time,.data
1969/12/31/18:00:36.292,(-1 -1 -4 -2 1 -1 -3 -2)
1969/12/31/18:00:36.292,(-1 -4 -3 -2 -2 -3 0 -1)
1969/12/31/18:00:36.293,(-1 1 2 2 0 -1 0 -1)
1969/12/31/18:00:36.293,(-1 -1 0 1 -2 0 0 -1)
1969/12/31/18:00:36.298,(0 -2 -2 -4 -1 -1 -2 -2)
1969/12/31/18:00:36.298,(-1 -1 -3 -1 -2 0 -1 0)
1969/12/31/18:00:36.306,(-1 -2 -1 -6 -2 -1 0 0)
1969/12/31/18:00:36.306,(-2 -4 -6 -8 -2 0 -2 -1)
1969/12/31/18:00:36.320,(-2 1 5 4 1 1 1 -1)
1969/12/31/18:00:36.320,(-2 -5 -5 -5 -1 -2 -3 -2)
1969/12/31/18:00:36.329,(0 -4 -9 -3 -3 -2 -2 -1)
1969/12/31/18:00:36.329,(1 3 4 8 2 1 0 1)
1969/12/31/18:00:36.344,(0 -1 0 2 4 3 -1 0)
1969/12/31/18:00:36.344,(-6 -8 -26 -25 -8 -2 -1 -3)
1969/12/31/18:00:36.350,(1 4 41 23 -1 -3 -1 0)
1969/12/31/18:00:36.350,(0 4 -10 6 3 -1 -1 1)
1969/12/31/18:00:36.367,(-4 -9 -11 -38 -16 -5 -4 -4)
1969/12/31/18:00:36.367,(2 7 10 20 4 3 2 1)
1969/12/31/18:00:36.368,(3 9 40 57 23 6 3 1)
1969/12/31/18:00:36.368,(-2 -4 -9 -12 -3 3 0 -3)
1969/12/31/18:00:36.380,(-3 -12 -45 -32 -12 -5 -2 -3)
1969/12/31/18:00:36.380,(-6 -14 -42 -30 -9 -5 -3 -5)
1969/12/31/18:00:36.389,(0 7 53 19 3 0 -3 0)
1969/12/31/18:00:36.389,(-4 -8 -50 -50 -10 0 -2 -5)
1969/12/31/18:00:36.403,(5 17 57 57 10 6 1 1)
1969/12/31/18:00:36.403,(3 6 7 2 11 2 -3 0)
1969/12/31/18:00:36.404,(2 8 11 9 -13 -3 -2 0)
1969/12/31/18:00:36.404,(4 10 21 33 18 21 9 4)
1969/12/31/18:00:36.417,(-6 -14 -51 -74 -12 -22 -14 -6)
1969/12/31/18:00:36.418,(-3 -14 17 25 1 9 -1 -3)
1969/12/31/18:00:36.425,(-7 -18 -61 -43 -13 -11 -3 -3)
1969/12/31/18:00:36.425,(-3 -12 -31 -48 -14 -8 1 4)
1969/12/31/18:00:36.440,(6 13 92 89 9 5 7 6)
1969/12/31/18:00:36.440,(10 24 46 75 29 -3 2 8)
1969/12/31/18:00:36.448,(5 0 -22 -31 -2 -1 -3 -2)
1969/12/31/18:00:36.448,(-4 -2 -17 -27 -16 -12 -16 -20)
1969/12/31/18:00:36.464,(-4 -17 -39 -16 -9 -5 4 3)
1969/12/31/18:00:36.464,(5 -8 6 -21 -4 -6 9 13)
1969/12/31/18:00:36.464,(-3 -24 -78 -5 -10 -10 -1 -2)
1969/12/31/18:00:36.464,(-1 -1 31 -17 -2 -19 3 7)
1969/12/31/18:00:36.478,(7 19 10 22 10 -12 7 13)
1969/12/31/18:00:36.478,(-6 -9 -32 -55 -11 -17 -6 -12)
1969/12/31/18:00:36.485,(7 16 62 71 26 0 5 2)
1969/12/31/18:00:36.485,(7 13 8 57 16 -7 7 12)
1969/12/31/18:00:36.500,(-7 -16 -32 -28 -7 -11 2 0)
1969/12/31/18:00:36.500,(-7 -7 -15 -14 -8 -7 8 9)
1969/12/31/18:00:36.508,(0 18 34 -7 11 6 5 5)
1969/12/31/18:00:36.508,(-4 -21 -51 -27 -13 5 -14 -13)
1969/12/31/18:00:36.523,(-4 13 44 14 3 25 -4 -10)
1969/12/31/18:00:36.523,(-1 20 22 20 10 28 5 -2)
1969/12/31/18:00:36.524,(-14 -21 -82 -65 -20 10 -13 -19)
1969/12/31/18:00:36.524,(-5 14 77 41 -1 16 -3 -7)
1969/12/31/18:00:36.538,(-11 -1 -36 -33 4 21 -8 -19)
1969/12/31/18:00:36.538,(-15 -22 -38 -32 -24 5 -18 -22)
1969/12/31/18:00:36.553,(-6 5 31 -13 -11 12 -8 -10)
1969/12/31/18:00:36.553,(11 14 17 39 10 14 6 6)
1969/12/31/18:00:36.560,(10 4 17 12 -3 -5 -6 -1)
1969/12/31/18:00:36.560,(9 3 40 22 -1 -6 4 10)
1969/12/31/18:00:36.568,(6 -9 -37 -5 1 -6 2 12)
1969/12/31/18:00:36.568,(4 -12 -8 -12 -6 -20 -3 3)
1969/12/31/18:00:36.584,(6 -13 -16 9 2 -14 8 17)
1969/12/31/18:00:36.584,(11 11 9 10 8 -18 3 10)
1969/12/31/18:00:36.591,(-3 -12 -9 -11 -2 -18 0 1)
1969/12/31/18:00:36.591,(-15 0 0 -9 5 6 1 -1)
1969/12/31/18:00:36.598,(-6 6 17 10 4 15 -3 -8)
1969/12/31/18:00:36.598,(0 -5 -22 -19 -7 -1 -3 -3)
1969/12/31/18:00:36.606,(5 -2 -6 -11 -4 -6 0 2)
1969/12/31/18:00:36.606,(4 1 14 15 4 -11 4 4)
1969/12/31/18:00:36.629,(1 3 -14 -3 1 -10 1 1)
1969/12/31/18:00:36.629,(-2 -1 -2 -6 -4 -6 -3 -5)
1969/12/31/18:00:36.630,(7 2 7 6 0 -9 0 2)
1969/12/31/18:00:36.630,(-12 -16 -8 2 3 -9 -3 -5)
1969/12/31/18:00:36.644,(5 1 -4 -13 -1 -2 -2 -2)
1969/12/31/18:00:36.644,(6 9 7 6 4 9 0 -2)
1969/12/31/18:00:36.651,(3 8 5 -5 -4 6 -4 -4)
1969/12/31/18:00:36.651,(-29 -6 1 -6 -3 11 -3 -13)
1969/12/31/18:00:36.658,(-2 -4 -3 -3 -5 10 -3 -3)
1969/12/31/18:00:36.658,(0 -2 8 3 -3 9 -6 -7)
1969/12/31/18:00:36.666,(2 6 -3 -7 0 13 0 -2)
1969/12/31/18:00:36.666,(-14 -7 -7 -12 -9 3 -8 -11)
1969/12/31/18:00:36.680,(22 7 9 9 1 6 3 11)
1969/12/31/18:00:36.680,(-21 0 1 4 1 6 -1 -5)
1969/12/31/18:00:36.688,(-38 -27 -14 -12 -7 -3 -7 -18)
1969/12/31/18:00:36.688,(21 5 -3 0 -3 0 4 5)
1969/12/31/18:00:36.703,(-21 -12 -3 4 3 -10 -2 -2)
1969/12/31/18:00:36.703,(-3 2 -1 -1 0 -7 -6 3)
1969/12/31/18:00:36.711,(24 14 2 2 -1 -19 14 28)
1969/12/31/18:00:36.711,(23 5 7 9 3 -7 -17 -2)
1969/12/31/18:00:36.717,(-34 -29 -18 -7 -4 -18 -12 -29)
1969/12/31/18:00:36.717,(5 -2 -4 -1 3 -4 8 9)
1969/12/31/18:00:36.726,(-2 0 6 6 3 -6 11 11)
1969/12/31/18:00:36.726,(27 14 5 4 17 48 16 24)
1969/12/31/18:00:36.740,(-2 7 -2 -1 -11 -57 2 6)
1969/12/31/18:00:36.740,(5 3 0 3 0 -8 -1 -19)
1969/12/31/18:00:36.749,(-27 -22 -7 -1 -4 -25 -20 -9)
1969/12/31/18:00:36.749,(10 -1 -5 3 -1 -9 17 10)
1969/12/31/18:00:36.763,(13 4 -3 2 8 12 13 29)
1969/12/31/18:00:36.763,(-5 2 2 -3 6 0 -7 -18)
1969/12/31/18:00:36.771,(-23 -1 3 -12 -2 28 10 -29)
1969/12/31/18:00:36.771,(-20 7 8 -5 -3 12 -16 -32)
1969/12/31/18:00:36.777,(-30 -9 4 -6 -5 37 -2 -24)
1969/12/31/18:00:36.777,(47 19 5 -1 -8 8 6 22)
1969/12/31/18:00:36.786,(16 5 5 2 -1 20 -1 63)
1969/12/31/18:00:36.786,(-63 -32 -13 -9 -10 -17 -27 -75)
1969/12/31/18:00:36.800,(21 13 4 -1 -7 7 22 27)
1969/12/31/18:00:36.800,(-3 -12 -6 -3 0 30 -9 10)
1969/12/31/18:00:36.808,(31 12 4 4 -6 -39 1 12)
1969/12/31/18:00:36.808,(-13 8 6 7 -2 -2 29 38)
1969/12/31/18:00:36.823,(-9 -17 -15 -12 -7 -26 -35 -26)
1969/12/31/18:00:36.823,(1 5 6 5 5 7 8 -38)
1969/12/31/18:00:36.831,(-14 -24 -13 -9 -5 -19 -29 -11)
1969/12/31/18:00:36.831,(16 9 -1 -3 -2 -11 4 28)
1969/12/31/18:00:36.845,(10 3 -1 -3 1 9 26 -6)
1969/12/31/18:00:36.845,(-15 2 3 1 2 -1 -13 22)
1969/12/31/18:00:36.854,(1 8 3 4 4 2 -4 -67)
1969/12/31/18:00:36.854,(-36 -27 -19 -15 -13 -11 0 -22)
1969/12/31/18:00:36.860,(6 4 2 3 4 4 11 18)
1969/12/31/18:00:36.860,(-10 -10 -4 0 -1 -14 12 16)
1969/12/31/18:00:36.869,(10 7 10 8 10 45 19 -6)
1969/12/31/18:00:36.869,(34 12 3 4 -4 -36 -12 26)
1969/12/31/18:00:36.883,(-14 -3 -3 1 1 9 -6 -11)
1969/12/31/18:00:36.883,(-19 -18 -7 -5 -8 -16 -2 -2)
1969/12/31/18:00:36.897,(19 14 1 -1 2 -1 1 10)
1969/12/31/18:00:36.897,(17 8 4 1 3 17 16 20)
1969/12/31/18:00:36.905,(6 8 3 4 2 2 -22 -6)
1969/12/31/18:00:36.905,(12 -18 -6 -4 -6 -6 21 36)
1969/12/31/18:00:36.914,(-1 -3 0 1 2 10 10 25)
1969/12/31/18:00:36.914,(8 7 0 1 3 -7 -20 -14)
1969/12/31/18:00:36.920,(-16 -2 -2 2 -2 -11 -13 -27)
1969/12/31/18:00:36.920,(1 2 -3 -3 -2 -2 6 9)
1969/12/31/18:00:36.929,(-9 -3 5 6 1 9 23 62)
1969/12/31/18:00:36.929,(-5 -7 -2 -2 4 5 -6 -13)
1969/12/31/18:00:36.943,(10 2 2 0 1 8 -1 -9)
1969/12/31/18:00:36.943,(-2 3 -2 -2 -4 -12 -5 -10)
1969/12/31/18:00:36.951,(-5 -6 -8 -8 0 2 14 15)
1969/12/31/18:00:36.952,(4 -6 3 5 3 1 7 25)
1969/12/31/18:00:36.966,(22 22 3 1 -1 2 3 57)
1969/12/31/18:00:36.966,(-10 -15 -11 -9 -4 -20 -33 -21)
1969/12/31/18:00:36.972,(-14 -4 -1 -4 1 18 5 -28)
1969/12/31/18:00:36.973,(7 -1 0 -2 -2 -3 2 14)
1969/12/31/18:00:36.980,(10 5 5 5 5 4 -2 16)
1969/12/31/18:00:36.980,(7 4 1 2 -1 -14 12 16)
1969/12/31/18:00:36.989,(-1 0 -6 -5 -6 -2 -52 -43)
1969/12/31/18:00:36.989,(10 -1 0 1 3 -3 3 -4)
1969/12/31/18:00:37.002,(7 5 8 8 9 9 8 22)
1969/12/31/18:00:37.002,(10 -1 -4 -7 -6 -2 -29 -19)
1969/12/31/18:00:37.012,(-13 -7 0 1 -2 -16 -8 11)
1969/12/31/18:00:37.012,(-1 5 0 -2 -4 -3 16 -3)
1969/12/31/18:00:37.026,(-6 -4 2 1 1 3 -16 -22)
1969/12/31/18:00:37.026,(2 3 4 5 4 14 13 51)
1969/12/31/18:00:37.041,(2 0 -1 -1 1 1 11 -8)
1969/12/31/18:00:37.041,(-20 -9 -5 -6 -6 1 -40 -30)
1969/12/31/18:00:37.041,(12 1 3 1 0 -5 28 47)
1969/12/31/18:00:37.041,(-3 -1 -2 -1 3 19 7 -15)
1969/12/31/18:00:37.049,(1 15 3 2 -4 -31 -46 -61)
1969/12/31/18:00:37.049,(2 6 -2 -6 3 30 9 -10)
1969/12/31/18:00:37.062,(-33 -19 -5 -9 -16 -45 -9 -36)
1969/12/31/18:00:37.062,(-28 -4 -6 -6 -1 -2 -17 -34)
1969/12/31/18:00:37.079,(2 -11 -2 -4 -1 2 14 18)
1969/12/31/18:00:37.079,(8 12 16 12 4 -6 20 33)
1969/12/31/18:00:37.094,(4 8 -3 -4 4 17 -27 -44)
1969/12/31/18:00:37.094,(30 4 1 2 1 -3 9 28)
1969/12/31/18:00:37.095,(-24 -13 -11 -8 -12 -23 -2 -23)
1969/12/31/18:00:37.095,(-7 -10 -7 -6 -1 26 12 -22)
1969/12/31/18:00:37.116,(7 4 2 0 4 22 0 6)
1969/12/31/18:00:37.116,(-17 -10 0 0 -3 -12 -4 -11)
1969/12/31/18:00:37.118,(2 -2 1 3 8 8 6 20)
1969/12/31/18:00:37.118,(17 2 -8 -6 -6 -30 -19 -16)
1969/12/31/18:00:37.131,(0 -10 -7 -7 -5 -5 -3 -15)
1969/12/31/18:00:37.131,(-2 17 5 2 3 9 3 -17)
1969/12/31/18:00:37.133,(8 -1 10 15 15 20 35 60)
1969/12/31/18:00:37.133,(-7 -23 -4 2 -3 -11 1 37)
1969/12/31/18:00:37.154,(38 23 -3 -3 -4 -25 -3 -24)
1969/12/31/18:00:37.154,(-15 -14 -3 -3 -4 7 5 35)
1969/12/31/18:00:37.155,(-5 6 3 2 4 57 24 -10)
1969/12/31/18:00:37.155,(-8 -9 -10 -6 -6 -24 23 26)
1969/12/31/18:00:37.169,(1 -1 8 5 5 -5 -31 33)
1969/12/31/18:00:37.169,(12 11 5 2 1 -11 3 3)
1969/12/31/18:00:37.182,(0 -1 -3 -6 -3 0 -11 -9)
1969/12/31/18:00:37.182,(20 8 3 0 2 2 -1 8)
1969/12/31/18:00:37.191,(-23 -15 -7 -6 -5 4 13 -48)
1969/12/31/18:00:37.191,(19 18 3 -1 5 37 23 5)
1969/12/31/18:00:37.193,(-21 -28 -4 -3 -7 -37 -21 -21)
1969/12/31/18:00:37.193,(8 8 3 2 5 5 1 22)
1969/12/31/18:00:37.214,(-42 -25 -14 -8 -6 -9 12 -23)
1969/12/31/18:00:37.214,(2 3 4 2 3 0 -10 -27)
1969/12/31/18:00:37.215,(28 29 3 0 0 6 23 37)
1969/12/31/18:00:37.215,(10 3 4 3 -3 -28 -61 -64)
1969/12/31/18:00:37.228,(12 -12 -12 -9 -8 11 11 48)
1969/12/31/18:00:37.228,(-2 -2 0 0 0 14 7 36)
1969/12/31/18:00:37.235,(14 14 6 2 -2 -42 -19 -10)
1969/12/31/18:00:37.235,(-20 -8 -9 -8 -7 -2 15 -32)
1969/12/31/18:00:37.251,(-8 -19 4 4 5 8 6 12)
1969/12/31/18:00:37.251,(-22 -12 -10 -9 -12 -23 -35 -68)
1969/12/31/18:00:37.253,(-7 5 0 0 2 0 -13 -27)
1969/12/31/18:00:37.253,(22 9 0 -3 -5 -19 -3 31)
1969/12/31/18:00:37.274,(7 6 0 0 7 31 -5 -2)
1969/12/31/18:00:37.274,(32 15 8 10 5 12 44 42)
1969/12/31/18:00:37.275,(-22 -7 -9 -7 -11 -20 -29 -45)
1969/12/31/18:00:37.275,(-41 -24 -14 -8 -7 -1 -20 -66)
1969/12/31/18:00:37.288,(-34 -9 -2 2 1 0 -13 -63)
1969/12/31/18:00:37.288,(3 3 -5 -7 -6 -13 -20 -9)
1969/12/31/18:00:37.302,(16 -3 -4 1 1 9 13 14)
1969/12/31/18:00:37.302,(-5 11 2 1 2 23 2 5)
1969/12/31/18:00:37.312,(-5 -18 -5 -3 -6 -13 -5 19)
1969/12/31/18:00:37.312,(7 -4 -1 -1 1 2 8 8)
1969/12/31/18:00:37.314,(-18 9 8 5 6 13 1 -22)
1969/12/31/18:00:37.314,(25 12 4 0 3 0 18 -2)
1969/12/31/18:00:37.334,(2 12 3 -4 0 4 1 16)
1969/12/31/18:00:37.334,(-34 -12 -6 -7 -7 -21 -5 7)
1969/12/31/18:00:37.335,(-18 -11 -1 1 5 46 10 -30)
1969/12/31/18:00:37.335,(1 -3 0 2 2 48 21 -3)
1969/12/31/18:00:37.348,(3 15 7 7 -6 -83 -7 -5)
1969/12/31/18:00:37.348,(4 -14 -8 -7 0 9 -10 -33)
1969/12/31/18:00:37.356,(5 13 2 0 5 -20 -16 -3)
1969/12/31/18:00:37.356,(-2 -1 3 7 9 20 3 17)
1969/12/31/18:00:37.371,(27 13 4 15 19 25 20 28)
1969/12/31/18:00:37.371,(-18 -11 -2 -14 -47 -46 -9 -23)
1969/12/31/18:00:37.373,(23 -11 -11 -17 -2 37 -3 30)
1969/12/31/18:00:37.373,(11 26 3 -4 -27 -8 11 1)
1969/12/31/18:00:37.394,(-17 -14 -3 -1 -2 -7 -16 -36)
1969/12/31/18:00:37.394,(-7 -7 0 13 16 -22 -13 -34)
1969/12/31/18:00:37.395,(-24 -12 -9 0 13 1 -13 -67)
1969/12/31/18:00:37.395,(1 2 5 3 17 9 -9 0)
1969/12/31/18:00:37.408,(0 8 4 -7 1 33 2 -5)
1969/12/31/18:00:37.408,(-49 -10 -9 -2 -8 6 -26 -53)
1969/12/31/18:00:37.416,(22 4 -3 -20 -93 -87 4 43)
1969/12/31/18:00:37.416,(0 0 3 1 33 13 -7 -8)
1969/12/31/18:00:37.431,(-11 -9 -7 -3 -8 -20 4 1)
1969/12/31/18:00:37.431,(33 20 7 7 14 45 3 36)
1969/12/31/18:00:37.433,(-3 -9 -2 19 67 28 8 22)
1969/12/31/18:00:37.433,(-23 -20 6 13 -7 -23 -5 -7)
1969/12/31/18:00:37.454,(1 -8 -5 -15 -36 21 -12 -14)
1969/12/31/18:00:37.454,(-19 -6 -2 8 75 40 10 -28)
1969/12/31/18:00:37.456,(-8 12 4 -4 -60 -34 -11 -39)
1969/12/31/18:00:37.456,(9 -7 -10 -15 -2 -32 0 24)
1969/12/31/18:00:37.468,(13 4 -1 -11 -48 21 19 17)
1969/12/31/18:00:37.468,(-4 -2 1 -5 -19 -33 -9 4)
1969/12/31/18:00:37.476,(-1 -5 -4 3 52 32 12 14)
1969/12/31/18:00:37.476,(-3 3 1 16 47 41 22 17)
1969/12/31/18:00:37.491,(8 16 0 -15 -74 -69 -26 -11)
1969/12/31/18:00:37.491,(-21 -7 -4 -3 -4 -35 -3 -19)
1969/12/31/18:00:37.493,(-16 -36 -7 7 29 47 24 26)
1969/12/31/18:00:37.493,(3 -3 -1 -4 11 6 -2 11)
1969/12/31/18:00:37.514,(6 13 6 6 0 -11 5 2)
1969/12/31/18:00:37.514,(-12 8 1 -6 -7 -13 -6 -9)
1969/12/31/18:00:37.515,(4 1 -2 2 1 -9 -20 -8)
1969/12/31/18:00:37.515,(1 0 0 0 -23 -21 -4 9)
1969/12/31/18:00:37.527,(3 -6 -2 4 29 25 14 19)
1969/12/31/18:00:37.527,(69 18 3 8 19 25 26 85)
1969/12/31/18:00:37.537,(-24 -27 -13 -11 -11 -34 -16 -32)
1969/12/31/18:00:37.537,(-18 -11 -13 -9 -37 -24 -17 -30)
1969/12/31/18:00:37.551,(-5 7 0 2 9 16 23 22)
1969/12/31/18:00:37.551,(8 21 33 4 -34 2 11 13)
1969/12/31/18:00:37.553,(3 10 -1 2 29 20 -6 20)
1969/12/31/18:00:37.553,(-3 -7 -1 6 20 24 -3 -12)
1969/12/31/18:00:37.574,(27 12 -14 0 -19 -52 -36 -29)
1969/12/31/18:00:37.574,(7 -28 -19 -10 16 17 -1 -14)
1969/12/31/18:00:37.589,(-13 40 29 14 -7 -9 11 -9)
1969/12/31/18:00:37.589,(3 -15 -26 -18 -21 -26 -1 26)
1969/12/31/18:00:37.596,(-11 5 75 64 92 63 23 31)
1969/12/31/18:00:37.596,(2 -7 -35 -26 -63 -18 6 35)
1969/12/31/18:00:37.598,(22 35 5 -22 -10 -8 -6 2)
1969/12/31/18:00:37.598,(21 -12 -26 -2 -9 -4 10 40)
1969/12/31/18:00:37.611,(16 -24 -33 -10 66 70 32 9)
1969/12/31/18:00:37.611,(-31 -3 44 13 -44 -54 -29 -29)
1969/12/31/18:00:37.613,(-10 12 22 26 4 0 -9 19)
1969/12/31/18:00:37.613,(16 22 1 -29 -66 -38 -14 -9)
1969/12/31/18:00:37.634,(25 -7 -19 -17 2 -17 16 50)
1969/12/31/18:00:37.634,(3 -51 -40 5 33 22 -3 -5)
1969/12/31/18:00:37.635,(-1 -28 -46 -15 48 58 15 0)
1969/12/31/18:00:37.635,(5 43 47 24 2 -8 8 25)
1969/12/31/18:00:37.647,(5 -2 -22 -30 -68 -43 -14 -12)
1969/12/31/18:00:37.647,(-29 -17 4 7 35 17 -5 -25)
1969/12/31/18:00:37.657,(-31 -30 -8 -11 -29 -31 -11 -6)
1969/12/31/18:00:37.657,(-15 23 25 22 27 7 -6 -23)
1969/12/31/18:00:37.671,(21 8 6 3 -12 -3 1 5)
1969/12/31/18:00:37.671,(15 7 -17 -18 -39 -24 -11 -14)
1969/12/31/18:00:37.677,(19 -34 -55 -7 4 11 -9 -6)
1969/12/31/18:00:37.677,(-45 -8 38 16 26 8 -22 -71)
1969/12/31/18:00:37.694,(-7 62 41 18 25 26 19 3)
1969/12/31/18:00:37.694,(-40 -30 -20 -3 9 6 -29 -45)
1969/12/31/18:00:37.695,(17 21 32 1 -63 -21 16 42)
1969/12/31/18:00:37.695,(-39 -50 -41 -32 18 25 21 -14)
1969/12/31/18:00:37.707,(-26 -79 -39 -5 1 -28 -29 -23)
1969/12/31/18:00:37.707,(16 53 -4 -14 -54 -30 -10 30)
1969/12/31/18:00:37.723,(18 23 31 13 22 -13 5 16)
1969/12/31/18:00:37.723,(-6 -74 -62 -10 21 4 0 7)
1969/12/31/18:00:37.732,(-44 80 70 23 2 28 -9 -62)
1969/12/31/18:00:37.732,(25 31 12 5 -5 -2 24 33)
1969/12/31/18:00:37.734,(23 -40 -35 -20 -24 -25 -21 -25)
1969/12/31/18:00:37.734,(-7 14 12 11 32 28 -2 -17)
1969/12/31/18:00:37.754,(49 -31 -71 -25 -2 1 9 65)
1969/12/31/18:00:37.754,(-35 102 118 64 32 18 17 10)
1969/12/31/18:00:37.755,(17 42 13 13 2 -1 -14 -4)
1969/12/31/18:00:37.755,(71 -72 -68 -31 3 32 10 -8)
1969/12/31/18:00:37.767,(-83 -9 4 4 -34 -31 -1 -55)
1969/12/31/18:00:37.767,(7 -28 5 5 39 57 5 28)
1969/12/31/18:00:37.777,(-21 -10 -21 -19 3 -15 -3 -9)
1969/12/31/18:00:37.777,(81 -3 -16 -14 -56 -32 32 112)
1969/12/31/18:00:37.791,(-4 18 4 -6 12 -1 -14 -28)
1969/12/31/18:00:37.791,(3 20 6 -7 -28 -35 -21 -33)
1969/12/31/18:00:37.793,(-14 -32 -17 7 25 15 14 14)
1969/12/31/18:00:37.793,(14 -74 -40 2 36 17 -18 28)
1969/12/31/18:00:37.814,(16 -45 -52 -34 -28 -8 7 2)
1969/12/31/18:00:37.814,(35 76 54 4 -5 -6 17 9)
1969/12/31/18:00:37.815,(3 -17 29 23 3 1 -20 20)
1969/12/31/18:00:37.815,(21 41 38 37 11 -5 -2 -19)
1969/12/31/18:00:37.827,(11 -3 -11 -3 -10 4 -1 -2)
1969/12/31/18:00:37.828,(-29 -60 -59 -25 -4 0 7 21)
1969/12/31/18:00:37.837,(-29 75 17 -4 -24 -11 -8 -68)
1969/12/31/18:00:37.837,(-6 -40 -11 -1 28 21 21 -17)
1969/12/31/18:00:37.852,(-27 -9 66 41 78 42 -2 -2)
1969/12/31/18:00:37.852,(5 32 -24 -22 -39 -27 6 -17)
1969/12/31/18:00:37.853,(-3 -40 -23 -32 -98 -69 -28 -26)
1969/12/31/18:00:37.853,(-2 44 10 1 -16 10 9 -10)
1969/12/31/18:00:37.874,(19 -103 -66 -23 4 -8 28 43)
1969/12/31/18:00:37.874,(20 -36 -32 4 56 22 -12 -1)
1969/12/31/18:00:37.875,(-24 88 97 22 31 29 2 -3)
1969/12/31/18:00:37.875,(-33 49 4 5 56 37 -2 -19)
1969/12/31/18:00:37.898,(47 39 28 -12 -110 -103 -21 60)
1969/12/31/18:00:37.898,(46 47 40 20 35 3 0 -21)
1969/12/31/18:00:37.899,(-69 -124 -73 -13 14 -1 6 -13)
1969/12/31/18:00:37.899,(-13 28 -13 -7 8 4 -26 -38)
1969/12/31/18:00:37.911,(-14 91 32 9 43 52 22 -3)
1969/12/31/18:00:37.911,(18 16 18 13 -10 -17 -11 25)
1969/12/31/18:00:37.917,(-30 -38 -31 -21 -4 7 -5 -23)
1969/12/31/18:00:37.918,(-24 -8 22 -17 -86 -74 -15 -10)
1969/12/31/18:00:37.934,(-20 -62 -44 -3 14 10 7 5)
1969/12/31/18:00:37.934,(0 -114 -85 -31 -20 -2 -30 -45)
1969/12/31/18:00:37.935,(8 115 95 18 36 40 21 -4)
1969/12/31/18:00:37.936,(-64 22 39 23 -34 -36 -18 -37)
1969/12/31/18:00:37.957,(10 121 81 14 -43 -31 -29 -25)
1969/12/31/18:00:37.957,(-19 -73 -55 -16 33 30 24 12)
1969/12/31/18:00:37.958,(83 -90 -115 -23 -1 -1 22 87)
1969/12/31/18:00:37.958,(-30 89 86 38 16 18 14 37)
1969/12/31/18:00:37.971,(34 13 -18 12 9 3 7 29)
1969/12/31/18:00:37.971,(-39 -83 -42 -7 35 13 -10 -57)
1969/12/31/18:00:37.977,(32 20 22 7 -52 -28 3 5)
1969/12/31/18:00:37.978,(24 10 -23 -11 10 15 19 25)
1969/12/31/18:00:37.994,(-15 41 49 2 -41 -20 -10 -38)
1969/12/31/18:00:37.994,(40 62 59 26 23 6 6 8)
1969/12/31/18:00:38.008,(-46 -68 -41 -15 6 1 1 -21)
1969/12/31/18:00:38.008,(14 -60 -28 -10 -24 -26 -16 -9)
1969/12/31/18:00:38.015,(-5 -41 -34 -6 51 39 -18 -20)
1969/12/31/18:00:38.015,(5 19 -19 3 -3 5 41 58)
1969/12/31/18:00:38.024,(-10 -20 -7 -15 -4 16 -19 -56)
1969/12/31/18:00:38.024,(-10 53 16 -23 -79 -82 -37 -26)
1969/12/31/18:00:38.031,(9 -21 -23 -19 -10 3 -5 13)
1969/12/31/18:00:38.031,(24 42 37 15 -22 -25 -6 5)
1969/12/31/18:00:38.038,(38 -63 -77 -3 56 21 23 20)
1969/12/31/18:00:38.038,(0 66 77 77 116 90 30 87)
1969/12/31/18:00:38.054,(-31 -40 -48 -23 -83 -71 -20 -69)
1969/12/31/18:00:38.054,(-85 -58 -15 -44 -59 -25 -4 -15)
1969/12/31/18:00:38.055,(9 25 -9 9 36 -2 -12 -26)
1969/12/31/18:00:38.055,(2 -71 -36 -27 9 -10 -14 -31)
1969/12/31/18:00:38.084,(15 -30 12 15 23 22 12 23)
1969/12/31/18:00:38.084,(1 -32 -33 -2 13 34 9 15)
1969/12/31/18:00:38.085,(40 12 -14 8 36 18 35 66)
1969/12/31/18:00:38.085,(-31 92 88 16 -59 -12 -17 -16)
1969/12/31/18:00:38.090,(-14 6 13 0 22 9 1 12)
1969/12/31/18:00:38.091,(-16 -78 -55 -11 -1 -9 -3 -9)
1969/12/31/18:00:38.098,(-20 -35 -21 -34 -56 -21 -14 11)
1969/12/31/18:00:38.098,(30 -47 -57 -30 -26 -17 4 -37)
1969/12/31/18:00:38.114,(-54 -42 -26 -10 26 -18 -25 -47)
1969/12/31/18:00:38.114,(0 45 22 5 28 8 -18 -11)
1969/12/31/18:00:38.115,(17 118 64 49 -5 -9 -2 8)
1969/12/31/18:00:38.115,(17 38 29 -3 17 35 20 8)
1969/12/31/18:00:38.137,(43 -33 -31 -5 21 20 -7 23)
1969/12/31/18:00:38.137,(-10 -85 -53 -3 9 -6 -4 -18)
1969/12/31/18:00:38.138,(-8 11 9 -12 -44 -7 -3 -6)
1969/12/31/18:00:38.138,(-29 17 3 -13 3 -6 17 26)
1969/12/31/18:00:38.150,(1 -1 -28 -6 -18 -38 -10 29)
1969/12/31/18:00:38.151,(53 93 69 24 0 28 19 86)
1969/12/31/18:00:38.157,(-2 -99 -63 -26 -29 -24 -15 5)
1969/12/31/18:00:38.157,(-27 -40 -19 -1 36 9 -26 -9)
1969/12/31/18:00:38.174,(13 32 13 5 0 18 20 14)
1969/12/31/18:00:38.174,(-45 -42 -35 -2 15 13 -12 -54)
1969/12/31/18:00:38.176,(-13 101 93 3 -58 -36 -21 4)
1969/12/31/18:00:38.176,(20 -62 -51 3 51 6 16 33)
1969/12/31/18:00:38.196,(-39 -47 -17 -11 -32 -22 -11 -95)
1969/12/31/18:00:38.196,(-13 22 1 -13 -26 -19 -26 -57)
1969/12/31/18:00:38.198,(3 1 -4 -4 49 29 6 1)
1969/12/31/18:00:38.198,(26 23 14 11 -34 -7 9 20)
1969/12/31/18:00:38.210,(24 -89 -54 -11 42 46 5 19)
1969/12/31/18:00:38.210,(1 101 86 37 -51 -53 -9 16)
1969/12/31/18:00:38.219,(-6 -87 -73 -24 -8 0 1 -29)
1969/12/31/18:00:38.219,(-26 6 18 15 12 24 7 -41)
1969/12/31/18:00:38.234,(67 5 4 -2 -12 -15 5 97)
1969/12/31/18:00:38.234,(-50 -89 -68 -26 6 2 -27 -67)
1969/12/31/18:00:38.236,(14 127 119 16 -35 -31 0 21)
1969/12/31/18:00:38.236,(17 -64 -57 -5 23 2 0 6)
1969/12/31/18:00:38.256,(-22 -10 -4 2 10 1 14 -7)
1969/12/31/18:00:38.256,(-43 -23 -6 -34 -51 -42 -15 -29)
1969/12/31/18:00:38.258,(34 -33 -13 22 36 30 40 42)
1969/12/31/18:00:38.258,(-41 -63 -63 -44 -47 -43 -38 -74)
1969/12/31/18:00:38.270,(-3 114 70 25 60 36 2 -22)
1969/12/31/18:00:38.270,(24 -4 3 18 54 52 27 58)
1969/12/31/18:00:38.295,(-1 67 55 30 -6 14 19 -14)
1969/12/31/18:00:38.295,(28 -96 -95 -39 -1 -24 0 62)
1969/12/31/18:00:38.295,(-15 103 105 44 1 9 -17 -46)
1969/12/31/18:00:38.296,(9 63 50 8 -16 -6 7 12)
1969/12/31/18:00:38.297,(11 -66 -14 14 27 21 21 22)
1969/12/31/18:00:38.297,(-5 -76 -51 -21 -4 19 -8 -7)
1969/12/31/18:00:38.316,(25 -5 -8 -3 7 -5 33 55)
1969/12/31/18:00:38.316,(6 1 -24 -22 -47 -33 -4 -5)
1969/12/31/18:00:38.318,(-50 -5 10 27 81 39 -13 -26)
1969/12/31/18:00:38.318,(1 9 10 1 -54 -45 -22 -9)
1969/12/31/18:00:38.330,(-2 55 50 19 3 10 10 -6)
1969/12/31/18:00:38.330,(13 0 0 12 54 30 5 -3)
1969/12/31/18:00:38.339,(27 -56 -64 -21 3 8 9 -23)
1969/12/31/18:00:38.339,(-4 101 93 50 0 -15 -28 -10)
1969/12/31/18:00:38.354,(-30 -93 -71 -36 -71 -34 -22 -29)
1969/12/31/18:00:38.354,(-10 -28 -26 -33 -1 -2 5 -8)
1969/12/31/18:00:38.355,(31 14 4 7 25 21 -2 18)
1969/12/31/18:00:38.355,(20 -15 -9 -4 -27 -21 26 15)
1969/12/31/18:00:38.376,(-54 28 8 6 29 28 -7 -24)
1969/12/31/18:00:38.376,(62 -6 -17 19 11 6 18 50)
1969/12/31/18:00:38.378,(-28 -89 -68 -51 -76 -49 -18 -6)
1969/12/31/18:00:38.378,(29 105 77 36 76 52 8 -26)
1969/12/31/18:00:38.390,(18 0 47 41 -4 -24 -15 1)
1969/12/31/18:00:38.390,(-25 -64 -64 -41 -23 -14 -28 -5)
1969/12/31/18:00:38.399,(-10 -52 -39 -19 8 8 3 -14)
1969/12/31/18:00:38.399,(-16 6 19 14 14 12 14 17)
1969/12/31/18:00:38.414,(28 -4 -81 -35 10 8 -5 9)
1969/12/31/18:00:38.414,(-32 115 127 67 21 -14 -17 -31)
1969/12/31/18:00:38.428,(45 74 37 6 -55 -12 8 21)
1969/12/31/18:00:38.428,(-53 -90 -72 -42 -11 -10 -12 -16)
1969/12/31/18:00:38.436,(-7 -15 12 -14 -6 -8 6 11)
1969/12/31/18:00:38.436,(-27 1 -12 -15 -41 -4 9 -25)
1969/12/31/18:00:38.438,(7 44 34 26 16 -22 -25 4)
1969/12/31/18:00:38.438,(20 -1 0 3 36 43 15 -2)
1969/12/31/18:00:38.450,(-24 -57 -39 -6 6 -1 11 47)
1969/12/31/18:00:38.450,(-12 41 15 -11 -7 1 -4 -21)
1969/12/31/18:00:38.459,(-20 7 9 0 12 -28 -14 -5)
1969/12/31/18:00:38.459,(-11 -38 -25 1 -24 -8 5 12)
1969/12/31/18:00:38.474,(23 -27 -40 -16 11 16 25 32)
1969/12/31/18:00:38.474,(71 -76 -38 1 32 10 26 13)
1969/12/31/18:00:38.476,(-51 104 86 15 -52 -4 5 7)
1969/12/31/18:00:38.476,(-12 -45 -45 -14 2 -28 -34 -32)
1969/12/31/18:00:38.496,(5 -19 -4 5 -17 -13 -3 -4)
1969/12/31/18:00:38.496,(25 -18 -49 -11 33 20 8 18)
1969/12/31/18:00:38.498,(-18 -78 -24 7 8 8 13 -14)
1969/12/31/18:00:38.498,(-25 95 52 -4 2 14 -24 -45)
1969/12/31/18:00:38.510,(-11 12 14 12 23 26 10 -34)
1969/12/31/18:00:38.510,(-10 -7 -20 -21 -19 -7 8 -3)
1969/12/31/18:00:38.519,(8 6 23 2 -12 -5 -10 -17)
1969/12/31/18:00:38.519,(55 14 9 21 18 32 39 116)
1969/12/31/18:00:38.534,(-88 4 22 -13 -39 -52 -48 -96)
1969/12/31/18:00:38.534,(8 -21 -10 -2 5 13 6 37)
1969/12/31/18:00:38.536,(6 -60 -55 -11 12 0 6 -1)
1969/12/31/18:00:38.536,(-12 98 90 21 -31 -33 -3 -19)
1969/12/31/18:00:38.557,(30 -43 -39 0 46 52 15 23)
1969/12/31/18:00:38.557,(14 -45 -36 12 -5 -32 -9 12)
1969/12/31/18:00:38.559,(-49 6 29 -32 -23 14 -13 -42)
1969/12/31/18:00:38.559,(33 37 -4 8 6 1 -7 -3)
1969/12/31/18:00:38.570,(54 -33 -44 -16 -24 -24 2 24)
1969/12/31/18:00:38.570,(-100 82 126 46 30 15 -5 -44)
1969/12/31/18:00:38.579,(29 -71 -94 -29 -21 -25 -25 -33)
1969/12/31/18:00:38.579,(16 -19 -18 -23 -23 -16 2 -5)
1969/12/31/18:00:38.594,(8 25 -3 1 20 35 1 -8)
1969/12/31/18:00:38.594,(-6 0 25 21 11 -21 -3 4)
1969/12/31/18:00:38.596,(41 -17 -20 7 40 39 28 36)
1969/12/31/18:00:38.596,(-20 60 92 36 29 7 28 47)
1969/12/31/18:00:38.616,(0 -30 -29 -25 -63 -34 -18 0)
1969/12/31/18:00:38.617,(11 -93 -100 -22 19 35 -6 13)
1969/12/31/18:00:38.618,(-6 83 56 10 -20 -28 -22 -8)
1969/12/31/18:00:38.618,(-9 -15 -9 -10 -42 -41 3 -32)
1969/12/31/18:00:38.630,(-7 48 39 24 94 75 26 40)
1969/12/31/18:00:38.630,(-5 -18 -14 -10 -90 -75 -32 -53)
1969/12/31/18:00:38.639,(-65 -21 4 -22 -28 -25 -17 -37)
1969/12/31/18:00:38.639,(25 -81 -84 -28 13 24 -2 24)
1969/12/31/18:00:38.653,(-13 -2 8 0 -11 -10 -10 -30)
1969/12/31/18:00:38.653,(37 -14 -28 -1 35 33 35 15)
1969/12/31/18:00:38.655,(30 51 30 15 23 26 2 36)
1969/12/31/18:00:38.655,(-30 -58 -30 -18 -36 -19 -5 -17)
1969/12/31/18:00:38.676,(-19 25 7 -5 16 -26 -41 -49)
1969/12/31/18:00:38.676,(-30 -6 14 2 -27 7 20 14)
1969/12/31/18:00:38.678,(40 -51 -46 -1 -1 -11 16 38)
1969/12/31/18:00:38.678,(-47 -4 1 7 28 22 10 -32)
1969/12/31/18:00:38.690,(25 67 87 54 48 5 -3 19)
1969/12/31/18:00:38.690,(11 -23 -41 -14 -30 12 12 23)
1969/12/31/18:00:38.705,(-22 -1 22 -9 -20 -22 -41 -36)
1969/12/31/18:00:38.705,(24 -69 -95 -39 -29 -33 -29 -1)
1969/12/31/18:00:38.714,(-53 -45 -21 1 -9 0 6 -34)
1969/12/31/18:00:38.714,(17 62 36 13 47 20 -16 -15)
1969/12/31/18:00:38.715,(9 17 15 4 -15 -29 2 -6)
1969/12/31/18:00:38.715,(-28 -34 -32 -22 -1 18 40 41)
1969/12/31/18:00:38.736,(20 26 8 11 -42 -51 15 18)
1969/12/31/18:00:38.736,(39 1 -31 -24 24 25 4 42)
1969/12/31/18:00:38.738,(-51 54 64 35 52 31 -13 -50)
1969/12/31/18:00:38.738,(-18 -26 -7 0 -15 4 13 -2)
1969/12/31/18:00:38.750,(-6 -18 -19 -17 -30 -14 7 -7)
1969/12/31/18:00:38.750,(-9 -53 -16 4 8 18 35 28)
1969/12/31/18:00:38.759,(29 -23 -47 -10 19 4 7 20)
1969/12/31/18:00:38.759,(-25 96 78 24 17 4 -2 -34)
1969/12/31/18:00:38.774,(-8 21 20 6 -7 7 -12 -6)
1969/12/31/18:00:38.774,(10 -14 -23 -6 4 -6 -14 6)
1969/12/31/18:00:38.780,(26 -8 17 25 34 25 3 11)
1969/12/31/18:00:38.780,(-28 -61 -31 -31 -65 -54 -32 -41)
1969/12/31/18:00:38.796,(-20 -74 -69 -39 -21 -19 -1 9)
1969/12/31/18:00:38.796,(0 89 59 -1 -46 -24 12 13)
1969/12/31/18:00:38.798,(5 -8 -34 1 40 28 -3 -19)
1969/12/31/18:00:38.798,(14 3 13 -2 -29 -31 -29 11)
1969/12/31/18:00:38.810,(6 18 25 21 30 12 -13 -22)
1969/12/31/18:00:38.810,(-35 -2 16 8 7 -6 6 -26)
1969/12/31/18:00:38.819,(-43 -65 -59 -42 -50 -15 8 -3)
1969/12/31/18:00:38.819,(40 31 17 4 -10 9 5 20)
1969/12/31/18:00:38.834,(2 -31 -36 -11 3 5 7 -9)
1969/12/31/18:00:38.834,(-8 50 65 33 48 28 -29 -15)
1969/12/31/18:00:38.848,(42 -1 -15 13 -4 -5 7 34)
1969/12/31/18:00:38.848,(0 15 -7 -12 -28 -30 -31 -51)
1969/12/31/18:00:38.856,(-21 -55 -16 -20 -13 4 21 22)
1969/12/31/18:00:38.856,(35 39 2 -8 7 16 4 -2)
1969/12/31/18:00:38.858,(-7 -18 4 13 14 -13 9 19)
1969/12/31/18:00:38.858,(10 76 47 42 89 64 2 0)
1969/12/31/18:00:38.879,(-36 -39 -20 -26 -68 -39 -12 -10)
1969/12/31/18:00:38.879,(-22 -72 -35 -24 -14 -22 -14 -46)
1969/12/31/18:00:38.880,(11 7 -12 -18 -14 -5 13 20)
1969/12/31/18:00:38.880,(49 85 52 34 35 26 24 33)
1969/12/31/18:00:38.893,(5 -38 -42 24 90 73 18 13)
1969/12/31/18:00:38.893,(23 19 11 -44 -111 -70 -16 24)
1969/12/31/18:00:38.900,(9 49 59 31 47 9 -23 -22)
1969/12/31/18:00:38.900,(-15 -35 -5 6 9 -11 5 -10)
1969/12/31/18:00:38.916,(-11 -37 -37 -35 -5 34 -6 -5)
1969/12/31/18:00:38.916,(23 12 -23 -5 -29 -47 -5 11)
1969/12/31/18:00:38.918,(-8 -21 -21 -21 -17 -5 -11 -13)
1969/12/31/18:00:38.918,(41 21 5 4 25 14 4 19)
1969/12/31/18:00:38.939,(42 16 31 18 24 3 12 34)
1969/12/31/18:00:38.939,(-18 -16 -1 16 31 29 2 9)
1969/12/31/18:00:38.940,(-13 -6 -15 2 -10 6 17 17)
1969/12/31/18:00:38.940,(-5 43 40 13 13 3 -8 -47)
1969/12/31/18:00:38.953,(54 5 -5 -9 -38 -22 -12 26)
1969/12/31/18:00:38.953,(-40 17 32 17 20 5 0 -15)
1969/12/31/18:00:38.960,(-14 -46 -31 -24 -23 -23 -14 -9)
1969/12/31/18:00:38.960,(-25 -43 -57 7 71 44 24 0)
1969/12/31/18:00:38.984,(16 90 71 -17 -100 -64 -21 -8)
1969/12/31/18:00:38.984,(38 -27 -11 10 28 18 3 32)
1969/12/31/18:00:38.986,(-27 -2 -20 -18 -4 -18 -33 -54)
1969/12/31/18:00:38.986,(45 -50 -43 -16 11 18 38 94)
1969/12/31/18:00:38.999,(-1 32 16 9 0 -17 -28 -32)
1969/12/31/18:00:38.999,(-51 -20 -9 -17 -14 9 -2 -30)
1969/12/31/18:00:39.000,(6 36 25 10 3 -5 8 18)
1969/12/31/18:00:39.000,(-2 -109 -57 -15 -32 -15 -9 16)
1969/12/31/18:00:39.013,(2 8 -38 -16 14 2 3 11)
1969/12/31/18:00:39.013,(-49 -4 23 19 -3 -6 -16 -37)
1969/12/31/18:00:39.020,(65 98 89 43 26 21 17 42)
1969/12/31/18:00:39.020,(-49 -52 -26 -25 -12 -10 -19 -44)
1969/12/31/18:00:39.036,(-47 -71 -36 -5 -20 6 -4 -9)
1969/12/31/18:00:39.036,(45 58 -1 -5 20 -9 -5 -9)
1969/12/31/18:00:39.038,(-31 -46 -40 -8 10 1 2 -18)
1969/12/31/18:00:39.038,(-69 -10 7 -30 -81 -59 -28 -20)
1969/12/31/18:00:39.059,(-15 -12 11 8 -2 7 -8 -29)
1969/12/31/18:00:39.059,(11 -4 -16 -23 -18 4 31 37)
1969/12/31/18:00:39.060,(36 6 0 -12 14 13 13 23)
1969/12/31/18:00:39.060,(-2 13 7 36 36 15 2 -8)
1969/12/31/18:00:39.074,(4 15 13 22 45 5 1 12)
1969/12/31/18:00:39.074,(9 10 5 5 -8 -14 -12 -17)
1969/12/31/18:00:39.080,(0 -11 -26 -14 -21 1 15 23)
1969/12/31/18:00:39.080,(5 -17 -6 -18 -20 -5 -5 -2)
1969/12/31/18:00:39.097,(5 63 44 14 3 -1 16 6)
1969/12/31/18:00:39.097,(-11 -39 -6 1 13 10 -12 -15)
1969/12/31/18:00:39.102,(7 17 0 6 9 3 7 -12)
1969/12/31/18:00:39.102,(-82 -26 -15 -23 -35 -20 -33 -72)
1969/12/31/18:00:39.119,(3 1 0 4 20 15 30 6)
1969/12/31/18:00:39.119,(53 22 8 8 8 16 24 74)
1969/12/31/18:00:39.121,(6 -11 -18 -50 -49 -55 -49 -46)
1969/12/31/18:00:39.121,(8 10 8 20 15 21 21 4)
1969/12/31/18:00:39.132,(10 -1 -8 -5 4 2 12 -6)
1969/12/31/18:00:39.132,(44 19 7 20 31 3 -30 -6)
1969/12/31/18:00:39.141,(-48 -15 16 54 29 -5 -18 -9)
1969/12/31/18:00:39.141,(4 3 -12 -38 -40 -4 9 9)
1969/12/31/18:00:39.156,(-29 -47 -21 19 23 -6 -10 -13)
1969/12/31/18:00:39.156,(13 18 16 -8 -14 5 -10 -3)
1969/12/31/18:00:39.158,(22 20 9 12 34 64 37 25)
1969/12/31/18:00:39.158,(11 19 3 -23 -72 -68 -25 -17)
1969/12/31/18:00:39.179,(-43 -7 -8 -20 -6 7 -9 -14)
1969/12/31/18:00:39.179,(-17 -43 -25 -16 -17 -22 -7 -23)
1969/12/31/18:00:39.181,(9 0 2 -3 12 26 12 100)
1969/12/31/18:00:39.181,(-18 -5 3 10 19 14 -1 -43)
1969/12/31/18:00:39.192,(23 15 18 7 5 32 58 102)
1969/12/31/18:00:39.192,(72 61 14 22 19 1 28 49)
1969/12/31/18:00:39.201,(-120 -30 -17 -16 -21 -19 -46 -106)
1969/12/31/18:00:39.201,(51 -3 -9 -5 3 17 19 46)
1969/12/31/18:00:39.216,(4 1 -15 -101 -70 -32 -54 9)
1969/12/31/18:00:39.216,(-8 7 23 74 61 48 24 30)
1969/12/31/18:00:39.218,(-13 -20 -5 3 -4 38 55 10)
1969/12/31/18:00:39.218,(-4 22 10 48 42 -25 -52 -6)
1969/12/31/18:00:39.239,(-19 -28 -8 -12 -30 -19 -1 -45)
1969/12/31/18:00:39.239,(-49 -37 -28 -45 3 -7 -32 -48)
1969/12/31/18:00:39.241,(47 16 10 10 -9 -6 30 26)
1969/12/31/18:00:39.241,(48 25 14 5 -2 21 14 21)
1969/12/31/18:00:39.252,(43 61 15 17 18 21 41 59)
1969/12/31/18:00:39.252,(-92 -40 -18 -38 -38 -12 -30 -77)
1969/12/31/18:00:39.261,(46 -15 -4 0 -1 -18 -3 39)
1969/12/31/18:00:39.261,(3 -12 -2 -14 -2 2 -11 -20)
1969/12/31/18:00:39.276,(21 44 19 28 20 -6 -8 -18)
1969/12/31/18:00:39.276,(87 23 -8 -5 -11 -2 12 63)
1969/12/31/18:00:39.278,(-86 -39 -3 -1 2 32 -16 -63)
1969/12/31/18:00:39.278,(55 27 5 1 -4 -25 10 40)
1969/12/31/18:00:39.298,(-11 -28 -1 12 13 -4 -20 -7)
1969/12/31/18:00:39.298,(20 26 -5 3 -1 0 13 -1)
1969/12/31/18:00:39.307,(68 18 -10 -16 -8 -13 -16 0)
1969/12/31/18:00:39.307,(19 13 18 -2 -2 18 10 19)
1969/12/31/18:00:39.321,(-41 1 13 39 41 18 4 -7)
1969/12/31/18:00:39.321,(-70 -41 -13 -14 -22 -18 -16 -58)
1969/12/31/18:00:39.321,(61 31 3 3 -1 -17 10 42)
1969/12/31/18:00:39.321,(-32 -21 -21 -18 -13 -6 -14 -58)
1969/12/31/18:00:39.336,(60 31 14 13 15 4 13 40)
1969/12/31/18:00:39.336,(-29 -12 -11 -20 -16 -8 -13 -28)
1969/12/31/18:00:39.336,(-27 -13 3 6 1 -6 -10 -12)
1969/12/31/18:00:39.336,(-48 -37 -18 -16 5 6 2 5)
1969/12/31/18:00:39.358,(20 19 -5 5 5 3 -1 -5)
1969/12/31/18:00:39.358,(5 -11 31 10 -3 -6 1 10)
1969/12/31/18:00:39.359,(-26 -10 -14 -2 -7 -11 -1 -16)
1969/12/31/18:00:39.359,(6 21 19 16 16 16 14 26)
1969/12/31/18:00:39.381,(26 -11 -14 -12 -8 -11 -10 -16)
1969/12/31/18:00:39.381,(-57 -25 -28 -14 -7 -3 -3 -17)
1969/12/31/18:00:39.389,(22 9 15 3 -4 -11 -11 -4)
1969/12/31/18:00:39.389,(-22 9 23 14 1 9 1 -3)
1969/12/31/18:00:39.411,(-25 -24 -21 -10 -11 -5 -11 -22)
1969/12/31/18:00:39.411,(16 -6 -15 -5 -2 0 2 8)
1969/12/31/18:00:39.412,(-4 1 -4 -10 -4 -3 0 0)
1969/12/31/18:00:39.412,(-4 19 33 14 7 1 2 8)
1969/12/31/18:00:39.418,(8 -10 -18 -9 -7 -12 -9 -12)
1969/12/31/18:00:39.418,(-11 -2 4 1 1 5 5 7)
1969/12/31/18:00:39.419,(-12 5 0 -1 5 -4 -1 -6)
1969/12/31/18:00:39.419,(5 19 15 9 0 1 1 5)
1969/12/31/18:00:39.441,(-22 -39 -22 -11 -9 -8 -11 -19)
1969/12/31/18:00:39.441,(-9 -13 2 -7 -4 3 1 -2)
1969/12/31/18:00:39.441,(19 23 -17 -8 -2 -5 1 3)
1969/12/31/18:00:39.441,(-10 -5 15 3 3 0 0 -2)
1969/12/31/18:00:39.456,(1 -13 -38 -16 -6 1 3 -4)
1969/12/31/18:00:39.456,(-10 53 86 47 19 8 4 4)
1969/12/31/18:00:39.456,(-8 -18 -2 4 -6 -9 -19 -12)
1969/12/31/18:00:39.456,(-4 -13 -2 0 -5 -2 4 0)
1969/12/31/18:00:39.478,(0 -9 -7 -2 -5 -6 -14 -7)
1969/12/31/18:00:39.478,(-7 -25 -37 -19 -6 -1 2 1)
1969/12/31/18:00:39.479,(-12 6 19 -3 2 5 16 5)
1969/12/31/18:00:39.479,(16 0 -33 -15 -8 -8 -6 9)
1969/12/31/18:00:39.501,(-33 -16 29 7 -1 -6 -8 -26)
1969/12/31/18:00:39.501,(16 46 28 22 8 6 2 4)
1969/12/31/18:00:39.502,(-14 -20 -21 -9 -5 6 7 -3)
1969/12/31/18:00:39.502,(4 -23 -23 -12 -5 -5 -11 3)
1969/12/31/18:00:39.516,(-2 14 0 -10 -9 -5 -10 -14)
1969/12/31/18:00:39.516,(-6 -21 0 -2 0 1 -3 -1)
1969/12/31/18:00:39.523,(-4 -3 -13 -1 4 4 2 0)
1969/12/31/18:00:39.523,(3 -23 -13 -8 -3 4 13 -7)
1969/12/31/18:00:39.538,(-4 29 19 8 5 6 25 2)
1969/12/31/18:00:39.538,(-9 -61 -32 -18 -8 3 0 -9)
1969/12/31/18:00:39.539,(-13 41 20 8 2 1 -16 -8)
1969/12/31/18:00:39.539,(6 -10 -20 2 -3 -1 -18 0)
1969/12/31/18:00:39.561,(-5 -7 5 1 -4 1 -9 5)
1969/12/31/18:00:39.561,(12 15 -6 -1 -5 -10 -4 6)
1969/12/31/18:00:39.568,(4 -32 -16 -4 -5 -21 -5 7)
1969/12/31/18:00:39.568,(1 -19 -19 0 5 -13 -13 7)
1969/12/31/18:00:39.575,(-10 21 18 8 1 -16 -6 -2)
1969/12/31/18:00:39.576,(9 -41 -47 -28 -5 -7 4 9)
1969/12/31/18:00:39.576,(-11 60 53 26 9 -2 2 -9)
1969/12/31/18:00:39.576,(-4 -5 -7 -10 -2 5 13 1)
1969/12/31/18:00:39.598,(-1 8 20 17 13 12 -1 -1)
1969/12/31/18:00:39.598,(-10 -38 -28 -18 -1 7 1 -4)
1969/12/31/18:00:39.599,(-17 -20 -18 -19 -14 -3 6 -8)
1969/12/31/18:00:39.599,(8 53 32 20 6 9 -8 -20)
1969/12/31/18:00:39.621,(5 -3 5 1 -1 8 5 2)
1969/12/31/18:00:39.621,(-2 48 42 18 2 1 0 -4)
1969/12/31/18:00:39.622,(18 -27 -43 -14 -6 -3 11 13)
1969/12/31/18:00:39.622,(-10 -32 -34 -18 -10 -14 5 7)
1969/12/31/18:00:39.636,(2 39 26 13 -2 -17 -9 -4)
1969/12/31/18:00:39.636,(0 -13 0 4 2 -8 0 0)
1969/12/31/18:00:39.636,(3 5 -5 -1 2 -5 -2 2)
1969/12/31/18:00:39.636,(3 16 19 13 8 9 9 6)
1969/12/31/18:00:39.659,(-7 -16 -11 -12 -1 0 -7 -3)
1969/12/31/18:00:39.659,(-16 -21 -16 -12 -5 0 -2 -7)
1969/12/31/18:00:39.666,(8 47 34 5 2 3 -6 -7)
1969/12/31/18:00:39.666,(-6 -4 3 8 1 3 -7 -6)
1969/12/31/18:00:39.689,(3 -20 -8 -1 0 7 2 4)
1969/12/31/18:00:39.689,(-4 16 -13 -9 -5 1 2 -2)
1969/12/31/18:00:39.690,(-10 -40 -11 -9 -1 1 -11 -9)
1969/12/31/18:00:39.690,(11 20 3 5 1 0 1 1)
1969/12/31/18:00:39.696,(0 4 9 11 2 6 5 4)
1969/12/31/18:00:39.696,(5 7 3 2 -1 6 -3 0)
1969/12/31/18:00:39.697,(-16 -11 3 -11 -3 10 -12 -9)
1969/12/31/18:00:39.697,(-7 5 10 -12 0 15 -8 -15)
1969/12/31/18:00:39.718,(-8 -1 4 0 4 23 -6 -11)
1969/12/31/18:00:39.718,(-4 5 11 -1 -3 15 -17 -22)
1969/12/31/18:00:39.719,(-2 -18 -8 -1 -7 8 1 -2)
1969/12/31/18:00:39.719,(9 3 -9 -7 -11 -16 2 7)
1969/12/31/18:00:39.741,(10 -27 -18 3 -7 -35 5 13)
1969/12/31/18:00:39.741,(34 2 -10 15 -6 -39 15 38)
1969/12/31/18:00:39.741,(19 -20 -22 10 -5 -51 16 34)
1969/12/31/18:00:39.741,(7 0 -17 2 6 -24 9 23)
1969/12/31/18:00:39.756,(-21 17 7 -6 13 15 -12 -19)
1969/12/31/18:00:39.756,(-10 5 8 -2 6 -1 -3 -11)
1969/12/31/18:00:39.756,(-6 1 9 0 1 -2 2 -4)
1969/12/31/18:00:39.756,(-1 -10 -1 2 -3 -15 6 5)
1969/12/31/18:00:39.778,(8 0 -15 -1 0 -14 4 7)
1969/12/31/18:00:39.778,(-1 11 6 5 4 -6 -2 -1)
1969/12/31/18:00:39.779,(0 -6 -5 -1 0 -3 -1 2)
1969/12/31/18:00:39.779,(0 -5 -4 -1 -2 -12 1 -3)
1969/12/31/18:00:39.801,(5 -1 3 0 -4 -9 10 14)
1969/12/31/18:00:39.801,(-1 4 -8 -7 -4 -2 -6 0)
1969/12/31/18:00:39.809,(-5 6 14 6 6 10 -2 -8)
1969/12/31/18:00:39.809,(-14 -10 -8 -15 -2 21 -3 -15)
1969/12/31/18:00:39.825,(-13 -18 -3 -6 -4 13 -8 -11)
1969/12/31/18:00:39.825,(9 22 19 13 7 18 1 -3)
1969/12/31/18:00:39.826,(-2 17 4 -9 -3 15 -4 -4)
1969/12/31/18:00:39.826,(-5 -8 6 9 0 13 -1 -2)
1969/12/31/18:00:39.838,(11 -1 -4 1 -3 1 0 -1)
1969/12/31/18:00:39.838,(-3 -7 -10 0 -4 -6 -1 -1)
1969/12/31/18:00:39.839,(-4 -12 -8 -8 -2 2 -4 -2)
1969/12/31/18:00:39.839,(1 6 0 -7 0 2 2 3)
1969/12/31/18:00:39.861,(-1 -2 -5 -8 -5 -4 -2 0)
1969/12/31/18:00:39.861,(1 -6 -3 2 1 3 5 3)
1969/12/31/18:00:39.861,(-4 -5 -1 1 -2 -1 -4 -8)
1969/12/31/18:00:39.861,(-7 0 2 -4 4 7 -3 -9)
1969/12/31/18:00:39.875,(-24 9 16 -7 10 28 -6 -28)
1969/12/31/18:00:39.875,(-3 9 16 -1 -1 24 -1 -9)
1969/12/31/18:00:39.876,(4 -1 1 6 -4 11 2 -2)
1969/12/31/18:00:39.876,(10 -6 -10 2 -7 0 0 5)
1969/12/31/18:00:39.898,(8 -5 -10 3 -8 -10 1 9)
1969/12/31/18:00:39.898,(-3 -12 -11 -4 -4 -14 -3 -1)
1969/12/31/18:00:39.906,(-3 5 5 4 3 -5 -4 -4)
1969/12/31/18:00:39.906,(-4 -5 0 -3 -1 1 -6 -5)
1969/12/31/18:00:39.921,(-8 -3 -4 -9 0 8 -7 -8)
1969/12/31/18:00:39.921,(-6 5 4 0 1 17 -5 -10)
1969/12/31/18:00:39.929,(-2 -4 2 0 0 9 -3 -6)
1969/12/31/18:00:39.929,(-3 13 12 -4 -3 8 -7 -7)
1969/12/31/18:00:39.945,(2 -3 2 0 -4 1 -2 1)
1969/12/31/18:00:39.945,(6 -7 -6 0 -7 -11 1 8)
1969/12/31/18:00:39.946,(8 -17 -14 1 -7 -20 5 13)
1969/12/31/18:00:39.946,(12 16 -3 6 -5 -27 8 19)
1969/12/31/18:00:39.958,(8 -7 -17 4 -3 -33 8 19)
1969/12/31/18:00:39.958,(-1 -8 -14 0 3 -26 4 13)
1969/12/31/18:00:39.966,(-5 -9 0 -3 4 -14 -4 -2)
1969/12/31/18:00:39.966,(-4 24 10 -1 4 -8 3 0)
1969/12/31/18:00:39.981,(-1 -11 -1 3 2 -10 3 2)
1969/12/31/18:00:39.981,(-12 -13 -6 -7 0 -3 -3 -7)
1969/12/31/18:00:39.982,(-5 17 14 2 3 3 0 -3)
1969/12/31/18:00:39.982,(-5 -6 -2 -3 2 3 -1 -7)
1969/12/31/18:00:39.996,(-3 -3 -4 -4 -2 2 0 -4)
1969/12/31/18:00:39.996,(-5 3 1 -4 1 4 -4 -5)
1969/12/31/18:00:39.997,(-4 -4 2 0 0 8 -1 -5)
1969/12/31/18:00:39.997,(-2 -10 -5 -2 -3 7 -3 -4)
1969/12/31/18:00:40.018,(1 6 2 -1 -5 2 -5 -2)
1969/12/31/18:00:40.018,(1 0 1 -3 -4 0 1 2)
1969/12/31/18:00:40.026,(4 5 -1 3 1 -2 -6 0)
1969/12/31/18:00:40.026,(4 -4 -4 2 0 -2 -2 1)
1969/12/31/18:00:40.041,(-2 -9 -8 -4 -3 -4 0 2)
1969/12/31/18:00:40.041,(2 5 1 3 0 -1 2 -1)
1969/12/31/18:00:40.042,(-2 -4 -9 -4 -1 -1 -1 -2)
1969/12/31/18:00:40.042,(-4 -6 -5 -3 0 -1 -2 -1)
1969/12/31/18:00:40.057,(1 6 4 -1 -1 -1 -1 -1)
1969/12/31/18:00:40.057,(0 -5 -8 -5 2 3 -3 -3)
1969/12/31/18:00:40.058,(-5 -2 0 -2 0 4 -4 -6)
1969/12/31/18:00:40.058,(-4 -1 2 -5 -1 4 -4 -6)
1969/12/31/18:00:40.079,(-4 -12 -4 -3 -2 0 -2 -3)
1969/12/31/18:00:40.079,(-1 5 3 2 -2 1 -2 -2)
1969/12/31/18:00:40.086,(-1 -1 -2 -1 -1 1 1 -2)
1969/12/31/18:00:40.086,(-5 -6 4 3 -1 1 -1 0)
1969/12/31/18:00:40.101,(5 13 2 2 1 3 1 0)
1969/12/31/18:00:40.101,(-2 -2 0 -2 -1 -2 -4 -2)
1969/12/31/18:00:40.102,(-1 0 1 0 -1 2 1 0)
1969/12/31/18:00:40.102,(0 -2 2 -1 -1 1 1 -1)
1969/12/31/18:00:40.116,(-2 -1 -3 -3 -2 -3 -1 -1)
1969/12/31/18:00:40.116,(0 -3 -3 0 -1 -5 -2 -2)
1969/12/31/18:00:40.131,(-1 -1 1 -1 1 -3 -2 -3)
1969/12/31/18:00:40.131,(-1 -2 -8 -3 0 -1 -1 1)
1969/12/31/18:00:40.140,(-4 -13 -8 -4 -4 -1 1 3)
1969/12/31/18:00:40.140,(0 -3 -1 1 1 -1 0 2)
1969/12/31/18:00:40.141,(-1 2 1 -3 -3 -1 1 1)
1969/12/31/18:00:40.141,(0 -1 -1 -1 -3 -1 0 -2)
1969/12/31/18:00:40.161,(0 -1 -1 -2 0 0 0 -2)
1969/12/31/18:00:40.161,(-2 -5 -3 -3 -2 0 0 0)
1969/12/31/18:00:40.162,(-1 2 5 6 3 0 1 -1)
1969/12/31/18:00:40.162,(-1 -4 -4 -3 -2 0 0 -1)
1969/12/31/18:00:40.176,(-1 -1 -1 2 0 -2 2 2)
1969/12/31/18:00:40.176,(-1 -1 -1 -1 -1 -1 -3 -1)
1969/12/31/18:00:40.183,(1 -3 -3 -4 0 -2 0 0)
1969/12/31/18:00:40.183,(1 0 -1 -1 0 -3 -2 0)
1969/12/31/18:00:40.198,(-4 -9 -7 -5 0 -3 -2 -2)
1969/12/31/18:00:40.198,(2 15 5 1 2 -2 -1 -2)
1969/12/31/18:00:40.199,(-1 2 2 1 -1 0 1 0)
1969/12/31/18:00:40.199,(-3 -8 0 2 0 0 1 0)
1969/12/31/18:00:40.222,(2 1 -3 -2 -3 0 -1 -1)
1969/12/31/18:00:40.222,(-2 -1 -2 0 -3 -2 -1 -1)
1969/12/31/18:00:40.223,(-1 0 -2 0 -2 0 -3 -1)
1969/12/31/18:00:40.223,(-2 -1 2 0 -1 0 -2 -2)
1969/12/31/18:00:40.244,(-1 3 2 0 0 -1 -1 -1)
1969/12/31/18:00:40.244,(-3 -8 0 -2 -1 0 -1 -1)
1969/12/31/18:00:40.251,(4 19 6 4 2 2 -2 -3)
1969/12/31/18:00:40.251,(-1 -2 -2 0 0 1 -3 -2)
1969/12/31/18:00:40.258,(-1 0 -1 -1 -1 -1 -2 -3)
1969/12/31/18:00:40.258,(0 3 1 0 -1 0 -1 -1)
1969/12/31/18:00:40.259,(-5 -8 -3 -5 -2 -2 -1 0)
1969/12/31/18:00:40.259,(-1 1 -1 -1 -1 0 -1 -1)
1969/12/31/18:00:40.282,(0 3 2 1 0 1 0 0)
1969/12/31/18:00:40.282,(0 -2 0 -1 -2 -1 0 0)
1969/12/31/18:00:40.283,(-2 -6 -2 -2 -2 0 -1 -1)
1969/12/31/18:00:40.283,(2 2 -2 -1 1 -4 0 -1)
1969/12/31/18:00:40.296,(-2 -4 -1 -1 0 -2 -1 1)
1969/12/31/18:00:40.296,(1 2 0 -1 0 -3 -3 -3)
1969/12/31/18:00:40.296,(0 -5 -4 -1 -2 0 -1 -1)
1969/12/31/18:00:40.296,(-1 -1 -1 1 -2 0 -1 1)
1969/12/31/18:00:40.319,(-1 2 1 -1 1 0 0 0)
1969/12/31/18:00:40.319,(-1 -1 -3 -1 -2 0 0 0)
1969/12/31/18:00:40.326,(1 1 -1 0 -1 -3 -2 0)
1969/12/31/18:00:40.326,(-1 -1 -3 0 -2 -4 -2 -1)
1969/12/31/18:00:40.358,(-2 1 -1 -2 -2 -4 -2 -2)
1969/12/31/18:00:40.358,(-1 0 3 1 -1 1 0 -1)
1969/12/31/18:00:40.358,(-2 -4 -6 -3 -2 -4 -3 0)
1969/12/31/18:00:40.359,(2 7 15 4 1 1 0 1)
1969/12/31/18:00:40.360,(0 -3 -3 -3 -1 1 -1 -1)
1969/12/31/18:00:40.360,(-2 0 -2 -1 1 0 -1 -1)
1969/12/31/18:00:40.364,(-1 -8 -3 -2 -1 1 1 0)
1969/12/31/18:00:40.364,(0 0 -5 -6 0 -1 -1 -2)
1969/12/31/18:00:40.378,(-1 1 1 0 -1 -3 -2 0)
1969/12/31/18:00:40.378,(-1 -3 0 0 0 0 -1 0)
1969/12/31/18:00:40.379,(-2 0 -2 -2 -2 0 0 0)
1969/12/31/18:00:40.379,(-2 -4 -3 0 -4 0 -2 -2)
