time,.data
1969/12/31/18:00:15.254,(0 -2 -4 -4 -1 1 -2 -1)
1969/12/31/18:00:15.254,(-2 -3 -2 -1 -2 -1 0 -2)
1969/12/31/18:00:15.268,(-2 -1 0 -1 -1 -2 -2 -3)
1969/12/31/18:00:15.268,(-2 -2 -6 -4 -1 -1 -3 -2)
1969/12/31/18:00:15.279,(-1 -1 -2 1 1 -1 1 1)
1969/12/31/18:00:15.279,(1 -2 0 -2 1 1 0 -2)
1969/12/31/18:00:15.279,(0 1 3 6 0 -1 0 -1)
1969/12/31/18:00:15.279,(-2 -2 -7 -6 -5 -1 0 -3)
1969/12/31/18:00:15.291,(-3 -3 -1 -4 -2 -3 -2 -3)
1969/12/31/18:00:15.291,(-1 -3 -4 -2 -3 -3 -1 0)
1969/12/31/18:00:15.291,(0 0 1 -1 -1 0 -1 1)
1969/12/31/18:00:15.291,(-3 1 1 0 -1 -1 2 -2)
1969/12/31/18:00:15.313,(0 -2 -1 0 0 2 0 -1)
1969/12/31/18:00:15.313,(-3 -1 0 0 1 0 -1 0)
1969/12/31/18:00:15.314,(1 1 2 -1 0 -1 -2 -2)
1969/12/31/18:00:15.314,(-1 -1 3 3 0 -1 -1 1)
1969/12/31/18:00:15.337,(-1 -1 -2 -2 -3 -1 -2 -1)
1969/12/31/18:00:15.337,(-1 -1 -1 1 0 -1 1 1)
1969/12/31/18:00:15.338,(-3 -4 -4 -3 -2 -1 1 -1)
1969/12/31/18:00:15.338,(2 -1 -1 0 2 -2 -1 -2)
1969/12/31/18:00:15.351,(-2 0 -1 -2 -2 -2 -1 -1)
1969/12/31/18:00:15.351,(-1 -2 -3 -2 -1 -1 -1 1)
1969/12/31/18:00:15.351,(-1 -2 -1 -2 -2 -1 0 -2)
1969/12/31/18:00:15.352,(1 4 -2 0 0 -1 -1 -1)
1969/12/31/18:00:15.382,(2 0 1 1 2 1 0 -1)
1969/12/31/18:00:15.382,(-1 -2 0 -1 -2 -2 0 0)
1969/12/31/18:00:15.383,(1 1 -1 -1 1 0 -1 0)
1969/12/31/18:00:15.383,(-3 -3 0 -4 -3 -1 -1 -2)
1969/12/31/18:00:15.395,(-1 1 1 1 -1 0 -2 -1)
1969/12/31/18:00:15.395,(-2 -1 1 -1 -1 0 -1 -1)
1969/12/31/18:00:15.403,(-1 0 0 2 1 0 -3 0)
1969/12/31/18:00:15.403,(-2 -1 -1 -1 0 0 -1 -1)
1969/12/31/18:00:15.411,(0 -1 -3 -1 -1 -2 -3 -2)
1969/12/31/18:00:15.411,(-2 -1 0 -3 -3 0 -1 -2)
1969/12/31/18:00:15.411,(-3 -2 -3 0 -1 1 0 -1)
1969/12/31/18:00:15.411,(1 0 -1 1 1 1 1 0)
1969/12/31/18:00:15.441,(-2 -1 1 1 -1 -2 -2 0)
1969/12/31/18:00:15.441,(-2 -5 -6 -5 -4 -1 0 -2)
1969/12/31/18:00:15.442,(0 0 1 2 0 0 -1 0)
1969/12/31/18:00:15.442,(0 4 10 11 2 0 0 1)
1969/12/31/18:00:15.457,(1 -1 3 5 1 0 0 -1)
1969/12/31/18:00:15.457,(1 -2 -1 3 1 1 -1 0)
1969/12/31/18:00:15.458,(-1 -1 -3 0 0 -1 -1 0)
1969/12/31/18:00:15.458,(-4 -7 -5 -8 -4 -1 -1 -2)
1969/12/31/18:00:15.471,(1 2 -2 -7 -3 -1 0 0)
1969/12/31/18:00:15.471,(-2 -5 -5 -7 -3 -1 -4 -2)
1969/12/31/18:00:15.479,(1 1 1 -6 -2 -3 1 2)
1969/12/31/18:00:15.479,(0 1 1 11 4 0 -1 3)
1969/12/31/18:00:15.493,(-2 -2 -2 -4 0 -2 -1 -2)
1969/12/31/18:00:15.493,(-3 -6 -10 -11 -5 -2 -3 -2)
1969/12/31/18:00:15.494,(-3 -2 -7 -8 -5 -2 0 -3)
1969/12/31/18:00:15.494,(3 2 6 6 4 2 0 1)
1969/12/31/18:00:15.516,(0 1 -4 -2 -1 0 0 3)
1969/12/31/18:00:15.516,(0 5 20 21 8 1 -2 -4)
1969/12/31/18:00:15.523,(4 -4 0 2 2 2 4 10)
1969/12/31/18:00:15.523,(-24 -8 -8 -3 0 -1 -2 -9)
1969/12/31/18:00:15.532,(-4 -9 -17 -14 -6 -6 -15 -40)
1969/12/31/18:00:15.532,(22 25 20 12 5 3 10 39)
1969/12/31/18:00:15.533,(-20 -22 -15 -5 -1 -5 -9 -16)
1969/12/31/18:00:15.533,(24 18 22 8 6 7 14 33)
1969/12/31/18:00:15.553,(-14 -23 -30 -24 -13 -12 -3 15)
1969/12/31/18:00:15.553,(-20 3 16 5 -1 1 -12 -61)
1969/12/31/18:00:15.554,(-2 6 -20 12 6 0 -4 -14)
1969/12/31/18:00:15.554,(2 12 32 -10 -3 3 3 -7)
1969/12/31/18:00:15.575,(22 19 9 48 18 9 14 29)
1969/12/31/18:00:15.575,(9 -13 -32 -63 -25 -15 -9 11)
1969/12/31/18:00:15.583,(11 6 19 29 5 16 17 13)
1969/12/31/18:00:15.583,(-40 -18 -7 15 0 -5 -14 -25)
1969/12/31/18:00:15.590,(4 13 18 0 -1 -3 -8 -7)
1969/12/31/18:00:15.590,(17 -16 -36 -6 4 1 9 24)
1969/12/31/18:00:15.598,(-18 4 32 5 0 -9 -11 -28)
1969/12/31/18:00:15.598,(0 -15 -35 -11 -5 12 -2 -13)
1969/12/31/18:00:15.614,(2 4 6 -3 -5 0 19 11)
1969/12/31/18:00:15.614,(-9 7 24 39 27 12 -20 -12)
1969/12/31/18:00:15.621,(8 -1 10 -10 -6 -6 -2 13)
1969/12/31/18:00:15.621,(-10 -30 -90 -89 -21 -11 -12 -28)
1969/12/31/18:00:15.636,(-8 -10 3 -14 -17 -9 -6 4)
1969/12/31/18:00:15.636,(2 22 17 35 10 1 9 2)
1969/12/31/18:00:15.637,(15 14 76 87 23 5 7 17)
1969/12/31/18:00:15.637,(16 14 27 62 19 -4 9 16)
1969/12/31/18:00:15.651,(-11 -26 -34 -54 -18 -20 -12 -15)
1969/12/31/18:00:15.651,(4 -5 -57 -28 -12 -16 11 12)
1969/12/31/18:00:15.659,(-15 -26 -62 -71 -22 -23 13 3)
1969/12/31/18:00:15.659,(14 -34 45 22 -2 -23 2 14)
1969/12/31/18:00:15.673,(-2 32 -16 10 17 -5 7 0)
1969/12/31/18:00:15.673,(-9 5 -3 -15 12 10 12 -1)
1969/12/31/18:00:15.674,(-20 -8 -7 -35 -8 1 -17 -25)
1969/12/31/18:00:15.674,(-19 -23 -36 -23 -13 7 -11 -11)
1969/12/31/18:00:15.696,(-10 18 35 -1 1 43 -11 -17)
1969/12/31/18:00:15.696,(-7 -11 -12 2 -11 37 -8 -8)
1969/12/31/18:00:15.697,(9 44 81 54 1 45 -3 3)
1969/12/31/18:00:15.697,(-3 -22 -80 -39 -24 17 -4 1)
1969/12/31/18:00:15.711,(0 -30 -51 -22 -12 1 -8 -2)
1969/12/31/18:00:15.711,(14 87 71 85 29 13 6 4)
1969/12/31/18:00:15.711,(4 -61 -95 -34 -14 -9 -3 3)
1969/12/31/18:00:15.711,(21 48 89 56 12 -12 -1 7)
1969/12/31/18:00:15.733,(1 -17 -35 -16 -7 -22 5 8)
1969/12/31/18:00:15.733,(-4 -48 -34 -50 -19 -32 3 5)
1969/12/31/18:00:15.734,(7 -22 -18 -23 -3 -32 2 8)
1969/12/31/18:00:15.734,(8 27 25 36 16 -14 10 11)
1969/12/31/18:00:15.757,(-1 -8 -12 -13 6 -5 6 7)
1969/12/31/18:00:15.757,(-9 -13 22 -1 -2 -14 -4 -7)
1969/12/31/18:00:15.758,(-6 21 14 3 9 2 -4 -9)
1969/12/31/18:00:15.758,(-5 0 -30 -32 -5 4 0 2)
1969/12/31/18:00:15.771,(0 12 40 29 8 12 -1 -16)
1969/12/31/18:00:15.771,(13 6 11 3 -7 -1 -7 9)
1969/12/31/18:00:15.771,(-35 -17 -34 -12 -1 12 7 -5)
1969/12/31/18:00:15.771,(28 5 -3 -15 -6 -5 -10 7)
1969/12/31/18:00:15.794,(11 15 28 25 7 4 -2 5)
1969/12/31/18:00:15.794,(-16 -24 -17 -14 -7 -1 3 -13)
1969/12/31/18:00:15.801,(-27 -18 -24 -19 -3 -14 -12 4)
1969/12/31/18:00:15.801,(0 17 19 7 6 30 5 -22)
1969/12/31/18:00:15.816,(1 9 21 19 7 0 -3 -4)
1969/12/31/18:00:15.816,(38 11 -14 -16 -4 21 17 24)
1969/12/31/18:00:15.823,(-18 16 15 3 -7 -26 -46 -14)
1969/12/31/18:00:15.823,(7 -6 -1 -7 -5 6 19 -4)
1969/12/31/18:00:15.830,(-22 -14 -5 1 0 3 -24 -16)
1969/12/31/18:00:15.830,(3 -1 -7 -9 -11 -10 4 -4)
1969/12/31/18:00:15.838,(37 11 3 0 -1 -12 -7 10)
1969/12/31/18:00:15.838,(-11 -2 2 0 6 32 16 -7)
1969/12/31/18:00:15.853,(29 2 -6 -3 -3 -22 10 19)
1969/12/31/18:00:15.853,(-8 -10 7 6 2 14 6 8)
1969/12/31/18:00:15.854,(7 0 -4 1 -3 -19 14 -2)
1969/12/31/18:00:15.854,(11 8 -6 -6 -5 -5 -15 1)
1969/12/31/18:00:15.876,(12 6 12 9 10 36 22 22)
1969/12/31/18:00:15.876,(-29 -18 -6 1 -6 -44 9 -6)
1969/12/31/18:00:15.877,(28 -1 -14 -8 0 -12 3 16)
1969/12/31/18:00:15.877,(7 9 4 -1 4 8 14 20)
1969/12/31/18:00:15.890,(-14 -15 3 4 4 20 -8 -8)
1969/12/31/18:00:15.890,(-23 -7 -12 -11 -5 -32 -3 -15)
1969/12/31/18:00:15.898,(-20 -4 -3 -4 -6 -42 6 -16)
1969/12/31/18:00:15.898,(4 -3 1 1 3 9 12 33)
1969/12/31/18:00:15.913,(7 15 11 4 3 11 9 15)
1969/12/31/18:00:15.913,(-39 -7 -1 -7 -1 16 -33 -61)
1969/12/31/18:00:15.914,(3 9 5 1 6 50 35 32)
1969/12/31/18:00:15.914,(-52 -27 -10 -16 -15 -27 -73 -82)
1969/12/31/18:00:15.936,(9 4 1 1 -2 15 9 2)
1969/12/31/18:00:15.936,(0 -3 1 1 2 26 1 8)
1969/12/31/18:00:15.944,(22 28 8 8 -2 -7 -20 -1)
1969/12/31/18:00:15.944,(9 0 1 4 -5 -10 -1 7)
1969/12/31/18:00:15.951,(-25 -36 -13 -8 -3 53 16 -4)
1969/12/31/18:00:15.951,(4 -2 -5 -6 -14 -59 -13 -2)
1969/12/31/18:00:15.958,(42 13 2 -2 -4 8 6 4)
1969/12/31/18:00:15.958,(-13 7 2 5 6 21 8 4)
1969/12/31/18:00:15.973,(-36 -24 -16 -9 -12 -39 -16 -36)
1969/12/31/18:00:15.973,(6 -1 4 5 4 12 14 48)
1969/12/31/18:00:15.974,(-4 -7 -10 -9 -2 16 -32 -51)
1969/12/31/18:00:15.974,(11 -1 -1 -1 -1 -24 -8 8)
1969/12/31/18:00:15.997,(-4 -1 -2 -4 -8 -19 11 3)
1969/12/31/18:00:15.997,(-5 -7 -4 -3 -1 12 21 10)
1969/12/31/18:00:15.998,(3 8 4 6 6 7 14 39)
1969/12/31/18:00:15.998,(-22 -9 0 1 0 -7 -1 -21)
1969/12/31/18:00:16.010,(-1 10 5 6 4 -18 -16 -9)
1969/12/31/18:00:16.010,(12 -4 -8 -3 -1 7 -2 9)
1969/12/31/18:00:16.018,(7 6 7 4 1 9 22 -10)
1969/12/31/18:00:16.018,(12 -2 -1 -1 7 21 -28 5)
1969/12/31/18:00:16.033,(11 -9 -3 -1 -13 -51 -5 75)
1969/12/31/18:00:16.033,(10 5 3 -3 -1 -1 -44 -46)
1969/12/31/18:00:16.034,(-13 -11 -7 -7 -2 -12 -13 1)
1969/12/31/18:00:16.034,(-18 4 7 1 -11 -37 -8 -10)
1969/12/31/18:00:16.056,(42 12 -1 -2 8 57 14 19)
1969/12/31/18:00:16.056,(-8 0 4 3 2 -14 -40 -23)
1969/12/31/18:00:16.057,(-30 -10 -2 -2 -3 2 19 -19)
1969/12/31/18:00:16.057,(4 -5 -9 -4 0 -2 12 12)
1969/12/31/18:00:16.070,(-20 1 4 4 -1 -21 -7 -25)
1969/12/31/18:00:16.070,(14 4 4 4 6 10 0 0)
1969/12/31/18:00:16.079,(-19 -3 -2 3 6 18 7 -9)
1969/12/31/18:00:16.079,(11 -1 -8 -8 -9 -24 2 -8)
1969/12/31/18:00:16.101,(2 1 3 3 2 -1 4 -38)
1969/12/31/18:00:16.101,(8 2 1 0 7 54 18 58)
1969/12/31/18:00:16.102,(-4 -15 -9 -9 -13 -30 -7 16)
1969/12/31/18:00:16.102,(13 8 3 0 0 -6 0 14)
1969/12/31/18:00:16.116,(-10 7 7 5 2 -18 -12 6)
1969/12/31/18:00:16.116,(17 12 0 3 -1 -21 1 -13)
1969/12/31/18:00:16.117,(25 8 5 1 4 41 -2 -28)
1969/12/31/18:00:16.117,(-25 -16 -12 -9 -7 -19 -12 -37)
1969/12/31/18:00:16.139,(-3 -1 -4 -3 -1 14 19 18)
1969/12/31/18:00:16.139,(-3 3 8 9 6 7 25 21)
1969/12/31/18:00:16.140,(-5 -3 -1 -6 -9 -15 -40 -12)
1969/12/31/18:00:16.140,(2 -3 -2 0 -4 -4 8 -29)
1969/12/31/18:00:16.153,(7 13 10 7 6 1 -12 -9)
1969/12/31/18:00:16.153,(-2 -4 -2 -2 -4 -3 22 -1)
1969/12/31/18:00:16.154,(-30 -18 -4 -3 1 -4 -2 -14)
1969/12/31/18:00:16.154,(22 22 3 1 2 -3 -2 22)
1969/12/31/18:00:16.176,(11 -3 -2 -3 1 15 -27 2)
1969/12/31/18:00:16.176,(-4 -13 -12 -5 8 38 -18 24)
1969/12/31/18:00:16.177,(-8 6 4 2 -6 -55 -6 19)
1969/12/31/18:00:16.177,(11 3 4 5 2 -5 -3 9)
1969/12/31/18:00:16.199,(-68 -37 -14 -11 -4 27 -23 -71)
1969/12/31/18:00:16.199,(24 8 3 4 0 -16 21 38)
1969/12/31/18:00:16.200,(-15 -7 -10 -10 -7 -13 -5 -30)
1969/12/31/18:00:16.200,(32 20 8 6 4 23 18 52)
1969/12/31/18:00:16.213,(-1 -10 -3 -3 0 -4 31 -8)
1969/12/31/18:00:16.213,(-25 -12 -3 -4 -7 -21 -26 -14)
1969/12/31/18:00:16.221,(1 2 -2 0 3 26 32 11)
1969/12/31/18:00:16.221,(6 4 -2 -3 -1 10 -10 2)
1969/12/31/18:00:16.236,(2 7 -3 -5 -16 -65 -16 -24)
1969/12/31/18:00:16.236,(-8 -2 3 2 -2 -3 3 -4)
1969/12/31/18:00:16.238,(28 5 7 9 10 15 9 38)
1969/12/31/18:00:16.238,(-15 -13 -4 1 1 1 18 20)
1969/12/31/18:00:16.259,(3 15 5 7 11 7 38 81)
1969/12/31/18:00:16.259,(11 -10 -4 -5 -1 23 13 15)
1969/12/31/18:00:16.260,(13 8 0 -1 6 51 -13 -27)
1969/12/31/18:00:16.260,(6 8 5 1 4 19 20 23)
1969/12/31/18:00:16.273,(15 -3 -3 -5 -18 -112 25 64)
1969/12/31/18:00:16.274,(22 7 9 7 3 -4 -37 -68)
1969/12/31/18:00:16.274,(-46 -27 -18 -14 -9 -10 -18 -50)
1969/12/31/18:00:16.274,(-3 3 3 1 2 -16 -5 8)
1969/12/31/18:00:16.295,(21 12 11 11 11 24 -27 3)
1969/12/31/18:00:16.295,(15 -5 -17 -19 -22 -21 -19 -48)
1969/12/31/18:00:16.303,(11 4 -9 -6 -8 -43 -16 -12)
1969/12/31/18:00:16.303,(-13 -22 -6 -3 4 65 11 2)
1969/12/31/18:00:16.319,(-13 3 0 -4 -5 -12 -14 -26)
1969/12/31/18:00:16.319,(-56 -31 -15 -8 -7 -13 -2 -30)
1969/12/31/18:00:16.320,(15 25 21 19 19 40 39 47)
1969/12/31/18:00:16.320,(-1 -19 -16 -15 -28 -111 -48 -46)
1969/12/31/18:00:16.333,(14 -3 -17 -11 13 127 -13 -55)
1969/12/31/18:00:16.333,(-33 -2 -2 -7 -23 -88 -41 -35)
1969/12/31/18:00:16.334,(31 16 16 12 6 -2 26 40)
1969/12/31/18:00:16.334,(-10 9 4 5 10 23 24 -2)
1969/12/31/18:00:16.357,(6 -11 1 1 -6 5 14 56)
1969/12/31/18:00:16.357,(0 17 6 7 17 51 9 57)
1969/12/31/18:00:16.358,(-2 -12 -13 -12 -10 -14 -8 -14)
1969/12/31/18:00:16.358,(10 31 15 13 7 -1 5 -18)
1969/12/31/18:00:16.379,(-63 -48 -12 -4 -2 -16 5 -23)
1969/12/31/18:00:16.379,(21 24 2 1 0 3 12 8)
1969/12/31/18:00:16.380,(-68 -32 -21 -13 -16 -20 -33 -47)
1969/12/31/18:00:16.380,(-9 -6 0 -1 4 24 3 8)
1969/12/31/18:00:16.393,(21 14 1 -1 -3 -17 4 -22)
1969/12/31/18:00:16.393,(-16 -6 4 3 10 50 4 -36)
1969/12/31/18:00:16.394,(14 14 8 9 6 22 52 37)
1969/12/31/18:00:16.394,(-20 -23 -11 -9 -7 -4 -28 -37)
1969/12/31/18:00:16.416,(9 7 4 -2 -5 -26 -9 7)
1969/12/31/18:00:16.416,(16 13 13 13 13 0 11 39)
1969/12/31/18:00:16.417,(11 6 0 4 4 7 -32 -9)
1969/12/31/18:00:16.417,(-16 -1 2 9 30 86 79 49)
1969/12/31/18:00:16.439,(8 -1 3 -3 -22 -24 1 -34)
1969/12/31/18:00:16.439,(-23 -23 -4 3 3 -34 -33 -28)
1969/12/31/18:00:16.439,(19 12 3 -5 -14 -6 26 29)
1969/12/31/18:00:16.439,(-10 -2 -9 -15 -10 -22 -21 -7)
1969/12/31/18:00:16.453,(30 12 8 16 54 54 -2 6)
1969/12/31/18:00:16.453,(9 5 -5 -12 -46 -39 8 -4)
1969/12/31/18:00:16.454,(32 19 9 16 29 10 -5 33)
1969/12/31/18:00:16.454,(5 -6 0 5 20 27 -11 -51)
1969/12/31/18:00:16.477,(-40 -26 -11 14 43 21 2 -76)
1969/12/31/18:00:16.477,(10 4 -2 -34 -90 -94 -16 5)
1969/12/31/18:00:16.478,(-9 -7 -4 -32 -27 -23 -16 16)
1969/12/31/18:00:16.478,(38 26 13 14 23 7 29 70)
1969/12/31/18:00:16.499,(-5 6 -2 12 61 43 2 -31)
1969/12/31/18:00:16.499,(-3 1 0 14 44 47 5 7)
1969/12/31/18:00:16.501,(-2 -20 -14 -18 -63 -18 -12 -17)
1969/12/31/18:00:16.501,(-4 -2 1 -6 -7 -33 -25 -24)
1969/12/31/18:00:16.512,(10 28 17 31 52 2 26 58)
1969/12/31/18:00:16.512,(21 -7 5 33 81 81 32 34)
1969/12/31/18:00:16.521,(-18 -4 -5 -13 -3 -15 -2 -38)
1969/12/31/18:00:16.522,(-29 -8 -7 -31 -88 -71 -43 -25)
1969/12/31/18:00:16.536,(14 -10 -9 -34 -47 -34 6 35)
1969/12/31/18:00:16.536,(5 12 9 25 52 2 8 28)
1969/12/31/18:00:16.538,(4 7 9 15 -5 16 0 -11)
1969/12/31/18:00:16.538,(-19 -21 -15 -52 -80 -67 -11 -12)
1969/12/31/18:00:16.559,(5 15 1 -12 -5 -6 -20 4)
1969/12/31/18:00:16.559,(-17 -11 -4 -4 39 24 15 -9)
1969/12/31/18:00:16.560,(1 -2 6 41 78 54 20 27)
1969/12/31/18:00:16.560,(4 -5 -14 17 38 17 -8 -19)
1969/12/31/18:00:16.581,(-25 -5 23 -16 -74 -35 -20 -10)
1969/12/31/18:00:16.581,(-10 18 6 4 0 12 12 -7)
1969/12/31/18:00:16.583,(-25 -10 -15 1 7 -1 -1 -19)
1969/12/31/18:00:16.583,(5 6 -3 -7 2 -3 -17 -28)
1969/12/31/18:00:16.596,(9 -4 -12 -9 -17 -7 1 11)
1969/12/31/18:00:16.596,(-25 -16 -10 -11 -25 -17 -1 -10)
1969/12/31/18:00:16.598,(25 7 17 12 8 9 8 34)
1969/12/31/18:00:16.598,(-21 -10 -5 17 37 17 1 -40)
1969/12/31/18:00:16.620,(-44 28 41 28 37 27 0 -10)
1969/12/31/18:00:16.620,(-47 -23 -17 -29 -82 -55 -17 -72)
1969/12/31/18:00:16.622,(9 -7 -14 -26 -31 -10 -10 17)
1969/12/31/18:00:16.622,(18 -15 -12 -3 -7 -19 -1 33)
1969/12/31/18:00:16.632,(31 12 -5 3 6 -5 -7 -2)
1969/12/31/18:00:16.633,(15 5 -12 6 61 50 20 22)
1969/12/31/18:00:16.647,(-48 -66 -33 -28 -24 -24 -12 -38)
1969/12/31/18:00:16.647,(32 21 -13 3 -12 -18 25 67)
1969/12/31/18:00:16.656,(-2 56 64 5 -61 -61 -32 -17)
1969/12/31/18:00:16.656,(-11 -17 -15 1 23 9 9 21)
1969/12/31/18:00:16.658,(28 -45 -56 -18 23 10 2 18)
1969/12/31/18:00:16.658,(-42 8 51 26 52 33 -4 -65)
1969/12/31/18:00:16.679,(23 36 6 -2 -38 -10 25 34)
1969/12/31/18:00:16.679,(11 -11 12 -4 -26 -29 -30 -11)
1969/12/31/18:00:16.680,(11 -17 -23 30 127 109 37 48)
1969/12/31/18:00:16.680,(12 42 52 -16 -110 -89 -20 19)
1969/12/31/18:00:16.692,(5 -43 -54 -35 1 -15 7 40)
1969/12/31/18:00:16.692,(13 19 28 11 -2 11 20 3)
1969/12/31/18:00:16.701,(-18 -34 -14 0 15 -22 -31 -11)
1969/12/31/18:00:16.701,(22 -49 -47 -14 22 25 6 14)
1969/12/31/18:00:16.716,(22 19 -29 14 67 44 2 -3)
1969/12/31/18:00:16.716,(44 13 19 -1 -35 -4 13 88)
1969/12/31/18:00:16.718,(39 85 44 -18 -82 -50 7 41)
1969/12/31/18:00:16.718,(-68 -24 5 -9 -28 -39 -36 -85)
1969/12/31/18:00:16.739,(-51 -2 40 29 34 17 1 2)
1969/12/31/18:00:16.739,(35 -15 -45 -5 2 17 6 -6)
1969/12/31/18:00:16.740,(8 -10 5 10 -7 -17 -25 -45)
1969/12/31/18:00:16.740,(-29 51 45 33 79 78 28 32)
1969/12/31/18:00:16.753,(-14 -120 -111 -51 -62 -45 2 18)
1969/12/31/18:00:16.753,(-7 127 115 29 -1 -26 -47 -7)
1969/12/31/18:00:16.767,(-48 -51 -42 -37 -55 -46 -17 -19)
1969/12/31/18:00:16.767,(45 -78 -37 -15 0 4 21 46)
1969/12/31/18:00:16.784,(-47 -83 -53 24 127 94 10 -10)
1969/12/31/18:00:16.784,(-4 30 10 -14 -79 -31 14 48)
1969/12/31/18:00:16.785,(-7 49 72 31 9 6 -11 -58)
1969/12/31/18:00:16.785,(27 -5 -60 -42 -69 -70 -60 -14)
1969/12/31/18:00:16.799,(-9 50 48 16 29 21 13 -38)
1969/12/31/18:00:16.799,(3 -128 -128 -58 5 14 39 44)
1969/12/31/18:00:16.800,(-52 118 97 45 58 31 -18 -39)
1969/12/31/18:00:16.800,(-6 24 4 42 60 41 25 -17)
1969/12/31/18:00:16.812,(94 -72 -98 -43 -97 -37 4 82)
1969/12/31/18:00:16.813,(13 53 31 28 51 4 -11 -43)
1969/12/31/18:00:16.821,(-16 -85 -75 -15 3 16 20 27)
1969/12/31/18:00:16.821,(-38 53 90 20 45 33 8 -11)
1969/12/31/18:00:16.836,(3 3 -18 -38 -128 -99 -43 24)
1969/12/31/18:00:16.836,(-60 -113 -32 -26 -15 -4 -16 -101)
1969/12/31/18:00:16.838,(49 74 18 17 48 38 44 28)
1969/12/31/18:00:16.838,(41 -38 -65 -23 -22 -48 -40 1)
1969/12/31/18:00:16.859,(-49 13 42 19 87 75 4 -15)
1969/12/31/18:00:16.859,(30 48 20 28 -29 -41 -13 -59)
1969/12/31/18:00:16.860,(15 -27 -43 -31 -54 -17 -1 11)
1969/12/31/18:00:16.860,(-51 0 26 19 34 41 4 -38)
1969/12/31/18:00:16.872,(-13 -63 -43 -15 57 52 -1 -25)
1969/12/31/18:00:16.872,(10 -100 -48 -1 -12 8 16 12)
1969/12/31/18:00:16.881,(-5 89 57 -10 -64 -40 14 25)
1969/12/31/18:00:16.881,(32 48 22 7 30 18 22 -32)
1969/12/31/18:00:16.896,(7 43 34 2 -45 -41 -23 -22)
1969/12/31/18:00:16.896,(0 35 39 39 89 57 12 3)
1969/12/31/18:00:16.898,(23 -100 -81 -37 -36 -7 -4 1)
1969/12/31/18:00:16.898,(-40 -96 -53 -2 76 83 53 71)
1969/12/31/18:00:16.919,(2 89 57 41 -17 -66 -20 -9)
1969/12/31/18:00:16.919,(-71 -66 -32 -35 -78 -54 -54 -84)
1969/12/31/18:00:16.921,(15 75 20 -12 14 39 39 31)
1969/12/31/18:00:16.921,(-11 -59 -47 -28 -59 -54 -22 22)
1969/12/31/18:00:16.933,(-46 34 36 11 36 14 -7 -77)
1969/12/31/18:00:16.933,(41 -17 -74 -27 19 9 9 37)
1969/12/31/18:00:16.941,(17 34 98 51 36 -8 -7 -6)
1969/12/31/18:00:16.941,(-6 -59 -4 21 2 39 6 10)
1969/12/31/18:00:16.955,(33 42 -44 -26 -27 3 37 69)
1969/12/31/18:00:16.955,(-4 72 75 11 -27 -43 -28 -41)
1969/12/31/18:00:16.964,(-4 -64 -32 11 66 21 -16 -39)
1969/12/31/18:00:16.964,(11 -42 -44 -13 38 5 -18 -9)
1969/12/31/18:00:16.979,(10 -52 -54 -42 -119 -84 -37 -31)
1969/12/31/18:00:16.979,(-26 72 63 6 -8 9 13 25)
1969/12/31/18:00:16.980,(-22 -19 -23 14 34 -3 1 33)
1969/12/31/18:00:16.981,(-13 -16 -36 -8 9 19 4 -17)
1969/12/31/18:00:16.992,(25 58 65 9 -22 -24 -15 -5)
1969/12/31/18:00:16.992,(-31 -26 -27 -10 36 24 7 -12)
1969/12/31/18:00:17.001,(-37 -65 -48 13 52 8 -47 -67)
1969/12/31/18:00:17.001,(1 98 61 -21 -117 -49 10 21)
1969/12/31/18:00:17.016,(-12 -29 -23 -8 14 2 -5 -29)
1969/12/31/18:00:17.016,(44 31 0 6 16 19 18 22)
1969/12/31/18:00:17.030,(-53 -68 12 9 -7 -8 1 -9)
1969/12/31/18:00:17.030,(6 25 -26 -23 -25 -16 -20 -17)
1969/12/31/18:00:17.039,(37 -5 19 -1 12 28 3 6)
1969/12/31/18:00:17.040,(-10 30 19 16 21 16 8 25)
1969/12/31/18:00:17.041,(13 -39 -38 -15 -10 -20 7 34)
1969/12/31/18:00:17.041,(-83 -29 -27 -22 -14 -6 5 -33)
1969/12/31/18:00:17.052,(-6 92 91 20 -16 15 -12 -3)
1969/12/31/18:00:17.052,(46 -61 -60 6 33 -19 -2 54)
1969/12/31/18:00:17.061,(-33 5 8 -34 -53 -16 -2 21)
1969/12/31/18:00:17.061,(-9 -46 -29 12 49 25 14 22)
1969/12/31/18:00:17.075,(33 47 50 55 7 -2 19 39)
1969/12/31/18:00:17.075,(13 -47 -66 -55 8 19 -10 24)
1969/12/31/18:00:17.082,(-31 -16 11 7 -35 -9 -19 -26)
1969/12/31/18:00:17.082,(22 90 58 62 0 3 19 20)
1969/12/31/18:00:17.099,(-9 -31 -5 -1 18 -12 -5 -23)
1969/12/31/18:00:17.099,(-19 -22 8 9 2 24 13 -12)
1969/12/31/18:00:17.100,(68 46 3 -10 13 4 12 31)
1969/12/31/18:00:17.100,(0 -73 -48 -26 9 -7 -14 -4)
1969/12/31/18:00:17.121,(11 4 -30 -2 51 39 18 -1)
1969/12/31/18:00:17.121,(-28 -56 -49 -20 -21 -14 0 22)
1969/12/31/18:00:17.123,(3 40 4 -17 -73 6 27 -31)
1969/12/31/18:00:17.123,(-16 17 15 -10 -51 -69 -52 -11)
1969/12/31/18:00:17.136,(17 -86 -95 0 58 21 0 -2)
1969/12/31/18:00:17.136,(4 101 92 0 -21 -27 -15 -13)
1969/12/31/18:00:17.142,(33 53 31 28 16 1 13 7)
1969/12/31/18:00:17.142,(34 -19 -10 3 -6 15 0 -10)
1969/12/31/18:00:17.159,(-54 -15 -8 -21 -23 0 -4 -54)
1969/12/31/18:00:17.159,(31 -15 -7 14 39 27 19 54)
1969/12/31/18:00:17.160,(5 -22 -15 -26 -43 -25 -15 6)
1969/12/31/18:00:17.160,(15 24 8 -24 -36 -41 -10 -35)
1969/12/31/18:00:17.182,(-3 -57 -24 -4 21 7 -5 33)
1969/12/31/18:00:17.182,(37 -13 -24 16 -6 4 9 -19)
1969/12/31/18:00:17.183,(-23 127 116 39 15 -14 -11 -32)
1969/12/31/18:00:17.183,(-6 -14 16 17 26 19 4 -15)
1969/12/31/18:00:17.196,(-5 -37 -28 -5 -6 -2 -4 -7)
1969/12/31/18:00:17.196,(-47 -3 -10 -29 -4 5 -24 -63)
1969/12/31/18:00:17.211,(12 -36 -15 17 -7 -23 -3 -1)
1969/12/31/18:00:17.211,(19 -27 -31 -23 -3 39 5 13)
1969/12/31/18:00:17.219,(-2 -1 4 2 6 -12 26 10)
1969/12/31/18:00:17.219,(0 75 77 16 -17 0 -27 -18)
1969/12/31/18:00:17.220,(-30 -49 -82 -35 6 18 -4 -42)
1969/12/31/18:00:17.220,(6 116 97 39 -18 -13 14 26)
1969/12/31/18:00:17.241,(21 -3 -17 8 15 -19 -6 14)
1969/12/31/18:00:17.241,(22 -86 -46 -14 -45 -17 -19 42)
1969/12/31/18:00:17.243,(6 -71 -69 -38 -17 -19 -16 -19)
1969/12/31/18:00:17.243,(-30 76 47 8 52 0 -18 -49)
1969/12/31/18:00:17.256,(-1 8 1 -13 -59 -23 -22 -11)
1969/12/31/18:00:17.256,(-1 -43 -29 8 51 26 29 17)
1969/12/31/18:00:17.263,(-5 -49 -30 -4 -22 -18 -19 10)
1969/12/31/18:00:17.263,(71 68 1 8 3 10 8 42)
1969/12/31/18:00:17.279,(-33 -34 17 -3 3 5 4 -3)
1969/12/31/18:00:17.279,(-30 43 58 33 34 14 11 9)
1969/12/31/18:00:17.280,(24 1 16 23 29 27 7 22)
1969/12/31/18:00:17.280,(18 -60 -68 -51 -60 -25 -2 30)
1969/12/31/18:00:17.301,(-16 55 63 9 -21 -28 -26 -14)
1969/12/31/18:00:17.301,(22 10 -12 16 65 22 2 -22)
1969/12/31/18:00:17.303,(40 -14 -39 -1 -34 -1 26 53)
1969/12/31/18:00:17.303,(-17 26 81 15 30 9 19 35)
1969/12/31/18:00:17.316,(19 9 -26 -5 47 45 2 -12)
1969/12/31/18:00:17.316,(-36 17 24 -15 -77 -63 -10 -32)
1969/12/31/18:00:17.330,(-13 -18 -8 9 -13 -6 -42 -27)
1969/12/31/18:00:17.330,(26 -11 -18 -5 0 -5 7 1)
1969/12/31/18:00:17.339,(-51 -59 -51 -28 -19 3 -1 -13)
1969/12/31/18:00:17.339,(26 7 -10 12 40 23 30 35)
1969/12/31/18:00:17.340,(-7 93 87 36 53 24 3 -13)
1969/12/31/18:00:17.340,(-19 -70 -10 10 -23 4 18 18)
1969/12/31/18:00:17.361,(40 56 5 -5 -16 -20 -12 40)
1969/12/31/18:00:17.361,(-20 37 44 21 17 5 -10 -2)
1969/12/31/18:00:17.363,(-21 -71 -53 -22 -18 9 21 5)
1969/12/31/18:00:17.363,(56 9 -12 11 33 9 -2 29)
1969/12/31/18:00:17.375,(-5 -65 -66 -46 -35 0 23 9)
1969/12/31/18:00:17.375,(10 66 50 16 -28 -14 11 5)
1969/12/31/18:00:17.384,(12 9 2 -1 4 19 8 -1)
1969/12/31/18:00:17.384,(3 -18 14 17 34 7 38 41)
1969/12/31/18:00:17.399,(-13 27 25 30 11 7 -49 -19)
1969/12/31/18:00:17.399,(72 -79 -67 -27 -9 1 39 49)
1969/12/31/18:00:17.400,(-104 2 -23 -64 -76 -50 -85 -113)
1969/12/31/18:00:17.400,(-17 57 41 35 28 17 6 4)
1969/12/31/18:00:17.421,(20 -99 -58 -17 -2 8 39 10)
1969/12/31/18:00:17.421,(0 30 4 6 10 -5 -26 -40)
1969/12/31/18:00:17.423,(18 -18 28 30 43 9 9 21)
1969/12/31/18:00:17.423,(-61 -50 -67 -31 -25 -8 -14 -57)
1969/12/31/18:00:17.435,(-7 66 73 38 51 30 4 -37)
1969/12/31/18:00:17.435,(38 -100 -91 -45 -63 -25 -8 35)
1969/12/31/18:00:17.444,(14 83 71 32 33 6 29 4)
1969/12/31/18:00:17.444,(-20 -41 -67 5 32 11 -35 -42)
1969/12/31/18:00:17.459,(-49 -59 15 -16 -25 -22 -19 -6)
1969/12/31/18:00:17.459,(-33 -57 -83 -43 -88 -69 -31 -9)
1969/12/31/18:00:17.461,(35 40 45 -22 -53 -23 19 54)
1969/12/31/18:00:17.461,(14 96 98 61 59 19 -23 -19)
1969/12/31/18:00:17.489,(-8 -22 -50 -15 41 42 54 17)
1969/12/31/18:00:17.489,(59 41 5 3 -9 -4 -33 15)
1969/12/31/18:00:17.490,(-112 -128 -80 -32 -1 -33 -60 -112)
1969/12/31/18:00:17.490,(30 -19 -34 -26 -12 -10 -8 -16)
1969/12/31/18:00:17.495,(15 61 63 31 9 4 38 27)
1969/12/31/18:00:17.495,(-82 -27 9 -10 -7 11 -33 -85)
1969/12/31/18:00:17.504,(47 -17 -37 -2 22 17 38 71)
1969/12/31/18:00:17.504,(-12 -77 -40 -11 -14 -9 -17 -9)
1969/12/31/18:00:17.519,(68 108 92 45 0 -1 6 29)
1969/12/31/18:00:17.519,(-28 -60 -6 1 18 20 3 -17)
1969/12/31/18:00:17.520,(15 33 30 7 -6 -21 6 5)
1969/12/31/18:00:17.520,(-10 -26 -43 -15 -9 -5 9 2)
1969/12/31/18:00:17.541,(9 -45 -13 2 8 42 15 43)
1969/12/31/18:00:17.541,(-68 77 51 22 5 -6 -8 -75)
1969/12/31/18:00:17.543,(33 -9 -25 13 62 27 -2 -14)
1969/12/31/18:00:17.543,(-64 -35 -21 -72 -128 -71 -6 -40)
1969/12/31/18:00:17.555,(0 -7 -26 -13 1 -31 -11 -13)
1969/12/31/18:00:17.555,(-35 -94 -58 0 65 49 12 -23)
1969/12/31/18:00:17.564,(-22 27 -18 -8 3 -2 9 28)
1969/12/31/18:00:17.564,(42 116 121 65 38 20 37 24)
1969/12/31/18:00:17.579,(24 40 -7 11 -12 -10 -29 -10)
1969/12/31/18:00:17.579,(38 -49 -27 -11 12 17 4 43)
1969/12/31/18:00:17.580,(-3 98 104 56 30 21 14 5)
1969/12/31/18:00:17.580,(-53 -92 -76 -39 -23 -26 -41 -39)
1969/12/31/18:00:17.602,(13 -15 -51 3 36 57 38 47)
1969/12/31/18:00:17.602,(-53 71 101 -15 -86 -59 -32 -34)
1969/12/31/18:00:17.603,(29 -27 -28 -9 30 -1 -4 23)
1969/12/31/18:00:17.603,(-41 -77 -65 -35 -14 0 -9 -36)
1969/12/31/18:00:17.615,(-7 37 13 3 -7 -1 -1 -27)
1969/12/31/18:00:17.615,(8 21 44 31 24 4 15 22)
1969/12/31/18:00:17.624,(61 -45 -51 -14 -9 -11 17 88)
1969/12/31/18:00:17.624,(-17 100 104 55 22 4 -18 -28)
1969/12/31/18:00:17.639,(3 -91 -69 -9 64 58 39 26)
1969/12/31/18:00:17.639,(-38 -21 -44 -27 -69 -55 3 -8)
1969/12/31/18:00:17.640,(15 0 2 -50 -54 -38 -5 -3)
1969/12/31/18:00:17.640,(117 38 -10 20 68 34 39 102)
1969/12/31/18:00:17.661,(-9 90 53 4 -18 -42 -39 -50)
1969/12/31/18:00:17.661,(16 54 82 58 68 54 30 26)
1969/12/31/18:00:17.663,(29 -31 -12 15 26 35 4 22)
1969/12/31/18:00:17.663,(-63 -102 -68 -48 -85 -43 -20 -59)
1969/12/31/18:00:17.675,(-6 -17 -1 16 31 -2 -26 -30)
1969/12/31/18:00:17.675,(11 -22 -61 -74 -66 -23 -8 7)
1969/12/31/18:00:17.684,(9 -50 -46 -19 -22 -13 12 1)
1969/12/31/18:00:17.684,(-15 107 90 42 43 23 -3 -6)
1969/12/31/18:00:17.699,(23 -24 6 9 -2 -13 2 57)
1969/12/31/18:00:17.699,(-32 -3 1 27 27 1 -9 -56)
1969/12/31/18:00:17.700,(-22 -4 7 -10 -31 -20 -39 -44)
1969/12/31/18:00:17.700,(22 -77 -85 -34 0 18 20 36)
1969/12/31/18:00:17.720,(-40 30 52 14 5 -22 -12 -20)
1969/12/31/18:00:17.720,(1 -8 -21 -15 -36 5 19 29)
1969/12/31/18:00:17.729,(10 31 7 17 64 14 -10 -6)
1969/12/31/18:00:17.729,(35 -17 -3 -11 -57 -2 29 65)
1969/12/31/18:00:17.735,(-69 -78 -48 -39 -69 -39 -63 -84)
1969/12/31/18:00:17.735,(44 -23 -43 0 69 26 7 37)
1969/12/31/18:00:17.750,(0 109 90 51 38 29 19 -25)
1969/12/31/18:00:17.750,(-68 -79 -9 -7 10 -18 -30 -63)
1969/12/31/18:00:17.759,(23 -3 -8 -20 -43 -23 -7 -2)
1969/12/31/18:00:17.759,(-4 4 11 1 3 4 -10 -11)
1969/12/31/18:00:17.760,(21 -18 -29 -9 -11 -11 -2 9)
1969/12/31/18:00:17.760,(25 9 -5 4 16 11 4 14)
1969/12/31/18:00:17.781,(21 9 13 -6 -9 26 23 33)
1969/12/31/18:00:17.781,(5 13 -5 -2 12 -13 -27 -42)
1969/12/31/18:00:17.783,(14 -12 -6 13 23 45 -14 13)
1969/12/31/18:00:17.783,(20 35 6 -7 -44 -71 17 18)
1969/12/31/18:00:17.795,(-13 -42 -16 -6 8 -5 7 3)
1969/12/31/18:00:17.795,(51 43 11 -19 -21 -7 -8 32)
1969/12/31/18:00:17.804,(-32 -10 0 4 2 -2 -10 -18)
1969/12/31/18:00:17.804,(-23 -46 -31 33 79 46 2 6)
1969/12/31/18:00:17.819,(22 38 -1 8 1 -20 0 -1)
1969/12/31/18:00:17.819,(-32 13 26 18 15 9 6 -17)
1969/12/31/18:00:17.820,(-26 -27 1 -19 -37 -11 -3 -20)
1969/12/31/18:00:17.820,(-8 -1 -5 -13 -2 2 -3 26)
1969/12/31/18:00:17.841,(11 -33 -43 -25 -19 -4 14 37)
1969/12/31/18:00:17.841,(-22 -5 -8 -3 0 -64 -21 -38)
1969/12/31/18:00:17.843,(3 8 2 -3 7 88 29 5)
1969/12/31/18:00:17.843,(39 21 6 0 7 -64 -21 50)
1969/12/31/18:00:17.855,(-85 -30 -10 -16 -19 -8 -50 -104)
1969/12/31/18:00:17.855,(52 30 12 -34 -45 -54 56 45)
1969/12/31/18:00:17.864,(0 -36 -13 33 45 3 -51 32)
1969/12/31/18:00:17.864,(-3 0 6 0 -31 44 25 -29)
1969/12/31/18:00:17.879,(28 31 26 8 3 -13 -25 17)
1969/12/31/18:00:17.879,(54 35 3 -4 6 24 -14 29)
1969/12/31/18:00:17.881,(-100 -74 -35 -1 -14 -80 -34 -104)
1969/12/31/18:00:17.881,(-49 -14 2 10 30 58 6 -10)
1969/12/31/18:00:17.901,(38 15 7 1 -8 -15 9 17)
1969/12/31/18:00:17.901,(27 -6 -7 -6 -2 55 32 53)
1969/12/31/18:00:17.903,(-6 40 12 -14 -12 2 12 33)
1969/12/31/18:00:17.903,(-30 -28 -6 -12 -9 -30 -7 -17)
1969/12/31/18:00:17.915,(46 19 4 -9 -14 -4 9 -18)
1969/12/31/18:00:17.915,(-3 -10 -3 13 23 3 3 26)
1969/12/31/18:00:17.924,(37 30 9 4 4 35 23 52)
1969/12/31/18:00:17.924,(22 -14 -1 -3 -2 2 -3 21)
1969/12/31/18:00:17.939,(-1 0 8 2 -2 8 3 12)
1969/12/31/18:00:17.939,(-32 -26 0 16 14 0 12 -2)
1969/12/31/18:00:17.940,(96 37 9 7 -7 -16 18 34)
1969/12/31/18:00:17.940,(62 55 14 1 2 6 5 28)
1969/12/31/18:00:17.969,(-104 -68 -27 -14 -13 1 -6 -64)
1969/12/31/18:00:17.969,(-17 -34 -24 -6 -6 2 -10 -63)
1969/12/31/18:00:17.970,(-26 -25 -9 -16 -19 12 -36 -17)
1969/12/31/18:00:17.970,(17 13 9 1 -1 -19 11 -13)
1969/12/31/18:00:17.975,(32 27 18 12 9 19 36 45)
1969/12/31/18:00:17.975,(-40 14 14 23 20 21 8 -23)
1969/12/31/18:00:17.984,(4 4 -15 -11 -15 -40 1 7)
1969/12/31/18:00:17.984,(-59 -17 -13 -16 -4 -2 -43 -82)
1969/12/31/18:00:17.998,(28 -6 -2 0 0 3 10 24)
1969/12/31/18:00:17.998,(-69 -18 -1 4 1 14 -5 -12)
1969/12/31/18:00:18.005,(91 43 19 7 5 -1 19 53)
1969/12/31/18:00:18.005,(-1 12 3 7 4 11 3 23)
1969/12/31/18:00:18.022,(-10 -13 -20 -17 -14 -37 -22 -32)
1969/12/31/18:00:18.022,(-7 2 11 11 14 13 -2 4)
1969/12/31/18:00:18.023,(-40 -33 -23 -20 -14 -17 4 -37)
1969/12/31/18:00:18.023,(40 16 13 6 5 5 6 45)
1969/12/31/18:00:18.044,(3 9 4 9 3 12 -2 17)
1969/12/31/18:00:18.044,(52 26 15 11 3 -69 -16 7)
1969/12/31/18:00:18.045,(-46 -21 -6 -1 -3 22 10 10)
1969/12/31/18:00:18.045,(-21 10 -4 -10 3 43 49 20)
1969/12/31/18:00:18.058,(-23 -31 -22 -17 -11 -26 -27 -7)
1969/12/31/18:00:18.058,(57 12 5 6 2 13 6 83)
1969/12/31/18:00:18.065,(-73 -38 -7 -8 -17 -38 -24 -56)
1969/12/31/18:00:18.065,(24 19 0 5 -2 -7 -15 -9)
1969/12/31/18:00:18.081,(-27 -9 7 3 5 11 20 13)
1969/12/31/18:00:18.081,(1 -2 -12 1 0 8 -25 -24)
1969/12/31/18:00:18.083,(-4 -8 -4 -3 -2 -3 11 -13)
1969/12/31/18:00:18.083,(7 -6 -8 -15 -7 0 -7 -4)
1969/12/31/18:00:18.104,(26 26 14 12 8 2 10 12)
1969/12/31/18:00:18.104,(-13 -21 -14 -12 -3 7 -10 -10)
1969/12/31/18:00:18.105,(-1 3 3 1 1 2 4 -9)
1969/12/31/18:00:18.105,(-6 -11 -2 -3 -4 -13 -12 -7)
1969/12/31/18:00:18.118,(11 16 4 4 2 -6 6 -7)
1969/12/31/18:00:18.118,(-8 -3 -5 -1 2 12 -13 -14)
1969/12/31/18:00:18.125,(8 15 15 -1 -2 -1 5 -10)
1969/12/31/18:00:18.125,(42 11 6 14 8 0 1 21)
1969/12/31/18:00:18.141,(-26 -13 -2 -2 1 8 9 -3)
1969/12/31/18:00:18.141,(-5 -12 -22 -20 -9 5 3 -6)
1969/12/31/18:00:18.143,(16 44 37 23 8 -7 -6 0)
1969/12/31/18:00:18.143,(3 -20 10 12 4 2 0 -2)
1969/12/31/18:00:18.164,(18 4 -17 -4 -3 -1 -5 7)
1969/12/31/18:00:18.164,(2 18 32 16 11 13 30 6)
1969/12/31/18:00:18.166,(5 -46 -38 -23 -10 -8 -14 7)
1969/12/31/18:00:18.166,(-3 13 -8 -10 0 -2 -12 -15)
1969/12/31/18:00:18.178,(-20 -2 -1 0 -1 -3 -7 -9)
1969/12/31/18:00:18.178,(-7 43 64 31 9 3 5 -4)
1969/12/31/18:00:18.185,(11 3 2 -2 -2 5 1 0)
1969/12/31/18:00:18.185,(-13 -44 -55 -20 -12 -11 -13 -1)
1969/12/31/18:00:18.201,(8 -24 -23 -14 -4 -3 3 5)
1969/12/31/18:00:18.201,(4 19 0 -17 -10 -8 -12 -1)
1969/12/31/18:00:18.203,(-14 16 48 36 16 8 20 -3)
1969/12/31/18:00:18.203,(6 60 45 23 5 0 -25 -23)
1969/12/31/18:00:18.224,(5 -26 -31 -23 -10 -3 14 15)
1969/12/31/18:00:18.224,(0 16 31 19 4 -4 -16 -8)
1969/12/31/18:00:18.225,(-9 -55 -53 -22 -9 -4 -9 -14)
1969/12/31/18:00:18.225,(-4 -51 -48 -21 -7 -1 15 11)
1969/12/31/18:00:18.238,(10 62 50 20 4 1 -20 -8)
1969/12/31/18:00:18.238,(7 -5 -6 -6 0 10 42 23)
1969/12/31/18:00:18.245,(-10 64 61 30 17 12 -40 -16)
1969/12/31/18:00:18.245,(-8 -17 -16 -16 -15 -14 -6 -5)
1969/12/31/18:00:18.261,(-13 -36 -25 -16 -8 -5 -11 -14)
1969/12/31/18:00:18.261,(-4 -28 -36 -7 -4 2 -1 -5)
1969/12/31/18:00:18.263,(7 -33 -12 -8 -2 8 31 18)
1969/12/31/18:00:18.263,(6 88 58 27 12 4 -26 -13)
1969/12/31/18:00:18.284,(13 27 20 15 8 10 1 10)
1969/12/31/18:00:18.284,(-3 -43 -23 -14 -6 2 -10 -4)
1969/12/31/18:00:18.285,(-31 -47 -50 -29 -14 -4 5 -4)
1969/12/31/18:00:18.285,(-4 15 21 10 2 1 -6 -6)
1969/12/31/18:00:18.298,(16 -41 -37 -20 -13 -10 7 13)
1969/12/31/18:00:18.298,(-28 -39 -13 -6 -3 -10 14 -8)
1969/12/31/18:00:18.312,(33 66 22 7 -5 -26 -13 7)
1969/12/31/18:00:18.312,(12 -47 -21 2 7 -9 29 27)
1969/12/31/18:00:18.321,(2 91 79 37 15 -13 -6 -6)
1969/12/31/18:00:18.321,(6 -23 -3 -4 6 2 9 8)
1969/12/31/18:00:18.323,(-7 -14 -17 -15 1 1 -6 -11)
1969/12/31/18:00:18.323,(-18 11 0 -13 -2 13 15 0)
1969/12/31/18:00:18.344,(2 39 35 10 4 14 0 -12)
1969/12/31/18:00:18.344,(-11 -39 -13 -8 -5 10 -14 -9)
1969/12/31/18:00:18.345,(2 77 21 -4 -8 3 -9 -13)
1969/12/31/18:00:18.345,(18 4 27 18 3 14 8 2)
1969/12/31/18:00:18.357,(-16 -13 7 16 6 11 1 2)
1969/12/31/18:00:18.357,(17 -37 -73 -34 -14 2 -8 5)
1969/12/31/18:00:18.366,(-2 53 63 31 5 -7 0 -2)
1969/12/31/18:00:18.366,(-2 -24 -6 -2 -1 -6 2 -1)
1969/12/31/18:00:18.381,(-2 -22 -71 -48 -25 -16 -6 0)
1969/12/31/18:00:18.381,(11 52 -3 15 7 -6 -10 -5)
1969/12/31/18:00:18.383,(14 -41 -34 -3 1 -3 13 7)
1969/12/31/18:00:18.383,(-4 -1 -5 -2 0 -3 2 3)
1969/12/31/18:00:18.404,(-10 -13 9 5 2 -8 -10 -7)
1969/12/31/18:00:18.404,(0 11 -4 -11 -2 0 6 0)
1969/12/31/18:00:18.405,(-6 -48 -74 -44 -15 -8 -16 -1)
1969/12/31/18:00:18.405,(-11 9 25 13 6 4 -7 -10)
1969/12/31/18:00:18.427,(-8 -39 -25 -24 -6 8 3 2)
1969/12/31/18:00:18.427,(0 37 30 21 3 6 -11 -10)
1969/12/31/18:00:18.428,(-8 -4 9 11 4 11 0 -7)
1969/12/31/18:00:18.428,(-7 -18 -8 -3 -4 8 -8 -11)
1969/12/31/18:00:18.442,(-12 -8 17 4 -3 3 -15 -17)
1969/12/31/18:00:18.442,(-20 -13 -1 -8 -7 0 -2 -13)
1969/12/31/18:00:18.443,(-5 7 17 12 -5 -5 -25 -17)
1969/12/31/18:00:18.444,(5 4 -15 -12 -15 3 -6 -5)
1969/12/31/18:00:18.464,(16 -20 -1 9 -12 7 11 22)
1969/12/31/18:00:18.464,(58 62 15 23 0 -29 25 46)
1969/12/31/18:00:18.465,(27 -76 -53 2 -6 -48 38 52)
1969/12/31/18:00:18.465,(42 -16 -13 18 20 -42 37 55)
1969/12/31/18:00:18.477,(46 4 3 23 25 -67 46 60)
1969/12/31/18:00:18.477,(-7 -22 -2 -4 26 -62 13 16)
1969/12/31/18:00:18.486,(-30 15 14 -20 31 -19 16 -8)
1969/12/31/18:00:18.487,(-46 7 10 -25 15 -1 -17 -43)
1969/12/31/18:00:18.501,(-45 28 14 -17 6 35 -21 -56)
1969/12/31/18:00:18.501,(-30 6 16 -3 -7 41 -20 -38)
1969/12/31/18:00:18.503,(-8 18 15 -1 -10 45 -5 -14)
1969/12/31/18:00:18.503,(-9 -11 4 0 -17 24 -22 -21)
1969/12/31/18:00:18.524,(-2 -2 -9 -1 -13 19 -10 -6)
1969/12/31/18:00:18.524,(-2 -5 -1 -1 -15 11 -16 -8)
1969/12/31/18:00:18.526,(12 18 10 5 -6 13 -7 -2)
1969/12/31/18:00:18.526,(-12 -37 -21 -15 -19 7 -13 -10)
1969/12/31/18:00:18.537,(-4 12 -6 -10 -7 6 -10 -4)
1969/12/31/18:00:18.537,(3 30 3 7 1 16 -10 -9)
1969/12/31/18:00:18.546,(-7 -24 0 -4 -10 10 -2 -3)
1969/12/31/18:00:18.546,(9 14 5 10 -3 0 -2 7)
1969/12/31/18:00:18.562,(0 -17 -10 2 -1 5 -3 -4)
1969/12/31/18:00:18.562,(-3 -13 -8 2 0 5 -4 -1)
1969/12/31/18:00:18.563,(1 -8 -9 -1 -4 3 3 7)
1969/12/31/18:00:18.564,(-4 -2 -15 -15 -1 3 -7 -11)
1969/12/31/18:00:18.584,(-21 1 9 -3 7 22 -10 -21)
1969/12/31/18:00:18.585,(-1 -17 1 -1 -6 11 -9 -7)
1969/12/31/18:00:18.586,(16 -4 -7 4 -6 -7 6 10)
1969/12/31/18:00:18.586,(20 -6 -1 8 -6 -25 12 24)
1969/12/31/18:00:18.597,(8 -6 -10 5 2 -24 7 16)
1969/12/31/18:00:18.597,(0 -7 0 -4 6 -13 2 2)
1969/12/31/18:00:18.606,(-9 1 3 -3 3 -10 -2 -8)
1969/12/31/18:00:18.606,(3 21 13 6 6 -1 2 0)
1969/12/31/18:00:18.629,(3 -4 -2 1 0 -3 2 1)
1969/12/31/18:00:18.629,(0 -2 -6 -6 -4 -7 3 4)
1969/12/31/18:00:18.631,(-4 -9 -6 -4 1 -3 -1 -2)
1969/12/31/18:00:18.631,(1 7 2 -2 3 5 1 -2)
1969/12/31/18:00:18.644,(3 2 6 5 1 0 3 3)
1969/12/31/18:00:18.644,(-3 -10 -4 -2 -3 -5 -1 1)
1969/12/31/18:00:18.645,(0 -1 -6 -2 -1 -6 -1 0)
1969/12/31/18:00:18.645,(2 -1 -1 -1 -3 -10 -1 3)
1969/12/31/18:00:18.657,(-1 -10 -9 -4 0 -4 8 7)
1969/12/31/18:00:18.657,(-3 9 -7 -4 3 -1 -4 -5)
1969/12/31/18:00:18.672,(0 2 6 8 5 3 1 -2)
1969/12/31/18:00:18.672,(0 2 0 1 3 0 2 2)
1969/12/31/18:00:18.681,(-3 -5 -2 0 -1 -3 -2 -7)
1969/12/31/18:00:18.681,(-6 -9 -5 -8 -3 2 1 -2)
1969/12/31/18:00:18.683,(-2 5 2 0 -1 -1 -5 -5)
1969/12/31/18:00:18.683,(-2 -1 -5 -6 -2 1 1 0)
1969/12/31/18:00:18.712,(-1 -1 3 4 3 6 -3 -1)
1969/12/31/18:00:18.712,(-2 -3 2 0 -1 3 -1 -3)
1969/12/31/18:00:18.714,(0 0 -1 -4 -2 0 -3 -5)
1969/12/31/18:00:18.714,(1 -3 -3 -3 -1 2 0 -4)
1969/12/31/18:00:18.717,(-1 1 0 1 -1 -3 -3 1)
1969/12/31/18:00:18.717,(-1 -2 3 3 0 -2 -2 -2)
1969/12/31/18:00:18.742,(0 0 -10 -11 -6 -3 -4 -3)
1969/12/31/18:00:18.742,(3 6 1 1 2 1 1 2)
1969/12/31/18:00:18.743,(-4 -6 -6 -2 -2 -3 1 0)
1969/12/31/18:00:18.743,(-3 -2 -1 -3 -4 -5 -2 -2)
1969/12/31/18:00:18.744,(0 -4 -2 -1 1 3 3 4)
1969/12/31/18:00:18.744,(2 -1 1 1 -2 -1 2 2)
1969/12/31/18:00:18.764,(1 6 0 1 -1 0 1 0)
1969/12/31/18:00:18.764,(-7 -12 -10 -7 -4 0 -3 -4)
1969/12/31/18:00:18.766,(-2 -4 -2 0 1 1 0 0)
1969/12/31/18:00:18.766,(0 7 2 -2 -3 -5 -6 -3)
1969/12/31/18:00:18.786,(-2 -8 -3 -1 -1 -2 -4 -3)
1969/12/31/18:00:18.786,(-2 1 5 0 1 1 1 -2)
1969/12/31/18:00:18.788,(-4 -2 -6 -6 -5 -4 -3 -3)
1969/12/31/18:00:18.788,(-5 -7 -5 -3 -1 0 4 4)
1969/12/31/18:00:18.801,(-1 3 2 -1 -1 -2 -7 -4)
1969/12/31/18:00:18.801,(0 1 1 3 0 2 -2 -1)
1969/12/31/18:00:18.815,(0 1 3 1 1 -1 -1 -1)
1969/12/31/18:00:18.815,(-3 -6 -1 -2 -1 -1 -4 -3)
1969/12/31/18:00:18.823,(1 2 4 3 1 -2 -1 1)
1969/12/31/18:00:18.823,(-1 1 -1 -1 0 4 3 2)
1969/12/31/18:00:18.838,(-2 -3 -2 -3 -1 1 0 -1)
1969/12/31/18:00:18.838,(-1 0 1 2 -1 1 -1 0)
1969/12/31/18:00:18.846,(1 3 7 2 2 0 0 2)
1969/12/31/18:00:18.846,(3 2 2 1 -1 0 -2 -1)
1969/12/31/18:00:18.861,(-3 -3 -5 -2 -1 0 0 -3)
1969/12/31/18:00:18.861,(-2 -7 -5 -1 -1 0 -1 -3)
1969/12/31/18:00:18.868,(0 1 -2 -3 -2 -1 -1 -2)
1969/12/31/18:00:18.868,(0 -3 -5 -1 -2 -1 0 0)
1969/12/31/18:00:18.884,(-2 -1 3 2 1 -1 -2 1)
1969/12/31/18:00:18.884,(-2 -2 -6 -5 -3 -3 -2 -4)
1969/12/31/18:00:18.885,(-2 0 -1 -1 -2 -1 0 -1)
1969/12/31/18:00:18.885,(0 3 2 2 0 -1 -3 0)
1969/12/31/18:00:18.887,(1 -2 8 4 0 0 -1 0)
1969/12/31/18:00:18.887,(1 0 0 3 0 1 -1 0)
1969/12/31/18:00:18.897,(0 4 0 -1 0 2 0 1)
1969/12/31/18:00:18.897,(-1 -1 -2 0 -2 -1 -1 -2)
1969/12/31/18:00:18.912,(1 -1 -3 0 0 -2 -1 -1)
1969/12/31/18:00:18.912,(0 3 5 -2 -1 -2 1 1)
1969/12/31/18:00:18.936,(-1 -7 -6 -5 -2 -2 -1 -3)
1969/12/31/18:00:18.936,(2 7 4 3 -1 -4 -3 -1)
1969/12/31/18:00:18.938,(-2 -3 1 1 -2 0 1 -2)
1969/12/31/18:00:18.938,(-3 -2 -2 0 -1 0 -1 -2)
1969/12/31/18:00:18.944,(-3 0 -1 1 1 0 -1 -1)
1969/12/31/18:00:18.944,(-4 -4 -4 -4 -1 2 -3 -2)
1969/12/31/18:00:18.946,(-4 -2 -4 -3 -2 3 -2 -3)
1969/12/31/18:00:18.946,(-2 -1 -1 -4 0 1 -3 -3)
1969/12/31/18:00:18.974,(-3 -1 0 2 -2 4 -2 -3)
1969/12/31/18:00:18.974,(-3 0 3 1 2 3 -2 -3)
1969/12/31/18:00:18.984,(-1 8 2 -3 1 8 -3 -5)
1969/12/31/18:00:18.984,(-7 -2 7 2 -1 8 -5 -9)
1969/12/31/18:00:18.984,(-1 1 -1 -2 -5 7 -3 -3)
1969/12/31/18:00:18.984,(1 -6 -7 -2 -6 1 -4 -1)
1969/12/31/18:00:18.995,(6 -2 -3 0 -5 -6 0 6)
1969/12/31/18:00:18.995,(6 -5 -10 -2 -2 -9 1 7)
1969/12/31/18:00:19.004,(6 -3 -2 5 3 -9 5 8)
1969/12/31/18:00:19.004,(0 -4 -4 2 2 -9 4 3)
1969/12/31/18:00:19.006,(-1 -3 -2 0 1 -9 0 0)
1969/12/31/18:00:19.006,(3 0 -1 3 5 -3 5 5)
1969/12/31/18:00:19.027,(0 0 -1 1 1 -7 1 -1)
1969/12/31/18:00:19.027,(1 -2 -4 -5 0 -6 1 2)
1969/12/31/18:00:19.029,(1 -3 0 0 0 -6 3 3)
1969/12/31/18:00:19.029,(1 -5 -5 -3 1 -8 2 -1)
1969/12/31/18:00:19.041,(1 -1 4 1 4 -7 2 0)
1969/12/31/18:00:19.041,(1 6 1 -1 2 -6 2 0)
1969/12/31/18:00:19.043,(-3 -4 -4 -4 0 -7 1 0)
1969/12/31/18:00:19.043,(0 6 2 1 1 -4 0 0)
1969/12/31/18:00:19.064,(0 -3 0 1 2 -1 2 0)
1969/12/31/18:00:19.064,(-3 -2 -2 -6 -5 -4 0 -2)
1969/12/31/18:00:19.066,(-4 -5 0 -1 -1 0 2 0)
1969/12/31/18:00:19.066,(-1 7 0 0 -1 -1 1 -2)
1969/12/31/18:00:19.094,(-3 1 1 -5 -2 0 -1 -4)
1969/12/31/18:00:19.094,(-4 -6 -1 -1 -2 1 -1 -3)
1969/12/31/18:00:19.095,(-1 2 -1 -2 -1 1 -1 -1)
1969/12/31/18:00:19.095,(-4 0 3 2 0 3 -2 -3)
1969/12/31/18:00:19.101,(-5 0 -3 -6 -3 6 -4 -6)
1969/12/31/18:00:19.101,(-5 1 2 -1 0 8 -4 -6)
1969/12/31/18:00:19.108,(-5 0 -4 -2 -4 7 -5 -6)
1969/12/31/18:00:19.108,(-2 2 1 -3 -3 5 -4 -5)
1969/12/31/18:00:19.124,(-2 -3 -4 0 -3 6 0 -1)
1969/12/31/18:00:19.124,(-1 -3 3 1 -1 5 -3 -2)
1969/12/31/18:00:19.126,(-2 2 -2 -3 -3 5 -5 -6)
1969/12/31/18:00:19.126,(1 -1 2 0 -4 3 -4 -2)
1969/12/31/18:00:19.154,(-1 -1 -1 1 -5 0 -4 -1)
1969/12/31/18:00:19.154,(1 -3 -7 -2 -4 1 -1 1)
1969/12/31/18:00:19.163,(1 -3 -2 3 -2 -2 -1 1)
1969/12/31/18:00:19.163,(1 3 5 5 1 -2 -1 2)
1969/12/31/18:00:19.164,(1 -2 -1 -1 1 -5 0 3)
1969/12/31/18:00:19.164,(2 -1 2 0 0 -4 0 0)
1969/12/31/18:00:19.167,(0 -2 -4 -1 1 -2 3 2)
1969/12/31/18:00:19.167,(-3 -7 -5 -3 1 -2 1 -1)
1969/12/31/18:00:19.199,(-1 6 3 -2 -3 -3 -1 0)
1969/12/31/18:00:19.199,(-1 -1 0 0 -1 -3 -1 0)
1969/12/31/18:00:19.200,(-1 0 2 0 -1 -2 0 0)
1969/12/31/18:00:19.200,(-1 -3 -3 -3 -1 -1 -1 -2)
1969/12/31/18:00:19.206,(-3 -3 -3 -2 1 1 -2 -2)
1969/12/31/18:00:19.206,(0 -1 -3 -1 0 0 -1 -1)
1969/12/31/18:00:19.208,(0 2 4 4 1 0 0 0)
1969/12/31/18:00:19.208,(0 0 0 -1 -2 -2 0 -2)
1969/12/31/18:00:19.221,(1 1 1 -1 -2 -2 0 0)
1969/12/31/18:00:19.221,(-1 -1 0 1 1 0 2 -1)
1969/12/31/18:00:19.235,(-1 -6 -4 -5 -2 -2 -1 -1)
1969/12/31/18:00:19.235,(-3 6 3 1 0 -1 -1 -1)
