time,.data
1969-12-31 18:00:05.926000000,(12 0 3 25 16 5 4 9)
1969-12-31 18:00:05.926000000,(-5 -4 -8 -11 -6 -7 -6 -2)
1969-12-31 18:00:05.933218976,(5 -1 2 -7 -4 2 2 6)
1969-12-31 18:00:05.933218976,(-11 -3 -1 -2 -2 -1 -2 -4)
1969-12-31 18:00:05.951266415,(-2 2 -1 15 5 -3 -4 -7)
1969-12-31 18:00:05.951266415,(3 -11 -1 -13 -5 -2 3 4)
1969-12-31 18:00:05.952469577,(8 8 0 3 3 1 -3 -6)
1969-12-31 18:00:05.952469577,(0 -6 -5 3 -3 -4 0 1)
1969-12-31 18:00:05.978939154,(5 3 -2 5 1 -2 2 0)
1969-12-31 18:00:05.978939154,(-5 -3 -2 -5 -6 -3 0 -1)
1969-12-31 18:00:05.978939154,(0 -2 -3 2 3 0 -1 3)
1969-12-31 18:00:05.978939154,(2 1 1 -7 -4 2 -2 -2)
1969-12-31 18:00:05.998189756,(-3 2 1 -1 1 4 1 -1)
1969-12-31 18:00:05.998189756,(-1 3 2 1 2 4 -2 -1)
1969-12-31 18:00:06.004205569,(-2 -2 -1 0 0 1 1 -2)
1969-12-31 18:00:06.005408732,(9 6 0 -12 -4 4 3 8)
1969-12-31 18:00:06.023456171,(-4 -4 1 8 3 -2 -4 -5)
1969-12-31 18:00:06.023456171,(2 2 -2 -2 -1 2 2 3)
1969-12-31 18:00:06.024659333,(-2 -4 2 2 -2 -2 -5 -7)
1969-12-31 18:00:06.024659333,(11 12 3 -3 6 9 8 6)
1969-12-31 18:00:06.052332072,(-31 -8 0 8 2 -2 -4 -11)
1969-12-31 18:00:06.052332072,(35 10 -1 -2 1 1 2 10)
1969-12-31 18:00:06.053535235,(-18 -6 0 -2 -2 -8 -8 -10)
1969-12-31 18:00:06.053535235,(3 -2 -5 -3 -1 -2 2 5)
1969-12-31 18:00:06.070379512,(-1 1 1 0 2 0 0 -1)
1969-12-31 18:00:06.070379512,(-7 -1 -3 -12 -7 -2 0 -2)
1969-12-31 18:00:06.076395325,(3 -4 -1 -2 -3 -3 -2 3)
1969-12-31 18:00:06.077598487,(-4 -1 3 12 -11 -3 -3 -4)
1969-12-31 18:00:06.095645926,(6 0 3 17 21 4 1 1)
1969-12-31 18:00:06.095645926,(-6 0 -4 -23 -20 -1 0 -1)
1969-12-31 18:00:06.096849089,(4 -2 -2 0 10 -2 -2 0)
1969-12-31 18:00:06.096849089,(-4 -4 2 -4 -6 1 1 -3)
1969-12-31 18:00:06.131740804,(10 2 -1 9 -3 -2 -1 2)
1969-12-31 18:00:06.131740804,(-2 -1 2 6 8 3 4 2)
1969-12-31 18:00:06.132943967,(-9 -3 -14 -46 -29 -10 -6 -7)
1969-12-31 18:00:06.132943967,(3 -5 -11 -20 -14 -7 -2 1)
1969-12-31 18:00:06.149788243,(2 2 13 43 24 7 1 -1)
1969-12-31 18:00:06.149788243,(-10 -1 21 49 21 3 -2 -4)
1969-12-31 18:00:06.150991406,(22 13 1 6 4 10 11 14)
1969-12-31 18:00:06.150991406,(-20 -11 -2 -17 -8 -9 -14 -22)
1969-12-31 18:00:06.177460983,(6 -5 -22 -69 -27 -7 -2 2)
1969-12-31 18:00:06.177460983,(-26 -9 -32 -67 -23 -7 -3 -5)
1969-12-31 18:00:06.178664145,(15 3 24 97 15 1 5 11)
1969-12-31 18:00:06.178664145,(-5 0 27 64 23 -2 -11 -10)
1969-12-31 18:00:06.203930560,(6 4 7 17 7 4 4 6)
1969-12-31 18:00:06.203930560,(0 7 -2 -16 7 7 3 2)
1969-12-31 18:00:06.205133723,(-10 -10 -16 -48 -9 1 1 -11)
1969-12-31 18:00:06.205133723,(30 15 -1 -11 0 7 9 16)
1969-12-31 18:00:06.221977999,(6 -7 -6 -10 -9 -6 -8 0)
1969-12-31 18:00:06.221977999,(13 4 -1 1 -2 -4 1 3)
1969-12-31 18:00:06.223181162,(-10 -3 6 -1 2 5 3 3)
1969-12-31 18:00:06.223181162,(-5 -3 3 9 10 4 0 -2)
1969-12-31 18:00:06.249650739,(8 3 -13 -28 -12 -3 3 5)
1969-12-31 18:00:06.249650739,(5 2 3 36 0 0 1 3)
1969-12-31 18:00:06.250853902,(-5 -2 6 -4 1 -4 -1 -1)
1969-12-31 18:00:06.250853902,(-6 -4 -20 -47 -22 -8 -2 -1)
1969-12-31 18:00:06.276120316,(7 8 36 102 24 10 6 9)
1969-12-31 18:00:06.276120316,(-8 -1 27 58 29 0 -8 -12)
1969-12-31 18:00:06.277323479,(-6 2 3 10 9 3 -3 -10)
1969-12-31 18:00:06.277323479,(24 -7 -20 -42 -5 0 8 17)
1969-12-31 18:00:06.294167755,(-38 -11 -28 -75 -24 -14 -17 -34)
1969-12-31 18:00:06.294167755,(-26 -12 -4 6 -12 -9 -7 -9)
1969-12-31 18:00:06.295370918,(7 7 0 -19 -12 -4 3 6)
1969-12-31 18:00:06.295370918,(24 8 -2 -2 1 1 -6 -4)
1969-12-31 18:00:06.321840495,(5 -2 -1 0 1 2 7 14)
1969-12-31 18:00:06.321840495,(9 0 4 2 9 6 1 -2)
1969-12-31 18:00:06.323043658,(-36 -16 -14 -30 -7 -8 -12 -19)
1969-12-31 18:00:06.323043658,(-8 -3 -7 -3 -4 5 11 7)
1969-12-31 18:00:06.348310072,(6 2 -3 4 -11 -3 0 1)
1969-12-31 18:00:06.348310072,(-6 -6 -18 -49 -14 -10 -9 -8)
1969-12-31 18:00:06.349513235,(19 11 38 91 21 8 8 15)
1969-12-31 18:00:06.349513235,(-11 8 39 95 35 3 -5 -10)
1969-12-31 18:00:06.366357511,(10 6 10 0 16 8 6 5)
1969-12-31 18:00:06.366357511,(0 -3 -16 -41 -30 -5 -2 1)
1969-12-31 18:00:06.367560674,(11 -2 -26 -47 -12 -2 4 11)
1969-12-31 18:00:06.367560674,(2 -2 -15 -35 -7 1 3 -1)
1969-12-31 18:00:06.394030251,(-18 -8 -9 -21 -10 -6 -7 -6)
1969-12-31 18:00:06.394030251,(-1 2 -3 -30 -1 5 6 1)
1969-12-31 18:00:06.395233414,(-3 -4 -6 0 -4 -7 -9 -7)
1969-12-31 18:00:06.395233414,(20 8 10 36 0 -8 -6 5)
1969-12-31 18:00:06.420499828,(-12 -6 -5 -18 -1 0 -2 -9)
1969-12-31 18:00:06.420499828,(2 0 12 32 0 -2 -4 -6)
1969-12-31 18:00:06.421702991,(13 3 7 1 -1 0 -2 3)
1969-12-31 18:00:06.421702991,(-40 -16 -7 -17 -3 -1 -4 -14)
1969-12-31 18:00:06.438547267,(46 13 -12 -36 -7 4 10 23)
1969-12-31 18:00:06.438547267,(-4 -10 -22 14 0 -5 -5 -5)
1969-12-31 18:00:06.439750430,(-11 3 25 50 33 4 -3 -8)
1969-12-31 18:00:06.439750430,(-8 2 19 47 -15 0 -3 -6)
1969-12-31 18:00:06.466220007,(5 5 24 65 7 -5 1 10)
1969-12-31 18:00:06.466220007,(-7 -2 -3 -21 5 3 -6 -14)
1969-12-31 18:00:06.467423169,(-3 2 -22 -40 -7 1 2 3)
1969-12-31 18:00:06.467423169,(-8 -6 -9 -22 -3 -6 -7 -6)
1969-12-31 18:00:06.492689584,(-22 -10 -11 -27 -12 -3 -1 -9)
1969-12-31 18:00:06.492689584,(22 2 7 14 6 5 12 20)
1969-12-31 18:00:06.493892747,(-2 -6 -8 -9 -3 -6 -5 -5)
1969-12-31 18:00:06.493892747,(4 -1 -14 -69 -49 -16 -1 3)
1969-12-31 18:00:06.510737023,(-5 -4 -8 13 -1 0 -3 -5)
1969-12-31 18:00:06.510737023,(7 6 23 58 44 14 5 13)
1969-12-31 18:00:06.511940186,(-19 3 22 43 43 22 -3 -25)
1969-12-31 18:00:06.511940186,(-42 -23 -2 -1 9 -7 -21 -19)
1969-12-31 18:00:06.548035064,(86 54 9 -8 -10 11 33 45)
1969-12-31 18:00:06.548035064,(-10 -15 -21 -61 -33 -7 14 7)
1969-12-31 18:00:06.549238226,(7 -4 -18 -28 -39 -10 2 12)
1969-12-31 18:00:06.549238226,(4 3 -1 25 19 5 1 -1)
1969-12-31 18:00:06.564879340,(-30 -13 7 24 10 -10 -37 -25)
1969-12-31 18:00:06.564879340,(-1 6 10 15 16 8 10 -3)
1969-12-31 18:00:06.566082503,(8 4 -5 -19 -10 2 8 9)
1969-12-31 18:00:06.566082503,(8 2 -8 -21 -4 3 11 9)
1969-12-31 18:00:06.582926779,(-16 -15 -22 -51 -41 -19 -10 -10)
1969-12-31 18:00:06.582926779,(9 7 -1 -4 -28 -9 -11 -3)
1969-12-31 18:00:06.584129942,(-6 -2 5 20 35 4 -6 -6)
1969-12-31 18:00:06.584129942,(14 10 23 72 50 20 9 10)
1969-12-31 18:00:06.610599519,(-24 -8 8 2 24 18 5 -13)
1969-12-31 18:00:06.610599519,(0 -3 -16 -25 -27 -12 -6 -3)
1969-12-31 18:00:06.610599519,(2 -7 -5 -31 -39 -12 3 9)
1969-12-31 18:00:06.610599519,(-12 5 11 37 8 -5 -5 -2)
1969-12-31 18:00:06.638272259,(-24 -7 5 13 11 0 -12 -32)
1969-12-31 18:00:06.638272259,(-3 -3 -9 -20 -3 -4 -8 -1)
1969-12-31 18:00:06.639475421,(7 2 -12 -20 -13 -8 0 2)
1969-12-31 18:00:06.639475421,(-5 -18 -16 -32 -6 0 6 10)
1969-12-31 18:00:06.664741836,(12 15 3 7 0 1 4 -5)
1969-12-31 18:00:06.664741836,(-12 -4 4 8 2 -2 -14 -7)
1969-12-31 18:00:06.665944998,(-5 -3 3 19 12 1 -1 -6)
1969-12-31 18:00:06.665944998,(5 2 -5 -37 -8 7 16 8)
1969-12-31 18:00:06.682789275,(7 0 0 24 3 5 7 14)
1969-12-31 18:00:06.682789275,(2 4 9 15 17 8 3 2)
1969-12-31 18:00:06.682789275,(-2 -2 -6 -27 -15 -9 -10 -6)
1969-12-31 18:00:06.682789275,(2 3 2 16 -11 -7 -5 -4)
1969-12-31 18:00:06.710462014,(-1 -4 1 1 1 2 2 2)
1969-12-31 18:00:06.710462014,(-18 -4 1 5 12 1 -4 -7)
1969-12-31 18:00:06.711665177,(27 14 11 20 2 3 6 16)
1969-12-31 18:00:06.711665177,(-7 6 7 -9 0 5 -1 -21)
1969-12-31 18:00:06.727306291,(-12 -3 -5 1 0 -4 -2 4)
1969-12-31 18:00:06.727306291,(5 -10 -5 -1 -11 -9 -7 1)
1969-12-31 18:00:06.728509453,(-9 -8 -16 -16 -5 -3 0 0)
1969-12-31 18:00:06.728509453,(22 9 -4 -17 -2 3 7 17)
1969-12-31 18:00:06.754979031,(-11 -10 -2 4 3 1 -3 -7)
1969-12-31 18:00:06.754979031,(1 6 -4 -7 3 5 10 2)
1969-12-31 18:00:06.756182193,(3 3 11 28 8 4 3 4)
1969-12-31 18:00:06.756182193,(-1 -2 4 20 7 1 -4 -1)
1969-12-31 18:00:06.782651770,(-5 -5 1 -11 -3 -4 -4 -1)
1969-12-31 18:00:06.782651770,(6 -2 -17 -61 -45 -18 -6 0)
1969-12-31 18:00:06.783854933,(-10 -3 -5 18 -3 -5 -4 -9)
1969-12-31 18:00:06.783854933,(-13 -6 -7 10 13 1 -6 -9)
1969-12-31 18:00:06.799496047,(23 6 18 32 46 18 14 19)
1969-12-31 18:00:06.799496047,(-5 7 24 52 29 14 1 -6)
1969-12-31 18:00:06.800699209,(-32 -8 -1 -17 -16 -1 -5 -12)
1969-12-31 18:00:06.800699209,(15 -1 -19 -40 -29 -16 -6 2)
1969-12-31 18:00:06.827168787,(-21 -11 -13 -15 -19 -11 -4 -5)
1969-12-31 18:00:06.827168787,(19 9 4 15 16 10 17 18)
1969-12-31 18:00:06.827168787,(13 -4 -10 -18 -10 -7 -6 -1)
1969-12-31 18:00:06.828371949,(-8 1 1 0 4 0 0 -2)
1969-12-31 18:00:06.854841526,(-16 -8 -2 -14 -8 -7 -9 -13)
1969-12-31 18:00:06.854841526,(1 0 2 11 4 7 6 7)
1969-12-31 18:00:06.856044689,(0 3 4 4 10 5 -1 -4)
1969-12-31 18:00:06.856044689,(26 9 1 -2 2 3 5 14)
1969-12-31 18:00:06.871685803,(4 6 4 18 2 5 6 4)
1969-12-31 18:00:06.871685803,(9 5 5 5 1 -3 1 2)
1969-12-31 18:00:06.872888965,(-7 -2 11 25 7 -1 -5 -9)
1969-12-31 18:00:06.872888965,(10 7 4 3 -2 -3 -6 -3)
1969-12-31 18:00:06.899358542,(-28 2 5 -7 3 8 7 -3)
1969-12-31 18:00:06.899358542,(2 -8 -10 -26 -4 -4 -4 -3)
1969-12-31 18:00:06.900561705,(5 -7 -14 3 -5 -2 1 7)
1969-12-31 18:00:06.900561705,(-32 -15 3 -11 0 -2 6 6)
1969-12-31 18:00:06.927031281,(22 14 -4 -9 -8 -5 -11 -12)
1969-12-31 18:00:06.927031281,(25 14 4 17 9 10 12 20)
1969-12-31 18:00:06.928234445,(-2 2 5 2 6 3 1 1)
1969-12-31 18:00:06.928234445,(-20 -19 -5 -1 -4 -1 -3 -4)
1969-12-31 18:00:06.943875559,(23 30 7 -2 -6 -11 -19 -17)
1969-12-31 18:00:06.943875559,(-25 -12 1 5 3 -1 -4 -15)
1969-12-31 18:00:06.945078721,(5 -5 -14 -18 -5 -1 1 -1)
1969-12-31 18:00:06.945078721,(5 -1 1 7 -2 -2 -7 -5)
1969-12-31 18:00:06.971548298,(-1 -12 -6 -4 -4 2 8 16)
1969-12-31 18:00:06.971548298,(-7 -2 2 -6 0 -3 -1 -2)
1969-12-31 18:00:06.972751461,(9 9 5 14 7 3 5 6)
1969-12-31 18:00:06.972751461,(-57 -35 -6 -13 -9 -8 -14 -31)
1969-12-31 18:00:06.999221038,(30 13 -11 -27 -2 5 8 13)
1969-12-31 18:00:06.999221038,(-15 0 0 22 -2 -7 -12 -14)
1969-12-31 18:00:07.000424201,(-21 -32 -5 -5 2 7 17 24)
1969-12-31 18:00:07.000424201,(62 30 12 18 7 6 2 1)
1969-12-31 18:00:07.016065315,(9 -4 12 3 -10 -12 -3 21)
1969-12-31 18:00:07.016065315,(-31 -15 -15 -29 0 2 -4 -25)
1969-12-31 18:00:07.025690615,(0 8 -5 -12 -2 -3 -5 -4)
1969-12-31 18:00:07.025690615,(-7 0 -12 -25 -9 3 2 -3)
1969-12-31 18:00:07.043738054,(-12 -14 4 26 3 -2 -2 -3)
1969-12-31 18:00:07.043738054,(18 5 3 30 9 1 2 10)
1969-12-31 18:00:07.043738054,(-4 7 33 53 17 1 -3 -10)
1969-12-31 18:00:07.044941217,(4 1 -18 -18 -17 4 10 15)
1969-12-31 18:00:07.071410794,(3 0 18 94 18 3 1 1)
1969-12-31 18:00:07.071410794,(-32 -11 9 -14 -1 -6 -9 -13)
1969-12-31 18:00:07.072613957,(29 14 -13 -3 2 -4 -9 -12)
1969-12-31 18:00:07.072613957,(7 11 -4 -42 -13 -8 -1 8)
1969-12-31 18:00:07.088255070,(-4 -8 -27 -58 -17 -2 2 -2)
1969-12-31 18:00:07.088255070,(1 -3 1 22 7 3 3 3)
1969-12-31 18:00:07.097880371,(9 -1 11 -4 6 -5 -7 0)
1969-12-31 18:00:07.097880371,(-31 -3 6 -8 -2 -1 -6 -23)
1969-12-31 18:00:07.115927810,(-5 -6 -12 10 -5 -2 0 2)
1969-12-31 18:00:07.115927810,(9 -5 -24 -69 1 -9 -7 -3)
1969-12-31 18:00:07.117130973,(0 3 15 64 -11 -1 -5 -4)
1969-12-31 18:00:07.117130973,(16 10 37 103 46 5 4 12)
1969-12-31 18:00:07.143600550,(-16 1 30 28 23 17 3 -12)
1969-12-31 18:00:07.143600550,(4 4 -27 -97 -34 -9 -1 -1)
1969-12-31 18:00:07.144803713,(-3 -5 -31 -16 -16 -7 0 4)
1969-12-31 18:00:07.144803713,(-13 -7 3 12 1 -2 -4 -10)
1969-12-31 18:00:07.160444826,(-13 -8 1 1 -1 -4 -6 -7)
1969-12-31 18:00:07.160444826,(28 15 7 53 12 0 1 15)
1969-12-31 18:00:07.170070127,(4 8 -5 -63 -9 6 8 2)
1969-12-31 18:00:07.170070127,(6 -1 13 39 6 4 2 0)
1969-12-31 18:00:07.188117566,(-4 -9 -13 -43 -7 -4 -3 -4)
1969-12-31 18:00:07.188117566,(-3 -1 12 34 2 -4 -4 -3)
1969-12-31 18:00:07.189320728,(-2 -5 -7 -24 -21 -5 -1 0)
1969-12-31 18:00:07.189320728,(2 3 3 2 15 4 3 5)
1969-12-31 18:00:07.215790306,(-7 -5 -1 -8 7 2 -2 -5)
1969-12-31 18:00:07.215790306,(10 0 1 25 6 1 3 9)
1969-12-31 18:00:07.216993469,(26 18 -6 -19 6 10 16 20)
1969-12-31 18:00:07.216993469,(-14 -9 -19 -42 -18 -9 -11 -17)
1969-12-31 18:00:07.242259883,(-12 -8 -7 -15 -17 -8 -6 -8)
1969-12-31 18:00:07.242259883,(8 -2 5 12 -5 -7 -2 4)
1969-12-31 18:00:07.243463046,(-9 16 16 3 23 24 23 11)
1969-12-31 18:00:07.243463046,(-4 -6 -9 -9 -6 -4 -4 -5)
1969-12-31 18:00:07.260307322,(-2 -2 -9 -5 -2 -6 -2 -2)
1969-12-31 18:00:07.260307322,(-12 -2 2 7 -3 0 -2 -5)
1969-12-31 18:00:07.261510485,(21 2 11 17 2 -3 0 14)
1969-12-31 18:00:07.261510485,(-13 -3 -3 2 0 -6 -11 -18)
1969-12-31 18:00:07.287980062,(-11 -6 -2 -1 -2 0 0 -6)
1969-12-31 18:00:07.287980062,(17 5 1 -11 -9 -7 -8 -1)
1969-12-31 18:00:07.289183224,(-12 -15 -14 -18 -4 -4 -5 -6)
1969-12-31 18:00:07.289183224,(7 8 0 2 0 6 11 12)
1969-12-31 18:00:07.314449639,(4 -8 -9 -29 -10 -8 -6 -3)
1969-12-31 18:00:07.314449639,(6 10 21 37 12 14 16 5)
1969-12-31 18:00:07.315652802,(-49 -24 -11 -5 -8 -14 -22 -33)
1969-12-31 18:00:07.315652802,(51 4 -10 -5 10 14 22 44)
1969-12-31 18:00:07.332497078,(-14 -8 3 1 -4 -2 -3 -9)
1969-12-31 18:00:07.332497078,(35 17 -2 -8 -6 2 6 7)
1969-12-31 18:00:07.333700241,(-11 -1 5 2 1 -7 -12 -16)
1969-12-31 18:00:07.333700241,(1 0 -3 -8 -1 3 8 9)
1969-12-31 18:00:07.360169818,(-18 0 -3 -6 -9 -12 -14 -16)
1969-12-31 18:00:07.360169818,(22 20 14 19 20 31 41 40)
1969-12-31 18:00:07.361372980,(-7 -10 -11 -7 -4 -8 -15 -15)
1969-12-31 18:00:07.361372980,(2 8 10 0 9 17 22 23)
1969-12-31 18:00:07.387842558,(36 9 -3 3 -1 -4 -2 5)
1969-12-31 18:00:07.387842558,(-11 -2 0 -5 -6 -8 -14 -13)
1969-12-31 18:00:07.387842558,(5 4 -1 -6 -2 -5 -3 -5)
1969-12-31 18:00:07.387842558,(-16 -6 -2 -7 -3 -5 -3 -1)
1969-12-31 18:00:07.404686834,(3 0 -1 5 -3 -2 -2 0)
1969-12-31 18:00:07.404686834,(-53 -55 -9 -4 0 2 8 2)
1969-12-31 18:00:07.405889997,(51 34 11 10 7 9 13 25)
1969-12-31 18:00:07.405889997,(-37 -26 -15 -7 -11 -13 -16 -21)
1969-12-31 18:00:07.432359574,(55 29 1 -3 5 7 10 16)
1969-12-31 18:00:07.432359574,(-22 -13 -14 -14 -17 -21 -33 -35)
1969-12-31 18:00:07.434765899,(-15 -1 7 4 1 -1 4 5)
1969-12-31 18:00:07.434765899,(6 -2 -9 -4 -1 -3 -2 0)
1969-12-31 18:00:07.460032313,(-15 -3 3 6 7 12 14 7)
1969-12-31 18:00:07.460032313,(1 9 -3 -2 -4 -2 -3 3)
1969-12-31 18:00:07.460032313,(-8 -13 -7 -5 -7 -3 -6 -11)
1969-12-31 18:00:07.460032313,(5 13 5 -3 -10 -16 -20 -18)
1969-12-31 18:00:07.476876590,(-40 -37 -16 -8 6 13 16 8)
1969-12-31 18:00:07.476876590,(61 40 13 21 11 8 7 13)
1969-12-31 18:00:07.478079752,(-7 -10 2 16 4 -1 1 7)
1969-12-31 18:00:07.478079752,(-38 -18 5 20 8 -2 -17 -31)
1969-12-31 18:00:07.504549330,(19 16 6 -1 1 7 13 20)
1969-12-31 18:00:07.504549330,(5 1 -4 -17 -5 -2 -5 -9)
1969-12-31 18:00:07.505752492,(14 6 -3 -13 -3 5 12 23)
1969-12-31 18:00:07.505752492,(-6 -4 -4 -13 -9 -8 -10 -13)
1969-12-31 18:00:07.532222069,(-18 -9 -6 1 3 0 0 -4)
1969-12-31 18:00:07.532222069,(-67 -40 -11 -6 -15 -19 -21 -31)
1969-12-31 18:00:07.532222069,(28 29 4 5 18 26 31 23)
1969-12-31 18:00:07.532222069,(7 1 0 -3 -7 -5 -4 2)
1969-12-31 18:00:07.549066346,(-6 0 4 1 -3 -4 -5 -4)
1969-12-31 18:00:07.549066346,(0 5 5 5 -6 -9 -12 -10)
1969-12-31 18:00:07.550269508,(-21 -22 -7 -8 -7 -8 -11 -10)
1969-12-31 18:00:07.550269508,(12 -4 -10 1 15 20 22 14)
1969-12-31 18:00:07.576739086,(-8 1 4 7 7 3 -5 -12)
1969-12-31 18:00:07.576739086,(47 23 5 2 1 2 8 17)
1969-12-31 18:00:07.577942248,(-40 -21 -4 -6 -10 -16 -20 -29)
1969-12-31 18:00:07.577942248,(57 21 9 0 1 7 25 44)
1969-12-31 18:00:07.603208663,(-22 -35 -6 0 0 -7 -4 10)
1969-12-31 18:00:07.603208663,(19 11 -6 -4 -2 -12 -24 -23)
1969-12-31 18:00:07.605614988,(7 20 10 4 3 5 4 -2)
1969-12-31 18:00:07.605614988,(-5 0 -2 -1 -5 -4 -4 -3)
1969-12-31 18:00:07.620052939,(19 7 -2 1 0 3 5 7)
1969-12-31 18:00:07.620052939,(-23 -12 -2 -2 3 7 11 8)
1969-12-31 18:00:07.630881403,(1 -11 -29 -95 -37 -15 -8 0)
1969-12-31 18:00:07.630881403,(-10 -6 -10 15 3 -9 -15 -21)
1969-12-31 18:00:07.648928842,(13 22 32 57 4 11 10 11)
1969-12-31 18:00:07.648928842,(-17 -2 21 57 26 8 -2 -7)
1969-12-31 18:00:07.651335167,(-17 -10 13 25 3 -7 -14 -17)
1969-12-31 18:00:07.651335167,(38 24 -10 -33 -6 -2 5 16)
1969-12-31 18:00:07.677804744,(-1 -1 -17 -36 -6 0 0 -5)
1969-12-31 18:00:07.677804744,(35 19 -6 -17 -11 -1 11 22)
1969-12-31 18:00:07.680211069,(54 22 7 8 8 9 16 40)
1969-12-31 18:00:07.680211069,(-15 7 -2 -11 -10 -15 -27 -40)
1969-12-31 18:00:07.692242695,(21 5 -2 3 0 -4 -2 9)
1969-12-31 18:00:07.692242695,(0 -3 1 -8 -3 -2 3 4)
1969-12-31 18:00:07.703071158,(-18 -22 -8 9 4 -3 -6 -8)
1969-12-31 18:00:07.703071158,(7 7 3 9 11 18 18 14)
1969-12-31 18:00:07.721118597,(2 9 3 -2 -2 -3 -6 -6)
1969-12-31 18:00:07.721118597,(-36 -23 -7 -14 -3 -2 -4 -8)
1969-12-31 18:00:07.723524923,(7 14 2 10 4 3 -2 -12)
1969-12-31 18:00:07.723524923,(-15 -14 2 -4 -4 2 -1 -1)
1969-12-31 18:00:07.747588175,(-17 -8 -10 -13 -8 -3 -5 -15)
1969-12-31 18:00:07.747588175,(-34 -24 -1 7 5 -5 -10 -16)
1969-12-31 18:00:07.749994500,(59 34 8 27 23 22 26 37)
1969-12-31 18:00:07.749994500,(-24 -5 -19 -66 -19 -10 -10 -20)
1969-12-31 18:00:07.764432451,(4 -4 -3 -14 -34 -18 -10 -2)
1969-12-31 18:00:07.764432451,(-19 5 31 72 23 3 -3 -7)
1969-12-31 18:00:07.775260914,(22 8 12 51 39 14 2 6)
1969-12-31 18:00:07.775260914,(-14 -2 12 23 29 13 1 2)
1969-12-31 18:00:07.793308353,(22 9 -16 -37 -3 0 -2 -6)
1969-12-31 18:00:07.793308353,(-27 -36 -38 -61 -45 -27 -26 -24)
1969-12-31 18:00:07.795714679,(-25 -1 4 -5 -8 3 12 -2)
1969-12-31 18:00:07.795714679,(14 2 0 -1 0 4 13 24)
1969-12-31 18:00:07.820981093,(-24 -13 -4 0 -2 -6 -8 -15)
1969-12-31 18:00:07.820981093,(53 31 3 -1 -1 6 21 48)
1969-12-31 18:00:07.822184256,(-45 -25 -11 -11 -20 -31 -45 -54)
1969-12-31 18:00:07.822184256,(-18 -10 -2 4 -7 -5 -5 -11)
1969-12-31 18:00:07.836622207,(4 7 15 16 11 6 5 6)
1969-12-31 18:00:07.836622207,(16 14 -1 -2 6 12 16 15)
1969-12-31 18:00:07.847450670,(-3 -13 -7 -13 -5 0 2 0)
1969-12-31 18:00:07.847450670,(-13 -7 7 15 0 2 2 -2)
1969-12-31 18:00:07.865498109,(-8 -8 -3 1 -2 -12 -15 -11)
1969-12-31 18:00:07.865498109,(6 6 1 0 6 7 7 6)
1969-12-31 18:00:07.867904435,(-10 -9 -10 -4 -5 -3 1 4)
1969-12-31 18:00:07.867904435,(-12 2 13 30 7 5 0 -8)
1969-12-31 18:00:07.893170849,(-83 -58 -6 -2 -2 -13 -18 -28)
1969-12-31 18:00:07.893170849,(-17 29 13 -7 14 31 27 21)
1969-12-31 18:00:07.894374012,(-44 -21 -5 -8 -16 -18 -25 -27)
1969-12-31 18:00:07.894374012,(5 16 3 1 -2 -3 3 6)
1969-12-31 18:00:07.910015125,(4 4 3 4 12 16 24 16)
1969-12-31 18:00:07.910015125,(-15 -13 -8 -10 -6 -9 -12 -17)
1969-12-31 18:00:07.918437264,(8 4 2 -2 -1 1 3 3)
1969-12-31 18:00:07.918437264,(18 1 3 -7 -5 -3 1 6)
1969-12-31 18:00:07.937687865,(24 20 -2 2 7 3 3 4)
1969-12-31 18:00:07.937687865,(0 -11 -12 -25 -15 -7 -6 -8)
1969-12-31 18:00:07.940094190,(3 0 14 27 3 1 3 8)
1969-12-31 18:00:07.940094190,(-23 -2 8 26 14 6 1 -13)
1969-12-31 18:00:07.965360605,(9 10 7 10 2 2 4 12)
1969-12-31 18:00:07.965360605,(-34 -37 -19 -9 -1 -7 -11 -11)
1969-12-31 18:00:07.966563768,(-9 -1 5 -19 4 17 14 -10)
1969-12-31 18:00:07.966563768,(4 -4 -3 -12 -7 -7 -5 -1)
1969-12-31 18:00:07.981001719,(-2 -1 -4 3 -9 -8 -11 -8)
1969-12-31 18:00:07.981001719,(-7 -7 1 0 0 -3 -3 -6)
1969-12-31 18:00:07.991830182,(-2 -1 -7 -5 -1 9 18 14)
1969-12-31 18:00:07.991830182,(-8 -9 -5 0 -5 -16 -21 -17)
1969-12-31 18:00:08.008674459,(14 11 3 -4 4 4 3 5)
1969-12-31 18:00:08.008674459,(9 -1 -5 -5 -1 0 2 1)
1969-12-31 18:00:08.019502922,(-7 -5 -3 6 -1 -2 -5 -7)
1969-12-31 18:00:08.019502922,(17 8 2 -4 2 5 10 18)
1969-12-31 18:00:08.037550361,(8 2 -6 -27 -10 -6 -9 -3)
1969-12-31 18:00:08.037550361,(4 6 2 4 -15 -8 -4 -6)
1969-12-31 18:00:08.038753524,(3 -1 -17 -42 -29 -20 -5 4)
1969-12-31 18:00:08.038753524,(-2 -10 -8 11 12 5 5 4)
1969-12-31 18:00:08.053191475,(12 15 33 67 60 23 8 6)
1969-12-31 18:00:08.053191475,(-3 3 25 59 48 25 3 -6)
1969-12-31 18:00:08.064019938,(15 8 4 2 11 12 9 13)
1969-12-31 18:00:08.064019938,(1 -6 -12 -40 -42 -18 -11 -6)
1969-12-31 18:00:08.082067377,(-8 -7 -19 -22 -29 -16 -4 -6)
1969-12-31 18:00:08.082067377,(27 16 -5 -24 -3 0 7 16)
1969-12-31 18:00:08.084473702,(-63 -42 -6 1 -17 -15 -15 -21)
1969-12-31 18:00:08.084473702,(19 20 2 -14 -7 -3 1 1)
1969-12-31 18:00:08.108536954,(4 6 5 3 0 0 -4 1)
1969-12-31 18:00:08.108536954,(-3 -3 -6 -7 -8 -12 -13 -13)
1969-12-31 18:00:08.110943279,(17 25 -1 -5 1 -6 -8 -7)
1969-12-31 18:00:08.110943279,(-9 -20 -8 3 0 -5 -8 2)
1969-12-31 18:00:08.125381231,(3 1 0 0 1 3 6 3)
1969-12-31 18:00:08.125381231,(4 -3 -2 -7 -9 -4 -3 1)
1969-12-31 18:00:08.136209694,(-4 3 3 6 6 1 -1 -4)
1969-12-31 18:00:08.136209694,(0 4 6 12 10 6 3 3)
1969-12-31 18:00:08.154257133,(11 6 -2 -6 -2 -2 -1 3)
1969-12-31 18:00:08.154257133,(-11 -6 -4 -14 -9 -1 1 -3)
1969-12-31 18:00:08.156663458,(-20 -34 -2 5 0 -7 -5 0)
1969-12-31 18:00:08.156663458,(5 27 15 23 18 21 20 4)
1969-12-31 18:00:08.180726710,(-11 -10 -4 -14 -9 -8 -5 -6)
1969-12-31 18:00:08.181929872,(2 4 5 3 -1 -1 1 2)
1969-12-31 18:00:08.183133035,(-3 -11 -4 2 6 3 -2 -2)
1969-12-31 18:00:08.183133035,(15 4 0 -6 3 6 9 10)
1969-12-31 18:00:08.197570987,(-9 -7 -7 -7 -10 -5 -3 -5)
1969-12-31 18:00:08.197570987,(-12 -7 -4 -9 6 -3 -5 -11)
1969-12-31 18:00:08.208399450,(35 30 9 16 3 13 17 25)
1969-12-31 18:00:08.208399450,(-16 -19 -4 2 -8 -9 -7 -8)
1969-12-31 18:00:08.226446889,(10 5 3 6 7 7 10 12)
1969-12-31 18:00:08.226446889,(-2 -5 -3 -4 -4 -8 -8 -9)
1969-12-31 18:00:08.228853214,(-11 -13 -10 -10 -4 -9 -13 -16)
1969-12-31 18:00:08.228853214,(4 -5 -3 -2 -2 -2 -3 -2)
1969-12-31 18:00:08.255322791,(69 73 27 13 18 32 59 83)
1969-12-31 18:00:08.255322791,(-69 -25 -4 -3 -8 -12 -20 -39)
1969-12-31 18:00:08.257729117,(-18 -1 -1 -1 -2 -5 -8 -13)
1969-12-31 18:00:08.257729117,(11 8 3 -2 -4 -2 1 4)
1969-12-31 18:00:08.269760743,(-4 -16 -8 -3 -5 -3 -8 -7)
1969-12-31 18:00:08.269760743,(16 6 1 5 -1 2 6 9)
1969-12-31 18:00:08.280589206,(31 22 -8 -30 -3 5 11 17)
1969-12-31 18:00:08.280589206,(-17 -17 -4 6 -10 -11 -14 -13)
1969-12-31 18:00:08.297433482,(-10 -10 -4 -33 -13 -1 -7 -13)
1969-12-31 18:00:08.297433482,(9 10 13 47 17 7 6 7)
1969-12-31 18:00:08.305855620,(-11 -7 11 -7 -28 -16 -11 -13)
1969-12-31 18:00:08.305855620,(-4 2 11 17 18 4 0 1)
1969-12-31 18:00:08.325106222,(-15 -11 -10 33 30 2 -10 -18)
1969-12-31 18:00:08.325106222,(4 -9 -21 -41 8 5 -1 -2)
1969-12-31 18:00:08.334731523,(10 6 -4 23 15 8 8 7)
1969-12-31 18:00:08.334731523,(4 9 26 53 -13 4 7 8)
1969-12-31 18:00:08.341950498,(-12 -3 -1 6 -14 -17 -18 -21)
1969-12-31 18:00:08.341950498,(-7 -12 -9 -5 -9 -8 -4 -3)
1969-12-31 18:00:08.352778962,(0 -3 -9 -30 -3 -6 0 0)
1969-12-31 18:00:08.352778962,(-5 2 -15 -80 -22 -3 -1 1)
1969-12-31 18:00:08.369623238,(-6 -1 15 24 5 8 0 -6)
1969-12-31 18:00:08.369623238,(17 11 -1 -7 1 6 9 15)
1969-12-31 18:00:08.378045376,(5 10 28 19 9 11 6 6)
1969-12-31 18:00:08.378045376,(4 -2 -14 11 7 0 1 -1)
1969-12-31 18:00:08.398499141,(-13 -29 -58 -86 -36 -22 -11 -7)
1969-12-31 18:00:08.398499141,(-9 -4 13 44 -7 -12 -8 -7)
1969-12-31 18:00:08.399702303,(-4 1 0 14 13 -1 -6 -5)
1969-12-31 18:00:08.399702303,(-9 -3 18 33 16 6 -2 -6)
1969-12-31 18:00:08.414140254,(1 7 10 -12 1 8 6 2)
1969-12-31 18:00:08.414140254,(10 5 -1 -14 -6 4 9 9)
1969-12-31 18:00:08.424968718,(-4 -2 10 19 4 2 -3 -6)
1969-12-31 18:00:08.424968718,(-1 -4 -13 -8 3 -3 -2 -1)
1969-12-31 18:00:08.441812994,(-10 -9 -7 -3 -4 -3 -6 -8)
1969-12-31 18:00:08.441812994,(10 10 5 -8 -5 5 7 8)
1969-12-31 18:00:08.450235132,(5 4 3 5 3 4 4 3)
1969-12-31 18:00:08.450235132,(-3 0 -11 -56 -12 -1 -1 1)
1969-12-31 18:00:08.470688897,(0 0 8 52 9 0 -1 0)
1969-12-31 18:00:08.470688897,(0 0 1 5 7 1 -3 -1)
1969-12-31 18:00:08.471892059,(-6 -10 -24 -8 -2 -10 -5 -2)
1969-12-31 18:00:08.471892059,(-5 -2 8 5 -18 -7 -3 -3)
1969-12-31 18:00:08.486330010,(-6 0 11 17 -3 -2 -3 -7)
1969-12-31 18:00:08.486330010,(3 1 7 11 6 7 3 4)
1969-12-31 18:00:08.506783774,(-1 -9 -42 -82 -13 -3 -3 0)
1969-12-31 18:00:08.506783774,(0 -6 -3 51 11 -3 0 1)
1969-12-31 18:00:08.514002750,(-8 1 22 34 12 -5 -8 -8)
1969-12-31 18:00:08.514002750,(6 6 9 11 2 3 2 2)
1969-12-31 18:00:08.522424888,(5 6 7 -13 -5 9 9 6)
1969-12-31 18:00:08.522424888,(0 -3 -18 -32 -4 2 2 1)
1969-12-31 18:00:08.542878652,(2 -4 -6 -19 -10 -1 0 0)
1969-12-31 18:00:08.542878652,(-5 1 -2 -7 -5 -7 -6 -5)
1969-12-31 18:00:08.544081815,(4 11 29 -3 1 11 9 3)
1969-12-31 18:00:08.544081815,(1 -9 -25 25 15 2 1 -1)
1969-12-31 18:00:08.558519766,(-8 -15 -34 -45 -22 -17 -10 -5)
1969-12-31 18:00:08.558519766,(-7 -9 -18 -17 -21 -14 -8 -7)
1969-12-31 18:00:08.570551392,(-4 -1 12 24 12 -1 -3 -3)
1969-12-31 18:00:08.570551392,(4 13 34 29 9 7 5 4)
1969-12-31 18:00:08.586192506,(6 14 43 42 21 15 7 4)
1969-12-31 18:00:08.586192506,(11 11 9 -89 -31 9 9 7)
1969-12-31 18:00:08.594614644,(9 -8 -55 26 2 -6 -1 4)
1969-12-31 18:00:08.594614644,(-15 -14 -10 4 13 -3 -9 -10)
1969-12-31 18:00:08.613865246,(-9 -7 6 32 9 -2 -7 -8)
1969-12-31 18:00:08.615068408,(-2 13 26 5 10 14 6 2)
1969-12-31 18:00:08.616271571,(9 13 18 16 0 10 5 5)
1969-12-31 18:00:08.616271571,(-2 -15 -39 -62 -26 -20 -10 -2)
1969-12-31 18:00:08.641537986,(-7 -6 -13 -46 -20 -8 -3 -6)
1969-12-31 18:00:08.641537986,(2 2 -3 7 -2 -1 0 -1)
1969-12-31 18:00:08.643944311,(0 0 10 -12 -1 9 4 4)
1969-12-31 18:00:08.643944311,(1 8 12 7 14 6 2 -2)
1969-12-31 18:00:08.658382262,(4 -4 0 67 19 0 2 3)
1969-12-31 18:00:08.658382262,(-5 -1 -4 5 14 10 4 -2)
1969-12-31 18:00:08.669210725,(2 3 24 10 0 -11 -6 -1)
1969-12-31 18:00:08.669210725,(-2 6 7 -12 -10 -1 -3 -3)
1969-12-31 18:00:08.687258164,(-7 -11 -27 -29 0 -2 -3 -5)
1969-12-31 18:00:08.687258164,(8 -7 -30 -23 -16 -11 0 5)
1969-12-31 18:00:08.688461327,(-4 -1 4 -11 -7 -5 -3 -3)
1969-12-31 18:00:08.688461327,(2 8 16 17 5 3 0 -2)
1969-12-31 18:00:08.713727741,(6 11 13 0 8 11 7 3)
1969-12-31 18:00:08.713727741,(1 0 0 32 13 5 1 3)
1969-12-31 18:00:08.716134067,(-8 -9 -8 -5 -4 -2 -4 -4)
1969-12-31 18:00:08.716134067,(3 7 18 -3 -6 -2 1 2)
1969-12-31 18:00:08.730572018,(-7 -3 -6 -10 -4 4 1 -2)
1969-12-31 18:00:08.730572018,(-2 -9 -13 8 9 -5 0 1)
1969-12-31 18:00:08.741400481,(-5 5 13 2 -7 -4 -5 -5)
1969-12-31 18:00:08.741400481,(-6 -14 -20 6 6 -3 -2 -2)
1969-12-31 18:00:08.758244758,(2 1 8 -11 -4 3 2 4)
1969-12-31 18:00:08.758244758,(-1 2 3 -2 -9 -8 -5 -2)
1969-12-31 18:00:08.766666896,(1 -2 -11 -21 -19 -9 -2 -3)
1969-12-31 18:00:08.766666896,(-2 -1 9 47 22 2 -1 0)
1969-12-31 18:00:08.785917497,(0 3 -1 -1 0 3 1 0)
1969-12-31 18:00:08.785917497,(-1 -2 8 19 10 2 1 -1)
1969-12-31 18:00:08.788323823,(1 -1 0 13 5 0 0 1)
1969-12-31 18:00:08.788323823,(1 -2 -11 -38 -19 -4 5 2)
1969-12-31 18:00:08.802761774,(-3 -1 -2 -13 -8 -5 -1 -4)
1969-12-31 18:00:08.802761774,(-5 -4 0 10 5 4 -1 -1)
1969-12-31 18:00:08.813590237,(0 -2 -7 -20 -8 -3 -2 4)
1969-12-31 18:00:08.813590237,(-4 4 15 19 1 1 -2 -2)
1969-12-31 18:00:08.830434514,(16 15 10 12 9 3 3 9)
1969-12-31 18:00:08.830434514,(-3 -2 -8 -18 -3 -1 0 0)
1969-12-31 18:00:08.838856652,(4 0 1 27 15 8 4 3)
1969-12-31 18:00:08.838856652,(-13 -11 -3 -25 -12 -2 -6 -9)
1969-12-31 18:00:08.858107253,(7 10 3 -2 8 3 3 4)
1969-12-31 18:00:08.858107253,(-6 -6 0 -14 -8 -3 -3 -5)
1969-12-31 18:00:08.860513579,(-1 -2 -2 27 11 0 0 -1)
1969-12-31 18:00:08.860513579,(2 5 3 -7 -7 0 2 5)
1969-12-31 18:00:08.884576831,(-7 -3 1 -7 -5 -7 -4 -4)
1969-12-31 18:00:08.884576831,(1 -4 -4 18 7 -2 -1 -1)
1969-12-31 18:00:08.886983156,(-11 -7 -7 -12 -17 -10 -5 -9)
1969-12-31 18:00:08.886983156,(1 3 2 -18 19 2 -1 -2)
1969-12-31 18:00:08.903827432,(9 -1 -8 17 -8 0 0 7)
1969-12-31 18:00:08.903827432,(-1 0 3 21 21 1 -2 -2)
1969-12-31 18:00:08.906233757,(1 5 2 2 -6 0 2 1)
1969-12-31 18:00:08.906233757,(3 -6 -10 -7 -6 -1 1 0)
1969-12-31 18:00:08.930297009,(-7 -6 -12 -45 -15 -4 -3 -5)
1969-12-31 18:00:08.930297009,(2 3 -1 1 -12 -3 1 3)
1969-12-31 18:00:08.932703334,(-1 1 6 11 14 -1 -3 -1)
1969-12-31 18:00:08.932703334,(-1 2 3 -1 -7 -2 -1 -2)
1969-12-31 18:00:08.947141286,(-1 -4 3 22 7 0 0 -3)
1969-12-31 18:00:08.947141286,(2 0 -2 4 -4 -1 1 0)
1969-12-31 18:00:08.957969749,(-2 -3 -8 -5 2 1 0 1)
1969-12-31 18:00:08.957969749,(4 1 -1 -5 -4 0 -1 2)
1969-12-31 18:00:08.976017188,(-9 -7 -6 -9 -6 -6 -5 -5)
1969-12-31 18:00:08.976017188,(0 2 7 -8 -17 -6 -1 -2)
1969-12-31 18:00:08.977220351,(0 1 1 21 23 6 1 0)
1969-12-31 18:00:08.977220351,(3 1 -12 -8 -13 -1 -2 1)
1969-12-31 18:00:09.003689928,(-3 -3 -22 -88 -29 -7 -2 -3)
1969-12-31 18:00:09.003689928,(1 4 12 56 26 9 2 2)
1969-12-31 18:00:09.004893090,(2 7 25 59 25 11 3 0)
1969-12-31 18:00:09.004893090,(-3 2 10 25 6 4 2 -2)
1969-12-31 18:00:09.019331042,(0 -4 -8 -2 -6 0 1 1)
1969-12-31 18:00:09.019331042,(4 -2 -22 -53 -17 0 4 5)
1969-12-31 18:00:09.030159505,(-1 -5 -13 -36 -23 -8 -6 -2)
1969-12-31 18:00:09.030159505,(2 4 5 5 5 -1 -2 2)
1969-12-31 18:00:09.047003781,(-1 2 12 27 7 2 0 1)
1969-12-31 18:00:09.047003781,(-4 -1 -2 -4 0 0 -3 -3)
1969-12-31 18:00:09.049410107,(-1 -1 -2 2 -2 1 0 -1)
1969-12-31 18:00:09.049410107,(0 -3 -7 -27 -27 -5 0 -1)
1969-12-31 18:00:09.084301822,(-3 -1 -3 -3 8 1 -1 -2)
1969-12-31 18:00:09.084301822,(1 4 9 16 21 5 0 0)
1969-12-31 18:00:09.085504985,(-2 -5 -6 1 -4 0 0 -2)
1969-12-31 18:00:09.085504985,(0 -5 -15 -41 -7 -2 1 0)
1969-12-31 18:00:09.091520798,(2 5 18 39 1 3 0 0)
1969-12-31 18:00:09.091520798,(-5 -4 -7 -34 -15 -7 -3 -2)
1969-12-31 18:00:09.102349261,(1 5 14 39 12 -3 -3 -3)
1969-12-31 18:00:09.102349261,(-4 1 23 64 31 11 2 -2)
1969-12-31 18:00:09.102349261,(-3 -5 -1 6 18 5 1 0)
1969-12-31 18:00:09.102349261,(0 3 11 -5 -6 1 4 2)
1969-12-31 18:00:09.103552424,(-1 -4 -11 -40 -29 -5 -3 -1)
1969-12-31 18:00:09.103552424,(4 -10 -37 7 -22 -6 1 4)
1969-12-31 18:00:09.128818838,(5 12 16 -15 40 9 3 3)
1969-12-31 18:00:09.128818838,(-7 3 47 77 20 3 -3 -7)
1969-12-31 18:00:09.130022001,(0 -1 7 60 22 13 7 4)
1969-12-31 18:00:09.131225163,(6 -1 -33 -104 -33 -2 4 6)
1969-12-31 18:00:09.145663114,(7 4 10 90 -15 -4 3 7)
1969-12-31 18:00:09.145663114,(1 -6 -51 -65 -28 -9 -3 2)
1969-12-31 18:00:09.156491578,(-23 -26 4 -31 16 -20 -18 -19)
1969-12-31 18:00:09.156491578,(-6 1 28 63 25 7 1 -2)
1969-12-31 18:00:09.174539017,(8 13 2 -63 8 5 5 5)
1969-12-31 18:00:09.174539017,(8 5 -2 5 -16 8 8 7)
1969-12-31 18:00:09.175742179,(2 9 34 127 64 14 0 -4)
1969-12-31 18:00:09.175742179,(-3 -8 -18 -51 -36 -12 -7 -3)
1969-12-31 18:00:09.210633895,(-1 -11 -37 -79 -25 -11 -1 0)
1969-12-31 18:00:09.210633895,(6 10 11 -47 -29 -1 4 5)
1969-12-31 18:00:09.211837057,(11 17 18 -9 -66 2 6 6)
1969-12-31 18:00:09.211837057,(1 -2 2 84 117 28 3 -1)
1969-12-31 18:00:09.217852870,(-17 -16 17 75 -7 -11 -13 -12)
1969-12-31 18:00:09.217852870,(0 3 -23 -125 -23 -13 -6 -1)
1969-12-31 18:00:09.228681334,(1 -3 7 63 -40 -2 10 5)
1969-12-31 18:00:09.228681334,(-4 3 11 7 23 2 -1 -4)
1969-12-31 18:00:09.246728773,(-3 -22 -51 -54 -20 -2 -4 -3)
1969-12-31 18:00:09.246728773,(-11 -10 -14 -79 -31 -14 -7 -9)
1969-12-31 18:00:09.247931935,(11 22 34 28 40 9 4 6)
1969-12-31 18:00:09.247931935,(4 11 24 90 0 12 4 0)
1969-12-31 18:00:09.273198350,(-14 -28 -3 61 22 -8 -10 -10)
1969-12-31 18:00:09.273198350,(-13 -15 -44 -70 -78 -28 -11 -10)
1969-12-31 18:00:09.275604675,(15 12 3 60 57 5 8 13)
1969-12-31 18:00:09.275604675,(-8 -1 12 4 -8 3 1 -6)
1969-12-31 18:00:09.290042626,(11 18 2 -50 -12 3 6 5)
1969-12-31 18:00:09.290042626,(5 6 9 21 8 9 6 4)
1969-12-31 18:00:09.300871090,(2 -1 -19 -62 -3 -3 -4 -3)
1969-12-31 18:00:09.300871090,(3 -2 10 87 21 6 5 3)
1969-12-31 18:00:09.317715366,(-5 9 17 -31 -17 -4 -4 -7)
1969-12-31 18:00:09.318918529,(8 -7 -16 3 -18 -1 3 5)
1969-12-31 18:00:09.320121691,(2 0 27 57 90 27 10 4)
1969-12-31 18:00:09.320121691,(-9 -2 5 -47 -24 -13 -9 -9)
1969-12-31 18:00:09.345388106,(1 1 -13 -17 -31 -6 0 1)
1969-12-31 18:00:09.345388106,(-8 -7 -16 -23 -3 -8 -6 -5)
1969-12-31 18:00:09.347794431,(1 -7 -34 -61 -29 -13 -3 -1)
1969-12-31 18:00:09.347794431,(1 0 1 -35 -27 -8 -2 0)
1969-12-31 18:00:09.362232382,(4 7 19 30 12 3 4 0)
1969-12-31 18:00:09.362232382,(4 3 14 54 41 11 3 3)
1969-12-31 18:00:09.373060846,(-9 -10 -12 -24 -19 -8 -5 -6)
1969-12-31 18:00:09.373060846,(-1 -1 0 -23 -19 -5 -2 1)
1969-12-31 18:00:09.388701959,(2 3 -3 6 4 2 1 3)
1969-12-31 18:00:09.388701959,(2 2 22 56 37 11 0 -1)
1969-12-31 18:00:09.399530423,(-6 -9 -12 -3 -12 -6 -4 -5)
1969-12-31 18:00:09.399530423,(-1 -1 -20 -63 -27 -6 -1 0)
1969-12-31 18:00:09.417577862,(3 7 10 11 10 6 2 1)
1969-12-31 18:00:09.417577862,(0 1 16 64 29 9 1 0)
1969-12-31 18:00:09.419984187,(-5 -4 -11 -45 -21 -4 -2 -3)
1969-12-31 18:00:09.419984187,(2 2 -3 -20 -12 -4 0 -2)
1969-12-31 18:00:09.434422138,(3 3 3 20 7 5 5 3)
1969-12-31 18:00:09.434422138,(-1 0 6 6 12 2 1 0)
1969-12-31 18:00:09.445250601,(-13 -6 -12 -18 -12 -1 1 -3)
1969-12-31 18:00:09.445250601,(1 1 -1 -15 -7 -8 -3 -3)
1969-12-31 18:00:09.462094878,(11 4 9 16 9 6 4 4)
1969-12-31 18:00:09.462094878,(-22 -19 -10 3 -1 -10 -14 -19)
1969-12-31 18:00:09.470517016,(2 3 -4 -12 -6 -4 -4 -3)
1969-12-31 18:00:09.470517016,(-9 -6 -1 4 -4 -3 0 -4)
1969-12-31 18:00:09.489767618,(3 5 0 -6 -1 1 1 1)
1969-12-31 18:00:09.489767618,(9 7 6 15 11 4 4 8)
1969-12-31 18:00:09.492173943,(-5 -4 -1 -3 -6 -2 -2 -3)
1969-12-31 18:00:09.492173943,(10 6 0 -12 -5 2 -1 2)
1969-12-31 18:00:09.505408732,(-11 -5 -3 5 0 -1 -5 -7)
1969-12-31 18:00:09.505408732,(10 7 4 8 8 4 4 7)
1969-12-31 18:00:09.516237195,(-5 -2 -4 -8 -6 -3 -1 1)
1969-12-31 18:00:09.516237195,(-2 0 -1 -5 -2 -4 -4 -3)
1969-12-31 18:00:09.534284634,(1 -3 -3 -2 -1 -2 2 0)
1969-12-31 18:00:09.534284634,(-5 -2 3 11 5 1 -2 -2)
1969-12-31 18:00:09.542706772,(8 7 -3 -12 1 4 3 4)
1969-12-31 18:00:09.542706772,(10 3 -2 -5 -2 3 1 4)
1969-12-31 18:00:09.561957374,(-7 -5 -5 1 -2 -1 -4 -3)
1969-12-31 18:00:09.561957374,(-5 5 5 -11 0 2 -4 -6)
1969-12-31 18:00:09.563160536,(2 4 5 22 5 2 5 4)
1969-12-31 18:00:09.563160536,(-7 -3 0 -5 -1 3 2 0)
1969-12-31 18:00:09.578801650,(5 -1 -4 -2 -4 -5 -1 3)
1969-12-31 18:00:09.578801650,(-5 4 -9 -38 -19 -1 -1 -8)
1969-12-31 18:00:09.589630113,(5 -1 -7 -17 2 0 -1 4)
1969-12-31 18:00:09.589630113,(-10 -3 16 52 30 8 3 -3)
1969-12-31 18:00:09.606474390,(4 4 10 34 13 2 -1 3)
1969-12-31 18:00:09.606474390,(6 4 5 16 6 3 5 6)
1969-12-31 18:00:09.613693365,(-4 -14 -12 -27 -19 -13 -13 -21)
1969-12-31 18:00:09.613693365,(13 3 -14 -37 -16 -4 3 8)
1969-12-31 18:00:09.634147130,(-1 8 -1 -11 -2 7 6 2)
1969-12-31 18:00:09.634147130,(0 -6 -3 16 -7 -5 -4 -2)
1969-12-31 18:00:09.635350292,(-9 0 5 7 8 -1 -3 -1)
1969-12-31 18:00:09.635350292,(-8 0 1 5 5 1 4 3)
1969-12-31 18:00:09.650991406,(-4 -23 -12 -28 -8 -8 -9 -11)
1969-12-31 18:00:09.650991406,(43 25 5 18 8 10 16 26)
1969-12-31 18:00:09.661819869,(-1 -6 -3 -16 -13 -3 0 -3)
1969-12-31 18:00:09.661819869,(5 -2 -10 -54 -26 -7 -6 -4)
1969-12-31 18:00:09.678664146,(-28 -10 -14 -12 -5 -12 -6 -8)
1969-12-31 18:00:09.678664146,(4 -1 4 9 -4 1 5 6)
1969-12-31 18:00:09.687086284,(8 4 -4 38 33 9 5 5)
1969-12-31 18:00:09.687086284,(4 8 47 109 30 9 5 0)
1969-12-31 18:00:09.706336886,(-8 8 24 42 27 9 -4 -11)
1969-12-31 18:00:09.706336886,(-13 -10 -13 -39 -10 -9 -8 -8)
1969-12-31 18:00:09.708743211,(3 -2 -15 -28 -25 -6 5 8)
1969-12-31 18:00:09.708743211,(-56 -27 -30 -65 -14 2 3 -12)
1969-12-31 18:00:09.732806463,(63 46 14 -3 3 10 25 35)
1969-12-31 18:00:09.732806463,(0 -14 -16 9 -1 -9 -15 -18)
1969-12-31 18:00:09.734009625,(46 14 8 -7 2 7 9 38)
1969-12-31 18:00:09.734009625,(-25 -19 -18 -13 -12 -14 -14 -23)
1969-12-31 18:00:09.749650739,(2 -5 2 7 -1 1 0 4)
1969-12-31 18:00:09.749650739,(-23 -5 3 1 5 1 -3 -6)
1969-12-31 18:00:09.759276040,(5 8 7 3 0 4 5 1)
1969-12-31 18:00:09.759276040,(5 3 7 11 6 4 2 2)
1969-12-31 18:00:09.777323479,(-5 -18 -84 -109 -71 -23 -8 5)
1969-12-31 18:00:09.777323479,(-1 1 37 108 9 -1 1 1)
1969-12-31 18:00:09.778526641,(-1 14 51 90 42 12 4 3)
1969-12-31 18:00:09.778526641,(15 15 30 56 61 29 16 11)
1969-12-31 18:00:09.804996219,(-15 -9 1 -32 9 1 -12 -23)
1969-12-31 18:00:09.804996219,(-2 -11 -58 -128 -36 -10 -6 -2)
1969-12-31 18:00:09.804996219,(-20 -16 -20 -12 -40 -15 -3 -6)
1969-12-31 18:00:09.804996219,(-1 3 16 26 -4 -6 -2 -4)
1969-12-31 18:00:09.821840495,(48 28 23 37 15 4 11 26)
1969-12-31 18:00:09.821840495,(-18 -19 -13 -17 -6 -12 -13 -20)
1969-12-31 18:00:09.831465796,(-20 -1 1 -14 -7 -17 -27 -35)
1969-12-31 18:00:09.831465796,(18 -1 -27 -42 -9 4 14 24)
1969-12-31 18:00:09.850716397,(-75 -41 3 20 0 -5 -13 -25)
1969-12-31 18:00:09.850716397,(75 52 16 2 18 21 28 39)
1969-12-31 18:00:09.850716397,(-4 -18 -75 -119 -55 -13 1 2)
1969-12-31 18:00:09.850716397,(13 9 39 83 -19 -14 -6 2)
1969-12-31 18:00:09.877185975,(-12 11 57 87 49 16 2 -7)
1969-12-31 18:00:09.877185975,(-9 5 49 101 88 32 8 2)
1969-12-31 18:00:09.878389137,(-6 -3 -2 -24 11 10 1 -4)
1969-12-31 18:00:09.878389137,(3 -4 -46 -85 -33 -13 -6 -1)
1969-12-31 18:00:09.894030251,(-15 -14 -11 -27 -44 -17 -5 -2)
1969-12-31 18:00:09.894030251,(-3 -3 -9 -34 -12 -6 0 -2)
1969-12-31 18:00:09.903655552,(-2 -1 1 -6 2 2 3 0)
1969-12-31 18:00:09.903655552,(8 0 -10 -18 -16 -11 -7 -1)
1969-12-31 18:00:09.922906153,(-8 4 2 -7 2 -3 -5 -13)
1969-12-31 18:00:09.922906153,(-7 -9 -11 -8 4 -1 -1 7)
1969-12-31 18:00:09.922906153,(-5 -2 5 40 -4 2 6 2)
1969-12-31 18:00:09.922906153,(-5 1 22 28 15 0 -7 -12)
1969-12-31 18:00:09.949375730,(-15 -2 3 -1 7 11 10 -6)
1969-12-31 18:00:09.949375730,(64 22 -19 -44 -20 -8 5 29)
1969-12-31 18:00:09.949375730,(-7 -17 -60 -61 -23 -14 -8 -6)
1969-12-31 18:00:09.949375730,(4 7 35 81 18 9 2 6)
1969-12-31 18:00:09.966220007,(-2 7 43 85 16 7 -4 -6)
1969-12-31 18:00:09.966220007,(-34 -9 28 48 21 5 -3 -11)
1969-12-31 18:00:09.975845308,(-4 -2 10 -16 4 -2 -4 -4)
1969-12-31 18:00:09.975845308,(13 -2 -46 -97 -25 -17 -11 -2)
1969-12-31 18:00:09.993892747,(-1 -14 -28 -31 -25 -6 2 7)
1969-12-31 18:00:09.993892747,(-32 1 15 12 -2 8 -3 -16)
1969-12-31 18:00:09.995095909,(18 10 16 24 37 5 -13 1)
1969-12-31 18:00:09.995095909,(-14 -8 -17 -26 -9 -5 1 -23)
1969-12-31 18:00:10.021565486,(4 -9 -22 -45 -31 -7 10 15)
1969-12-31 18:00:10.021565486,(-7 -1 -3 24 1 -1 6 -3)
1969-12-31 18:00:10.021565486,(-25 -5 26 53 31 12 6 3)
1969-12-31 18:00:10.021565486,(-9 -6 -4 2 25 11 -11 -6)
1969-12-31 18:00:10.040816088,(14 7 9 3 0 -3 -3 4)
1969-12-31 18:00:10.040816088,(-11 -8 -9 -14 -29 -24 -26 -27)
1969-12-31 18:00:10.048035064,(18 10 13 11 -10 -12 -9 8)
1969-12-31 18:00:10.048035064,(0 -4 -5 -20 -16 -3 12 7)
1969-12-31 18:00:10.066082503,(1 1 -18 -23 -3 2 5 6)
1969-12-31 18:00:10.066082503,(2 -2 -30 -65 -37 -25 -17 -3)
1969-12-31 18:00:10.067285665,(7 8 27 55 14 10 16 7)
1969-12-31 18:00:10.067285665,(8 11 22 6 1 19 15 14)
1969-12-31 18:00:10.093755242,(4 0 0 10 50 16 -4 -6)
1969-12-31 18:00:10.093755242,(-7 -5 4 21 13 9 6 3)
1969-12-31 18:00:10.093755242,(0 -3 -17 -37 -24 -15 -12 -9)
1969-12-31 18:00:10.093755242,(-3 -4 6 33 -6 -7 0 -2)
1969-12-31 18:00:10.111802681,(-5 7 17 26 1 11 14 11)
1969-12-31 18:00:10.111802681,(-10 -6 0 6 11 -1 -4 0)
1969-12-31 18:00:10.120224820,(-22 -16 -15 -42 -22 -18 -23 -29)
1969-12-31 18:00:10.120224820,(-5 -8 -25 -56 -16 -8 -11 -4)
1969-12-31 18:00:10.138272259,(3 -1 -8 17 -8 -28 -48 -19)
1969-12-31 18:00:10.138272259,(-4 -2 0 -6 -3 3 12 -9)
1969-12-31 18:00:10.139475421,(6 -2 3 17 14 33 71 49)
1969-12-31 18:00:10.139475421,(16 7 0 -10 -3 10 9 17)
1969-12-31 18:00:10.165944998,(10 6 6 2 9 7 6 4)
1969-12-31 18:00:10.165944998,(-10 -8 7 36 19 -6 -26 -17)
1969-12-31 18:00:10.167148161,(-10 1 17 31 -4 -6 -20 -24)
1969-12-31 18:00:10.167148161,(-5 -2 4 3 2 -6 -2 -2)
1969-12-31 18:00:10.182789274,(5 0 -23 -42 -15 -7 0 4)
1969-12-31 18:00:10.182789274,(-3 -3 -5 -22 5 7 7 3)
1969-12-31 18:00:10.192414575,(7 1 -8 0 2 2 6 9)
1969-12-31 18:00:10.192414575,(4 10 1 23 -6 -2 -4 -4)
1969-12-31 18:00:10.210462014,(-9 -7 -6 -3 -4 -12 -6 -13)
1969-12-31 18:00:10.210462014,(5 4 22 38 -3 4 5 6)
1969-12-31 18:00:10.211665177,(-12 -17 7 14 11 0 -6 -10)
1969-12-31 18:00:10.211665177,(23 35 10 -11 13 20 24 41)
1969-12-31 18:00:10.238134754,(22 -3 -12 -8 -4 -5 0 3)
1969-12-31 18:00:10.238134754,(-8 -5 -9 -14 -9 -3 4 -2)
1969-12-31 18:00:10.239337917,(-10 -9 -18 -34 -13 -5 -10 -9)
1969-12-31 18:00:10.239337917,(-4 -8 1 -8 -5 -8 -6 0)
1969-12-31 18:00:10.254979031,(1 5 20 40 23 16 19 9)
1969-12-31 18:00:10.254979031,(33 27 15 15 12 10 10 16)
1969-12-31 18:00:10.265807494,(1 2 0 -4 -13 -4 -11 -3)
1969-12-31 18:00:10.265807494,(-11 -14 -15 -25 -7 -7 -7 -14)
1969-12-31 18:00:10.282651770,(-2 -4 -36 -99 -6 -4 2 -2)
1969-12-31 18:00:10.282651770,(-13 -13 15 73 0 -1 -1 -3)
1969-12-31 18:00:10.283854933,(4 16 36 50 20 7 2 0)
1969-12-31 18:00:10.283854933,(-13 -6 5 21 10 0 -6 -11)
1969-12-31 18:00:10.310324510,(-14 -8 -8 -24 -16 -9 -11 -14)
1969-12-31 18:00:10.310324510,(13 -12 -41 -80 -27 -10 1 19)
1969-12-31 18:00:10.311527673,(-1 6 3 26 5 1 -8 -21)
1969-12-31 18:00:10.311527673,(-52 -17 13 37 11 -6 -14 -20)
1969-12-31 18:00:10.327168787,(-5 7 4 11 -9 -6 -10 -7)
1969-12-31 18:00:10.327168787,(-18 -13 -8 -24 -7 -7 -5 -5)
1969-12-31 18:00:10.336794087,(24 19 -6 -19 -5 -2 5 15)
1969-12-31 18:00:10.337997250,(-31 -32 -30 -38 -6 -5 -9 -22)
1969-12-31 18:00:10.354841526,(3 -1 4 22 -1 4 7 5)
1969-12-31 18:00:10.354841526,(3 16 29 23 7 8 8 4)
1969-12-31 18:00:10.356044689,(-29 -26 -13 -10 -3 -12 -16 -20)
1969-12-31 18:00:10.357247851,(24 9 -1 -23 -8 2 11 15)
1969-12-31 18:00:10.382514266,(8 12 27 96 29 14 9 6)
1969-12-31 18:00:10.382514266,(14 14 24 59 37 24 16 13)
1969-12-31 18:00:10.382514266,(17 4 5 14 7 -1 2 16)
1969-12-31 18:00:10.382514266,(-36 -22 -22 -38 -8 -16 -23 -34)
1969-12-31 18:00:10.410187006,(40 30 -4 -35 -38 -10 2 16)
1969-12-31 18:00:10.410187006,(9 -3 -13 -12 4 14 22 13)
1969-12-31 18:00:10.411390168,(2 -9 -10 17 -5 -9 -10 -1)
1969-12-31 18:00:10.411390168,(62 34 17 -5 9 2 3 19)
1969-12-31 18:00:10.427031282,(-72 -47 3 12 2 -2 -12 -36)
1969-12-31 18:00:10.427031282,(4 7 -14 9 -4 -4 -4 3)
1969-12-31 18:00:10.428234445,(25 20 -2 -41 -8 4 10 11)
1969-12-31 18:00:10.428234445,(-3 2 7 70 -6 -5 -2 3)
1969-12-31 18:00:10.454704022,(25 8 15 53 48 13 21 37)
1969-12-31 18:00:10.454704022,(-40 -15 42 54 -19 -3 -19 -47)
1969-12-31 18:00:10.455907185,(-50 -28 -17 -19 13 17 25 21)
1969-12-31 18:00:10.455907185,(8 13 -5 -15 3 1 -4 -19)
1969-12-31 18:00:10.482376762,(-5 -1 -13 -115 -33 -11 -9 -10)
1969-12-31 18:00:10.482376762,(9 6 -9 64 5 -20 -15 -6)
1969-12-31 18:00:10.483579924,(14 -4 -41 -87 -6 12 16 17)
1969-12-31 18:00:10.483579924,(12 0 7 6 -28 5 13 19)
1969-12-31 18:00:10.499221038,(1 4 -20 42 14 5 9 12)
1969-12-31 18:00:10.499221038,(-10 -9 -5 -46 -27 -7 -5 -3)
1969-12-31 18:00:10.500424201,(-27 -1 79 127 32 -1 -15 -28)
1969-12-31 18:00:10.500424201,(0 1 21 21 49 9 0 1)
1969-12-31 18:00:10.526893778,(-2 0 -16 -42 -11 -7 -6 -11)
1969-12-31 18:00:10.526893778,(16 -1 -33 -49 -23 -2 9 22)
1969-12-31 18:00:10.528096941,(-4 0 -24 -32 -3 5 8 0)
1969-12-31 18:00:10.528096941,(17 -16 -13 -67 -8 12 22 33)
1969-12-31 18:00:10.554566518,(3 4 5 0 6 7 7 0)
1969-12-31 18:00:10.554566518,(8 0 -24 -98 -20 -14 -18 -18)
1969-12-31 18:00:10.555769680,(24 19 8 79 9 4 6 9)
1969-12-31 18:00:10.555769680,(-8 0 26 34 -7 -1 -6 -4)
1969-12-31 18:00:10.571410794,(-7 -3 9 12 1 -1 -2 -2)
1969-12-31 18:00:10.571410794,(-29 -18 16 10 22 1 -3 -11)
1969-12-31 18:00:10.572613957,(17 14 -9 -60 -8 -3 -2 5)
1969-12-31 18:00:10.572613957,(2 -1 -16 36 -14 -10 -8 -5)
1969-12-31 18:00:10.599083534,(18 7 -5 0 7 5 3 4)
1969-12-31 18:00:10.599083534,(5 9 5 20 3 2 1 2)
1969-12-31 18:00:10.600286696,(-19 -11 6 -3 -8 -15 -18 -18)
1969-12-31 18:00:10.600286696,(-37 -14 -14 -53 5 9 3 -15)
1969-12-31 18:00:10.615927810,(29 8 -7 49 -21 -6 -3 6)
1969-12-31 18:00:10.615927810,(-6 -2 22 75 32 7 5 3)
1969-12-31 18:00:10.625553111,(-4 1 3 -25 -14 -10 -14 -12)
1969-12-31 18:00:10.625553111,(11 -7 -16 -51 -5 -3 2 8)
1969-12-31 18:00:10.643600550,(-20 -16 -13 -39 -8 1 1 -4)
1969-12-31 18:00:10.643600550,(-20 -6 6 17 -8 1 2 0)
1969-12-31 18:00:10.644803713,(29 16 20 48 6 -4 -7 1)
1969-12-31 18:00:10.644803713,(-1 14 10 21 16 2 -7 -14)
1969-12-31 18:00:10.671273290,(-51 -42 -6 -25 -7 -2 -3 -13)
1969-12-31 18:00:10.671273290,(-16 -7 -20 -53 -16 -19 -24 -28)
1969-12-31 18:00:10.672476452,(-7 -2 -9 -20 -5 -1 1 -2)
1969-12-31 18:00:10.672476452,(18 9 0 3 -2 -2 -1 9)
1969-12-31 18:00:10.698946030,(-32 -24 7 18 5 2 -8 -17)
1969-12-31 18:00:10.698946030,(20 15 2 -13 8 12 18 23)
1969-12-31 18:00:10.700149192,(-12 -6 -2 -21 -9 4 10 6)
1969-12-31 18:00:10.700149192,(21 5 -10 12 -8 -21 -31 -24)
1969-12-31 18:00:10.715790306,(-20 -5 8 16 5 -2 -5 -8)
1969-12-31 18:00:10.715790306,(37 23 -2 -15 4 11 17 16)
1969-12-31 18:00:10.725415607,(-31 -17 -6 -10 -7 -15 -26 -40)
1969-12-31 18:00:10.725415607,(-21 -4 -7 13 -2 -2 -3 -12)
1969-12-31 18:00:10.743463046,(3 11 7 -5 0 0 -1 1)
1969-12-31 18:00:10.743463046,(7 -5 -6 -18 -6 -1 1 11)
1969-12-31 18:00:10.744666208,(-10 -11 -6 -3 1 2 0 2)
1969-12-31 18:00:10.744666208,(-18 -12 4 8 -1 -1 3 -4)
1969-12-31 18:00:10.771135785,(53 35 1 -4 -5 -2 5 25)
1969-12-31 18:00:10.771135785,(-61 -24 -3 -5 -3 -9 -17 -39)
1969-12-31 18:00:10.772338948,(44 22 3 -2 6 10 17 34)
1969-12-31 18:00:10.772338948,(-27 -20 -5 -6 -9 -8 -12 -16)
1969-12-31 18:00:10.789183224,(42 24 -1 2 1 2 5 11)
1969-12-31 18:00:10.789183224,(2 -10 10 23 13 4 4 12)
1969-12-31 18:00:10.790386387,(11 -1 -5 -7 -10 -10 -16 -12)
1969-12-31 18:00:10.790386387,(-34 -21 0 5 2 -3 4 8)
1969-12-31 18:00:10.815652802,(40 18 1 -3 -1 0 -1 4)
1969-12-31 18:00:10.815652802,(9 14 -7 -15 -8 -2 0 7)
1969-12-31 18:00:10.816855964,(-11 -12 5 6 10 15 16 6)
1969-12-31 18:00:10.816855964,(11 5 5 10 5 9 15 18)
1969-12-31 18:00:10.843325541,(-71 -47 -7 0 -3 -11 -17 -27)
1969-12-31 18:00:10.843325541,(84 54 1 -6 3 7 11 20)
1969-12-31 18:00:10.844528704,(-10 -8 -13 -28 -8 -2 2 2)
1969-12-31 18:00:10.844528704,(19 9 -6 -6 -7 3 7 12)
1969-12-31 18:00:10.860169818,(-5 3 25 55 8 4 1 -2)
1969-12-31 18:00:10.860169818,(2 -5 7 9 13 4 7 14)
1969-12-31 18:00:10.861372980,(-19 -14 2 19 6 4 -5 -19)
1969-12-31 18:00:10.862576143,(21 14 2 -9 2 8 19 22)
1969-12-31 18:00:10.887842558,(-13 -14 -20 -44 -19 -18 -26 -21)
1969-12-31 18:00:10.887842558,(-53 -54 -27 -18 -15 -9 0 7)
1969-12-31 18:00:10.887842558,(-3 25 0 -11 -4 -7 -15 -41)
1969-12-31 18:00:10.887842558,(35 18 4 8 7 11 14 25)
1969-12-31 18:00:10.915515297,(3 1 1 -1 1 -4 -1 2)
1969-12-31 18:00:10.915515297,(-45 -33 -8 -6 -13 -18 -25 -35)
1969-12-31 18:00:10.916718460,(22 14 4 -11 3 8 19 36)
1969-12-31 18:00:10.916718460,(-3 1 0 11 3 4 0 -2)
1969-12-31 18:00:10.932359574,(-9 -5 4 12 4 6 5 -3)
1969-12-31 18:00:10.932359574,(14 4 -8 -41 -6 3 2 2)
1969-12-31 18:00:10.941984875,(-19 -24 -49 -82 -26 -11 -3 -5)
1969-12-31 18:00:10.941984875,(5 11 45 87 -2 -6 -8 -2)
1969-12-31 18:00:10.961235476,(55 49 48 93 39 20 21 29)
1969-12-31 18:00:10.961235476,(-15 -14 7 26 14 -4 -5 1)
1969-12-31 18:00:10.961235476,(-30 7 22 16 25 37 32 -5)
1969-12-31 18:00:10.961235476,(-65 -44 -37 -63 -19 -21 -26 -33)
1969-12-31 18:00:10.987705053,(-82 -31 -38 -57 -31 -13 -21 -46)
1969-12-31 18:00:10.987705053,(-4 17 5 -1 6 14 13 14)
1969-12-31 18:00:10.988908216,(14 5 -2 2 -11 -16 -14 4)
1969-12-31 18:00:10.988908216,(-9 -17 -11 -11 -2 -5 -8 -13)
1969-12-31 18:00:11.004549330,(3 -4 7 2 7 9 11 5)
1969-12-31 18:00:11.004549330,(21 16 -1 -13 -1 9 12 14)
1969-12-31 18:00:11.005752492,(2 -9 -4 -31 -18 -9 -6 0)
1969-12-31 18:00:11.005752492,(23 24 21 59 22 7 3 6)
1969-12-31 18:00:11.033425232,(24 10 3 1 10 2 7 17)
1969-12-31 18:00:11.033425232,(4 0 0 7 -1 -3 -1 -1)
1969-12-31 18:00:11.034628395,(53 43 14 29 12 4 7 22)
1969-12-31 18:00:11.034628395,(-10 -8 -9 -35 -15 2 3 5)
1969-12-31 18:00:11.059894809,(-27 -7 -12 -26 -15 -7 -10 -17)
1969-12-31 18:00:11.059894809,(11 -10 3 9 -1 -5 -4 3)
1969-12-31 18:00:11.061097972,(-30 -25 -2 0 -10 -11 -14 -18)
1969-12-31 18:00:11.061097972,(16 5 0 9 11 6 12 21)
1969-12-31 18:00:11.076739086,(75 70 6 7 6 5 15 44)
1969-12-31 18:00:11.077942248,(-45 -19 -3 -2 -10 -18 -28 -45)
1969-12-31 18:00:11.077942248,(3 -3 0 14 7 7 9 17)
1969-12-31 18:00:11.077942248,(-2 -10 -44 -113 -18 -3 -1 -3)
1969-12-31 18:00:11.104411825,(-3 -18 5 12 -26 -3 3 8)
1969-12-31 18:00:11.104411825,(-3 12 33 71 24 8 2 -6)
1969-12-31 18:00:11.106818151,(10 13 25 74 24 -8 -12 -4)
1969-12-31 18:00:11.106818151,(9 5 -4 6 7 -2 -3 1)
1969-12-31 18:00:11.132084565,(-19 -22 -19 -45 -13 -7 -7 -13)
1969-12-31 18:00:11.132084565,(13 8 -23 -54 -20 0 1 3)
1969-12-31 18:00:11.133287728,(-37 -27 -8 -11 -17 -13 -16 -15)
1969-12-31 18:00:11.133287728,(28 20 20 30 25 24 20 10)
1969-12-31 18:00:11.148928842,(-10 -16 -5 -14 -2 -6 -9 -6)
1969-12-31 18:00:11.148928842,(-28 -4 4 7 2 7 7 -3)
1969-12-31 18:00:11.150132004,(45 18 3 -3 0 4 10 24)
1969-12-31 18:00:11.150132004,(-10 3 7 9 -5 -9 -14 -13)
1969-12-31 18:00:11.177804744,(6 7 6 10 14 7 10 5)
1969-12-31 18:00:11.177804744,(-24 -22 -9 -7 -4 -8 -12 -18)
1969-12-31 18:00:11.179007906,(-35 -14 0 -3 -6 -2 0 -5)
1969-12-31 18:00:11.179007906,(22 10 3 9 5 9 11 15)
1969-12-31 18:00:11.204274321,(-17 -16 -9 -31 -5 -1 -5 -10)
1969-12-31 18:00:11.204274321,(13 3 -8 -2 13 2 7 9)
1969-12-31 18:00:11.205477484,(-13 -6 17 34 -12 -1 -6 -10)
1969-12-31 18:00:11.205477484,(7 17 22 38 6 -5 -7 -1)
1969-12-31 18:00:11.221118597,(-6 -7 5 17 8 -5 -5 -4)
1969-12-31 18:00:11.222321760,(83 38 -7 -22 8 21 38 65)
1969-12-31 18:00:11.222321760,(-36 -16 -16 -29 -17 -27 -42 -58)
1969-12-31 18:00:11.222321760,(-7 -3 -3 -6 1 4 4 5)
1969-12-31 18:00:11.249994500,(-8 -6 -3 -2 -1 1 -1 -5)
1969-12-31 18:00:11.249994500,(-13 -10 -6 -12 -10 -11 -12 -9)
1969-12-31 18:00:11.249994500,(8 7 -4 6 11 14 19 24)
1969-12-31 18:00:11.249994500,(-9 0 4 -1 -9 -5 -8 -14)
1969-12-31 18:00:11.276464077,(-16 -10 -5 -6 -1 -5 -7 -10)
1969-12-31 18:00:11.276464077,(-8 1 6 -5 -10 -7 -8 -12)
1969-12-31 18:00:11.277667240,(9 6 3 7 8 15 18 20)
1969-12-31 18:00:11.277667240,(-17 -13 5 19 11 1 -5 -10)
1969-12-31 18:00:11.293308353,(21 7 -2 6 -1 -6 -1 8)
1969-12-31 18:00:11.293308353,(-44 -21 -5 -9 -13 -6 -9 -25)
1969-12-31 18:00:11.294511516,(11 0 -8 -15 -10 -7 -3 1)
1969-12-31 18:00:11.294511516,(-2 -7 -5 -10 0 -5 -4 -2)
1969-12-31 18:00:11.320981093,(-1 11 0 12 9 9 4 3)
1969-12-31 18:00:11.320981093,(59 42 18 16 14 11 3 13)
1969-12-31 18:00:11.322184256,(-15 -8 -4 -6 4 6 8 5)
1969-12-31 18:00:11.322184256,(10 12 -5 -5 -12 -7 -6 -9)
1969-12-31 18:00:11.348653833,(-41 -33 -10 -11 -15 -22 -26 -32)
1969-12-31 18:00:11.348653833,(24 21 -6 -4 -3 3 10 15)
1969-12-31 18:00:11.349856996,(21 12 3 0 5 5 10 16)
1969-12-31 18:00:11.349856996,(-11 -12 -6 0 -1 -5 -11 -10)
1969-12-31 18:00:11.376326573,(14 9 4 -7 3 10 17 18)
1969-12-31 18:00:11.376326573,(-14 -16 -22 -42 -51 -30 -14 -10)
1969-12-31 18:00:11.376326573,(8 -2 2 15 4 1 -3 -2)
1969-12-31 18:00:11.377529735,(-7 7 20 35 31 13 1 -6)
1969-12-31 18:00:11.394374012,(47 34 19 45 49 30 20 29)
1969-12-31 18:00:11.394374012,(-29 -20 3 8 12 9 0 -11)
1969-12-31 18:00:11.395577174,(-5 3 -9 -23 -19 -11 -4 -1)
1969-12-31 18:00:11.395577174,(-9 -24 -14 -27 -33 -16 -5 -7)
1969-12-31 18:00:11.420843589,(35 38 8 -8 -7 8 21 39)
1969-12-31 18:00:11.420843589,(-59 -31 -6 -1 -7 -18 -26 -36)
1969-12-31 18:00:11.422046751,(-16 -4 -2 -3 0 -2 -2 -6)
1969-12-31 18:00:11.422046751,(21 12 1 -2 -4 -1 7 20)
1969-12-31 18:00:11.437687864,(-8 -8 1 -2 -1 2 2 -9)
1969-12-31 18:00:11.437687864,(-7 -7 -1 6 1 -3 -4 -4)
1969-12-31 18:00:11.448516329,(4 7 7 11 11 8 4 3)
1969-12-31 18:00:11.448516329,(-17 -13 -5 -2 1 3 1 -4)
1969-12-31 18:00:11.466563768,(-22 -19 -8 -9 -14 -12 -15 -20)
1969-12-31 18:00:11.466563768,(17 16 6 2 3 3 8 8)
1969-12-31 18:00:11.467766930,(4 -10 -3 1 4 -1 -1 4)
1969-12-31 18:00:11.467766930,(13 13 1 3 0 2 3 -2)
1969-12-31 18:00:11.493033345,(6 5 2 1 1 6 5 4)
1969-12-31 18:00:11.493033345,(-19 -14 -3 3 -3 -7 -12 -16)
1969-12-31 18:00:11.494236507,(8 5 -4 -3 0 0 -3 0)
1969-12-31 18:00:11.495439670,(25 19 13 2 9 12 18 26)
1969-12-31 18:00:11.509877621,(-49 -35 -11 -7 -16 -19 -23 -26)
1969-12-31 18:00:11.509877621,(28 -4 3 7 5 4 5 15)
1969-12-31 18:00:11.529128223,(40 21 -3 0 2 -1 -4 7)
1969-12-31 18:00:11.529128223,(-19 -8 -7 -4 -8 -8 -7 -10)
1969-12-31 18:00:11.547175662,(10 10 7 -2 6 10 15 15)
1969-12-31 18:00:11.547175662,(-19 -12 1 3 -4 -7 -12 -19)
1969-12-31 18:00:11.549581987,(14 10 5 4 10 15 19 19)
1969-12-31 18:00:11.549581987,(-2 -3 -5 -11 -8 -7 -8 0)
1969-12-31 18:00:11.565223101,(-2 -5 -9 -51 -20 -3 0 -5)
1969-12-31 18:00:11.565223101,(4 4 -12 -8 0 -1 7 10)
1969-12-31 18:00:11.567629426,(-16 -10 19 71 -5 -9 -14 -18)
1969-12-31 18:00:11.567629426,(1 14 26 48 47 17 5 3)
1969-12-31 18:00:11.582067377,(-4 -2 9 22 21 5 -4 -6)
1969-12-31 18:00:11.582067377,(4 13 18 -27 -12 6 4 4)
1969-12-31 18:00:11.592895840,(-6 -15 -59 -36 -12 -16 -3 0)
1969-12-31 18:00:11.592895840,(-13 -23 -17 -16 -20 -13 -10 -10)
1969-12-31 18:00:11.609740117,(-8 -2 -8 -5 -8 -9 -7 -9)
1969-12-31 18:00:11.609740117,(6 -4 -12 -2 4 5 7 8)
1969-12-31 18:00:11.618162255,(-1 7 29 -4 1 6 6 1)
1969-12-31 18:00:11.618162255,(-1 -2 -24 -14 -12 -9 -7 -1)
1969-12-31 18:00:11.637412857,(9 6 16 2 2 6 5 6)
1969-12-31 18:00:11.637412857,(-1 13 22 20 14 13 6 0)
1969-12-31 18:00:11.638616019,(9 11 33 21 15 14 10 7)
1969-12-31 18:00:11.638616019,(-4 10 11 -8 -4 -3 -3 -5)
1969-12-31 18:00:11.654257133,(10 1 -9 1 -8 -8 1 6)
1969-12-31 18:00:11.654257133,(-20 -35 -66 -9 -8 -13 -15 -14)
1969-12-31 18:00:11.665085596,(-20 -35 -54 -43 -16 -24 -19 -15)
1969-12-31 18:00:11.665085596,(-25 -21 -4 -19 -18 -21 -14 -16)
1969-12-31 18:00:11.681929873,(3 11 -1 -10 -7 1 2 3)
1969-12-31 18:00:11.681929873,(16 25 42 28 11 16 13 12)
1969-12-31 18:00:11.690352011,(12 19 33 16 21 16 9 7)
1969-12-31 18:00:11.690352011,(5 9 25 -3 5 16 10 5)
1969-12-31 18:00:11.709602613,(3 1 5 30 7 5 -1 -1)
1969-12-31 18:00:11.709602613,(7 7 9 9 10 9 7 9)
1969-12-31 18:00:11.712008938,(-5 -13 -30 -13 -4 -5 -5 -4)
1969-12-31 18:00:11.712008938,(-11 -14 -8 -2 -12 -15 -10 -11)
1969-12-31 18:00:11.726446889,(-7 1 12 0 0 -5 -5 -7)
1969-12-31 18:00:11.726446889,(7 3 -9 -15 -6 -5 0 5)
1969-12-31 18:00:11.737275352,(-3 4 1 -12 -10 -4 -2 -3)
1969-12-31 18:00:11.737275352,(0 -9 -27 -14 -10 -6 -4 0)
1969-12-31 18:00:11.754119629,(-2 -5 2 -3 -6 0 1 -1)
1969-12-31 18:00:11.754119629,(-4 -2 9 19 6 1 -3 -3)
1969-12-31 18:00:11.770963905,(7 20 47 26 21 18 12 8)
1969-12-31 18:00:11.770963905,(10 2 -9 -4 4 2 4 5)
1969-12-31 18:00:11.781792369,(-11 -19 -44 -25 -19 -13 -9 -7)
1969-12-31 18:00:11.781792369,(-7 -13 -9 1 -4 -13 -8 -6)
1969-12-31 18:00:11.784198694,(-16 -9 4 -20 -23 -14 -13 -15)
1969-12-31 18:00:11.784198694,(3 8 -1 9 9 12 7 1)
1969-12-31 18:00:11.798636645,(14 12 6 2 7 8 7 10)
1969-12-31 18:00:11.798636645,(2 2 -5 -5 2 7 3 0)
1969-12-31 18:00:11.809465108,(-4 -12 -22 17 11 2 -1 -1)
1969-12-31 18:00:11.809465108,(-5 6 27 17 5 6 2 -1)
1969-12-31 18:00:11.826309385,(2 -2 0 8 4 -2 1 -1)
1969-12-31 18:00:11.826309385,(0 6 5 -4 -1 5 4 1)
1969-12-31 18:00:11.834731523,(3 -8 -21 -22 -13 -12 -4 2)
1969-12-31 18:00:11.834731523,(-7 -6 -5 -15 -14 -12 -6 -3)
1969-12-31 18:00:11.853982124,(-2 -3 7 6 3 1 -1 1)
1969-12-31 18:00:11.853982124,(1 6 13 10 5 10 6 1)
1969-12-31 18:00:11.856388450,(7 3 1 1 5 4 5 4)
1969-12-31 18:00:11.856388450,(-3 -1 -8 -17 -12 -6 -1 -2)
1969-12-31 18:00:11.870826401,(0 -4 -11 18 1 -4 -2 -2)
1969-12-31 18:00:11.870826401,(1 -1 -2 -16 -9 -5 -1 1)
1969-12-31 18:00:11.900905466,(-1 6 6 -3 4 8 -1 -5)
1969-12-31 18:00:11.900905466,(2 -8 -12 10 8 5 4 4)
1969-12-31 18:00:11.902108628,(-10 3 23 -2 -6 -2 -5 -11)
1969-12-31 18:00:11.902108628,(-2 -9 -12 2 3 -5 -3 0)
1969-12-31 18:00:11.915343417,(-7 -8 -25 -11 -2 -10 -5 -2)
1969-12-31 18:00:11.915343417,(6 9 11 -2 1 3 2 2)
1969-12-31 18:00:11.926171880,(8 14 23 4 6 11 7 6)
1969-12-31 18:00:11.926171880,(4 -4 -19 10 4 1 -1 2)
1969-12-31 18:00:11.927375043,(-18 -6 11 -47 -20 -9 -12 -14)
1969-12-31 18:00:11.927375043,(1 -4 -10 25 5 2 -1 -1)
1969-12-31 18:00:11.943016157,(1 10 17 8 1 4 -1 1)
1969-12-31 18:00:11.943016157,(14 10 0 28 18 4 3 8)
1969-12-31 18:00:11.953844620,(-9 -11 -7 -28 -12 -5 -7 -3)
1969-12-31 18:00:11.953844620,(-3 -1 -3 -14 -5 -1 -3 -3)
1969-12-31 18:00:11.969485734,(7 1 -24 -11 5 4 5 7)
1969-12-31 18:00:11.969485734,(-7 -5 10 -1 -1 3 3 0)
1969-12-31 18:00:11.980314197,(1 5 3 18 11 1 2 1)
1969-12-31 18:00:11.980314197,(-3 -3 -5 -7 -4 -6 -1 1)
1969-12-31 18:00:11.998361636,(-11 -6 0 -10 -5 -7 -6 -9)
1969-12-31 18:00:11.998361636,(8 9 1 -5 -7 3 4 5)
1969-12-31 18:00:12.000767961,(-1 -4 -8 12 7 -3 -2 0)
1969-12-31 18:00:12.000767961,(-14 -8 20 16 3 -5 -4 -9)
1969-12-31 18:00:12.026034376,(3 -3 -8 -9 -3 -8 -1 0)
1969-12-31 18:00:12.026034376,(-9 -6 -3 9 4 -8 -5 -9)
1969-12-31 18:00:12.027237539,(-2 -7 8 9 -12 -5 1 -1)
1969-12-31 18:00:12.027237539,(13 10 -1 -2 1 -1 1 6)
1969-12-31 18:00:12.041675490,(3 -14 -14 4 2 2 4 3)
1969-12-31 18:00:12.041675490,(-15 -8 -5 -13 -3 -2 -9 -11)
1969-12-31 18:00:12.052503953,(10 10 4 -11 -6 10 10 9)
1969-12-31 18:00:12.052503953,(3 -2 1 10 7 4 3 7)
1969-12-31 18:00:12.070551392,(-9 2 -11 -11 -1 6 1 -5)
1969-12-31 18:00:12.070551392,(10 10 16 25 5 -2 2 8)
1969-12-31 18:00:12.072957717,(5 -7 1 9 9 5 3 3)
1969-12-31 18:00:12.072957717,(0 -2 -11 -28 -10 0 -2 -1)
1969-12-31 18:00:12.098224132,(0 1 0 -6 -8 -6 -3 0)
1969-12-31 18:00:12.098224132,(-3 5 1 9 11 5 -1 -3)
1969-12-31 18:00:12.099427295,(-2 2 -3 -22 -8 -6 -4 -6)
1969-12-31 18:00:12.099427295,(12 5 18 61 14 1 2 7)
1969-12-31 18:00:12.113865246,(-14 -10 8 -25 -10 -11 -6 -8)
1969-12-31 18:00:12.113865246,(3 0 -4 -21 -10 -3 -1 1)
1969-12-31 18:00:12.124693709,(3 1 4 32 5 -4 -3 -1)
1969-12-31 18:00:12.124693709,(2 1 -18 -51 -13 2 3 0)
1969-12-31 18:00:12.142741148,(1 -2 -3 41 6 0 -2 -1)
1969-12-31 18:00:12.142741148,(-3 -2 7 -14 -8 -3 -3 -4)
1969-12-31 18:00:12.143944311,(3 1 -6 -11 -4 5 2 1)
1969-12-31 18:00:12.143944311,(-4 -2 -3 -2 1 -1 -3 -4)
1969-12-31 18:00:12.170413888,(0 -3 0 9 -1 -7 -4 -1)
1969-12-31 18:00:12.170413888,(-2 -4 -8 -14 -8 -7 -1 -2)
1969-12-31 18:00:12.171617051,(1 7 5 21 6 2 5 0)
1969-12-31 18:00:12.171617051,(0 3 -1 -3 -1 -1 2 -1)
1969-12-31 18:00:12.186055001,(2 -1 4 -3 2 2 -1 -3)
1969-12-31 18:00:12.186055001,(0 -3 -3 -2 -2 3 -1 0)
1969-12-31 18:00:12.196883465,(-3 3 6 -1 3 3 -1 -1)
1969-12-31 18:00:12.196883465,(-1 -2 0 2 -2 -2 0 1)
1969-12-31 18:00:12.214930904,(1 -3 -6 -8 -4 1 0 3)
1969-12-31 18:00:12.214930904,(-1 -1 1 -4 1 -2 -1 -3)
1969-12-31 18:00:12.216134067,(0 0 2 9 8 2 -1 0)
1969-12-31 18:00:12.216134067,(-6 -5 -5 -6 -2 -2 -2 -4)
1969-12-31 18:00:12.243806806,(3 2 -3 7 3 0 0 0)
1969-12-31 18:00:12.243806806,(-1 -4 -1 -3 -6 -4 -3 -1)
1969-12-31 18:00:12.245009969,(0 1 -2 -3 -5 -1 -1 0)
1969-12-31 18:00:12.245009969,(2 -1 -7 -7 0 6 4 4)
1969-12-31 18:00:12.258244758,(3 1 2 -1 -1 -2 -2 -1)
1969-12-31 18:00:12.258244758,(-4 7 21 13 6 -1 -4 -2)
1969-12-31 18:00:12.269073221,(-2 -8 -8 -6 -5 -5 -5 -3)
1969-12-31 18:00:12.269073221,(11 9 -3 -12 -2 6 6 8)
1969-12-31 18:00:12.269073221,(1 12 41 51 37 7 2 1)
1969-12-31 18:00:12.269073221,(-4 -13 -56 -87 -48 -15 -8 -3)
1969-12-31 18:00:12.294339636,(1 5 8 -41 -11 4 7 3)
1969-12-31 18:00:12.294339636,(13 18 42 82 47 14 9 10)
1969-12-31 18:00:12.295542798,(-5 -10 -22 -14 -1 4 1 -3)
1969-12-31 18:00:12.295542798,(-6 -17 -16 28 20 2 -3 -6)
1969-12-31 18:00:12.311183912,(-10 -9 -4 -37 -75 -23 -10 -8)
1969-12-31 18:00:12.311183912,(-10 -12 -61 -128 -83 -22 -6 -7)
1969-12-31 18:00:12.320809213,(14 20 69 120 103 15 3 7)
1969-12-31 18:00:12.320809213,(10 35 100 77 75 32 11 6)
1969-12-31 18:00:12.338856652,(0 3 12 -65 53 15 1 -3)
1969-12-31 18:00:12.338856652,(3 -19 -70 -80 -96 -18 0 6)
1969-12-31 18:00:12.341262977,(-16 -25 -88 -128 -65 -33 -11 -9)
1969-12-31 18:00:12.341262977,(12 13 24 80 41 13 6 7)
1969-12-31 18:00:12.365326229,(-8 1 50 127 51 9 -1 -6)
1969-12-31 18:00:12.365326229,(2 10 14 21 -9 7 7 1)
1969-12-31 18:00:12.367732554,(-19 -46 -128 -128 -106 -40 -19 -11)
1969-12-31 18:00:12.367732554,(-9 -13 -42 -53 -109 -27 -8 -4)
1969-12-31 18:00:12.373748367,(12 37 99 113 107 31 11 6)
1969-12-31 18:00:12.373748367,(12 22 64 63 48 26 9 4)
1969-12-31 18:00:12.382170505,(10 9 42 86 53 14 4 4)
1969-12-31 18:00:12.382170505,(-22 -32 -97 -128 -115 -30 -9 -12)
1969-12-31 18:00:12.401421107,(6 3 23 58 55 -2 -3 3)
1969-12-31 18:00:12.401421107,(-8 17 92 119 109 25 -2 -11)
1969-12-31 18:00:12.409843245,(6 12 19 -26 21 23 10 4)
1969-12-31 18:00:12.409843245,(-5 -9 -41 -77 -68 -19 -4 -5)
1969-12-31 18:00:12.429093847,(3 -18 -77 -66 -57 -23 -3 5)
1969-12-31 18:00:12.429093847,(-8 -7 -4 4 -15 -17 -9 -7)
1969-12-31 18:00:12.431500171,(4 12 12 -12 -25 -4 0 2)
1969-12-31 18:00:12.431500171,(-2 -11 -18 -36 18 3 1 3)
1969-12-31 18:00:12.445938123,(-14 -15 -53 -81 -58 -14 -7 -9)
1969-12-31 18:00:12.445938123,(5 2 8 -30 10 1 3 6)
1969-12-31 18:00:12.456766586,(4 13 55 117 -10 1 -1 0)
1969-12-31 18:00:12.456766586,(7 8 17 7 67 9 1 4)
1969-12-31 18:00:12.473610863,(8 2 11 53 15 13 8 8)
1969-12-31 18:00:12.473610863,(3 1 10 91 37 9 4 5)
1969-12-31 18:00:12.482033001,(-7 -7 -20 -33 -26 -11 -6 -5)
1969-12-31 18:00:12.482033001,(-1 -2 -6 -45 -8 -5 -5 -2)
1969-12-31 18:00:12.501283603,(3 6 3 -20 -12 0 1 2)
1969-12-31 18:00:12.501283603,(0 -6 -30 -59 -24 -6 -3 0)
1969-12-31 18:00:12.503689928,(-1 2 12 19 7 5 -2 -1)
1969-12-31 18:00:12.503689928,(3 4 15 46 29 9 5 2)
1969-12-31 18:00:12.526550017,(1 -4 -23 -41 -21 -2 2 2)
1969-12-31 18:00:12.526550017,(-3 -4 -9 -35 -34 -10 -4 -3)
1969-12-31 18:00:12.537378481,(-2 -1 6 8 9 1 -1 -1)
1969-12-31 18:00:12.537378481,(-1 0 10 24 35 5 0 0)
1969-12-31 18:00:12.555425920,(1 -1 -8 -13 -23 0 2 3)
1969-12-31 18:00:12.555425920,(-1 -4 -10 -6 0 -3 -4 -1)
1969-12-31 18:00:12.557832245,(1 -2 -3 0 1 -2 1 0)
1969-12-31 18:00:12.557832245,(-2 1 11 20 2 -2 -3 -3)
1969-12-31 18:00:12.583098659,(1 1 1 -12 -15 1 1 2)
1969-12-31 18:00:12.583098659,(-3 -6 -10 10 1 -3 -1 -2)
1969-12-31 18:00:12.584301822,(-1 -2 -11 -28 -7 -1 0 1)
1969-12-31 18:00:12.584301822,(-1 2 12 10 -3 1 0 0)
1969-12-31 18:00:12.598739773,(13 3 2 3 0 4 7 7)
1969-12-31 18:00:12.598739773,(-11 -5 -9 -5 -1 -3 -4 -11)
1969-12-31 18:00:12.609568237,(-2 -2 -5 -21 -10 -6 -5 -3)
1969-12-31 18:00:12.609568237,(-6 3 12 21 11 2 1 -2)
1969-12-31 18:00:12.627615675,(3 -5 -5 11 -1 -2 -1 0)
1969-12-31 18:00:12.627615675,(-32 -9 -14 -19 -10 -5 -2 -3)
1969-12-31 18:00:12.630022001,(34 8 0 -18 -6 0 3 5)
1969-12-31 18:00:12.630022001,(-11 -3 7 34 15 3 1 -5)
1969-12-31 18:00:12.663710553,(-16 -7 -8 -15 -9 -2 -2 -6)
1969-12-31 18:00:12.663710553,(5 3 -2 -9 -5 0 2 1)
1969-12-31 18:00:12.666116879,(-9 -2 0 4 5 1 0 2)
1969-12-31 18:00:12.666116879,(5 1 3 6 0 -3 -7 -3)
1969-12-31 18:00:12.670929529,(1 -3 -4 -10 -5 -1 -1 -1)
1969-12-31 18:00:12.670929529,(3 -1 -5 -6 -5 -3 -3 1)
1969-12-31 18:00:12.691383293,(-9 -1 2 5 4 1 2 1)
1969-12-31 18:00:12.691383293,(9 5 6 3 0 3 3 6)
1969-12-31 18:00:12.699805431,(-10 -3 2 0 -2 -1 -6 -7)
1969-12-31 18:00:12.699805431,(15 7 -1 -6 1 6 4 9)
1969-12-31 18:00:12.702211757,(-4 2 -2 -10 -4 2 0 -2)
1969-12-31 18:00:12.702211757,(7 8 2 -3 4 7 2 1)
1969-12-31 18:00:12.727478171,(-1 -7 3 1 -2 -2 -2 2)
1969-12-31 18:00:12.727478171,(19 14 0 -1 2 4 1 -5)
1969-12-31 18:00:12.728681334,(-27 -13 -2 -6 -4 -5 -6 -10)
1969-12-31 18:00:12.728681334,(10 0 -2 -3 -3 -2 0 3)
1969-12-31 18:00:12.743119285,(-9 -2 -3 -3 -14 -6 -3 -3)
1969-12-31 18:00:12.743119285,(18 1 -6 -9 8 2 8 14)
1969-12-31 18:00:12.753947748,(-4 6 -7 -82 -36 -2 2 -5)
1969-12-31 18:00:12.753947748,(-12 -2 25 102 55 8 -2 -4)
1969-12-31 18:00:12.770792025,(7 5 9 6 13 6 2 2)
1969-12-31 18:00:12.770792025,(-6 -10 -4 -4 -5 -2 -4 -3)
1969-12-31 18:00:12.781620488,(-1 2 -4 -8 0 1 3 5)
1969-12-31 18:00:12.781620488,(10 -16 -31 -93 -50 -14 1 14)
1969-12-31 18:00:12.799667927,(5 10 2 -12 -5 1 2 -8)
1969-12-31 18:00:12.799667927,(-12 6 28 85 35 7 -4 -12)
1969-12-31 18:00:12.800871090,(26 -6 -9 6 -2 -8 0 11)
1969-12-31 18:00:12.800871090,(-5 16 19 15 13 14 -2 -25)
1969-12-31 18:00:12.815309041,(-16 -11 -13 -21 -9 -9 -7 -4)
1969-12-31 18:00:12.815309041,(3 -8 -12 -31 -20 -7 1 7)
1969-12-31 18:00:12.826137504,(-11 -7 0 15 4 -4 -3 0)
1969-12-31 18:00:12.826137504,(3 5 -3 -5 1 3 7 8)
1969-12-31 18:00:12.844184943,(12 -5 -66 -122 -61 -12 -1 3)
1969-12-31 18:00:12.844184943,(-14 -2 24 81 26 0 0 -4)
1969-12-31 18:00:12.852607081,(6 17 77 126 70 15 -1 -2)
1969-12-31 18:00:12.852607081,(-44 -17 18 14 25 2 -7 -13)
1969-12-31 18:00:12.871857683,(21 19 11 -44 2 6 5 4)
1969-12-31 18:00:12.871857683,(4 -13 -47 -83 -39 -14 -4 3)
1969-12-31 18:00:12.873060846,(6 -4 -29 -36 -18 -7 -1 -1)
1969-12-31 18:00:12.873060846,(19 3 8 3 -12 -11 -3 5)
1969-12-31 18:00:12.888701959,(-4 -2 19 45 18 7 2 -2)
1969-12-31 18:00:12.888701959,(-44 -14 -7 -24 -7 -4 -13 -26)
1969-12-31 18:00:12.898327260,(55 27 -4 -7 -4 1 1 15)
1969-12-31 18:00:12.898327260,(-36 -19 -19 -21 -16 -10 -7 -12)
1969-12-31 18:00:12.916374699,(27 7 7 33 11 5 12 23)
1969-12-31 18:00:12.916374699,(7 -1 -5 -38 -6 -1 0 2)
1969-12-31 18:00:12.924796837,(-31 -11 -17 -50 -8 3 3 -7)
1969-12-31 18:00:12.924796837,(10 -5 -31 -36 -25 -4 0 6)
1969-12-31 18:00:12.944047439,(-26 1 41 87 24 -1 -9 -13)
1969-12-31 18:00:12.944047439,(13 12 41 66 29 12 6 6)
1969-12-31 18:00:12.945250602,(-22 -9 -12 -11 -4 0 -4 -6)
1969-12-31 18:00:12.945250602,(38 4 -18 -46 -16 -1 7 17)
1969-12-31 18:00:12.959688553,(12 12 17 40 -2 3 3 2)
1969-12-31 18:00:12.959688553,(-13 -4 1 -7 -3 -11 -13 -8)
1969-12-31 18:00:12.970517016,(3 -5 1 4 -1 0 -2 -11)
1969-12-31 18:00:12.970517016,(-12 -3 -8 -15 -1 -11 -19 -24)
1969-12-31 18:00:12.987361293,(-72 -33 -13 -25 -4 -5 -4 -20)
1969-12-31 18:00:12.987361293,(79 42 -1 -11 -14 -4 2 23)
1969-12-31 18:00:12.995783431,(-35 -9 -3 -3 -5 -5 -9 -9)
1969-12-31 18:00:12.995783431,(11 -3 -3 1 6 13 15 17)
1969-12-31 18:00:13.016237195,(22 6 -18 -57 -8 0 3 15)
1969-12-31 18:00:13.016237195,(-21 -13 -28 -100 -35 -2 6 1)
1969-12-31 18:00:13.017440358,(-5 2 42 98 30 2 -2 -7)
1969-12-31 18:00:13.017440358,(5 14 43 91 35 2 -2 -2)
1969-12-31 18:00:13.031878309,(6 4 20 41 27 6 0 1)
1969-12-31 18:00:13.031878309,(10 -7 -19 -47 -13 5 10 14)
1969-12-31 18:00:13.042706772,(-38 -28 -48 -102 -42 -16 -16 -21)
1969-12-31 18:00:13.042706772,(12 7 -3 -54 -28 -1 9 10)
1969-12-31 18:00:13.060754211,(3 -3 -7 25 25 0 -1 0)
1969-12-31 18:00:13.060754211,(14 10 17 42 -5 8 4 9)
1969-12-31 18:00:13.067973187,(15 19 24 39 27 15 11 11)
1969-12-31 18:00:13.067973187,(-8 -11 -3 8 -1 -6 -11 -9)
1969-12-31 18:00:13.087223788,(-10 -11 -30 -50 -11 -9 -7 -10)
1969-12-31 18:00:13.087223788,(-10 -15 -4 -29 -10 -2 -2 -3)
1969-12-31 18:00:13.089630113,(11 0 3 -14 -30 -7 3 11)
1969-12-31 18:00:13.089630113,(-9 0 -5 41 10 4 4 2)
1969-12-31 18:00:13.117302853,(22 12 26 74 27 5 2 7)
1969-12-31 18:00:13.117302853,(-37 -14 11 52 40 4 -6 -14)
1969-12-31 18:00:13.118506016,(-12 3 2 -1 9 5 -12 -10)
1969-12-31 18:00:13.118506016,(0 14 -3 -48 -22 -12 -15 -31)
1969-12-31 18:00:13.132943967,(-21 -16 -21 -37 -37 -18 -13 -14)
1969-12-31 18:00:13.132943967,(-7 3 -3 10 -16 1 18 2)
1969-12-31 18:00:13.140162943,(19 -3 -15 -23 22 14 22 31)
1969-12-31 18:00:13.140162943,(11 2 -9 10 45 11 5 8)
1969-12-31 18:00:13.160616707,(-14 2 26 48 -15 11 1 -3)
1969-12-31 18:00:13.160616707,(20 19 17 18 16 -9 -19 -11)
1969-12-31 18:00:13.161819869,(-18 -12 -6 -6 -19 -10 -5 -11)
1969-12-31 18:00:13.161819869,(0 -7 -22 -50 -20 -12 -9 -8)
1969-12-31 18:00:13.187086284,(-45 -28 -7 10 -1 -12 -9 -9)
1969-12-31 18:00:13.187086284,(81 44 12 20 -7 8 10 23)
1969-12-31 18:00:13.189492609,(-2 -6 -20 -31 12 9 17 6)
1969-12-31 18:00:13.189492609,(5 15 19 49 9 7 -6 -2)
1969-12-31 18:00:13.203930560,(0 -3 1 -18 -9 -4 -1 -7)
1969-12-31 18:00:13.203930560,(-24 -14 -4 13 10 -3 -8 -8)
1969-12-31 18:00:13.214759024,(5 4 16 54 1 -13 -26 -11)
1969-12-31 18:00:13.214759024,(-9 -7 -1 -21 -21 -11 -4 -5)
1969-12-31 18:00:13.232806463,(18 11 -11 -26 0 18 48 24)
1969-12-31 18:00:13.232806463,(-7 -11 -15 -34 -2 4 9 14)
1969-12-31 18:00:13.234009625,(11 4 -9 -22 -20 0 3 -1)
1969-12-31 18:00:13.234009625,(-12 -8 5 18 13 7 -9 2)
1969-12-31 18:00:13.259276040,(4 7 5 -2 16 -4 -23 -12)
1969-12-31 18:00:13.259276040,(-16 -11 -1 8 0 3 6 -7)
1969-12-31 18:00:13.261682365,(-3 -2 -8 -30 8 -2 -4 -3)
1969-12-31 18:00:13.261682365,(-5 0 1 15 -14 -12 -7 -3)
1969-12-31 18:00:13.276120316,(14 8 7 15 -10 -2 -4 8)
1969-12-31 18:00:13.276120316,(-13 -10 -9 -21 4 5 9 0)
1969-12-31 18:00:13.285745617,(-6 -13 -8 -1 -16 -4 0 4)
1969-12-31 18:00:13.285745617,(1 -1 1 -14 0 1 11 15)
1969-12-31 18:00:13.304996219,(-10 -2 2 2 13 -2 -17 -28)
1969-12-31 18:00:13.304996219,(-31 -9 7 24 -2 -8 -18 -27)
1969-12-31 18:00:13.306199381,(25 20 6 -2 -3 -5 -4 -1)
1969-12-31 18:00:13.306199381,(-12 -19 -10 -5 7 9 20 14)
1969-12-31 18:00:13.331465796,(-25 -26 -15 -16 -7 -2 -3 -5)
1969-12-31 18:00:13.331465796,(69 44 12 1 5 4 6 32)
1969-12-31 18:00:13.333872121,(-21 -13 -15 -27 3 -2 1 -12)
1969-12-31 18:00:13.333872121,(7 6 7 12 -9 2 2 4)
1969-12-31 18:00:13.348310072,(18 11 11 18 -5 0 3 8)
1969-12-31 18:00:13.348310072,(-20 -15 -7 -25 6 0 0 -4)
1969-12-31 18:00:13.359138536,(2 5 10 35 8 7 4 5)
1969-12-31 18:00:13.359138536,(23 15 -13 -62 1 3 -1 6)
1969-12-31 18:00:13.377185975,(7 7 -5 24 -2 0 5 9)
1969-12-31 18:00:13.377185975,(-10 -14 9 25 3 1 5 2)
1969-12-31 18:00:13.378389137,(-4 -2 8 15 -2 -13 -19 -14)
1969-12-31 18:00:13.378389137,(-36 -11 9 12 -6 4 4 -21)
1969-12-31 18:00:13.403655552,(31 16 -15 -54 0 5 10 19)
1969-12-31 18:00:13.403655552,(-22 -12 -13 -15 -8 -8 -7 -8)
1969-12-31 18:00:13.406061877,(16 4 4 17 -5 1 2 8)
1969-12-31 18:00:13.406061877,(-14 -2 1 0 -2 -5 -7 -10)
1969-12-31 18:00:13.420499828,(10 -3 -14 -42 -4 -7 -5 1)
1969-12-31 18:00:13.420499828,(-47 -25 0 37 7 5 4 -6)
1969-12-31 18:00:13.431328291,(10 6 8 10 6 12 11 7)
1969-12-31 18:00:13.431328291,(7 3 1 3 0 -3 2 8)
1969-12-31 18:00:13.449375730,(14 11 4 -24 -4 1 1 -3)
1969-12-31 18:00:13.449375730,(4 4 -1 13 -3 -7 -7 -5)
1969-12-31 18:00:13.450578893,(8 -1 12 12 12 11 11 13)
1969-12-31 18:00:13.450578893,(-21 -8 -6 3 2 -3 -7 -14)
1969-12-31 18:00:13.475845308,(6 -8 -20 -28 -21 -12 -9 3)
1969-12-31 18:00:13.475845308,(-6 -5 -17 -29 -7 -6 -6 -8)
1969-12-31 18:00:13.478251633,(-8 -4 -18 -87 -14 -3 1 3)
1969-12-31 18:00:13.478251633,(11 5 30 109 15 7 8 9)
1969-12-31 18:00:13.502314885,(-26 -10 13 13 29 1 -10 -11)
1969-12-31 18:00:13.502314885,(5 3 0 30 -21 -6 -7 -6)
1969-12-31 18:00:13.503518047,(-16 0 12 35 8 -2 -7 -16)
1969-12-31 18:00:13.503518047,(-19 5 5 -11 -1 -3 -5 -10)
1969-12-31 18:00:13.520362324,(34 13 15 31 15 18 25 31)
1969-12-31 18:00:13.520362324,(-56 -36 -26 -33 -10 -23 -36 -53)
1969-12-31 18:00:13.521565486,(70 32 -2 5 3 10 26 54)
1969-12-31 18:00:13.521565486,(-34 -29 -14 -18 -14 -13 -14 -15)
1969-12-31 18:00:13.546831901,(18 25 4 12 1 2 4 3)
1969-12-31 18:00:13.546831901,(22 17 1 3 6 6 16 31)
1969-12-31 18:00:13.548035064,(-2 -6 -11 -43 -8 -3 -5 -21)
1969-12-31 18:00:13.548035064,(14 13 7 7 12 7 12 23)
1969-12-31 18:00:13.574504641,(-18 -23 -33 16 2 -13 -14 -22)
1969-12-31 18:00:13.574504641,(2 6 53 76 -11 0 -3 -5)
1969-12-31 18:00:13.575707803,(-26 2 51 93 23 6 -6 -18)
1969-12-31 18:00:13.575707803,(19 6 3 -10 17 2 3 7)
1969-12-31 18:00:13.592552080,(-7 -6 -29 -106 -7 1 5 4)
1969-12-31 18:00:13.592552080,(-1 -19 -40 3 -1 -3 -6 -3)
1969-12-31 18:00:13.593755242,(45 27 4 53 20 7 11 19)
1969-12-31 18:00:13.593755242,(-7 -13 0 -23 -14 0 1 -5)
1969-12-31 18:00:13.619021657,(6 19 24 40 -8 -8 -6 -2)
1969-12-31 18:00:13.619021657,(30 17 -13 -81 -10 1 7 13)
1969-12-31 18:00:13.620224820,(-21 -11 -59 -123 -53 -22 -17 -14)
1969-12-31 18:00:13.620224820,(20 -24 -14 84 23 -1 8 20)
1969-12-31 18:00:13.649100722,(-37 -21 29 35 24 -10 -31 -42)
1969-12-31 18:00:13.649100722,(12 20 38 51 -3 22 25 25)
1969-12-31 18:00:13.649100722,(-30 -24 -31 -56 -8 -15 -21 -29)
1969-12-31 18:00:13.649100722,(13 4 -41 -108 -12 -1 6 8)
1969-12-31 18:00:13.664741836,(-7 -4 3 -21 -7 2 4 4)
1969-12-31 18:00:13.664741836,(-11 1 30 53 18 -4 -8 -12)
1969-12-31 18:00:13.665944998,(28 14 15 83 26 20 24 30)
1969-12-31 18:00:13.665944998,(7 12 6 -7 -7 -1 -7 -14)
1969-12-31 18:00:13.682789275,(8 -5 -19 -42 -8 2 7 10)
1969-12-31 18:00:13.682789275,(-23 -26 -34 -88 -11 -9 -11 -16)
1969-12-31 18:00:13.683992437,(-32 -23 0 8 -18 -4 4 -6)
1969-12-31 18:00:13.683992437,(78 58 20 34 11 10 14 32)
1969-12-31 18:00:13.702039876,(-18 -1 13 29 0 0 -7 -21)
1969-12-31 18:00:13.702039876,(9 -2 -4 -18 3 1 10 21)
1969-12-31 18:00:13.709258852,(2 -5 -12 -10 13 -8 -20 -26)
1969-12-31 18:00:13.709258852,(6 8 2 -94 -29 16 32 37)
1969-12-31 18:00:13.728509453,(2 4 -13 49 -3 -1 7 17)
1969-12-31 18:00:13.728509453,(1 -3 -8 -48 -12 -4 -4 -9)
1969-12-31 18:00:13.735728429,(-20 -4 36 101 32 3 1 -1)
1969-12-31 18:00:13.735728429,(-25 -14 25 37 15 1 -12 -18)
1969-12-31 18:00:13.754979031,(23 24 8 10 -6 4 5 9)
1969-12-31 18:00:13.754979031,(-11 -6 -21 -53 5 2 1 -5)
1969-12-31 18:00:13.763401169,(0 -5 -28 -21 -13 -7 2 6)
1969-12-31 18:00:13.763401169,(-26 -16 7 57 -17 -9 -17 -26)
1969-12-31 18:00:13.774229632,(-6 -12 15 21 -1 -3 -2 7)
1969-12-31 18:00:13.774229632,(12 31 -5 7 11 -11 -17 -15)
1969-12-31 18:00:13.781448608,(-74 -62 3 -41 -4 10 2 -31)
1969-12-31 18:00:13.781448608,(94 81 14 -4 10 13 30 57)
1969-12-31 18:00:13.799496047,(13 -7 -18 -9 -6 -12 -17 -6)
1969-12-31 18:00:13.799496047,(2 -4 1 -9 -7 -4 8 25)
1969-12-31 18:00:13.807918185,(-20 6 4 -4 -5 -4 -7 -18)
1969-12-31 18:00:13.807918185,(-48 -46 -18 -9 -9 -20 -28 -34)
1969-12-31 18:00:13.827168787,(18 26 14 0 4 16 20 7)
1969-12-31 18:00:13.827168787,(-2 -12 14 28 17 19 21 20)
1969-12-31 18:00:13.828371949,(-42 -32 -21 -30 -22 -29 -38 -40)
1969-12-31 18:00:13.828371949,(-3 7 5 23 9 4 2 3)
1969-12-31 18:00:13.846419388,(11 10 3 -1 -6 -5 -7 -7)
1969-12-31 18:00:13.846419388,(4 -3 1 16 3 1 9 2)
1969-12-31 18:00:13.863263664,(18 10 0 -2 -7 -10 -13 3)
1969-12-31 18:00:13.863263664,(-53 -32 -14 -25 -13 -19 -34 -48)
1969-12-31 18:00:13.871685803,(4 -3 -2 3 9 20 22 16)
1969-12-31 18:00:13.871685803,(35 20 -2 -4 -2 5 16 31)
1969-12-31 18:00:13.881311103,(-17 8 3 -6 -3 -1 -7 -20)
1969-12-31 18:00:13.881311103,(5 -7 -7 -26 -10 -12 -6 7)
1969-12-31 18:00:13.899358542,(-12 -8 -2 10 5 9 11 -5)
1969-12-31 18:00:13.899358542,(-33 -12 -1 11 7 7 5 11)
1969-12-31 18:00:13.900561705,(35 30 8 4 6 6 9 16)
1969-12-31 18:00:13.900561705,(-34 -28 -5 10 2 1 -6 -22)
1969-12-31 18:00:13.918609144,(60 38 23 21 2 3 10 22)
1969-12-31 18:00:13.918609144,(-23 -17 -1 -8 -7 0 -8 -17)
1969-12-31 18:00:13.925828120,(10 -5 -11 -18 -5 0 5 16)
1969-12-31 18:00:13.925828120,(-4 6 -4 7 16 21 16 1)
1969-12-31 18:00:13.943875559,(-72 -45 -4 -10 -9 -7 4 8)
1969-12-31 18:00:13.943875559,(104 74 4 17 0 -15 -25 -19)
1969-12-31 18:00:13.952297697,(-6 -9 1 4 -5 -5 -5 -3)
1969-12-31 18:00:13.952297697,(-26 -12 -4 -14 -3 1 2 -4)
1969-12-31 18:00:13.971548298,(-29 -27 -20 -23 -3 3 0 -6)
1969-12-31 18:00:13.971548298,(17 5 20 25 16 18 28 47)
1969-12-31 18:00:13.972751461,(-10 -3 -9 -3 -13 -24 -33 -29)
1969-12-31 18:00:13.972751461,(29 18 4 2 1 -4 -7 -6)
1969-12-31 18:00:13.990798900,(17 9 -7 -56 -20 -7 -5 6)
1969-12-31 18:00:13.990798900,(-49 -34 -13 0 2 -7 -12 -26)
1969-12-31 18:00:13.998017876,(29 14 31 63 15 23 31 40)
1969-12-31 18:00:13.998017876,(-20 -13 14 37 -2 -13 -14 -14)
1969-12-31 18:00:14.016065315,(11 11 0 8 7 6 5 5)
1969-12-31 18:00:14.016065315,(-28 -11 -5 -19 -3 -5 -14 -25)
1969-12-31 18:00:14.024487453,(18 14 -15 -42 -8 5 19 29)
1969-12-31 18:00:14.024487453,(-53 -71 -25 -36 -25 -14 -14 -23)
1969-12-31 18:00:14.043738054,(36 36 15 20 14 18 19 10)
1969-12-31 18:00:14.043738054,(-98 -72 -8 12 -5 -16 -32 -63)
1969-12-31 18:00:14.044941217,(90 50 22 20 18 22 38 67)
1969-12-31 18:00:14.044941217,(26 19 -1 -1 7 16 28 21)
1969-12-31 18:00:14.061785493,(-23 -26 -15 -17 -13 -25 -36 -31)
1969-12-31 18:00:14.061785493,(-22 -12 -18 -28 -11 4 3 -15)
1969-12-31 18:00:14.070207631,(-50 -46 7 7 -3 -4 -8 -18)
1969-12-31 18:00:14.070207631,(94 94 19 23 1 2 13 29)
1969-12-31 18:00:14.088255070,(3 -4 5 14 11 2 -3 2)
1969-12-31 18:00:14.088255070,(36 23 -26 -78 -17 -6 -1 11)
1969-12-31 18:00:14.096677209,(9 10 -1 33 -4 2 5 7)
1969-12-31 18:00:14.096677209,(-33 -16 21 70 27 0 -13 -23)
1969-12-31 18:00:14.118334135,(-37 -5 23 39 12 -10 -17 -24)
1969-12-31 18:00:14.118334135,(22 -3 -9 -4 -21 -6 0 12)
1969-12-31 18:00:14.118334135,(-41 -23 -25 -66 -7 1 -5 -27)
1969-12-31 18:00:14.118334135,(-6 -5 -23 -46 -15 0 14 30)
1969-12-31 18:00:14.135178412,(46 25 0 12 -5 -14 -16 -4)
1969-12-31 18:00:14.135178412,(-34 -30 4 10 6 -9 -15 -27)
1969-12-31 18:00:14.142397387,(4 -4 -21 -41 -12 -2 -3 -4)
1969-12-31 18:00:14.142397387,(-12 -10 3 12 2 13 14 13)
1969-12-31 18:00:14.160444826,(-5 10 30 40 16 15 17 6)
1969-12-31 18:00:14.160444826,(6 10 17 14 9 5 -2 -2)
1969-12-31 18:00:14.168866965,(9 6 -7 11 20 -3 -4 -1)
1969-12-31 18:00:14.168866965,(-2 -4 -11 -45 -44 -12 -12 -10)
1969-12-31 18:00:14.188117566,(-5 -6 6 38 11 8 9 9)
1969-12-31 18:00:14.188117566,(-4 3 10 22 -2 -11 -7 -8)
1969-12-31 18:00:14.189320728,(24 27 2 -9 22 22 21 25)
1969-12-31 18:00:14.189320728,(5 -17 -26 -66 -3 -12 -14 -5)
1969-12-31 18:00:14.207368168,(-15 -11 -1 18 -30 -11 -10 -14)
1969-12-31 18:00:14.207368168,(-42 -17 24 56 31 6 4 -9)
1969-12-31 18:00:14.214587143,(13 1 11 8 -2 6 19 46)
1969-12-31 18:00:14.214587143,(43 18 -10 -20 -8 -19 -18 9)
1969-12-31 18:00:14.232634582,(-43 -35 -21 -45 -9 -3 -4 -10)
1969-12-31 18:00:14.232634582,(55 40 -4 -19 -6 4 9 17)
1969-12-31 18:00:14.241056721,(2 -3 7 10 -4 -5 -2 -2)
1969-12-31 18:00:14.241056721,(13 15 14 37 25 30 30 26)
1969-12-31 18:00:14.260307322,(-44 -43 -42 -110 -28 -18 -18 -21)
1969-12-31 18:00:14.260307322,(15 4 12 73 2 0 0 9)
1969-12-31 18:00:14.261510485,(-23 -2 39 70 30 4 -7 -25)
1969-12-31 18:00:14.261510485,(-6 12 24 50 23 8 4 -4)
1969-12-31 18:00:14.279557924,(10 5 -18 -23 18 -5 -5 -2)
1969-12-31 18:00:14.279557924,(14 8 -25 -54 -29 -1 8 12)
1969-12-31 18:00:14.286776899,(6 0 -36 -68 -54 -25 -17 -12)
1969-12-31 18:00:14.286776899,(-29 -17 8 20 2 -2 -5 -15)
1969-12-31 18:00:14.304824338,(6 7 25 33 11 11 6 10)
1969-12-31 18:00:14.304824338,(6 11 5 -2 14 -4 -7 -3)
1969-12-31 18:00:14.314449639,(-34 -31 0 24 9 1 -7 -24)
1969-12-31 18:00:14.314449639,(-16 -13 -27 -50 -18 -17 -22 -23)
1969-12-31 18:00:14.331293915,(-33 -30 -16 -18 -9 -4 -4 -13)
1969-12-31 18:00:14.331293915,(6 7 3 4 1 9 7 0)
1969-12-31 18:00:14.340919216,(18 7 -7 -32 -4 -1 5 20)
1969-12-31 18:00:14.340919216,(-5 -7 -13 -88 -27 -10 -5 -12)
1969-12-31 18:00:14.350544517,(15 9 27 97 5 7 11 17)
1969-12-31 18:00:14.350544517,(22 32 20 32 15 -3 -7 -1)
1969-12-31 18:00:14.358966655,(11 11 10 28 15 5 0 -1)
1969-12-31 18:00:14.358966655,(8 0 -3 -7 3 3 4 3)
1969-12-31 18:00:14.377014094,(9 9 -21 -36 -10 -6 3 9)
1969-12-31 18:00:14.377014094,(8 -10 -10 -23 -11 -5 0 10)
1969-12-31 18:00:14.385436232,(-17 -6 -17 -49 -21 -7 -5 -9)
1969-12-31 18:00:14.385436232,(-22 -11 10 69 26 1 -6 -13)
1969-12-31 18:00:14.403483671,(1 0 13 33 -13 -7 -13 -13)
1969-12-31 18:00:14.403483671,(-5 6 18 11 12 13 25 34)
1969-12-31 18:00:14.413108972,(-29 -18 -11 -6 -8 -19 -37 -53)
1969-12-31 18:00:14.413108972,(-8 -13 -11 -27 -1 3 10 14)
1969-12-31 18:00:14.423937436,(-5 0 -9 -14 -2 -1 -8 -19)
1969-12-31 18:00:14.423937436,(29 15 17 22 24 30 39 51)
1969-12-31 18:00:14.431156411,(-6 3 11 2 -4 2 7 1)
1969-12-31 18:00:14.431156411,(4 3 -20 -49 -9 -2 1 6)
1969-12-31 18:00:14.449203850,(12 1 -12 5 -7 5 10 12)
1969-12-31 18:00:14.449203850,(-12 2 11 60 -6 -9 -17 -21)
1969-12-31 18:00:14.457625988,(1 11 36 91 23 -1 -6 -5)
1969-12-31 18:00:14.457625988,(27 27 27 51 14 5 2 4)
1969-12-31 18:00:14.475673427,(76 50 3 -38 26 29 41 64)
1969-12-31 18:00:14.475673427,(-34 -34 -43 -79 -32 -21 -27 -36)
1969-12-31 18:00:14.485298728,(20 7 -4 -13 -6 6 14 21)
1969-12-31 18:00:14.485298728,(-74 -51 -7 0 -14 -17 -24 -38)
1969-12-31 18:00:14.496127191,(65 46 6 -17 -2 7 25 55)
1969-12-31 18:00:14.496127191,(16 -2 -10 -15 0 -1 -4 -2)
1969-12-31 18:00:14.503346167,(-32 -24 -5 -6 -7 -9 -15 -26)
1969-12-31 18:00:14.503346167,(65 45 16 25 18 29 37 51)
1969-12-31 18:00:14.521393606,(-35 -13 -28 -38 -17 -28 -34 -40)
1969-12-31 18:00:14.521393606,(-7 -8 2 2 1 0 -4 -7)
1969-12-31 18:00:14.529815744,(-22 15 16 -25 1 18 24 11)
1969-12-31 18:00:14.529815744,(-1 -10 -16 -12 -11 -3 -1 1)
1969-12-31 18:00:14.549066346,(-5 -4 35 111 69 13 4 -3)
1969-12-31 18:00:14.549066346,(-1 10 14 -4 -34 -4 -10 -11)
1969-12-31 18:00:14.557488484,(10 -2 -5 2 -5 -13 -10 -6)
1969-12-31 18:00:14.557488484,(12 10 -15 -49 -12 -3 3 9)
1969-12-31 18:00:14.576739086,(-20 -23 -7 -20 -3 2 -4 -16)
1969-12-31 18:00:14.576739086,(14 8 1 5 22 2 -1 6)
1969-12-31 18:00:14.576739086,(14 6 -12 -18 -1 4 5 11)
1969-12-31 18:00:14.576739086,(-38 -26 2 18 -2 3 5 -8)
1969-12-31 18:00:14.593583362,(-33 -39 -14 -24 -21 -25 -37 -44)
1969-12-31 18:00:14.593583362,(-19 6 0 7 10 14 8 -20)
1969-12-31 18:00:14.602005500,(25 6 -6 -17 -9 -3 -7 6)
1969-12-31 18:00:14.602005500,(-10 -11 -9 2 9 -1 -1 -9)
1969-12-31 18:00:14.630881403,(-20 -9 -2 -46 -38 -2 0 -8)
1969-12-31 18:00:14.630881403,(14 6 -11 -3 35 -5 5 12)
1969-12-31 18:00:14.630881403,(10 6 10 72 -2 9 6 7)
1969-12-31 18:00:14.630881403,(-13 -1 16 15 1 -6 -15 -26)
1969-12-31 18:00:14.648928842,(1 -1 7 -33 -3 0 4 8)
1969-12-31 18:00:14.648928842,(3 3 2 36 0 -11 -7 -3)
1969-12-31 18:00:14.648928842,(-3 -6 -21 -72 0 -5 -2 1)
1969-12-31 18:00:14.648928842,(6 0 -1 30 -5 1 -1 3)
1969-12-31 18:00:14.665773118,(0 4 3 42 -6 -4 0 3)
1969-12-31 18:00:14.665773118,(-32 -14 -1 -4 19 3 -21 -37)
1969-12-31 18:00:14.674195256,(-17 -11 14 25 13 4 1 -1)
1969-12-31 18:00:14.674195256,(-31 -16 -4 -16 -14 1 6 -1)
1969-12-31 18:00:14.692242695,(56 26 -27 -34 -16 -8 -4 9)
1969-12-31 18:00:14.692242695,(-12 -6 -8 -6 -16 -6 -6 -7)
1969-12-31 18:00:14.703071158,(9 2 0 4 9 1 2 7)
1969-12-31 18:00:14.703071158,(-9 -4 0 -4 4 -8 -16 -17)
1969-12-31 18:00:14.730743898,(4 7 0 -18 -24 3 12 11)
1969-12-31 18:00:14.730743898,(8 -7 5 13 -13 2 12 24)
1969-12-31 18:00:14.730743898,(4 11 10 4 5 -6 -13 -15)
1969-12-31 18:00:14.730743898,(28 14 -6 7 11 5 13 18)
1969-12-31 18:00:14.747588175,(-20 -15 -25 -70 -13 -1 -1 -6)
1969-12-31 18:00:14.747588175,(8 5 28 70 19 4 1 5)
1969-12-31 18:00:14.748791337,(-11 -2 35 82 46 17 4 -9)
1969-12-31 18:00:14.748791337,(-2 27 34 56 26 -1 -22 -30)
1969-12-31 18:00:14.775260914,(-12 -12 -9 -37 -9 -1 -1 -7)
1969-12-31 18:00:14.775260914,(-29 -27 -44 -89 -42 -13 -3 -10)
1969-12-31 18:00:14.776464077,(28 14 -11 -31 -7 5 16 25)
1969-12-31 18:00:14.776464077,(-9 -10 4 4 10 2 0 3)
1969-12-31 18:00:14.802933654,(-6 22 2 6 -24 -2 -5 -10)
1969-12-31 18:00:14.802933654,(-17 -17 -14 -50 7 4 8 3)
1969-12-31 18:00:14.804136817,(21 4 4 21 -21 0 7 16)
1969-12-31 18:00:14.804136817,(16 12 -1 0 6 -7 -8 -3)
1969-12-31 18:00:14.819777931,(-31 -19 11 25 19 -2 -10 -12)
1969-12-31 18:00:14.819777931,(1 -5 2 24 0 -9 -11 -11)
1969-12-31 18:00:14.820981093,(15 15 0 -7 7 12 17 22)
1969-12-31 18:00:14.820981093,(-37 -20 -9 -36 -16 -1 -3 -14)
1969-12-31 18:00:14.847450670,(-2 -26 -23 -60 -13 -8 -3 2)
1969-12-31 18:00:14.847450670,(66 55 11 32 1 3 6 20)
1969-12-31 18:00:14.847450670,(-43 -25 -2 -2 -5 -8 -12 -25)
1969-12-31 18:00:14.847450670,(-9 -2 11 14 -3 -8 -14 -21)
1969-12-31 18:00:14.875123410,(5 -2 24 72 31 4 -2 6)
1969-12-31 18:00:14.875123410,(8 -5 -13 -43 -19 -10 -12 -4)
1969-12-31 18:00:14.875123410,(16 13 -25 -68 -33 -14 -8 2)
1969-12-31 18:00:14.875123410,(1 0 -2 10 -4 3 5 1)
1969-12-31 18:00:14.891967686,(0 6 10 41 42 16 14 9)
1969-12-31 18:00:14.891967686,(-50 -32 -5 -6 -19 -4 -9 -13)
1969-12-31 18:00:14.893170849,(-3 -41 -9 13 2 -2 2 2)
1969-12-31 18:00:14.893170849,(41 44 -7 -30 -11 -8 -7 1)
1969-12-31 18:00:14.919640426,(14 12 2 10 -3 -2 -5 -3)
1969-12-31 18:00:14.919640426,(-50 -23 0 -1 4 7 5 -13)
1969-12-31 18:00:14.919640426,(-26 -23 -16 -8 -3 -6 -11 -17)
1969-12-31 18:00:14.919640426,(48 23 -3 -13 -8 10 27 47)
1969-12-31 18:00:14.947313166,(-15 -8 10 22 6 3 4 2)
1969-12-31 18:00:14.947313166,(-39 -28 -9 -13 -9 -20 -25 -29)
1969-12-31 18:00:14.948516329,(2 30 -1 -19 1 6 -2 -8)
1969-12-31 18:00:14.948516329,(-14 -17 -5 17 1 -4 0 1)
1969-12-31 18:00:14.962954280,(-17 2 6 1 -2 4 -4 -16)
1969-12-31 18:00:14.962954280,(-17 -19 -2 -11 -5 -7 -9 -12)
1969-12-31 18:00:14.972579581,(34 22 2 -3 5 10 18 26)
1969-12-31 18:00:14.973782743,(0 -3 18 57 10 -4 -3 -2)
1969-12-31 18:00:15.001455483,(-40 -15 2 6 6 -3 -12 -27)
1969-12-31 18:00:15.001455483,(57 43 17 8 17 21 30 44)
1969-12-31 18:00:15.001455483,(-28 -18 -13 -20 -10 -8 -9 -13)
1969-12-31 18:00:15.001455483,(-5 -11 -8 -25 -12 -2 2 3)
1969-12-31 18:00:15.019502922,(59 23 13 15 -4 -2 9 29)
1969-12-31 18:00:15.019502922,(52 20 -7 -19 2 9 14 27)
1969-12-31 18:00:15.020706085,(6 16 7 17 0 -5 -9 -7)
1969-12-31 18:00:15.020706085,(-16 -26 -2 -8 1 8 12 11)
1969-12-31 18:00:15.035144036,(-4 -3 -12 -30 -14 -11 -8 -6)
1969-12-31 18:00:15.035144036,(-6 -7 -16 -42 -27 -17 -9 -9)
1969-12-31 18:00:15.045972499,(4 0 3 56 19 5 5 5)
1969-12-31 18:00:15.045972499,(10 21 49 92 45 13 -2 -2)
1969-12-31 18:00:15.062816776,(-26 -11 12 23 27 9 -4 -14)
1969-12-31 18:00:15.062816776,(18 18 10 5 14 7 5 1)
1969-12-31 18:00:15.064019938,(-27 -19 -26 -81 -36 -15 -10 -15)
1969-12-31 18:00:15.064019938,(-16 -10 -25 -48 -26 -15 -10 -12)
1969-12-31 18:00:15.091692678,(33 20 -7 -13 -6 11 21 29)
1969-12-31 18:00:15.091692678,(-26 -18 4 22 2 0 -9 -13)
1969-12-31 18:00:15.092895840,(15 7 7 15 8 5 10 16)
1969-12-31 18:00:15.092895840,(11 10 9 3 0 -1 -1 5)
1969-12-31 18:00:15.107333792,(-6 -7 -20 -41 -11 -7 -10 -9)
1969-12-31 18:00:15.107333792,(6 3 -7 20 -10 3 9 9)
1969-12-31 18:00:15.118162255,(-16 -3 14 19 -11 -17 -13 -15)
1969-12-31 18:00:15.118162255,(20 37 81 77 53 32 16 11)
1969-12-31 18:00:15.136209694,(5 8 -1 30 10 14 6 7)
1969-12-31 18:00:15.136209694,(-11 -23 -31 14 32 3 -6 -9)
1969-12-31 18:00:15.136209694,(-26 -28 -41 -46 -11 -16 -17 -20)
1969-12-31 18:00:15.136209694,(-13 -24 -45 -82 -32 -9 -4 -5)
1969-12-31 18:00:15.163882434,(2 13 40 4 -5 0 3 3)
1969-12-31 18:00:15.163882434,(25 24 7 -18 -6 4 13 21)
1969-12-31 18:00:15.163882434,(8 8 13 -20 -4 -3 -3 1)
1969-12-31 18:00:15.163882434,(-5 -15 -39 -28 -18 -5 -3 -3)
1969-12-31 18:00:15.179523548,(-3 -4 4 22 2 2 5 1)
1969-12-31 18:00:15.179523548,(-5 -1 11 47 4 -5 -8 -7)
1969-12-31 18:00:15.190352011,(1 8 21 32 26 6 2 2)
1969-12-31 18:00:15.190352011,(-4 -1 2 -17 -17 1 -1 -2)
1969-12-31 18:00:15.207196287,(6 6 -1 -30 -10 1 4 4)
1969-12-31 18:00:15.207196287,(-7 -15 -32 -27 -7 -12 -4 -2)
1969-12-31 18:00:15.218024751,(-1 -8 -1 32 4 1 -2 0)
1969-12-31 18:00:15.218024751,(-2 6 -4 -19 -2 -7 -3 -1)
1969-12-31 18:00:15.236072190,(-2 -1 6 32 15 1 -3 -4)
1969-12-31 18:00:15.236072190,(4 10 20 -16 6 12 11 5)
1969-12-31 18:00:15.237275352,(9 9 13 -7 -8 8 6 8)
1969-12-31 18:00:15.237275352,(0 -5 -19 9 -7 -7 -4 -4)
1969-12-31 18:00:15.251713304,(-4 -6 -12 -17 -3 -3 1 1)
1969-12-31 18:00:15.251713304,(-5 1 15 17 -3 -6 -3 -4)
1969-12-31 18:00:15.263744930,(-2 -7 -31 -7 0 -5 -5 -4)
1969-12-31 18:00:15.263744930,(-2 -5 3 -19 -12 -8 -4 0)
1969-12-31 18:00:15.279386043,(1 -3 1 39 11 0 1 -1)
1969-12-31 18:00:15.279386043,(1 -2 -1 3 2 -1 0 0)
1969-12-31 18:00:15.290214507,(-1 8 18 -16 -8 1 -1 0)
1969-12-31 18:00:15.290214507,(8 7 -6 -14 -4 5 6 5)
1969-12-31 18:00:15.308261946,(-1 -14 -43 -26 -10 -10 -3 2)
1969-12-31 18:00:15.308261946,(-7 -4 16 21 2 2 -2 -5)
1969-12-31 18:00:15.309465108,(-3 0 1 4 10 3 -1 -3)
1969-12-31 18:00:15.309465108,(2 3 5 11 4 2 2 2)
1969-12-31 18:00:15.323903059,(-4 -12 -20 4 4 -1 -2 0)
1969-12-31 18:00:15.323903059,(-6 -1 -3 -24 -27 -12 -7 -5)
1969-12-31 18:00:15.334731523,(4 7 9 -16 -7 1 1 3)
1969-12-31 18:00:15.334731523,(3 3 5 20 18 7 4 1)
1969-12-31 18:00:15.351575799,(-2 1 9 -1 -3 -1 -3 -3)
1969-12-31 18:00:15.351575799,(2 -3 -17 -26 -1 1 1 1)
1969-12-31 18:00:15.359997937,(3 7 8 5 0 6 5 4)
1969-12-31 18:00:15.359997937,(0 -4 -6 -4 -6 -4 -2 0)
1969-12-31 18:00:15.380451702,(-9 -4 -5 -7 -6 -8 -5 -6)
1969-12-31 18:00:15.380451702,(2 0 3 -8 3 2 2 1)
1969-12-31 18:00:15.381654864,(-2 -2 0 4 -2 0 0 1)
1969-12-31 18:00:15.381654864,(0 -3 -5 5 1 -1 1 2)
1969-12-31 18:00:15.406921279,(-2 1 14 7 -1 -4 -3 -2)
1969-12-31 18:00:15.406921279,(5 9 6 10 10 8 4 3)
1969-12-31 18:00:15.409327604,(0 -11 -22 6 2 -3 -4 0)
1969-12-31 18:00:15.409327604,(-6 -6 -8 -19 -10 -8 -8 -4)
1969-12-31 18:00:15.424968718,(0 3 4 -18 -4 2 -1 -1)
1969-12-31 18:00:15.424968718,(4 6 14 22 0 8 3 4)
1969-12-31 18:00:15.432187693,(4 3 6 10 6 5 2 2)
1969-12-31 18:00:15.432187693,(-1 -6 -11 0 1 -2 -3 0)
1969-12-31 18:00:15.452641457,(1 8 21 -5 -2 4 1 0)
1969-12-31 18:00:15.452641457,(4 3 -8 -9 1 1 1 2)
1969-12-31 18:00:15.453844620,(-10 -8 -4 -12 -11 -7 -7 -7)
1969-12-31 18:00:15.453844620,(1 6 3 -1 2 3 1 1)
1969-12-31 18:00:15.479111035,(-1 -1 9 -2 -1 6 3 2)
1969-12-31 18:00:15.479111035,(-1 7 -7 -11 -5 -8 -5 -2)
1969-12-31 18:00:15.481517360,(2 1 -1 0 0 4 2 1)
1969-12-31 18:00:15.481517360,(-2 -7 -14 -20 -21 -7 -2 -2)
1969-12-31 18:00:15.495955311,(1 2 11 24 25 3 1 0)
1969-12-31 18:00:15.495955311,(0 3 15 25 27 10 5 2)
1969-12-31 18:00:15.506783774,(6 4 3 -4 6 6 5 5)
1969-12-31 18:00:15.506783774,(-11 -15 -17 0 -6 -9 -8 -7)
1969-12-31 18:00:15.524831213,(-3 0 -2 -21 -23 -7 -4 -3)
1969-12-31 18:00:15.524831213,(-6 -9 -6 -28 -7 -7 -5 -3)
1969-12-31 18:00:15.526034376,(6 11 10 23 -2 6 6 3)
1969-12-31 18:00:15.526034376,(16 8 3 2 6 -1 1 7)
1969-12-31 18:00:15.551300791,(-15 -19 -11 4 -10 -20 -10 -7)
1969-12-31 18:00:15.551300791,(-9 -1 6 -18 -29 -5 -5 -9)
1969-12-31 18:00:15.553707116,(9 -2 -2 20 57 19 11 11)
1969-12-31 18:00:15.553707116,(-5 1 1 -10 7 12 3 -3)
1969-12-31 18:00:15.568145067,(7 0 2 28 9 9 6 4)
1969-12-31 18:00:15.568145067,(-11 -13 -13 -16 -11 -16 -8 -7)
1969-12-31 18:00:15.578973530,(-14 9 16 0 -10 3 -1 -9)
1969-12-31 18:00:15.578973530,(27 8 8 47 21 6 8 19)
1969-12-31 18:00:15.597020969,(-5 -7 -12 -20 -12 2 3 0)
1969-12-31 18:00:15.597020969,(1 -3 5 -8 11 5 3 -3)
1969-12-31 18:00:15.598224132,(-7 -11 -16 2 -12 -13 -6 -10)
1969-12-31 18:00:15.598224132,(-13 2 10 -3 3 -9 -6 -12)
1969-12-31 18:00:15.623490547,(11 25 16 20 4 0 0 3)
1969-12-31 18:00:15.623490547,(2 -18 -23 4 -3 -3 1 7)
1969-12-31 18:00:15.625896872,(-7 -1 5 0 4 2 -1 1)
1969-12-31 18:00:15.625896872,(1 -11 -21 -27 -22 -8 0 5)
1969-12-31 18:00:15.640334823,(1 0 -2 -7 -5 -2 -1 1)
1969-12-31 18:00:15.640334823,(3 8 7 2 1 3 -3 -2)
1969-12-31 18:00:15.651163286,(1 3 3 -7 -7 -2 -3 -3)
1969-12-31 18:00:15.651163286,(-1 -1 6 1 0 3 2 -2)
1969-12-31 18:00:15.669210725,(-2 0 0 0 8 3 -4 -2)
1969-12-31 18:00:15.669210725,(-10 4 13 6 4 3 -4 -8)
1969-12-31 18:00:15.670413888,(11 -10 -14 -3 -10 -4 4 11)
1969-12-31 18:00:15.670413888,(4 -6 -10 -6 2 6 8 11)
1969-12-31 18:00:15.695680303,(-3 -4 -7 -23 -3 -4 -4 -3)
1969-12-31 18:00:15.695680303,(0 4 7 29 6 2 0 0)
1969-12-31 18:00:15.698086628,(-3 0 -3 -17 -12 -10 -5 -5)
1969-12-31 18:00:15.698086628,(-6 3 6 0 -3 -3 -3 -7)
1969-12-31 18:00:15.712524579,(0 -5 0 20 10 0 -1 0)
1969-12-31 18:00:15.712524579,(0 10 13 0 -4 -2 -1 -1)
1969-12-31 18:00:15.723353042,(3 -14 -18 -4 -6 -3 0 4)
1969-12-31 18:00:15.723353042,(-4 -1 2 -4 -3 -4 -5 -6)
1969-12-31 18:00:15.741400481,(-3 -2 -6 -9 0 0 -2 -2)
1969-12-31 18:00:15.741400481,(-1 2 3 1 -1 -1 2 -1)
1969-12-31 18:00:15.742603644,(-9 8 16 6 1 -10 -8 -12)
1969-12-31 18:00:15.742603644,(8 -13 -18 -6 -3 3 6 9)
1969-12-31 18:00:15.767870058,(-2 -1 -5 0 -9 -4 -1 -1)
1969-12-31 18:00:15.767870058,(10 -3 -15 -9 -9 -1 4 8)
1969-12-31 18:00:15.770276384,(-4 1 5 -12 7 -1 -3 -8)
1969-12-31 18:00:15.770276384,(-5 4 8 26 7 0 -3 -6)
1969-12-31 18:00:15.784714335,(0 1 2 1 0 2 2 0)
1969-12-31 18:00:15.784714335,(2 -6 -8 2 3 3 1 2)
1969-12-31 18:00:15.795542798,(-2 -3 -15 -61 -23 -8 -3 -1)
1969-12-31 18:00:15.795542798,(-2 10 27 70 5 4 0 -2)
1969-12-31 18:00:15.813590237,(4 1 1 -13 7 5 3 2)
1969-12-31 18:00:15.813590237,(0 2 9 19 5 3 0 -1)
1969-12-31 18:00:15.814793400,(4 2 8 46 9 3 -1 -1)
1969-12-31 18:00:15.814793400,(-6 -5 -14 -42 -1 -3 -4 -5)
1969-12-31 18:00:15.840059814,(0 0 -3 -8 -10 -3 1 2)
1969-12-31 18:00:15.840059814,(2 -1 -10 -19 -5 0 1 1)
1969-12-31 18:00:15.842466140,(1 0 -6 -13 -4 2 1 1)
1969-12-31 18:00:15.842466140,(-4 2 5 -9 -16 -3 -4 -5)
1969-12-31 18:00:15.867732554,(2 2 3 6 12 2 -1 0)
1969-12-31 18:00:15.867732554,(-2 -2 -3 -9 7 4 1 0)
1969-12-31 18:00:15.868935717,(2 0 -2 7 -1 0 1 3)
1969-12-31 18:00:15.868935717,(-2 1 -1 -7 0 2 3 -1)
1969-12-31 18:00:15.885779993,(0 -6 -8 -15 -19 -9 -4 -1)
1969-12-31 18:00:15.885779993,(-1 -2 1 0 15 -4 -3 -1)
1969-12-31 18:00:15.888186318,(4 6 7 22 7 4 3 2)
1969-12-31 18:00:15.888186318,(0 -7 -8 -9 0 -6 -2 1)
1969-12-31 18:00:15.912249570,(-9 -7 7 10 -6 -5 -6 -10)
1969-12-31 18:00:15.912249570,(0 0 -2 -3 2 -1 2 0)
1969-12-31 18:00:15.914655895,(1 -2 5 5 2 -1 -1 0)
1969-12-31 18:00:15.914655895,(2 5 -3 -8 2 1 -4 -2)
1969-12-31 18:00:15.929093847,(4 -2 -8 -3 -1 -3 3 3)
1969-12-31 18:00:15.929093847,(1 -2 0 3 -6 -2 0 -1)
1969-12-31 18:00:15.939922310,(-3 -3 -2 -3 -6 -2 -3 -3)
1969-12-31 18:00:15.939922310,(-2 -3 -4 -9 -2 -5 -2 -1)
1969-12-31 18:00:15.957969749,(1 1 1 5 3 3 1 2)
1969-12-31 18:00:15.957969749,(1 1 0 1 -2 -1 0 1)
1969-12-31 18:00:15.959172912,(1 -2 -5 -3 -1 -1 -1 1)
1969-12-31 18:00:15.959172912,(-3 1 4 -1 0 0 -3 -2)
1969-12-31 18:00:15.984439326,(1 0 2 3 5 2 1 1)
1969-12-31 18:00:15.984439326,(0 2 -1 -5 -3 2 0 0)
1969-12-31 18:00:15.986845651,(1 -2 -4 -1 0 -2 1 0)
1969-12-31 18:00:15.986845651,(-2 1 5 4 2 0 -3 -3)
1969-12-31 18:00:16.001283603,(0 1 -1 -1 2 1 2 2)
1969-12-31 18:00:16.001283603,(-1 -3 -3 -4 -2 0 -2 0)
1969-12-31 18:00:16.012112066,(-2 -1 1 1 -2 1 -2 -2)
1969-12-31 18:00:16.012112066,(0 1 1 -2 0 -1 0 -2)
1969-12-31 18:00:16.038581643,(1 2 -3 0 2 -1 -1 -2)
1969-12-31 18:00:16.038581643,(0 -1 0 1 -1 -1 1 1)
1969-12-31 18:00:16.040987968,(0 -2 2 3 0 0 0 0)
1969-12-31 18:00:16.040987968,(-1 0 2 -2 -1 -1 -1 -2)
1969-12-31 18:00:16.056629082,(-2 -1 -4 0 -2 -3 -1 -2)
1969-12-31 18:00:16.056629082,(-2 0 1 3 0 0 -1 -2)
1969-12-31 18:00:16.059035407,(1 -1 -2 -2 -1 0 2 1)
1969-12-31 18:00:16.059035407,(1 -3 -3 -1 1 -1 -1 -2)
1969-12-31 18:00:16.073473359,(-3 -1 1 1 1 1 0 -1)
1969-12-31 18:00:16.073473359,(1 1 0 -1 -1 -1 1 -1)
1969-12-31 18:00:16.084301822,(-3 1 -3 0 -2 -1 -1 -1)
1969-12-31 18:00:16.084301822,(0 1 1 -1 -1 -1 1 -1)
1969-12-31 18:00:16.110771399,(-2 1 -1 3 2 3 1 1)
1969-12-31 18:00:16.110771399,(6 6 3 2 1 -1 0 3)
1969-12-31 18:00:16.113177724,(-6 -8 -3 -6 -4 -6 -4 -5)
1969-12-31 18:00:16.113177724,(-3 -1 1 0 0 -2 -3 -2)
1969-12-31 18:00:16.128818838,(0 -1 -3 -1 0 -1 0 0)
1969-12-31 18:00:16.128818838,(-2 -2 -2 -1 -2 -1 -1 -1)
1969-12-31 18:00:16.131225163,(2 3 1 3 2 2 1 2)
1969-12-31 18:00:16.131225163,(-2 -1 -1 -1 0 2 0 1)
1969-12-31 18:00:16.145663114,(0 0 -1 -1 0 0 0 -2)
1969-12-31 18:00:16.145663114,(-1 -1 0 1 -1 1 0 0)
1969-12-31 18:00:16.163710553,(-1 0 0 1 0 0 -1 0)
1969-12-31 18:00:16.163710553,(-1 -2 -3 -3 0 0 2 1)
1969-12-31 18:00:16.173335854,(1 1 1 -1 1 -2 -1 2)
1969-12-31 18:00:16.173335854,(-2 -3 -1 -2 -3 -3 0 -3)
1969-12-31 18:00:16.181757992,(-1 1 1 0 -2 1 0 0)
1969-12-31 18:00:16.181757992,(-1 0 0 0 -1 0 1 0)
1969-12-31 18:00:16.201008594,(-1 -1 0 0 -1 -2 -1 0)
1969-12-31 18:00:16.201008594,(-1 -3 -1 -2 -1 -2 -2 0)
1969-12-31 18:00:16.203414919,(-2 0 1 0 0 -1 -1 0)
1969-12-31 18:00:16.203414919,(-1 0 0 0 1 -2 -1 -2)
1969-12-31 18:00:16.217852870,(-1 0 -2 0 -2 -2 1 0)
1969-12-31 18:00:16.217852870,(-3 -1 -1 0 0 -1 -1 -2)
1969-12-31 18:00:16.237103472,(0 0 0 1 1 -1 0 0)
1969-12-31 18:00:16.237103472,(2 0 0 0 -1 -1 1 2)
1969-12-31 18:00:16.245525610,(0 -1 -1 -1 0 0 -1 -2)
1969-12-31 18:00:16.245525610,(-1 -1 -1 -1 0 1 -2 -1)
1969-12-31 18:00:16.253947748,(0 0 -1 0 0 -1 1 0)
1969-12-31 18:00:16.253947748,(0 0 -1 0 -1 -1 -2 -2)
1969-12-31 18:00:16.273198350,(0 0 -2 1 0 1 0 0)
1969-12-31 18:00:16.273198350,(1 1 -2 0 -2 0 0 -1)
1969-12-31 18:00:16.275604675,(0 0 0 -1 -1 -1 -2 -2)
1969-12-31 18:00:16.275604675,(0 -1 0 0 0 -2 0 -1)
1969-12-31 18:00:16.290042626,(0 -1 1 1 -2 -1 -2 -1)
1969-12-31 18:00:16.290042626,(-2 -2 -1 -1 0 1 -1 -2)
1969-12-31 18:00:16.300871090,(-1 -1 -2 0 0 -1 0 -1)
1969-12-31 18:00:16.300871090,(-2 -2 -2 -2 -1 0 -3 0)
1969-12-31 18:00:16.318918529,(0 -1 0 1 0 -1 -1 0)
1969-12-31 18:00:16.318918529,(-1 -2 -1 -1 0 -1 2 1)
1969-12-31 18:00:16.320121691,(0 -1 1 -3 -1 0 1 2)
1969-12-31 18:00:16.320121691,(1 -1 -1 -2 0 1 1 -2)
1969-12-31 18:00:16.345388106,(-1 0 -2 -1 -2 -1 0 -2)
1969-12-31 18:00:16.345388106,(-2 -1 0 0 -2 -1 -1 0)
1969-12-31 18:00:16.347794431,(-1 0 -1 0 1 2 0 0)
1969-12-31 18:00:16.347794431,(-1 -1 0 1 0 0 -1 -1)
1969-12-31 18:00:16.362232382,(-1 -1 0 -1 1 -1 -1 0)
1969-12-31 18:00:16.362232382,(1 -1 -1 -2 -2 0 0 1)
1969-12-31 18:00:16.373060846,(1 -1 -2 -1 -2 0 -1 -1)
1969-12-31 18:00:16.373060846,(0 1 2 0 -1 2 -1 1)
1969-12-31 18:00:16.391108285,(-1 1 1 0 0 2 0 -1)
1969-12-31 18:00:16.391108285,(-1 0 -2 -2 0 0 0 0)
1969-12-31 18:00:16.392311447,(-1 -2 -1 -1 1 -1 1 0)
1969-12-31 18:00:16.392311447,(0 0 0 -1 1 -1 -1 -1)
1969-12-31 18:00:16.417577862,(2 0 0 -1 0 0 -1 -1)
1969-12-31 18:00:16.417577862,(0 -1 1 0 -1 0 -1 1)
1969-12-31 18:00:16.418781024,(-2 0 0 -1 -2 -1 -2 -1)
1969-12-31 18:00:16.418781024,(0 0 -3 1 -2 -1 1 1)
1969-12-31 18:00:16.434422138,(-1 -2 -1 -1 -2 0 1 -1)
1969-12-31 18:00:16.434422138,(0 0 -3 -2 0 -1 0 0)
1969-12-31 18:00:16.445250601,(-1 -2 -2 2 -1 -1 -1 -1)
1969-12-31 18:00:16.445250601,(-1 -1 0 1 0 -1 -1 0)
1969-12-31 18:00:16.463298041,(-1 0 0 -1 -1 -2 -1 -1)
1969-12-31 18:00:16.463298041,(0 -1 -1 -2 -2 -1 0 0)
1969-12-31 18:00:16.465704366,(-1 -1 -1 0 -1 -2 0 0)
1969-12-31 18:00:16.465704366,(0 0 1 -2 -2 0 -1 -1)
1969-12-31 18:00:16.489767618,(1 -1 -2 0 -2 -1 0 2)
1969-12-31 18:00:16.489767618,(-1 0 0 1 0 0 -1 0)
1969-12-31 18:00:16.498189756,(1 0 -1 -3 -1 -2 0 2)
1969-12-31 18:00:16.498189756,(-2 -1 0 -3 -2 1 1 1)
1969-12-31 18:00:16.506611894,(0 1 2 0 2 1 0 -2)
1969-12-31 18:00:16.506611894,(0 -3 -3 -1 -2 0 0 1)
1969-12-31 18:00:16.517440358,(-2 -2 0 0 1 0 0 -2)
1969-12-31 18:00:16.517440358,(0 0 0 -2 -2 -1 -1 1)
1969-12-31 18:00:16.535487796,(-1 1 -1 0 1 1 -1 0)
1969-12-31 18:00:16.535487796,(-1 0 0 0 0 1 2 -1)
1969-12-31 18:00:16.536690959,(-1 0 1 -1 -2 0 -2 -1)
1969-12-31 18:00:16.536690959,(-2 -1 0 1 -1 -1 -2 -2)
1969-12-31 18:00:16.561957374,(-2 -1 -3 -1 -1 -1 0 -3)
1969-12-31 18:00:16.561957374,(-1 0 0 0 0 -2 -3 -1)
1969-12-31 18:00:16.563160536,(1 -1 -2 0 0 0 -2 -2)
1969-12-31 18:00:16.563160536,(-1 0 0 1 0 -1 -1 -1)
1969-12-31 18:00:16.589630113,(0 -2 -2 -1 -1 -1 -1 -1)
1969-12-31 18:00:16.589630113,(-3 0 0 -2 1 -1 0 0)
1969-12-31 18:00:16.590833276,(-1 0 -1 0 1 -1 -2 -1)
1969-12-31 18:00:16.590833276,(1 1 0 0 2 0 -1 -2)
1969-12-31 18:00:16.607677552,(0 -2 -1 -1 0 2 -2 0)
1969-12-31 18:00:16.607677552,(-1 -2 -1 -1 -2 -2 -1 -2)
1969-12-31 18:00:16.608880715,(-2 -2 -2 -1 -1 -2 -3 -1)
1969-12-31 18:00:16.608880715,(0 1 -2 -1 -1 -1 -1 -1)
1969-12-31 18:00:16.634147130,(-1 0 -1 -1 1 -2 -1 0)
1969-12-31 18:00:16.634147130,(0 -1 -1 1 -1 0 -3 -1)
1969-12-31 18:00:16.636553455,(-1 0 0 -2 0 -1 1 -2)
1969-12-31 18:00:16.636553455,(0 -2 0 0 -1 -1 0 1)
1969-12-31 18:00:16.660616707,(1 0 1 -2 -1 -2 0 -2)
1969-12-31 18:00:16.660616707,(-2 0 0 0 0 -1 0 -2)
1969-12-31 18:00:16.663023032,(2 0 -1 -1 0 0 2 1)
1969-12-31 18:00:16.663023032,(0 0 1 1 2 1 -1 0)
1969-12-31 18:00:16.678664146,(-1 -1 1 -2 0 0 0 0)
1969-12-31 18:00:16.678664146,(1 0 0 0 0 0 1 0)
1969-12-31 18:00:16.687086284,(0 -1 -2 0 0 -1 1 -2)
1969-12-31 18:00:16.687086284,(-1 -1 -2 -1 -1 -1 0 -2)
1969-12-31 18:00:16.706336886,(0 0 0 0 0 1 -1 0)
1969-12-31 18:00:16.706336886,(0 0 0 -1 -2 -2 -3 -1)
1969-12-31 18:00:16.708743211,(-2 0 0 0 0 0 -2 -3)
1969-12-31 18:00:16.708743211,(2 -1 -1 -2 -2 -2 1 0)
1969-12-31 18:00:16.734009625,(-1 -1 -1 0 -2 -1 -2 -1)
1969-12-31 18:00:16.734009625,(0 1 -1 -1 -1 1 0 0)
1969-12-31 18:00:16.735212788,(0 0 1 1 -2 -1 0 1)
1969-12-31 18:00:16.735212788,(-1 -1 -3 0 -1 -1 -1 -1)
1969-12-31 18:00:16.759276040,(-2 -1 1 0 -1 -1 0 0)
1969-12-31 18:00:16.759276040,(-1 2 0 -1 0 0 0 0)
1969-12-31 18:00:16.759276040,(-9 3 11 -4 -9 -7 -5 -8)
1969-12-31 18:00:16.759276040,(4 3 7 1 4 7 5 4)
1969-12-31 18:00:16.760479202,(7 12 21 4 0 14 13 8)
1969-12-31 18:00:16.760479202,(16 4 -39 -8 8 4 3 10)
1969-12-31 18:00:16.785745617,(-15 -23 -23 -51 -26 -18 -13 -11)
1969-12-31 18:00:16.785745617,(-10 4 16 4 -19 -9 -5 -8)
1969-12-31 18:00:16.788151942,(5 12 28 41 32 12 6 4)
1969-12-31 18:00:16.788151942,(5 12 16 -24 -29 4 4 1)
1969-12-31 18:00:16.802589893,(7 -5 -45 -30 20 -2 3 6)
1969-12-31 18:00:16.802589893,(-5 -8 -16 -3 -16 -2 -4 -3)
1969-12-31 18:00:16.813418357,(-5 6 63 84 37 9 -1 -4)
1969-12-31 18:00:16.813418357,(-13 2 27 100 37 1 -8 -13)
1969-12-31 18:00:16.830262633,(-5 -18 -54 -74 -27 -12 -6 -3)
1969-12-31 18:00:16.831465796,(-4 -7 -24 -53 -50 -15 -4 -1)
1969-12-31 18:00:16.832668958,(19 25 44 64 42 14 11 15)
1969-12-31 18:00:16.832668958,(6 10 40 111 50 14 2 0)
1969-12-31 18:00:16.857935373,(-1 -3 8 -9 -29 15 9 1)
1969-12-31 18:00:16.857935373,(-7 -24 -60 -107 -22 -29 -19 -7)
1969-12-31 18:00:16.860341698,(-21 -16 -43 -110 -52 -27 -15 -14)
1969-12-31 18:00:16.860341698,(3 5 23 82 45 11 5 2)
1969-12-31 18:00:16.874779649,(8 20 50 34 55 22 11 3)
1969-12-31 18:00:16.874779649,(5 -6 -25 -5 -31 -8 -3 3)
1969-12-31 18:00:16.885608113,(-12 -22 -64 -128 -87 -17 -7 -10)
1969-12-31 18:00:16.885608113,(-4 -2 15 3 12 -6 -1 1)
1969-12-31 18:00:16.903655552,(5 8 16 70 -17 4 2 0)
1969-12-31 18:00:16.903655552,(0 9 9 -40 47 9 7 2)
1969-12-31 18:00:16.904858714,(13 8 7 48 12 3 -1 6)
1969-12-31 18:00:16.904858714,(-11 -20 -37 -50 -38 -10 -5 -7)
1969-12-31 18:00:16.939750430,(-1 2 40 90 36 14 4 3)
1969-12-31 18:00:16.939750430,(4 16 40 67 8 4 1 1)
1969-12-31 18:00:16.940953592,(-4 -3 -28 -68 -20 -6 -4 -5)
1969-12-31 18:00:16.940953592,(12 -2 -61 -128 -83 -8 11 13)
1969-12-31 18:00:16.946969405,(8 3 -2 16 3 -7 -6 3)
1969-12-31 18:00:16.946969405,(-5 10 50 100 62 19 2 -5)
1969-12-31 18:00:16.957797869,(-3 7 34 41 32 20 10 2)
1969-12-31 18:00:16.957797869,(11 8 -7 17 -11 -1 1 5)
1969-12-31 18:00:16.975845308,(-7 -11 -9 -17 8 -9 -5 -6)
1969-12-31 18:00:16.975845308,(-15 -10 -12 -53 -39 -16 -9 -12)
1969-12-31 18:00:16.977048470,(-4 -3 12 12 51 4 0 -5)
1969-12-31 18:00:16.977048470,(4 7 14 51 7 9 5 3)
1969-12-31 18:00:17.002314885,(6 2 -22 -49 -19 -1 1 5)
1969-12-31 18:00:17.002314885,(6 -1 -4 23 15 4 4 7)
1969-12-31 18:00:17.004721210,(-9 -9 -12 -9 -31 -12 -6 -6)
1969-12-31 18:00:17.004721210,(-4 -9 -24 -65 -19 -11 -5 -1)
1969-12-31 18:00:17.019159161,(-1 6 17 -13 -5 -1 0 0)
1969-12-31 18:00:17.019159161,(-1 3 23 78 33 5 -1 -1)
1969-12-31 18:00:17.029987625,(-3 -4 -15 1 -6 -5 1 1)
1969-12-31 18:00:17.029987625,(-2 -3 -1 2 15 2 0 1)
1969-12-31 18:00:17.046831901,(-4 1 2 5 -7 -3 -3 -3)
1969-12-31 18:00:17.046831901,(1 2 -13 -29 -6 -2 1 4)
1969-12-31 18:00:17.055254038,(-1 -4 -4 21 -1 -2 -3 -2)
1969-12-31 18:00:17.055254038,(-5 -4 5 -7 6 -2 -1 -4)
1969-12-31 18:00:17.076910966,(4 5 -1 -15 -6 3 4 3)
1969-12-31 18:00:17.076910966,(3 0 -2 -2 -1 0 -1 -1)
1969-12-31 18:00:17.078114129,(-1 -3 -3 17 2 1 -1 1)
1969-12-31 18:00:17.078114129,(-6 -5 -1 -15 -3 -1 -3 -4)
1969-12-31 18:00:17.091348917,(-2 0 1 -2 -4 -3 -1 -2)
1969-12-31 18:00:17.091348917,(4 -2 0 18 7 1 1 3)
1969-12-31 18:00:17.102177381,(-4 -7 -6 -8 -11 -3 0 2)
1969-12-31 18:00:17.102177381,(10 7 3 -13 -3 2 0 -1)
1969-12-31 18:00:17.119021657,(-6 -3 2 13 6 -4 -5 -6)
1969-12-31 18:00:17.119021657,(-4 -3 -3 4 0 -3 -4 -6)
1969-12-31 18:00:17.127443795,(3 -1 -7 -15 -11 -1 2 7)
1969-12-31 18:00:17.127443795,(10 8 1 -11 -3 2 5 9)
1969-12-31 18:00:17.146694397,(-18 -9 2 12 6 2 -6 -9)
1969-12-31 18:00:17.146694397,(15 6 -2 -13 -5 2 1 4)
1969-12-31 18:00:17.149100722,(8 1 -5 -7 -4 5 6 7)
1969-12-31 18:00:17.149100722,(-17 -10 0 8 4 -2 -7 -12)
1969-12-31 18:00:17.163538673,(21 14 1 -5 1 5 10 13)
1969-12-31 18:00:17.163538673,(-17 -3 -2 -6 -2 -1 -6 -12)
1969-12-31 18:00:17.174367136,(1 -4 -6 0 -5 -8 -4 -3)
1969-12-31 18:00:17.174367136,(3 2 2 -2 -1 0 -2 3)
1969-12-31 18:00:17.191211413,(-4 -2 0 -1 -1 -2 -1 2)
1969-12-31 18:00:17.191211413,(11 0 -2 -4 1 7 7 13)
1969-12-31 18:00:17.199633551,(-7 6 4 2 4 7 -3 -11)
1969-12-31 18:00:17.199633551,(-3 -8 -2 -8 -5 -3 -5 -3)
1969-12-31 18:00:17.218884153,(14 13 -1 -4 1 6 3 4)
1969-12-31 18:00:17.218884153,(5 2 1 0 1 2 2 3)
1969-12-31 18:00:17.221290478,(-12 -4 -2 -3 -4 -4 -5 -8)
1969-12-31 18:00:17.221290478,(2 3 3 -5 2 0 4 2)
1969-12-31 18:00:17.235728429,(1 5 2 2 -1 -2 -2 -7)
1969-12-31 18:00:17.235728429,(8 -3 -1 -1 1 0 4 12)
1969-12-31 18:00:17.246556892,(-18 -6 2 0 -3 -6 -11 -18)
1969-12-31 18:00:17.246556892,(8 8 -2 0 0 -3 0 4)
1969-12-31 18:00:17.264604331,(-8 -7 -2 -2 -2 -4 -3 -5)
1969-12-31 18:00:17.264604331,(-2 -5 -30 -83 -48 -17 -6 -2)
1969-12-31 18:00:17.273026470,(1 0 7 9 1 0 4 4)
1969-12-31 18:00:17.273026470,(4 11 29 89 59 17 9 7)
1969-12-31 18:00:17.293480234,(3 -3 6 22 3 3 -1 1)
1969-12-31 18:00:17.293480234,(-17 -5 6 34 22 7 -1 -7)
1969-12-31 18:00:17.294683396,(7 1 -9 -32 -14 1 1 -3)
1969-12-31 18:00:17.294683396,(-3 -7 -19 -60 -34 -9 -5 -3)
1969-12-31 18:00:17.318746648,(-27 -13 -7 -10 -4 -9 -7 -9)
1969-12-31 18:00:17.318746648,(21 15 8 7 3 7 10 11)
1969-12-31 18:00:17.319949811,(19 4 -1 1 -3 -3 -2 11)
1969-12-31 18:00:17.319949811,(17 -2 -4 1 3 3 8 12)
1969-12-31 18:00:17.335590925,(-18 1 0 -10 0 -3 -2 -9)
1969-12-31 18:00:17.335590925,(-35 -24 -8 -3 -8 -11 -11 -14)
1969-12-31 18:00:17.344013063,(30 15 4 17 14 6 5 4)
1969-12-31 18:00:17.344013063,(-11 -7 -28 -102 -37 -8 -5 -6)
1969-12-31 18:00:17.363263664,(8 -4 -8 27 -5 0 7 13)
1969-12-31 18:00:17.363263664,(-6 3 14 44 22 2 -2 -5)
1969-12-31 18:00:17.365669990,(-7 -1 9 19 8 0 2 3)
1969-12-31 18:00:17.365669990,(-6 -2 23 55 20 3 1 -3)
1969-12-31 18:00:17.390936404,(10 11 10 15 12 9 4 2)
1969-12-31 18:00:17.390936404,(-16 -4 6 -11 -1 -8 -7 -10)
1969-12-31 18:00:17.392139567,(20 -7 -14 -8 -9 -5 -2 1)
1969-12-31 18:00:17.392139567,(-29 -14 -21 -50 -21 -9 -10 -16)
1969-12-31 18:00:17.406577518,(6 10 0 -24 -5 -2 9 16)
1969-12-31 18:00:17.406577518,(65 24 -7 6 4 4 7 21)
1969-12-31 18:00:17.417405981,(-18 -12 -20 -37 -14 -7 -8 -9)
1969-12-31 18:00:17.417405981,(-11 -4 12 38 -2 -8 -12 -15)
1969-12-31 18:00:17.435453420,(8 8 13 23 19 15 19 16)
1969-12-31 18:00:17.435453420,(-17 -19 -45 -104 -35 -13 -9 -6)
1969-12-31 18:00:17.437859745,(-9 1 11 86 -11 0 4 0)
1969-12-31 18:00:17.437859745,(7 14 44 100 40 10 8 4)
1969-12-31 18:00:17.463126160,(-9 -9 8 24 12 -7 -18 -15)
1969-12-31 18:00:17.463126160,(13 5 -33 -71 -7 6 14 16)
1969-12-31 18:00:17.464329323,(-22 -10 7 16 0 -2 -4 -9)
1969-12-31 18:00:17.464329323,(19 16 3 14 0 0 4 11)
1969-12-31 18:00:17.478767274,(4 -11 5 5 -1 1 2 -1)
1969-12-31 18:00:17.478767274,(-3 -1 13 21 15 6 1 -5)
1969-12-31 18:00:17.489595737,(-34 -19 -17 -41 -6 -9 -9 -4)
1969-12-31 18:00:17.489595737,(-13 4 -7 -8 -6 10 19 6)
1969-12-31 18:00:17.507643176,(2 -10 -24 -54 -17 -16 -16 -17)
1969-12-31 18:00:17.507643176,(-9 -3 -6 -13 -7 -2 -6 -9)
1969-12-31 18:00:17.510049502,(-1 5 27 45 13 5 2 3)
1969-12-31 18:00:17.510049502,(-19 -8 4 -12 15 -1 -7 -10)
1969-12-31 18:00:17.535315916,(29 14 8 38 -1 10 14 31)
1969-12-31 18:00:17.535315916,(-23 -14 -22 -61 -40 -17 -11 -17)
1969-12-31 18:00:17.536519079,(19 14 11 43 21 6 9 16)
1969-12-31 18:00:17.536519079,(6 2 15 60 23 8 -3 0)
1969-12-31 18:00:17.550957030,(2 5 -1 -23 25 18 7 2)
1969-12-31 18:00:17.550957030,(0 -3 2 32 6 1 -2 0)
1969-12-31 18:00:17.561785493,(-19 -14 6 -19 -7 -4 -3 -10)
1969-12-31 18:00:17.561785493,(79 33 -5 -23 -20 -11 10 42)
1969-12-31 18:00:17.579832932,(-53 -18 0 5 -9 -18 -28 -51)
1969-12-31 18:00:17.579832932,(2 -3 10 23 6 2 2 10)
1969-12-31 18:00:17.582239257,(20 11 -20 -58 -14 -3 1 2)
1969-12-31 18:00:17.582239257,(-24 -25 -25 -27 -15 -5 0 1)
1969-12-31 18:00:17.607505672,(14 6 -2 -6 -6 4 6 9)
1969-12-31 18:00:17.607505672,(-11 -2 10 -6 2 -3 -12 -16)
1969-12-31 18:00:17.608708835,(1 2 -2 15 7 4 6 6)
1969-12-31 18:00:17.608708835,(-12 -4 -2 0 -8 -5 -9 -13)
1969-12-31 18:00:17.623146786,(6 6 4 12 0 -6 -4 2)
1969-12-31 18:00:17.623146786,(-4 3 17 43 16 11 11 -1)
1969-12-31 18:00:17.633975249,(-1 2 -3 -5 12 5 -6 -1)
1969-12-31 18:00:17.633975249,(2 8 0 -30 -5 2 5 8)
1969-12-31 18:00:17.652022688,(21 -10 -26 -87 -36 -1 16 18)
1969-12-31 18:00:17.652022688,(-14 -5 20 115 23 -15 -34 -26)
1969-12-31 18:00:17.654429013,(-12 1 15 18 13 -7 -15 -20)
1969-12-31 18:00:17.654429013,(-59 -32 -5 -3 3 2 8 -9)
1969-12-31 18:00:17.679695428,(47 20 -14 -37 -32 -12 -8 3)
1969-12-31 18:00:17.679695428,(-18 -8 -12 -24 -25 -12 -8 -16)
1969-12-31 18:00:17.680898591,(9 -7 -24 -55 0 5 15 11)
1969-12-31 18:00:17.680898591,(-1 -4 -5 -20 -6 -6 -17 -10)
1969-12-31 18:00:17.695336542,(-22 -6 17 81 10 7 4 -3)
1969-12-31 18:00:17.695336542,(12 9 13 24 27 12 8 11)
1969-12-31 18:00:17.706165005,(-3 -2 -24 -56 -31 -17 -15 -13)
1969-12-31 18:00:17.706165005,(1 -2 1 9 -2 -2 -7 -7)
1969-12-31 18:00:17.724212444,(-18 -2 6 13 23 -5 -21 -12)
1969-12-31 18:00:17.724212444,(-2 7 19 34 24 29 45 19)
1969-12-31 18:00:17.726618769,(12 6 0 -3 4 15 24 27)
1969-12-31 18:00:17.726618769,(15 1 -14 -35 -19 -2 6 6)
1969-12-31 18:00:17.751885184,(-22 -20 -10 2 -20 -18 -20 -12)
1969-12-31 18:00:17.751885184,(25 16 5 6 -2 -13 -15 5)
1969-12-31 18:00:17.753088347,(-22 -9 -5 -19 -7 1 1 -18)
1969-12-31 18:00:17.753088347,(0 -7 -7 -36 -23 -7 -5 -3)
1969-12-31 18:00:17.767526298,(-6 3 11 35 14 -7 -18 -18)
1969-12-31 18:00:17.767526298,(-9 2 16 57 25 18 26 26)
1969-12-31 18:00:17.778354761,(22 12 10 28 21 17 9 2)
1969-12-31 18:00:17.778354761,(9 -3 -5 -5 9 5 5 13)
1969-12-31 18:00:17.796402200,(-17 -10 -16 -33 -11 -3 -2 -8)
1969-12-31 18:00:17.796402200,(8 -1 -5 -49 -30 -5 5 8)
1969-12-31 18:00:17.798808525,(-6 -4 4 19 -13 -13 -16 -7)
1969-12-31 18:00:17.798808525,(-1 4 6 46 24 0 -4 -8)
1969-12-31 18:00:17.824074940,(11 6 -1 -15 13 12 17 13)
1969-12-31 18:00:17.824074940,(-3 -5 -1 -8 -4 -1 -8 -5)
1969-12-31 18:00:17.825278102,(8 9 5 -1 -2 2 3 7)
1969-12-31 18:00:17.825278102,(-16 -9 -4 -8 -6 -5 -6 -13)
1969-12-31 18:00:17.839716054,(-3 -1 -7 -4 -2 0 2 3)
1969-12-31 18:00:17.839716054,(7 11 8 9 7 1 -6 -16)
1969-12-31 18:00:17.850544517,(6 3 -1 -14 0 -2 1 8)
1969-12-31 18:00:17.850544517,(2 0 -4 2 -3 1 3 2)
1969-12-31 18:00:17.868591956,(-12 -16 -10 0 4 0 -2 -5)
1969-12-31 18:00:17.868591956,(6 3 6 13 -4 -5 -8 -7)
1969-12-31 18:00:17.870998281,(7 1 2 -2 2 -2 2 8)
1969-12-31 18:00:17.870998281,(-11 -10 -10 -39 -12 -4 -11 -13)
1969-12-31 18:00:17.896264696,(35 18 8 41 10 7 13 19)
1969-12-31 18:00:17.896264696,(21 5 -5 -9 -4 -3 4 12)
1969-12-31 18:00:17.897467858,(-27 4 22 9 11 12 13 -4)
1969-12-31 18:00:17.897467858,(4 0 -4 -11 -7 -7 -9 -6)
1969-12-31 18:00:17.911905810,(-3 -5 -1 19 -1 0 6 6)
1969-12-31 18:00:17.911905810,(0 11 -10 -8 -5 -7 -15 -7)
1969-12-31 18:00:17.922734273,(-7 -8 2 11 -1 -1 -8 -10)
1969-12-31 18:00:17.922734273,(-1 5 8 13 7 1 -1 -1)
1969-12-31 18:00:17.940781712,(-16 -6 -4 -21 -10 -3 2 -6)
1969-12-31 18:00:17.940781712,(-8 -14 -16 -29 0 1 -3 -6)
1969-12-31 18:00:17.943188037,(22 4 -18 -34 -3 3 10 19)
1969-12-31 18:00:17.943188037,(-1 -2 -11 -1 4 -2 -3 -3)
1969-12-31 18:00:17.968454452,(-4 3 27 47 0 4 1 -4)
1969-12-31 18:00:17.968454452,(-6 1 8 24 15 6 4 5)
1969-12-31 18:00:17.969657614,(50 23 19 21 -1 -1 3 17)
1969-12-31 18:00:17.969657614,(-24 -11 -8 -15 -6 -13 -22 -27)
1969-12-31 18:00:18.004549330,(-9 -4 -18 -71 -9 -1 1 -1)
1969-12-31 18:00:18.004549330,(-12 -19 -14 -11 -17 -11 -6 -5)
1969-12-31 18:00:18.005752492,(1 0 -16 -3 -8 -9 -10 -8)
1969-12-31 18:00:18.005752492,(0 10 13 70 21 9 10 5)
1969-12-31 18:00:18.011768305,(24 17 25 32 21 12 11 26)
1969-12-31 18:00:18.011768305,(-1 -6 2 -4 -3 1 4 3)
1969-12-31 18:00:18.022596769,(20 4 -18 -32 -2 -8 -7 -4)
1969-12-31 18:00:18.022596769,(-17 -14 -13 -31 -27 -6 -4 -4)
1969-12-31 18:00:18.040644208,(4 5 6 11 -2 0 3 0)
1969-12-31 18:00:18.040644208,(-7 -1 -5 -17 10 6 8 12)
1969-12-31 18:00:18.041847370,(-40 -25 -7 9 -7 -7 -13 -22)
1969-12-31 18:00:18.041847370,(13 9 11 15 6 3 1 -1)
1969-12-31 18:00:18.069520110,(-5 -2 2 1 1 0 2 2)
1969-12-31 18:00:18.069520110,(-12 -6 -8 -10 -11 -6 -5 -3)
1969-12-31 18:00:18.070723273,(-22 -1 11 17 3 1 -3 -6)
1969-12-31 18:00:18.070723273,(40 9 -8 -10 2 3 7 20)
1969-12-31 18:00:18.076739086,(-31 -12 -5 -13 -5 -9 -17 -30)
1969-12-31 18:00:18.076739086,(-9 3 2 -9 -2 0 1 -3)
1969-12-31 18:00:18.083958061,(-12 -9 -10 -19 -7 -2 -1 1)
1969-12-31 18:00:18.083958061,(-4 -3 -17 -50 -12 -4 1 -1)
1969-12-31 18:00:18.102005500,(11 1 -4 37 -6 -1 4 8)
1969-12-31 18:00:18.103208663,(-6 -3 45 107 34 6 -4 -7)
1969-12-31 18:00:18.103208663,(11 5 -2 -45 11 7 4 6)
1969-12-31 18:00:18.103208663,(5 15 33 84 11 5 1 0)
1969-12-31 18:00:18.129678240,(-6 -8 -11 -32 -2 -4 -6 -8)
1969-12-31 18:00:18.129678240,(19 9 -11 -16 -1 5 9 14)
1969-12-31 18:00:18.130881403,(-18 -17 -3 -4 -21 -13 -16 -19)
1969-12-31 18:00:18.130881403,(21 5 -31 -124 5 9 18 25)
1969-12-31 18:00:18.148928842,(-21 -13 -7 41 -19 -12 -14 -16)
1969-12-31 18:00:18.148928842,(1 1 17 35 0 -3 -1 -8)
1969-12-31 18:00:18.156147817,(7 6 1 -11 10 2 0 1)
1969-12-31 18:00:18.156147817,(-3 -4 -19 -62 -7 -1 3 -1)
1969-12-31 18:00:18.176601581,(7 3 -5 -15 0 4 4 5)
1969-12-31 18:00:18.176601581,(4 -2 -16 -46 -18 -9 -6 -1)
1969-12-31 18:00:18.177804744,(1 1 33 106 16 6 4 5)
1969-12-31 18:00:18.177804744,(-14 1 43 108 19 6 -4 -12)
1969-12-31 18:00:18.201867996,(7 12 22 -6 25 6 3 4)
1969-12-31 18:00:18.201867996,(7 -1 -19 -9 -5 1 0 0)
1969-12-31 18:00:18.203071158,(-7 -11 -39 -84 -17 -12 -6 -4)
1969-12-31 18:00:18.203071158,(-7 -14 -27 -50 -33 -8 -5 -1)
1969-12-31 18:00:18.221118597,(-3 -5 13 22 3 -4 -4 -1)
1969-12-31 18:00:18.221118597,(11 16 14 11 1 15 15 8)
1969-12-31 18:00:18.228337573,(3 2 -14 -79 -19 -1 1 0)
1969-12-31 18:00:18.228337573,(-1 -1 18 127 19 -1 -4 -4)
1969-12-31 18:00:18.247588175,(-3 -5 -9 -28 15 -4 -7 -3)
1969-12-31 18:00:18.247588175,(-6 -4 -16 -19 4 9 7 5)
1969-12-31 18:00:18.247588175,(-4 -1 13 -18 -10 -3 -4 -4)
1969-12-31 18:00:18.247588175,(3 4 0 11 -1 3 4 3)
1969-12-31 18:00:18.282479890,(1 2 0 -10 -5 0 2 1)
1969-12-31 18:00:18.283683053,(2 -8 -8 -29 -2 -9 -7 -1)
1969-12-31 18:00:18.283683053,(-11 -4 -17 10 -5 -1 -2 -9)
1969-12-31 18:00:18.283683053,(-4 -3 11 6 1 0 1 1)
1969-12-31 18:00:18.293308353,(13 8 13 46 8 -2 2 4)
1969-12-31 18:00:18.293308353,(-7 10 24 11 20 19 17 7)
1969-12-31 18:00:18.300527329,(2 -1 -5 13 -2 -5 -6 -3)
1969-12-31 18:00:18.300527329,(0 -3 -8 -37 -11 -6 -1 2)
1969-12-31 18:00:18.318574768,(-8 -10 -18 -23 -9 -2 -3 -5)
1969-12-31 18:00:18.319777931,(8 -5 -14 -53 -16 -8 -4 3)
1969-12-31 18:00:18.319777931,(-33 -14 11 65 13 2 4 3)
1969-12-31 18:00:18.319777931,(40 21 14 27 18 11 14 21)
1969-12-31 18:00:18.346247508,(-1 -1 -5 -27 -6 -2 -2 0)
1969-12-31 18:00:18.346247508,(-5 -9 -8 -15 -10 -10 -10 -10)
1969-12-31 18:00:18.347450670,(-15 -8 -2 10 0 -5 -9 -9)
1969-12-31 18:00:18.347450670,(-20 -13 -6 -16 0 0 0 1)
1969-12-31 18:00:18.365498109,(15 12 7 -1 7 17 27 27)
1969-12-31 18:00:18.365498109,(44 19 -3 6 -1 -6 -8 2)
1969-12-31 18:00:18.372717085,(12 -1 0 16 2 -4 -5 -2)
1969-12-31 18:00:18.372717085,(-28 -10 2 -5 0 -2 -8 -19)
1969-12-31 18:00:18.390764524,(-2 0 -6 -20 -8 -2 -1 -2)
1969-12-31 18:00:18.390764524,(-15 -7 4 17 5 4 8 -1)
1969-12-31 18:00:18.391967686,(30 18 5 10 6 9 14 21)
1969-12-31 18:00:18.391967686,(12 8 -4 -16 -5 -8 -13 -11)
1969-12-31 18:00:18.418437264,(-29 -16 -3 -7 -1 4 6 0)
1969-12-31 18:00:18.418437264,(46 13 6 9 -3 -9 -2 24)
1969-12-31 18:00:18.426859402,(35 16 -5 3 1 -2 -2 0)
1969-12-31 18:00:18.426859402,(-23 -8 -4 -9 -3 -6 -7 -18)
1969-12-31 18:00:18.437687864,(51 16 -1 -4 -3 0 2 20)
1969-12-31 18:00:18.437687864,(-36 -15 -4 4 -7 -12 -12 -16)
1969-12-31 18:00:18.444906840,(1 1 12 9 6 8 8 2)
1969-12-31 18:00:18.444906840,(-5 -2 -1 -7 -5 -4 -4 -2)
1969-12-31 18:00:18.462954280,(-23 -12 -9 -14 -9 -16 -17 -13)
1969-12-31 18:00:18.462954280,(5 3 -4 2 6 8 1 -6)
1969-12-31 18:00:18.464157442,(16 3 -1 6 1 2 4 7)
1969-12-31 18:00:18.464157442,(-45 -28 -11 -4 -9 -17 -24 -32)
1969-12-31 18:00:18.493033345,(-4 6 2 -1 3 5 4 -3)
1969-12-31 18:00:18.493033345,(21 7 -5 -2 -3 -4 -4 3)
1969-12-31 18:00:18.493033345,(-47 -13 5 7 1 -6 -13 -26)
1969-12-31 18:00:18.494236507,(-6 -8 -2 -3 -2 0 0 -8)
1969-12-31 18:00:18.509877621,(-2 8 8 2 8 22 32 23)
1969-12-31 18:00:18.509877621,(-6 -11 -10 -2 1 -3 -3 15)
1969-12-31 18:00:18.517096597,(37 9 -4 4 4 0 5 14)
1969-12-31 18:00:18.517096597,(3 14 8 3 9 9 7 2)
1969-12-31 18:00:18.536347198,(-7 -7 -5 -3 -6 -7 -13 -16)
1969-12-31 18:00:18.536347198,(-29 -10 0 -3 -5 -1 0 -11)
1969-12-31 18:00:18.544769337,(-9 -2 7 -4 0 9 15 14)
1969-12-31 18:00:18.544769337,(45 20 4 1 -2 -9 -1 21)
1969-12-31 18:00:18.562816776,(-9 -8 -7 -1 0 -5 -11 -15)
1969-12-31 18:00:18.562816776,(-3 4 3 3 2 2 2 0)
1969-12-31 18:00:18.564019938,(-23 -13 -1 -1 -5 -8 -17 -23)
1969-12-31 18:00:18.564019938,(3 -1 -3 1 2 6 16 27)
1969-12-31 18:00:18.582067377,(-40 -12 -7 -12 -8 -15 -33 -51)
1969-12-31 18:00:18.582067377,(-24 -9 1 5 -5 -8 -8 -14)
1969-12-31 18:00:18.589286353,(24 15 4 5 9 9 17 27)
1969-12-31 18:00:18.589286353,(-27 -19 -6 -4 -9 -9 -12 -24)
1969-12-31 18:00:18.607333792,(36 14 -6 5 9 6 12 29)
1969-12-31 18:00:18.607333792,(-12 0 4 -7 0 1 1 -2)
1969-12-31 18:00:18.615755930,(26 10 0 -2 -3 -3 -10 -19)
1969-12-31 18:00:18.616959092,(35 20 9 -10 4 12 13 31)
1969-12-31 18:00:18.635006531,(-13 -8 -2 11 -3 -5 -7 -15)
1969-12-31 18:00:18.635006531,(-2 1 4 6 -5 -5 -3 -9)
1969-12-31 18:00:18.636209694,(11 16 2 11 14 7 12 21)
1969-12-31 18:00:18.636209694,(-14 -10 -9 -7 -3 -1 -9 -24)
1969-12-31 18:00:18.654257133,(-13 -21 -10 -14 -5 -5 -5 -2)
1969-12-31 18:00:18.654257133,(35 19 -4 -13 -6 -1 -2 5)
1969-12-31 18:00:18.661476109,(-42 -16 2 5 -3 -4 -2 -14)
1969-12-31 18:00:18.661476109,(27 15 -7 -33 12 13 18 22)
1969-12-31 18:00:18.679523548,(7 8 16 42 0 3 5 9)
1969-12-31 18:00:18.679523548,(-43 -21 8 40 3 -14 -23 -42)
1969-12-31 18:00:18.689148848,(1 -2 2 -7 -3 0 0 6)
1969-12-31 18:00:18.689148848,(-3 -6 -14 -38 4 6 6 5)
1969-12-31 18:00:18.707196287,(10 9 -1 -9 -12 -2 2 2)
1969-12-31 18:00:18.707196287,(1 -2 4 5 4 -1 0 7)
1969-12-31 18:00:18.708399450,(22 26 12 18 16 26 32 32)
1969-12-31 18:00:18.708399450,(-15 -8 9 19 8 4 7 14)
1969-12-31 18:00:18.726446889,(24 14 -8 -28 -4 0 -1 5)
1969-12-31 18:00:18.726446889,(-19 -12 -6 -10 -4 1 -3 -11)
1969-12-31 18:00:18.733665865,(-30 -27 -10 -22 -22 -22 -22 -19)
1969-12-31 18:00:18.733665865,(14 8 5 13 5 10 12 11)
1969-12-31 18:00:18.751713304,(-2 3 9 13 5 2 -1 -2)
1969-12-31 18:00:18.751713304,(1 -4 -2 8 8 7 12 12)
1969-12-31 18:00:18.760135442,(-13 -8 1 -4 -3 -8 -15 -17)
1969-12-31 18:00:18.760135442,(15 10 -9 -24 -11 -5 0 5)
1969-12-31 18:00:18.779386043,(-8 -10 -10 -19 -28 -13 -4 -4)
1969-12-31 18:00:18.779386043,(11 8 4 -3 -2 2 7 10)
1969-12-31 18:00:18.779386043,(1 1 12 26 20 3 -3 -5)
1969-12-31 18:00:18.779386043,(8 12 29 56 20 6 -6 -10)
1969-12-31 18:00:18.798636645,(6 -3 -9 -1 18 10 8 11)
1969-12-31 18:00:18.798636645,(-2 0 -12 -24 -12 5 7 2)
1969-12-31 18:00:18.805855620,(-4 -7 -11 -27 -25 -7 -2 -2)
1969-12-31 18:00:18.805855620,(-16 -12 -4 11 -5 -9 -9 -9)
1969-12-31 18:00:18.823903059,(1 4 7 0 2 -3 -4 -3)
1969-12-31 18:00:18.823903059,(-6 -4 -2 3 2 -4 -7 -6)
1969-12-31 18:00:18.832325198,(5 -4 -2 -8 4 9 12 10)
1969-12-31 18:00:18.832325198,(-12 -13 -7 -6 -14 -14 -14 -21)
1969-12-31 18:00:18.851575799,(55 28 8 2 5 6 14 39)
1969-12-31 18:00:18.851575799,(-42 -11 6 -2 2 -8 -22 -35)
1969-12-31 18:00:18.852778962,(-4 -4 -3 2 4 5 5 6)
1969-12-31 18:00:18.852778962,(-7 -9 -15 -34 -5 -6 -8 -10)
1969-12-31 18:00:18.868420076,(-13 -5 3 17 -6 -1 -1 -9)
1969-12-31 18:00:18.868420076,(-10 -11 10 15 2 1 2 5)
1969-12-31 18:00:18.878045376,(15 4 -1 15 11 1 -3 -7)
1969-12-31 18:00:18.878045376,(-16 3 5 13 3 6 6 -4)
1969-12-31 18:00:18.905718116,(-2 -2 -5 -20 5 2 4 6)
1969-12-31 18:00:18.905718116,(-3 -6 -10 -20 -9 -3 -2 -4)
1969-12-31 18:00:18.906921279,(-16 -10 -3 2 -4 -3 -7 -10)
1969-12-31 18:00:18.906921279,(46 27 5 5 1 6 15 31)
1969-12-31 18:00:18.923765555,(-36 -21 -20 -31 -9 -13 -24 -37)
1969-12-31 18:00:18.923765555,(12 3 3 -7 -13 -9 -6 1)
1969-12-31 18:00:18.924968718,(20 18 5 16 19 15 16 19)
1969-12-31 18:00:18.924968718,(11 6 7 27 0 0 0 7)
1969-12-31 18:00:18.940609832,(-13 -3 9 10 3 -1 -4 -8)
1969-12-31 18:00:18.940609832,(43 22 1 1 6 5 8 11)
1969-12-31 18:00:18.950235132,(-18 -12 -11 -23 -11 -9 -6 -6)
1969-12-31 18:00:18.950235132,(-11 -15 -29 -62 -29 -13 -7 -8)
1969-12-31 18:00:18.968282571,(-3 -2 14 25 13 2 -2 -6)
1969-12-31 18:00:18.968282571,(-8 -3 15 31 4 7 7 7)
1969-12-31 18:00:18.976704710,(27 25 15 27 5 0 5 13)
1969-12-31 18:00:18.976704710,(-27 -22 -14 4 3 -4 -12 -28)
1969-12-31 18:00:18.995955311,(49 18 -7 -28 -5 4 16 42)
1969-12-31 18:00:18.995955311,(-10 -13 -15 -27 -8 -6 -2 1)
1969-12-31 18:00:18.997158474,(21 8 -4 -7 -4 0 1 13)
1969-12-31 18:00:18.997158474,(-25 -5 5 12 13 -3 -7 -19)
1969-12-31 18:00:19.012799587,(-11 -9 -5 -7 -12 -1 -2 -8)
1969-12-31 18:00:19.012799587,(47 21 4 3 1 -1 1 13)
1969-12-31 18:00:19.022424888,(-37 -19 -2 -5 -6 -8 -12 -27)
1969-12-31 18:00:19.022424888,(3 0 5 1 -9 -12 -11 0)
