timestamp,_data,_check_fields
6420067057.0,"array('h', [1.0124473570846337, 2.4196619800073806, 2.684735888235107, 2.1178597306221745, 1.1646818798215521, 0.876886268297775, 1.1699199687492572, 0.9948068168927945])",False
6440063584.162995,"array('h', [0.44338824388880177, 2.044584548801389, 1.4461205886373816, 1.427330696659317, 0.7335719845911954, 1.005801449530601, 1.3112037688001787, 1.0502321566415225])",False
6460060111.325992,"array('h', [0.6610919613057131, 2.6572387002732536, 2.2284897492423763, 1.8714715044805854, 1.2323610567136303, 0.9461159441106456, 1.2156987867125575, 1.1206276844745224])",False
6480056638.488987,"array('h', [0.6869444906894662, 2.543712592814972, 2.157483665020932, 1.7540074837340272, 1.65225609162142, 1.003577193671054, 1.074300831634438, 1.0497153902609286])",False
6500053165.651982,"array('h', [1.159502180795085, 2.8462031560391408, 2.7087865515539944, 2.0392450853012254, 1.6484916144550985, 1.0630040092603823, 0.9909811852551034, 1.1292070951471653])",False
6520049692.814978,"array('h', [1.1811119164717254, 2.7717213378592973, 2.712290735828667, 1.7654017451615156, 1.633920203246251, 1.090549826180421, 0.9131841804329907, 1.2156925014310453])",False
6540046219.977974,"array('h', [1.2607488927759216, 2.882017248747928, 3.0413463786842994, 1.9336663366603657, 1.6702406440407493, 0.9902919841847604, 0.999797064130191, 1.1905649236959044])",False
6560042747.140969,"array('h', [1.246654492675828, 2.699773808133837, 2.904398388853244, 2.3016630322785474, 1.7769695045345348, 0.8942662009438705, 0.9703397399205366, 1.181256476151635])",False
6580039274.303965,"array('h', [1.2543372395061256, 2.719735515999074, 3.127249482386643, 2.6289884903460057, 1.826913544324793, 0.9070367101954596, 1.0177665850378272, 1.0426423184559834])",False
6600035801.46696,"array('h', [1.171642450056531, 2.569735257114936, 2.872032420298407, 2.798149699708044, 1.709946807440722, 0.8456100639120308, 1.0121143303226487, 1.0358327077467864])",False
6620032328.629956,"array('h', [1.2469639142666726, 2.869054403547898, 3.570666435178509, 3.180638831662193, 1.7459256350344616, 0.9189946023432958, 1.1258445627897047, 1.0841694134850715])",False
6640028855.792952,"array('h', [1.253357496236157, 2.9441694274006163, 4.614454230859412, 4.623871292303707, 1.986571048891471, 0.9565655006557375, 1.1125682446063783, 1.2336742907869913])",False
6660025382.955947,"array('h', [1.6667472869329392, 3.944126708530309, 8.21408415181383, 8.356113832832861, 3.052065891869987, 1.324148115952539, 1.3785176979748228, 1.3753160967043352])",False
6680021910.118942,"array('h', [2.0671068381149857, 4.327791591899384, 10.111801007114192, 10.379626531592352, 3.866142397912134, 1.4385899870585828, 1.3466084137316487, 1.6522097466699346])",False
6700018437.281939,"array('h', [2.6530585147980803, 4.8761053459560175, 12.353895783188758, 12.723929603945344, 4.496508248526698, 2.4319290893377694, 2.6522396223898355, 2.2147729365531967])",False
6720014964.444934,"array('h', [3.5367097200902506, 5.526070694302214, 17.278492860205574, 16.95364783990067, 5.759226998120768, 3.508464129870781, 3.7698010593689766, 3.144275919969447])",False
6740011491.607929,"array('h', [4.1364265798846285, 6.575511048642585, 22.352710087488823, 21.949404044699214, 7.1742845586374075, 4.120290861986451, 4.336708836315384, 3.5966949354693925])",False
6760008018.7709255,"array('h', [4.5539576049685175, 7.656936877177954, 26.472505349269564, 27.365794465666294, 9.059842021964085, 4.885835676842703, 5.3653360264178085, 4.266801413960576])",False
6780004545.933921,"array('h', [5.052111801542546, 8.738724157764945, 28.945995991788827, 30.707382832336233, 10.22023527649358, 5.217992490656557, 5.348540620050358, 4.476570286843542])",False
6800001073.096916,"array('h', [5.834285832293315, 10.548938131214321, 32.638920660616236, 35.66675688604241, 11.726209956330766, 6.171320421197976, 6.779361537185478, 5.328139917740589])",False
6819997600.259912,"array('h', [6.928156642546396, 12.720657143526513, 37.76140563052413, 41.27608123211902, 14.423780935193443, 7.231842676966864, 7.5850239477796055, 6.220574202119458])",False
6839994127.422908,"array('h', [7.5462215831657335, 13.887148349956009, 40.53569311536729, 45.27096980205882, 15.784006479314606, 7.921273411519588, 8.239597756239787, 7.010062453475041])",False
6859990654.585903,"array('h', [7.806255435715868, 14.28133941960421, 40.98180274675983, 47.16472741760216, 16.250136338346962, 8.043594889199358, 8.194673977226953, 7.314527172817225])",False
6879987181.7488985,"array('h', [8.252235151711654, 14.916096399983147, 41.745730656801435, 48.546066146212674, 16.97402154145621, 8.429942393892343, 8.342501194626042, 7.377433132864619])",False
6899983708.911894,"array('h', [8.569500931238478, 15.029575153718303, 40.900895297467294, 47.66737473535355, 17.107698685150808, 8.583319222521691, 8.300937917915807, 7.331049461429064])",False
6919980236.07489,"array('h', [8.301903613229245, 14.401999570948474, 38.07931716403351, 44.57498933395394, 16.350475881948235, 8.575946796407047, 8.373311202121577, 7.256435454900476])",False
6939976763.237885,"array('h', [8.223063250388288, 14.416716123125134, 37.27334800737502, 43.53572722764694, 16.14121199325897, 8.252779563511565, 8.036530979275634, 7.186959455660537])",False
6959973290.400881,"array('h', [7.656466940552277, 14.089749820284746, 33.69354050794416, 40.308035621772135, 15.396780227516357, 7.0162708617021385, 6.815302023390946, 6.5853368311644465])",False
6979969817.563877,"array('h', [8.256885290582394, 14.338979565615668, 28.94994844553757, 36.307554705772176, 14.177229314861822, 6.4767935155625995, 6.779375542018824, 7.051923895464557])",False
6999966344.726872,"array('h', [9.225852825555585, 14.13663588070596, 24.292576305832313, 31.064879737303862, 12.710866181782391, 6.171418107230368, 7.0914963702738225, 7.920173829453614])",False
7019962871.889868,"array('h', [11.14002324121238, 14.789492141830632, 21.62176917316082, 27.143474682357077, 11.180439065377545, 6.6053177348551975, 9.409503908108592, 8.848703098517026])",False
7039959399.052863,"array('h', [13.0137011294786, 15.052711281974014, 19.445643934869047, 23.92443180665803, 10.410879802503201, 6.508951476960275, 9.608463689943678, 9.859778721298577])",False
7059955926.215859,"array('h', [13.338229160766137, 13.641092399489716, 15.111331945874383, 18.17996713378774, 8.207613565669982, 5.793196368567766, 8.483670043009244, 9.97276639947772])",False
7079952453.378855,"array('h', [13.512677227188925, 12.453531035364175, 10.765282541890654, 13.155196691591627, 5.919904547740647, 5.0627115697824445, 9.195286451388053, 10.556168355258064])",False
7099948980.54185,"array('h', [16.25834459568342, 12.646714473552768, 9.778959417399959, 10.083552453501465, 5.314951518691605, 5.498140559487634, 11.567444418604266, 11.92435235530868])",False
7119945507.704845,"array('h', [18.0542015846059, 12.922278097317204, 9.148291558168093, 8.450168749297294, 4.8118583620212885, 5.889316805725502, 14.062904143653833, 13.551454025755378])",False
7139942034.867842,"array('h', [20.775753207095736, 14.27803489411753, 8.26980541568448, 6.508611153297867, 4.09644402417827, 5.500699633431617, 14.825070330501742, 15.96122070589724])",False
7159938562.030837,"array('h', [22.302148287710818, 14.396002324875035, 7.635350169072513, 5.622641614860055, 3.630289589694432, 5.7807139026567045, 16.478519609360003, 17.842969181807167])",False
7179935089.193832,"array('h', [23.244076091799926, 14.79353668009405, 7.382930825170346, 5.3547309581554305, 3.4454343196014072, 6.9297728088265815, 18.392852912582942, 18.176788985371665])",False
7199931616.356829,"array('h', [24.6415569233313, 15.743901715084684, 7.9844082999559705, 5.647383673332646, 3.7833339525094116, 8.575373648846913, 19.482916780488335, 19.20043377537669])",False
7219928143.519824,"array('h', [24.752383957859962, 15.7216191291956, 7.7187949289779105, 5.48568837145717, 3.9682394576658075, 8.934666642065022, 19.352431226344407, 20.333538530969975])",False
7239924670.682819,"array('h', [25.027709045621275, 15.237264062292892, 7.855691601247457, 5.358227201971126, 3.9032674201669204, 9.971841198840067, 20.868527407962063, 21.708475164103515])",False
7259921197.845815,"array('h', [25.22587506704138, 15.542576965321244, 7.663050090785959, 5.058391690727403, 3.9386022750312026, 10.094313664896921, 20.388404000949723, 21.839731235055986])",False
7279917725.008811,"array('h', [24.899805194775954, 15.680613176297083, 7.232710779865547, 4.787616313817504, 4.019487823272469, 9.573890014854614, 19.134947907685717, 22.09113986423753])",False
7299914252.171806,"array('h', [24.22100641629676, 15.487902974481784, 7.209543779452204, 4.579734074663965, 4.0539848025958625, 9.861481682500946, 20.08137493910851, 22.824087819263035])",False
7319910779.334802,"array('h', [25.3971810909702, 16.08676733001468, 7.259326761881538, 4.614710897382343, 4.1669520264596445, 10.410087970355319, 21.5435726891096, 24.151101404662054])",False
7339907306.497797,"array('h', [24.0480837403517, 16.19064300220839, 7.346223617849072, 4.614673539588744, 4.2049705025204425, 11.201352641828286, 21.89189305568387, 24.622283079780853])",False
7359903833.660793,"array('h', [23.61918903567996, 16.69556080663521, 7.29559748561749, 4.540996052617207, 4.162139325026526, 10.811662557920531, 20.229799860414264, 24.89531923926004])",False
7379900360.823789,"array('h', [23.825960437291034, 16.556012765344157, 7.5086721180389855, 4.769699531651344, 4.380689119398232, 11.195832543467228, 19.066635427930684, 25.097092780121915])",False
7399896887.986784,"array('h', [22.93744029027844, 15.989435262963811, 7.230976952115737, 4.810002908631376, 4.627345785583479, 11.801947718384334, 18.881186849358077, 24.161445010105286])",False
7419893415.14978,"array('h', [24.171788229868856, 16.900408285947652, 7.44632282319672, 4.905993926994633, 4.660525442218497, 12.128386564720492, 17.453123452786357, 25.988808348578793])",False
7439889942.312776,"array('h', [24.490865989876376, 16.078443158814366, 7.002493177280754, 4.789088332787929, 4.760972595435904, 12.205788779100738, 16.495380588813628, 26.788589942737243])",False
7459886469.475771,"array('h', [26.553002079226516, 16.069412107878215, 6.796658037062466, 4.6846056257466495, 4.513610766937489, 12.255969376529373, 17.11401647142222, 27.79346669757207])",False
7479882996.638766,"array('h', [26.535559649162913, 16.258429142787953, 7.0434052672806695, 5.019383116488344, 4.814114990328082, 13.579204699197918, 17.655336477199675, 26.818059187858314])",False
7499879523.801762,"array('h', [27.317301407707706, 16.62787824655427, 7.173113028850624, 5.082924844013219, 5.056887724511259, 14.288181049968273, 17.68184062403593, 26.426312714778007])",False
7519876050.964758,"array('h', [27.385785362076014, 15.811043127543815, 7.7652295909432105, 5.368147902649451, 5.25750756542808, 15.515949959124667, 18.72379014585138, 27.362280580515314])",False
7539872578.127753,"array('h', [27.614740916675164, 14.953417489827798, 7.725540367370088, 5.396857317326873, 5.4005976455467035, 16.439815770279896, 18.710491611173616, 27.88344489008852])",False
7559869105.290749,"array('h', [27.5053206900177, 15.302587183127958, 7.840256078012853, 5.478994074261461, 5.499367359085628, 16.817179012405948, 18.188861280869563, 29.03837901759824])",False
7579865632.453745,"array('h', [28.87442499154248, 15.412928617251078, 7.6359425239030045, 5.203299481096342, 5.4378938113404836, 17.163434792461445, 16.421057356449975, 28.287406121091134])",False
7599862159.61674,"array('h', [29.109869138526324, 15.0447172156047, 7.840979716752777, 5.695775671439942, 5.961352320127251, 17.422616325539767, 15.60244911347982, 27.193547697052235])",False
7619858686.779736,"array('h', [28.478029438853085, 14.276112711198834, 8.001088258795127, 5.888708040047253, 6.222642611669001, 18.04262440833652, 16.396111190472944, 26.000983680078765])",False
7639855213.942732,"array('h', [28.888148661645047, 13.834248562366424, 7.879387126128133, 5.892233869545167, 6.327509568914933, 19.23196884669006, 17.898723028896743, 27.373403893163573])",False
7659851741.105727,"array('h', [29.49005481276854, 13.462250399454549, 8.474727204844866, 6.4489698288443424, 6.953767785501997, 20.922495362734182, 19.457903024463516, 28.526081994057087])",False
7679848268.268723,"array('h', [29.25512831500669, 13.21729747912874, 8.227519287285467, 6.403026824603763, 6.9746502656568525, 20.044260075221725, 20.546074368909757, 29.534627759287492])",False
7699844795.431718,"array('h', [28.071519078329647, 13.251624607542855, 8.317170217505904, 6.242905264322072, 6.820745069499735, 19.861386665505552, 20.323790350701984, 30.43492740303483])",False
7719841322.594713,"array('h', [28.711522378498277, 13.248719002929091, 8.246952284501353, 6.07452400187992, 6.6840255741140115, 19.990291660470657, 21.814378839383416, 30.487599428278056])",False
7739837849.757709,"array('h', [29.95410811424749, 13.59040875067768, 8.201401529058172, 5.815020819349268, 6.557919816594524, 18.89095981979138, 20.870869645054036, 30.37462337213232])",False
7759834376.920705,"array('h', [30.640705281304502, 12.987490767416302, 7.6569426808083865, 6.036098847145877, 6.756915805469452, 18.319065320911797, 19.87686010080206, 29.706650301474742])",False
7779830904.0837,"array('h', [30.406387689042585, 12.461522746402402, 7.506807133155325, 6.705249943495497, 7.035680026011238, 18.22267988711606, 20.1273759327742, 28.811832237589357])",False
7799827431.246696,"array('h', [32.46624089654659, 12.775562433827695, 7.430039647358959, 7.0591226261475075, 7.455939673922369, 18.842975796826284, 20.91063185804515, 28.968525105688908])",False
7819823958.409692,"array('h', [34.89835667648905, 13.082702376841995, 7.609686329836524, 7.639824807208827, 8.267714561765636, 18.280094128814486, 21.976917885131204, 29.851641340961006])",False
7839820485.572687,"array('h', [34.16884145612695, 12.434357801353968, 7.524935217196937, 7.9849064452937935, 9.72525908628144, 18.10720834601352, 22.463570448788413, 29.57680275951867])",False
7859817012.735683,"array('h', [34.402754386235685, 12.255883771708339, 7.169895240636516, 7.877865675886939, 9.693086313297336, 18.63697240829188, 23.33680848146398, 30.5551327400594])",False
7879813539.898679,"array('h', [32.44153860592113, 12.092628715690237, 6.911312068420975, 8.5529543991289, 10.593580721878887, 19.0467953662628, 22.266892844759642, 29.42708797222897])",False
7899810067.061674,"array('h', [29.909118424152158, 12.199128433384038, 6.440653123659163, 8.468398179128291, 11.019661976434698, 17.64677195794648, 20.941844884486905, 27.08870633581333])",False
7919806594.224669,"array('h', [28.15274208937348, 11.793865565134489, 5.672909381031722, 8.684738126105989, 11.137813685258646, 17.518385160845153, 19.856984674253333, 25.555412180970073])",False
7939803121.387665,"array('h', [28.230238337942016, 12.949315502446924, 6.54288574346436, 9.390627495723669, 11.508555999865408, 19.957560758368807, 20.71525661857573, 24.1517642969618])",False
7959799648.550661,"array('h', [27.421894041797035, 15.529086377013655, 8.215200588809259, 10.267228558621394, 12.083316962821103, 20.222440955257248, 20.312233355477723, 23.169083393181047])",False
7979796175.713656,"array('h', [26.47605544891116, 19.04668995114362, 12.70687717802558, 11.777473603368392, 12.89055846590006, 19.66182115565705, 18.955363758379573, 22.77005465506531])",False
7999792702.876652,"array('h', [24.331958460228865, 21.34013673252359, 16.484331545053827, 12.601127281076836, 13.848062089974272, 20.754375641276596, 19.62803395474091, 22.727388671490818])",False
8019789230.039648,"array('h', [23.434092757535108, 22.888089481429095, 18.200753994996653, 12.74456182834449, 14.821372065942702, 21.526327594084872, 18.368579310145204, 22.66418146760576])",False
8039785757.202643,"array('h', [22.88360326266104, 25.132534868865058, 18.961713562871466, 12.519766935052141, 15.495150673649272, 21.549262966510742, 18.004848357736915, 22.99552474518064])",False
8059782284.365639,"array('h', [19.682295690014772, 27.71504425275435, 22.7548717853387, 13.558470704994669, 15.997800560939362, 21.96242690197025, 16.365890708099027, 20.875874965456408])",False
8079778811.528634,"array('h', [17.443605270737994, 29.443001712998278, 26.569987669190617, 13.870634600431657, 15.768394173250355, 22.578367586207047, 15.997679373079357, 19.7596576365097])",False
8099775338.69163,"array('h', [17.716285365235787, 34.15799229677036, 31.081795944594777, 15.294773461939366, 16.73499680760424, 23.30059303827425, 14.669742958701923, 19.443806023377114])",False
8119771865.854626,"array('h', [17.937162120614666, 38.52748190418229, 35.283120672238674, 16.40396618840698, 17.253912744098084, 24.20022373626098, 13.993669606992931, 19.70014920714893])",False
8139768393.017621,"array('h', [20.26455801436315, 42.95619723260364, 37.10405013241668, 17.378185253181208, 17.03844757912054, 24.835780028827426, 14.269137377466041, 19.841847444044042])",False
8159764920.180616,"array('h', [22.333676218522896, 48.15755913138966, 41.79248545771192, 19.210218375021498, 17.343109968690175, 25.711583225007573, 14.643890390352786, 19.454881119161946])",False
8179761447.343613,"array('h', [23.01866425094671, 52.21253176213161, 46.15947272987256, 20.523655403304556, 17.359499554506392, 26.168057355615232, 14.484832235695146, 18.245977999358956])",False
8199757974.506608,"array('h', [23.166679967682928, 52.94803515462742, 47.98910410193704, 20.825877028364186, 17.428453167484857, 25.04632035397773, 13.350576428951493, 18.088949544896092])",False
8219754501.669603,"array('h', [23.170181008290022, 54.56988401032603, 49.616451679709364, 19.75006422711782, 17.548417086623896, 26.080951052247027, 13.238689566456443, 19.358875382420674])",False
8239751028.8326,"array('h', [23.259381706554155, 56.726892365888766, 51.766999486067085, 20.581283473673366, 17.002479115651745, 25.94316370502265, 12.489143962248985, 19.147384948595334])",False
8259747555.995595,"array('h', [24.414788986886126, 61.58396814050678, 55.04300712903274, 22.514607681433922, 18.026426632063686, 25.296644960418817, 12.334111407608951, 19.13981123903468])",False
8279744083.15859,"array('h', [25.43177548113887, 66.85320417619162, 60.528301534018816, 25.766994293032578, 19.880332186610758, 25.160934032821913, 12.408753924675876, 20.030363833444678])",False
8299740610.321586,"array('h', [27.419598868234903, 68.40944697875273, 63.55560051703213, 27.970156848883697, 20.708511909347795, 24.802001054368176, 12.668666869080406, 19.70965440812272])",False
8319737137.484581,"array('h', [29.530195875326836, 70.69381158898857, 63.985403662827274, 28.212041707684136, 21.55001082701042, 24.902091676430953, 12.8475793508785, 20.541182289328773])",False
8339733664.647577,"array('h', [31.91235175395373, 74.84512570411869, 66.77313720334539, 30.14109220767582, 21.75270288778293, 25.306235699776735, 13.77065403689128, 23.382621713817233])",False
8359730191.810573,"array('h', [32.33404676045255, 75.00803568468523, 64.70834423055892, 29.326856741213003, 21.596342476666194, 24.18675317637389, 13.910950892346769, 23.78507872676276])",False
8379726718.973568,"array('h', [32.09202557935516, 74.98018504167963, 64.75083626050017, 29.1563941484187, 21.44906365468099, 22.62676808500202, 13.69641673388413, 24.38258874975124])",False
8399723246.136564,"array('h', [30.74399431024285, 74.87656992182748, 67.38081581532258, 30.088728114486194, 21.673986104729543, 22.64391245156808, 13.324692416021348, 25.416980645444198])",False
8419719773.29956,"array('h', [32.70202261831033, 75.51165300422518, 67.40907262330525, 30.338749848066705, 22.523311509997992, 21.935362348471397, 12.600215764070548, 25.05913939276343])",False
8439716300.462555,"array('h', [34.9946808727445, 78.7396386431126, 68.60598066154571, 30.430881177185395, 23.015377733424636, 20.672230118354154, 13.211776042234831, 26.870754965367674])",False
8459712827.625551,"array('h', [37.73814003903755, 80.52818241331262, 70.9464625230816, 34.06792751852158, 23.56408003438074, 19.94806238728334, 12.983396857003575, 25.766295509873018])",False
8479709354.788547,"array('h', [38.704612832528824, 77.6347083676606, 67.95390477064969, 35.07757077140397, 24.880086880772012, 19.847934642377847, 13.958821832820888, 25.906278868667776])",False
8499705881.951542,"array('h', [37.816296598109425, 74.73393314421254, 63.52710394042165, 33.43769187193732, 24.203845365082536, 20.159737251164838, 14.93083034044443, 27.937000235585753])",False
8519702409.114537,"array('h', [36.51897549673527, 72.72778257070897, 60.36015215191618, 31.30867405879724, 21.858431493282527, 18.728206922570426, 14.697845212382084, 26.982889478788785])",False
8539698936.277533,"array('h', [35.02628687658955, 71.30371292975869, 58.312783419918816, 28.679605813554783, 19.797392657970896, 18.376785242179448, 14.924544802663664, 25.82952899999445])",False
8559695463.440529,"array('h', [33.39655591333092, 70.94924422226926, 58.314062791866256, 28.522268468803276, 18.828656022304905, 18.029659930048613, 14.585419835404942, 25.15799355857053])",False
8579691990.603524,"array('h', [31.54656973271369, 67.17682402122561, 54.324205551486024, 27.30586166990858, 17.43820774880714, 16.98115664873082, 13.674279091797262, 23.17953668401458])",False
8599688517.76652,"array('h', [31.320375614838905, 66.20783054501331, 54.26418354183647, 26.610215755574615, 17.25668557445163, 16.284848424340083, 12.753184523462986, 21.354594990306413])",False
8619685044.929516,"array('h', [32.87506765853981, 68.18667085536434, 57.66709036770389, 27.015560539509444, 17.749819269920135, 17.093269936680542, 12.682169923112172, 21.04413500282377])",False
8639681572.09251,"array('h', [34.01597499911993, 66.56976183555904, 56.607100834963745, 26.403164162460477, 17.97313225854471, 17.24350507777379, 12.339635803810545, 19.932017044744395])",False
8659678099.255507,"array('h', [32.603288159717124, 65.58271763259282, 53.99412930408807, 24.916594261000988, 17.971810161838636, 17.137281309057652, 13.076134229399177, 21.46604258483545])",False
8679674626.418503,"array('h', [29.928572276933675, 61.72640743760616, 51.69056264333823, 24.37644231738504, 17.884561232482362, 16.192747130815764, 13.143207728090067, 21.788371013732394])",False
8699671153.581497,"array('h', [28.945659160779464, 62.871331232409574, 52.307413145657996, 24.284795819111434, 19.24001528800473, 16.041198302025297, 12.754130972416505, 21.955786852426247])",False
8719667680.744493,"array('h', [26.073956525647716, 60.36487726121735, 49.05686021767442, 21.195770927548143, 18.105577802198567, 15.46940623847011, 12.549638846872824, 22.716743126218553])",False
8739664207.90749,"array('h', [26.724446721519406, 61.34013010602294, 49.63123497668259, 21.45115349369693, 17.276041517589327, 14.609402471086984, 11.404528734812152, 21.163624952085055])",False
8759660735.070484,"array('h', [27.107680806109077, 61.219620791643976, 50.44322942377012, 21.3854333193538, 17.13160942621062, 14.191705500418193, 11.508777315183261, 20.681442314279444])",False
8779657262.23348,"array('h', [27.98961060607039, 60.99755642333377, 49.69485050983037, 21.2827457937651, 17.46887369253918, 15.673982389528653, 11.53815170114074, 21.68300008376186])",False
8799653789.396477,"array('h', [28.316740213534967, 61.36933072339513, 47.5127546138044, 20.53061438102603, 17.64906710764177, 16.596660422386535, 11.849771946858473, 22.394706242443867])",False
8819650316.559471,"array('h', [28.450382272178203, 61.056605460478046, 47.656922614540356, 20.913775277267796, 18.007675209867642, 17.13306792497273, 12.509922763002049, 22.68644828342638])",False
8839646843.722467,"array('h', [28.821679330598432, 60.02107498012658, 46.20768437978021, 20.264418930463542, 18.55522187317697, 17.320825868274767, 12.483190094257692, 23.419825296065273])",False
8859643370.885464,"array('h', [27.838260840560483, 56.65511930494922, 43.517288430482274, 20.900578478689013, 18.013892180936207, 17.0767040957655, 13.193820557965818, 23.993341875897883])",False
8879639898.048458,"array('h', [26.276656226346077, 58.85858435824857, 45.26492161426372, 20.97699612874154, 17.541751899359028, 16.731188769036756, 14.670549813155967, 25.22048470741707])",False
8899636425.211454,"array('h', [26.65271111251938, 58.537307573099, 46.371641690876174, 21.05315819408895, 17.267297267111346, 16.356939324721882, 14.905726374428774, 25.366599489297833])",False
8919632952.374449,"array('h', [27.057804324005033, 61.48226468272265, 49.83420606446571, 21.928469071998762, 17.299407442980744, 16.231986548396122, 14.107763668577695, 23.79951311454449])",False
8939629479.537445,"array('h', [25.769785978180984, 57.85863302585777, 47.28194728451921, 20.55844817632843, 16.411575598352194, 16.363470556308446, 13.815784227157938, 22.98147083591762])",False
8959626006.70044,"array('h', [25.999735349983943, 57.43646050406272, 47.80368080129336, 20.121277772221237, 15.443918447158978, 16.311640160408288, 14.156189949296557, 22.25574212073184])",False
8979622533.863436,"array('h', [27.653157003717975, 61.400951803976405, 49.88901536456258, 20.30915580360925, 15.388625039291233, 16.734910864901536, 14.567867034168342, 22.22518174123002])",False
8999619061.026432,"array('h', [28.749932143690078, 62.85930883552965, 52.57826264821982, 22.030950613745983, 16.86665243223464, 16.813920041207705, 14.286071143197193, 21.965490686764596])",False
9019615588.189426,"array('h', [28.900878976745854, 63.59456914985085, 54.318913495151016, 23.102327962546354, 16.4467730288462, 16.65070585814722, 13.637913146411337, 21.880969296911637])",False
9039612115.352425,"array('h', [28.00851560577316, 59.82471771213677, 53.778526801650536, 23.3992075752088, 16.038947939425295, 14.984374554313112, 12.89366771569055, 21.504723844512164])",False
9059608642.51542,"array('h', [27.893023727868343, 58.55022091905967, 53.951791264629556, 22.87352130981261, 15.506475402824737, 14.60671050639468, 11.956189737848357, 21.572978966707506])",False
9079605169.678411,"array('h', [26.517416677372456, 56.70006349173348, 52.03410351700325, 21.924093744416258, 14.58219032150161, 14.072090290723951, 11.808443723026011, 20.704323505932294])",False
9099601696.84141,"array('h', [25.136368821556907, 56.93531582548577, 52.317317981482134, 21.145443997956797, 13.067088270920829, 13.721468058296832, 11.57297788160334, 19.867949970507695])",False
9119598224.004406,"array('h', [24.673799310099923, 53.05362278890173, 48.52149092188506, 19.519092801432404, 13.243337122658103, 13.396194159614152, 10.241915656643693, 18.842874161991137])",False
9139594751.1674,"array('h', [26.41228968584072, 52.71203170902418, 48.96520761389132, 19.869368167807515, 13.297673902868315, 14.15620251270424, 9.382883025457808, 18.40456535009524])",False
9159591278.330397,"array('h', [25.110243406244617, 50.76262257994329, 45.52426365441693, 18.504474107937636, 12.71172994187243, 14.368534293648278, 9.261898569535692, 17.76407196041217])",False
9179587805.493393,"array('h', [25.274971634316472, 50.95103555143032, 44.940376396815225, 18.52853449326337, 12.427375073979283, 14.364402264099843, 9.143386592319704, 19.58543105905068])",False
9199584332.656387,"array('h', [25.446539336546266, 52.776483152684065, 45.344348419173706, 17.605419318156905, 11.922689387653392, 15.66517190791587, 9.408940940338232, 19.88017434953633])",False
9219580859.819384,"array('h', [24.601052998437602, 50.28779113923428, 44.59694313608793, 18.206936322391094, 12.682563722746787, 16.356162511494027, 9.539605087765416, 20.431864669111203])",False
9239577386.98238,"array('h', [22.937084909910073, 47.4596608979134, 42.968806321470105, 16.87252273676796, 12.090257576350071, 16.927247622995846, 9.747234246818591, 21.02173650341389])",False
9259573914.145374,"array('h', [22.15875826808481, 44.06547933191332, 39.219718526906654, 14.189599028198243, 10.97416265498803, 16.87821124926422, 9.93652057258136, 21.387610207272523])",False
9279570441.30837,"array('h', [24.444908513956012, 45.800720846611156, 40.35259863012458, 14.304243697320176, 11.102421220610662, 16.836461336786588, 10.574986360308605, 23.152448771937443])",False
9299566968.471369,"array('h', [25.680744238669313, 44.91933504715878, 39.795780758473924, 14.495174255117682, 11.351505174452559, 16.384427758425776, 11.235650563641094, 24.02277844594836])",False
9319563495.63436,"array('h', [26.49257718311802, 45.039235423574304, 39.246863799930715, 15.440509260508373, 11.924629679248062, 16.87946240500319, 11.752323231353303, 24.842403890504713])",False
9339560022.797358,"array('h', [26.75209238125963, 46.9419502628566, 40.396122380924844, 16.304427886179507, 13.5303600441009, 17.818885187469288, 11.6685841337136, 24.849996421404025])",False
9359556549.960352,"array('h', [27.667155529652977, 46.77279275901306, 40.48390139288721, 16.475381979222938, 14.108203145289078, 17.488259840299026, 12.120831743578025, 25.786945069925846])",False
9379553077.123348,"array('h', [27.572517454054488, 45.75179375411369, 37.88711611713079, 16.126964281519033, 13.997191960798045, 17.334313739715107, 12.153050959479843, 25.947190345648764])",False
9399549604.286345,"array('h', [27.994556746433616, 45.96630333427654, 35.88047475663932, 15.295073951989934, 13.98164730891777, 16.322107452901836, 11.999428607951588, 26.369257974135635])",False
9419546131.44934,"array('h', [28.406202375773912, 45.62739050947687, 36.771585780905305, 15.382135682116994, 13.947596134933175, 15.789956372558953, 11.806084198911954, 26.000704197057846])",False
9439542658.612335,"array('h', [28.827192101892166, 44.99959119296841, 38.372807893507584, 16.39512213683425, 14.576099327821348, 15.430908985929612, 11.83742278626812, 25.404454660410945])",False
9459539185.77533,"array('h', [29.769775056636036, 43.42447789305611, 36.44230203802324, 17.109616744654158, 14.956744991800159, 15.555618788060926, 11.780234120854939, 25.513473517325327])",False
9479535712.938326,"array('h', [28.183455988714833, 43.26679786248075, 35.45175241549874, 16.593433134632747, 14.498817782793173, 14.591297165362796, 11.000863862315189, 24.14039840518335])",False
9499532240.101322,"array('h', [28.75781247425273, 41.573839885305425, 33.640884762435256, 17.409833375904004, 15.1579620287862, 13.648665906038369, 10.66171215475966, 24.193175364512573])",False
9519528767.264317,"array('h', [26.74464019598794, 38.58826019184328, 31.74031766814515, 17.99824037772604, 16.43194543349616, 14.256249966589976, 10.583884245275332, 22.316949326871548])",False
9539525294.427313,"array('h', [24.73465063173333, 36.83075563140107, 29.45195989204135, 18.269074281147443, 15.861935803231775, 15.478095566493312, 11.768577715328307, 20.95466854949098])",False
9559521821.59031,"array('h', [23.2956739715684, 39.001865010002255, 29.906139151601746, 18.131578954270903, 15.731564493637674, 16.100853163029864, 11.69157653582122, 19.593074335995787])",False
9579518348.753304,"array('h', [22.465881761145216, 38.68463303345688, 30.430835156324267, 18.507140184441386, 15.893081685561322, 15.281716920039084, 11.717956452165952, 19.389416746842304])",False
9599514875.9163,"array('h', [24.630593931020627, 36.38755034942896, 28.294802179828658, 18.182772133751307, 15.015529379250221, 15.656542925216543, 13.00104492409119, 20.990347772949864])",False
9619511403.079296,"array('h', [26.458569108645023, 37.36701427030979, 28.779022540390738, 18.25632222092568, 14.644380228658516, 16.639088514403216, 13.508929549927329, 22.332803059042487])",False
9639507930.24229,"array('h', [28.25555710205175, 35.89298368564112, 27.779701925993827, 18.106141252255348, 14.038755833040996, 16.10236537162123, 15.056067107000956, 22.526918977990242])",False
9659504457.405289,"array('h', [30.255646484780613, 33.70112447368972, 26.589927046578914, 17.46715565402391, 13.478839500654166, 16.312678649329282, 17.11214816830644, 23.736585128291676])",False
9679500984.568283,"array('h', [31.246948879508796, 30.78063172221806, 22.143872600613104, 16.44388111986356, 13.175687405547814, 17.080758165717484, 18.070643762664506, 23.64169354508854])",False
9699497511.731276,"array('h', [30.374124290318164, 29.226498397512646, 18.709853472711522, 14.848940865591976, 12.167732334490102, 15.855544532222094, 17.816165307169374, 24.167950424050304])",False
9719494038.894274,"array('h', [32.263860060300836, 28.42059898412966, 17.624057751685367, 13.881875834399963, 11.373517583764622, 14.929649170357603, 18.348434826327438, 25.29978854432097])",False
9739490566.057268,"array('h', [36.45198310179661, 29.609808120433875, 16.43698691085616, 13.466554321782759, 11.132078900020415, 15.434126279468227, 19.215073927396286, 26.727163155362245])",False
9759487093.220264,"array('h', [36.98421427113946, 30.62660541850141, 15.661572228120155, 12.154564479020408, 9.55132127770328, 14.819212104184318, 19.843653472879303, 27.584046210629044])",False
9779483620.38326,"array('h', [37.362927862909835, 29.475528311453285, 14.129331232933689, 10.81824623604557, 8.923125641625559, 13.349165799823016, 18.745872025979452, 26.684655267877083])",False
9799480147.546255,"array('h', [36.84341434922191, 27.938643581569597, 13.6651803893154, 9.618103551471952, 8.687212413522877, 11.538640323480038, 17.166229600635475, 26.886815002882845])",False
9819476674.709251,"array('h', [37.35294626309145, 24.788367873617666, 12.047966319228255, 8.603854328804907, 7.8127058396244005, 10.475034378142663, 17.40230045335817, 26.851725476916343])",False
9839473201.872246,"array('h', [36.339686377093635, 24.681421601638984, 12.394806687390714, 8.091394133896728, 7.215109437101638, 9.902042914203465, 16.412302528474925, 25.885971014436446])",False
9859469729.035242,"array('h', [32.483071657173866, 23.986574372399566, 12.96831125719868, 8.42002824670772, 7.199710251026562, 8.49273431223688, 14.862424339779569, 23.078187964027844])",False
9879466256.198238,"array('h', [28.941359474691833, 22.73046096837039, 14.286929161859627, 8.224177689303966, 6.584727275146309, 7.350963892411133, 13.904415870682456, 21.482042160286934])",False
9899462783.361233,"array('h', [24.14441378492932, 20.957803297853772, 14.440299265996678, 8.596658852054865, 6.567278980152035, 6.736712159592541, 11.89700425122603, 19.386745509549925])",False
9919459310.52423,"array('h', [21.79859706961962, 20.714292084877588, 15.112938761024777, 8.812795343059921, 6.006748413369186, 5.552055743167869, 9.939405309709368, 17.856327119455504])",False
9939455837.687223,"array('h', [20.177998221547686, 20.693758752537022, 17.200564435535455, 9.371899390825336, 5.687181405907603, 4.914137780069824, 9.292994927493998, 16.787168591798583])",False
9959452364.85022,"array('h', [18.404285118176617, 21.372361839775714, 18.976065241113933, 10.291701437271357, 5.856471722838317, 4.705760847879951, 9.162361124678306, 15.118801226007179])",False
9979448892.013216,"array('h', [14.729589601196368, 20.107164772876676, 19.878191780766965, 10.740316370750174, 5.829331097029358, 4.0916597116548274, 8.126624356368863, 13.209685110002658])",False
9999445419.176212,"array('h', [10.553819235928804, 17.219362175296478, 19.787348878689464, 10.65973791990865, 5.718779730457912, 3.8614999976290134, 7.022208639122607, 10.618295983238326])",False
10019441946.339209,"array('h', [9.684406366998981, 18.01067596989536, 20.329555542407086, 10.879734523701279, 5.854958486679593, 3.9218529531474364, 6.4068509158591365, 10.12832114981328])",False
10039438473.502205,"array('h', [8.709989049571531, 19.170880205553676, 21.255366150915194, 11.115556723936047, 5.693390833252462, 3.8135453431663295, 6.200358790721814, 9.195490727564911])",False
10059435000.6652,"array('h', [8.13183408307967, 20.227323469624164, 22.14721477750868, 11.482899984642653, 5.953009036454172, 3.85472862808023, 6.120266638829821, 8.250727854958772])",False
10079431527.828194,"array('h', [7.347229247671229, 20.67250295415288, 21.219239130761736, 10.906157608349154, 5.491312473263486, 3.649080481862704, 5.622436115662713, 7.820344958014139])",False
10099428054.99119,"array('h', [7.740315015845853, 22.736094124448677, 21.1480271107168, 10.749366151259581, 5.195582148411436, 3.542856718059481, 5.720289532282776, 7.475733236621882])",False
10119424582.154186,"array('h', [8.666472846759692, 25.636918804087514, 20.196034174229762, 10.2821607516154, 4.792535351573229, 3.394780379895903, 5.705343608586076, 6.953629158802456])",False
10139421109.31718,"array('h', [9.071827401192383, 28.008752784161494, 20.73071734687555, 10.794781589731661, 5.136392091824499, 3.4798468621791447, 5.446360853413075, 6.4429028418715735])",False
10159417636.480177,"array('h', [9.619148969855837, 29.617627634523895, 21.72196870434628, 11.104437647186623, 5.221883199055965, 3.3875277016743617, 5.326748792659242, 6.340495857895436])",False
10179414163.643171,"array('h', [9.885896643582502, 29.87077347449285, 21.68948153402859, 11.183043715274891, 5.497558420478946, 3.494958616273717, 5.284204554914079, 6.164620613858489])",False
10199410690.806168,"array('h', [9.667503163534208, 29.630464178472312, 20.876098680596524, 10.914409794661859, 5.375120908249181, 3.340010962778828, 4.780696834955943, 5.455909589531499])",False
10219407217.969162,"array('h', [9.307463456404665, 28.61945335486013, 19.268619410278202, 10.288025697945876, 5.046138575699643, 3.171430976560253, 4.08527033890746, 4.611163705745585])",False
10239403745.132158,"array('h', [9.290724873452936, 28.519592292194545, 18.823446528853015, 10.180079009161469, 5.101766609374518, 3.071945726773889, 4.000384483938312, 4.627293382532818])",False
10259400272.295156,"array('h', [9.599425023096119, 29.646916987643106, 19.449530504777908, 10.735976512315428, 5.3299025942664775, 2.891385929830589, 3.8402836385473367, 4.533254286959235])",False
10279396799.458147,"array('h', [9.346447788243037, 28.931632643996444, 20.10267686141838, 10.702087801289052, 5.270043358008176, 2.7474644795672214, 3.854827378413406, 4.509879926324278])",False
10299393326.621143,"array('h', [8.66692422734805, 28.087096412326243, 18.56920515077512, 9.956250078642874, 5.009269968022086, 2.6759465947916468, 3.4347526874330234, 3.9456558281178227])",False
10319389853.784142,"array('h', [8.531187441369994, 26.85647105693784, 17.257278971604745, 9.594860474456082, 4.713014580063006, 2.540306811350971, 3.173933488888774, 3.5901360826522364])",False
10339386380.947136,"array('h', [8.158961822481563, 24.95695605097106, 16.650002772509353, 9.301918340901796, 4.559568083309023, 2.498246209785769, 3.016469148626308, 3.47235854942083])",False
10359382908.110132,"array('h', [7.04487967617123, 21.20798393380598, 15.547885855175489, 8.734665446000513, 4.1544205229635285, 2.4148243094646444, 2.733737763355137, 3.435400688897921])",False
10379379435.273129,"array('h', [5.889313812031099, 17.51001885770217, 14.340455497359534, 8.55355746631036, 4.132319516470248, 2.3749411289624303, 2.424230447656523, 3.1854848436555145])",False
10399375962.436125,"array('h', [6.0123694152102924, 15.250086107120424, 11.891413259067914, 7.353663680041645, 3.6476782111993704, 2.3923452259413818, 2.2182418009048415, 3.526317266142391])",False
10419372489.59912,"array('h', [5.940787852169146, 14.79338899083653, 10.827088516164197, 6.962543719217165, 3.906408893956445, 2.448857317304742, 2.0949634960817236, 3.49603584411028])",False
10439369016.762115,"array('h', [5.922662500530253, 14.172386784472856, 8.98835255087726, 6.804169468059734, 5.013343956201501, 2.5346539416953258, 1.944096176877502, 3.579671840024041])",False
10459365543.92511,"array('h', [5.998117900118555, 12.653901417169944, 8.113379691899668, 6.3202020250573305, 5.254381764629397, 2.53577261197381, 1.9039583949956596, 3.558807673540098])",False
10479362071.088106,"array('h', [5.612636807255389, 11.7429892624549, 7.43433009199195, 6.013898561523285, 5.397928983312462, 2.3506509097575, 1.8532821135335034, 3.5459315159300404])",False
10499358598.251102,"array('h', [5.361993798278098, 10.796227717851329, 7.108695463033479, 5.52114193070231, 5.302340876238517, 2.302940527275565, 1.7300154510804489, 3.27817364741712])",False
10519355125.414097,"array('h', [4.821777897375215, 8.443327707017135, 5.178534631633537, 4.758787869392629, 5.051917632134599, 2.2459928470704362, 1.6087388749571783, 3.1145489177005947])",False
10539351652.577091,"array('h', [4.764228936619971, 7.446774540418186, 4.51570268636069, 4.7555839377164535, 5.267511138803408, 2.3720183464169042, 1.7276087309091082, 3.182297366015567])",False
10559348179.74009,"array('h', [4.484837093296263, 6.632308457168981, 4.246137061214025, 4.602368489678807, 5.2994359544423855, 2.330552815359724, 1.8293541943249958, 3.16369116226141])",False
10579344706.903084,"array('h', [4.315746636676883, 6.1751366400950936, 4.208407425998363, 4.557214081494181, 5.48108375333762, 2.355880938524765, 1.8542788247441175, 3.0495274959124634])",False
10599341234.06608,"array('h', [4.13313766847543, 5.775107511486915, 4.034335926981286, 4.4796230359069895, 5.410119464641406, 2.120630842655905, 1.8209864798288835, 2.776619353151449])",False
10619337761.229074,"array('h', [4.258962230947527, 5.74334807591333, 3.995461409958674, 4.5800439368918555, 5.5365758463210915, 2.0883923540209115, 1.7488374094076131, 2.708971065345923])",False
10639334288.39207,"array('h', [3.834137866538121, 5.435763604423755, 3.677452943443127, 4.552081225323331, 5.471021173283138, 1.9529649053309972, 1.7457689743843012, 2.5612804483158707])",False
10659330815.555063,"array('h', [2.814116337711498, 4.402281007253955, 3.572486954311143, 4.706870127389227, 5.558910218090226, 1.8718322402252854, 1.4869710107059007, 2.0034199279619447])",False
10679327342.71806,"array('h', [2.2393951584625795, 3.5860071100254918, 3.1874055541170256, 3.697404703357459, 4.208854681378092, 1.6667767680442673, 1.4019839870654878, 1.7603075728556346])",False
10699323869.881058,"array('h', [1.856839103015942, 3.265046845989739, 3.2951188714463386, 3.266853184029208, 3.1547094441737418, 1.4236806542307845, 1.3153399000334611, 1.4892983368102077])",False
10719320397.044052,"array('h', [1.626991213230538, 2.8660547628003488, 3.1986097131063556, 3.1166113029458042, 2.941625153502992, 1.3844561154368926, 1.2019775662189436, 1.4322509154389669])",False
10739316924.207048,"array('h', [1.550381271791986, 2.9971316842916886, 3.4062948064287393, 3.068092118339476, 2.537408795598444, 1.3685325699916047, 1.2145595445997681, 1.3072279101440667])",False
10759313451.370045,"array('h', [1.4080816292105878, 2.9211407261946216, 3.3690887173513735, 3.027606515858128, 2.4220261562442222, 1.2381386501622056, 1.2449836490707866, 1.404307644498738])",False
10779309978.53304,"array('h', [1.3585684351006222, 3.048121589769919, 3.8099627380159187, 2.9511473640149424, 2.151710291583945, 1.2318909569579752, 1.2174220808258676, 1.3662413267660076])",False
10799306505.696035,"array('h', [1.3752821414023293, 3.013136561067537, 3.703170443644566, 2.884596031087512, 1.980020530352097, 1.1761939516180022, 1.1381366830810484, 1.3238492391204235])",False
10819303032.859032,"array('h', [1.5341795010559867, 3.015629854947599, 3.745319476438756, 2.8538519984878845, 1.8580531500294368, 1.126154245977935, 1.133159300199282, 1.2702977352986549])",False
10839299560.022026,"array('h', [1.5052193100780236, 2.8858694615041465, 3.57755343527698, 2.77885416390152, 1.71125227592185, 1.108169692740233, 1.1814978503827076, 1.289298069488486])",False
10859296087.185022,"array('h', [1.4259702273828512, 2.8958034820145016, 3.6669455667389443, 2.696630082482892, 1.7470319068630569, 1.170857264226205, 1.194103730719751, 1.2718684320457083])",False
10879292614.34802,"array('h', [1.4349680319945037, 2.897225205201428, 3.6233197753343536, 2.4567145867996754, 1.6300966383544304, 1.133211826063662, 1.2672754092376488, 1.3818390014390507])",False
10899289141.511011,"array('h', [1.5109850103530487, 3.0208350802766013, 3.8156180172856593, 2.409368830311905, 1.5639844072874307, 1.1695578159852853, 1.2631128875542588, 1.3402521609930989])",False
10919285668.67401,"array('h', [1.3625649854999773, 2.865667845095828, 3.683118199709345, 2.252720129682958, 1.3561988443414437, 0.9975275310225051, 1.243510035637277, 1.3363999092113557])",False
10939282195.837006,"array('h', [1.417873291426585, 2.94872836510819, 3.817076657648609, 2.4365237883103203, 1.378994208045301, 0.9914925507103057, 1.2209015815042366, 1.3402151240648739])",False
10959278723.0,"array('h', [1.4265930157392943, 3.074165360245229, 3.947200324310722, 2.4340705734260553, 1.341810320571732, 0.9626249332584653, 1.2384896549343236, 1.4436866566048345])",False
10959278724.0,"array('h', [1.8548751198427516, 1.5223767023217276, 2.332998813527048, 1.2534768989737397, 0.5937818098416904, 0.3920321911180832, 0.6551309060987681, 0.45558096255348257])",False
10979327452.87963,"array('h', [1.7730340023536972, 1.4187613628025586, 1.817413588814025, 0.9813605101201958, 0.5043942134949595, 0.7084676145735241, 1.0591948126008148, 0.8600546842207174])",False
10999376181.75926,"array('h', [1.1802898390252363, 1.4066546952211947, 1.5385900498703573, 0.9622083011160903, 0.8693740293272666, 0.9818245644175684, 0.9122942026641757, 0.7792135521807817])",False
11019424910.63889,"array('h', [1.2488619283918392, 1.9117759507446852, 1.969368125593029, 1.3819544990960342, 0.881430322723068, 0.7396224753110743, 1.0708237539610042, 0.998390831897969])",False
11039473639.518518,"array('h', [1.2358002536132817, 1.8334124665990004, 2.1025152355380725, 1.3740971164071565, 1.0559055679183171, 0.8420916157775131, 1.0279843585377302, 0.9814040894839126])",False
11059522368.398148,"array('h', [1.3309674398365747, 1.8024864937400649, 2.0376928532159364, 1.342040491901797, 0.9798329232964241, 0.7507982164398441, 0.9988193201484916, 1.066761559141637])",False
11079571097.27778,"array('h', [1.2221921391084185, 1.6682338396333076, 1.9094025974154194, 1.279861503217021, 0.9856018183330353, 0.8161948165399743, 0.9812015815626673, 1.0080662178387236])",False
11099619826.157408,"array('h', [1.3317533481205577, 1.7445446435116105, 1.8946561767003263, 1.524859067621802, 0.9313625090975483, 0.746750900323271, 0.9920326005165864, 1.0551982773918196])",False
11119668555.037037,"array('h', [1.2711475597629533, 1.5866902984534856, 1.8514248448913437, 1.4333305623371417, 0.9639860615268955, 0.8215401847813092, 0.9183516088498732, 0.9989144117059755])",False
11139717283.916666,"array('h', [1.4889783276356536, 1.814285361904012, 2.0137282479189964, 1.779348337260711, 1.1156932111662154, 0.854230811715151, 0.9425755912601217, 1.099542473667649])",False
11159766012.796295,"array('h', [1.4238829332636542, 1.828157670738548, 2.177897418990261, 1.9877597573154946, 1.1292085327679622, 0.9361256313925728, 0.9399740125512015, 1.0504099195142458])",False
11179814741.675926,"array('h', [1.4780842652332136, 2.1799283191187566, 2.5867568651066515, 2.3810420970742316, 1.151205719067161, 0.8677053752335998, 1.000238064804794, 1.1497160294854611])",False
11199863470.555555,"array('h', [1.7014167891192054, 2.64218396151843, 3.822543991785564, 3.64626574330323, 1.5112950313434088, 1.0145604107537398, 0.9858976398528558, 1.1763881350233174])",False
11219912199.435184,"array('h', [1.8709072151598631, 3.1738788554658144, 5.006554921152053, 5.571295463140896, 1.9734094842555805, 1.0649944275136924, 1.0744376828430982, 1.3494887951094372])",False
11239960928.314816,"array('h', [1.9897922604237965, 3.693278149087545, 6.269912135947596, 8.784386463849073, 2.8974961842631033, 1.3329519215875274, 1.1482214169532279, 1.4135895735233843])",False
11260009657.194445,"array('h', [2.2479234036737683, 4.042065995571562, 8.948268570673557, 12.902243610770068, 3.8024618175097906, 1.5359823883229105, 1.3118842336209058, 1.649218514968597])",False
11280058386.074074,"array('h', [2.3803710689319812, 4.343193857839738, 10.81283375511244, 14.761315282292752, 4.2976131774715025, 1.7438646513968752, 1.3642972324265212, 1.701643650892316])",False
11300107114.953705,"array('h', [2.483990362494498, 4.702697318731206, 11.252674860521422, 16.022206339140606, 4.52428020664618, 1.759948922723362, 1.482509812182536, 1.8876878877239471])",False
11320155843.833334,"array('h', [2.648887688866353, 5.09365901364, 11.766204722747004, 16.913305254699825, 4.898497976784581, 2.0060533540673506, 1.5750110955082819, 2.0158488948153312])",False
11340204572.712963,"array('h', [2.744319241380599, 5.533091880133201, 12.065421806854323, 17.209742017049955, 4.941470363467776, 2.0140832109709845, 1.5971715425052129, 2.0873664369689604])",False
11360253301.592592,"array('h', [2.81582062168556, 6.063683319638615, 12.659043518140923, 17.815853036992415, 4.995982423924077, 2.1129336795797022, 1.6148356048242274, 2.05782943199082])",False
11380302030.47222,"array('h', [3.1102937215132878, 7.3644681140168995, 13.895918974069197, 18.25701921630419, 5.026873599843706, 2.041029705157224, 1.685874843054232, 2.1186602500646132])",False
11400350759.351852,"array('h', [3.264131176598771, 8.077338519229817, 14.857904356072584, 18.57843764039009, 5.0813157466761885, 2.089361940217832, 1.6720536066336653, 2.3648251335741555])",False
11420399488.231482,"array('h', [3.600759216586221, 9.07453280044157, 16.006007713113398, 18.951731157860277, 5.173554779019502, 2.019169126597041, 1.682379054444844, 2.8749841384737325])",False
11440448217.11111,"array('h', [3.8499027431489568, 9.823596714137487, 15.73464941528204, 18.35011598363759, 5.077726082783796, 2.0876924492687023, 1.7211485532160653, 3.170291323560545])",False
11460496945.990742,"array('h', [4.469000771252705, 9.634224022136557, 14.463963565179915, 16.863450113959775, 4.735439324534547, 1.9285230088107668, 1.817861170143546, 3.511990090642677])",False
11480545674.87037,"array('h', [6.383116604372112, 9.961679215105024, 13.875636595249587, 14.717462555396304, 4.2096912290491035, 1.9068141342981764, 1.9645785819389068, 4.328356763023883])",False
11500594403.75,"array('h', [8.44411150491594, 10.551095835196076, 12.209538244572641, 10.974635163441505, 3.3616875498052456, 1.7099323106542446, 2.2879516834947813, 5.2250284973935734])",False
11520643132.62963,"array('h', [10.098379808131888, 10.964347915056173, 9.77149438786764, 7.86992236623359, 2.7409940932196997, 1.8832085771696288, 2.6303522244662956, 6.113772237102478])",False
11540691861.50926,"array('h', [10.962725204769324, 11.136502524262031, 9.141429276322304, 7.003242202221022, 2.522010499253403, 1.8614450360981256, 2.8835609635472887, 6.801928521688188])",False
11560740590.38889,"array('h', [12.500136835388627, 11.369078969246491, 8.8726846964959, 5.80278404471989, 2.315913596669484, 2.2485986435539824, 3.1738732965202825, 7.591484961548086])",False
11580789319.268518,"array('h', [13.525084306743762, 12.521963950088292, 8.611795286514587, 5.662663112748241, 2.4567083303834716, 2.9102695145620947, 4.467783112233322, 8.554540087806764])",False
11600838048.148148,"array('h', [14.444086055785174, 13.4795390937081, 8.774965559102457, 5.363806803910139, 2.7309246414200485, 4.098316751856397, 5.777422601140039, 9.882028055129565])",False
11620886777.02778,"array('h', [15.122658887352532, 13.524802630633067, 8.048761973931766, 4.950454332226427, 2.7703956641782983, 4.895210786090748, 6.691879125251796, 11.85820868589646])",False
11640935505.907408,"array('h', [16.302050213768325, 13.41652156644015, 7.2750794899910955, 4.68283763944509, 2.9459044007899156, 5.7212764052883545, 7.453939766165304, 13.70008345659852])",False
11660984234.787037,"array('h', [19.49183835301393, 14.420940218305544, 6.588814466165632, 4.188324731877711, 3.0615933687533463, 6.765068349013082, 8.716684058192696, 15.032785702330042])",False
11681032963.666666,"array('h', [21.6605178623077, 14.189200995203013, 5.871237611688625, 4.046176149370322, 3.11864648853801, 7.8239127173933, 9.821647886945492, 15.293832440058372])",False
11701081692.546295,"array('h', [22.428403710252187, 15.304097434228146, 5.859267061176141, 3.90660643218326, 3.081748125962719, 8.348303712627612, 10.76349998192036, 16.607747635479086])",False
11721130421.425926,"array('h', [24.501838784115854, 18.603778144721936, 6.5515633917399185, 4.13775076300599, 3.411420273446203, 9.500194020145093, 11.395492925019388, 17.239642540289193])",False
11741179150.305555,"array('h', [26.157230312740055, 19.603432624858264, 6.830471099912486, 4.3254246802284735, 3.5791953897926585, 10.355555043187904, 11.655978212725264, 18.05593920541478])",False
11761227879.185184,"array('h', [27.70427077364843, 20.5154867762929, 7.045003615709634, 4.407840698699904, 3.8994559032210243, 10.537606219244186, 12.544627861390497, 19.298568075266083])",False
11781276608.064816,"array('h', [30.302873474326443, 21.670116298787633, 7.037955886718178, 4.377445099045489, 4.118180252303078, 11.201548160293457, 12.589210893986051, 19.628333657766184])",False
11801325336.944445,"array('h', [31.268971847078923, 21.993010953380523, 7.009058251274044, 4.336300916276303, 4.386565340445753, 11.85736966616012, 13.325811156554348, 19.785429708546932])",False
11821374065.824074,"array('h', [34.369880428203466, 22.777405380051274, 7.575844050696906, 4.689583692778573, 4.668137437673632, 12.193041933694529, 14.601430834248461, 22.239371018714923])",False
11841422794.703705,"array('h', [35.553182985656896, 21.377315194988178, 7.370589645326765, 4.633403481390971, 4.681252811327333, 11.528729695698122, 14.590158393056434, 23.35535495663457])",False
11861471523.583334,"array('h', [35.168068540562146, 20.922796837473655, 7.452588203561305, 4.927066866630682, 4.922805776079988, 10.847611333514228, 14.32531187771856, 23.148580424231742])",False
11881520252.462963,"array('h', [35.82409652730345, 20.635628646746486, 7.250911907039719, 4.719931522654371, 4.852014725254839, 10.637784256951274, 13.914232828890194, 22.84856166162226])",False
11901568981.342592,"array('h', [35.06731108455007, 20.600902240695458, 7.242824724242271, 4.731664956958724, 4.79815214034401, 10.208952774493628, 13.504390149057079, 21.673472119155456])",False
11921617710.22222,"array('h', [33.24549162538957, 19.618271567980155, 7.087973497337647, 4.624160648889343, 4.905512584598559, 9.751617399188149, 12.71577263566578, 22.585434759105233])",False
11941666439.101852,"array('h', [33.661885535276916, 19.06274708756049, 7.235872087767137, 4.626653831033732, 5.048077834174168, 9.95767671111467, 13.07061686980794, 23.35569421107624])",False
11961715167.981482,"array('h', [32.80844806827216, 16.57397258617159, 6.689584086253276, 4.518797442989978, 5.120830225878398, 10.520175637984797, 14.048543610538, 23.183256694630906])",False
11981763896.86111,"array('h', [30.364684395959284, 14.738837853733454, 6.079874694585931, 4.17900351651084, 4.82590686673975, 9.638303338952452, 14.746793786875855, 23.31732675320152])",False
12001812625.740742,"array('h', [28.78074258226015, 14.477592451467808, 6.185219062211997, 4.107500307143064, 4.575444013567946, 9.8924561526174, 14.636834365790124, 22.9615466383013])",False
12021861354.62037,"array('h', [27.163976396007833, 13.242128090154864, 5.901029970925043, 4.001125716734588, 4.531536505819833, 9.985757543391859, 14.650187976166865, 22.46443175201941])",False
12041910083.5,"array('h', [26.953660406039567, 13.23901610623154, 5.908020054593069, 4.433260943558974, 5.1781151801117264, 10.040103181691565, 15.17023882841338, 23.68371107765793])",False
12061958812.37963,"array('h', [25.06060571721346, 12.748889327401187, 5.882724292885824, 4.616404334371208, 5.312357596270679, 10.63670541656534, 15.824927723622903, 23.579591176076693])",False
12082007541.259258,"array('h', [22.933973721545918, 12.301593294065402, 6.0199053490275585, 5.013037563060983, 6.563849910496288, 11.120053721314111, 16.27924177949106, 21.95710161761633])",False
12102056270.13889,"array('h', [22.98993588378418, 13.165058501233965, 6.246099043179489, 5.720412796083138, 7.369701011538207, 12.426936664963094, 16.597105819230837, 22.46328146521812])",False
12122104999.018518,"array('h', [23.596115489191696, 13.186987470995993, 6.70876388580709, 7.299609574827889, 9.738798934786098, 13.059170390373975, 17.343746237430942, 23.864631211995405])",False
12142153727.898148,"array('h', [23.532121587965918, 13.002698380332832, 6.704053460904117, 8.372529533195882, 12.090790418862198, 13.733854497547377, 18.171815953537813, 25.038581905396427])",False
12162202456.77778,"array('h', [22.8980590743339, 12.624639672535446, 6.419171551974563, 8.553203439631426, 12.69319898944535, 13.839277556551743, 18.51295489065023, 24.523064987640762])",False
12182251185.657408,"array('h', [22.555177984054623, 12.682731222451084, 6.177122876676663, 8.607414154537398, 13.160338172688741, 13.970251941284408, 18.137235366991924, 23.488269071491455])",False
12202299914.537037,"array('h', [21.796969208359354, 13.301672887694025, 7.1252894611801, 9.990868592248015, 14.868355948941465, 13.611737097083708, 16.634278867212146, 22.227232432683948])",False
12222348643.416666,"array('h', [20.823122202899405, 14.871864591493926, 9.14181417954345, 11.35593763610068, 16.37757087454922, 13.861148842235414, 15.664456968694171, 21.77781031510058])",False
12242397372.296295,"array('h', [19.781706172307523, 15.666849335145006, 10.984503378852159, 12.160409390143261, 17.331217493765003, 14.538687186439377, 15.389158793500618, 21.339341414540005])",False
12262446101.175926,"array('h', [18.316172184436322, 17.48159567003264, 13.21321618476801, 12.85053900680811, 18.20343268313282, 14.406822473280737, 14.594304013910566, 20.54160909708199])",False
12282494830.055557,"array('h', [17.282247408694886, 17.804912370243215, 14.932553908333185, 12.895594817130505, 18.20514984160953, 14.6674332623889, 15.220569394086478, 22.039203598719396])",False
12302543558.935184,"array('h', [17.02655050466506, 21.118482112708534, 17.92077590389925, 13.802074056705074, 18.617747336157137, 14.553222618728077, 14.572139657070403, 21.81980784044557])",False
12322592287.814816,"array('h', [16.59167356198176, 24.50075989085833, 20.16497512869775, 14.489196720779162, 18.686763613426855, 13.640866296507761, 12.808490217555393, 21.36319330841216])",False
12342641016.694443,"array('h', [17.69403275347098, 25.722589829789342, 22.38681008071874, 15.211901989283136, 18.598262817171943, 13.637483930829926, 11.764091420659442, 21.82110161598093])",False
12362689745.574074,"array('h', [18.852391007987453, 27.5594361601756, 25.577603065580266, 14.9554628778726, 18.46077450545414, 12.436685917218101, 10.729265415052737, 20.156293811238633])",False
12382738474.453705,"array('h', [19.063071011235056, 32.198196352895394, 29.421249235566396, 14.56491970576445, 17.34641583836766, 12.82721605359504, 10.061117622120863, 17.894242586067918])",False
12402787203.333332,"array('h', [20.65568764862241, 35.64664024095697, 33.7651296324039, 15.32826148667877, 16.470834338800564, 12.841194440513188, 9.396986625911456, 18.15991380079612])",False
12422835932.212963,"array('h', [22.043088070880717, 37.96102376157776, 36.604956099788346, 16.64103797708854, 16.637832377005385, 13.572095882513329, 9.264898413922987, 18.636497750873723])",False
12442884661.092594,"array('h', [22.314514095046835, 39.59706676721949, 39.954642895786975, 17.8339571471035, 16.171978891656643, 13.853151522561259, 9.809423214287696, 20.30394988337741])",False
12462933389.972221,"array('h', [24.650120887616062, 45.58849762727334, 44.78693183402686, 18.909936570712713, 14.842746019812061, 13.671798234796585, 10.042286506561341, 21.840245618266568])",False
12482982118.851852,"array('h', [27.466597610583943, 49.37645943457951, 47.59203869499502, 19.58567331495361, 15.151234554794556, 13.36940406033822, 9.692644197242469, 22.030434406773193])",False
12503030847.731483,"array('h', [28.616518223659668, 51.74425220912741, 50.946743015525854, 20.26911380470552, 15.398492490438759, 13.947535948111057, 10.360726560809292, 22.50761998241608])",False
12523079576.61111,"array('h', [30.13712993667788, 56.67142765938267, 54.50405650154577, 22.010603700746593, 15.33229016402142, 14.559427777725146, 10.077146559507135, 21.58320346852055])",False
12543128305.490742,"array('h', [29.662292940637155, 59.21223390573639, 55.58653364288933, 23.296103130515263, 15.917445599015771, 14.311636433212541, 10.096107158934869, 20.11119327417386])",False
12563177034.370369,"array('h', [29.04670849001693, 57.953078134909376, 54.5787942437287, 22.859838977886405, 16.182740810871575, 15.19615598505277, 9.886187803586358, 20.283606819725915])",False
12583225763.25,"array('h', [28.108909446693673, 58.422611927816526, 53.95460089344066, 22.558178569798436, 15.36036894700704, 15.301720173255857, 9.180808042803557, 20.019456024161197])",False
12603274492.129631,"array('h', [26.82695681423665, 60.669085289915145, 53.56611204279452, 22.1117639025276, 15.325524373384113, 15.885755612436009, 9.757204208781259, 20.428156352545038])",False
12623323221.009258,"array('h', [27.40734880254177, 60.69716329681738, 53.58923314055656, 22.672840455276376, 14.965899862523244, 16.38148914758266, 9.922942081574345, 21.320026287753155])",False
12643371949.88889,"array('h', [27.674303802249693, 60.84854186304241, 53.543125081401485, 22.601311471254384, 14.549787061182492, 16.499351548375873, 10.459821357596605, 21.029663463086628])",False
12663420678.76852,"array('h', [27.863081848686928, 60.04370540850938, 52.18935073959378, 21.98605569518412, 15.002559622937136, 16.90545615939976, 10.669948254721186, 20.732873950444556])",False
12683469407.648148,"array('h', [28.896489304822122, 62.8738636308849, 54.8201507151602, 22.225568937511717, 15.415396543061457, 15.978915343339924, 10.900994411197082, 22.383895137694168])",False
12703518136.527779,"array('h', [29.40328143462533, 62.112354382278156, 53.25375617264234, 20.44967281480567, 15.749934886323727, 15.84208509364154, 10.236162661990454, 21.515185191714753])",False
12723566865.407406,"array('h', [27.041337503086808, 57.016483430811036, 48.37221835167301, 18.85211056239429, 15.540990995488125, 16.408069063743447, 10.332547952778905, 21.37351227797477])",False
12743615594.287037,"array('h', [25.383946925565724, 55.97564478046644, 43.77758871862428, 18.15891041592574, 15.678863873184321, 16.623095034410703, 10.254848805937073, 21.575852402139482])",False
12763664323.166668,"array('h', [24.818794286817965, 52.66975934023072, 38.71612778663551, 16.446563291373145, 15.912084652579269, 15.78283069921266, 10.166583703922754, 22.626427523899338])",False
12783713052.046295,"array('h', [22.70353683500071, 49.257734856396205, 37.108408872587596, 15.482845506115648, 16.359757630274657, 16.566003864936953, 10.26535053233685, 23.22884654804007])",False
12803761780.925926,"array('h', [23.500148123117423, 47.58505668054992, 35.30483987007023, 14.961221854735733, 15.902500527298386, 15.958742715624675, 10.117046884211565, 23.172142493692906])",False
12823810509.805557,"array('h', [23.818809497661427, 48.771045693331004, 36.3271335788612, 15.336216366895876, 15.67245968158417, 15.745408734153775, 11.033332396365347, 22.924637461375372])",False
12843859238.685184,"array('h', [23.863743657724573, 47.8673390107086, 36.22578117259834, 14.887858164012972, 16.022383388858174, 15.407529912037548, 10.787521626228802, 22.22981734603764])",False
12863907967.564816,"array('h', [24.153669586531006, 48.698117909189335, 34.85684964473867, 15.005683543022853, 16.5353738264196, 15.469959584150876, 10.347212105517595, 21.455098597881094])",False
12883956696.444443,"array('h', [23.69200701719954, 46.433420268975766, 31.986018720312376, 14.64817196123563, 17.08407897142901, 14.971412143410365, 10.480031806773935, 22.763396786076534])",False
12904005425.324074,"array('h', [21.939268424606542, 46.470723163117114, 32.81654313425955, 14.647350522882197, 16.554879771568604, 13.915410706866938, 10.376783741442534, 22.99998190562127])",False
12924054154.203705,"array('h', [20.93965229498547, 47.38224835799124, 33.297303143357446, 14.748247063324312, 16.052939512409022, 13.480534970584673, 10.404282706150969, 21.827519259747795])",False
12944102883.083332,"array('h', [20.12836179461509, 45.559879776256416, 30.041030204042578, 14.6587541215835, 15.864093040294325, 13.716672669354905, 10.674108176943099, 20.542259609816654])",False
12964151611.962963,"array('h', [21.396782108123627, 47.59160485873358, 32.132930367506866, 16.270448007077903, 16.18485464688116, 13.308203684644411, 11.079230647760513, 21.953989718290316])",False
12984200340.842594,"array('h', [22.018112569987757, 49.2015085616884, 35.39219679556371, 16.81568407916973, 16.625202337102774, 12.168135408400978, 10.953700560799282, 21.238962194086138])",False
13004249069.722221,"array('h', [22.664727155199657, 50.9839607758362, 39.28912624129038, 18.024988721401684, 16.299851746017954, 12.791013170644801, 11.201859485228107, 20.146153686701936])",False
13024297798.601852,"array('h', [23.988543277668683, 54.36574527885283, 41.90391830937177, 19.512610231573934, 16.483305186113668, 12.266772644067249, 10.915953426967585, 20.547289619579306])",False
13044346527.481483,"array('h', [25.216256659762145, 55.86128970033695, 43.32396209209049, 19.503610718671254, 16.54534674980436, 11.819290098467837, 10.558053248556272, 21.273425797596236])",False
13064395256.36111,"array('h', [26.043855776847188, 54.489744343426054, 43.255344485649395, 18.870167490775508, 16.796948996692016, 11.949670293397714, 10.098636151162141, 21.384782011610092])",False
13084443985.240742,"array('h', [27.00611286684186, 56.81536406865955, 44.978919230109064, 19.111466254950916, 17.439851610643135, 11.666269101636022, 9.845792179067956, 20.985305840933236])",False
13104492714.120369,"array('h', [27.453440119746038, 56.56011671648118, 46.475177462892354, 20.291704468153423, 17.932267751953304, 11.661795134878757, 10.822100588055802, 22.540506021413414])",False
13124541443.0,"array('h', [25.89009528509579, 55.02047335023936, 47.24460700689271, 19.86976034394301, 17.66556373196758, 12.75077593762503, 11.163615496012953, 22.972177107977704])",False
13144590171.879631,"array('h', [26.269046688766604, 56.69733224876533, 49.25219023576927, 20.99622164680841, 17.92510962489376, 13.622443683334806, 10.699282144133546, 22.454479583263744])",False
13164638900.759258,"array('h', [26.42299667372301, 58.87712370370937, 49.559278366827726, 20.70379513081635, 18.37237019719501, 14.651184459050404, 10.963641651675518, 23.568373597602616])",False
13184687629.63889,"array('h', [26.137301837765932, 58.807360544830495, 49.83804978928884, 20.254972899535886, 18.268881817867875, 14.70075572977287, 10.578842756167903, 22.82096883456401])",False
13204736358.51852,"array('h', [25.396370121183537, 56.838515933770275, 47.52973006679101, 19.021304689684907, 17.376560897894276, 15.022504016712062, 10.380722794128344, 22.696546922374726])",False
13224785087.398148,"array('h', [23.96130616363071, 54.416394384355385, 46.292169770707254, 18.194496514701953, 17.468624275110937, 15.667495589146599, 10.671808342470365, 22.51584003668399])",False
13244833816.277779,"array('h', [26.30420499985846, 52.73465829573037, 44.67021713782003, 18.06995302291973, 16.542759464664655, 16.01594038308616, 10.365030982204496, 24.532875908539292])",False
13264882545.15741,"array('h', [26.29583184939302, 50.32770259390813, 42.945320531780936, 17.034605595920084, 15.885524993712554, 16.015471818806432, 10.178401091188304, 25.158838045213066])",False
13284931274.03704,"array('h', [25.03170799875446, 49.60599425264655, 43.208140966805054, 17.0281976136207, 15.45619623607224, 15.951824425311864, 10.139408832022307, 23.69590143629964])",False
13304980002.916668,"array('h', [24.529941669730235, 50.63976962555262, 43.69221396006023, 17.052626569921674, 15.093355865086926, 15.794461045553202, 10.335758951345916, 23.544057655239865])",False
13325028731.796291,"array('h', [23.093429073018875, 50.07254356731235, 44.443604744205125, 17.832431362428384, 14.970030830078736, 15.489631558208746, 11.101684547557776, 23.918736816244653])",False
13345077460.675926,"array('h', [23.12019878454207, 47.09253160438367, 41.85252622513388, 16.609723768140093, 14.018576461809232, 15.594008698364183, 11.127696457230256, 24.280062511074195])",False
13365126189.555561,"array('h', [23.256280749303897, 48.94410920597886, 43.55660453619638, 16.47860108046712, 12.998243877455897, 14.20994748927092, 10.60776049941923, 23.140100933410956])",False
13385174918.435184,"array('h', [23.056770242748403, 52.359705492877296, 44.909257237003075, 16.290224813329395, 11.92948049961442, 13.895767420458078, 11.1506996135721, 21.907976986056763])",False
13405223647.314816,"array('h', [23.21765537822091, 52.27546920364572, 43.75565788915856, 16.009003806409456, 12.505672495333345, 13.110532197639676, 11.54404117447963, 22.057790566793702])",False
13425272376.194443,"array('h', [23.47701665733149, 51.69643361787947, 43.22519424635515, 16.31159376226872, 12.281025751788944, 12.29515326193985, 11.733390901020607, 22.7696762156324])",False
13445321105.074078,"array('h', [22.790953343902007, 53.34850488664687, 44.6037309570466, 16.44328034988153, 12.698985018187035, 12.744576058081275, 12.20423252722662, 23.91830643019475])",False
13465369833.953705,"array('h', [23.37683667036745, 56.1368716595855, 47.200836717900025, 17.36742084345572, 12.929281175022632, 13.096306477989543, 12.484395128610345, 23.290506080196373])",False
13485418562.833328,"array('h', [23.387330457890137, 56.157012783706875, 46.32171466239437, 17.14916089945081, 12.69599949269466, 14.449930238201631, 13.10690238068241, 23.599774165339277])",False
13505467291.712963,"array('h', [21.210147281310846, 56.111862586277226, 46.79546168485351, 17.2157094790455, 13.38137228551436, 13.734758213788714, 13.519197341642863, 22.532594053259682])",False
13525516020.592594,"array('h', [23.034423973618836, 54.49394242613477, 44.41999929159461, 16.622581688044246, 13.603323522283643, 13.509736372034066, 13.667341277130697, 22.474088713506102])",False
13545564749.472221,"array('h', [23.794485582538787, 54.35958057774829, 44.398261520251324, 16.51343598392394, 13.368439560186024, 13.024462373309039, 14.000477735774401, 23.06087388014424])",False
13565613478.351849,"array('h', [24.32840982554725, 55.034845163594845, 44.25102669890864, 16.317899032968878, 13.002809071257238, 13.878825298822289, 13.722584586415898, 23.487995034252513])",False
13585662207.231483,"array('h', [25.879100439373286, 56.43276302453253, 45.24922116948926, 17.23047805899591, 14.181842875453928, 14.888499061088892, 13.023210153914292, 23.37745924347112])",False
13605710936.11111,"array('h', [25.91286678546148, 58.14563321257067, 46.87211696978909, 17.94908828718688, 13.996287174443383, 15.088183989283733, 12.751644192835869, 22.25239506804351])",False
13625759664.990742,"array('h', [27.682314761172183, 52.95234998912814, 41.483477243442096, 16.6125837324226, 14.09741872364894, 14.746489481601037, 12.182636207717206, 23.0684722685937])",False
13645808393.870369,"array('h', [27.31581561718688, 50.779840268229755, 40.020886984218166, 16.64461876513994, 14.888568851635211, 14.603507223437163, 11.709249405179518, 23.096179190561603])",False
13665857122.75,"array('h', [28.727407030646532, 50.49269010744527, 38.78580001716037, 17.09363368712702, 15.752144611076913, 16.064488589492214, 11.869494294067792, 22.8206804888784])",False
13685905851.629631,"array('h', [28.51922603491966, 49.09854911387495, 37.771653842129616, 17.50030845308527, 16.126249612346456, 15.684906723930473, 11.862848261335166, 21.656046411135154])",False
13705954580.509258,"array('h', [28.30882314269409, 46.10848232468876, 36.0555321078452, 16.808140177608482, 15.795673985197396, 14.740987206278504, 11.637442539914401, 20.631596269843286])",False
13726003309.38889,"array('h', [27.769311539728363, 44.61372645925467, 34.059783558097614, 16.166723143367285, 15.71622814887998, 13.183024442871584, 10.713476559754255, 20.37479259915529])",False
13746052038.26852,"array('h', [28.035254342841903, 42.54582064590095, 33.29927261578565, 15.518000476266746, 15.425715799841594, 12.88875118958819, 10.602741969931689, 20.045208525595566])",False
13766100767.148148,"array('h', [28.35455855776165, 40.77944173453496, 32.00274203437187, 15.06884200715732, 15.400968498867911, 13.814341371532487, 10.900633293571, 19.84468953329025])",False
13786149496.027779,"array('h', [27.773885829408655, 39.00462052726055, 29.98965866194245, 14.215607902966111, 14.963667409621257, 14.715333393458875, 10.689646218600853, 19.282191939311833])",False
13806198224.90741,"array('h', [28.642608121054003, 36.002207244137544, 27.172885263768514, 13.433141188740878, 14.862293402547103, 14.612251149105617, 10.232435698424224, 18.597099179466728])",False
13826246953.78704,"array('h', [30.35877966248097, 32.85963736026536, 24.869791551587074, 12.366808123495247, 14.078306988608762, 14.209627542907766, 11.115412284029924, 19.731398571544887])",False
13846295682.666668,"array('h', [30.222843151464843, 28.274161800571058, 20.378840139520765, 10.433547818272327, 12.681380457265211, 13.901211574221145, 11.017934075073624, 20.284567480026855])",False
13866344411.546291,"array('h', [29.623152182161725, 26.955204927383768, 19.31617180890657, 10.828945922306648, 13.818058218873551, 13.931794710445038, 11.881921328026118, 20.27372605095827])",False
13886393140.425926,"array('h', [30.19099132662026, 27.27190029232876, 19.238727611828793, 10.917020076601192, 13.344302420289216, 14.276094024247794, 14.343180297756113, 20.32443775959065])",False
13906441869.305561,"array('h', [29.450934147508576, 23.500861664711117, 16.635843895889664, 9.693021262790573, 11.436708339570853, 13.728549057998366, 15.812855239990148, 21.904467351814716])",False
13926490598.185184,"array('h', [27.6349005621188, 20.380851882521803, 14.643005663831424, 8.455219791189373, 10.18083788002442, 13.166027307327425, 16.004492155101616, 22.692161094880767])",False
13946539327.064816,"array('h', [28.802612421515597, 20.5528893661254, 13.077117500014023, 7.920858452428759, 9.828230568063608, 13.248694519860345, 16.068844710208133, 22.936407147875485])",False
13966588055.944443,"array('h', [28.85658093616024, 18.961299392841656, 11.703826435080058, 7.859265794403653, 9.627938858345393, 13.400694798969695, 16.857607276242263, 23.455980686269733])",False
13986636784.824078,"array('h', [29.203092908109358, 17.92715240290312, 10.494013505850793, 7.28875920732139, 8.687559297170512, 12.74284816082511, 16.747856208741897, 21.885841023465733])",False
14006685513.703705,"array('h', [28.578449075889182, 18.0496477180732, 9.841832802016608, 7.51045042476161, 8.38120710303419, 11.554177860355026, 15.903183431465571, 21.961347469917687])",False
14026734242.583328,"array('h', [27.58993424166433, 16.888731366873877, 8.88003658056347, 7.201170697564685, 7.53741813951828, 10.273434512659378, 15.469240928900318, 21.782245375936043])",False
14046782971.462963,"array('h', [27.175493469601875, 16.557005970201345, 8.229069011618666, 7.0582618706411235, 7.150523573073117, 9.718072947544421, 15.193504025129204, 21.379491847547737])",False
14066831700.342594,"array('h', [24.93494891521122, 16.043169945348986, 7.7921545367749205, 7.1247172498727585, 6.945982664920211, 9.02817536248025, 14.469686680997407, 20.82348644458554])",False
14086880429.222221,"array('h', [21.86059033612583, 15.845156420188413, 7.632590264639611, 7.057802400691995, 6.641300124546766, 7.556722186950517, 14.062307050344607, 19.896786842042907])",False
14106929158.101849,"array('h', [21.270747138247163, 15.55826706828004, 7.504639853570377, 6.7403495998825305, 5.942850059973441, 7.237363005462849, 13.858987337258739, 19.560185062073423])",False
14126977886.981483,"array('h', [19.242527412846435, 14.161475566897547, 7.407816301857445, 5.765776609505332, 4.404061807494145, 6.277181072693007, 11.992300839964864, 19.25298034766651])",False
14147026615.86111,"array('h', [18.01258535105404, 13.300187730123744, 7.848704851388103, 5.794067974520558, 4.309176912265954, 5.0676455425581475, 9.314846710949409, 17.631785073898776])",False
14167075344.740742,"array('h', [17.555668675665427, 13.436959589348747, 9.37667678855211, 6.257792335344743, 4.168792175253987, 4.243800272722273, 7.464737904649205, 14.888981154342536])",False
14187124073.620369,"array('h', [16.9237809147796, 14.762629254305569, 12.072047865539014, 7.120918140844395, 4.434093135252493, 4.25749136710022, 7.072496935377864, 14.228948583008176])",False
14207172802.5,"array('h', [15.409073441752508, 15.372952343163606, 14.538433538032267, 7.9953813626338315, 4.402048989060159, 3.8121413555912507, 6.438678037943211, 13.270094337508445])",False
14227221531.379631,"array('h', [14.199850728726158, 15.833113640983026, 16.65012454492442, 8.543247227592198, 4.382963806994416, 3.646715701592555, 5.672745494932394, 12.899353271779598])",False
14247270260.259258,"array('h', [12.07203416847371, 16.749851460097528, 17.4222443360773, 8.58408335919196, 4.101740283829424, 3.2429173176474335, 5.558081900339608, 12.413263414033908])",False
14267318989.13889,"array('h', [11.25467508005612, 19.527488410566097, 19.955544990973582, 8.876890967649741, 4.037620514434894, 3.2252114841223394, 5.422201648966837, 11.027676513909892])",False
14287367718.01852,"array('h', [9.602539826531881, 19.849762342046432, 21.24376631475637, 9.212647302488966, 4.11034481518537, 2.870289924721308, 5.3670166895850615, 10.583199723158456])",False
14307416446.898148,"array('h', [8.351492651658475, 20.419999219232444, 21.769518624946752, 9.310647306519039, 4.056390223494919, 2.6974492132133747, 5.528769995171425, 9.807033982361373])",False
14327465175.777779,"array('h', [7.986739727688591, 22.562178645710397, 22.57456025105889, 9.858877118002559, 4.129818909695099, 2.5258851791375427, 5.071172178987054, 8.117565160435806])",False
14347513904.65741,"array('h', [7.640537743281469, 23.030566782253754, 23.604574426291546, 10.10343265032959, 4.183635966951045, 2.517940360546402, 4.711579414880777, 7.216587163894018])",False
14367562633.53704,"array('h', [6.713063977570067, 24.259057313909036, 24.469019119700818, 10.385967434591436, 4.091362979877362, 2.437700648398223, 4.3822408538694315, 6.239411540895503])",False
14387611362.416668,"array('h', [6.4129941600329605, 24.72142181083808, 24.769877984912554, 10.574293737312532, 4.1593454658456945, 2.5098089307883553, 4.041958368823334, 5.53897817475877])",False
14407660091.296291,"array('h', [6.1667131894462175, 25.36691881354509, 24.860741800688416, 10.930634422577329, 4.38551200635763, 2.530610325793671, 3.9409671137577558, 5.421485266916461])",False
14427708820.175926,"array('h', [5.683158929097739, 23.844808748698046, 23.634191145287218, 10.60091288199627, 4.30710061882443, 2.408551292095825, 3.6393701750812704, 4.744714038375975])",False
14447757549.055561,"array('h', [5.339859323894664, 22.949833119288204, 21.660913252641826, 9.7351802764491, 3.9223085135971485, 2.2642361082830478, 3.0142850410303095, 4.190360466311702])",False
14467806277.935184,"array('h', [4.854784341323701, 21.623868842927063, 18.919291358096494, 8.469247917697638, 3.4931100328813014, 2.0991647495222874, 2.6805668366792195, 3.573116728070791])",False
14487855006.814816,"array('h', [4.716883008909073, 20.04822314103795, 17.8710925137169, 7.852441844676976, 3.3041324026358714, 2.0820296709015134, 2.523661368327898, 3.234506350967447])",False
14507903735.694443,"array('h', [4.524931692361068, 17.652872592810002, 15.886575219366085, 7.328394295609765, 3.1287117639633695, 1.938414035992875, 2.267958411922437, 2.928554381362865])",False
14527952464.574078,"array('h', [4.105895548458801, 15.183026994761144, 13.614030491228178, 6.689724810563315, 2.854407414465742, 1.785253905333217, 2.080822689502746, 2.776116091820972])",False
14548001193.453705,"array('h', [4.205140550934949, 15.385231036349648, 13.381875585754182, 6.410557557893675, 2.759220772204726, 1.8032176442944057, 1.8170504332184765, 2.4158952127325386])",False
14568049922.333328,"array('h', [3.9162808435466974, 13.592941649052454, 12.771497941409823, 5.799605779359761, 2.4333847656143335, 1.7179748962340349, 1.6141335795733756, 2.229167216525639])",False
14588098651.212963,"array('h', [3.5665731333786956, 12.012929480595636, 11.579386949776389, 5.291338908434458, 2.233732580418556, 1.7997397931214225, 1.3847525863561327, 1.8762974491654782])",False
14608147380.092594,"array('h', [3.3060348445812875, 10.948042449225447, 10.132203319946198, 4.857674496411376, 2.081206298452006, 1.7488115166374123, 1.4634614723142811, 1.9923746775009872])",False
14628196108.972221,"array('h', [3.321867137510889, 10.350180066252506, 9.471398988685992, 4.5409073069695465, 2.0439716338171268, 1.7315335711470652, 1.396867392493727, 1.8296244892398648])",False
14648244837.851849,"array('h', [2.7967493137260098, 8.846402834062093, 8.05354049374072, 3.8626013533175567, 1.7449237607566044, 1.5729985961332815, 1.264663111674392, 1.7426793483171406])",False
14668293566.731483,"array('h', [2.2554732630343093, 7.349180527736871, 6.510836073921598, 2.871278954949033, 1.2772666838792872, 1.5194196609242612, 1.2214064102472004, 1.5123482433994284])",False
14688342295.61111,"array('h', [1.9607776809950441, 6.166429821651792, 4.995989612842833, 2.483827479930416, 1.0924616434706227, 1.3217723815828575, 1.231252229394254, 1.541432600253579])",False
14708391024.490742,"array('h', [1.740412845711646, 4.877278998031511, 4.67640651619969, 2.4729400975727285, 1.1344319614719254, 1.321629840184144, 1.1466705280749279, 1.441151486549496])",False
14728439753.370369,"array('h', [1.7682695272056164, 5.23322321432268, 4.398058321984681, 2.904015962640067, 1.3465671719102186, 1.2716664679740148, 1.120766625506647, 1.4935582097723328])",False
14748488482.25,"array('h', [1.613253271797839, 4.975321435146805, 4.306076933482153, 2.9403204577147326, 1.3986496060806528, 1.3917371930966334, 1.1169865389185039, 1.4549110300144616])",False
14768537211.129631,"array('h', [1.5886709112365773, 5.065111326600946, 4.354008359101118, 3.0340651589460896, 1.435766139070494, 1.3938597787760474, 1.1376102236023002, 1.5630813648064674])",False
14788585940.009258,"array('h', [1.5680328492639561, 4.425623287131598, 3.9147662575353976, 2.960526333974707, 1.4630823223515534, 1.4123935274398702, 1.014982122211772, 1.5195905541661439])",False
14808634668.88889,"array('h', [1.3776682612283169, 3.717731935785602, 3.452236869769096, 2.9838523769554475, 1.4150876711446125, 1.3511693129662528, 0.9764580914934278, 1.514774818080389])",False
14828683397.76852,"array('h', [1.1735665439909473, 3.166970656849808, 3.3531593437704768, 2.9615775418799655, 1.440424821726969, 1.2454907944396825, 0.9785518389653065, 1.41567270915416])",False
14848732126.648148,"array('h', [1.0676666415807572, 3.103584386630585, 3.3901743281333308, 2.960070690909097, 1.4537995759803017, 1.1292796072226448, 0.9291731325918535, 1.3520326156231843])",False
14868780855.527779,"array('h', [1.0503175599664125, 2.6983132860043613, 3.2088783605737357, 2.805967480665703, 1.4010255379284742, 1.074859721895287, 0.8631463485941405, 1.177532393410033])",False
14888829584.40741,"array('h', [0.9740352848469945, 2.3469269892244995, 2.9779118515322516, 2.786848420038914, 1.3810148185264468, 1.0680600661926658, 0.9376036300025915, 1.1764083507782217])",False
14908878313.28704,"array('h', [0.9339932250948408, 2.028166549298979, 2.9135406731034528, 2.6358786817233777, 1.3311500287102775, 1.028937189156884, 0.9271185734147335, 1.067696702277628])",False
14928927042.166668,"array('h', [0.8580132308190301, 2.12055975157844, 2.9054959701293157, 2.629515421358229, 1.3046582575856729, 0.9694275823226242, 0.9792945576390966, 1.0761331683560345])",False
14948975771.046291,"array('h', [0.7762859380647629, 2.0889620066522783, 2.9982973715160566, 2.613460870797577, 1.2802153587574765, 1.0023505909743307, 1.0047522570610536, 0.985567761536483])",False
14969024499.925926,"array('h', [0.6973493213155062, 1.89603704404448, 2.722904396453303, 2.323105812768232, 1.0763011392683788, 0.959877279553687, 1.035522368423946, 1.0123235111912086])",False
14989073228.805561,"array('h', [0.7214572113916524, 1.8523557391315315, 2.564947421744362, 2.1495217058817246, 0.948785826649087, 0.9121027825957527, 0.9566473364610623, 0.9232068391379419])",False
15009121957.685184,"array('h', [0.7668331925256303, 1.9982088811498975, 2.5880511808232156, 2.353946328419024, 1.03351625587493, 0.8178954654575665, 0.9890503730295778, 0.9723474138326802])",False
15029170686.564816,"array('h', [0.8672478301787933, 1.9663667266934495, 2.5801862353876275, 2.274597471405208, 0.9497871446832606, 0.8443160155605457, 0.955547235229064, 0.8741600198832387])",False
15049219415.444443,"array('h', [0.8222315984989477, 2.1486564111711264, 2.7359537003971277, 2.2615093623585665, 0.9552534304145451, 0.7797143829428751, 0.9707463932510353, 0.9464490454188756])",False
15069268144.324078,"array('h', [0.8946007676689826, 2.046307012039698, 2.6384148671987635, 2.1098221599303204, 0.9537612088388541, 0.8371204912199292, 0.9475244749246846, 0.8542214781800419])",False
15089316873.203705,"array('h', [0.897584555371561, 1.988889112857074, 2.544954905609508, 2.0159052016365075, 0.9080909020468797, 0.8123470011842163, 0.8737419626545522, 0.880090129502769])",False
15109365602.083328,"array('h', [1.023434674030393, 1.8882461280051164, 2.5545629429150503, 2.1196972272171006, 1.0178668006804503, 0.8438727840925387, 0.9096488544437399, 0.8334356049651201])",False
15129414330.962963,"array('h', [1.0107412351328235, 1.8912769235471374, 2.5553310860734135, 2.2093100551362794, 1.0767006850555336, 0.8530286937617052, 0.8882356884202555, 0.9121069232074148])",False
15149463059.842594,"array('h', [1.1260428514545802, 1.908435504587317, 2.566584855557227, 2.0965839992902326, 1.1017785241268985, 0.8163853292765625, 0.809685002160212, 0.7988903145788895])",False
15169511788.722221,"array('h', [1.1009140486934879, 2.037371344005132, 2.6412014510995174, 2.135873810981118, 1.181593513770759, 0.8092134138593502, 0.7557320256804105, 0.825684886771536])",False
15189560517.601849,"array('h', [1.1245654784951427, 1.9511913262157905, 2.602672672569513, 2.036646304577146, 1.15593376372816, 0.813585761480844, 0.7018376049287793, 0.7840318970164016])",False
15209609246.481483,"array('h', [1.0885224014390573, 2.197268934001293, 2.665870934877078, 1.9870735397787254, 1.234105824210099, 0.7863704877007486, 0.6669069555198537, 0.7857795283595375])",False
15229657975.36111,"array('h', [1.183411684876323, 2.0930921997375966, 2.63224996086648, 1.8292454661996411, 1.2352057637644627, 0.795429013564385, 0.7065328916665, 0.6985226248526963])",False
15249706704.240742,"array('h', [1.0749715471204748, 1.9341916441377007, 2.4906602559619553, 1.6744939613312069, 1.205521887956595, 0.7580970601100688, 0.729868687439714, 0.6792046611473331])",False
15269755433.120369,"array('h', [1.156752511568131, 1.8510462246508619, 2.3223479174580683, 1.460069193405448, 1.0768226078766805, 0.7333097709352202, 0.7025906364601495, 0.6243520985930396])",False
15289804162.0,"array('h', [0.9227422200057336, 1.8712293107570943, 2.3076794592804935, 1.5011731619935562, 1.2391365979501965, 0.8609981335996103, 0.700733878692977, 0.6638222059639098])",False
15289804163.0,"array('h', [1.4377798033849358, 3.24724695271838, 2.292696111841859, 2.169281681339231, 0.840702033721599, 1.0148235950466162, 0.8767771113931211, 1.176768366632359])",False
15309771719.880829,"array('h', [1.0538369691044815, 1.996469288958135, 2.4246492007021976, 2.2942130241887257, 1.1263507295681103, 0.7529614577886575, 1.2888877635465874, 0.844710865461717])",False
15329739276.761658,"array('h', [1.075703436637644, 1.8071482718536644, 3.4339099570130247, 2.7866298772472256, 1.6735647599569583, 0.5904850382630825, 1.2331876317583088, 0.7981019894186434])",False
15349706833.642487,"array('h', [1.1370032172651385, 2.1129711429657756, 3.615241008794031, 2.908416608464359, 1.4356312480636517, 0.666762968744617, 1.1840631399370367, 1.1316430205220414])",False
15369674390.523315,"array('h', [1.013049655323509, 2.220992005743935, 3.3760045824609968, 3.7478291049123094, 1.870360710243539, 0.7268824852809245, 1.1897911841165232, 0.9547206413937395])",False
15389641947.404144,"array('h', [1.497857507441827, 2.5150703831827865, 4.052919012927654, 4.78789916371068, 1.910351150827418, 0.8923106856301181, 1.207057099923806, 2.036830577075307])",False
15409609504.284973,"array('h', [2.1927032523265866, 2.506132796601857, 4.68787664602975, 5.3682216861891625, 1.9429872279116307, 0.9032134321077948, 1.2480039683857032, 2.8599148422099043])",False
15429577061.165798,"array('h', [3.222356163367895, 3.1333932047201674, 5.1228055554613405, 6.538042234831168, 2.4838273775639186, 1.1654936118098693, 1.3504153761832614, 3.1644259686709897])",False
15449544618.04663,"array('h', [3.783851662191436, 3.3405118708368273, 6.2713792577449174, 9.284865096190526, 3.474346675689009, 1.4610333172544596, 1.5181555993559972, 3.43149800136167])",False
15469512174.92746,"array('h', [3.5424727788704993, 3.4735761916087244, 7.001843333764683, 11.354174980309267, 3.8070471835094644, 1.6096302552353783, 1.57176564776763, 3.2711826346201947])",False
15489479731.808289,"array('h', [3.571875370175901, 3.7021125604787697, 8.270262168808138, 11.934026670291695, 4.057683105257734, 1.7199159424435133, 1.585534077663038, 3.302893969224769])",False
15509447288.689121,"array('h', [3.591532549035714, 3.943314344721173, 8.526148490118661, 11.943679638521125, 4.029371744544015, 1.8013776984535594, 1.6057715182350394, 3.2654186910109515])",False
15529414845.569942,"array('h', [3.5426229240827447, 3.8372314054816576, 9.622416423173439, 12.886384789762442, 4.134463683775009, 1.7562260380007306, 1.541675521052182, 3.1496178951704876])",False
15549382402.450779,"array('h', [3.654681829976204, 4.028434514673189, 10.573599002450266, 13.456049619598856, 4.282537032663061, 1.886595084179751, 1.6133339853833286, 3.2631584622071133])",False
15569349959.331608,"array('h', [3.836902881682722, 4.6146578410030115, 12.372683779330536, 15.022882021306469, 4.552244947229846, 2.023883127460801, 1.8030533639562378, 3.5107472445709074])",False
15589317516.21244,"array('h', [3.9933046079117416, 5.010204725605147, 13.48086072241748, 16.144106675523616, 4.890763798303584, 2.2432122220259703, 1.983223125621795, 3.71780654402556])",False
15609285073.093266,"array('h', [4.00238879010433, 5.107021392658365, 14.515394960066143, 16.827321710025487, 5.1852440430161835, 2.427782306878707, 2.149922388449941, 3.89960341519051])",False
15629252629.97409,"array('h', [4.041690519930118, 5.240998952940191, 15.409080416101139, 17.156234306141663, 5.254294081551554, 2.5180546680366995, 2.4286307331604036, 4.103471064894772])",False
15649220186.854923,"array('h', [3.754144767902082, 5.185484113748607, 14.489772619012742, 16.504178885655758, 5.206448822830717, 2.5258488645623487, 2.397298926777332, 3.521252345682384])",False
15669187743.735752,"array('h', [3.4334057727364016, 5.701409138508321, 15.025224863305853, 16.39867781549749, 5.098555795034627, 2.5928582733074528, 2.6275884952718704, 3.491645469292042])",False
15689155300.616581,"array('h', [3.0339134120527884, 7.191333544357575, 15.863258382322256, 15.420569616077096, 4.690218034898073, 2.3946359849860426, 2.733671858876282, 3.178469016364407])",False
15709122857.49741,"array('h', [3.076053442678755, 8.026886590856186, 15.777524759065937, 13.321899892337871, 4.24247913034992, 2.297239074871835, 3.091507802877248, 3.973360733951273])",False
15729090414.378239,"array('h', [3.3172078892805597, 8.676598895511638, 15.486470039405251, 11.786764833908327, 4.051531721427618, 2.166495905270414, 2.9795462865548776, 4.403520669358834])",False
15749057971.259068,"array('h', [3.9790398978351287, 8.828562266749062, 14.96622885107981, 11.265760349591059, 3.8607882084061624, 2.1253811647587035, 3.182946129268604, 4.752711524943391])",False
15769025528.139896,"array('h', [6.073381762992598, 9.435424993138968, 14.372052535529786, 10.200677081242445, 3.804046867605437, 2.2022699265479773, 3.536994572266883, 6.077489915613414])",False
15788993085.020725,"array('h', [7.228283552484339, 9.561165826491282, 13.132088752007817, 8.999440094765419, 3.632938515795388, 2.309048779961965, 3.892189243810446, 7.201494398694477])",False
15808960641.901554,"array('h', [7.8902378487292255, 9.621955932240622, 12.441407471852559, 8.169479419587663, 3.533192312090825, 2.318525609937281, 4.186338710908597, 8.114869799620694])",False
15828928198.782383,"array('h', [8.956482271765353, 9.931326592632253, 10.835324917255747, 6.526760070039568, 3.263821652545454, 2.3593994141699355, 4.38626065332352, 8.681617379879562])",False
15848895755.663212,"array('h', [10.618690422584448, 10.30012627843801, 10.323627691014384, 5.963466369950316, 3.1030655355042622, 2.135237279176945, 4.667074155099403, 9.73008093635315])",False
15868863312.54404,"array('h', [11.479851834095593, 10.910004189938418, 9.077599867283205, 4.901781629532057, 2.838625255004018, 2.4448530782772337, 5.074507430258524, 10.443545473892177])",False
15888830869.42487,"array('h', [12.217755617638478, 11.367340363273367, 9.117340490808289, 4.752043238239574, 2.9619792673850904, 3.0263168051408553, 5.920202744591742, 11.164373309453635])",False
15908798426.305698,"array('h', [12.731091631901242, 11.844244848110842, 9.489083788695636, 4.839264354812481, 3.1731374190825736, 3.3031694744630484, 6.384011777826986, 11.63580869136724])",False
15928765983.186527,"array('h', [13.547229075383632, 10.8244197004985, 8.299785499308554, 4.291067181087825, 3.1474685354009435, 3.6628550683279566, 6.337027796811079, 12.215308383935895])",False
15948733540.06736,"array('h', [14.671010038418279, 9.810062405029674, 7.3543050398996375, 4.011169732508434, 3.163162377121065, 4.015647541848754, 6.417981511650899, 13.187636694956003])",False
15968701096.948185,"array('h', [15.189489675899994, 9.875465936854877, 7.044987940018554, 4.069518782758366, 3.357599382466872, 4.971442127948017, 7.11873686639778, 13.10907235418851])",False
15988668653.829014,"array('h', [15.809983144298625, 9.760873733771747, 6.26991401023683, 3.809395265923508, 3.17317736824105, 5.502395603286337, 8.107911670009077, 14.492173337539985])",False
16008636210.709843,"array('h', [16.190241441121465, 10.590248178249238, 6.3701167736145, 3.765210746185934, 3.3901477502208284, 6.219088665961206, 7.6779586674547025, 14.60096225356603])",False
16028603767.590675,"array('h', [15.530125396729735, 10.591507790716214, 6.062291301333882, 3.5995491709993006, 3.51200124628209, 7.222076094599825, 8.720688287911857, 14.592849986701612])",False
16048571324.471504,"array('h', [16.129537913990273, 11.446616069910089, 5.920104885959458, 3.5588587558115727, 3.548146741720711, 8.304594166365986, 9.408513088441994, 14.420486450757824])",False
16068538881.352333,"array('h', [17.300384360311956, 12.202785553106466, 5.502850583523706, 3.520080124502495, 3.7478726376641243, 10.274748593621288, 10.557270606922714, 15.40750458084998])",False
16088506438.233158,"array('h', [19.897446984255996, 13.567222671664712, 5.909642191146187, 3.684688128234486, 3.9942964748658194, 11.626879605811625, 11.638735604211881, 15.57621330322469])",False
16108473995.11399,"array('h', [20.94530643496546, 14.672678559979026, 5.97577123383029, 3.569935564128234, 4.040017065228054, 12.884599515037783, 11.88454854219687, 15.27864257002901])",False
16128441551.99482,"array('h', [21.86836311300856, 14.85568222653954, 6.518687784246963, 4.076325782145775, 4.288639038938134, 12.476606146746386, 11.228291807298968, 16.390270709727613])",False
16148409108.875648,"array('h', [23.07900728145015, 14.55379224584911, 6.632053520268003, 4.279160316021688, 4.357988773970919, 12.746136863201217, 11.733837228850225, 17.542552140880495])",False
16168376665.756481,"array('h', [24.10339723643538, 15.471713524154465, 6.540572025965562, 4.321761614889347, 4.463979172034004, 13.623138211763035, 12.534403326773084, 19.335075353055082])",False
16188344222.637302,"array('h', [24.07141799517555, 16.09454059109034, 6.160873396209294, 4.202439937452159, 4.669010481604734, 14.78728230491801, 14.132819245180931, 19.967589484171288])",False
16208311779.518131,"array('h', [23.697452597787667, 15.480704362541987, 6.012396749616331, 4.172612306393528, 4.485794144642332, 14.54721195541041, 14.526271084812533, 21.342123886270578])",False
16228279336.398964,"array('h', [24.504873968403434, 15.734694509349527, 5.753036134262755, 3.887345469271362, 4.435839549547413, 14.16490212715545, 14.411515247743509, 21.19477701134129])",False
16248246893.279797,"array('h', [24.394888805536837, 15.747577553323739, 5.8005629713374525, 3.9469518272316675, 4.922641085342833, 14.974233522637366, 14.902254595588337, 21.749370439096772])",False
16268214450.160622,"array('h', [23.382852677686735, 15.966790555777036, 5.841172928732497, 3.90960757611924, 5.116648584837886, 14.975405127761023, 14.926321111698353, 22.23723708422923])",False
16288182007.04145,"array('h', [23.578334649085438, 16.43655627993205, 5.94323177859729, 3.9644634694187233, 5.266853166728894, 14.676151425402214, 14.738878976602223, 23.168210438802962])",False
16308149563.92228,"array('h', [24.14234820452628, 15.649124436842605, 5.965602431980773, 4.578053764523922, 6.104802724293043, 13.462721420596395, 15.689187591091633, 24.39158118293276])",False
16328117120.803108,"array('h', [22.153481524296996, 15.068714750497927, 5.9486413095982025, 4.945704107572384, 6.8923526253750875, 12.191668398015109, 15.53823378817267, 23.081604909364344])",False
16348084677.683937,"array('h', [20.69602028774032, 14.373009060666885, 5.442018592667007, 5.6041856304324185, 7.148060798306209, 11.731847071870456, 14.789845815010107, 24.699283550334812])",False
16368052234.56477,"array('h', [22.049717605364403, 13.853727896531579, 5.362582943473932, 6.107481653419068, 8.239060955798749, 12.074163784584714, 15.22461894025486, 24.52884554084768])",False
16388019791.445595,"array('h', [21.356566750573215, 15.55530859512556, 5.889811547818462, 5.740887911595273, 8.874312089561366, 13.270566193931097, 15.339924355628241, 23.744878137683866])",False
16407987348.326424,"array('h', [20.71545509375322, 18.68749403563416, 9.270668947164372, 7.368900695415811, 10.039894386321064, 13.236149106655205, 14.861161550255014, 22.468293726573826])",False
16427954905.207253,"array('h', [20.662890325161758, 19.87649777026839, 12.152401633100066, 8.918912901026857, 10.860813880683148, 12.947570584298417, 14.587732336293382, 21.746742067348027])",False
16447922462.088081,"array('h', [22.68978296156623, 21.881314149831375, 15.002682071888069, 9.760144326608721, 11.182667827263609, 12.485223594541072, 13.748392054217314, 21.795063880530833])",False
16467890018.96891,"array('h', [24.44163772439065, 24.3456680927038, 18.768521375906023, 11.498552896871425, 12.146053019761075, 12.510786676243717, 14.118740703265914, 21.725327835799792])",False
16487857575.84974,"array('h', [24.869145480568463, 26.83916214340697, 21.671539445911627, 12.330272110614443, 12.445750882219802, 12.074342361017015, 14.244934377346492, 23.727460192281814])",False
16507825132.730568,"array('h', [26.97868043055401, 29.859182274888056, 24.530498041923412, 12.834816489518321, 12.6639400293458, 12.10199870390928, 14.6272680777371, 24.308919366581])",False
16527792689.6114,"array('h', [30.006296590247246, 32.365867100499585, 28.513727062862603, 14.633159527642826, 13.118723402106534, 12.040784772010989, 15.242088042123193, 25.93992920091587])",False
16547760246.49223,"array('h', [30.69492741947007, 37.751183911328546, 34.83712437952133, 17.268777030858114, 14.031579864394907, 13.13364802514718, 15.830619300851744, 26.44077332722871])",False
16567727803.373058,"array('h', [30.825697698126596, 43.99200814642796, 40.568663987439955, 18.030727979930585, 13.910062415480505, 14.399501512861194, 14.498361716050367, 26.791643044282196])",False
16587695360.253887,"array('h', [32.34815632495899, 47.50509610924399, 44.025433569767, 18.80231226307886, 15.255330475980657, 15.604534133538442, 14.230789530362767, 27.27157528986525])",False
16607662917.13472,"array('h', [30.3357149283813, 49.030350228350876, 46.55652100587687, 19.27741120275423, 16.24382072467166, 15.741781638200775, 13.979416756499745, 26.549201772816343])",False
16627630474.015545,"array('h', [29.596915201543034, 49.91709117635118, 48.8783378431737, 20.067779607782175, 16.199340102401518, 16.21505704667647, 14.246346864945439, 27.806921959535725])",False
16647598030.896374,"array('h', [31.044481467864696, 50.47022330002808, 48.92512896139615, 20.10353321926393, 15.624064245163847, 16.440139105667654, 14.764482534364763, 28.04485324274214])",False
16667565587.777203,"array('h', [33.07021276374539, 49.486694107330926, 46.640702778974166, 17.894836035246275, 14.82805681985146, 16.40478252975255, 14.814067864341528, 30.464142735328313])",False
16687533144.658031,"array('h', [32.8316678319875, 50.91371527580786, 46.49185397562802, 17.728695622272806, 15.460687821363935, 16.822262039808578, 14.479423815990852, 30.22491539980441])",False
16707500701.53886,"array('h', [31.20780869852614, 50.439391512851266, 44.61193533631109, 16.815020771283375, 14.959488719131755, 18.477615298383164, 14.685995777754975, 30.30227725494946])",False
16727468258.41969,"array('h', [31.762247542260106, 50.87794338608234, 45.77596126157631, 16.426822177499126, 14.956519922969647, 20.917114600374948, 14.527233586636676, 29.757936667249123])",False
16747435815.300522,"array('h', [31.540493962077182, 49.55414834898369, 44.805747728924004, 16.584909668623702, 15.36478436055502, 21.383673103609937, 14.177033033618976, 28.241238098987928])",False
16767403372.181347,"array('h', [30.371814912775914, 49.62370329863054, 44.26914768313579, 16.27852694128551, 15.374808659414297, 21.232770596403984, 14.208674814258714, 27.988137198591353])",False
16787370929.062176,"array('h', [27.974631021465235, 50.04810893426752, 43.91109362955423, 14.727811052551782, 15.509319766262582, 21.154796671422822, 13.251072166576023, 26.865677038651068])",False
16807338485.943005,"array('h', [28.02180523353083, 48.468311598659525, 41.72337177316823, 14.054924025609093, 15.34039056471292, 19.9809668783243, 12.18588419154407, 25.569001223935466])",False
16827306042.823837,"array('h', [27.302978250600525, 47.0754116299438, 39.16556331268702, 13.777760820280873, 14.344881335948282, 18.796461587200135, 12.124163747364328, 24.89304743252893])",False
16847273599.704662,"array('h', [25.68536256646591, 44.721733730453856, 37.94348332014822, 12.88217764126441, 13.019799077188933, 18.23413343846953, 12.361343681559202, 25.269203515503573])",False
16867241156.585491,"array('h', [26.605559067054685, 47.361489820234, 38.450443056024575, 13.194031429371806, 13.243108355197512, 18.264724115736886, 12.371989776559367, 24.104490654691613])",False
16887208713.46632,"array('h', [25.963403912399034, 48.2134178574047, 37.75650735537998, 12.674174894248136, 12.921753557594387, 17.382556940087863, 11.551091962711187, 23.43031358897028])",False
16907176270.347149,"array('h', [25.123330725991952, 50.1299420963336, 38.75476088330306, 13.112857723012208, 13.511190386943705, 18.21076317147823, 11.107337867898172, 22.068931912047265])",False
16927143827.227978,"array('h', [23.10640181060034, 49.55410827186192, 37.99186845101149, 13.335334695933813, 13.375262484163486, 19.105669587673315, 10.916184435412164, 20.86575503524895])",False
16947111384.108807,"array('h', [24.105416928783253, 52.250788309441724, 41.3497101750033, 14.675863492789352, 13.854533650667976, 18.472748467266435, 10.789183524271728, 20.66869758897551])",False
16967078940.989635,"array('h', [22.749394835427736, 55.516397935178254, 42.78472160231267, 15.799974405764695, 14.905684129303067, 16.96813784173699, 10.149975583727922, 19.473017802134073])",False
16987046497.870468,"array('h', [22.709872559165632, 54.947249771451816, 41.813071666858804, 15.808725323943674, 14.586253738969022, 15.559537129846005, 9.142676863055124, 19.18802209985792])",False
17007014054.751297,"array('h', [22.7156728373799, 55.82235849361393, 44.81741343338371, 16.664882074148, 14.493293041142048, 15.749646809100698, 9.557047076318987, 18.581066286794474])",False
17026981611.63213,"array('h', [22.324438637750674, 54.90422569496207, 45.82147646137149, 18.167771877444387, 14.758696520137091, 16.601211047958675, 9.801579898650662, 17.99315746348995])",False
17046949168.512955,"array('h', [23.1894898028002, 55.14445024514455, 43.86462358723514, 18.065544630700796, 15.237434762393768, 17.255969908940134, 9.68984749420611, 16.4528579171987])",False
17066916725.393784,"array('h', [22.360390642462907, 51.59234319119667, 42.58237984958258, 17.596911720214347, 15.620432930001684, 18.31925867983892, 10.088538509559687, 17.92493743531773])",False
17086884282.274609,"array('h', [23.25142244054266, 53.590797027118626, 44.648523896530506, 18.081383059073, 16.358157259045438, 19.53221037362718, 10.043243295357119, 17.925506400134797])",False
17106851839.155441,"array('h', [23.699013467643102, 54.97986586147793, 44.824336037322894, 17.628098376713606, 16.06251686783148, 20.991473040690767, 10.298018412556603, 17.56250340847851])",False
17126819396.03627,"array('h', [23.626776827347662, 54.78651281177484, 44.70451115819788, 17.434298714774577, 15.776126188197573, 21.365671469568245, 10.435146933681956, 18.45175682225763])",False
17146786952.917099,"array('h', [23.265215464408616, 56.16291029764934, 45.44517060345408, 17.821944915790134, 16.018859154837102, 21.18543804587055, 10.609872486396236, 18.76325049080124])",False
17166754509.797928,"array('h', [22.865469757547714, 55.48120449233441, 47.60164216071322, 18.17764258703565, 15.319197489417451, 20.478387146887723, 10.59220541952406, 18.603845221181167])",False
17186722066.67876,"array('h', [22.301965226120906, 54.05161936849476, 46.59923089139516, 17.564664202534626, 15.039271823110388, 20.37514672512324, 10.296290930373779, 17.694250549664737])",False
17206689623.559586,"array('h', [21.922060189407595, 50.01775531418496, 44.33478573179442, 16.40870454597188, 14.017014118854004, 20.848411615495895, 10.19191308901025, 18.115465172689113])",False
17226657180.44041,"array('h', [22.199791624583, 46.69487154191261, 42.34899342891448, 15.528077322325958, 14.13595726486232, 21.28029445443054, 10.54355494312885, 18.484915571481466])",False
17246624737.321243,"array('h', [20.640770853398333, 47.437534103740234, 42.19298347020668, 15.261622679710362, 14.54271385781798, 21.518666472411116, 10.733188148812413, 18.23792311685253])",False
17266592294.202072,"array('h', [21.824198922891455, 49.26245384858578, 40.560152264497546, 13.7886580629573, 13.78080280366314, 20.398051544678914, 9.878361700759115, 17.850466814636622])",False
17286559851.0829,"array('h', [21.702960578979578, 48.025222721166934, 39.223425255199125, 12.599623872348065, 13.233571868174064, 19.639159370080876, 9.259834088075417, 18.231601559513482])",False
17306527407.96373,"array('h', [21.363259975083302, 48.33016180558526, 39.87398782568446, 12.133325719780744, 12.626525619391838, 18.993573600320477, 8.678196636306856, 18.14609135267116])",False
17326494964.84456,"array('h', [21.164639985957358, 48.55425256938208, 38.18815261560254, 11.617434558815638, 12.103580869675762, 18.12395388011666, 9.127374489305389, 17.536814368766958])",False
17346462521.725388,"array('h', [21.46877099653297, 49.1379260237887, 37.174266517067345, 11.644228369076023, 11.675665822819694, 16.80451184393073, 9.976664511918948, 18.998429736165537])",False
17366430078.606216,"array('h', [22.242902609869173, 50.74421062217545, 37.723196750398735, 11.875844281656859, 11.721179768517704, 15.508805770420997, 9.958343001226748, 19.206579823767772])",False
17386397635.487045,"array('h', [22.155352750239196, 50.262509363290405, 39.24767916309465, 12.429816601273401, 12.113673098665956, 15.540041935670057, 10.23071900848517, 17.954616881211386])",False
17406365192.367874,"array('h', [21.884692544591488, 47.651368919272535, 36.79316669358791, 12.17843672904931, 13.044924987716257, 15.197376758480702, 10.335952869649441, 17.91237328588237])",False
17426332749.248703,"array('h', [22.82942633999247, 49.75772041174754, 37.52818328840379, 12.447310755514213, 13.328652063356044, 14.87298430328442, 10.599914247813684, 18.613906611676732])",False
17446300306.12953,"array('h', [23.893782219162453, 50.60285087570917, 37.0352460622057, 12.093805405059395, 13.19446417521211, 14.20535363437722, 10.76548308831977, 19.021593581718445])",False
17466267863.01036,"array('h', [23.471185657612004, 51.19167892306403, 35.70256362140645, 12.061209481803568, 13.268436420977274, 14.138659401099321, 10.907760222445896, 18.09439914402504])",False
17486235419.89119,"array('h', [24.386118523781438, 52.73343826938728, 35.98775690111966, 12.721290809818344, 13.43357247132767, 14.811997116661246, 11.547736230325716, 18.511831794932924])",False
17506202976.77202,"array('h', [23.50609396678148, 51.271430470119206, 34.24188358588895, 13.608383620652196, 14.499033412742309, 15.37121557107927, 11.861973355973113, 19.692720381770446])",False
17526170533.65285,"array('h', [21.676866401549137, 50.50844227716742, 34.59798708972813, 14.293984292478898, 15.05046992582732, 14.883166105926641, 11.388203017601196, 18.836880459309082])",False
17546138090.53368,"array('h', [22.07374689225567, 48.813257410447854, 34.35073770079191, 14.764326995849704, 14.617013580689381, 14.307395581506293, 11.685799912070122, 19.882065774611426])",False
17566105647.41451,"array('h', [22.590235472909377, 48.56513789944331, 34.68573807597523, 15.900030400061018, 15.507728448000265, 14.483988336917411, 11.55327829366747, 20.584455949740708])",False
17586073204.295338,"array('h', [22.00129084406461, 47.02098406299021, 34.5489796854468, 15.973501573573468, 15.540228012802817, 14.948486719892223, 10.75691915742004, 18.57481139069563])",False
17606040761.176167,"array('h', [20.828729824754333, 42.58630483510839, 32.584177944756696, 16.591022757836953, 16.29869614983549, 14.699295046161856, 10.376169948774685, 17.527209284397998])",False
17626008318.056995,"array('h', [21.279165975335857, 39.72915159908087, 29.996073511252817, 16.65199170883935, 17.016136287305955, 15.015155085032355, 11.60444443796937, 17.834503274384588])",False
17645975874.937824,"array('h', [23.143003509174072, 38.4931151862247, 27.66110851908023, 16.984849766846562, 17.4297404385307, 15.596529835982107, 13.617372968000142, 20.44188084235472])",False
17665943431.818653,"array('h', [24.620643760812406, 37.278761495578394, 25.95947719709342, 17.41303668735776, 17.85297315836386, 15.69076950382717, 14.431045037064523, 20.84544475764598])",False
17685910988.69948,"array('h', [24.539040387800355, 34.535142057846826, 23.69519653683915, 17.425359916226626, 17.827289492977933, 15.816420133573747, 15.726377308240831, 20.668099215096536])",False
17705878545.58031,"array('h', [25.58577735448698, 33.6012147669804, 23.262588224711973, 18.09291540325964, 18.692522450981738, 17.018975071113978, 16.519746447174043, 20.532324742193143])",False
17725846102.46114,"array('h', [26.263785387130763, 32.4494087082204, 22.59320888546857, 17.856419920713304, 18.03996940352852, 15.572753117079126, 16.069895857228317, 21.05255680454272])",False
17745813659.34197,"array('h', [26.00372799874854, 31.877658346976297, 21.78081719338121, 16.98632515910132, 16.693732497441992, 14.387482861611282, 16.3354101229816, 21.870103820575153])",False
17765781216.2228,"array('h', [27.09516471788937, 32.0838920182094, 20.792876238483977, 16.58935952405799, 16.0128014508199, 14.488807525194767, 16.770429173946148, 21.638446642355625])",False
17785748773.103622,"array('h', [27.506658008092955, 31.641538343921308, 18.10774479918952, 16.459570377183283, 16.00082135933751, 14.67381347985146, 17.20836406577269, 21.53239638556519])",False
17805716329.98445,"array('h', [26.952017195002032, 30.539087441212274, 16.15833496336175, 15.899266831481608, 15.239804869409449, 14.239161238944838, 17.00168470705657, 19.50242565722134])",False
17825683886.865284,"array('h', [26.026315039257238, 28.35469945325309, 14.992597931819764, 16.151831261011928, 14.880161548909276, 13.223172633707735, 16.84558803973959, 19.421970018333152])",False
17845651443.746117,"array('h', [25.697588272906252, 28.479217072598743, 15.679451441453635, 15.657445935152886, 14.375416056776029, 12.3538347293189, 16.3732907857861, 19.564535564680764])",False
17865619000.62694,"array('h', [24.347191140452026, 27.62635883938404, 16.264280353761617, 14.97543089143352, 12.713990229154126, 11.60608372574585, 15.581615362084905, 18.98794101023009])",False
17885586557.50777,"array('h', [22.611185760332013, 26.13372829671963, 16.380807431368478, 14.630118440419553, 11.421655970765606, 10.37587118359499, 13.752673841622453, 18.13175309694807])",False
17905554114.3886,"array('h', [20.66499764846034, 26.14449826504222, 17.426379378944127, 13.419758991189662, 9.549227995221347, 9.121922310331168, 11.751993716017683, 16.199652866649654])",False
17925521671.26943,"array('h', [18.638462552094637, 25.901338623033627, 17.87787741147959, 13.322887191023733, 8.92847235101397, 8.213416895168132, 10.426325920619009, 15.250162885628894])",False
17945489228.15026,"array('h', [16.689871263299455, 27.892415262913243, 19.967569917269035, 13.263587583776895, 8.209335291510707, 6.796019050955498, 8.765001668257673, 14.251033147822474])",False
17965456785.03109,"array('h', [14.231047095698163, 27.152674071184407, 20.21574162312958, 12.735913586823324, 7.314271746458454, 5.619067669029276, 8.46341052397553, 14.196194128020098])",False
17985424341.91192,"array('h', [12.577805343431482, 26.948782612005235, 20.323028868179982, 12.601706638278092, 7.322978571763932, 5.7629348665436835, 8.066235796492364, 11.956351648830898])",False
18005391898.792747,"array('h', [10.946723859505216, 23.686166703409217, 19.691429533586987, 12.341667633893804, 6.752220564254394, 4.86015011008237, 7.239769620415621, 9.913585057247651])",False
18025359455.673576,"array('h', [9.311965176584442, 20.68862850136309, 18.771175461762052, 11.241507534023198, 6.077022066250648, 4.484220484997714, 6.884192132868931, 9.329829186155479])",False
18045327012.554405,"array('h', [7.868261381173906, 19.481734580254816, 19.436990766634494, 11.846767626922635, 5.896472622734586, 4.30743729337333, 6.391980429454582, 8.458228008291378])",False
18065294569.435238,"array('h', [7.505495707296767, 20.493891310798276, 21.463601553774527, 13.881569493143084, 6.277912025414025, 4.650712722478261, 6.549145030999036, 8.263245320752437])",False
18085262126.316063,"array('h', [7.6931506874739055, 20.40668936880954, 22.350059993374483, 14.187368525931117, 5.8893605446665775, 4.243806787840018, 6.03592783647355, 7.467502936424196])",False
18105229683.19689,"array('h', [7.369090302340806, 19.53567898995073, 23.197858377275832, 15.950963073521056, 6.316725897519395, 4.3530514059339405, 5.937735288949882, 6.968157357534515])",False
18125197240.07772,"array('h', [7.198910785988063, 19.629415064740357, 23.36557043710876, 16.53365702499302, 6.233597960929965, 4.042370373475915, 5.504687366902217, 6.381637162976249])",False
18145164796.95855,"array('h', [6.751592741300099, 19.482362748042934, 24.489742643407638, 17.786903833290065, 6.6006805579063395, 4.00744373203564, 4.9979828726802, 5.724008031998003])",False
18165132353.83938,"array('h', [6.630136959552895, 20.070488974675673, 25.194935953748136, 18.458224765579466, 6.923479879881449, 4.198844095532996, 4.9144171426134955, 5.237227223210198])",False
18185099910.720207,"array('h', [6.265163381550572, 17.94642034434215, 24.58447135334612, 19.37173722549816, 7.133363884616984, 4.158928161515889, 4.80918048627831, 5.290855946533032])",False
18205067467.60104,"array('h', [5.9728424122904835, 15.603159241920315, 22.95393020650952, 20.38353505503984, 7.360659680275166, 3.984337009187213, 4.405134272034725, 4.7541821612161215])",False
18225035024.481865,"array('h', [5.801837886662754, 14.721288163920013, 22.393996055945184, 21.331171463639727, 7.3648565043076015, 3.858005887665811, 3.912349706963563, 4.353071972332249])",False
18245002581.362694,"array('h', [5.943662033411083, 14.085116763497965, 22.37048734560558, 22.190447163298597, 7.702243279711261, 3.84100722134861, 3.5914631836481563, 4.340578458779878])",False
18264970138.243523,"array('h', [5.852692109404593, 14.314217421898677, 22.36074239064496, 22.96434876404465, 7.99612915692122, 3.8797301759868943, 3.229710210910351, 3.947589431204774])",False
18284937695.12435,"array('h', [5.800625978314329, 13.95129208914839, 22.169791318121923, 23.320335400291334, 8.035688390620294, 3.8183889543583223, 3.242607240591276, 3.9590438876170415])",False
18304905252.00518,"array('h', [5.289854880461917, 13.00732918672002, 21.14370550465359, 20.86760116938091, 7.38136230948913, 3.5301777429590144, 3.070587150124549, 3.772627681001625])",False
18324872808.88601,"array('h', [4.594892183262631, 11.369183843238485, 18.76829460488949, 18.695925919123212, 6.580457335762034, 3.3046867281267533, 2.94738588461867, 3.6334782587364693])",False
18344840365.76684,"array('h', [4.211709582601359, 10.52513010487212, 16.931618765795744, 17.793528577259863, 6.409111188969579, 3.3060752340047137, 2.923042863476637, 3.5916488387490153])",False
18364807922.647667,"array('h', [4.023217970206533, 9.946740918515815, 15.096454159097396, 15.980127476130647, 5.826273882688966, 3.0287290764084753, 2.8529521984930653, 3.5103980297080626])",False
18384775479.528496,"array('h', [3.5341898403136844, 9.380677917099055, 13.50327759896142, 14.824036385267325, 5.544200525102854, 2.971128700555381, 2.700481664092862, 3.1744775468545545])",False
18404743036.409325,"array('h', [2.7135613434989967, 6.6240516333561255, 10.894022026542443, 12.909319330672309, 4.742157357791509, 2.4840157274155583, 2.422485270139243, 2.7603474161027695])",False
18424710593.290157,"array('h', [2.5649533102010666, 5.895787837781698, 9.949319339925015, 12.323761978446763, 4.377333773648458, 2.302807420614133, 2.3586520160948434, 2.8525947238375005])",False
18444678150.170982,"array('h', [2.4682968809285843, 5.349440741121624, 8.77092104569666, 10.79904461616215, 3.838491102216804, 2.113580547093796, 2.306100965671065, 2.733907391497832])",False
18464645707.05181,"array('h', [2.535065273117167, 5.557956652421498, 8.521791181911055, 9.452725060897537, 3.644861510354674, 2.118259686342752, 2.4006923937458344, 2.785674312792188])",False
18484613263.93264,"array('h', [2.3295029861036642, 5.233030079941791, 7.791462164251171, 8.000514565952388, 3.203334587797947, 1.875597439788133, 2.29073909480321, 2.6648002251696497])",False
18504580820.813477,"array('h', [1.988772427985491, 4.495024408107532, 6.808709838973678, 6.954714424054718, 2.7760317242026145, 1.6654090491917772, 2.1232290253763924, 2.521703421320041])",False
18524548377.6943,"array('h', [1.8176274254382654, 3.793686010165844, 6.41560768772521, 5.952427548881114, 2.4947614449449738, 1.4899630261179477, 1.9959887186338812, 2.5039105778246746])",False
18544515934.57513,"array('h', [1.6732722674488745, 3.7350649294596385, 5.959035579186543, 5.864057403398642, 2.551690864824711, 1.496169749079429, 1.8371670412831604, 2.4850345559041145])",False
18564483491.45596,"array('h', [1.55906529223013, 3.2447943949097513, 4.9054028801456315, 5.155606351157199, 2.3623334380730436, 1.3386627629768748, 1.6711893831904105, 2.490884013193769])",False
18584451048.33679,"array('h', [1.579480460125942, 3.1702524598118353, 5.11495647935576, 5.0386207269609375, 2.3835027243668456, 1.2635155822792665, 1.7085930819953996, 2.599693883937851])",False
18604418605.217617,"array('h', [1.5140300963051214, 3.02768542352836, 4.469073728413201, 4.507883067704406, 2.275436421866503, 1.214095024249523, 1.7438314986404344, 2.5775493853654337])",False
18624386162.09845,"array('h', [1.46091488506518, 2.9167541058813997, 4.433728327807225, 4.01800207028187, 2.109970132998256, 1.193791214309831, 1.6893795752306104, 2.5404823357989588])",False
18644353718.979275,"array('h', [1.4638479001372153, 2.836525327597252, 4.005637619777553, 3.6364138465460356, 2.0262050220543912, 1.103958794549882, 1.5831148483149478, 2.424018920831669])",False
