time,.data
1969/12/31/18:00:38.167,(-4 -2 0 2 3 0 -3 -4)
1969/12/31/18:00:38.167,(1 1 0 -1 -3 1 1 1)
1969/12/31/18:00:38.169,(0 2 2 3 0 2 1 2)
1969/12/31/18:00:38.169,(0 1 0 2 1 0 1 3)
1969/12/31/18:00:38.182,(-1 -2 -2 -3 -2 -1 -2 0)
1969/12/31/18:00:38.182,(1 2 1 1 2 0 0 2)
1969/12/31/18:00:38.184,(-4 -3 -6 -5 -7 -3 -3 -4)
1969/12/31/18:00:38.184,(0 -1 -2 1 2 1 1 -2)
1969/12/31/18:00:38.197,(-1 1 2 -1 -3 -3 -3 -2)
1969/12/31/18:00:38.197,(-1 -2 -1 0 2 0 0 0)
1969/12/31/18:00:38.199,(-3 -2 0 1 -2 -1 -3 -1)
1969/12/31/18:00:38.199,(-1 -1 0 -4 -2 -1 -1 0)
1969/12/31/18:00:38.220,(-2 -1 -1 -2 -2 -2 -3 -2)
1969/12/31/18:00:38.220,(0 -1 -2 -1 1 1 0 -1)
1969/12/31/18:00:38.221,(0 -3 -7 -10 -5 -3 0 -1)
1969/12/31/18:00:38.221,(0 0 4 5 3 2 1 4)
1969/12/31/18:00:38.233,(0 3 3 4 3 1 1 2)
1969/12/31/18:00:38.233,(0 1 3 -1 0 1 -1 0)
1969/12/31/18:00:38.242,(2 1 1 4 0 0 0 -2)
1969/12/31/18:00:38.242,(-3 -4 -4 -5 -1 -2 -2 -4)
1969/12/31/18:00:38.258,(-2 -5 -9 -8 -3 -1 0 -1)
1969/12/31/18:00:38.258,(-1 2 5 4 0 -1 -2 0)
1969/12/31/18:00:38.263,(-2 -2 -5 -8 -6 -3 -1 -1)
1969/12/31/18:00:38.263,(-1 0 4 0 -12 -2 0 1)
1969/12/31/18:00:38.280,(0 3 5 11 23 3 0 -1)
1969/12/31/18:00:38.280,(-1 -3 -8 -8 -2 -1 -2 -2)
1969/12/31/18:00:38.286,(-5 -2 -2 -6 -7 -7 -6 -3)
1969/12/31/18:00:38.286,(-2 -3 -6 -7 -7 -3 6 -1)
1969/12/31/18:00:38.302,(0 0 2 9 0 2 -8 1)
1969/12/31/18:00:38.302,(-1 -3 -7 -13 -8 -8 1 -1)
1969/12/31/18:00:38.303,(-2 0 -1 7 -4 -7 -8 1)
1969/12/31/18:00:38.303,(-2 -5 -3 -2 6 -1 -1 -4)
1969/12/31/18:00:38.317,(-1 -2 -11 -12 -6 12 2 -3)
1969/12/31/18:00:38.317,(1 1 1 -18 -31 -7 12 3)
1969/12/31/18:00:38.319,(1 2 21 30 42 18 0 -3)
1969/12/31/18:00:38.319,(-2 -1 -5 3 -12 -10 -14 -3)
1969/12/31/18:00:38.340,(-6 -6 -18 -28 -24 -23 -14 -9)
1969/12/31/18:00:38.340,(2 5 25 39 22 23 31 9)
1969/12/31/18:00:38.346,(-4 -10 -18 -38 -3 7 8 -4)
1969/12/31/18:00:38.346,(4 10 5 38 59 13 -23 -2)
1969/12/31/18:00:38.362,(4 3 20 7 -7 -12 3 6)
1969/12/31/18:00:38.362,(-3 0 -14 14 -1 -18 -19 -6)
1969/12/31/18:00:38.364,(0 -1 16 -1 -15 -2 12 4)
1969/12/31/18:00:38.364,(-8 -15 -31 -57 -12 3 0 -9)
1969/12/31/18:00:38.385,(-3 -3 -35 3 -9 -5 -20 -7)
1969/12/31/18:00:38.385,(4 17 75 46 14 -4 2 -7)
1969/12/31/18:00:38.386,(-1 -3 -24 -7 -15 -20 7 12)
1969/12/31/18:00:38.386,(-4 -6 0 -42 -21 17 -13 -5)
1969/12/31/18:00:38.407,(0 -1 -43 -29 -2 10 31 9)
1969/12/31/18:00:38.407,(-1 2 38 29 -9 -2 -41 -8)
1969/12/31/18:00:38.409,(-7 0 6 6 29 -4 -37 -21)
1969/12/31/18:00:38.409,(6 8 24 32 -5 -19 18 7)
1969/12/31/18:00:38.413,(-2 -6 0 -6 -13 3 -12 -2)
1969/12/31/18:00:38.413,(-3 -11 -33 -21 4 -4 4 2)
1969/12/31/18:00:38.422,(-4 -12 -23 -34 -31 -5 10 -2)
1969/12/31/18:00:38.422,(-5 -10 -36 -36 -15 -10 -4 -4)
1969/12/31/18:00:38.437,(4 10 39 25 11 19 9 -2)
1969/12/31/18:00:38.437,(0 3 1 16 28 5 9 0)
1969/12/31/18:00:38.439,(0 0 2 10 11 -23 -6 9)
1969/12/31/18:00:38.439,(-1 -4 -9 6 0 24 19 1)
1969/12/31/18:00:38.467,(-6 -8 -15 -54 -49 -27 -2 0)
1969/12/31/18:00:38.467,(-1 3 5 1 6 -7 -10 -3)
1969/12/31/18:00:38.469,(4 11 15 28 2 14 1 -1)
1969/12/31/18:00:38.469,(2 6 5 15 2 -1 -7 -6)
1969/12/31/18:00:38.482,(-2 -4 2 -9 -7 -10 3 0)
1969/12/31/18:00:38.482,(-6 -11 -30 -40 -16 6 1 1)
1969/12/31/18:00:38.484,(0 -1 -7 -5 -2 5 5 -3)
1969/12/31/18:00:38.484,(-3 -6 -1 -8 -10 -11 4 3)
1969/12/31/18:00:38.497,(-2 -5 -10 1 11 6 -5 -4)
1969/12/31/18:00:38.497,(8 14 31 47 21 5 1 3)
1969/12/31/18:00:38.499,(0 2 16 4 -4 8 2 1)
1969/12/31/18:00:38.499,(0 3 5 7 -2 -7 -2 4)
1969/12/31/18:00:38.520,(-2 -8 -10 -23 2 -3 -4 -1)
1969/12/31/18:00:38.520,(-4 -7 -26 -4 -1 2 0 -4)
1969/12/31/18:00:38.521,(1 0 -1 2 -7 -1 4 0)
1969/12/31/18:00:38.521,(-1 7 8 -12 -10 -11 -15 -14)
1969/12/31/18:00:38.533,(-1 2 -4 19 21 5 4 1)
1969/12/31/18:00:38.533,(-2 -4 -3 -24 -16 -2 1 0)
1969/12/31/18:00:38.542,(0 0 -4 -4 0 4 -3 -1)
1969/12/31/18:00:38.542,(0 -1 1 12 5 -3 3 6)
1969/12/31/18:00:38.557,(0 4 9 13 10 4 0 2)
1969/12/31/18:00:38.557,(-2 -3 -22 -23 -10 -2 -4 -4)
1969/12/31/18:00:38.558,(-3 -4 0 1 -3 -2 -1 0)
1969/12/31/18:00:38.558,(1 1 6 8 6 2 2 4)
1969/12/31/18:00:38.579,(0 2 14 15 3 -3 -1 -3)
1969/12/31/18:00:38.579,(-3 -7 -13 -15 -4 3 2 3)
1969/12/31/18:00:38.581,(-1 -2 -4 2 -1 0 0 -2)
1969/12/31/18:00:38.581,(0 1 2 6 0 -1 2 1)
1969/12/31/18:00:38.593,(0 1 12 13 3 1 -1 -1)
1969/12/31/18:00:38.593,(-3 -9 -18 -10 -4 -2 -2 -2)
1969/12/31/18:00:38.602,(-5 -21 -23 -9 -4 -1 -2 -1)
1969/12/31/18:00:38.602,(3 28 29 13 3 0 1 2)
1969/12/31/18:00:38.617,(5 33 47 22 9 2 1 2)
1969/12/31/18:00:38.617,(-6 -6 -9 -6 2 2 1 -1)
1969/12/31/18:00:38.623,(-5 -26 -14 -6 -5 -1 -3 -10)
1969/12/31/18:00:38.623,(-11 -8 -18 -7 -4 -2 0 4)
1969/12/31/18:00:38.640,(4 -4 -8 -3 0 1 -2 3)
1969/12/31/18:00:38.640,(1 27 15 -1 -1 -1 -1 1)
1969/12/31/18:00:38.641,(-1 9 10 1 0 0 -2 -1)
1969/12/31/18:00:38.641,(-4 -17 -6 1 2 -3 -1 -6)
1969/12/31/18:00:38.662,(1 -41 -28 -5 -1 -1 -1 -9)
1969/12/31/18:00:38.662,(20 40 20 0 -3 0 1 15)
1969/12/31/18:00:38.664,(-53 -18 -6 -3 -5 -3 -6 -16)
1969/12/31/18:00:38.664,(0 7 6 5 2 1 4 11)
1969/12/31/18:00:38.678,(13 7 -2 -1 -2 -6 -7 -3)
1969/12/31/18:00:38.678,(2 -24 -19 -11 -4 3 1 -16)
1969/12/31/18:00:38.679,(47 34 12 7 4 2 9 27)
1969/12/31/18:00:38.679,(-26 -20 -15 -11 -7 -6 -3 -3)
1969/12/31/18:00:38.699,(-34 -6 7 5 4 0 -9 -28)
1969/12/31/18:00:38.699,(25 -5 -12 -9 -4 -2 9 39)
1969/12/31/18:00:38.701,(-4 9 5 0 0 1 1 -5)
1969/12/31/18:00:38.701,(16 3 6 3 1 2 2 3)
1969/12/31/18:00:38.713,(10 1 -3 -2 -2 -1 3 7)
1969/12/31/18:00:38.713,(-2 3 -3 -2 -1 -2 -8 -28)
1969/12/31/18:00:38.722,(30 35 18 12 8 6 12 42)
1969/12/31/18:00:38.722,(-47 -50 -20 -11 -10 -11 -19 -31)
1969/12/31/18:00:38.736,(3 2 8 7 6 8 10 21)
1969/12/31/18:00:38.736,(-46 -12 -7 -5 -4 -7 -12 -35)
1969/12/31/18:00:38.743,(35 -5 -7 -6 -4 -9 -2 32)
1969/12/31/18:00:38.743,(54 35 6 0 3 15 8 5)
1969/12/31/18:00:38.760,(-67 -34 -4 -3 -12 -51 -25 -29)
1969/12/31/18:00:38.760,(-14 -6 0 4 7 15 19 -27)
1969/12/31/18:00:38.761,(3 -11 2 4 5 10 20 28)
1969/12/31/18:00:38.761,(-1 24 4 -1 -1 5 0 -2)
1969/12/31/18:00:38.773,(31 12 2 2 5 15 -3 19)
1969/12/31/18:00:38.773,(0 -12 -5 -3 -1 -14 -16 -1)
1969/12/31/18:00:38.782,(-38 0 -3 -4 -5 -6 -7 -49)
1969/12/31/18:00:38.782,(9 -19 5 10 7 -6 7 -11)
1969/12/31/18:00:38.796,(54 25 6 1 2 33 27 52)
1969/12/31/18:00:38.796,(-33 -32 -16 -6 -7 -7 -19 -12)
1969/12/31/18:00:38.803,(23 20 6 2 1 8 8 20)
1969/12/31/18:00:38.803,(12 12 3 2 6 18 -13 -19)
1969/12/31/18:00:38.820,(-103 -30 -6 -3 -8 -22 -13 -52)
1969/12/31/18:00:38.820,(104 23 -10 -12 -9 -10 -4 38)
1969/12/31/18:00:38.821,(-51 -12 -5 -8 -10 -17 -17 -54)
1969/12/31/18:00:38.821,(-2 22 8 6 2 -3 -1 15)
1969/12/31/18:00:38.842,(-35 -40 -12 -1 -1 9 13 -10)
1969/12/31/18:00:38.842,(58 6 -9 -6 -7 -5 4 46)
1969/12/31/18:00:38.844,(19 26 10 4 4 10 1 14)
1969/12/31/18:00:38.844,(-66 -23 -7 -3 -8 -17 -23 -58)
1969/12/31/18:00:38.856,(63 47 10 -1 0 5 10 9)
1969/12/31/18:00:38.856,(-33 -29 0 9 7 -15 17 43)
1969/12/31/18:00:38.863,(8 0 -7 -9 -3 26 -25 -12)
1969/12/31/18:00:38.863,(21 12 9 4 1 -5 24 16)
1969/12/31/18:00:38.880,(39 21 2 3 5 10 3 57)
1969/12/31/18:00:38.880,(3 -13 -3 -3 -1 8 11 16)
1969/12/31/18:00:38.881,(-8 2 6 7 2 -1 27 35)
1969/12/31/18:00:38.881,(38 -11 -10 -4 -3 -6 -21 -34)
1969/12/31/18:00:38.902,(-12 14 11 4 1 5 -7 -47)
1969/12/31/18:00:38.902,(-16 -3 -1 -1 -1 -3 -3 -10)
1969/12/31/18:00:38.904,(-50 -27 -4 1 2 -4 -3 -33)
1969/12/31/18:00:38.904,(-29 1 5 5 4 10 7 32)
1969/12/31/18:00:38.916,(74 17 -15 -12 -12 -29 -5 58)
1969/12/31/18:00:38.916,(-43 -29 -5 -5 -2 7 -3 -47)
1969/12/31/18:00:38.925,(54 26 9 3 0 -15 -12 7)
1969/12/31/18:00:38.925,(-76 -46 -17 -7 -3 3 -15 -39)
1969/12/31/18:00:38.940,(-67 -28 -11 -10 -7 0 -7 -76)
1969/12/31/18:00:38.940,(36 23 -1 -3 -5 0 22 77)
1969/12/31/18:00:38.941,(-26 -10 -4 -1 1 -1 0 30)
1969/12/31/18:00:38.941,(46 19 1 -1 -2 2 -3 -3)
1969/12/31/18:00:38.962,(1 0 6 5 1 -10 2 10)
1969/12/31/18:00:38.962,(4 -1 -2 0 7 25 15 32)
1969/12/31/18:00:38.964,(-7 -6 -4 -6 -6 -11 -7 -23)
1969/12/31/18:00:38.964,(-29 -5 -2 4 8 20 16 4)
1969/12/31/18:00:38.976,(37 0 2 3 -1 -14 8 23)
1969/12/31/18:00:38.976,(33 37 17 10 0 -29 -27 -16)
1969/12/31/18:00:38.985,(-58 -46 -32 -21 -15 4 -25 -39)
1969/12/31/18:00:38.985,(-12 -8 -4 -2 2 12 27 22)
1969/12/31/18:00:39.000,(29 25 7 3 -1 -17 8 19)
1969/12/31/18:00:39.000,(-70 -42 -1 4 5 -2 -23 -31)
1969/12/31/18:00:39.001,(37 37 11 8 6 -1 -11 -13)
1969/12/31/18:00:39.001,(32 1 -6 -13 -17 -20 -8 -73)
1969/12/31/18:00:39.022,(-86 -11 2 3 6 15 -8 -64)
1969/12/31/18:00:39.022,(-24 1 -6 -9 -11 -11 -23 -31)
1969/12/31/18:00:39.023,(-14 -21 -3 0 1 -3 2 3)
1969/12/31/18:00:39.023,(30 26 9 4 5 0 22 54)
1969/12/31/18:00:39.036,(-18 -10 5 8 5 -5 -27 4)
1969/12/31/18:00:39.036,(-29 12 -4 -6 -6 -10 -23 -89)
1969/12/31/18:00:39.045,(30 -3 -2 0 0 -3 15 21)
1969/12/31/18:00:39.045,(23 13 6 4 3 22 -4 50)
1969/12/31/18:00:39.060,(-72 -21 -2 -3 -7 -26 -4 -64)
1969/12/31/18:00:39.060,(53 45 6 -3 -1 5 -23 -11)
1969/12/31/18:00:39.061,(11 -57 -20 -8 -6 -11 -9 49)
1969/12/31/18:00:39.061,(17 37 18 9 5 -8 -25 -21)
1969/12/31/18:00:39.082,(-9 -45 -26 -17 -12 -1 4 42)
1969/12/31/18:00:39.082,(-7 8 -1 -3 -2 19 32 56)
1969/12/31/18:00:39.084,(-35 -21 0 3 -4 -11 4 -25)
1969/12/31/18:00:39.084,(7 15 -3 -4 -5 -13 -16 3)
1969/12/31/18:00:39.096,(22 -16 -1 1 7 31 45 54)
1969/12/31/18:00:39.096,(-3 8 -3 -5 -5 -13 0 31)
1969/12/31/18:00:39.105,(-50 -18 -4 0 6 23 7 -13)
1969/12/31/18:00:39.105,(34 -25 -11 -4 -8 -18 16 90)
1969/12/31/18:00:39.120,(46 66 21 10 7 7 -23 -40)
1969/12/31/18:00:39.120,(-39 -45 -9 -6 -5 -2 0 -42)
1969/12/31/18:00:39.122,(45 42 14 10 4 -16 -23 -9)
1969/12/31/18:00:39.122,(1 -18 -7 -5 -4 9 17 25)
1969/12/31/18:00:39.143,(6 7 7 6 7 25 6 -5)
1969/12/31/18:00:39.143,(-15 -18 -15 -6 -5 -24 15 30)
1969/12/31/18:00:39.144,(22 8 7 -1 0 19 0 -16)
1969/12/31/18:00:39.144,(-36 -39 -14 -4 -8 -67 -6 41)
1969/12/31/18:00:39.156,(60 46 4 -3 -4 38 45 28)
1969/12/31/18:00:39.156,(-54 -16 3 5 6 15 27 -10)
1969/12/31/18:00:39.171,(26 2 -5 -4 -8 -18 -22 -43)
1969/12/31/18:00:39.171,(-9 -1 1 0 4 23 8 -7)
1969/12/31/18:00:39.180,(-55 -19 -5 -4 -3 -41 -22 -20)
1969/12/31/18:00:39.180,(67 40 13 12 4 16 -1 7)
1969/12/31/18:00:39.181,(-23 -12 -9 -10 -1 -5 22 -1)
1969/12/31/18:00:39.181,(-23 -12 -4 -8 -18 7 -32 -47)
1969/12/31/18:00:39.202,(12 1 -6 -14 -24 -48 -15 1)
1969/12/31/18:00:39.202,(-35 -20 0 13 29 52 8 -32)
1969/12/31/18:00:39.204,(22 32 13 18 18 18 1 7)
1969/12/31/18:00:39.204,(-24 -9 0 3 11 14 13 -6)
1969/12/31/18:00:39.216,(29 -9 -16 -12 -10 32 16 44)
1969/12/31/18:00:39.216,(-78 -31 -6 -21 -26 -36 -19 -38)
1969/12/31/18:00:39.225,(-1 -5 -9 -9 -37 4 0 -5)
1969/12/31/18:00:39.225,(86 31 7 3 32 16 22 44)
1969/12/31/18:00:39.239,(-49 -28 -7 3 -4 9 -4 -17)
1969/12/31/18:00:39.239,(5 4 6 0 -1 -36 -23 -4)
1969/12/31/18:00:39.241,(-32 -4 2 6 -7 -7 -10 -22)
1969/12/31/18:00:39.241,(-14 6 3 10 15 13 -1 -5)
1969/12/31/18:00:39.262,(40 39 11 4 18 -11 -18 -2)
1969/12/31/18:00:39.262,(4 -55 -23 -16 -2 18 1 17)
1969/12/31/18:00:39.264,(15 3 0 -8 -20 -37 33 39)
1969/12/31/18:00:39.264,(15 0 -5 -4 -14 -43 -31 -2)
1969/12/31/18:00:39.276,(16 14 13 22 18 0 -2 6)
1969/12/31/18:00:39.276,(21 12 2 3 4 29 -5 -8)
1969/12/31/18:00:39.285,(3 11 -1 -5 36 54 46 19)
1969/12/31/18:00:39.285,(44 28 9 -3 -21 -31 -16 -15)
1969/12/31/18:00:39.300,(-30 -40 -6 3 9 89 -21 -32)
1969/12/31/18:00:39.300,(10 30 10 8 -13 -45 27 -3)
1969/12/31/18:00:39.301,(1 -13 -8 -5 10 -12 -18 -19)
1969/12/31/18:00:39.301,(-24 -7 2 1 -16 -1 -2 -8)
1969/12/31/18:00:39.322,(-37 25 5 -8 -12 -33 3 12)
1969/12/31/18:00:39.322,(21 -21 -4 7 22 35 6 4)
1969/12/31/18:00:39.324,(-9 -6 -9 -5 11 -13 -34 -40)
1969/12/31/18:00:39.324,(-31 -13 -7 -8 3 21 18 17)
1969/12/31/18:00:39.336,(33 12 -6 -4 2 -3 0 11)
1969/12/31/18:00:39.336,(39 8 -13 -4 -9 -7 6 25)
1969/12/31/18:00:39.345,(-32 32 54 28 17 -19 -10 -4)
1969/12/31/18:00:39.345,(-52 -60 -54 -32 -28 -14 -12 -32)
1969/12/31/18:00:39.367,(-7 10 27 4 -6 -19 4 -15)
1969/12/31/18:00:39.367,(40 -8 -14 2 6 2 8 24)
1969/12/31/18:00:39.369,(-38 -59 -93 -31 -43 -51 -29 -16)
1969/12/31/18:00:39.369,(18 114 113 69 22 13 15 -9)
1969/12/31/18:00:39.383,(22 -25 -42 0 9 21 10 19)
1969/12/31/18:00:39.383,(-49 15 2 14 26 15 -8 -35)
1969/12/31/18:00:39.384,(1 -52 -37 -34 -25 19 19 27)
1969/12/31/18:00:39.384,(-22 -52 -44 -26 -23 -29 -14 -52)
1969/12/31/18:00:39.405,(-25 -5 -9 -10 -9 -36 -16 -15)
1969/12/31/18:00:39.405,(48 7 9 17 20 7 3 29)
1969/12/31/18:00:39.406,(69 11 20 -9 -3 23 21 69)
1969/12/31/18:00:39.406,(-12 8 -8 -14 -11 0 -1 9)
1969/12/31/18:00:39.419,(4 8 12 2 -10 -3 -9 -24)
1969/12/31/18:00:39.420,(-6 -78 -70 -24 15 21 -12 -15)
1969/12/31/18:00:39.421,(-27 44 20 17 2 -24 -23 -41)
1969/12/31/18:00:39.421,(1 6 20 -2 17 49 32 8)
1969/12/31/18:00:39.442,(62 22 16 4 -15 -16 22 53)
1969/12/31/18:00:39.442,(-12 54 52 14 -19 -29 -16 -37)
1969/12/31/18:00:39.444,(10 -58 -71 -19 4 13 -2 -4)
1969/12/31/18:00:39.444,(-20 76 68 31 19 -1 -12 -13)
1969/12/31/18:00:39.456,(16 9 15 10 8 5 -1 11)
1969/12/31/18:00:39.456,(-14 0 -11 -5 -3 -1 0 36)
1969/12/31/18:00:39.465,(86 26 19 8 -15 -15 -5 21)
1969/12/31/18:00:39.465,(-8 -67 -64 -20 0 10 24 -5)
1969/12/31/18:00:39.480,(-1 -50 -39 -14 -1 3 -2 17)
1969/12/31/18:00:39.480,(-16 5 14 0 -11 6 3 4)
1969/12/31/18:00:39.481,(-35 32 30 0 7 -56 -34 -49)
1969/12/31/18:00:39.481,(17 -124 -110 -23 5 24 -11 35)
1969/12/31/18:00:39.502,(3 92 34 4 -10 15 24 -24)
1969/12/31/18:00:39.502,(-38 33 11 5 -3 -19 11 1)
1969/12/31/18:00:39.504,(-21 -30 3 8 -5 56 23 18)
1969/12/31/18:00:39.504,(-12 -63 -41 -16 -4 -40 -28 -30)
1969/12/31/18:00:39.516,(-15 -69 -40 -9 -13 -17 -13 -5)
1969/12/31/18:00:39.516,(-39 -81 -89 -32 -12 -22 -34 -53)
1969/12/31/18:00:39.525,(51 127 106 48 21 5 14 34)
1969/12/31/18:00:39.525,(-23 -41 -16 2 1 21 7 -9)
1969/12/31/18:00:39.539,(-40 -84 -79 -15 -1 -7 -16 -1)
1969/12/31/18:00:39.539,(7 27 49 15 -10 -4 1 4)
1969/12/31/18:00:39.546,(-84 -37 -37 -6 -13 -36 -17 -84)
1969/12/31/18:00:39.546,(-52 6 9 2 13 26 -17 -34)
1969/12/31/18:00:39.562,(10 0 22 8 22 19 21 -3)
1969/12/31/18:00:39.562,(-59 -26 -21 -35 -44 -33 -20 -33)
1969/12/31/18:00:39.564,(-12 -14 -9 3 31 13 4 -3)
1969/12/31/18:00:39.564,(25 47 24 8 -39 -18 1 14)
1969/12/31/18:00:39.585,(-47 -116 -95 -39 -10 -29 -20 -30)
1969/12/31/18:00:39.585,(60 99 41 10 -3 4 23 23)
1969/12/31/18:00:39.586,(23 80 81 40 43 58 -9 12)
1969/12/31/18:00:39.586,(11 74 12 -2 -13 -16 -7 8)
1969/12/31/18:00:39.600,(-32 -31 37 28 11 -15 -28 -23)
1969/12/31/18:00:39.600,(-4 -58 -60 -15 -4 13 27 16)
1969/12/31/18:00:39.601,(10 -6 -8 -18 -30 -17 7 -2)
1969/12/31/18:00:39.601,(2 -97 -54 -14 7 -5 -6 27)
1969/12/31/18:00:39.622,(-33 0 -10 -11 -14 0 -13 -25)
1969/12/31/18:00:39.622,(42 61 48 24 14 -19 -9 14)
1969/12/31/18:00:39.624,(-36 38 19 3 4 12 17 -9)
1969/12/31/18:00:39.624,(24 15 2 7 -4 -40 11 23)
1969/12/31/18:00:39.636,(-23 -29 -23 -16 6 22 -12 -24)
1969/12/31/18:00:39.636,(25 -70 -36 -10 3 19 -5 5)
1969/12/31/18:00:39.645,(4 -12 -15 -11 -5 -17 -3 15)
1969/12/31/18:00:39.645,(21 94 97 30 13 2 37 47)
1969/12/31/18:00:39.660,(25 60 51 6 -31 -6 8 15)
1969/12/31/18:00:39.660,(45 30 21 20 34 68 44 49)
1969/12/31/18:00:39.661,(-14 -43 -46 -17 -9 -12 -18 -1)
1969/12/31/18:00:39.661,(-36 -21 -13 -11 -10 -34 -36 -58)
1969/12/31/18:00:39.682,(56 47 22 11 0 -20 -8 1)
1969/12/31/18:00:39.682,(-65 -95 -51 -19 -7 -9 -2 -18)
1969/12/31/18:00:39.684,(-5 -95 -109 -42 -19 -8 15 20)
1969/12/31/18:00:39.684,(59 105 99 47 18 38 7 2)
1969/12/31/18:00:39.696,(-12 -28 -26 -5 13 14 12 14)
1969/12/31/18:00:39.696,(14 31 15 7 -10 -38 -28 -19)
1969/12/31/18:00:39.705,(28 -22 -18 1 7 13 15 32)
1969/12/31/18:00:39.705,(-22 -12 -20 -18 1 21 3 18)
1969/12/31/18:00:39.719,(27 41 29 14 15 12 27 18)
1969/12/31/18:00:39.719,(-19 -37 -24 -7 -5 -19 -27 -42)
1969/12/31/18:00:39.721,(5 -10 32 9 -10 -12 -1 -2)
1969/12/31/18:00:39.721,(64 -13 -37 -19 -9 -15 -4 15)
1969/12/31/18:00:39.743,(34 -36 -30 -11 12 27 21 30)
1969/12/31/18:00:39.743,(-72 57 65 31 21 -16 -14 -36)
1969/12/31/18:00:39.745,(-11 -15 15 -8 -17 25 -7 -4)
1969/12/31/18:00:39.745,(9 45 -17 -8 -6 14 7 -11)
1969/12/31/18:00:39.765,(-25 -35 -26 -2 4 -33 -34 -49)
1969/12/31/18:00:39.765,(42 32 28 1 3 -4 -3 7)
1969/12/31/18:00:39.766,(0 17 -34 3 11 13 -3 -13)
1969/12/31/18:00:39.766,(-58 -57 13 -12 -36 -13 7 -4)
1969/12/31/18:00:39.779,(-35 -60 -93 -48 -30 -24 -11 -3)
1969/12/31/18:00:39.779,(6 94 72 21 9 14 12 46)
1969/12/31/18:00:39.786,(-25 -68 -36 -5 -4 -17 -21 -39)
1969/12/31/18:00:39.786,(24 -32 -49 -15 5 6 3 11)
1969/12/31/18:00:39.802,(-16 -24 8 1 -5 -5 -4 6)
1969/12/31/18:00:39.802,(20 -4 -4 -1 -6 10 22 36)
1969/12/31/18:00:39.804,(-21 42 -28 -25 -24 -43 -23 -50)
1969/12/31/18:00:39.804,(15 20 49 52 34 22 -10 -41)
1969/12/31/18:00:39.825,(-34 -9 -15 5 -1 2 -7 -11)
1969/12/31/18:00:39.825,(0 -26 0 -2 -4 5 -12 -14)
1969/12/31/18:00:39.826,(-8 -64 -30 -5 0 -23 -25 -31)
1969/12/31/18:00:39.826,(-21 -46 -45 -24 -3 17 27 32)
1969/12/31/18:00:39.840,(80 127 116 42 4 1 36 65)
1969/12/31/18:00:39.840,(-12 -119 -53 -22 -45 -20 -6 -6)
1969/12/31/18:00:39.841,(7 -19 -31 -8 5 20 9 22)
1969/12/31/18:00:39.841,(-49 -81 -16 3 15 -25 -21 -33)
1969/12/31/18:00:39.862,(59 -53 -69 -15 23 43 19 62)
1969/12/31/18:00:39.862,(3 77 55 26 6 0 -10 -35)
1969/12/31/18:00:39.864,(15 -17 6 10 11 5 31 37)
1969/12/31/18:00:39.864,(-35 -37 -20 -8 -3 4 -16 -34)
1969/12/31/18:00:39.892,(-13 30 48 10 -26 -32 -6 -15)
1969/12/31/18:00:39.892,(4 -53 -67 -27 -3 -3 -16 0)
1969/12/31/18:00:39.894,(-19 -88 -29 2 6 3 -8 -15)
1969/12/31/18:00:39.894,(-14 72 38 13 17 13 9 -19)
1969/12/31/18:00:39.899,(-41 -32 -1 -14 -2 2 -21 -59)
1969/12/31/18:00:39.899,(-11 -57 -47 -12 -1 15 15 11)
1969/12/31/18:00:39.906,(49 101 102 22 3 8 10 47)
1969/12/31/18:00:39.906,(1 -46 -61 -22 -4 -22 -5 -5)
1969/12/31/18:00:39.922,(-48 -70 -71 -28 3 0 -9 -13)
1969/12/31/18:00:39.922,(16 116 65 27 12 6 10 8)
1969/12/31/18:00:39.924,(27 41 31 26 1 25 2 -13)
1969/12/31/18:00:39.924,(-9 -18 2 2 6 22 11 -2)
1969/12/31/18:00:39.952,(42 0 12 16 16 -27 -17 5)
1969/12/31/18:00:39.952,(-55 -128 -94 -37 2 -10 -18 -48)
1969/12/31/18:00:39.954,(9 -96 -116 -58 -15 23 27 64)
1969/12/31/18:00:39.954,(81 117 108 26 -32 -34 -8 18)
1969/12/31/18:00:39.959,(0 -67 -36 1 -19 -55 1 22)
1969/12/31/18:00:39.959,(-45 -3 -6 -13 -20 40 -12 -49)
1969/12/31/18:00:39.966,(1 29 42 25 17 -1 -2 7)
1969/12/31/18:00:39.966,(-6 -59 -51 -12 -8 -11 1 12)
1969/12/31/18:00:39.982,(-39 -26 -19 0 36 33 1 -11)
1969/12/31/18:00:39.982,(32 -28 -34 -19 -27 -42 -4 13)
1969/12/31/18:00:39.984,(-4 -7 -8 1 3 -19 -11 -35)
1969/12/31/18:00:39.984,(-12 67 75 4 -13 33 4 8)
1969/12/31/18:00:40.004,(-10 -24 -26 -6 -36 -34 1 -23)
1969/12/31/18:00:40.004,(19 19 23 24 29 15 2 12)
1969/12/31/18:00:40.006,(-4 2 26 11 17 8 -9 -6)
1969/12/31/18:00:40.006,(-4 -32 -62 -18 -21 -33 0 3)
1969/12/31/18:00:40.018,(20 39 45 9 5 35 -10 1)
1969/12/31/18:00:40.018,(20 -38 -48 -4 9 16 8 54)
1969/12/31/18:00:40.027,(-6 94 24 -15 -17 -11 6 9)
1969/12/31/18:00:40.027,(-1 103 91 45 31 -22 -35 -65)
1969/12/31/18:00:40.049,(-19 -45 -17 7 10 42 17 13)
1969/12/31/18:00:40.049,(-25 -66 -63 -16 -29 -68 -27 -16)
1969/12/31/18:00:40.051,(33 7 20 -6 6 40 14 48)
1969/12/31/18:00:40.051,(-49 -128 -128 -80 -32 -19 -6 -23)
1969/12/31/18:00:40.064,(31 127 126 67 49 45 -6 -17)
1969/12/31/18:00:40.064,(-4 -57 -29 -4 -9 -8 8 -13)
1969/12/31/18:00:40.066,(-57 -99 -86 -1 4 -4 -15 -32)
1969/12/31/18:00:40.066,(15 64 57 11 1 38 6 14)
1969/12/31/18:00:40.078,(-6 -20 -33 -34 -36 -33 3 -5)
1969/12/31/18:00:40.078,(80 33 20 6 23 -4 -11 29)
1969/12/31/18:00:40.087,(-5 50 76 24 -7 -11 10 11)
1969/12/31/18:00:40.087,(-25 -128 -120 -29 18 20 0 -6)
1969/12/31/18:00:40.102,(12 32 -43 -8 -10 -40 -17 -2)
1969/12/31/18:00:40.102,(28 127 123 24 10 51 35 46)
1969/12/31/18:00:40.104,(-36 -128 -128 -42 -10 -14 -18 -24)
1969/12/31/18:00:40.104,(21 122 53 20 -7 -25 -14 2)
1969/12/31/18:00:40.124,(12 -6 25 9 16 27 13 10)
1969/12/31/18:00:40.124,(-15 -55 -75 -21 -29 -15 15 1)
1969/12/31/18:00:40.126,(40 117 127 56 25 -21 -21 -23)
1969/12/31/18:00:40.126,(11 -95 -59 -13 -20 6 31 38)
1969/12/31/18:00:40.147,(11 -57 -32 -17 -8 6 -5 8)
1969/12/31/18:00:40.147,(-47 -104 -53 -28 -21 -4 -16 -24)
1969/12/31/18:00:40.149,(21 37 -67 -5 22 12 7 -5)
1969/12/31/18:00:40.149,(25 45 50 33 50 50 4 4)
1969/12/31/18:00:40.162,(-29 -31 -5 -26 -53 -5 -9 -6)
1969/12/31/18:00:40.162,(34 -33 -6 32 57 37 28 15)
1969/12/31/18:00:40.164,(-30 16 29 5 -10 -11 11 -2)
1969/12/31/18:00:40.164,(-83 3 -10 13 10 -50 -25 -34)
1969/12/31/18:00:40.184,(-18 -88 -98 -58 -31 13 -18 -44)
1969/12/31/18:00:40.184,(-6 99 88 35 13 9 8 -25)
1969/12/31/18:00:40.186,(13 -102 -46 -23 -24 -25 -2 14)
1969/12/31/18:00:40.186,(45 86 55 38 48 50 17 14)
1969/12/31/18:00:40.198,(-10 10 40 22 -1 -21 2 34)
1969/12/31/18:00:40.198,(-10 -40 -50 -27 -34 -26 -12 -3)
1969/12/31/18:00:40.207,(-1 -1 -21 -14 11 34 9 -6)
1969/12/31/18:00:40.207,(1 -66 -2 3 2 13 26 56)
1969/12/31/18:00:40.230,(0 -11 -62 -21 -12 -21 14 -3)
1969/12/31/18:00:40.230,(27 113 91 26 29 -1 -9 -5)
1969/12/31/18:00:40.231,(-7 -48 -18 7 -9 -5 -12 -11)
1969/12/31/18:00:40.231,(-62 -98 -72 -52 -22 -3 -6 7)
1969/12/31/18:00:40.245,(0 38 38 25 16 2 -10 -12)
1969/12/31/18:00:40.245,(-32 -38 -66 -35 -39 -23 -2 -18)
1969/12/31/18:00:40.246,(13 17 82 39 31 30 -10 8)
1969/12/31/18:00:40.246,(41 -47 -89 -21 -14 -17 -8 13)
1969/12/31/18:00:40.258,(28 102 59 18 1 -12 11 16)
1969/12/31/18:00:40.258,(-21 -105 -38 -2 3 -4 -13 -19)
1969/12/31/18:00:40.267,(-38 -5 19 -9 -13 28 2 -12)
1969/12/31/18:00:40.267,(-53 -120 -105 -43 -31 -31 -21 -51)
1969/12/31/18:00:40.282,(26 87 79 19 11 -9 -11 21)
1969/12/31/18:00:40.282,(1 16 14 16 25 1 2 17)
1969/12/31/18:00:40.284,(-56 -73 -46 -13 -53 -11 -3 -37)
1969/12/31/18:00:40.284,(76 -26 -4 6 31 26 16 43)
1969/12/31/18:00:40.304,(-53 -128 -128 -82 -56 -65 -10 -22)
1969/12/31/18:00:40.304,(19 127 119 88 43 36 0 -9)
1969/12/31/18:00:40.306,(68 -68 -88 8 23 9 42 63)
1969/12/31/18:00:40.306,(2 -11 -10 8 -8 -10 -6 -12)
1969/12/31/18:00:40.318,(-20 -26 -14 17 18 25 -15 -39)
1969/12/31/18:00:40.318,(-4 -18 -9 -21 0 3 0 -14)
1969/12/31/18:00:40.327,(55 60 -3 -28 -22 -8 11 30)
1969/12/31/18:00:40.327,(-28 -55 -29 -5 14 -11 -9 -16)
1969/12/31/18:00:40.342,(12 62 26 46 43 -1 7 24)
1969/12/31/18:00:40.342,(-15 -36 -55 -50 -50 50 21 11)
1969/12/31/18:00:40.344,(-4 -47 -41 -8 -9 -48 -37 -15)
1969/12/31/18:00:40.344,(2 -18 -26 -14 -28 -14 -10 -25)
1969/12/31/18:00:40.364,(-24 -53 -2 0 25 11 -5 -1)
1969/12/31/18:00:40.364,(39 -12 -57 -5 15 5 18 42)
1969/12/31/18:00:40.366,(-29 50 69 17 -21 -18 -11 -32)
1969/12/31/18:00:40.366,(8 -76 -70 -33 -5 -10 -4 20)
1969/12/31/18:00:40.378,(9 96 114 49 -8 -23 4 2)
1969/12/31/18:00:40.378,(11 54 21 0 -5 14 14 13)
1969/12/31/18:00:40.387,(-19 -76 -102 -38 9 -7 -17 -2)
1969/12/31/18:00:40.387,(54 112 119 66 27 22 24 63)
1969/12/31/18:00:40.402,(15 48 -6 0 -6 8 -10 -13)
1969/12/31/18:00:40.402,(-9 -28 -12 -16 -27 -49 -31 -39)
1969/12/31/18:00:40.404,(-10 -14 25 10 9 2 24 13)
1969/12/31/18:00:40.404,(-15 -14 -16 -6 0 -1 -8 0)
1969/12/31/18:00:40.424,(1 -76 -50 -13 1 16 24 10)
1969/12/31/18:00:40.424,(-15 33 42 15 17 8 -12 20)
1969/12/31/18:00:40.426,(-44 -7 -9 -19 -29 -27 -23 -16)
1969/12/31/18:00:40.426,(-24 -74 -81 -28 -1 -22 -4 -41)
1969/12/31/18:00:40.438,(29 71 47 24 24 63 15 -1)
1969/12/31/18:00:40.438,(-27 -125 -63 -5 -19 -46 -20 -34)
1969/12/31/18:00:40.447,(-26 -69 -60 1 11 10 4 -11)
1969/12/31/18:00:40.447,(18 -36 -29 6 5 -14 -3 17)
1969/12/31/18:00:40.461,(-12 27 15 13 1 18 -4 -2)
1969/12/31/18:00:40.461,(12 47 61 16 9 22 27 4)
1969/12/31/18:00:40.468,(-6 5 16 8 2 -10 -8 19)
1969/12/31/18:00:40.468,(-46 -34 7 -15 -19 -12 1 -24)
1969/12/31/18:00:40.484,(-7 -126 -80 -25 8 21 2 25)
1969/12/31/18:00:40.484,(4 49 -3 -1 -23 -39 -29 -23)
1969/12/31/18:00:40.486,(-20 -23 4 -23 -34 6 12 -17)
1969/12/31/18:00:40.486,(5 4 -25 -12 -2 -1 18 -19)
1969/12/31/18:00:40.507,(31 67 84 47 5 -14 2 12)
1969/12/31/18:00:40.507,(-12 -112 -81 -21 -8 -15 2 16)
1969/12/31/18:00:40.509,(6 -22 12 33 60 33 -3 14)
1969/12/31/18:00:40.509,(-6 -12 -49 -15 -4 44 31 29)
1969/12/31/18:00:40.521,(-5 71 75 -3 -25 -13 -24 -59)
1969/12/31/18:00:40.521,(-48 83 68 12 2 -26 -23 -45)
1969/12/31/18:00:40.528,(20 -41 -53 -12 9 27 7 15)
1969/12/31/18:00:40.528,(-8 84 56 16 -12 -21 -12 -18)
1969/12/31/18:00:40.545,(-50 -74 -56 0 28 11 3 -17)
1969/12/31/18:00:40.545,(-12 -111 -99 -36 -15 6 3 13)
1969/12/31/18:00:40.546,(22 125 106 24 -11 -3 6 -27)
1969/12/31/18:00:40.546,(7 33 52 22 -10 -6 -6 7)
1969/12/31/18:00:40.558,(40 -88 -87 -33 -10 -2 8 33)
1969/12/31/18:00:40.558,(-34 -48 -43 -19 -23 -1 -10 -5)
1969/12/31/18:00:40.567,(-4 -39 -20 -10 7 11 4 -5)
1969/12/31/18:00:40.567,(28 7 -25 -33 -31 -20 -22 -13)
1969/12/31/18:00:40.582,(11 56 61 30 26 17 19 23)
1969/12/31/18:00:40.582,(17 -76 -66 -4 19 -3 18 46)
1969/12/31/18:00:40.584,(62 33 -42 -12 -6 -6 11 25)
1969/12/31/18:00:40.584,(-11 46 94 50 2 1 -23 10)
1969/12/31/18:00:40.611,(-32 -84 -95 -25 8 4 5 -22)
1969/12/31/18:00:40.611,(32 -12 -43 -7 15 28 15 10)
1969/12/31/18:00:40.620,(3 69 70 27 11 -16 1 20)
1969/12/31/18:00:40.620,(18 -29 -2 -4 6 -7 -1 12)
1969/12/31/18:00:40.621,(19 71 29 21 -2 10 16 27)
1969/12/31/18:00:40.621,(30 -5 21 -1 -16 -9 -8 10)
1969/12/31/18:00:40.627,(7 -2 -13 9 16 -43 -16 -25)
1969/12/31/18:00:40.627,(34 -20 -45 -23 -7 59 20 -3)
1969/12/31/18:00:40.641,(-4 48 93 27 -1 -12 -6 0)
1969/12/31/18:00:40.641,(-25 -7 -18 -10 -7 5 2 -13)
1969/12/31/18:00:40.648,(-52 -51 -17 -5 13 -18 -7 -21)
1969/12/31/18:00:40.648,(-5 -80 -41 -11 4 26 1 3)
1969/12/31/18:00:40.680,(3 25 -1 -8 -18 -30 2 5)
1969/12/31/18:00:40.680,(17 49 34 16 31 20 -1 24)
1969/12/31/18:00:40.682,(-9 1 -5 -2 -2 28 6 17)
1969/12/31/18:00:40.682,(-39 -66 -34 -7 -13 -43 -28 -45)
1969/12/31/18:00:40.683,(34 47 -14 -28 -33 12 -2 6)
1969/12/31/18:00:40.683,(21 33 45 32 29 6 10 18)
1969/12/31/18:00:40.687,(-32 -71 -27 2 24 15 -15 -41)
1969/12/31/18:00:40.687,(-27 -41 -20 -8 -23 -35 9 -13)
1969/12/31/18:00:40.701,(-20 -72 -87 -36 -38 -34 -19 -19)
1969/12/31/18:00:40.701,(-53 -9 -4 -5 5 -13 -16 3)
1969/12/31/18:00:40.708,(3 -6 -36 -26 -10 29 28 8)
1969/12/31/18:00:40.708,(11 117 99 37 -4 -23 -19 7)
1969/12/31/18:00:40.725,(-11 -108 -59 -31 -22 -56 -28 -27)
1969/12/31/18:00:40.725,(-30 -24 -24 -14 -6 16 6 -22)
1969/12/31/18:00:40.726,(65 42 55 24 -3 17 9 31)
1969/12/31/18:00:40.726,(-44 49 -2 -3 9 9 -6 -27)
1969/12/31/18:00:40.747,(-5 -77 -46 1 21 0 -2 -5)
1969/12/31/18:00:40.747,(14 45 18 11 15 10 6 -4)
1969/12/31/18:00:40.749,(-4 58 61 32 24 -1 -12 -20)
1969/12/31/18:00:40.749,(8 -55 -51 -21 -24 -19 -9 12)
1969/12/31/18:00:40.761,(-24 -8 -17 3 18 6 28 -4)
1969/12/31/18:00:40.761,(9 -42 -20 -18 -20 -6 -15 -22)
1969/12/31/18:00:40.768,(-12 0 -18 0 -17 -28 6 1)
1969/12/31/18:00:40.768,(11 14 26 6 9 24 4 6)
1969/12/31/18:00:40.785,(-10 -107 -71 -27 5 10 -3 13)
1969/12/31/18:00:40.785,(1 75 98 49 16 -13 9 3)
1969/12/31/18:00:40.786,(-1 10 -49 -10 21 18 -3 1)
1969/12/31/18:00:40.786,(52 32 -16 5 -8 21 37 40)
1969/12/31/18:00:40.807,(3 80 90 58 22 27 -26 -17)
1969/12/31/18:00:40.807,(-1 -56 -31 -10 -18 -18 5 3)
1969/12/31/18:00:40.809,(-8 -17 -20 -16 -35 -26 -25 -35)
1969/12/31/18:00:40.809,(-47 -118 -54 -26 21 11 2 -16)
1969/12/31/18:00:40.821,(-7 24 -27 -8 -4 0 -8 -17)
1969/12/31/18:00:40.821,(26 47 18 7 7 29 0 -6)
1969/12/31/18:00:40.828,(11 -41 0 -15 -43 -2 10 15)
1969/12/31/18:00:40.828,(50 58 23 15 17 5 5 22)
1969/12/31/18:00:40.844,(-7 -59 -8 -2 3 -4 8 -3)
1969/12/31/18:00:40.844,(22 -10 -4 -1 -30 -35 -21 36)
1969/12/31/18:00:40.846,(-49 -115 -92 -47 -8 -5 -9 -21)
1969/12/31/18:00:40.846,(0 93 78 25 19 8 8 -5)
1969/12/31/18:00:40.867,(0 -36 -30 2 13 3 17 18)
1969/12/31/18:00:40.867,(40 88 44 21 21 29 4 11)
1969/12/31/18:00:40.869,(-30 -17 -4 -6 -23 -28 -7 -11)
1969/12/31/18:00:40.869,(21 17 10 11 1 8 -10 10)
1969/12/31/18:00:40.881,(-61 -111 -73 -33 18 23 1 -20)
1969/12/31/18:00:40.881,(-4 -57 -33 -18 -17 -9 9 9)
1969/12/31/18:00:40.898,(-14 4 -9 -11 -4 17 5 2)
1969/12/31/18:00:40.898,(-9 98 57 23 4 -24 -5 -9)
1969/12/31/18:00:40.904,(-5 -41 -1 0 -5 -6 -15 -13)
1969/12/31/18:00:40.904,(12 -23 -45 -11 2 6 13 9)
1969/12/31/18:00:40.906,(-23 -34 18 10 12 -1 -1 4)
1969/12/31/18:00:40.906,(-4 -64 -66 -32 -4 -8 -7 19)
1969/12/31/18:00:40.927,(-23 -50 -33 -12 -30 -9 -5 -18)
1969/12/31/18:00:40.927,(13 48 49 16 0 -11 -10 4)
1969/12/31/18:00:40.929,(34 30 23 13 6 -2 8 18)
1969/12/31/18:00:40.929,(-21 -60 -25 8 31 11 13 -3)
1969/12/31/18:00:40.941,(38 86 73 15 -36 -10 -8 8)
1969/12/31/18:00:40.941,(-59 -128 -93 -58 -46 -28 -19 -43)
1969/12/31/18:00:40.950,(-4 -7 -47 -22 1 4 11 3)
1969/12/31/18:00:40.950,(20 44 18 32 10 -3 -9 10)
1969/12/31/18:00:40.964,(-4 25 7 12 9 5 2 -14)
1969/12/31/18:00:40.964,(13 -20 -5 2 12 16 23 34)
1969/12/31/18:00:40.978,(17 77 43 17 12 2 -22 -20)
1969/12/31/18:00:40.978,(-68 -61 -28 -37 -36 -14 -11 -37)
1969/12/31/18:00:40.987,(9 -45 -10 6 45 -3 -14 -19)
1969/12/31/18:00:40.987,(-2 113 66 12 -28 -3 -14 -44)
1969/12/31/18:00:40.989,(-2 -49 -5 2 -20 6 25 25)
1969/12/31/18:00:40.989,(-16 -24 -25 -15 -16 -3 -17 -12)
1969/12/31/18:00:41.009,(-27 1 -8 -18 -16 -10 -12 -11)
1969/12/31/18:00:41.009,(44 28 -3 7 33 1 21 15)
1969/12/31/18:00:41.010,(1 39 15 4 0 -7 -10 -3)
1969/12/31/18:00:41.010,(17 28 44 19 -11 -3 0 -3)
1969/12/31/18:00:41.024,(29 -50 -47 -27 -16 2 9 33)
1969/12/31/18:00:41.024,(-14 -30 -49 -22 -1 -11 -9 -17)
1969/12/31/18:00:41.024,(9 -67 -42 5 22 23 2 11)
1969/12/31/18:00:41.024,(-26 101 73 10 -12 -31 -13 -22)
1969/12/31/18:00:41.047,(91 63 36 14 -1 28 40 58)
1969/12/31/18:00:41.047,(-5 70 72 14 -8 -12 -19 -13)
1969/12/31/18:00:41.047,(17 -26 -6 4 11 3 -3 4)
1969/12/31/18:00:41.047,(-8 -103 -97 -34 -1 -18 -16 -19)
1969/12/31/18:00:41.069,(-50 19 40 19 15 12 18 -6)
1969/12/31/18:00:41.069,(-35 -91 -60 -16 18 -6 -15 -15)
1969/12/31/18:00:41.070,(55 112 75 14 -27 -12 7 26)
1969/12/31/18:00:41.070,(5 -23 14 -9 -21 -1 3 16)
1969/12/31/18:00:41.094,(3 38 11 17 28 -6 -8 1)
1969/12/31/18:00:41.094,(-17 -56 -33 -27 -29 1 6 3)
1969/12/31/18:00:41.094,(-2 -38 -37 -14 3 -13 -18 -8)
1969/12/31/18:00:41.094,(15 53 47 33 25 26 22 8)
1969/12/31/18:00:41.106,(-13 -16 3 -10 -12 3 -6 -6)
1969/12/31/18:00:41.106,(-18 -67 -77 -18 9 -8 -14 -22)
1969/12/31/18:00:41.107,(52 54 37 21 6 2 -1 7)
1969/12/31/18:00:41.107,(6 77 76 36 28 29 18 32)
1969/12/31/18:00:41.137,(1 -19 -36 -13 -18 -20 -5 -32)
1969/12/31/18:00:41.137,(-50 -56 -29 -16 -3 7 -9 -21)
1969/12/31/18:00:41.138,(-8 -6 7 1 15 -5 -6 1)
1969/12/31/18:00:41.138,(-5 -15 -29 -17 -46 -23 -12 -14)
1969/12/31/18:00:41.144,(-6 4 8 -10 -8 -4 4 18)
1969/12/31/18:00:41.144,(56 61 35 40 42 6 22 19)
1969/12/31/18:00:41.144,(-49 -57 -24 -20 -22 12 -2 -14)
1969/12/31/18:00:41.145,(12 -61 -95 -43 -11 -32 -11 -7)
1969/12/31/18:00:41.166,(38 97 83 53 20 22 9 15)
1969/12/31/18:00:41.166,(11 -38 -27 20 15 21 18 20)
1969/12/31/18:00:41.167,(-17 18 14 -11 -28 -13 1 18)
1969/12/31/18:00:41.167,(25 -42 -22 -15 -6 -8 10 11)
1969/12/31/18:00:41.181,(-18 -1 -7 -21 -27 -18 -20 -8)
1969/12/31/18:00:41.181,(-26 -8 7 2 12 12 10 -7)
1969/12/31/18:00:41.189,(8 -67 -71 -16 11 4 3 -1)
1969/12/31/18:00:41.189,(-2 75 79 40 15 10 -5 -8)
1969/12/31/18:00:41.204,(0 -61 -46 -13 -19 -12 -13 4)
1969/12/31/18:00:41.204,(-18 35 39 15 12 10 9 -4)
1969/12/31/18:00:41.205,(-17 -25 -27 -10 -8 1 -3 -15)
1969/12/31/18:00:41.205,(-10 -48 -25 -11 -4 5 -4 -4)
1969/12/31/18:00:41.226,(-4 -18 -54 -21 9 -9 -13 -14)
1969/12/31/18:00:41.226,(52 53 80 35 28 -12 1 12)
1969/12/31/18:00:41.227,(16 8 -3 0 -35 -28 -27 2)
1969/12/31/18:00:41.227,(-2 -13 -7 -4 17 33 14 -2)
1969/12/31/18:00:41.249,(-2 -45 -35 -17 -12 2 24 5)
1969/12/31/18:00:41.249,(-12 -76 -68 -40 -29 -6 -15 -6)
1969/12/31/18:00:41.257,(3 83 74 31 33 7 13 3)
1969/12/31/18:00:41.257,(20 80 99 55 21 6 -11 -11)
1969/12/31/18:00:41.264,(-14 -52 -29 4 12 5 9 10)
1969/12/31/18:00:41.264,(1 -8 -12 1 -22 -35 -8 -6)
1969/12/31/18:00:41.265,(-26 -39 -26 -24 -30 12 17 -2)
1969/12/31/18:00:41.265,(-14 -74 -54 -23 -5 -16 8 7)
1969/12/31/18:00:41.287,(9 34 12 1 11 15 -2 -5)
1969/12/31/18:00:41.287,(21 103 56 4 -13 -2 1 4)
1969/12/31/18:00:41.287,(-4 -29 -10 0 -3 -29 -34 -20)
1969/12/31/18:00:41.287,(-14 -9 -13 -9 0 13 47 -12)
1969/12/31/18:00:41.301,(15 23 20 25 33 37 29 23)
1969/12/31/18:00:41.301,(-23 -64 -38 -9 -4 -20 -11 -7)
1969/12/31/18:00:41.308,(-8 18 19 17 11 39 20 -10)
1969/12/31/18:00:41.308,(40 11 -14 -14 -18 -43 -17 7)
1969/12/31/18:00:41.324,(-32 -23 -3 -21 -16 -20 -39 -29)
1969/12/31/18:00:41.324,(-3 7 0 2 2 30 0 6)
1969/12/31/18:00:41.325,(22 13 3 -2 -7 -20 31 14)
1969/12/31/18:00:41.325,(-9 -18 -24 -8 -1 -8 -16 -4)
1969/12/31/18:00:41.346,(7 40 24 3 -3 5 -3 -4)
1969/12/31/18:00:41.346,(3 -23 -4 -2 -14 0 66 31)
1969/12/31/18:00:41.347,(2 5 -8 -18 -16 -9 -21 1)
1969/12/31/18:00:41.347,(-23 -35 -21 -21 6 14 9 -6)
1969/12/31/18:00:41.369,(30 51 26 50 36 -7 -9 15)
1969/12/31/18:00:41.369,(-23 -40 -13 -25 -14 -28 -47 -24)
1969/12/31/18:00:41.370,(4 9 8 33 34 18 -12 -1)
1969/12/31/18:00:41.370,(-6 -6 -8 -13 -18 4 21 13)
1969/12/31/18:00:41.384,(-6 13 10 -7 -23 -18 -9 -8)
1969/12/31/18:00:41.384,(-20 -24 -15 -10 -5 35 -36 -19)
1969/12/31/18:00:41.385,(17 13 -3 -38 -46 -1 28 -4)
1969/12/31/18:00:41.385,(15 27 12 39 55 7 -2 10)
1969/12/31/18:00:41.406,(-11 2 13 28 36 -27 -76 -7)
1969/12/31/18:00:41.406,(-31 -20 -22 -9 -9 22 -2 -22)
1969/12/31/18:00:41.407,(-28 -28 -8 -5 1 -3 -8 -7)
1969/12/31/18:00:41.407,(-1 -27 -10 -17 -26 3 2 -8)
1969/12/31/18:00:41.429,(-16 -1 -6 -22 -18 34 27 -5)
1969/12/31/18:00:41.429,(20 34 -6 -7 -12 -68 -10 -3)
1969/12/31/18:00:41.430,(6 -22 0 3 3 0 12 33)
1969/12/31/18:00:41.430,(-31 -21 3 12 13 12 -20 -29)
1969/12/31/18:00:41.444,(27 -6 -2 -6 -12 3 48 32)
1969/12/31/18:00:41.444,(-59 -24 -9 -9 -9 0 -19 -23)
1969/12/31/18:00:41.451,(15 11 -3 7 18 1 9 -2)
1969/12/31/18:00:41.452,(49 34 15 13 5 0 -2 32)
1969/12/31/18:00:41.467,(-1 -31 -11 -16 -14 1 25 1)
1969/12/31/18:00:41.467,(54 54 17 8 -1 -7 3 14)
1969/12/31/18:00:41.467,(41 32 19 20 32 -14 -89 -8)
1969/12/31/18:00:41.467,(-95 -56 -6 0 -6 2 -18 -24)
1969/12/31/18:00:41.481,(-24 -4 -8 -15 -16 -8 -2 -7)
1969/12/31/18:00:41.481,(31 10 1 3 11 10 20 13)
1969/12/31/18:00:41.488,(13 -7 8 16 16 9 37 19)
1969/12/31/18:00:41.488,(-40 -2 -21 -23 -28 -18 -35 -37)
1969/12/31/18:00:41.504,(-1 2 5 -4 -4 -11 -8 -6)
1969/12/31/18:00:41.504,(-3 6 14 13 11 15 11 13)
1969/12/31/18:00:41.505,(-36 -9 -3 0 1 -2 -3 -21)
1969/12/31/18:00:41.505,(51 12 2 4 1 8 10 25)
1969/12/31/18:00:41.527,(-15 2 -6 -8 -7 -10 -5 -11)
1969/12/31/18:00:41.527,(-24 -25 -8 -2 -2 2 -17 -26)
1969/12/31/18:00:41.527,(-12 4 2 1 1 3 7 -10)
1969/12/31/18:00:41.527,(30 24 6 4 4 2 6 14)
1969/12/31/18:00:41.541,(-21 -21 -8 -9 -8 -10 -6 -4)
1969/12/31/18:00:41.541,(32 10 1 0 3 11 6 14)
1969/12/31/18:00:41.548,(-23 -6 -4 -2 0 -4 -1 -8)
1969/12/31/18:00:41.548,(0 13 0 -3 -3 -5 -4 -1)
1969/12/31/18:00:41.564,(13 -8 -2 -2 -5 -2 -5 3)
1969/12/31/18:00:41.564,(-14 -9 7 4 5 9 2 -10)
1969/12/31/18:00:41.564,(-3 1 -13 -9 -6 -4 3 -7)
1969/12/31/18:00:41.564,(10 -1 -2 2 2 1 -2 5)
1969/12/31/18:00:41.586,(18 25 20 4 0 -2 -1 -2)
1969/12/31/18:00:41.586,(-7 -6 -4 2 2 2 3 1)
1969/12/31/18:00:41.587,(-5 4 2 2 2 -1 5 -1)
1969/12/31/18:00:41.587,(-3 -28 -18 -10 -8 -3 -6 -4)
1969/12/31/18:00:41.601,(3 -5 -6 -3 -2 -5 -5 -5)
1969/12/31/18:00:41.601,(4 10 6 2 2 4 5 8)
1969/12/31/18:00:41.608,(-11 -3 -4 -2 -3 -1 0 1)
1969/12/31/18:00:41.608,(-2 -2 2 3 -2 0 -3 -5)
1969/12/31/18:00:41.624,(-20 -12 -7 -4 -3 -4 -2 -4)
1969/12/31/18:00:41.624,(28 16 2 -1 0 1 0 7)
1969/12/31/18:00:41.625,(-3 -7 0 2 1 1 3 1)
1969/12/31/18:00:41.625,(-1 0 1 1 -1 0 -2 -5)
1969/12/31/18:00:41.646,(3 13 1 -1 -1 0 0 -1)
1969/12/31/18:00:41.646,(0 -9 -1 -1 2 2 1 1)
1969/12/31/18:00:41.647,(-2 2 -4 -4 -3 -2 -2 -1)
1969/12/31/18:00:41.647,(3 3 0 -1 0 -2 2 3)
1969/12/31/18:00:41.669,(6 -8 -3 -1 -1 -1 -5 0)
1969/12/31/18:00:41.669,(-4 10 8 2 1 2 1 -4)
1969/12/31/18:00:41.670,(-1 3 -2 0 -4 -2 -2 -1)
1969/12/31/18:00:41.670,(-2 -2 2 1 1 0 3 -2)
1969/12/31/18:00:41.684,(8 9 9 3 1 2 -1 6)
1969/12/31/18:00:41.684,(-4 -6 -3 0 -1 -3 -13 -10)
1969/12/31/18:00:41.685,(2 -9 -16 -9 -3 -5 -3 0)
1969/12/31/18:00:41.685,(-7 19 25 7 2 0 -1 0)
1969/12/31/18:00:41.715,(-4 -10 -11 -4 0 4 13 11)
1969/12/31/18:00:41.715,(-6 -39 -15 -2 1 1 -5 -4)
1969/12/31/18:00:41.715,(12 51 21 2 0 -1 5 4)
1969/12/31/18:00:41.715,(4 -5 -6 -4 -5 -5 -4 -1)
1969/12/31/18:00:41.729,(-1 -1 -4 -2 -2 -4 -6 -4)
1969/12/31/18:00:41.729,(2 7 4 3 3 3 5 9)
1969/12/31/18:00:41.730,(-1 -30 -21 -5 -3 1 1 14)
1969/12/31/18:00:41.730,(8 -2 -9 -6 0 -2 -4 -12)
1969/12/31/18:00:41.744,(3 5 4 2 0 -2 -3 -3)
1969/12/31/18:00:41.744,(-8 -7 -8 -4 -2 -2 1 0)
1969/12/31/18:00:41.745,(-4 1 4 0 -1 0 -2 -2)
1969/12/31/18:00:41.745,(-1 5 -1 3 3 2 -2 0)
1969/12/31/18:00:41.766,(4 -19 -18 -6 -4 -4 -5 -7)
1969/12/31/18:00:41.766,(-13 25 28 10 1 -4 0 -8)
1969/12/31/18:00:41.767,(6 4 7 3 1 3 2 0)
1969/12/31/18:00:41.767,(-5 -10 -4 -4 2 3 2 2)
1969/12/31/18:00:41.797,(-7 -24 -33 -12 -7 -4 -5 -4)
1969/12/31/18:00:41.797,(1 14 7 -1 -5 -7 -11 -11)
1969/12/31/18:00:41.798,(-6 7 13 7 3 -3 2 -6)
1969/12/31/18:00:41.798,(2 -17 -9 -4 -2 5 10 14)
1969/12/31/18:00:41.812,(2 1 -9 -2 -2 -1 -5 -2)
1969/12/31/18:00:41.812,(0 17 6 -2 0 2 9 2)
1969/12/31/18:00:41.813,(11 -4 -2 -2 -3 -2 -4 6)
1969/12/31/18:00:41.813,(3 -5 -1 1 -1 -1 4 8)
1969/12/31/18:00:41.826,(-2 1 8 1 1 2 -1 -6)
1969/12/31/18:00:41.826,(0 -3 -4 -3 -4 -5 -3 4)
1969/12/31/18:00:41.827,(-13 -11 -12 -3 1 1 -1 -12)
1969/12/31/18:00:41.827,(-2 -6 0 -3 -1 -4 -4 -1)
1969/12/31/18:00:41.850,(1 24 19 3 1 -1 3 0)
1969/12/31/18:00:41.850,(3 -13 -11 -1 -2 -3 -1 -1)
1969/12/31/18:00:41.850,(-2 -1 0 -2 -1 -1 -4 -2)
1969/12/31/18:00:41.850,(0 -5 -6 0 1 -1 0 0)
1969/12/31/18:00:41.864,(0 12 12 1 2 2 2 -2)
1969/12/31/18:00:41.864,(2 -6 -8 -3 -1 -4 -11 -5)
1969/12/31/18:00:41.865,(-7 -18 -14 -9 -5 -5 -1 -10)
1969/12/31/18:00:41.865,(7 19 15 10 3 2 5 6)
1969/12/31/18:00:41.887,(0 -5 0 1 0 2 -3 0)
1969/12/31/18:00:41.887,(-1 -6 -10 -7 -3 -3 6 5)
1969/12/31/18:00:41.887,(-4 2 6 2 1 2 -2 -5)
1969/12/31/18:00:41.887,(-4 6 0 -4 -5 -5 -6 -8)
1969/12/31/18:00:41.910,(2 -1 4 2 1 -1 0 7)
1969/12/31/18:00:41.910,(2 -3 -5 0 1 5 8 9)
1969/12/31/18:00:41.910,(-1 -8 -11 -4 -1 -1 0 1)
1969/12/31/18:00:41.910,(0 4 2 -2 -1 -3 -9 -8)
1969/12/31/18:00:41.924,(-1 -1 -3 -2 -1 -2 4 4)
1969/12/31/18:00:41.924,(-3 -6 -4 -4 -1 2 -1 1)
1969/12/31/18:00:41.925,(-3 -3 -1 0 -1 -3 -2 -3)
1969/12/31/18:00:41.925,(-1 6 3 3 1 -1 -4 -1)
1969/12/31/18:00:41.948,(-1 -4 -6 1 -1 1 0 -5)
1969/12/31/18:00:41.948,(-1 -7 -8 -5 -3 -3 0 -4)
1969/12/31/18:00:41.949,(6 18 10 4 3 2 2 6)
1969/12/31/18:00:41.949,(-6 -1 7 0 0 -3 -5 -6)
1969/12/31/18:00:41.970,(-1 -1 -4 -2 -2 -3 -2 1)
1969/12/31/18:00:41.970,(-2 -4 -2 3 1 2 2 4)
1969/12/31/18:00:41.970,(0 -9 -4 -5 -4 -1 2 -2)
1969/12/31/18:00:41.970,(0 21 1 -2 -1 0 -2 -3)
1969/12/31/18:00:41.984,(1 -1 2 2 -1 -2 -1 5)
1969/12/31/18:00:41.984,(-5 -23 -10 -3 1 2 6 3)
1969/12/31/18:00:41.984,(2 14 5 -5 -3 -4 -6 -1)
1969/12/31/18:00:41.985,(0 -11 -9 -3 -4 -2 -5 -5)
1969/12/31/18:00:42.006,(-1 8 12 4 2 2 5 2)
1969/12/31/18:00:42.006,(1 6 4 4 1 2 -7 -6)
1969/12/31/18:00:42.007,(-10 -17 -7 -2 -3 -2 -1 -5)
1969/12/31/18:00:42.007,(1 -3 -5 -4 -1 -1 2 2)
1969/12/31/18:00:42.030,(-1 -3 -3 -3 -4 -2 0 0)
1969/12/31/18:00:42.030,(-3 -1 3 1 0 0 -7 -9)
1969/12/31/18:00:42.030,(2 9 10 6 2 1 -2 -2)
1969/12/31/18:00:42.030,(-3 -12 -13 -6 -4 0 0 0)
1969/12/31/18:00:42.044,(-5 -9 2 -8 -4 -3 -1 -1)
1969/12/31/18:00:42.044,(6 24 13 6 5 2 0 3)
1969/12/31/18:00:42.045,(-2 -8 -3 -3 -2 -1 -1 -2)
1969/12/31/18:00:42.045,(1 0 -22 -9 -4 -2 1 1)
1969/12/31/18:00:42.066,(2 10 17 14 5 3 0 0)
1969/12/31/18:00:42.066,(0 -7 -7 -5 -3 -2 0 1)
1969/12/31/18:00:42.067,(1 6 6 4 0 -1 -1 -2)
1969/12/31/18:00:42.067,(0 -19 -13 -8 -4 0 -1 0)
1969/12/31/18:00:42.090,(-4 -7 -10 -7 -4 -2 2 -3)
1969/12/31/18:00:42.090,(2 0 1 -1 -2 -1 0 1)
1969/12/31/18:00:42.090,(-4 0 -7 -5 -1 0 0 -3)
1969/12/31/18:00:42.090,(-3 -2 3 0 -1 0 1 1)
1969/12/31/18:00:42.104,(-2 -6 6 5 0 -4 -7 -6)
1969/12/31/18:00:42.104,(1 -10 -24 -8 -3 0 5 3)
1969/12/31/18:00:42.105,(3 10 11 4 1 1 2 5)
1969/12/31/18:00:42.105,(-12 -70 -36 -12 -6 -4 -6 -4)
