time,.data
1969/12/31/18:00:18.540,(1 0 -2 0 2 0 2 3)
1969/12/31/18:00:18.540,(2 4 3 -1 -2 -1 0 2)
1969/12/31/18:00:18.542,(-1 0 -1 0 -1 0 1 0)
1969/12/31/18:00:18.542,(-2 -2 0 2 2 0 -4 -1)
1969/12/31/18:00:18.553,(0 0 0 2 1 -1 -1 0)
1969/12/31/18:00:18.553,(-3 -1 5 3 0 0 -1 -1)
1969/12/31/18:00:18.563,(0 3 0 -1 -4 -2 -4 -1)
1969/12/31/18:00:18.563,(-2 -5 -1 1 1 0 1 0)
1969/12/31/18:00:18.585,(1 3 4 3 0 0 -1 2)
1969/12/31/18:00:18.585,(0 -2 1 -1 -3 -3 0 1)
1969/12/31/18:00:18.587,(-1 -4 -7 -4 -1 1 -3 -1)
1969/12/31/18:00:18.587,(0 0 2 0 -1 0 -1 -3)
1969/12/31/18:00:18.600,(-2 -2 -5 -6 -2 -2 -1 -1)
1969/12/31/18:00:18.600,(1 6 2 5 2 0 0 0)
1969/12/31/18:00:18.602,(0 -1 -3 -9 -4 -1 0 -1)
1969/12/31/18:00:18.602,(-4 -7 1 3 -1 -2 -3 -3)
1969/12/31/18:00:18.614,(0 -1 -3 2 4 1 0 -2)
1969/12/31/18:00:18.614,(2 4 -5 -20 -7 -2 0 0)
1969/12/31/18:00:18.622,(-5 -7 0 15 -1 -3 -3 -4)
1969/12/31/18:00:18.622,(-4 -4 -20 -32 -6 -1 -1 0)
1969/12/31/18:00:18.637,(1 4 11 14 2 0 -1 0)
1969/12/31/18:00:18.637,(1 -1 12 22 7 3 2 1)
1969/12/31/18:00:18.643,(0 -6 -15 -23 -5 -2 0 -1)
1969/12/31/18:00:18.643,(-2 -3 -8 -8 -7 -5 -4 -3)
1969/12/31/18:00:18.667,(-6 -6 -2 4 -4 -2 -3 -1)
1969/12/31/18:00:18.667,(2 7 15 1 9 4 -1 0)
1969/12/31/18:00:18.669,(-1 -2 11 28 2 1 1 0)
1969/12/31/18:00:18.669,(4 7 2 9 14 4 3 1)
1969/12/31/18:00:18.682,(0 0 10 2 -3 -2 0 0)
1969/12/31/18:00:18.682,(-4 -8 -21 17 -3 -3 0 -1)
1969/12/31/18:00:18.684,(4 5 7 0 12 3 3 4)
1969/12/31/18:00:18.684,(2 5 28 11 -2 3 3 3)
1969/12/31/18:00:18.697,(-1 9 20 11 2 -4 -5 -5)
1969/12/31/18:00:18.697,(-9 -14 -32 -57 -34 -9 -3 -4)
1969/12/31/18:00:18.705,(-5 -7 -24 -62 -48 -14 -9 -8)
1969/12/31/18:00:18.705,(4 23 46 77 86 12 2 -3)
1969/12/31/18:00:18.720,(1 7 5 2 -26 -4 -16 -11)
1969/12/31/18:00:18.720,(-5 -3 -5 13 41 6 -2 -5)
1969/12/31/18:00:18.722,(-2 2 0 1 2 -6 -3 -4)
1969/12/31/18:00:18.722,(-6 -15 -33 -30 -33 -5 -3 0)
1969/12/31/18:00:18.742,(0 2 8 -6 28 3 -10 -3)
1969/12/31/18:00:18.742,(0 -10 -12 -16 -11 -3 0 3)
1969/12/31/18:00:18.744,(-8 -4 -44 -46 -22 -6 -7 -12)
1969/12/31/18:00:18.744,(2 4 6 13 -15 -7 -3 -6)
1969/12/31/18:00:18.756,(4 6 32 53 21 7 11 8)
1969/12/31/18:00:18.756,(-1 5 -1 -11 -18 -3 -2 -3)
1969/12/31/18:00:18.765,(1 -6 26 26 13 7 5 6)
1969/12/31/18:00:18.765,(-2 -5 -70 -52 -17 -6 -4 2)
1969/12/31/18:00:18.787,(1 6 56 27 1 3 3 3)
1969/12/31/18:00:18.787,(-9 -14 -28 -70 -17 -4 -7 -8)
1969/12/31/18:00:18.789,(1 0 22 49 16 5 10 10)
1969/12/31/18:00:18.789,(-6 -14 -17 1 -5 -2 -2 -4)
1969/12/31/18:00:18.802,(-1 -7 -29 -13 -6 -4 -1 -2)
1969/12/31/18:00:18.802,(4 9 21 18 4 -1 0 -2)
1969/12/31/18:00:18.804,(-2 -3 6 7 14 5 4 4)
1969/12/31/18:00:18.804,(-4 -5 -16 -22 -15 -5 -3 -6)
1969/12/31/18:00:18.817,(2 -4 -10 -24 -5 4 8 7)
1969/12/31/18:00:18.817,(5 11 13 18 -4 -7 -10 -10)
1969/12/31/18:00:18.825,(2 5 0 9 7 1 -1 1)
1969/12/31/18:00:18.825,(1 -1 -1 -32 -17 -5 -1 2)
1969/12/31/18:00:18.840,(-11 -15 -29 0 -1 -1 5 3)
1969/12/31/18:00:18.840,(2 2 12 20 7 2 -1 -2)
1969/12/31/18:00:18.841,(-1 0 3 -8 0 -2 -3 -3)
1969/12/31/18:00:18.841,(-2 -3 -6 16 -1 -2 -2 -3)
1969/12/31/18:00:18.862,(-2 -9 -1 -17 -1 1 6 6)
1969/12/31/18:00:18.862,(4 2 12 20 4 1 1 4)
1969/12/31/18:00:18.864,(4 2 2 8 5 2 0 0)
1969/12/31/18:00:18.864,(0 0 3 -13 -7 -2 1 2)
1969/12/31/18:00:18.876,(3 3 -29 -26 -10 -5 -2 0)
1969/12/31/18:00:18.876,(3 10 -4 12 1 1 4 3)
1969/12/31/18:00:18.885,(1 5 16 -9 -5 -4 -3 -2)
1969/12/31/18:00:18.885,(0 8 20 18 0 1 1 1)
1969/12/31/18:00:18.900,(-3 -4 -15 -5 2 0 -1 -3)
1969/12/31/18:00:18.900,(-1 -1 7 1 2 0 2 3)
1969/12/31/18:00:18.901,(-2 -7 -14 -9 -2 -2 -2 -3)
1969/12/31/18:00:18.901,(-3 -5 14 8 2 3 2 2)
1969/12/31/18:00:18.922,(-3 -5 -8 -4 -11 -4 -3 -5)
1969/12/31/18:00:18.922,(-4 -11 -10 -3 -1 2 1 0)
1969/12/31/18:00:18.924,(-4 -3 -2 2 -2 -2 -1 -2)
1969/12/31/18:00:18.924,(-4 -4 10 14 3 1 0 -2)
1969/12/31/18:00:18.937,(-2 -3 -10 -12 -6 -3 -4 -5)
1969/12/31/18:00:18.937,(-5 -6 -4 -2 -3 -1 -1 1)
1969/12/31/18:00:18.953,(-2 -1 1 6 2 1 -1 -1)
1969/12/31/18:00:18.953,(-5 -5 7 -2 0 -1 -3 -4)
1969/12/31/18:00:18.960,(2 8 -7 -9 -1 -2 -3 -4)
1969/12/31/18:00:18.960,(14 4 3 4 0 0 3 6)
1969/12/31/18:00:18.961,(-4 1 6 6 3 0 0 1)
1969/12/31/18:00:18.961,(1 1 1 -4 -3 -3 -2 -2)
1969/12/31/18:00:18.983,(-31 -29 -23 -14 -6 -5 -6 -12)
1969/12/31/18:00:18.983,(-7 -5 -1 4 3 -1 -1 -4)
1969/12/31/18:00:18.984,(5 2 1 -2 0 0 1 4)
1969/12/31/18:00:18.984,(-5 8 8 3 3 2 2 0)
1969/12/31/18:00:18.996,(44 10 -4 -3 -1 -3 -4 5)
1969/12/31/18:00:18.996,(-16 -17 -5 -5 -2 -3 -4 -5)
1969/12/31/18:00:19.005,(-34 -9 -8 -7 -4 -4 -7 -9)
1969/12/31/18:00:19.005,(-15 -12 2 4 1 3 0 -2)
1969/12/31/18:00:19.020,(4 11 3 0 1 -1 -1 0)
1969/12/31/18:00:19.020,(12 1 -5 -3 -2 -1 2 5)
1969/12/31/18:00:19.021,(21 9 2 3 0 1 5 9)
1969/12/31/18:00:19.021,(1 -3 0 0 -2 -5 -4 -6)
1969/12/31/18:00:19.043,(-2 8 5 2 -1 2 2 3)
1969/12/31/18:00:19.043,(-1 0 1 1 0 0 -3 -3)
1969/12/31/18:00:19.044,(-17 -6 -2 0 -1 0 -2 -8)
1969/12/31/18:00:19.044,(22 5 2 -1 -1 1 2 13)
1969/12/31/18:00:19.056,(17 1 -3 -3 1 1 3 4)
1969/12/31/18:00:19.056,(-8 -1 2 2 0 0 -2 -2)
1969/12/31/18:00:19.065,(-23 -8 -4 -4 0 -4 -4 -7)
1969/12/31/18:00:19.065,(-14 -8 3 3 1 1 3 1)
1969/12/31/18:00:19.095,(-4 -6 -8 -7 -2 -7 -14 -9)
1969/12/31/18:00:19.095,(23 20 9 6 3 4 7 9)
1969/12/31/18:00:19.096,(-8 -10 -2 -5 -4 -3 -6 -19)
1969/12/31/18:00:19.096,(27 -9 -15 -14 -8 -7 11 39)
1969/12/31/18:00:19.102,(-14 -3 5 4 3 5 5 1)
1969/12/31/18:00:19.102,(-12 -1 2 2 1 4 5 -1)
1969/12/31/18:00:19.104,(11 1 1 -1 -4 -17 -23 -10)
1969/12/31/18:00:19.104,(4 0 -4 -3 1 14 23 4)
1969/12/31/18:00:19.116,(-9 -3 -2 0 -3 -6 -8 -12)
1969/12/31/18:00:19.116,(7 -11 -7 -4 -3 1 5 11)
1969/12/31/18:00:19.125,(7 6 1 2 2 0 2 2)
1969/12/31/18:00:19.125,(7 6 3 2 0 -2 -8 -7)
1969/12/31/18:00:19.140,(-18 13 4 4 2 4 4 -1)
1969/12/31/18:00:19.140,(1 -13 3 2 0 -1 -2 9)
1969/12/31/18:00:19.142,(-8 -25 -12 -6 -5 -5 -8 -3)
1969/12/31/18:00:19.142,(-2 24 2 0 -4 -11 -13 -22)
1969/12/31/18:00:19.163,(3 18 1 -4 0 6 -2 5)
1969/12/31/18:00:19.163,(-38 -45 -12 -5 -5 -11 0 -17)
1969/12/31/18:00:19.164,(15 17 16 8 5 13 6 6)
1969/12/31/18:00:19.164,(9 -15 -16 -4 -2 -2 -17 6)
1969/12/31/18:00:19.176,(3 3 5 0 -2 -7 -7 -14)
1969/12/31/18:00:19.176,(-23 -1 -4 -3 -2 8 2 -12)
1969/12/31/18:00:19.185,(-9 -6 -8 -5 -3 -10 -7 -2)
1969/12/31/18:00:19.185,(0 5 7 3 2 0 0 -8)
1969/12/31/18:00:19.200,(14 1 2 1 -1 0 4 7)
1969/12/31/18:00:19.200,(3 10 0 -3 1 1 -5 -1)
1969/12/31/18:00:19.202,(10 6 3 2 2 8 11 12)
1969/12/31/18:00:19.202,(-19 2 1 -1 -1 -5 -8 -24)
1969/12/31/18:00:19.222,(11 -9 -5 -3 -2 -2 0 20)
1969/12/31/18:00:19.222,(-5 -3 -7 -5 -4 -5 0 -2)
1969/12/31/18:00:19.224,(-10 -13 -4 -2 1 4 6 7)
1969/12/31/18:00:19.224,(8 7 -2 -3 -2 1 -3 1)
1969/12/31/18:00:19.236,(-4 -15 -3 2 1 1 5 2)
1969/12/31/18:00:19.236,(7 16 -1 -4 -6 -6 -10 -10)
1969/12/31/18:00:19.245,(-2 5 0 1 1 1 6 -2)
1969/12/31/18:00:19.245,(-17 -20 -9 -4 -4 1 -4 2)
1969/12/31/18:00:19.260,(1 -5 3 2 3 2 2 -4)
1969/12/31/18:00:19.260,(-30 -5 0 0 1 -8 -4 -6)
1969/12/31/18:00:19.262,(-4 9 1 1 -1 12 -2 -15)
1969/12/31/18:00:19.262,(2 4 8 6 5 -1 -6 -14)
1969/12/31/18:00:19.282,(-3 -11 -11 -8 -8 -1 0 10)
1969/12/31/18:00:19.282,(17 8 3 0 0 10 -2 -10)
1969/12/31/18:00:19.284,(-9 -1 -1 -2 -3 -12 -12 4)
1969/12/31/18:00:19.284,(25 13 -1 -3 -5 -11 1 7)
1969/12/31/18:00:19.296,(-31 -8 2 2 0 6 5 -16)
1969/12/31/18:00:19.296,(3 6 7 5 5 4 -3 -2)
1969/12/31/18:00:19.305,(20 -13 -14 -8 -5 1 2 16)
1969/12/31/18:00:19.305,(-6 1 2 2 5 9 -3 4)
1969/12/31/18:00:19.319,(-2 4 3 1 -2 -12 -11 -24)
1969/12/31/18:00:19.319,(32 5 -5 -5 -10 -4 23 71)
1969/12/31/18:00:19.327,(8 3 4 2 2 -9 -1 -8)
1969/12/31/18:00:19.327,(-27 -23 -16 -15 -14 -12 -5 -25)
1969/12/31/18:00:19.342,(37 26 13 9 14 39 41 47)
1969/12/31/18:00:19.342,(-43 -36 -25 -16 -11 -15 -23 -33)
1969/12/31/18:00:19.344,(-7 -14 5 9 4 -11 -20 -16)
1969/12/31/18:00:19.344,(-1 28 11 6 4 12 1 -15)
1969/12/31/18:00:19.356,(33 -10 -17 -11 -8 -5 20 71)
1969/12/31/18:00:19.356,(45 24 9 5 3 14 4 25)
1969/12/31/18:00:19.371,(29 7 -7 -5 -7 -22 19 19)
1969/12/31/18:00:19.371,(-43 -18 7 6 3 -9 -10 -39)
1969/12/31/18:00:19.380,(-67 8 -3 0 2 8 -12 -49)
1969/12/31/18:00:19.380,(41 -33 -5 2 -1 -12 6 19)
1969/12/31/18:00:19.381,(14 15 -4 -6 -2 7 -18 -2)
1969/12/31/18:00:19.381,(-1 2 10 4 1 0 -13 4)
1969/12/31/18:00:19.403,(-10 -18 -9 -1 -2 -11 -4 -14)
1969/12/31/18:00:19.403,(-30 12 3 2 2 0 -9 -23)
1969/12/31/18:00:19.404,(37 16 8 4 3 16 22 20)
1969/12/31/18:00:19.404,(12 -1 -4 -2 -4 -12 7 23)
1969/12/31/18:00:19.416,(9 -11 -2 -4 0 11 1 25)
1969/12/31/18:00:19.416,(-10 5 1 1 -1 0 14 2)
1969/12/31/18:00:19.425,(11 -2 3 4 1 -4 -7 -6)
1969/12/31/18:00:19.425,(2 9 -6 -4 2 29 3 14)
1969/12/31/18:00:19.439,(24 -7 -2 -3 -6 -5 19 23)
1969/12/31/18:00:19.439,(-10 14 11 6 3 -7 -19 -29)
1969/12/31/18:00:19.446,(22 -2 -11 -8 -7 -11 -5 14)
1969/12/31/18:00:19.446,(-3 -7 1 0 -1 -6 -8 8)
1969/12/31/18:00:19.463,(-38 13 10 4 5 22 1 -26)
1969/12/31/18:00:19.463,(3 -19 -1 -1 1 -1 3 -34)
1969/12/31/18:00:19.464,(-65 -21 -5 0 3 3 -11 -16)
1969/12/31/18:00:19.464,(20 3 -4 -4 -5 2 15 -18)
1969/12/31/18:00:19.476,(-16 -2 -5 -6 -7 -21 -18 -12)
1969/12/31/18:00:19.476,(12 30 9 5 4 1 -2 4)
1969/12/31/18:00:19.485,(-20 7 -1 -4 -7 -6 -7 -19)
1969/12/31/18:00:19.485,(-10 -32 -1 4 6 8 6 16)
1969/12/31/18:00:19.499,(1 -7 -4 1 5 3 6 -15)
1969/12/31/18:00:19.499,(12 14 -7 -9 -10 -7 -9 -10)
1969/12/31/18:00:19.506,(-41 -7 6 5 5 7 5 -2)
1969/12/31/18:00:19.506,(0 -30 -16 -10 -10 -12 6 9)
1969/12/31/18:00:19.523,(6 2 0 0 -4 -14 -31 -21)
1969/12/31/18:00:19.523,(7 -3 1 2 2 0 12 34)
1969/12/31/18:00:19.524,(-17 4 -2 -1 -2 21 -7 -35)
1969/12/31/18:00:19.524,(-17 2 -2 0 -3 -17 -3 3)
1969/12/31/18:00:19.536,(17 -5 -2 -1 -3 -8 -3 10)
1969/12/31/18:00:19.536,(-19 1 4 2 6 13 6 -6)
1969/12/31/18:00:19.545,(-11 -1 5 2 2 -4 1 12)
1969/12/31/18:00:19.545,(-31 -1 -1 -2 -2 -10 -20 -55)
1969/12/31/18:00:19.559,(30 -18 -11 -8 -6 -12 -4 9)
1969/12/31/18:00:19.559,(15 21 1 2 2 -2 -9 0)
1969/12/31/18:00:19.566,(21 18 8 2 0 1 19 17)
1969/12/31/18:00:19.566,(43 27 12 3 2 6 4 32)
1969/12/31/18:00:19.582,(-32 -19 -9 -4 -4 -5 5 -5)
1969/12/31/18:00:19.582,(-66 -19 1 2 4 2 -6 -19)
1969/12/31/18:00:19.584,(50 -8 -13 -6 -4 -6 2 26)
1969/12/31/18:00:19.584,(23 42 18 3 -2 -1 7 19)
1969/12/31/18:00:19.605,(-18 -31 -21 -14 -8 -4 -11 -17)
1969/12/31/18:00:19.606,(-22 18 19 17 18 25 -5 -16)
1969/12/31/18:00:19.607,(3 -21 -12 -8 -8 -8 -4 -33)
1969/12/31/18:00:19.607,(-12 6 3 5 3 5 1 3)
1969/12/31/18:00:19.619,(-51 -3 0 -1 -2 9 17 -56)
1969/12/31/18:00:19.619,(-20 -13 -13 -12 -10 2 -21 -21)
1969/12/31/18:00:19.626,(10 6 0 -2 1 -2 15 27)
1969/12/31/18:00:19.626,(10 3 4 5 4 10 -10 -6)
1969/12/31/18:00:19.642,(16 1 -1 1 0 3 21 35)
1969/12/31/18:00:19.642,(7 -6 -9 -6 -5 -10 -2 23)
1969/12/31/18:00:19.650,(-12 -3 -5 -6 -5 1 -10 -20)
1969/12/31/18:00:19.650,(4 6 7 3 3 -13 -13 -9)
1969/12/31/18:00:19.665,(0 4 0 -1 0 -3 1 17)
1969/12/31/18:00:19.665,(29 9 -4 -5 1 11 52 36)
1969/12/31/18:00:19.667,(-3 -11 -7 -7 -7 -21 1 8)
1969/12/31/18:00:19.667,(4 6 8 6 9 14 5 6)
1969/12/31/18:00:19.679,(-40 -3 7 4 1 -15 -35 -17)
1969/12/31/18:00:19.679,(12 -24 -15 -9 -7 -10 -7 -13)
1969/12/31/18:00:19.686,(61 39 15 7 5 7 18 50)
1969/12/31/18:00:19.686,(19 13 -3 -2 1 0 3 4)
1969/12/31/18:00:19.703,(4 5 6 4 1 15 -12 6)
1969/12/31/18:00:19.703,(-69 -41 -13 -11 -13 -31 -32 -69)
1969/12/31/18:00:19.704,(21 14 10 10 9 13 -1 23)
1969/12/31/18:00:19.704,(-70 -21 -6 -7 -2 -5 3 -31)
1969/12/31/18:00:19.725,(42 5 -4 -4 -4 -3 4 7)
1969/12/31/18:00:19.725,(-9 14 11 10 4 2 -20 -18)
1969/12/31/18:00:19.727,(-16 -13 -8 -7 -11 -16 -7 -37)
1969/12/31/18:00:19.727,(-44 -26 -11 -5 -7 -7 20 14)
1969/12/31/18:00:19.739,(31 18 5 0 2 11 13 3)
1969/12/31/18:00:19.739,(54 10 2 0 3 8 12 50)
1969/12/31/18:00:19.748,(-38 6 8 5 1 -4 -12 -31)
1969/12/31/18:00:19.748,(26 28 10 4 -1 -9 -9 -24)
1969/12/31/18:00:19.762,(-6 -9 -11 -6 -11 -32 13 64)
1969/12/31/18:00:19.762,(0 -17 -9 0 25 32 81 34)
1969/12/31/18:00:19.764,(37 6 0 1 -5 -8 -83 11)
1969/12/31/18:00:19.764,(-27 -43 -35 -24 -27 -33 37 -53)
1969/12/31/18:00:19.785,(-65 13 13 6 1 -21 -33 -46)
1969/12/31/18:00:19.785,(32 3 0 -3 -8 -15 -6 -17)
1969/12/31/18:00:19.786,(-33 -9 -4 -4 7 20 21 1)
1969/12/31/18:00:19.786,(36 16 6 5 6 15 7 5)
1969/12/31/18:00:19.799,(-3 6 14 7 7 0 -10 -43)
1969/12/31/18:00:19.799,(-39 -8 -2 -2 -8 -27 -41 -4)
1969/12/31/18:00:19.815,(39 8 -1 0 0 6 14 -3)
1969/12/31/18:00:19.815,(6 9 10 9 5 6 -12 -10)
1969/12/31/18:00:19.822,(64 0 -9 -4 -2 5 51 33)
1969/12/31/18:00:19.822,(40 52 22 11 16 25 -40 32)
1969/12/31/18:00:19.824,(2 -23 4 10 4 -1 11 79)
1969/12/31/18:00:19.824,(-84 -61 -29 -15 -4 -16 -40 -67)
1969/12/31/18:00:19.845,(62 22 0 5 16 2 -21 27)
1969/12/31/18:00:19.845,(30 1 6 2 -11 5 5 -8)
1969/12/31/18:00:19.846,(-4 13 -8 -23 -24 -14 4 -17)
1969/12/31/18:00:19.846,(52 33 21 8 5 31 25 67)
1969/12/31/18:00:19.858,(-6 -51 -21 -3 4 42 40 17)
1969/12/31/18:00:19.858,(-30 6 -5 -7 -3 -31 -42 -22)
1969/12/31/18:00:19.867,(-41 -20 -6 6 12 12 4 -26)
1969/12/31/18:00:19.867,(78 55 13 3 -1 -1 -1 61)
1969/12/31/18:00:19.883,(-23 -17 0 7 16 18 10 -23)
1969/12/31/18:00:19.883,(52 -11 -7 -5 -19 -25 16 71)
1969/12/31/18:00:19.884,(-35 -2 2 0 2 -13 -13 -51)
1969/12/31/18:00:19.884,(-8 -14 0 -4 -4 24 -2 14)
1969/12/31/18:00:19.905,(22 17 -2 -15 -21 -12 -20 -14)
1969/12/31/18:00:19.905,(-41 -3 -2 8 20 3 8 -7)
1969/12/31/18:00:19.906,(-48 -46 -9 -11 -23 -21 -31 -54)
1969/12/31/18:00:19.906,(11 -28 -10 4 -1 -15 1 36)
1969/12/31/18:00:19.919,(6 21 12 5 13 -16 -32 -28)
1969/12/31/18:00:19.919,(-20 -16 -8 -12 -25 -9 25 -2)
1969/12/31/18:00:19.928,(9 5 0 4 16 30 1 22)
1969/12/31/18:00:19.928,(-32 -14 -4 1 -6 -22 -31 -26)
1969/12/31/18:00:19.942,(-3 -14 -7 -19 -32 9 10 2)
1969/12/31/18:00:19.942,(7 51 9 -3 12 14 -12 -32)
1969/12/31/18:00:19.944,(-55 -35 -7 -2 2 -31 8 -9)
1969/12/31/18:00:19.944,(14 -18 -14 -3 14 -1 2 41)
1969/12/31/18:00:19.965,(-21 15 6 0 -25 -6 -19 -34)
1969/12/31/18:00:19.965,(-10 -14 -1 0 -10 -3 12 -10)
1969/12/31/18:00:19.966,(6 -7 -7 6 6 12 14 -1)
1969/12/31/18:00:19.966,(-12 11 3 -5 -8 -10 -16 -12)
1969/12/31/18:00:19.979,(-27 -10 -3 7 23 -4 -12 0)
1969/12/31/18:00:19.979,(33 3 -8 -15 -25 38 -17 -2)
1969/12/31/18:00:19.988,(-10 -31 -14 4 -4 -14 -5 12)
1969/12/31/18:00:19.988,(37 29 10 5 23 21 4 21)
1969/12/31/18:00:20.010,(-16 -3 6 8 13 12 14 -9)
1969/12/31/18:00:20.010,(37 -3 -8 -26 -48 -21 24 23)
1969/12/31/18:00:20.012,(-38 26 4 -10 -4 -11 6 -3)
1969/12/31/18:00:20.012,(-7 5 -9 -13 -18 -4 9 -13)
1969/12/31/18:00:20.025,(-6 -16 -9 6 18 -37 -54 -48)
1969/12/31/18:00:20.025,(-25 -12 3 4 -2 24 1 -14)
1969/12/31/18:00:20.026,(20 8 1 -2 8 43 25 22)
1969/12/31/18:00:20.026,(1 22 11 11 12 2 6 0)
1969/12/31/18:00:20.039,(-18 -19 -9 -10 -16 -7 19 2)
1969/12/31/18:00:20.039,(-27 -18 -3 14 7 -25 -9 -26)
1969/12/31/18:00:20.047,(7 -2 1 1 -6 2 -8 -15)
1969/12/31/18:00:20.047,(-8 -11 -11 -13 -3 -1 -15 -20)
1969/12/31/18:00:20.062,(17 29 14 10 18 11 -1 13)
1969/12/31/18:00:20.062,(9 -20 -6 11 13 -9 -3 13)
1969/12/31/18:00:20.064,(17 23 5 9 8 -23 20 39)
1969/12/31/18:00:20.064,(-16 -22 -4 1 -13 15 -1 -28)
1969/12/31/18:00:20.085,(25 26 3 -9 3 21 17 40)
1969/12/31/18:00:20.085,(1 -1 2 6 1 20 17 34)
1969/12/31/18:00:20.086,(14 -19 -17 -32 -19 6 -8 -46)
1969/12/31/18:00:20.086,(21 -28 -6 9 3 -19 5 -6)
1969/12/31/18:00:20.099,(-40 -24 -34 -18 -5 14 1 -1)
1969/12/31/18:00:20.099,(27 66 64 25 29 0 1 38)
1969/12/31/18:00:20.115,(2 12 -1 18 1 -14 -12 -19)
1969/12/31/18:00:20.115,(-2 -19 -6 -21 -19 -13 10 53)
1969/12/31/18:00:20.122,(5 -4 -12 -4 -15 -25 -4 -19)
1969/12/31/18:00:20.122,(12 -85 -39 11 69 46 -1 25)
1969/12/31/18:00:20.124,(14 93 58 -1 -33 -32 -19 -27)
1969/12/31/18:00:20.124,(-20 8 36 13 11 17 5 -34)
1969/12/31/18:00:20.145,(3 1 -44 -15 -24 -46 -11 15)
1969/12/31/18:00:20.145,(-36 27 73 22 7 -5 -3 -29)
1969/12/31/18:00:20.146,(-5 -48 -40 -11 12 29 9 -32)
1969/12/31/18:00:20.146,(-12 11 -9 -2 7 -10 -30 -37)
1969/12/31/18:00:20.158,(-30 -82 -39 -22 -17 6 -8 -18)
1969/12/31/18:00:20.158,(-87 53 14 7 -5 -42 7 -62)
1969/12/31/18:00:20.167,(46 -55 -76 -48 -59 -14 -9 18)
1969/12/31/18:00:20.167,(-72 82 64 38 66 63 7 -44)
1969/12/31/18:00:20.182,(72 83 62 32 1 1 8 9)
1969/12/31/18:00:20.182,(23 -28 -19 -8 -17 14 12 46)
1969/12/31/18:00:20.182,(-23 -96 -76 -9 7 -10 2 38)
1969/12/31/18:00:20.182,(-12 -5 -70 -42 -36 -28 -2 -6)
1969/12/31/18:00:20.204,(-5 66 89 29 10 7 1 27)
1969/12/31/18:00:20.204,(52 -52 -57 -18 3 -6 17 61)
1969/12/31/18:00:20.205,(19 101 90 19 3 -1 -24 -12)
1969/12/31/18:00:20.205,(1 -49 -21 3 -18 -5 17 -5)
1969/12/31/18:00:20.227,(-19 -85 -60 -18 -3 -11 -9 -5)
1969/12/31/18:00:20.227,(59 55 -13 -4 11 11 -8 -7)
1969/12/31/18:00:20.227,(10 37 46 -4 -8 11 6 5)
1969/12/31/18:00:20.227,(43 -18 -13 -1 9 17 13 19)
1969/12/31/18:00:20.242,(-3 -31 -24 6 13 -3 -3 -10)
1969/12/31/18:00:20.242,(-22 -18 -12 5 -1 -25 -39 -27)
1969/12/31/18:00:20.242,(-18 -109 -77 -33 -10 40 66 44)
1969/12/31/18:00:20.242,(17 91 40 3 -28 -31 7 79)
1969/12/31/18:00:20.264,(-33 5 37 31 30 8 -10 -54)
1969/12/31/18:00:20.264,(-45 -120 -109 -37 -31 8 -1 -22)
1969/12/31/18:00:20.265,(-6 75 40 27 34 22 -11 -20)
1969/12/31/18:00:20.265,(-1 -128 -109 -29 -25 -34 6 17)
1969/12/31/18:00:20.287,(22 61 14 -8 15 26 17 67)
1969/12/31/18:00:20.287,(10 61 44 -2 -18 -23 -40 -101)
1969/12/31/18:00:20.287,(14 51 33 26 19 4 24 64)
1969/12/31/18:00:20.287,(-30 -105 -64 -16 -9 -12 -22 -40)
1969/12/31/18:00:20.302,(2 71 -27 -22 -25 -19 -17 -25)
1969/12/31/18:00:20.302,(4 2 72 50 56 42 29 43)
1969/12/31/18:00:20.303,(53 0 -32 -8 1 -4 -22 -35)
1969/12/31/18:00:20.303,(-38 -5 -15 -18 -29 6 16 -19)
1969/12/31/18:00:20.324,(-41 -64 7 5 1 -15 -8 -25)
1969/12/31/18:00:20.324,(31 -6 -44 -40 -29 2 15 52)
1969/12/31/18:00:20.325,(-23 -38 -34 1 4 -10 15 20)
1969/12/31/18:00:20.325,(30 69 94 50 27 -18 -18 -4)
1969/12/31/18:00:20.347,(32 -65 -94 -29 -2 39 30 81)
1969/12/31/18:00:20.347,(-23 104 102 33 -5 -1 22 -8)
1969/12/31/18:00:20.347,(-2 -40 -14 6 7 -3 -6 -7)
1969/12/31/18:00:20.347,(26 4 -37 -29 -12 -14 -12 3)
1969/12/31/18:00:20.362,(-1 13 21 7 -9 -10 -2 -12)
1969/12/31/18:00:20.362,(3 -51 -29 -3 -5 -12 0 7)
1969/12/31/18:00:20.362,(6 -19 -11 -7 -5 -14 -17 14)
1969/12/31/18:00:20.362,(-17 -47 -65 -7 20 3 17 60)
1969/12/31/18:00:20.384,(18 77 92 14 -38 -5 -6 -26)
1969/12/31/18:00:20.384,(-74 -103 -89 -46 -16 4 11 -16)
1969/12/31/18:00:20.385,(6 127 115 39 16 10 16 16)
1969/12/31/18:00:20.385,(5 -50 -21 -1 1 -5 -16 -35)
1969/12/31/18:00:20.407,(17 -26 -34 -3 1 -10 -12 16)
1969/12/31/18:00:20.407,(6 13 29 37 41 16 -10 1)
1969/12/31/18:00:20.407,(-12 -103 -70 -44 -36 -1 -6 12)
1969/12/31/18:00:20.407,(-39 20 12 -7 -4 14 -12 -64)
1969/12/31/18:00:20.423,(-52 -106 -38 -18 -12 -10 6 -10)
1969/12/31/18:00:20.423,(19 36 -43 -21 -15 -38 -31 -24)
1969/12/31/18:00:20.424,(-4 78 90 43 39 27 -2 -18)
1969/12/31/18:00:20.424,(-21 -11 7 2 -8 4 2 -9)
1969/12/31/18:00:20.444,(44 -33 -11 7 15 15 -10 -5)
1969/12/31/18:00:20.444,(-21 -9 -40 -11 -1 -22 -2 -10)
1969/12/31/18:00:20.445,(-5 -66 -55 -9 -21 -32 -9 -44)
1969/12/31/18:00:20.445,(43 29 45 21 8 20 11 53)
1969/12/31/18:00:20.467,(12 30 11 -3 -6 14 10 26)
1969/12/31/18:00:20.467,(10 -31 -20 -13 -18 1 11 18)
1969/12/31/18:00:20.467,(12 -73 -67 -21 -7 -19 -27 15)
1969/12/31/18:00:20.467,(32 82 65 23 1 13 36 56)
1969/12/31/18:00:20.483,(-14 -34 -42 -19 -11 -28 -20 -33)
1969/12/31/18:00:20.483,(13 -5 0 -2 -3 -2 -2 -1)
1969/12/31/18:00:20.484,(-22 59 77 30 5 -8 -14 -38)
1969/12/31/18:00:20.484,(-10 -94 -84 -38 -13 -18 -25 -14)
1969/12/31/18:00:20.504,(-66 83 99 50 34 15 -1 -41)
1969/12/31/18:00:20.504,(-11 -24 8 -5 -14 -4 -6 -18)
1969/12/31/18:00:20.505,(-29 0 -12 -1 4 -2 11 -1)
1969/12/31/18:00:20.505,(-1 -26 -21 2 21 11 -15 -27)
1969/12/31/18:00:20.527,(-23 -58 -52 -35 -41 -14 -8 -14)
1969/12/31/18:00:20.527,(24 76 52 15 10 3 -4 -20)
1969/12/31/18:00:20.527,(24 -11 -9 8 4 7 12 16)
1969/12/31/18:00:20.527,(5 38 33 9 17 17 12 12)
1969/12/31/18:00:20.543,(9 -31 -24 -19 -16 -19 -12 2)
1969/12/31/18:00:20.543,(-29 -79 -49 -9 13 13 4 17)
1969/12/31/18:00:20.544,(-15 -33 -28 -4 7 16 4 -16)
1969/12/31/18:00:20.544,(3 61 -16 -30 -25 -20 -10 0)
1969/12/31/18:00:20.566,(-43 -3 24 26 21 3 -5 -29)
1969/12/31/18:00:20.566,(25 -13 -33 -12 0 -12 -6 8)
1969/12/31/18:00:20.566,(-7 115 106 23 -20 0 15 24)
1969/12/31/18:00:20.566,(-21 -1 17 -6 -23 -21 7 5)
1969/12/31/18:00:20.587,(44 -1 -15 -11 3 24 5 16)
1969/12/31/18:00:20.587,(4 -52 -37 -7 3 -3 -4 10)
1969/12/31/18:00:20.587,(5 -33 -45 -17 -20 -20 -1 18)
1969/12/31/18:00:20.587,(34 8 8 8 6 0 -12 -12)
1969/12/31/18:00:20.602,(4 34 12 -2 -21 -27 2 -16)
1969/12/31/18:00:20.602,(23 -67 -18 -4 21 28 12 25)
1969/12/31/18:00:20.602,(-47 -10 -41 -20 -1 7 -13 -20)
1969/12/31/18:00:20.602,(30 86 104 42 6 -4 -6 -33)
1969/12/31/18:00:20.632,(-33 -67 -73 -20 -2 -14 -6 8)
1969/12/31/18:00:20.632,(28 105 90 26 -5 6 13 3)
1969/12/31/18:00:20.633,(-5 -29 20 16 11 2 -11 -22)
1969/12/31/18:00:20.633,(66 -18 -32 2 12 11 -4 16)
1969/12/31/18:00:20.647,(-45 24 75 13 4 -3 3 2)
1969/12/31/18:00:20.647,(-40 -107 -73 -11 -32 -46 -22 -29)
1969/12/31/18:00:20.647,(14 34 2 -15 7 42 -10 -17)
1969/12/31/18:00:20.647,(-32 53 80 27 31 28 27 -5)
1969/12/31/18:00:20.662,(-2 -122 -116 -20 11 -11 7 27)
1969/12/31/18:00:20.662,(29 127 69 -11 -45 -18 -2 21)
1969/12/31/18:00:20.662,(-14 -20 -8 3 7 -6 10 20)
1969/12/31/18:00:20.662,(-6 -11 -13 -2 -2 10 5 0)
1969/12/31/18:00:20.684,(-2 -39 -31 35 47 19 36 15)
1969/12/31/18:00:20.684,(-19 110 102 -6 1 -1 -14 -7)
1969/12/31/18:00:20.685,(-5 -91 -86 -19 -13 -30 -3 -1)
1969/12/31/18:00:20.685,(-3 34 34 15 2 16 -3 -6)
1969/12/31/18:00:20.706,(-37 -66 -58 -26 -25 -13 -16 -29)
1969/12/31/18:00:20.706,(0 -101 -71 4 26 20 11 3)
1969/12/31/18:00:20.707,(10 75 60 22 -1 -20 -4 -10)
1969/12/31/18:00:20.707,(-45 -94 -72 -11 -4 -14 -12 -27)
1969/12/31/18:00:20.722,(18 53 44 13 -4 17 -1 -10)
1969/12/31/18:00:20.722,(-18 -128 -121 -33 -3 17 3 2)
1969/12/31/18:00:20.722,(10 76 76 26 9 -9 -17 -31)
1969/12/31/18:00:20.722,(-17 -50 -26 3 6 -13 -16 -28)
1969/12/31/18:00:20.744,(17 -10 -3 -10 2 22 19 4)
1969/12/31/18:00:20.744,(24 71 28 2 -17 -23 -6 6)
1969/12/31/18:00:20.745,(1 -33 -37 -16 10 17 4 5)
1969/12/31/18:00:20.745,(-7 -2 18 22 13 -7 -3 4)
1969/12/31/18:00:20.767,(7 -65 -56 -41 -16 1 -21 -20)
1969/12/31/18:00:20.767,(-22 22 -4 5 -1 -21 -12 -30)
1969/12/31/18:00:20.774,(-5 30 28 20 33 9 5 17)
1969/12/31/18:00:20.774,(-8 -5 16 -9 -10 26 11 0)
1969/12/31/18:00:20.782,(35 54 32 -12 -26 -16 -8 3)
1969/12/31/18:00:20.782,(-20 -60 -37 3 16 18 5 -16)
1969/12/31/18:00:20.782,(-17 -26 -2 13 20 -14 0 12)
1969/12/31/18:00:20.782,(7 -34 -55 -38 -48 -28 -19 -18)
1969/12/31/18:00:20.804,(4 2 -16 -9 2 14 16 13)
1969/12/31/18:00:20.804,(-3 34 23 19 15 9 -4 -20)
1969/12/31/18:00:20.805,(-21 18 40 8 0 5 4 -27)
1969/12/31/18:00:20.805,(14 -41 -38 1 9 -5 2 23)
1969/12/31/18:00:20.827,(16 91 60 15 -4 -9 -7 -17)
1969/12/31/18:00:20.827,(-15 75 88 27 7 0 11 30)
1969/12/31/18:00:20.828,(1 -128 -128 -52 -28 -5 6 9)
1969/12/31/18:00:20.828,(10 48 -17 -11 -10 -5 2 42)
1969/12/31/18:00:20.842,(18 50 83 46 23 -12 0 31)
1969/12/31/18:00:20.842,(13 -53 -36 -13 0 21 -2 5)
1969/12/31/18:00:20.843,(11 -29 -9 -6 -11 -3 8 19)
1969/12/31/18:00:20.843,(-4 -47 -22 8 35 -13 11 18)
1969/12/31/18:00:20.864,(10 -30 -47 -9 20 21 6 16)
1969/12/31/18:00:20.864,(68 46 27 -15 -63 1 5 25)
1969/12/31/18:00:20.865,(-18 -56 -49 -43 -38 -20 -13 -15)
1969/12/31/18:00:20.865,(18 81 38 15 26 -4 -11 -20)
1969/12/31/18:00:20.887,(-1 110 105 28 4 -2 -6 -23)
1969/12/31/18:00:20.887,(35 63 59 41 24 3 11 35)
1969/12/31/18:00:20.887,(8 -22 -10 -3 -8 11 1 -14)
1969/12/31/18:00:20.887,(-9 -76 -35 -8 -7 -8 -4 -8)
1969/12/31/18:00:20.902,(-32 -115 -116 -25 9 -16 -5 -5)
1969/12/31/18:00:20.902,(1 73 43 -5 -18 -1 -13 -21)
1969/12/31/18:00:20.902,(10 18 38 32 14 3 -5 6)
1969/12/31/18:00:20.902,(-5 -59 -43 -9 -6 13 3 3)
1969/12/31/18:00:20.924,(3 -26 0 6 -4 -2 16 12)
1969/12/31/18:00:20.924,(-56 -111 -89 -41 -18 -21 -32 -52)
1969/12/31/18:00:20.925,(5 8 -2 -8 2 -3 8 3)
1969/12/31/18:00:20.925,(-38 -41 -19 -3 4 1 -19 -23)
1969/12/31/18:00:20.947,(13 40 11 -5 1 13 7 16)
1969/12/31/18:00:20.947,(-32 -89 -47 -7 10 -1 -23 -30)
1969/12/31/18:00:20.948,(13 127 76 9 11 19 12 1)
1969/12/31/18:00:20.948,(31 22 1 -12 -7 17 26 10)
1969/12/31/18:00:20.962,(8 -6 2 7 -12 -31 -15 -9)
1969/12/31/18:00:20.962,(-57 -81 -40 9 26 17 -1 -27)
1969/12/31/18:00:20.962,(10 -56 -94 -35 -7 -8 -9 2)
1969/12/31/18:00:20.962,(38 81 85 16 -14 -9 6 25)
1969/12/31/18:00:20.984,(8 -5 9 5 -2 -2 -11 -24)
1969/12/31/18:00:20.984,(6 -22 -23 -6 1 -11 5 13)
1969/12/31/18:00:20.985,(12 -57 -33 8 21 31 15 26)
1969/12/31/18:00:20.985,(-1 35 5 -1 -18 -14 2 -4)
1969/12/31/18:00:21.008,(6 -3 16 8 8 10 -7 -7)
1969/12/31/18:00:21.008,(-53 -112 -71 -25 -24 -17 -5 -12)
1969/12/31/18:00:21.009,(0 67 61 19 9 -1 8 -7)
1969/12/31/18:00:21.009,(-39 -53 9 2 -4 -10 -16 -25)
1969/12/31/18:00:21.022,(17 -7 -39 -14 -21 -1 -4 10)
1969/12/31/18:00:21.022,(-36 -36 4 -10 -10 4 22 -6)
1969/12/31/18:00:21.023,(-1 2 -47 -10 -15 -14 -21 -13)
1969/12/31/18:00:21.023,(11 25 31 22 12 -3 -14 -4)
1969/12/31/18:00:21.044,(-28 -73 -37 1 1 -2 -8 -9)
1969/12/31/18:00:21.044,(42 43 -5 -4 13 2 5 23)
1969/12/31/18:00:21.045,(-41 21 27 1 -9 2 -7 -26)
1969/12/31/18:00:21.045,(-4 -98 -61 -32 -18 -5 3 6)
1969/12/31/18:00:21.067,(-18 12 -18 0 14 2 -5 -1)
1969/12/31/18:00:21.068,(22 122 119 44 7 5 -2 -49)
1969/12/31/18:00:21.068,(-7 -80 -36 -4 -9 -36 -8 -20)
1969/12/31/18:00:21.068,(-22 16 8 5 9 33 -1 -7)
1969/12/31/18:00:21.081,(18 -9 -11 -12 -22 -25 -16 0)
1969/12/31/18:00:21.081,(31 70 21 17 16 -1 2 15)
1969/12/31/18:00:21.089,(23 38 39 24 22 15 20 23)
1969/12/31/18:00:21.089,(-28 -73 -39 -13 -2 -7 3 -10)
1969/12/31/18:00:21.104,(-32 -83 -61 -38 -21 3 -8 -22)
1969/12/31/18:00:21.104,(13 67 54 11 -11 -26 -2 13)
1969/12/31/18:00:21.105,(-6 -53 -22 5 -5 7 -9 22)
1969/12/31/18:00:21.105,(-18 -108 -117 -44 6 12 15 2)
1969/12/31/18:00:21.127,(56 127 112 48 5 6 -6 -31)
1969/12/31/18:00:21.127,(6 -71 -66 6 0 -12 -13 14)
1969/12/31/18:00:21.128,(13 -106 -60 -19 -15 -7 -2 3)
1969/12/31/18:00:21.128,(5 -56 -18 -7 -21 -6 17 23)
1969/12/31/18:00:21.150,(-39 -63 -50 -35 -5 2 -17 -18)
1969/12/31/18:00:21.150,(41 51 58 19 22 19 18 5)
1969/12/31/18:00:21.151,(-11 -6 -26 -19 -7 0 -9 -10)
1969/12/31/18:00:21.151,(9 -8 2 -2 -1 -9 -9 16)
1969/12/31/18:00:21.164,(9 55 26 23 8 7 33 34)
1969/12/31/18:00:21.164,(-14 -2 11 4 10 10 -28 -7)
1969/12/31/18:00:21.165,(14 -48 -20 -3 1 -3 11 35)
1969/12/31/18:00:21.165,(-35 -59 -77 -30 -5 -3 -26 -73)
1969/12/31/18:00:21.187,(-8 71 55 35 19 4 14 22)
1969/12/31/18:00:21.187,(-10 -77 -86 -36 -15 10 3 -2)
1969/12/31/18:00:21.187,(25 -18 -13 -7 -16 -6 3 6)
1969/12/31/18:00:21.187,(11 63 66 32 6 -3 9 32)
1969/12/31/18:00:21.203,(-11 -46 -62 -21 -6 -4 -11 -25)
1969/12/31/18:00:21.203,(-4 10 10 10 12 8 4 -14)
1969/12/31/18:00:21.209,(-37 -62 -39 -25 -18 -12 -16 -12)
1969/12/31/18:00:21.209,(-6 61 70 28 9 -25 -14 -34)
1969/12/31/18:00:21.241,(-4 32 17 -3 5 16 -6 -10)
1969/12/31/18:00:21.241,(-12 -96 -83 -40 -24 -8 22 20)
1969/12/31/18:00:21.242,(-29 44 -10 18 32 6 -14 -29)
1969/12/31/18:00:21.242,(42 61 14 22 -22 -15 -6 8)
1969/12/31/18:00:21.247,(12 -10 47 15 0 11 29 41)
1969/12/31/18:00:21.247,(-16 -33 -20 -10 -9 -15 -14 -32)
1969/12/31/18:00:21.248,(-22 -53 -28 -15 4 18 10 -2)
1969/12/31/18:00:21.248,(-20 -49 -41 -9 8 -5 -5 -8)
1969/12/31/18:00:21.261,(35 46 23 9 0 -21 -19 -6)
1969/12/31/18:00:21.261,(29 43 30 9 -3 7 18 33)
1969/12/31/18:00:21.269,(-9 5 15 2 -6 -4 3 -6)
1969/12/31/18:00:21.269,(11 6 -18 -12 -6 14 15 26)
1969/12/31/18:00:21.284,(-40 -83 -24 -14 -12 -1 -4 -5)
1969/12/31/18:00:21.284,(20 11 28 8 15 -15 -16 -11)
1969/12/31/18:00:21.285,(15 39 17 2 -12 -6 0 5)
1969/12/31/18:00:21.285,(-1 6 -6 -3 -4 6 -9 -17)
1969/12/31/18:00:21.307,(-10 -47 -15 -4 3 6 13 14)
1969/12/31/18:00:21.307,(-31 -78 -66 -16 2 0 -9 -8)
1969/12/31/18:00:21.314,(8 -49 -55 -17 -4 -18 6 34)
1969/12/31/18:00:21.314,(34 71 75 29 13 23 8 15)
1969/12/31/18:00:21.321,(18 5 1 20 24 8 -1 9)
1969/12/31/18:00:21.321,(16 58 35 10 -35 -23 -11 -26)
1969/12/31/18:00:21.329,(-31 -76 -22 -4 -3 2 -10 -9)
1969/12/31/18:00:21.329,(-2 -3 -30 -27 -8 -1 7 12)
1969/12/31/18:00:21.344,(-25 0 -32 -18 -1 -2 4 3)
1969/12/31/18:00:21.344,(-14 -4 31 12 -3 -2 -19 -23)
1969/12/31/18:00:21.345,(40 -30 -36 -19 -10 -20 -19 -5)
1969/12/31/18:00:21.345,(0 15 -8 -2 -4 2 -1 7)
1969/12/31/18:00:21.367,(-4 -26 2 0 -4 -2 -5 -2)
1969/12/31/18:00:21.367,(-14 6 -15 -2 2 8 11 11)
1969/12/31/18:00:21.368,(31 31 47 36 38 13 6 8)
1969/12/31/18:00:21.368,(-29 14 -3 -4 -11 -10 -26 -41)
1969/12/31/18:00:21.381,(6 7 -44 -35 -28 -22 -4 -1)
1969/12/31/18:00:21.381,(2 16 34 16 8 7 22 36)
1969/12/31/18:00:21.389,(12 51 45 6 3 8 3 -5)
1969/12/31/18:00:21.389,(-2 -60 -42 -7 0 -4 2 8)
1969/12/31/18:00:21.404,(21 5 13 17 23 3 7 2)
1969/12/31/18:00:21.404,(-62 -66 -48 -21 -16 -6 -21 -59)
1969/12/31/18:00:21.405,(2 -57 -56 -22 -11 6 2 -14)
1969/12/31/18:00:21.405,(12 36 -11 -29 -18 -1 -15 -10)
1969/12/31/18:00:21.428,(26 97 103 48 10 12 24 38)
1969/12/31/18:00:21.428,(-45 -69 -48 -14 -2 -22 -34 -65)
1969/12/31/18:00:21.428,(-18 -64 -18 3 5 3 -2 4)
1969/12/31/18:00:21.428,(19 59 49 15 10 1 3 10)
1969/12/31/18:00:21.450,(11 -90 -70 -20 -5 3 3 4)
1969/12/31/18:00:21.450,(19 -18 -32 -18 -6 5 14 44)
1969/12/31/18:00:21.451,(22 126 107 47 7 -7 6 19)
1969/12/31/18:00:21.451,(6 -70 -52 -8 -5 8 4 9)
1969/12/31/18:00:21.464,(-14 -20 -27 -4 -5 -7 -14 -28)
1969/12/31/18:00:21.464,(-1 -47 -25 2 19 17 14 31)
1969/12/31/18:00:21.465,(-33 -32 -49 -18 -18 -6 -22 -48)
1969/12/31/18:00:21.465,(11 32 31 12 0 -10 30 30)
1969/12/31/18:00:21.488,(-5 -8 29 5 7 20 -5 -8)
1969/12/31/18:00:21.488,(-19 -49 -59 -29 -13 -17 -19 8)
1969/12/31/18:00:21.489,(-29 79 38 15 9 4 11 -33)
1969/12/31/18:00:21.489,(-24 3 25 24 20 -2 -35 -73)
1969/12/31/18:00:21.510,(59 -57 -60 -41 -58 -30 2 37)
1969/12/31/18:00:21.510,(-3 -15 -21 -20 -12 5 15 16)
1969/12/31/18:00:21.511,(6 88 82 30 19 13 1 9)
1969/12/31/18:00:21.511,(-3 -83 -71 -10 20 -4 0 10)
1969/12/31/18:00:21.524,(-5 85 54 12 -17 -8 -1 -9)
1969/12/31/18:00:21.524,(4 13 20 16 11 0 -9 -15)
1969/12/31/18:00:21.525,(17 -50 -44 -14 -11 -8 5 21)
1969/12/31/18:00:21.525,(-16 -25 -1 -11 -3 4 11 18)
1969/12/31/18:00:21.548,(-37 -48 -40 -13 4 -3 -2 -19)
1969/12/31/18:00:21.548,(53 75 57 43 28 11 24 55)
1969/12/31/18:00:21.549,(5 -21 -15 -17 -17 20 18 -36)
1969/12/31/18:00:21.549,(-5 79 54 2 -1 0 -4 -27)
1969/12/31/18:00:21.571,(-20 -62 -30 -3 17 12 -9 3)
1969/12/31/18:00:21.571,(-4 37 45 16 -4 -13 -2 -1)
1969/12/31/18:00:21.572,(5 -4 -29 -17 8 4 -6 4)
1969/12/31/18:00:21.572,(66 101 106 56 25 23 16 32)
1969/12/31/18:00:21.584,(-17 -33 8 4 3 -2 -11 -33)
1969/12/31/18:00:21.584,(-12 -58 -59 -23 -19 -8 4 -8)
1969/12/31/18:00:21.585,(10 13 -31 -10 -3 -12 -11 10)
1969/12/31/18:00:21.585,(-23 -28 -15 -2 -2 7 6 -11)
1969/12/31/18:00:21.608,(21 32 -1 4 16 3 2 11)
1969/12/31/18:00:21.608,(-8 -34 -10 -3 -22 -28 -10 -9)
1969/12/31/18:00:21.608,(-14 -48 -28 -24 -18 -4 -3 -1)
1969/12/31/18:00:21.608,(-25 -23 -15 -10 -2 19 12 12)
1969/12/31/18:00:21.630,(-13 -18 -19 -4 4 -12 -13 -6)
1969/12/31/18:00:21.630,(-5 26 20 13 25 10 -5 -14)
1969/12/31/18:00:21.631,(-55 20 48 4 -17 -16 -28 -69)
1969/12/31/18:00:21.631,(2 -30 -29 -9 -15 -7 17 41)
1969/12/31/18:00:21.644,(-30 17 13 3 8 4 -7 -32)
1969/12/31/18:00:21.644,(-12 -53 -107 -56 -17 20 8 15)
1969/12/31/18:00:21.645,(51 123 127 87 42 7 7 29)
1969/12/31/18:00:21.645,(-2 -48 -23 -5 -8 -9 -7 -11)
1969/12/31/18:00:21.667,(-8 -63 -54 -6 -1 -7 3 21)
1969/12/31/18:00:21.667,(11 46 53 17 6 -3 -9 -15)
1969/12/31/18:00:21.668,(-9 -38 -31 -14 -6 0 9 16)
1969/12/31/18:00:21.668,(-9 -33 -38 -22 -9 -21 -33 -40)
1969/12/31/18:00:21.690,(21 -84 -71 -25 -13 5 22 27)
1969/12/31/18:00:21.690,(26 116 118 67 23 10 -3 -13)
1969/12/31/18:00:21.691,(-8 -36 -30 -9 -3 2 6 16)
1969/12/31/18:00:21.691,(3 -5 0 17 15 -7 -11 11)
1969/12/31/18:00:21.704,(-5 13 11 -1 -5 -5 6 -1)
1969/12/31/18:00:21.704,(11 -30 -28 -18 15 18 -25 -52)
1969/12/31/18:00:21.705,(-5 -48 -30 -22 -30 -23 7 8)
1969/12/31/18:00:21.705,(10 44 11 -2 -3 -4 -4 8)
1969/12/31/18:00:21.728,(-29 -98 -91 -36 -11 -5 -3 -14)
1969/12/31/18:00:21.728,(20 109 102 75 23 6 14 15)
1969/12/31/18:00:21.728,(-17 -69 -51 18 32 12 -10 -21)
1969/12/31/18:00:21.728,(21 24 -11 -19 -35 -14 -9 -14)
1969/12/31/18:00:21.750,(9 5 16 -3 -13 4 9 2)
1969/12/31/18:00:21.750,(-14 -32 -38 -32 -10 -11 -6 3)
1969/12/31/18:00:21.751,(-4 -10 6 4 12 7 2 3)
1969/12/31/18:00:21.751,(-32 -51 -16 -22 -29 0 5 -2)
1969/12/31/18:00:21.765,(20 88 54 30 13 -9 -17 -7)
1969/12/31/18:00:21.765,(-18 -44 -30 -20 -15 -5 1 4)
1969/12/31/18:00:21.765,(45 43 34 15 11 -3 8 2)
1969/12/31/18:00:21.765,(-60 -60 -38 -24 -4 7 -7 6)
1969/12/31/18:00:21.787,(10 50 43 4 0 14 5 4)
1969/12/31/18:00:21.787,(-24 -44 -35 -4 -3 -14 -4 2)
1969/12/31/18:00:21.788,(4 4 -9 -15 -9 4 1 -2)
1969/12/31/18:00:21.788,(21 39 23 7 0 1 10 14)
1969/12/31/18:00:21.810,(-5 18 6 -3 -2 -9 -19 -20)
1969/12/31/18:00:21.810,(-35 -49 -20 -8 -6 -5 6 -12)
1969/12/31/18:00:21.811,(-15 6 -9 -8 0 3 -8 0)
1969/12/31/18:00:21.811,(-35 -35 -6 6 3 3 20 -11)
1969/12/31/18:00:21.824,(17 8 1 -1 -6 -7 -36 2)
1969/12/31/18:00:21.824,(35 7 -3 -11 -8 -11 21 24)
1969/12/31/18:00:21.825,(-57 9 8 -1 -6 -2 -1 8)
1969/12/31/18:00:21.825,(11 -40 -34 -19 -10 -13 -4 -9)
1969/12/31/18:00:21.847,(43 35 16 10 4 6 7 16)
1969/12/31/18:00:21.847,(-19 -33 -11 -6 -1 6 -4 4)
1969/12/31/18:00:21.848,(52 3 0 -6 -4 1 3 23)
1969/12/31/18:00:21.848,(-10 4 7 14 13 1 -7 -28)
1969/12/31/18:00:21.878,(-20 0 -3 1 -3 -4 2 -15)
1969/12/31/18:00:21.878,(26 19 7 0 1 8 6 25)
1969/12/31/18:00:21.879,(-18 -12 -5 -6 -5 -2 0 -7)
1969/12/31/18:00:21.879,(11 8 0 8 9 -2 -8 -9)
1969/12/31/18:00:21.884,(9 -11 2 4 1 -4 2 -16)
1969/12/31/18:00:21.884,(-11 -12 -4 -6 -6 -2 -4 -8)
1969/12/31/18:00:21.885,(61 22 9 6 2 -9 -14 19)
1969/12/31/18:00:21.885,(11 16 3 4 10 27 23 -2)
1969/12/31/18:00:21.907,(-81 -24 -10 -4 -7 -30 -32 -25)
1969/12/31/18:00:21.907,(79 19 5 -3 -1 19 20 32)
1969/12/31/18:00:21.908,(-29 0 -2 3 -3 -38 4 -21)
1969/12/31/18:00:21.908,(-9 2 5 9 12 27 -23 -3)
1969/12/31/18:00:21.930,(36 -1 -12 -10 -12 -1 7 2)
1969/12/31/18:00:21.930,(-6 -15 -15 -12 -6 -6 7 15)
1969/12/31/18:00:21.931,(-4 -1 7 1 0 -11 -35 -19)
1969/12/31/18:00:21.931,(-4 -14 -4 -4 0 24 34 -1)
1969/12/31/18:00:21.944,(21 34 29 19 13 22 -3 23)
1969/12/31/18:00:21.944,(2 50 3 -7 -13 -33 -34 -27)
1969/12/31/18:00:21.945,(-9 -32 -24 -14 -8 19 11 7)
1969/12/31/18:00:21.945,(4 -3 0 -1 -4 -32 -16 -1)
1969/12/31/18:00:21.967,(37 1 10 8 10 10 19 54)
1969/12/31/18:00:21.967,(-8 17 4 1 0 -1 0 -7)
1969/12/31/18:00:21.968,(-31 -21 -4 -1 2 13 6 -2)
1969/12/31/18:00:21.968,(-17 -17 -9 -5 -3 -10 -15 -15)
1969/12/31/18:00:21.990,(-27 -15 1 6 3 -12 12 5)
1969/12/31/18:00:21.990,(79 57 10 4 7 28 1 31)
1969/12/31/18:00:21.991,(-19 -8 -1 -1 -7 -22 30 -4)
1969/12/31/18:00:21.991,(-4 -1 1 6 10 19 -31 5)
1969/12/31/18:00:22.004,(-19 -9 -11 -7 -3 5 1 -18)
1969/12/31/18:00:22.004,(-26 -8 7 5 6 5 8 -16)
1969/12/31/18:00:22.012,(29 -17 -16 -15 -13 -5 -9 12)
1969/12/31/18:00:22.012,(40 15 5 0 -4 -9 16 32)
1969/12/31/18:00:22.036,(-5 14 2 3 3 3 18 -4)
1969/12/31/18:00:22.036,(-30 -22 0 2 4 0 -2 0)
1969/12/31/18:00:22.037,(39 19 5 0 2 14 -5 2)
1969/12/31/18:00:22.037,(-22 7 0 -2 -5 -16 2 -4)
1969/12/31/18:00:22.049,(-8 -10 -10 -9 -7 -8 -20 -52)
1969/12/31/18:00:22.049,(-32 -33 -6 -1 1 -2 0 -17)
1969/12/31/18:00:22.058,(-30 -16 -17 -11 -9 -2 -11 -21)
1969/12/31/18:00:22.058,(-14 -15 -2 1 -1 -8 5 7)
1969/12/31/18:00:22.064,(22 22 13 9 9 11 15 28)
1969/12/31/18:00:22.064,(21 6 -7 -8 -7 -6 -1 -3)
1969/12/31/18:00:22.073,(-17 8 10 8 5 3 -2 -26)
1969/12/31/18:00:22.073,(9 -11 1 4 2 -8 -7 -1)
1969/12/31/18:00:22.087,(11 10 -7 -7 -8 -4 -13 -31)
1969/12/31/18:00:22.087,(-19 -15 -6 -4 -4 -6 -2 -3)
1969/12/31/18:00:22.089,(1 -6 0 0 3 7 6 20)
1969/12/31/18:00:22.089,(27 31 8 0 -1 -5 2 10)
1969/12/31/18:00:22.110,(-28 -23 -1 3 4 6 10 9)
1969/12/31/18:00:22.110,(-1 -9 -2 1 0 1 2 -4)
1969/12/31/18:00:22.112,(-13 6 -2 -6 -5 -4 -12 -26)
1969/12/31/18:00:22.112,(1 1 3 2 2 -2 2 -6)
1969/12/31/18:00:22.124,(8 10 4 1 0 1 5 2)
1969/12/31/18:00:22.124,(-9 -7 -5 -4 -3 -3 -3 -5)
1969/12/31/18:00:22.133,(-4 -9 -2 -1 1 4 0 2)
1969/12/31/18:00:22.133,(0 -2 2 1 -1 -5 0 5)
1969/12/31/18:00:22.147,(10 7 -7 -8 -9 -4 -6 -8)
1969/12/31/18:00:22.147,(-31 -11 -2 -1 -2 -2 -2 -3)
1969/12/31/18:00:22.149,(-7 6 7 7 5 6 5 0)
1969/12/31/18:00:22.149,(-7 -2 -5 -5 -5 -7 -7 -25)
1969/12/31/18:00:22.170,(2 -4 -1 -3 0 -2 0 8)
1969/12/31/18:00:22.170,(-17 -7 -1 1 0 -2 -3 -8)
1969/12/31/18:00:22.172,(2 1 -2 -3 -2 0 3 4)
1969/12/31/18:00:22.172,(6 1 -2 -3 0 -1 -1 3)
1969/12/31/18:00:22.183,(-12 -3 2 3 0 2 2 0)
1969/12/31/18:00:22.183,(-14 -16 -4 -2 -1 -2 -4 -9)
1969/12/31/18:00:22.193,(-1 3 -2 -1 0 0 -2 -4)
1969/12/31/18:00:22.193,(-1 6 4 1 1 -1 -3 -17)
1969/12/31/18:00:22.207,(11 6 -1 -1 -2 -3 -3 11)
1969/12/31/18:00:22.207,(-9 -4 -4 -4 -3 -2 -3 0)
1969/12/31/18:00:22.209,(5 -2 1 1 0 -1 -1 12)
1969/12/31/18:00:22.209,(-7 -11 -4 -1 0 1 3 5)
1969/12/31/18:00:22.230,(-9 -10 -3 -2 0 -2 -3 -11)
1969/12/31/18:00:22.230,(-3 -9 -7 -2 0 -2 2 2)
1969/12/31/18:00:22.231,(21 27 11 2 3 4 3 8)
1969/12/31/18:00:22.232,(-18 6 9 3 -3 -1 -5 -11)
1969/12/31/18:00:22.244,(-13 2 2 2 0 3 -4 -14)
1969/12/31/18:00:22.244,(21 0 -2 1 -2 0 10 26)
1969/12/31/18:00:22.252,(3 -13 -11 -7 -4 -8 -18 -16)
1969/12/31/18:00:22.252,(-1 -1 0 -3 -4 -3 0 3)
1969/12/31/18:00:22.268,(1 -17 -14 -5 -3 0 7 12)
1969/12/31/18:00:22.268,(-26 2 -8 0 5 4 0 -15)
1969/12/31/18:00:22.269,(14 7 18 8 3 4 15 28)
1969/12/31/18:00:22.269,(10 -4 -8 -3 -2 -4 -3 18)
1969/12/31/18:00:22.290,(-7 -6 -3 -2 -1 -1 1 -3)
1969/12/31/18:00:22.290,(11 3 -11 -9 -8 -5 1 -1)
1969/12/31/18:00:22.291,(-18 -10 -9 -5 -3 -2 -5 -3)
1969/12/31/18:00:22.291,(3 29 24 9 3 -1 -3 4)
1969/12/31/18:00:22.313,(-3 -11 -19 -8 -1 -1 -2 -2)
1969/12/31/18:00:22.313,(8 38 54 20 10 11 15 11)
1969/12/31/18:00:22.315,(-11 -77 -60 -24 -12 -11 -9 -5)
1969/12/31/18:00:22.315,(9 68 45 20 12 12 10 -2)
1969/12/31/18:00:22.328,(-1 2 11 3 0 -2 -11 -4)
1969/12/31/18:00:22.328,(1 -6 -6 -4 -3 -5 -11 -8)
1969/12/31/18:00:22.334,(1 14 12 2 0 5 9 3)
1969/12/31/18:00:22.334,(-17 -65 -59 -23 -13 -12 -10 -12)
1969/12/31/18:00:22.350,(1 15 11 2 6 2 0 1)
1969/12/31/18:00:22.350,(12 -13 -5 -1 0 3 8 13)
1969/12/31/18:00:22.351,(12 9 -3 5 -1 0 0 9)
1969/12/31/18:00:22.351,(-6 -7 -4 -5 -2 -1 1 -4)
1969/12/31/18:00:22.364,(8 11 14 9 2 1 7 14)
1969/12/31/18:00:22.364,(1 -18 -12 -8 -3 -5 -4 -3)
1969/12/31/18:00:22.372,(-4 15 -2 -3 1 3 3 -6)
1969/12/31/18:00:22.372,(-10 -12 -2 -2 -4 -2 -3 -7)
1969/12/31/18:00:22.387,(-3 -3 -11 -5 -5 -4 -4 -3)
1969/12/31/18:00:22.387,(-1 -13 -8 0 1 -1 -3 -1)
1969/12/31/18:00:22.393,(-3 -22 -15 -8 -4 -5 -7 2)
1969/12/31/18:00:22.393,(7 55 55 18 8 3 8 10)
1969/12/31/18:00:22.410,(-11 -5 3 0 1 2 4 -7)
1969/12/31/18:00:22.410,(2 -7 -33 -10 -3 0 -9 -4)
1969/12/31/18:00:22.411,(-1 8 15 8 3 -1 2 -1)
1969/12/31/18:00:22.411,(-2 -26 -23 -11 -5 -5 -6 -4)
1969/12/31/18:00:22.432,(0 -3 -1 -1 1 3 5 6)
1969/12/31/18:00:22.432,(-3 10 2 -1 -2 -5 -12 -11)
1969/12/31/18:00:22.434,(1 8 7 0 -1 1 5 3)
1969/12/31/18:00:22.434,(0 -17 -19 -9 -5 -5 -13 -6)
1969/12/31/18:00:22.447,(-1 6 13 11 8 4 4 1)
1969/12/31/18:00:22.447,(1 -7 -2 -1 0 2 2 0)
1969/12/31/18:00:22.453,(-10 11 2 -4 -4 -2 -7 -12)
1969/12/31/18:00:22.453,(3 -26 -29 -8 -3 -2 6 6)
1969/12/31/18:00:22.470,(-2 19 27 11 2 -2 -9 -6)
1969/12/31/18:00:22.470,(-1 -4 -11 -4 -5 -3 -2 -4)
1969/12/31/18:00:22.472,(6 28 22 4 3 2 0 4)
1969/12/31/18:00:22.472,(-9 -9 -6 -1 -1 -3 -2 -6)
1969/12/31/18:00:22.493,(-4 -23 -27 -12 -4 0 -1 1)
1969/12/31/18:00:22.493,(1 7 14 5 1 -2 1 3)
1969/12/31/18:00:22.494,(4 4 2 -1 -3 -1 -5 -1)
1969/12/31/18:00:22.494,(0 -4 -11 -5 -1 2 4 2)
1969/12/31/18:00:22.507,(-3 -2 17 3 -3 -3 -5 -7)
1969/12/31/18:00:22.507,(0 1 3 1 -2 -3 -1 -5)
1969/12/31/18:00:22.514,(-6 -9 -11 -2 -2 1 2 0)
1969/12/31/18:00:22.514,(2 -4 2 2 3 2 -10 -6)
1969/12/31/18:00:22.529,(-10 -24 -14 -15 -6 0 4 0)
1969/12/31/18:00:22.529,(11 49 25 19 2 0 -3 0)
1969/12/31/18:00:22.538,(1 -12 0 3 1 1 -2 2)
1969/12/31/18:00:22.538,(0 -22 -6 2 0 0 2 5)
1969/12/31/18:00:22.560,(-7 -29 -28 -14 -9 -5 -4 -8)
1969/12/31/18:00:22.560,(-1 31 24 6 2 -1 -3 -2)
1969/12/31/18:00:22.561,(-5 0 -6 -3 0 -3 0 -2)
1969/12/31/18:00:22.561,(-10 -47 -18 -9 -3 1 1 2)
1969/12/31/18:00:22.575,(20 53 3 0 -2 -4 -3 1)
1969/12/31/18:00:22.575,(-3 -17 8 4 1 0 -4 -4)
1969/12/31/18:00:22.576,(-5 -23 1 -1 -2 -2 -1 -3)
1969/12/31/18:00:22.576,(3 51 19 6 1 -1 -1 -3)
1969/12/31/18:00:22.590,(-7 -17 -11 -2 -1 -1 0 -1)
1969/12/31/18:00:22.590,(-3 -7 -14 -3 -2 -1 -3 -3)
1969/12/31/18:00:22.592,(-2 2 3 -2 1 3 2 1)
1969/12/31/18:00:22.592,(-10 -30 -11 -5 -4 -3 -4 -4)
1969/12/31/18:00:22.612,(17 57 12 10 4 1 3 8)
1969/12/31/18:00:22.612,(1 7 3 2 1 1 1 -1)
1969/12/31/18:00:22.614,(-14 -43 -26 -11 -7 -7 -4 -5)
1969/12/31/18:00:22.614,(-3 3 -3 -5 -1 -2 0 -1)
1969/12/31/18:00:22.626,(-2 1 1 1 0 -1 -1 -2)
1969/12/31/18:00:22.626,(-4 -16 -2 -6 -3 0 1 -1)
1969/12/31/18:00:22.635,(7 29 8 5 -1 -3 -5 -4)
1969/12/31/18:00:22.635,(1 -4 -5 -1 2 6 8 6)
1969/12/31/18:00:22.650,(8 17 32 12 0 -3 -2 3)
1969/12/31/18:00:22.650,(-11 -31 -32 -12 -4 -1 -1 -2)
1969/12/31/18:00:22.651,(-3 9 5 0 -1 -1 -1 -2)
1969/12/31/18:00:22.651,(-4 -13 -18 -19 -8 -4 -2 -3)
1969/12/31/18:00:22.673,(6 10 28 20 9 4 1 1)
1969/12/31/18:00:22.673,(-10 -45 -19 -10 -3 -3 -1 1)
1969/12/31/18:00:22.675,(9 50 33 10 5 1 2 2)
1969/12/31/18:00:22.675,(-1 11 22 0 -1 -2 -2 -3)
1969/12/31/18:00:22.686,(-15 -41 -40 -21 -6 -2 1 0)
1969/12/31/18:00:22.686,(23 43 52 16 3 -3 -3 2)
1969/12/31/18:00:22.695,(-4 -6 7 5 4 1 2 1)
1969/12/31/18:00:22.695,(7 17 -5 1 -2 -3 -4 -2)
1969/12/31/18:00:22.710,(-8 -32 -10 3 3 4 2 0)
1969/12/31/18:00:22.710,(0 8 -4 -7 -4 1 2 3)
1969/12/31/18:00:22.712,(-5 -15 -23 -18 -7 -2 -1 -3)
1969/12/31/18:00:22.712,(-4 -1 -15 -10 -7 -8 -7 -8)
1969/12/31/18:00:22.732,(2 5 13 11 6 0 -1 -3)
1969/12/31/18:00:22.732,(-1 -14 -14 -3 0 2 5 6)
1969/12/31/18:00:22.734,(3 25 3 2 -1 -3 -4 -5)
1969/12/31/18:00:22.734,(-8 -28 -12 -2 -2 1 1 1)
1969/12/31/18:00:22.746,(-4 4 -9 -11 -6 -3 -2 -3)
1969/12/31/18:00:22.746,(-4 -12 7 2 -1 -2 -1 -3)
1969/12/31/18:00:22.755,(1 1 22 10 1 0 2 1)
1969/12/31/18:00:22.755,(-3 -6 15 8 0 0 -1 0)
1969/12/31/18:00:22.778,(4 20 -19 -10 -6 -6 -4 -2)
1969/12/31/18:00:22.778,(0 4 -5 1 3 3 1 0)
1969/12/31/18:00:22.780,(-5 -15 -10 -2 -2 0 -3 0)
1969/12/31/18:00:22.780,(1 7 6 1 -4 -3 -1 -3)
1969/12/31/18:00:22.792,(-2 -13 -29 -14 -2 2 2 -1)
1969/12/31/18:00:22.792,(-13 -27 -6 -2 -4 -5 -5 -6)
1969/12/31/18:00:22.794,(8 12 3 0 -2 -3 1 1)
1969/12/31/18:00:22.794,(2 -13 17 25 12 7 3 2)
1969/12/31/18:00:22.807,(-2 8 5 3 -2 -2 -2 0)
1969/12/31/18:00:22.807,(-2 3 -8 -7 -5 -2 -4 -4)
1969/12/31/18:00:22.815,(-6 -14 -14 -6 -4 -4 0 0)
1969/12/31/18:00:22.815,(-1 -1 0 -6 -2 -2 -1 1)
1969/12/31/18:00:22.830,(-4 -4 9 -5 -3 -3 -2 -3)
1969/12/31/18:00:22.830,(0 0 -7 0 1 0 -2 -3)
1969/12/31/18:00:22.831,(2 -2 0 -1 3 1 1 2)
1969/12/31/18:00:22.831,(-1 4 0 -1 -1 0 1 0)
1969/12/31/18:00:22.852,(-7 -22 -6 0 -2 0 -1 -2)
1969/12/31/18:00:22.852,(5 19 -20 -23 -10 -9 -7 -5)
1969/12/31/18:00:22.854,(7 7 -1 8 5 2 1 2)
1969/12/31/18:00:22.854,(2 3 6 9 3 0 3 3)
1969/12/31/18:00:22.867,(1 -4 1 0 -2 -3 -2 -3)
1969/12/31/18:00:22.867,(-10 -21 -6 -5 -5 -1 -1 -4)
1969/12/31/18:00:22.875,(-14 -18 -21 -28 -16 -9 -8 -7)
1969/12/31/18:00:22.875,(16 39 -1 6 8 3 2 5)
1969/12/31/18:00:22.898,(-2 -2 20 18 5 3 2 0)
1969/12/31/18:00:22.898,(2 5 -2 -14 -6 -1 0 1)
1969/12/31/18:00:22.899,(1 15 8 7 5 0 -1 -5)
1969/12/31/18:00:22.899,(1 3 11 19 4 0 0 2)
1969/12/31/18:00:22.913,(1 -1 -9 -8 -5 -2 -2 1)
1969/12/31/18:00:22.913,(1 6 5 11 4 3 1 2)
1969/12/31/18:00:22.914,(-6 -13 -13 -15 -7 -2 -2 -1)
1969/12/31/18:00:22.914,(-3 -5 -20 -21 -7 -3 -2 -1)
1969/12/31/18:00:22.926,(1 -1 4 3 1 1 -1 -1)
1969/12/31/18:00:22.926,(-2 -3 -1 -4 -5 -2 0 1)
1969/12/31/18:00:22.935,(0 -7 4 7 3 2 -1 1)
1969/12/31/18:00:22.935,(-3 5 -7 -15 -7 -4 -3 -3)
1969/12/31/18:00:22.950,(-4 2 -4 1 -3 -4 -3 -3)
1969/12/31/18:00:22.950,(2 1 8 13 9 3 2 2)
1969/12/31/18:00:22.952,(2 -2 -8 1 -2 0 2 1)
1969/12/31/18:00:22.952,(-4 -10 -8 -18 -6 -2 -4 -4)
1969/12/31/18:00:22.980,(3 10 16 24 11 1 1 4)
1969/12/31/18:00:22.980,(-3 0 3 8 3 0 -3 -2)
1969/12/31/18:00:22.981,(-1 -6 -1 0 1 1 0 0)
1969/12/31/18:00:22.981,(-4 -9 -5 -2 -3 -2 -1 -3)
1969/12/31/18:00:22.986,(-3 -11 -23 -26 -11 -3 -1 -2)
1969/12/31/18:00:22.986,(2 6 9 6 1 1 1 2)
1969/12/31/18:00:22.995,(4 15 18 11 3 2 -2 1)
1969/12/31/18:00:22.995,(-3 -4 3 0 -1 -2 -2 -4)
1969/12/31/18:00:23.010,(-4 1 -5 -8 -4 -1 0 0)
1969/12/31/18:00:23.011,(-5 -7 -2 4 0 -2 -3 -5)
1969/12/31/18:00:23.012,(-2 -5 -6 -5 -5 -4 -3 -1)
1969/12/31/18:00:23.012,(-1 4 7 2 1 -3 0 1)
1969/12/31/18:00:23.032,(-3 -12 -5 -2 -1 -3 -4 -3)
1969/12/31/18:00:23.032,(0 4 -10 -9 -1 -1 -1 2)
1969/12/31/18:00:23.034,(-1 1 2 4 2 2 5 3)
1969/12/31/18:00:23.034,(2 2 -1 4 -1 -1 -1 -3)
1969/12/31/18:00:23.046,(-3 -7 -2 -6 -2 2 0 -2)
1969/12/31/18:00:23.046,(0 2 -2 -4 -4 -1 -4 -3)
1969/12/31/18:00:23.063,(-2 -2 1 3 1 -1 -2 -2)
1969/12/31/18:00:23.063,(2 5 5 4 2 1 0 3)
1969/12/31/18:00:23.070,(-2 -3 -4 -8 -4 -3 -3 -2)
1969/12/31/18:00:23.070,(1 -2 -1 -4 -4 -1 1 -2)
1969/12/31/18:00:23.071,(1 0 1 4 3 2 1 2)
1969/12/31/18:00:23.071,(0 -1 6 6 1 1 1 1)
1969/12/31/18:00:23.093,(-1 -2 -6 -6 -4 -4 -3 0)
1969/12/31/18:00:23.093,(-1 4 9 0 -3 -3 -1 1)
1969/12/31/18:00:23.094,(-1 -6 -4 -1 -2 -2 0 -3)
1969/12/31/18:00:23.094,(-1 -3 -4 -4 -3 -1 0 -2)
1969/12/31/18:00:23.106,(-2 0 3 2 0 -1 0 -5)
1969/12/31/18:00:23.106,(1 0 -1 0 0 -2 -1 -2)
1969/12/31/18:00:23.121,(-3 -4 -3 -3 -2 0 -4 -3)
1969/12/31/18:00:23.121,(-1 -2 -1 -2 -1 -1 0 2)
1969/12/31/18:00:23.130,(1 5 5 4 3 0 -7 -4)
1969/12/31/18:00:23.130,(-3 -4 -9 -8 -3 -1 1 -2)
1969/12/31/18:00:23.131,(-1 -2 3 2 1 -1 0 1)
1969/12/31/18:00:23.131,(3 4 -10 0 1 2 1 1)
1969/12/31/18:00:23.153,(-3 -2 4 0 -1 1 1 2)
1969/12/31/18:00:23.153,(-2 -3 -4 -3 0 -1 0 -3)
1969/12/31/18:00:23.155,(-2 -3 1 0 0 -1 -2 -1)
1969/12/31/18:00:23.155,(2 8 -4 -5 -3 -2 -2 0)
1969/12/31/18:00:23.175,(2 2 6 5 2 -1 2 1)
1969/12/31/18:00:23.175,(-1 -2 -3 -1 0 -2 -2 1)
1969/12/31/18:00:23.176,(-2 3 4 0 -1 -1 -2 -3)
1969/12/31/18:00:23.176,(-6 -7 -7 -3 -3 -2 -2 -4)
1969/12/31/18:00:23.189,(-2 -3 -7 -3 0 0 -1 0)
1969/12/31/18:00:23.189,(-1 -1 3 3 0 -2 1 -1)
1969/12/31/18:00:23.204,(-1 -5 -11 -7 -4 1 -1 -2)
1969/12/31/18:00:23.204,(-1 -1 1 -2 -2 -1 -4 -3)
1969/12/31/18:00:23.212,(-2 -5 5 1 0 0 0 1)
1969/12/31/18:00:23.212,(1 1 -1 -2 0 0 1 -1)
1969/12/31/18:00:23.214,(-1 -1 -3 0 0 0 0 1)
1969/12/31/18:00:23.214,(-2 1 4 1 0 -3 -3 -3)
1969/12/31/18:00:23.227,(-1 0 -2 -4 -6 -1 2 0)
1969/12/31/18:00:23.227,(-2 -4 -1 1 0 -1 -2 -1)
1969/12/31/18:00:23.235,(-3 -4 -3 -4 -2 -1 -1 -3)
1969/12/31/18:00:23.235,(-2 0 1 -4 0 -2 -1 -1)
1969/12/31/18:00:23.257,(1 1 0 2 -1 -1 0 -2)
1969/12/31/18:00:23.257,(0 0 -4 -3 -3 1 -2 1)
1969/12/31/18:00:23.259,(0 2 8 4 0 -1 -1 -1)
1969/12/31/18:00:23.259,(0 -1 1 1 1 2 1 1)
1969/12/31/18:00:23.272,(0 -2 -9 -5 -2 -2 -1 0)
1969/12/31/18:00:23.272,(-1 2 3 2 0 -1 0 -1)
1969/12/31/18:00:23.274,(-1 -2 -4 -2 -2 1 -2 -1)
1969/12/31/18:00:23.274,(-1 -2 0 -2 -4 -1 0 -1)
1969/12/31/18:00:23.286,(-1 -1 0 1 -1 -2 -2 -1)
1969/12/31/18:00:23.286,(0 -1 -1 0 -1 0 0 -1)
1969/12/31/18:00:23.312,(0 1 -4 -4 -2 -3 0 -1)
1969/12/31/18:00:23.312,(-3 -1 1 4 2 0 -1 -1)
1969/12/31/18:00:23.313,(-5 -5 -2 -2 -2 -3 -4 -4)
1969/12/31/18:00:23.313,(-3 -5 -6 -4 -2 -1 -1 -3)
1969/12/31/18:00:23.323,(0 -1 2 3 1 -1 -1 -1)
1969/12/31/18:00:23.323,(2 1 2 3 2 2 1 1)
1969/12/31/18:00:23.340,(0 0 -3 -5 -3 0 -2 0)
1969/12/31/18:00:23.340,(-2 -8 -6 0 -2 -3 -3 0)
1969/12/31/18:00:23.341,(6 13 18 2 1 -1 1 2)
1969/12/31/18:00:23.341,(0 -1 1 5 3 1 0 -3)
1969/12/31/18:00:23.346,(-1 -4 -5 -2 0 0 0 -2)
1969/12/31/18:00:23.346,(-1 1 3 2 0 -1 1 -2)
1969/12/31/18:00:23.355,(-3 -7 -11 -4 -4 -1 -1 -1)
1969/12/31/18:00:23.355,(-2 -2 -3 -4 -2 -4 -2 -1)
1969/12/31/18:00:23.370,(0 0 2 -2 0 1 -1 0)
1969/12/31/18:00:23.370,(0 -2 -2 1 1 0 -1 1)
1969/12/31/18:00:23.376,(-2 -1 -3 -3 -1 -1 -1 -1)
1969/12/31/18:00:23.376,(1 1 5 0 0 0 1 1)
1969/12/31/18:00:23.393,(-3 -3 -6 -4 -1 -4 -2 -3)
1969/12/31/18:00:23.393,(0 0 1 -1 -1 0 0 -1)
1969/12/31/18:00:23.395,(-4 -8 -8 -4 -2 -2 -2 -2)
1969/12/31/18:00:23.395,(0 0 0 -1 -2 -2 0 -2)
1969/12/31/18:00:23.416,(0 0 -2 -2 -2 0 0 2)
1969/12/31/18:00:23.416,(0 1 0 -5 -1 -1 -2 -1)
1969/12/31/18:00:23.417,(-2 -2 -1 4 0 0 -1 -1)
1969/12/31/18:00:23.417,(-3 -4 -4 -5 -4 -1 -2 -2)
1969/12/31/18:00:23.430,(0 2 4 3 0 0 1 1)
1969/12/31/18:00:23.430,(-3 -6 -4 -4 -5 -2 -2 -2)
1969/12/31/18:00:23.431,(1 2 3 3 2 1 1 -1)
1969/12/31/18:00:23.431,(-1 0 1 0 -1 -1 -1 -3)
1969/12/31/18:00:23.453,(-1 -3 -2 -2 -1 0 -2 0)
1969/12/31/18:00:23.453,(-1 -1 1 1 0 1 -1 -1)
1969/12/31/18:00:23.454,(-2 -5 -7 -4 -3 -3 -2 -1)
1969/12/31/18:00:23.454,(-1 -3 -3 -2 -2 -1 -2 0)
1969/12/31/18:00:23.475,(1 2 2 2 2 -1 -1 0)
1969/12/31/18:00:23.475,(0 2 3 1 1 -1 0 0)
1969/12/31/18:00:23.476,(-2 -3 -4 0 0 0 -2 -1)
1969/12/31/18:00:23.476,(-1 1 -1 -1 0 -1 -1 1)
1969/12/31/18:00:23.489,(-4 -5 -4 0 0 0 -1 -3)
1969/12/31/18:00:23.489,(-1 1 -1 -1 -1 -1 -2 -1)
1969/12/31/18:00:23.513,(-2 -1 -2 -3 -1 -1 -1 -2)
1969/12/31/18:00:23.513,(-1 0 -2 0 -1 0 0 0)
1969/12/31/18:00:23.514,(-1 -1 0 -3 -3 -3 -2 -2)
1969/12/31/18:00:23.514,(-1 -2 -4 -3 -2 -2 -2 -3)
1969/12/31/18:00:23.515,(0 0 1 1 -2 -1 -1 1)
1969/12/31/18:00:23.515,(-3 -3 -3 -2 0 -1 0 -1)
1969/12/31/18:00:23.535,(0 0 -1 -1 0 0 1 -1)
1969/12/31/18:00:23.535,(0 4 -6 -5 -1 0 -2 0)
1969/12/31/18:00:23.536,(-4 -8 10 5 0 1 -1 0)
1969/12/31/18:00:23.536,(1 -3 -4 -2 -3 -1 0 -1)
1969/12/31/18:00:23.549,(-5 -5 -8 -4 -1 -1 -1 -4)
1969/12/31/18:00:23.549,(1 3 4 2 1 2 -1 0)
1969/12/31/18:00:23.556,(0 3 1 0 -1 -1 -1 -1)
1969/12/31/18:00:23.556,(-1 0 -2 1 0 -3 -2 -2)
1969/12/31/18:00:23.581,(0 -2 4 1 -1 -3 -1 -1)
1969/12/31/18:00:23.581,(-2 -2 -2 -2 -3 -2 1 0)
1969/12/31/18:00:23.582,(1 0 -4 1 -2 1 0 1)
1969/12/31/18:00:23.582,(-2 -3 -1 -2 -1 -1 -4 -1)
1969/12/31/18:00:23.595,(2 5 2 2 -2 -1 1 2)
1969/12/31/18:00:23.595,(0 1 2 1 3 1 1 0)
1969/12/31/18:00:23.597,(-3 -7 -2 -1 0 -1 -1 -2)
1969/12/31/18:00:23.597,(-1 1 2 1 1 -1 1 -2)
1969/12/31/18:00:23.610,(-1 0 -1 -2 -2 0 0 -1)
1969/12/31/18:00:23.610,(1 1 0 -1 -1 -1 -1 2)
1969/12/31/18:00:23.618,(-2 -2 -6 -3 -1 -2 -1 -1)
1969/12/31/18:00:23.618,(0 0 -3 -2 -2 0 -1 -1)
1969/12/31/18:00:23.632,(0 -2 1 0 1 -1 0 1)
1969/12/31/18:00:23.632,(-2 -6 -3 -2 1 -1 -1 -3)
1969/12/31/18:00:23.634,(1 2 -4 -4 -3 -1 -1 1)
1969/12/31/18:00:23.634,(-1 -2 -3 -3 -1 -1 0 -3)
