time,.data
1969/12/31/18:00:06.779,(0 -8 -46 -13 -1 4 -8 -1)
1969/12/31/18:00:06.779,(-6 -7 13 -1 -11 -1 15 1)
1969/12/31/18:00:06.779,(-11 -15 -55 -54 2 15 0 -8)
1969/12/31/18:00:06.779,(22 39 90 99 33 23 19 20)
1969/12/31/18:00:06.790,(5 18 75 72 17 -11 -36 -9)
1969/12/31/18:00:06.790,(-4 -5 -17 -5 -1 -22 -34 -14)
1969/12/31/18:00:06.790,(-1 -10 -24 -29 -8 15 35 7)
1969/12/31/18:00:06.790,(-23 -43 -96 -126 -61 -59 -24 -20)
1969/12/31/18:00:06.808,(-7 -9 -13 -1 21 25 18 0)
1969/12/31/18:00:06.808,(15 27 28 38 26 35 15 12)
1969/12/31/18:00:06.808,(6 0 7 -2 8 37 28 10)
1969/12/31/18:00:06.808,(-5 -5 -21 7 -3 -18 -44 -14)
1969/12/31/18:00:06.826,(-3 0 32 -5 -22 -64 -43 -15)
1969/12/31/18:00:06.826,(-7 -3 -12 -18 -6 -29 -18 -13)
1969/12/31/18:00:06.826,(4 7 24 33 14 58 40 14)
1969/12/31/18:00:06.826,(0 -7 0 -2 5 12 10 18)
1969/12/31/18:00:06.837,(-1 -6 -43 -3 -16 -1 11 -3)
1969/12/31/18:00:06.837,(-3 3 -14 -8 -3 8 -7 3)
1969/12/31/18:00:06.838,(-2 8 60 11 6 -30 -31 -15)
1969/12/31/18:00:06.838,(3 -4 -22 4 1 -2 13 -6)
1969/12/31/18:00:06.855,(-1 0 -14 -27 -1 -22 -29 -12)
1969/12/31/18:00:06.855,(-1 -11 -28 -21 -16 -12 42 10)
1969/12/31/18:00:06.855,(1 -1 19 7 -6 13 -8 3)
1969/12/31/18:00:06.855,(-5 0 -8 -29 -6 -8 -37 -18)
1969/12/31/18:00:06.873,(1 4 28 19 11 27 40 8)
1969/12/31/18:00:06.873,(3 4 8 33 3 1 -18 1)
1969/12/31/18:00:06.873,(-1 -3 3 -2 -1 -19 -8 -5)
1969/12/31/18:00:06.873,(-4 -7 -12 -13 -2 -1 9 0)
1969/12/31/18:00:06.884,(-7 -18 -36 -42 -19 3 8 5)
1969/12/31/18:00:06.884,(-2 6 3 -24 -4 -9 -17 -17)
1969/12/31/18:00:06.884,(0 4 0 23 -1 -19 -16 -3)
1969/12/31/18:00:06.884,(6 6 18 8 6 16 15 10)
1969/12/31/18:00:06.902,(-3 -9 -17 -17 -5 11 16 8)
1969/12/31/18:00:06.902,(-2 -2 -3 -2 5 4 -11 -9)
1969/12/31/18:00:06.908,(-7 -14 -17 -2 -4 -23 -7 -5)
1969/12/31/18:00:06.908,(2 10 10 9 6 18 30 -2)
1969/12/31/18:00:06.920,(6 4 6 1 4 -11 9 19)
1969/12/31/18:00:06.920,(2 -1 11 9 2 -1 8 8)
1969/12/31/18:00:06.925,(-2 0 -10 -3 -6 -6 -4 -3)
1969/12/31/18:00:06.925,(-11 -15 -6 -6 -4 -2 5 -7)
1969/12/31/18:00:06.931,(1 4 -8 0 -1 3 -1 -7)
1969/12/31/18:00:06.932,(-2 -8 -1 -21 -7 4 -3 2)
1969/12/31/18:00:06.932,(5 9 -12 15 1 -6 0 3)
1969/12/31/18:00:06.932,(5 6 21 12 6 3 -8 1)
1969/12/31/18:00:06.949,(0 6 4 4 3 7 3 0)
1969/12/31/18:00:06.949,(-4 -9 -3 -4 -1 -1 -4 -2)
1969/12/31/18:00:06.950,(-1 -3 -8 -7 -2 0 -4 -3)
1969/12/31/18:00:06.950,(-1 -4 -8 -2 -1 -1 5 1)
1969/12/31/18:00:06.967,(-5 -2 6 4 5 7 5 1)
1969/12/31/18:00:06.967,(3 3 -1 -2 -2 -1 3 2)
1969/12/31/18:00:06.967,(-4 -2 3 0 -2 -6 -5 -7)
1969/12/31/18:00:06.967,(-2 0 2 4 1 3 -2 -4)
1969/12/31/18:00:06.979,(-3 -8 -6 -6 0 3 7 4)
1969/12/31/18:00:06.979,(6 7 3 6 0 -1 -3 2)
1969/12/31/18:00:06.979,(-1 1 5 3 -1 -3 -1 1)
1969/12/31/18:00:06.979,(-2 -3 -5 -3 -3 -4 -5 -3)
1969/12/31/18:00:06.996,(-1 -3 -9 -5 -1 1 -5 -5)
1969/12/31/18:00:06.996,(-3 -4 0 5 0 -1 3 0)
1969/12/31/18:00:06.997,(0 0 2 -1 -2 -1 -1 -2)
1969/12/31/18:00:06.997,(0 -3 -4 -3 -1 -2 1 -1)
1969/12/31/18:00:07.015,(0 3 0 0 -1 -2 -3 -3)
1969/12/31/18:00:07.015,(-2 -3 0 5 0 -1 -2 -1)
1969/12/31/18:00:07.015,(-1 1 -4 -2 -3 -2 0 0)
1969/12/31/18:00:07.015,(-1 -1 -1 0 1 0 -1 -2)
1969/12/31/18:00:07.032,(-8 -14 -7 -1 0 2 -2 -10)
1969/12/31/18:00:07.032,(11 40 36 14 4 0 5 16)
1969/12/31/18:00:07.033,(0 2 1 -2 -2 -1 0 1)
1969/12/31/18:00:07.033,(1 -10 -11 -5 -3 -3 1 11)
1969/12/31/18:00:07.043,(1 4 -2 -3 -4 -3 -6 -13)
1969/12/31/18:00:07.043,(-19 -29 -20 0 0 5 4 -23)
1969/12/31/18:00:07.044,(3 9 0 -4 -6 -9 -9 12)
1969/12/31/18:00:07.044,(-5 1 7 0 0 0 -5 -9)
1969/12/31/18:00:07.061,(-13 -8 -8 -4 -2 -1 -5 -10)
1969/12/31/18:00:07.061,(17 -4 -4 -2 3 2 9 25)
1969/12/31/18:00:07.061,(8 0 2 2 0 -3 -3 -3)
1969/12/31/18:00:07.061,(0 -12 -10 -5 -2 0 6 6)
1969/12/31/18:00:07.073,(-22 -4 2 -2 -1 -2 -8 -20)
1969/12/31/18:00:07.073,(12 9 -3 -2 -3 -2 1 4)
1969/12/31/18:00:07.073,(-20 -4 4 3 2 -1 -7 -29)
1969/12/31/18:00:07.073,(-30 -27 -9 -2 -1 -2 -3 -4)
1969/12/31/18:00:07.090,(8 43 23 7 5 5 15 14)
1969/12/31/18:00:07.090,(35 -5 -9 -5 -8 -6 -1 29)
1969/12/31/18:00:07.091,(-14 -11 -7 -5 -4 -2 -6 -18)
1969/12/31/18:00:07.091,(-4 5 3 2 0 -2 -5 -20)
1969/12/31/18:00:07.108,(1 -16 -11 -3 -4 -8 -6 -28)
1969/12/31/18:00:07.108,(-59 -11 7 8 11 18 9 11)
1969/12/31/18:00:07.109,(61 9 0 -2 -5 -12 11 32)
1969/12/31/18:00:07.109,(-47 -27 -19 -14 -11 -16 -56 -57)
1969/12/31/18:00:07.120,(22 19 8 4 0 -2 39 29)
1969/12/31/18:00:07.120,(-18 3 2 -2 -1 -7 6 -55)
1969/12/31/18:00:07.120,(23 -3 2 4 2 12 -5 15)
1969/12/31/18:00:07.120,(79 35 13 7 1 1 22 73)
1969/12/31/18:00:07.137,(-71 -40 -25 -20 -17 -20 -31 -36)
1969/12/31/18:00:07.137,(12 6 0 -2 0 5 -10 5)
1969/12/31/18:00:07.138,(-59 -17 -6 -4 -3 -12 8 -60)
1969/12/31/18:00:07.138,(-23 -1 11 9 7 3 1 -33)
1969/12/31/18:00:07.155,(60 46 13 10 5 15 12 50)
1969/12/31/18:00:07.155,(22 -14 -15 -9 -10 -29 -6 14)
1969/12/31/18:00:07.156,(32 11 1 -2 1 14 -23 6)
1969/12/31/18:00:07.156,(13 10 1 -3 -3 33 31 21)
1969/12/31/18:00:07.166,(-2 -30 -6 1 9 10 3 34)
1969/12/31/18:00:07.166,(-97 -32 -2 4 -4 -17 -36 -75)
1969/12/31/18:00:07.172,(90 0 -1 1 2 8 19 70)
1969/12/31/18:00:07.172,(6 21 6 -1 0 -8 12 18)
1969/12/31/18:00:07.184,(48 14 5 3 5 9 26 48)
1969/12/31/18:00:07.184,(5 3 -10 -11 -13 -13 -10 -31)
1969/12/31/18:00:07.185,(-22 -11 0 1 2 -2 2 2)
1969/12/31/18:00:07.185,(0 8 1 7 3 -1 -9 -38)
1969/12/31/18:00:07.202,(40 23 18 2 1 1 0 26)
1969/12/31/18:00:07.202,(-73 -49 -25 -12 -2 -3 -22 -66)
1969/12/31/18:00:07.203,(16 2 4 4 0 0 13 32)
1969/12/31/18:00:07.203,(12 33 1 -1 1 -13 -18 -24)
1969/12/31/18:00:07.213,(-7 6 26 11 4 10 -8 -11)
1969/12/31/18:00:07.213,(-4 5 1 0 -2 6 12 -10)
1969/12/31/18:00:07.220,(-28 -5 1 0 -3 -19 -25 -31)
1969/12/31/18:00:07.220,(0 -37 -34 -10 -1 -2 1 27)
1969/12/31/18:00:07.231,(0 4 -3 -8 -10 -10 -12 -18)
1969/12/31/18:00:07.231,(60 7 3 -1 -2 9 47 103)
1969/12/31/18:00:07.232,(19 12 -2 -2 0 -1 6 33)
1969/12/31/18:00:07.232,(-10 -7 4 -2 -1 6 -5 -16)
1969/12/31/18:00:07.249,(-40 -19 -13 -1 2 -4 -12 -22)
1969/12/31/18:00:07.249,(43 20 15 10 5 19 14 10)
1969/12/31/18:00:07.255,(-15 18 6 -1 -2 1 6 -24)
1969/12/31/18:00:07.255,(-16 -12 -3 -2 -3 -8 4 0)
1969/12/31/18:00:07.267,(-23 -15 -7 -4 -5 -6 -21 -55)
1969/12/31/18:00:07.267,(74 10 -6 -2 -2 0 -4 76)
1969/12/31/18:00:07.268,(-46 -14 -4 -1 1 4 20 -39)
1969/12/31/18:00:07.268,(-4 15 17 1 0 -1 -27 -16)
1969/12/31/18:00:07.278,(-59 -36 -15 -3 0 -3 -6 -46)
1969/12/31/18:00:07.278,(49 20 6 7 7 -3 -14 25)
1969/12/31/18:00:07.279,(-77 -15 2 2 3 4 -11 -59)
1969/12/31/18:00:07.279,(79 1 -7 -7 -5 -2 14 37)
1969/12/31/18:00:07.296,(-35 -6 -10 -6 -3 -5 -7 -47)
1969/12/31/18:00:07.296,(-16 10 10 0 -1 -1 -3 -21)
1969/12/31/18:00:07.296,(6 17 8 7 6 2 -13 -11)
1969/12/31/18:00:07.296,(-12 34 24 14 10 -16 -25 -58)
1969/12/31/18:00:07.307,(17 -56 -27 -10 -5 11 64 91)
1969/12/31/18:00:07.307,(-38 -11 -8 -6 2 7 -5 -51)
1969/12/31/18:00:07.314,(18 10 0 -3 0 15 -8 9)
1969/12/31/18:00:07.314,(-36 -9 0 1 -4 -21 2 -2)
1969/12/31/18:00:07.332,(20 29 9 6 2 -7 -1 10)
1969/12/31/18:00:07.332,(-25 -17 -5 -5 -2 1 11 9)
1969/12/31/18:00:07.333,(-8 -7 3 1 -1 -6 -10 -10)
1969/12/31/18:00:07.333,(-26 -4 -3 -1 -1 13 9 -32)
1969/12/31/18:00:07.343,(50 25 3 0 -1 7 7 64)
1969/12/31/18:00:07.343,(-21 6 3 -1 -2 -5 -2 -33)
1969/12/31/18:00:07.343,(27 4 -4 -6 -6 2 4 21)
1969/12/31/18:00:07.343,(-27 -12 -6 1 0 6 0 0)
1969/12/31/18:00:07.354,(-1 -14 -2 3 0 3 17 55)
1969/12/31/18:00:07.354,(-4 -2 1 1 -4 -16 -9 -5)
1969/12/31/18:00:07.361,(8 -38 -15 -7 -6 -13 -3 51)
1969/12/31/18:00:07.361,(15 0 0 -1 1 -3 8 12)
1969/12/31/18:00:07.373,(-69 2 7 3 3 -1 -4 -49)
1969/12/31/18:00:07.373,(-1 -5 -11 -6 -6 -5 41 43)
1969/12/31/18:00:07.373,(9 2 -2 0 -1 10 -45 -67)
1969/12/31/18:00:07.373,(-27 -18 -3 -3 -4 -2 -1 -12)
1969/12/31/18:00:07.391,(-14 -28 -13 -5 -4 -27 -13 28)
1969/12/31/18:00:07.391,(-46 0 6 6 5 1 -3 -45)
1969/12/31/18:00:07.391,(-10 -3 2 3 3 0 21 25)
1969/12/31/18:00:07.391,(46 14 -5 -9 -8 3 7 14)
1969/12/31/18:00:07.402,(8 17 -1 -2 -4 -4 -20 -30)
1969/12/31/18:00:07.402,(-3 -4 0 2 7 17 -23 -2)
1969/12/31/18:00:07.408,(10 2 -1 -4 -5 -16 15 3)
1969/12/31/18:00:07.408,(18 15 12 7 3 1 -10 17)
1969/12/31/18:00:07.421,(14 -1 5 0 -1 -2 -20 -42)
1969/12/31/18:00:07.421,(20 17 0 -1 -2 -5 -17 -40)
1969/12/31/18:00:07.422,(-52 -24 -13 -4 3 16 16 -22)
1969/12/31/18:00:07.422,(-27 -26 -16 -9 -5 -2 2 -17)
1969/12/31/18:00:07.438,(19 26 12 2 0 0 -7 -5)
1969/12/31/18:00:07.438,(-15 35 9 4 3 2 -22 -4)
1969/12/31/18:00:07.438,(-3 -40 -21 -19 -20 -21 -17 12)
1969/12/31/18:00:07.438,(0 -3 -4 -5 -2 -18 -8 14)
1969/12/31/18:00:07.456,(-24 -3 -3 -4 -3 27 15 -2)
1969/12/31/18:00:07.456,(76 5 8 7 4 -2 -41 65)
1969/12/31/18:00:07.456,(-37 28 15 9 5 4 55 -48)
1969/12/31/18:00:07.456,(-14 -42 -29 -19 -21 -22 -39 -32)
1969/12/31/18:00:07.467,(-3 4 -5 -6 4 10 -13 -53)
1969/12/31/18:00:07.467,(-20 -1 1 0 1 26 32 9)
1969/12/31/18:00:07.467,(30 29 13 6 -2 -27 3 6)
1969/12/31/18:00:07.467,(50 8 7 5 -3 5 28 91)
1969/12/31/18:00:07.491,(-18 -11 -4 4 -9 -58 -10 -75)
1969/12/31/18:00:07.491,(16 -17 -6 17 9 8 21 17)
1969/12/31/18:00:07.491,(-26 -16 -8 -13 14 19 -5 8)
1969/12/31/18:00:07.492,(33 23 3 -24 -25 12 10 57)
1969/12/31/18:00:07.503,(-12 -2 -2 -15 -14 -10 -3 6)
1969/12/31/18:00:07.503,(35 -1 -13 -18 -2 -9 24 76)
1969/12/31/18:00:07.503,(-2 7 3 12 13 5 -15 -3)
1969/12/31/18:00:07.503,(-104 -4 11 21 10 -2 -2 -57)
1969/12/31/18:00:07.514,(69 5 -1 9 19 5 16 75)
1969/12/31/18:00:07.514,(-18 -10 -7 -21 -21 3 -9 -40)
1969/12/31/18:00:07.515,(-2 7 0 -6 -8 4 -13 -2)
1969/12/31/18:00:07.515,(-28 -12 -4 0 9 13 13 -36)
1969/12/31/18:00:07.532,(7 9 -5 8 11 7 9 16)
1969/12/31/18:00:07.532,(-35 -25 1 1 -8 2 4 -9)
1969/12/31/18:00:07.532,(-11 -12 -8 -4 -27 -45 -12 19)
1969/12/31/18:00:07.532,(-11 -8 3 15 43 26 -15 -23)
1969/12/31/18:00:07.550,(-2 11 6 4 3 12 0 -29)
1969/12/31/18:00:07.550,(-12 -5 2 6 10 -12 -31 -2)
1969/12/31/18:00:07.551,(19 10 -3 -23 -17 22 -6 -18)
1969/12/31/18:00:07.551,(34 6 -6 -17 -33 -28 30 19)
1969/12/31/18:00:07.561,(1 -18 -6 -12 -23 -9 0 23)
1969/12/31/18:00:07.561,(-6 8 4 6 27 -13 -14 -25)
1969/12/31/18:00:07.562,(34 1 0 13 3 17 10 35)
1969/12/31/18:00:07.562,(-14 -22 -17 9 19 10 6 -3)
1969/12/31/18:00:07.579,(7 10 -13 -3 29 15 -24 -13)
1969/12/31/18:00:07.579,(-10 5 23 -5 -33 -19 6 -16)
1969/12/31/18:00:07.579,(-15 -14 -7 -4 -9 -2 11 20)
1969/12/31/18:00:07.579,(-9 11 10 2 -12 -23 -16 -4)
1969/12/31/18:00:07.597,(-47 -8 6 34 43 37 8 -35)
1969/12/31/18:00:07.597,(-43 -24 -28 -36 -22 2 -18 -31)
1969/12/31/18:00:07.598,(-7 6 9 6 7 14 6 -1)
1969/12/31/18:00:07.598,(21 -48 -46 -22 -10 4 4 14)
1969/12/31/18:00:07.608,(9 89 79 19 -9 -42 -10 2)
1969/12/31/18:00:07.608,(32 -4 -8 11 9 19 23 50)
1969/12/31/18:00:07.609,(-2 18 14 3 10 -2 -22 -29)
1969/12/31/18:00:07.609,(-5 15 14 7 12 16 -8 -56)
1969/12/31/18:00:07.632,(57 -69 -52 -24 -33 -3 18 69)
1969/12/31/18:00:07.632,(43 29 -4 1 0 -17 -2 10)
1969/12/31/18:00:07.633,(57 2 1 6 11 -13 3 25)
1969/12/31/18:00:07.633,(13 -90 -70 -17 -13 -6 -1 28)
1969/12/31/18:00:07.644,(3 72 38 2 -10 -1 -12 -4)
1969/12/31/18:00:07.644,(-93 11 21 -5 -8 10 -3 -89)
1969/12/31/18:00:07.645,(40 3 -2 14 23 -5 1 46)
1969/12/31/18:00:07.645,(-27 33 41 25 -2 -41 -17 -37)
1969/12/31/18:00:07.655,(-20 -57 -55 -32 -4 41 5 -22)
1969/12/31/18:00:07.655,(3 -18 -14 -7 -2 7 1 -4)
1969/12/31/18:00:07.656,(-45 8 7 4 -13 -7 -1 -13)
1969/12/31/18:00:07.656,(21 0 -7 -2 8 1 2 9)
1969/12/31/18:00:07.673,(-22 -49 -62 -22 -29 -24 -17 -23)
1969/12/31/18:00:07.673,(6 69 93 29 24 7 -3 22)
1969/12/31/18:00:07.674,(-31 6 14 13 12 11 -10 -56)
1969/12/31/18:00:07.674,(-1 -35 -30 -9 5 -11 -5 31)
1969/12/31/18:00:07.691,(10 51 23 4 -11 11 2 17)
1969/12/31/18:00:07.691,(12 -49 -40 -2 8 -21 -11 -17)
1969/12/31/18:00:07.692,(13 -38 -38 -27 -34 0 1 10)
1969/12/31/18:00:07.692,(16 65 28 -6 -11 8 6 27)
1969/12/31/18:00:07.702,(-6 52 83 35 15 5 15 33)
1969/12/31/18:00:07.702,(19 -12 -34 -5 13 -8 -3 -30)
1969/12/31/18:00:07.703,(-52 -80 -76 -4 16 7 5 17)
1969/12/31/18:00:07.703,(30 90 49 10 -1 13 12 13)
1969/12/31/18:00:07.720,(28 10 26 -1 -14 -22 -14 23)
1969/12/31/18:00:07.720,(20 -28 -59 -25 -22 -2 -2 -2)
1969/12/31/18:00:07.720,(-33 -7 68 26 3 -20 -5 -26)
1969/12/31/18:00:07.720,(-40 -36 -17 -2 15 19 0 -26)
1969/12/31/18:00:07.738,(-16 -57 -69 -28 -25 -9 4 -50)
1969/12/31/18:00:07.738,(-13 1 48 37 51 41 -1 4)
1969/12/31/18:00:07.739,(-22 -80 -96 -37 -33 -5 2 -19)
1969/12/31/18:00:07.739,(0 35 -28 -25 11 53 5 -11)
1969/12/31/18:00:07.749,(48 90 84 17 -10 -37 -12 10)
1969/12/31/18:00:07.750,(-36 -67 -14 -8 -8 -9 9 18)
1969/12/31/18:00:07.750,(38 54 25 3 -13 -19 1 28)
1969/12/31/18:00:07.750,(6 -85 -43 9 21 2 3 3)
1969/12/31/18:00:07.767,(-21 -15 -21 -5 -3 1 -14 -11)
1969/12/31/18:00:07.767,(21 56 52 3 -2 -9 -14 -22)
1969/12/31/18:00:07.768,(-1 18 12 11 15 41 5 28)
1969/12/31/18:00:07.768,(-22 20 7 -8 -20 -43 5 -14)
1969/12/31/18:00:07.785,(-34 -106 -66 -24 20 32 -2 -10)
1969/12/31/18:00:07.785,(-4 -30 -11 3 -35 -44 10 19)
1969/12/31/18:00:07.786,(-59 68 34 0 24 36 1 -55)
1969/12/31/18:00:07.786,(36 60 85 31 -1 -6 -25 4)
1969/12/31/18:00:07.796,(-12 -55 -49 -3 -4 -22 6 19)
1969/12/31/18:00:07.796,(-4 -77 -68 -20 -4 19 12 12)
1969/12/31/18:00:07.797,(2 -14 -28 -4 -1 -51 -14 0)
1969/12/31/18:00:07.797,(18 62 52 8 4 48 2 -5)
1969/12/31/18:00:07.815,(-6 44 35 10 3 4 -2 -16)
1969/12/31/18:00:07.815,(63 17 15 7 -34 -27 -8 19)
1969/12/31/18:00:07.815,(-15 -89 -51 -31 -16 5 15 -5)
1969/12/31/18:00:07.815,(15 -16 -29 -7 -11 -28 -1 48)
1969/12/31/18:00:07.832,(-14 63 31 13 8 -14 -5 -35)
1969/12/31/18:00:07.832,(-8 -46 -8 14 26 -9 -11 -8)
1969/12/31/18:00:07.833,(58 75 2 -11 -9 33 3 13)
1969/12/31/18:00:07.833,(-12 38 56 11 -7 1 11 -6)
1969/12/31/18:00:07.843,(-11 -128 -118 -39 -17 6 9 36)
1969/12/31/18:00:07.843,(-62 -22 -79 -24 -7 -33 -22 -66)
1969/12/31/18:00:07.844,(39 102 113 57 17 -29 -10 6)
1969/12/31/18:00:07.844,(13 -96 -47 -6 14 2 -12 6)
1969/12/31/18:00:07.863,(23 -4 -54 -20 -56 -10 -8 8)
1969/12/31/18:00:07.863,(-12 47 71 26 9 10 16 -2)
1969/12/31/18:00:07.864,(-6 -77 -51 -27 -6 -1 4 30)
1969/12/31/18:00:07.864,(-38 -47 -72 -23 4 3 -3 -27)
1969/12/31/18:00:07.879,(26 -7 57 25 20 13 11 14)
1969/12/31/18:00:07.879,(5 113 48 14 -3 -25 -7 3)
1969/12/31/18:00:07.880,(17 27 43 8 1 41 9 -10)
1969/12/31/18:00:07.880,(-16 -39 -11 7 -18 -29 -7 -6)
1969/12/31/18:00:07.890,(24 -60 -46 -8 22 -4 -2 21)
1969/12/31/18:00:07.890,(-2 -7 -33 -8 23 29 22 14)
1969/12/31/18:00:07.891,(25 -43 -36 -27 -76 -41 -18 -13)
1969/12/31/18:00:07.891,(1 13 -2 5 15 0 15 7)
1969/12/31/18:00:07.909,(-13 -58 -21 -22 29 43 -9 -37)
1969/12/31/18:00:07.909,(36 118 101 40 12 16 18 34)
1969/12/31/18:00:07.909,(-17 -52 -45 4 30 6 -3 -32)
1969/12/31/18:00:07.909,(-48 -71 -33 -19 -34 -24 -22 -34)
1969/12/31/18:00:07.927,(-21 -27 -56 -10 -25 -71 -12 -4)
1969/12/31/18:00:07.927,(47 69 47 0 18 62 9 15)
1969/12/31/18:00:07.927,(-48 -60 -5 7 8 -9 -2 -34)
1969/12/31/18:00:07.927,(50 -10 -45 -5 18 -13 -1 28)
1969/12/31/18:00:07.938,(-47 63 52 18 11 28 -12 -37)
1969/12/31/18:00:07.938,(-29 -84 -67 -40 -42 -10 -11 -6)
1969/12/31/18:00:07.944,(33 31 5 -2 7 -7 0 8)
1969/12/31/18:00:07.944,(19 -80 -41 -13 6 24 17 50)
1969/12/31/18:00:07.956,(-39 67 36 19 24 -10 -10 -74)
1969/12/31/18:00:07.956,(-6 -26 -33 -29 -21 1 -14 5)
1969/12/31/18:00:07.956,(10 77 50 6 3 10 5 12)
1969/12/31/18:00:07.956,(-19 -80 -18 9 -9 -10 -3 -5)
1969/12/31/18:00:07.974,(13 -24 -79 -20 -1 -10 31 10)
1969/12/31/18:00:07.974,(44 72 79 100 77 32 -9 38)
1969/12/31/18:00:07.974,(-2 -112 -108 -38 -65 -35 -29 -27)
1969/12/31/18:00:07.974,(-55 -39 -67 -25 -26 -17 5 -31)
1969/12/31/18:00:07.985,(-62 27 47 7 26 33 -34 -44)
1969/12/31/18:00:07.985,(7 -128 -125 -53 -23 -16 11 -30)
1969/12/31/18:00:07.992,(26 127 118 52 22 -21 1 49)
1969/12/31/18:00:07.992,(-11 38 83 46 21 34 19 -17)
1969/12/31/18:00:08.003,(-7 -107 -55 -25 -40 -25 3 27)
1969/12/31/18:00:08.003,(23 21 -21 -11 -6 -2 8 35)
1969/12/31/18:00:08.004,(-36 -8 26 18 35 15 3 -6)
1969/12/31/18:00:08.004,(53 33 -4 -24 -39 -20 -18 -1)
1969/12/31/18:00:08.021,(-8 19 11 8 13 7 -11 -1)
1969/12/31/18:00:08.021,(-28 40 39 10 -3 1 7 14)
1969/12/31/18:00:08.021,(47 3 -28 -8 8 5 14 65)
1969/12/31/18:00:08.021,(67 53 27 3 -4 -10 -13 -11)
1969/12/31/18:00:08.031,(-38 -105 -45 -4 16 22 8 9)
1969/12/31/18:00:08.031,(-27 -96 -73 -26 -34 -45 -11 21)
1969/12/31/18:00:08.039,(-62 98 79 27 32 33 -36 -86)
1969/12/31/18:00:08.039,(-16 -3 11 -7 -10 -3 35 -7)
1969/12/31/18:00:08.050,(91 75 39 10 1 19 33 59)
1969/12/31/18:00:08.050,(-57 -103 -51 -18 14 -17 -28 -73)
1969/12/31/18:00:08.051,(-30 -110 -102 -10 51 79 53 59)
1969/12/31/18:00:08.051,(13 86 93 12 -42 -7 4 -27)
1969/12/31/18:00:08.074,(13 97 49 9 -26 -21 -28 -16)
1969/12/31/18:00:08.074,(-11 -6 28 9 0 -11 27 52)
1969/12/31/18:00:08.075,(42 -66 -68 -33 -12 -32 -19 6)
1969/12/31/18:00:08.075,(-18 27 8 15 24 10 -16 -8)
1969/12/31/18:00:08.079,(0 -39 1 -2 0 6 26 38)
1969/12/31/18:00:08.079,(-47 58 7 4 -12 -8 -26 -50)
1969/12/31/18:00:08.086,(13 -59 -15 -1 -5 -17 -18 -41)
1969/12/31/18:00:08.086,(-7 -56 -128 -47 0 11 9 19)
1969/12/31/18:00:08.098,(-30 111 115 53 11 -14 -8 -33)
1969/12/31/18:00:08.098,(51 -20 -45 -9 -14 -14 -24 17)
1969/12/31/18:00:08.098,(80 -26 -52 -19 -1 23 45 93)
1969/12/31/18:00:08.098,(-4 113 103 26 39 17 1 5)
1969/12/31/18:00:08.115,(-22 -128 -75 -6 6 -22 -35 -19)
1969/12/31/18:00:08.115,(-17 -15 4 -32 -57 46 46 -3)
1969/12/31/18:00:08.116,(12 34 -7 -19 -50 -72 -18 -13)
1969/12/31/18:00:08.116,(-46 -116 -53 5 18 -13 2 32)
1969/12/31/18:00:08.132,(14 48 -5 -20 -15 -24 -42 -15)
1969/12/31/18:00:08.132,(4 26 44 25 41 61 31 71)
1969/12/31/18:00:08.138,(-65 35 66 7 -22 -34 -22 -39)
1969/12/31/18:00:08.138,(15 -66 -53 -20 -16 -16 -13 3)
1969/12/31/18:00:08.144,(37 96 59 16 0 -4 23 8)
1969/12/31/18:00:08.144,(-29 -108 -80 -24 -5 -19 -17 -13)
1969/12/31/18:00:08.149,(-39 -82 -95 -40 -5 15 9 -9)
1969/12/31/18:00:08.149,(64 127 127 75 34 5 -3 14)
1969/12/31/18:00:08.162,(37 -102 -32 3 -5 -7 10 18)
1969/12/31/18:00:08.162,(9 -52 -41 -2 13 14 -3 -42)
1969/12/31/18:00:08.163,(-48 44 20 6 17 6 -7 -36)
1969/12/31/18:00:08.163,(15 -19 -32 -37 -64 -72 -31 -5)
1969/12/31/18:00:08.179,(-21 -78 -107 -43 25 70 5 -8)
1969/12/31/18:00:08.179,(54 127 127 63 29 8 17 1)
1969/12/31/18:00:08.181,(-16 -105 -58 -20 -22 -35 -22 -21)
1969/12/31/18:00:08.181,(-68 -78 -99 -27 -6 2 -14 -34)
1969/12/31/18:00:08.191,(-15 90 122 42 9 28 18 -7)
1969/12/31/18:00:08.191,(11 -59 -76 -29 -14 -32 -16 -16)
1969/12/31/18:00:08.202,(-1 5 15 13 11 -3 1 20)
1969/12/31/18:00:08.202,(16 0 -40 -24 -3 24 8 9)
1969/12/31/18:00:08.209,(-64 -33 7 8 -18 -34 -3 -25)
1969/12/31/18:00:08.209,(-55 -91 -89 -30 -4 9 -24 -58)
1969/12/31/18:00:08.210,(-3 127 90 23 -1 1 3 -3)
1969/12/31/18:00:08.210,(-43 -18 7 -3 -8 -3 -10 -28)
1969/12/31/18:00:08.226,(47 -99 -112 -28 6 3 15 52)
1969/12/31/18:00:08.226,(14 104 117 25 -12 -23 -9 0)
1969/12/31/18:00:08.228,(-50 -128 -114 -30 -22 -20 -15 -22)
1969/12/31/18:00:08.228,(-47 48 4 -7 14 -21 1 -18)
1969/12/31/18:00:08.237,(71 127 118 76 61 90 46 29)
1969/12/31/18:00:08.237,(-43 -73 -50 -29 -45 -21 -11 -25)
1969/12/31/18:00:08.244,(27 -26 19 28 30 11 5 -4)
1969/12/31/18:00:08.244,(28 56 31 7 0 25 15 12)
1969/12/31/18:00:08.256,(1 -39 -55 -41 -35 -49 -28 -13)
1969/12/31/18:00:08.256,(18 -52 -96 -28 -10 -27 -5 18)
1969/12/31/18:00:08.258,(6 99 97 56 19 32 20 -5)
1969/12/31/18:00:08.258,(37 -37 1 16 10 1 -7 9)
1969/12/31/18:00:08.273,(29 -77 -61 -18 -16 -18 -3 17)
1969/12/31/18:00:08.273,(-33 85 76 34 62 64 27 -6)
1969/12/31/18:00:08.275,(-52 -61 -70 -63 -76 -52 -55 -41)
1969/12/31/18:00:08.275,(3 -54 -15 -2 -10 -3 26 28)
1969/12/31/18:00:08.285,(14 45 27 -1 -2 -4 -2 -8)
1969/12/31/18:00:08.285,(16 -43 -23 -14 -13 -27 -4 20)
1969/12/31/18:00:08.291,(25 -45 -37 3 26 30 40 64)
1969/12/31/18:00:08.291,(42 127 112 19 6 11 -3 -6)
1969/12/31/18:00:08.303,(-45 -128 -76 -27 -27 -30 -20 -27)
1969/12/31/18:00:08.303,(-7 -68 -99 -16 9 0 -2 37)
1969/12/31/18:00:08.305,(46 127 110 19 1 39 41 15)
1969/12/31/18:00:08.305,(18 -46 10 14 14 21 3 21)
1969/12/31/18:00:08.320,(-11 -46 -50 -14 10 -21 -7 11)
1969/12/31/18:00:08.320,(72 68 40 13 -2 -1 11 28)
1969/12/31/18:00:08.322,(-11 -62 -45 -11 -26 -31 -19 4)
1969/12/31/18:00:08.322,(-74 -74 -72 -25 -11 39 12 -38)
1969/12/31/18:00:08.331,(-34 127 116 30 13 -28 -25 -21)
1969/12/31/18:00:08.331,(-9 -65 -27 -9 2 9 0 2)
1969/12/31/18:00:08.339,(-16 -65 -88 -25 3 -1 -6 -14)
1969/12/31/18:00:08.339,(36 101 102 58 27 -5 0 7)
1969/12/31/18:00:08.357,(0 -56 -47 8 -7 -1 4 -4)
1969/12/31/18:00:08.357,(-5 21 -20 -7 7 27 25 13)
1969/12/31/18:00:08.357,(-21 84 122 23 -7 -18 -27 -29)
1969/12/31/18:00:08.357,(-44 -128 -123 -46 -13 -14 -1 8)
1969/12/31/18:00:08.368,(1 111 50 -5 -14 18 -3 -22)
1969/12/31/18:00:08.368,(31 17 80 48 29 -11 3 37)
1969/12/31/18:00:08.373,(14 -69 -82 -30 8 28 -1 5)
1969/12/31/18:00:08.373,(13 49 35 15 3 -13 -7 13)
1969/12/31/18:00:08.379,(-34 -71 -40 -19 1 37 7 6)
1969/12/31/18:00:08.379,(-41 -59 -62 -30 -27 -20 -13 -33)
1969/12/31/18:00:08.386,(54 69 43 21 16 -7 2 21)
1969/12/31/18:00:08.386,(-29 -37 -32 5 25 10 -8 -38)
1969/12/31/18:00:08.397,(70 -11 -41 -11 -14 -11 22 43)
1969/12/31/18:00:08.397,(-4 127 127 18 -40 -16 -25 -49)
1969/12/31/18:00:08.398,(2 -128 -93 -26 12 16 -2 4)
1969/12/31/18:00:08.398,(-50 -77 -62 -33 -22 -19 -28 -45)
1969/12/31/18:00:08.421,(-2 65 40 12 12 12 17 13)
1969/12/31/18:00:08.421,(34 43 21 16 20 6 4 8)
1969/12/31/18:00:08.422,(-26 -31 -38 -6 -8 -13 1 -33)
1969/12/31/18:00:08.422,(-8 60 57 31 24 4 -7 18)
1969/12/31/18:00:08.426,(8 -73 -81 -18 17 27 -6 -18)
1969/12/31/18:00:08.426,(-5 -14 21 -2 -39 -37 -16 -10)
1969/12/31/18:00:08.438,(8 34 16 -2 0 3 23 26)
1969/12/31/18:00:08.439,(-35 -128 -112 -35 -2 -7 -13 -16)
1969/12/31/18:00:08.444,(-3 57 22 12 -15 -24 -23 -45)
1969/12/31/18:00:08.444,(6 12 -12 7 29 41 17 -6)
1969/12/31/18:00:08.445,(32 -61 -26 9 1 -23 -18 0)
1969/12/31/18:00:08.445,(31 24 27 14 3 13 30 36)
1969/12/31/18:00:08.462,(-6 -82 -51 -30 -9 -1 6 43)
1969/12/31/18:00:08.462,(50 66 44 5 1 -4 13 18)
1969/12/31/18:00:08.463,(21 29 15 10 15 3 -2 14)
1969/12/31/18:00:08.463,(27 -40 -82 -43 -21 9 13 59)
1969/12/31/18:00:08.473,(14 84 105 63 17 -3 12 13)
1969/12/31/18:00:08.473,(-27 -110 -79 -14 -1 1 -14 -22)
1969/12/31/18:00:08.479,(27 87 16 -9 -32 -8 1 0)
1969/12/31/18:00:08.479,(11 -11 30 3 -7 0 0 -3)
1969/12/31/18:00:08.492,(-29 -112 -73 -39 -23 -36 -8 -18)
1969/12/31/18:00:08.492,(5 27 12 9 4 5 -2 6)
1969/12/31/18:00:08.492,(-16 -34 -20 6 30 31 19 13)
1969/12/31/18:00:08.492,(-32 58 61 15 14 18 -10 -37)
1969/12/31/18:00:08.515,(-19 89 67 6 -32 -13 -7 -37)
1969/12/31/18:00:08.515,(-30 -108 -96 -26 14 -11 -13 -21)
1969/12/31/18:00:08.516,(0 -8 -6 0 1 -3 4 5)
1969/12/31/18:00:08.517,(24 33 1 5 -10 -3 3 23)
1969/12/31/18:00:08.521,(-20 -70 -48 -22 -4 4 -19 -47)
1969/12/31/18:00:08.521,(-4 51 63 31 12 -40 -19 -7)
1969/12/31/18:00:08.526,(-44 -53 -25 -17 -20 19 -13 -29)
1969/12/31/18:00:08.526,(-16 -16 -33 5 9 5 19 -2)
1969/12/31/18:00:08.539,(32 100 55 2 0 -4 5 18)
1969/12/31/18:00:08.539,(22 27 25 11 8 13 8 22)
1969/12/31/18:00:08.539,(-8 -65 -65 -24 -14 -12 16 50)
1969/12/31/18:00:08.539,(23 76 79 47 12 4 -12 -21)
1969/12/31/18:00:08.557,(2 -90 -67 -3 -2 -32 -3 12)
1969/12/31/18:00:08.557,(-26 -101 -99 -39 -21 22 -7 -21)
1969/12/31/18:00:08.557,(-11 60 47 20 4 21 28 1)
1969/12/31/18:00:08.557,(13 -11 -31 -11 -1 7 -4 -12)
1969/12/31/18:00:08.567,(-11 -63 -36 -10 -1 1 4 1)
1969/12/31/18:00:08.567,(-6 80 90 22 2 -32 -7 -1)
1969/12/31/18:00:08.574,(9 10 5 12 10 -5 2 10)
1969/12/31/18:00:08.574,(-10 -84 -73 -35 -19 16 -3 2)
1969/12/31/18:00:08.586,(15 107 36 14 -9 -7 -2 13)
1969/12/31/18:00:08.586,(1 -68 -74 -21 -19 -26 2 -10)
1969/12/31/18:00:08.586,(-34 -61 -70 -22 12 36 -10 -20)
1969/12/31/18:00:08.586,(48 127 127 70 22 -2 3 15)
1969/12/31/18:00:08.603,(54 -38 -31 -9 7 4 13 48)
1969/12/31/18:00:08.603,(-34 -86 -82 -34 -17 10 -5 -19)
1969/12/31/18:00:08.605,(50 110 48 11 -10 -30 -3 40)
1969/12/31/18:00:08.605,(13 -7 12 16 6 -26 -7 -11)
1969/12/31/18:00:08.614,(-31 -6 10 1 11 34 -9 -18)
1969/12/31/18:00:08.614,(16 -24 -11 -8 -15 13 -6 -1)
1969/12/31/18:00:08.621,(-14 3 34 13 -17 -18 2 -12)
1969/12/31/18:00:08.621,(-18 -109 -108 -40 3 6 9 -1)
1969/12/31/18:00:08.633,(31 82 72 9 -4 16 -3 -13)
1969/12/31/18:00:08.633,(6 107 84 28 20 14 4 -10)
1969/12/31/18:00:08.634,(-27 -109 -56 -9 3 -18 -23 -30)
1969/12/31/18:00:08.634,(5 15 -21 -21 -13 -16 -22 3)
1969/12/31/18:00:08.650,(-25 -55 -15 10 -3 -19 -2 -13)
1969/12/31/18:00:08.650,(8 22 18 -2 1 2 14 18)
1969/12/31/18:00:08.652,(-11 -15 -17 -16 -13 1 -14 -28)
1969/12/31/18:00:08.652,(15 67 34 9 -6 -29 6 18)
1969/12/31/18:00:08.661,(5 -67 -47 3 32 36 -22 -10)
1969/12/31/18:00:08.661,(-21 -38 -52 -29 -11 -5 -9 -18)
1969/12/31/18:00:08.668,(-15 90 93 42 18 4 3 -25)
1969/12/31/18:00:08.668,(-25 -47 -44 -17 10 20 0 -28)
1969/12/31/18:00:08.680,(-29 -38 -15 -23 -53 -38 -12 -24)
1969/12/31/18:00:08.680,(20 66 57 28 21 0 12 18)
1969/12/31/18:00:08.681,(45 106 60 9 -7 17 -8 2)
1969/12/31/18:00:08.681,(-24 -72 -49 -5 2 10 22 6)
1969/12/31/18:00:08.697,(-36 -76 -65 -16 12 -2 -18 -30)
1969/12/31/18:00:08.697,(-6 49 12 3 0 -7 -3 -7)
1969/12/31/18:00:08.699,(-11 -33 -10 3 8 -18 -17 -6)
1969/12/31/18:00:08.699,(13 -19 12 0 12 21 11 19)
1969/12/31/18:00:08.708,(19 67 15 16 8 16 49 77)
1969/12/31/18:00:08.708,(11 2 27 19 9 -6 -14 -8)
1969/12/31/18:00:08.715,(-12 -63 -76 -36 -8 -2 0 11)
1969/12/31/18:00:08.715,(10 54 49 2 -12 -17 -24 -18)
1969/12/31/18:00:08.727,(1 -6 -25 -8 5 13 17 7)
1969/12/31/18:00:08.727,(6 -65 -43 -10 -8 -7 7 1)
1969/12/31/18:00:08.729,(0 37 47 23 24 8 2 2)
1969/12/31/18:00:08.729,(-6 -82 -64 -39 -53 -43 -22 5)
1969/12/31/18:00:08.744,(-16 92 80 38 67 47 5 -13)
1969/12/31/18:00:08.744,(-7 -13 -7 -25 -50 -26 7 4)
1969/12/31/18:00:08.746,(-18 -86 -87 -50 -27 -10 -13 -21)
1969/12/31/18:00:08.746,(-7 38 17 21 8 -9 6 5)
1969/12/31/18:00:08.755,(-26 -67 -67 -17 -5 -2 -10 -30)
1969/12/31/18:00:08.755,(-17 31 -3 4 1 2 -22 -21)
1969/12/31/18:00:08.762,(11 21 34 18 19 14 13 16)
1969/12/31/18:00:08.762,(-11 -94 -83 -31 -5 -24 -19 -25)
1969/12/31/18:00:08.774,(-6 41 18 0 -24 -7 9 2)
1969/12/31/18:00:08.774,(-23 -15 27 7 13 12 -14 -20)
1969/12/31/18:00:08.775,(16 -2 -31 -10 -15 -31 -3 11)
1969/12/31/18:00:08.775,(-12 -3 19 8 1 5 8 0)
1969/12/31/18:00:08.792,(18 50 26 9 -12 0 -7 1)
1969/12/31/18:00:08.792,(15 -54 -49 -24 -15 6 8 14)
1969/12/31/18:00:08.797,(18 -8 8 14 20 6 9 14)
1969/12/31/18:00:08.797,(9 9 -25 -9 -2 16 5 0)
1969/12/31/18:00:08.802,(11 2 28 19 2 -29 -21 7)
1969/12/31/18:00:08.802,(51 -26 -31 2 23 14 14 34)
1969/12/31/18:00:08.809,(26 17 41 15 -8 -12 -6 0)
1969/12/31/18:00:08.809,(-34 -109 -92 -32 -13 -5 -7 -12)
1969/12/31/18:00:08.821,(14 38 51 -2 1 34 30 22)
1969/12/31/18:00:08.821,(10 -17 -36 -3 5 -15 -2 18)
1969/12/31/18:00:08.822,(4 82 88 59 52 62 22 10)
1969/12/31/18:00:08.822,(12 -23 -8 1 -10 -14 -3 5)
1969/12/31/18:00:08.839,(10 -24 -22 -5 -2 -10 5 11)
1969/12/31/18:00:08.839,(-20 -92 -49 -2 27 -3 -7 -4)
1969/12/31/18:00:08.841,(-39 -128 -121 -60 -34 -30 -34 -34)
1969/12/31/18:00:08.841,(2 76 37 18 -2 18 20 14)
1969/12/31/18:00:08.856,(4 59 70 39 26 15 -3 -21)
1969/12/31/18:00:08.856,(13 -23 -45 -18 -32 -14 7 28)
1969/12/31/18:00:08.857,(-13 -53 -31 -7 -9 -25 -13 -3)
1969/12/31/18:00:08.857,(-3 26 22 2 8 -14 -8 -12)
1969/12/31/18:00:08.867,(-24 -128 -94 -37 -12 -5 1 -6)
1969/12/31/18:00:08.867,(-7 -56 -49 -31 -17 9 12 6)
1969/12/31/18:00:08.873,(-2 113 67 39 16 1 8 -8)
1969/12/31/18:00:08.873,(24 -23 26 30 20 0 -8 4)
1969/12/31/18:00:08.885,(6 -61 -62 -7 -9 -19 -7 -1)
1969/12/31/18:00:08.886,(-47 -49 -16 15 -10 -15 7 -23)
1969/12/31/18:00:08.887,(-30 -18 -16 -36 -10 39 -13 -43)
1969/12/31/18:00:08.887,(-29 -37 -55 -31 -11 0 -7 -20)
1969/12/31/18:00:08.896,(5 76 68 23 19 -6 -10 -8)
1969/12/31/18:00:08.896,(19 127 80 26 17 19 -22 -4)
1969/12/31/18:00:08.903,(-2 -73 -71 -24 -2 -12 11 15)
1969/12/31/18:00:08.903,(33 88 77 14 -13 6 -2 15)
1969/12/31/18:00:08.914,(-7 -26 15 1 7 5 6 -2)
1969/12/31/18:00:08.914,(6 73 42 22 25 -7 -18 -22)
1969/12/31/18:00:08.926,(4 -62 1 13 3 -3 2 -8)
1969/12/31/18:00:08.926,(20 30 -31 -21 -28 29 16 10)
1969/12/31/18:00:08.933,(-8 -49 -31 -26 -23 -27 -21 -7)
1969/12/31/18:00:08.933,(-2 26 29 4 7 11 -3 1)
1969/12/31/18:00:08.934,(4 -34 -37 1 13 -5 4 -4)
1969/12/31/18:00:08.934,(-23 -33 -12 -12 -16 -6 9 15)
1969/12/31/18:00:08.951,(25 49 30 11 -6 -8 -3 9)
1969/12/31/18:00:08.951,(23 74 40 22 13 15 20 20)
1969/12/31/18:00:08.952,(-15 4 -4 -2 10 -9 -7 17)
1969/12/31/18:00:08.952,(-27 -84 -27 -5 -1 -32 -19 -18)
1969/12/31/18:00:08.962,(-23 -39 -82 -29 -20 -2 -12 -10)
1969/12/31/18:00:08.962,(48 72 91 20 -7 51 58 43)
1969/12/31/18:00:08.963,(-2 -65 -49 -17 -18 -19 -4 9)
1969/12/31/18:00:08.963,(12 -22 -16 5 18 11 5 10)
1969/12/31/18:00:08.980,(30 56 53 29 27 -14 -26 -11)
1969/12/31/18:00:08.980,(-5 -18 -10 -5 6 3 2 1)
1969/12/31/18:00:08.981,(-4 72 58 7 -11 4 -11 -20)
1969/12/31/18:00:08.981,(-15 -45 -17 6 18 12 -13 -21)
1969/12/31/18:00:08.998,(-17 -82 -58 -26 -18 -2 22 15)
1969/12/31/18:00:08.998,(-15 -60 -42 -18 -6 -16 -6 -5)
1969/12/31/18:00:09.002,(32 116 88 37 5 13 17 20)
1969/12/31/18:00:09.002,(17 38 45 25 7 -6 -3 13)
1969/12/31/18:00:09.009,(13 56 7 -3 -9 0 -1 -2)
1969/12/31/18:00:09.009,(-18 -59 -33 -20 -6 -2 -19 -27)
1969/12/31/18:00:09.011,(-29 -101 -74 -25 -9 4 4 -6)
1969/12/31/18:00:09.011,(-5 -67 -53 -13 -3 -13 1 3)
1969/12/31/18:00:09.027,(39 76 12 8 9 24 -4 -7)
1969/12/31/18:00:09.027,(-19 -13 7 12 15 -18 -12 -9)
1969/12/31/18:00:09.028,(36 110 77 13 -20 -24 -21 1)
1969/12/31/18:00:09.028,(-17 -41 -18 17 21 31 31 21)
1969/12/31/18:00:09.051,(-71 -128 -102 -66 -44 -23 -9 -15)
1969/12/31/18:00:09.051,(-29 -109 -62 -19 -11 -6 1 -13)
1969/12/31/18:00:09.053,(23 90 68 20 12 -2 -4 4)
1969/12/31/18:00:09.053,(36 127 95 30 18 -9 -24 -42)
1969/12/31/18:00:09.056,(-35 -101 -39 7 0 7 9 -5)
1969/12/31/18:00:09.056,(-20 5 -31 -13 -21 -9 4 -5)
1969/12/31/18:00:09.061,(-8 -38 -20 5 17 -15 2 2)
1969/12/31/18:00:09.061,(-6 -50 -43 -39 -34 26 -13 -14)
1969/12/31/18:00:09.075,(14 68 62 26 6 -8 17 12)
1969/12/31/18:00:09.075,(11 -47 -35 -1 9 5 -8 1)
1969/12/31/18:00:09.075,(9 -27 -29 -8 8 19 17 -2)
1969/12/31/18:00:09.075,(-17 -6 -17 -12 -13 -27 -17 -14)
1969/12/31/18:00:09.092,(19 48 66 22 0 -4 6 16)
1969/12/31/18:00:09.092,(-14 -56 -36 -15 -18 -12 -10 -7)
1969/12/31/18:00:09.093,(-5 10 26 25 27 -13 8 5)
1969/12/31/18:00:09.093,(11 53 33 -7 -4 31 6 -2)
1969/12/31/18:00:09.103,(-22 -82 -86 -36 -12 -7 -9 -12)
1969/12/31/18:00:09.103,(40 77 73 31 0 -7 14 31)
1969/12/31/18:00:09.108,(-41 -77 -59 -14 3 -3 -25 -29)
1969/12/31/18:00:09.108,(-3 0 17 -3 -11 -15 6 16)
1969/12/31/18:00:09.121,(-2 -29 -48 -16 -8 -4 -12 22)
1969/12/31/18:00:09.121,(38 32 31 2 15 0 -11 -10)
1969/12/31/18:00:09.122,(25 -37 -24 -1 -3 -21 3 21)
1969/12/31/18:00:09.122,(-4 23 24 21 22 31 16 4)
1969/12/31/18:00:09.139,(-33 -78 -27 -19 -16 -20 -8 -13)
1969/12/31/18:00:09.139,(-29 -14 -51 -28 -11 5 -8 -12)
1969/12/31/18:00:09.140,(19 45 30 5 -5 5 13 16)
1969/12/31/18:00:09.140,(-21 -47 -65 -11 0 -29 -6 2)
1969/12/31/18:00:09.150,(23 67 114 54 40 25 -3 0)
1969/12/31/18:00:09.150,(-13 -9 -54 -12 -7 -1 14 -6)
1969/12/31/18:00:09.162,(-10 -27 -2 -13 -12 22 7 1)
1969/12/31/18:00:09.162,(-10 -22 -7 -6 -6 -16 -18 -18)
1969/12/31/18:00:09.168,(22 -35 -33 -10 -5 -4 4 3)
1969/12/31/18:00:09.168,(-42 -46 -14 -8 -6 -17 -9 -10)
1969/12/31/18:00:09.170,(-7 18 -7 -5 -2 22 3 -2)
1969/12/31/18:00:09.170,(7 18 22 5 2 -4 -1 2)
1969/12/31/18:00:09.186,(33 68 27 10 13 11 16 12)
1969/12/31/18:00:09.186,(-28 -46 8 3 -2 0 -10 -9)
1969/12/31/18:00:09.187,(22 14 0 0 -11 -13 -12 0)
1969/12/31/18:00:09.187,(30 43 33 12 -4 -16 -9 -4)
1969/12/31/18:00:09.197,(-10 0 -8 -1 8 28 26 8)
1969/12/31/18:00:09.197,(-12 -11 14 3 5 24 16 14)
1969/12/31/18:00:09.202,(-3 -46 -27 -13 -17 -9 -6 -6)
1969/12/31/18:00:09.202,(20 6 -19 -12 0 2 8 23)
1969/12/31/18:00:09.215,(11 54 43 14 -1 -10 -3 -1)
1969/12/31/18:00:09.215,(-2 -4 0 1 -4 -7 -10 -2)
1969/12/31/18:00:09.217,(-8 12 11 2 12 20 14 10)
1969/12/31/18:00:09.217,(-24 -9 0 10 5 -2 3 -11)
1969/12/31/18:00:09.233,(-35 -53 -24 -19 -19 -18 -19 -7)
1969/12/31/18:00:09.233,(20 23 8 2 10 23 19 5)
1969/12/31/18:00:09.234,(-18 -26 -5 -4 -15 -19 -14 -10)
1969/12/31/18:00:09.234,(36 24 7 3 2 0 5 17)
1969/12/31/18:00:09.243,(12 21 5 7 5 -5 3 -7)
1969/12/31/18:00:09.243,(11 -8 -4 -2 -2 4 -28 0)
1969/12/31/18:00:09.250,(-36 -29 -16 -13 -15 -9 24 -2)
1969/12/31/18:00:09.250,(-19 0 3 -2 0 -8 -5 -2)
1969/12/31/18:00:09.262,(-3 -13 -10 -6 0 18 -37 -18)
1969/12/31/18:00:09.262,(4 4 5 -2 -12 -37 43 18)
1969/12/31/18:00:09.264,(-11 11 -4 -2 4 22 -11 -13)
1969/12/31/18:00:09.264,(25 9 7 0 -2 -3 14 8)
1969/12/31/18:00:09.280,(-15 -13 -3 -5 0 9 -19 -6)
1969/12/31/18:00:09.280,(39 20 0 0 -11 -34 -12 13)
1969/12/31/18:00:09.281,(-18 6 -1 1 5 20 0 -23)
1969/12/31/18:00:09.281,(-26 -28 -3 -4 -4 -10 15 -3)
1969/12/31/18:00:09.291,(9 -4 -2 2 4 8 -25 -3)
1969/12/31/18:00:09.291,(36 35 12 7 13 12 30 11)
1969/12/31/18:00:09.297,(20 -3 1 4 -16 -40 -28 9)
1969/12/31/18:00:09.297,(-25 -9 -4 -6 2 13 -39 -20)
1969/12/31/18:00:09.310,(-11 -4 0 1 0 -8 23 -1)
1969/12/31/18:00:09.310,(-13 13 11 12 6 -1 -36 -28)
1969/12/31/18:00:09.311,(6 7 0 0 4 14 1 -14)
1969/12/31/18:00:09.311,(11 1 -2 -3 -7 -14 13 1)
1969/12/31/18:00:09.327,(-9 -10 -11 -8 -15 -30 -45 -20)
1969/12/31/18:00:09.327,(-17 -7 1 3 13 67 43 24)
1969/12/31/18:00:09.328,(60 37 12 3 -3 -15 31 34)
1969/12/31/18:00:09.328,(-22 -14 -10 -7 -12 -13 -24 -29)
1969/12/31/18:00:09.338,(28 2 1 2 5 11 24 18)
1969/12/31/18:00:09.338,(9 -6 -9 -9 -5 8 -29 -4)
1969/12/31/18:00:09.344,(-24 -11 -1 -3 -5 -18 16 7)
1969/12/31/18:00:09.345,(-16 1 10 5 11 21 -22 6)
1969/12/31/18:00:09.356,(-25 -15 -7 -3 -6 -11 20 -12)
1969/12/31/18:00:09.357,(-26 10 1 -5 -4 0 8 -26)
1969/12/31/18:00:09.358,(-16 -22 -10 -2 0 -13 -58 -35)
1969/12/31/18:00:09.358,(-27 -14 -10 -6 -8 -5 24 20)
1969/12/31/18:00:09.374,(-26 -9 -6 -4 2 17 0 -26)
1969/12/31/18:00:09.374,(-41 -52 -3 5 3 0 -8 4)
1969/12/31/18:00:09.375,(96 79 20 7 6 11 15 33)
1969/12/31/18:00:09.375,(-19 24 -1 -4 -4 -7 -1 14)
1969/12/31/18:00:09.385,(1 -13 -8 -5 -1 -2 3 -17)
1969/12/31/18:00:09.385,(-6 -4 3 2 -2 -14 -3 35)
1969/12/31/18:00:09.392,(19 -14 -5 0 2 3 -7 -25)
1969/12/31/18:00:09.392,(18 0 7 6 9 10 5 -4)
1969/12/31/18:00:09.403,(24 11 5 7 4 0 23 27)
1969/12/31/18:00:09.403,(17 27 -1 -8 -11 -19 -27 -16)
1969/12/31/18:00:09.405,(-22 -14 -2 0 -1 3 3 0)
1969/12/31/18:00:09.405,(7 14 15 12 8 9 9 10)
1969/12/31/18:00:09.421,(55 15 -2 -3 -4 -4 7 23)
1969/12/31/18:00:09.421,(11 -6 1 1 -1 -1 -2 8)
1969/12/31/18:00:09.422,(-15 -11 -8 -3 -1 -3 -22 -20)
1969/12/31/18:00:09.422,(-75 -17 -6 -7 -6 -5 -4 -72)
1969/12/31/18:00:09.432,(-17 -44 -8 2 1 -4 2 28)
1969/12/31/18:00:09.432,(-35 -26 1 4 6 2 -8 -66)
1969/12/31/18:00:09.444,(17 54 -10 -18 -17 -9 -4 -7)
1969/12/31/18:00:09.444,(-62 -27 5 6 5 -2 -10 -14)
1969/12/31/18:00:09.450,(-5 23 3 -2 -3 -5 -3 -7)
1969/12/31/18:00:09.450,(43 -2 -7 -5 -7 -4 10 76)
1969/12/31/18:00:09.455,(-35 -35 -2 6 8 10 5 -17)
1969/12/31/18:00:09.455,(73 16 -4 -2 -1 2 9 38)
1969/12/31/18:00:09.468,(-11 4 -10 -20 -12 -7 -1 -6)
1969/12/31/18:00:09.468,(11 6 11 23 11 1 0 4)
1969/12/31/18:00:09.470,(-18 -11 4 2 4 3 6 11)
1969/12/31/18:00:09.470,(27 13 7 13 2 0 1 19)
1969/12/31/18:00:09.479,(-12 -12 -10 -4 0 0 4 3)
1969/12/31/18:00:09.479,(-21 -2 -17 -22 -10 -9 -12 -21)
1969/12/31/18:00:09.487,(2 9 25 17 6 3 4 5)
1969/12/31/18:00:09.487,(5 -4 -3 -3 -3 -1 -5 -20)
1969/12/31/18:00:09.498,(-4 -9 2 3 1 -1 1 7)
1969/12/31/18:00:09.498,(-9 -3 -31 -25 -14 -11 -12 -39)
1969/12/31/18:00:09.499,(26 4 0 -6 -3 2 5 13)
1969/12/31/18:00:09.499,(-15 -18 -26 -8 -3 -3 0 2)
1969/12/31/18:00:09.516,(-13 67 92 31 11 1 -2 -10)
1969/12/31/18:00:09.516,(-8 13 2 8 0 1 1 2)
1969/12/31/18:00:09.516,(-31 -70 -61 -25 -9 -5 -3 -4)
1969/12/31/18:00:09.516,(39 79 91 43 14 8 7 14)
1969/12/31/18:00:09.527,(-14 -5 -13 -1 2 6 1 -22)
1969/12/31/18:00:09.527,(-14 -14 -14 -10 -8 -9 -8 -7)
1969/12/31/18:00:09.533,(-5 -32 -24 -9 -3 -2 4 10)
1969/12/31/18:00:09.533,(10 -5 -8 -8 1 2 2 5)
1969/12/31/18:00:09.545,(-9 -13 -28 -12 -8 -5 -4 -8)
1969/12/31/18:00:09.545,(13 24 48 13 2 1 2 4)
1969/12/31/18:00:09.550,(-21 -35 -29 -12 -6 -4 -3 -3)
1969/12/31/18:00:09.550,(7 -18 -34 -6 5 11 19 18)
1969/12/31/18:00:09.563,(0 20 8 3 -3 -7 -15 -8)
1969/12/31/18:00:09.563,(9 36 28 6 2 2 -4 -7)
1969/12/31/18:00:09.563,(-14 -4 18 11 -2 -2 0 1)
1969/12/31/18:00:09.563,(-1 -13 -26 -7 -2 -4 -8 -6)
1969/12/31/18:00:09.574,(5 -60 -25 2 5 10 27 24)
1969/12/31/18:00:09.574,(-5 29 1 -5 -4 -10 -21 -19)
1969/12/31/18:00:09.581,(-8 15 9 6 4 3 1 -3)
1969/12/31/18:00:09.581,(-2 -83 -70 -31 -14 -6 -2 3)
1969/12/31/18:00:09.592,(16 93 79 35 6 -3 -1 1)
1969/12/31/18:00:09.592,(-8 -20 -13 -5 1 2 -1 1)
1969/12/31/18:00:09.597,(-4 -14 1 4 3 2 6 11)
1969/12/31/18:00:09.597,(7 35 21 0 3 7 9 6)
1969/12/31/18:00:09.610,(-8 -31 -40 -19 -7 -6 -1 2)
1969/12/31/18:00:09.610,(-8 2 12 10 2 -4 -11 -21)
1969/12/31/18:00:09.611,(-5 -11 3 -2 0 3 8 3)
1969/12/31/18:00:09.611,(0 1 -20 -8 -3 -4 -3 1)
1969/12/31/18:00:09.621,(4 21 29 3 -1 -3 -2 1)
1969/12/31/18:00:09.621,(-1 -10 -10 -6 -3 -1 2 4)
1969/12/31/18:00:09.628,(-10 -13 -14 1 0 0 -8 -11)
1969/12/31/18:00:09.628,(3 -6 10 -7 -7 -5 -4 -6)
1969/12/31/18:00:09.639,(-7 6 -6 5 4 0 1 -2)
1969/12/31/18:00:09.639,(2 -13 -22 -1 -2 0 3 6)
1969/12/31/18:00:09.644,(-11 -3 23 6 -1 -4 -2 -2)
1969/12/31/18:00:09.644,(11 46 6 3 1 -3 -15 -9)
1969/12/31/18:00:09.656,(-19 -61 -57 -25 -12 -7 -8 -11)
1969/12/31/18:00:09.656,(8 46 32 10 5 3 2 4)
1969/12/31/18:00:09.663,(-19 -47 -30 -7 -3 1 3 2)
1969/12/31/18:00:09.663,(10 44 62 16 3 -4 -3 -5)
1969/12/31/18:00:09.674,(3 -25 -22 -10 2 5 2 3)
1969/12/31/18:00:09.674,(-5 -1 -13 -6 -3 -1 3 -1)
1969/12/31/18:00:09.676,(17 26 -7 1 10 8 7 7)
1969/12/31/18:00:09.676,(-4 -1 24 6 -10 -6 -3 2)
1969/12/31/18:00:09.686,(0 0 -9 -2 6 0 -8 -3)
1969/12/31/18:00:09.686,(-7 -29 -9 -7 2 1 5 0)
1969/12/31/18:00:09.691,(1 13 7 -3 -3 -2 -4 -2)
1969/12/31/18:00:09.691,(-11 -36 -5 -8 -3 -3 -1 -4)
1969/12/31/18:00:09.705,(16 33 -5 9 4 1 3 5)
1969/12/31/18:00:09.705,(-3 -3 -8 2 -2 -3 -3 -6)
1969/12/31/18:00:09.705,(5 28 27 7 4 2 0 1)
1969/12/31/18:00:09.705,(-25 -87 -65 -34 -11 -2 3 4)
1969/12/31/18:00:09.727,(23 66 72 29 5 -1 -6 -5)
1969/12/31/18:00:09.727,(2 -17 -12 3 4 2 2 4)
1969/12/31/18:00:09.729,(9 16 -14 -7 -5 -3 0 3)
1969/12/31/18:00:09.729,(-1 3 6 7 2 3 4 4)
1969/12/31/18:00:09.733,(-31 -86 -53 -31 -15 -8 -8 -11)
1969/12/31/18:00:09.733,(5 21 36 17 6 2 3 0)
1969/12/31/18:00:09.751,(18 45 35 10 1 1 1 6)
1969/12/31/18:00:09.751,(8 26 4 3 1 0 -1 -1)
1969/12/31/18:00:09.752,(-11 -18 -1 -4 -5 -4 -2 0)
1969/12/31/18:00:09.752,(4 12 -2 -1 -3 -1 -3 -3)
1969/12/31/18:00:09.753,(-6 -9 -23 -16 -8 -4 -3 -6)
1969/12/31/18:00:09.753,(-7 -14 -1 2 0 0 -7 -7)
1969/12/31/18:00:09.769,(11 38 58 20 7 4 4 7)
1969/12/31/18:00:09.769,(-15 -46 -37 -14 -4 -3 -1 1)
1969/12/31/18:00:09.770,(-3 -16 -7 -4 -1 -1 -3 -1)
1969/12/31/18:00:09.770,(5 11 -2 7 3 -2 -2 -1)
1969/12/31/18:00:09.780,(7 0 -19 -10 -7 -4 -1 3)
1969/12/31/18:00:09.780,(-12 -26 -8 -10 -6 -3 -4 -6)
1969/12/31/18:00:09.786,(-4 -5 -3 -3 0 -1 -1 -2)
1969/12/31/18:00:09.786,(-4 5 -1 2 1 -1 -5 -6)
1969/12/31/18:00:09.798,(-4 -28 -28 -14 -3 -2 -2 2)
1969/12/31/18:00:09.798,(4 17 4 -4 -1 -1 1 3)
1969/12/31/18:00:09.799,(-10 -41 -11 -6 -5 -3 -2 -4)
1969/12/31/18:00:09.799,(7 25 8 5 6 2 1 -2)
1969/12/31/18:00:09.815,(-3 -2 9 6 0 1 1 0)
1969/12/31/18:00:09.815,(4 -9 -36 -12 -5 -1 1 2)
1969/12/31/18:00:09.817,(-5 -9 4 3 2 2 -1 -4)
1969/12/31/18:00:09.817,(-7 -10 -7 -6 -4 -2 -3 -4)
1969/12/31/18:00:09.827,(1 2 -22 -11 -3 -1 1 1)
1969/12/31/18:00:09.827,(-5 5 39 11 1 1 1 -1)
1969/12/31/18:00:09.832,(2 17 5 5 -1 0 1 0)
1969/12/31/18:00:09.833,(9 15 11 4 0 2 1 2)
1969/12/31/18:00:09.845,(-6 1 0 0 -3 -1 -3 -6)
1969/12/31/18:00:09.845,(-2 -9 -12 -6 0 -3 1 1)
1969/12/31/18:00:09.847,(7 30 13 4 3 1 3 2)
1969/12/31/18:00:09.847,(-2 -18 -4 2 0 -1 0 -2)
1969/12/31/18:00:09.863,(-3 -12 -4 -5 -3 -1 -1 0)
1969/12/31/18:00:09.863,(2 11 6 4 2 2 2 2)
1969/12/31/18:00:09.864,(8 36 11 2 1 1 0 0)
1969/12/31/18:00:09.864,(-4 -11 7 3 2 0 1 1)
1969/12/31/18:00:09.881,(-7 -21 -5 -1 -2 -2 -4 -4)
1969/12/31/18:00:09.881,(11 37 24 14 5 2 0 0)
1969/12/31/18:00:09.882,(-5 -8 -4 -5 -3 -4 -5 -5)
1969/12/31/18:00:09.882,(-3 -10 -9 -7 -3 -1 0 0)
1969/12/31/18:00:09.892,(0 2 0 1 1 1 0 -2)
1969/12/31/18:00:09.892,(-9 -15 -14 -12 -5 -2 -2 -4)
1969/12/31/18:00:09.894,(5 7 6 4 1 -1 -2 -1)
1969/12/31/18:00:09.894,(-2 0 -5 -5 -3 -1 -1 -1)
1969/12/31/18:00:09.910,(3 2 -7 -2 -1 3 3 5)
1969/12/31/18:00:09.910,(-5 -11 -6 -6 -2 -3 -4 -4)
1969/12/31/18:00:09.911,(-3 1 0 2 -1 -2 -1 -4)
1969/12/31/18:00:09.911,(3 3 0 -5 -5 0 2 4)
1969/12/31/18:00:09.920,(2 6 -3 1 2 2 -1 -1)
1969/12/31/18:00:09.920,(-3 -12 -6 -4 -5 -1 0 2)
1969/12/31/18:00:09.932,(-3 -4 6 -1 0 1 1 3)
1969/12/31/18:00:09.932,(0 7 1 -1 1 -3 -11 -11)
1969/12/31/18:00:09.945,(3 3 -2 -2 -5 -6 -4 -2)
1969/12/31/18:00:09.946,(-2 -5 5 8 5 7 4 0)
1969/12/31/18:00:09.946,(1 7 2 1 2 0 -3 -1)
1969/12/31/18:00:09.946,(-2 -3 -3 2 1 0 -3 -5)
1969/12/31/18:00:09.963,(1 2 -8 -4 2 3 9 8)
1969/12/31/18:00:09.963,(-3 0 -1 1 -1 -4 -7 -9)
1969/12/31/18:00:09.964,(-4 -7 -11 -6 -2 -4 -1 -1)
1969/12/31/18:00:09.964,(-2 -10 -6 -4 -3 -2 -2 0)
1969/12/31/18:00:09.968,(-3 4 -1 -1 -3 -4 -6 -3)
1969/12/31/18:00:09.968,(-1 -9 -4 -2 -2 1 0 2)
1969/12/31/18:00:09.975,(1 -5 -6 -3 1 2 1 1)
1969/12/31/18:00:09.975,(-1 7 4 1 0 0 0 0)
1969/12/31/18:00:09.987,(1 1 2 0 2 -2 -2 -2)
1969/12/31/18:00:09.987,(-2 -10 -13 -8 -6 -3 -1 -1)
1969/12/31/18:00:09.989,(-3 -5 -1 -1 -2 -3 -6 -3)
1969/12/31/18:00:09.989,(-3 -1 -2 1 0 -2 1 -1)
1969/12/31/18:00:10.004,(-2 -1 0 1 0 -1 -1 -2)
1969/12/31/18:00:10.004,(-1 -2 -2 -2 1 0 -1 0)
1969/12/31/18:00:10.005,(0 0 2 1 -2 0 -1 -1)
1969/12/31/18:00:10.005,(-1 1 1 -1 -2 -3 -1 0)
1969/12/31/18:00:10.015,(0 1 0 2 -1 1 2 0)
1969/12/31/18:00:10.015,(1 0 -3 -1 -2 0 -2 1)
1969/12/31/18:00:10.022,(-1 -1 1 -1 -1 -2 0 -1)
1969/12/31/18:00:10.022,(-1 4 7 6 6 3 -4 -6)
1969/12/31/18:00:10.033,(-3 -4 -10 -6 -6 -4 -4 -3)
1969/12/31/18:00:10.034,(2 0 -2 -7 -5 -4 1 3)
1969/12/31/18:00:10.035,(-3 -6 -5 -2 -4 -1 -1 -3)
1969/12/31/18:00:10.035,(0 3 2 2 2 -1 0 0)
1969/12/31/18:00:10.052,(1 1 2 4 3 4 1 -1)
1969/12/31/18:00:10.052,(-2 -1 -2 2 3 -1 -1 -1)
1969/12/31/18:00:10.052,(-2 -3 -7 -4 -5 -2 -2 -3)
1969/12/31/18:00:10.052,(-2 -3 -1 -2 0 -1 0 1)
1969/12/31/18:00:10.069,(-1 -2 -1 -4 -3 -2 0 -2)
1969/12/31/18:00:10.069,(-3 -5 -3 -3 -2 -5 -3 -1)
1969/12/31/18:00:10.070,(0 2 9 6 4 1 1 0)
1969/12/31/18:00:10.070,(-2 -3 -4 -4 -3 -1 -1 -1)
1969/12/31/18:00:10.081,(1 2 3 4 5 2 1 0)
1969/12/31/18:00:10.081,(-1 -1 1 1 0 0 0 0)
1969/12/31/18:00:10.081,(-2 -1 0 -1 -2 -1 -1 -1)
1969/12/31/18:00:10.081,(-1 -5 -8 -5 -6 -1 -1 1)
1969/12/31/18:00:10.081,(-1 1 -1 0 -3 -2 -1 -2)
1969/12/31/18:00:10.081,(-1 -2 -3 -3 -2 -1 -1 -2)
1969/12/31/18:00:10.088,(0 -1 0 -3 0 1 -1 1)
1969/12/31/18:00:10.088,(1 -3 -3 -3 -1 0 0 -1)
1969/12/31/18:00:10.092,(-2 0 -2 -1 -4 -2 -4 1)
1969/12/31/18:00:10.092,(0 -1 0 0 0 0 -1 -2)
1969/12/31/18:00:10.099,(-2 -1 -1 1 0 0 0 -1)
1969/12/31/18:00:10.099,(0 0 -2 -1 -1 -1 -1 0)
1969/12/31/18:00:10.111,(2 1 3 3 2 2 2 1)
1969/12/31/18:00:10.111,(-1 1 1 -1 -3 -2 -2 0)
1969/12/31/18:00:10.113,(-3 -4 -5 -1 0 -1 -1 -2)
1969/12/31/18:00:10.113,(-2 -1 -2 -1 1 -1 -2 0)
1969/12/31/18:00:10.129,(1 -2 0 1 0 -1 1 0)
1969/12/31/18:00:10.129,(-2 -2 -2 -2 -1 -2 -1 -1)
1969/12/31/18:00:10.130,(0 3 2 1 1 0 1 0)
1969/12/31/18:00:10.130,(0 2 4 4 4 0 0 1)
1969/12/31/18:00:10.139,(-3 -3 -4 -6 -3 -1 -2 -1)
1969/12/31/18:00:10.139,(0 1 1 6 1 0 -2 0)
1969/12/31/18:00:10.146,(-2 0 -1 -1 -2 -1 -1 -2)
1969/12/31/18:00:10.146,(-2 -4 -5 -1 -3 -3 0 -2)
1969/12/31/18:00:10.158,(2 0 -2 -4 -3 -1 -3 -1)
1969/12/31/18:00:10.158,(-3 -5 -6 -5 -3 0 -2 -3)
1969/12/31/18:00:10.160,(0 1 1 -4 -4 -6 7 1)
1969/12/31/18:00:10.160,(1 3 7 10 4 -4 -13 -1)
1969/12/31/18:00:10.176,(-1 -3 -6 2 5 -2 -4 -1)
1969/12/31/18:00:10.176,(-5 -8 -15 -26 -30 -5 -7 -5)
1969/12/31/18:00:10.177,(0 -2 -5 11 29 16 28 7)
1969/12/31/18:00:10.177,(-5 -4 -9 -27 -4 -2 6 0)
1969/12/31/18:00:10.186,(-1 3 11 23 -1 -9 -21 -6)
1969/12/31/18:00:10.186,(10 10 3 17 2 6 -1 1)
1969/12/31/18:00:10.194,(3 5 31 29 5 -9 -24 0)
1969/12/31/18:00:10.194,(-6 -10 -19 -60 -17 5 10 -4)
1969/12/31/18:00:10.205,(-4 -13 -35 -3 -12 -13 -13 -3)
1969/12/31/18:00:10.205,(-4 9 34 41 20 10 8 -2)
1969/12/31/18:00:10.216,(0 1 4 -6 -6 12 7 1)
1969/12/31/18:00:10.216,(-3 4 -13 -4 -26 -2 11 4)
1969/12/31/18:00:10.223,(-6 -3 16 -8 17 -16 -36 -1)
1969/12/31/18:00:10.223,(4 -10 -22 -32 -12 4 24 11)
1969/12/31/18:00:10.224,(8 -3 3 29 8 -1 3 3)
1969/12/31/18:00:10.224,(-2 4 -6 -12 11 -5 -23 -18)
1969/12/31/18:00:10.234,(-6 -4 0 -28 -23 3 -13 -18)
1969/12/31/18:00:10.234,(-10 -9 -24 -3 -2 -16 -16 -20)
1969/12/31/18:00:10.241,(-10 -13 -33 -43 -2 0 -2 -10)
1969/12/31/18:00:10.241,(6 6 32 50 -2 0 15 7)
1969/12/31/18:00:10.252,(0 -1 2 16 1 10 18 2)
1969/12/31/18:00:10.252,(6 13 -12 -23 11 1 -4 3)
1969/12/31/18:00:10.259,(-1 2 43 13 -12 -2 1 2)
1969/12/31/18:00:10.259,(-6 -3 -23 -35 -14 -15 -19 -10)
1969/12/31/18:00:10.270,(-1 -1 28 56 19 11 17 7)
1969/12/31/18:00:10.270,(-3 -11 -11 -16 0 -1 -1 5)
1969/12/31/18:00:10.271,(3 8 -9 10 -5 -7 -6 3)
1969/12/31/18:00:10.271,(5 5 25 25 16 10 0 6)
1969/12/31/18:00:10.288,(0 2 10 8 10 6 13 4)
1969/12/31/18:00:10.288,(-9 -22 -38 -72 -26 -10 -3 -1)
1969/12/31/18:00:10.289,(-5 0 -22 18 0 -5 -11 -7)
1969/12/31/18:00:10.289,(8 19 55 40 22 11 4 5)
1969/12/31/18:00:10.306,(-4 -4 -17 -25 -11 -1 7 -2)
1969/12/31/18:00:10.306,(0 -1 14 23 10 6 -1 2)
1969/12/31/18:00:10.307,(-14 -33 -27 -42 -15 -6 -10 -10)
1969/12/31/18:00:10.307,(-1 -20 -11 1 2 1 7 1)
1969/12/31/18:00:10.318,(2 5 -11 -12 -6 -3 6 0)
1969/12/31/18:00:10.318,(2 14 15 18 4 -4 -5 -4)
1969/12/31/18:00:10.318,(0 24 6 -2 2 -2 -1 0)
1969/12/31/18:00:10.318,(6 10 -16 2 0 -1 1 3)
1969/12/31/18:00:10.335,(11 13 4 -5 -3 0 4 3)
1969/12/31/18:00:10.335,(10 11 6 9 4 1 -1 -1)
1969/12/31/18:00:10.336,(8 9 4 -3 3 5 4 4)
1969/12/31/18:00:10.336,(-3 -12 -15 -6 -1 -2 -3 -2)
1969/12/31/18:00:10.347,(-5 -10 -20 -18 -4 2 4 1)
1969/12/31/18:00:10.347,(-10 -20 23 23 5 2 -1 -2)
1969/12/31/18:00:10.353,(-2 -3 -10 -6 -6 -3 -3 -2)
1969/12/31/18:00:10.353,(-15 0 1 9 2 0 -4 -11)
1969/12/31/18:00:10.371,(12 0 -5 -5 -3 2 9 8)
1969/12/31/18:00:10.371,(-15 -15 -3 8 0 -4 -6 -2)
1969/12/31/18:00:10.372,(-4 -22 -6 -5 -4 0 0 3)
1969/12/31/18:00:10.372,(1 -9 -8 -3 -3 -6 -6 4)
1969/12/31/18:00:10.382,(-9 1 7 -1 1 1 -3 -13)
1969/12/31/18:00:10.382,(1 -4 5 8 -1 0 5 7)
1969/12/31/18:00:10.383,(-12 -2 0 -7 -5 -2 -13 -27)
1969/12/31/18:00:10.383,(40 17 4 4 3 4 20 63)
1969/12/31/18:00:10.393,(-2 -10 -6 -6 -3 0 2 6)
1969/12/31/18:00:10.393,(-18 0 1 2 0 -5 -8 -8)
1969/12/31/18:00:10.398,(2 9 0 0 1 2 8 1)
1969/12/31/18:00:10.398,(-6 1 1 2 0 -3 -3 -1)
1969/12/31/18:00:10.412,(-5 3 0 -3 -3 -6 -14 -26)
1969/12/31/18:00:10.412,(21 15 1 0 1 1 4 15)
1969/12/31/18:00:10.412,(-1 -23 -11 -9 -8 -5 -8 -19)
1969/12/31/18:00:10.412,(-9 3 0 1 1 2 13 19)
1969/12/31/18:00:10.429,(-6 2 -2 -3 -2 1 2 -35)
1969/12/31/18:00:10.429,(22 18 8 5 2 -1 -47 14)
1969/12/31/18:00:10.430,(-82 -33 -13 -9 -9 -18 -9 -25)
1969/12/31/18:00:10.430,(23 31 11 5 4 4 11 -1)
1969/12/31/18:00:10.440,(12 -8 -10 -6 -2 1 -10 -4)
1969/12/31/18:00:10.440,(-19 -14 -6 -6 -3 -1 27 16)
1969/12/31/18:00:10.445,(9 20 9 0 0 -1 -9 -18)
1969/12/31/18:00:10.445,(-22 -12 -4 -2 -1 -9 -14 -14)
1969/12/31/18:00:10.459,(-29 -21 -1 -1 3 10 18 6)
1969/12/31/18:00:10.459,(30 23 4 2 1 4 -1 -17)
1969/12/31/18:00:10.460,(-6 -10 -3 1 1 -2 -9 -20)
1969/12/31/18:00:10.460,(-52 -24 -2 -3 -1 -6 -28 -74)
1969/12/31/18:00:10.476,(71 51 18 9 5 11 2 49)
1969/12/31/18:00:10.476,(-53 -28 -16 -7 -8 -1 28 1)
1969/12/31/18:00:10.477,(33 3 5 0 -1 -5 20 29)
1969/12/31/18:00:10.477,(-73 -14 -23 -14 -12 -15 -49 -80)
1969/12/31/18:00:10.487,(-30 -42 -14 -3 2 21 17 -19)
1969/12/31/18:00:10.487,(19 12 -3 -5 -15 -31 -11 5)
1969/12/31/18:00:10.493,(6 3 8 5 1 -28 -24 -2)
1969/12/31/18:00:10.493,(3 -18 2 3 10 39 14 14)
1969/12/31/18:00:10.511,(30 9 -1 -3 -8 -20 -9 42)
1969/12/31/18:00:10.511,(36 17 5 1 7 26 2 26)
1969/12/31/18:00:10.513,(-1 20 2 -3 -9 -14 25 -7)
1969/12/31/18:00:10.513,(-25 -24 -9 -2 -1 5 -3 -37)
1969/12/31/18:00:10.523,(-47 -19 -6 -1 0 -9 7 -1)
1969/12/31/18:00:10.523,(-14 -11 3 4 3 -5 6 16)
1969/12/31/18:00:10.525,(119 47 8 0 2 21 2 27)
1969/12/31/18:00:10.525,(-9 -2 0 1 5 25 35 34)
1969/12/31/18:00:10.534,(-3 22 8 -1 -12 -63 -75 -24)
1969/12/31/18:00:10.534,(-28 -3 1 2 3 -25 -3 -37)
1969/12/31/18:00:10.541,(-59 -31 -3 2 10 46 -6 -17)
1969/12/31/18:00:10.541,(4 -12 -2 0 -8 -26 28 57)
1969/12/31/18:00:10.553,(32 7 -1 1 6 32 12 -2)
1969/12/31/18:00:10.553,(-65 -16 -1 1 4 17 -9 -80)
1969/12/31/18:00:10.554,(32 14 4 2 -1 -34 -8 52)
1969/12/31/18:00:10.554,(19 18 6 -1 -1 0 -13 15)
1969/12/31/18:00:10.570,(15 -5 -3 2 2 -16 5 3)
1969/12/31/18:00:10.570,(6 1 2 0 -6 -9 -14 -17)
1969/12/31/18:00:10.571,(-36 -14 -17 -8 -3 22 10 -14)
1969/12/31/18:00:10.571,(-2 25 16 5 -4 -23 6 -29)
1969/12/31/18:00:10.581,(-6 -34 -19 -14 -5 16 -11 -18)
1969/12/31/18:00:10.581,(26 27 7 3 6 8 -6 5)
1969/12/31/18:00:10.587,(-26 -19 0 2 0 -13 -13 -8)
1969/12/31/18:00:10.587,(4 11 -4 -3 -2 -10 -7 -10)
1969/12/31/18:00:10.600,(68 31 9 2 0 -9 19 57)
1969/12/31/18:00:10.600,(-31 -30 -20 -11 -1 34 30 41)
1969/12/31/18:00:10.601,(56 23 3 -3 -10 -15 -29 -31)
1969/12/31/18:00:10.601,(14 4 0 1 1 -5 30 5)
1969/12/31/18:00:10.617,(-31 -2 6 5 4 10 19 -29)
1969/12/31/18:00:10.617,(-38 -3 12 11 9 -13 -52 -43)
1969/12/31/18:00:10.618,(84 33 7 0 -1 21 31 80)
1969/12/31/18:00:10.619,(-65 -51 -28 -21 -21 -38 -23 -20)
1969/12/31/18:00:10.628,(9 1 1 0 1 5 17 9)
1969/12/31/18:00:10.628,(-42 15 13 7 4 6 35 4)
1969/12/31/18:00:10.635,(-67 -44 -14 -7 -2 -4 -24 -59)
1969/12/31/18:00:10.635,(127 48 1 -3 -1 6 -1 32)
1969/12/31/18:00:10.646,(-101 -28 -6 0 0 4 -5 -43)
1969/12/31/18:00:10.646,(60 -4 -14 -13 -12 -20 -6 61)
1969/12/31/18:00:10.648,(-28 0 10 8 14 16 20 32)
1969/12/31/18:00:10.648,(50 11 -1 -1 0 18 15 23)
1969/12/31/18:00:10.671,(-73 -23 -5 -4 -8 -16 1 -21)
1969/12/31/18:00:10.671,(9 31 18 13 10 18 2 -35)
1969/12/31/18:00:10.671,(5 -14 -7 -4 -2 -11 3 23)
1969/12/31/18:00:10.671,(32 -14 -16 -13 -2 27 30 12)
1969/12/31/18:00:10.675,(-43 1 8 6 -3 -27 5 -46)
1969/12/31/18:00:10.675,(36 -3 -4 -8 -3 13 -26 -58)
1969/12/31/18:00:10.694,(8 3 -9 -10 -10 1 15 63)
1969/12/31/18:00:10.694,(-8 11 7 4 3 -3 -22 2)
1969/12/31/18:00:10.695,(17 30 18 7 8 16 -7 -1)
1969/12/31/18:00:10.695,(-23 -45 -13 -1 -1 -7 28 44)
1969/12/31/18:00:10.696,(-74 -17 -8 -6 -4 -9 -15 -87)
1969/12/31/18:00:10.696,(92 19 4 3 4 6 -7 40)
1969/12/31/18:00:10.711,(-2 5 -4 -4 -2 3 2 1)
1969/12/31/18:00:10.711,(13 15 -1 -4 -11 -23 -15 7)
1969/12/31/18:00:10.712,(22 14 10 6 3 5 -4 -1)
1969/12/31/18:00:10.712,(-95 -44 -6 3 3 7 1 -8)
1969/12/31/18:00:10.722,(15 2 -2 -6 -4 -6 -3 17)
1969/12/31/18:00:10.722,(11 -5 -1 -1 1 9 -9 -7)
1969/12/31/18:00:10.729,(-32 11 10 7 8 34 22 -13)
1969/12/31/18:00:10.730,(0 -13 -7 -7 -13 -50 -82 -38)
1969/12/31/18:00:10.741,(-14 11 4 4 -1 -11 -20 -9)
1969/12/31/18:00:10.741,(20 -4 -13 -7 -4 5 32 22)
1969/12/31/18:00:10.743,(-22 -7 -3 -4 -4 -24 -13 1)
1969/12/31/18:00:10.743,(9 19 12 7 10 35 46 31)
1969/12/31/18:00:10.759,(22 -14 -2 -1 2 21 -25 18)
1969/12/31/18:00:10.759,(-10 22 18 14 9 -12 -8 -27)
1969/12/31/18:00:10.760,(22 8 -4 -5 -4 1 5 -5)
1969/12/31/18:00:10.760,(35 -12 -7 -3 -7 -31 -8 35)
1969/12/31/18:00:10.770,(15 -1 -7 -5 -4 1 8 27)
1969/12/31/18:00:10.770,(-18 16 5 2 -3 1 10 5)
1969/12/31/18:00:10.777,(-4 -20 0 6 5 -10 -9 -3)
1969/12/31/18:00:10.777,(-16 0 1 -1 6 27 52 5)
1969/12/31/18:00:10.788,(53 -3 -9 -4 -2 -5 -12 -14)
1969/12/31/18:00:10.788,(-8 -12 -4 0 -3 -14 -29 -51)
1969/12/31/18:00:10.789,(-12 -3 -5 -5 -7 -20 -5 -14)
1969/12/31/18:00:10.789,(-41 -16 -1 2 3 27 21 -22)
1969/12/31/18:00:10.806,(-5 15 8 7 5 -6 4 -11)
1969/12/31/18:00:10.806,(17 21 -7 -9 -9 2 -21 -32)
1969/12/31/18:00:10.807,(-32 -55 -18 -10 -4 -1 6 -16)
1969/12/31/18:00:10.807,(-46 -8 -4 -4 -8 -17 -54 -18)
1969/12/31/18:00:10.817,(26 13 3 0 13 22 29 37)
1969/12/31/18:00:10.817,(16 17 14 10 -13 -25 12 4)
1969/12/31/18:00:10.824,(-63 -17 -2 4 9 10 -13 -6)
1969/12/31/18:00:10.824,(-14 -35 -29 -28 -27 10 -20 -19)
1969/12/31/18:00:10.835,(-36 -18 -14 -19 -23 -10 -19 -52)
1969/12/31/18:00:10.835,(19 -26 -12 -13 4 7 -2 35)
1969/12/31/18:00:10.836,(19 35 23 35 34 14 14 -5)
1969/12/31/18:00:10.836,(16 44 12 0 -20 -3 8 5)
1969/12/31/18:00:10.853,(2 -26 -10 -11 13 32 13 16)
1969/12/31/18:00:10.853,(-60 -18 -7 -14 -27 -34 -2 -5)
1969/12/31/18:00:10.853,(18 9 -5 -8 -10 -13 -16 -19)
1969/12/31/18:00:10.853,(26 12 6 10 22 26 -4 -20)
1969/12/31/18:00:10.864,(-40 2 -2 3 1 31 -56 -39)
1969/12/31/18:00:10.864,(10 -19 -5 5 18 -8 7 30)
1969/12/31/18:00:10.870,(30 26 10 8 -9 -25 -10 -35)
1969/12/31/18:00:10.871,(-37 -10 -5 -9 0 5 -26 -40)
1969/12/31/18:00:10.882,(4 11 1 -5 0 -10 -1 24)
1969/12/31/18:00:10.882,(-5 -12 -3 2 7 43 23 30)
1969/12/31/18:00:10.887,(25 1 -13 -19 -31 -33 4 24)
1969/12/31/18:00:10.887,(26 43 24 15 8 -27 -5 -6)
1969/12/31/18:00:10.900,(-11 -37 -12 3 1 3 26 9)
1969/12/31/18:00:10.900,(-23 -9 -3 -5 -27 -30 17 -1)
1969/12/31/18:00:10.901,(18 10 5 1 9 25 32 65)
1969/12/31/18:00:10.901,(1 -3 5 13 35 -5 17 -11)
1969/12/31/18:00:10.911,(-85 -9 -3 -5 -34 -36 -11 -49)
1969/12/31/18:00:10.911,(5 -10 -1 11 41 29 -10 -14)
1969/12/31/18:00:10.918,(20 -1 -6 -15 15 38 -18 26)
1969/12/31/18:00:10.918,(45 -13 -5 5 -22 -40 28 48)
1969/12/31/18:00:10.929,(11 14 7 -4 -26 -13 7 7)
1969/12/31/18:00:10.929,(27 1 -2 -8 -3 12 5 12)
1969/12/31/18:00:10.934,(5 30 13 5 1 -3 -4 6)
1969/12/31/18:00:10.934,(-61 -36 -13 -6 17 4 -9 -17)
1969/12/31/18:00:10.947,(-3 11 6 9 10 -8 5 -7)
1969/12/31/18:00:10.947,(-20 -5 -10 -11 -20 -2 3 15)
1969/12/31/18:00:10.948,(-21 -3 5 3 8 -4 -10 -2)
1969/12/31/18:00:10.948,(-29 7 5 10 -5 -16 -15 -30)
1969/12/31/18:00:10.958,(23 12 2 6 12 18 0 13)
1969/12/31/18:00:10.958,(33 -8 -16 -24 -12 21 -8 -40)
1969/12/31/18:00:10.965,(30 -1 2 0 -15 -34 -13 35)
1969/12/31/18:00:10.965,(-12 -12 -3 2 -3 12 17 21)
1969/12/31/18:00:10.975,(31 7 3 4 27 11 8 6)
1969/12/31/18:00:10.975,(37 23 -4 -14 -17 -38 -17 -7)
1969/12/31/18:00:10.982,(-9 -21 -7 -3 -9 15 4 -26)
1969/12/31/18:00:10.982,(-1 -11 -11 -13 -17 -19 -17 -7)
1969/12/31/18:00:10.994,(1 -13 -13 8 29 -10 -12 3)
1969/12/31/18:00:10.994,(6 33 18 11 38 48 4 9)
1969/12/31/18:00:10.996,(-42 -7 9 2 -16 -13 10 -19)
1969/12/31/18:00:10.996,(-11 -52 -26 0 18 -3 -14 -19)
1969/12/31/18:00:11.005,(-4 -12 -39 -27 -41 -19 15 18)
1969/12/31/18:00:11.005,(-11 73 54 24 15 -5 -19 -44)
1969/12/31/18:00:11.011,(-28 -37 -24 -28 -35 4 -10 -24)
1969/12/31/18:00:11.011,(64 -42 -19 15 25 7 26 46)
1969/12/31/18:00:11.023,(-7 -22 -58 -25 -5 -2 -17 3)
1969/12/31/18:00:11.023,(50 63 80 21 11 13 -9 11)
1969/12/31/18:00:11.028,(-18 5 -32 -8 -3 0 -1 -23)
1969/12/31/18:00:11.028,(12 76 78 37 22 -14 -11 -4)
1969/12/31/18:00:11.041,(-7 -54 -25 -3 8 3 6 -1)
1969/12/31/18:00:11.041,(-3 -9 -25 -10 -20 -5 10 9)
1969/12/31/18:00:11.042,(52 -9 6 8 2 -13 4 17)
1969/12/31/18:00:11.043,(-42 -50 -43 -45 -37 -2 -10 -24)
1969/12/31/18:00:11.059,(0 35 21 14 7 0 -7 6)
1969/12/31/18:00:11.059,(-45 -44 -6 10 -9 -33 2 7)
1969/12/31/18:00:11.060,(8 23 -4 -6 8 24 -2 -4)
1969/12/31/18:00:11.060,(32 75 64 29 7 -11 23 19)
1969/12/31/18:00:11.076,(-11 -24 -21 -22 -17 29 -10 -8)
1969/12/31/18:00:11.076,(1 20 23 2 -20 -22 -11 0)
1969/12/31/18:00:11.078,(-12 -21 -12 7 11 -2 5 4)
1969/12/31/18:00:11.078,(-12 -90 -95 -33 -15 -11 -6 -17)
1969/12/31/18:00:11.088,(33 121 79 27 26 37 12 8)
1969/12/31/18:00:11.088,(1 -25 -14 19 27 24 18 17)
1969/12/31/18:00:11.090,(-46 -9 -11 -2 -28 -20 -23 -44)
1969/12/31/18:00:11.090,(2 9 12 -6 2 59 5 7)
1969/12/31/18:00:11.105,(-29 -108 -77 -40 -35 -51 -7 -28)
1969/12/31/18:00:11.105,(29 -46 -66 -15 6 3 1 10)
1969/12/31/18:00:11.107,(-13 103 124 62 63 49 33 53)
1969/12/31/18:00:11.107,(-24 -1 -32 -28 -31 -17 -26 -40)
1969/12/31/18:00:11.117,(90 5 6 14 4 1 -12 41)
1969/12/31/18:00:11.117,(-75 -60 -50 -21 -16 -36 -24 -59)
1969/12/31/18:00:11.123,(-41 -106 -79 -34 -28 -15 19 12)
1969/12/31/18:00:11.123,(54 94 26 4 15 27 7 32)
1969/12/31/18:00:11.135,(-8 47 101 24 -10 0 18 3)
1969/12/31/18:00:11.135,(-8 -55 -38 -9 11 6 7 30)
1969/12/31/18:00:11.136,(6 -7 -43 -21 -8 3 -19 -18)
1969/12/31/18:00:11.136,(-34 26 84 42 2 -35 -18 -46)
1969/12/31/18:00:11.153,(-15 -86 -104 -39 8 0 -32 -47)
1969/12/31/18:00:11.153,(9 111 82 31 10 19 50 88)
1969/12/31/18:00:11.154,(14 30 51 10 -3 -16 -21 -5)
1969/12/31/18:00:11.154,(-7 -37 -25 -5 -9 -25 -7 34)
1969/12/31/18:00:11.163,(32 13 20 19 10 4 16 11)
1969/12/31/18:00:11.163,(-51 -90 -83 -39 -23 -2 -26 -52)
1969/12/31/18:00:11.175,(62 40 28 24 44 10 21 13)
1969/12/31/18:00:11.175,(42 -34 7 -5 -48 -7 8 17)
1969/12/31/18:00:11.182,(-76 29 5 2 22 -8 -7 -21)
1969/12/31/18:00:11.182,(-1 4 12 2 12 15 10 10)
1969/12/31/18:00:11.183,(37 -72 -47 -10 -16 -1 1 15)
1969/12/31/18:00:11.183,(-15 -46 -62 3 54 15 14 22)
1969/12/31/18:00:11.200,(7 44 33 16 -29 29 15 29)
1969/12/31/18:00:11.200,(-7 -85 -51 -23 -34 -20 -13 -76)
1969/12/31/18:00:11.201,(15 109 77 17 3 -6 2 25)
1969/12/31/18:00:11.201,(-46 -36 4 3 -3 -7 -7 -29)
1969/12/31/18:00:11.211,(23 -83 -88 -22 10 7 10 -1)
1969/12/31/18:00:11.211,(-15 43 25 14 12 -16 -24 -56)
1969/12/31/18:00:11.218,(0 -90 -25 -11 -20 -13 -12 -14)
1969/12/31/18:00:11.218,(-21 66 -31 -17 12 -4 -17 -8)
1969/12/31/18:00:11.235,(-57 38 96 34 23 51 36 -47)
1969/12/31/18:00:11.235,(-70 20 11 7 1 -36 -49 -61)
1969/12/31/18:00:11.236,(24 -65 -57 -24 12 50 0 29)
1969/12/31/18:00:11.236,(11 37 13 13 18 -3 21 4)
1969/12/31/18:00:11.247,(20 -71 -11 5 -25 -8 1 16)
1969/12/31/18:00:11.247,(26 35 3 -6 -17 -5 7 32)
1969/12/31/18:00:11.248,(-46 -44 -78 -29 -13 -38 -22 -8)
1969/12/31/18:00:11.248,(33 43 88 33 21 -21 -19 9)
1969/12/31/18:00:11.258,(49 45 87 43 26 43 35 54)
1969/12/31/18:00:11.258,(-16 76 66 13 -19 2 15 -5)
1969/12/31/18:00:11.270,(88 55 28 29 21 -11 11 64)
1969/12/31/18:00:11.270,(-96 -126 -128 -75 -49 0 -10 -38)
1969/12/31/18:00:11.276,(-34 93 66 16 15 3 4 -1)
1969/12/31/18:00:11.276,(96 42 59 56 38 16 30 53)
1969/12/31/18:00:11.277,(-36 -64 -58 -17 7 -23 33 28)
1969/12/31/18:00:11.277,(-8 -19 -50 1 -9 38 -29 -45)
1969/12/31/18:00:11.294,(-6 -33 -29 -23 -16 -36 -7 -7)
1969/12/31/18:00:11.294,(-22 -111 -93 -36 -13 -36 -38 -20)
1969/12/31/18:00:11.295,(13 111 51 15 31 53 15 -23)
1969/12/31/18:00:11.295,(-12 -42 -29 -29 -30 6 32 18)
1969/12/31/18:00:11.305,(-55 -82 -69 -19 -17 -39 -16 -8)
1969/12/31/18:00:11.305,(24 9 -14 17 44 29 8 13)
1969/12/31/18:00:11.311,(7 19 58 11 -41 -54 -34 -47)
1969/12/31/18:00:11.311,(26 -63 -58 -21 8 8 5 54)
1969/12/31/18:00:11.324,(24 90 112 43 23 51 22 48)
1969/12/31/18:00:11.324,(-44 -72 -59 -15 -8 -35 -2 -19)
1969/12/31/18:00:11.325,(-78 -125 -75 -13 19 19 -15 -43)
1969/12/31/18:00:11.325,(57 127 126 24 4 8 3 35)
1969/12/31/18:00:11.342,(41 -74 -69 -5 -5 -54 -5 7)
1969/12/31/18:00:11.342,(-51 -128 -122 -35 -29 -23 -21 -10)
1969/12/31/18:00:11.342,(-29 56 -19 -12 -16 45 30 -7)
1969/12/31/18:00:11.342,(0 14 23 15 6 -39 -9 -23)
1969/12/31/18:00:11.352,(-18 -81 -68 -12 30 19 -6 13)
1969/12/31/18:00:11.352,(5 -21 -38 -25 -42 -36 -28 -61)
1969/12/31/18:00:11.359,(15 66 83 24 9 20 -9 -9)
1969/12/31/18:00:11.359,(-13 -84 -57 -15 -33 -22 11 -3)
1969/12/31/18:00:11.371,(-7 -36 -5 4 4 -39 -43 -46)
1969/12/31/18:00:11.371,(26 -2 -5 11 33 76 43 67)
1969/12/31/18:00:11.372,(-28 30 26 -11 -27 -16 4 -12)
1969/12/31/18:00:11.372,(13 16 29 19 24 25 10 -3)
1969/12/31/18:00:11.388,(-30 -10 -33 -13 -11 -33 -25 -27)
1969/12/31/18:00:11.388,(-2 72 64 14 4 22 15 0)
1969/12/31/18:00:11.394,(-65 -128 -98 -34 -15 -28 -21 -39)
1969/12/31/18:00:11.394,(42 127 127 64 22 13 -3 -36)
1969/12/31/18:00:11.399,(11 -128 -128 -41 -25 1 21 52)
1969/12/31/18:00:11.399,(13 34 45 5 -11 -21 -19 -9)
1969/12/31/18:00:11.406,(30 127 95 31 10 -4 -2 -18)
1969/12/31/18:00:11.406,(-87 -128 -128 -43 -19 14 -6 -12)
1969/12/31/18:00:11.418,(-22 127 117 43 31 13 54 -9)
1969/12/31/18:00:11.418,(-3 -48 -39 -10 10 29 -31 -21)
1969/12/31/18:00:11.418,(84 -56 -28 5 24 15 19 85)
1969/12/31/18:00:11.418,(-17 -93 -50 -36 -59 -62 -34 6)
1969/12/31/18:00:11.435,(5 -21 -41 -19 7 39 -2 -12)
1969/12/31/18:00:11.435,(22 54 52 3 11 43 29 35)
1969/12/31/18:00:11.437,(-59 -74 -67 -7 9 -26 -33 -94)
1969/12/31/18:00:11.437,(20 1 -3 -6 2 -7 0 -10)
1969/12/31/18:00:11.446,(23 108 110 38 0 -5 -25 -12)
1969/12/31/18:00:11.446,(19 -37 -11 2 13 -13 17 16)
1969/12/31/18:00:11.453,(-14 -12 -9 12 10 18 -6 -8)
1969/12/31/18:00:11.453,(-34 -113 -95 -34 -1 14 12 9)
1969/12/31/18:00:11.465,(20 113 52 -15 -30 -39 -15 -36)
1969/12/31/18:00:11.465,(-13 25 43 37 20 38 2 10)
1969/12/31/18:00:11.466,(-1 -8 28 7 -17 -34 -14 26)
1969/12/31/18:00:11.466,(4 -39 -24 6 -7 19 28 19)
1969/12/31/18:00:11.482,(-24 -97 -80 -44 -27 -20 -17 -27)
1969/12/31/18:00:11.482,(-11 -69 -46 -32 -32 -39 -6 10)
1969/12/31/18:00:11.484,(1 -62 -55 -9 22 31 13 39)
1969/12/31/18:00:11.484,(-3 49 69 25 7 -12 -11 -16)
1969/12/31/18:00:11.493,(76 25 -46 6 7 -15 -7 12)
1969/12/31/18:00:11.493,(8 28 50 16 -19 20 -6 -15)
1969/12/31/18:00:11.506,(-14 -73 -67 -15 -34 -26 -6 -19)
1969/12/31/18:00:11.506,(-26 -87 -70 -1 26 6 -19 -24)
1969/12/31/18:00:11.512,(-17 16 39 2 2 1 19 -11)
1969/12/31/18:00:11.512,(-20 -67 -80 -34 -8 -23 -22 -13)
1969/12/31/18:00:11.513,(37 127 125 41 6 -1 7 13)
1969/12/31/18:00:11.513,(-21 -29 -36 -8 9 -13 -9 -4)
1969/12/31/18:00:11.529,(55 -33 -17 -10 -2 56 18 55)
1969/12/31/18:00:11.529,(-1 14 21 -3 -8 -18 7 10)
1969/12/31/18:00:11.531,(5 -14 1 4 8 6 10 10)
1969/12/31/18:00:11.531,(-19 -33 -46 -6 12 17 18 8)
1969/12/31/18:00:11.540,(28 40 74 33 19 16 -13 -17)
1969/12/31/18:00:11.540,(-17 -34 15 -1 -12 5 8 41)
1969/12/31/18:00:11.553,(48 -110 -118 -33 -11 -20 -9 -1)
1969/12/31/18:00:11.553,(23 113 127 45 28 17 9 7)
1969/12/31/18:00:11.559,(-47 -128 -107 -22 4 -4 -14 -17)
1969/12/31/18:00:11.559,(25 -13 -100 -37 -13 -26 1 13)
1969/12/31/18:00:11.561,(7 105 89 34 12 28 -5 10)
1969/12/31/18:00:11.561,(46 48 1 10 14 5 -9 -7)
1969/12/31/18:00:11.576,(-38 -52 -18 -5 -18 -3 22 10)
1969/12/31/18:00:11.576,(13 6 -23 3 -5 19 21 43)
1969/12/31/18:00:11.578,(-17 -29 19 -14 -29 -20 -12 -31)
1969/12/31/18:00:11.578,(7 21 -58 -46 -40 -14 -22 -8)
1969/12/31/18:00:11.587,(8 104 89 34 10 -15 -7 -18)
1969/12/31/18:00:11.587,(25 -28 -6 11 14 -19 -23 -9)
1969/12/31/18:00:11.594,(-36 -74 -64 -25 -15 6 17 -7)
1969/12/31/18:00:11.594,(19 -37 -10 0 14 11 8 46)
1969/12/31/18:00:11.612,(28 35 44 17 1 -25 2 21)
1969/12/31/18:00:11.612,(-46 -41 -35 -22 -21 5 -13 -35)
1969/12/31/18:00:11.613,(52 118 107 78 69 -12 3 16)
1969/12/31/18:00:11.613,(-11 -63 -44 -28 -46 16 -10 -36)
1969/12/31/18:00:11.623,(-45 -128 -128 -66 -39 -8 8 11)
1969/12/31/18:00:11.624,(-14 73 63 42 33 29 18 28)
1969/12/31/18:00:11.625,(-20 -128 -128 -52 -13 -34 -18 -25)
1969/12/31/18:00:11.625,(10 127 127 66 25 -5 6 6)
1969/12/31/18:00:11.634,(-9 -33 -23 0 -4 15 -16 -3)
1969/12/31/18:00:11.634,(-2 -92 -41 1 30 -41 -20 -31)
1969/12/31/18:00:11.641,(-66 -72 -109 -45 -44 29 10 -23)
1969/12/31/18:00:11.641,(34 99 88 24 -27 10 28 17)
1969/12/31/18:00:11.653,(-7 -71 -49 -6 4 -11 3 40)
1969/12/31/18:00:11.653,(26 -54 -28 -1 24 2 -3 0)
1969/12/31/18:00:11.655,(-4 28 -8 -16 -3 -29 -22 -18)
1969/12/31/18:00:11.655,(22 44 44 13 4 9 2 13)
1969/12/31/18:00:11.677,(9 -41 -64 -15 -11 -23 0 15)
1969/12/31/18:00:11.677,(11 78 76 18 -36 -19 11 10)
1969/12/31/18:00:11.678,(-62 -43 23 8 23 63 27 14)
1969/12/31/18:00:11.678,(21 41 -21 -18 0 -2 -5 -26)
1969/12/31/18:00:11.681,(-60 -40 -13 0 -3 -17 -36 -77)
1969/12/31/18:00:11.681,(27 50 21 23 23 13 19 32)
1969/12/31/18:00:11.688,(-22 -82 -42 -24 -16 3 -8 -31)
1969/12/31/18:00:11.688,(8 57 76 29 6 -13 -1 16)
1969/12/31/18:00:11.700,(-22 20 -19 -1 15 -8 -11 -21)
1969/12/31/18:00:11.700,(32 -12 -1 0 -2 10 9 33)
1969/12/31/18:00:11.702,(64 55 18 3 -2 30 27 47)
1969/12/31/18:00:11.702,(-64 -128 -93 -12 6 -40 -34 -51)
1969/12/31/18:00:11.717,(56 99 52 1 7 21 3 37)
1969/12/31/18:00:11.717,(-36 -57 -27 -25 -38 7 23 9)
1969/12/31/18:00:11.719,(7 110 56 15 14 -9 -19 -14)
1969/12/31/18:00:11.719,(5 -58 -23 2 23 41 24 34)
1969/12/31/18:00:11.728,(-16 -46 -46 -20 -23 -25 -23 -27)
1969/12/31/18:00:11.728,(-29 47 32 15 21 -2 -18 -48)
1969/12/31/18:00:11.742,(2 -65 -57 -39 -62 -16 6 20)
1969/12/31/18:00:11.742,(-10 -73 -42 -17 -10 -30 -26 -48)
1969/12/31/18:00:11.747,(-43 29 -15 -8 -19 -11 -9 -62)
1969/12/31/18:00:11.747,(-10 -32 -12 1 22 4 -3 -26)
1969/12/31/18:00:11.749,(26 -54 -75 -11 -2 20 20 34)
1969/12/31/18:00:11.749,(20 127 119 29 1 -10 13 14)
1969/12/31/18:00:11.765,(24 -37 -10 5 9 4 3 25)
1969/12/31/18:00:11.765,(16 -30 -26 -2 9 -5 5 -3)
1969/12/31/18:00:11.766,(-19 -35 -19 6 3 -52 -38 -10)
1969/12/31/18:00:11.766,(-12 66 52 -16 -21 58 41 20)
1969/12/31/18:00:11.776,(21 25 13 -3 1 0 0 12)
1969/12/31/18:00:11.776,(-30 -57 -48 -18 -1 -8 -3 -36)
1969/12/31/18:00:11.783,(46 49 65 33 20 -24 -5 65)
1969/12/31/18:00:11.783,(-7 -89 -85 -11 3 -5 0 8)
1969/12/31/18:00:11.801,(-15 5 44 12 15 4 11 1)
1969/12/31/18:00:11.801,(10 -1 -47 -21 -23 2 -26 -12)
1969/12/31/18:00:11.801,(7 23 58 1 -29 0 13 -11)
1969/12/31/18:00:11.801,(-58 -74 -89 -18 11 -17 -21 -43)
1969/12/31/18:00:11.812,(36 60 41 19 0 1 20 44)
1969/12/31/18:00:11.812,(-31 -99 -60 -13 -6 1 -7 -4)
1969/12/31/18:00:11.813,(-30 22 -18 -1 6 10 2 -44)
1969/12/31/18:00:11.813,(46 15 -61 -43 -57 -88 -37 13)
1969/12/31/18:00:11.830,(27 64 86 103 72 95 53 11)
1969/12/31/18:00:11.830,(42 -22 -70 -19 -22 -29 0 5)
1969/12/31/18:00:11.831,(-11 9 29 -6 5 29 -6 -11)
1969/12/31/18:00:11.831,(-23 -90 -55 -23 11 3 -8 2)
1969/12/31/18:00:11.841,(-9 7 -7 -15 -15 -29 -21 -15)
1969/12/31/18:00:11.841,(-1 -70 -11 -15 -13 15 4 9)
1969/12/31/18:00:11.843,(11 99 65 42 27 12 9 -19)
1969/12/31/18:00:11.843,(-18 -71 -46 -26 -33 -14 -2 -9)
1969/12/31/18:00:11.859,(13 11 -38 -35 6 24 0 45)
1969/12/31/18:00:11.859,(-1 127 127 54 2 6 8 -21)
1969/12/31/18:00:11.860,(-28 -117 -84 -25 -7 -13 -22 -28)
1969/12/31/18:00:11.860,(13 -51 -51 -1 14 0 12 34)
1969/12/31/18:00:11.877,(13 41 46 41 3 -18 -16 -17)
1969/12/31/18:00:11.877,(-21 -100 -121 -30 21 4 8 17)
1969/12/31/18:00:11.878,(3 127 127 28 -36 -19 -36 -71)
1969/12/31/18:00:11.878,(-36 -111 -55 -15 3 44 16 13)
1969/12/31/18:00:11.889,(-5 -10 -41 -23 -25 -25 -1 19)
1969/12/31/18:00:11.889,(25 126 122 44 50 16 -4 -13)
1969/12/31/18:00:11.889,(7 -72 -55 -14 -14 -31 4 26)
1969/12/31/18:00:11.889,(10 -51 -1 22 47 38 -9 5)
1969/12/31/18:00:11.906,(-37 -58 -54 -58 -63 5 1 -35)
1969/12/31/18:00:11.906,(30 117 102 29 4 17 22 33)
1969/12/31/18:00:11.907,(-22 -97 -52 -16 -10 -15 -12 -19)
1969/12/31/18:00:11.907,(17 61 22 9 12 10 8 -12)
1969/12/31/18:00:11.924,(-26 -82 -47 -6 0 -23 -17 -18)
1969/12/31/18:00:11.924,(-40 -128 -128 -31 -7 7 6 6)
1969/12/31/18:00:11.925,(67 106 67 0 21 30 18 36)
1969/12/31/18:00:11.925,(11 46 39 12 -14 -8 1 14)
1969/12/31/18:00:11.935,(-22 -96 -45 -5 8 -2 -1 -2)
1969/12/31/18:00:11.935,(-32 -73 -34 -21 -31 -21 -19 -20)
1969/12/31/18:00:11.940,(-44 -128 -128 -47 6 -7 -9 5)
1969/12/31/18:00:11.940,(51 116 107 49 6 3 12 11)
1969/12/31/18:00:11.953,(-6 -45 0 -2 -8 -33 -5 4)
1969/12/31/18:00:11.953,(32 9 -19 2 27 39 10 26)
1969/12/31/18:00:11.959,(6 65 72 24 -10 12 7 5)
1969/12/31/18:00:11.959,(-16 -76 -47 -24 -3 2 10 1)
1969/12/31/18:00:11.971,(18 -65 -39 -18 -6 -12 -6 -4)
1969/12/31/18:00:11.971,(-65 7 -20 -5 -3 -15 -11 -55)
1969/12/31/18:00:11.972,(16 -5 -18 2 12 -2 13 24)
1969/12/31/18:00:11.972,(-1 106 62 34 12 5 -8 -20)
1969/12/31/18:00:11.982,(9 -22 -27 -26 -39 -21 -8 -15)
1969/12/31/18:00:11.982,(-17 32 59 -9 -24 -37 -24 -7)
1969/12/31/18:00:11.988,(-20 -87 -84 -8 29 21 17 11)
1969/12/31/18:00:11.988,(15 122 74 11 11 22 -2 -14)
1969/12/31/18:00:12.000,(-22 -80 -63 -8 7 5 6 -7)
1969/12/31/18:00:12.000,(34 50 22 14 -6 1 15 16)
1969/12/31/18:00:12.002,(8 -52 -20 5 -2 -9 -11 -18)
1969/12/31/18:00:12.002,(11 -103 -27 4 -2 -24 -16 -4)
1969/12/31/18:00:12.024,(-14 22 -21 0 20 15 12 6)
1969/12/31/18:00:12.024,(37 60 50 -13 -47 -27 2 35)
1969/12/31/18:00:12.025,(14 65 47 -11 10 23 9 4)
1969/12/31/18:00:12.025,(-37 -81 -97 0 24 -18 -15 -31)
1969/12/31/18:00:12.029,(-16 -49 -22 -34 -57 11 -19 -38)
1969/12/31/18:00:12.029,(-14 39 67 33 37 39 12 -33)
1969/12/31/18:00:12.048,(30 -2 -9 -2 -5 -1 -5 11)
1969/12/31/18:00:12.048,(-48 29 41 7 -14 -19 -4 -6)
1969/12/31/18:00:12.049,(49 1 -18 4 23 -18 -10 31)
1969/12/31/18:00:12.049,(30 38 47 50 27 13 16 12)
1969/12/31/18:00:12.050,(-11 -23 -3 -10 -18 5 19 23)
1969/12/31/18:00:12.050,(2 -35 -21 -24 -15 -11 -15 -35)
1969/12/31/18:00:12.065,(-16 29 4 -11 -2 -2 -1 -25)
1969/12/31/18:00:12.065,(-18 -128 -76 -19 9 1 -15 -3)
1969/12/31/18:00:12.067,(18 65 -25 -3 7 -5 11 5)
1969/12/31/18:00:12.067,(-26 -37 4 -8 -16 4 -7 9)
1969/12/31/18:00:12.075,(10 66 92 50 33 1 -4 6)
1969/12/31/18:00:12.076,(-6 -84 -67 -37 -28 -5 -6 -5)
1969/12/31/18:00:12.082,(-12 66 36 14 4 -20 -14 -9)
1969/12/31/18:00:12.083,(3 -115 -111 -37 -28 -9 -3 -20)
1969/12/31/18:00:12.094,(-13 -33 -10 -7 13 -5 3 8)
1969/12/31/18:00:12.094,(14 10 -5 -18 -25 -5 2 31)
1969/12/31/18:00:12.096,(28 3 42 21 12 -18 -6 28)
1969/12/31/18:00:12.096,(-5 -24 -27 -11 2 5 6 16)
1969/12/31/18:00:12.112,(50 127 127 51 13 23 12 41)
1969/12/31/18:00:12.112,(-5 -67 -45 -16 -4 -26 -10 -17)
1969/12/31/18:00:12.117,(-63 -119 -110 -24 -3 0 -15 -45)
1969/12/31/18:00:12.117,(48 127 127 36 1 26 25 44)
1969/12/31/18:00:12.123,(-25 -81 -64 -10 -18 -24 -12 -24)
1969/12/31/18:00:12.123,(7 -58 -53 -13 9 6 -3 19)
1969/12/31/18:00:12.129,(-19 19 39 18 14 19 14 3)
1969/12/31/18:00:12.129,(11 -57 -28 -5 -23 -17 -11 8)
1969/12/31/18:00:12.142,(33 75 54 -5 3 21 11 4)
1969/12/31/18:00:12.142,(-36 26 46 27 16 16 8 -19)
1969/12/31/18:00:12.147,(42 -26 -25 -2 -13 -32 -9 52)
1969/12/31/18:00:12.147,(-60 -125 -76 -14 3 0 -4 -19)
1969/12/31/18:00:12.159,(4 43 -23 -27 -44 5 20 23)
1969/12/31/18:00:12.159,(44 73 84 29 12 2 4 15)
1969/12/31/18:00:12.160,(-23 -69 -59 -24 -17 -5 -4 -6)
1969/12/31/18:00:12.160,(21 105 79 31 28 25 13 13)
1969/12/31/18:00:12.170,(0 25 13 23 32 -13 -16 -15)
1969/12/31/18:00:12.170,(-1 111 73 25 -12 -7 8 16)
1969/12/31/18:00:12.176,(1 -91 -66 -27 -37 -14 0 24)
1969/12/31/18:00:12.176,(41 28 24 7 13 9 8 11)
1969/12/31/18:00:12.188,(-40 -8 4 -6 6 15 10 -13)
1969/12/31/18:00:12.188,(0 -64 -63 -28 -17 9 9 6)
1969/12/31/18:00:12.195,(-12 32 52 19 20 4 -10 -13)
1969/12/31/18:00:12.195,(24 -24 -49 -18 -4 8 6 16)
1969/12/31/18:00:12.206,(-1 12 24 12 -4 -23 -17 -23)
1969/12/31/18:00:12.206,(-4 -48 -33 -4 10 -9 -8 -12)
1969/12/31/18:00:12.207,(-15 -26 -26 -8 -14 -28 -12 -26)
1969/12/31/18:00:12.207,(-28 -72 -54 -2 2 13 15 1)
1969/12/31/18:00:12.217,(28 85 81 14 -7 19 10 3)
1969/12/31/18:00:12.217,(83 -60 -37 -7 -12 -17 -16 33)
1969/12/31/18:00:12.224,(-36 36 69 24 38 31 3 -35)
1969/12/31/18:00:12.224,(-23 -81 -93 -51 -42 -35 -20 -12)
1969/12/31/18:00:12.235,(-15 40 35 30 12 -6 0 -1)
1969/12/31/18:00:12.235,(-31 -76 -57 -8 -3 4 5 -7)
1969/12/31/18:00:12.237,(47 127 108 34 17 4 1 6)
1969/12/31/18:00:12.237,(3 54 15 5 7 -14 -7 -15)
1969/12/31/18:00:12.253,(-22 -119 -75 -9 5 5 3 21)
1969/12/31/18:00:12.253,(-38 -42 -54 -15 -4 9 -16 -21)
1969/12/31/18:00:12.255,(-4 12 32 -22 -20 28 7 -13)
1969/12/31/18:00:12.255,(-19 -4 1 -7 -6 -19 7 -2)
1969/12/31/18:00:12.271,(-23 47 38 19 5 -8 -30 -70)
1969/12/31/18:00:12.271,(-33 -37 -31 11 42 -2 5 13)
1969/12/31/18:00:12.271,(63 55 -16 -27 -42 -7 -23 -15)
1969/12/31/18:00:12.271,(-14 13 40 18 1 14 7 -14)
1969/12/31/18:00:12.282,(-4 -119 -84 -20 -2 -18 -14 3)
1969/12/31/18:00:12.282,(-33 -96 -82 -37 -21 -20 0 24)
1969/12/31/18:00:12.282,(-3 39 52 40 21 21 18 3)
1969/12/31/18:00:12.282,(12 123 59 6 -16 -32 -29 -48)
1969/12/31/18:00:12.300,(2 -38 8 8 7 41 40 27)
1969/12/31/18:00:12.300,(-14 50 -19 -26 -13 5 -10 -44)
1969/12/31/18:00:12.300,(15 -36 -42 -8 0 -8 3 30)
1969/12/31/18:00:12.300,(-3 -39 0 19 27 8 1 15)
1969/12/31/18:00:12.318,(-42 -94 -78 -33 -11 -22 -4 -7)
1969/12/31/18:00:12.318,(3 37 34 -5 -13 -9 -10 -21)
1969/12/31/18:00:12.319,(17 63 55 29 4 14 16 18)
1969/12/31/18:00:12.319,(-15 -32 -10 12 19 3 -8 -6)
1969/12/31/18:00:12.330,(-20 -103 -79 -30 -10 -12 -15 -10)
1969/12/31/18:00:12.330,(-7 51 35 5 -21 0 7 2)
1969/12/31/18:00:12.330,(-26 -39 -28 15 33 -2 3 -14)
1969/12/31/18:00:12.330,(30 -32 -25 -22 -41 10 -4 -4)
1969/12/31/18:00:12.347,(-12 49 20 -9 -19 -20 -23 -31)
1969/12/31/18:00:12.347,(15 41 67 30 15 5 14 20)
1969/12/31/18:00:12.348,(-22 -36 -27 -7 21 10 13 -4)
1969/12/31/18:00:12.348,(4 -73 -58 -22 -16 6 -6 8)
1969/12/31/18:00:12.371,(56 96 51 27 10 35 36 50)
1969/12/31/18:00:12.371,(25 41 50 23 20 -3 8 1)
1969/12/31/18:00:12.372,(-61 -128 -126 -53 -30 -23 -33 -48)
1969/12/31/18:00:12.372,(-16 40 46 27 32 14 6 7)
1969/12/31/18:00:12.377,(13 14 -10 -14 -3 -2 4 20)
1969/12/31/18:00:12.377,(-15 -64 -47 -18 -12 -4 -3 6)
1969/12/31/18:00:12.377,(21 16 14 -3 -7 -13 0 -20)
1969/12/31/18:00:12.377,(-10 40 3 -8 -17 -8 -13 -18)
1969/12/31/18:00:12.394,(7 -59 -21 1 12 -11 -6 2)
1969/12/31/18:00:12.394,(15 18 29 12 2 -7 -18 -19)
1969/12/31/18:00:12.395,(14 34 52 43 39 14 -4 18)
1969/12/31/18:00:12.395,(-11 7 3 -14 5 31 28 3)
1969/12/31/18:00:12.412,(11 -16 -14 -4 6 3 -19 -37)
1969/12/31/18:00:12.412,(1 -29 -16 -11 -18 -17 1 23)
1969/12/31/18:00:12.412,(-18 -39 -21 -9 -13 -11 8 14)
1969/12/31/18:00:12.412,(-9 49 36 9 6 -18 -8 -15)
1969/12/31/18:00:12.424,(5 -16 -1 18 27 12 -7 2)
1969/12/31/18:00:12.424,(7 41 17 -15 -12 39 18 2)
1969/12/31/18:00:12.424,(4 -59 -32 -9 -12 -16 -4 -2)
1969/12/31/18:00:12.424,(-23 -50 -48 7 27 6 -6 -18)
1969/12/31/18:00:12.441,(-9 59 53 -6 -42 -17 -10 -26)
1969/12/31/18:00:12.441,(20 -26 5 20 13 -6 2 44)
1969/12/31/18:00:12.442,(-31 -45 -68 -36 -23 -3 -5 -2)
1969/12/31/18:00:12.442,(35 40 60 12 -6 -13 3 22)
1969/12/31/18:00:12.459,(8 -33 -29 11 31 18 7 21)
1969/12/31/18:00:12.459,(-3 -26 -17 -6 -1 0 -14 -29)
1969/12/31/18:00:12.459,(-4 32 30 -3 -26 -11 3 -9)
1969/12/31/18:00:12.459,(-31 -117 -79 -25 -13 -20 -11 -14)
1969/12/31/18:00:12.471,(-18 62 15 9 -2 5 7 26)
1969/12/31/18:00:12.471,(6 26 28 18 -21 -35 -7 -13)
1969/12/31/18:00:12.472,(-10 -100 -86 -50 -25 23 1 -23)
1969/12/31/18:00:12.472,(-11 31 25 2 -10 -24 -8 0)
1969/12/31/18:00:12.488,(-8 10 9 -1 -13 -15 -6 -27)
1969/12/31/18:00:12.488,(-3 -35 -40 -32 2 23 3 -2)
1969/12/31/18:00:12.489,(11 35 17 24 9 -8 -1 -1)
1969/12/31/18:00:12.489,(21 78 49 28 18 8 3 0)
1969/12/31/18:00:12.506,(-27 -116 -66 -32 -3 21 1 3)
1969/12/31/18:00:12.506,(-36 47 22 17 3 -28 -21 -18)
1969/12/31/18:00:12.506,(-38 -79 -20 20 49 0 -27 -75)
1969/12/31/18:00:12.506,(-2 -21 -48 -28 -4 48 15 11)
1969/12/31/18:00:12.524,(22 -53 -53 -21 -11 -9 23 48)
1969/12/31/18:00:12.524,(-18 1 -12 -8 8 5 -6 -13)
1969/12/31/18:00:12.525,(34 50 42 43 14 -22 9 55)
1969/12/31/18:00:12.525,(-4 -42 -21 -23 -23 10 16 42)
1969/12/31/18:00:12.535,(-18 -33 -12 -21 -23 -11 -9 -40)
1969/12/31/18:00:12.535,(-15 -41 -34 -9 -1 -5 -5 -15)
1969/12/31/18:00:12.536,(8 85 70 30 33 -4 -21 -26)
1969/12/31/18:00:12.536,(22 -22 -7 9 17 37 11 28)
1969/12/31/18:00:12.553,(12 3 -8 -9 -21 -21 1 34)
1969/12/31/18:00:12.553,(19 43 16 2 -16 6 -11 -23)
1969/12/31/18:00:12.553,(42 92 71 23 0 -6 21 21)
1969/12/31/18:00:12.553,(29 22 8 -2 -9 -7 -4 10)
1969/12/31/18:00:12.565,(-32 -68 -25 -1 2 -12 22 -18)
1969/12/31/18:00:12.565,(-8 -33 -20 -3 1 -2 -27 -27)
1969/12/31/18:00:12.566,(-22 -20 -30 -8 -6 20 9 -19)
1969/12/31/18:00:12.566,(66 89 36 0 -4 -24 0 80)
1969/12/31/18:00:12.582,(3 -38 -32 -1 -16 -18 -19 -18)
1969/12/31/18:00:12.582,(-3 -5 -2 -11 -25 -43 13 39)
1969/12/31/18:00:12.583,(-61 -54 -65 -28 -10 10 -12 -42)
1969/12/31/18:00:12.583,(20 26 37 8 25 39 32 -1)
1969/12/31/18:00:12.601,(-4 -1 -1 -6 -9 -11 -10 -3)
1969/12/31/18:00:12.601,(14 -53 -23 -2 9 9 -9 8)
1969/12/31/18:00:12.602,(8 -33 -30 -11 -18 -8 5 27)
1969/12/31/18:00:12.602,(-47 -17 -31 -15 -5 -31 -27 -59)
1969/12/31/18:00:12.613,(22 40 25 27 25 16 -12 -26)
1969/12/31/18:00:12.613,(42 119 72 -15 -32 15 19 0)
1969/12/31/18:00:12.614,(27 -35 -9 -17 -25 0 10 47)
1969/12/31/18:00:12.614,(-55 -84 -81 -10 8 -9 -11 -32)
1969/12/31/18:00:12.631,(7 80 104 42 21 2 -11 -32)
1969/12/31/18:00:12.631,(10 -10 -65 -5 11 -4 12 33)
1969/12/31/18:00:12.631,(0 11 44 9 -17 -3 -5 10)
1969/12/31/18:00:12.631,(-1 10 15 -7 -4 0 14 16)
1969/12/31/18:00:12.647,(-16 -35 -30 -7 8 11 6 13)
1969/12/31/18:00:12.647,(-33 -37 -4 10 7 -22 -20 -71)
1969/12/31/18:00:12.647,(1 -7 -11 -3 -2 31 -6 -10)
1969/12/31/18:00:12.647,(-17 -14 0 -5 -7 3 8 -7)
1969/12/31/18:00:12.660,(10 110 90 35 9 -11 -7 1)
1969/12/31/18:00:12.660,(-14 -53 -21 -31 -9 21 6 12)
1969/12/31/18:00:12.661,(8 -18 -23 9 34 -9 33 35)
1969/12/31/18:00:12.661,(-12 -61 -37 -13 -22 -18 -51 -39)
1969/12/31/18:00:12.676,(21 94 46 17 15 14 6 9)
1969/12/31/18:00:12.676,(-8 -85 -63 -8 -10 0 5 7)
1969/12/31/18:00:12.677,(6 95 73 22 11 -9 -26 -69)
1969/12/31/18:00:12.677,(25 -45 0 22 0 5 7 -19)
1969/12/31/18:00:12.694,(-22 -94 -86 -22 -9 -30 7 15)
1969/12/31/18:00:12.694,(8 46 71 18 4 27 -14 -9)
1969/12/31/18:00:12.694,(-3 -128 -128 -58 -21 -3 0 -2)
1969/12/31/18:00:12.694,(9 127 122 43 9 -10 -9 -44)
1969/12/31/18:00:12.706,(20 -22 -23 -32 -11 -5 -20 14)
1969/12/31/18:00:12.706,(-48 -105 -68 -7 26 7 8 -24)
1969/12/31/18:00:12.707,(24 81 15 -20 -35 6 2 14)
1969/12/31/18:00:12.707,(-7 -33 -3 34 13 -12 7 11)
1969/12/31/18:00:12.723,(-30 -54 -64 1 27 2 -17 -11)
1969/12/31/18:00:12.723,(-6 -34 7 -31 -5 38 26 14)
1969/12/31/18:00:12.724,(10 45 25 11 -2 -12 2 34)
1969/12/31/18:00:12.724,(-12 -115 -91 -46 -30 -25 12 30)
1969/12/31/18:00:12.742,(-39 34 22 17 27 28 -8 -10)
1969/12/31/18:00:12.742,(44 124 84 36 8 -10 -2 -8)
1969/12/31/18:00:12.742,(2 11 7 1 3 6 -3 -22)
1969/12/31/18:00:12.742,(-49 -51 -8 8 18 -12 -8 -43)
1969/12/31/18:00:12.760,(-16 -35 -49 -30 -55 -15 -7 -24)
1969/12/31/18:00:12.760,(53 46 41 13 -1 -7 19 51)
1969/12/31/18:00:12.760,(-1 -30 11 26 15 0 1 35)
1969/12/31/18:00:12.760,(13 -23 -35 -23 -14 13 -13 -9)
1969/12/31/18:00:12.771,(-16 -128 -105 -63 -35 -2 7 5)
1969/12/31/18:00:12.771,(19 124 81 41 26 6 0 1)
1969/12/31/18:00:12.771,(14 10 29 5 -13 -28 5 19)
1969/12/31/18:00:12.771,(-2 -43 -60 -21 -5 3 1 25)
1969/12/31/18:00:12.789,(-21 -54 -18 6 12 25 5 -8)
1969/12/31/18:00:12.789,(24 67 57 21 -6 -2 21 42)
1969/12/31/18:00:12.789,(-13 -73 -39 -1 -14 -40 -33 -62)
1969/12/31/18:00:12.789,(-7 -9 -12 -4 1 10 2 9)
1969/12/31/18:00:12.800,(47 25 1 -13 -15 -8 3 11)
1969/12/31/18:00:12.800,(-32 -59 -48 0 8 -4 -5 -2)
1969/12/31/18:00:12.800,(-33 -11 -8 -10 5 -1 -2 0)
1969/12/31/18:00:12.800,(24 34 25 17 21 0 1 9)
1969/12/31/18:00:12.818,(-8 17 28 -16 -32 13 1 -16)
1969/12/31/18:00:12.818,(0 -11 -31 -12 0 -4 -15 -12)
1969/12/31/18:00:12.818,(0 -37 -29 -18 -15 -12 -19 -9)
1969/12/31/18:00:12.818,(-11 19 -14 1 1 0 5 -14)
1969/12/31/18:00:12.836,(34 49 57 35 31 8 14 17)
1969/12/31/18:00:12.836,(-15 -20 -22 1 4 -19 -18 -33)
1969/12/31/18:00:12.836,(-26 -75 -38 -28 -10 31 -11 -40)
1969/12/31/18:00:12.836,(16 53 44 24 14 -20 -9 15)
1969/12/31/18:00:12.847,(-10 -49 -26 -11 -16 -12 1 15)
1969/12/31/18:00:12.847,(9 42 -1 -15 -13 -6 -13 -9)
1969/12/31/18:00:12.847,(-7 -11 6 10 15 9 20 28)
1969/12/31/18:00:12.847,(42 106 67 16 5 0 -1 2)
1969/12/31/18:00:12.865,(-3 -32 -3 6 6 5 6 4)
1969/12/31/18:00:12.865,(-14 -24 -21 -4 -3 -3 -6 -15)
1969/12/31/18:00:12.865,(0 -3 -2 11 12 9 9 20)
1969/12/31/18:00:12.865,(-28 -38 -18 -41 -29 -8 -15 -10)
1969/12/31/18:00:12.883,(0 28 7 -2 7 15 24 7)
1969/12/31/18:00:12.883,(-20 -73 -45 -18 -16 -8 -7 -3)
1969/12/31/18:00:12.883,(1 47 28 16 13 -2 15 10)
1969/12/31/18:00:12.884,(-42 -24 -4 25 18 -7 -42 -36)
1969/12/31/18:00:12.896,(12 22 5 10 14 -2 21 27)
1969/12/31/18:00:12.896,(-37 -33 -14 -10 0 26 -14 37)
1969/12/31/18:00:12.897,(-18 30 27 0 -9 2 7 -8)
1969/12/31/18:00:12.897,(11 -16 -19 -13 -8 7 3 5)
1969/12/31/18:00:12.912,(-3 18 10 -3 -7 -13 -4 -8)
1969/12/31/18:00:12.912,(-14 -3 5 9 0 -11 -5 -18)
1969/12/31/18:00:12.913,(15 -7 -7 -9 -6 4 5 12)
1969/12/31/18:00:12.913,(6 -6 -3 2 -4 0 30 38)
1969/12/31/18:00:12.930,(14 57 22 10 4 8 -1 -3)
1969/12/31/18:00:12.930,(17 -4 3 4 2 -3 -3 -10)
1969/12/31/18:00:12.931,(-9 -9 -8 -6 1 12 12 8)
1969/12/31/18:00:12.931,(31 -7 -1 0 -5 -19 -9 -7)
1969/12/31/18:00:12.942,(22 10 18 11 9 11 5 3)
1969/12/31/18:00:12.942,(-18 -7 -9 -3 -1 -5 21 -18)
1969/12/31/18:00:12.942,(34 34 5 -1 1 6 10 26)
1969/12/31/18:00:12.942,(-12 -27 -6 -9 -13 4 19 16)
1969/12/31/18:00:12.959,(-25 -14 -14 -8 -1 -19 -31 -28)
1969/12/31/18:00:12.959,(-35 -53 -8 6 2 -5 6 -1)
1969/12/31/18:00:12.960,(54 61 6 -4 -5 14 11 -3)
1969/12/31/18:00:12.960,(-1 12 7 4 0 7 28 7)
1969/12/31/18:00:12.977,(19 11 12 4 -7 -37 6 34)
1969/12/31/18:00:12.977,(-44 -28 -18 -8 12 88 13 -30)
1969/12/31/18:00:12.978,(17 8 10 5 -5 -40 -54 -23)
1969/12/31/18:00:12.978,(-1 5 -8 -3 1 4 -9 -11)
1969/12/31/18:00:12.988,(-57 -17 1 1 0 3 9 -25)
1969/12/31/18:00:12.988,(56 35 25 21 14 2 32 56)
1969/12/31/18:00:13.000,(53 26 1 -2 -4 2 -19 -29)
1969/12/31/18:00:13.000,(-11 -2 -16 -10 -9 -10 -13 18)
1969/12/31/18:00:13.006,(6 10 0 -3 -2 0 4 6)
1969/12/31/18:00:13.006,(17 12 7 2 -2 0 8 -2)
1969/12/31/18:00:13.007,(-10 3 14 15 18 30 25 28)
1969/12/31/18:00:13.007,(98 43 27 20 18 1 15 76)
1969/12/31/18:00:13.026,(-48 -25 -16 -10 -10 -24 -61 -96)
1969/12/31/18:00:13.026,(-27 -15 -11 -15 -16 -14 32 -10)
1969/12/31/18:00:13.026,(-26 -30 -2 0 5 -7 14 39)
1969/12/31/18:00:13.026,(-4 -9 7 9 4 -1 -6 -10)
1969/12/31/18:00:13.035,(-24 0 0 -3 -3 20 -10 12)
1969/12/31/18:00:13.035,(62 47 14 10 7 -13 -23 14)
1969/12/31/18:00:13.041,(-124 -78 -35 -22 -18 -20 -19 -94)
1969/12/31/18:00:13.041,(-13 -7 -11 -12 -11 1 20 -23)
1969/12/31/18:00:13.054,(66 15 7 9 5 5 0 44)
1969/12/31/18:00:13.054,(34 14 -5 -9 -7 -20 -9 44)
1969/12/31/18:00:13.055,(-22 -36 -12 -2 0 5 7 5)
1969/12/31/18:00:13.055,(-4 21 -1 -5 0 2 -18 -13)
1969/12/31/18:00:13.071,(-49 -23 1 -1 0 3 9 -8)
1969/12/31/18:00:13.071,(-7 -4 0 3 2 -3 -10 -46)
1969/12/31/18:00:13.072,(12 0 1 3 -2 -3 -14 -19)
1969/12/31/18:00:13.072,(-46 -59 -37 -16 -7 -8 -22 -48)
1969/12/31/18:00:13.082,(32 60 32 11 2 2 13 42)
1969/12/31/18:00:13.082,(-19 -1 2 -10 -2 -6 -7 -15)
1969/12/31/18:00:13.088,(-16 -7 -5 14 2 -4 -8 1)
1969/12/31/18:00:13.088,(-20 -57 -30 -10 -6 -4 -2 -13)
1969/12/31/18:00:13.100,(35 15 -16 -12 -2 3 9 7)
1969/12/31/18:00:13.100,(-5 43 51 19 3 -6 -24 -13)
1969/12/31/18:00:13.101,(27 10 -15 -7 -2 -3 11 40)
1969/12/31/18:00:13.101,(0 24 38 19 4 5 4 4)
1969/12/31/18:00:13.118,(37 -59 -34 -8 -3 5 9 38)
1969/12/31/18:00:13.118,(-1 9 -10 -17 -11 -12 -15 -6)
1969/12/31/18:00:13.119,(-10 -6 -9 -9 3 4 5 -6)
1969/12/31/18:00:13.119,(-1 3 9 16 3 5 8 3)
1969/12/31/18:00:13.136,(5 0 -2 -2 -3 -2 8 27)
1969/12/31/18:00:13.136,(3 -34 -30 -10 -8 -9 -9 14)
1969/12/31/18:00:13.137,(14 7 -5 -10 -8 -6 -1 10)
1969/12/31/18:00:13.137,(-7 14 8 1 8 10 1 -8)
1969/12/31/18:00:13.147,(-20 -2 4 0 -3 2 6 -17)
1969/12/31/18:00:13.147,(-4 -8 -12 8 6 1 -10 -11)
1969/12/31/18:00:13.148,(2 3 2 -11 -5 2 25 29)
1969/12/31/18:00:13.148,(-16 -7 -5 -9 -9 -13 -25 -8)
1969/12/31/18:00:13.165,(-3 13 6 4 1 -6 -7 -14)
1969/12/31/18:00:13.165,(7 -11 -9 0 -1 -4 6 10)
1969/12/31/18:00:13.166,(-1 6 11 7 0 11 5 0)
1969/12/31/18:00:13.166,(0 4 -3 -5 0 -2 -3 -5)
1969/12/31/18:00:13.176,(5 5 6 4 3 4 3 2)
1969/12/31/18:00:13.176,(-9 -8 -4 -3 -7 -12 -9 -22)
1969/12/31/18:00:13.183,(7 -1 7 7 5 7 -4 6)
1969/12/31/18:00:13.183,(-2 2 -2 -3 -3 3 2 -2)
1969/12/31/18:00:13.194,(0 2 -1 2 -1 0 -4 -5)
1969/12/31/18:00:13.194,(0 -6 -5 -7 -1 3 15 15)
1969/12/31/18:00:13.195,(3 7 9 9 5 -2 -1 3)
1969/12/31/18:00:13.195,(-8 3 -3 -5 -10 -16 -24 -25)
1969/12/31/18:00:13.213,(-5 -5 -7 -6 1 4 4 -10)
1969/12/31/18:00:13.213,(-1 5 18 9 4 6 3 0)
1969/12/31/18:00:13.213,(1 -5 -7 -9 -7 -8 -8 -4)
1969/12/31/18:00:13.213,(2 -3 -7 -7 -5 -2 11 16)
1969/12/31/18:00:13.223,(-4 0 -2 1 7 -1 -31 -35)
1969/12/31/18:00:13.223,(-10 -8 -13 -8 -16 -14 -13 -16)
1969/12/31/18:00:13.230,(3 5 5 4 11 9 4 2)
1969/12/31/18:00:13.230,(-6 -16 -3 -1 -2 1 6 6)
1969/12/31/18:00:13.241,(4 17 2 3 0 -3 4 3)
1969/12/31/18:00:13.241,(6 1 3 5 6 5 9 12)
1969/12/31/18:00:13.242,(-10 -8 -10 -12 -8 -13 -17 -17)
1969/12/31/18:00:13.242,(0 -10 -12 -6 -4 -3 4 9)
1969/12/31/18:00:13.259,(3 14 14 10 8 8 7 1)
1969/12/31/18:00:13.259,(-4 -6 -5 -3 1 4 -4 -8)
1969/12/31/18:00:13.265,(-3 -4 -3 -4 -7 -7 0 -1)
1969/12/31/18:00:13.265,(-5 -42 -3 1 2 4 2 1)
1969/12/31/18:00:13.277,(4 47 4 0 -2 -5 -1 -3)
1969/12/31/18:00:13.277,(5 -7 -13 -6 2 -1 5 9)
1969/12/31/18:00:13.278,(-5 -1 2 3 2 -1 -1 -3)
1969/12/31/18:00:13.278,(5 8 3 -4 -1 1 4 5)
1969/12/31/18:00:13.288,(-3 -12 12 5 0 -2 -9 -9)
1969/12/31/18:00:13.288,(-15 -18 -9 -5 -5 -3 1 -3)
1969/12/31/18:00:13.289,(6 7 6 5 2 3 1 2)
1969/12/31/18:00:13.289,(-12 -9 -4 0 2 -2 -6 -11)
1969/12/31/18:00:13.307,(-2 -11 -8 -9 -7 -4 1 0)
1969/12/31/18:00:13.307,(5 9 5 0 2 2 2 5)
1969/12/31/18:00:13.307,(-3 -10 -3 5 0 -8 -6 -4)
1969/12/31/18:00:13.307,(9 34 27 9 2 8 8 6)
1969/12/31/18:00:13.325,(-4 -28 -24 -7 -2 3 -1 5)
1969/12/31/18:00:13.325,(-2 6 5 0 -1 1 3 0)
1969/12/31/18:00:13.325,(-2 -12 -9 -10 -3 -3 -4 -2)
1969/12/31/18:00:13.325,(6 6 -24 -11 1 -4 1 5)
1969/12/31/18:00:13.336,(5 4 8 8 -1 -4 0 1)
1969/12/31/18:00:13.336,(0 -2 -11 5 3 5 1 -1)
1969/12/31/18:00:13.336,(-5 -8 -1 -1 -3 1 7 5)
1969/12/31/18:00:13.336,(-10 -26 -13 -8 -5 -5 -2 -8)
1969/12/31/18:00:13.354,(3 28 14 -5 -3 0 0 1)
1969/12/31/18:00:13.354,(-1 -12 -7 1 3 -4 -4 -3)
1969/12/31/18:00:13.354,(1 -1 1 -3 -5 3 6 3)
1969/12/31/18:00:13.354,(-3 -7 -6 -6 -4 -3 -2 0)
1969/12/31/18:00:13.372,(0 2 16 9 5 2 6 3)
1969/12/31/18:00:13.372,(0 6 7 5 3 1 -3 0)
1969/12/31/18:00:13.372,(-2 -4 -12 -7 -3 1 2 1)
1969/12/31/18:00:13.372,(2 41 41 5 2 2 -1 0)
1969/12/31/18:00:13.383,(-4 -22 -11 -3 -2 -2 0 5)
1969/12/31/18:00:13.383,(2 16 -29 -20 -4 -7 -6 -8)
1969/12/31/18:00:13.383,(4 14 6 10 3 -3 -8 -6)
1969/12/31/18:00:13.383,(3 5 5 5 2 3 4 1)
1969/12/31/18:00:13.402,(-3 -4 1 2 -2 -3 -2 -2)
1969/12/31/18:00:13.402,(-4 -12 -14 -11 -6 -3 0 0)
1969/12/31/18:00:13.403,(-7 -4 2 -5 -2 -2 -7 -5)
1969/12/31/18:00:13.403,(3 7 -30 -7 0 -2 -4 -4)
1969/12/31/18:00:13.419,(-1 -4 -6 -2 -1 0 4 1)
1969/12/31/18:00:13.419,(-4 -16 9 3 -1 -3 -3 0)
1969/12/31/18:00:13.419,(7 10 -3 -4 0 1 0 2)
1969/12/31/18:00:13.419,(-8 -42 -8 -1 -2 1 0 0)
1969/12/31/18:00:13.430,(9 69 64 14 2 -3 -3 -5)
1969/12/31/18:00:13.430,(-9 -20 -13 -5 -3 -3 -11 -11)
1969/12/31/18:00:13.430,(8 28 29 17 5 1 4 3)
1969/12/31/18:00:13.430,(-8 -31 -6 -6 -5 -2 0 -1)
1969/12/31/18:00:13.448,(-1 -8 -10 -1 -1 -2 -5 -8)
1969/12/31/18:00:13.448,(2 0 5 4 3 3 4 4)
1969/12/31/18:00:13.449,(-11 -17 13 -3 -6 -1 -2 -1)
1969/12/31/18:00:13.449,(12 31 10 9 4 1 0 -2)
1969/12/31/18:00:13.466,(-5 -18 -17 -1 -1 -1 0 2)
1969/12/31/18:00:13.466,(4 11 9 7 2 2 1 1)
1969/12/31/18:00:13.467,(-7 -28 -23 -10 -6 -3 -1 -2)
1969/12/31/18:00:13.467,(-4 4 -3 -7 -4 -4 -2 -2)
1969/12/31/18:00:13.484,(-7 -8 2 0 1 -3 -2 -5)
1969/12/31/18:00:13.484,(4 -2 13 10 2 2 6 6)
1969/12/31/18:00:13.484,(2 11 1 1 -1 -5 -4 -2)
1969/12/31/18:00:13.484,(-1 5 1 1 -1 -2 -1 -1)
1969/12/31/18:00:13.496,(-6 -15 -21 -15 -6 -3 -4 -4)
1969/12/31/18:00:13.496,(-2 -4 -2 -1 -2 -2 -1 1)
1969/12/31/18:00:13.496,(2 8 -1 -3 0 0 0 0)
1969/12/31/18:00:13.496,(-2 0 -18 -7 -4 -2 1 -2)
1969/12/31/18:00:13.513,(0 -15 -2 -1 -2 0 -1 0)
1969/12/31/18:00:13.513,(-2 -6 -1 -8 -7 0 0 0)
1969/12/31/18:00:13.514,(3 12 -7 3 3 0 -3 -4)
1969/12/31/18:00:13.514,(-4 -15 -3 -2 0 -1 -1 -1)
1969/12/31/18:00:13.524,(-6 -14 -5 -2 -1 -2 -4 -2)
1969/12/31/18:00:13.524,(-3 -6 -9 -7 -4 -3 -2 -3)
1969/12/31/18:00:13.525,(-1 4 2 -2 2 1 -2 -2)
1969/12/31/18:00:13.525,(2 11 -4 4 0 -3 -4 -2)
1969/12/31/18:00:13.542,(-1 -9 -12 -4 -2 -1 -3 -2)
1969/12/31/18:00:13.542,(8 11 17 13 8 4 4 4)
1969/12/31/18:00:13.543,(-11 -10 -10 -6 -3 -1 -2 -4)
1969/12/31/18:00:13.543,(0 9 5 1 -1 0 1 -1)
1969/12/31/18:00:13.565,(-2 -7 -8 -6 -1 0 -1 -3)
1969/12/31/18:00:13.565,(-2 3 -1 -3 -1 0 -2 1)
1969/12/31/18:00:13.573,(1 -1 -3 -1 1 0 2 1)
1969/12/31/18:00:13.573,(2 9 9 1 1 1 0 0)
1969/12/31/18:00:13.573,(0 1 -1 2 -3 -4 1 -1)
1969/12/31/18:00:13.573,(-1 -3 -9 -4 -3 -2 -2 -2)
1969/12/31/18:00:13.574,(4 6 15 11 3 1 2 2)
1969/12/31/18:00:13.574,(1 2 0 -2 -1 -1 -2 -3)
1969/12/31/18:00:13.590,(-7 -29 -39 -20 -11 -6 -5 -6)
1969/12/31/18:00:13.590,(1 8 24 11 3 1 -1 -1)
1969/12/31/18:00:13.590,(-1 7 6 1 -2 -1 -2 -2)
1969/12/31/18:00:13.590,(1 4 3 5 4 2 0 1)
1969/12/31/18:00:13.607,(-1 -7 -11 -11 -7 -1 1 -3)
1969/12/31/18:00:13.607,(-5 -1 -7 -2 -2 -2 -1 -1)
1969/12/31/18:00:13.608,(1 1 2 1 0 0 -1 1)
1969/12/31/18:00:13.608,(1 -4 2 3 0 1 0 1)
1969/12/31/18:00:13.618,(-2 6 8 6 1 -2 -1 0)
1969/12/31/18:00:13.618,(0 5 -4 -6 -2 -2 -2 1)
1969/12/31/18:00:13.619,(-2 -2 -1 3 1 1 0 0)
1969/12/31/18:00:13.619,(0 0 0 2 0 0 -1 -1)
1969/12/31/18:00:13.642,(-1 -1 2 -1 -2 1 0 2)
1969/12/31/18:00:13.642,(-3 2 -4 -3 -4 -2 -3 -3)
1969/12/31/18:00:13.643,(0 -6 -9 -5 -3 -1 -1 1)
1969/12/31/18:00:13.643,(-5 -5 -1 -2 -2 -3 -2 -3)
1969/12/31/18:00:13.654,(-3 3 2 -1 -2 -2 1 1)
1969/12/31/18:00:13.654,(3 2 -3 4 4 2 0 1)
1969/12/31/18:00:13.655,(-3 -2 2 -4 -2 -1 -1 -4)
1969/12/31/18:00:13.655,(-1 -1 -2 -5 -5 -1 -2 -1)
1969/12/31/18:00:13.672,(5 17 14 12 8 2 1 0)
1969/12/31/18:00:13.672,(-4 -4 -5 -3 -2 -3 0 -1)
1969/12/31/18:00:13.672,(0 -2 -8 -7 -3 -1 -1 0)
1969/12/31/18:00:13.672,(3 2 5 5 2 2 0 1)
1969/12/31/18:00:13.683,(-4 -9 -5 -9 -9 -4 -3 -2)
1969/12/31/18:00:13.683,(-2 -3 -5 -19 -28 -5 -3 -1)
1969/12/31/18:00:13.689,(0 0 -2 10 24 0 -1 -1)
1969/12/31/18:00:13.689,(-4 -3 -7 -20 -27 -6 -2 -2)
1969/12/31/18:00:13.701,(6 4 10 28 41 12 3 3)
1969/12/31/18:00:13.701,(0 5 5 19 14 6 -1 0)
1969/12/31/18:00:13.702,(-1 -5 -2 5 3 0 -1 1)
1969/12/31/18:00:13.702,(-2 -1 -3 -7 -18 -6 -2 -3)
1969/12/31/18:00:13.712,(3 6 9 3 1 0 0 1)
1969/12/31/18:00:13.712,(-10 -15 -17 -21 -21 -9 -6 -11)
1969/12/31/18:00:13.719,(0 -1 -1 -4 -8 -1 1 -1)
1969/12/31/18:00:13.719,(0 0 4 6 13 1 1 -2)
1969/12/31/18:00:13.731,(-1 -2 -7 -13 -17 -4 -1 -1)
1969/12/31/18:00:13.731,(3 1 4 4 7 1 2 0)
1969/12/31/18:00:13.732,(-3 -3 -2 -5 -7 -2 -2 -3)
1969/12/31/18:00:13.732,(-2 -3 0 4 7 1 2 0)
1969/12/31/18:00:13.748,(7 13 3 -1 -7 0 2 1)
1969/12/31/18:00:13.748,(2 3 2 3 8 1 1 1)
1969/12/31/18:00:13.749,(1 0 -1 1 -1 -2 1 2)
1969/12/31/18:00:13.749,(-6 -6 -5 -4 -3 -2 -4 -5)
1969/12/31/18:00:13.759,(-5 -8 -4 -1 -4 -2 -3 -3)
1969/12/31/18:00:13.759,(-2 1 1 2 5 0 0 0)
1969/12/31/18:00:13.766,(0 -2 -4 -6 -10 -2 0 0)
1969/12/31/18:00:13.766,(0 2 3 4 8 2 0 1)
1969/12/31/18:00:13.777,(-3 -4 -6 -5 -2 -2 -1 0)
1969/12/31/18:00:13.777,(0 2 1 -3 0 -1 0 1)
1969/12/31/18:00:13.779,(-3 -3 -4 -1 -7 -3 -3 -4)
1969/12/31/18:00:13.779,(2 -1 -1 1 11 1 -1 -3)
1969/12/31/18:00:13.795,(0 -4 -2 -1 -8 -1 -2 -3)
1969/12/31/18:00:13.795,(0 -2 -6 -4 -4 -2 0 0)
1969/12/31/18:00:13.797,(-2 0 4 2 2 0 0 -1)
1969/12/31/18:00:13.797,(1 2 0 1 0 1 -1 2)
1969/12/31/18:00:13.806,(-3 -1 0 -4 -11 -3 -2 -1)
1969/12/31/18:00:13.806,(1 -2 1 6 18 4 0 1)
1969/12/31/18:00:13.813,(2 0 1 1 -3 -1 -1 -1)
1969/12/31/18:00:13.813,(-7 -10 -10 -5 -4 -4 -3 -5)
1969/12/31/18:00:13.825,(-2 2 3 2 3 -1 0 -3)
1969/12/31/18:00:13.825,(-4 -5 -8 -14 -16 -6 -1 -3)
1969/12/31/18:00:13.826,(-1 2 1 6 10 1 0 0)
1969/12/31/18:00:13.826,(2 3 4 1 -5 -2 0 2)
1969/12/31/18:00:13.842,(0 -1 -1 2 6 2 0 1)
1969/12/31/18:00:13.842,(0 1 3 0 -4 -1 -2 -1)
1969/12/31/18:00:13.843,(0 -1 -4 -5 -4 0 -1 -1)
1969/12/31/18:00:13.843,(0 -2 -1 1 1 1 -1 0)
1969/12/31/18:00:13.853,(-4 -6 -4 -5 -6 -5 -4 -3)
1969/12/31/18:00:13.853,(0 -1 0 -1 -1 0 0 -1)
1969/12/31/18:00:13.861,(-1 0 -1 -3 -2 0 -1 -1)
1969/12/31/18:00:13.861,(0 2 1 -3 -4 -4 0 1)
1969/12/31/18:00:13.871,(-2 -3 -1 -2 1 -1 -2 0)
1969/12/31/18:00:13.871,(-2 -2 -1 3 2 0 0 -1)
1969/12/31/18:00:13.882,(-2 -5 -2 -4 -3 -2 -4 -3)
1969/12/31/18:00:13.882,(0 1 1 -3 -4 -1 -1 -2)
1969/12/31/18:00:13.890,(0 -1 -3 1 4 2 2 2)
1969/12/31/18:00:13.890,(-1 0 -2 1 -2 -3 -1 0)
1969/12/31/18:00:13.890,(-3 -4 -5 -3 -6 -3 -1 -2)
1969/12/31/18:00:13.890,(1 7 -1 -2 3 2 2 0)
1969/12/31/18:00:13.901,(-3 -10 0 3 -1 -1 -1 -2)
1969/12/31/18:00:13.901,(-1 -1 -1 -1 -1 -1 -1 -2)
1969/12/31/18:00:13.920,(0 -2 -4 -3 -2 0 -1 0)
1969/12/31/18:00:13.920,(-1 -1 0 0 2 0 0 1)
1969/12/31/18:00:13.921,(-2 0 -6 -8 -4 -3 -1 -2)
1969/12/31/18:00:13.921,(-2 -3 -7 -11 -11 -6 -5 -3)
1969/12/31/18:00:13.930,(-1 2 3 0 -6 -3 -1 -2)
1969/12/31/18:00:13.930,(1 1 5 11 8 3 0 1)
1969/12/31/18:00:13.937,(-2 -3 -3 -3 -4 2 -1 0)
1969/12/31/18:00:13.937,(-1 -2 0 4 8 2 -2 -4)
1969/12/31/18:00:13.938,(0 1 -3 -5 -2 -3 -1 0)
1969/12/31/18:00:13.938,(-1 -1 0 -2 -2 0 0 -3)
1969/12/31/18:00:13.948,(-1 1 -2 -4 -3 -2 -1 -2)
1969/12/31/18:00:13.948,(1 0 3 2 -1 1 1 1)
1969/12/31/18:00:13.960,(-1 -2 -1 -1 2 1 -1 -1)
1969/12/31/18:00:13.960,(-1 -2 -2 -1 -3 -2 0 -1)
1969/12/31/18:00:13.966,(-1 1 0 1 -3 -1 -1 -1)
1969/12/31/18:00:13.966,(-1 -1 -1 0 1 -2 0 0)
1969/12/31/18:00:13.971,(0 -3 0 1 2 -1 -1 -2)
1969/12/31/18:00:13.971,(-1 -4 -6 -5 -5 -2 -2 0)
1969/12/31/18:00:13.984,(-1 -1 -2 -2 -1 -1 -2 -2)
1969/12/31/18:00:13.984,(0 1 2 2 0 1 0 2)
1969/12/31/18:00:13.984,(0 -2 -2 -2 -3 -1 1 -1)
1969/12/31/18:00:13.984,(0 -1 -1 0 -1 -1 -1 0)
1969/12/31/18:00:14.002,(0 1 -1 -2 -2 -2 0 1)
1969/12/31/18:00:14.002,(0 -1 0 1 -2 1 -2 -2)
1969/12/31/18:00:14.003,(0 1 0 2 5 3 2 2)
1969/12/31/18:00:14.003,(-3 -3 -4 -5 -1 0 -2 -2)
1969/12/31/18:00:14.013,(0 -2 -1 1 4 -1 -1 -1)
1969/12/31/18:00:14.013,(0 3 5 4 1 1 1 0)
1969/12/31/18:00:14.014,(-1 -1 -1 -3 -3 -2 -1 -2)
1969/12/31/18:00:14.014,(-1 0 -1 -2 0 -1 -1 -1)
1969/12/31/18:00:14.031,(-4 -4 -4 -1 -2 -2 0 -1)
1969/12/31/18:00:14.031,(-2 -4 -3 -2 -3 -3 -2 -2)
1969/12/31/18:00:14.032,(-1 -2 -3 -4 -2 -2 -1 -2)
1969/12/31/18:00:14.032,(-1 1 3 2 0 0 -2 -2)
1969/12/31/18:00:14.048,(-1 0 -1 -2 -1 -1 -2 -1)
1969/12/31/18:00:14.048,(-1 -1 -1 1 1 0 -2 0)
1969/12/31/18:00:14.050,(-2 -1 -1 0 -1 -2 -1 -1)
1969/12/31/18:00:14.050,(-1 -2 -3 -4 -4 -2 -2 0)
1969/12/31/18:00:14.060,(1 0 0 -1 3 1 2 0)
1969/12/31/18:00:14.060,(-1 -1 -1 1 1 0 -1 -1)
1969/12/31/18:00:14.061,(0 0 1 2 1 0 -1 -2)
1969/12/31/18:00:14.061,(0 -2 0 -2 -3 -2 -1 -1)
1969/12/31/18:00:14.078,(-2 -2 -2 -1 -2 -1 -2 -2)
1969/12/31/18:00:14.078,(-2 -1 -2 -4 -2 -1 -1 -1)
1969/12/31/18:00:14.079,(-2 -3 -3 -5 -4 -4 -2 -3)
1969/12/31/18:00:14.079,(0 -1 0 -2 -3 0 -1 0)
1969/12/31/18:00:14.095,(1 1 1 -3 -4 -1 1 0)
1969/12/31/18:00:14.095,(0 -2 -1 1 2 0 1 0)
1969/12/31/18:00:14.097,(-2 -3 -1 -2 -2 -1 -1 0)
1969/12/31/18:00:14.097,(0 2 0 2 -1 -1 -1 1)
1969/12/31/18:00:14.107,(-4 -7 -8 -5 -4 -2 -4 -5)
1969/12/31/18:00:14.107,(-2 -2 -4 -5 -3 -3 -1 -1)
1969/12/31/18:00:14.108,(-1 0 1 3 2 1 0 0)
1969/12/31/18:00:14.108,(-1 -2 -5 -1 2 0 0 0)
1969/12/31/18:00:14.125,(1 3 9 3 0 0 -1 0)
1969/12/31/18:00:14.125,(0 -2 -2 -1 -3 -2 -2 -2)
1969/12/31/18:00:14.130,(-1 -1 0 0 6 1 0 0)
1969/12/31/18:00:14.130,(-1 0 1 2 1 0 0 0)
1969/12/31/18:00:14.142,(-3 -3 -3 1 2 -1 -3 -2)
1969/12/31/18:00:14.143,(-2 -1 1 0 0 0 1 0)
1969/12/31/18:00:14.144,(0 -2 -2 -4 -3 -1 -1 0)
1969/12/31/18:00:14.144,(-2 -3 -4 -3 -2 -2 -1 -2)
1969/12/31/18:00:14.154,(0 1 3 3 2 1 -1 2)
1969/12/31/18:00:14.154,(-1 -1 -1 -2 -3 -2 -1 -1)
1969/12/31/18:00:14.159,(0 1 2 2 0 -1 0 0)
1969/12/31/18:00:14.159,(-1 -1 1 3 2 -2 -2 -2)
1969/12/31/18:00:14.172,(-1 1 -2 -4 -3 -2 -1 -1)
1969/12/31/18:00:14.172,(0 -1 1 -1 1 -2 -1 0)
1969/12/31/18:00:14.174,(-2 -1 -1 0 -1 0 0 -1)
1969/12/31/18:00:14.174,(-2 -2 -3 -2 -2 -2 0 -3)
1969/12/31/18:00:14.190,(0 1 1 2 3 0 1 -1)
1969/12/31/18:00:14.190,(0 0 0 0 0 0 0 -1)
1969/12/31/18:00:14.191,(-1 -1 -3 -4 -3 -1 -3 -3)
1969/12/31/18:00:14.191,(-2 -2 -2 -4 -4 1 -3 0)
1969/12/31/18:00:14.207,(-1 -4 -7 -8 -3 0 -1 -1)
1969/12/31/18:00:14.207,(0 -1 0 3 5 0 3 0)
1969/12/31/18:00:14.208,(1 1 2 1 1 0 2 0)
1969/12/31/18:00:14.208,(-4 -5 -4 -4 0 -2 -1 -3)
1969/12/31/18:00:14.225,(-1 -1 -2 -3 -4 -2 -1 1)
1969/12/31/18:00:14.225,(-1 -1 -2 -5 -4 0 -2 -3)
1969/12/31/18:00:14.225,(2 27 12 6 4 -2 0 0)
1969/12/31/18:00:14.225,(-3 -8 -11 -9 -1 1 -5 -4)
1969/12/31/18:00:14.225,(0 4 4 1 -5 -2 3 -1)
1969/12/31/18:00:14.225,(1 -3 6 8 6 5 3 2)
1969/12/31/18:00:14.234,(-1 4 3 -1 0 -1 -2 -1)
1969/12/31/18:00:14.234,(1 -2 -4 -6 -5 -2 -2 1)
1969/12/31/18:00:14.235,(-4 -6 -3 2 -2 -4 -4 -5)
1969/12/31/18:00:14.235,(-3 -14 -13 -2 0 0 -1 0)
1969/12/31/18:00:14.247,(-2 0 3 1 1 -2 -1 -1)
1969/12/31/18:00:14.247,(-6 -7 -14 -7 -1 -1 -4 -5)
1969/12/31/18:00:14.251,(8 6 7 1 -1 1 4 5)
1969/12/31/18:00:14.251,(9 9 4 5 5 -2 -11 -16)
1969/12/31/18:00:14.263,(9 -9 -15 -9 -3 -1 4 15)
1969/12/31/18:00:14.263,(-15 17 13 1 -1 -2 -7 -13)
1969/12/31/18:00:14.264,(-9 -8 4 3 4 2 -1 -2)
1969/12/31/18:00:14.264,(14 14 6 5 4 4 10 16)
1969/12/31/18:00:14.281,(-19 -13 -9 -6 -3 -3 -7 -22)
1969/12/31/18:00:14.281,(10 -8 -4 -3 -1 -1 1 14)
1969/12/31/18:00:14.287,(2 3 -1 -4 -4 -1 3 0)
1969/12/31/18:00:14.287,(-25 -3 -1 0 -1 -1 -3 -16)
1969/12/31/18:00:14.292,(24 -2 -1 0 1 5 8 26)
1969/12/31/18:00:14.292,(8 3 -5 -8 -4 -4 -7 -5)
1969/12/31/18:00:14.298,(-14 -10 -4 -5 -5 -5 -7 -20)
1969/12/31/18:00:14.298,(18 -4 -4 1 0 -1 -2 13)
1969/12/31/18:00:14.312,(3 7 -2 -4 -2 -2 1 7)
1969/12/31/18:00:14.312,(-22 -15 -1 1 2 0 2 -10)
1969/12/31/18:00:14.312,(9 5 0 -1 -2 0 1 4)
1969/12/31/18:00:14.312,(-6 12 5 2 4 0 3 1)
1969/12/31/18:00:14.328,(11 6 5 4 3 0 -14 -36)
1969/12/31/18:00:14.328,(-9 -3 3 1 -1 1 4 14)
1969/12/31/18:00:14.329,(-23 -9 -7 -5 -6 -5 0 8)
1969/12/31/18:00:14.329,(-5 -11 -9 -6 1 6 -1 7)
1969/12/31/18:00:14.339,(1 9 8 7 3 3 21 18)
1969/12/31/18:00:14.339,(21 2 -3 -5 -6 -15 -30 -24)
1969/12/31/18:00:14.345,(-29 -16 0 3 1 0 -5 -30)
1969/12/31/18:00:14.345,(28 28 8 5 2 4 -4 14)
1969/12/31/18:00:14.358,(-37 -12 -2 -1 0 0 -7 -42)
1969/12/31/18:00:14.358,(45 24 0 0 3 6 33 78)
1969/12/31/18:00:14.358,(-2 16 0 -6 -3 16 6 -14)
1969/12/31/18:00:14.358,(-22 -34 -8 0 -4 -18 -2 -16)
1969/12/31/18:00:14.375,(21 3 -3 -1 -3 -8 -12 27)
1969/12/31/18:00:14.375,(-9 2 5 2 1 2 -1 -7)
1969/12/31/18:00:14.376,(20 9 4 2 -1 -5 -5 14)
1969/12/31/18:00:14.376,(-8 -4 -6 -5 -4 0 3 -4)
1969/12/31/18:00:14.386,(-25 10 4 1 2 4 2 -24)
1969/12/31/18:00:14.386,(25 -3 -7 -3 -6 1 -2 20)
1969/12/31/18:00:14.393,(-21 4 -2 -4 -5 -12 -15 -22)
1969/12/31/18:00:14.393,(49 -8 -1 0 1 9 12 12)
1969/12/31/18:00:14.405,(-86 -52 -14 -3 -3 -7 -14 -32)
1969/12/31/18:00:14.405,(-1 17 -6 -8 -8 -1 5 -21)
1969/12/31/18:00:14.405,(32 6 3 0 -1 -13 -2 4)
1969/12/31/18:00:14.405,(-39 -1 18 16 14 22 10 -21)
1969/12/31/18:00:14.422,(-2 -12 -9 -7 -7 -14 -19 -30)
1969/12/31/18:00:14.422,(-3 -16 -3 -2 1 12 0 -31)
1969/12/31/18:00:14.423,(18 17 2 1 5 12 10 29)
1969/12/31/18:00:14.423,(-33 -13 -9 -11 -17 -38 -13 -33)
1969/12/31/18:00:14.435,(21 12 2 1 6 20 26 43)
1969/12/31/18:00:14.435,(-23 -15 -4 -4 -5 -18 -19 -28)
1969/12/31/18:00:14.440,(5 18 7 4 4 7 -1 -4)
1969/12/31/18:00:14.440,(-4 -27 -7 -3 3 5 -4 7)
1969/12/31/18:00:14.451,(6 1 -3 0 -2 5 40 26)
1969/12/31/18:00:14.451,(-9 -8 -4 -3 -3 -18 -23 -17)
1969/12/31/18:00:14.452,(3 -4 4 3 -1 9 11 16)
1969/12/31/18:00:14.452,(24 16 -2 -5 -4 -14 -10 -9)
1969/12/31/18:00:14.469,(30 -9 -5 0 4 2 -2 35)
1969/12/31/18:00:14.469,(-37 -4 -3 -7 0 -4 10 -35)
1969/12/31/18:00:14.470,(46 -11 -10 -2 1 6 5 42)
1969/12/31/18:00:14.470,(2 26 18 13 3 30 -6 -16)
1969/12/31/18:00:14.480,(19 -8 -14 -14 -20 -41 -19 0)
1969/12/31/18:00:14.480,(-55 -13 0 -1 -3 3 22 -10)
1969/12/31/18:00:14.487,(40 0 -9 -8 -7 -11 -20 3)
1969/12/31/18:00:14.487,(-10 -5 -1 -2 9 14 -1 -49)
1969/12/31/18:00:14.499,(-49 -31 -16 -9 -1 4 -15 5)
1969/12/31/18:00:14.499,(49 31 0 -1 -9 -23 -4 6)
1969/12/31/18:00:14.500,(-32 -2 11 5 5 6 -3 2)
1969/12/31/18:00:14.500,(-22 -1 -13 -4 -8 -17 3 16)
1969/12/31/18:00:14.517,(26 2 3 -2 0 10 -5 15)
1969/12/31/18:00:14.517,(-15 -14 -4 -3 3 11 2 -1)
1969/12/31/18:00:14.517,(-43 -23 -8 -3 -2 -4 -5 -40)
1969/12/31/18:00:14.517,(61 35 11 1 2 -4 1 48)
1969/12/31/18:00:14.535,(6 15 14 11 6 -2 15 25)
1969/12/31/18:00:14.535,(15 -2 -4 -3 1 48 2 -27)
1969/12/31/18:00:14.535,(-32 -18 -10 -7 -6 -26 -37 -31)
1969/12/31/18:00:14.535,(7 12 6 0 -5 -3 5 2)
1969/12/31/18:00:14.553,(-17 -16 -6 0 -4 -14 -24 -8)
1969/12/31/18:00:14.553,(-3 -4 -3 -5 -6 -6 -2 -7)
1969/12/31/18:00:14.553,(12 15 11 9 10 14 23 -6)
1969/12/31/18:00:14.553,(22 12 -4 -6 -4 8 19 58)
1969/12/31/18:00:14.564,(-35 -25 -8 -6 -6 3 -1 -35)
1969/12/31/18:00:14.564,(-52 22 10 8 7 -10 -26 -16)
1969/12/31/18:00:14.564,(-16 -92 -41 -21 -12 -13 6 12)
1969/12/31/18:00:14.564,(25 30 8 3 2 -8 6 35)
1969/12/31/18:00:14.582,(30 32 18 10 10 14 13 9)
1969/12/31/18:00:14.582,(-17 5 4 2 -2 -7 -9 -6)
1969/12/31/18:00:14.582,(-4 22 15 6 3 7 26 36)
1969/12/31/18:00:14.582,(-17 -23 -10 -3 -2 -2 -9 -44)
1969/12/31/18:00:14.593,(26 11 3 2 6 4 -12 1)
1969/12/31/18:00:14.593,(-6 -23 -8 -4 -4 -4 9 7)
1969/12/31/18:00:14.593,(-23 31 14 9 4 -9 -7 -74)
1969/12/31/18:00:14.593,(20 -29 -15 -10 -9 -14 -26 -19)
1969/12/31/18:00:14.611,(43 11 -2 -2 -1 13 43 72)
1969/12/31/18:00:14.611,(24 0 4 3 -2 -6 1 43)
1969/12/31/18:00:14.611,(-23 -15 -12 -6 -4 -10 -7 11)
1969/12/31/18:00:14.611,(-39 -4 -15 -10 -11 -6 -13 -63)
1969/12/31/18:00:14.629,(-46 -29 -16 -9 -7 -8 -14 -39)
1969/12/31/18:00:14.629,(34 27 27 20 14 11 12 5)
1969/12/31/18:00:14.630,(22 2 -8 -11 -9 -20 -33 28)
1969/12/31/18:00:14.630,(-1 -16 -12 -10 -12 13 -26 -70)
1969/12/31/18:00:14.640,(-40 1 -2 -6 -4 -6 10 -22)
1969/12/31/18:00:14.640,(12 -2 5 4 3 -10 -16 -29)
1969/12/31/18:00:14.641,(-30 6 9 9 9 24 27 -20)
1969/12/31/18:00:14.641,(-35 20 15 11 13 3 -4 4)
1969/12/31/18:00:14.658,(63 29 1 -7 -8 -2 -2 -25)
1969/12/31/18:00:14.658,(-3 -36 -18 -12 -6 13 -24 -7)
1969/12/31/18:00:14.659,(48 26 11 8 5 -4 25 51)
1969/12/31/18:00:14.659,(-7 -11 -8 -3 -2 -6 -5 -6)
1969/12/31/18:00:14.676,(30 17 4 1 -4 -6 6 4)
1969/12/31/18:00:14.676,(-38 -4 0 -1 5 9 -20 -22)
1969/12/31/18:00:14.677,(50 0 1 1 0 9 19 83)
1969/12/31/18:00:14.677,(30 1 11 8 10 11 30 54)
1969/12/31/18:00:14.688,(-51 -10 -5 -2 -1 -1 -13 -57)
1969/12/31/18:00:14.688,(56 20 -5 -10 -11 -19 3 46)
1969/12/31/18:00:14.688,(-29 -24 -19 -11 -9 -7 -17 -40)
1969/12/31/18:00:14.688,(-58 -25 -6 -2 1 -4 11 -5)
1969/12/31/18:00:14.705,(-14 -13 -1 2 1 -16 -11 9)
1969/12/31/18:00:14.705,(22 1 0 0 6 40 16 14)
1969/12/31/18:00:14.706,(-6 26 8 1 -9 -26 -10 -23)
1969/12/31/18:00:14.706,(62 5 -5 -4 -6 -12 -42 47)
1969/12/31/18:00:14.723,(-26 -32 -5 2 1 18 10 13)
1969/12/31/18:00:14.723,(33 -14 -20 -14 -11 -3 -12 28)
1969/12/31/18:00:14.724,(-25 -8 -2 -6 -7 0 -8 -67)
1969/12/31/18:00:14.724,(-13 -1 0 -4 -1 9 17 12)
1969/12/31/18:00:14.735,(111 47 15 9 3 6 16 36)
1969/12/31/18:00:14.735,(-9 10 4 3 -3 -33 -9 -10)
1969/12/31/18:00:14.736,(16 -19 -11 -4 5 28 -6 54)
1969/12/31/18:00:14.736,(-62 -6 2 5 7 19 40 -27)
1969/12/31/18:00:14.752,(-3 7 4 2 3 4 -22 1)
1969/12/31/18:00:14.752,(-26 0 -2 -2 -3 -10 7 1)
1969/12/31/18:00:14.752,(-1 -1 5 4 1 0 -12 -10)
1969/12/31/18:00:14.753,(44 -4 -2 1 -2 -7 36 58)
1969/12/31/18:00:14.770,(12 13 -3 -1 -1 -4 -21 -75)
1969/12/31/18:00:14.770,(-46 2 6 3 2 5 32 -1)
1969/12/31/18:00:14.771,(-1 -32 -30 -24 -15 -31 -11 -5)
1969/12/31/18:00:14.771,(10 17 11 4 2 -8 -21 7)
1969/12/31/18:00:14.782,(-40 -15 0 -1 -3 -7 1 -18)
1969/12/31/18:00:14.782,(-39 -2 0 3 4 2 2 -30)
1969/12/31/18:00:14.783,(-6 -5 0 -2 -5 -4 -2 -34)
1969/12/31/18:00:14.783,(-17 32 16 13 18 33 14 4)
1969/12/31/18:00:14.799,(17 -37 -18 -10 -15 -23 15 87)
1969/12/31/18:00:14.799,(82 2 4 11 -2 -2 24 82)
1969/12/31/18:00:14.800,(-2 18 4 3 17 8 -8 26)
1969/12/31/18:00:14.800,(3 -28 -24 -25 -47 -68 -53 -89)
1969/12/31/18:00:14.817,(-7 11 6 5 15 53 1 35)
1969/12/31/18:00:14.817,(31 17 18 7 -14 -2 11 19)
1969/12/31/18:00:14.818,(53 5 -6 -8 -15 -11 20 38)
1969/12/31/18:00:14.818,(11 18 0 -4 1 1 37 35)
1969/12/31/18:00:14.828,(-36 -29 0 13 20 4 -71 -49)
1969/12/31/18:00:14.828,(-19 0 1 9 16 18 2 -57)
1969/12/31/18:00:14.829,(1 10 4 2 -4 -14 1 3)
1969/12/31/18:00:14.829,(-33 0 12 13 14 15 -12 -55)
1969/12/31/18:00:14.847,(-47 -17 -13 -13 -24 -6 10 -79)
1969/12/31/18:00:14.847,(21 -19 -17 -13 6 -11 -38 28)
1969/12/31/18:00:14.847,(47 16 9 6 19 48 25 30)
1969/12/31/18:00:14.847,(-21 -1 -2 -7 -6 -8 20 13)
1969/12/31/18:00:14.864,(-2 -3 -2 6 9 -19 -36 -1)
1969/12/31/18:00:14.864,(-36 -15 -10 -11 -10 -12 6 20)
1969/12/31/18:00:14.865,(-22 6 5 5 8 12 -4 -26)
1969/12/31/18:00:14.865,(13 -6 0 15 20 9 -7 5)
1969/12/31/18:00:14.875,(0 25 12 1 -28 -12 19 9)
1969/12/31/18:00:14.875,(-11 -16 -13 -20 1 -2 0 -9)
1969/12/31/18:00:14.876,(4 5 9 12 -2 -23 -5 -2)
1969/12/31/18:00:14.876,(38 -8 -15 -24 -15 38 15 83)
1969/12/31/18:00:14.893,(-20 -11 -9 -10 6 -2 13 -18)
1969/12/31/18:00:14.893,(6 14 8 5 -2 -5 -6 -14)
1969/12/31/18:00:14.894,(-13 4 4 3 -7 -16 14 -10)
1969/12/31/18:00:14.894,(-22 -2 -1 1 -2 -1 -14 -75)
1969/12/31/18:00:14.918,(64 6 -7 -5 -9 -6 12 58)
1969/12/31/18:00:14.918,(-28 -5 -6 2 7 4 5 -60)
1969/12/31/18:00:14.918,(-71 -20 4 18 26 14 9 -17)
1969/12/31/18:00:14.918,(42 -13 -17 -29 -58 -36 -7 55)
1969/12/31/18:00:14.922,(9 26 11 0 12 -19 3 5)
1969/12/31/18:00:14.922,(-13 -19 -9 -13 34 65 9 11)
1969/12/31/18:00:14.923,(-15 -6 -6 -8 -23 -21 -20 -26)
1969/12/31/18:00:14.923,(-31 2 10 17 23 -1 -1 11)
1969/12/31/18:00:14.940,(-17 2 -2 -6 5 9 -3 -22)
1969/12/31/18:00:14.940,(27 8 1 7 -18 -28 -9 15)
1969/12/31/18:00:14.941,(-11 -5 -2 -6 -3 12 2 -12)
1969/12/31/18:00:14.941,(-1 -3 2 12 18 -8 -7 12)
1969/12/31/18:00:14.958,(-5 -5 1 4 -20 -10 -5 -12)
1969/12/31/18:00:14.958,(-15 7 9 9 -21 -11 11 8)
1969/12/31/18:00:14.959,(42 22 -8 -17 3 -6 2 52)
1969/12/31/18:00:14.959,(-22 -45 -11 -5 9 45 8 -14)
1969/12/31/18:00:14.969,(50 13 -3 -1 1 -11 4 43)
1969/12/31/18:00:14.969,(-11 0 8 7 -1 -25 -3 0)
1969/12/31/18:00:14.970,(-9 2 1 -1 -14 16 -7 -35)
1969/12/31/18:00:14.970,(7 33 19 23 44 18 -2 -20)
1969/12/31/18:00:14.987,(-19 -36 -17 -14 -15 -13 -2 -10)
1969/12/31/18:00:14.987,(23 -6 -27 -24 -8 20 -1 -22)
1969/12/31/18:00:14.988,(25 65 56 34 16 13 12 34)
1969/12/31/18:00:14.988,(-42 -102 -73 -31 -3 -20 -4 -25)
1969/12/31/18:00:15.005,(-26 23 -52 -27 -8 26 -14 -39)
1969/12/31/18:00:15.005,(19 97 97 74 13 -18 1 -12)
1969/12/31/18:00:15.006,(15 -22 -44 -13 -10 -25 -15 6)
1969/12/31/18:00:15.006,(2 19 22 23 17 22 -6 -13)
1969/12/31/18:00:15.029,(2 -51 -34 2 5 -8 6 17)
1969/12/31/18:00:15.029,(-33 -62 -50 -36 -15 -10 -9 -16)
1969/12/31/18:00:15.030,(34 -22 4 15 27 34 11 22)
1969/12/31/18:00:15.030,(-39 8 10 4 -30 -70 -30 -25)
1969/12/31/18:00:15.034,(5 -20 -1 -11 3 31 -8 -28)
1969/12/31/18:00:15.034,(-1 1 -2 -19 -57 -34 7 -27)
1969/12/31/18:00:15.035,(5 -20 3 -5 29 49 15 11)
1969/12/31/18:00:15.035,(48 -4 -44 -32 -38 -34 -19 -6)
1969/12/31/18:00:15.052,(-1 25 34 19 13 -14 16 14)
1969/12/31/18:00:15.052,(-27 -4 6 16 15 7 -30 -20)
1969/12/31/18:00:15.053,(13 54 55 16 -10 -39 9 16)
1969/12/31/18:00:15.053,(2 -9 -11 7 23 38 -10 -15)
1969/12/31/18:00:15.063,(-28 -42 -46 -32 -24 27 23 16)
1969/12/31/18:00:15.063,(15 54 58 27 15 -3 5 -5)
1969/12/31/18:00:15.070,(-37 -50 -19 -5 -15 -19 -18 -21)
1969/12/31/18:00:15.070,(2 4 -27 20 24 -9 0 3)
1969/12/31/18:00:15.088,(47 36 29 8 -9 -6 4 45)
1969/12/31/18:00:15.088,(-64 -54 -42 -30 0 16 1 -15)
1969/12/31/18:00:15.089,(-30 -41 -41 -18 -24 -37 -8 -25)
1969/12/31/18:00:15.089,(-2 -14 18 5 -12 -4 5 17)
1969/12/31/18:00:15.106,(-9 -29 -12 4 37 39 -2 -5)
1969/12/31/18:00:15.106,(36 -4 -26 -16 -21 -45 9 48)
1969/12/31/18:00:15.106,(77 17 -18 -5 1 17 -4 3)
1969/12/31/18:00:15.106,(16 44 53 4 -17 -3 11 12)
1969/12/31/18:00:15.111,(-14 -71 -16 4 41 60 8 3)
1969/12/31/18:00:15.111,(9 113 65 23 -3 -31 -15 -18)
1969/12/31/18:00:15.117,(-8 -23 50 22 -12 -8 -10 -14)
1969/12/31/18:00:15.117,(-33 -58 -108 -48 -19 -21 1 27)
1969/12/31/18:00:15.135,(14 80 51 15 -24 -74 -1 -25)
1969/12/31/18:00:15.135,(3 42 63 59 89 102 12 10)
1969/12/31/18:00:15.136,(61 -11 -49 -2 -31 37 14 27)
1969/12/31/18:00:15.136,(-16 -4 10 8 11 19 4 3)
1969/12/31/18:00:15.152,(-38 -105 -77 -18 -34 -44 -25 -29)
1969/12/31/18:00:15.152,(-61 -95 -116 -55 -9 -30 -15 -36)
1969/12/31/18:00:15.153,(-44 8 18 -3 4 -6 -4 -31)
1969/12/31/18:00:15.153,(2 0 19 -8 -28 -39 -13 -5)
1969/12/31/18:00:15.164,(13 28 15 17 27 35 6 -2)
1969/12/31/18:00:15.164,(-4 -64 -35 -24 -46 -18 -2 3)
1969/12/31/18:00:15.165,(-12 -100 -114 -50 -11 -21 -6 15)
1969/12/31/18:00:15.165,(30 92 94 47 45 84 45 34)
1969/12/31/18:00:15.176,(-14 111 112 36 -16 -28 -32 -45)
1969/12/31/18:00:15.176,(-4 -2 -11 5 17 46 16 13)
1969/12/31/18:00:15.176,(-10 -47 -33 -15 -3 -11 5 -4)
1969/12/31/18:00:15.176,(11 -128 -128 -45 -30 -51 -30 -53)
1969/12/31/18:00:15.194,(-37 89 19 4 0 -3 5 -1)
1969/12/31/18:00:15.195,(32 26 35 19 11 14 16 46)
1969/12/31/18:00:15.195,(-92 -74 -49 -19 -21 -25 -27 -67)
1969/12/31/18:00:15.195,(-6 57 22 22 16 -10 4 0)
1969/12/31/18:00:15.205,(-12 11 24 -2 -12 56 37 15)
1969/12/31/18:00:15.205,(8 -92 -78 -40 17 41 -18 -15)
1969/12/31/18:00:15.211,(-24 127 69 26 38 15 4 -3)
1969/12/31/18:00:15.211,(18 -30 23 8 -16 15 10 23)
1969/12/31/18:00:15.223,(-45 -125 -63 -11 -8 -44 -3 4)
1969/12/31/18:00:15.223,(-39 -55 -49 -8 -17 -49 -18 -22)
1969/12/31/18:00:15.224,(25 45 6 4 13 25 -7 -22)
1969/12/31/18:00:15.224,(17 122 120 46 7 19 25 21)
1969/12/31/18:00:15.241,(-3 -46 -51 -16 0 -2 -6 -7)
1969/12/31/18:00:15.241,(32 -27 -21 -10 -11 -4 6 40)
1969/12/31/18:00:15.242,(-20 -54 -25 3 6 -22 -11 -23)
1969/12/31/18:00:15.242,(20 -103 -115 -49 -36 -36 -20 -17)
1969/12/31/18:00:15.252,(17 80 83 48 53 2 -1 -3)
1969/12/31/18:00:15.252,(51 58 62 20 10 17 2 -4)
1969/12/31/18:00:15.258,(-1 -52 -57 -14 2 5 -8 10)
1969/12/31/18:00:15.258,(-33 2 38 2 10 30 -1 -17)
1969/12/31/18:00:15.270,(12 -33 -55 -22 -5 -5 6 35)
1969/12/31/18:00:15.270,(-22 -102 -94 -4 28 -15 -5 -7)
1969/12/31/18:00:15.271,(-48 98 58 -5 -41 13 -11 -16)
1969/12/31/18:00:15.271,(1 -2 -3 2 5 -31 -18 -11)
1969/12/31/18:00:15.288,(10 44 -4 -9 -18 8 9 31)
1969/12/31/18:00:15.288,(20 127 127 63 16 -9 6 23)
1969/12/31/18:00:15.289,(-10 -128 -126 -27 43 44 29 35)
1969/12/31/18:00:15.289,(-51 78 11 -15 -38 -29 -31 -57)
1969/12/31/18:00:15.305,(-10 35 46 17 18 26 0 -12)
1969/12/31/18:00:15.305,(-48 -105 -107 -61 -48 -31 -9 -18)
1969/12/31/18:00:15.306,(-15 79 60 39 12 -15 8 -6)
1969/12/31/18:00:15.306,(-43 -87 -53 -31 6 14 -8 18)
1969/12/31/18:00:15.317,(15 -75 -89 -33 -30 -60 6 16)
1969/12/31/18:00:15.317,(31 109 108 45 18 35 20 35)
1969/12/31/18:00:15.318,(51 -71 -38 2 -5 -19 -9 15)
1969/12/31/18:00:15.318,(5 88 38 29 32 -5 4 0)
1969/12/31/18:00:15.335,(-40 -83 -5 -11 -25 20 -7 -41)
1969/12/31/18:00:15.335,(-49 -128 -128 -50 -22 -12 -6 -24)
1969/12/31/18:00:15.336,(-29 87 77 17 -13 -34 0 -18)
1969/12/31/18:00:15.336,(77 -103 -89 -13 13 0 22 50)
1969/12/31/18:00:15.352,(-11 -99 -113 -51 -35 -25 -8 43)
1969/12/31/18:00:15.352,(71 105 102 82 35 25 19 18)
1969/12/31/18:00:15.353,(-5 -99 -53 6 -6 10 6 -3)
1969/12/31/18:00:15.353,(-68 -51 -29 3 -16 -28 -30 -60)
1969/12/31/18:00:15.363,(16 -111 -71 -10 12 -1 -23 -46)
1969/12/31/18:00:15.363,(55 -88 -98 -55 -14 -2 -12 -3)
1969/12/31/18:00:15.370,(18 109 84 12 1 -19 -8 -4)
1969/12/31/18:00:15.370,(21 39 74 74 26 25 12 0)
1969/12/31/18:00:15.382,(26 -57 -60 5 4 4 13 40)
1969/12/31/18:00:15.382,(-32 -19 25 10 12 9 -3 -12)
1969/12/31/18:00:15.384,(23 -62 -56 -18 -34 -67 -3 19)
1969/12/31/18:00:15.384,(-73 -44 -15 -61 52 103 13 -7)
1969/12/31/18:00:15.399,(33 3 13 12 -2 -7 -4 -7)
1969/12/31/18:00:15.399,(-14 46 30 -2 -12 -11 12 15)
1969/12/31/18:00:15.401,(-37 -21 -57 -29 1 11 -28 -28)
1969/12/31/18:00:15.401,(-5 31 25 6 -18 -44 -6 4)
1969/12/31/18:00:15.410,(50 127 127 56 22 21 26 50)
1969/12/31/18:00:15.410,(-56 -128 -103 -47 -29 -36 -11 -7)
1969/12/31/18:00:15.417,(-13 41 25 12 6 14 2 -16)
1969/12/31/18:00:15.417,(8 -104 -72 -10 -3 -3 2 -12)
1969/12/31/18:00:15.429,(8 111 82 -1 12 67 11 -16)
1969/12/31/18:00:15.429,(34 -77 -56 -22 -33 -28 -5 18)
1969/12/31/18:00:15.430,(39 106 63 21 0 5 15 13)
1969/12/31/18:00:15.430,(-46 -17 0 -16 -35 -23 -18 -39)
1969/12/31/18:00:15.447,(40 -15 -16 15 1 -48 7 61)
1969/12/31/18:00:15.447,(-57 -27 -5 -4 22 44 4 -14)
1969/12/31/18:00:15.448,(-16 -97 -52 -10 2 -11 -12 -13)
1969/12/31/18:00:15.448,(29 -9 -30 -30 -17 6 6 31)
1969/12/31/18:00:15.457,(-21 -34 -5 -1 -16 -27 -22 -15)
1969/12/31/18:00:15.458,(17 79 45 23 18 4 -7 -22)
1969/12/31/18:00:15.464,(26 53 67 11 27 41 19 20)
1969/12/31/18:00:15.464,(6 17 12 11 -15 -13 -5 24)
1969/12/31/18:00:15.476,(26 -11 -27 0 -6 -12 5 3)
1969/12/31/18:00:15.476,(28 83 57 11 36 42 -17 -8)
1969/12/31/18:00:15.477,(-11 -11 -8 -8 -4 7 2 -15)
1969/12/31/18:00:15.477,(-50 -52 -2 17 19 -11 2 -42)
1969/12/31/18:00:15.494,(15 40 -5 -6 10 3 -16 3)
1969/12/31/18:00:15.494,(38 12 21 8 -40 14 5 -19)
1969/12/31/18:00:15.495,(0 -62 -43 -5 -6 -12 -14 -4)
1969/12/31/18:00:15.495,(3 -61 -35 -2 -16 -28 -7 4)
1969/12/31/18:00:15.504,(-42 -55 -54 -32 -2 -15 -22 -42)
1969/12/31/18:00:15.504,(1 24 8 6 9 -9 18 14)
1969/12/31/18:00:15.525,(18 17 6 0 -15 12 1 24)
1969/12/31/18:00:15.525,(24 14 0 0 -3 -16 -5 5)
1969/12/31/18:00:15.526,(-28 -20 -12 0 6 -23 6 -4)
1969/12/31/18:00:15.526,(-58 -78 -75 -25 2 24 -3 -24)
1969/12/31/18:00:15.528,(43 48 75 70 41 1 12 16)
1969/12/31/18:00:15.528,(42 -53 -84 -15 -7 27 16 44)
1969/12/31/18:00:15.541,(-22 16 38 4 6 32 11 -1)
1969/12/31/18:00:15.541,(-9 13 6 12 -1 -33 -12 -4)
1969/12/31/18:00:15.542,(-7 9 -7 -34 -39 7 8 -13)
1969/12/31/18:00:15.542,(5 -27 0 3 4 -3 -8 -17)
1969/12/31/18:00:15.552,(81 103 74 26 15 23 18 45)
1969/12/31/18:00:15.552,(-29 -17 -9 5 1 -4 1 -24)
1969/12/31/18:00:15.559,(-29 -23 -7 -12 2 -5 -6 -5)
1969/12/31/18:00:15.559,(54 69 22 -2 -8 7 12 34)
1969/12/31/18:00:15.576,(-29 -86 -35 -7 -2 8 -3 -13)
1969/12/31/18:00:15.576,(-30 -44 -43 9 33 -33 -20 -27)
1969/12/31/18:00:15.582,(-17 -19 -29 -33 -10 31 -9 -31)
1969/12/31/18:00:15.582,(-6 66 72 10 -6 -26 16 11)
1969/12/31/18:00:15.588,(-15 -7 -7 22 11 28 0 -27)
1969/12/31/18:00:15.588,(-14 -42 -44 -30 -21 -12 -12 2)
1969/12/31/18:00:15.589,(-13 49 78 24 4 -8 0 -5)
1969/12/31/18:00:15.589,(21 -43 -43 -14 -9 -8 -6 13)
1969/12/31/18:00:15.599,(-23 -64 -42 -1 42 -18 -22 -31)
1969/12/31/18:00:15.599,(50 103 104 9 -62 2 3 29)
1969/12/31/18:00:15.606,(82 -32 -48 -37 -33 17 0 18)
1969/12/31/18:00:15.606,(5 -5 -20 11 5 -8 -20 -44)
1969/12/31/18:00:15.617,(-41 32 28 17 35 2 -9 -17)
1969/12/31/18:00:15.617,(45 -84 -35 -13 -8 1 27 70)
1969/12/31/18:00:15.619,(-67 -37 -84 -30 -13 -39 -26 -39)
1969/12/31/18:00:15.619,(-33 77 60 32 21 25 2 -24)
1969/12/31/18:00:15.636,(-20 -94 -59 -18 -21 -15 -5 -15)
1969/12/31/18:00:15.636,(43 52 20 7 7 -7 12 25)
1969/12/31/18:00:15.636,(-53 -45 -13 5 7 -2 11 16)
1969/12/31/18:00:15.636,(-5 -20 -17 -8 -1 10 -2 -2)
1969/12/31/18:00:15.646,(-28 -44 -32 -30 -34 -8 -2 -20)
1969/12/31/18:00:15.646,(11 50 14 5 8 7 -1 6)
1969/12/31/18:00:15.653,(-11 -75 -51 -12 3 -9 -19 -42)
1969/12/31/18:00:15.653,(36 58 30 11 23 29 11 19)
1969/12/31/18:00:15.676,(21 38 41 3 -12 18 -3 -10)
1969/12/31/18:00:15.676,(-17 -44 -26 8 7 -3 23 50)
1969/12/31/18:00:15.678,(-7 -5 -34 14 13 -24 -24 -40)
1969/12/31/18:00:15.678,(30 23 27 -7 12 13 24 44)
1969/12/31/18:00:15.682,(-8 43 18 -22 -28 26 -14 -14)
1969/12/31/18:00:15.683,(-28 -49 -35 -3 1 -3 8 -18)
1969/12/31/18:00:15.683,(24 -19 26 26 24 28 13 37)
1969/12/31/18:00:15.683,(-10 -11 -38 -35 -20 -30 -19 -18)
1969/12/31/18:00:15.693,(-13 34 7 11 20 -13 -8 14)
1969/12/31/18:00:15.693,(36 80 92 22 0 -3 -20 -17)
1969/12/31/18:00:15.700,(4 -24 7 -1 -22 -23 14 11)
1969/12/31/18:00:15.700,(-17 -58 -40 -9 -4 -4 -11 -13)
1969/12/31/18:00:15.712,(-20 -7 -37 -9 -3 -11 6 -15)
1969/12/31/18:00:15.712,(1 -48 -33 -6 23 17 -4 -15)
1969/12/31/18:00:15.712,(11 31 35 10 -7 -3 -1 13)
1969/12/31/18:00:15.713,(-12 37 37 4 0 17 11 12)
1969/12/31/18:00:15.729,(-12 -76 -66 -25 -18 -29 -9 -32)
1969/12/31/18:00:15.729,(42 81 73 18 0 7 18 69)
1969/12/31/18:00:15.730,(6 52 27 8 10 3 1 2)
1969/12/31/18:00:15.730,(-46 -72 -44 -10 19 32 -1 -23)
1969/12/31/18:00:15.740,(31 -2 15 8 -23 -31 -7 -1)
1969/12/31/18:00:15.740,(-22 -34 -56 -22 -11 -18 -5 -13)
1969/12/31/18:00:15.747,(-17 -88 -1 7 21 19 9 18)
1969/12/31/18:00:15.747,(38 94 40 10 -36 -27 -2 22)
1969/12/31/18:00:15.759,(-35 -43 -7 8 7 -2 14 -21)
1969/12/31/18:00:15.759,(-2 -46 -45 -7 23 21 -17 -17)
1969/12/31/18:00:15.760,(-10 -46 -69 -54 -52 -29 -17 -8)
1969/12/31/18:00:15.760,(-5 16 29 19 24 31 23 7)
1969/12/31/18:00:15.776,(40 -8 11 15 15 6 7 30)
1969/12/31/18:00:15.776,(-7 15 -15 -17 -20 -15 11 5)
1969/12/31/18:00:15.778,(-20 -30 -21 0 11 -3 -35 -89)
1969/12/31/18:00:15.778,(17 -2 -8 -4 1 -3 -16 -4)
1969/12/31/18:00:15.787,(30 28 12 7 1 0 12 21)
1969/12/31/18:00:15.787,(0 32 13 2 -21 -18 -18 -16)
1969/12/31/18:00:15.794,(-12 29 29 13 20 -8 -9 -4)
1969/12/31/18:00:15.794,(-3 -2 -27 -16 -36 -23 -7 44)
1969/12/31/18:00:15.806,(21 70 75 21 -2 7 16 41)
1969/12/31/18:00:15.806,(-30 -103 -67 -5 16 10 2 -30)
1969/12/31/18:00:15.807,(43 -16 -46 -20 -21 14 7 51)
1969/12/31/18:00:15.807,(22 54 66 19 27 8 2 -8)
1969/12/31/18:00:15.824,(-35 -19 -13 -11 -18 -15 -3 3)
1969/12/31/18:00:15.824,(-23 -23 -37 -4 -9 -3 0 -5)
1969/12/31/18:00:15.825,(41 100 100 39 46 56 30 36)
1969/12/31/18:00:15.825,(-3 -126 -60 -8 -13 -9 0 7)
1969/12/31/18:00:15.834,(3 12 -12 9 19 0 -12 -54)
1969/12/31/18:00:15.834,(2 18 31 -12 -36 -15 -1 -9)
1969/12/31/18:00:15.841,(-16 -36 -27 -10 -11 -21 -8 -12)
1969/12/31/18:00:15.841,(6 -47 -69 -24 -8 -15 -3 39)
1969/12/31/18:00:15.853,(13 54 79 14 -14 5 5 28)
1969/12/31/18:00:15.853,(-58 -128 -123 -33 1 -3 -6 -19)
1969/12/31/18:00:15.854,(1 95 55 19 15 15 -4 -14)
1969/12/31/18:00:15.854,(15 50 35 -2 -20 -21 -3 -20)
1969/12/31/18:00:15.870,(-24 -75 -36 1 -8 -23 0 1)
1969/12/31/18:00:15.870,(1 -18 -22 -2 35 14 -22 -18)
1969/12/31/18:00:15.872,(9 65 54 18 12 41 25 23)
1969/12/31/18:00:15.872,(-55 -66 -18 -8 -38 -29 -9 -32)
1969/12/31/18:00:15.881,(-11 -59 -78 -31 -14 2 -7 -26)
1969/12/31/18:00:15.881,(64 98 107 44 23 -8 1 14)
1969/12/31/18:00:15.888,(21 -35 -35 -28 -35 -23 4 21)
1969/12/31/18:00:15.888,(-7 -15 -33 -10 7 6 11 9)
1969/12/31/18:00:15.899,(20 75 84 33 14 19 7 12)
1969/12/31/18:00:15.899,(10 -31 -7 0 -6 -10 0 3)
1969/12/31/18:00:15.911,(1 -71 -119 -33 -9 -15 2 50)
1969/12/31/18:00:15.911,(23 55 103 44 22 10 -11 -50)
1969/12/31/18:00:15.917,(16 -21 -76 -28 -15 -9 -14 -8)
1969/12/31/18:00:15.917,(-22 70 63 17 10 17 12 -23)
1969/12/31/18:00:15.919,(-17 -63 -29 6 15 3 8 0)
1969/12/31/18:00:15.919,(-23 -64 -59 -20 -23 -22 -16 -24)
1969/12/31/18:00:15.928,(13 2 -10 -6 -2 -7 -2 8)
1969/12/31/18:00:15.928,(-18 -39 -15 -13 -9 30 30 38)
1969/12/31/18:00:15.935,(-13 -24 -34 -21 -8 -20 -26 -60)
1969/12/31/18:00:15.935,(-4 -34 -33 1 27 22 6 0)
1969/12/31/18:00:15.946,(-46 104 100 20 -10 -5 -15 -28)
1969/12/31/18:00:15.946,(-18 4 -36 -9 -21 -37 -12 9)
1969/12/31/18:00:15.958,(-8 -15 30 25 20 21 17 1)
1969/12/31/18:00:15.958,(23 -4 -22 -11 4 7 -13 3)
1969/12/31/18:00:15.964,(-28 -121 -89 -37 -7 -1 -4 -5)
1969/12/31/18:00:15.964,(4 75 44 18 6 -13 -10 -15)
1969/12/31/18:00:15.966,(-27 -3 19 9 -7 -16 -4 -5)
1969/12/31/18:00:15.966,(-56 -47 -66 -13 -9 -3 -6 -17)
1969/12/31/18:00:15.975,(31 50 15 -5 24 32 14 23)
1969/12/31/18:00:15.975,(0 -37 -8 -1 -6 -18 5 33)
1969/12/31/18:00:15.987,(12 -17 -12 -21 -21 5 -8 8)
1969/12/31/18:00:15.987,(3 74 85 28 27 12 13 -21)
1969/12/31/18:00:15.993,(-31 -69 -54 -29 -38 -9 -20 -10)
1969/12/31/18:00:15.993,(17 -20 -3 -3 0 10 23 5)
1969/12/31/18:00:15.999,(-4 -20 -19 -1 -4 -18 0 7)
1969/12/31/18:00:15.999,(7 72 70 24 20 12 -8 -5)
1969/12/31/18:00:16.011,(-25 14 33 -6 -9 -21 -3 -29)
1969/12/31/18:00:16.011,(36 -22 18 12 13 10 -13 9)
1969/12/31/18:00:16.013,(-56 -48 -31 -11 -14 -12 4 -25)
1969/12/31/18:00:16.013,(-9 -73 -61 -30 -16 6 5 29)
1969/12/31/18:00:16.029,(55 120 80 52 46 27 9 22)
1969/12/31/18:00:16.029,(-1 -17 -29 -7 1 -36 -37 -39)
1969/12/31/18:00:16.031,(-7 22 14 -9 -18 19 10 0)
1969/12/31/18:00:16.031,(-48 -44 -64 -23 -21 -28 -12 -23)
1969/12/31/18:00:16.040,(8 82 42 2 -5 -4 6 12)
1969/12/31/18:00:16.040,(-20 -11 -6 3 -1 13 -3 -11)
1969/12/31/18:00:16.046,(25 -29 -31 -5 8 -23 -10 1)
1969/12/31/18:00:16.046,(12 65 73 21 2 -2 -3 -8)
1969/12/31/18:00:16.058,(28 -90 -75 -3 7 -3 -5 36)
1969/12/31/18:00:16.058,(-24 51 29 -15 -28 14 -1 -32)
1969/12/31/18:00:16.060,(16 3 10 -3 -4 -21 -16 2)
1969/12/31/18:00:16.060,(-8 -55 -68 -15 -9 -23 3 13)
1969/12/31/18:00:16.077,(48 58 60 26 11 1 -1 0)
1969/12/31/18:00:16.077,(-10 -61 -26 15 23 -6 -8 11)
1969/12/31/18:00:16.078,(-7 42 6 -22 -23 6 -10 -24)
1969/12/31/18:00:16.078,(64 36 23 14 9 -1 12 54)
1969/12/31/18:00:16.088,(-87 -93 -72 -31 -26 -3 -4 -48)
1969/12/31/18:00:16.088,(22 99 76 18 9 8 11 8)
1969/12/31/18:00:16.093,(-15 -92 -43 1 12 -1 -5 -5)
1969/12/31/18:00:16.093,(11 39 -2 -6 -5 8 8 21)
