time,.data
1969/12/31/18:00:03.691,(0 0 1 -1 -1 1 0 -1)
1969/12/31/18:00:03.691,(0 0 -1 -4 -2 -1 -2 -1)
1969/12/31/18:00:03.692,(0 0 -1 -2 -1 -2 -1 -2)
1969/12/31/18:00:03.692,(-2 0 -1 1 0 0 -1 -2)
1969/12/31/18:00:03.697,(-2 0 -2 -1 -2 -2 1 1)
1969/12/31/18:00:03.697,(-1 -2 -1 1 -1 -1 -1 -1)
1969/12/31/18:00:03.697,(0 0 -2 -2 -1 -2 -1 -1)
1969/12/31/18:00:03.698,(0 -1 -2 -2 -1 1 -1 -3)
1969/12/31/18:00:03.711,(0 -2 -2 -2 -2 -2 -1 1)
1969/12/31/18:00:03.711,(-1 -3 -2 -3 -1 -1 -1 -2)
1969/12/31/18:00:03.712,(-1 0 -4 -2 -1 -2 -1 0)
1969/12/31/18:00:03.712,(0 0 0 -3 -3 3 -1 -1)
1969/12/31/18:00:03.726,(-1 -3 -1 -1 -1 -5 -1 -1)
1969/12/31/18:00:03.726,(-2 -1 -3 -2 -1 -2 -2 0)
1969/12/31/18:00:03.728,(-1 -1 -3 -4 -6 -2 -1 -3)
1969/12/31/18:00:03.728,(-2 -1 -1 2 4 -5 6 0)
1969/12/31/18:00:03.740,(-2 0 -7 -18 -18 2 -11 -1)
1969/12/31/18:00:03.740,(-2 -1 3 20 28 26 12 -1)
1969/12/31/18:00:03.772,(0 2 1 3 -4 -9 -8 -4)
1969/12/31/18:00:03.772,(-1 -5 -5 -4 2 0 3 -2)
1969/12/31/18:00:03.772,(2 2 7 4 -4 -4 5 3)
1969/12/31/18:00:03.772,(-1 -1 -4 -20 -12 -13 -4 0)
1969/12/31/18:00:03.774,(-5 -4 -1 6 4 2 5 -5)
1969/12/31/18:00:03.774,(-1 -2 -4 3 0 6 -1 1)
1969/12/31/18:00:03.794,(1 -2 -8 -11 -4 -31 -12 1)
1969/12/31/18:00:03.794,(-1 -1 -3 -6 -13 11 -9 -3)
1969/12/31/18:00:03.796,(2 1 -2 5 6 0 18 7)
1969/12/31/18:00:03.796,(2 4 10 -5 -13 -7 -5 -1)
1969/12/31/18:00:03.832,(-4 -7 -1 9 11 29 19 1)
1969/12/31/18:00:03.832,(-5 -5 -9 -18 -11 -49 -35 -7)
1969/12/31/18:00:03.834,(3 6 8 10 3 7 -2 5)
1969/12/31/18:00:03.834,(3 3 -1 19 27 -23 -35 -6)
1969/12/31/18:00:03.835,(-4 -3 -3 -19 -22 -13 -5 -4)
1969/12/31/18:00:03.835,(0 0 0 25 15 15 7 6)
1969/12/31/18:00:03.848,(-2 -3 2 4 -2 -16 -12 1)
1969/12/31/18:00:03.848,(-2 -6 -13 -22 -13 19 14 2)
1969/12/31/18:00:03.849,(0 1 -23 -32 -4 6 -1 -7)
1969/12/31/18:00:03.849,(5 7 30 21 6 41 29 11)
1969/12/31/18:00:03.852,(-1 3 11 23 10 1 -6 -2)
1969/12/31/18:00:03.852,(3 4 5 6 -4 -4 -4 1)
1969/12/31/18:00:03.860,(-7 -16 -39 -39 -10 -15 12 0)
1969/12/31/18:00:03.860,(-2 1 -11 -14 -14 -12 -9 -7)
1969/12/31/18:00:03.875,(4 4 23 20 6 8 4 3)
1969/12/31/18:00:03.875,(-2 2 -4 -4 -4 -4 8 1)
1969/12/31/18:00:03.884,(0 0 27 34 15 7 -7 4)
1969/12/31/18:00:03.884,(-2 -14 -31 -36 -10 -11 -3 -8)
1969/12/31/18:00:03.885,(-7 -1 -13 -8 -2 4 0 3)
1969/12/31/18:00:03.885,(3 4 31 15 0 1 -2 -4)
1969/12/31/18:00:03.913,(-2 0 -4 3 3 4 -3 -5)
1969/12/31/18:00:03.914,(1 1 15 14 4 4 12 19)
1969/12/31/18:00:03.915,(-2 -9 -22 -27 -11 -6 -9 -11)
1969/12/31/18:00:03.915,(-3 -8 -16 -21 -9 2 3 -3)
1969/12/31/18:00:03.920,(0 6 20 30 10 6 -2 -2)
1969/12/31/18:00:03.920,(-2 -5 -2 -11 -2 -3 3 2)
1969/12/31/18:00:03.927,(3 8 26 12 -2 5 5 6)
1969/12/31/18:00:03.927,(2 4 -3 9 5 1 3 2)
1969/12/31/18:00:03.959,(7 5 2 4 4 3 2 10)
1969/12/31/18:00:03.959,(-3 1 -6 15 -2 -8 -11 -15)
1969/12/31/18:00:03.961,(-5 -10 -9 -23 -5 2 0 -4)
1969/12/31/18:00:03.961,(-2 -4 -8 -6 -5 -2 -2 5)
1969/12/31/18:00:03.966,(-1 -4 -8 1 -2 -5 -7 -6)
1969/12/31/18:00:03.966,(1 -4 -10 -15 -7 -4 -3 -4)
1969/12/31/18:00:03.967,(3 21 13 -5 0 -1 -3 -6)
1969/12/31/18:00:03.967,(-3 -10 -15 -6 -3 -4 0 4)
1969/12/31/18:00:03.996,(-4 5 6 3 5 0 -1 -5)
1969/12/31/18:00:03.996,(-2 -15 -3 4 4 0 4 8)
1969/12/31/18:00:03.997,(-1 1 -5 -4 -3 -3 -8 -10)
1969/12/31/18:00:03.997,(-2 0 -2 -1 1 1 -2 -10)
1969/12/31/18:00:04.004,(-1 3 18 6 -1 -1 -3 -7)
1969/12/31/18:00:04.004,(-2 5 10 10 2 0 -5 -7)
1969/12/31/18:00:04.005,(-2 -8 -2 2 -2 1 2 3)
1969/12/31/18:00:04.005,(0 3 2 -3 -2 0 -2 -3)
1969/12/31/18:00:04.026,(1 -5 -4 1 1 1 1 4)
1969/12/31/18:00:04.026,(-1 1 -2 -3 -2 -2 3 4)
1969/12/31/18:00:04.028,(-3 -4 -13 -10 -1 -2 -8 -10)
1969/12/31/18:00:04.028,(-3 -3 -1 -3 -3 -2 -4 -7)
1969/12/31/18:00:04.040,(-3 1 -2 3 0 -1 -3 -2)
1969/12/31/18:00:04.040,(-1 1 -1 0 1 -2 1 3)
1969/12/31/18:00:04.049,(1 -5 -6 -5 -2 -1 -2 -2)
1969/12/31/18:00:04.049,(-1 1 0 -1 -1 -2 -3 -6)
1969/12/31/18:00:04.071,(1 0 1 2 0 -2 -6 -6)
1969/12/31/18:00:04.071,(-1 0 0 -3 0 0 5 1)
1969/12/31/18:00:04.072,(-1 -16 -11 -4 -3 0 0 4)
1969/12/31/18:00:04.073,(-1 -4 -4 -2 -3 -3 3 1)
1969/12/31/18:00:04.103,(-1 13 8 0 1 -1 -3 1)
1969/12/31/18:00:04.103,(-1 12 10 4 0 -2 -2 -3)
1969/12/31/18:00:04.104,(-1 -4 -12 -5 -2 -1 0 7)
1969/12/31/18:00:04.104,(-3 -6 4 7 3 1 -4 -13)
1969/12/31/18:00:04.105,(0 -8 -8 -4 -1 2 5 1)
1969/12/31/18:00:04.105,(-7 -8 -4 -1 -1 -3 -1 -2)
1969/12/31/18:00:04.108,(1 -18 -16 -7 -1 -2 3 -1)
1969/12/31/18:00:04.109,(-6 3 -16 -9 -3 -2 -1 6)
1969/12/31/18:00:04.123,(-9 16 19 9 2 0 -1 -5)
1969/12/31/18:00:04.123,(7 -10 -10 -2 -2 -1 -2 -1)
1969/12/31/18:00:04.125,(-3 1 7 0 2 -7 -11 -7)
1969/12/31/18:00:04.125,(-3 -9 -11 -1 0 1 5 9)
1969/12/31/18:00:04.146,(-3 -13 -7 -1 0 -2 1 3)
1969/12/31/18:00:04.146,(-5 7 -2 -2 -2 1 8 5)
1969/12/31/18:00:04.148,(4 5 2 2 0 0 -5 -2)
1969/12/31/18:00:04.148,(2 3 4 -2 0 -2 -1 0)
1969/12/31/18:00:04.160,(3 8 -2 -3 -1 -3 -3 9)
1969/12/31/18:00:04.160,(-9 0 -3 -1 0 -4 -12 -22)
1969/12/31/18:00:04.169,(6 0 -6 -3 0 3 14 9)
1969/12/31/18:00:04.169,(4 8 13 5 3 -4 -8 8)
1969/12/31/18:00:04.184,(5 -10 -10 -5 -2 3 22 39)
1969/12/31/18:00:04.184,(14 8 5 3 3 -6 -28 -26)
1969/12/31/18:00:04.185,(6 19 11 6 5 3 -7 -25)
1969/12/31/18:00:04.185,(-42 -28 -10 -8 -10 -8 -2 -1)
1969/12/31/18:00:04.206,(26 12 6 5 5 9 15 24)
1969/12/31/18:00:04.206,(10 9 4 2 -2 -2 0 -5)
1969/12/31/18:00:04.207,(-30 -14 -6 -5 -5 -7 -7 -3)
1969/12/31/18:00:04.207,(-8 -3 -6 -3 -1 0 10 4)
1969/12/31/18:00:04.236,(-40 -21 -10 -5 -5 -13 -29 -53)
1969/12/31/18:00:04.236,(23 10 2 -7 -4 2 14 24)
1969/12/31/18:00:04.238,(16 10 13 5 1 4 3 -7)
1969/12/31/18:00:04.238,(-27 -26 -7 -7 -7 13 -15 -11)
1969/12/31/18:00:04.244,(-7 -2 1 -4 -17 -49 -3 -21)
1969/12/31/18:00:04.244,(10 -11 8 8 14 43 -10 3)
1969/12/31/18:00:04.245,(33 6 -4 0 -7 -12 -6 -1)
1969/12/31/18:00:04.245,(13 22 12 5 4 4 -2 -3)
1969/12/31/18:00:04.266,(-25 -1 1 2 4 34 18 -7)
1969/12/31/18:00:04.266,(-39 -32 -22 -15 -17 -48 -29 -14)
1969/12/31/18:00:04.268,(29 16 11 4 6 22 26 17)
1969/12/31/18:00:04.268,(13 11 11 9 4 -9 -4 -4)
1969/12/31/18:00:04.280,(-12 -24 -17 -7 -1 6 -5 23)
1969/12/31/18:00:04.280,(8 5 1 0 -2 -5 15 17)
1969/12/31/18:00:04.289,(-25 6 10 8 10 26 36 45)
1969/12/31/18:00:04.289,(-25 -27 -19 -14 -13 -31 -36 -66)
1969/12/31/18:00:04.304,(78 11 4 3 6 42 28 59)
1969/12/31/18:00:04.304,(23 34 12 5 2 -28 34 45)
1969/12/31/18:00:04.305,(-71 -35 -21 -18 -16 -1 -56 -64)
1969/12/31/18:00:04.305,(0 -9 4 2 1 -10 38 65)
1969/12/31/18:00:04.326,(-39 -4 0 2 1 -18 -46 -90)
1969/12/31/18:00:04.326,(27 13 6 2 2 12 10 -20)
1969/12/31/18:00:04.327,(4 2 5 6 5 0 4 -19)
1969/12/31/18:00:04.327,(-13 -3 -11 -11 -6 1 -11 -32)
1969/12/31/18:00:04.350,(17 -5 -2 -5 -3 -10 -15 -27)
1969/12/31/18:00:04.350,(13 26 17 13 12 29 16 11)
1969/12/31/18:00:04.351,(12 0 -11 -8 -4 -17 23 27)
1969/12/31/18:00:04.351,(14 14 7 4 2 10 -38 -13)
1969/12/31/18:00:04.378,(-6 4 -7 -4 1 -1 -29 -35)
1969/12/31/18:00:04.379,(-23 -23 -11 -10 -13 -28 35 32)
1969/12/31/18:00:04.387,(-10 -9 -3 -3 10 81 59 55)
1969/12/31/18:00:04.387,(35 17 2 -1 -4 -33 18 4)
1969/12/31/18:00:04.387,(-6 -12 7 5 3 -11 -37 -11)
1969/12/31/18:00:04.387,(-7 -7 -19 -15 -11 -12 -6 24)
1969/12/31/18:00:04.389,(-16 -27 -4 0 -5 -34 -26 -7)
1969/12/31/18:00:04.389,(70 39 19 13 12 34 36 75)
1969/12/31/18:00:04.392,(-22 3 -4 0 5 38 11 -36)
1969/12/31/18:00:04.392,(18 -7 2 4 0 -23 -14 15)
1969/12/31/18:00:04.401,(29 23 3 -1 -5 -20 -21 4)
1969/12/31/18:00:04.401,(-33 -24 -3 -2 3 5 8 -14)
1969/12/31/18:00:04.415,(30 19 6 5 -2 -36 -1 24)
1969/12/31/18:00:04.415,(-16 -8 0 3 13 52 22 18)
1969/12/31/18:00:04.424,(-14 -7 -8 -8 -9 -18 -41 -51)
1969/12/31/18:00:04.424,(30 16 9 9 9 28 20 60)
1969/12/31/18:00:04.438,(-61 -35 -22 -21 -20 -39 27 1)
1969/12/31/18:00:04.438,(19 29 20 14 10 2 -31 -88)
1969/12/31/18:00:04.445,(-44 -13 -13 -11 -5 36 1 -54)
1969/12/31/18:00:04.445,(46 37 12 10 6 -26 10 33)
1969/12/31/18:00:04.452,(9 3 3 2 -2 -10 20 -1)
1969/12/31/18:00:04.452,(-67 -45 -22 -18 -15 14 -46 -64)
1969/12/31/18:00:04.461,(23 -4 4 1 -2 -25 3 47)
1969/12/31/18:00:04.461,(-2 -1 -7 -8 -6 -10 -12 -29)
1969/12/31/18:00:04.475,(5 17 5 2 3 6 -22 -33)
1969/12/31/18:00:04.475,(5 7 3 4 8 18 8 20)
1969/12/31/18:00:04.516,(1 0 8 12 7 -9 0 29)
1969/12/31/18:00:04.516,(-80 -45 -22 -17 -15 8 13 -23)
1969/12/31/18:00:04.516,(6 -14 -1 2 -1 -22 10 56)
1969/12/31/18:00:04.516,(30 20 -3 -3 3 24 25 31)
1969/12/31/18:00:04.522,(65 41 14 5 5 -8 12 33)
1969/12/31/18:00:04.522,(-12 -27 -10 -5 -3 3 -20 -55)
1969/12/31/18:00:04.522,(-13 -3 0 -1 -3 -3 10 38)
1969/12/31/18:00:04.522,(-7 -5 0 -4 -8 -10 -36 -21)
1969/12/31/18:00:04.524,(-50 -16 -7 -7 -9 -13 -50 -48)
1969/12/31/18:00:04.524,(19 10 4 3 0 1 5 39)
1969/12/31/18:00:04.534,(38 29 11 5 1 -7 7 12)
1969/12/31/18:00:04.534,(-38 -52 -18 -10 -10 -7 -11 -3)
1969/12/31/18:00:04.544,(-3 6 2 2 2 -7 19 -31)
1969/12/31/18:00:04.544,(6 3 0 1 -1 0 2 20)
1969/12/31/18:00:04.558,(15 4 -1 -3 -4 -8 -20 1)
1969/12/31/18:00:04.558,(-51 -21 -2 0 0 4 21 -21)
1969/12/31/18:00:04.565,(58 34 1 -1 -2 -9 -2 8)
1969/12/31/18:00:04.565,(-12 1 2 1 3 -1 -7 -14)
1969/12/31/18:00:04.581,(21 1 4 6 8 16 0 48)
1969/12/31/18:00:04.581,(91 31 8 5 2 -4 30 65)
1969/12/31/18:00:04.582,(-93 -38 -9 -3 1 3 18 -5)
1969/12/31/18:00:04.582,(29 13 6 2 6 20 2 -14)
1969/12/31/18:00:04.594,(11 12 0 1 5 7 -3 36)
1969/12/31/18:00:04.594,(-26 -8 -3 -4 -8 -23 -20 -53)
1969/12/31/18:00:04.611,(6 9 6 4 3 2 9 3)
1969/12/31/18:00:04.611,(-60 -28 -20 -12 -12 -50 -31 -57)
1969/12/31/18:00:04.618,(-27 -10 9 6 2 10 0 -26)
1969/12/31/18:00:04.618,(-22 5 2 4 4 -3 0 33)
1969/12/31/18:00:04.625,(23 9 -1 -2 -3 -21 -19 -12)
1969/12/31/18:00:04.625,(-38 -14 -4 -3 2 32 -3 -69)
1969/12/31/18:00:04.665,(-24 -20 -14 -11 -8 -3 -2 -8)
1969/12/31/18:00:04.665,(-6 -4 -6 -8 -9 -23 -66 -72)
1969/12/31/18:00:04.667,(27 13 11 9 9 17 26 59)
1969/12/31/18:00:04.667,(40 17 7 6 14 43 16 41)
1969/12/31/18:00:04.667,(-21 -4 -7 -5 -5 -11 3 -87)
1969/12/31/18:00:04.667,(-49 -10 -4 -3 -10 -16 -6 -37)
1969/12/31/18:00:04.671,(27 -1 -7 -1 13 30 16 8)
1969/12/31/18:00:04.671,(21 14 12 2 -28 -34 -16 34)
1969/12/31/18:00:04.678,(-12 -10 -11 -14 -21 -8 -9 -30)
1969/12/31/18:00:04.678,(17 11 4 4 -1 -2 20 49)
1969/12/31/18:00:04.684,(-16 -27 -9 -6 8 78 -30 -29)
1969/12/31/18:00:04.684,(16 28 16 14 18 -47 30 14)
1969/12/31/18:00:04.701,(8 6 2 3 0 -13 -7 21)
1969/12/31/18:00:04.701,(-5 -13 -3 -1 6 -1 -7 2)
1969/12/31/18:00:04.702,(17 6 1 3 9 -1 7 26)
1969/12/31/18:00:04.702,(-12 -17 -8 -2 7 31 31 80)
1969/12/31/18:00:04.724,(22 6 2 11 14 6 -15 8)
1969/12/31/18:00:04.724,(-34 -1 4 30 76 32 8 -28)
1969/12/31/18:00:04.725,(-26 -13 -12 -40 -110 -92 43 83)
1969/12/31/18:00:04.725,(25 -1 -14 -40 -34 -6 -52 -32)
1969/12/31/18:00:04.739,(-4 -10 -8 -20 -15 -9 17 26)
1969/12/31/18:00:04.739,(39 23 14 14 41 29 30 75)
1969/12/31/18:00:04.745,(44 8 7 33 61 16 0 44)
1969/12/31/18:00:04.745,(-44 -15 -1 14 6 0 -7 -24)
1969/12/31/18:00:04.761,(11 1 -3 -18 -39 1 6 57)
1969/12/31/18:00:04.761,(0 -8 -7 -9 -10 22 15 36)
1969/12/31/18:00:04.762,(-23 -6 3 6 -3 -38 -18 -52)
1969/12/31/18:00:04.762,(11 0 -4 -2 12 -9 -6 -8)
1969/12/31/18:00:04.791,(5 5 -1 14 34 29 -1 -25)
1969/12/31/18:00:04.791,(8 -9 -6 -15 -57 -37 6 14)
1969/12/31/18:00:04.793,(-17 -12 -7 -14 -10 7 -14 -28)
1969/12/31/18:00:04.793,(-13 -5 -2 10 27 19 12 -5)
1969/12/31/18:00:04.797,(-18 -7 2 17 29 15 15 0)
1969/12/31/18:00:04.798,(10 15 2 -5 -32 -29 -11 -26)
1969/12/31/18:00:04.804,(21 10 4 19 40 29 24 67)
1969/12/31/18:00:04.804,(21 15 9 -3 -16 4 11 50)
1969/12/31/18:00:04.829,(-13 -5 -7 -32 -38 15 1 0)
1969/12/31/18:00:04.829,(0 -3 1 -4 -5 -17 22 18)
1969/12/31/18:00:04.830,(-10 -31 -36 -17 -10 -52 -91 -104)
1969/12/31/18:00:04.830,(-11 -7 12 33 91 43 10 -32)
1969/12/31/18:00:04.834,(32 38 6 19 -19 -25 -7 4)
1969/12/31/18:00:04.834,(-12 -51 -14 -26 -3 42 8 20)
1969/12/31/18:00:04.844,(9 51 31 10 -10 -26 23 52)
1969/12/31/18:00:04.844,(7 -18 -8 -4 -14 5 -22 -33)
1969/12/31/18:00:04.858,(-13 -15 -50 -30 -42 -35 11 -28)
1969/12/31/18:00:04.858,(-5 67 95 52 43 27 -39 -60)
1969/12/31/18:00:04.864,(-52 -24 -36 -7 37 33 0 -57)
1969/12/31/18:00:04.864,(44 2 -24 5 12 4 9 8)
1969/12/31/18:00:04.881,(-32 -6 39 2 10 -11 16 80)
1969/12/31/18:00:04.881,(-32 -12 -65 -49 -123 -86 -60 -101)
1969/12/31/18:00:04.882,(-4 -3 22 -7 -13 -4 7 12)
1969/12/31/18:00:04.882,(7 18 25 29 35 22 -7 -33)
1969/12/31/18:00:04.895,(12 -51 -73 -17 31 19 16 -11)
1969/12/31/18:00:04.895,(3 -49 -9 11 83 31 29 27)
1969/12/31/18:00:04.904,(-28 23 52 5 -83 -28 -14 -42)
1969/12/31/18:00:04.904,(73 -79 -117 -55 -44 -7 51 101)
1969/12/31/18:00:04.942,(-66 61 94 28 -12 -18 -58 -43)
1969/12/31/18:00:04.942,(-10 38 35 34 48 32 42 16)
1969/12/31/18:00:04.944,(62 -26 -86 -1 54 66 -9 13)
1969/12/31/18:00:04.944,(-34 21 45 0 -60 -76 -7 -43)
1969/12/31/18:00:04.945,(-38 -111 -97 -59 -39 -17 -19 -66)
1969/12/31/18:00:04.945,(36 78 47 9 -6 -6 -1 57)
1969/12/31/18:00:04.949,(2 -59 -33 -3 26 -1 4 37)
1969/12/31/18:00:04.949,(5 -57 -58 -6 76 73 14 -32)
1969/12/31/18:00:04.955,(33 64 62 43 -57 -22 17 -6)
1969/12/31/18:00:04.955,(-52 68 73 -15 -53 -36 -62 -66)
1969/12/31/18:00:04.963,(-55 -58 -21 -14 -20 -6 -9 -81)
1969/12/31/18:00:04.963,(-44 -34 -33 -19 0 -31 -61 -50)
1969/12/31/18:00:04.978,(34 -117 -93 -3 63 44 31 90)
1969/12/31/18:00:04.978,(28 -27 -63 -14 35 47 50 1)
1969/12/31/18:00:04.985,(-35 127 114 10 -90 -112 -60 -88)
1969/12/31/18:00:04.985,(-32 -27 -2 -3 -11 14 24 64)
1969/12/31/18:00:05.001,(20 70 79 46 123 101 41 -34)
1969/12/31/18:00:05.001,(25 61 31 1 -116 -74 -21 58)
1969/12/31/18:00:05.002,(52 -96 -94 -23 47 47 4 2)
1969/12/31/18:00:05.002,(-41 -26 10 2 -28 -39 -4 -76)
1969/12/31/18:00:05.015,(26 -77 -49 0 10 8 28 80)
1969/12/31/18:00:05.015,(-17 32 -1 -10 15 34 9 -25)
1969/12/31/18:00:05.024,(20 38 29 4 35 22 21 -6)
1969/12/31/18:00:05.024,(-12 -2 -1 4 -6 13 -25 14)
1969/12/31/18:00:05.070,(40 47 45 16 -26 -22 -10 15)
1969/12/31/18:00:05.070,(-66 -125 -86 -37 -27 -52 -37 -110)
1969/12/31/18:00:05.071,(-15 -68 -33 -24 -12 11 31 48)
1969/12/31/18:00:05.071,(0 47 -19 -4 25 18 16 22)
1969/12/31/18:00:05.072,(-31 60 53 19 31 -22 -41 -36)
1969/12/31/18:00:05.072,(26 97 76 19 -71 -39 -2 30)
1969/12/31/18:00:05.077,(-7 10 -1 -17 -38 -9 -1 -7)
1969/12/31/18:00:05.077,(62 -73 -43 0 15 16 5 57)
1969/12/31/18:00:05.077,(-47 14 -48 -11 8 -2 -2 -49)
1969/12/31/18:00:05.077,(2 54 62 51 57 -1 2 -9)
1969/12/31/18:00:05.084,(21 -78 -62 -8 -9 13 -14 42)
1969/12/31/18:00:05.084,(-55 26 43 -13 -66 -31 -26 -95)
1969/12/31/18:00:05.098,(27 -58 -41 -27 -17 -17 -1 15)
1969/12/31/18:00:05.098,(29 -75 -63 -25 32 27 7 22)
1969/12/31/18:00:05.105,(8 41 29 37 65 30 19 25)
1969/12/31/18:00:05.105,(-15 -26 0 4 0 -13 0 -3)
1969/12/31/18:00:05.121,(-15 39 26 -8 -74 -30 -27 -26)
1969/12/31/18:00:05.121,(10 -72 -77 -30 -1 -4 1 -33)
1969/12/31/18:00:05.122,(-14 19 23 -1 2 -4 -7 -34)
1969/12/31/18:00:05.123,(12 127 84 18 -8 -7 -2 58)
1969/12/31/18:00:05.135,(-21 0 -2 2 18 3 -12 -73)
1969/12/31/18:00:05.135,(3 -57 -30 -1 -15 -7 5 28)
1969/12/31/18:00:05.144,(8 -58 -39 -12 19 -3 -17 46)
1969/12/31/18:00:05.144,(22 -81 -81 15 87 90 46 -2)
1969/12/31/18:00:05.158,(-5 111 111 5 -94 -83 -36 17)
1969/12/31/18:00:05.158,(47 24 3 8 20 15 52 54)
1969/12/31/18:00:05.164,(-13 -8 3 -6 -11 -8 -21 -26)
1969/12/31/18:00:05.164,(11 21 49 18 -2 -13 -21 0)
1969/12/31/18:00:05.181,(39 -128 -90 0 49 61 43 65)
1969/12/31/18:00:05.181,(-23 16 -27 -22 -16 -2 -27 -19)
1969/12/31/18:00:05.182,(3 89 71 45 34 23 37 -3)
1969/12/31/18:00:05.182,(-36 -73 -38 -11 -11 -12 -14 -37)
1969/12/31/18:00:05.220,(-15 -37 -24 -17 -41 -20 19 24)
1969/12/31/18:00:05.220,(30 23 0 -1 24 -3 12 45)
1969/12/31/18:00:05.221,(-24 13 12 4 -41 -33 -46 -75)
1969/12/31/18:00:05.221,(4 -29 -46 -36 -4 7 34 15)
1969/12/31/18:00:05.222,(-29 91 92 51 5 -24 -62 -33)
1969/12/31/18:00:05.222,(39 -69 -62 -7 4 9 -5 20)
1969/12/31/18:00:05.226,(-31 -62 -40 13 74 30 15 12)
1969/12/31/18:00:05.226,(4 22 -41 -34 -75 -39 -26 -52)
1969/12/31/18:00:05.248,(-6 -20 -61 -63 -60 -48 11 5)
1969/12/31/18:00:05.248,(2 127 79 29 41 26 -18 -24)
1969/12/31/18:00:05.250,(5 109 104 34 57 8 3 -7)
1969/12/31/18:00:05.250,(39 -97 -104 -8 46 38 3 50)
1969/12/31/18:00:05.262,(-34 78 82 -3 -59 -61 -77 -56)
1969/12/31/18:00:05.262,(-22 -31 -20 -22 -35 -29 -16 -31)
1969/12/31/18:00:05.271,(13 -57 -41 -22 -39 -8 35 29)
1969/12/31/18:00:05.271,(-6 14 36 28 64 24 -2 -8)
1969/12/31/18:00:05.286,(17 -70 -59 10 49 51 9 17)
1969/12/31/18:00:05.286,(-17 -128 -62 -12 22 0 -10 7)
1969/12/31/18:00:05.287,(-19 87 79 47 3 11 12 -18)
1969/12/31/18:00:05.287,(-5 -38 -6 1 -50 -37 -26 -13)
1969/12/31/18:00:05.308,(27 18 13 37 127 120 10 -8)
1969/12/31/18:00:05.308,(-67 -57 -69 -49 -76 -52 10 -4)
1969/12/31/18:00:05.310,(19 39 24 -8 -54 -57 19 25)
1969/12/31/18:00:05.310,(-12 57 56 1 -43 -4 6 -2)
1969/12/31/18:00:05.348,(39 -6 -71 -33 -7 -29 -6 19)
1969/12/31/18:00:05.348,(1 -3 11 11 2 55 4 1)
1969/12/31/18:00:05.349,(-5 -11 -26 -28 -24 -24 -11 -14)
1969/12/31/18:00:05.349,(-45 -1 29 4 -17 -21 3 0)
1969/12/31/18:00:05.350,(21 -80 -92 -36 1 7 32 6)
1969/12/31/18:00:05.350,(14 67 86 58 90 69 24 31)
1969/12/31/18:00:05.353,(13 25 -5 -2 -8 -12 -11 15)
1969/12/31/18:00:05.353,(11 -5 24 6 1 -5 -20 -16)
1969/12/31/18:00:05.368,(7 -21 -9 -1 7 16 40 25)
1969/12/31/18:00:05.368,(4 -38 -1 17 51 51 55 27)
1969/12/31/18:00:05.370,(25 12 12 -1 -74 -64 -72 -14)
1969/12/31/18:00:05.370,(-18 91 42 13 56 26 32 32)
1969/12/31/18:00:05.391,(-23 10 16 -6 -38 -12 27 12)
1969/12/31/18:00:05.391,(-4 -66 -31 -12 -54 -57 -31 -30)
1969/12/31/18:00:05.392,(-13 -128 -112 -42 40 66 34 22)
1969/12/31/18:00:05.392,(2 114 107 13 -72 -56 11 10)
1969/12/31/18:00:05.406,(33 52 32 27 89 60 -8 13)
1969/12/31/18:00:05.406,(21 -60 -54 -12 -67 -81 -15 14)
1969/12/31/18:00:05.407,(-53 -32 -9 -11 1 -7 -40 -22)
1969/12/31/18:00:05.407,(27 -13 -40 -3 -3 -10 -12 -4)
1969/12/31/18:00:05.430,(5 -79 -24 3 27 35 41 24)
1969/12/31/18:00:05.430,(11 97 80 42 66 57 10 40)
1969/12/31/18:00:05.432,(-30 21 -13 -21 -33 -16 29 -49)
1969/12/31/18:00:05.432,(-13 -18 -32 -22 -26 -4 -19 -32)
1969/12/31/18:00:05.443,(8 -73 -35 -10 -8 14 -8 10)
1969/12/31/18:00:05.443,(7 -42 -47 -4 27 17 -4 13)
1969/12/31/18:00:05.451,(29 81 90 46 8 -23 5 5)
1969/12/31/18:00:05.451,(6 30 24 -8 -5 21 -3 -14)
1969/12/31/18:00:05.497,(-17 -68 -44 -4 -6 -35 -54 -47)
1969/12/31/18:00:05.497,(37 -64 -59 -16 18 30 -22 66)
1969/12/31/18:00:05.499,(20 99 37 -10 -20 13 -9 9)
1969/12/31/18:00:05.499,(-34 2 -13 -1 33 0 3 1)
1969/12/31/18:00:05.500,(34 -63 -70 -41 -63 -74 -1 29)
1969/12/31/18:00:05.500,(-43 127 109 26 -69 -53 -1 -18)
1969/12/31/18:00:05.513,(7 -125 -110 -3 53 22 -85 -11)
1969/12/31/18:00:05.513,(15 -96 -86 -27 2 9 43 44)
1969/12/31/18:00:05.514,(-12 127 90 38 8 -5 -33 -14)
1969/12/31/18:00:05.514,(-20 -38 -48 -6 3 2 3 -75)
1969/12/31/18:00:05.526,(-3 -91 -42 -35 -52 -14 43 34)
1969/12/31/18:00:05.526,(-13 -44 44 31 15 0 -33 -32)
1969/12/31/18:00:05.526,(-19 -47 -21 3 52 29 8 25)
1969/12/31/18:00:05.526,(8 -102 -112 -51 -10 -6 36 7)
1969/12/31/18:00:05.532,(6 116 116 98 62 19 -7 28)
1969/12/31/18:00:05.532,(-6 -59 -112 -57 -93 -75 -11 -4)
1969/12/31/18:00:05.548,(11 -3 26 7 -32 -16 21 -2)
1969/12/31/18:00:05.548,(-17 -46 -46 -14 17 14 -40 -38)
1969/12/31/18:00:05.556,(5 -120 -47 11 89 90 65 37)
1969/12/31/18:00:05.556,(13 85 75 33 -43 -28 5 52)
1969/12/31/18:00:05.562,(12 127 127 29 18 25 -62 -82)
1969/12/31/18:00:05.562,(-32 -94 -42 -24 -67 -35 -1 -11)
1969/12/31/18:00:05.571,(22 -52 -105 -49 59 7 32 22)
1969/12/31/18:00:05.571,(-19 104 105 41 -2 6 -16 -29)
1969/12/31/18:00:05.585,(-38 -68 -75 -25 -39 5 20 -11)
1969/12/31/18:00:05.585,(5 107 87 21 29 9 -4 -13)
1969/12/31/18:00:05.623,(-21 -15 -37 -20 -42 -27 13 3)
1969/12/31/18:00:05.624,(0 -98 -69 -15 30 22 15 -9)
1969/12/31/18:00:05.640,(3 59 34 18 15 35 -9 36)
1969/12/31/18:00:05.640,(-26 73 60 8 24 -25 -7 -29)
1969/12/31/18:00:05.642,(10 -48 -35 -14 -59 -38 1 1)
1969/12/31/18:00:05.642,(-1 38 18 -2 -15 19 10 -9)
1969/12/31/18:00:05.642,(6 -102 -62 -6 8 -18 -14 -15)
1969/12/31/18:00:05.642,(7 85 56 15 31 39 26 10)
1969/12/31/18:00:05.648,(38 -3 1 -16 -54 -23 -40 18)
1969/12/31/18:00:05.648,(-20 53 14 8 16 -18 8 13)
1969/12/31/18:00:05.648,(-10 18 28 4 7 15 7 -33)
1969/12/31/18:00:05.648,(-15 39 54 22 47 12 -13 -4)
1969/12/31/18:00:05.652,(24 -36 -81 -62 -109 -46 -12 -3)
1969/12/31/18:00:05.652,(14 -9 9 11 81 48 -22 -13)
1969/12/31/18:00:05.668,(15 -29 -23 5 20 17 70 60)
1969/12/31/18:00:05.669,(17 -22 -17 4 -19 -49 -22 -4)
1969/12/31/18:00:05.670,(-6 43 30 16 -10 35 -8 -30)
1969/12/31/18:00:05.670,(6 -38 -19 -34 -23 -44 -11 9)
1969/12/31/18:00:05.691,(-54 9 -19 -13 2 17 -13 -67)
1969/12/31/18:00:05.691,(6 -58 -20 -10 -35 -19 -29 17)
1969/12/31/18:00:05.692,(-9 80 68 21 32 -7 -13 -23)
1969/12/31/18:00:05.693,(-13 -48 -32 -16 27 54 20 3)
1969/12/31/18:00:05.705,(-8 24 7 7 -10 -19 41 22)
1969/12/31/18:00:05.705,(54 -128 -120 -23 -58 -50 -45 9)
1969/12/31/18:00:05.712,(-29 61 60 54 66 44 16 4)
1969/12/31/18:00:05.712,(8 -23 -43 -42 -88 -86 -23 -18)
1969/12/31/18:00:05.728,(-50 -28 -3 -13 7 1 -33 -56)
1969/12/31/18:00:05.728,(-11 63 4 0 18 32 15 6)
1969/12/31/18:00:05.730,(-11 -66 -37 2 40 9 -26 -38)
1969/12/31/18:00:05.730,(17 4 12 9 7 2 44 17)
1969/12/31/18:00:05.775,(22 -96 -74 -35 -36 -23 -26 4)
1969/12/31/18:00:05.775,(-20 35 48 12 35 43 20 -12)
1969/12/31/18:00:05.777,(-20 -7 17 10 37 22 -13 -28)
1969/12/31/18:00:05.777,(17 52 7 27 13 14 13 1)
1969/12/31/18:00:05.778,(2 56 43 -24 -114 -108 -26 -14)
1969/12/31/18:00:05.778,(-14 -67 -49 -29 25 16 -25 21)
1969/12/31/18:00:05.781,(20 -53 -43 -8 58 28 61 16)
1969/12/31/18:00:05.781,(-49 -10 2 27 64 26 3 9)
1969/12/31/18:00:05.789,(-2 66 35 -7 -66 -20 -10 -12)
1969/12/31/18:00:05.789,(13 -32 -19 -15 -6 7 18 10)
1969/12/31/18:00:05.790,(-23 -1 22 -6 -15 -8 22 10)
1969/12/31/18:00:05.790,(53 -44 -47 7 -10 -25 -26 19)
1969/12/31/18:00:05.811,(23 58 47 30 49 35 39 63)
1969/12/31/18:00:05.811,(-44 -10 20 8 24 0 -72 -68)
1969/12/31/18:00:05.812,(-28 -18 -26 -25 -77 -43 -8 -13)
1969/12/31/18:00:05.812,(23 49 33 -6 -6 14 -21 -15)
1969/12/31/18:00:05.833,(16 -61 -42 7 25 6 5 48)
1969/12/31/18:00:05.833,(34 52 24 7 -15 1 30 13)
1969/12/31/18:00:05.835,(25 9 5 4 24 13 19 55)
1969/12/31/18:00:05.835,(34 -20 -8 -3 -30 -20 -31 32)
1969/12/31/18:00:05.849,(-20 -13 -4 -15 -7 -7 -3 -8)
1969/12/31/18:00:05.849,(17 -114 -85 -12 75 67 47 35)
1969/12/31/18:00:05.850,(12 94 21 26 7 -15 7 -2)
1969/12/31/18:00:05.850,(-20 106 114 -18 -88 -64 -42 -37)
1969/12/31/18:00:05.871,(16 -41 -25 6 68 45 18 -10)
1969/12/31/18:00:05.871,(-22 -6 11 14 5 -1 31 -4)
1969/12/31/18:00:05.872,(-3 -66 -44 -20 -21 -3 -9 14)
1969/12/31/18:00:05.872,(18 -36 -39 6 41 37 32 36)
1969/12/31/18:00:05.902,(-12 35 16 16 40 34 -8 -24)
1969/12/31/18:00:05.902,(1 80 62 -1 -55 -61 -8 7)
1969/12/31/18:00:05.903,(11 -13 -4 -4 -22 0 18 30)
1969/12/31/18:00:05.903,(7 -58 -47 -15 11 11 -18 -30)
1969/12/31/18:00:05.909,(-43 -4 9 -21 -22 -5 -4 -18)
1969/12/31/18:00:05.909,(-10 -8 -11 1 14 12 9 -16)
1969/12/31/18:00:05.910,(33 23 3 15 24 13 19 32)
1969/12/31/18:00:05.910,(-11 -80 -36 -23 -47 -42 -50 -21)
1969/12/31/18:00:05.931,(23 34 20 37 29 29 48 11)
1969/12/31/18:00:05.931,(-9 28 -5 7 66 60 -37 -44)
1969/12/31/18:00:05.933,(-20 56 37 -28 -109 -88 21 -9)
1969/12/31/18:00:05.933,(7 -14 5 -40 -33 10 4 2)
1969/12/31/18:00:05.944,(-18 -11 0 39 42 -8 -25 -15)
1969/12/31/18:00:05.945,(43 13 -19 -37 -45 -8 8 25)
1969/12/31/18:00:05.954,(17 -4 21 44 52 45 21 34)
1969/12/31/18:00:05.954,(4 35 14 50 67 18 6 -10)
1969/12/31/18:00:05.968,(13 -37 -21 -10 -35 -18 -17 18)
1969/12/31/18:00:05.968,(2 10 14 4 -24 -20 5 15)
1969/12/31/18:00:05.970,(1 8 0 -31 1 6 -40 -33)
1969/12/31/18:00:05.970,(22 13 8 28 6 11 40 49)
1969/12/31/18:00:05.991,(-3 12 5 22 24 -15 -25 -24)
1969/12/31/18:00:05.991,(-31 -10 -2 -7 -33 0 22 -5)
1969/12/31/18:00:05.992,(-28 -16 -19 -26 -11 -21 -50 -47)
1969/12/31/18:00:05.992,(-20 -91 -66 -30 7 0 -13 -25)
1969/12/31/18:00:06.005,(12 86 56 -27 -24 13 17 14)
1969/12/31/18:00:06.005,(18 19 14 4 -20 -33 -5 8)
1969/12/31/18:00:06.014,(9 -7 -6 17 17 15 8 12)
1969/12/31/18:00:06.014,(-57 -47 -31 -2 17 10 -13 -42)
1969/12/31/18:00:06.045,(-52 16 9 -10 -12 -21 -37 -48)
1969/12/31/18:00:06.045,(-13 -12 5 -20 -30 -23 -6 -4)
1969/12/31/18:00:06.046,(-29 -14 -3 -17 -29 -8 -6 -26)
1969/12/31/18:00:06.046,(58 38 26 21 28 35 27 76)
1969/12/31/18:00:06.052,(7 -26 -25 37 57 33 23 -7)
1969/12/31/18:00:06.052,(1 12 5 33 22 -27 -8 -33)
1969/12/31/18:00:06.053,(3 -17 2 10 10 23 11 -6)
1969/12/31/18:00:06.053,(-14 28 7 -37 -59 -46 -12 -61)
1969/12/31/18:00:06.073,(18 -29 -25 -57 -58 -19 -23 19)
1969/12/31/18:00:06.073,(-6 -2 2 10 29 29 14 23)
1969/12/31/18:00:06.074,(10 -5 -5 5 15 9 13 20)
1969/12/31/18:00:06.074,(-17 20 17 -3 0 1 -12 -16)
1969/12/31/18:00:06.088,(46 3 0 2 -3 -7 24 47)
1969/12/31/18:00:06.088,(-15 -4 -10 8 -1 -2 4 -8)
1969/12/31/18:00:06.088,(-57 -35 -10 -5 -3 -13 -20 -20)
1969/12/31/18:00:06.089,(4 21 15 4 5 1 -4 -11)
1969/12/31/18:00:06.110,(19 4 -2 3 22 4 7 16)
1969/12/31/18:00:06.110,(44 12 -7 -8 -19 2 8 41)
1969/12/31/18:00:06.111,(59 17 8 -5 -6 0 -24 3)
1969/12/31/18:00:06.111,(-104 -16 15 43 29 -6 -5 -31)
1969/12/31/18:00:06.133,(10 -9 -9 6 4 15 26 -17)
1969/12/31/18:00:06.133,(-55 -23 -13 -23 -20 -19 -38 -55)
1969/12/31/18:00:06.134,(3 10 2 -12 -12 -21 -5 5)
1969/12/31/18:00:06.134,(104 60 21 17 25 18 11 34)
1969/12/31/18:00:06.148,(68 -5 -17 -18 -21 -10 -5 35)
1969/12/31/18:00:06.148,(-100 -31 -3 -5 -12 -10 -12 -62)
1969/12/31/18:00:06.149,(10 -6 -3 5 8 -1 -6 -9)
1969/12/31/18:00:06.149,(-39 -9 1 1 1 4 -2 -11)
1969/12/31/18:00:06.180,(18 6 4 -2 -6 7 16 36)
1969/12/31/18:00:06.180,(30 7 2 6 1 -2 -4 6)
1969/12/31/18:00:06.181,(-19 -11 -9 -1 -3 -7 -14 -24)
1969/12/31/18:00:06.181,(6 5 9 0 11 9 8 11)
1969/12/31/18:00:06.193,(-31 -5 -2 -2 -4 -3 -3 -4)
1969/12/31/18:00:06.193,(21 -11 -14 4 6 3 13 22)
1969/12/31/18:00:06.193,(62 20 3 -5 -1 -2 4 15)
1969/12/31/18:00:06.193,(-114 -62 -27 -54 -57 -30 -40 -103)
1969/12/31/18:00:06.208,(39 20 22 48 50 15 8 11)
1969/12/31/18:00:06.208,(46 16 8 35 16 9 7 36)
1969/12/31/18:00:06.209,(-17 -17 -4 10 6 0 -2 -16)
1969/12/31/18:00:06.209,(-9 -3 -6 -8 -12 -3 8 20)
1969/12/31/18:00:06.230,(-14 -10 -9 -19 -19 -4 2 3)
1969/12/31/18:00:06.230,(11 18 0 -16 -11 -4 4 -10)
1969/12/31/18:00:06.231,(-43 -22 -13 -13 -9 -5 -9 -35)
1969/12/31/18:00:06.231,(82 18 -3 7 17 11 15 40)
1969/12/31/18:00:06.253,(-85 -58 -31 -25 -23 -20 -33 -72)
1969/12/31/18:00:06.253,(17 50 29 11 13 11 14 15)
1969/12/31/18:00:06.254,(27 53 35 11 0 4 9 23)
1969/12/31/18:00:06.254,(-36 -43 -17 2 5 1 -3 -2)
1969/12/31/18:00:06.268,(15 16 -3 1 -3 -3 -2 1)
1969/12/31/18:00:06.268,(-7 -24 -18 -12 -9 -3 -16 -49)
1969/12/31/18:00:06.268,(51 17 7 4 8 12 28 60)
1969/12/31/18:00:06.268,(-24 -8 -9 -9 -4 -13 -21 -68)
1969/12/31/18:00:06.290,(-12 -6 1 4 1 2 -1 -3)
1969/12/31/18:00:06.290,(24 2 0 0 1 -2 0 25)
1969/12/31/18:00:06.291,(-29 -17 -12 -13 -8 -3 -7 -14)
1969/12/31/18:00:06.291,(41 22 17 17 14 11 19 43)
1969/12/31/18:00:06.323,(-51 -25 -16 -15 -12 -6 -4 -13)
1969/12/31/18:00:06.323,(0 0 15 14 12 -1 -5 -5)
1969/12/31/18:00:06.323,(-2 1 2 8 9 2 -1 0)
1969/12/31/18:00:06.324,(1 4 -1 1 -2 1 5 23)
1969/12/31/18:00:06.328,(26 1 -13 -12 -11 -6 -3 8)
1969/12/31/18:00:06.328,(-2 -6 -2 1 5 5 7 15)
1969/12/31/18:00:06.329,(-21 -21 -17 -11 -13 -14 -23 -15)
1969/12/31/18:00:06.329,(3 19 13 12 11 6 4 3)
1969/12/31/18:00:06.359,(11 8 10 -2 -8 -2 -3 -3)
1969/12/31/18:00:06.359,(-13 -19 -12 -8 -5 -4 3 1)
1969/12/31/18:00:06.359,(-24 -18 -9 -4 2 2 0 -11)
1969/12/31/18:00:06.359,(34 21 3 0 2 0 4 23)
1969/12/31/18:00:06.373,(-6 10 3 0 3 3 -1 -8)
1969/12/31/18:00:06.373,(-3 -13 -1 4 4 4 -1 0)
1969/12/31/18:00:06.374,(-18 -1 4 3 0 2 5 -13)
1969/12/31/18:00:06.374,(20 17 4 -1 -3 0 0 19)
1969/12/31/18:00:06.388,(-11 -15 3 4 4 -2 -1 -5)
1969/12/31/18:00:06.388,(13 30 5 -4 -9 -5 -4 2)
1969/12/31/18:00:06.389,(-18 -49 -12 -6 0 -2 -6 -12)
1969/12/31/18:00:06.389,(-3 4 2 3 0 1 4 8)
1969/12/31/18:00:06.410,(6 -1 -1 2 3 0 3 3)
1969/12/31/18:00:06.410,(-20 4 13 -3 -8 -5 -8 -7)
1969/12/31/18:00:06.411,(-3 -8 -7 4 4 3 1 6)
1969/12/31/18:00:06.411,(11 11 -3 -2 -4 -1 10 2)
1969/12/31/18:00:06.458,(3 -1 -5 -5 -5 -5 -19 -5)
1969/12/31/18:00:06.458,(2 -13 -11 -1 1 0 4 23)
1969/12/31/18:00:06.458,(3 12 -1 -4 -5 -5 -6 -12)
1969/12/31/18:00:06.458,(-14 -27 -7 1 2 4 5 1)
1969/12/31/18:00:06.460,(5 21 10 4 1 0 -3 2)
1969/12/31/18:00:06.460,(6 -13 -11 -7 -8 -5 -3 -3)
1969/12/31/18:00:06.463,(0 1 -4 -6 0 -1 -5 1)
1969/12/31/18:00:06.463,(-15 -25 -2 2 1 1 0 -8)
1969/12/31/18:00:06.470,(8 12 6 1 -1 0 0 1)
1969/12/31/18:00:06.470,(1 3 0 -2 -4 0 2 5)
1969/12/31/18:00:06.471,(-7 6 4 -2 -5 -5 2 2)
1969/12/31/18:00:06.471,(6 4 2 -1 1 2 4 3)
1969/12/31/18:00:06.495,(-3 -16 -6 -2 2 4 3 6)
1969/12/31/18:00:06.495,(-8 -20 -13 -2 -2 -2 2 -8)
1969/12/31/18:00:06.495,(7 36 27 11 3 -3 -4 -2)
1969/12/31/18:00:06.495,(-3 4 1 -4 -2 -4 -12 -6)
1969/12/31/18:00:06.508,(-4 -32 -32 -12 -5 -3 11 11)
1969/12/31/18:00:06.508,(1 12 10 7 1 -3 -14 -10)
1969/12/31/18:00:06.508,(-18 14 35 3 0 3 2 -5)
1969/12/31/18:00:06.508,(9 32 14 14 5 4 15 11)
1969/12/31/18:00:06.530,(-11 0 1 -1 -8 -11 -28 -28)
1969/12/31/18:00:06.530,(-3 -24 -20 -10 -5 -4 -7 -5)
1969/12/31/18:00:06.531,(11 -3 -8 -1 0 2 7 6)
1969/12/31/18:00:06.531,(-8 -24 -18 -12 -4 4 -3 0)
1969/12/31/18:00:06.553,(-6 2 2 -1 -1 1 13 1)
1969/12/31/18:00:06.553,(6 2 -1 4 3 0 -6 7)
1969/12/31/18:00:06.554,(-8 -50 -34 -13 -8 -7 -9 -14)
1969/12/31/18:00:06.554,(7 39 21 7 6 2 5 2)
1969/12/31/18:00:06.568,(3 11 3 2 1 1 -9 5)
1969/12/31/18:00:06.568,(-4 5 6 -4 -3 -2 -6 1)
1969/12/31/18:00:06.568,(2 -29 -55 -18 -3 1 -1 -8)
1969/12/31/18:00:06.568,(-9 -4 31 5 -3 -6 -12 -9)
1969/12/31/18:00:06.608,(6 16 15 11 9 10 16 10)
1969/12/31/18:00:06.608,(2 -3 1 -3 -2 -2 2 8)
1969/12/31/18:00:06.608,(5 18 6 5 4 3 0 6)
1969/12/31/18:00:06.608,(1 -26 -40 -14 -10 -10 -11 -8)
1969/12/31/18:00:06.613,(-5 -3 11 2 1 5 2 -4)
1969/12/31/18:00:06.613,(4 -42 -14 3 3 0 6 8)
1969/12/31/18:00:06.614,(6 18 -2 -7 -4 -1 -3 -2)
1969/12/31/18:00:06.614,(1 27 20 9 4 1 -6 -2)
1969/12/31/18:00:06.628,(-5 10 23 16 2 1 31 7)
1969/12/31/18:00:06.628,(-4 -20 -21 -10 -4 0 -27 -16)
1969/12/31/18:00:06.628,(-3 0 15 7 2 -1 -8 -4)
1969/12/31/18:00:06.628,(-11 -25 -15 -11 -7 -7 -9 -6)
1969/12/31/18:00:06.650,(-2 -37 -35 -20 -7 1 9 0)
1969/12/31/18:00:06.650,(2 13 5 3 1 8 12 6)
1969/12/31/18:00:06.651,(1 39 37 12 -1 -6 -16 -15)
1969/12/31/18:00:06.651,(11 24 20 15 5 5 2 2)
1969/12/31/18:00:06.673,(-4 -48 -49 -27 -11 -6 -8 1)
1969/12/31/18:00:06.673,(-10 10 30 24 8 1 4 -8)
1969/12/31/18:00:06.673,(-10 -27 -19 -3 -3 -1 1 7)
1969/12/31/18:00:06.673,(4 -11 -7 -7 0 -1 13 12)
