time,.data
1969/12/31/18:00:27.735,(6 5 7 5 1 2 2 5)
1969/12/31/18:00:27.735,(1 -1 10 6 4 1 -1 -1)
1969/12/31/18:00:27.736,(2 5 -6 -5 -3 -1 0 0)
1969/12/31/18:00:27.736,(-4 -8 -6 -3 -1 0 -3 -1)
1969/12/31/18:00:27.758,(-5 -5 1 4 0 1 -1 -3)
1969/12/31/18:00:27.758,(-5 -4 -12 -8 -5 -4 -4 -3)
1969/12/31/18:00:27.765,(-3 7 2 -4 -2 -1 -5 -8)
1969/12/31/18:00:27.765,(-6 -14 -10 1 2 0 -1 -5)
1969/12/31/18:00:27.780,(4 2 11 5 2 1 1 4)
1969/12/31/18:00:27.780,(2 3 2 -2 -3 -2 1 1)
1969/12/31/18:00:27.781,(-1 -1 -5 -4 -2 -3 -1 0)
1969/12/31/18:00:27.781,(1 3 4 0 1 0 -1 0)
1969/12/31/18:00:27.796,(4 2 1 0 -2 -1 -2 -1)
1969/12/31/18:00:27.796,(-3 1 1 0 -2 0 -2 -2)
1969/12/31/18:00:27.796,(4 2 1 2 2 -1 1 1)
1969/12/31/18:00:27.796,(-2 -2 -4 -3 -2 -4 -2 -2)
1969/12/31/18:00:27.818,(-1 2 11 6 6 0 1 2)
1969/12/31/18:00:27.818,(1 -3 -9 -3 -2 -3 -1 -2)
1969/12/31/18:00:27.819,(-1 -2 -3 -4 -2 -1 -1 -3)
1969/12/31/18:00:27.819,(-2 -2 0 -3 -5 0 -3 -2)
1969/12/31/18:00:27.840,(1 -1 2 1 -2 0 2 0)
1969/12/31/18:00:27.840,(-2 -1 -5 -18 -6 -3 -1 -4)
1969/12/31/18:00:27.841,(-1 -1 2 13 4 1 0 0)
1969/12/31/18:00:27.841,(-3 2 4 6 4 -1 -3 -5)
1969/12/31/18:00:27.856,(-1 -4 -6 -1 -3 -2 -1 0)
1969/12/31/18:00:27.856,(-4 -6 -21 -29 -8 -3 -4 -3)
1969/12/31/18:00:27.856,(-3 -5 -2 -18 -13 -4 -2 -2)
1969/12/31/18:00:27.856,(1 1 -14 3 2 -1 1 1)
1969/12/31/18:00:27.878,(1 7 32 20 -5 -2 8 3)
1969/12/31/18:00:27.878,(1 4 17 42 29 21 -12 -6)
1969/12/31/18:00:27.879,(-3 -8 -36 -39 -7 -7 2 -1)
1969/12/31/18:00:27.879,(-4 -8 14 16 -18 -8 -6 -2)
1969/12/31/18:00:27.909,(5 5 -39 -6 18 -1 -5 0)
1969/12/31/18:00:27.909,(2 3 46 34 0 -3 6 6)
1969/12/31/18:00:27.909,(-3 -10 -19 -18 -14 -2 -8 -7)
1969/12/31/18:00:27.909,(1 6 -19 -31 1 6 0 0)
1969/12/31/18:00:27.915,(1 4 45 49 10 -1 2 0)
1969/12/31/18:00:27.915,(-1 -1 -2 -24 -12 -3 3 1)
1969/12/31/18:00:27.916,(-1 -1 13 26 14 6 -1 3)
1969/12/31/18:00:27.916,(-3 -1 -16 -14 -7 -10 -4 -7)
1969/12/31/18:00:27.938,(-11 -24 -32 -34 -12 0 -3 -6)
1969/12/31/18:00:27.938,(-2 1 -27 -11 -5 -5 -3 -3)
1969/12/31/18:00:27.939,(4 12 39 25 6 4 4 3)
1969/12/31/18:00:27.939,(-1 -6 -1 -40 -7 0 0 1)
1969/12/31/18:00:27.961,(-6 14 -5 24 -3 -8 -17 -19)
1969/12/31/18:00:27.961,(5 15 23 57 18 3 2 1)
1969/12/31/18:00:27.961,(3 8 26 -6 -2 0 4 6)
1969/12/31/18:00:27.961,(1 2 13 23 3 -2 -3 -2)
1969/12/31/18:00:27.975,(-4 -21 -8 -38 -5 6 9 11)
1969/12/31/18:00:27.975,(-13 -25 -84 -82 -26 -14 -7 -11)
1969/12/31/18:00:27.976,(0 2 13 -23 -2 2 5 5)
1969/12/31/18:00:27.976,(8 8 17 86 20 6 7 5)
1969/12/31/18:00:27.998,(-2 7 16 -12 -9 -6 -8 -10)
1969/12/31/18:00:27.998,(2 -8 -3 -11 -19 -6 1 3)
1969/12/31/18:00:27.999,(-10 -14 -22 -13 14 1 -4 -8)
1969/12/31/18:00:27.999,(-8 -17 -17 -33 -9 -5 3 -4)
1969/12/31/18:00:28.020,(2 -5 -41 -42 -16 -7 -15 -4)
1969/12/31/18:00:28.020,(6 18 22 19 17 6 0 -3)
1969/12/31/18:00:28.021,(18 26 72 91 14 2 6 12)
1969/12/31/18:00:28.021,(-19 -13 -18 -30 -10 -5 -8 -16)
1969/12/31/18:00:28.044,(2 3 5 13 0 2 1 3)
1969/12/31/18:00:28.044,(-3 -12 -35 -45 -13 -5 -1 1)
1969/12/31/18:00:28.044,(-6 -11 -35 -24 -8 -2 -3 -2)
1969/12/31/18:00:28.044,(4 -3 49 37 8 4 7 12)
1969/12/31/18:00:28.058,(2 -16 -10 -9 0 3 8 7)
1969/12/31/18:00:28.058,(-5 -7 -2 -12 -7 -4 -6 -4)
1969/12/31/18:00:28.059,(-2 10 -1 10 -4 -2 -2 -5)
1969/12/31/18:00:28.059,(7 19 -10 -24 1 1 1 3)
1969/12/31/18:00:28.080,(-3 12 1 5 -1 -3 -5 -10)
1969/12/31/18:00:28.080,(2 8 5 11 6 2 3 0)
1969/12/31/18:00:28.081,(1 12 1 7 1 0 -3 -5)
1969/12/31/18:00:28.081,(3 5 -6 -16 -2 -2 -4 0)
1969/12/31/18:00:28.095,(-1 -8 -2 -2 0 1 3 3)
1969/12/31/18:00:28.095,(2 -1 12 19 6 1 4 4)
1969/12/31/18:00:28.096,(-1 -11 -17 -14 -4 -2 -2 -1)
1969/12/31/18:00:28.096,(0 -3 -2 -2 -2 -1 -2 -4)
1969/12/31/18:00:28.118,(0 -1 5 7 4 1 4 3)
1969/12/31/18:00:28.118,(-4 -4 10 17 4 -1 -2 0)
1969/12/31/18:00:28.125,(-12 -12 -19 -21 -10 -4 -7 -8)
1969/12/31/18:00:28.126,(-2 0 5 4 2 1 -3 1)
1969/12/31/18:00:28.149,(4 0 4 7 2 -1 0 0)
1969/12/31/18:00:28.149,(6 3 8 1 -1 1 0 0)
1969/12/31/18:00:28.149,(16 15 4 4 3 2 -5 -18)
1969/12/31/18:00:28.149,(-38 -26 -14 0 -2 0 4 22)
1969/12/31/18:00:28.155,(18 0 -1 -3 -1 -4 -4 7)
1969/12/31/18:00:28.155,(-6 -4 4 2 -3 -7 -11 -13)
1969/12/31/18:00:28.163,(4 6 -3 -1 -2 -1 -1 1)
1969/12/31/18:00:28.163,(-55 -15 -11 -5 -6 -11 -27 -72)
1969/12/31/18:00:28.178,(16 4 2 -1 6 21 43 70)
1969/12/31/18:00:28.178,(31 12 7 1 0 -13 -2 10)
1969/12/31/18:00:28.179,(16 -5 -5 -2 -2 -9 -16 10)
1969/12/31/18:00:28.179,(-33 -22 -7 -8 2 29 -7 -38)
1969/12/31/18:00:28.200,(-3 18 15 11 4 -13 34 45)
1969/12/31/18:00:28.200,(13 9 5 5 3 2 -1 8)
1969/12/31/18:00:28.201,(10 2 -8 -6 -2 0 12 -8)
1969/12/31/18:00:28.201,(10 10 1 -5 -2 -3 11 5)
1969/12/31/18:00:28.215,(-13 -10 -2 -2 -2 22 3 -3)
1969/12/31/18:00:28.215,(-14 -15 -4 0 -1 -21 -16 14)
1969/12/31/18:00:28.223,(-4 -1 -3 -7 -7 -15 -8 -17)
1969/12/31/18:00:28.223,(-8 27 13 4 -1 -8 -18 -41)
1969/12/31/18:00:28.238,(59 -12 -13 -5 5 14 31 62)
1969/12/31/18:00:28.238,(-33 -31 -21 -13 -14 1 44 2)
1969/12/31/18:00:28.239,(-39 -27 -1 5 8 7 -11 -9)
1969/12/31/18:00:28.239,(60 53 12 3 -1 -2 11 -7)
1969/12/31/18:00:28.260,(-9 -10 3 5 5 -2 -3 6)
1969/12/31/18:00:28.260,(54 30 5 1 3 12 -1 39)
1969/12/31/18:00:28.268,(19 -3 -5 -3 0 24 62 40)
1969/12/31/18:00:28.268,(-51 -16 -10 -6 -6 -20 -22 -15)
1969/12/31/18:00:28.275,(-39 -31 -4 -8 -17 -56 -37 -46)
1969/12/31/18:00:28.275,(54 36 9 3 6 17 32 49)
1969/12/31/18:00:28.283,(-64 -50 -13 -8 -7 -16 -31 -17)
1969/12/31/18:00:28.283,(72 42 21 13 12 39 48 59)
1969/12/31/18:00:28.298,(-64 -62 -31 -13 -6 -4 -31 -56)
1969/12/31/18:00:28.298,(1 -5 -1 -5 -8 10 17 2)
1969/12/31/18:00:28.299,(-1 6 -3 1 -1 -16 -67 -15)
1969/12/31/18:00:28.299,(-3 -33 -6 -1 -4 -15 -1 5)
1969/12/31/18:00:28.320,(86 75 17 7 5 -9 -13 34)
1969/12/31/18:00:28.320,(-102 -19 5 6 7 16 5 -90)
1969/12/31/18:00:28.321,(67 35 9 5 4 -1 1 -2)
1969/12/31/18:00:28.321,(25 -22 -1 1 2 19 15 67)
1969/12/31/18:00:28.335,(13 42 12 6 1 -4 -7 -26)
1969/12/31/18:00:28.335,(-66 -41 -10 -2 2 -3 -19 -31)
1969/12/31/18:00:28.343,(-17 -14 -18 -11 -7 9 14 -17)
1969/12/31/18:00:28.343,(53 18 26 22 16 -4 -2 14)
1969/12/31/18:00:28.358,(-98 -42 -14 -5 0 18 -18 -67)
1969/12/31/18:00:28.358,(105 61 12 3 -1 -6 -4 32)
1969/12/31/18:00:28.359,(-62 0 4 -1 -4 -5 6 -9)
1969/12/31/18:00:28.359,(-13 -3 -17 -10 -9 -33 6 -27)
1969/12/31/18:00:28.380,(-37 -4 0 -6 -4 66 -27 -37)
1969/12/31/18:00:28.380,(-11 -50 -20 -9 -15 -37 -19 -24)
1969/12/31/18:00:28.381,(21 20 11 9 10 24 12 11)
1969/12/31/18:00:28.381,(-11 2 -3 -4 -8 -39 -41 -21)
1969/12/31/18:00:28.395,(29 -3 -9 -6 -2 23 36 35)
1969/12/31/18:00:28.395,(20 21 10 1 0 1 6 23)
1969/12/31/18:00:28.403,(6 -17 -14 -9 -8 -8 2 10)
1969/12/31/18:00:28.403,(-28 -14 -4 -2 2 28 1 11)
1969/12/31/18:00:28.418,(43 23 7 3 6 -29 -6 17)
1969/12/31/18:00:28.418,(3 -1 3 5 5 9 15 39)
1969/12/31/18:00:28.419,(6 6 -2 -1 -1 -9 0 -21)
1969/12/31/18:00:28.419,(13 7 7 1 -1 4 -19 -48)
1969/12/31/18:00:28.440,(65 5 -17 -16 -17 -26 9 90)
1969/12/31/18:00:28.440,(7 16 30 25 20 4 -24 -33)
1969/12/31/18:00:28.441,(-4 15 -3 -5 -4 2 -5 -14)
1969/12/31/18:00:28.441,(-6 3 -4 -4 -5 -12 10 6)
1969/12/31/18:00:28.456,(-19 -14 -5 -2 -1 6 35 -9)
1969/12/31/18:00:28.456,(4 0 -4 -6 -4 -9 -30 -15)
1969/12/31/18:00:28.463,(13 14 7 5 0 -2 13 19)
1969/12/31/18:00:28.463,(-19 -2 2 1 0 0 -18 -22)
1969/12/31/18:00:28.478,(-28 -34 -9 -1 2 -9 -8 -21)
1969/12/31/18:00:28.478,(1 26 -1 -2 -2 34 38 3)
1969/12/31/18:00:28.479,(-20 -25 -4 -1 -5 -17 -32 -9)
1969/12/31/18:00:28.479,(-3 -15 -11 -9 -8 -10 -2 -10)
1969/12/31/18:00:28.500,(-5 29 22 10 4 -3 -13 -33)
1969/12/31/18:00:28.500,(-7 4 -7 -9 -11 -9 -10 -30)
1969/12/31/18:00:28.501,(-1 -1 6 2 5 11 2 -13)
1969/12/31/18:00:28.501,(-40 -41 -22 -8 0 11 12 9)
1969/12/31/18:00:28.524,(-16 12 12 5 1 -19 -22 -49)
1969/12/31/18:00:28.524,(-4 -16 -12 -5 -1 -6 -19 -49)
1969/12/31/18:00:28.525,(-54 -21 2 2 2 -1 3 11)
1969/12/31/18:00:28.525,(80 22 -7 -3 -3 -3 -2 -18)
1969/12/31/18:00:28.538,(-28 25 -1 -5 -6 -13 -21 -62)
1969/12/31/18:00:28.538,(-30 -31 -1 5 7 3 5 -3)
1969/12/31/18:00:28.539,(-35 -12 -4 -4 -2 -2 -10 -50)
1969/12/31/18:00:28.539,(34 -9 -1 3 1 -2 2 30)
1969/12/31/18:00:28.561,(37 18 0 -6 -7 2 11 38)
1969/12/31/18:00:28.561,(6 -11 -11 -12 -10 -4 -43 -21)
1969/12/31/18:00:28.562,(-10 -21 -9 -2 0 4 1 7)
1969/12/31/18:00:28.562,(-3 18 3 -5 -2 -6 -9 5)
1969/12/31/18:00:28.584,(-36 -22 -3 -2 -1 1 -4 -10)
1969/12/31/18:00:28.584,(-44 -16 -10 -6 -3 -5 3 30)
1969/12/31/18:00:28.584,(17 -20 -5 -2 -2 -4 13 26)
1969/12/31/18:00:28.584,(27 18 3 -2 -1 6 9 26)
1969/12/31/18:00:28.598,(-35 -2 14 16 17 21 19 11)
1969/12/31/18:00:28.598,(94 24 -1 -5 -9 -8 11 97)
1969/12/31/18:00:28.599,(-46 -18 -14 -8 -7 -18 -42 -104)
1969/12/31/18:00:28.599,(-13 6 3 -1 -1 2 10 3)
1969/12/31/18:00:28.621,(35 -9 -12 -4 -5 -12 -1 5)
1969/12/31/18:00:28.621,(-81 -8 10 8 8 9 17 17)
1969/12/31/18:00:28.621,(18 7 -5 -5 -6 -3 9 23)
1969/12/31/18:00:28.621,(-17 -5 0 0 -2 -8 -6 -26)
1969/12/31/18:00:28.644,(-9 4 -1 -1 -5 -9 -11 -36)
1969/12/31/18:00:28.644,(7 -40 -25 -11 -10 -10 -10 42)
1969/12/31/18:00:28.644,(76 75 21 10 5 3 19 -2)
1969/12/31/18:00:28.644,(-48 -7 -1 2 16 21 -11 -18)
1969/12/31/18:00:28.658,(16 12 0 0 -6 -3 2 75)
1969/12/31/18:00:28.658,(-3 2 12 10 7 4 10 10)
1969/12/31/18:00:28.659,(3 -26 -15 -13 -11 -23 -25 3)
1969/12/31/18:00:28.659,(29 10 5 3 8 27 14 50)
1969/12/31/18:00:28.680,(-2 -15 0 0 -3 -10 34 -1)
1969/12/31/18:00:28.680,(-24 6 6 7 3 0 -14 -67)
1969/12/31/18:00:28.681,(20 10 2 3 6 -6 57 74)
1969/12/31/18:00:28.681,(10 23 10 2 -3 -9 0 9)
1969/12/31/18:00:28.704,(23 -44 -30 -22 -28 -34 5 59)
1969/12/31/18:00:28.704,(25 19 11 20 27 0 8 -15)
1969/12/31/18:00:28.704,(-12 -7 -3 -16 -37 -9 5 40)
1969/12/31/18:00:28.704,(26 -7 -19 -24 -5 -1 16 73)
1969/12/31/18:00:28.718,(20 36 18 16 14 22 19 -3)
1969/12/31/18:00:28.718,(-23 -17 -6 -8 -21 -30 -32 -26)
1969/12/31/18:00:28.719,(14 -9 -4 12 19 64 10 27)
1969/12/31/18:00:28.719,(-7 5 8 10 19 2 18 -1)
1969/12/31/18:00:28.741,(-3 10 -3 -16 -11 11 -10 5)
1969/12/31/18:00:28.741,(2 -16 1 12 25 27 -38 1)
1969/12/31/18:00:28.742,(1 4 -10 -16 -13 50 73 1)
1969/12/31/18:00:28.742,(-23 -27 -3 7 -22 -42 -68 -17)
1969/12/31/18:00:28.764,(-20 3 6 0 18 35 17 -19)
1969/12/31/18:00:28.764,(10 19 2 -20 -32 -39 12 -18)
1969/12/31/18:00:28.764,(7 25 13 8 21 30 2 23)
1969/12/31/18:00:28.764,(-11 -27 -13 -1 -9 -22 -16 -34)
1969/12/31/18:00:28.778,(42 3 -1 8 8 -48 -36 4)
1969/12/31/18:00:28.778,(0 4 2 19 19 23 42 16)
1969/12/31/18:00:28.779,(-16 -1 5 -18 -59 -48 -27 -11)
1969/12/31/18:00:28.779,(-28 14 8 9 10 1 18 -56)
1969/12/31/18:00:28.801,(-11 -29 -3 -21 -1 62 -1 51)
1969/12/31/18:00:28.801,(-18 15 -3 -18 -11 -2 -10 -51)
1969/12/31/18:00:28.802,(-23 -28 -3 13 24 -13 -13 -4)
1969/12/31/18:00:28.802,(55 -1 -8 1 -6 -26 10 73)
1969/12/31/18:00:28.824,(-29 -16 1 10 -6 -26 -35 -49)
1969/12/31/18:00:28.824,(-3 23 12 8 16 60 41 0)
1969/12/31/18:00:28.824,(-8 7 0 4 15 -24 -46 -31)
1969/12/31/18:00:28.824,(-25 -22 3 1 -7 8 14 -18)
1969/12/31/18:00:28.846,(-24 -7 2 33 45 -14 -4 -39)
1969/12/31/18:00:28.846,(2 2 -6 -37 -74 -25 5 23)
1969/12/31/18:00:28.847,(0 -1 -1 0 17 -2 -39 -48)
1969/12/31/18:00:28.847,(-14 -13 -12 -16 -15 40 29 1)
1969/12/31/18:00:28.869,(26 18 1 -2 -5 -4 12 11)
1969/12/31/18:00:28.869,(-42 -14 -5 11 25 15 19 -9)
1969/12/31/18:00:28.869,(15 9 4 2 -14 -20 2 13)
1969/12/31/18:00:28.869,(-34 -2 3 -1 12 28 -6 -29)
1969/12/31/18:00:28.884,(16 11 7 0 -15 25 34 22)
1969/12/31/18:00:28.884,(-12 -13 -5 14 31 8 -6 -22)
1969/12/31/18:00:28.885,(3 -11 -9 -22 -6 -42 -1 10)
1969/12/31/18:00:28.885,(21 5 4 19 18 9 -3 5)
1969/12/31/18:00:28.898,(-8 24 4 -16 -33 -28 -33 -56)
1969/12/31/18:00:28.898,(15 23 21 7 -2 -22 5 48)
1969/12/31/18:00:28.899,(32 -35 -29 -2 17 34 -11 -39)
1969/12/31/18:00:28.899,(-42 28 19 -8 -16 -24 -7 -51)
1969/12/31/18:00:28.921,(-19 -29 -3 -2 1 7 1 -18)
1969/12/31/18:00:28.921,(6 6 -3 2 -4 -20 -17 -13)
1969/12/31/18:00:28.922,(11 10 4 12 6 -7 7 8)
1969/12/31/18:00:28.922,(-15 -37 -16 14 0 -43 -7 -1)
1969/12/31/18:00:28.943,(-17 -15 -34 -29 35 78 -11 -2)
1969/12/31/18:00:28.943,(52 84 65 0 -37 0 7 32)
1969/12/31/18:00:28.950,(-1 32 65 37 31 17 24 27)
1969/12/31/18:00:28.950,(-16 -33 -30 -24 -24 -25 -8 0)
1969/12/31/18:00:28.958,(-19 -36 -75 5 4 -34 -21 -29)
1969/12/31/18:00:28.958,(-16 63 52 23 24 12 -3 -22)
1969/12/31/18:00:28.959,(65 -17 -20 -3 -16 -4 24 81)
1969/12/31/18:00:28.959,(61 -19 -27 5 -27 -58 -13 18)
1969/12/31/18:00:28.981,(25 4 -3 -11 15 9 -2 4)
1969/12/31/18:00:28.981,(-17 -59 -34 -31 -12 18 6 38)
1969/12/31/18:00:28.982,(38 60 50 28 23 21 3 -4)
1969/12/31/18:00:28.982,(5 -11 18 10 23 18 1 4)
1969/12/31/18:00:29.004,(3 -125 -107 -42 -49 -31 7 66)
1969/12/31/18:00:29.004,(13 -9 -62 -30 -37 -22 0 19)
1969/12/31/18:00:29.004,(-41 97 87 31 2 -7 -8 -21)
1969/12/31/18:00:29.004,(52 35 42 13 19 29 4 24)
1969/12/31/18:00:29.017,(0 39 44 12 -37 -17 7 -15)
1969/12/31/18:00:29.017,(3 -128 -105 -23 -1 -5 -9 -9)
1969/12/31/18:00:29.026,(-51 -128 -114 -23 61 78 -7 -25)
1969/12/31/18:00:29.026,(-73 0 -39 -16 -6 -5 1 9)
1969/12/31/18:00:29.041,(54 127 127 81 26 -13 14 20)
1969/12/31/18:00:29.041,(21 13 1 0 10 20 -14 -14)
1969/12/31/18:00:29.042,(-1 67 19 -23 -51 -15 0 -20)
1969/12/31/18:00:29.042,(-17 -92 -49 -29 -3 22 8 46)
1969/12/31/18:00:29.071,(-8 -14 -21 -15 -10 -45 -13 -21)
1969/12/31/18:00:29.071,(-59 -127 -97 -20 7 -3 0 -42)
1969/12/31/18:00:29.073,(2 80 52 29 27 -7 -2 14)
1969/12/31/18:00:29.073,(12 90 79 44 36 41 9 -15)
1969/12/31/18:00:29.077,(-8 -52 -32 -6 -12 3 22 38)
1969/12/31/18:00:29.077,(-7 -51 -11 22 26 -11 -19 -39)
1969/12/31/18:00:29.086,(-35 -128 -128 -66 -24 -36 -24 3)
1969/12/31/18:00:29.086,(-17 78 -12 -19 -27 -25 -24 -46)
1969/12/31/18:00:29.101,(-18 2 64 24 19 34 8 -21)
1969/12/31/18:00:29.101,(33 125 59 3 -5 -3 3 23)
1969/12/31/18:00:29.103,(-25 -14 21 1 4 56 6 -34)
1969/12/31/18:00:29.103,(-23 25 24 6 -27 -46 -10 -10)
1969/12/31/18:00:29.124,(14 -65 -46 -5 21 -4 -16 40)
1969/12/31/18:00:29.124,(-24 19 -54 -15 -5 -9 -17 -50)
1969/12/31/18:00:29.125,(21 33 49 61 13 -6 16 -6)
1969/12/31/18:00:29.125,(8 -83 -66 -37 -4 24 1 2)
1969/12/31/18:00:29.137,(-58 -94 -79 -27 -10 6 -4 -44)
1969/12/31/18:00:29.137,(15 5 -8 -1 30 -41 -7 23)
1969/12/31/18:00:29.146,(-25 -41 -7 -29 -58 -24 -8 11)
1969/12/31/18:00:29.146,(20 98 18 -13 -12 -6 -7 -28)
1969/12/31/18:00:29.161,(-33 35 54 20 15 22 5 -43)
1969/12/31/18:00:29.161,(-7 -32 -9 17 9 -25 -15 -35)
1969/12/31/18:00:29.163,(26 -49 -35 7 -10 -34 -8 0)
1969/12/31/18:00:29.163,(-37 -128 -127 -73 -13 44 14 -6)
1969/12/31/18:00:29.184,(17 100 82 27 -16 -32 -19 5)
1969/12/31/18:00:29.184,(-54 -34 25 27 6 -13 6 -12)
1969/12/31/18:00:29.185,(0 -17 -16 -22 -14 -23 -16 -5)
1969/12/31/18:00:29.185,(40 59 83 42 5 48 28 9)
1969/12/31/18:00:29.206,(56 42 0 3 -2 -14 5 11)
1969/12/31/18:00:29.206,(14 -42 3 -12 -35 -7 -2 23)
1969/12/31/18:00:29.208,(-1 -83 -51 5 40 23 11 19)
1969/12/31/18:00:29.208,(-18 -128 -128 -56 -10 -29 -22 -9)
1969/12/31/18:00:29.221,(-3 100 -15 -27 0 14 -22 -69)
1969/12/31/18:00:29.221,(-8 -34 66 53 42 31 30 25)
1969/12/31/18:00:29.223,(6 25 -20 10 -30 -29 6 30)
1969/12/31/18:00:29.223,(45 -60 -18 5 -14 -9 -9 5)
1969/12/31/18:00:29.244,(-107 -120 -127 -25 -2 -6 -29 -87)
1969/12/31/18:00:29.244,(91 87 22 -54 -41 11 15 43)
1969/12/31/18:00:29.245,(38 127 110 47 40 47 30 54)
1969/12/31/18:00:29.245,(-38 9 57 39 88 93 10 -46)
1969/12/31/18:00:29.257,(-5 -82 -16 11 -17 -60 -7 14)
1969/12/31/18:00:29.257,(-15 -10 -20 -21 -2 11 -15 10)
1969/12/31/18:00:29.272,(-38 -42 -44 -27 -14 -37 -8 -6)
1969/12/31/18:00:29.272,(-4 10 -66 -15 -31 -60 -19 1)
1969/12/31/18:00:29.281,(71 79 96 75 29 13 6 48)
1969/12/31/18:00:29.281,(-60 -110 -93 -13 22 77 34 -42)
1969/12/31/18:00:29.283,(26 0 -96 -19 -8 1 8 16)
1969/12/31/18:00:29.283,(44 70 96 71 0 -18 8 11)
1969/12/31/18:00:29.304,(-7 -126 -128 -13 34 17 13 4)
1969/12/31/18:00:29.304,(-30 -40 -80 -46 -64 -50 -22 17)
1969/12/31/18:00:29.305,(61 39 60 43 31 14 -20 -23)
1969/12/31/18:00:29.305,(-34 -121 -110 -4 -5 -19 2 3)
1969/12/31/18:00:29.317,(-44 -52 -81 -71 -11 -11 -47 -55)
1969/12/31/18:00:29.317,(61 87 120 49 -13 -17 23 32)
1969/12/31/18:00:29.326,(-81 -86 -29 -21 46 16 -19 -76)
1969/12/31/18:00:29.326,(52 -26 1 -5 -8 -8 -12 56)
1969/12/31/18:00:29.340,(10 85 58 -11 -9 35 27 17)
1969/12/31/18:00:29.340,(-58 -89 -81 -34 -10 -44 -35 -51)
1969/12/31/18:00:29.349,(-2 -62 -26 -11 -22 -4 2 5)
1969/12/31/18:00:29.349,(-68 -5 -39 -5 23 -8 -5 -83)
1969/12/31/18:00:29.364,(-46 15 49 17 61 82 18 -8)
1969/12/31/18:00:29.364,(77 116 64 32 8 -2 -4 8)
1969/12/31/18:00:29.365,(6 -20 -9 19 1 3 22 10)
1969/12/31/18:00:29.365,(-30 -128 -84 -7 -4 -35 -10 25)
1969/12/31/18:00:29.386,(31 53 -76 -82 -70 -48 -27 20)
1969/12/31/18:00:29.386,(60 21 78 84 87 96 44 56)
1969/12/31/18:00:29.388,(-3 -3 -28 11 -21 -49 -19 -23)
1969/12/31/18:00:29.388,(-50 -94 -52 -26 -3 31 -17 -41)
1969/12/31/18:00:29.401,(34 -61 -47 -32 -26 -30 14 23)
1969/12/31/18:00:29.401,(-26 -53 -50 3 7 -20 -26 -31)
1969/12/31/18:00:29.407,(17 64 57 2 -30 8 -6 -5)
1969/12/31/18:00:29.407,(-6 -43 -26 1 41 9 15 62)
1969/12/31/18:00:29.433,(28 76 61 40 -35 -37 3 13)
1969/12/31/18:00:29.433,(-29 -29 -37 -34 -20 18 0 -10)
1969/12/31/18:00:29.434,(-63 -85 -67 -25 -3 -7 2 -6)
1969/12/31/18:00:29.434,(-21 41 -7 -3 -25 -47 -22 -58)
1969/12/31/18:00:29.447,(48 17 80 45 87 74 16 21)
1969/12/31/18:00:29.447,(-11 -40 -27 14 -4 24 12 -3)
1969/12/31/18:00:29.448,(48 17 80 45 87 74 16 21)
1969/12/31/18:00:29.448,(-11 -40 -27 14 -4 24 12 -3)
1969/12/31/18:00:29.449,(38 127 110 47 40 47 30 54)
1969/12/31/18:00:29.449,(-38 9 57 39 88 93 10 -46)
1969/12/31/18:00:29.450,(-5 -82 -16 11 -17 -60 -7 14)
1969/12/31/18:00:29.450,(-15 -10 -20 -21 -2 11 -15 10)
1969/12/31/18:00:29.455,(-38 -42 -44 -27 -14 -37 -8 -6)
1969/12/31/18:00:29.455,(-4 10 -66 -15 -31 -60 -19 1)
1969/12/31/18:00:29.456,(71 79 96 75 29 13 6 48)
1969/12/31/18:00:29.456,(-60 -110 -93 -13 22 77 34 -42)
1969/12/31/18:00:29.460,(-72 -128 -128 -60 -27 -40 -16 -24)
1969/12/31/18:00:29.461,(19 87 61 29 11 -22 -5 -8)
1969/12/31/18:00:29.484,(-18 61 28 -24 -20 13 -4 -15)
1969/12/31/18:00:29.484,(14 28 27 -3 -29 -23 9 24)
1969/12/31/18:00:29.485,(-4 -57 -34 -2 -9 16 5 -2)
1969/12/31/18:00:29.485,(31 -2 -37 -19 -10 -7 18 76)
1969/12/31/18:00:29.491,(29 67 76 72 37 -15 -16 -10)
1969/12/31/18:00:29.491,(52 15 -5 -36 -10 17 16 7)
1969/12/31/18:00:29.514,(-21 -4 8 15 -38 -41 -6 -8)
1969/12/31/18:00:29.514,(-41 -79 -65 -38 22 66 5 -26)
1969/12/31/18:00:29.515,(-50 -128 -73 -5 34 -32 -5 0)
1969/12/31/18:00:29.515,(14 127 38 -9 -48 5 -10 -2)
1969/12/31/18:00:29.520,(53 -14 31 52 23 12 17 56)
1969/12/31/18:00:29.520,(-58 -128 -98 -27 -30 -51 -24 -31)
1969/12/31/18:00:29.529,(-34 -62 -108 -55 -40 -13 -22 -40)
1969/12/31/18:00:29.529,(45 113 127 57 48 44 24 28)
1969/12/31/18:00:29.543,(-24 -128 -115 -36 -37 -25 -31 -65)
1969/12/31/18:00:29.543,(38 109 96 23 -11 -18 -3 -2)
1969/12/31/18:00:29.545,(0 -28 -56 -35 -12 3 -9 -22)
1969/12/31/18:00:29.545,(-60 -80 -36 -14 -11 -23 -20 -41)
1969/12/31/18:00:29.566,(-32 -6 -36 -12 -15 -7 -17 -42)
1969/12/31/18:00:29.566,(7 -4 4 60 68 -11 -15 -3)
1969/12/31/18:00:29.582,(-4 -86 -96 -84 -79 26 8 -1)
1969/12/31/18:00:29.582,(4 38 60 17 -9 -6 8 12)
1969/12/31/18:00:29.583,(33 123 127 39 -18 -11 25 33)
1969/12/31/18:00:29.583,(-49 -103 -104 -52 3 12 -20 -43)
1969/12/31/18:00:29.589,(11 90 75 57 35 -14 0 10)
1969/12/31/18:00:29.589,(-5 -46 -33 -6 3 -4 9 -10)
1969/12/31/18:00:29.603,(-40 -104 -76 -16 4 1 -9 5)
1969/12/31/18:00:29.603,(44 109 29 -24 -49 -57 -19 3)
1969/12/31/18:00:29.605,(23 -44 3 21 9 -2 5 -14)
1969/12/31/18:00:29.605,(-77 -63 -118 -93 -9 36 15 9)
1969/12/31/18:00:29.626,(56 127 127 113 63 18 -1 -3)
1969/12/31/18:00:29.626,(16 -128 -127 -22 -9 12 7 5)
1969/12/31/18:00:29.628,(-54 -69 -88 -54 -13 -13 -10 -5)
1969/12/31/18:00:29.628,(15 71 7 31 23 -18 -18 -18)
1969/12/31/18:00:29.640,(28 -20 -24 -10 -23 6 14 27)
1969/12/31/18:00:29.640,(35 -72 -57 -2 6 3 3 27)
1969/12/31/18:00:29.649,(22 61 -27 7 17 28 31 79)
1969/12/31/18:00:29.649,(32 19 29 29 -2 -38 -8 11)
1969/12/31/18:00:29.663,(-10 -20 -39 -12 32 26 0 -7)
1969/12/31/18:00:29.663,(-59 -44 -30 -30 -48 24 2 -3)
1969/12/31/18:00:29.671,(9 63 -11 -11 3 -27 -21 -35)
1969/12/31/18:00:29.671,(-22 65 73 52 17 29 -10 -23)
1969/12/31/18:00:29.686,(72 65 34 11 17 7 13 38)
1969/12/31/18:00:29.686,(-40 -12 45 15 -4 -21 -6 -20)
1969/12/31/18:00:29.688,(-29 -128 -117 -52 -8 -2 -2 0)
1969/12/31/18:00:29.688,(43 63 22 10 13 12 18 40)
1969/12/31/18:00:29.700,(26 38 62 51 3 8 14 6)
1969/12/31/18:00:29.700,(-22 -100 -112 -15 1 -25 -11 -9)
1969/12/31/18:00:29.715,(30 125 127 36 -9 -11 0 -21)
1969/12/31/18:00:29.715,(45 48 67 16 -5 29 -3 10)
1969/12/31/18:00:29.724,(-60 -128 -103 -36 7 -1 1 -14)
1969/12/31/18:00:29.724,(-7 -25 32 -4 -8 6 19 -1)
1969/12/31/18:00:29.725,(35 6 2 32 25 7 10 32)
1969/12/31/18:00:29.725,(29 12 -6 15 21 -12 -4 10)
1969/12/31/18:00:29.746,(-53 -44 -21 -27 -27 16 -7 -20)
1969/12/31/18:00:29.746,(-30 -9 -26 9 50 -5 -7 -16)
1969/12/31/18:00:29.748,(-12 0 42 -9 -43 44 14 -19)
1969/12/31/18:00:29.748,(15 -128 -128 -65 -51 -37 -12 -12)
1969/12/31/18:00:29.760,(-6 101 98 29 19 6 6 6)
1969/12/31/18:00:29.760,(-88 -67 -91 -35 -21 -27 -34 -76)
1969/12/31/18:00:29.769,(103 102 120 102 46 13 15 47)
1969/12/31/18:00:29.769,(-18 -120 -104 -22 -14 -14 4 18)
1969/12/31/18:00:29.783,(-51 -128 -128 -74 -40 -33 -12 -18)
1969/12/31/18:00:29.783,(28 127 127 48 24 27 12 15)
1969/12/31/18:00:29.785,(-28 28 -7 -9 10 10 5 -12)
1969/12/31/18:00:29.785,(-9 -17 11 3 -9 -21 -15 -11)
1969/12/31/18:00:29.806,(-4 -105 -102 -28 18 -10 -10 5)
1969/12/31/18:00:29.806,(71 84 48 1 -22 28 12 58)
1969/12/31/18:00:29.808,(18 42 31 2 18 12 15 30)
1969/12/31/18:00:29.808,(15 35 38 5 -9 -12 -16 -24)
1969/12/31/18:00:29.820,(-26 -96 -78 -4 18 -22 -19 -6)
1969/12/31/18:00:29.820,(24 -9 -57 -39 -34 -12 21 44)
1969/12/31/18:00:29.829,(-7 65 80 3 6 44 -4 0)
1969/12/31/18:00:29.829,(-25 -40 29 13 -1 3 9 2)
1969/12/31/18:00:29.851,(49 69 0 -17 -8 -18 0 29)
1969/12/31/18:00:29.851,(-74 -11 35 22 26 11 -12 -48)
1969/12/31/18:00:29.853,(-39 -128 -128 -43 -15 -36 -12 3)
1969/12/31/18:00:29.853,(18 120 84 28 14 21 13 12)
1969/12/31/18:00:29.866,(-37 -19 3 5 -4 25 11 -8)
1969/12/31/18:00:29.866,(22 -28 -16 0 10 10 -5 -2)
1969/12/31/18:00:29.874,(-21 -86 -48 -41 -48 -27 -8 -27)
1969/12/31/18:00:29.874,(48 -19 -1 33 29 -27 -10 42)
1969/12/31/18:00:29.880,(-38 -53 -41 -41 -67 -28 -33 -65)
1969/12/31/18:00:29.880,(21 94 4 -22 -28 20 19 24)
1969/12/31/18:00:29.889,(3 38 56 32 15 5 -13 -26)
1969/12/31/18:00:29.889,(-12 -122 -113 -12 11 -15 -5 -7)
1969/12/31/18:00:29.904,(4 -34 -25 -1 21 28 0 24)
1969/12/31/18:00:29.904,(32 47 46 21 10 24 29 5)
1969/12/31/18:00:29.906,(-48 -116 -95 -50 -26 -14 -5 -10)
1969/12/31/18:00:29.906,(26 13 24 26 56 27 11 16)
1969/12/31/18:00:29.926,(26 125 121 27 -24 -25 -10 1)
1969/12/31/18:00:29.926,(3 -63 -16 9 -2 -19 -9 -8)
1969/12/31/18:00:29.934,(36 -74 -98 -48 -17 4 24 56)
1969/12/31/18:00:29.934,(-31 66 100 46 17 22 6 -23)
1969/12/31/18:00:29.940,(10 6 -55 -24 5 10 -7 -26)
1969/12/31/18:00:29.940,(57 85 80 44 18 -15 -9 4)
1969/12/31/18:00:29.949,(-3 -20 18 4 -21 -26 -16 -11)
1969/12/31/18:00:29.949,(-36 -128 -128 -87 -43 2 4 26)
1969/12/31/18:00:29.964,(2 89 -8 -3 7 -1 -3 -10)
1969/12/31/18:00:29.964,(-30 -63 -14 29 8 -22 -12 -14)
1969/12/31/18:00:29.971,(8 -9 -90 -45 -61 -42 -31 -17)
1969/12/31/18:00:29.971,(13 87 86 45 24 47 40 21)
1969/12/31/18:00:29.986,(-43 -76 -68 -19 -4 -17 -3 -10)
1969/12/31/18:00:29.986,(35 84 86 44 31 15 18 49)
1969/12/31/18:00:29.994,(-26 -102 -57 -14 -1 -26 -29 -30)
1969/12/31/18:00:29.994,(-27 -83 -128 -75 -29 16 1 -6)
1969/12/31/18:00:30.000,(103 97 127 95 51 47 46 54)
1969/12/31/18:00:30.000,(12 -128 -120 -35 -14 -25 -18 -4)
1969/12/31/18:00:30.009,(-13 -49 -38 23 34 16 17 18)
1969/12/31/18:00:30.009,(18 70 34 46 35 -10 -19 -22)
1969/12/31/18:00:30.024,(-18 -56 -35 -43 -54 -28 10 10)
1969/12/31/18:00:30.024,(-42 -102 -76 -46 -23 6 -27 -33)
1969/12/31/18:00:30.026,(-16 112 70 28 33 10 1 -14)
1969/12/31/18:00:30.026,(34 46 55 57 3 -6 -3 -14)
1969/12/31/18:00:30.046,(15 16 -1 19 15 -1 9 21)
1969/12/31/18:00:30.046,(6 -23 -7 -7 13 35 -1 -8)
1969/12/31/18:00:30.048,(-42 -53 -11 -13 -15 -8 -12 -22)
1969/12/31/18:00:30.048,(-8 -90 -71 -37 -31 -50 -25 7)
1969/12/31/18:00:30.060,(13 -19 -5 12 44 91 55 40)
1969/12/31/18:00:30.060,(20 69 -16 -40 -38 -45 -14 -13)
1969/12/31/18:00:30.069,(23 123 127 86 47 22 22 7)
1969/12/31/18:00:30.069,(-22 -80 -51 -6 -15 -39 -16 -15)
1969/12/31/18:00:30.083,(-18 -66 -83 -69 -7 24 -24 2)
1969/12/31/18:00:30.083,(38 43 52 59 25 2 12 -2)
1969/12/31/18:00:30.097,(-24 -77 -83 1 15 -19 -4 -16)
1969/12/31/18:00:30.097,(75 18 -8 -2 24 40 -7 40)
1969/12/31/18:00:30.114,(-69 -92 -22 -9 -28 -18 3 -32)
1969/12/31/18:00:30.114,(-36 -53 -50 -27 -5 0 -7 -20)
1969/12/31/18:00:30.115,(-29 -50 6 -5 -24 -9 6 5)
1969/12/31/18:00:30.115,(-24 7 -23 -18 -7 -4 -13 -32)
1969/12/31/18:00:30.120,(11 -99 -52 -13 -15 -9 -4 -4)
1969/12/31/18:00:30.120,(-9 97 30 -5 -2 -9 -9 -19)
1969/12/31/18:00:30.129,(31 49 80 42 11 -22 1 15)
1969/12/31/18:00:30.129,(-52 -87 -67 -40 10 46 8 -13)
1969/12/31/18:00:30.144,(-6 -39 -26 -9 -50 -28 -9 6)
1969/12/31/18:00:30.144,(-38 56 22 -9 -37 -17 3 -17)
1969/12/31/18:00:30.145,(50 -71 -81 -26 19 29 11 20)
1969/12/31/18:00:30.145,(-2 8 1 -3 -11 -1 -13 -28)
1969/12/31/18:00:30.166,(9 20 50 35 34 -43 -16 -15)
1969/12/31/18:00:30.166,(-44 -128 -128 -39 -35 -14 -20 -4)
1969/12/31/18:00:30.168,(49 123 67 24 13 15 2 0)
1969/12/31/18:00:30.168,(-15 5 12 -2 -26 -8 18 17)
1969/12/31/18:00:30.180,(-3 23 28 36 27 -4 -8 -1)
1969/12/31/18:00:30.180,(30 -61 -44 -4 2 -12 5 46)
1969/12/31/18:00:30.189,(27 110 98 0 -5 49 -1 -10)
1969/12/31/18:00:30.189,(20 46 67 24 3 -3 33 24)
1969/12/31/18:00:30.204,(-11 -82 -58 -16 10 19 -10 -9)
1969/12/31/18:00:30.204,(-43 -35 3 33 37 -14 -4 3)
1969/12/31/18:00:30.205,(-79 -128 -110 -68 -32 -34 -16 -35)
1969/12/31/18:00:30.205,(21 14 -70 -25 -26 -4 -16 2)
1969/12/31/18:00:30.227,(-3 61 21 -9 -27 -4 15 -3)
1969/12/31/18:00:30.227,(20 64 64 53 42 9 -7 -5)
1969/12/31/18:00:30.228,(11 27 26 28 9 -11 7 13)
1969/12/31/18:00:30.228,(-30 49 56 -15 -15 12 -10 -46)
1969/12/31/18:00:30.240,(27 -32 -45 -10 0 -6 -5 9)
1969/12/31/18:00:30.240,(28 -10 5 23 1 -28 -7 -2)
1969/12/31/18:00:30.249,(-22 -82 -113 -44 -3 37 9 20)
1969/12/31/18:00:30.249,(-5 -22 30 31 -3 -3 -3 -25)
1969/12/31/18:00:30.264,(6 -65 -43 0 15 -19 -13 -2)
1969/12/31/18:00:30.264,(-27 -112 -63 -50 -51 -7 10 5)
1969/12/31/18:00:30.266,(-3 85 72 16 -17 -5 12 -7)
1969/12/31/18:00:30.266,(28 -24 -29 -11 12 12 4 19)
1969/12/31/18:00:30.286,(-6 51 32 11 27 -5 1 -2)
1969/12/31/18:00:30.286,(4 -10 -7 -27 -11 28 12 12)
1969/12/31/18:00:30.288,(50 64 34 29 14 -1 -7 14)
1969/12/31/18:00:30.288,(-22 -66 -29 -19 -19 2 -1 4)
1969/12/31/18:00:30.300,(0 8 10 6 -5 -19 2 -2)
1969/12/31/18:00:30.300,(3 10 -18 -6 8 17 3 -17)
1969/12/31/18:00:30.309,(15 -20 26 15 -1 -20 9 60)
1969/12/31/18:00:30.309,(-18 -28 45 26 43 -2 -10 -38)
1969/12/31/18:00:30.323,(-19 103 59 6 -40 -2 -30 -80)
1969/12/31/18:00:30.323,(63 13 14 8 8 9 21 35)
1969/12/31/18:00:30.325,(-23 -58 -45 3 11 3 -8 -7)
1969/12/31/18:00:30.325,(-13 -120 -67 -10 4 -7 0 2)
1969/12/31/18:00:30.347,(-93 -128 -63 -37 -17 -7 -10 -34)
1969/12/31/18:00:30.347,(14 45 -1 11 9 -31 -3 6)
1969/12/31/18:00:30.348,(5 20 21 -16 0 54 10 -25)
1969/12/31/18:00:30.348,(4 75 35 2 -1 -21 -10 15)
1969/12/31/18:00:30.359,(10 -25 -25 25 48 10 0 2)
1969/12/31/18:00:30.360,(-32 -79 -83 -50 -38 14 18 9)
1969/12/31/18:00:30.368,(70 45 63 83 34 -23 -12 -9)
1969/12/31/18:00:30.368,(-79 -111 -61 4 4 20 -2 -22)
1969/12/31/18:00:30.383,(7 -34 -32 -41 -59 -6 20 38)
1969/12/31/18:00:30.383,(-19 -41 -30 1 13 -2 -2 32)
1969/12/31/18:00:30.385,(-31 14 -7 -8 -18 -11 -6 -49)
1969/12/31/18:00:30.385,(24 -25 -73 -37 -23 2 4 7)
1969/12/31/18:00:30.406,(22 119 127 86 38 12 3 7)
1969/12/31/18:00:30.406,(0 -64 -35 -16 -10 -6 -19 -17)
1969/12/31/18:00:30.408,(-6 -62 -51 -16 -6 -56 -10 2)
1969/12/31/18:00:30.408,(-8 -63 -54 -6 15 49 4 11)
1969/12/31/18:00:30.428,(20 63 57 -17 -18 24 23 10)
1969/12/31/18:00:30.429,(-34 5 5 0 -5 -5 -12 -20)
1969/12/31/18:00:30.430,(-5 -107 -59 -15 -4 -6 -5 14)
1969/12/31/18:00:30.430,(51 83 73 44 13 -26 -1 15)
1969/12/31/18:00:30.443,(22 -17 -10 15 -7 -19 -7 6)
1969/12/31/18:00:30.443,(-35 15 -45 -51 -35 8 -16 -40)
1969/12/31/18:00:30.445,(32 28 61 42 15 -8 20 26)
1969/12/31/18:00:30.445,(-16 -114 -123 -33 -4 -42 -9 1)
1969/12/31/18:00:30.466,(-40 -81 -101 -33 1 56 -11 -12)
1969/12/31/18:00:30.466,(85 107 127 100 30 2 19 28)
1969/12/31/18:00:30.468,(-36 -91 -99 -41 -21 -22 -20 -24)
1969/12/31/18:00:30.468,(7 28 18 -8 -8 5 15 18)
1969/12/31/18:00:30.489,(20 -21 -11 -11 7 3 -7 8)
1969/12/31/18:00:30.489,(-15 -62 -31 -3 -6 -16 14 4)
1969/12/31/18:00:30.490,(-36 -7 13 -13 5 30 -2 -10)
1969/12/31/18:00:30.490,(36 43 49 23 -8 -26 7 22)
1969/12/31/18:00:30.504,(22 58 23 -23 -25 -20 5 18)
1969/12/31/18:00:30.504,(-56 -105 -85 -19 7 5 -30 -50)
1969/12/31/18:00:30.505,(76 111 86 22 15 32 30 72)
1969/12/31/18:00:30.505,(-18 43 25 -14 -38 -31 -20 -33)
1969/12/31/18:00:30.526,(-2 -19 -24 18 36 24 2 17)
1969/12/31/18:00:30.526,(24 56 33 -6 3 13 9 14)
1969/12/31/18:00:30.528,(-74 -128 -121 -31 -11 -28 -12 -11)
1969/12/31/18:00:30.528,(4 60 41 22 20 24 -8 -20)
1969/12/31/18:00:30.549,(35 4 11 4 -11 -11 8 62)
1969/12/31/18:00:30.549,(36 -26 21 27 15 -13 1 3)
1969/12/31/18:00:30.550,(-75 -128 -102 -56 -24 6 -20 -29)
1969/12/31/18:00:30.550,(24 6 -56 -37 -16 4 18 20)
1969/12/31/18:00:30.571,(-29 90 95 46 24 -12 -7 -34)
1969/12/31/18:00:30.571,(-17 7 23 49 77 42 4 -26)
1969/12/31/18:00:30.573,(-19 -64 -52 -62 -58 -11 -14 -24)
1969/12/31/18:00:30.573,(-6 -27 -47 -9 -3 -11 1 19)
1969/12/31/18:00:30.587,(66 83 80 3 -12 -4 7 6)
1969/12/31/18:00:30.587,(-18 -93 -57 -31 -20 -11 -11 1)
1969/12/31/18:00:30.588,(3 -27 -5 24 24 15 9 -3)
1969/12/31/18:00:30.588,(-21 54 58 43 34 -25 -11 -13)
1969/12/31/18:00:30.609,(-58 -128 -103 -59 -31 33 15 8)
1969/12/31/18:00:30.609,(27 127 127 30 -9 0 9 8)
1969/12/31/18:00:30.610,(-8 23 2 1 1 -1 -8 -19)
1969/12/31/18:00:30.610,(15 -63 -44 -24 -21 -15 2 39)
1969/12/31/18:00:30.623,(-10 36 33 24 8 -33 -17 -15)
1969/12/31/18:00:30.623,(-34 -44 -37 -29 -23 -8 -9 -12)
1969/12/31/18:00:30.630,(18 -25 -55 -10 23 24 9 2)
1969/12/31/18:00:30.630,(25 89 76 29 7 0 5 7)
1969/12/31/18:00:30.647,(-3 -58 -43 14 16 -11 6 -3)
1969/12/31/18:00:30.647,(-15 -79 -82 -53 -41 10 3 -1)
1969/12/31/18:00:30.648,(73 127 67 48 17 -14 17 39)
1969/12/31/18:00:30.648,(-35 -100 -44 -29 -8 9 -17 -36)
1969/12/31/18:00:30.669,(13 -23 -59 7 48 -1 2 -23)
1969/12/31/18:00:30.669,(2 120 102 3 -49 -8 2 0)
1969/12/31/18:00:30.670,(-7 -96 -50 -10 0 8 6 36)
1969/12/31/18:00:30.670,(-15 -16 -23 -12 -23 -26 -16 -14)
1969/12/31/18:00:30.683,(7 -5 24 13 0 -12 -2 0)
1969/12/31/18:00:30.683,(-13 -68 -61 -9 48 27 1 4)
1969/12/31/18:00:30.690,(-26 -46 -58 -38 -34 -9 -12 -32)
1969/12/31/18:00:30.690,(15 74 76 47 10 17 7 -2)
1969/12/31/18:00:30.706,(-6 -103 -80 -3 5 -30 -10 -7)
1969/12/31/18:00:30.706,(65 6 0 10 -32 -4 3 35)
1969/12/31/18:00:30.708,(-51 -5 36 17 11 -1 -16 -32)
1969/12/31/18:00:30.708,(-14 -89 -52 -10 8 17 4 1)
1969/12/31/18:00:30.728,(18 109 56 -2 -26 -9 11 0)
1969/12/31/18:00:30.728,(2 -59 -22 -22 2 15 2 7)
1969/12/31/18:00:30.736,(13 90 -18 -18 -6 -11 -9 2)
1969/12/31/18:00:30.736,(-20 -12 30 23 12 -4 2 -10)
1969/12/31/18:00:30.743,(24 23 39 40 25 24 3 8)
1969/12/31/18:00:30.743,(-14 -16 -30 0 -6 -25 -10 -11)
1969/12/31/18:00:30.750,(34 2 23 2 16 3 -5 -8)
1969/12/31/18:00:30.750,(-29 -32 -27 -27 -14 0 1 -11)
1969/12/31/18:00:30.766,(17 -24 -20 -22 -20 10 6 20)
1969/12/31/18:00:30.766,(-31 -23 -13 -21 -13 -13 -7 -17)
1969/12/31/18:00:30.774,(51 80 39 15 -9 -8 2 13)
1969/12/31/18:00:30.774,(1 1 19 55 74 53 30 12)
1969/12/31/18:00:30.789,(34 17 -1 -10 -8 -4 -10 20)
1969/12/31/18:00:30.789,(-38 -15 11 34 33 7 4 -15)
1969/12/31/18:00:30.790,(28 -20 5 -7 -28 -17 0 18)
1969/12/31/18:00:30.790,(1 28 -2 -48 -49 -5 -5 -13)
1969/12/31/18:00:30.811,(-11 -12 -3 22 25 -1 2 2)
1969/12/31/18:00:30.811,(-4 13 -11 -3 2 13 -1 -38)
1969/12/31/18:00:30.813,(-14 8 33 11 3 -9 -27 -8)
1969/12/31/18:00:30.813,(15 -83 -51 -26 -13 -2 5 8)
1969/12/31/18:00:30.826,(-13 -42 -75 -38 -23 -10 -11 -10)
1969/12/31/18:00:30.826,(48 127 84 15 3 -4 4 19)
1969/12/31/18:00:30.828,(-28 -20 16 20 16 12 6 -19)
1969/12/31/18:00:30.828,(-8 -19 -13 -1 -11 -7 -7 -8)
1969/12/31/18:00:30.849,(-60 -41 -37 -27 -17 -1 -10 -31)
1969/12/31/18:00:30.849,(7 -41 -22 -5 -10 -6 1 27)
1969/12/31/18:00:30.850,(20 33 14 4 22 -5 12 25)
1969/12/31/18:00:30.850,(-31 -17 -21 -25 -22 -30 -46 -23)
1969/12/31/18:00:30.863,(-14 -15 8 4 12 68 32 7)
1969/12/31/18:00:30.863,(-25 7 10 33 41 -9 -10 53)
1969/12/31/18:00:30.871,(-21 -44 11 11 -6 -30 -13 -44)
1969/12/31/18:00:30.871,(47 63 9 3 14 44 -12 35)
1969/12/31/18:00:30.886,(9 -14 -18 -29 -26 -37 26 18)
1969/12/31/18:00:30.886,(23 31 15 -2 -1 11 9 7)
1969/12/31/18:00:30.900,(-1 -37 -19 -14 -14 8 22 29)
1969/12/31/18:00:30.900,(-40 17 2 1 0 -12 6 -18)
1969/12/31/18:00:30.909,(21 9 22 8 0 -1 -9 -9)
1969/12/31/18:00:30.909,(4 4 -12 -5 -1 -4 -8 -7)
1969/12/31/18:00:30.910,(11 21 5 11 13 9 17 27)
1969/12/31/18:00:30.910,(9 40 14 0 -7 0 21 -13)
1969/12/31/18:00:30.922,(-79 -54 -1 5 8 -1 -1 -26)
1969/12/31/18:00:30.922,(-35 -62 -19 -7 -8 -30 -52 -58)
1969/12/31/18:00:30.931,(32 54 6 2 7 15 -5 0)
1969/12/31/18:00:30.931,(-2 1 11 6 2 -2 3 0)
1969/12/31/18:00:30.946,(50 41 5 -1 -7 -10 -3 21)
1969/12/31/18:00:30.946,(64 7 20 22 21 20 41 65)
1969/12/31/18:00:30.948,(-43 -8 -18 -15 -13 -7 -26 -82)
1969/12/31/18:00:30.948,(-22 -47 -10 -3 1 -7 -8 -20)
1969/12/31/18:00:30.968,(21 8 15 10 4 3 9 43)
1969/12/31/18:00:30.968,(-10 28 -11 -15 -12 -6 3 -15)
1969/12/31/18:00:30.976,(-10 -16 2 7 8 11 -5 10)
1969/12/31/18:00:30.976,(38 30 -3 -7 -13 -13 8 12)
1969/12/31/18:00:30.992,(7 -23 -5 0 2 1 -16 -20)
1969/12/31/18:00:30.992,(-19 -22 6 4 6 7 6 1)
1969/12/31/18:00:30.993,(12 34 3 -2 -5 -3 -5 -16)
1969/12/31/18:00:30.993,(21 -18 -4 -2 0 -4 0 18)
1969/12/31/18:00:31.006,(15 14 3 0 0 3 -2 14)
1969/12/31/18:00:31.006,(-3 2 -10 -9 -7 -8 -5 -2)
1969/12/31/18:00:31.012,(6 -33 1 10 10 9 18 34)
1969/12/31/18:00:31.012,(14 -4 -11 -7 -8 -4 2 17)
1969/12/31/18:00:31.035,(13 28 5 -2 -7 -11 -26 -41)
1969/12/31/18:00:31.035,(13 -5 -1 -3 -8 -6 1 -5)
1969/12/31/18:00:31.044,(-21 -7 -2 -2 5 7 2 -5)
1969/12/31/18:00:31.044,(-3 -7 6 8 7 7 9 13)
1969/12/31/18:00:31.045,(-22 -1 -3 -3 -3 -5 -8 -12)
1969/12/31/18:00:31.045,(-15 -21 -8 -4 -3 0 -4 -12)
1969/12/31/18:00:31.051,(-7 11 4 1 -4 -2 -2 2)
1969/12/31/18:00:31.051,(-4 -8 -2 -3 -2 -4 -1 -1)
1969/12/31/18:00:31.067,(-14 2 -5 -5 -3 -3 -6 -24)
1969/12/31/18:00:31.067,(14 -29 -13 -5 -1 1 1 17)
1969/12/31/18:00:31.068,(47 41 16 7 2 1 5 26)
1969/12/31/18:00:31.068,(-12 -20 -15 -7 -4 -3 0 -7)
1969/12/31/18:00:31.088,(-35 -31 -37 -20 -10 -5 -10 -23)
1969/12/31/18:00:31.088,(15 59 59 22 7 4 6 -2)
1969/12/31/18:00:31.095,(-11 -8 -3 7 2 0 0 -4)
1969/12/31/18:00:31.095,(-13 -50 -15 -1 -4 -5 -4 3)
1969/12/31/18:00:31.102,(9 21 -10 -7 -4 -2 -2 8)
1969/12/31/18:00:31.102,(3 9 -7 -5 -2 -6 -6 -9)
1969/12/31/18:00:31.119,(-22 -29 -9 -1 0 2 0 -2)
1969/12/31/18:00:31.119,(26 32 2 -1 -1 5 2 -12)
1969/12/31/18:00:31.126,(-6 -6 18 7 0 -4 -8 -3)
1969/12/31/18:00:31.126,(-16 -11 -16 -9 -5 -2 -1 -10)
1969/12/31/18:00:31.140,(-11 -2 -3 -5 -3 -5 -11 -19)
1969/12/31/18:00:31.140,(-3 -10 -15 1 3 0 3 2)
1969/12/31/18:00:31.149,(-3 -40 -17 -5 -3 -3 -5 0)
1969/12/31/18:00:31.149,(8 43 9 8 8 8 2 -3)
1969/12/31/18:00:31.150,(-10 -36 -18 -10 -7 -7 -3 4)
1969/12/31/18:00:31.150,(3 56 40 11 4 2 0 -3)
1969/12/31/18:00:31.162,(-6 12 21 11 3 2 9 18)
1969/12/31/18:00:31.162,(11 -26 -31 -12 -7 -4 -7 -11)
1969/12/31/18:00:31.177,(7 3 -17 -8 0 3 2 6)
1969/12/31/18:00:31.177,(-11 -49 -5 -1 -3 -6 -7 -9)
1969/12/31/18:00:31.186,(-1 47 6 -6 -2 -3 -4 -5)
1969/12/31/18:00:31.186,(-14 -15 25 15 10 7 9 0)
1969/12/31/18:00:31.192,(-2 6 -17 -5 -2 4 4 2)
1969/12/31/18:00:31.192,(3 16 15 -2 -2 -3 -3 -7)
1969/12/31/18:00:31.209,(2 -3 22 10 2 0 -8 -3)
1969/12/31/18:00:31.209,(-10 -33 -34 -19 -10 -3 0 0)
1969/12/31/18:00:31.210,(9 50 35 9 1 0 1 5)
1969/12/31/18:00:31.210,(-10 -24 -44 -11 -2 -1 2 1)
1969/12/31/18:00:31.231,(5 5 22 8 5 2 -2 -2)
1969/12/31/18:00:31.231,(-2 11 3 3 0 -2 6 -4)
1969/12/31/18:00:31.239,(-5 -16 -7 -8 -5 -4 -5 -4)
1969/12/31/18:00:31.239,(-4 1 6 0 0 3 5 5)
1969/12/31/18:00:31.246,(-2 -19 -30 -15 -6 -6 -6 -3)
1969/12/31/18:00:31.246,(-5 -32 -19 -6 -1 0 5 7)
1969/12/31/18:00:31.252,(6 45 28 9 1 1 -10 -8)
1969/12/31/18:00:31.252,(-1 11 10 3 3 3 2 -1)
1969/12/31/18:00:31.269,(6 -5 0 4 5 3 4 4)
1969/12/31/18:00:31.269,(-11 -30 -18 -5 -4 -2 1 2)
1969/12/31/18:00:31.270,(0 4 18 4 2 1 4 5)
1969/12/31/18:00:31.270,(2 18 15 8 -1 -4 -10 -2)
1969/12/31/18:00:31.291,(2 -8 -15 -12 -7 0 7 7)
1969/12/31/18:00:31.291,(-5 -10 -3 7 5 -1 -3 -1)
1969/12/31/18:00:31.293,(-2 -14 -12 -8 -7 -6 -8 -11)
1969/12/31/18:00:31.293,(4 26 23 13 5 5 6 5)
1969/12/31/18:00:31.305,(-5 -47 -30 -8 -1 3 8 1)
1969/12/31/18:00:31.305,(-4 45 20 -3 -2 -2 -2 -6)
1969/12/31/18:00:31.320,(-6 -11 -4 10 4 2 -2 -3)
1969/12/31/18:00:31.320,(22 -17 -21 -11 -6 -7 -4 2)
1969/12/31/18:00:31.329,(0 25 17 9 0 -4 -6 -6)
1969/12/31/18:00:31.329,(-14 -55 -31 -19 -10 -2 -7 -7)
1969/12/31/18:00:31.330,(-1 28 21 21 10 6 8 7)
1969/12/31/18:00:31.330,(-14 -21 -8 2 1 0 -1 -4)
1969/12/31/18:00:31.352,(5 -9 -4 -17 -10 -5 -4 2)
1969/12/31/18:00:31.352,(12 48 20 18 10 5 1 -1)
1969/12/31/18:00:31.353,(-16 -46 -10 -9 -6 -2 1 0)
1969/12/31/18:00:31.353,(4 44 3 -5 -1 -2 -3 -7)
1969/12/31/18:00:31.365,(7 6 7 1 1 2 -3 2)
1969/12/31/18:00:31.365,(-11 -45 -16 -8 -4 -7 -9 -6)
1969/12/31/18:00:31.372,(6 28 15 -6 -1 0 2 1)
1969/12/31/18:00:31.372,(-1 4 4 5 -1 0 -1 -3)
1969/12/31/18:00:31.389,(-13 -29 -18 -10 -4 -1 -1 -1)
1969/12/31/18:00:31.389,(19 63 16 12 4 0 0 1)
1969/12/31/18:00:31.390,(6 -30 -21 -4 1 3 2 2)
1969/12/31/18:00:31.390,(-12 -33 -2 -5 -4 -2 -1 2)
1969/12/31/18:00:31.411,(-13 -19 -2 -1 -4 -3 -1 -5)
1969/12/31/18:00:31.411,(3 20 31 10 1 -3 -5 -7)
1969/12/31/18:00:31.412,(-5 -30 -16 -11 -5 -4 -1 -1)
1969/12/31/18:00:31.412,(0 10 -52 -32 -9 -4 -3 -2)
1969/12/31/18:00:31.425,(8 -1 6 29 17 8 6 8)
1969/12/31/18:00:31.425,(-10 -29 -18 -8 -6 -3 -4 -3)
1969/12/31/18:00:31.432,(7 35 40 12 3 2 4 4)
1969/12/31/18:00:31.432,(-9 -32 -8 6 0 -2 -2 0)
1969/12/31/18:00:31.448,(-1 12 3 -7 -5 -2 -2 -2)
1969/12/31/18:00:31.448,(4 31 12 0 -2 -2 -4 -4)
1969/12/31/18:00:31.456,(-1 -13 -19 -3 0 -1 1 -2)
1969/12/31/18:00:31.456,(1 19 16 -1 -1 -1 -3 -3)
1969/12/31/18:00:31.471,(-4 -9 7 0 -3 -4 -3 -3)
1969/12/31/18:00:31.471,(16 56 69 26 11 6 5 9)
1969/12/31/18:00:31.473,(-7 -14 -19 -9 -6 -4 -3 -5)
1969/12/31/18:00:31.473,(-3 2 2 -1 -2 -2 -4 -5)
1969/12/31/18:00:31.485,(2 21 3 5 3 1 -1 -6)
1969/12/31/18:00:31.485,(-16 -49 -41 -20 -9 -5 -5 -4)
1969/12/31/18:00:31.494,(-2 2 -16 -10 -3 -3 -3 -5)
1969/12/31/18:00:31.494,(0 2 3 1 -1 -1 -1 -2)
1969/12/31/18:00:31.508,(5 3 -3 0 0 3 3 6)
1969/12/31/18:00:31.508,(-7 -41 -45 -27 -12 -6 -2 -2)
1969/12/31/18:00:31.510,(10 40 54 28 9 2 -1 0)
1969/12/31/18:00:31.510,(-6 -11 -2 -5 -5 -1 1 1)
1969/12/31/18:00:31.532,(6 22 6 -2 -4 -2 0 -1)
1969/12/31/18:00:31.532,(-6 -17 -18 6 2 0 -3 -3)
1969/12/31/18:00:31.533,(2 -3 -13 -2 -1 2 1 1)
1969/12/31/18:00:31.533,(-4 -8 0 0 0 1 0 1)
1969/12/31/18:00:31.546,(-2 -2 2 -6 -3 -3 -2 -1)
1969/12/31/18:00:31.546,(-4 2 5 1 0 0 1 -3)
1969/12/31/18:00:31.554,(-4 -11 -13 -10 -4 -4 -3 -2)
1969/12/31/18:00:31.554,(-1 -2 6 5 2 -1 0 -3)
1969/12/31/18:00:31.569,(-4 -5 -3 -3 -3 -2 -1 -4)
1969/12/31/18:00:31.569,(2 5 4 5 3 2 2 4)
1969/12/31/18:00:31.571,(-2 -4 -2 -4 -2 -2 -1 -2)
1969/12/31/18:00:31.571,(-2 0 5 1 0 1 -1 -1)
1969/12/31/18:00:31.591,(1 -12 -10 -1 -1 -1 2 3)
1969/12/31/18:00:31.591,(-1 -13 -22 -13 -6 -3 -1 -1)
1969/12/31/18:00:31.593,(5 22 14 15 6 4 2 1)
1969/12/31/18:00:31.593,(-2 9 11 1 -2 -4 -3 -3)
1969/12/31/18:00:31.605,(-18 -52 -37 -16 -7 -4 -5 -6)
1969/12/31/18:00:31.605,(-1 12 4 6 4 1 1 -3)
1969/12/31/18:00:31.614,(-2 -16 -15 -10 -2 0 -1 -1)
1969/12/31/18:00:31.614,(2 6 8 10 2 0 -1 2)
1969/12/31/18:00:31.628,(2 8 5 3 -1 0 -1 0)
1969/12/31/18:00:31.628,(0 -1 2 -3 -4 -2 -1 1)
1969/12/31/18:00:31.630,(-2 -9 -13 -9 -4 -3 -3 -1)
1969/12/31/18:00:31.630,(1 -4 0 -2 3 2 3 3)
1969/12/31/18:00:31.651,(1 14 11 4 -1 0 -1 -1)
1969/12/31/18:00:31.651,(0 4 6 -3 -3 -3 -1 -1)
1969/12/31/18:00:31.653,(-3 -7 -8 -5 -5 -3 -1 -2)
1969/12/31/18:00:31.653,(0 -5 -6 -4 -4 -5 -3 -3)
1969/12/31/18:00:31.665,(2 12 6 5 3 1 1 -1)
1969/12/31/18:00:31.665,(1 3 -1 -2 -3 -1 0 1)
1969/12/31/18:00:31.674,(1 -8 -5 -2 -2 -3 -1 0)
1969/12/31/18:00:31.674,(-3 -3 -4 -2 -3 -1 -1 -1)
1969/12/31/18:00:31.688,(1 8 6 5 5 2 -1 1)
1969/12/31/18:00:31.688,(-1 -3 -1 -2 0 1 1 0)
1969/12/31/18:00:31.690,(-4 -5 5 7 6 1 -2 -1)
1969/12/31/18:00:31.690,(2 3 0 0 0 0 -1 1)
1969/12/31/18:00:31.712,(-2 0 -6 -2 0 -1 -1 -2)
1969/12/31/18:00:31.712,(-1 -1 1 0 -4 -1 -2 -3)
1969/12/31/18:00:31.714,(-2 -6 -7 -4 -1 -2 1 -1)
1969/12/31/18:00:31.714,(0 2 3 1 4 1 1 -2)
1969/12/31/18:00:31.725,(2 5 5 3 3 1 -2 1)
1969/12/31/18:00:31.725,(2 3 5 3 2 0 1 1)
1969/12/31/18:00:31.734,(-5 -2 -9 -8 -4 -2 -3 -4)
1969/12/31/18:00:31.734,(-5 -9 -1 1 -3 -2 -2 -2)
1969/12/31/18:00:31.748,(-1 2 3 -1 0 0 -2 -2)
1969/12/31/18:00:31.748,(-5 -2 -1 -2 -2 0 -4 -4)
1969/12/31/18:00:31.750,(0 -2 -5 -7 -7 -4 -3 -2)
1969/12/31/18:00:31.750,(-2 -5 -10 -7 -5 -3 0 1)
1969/12/31/18:00:31.771,(-4 -1 1 2 -2 -3 0 -3)
1969/12/31/18:00:31.771,(0 3 2 2 2 -2 -4 -4)
1969/12/31/18:00:31.773,(1 5 9 5 2 -1 -4 -4)
1969/12/31/18:00:31.773,(-2 -9 -9 -4 1 0 0 -2)
1969/12/31/18:00:31.785,(1 3 6 1 0 1 1 3)
1969/12/31/18:00:31.785,(7 7 5 1 -1 0 1 3)
1969/12/31/18:00:31.800,(-15 -22 -20 -9 -6 -2 -6 -7)
1969/12/31/18:00:31.800,(3 4 5 0 -3 -3 -3 -3)
1969/12/31/18:00:31.839,(2 5 3 2 1 1 0 2)
1969/12/31/18:00:31.839,(-2 -5 -10 -4 -3 -3 -1 -1)
1969/12/31/18:00:31.847,(2 3 10 3 2 2 2 3)
1969/12/31/18:00:31.847,(2 7 10 7 1 0 2 2)
1969/12/31/18:00:31.848,(-2 -4 -6 -5 -4 0 0 0)
1969/12/31/18:00:31.848,(-1 2 4 -3 0 0 0 1)
1969/12/31/18:00:31.850,(-1 -5 -8 0 -2 -2 0 2)
1969/12/31/18:00:31.850,(-2 -3 -2 -6 -2 -2 -4 -3)
1969/12/31/18:00:31.854,(2 6 3 5 -2 -2 -2 0)
1969/12/31/18:00:31.854,(0 -1 1 3 2 2 0 4)
1969/12/31/18:00:31.860,(-2 -2 -7 -4 -2 -1 0 0)
1969/12/31/18:00:31.860,(-1 -1 -5 -4 1 2 -1 0)
1969/12/31/18:00:31.868,(-2 -4 -7 -6 -1 0 -1 -2)
1969/12/31/18:00:31.868,(-4 0 1 -2 -4 -4 -3 -1)
1969/12/31/18:00:31.870,(4 5 5 5 4 0 3 4)
1969/12/31/18:00:31.870,(-6 -9 -12 -7 -4 -4 -3 -5)
1969/12/31/18:00:31.891,(-5 -5 -1 3 1 -4 0 -2)
1969/12/31/18:00:31.891,(-7 -7 -8 -2 -1 -2 -2 -2)
1969/12/31/18:00:31.893,(2 -1 -5 -4 0 0 0 1)
1969/12/31/18:00:31.893,(1 5 11 2 -1 -3 -1 -1)
1969/12/31/18:00:31.905,(2 4 -1 -4 -3 -1 0 0)
1969/12/31/18:00:31.905,(-4 -3 -1 1 0 -1 0 -2)
1969/12/31/18:00:31.914,(-1 -2 -2 -2 -1 -1 -2 -1)
1969/12/31/18:00:31.914,(-1 -4 -4 -1 -1 0 -1 -2)
1969/12/31/18:00:31.929,(-3 -4 -3 -8 -8 -4 -3 -5)
1969/12/31/18:00:31.929,(-1 2 0 1 0 0 0 1)
1969/12/31/18:00:31.936,(-2 -3 -3 -5 -2 -1 0 -2)
1969/12/31/18:00:31.936,(-1 -2 -2 2 1 0 0 0)
