time,.data
1969/12/31/18:00:06.674000,(4 11 14 -2 -22 14 5 3)
1969/12/31/18:00:06.674000,(12 17 17 19 98 52 22 12)
1969/12/31/18:00:06.676000,(9 18 75 127 109 33 11 6)
1969/12/31/18:00:06.676000,(-13 -14 -21 42 -2 -6 -6 -10)
1969/12/31/18:00:06.697000,(8 -5 -21 -69 -80 -52 -14 3)
1969/12/31/18:00:06.697000,(-23 -23 -42 -105 -43 -29 -16 -17)
1969/12/31/18:00:06.698000,(-7 -2 15 -2 -12 12 -1 -5)
1969/12/31/18:00:06.698000,(-4 -4 4 0 85 10 -2 -6)
1969/12/31/18:00:06.712000,(3 2 -22 -23 -28 -1 3 3)
1969/12/31/18:00:06.713000,(4 -1 -12 -36 -61 -16 -4 1)
1969/12/31/18:00:06.720000,(7 7 27 78 75 9 2 3)
1969/12/31/18:00:06.720000,(-1 3 19 28 -10 1 2 -1)
1969/12/31/18:00:06.734000,(4 -4 -18 -14 -2 4 5 4)
1969/12/31/18:00:06.734000,(-4 -9 -10 -4 2 -8 -5 -3)
1969/12/31/18:00:06.736000,(-2 -1 -11 -90 -29 -9 -5 -2)
1969/12/31/18:00:06.736000,(4 3 10 65 -8 -1 2 3)
1969/12/31/18:00:06.757000,(-3 -5 -8 -27 8 6 1 -3)
1969/12/31/18:00:06.757000,(3 5 30 87 15 10 4 2)
1969/12/31/18:00:06.759000,(-5 -4 -19 -42 -9 -8 -6 -6)
1969/12/31/18:00:06.759000,(1 1 2 -26 -16 -6 -3 0)
1969/12/31/18:00:06.779000,(-2 -4 -6 0 -5 1 1 2)
1969/12/31/18:00:06.779000,(-3 1 6 -1 16 0 -2 -1)
1969/12/31/18:00:06.781000,(2 -2 -17 -39 2 -1 3 4)
1969/12/31/18:00:06.781000,(1 3 17 63 -6 -1 0 3)
1969/12/31/18:00:06.794000,(-4 -1 8 11 11 6 -2 -3)
1969/12/31/18:00:06.794000,(2 0 6 3 10 2 2 1)
1969/12/31/18:00:06.796000,(3 -1 -4 24 5 -1 2 4)
1969/12/31/18:00:06.796000,(4 -4 -19 -59 -29 -7 -2 1)
1969/12/31/18:00:06.817000,(-13 -2 5 -1 8 2 -4 -11)
1969/12/31/18:00:06.817000,(3 3 2 17 6 2 1 2)
1969/12/31/18:00:06.819000,(-5 -2 0 6 -5 -2 -1 -4)
1969/12/31/18:00:06.819000,(13 0 -9 -28 -11 -3 0 5)
1969/12/31/18:00:06.830000,(0 -5 3 13 3 3 2 6)
1969/12/31/18:00:06.830000,(-10 -2 1 -4 2 0 -4 -11)
1969/12/31/18:00:06.840000,(-5 -3 -3 19 5 2 2 0)
1969/12/31/18:00:06.840000,(-6 3 1 -32 -12 -2 -5 -5)
1969/12/31/18:00:06.854000,(0 1 1 23 9 2 1 7)
1969/12/31/18:00:06.854000,(1 -5 -2 -7 -7 -1 3 6)
1969/12/31/18:00:06.856000,(-1 4 7 8 4 4 -1 -5)
1969/12/31/18:00:06.856000,(2 -2 -6 -10 -4 -7 -5 -6)
1969/12/31/18:00:06.901000,(6 1 -2 -7 -4 -2 1 2)
1969/12/31/18:00:06.901000,(-10 -3 1 4 2 -7 -7 -11)
1969/12/31/18:00:06.902000,(4 6 3 15 7 0 4 7)
1969/12/31/18:00:06.902000,(3 -7 -7 -20 -11 0 5 4)
1969/12/31/18:00:06.903000,(-1 2 0 3 2 -3 -7 -10)
1969/12/31/18:00:06.903000,(1 -2 -6 -8 -4 -3 0 3)
1969/12/31/18:00:06.907000,(1 -4 0 3 -4 -3 -3 0)
1969/12/31/18:00:06.907000,(-19 -3 -1 3 1 5 0 3)
1969/12/31/18:00:06.914000,(23 8 14 6 12 16 5 -5)
1969/12/31/18:00:06.915000,(19 5 -9 -10 -4 -1 -6 -1)
1969/12/31/18:00:06.916000,(23 21 6 1 7 8 7 15)
1969/12/31/18:00:06.916000,(-31 -17 -10 -12 -10 -11 -12 -19)
1969/12/31/18:00:06.937000,(-12 -13 -4 -3 -4 -6 -3 1)
1969/12/31/18:00:06.937000,(0 3 -8 -16 -19 -2 2 0)
1969/12/31/18:00:06.939000,(0 -4 -6 -12 12 -2 0 -1)
1969/12/31/18:00:06.939000,(6 6 10 21 -5 2 3 4)
1969/12/31/18:00:06.950000,(-13 -2 8 28 24 0 -4 -5)
1969/12/31/18:00:06.951000,(-4 -4 7 9 8 3 -1 1)
1969/12/31/18:00:06.959000,(4 -3 -7 -3 -13 -4 1 3)
1969/12/31/18:00:06.960000,(-2 3 -7 -25 -7 -2 -1 -4)
1969/12/31/18:00:06.974000,(6 2 -4 -16 -11 -4 2 4)
1969/12/31/18:00:06.975000,(-2 -3 -2 4 2 1 4 6)
1969/12/31/18:00:06.976000,(-11 -7 -1 -1 -4 -3 -1 0)
1969/12/31/18:00:06.976000,(-24 3 12 9 5 3 1 -5)
1969/12/31/18:00:06.997000,(16 -6 -8 -20 -16 -16 -20 -16)
1969/12/31/18:00:06.997000,(15 12 10 13 13 14 24 29)
1969/12/31/18:00:06.998000,(-12 -12 -12 -21 -7 -5 -10 -18)
1969/12/31/18:00:06.998000,(9 -9 -33 -70 -24 -7 4 10)
1969/12/31/18:00:07.010000,(-13 -2 -12 10 -12 -9 1 0)
1969/12/31/18:00:07.011000,(-6 5 47 84 16 -3 -5 -6)
1969/12/31/18:00:07.037000,(-9 0 15 37 36 10 -1 -10)
1969/12/31/18:00:07.037000,(15 6 15 40 33 17 8 7)
1969/12/31/18:00:07.037000,(-5 3 -5 -23 9 8 4 1)
1969/12/31/18:00:07.037000,(-11 -14 -30 -57 -25 -17 -15 -15)
1969/12/31/18:00:07.040000,(-37 -8 1 8 -16 -6 -2 -8)
1969/12/31/18:00:07.040000,(60 1 -8 -17 -10 -12 3 27)
1969/12/31/18:00:07.057000,(-26 -9 -14 -35 -25 -19 -27 -38)
1969/12/31/18:00:07.057000,(3 6 -1 -3 2 4 6 1)
1969/12/31/18:00:07.058000,(-23 0 5 13 2 5 0 -7)
1969/12/31/18:00:07.058000,(58 24 7 -3 7 9 19 42)
1969/12/31/18:00:07.071000,(1 -9 -5 -1 -9 -12 -8 5)
1969/12/31/18:00:07.071000,(-7 2 7 12 10 1 -2 -6)
1969/12/31/18:00:07.080000,(-8 -8 -12 -24 -10 -7 -12 -12)
1969/12/31/18:00:07.080000,(-24 0 8 23 6 6 8 -6)
1969/12/31/18:00:07.094000,(21 9 14 21 14 12 18 18)
1969/12/31/18:00:07.094000,(6 -4 -43 -85 -32 -14 -8 -3)
1969/12/31/18:00:07.096000,(12 2 24 83 8 1 3 6)
1969/12/31/18:00:07.096000,(-22 -8 -22 -70 3 -2 -9 -16)
1969/12/31/18:00:07.117000,(5 6 23 79 28 14 11 10)
1969/12/31/18:00:07.117000,(-30 -16 23 42 4 -1 -8 -10)
1969/12/31/18:00:07.119000,(30 16 6 -1 0 -3 4 4)
1969/12/31/18:00:07.119000,(-17 -9 -6 3 -11 -7 -4 -8)
1969/12/31/18:00:07.131000,(9 11 -17 -56 -3 6 9 2)
1969/12/31/18:00:07.131000,(-10 -16 -20 -33 -14 -17 -20 -10)
1969/12/31/18:00:07.140000,(15 5 -4 -5 -8 -3 2 6)
1969/12/31/18:00:07.140000,(-36 -15 4 17 1 -2 -12 -28)
1969/12/31/18:00:07.178000,(29 25 5 -17 2 10 13 21)
1969/12/31/18:00:07.178000,(2 -1 -12 -46 -28 -7 1 2)
1969/12/31/18:00:07.180000,(12 0 -4 21 -6 3 2 10)
1969/12/31/18:00:07.180000,(-2 3 21 59 33 13 1 -1)
1969/12/31/18:00:07.181000,(-23 -9 21 62 35 18 8 -1)
1969/12/31/18:00:07.181000,(13 8 9 0 6 4 -3 -2)
1969/12/31/18:00:07.185000,(-7 -7 -18 -26 -7 -5 -2 0)
1969/12/31/18:00:07.185000,(1 -7 -16 -25 -29 -17 -10 -8)
1969/12/31/18:00:07.191000,(-3 0 7 13 -3 11 15 13)
1969/12/31/18:00:07.191000,(-23 -13 -10 0 8 -11 -22 -31)
1969/12/31/18:00:07.200000,(3 -8 -49 -122 -31 -7 1 2)
1969/12/31/18:00:07.200000,(3 8 35 81 9 1 -1 2)
1969/12/31/18:00:07.214000,(0 -5 16 19 2 -12 -13 -9)
1969/12/31/18:00:07.214000,(2 4 11 47 35 14 11 8)
1969/12/31/18:00:07.216000,(-9 -5 -1 -12 -4 7 1 -2)
1969/12/31/18:00:07.216000,(-3 -4 -13 -26 -23 -12 -8 -6)
1969/12/31/18:00:07.236000,(17 10 -8 -16 -2 -2 0 0)
1969/12/31/18:00:07.236000,(-6 -5 6 14 -1 8 7 6)
1969/12/31/18:00:07.244000,(37 21 11 3 13 -1 -2 5)
1969/12/31/18:00:07.245000,(-1 -1 -8 -18 -4 0 1 -1)
1969/12/31/18:00:07.250000,(-22 -12 -27 -64 -25 -10 -4 -10)
1969/12/31/18:00:07.250000,(26 8 -5 15 5 6 11 17)
1969/12/31/18:00:07.260000,(-2 3 42 90 12 5 4 5)
1969/12/31/18:00:07.260000,(-25 -19 14 11 11 -6 -11 -10)
1969/12/31/18:00:07.274000,(-13 7 5 11 8 12 9 -3)
1969/12/31/18:00:07.274000,(3 0 -20 -33 -6 -8 -8 -8)
1969/12/31/18:00:07.276000,(0 -5 -13 -45 -10 -1 2 6)
1969/12/31/18:00:07.276000,(2 3 -1 17 -1 3 3 0)
1969/12/31/18:00:07.312000,(-14 -18 -7 8 -2 -12 -11 -4)
1969/12/31/18:00:07.312000,(27 23 15 22 18 12 14 12)
1969/12/31/18:00:07.314000,(-4 -5 -6 -13 -3 -1 -1 -7)
1969/12/31/18:00:07.314000,(15 5 -8 -8 2 -4 -3 3)
1969/12/31/18:00:07.315000,(4 -3 -9 -20 -35 -11 -1 6)
1969/12/31/18:00:07.315000,(2 4 12 25 19 5 4 1)
1969/12/31/18:00:07.319000,(-23 -14 16 38 12 3 -5 -10)
1969/12/31/18:00:07.320000,(41 29 7 -9 19 27 30 32)
1969/12/31/18:00:07.342000,(19 9 -6 -19 -11 -8 -5 2)
1969/12/31/18:00:07.342000,(-18 -10 -2 -3 -16 -9 -6 -8)
1969/12/31/18:00:07.343000,(-30 -17 -9 -10 -2 -14 -16 -18)
1969/12/31/18:00:07.343000,(7 8 1 -3 0 7 7 -2)
1969/12/31/18:00:07.357000,(40 13 -4 -3 0 5 12 39)
1969/12/31/18:00:07.357000,(-8 -13 -17 -29 -10 -1 3 -4)
1969/12/31/18:00:07.359000,(3 4 7 28 10 1 -1 3)
1969/12/31/18:00:07.359000,(-19 -13 6 10 0 -5 -7 -9)
1969/12/31/18:00:07.370000,(-17 -5 6 23 6 -3 -9 -20)
1969/12/31/18:00:07.371000,(-5 -2 1 -5 2 -1 0 4)
1969/12/31/18:00:07.380000,(4 2 -7 -13 -4 2 5 4)
1969/12/31/18:00:07.380000,(-16 -12 -8 -12 -10 -9 -10 -11)
1969/12/31/18:00:07.394000,(1 1 0 -4 -1 0 0 -2)
1969/12/31/18:00:07.394000,(-4 -1 3 10 3 3 -1 1)
1969/12/31/18:00:07.400000,(-1 -1 1 -5 0 -2 -3 -6)
1969/12/31/18:00:07.400000,(6 3 -7 -13 12 4 4 4)
1969/12/31/18:00:07.417000,(-5 -3 -4 -12 -19 1 1 -2)
1969/12/31/18:00:07.417000,(-19 9 5 6 4 3 5 -7)
1969/12/31/18:00:07.418000,(18 9 6 29 13 2 1 4)
1969/12/31/18:00:07.418000,(-10 -2 11 29 10 -1 -8 -12)
1969/12/31/18:00:07.456000,(-5 -4 6 15 28 5 -2 -3)
1969/12/31/18:00:07.456000,(7 -4 -11 -23 -19 -2 1 7)
1969/12/31/18:00:07.457000,(-4 0 -3 -12 -15 -5 -2 -2)
1969/12/31/18:00:07.457000,(7 4 -5 -4 0 -1 1 7)
1969/12/31/18:00:07.458000,(-7 -4 -2 -4 -5 -2 0 -1)
1969/12/31/18:00:07.458000,(-1 0 -6 -17 -4 -3 -4 -7)
1969/12/31/18:00:07.462000,(1 -2 -6 -35 -3 -3 1 2)
1969/12/31/18:00:07.462000,(-8 -6 4 37 -17 -8 -9 -10)
1969/12/31/18:00:07.477000,(4 1 1 18 12 0 1 4)
1969/12/31/18:00:07.477000,(-7 -4 10 25 12 6 4 11)
1969/12/31/18:00:07.478000,(-30 -4 2 -24 -1 4 -1 -21)
1969/12/31/18:00:07.478000,(18 8 -20 -34 -13 -7 -5 -2)
1969/12/31/18:00:07.491000,(-15 -12 -6 -17 -9 -7 -5 -8)
1969/12/31/18:00:07.491000,(0 2 8 2 -3 1 -4 -8)
1969/12/31/18:00:07.499000,(7 3 9 35 6 -1 4 10)
1969/12/31/18:00:07.499000,(-6 -2 -11 -38 0 2 0 0)
1969/12/31/18:00:07.514000,(-6 -10 -11 -8 -15 -7 -5 -4)
1969/12/31/18:00:07.514000,(23 12 18 51 27 11 14 20)
1969/12/31/18:00:07.521000,(-2 2 13 47 0 0 -4 -3)
1969/12/31/18:00:07.521000,(-5 -2 -1 9 0 -6 -8 -9)
1969/12/31/18:00:07.537000,(-13 -16 -12 -28 -3 0 -4 1)
1969/12/31/18:00:07.537000,(4 17 -9 -64 -14 0 2 0)
1969/12/31/18:00:07.539000,(-5 -2 -13 -4 2 0 -3 -14)
1969/12/31/18:00:07.539000,(-20 -11 2 -7 -10 -7 -8 -9)
1969/12/31/18:00:07.551000,(-24 2 12 25 3 -1 -5 -24)
1969/12/31/18:00:07.551000,(80 34 10 16 10 7 18 54)
1969/12/31/18:00:07.560000,(-16 -22 -10 -3 5 8 7 9)
1969/12/31/18:00:07.560000,(46 24 3 -12 1 5 4 9)
1969/12/31/18:00:07.582000,(-20 -10 -1 -7 -7 -2 -2 -9)
1969/12/31/18:00:07.582000,(-8 -5 4 17 -3 -10 -13 -18)
1969/12/31/18:00:07.583000,(5 12 0 -1 2 -3 0 2)
1969/12/31/18:00:07.584000,(-34 -26 -5 2 0 -1 -3 -8)
1969/12/31/18:00:07.597000,(6 4 -1 4 2 2 -1 0)
1969/12/31/18:00:07.597000,(-18 -15 -11 -17 -6 -6 -8 -10)
1969/12/31/18:00:07.599000,(-19 -23 -16 -51 -20 -7 -3 3)
1969/12/31/18:00:07.599000,(42 28 8 29 7 1 4 10)
1969/12/31/18:00:07.620000,(2 11 14 15 9 9 6 2)
1969/12/31/18:00:07.620000,(-73 -40 -5 13 -2 -3 -9 -28)
1969/12/31/18:00:07.621000,(27 2 -10 -37 -9 -3 -4 12)
1969/12/31/18:00:07.621000,(-5 -9 8 17 3 0 0 3)
1969/12/31/18:00:07.633000,(20 8 0 4 -1 0 3 13)
1969/12/31/18:00:07.633000,(-33 -10 8 8 6 7 5 -6)
1969/12/31/18:00:07.650000,(39 24 3 12 7 4 8 11)
1969/12/31/18:00:07.650000,(-9 -7 -11 -27 -10 -1 3 8)
1969/12/31/18:00:07.657000,(-18 -7 -5 -6 -1 -2 -6 -14)
1969/12/31/18:00:07.657000,(9 -1 0 -1 -5 -2 -3 1)
1969/12/31/18:00:07.659000,(7 12 4 5 -1 -5 -4 3)
1969/12/31/18:00:07.659000,(32 13 -4 -3 5 9 7 14)
1969/12/31/18:00:07.679000,(-36 -17 -2 -7 -5 -13 -21 -24)
1969/12/31/18:00:07.679000,(27 2 -4 -2 -2 1 5 12)
1969/12/31/18:00:07.681000,(-27 -4 -1 1 -4 -5 -9 -19)
1969/12/31/18:00:07.681000,(28 13 8 0 3 1 2 7)
1969/12/31/18:00:07.693000,(-9 -8 -15 -12 0 3 4 4)
1969/12/31/18:00:07.693000,(5 1 12 24 6 0 -1 -4)
1969/12/31/18:00:07.702000,(18 13 11 16 7 2 4 12)
1969/12/31/18:00:07.702000,(-39 -16 -4 0 -1 -1 1 -10)
1969/12/31/18:00:07.724000,(22 5 -26 -58 -14 -5 1 5)
1969/12/31/18:00:07.724000,(16 7 3 17 3 -5 -5 0)
1969/12/31/18:00:07.732000,(-15 -5 4 6 -2 1 2 0)
1969/12/31/18:00:07.732000,(6 9 -2 -7 -3 1 0 2)
1969/12/31/18:00:07.747000,(-18 -6 0 14 1 -4 -6 -12)
1969/12/31/18:00:07.747000,(61 34 9 -4 14 25 34 46)
1969/12/31/18:00:07.749000,(-53 -28 -10 0 0 1 -5 -28)
1969/12/31/18:00:07.749000,(-16 -14 -7 -13 -13 -10 -15 -17)
1969/12/31/18:00:07.753000,(-3 -4 2 -2 -6 -11 -13 -19)
1969/12/31/18:00:07.753000,(-12 -7 -8 -8 -7 -5 0 1)
1969/12/31/18:00:07.762000,(38 17 7 19 17 16 18 26)
1969/12/31/18:00:07.762000,(-27 -11 -2 -6 -4 -6 -10 -18)
1969/12/31/18:00:07.777000,(36 20 14 11 7 15 27 35)
1969/12/31/18:00:07.777000,(-19 -16 -10 -20 -19 -19 -23 -28)
1969/12/31/18:00:07.779000,(2 1 1 9 4 -2 0 2)
1969/12/31/18:00:07.779000,(-91 -49 -13 -8 -4 -8 -17 -40)
1969/12/31/18:00:07.799000,(95 37 20 28 30 36 53 84)
1969/12/31/18:00:07.799000,(76 57 10 1 6 10 6 14)
1969/12/31/18:00:07.801000,(-31 -30 -16 -13 -12 -16 -20 -24)
1969/12/31/18:00:07.801000,(-14 -1 7 -1 -3 -2 -5 -19)
1969/12/31/18:00:07.813000,(-16 -11 -4 -2 -4 -9 -10 -5)
1969/12/31/18:00:07.813000,(-14 -7 -5 7 12 11 13 11)
1969/12/31/18:00:07.822000,(5 -1 -5 -4 -6 -8 -8 -6)
1969/12/31/18:00:07.822000,(-8 -2 4 0 -6 -6 -6 -3)
1969/12/31/18:00:07.837000,(-19 -16 -9 -5 -4 -4 -8 -16)
1969/12/31/18:00:07.837000,(-64 -47 -16 -22 -13 -13 -20 -34)
1969/12/31/18:00:07.839000,(101 66 18 24 17 28 49 76)
1969/12/31/18:00:07.839000,(-32 -10 0 4 -5 -20 -37 -45)
1969/12/31/18:00:07.867000,(7 6 -3 -3 -13 -14 -18 -12)
1969/12/31/18:00:07.868000,(5 2 -2 -5 -5 -7 -9 -12)
1969/12/31/18:00:07.869000,(-50 -36 -12 -15 -13 -16 -23 -33)
1969/12/31/18:00:07.869000,(62 36 -7 -15 3 17 32 50)
1969/12/31/18:00:07.873000,(-19 2 11 8 8 5 1 -13)
1969/12/31/18:00:07.873000,(-25 -20 -8 -2 -14 -21 -27 -25)
1969/12/31/18:00:07.890000,(-47 -19 3 -1 -6 -7 -2 5)
1969/12/31/18:00:07.890000,(20 10 -8 -2 -1 -3 -9 -23)
1969/12/31/18:00:07.897000,(-13 -9 -2 -5 0 1 -5 -4)
1969/12/31/18:00:07.897000,(-16 -1 3 11 0 3 2 -11)
1969/12/31/18:00:07.899000,(-13 -10 1 3 0 -4 -9 -11)
1969/12/31/18:00:07.899000,(5 10 8 7 2 2 9 20)
1969/12/31/18:00:07.919000,(-5 -3 -13 -38 -13 2 5 2)
1969/12/31/18:00:07.919000,(-19 -9 9 23 11 11 11 1)
1969/12/31/18:00:07.921000,(-1 9 15 11 9 -3 -11 -15)
1969/12/31/18:00:07.921000,(-3 -12 -5 6 1 0 0 4)
1969/12/31/18:00:07.933000,(11 4 -2 -1 -2 -2 0 -4)
1969/12/31/18:00:07.933000,(-6 1 -1 -14 -8 -5 -3 4)
1969/12/31/18:00:07.942000,(-11 -12 -12 -18 -8 -6 -6 -12)
1969/12/31/18:00:07.942000,(7 -5 0 7 -3 -4 -2 4)
1969/12/31/18:00:07.957000,(-8 5 2 -2 -7 -12 -9 -5)
1969/12/31/18:00:07.957000,(-13 -18 -14 -5 3 2 -2 -6)
1969/12/31/18:00:07.959000,(46 43 27 21 20 34 48 59)
1969/12/31/18:00:07.959000,(19 -29 -10 -6 3 10 11 15)
1969/12/31/18:00:07.979000,(21 15 1 1 -12 -19 -30 -21)
1969/12/31/18:00:07.979000,(23 15 -5 -2 8 8 4 12)
1969/12/31/18:00:07.981000,(14 8 3 -5 2 15 4 7)
1969/12/31/18:00:07.981000,(1 11 5 -9 0 12 7 7)
1969/12/31/18:00:07.993000,(-18 -7 12 8 -3 -3 -2 -3)
1969/12/31/18:00:07.993000,(30 11 -5 -27 4 10 26 36)
1969/12/31/18:00:08.010000,(-9 -12 -3 28 5 -21 -16 -24)
1969/12/31/18:00:08.010000,(34 21 6 15 -6 -9 12 29)
1969/12/31/18:00:08.017000,(-32 -24 -4 24 5 -19 -22 -36)
1969/12/31/18:00:08.017000,(-15 -7 -7 -8 -14 -19 -11 -11)
1969/12/31/18:00:08.019000,(2 -6 -15 -26 -8 -9 -8 -12)
1969/12/31/18:00:08.019000,(-10 -5 -10 -17 -9 -11 -6 -4)
1969/12/31/18:00:08.040000,(14 4 4 25 8 10 16 22)
1969/12/31/18:00:08.040000,(-35 3 10 33 11 3 1 -15)
1969/12/31/18:00:08.041000,(-24 -33 4 7 -8 -17 -19 -20)
1969/12/31/18:00:08.041000,(22 14 -2 -17 1 3 11 29)
1969/12/31/18:00:08.062000,(28 14 -8 -17 -2 13 18 20)
1969/12/31/18:00:08.062000,(-14 -12 -5 -3 -5 -2 -3 -7)
1969/12/31/18:00:08.063000,(6 4 -4 -1 -3 3 1 -3)
1969/12/31/18:00:08.063000,(-19 -3 4 -7 -8 -2 -3 -13)
1969/12/31/18:00:08.077000,(48 21 -4 -6 -5 -1 3 18)
1969/12/31/18:00:08.077000,(9 10 2 5 0 -3 -9 -6)
1969/12/31/18:00:08.079000,(-8 -4 -1 -13 -7 -2 -7 -14)
1969/12/31/18:00:08.079000,(-69 -30 -10 3 -4 -9 -14 -28)
1969/12/31/18:00:08.100000,(-4 6 22 20 21 25 25 14)
1969/12/31/18:00:08.100000,(-6 -15 -2 -6 -8 -3 -6 -1)
1969/12/31/18:00:08.106000,(11 16 -1 -3 -1 -1 -2 2)
1969/12/31/18:00:08.106000,(-4 -7 -5 2 -1 -4 -10 -16)
1969/12/31/18:00:08.113000,(-17 -13 1 4 2 4 7 4)
1969/12/31/18:00:08.113000,(14 8 -7 -9 -6 -10 -19 -17)
1969/12/31/18:00:08.122000,(-23 -20 -4 -7 -4 0 -1 -6)
1969/12/31/18:00:08.122000,(45 27 6 9 13 18 21 30)
1969/12/31/18:00:08.144000,(-23 -13 -4 -5 -6 -7 -8 -14)
1969/12/31/18:00:08.144000,(51 26 -9 -42 -10 9 20 34)
1969/12/31/18:00:08.146000,(1 2 -15 0 -3 -11 -11 -10)
1969/12/31/18:00:08.146000,(-19 -9 9 0 -11 3 -1 -9)
1969/12/31/18:00:08.167000,(3 8 17 44 10 0 -1 2)
1969/12/31/18:00:08.167000,(-25 -11 10 49 24 -3 -8 -13)
1969/12/31/18:00:08.169000,(16 10 -4 -24 -10 8 11 14)
1969/12/31/18:00:08.169000,(-19 -12 -8 -17 0 -10 -12 -17)
1969/12/31/18:00:08.173000,(14 7 -1 -2 13 16 18 19)
1969/12/31/18:00:08.173000,(13 12 11 20 13 11 9 9)
1969/12/31/18:00:08.182000,(-13 -11 -18 -19 -9 -16 -19 -18)
1969/12/31/18:00:08.182000,(-69 -31 6 0 2 1 -15 -51)
1969/12/31/18:00:08.197000,(-17 3 -10 -31 -26 -16 -16 -14)
1969/12/31/18:00:08.197000,(1 -9 -6 -4 -7 -5 -1 6)
1969/12/31/18:00:08.198000,(-2 21 -2 -5 -8 -10 -16 -23)
1969/12/31/18:00:08.199000,(56 38 6 12 13 11 16 39)
1969/12/31/18:00:08.219000,(-8 -5 -2 2 3 0 0 -3)
1969/12/31/18:00:08.219000,(-12 -12 -1 -6 -1 2 4 -3)
1969/12/31/18:00:08.221000,(-3 2 12 8 1 5 5 4)
1969/12/31/18:00:08.221000,(15 9 1 4 1 3 5 11)
1969/12/31/18:00:08.233000,(-4 -2 -6 -7 -2 -4 -2 -5)
1969/12/31/18:00:08.233000,(9 3 -16 -56 -24 -3 3 9)
1969/12/31/18:00:08.242000,(6 -4 0 6 8 -3 4 10)
1969/12/31/18:00:08.242000,(0 5 12 38 9 0 -1 -1)
1969/12/31/18:00:08.257000,(0 -7 14 42 9 2 -6 0)
1969/12/31/18:00:08.257000,(-3 1 18 28 17 7 5 -2)
1969/12/31/18:00:08.259000,(2 6 6 2 7 15 14 13)
1969/12/31/18:00:08.259000,(-14 -18 -17 -30 -8 -10 -8 -11)
1969/12/31/18:00:08.287000,(-16 -14 -16 -28 -11 -5 -4 -6)
1969/12/31/18:00:08.287000,(14 12 -3 -7 -11 0 4 7)
1969/12/31/18:00:08.289000,(9 -8 -8 -4 -3 -8 -10 -1)
1969/12/31/18:00:08.289000,(39 32 -1 -3 1 2 9 22)
1969/12/31/18:00:08.293000,(-1 -3 -2 -9 -4 -2 -2 -3)
1969/12/31/18:00:08.293000,(-16 -5 1 4 -2 -3 -5 -4)
1969/12/31/18:00:08.302000,(-39 -18 1 6 5 5 4 -8)
1969/12/31/18:00:08.302000,(-1 -2 0 -1 -5 -7 -12 -18)
1969/12/31/18:00:08.316000,(-3 -5 -5 -8 1 -2 -5 -6)
1969/12/31/18:00:08.316000,(7 5 -1 -2 3 3 5 6)
1969/12/31/18:00:08.323000,(-13 -6 0 6 -3 0 -4 -10)
1969/12/31/18:00:08.323000,(-2 -4 -6 -17 -5 2 7 9)
1969/12/31/18:00:08.339000,(8 5 -3 -2 -3 -5 -3 0)
1969/12/31/18:00:08.339000,(-20 -9 8 25 5 -7 -11 -14)
1969/12/31/18:00:08.341000,(-9 0 13 24 19 24 26 14)
1969/12/31/18:00:08.341000,(-7 -8 -1 2 3 1 1 -2)
1969/12/31/18:00:08.353000,(43 38 3 -4 2 1 5 20)
1969/12/31/18:00:08.353000,(-42 -29 -16 -19 -21 -27 -38 -40)
1969/12/31/18:00:08.362000,(74 38 5 3 0 6 20 38)
1969/12/31/18:00:08.362000,(14 10 -1 -3 0 3 6 11)
1969/12/31/18:00:08.376000,(-48 -32 -7 -13 -13 -13 -14 -26)
1969/12/31/18:00:08.376000,(28 10 3 7 11 18 22 27)
1969/12/31/18:00:08.383000,(8 5 -12 -14 4 -3 1 3)
1969/12/31/18:00:08.383000,(-19 -17 -1 -4 -15 -3 -3 -9)
1969/12/31/18:00:08.399000,(5 -1 2 -8 -16 -7 -4 0)
1969/12/31/18:00:08.399000,(-11 -1 8 34 9 2 -2 -7)
1969/12/31/18:00:08.401000,(-3 -7 5 21 26 8 1 -2)
1969/12/31/18:00:08.401000,(-3 -3 -10 -13 5 3 2 3)
1969/12/31/18:00:08.422000,(-2 -5 -3 2 6 6 6 0)
1969/12/31/18:00:08.422000,(4 -1 -9 -47 -21 -4 1 3)
1969/12/31/18:00:08.424000,(-11 -7 -4 3 -13 -6 -5 -7)
1969/12/31/18:00:08.424000,(7 8 12 5 5 -2 -1 4)
1969/12/31/18:00:08.436000,(4 8 10 25 13 7 3 2)
1969/12/31/18:00:08.436000,(-2 -3 4 4 3 -5 -1 -2)
1969/12/31/18:00:08.443000,(-2 -1 10 -24 -38 -18 -9 -7)
1969/12/31/18:00:08.443000,(0 -3 -40 -47 -28 -12 -2 3)
1969/12/31/18:00:08.459000,(-7 -22 -22 -23 2 3 0 -4)
1969/12/31/18:00:08.459000,(-3 2 6 57 35 14 4 0)
1969/12/31/18:00:08.461000,(-5 -6 7 56 27 4 -4 -7)
1969/12/31/18:00:08.461000,(-8 0 13 11 24 2 -5 -8)
1969/12/31/18:00:08.481000,(-2 -1 -3 -6 -29 -7 -1 0)
1969/12/31/18:00:08.481000,(8 2 -3 -42 -28 -11 -3 3)
1969/12/31/18:00:08.482000,(0 7 8 -15 -12 -3 -1 -1)
1969/12/31/18:00:08.482000,(8 11 13 4 6 9 8 9)
1969/12/31/18:00:08.495000,(5 2 -6 6 12 -1 0 2)
1969/12/31/18:00:08.495000,(-4 -6 -6 4 -6 -6 -2 -3)
1969/12/31/18:00:08.504000,(-6 -2 -10 -58 -15 -5 -3 -4)
1969/12/31/18:00:08.504000,(7 13 36 84 21 15 5 5)
1969/12/31/18:00:08.519000,(6 10 0 -6 22 9 6 5)
1969/12/31/18:00:08.519000,(-1 -4 -5 20 -8 6 2 0)
1969/12/31/18:00:08.519000,(4 -7 -10 19 16 1 4 3)
1969/12/31/18:00:08.519000,(-20 -26 -43 -28 -14 -31 -21 -16)
1969/12/31/18:00:08.566000,(-17 -6 19 39 -33 -18 -13 -11)
1969/12/31/18:00:08.566000,(-5 3 2 -12 13 -3 0 -2)
1969/12/31/18:00:08.567000,(5 1 1 -31 -15 2 1 1)
1969/12/31/18:00:08.567000,(2 -5 -33 -96 -15 3 8 7)
1969/12/31/18:00:08.568000,(4 0 14 39 13 1 3 6)
1969/12/31/18:00:08.568000,(6 17 42 86 33 11 3 3)
1969/12/31/18:00:08.571000,(3 16 46 51 28 8 2 -1)
1969/12/31/18:00:08.571000,(3 1 1 35 7 3 4 3)
1969/12/31/18:00:08.579000,(4 -8 -42 -63 -11 -2 3 1)
1969/12/31/18:00:08.579000,(-4 -14 -38 -71 -32 -11 -7 -4)
1969/12/31/18:00:08.580000,(-2 -7 -5 -5 -9 -6 -9 -3)
1969/12/31/18:00:08.580000,(-8 -1 -3 -13 -14 1 -7 -7)
1969/12/31/18:00:08.601000,(1 9 14 -101 -16 14 6 2)
1969/12/31/18:00:08.601000,(10 13 14 53 11 15 11 10)
1969/12/31/18:00:08.602000,(1 -7 -9 41 15 -4 -5 0)
1969/12/31/18:00:08.602000,(-10 -6 0 -3 4 -3 -5 -6)
1969/12/31/18:00:08.615000,(-1 -1 4 36 12 2 1 -2)
1969/12/31/18:00:08.616000,(2 1 -5 -47 -15 -3 1 0)
1969/12/31/18:00:08.624000,(-2 1 -14 -31 -11 5 2 1)
1969/12/31/18:00:08.624000,(11 -1 11 39 5 -2 2 7)
1969/12/31/18:00:08.639000,(-12 -6 -1 6 1 -9 -11 -12)
1969/12/31/18:00:08.639000,(-1 -3 -2 -4 0 -4 -5 -4)
1969/12/31/18:00:08.640000,(-3 -2 -10 -10 -10 1 1 1)
1969/12/31/18:00:08.640000,(5 7 9 -9 -2 4 5 2)
1969/12/31/18:00:08.661000,(-3 -2 -4 13 12 5 -2 0)
1969/12/31/18:00:08.661000,(5 11 21 -11 -3 5 3 5)
1969/12/31/18:00:08.662000,(5 3 -15 2 4 5 0 4)
1969/12/31/18:00:08.662000,(-8 -16 -11 0 -9 -10 -5 -4)
1969/12/31/18:00:08.684000,(-14 -4 9 -25 -12 -13 -4 -7)
1969/12/31/18:00:08.685000,(1 -1 -14 -4 0 -7 -1 0)
1969/12/31/18:00:08.685000,(-1 2 1 -13 -2 13 5 2)
1969/12/31/18:00:08.685000,(4 -2 0 30 24 5 3 4)
1969/12/31/18:00:08.699000,(2 6 11 27 -1 -5 -4 -3)
1969/12/31/18:00:08.699000,(-5 -3 -6 -28 -14 2 -2 -4)
1969/12/31/18:00:08.700000,(5 5 5 0 8 -3 1 3)
1969/12/31/18:00:08.700000,(0 5 9 -6 -6 9 1 -2)
1969/12/31/18:00:08.721000,(-2 -4 -7 -3 2 3 -1 1)
1969/12/31/18:00:08.721000,(1 -2 -8 -28 2 4 1 0)
1969/12/31/18:00:08.722000,(-1 0 -6 -1 2 2 0 -1)
1969/12/31/18:00:08.722000,(-5 4 13 23 5 5 -2 -5)
1969/12/31/18:00:08.736000,(6 7 13 14 2 -4 1 7)
1969/12/31/18:00:08.736000,(-5 -1 0 5 -4 -9 -6 -6)
1969/12/31/18:00:08.744000,(-17 -23 -15 -10 -5 -6 -2 -7)
1969/12/31/18:00:08.744000,(1 9 3 4 14 -2 0 1)
1969/12/31/18:00:08.759000,(14 -6 -19 -20 -4 -5 4 9)
1969/12/31/18:00:08.759000,(-1 -8 -12 8 3 -9 -2 -1)
1969/12/31/18:00:08.760000,(-3 -3 -11 -35 -38 -17 -1 -3)
1969/12/31/18:00:08.760000,(3 1 6 9 8 -4 3 3)
1969/12/31/18:00:08.781000,(-5 -1 9 25 1 -1 -5 -8)
1969/12/31/18:00:08.781000,(3 2 2 4 2 -6 -3 1)
1969/12/31/18:00:08.782000,(2 -2 -2 6 9 2 4 -1)
1969/12/31/18:00:08.782000,(0 -2 0 -1 -7 -2 0 0)
1969/12/31/18:00:08.796000,(-3 -2 -3 3 -4 1 3 0)
1969/12/31/18:00:08.796000,(-2 -5 -14 -15 -9 -4 -1 -2)
1969/12/31/18:00:08.797000,(8 10 8 -21 3 -5 -3 4)
1969/12/31/18:00:08.797000,(-3 -1 8 28 -8 -5 -4 -3)
1969/12/31/18:00:08.827000,(-11 5 12 24 14 6 -3 -8)
1969/12/31/18:00:08.827000,(12 10 17 31 22 8 5 7)
1969/12/31/18:00:08.828000,(8 -10 -16 7 4 2 2 6)
1969/12/31/18:00:08.828000,(1 -5 -14 -47 -17 -5 2 2)
1969/12/31/18:00:08.842000,(-3 -5 -9 -18 -4 0 -3 -5)
1969/12/31/18:00:08.842000,(-8 4 8 15 -9 0 -2 -6)
1969/12/31/18:00:08.842000,(4 6 3 -9 1 1 -5 -3)
1969/12/31/18:00:08.842000,(7 5 1 -1 4 8 3 5)
1969/12/31/18:00:08.856000,(-6 1 3 13 1 4 -2 -6)
1969/12/31/18:00:08.856000,(-3 -5 -4 -16 -2 -2 0 -3)
1969/12/31/18:00:08.857000,(2 3 5 12 3 -1 1 3)
1969/12/31/18:00:08.857000,(-4 -2 -1 1 -15 -1 1 -3)
1969/12/31/18:00:08.879000,(4 0 -13 -19 15 3 2 4)
1969/12/31/18:00:08.879000,(-3 -3 1 -20 -18 -3 -2 -1)
1969/12/31/18:00:08.880000,(-7 -2 -8 -23 0 1 -3 -4)
1969/12/31/18:00:08.880000,(0 5 15 28 8 8 0 0)
1969/12/31/18:00:08.909000,(4 4 15 60 26 8 3 4)
1969/12/31/18:00:08.909000,(-4 -7 -5 -2 4 -1 -2 -5)
1969/12/31/18:00:08.910000,(-8 -5 -4 2 -15 -7 -5 -6)
1969/12/31/18:00:08.910000,(7 0 -13 -26 -11 -6 1 2)
1969/12/31/18:00:08.916000,(-5 -6 -4 -21 -3 -6 -2 -2)
1969/12/31/18:00:08.916000,(-2 3 -1 13 -3 -7 -4 -2)
1969/12/31/18:00:08.917000,(-3 -5 -6 -5 -2 -5 -1 -3)
1969/12/31/18:00:08.917000,(0 -1 1 -7 -4 -4 -1 -1)
1969/12/31/18:00:08.939000,(6 -1 -5 2 0 1 -1 3)
1969/12/31/18:00:08.939000,(-4 -2 -5 -12 -16 -3 1 0)
1969/12/31/18:00:08.939000,(2 5 -3 -20 4 -1 -2 -1)
1969/12/31/18:00:08.939000,(-3 -5 7 34 19 8 -3 -4)
1969/12/31/18:00:08.986000,(-10 -3 4 -14 0 1 -2 -6)
1969/12/31/18:00:08.986000,(4 1 2 20 3 3 1 2)
1969/12/31/18:00:08.986000,(-2 0 9 5 -3 -4 -2 -1)
1969/12/31/18:00:08.986000,(-4 1 18 64 31 3 3 -1)
1969/12/31/18:00:08.988000,(4 2 -6 -5 1 1 2 0)
1969/12/31/18:00:08.988000,(5 -4 -9 -7 -3 -6 3 5)
1969/12/31/18:00:09.000000,(-9 -8 -9 -13 -18 -15 -15 -12)
1969/12/31/18:00:09.000000,(-8 -7 -15 -35 -14 -7 -16 -21)
1969/12/31/18:00:09.002000,(3 5 0 -9 -7 2 15 17)
1969/12/31/18:00:09.002000,(17 5 -3 -20 -2 5 -4 4)
1969/12/31/18:00:09.003000,(-1 1 6 20 6 10 1 -3)
1969/12/31/18:00:09.003000,(2 4 -2 -22 -7 3 3 5)
1969/12/31/18:00:09.021000,(-8 -5 -5 -10 -10 -3 -12 -15)
1969/12/31/18:00:09.021000,(-2 1 4 4 4 8 7 5)
1969/12/31/18:00:09.022000,(4 6 9 15 1 6 8 8)
1969/12/31/18:00:09.022000,(0 -1 -2 -3 16 1 -1 -2)
1969/12/31/18:00:09.044000,(1 -1 -6 -14 -6 -1 -2 0)
1969/12/31/18:00:09.044000,(-7 -2 2 -5 4 -2 0 -1)
1969/12/31/18:00:09.045000,(-1 1 7 27 3 -1 -3 -2)
1969/12/31/18:00:09.045000,(0 1 -2 -8 -10 -2 4 4)
1969/12/31/18:00:09.059000,(-2 -3 -5 -2 -3 -5 -2 -2)
1969/12/31/18:00:09.059000,(-3 -6 -3 -5 2 -5 -6 -5)
1969/12/31/18:00:09.059000,(-5 -3 -5 -12 -10 -7 -3 -3)
1969/12/31/18:00:09.059000,(3 5 5 11 0 3 9 8)
1969/12/31/18:00:09.081000,(9 3 0 0 -1 2 3 5)
1969/12/31/18:00:09.081000,(-6 -3 -2 10 5 -4 -7 -12)
1969/12/31/18:00:09.082000,(-1 -3 -4 2 4 6 11 8)
1969/12/31/18:00:09.082000,(8 2 -3 -8 -2 -6 -1 5)
1969/12/31/18:00:09.121000,(-7 -7 -2 -8 -5 -3 -5 -4)
1969/12/31/18:00:09.121000,(-5 -1 1 -1 1 -3 -5 -4)
1969/12/31/18:00:09.122000,(-1 -3 2 5 4 -1 2 -2)
1969/12/31/18:00:09.122000,(2 2 -4 -9 -6 2 3 3)
1969/12/31/18:00:09.123000,(3 -2 -4 0 -2 0 0 1)
1969/12/31/18:00:09.123000,(-1 0 2 -1 2 2 -2 0)
1969/12/31/18:00:09.126000,(1 2 4 6 8 1 -2 -1)
1969/12/31/18:00:09.126000,(-7 -5 -3 -9 -9 -6 -8 -8)
1969/12/31/18:00:09.141000,(6 4 0 -1 2 -1 7 4)
1969/12/31/18:00:09.141000,(-4 -4 1 4 6 3 3 1)
1969/12/31/18:00:09.142000,(-1 0 1 4 2 -1 0 -1)
1969/12/31/18:00:09.142000,(-1 -3 -2 -8 -5 -2 2 1)
1969/12/31/18:00:09.166000,(-3 -1 -2 0 -4 -6 -9 -6)
1969/12/31/18:00:09.166000,(1 0 -1 1 0 1 6 4)
1969/12/31/18:00:09.167000,(-1 1 2 3 0 0 -1 1)
1969/12/31/18:00:09.167000,(-3 -1 0 -5 -3 -2 -4 -3)
1969/12/31/18:00:09.179000,(1 0 -3 0 1 2 4 6)
1969/12/31/18:00:09.179000,(1 -1 -1 1 1 -2 -2 -3)
1969/12/31/18:00:09.179000,(-1 1 2 3 1 -2 -3 -2)
1969/12/31/18:00:09.179000,(2 1 -2 -3 -1 0 3 2)
1969/12/31/18:00:09.202000,(-3 0 1 -2 -3 0 0 -3)
1969/12/31/18:00:09.202000,(0 -1 0 1 2 2 1 1)
1969/12/31/18:00:09.203000,(3 -1 0 1 1 0 -2 -1)
1969/12/31/18:00:09.203000,(-3 -3 -1 -3 0 -2 -5 -4)
1969/12/31/18:00:09.216000,(1 0 -1 -1 -3 -1 1 2)
1969/12/31/18:00:09.216000,(-3 -2 -3 1 1 1 -1 0)
1969/12/31/18:00:09.224000,(-1 2 1 1 1 -2 -3 -3)
1969/12/31/18:00:09.224000,(-1 -2 0 -1 -4 0 -2 -2)
1969/12/31/18:00:09.247000,(0 0 0 1 -2 -3 -5 -3)
1969/12/31/18:00:09.247000,(1 1 1 2 -1 0 2 2)
1969/12/31/18:00:09.248000,(-3 -2 0 1 0 -1 -3 -3)
1969/12/31/18:00:09.248000,(1 -1 -1 -1 -1 0 1 -1)
1969/12/31/18:00:09.286000,(0 1 -1 -1 0 -1 3 4)
1969/12/31/18:00:09.286000,(0 -2 -2 1 2 0 0 -4)
1969/12/31/18:00:09.287000,(-1 0 2 -1 -1 -3 0 -1)
1969/12/31/18:00:09.287000,(0 -2 -2 -2 -2 0 0 0)
1969/12/31/18:00:09.288000,(0 -2 0 -1 -1 1 -1 -3)
1969/12/31/18:00:09.288000,(-1 -1 0 0 -4 -3 -1 -2)
1969/12/31/18:00:09.291000,(-2 1 0 3 1 -1 1 0)
1969/12/31/18:00:09.291000,(0 -1 -1 -2 -1 0 -2 -1)
1969/12/31/18:00:09.291000,(-10 -9 -14 -24 -7 -6 -6 -11)
1969/12/31/18:00:09.291000,(-5 -4 3 16 10 2 -1 2)
1969/12/31/18:00:09.292000,(-23 -7 9 22 5 3 -1 -9)
1969/12/31/18:00:09.292000,(21 1 -12 -19 -10 -6 0 8)
1969/12/31/18:00:09.295000,(13 11 -3 -11 1 0 -1 3)
1969/12/31/18:00:09.295000,(-7 2 10 17 3 1 0 -4)
1969/12/31/18:00:09.304000,(3 -2 2 13 6 2 3 3)
1969/12/31/18:00:09.304000,(-20 -10 -13 -24 -13 -7 -7 -11)
1969/12/31/18:00:09.319000,(1 2 1 2 3 4 4 3)
1969/12/31/18:00:09.319000,(1 0 6 19 3 4 1 2)
1969/12/31/18:00:09.321000,(13 9 1 -8 0 3 1 2)
1969/12/31/18:00:09.321000,(1 0 1 -4 6 8 4 4)
1969/12/31/18:00:09.342000,(5 1 -2 -6 -6 -3 -3 -1)
1969/12/31/18:00:09.342000,(-1 -1 3 7 3 1 0 2)
1969/12/31/18:00:09.343000,(-10 -7 -4 -6 -2 -2 -2 -6)
1969/12/31/18:00:09.343000,(0 1 -2 -2 0 -1 -1 -1)
1969/12/31/18:00:09.355000,(3 3 3 2 0 1 -1 2)
1969/12/31/18:00:09.355000,(-3 -5 -2 -2 -2 -1 0 -3)
1969/12/31/18:00:09.365000,(3 2 3 4 5 6 3 4)
1969/12/31/18:00:09.365000,(1 -3 0 -1 -5 -5 -4 -2)
1969/12/31/18:00:09.379000,(-16 -6 -7 -9 -3 2 3 0)
1969/12/31/18:00:09.379000,(25 10 5 3 2 0 2 5)
1969/12/31/18:00:09.381000,(-23 -5 1 7 6 1 -9 -21)
1969/12/31/18:00:09.381000,(-3 0 0 -3 -3 -7 -7 -4)
1969/12/31/18:00:09.402000,(2 -3 -6 -12 -7 0 2 4)
1969/12/31/18:00:09.402000,(-1 -1 0 5 2 4 -1 3)
1969/12/31/18:00:09.408000,(9 5 3 -8 -1 5 3 5)
1969/12/31/18:00:09.408000,(-32 -9 -9 -14 -7 2 0 -9)
1969/12/31/18:00:09.424000,(21 -1 10 18 7 2 -2 4)
1969/12/31/18:00:09.424000,(-1 7 -1 -9 -5 -4 -5 -4)
1969/12/31/18:00:09.426000,(0 -6 -15 -34 -31 -14 -5 -1)
1969/12/31/18:00:09.426000,(1 4 8 24 26 5 6 4)
1969/12/31/18:00:09.439000,(-7 -2 11 40 27 4 2 -4)
1969/12/31/18:00:09.439000,(-7 -4 2 11 9 2 1 -2)
1969/12/31/18:00:09.441000,(1 -3 -3 -14 -13 -6 -2 -1)
1969/12/31/18:00:09.441000,(2 -2 -22 -99 -31 -11 -4 -2)
1969/12/31/18:00:09.462000,(4 2 -2 43 -7 -1 4 5)
1969/12/31/18:00:09.462000,(0 2 21 60 30 8 4 1)
1969/12/31/18:00:09.464000,(-1 1 1 -15 7 3 7 11)
1969/12/31/18:00:09.464000,(6 -9 -12 15 -14 -11 -13 -10)
1969/12/31/18:00:09.476000,(-13 -3 -7 -41 -5 6 7 0)
1969/12/31/18:00:09.476000,(-5 -6 -6 -19 -12 -3 -3 -5)
1969/12/31/18:00:09.485000,(22 13 9 14 1 -15 -14 5)
1969/12/31/18:00:09.485000,(-8 -4 -7 -27 -11 1 -2 -3)
1969/12/31/18:00:09.499000,(1 -2 -17 -45 -14 -9 -4 0)
1969/12/31/18:00:09.499000,(-11 -10 -7 -1 -10 -3 -2 -5)
1969/12/31/18:00:09.506000,(-5 1 14 35 21 14 13 3)
1969/12/31/18:00:09.506000,(11 8 20 77 32 9 5 7)
1969/12/31/18:00:09.522000,(-7 0 6 15 4 -3 -7 -11)
1969/12/31/18:00:09.522000,(1 5 1 -27 -3 7 14 9)
1969/12/31/18:00:09.524000,(-4 -16 -64 -103 -37 -17 -13 -10)
1969/12/31/18:00:09.524000,(-15 -3 23 62 -3 -2 0 -1)
1969/12/31/18:00:09.536000,(38 12 35 76 28 11 9 9)
1969/12/31/18:00:09.536000,(-14 0 6 17 13 0 -8 -12)
1969/12/31/18:00:09.545000,(3 8 0 1 -2 -9 -9 -9)
1969/12/31/18:00:09.545000,(-7 -18 -25 -53 -16 -6 -3 -1)
1969/12/31/18:00:09.568000,(-18 -8 -17 -38 -14 -8 2 1)
1969/12/31/18:00:09.568000,(-2 -1 3 6 -4 -7 -11 -16)
1969/12/31/18:00:09.569000,(21 23 15 23 12 10 19 29)
1969/12/31/18:00:09.569000,(-8 -17 -18 -22 -7 -7 -12 -14)
1969/12/31/18:00:09.582000,(14 2 -7 -41 -14 -2 4 13)
1969/12/31/18:00:09.582000,(-2 -4 -19 -33 -13 -6 -2 -1)
1969/12/31/18:00:09.583000,(-16 -4 19 66 10 4 3 -7)
1969/12/31/18:00:09.584000,(1 12 32 72 27 2 0 -4)
1969/12/31/18:00:09.596000,(2 4 -1 -29 7 5 2 2)
1969/12/31/18:00:09.596000,(1 -5 -26 -22 -6 -5 0 2)
1969/12/31/18:00:09.605000,(-3 -5 21 36 6 3 -2 -3)
1969/12/31/18:00:09.605000,(14 14 19 40 9 3 7 13)
1969/12/31/18:00:09.619000,(-27 -23 -6 -8 -6 -7 -14 -21)
1969/12/31/18:00:09.619000,(16 9 -3 -26 -13 -2 0 4)
1969/12/31/18:00:09.626000,(-42 -22 -16 -25 -8 -6 -8 -21)
1969/12/31/18:00:09.626000,(27 6 -12 -35 -6 3 8 18)
1969/12/31/18:00:09.642000,(4 3 -17 -15 -13 -3 -5 -8)
1969/12/31/18:00:09.642000,(-15 -1 6 14 7 3 7 11)
1969/12/31/18:00:09.644000,(31 -6 0 12 1 0 -2 7)
1969/12/31/18:00:09.644000,(-31 -9 -7 -29 -9 -1 -6 -20)
1969/12/31/18:00:09.656000,(-1 6 4 6 -3 0 2 4)
1969/12/31/18:00:09.656000,(-2 -3 -1 9 15 1 1 2)
1969/12/31/18:00:09.665000,(-14 -4 6 21 -6 0 -2 -7)
1969/12/31/18:00:09.665000,(14 12 8 13 9 4 8 12)
1969/12/31/18:00:09.679000,(-1 2 10 25 6 0 -6 -2)
1969/12/31/18:00:09.679000,(-3 -4 5 7 2 -4 -5 -3)
1969/12/31/18:00:09.686000,(3 4 -8 -18 6 7 2 5)
1969/12/31/18:00:09.686000,(6 -1 -14 -25 -8 0 0 1)
1969/12/31/18:00:09.709000,(-6 -7 -13 -35 -19 -8 -5 -4)
1969/12/31/18:00:09.710000,(-11 -11 5 27 -5 -7 -7 -7)
1969/12/31/18:00:09.711000,(31 15 1 0 12 13 15 17)
1969/12/31/18:00:09.711000,(2 7 3 14 10 10 11 8)
1969/12/31/18:00:09.724000,(-19 -6 3 -6 2 2 -2 -12)
1969/12/31/18:00:09.724000,(-8 -5 0 -7 -8 -2 -3 -6)
1969/12/31/18:00:09.726000,(23 13 4 -1 -2 1 8 21)
1969/12/31/18:00:09.726000,(-30 -22 -18 -23 -16 -20 -23 -34)
1969/12/31/18:00:09.738000,(-10 -5 -7 -3 1 1 4 2)
1969/12/31/18:00:09.738000,(28 13 9 18 -4 2 6 17)
1969/12/31/18:00:09.747000,(-14 -7 4 20 17 1 -4 -9)
1969/12/31/18:00:09.747000,(11 6 -4 -43 -7 2 4 8)
1969/12/31/18:00:09.762000,(4 1 -3 7 -5 -2 2 4)
1969/12/31/18:00:09.762000,(-5 1 9 30 6 0 -4 -5)
1969/12/31/18:00:09.764000,(-17 -8 2 -1 -6 -10 -9 -17)
1969/12/31/18:00:09.764000,(11 8 0 0 7 6 11 13)
1969/12/31/18:00:09.784000,(3 -4 -9 -14 -4 -2 1 0)
1969/12/31/18:00:09.784000,(21 10 1 4 7 5 8 10)
1969/12/31/18:00:09.786000,(-17 -6 3 2 0 -2 -9 -13)
1969/12/31/18:00:09.786000,(-10 -7 -5 -10 -8 -9 -8 -13)
1969/12/31/18:00:09.799000,(2 0 0 -2 -2 -6 -4 1)
1969/12/31/18:00:09.799000,(3 0 -3 -13 -9 5 9 9)
1969/12/31/18:00:09.805000,(1 2 0 -2 -2 1 2 -1)
1969/12/31/18:00:09.806000,(9 2 6 15 -5 -2 -1 4)
1969/12/31/18:00:09.822000,(-18 -4 6 11 6 4 -2 -15)
1969/12/31/18:00:09.822000,(-14 -10 2 3 5 -1 1 5)
1969/12/31/18:00:09.824000,(23 8 -17 -27 -7 -9 -14 -12)
1969/12/31/18:00:09.824000,(-2 0 -1 -3 -4 3 3 1)
1969/12/31/18:00:09.845000,(13 8 9 23 1 0 0 6)
1969/12/31/18:00:09.845000,(-52 -26 -10 -21 -6 -10 -13 -21)
1969/12/31/18:00:09.847000,(15 5 -5 -30 -9 0 6 10)
1969/12/31/18:00:09.847000,(12 9 1 7 3 5 6 6)
1969/12/31/18:00:09.858000,(-2 -2 0 14 7 -4 -3 -4)
1969/12/31/18:00:09.858000,(0 -2 -2 6 -1 -1 0 -2)
1969/12/31/18:00:09.867000,(-8 -8 -12 -23 -5 -1 2 5)
1969/12/31/18:00:09.867000,(20 16 19 45 18 6 5 6)
1969/12/31/18:00:09.882000,(-9 4 10 11 13 9 8 -1)
1969/12/31/18:00:09.882000,(-36 -12 -3 -44 -28 -15 -18 -22)
1969/12/31/18:00:09.884000,(13 17 16 59 21 11 9 6)
1969/12/31/18:00:09.884000,(-23 -27 -11 -2 2 -3 -7 -7)
1969/12/31/18:00:09.905000,(27 22 1 5 -4 -4 -5 4)
1969/12/31/18:00:09.905000,(15 1 -3 -19 0 3 5 14)
1969/12/31/18:00:09.906000,(2 5 -17 -49 -20 -13 -16 -21)
1969/12/31/18:00:09.906000,(1 -17 -12 -28 -6 4 13 25)
1969/12/31/18:00:09.918000,(-38 -19 -3 -4 -4 -4 -10 -17)
1969/12/31/18:00:09.918000,(24 8 14 38 9 10 13 18)
1969/12/31/18:00:09.927000,(23 15 18 33 9 0 -2 5)
1969/12/31/18:00:09.927000,(-44 -8 9 17 1 -6 -10 -19)
1969/12/31/18:00:09.942000,(1 -14 -29 -64 -11 4 5 13)
1969/12/31/18:00:09.942000,(-3 -24 -1 8 -10 -8 -12 -13)
1969/12/31/18:00:09.943000,(-41 7 25 46 18 13 11 -1)
1969/12/31/18:00:09.943000,(69 32 2 10 5 -6 -5 8)
1969/12/31/18:00:09.989000,(-97 -52 -8 -9 2 2 1 -15)
1969/12/31/18:00:09.989000,(113 100 8 -4 17 24 28 69)
1969/12/31/18:00:09.990000,(-78 -51 -26 -23 -17 -16 -25 -42)
1969/12/31/18:00:09.990000,(-20 -7 -29 -67 -15 -4 -6 -13)
1969/12/31/18:00:09.995000,(21 10 13 1 -8 -7 1 8)
1969/12/31/18:00:09.995000,(-11 -11 15 46 8 1 6 -3)
1969/12/31/18:00:09.996000,(13 7 12 26 19 8 8 17)
1969/12/31/18:00:09.996000,(0 2 9 1 2 3 -1 1)
1969/12/31/18:00:10.002000,(21 -6 -38 -32 -21 -10 -5 -2)
1969/12/31/18:00:10.002000,(-24 -9 3 32 -4 3 1 -11)
1969/12/31/18:00:10.003000,(13 6 34 88 27 -2 -3 2)
1969/12/31/18:00:10.003000,(-2 0 17 51 20 1 -5 -9)
1969/12/31/18:00:10.024000,(22 10 3 -7 -5 5 9 24)
1969/12/31/18:00:10.024000,(-65 -40 -26 -57 -11 -15 -24 -45)
1969/12/31/18:00:10.026000,(26 8 -21 -47 -23 -10 -11 -13)
1969/12/31/18:00:10.026000,(-5 23 7 -6 4 21 28 20)
1969/12/31/18:00:10.038000,(57 3 -2 2 6 4 6 23)
1969/12/31/18:00:10.038000,(-21 -20 -25 -29 -13 -18 -26 -30)
1969/12/31/18:00:10.055000,(-15 -12 11 0 -2 2 9 18)
1969/12/31/18:00:10.055000,(-52 -40 -5 -1 -12 -14 -20 -25)
1969/12/31/18:00:10.062000,(28 42 16 19 9 10 8 3)
1969/12/31/18:00:10.062000,(27 11 -2 4 4 5 5 9)
1969/12/31/18:00:10.063000,(-21 -2 2 -11 4 13 10 -5)
1969/12/31/18:00:10.063000,(18 15 2 -14 -8 0 -2 2)
1969/12/31/18:00:10.084000,(-22 7 9 32 7 -5 -11 -21)
1969/12/31/18:00:10.084000,(-21 -49 2 2 2 -2 4 13)
1969/12/31/18:00:10.086000,(54 43 -16 -19 0 7 10 18)
1969/12/31/18:00:10.086000,(11 2 -9 -8 -9 -2 3 17)
1969/12/31/18:00:10.098000,(16 18 2 2 -6 -11 -15 -10)
1969/12/31/18:00:10.098000,(-19 2 3 -4 5 -2 -7 -20)
1969/12/31/18:00:10.107000,(-36 -46 -15 -20 -11 -7 -4 -2)
1969/12/31/18:00:10.107000,(-7 17 24 18 10 13 17 8)
1969/12/31/18:00:10.129000,(25 20 9 10 10 11 19 23)
1969/12/31/18:00:10.129000,(-6 -12 -14 -10 -8 -20 -26 -19)
1969/12/31/18:00:10.131000,(-9 -26 -11 -5 0 5 9 4)
1969/12/31/18:00:10.131000,(37 31 1 -5 -12 -20 -28 -25)
1969/12/31/18:00:10.152000,(-19 -13 7 10 8 6 6 0)
1969/12/31/18:00:10.152000,(29 35 9 1 2 4 10 7)
1969/12/31/18:00:10.154000,(-5 -10 -5 0 -4 -11 -8 -2)
1969/12/31/18:00:10.154000,(-13 -13 -12 -12 -9 -7 0 0)
1969/12/31/18:00:10.158000,(-7 -13 0 -1 4 1 4 2)
1969/12/31/18:00:10.158000,(3 9 1 5 -6 -12 -11 -10)
1969/12/31/18:00:10.167000,(-3 9 15 19 25 29 28 14)
1969/12/31/18:00:10.167000,(-16 -20 -6 5 4 3 0 -3)
1969/12/31/18:00:10.182000,(-31 -8 -3 2 -8 -6 -1 0)
1969/12/31/18:00:10.182000,(31 11 0 -16 -8 -5 -12 -9)
1969/12/31/18:00:10.183000,(13 21 6 -6 -12 -8 -2 5)
1969/12/31/18:00:10.183000,(-24 -38 -17 -26 -8 -6 -9 -11)
1969/12/31/18:00:10.204000,(30 27 -1 23 16 21 21 22)
1969/12/31/18:00:10.204000,(-9 -8 9 18 13 8 9 16)
1969/12/31/18:00:10.206000,(-14 5 -5 -13 -10 -5 -14 -16)
1969/12/31/18:00:10.206000,(-55 -36 1 5 -3 -5 -13 -33)
1969/12/31/18:00:10.218000,(-9 -15 -6 -18 -9 -7 -8 -6)
1969/12/31/18:00:10.218000,(-22 -13 -16 -13 -9 -6 -2 -5)
1969/12/31/18:00:10.235000,(70 56 18 11 10 14 17 18)
1969/12/31/18:00:10.235000,(13 8 -4 -1 -2 -1 1 13)
1969/12/31/18:00:10.250000,(-13 -10 0 -21 -10 -9 -9 -14)
1969/12/31/18:00:10.250000,(-13 0 0 20 8 5 3 -6)
1969/12/31/18:00:10.251000,(-27 -31 -10 -29 -7 -2 4 8)
1969/12/31/18:00:10.251000,(-34 -28 1 10 -5 -11 -11 -16)
1969/12/31/18:00:10.265000,(-2 22 17 25 13 4 -6 -24)
1969/12/31/18:00:10.265000,(17 6 5 7 9 10 10 15)
1969/12/31/18:00:10.267000,(-22 -21 -12 -10 -12 -19 -25 -20)
1969/12/31/18:00:10.267000,(11 9 -3 -5 -5 2 -3 -2)
1969/12/31/18:00:10.278000,(-10 -14 -6 0 0 2 -1 12)
1969/12/31/18:00:10.278000,(17 12 3 -13 1 15 19 14)
1969/12/31/18:00:10.287000,(-35 -25 -6 -1 -7 -9 -14 -21)
1969/12/31/18:00:10.287000,(44 29 4 9 6 7 19 31)
1969/12/31/18:00:10.302000,(-39 -35 -8 2 2 -7 -8 -20)
1969/12/31/18:00:10.302000,(74 41 -3 -11 -5 -1 13 27)
1969/12/31/18:00:10.303000,(13 -2 -6 0 -2 -11 -14 -3)
1969/12/31/18:00:10.303000,(6 7 -1 2 1 1 6 7)
1969/12/31/18:00:10.332000,(-6 -10 -3 -14 -9 -4 -7 -11)
1969/12/31/18:00:10.332000,(-65 -49 -14 10 13 1 -9 -21)
1969/12/31/18:00:10.333000,(27 22 7 17 -2 7 5 12)
1969/12/31/18:00:10.333000,(1 13 16 20 14 21 21 10)
1969/12/31/18:00:10.338000,(8 3 0 -1 -15 -23 -27 -22)
1969/12/31/18:00:10.338000,(-57 -38 -6 -13 5 7 4 -9)
1969/12/31/18:00:10.347000,(-39 -25 -2 -4 1 4 5 -8)
1969/12/31/18:00:10.347000,(12 -3 -14 -9 -5 -10 -19 -24)
1969/12/31/18:00:10.362000,(76 65 18 9 18 32 51 71)
1969/12/31/18:00:10.362000,(-12 -1 7 2 -4 -7 -9 -15)
1969/12/31/18:00:10.363000,(9 0 -1 0 1 4 7 11)
1969/12/31/18:00:10.363000,(-32 -19 2 -4 -15 -19 -21 -25)
1969/12/31/18:00:10.392000,(44 6 -10 1 16 28 34 45)
1969/12/31/18:00:10.392000,(16 15 -6 -9 -8 -7 -12 -5)
1969/12/31/18:00:10.394000,(-17 0 -4 -17 -15 -7 -11 -17)
1969/12/31/18:00:10.394000,(22 13 0 -6 8 15 12 20)
1969/12/31/18:00:10.398000,(-27 -16 7 -2 -8 1 -18 -23)
1969/12/31/18:00:10.398000,(64 51 14 15 6 21 11 25)
1969/12/31/18:00:10.407000,(-24 -19 -5 -3 6 2 -4 -15)
1969/12/31/18:00:10.407000,(-22 -19 -13 -9 -17 -33 -21 -20)
1969/12/31/18:00:10.429000,(-23 -7 -2 7 12 -14 -2 -18)
1969/12/31/18:00:10.429000,(-69 -45 -18 -12 -15 -28 -18 -38)
1969/12/31/18:00:10.431000,(64 43 17 8 3 -5 14 37)
1969/12/31/18:00:10.431000,(0 -3 -8 -7 -11 -18 -10 -8)
1969/12/31/18:00:10.444000,(-8 -2 -4 -1 0 -5 -3 5)
1969/12/31/18:00:10.444000,(-21 -11 3 9 -9 -15 -16 -21)
1969/12/31/18:00:10.446000,(10 -3 -8 8 6 7 17 22)
1969/12/31/18:00:10.446000,(7 18 11 25 19 22 10 -2)
1969/12/31/18:00:10.458000,(33 21 4 2 -6 0 3 18)
1969/12/31/18:00:10.458000,(-29 -21 -7 -8 -9 -8 -17 -22)
1969/12/31/18:00:10.467000,(15 8 3 -11 -3 1 2 10)
1969/12/31/18:00:10.467000,(44 24 9 6 12 22 23 37)
1969/12/31/18:00:10.481000,(-43 -27 -10 -5 -12 -11 -23 -37)
1969/12/31/18:00:10.481000,(12 0 6 4 -2 10 17 23)
1969/12/31/18:00:10.488000,(-27 -8 -6 -6 -8 -13 -18 -25)
1969/12/31/18:00:10.488000,(35 6 3 1 9 17 28 57)
1969/12/31/18:00:10.506000,(-8 -2 -3 -12 -16 -11 -19 -33)
1969/12/31/18:00:10.506000,(1 -1 4 8 10 6 9 14)
1969/12/31/18:00:10.507000,(-21 -14 -2 11 3 1 -7 -15)
1969/12/31/18:00:10.507000,(6 13 13 6 15 21 20 21)
1969/12/31/18:00:10.527000,(-21 -23 -30 -74 -29 -15 -16 -18)
1969/12/31/18:00:10.527000,(37 26 -8 -30 -5 10 23 32)
1969/12/31/18:00:10.528000,(-20 -7 26 68 6 -8 -16 -24)
1969/12/31/18:00:10.528000,(5 12 12 38 5 -2 -3 -5)
1969/12/31/18:00:10.541000,(7 4 14 22 12 7 6 10)
1969/12/31/18:00:10.541000,(-38 -28 -7 -14 -7 -9 -14 -21)
1969/12/31/18:00:10.548000,(79 30 -17 -36 8 24 41 62)
1969/12/31/18:00:10.548000,(-32 -24 -14 -23 -20 -25 -35 -41)
1969/12/31/18:00:10.564000,(-25 -22 -5 -1 -13 -13 -15 -18)
1969/12/31/18:00:10.564000,(41 27 2 -19 11 20 28 41)
1969/12/31/18:00:10.566000,(-22 -19 -6 -2 -14 -18 -22 -18)
1969/12/31/18:00:10.566000,(-37 -28 2 14 -2 -10 -20 -34)
1969/12/31/18:00:10.578000,(-6 14 17 13 11 10 12 -4)
1969/12/31/18:00:10.578000,(25 16 1 6 -5 -7 -2 18)
1969/12/31/18:00:10.587000,(-22 -27 -12 -6 3 1 -9 -22)
1969/12/31/18:00:10.587000,(-10 -3 -5 -15 -3 0 -3 -6)
1969/12/31/18:00:10.601000,(-15 -10 -3 4 -10 -16 -22 -17)
1969/12/31/18:00:10.601000,(15 18 16 26 17 27 30 29)
1969/12/31/18:00:10.610000,(-13 -4 -15 -48 -22 -16 -16 -12)
1969/12/31/18:00:10.610000,(8 2 1 17 6 9 13 16)
1969/12/31/18:00:10.624000,(15 6 16 42 14 0 2 11)
1969/12/31/18:00:10.624000,(-7 3 12 38 15 -3 -14 -18)
1969/12/31/18:00:10.626000,(2 1 -5 -21 -2 7 12 9)
1969/12/31/18:00:10.626000,(5 7 -9 -17 -21 -9 -8 -2)
1969/12/31/18:00:10.638000,(9 -14 -16 -23 -6 -3 4 10)
1969/12/31/18:00:10.638000,(-7 1 -2 -7 -5 -4 -8 -23)
1969/12/31/18:00:10.647000,(7 26 10 12 9 0 3 15)
1969/12/31/18:00:10.647000,(-16 -12 -3 -8 -4 -7 -4 -9)
1969/12/31/18:00:10.669000,(32 12 6 19 20 25 29 32)
1969/12/31/18:00:10.669000,(-3 -7 -7 -6 -5 -6 -8 -5)
1969/12/31/18:00:10.671000,(-19 -6 -4 -3 -5 -3 -5 -14)
1969/12/31/18:00:10.671000,(-1 -1 -3 -7 -10 -12 -12 -4)
1969/12/31/18:00:10.684000,(25 16 1 -8 2 7 18 37)
1969/12/31/18:00:10.684000,(-14 -8 -9 -1 -6 -12 -22 -29)
1969/12/31/18:00:10.686000,(7 1 -1 -5 -1 2 4 3)
1969/12/31/18:00:10.686000,(1 -1 -7 -5 14 2 0 -1)
1969/12/31/18:00:10.707000,(-47 -43 -5 8 -21 -11 -17 -34)
1969/12/31/18:00:10.707000,(-10 3 21 15 14 17 29 39)
1969/12/31/18:00:10.709000,(-5 0 1 16 4 -6 -11 -21)
1969/12/31/18:00:10.709000,(-24 -24 -10 -19 -2 0 0 -4)
1969/12/31/18:00:10.737000,(-6 3 -5 -11 -5 -10 -18 -26)
1969/12/31/18:00:10.737000,(-10 -41 -11 -12 -16 -9 -3 3)
1969/12/31/18:00:10.739000,(6 24 6 5 9 5 -5 -22)
1969/12/31/18:00:10.739000,(-9 3 0 -3 5 5 3 -3)
1969/12/31/18:00:10.745000,(7 -1 2 6 5 4 3 10)
1969/12/31/18:00:10.745000,(2 5 0 -1 -11 -10 -9 -11)
1969/12/31/18:00:10.747000,(4 -5 -2 -5 1 1 6 13)
1969/12/31/18:00:10.747000,(24 16 0 3 2 5 10 12)
1969/12/31/18:00:10.767000,(6 13 -2 2 -2 -4 -2 -2)
1969/12/31/18:00:10.767000,(11 15 2 -3 0 -4 -7 -7)
1969/12/31/18:00:10.768000,(-17 -17 -2 -4 -4 -5 -5 -8)
1969/12/31/18:00:10.769000,(17 14 2 5 2 6 9 12)
1969/12/31/18:00:10.781000,(-25 -19 -6 -4 -4 -8 -11 -11)
1969/12/31/18:00:10.781000,(7 13 5 -5 2 5 0 -11)
1969/12/31/18:00:10.790000,(38 20 11 17 13 21 27 37)
1969/12/31/18:00:10.790000,(-39 -29 -8 -2 -7 -13 -23 -31)
1969/12/31/18:00:10.819000,(20 18 -4 -3 6 4 5 7)
1969/12/31/18:00:10.819000,(-13 -9 -10 -10 -11 -12 -15 -21)
1969/12/31/18:00:10.821000,(14 14 12 4 7 12 18 23)
1969/12/31/18:00:10.821000,(5 3 -2 -9 -1 -2 0 2)
1969/12/31/18:00:10.827000,(-4 -1 -2 -6 -9 0 3 -1)
1969/12/31/18:00:10.827000,(0 4 4 21 0 1 -1 0)
1969/12/31/18:00:10.829000,(-14 -10 0 6 5 -7 -12 -14)
1969/12/31/18:00:10.829000,(18 8 2 7 9 9 11 16)
1969/12/31/18:00:10.841000,(-10 -7 -2 -4 2 3 -1 -3)
1969/12/31/18:00:10.841000,(29 10 -8 -17 -5 3 9 15)
1969/12/31/18:00:10.849000,(-12 -8 -1 -2 -11 -14 -12 -5)
1969/12/31/18:00:10.850000,(-8 -8 1 0 -4 -5 -1 -7)
1969/12/31/18:00:10.864000,(61 56 8 -1 3 3 15 32)
1969/12/31/18:00:10.864000,(-15 -14 -4 -2 -2 -5 -3 0)
1969/12/31/18:00:10.866000,(51 16 -5 -5 -6 -3 8 26)
1969/12/31/18:00:10.866000,(-10 5 -2 -1 3 4 -2 -4)
1969/12/31/18:00:10.887000,(-25 -25 -6 3 -1 -7 -11 -14)
1969/12/31/18:00:10.887000,(-16 -5 0 -1 2 3 4 -2)
1969/12/31/18:00:10.888000,(-16 -6 -2 -1 -3 -3 -8 -14)
1969/12/31/18:00:10.888000,(5 0 -1 0 -6 -5 -2 5)
1969/12/31/18:00:10.901000,(-25 -6 6 4 2 5 2 -7)
1969/12/31/18:00:10.901000,(0 3 0 -6 -4 -7 -8 -8)
1969/12/31/18:00:10.909000,(6 -3 -7 1 2 6 6 0)
1969/12/31/18:00:10.909000,(35 6 1 2 -2 1 7 22)
1969/12/31/18:00:10.924000,(-13 -8 -1 0 3 -1 -2 -7)
1969/12/31/18:00:10.924000,(8 5 -4 -9 -6 -5 -7 -4)
1969/12/31/18:00:10.926000,(-17 -12 -1 7 0 -1 -3 -12)
1969/12/31/18:00:10.926000,(26 15 7 7 12 16 24 35)
1969/12/31/18:00:10.954000,(8 7 5 13 -1 -10 -17 -22)
1969/12/31/18:00:10.954000,(8 9 2 -8 4 7 13 22)
1969/12/31/18:00:10.956000,(11 8 -1 -6 -5 -1 -2 2)
1969/12/31/18:00:10.956000,(-14 -8 -4 -9 -6 -8 -8 -13)
1969/12/31/18:00:10.961000,(3 -4 -3 -5 -7 -6 -7 -1)
1969/12/31/18:00:10.961000,(-9 2 3 7 -2 -7 -9 -12)
1969/12/31/18:00:10.969000,(5 6 4 5 10 13 12 12)
1969/12/31/18:00:10.969000,(3 5 1 -7 -4 -2 -1 -1)
1969/12/31/18:00:10.984000,(-3 -7 -9 -15 -4 -2 0 4)
1969/12/31/18:00:10.984000,(-3 -2 0 4 3 -4 -4 -6)
1969/12/31/18:00:10.986000,(-13 -9 -3 -11 -15 -3 -6 -6)
1969/12/31/18:00:10.986000,(-2 -3 2 15 -6 4 4 -1)
1969/12/31/18:00:11.006000,(6 8 7 -1 12 1 5 9)
1969/12/31/18:00:11.006000,(7 2 9 31 10 6 2 -1)
1969/12/31/18:00:11.015000,(-21 -7 25 34 22 1 -7 -15)
1969/12/31/18:00:11.015000,(1 9 17 4 14 7 0 -4)
1969/12/31/18:00:11.021000,(9 1 -15 -16 -12 7 7 13)
1969/12/31/18:00:11.021000,(0 -11 -29 -31 -8 -10 -8 1)
1969/12/31/18:00:11.030000,(-15 -12 -14 -17 -10 -2 -4 -7)
1969/12/31/18:00:11.030000,(-17 -25 -55 -22 -14 -17 -13 -14)
1969/12/31/18:00:11.044000,(-5 -19 -32 -46 -16 -14 -3 1)
1969/12/31/18:00:11.044000,(-8 2 25 7 -19 0 -1 -5)
1969/12/31/18:00:11.046000,(13 28 63 40 11 15 13 9)
1969/12/31/18:00:11.046000,(9 4 -33 9 11 -5 -1 2)
1969/12/31/18:00:11.067000,(-10 -26 -28 -17 3 -5 -7 -5)
1969/12/31/18:00:11.067000,(-15 -2 1 -22 -6 -4 -7 -11)
1969/12/31/18:00:11.068000,(4 12 32 29 7 9 7 7)
1969/12/31/18:00:11.068000,(12 17 28 15 13 14 11 9)
1969/12/31/18:00:11.097000,(-1 2 8 22 2 -3 -3 -2)
1969/12/31/18:00:11.097000,(9 2 -8 -29 -1 6 9 8)
1969/12/31/18:00:11.098000,(-5 -12 -19 0 -7 -10 -6 -5)
1969/12/31/18:00:11.098000,(-8 -15 -26 -34 0 -7 -6 -6)
1969/12/31/18:00:11.104000,(-2 2 6 27 -4 4 3 0)
1969/12/31/18:00:11.104000,(-2 5 22 19 -6 0 -2 -3)
1969/12/31/18:00:11.106000,(-5 -8 -21 10 7 -8 -6 -4)
1969/12/31/18:00:11.106000,(-2 -5 -8 -44 -24 -10 -5 -4)
1969/12/31/18:00:11.127000,(-8 -2 14 -8 -10 -3 -5 -6)
1969/12/31/18:00:11.127000,(4 7 10 53 28 8 4 3)
1969/12/31/18:00:11.128000,(8 6 19 17 9 3 5 8)
1969/12/31/18:00:11.128000,(0 7 19 33 16 15 5 -3)
1969/12/31/18:00:11.141000,(4 12 17 -4 -5 3 3 3)
1969/12/31/18:00:11.141000,(1 -14 -46 -33 -11 -10 -4 2)
1969/12/31/18:00:11.150000,(-12 -20 -40 -59 -26 -7 -5 -6)
1969/12/31/18:00:11.150000,(-3 -8 -3 24 1 -12 -8 -4)
1969/12/31/18:00:11.164000,(-15 -9 4 11 4 -5 -8 -11)
1969/12/31/18:00:11.164000,(11 12 -2 -28 -7 6 5 8)
1969/12/31/18:00:11.166000,(1 0 9 8 -3 -4 -6 -1)
1969/12/31/18:00:11.166000,(2 6 17 17 4 5 3 4)
1969/12/31/18:00:11.187000,(-10 -3 -2 7 1 7 -2 -7)
1969/12/31/18:00:11.187000,(10 9 24 9 5 11 9 10)
1969/12/31/18:00:11.189000,(-1 -7 -36 15 12 -3 -4 -4)
1969/12/31/18:00:11.189000,(1 3 12 -7 -6 -5 -4 -3)
1969/12/31/18:00:11.201000,(-4 -4 -10 -8 4 0 -2 -4)
1969/12/31/18:00:11.201000,(-1 0 6 -8 0 6 2 -2)
1969/12/31/18:00:11.210000,(-2 0 2 -25 -22 -3 0 0)
1969/12/31/18:00:11.210000,(3 4 21 28 -1 -7 -1 3)
1969/12/31/18:00:11.232000,(8 11 20 55 30 7 6 4)
1969/12/31/18:00:11.232000,(-3 -8 -17 -7 0 -7 -1 -3)
1969/12/31/18:00:11.234000,(-2 -10 -12 10 -1 -12 -3 -4)
1969/12/31/18:00:11.234000,(-11 -8 -12 -35 -15 -11 -4 -8)
1969/12/31/18:00:11.254000,(7 13 29 -10 -5 7 7 8)
1969/12/31/18:00:11.254000,(5 -9 -48 7 3 -5 -2 1)
1969/12/31/18:00:11.256000,(-7 -10 -12 -36 -17 -7 -8 -5)
1969/12/31/18:00:11.256000,(0 2 0 13 2 8 -2 -1)
1969/12/31/18:00:11.261000,(0 6 7 -44 -7 9 5 2)
1969/12/31/18:00:11.261000,(3 2 19 69 16 7 -1 2)
1969/12/31/18:00:11.269000,(-4 -2 -10 -29 6 5 -2 -2)
1969/12/31/18:00:11.269000,(5 10 9 -23 -18 8 3 3)
1969/12/31/18:00:11.284000,(8 4 22 63 28 9 5 7)
1969/12/31/18:00:11.284000,(-2 -5 -12 -16 8 3 -2 -2)
1969/12/31/18:00:11.290000,(-6 13 25 -35 -17 4 0 -3)
1969/12/31/18:00:11.290000,(5 -6 -31 -36 -14 5 6 7)
1969/12/31/18:00:11.307000,(-7 -13 -17 -6 -5 -10 -8 -6)
1969/12/31/18:00:11.307000,(-1 14 40 43 13 6 2 -2)
1969/12/31/18:00:11.309000,(2 -3 0 18 16 5 0 1)
1969/12/31/18:00:11.309000,(-9 -6 -1 -15 -6 -3 -7 -8)
1969/12/31/18:00:11.321000,(6 -1 -13 -37 -20 -6 -1 4)
1969/12/31/18:00:11.321000,(-3 1 0 -19 -3 1 3 -1)
1969/12/31/18:00:11.330000,(-2 -2 1 4 -5 -4 -1 -2)
1969/12/31/18:00:11.330000,(-1 -10 -8 14 3 -6 2 1)
1969/12/31/18:00:11.344000,(-11 3 7 -5 6 -6 -5 -7)
1969/12/31/18:00:11.344000,(4 1 -1 20 16 4 2 3)
1969/12/31/18:00:11.375000,(8 10 8 5 12 7 6 6)
1969/12/31/18:00:11.375000,(-1 7 16 9 2 2 -1 -3)
1969/12/31/18:00:11.376000,(4 -4 -13 7 -5 1 -1 1)
1969/12/31/18:00:11.376000,(-7 -8 1 -17 -9 -6 -2 -4)
1969/12/31/18:00:11.378000,(3 -3 -23 -21 -5 0 1 -1)
1969/12/31/18:00:11.378000,(11 7 12 18 10 -4 3 8)
1969/12/31/18:00:11.381000,(-6 -2 0 10 5 -9 -6 -7)
1969/12/31/18:00:11.381000,(1 -2 -10 -32 -18 -12 -4 -1)
1969/12/31/18:00:11.390000,(-3 -6 -2 18 11 -1 -1 0)
1969/12/31/18:00:11.390000,(-14 -2 11 3 3 -5 -9 -12)
1969/12/31/18:00:11.404000,(0 -8 -19 0 -5 0 2 3)
1969/12/31/18:00:11.404000,(10 4 1 -20 -10 1 5 8)
1969/12/31/18:00:11.410000,(-8 -1 14 27 9 -8 -4 -6)
1969/12/31/18:00:11.410000,(3 -7 -8 0 -1 -6 -1 1)
1969/12/31/18:00:11.427000,(-1 -3 -9 0 -2 -2 -1 -1)
1969/12/31/18:00:11.427000,(-2 2 -4 -5 -7 -5 -3 -2)
1969/12/31/18:00:11.429000,(1 -4 -6 5 -5 -2 -2 -1)
1969/12/31/18:00:11.429000,(-8 3 7 -4 1 1 0 -6)
1969/12/31/18:00:11.441000,(10 2 -12 -11 -7 0 3 7)
1969/12/31/18:00:11.441000,(-6 -1 5 7 -5 2 0 -4)
1969/12/31/18:00:11.450000,(1 10 15 5 3 2 0 4)
1969/12/31/18:00:11.450000,(4 -11 -14 -10 4 11 4 5)
1969/12/31/18:00:11.464000,(1 7 7 2 2 6 1 2)
1969/12/31/18:00:11.464000,(0 1 -1 -9 0 4 -2 0)
1969/12/31/18:00:11.470000,(-9 -6 -7 -21 -11 -6 -6 -9)
1969/12/31/18:00:11.470000,(2 5 4 20 3 -4 2 0)
1969/12/31/18:00:11.487000,(-6 -5 5 11 6 -3 -1 -5)
1969/12/31/18:00:11.487000,(-6 -6 1 3 2 -11 -4 -5)
1969/12/31/18:00:11.489000,(0 -10 -17 -1 -3 -9 -1 -2)
1969/12/31/18:00:11.489000,(-3 -2 3 -2 2 -5 -3 -1)
1969/12/31/18:00:11.510000,(1 -4 -17 -15 -13 -10 -5 -1)
1969/12/31/18:00:11.510000,(-4 -2 4 -13 -5 -7 -4 -3)
1969/12/31/18:00:11.511000,(2 4 12 33 7 4 3 2)
1969/12/31/18:00:11.511000,(3 5 5 22 20 12 7 3)
1969/12/31/18:00:11.524000,(2 0 2 3 1 8 5 3)
1969/12/31/18:00:11.524000,(-1 -7 -11 -24 -11 -6 -3 -4)
1969/12/31/18:00:11.531000,(-1 -8 -11 -17 -20 -8 -3 -2)
1969/12/31/18:00:11.531000,(4 4 8 10 0 0 1 -1)
1969/12/31/18:00:11.547000,(-1 3 18 6 -1 7 0 1)
1969/12/31/18:00:11.547000,(6 8 4 20 21 16 3 6)
1969/12/31/18:00:11.549000,(8 1 -14 -23 -7 10 4 6)
1969/12/31/18:00:11.549000,(-1 3 -3 -16 -11 8 -1 0)
1969/12/31/18:00:11.561000,(-2 0 -4 -16 -5 2 -2 -2)
1969/12/31/18:00:11.561000,(-6 -2 0 -6 -10 0 -4 -4)
1969/12/31/18:00:11.570000,(-8 -2 2 -1 1 -2 -2 -4)
1969/12/31/18:00:11.570000,(-5 -2 -1 -3 -4 -10 -5 -3)
1969/12/31/18:00:11.584000,(-2 -3 -1 0 -1 -6 -2 -5)
1969/12/31/18:00:11.584000,(-3 0 0 1 -12 -9 -3 -4)
1969/12/31/18:00:11.598000,(2 -4 -5 6 23 0 3 2)
1969/12/31/18:00:11.598000,(-3 -4 0 -1 -4 -4 -1 0)
1969/12/31/18:00:11.615000,(0 2 2 10 5 -1 2 -1)
1969/12/31/18:00:11.615000,(3 0 2 10 8 2 3 3)
1969/12/31/18:00:11.617000,(-6 -2 0 -6 -11 -9 -7 -6)
1969/12/31/18:00:11.617000,(-2 0 -4 -3 0 -1 1 -1)
1969/12/31/18:00:11.660000,(-1 1 0 2 4 1 0 1)
1969/12/31/18:00:11.661000,(-1 -3 -5 -3 -1 0 2 2)
1969/12/31/18:00:11.662000,(-1 -2 -4 -8 -6 0 -2 -1)
1969/12/31/18:00:11.662000,(1 1 3 4 4 0 -3 -1)
1969/12/31/18:00:11.668000,(1 3 4 2 2 1 -4 -1)
1969/12/31/18:00:11.668000,(0 -2 -2 -2 1 3 0 0)
1969/12/31/18:00:11.670000,(0 -1 2 -2 1 6 2 2)
1969/12/31/18:00:11.670000,(-2 -1 -2 -5 -5 0 -3 -3)
1969/12/31/18:00:11.671000,(1 2 0 -3 0 2 5 3)
1969/12/31/18:00:11.671000,(-1 -3 1 7 4 -3 -2 -2)
1969/12/31/18:00:11.692000,(3 1 -1 0 0 -1 -3 -1)
1969/12/31/18:00:11.692000,(-4 0 2 -6 -4 -2 -3 -4)
1969/12/31/18:00:11.692000,(0 -2 -1 2 -1 0 0 -1)
1969/12/31/18:00:11.693000,(-1 -2 -1 2 1 -1 0 -3)
1969/12/31/18:00:11.695000,(-4 -3 -4 3 -1 0 1 0)
1969/12/31/18:00:11.695000,(5 1 -3 -3 0 3 4 5)
1969/12/31/18:00:11.703000,(0 -1 2 0 0 -6 -4 -1)
1969/12/31/18:00:11.703000,(-5 -2 0 2 -2 -3 -5 -7)
1969/12/31/18:00:11.712000,(2 3 0 -2 -2 0 0 2)
1969/12/31/18:00:11.712000,(0 -1 -3 -2 -1 2 0 -2)
1969/12/31/18:00:11.727000,(1 -2 0 1 -1 3 5 0)
1969/12/31/18:00:11.727000,(2 2 1 4 2 3 2 2)
1969/12/31/18:00:11.729000,(1 2 1 0 0 -4 -3 -3)
1969/12/31/18:00:11.729000,(-3 -4 -2 -3 2 -3 -1 -1)
1969/12/31/18:00:11.750000,(0 0 -1 3 2 0 -2 -2)
1969/12/31/18:00:11.750000,(-2 -1 1 0 2 0 -2 -2)
1969/12/31/18:00:11.752000,(-3 0 0 -2 -2 1 1 -2)
1969/12/31/18:00:11.752000,(-1 0 0 -2 -4 1 1 2)
1969/12/31/18:00:11.763000,(-1 -2 -1 -2 -1 -2 -3 -3)
1969/12/31/18:00:11.763000,(0 1 1 0 2 -1 0 0)
1969/12/31/18:00:11.780000,(-1 -3 0 -3 -1 0 -2 1)
1969/12/31/18:00:11.780000,(0 1 1 -3 -1 2 1 0)
1969/12/31/18:00:11.794000,(-2 -1 -1 -2 -2 0 -2 -2)
1969/12/31/18:00:11.794000,(1 -2 -1 -2 -1 1 5 5)
1969/12/31/18:00:11.796000,(0 1 -2 1 -1 -4 -1 1)
1969/12/31/18:00:11.796000,(-3 -1 -2 -1 0 0 0 -2)
1969/12/31/18:00:11.810000,(-2 1 1 1 2 -1 -2 -2)
1969/12/31/18:00:11.810000,(0 2 0 -1 -2 0 -1 0)
1969/12/31/18:00:11.812000,(1 0 -2 -3 -3 1 1 0)
1969/12/31/18:00:11.812000,(-2 -2 -1 0 -1 -1 0 0)
1969/12/31/18:00:11.833000,(0 -3 0 2 2 -4 -1 1)
1969/12/31/18:00:11.833000,(0 -1 -2 0 3 -4 -3 -2)
1969/12/31/18:00:11.834000,(-2 -1 0 -2 -1 -1 1 -1)
1969/12/31/18:00:11.834000,(-1 0 1 2 0 0 -2 -3)
1969/12/31/18:00:11.846000,(2 -1 -2 0 -1 -1 1 4)
1969/12/31/18:00:11.846000,(1 -1 0 0 -1 0 0 0)
1969/12/31/18:00:11.847000,(0 0 2 -1 -1 -1 -2 -3)
1969/12/31/18:00:11.847000,(-1 0 -1 0 0 -1 -1 1)
1969/12/31/18:00:11.869000,(-2 0 -3 -3 -2 -1 0 -2)
1969/12/31/18:00:11.869000,(2 -1 -1 0 1 2 3 1)
1969/12/31/18:00:11.870000,(2 0 -1 3 2 -1 -2 -2)
1969/12/31/18:00:11.870000,(1 -3 -2 0 -1 0 -1 3)
1969/12/31/18:00:11.870000,(0 1 -1 -1 0 1 1 -2)
1969/12/31/18:00:11.870000,(-2 -1 0 1 1 1 1 0)
1969/12/31/18:00:11.871000,(0 0 0 -3 1 0 -1 -1)
1969/12/31/18:00:11.871000,(0 -1 -1 1 0 -1 2 -1)
1969/12/31/18:00:11.891000,(-1 -2 0 0 -1 0 -1 -1)
1969/12/31/18:00:11.892000,(0 -2 2 -2 -4 -3 -2 -2)
1969/12/31/18:00:11.916000,(2 0 -2 2 1 2 1 2)
1969/12/31/18:00:11.916000,(1 0 1 0 0 -1 1 1)
1969/12/31/18:00:11.918000,(-2 0 -1 -1 1 0 -1 0)
1969/12/31/18:00:11.918000,(0 -1 0 -1 -2 -1 1 0)
1969/12/31/18:00:11.919000,(1 0 0 -3 -3 -1 -1 -1)
1969/12/31/18:00:11.919000,(-2 -3 -1 1 1 1 0 -2)
1969/12/31/18:00:11.937000,(1 2 1 2 -1 -2 -1 0)
1969/12/31/18:00:11.937000,(0 1 -1 1 0 1 -3 -1)
1969/12/31/18:00:11.938000,(1 -2 0 1 -2 -2 -2 -2)
1969/12/31/18:00:11.938000,(2 0 0 0 0 1 0 1)
1969/12/31/18:00:11.960000,(-3 -1 -3 -1 0 1 0 1)
1969/12/31/18:00:11.960000,(3 2 3 3 2 -2 0 2)
1969/12/31/18:00:11.961000,(-5 -2 -2 -4 -4 -5 -4 -7)
1969/12/31/18:00:11.961000,(0 -1 0 -2 0 -3 0 -3)
1969/12/31/18:00:11.967000,(-2 -2 -1 -3 0 -3 -3 -1)
1969/12/31/18:00:11.967000,(1 0 -1 -1 2 3 2 0)
1969/12/31/18:00:11.968000,(0 2 0 2 1 2 1 2)
1969/12/31/18:00:11.968000,(2 1 0 -1 -1 0 1 2)
1969/12/31/18:00:11.990000,(2 0 1 0 0 3 1 2)
1969/12/31/18:00:11.990000,(-3 -4 -7 -2 -5 -5 -4 -4)
1969/12/31/18:00:11.992000,(-3 -3 -2 -1 1 1 1 -2)
1969/12/31/18:00:11.992000,(0 1 -1 -2 -3 -3 -3 -1)
1969/12/31/18:00:12.013000,(2 1 3 -4 -7 -1 0 -1)
1969/12/31/18:00:12.013000,(8 6 4 5 2 5 7 7)
1969/12/31/18:00:12.014000,(2 -3 -8 -1 3 1 1 2)
1969/12/31/18:00:12.014000,(-10 -6 -4 -7 -5 -8 -9 -8)
1969/12/31/18:00:12.026000,(0 1 2 3 1 -2 1 -2)
1969/12/31/18:00:12.026000,(-6 -8 0 -8 -7 -1 -2 -3)
1969/12/31/18:00:12.059000,(4 4 -2 -7 5 2 -1 3)
1969/12/31/18:00:12.059000,(0 1 11 2 -14 1 1 0)
1969/12/31/18:00:12.060000,(-2 -2 -16 1 12 -5 -5 -4)
1969/12/31/18:00:12.060000,(3 6 14 -1 -1 1 1 3)
1969/12/31/18:00:12.063000,(10 7 6 19 12 9 9 11)
1969/12/31/18:00:12.063000,(-2 -8 -7 -3 -2 4 3 2)
1969/12/31/18:00:12.072000,(-5 -3 1 13 -1 -5 -8 -7)
1969/12/31/18:00:12.072000,(-2 1 9 11 -10 0 2 -4)
1969/12/31/18:00:12.074000,(-7 -6 -19 -26 0 -6 -7 -8)
1969/12/31/18:00:12.074000,(4 -1 1 -18 7 1 0 0)
1969/12/31/18:00:12.086000,(2 4 10 26 3 9 10 7)
1969/12/31/18:00:12.086000,(3 -1 -17 -28 3 -2 -1 4)
1969/12/31/18:00:12.095000,(-4 -3 13 10 1 -5 -4 0)
1969/12/31/18:00:12.095000,(-10 -10 -21 1 -9 -10 -8 -8)
1969/12/31/18:00:12.110000,(-2 -9 -14 -75 -19 -2 1 -1)
1969/12/31/18:00:12.110000,(9 13 23 73 26 7 4 6)
1969/12/31/18:00:12.112000,(-3 8 45 47 6 11 6 -2)
1969/12/31/18:00:12.112000,(6 2 -21 16 17 4 0 0)
1969/12/31/18:00:12.132000,(1 -6 3 -1 -4 -8 -3 2)
1969/12/31/18:00:12.132000,(-12 -7 -3 -16 -14 -10 -9 -11)
1969/12/31/18:00:12.134000,(1 -9 -27 -45 -30 -10 2 1)
1969/12/31/18:00:12.134000,(-3 -8 -7 -4 -18 -9 -5 -3)
1969/12/31/18:00:12.146000,(2 10 -3 -30 33 3 -1 3)
1969/12/31/18:00:12.146000,(4 -1 -11 -46 -12 10 8 5)
1969/12/31/18:00:12.155000,(-3 1 45 113 42 4 -3 -3)
1969/12/31/18:00:12.155000,(-18 -5 16 39 -6 3 -5 -11)
1969/12/31/18:00:12.170000,(3 -11 -44 -77 -25 -9 -1 1)
1969/12/31/18:00:12.170000,(-6 -3 10 58 3 -12 -10 -8)
1969/12/31/18:00:12.172000,(13 13 -4 5 -32 0 6 9)
1969/12/31/18:00:12.172000,(14 2 -18 -53 30 10 9 13)
1969/12/31/18:00:12.200000,(-12 -9 28 74 10 8 -3 -8)
1969/12/31/18:00:12.200000,(-11 -2 1 0 22 -3 -7 -8)
1969/12/31/18:00:12.202000,(-6 1 11 -5 -2 0 -2 -5)
1969/12/31/18:00:12.202000,(12 13 2 -25 -31 -6 4 7)
1969/12/31/18:00:12.206000,(7 0 -9 -8 6 7 4 6)
1969/12/31/18:00:12.206000,(-4 -13 -24 -36 -23 -6 -3 -2)
1969/12/31/18:00:12.216000,(1 -5 -41 -87 -3 -2 2 2)
1969/12/31/18:00:12.216000,(0 4 47 85 24 2 0 -1)
1969/12/31/18:00:12.230000,(-9 3 16 -4 -1 0 -5 -7)
1969/12/31/18:00:12.230000,(5 4 10 28 2 -1 3 3)
1969/12/31/18:00:12.232000,(-1 -5 -29 -64 -10 -1 -4 -3)
1969/12/31/18:00:12.232000,(-1 -9 -19 -53 -48 -13 -6 -1)
1969/12/31/18:00:12.252000,(-3 3 27 58 56 12 -2 -3)
1969/12/31/18:00:12.252000,(0 0 -2 -56 -40 -6 0 1)
1969/12/31/18:00:12.254000,(3 3 -8 29 13 6 2 1)
1969/12/31/18:00:12.254000,(-2 0 -1 -39 31 4 0 -1)
1969/12/31/18:00:12.266000,(5 15 37 127 15 3 5 3)
1969/12/31/18:00:12.266000,(-3 -8 -26 -48 -1 -5 -1 -3)
1969/12/31/18:00:12.275000,(-6 -11 -20 16 -14 -12 -6 -5)
1969/12/31/18:00:12.275000,(0 1 17 0 -9 -1 5 2)
1969/12/31/18:00:12.289000,(-2 -3 -9 -16 -13 -12 0 -2)
1969/12/31/18:00:12.289000,(-1 -4 -12 -16 -4 -7 -5 -2)
1969/12/31/18:00:12.296000,(4 0 -11 -56 -37 -9 0 2)
1969/12/31/18:00:12.296000,(2 1 9 64 24 5 -3 0)
1969/12/31/18:00:12.313000,(-8 -10 -25 -83 -64 -13 -7 -5)
1969/12/31/18:00:12.313000,(10 5 -2 -71 1 11 3 7)
1969/12/31/18:00:12.315000,(-5 1 48 115 77 28 2 -2)
1969/12/31/18:00:12.315000,(-2 1 -4 -4 33 12 1 -2)
1969/12/31/18:00:12.335000,(7 5 1 10 -3 6 6 5)
1969/12/31/18:00:12.335000,(-5 -7 -18 -15 -33 -17 -5 -4)
1969/12/31/18:00:12.337000,(0 -3 -15 -68 -27 -15 -3 1)
1969/12/31/18:00:12.337000,(-1 3 1 0 1 0 2 1)
1969/12/31/18:00:12.351000,(-4 0 -5 -28 -21 -4 -2 0)
1969/12/31/18:00:12.351000,(2 4 16 74 43 12 4 1)
1969/12/31/18:00:12.356000,(-1 0 2 -3 2 -3 -2 -2)
1969/12/31/18:00:12.356000,(-1 -2 -5 2 -16 -3 0 0)
1969/12/31/18:00:12.372000,(1 -3 -15 -32 -4 -6 -2 -3)
1969/12/31/18:00:12.372000,(1 0 6 13 10 4 2 1)
1969/12/31/18:00:12.374000,(-3 -2 6 13 0 -2 -2 -3)
1969/12/31/18:00:12.374000,(0 1 -5 -16 -13 -2 -1 0)
1969/12/31/18:00:12.386000,(7 3 -2 2 5 6 3 5)
1969/12/31/18:00:12.386000,(-2 -3 6 15 8 5 2 -1)
1969/12/31/18:00:12.395000,(0 0 -2 -6 -9 -3 -1 -1)
1969/12/31/18:00:12.395000,(0 -1 -4 -9 0 -1 2 2)
1969/12/31/18:00:12.409000,(-1 -3 0 0 4 -1 -1 0)
1969/12/31/18:00:12.409000,(-3 -2 3 21 2 -2 -3 -4)
1969/12/31/18:00:12.416000,(3 1 -3 -18 -6 -2 3 5)
1969/12/31/18:00:12.416000,(-4 0 1 -2 -2 -1 0 2)
1969/12/31/18:00:12.432000,(3 4 5 12 5 2 -2 -6)
1969/12/31/18:00:12.432000,(-8 -6 -2 1 -1 -3 -5 -6)
1969/12/31/18:00:12.434000,(11 4 3 1 3 3 3 5)
1969/12/31/18:00:12.434000,(-4 0 -2 -2 -4 -4 -5 -5)
1969/12/31/18:00:12.446000,(-5 -9 -5 -4 -5 0 3 7)
1969/12/31/18:00:12.446000,(7 4 -2 -3 -1 -4 3 10)
1969/12/31/18:00:12.455000,(-29 -7 2 3 5 2 -9 -27)
1969/12/31/18:00:12.455000,(-1 -2 -2 0 -1 -2 1 1)
1969/12/31/18:00:12.477000,(6 7 1 -1 4 4 1 2)
1969/12/31/18:00:12.477000,(1 0 -2 -1 -2 4 -2 5)
1969/12/31/18:00:12.479000,(8 3 -2 -7 -4 3 3 9)
1969/12/31/18:00:12.479000,(1 4 6 6 3 6 2 -3)
1969/12/31/18:00:12.492000,(-3 -2 -2 1 -3 -2 -2 -2)
1969/12/31/18:00:12.492000,(5 3 2 1 4 5 3 5)
1969/12/31/18:00:12.494000,(2 3 0 -6 -3 1 0 1)
1969/12/31/18:00:12.494000,(-3 -2 -3 -9 0 3 -4 -4)
1969/12/31/18:00:12.515000,(0 -1 -2 -5 2 -2 2 2)
1969/12/31/18:00:12.515000,(-9 -6 1 -2 -14 -16 -3 -7)
1969/12/31/18:00:12.517000,(9 -1 -4 9 11 -8 0 1)
1969/12/31/18:00:12.517000,(-6 -4 -2 -2 0 -7 -3 -4)
1969/12/31/18:00:12.529000,(4 1 3 21 11 3 1 2)
1969/12/31/18:00:12.529000,(2 1 1 0 1 4 -3 -3)
1969/12/31/18:00:12.536000,(-8 -5 -3 -2 -10 -5 -3 -2)
1969/12/31/18:00:12.536000,(12 3 -2 -10 -5 1 3 6)
1969/12/31/18:00:12.552000,(-2 -4 -12 -33 -23 -5 -3 -4)
1969/12/31/18:00:12.552000,(0 2 3 16 13 6 2 -3)
1969/12/31/18:00:12.554000,(-1 -3 -8 -31 -12 -2 -3 2)
1969/12/31/18:00:12.554000,(4 2 7 19 14 4 2 3)
1969/12/31/18:00:12.575000,(-3 4 30 100 43 10 1 -1)
1969/12/31/18:00:12.575000,(-4 -4 -1 -1 4 0 -3 -2)
1969/12/31/18:00:12.576000,(5 2 -3 -14 -10 -1 2 4)
1969/12/31/18:00:12.576000,(-5 -6 -12 -34 -21 -8 -4 -5)
1969/12/31/18:00:12.589000,(-1 -2 -12 -43 -17 -9 -5 -2)
1969/12/31/18:00:12.589000,(4 2 -1 1 -1 4 8 8)
1969/12/31/18:00:12.596000,(-3 -1 6 7 11 -1 -3 -3)
1969/12/31/18:00:12.596000,(2 1 -2 -6 -8 0 4 6)
1969/12/31/18:00:12.620000,(-4 1 2 1 5 2 4 0)
1969/12/31/18:00:12.620000,(-8 -5 -6 -21 -8 -4 -10 -13)
1969/12/31/18:00:12.621000,(6 -2 -10 -9 -10 -2 -1 5)
1969/12/31/18:00:12.621000,(2 -2 -16 -31 -1 -5 -3 1)
1969/12/31/18:00:12.635000,(1 2 22 77 19 3 5 1)
1969/12/31/18:00:12.635000,(-13 -6 12 14 2 -4 -8 -11)
1969/12/31/18:00:12.637000,(-4 1 -5 -4 0 3 5 3)
1969/12/31/18:00:12.637000,(2 1 -7 -27 -8 -5 -4 -3)
1969/12/31/18:00:12.649000,(-2 -5 -7 -4 -2 -2 0 1)
1969/12/31/18:00:12.649000,(-8 -4 4 32 8 -1 -3 -5)
1969/12/31/18:00:12.656000,(1 3 11 21 9 3 3 3)
1969/12/31/18:00:12.656000,(-30 -7 0 -4 -6 -6 -10 -16)
1969/12/31/18:00:12.673000,(32 8 -18 -57 -18 0 5 9)
1969/12/31/18:00:12.673000,(8 14 4 2 6 3 4 8)
1969/12/31/18:00:12.674000,(-21 -8 -7 -10 -7 -6 -10 -13)
1969/12/31/18:00:12.674000,(6 0 9 22 11 10 9 10)
1969/12/31/18:00:12.695000,(-8 -3 -7 -19 -14 -13 -10 -4)
1969/12/31/18:00:12.695000,(28 9 -3 -14 2 11 14 18)
1969/12/31/18:00:12.697000,(-6 -1 -1 12 -1 -2 -4 -7)
1969/12/31/18:00:12.697000,(-6 -4 -6 -14 -6 -2 -1 -7)
1969/12/31/18:00:12.708000,(-6 5 10 22 10 5 4 0)
1969/12/31/18:00:12.709000,(0 -3 -1 7 -2 0 -1 0)
1969/12/31/18:00:12.718000,(6 -4 -3 -7 -8 -1 2 4)
1969/12/31/18:00:12.718000,(-13 -2 6 16 3 0 -4 -14)
1969/12/31/18:00:12.732000,(3 -4 -6 -14 -6 -3 2 4)
1969/12/31/18:00:12.733000,(-13 -10 -7 -7 -2 -7 -3 -1)
1969/12/31/18:00:12.734000,(17 10 8 15 10 2 -2 0)
1969/12/31/18:00:12.734000,(2 -1 -2 8 -3 0 3 2)
1969/12/31/18:00:12.755000,(0 -1 -9 -24 -7 -2 -3 -4)
1969/12/31/18:00:12.755000,(-11 -3 -3 -7 -1 -1 2 -1)
1969/12/31/18:00:12.757000,(-1 -7 3 8 1 0 1 -1)
1969/12/31/18:00:12.757000,(16 4 2 10 4 -1 0 8)
1969/12/31/18:00:12.769000,(-15 -7 -4 -11 2 1 -3 -5)
1969/12/31/18:00:12.769000,(3 -1 -17 -36 -19 -8 -4 0)
1969/12/31/18:00:12.777000,(-7 -6 -7 -22 -12 -4 -7 -5)
1969/12/31/18:00:12.777000,(12 11 17 62 20 12 10 11)
1969/12/31/18:00:12.792000,(0 4 19 40 31 6 0 -2)
1969/12/31/18:00:12.793000,(-1 -2 6 11 -6 2 -1 -5)
1969/12/31/18:00:12.794000,(-1 -3 -4 -24 -10 -9 -5 -2)
1969/12/31/18:00:12.794000,(-20 -16 -11 -26 -10 -9 -8 -11)
1969/12/31/18:00:12.815000,(28 8 -9 -12 -4 3 12 22)
1969/12/31/18:00:12.815000,(-11 -3 -2 -7 -2 -8 -12 -13)
1969/12/31/18:00:12.817000,(-8 -2 0 3 3 0 -1 -2)
1969/12/31/18:00:12.817000,(4 0 5 12 3 3 0 5)
1969/12/31/18:00:12.829000,(-3 1 -3 -13 -10 -3 -1 1)
1969/12/31/18:00:12.829000,(10 7 -3 -9 1 2 3 5)
1969/12/31/18:00:12.838000,(8 1 -7 -24 7 1 1 1)
1969/12/31/18:00:12.838000,(-3 -4 3 25 -7 -4 -4 -2)
1969/12/31/18:00:12.852000,(-5 -4 4 -3 -1 -1 -3 -6)
1969/12/31/18:00:12.852000,(1 -1 4 13 5 3 3 0)
1969/12/31/18:00:12.854000,(-18 -5 -1 -9 -13 -6 -6 -14)
1969/12/31/18:00:12.854000,(5 -3 -30 -86 -24 -9 -2 2)
1969/12/31/18:00:12.883000,(-7 -5 7 40 6 0 -3 -3)
1969/12/31/18:00:12.883000,(17 16 33 81 40 19 10 8)
1969/12/31/18:00:12.884000,(-12 -1 20 46 33 18 5 -5)
1969/12/31/18:00:12.884000,(12 7 -2 -4 -8 1 1 6)
1969/12/31/18:00:12.897000,(-14 -11 -20 -50 -31 -14 -11 -14)
1969/12/31/18:00:12.897000,(14 3 -17 -41 -15 -7 -1 9)
1969/12/31/18:00:12.899000,(6 1 5 15 -3 -1 3 8)
1969/12/31/18:00:12.899000,(-17 -6 -1 0 4 -2 -6 -10)
1969/12/31/18:00:12.912000,(-25 2 6 -4 2 5 3 -5)
1969/12/31/18:00:12.912000,(29 7 -3 1 0 1 3 11)
1969/12/31/18:00:12.914000,(4 1 -5 -3 0 0 0 4)
1969/12/31/18:00:12.914000,(10 6 5 13 5 1 3 4)
1969/12/31/18:00:12.942000,(-15 -11 -3 -5 -1 -5 -5 -7)
1969/12/31/18:00:12.942000,(-10 -6 0 -5 -1 1 3 -1)
1969/12/31/18:00:12.944000,(14 13 2 1 -2 1 2 9)
1969/12/31/18:00:12.944000,(-24 -8 2 10 8 -1 -5 -13)
1969/12/31/18:00:12.949000,(5 1 2 6 -1 -3 -3 -5)
1969/12/31/18:00:12.949000,(-1 -5 -5 -16 -9 -3 -2 -2)
1969/12/31/18:00:12.958000,(0 2 1 6 4 8 12 12)
1969/12/31/18:00:12.958000,(6 3 8 18 9 2 0 1)
1969/12/31/18:00:12.972000,(6 0 -3 -10 -4 -2 -3 -2)
1969/12/31/18:00:12.972000,(-14 -9 -4 -7 -8 -9 -10 -14)
1969/12/31/18:00:12.974000,(7 2 -4 -7 -2 3 4 8)
1969/12/31/18:00:12.974000,(11 5 1 6 4 4 9 10)
1969/12/31/18:00:12.995000,(2 -2 -2 -4 -2 -1 -3 -4)
1969/12/31/18:00:12.995000,(-11 -5 0 -3 -4 -8 -6 -5)
1969/12/31/18:00:12.997000,(-3 -5 -2 1 -5 -7 -8 -4)
1969/12/31/18:00:12.997000,(6 4 0 -23 0 2 2 0)
1969/12/31/18:00:13.009000,(10 4 -3 9 -9 1 2 9)
1969/12/31/18:00:13.009000,(-8 0 5 5 4 3 3 -3)
1969/12/31/18:00:13.018000,(2 -2 2 23 11 -1 -2 -4)
1969/12/31/18:00:13.018000,(-4 -6 -2 7 0 -8 -9 -8)
1969/12/31/18:00:13.040000,(5 5 -3 -39 -3 12 15 17)
1969/12/31/18:00:13.040000,(8 4 2 20 2 0 0 0)
1969/12/31/18:00:13.042000,(2 -2 -1 1 -6 -4 -5 -3)
1969/12/31/18:00:13.042000,(-8 -6 2 7 3 -1 -3 -7)
1969/12/31/18:00:13.055000,(8 3 -5 -43 -8 2 7 12)
1969/12/31/18:00:13.055000,(-19 -13 2 33 -1 -4 -5 -8)
1969/12/31/18:00:13.057000,(27 13 6 9 7 3 4 4)
1969/12/31/18:00:13.057000,(-11 -5 8 26 8 -5 -10 -12)
1969/12/31/18:00:13.069000,(-3 -5 -9 -13 -7 -5 -1 -1)
1969/12/31/18:00:13.069000,(16 9 -10 -37 -7 -1 0 8)
1969/12/31/18:00:13.078000,(10 -4 -5 -9 -8 -5 -3 -1)
1969/12/31/18:00:13.078000,(11 11 -1 3 3 7 10 13)
1969/12/31/18:00:13.093000,(-7 -5 5 14 7 -4 -14 -25)
1969/12/31/18:00:13.093000,(-29 -13 1 13 6 0 -1 -7)
1969/12/31/18:00:13.094000,(5 8 2 -1 -8 -6 -3 2)
1969/12/31/18:00:13.094000,(-2 -7 -2 -26 -9 11 21 22)
1969/12/31/18:00:13.115000,(3 -1 -12 2 13 -3 -5 -3)
1969/12/31/18:00:13.115000,(7 7 8 2 -6 -1 -3 -2)
1969/12/31/18:00:13.117000,(-11 6 1 7 1 -1 -5 -9)
1969/12/31/18:00:13.117000,(-30 -17 7 4 -6 -8 -4 -2)
1969/12/31/18:00:13.137000,(40 12 -2 11 -1 1 3 11)
1969/12/31/18:00:13.137000,(-29 -11 -4 -19 -4 -2 -9 -23)
1969/12/31/18:00:13.139000,(38 10 -23 -55 -10 3 8 22)
1969/12/31/18:00:13.139000,(-68 -30 -11 12 -1 -8 -15 -30)
1969/12/31/18:00:13.160000,(26 3 15 29 8 7 4 6)
1969/12/31/18:00:13.160000,(16 21 5 0 2 -3 -2 0)
1969/12/31/18:00:13.161000,(-67 -30 3 -4 -8 -7 -10 -26)
1969/12/31/18:00:13.161000,(110 43 -19 -33 -1 6 15 34)
1969/12/31/18:00:13.177000,(-40 -20 -18 -34 -21 -8 -11 -21)
1969/12/31/18:00:13.177000,(5 4 23 90 39 13 11 11)
1969/12/31/18:00:13.178000,(-15 -6 23 46 7 0 -3 -5)
1969/12/31/18:00:13.179000,(0 -1 5 17 4 -3 -4 -5)
1969/12/31/18:00:13.189000,(-6 -3 -15 -46 -14 -4 3 5)
1969/12/31/18:00:13.189000,(47 12 -23 -47 -16 3 16 33)
1969/12/31/18:00:13.197000,(-48 -25 0 14 0 -7 -19 -35)
1969/12/31/18:00:13.197000,(19 20 10 2 -1 1 -1 -2)
1969/12/31/18:00:13.212000,(-5 3 3 28 9 -2 -8 -4)
1969/12/31/18:00:13.212000,(-4 -20 -5 -11 1 1 1 5)
1969/12/31/18:00:13.214000,(15 9 -3 -3 2 3 8 14)
1969/12/31/18:00:13.214000,(-53 -23 -13 -9 -21 -22 -30 -37)
1969/12/31/18:00:13.242000,(51 40 17 -3 12 30 41 36)
1969/12/31/18:00:13.242000,(-29 -28 -10 -2 -8 -10 -11 -15)
1969/12/31/18:00:13.244000,(7 2 -9 -5 3 6 7 11)
1969/12/31/18:00:13.244000,(-9 -14 8 -2 -1 -1 -4 -5)
1969/12/31/18:00:13.249000,(43 30 2 22 5 0 3 13)
1969/12/31/18:00:13.249000,(-13 -2 0 -13 -4 -1 -4 -6)
1969/12/31/18:00:13.258000,(11 25 -1 -8 -7 -5 -4 -6)
1969/12/31/18:00:13.258000,(-20 -10 -3 -21 -5 8 10 9)
1969/12/31/18:00:13.272000,(8 -1 7 36 14 -2 -10 -10)
1969/12/31/18:00:13.272000,(-32 -30 -6 -12 -9 1 6 8)
1969/12/31/18:00:13.279000,(-6 10 7 -5 2 4 -6 -19)
1969/12/31/18:00:13.279000,(15 8 -1 7 -4 -7 -11 -4)
1969/12/31/18:00:13.302000,(24 20 9 3 2 11 21 29)
1969/12/31/18:00:13.302000,(-34 -30 -13 -18 -6 -5 -14 -18)
1969/12/31/18:00:13.319000,(-5 -8 0 3 -1 -6 -7 -4)
1969/12/31/18:00:13.320000,(8 1 5 10 5 4 4 8)
1969/12/31/18:00:13.320000,(-51 -32 -8 -2 -4 -5 -12 -21)
1969/12/31/18:00:13.320000,(5 -5 4 -5 -1 5 13 15)
1969/12/31/18:00:13.331000,(24 39 13 1 4 2 1 -1)
1969/12/31/18:00:13.331000,(19 9 -5 0 2 2 -1 -3)
1969/12/31/18:00:13.340000,(-42 -27 -3 -3 -8 -11 -14 -18)
1969/12/31/18:00:13.340000,(27 18 1 -3 -2 -1 2 7)
1969/12/31/18:00:13.346000,(-24 -23 -8 12 0 -3 2 3)
1969/12/31/18:00:13.346000,(-54 -25 8 33 13 4 5 -9)
1969/12/31/18:00:13.355000,(73 53 24 27 12 7 18 43)
1969/12/31/18:00:13.355000,(-16 3 -1 9 2 -6 -12 -26)
1969/12/31/18:00:13.357000,(-28 -30 -11 -23 -2 2 7 7)
1969/12/31/18:00:13.357000,(-32 -18 -13 -12 -10 -12 -15 -22)
1969/12/31/18:00:13.369000,(-8 -14 -5 -5 -4 -2 -1 4)
1969/12/31/18:00:13.369000,(27 27 11 -6 -4 -4 -13 -13)
1969/12/31/18:00:13.378000,(40 11 -12 -13 -4 3 10 31)
1969/12/31/18:00:13.378000,(15 5 1 2 -2 -1 1 4)
1969/12/31/18:00:13.392000,(-23 -16 -17 -40 -9 4 2 -4)
1969/12/31/18:00:13.392000,(-37 -30 0 10 8 -1 1 -5)
1969/12/31/18:00:13.399000,(41 29 6 24 -7 1 -1 -5)
1969/12/31/18:00:13.399000,(2 5 14 20 12 -5 -4 -3)
1969/12/31/18:00:13.415000,(-1 1 1 13 4 -3 -6 -8)
1969/12/31/18:00:13.415000,(12 17 -1 -10 -3 -6 -5 -5)
1969/12/31/18:00:13.417000,(24 -8 1 2 14 24 39 61)
1969/12/31/18:00:13.417000,(-22 -24 -13 -13 -10 0 -3 -14)
1969/12/31/18:00:13.454000,(4 1 8 -2 -4 -12 -15 -9)
1969/12/31/18:00:13.454000,(42 29 1 -7 0 7 9 18)
1969/12/31/18:00:13.456000,(-37 -28 -3 -2 -8 -13 -16 -17)
1969/12/31/18:00:13.456000,(44 44 5 -8 10 22 20 19)
1969/12/31/18:00:13.457000,(-10 -19 -3 -2 -8 -6 -5 -1)
1969/12/31/18:00:13.457000,(11 6 -5 5 1 2 3 5)
1969/12/31/18:00:13.460000,(-49 -25 1 -10 -15 -16 -24 -40)
1969/12/31/18:00:13.460000,(30 11 8 39 28 25 30 36)
1969/12/31/18:00:13.477000,(1 7 10 12 2 7 8 5)
1969/12/31/18:00:13.477000,(-34 -20 -12 -9 -6 -6 -15 -23)
1969/12/31/18:00:13.478000,(-11 -8 0 -26 2 -10 -11 -15)
1969/12/31/18:00:13.478000,(25 3 10 10 -3 10 18 18)
1969/12/31/18:00:13.497000,(10 16 -3 6 0 -7 -2 4)
1969/12/31/18:00:13.497000,(1 -11 -3 2 3 9 18 21)
1969/12/31/18:00:13.499000,(43 21 3 -5 3 -4 0 12)
1969/12/31/18:00:13.499000,(-41 -27 -17 -29 -25 -37 -44 -45)
1969/12/31/18:00:13.511000,(2 -1 -3 7 -1 3 1 2)
1969/12/31/18:00:13.512000,(-20 -3 -4 -1 5 0 -8 -23)
1969/12/31/18:00:13.520000,(-18 -15 -9 -3 0 7 3 -8)
1969/12/31/18:00:13.520000,(24 10 9 5 -6 -11 -11 -6)
1969/12/31/18:00:13.535000,(32 35 -9 -25 -10 -5 -3 2)
1969/12/31/18:00:13.535000,(0 9 -2 -12 -8 -5 -2 -2)
1969/12/31/18:00:13.536000,(2 5 6 25 -1 -5 -2 -2)
1969/12/31/18:00:13.536000,(18 8 10 26 15 -1 -9 12)
1969/12/31/18:00:13.557000,(-128 -105 -7 8 2 -8 -16 -65)
1969/12/31/18:00:13.557000,(115 110 29 3 16 34 64 105)
1969/12/31/18:00:13.559000,(-7 -10 -6 -3 -10 -7 -7 -9)
1969/12/31/18:00:13.559000,(-40 1 -1 -10 0 8 13 5)
1969/12/31/18:00:13.580000,(-21 -17 -14 -29 -7 -3 -9 -15)
1969/12/31/18:00:13.580000,(-11 -18 -13 -48 -28 -13 -17 -15)
1969/12/31/18:00:13.582000,(5 5 14 55 22 5 1 1)
1969/12/31/18:00:13.582000,(20 19 15 34 19 13 10 14)
1969/12/31/18:00:13.595000,(7 9 10 24 4 -3 -9 -2)
1969/12/31/18:00:13.595000,(-39 -31 -10 -9 21 -10 -18 -29)
1969/12/31/18:00:13.597000,(14 15 -9 -8 -39 -9 2 14)
1969/12/31/18:00:13.597000,(-8 -19 -19 -26 -15 -10 -7 -7)
1969/12/31/18:00:13.618000,(-68 -44 6 9 0 -7 -16 -22)
1969/12/31/18:00:13.618000,(-48 -9 9 -4 -1 3 -9 -48)
1969/12/31/18:00:13.619000,(-36 -16 -6 -21 5 -3 -15 -26)
1969/12/31/18:00:13.619000,(-20 -12 -1 -1 -1 2 0 -11)
1969/12/31/18:00:13.631000,(45 50 -5 -16 -15 -6 0 16)
1969/12/31/18:00:13.631000,(8 -4 -7 7 -9 -13 -7 12)
1969/12/31/18:00:13.647000,(60 34 6 9 23 28 22 32)
1969/12/31/18:00:13.648000,(-32 -17 1 -23 -14 2 -17 -29)
1969/12/31/18:00:13.655000,(16 16 -10 -78 -10 28 20 22)
1969/12/31/18:00:13.655000,(1 -4 18 54 0 4 -2 0)
1969/12/31/18:00:13.657000,(-3 -6 -7 20 14 -1 7 -3)
1969/12/31/18:00:13.657000,(25 13 -6 18 17 -15 9 22)
1969/12/31/18:00:13.678000,(-98 -113 -6 42 2 -34 -19 -49)
1969/12/31/18:00:13.678000,(108 91 7 -4 3 1 24 67)
1969/12/31/18:00:13.679000,(-42 -34 -13 -34 -15 -14 -9 -10)
1969/12/31/18:00:13.679000,(-27 -28 -2 -2 -1 0 1 -2)
1969/12/31/18:00:13.691000,(108 96 23 17 16 17 28 69)
1969/12/31/18:00:13.691000,(3 -24 -13 -9 -5 1 -1 -5)
1969/12/31/18:00:13.700000,(-5 2 3 3 7 10 4 2)
1969/12/31/18:00:13.700000,(-50 -67 -17 -17 -11 -6 -8 -3)
1969/12/31/18:00:13.722000,(57 56 14 9 -4 -2 -10 -5)
1969/12/31/18:00:13.722000,(-25 -27 -23 -52 -11 -2 -3 -8)
1969/12/31/18:00:13.724000,(21 23 12 25 2 0 -6 3)
1969/12/31/18:00:13.724000,(9 13 9 23 -14 -9 -4 -2)
1969/12/31/18:00:13.738000,(-19 -16 -4 14 9 2 -2 -6)
1969/12/31/18:00:13.738000,(-30 -16 0 15 7 1 -8 -18)
1969/12/31/18:00:13.739000,(-29 -26 -8 -15 1 -2 -3 -13)
1969/12/31/18:00:13.739000,(16 23 1 -16 -3 1 1 1)
1969/12/31/18:00:13.751000,(-19 -9 1 -2 -3 9 5 -8)
1969/12/31/18:00:13.751000,(-4 4 21 21 6 6 -1 -4)
1969/12/31/18:00:13.760000,(20 16 -21 -12 -9 -10 -3 9)
1969/12/31/18:00:13.760000,(22 -8 -32 -24 -23 -27 -13 4)
1969/12/31/18:00:13.775000,(2 6 -12 -17 -9 -10 -9 -11)
1969/12/31/18:00:13.775000,(52 29 15 5 3 3 4 14)
1969/12/31/18:00:13.776000,(-85 -66 3 -1 -3 -4 -18 -43)
1969/12/31/18:00:13.777000,(44 54 8 0 12 15 9 9)
1969/12/31/18:00:13.806000,(-15 -18 -6 -13 -8 -7 -4 -6)
1969/12/31/18:00:13.806000,(-37 -26 -11 -9 -7 -4 -3 -16)
1969/12/31/18:00:13.807000,(-29 -22 15 22 3 -3 -4 -9)
1969/12/31/18:00:13.807000,(76 65 10 10 19 23 29 46)
1969/12/31/18:00:13.811000,(-20 -12 5 11 0 1 0 -5)
1969/12/31/18:00:13.811000,(-12 -8 -5 6 -2 -2 1 -1)
1969/12/31/18:00:13.820000,(22 19 -3 -4 19 0 5 12)
1969/12/31/18:00:13.820000,(-20 -13 -3 -16 -17 0 0 -7)
1969/12/31/18:00:13.835000,(-15 -4 3 9 0 -11 -15 -14)
1969/12/31/18:00:13.835000,(46 25 -2 1 14 25 39 57)
1969/12/31/18:00:13.836000,(1 0 -28 -74 -29 -11 -5 -5)
1969/12/31/18:00:13.836000,(-11 -2 11 20 11 3 1 -4)
1969/12/31/18:00:13.865000,(-3 3 29 77 21 13 5 -1)
1969/12/31/18:00:13.866000,(-26 -18 15 59 20 -1 -14 -20)
1969/12/31/18:00:13.867000,(8 -32 13 27 23 19 22 31)
1969/12/31/18:00:13.867000,(38 37 -12 -42 -10 0 14 24)
1969/12/31/18:00:13.871000,(-1 -7 -28 -49 -21 -12 -8 -4)
1969/12/31/18:00:13.871000,(-21 -17 -10 -23 -8 -4 -1 -7)
1969/12/31/18:00:13.880000,(0 5 2 -2 -7 3 4 5)
1969/12/31/18:00:13.880000,(-24 -13 -1 -6 -6 -4 -10 -24)
1969/12/31/18:00:13.895000,(26 17 6 -14 5 16 31 42)
1969/12/31/18:00:13.895000,(-26 -29 -8 -4 -6 -9 -12 -20)
1969/12/31/18:00:13.897000,(76 84 11 -1 -10 -6 4 32)
1969/12/31/18:00:13.897000,(-28 -15 10 32 19 10 2 -10)
1969/12/31/18:00:13.917000,(12 20 3 11 14 9 9 11)
1969/12/31/18:00:13.917000,(-23 -11 6 6 2 -5 -13 -20)
1969/12/31/18:00:13.919000,(14 26 -10 -29 -31 -13 -6 -2)
1969/12/31/18:00:13.919000,(-29 -37 -14 -6 -1 3 1 -3)
1969/12/31/18:00:13.931000,(71 47 7 18 26 18 23 44)
1969/12/31/18:00:13.931000,(-34 -27 7 46 3 -9 -13 -19)
1969/12/31/18:00:13.940000,(1 22 7 10 13 0 -13 -22)
1969/12/31/18:00:13.940000,(21 22 2 -7 -4 0 1 4)
1969/12/31/18:00:13.955000,(-38 -42 -22 -34 -24 -25 -24 -20)
1969/12/31/18:00:13.955000,(2 -6 -12 -14 -3 -1 5 10)
1969/12/31/18:00:13.956000,(51 59 20 12 19 27 34 39)
1969/12/31/18:00:13.956000,(-15 -14 -7 -16 -12 -14 -23 -27)
1969/12/31/18:00:14.001000,(38 19 -1 -4 0 6 12 21)
1969/12/31/18:00:14.001000,(0 16 9 -1 -1 2 4 12)
1969/12/31/18:00:14.003000,(-37 -35 -4 1 -7 -12 -20 -30)
1969/12/31/18:00:14.003000,(-4 -3 4 -4 4 4 6 4)
1969/12/31/18:00:14.004000,(-31 -23 -5 18 4 -1 -6 -20)
1969/12/31/18:00:14.004000,(-1 6 -7 -18 -5 -8 -8 -7)
1969/12/31/18:00:14.008000,(21 16 7 -2 1 18 23 26)
1969/12/31/18:00:14.008000,(-14 -12 0 5 -2 -5 -8 -8)
1969/12/31/18:00:14.015000,(-43 -31 5 9 -3 -8 -10 -22)
1969/12/31/18:00:14.015000,(19 5 -17 -41 -14 -5 0 5)
1969/12/31/18:00:14.017000,(-46 -30 -1 24 6 -9 -20 -36)
1969/12/31/18:00:14.017000,(-87 -91 -2 12 -3 -10 -16 -30)
1969/12/31/18:00:14.037000,(46 46 13 8 17 21 26 31)
1969/12/31/18:00:14.037000,(11 19 1 -24 -13 -5 0 7)
1969/12/31/18:00:14.039000,(-27 -27 -12 -8 0 4 -1 -11)
1969/12/31/18:00:14.039000,(-3 0 -3 -6 -9 -9 -7 -7)
1969/12/31/18:00:14.051000,(-20 -24 -9 -9 -6 -7 -8 -10)
1969/12/31/18:00:14.051000,(-10 -8 -1 8 -3 -4 -5 -12)
1969/12/31/18:00:14.060000,(9 -6 -1 0 -1 3 6 8)
1969/12/31/18:00:14.060000,(21 27 4 -7 -6 4 7 10)
1969/12/31/18:00:14.076000,(-22 -9 1 0 -22 -18 -14 -19)
1969/12/31/18:00:14.076000,(15 16 8 11 26 12 4 4)
1969/12/31/18:00:14.078000,(-13 -11 -6 -3 4 2 -4 -7)
1969/12/31/18:00:14.078000,(8 6 -15 -8 32 12 3 4)
1969/12/31/18:00:14.097000,(-9 -2 10 -18 -11 -5 -9 -12)
1969/12/31/18:00:14.097000,(-20 -17 -7 43 -9 -13 -12 -16)
1969/12/31/18:00:14.099000,(3 -11 -8 -13 -20 -7 5 9)
1969/12/31/18:00:14.099000,(8 22 23 -26 -65 -36 -11 0)
1969/12/31/18:00:14.111000,(1 -1 -19 -16 6 9 5 2)
1969/12/31/18:00:14.111000,(-7 -11 -4 39 42 18 2 -5)
1969/12/31/18:00:14.120000,(-6 -2 14 39 50 20 5 -1)
1969/12/31/18:00:14.120000,(10 7 -15 -5 1 13 5 2)
1969/12/31/18:00:14.142000,(-14 -7 8 7 -14 -11 -11 -11)
1969/12/31/18:00:14.142000,(-2 10 15 -52 6 1 5 2)
1969/12/31/18:00:14.144000,(5 -4 -26 -10 -35 -22 -12 -2)
1969/12/31/18:00:14.144000,(-7 -12 -13 7 -14 -17 -9 -6)
1969/12/31/18:00:14.157000,(-12 -9 -4 33 -1 -10 -6 -8)
1969/12/31/18:00:14.157000,(-3 0 5 -13 -8 4 0 -3)
1969/12/31/18:00:14.159000,(1 11 23 1 12 1 0 -1)
1969/12/31/18:00:14.159000,(22 22 3 -21 16 11 13 17)
1969/12/31/18:00:14.171000,(-2 -7 -13 -27 -17 2 0 0)
1969/12/31/18:00:14.171000,(2 -10 -23 20 -8 -6 -2 0)
1969/12/31/18:00:14.180000,(-14 -8 13 24 3 -8 -8 -10)
1969/12/31/18:00:14.180000,(3 6 2 7 4 3 3 3)
1969/12/31/18:00:14.194000,(-2 5 11 -2 16 11 3 -2)
1969/12/31/18:00:14.194000,(0 1 2 9 -4 0 1 -2)
1969/12/31/18:00:14.201000,(-2 -12 -26 -15 -12 -7 -2 1)
1969/12/31/18:00:14.201000,(-5 -4 8 36 9 -8 -8 -7)
1969/12/31/18:00:14.217000,(-8 -4 8 -4 9 -1 -4 -6)
1969/12/31/18:00:14.217000,(-1 7 11 -5 -12 -2 -2 -2)
1969/12/31/18:00:14.219000,(4 1 -19 -17 -18 -4 3 4)
1969/12/31/18:00:14.219000,(8 -1 -14 4 8 3 4 6)
1969/12/31/18:00:14.231000,(-5 -10 -2 24 -1 -2 -1 -4)
1969/12/31/18:00:14.231000,(-9 -6 6 14 -13 -9 -6 -8)
1969/12/31/18:00:14.240000,(0 9 20 -13 -4 -4 0 -1)
1969/12/31/18:00:14.240000,(2 4 -10 -43 -4 4 2 5)
1969/12/31/18:00:14.254000,(1 -2 -9 -55 -7 3 2 3)
1969/12/31/18:00:14.254000,(-1 -4 -15 21 6 2 -1 1)
1969/12/31/18:00:14.261000,(-1 3 22 49 8 5 0 -2)
1969/12/31/18:00:14.261000,(5 14 22 21 3 15 5 1)
1969/12/31/18:00:14.285000,(11 5 -5 8 14 15 7 10)
1969/12/31/18:00:14.285000,(-3 -3 -12 -1 5 -2 -6 -3)
1969/12/31/18:00:14.287000,(-10 -16 -17 -56 -15 -6 -10 -8)
1969/12/31/18:00:14.287000,(4 10 18 7 1 5 6 4)
1969/12/31/18:00:14.300000,(-3 1 6 15 1 -3 -3 -6)
1969/12/31/18:00:14.300000,(7 0 -6 -15 -5 0 6 7)
1969/12/31/18:00:14.301000,(-8 -8 -17 -65 -12 -9 -4 -5)
1969/12/31/18:00:14.301000,(-7 -7 3 57 14 -4 1 -2)
1969/12/31/18:00:14.314000,(-1 -5 -7 -6 4 -12 1 -3)
1969/12/31/18:00:14.314000,(-3 -6 4 5 -17 -14 -5 -2)
1969/12/31/18:00:14.323000,(2 -1 -14 -7 9 0 -2 0)
1969/12/31/18:00:14.323000,(5 -5 5 23 6 3 1 3)
1969/12/31/18:00:14.337000,(-9 9 19 12 -1 2 -8 -8)
1969/12/31/18:00:14.337000,(3 -6 -25 -40 -8 13 1 3)
1969/12/31/18:00:14.339000,(2 9 20 19 8 12 3 4)
1969/12/31/18:00:14.339000,(5 4 -29 -92 -22 7 0 3)
1969/12/31/18:00:14.367000,(2 1 9 43 3 7 -1 0)
1969/12/31/18:00:14.367000,(0 12 32 33 21 11 2 -2)
1969/12/31/18:00:14.369000,(4 2 12 1 3 18 9 5)
1969/12/31/18:00:14.369000,(0 -1 -8 -1 15 6 2 0)
1969/12/31/18:00:14.373000,(-3 -6 -16 -37 -17 -5 -1 -2)
1969/12/31/18:00:14.374000,(1 9 10 -34 -25 -4 0 2)
1969/12/31/18:00:14.383000,(4 5 23 54 23 8 7 4)
1969/12/31/18:00:14.383000,(-7 -5 -16 -6 2 -6 -5 -6)
1969/12/31/18:00:14.397000,(-2 -6 -9 -26 -2 -8 0 0)
1969/12/31/18:00:14.397000,(-9 -5 -3 8 -1 2 1 -3)
1969/12/31/18:00:14.399000,(6 4 1 0 17 -1 1 6)
1969/12/31/18:00:14.399000,(-4 -6 7 2 -9 -10 -4 -4)
1969/12/31/18:00:14.420000,(-6 -5 -11 -25 -6 -12 -4 -4)
1969/12/31/18:00:14.420000,(2 0 -5 -6 0 -6 1 2)
1969/12/31/18:00:14.422000,(0 -4 -11 -23 -16 -10 -2 -3)
1969/12/31/18:00:14.422000,(4 5 19 55 -1 -3 -1 -2)
1969/12/31/18:00:14.442000,(0 1 12 30 23 2 -3 1)
1969/12/31/18:00:14.442000,(1 -2 -5 14 5 -4 -1 -2)
1969/12/31/18:00:14.444000,(-6 -1 -9 -15 0 -6 -3 -3)
1969/12/31/18:00:14.444000,(-3 -8 -39 -125 -64 -16 -5 -2)
1969/12/31/18:00:14.457000,(-2 0 12 81 20 5 0 -2)
1969/12/31/18:00:14.457000,(9 4 21 39 14 1 4 6)
1969/12/31/18:00:14.459000,(-5 -4 0 1 12 1 -3 -5)
1969/12/31/18:00:14.459000,(2 -1 11 53 67 13 3 1)
1969/12/31/18:00:14.480000,(1 -5 -21 -34 -24 -10 -2 -1)
1969/12/31/18:00:14.480000,(-12 -6 -8 1 -6 -9 -8 -8)
1969/12/31/18:00:14.482000,(-1 1 -7 -25 -40 -8 2 -1)
1969/12/31/18:00:14.482000,(9 -4 3 31 3 9 9 11)
1969/12/31/18:00:14.494000,(-6 -1 -2 -24 5 2 -4 -3)
1969/12/31/18:00:14.494000,(15 9 -2 -17 -1 12 7 12)
1969/12/31/18:00:14.494000,(3 0 -2 -4 5 7 2 2)
1969/12/31/18:00:14.494000,(-1 1 -2 -5 1 5 -2 -1)
1969/12/31/18:00:14.500000,(3 1 -1 -7 -4 2 -1 3)
1969/12/31/18:00:14.500000,(-4 1 6 11 6 7 3 1)
1969/12/31/18:00:14.517000,(-1 1 -1 -10 -3 -2 -3 -2)
1969/12/31/18:00:14.517000,(-8 -5 -4 2 -6 -6 -4 -8)
1969/12/31/18:00:14.518000,(1 -1 -5 -16 -8 -2 5 1)
1969/12/31/18:00:14.518000,(5 -1 2 6 -1 -5 0 5)
1969/12/31/18:00:14.530000,(1 -1 -2 -21 4 5 3 0)
1969/12/31/18:00:14.530000,(-1 -2 -1 41 13 5 4 3)
1969/12/31/18:00:14.546000,(-1 0 3 -9 0 -6 -5 -4)
1969/12/31/18:00:14.546000,(-5 4 20 49 16 6 -3 -11)
1969/12/31/18:00:14.554000,(1 3 3 0 0 -2 6 12)
1969/12/31/18:00:14.554000,(-3 -10 -11 -21 -15 -8 -10 -12)
1969/12/31/18:00:14.556000,(0 -1 -12 -28 -12 -8 -6 -1)
1969/12/31/18:00:14.556000,(-3 -3 -9 -25 -11 -1 3 0)
1969/12/31/18:00:14.577000,(-2 2 7 21 11 6 0 -7)
1969/12/31/18:00:14.577000,(5 4 6 1 4 1 0 7)
1969/12/31/18:00:14.578000,(-1 1 0 -2 -5 -2 0 1)
1969/12/31/18:00:14.578000,(2 -3 -6 -22 -7 -1 -4 -4)
1969/12/31/18:00:14.590000,(-6 -5 -10 -10 -4 -3 2 -4)
1969/12/31/18:00:14.590000,(-2 -2 0 -23 -7 5 9 4)
1969/12/31/18:00:14.599000,(-4 0 11 42 7 -13 -8 -4)
1969/12/31/18:00:14.599000,(2 -1 -16 -20 -7 -6 -3 -2)
1969/12/31/18:00:14.614000,(2 1 16 50 24 10 4 2)
1969/12/31/18:00:14.614000,(-1 5 19 19 13 9 -2 -3)
1969/12/31/18:00:14.616000,(-5 -9 -6 -19 4 0 -3 -2)
1969/12/31/18:00:14.616000,(4 4 -2 -2 -2 -2 3 6)
1969/12/31/18:00:14.637000,(-7 -8 -16 -11 -13 -3 -5 -10)
1969/12/31/18:00:14.637000,(1 9 3 -4 -1 -1 2 7)
1969/12/31/18:00:14.638000,(13 -2 -3 -2 -5 -4 -2 7)
1969/12/31/18:00:14.638000,(-7 1 4 -8 -2 0 -3 -6)
1969/12/31/18:00:14.650000,(1 -8 -18 -25 -13 -12 -11 -10)
1969/12/31/18:00:14.650000,(0 0 1 7 2 0 3 3)
1969/12/31/18:00:14.659000,(0 2 -2 -1 1 5 6 4)
1969/12/31/18:00:14.659000,(0 -1 2 -1 2 -6 -6 0)
1969/12/31/18:00:14.681000,(-1 0 4 8 0 -2 -1 2)
1969/12/31/18:00:14.682000,(-3 -5 -17 -41 -22 -9 -3 -2)
1969/12/31/18:00:14.683000,(-2 3 8 21 18 6 8 4)
1969/12/31/18:00:14.683000,(-2 -3 3 4 2 5 2 -2)
1969/12/31/18:00:14.697000,(1 4 11 33 9 -1 2 3)
1969/12/31/18:00:14.697000,(1 -2 -1 11 0 -12 -8 -2)
1969/12/31/18:00:14.699000,(-6 -5 -7 -20 -9 -1 -2 -10)
1969/12/31/18:00:14.699000,(-7 -4 -3 3 0 2 5 3)
1969/12/31/18:00:14.710000,(30 10 -2 -13 -9 -6 -6 10)
1969/12/31/18:00:14.710000,(-21 -12 -12 -36 -16 -9 -12 -24)
1969/12/31/18:00:14.719000,(14 10 2 18 2 1 4 16)
1969/12/31/18:00:14.719000,(-8 -7 3 15 8 8 8 -4)
1969/12/31/18:00:14.733000,(-13 -14 -12 -18 -6 1 5 10)
1969/12/31/18:00:14.733000,(13 4 -3 -1 -4 1 4 8)
1969/12/31/18:00:14.740000,(-11 -9 -13 -27 -29 -8 -6 -12)
1969/12/31/18:00:14.740000,(18 7 -16 -79 -20 -10 4 14)
1969/12/31/18:00:14.758000,(2 11 34 91 32 14 3 1)
1969/12/31/18:00:14.758000,(-6 3 32 79 35 20 -2 -9)
1969/12/31/18:00:14.760000,(5 9 21 47 40 17 7 5)
1969/12/31/18:00:14.760000,(-4 -5 -8 -6 -17 -14 -9 -5)
1969/12/31/18:00:14.770000,(-10 -9 -26 -80 -40 -16 -6 -9)
1969/12/31/18:00:14.770000,(3 -1 -14 -9 -9 -2 4 10)
1969/12/31/18:00:14.779000,(5 5 2 6 3 6 5 3)
1969/12/31/18:00:14.779000,(-5 -3 5 10 8 3 -1 -3)
1969/12/31/18:00:14.793000,(-6 -7 -9 -22 -7 -2 -1 -3)
1969/12/31/18:00:14.793000,(-3 -4 -6 -15 -14 -6 -1 -1)
1969/12/31/18:00:14.800000,(-6 0 -6 -14 -10 -2 -2 -7)
1969/12/31/18:00:14.800000,(56 24 18 33 25 19 20 35)
1969/12/31/18:00:14.832000,(1 -3 -14 -31 -12 -10 -5 4)
1969/12/31/18:00:14.832000,(6 5 15 13 -33 -11 2 5)
1969/12/31/18:00:14.834000,(-9 -1 15 33 43 13 0 -7)
1969/12/31/18:00:14.834000,(-1 2 15 46 38 17 1 -1)
1969/12/31/18:00:14.835000,(-7 3 4 4 7 7 -3 -13)
1969/12/31/18:00:14.835000,(3 -5 -31 -77 -19 -7 -1 2)
1969/12/31/18:00:14.839000,(-2 -6 -15 -37 -35 -18 -5 0)
1969/12/31/18:00:14.839000,(-7 -3 -3 29 -7 -4 -5 -5)
1969/12/31/18:00:14.853000,(3 6 26 53 27 6 3 3)
1969/12/31/18:00:14.853000,(-8 -5 -1 0 10 0 -6 -9)
1969/12/31/18:00:14.860000,(-3 -4 -1 -3 -17 -6 -5 -7)
1969/12/31/18:00:14.860000,(-10 -8 -14 -41 -16 -5 1 -2)
1969/12/31/18:00:14.876000,(-6 -3 -12 -23 -17 -4 -1 -7)
1969/12/31/18:00:14.876000,(-2 2 11 40 17 -3 2 6)
1969/12/31/18:00:14.878000,(53 30 8 -11 11 16 19 27)
1969/12/31/18:00:14.878000,(-37 -24 -14 -14 -17 -18 -25 -35)
1969/12/31/18:00:14.890000,(-1 3 3 6 -10 1 0 1)
1969/12/31/18:00:14.890000,(10 -2 -2 5 18 9 6 7)
1969/12/31/18:00:14.899000,(-17 -5 -1 -2 4 -4 -9 -11)
1969/12/31/18:00:14.899000,(-1 3 1 2 -7 -5 1 2)
1969/12/31/18:00:14.913000,(-2 4 2 -5 -4 0 4 -3)
1969/12/31/18:00:14.913000,(-5 -10 -15 -29 -43 -23 -17 -10)
1969/12/31/18:00:14.920000,(-6 -8 -9 -6 -11 -14 -6 -4)
1969/12/31/18:00:14.920000,(4 1 -3 -21 15 8 1 2)
1969/12/31/18:00:14.936000,(-8 -3 10 36 41 19 0 -7)
1969/12/31/18:00:14.936000,(7 8 14 50 39 25 14 9)
1969/12/31/18:00:14.938000,(-5 -2 10 24 -2 0 -1 -3)
1969/12/31/18:00:14.938000,(-9 -3 -4 -19 -22 -14 -8 -8)
1969/12/31/18:00:14.976000,(6 1 -4 -13 -25 -14 -3 6)
1969/12/31/18:00:14.976000,(-3 -3 -9 -18 -5 -5 -6 -7)
1969/12/31/18:00:14.978000,(-12 -9 -8 -9 7 1 1 2)
1969/12/31/18:00:14.978000,(17 11 5 6 -1 7 9 9)
1969/12/31/18:00:14.979000,(2 6 8 4 -1 -1 3 5)
1969/12/31/18:00:14.979000,(-9 -4 0 -3 1 -7 -7 -9)
1969/12/31/18:00:14.982000,(-18 -13 -10 -15 -6 -7 -14 -19)
1969/12/31/18:00:14.982000,(19 11 1 11 2 5 12 19)
1969/12/31/18:00:14.997000,(-3 -1 -10 -23 -4 3 3 3)
1969/12/31/18:00:14.997000,(4 3 0 1 2 3 3 3)
1969/12/31/18:00:14.998000,(-4 -3 -3 -10 -16 -1 1 0)
1969/12/31/18:00:14.998000,(-8 -5 -2 -18 11 -4 -8 -7)
1969/12/31/18:00:15.019000,(2 -2 0 30 8 -3 -5 -3)
1969/12/31/18:00:15.019000,(2 0 1 12 13 6 3 2)
1969/12/31/18:00:15.020000,(4 3 -1 -11 -20 -7 -2 2)
1969/12/31/18:00:15.021000,(-12 -3 16 35 -8 0 -1 -4)
1969/12/31/18:00:15.042000,(21 9 0 -5 15 2 1 12)
1969/12/31/18:00:15.042000,(-22 -12 -2 -6 2 -5 -12 -22)
1969/12/31/18:00:15.043000,(-5 1 0 -7 -1 2 3 7)
1969/12/31/18:00:15.043000,(-7 -10 -10 -12 -14 -14 -10 -8)
1969/12/31/18:00:15.057000,(-4 0 -5 -19 -8 -2 0 -4)
1969/12/31/18:00:15.057000,(-10 -9 -7 -9 -2 11 13 6)
1969/12/31/18:00:15.058000,(44 25 17 21 9 2 5 17)
1969/12/31/18:00:15.058000,(1 1 -7 0 0 -5 -10 -11)
1969/12/31/18:00:15.079000,(-8 -8 -1 -33 -11 -8 -7 -6)
1969/12/31/18:00:15.079000,(9 6 -6 2 -2 2 4 5)
1969/12/31/18:00:15.080000,(-26 -19 -13 -37 -5 -1 -4 -14)
1969/12/31/18:00:15.081000,(1 -6 -25 -38 -10 1 9 11)
1969/12/31/18:00:15.102000,(-15 7 40 100 28 11 4 -2)
1969/12/31/18:00:15.102000,(14 6 11 -19 11 3 -5 0)
1969/12/31/18:00:15.103000,(-3 7 18 77 20 4 2 -4)
1969/12/31/18:00:15.103000,(-11 -11 10 10 0 -9 -12 -10)
1969/12/31/18:00:15.117000,(-2 2 -17 -52 -15 3 11 -2)
1969/12/31/18:00:15.117000,(-27 3 -12 -13 -8 -4 -3 -10)
1969/12/31/18:00:15.118000,(-7 -18 -14 -28 -2 -1 -5 1)
1969/12/31/18:00:15.118000,(-6 -7 -9 -12 -7 -5 -5 -10)
1969/12/31/18:00:15.139000,(15 16 -1 -15 -13 -11 -11 -10)
1969/12/31/18:00:15.139000,(13 5 10 5 0 -1 6 20)
1969/12/31/18:00:15.141000,(-21 -8 -19 -49 -10 -4 -7 -19)
1969/12/31/18:00:15.141000,(-21 -14 -3 7 9 13 10 5)
1969/12/31/18:00:15.162000,(4 -6 5 14 15 2 -1 4)
1969/12/31/18:00:15.162000,(-24 -25 7 43 -3 -1 0 -6)
1969/12/31/18:00:15.163000,(40 34 19 35 2 -1 2 20)
1969/12/31/18:00:15.163000,(-11 6 28 53 17 1 -7 -16)
1969/12/31/18:00:15.176000,(-17 -16 -20 -24 -13 -6 -3 -1)
1969/12/31/18:00:15.176000,(53 31 -9 -26 4 7 13 21)
1969/12/31/18:00:15.192000,(-36 -29 -7 4 -4 -5 -9 -23)
1969/12/31/18:00:15.192000,(27 8 12 20 18 14 21 36)
1969/12/31/18:00:15.199000,(-37 -5 -13 -21 -6 -4 -7 -22)
1969/12/31/18:00:15.199000,(-1 -15 -16 -22 -22 -32 -35 -21)
1969/12/31/18:00:15.200000,(-37 -31 -14 -6 -5 -7 -9 -7)
1969/12/31/18:00:15.200000,(40 34 1 -29 -7 -2 -2 2)
1969/12/31/18:00:15.222000,(-1 -9 -14 -30 -1 11 17 23)
1969/12/31/18:00:15.222000,(11 11 12 8 -3 3 9 8)
1969/12/31/18:00:15.223000,(-50 -26 4 24 9 -4 -4 -15)
1969/12/31/18:00:15.223000,(38 13 6 27 5 6 5 6)
1969/12/31/18:00:15.244000,(16 11 9 6 1 3 5 9)
1969/12/31/18:00:15.244000,(13 24 1 5 5 7 12 21)
1969/12/31/18:00:15.246000,(-19 -30 -18 -28 -10 -11 -20 -25)
1969/12/31/18:00:15.246000,(11 8 14 10 13 24 41 48)
1969/12/31/18:00:15.259000,(18 5 -8 -1 -9 -18 -24 -23)
1969/12/31/18:00:15.259000,(4 -2 -5 -12 2 1 -2 -1)
1969/12/31/18:00:15.261000,(-44 -9 -1 -4 -7 -1 3 -2)
1969/12/31/18:00:15.261000,(61 33 3 -3 -1 4 4 22)
1969/12/31/18:00:15.273000,(-12 -4 2 4 2 0 -2 -9)
1969/12/31/18:00:15.273000,(-24 -9 1 3 -1 -4 -11 -17)
1969/12/31/18:00:15.282000,(54 25 2 -8 0 10 11 23)
1969/12/31/18:00:15.282000,(-47 -24 -12 -7 -5 -8 -16 -28)
1969/12/31/18:00:15.297000,(5 1 8 7 1 3 6 11)
1969/12/31/18:00:15.297000,(-24 -15 -2 4 -4 -7 -11 -18)
1969/12/31/18:00:15.298000,(29 16 0 -4 2 11 22 24)
1969/12/31/18:00:15.298000,(-28 -6 -1 -9 -1 -3 -8 -12)
1969/12/31/18:00:15.319000,(6 -4 -5 3 -4 -10 -12 -9)
1969/12/31/18:00:15.319000,(-72 -43 -2 0 5 13 21 9)
1969/12/31/18:00:15.321000,(24 21 12 12 13 2 -5 -19)
1969/12/31/18:00:15.321000,(87 79 13 2 1 5 19 60)
1969/12/31/18:00:15.333000,(-20 -21 -6 -1 -3 1 9 10)
1969/12/31/18:00:15.333000,(8 7 -3 4 -1 -7 -11 -16)
1969/12/31/18:00:15.342000,(5 5 4 -2 3 8 11 11)
1969/12/31/18:00:15.342000,(-57 -42 -15 -18 -13 -9 -10 -22)
1969/12/31/18:00:15.357000,(-11 -1 -9 4 -11 -22 -30 -30)
1969/12/31/18:00:15.357000,(5 -4 -7 -4 1 8 13 10)
1969/12/31/18:00:15.358000,(3 10 1 3 4 7 5 5)
1969/12/31/18:00:15.358000,(-51 -39 -6 -1 -5 -8 -10 -23)
1969/12/31/18:00:15.387000,(36 12 -4 -3 2 4 6 16)
1969/12/31/18:00:15.387000,(-7 0 10 -1 -6 -5 -8 -16)
1969/12/31/18:00:15.388000,(-58 -38 -9 -6 -3 -4 -4 -5)
1969/12/31/18:00:15.389000,(48 51 8 9 5 1 -7 -14)
1969/12/31/18:00:15.393000,(12 11 7 5 5 6 10 17)
1969/12/31/18:00:15.393000,(8 -8 -7 -4 -12 -16 -19 -24)
1969/12/31/18:00:15.402000,(16 14 2 -5 -3 -2 0 4)
1969/12/31/18:00:15.402000,(5 -22 -12 -5 5 9 15 14)
1969/12/31/18:00:15.417000,(-29 -15 6 11 4 -3 0 11)
1969/12/31/18:00:15.417000,(11 13 4 0 -7 -9 -18 -21)
1969/12/31/18:00:15.418000,(-2 -10 -9 -2 6 5 8 16)
1969/12/31/18:00:15.418000,(-36 -12 3 10 -3 -4 -9 -29)
1969/12/31/18:00:15.439000,(-34 -40 2 -2 6 8 7 -5)
1969/12/31/18:00:15.439000,(36 53 5 2 -1 -2 -5 2)
1969/12/31/18:00:15.441000,(2 0 -5 -16 -15 -12 -9 -5)
1969/12/31/18:00:15.441000,(-7 -24 -6 7 10 6 0 1)
1969/12/31/18:00:15.453000,(47 26 1 -2 -1 13 17 15)
1969/12/31/18:00:15.453000,(14 3 -3 -1 2 -3 -3 6)
1969/12/31/18:00:15.462000,(-5 -1 3 -16 -10 -8 -10 -12)
1969/12/31/18:00:15.462000,(-38 -19 -2 3 -10 -17 -20 -23)
1969/12/31/18:00:15.477000,(29 24 14 17 17 25 29 23)
1969/12/31/18:00:15.477000,(-72 -52 -13 -7 2 2 3 -6)
1969/12/31/18:00:15.478000,(116 70 17 19 14 19 32 60)
1969/12/31/18:00:15.478000,(-107 -63 -13 -16 -22 -32 -47 -67)
1969/12/31/18:00:15.499000,(46 11 0 -11 -10 -5 2 22)
1969/12/31/18:00:15.499000,(20 12 -2 2 6 6 9 14)
1969/12/31/18:00:15.501000,(-32 -22 -3 -1 1 6 3 -9)
1969/12/31/18:00:15.501000,(30 26 10 8 0 6 12 18)
1969/12/31/18:00:15.523000,(-34 -20 -13 0 -2 -13 -22 -28)
1969/12/31/18:00:15.523000,(25 18 11 8 16 26 32 34)
1969/12/31/18:00:15.525000,(-26 -19 -4 -5 2 2 -3 -10)
1969/12/31/18:00:15.525000,(-6 1 -1 -2 -7 -7 -13 -21)
1969/12/31/18:00:15.535000,(33 37 2 -13 -10 -9 -7 3)
1969/12/31/18:00:15.535000,(-39 -41 -12 -27 -8 -5 -3 -5)
1969/12/31/18:00:15.544000,(55 63 10 22 23 28 28 44)
1969/12/31/18:00:15.544000,(-82 -17 -1 6 -5 -14 -38 -48)
1969/12/31/18:00:15.559000,(-56 -20 4 11 2 -4 -10 -24)
1969/12/31/18:00:15.559000,(1 -9 -1 5 -3 -13 -3 4)
1969/12/31/18:00:15.561000,(-10 -14 -13 -15 -19 -29 -16 -21)
1969/12/31/18:00:15.561000,(51 9 -10 -3 7 2 22 43)
1969/12/31/18:00:15.573000,(58 41 7 4 10 14 27 37)
1969/12/31/18:00:15.573000,(-25 -17 -6 5 -3 -10 -17 -30)
1969/12/31/18:00:15.582000,(-46 -33 -5 -2 -11 -20 -28 -45)
1969/12/31/18:00:15.582000,(60 28 7 0 6 10 18 26)
1969/12/31/18:00:15.597000,(-17 -13 -4 -4 -5 -1 4 3)
1969/12/31/18:00:15.597000,(15 36 3 9 2 8 9 16)
1969/12/31/18:00:15.598000,(29 -1 12 -4 5 8 5 7)
1969/12/31/18:00:15.598000,(-18 -16 -8 -1 5 -7 -6 -6)
1969/12/31/18:00:15.619000,(-29 -23 -3 13 -8 -8 -15 -21)
1969/12/31/18:00:15.619000,(10 11 7 3 -1 -3 -6 -5)
1969/12/31/18:00:15.620000,(21 6 1 23 5 6 7 17)
1969/12/31/18:00:15.621000,(-49 -28 -2 -15 -14 -3 -7 -17)
1969/12/31/18:00:15.633000,(17 15 -7 -17 0 -6 -13 -17)
1969/12/31/18:00:15.633000,(-18 -10 15 18 14 18 15 8)
1969/12/31/18:00:15.642000,(-32 -3 -11 -17 -18 -13 -6 10)
1969/12/31/18:00:15.642000,(18 -17 -12 -12 1 2 -4 -17)
1969/12/31/18:00:15.665000,(-51 -38 -15 -8 -11 -11 -16 -28)
1969/12/31/18:00:15.665000,(-4 2 -4 -6 2 -1 -4 -3)
1969/12/31/18:00:15.666000,(-20 -23 -3 1 -2 -9 -17 -21)
1969/12/31/18:00:15.666000,(6 15 5 4 -8 -4 3 5)
1969/12/31/18:00:15.679000,(-1 -1 0 0 3 8 7 11)
1969/12/31/18:00:15.679000,(-8 -22 -14 -19 -11 -9 -3 -3)
1969/12/31/18:00:15.681000,(-3 -2 -5 -1 -1 -6 -7 -1)
1969/12/31/18:00:15.681000,(-21 -8 -5 -6 1 1 -8 -20)
1969/12/31/18:00:15.693000,(-12 -10 -16 -55 -16 -11 -9 -13)
1969/12/31/18:00:15.693000,(31 19 20 49 8 13 16 26)
1969/12/31/18:00:15.702000,(-8 7 19 38 15 -2 -10 -20)
1969/12/31/18:00:15.702000,(18 15 13 15 19 19 26 35)
1969/12/31/18:00:15.716000,(-73 -24 -7 4 -3 -14 -28 -48)
1969/12/31/18:00:15.716000,(10 7 -17 -29 -14 -15 -15 -9)
1969/12/31/18:00:15.722000,(23 10 -8 -26 -8 14 27 30)
1969/12/31/18:00:15.723000,(67 50 6 -11 -17 -10 -8 10)
1969/12/31/18:00:15.747000,(1 3 -2 1 4 -3 -2 -1)
1969/12/31/18:00:15.747000,(15 11 4 13 19 13 13 17)
1969/12/31/18:00:15.748000,(-12 -6 -8 -47 -38 -14 -18 -25)
1969/12/31/18:00:15.748000,(9 4 12 39 20 21 28 31)
1969/12/31/18:00:15.753000,(9 0 14 36 5 -2 -1 7)
1969/12/31/18:00:15.753000,(43 26 8 13 11 0 2 15)
1969/12/31/18:00:15.762000,(-9 -17 -9 0 15 6 -3 -10)
1969/12/31/18:00:15.762000,(8 0 -21 -36 -21 -16 -11 7)
1969/12/31/18:00:15.776000,(-40 -18 -3 -6 -2 4 -5 -29)
1969/12/31/18:00:15.776000,(-41 -36 -9 -16 -16 -22 -19 -26)
1969/12/31/18:00:15.783000,(56 67 8 -11 9 15 23 30)
1969/12/31/18:00:15.783000,(-21 -26 -13 -15 -7 -6 -7 -7)
1969/12/31/18:00:15.807000,(41 14 13 27 4 3 4 16)
1969/12/31/18:00:15.807000,(-5 7 8 17 9 13 12 3)
1969/12/31/18:00:15.808000,(-47 -37 -6 12 -2 -14 -23 -30)
1969/12/31/18:00:15.808000,(-42 -17 -3 2 1 3 0 -19)
1969/12/31/18:00:15.813000,(-1 -11 -9 -16 -2 2 -2 -3)
1969/12/31/18:00:15.813000,(-4 -9 -4 -14 -2 2 2 8)
1969/12/31/18:00:15.822000,(-19 -4 6 10 -8 -18 -20 -20)
1969/12/31/18:00:15.822000,(20 14 0 4 17 13 11 1)
1969/12/31/18:00:15.836000,(50 37 3 -24 -10 6 20 33)
1969/12/31/18:00:15.836000,(-63 -38 -12 3 -11 -12 -21 -39)
1969/12/31/18:00:15.843000,(47 36 23 24 25 22 23 35)
1969/12/31/18:00:15.843000,(-33 -28 0 10 -1 -9 -11 -12)
1969/12/31/18:00:15.859000,(45 32 5 -4 7 10 13 20)
1969/12/31/18:00:15.859000,(42 25 -13 -36 -9 -2 2 9)
1969/12/31/18:00:15.861000,(-11 -10 6 19 -10 -1 5 -2)
1969/12/31/18:00:15.861000,(-14 -12 13 13 2 -4 0 8)
1969/12/31/18:00:15.882000,(13 6 4 16 7 4 2 6)
1969/12/31/18:00:15.882000,(30 21 0 -9 6 4 6 9)
1969/12/31/18:00:15.883000,(-4 -12 -16 -10 -6 -9 -13 -11)
1969/12/31/18:00:15.883000,(13 11 3 -5 -6 5 12 14)
1969/12/31/18:00:15.896000,(-41 -17 1 3 -2 -9 -9 -16)
1969/12/31/18:00:15.896000,(12 -4 5 -6 -3 1 9 24)
1969/12/31/18:00:15.903000,(-36 -39 -12 -2 1 -3 -10 -23)
1969/12/31/18:00:15.903000,(56 42 10 2 0 5 8 17)
1969/12/31/18:00:15.919000,(5 5 -3 -7 1 2 9 16)
1969/12/31/18:00:15.919000,(-7 2 7 11 -7 -7 -8 -14)
1969/12/31/18:00:15.921000,(33 31 5 0 12 19 21 21)
1969/12/31/18:00:15.921000,(-30 -24 -11 -1 0 -4 -13 -20)
1969/12/31/18:00:15.942000,(-22 -18 0 7 -1 -2 -4 -10)
1969/12/31/18:00:15.942000,(-65 -45 -10 -5 -13 -15 -20 -31)
1969/12/31/18:00:15.944000,(10 19 20 8 17 31 42 36)
1969/12/31/18:00:15.944000,(49 27 2 2 8 9 14 28)
1969/12/31/18:00:15.955000,(12 7 -4 -1 -4 -10 -16 -14)
1969/12/31/18:00:15.955000,(-5 -1 12 14 12 11 2 -6)
1969/12/31/18:00:15.964000,(-6 -5 -9 -9 -8 -13 -12 -6)
1969/12/31/18:00:15.964000,(-13 -12 -11 -8 -14 -15 -12 -8)
1969/12/31/18:00:15.979000,(7 -1 0 -7 1 12 21 22)
1969/12/31/18:00:15.979000,(17 11 1 -4 1 0 5 9)
1969/12/31/18:00:15.981000,(-9 -5 -5 -3 -4 -5 -7 -7)
1969/12/31/18:00:15.981000,(-25 -21 -2 -1 0 7 4 -6)
1969/12/31/18:00:16.002000,(44 29 1 9 9 5 9 19)
1969/12/31/18:00:16.002000,(-5 7 -1 -5 -8 -13 -16 -23)
1969/12/31/18:00:16.003000,(-14 -10 -2 -5 -1 -1 -2 -4)
1969/12/31/18:00:16.003000,(64 46 7 10 7 12 25 35)
1969/12/31/18:00:16.015000,(-39 -27 -3 -2 -2 0 -6 -8)
1969/12/31/18:00:16.015000,(49 43 5 7 6 13 20 38)
1969/12/31/18:00:16.024000,(-10 -11 -10 -10 -12 -19 -28 -29)
1969/12/31/18:00:16.024000,(1 4 -4 -10 -5 -6 -6 1)
1969/12/31/18:00:16.039000,(-17 -10 -1 1 -4 -7 -6 -9)
1969/12/31/18:00:16.039000,(6 8 -13 -49 -10 -1 4 6)
1969/12/31/18:00:16.041000,(-14 -23 -13 -15 -42 -17 -9 -3)
1969/12/31/18:00:16.041000,(-2 4 13 42 23 2 -3 -9)
1969/12/31/18:00:16.085000,(-13 -9 16 43 35 17 3 -4)
1969/12/31/18:00:16.085000,(-15 -7 10 21 19 10 -4 -14)
1969/12/31/18:00:16.087000,(13 5 -10 -21 1 0 1 5)
1969/12/31/18:00:16.087000,(-36 -46 -21 -39 -23 -3 7 8)
1969/12/31/18:00:16.088000,(-3 -1 -2 -7 -20 -17 -21 -26)
1969/12/31/18:00:16.088000,(-7 -19 -8 -1 -8 -10 -7 -5)
1969/12/31/18:00:16.091000,(-21 -7 9 6 7 9 12 1)
1969/12/31/18:00:16.091000,(8 0 -2 -5 -6 -13 -16 -19)
1969/12/31/18:00:16.099000,(-6 8 -1 -3 3 0 4 8)
1969/12/31/18:00:16.099000,(2 -9 -1 5 3 7 9 6)
1969/12/31/18:00:16.101000,(-11 -16 -4 5 3 -9 -14 -14)
1969/12/31/18:00:16.101000,(-13 0 -2 -3 0 4 2 -5)
1969/12/31/18:00:16.122000,(27 16 4 -10 -5 -2 6 15)
1969/12/31/18:00:16.122000,(-55 -38 1 9 -5 -7 -16 -32)
1969/12/31/18:00:16.123000,(32 62 10 14 15 14 20 13)
1969/12/31/18:00:16.123000,(-36 -27 0 -3 3 3 -10 -21)
1969/12/31/18:00:16.135000,(-28 -21 -8 -7 -6 -1 -5 -16)
1969/12/31/18:00:16.135000,(-6 -7 -3 6 8 12 22 24)
1969/12/31/18:00:16.144000,(8 -4 0 -5 2 1 -5 -7)
1969/12/31/18:00:16.144000,(4 14 3 -5 -4 -6 -8 -2)
1969/12/31/18:00:16.159000,(10 4 -5 -3 -4 -4 -4 1)
1969/12/31/18:00:16.159000,(-9 -10 2 5 0 -1 -5 -8)
1969/12/31/18:00:16.161000,(-20 -19 -2 6 5 -2 -2 -6)
1969/12/31/18:00:16.161000,(-15 -14 2 -5 -2 -1 2 -3)
1969/12/31/18:00:16.189000,(71 53 15 10 10 20 30 44)
1969/12/31/18:00:16.189000,(2 -2 -4 -5 -6 -7 -3 3)
1969/12/31/18:00:16.191000,(9 2 0 0 -1 -8 -16 -17)
1969/12/31/18:00:16.191000,(-22 -14 -3 0 -4 -6 -10 -16)
1969/12/31/18:00:16.196000,(-48 -40 -16 -19 -8 -10 -16 -27)
1969/12/31/18:00:16.196000,(10 5 -4 15 -2 -9 -8 -5)
1969/12/31/18:00:16.220000,(-30 -1 6 -1 2 -1 -6 -21)
1969/12/31/18:00:16.220000,(50 30 15 13 15 21 28 27)
1969/12/31/18:00:16.220000,(-31 -18 -3 -7 -8 -7 -9 -14)
1969/12/31/18:00:16.221000,(16 19 -1 -6 -3 0 1 2)
1969/12/31/18:00:16.222000,(-23 -21 -15 -2 -7 -10 -16 -18)
1969/12/31/18:00:16.222000,(7 14 4 9 12 15 17 20)
1969/12/31/18:00:16.241000,(-4 -5 -5 -3 -4 -4 -3 1)
1969/12/31/18:00:16.241000,(3 -2 0 1 -3 -5 -5 -8)
1969/12/31/18:00:16.243000,(7 -2 -2 -15 -2 2 11 19)
1969/12/31/18:00:16.243000,(-6 -3 2 0 -1 1 -2 -3)
1969/12/31/18:00:16.255000,(18 11 10 16 -2 2 5 5)
1969/12/31/18:00:16.255000,(-6 1 9 7 2 0 -2 -1)
1969/12/31/18:00:16.264000,(10 -3 -5 -3 -7 -5 1 9)
1969/12/31/18:00:16.264000,(-7 -7 -19 -10 -9 -20 -16 -13)
1969/12/31/18:00:16.279000,(-29 -27 -24 -22 1 -22 -21 -19)
1969/12/31/18:00:16.279000,(21 9 -7 -5 2 21 20 23)
1969/12/31/18:00:16.281000,(12 12 19 -7 1 8 9 12)
1969/12/31/18:00:16.281000,(10 14 21 26 18 14 7 3)
1969/12/31/18:00:16.301000,(5 12 40 31 17 18 14 8)
1969/12/31/18:00:16.301000,(7 4 -27 8 6 -8 -6 -2)
1969/12/31/18:00:16.303000,(-4 -25 -46 -39 -18 -13 -7 -3)
1969/12/31/18:00:16.303000,(-22 -13 -4 -30 -29 -19 -16 -12)
1969/12/31/18:00:16.324000,(12 10 5 -3 9 0 7 11)
1969/12/31/18:00:16.324000,(9 15 15 -5 -13 4 3 3)
1969/12/31/18:00:16.326000,(-2 -6 0 14 3 0 1 1)
1969/12/31/18:00:16.326000,(-1 1 -10 -53 -16 -8 -7 -5)
1969/12/31/18:00:16.347000,(2 0 5 45 24 6 0 3)
1969/12/31/18:00:16.347000,(8 5 13 14 12 4 5 6)
1969/12/31/18:00:16.362000,(-2 0 13 15 -5 -3 -2 -1)
1969/12/31/18:00:16.362000,(-7 -9 -12 24 4 -2 -2 -4)
1969/12/31/18:00:16.363000,(0 -8 -32 -40 -14 -6 -4 -2)
1969/12/31/18:00:16.363000,(-10 -8 2 3 1 -8 -10 -10)
1969/12/31/18:00:16.365000,(10 15 27 0 6 8 11 11)
1969/12/31/18:00:16.365000,(7 14 18 -20 15 12 7 5)
1969/12/31/18:00:16.375000,(4 -2 -15 27 -3 6 9 8)
1969/12/31/18:00:16.375000,(-1 -3 -5 -5 -33 -10 -6 -3)
1969/12/31/18:00:16.384000,(-13 -17 -16 -1 -1 -19 -13 -10)
1969/12/31/18:00:16.384000,(-9 -1 12 -13 -6 -7 -7 -7)
1969/12/31/18:00:16.399000,(0 -3 -20 -5 4 -4 0 1)
1969/12/31/18:00:16.399000,(-2 -1 8 0 7 3 0 0)
1969/12/31/18:00:16.401000,(10 13 14 -1 3 12 7 6)
1969/12/31/18:00:16.401000,(9 16 34 73 12 8 7 7)
1969/12/31/18:00:16.421000,(0 -2 -13 -28 -4 -2 -2 -2)
1969/12/31/18:00:16.421000,(-2 -17 -34 -2 -8 -9 -2 -2)
1969/12/31/18:00:16.428000,(-12 -10 -10 -32 -6 -7 -7 -6)
1969/12/31/18:00:16.428000,(-2 -4 -2 17 -1 -7 -4 -3)
1969/12/31/18:00:16.435000,(4 10 12 -31 -13 1 2 2)
1969/12/31/18:00:16.435000,(4 4 -11 -54 1 11 7 5)
1969/12/31/18:00:16.444000,(3 -13 -23 61 10 -3 0 5)
1969/12/31/18:00:16.444000,(-19 -9 -3 -13 -5 -7 -13 -16)
1969/12/31/18:00:16.459000,(-2 2 16 -1 -4 8 -1 -1)
1969/12/31/18:00:16.459000,(3 11 29 22 14 3 0 1)
1969/12/31/18:00:16.460000,(11 19 10 6 0 18 8 9)
1969/12/31/18:00:16.461000,(2 -7 -3 -15 -18 -5 -1 2)
1969/12/31/18:00:16.489000,(-3 -11 -29 -16 -4 -4 -1 -1)
1969/12/31/18:00:16.489000,(-8 -12 -28 -53 -11 -5 -4 -7)
1969/12/31/18:00:16.496000,(-7 -1 16 35 17 0 -3 -5)
1969/12/31/18:00:16.496000,(1 3 -2 10 2 -2 -1 1)
1969/12/31/18:00:16.497000,(1 7 14 -12 -6 6 4 1)
1969/12/31/18:00:16.497000,(9 11 24 23 19 14 11 10)
1969/12/31/18:00:16.504000,(4 1 -3 -46 -6 -8 2 4)
1969/12/31/18:00:16.504000,(-14 -22 -33 19 -3 -14 -5 -10)
1969/12/31/18:00:16.519000,(-7 -13 2 7 -5 -25 -10 -7)
1969/12/31/18:00:16.519000,(-8 -5 -16 13 -9 -15 -8 -7)
1969/12/31/18:00:16.521000,(8 8 11 9 9 10 6 3)
1969/12/31/18:00:16.521000,(9 7 -6 -10 2 6 2 6)
1969/12/31/18:00:16.541000,(3 6 19 4 -5 2 1 -1)
1969/12/31/18:00:16.541000,(-1 -1 -18 -34 -22 -13 -7 -5)
1969/12/31/18:00:16.543000,(3 -11 -20 -14 -23 -6 -1 3)
1969/12/31/18:00:16.543000,(-7 -2 14 16 33 20 4 -4)
1969/12/31/18:00:16.555000,(2 5 5 58 24 21 5 2)
1969/12/31/18:00:16.555000,(6 6 20 13 29 15 2 4)
1969/12/31/18:00:16.564000,(5 12 16 17 -6 6 -1 2)
1969/12/31/18:00:16.564000,(6 5 -21 -22 -13 5 -2 2)
1969/12/31/18:00:16.579000,(0 2 14 -34 -9 9 3 1)
1969/12/31/18:00:16.579000,(-3 6 0 -9 -8 5 1 -2)
1969/12/31/18:00:16.581000,(1 -4 -17 -18 -6 0 0 -1)
1969/12/31/18:00:16.581000,(-4 -8 -2 -17 -2 -1 0 -1)
1969/12/31/18:00:16.602000,(-1 8 4 -14 -17 -13 -4 -4)
1969/12/31/18:00:16.602000,(5 -3 -4 17 11 3 6 5)
1969/12/31/18:00:16.603000,(-13 -5 18 -2 1 1 0 -7)
1969/12/31/18:00:16.603000,(7 3 -2 37 31 2 3 4)
1969/12/31/18:00:16.624000,(-11 -9 0 -13 -6 -9 -5 -7)
1969/12/31/18:00:16.624000,(2 -3 3 -3 -3 -2 1 0)
1969/12/31/18:00:16.626000,(5 -5 -26 21 10 2 3 4)
1969/12/31/18:00:16.626000,(1 -1 -3 -19 -21 -12 -5 0)
1969/12/31/18:00:16.638000,(-3 -10 -2 10 6 -9 -7 -2)
1969/12/31/18:00:16.638000,(-6 6 19 14 6 -4 -5 -6)
1969/12/31/18:00:16.645000,(-2 5 5 -6 0 2 1 -2)
1969/12/31/18:00:16.645000,(9 2 -12 -19 -12 -1 5 5)
1969/12/31/18:00:16.662000,(1 -3 -11 20 3 -2 3 3)
1969/12/31/18:00:16.662000,(-8 -5 0 4 1 -1 -1 -4)
1969/12/31/18:00:16.663000,(0 -1 0 -1 4 -5 -1 -1)
1969/12/31/18:00:16.663000,(-4 -4 -4 3 -4 -10 -3 -4)
1969/12/31/18:00:16.675000,(-2 0 3 -1 -4 -8 -4 -3)
1969/12/31/18:00:16.675000,(-4 -1 8 17 4 -2 -2 -1)
1969/12/31/18:00:16.684000,(-4 3 1 -3 -4 -6 -3 -4)
1969/12/31/18:00:16.684000,(3 -2 -7 -5 -10 -6 -4 0)
1969/12/31/18:00:16.698000,(-1 1 1 -3 -4 1 0 -2)
1969/12/31/18:00:16.698000,(-2 -9 -2 3 -5 -6 -4 -2)
1969/12/31/18:00:16.705000,(-7 3 10 -6 -2 0 -4 -3)
1969/12/31/18:00:16.705000,(0 0 -6 -7 -5 4 -2 -2)
1969/12/31/18:00:16.722000,(10 1 -3 -6 5 10 9 9)
1969/12/31/18:00:16.722000,(1 2 -6 6 -1 1 -2 -1)
1969/12/31/18:00:16.723000,(3 2 14 11 13 9 2 0)
1969/12/31/18:00:16.723000,(-4 -1 8 -7 2 4 1 -1)
1969/12/31/18:00:16.735000,(-5 -1 2 -1 -3 -2 -4 -3)
1969/12/31/18:00:16.735000,(1 4 4 -6 -7 -1 0 0)
1969/12/31/18:00:16.752000,(7 -4 -17 -14 -6 0 2 5)
1969/12/31/18:00:16.752000,(1 0 3 7 3 3 2 1)
