time,.data
1969/12/31/18:00:27.758,(-1 0 0 0 -2 1 -2 -2)
1969/12/31/18:00:27.758,(-1 0 0 0 0 1 -1 0)
1969/12/31/18:00:27.759,(-2 -2 1 -1 -1 -1 -1 -2)
1969/12/31/18:00:27.759,(-1 -2 -3 0 1 0 0 0)
1969/12/31/18:00:27.771,(0 1 0 1 -2 -2 0 0)
1969/12/31/18:00:27.771,(1 -3 -2 -1 -1 -2 0 0)
1969/12/31/18:00:27.780,(0 0 -2 1 0 -2 -1 -1)
1969/12/31/18:00:27.780,(-2 -2 1 0 1 -1 -1 -3)
1969/12/31/18:00:27.795,(1 0 -1 -2 -2 -1 0 -1)
1969/12/31/18:00:27.795,(-2 -3 -1 -1 1 0 0 -1)
1969/12/31/18:00:27.797,(0 -1 0 -2 1 0 1 0)
1969/12/31/18:00:27.797,(-1 1 0 -1 -1 -2 -1 0)
1969/12/31/18:00:27.818,(-2 -1 -2 0 -2 -1 0 0)
1969/12/31/18:00:27.818,(1 0 -2 -2 -1 0 2 1)
1969/12/31/18:00:27.819,(0 0 -1 -1 0 -3 -2 -1)
1969/12/31/18:00:27.819,(0 0 -1 0 -1 1 0 -1)
1969/12/31/18:00:27.831,(-1 0 0 -1 -1 -3 -1 1)
1969/12/31/18:00:27.831,(0 0 -1 0 -1 0 0 1)
1969/12/31/18:00:27.840,(0 2 -1 -1 -1 0 1 1)
1969/12/31/18:00:27.840,(0 -2 0 0 0 0 0 1)
1969/12/31/18:00:27.855,(-2 -1 0 0 0 0 -2 -2)
1969/12/31/18:00:27.855,(2 0 0 -2 -3 2 3 4)
1969/12/31/18:00:27.857,(-1 0 1 -2 -1 0 -2 1)
1969/12/31/18:00:27.857,(-1 0 0 0 -1 -1 0 -2)
1969/12/31/18:00:27.885,(-1 -1 -1 0 1 -1 -1 -1)
1969/12/31/18:00:27.885,(-3 -1 -1 0 0 -2 -2 -2)
1969/12/31/18:00:27.887,(-2 0 0 1 0 0 -2 -4)
1969/12/31/18:00:27.887,(3 2 -1 -3 -3 1 4 3)
1969/12/31/18:00:27.891,(0 1 0 1 2 1 1 1)
1969/12/31/18:00:27.891,(-1 -1 0 0 -1 0 -2 -5)
1969/12/31/18:00:27.900,(-1 0 0 0 -3 0 2 1)
1969/12/31/18:00:27.900,(-1 -2 -1 -2 -1 -2 -1 -1)
1969/12/31/18:00:27.915,(1 0 -1 -1 -2 -3 1 -1)
1969/12/31/18:00:27.915,(-1 -2 4 -8 -6 -1 0 -1)
1969/12/31/18:00:27.917,(4 4 -8 7 4 1 0 3)
1969/12/31/18:00:27.917,(1 -6 -1 3 11 1 -5 1)
1969/12/31/18:00:27.938,(-10 -5 3 -3 -5 -5 -4 -8)
1969/12/31/18:00:27.938,(-2 2 2 -1 1 -4 -3 -1)
1969/12/31/18:00:27.939,(0 -2 -5 -4 -6 -1 5 1)
1969/12/31/18:00:27.939,(0 1 -5 3 8 6 2 0)
1969/12/31/18:00:27.952,(3 -1 1 -1 2 1 2 1)
1969/12/31/18:00:27.952,(-8 -5 -4 -15 -16 -11 -5 -6)
1969/12/31/18:00:27.960,(0 -2 -10 -3 -14 -8 -7 -3)
1969/12/31/18:00:27.960,(-1 1 0 -16 6 -1 0 -1)
1969/12/31/18:00:27.975,(8 7 5 18 -5 5 5 7)
1969/12/31/18:00:27.975,(0 1 20 18 24 6 4 -1)
1969/12/31/18:00:27.977,(-3 -3 -1 38 18 7 1 0)
1969/12/31/18:00:27.977,(0 -3 -7 -7 -2 -1 -3 1)
1969/12/31/18:00:27.998,(-9 -9 -15 -59 -20 -11 -11 -9)
1969/12/31/18:00:27.998,(8 2 -17 -3 -34 -8 0 5)
1969/12/31/18:00:27.999,(4 4 14 -29 -7 -1 7 1)
1969/12/31/18:00:27.999,(4 11 -4 2 8 -1 0 1)
1969/12/31/18:00:28.012,(-4 -9 14 77 48 20 6 -1)
1969/12/31/18:00:28.012,(-6 4 12 17 11 2 -6 -7)
1969/12/31/18:00:28.020,(5 1 -12 22 7 5 -2 2)
1969/12/31/18:00:28.020,(3 2 -16 -53 -42 -11 -1 1)
1969/12/31/18:00:28.036,(-4 -4 -4 -59 -3 -9 0 -2)
1969/12/31/18:00:28.036,(6 10 15 47 18 11 6 6)
1969/12/31/18:00:28.041,(-11 -14 9 -12 13 4 -4 -8)
1969/12/31/18:00:28.042,(-3 -7 -17 1 -42 -14 -1 -2)
1969/12/31/18:00:28.058,(6 -2 -20 8 11 2 -3 4)
1969/12/31/18:00:28.058,(-5 -1 -3 -17 -25 -5 -2 -3)
1969/12/31/18:00:28.059,(1 -3 -14 -9 18 4 -3 0)
1969/12/31/18:00:28.059,(-3 2 53 52 17 16 6 1)
1969/12/31/18:00:28.071,(2 8 1 -7 -16 -15 -5 -4)
1969/12/31/18:00:28.071,(11 8 -9 -4 44 12 7 8)
1969/12/31/18:00:28.080,(0 0 26 70 25 12 3 0)
1969/12/31/18:00:28.080,(-16 -19 -26 -4 -17 -9 -11 -12)
1969/12/31/18:00:28.095,(5 2 -14 -25 8 13 9 7)
1969/12/31/18:00:28.095,(6 7 2 -48 -31 -8 2 1)
1969/12/31/18:00:28.097,(-5 -4 -18 -36 -37 -26 -14 -5)
1969/12/31/18:00:28.097,(-2 0 27 9 22 3 -1 -4)
1969/12/31/18:00:28.118,(-5 -4 -19 -3 -47 -18 -4 -5)
1969/12/31/18:00:28.118,(5 -5 -21 -71 -51 -13 -3 2)
1969/12/31/18:00:28.119,(-7 3 43 78 11 13 7 0)
1969/12/31/18:00:28.119,(5 7 11 50 106 34 10 5)
1969/12/31/18:00:28.131,(-5 -2 1 -7 3 0 2 -3)
1969/12/31/18:00:28.131,(-12 -17 -25 -22 14 -5 -11 -11)
1969/12/31/18:00:28.140,(-8 -6 -12 -83 -59 -27 -12 -8)
1969/12/31/18:00:28.140,(4 5 -4 13 -37 -11 3 4)
1969/12/31/18:00:28.155,(-2 -2 -6 27 11 16 1 -3)
1969/12/31/18:00:28.155,(0 -6 3 -2 31 10 3 4)
1969/12/31/18:00:28.157,(3 9 22 60 -3 7 4 2)
1969/12/31/18:00:28.157,(0 1 5 39 68 13 1 -1)
1969/12/31/18:00:28.185,(-4 5 14 -55 -32 -17 -7 -4)
1969/12/31/18:00:28.185,(-7 -15 -46 -19 -47 -18 -7 -7)
1969/12/31/18:00:28.187,(0 -4 -5 -66 -7 -5 -4 1)
1969/12/31/18:00:28.187,(4 6 2 -27 -9 0 5 5)
1969/12/31/18:00:28.191,(6 5 27 103 30 10 5 5)
1969/12/31/18:00:28.191,(-7 -8 3 8 3 3 -3 -6)
1969/12/31/18:00:28.200,(6 1 -33 -56 -13 -10 0 3)
1969/12/31/18:00:28.200,(-3 -8 0 -21 -18 -4 -5 -2)
1969/12/31/18:00:28.215,(-4 -4 1 -24 -34 -13 -6 -2)
1969/12/31/18:00:28.215,(7 11 20 59 47 17 7 5)
1969/12/31/18:00:28.221,(-2 0 -5 -11 9 1 2 -1)
1969/12/31/18:00:28.221,(3 5 -2 -5 -34 -5 -1 2)
1969/12/31/18:00:28.238,(3 1 5 10 56 14 1 -1)
1969/12/31/18:00:28.238,(2 -1 -4 7 -9 -6 0 2)
1969/12/31/18:00:28.239,(-3 -5 -4 -58 -35 -12 -4 -4)
1969/12/31/18:00:28.239,(-3 3 20 50 -1 1 0 -2)
1969/12/31/18:00:28.251,(2 -1 -10 -3 -11 -3 2 2)
1969/12/31/18:00:28.251,(-2 2 6 7 5 0 0 -1)
1969/12/31/18:00:28.260,(2 1 -6 13 23 6 4 1)
1969/12/31/18:00:28.260,(-5 -5 -21 -47 -38 -14 -6 -6)
1969/12/31/18:00:28.275,(1 -1 -2 0 -4 -4 -1 1)
1969/12/31/18:00:28.275,(-2 -1 10 -6 10 4 0 0)
1969/12/31/18:00:28.281,(2 3 5 29 14 3 1 2)
1969/12/31/18:00:28.281,(0 -3 -7 -12 -4 -2 0 -3)
1969/12/31/18:00:28.298,(-4 -2 -2 29 8 0 -2 -2)
1969/12/31/18:00:28.298,(2 3 -4 -96 -26 -2 2 4)
1969/12/31/18:00:28.299,(-2 2 16 95 29 6 1 -2)
1969/12/31/18:00:28.299,(3 3 5 -4 2 1 -1 1)
1969/12/31/18:00:28.311,(0 -1 1 7 8 3 1 1)
1969/12/31/18:00:28.311,(-3 -4 -6 5 -5 -6 -5 -4)
1969/12/31/18:00:28.320,(-1 -1 -8 -26 -8 0 -1 2)
1969/12/31/18:00:28.320,(-3 -3 2 6 9 0 -2 -3)
1969/12/31/18:00:28.334,(-1 0 -1 -17 -14 -3 -4 -4)
1969/12/31/18:00:28.334,(-4 1 7 32 9 2 0 -2)
1969/12/31/18:00:28.341,(6 2 -5 -19 -2 3 5 5)
1969/12/31/18:00:28.341,(-3 -3 -9 -7 -4 -3 -2 -3)
1969/12/31/18:00:28.358,(0 -2 -5 -30 -13 -3 1 1)
1969/12/31/18:00:28.358,(-1 0 6 33 8 0 -2 -1)
1969/12/31/18:00:28.359,(0 1 5 6 17 5 0 -2)
1969/12/31/18:00:28.359,(-1 -2 -9 -22 -12 -7 -2 0)
1969/12/31/18:00:28.371,(-1 -4 -13 -27 -24 -7 -2 -2)
1969/12/31/18:00:28.371,(3 6 25 44 30 16 6 3)
1969/12/31/18:00:28.380,(-3 -2 -3 5 5 1 0 -1)
1969/12/31/18:00:28.380,(3 1 -1 -8 -4 0 2 4)
1969/12/31/18:00:28.394,(-7 -4 -1 0 2 -1 -3 -6)
1969/12/31/18:00:28.394,(3 1 -6 2 -9 -4 1 2)
1969/12/31/18:00:28.401,(-4 -2 -4 -14 -7 0 -3 -4)
1969/12/31/18:00:28.401,(3 1 -3 -1 3 -2 1 4)
1969/12/31/18:00:28.418,(-1 1 1 -3 4 4 3 -1)
1969/12/31/18:00:28.418,(-5 -1 0 0 -4 -2 -4 -6)
1969/12/31/18:00:28.419,(6 3 1 -1 2 0 1 5)
1969/12/31/18:00:28.420,(0 1 -3 0 0 1 -1 -4)
1969/12/31/18:00:28.440,(-6 -3 2 0 2 -1 -4 -5)
1969/12/31/18:00:28.440,(2 2 2 4 -1 0 0 0)
1969/12/31/18:00:28.442,(-4 -6 -6 -5 -4 -4 1 0)
1969/12/31/18:00:28.442,(-12 -7 -6 -15 -13 -5 -4 -4)
1969/12/31/18:00:28.454,(21 12 7 7 16 4 5 18)
1969/12/31/18:00:28.454,(11 11 12 18 17 15 13 1)
1969/12/31/18:00:28.461,(7 5 -16 -16 -12 -12 -14 -9)
1969/12/31/18:00:28.461,(-8 -6 -1 -2 -2 0 3 0)
1969/12/31/18:00:28.478,(-24 -15 6 8 -2 -3 -10 -15)
1969/12/31/18:00:28.478,(-6 -5 -5 -4 -6 -6 -3 4)
1969/12/31/18:00:28.479,(-6 -1 3 2 1 3 4 2)
1969/12/31/18:00:28.479,(18 8 -4 -17 -6 -2 1 6)
1969/12/31/18:00:28.500,(4 2 4 12 8 1 0 5)
1969/12/31/18:00:28.500,(1 -6 -5 4 -4 -6 -2 2)
1969/12/31/18:00:28.502,(-9 -1 2 -5 -1 3 -3 -9)
1969/12/31/18:00:28.502,(-1 -3 -5 -10 -14 -5 -2 -2)
1969/12/31/18:00:28.514,(0 0 5 14 19 6 2 0)
1969/12/31/18:00:28.514,(-14 -11 -4 -11 -12 0 3 1)
1969/12/31/18:00:28.523,(24 18 5 9 4 0 1 9)
1969/12/31/18:00:28.523,(-2 0 -1 -1 12 5 -3 -12)
1969/12/31/18:00:28.538,(4 1 -4 -4 -13 -7 -2 0)
1969/12/31/18:00:28.538,(-7 -1 0 6 8 0 -3 -7)
1969/12/31/18:00:28.539,(-11 -9 -2 -1 -3 0 1 -1)
1969/12/31/18:00:28.539,(4 -1 0 2 1 -3 -2 4)
1969/12/31/18:00:28.560,(0 7 4 -9 0 13 13 1)
1969/12/31/18:00:28.560,(-8 -12 -7 -9 -10 -10 -13 -11)
1969/12/31/18:00:28.562,(-9 -8 -6 -20 -7 -2 3 0)
1969/12/31/18:00:28.562,(-5 -3 -2 4 4 -4 -4 -2)
1969/12/31/18:00:28.574,(2 0 10 38 5 4 1 3)
1969/12/31/18:00:28.574,(7 4 -1 -6 17 1 0 7)
1969/12/31/18:00:28.583,(-8 -9 -2 0 -9 1 -3 -4)
1969/12/31/18:00:28.583,(16 11 -20 -72 -9 -4 2 2)
1969/12/31/18:00:28.598,(-4 -1 5 22 -10 -1 4 3)
1969/12/31/18:00:28.598,(3 6 10 15 15 0 -6 -6)
1969/12/31/18:00:28.599,(-7 -5 4 14 5 1 0 1)
1969/12/31/18:00:28.599,(-13 -11 9 49 3 0 -3 -5)
1969/12/31/18:00:28.620,(28 17 -3 -33 -2 3 4 6)
1969/12/31/18:00:28.620,(9 7 -16 -27 -21 -10 -8 1)
1969/12/31/18:00:28.622,(-21 -18 7 11 1 6 6 -5)
1969/12/31/18:00:28.622,(-17 -10 -3 -9 -3 -6 -7 -5)
1969/12/31/18:00:28.634,(-23 -20 -11 -7 -10 -9 -16 -20)
1969/12/31/18:00:28.634,(24 19 2 -21 -7 2 15 17)
1969/12/31/18:00:28.643,(17 11 -23 -55 -40 -10 1 9)
1969/12/31/18:00:28.643,(-1 -1 -9 -23 -14 -3 -2 0)
1969/12/31/18:00:28.658,(1 6 40 86 82 18 7 6)
1969/12/31/18:00:28.658,(-20 -6 32 85 62 19 -1 -14)
1969/12/31/18:00:28.659,(1 6 4 -23 15 8 5 2)
1969/12/31/18:00:28.659,(5 -1 -11 -45 -33 -5 -1 -1)
1969/12/31/18:00:28.680,(4 0 -22 -39 -41 -20 -7 8)
1969/12/31/18:00:28.680,(4 -3 -10 -17 -13 -5 1 -1)
1969/12/31/18:00:28.682,(-30 -23 3 11 1 -6 -12 -19)
1969/12/31/18:00:28.682,(32 29 15 18 15 18 18 14)
1969/12/31/18:00:28.694,(-27 -24 -17 -39 -23 -17 -18 -12)
1969/12/31/18:00:28.694,(30 21 2 11 -3 7 14 22)
1969/12/31/18:00:28.703,(7 3 -3 -9 -1 -7 -10 -7)
1969/12/31/18:00:28.703,(-20 -19 -12 -9 -12 -3 -3 -6)
1969/12/31/18:00:28.718,(13 8 2 17 10 6 7 10)
1969/12/31/18:00:28.718,(-17 -11 -10 -64 -27 -7 -5 -7)
1969/12/31/18:00:28.719,(13 6 1 18 -23 -4 6 12)
1969/12/31/18:00:28.719,(-4 -2 8 66 44 7 -4 -3)
1969/12/31/18:00:28.748,(5 11 32 80 45 19 9 2)
1969/12/31/18:00:28.748,(-12 -5 12 45 24 7 -4 -7)
1969/12/31/18:00:28.749,(6 1 -2 -20 7 9 2 0)
1969/12/31/18:00:28.749,(-8 -9 -10 -44 -28 -9 -4 -3)
1969/12/31/18:00:28.754,(7 6 -33 -81 -44 -13 -3 -1)
1969/12/31/18:00:28.754,(-13 -19 -6 -16 -17 -7 0 -4)
1969/12/31/18:00:28.763,(-60 -44 -2 3 0 -8 -11 -22)
1969/12/31/18:00:28.763,(77 62 28 37 30 26 36 40)
1969/12/31/18:00:28.778,(-10 -8 -12 -24 -11 -8 -15 -17)
1969/12/31/18:00:28.778,(0 1 -7 -15 -12 -3 0 -2)
1969/12/31/18:00:28.779,(23 8 5 11 10 1 0 12)
1969/12/31/18:00:28.779,(-5 -7 3 6 4 0 4 5)
1969/12/31/18:00:28.800,(6 3 2 -11 0 5 3 1)
1969/12/31/18:00:28.800,(0 -2 -29 -95 -34 -8 -1 -1)
1969/12/31/18:00:28.802,(4 4 1 3 4 -1 1 3)
1969/12/31/18:00:28.802,(-22 -9 18 83 0 -10 -12 -14)
1969/12/31/18:00:28.823,(13 9 9 -3 4 6 7 8)
1969/12/31/18:00:28.823,(-19 -13 11 80 44 11 -2 -6)
1969/12/31/18:00:28.824,(22 16 14 24 40 21 14 10)
1969/12/31/18:00:28.824,(-15 -12 -17 -61 -26 -12 -14 -16)
1969/12/31/18:00:28.838,(-13 -13 -15 -31 -20 -8 -5 -5)
1969/12/31/18:00:28.838,(20 9 3 -4 -16 -3 7 20)
1969/12/31/18:00:28.839,(-16 -10 -10 -2 -7 -9 -15 -27)
1969/12/31/18:00:28.839,(0 2 5 5 6 -3 -5 5)
1969/12/31/18:00:28.860,(-34 -37 -12 -21 -17 -8 -9 -21)
1969/12/31/18:00:28.860,(22 27 1 -2 -4 -5 -4 4)
1969/12/31/18:00:28.862,(6 18 8 6 5 6 10 12)
1969/12/31/18:00:28.862,(-9 -19 -4 -13 0 -1 -1 5)
1969/12/31/18:00:28.874,(41 32 7 -1 3 5 9 18)
1969/12/31/18:00:28.874,(-17 -19 -8 -1 -13 -9 -10 -16)
1969/12/31/18:00:28.883,(-6 -8 -2 10 -9 -7 -6 -6)
1969/12/31/18:00:28.883,(-15 -10 4 25 24 5 -3 -8)
1969/12/31/18:00:28.898,(5 7 7 -2 12 9 10 11)
1969/12/31/18:00:28.898,(-4 1 5 7 -3 -1 -5 -6)
1969/12/31/18:00:28.899,(5 1 -4 -6 -4 3 7 5)
1969/12/31/18:00:28.899,(-19 -17 -5 -10 -3 -3 0 -1)
1969/12/31/18:00:28.920,(9 7 -3 5 2 2 4 11)
1969/12/31/18:00:28.920,(0 -2 -6 -21 -13 -9 -9 -9)
1969/12/31/18:00:28.922,(-7 -9 -7 -16 -13 -11 -8 -5)
1969/12/31/18:00:28.922,(8 23 1 4 4 11 13 11)
1969/12/31/18:00:28.934,(-20 -17 1 7 14 2 -6 -16)
1969/12/31/18:00:28.934,(-21 -18 -8 -4 -5 -5 -9 -10)
1969/12/31/18:00:28.943,(-10 0 0 2 -10 -9 -2 0)
1969/12/31/18:00:28.943,(31 9 -1 -10 -4 2 4 6)
1969/12/31/18:00:28.958,(-10 -3 2 11 9 10 1 -5)
1969/12/31/18:00:28.958,(14 14 8 22 19 16 16 15)
1969/12/31/18:00:28.959,(-11 -23 2 8 9 -1 -9 -7)
1969/12/31/18:00:28.959,(9 14 -2 -14 -15 -12 -7 -4)
1969/12/31/18:00:28.980,(-7 -2 -6 -12 -16 -11 -5 -4)
1969/12/31/18:00:28.980,(10 -2 2 2 1 1 4 11)
1969/12/31/18:00:28.982,(-3 -3 -5 -4 -3 2 2 -2)
1969/12/31/18:00:28.982,(-11 -8 1 -3 -2 -3 -5 -8)
1969/12/31/18:00:28.994,(7 3 -2 -3 0 -1 4 6)
1969/12/31/18:00:28.994,(-7 1 -1 5 -3 -2 -2 -8)
1969/12/31/18:00:29.003,(26 28 5 4 4 3 2 8)
1969/12/31/18:00:29.003,(-8 -3 -4 0 0 -3 -7 -10)
1969/12/31/18:00:29.018,(-17 -20 -2 14 1 -2 -5 -10)
1969/12/31/18:00:29.018,(-10 -11 0 -17 1 -2 2 -1)
1969/12/31/18:00:29.019,(30 23 -1 7 -1 1 9 24)
1969/12/31/18:00:29.019,(-11 -6 1 1 -3 -3 -14 -18)
1969/12/31/18:00:29.040,(-9 -2 -2 -6 3 1 2 -5)
1969/12/31/18:00:29.040,(1 -1 -2 -11 -8 -1 -1 -3)
1969/12/31/18:00:29.042,(1 0 0 7 8 1 0 0)
1969/12/31/18:00:29.042,(1 -1 2 3 5 5 7 7)
1969/12/31/18:00:29.054,(7 4 -6 -22 -18 -12 -3 4)
1969/12/31/18:00:29.054,(-2 2 -4 0 -17 -10 -7 -6)
1969/12/31/18:00:29.063,(0 -3 -6 -15 10 0 -1 -4)
1969/12/31/18:00:29.063,(-13 -8 3 21 9 11 2 -7)
1969/12/31/18:00:29.077,(14 11 13 18 20 12 8 10)
1969/12/31/18:00:29.077,(-1 1 0 1 2 -1 -3 -3)
1969/12/31/18:00:29.084,(-10 -16 -1 -6 -13 -8 -5 -2)
1969/12/31/18:00:29.084,(10 29 4 -1 3 -3 2 -3)
1969/12/31/18:00:29.100,(6 2 -4 -9 -12 -6 -2 3)
1969/12/31/18:00:29.100,(-3 -5 -3 -3 -6 -7 -9 -7)
1969/12/31/18:00:29.102,(-4 2 4 2 6 13 19 17)
1969/12/31/18:00:29.102,(-10 -13 -9 -16 -7 -6 -10 -14)
1969/12/31/18:00:29.114,(0 3 1 10 3 -2 -3 -2)
1969/12/31/18:00:29.114,(-17 0 0 4 4 0 -5 -18)
1969/12/31/18:00:29.123,(-1 -8 -2 -7 -7 -1 -1 -2)
1969/12/31/18:00:29.123,(-6 -10 1 -7 -16 -20 -6 -3)
1969/12/31/18:00:29.137,(-1 -1 -5 -7 -21 -1 -2 -3)
1969/12/31/18:00:29.137,(7 -1 0 15 40 19 9 10)
1969/12/31/18:00:29.144,(-13 -2 -13 -71 -9 -3 -12 -20)
1969/12/31/18:00:29.144,(2 -7 1 49 5 2 3 9)
1969/12/31/18:00:29.160,(18 40 15 25 22 4 4 6)
1969/12/31/18:00:29.160,(-23 -26 3 11 -1 -5 -2 -8)
1969/12/31/18:00:29.162,(53 48 14 6 0 11 11 22)
1969/12/31/18:00:29.162,(-32 -12 2 -14 -1 5 10 -5)
1969/12/31/18:00:29.174,(-35 -29 -11 -16 -8 -7 -16 -25)
1969/12/31/18:00:29.174,(15 6 1 0 2 4 9 15)
1969/12/31/18:00:29.183,(-12 0 0 10 -2 -9 -9 -16)
1969/12/31/18:00:29.183,(-6 -15 -11 -21 -16 -10 -9 -6)
1969/12/31/18:00:29.197,(39 23 2 5 -11 -13 2 17)
1969/12/31/18:00:29.197,(-34 -17 2 -3 7 6 1 -17)
1969/12/31/18:00:29.211,(3 -5 -6 4 -10 -2 -2 2)
1969/12/31/18:00:29.211,(6 -4 2 10 15 6 6 10)
1969/12/31/18:00:29.219,(-21 -16 -2 -5 8 0 -7 -12)
1969/12/31/18:00:29.219,(3 -5 -12 -7 -20 -10 -9 -5)
1969/12/31/18:00:29.228,(4 2 -1 5 8 -2 -1 1)
1969/12/31/18:00:29.228,(-32 -14 -7 -16 1 -1 -15 -28)
1969/12/31/18:00:29.243,(-18 -37 -3 -6 -8 2 3 -2)
1969/12/31/18:00:29.243,(-2 -5 -4 -6 -18 -11 -2 11)
1969/12/31/18:00:29.244,(47 50 6 32 10 4 0 2)
1969/12/31/18:00:29.244,(4 10 2 -29 23 5 -5 -2)
1969/12/31/18:00:29.257,(3 -4 -4 17 -8 2 7 2)
1969/12/31/18:00:29.257,(-2 -3 5 -2 2 -3 -2 5)
1969/12/31/18:00:29.264,(-36 -44 -12 -8 -18 -13 -12 -16)
1969/12/31/18:00:29.264,(41 41 0 -4 -16 2 9 25)
1969/12/31/18:00:29.280,(-6 -2 -4 -16 7 3 1 0)
1969/12/31/18:00:29.280,(16 14 0 -30 0 9 9 13)
1969/12/31/18:00:29.282,(1 14 7 33 40 4 -1 -1)
1969/12/31/18:00:29.282,(-14 -15 0 12 -6 1 -2 -3)
1969/12/31/18:00:29.294,(-4 -3 11 26 -8 -9 -8 -6)
1969/12/31/18:00:29.294,(13 8 4 -4 -6 -2 11 14)
1969/12/31/18:00:29.304,(11 6 -18 -36 -9 -2 3 7)
1969/12/31/18:00:29.304,(-41 -37 -4 11 1 -6 -16 -18)
1969/12/31/18:00:29.317,(2 3 5 12 13 13 12 6)
1969/12/31/18:00:29.317,(-8 -4 -1 -3 -10 -6 -5 -9)
1969/12/31/18:00:29.324,(-13 -15 6 18 -1 -4 -7 -12)
1969/12/31/18:00:29.324,(29 16 10 10 11 13 21 33)
1969/12/31/18:00:29.340,(-2 -7 -12 -20 -10 -10 -9 -4)
1969/12/31/18:00:29.340,(17 16 -14 -58 -4 -3 -1 -2)
1969/12/31/18:00:29.342,(-22 -13 11 37 -4 7 11 3)
1969/12/31/18:00:29.342,(5 -2 -2 -22 -15 -11 -6 -5)
1969/12/31/18:00:29.363,(1 10 2 29 8 -2 1 3)
1969/12/31/18:00:29.363,(8 2 2 30 18 7 2 3)
1969/12/31/18:00:29.364,(-5 -7 -3 -25 20 11 4 1)
1969/12/31/18:00:29.364,(-9 -8 10 42 4 5 0 -6)
1969/12/31/18:00:29.377,(12 12 -3 -16 -1 -2 0 4)
1969/12/31/18:00:29.377,(-32 -17 -3 21 -7 -6 -14 -29)
1969/12/31/18:00:29.384,(-17 -32 -7 -15 3 -1 0 -2)
1969/12/31/18:00:29.384,(22 26 -3 -11 -7 -5 0 6)
1969/12/31/18:00:29.400,(-29 -32 -22 -79 -24 -2 -1 -10)
1969/12/31/18:00:29.400,(13 20 1 49 -1 -3 -2 2)
1969/12/31/18:00:29.402,(-5 -2 10 -3 -4 -4 -5 -8)
1969/12/31/18:00:29.402,(20 4 6 21 15 -2 2 20)
1969/12/31/18:00:29.423,(4 3 -4 3 0 1 -6 -3)
1969/12/31/18:00:29.423,(-6 -6 -2 -21 -13 -11 -9 -7)
1969/12/31/18:00:29.424,(-2 -6 -12 -35 -48 -15 -1 1)
1969/12/31/18:00:29.424,(1 3 -7 -28 21 12 6 -1)
1969/12/31/18:00:29.437,(7 3 9 56 37 24 8 5)
1969/12/31/18:00:29.437,(3 -8 15 31 18 3 -3 1)
1969/12/31/18:00:29.444,(8 19 9 9 -12 -3 -1 -7)
1969/12/31/18:00:29.444,(-2 -8 -10 -19 -16 -8 -1 -7)
1969/12/31/18:00:29.460,(-16 -21 2 -14 -5 -5 -5 -7)
1969/12/31/18:00:29.460,(32 32 -11 -41 -11 1 4 9)
1969/12/31/18:00:29.462,(-1 -6 2 30 -4 -3 3 9)
1969/12/31/18:00:29.462,(-10 -11 5 8 13 1 -1 -5)
1969/12/31/18:00:29.483,(7 2 1 4 3 3 -1 1)
1969/12/31/18:00:29.483,(6 2 2 -8 -6 0 6 10)
1969/12/31/18:00:29.484,(-8 -4 -4 3 7 0 -4 -6)
1969/12/31/18:00:29.484,(-1 -9 -2 8 -1 2 4 3)
1969/12/31/18:00:29.496,(-4 12 2 -3 -9 -8 -7 -3)
1969/12/31/18:00:29.496,(18 8 -1 -6 -3 -1 4 13)
1969/12/31/18:00:29.505,(-17 -28 -20 -54 -32 -12 -7 -12)
1969/12/31/18:00:29.505,(10 12 7 41 11 3 -1 0)
1969/12/31/18:00:29.520,(5 20 9 25 23 0 -7 -5)
1969/12/31/18:00:29.520,(-9 -11 9 9 11 17 7 -6)
1969/12/31/18:00:29.522,(-15 -20 -3 -1 7 1 0 -3)
1969/12/31/18:00:29.522,(-4 0 -9 -24 1 -5 -1 0)
1969/12/31/18:00:29.543,(13 8 -3 -20 -36 -11 -4 3)
1969/12/31/18:00:29.543,(-2 1 0 4 1 0 8 13)
1969/12/31/18:00:29.544,(1 22 9 15 15 4 -4 -9)
1969/12/31/18:00:29.544,(-9 -11 -10 -25 -14 -8 -10 -10)
1969/12/31/18:00:29.556,(12 15 2 -1 -1 1 7 10)
1969/12/31/18:00:29.556,(-15 0 -4 3 -23 -15 -18 -22)
1969/12/31/18:00:29.565,(-2 5 2 26 30 11 10 10)
1969/12/31/18:00:29.565,(22 19 3 -19 -6 9 6 8)
1969/12/31/18:00:29.580,(3 -5 -1 -5 3 -1 0 2)
1969/12/31/18:00:29.580,(-23 -15 5 32 23 10 4 -11)
1969/12/31/18:00:29.582,(17 12 9 21 4 0 1 10)
1969/12/31/18:00:29.582,(-13 -8 1 2 -5 -9 -13 -19)
1969/12/31/18:00:29.603,(-1 -5 -16 -58 -23 -7 3 2)
1969/12/31/18:00:29.603,(-3 -2 -1 12 -9 -7 -4 -2)
1969/12/31/18:00:29.605,(-35 -36 -6 -13 -4 -11 -18 -30)
1969/12/31/18:00:29.605,(7 14 -2 0 17 5 7 4)
1969/12/31/18:00:29.616,(-7 -19 -2 4 -12 -1 1 -3)
1969/12/31/18:00:29.616,(-4 -3 2 4 -1 2 0 0)
1969/12/31/18:00:29.625,(-7 -9 -6 -7 0 0 -5 -7)
1969/12/31/18:00:29.625,(-4 8 -1 -4 -11 -4 -3 0)
1969/12/31/18:00:29.640,(-2 -10 -5 -14 -13 -1 5 1)
1969/12/31/18:00:29.640,(10 7 -10 -10 0 -10 -5 3)
1969/12/31/18:00:29.642,(-6 -3 12 20 15 16 13 8)
1969/12/31/18:00:29.642,(12 1 2 0 6 8 6 12)
1969/12/31/18:00:29.663,(13 32 6 26 21 4 -3 -1)
1969/12/31/18:00:29.663,(10 13 -13 -54 -34 -9 1 3)
1969/12/31/18:00:29.664,(8 7 -11 -19 -46 -29 -13 -3)
1969/12/31/18:00:29.664,(-14 -18 3 23 22 2 -1 -3)
1969/12/31/18:00:29.676,(-16 -11 8 45 33 15 -1 -11)
1969/12/31/18:00:29.676,(-5 -1 8 16 32 16 7 6)
1969/12/31/18:00:29.685,(25 15 1 -11 -4 3 7 14)
1969/12/31/18:00:29.685,(-16 -22 -12 -25 -32 -14 -6 -9)
1969/12/31/18:00:29.700,(19 27 -7 -25 -21 -21 -3 15)
1969/12/31/18:00:29.700,(-13 -20 -5 -2 -18 -8 -14 -18)
1969/12/31/18:00:29.702,(11 11 -1 -3 -1 -4 -3 6)
1969/12/31/18:00:29.702,(-36 -34 2 13 -2 -3 -4 -13)
1969/12/31/18:00:29.723,(36 25 -3 3 8 7 8 13)
1969/12/31/18:00:29.723,(-11 -16 -3 5 5 -2 -4 -5)
1969/12/31/18:00:29.724,(45 36 8 7 10 11 12 20)
1969/12/31/18:00:29.724,(-20 -14 -7 -19 -21 -11 -11 -14)
1969/12/31/18:00:29.736,(-10 -13 4 9 9 3 4 -1)
1969/12/31/18:00:29.736,(9 3 2 5 6 6 11 16)
1969/12/31/18:00:29.745,(-21 -20 -9 -13 1 -1 -8 -15)
1969/12/31/18:00:29.745,(19 14 -2 10 -2 -1 3 10)
1969/12/31/18:00:29.760,(-23 10 3 7 2 4 4 -6)
1969/12/31/18:00:29.760,(19 5 -6 -11 -3 -2 -4 -1)
1969/12/31/18:00:29.762,(-2 4 1 10 5 1 -1 0)
1969/12/31/18:00:29.762,(11 8 -3 -7 -3 2 7 8)
1969/12/31/18:00:29.783,(-12 -22 -4 -2 -7 -9 -16 -14)
1969/12/31/18:00:29.783,(11 2 4 1 -1 -2 -1 8)
1969/12/31/18:00:29.784,(-6 9 5 2 6 4 1 -4)
1969/12/31/18:00:29.784,(-17 -18 -4 4 2 -3 -5 -14)
1969/12/31/18:00:29.796,(18 29 0 -5 -9 -6 0 8)
1969/12/31/18:00:29.797,(-9 6 -1 -6 1 1 -1 -9)
1969/12/31/18:00:29.805,(8 -5 -3 -6 19 2 2 7)
1969/12/31/18:00:29.805,(17 21 4 7 -36 -8 0 8)
1969/12/31/18:00:29.820,(-10 -21 8 27 27 15 15 8)
1969/12/31/18:00:29.820,(7 3 9 21 26 23 15 13)
1969/12/31/18:00:29.822,(-1 13 -4 1 8 0 -2 -6)
1969/12/31/18:00:29.822,(-4 -3 -1 -6 4 1 0 -6)
1969/12/31/18:00:29.843,(6 -24 -1 -12 -14 -6 2 21)
1969/12/31/18:00:29.843,(0 11 3 -12 -10 -6 -7 -23)
1969/12/31/18:00:29.844,(-22 -16 -2 6 -5 -3 -8 -11)
1969/12/31/18:00:29.844,(-16 -13 2 5 9 9 6 3)
1969/12/31/18:00:29.856,(36 15 8 -3 5 9 14 18)
1969/12/31/18:00:29.856,(-4 -1 -3 -9 0 -4 -4 4)
1969/12/31/18:00:29.865,(5 0 2 6 -3 3 5 5)
1969/12/31/18:00:29.865,(9 5 -5 -7 -6 -6 -1 6)
1969/12/31/18:00:29.880,(-22 -9 -10 -14 -2 -3 -11 -21)
1969/12/31/18:00:29.880,(-27 -27 2 16 2 -4 -8 -10)
1969/12/31/18:00:29.882,(42 63 3 6 -2 0 5 17)
1969/12/31/18:00:29.882,(0 3 -1 -1 12 -11 -24 -28)
1969/12/31/18:00:29.903,(-13 -13 -5 -17 -31 -5 -2 -6)
1969/12/31/18:00:29.903,(19 21 3 11 7 -1 3 8)
1969/12/31/18:00:29.904,(-33 -52 -7 -4 0 -2 -6 -11)
1969/12/31/18:00:29.904,(38 53 11 12 9 11 18 19)
1969/12/31/18:00:29.916,(8 25 2 -2 13 1 -1 2)
1969/12/31/18:00:29.916,(-28 -49 -10 -7 -9 -2 1 -3)
1969/12/31/18:00:29.925,(8 11 5 9 7 12 12 3)
1969/12/31/18:00:29.925,(7 9 -1 -13 -5 -2 -3 0)
1969/12/31/18:00:29.940,(-11 -18 -6 -8 -11 -8 -4 -6)
1969/12/31/18:00:29.940,(-7 -9 -7 -4 -16 -10 -11 -7)
1969/12/31/18:00:29.942,(-9 -17 -2 1 1 -3 -2 0)
1969/12/31/18:00:29.942,(-8 -2 1 6 10 -1 -5 -5)
1969/12/31/18:00:29.963,(-4 -2 -2 2 -6 -8 -11 -10)
1969/12/31/18:00:29.963,(-1 0 -2 -2 7 1 3 4)
1969/12/31/18:00:29.964,(3 4 -4 -26 -24 -7 -5 -5)
1969/12/31/18:00:29.964,(-12 -24 -3 5 3 5 4 -1)
1969/12/31/18:00:29.976,(-4 4 2 16 9 -1 -3 -4)
1969/12/31/18:00:29.976,(27 36 4 -4 -6 -4 -2 5)
1969/12/31/18:00:29.985,(-14 -4 6 -5 1 5 3 -12)
1969/12/31/18:00:29.985,(3 -2 -3 -15 -1 0 1 4)
1969/12/31/18:00:30.000,(-13 -15 -17 -37 -34 -7 -3 -5)
1969/12/31/18:00:30.000,(11 10 10 32 9 2 1 6)
1969/12/31/18:00:30.002,(-3 8 12 49 40 3 -1 5)
1969/12/31/18:00:30.002,(7 -4 5 15 9 4 -3 -4)
1969/12/31/18:00:30.023,(-2 -5 0 -18 6 7 9 -1)
1969/12/31/18:00:30.023,(6 26 -12 -46 -40 -15 -9 0)
1969/12/31/18:00:30.024,(-7 -9 -4 4 -7 -3 2 0)
1969/12/31/18:00:30.024,(-6 -11 5 27 15 2 -4 -2)
1969/12/31/18:00:30.036,(-10 -12 13 16 25 24 29 17)
1969/12/31/18:00:30.036,(-4 -14 -5 1 2 -1 -3 -6)
1969/12/31/18:00:30.045,(13 10 -8 -25 -15 -4 0 4)
1969/12/31/18:00:30.045,(13 10 -6 -30 -13 -3 5 8)
1969/12/31/18:00:30.060,(1 -1 -7 -3 15 -4 -8 -4)
1969/12/31/18:00:30.060,(0 3 5 19 -9 -5 -3 -1)
1969/12/31/18:00:30.066,(6 5 20 42 25 13 13 10)
1969/12/31/18:00:30.066,(-8 16 0 -2 -5 -1 -2 -4)
1969/12/31/18:00:30.083,(4 4 -4 2 -2 -7 -11 -5)
1969/12/31/18:00:30.083,(-29 -17 1 -17 9 9 9 -3)
1969/12/31/18:00:30.084,(6 -5 -18 -36 -32 -14 -12 0)
1969/12/31/18:00:30.084,(3 -1 -1 22 10 2 5 8)
1969/12/31/18:00:30.096,(-8 16 4 15 1 -12 -20 -19)
1969/12/31/18:00:30.096,(65 66 31 19 27 30 39 34)
1969/12/31/18:00:30.105,(-38 -55 -15 -11 -14 -15 -21 -24)
1969/12/31/18:00:30.105,(18 5 -8 -27 -5 10 13 13)
1969/12/31/18:00:30.120,(-4 -13 -6 -12 -20 -12 -13 -6)
1969/12/31/18:00:30.120,(-14 -18 -15 -6 10 -4 -1 -1)
1969/12/31/18:00:30.126,(-1 -2 9 28 5 8 5 7)
1969/12/31/18:00:30.126,(4 12 3 15 6 2 -2 -6)
1969/12/31/18:00:30.143,(-6 -2 5 5 -4 0 3 1)
1969/12/31/18:00:30.143,(27 10 0 -6 5 7 11 24)
1969/12/31/18:00:30.144,(1 -2 -7 -20 1 -5 -6 -5)
1969/12/31/18:00:30.144,(-12 -12 -7 -10 -26 -8 -7 -9)
1969/12/31/18:00:30.156,(7 5 0 4 -5 -1 -1 3)
1969/12/31/18:00:30.156,(-32 -26 -11 -31 -35 -22 -20 -27)
1969/12/31/18:00:30.165,(-4 -5 -6 -5 4 -1 2 1)
1969/12/31/18:00:30.165,(34 44 16 27 36 20 15 14)
1969/12/31/18:00:30.180,(-8 -3 14 26 28 19 18 14)
1969/12/31/18:00:30.180,(23 12 2 5 0 -2 -7 1)
1969/12/31/18:00:30.186,(18 6 -4 -18 -19 -1 4 9)
1969/12/31/18:00:30.186,(-30 -21 -8 -20 -21 -15 -16 -20)
1969/12/31/18:00:30.203,(3 -4 -3 -20 -7 0 3 2)
1969/12/31/18:00:30.203,(-17 -9 0 22 6 -4 -5 -7)
1969/12/31/18:00:30.204,(3 13 9 15 7 5 6 6)
1969/12/31/18:00:30.204,(6 -7 -1 -2 1 0 3 11)
1969/12/31/18:00:30.216,(0 3 -4 0 -4 -3 -5 -7)
1969/12/31/18:00:30.216,(-16 -18 -13 -29 -20 -10 -7 -7)
1969/12/31/18:00:30.225,(6 -7 -3 -5 -3 -3 0 4)
1969/12/31/18:00:30.226,(-11 13 6 21 15 2 -2 -4)
1969/12/31/18:00:30.240,(20 31 2 12 6 3 -4 -5)
1969/12/31/18:00:30.240,(-3 -2 -2 4 2 -4 -6 -4)
1969/12/31/18:00:30.246,(-2 12 1 -11 -6 -2 -6 -11)
1969/12/31/18:00:30.246,(-27 -33 -11 -16 -18 -11 -11 -18)
1969/12/31/18:00:30.263,(10 3 2 12 0 0 4 10)
1969/12/31/18:00:30.263,(3 16 5 12 8 1 -1 -1)
1969/12/31/18:00:30.264,(-12 -23 -6 3 -3 -4 -3 0)
1969/12/31/18:00:30.264,(17 8 -1 -12 -18 -6 1 7)
1969/12/31/18:00:30.276,(-10 -14 -5 -7 -1 -2 -4 -7)
1969/12/31/18:00:30.276,(-12 -15 -2 9 16 6 -2 -7)
1969/12/31/18:00:30.285,(5 14 -2 -8 -1 1 3 8)
1969/12/31/18:00:30.285,(-8 -10 -3 -16 -11 -8 -7 -8)
1969/12/31/18:00:30.300,(-9 -20 -2 1 3 1 -1 -5)
1969/12/31/18:00:30.300,(-7 -3 5 16 -5 0 -4 -5)
1969/12/31/18:00:30.306,(-12 4 4 8 14 6 6 1)
1969/12/31/18:00:30.306,(27 25 4 5 5 0 2 8)
1969/12/31/18:00:30.323,(-35 -20 -2 -3 -2 -1 -5 -22)
1969/12/31/18:00:30.323,(1 6 -3 -9 -9 -8 -6 2)
1969/12/31/18:00:30.324,(-29 -30 -16 -35 -39 -17 -15 -25)
1969/12/31/18:00:30.324,(-3 -12 -6 9 0 -4 0 4)
1969/12/31/18:00:30.345,(8 12 14 38 40 18 13 10)
1969/12/31/18:00:30.345,(18 15 16 25 39 23 10 12)
1969/12/31/18:00:30.347,(31 22 8 1 -3 -1 11 25)
1969/12/31/18:00:30.347,(1 5 -4 -30 -43 -13 -6 1)
1969/12/31/18:00:30.360,(1 -13 -18 -37 -28 -11 -6 -1)
1969/12/31/18:00:30.360,(-9 -12 6 32 30 13 6 -1)
1969/12/31/18:00:30.366,(15 25 9 16 15 8 2 3)
1969/12/31/18:00:30.366,(0 -9 6 15 12 3 4 2)
1969/12/31/18:00:30.383,(-8 -6 -5 -9 -15 -14 -7 -6)
1969/12/31/18:00:30.383,(5 -6 -3 -19 -19 -5 9 17)
1969/12/31/18:00:30.384,(-8 -5 -8 -25 -22 -10 -9 -9)
1969/12/31/18:00:30.384,(-15 -15 -3 4 17 1 -2 -7)
1969/12/31/18:00:30.405,(6 7 3 13 3 4 2 4)
1969/12/31/18:00:30.405,(5 8 -5 -11 6 1 2 1)
1969/12/31/18:00:30.407,(-2 -6 -3 -23 -40 -15 -9 -6)
1969/12/31/18:00:30.407,(-7 -11 -3 2 22 11 4 4)
1969/12/31/18:00:30.419,(27 38 6 19 25 8 0 6)
1969/12/31/18:00:30.419,(-15 -28 -6 -19 -10 3 4 6)
1969/12/31/18:00:30.435,(-6 -1 11 38 37 16 4 -7)
1969/12/31/18:00:30.435,(5 4 0 1 0 -5 -10 -8)
1969/12/31/18:00:30.443,(-4 1 -7 -20 -35 -29 -11 -6)
1969/12/31/18:00:30.443,(-27 -26 -9 -13 -23 -10 -10 -16)
1969/12/31/18:00:30.444,(18 18 7 12 31 15 10 9)
1969/12/31/18:00:30.444,(-18 -12 -5 -6 -1 2 -4 -7)
1969/12/31/18:00:30.465,(15 1 -2 -1 5 0 -2 1)
1969/12/31/18:00:30.465,(9 13 0 -6 -16 -10 -7 -5)
1969/12/31/18:00:30.467,(11 2 -10 -19 -23 -13 -8 0)
1969/12/31/18:00:30.467,(-33 -18 5 22 21 8 1 -15)
1969/12/31/18:00:30.479,(-4 -4 1 -20 -17 -2 5 9)
1969/12/31/18:00:30.479,(7 9 -9 -37 -59 -30 -8 0)
1969/12/31/18:00:30.488,(4 3 -7 6 60 17 1 -1)
1969/12/31/18:00:30.488,(2 -20 17 57 30 26 12 9)
1969/12/31/18:00:30.503,(38 83 23 32 23 19 14 13)
1969/12/31/18:00:30.503,(-7 -15 -6 -3 0 -3 -4 -5)
1969/12/31/18:00:30.504,(-19 -13 1 -8 -20 -21 -18 -17)
1969/12/31/18:00:30.504,(8 8 -14 -39 -26 -9 4 3)
1969/12/31/18:00:30.525,(-29 -42 -6 -8 -10 -8 -7 -7)
1969/12/31/18:00:30.525,(17 11 9 18 18 12 14 14)
1969/12/31/18:00:30.527,(-11 0 -3 0 -5 -1 1 -6)
1969/12/31/18:00:30.527,(29 26 19 -2 3 13 16 16)
1969/12/31/18:00:30.539,(-4 -16 0 2 -6 -5 -7 -7)
1969/12/31/18:00:30.539,(3 14 -1 1 11 3 2 1)
1969/12/31/18:00:30.548,(-25 -36 0 10 0 -1 -6 -10)
1969/12/31/18:00:30.548,(-3 -5 -5 -26 -14 -2 2 4)
1969/12/31/18:00:30.563,(7 2 -5 10 0 0 7 11)
1969/12/31/18:00:30.563,(-14 -16 0 8 12 3 -4 -10)
1969/12/31/18:00:30.564,(22 16 6 -1 -1 8 16 21)
1969/12/31/18:00:30.564,(-1 3 -10 -24 -27 -22 -15 -8)
1969/12/31/18:00:30.585,(-7 -11 -11 -15 -19 -3 -9 -9)
1969/12/31/18:00:30.585,(-17 -12 0 36 26 6 -5 -16)
1969/12/31/18:00:30.587,(19 43 24 44 26 18 12 17)
1969/12/31/18:00:30.587,(-5 0 -1 10 6 -2 -7 -13)
1969/12/31/18:00:30.599,(-23 -34 -9 -21 -14 -9 -9 -14)
1969/12/31/18:00:30.599,(6 13 1 -17 -15 -11 -4 0)
1969/12/31/18:00:30.608,(0 -1 -11 -10 -9 -4 -2 -3)
1969/12/31/18:00:30.608,(-4 -6 2 3 -3 -3 -3 -2)
1969/12/31/18:00:30.623,(-2 5 -5 -9 0 1 3 1)
1969/12/31/18:00:30.623,(-23 -27 -8 -6 -3 -3 -10 -14)
1969/12/31/18:00:30.624,(8 4 -2 -9 -5 -4 -3 4)
1969/12/31/18:00:30.624,(-7 -9 -11 -37 -12 -8 -6 -3)
1969/12/31/18:00:30.645,(5 -3 7 31 6 7 5 6)
1969/12/31/18:00:30.645,(14 21 16 27 10 7 5 7)
1969/12/31/18:00:30.647,(-15 -21 -6 -2 4 1 -1 -10)
1969/12/31/18:00:30.647,(7 8 -2 -10 -7 2 5 6)
1969/12/31/18:00:30.659,(-3 -5 -7 -33 -48 -17 -3 -1)
1969/12/31/18:00:30.659,(1 -1 -1 41 48 9 -1 0)
1969/12/31/18:00:30.668,(4 0 3 19 25 15 5 4)
1969/12/31/18:00:30.668,(-5 1 14 61 40 13 1 -3)
1969/12/31/18:00:30.683,(1 3 8 1 26 7 2 1)
1969/12/31/18:00:30.683,(0 -1 -8 -36 -42 -6 1 2)
1969/12/31/18:00:30.684,(7 4 6 -28 -25 -7 3 1)
1969/12/31/18:00:30.684,(11 12 6 6 -1 -9 -4 5)
1969/12/31/18:00:30.705,(-5 -18 -25 -3 -2 -6 -2 -2)
1969/12/31/18:00:30.705,(-2 2 14 -2 -3 -9 -5 -3)
1969/12/31/18:00:30.707,(-15 -13 -21 -17 6 -8 -10 -11)
1969/12/31/18:00:30.707,(5 -2 -18 -26 -35 -14 -4 5)
1969/12/31/18:00:30.727,(0 5 23 10 6 7 5 -1)
1969/12/31/18:00:30.727,(9 15 22 16 14 10 7 6)
1969/12/31/18:00:30.728,(9 0 -10 -11 -9 -4 3 8)
1969/12/31/18:00:30.728,(-1 0 12 8 4 13 8 1)
1969/12/31/18:00:30.742,(-3 -3 -13 6 11 -3 -7 -4)
1969/12/31/18:00:30.742,(0 -11 -30 -65 -16 -33 -14 -3)
1969/12/31/18:00:30.743,(-17 -15 6 22 -34 -16 -14 -13)
1969/12/31/18:00:30.743,(3 12 23 41 26 8 3 1)
1969/12/31/18:00:30.765,(3 4 1 13 38 26 11 5)
1969/12/31/18:00:30.765,(2 2 10 7 15 22 14 5)
1969/12/31/18:00:30.765,(6 5 -4 -17 -26 -12 1 5)
1969/12/31/18:00:30.765,(-4 -18 -28 -34 -17 -15 -7 -3)
1969/12/31/18:00:30.787,(0 8 22 -25 -30 -1 5 2)
1969/12/31/18:00:30.787,(-1 0 -19 40 36 6 -5 0)
1969/12/31/18:00:30.788,(-9 -12 0 20 36 5 -6 -8)
1969/12/31/18:00:30.788,(-6 0 7 11 -5 3 3 -2)
1969/12/31/18:00:30.802,(0 1 1 -20 -10 -12 -3 -2)
1969/12/31/18:00:30.802,(-1 0 -4 -35 -41 -7 2 -1)
1969/12/31/18:00:30.803,(8 7 1 -60 -22 -1 1 5)
1969/12/31/18:00:30.803,(4 0 -3 74 31 5 1 4)
1969/12/31/18:00:30.825,(-2 -7 1 55 33 6 0 1)
1969/12/31/18:00:30.825,(-11 -6 11 -13 -8 2 -3 -10)
1969/12/31/18:00:30.825,(4 0 -10 -4 9 3 0 2)
1969/12/31/18:00:30.825,(-6 -7 -10 -69 -45 -20 -8 -4)
1969/12/31/18:00:30.847,(-1 -6 -26 -24 -22 -7 -9 -3)
1969/12/31/18:00:30.847,(1 -5 7 21 -18 8 8 1)
1969/12/31/18:00:30.848,(-5 3 9 22 41 8 2 -2)
1969/12/31/18:00:30.848,(4 3 7 34 41 17 6 5)
1969/12/31/18:00:30.862,(1 5 11 14 8 1 0 -1)
1969/12/31/18:00:30.862,(3 -2 -17 -33 -21 -9 -4 0)
1969/12/31/18:00:30.863,(0 0 5 -3 -30 -10 -1 0)
1969/12/31/18:00:30.863,(4 2 -4 -18 -9 -3 2 2)
1969/12/31/18:00:30.885,(3 3 1 -2 3 4 2 0)
1969/12/31/18:00:30.885,(-3 -10 -16 -18 7 -4 -3 -2)
1969/12/31/18:00:30.885,(-4 1 0 -4 -23 -5 2 0)
1969/12/31/18:00:30.885,(2 5 6 23 22 -1 -2 1)
1969/12/31/18:00:30.908,(-1 2 15 22 22 8 3 1)
1969/12/31/18:00:30.908,(-4 -1 -7 -5 -5 -3 -4 -3)
1969/12/31/18:00:30.909,(4 -3 -13 -10 -27 -6 1 2)
1969/12/31/18:00:30.909,(-2 2 7 -17 13 5 3 0)
1969/12/31/18:00:30.922,(5 1 -6 -16 -3 -3 0 3)
1969/12/31/18:00:30.922,(-2 0 -7 -1 -6 -2 -2 -3)
1969/12/31/18:00:30.923,(2 -1 -5 4 -43 0 2 2)
1969/12/31/18:00:30.923,(-11 -4 12 -3 29 -3 -7 -7)
1969/12/31/18:00:30.945,(-3 -1 -1 45 25 10 1 0)
1969/12/31/18:00:30.945,(-7 -5 5 19 18 1 2 -4)
1969/12/31/18:00:30.945,(2 2 -5 -8 -10 5 7 0)
1969/12/31/18:00:30.945,(10 1 -7 -8 -37 -17 -5 5)
1969/12/31/18:00:30.967,(-15 -7 4 -61 -37 -19 -13 -12)
1969/12/31/18:00:30.967,(0 3 1 12 13 1 1 0)
1969/12/31/18:00:30.968,(0 3 10 39 40 19 6 1)
1969/12/31/18:00:30.968,(2 -3 -14 -15 0 12 1 1)
1969/12/31/18:00:30.982,(4 1 -5 -26 -16 -8 -3 0)
1969/12/31/18:00:30.982,(4 5 -7 -40 -51 -21 -4 1)
1969/12/31/18:00:30.983,(1 1 8 14 1 -5 -3 1)
1969/12/31/18:00:30.983,(-4 0 12 78 51 21 6 -1)
1969/12/31/18:00:31.005,(5 4 19 24 30 12 5 4)
1969/12/31/18:00:31.005,(-1 1 -2 -6 -8 -4 -4 -2)
1969/12/31/18:00:31.005,(5 2 -8 -32 6 -2 -1 3)
1969/12/31/18:00:31.005,(-8 -8 -4 -4 -17 -8 -6 -6)
1969/12/31/18:00:31.028,(-1 0 -2 0 -11 -1 2 2)
1969/12/31/18:00:31.028,(0 1 3 15 11 4 -3 0)
1969/12/31/18:00:31.029,(-5 -2 -1 -6 4 -2 -5 -7)
1969/12/31/18:00:31.029,(3 -1 -33 -62 -49 -12 1 1)
1969/12/31/18:00:31.042,(7 0 12 41 39 17 4 6)
1969/12/31/18:00:31.042,(-7 -4 12 3 6 -2 -5 -6)
1969/12/31/18:00:31.043,(0 0 3 1 4 -2 -1 1)
1969/12/31/18:00:31.043,(3 2 -4 -14 -9 0 4 1)
1969/12/31/18:00:31.065,(1 0 -12 13 -15 -10 -4 0)
1969/12/31/18:00:31.065,(4 2 4 24 19 11 2 3)
1969/12/31/18:00:31.065,(-2 -3 -2 -10 7 1 0 0)
1969/12/31/18:00:31.065,(-1 0 2 4 -16 -5 -1 -2)
1969/12/31/18:00:31.088,(-2 -2 -3 -16 -8 -5 -1 -1)
1969/12/31/18:00:31.088,(2 -1 0 15 18 6 4 0)
1969/12/31/18:00:31.088,(-4 -2 -2 9 -8 -4 -3 -3)
1969/12/31/18:00:31.088,(0 0 3 -7 21 4 -1 4)
1969/12/31/18:00:31.102,(-2 -2 -6 -11 -6 -3 -5 -3)
1969/12/31/18:00:31.102,(-1 0 -5 -6 -6 -1 2 0)
1969/12/31/18:00:31.103,(-1 -1 2 5 5 -1 -3 -2)
1969/12/31/18:00:31.103,(-1 0 3 -5 -7 -3 1 1)
1969/12/31/18:00:31.125,(1 1 -1 -7 0 0 2 -1)
1969/12/31/18:00:31.125,(2 0 3 5 -2 1 1 3)
1969/12/31/18:00:31.125,(-3 -4 -3 -5 5 0 0 -3)
1969/12/31/18:00:31.125,(0 0 -1 -5 -4 -1 -1 -1)
1969/12/31/18:00:31.155,(-2 -3 -10 -9 -15 -12 -6 -4)
1969/12/31/18:00:31.155,(-1 -2 -1 -2 2 5 1 0)
1969/12/31/18:00:31.156,(0 2 5 11 9 1 -2 1)
1969/12/31/18:00:31.156,(-3 -4 0 -9 -3 -3 -3 -4)
1969/12/31/18:00:31.162,(3 4 8 15 -5 0 3 2)
1969/12/31/18:00:31.162,(4 3 -2 2 4 -2 1 2)
1969/12/31/18:00:31.163,(-5 -6 -4 3 1 0 -2 -3)
1969/12/31/18:00:31.163,(2 3 -2 -1 -5 -2 -2 0)
