time,.data
1969/12/31/18:00:07.845000,(1 -1 0 -1 0 -2 -4 -2)
1969/12/31/18:00:07.845000,(1 0 0 -2 -2 -1 2 2)
1969/12/31/18:00:07.847000,(-4 -4 -2 -1 0 -1 -5 -3)
1969/12/31/18:00:07.847000,(0 0 0 -1 1 1 1 -1)
1969/12/31/18:00:07.858000,(1 0 1 0 0 -1 1 0)
1969/12/31/18:00:07.859000,(-2 -3 -3 0 1 -1 0 0)
1969/12/31/18:00:07.868000,(-1 -2 -2 0 -2 -1 -1 0)
1969/12/31/18:00:07.868000,(0 0 0 -1 -1 -1 1 1)
1969/12/31/18:00:07.882000,(-3 -1 -2 -3 -3 -1 -1 0)
1969/12/31/18:00:07.882000,(1 0 -1 -1 -2 1 1 2)
1969/12/31/18:00:07.884000,(-1 1 2 2 3 0 -1 -3)
1969/12/31/18:00:07.884000,(-2 -2 1 -3 -2 -3 -2 -2)
1969/12/31/18:00:07.905000,(5 3 0 3 0 1 3 3)
1969/12/31/18:00:07.905000,(-3 -2 0 1 -1 -1 -1 -2)
1969/12/31/18:00:07.907000,(1 -1 -3 -4 -6 0 3 0)
1969/12/31/18:00:07.907000,(0 -3 -2 3 4 -2 -3 -2)
1969/12/31/18:00:07.919000,(-3 -4 3 -3 -3 0 -1 -3)
1969/12/31/18:00:07.919000,(0 2 -2 2 -1 1 0 1)
1969/12/31/18:00:07.943000,(2 3 4 1 3 6 8 7)
1969/12/31/18:00:07.943000,(-1 1 2 -9 -12 -4 1 -2)
1969/12/31/18:00:07.944000,(6 -1 -12 10 5 5 5 5)
1969/12/31/18:00:07.944000,(-4 -7 3 -3 2 -1 -4 -2)
1969/12/31/18:00:07.945000,(-6 -1 0 -2 -11 -12 -8 -6)
1969/12/31/18:00:07.945000,(5 5 8 8 10 8 4 4)
1969/12/31/18:00:07.965000,(3 6 -1 -2 -2 0 0 2)
1969/12/31/18:00:07.965000,(-1 0 -1 -9 -8 0 0 -2)
1969/12/31/18:00:07.966000,(4 0 -5 7 -4 -5 0 2)
1969/12/31/18:00:07.966000,(5 -1 -3 0 10 4 4 6)
1969/12/31/18:00:07.978000,(-5 -3 2 -5 0 -1 -1 -4)
1969/12/31/18:00:07.978000,(3 0 -7 -7 -13 0 2 1)
1969/12/31/18:00:07.993000,(-3 -2 -2 -20 0 -4 -4 -5)
1969/12/31/18:00:07.993000,(-1 7 2 42 4 3 -3 -4)
1969/12/31/18:00:08.002000,(-8 -14 1 -5 5 -3 -4 -5)
1969/12/31/18:00:08.002000,(-11 -5 -3 -18 -10 -10 -4 -7)
1969/12/31/18:00:08.004000,(9 9 19 23 23 16 10 9)
1969/12/31/18:00:08.004000,(-11 -8 -18 -33 -26 -10 -8 -9)
1969/12/31/18:00:08.025000,(4 -2 -22 -30 -28 -8 0 -1)
1969/12/31/18:00:08.025000,(0 0 11 32 29 3 -5 -3)
1969/12/31/18:00:08.026000,(9 6 9 28 14 8 3 5)
1969/12/31/18:00:08.026000,(3 9 6 11 24 9 3 1)
1969/12/31/18:00:08.039000,(-6 -6 13 17 5 0 -3 -2)
1969/12/31/18:00:08.039000,(-4 -9 -22 -31 -26 -15 -5 -3)
1969/12/31/18:00:08.055000,(-6 -8 -30 -102 -63 -22 -6 -7)
1969/12/31/18:00:08.055000,(7 1 10 58 32 11 5 8)
1969/12/31/18:00:08.062000,(-5 -1 10 32 -34 -8 -5 -6)
1969/12/31/18:00:08.062000,(14 18 36 70 106 41 17 14)
1969/12/31/18:00:08.064000,(-14 -11 -3 17 -17 -4 -6 -11)
1969/12/31/18:00:08.064000,(-6 -16 -43 -73 -24 -18 -12 -4)
1969/12/31/18:00:08.085000,(-15 -11 7 -63 -25 -4 0 -7)
1969/12/31/18:00:08.085000,(7 13 26 93 10 4 4 5)
1969/12/31/18:00:08.087000,(-1 6 0 -26 -21 -12 -10 -5)
1969/12/31/18:00:08.087000,(2 -2 -28 -38 -47 -9 0 -3)
1969/12/31/18:00:08.098000,(13 -2 -33 -40 32 -1 -1 7)
1969/12/31/18:00:08.098000,(-2 1 23 4 -17 -11 -4 -2)
1969/12/31/18:00:08.115000,(-4 0 44 114 92 40 13 2)
1969/12/31/18:00:08.115000,(-6 -2 16 -33 19 17 5 -1)
1969/12/31/18:00:08.122000,(6 5 -26 -4 -2 6 5 5)
1969/12/31/18:00:08.122000,(-6 -21 -61 -99 -65 -23 -9 -7)
1969/12/31/18:00:08.124000,(-6 -12 2 -38 -53 -35 -16 -4)
1969/12/31/18:00:08.124000,(-1 16 45 67 26 2 2 0)
1969/12/31/18:00:08.145000,(1 6 -13 11 8 3 1 -1)
1969/12/31/18:00:08.145000,(6 2 -5 -61 -53 -9 0 3)
1969/12/31/18:00:08.146000,(5 5 0 46 59 23 8 5)
1969/12/31/18:00:08.146000,(-1 -1 23 20 -12 6 4 -2)
1969/12/31/18:00:08.167000,(-11 0 13 56 66 23 3 -5)
1969/12/31/18:00:08.167000,(4 -2 -26 -38 -8 -13 -8 1)
1969/12/31/18:00:08.169000,(-7 -18 -16 -40 -29 -15 -9 -7)
1969/12/31/18:00:08.169000,(-2 3 -4 -50 -47 -20 -7 -2)
1969/12/31/18:00:08.182000,(9 5 2 23 -14 0 2 4)
1969/12/31/18:00:08.182000,(-12 -12 -14 -79 13 2 -2 -7)
1969/12/31/18:00:08.184000,(10 17 17 83 13 8 8 8)
1969/12/31/18:00:08.184000,(3 -1 14 42 43 10 2 4)
1969/12/31/18:00:08.205000,(1 5 12 -25 -36 -6 -2 -1)
1969/12/31/18:00:08.205000,(2 1 -4 7 50 19 3 4)
1969/12/31/18:00:08.207000,(-2 -1 -9 -46 -8 -7 -6 -2)
1969/12/31/18:00:08.207000,(-1 -4 -24 -29 -22 -8 2 -1)
1969/12/31/18:00:08.218000,(-2 1 10 28 -11 -6 -4 2)
1969/12/31/18:00:08.218000,(-2 4 19 51 14 4 1 -1)
1969/12/31/18:00:08.227000,(1 1 -12 -21 -4 1 2 1)
1969/12/31/18:00:08.227000,(1 -1 -4 12 -1 -2 -2 0)
1969/12/31/18:00:08.243000,(-5 -5 5 -24 7 -1 -3 -4)
1969/12/31/18:00:08.243000,(-1 3 3 13 -13 -4 -1 -1)
1969/12/31/18:00:08.249000,(4 2 -6 -12 8 6 4 4)
1969/12/31/18:00:08.249000,(0 -1 5 17 4 0 -2 -1)
1969/12/31/18:00:08.265000,(2 1 6 -4 3 -4 -1 2)
1969/12/31/18:00:08.265000,(-3 0 4 10 -6 2 1 -3)
1969/12/31/18:00:08.266000,(0 0 -6 9 -3 -1 0 0)
1969/12/31/18:00:08.266000,(0 -4 -5 -24 1 -4 0 0)
1969/12/31/18:00:08.278000,(5 10 5 6 4 -1 1 0)
1969/12/31/18:00:08.278000,(-1 -1 7 21 -3 3 2 -2)
1969/12/31/18:00:08.295000,(-11 -8 -8 -26 -6 -6 -11 -13)
1969/12/31/18:00:08.295000,(-4 -4 0 26 11 1 -3 -3)
1969/12/31/18:00:08.302000,(2 2 3 6 4 1 3 4)
1969/12/31/18:00:08.302000,(4 2 0 -4 -10 -5 2 3)
1969/12/31/18:00:08.304000,(8 6 -2 -21 -6 1 2 6)
1969/12/31/18:00:08.304000,(-4 -5 -3 -5 -4 -2 -4 -4)
1969/12/31/18:00:08.325000,(6 2 1 6 0 1 1 4)
1969/12/31/18:00:08.325000,(-5 -1 2 10 2 -1 -5 -4)
1969/12/31/18:00:08.326000,(1 -5 -7 -6 -3 -1 3 1)
1969/12/31/18:00:08.326000,(-1 2 -3 -7 -3 1 1 0)
1969/12/31/18:00:08.340000,(-4 -7 -6 -13 -3 -5 -6 -6)
1969/12/31/18:00:08.340000,(1 1 2 -13 -13 -1 -1 -2)
1969/12/31/18:00:08.347000,(-5 -7 -3 12 16 4 2 -1)
1969/12/31/18:00:08.347000,(-1 0 2 1 -1 -4 -4 -4)
1969/12/31/18:00:08.362000,(0 2 0 -6 -3 -1 0 3)
1969/12/31/18:00:08.362000,(-1 4 2 6 -3 1 1 -1)
1969/12/31/18:00:08.368000,(-3 -7 -5 -10 -9 -6 -6 -4)
1969/12/31/18:00:08.368000,(-20 -9 -4 -9 0 2 0 -4)
1969/12/31/18:00:08.385000,(7 -3 -1 -2 1 -1 -1 -3)
1969/12/31/18:00:08.385000,(12 12 -2 1 -4 -4 2 8)
1969/12/31/18:00:08.386000,(6 1 -1 -4 -2 1 3 7)
1969/12/31/18:00:08.386000,(-4 0 5 4 10 5 6 0)
1969/12/31/18:00:08.398000,(-12 -2 1 -1 -4 -5 -7 -9)
1969/12/31/18:00:08.398000,(-3 -10 -4 -1 2 1 -1 1)
1969/12/31/18:00:08.407000,(28 24 4 -3 -9 1 3 10)
1969/12/31/18:00:08.407000,(-9 -8 -4 -10 11 1 -1 -7)
1969/12/31/18:00:08.422000,(0 0 -19 -62 -40 -12 -3 -4)
1969/12/31/18:00:08.422000,(-9 -3 10 30 3 1 -3 -8)
1969/12/31/18:00:08.428000,(-9 0 24 98 79 17 1 -4)
1969/12/31/18:00:08.428000,(3 2 2 1 13 2 0 1)
1969/12/31/18:00:08.445000,(4 4 2 6 1 4 6 8)
1969/12/31/18:00:08.445000,(1 -4 -18 -67 -32 -10 -4 0)
1969/12/31/18:00:08.446000,(-5 -6 -12 -50 -42 -10 -2 -3)
1969/12/31/18:00:08.446000,(11 6 11 48 14 4 3 6)
1969/12/31/18:00:08.458000,(-22 -6 7 6 13 1 -3 -8)
1969/12/31/18:00:08.458000,(23 6 -1 0 -4 0 4 12)
1969/12/31/18:00:08.467000,(-33 -15 -8 -12 -8 -5 -4 -9)
1969/12/31/18:00:08.467000,(-18 -26 -8 -21 -14 -15 -24 -30)
1969/12/31/18:00:08.482000,(79 53 15 12 12 22 28 45)
1969/12/31/18:00:08.482000,(-55 -35 -9 11 2 -6 -16 -31)
1969/12/31/18:00:08.488000,(48 26 -1 -10 -3 -1 5 17)
1969/12/31/18:00:08.488000,(-27 -17 -10 -16 -12 1 5 -5)
1969/12/31/18:00:08.505000,(-5 -11 -1 12 7 1 -2 1)
1969/12/31/18:00:08.505000,(10 4 -38 -90 -51 -9 1 4)
1969/12/31/18:00:08.506000,(-19 -6 15 91 17 -1 -2 -8)
1969/12/31/18:00:08.506000,(13 17 21 41 17 9 5 9)
1969/12/31/18:00:08.518000,(-9 -5 18 55 35 6 -4 -9)
1969/12/31/18:00:08.518000,(-1 6 17 24 33 8 6 0)
1969/12/31/18:00:08.527000,(-15 -16 -21 -68 -35 -11 -5 -9)
1969/12/31/18:00:08.527000,(18 10 -14 -36 -16 -3 3 9)
1969/12/31/18:00:08.542000,(-6 -8 -11 -26 -11 -2 3 7)
1969/12/31/18:00:08.542000,(-30 7 11 6 0 -1 2 -10)
1969/12/31/18:00:08.548000,(35 12 2 -12 -7 -2 3 9)
1969/12/31/18:00:08.548000,(4 -4 -4 1 -2 -5 -14 -11)
1969/12/31/18:00:08.565000,(-49 -26 -9 -13 -7 -4 -6 -17)
1969/12/31/18:00:08.565000,(66 48 15 30 18 16 24 36)
1969/12/31/18:00:08.566000,(-16 -11 -1 -1 0 2 1 1)
1969/12/31/18:00:08.566000,(37 14 -7 -19 -12 -6 0 13)
1969/12/31/18:00:08.578000,(-11 -15 -20 -61 -30 -10 -9 -9)
1969/12/31/18:00:08.578000,(2 -5 4 41 7 0 1 3)
1969/12/31/18:00:08.587000,(-9 2 17 27 17 8 5 -4)
1969/12/31/18:00:08.587000,(-5 -3 -13 -30 -17 -8 -2 0)
1969/12/31/18:00:08.602000,(-2 5 16 63 23 -2 -3 -7)
1969/12/31/18:00:08.602000,(-13 -12 14 33 27 4 -8 -10)
1969/12/31/18:00:08.608000,(5 2 -9 -30 -1 4 1 1)
1969/12/31/18:00:08.608000,(-5 -3 0 1 -10 0 7 5)
1969/12/31/18:00:08.625000,(4 -1 -6 -16 -9 -4 -6 -3)
1969/12/31/18:00:08.625000,(2 -3 -7 -11 -5 -2 1 0)
1969/12/31/18:00:08.626000,(-2 -7 -10 -14 -10 -5 -3 0)
1969/12/31/18:00:08.626000,(-13 -1 -6 -17 -10 -3 -3 -7)
1969/12/31/18:00:08.647000,(-24 -28 0 13 1 -8 -7 -4)
1969/12/31/18:00:08.647000,(-3 -2 7 20 13 5 -9 -26)
1969/12/31/18:00:08.649000,(13 7 1 -4 -5 -5 -10 -4)
1969/12/31/18:00:08.649000,(-19 -9 -2 -3 -4 2 3 -6)
1969/12/31/18:00:08.662000,(19 6 -3 -1 -6 -1 5 11)
1969/12/31/18:00:08.662000,(-7 -9 2 3 4 -7 -9 -5)
1969/12/31/18:00:08.668000,(-9 -8 -16 -59 -27 -13 -7 -8)
1969/12/31/18:00:08.669000,(7 0 -6 -13 -14 -7 -1 2)
1969/12/31/18:00:08.685000,(-9 4 19 41 22 10 -2 -8)
1969/12/31/18:00:08.685000,(11 5 8 58 35 25 21 22)
1969/12/31/18:00:08.686000,(-4 -3 -23 -81 -41 -17 -11 -8)
1969/12/31/18:00:08.686000,(3 5 10 63 -29 -11 0 6)
1969/12/31/18:00:08.707000,(-4 6 14 47 49 7 -4 -11)
1969/12/31/18:00:08.707000,(7 1 1 -4 38 23 12 12)
1969/12/31/18:00:08.709000,(-9 -5 -3 -4 2 7 2 -1)
1969/12/31/18:00:08.709000,(-1 -1 -7 -22 0 -3 -3 -2)
1969/12/31/18:00:08.722000,(5 5 2 -5 -26 -14 -5 -2)
1969/12/31/18:00:08.722000,(-6 -9 -2 -12 -27 -17 -10 -6)
1969/12/31/18:00:08.728000,(-3 0 -2 -6 2 2 6 6)
1969/12/31/18:00:08.728000,(-14 -11 -5 -15 -4 -6 -6 -4)
1969/12/31/18:00:08.745000,(31 21 3 16 8 10 9 6)
1969/12/31/18:00:08.745000,(-10 -8 -6 -22 -16 -10 -9 -6)
1969/12/31/18:00:08.746000,(-15 -10 -2 14 5 -3 -2 -9)
1969/12/31/18:00:08.746000,(29 22 19 40 28 18 14 19)
1969/12/31/18:00:08.775000,(-11 -11 -6 2 8 4 0 -4)
1969/12/31/18:00:08.775000,(-8 -2 -22 -85 -33 -10 -9 -3)
1969/12/31/18:00:08.776000,(2 -2 8 64 5 -3 0 0)
1969/12/31/18:00:08.776000,(-10 -9 11 42 34 13 9 2)
1969/12/31/18:00:08.781000,(25 26 12 -6 -1 5 8 16)
1969/12/31/18:00:08.781000,(-13 -15 -7 -10 -17 -11 -10 -16)
1969/12/31/18:00:08.790000,(-20 -13 -4 -14 -5 -4 -4 -9)
1969/12/31/18:00:08.790000,(0 -19 -14 -31 -3 1 1 1)
1969/12/31/18:00:08.805000,(30 33 -4 -9 -8 4 9 18)
1969/12/31/18:00:08.805000,(-24 -14 2 14 -1 -3 -4 -15)
1969/12/31/18:00:08.807000,(27 19 13 25 22 12 7 19)
1969/12/31/18:00:08.807000,(9 8 7 2 -2 -1 -3 2)
1969/12/31/18:00:08.827000,(-18 -18 -9 -28 -17 -10 -6 -11)
1969/12/31/18:00:08.827000,(14 7 0 4 -2 -4 1 8)
1969/12/31/18:00:08.829000,(-8 -5 3 28 16 13 5 -5)
1969/12/31/18:00:08.829000,(1 3 1 -3 4 6 2 0)
1969/12/31/18:00:08.841000,(-17 -21 -16 -35 -26 -8 -7 -9)
1969/12/31/18:00:08.841000,(17 17 4 30 13 -6 -5 5)
1969/12/31/18:00:08.850000,(2 7 16 26 17 12 12 7)
1969/12/31/18:00:08.850000,(-2 3 -4 -21 -10 -7 -8 -9)
1969/12/31/18:00:08.865000,(-8 -11 -17 -62 -23 -7 -5 -4)
1969/12/31/18:00:08.865000,(-7 -7 -1 35 -8 -4 3 1)
1969/12/31/18:00:08.866000,(3 4 10 31 0 -9 -7 -4)
1969/12/31/18:00:08.866000,(1 6 6 7 22 6 2 -1)
1969/12/31/18:00:08.887000,(-5 -2 5 16 29 13 2 -4)
1969/12/31/18:00:08.887000,(-2 -5 -11 -40 -19 2 2 1)
1969/12/31/18:00:08.889000,(7 8 5 12 -3 -1 1 6)
1969/12/31/18:00:08.889000,(-4 -4 2 10 3 -4 -4 -5)
1969/12/31/18:00:08.901000,(-11 -9 -2 16 -20 -10 -7 -10)
1969/12/31/18:00:08.901000,(5 -1 -7 -26 -10 0 4 7)
1969/12/31/18:00:08.910000,(-3 -2 0 9 14 1 0 -4)
1969/12/31/18:00:08.910000,(11 6 4 4 9 6 6 6)
1969/12/31/18:00:08.925000,(-3 1 -8 -22 -8 -9 -14 -10)
1969/12/31/18:00:08.925000,(-1 0 1 5 -1 0 2 -3)
1969/12/31/18:00:08.926000,(-5 -5 -4 -13 -14 -6 -7 -6)
1969/12/31/18:00:08.926000,(-3 -1 -4 -4 -3 -3 -3 0)
1969/12/31/18:00:08.947000,(-6 -8 -4 -17 -3 0 3 2)
1969/12/31/18:00:08.947000,(4 6 1 5 -4 -3 1 4)
1969/12/31/18:00:08.949000,(1 0 1 -3 1 2 1 3)
1969/12/31/18:00:08.949000,(-6 -2 -3 -2 1 -3 -2 -4)
1969/12/31/18:00:08.961000,(-3 -4 -3 7 -17 -3 0 -1)
1969/12/31/18:00:08.961000,(-3 -2 14 42 40 11 2 0)
1969/12/31/18:00:08.970000,(1 3 3 13 14 7 5 2)
1969/12/31/18:00:08.970000,(-11 -8 -3 -24 -11 -1 -2 -5)
1969/12/31/18:00:08.986000,(20 13 -2 -16 -9 1 5 7)
1969/12/31/18:00:08.986000,(4 -1 -3 -9 -17 -7 -2 1)
1969/12/31/18:00:08.987000,(-11 -8 -9 -54 -17 -9 -10 -11)
1969/12/31/18:00:08.987000,(-2 -11 -9 14 1 -3 -3 0)
1969/12/31/18:00:09.007000,(6 13 6 27 15 4 9 7)
1969/12/31/18:00:09.007000,(-41 -24 1 0 -1 -10 -18 -24)
1969/12/31/18:00:09.009000,(36 24 1 -26 -8 4 10 11)
1969/12/31/18:00:09.009000,(-18 -5 -8 -15 -12 -4 -5 -6)
1969/12/31/18:00:09.021000,(14 -8 -6 1 -3 -4 -4 4)
1969/12/31/18:00:09.021000,(2 0 1 13 12 5 3 4)
1969/12/31/18:00:09.030000,(-10 -2 -1 5 -2 -4 -3 -4)
1969/12/31/18:00:09.030000,(4 -6 6 1 1 2 6 8)
1969/12/31/18:00:09.045000,(1 12 6 15 10 -3 -5 -1)
1969/12/31/18:00:09.045000,(-6 10 8 -8 0 4 1 -4)
1969/12/31/18:00:09.046000,(-1 -22 -13 -7 -5 -3 -3 -2)
1969/12/31/18:00:09.046000,(-14 -13 -8 -15 -13 -6 -6 -12)
1969/12/31/18:00:09.068000,(6 13 11 17 6 3 5 10)
1969/12/31/18:00:09.068000,(-27 -30 -4 0 3 5 2 -3)
1969/12/31/18:00:09.070000,(74 51 11 5 3 6 14 33)
1969/12/31/18:00:09.070000,(11 18 -5 -3 3 2 -3 -9)
1969/12/31/18:00:09.081000,(-6 -11 -8 -25 -15 -5 -1 -1)
1969/12/31/18:00:09.081000,(-11 -6 -2 11 5 -3 -4 -9)
1969/12/31/18:00:09.090000,(4 9 5 13 9 2 -1 8)
1969/12/31/18:00:09.090000,(-18 -11 4 16 3 3 1 -8)
1969/12/31/18:00:09.105000,(-6 -6 0 3 8 6 5 0)
1969/12/31/18:00:09.105000,(10 11 -4 -9 -10 -9 -8 -7)
1969/12/31/18:00:09.106000,(-31 -22 -7 -23 -13 -3 -4 -12)
1969/12/31/18:00:09.106000,(8 -7 3 20 7 2 6 15)
1969/12/31/18:00:09.127000,(8 36 8 21 8 -2 -10 -13)
1969/12/31/18:00:09.127000,(4 -10 8 -2 0 3 4 7)
1969/12/31/18:00:09.129000,(-42 -46 -19 -23 -8 -6 -6 -16)
1969/12/31/18:00:09.129000,(55 49 9 5 -6 1 11 26)
1969/12/31/18:00:09.141000,(-4 -12 4 13 18 12 10 7)
1969/12/31/18:00:09.141000,(-25 -13 -3 9 3 -3 -5 -15)
1969/12/31/18:00:09.150000,(-27 -42 -6 -7 -9 -6 2 5)
1969/12/31/18:00:09.150000,(22 35 -8 -39 -15 -4 -6 -2)
1969/12/31/18:00:09.165000,(-9 -1 1 17 7 3 0 -5)
1969/12/31/18:00:09.165000,(22 2 -4 -21 -6 -4 -9 -1)
1969/12/31/18:00:09.166000,(-5 1 -3 15 3 6 11 5)
1969/12/31/18:00:09.166000,(-18 -8 -4 -38 -22 -14 -10 -10)
1969/12/31/18:00:09.187000,(-11 -20 1 41 13 3 4 3)
1969/12/31/18:00:09.187000,(33 41 8 18 19 9 10 19)
1969/12/31/18:00:09.189000,(-3 1 -9 -43 -23 -9 -7 -6)
1969/12/31/18:00:09.189000,(-16 -15 5 48 9 -6 -12 -18)
1969/12/31/18:00:09.201000,(-6 -8 6 0 6 2 1 -2)
1969/12/31/18:00:09.201000,(1 1 0 11 4 1 4 3)
1969/12/31/18:00:09.210000,(14 16 12 16 24 13 10 4)
1969/12/31/18:00:09.210000,(26 22 -3 -27 -13 -1 6 13)
1969/12/31/18:00:09.225000,(-54 -73 -18 -36 -26 -10 -15 -27)
1969/12/31/18:00:09.225000,(14 23 -7 -8 -5 0 6 17)
1969/12/31/18:00:09.226000,(17 28 7 8 4 1 -4 -4)
1969/12/31/18:00:09.226000,(15 13 5 13 -2 -4 -2 8)
1969/12/31/18:00:09.247000,(22 1 -1 13 11 7 13 20)
1969/12/31/18:00:09.247000,(-5 -14 -3 -33 -14 3 7 6)
1969/12/31/18:00:09.249000,(-28 -11 -17 -16 -12 -18 -27 -30)
1969/12/31/18:00:09.249000,(8 -4 10 42 24 24 27 23)
1969/12/31/18:00:09.261000,(15 28 20 29 15 0 -6 2)
1969/12/31/18:00:09.261000,(-9 -21 -11 -20 -17 -5 -3 -3)
1969/12/31/18:00:09.270000,(4 12 -1 -3 -5 -6 -7 0)
1969/12/31/18:00:09.270000,(-34 -18 3 22 15 5 -2 -15)
1969/12/31/18:00:09.285000,(9 5 -7 -50 -26 -12 -7 -5)
1969/12/31/18:00:09.285000,(-18 -1 0 -2 -8 -6 -4 -14)
1969/12/31/18:00:09.286000,(13 -11 12 46 29 9 8 10)
1969/12/31/18:00:09.286000,(5 19 2 -8 -3 -10 -14 -8)
1969/12/31/18:00:09.307000,(-11 -5 -14 -18 -8 -4 -11 -23)
1969/12/31/18:00:09.307000,(10 7 0 -15 -6 -1 1 5)
1969/12/31/18:00:09.309000,(-10 -31 -7 -26 -20 -2 5 7)
1969/12/31/18:00:09.309000,(-1 6 -22 -61 -14 -5 -7 -8)
1969/12/31/18:00:09.321000,(-3 -3 17 72 24 8 6 5)
1969/12/31/18:00:09.321000,(16 22 5 9 -2 -3 -2 4)
1969/12/31/18:00:09.330000,(-5 12 13 36 21 10 4 -6)
1969/12/31/18:00:09.330000,(-4 -17 -2 -5 4 2 2 3)
1969/12/31/18:00:09.344000,(7 9 -22 -68 -27 -9 -3 5)
1969/12/31/18:00:09.344000,(5 -2 3 -8 -5 5 9 8)
1969/12/31/18:00:09.351000,(-2 6 10 56 6 -4 -7 -3)
1969/12/31/18:00:09.351000,(-20 -14 8 10 9 6 1 -12)
1969/12/31/18:00:09.367000,(3 -2 -2 -15 -7 -2 0 3)
1969/12/31/18:00:09.367000,(-33 -27 -2 11 10 3 -3 -15)
1969/12/31/18:00:09.369000,(51 42 5 -18 -6 1 8 25)
1969/12/31/18:00:09.369000,(-3 -10 -7 -9 -12 -14 -15 -17)
1969/12/31/18:00:09.381000,(-1 -7 -6 5 4 1 1 5)
1969/12/31/18:00:09.381000,(-15 -13 4 10 6 1 -3 -5)
1969/12/31/18:00:09.390000,(14 16 -1 -14 -10 -2 2 4)
1969/12/31/18:00:09.390000,(-4 -8 7 9 7 9 6 7)
1969/12/31/18:00:09.404000,(-11 2 -2 -1 -4 -8 -8 -9)
1969/12/31/18:00:09.404000,(14 5 -5 8 6 1 0 3)
1969/12/31/18:00:09.411000,(-21 -11 -4 -22 -13 -8 -8 -16)
1969/12/31/18:00:09.411000,(19 6 -2 19 -1 1 6 16)
1969/12/31/18:00:09.427000,(-13 -5 10 18 16 11 10 0)
1969/12/31/18:00:09.427000,(8 13 2 -2 -2 -3 -4 4)
1969/12/31/18:00:09.429000,(14 -13 -2 9 5 4 4 4)
1969/12/31/18:00:09.429000,(8 15 -8 -23 -10 -8 -7 1)
1969/12/31/18:00:09.441000,(0 3 -1 -11 -6 0 -3 -6)
1969/12/31/18:00:09.441000,(-12 -13 -6 8 -4 -9 -10 -9)
1969/12/31/18:00:09.450000,(-5 11 -2 -21 -7 3 5 2)
1969/12/31/18:00:09.450000,(-14 -28 -3 9 7 -1 -5 -7)
1969/12/31/18:00:09.464000,(-4 -2 2 4 -2 -3 2 8)
1969/12/31/18:00:09.464000,(31 21 1 8 8 7 8 8)
1969/12/31/18:00:09.471000,(-27 -22 -7 -9 -3 0 -4 -15)
1969/12/31/18:00:09.471000,(-1 0 -1 -1 4 4 10 6)
1969/12/31/18:00:09.487000,(5 2 1 4 -2 -3 -4 0)
1969/12/31/18:00:09.487000,(-9 -9 -12 -11 -4 -1 3 5)
1969/12/31/18:00:09.489000,(-4 5 -2 -5 3 5 2 -4)
1969/12/31/18:00:09.489000,(-12 -13 -6 -8 -12 -9 -7 -11)
1969/12/31/18:00:09.501000,(15 12 9 13 16 11 8 7)
1969/12/31/18:00:09.501000,(-6 -6 -1 -3 -1 -3 -5 -6)
1969/12/31/18:00:09.510000,(-6 -14 -1 34 14 1 0 1)
1969/12/31/18:00:09.510000,(23 40 12 15 10 8 11 13)
1969/12/31/18:00:09.524000,(-56 -53 -7 -10 -9 -8 -10 -24)
1969/12/31/18:00:09.524000,(75 86 4 -6 -10 -5 -1 20)
1969/12/31/18:00:09.531000,(11 -3 1 -10 0 4 3 -6)
1969/12/31/18:00:09.531000,(12 11 1 -6 -4 -2 -1 8)
1969/12/31/18:00:09.547000,(-1 -11 -6 -1 -6 -1 1 0)
1969/12/31/18:00:09.547000,(-6 -4 6 -1 0 0 0 0)
1969/12/31/18:00:09.549000,(-18 -7 -4 3 -6 -8 -7 -8)
1969/12/31/18:00:09.549000,(16 7 -2 -3 1 3 11 20)
1969/12/31/18:00:09.561000,(10 8 6 -1 5 7 2 -3)
1969/12/31/18:00:09.561000,(-18 -23 -2 -1 -4 -6 -7 -5)
1969/12/31/18:00:09.570000,(-9 10 3 6 -1 -4 -5 -7)
1969/12/31/18:00:09.570000,(-45 -65 1 4 1 -4 -4 -6)
1969/12/31/18:00:09.584000,(76 77 0 -7 2 5 7 23)
1969/12/31/18:00:09.584000,(12 -1 0 1 2 7 13 12)
1969/12/31/18:00:09.591000,(-5 -8 -2 -14 -7 3 2 3)
1969/12/31/18:00:09.591000,(-24 -23 -6 12 6 -4 -6 -14)
1969/12/31/18:00:09.607000,(-7 5 7 3 3 0 2 3)
1969/12/31/18:00:09.607000,(5 -17 -8 -12 -8 0 2 3)
1969/12/31/18:00:09.609000,(-3 2 6 14 10 -2 0 1)
1969/12/31/18:00:09.609000,(12 8 -1 -9 -6 -1 1 5)
1969/12/31/18:00:09.621000,(-5 8 -8 -24 -12 -9 -7 -11)
1969/12/31/18:00:09.621000,(-11 -9 8 20 12 7 3 -1)
1969/12/31/18:00:09.637000,(6 2 -1 2 4 1 2 5)
1969/12/31/18:00:09.637000,(10 15 -3 -5 3 7 7 4)
1969/12/31/18:00:09.644000,(-14 -11 0 5 -4 -7 -7 -7)
1969/12/31/18:00:09.644000,(-26 -22 -5 -11 -9 -9 -15 -18)
1969/12/31/18:00:09.651000,(-3 0 6 -6 -5 -3 -5 -6)
1969/12/31/18:00:09.651000,(11 20 -3 6 7 7 6 1)
1969/12/31/18:00:09.667000,(10 -5 -6 -8 -12 -11 -10 -3)
1969/12/31/18:00:09.667000,(-26 -22 0 -5 0 -1 -3 -7)
1969/12/31/18:00:09.669000,(50 52 10 7 6 14 27 35)
1969/12/31/18:00:09.669000,(-34 -33 -12 -7 -9 -13 -21 -23)
1969/12/31/18:00:09.690000,(23 26 7 4 5 8 11 16)
1969/12/31/18:00:09.690000,(-8 -14 -8 2 0 -3 -8 -19)
1969/12/31/18:00:09.691000,(-15 -20 -5 5 0 -3 -5 -4)
1969/12/31/18:00:09.691000,(10 9 6 -8 -2 0 3 4)
1969/12/31/18:00:09.703000,(-22 -24 -10 -1 3 3 2 -8)
1969/12/31/18:00:09.703000,(18 22 9 -15 -13 -2 2 12)
1969/12/31/18:00:09.712000,(-21 -15 -4 18 9 -4 -12 -20)
1969/12/31/18:00:09.712000,(16 22 10 14 11 4 3 7)
1969/12/31/18:00:09.727000,(-21 -18 7 14 7 4 0 -6)
1969/12/31/18:00:09.727000,(-12 1 -1 -1 13 3 2 -12)
1969/12/31/18:00:09.729000,(3 -4 -7 -18 -21 -2 -2 3)
1969/12/31/18:00:09.729000,(-37 -33 0 -4 -3 -2 -1 -12)
1969/12/31/18:00:09.750000,(32 13 6 5 11 16 20 21)
1969/12/31/18:00:09.750000,(6 -14 2 5 2 2 4 10)
1969/12/31/18:00:09.751000,(29 61 6 0 -1 -7 -9 -6)
1969/12/31/18:00:09.751000,(-25 -23 -7 -3 1 2 -5 -19)
1969/12/31/18:00:09.763000,(-12 -11 -6 -3 -3 -3 -3 -4)
1969/12/31/18:00:09.763000,(5 7 2 8 4 3 4 3)
1969/12/31/18:00:09.772000,(-11 -25 -12 -11 -12 -15 -11 -1)
1969/12/31/18:00:09.772000,(-1 -1 -2 -1 -5 -8 -14 -14)
1969/12/31/18:00:09.787000,(0 9 -2 -6 -2 0 -1 -1)
1969/12/31/18:00:09.787000,(-5 -2 -1 6 0 0 -2 -4)
1969/12/31/18:00:09.789000,(-19 -23 -8 -2 -3 -4 -5 -4)
1969/12/31/18:00:09.789000,(20 23 6 -6 -1 -4 2 11)
1969/12/31/18:00:09.810000,(-45 -44 -12 1 7 8 4 -2)
1969/12/31/18:00:09.810000,(44 40 8 14 8 7 7 4)
1969/12/31/18:00:09.811000,(-7 -8 2 -5 -1 1 1 -4)
1969/12/31/18:00:09.811000,(11 8 1 -1 -4 -1 -2 2)
1969/12/31/18:00:09.823000,(-41 -55 -7 -2 -7 -9 -8 -14)
1969/12/31/18:00:09.823000,(43 79 16 9 7 12 24 29)
1969/12/31/18:00:09.832000,(0 -1 -4 -6 3 6 5 -1)
1969/12/31/18:00:09.832000,(-3 -10 -8 -23 -16 -6 -5 -4)
1969/12/31/18:00:09.847000,(28 26 5 9 -1 -4 1 11)
1969/12/31/18:00:09.847000,(-22 -27 -4 14 9 -2 -6 -3)
1969/12/31/18:00:09.849000,(-10 -19 2 10 13 11 11 3)
1969/12/31/18:00:09.849000,(6 11 -8 -8 -7 -7 -11 -9)
1969/12/31/18:00:09.870000,(-6 -3 -4 -6 -7 -3 -5 -5)
1969/12/31/18:00:09.870000,(-17 -14 -6 -6 0 -11 -11 -14)
1969/12/31/18:00:09.871000,(4 1 1 -5 -15 -5 0 4)
1969/12/31/18:00:09.871000,(0 -12 0 5 7 6 8 9)
1969/12/31/18:00:09.883000,(10 18 -2 -8 -12 -15 -12 -5)
1969/12/31/18:00:09.883000,(35 16 -4 -2 11 10 1 2)
1969/12/31/18:00:09.892000,(-14 -11 -6 -1 -2 -7 -13 -13)
1969/12/31/18:00:09.892000,(10 16 5 6 -1 3 6 9)
1969/12/31/18:00:09.907000,(-7 -4 -3 -2 0 -1 -4 -8)
1969/12/31/18:00:09.907000,(-26 -37 -9 -7 -11 -9 -8 -3)
1969/12/31/18:00:09.909000,(7 17 4 4 9 9 11 4)
1969/12/31/18:00:09.909000,(-8 -7 1 3 -3 -3 -3 -5)
1969/12/31/18:00:09.930000,(-19 -28 1 -1 -3 -5 -3 -2)
1969/12/31/18:00:09.930000,(20 27 0 -9 -8 -7 -10 -6)
1969/12/31/18:00:09.931000,(-40 -28 -7 -2 -7 -13 -17 -22)
1969/12/31/18:00:09.931000,(58 50 20 16 23 26 28 35)
1969/12/31/18:00:09.944000,(-1 -3 -1 -2 -5 -3 -2 -5)
1969/12/31/18:00:09.944000,(-15 -20 -5 -5 -5 -2 3 4)
1969/12/31/18:00:09.952000,(19 16 -3 0 2 -1 2 10)
1969/12/31/18:00:09.952000,(-17 -11 -8 -18 -15 -8 -11 -12)
1969/12/31/18:00:09.967000,(10 3 -8 8 3 -4 -3 6)
1969/12/31/18:00:09.967000,(-14 -3 9 16 10 5 0 -6)
1969/12/31/18:00:09.969000,(-12 -9 3 -1 -1 -7 -7 -14)
1969/12/31/18:00:09.969000,(-20 -26 -4 -3 -3 -2 -1 -6)
1969/12/31/18:00:09.990000,(19 18 4 -6 -4 4 2 6)
1969/12/31/18:00:09.990000,(-7 -11 -9 -14 -12 -8 -4 1)
1969/12/31/18:00:09.991000,(-10 -16 -11 -28 10 5 -1 -5)
1969/12/31/18:00:09.991000,(-20 -19 5 36 -15 -10 -9 -12)
1969/12/31/18:00:10.003000,(59 62 6 13 18 14 23 34)
1969/12/31/18:00:10.003000,(-28 -16 3 5 0 -8 -19 -32)
1969/12/31/18:00:10.012000,(-5 -6 -2 -3 -8 0 0 -1)
1969/12/31/18:00:10.012000,(14 2 -9 -3 12 -5 1 17)
1969/12/31/18:00:10.027000,(-31 -29 -15 -6 2 -2 -18 -30)
1969/12/31/18:00:10.027000,(-1 -4 -5 -18 -15 0 6 9)
1969/12/31/18:00:10.029000,(17 13 -1 -22 -6 1 4 11)
1969/12/31/18:00:10.029000,(-17 -11 -2 12 -6 -7 -9 -11)
1969/12/31/18:00:10.057000,(0 14 15 22 11 0 6 7)
1969/12/31/18:00:10.057000,(8 -1 -12 -57 -7 8 14 14)
1969/12/31/18:00:10.059000,(-6 -7 6 49 14 -2 -7 -6)
1969/12/31/18:00:10.059000,(-15 -4 8 35 10 -2 -4 -11)
1969/12/31/18:00:10.063000,(19 18 4 -3 -4 -1 0 7)
1969/12/31/18:00:10.063000,(-10 -9 -2 -12 -16 -2 -2 -10)
1969/12/31/18:00:10.072000,(1 0 -8 -24 -11 -5 0 1)
1969/12/31/18:00:10.072000,(-5 -20 -12 -26 8 6 4 2)
1969/12/31/18:00:10.087000,(14 39 14 12 -1 10 13 5)
1969/12/31/18:00:10.087000,(-11 -14 -1 10 1 -6 -8 -5)
1969/12/31/18:00:10.089000,(5 -3 2 6 -4 -1 2 6)
1969/12/31/18:00:10.089000,(-9 24 -1 -7 -7 -9 -9 -13)
1969/12/31/18:00:10.110000,(14 0 0 -17 2 -2 0 3)
1969/12/31/18:00:10.110000,(2 1 -1 14 4 1 -2 0)
1969/12/31/18:00:10.111000,(22 24 10 17 15 12 13 15)
1969/12/31/18:00:10.111000,(-8 -8 -3 -16 -15 -6 -5 -5)
1969/12/31/18:00:10.123000,(-12 -14 -9 -23 -14 0 2 3)
1969/12/31/18:00:10.123000,(10 14 2 0 -10 -1 5 6)
1969/12/31/18:00:10.132000,(-10 -19 -4 14 5 -6 -11 -8)
1969/12/31/18:00:10.132000,(1 2 1 6 18 6 2 -2)
1969/12/31/18:00:10.147000,(-8 -4 -2 0 -2 -2 3 5)
1969/12/31/18:00:10.147000,(-11 -25 3 17 13 0 -9 -20)
1969/12/31/18:00:10.149000,(-11 -4 -4 -18 -17 -6 -8 -10)
1969/12/31/18:00:10.149000,(7 -3 -2 -15 -9 3 9 9)
1969/12/31/18:00:10.170000,(13 23 -9 -2 2 -7 -4 -1)
1969/12/31/18:00:10.170000,(19 14 -4 4 -3 0 7 16)
1969/12/31/18:00:10.171000,(-14 -9 5 7 1 -4 -9 -8)
1969/12/31/18:00:10.171000,(17 29 2 -2 2 -1 -3 -1)
1969/12/31/18:00:10.183000,(-28 -21 2 -6 -12 -10 -14 -19)
1969/12/31/18:00:10.183000,(16 8 -4 -1 5 8 18 30)
1969/12/31/18:00:10.192000,(12 17 0 -4 -2 -2 -2 -3)
1969/12/31/18:00:10.193000,(-7 -17 -6 -6 2 3 -3 -2)
1969/12/31/18:00:10.207000,(-1 -7 -5 -16 9 0 -1 -2)
1969/12/31/18:00:10.207000,(-10 0 1 4 -22 -8 -6 -9)
1969/12/31/18:00:10.209000,(-10 -11 8 22 11 7 10 4)
1969/12/31/18:00:10.209000,(6 9 6 -4 -2 4 4 1)
1969/12/31/18:00:10.230000,(-4 -13 -2 6 0 -5 -4 0)
1969/12/31/18:00:10.230000,(-13 0 -2 5 11 0 -6 -14)
1969/12/31/18:00:10.231000,(-18 -29 -6 -6 1 5 6 5)
1969/12/31/18:00:10.231000,(29 15 2 -2 -1 5 7 12)
1969/12/31/18:00:10.243000,(0 1 -1 -6 -8 -1 -3 -3)
1969/12/31/18:00:10.243000,(0 0 1 0 0 -4 -3 4)
1969/12/31/18:00:10.252000,(-2 0 -3 -10 -13 -6 -1 -3)
1969/12/31/18:00:10.252000,(11 11 -3 -11 -11 -4 3 10)
1969/12/31/18:00:10.267000,(-21 -21 -2 18 13 -2 -6 -11)
1969/12/31/18:00:10.267000,(-2 -5 4 11 20 9 4 1)
1969/12/31/18:00:10.269000,(16 16 2 2 -8 0 1 6)
1969/12/31/18:00:10.269000,(-16 -19 -1 2 22 5 0 -5)
1969/12/31/18:00:10.290000,(1 2 -2 -1 -24 -6 -7 -5)
1969/12/31/18:00:10.290000,(3 5 4 -1 0 3 7 8)
1969/12/31/18:00:10.291000,(15 9 -14 -50 -11 -1 1 3)
1969/12/31/18:00:10.291000,(-14 -23 -5 23 -3 -9 -8 -6)
1969/12/31/18:00:10.303000,(22 29 18 36 21 9 10 10)
1969/12/31/18:00:10.303000,(-45 -45 -1 10 4 -6 -12 -25)
1969/12/31/18:00:10.312000,(47 56 14 8 8 8 8 17)
1969/12/31/18:00:10.312000,(-18 -12 -13 -23 -12 -2 -2 -10)
1969/12/31/18:00:10.327000,(14 -11 -7 -16 -4 2 8 14)
1969/12/31/18:00:10.327000,(13 10 4 5 -2 1 3 8)
1969/12/31/18:00:10.329000,(-3 -3 0 -5 -2 0 3 1)
1969/12/31/18:00:10.329000,(0 4 -1 2 -2 -5 -3 -3)
1969/12/31/18:00:10.350000,(-2 6 5 -5 -10 -1 -2 -4)
1969/12/31/18:00:10.350000,(1 6 -5 -6 -2 -2 0 1)
1969/12/31/18:00:10.351000,(-13 -19 -5 -2 -20 -5 -3 -4)
1969/12/31/18:00:10.351000,(11 14 3 9 6 1 2 3)
1969/12/31/18:00:10.363000,(-30 -37 -6 9 12 1 -9 -14)
1969/12/31/18:00:10.363000,(36 36 18 21 23 20 15 23)
1969/12/31/18:00:10.372000,(-1 0 1 11 10 1 -3 -6)
1969/12/31/18:00:10.372000,(0 -6 0 -10 -14 -2 1 1)
1969/12/31/18:00:10.387000,(-5 -6 -13 -36 -21 -9 -5 -5)
1969/12/31/18:00:10.387000,(-9 -10 -12 -3 -3 -11 -7 -7)
1969/12/31/18:00:10.393000,(-4 -5 2 22 2 0 0 -1)
1969/12/31/18:00:10.393000,(6 13 12 15 16 8 9 5)
1969/12/31/18:00:10.410000,(-1 -4 -4 -6 -3 -2 -3 -5)
1969/12/31/18:00:10.410000,(-19 -12 -9 -10 -3 -5 -11 -18)
1969/12/31/18:00:10.411000,(-10 -10 -2 -7 -3 -4 0 3)
1969/12/31/18:00:10.411000,(-25 -25 -11 -5 -5 -5 -9 -16)
1969/12/31/18:00:10.423000,(5 -5 1 2 5 5 4 5)
1969/12/31/18:00:10.423000,(5 1 0 -7 -8 -2 2 5)
1969/12/31/18:00:10.432000,(-3 1 1 4 9 -1 -6 -4)
1969/12/31/18:00:10.432000,(-8 -9 -4 -8 -19 -3 0 0)
1969/12/31/18:00:10.447000,(5 8 3 3 2 2 4 3)
1969/12/31/18:00:10.447000,(1 1 -2 -9 -6 -3 -3 -1)
1969/12/31/18:00:10.453000,(-5 -9 -4 2 3 -2 0 -2)
1969/12/31/18:00:10.453000,(14 13 -8 -45 -8 -1 0 6)
1969/12/31/18:00:10.470000,(-2 3 2 34 26 4 -2 -1)
1969/12/31/18:00:10.470000,(2 4 17 43 8 5 3 3)
1969/12/31/18:00:10.472000,(-8 -4 5 14 14 4 -3 -7)
1969/12/31/18:00:10.472000,(-5 -20 4 6 -1 2 1 0)
1969/12/31/18:00:10.483000,(52 73 5 -30 -10 15 35 39)
1969/12/31/18:00:10.483000,(-26 -29 -14 -22 -10 -12 -13 -13)
1969/12/31/18:00:10.492000,(31 34 7 1 0 1 1 5)
1969/12/31/18:00:10.492000,(10 5 0 1 1 3 4 6)
1969/12/31/18:00:10.507000,(-9 -16 -4 -4 -9 -6 -4 -3)
1969/12/31/18:00:10.507000,(0 0 -2 1 3 1 -2 -1)
1969/12/31/18:00:10.513000,(-6 -2 -4 -6 -7 -2 -1 -5)
1969/12/31/18:00:10.514000,(-5 -1 -3 5 -2 -8 -8 -5)
1969/12/31/18:00:10.530000,(14 2 4 4 1 -2 0 16)
1969/12/31/18:00:10.530000,(-5 10 1 -3 -2 0 -2 -12)
1969/12/31/18:00:10.531000,(-10 -19 -8 -9 -3 -1 -3 -3)
1969/12/31/18:00:10.531000,(-8 -1 1 11 6 -3 -7 -9)
1969/12/31/18:00:10.552000,(-18 -15 -1 -4 -6 -5 -4 -11)
1969/12/31/18:00:10.552000,(7 6 -4 -11 -5 -1 1 1)
1969/12/31/18:00:10.552000,(-17 -8 6 4 4 7 7 1)
1969/12/31/18:00:10.552000,(7 7 5 13 9 5 4 11)
1969/12/31/18:00:10.566000,(-36 -36 -7 -10 -13 -7 -14 -25)
1969/12/31/18:00:10.566000,(29 19 -5 0 8 7 12 16)
1969/12/31/18:00:10.574000,(2 7 -2 -3 -1 -4 -2 -3)
1969/12/31/18:00:10.574000,(-2 -1 3 5 3 2 4 1)
1969/12/31/18:00:10.589000,(-11 -11 -11 -29 -12 -6 -9 -11)
1969/12/31/18:00:10.589000,(7 1 -5 -24 -2 0 4 11)
1969/12/31/18:00:10.590000,(-7 -11 2 20 -24 -9 -6 -4)
1969/12/31/18:00:10.590000,(-2 6 13 54 54 5 -4 -9)
1969/12/31/18:00:10.612000,(10 10 11 22 5 7 2 4)
1969/12/31/18:00:10.612000,(-9 -8 1 3 4 -1 -3 -4)
1969/12/31/18:00:10.612000,(3 3 -9 -30 -8 0 0 2)
1969/12/31/18:00:10.612000,(1 0 -11 -41 -30 -9 -6 -5)
1969/12/31/18:00:10.626000,(-14 -12 -7 2 0 -6 -6 -11)
1969/12/31/18:00:10.626000,(14 4 0 5 -1 8 11 17)
1969/12/31/18:00:10.634000,(-5 -7 -1 3 4 0 -2 -6)
1969/12/31/18:00:10.634000,(2 6 2 1 -4 -2 -3 -2)
1969/12/31/18:00:10.649000,(2 1 0 9 11 -1 0 0)
1969/12/31/18:00:10.649000,(-7 -5 -6 -36 -25 -10 -7 -5)
1969/12/31/18:00:10.650000,(8 1 0 24 5 1 2 6)
1969/12/31/18:00:10.650000,(-3 -1 0 -1 16 2 -1 -3)
1969/12/31/18:00:10.672000,(3 4 6 -3 -11 2 0 1)
1969/12/31/18:00:10.672000,(-4 1 10 45 26 3 0 -1)
1969/12/31/18:00:10.672000,(-1 -2 2 -12 -1 0 -1 1)
1969/12/31/18:00:10.672000,(1 1 4 3 -4 2 2 0)
1969/12/31/18:00:10.686000,(6 2 -16 -8 -8 -5 -3 0)
1969/12/31/18:00:10.686000,(-6 -14 -24 -66 -30 -14 -7 -5)
1969/12/31/18:00:10.694000,(-5 -4 -3 -45 -13 -6 -4 -5)
1969/12/31/18:00:10.694000,(7 8 9 43 3 3 4 5)
1969/12/31/18:00:10.709000,(0 0 4 51 9 4 4 0)
1969/12/31/18:00:10.709000,(-13 -8 12 34 15 4 -2 -7)
1969/12/31/18:00:10.710000,(3 3 0 -11 17 10 6 3)
1969/12/31/18:00:10.710000,(4 2 3 -27 -16 2 3 5)
1969/12/31/18:00:10.732000,(4 4 -3 -27 -6 -3 -1 0)
1969/12/31/18:00:10.732000,(0 -2 -8 -5 -21 -5 -3 -2)
1969/12/31/18:00:10.732000,(4 6 22 41 26 6 6 6)
1969/12/31/18:00:10.732000,(3 0 -12 -15 -5 -5 -5 -2)
1969/12/31/18:00:10.746000,(-6 -13 -22 -11 -12 -14 -11 -6)
1969/12/31/18:00:10.746000,(-10 -9 1 -9 -5 -8 -7 -10)
1969/12/31/18:00:10.754000,(-1 1 2 1 0 1 3 0)
1969/12/31/18:00:10.754000,(8 6 -1 6 -7 3 5 5)
1969/12/31/18:00:10.777000,(-5 -4 10 4 12 2 0 -3)
1969/12/31/18:00:10.777000,(0 1 1 33 19 5 -1 -2)
1969/12/31/18:00:10.778000,(1 -1 2 -20 -8 0 2 2)
1969/12/31/18:00:10.778000,(-3 -1 2 14 0 -1 -1 1)
1969/12/31/18:00:10.792000,(2 0 -11 -23 -7 1 0 2)
1969/12/31/18:00:10.792000,(-3 -4 -2 -25 -22 -14 -8 -3)
1969/12/31/18:00:10.792000,(-5 -3 3 32 2 -5 -6 -6)
1969/12/31/18:00:10.792000,(1 0 0 10 11 6 4 1)
1969/12/31/18:00:10.806000,(0 6 29 8 22 15 10 2)
1969/12/31/18:00:10.806000,(6 11 0 11 7 11 5 3)
1969/12/31/18:00:10.814000,(7 -6 -18 -18 -10 -8 -2 5)
1969/12/31/18:00:10.814000,(-14 -9 3 -29 -38 -15 -10 -11)
1969/12/31/18:00:10.829000,(2 -5 -38 -33 -24 -13 -6 3)
1969/12/31/18:00:10.829000,(-8 -7 4 -5 18 0 0 -4)
1969/12/31/18:00:10.830000,(-9 -1 9 46 14 4 -2 -4)
1969/12/31/18:00:10.830000,(-1 -9 -16 7 15 5 1 0)
1969/12/31/18:00:10.852000,(-2 -3 0 -15 -7 -3 -2 -3)
1969/12/31/18:00:10.852000,(-1 6 6 -11 -26 -10 -4 -4)
1969/12/31/18:00:10.852000,(5 0 -19 14 19 1 3 5)
1969/12/31/18:00:10.852000,(-5 -3 18 22 16 6 1 -1)
1969/12/31/18:00:10.875000,(-1 3 15 9 9 6 -1 -4)
1969/12/31/18:00:10.875000,(5 0 -9 -11 -4 1 4 7)
1969/12/31/18:00:10.876000,(4 3 8 -31 -16 0 2 0)
1969/12/31/18:00:10.876000,(4 4 -11 -7 -8 -3 1 4)
1969/12/31/18:00:10.889000,(-1 1 6 0 1 1 -2 -2)
1969/12/31/18:00:10.889000,(4 8 24 24 5 2 2 3)
1969/12/31/18:00:10.890000,(-1 -5 -29 28 17 -3 -3 -2)
1969/12/31/18:00:10.890000,(-9 -19 -23 -44 -11 -6 -7 -5)
1969/12/31/18:00:10.912000,(-10 -3 6 -12 -16 -5 1 -5)
1969/12/31/18:00:10.912000,(3 4 3 5 0 2 3 0)
1969/12/31/18:00:10.913000,(2 3 -5 -46 -45 -12 -3 1)
1969/12/31/18:00:10.913000,(9 7 -1 26 18 3 3 4)
1969/12/31/18:00:10.927000,(-1 -1 14 26 37 13 1 -1)
1969/12/31/18:00:10.927000,(-2 -6 -7 -7 -14 -5 -3 -3)
1969/12/31/18:00:10.927000,(-8 -8 -3 -5 2 -4 -8 -6)
1969/12/31/18:00:10.927000,(4 8 3 -8 -8 0 4 5)
1969/12/31/18:00:10.949000,(-2 3 13 36 8 0 1 2)
1969/12/31/18:00:10.949000,(2 -1 -11 6 13 6 3 2)
1969/12/31/18:00:10.950000,(1 0 -2 -49 -33 -6 1 -1)
1969/12/31/18:00:10.950000,(4 4 -4 0 7 2 -2 -4)
1969/12/31/18:00:10.972000,(6 10 19 29 11 5 3 4)
1969/12/31/18:00:10.972000,(-5 -8 -2 1 4 -9 -8 -2)
1969/12/31/18:00:10.972000,(-7 -3 0 -10 -5 -1 -1 -3)
1969/12/31/18:00:10.972000,(1 5 3 -12 -8 -6 -2 -4)
1969/12/31/18:00:10.995000,(-2 -6 -15 -9 -6 -1 2 1)
1969/12/31/18:00:10.995000,(4 10 -4 -43 -13 3 4 3)
1969/12/31/18:00:10.995000,(5 -3 18 67 25 -1 -4 1)
1969/12/31/18:00:10.995000,(-12 -6 3 -1 2 -5 -4 -3)
1969/12/31/18:00:11.009000,(0 -6 -15 -25 -21 -5 -2 -1)
1969/12/31/18:00:11.009000,(-4 -3 6 7 5 0 -1 -1)
1969/12/31/18:00:11.010000,(1 1 -23 -43 -25 -6 0 -2)
1969/12/31/18:00:11.010000,(6 2 9 11 25 13 4 4)
1969/12/31/18:00:11.032000,(-1 5 27 61 35 14 5 1)
1969/12/31/18:00:11.032000,(3 -1 -16 -13 -1 4 -1 -2)
1969/12/31/18:00:11.032000,(-5 -1 25 24 19 2 0 -3)
1969/12/31/18:00:11.032000,(-4 -2 -15 -39 -38 -17 -10 -6)
1969/12/31/18:00:11.055000,(1 -2 -9 -13 -28 -8 -3 0)
1969/12/31/18:00:11.055000,(3 4 16 56 54 18 8 7)
1969/12/31/18:00:11.056000,(0 -3 -12 -18 0 4 2 0)
1969/12/31/18:00:11.056000,(1 -3 1 1 -3 0 4 3)
1969/12/31/18:00:11.070000,(-1 -2 -15 -32 -18 -9 -4 -3)
1969/12/31/18:00:11.070000,(-5 -3 -3 -9 -16 -7 -5 -6)
1969/12/31/18:00:11.084000,(-3 4 17 24 6 1 -5 -3)
1969/12/31/18:00:11.084000,(7 5 -1 10 25 14 7 7)
1969/12/31/18:00:11.092000,(-3 -4 -3 -5 1 -2 0 -4)
1969/12/31/18:00:11.092000,(0 -2 -7 -12 -14 -6 0 0)
1969/12/31/18:00:11.099000,(-1 -5 -5 -16 -11 -1 4 1)
1969/12/31/18:00:11.099000,(-11 -2 7 14 -11 -3 -7 -10)
1969/12/31/18:00:11.107000,(4 4 -3 -7 3 -2 3 6)
1969/12/31/18:00:11.107000,(-5 -6 2 11 6 2 -1 -3)
1969/12/31/18:00:11.107000,(5 7 0 -6 11 8 5 4)
1969/12/31/18:00:11.107000,(4 0 -6 -13 -15 0 3 3)
1969/12/31/18:00:11.129000,(0 3 8 -3 4 -4 -4 -3)
1969/12/31/18:00:11.129000,(0 -7 -9 20 -8 -1 1 0)
1969/12/31/18:00:11.130000,(-3 0 0 4 7 1 -1 -3)
1969/12/31/18:00:11.130000,(-2 1 3 9 3 -4 -2 -2)
1969/12/31/18:00:11.151000,(-2 -4 -17 -30 -15 -5 -3 -3)
1969/12/31/18:00:11.151000,(8 11 16 18 8 6 4 5)
1969/12/31/18:00:11.152000,(-6 -5 1 6 0 -7 -7 -4)
1969/12/31/18:00:11.152000,(2 2 3 -5 -3 0 4 2)
1969/12/31/18:00:11.166000,(-2 0 8 19 10 2 0 -1)
1969/12/31/18:00:11.166000,(0 1 -8 -8 6 2 -1 -1)
1969/12/31/18:00:11.167000,(2 0 -10 -7 -1 2 0 -1)
1969/12/31/18:00:11.167000,(-3 -5 4 -19 -9 -7 -4 -2)
1969/12/31/18:00:11.197000,(0 0 -9 17 -10 -5 -4 -3)
1969/12/31/18:00:11.197000,(4 2 4 -6 -2 3 3 3)
1969/12/31/18:00:11.198000,(-1 2 9 33 26 6 1 0)
1969/12/31/18:00:11.198000,(-1 -2 -11 -20 -6 -4 -1 0)
1969/12/31/18:00:11.211000,(-4 -4 -5 -10 -1 -1 -5 -3)
1969/12/31/18:00:11.211000,(2 0 -6 -3 -13 -4 4 3)
1969/12/31/18:00:11.212000,(0 -3 -8 -18 -8 -4 -4 -1)
1969/12/31/18:00:11.212000,(3 3 6 13 11 5 2 0)
1969/12/31/18:00:11.226000,(-2 1 12 11 10 7 1 0)
1969/12/31/18:00:11.226000,(-5 -1 0 -4 -3 -5 -5 -4)
1969/12/31/18:00:11.235000,(-4 -2 -3 -8 -12 -4 -5 -2)
1969/12/31/18:00:11.235000,(3 2 -5 5 -6 0 2 3)
1969/12/31/18:00:11.249000,(4 0 -3 0 16 2 -1 1)
1969/12/31/18:00:11.249000,(-1 -2 -3 -15 -11 -5 -3 -2)
1969/12/31/18:00:11.250000,(1 0 4 6 1 3 5 3)
1969/12/31/18:00:11.250000,(-4 -2 2 9 2 -1 -2 -2)
1969/12/31/18:00:11.272000,(0 0 -9 -24 -20 -5 -1 0)
1969/12/31/18:00:11.272000,(-1 -2 -5 -6 1 -7 -5 0)
1969/12/31/18:00:11.272000,(2 3 11 16 15 8 3 1)
1969/12/31/18:00:11.272000,(-4 0 3 11 7 2 1 0)
1969/12/31/18:00:11.286000,(1 -1 1 3 -2 0 -1 -1)
1969/12/31/18:00:11.286000,(-1 -3 -5 -7 -5 -2 -3 -2)
1969/12/31/18:00:11.294000,(2 1 -4 -7 -8 -2 1 2)
1969/12/31/18:00:11.294000,(-1 -1 -1 -4 -1 -1 -2 -1)
1969/12/31/18:00:11.309000,(-1 0 -1 -3 -3 -1 -1 0)
1969/12/31/18:00:11.309000,(-6 -2 1 1 0 -2 -5 -5)
1969/12/31/18:00:11.317000,(2 0 -2 -2 -1 0 1 1)
1969/12/31/18:00:11.317000,(3 -1 -1 -2 -3 0 0 2)
1969/12/31/18:00:11.332000,(-1 -2 0 1 2 0 -3 -1)
1969/12/31/18:00:11.332000,(0 1 3 2 0 1 4 2)
1969/12/31/18:00:11.332000,(-1 -1 0 -2 -3 -1 -1 -2)
1969/12/31/18:00:11.332000,(-1 -1 -3 -4 -1 -2 -2 0)
1969/12/31/18:00:11.346000,(-1 -2 1 0 -2 -1 1 1)
1969/12/31/18:00:11.346000,(0 1 1 0 4 0 -1 0)
1969/12/31/18:00:11.354000,(-2 0 -3 -2 -1 -2 -2 -4)
1969/12/31/18:00:11.354000,(-2 -2 0 2 1 -1 -1 -2)
1969/12/31/18:00:11.369000,(-1 0 -1 -4 -2 -1 3 2)
1969/12/31/18:00:11.369000,(0 0 0 3 -1 -1 -1 -1)
1969/12/31/18:00:11.377000,(-1 -2 -1 -3 -2 -3 -1 1)
1969/12/31/18:00:11.377000,(-1 -2 0 1 0 -1 -3 -3)
1969/12/31/18:00:11.392000,(3 2 -1 -2 -2 0 3 3)
1969/12/31/18:00:11.392000,(-1 -2 -1 0 1 1 -2 -1)
1969/12/31/18:00:11.392000,(0 1 -3 -1 -4 -2 0 2)
1969/12/31/18:00:11.392000,(1 -1 -2 -3 1 -1 0 0)
1969/12/31/18:00:11.406000,(0 -1 0 1 -2 0 0 2)
1969/12/31/18:00:11.406000,(1 -1 0 2 2 0 2 -3)
1969/12/31/18:00:11.414000,(0 0 -1 -3 -1 -2 -2 -1)
1969/12/31/18:00:11.414000,(-1 0 -4 0 1 0 2 0)
1969/12/31/18:00:11.429000,(-1 -1 0 0 0 -3 -2 -2)
1969/12/31/18:00:11.429000,(-1 1 2 0 -2 -1 -1 -2)
1969/12/31/18:00:11.436000,(1 -3 -1 -1 -1 1 -1 -2)
1969/12/31/18:00:11.437000,(0 0 -1 0 -2 -2 -2 -4)
1969/12/31/18:00:11.452000,(-3 -2 -1 0 0 1 0 -1)
1969/12/31/18:00:11.452000,(0 0 1 2 -1 0 0 -1)
1969/12/31/18:00:11.459000,(-1 -2 -1 -2 -4 -2 -3 -3)
1969/12/31/18:00:11.459000,(2 -1 0 -1 -3 1 0 1)
1969/12/31/18:00:11.466000,(-1 1 -1 0 0 -1 -1 -3)
1969/12/31/18:00:11.466000,(-2 -1 -1 -1 0 -1 -1 0)
1969/12/31/18:00:11.474000,(1 1 -1 -3 -2 -1 4 3)
1969/12/31/18:00:11.474000,(-3 0 0 -1 -2 -1 -2 -2)
1969/12/31/18:00:11.489000,(1 -1 -1 -1 0 0 -1 1)
1969/12/31/18:00:11.489000,(-1 -1 -2 -2 -4 -2 0 -1)
1969/12/31/18:00:11.490000,(0 -2 0 0 1 0 1 -1)
1969/12/31/18:00:11.490000,(1 3 3 0 0 1 0 -1)
1969/12/31/18:00:11.512000,(0 -1 -5 -1 -1 1 0 1)
1969/12/31/18:00:11.512000,(1 0 4 3 1 0 -2 1)
1969/12/31/18:00:11.519000,(-5 -2 1 -1 3 -1 -3 -2)
1969/12/31/18:00:11.519000,(-2 0 -3 -1 0 0 3 1)
1969/12/31/18:00:11.535000,(0 1 1 1 1 0 -2 -2)
1969/12/31/18:00:11.535000,(0 -1 -2 -2 -2 -2 -1 -2)
1969/12/31/18:00:11.542000,(0 2 -1 0 0 2 1 1)
1969/12/31/18:00:11.542000,(-1 -2 -1 0 2 -1 -2 -1)
1969/12/31/18:00:11.551000,(0 0 -2 -2 -1 -1 1 2)
1969/12/31/18:00:11.551000,(0 -3 -2 -1 -1 -2 1 2)
1969/12/31/18:00:11.551000,(0 1 -1 -1 -2 0 -1 1)
1969/12/31/18:00:11.551000,(-1 -2 -1 1 0 -1 -1 -2)
1969/12/31/18:00:11.572000,(-1 -1 -1 0 1 0 -1 0)
1969/12/31/18:00:11.572000,(-2 -1 -3 -3 -2 -1 -2 -3)
1969/12/31/18:00:11.579000,(0 0 -1 -2 -3 -1 -1 -1)
1969/12/31/18:00:11.579000,(2 0 1 2 0 -1 -1 1)
1969/12/31/18:00:11.595000,(-1 0 1 -1 1 -1 -1 -2)
1969/12/31/18:00:11.595000,(0 1 0 0 2 2 1 1)
1969/12/31/18:00:11.610000,(-1 0 -1 -1 -2 1 0 0)
1969/12/31/18:00:11.610000,(0 1 -3 -2 -4 0 -1 -1)
1969/12/31/18:00:11.612000,(0 1 2 3 2 -1 -2 0)
1969/12/31/18:00:11.612000,(-1 -1 -3 -2 -3 0 1 -2)
1969/12/31/18:00:11.613000,(1 2 -2 0 -1 0 1 0)
1969/12/31/18:00:11.613000,(5 3 1 3 3 1 0 2)
1969/12/31/18:00:11.632000,(-2 -5 -2 -2 0 1 0 0)
1969/12/31/18:00:11.632000,(-5 -2 3 -2 -1 0 -2 -5)
1969/12/31/18:00:11.633000,(2 0 -1 -1 -2 -3 1 2)
1969/12/31/18:00:11.633000,(-2 -1 -3 -3 -3 -3 -1 -2)
1969/12/31/18:00:11.655000,(4 1 0 0 3 3 1 0)
1969/12/31/18:00:11.655000,(1 2 -1 4 0 -3 0 2)
1969/12/31/18:00:11.655000,(-1 -4 -2 2 2 2 2 -1)
1969/12/31/18:00:11.655000,(-2 -1 1 1 0 2 -1 0)
1969/12/31/18:00:11.669000,(-4 -1 1 0 -1 -1 -2 -2)
1969/12/31/18:00:11.669000,(-2 -2 -1 0 -1 1 2 -1)
1969/12/31/18:00:11.670000,(1 -1 -1 -1 -1 -3 -2 -2)
1969/12/31/18:00:11.670000,(0 -2 -4 -4 -3 -1 -1 1)
1969/12/31/18:00:11.692000,(-1 1 1 2 -1 -1 -2 -3)
1969/12/31/18:00:11.692000,(0 0 -1 -1 1 0 0 0)
1969/12/31/18:00:11.693000,(-1 1 0 0 0 -1 -4 -1)
1969/12/31/18:00:11.693000,(0 -2 -1 -2 -3 -1 1 0)
1969/12/31/18:00:11.715000,(1 0 2 -1 0 -2 0 1)
1969/12/31/18:00:11.715000,(0 -1 -4 -2 -1 -1 -4 -2)
1969/12/31/18:00:11.716000,(1 2 0 -1 0 0 -1 1)
1969/12/31/18:00:11.716000,(-4 -3 2 0 0 -2 -2 -1)
1969/12/31/18:00:11.730000,(-3 -4 -1 -1 -2 -1 -1 -3)
1969/12/31/18:00:11.730000,(1 -2 -3 -1 -3 0 0 0)
1969/12/31/18:00:11.737000,(-1 -3 0 1 1 0 -1 -1)
1969/12/31/18:00:11.737000,(2 2 -1 0 1 1 2 2)
1969/12/31/18:00:11.752000,(-1 -1 -1 2 1 -2 -2 -1)
1969/12/31/18:00:11.752000,(1 2 6 1 0 0 1 0)
1969/12/31/18:00:11.753000,(0 1 -2 -2 -2 0 0 0)
1969/12/31/18:00:11.753000,(-1 1 -2 -2 -2 -2 0 -1)
1969/12/31/18:00:11.753000,(-2 -2 -1 1 1 -1 -1 0)
1969/12/31/18:00:11.753000,(2 0 0 0 -2 -2 0 -1)
1969/12/31/18:00:11.759000,(-1 -1 -1 -1 0 1 -1 -1)
1969/12/31/18:00:11.759000,(-2 -2 -1 0 0 -3 -3 -4)
1969/12/31/18:00:11.768000,(0 1 1 2 3 3 2 1)
1969/12/31/18:00:11.768000,(0 0 0 0 -1 -2 0 0)
1969/12/31/18:00:11.783000,(0 -1 -1 0 0 1 -1 0)
1969/12/31/18:00:11.783000,(-1 -1 0 -1 0 -1 0 -1)
1969/12/31/18:00:11.784000,(-2 1 -2 -1 -1 1 0 -3)
1969/12/31/18:00:11.784000,(1 0 -2 -2 -4 0 2 1)
1969/12/31/18:00:11.805000,(1 -1 -2 -1 -2 -2 1 0)
1969/12/31/18:00:11.805000,(-2 -1 0 0 -1 -1 -1 1)
1969/12/31/18:00:11.813000,(1 -1 0 -1 -1 -1 -2 1)
1969/12/31/18:00:11.813000,(0 1 -1 0 -1 -1 -2 0)
1969/12/31/18:00:11.819000,(-1 2 -1 -1 -2 -1 -3 -3)
1969/12/31/18:00:11.819000,(3 2 0 0 1 1 0 -1)
1969/12/31/18:00:11.834000,(-1 -2 -2 -1 0 0 1 -1)
1969/12/31/18:00:11.834000,(1 -2 -1 -1 1 1 -2 -1)
1969/12/31/18:00:11.843000,(-1 -1 0 0 -1 -2 -2 -1)
1969/12/31/18:00:11.843000,(0 -2 -3 -4 -4 -2 -2 -1)
1969/12/31/18:00:11.844000,(2 2 2 1 0 0 2 1)
1969/12/31/18:00:11.844000,(-2 1 -3 -1 -1 -1 -2 -4)
1969/12/31/18:00:11.865000,(1 0 0 -2 -1 2 3 2)
1969/12/31/18:00:11.865000,(-2 -3 -3 0 1 -4 -3 -2)
1969/12/31/18:00:11.867000,(-2 -4 2 -3 -2 0 -3 -1)
1969/12/31/18:00:11.867000,(-2 1 0 -2 0 -2 -3 0)
1969/12/31/18:00:11.880000,(-1 -1 -1 2 1 -3 1 1)
1969/12/31/18:00:11.880000,(2 3 0 0 -1 0 2 1)
1969/12/31/18:00:11.886000,(4 3 -3 -1 -4 0 2 2)
1969/12/31/18:00:11.886000,(4 0 -1 5 6 3 3 3)
1969/12/31/18:00:11.903000,(-9 -9 -2 -3 -1 -6 -7 -6)
1969/12/31/18:00:11.903000,(-5 -1 7 -1 -2 4 4 -1)
1969/12/31/18:00:11.904000,(-7 -3 0 -10 -3 -3 -2 -4)
1969/12/31/18:00:11.904000,(2 0 -14 -9 -8 -4 0 3)
1969/12/31/18:00:11.925000,(10 11 1 -25 -22 -2 6 4)
1969/12/31/18:00:11.925000,(10 5 0 43 38 7 0 8)
1969/12/31/18:00:11.927000,(-17 -12 16 12 12 5 -6 -10)
1969/12/31/18:00:11.927000,(-3 2 1 2 -2 -4 -2 -3)
1969/12/31/18:00:11.939000,(-2 -4 -9 -38 -29 -7 -1 -1)
1969/12/31/18:00:11.939000,(8 6 -10 -7 -15 -13 -4 3)
1969/12/31/18:00:11.948000,(-3 -7 12 33 17 6 4 -1)
1969/12/31/18:00:11.948000,(-1 7 13 -14 -10 -3 -3 -1)
1969/12/31/18:00:11.963000,(10 9 -6 0 25 3 0 5)
1969/12/31/18:00:11.963000,(-2 -7 -4 -21 -10 7 6 0)
1969/12/31/18:00:11.964000,(7 9 8 -15 -12 -6 2 3)
1969/12/31/18:00:11.964000,(-9 -8 -7 36 3 2 -6 -6)
1969/12/31/18:00:11.985000,(-5 3 26 34 40 10 7 1)
1969/12/31/18:00:11.985000,(2 3 -17 -37 -71 -19 -3 -1)
1969/12/31/18:00:11.987000,(8 8 -7 -61 37 3 0 5)
1969/12/31/18:00:11.987000,(-2 -4 8 69 7 6 1 0)
1969/12/31/18:00:11.999000,(-1 -6 2 45 16 1 -3 -2)
1969/12/31/18:00:11.999000,(-15 -9 21 33 12 6 0 -8)
1969/12/31/18:00:12.015000,(9 -1 -20 -24 -35 0 7 6)
1969/12/31/18:00:12.015000,(-7 -3 -9 -109 -70 -22 -8 -7)
1969/12/31/18:00:12.024000,(0 -3 -2 97 106 22 1 1)
1969/12/31/18:00:12.024000,(-1 0 2 -31 -25 -5 0 -2)
1969/12/31/18:00:12.025000,(5 8 -15 -21 -24 -4 1 3)
1969/12/31/18:00:12.025000,(-5 -15 -23 -64 -8 -5 -5 -4)
1969/12/31/18:00:12.045000,(5 7 25 5 -38 3 8 6)
1969/12/31/18:00:12.045000,(0 5 31 92 29 0 -2 -1)
1969/12/31/18:00:12.047000,(3 3 6 23 59 15 -1 1)
1969/12/31/18:00:12.047000,(-7 -14 -29 -43 -20 -25 -12 -8)
1969/12/31/18:00:12.059000,(-3 -9 -41 -126 -106 -19 -6 -4)
1969/12/31/18:00:12.059000,(1 5 17 64 107 25 4 4)
1969/12/31/18:00:12.068000,(-2 0 -11 30 -63 -18 -1 -3)
1969/12/31/18:00:12.068000,(7 1 2 6 32 10 -1 4)
1969/12/31/18:00:12.083000,(-9 1 40 78 39 7 1 -3)
1969/12/31/18:00:12.083000,(-7 -8 -25 -47 -40 -4 -3 -6)
1969/12/31/18:00:12.084000,(-1 -9 -19 -52 -23 -9 -5 -1)
1969/12/31/18:00:12.084000,(0 0 13 3 3 -2 4 2)
1969/12/31/18:00:12.106000,(7 5 -24 -39 -51 -9 0 3)
1969/12/31/18:00:12.106000,(-9 -9 -7 -55 20 -8 -10 -6)
1969/12/31/18:00:12.107000,(-6 1 23 75 44 15 3 -3)
1969/12/31/18:00:12.107000,(8 13 35 95 56 20 9 7)
1969/12/31/18:00:12.119000,(-8 -12 -10 -45 -25 -8 -7 -7)
1969/12/31/18:00:12.119000,(3 -1 -10 0 -18 -4 4 2)
1969/12/31/18:00:12.128000,(0 -5 -23 -66 -34 -13 -7 0)
1969/12/31/18:00:12.128000,(3 4 5 10 -16 0 5 0)
1969/12/31/18:00:12.142000,(-2 -3 2 43 29 1 -1 -3)
1969/12/31/18:00:12.142000,(1 -3 -25 -85 -12 0 -1 0)
1969/12/31/18:00:12.149000,(-2 -3 -1 -29 -6 -7 -4 -1)
1969/12/31/18:00:12.149000,(1 6 37 127 53 20 6 3)
1969/12/31/18:00:12.166000,(-4 -5 -7 -18 13 0 -2 -2)
1969/12/31/18:00:12.166000,(2 -2 -19 -80 -34 -11 -2 1)
1969/12/31/18:00:12.168000,(2 5 24 65 -2 5 3 1)
1969/12/31/18:00:12.168000,(-2 -1 -6 -10 16 6 2 0)
1969/12/31/18:00:12.179000,(0 0 -13 -44 -11 -6 -3 -2)
1969/12/31/18:00:12.179000,(-1 1 9 36 4 2 1 0)
1969/12/31/18:00:12.188000,(-1 -1 -1 0 28 3 1 1)
1969/12/31/18:00:12.188000,(-3 -1 -3 -11 -15 -3 -2 -3)
1969/12/31/18:00:12.202000,(2 1 -3 -1 -2 0 1 1)
1969/12/31/18:00:12.202000,(1 1 2 13 -7 -2 1 0)
1969/12/31/18:00:12.209000,(-1 0 2 2 -6 -2 1 -1)
1969/12/31/18:00:12.209000,(2 -2 -14 -43 -10 -4 -1 0)
1969/12/31/18:00:12.225000,(1 1 2 3 -4 -1 -2 0)
1969/12/31/18:00:12.225000,(-2 -1 9 33 14 4 -2 -1)
1969/12/31/18:00:12.227000,(2 2 2 4 3 0 2 1)
1969/12/31/18:00:12.227000,(0 -2 -8 -21 -10 -3 0 1)
1969/12/31/18:00:12.239000,(-2 -1 3 6 1 0 -3 -1)
1969/12/31/18:00:12.239000,(-1 1 2 1 -9 -2 -2 0)
1969/12/31/18:00:12.248000,(-3 -4 -4 2 -2 0 -3 -3)
1969/12/31/18:00:12.248000,(1 -1 -3 -20 -6 -2 0 1)
1969/12/31/18:00:12.262000,(-2 -1 -2 -6 -5 -2 -1 -1)
1969/12/31/18:00:12.262000,(5 2 2 17 4 1 2 4)
1969/12/31/18:00:12.269000,(-2 -2 -5 -25 -7 -3 -1 -1)
1969/12/31/18:00:12.269000,(-5 0 7 29 0 1 -1 -3)
1969/12/31/18:00:12.285000,(0 -1 -6 -8 7 -2 -2 -3)
1969/12/31/18:00:12.285000,(5 6 7 17 -4 3 3 3)
1969/12/31/18:00:12.287000,(-3 -2 2 2 18 5 2 0)
1969/12/31/18:00:12.287000,(1 1 -4 -20 -15 -2 0 0)
1969/12/31/18:00:12.299000,(-3 -3 0 0 0 -2 -1 -2)
1969/12/31/18:00:12.299000,(-1 -2 -5 -16 -9 -4 -3 0)
1969/12/31/18:00:12.308000,(1 0 -2 7 -5 -1 0 1)
1969/12/31/18:00:12.308000,(4 5 -2 -6 6 0 0 2)
1969/12/31/18:00:12.322000,(5 5 4 0 0 3 6 4)
1969/12/31/18:00:12.322000,(-6 -6 -5 -10 -1 -2 -8 -8)
1969/12/31/18:00:12.329000,(-8 -5 0 12 -4 -2 -5 -7)
1969/12/31/18:00:12.329000,(-3 -1 -2 -15 2 0 0 0)
1969/12/31/18:00:12.345000,(5 1 -3 1 -13 -2 1 4)
1969/12/31/18:00:12.346000,(1 2 0 0 9 2 2 3)
1969/12/31/18:00:12.347000,(1 0 -1 9 6 0 0 -2)
1969/12/31/18:00:12.347000,(-8 -5 -2 -8 2 -1 -3 -7)
1969/12/31/18:00:12.359000,(-2 2 3 -3 -6 -2 0 1)
1969/12/31/18:00:12.359000,(-6 -2 5 19 9 0 -3 -5)
1969/12/31/18:00:12.368000,(2 0 -6 -12 -13 -3 -6 -6)
1969/12/31/18:00:12.368000,(10 8 -1 -1 8 2 3 5)
1969/12/31/18:00:12.382000,(-7 -5 4 12 5 3 3 -1)
1969/12/31/18:00:12.382000,(1 -1 -7 -10 -10 -4 -1 1)
1969/12/31/18:00:12.389000,(-6 -3 0 3 3 1 -1 -2)
1969/12/31/18:00:12.389000,(-13 -9 -1 -6 -7 -2 -2 -3)
1969/12/31/18:00:12.405000,(14 10 -1 -4 3 -1 2 4)
1969/12/31/18:00:12.405000,(-7 -5 0 7 5 0 0 -2)
1969/12/31/18:00:12.407000,(8 1 -18 -68 -26 -9 1 4)
1969/12/31/18:00:12.407000,(-1 1 2 16 -15 -1 -2 -1)
1969/12/31/18:00:12.419000,(-7 -4 14 74 29 2 -2 -4)
1969/12/31/18:00:12.419000,(4 0 -14 -78 -2 -1 3 2)
1969/12/31/18:00:12.428000,(-4 5 41 127 48 11 0 0)
1969/12/31/18:00:12.428000,(-8 -7 -1 -4 12 2 -2 -1)
1969/12/31/18:00:12.442000,(-20 -10 -4 -19 -10 -4 -5 -5)
1969/12/31/18:00:12.442000,(5 -8 -7 -9 -19 -8 -4 -1)
1969/12/31/18:00:12.449000,(25 25 -11 -57 -22 0 -1 -10)
1969/12/31/18:00:12.449000,(-17 -21 -10 -15 -8 -7 -10 -13)
1969/12/31/18:00:12.465000,(-21 -6 -4 0 -4 0 -3 -10)
1969/12/31/18:00:12.465000,(13 11 7 3 5 3 2 6)
1969/12/31/18:00:12.467000,(-31 -22 -6 -6 -9 -10 -9 -6)
1969/12/31/18:00:12.467000,(65 41 7 11 9 13 23 37)
1969/12/31/18:00:12.479000,(-9 -13 -19 -36 -7 -8 -8 -6)
1969/12/31/18:00:12.479000,(-9 -5 2 2 -5 2 5 -1)
1969/12/31/18:00:12.488000,(-4 1 9 33 18 3 2 2)
1969/12/31/18:00:12.488000,(-10 1 7 2 7 0 -2 -8)
1969/12/31/18:00:12.503000,(2 -7 -23 -89 -32 -9 -2 3)
1969/12/31/18:00:12.503000,(4 6 3 38 -27 -4 1 1)
1969/12/31/18:00:12.510000,(1 3 28 97 59 8 -1 -3)
1969/12/31/18:00:12.510000,(-30 -20 2 4 22 2 -4 -7)
1969/12/31/18:00:12.525000,(18 9 4 -2 3 5 1 6)
1969/12/31/18:00:12.525000,(17 3 -8 -34 -11 3 8 17)
1969/12/31/18:00:12.527000,(-2 -3 -11 -43 -28 -5 1 2)
1969/12/31/18:00:12.527000,(10 2 -6 -8 -18 -11 -12 -4)
1969/12/31/18:00:12.548000,(-16 -10 -1 3 5 -1 -6 -12)
1969/12/31/18:00:12.548000,(-19 -3 0 -4 4 -2 -2 -3)
1969/12/31/18:00:12.554000,(34 10 -4 -11 -7 9 21 27)
1969/12/31/18:00:12.554000,(-35 -26 -11 -9 -2 -9 -13 -26)
1969/12/31/18:00:12.561000,(25 12 1 -10 -10 -1 -2 8)
1969/12/31/18:00:12.561000,(-9 -3 3 11 1 -1 -3 -6)
1969/12/31/18:00:12.570000,(-7 -3 3 17 13 1 0 3)
1969/12/31/18:00:12.570000,(1 2 -5 -49 -18 -4 -2 1)
1969/12/31/18:00:12.585000,(-1 -6 -29 -76 -46 -7 -1 -2)
1969/12/31/18:00:12.585000,(0 0 20 109 50 13 5 3)
1969/12/31/18:00:12.587000,(-7 3 34 66 51 11 -2 -5)
1969/12/31/18:00:12.587000,(-1 3 11 28 11 3 2 -4)
1969/12/31/18:00:12.608000,(0 1 4 -10 -2 -2 2 3)
1969/12/31/18:00:12.608000,(5 0 -18 -66 -27 -7 -4 -1)
1969/12/31/18:00:12.609000,(-2 -10 -27 -62 -36 -9 -1 -1)
1969/12/31/18:00:12.609000,(1 1 -3 -2 -5 -2 -1 -3)
1969/12/31/18:00:12.621000,(-10 -2 9 28 16 9 13 10)
1969/12/31/18:00:12.622000,(36 24 1 -4 5 4 7 16)
1969/12/31/18:00:12.630000,(-13 -15 -13 -25 -8 -6 -11 -18)
1969/12/31/18:00:12.630000,(-25 -23 -5 -8 -23 -8 -1 -1)
1969/12/31/18:00:12.647000,(39 30 13 33 20 5 5 12)
1969/12/31/18:00:12.647000,(-16 -5 13 13 13 6 1 -12)
1969/12/31/18:00:12.648000,(-13 -2 -12 -21 -11 -7 -8 -6)
1969/12/31/18:00:12.648000,(33 15 -16 -105 -24 4 17 25)
1969/12/31/18:00:12.668000,(-17 -17 -1 55 -7 -9 -8 -12)
1969/12/31/18:00:12.668000,(-5 0 9 11 -7 -7 -5 -5)
1969/12/31/18:00:12.669000,(1 0 5 43 26 5 3 3)
1969/12/31/18:00:12.669000,(1 8 16 33 28 15 6 2)
1969/12/31/18:00:12.681000,(-1 3 9 16 20 7 4 0)
1969/12/31/18:00:12.681000,(-5 -4 -7 -12 1 -3 -5 -9)
1969/12/31/18:00:12.690000,(0 -5 -19 -66 -47 -13 -3 3)
1969/12/31/18:00:12.690000,(10 8 -1 19 -5 -8 0 4)
1969/12/31/18:00:12.705000,(-4 -2 4 6 18 3 0 -2)
1969/12/31/18:00:12.705000,(-14 -9 -6 -12 -5 -2 -3 -6)
1969/12/31/18:00:12.707000,(-9 -5 -5 -9 -6 -4 -8 -12)
1969/12/31/18:00:12.707000,(13 8 4 7 2 3 8 18)
1969/12/31/18:00:12.728000,(-19 -11 -9 -15 -10 -8 -10 -15)
1969/12/31/18:00:12.728000,(5 -2 1 -19 -3 0 -2 -3)
1969/12/31/18:00:12.729000,(-4 -8 -3 12 -2 -4 -1 3)
1969/12/31/18:00:12.729000,(16 25 11 28 18 6 2 -5)
1969/12/31/18:00:12.741000,(-16 -2 2 -13 1 5 10 6)
1969/12/31/18:00:12.741000,(-2 -10 -27 -30 -29 -11 -6 -3)
1969/12/31/18:00:12.758000,(17 10 8 2 -10 -2 3 9)
1969/12/31/18:00:12.758000,(-14 -5 31 98 47 7 -4 -10)
1969/12/31/18:00:12.765000,(13 7 22 51 45 16 8 12)
1969/12/31/18:00:12.765000,(-14 -5 1 -9 12 3 -3 -9)
1969/12/31/18:00:12.767000,(17 13 -17 -67 -34 -6 3 10)
1969/12/31/18:00:12.767000,(-9 -13 -26 -38 -31 -16 -14 -9)
1969/12/31/18:00:12.787000,(4 1 2 -5 -9 -5 0 0)
1969/12/31/18:00:12.788000,(6 3 0 -5 0 -1 0 6)
1969/12/31/18:00:12.794000,(-27 -23 -5 -6 -4 -4 -6 -14)
1969/12/31/18:00:12.794000,(30 21 3 -3 1 9 15 20)
1969/12/31/18:00:12.801000,(6 1 -5 -8 -8 -5 -11 -9)
1969/12/31/18:00:12.801000,(-18 -15 0 4 -1 -4 -6 -8)
1969/12/31/18:00:12.811000,(-9 -2 8 25 16 3 3 -3)
1969/12/31/18:00:12.811000,(-7 -10 -7 -31 -18 -5 -5 -8)
1969/12/31/18:00:12.824000,(6 -2 -5 0 -5 -7 -4 2)
1969/12/31/18:00:12.824000,(17 20 21 44 31 23 26 24)
1969/12/31/18:00:12.833000,(2 3 -6 -54 -24 -3 2 2)
1969/12/31/18:00:12.833000,(-11 -9 -8 11 0 -6 -8 -9)
1969/12/31/18:00:12.848000,(-13 -13 0 13 26 3 -2 -8)
1969/12/31/18:00:12.848000,(8 7 7 8 -7 -2 -3 0)
1969/12/31/18:00:12.849000,(9 8 7 4 4 6 6 6)
1969/12/31/18:00:12.849000,(-10 -9 -10 -27 -16 -8 -8 -5)
1969/12/31/18:00:12.861000,(-4 -2 -2 -5 -5 7 12 2)
1969/12/31/18:00:12.861000,(-1 -6 -4 7 1 -13 -20 -9)
1969/12/31/18:00:12.876000,(-16 -23 -3 0 2 4 3 -2)
1969/12/31/18:00:12.876000,(20 22 -8 -18 -9 -8 -4 -1)
1969/12/31/18:00:12.885000,(2 4 1 13 -2 -4 -4 -2)
1969/12/31/18:00:12.885000,(10 8 1 -14 -3 1 7 6)
1969/12/31/18:00:12.887000,(-2 -5 -4 1 -14 -5 -4 -3)
1969/12/31/18:00:12.887000,(-10 -8 7 44 21 4 2 -2)
1969/12/31/18:00:12.908000,(-1 2 3 -10 9 -1 -8 -5)
1969/12/31/18:00:12.908000,(3 0 2 11 -8 1 2 3)
1969/12/31/18:00:12.909000,(0 1 2 11 12 1 -3 -5)
1969/12/31/18:00:12.909000,(3 -2 -17 -69 -23 -1 7 6)
1969/12/31/18:00:12.921000,(2 3 -1 17 -6 -8 -9 -6)
1969/12/31/18:00:12.921000,(-17 -10 10 37 23 3 2 -3)
1969/12/31/18:00:12.930000,(21 24 5 16 10 3 -1 0)
1969/12/31/18:00:12.930000,(-17 -13 -2 -15 -9 -3 -10 -14)
1969/12/31/18:00:12.945000,(-10 -13 -12 -37 -24 -7 -1 1)
1969/12/31/18:00:12.945000,(4 4 -9 -9 -1 -3 -3 -2)
1969/12/31/18:00:12.947000,(-14 -3 6 9 11 3 1 -6)
1969/12/31/18:00:12.947000,(42 29 8 5 5 5 13 37)
1969/12/31/18:00:12.968000,(-1 -8 -7 -7 -14 -3 -5 -5)
1969/12/31/18:00:12.968000,(-4 -2 -1 4 3 -4 -6 -8)
1969/12/31/18:00:12.969000,(-16 -20 -5 -11 -7 -2 -1 -5)
1969/12/31/18:00:12.969000,(-7 -2 3 20 6 -1 -4 -8)
1969/12/31/18:00:12.981000,(5 7 2 -17 -4 3 6 9)
1969/12/31/18:00:12.981000,(-2 -10 -7 -10 2 -4 -2 3)
1969/12/31/18:00:12.990000,(10 14 5 31 11 5 3 0)
1969/12/31/18:00:12.991000,(-15 -14 -6 -14 -6 -1 -1 -7)
1969/12/31/18:00:13.005000,(23 17 9 24 7 1 6 16)
1969/12/31/18:00:13.005000,(-29 -24 5 5 5 0 -6 -17)
1969/12/31/18:00:13.007000,(1 9 -12 -20 -13 -13 -16 -15)
1969/12/31/18:00:13.007000,(-28 -27 -5 -1 -1 -6 -12 -17)
1969/12/31/18:00:13.028000,(-13 -14 -12 -19 -11 -5 -7 -15)
1969/12/31/18:00:13.028000,(-6 -12 -3 -7 -7 1 -1 2)
1969/12/31/18:00:13.030000,(18 14 7 12 7 1 4 11)
1969/12/31/18:00:13.030000,(23 29 2 -8 -11 -4 -1 6)
1969/12/31/18:00:13.041000,(-6 -12 -7 -22 -1 7 10 -1)
1969/12/31/18:00:13.041000,(0 -3 -3 16 4 0 -4 -6)
1969/12/31/18:00:13.058000,(2 -4 -14 -43 -1 4 9 11)
1969/12/31/18:00:13.058000,(-13 -5 15 14 -11 3 4 -7)
1969/12/31/18:00:13.065000,(6 5 9 35 20 -2 2 8)
1969/12/31/18:00:13.065000,(41 42 10 -8 -2 14 19 20)
1969/12/31/18:00:13.067000,(-14 -15 7 34 15 -3 -9 -11)
1969/12/31/18:00:13.067000,(-5 7 -11 -40 -4 -4 -4 -1)
1969/12/31/18:00:13.088000,(8 1 -1 -2 -12 5 11 15)
1969/12/31/18:00:13.088000,(-19 -29 -4 -6 -5 -8 -10 -12)
1969/12/31/18:00:13.089000,(5 6 -5 -1 -8 -6 -3 0)
1969/12/31/18:00:13.089000,(-11 -11 -1 -5 3 -3 -5 -7)
1969/12/31/18:00:13.101000,(6 10 -5 -2 11 8 7 9)
1969/12/31/18:00:13.101000,(-17 -7 0 26 4 -6 -14 -19)
1969/12/31/18:00:13.110000,(12 -2 -6 -19 -15 -4 3 20)
1969/12/31/18:00:13.110000,(20 24 16 15 1 15 10 -7)
1969/12/31/18:00:13.124000,(-7 -1 -3 -9 11 -7 -12 -15)
1969/12/31/18:00:13.124000,(4 5 0 9 -10 1 9 11)
1969/12/31/18:00:13.133000,(-20 -21 3 0 6 -1 -5 -7)
1969/12/31/18:00:13.133000,(-3 -4 -8 11 -8 -11 -3 2)
1969/12/31/18:00:13.148000,(5 6 3 -4 -3 4 -1 2)
1969/12/31/18:00:13.148000,(2 -1 4 6 10 2 2 2)
1969/12/31/18:00:13.149000,(13 14 -9 -19 -1 3 4 4)
1969/12/31/18:00:13.149000,(1 -3 13 57 27 5 1 5)
1969/12/31/18:00:13.162000,(3 -1 1 -11 -11 -1 -1 -3)
1969/12/31/18:00:13.162000,(-17 2 -1 11 10 -8 -7 -8)
1969/12/31/18:00:13.170000,(-47 -72 -13 -14 -8 2 0 -12)
1969/12/31/18:00:13.170000,(59 62 -3 -22 -1 10 18 28)
1969/12/31/18:00:13.185000,(-14 1 -3 -1 -5 2 0 -8)
1969/12/31/18:00:13.185000,(15 7 -6 -33 -15 0 1 8)
1969/12/31/18:00:13.192000,(0 3 -4 -26 -27 -8 -6 -8)
1969/12/31/18:00:13.192000,(-29 -46 -15 -35 -12 -8 -5 -5)
1969/12/31/18:00:13.208000,(-2 2 9 48 13 -2 -3 -5)
1969/12/31/18:00:13.208000,(0 5 0 1 6 2 0 -1)
1969/12/31/18:00:13.209000,(13 11 4 15 7 9 10 11)
1969/12/31/18:00:13.209000,(-13 -10 16 88 47 5 -4 -6)
1969/12/31/18:00:13.221000,(4 8 5 -21 -27 -10 -6 -4)
1969/12/31/18:00:13.221000,(26 20 -7 -21 -1 -1 6 17)
1969/12/31/18:00:13.230000,(-6 10 0 9 6 -8 -20 -23)
1969/12/31/18:00:13.230000,(-5 3 -14 -42 -30 -17 -16 -12)
1969/12/31/18:00:13.245000,(-27 -19 3 -19 -13 -8 -13 -23)
1969/12/31/18:00:13.245000,(-16 -12 -3 2 -4 -9 -12 -15)
1969/12/31/18:00:13.251000,(23 0 7 6 9 13 20 28)
1969/12/31/18:00:13.251000,(18 31 -6 -4 2 3 6 5)
1969/12/31/18:00:13.268000,(-7 -10 -1 9 0 -6 -9 -5)
1969/12/31/18:00:13.268000,(-22 -27 -1 -4 -8 -8 -9 -11)
1969/12/31/18:00:13.269000,(22 38 16 18 7 2 7 8)
1969/12/31/18:00:13.269000,(-12 -18 -14 -23 -11 -10 -8 -7)
1969/12/31/18:00:13.281000,(-2 3 5 5 4 0 0 -6)
1969/12/31/18:00:13.281000,(-2 0 -5 -33 -5 1 2 -3)
1969/12/31/18:00:13.291000,(13 11 6 43 5 4 6 10)
1969/12/31/18:00:13.291000,(-30 -35 1 0 -2 0 0 -3)
1969/12/31/18:00:13.305000,(0 11 -5 -4 3 -3 -3 -9)
1969/12/31/18:00:13.305000,(14 -23 2 -3 1 8 13 18)
1969/12/31/18:00:13.311000,(27 35 -7 -14 -5 -2 -3 7)
1969/12/31/18:00:13.311000,(-19 -23 -5 -16 -14 -8 -14 -18)
1969/12/31/18:00:13.328000,(5 3 -2 10 4 -2 -1 7)
1969/12/31/18:00:13.328000,(-26 -10 -1 0 -1 0 -2 -15)
1969/12/31/18:00:13.329000,(-27 -30 -6 5 3 -4 -4 -5)
1969/12/31/18:00:13.329000,(27 35 14 11 8 7 6 9)
1969/12/31/18:00:13.352000,(8 -10 -21 -68 -22 0 4 9)
1969/12/31/18:00:13.352000,(19 31 13 48 3 -5 -7 0)
1969/12/31/18:00:13.353000,(-31 -21 7 15 14 0 -4 -9)
1969/12/31/18:00:13.353000,(8 11 5 12 8 5 2 -2)
1969/12/31/18:00:13.365000,(-16 -14 -4 -10 -8 -4 -3 -3)
1969/12/31/18:00:13.365000,(6 11 -10 -33 -18 -7 0 8)
1969/12/31/18:00:13.373000,(20 17 4 2 10 12 9 10)
1969/12/31/18:00:13.373000,(-14 -28 -8 4 1 -1 -6 -5)
1969/12/31/18:00:13.388000,(12 12 6 8 4 6 13 17)
1969/12/31/18:00:13.388000,(-35 -32 -7 -4 -5 -10 -19 -25)
1969/12/31/18:00:13.389000,(11 12 -1 3 1 -4 3 3)
1969/12/31/18:00:13.389000,(12 6 1 -5 4 5 7 6)
1969/12/31/18:00:13.401000,(-14 -30 -5 6 0 -4 -7 -1)
1969/12/31/18:00:13.402000,(42 67 10 6 10 15 18 17)
1969/12/31/18:00:13.410000,(-6 -5 -3 -14 -10 -7 -8 -13)
1969/12/31/18:00:13.410000,(-12 -15 0 -3 -2 0 4 0)
1969/12/31/18:00:13.425000,(1 7 0 8 -2 -8 -8 -12)
1969/12/31/18:00:13.425000,(-11 -23 8 18 23 28 29 18)
1969/12/31/18:00:13.431000,(-8 -11 -2 -10 -5 1 2 0)
1969/12/31/18:00:13.431000,(4 6 -3 1 -4 -4 -5 0)
1969/12/31/18:00:13.448000,(-20 -9 2 21 15 7 3 -4)
1969/12/31/18:00:13.448000,(3 3 -2 -20 -14 -9 -6 -2)
1969/12/31/18:00:13.449000,(25 28 1 -4 2 6 9 15)
1969/12/31/18:00:13.449000,(-28 -29 -3 2 -2 -1 -1 -9)
1969/12/31/18:00:13.461000,(-3 2 7 17 7 1 -3 1)
1969/12/31/18:00:13.461000,(10 13 1 1 -2 -4 -8 -6)
1969/12/31/18:00:13.470000,(-37 -47 -11 0 -6 -13 -18 -25)
1969/12/31/18:00:13.470000,(7 14 5 -11 -2 0 -1 4)
1969/12/31/18:00:13.485000,(0 4 -3 -5 -3 -1 -1 -5)
1969/12/31/18:00:13.485000,(11 -9 -4 -2 3 6 10 20)
1969/12/31/18:00:13.491000,(-12 -3 -3 -5 -8 -6 -12 -17)
1969/12/31/18:00:13.491000,(8 11 0 3 -4 -2 -2 1)
1969/12/31/18:00:13.508000,(18 9 5 7 2 9 18 23)
1969/12/31/18:00:13.508000,(-17 -9 -9 -25 -21 -13 -16 -17)
1969/12/31/18:00:13.509000,(8 2 -11 -30 -10 -1 5 8)
1969/12/31/18:00:13.509000,(-3 -2 12 50 28 8 7 7)
1969/12/31/18:00:13.530000,(19 16 10 20 19 7 3 7)
1969/12/31/18:00:13.530000,(-3 7 9 10 -2 -4 -6 -9)
1969/12/31/18:00:13.532000,(-3 -7 -5 -11 1 7 8 3)
1969/12/31/18:00:13.532000,(-65 -39 -15 -26 -18 -10 -16 -30)
1969/12/31/18:00:13.544000,(81 47 1 -10 -7 -8 -7 16)
1969/12/31/18:00:13.544000,(-10 -12 -10 -5 1 -3 -4 -5)
1969/12/31/18:00:13.553000,(23 22 7 3 4 5 6 11)
1969/12/31/18:00:13.553000,(-28 -30 -7 -3 -3 -6 -10 -13)
1969/12/31/18:00:13.568000,(-20 -17 0 0 -3 0 3 0)
1969/12/31/18:00:13.568000,(6 15 4 -7 -3 -2 -3 -4)
1969/12/31/18:00:13.569000,(-7 -10 -5 4 1 -1 -4 -3)
1969/12/31/18:00:13.569000,(29 14 -3 -8 -1 7 16 20)
1969/12/31/18:00:13.590000,(-20 -9 -3 -7 -4 -3 -7 -10)
1969/12/31/18:00:13.590000,(-5 -9 8 22 10 1 -3 -4)
1969/12/31/18:00:13.592000,(-11 -2 -1 3 -2 -6 -2 -6)
1969/12/31/18:00:13.592000,(22 11 4 -5 4 5 3 7)
1969/12/31/18:00:13.604000,(-17 -13 -6 -3 -2 -5 -8 -11)
1969/12/31/18:00:13.604000,(0 -8 -9 -8 -3 0 6 8)
1969/12/31/18:00:13.619000,(26 30 11 11 4 5 8 14)
1969/12/31/18:00:13.619000,(23 21 -1 3 2 -5 -4 -2)
1969/12/31/18:00:13.628000,(-3 -9 -3 -9 2 8 14 17)
1969/12/31/18:00:13.628000,(15 7 2 5 0 0 0 9)
1969/12/31/18:00:13.629000,(-12 -6 1 3 1 -5 -7 -11)
1969/12/31/18:00:13.629000,(11 1 -7 -28 -22 -4 3 6)
1969/12/31/18:00:13.650000,(-17 -9 -3 -11 -6 -1 -3 -10)
1969/12/31/18:00:13.650000,(-7 -2 4 32 10 2 1 -2)
1969/12/31/18:00:13.652000,(-1 3 6 9 -11 -10 -10 -3)
1969/12/31/18:00:13.652000,(3 1 6 6 8 8 7 4)
1969/12/31/18:00:13.664000,(8 10 -5 3 5 -4 -6 -5)
1969/12/31/18:00:13.664000,(-2 5 -4 -18 -1 -1 -7 -9)
1969/12/31/18:00:13.673000,(-27 -30 -11 -7 -10 -6 -13 -18)
1969/12/31/18:00:13.673000,(19 20 8 -1 0 5 13 23)
1969/12/31/18:00:13.688000,(11 2 3 2 -1 0 -1 3)
1969/12/31/18:00:13.688000,(-20 -28 -11 -20 -9 1 4 -5)
1969/12/31/18:00:13.689000,(-2 -5 0 4 2 -1 1 9)
1969/12/31/18:00:13.689000,(-3 -4 -10 -12 -5 -3 -8 -10)
1969/12/31/18:00:13.710000,(-2 4 4 11 5 3 3 0)
1969/12/31/18:00:13.710000,(-8 -7 0 6 -3 -3 -4 -4)
1969/12/31/18:00:13.712000,(-8 -7 1 -9 -9 -5 -2 -1)
1969/12/31/18:00:13.712000,(-5 -1 -4 8 9 -3 -3 0)
1969/12/31/18:00:13.724000,(6 0 2 5 7 8 8 9)
1969/12/31/18:00:13.724000,(-2 -2 -7 -13 3 -8 -12 -14)
1969/12/31/18:00:13.733000,(-1 4 -2 -5 -17 3 3 -3)
1969/12/31/18:00:13.733000,(-6 -8 1 12 -2 -5 -8 -10)
1969/12/31/18:00:13.748000,(-6 -2 -8 -11 -5 -5 0 -2)
1969/12/31/18:00:13.748000,(5 6 1 1 10 4 4 8)
1969/12/31/18:00:13.749000,(18 14 -1 -1 4 7 8 11)
1969/12/31/18:00:13.749000,(-7 -12 7 12 3 -3 -3 -3)
1969/12/31/18:00:13.770000,(8 30 11 8 1 2 7 7)
1969/12/31/18:00:13.770000,(18 20 0 -11 -3 2 6 12)
1969/12/31/18:00:13.772000,(-11 -12 -8 -13 -8 -11 -16 -19)
1969/12/31/18:00:13.772000,(6 -9 -11 -1 0 0 1 7)
1969/12/31/18:00:13.784000,(-13 -8 2 1 -1 -5 -11 -14)
1969/12/31/18:00:13.784000,(-2 -4 -9 -26 -17 -2 -1 2)
1969/12/31/18:00:13.793000,(11 15 8 24 16 4 5 6)
1969/12/31/18:00:13.793000,(-14 -8 2 10 3 -2 -6 -6)
1969/12/31/18:00:13.808000,(0 1 -4 -10 -8 -4 2 6)
1969/12/31/18:00:13.808000,(-21 -34 -3 5 -2 2 -2 -7)
1969/12/31/18:00:13.809000,(-19 -32 -3 1 6 4 2 -8)
1969/12/31/18:00:13.809000,(55 53 8 -4 5 10 17 29)
1969/12/31/18:00:13.831000,(-22 -23 -20 -16 -16 -14 -21 -27)
1969/12/31/18:00:13.831000,(-18 -10 13 24 10 3 5 1)
1969/12/31/18:00:13.832000,(34 24 8 -1 5 2 5 11)
1969/12/31/18:00:13.832000,(-21 -21 -9 -10 -8 -6 -7 -12)
1969/12/31/18:00:13.844000,(10 9 3 6 4 4 3 5)
1969/12/31/18:00:13.844000,(6 5 -8 -9 -11 -3 1 3)
1969/12/31/18:00:13.853000,(-10 4 11 8 7 -1 -4 -5)
1969/12/31/18:00:13.853000,(4 12 0 8 6 7 5 1)
1969/12/31/18:00:13.868000,(10 0 3 -7 -3 3 4 8)
1969/12/31/18:00:13.868000,(-4 -7 -9 -6 10 1 -3 -6)
1969/12/31/18:00:13.869000,(-3 1 0 8 -4 -3 0 0)
1969/12/31/18:00:13.869000,(-15 -6 3 -1 -2 -9 -9 -13)
1969/12/31/18:00:13.890000,(5 -10 1 -1 2 7 13 16)
1969/12/31/18:00:13.890000,(-18 -12 4 12 7 5 0 -13)
1969/12/31/18:00:13.892000,(0 3 -6 -8 -2 0 -2 -2)
1969/12/31/18:00:13.892000,(-5 -7 -2 -12 -4 -4 0 3)
1969/12/31/18:00:13.904000,(2 -1 -5 -2 -14 -9 -7 -3)
1969/12/31/18:00:13.904000,(2 22 10 16 13 0 2 9)
1969/12/31/18:00:13.913000,(20 3 1 8 8 5 0 1)
1969/12/31/18:00:13.913000,(-11 -13 -2 -6 -4 -1 0 -2)
1969/12/31/18:00:13.928000,(-5 -4 -2 2 2 1 -3 -7)
1969/12/31/18:00:13.928000,(-5 -3 -6 -11 -17 -12 -13 -14)
1969/12/31/18:00:13.929000,(-8 -6 -9 -9 1 3 6 4)
1969/12/31/18:00:13.929000,(19 10 2 1 7 11 13 14)
1969/12/31/18:00:13.958000,(-30 -33 -3 5 -2 -8 -13 -21)
1969/12/31/18:00:13.958000,(40 42 -4 -8 -5 3 11 22)
1969/12/31/18:00:13.960000,(-36 -30 6 3 1 -3 -6 -17)
1969/12/31/18:00:13.960000,(7 1 1 -1 -3 -1 0 1)
1969/12/31/18:00:13.964000,(6 13 2 5 8 8 4 1)
1969/12/31/18:00:13.964000,(-11 -10 -5 -4 -7 -4 -4 -6)
1969/12/31/18:00:13.973000,(2 -6 -2 1 3 1 3 8)
1969/12/31/18:00:13.973000,(2 4 -4 -6 -9 -8 -7 -5)
1969/12/31/18:00:13.988000,(4 2 3 3 4 3 -1 -7)
1969/12/31/18:00:13.988000,(26 28 8 7 2 -1 2 7)
1969/12/31/18:00:13.989000,(-5 -10 -13 -17 -8 -3 -1 1)
1969/12/31/18:00:13.989000,(-29 -7 5 8 2 0 -3 -8)
1969/12/31/18:00:14.010000,(34 30 19 12 16 19 22 21)
1969/12/31/18:00:14.010000,(-12 -24 -10 -2 -6 -5 -9 -10)
1969/12/31/18:00:14.012000,(-23 -17 -5 -6 -8 -6 -7 -15)
1969/12/31/18:00:14.012000,(7 8 -3 -9 -6 -7 -8 -6)
1969/12/31/18:00:14.024000,(-2 -1 3 2 3 3 10 14)
1969/12/31/18:00:14.024000,(13 7 2 3 1 3 3 5)
1969/12/31/18:00:14.033000,(-6 -6 -7 -5 -6 -6 -5 -3)
1969/12/31/18:00:14.033000,(-1 4 2 -12 -11 0 -1 -5)
1969/12/31/18:00:14.048000,(-5 -8 0 10 4 -10 -10 -3)
1969/12/31/18:00:14.048000,(0 -7 -1 2 7 12 17 14)
1969/12/31/18:00:14.050000,(31 34 4 -1 -6 -8 -3 7)
1969/12/31/18:00:14.050000,(-1 -4 -3 1 0 -4 -8 -2)
1969/12/31/18:00:14.070000,(-28 -21 -11 -13 7 -3 -10 -20)
1969/12/31/18:00:14.070000,(-10 -22 -4 -5 -10 -3 0 4)
1969/12/31/18:00:14.072000,(9 0 3 7 -2 2 8 13)
1969/12/31/18:00:14.072000,(-1 8 -7 3 1 -7 -12 -16)
1969/12/31/18:00:14.084000,(16 13 0 -8 -1 5 5 10)
1969/12/31/18:00:14.084000,(-5 -4 -1 -7 -4 -5 -4 -1)
1969/12/31/18:00:14.093000,(5 9 -4 -4 -2 1 1 -1)
1969/12/31/18:00:14.093000,(4 -8 3 8 6 5 7 8)
1969/12/31/18:00:14.107000,(-22 -19 -3 -21 -23 -16 -14 -14)
1969/12/31/18:00:14.107000,(21 28 -2 19 22 7 7 4)
1969/12/31/18:00:14.114000,(-11 -7 8 9 10 14 9 -3)
1969/12/31/18:00:14.114000,(-6 3 -1 1 -3 -7 -6 -6)
1969/12/31/18:00:14.130000,(12 8 12 6 4 15 24 16)
1969/12/31/18:00:14.130000,(4 14 0 -14 -18 -11 -16 -14)
1969/12/31/18:00:14.132000,(15 11 2 -2 1 8 22 25)
1969/12/31/18:00:14.132000,(-4 -10 1 9 10 6 2 1)
1969/12/31/18:00:14.144000,(0 -1 -6 -6 -10 -4 -3 1)
1969/12/31/18:00:14.144000,(20 16 2 -2 -5 -6 -2 6)
1969/12/31/18:00:14.153000,(3 15 3 4 9 8 4 -1)
1969/12/31/18:00:14.153000,(0 -8 -4 -13 -21 3 7 7)
1969/12/31/18:00:14.167000,(-7 -7 -2 4 -2 -7 -6 -3)
1969/12/31/18:00:14.167000,(-10 -12 1 5 29 6 1 -1)
1969/12/31/18:00:14.174000,(-4 -4 -5 -2 -21 -6 -5 -6)
1969/12/31/18:00:14.174000,(-1 -4 7 21 10 4 7 5)
1969/12/31/18:00:14.190000,(-5 3 1 2 6 -1 -9 -11)
1969/12/31/18:00:14.190000,(-24 -21 -3 -8 -15 -12 -9 -2)
1969/12/31/18:00:14.192000,(16 16 18 8 23 15 5 -5)
1969/12/31/18:00:14.192000,(-8 -12 -4 -9 -8 -8 -7 -7)
1969/12/31/18:00:14.204000,(12 15 0 6 -4 -3 -1 6)
1969/12/31/18:00:14.204000,(-21 -15 -1 -8 -9 -5 -4 -10)
1969/12/31/18:00:14.213000,(-2 -12 -6 -9 -7 -11 -10 5)
1969/12/31/18:00:14.213000,(-2 3 -1 4 6 7 6 1)
1969/12/31/18:00:14.227000,(-9 -9 -2 -12 -12 -5 -3 -4)
1969/12/31/18:00:14.227000,(3 1 0 -2 -6 -1 1 1)
1969/12/31/18:00:14.234000,(-46 -45 -4 17 5 -16 -20 -25)
1969/12/31/18:00:14.234000,(31 28 13 15 19 19 24 20)
1969/12/31/18:00:14.250000,(25 23 6 12 18 18 22 28)
1969/12/31/18:00:14.250000,(13 16 -2 -7 -11 3 -1 -5)
1969/12/31/18:00:14.252000,(-1 -5 -8 -8 -12 -8 -4 0)
1969/12/31/18:00:14.252000,(-18 -19 -7 -8 -3 -17 -18 -15)
1969/12/31/18:00:14.264000,(-9 -9 -8 -18 -8 -5 1 -2)
1969/12/31/18:00:14.264000,(4 -1 9 34 2 9 6 5)
1969/12/31/18:00:14.273000,(14 23 13 20 23 8 5 7)
1969/12/31/18:00:14.273000,(-12 -4 -5 -3 5 0 -4 -6)
1969/12/31/18:00:14.287000,(15 12 -3 -3 0 -2 -6 3)
1969/12/31/18:00:14.287000,(-25 -17 -8 -12 -3 -5 -9 -22)
1969/12/31/18:00:14.294000,(2 3 -9 -13 -12 -9 -7 -1)
1969/12/31/18:00:14.294000,(1 6 -1 -7 -10 -5 -2 1)
1969/12/31/18:00:14.310000,(-5 -7 -6 0 -3 -5 -5 -7)
1969/12/31/18:00:14.310000,(-17 -19 -3 -1 -5 -7 -7 -9)
1969/12/31/18:00:14.312000,(31 30 7 -7 -4 8 15 23)
1969/12/31/18:00:14.312000,(1 -5 0 0 3 1 1 2)
1969/12/31/18:00:14.324000,(-15 -16 -1 10 3 -2 -6 -13)
1969/12/31/18:00:14.324000,(10 5 3 7 7 4 7 10)
1969/12/31/18:00:14.333000,(-7 3 -2 -8 -5 -7 -9 -12)
1969/12/31/18:00:14.333000,(5 4 -2 -6 -2 3 3 9)
1969/12/31/18:00:14.347000,(-12 -25 -4 0 -4 -5 -5 -2)
1969/12/31/18:00:14.347000,(20 29 1 -3 3 3 3 -1)
1969/12/31/18:00:14.354000,(-15 -12 -4 -4 -2 -3 -4 -6)
1969/12/31/18:00:14.354000,(9 -2 3 2 1 2 10 13)
1969/12/31/18:00:14.370000,(-9 -6 -2 6 0 -2 -4 -10)
1969/12/31/18:00:14.370000,(-9 -18 -1 -4 2 0 1 3)
1969/12/31/18:00:14.372000,(1 -1 -7 -5 -4 -2 -2 -5)
1969/12/31/18:00:14.372000,(10 6 -3 -3 -4 -6 -6 0)
1969/12/31/18:00:14.384000,(-22 -4 -3 -2 -3 -3 -8 -20)
1969/12/31/18:00:14.384000,(-11 -13 -4 -6 -5 -6 -6 -10)
1969/12/31/18:00:14.393000,(29 24 0 5 8 10 13 18)
1969/12/31/18:00:14.393000,(-15 -20 -5 -4 -6 -3 -7 -10)
1969/12/31/18:00:14.407000,(8 10 0 1 1 -3 -1 4)
1969/12/31/18:00:14.407000,(0 5 2 -2 -3 -5 -4 -3)
1969/12/31/18:00:14.414000,(-21 -27 -6 -2 -4 -2 -2 -6)
1969/12/31/18:00:14.414000,(-8 -7 -2 -2 -3 -6 -13 -15)
1969/12/31/18:00:14.430000,(14 14 4 2 0 -1 4 5)
1969/12/31/18:00:14.430000,(2 -1 2 4 4 7 9 11)
1969/12/31/18:00:14.432000,(-8 -13 -5 -4 -2 -4 -5 -6)
1969/12/31/18:00:14.432000,(2 8 8 -4 4 17 27 21)
1969/12/31/18:00:14.453000,(9 6 -1 0 -2 -2 -7 2)
1969/12/31/18:00:14.453000,(-2 -6 -1 -1 0 1 -1 -2)
1969/12/31/18:00:14.454000,(-7 -1 1 2 -2 -7 -9 -11)
1969/12/31/18:00:14.454000,(-1 0 -3 0 -4 -6 -3 2)
1969/12/31/18:00:14.466000,(-20 -10 1 3 -1 -2 -2 -11)
1969/12/31/18:00:14.466000,(17 15 2 -2 3 6 8 14)
1969/12/31/18:00:14.475000,(-2 -3 -5 -2 -1 -2 -3 1)
1969/12/31/18:00:14.475000,(0 -2 0 0 -1 -4 -4 -4)
1969/12/31/18:00:14.490000,(10 6 1 0 0 1 4 8)
1969/12/31/18:00:14.490000,(-6 -7 -4 -3 -4 -4 -3 -4)
1969/12/31/18:00:14.492000,(1 4 2 -2 11 1 2 0)
1969/12/31/18:00:14.492000,(-6 -4 -2 -4 -16 -4 -5 -7)
1969/12/31/18:00:14.513000,(-7 -10 2 2 0 -5 -3 -1)
1969/12/31/18:00:14.513000,(11 29 1 7 7 -1 -3 6)
1969/12/31/18:00:14.514000,(15 12 3 1 6 7 3 5)
1969/12/31/18:00:14.514000,(-3 2 1 1 8 14 18 6)
1969/12/31/18:00:14.526000,(-14 -16 -9 -6 -9 -4 -7 -9)
1969/12/31/18:00:14.526000,(-6 -10 0 -3 -7 -8 -7 -5)
1969/12/31/18:00:14.535000,(2 5 2 -1 -5 -4 -1 2)
1969/12/31/18:00:14.535000,(0 0 -1 0 2 -3 -5 -3)
1969/12/31/18:00:14.550000,(-1 1 1 -1 -3 1 -1 2)
1969/12/31/18:00:14.550000,(-5 -5 -1 1 1 2 2 0)
1969/12/31/18:00:14.552000,(-5 -4 -1 -1 -5 -3 0 -2)
1969/12/31/18:00:14.552000,(-6 -9 -3 -2 0 -3 -5 -6)
1969/12/31/18:00:14.573000,(3 3 0 1 2 3 3 1)
1969/12/31/18:00:14.573000,(4 -2 -2 -12 -18 -1 0 2)
1969/12/31/18:00:14.574000,(-1 0 -2 7 1 -3 -3 -2)
1969/12/31/18:00:14.574000,(-2 0 2 17 16 0 -7 -6)
1969/12/31/18:00:14.586000,(8 5 0 5 3 4 2 4)
1969/12/31/18:00:14.586000,(-1 1 1 -15 -1 1 -1 -2)
1969/12/31/18:00:14.595000,(7 5 3 9 -8 4 9 8)
1969/12/31/18:00:14.595000,(-8 -8 -3 5 -3 -8 -7 -6)
1969/12/31/18:00:14.610000,(14 8 9 7 10 8 9 13)
1969/12/31/18:00:14.610000,(9 28 3 -2 -5 -2 -3 -2)
1969/12/31/18:00:14.612000,(-16 -16 -7 -16 -4 2 -1 -10)
1969/12/31/18:00:14.612000,(-3 -2 -3 -7 -3 -6 -7 -6)
1969/12/31/18:00:14.640000,(5 6 -3 -2 -6 -1 1 3)
1969/12/31/18:00:14.640000,(0 -11 -4 1 1 0 3 4)
1969/12/31/18:00:14.648000,(-8 -6 1 3 1 -3 -3 -5)
1969/12/31/18:00:14.648000,(8 5 -4 -4 0 5 4 6)
1969/12/31/18:00:14.655000,(-7 -5 -2 -10 -8 -9 -11 -11)
1969/12/31/18:00:14.655000,(-6 -15 -5 -4 2 2 3 1)
1969/12/31/18:00:14.657000,(20 15 -2 -11 -7 -5 -3 5)
1969/12/31/18:00:14.657000,(-16 -15 -2 13 -5 1 -8 -15)
1969/12/31/18:00:14.678000,(-33 -37 -2 15 2 -6 -7 -12)
1969/12/31/18:00:14.678000,(35 41 6 16 17 10 11 13)
1969/12/31/18:00:14.679000,(-50 -53 -8 -9 -11 -9 -17 -28)
1969/12/31/18:00:14.679000,(68 69 13 -9 4 9 14 23)
1969/12/31/18:00:14.693000,(-2 -8 -10 -11 -6 0 -3 -2)
1969/12/31/18:00:14.693000,(-15 -16 -5 4 -5 -9 -9 -10)
1969/12/31/18:00:14.694000,(1 -3 -3 -11 -4 -4 -1 3)
1969/12/31/18:00:14.694000,(0 0 1 -2 -1 3 8 10)
1969/12/31/18:00:14.707000,(1 6 3 8 3 1 -2 -4)
1969/12/31/18:00:14.707000,(0 -9 -10 -70 -37 -2 1 4)
1969/12/31/18:00:14.714000,(10 17 1 37 12 0 3 7)
1969/12/31/18:00:14.714000,(-21 -21 5 50 26 2 -7 -9)
1969/12/31/18:00:14.730000,(8 19 10 19 15 4 0 0)
1969/12/31/18:00:14.730000,(-11 -12 2 1 -3 -1 -3 -4)
1969/12/31/18:00:14.732000,(-2 -6 -15 -74 -28 -4 -1 -1)
1969/12/31/18:00:14.732000,(-5 -10 -21 -52 -36 -9 -5 -2)
1969/12/31/18:00:14.752000,(9 5 4 28 -1 2 6 9)
1969/12/31/18:00:14.752000,(-9 -4 6 32 10 -1 -4 -8)
1969/12/31/18:00:14.753000,(6 11 18 64 41 13 6 4)
1969/12/31/18:00:14.753000,(-7 -3 14 7 21 9 0 -4)
1969/12/31/18:00:14.775000,(-3 2 -5 -22 -2 2 1 -3)
1969/12/31/18:00:14.775000,(1 -8 -10 -2 -16 -16 -3 4)
1969/12/31/18:00:14.775000,(7 7 -4 -6 -9 -5 -3 2)
1969/12/31/18:00:14.775000,(-6 -5 2 -3 -8 -6 -5 0)
1969/12/31/18:00:14.790000,(1 8 13 -2 -15 7 5 1)
1969/12/31/18:00:14.790000,(7 0 -41 -33 25 5 3 6)
1969/12/31/18:00:14.790000,(-10 -22 -8 10 -18 -4 -6 -5)
1969/12/31/18:00:14.790000,(-9 -4 -5 19 15 -11 -7 -5)
1969/12/31/18:00:14.812000,(-6 -5 3 11 14 -3 -4 -4)
1969/12/31/18:00:14.812000,(-3 7 44 34 2 7 3 -1)
1969/12/31/18:00:14.813000,(12 17 8 -3 14 12 7 7)
1969/12/31/18:00:14.813000,(7 -5 -22 -34 -10 7 7 6)
1969/12/31/18:00:14.835000,(5 -2 -13 -6 -23 -10 -4 2)
1969/12/31/18:00:14.835000,(-12 -15 -18 -44 -20 -16 -10 -9)
1969/12/31/18:00:14.835000,(-2 6 23 23 4 0 -2 -1)
1969/12/31/18:00:14.835000,(-1 7 26 8 -4 9 3 -1)
1969/12/31/18:00:14.850000,(12 8 -9 -10 9 8 10 11)
1969/12/31/18:00:14.850000,(0 -9 -13 29 11 2 -4 -1)
1969/12/31/18:00:14.850000,(-12 -8 -2 -10 -10 -5 -10 -11)
1969/12/31/18:00:14.850000,(-6 -4 4 9 9 -2 -4 -2)
1969/12/31/18:00:14.872000,(-4 -5 -18 -8 15 -2 -4 -3)
1969/12/31/18:00:14.872000,(0 4 22 -12 -11 5 5 1)
1969/12/31/18:00:14.873000,(8 12 6 23 0 0 3 5)
1969/12/31/18:00:14.873000,(5 1 1 -35 -9 -2 3 6)
1969/12/31/18:00:14.903000,(-1 -3 -2 14 -6 -5 -4 -4)
1969/12/31/18:00:14.903000,(-6 -5 -11 16 15 1 -1 -4)
1969/12/31/18:00:14.904000,(-7 -9 -14 -13 11 -3 -7 -7)
1969/12/31/18:00:14.904000,(1 2 7 -2 -6 -1 2 2)
1969/12/31/18:00:14.910000,(-1 5 10 -24 -17 0 1 0)
1969/12/31/18:00:14.910000,(6 7 11 22 7 8 7 4)
1969/12/31/18:00:14.910000,(8 7 10 -4 -2 -9 -5 2)
1969/12/31/18:00:14.910000,(-6 -10 -30 -29 -24 -9 -3 -2)
1969/12/31/18:00:14.932000,(-1 -8 -12 -12 -2 -6 -3 -1)
1969/12/31/18:00:14.932000,(-4 4 47 45 18 8 0 -4)
1969/12/31/18:00:14.933000,(1 3 -21 -3 6 7 2 3)
1969/12/31/18:00:14.933000,(-2 -12 -17 -15 -6 -2 -1 -1)
1969/12/31/18:00:14.955000,(1 7 24 1 -8 1 4 2)
1969/12/31/18:00:14.955000,(1 1 -23 -7 -4 -4 -3 0)
1969/12/31/18:00:14.955000,(-3 -7 -10 -31 1 -6 -2 -2)
1969/12/31/18:00:14.955000,(-1 8 24 46 9 5 1 -1)
1969/12/31/18:00:14.970000,(3 3 -1 1 11 0 1 1)
1969/12/31/18:00:14.970000,(3 4 8 -20 -26 -5 -2 0)
1969/12/31/18:00:14.970000,(4 -1 -5 33 9 5 6 3)
1969/12/31/18:00:14.970000,(-7 -12 -10 12 29 5 -2 -5)
1969/12/31/18:00:14.992000,(-4 6 16 -10 -4 -2 -5 -5)
1969/12/31/18:00:14.992000,(1 -2 -22 -4 -6 0 3 3)
1969/12/31/18:00:14.993000,(-1 -6 -10 -29 -2 1 3 2)
1969/12/31/18:00:14.993000,(1 9 13 6 -9 -6 -4 -4)
1969/12/31/18:00:15.015000,(-1 -5 -6 0 5 1 1 2)
1969/12/31/18:00:15.015000,(-1 -7 -11 -16 -13 -7 -5 -3)
1969/12/31/18:00:15.016000,(3 3 5 -14 5 2 4 3)
1969/12/31/18:00:15.016000,(-6 -6 -3 14 0 1 -2 -4)
1969/12/31/18:00:15.030000,(0 5 0 3 4 2 0 0)
1969/12/31/18:00:15.030000,(2 1 -1 3 3 0 -2 0)
1969/12/31/18:00:15.031000,(3 4 9 11 -1 1 2 2)
1969/12/31/18:00:15.031000,(-5 -7 -7 -18 -19 -9 -3 -2)
1969/12/31/18:00:15.052000,(-3 -2 -12 -19 5 -3 -5 -4)
1969/12/31/18:00:15.052000,(0 0 8 21 9 3 0 0)
1969/12/31/18:00:15.053000,(-3 1 13 14 4 2 -2 -2)
1969/12/31/18:00:15.053000,(3 7 -1 -2 -1 2 2 2)
1969/12/31/18:00:15.075000,(1 -6 -15 -2 -9 -4 -1 1)
1969/12/31/18:00:15.075000,(-2 -4 0 -16 0 1 1 0)
1969/12/31/18:00:15.076000,(1 2 0 23 4 -5 -3 0)
1969/12/31/18:00:15.076000,(-10 -12 -6 -26 -14 -8 -6 -5)
1969/12/31/18:00:15.090000,(4 4 -3 -1 -4 -3 0 -2)
1969/12/31/18:00:15.090000,(0 -2 -2 2 0 -4 0 0)
1969/12/31/18:00:15.090000,(-2 -1 -4 -12 -9 6 2 -3)
1969/12/31/18:00:15.090000,(11 9 14 34 16 2 3 5)
1969/12/31/18:00:15.112000,(-8 -6 4 -10 3 -2 -5 -6)
1969/12/31/18:00:15.112000,(-4 0 -5 -2 1 -3 -4 -6)
1969/12/31/18:00:15.113000,(3 -2 -10 -11 -8 -2 1 2)
1969/12/31/18:00:15.113000,(2 -1 -14 -20 -11 -4 1 0)
1969/12/31/18:00:15.136000,(4 -1 9 23 3 7 7 3)
1969/12/31/18:00:15.136000,(-8 -3 1 11 21 5 -3 -6)
1969/12/31/18:00:15.136000,(5 2 9 13 11 7 5 6)
1969/12/31/18:00:15.136000,(-5 -1 1 -10 -1 -3 -4 -4)
1969/12/31/18:00:15.150000,(5 1 -17 -24 -24 -8 1 3)
1969/12/31/18:00:15.150000,(-5 -4 -4 7 -7 1 3 0)
1969/12/31/18:00:15.150000,(-5 0 11 7 4 -2 -6 -6)
1969/12/31/18:00:15.150000,(-1 0 1 5 -3 -7 -5 -3)
1969/12/31/18:00:15.172000,(-1 3 9 7 3 1 4 4)
1969/12/31/18:00:15.172000,(0 -3 2 1 1 1 1 0)
1969/12/31/18:00:15.173000,(6 2 -16 -26 -14 1 2 5)
1969/12/31/18:00:15.173000,(-1 -2 -5 -11 0 -2 -3 -2)
1969/12/31/18:00:15.195000,(-3 0 1 20 1 -2 -4 -6)
1969/12/31/18:00:15.195000,(8 4 2 11 17 9 6 5)
1969/12/31/18:00:15.196000,(-17 -7 15 13 -4 -10 -14 -14)
1969/12/31/18:00:15.196000,(7 8 -2 -4 11 11 8 7)
1969/12/31/18:00:15.210000,(-6 -12 -9 -7 -3 -1 -5 -4)
1969/12/31/18:00:15.210000,(0 -1 -4 -16 -11 -7 -2 1)
1969/12/31/18:00:15.210000,(5 1 -11 -22 -16 -3 2 3)
1969/12/31/18:00:15.210000,(-3 -4 -3 -7 3 2 -1 -1)
1969/12/31/18:00:15.232000,(0 6 10 16 12 1 -4 -1)
1969/12/31/18:00:15.232000,(-1 2 10 23 2 -2 -4 0)
1969/12/31/18:00:15.233000,(-10 -5 2 -6 -1 -4 -2 -9)
1969/12/31/18:00:15.233000,(5 4 1 5 0 4 3 4)
1969/12/31/18:00:15.246000,(9 1 -9 -8 10 7 6 9)
1969/12/31/18:00:15.246000,(-3 -5 -8 -16 0 -3 -4 -2)
1969/12/31/18:00:15.262000,(1 2 2 -2 -10 -4 -1 -1)
1969/12/31/18:00:15.262000,(-1 -2 -4 3 -5 -2 -1 0)
1969/12/31/18:00:15.270000,(-1 -1 2 0 2 3 1 -2)
1969/12/31/18:00:15.270000,(1 4 4 2 -3 0 1 -1)
1969/12/31/18:00:15.277000,(1 0 -1 -1 1 1 0 0)
1969/12/31/18:00:15.277000,(-1 -2 -1 3 -1 -2 -3 -2)
1969/12/31/18:00:15.292000,(-6 -2 0 2 1 -3 -5 -7)
1969/12/31/18:00:15.292000,(-9 -5 4 -2 -6 -5 -7 -7)
1969/12/31/18:00:15.293000,(12 2 -10 -17 3 10 11 15)
1969/12/31/18:00:15.293000,(4 1 -1 19 9 3 1 1)
1969/12/31/18:00:15.306000,(1 0 1 3 -9 -4 -1 -1)
1969/12/31/18:00:15.306000,(-4 -5 -3 -9 -6 -3 -1 -4)
1969/12/31/18:00:15.314000,(-2 3 6 15 7 -1 -2 -2)
1969/12/31/18:00:15.314000,(0 -1 -2 0 10 5 3 0)
1969/12/31/18:00:15.330000,(-3 -2 -4 -16 -2 -2 -2 1)
1969/12/31/18:00:15.330000,(4 3 -3 2 -9 0 4 1)
1969/12/31/18:00:15.338000,(0 3 12 12 15 9 3 3)
1969/12/31/18:00:15.338000,(-2 -2 0 7 -1 -5 -4 -2)
1969/12/31/18:00:15.352000,(-2 -1 -2 -7 -8 -4 -4 -4)
1969/12/31/18:00:15.353000,(3 1 -3 0 2 2 1 2)
1969/12/31/18:00:15.360000,(-1 -1 -2 -7 -7 -3 1 0)
1969/12/31/18:00:15.360000,(-4 0 2 -3 -4 0 -3 -3)
1969/12/31/18:00:15.375000,(-1 -2 -4 -2 2 2 2 0)
1969/12/31/18:00:15.375000,(2 2 -2 0 4 -1 -3 -1)
1969/12/31/18:00:15.376000,(0 -3 -1 2 -2 -1 0 1)
1969/12/31/18:00:15.376000,(1 -1 1 -6 -6 -1 -1 -1)
1969/12/31/18:00:15.390000,(-2 -3 -4 1 0 -1 -1 1)
1969/12/31/18:00:15.390000,(4 3 2 0 7 4 2 3)
1969/12/31/18:00:15.390000,(-4 -5 -7 -10 -9 -5 -4 -5)
1969/12/31/18:00:15.390000,(0 1 -1 -13 -16 -7 -2 -1)
1969/12/31/18:00:15.413000,(5 4 7 23 13 4 4 6)
1969/12/31/18:00:15.413000,(-4 0 10 1 -10 1 1 -2)
1969/12/31/18:00:15.420000,(-4 -2 1 9 40 5 -5 -3)
1969/12/31/18:00:15.420000,(2 2 -5 -3 -3 0 4 2)
1969/12/31/18:00:15.436000,(2 1 -4 -5 -2 -5 -2 0)
1969/12/31/18:00:15.436000,(-1 -4 -2 -5 -7 -3 -2 -2)
1969/12/31/18:00:15.437000,(0 1 -4 -5 -18 -6 -2 -1)
1969/12/31/18:00:15.437000,(-2 -4 -1 0 2 -2 -2 -1)
1969/12/31/18:00:15.450000,(1 0 1 -3 -2 0 0 3)
1969/12/31/18:00:15.450000,(2 2 -1 -3 1 -1 2 2)
1969/12/31/18:00:15.450000,(-5 -4 -2 -1 -8 -4 -3 -5)
1969/12/31/18:00:15.450000,(-1 -1 2 5 6 1 -2 -2)
1969/12/31/18:00:15.472000,(-4 -1 0 -2 -5 0 -2 -4)
1969/12/31/18:00:15.472000,(2 0 -1 0 4 1 2 1)
1969/12/31/18:00:15.473000,(3 2 -1 2 -2 0 1 2)
1969/12/31/18:00:15.473000,(-1 0 0 -2 -5 1 2 2)
1969/12/31/18:00:15.496000,(0 -1 -3 -4 1 -1 -3 -2)
1969/12/31/18:00:15.496000,(0 0 -3 -2 5 1 -1 -1)
1969/12/31/18:00:15.497000,(0 1 -2 0 -7 -1 -1 -1)
1969/12/31/18:00:15.497000,(-2 -4 2 1 -1 0 -3 -2)
1969/12/31/18:00:15.509000,(0 1 0 -3 0 0 4 2)
1969/12/31/18:00:15.509000,(0 0 -1 0 4 -1 0 -1)
1969/12/31/18:00:15.510000,(0 0 -1 -3 -7 0 2 1)
1969/12/31/18:00:15.510000,(0 -2 -2 1 3 0 -3 -2)
1969/12/31/18:00:15.532000,(-1 1 1 2 2 0 -1 -1)
1969/12/31/18:00:15.532000,(0 -2 -3 -2 -1 0 -3 2)
1969/12/31/18:00:15.533000,(1 2 0 0 -5 -1 3 2)
1969/12/31/18:00:15.533000,(2 2 0 -1 0 -1 1 3)
1969/12/31/18:00:15.555000,(-2 -2 0 -1 0 1 1 0)
1969/12/31/18:00:15.555000,(-5 -3 -2 1 3 0 -2 0)
1969/12/31/18:00:15.556000,(3 2 1 -1 -1 -3 -4 -1)
1969/12/31/18:00:15.556000,(-3 -1 0 2 5 -1 -3 -4)
1969/12/31/18:00:15.578000,(1 -1 0 -3 -3 -1 3 0)
1969/12/31/18:00:15.578000,(-3 0 1 -1 1 -3 -5 -3)
1969/12/31/18:00:15.585000,(-1 -1 -1 -1 -1 -2 0 -1)
1969/12/31/18:00:15.585000,(0 -1 1 0 -3 -2 3 1)
1969/12/31/18:00:15.592000,(-2 -3 -2 -1 2 -2 -2 -4)
1969/12/31/18:00:15.592000,(5 0 -1 -1 1 2 2 2)
1969/12/31/18:00:15.593000,(0 -3 -1 1 -1 2 0 0)
1969/12/31/18:00:15.593000,(-2 -1 -1 -1 -1 -1 -3 -2)
1969/12/31/18:00:15.615000,(-4 -2 -2 -1 -1 1 -1 -1)
1969/12/31/18:00:15.616000,(0 -1 -1 -1 -1 -1 -1 -3)
1969/12/31/18:00:15.616000,(-1 -1 1 -1 -1 -1 -3 -2)
1969/12/31/18:00:15.616000,(0 -1 -1 -1 -2 0 -2 -2)
1969/12/31/18:00:15.630000,(0 0 0 -2 1 -2 2 0)
1969/12/31/18:00:15.630000,(0 1 -1 -1 0 -1 -2 1)
1969/12/31/18:00:15.637000,(-3 -1 -2 0 0 -2 -3 -6)
1969/12/31/18:00:15.637000,(-1 -1 1 1 1 -3 5 4)
1969/12/31/18:00:15.652000,(3 0 1 -1 1 3 1 2)
1969/12/31/18:00:15.652000,(0 0 2 1 -1 -1 1 -1)
1969/12/31/18:00:15.653000,(-1 0 -1 -2 -2 -2 -1 -1)
1969/12/31/18:00:15.653000,(-2 0 -2 0 0 -1 -1 -2)
1969/12/31/18:00:15.675000,(0 1 -1 -2 -1 -2 0 -1)
1969/12/31/18:00:15.675000,(1 1 -1 0 0 1 1 1)
1969/12/31/18:00:15.676000,(2 1 1 -3 -3 0 5 3)
1969/12/31/18:00:15.676000,(1 -1 0 0 -2 -1 -3 -2)
1969/12/31/18:00:15.676000,(8 14 -4 -64 -17 -6 0 4)
1969/12/31/18:00:15.676000,(7 5 -14 -43 -35 -14 -9 0)
1969/12/31/18:00:15.685000,(-4 -2 20 67 42 12 7 0)
1969/12/31/18:00:15.685000,(-3 -5 -7 4 -35 3 6 1)
1969/12/31/18:00:15.700000,(-5 -7 -31 -6 56 6 -2 -5)
1969/12/31/18:00:15.700000,(4 3 40 61 20 9 9 6)
1969/12/31/18:00:15.701000,(-4 2 1 -50 -60 -16 -7 -3)
1969/12/31/18:00:15.701000,(1 1 9 14 14 2 -1 1)
1969/12/31/18:00:15.722000,(1 4 16 56 7 4 0 -1)
1969/12/31/18:00:15.722000,(-16 -20 -49 -70 -31 -19 -11 -13)
1969/12/31/18:00:15.724000,(12 6 1 -6 26 14 9 6)
1969/12/31/18:00:15.724000,(-5 -6 0 34 -1 -5 -1 -3)
1969/12/31/18:00:15.736000,(-2 -1 -2 -43 -24 -8 -5 -4)
1969/12/31/18:00:15.736000,(3 7 -2 1 1 -5 -1 -1)
1969/12/31/18:00:15.752000,(-6 -14 -30 -80 -50 -20 -9 -6)
1969/12/31/18:00:15.752000,(0 8 29 49 12 6 2 1)
1969/12/31/18:00:15.760000,(2 3 13 -10 42 19 8 3)
1969/12/31/18:00:15.760000,(0 0 7 52 21 5 4 1)
1969/12/31/18:00:15.761000,(3 3 -4 -2 7 2 1 3)
1969/12/31/18:00:15.761000,(5 1 -7 -20 -5 -1 1 3)
1969/12/31/18:00:15.782000,(-6 -6 3 6 -3 0 -1 -4)
1969/12/31/18:00:15.782000,(2 -1 -15 -57 -22 -11 -1 0)
1969/12/31/18:00:15.784000,(2 0 -7 6 18 5 -1 0)
1969/12/31/18:00:15.784000,(4 7 13 -2 -26 -5 -1 1)
1969/12/31/18:00:15.796000,(-2 2 19 100 63 14 3 0)
1969/12/31/18:00:15.796000,(-8 -9 -16 -46 -7 -6 -5 -6)
1969/12/31/18:00:15.805000,(4 2 1 34 -3 0 1 1)
1969/12/31/18:00:15.805000,(-3 0 8 14 12 -1 -2 -2)
1969/12/31/18:00:15.819000,(4 3 -9 -28 -25 -4 3 2)
1969/12/31/18:00:15.819000,(-1 0 -3 -6 -8 -2 -1 -2)
1969/12/31/18:00:15.826000,(-1 1 5 4 8 2 0 2)
1969/12/31/18:00:15.826000,(0 -1 3 21 15 3 0 -1)
1969/12/31/18:00:15.844000,(-7 -6 -11 -19 -24 -8 -6 -3)
1969/12/31/18:00:15.844000,(4 2 -3 -23 0 0 2 4)
1969/12/31/18:00:15.845000,(-5 -5 -4 -3 -11 -3 -2 -2)
1969/12/31/18:00:15.845000,(-2 2 5 -7 6 0 -1 -2)
1969/12/31/18:00:15.856000,(6 7 10 21 -5 4 2 3)
1969/12/31/18:00:15.856000,(-3 -5 -7 -12 -4 -5 1 3)
1969/12/31/18:00:15.865000,(1 1 0 11 4 6 2 -1)
1969/12/31/18:00:15.865000,(-9 -5 5 4 17 1 -7 -13)
1969/12/31/18:00:15.879000,(-3 -6 -6 -13 -12 -7 -3 -3)
1969/12/31/18:00:15.880000,(-3 -1 -4 -8 -8 -5 -3 -1)
1969/12/31/18:00:15.886000,(1 -3 -3 -3 0 -1 0 4)
1969/12/31/18:00:15.886000,(6 4 4 21 7 6 7 8)
1969/12/31/18:00:15.902000,(-4 -2 1 -8 -8 -2 -2 -4)
1969/12/31/18:00:15.902000,(1 -2 -6 -16 -5 -3 -1 0)
1969/12/31/18:00:15.904000,(-3 -1 2 4 9 3 1 -1)
1969/12/31/18:00:15.904000,(0 3 2 25 8 -1 -2 3)
1969/12/31/18:00:15.916000,(11 6 1 -14 -17 -5 0 5)
1969/12/31/18:00:15.916000,(-33 -14 3 14 9 5 -4 -22)
1969/12/31/18:00:15.925000,(11 -7 -9 -27 -12 -6 -4 -1)
1969/12/31/18:00:15.925000,(2 7 -2 9 9 7 3 -1)
1969/12/31/18:00:15.939000,(-3 -7 -9 -15 -13 -13 -7 -1)
1969/12/31/18:00:15.939000,(21 16 7 14 10 8 10 8)
1969/12/31/18:00:15.946000,(-14 1 0 -13 -17 -9 -6 2)
1969/12/31/18:00:15.946000,(33 -7 -8 2 -1 5 15 28)
1969/12/31/18:00:15.962000,(-31 -8 8 -1 9 6 -11 -32)
1969/12/31/18:00:15.962000,(-12 -13 -6 7 3 -5 -12 -11)
1969/12/31/18:00:15.964000,(-9 7 5 -11 0 3 1 -1)
1969/12/31/18:00:15.964000,(15 4 3 15 6 -2 1 11)
1969/12/31/18:00:15.976000,(-9 -15 -8 -10 -10 -3 1 7)
1969/12/31/18:00:15.976000,(-19 -15 -3 -7 -11 -5 -7 -14)
1969/12/31/18:00:15.985000,(70 38 2 -13 -8 7 11 19)
1969/12/31/18:00:15.985000,(-7 2 -1 14 4 -5 -10 -8)
1969/12/31/18:00:15.999000,(14 11 -1 -6 -5 -1 5 6)
1969/12/31/18:00:15.999000,(-13 -9 -6 -14 -21 -6 -3 5)
1969/12/31/18:00:16.006000,(-15 -11 2 14 26 15 13 3)
1969/12/31/18:00:16.006000,(-5 12 6 2 3 -2 -5 -13)
1969/12/31/18:00:16.022000,(-38 -29 -5 7 3 -4 -10 -11)
1969/12/31/18:00:16.022000,(14 2 3 -5 -4 0 4 3)
1969/12/31/18:00:16.024000,(15 11 -3 -5 -6 -2 0 11)
1969/12/31/18:00:16.024000,(-6 3 0 1 4 3 1 -8)
1969/12/31/18:00:16.036000,(-8 -8 -2 1 -4 -4 -2 -4)
1969/12/31/18:00:16.036000,(10 10 -5 -18 -20 -7 1 5)
1969/12/31/18:00:16.045000,(-32 -32 -10 -3 0 -11 -16 -22)
1969/12/31/18:00:16.045000,(-7 -7 7 26 20 6 2 2)
1969/12/31/18:00:16.059000,(5 7 -12 -49 -25 0 2 4)
1969/12/31/18:00:16.059000,(11 11 25 100 40 6 4 7)
1969/12/31/18:00:16.067000,(-6 4 9 16 8 6 5 0)
1969/12/31/18:00:16.067000,(-17 -20 -8 -18 -3 0 -1 -10)
1969/12/31/18:00:16.083000,(-6 -4 -2 -16 -2 0 9 10)
1969/12/31/18:00:16.083000,(6 2 -10 -36 -2 11 9 -1)
1969/12/31/18:00:16.085000,(35 47 11 3 -12 -16 -21 -7)
1969/12/31/18:00:16.085000,(21 -1 5 3 9 13 18 14)
1969/12/31/18:00:16.096000,(-8 0 -8 1 -16 -9 -10 -12)
1969/12/31/18:00:16.096000,(4 -27 -12 -19 -7 -2 11 23)
1969/12/31/18:00:16.105000,(-15 13 9 19 11 12 2 -14)
1969/12/31/18:00:16.105000,(3 6 -9 -19 -13 -7 -8 -4)
1969/12/31/18:00:16.119000,(28 15 0 1 7 6 5 8)
1969/12/31/18:00:16.119000,(-22 -3 -8 -46 -39 -11 -4 -7)
1969/12/31/18:00:16.126000,(-1 -14 0 26 29 3 6 8)
1969/12/31/18:00:16.126000,(3 9 17 48 14 4 -2 1)
1969/12/31/18:00:16.142000,(-9 -3 10 26 18 7 1 -8)
1969/12/31/18:00:16.142000,(0 5 -4 -12 0 -3 -6 -2)
1969/12/31/18:00:16.144000,(-53 -49 -14 -30 -27 -9 -5 -9)
1969/12/31/18:00:16.144000,(58 53 6 -15 2 10 16 18)
1969/12/31/18:00:16.165000,(1 -20 -10 16 5 -7 -10 -2)
1969/12/31/18:00:16.165000,(9 8 3 -4 4 3 0 0)
1969/12/31/18:00:16.166000,(18 3 1 -6 -3 2 9 15)
1969/12/31/18:00:16.166000,(-38 -10 -6 -5 -11 -15 -17 -17)
1969/12/31/18:00:16.179000,(39 6 3 1 -1 5 9 24)
1969/12/31/18:00:16.179000,(-16 -3 -4 1 3 -2 -10 -20)
1969/12/31/18:00:16.187000,(-17 -21 -11 -31 -19 -10 -8 -2)
1969/12/31/18:00:16.187000,(-5 -8 -7 2 -12 -4 1 7)
1969/12/31/18:00:16.202000,(14 27 17 17 8 10 8 4)
1969/12/31/18:00:16.202000,(-9 -6 10 40 30 5 -4 -6)
1969/12/31/18:00:16.204000,(-4 1 6 27 16 7 1 -4)
1969/12/31/18:00:16.204000,(4 -4 -14 -57 -9 -2 1 4)
1969/12/31/18:00:16.225000,(-10 -8 -9 5 -22 -8 -1 -5)
1969/12/31/18:00:16.225000,(6 10 10 32 17 2 0 0)
1969/12/31/18:00:16.226000,(15 16 -5 -26 -20 -4 0 1)
1969/12/31/18:00:16.226000,(-34 -22 0 9 -4 -8 -11 -13)
1969/12/31/18:00:16.239000,(-7 -22 -8 -12 5 1 3 10)
1969/12/31/18:00:16.239000,(18 17 2 -5 -2 2 -1 -10)
1969/12/31/18:00:16.247000,(12 12 -3 2 -5 -9 -9 -7)
1969/12/31/18:00:16.247000,(8 2 -3 -13 -6 -4 -8 -11)
1969/12/31/18:00:16.262000,(-20 -9 -4 -1 -2 -11 -9 -10)
1969/12/31/18:00:16.262000,(9 4 -2 -19 -11 1 7 16)
1969/12/31/18:00:16.264000,(-7 -13 -12 -27 -22 -14 -5 -4)
1969/12/31/18:00:16.264000,(-13 -12 -7 -8 -16 -8 -1 1)
1969/12/31/18:00:16.285000,(6 10 -7 1 42 20 7 0)
1969/12/31/18:00:16.285000,(7 10 44 95 61 26 9 6)
1969/12/31/18:00:16.286000,(-4 0 22 51 48 17 5 -1)
1969/12/31/18:00:16.286000,(-8 -9 -5 -34 -38 -12 -4 -5)
1969/12/31/18:00:16.299000,(4 6 -11 -27 -32 -20 -5 -3)
1969/12/31/18:00:16.299000,(-7 -8 -23 -54 -23 -14 -7 -5)
1969/12/31/18:00:16.307000,(8 -8 -10 -6 -11 -1 9 22)
1969/12/31/18:00:16.307000,(8 13 10 9 18 14 10 2)
1969/12/31/18:00:16.322000,(-2 0 -3 -19 -14 -10 -23 -28)
1969/12/31/18:00:16.322000,(-1 0 -9 -17 -16 -11 -8 -4)
1969/12/31/18:00:16.324000,(-1 -5 2 7 -2 0 -2 -4)
1969/12/31/18:00:16.324000,(8 4 -3 -5 -5 -4 -1 9)
1969/12/31/18:00:16.345000,(8 13 6 -1 -3 -11 3 13)
1969/12/31/18:00:16.345000,(-16 -22 -21 -101 -100 -49 -19 -13)
1969/12/31/18:00:16.346000,(-4 0 3 72 23 23 4 -5)
1969/12/31/18:00:16.346000,(-9 -6 10 15 99 52 12 3)
1969/12/31/18:00:16.358000,(13 14 12 35 -23 14 14 11)
1969/12/31/18:00:16.358000,(-7 -13 11 19 14 17 4 3)
1969/12/31/18:00:16.367000,(31 31 -3 13 71 21 8 19)
1969/12/31/18:00:16.367000,(-64 -19 12 35 15 4 -10 -37)
1969/12/31/18:00:16.382000,(14 -15 -4 -22 -18 -22 -10 2)
1969/12/31/18:00:16.382000,(2 -11 -30 -56 -93 -38 -16 -12)
1969/12/31/18:00:16.384000,(-13 -12 2 -20 -9 -5 4 2)
1969/12/31/18:00:16.384000,(14 -12 -3 19 25 9 3 3)
1969/12/31/18:00:16.405000,(20 40 -4 -15 8 -1 1 8)
1969/12/31/18:00:16.405000,(-5 3 2 8 -9 -4 3 -1)
1969/12/31/18:00:16.406000,(-23 -32 -5 -10 -20 -5 -2 -7)
1969/12/31/18:00:16.406000,(18 16 -1 -13 -18 -16 -2 7)
1969/12/31/18:00:16.418000,(-12 -9 -3 -27 -25 -8 2 -2)
1969/12/31/18:00:16.418000,(5 -2 -8 -2 3 9 3 6)
1969/12/31/18:00:16.427000,(2 9 17 27 32 16 6 -2)
1969/12/31/18:00:16.427000,(3 -2 1 10 9 0 1 4)
1969/12/31/18:00:16.442000,(-2 -5 3 13 -4 -3 -8 -2)
1969/12/31/18:00:16.442000,(4 20 7 19 20 3 7 2)
1969/12/31/18:00:16.444000,(-19 -10 -12 -39 -41 -18 -14 -18)
1969/12/31/18:00:16.444000,(-3 -5 -13 -52 -20 -14 -11 -11)
1969/12/31/18:00:16.472000,(-4 -18 -7 -21 -2 15 6 0)
1969/12/31/18:00:16.472000,(28 28 7 71 43 2 5 15)
1969/12/31/18:00:16.474000,(-4 2 22 39 -5 -1 -1 -5)
1969/12/31/18:00:16.474000,(-3 -8 5 29 14 8 0 1)
1969/12/31/18:00:16.478000,(-9 7 9 13 52 24 8 -4)
1969/12/31/18:00:16.478000,(-14 -15 -18 -57 -20 -10 -6 -5)
1969/12/31/18:00:16.487000,(9 -14 -17 -40 -54 -16 3 9)
1969/12/31/18:00:16.487000,(20 29 1 15 -5 -7 4 9)
1969/12/31/18:00:16.502000,(2 10 5 -17 2 -1 -2 -4)
1969/12/31/18:00:16.502000,(-13 -18 2 22 13 3 -4 -4)
1969/12/31/18:00:16.504000,(0 9 -2 -8 5 -1 -1 -7)
1969/12/31/18:00:16.504000,(7 -5 -1 -10 -20 0 11 14)
1969/12/31/18:00:16.525000,(-4 0 2 12 -3 -4 -2 -6)
1969/12/31/18:00:16.525000,(1 -1 6 5 14 7 -1 -3)
1969/12/31/18:00:16.526000,(6 3 -3 -18 -27 -13 2 7)
1969/12/31/18:00:16.526000,(-1 5 -5 -5 -9 -5 0 1)
1969/12/31/18:00:16.547000,(2 0 0 12 34 16 4 1)
1969/12/31/18:00:16.547000,(1 -6 2 25 34 25 12 10)
1969/12/31/18:00:16.549000,(-11 -8 4 10 1 -4 -9 -9)
1969/12/31/18:00:16.549000,(11 23 1 -25 -48 -27 -7 3)
1969/12/31/18:00:16.562000,(-12 -19 1 32 -13 -5 -1 -8)
1969/12/31/18:00:16.562000,(-3 4 4 -5 31 14 -1 -4)
1969/12/31/18:00:16.564000,(5 7 -3 -14 6 6 3 4)
1969/12/31/18:00:16.564000,(-4 -13 -9 -10 -11 -7 -4 -2)
1969/12/31/18:00:16.585000,(3 2 6 8 -4 -3 0 7)
1969/12/31/18:00:16.585000,(-6 0 2 -4 -7 -3 -4 -9)
1969/12/31/18:00:16.586000,(2 1 -6 -15 -9 -10 -11 -5)
1969/12/31/18:00:16.586000,(-27 -20 -3 0 -6 -9 -11 -18)
1969/12/31/18:00:16.598000,(-1 -6 -19 -64 -77 -27 -5 -1)
1969/12/31/18:00:16.599000,(12 7 6 61 46 25 18 17)
1969/12/31/18:00:16.607000,(-3 -1 13 40 97 38 5 -3)
1969/12/31/18:00:16.607000,(17 6 10 22 26 28 16 18)
1969/12/31/18:00:16.622000,(-10 3 8 14 5 -1 -4 -3)
1969/12/31/18:00:16.622000,(-17 -16 -12 -39 -48 -30 -20 -17)
1969/12/31/18:00:16.624000,(0 -9 -14 -38 -38 -15 1 6)
1969/12/31/18:00:16.624000,(11 7 -5 3 0 -3 2 2)
1969/12/31/18:00:16.645000,(-29 -20 -5 2 -5 -6 -8 -16)
1969/12/31/18:00:16.645000,(17 12 -2 -1 2 -2 -2 6)
1969/12/31/18:00:16.646000,(-25 -2 7 5 16 9 1 -12)
1969/12/31/18:00:16.646000,(17 4 -2 2 -12 -2 -4 0)
1969/12/31/18:00:16.659000,(-9 -6 7 5 4 2 0 -4)
1969/12/31/18:00:16.659000,(-10 -10 -12 -32 -7 -5 -1 -6)
1969/12/31/18:00:16.667000,(25 18 6 41 -4 0 8 14)
1969/12/31/18:00:16.667000,(-16 -11 14 29 15 7 2 -2)
1969/12/31/18:00:16.682000,(11 4 3 5 22 7 3 7)
1969/12/31/18:00:16.682000,(-6 -2 2 -12 -6 -3 -7 -12)
1969/12/31/18:00:16.684000,(7 8 -12 -33 -28 -11 -4 -1)
1969/12/31/18:00:16.684000,(1 2 -8 -31 -19 -9 -2 1)
1969/12/31/18:00:16.712000,(-1 -11 -15 -16 -26 -13 -6 0)
1969/12/31/18:00:16.712000,(-2 1 5 20 16 11 8 6)
1969/12/31/18:00:16.714000,(-10 -11 12 26 34 11 -2 -4)
1969/12/31/18:00:16.714000,(7 2 4 12 16 8 2 2)
1969/12/31/18:00:16.719000,(6 3 6 27 25 15 9 10)
1969/12/31/18:00:16.719000,(-5 -2 -4 -17 -26 -17 -14 -19)
1969/12/31/18:00:16.728000,(-15 -24 -17 -56 -38 -17 -3 -2)
1969/12/31/18:00:16.728000,(6 12 1 11 0 1 1 2)
1969/12/31/18:00:16.742000,(3 -1 -2 17 5 0 0 8)
1969/12/31/18:00:16.742000,(0 0 4 16 14 12 10 4)
1969/12/31/18:00:16.744000,(-9 -6 2 -15 -4 -1 -3 -9)
1969/12/31/18:00:16.744000,(-13 -24 -18 -11 -15 -11 -7 -1)
1969/12/31/18:00:16.765000,(-20 -11 6 -4 6 5 1 -8)
1969/12/31/18:00:16.765000,(14 13 -1 13 7 7 7 8)
1969/12/31/18:00:16.767000,(13 18 1 -4 -2 -2 -3 -1)
1969/12/31/18:00:16.767000,(-14 -21 -7 -14 -18 -12 -9 -7)
1969/12/31/18:00:16.778000,(-37 -33 -2 10 8 0 -5 -13)
1969/12/31/18:00:16.778000,(49 36 5 -3 4 4 7 21)
1969/12/31/18:00:16.787000,(3 10 1 -1 -15 -4 1 1)
1969/12/31/18:00:16.787000,(5 4 -4 -7 -3 -2 -1 0)
1969/12/31/18:00:16.802000,(17 16 12 19 23 8 4 6)
1969/12/31/18:00:16.802000,(-26 -23 -7 -38 -17 -8 -6 -7)
1969/12/31/18:00:16.804000,(13 6 -19 -17 -22 -7 0 7)
1969/12/31/18:00:16.804000,(6 10 27 80 29 7 2 0)
1969/12/31/18:00:16.825000,(7 -4 2 -3 14 0 1 9)
1969/12/31/18:00:16.825000,(-23 1 7 23 13 10 1 -18)
1969/12/31/18:00:16.826000,(-59 -58 -10 -24 -17 -9 -5 -13)
1969/12/31/18:00:16.826000,(51 51 -11 -36 -7 4 9 10)
1969/12/31/18:00:16.847000,(21 16 -5 -15 -7 -3 -4 6)
1969/12/31/18:00:16.847000,(5 -1 5 9 4 2 1 3)
1969/12/31/18:00:16.849000,(13 9 -2 -9 -1 -6 -5 -2)
1969/12/31/18:00:16.849000,(-43 -37 -3 9 2 4 4 -11)
1969/12/31/18:00:16.862000,(4 16 3 3 -5 -4 -3 2)
1969/12/31/18:00:16.862000,(-6 -11 4 4 6 5 4 2)
1969/12/31/18:00:16.868000,(33 27 -2 -32 -2 5 3 4)
1969/12/31/18:00:16.868000,(-9 -12 0 25 5 -6 -7 -4)
1969/12/31/18:00:16.885000,(7 15 2 -9 -3 -1 -3 -6)
1969/12/31/18:00:16.885000,(-22 -27 0 12 2 4 8 9)
1969/12/31/18:00:16.886000,(11 11 12 31 17 -1 -4 -1)
1969/12/31/18:00:16.886000,(6 4 -25 -59 -25 -15 -14 1)
1969/12/31/18:00:16.898000,(-21 -14 3 17 -4 4 4 -21)
1969/12/31/18:00:16.898000,(-4 -8 1 3 4 2 4 8)
1969/12/31/18:00:16.907000,(-6 -20 -4 -6 2 4 2 5)
1969/12/31/18:00:16.907000,(28 38 13 11 2 -2 -3 -4)
1969/12/31/18:00:16.922000,(-77 -68 -20 -13 -9 -12 -16 -30)
1969/12/31/18:00:16.922000,(86 76 5 -9 0 1 11 34)
1969/12/31/18:00:16.928000,(17 7 -2 22 5 7 4 9)
1969/12/31/18:00:16.928000,(-34 -21 1 -14 -8 -6 -12 -20)
1969/12/31/18:00:16.945000,(5 -8 -16 -49 -24 -9 -3 -1)
1969/12/31/18:00:16.945000,(-11 -12 4 23 1 -1 2 -3)
1969/12/31/18:00:16.946000,(15 13 14 43 19 6 6 14)
1969/12/31/18:00:16.946000,(-14 -21 2 14 10 1 0 -5)
1969/12/31/18:00:16.958000,(30 42 27 62 38 20 17 19)
1969/12/31/18:00:16.959000,(-18 -19 -20 -57 -22 -15 -20 -15)
1969/12/31/18:00:16.967000,(-31 -29 -1 16 -8 -5 -2 -6)
1969/12/31/18:00:16.967000,(17 21 -2 -13 2 6 7 3)
1969/12/31/18:00:16.982000,(12 2 -12 -36 -9 -2 0 2)
1969/12/31/18:00:16.982000,(-7 -2 0 23 -3 -3 1 0)
1969/12/31/18:00:16.988000,(-31 -46 -8 -2 2 -2 -5 -16)
1969/12/31/18:00:16.988000,(5 23 0 -60 -14 8 17 22)
1969/12/31/18:00:17.005000,(13 16 -2 42 1 -6 -10 -13)
1969/12/31/18:00:17.005000,(-10 -15 17 50 21 0 -6 -8)
1969/12/31/18:00:17.006000,(6 18 2 -11 -4 -4 -1 -1)
1969/12/31/18:00:17.006000,(-25 -25 -1 2 -3 -2 0 -4)
1969/12/31/18:00:17.018000,(24 25 -9 -26 -12 -4 -6 -1)
1969/12/31/18:00:17.018000,(-10 4 -17 -50 -21 -9 -8 -9)
1969/12/31/18:00:17.027000,(2 6 11 34 -2 1 1 -3)
1969/12/31/18:00:17.027000,(-6 -5 12 51 24 0 -2 0)
1969/12/31/18:00:17.042000,(13 10 9 -2 3 0 3 13)
1969/12/31/18:00:17.042000,(-21 -22 -1 -4 2 1 -5 -15)
1969/12/31/18:00:17.049000,(0 7 -16 -37 -13 -11 -15 -14)
1969/12/31/18:00:17.049000,(6 -7 -3 -28 -16 2 4 5)
1969/12/31/18:00:17.065000,(9 8 4 7 4 0 3 5)
1969/12/31/18:00:17.065000,(-20 -26 -1 7 5 0 0 0)
1969/12/31/18:00:17.066000,(17 25 3 4 5 0 1 6)
1969/12/31/18:00:17.066000,(-7 -2 2 8 3 8 5 -11)
1969/12/31/18:00:17.087000,(-22 -32 -17 -40 -7 -4 -8 -6)
1969/12/31/18:00:17.087000,(33 39 -14 -30 -23 -4 5 16)
1969/12/31/18:00:17.089000,(-10 0 29 82 33 5 1 1)
1969/12/31/18:00:17.089000,(-11 -11 1 22 4 -9 -12 -13)
1969/12/31/18:00:17.102000,(-20 -20 6 19 8 8 11 1)
1969/12/31/18:00:17.102000,(22 17 -3 -26 1 2 0 14)
1969/12/31/18:00:17.109000,(-3 -11 -13 -40 -20 -3 -1 -3)
1969/12/31/18:00:17.109000,(10 -14 -8 -5 -4 -2 -1 4)
1969/12/31/18:00:17.125000,(41 54 5 7 -2 -4 -2 14)
1969/12/31/18:00:17.125000,(-41 -29 -2 -3 -4 -9 -16 -33)
1969/12/31/18:00:17.126000,(20 9 -4 -12 0 3 4 17)
1969/12/31/18:00:17.126000,(-9 -15 -4 -25 -13 -2 -1 6)
1969/12/31/18:00:17.147000,(24 30 1 18 3 1 9 13)
1969/12/31/18:00:17.147000,(-5 -5 23 48 32 22 19 12)
1969/12/31/18:00:17.149000,(5 30 -4 -3 -3 -6 -13 -14)
1969/12/31/18:00:17.149000,(-49 -52 -17 -24 -19 -15 -17 -26)
1969/12/31/18:00:17.161000,(12 1 -3 -9 4 6 -1 0)
1969/12/31/18:00:17.161000,(52 44 3 3 3 5 10 26)
1969/12/31/18:00:17.170000,(-51 -60 -3 -6 0 2 -2 -25)
1969/12/31/18:00:17.170000,(40 54 1 -2 0 -1 1 18)
1969/12/31/18:00:17.185000,(-11 -14 -2 -19 -18 -3 3 -1)
1969/12/31/18:00:17.185000,(2 -1 0 24 11 -5 -3 -6)
1969/12/31/18:00:17.186000,(-14 -29 -1 -3 1 4 6 0)
1969/12/31/18:00:17.186000,(17 41 6 12 2 -4 -2 7)
1969/12/31/18:00:17.207000,(-43 -39 -5 6 -1 -12 -25 -38)
1969/12/31/18:00:17.207000,(3 -9 -5 -17 -7 -1 1 -3)
1969/12/31/18:00:17.209000,(10 7 -10 -19 -12 -5 8 20)
1969/12/31/18:00:17.209000,(-3 -21 -5 12 11 10 4 -7)
1969/12/31/18:00:17.221000,(7 11 9 3 6 8 15 19)
1969/12/31/18:00:17.221000,(2 7 -3 -12 -11 -14 -20 -14)
1969/12/31/18:00:17.230000,(-3 -6 -5 -4 -5 -6 -4 -5)
1969/12/31/18:00:17.230000,(-8 -10 -4 -3 -8 -4 -3 -4)
1969/12/31/18:00:17.245000,(9 3 1 -1 1 1 4 5)
1969/12/31/18:00:17.245000,(-20 -26 -8 -23 -10 2 3 0)
1969/12/31/18:00:17.246000,(24 35 14 53 24 6 6 11)
1969/12/31/18:00:17.246000,(-29 -39 8 12 9 -1 -4 -7)
1969/12/31/18:00:17.267000,(21 13 0 -1 3 6 9 5)
1969/12/31/18:00:17.267000,(46 68 9 -15 -8 7 16 32)
1969/12/31/18:00:17.269000,(0 7 -8 -22 -4 -3 -4 -15)
1969/12/31/18:00:17.269000,(-16 -15 -5 -3 -5 -2 -2 -7)
1969/12/31/18:00:17.281000,(-15 -23 -4 7 -1 -5 -10 -7)
1969/12/31/18:00:17.281000,(-10 -13 -4 -9 -7 -4 0 1)
1969/12/31/18:00:17.290000,(24 17 1 -10 -5 6 11 17)
1969/12/31/18:00:17.290000,(-8 1 5 8 2 2 1 -6)
1969/12/31/18:00:17.305000,(-20 -10 -5 -3 -5 -8 -10 -10)
1969/12/31/18:00:17.305000,(-13 -10 -4 0 2 -2 -4 -9)
1969/12/31/18:00:17.306000,(10 6 3 -11 -4 12 16 15)
1969/12/31/18:00:17.306000,(2 -10 -2 14 10 2 0 2)
1969/12/31/18:00:17.327000,(8 19 6 12 8 7 10 16)
1969/12/31/18:00:17.327000,(-14 -24 -9 2 -8 -16 -14 -8)
1969/12/31/18:00:17.329000,(2 2 4 -6 -4 -2 -6 -7)
1969/12/31/18:00:17.329000,(22 14 -5 -13 -4 2 7 17)
1969/12/31/18:00:17.342000,(5 9 1 -1 1 3 -1 -2)
1969/12/31/18:00:17.342000,(-35 -28 -6 8 -2 -10 -15 -24)
1969/12/31/18:00:17.350000,(6 1 3 -9 -2 3 6 12)
1969/12/31/18:00:17.350000,(15 34 -2 -7 -6 1 8 11)
1969/12/31/18:00:17.365000,(-12 -18 -2 0 -3 -10 -14 -14)
1969/12/31/18:00:17.365000,(18 17 4 6 5 4 1 3)
1969/12/31/18:00:17.366000,(-15 3 1 2 -3 -6 -8 -18)
1969/12/31/18:00:17.366000,(-21 -41 6 5 6 3 -2 -5)
1969/12/31/18:00:17.387000,(48 48 8 3 7 12 22 32)
1969/12/31/18:00:17.387000,(-13 0 -7 -6 -5 -3 -3 -10)
1969/12/31/18:00:17.389000,(12 -11 -2 1 6 8 13 20)
1969/12/31/18:00:17.389000,(5 10 1 -4 -4 -4 -4 -6)
1969/12/31/18:00:17.401000,(-18 -18 -1 -5 -5 -5 -6 -7)
1969/12/31/18:00:17.401000,(13 8 -1 -7 -5 5 9 11)
1969/12/31/18:00:17.410000,(-6 0 -1 7 -6 -12 -15 -13)
1969/12/31/18:00:17.410000,(13 16 9 21 19 7 10 4)
1969/12/31/18:00:17.432000,(-8 -7 0 4 4 6 0 -6)
1969/12/31/18:00:17.432000,(-25 -28 -2 9 7 -5 -8 -12)
1969/12/31/18:00:17.434000,(2 10 -16 -17 -8 -2 -4 -6)
1969/12/31/18:00:17.434000,(23 26 0 -21 -20 -10 -9 4)
1969/12/31/18:00:17.447000,(-20 -23 -6 -4 1 0 -2 -9)
1969/12/31/18:00:17.447000,(-11 -15 2 -1 1 5 1 -8)
1969/12/31/18:00:17.449000,(13 13 1 1 -1 0 8 15)
1969/12/31/18:00:17.449000,(-32 -40 -5 -5 -4 -2 -4 -6)
1969/12/31/18:00:17.461000,(70 84 10 0 0 3 11 29)
1969/12/31/18:00:17.461000,(13 1 8 12 9 11 17 17)
1969/12/31/18:00:17.470000,(-26 -28 -4 -1 0 1 -8 -21)
1969/12/31/18:00:17.470000,(19 12 -3 2 0 0 1 7)
1969/12/31/18:00:17.485000,(-42 -31 -7 -8 -3 1 2 -12)
1969/12/31/18:00:17.485000,(7 11 4 -1 1 -3 -10 -3)
1969/12/31/18:00:17.486000,(0 -6 1 0 3 2 6 5)
1969/12/31/18:00:17.486000,(-10 4 -6 -13 -8 -3 -6 -13)
1969/12/31/18:00:17.507000,(-13 -32 -1 2 -2 -2 1 2)
1969/12/31/18:00:17.507000,(58 58 15 21 21 20 31 43)
1969/12/31/18:00:17.509000,(-12 -3 -4 -4 1 -8 -16 -20)
1969/12/31/18:00:17.509000,(-15 -18 -1 -4 -18 -4 -3 -6)
1969/12/31/18:00:17.530000,(-2 -7 -6 -6 -11 -9 -12 -10)
1969/12/31/18:00:17.530000,(-19 -3 3 -3 -1 7 15 -1)
1969/12/31/18:00:17.531000,(35 14 7 7 12 7 10 23)
1969/12/31/18:00:17.531000,(16 14 1 -1 5 4 3 5)
1969/12/31/18:00:17.545000,(-17 -8 -5 -1 2 0 1 -7)
1969/12/31/18:00:17.545000,(-29 -21 -10 -8 -12 -15 -24 -33)
1969/12/31/18:00:17.546000,(-25 -19 -13 -16 -15 -9 -8 -12)
1969/12/31/18:00:17.546000,(4 2 1 10 13 3 1 3)
1969/12/31/18:00:17.567000,(-9 -12 5 13 2 0 -1 1)
1969/12/31/18:00:17.567000,(33 33 -4 -6 -5 -9 -6 16)
1969/12/31/18:00:17.569000,(-31 -14 -2 -6 -9 -10 -22 -37)
1969/12/31/18:00:17.569000,(-6 -12 -9 -6 -5 -9 -7 -6)
1969/12/31/18:00:17.581000,(-2 -7 -1 -7 -2 2 0 -6)
1969/12/31/18:00:17.581000,(8 8 -3 -3 -6 -6 -6 0)
1969/12/31/18:00:17.590000,(-14 -2 6 -1 -9 -3 -5 -11)
1969/12/31/18:00:17.590000,(17 19 3 14 17 9 13 15)
1969/12/31/18:00:17.605000,(-3 -10 -2 10 10 6 2 1)
1969/12/31/18:00:17.605000,(-15 -20 0 -11 -9 -1 -4 -11)
1969/12/31/18:00:17.606000,(8 6 -7 -3 -2 -2 4 12)
1969/12/31/18:00:17.606000,(-9 -7 2 0 -3 -6 -4 -4)
1969/12/31/18:00:17.627000,(1 18 10 11 10 9 6 -1)
1969/12/31/18:00:17.627000,(-19 -30 -8 1 4 2 -6 -11)
1969/12/31/18:00:17.629000,(10 0 -1 -10 -11 -4 3 22)
1969/12/31/18:00:17.629000,(-23 -12 -12 -11 -12 -11 -18 -31)
1969/12/31/18:00:17.641000,(16 18 -9 -11 -6 -5 3 8)
1969/12/31/18:00:17.641000,(-2 5 7 0 -6 -9 -20 -31)
1969/12/31/18:00:17.650000,(7 0 2 9 8 6 11 20)
1969/12/31/18:00:17.650000,(21 21 3 2 10 9 12 17)
1969/12/31/18:00:17.665000,(-10 -22 -6 -15 -17 -11 -11 -3)
1969/12/31/18:00:17.665000,(-6 -10 -7 -4 -9 -6 -2 -1)
1969/12/31/18:00:17.666000,(16 18 11 11 13 8 10 9)
1969/12/31/18:00:17.666000,(10 9 9 5 5 10 13 14)
1969/12/31/18:00:17.687000,(2 -3 -1 -3 -1 0 1 -3)
1969/12/31/18:00:17.687000,(-29 -27 -10 -15 -7 -6 -5 -7)
1969/12/31/18:00:17.689000,(39 24 7 -4 -3 12 20 27)
1969/12/31/18:00:17.689000,(0 -4 10 36 22 8 7 3)
1969/12/31/18:00:17.701000,(-37 -26 2 17 9 -4 -6 -9)
1969/12/31/18:00:17.701000,(51 60 10 10 11 10 9 6)
1969/12/31/18:00:17.710000,(-17 -21 -10 -15 -9 -6 -6 -8)
1969/12/31/18:00:17.710000,(4 4 -3 -19 -12 -3 0 -2)
1969/12/31/18:00:17.725000,(-4 -6 -7 -19 -14 -6 -3 -5)
1969/12/31/18:00:17.725000,(-8 -21 -6 2 -1 1 5 11)
1969/12/31/18:00:17.727000,(-6 12 7 19 15 -3 -10 -15)
1969/12/31/18:00:17.727000,(7 11 -1 -1 2 3 3 5)
1969/12/31/18:00:17.747000,(13 9 3 -10 8 2 -3 2)
1969/12/31/18:00:17.747000,(-7 -6 -2 1 -9 0 3 4)
1969/12/31/18:00:17.749000,(2 3 -2 3 -5 -1 -4 -4)
1969/12/31/18:00:17.749000,(-18 -8 -6 4 3 -8 -10 -13)
1969/12/31/18:00:17.761000,(13 -14 -15 -25 -16 -8 -5 9)
1969/12/31/18:00:17.761000,(-44 -12 16 22 22 9 -6 -41)
1969/12/31/18:00:17.770000,(-12 3 0 4 -2 -3 -6 -11)
1969/12/31/18:00:17.770000,(-28 -10 5 0 -4 -4 -7 -9)
1969/12/31/18:00:17.792000,(-7 -22 -11 -8 -9 -7 -10 -15)
1969/12/31/18:00:17.792000,(47 32 1 -7 1 3 12 28)
1969/12/31/18:00:17.793000,(-4 -10 -2 1 0 -3 -3 -6)
1969/12/31/18:00:17.793000,(-4 20 1 -9 -4 -3 -8 -12)
1969/12/31/18:00:17.807000,(-5 5 2 -7 -10 1 2 -4)
1969/12/31/18:00:17.807000,(-15 -19 -5 9 14 -5 -5 -1)
1969/12/31/18:00:17.807000,(9 2 -6 -10 -12 -2 4 8)
1969/12/31/18:00:17.807000,(29 2 3 11 3 4 11 24)
1969/12/31/18:00:17.829000,(-7 10 13 27 17 4 -4 -12)
1969/12/31/18:00:17.829000,(2 -5 -5 -30 -10 0 5 7)
1969/12/31/18:00:17.830000,(-10 -10 -5 10 -5 -8 -9 -10)
1969/12/31/18:00:17.830000,(-12 11 0 8 -1 -11 -10 -12)
1969/12/31/18:00:17.843000,(76 68 20 25 24 30 39 57)
1969/12/31/18:00:17.843000,(-32 -32 -15 -9 -5 -10 -18 -23)
1969/12/31/18:00:17.852000,(-11 -8 -5 -19 -9 -3 -4 -9)
1969/12/31/18:00:17.852000,(7 -6 -5 -22 -23 -3 2 5)
1969/12/31/18:00:17.867000,(-11 -14 5 19 15 1 1 -2)
1969/12/31/18:00:17.867000,(16 -7 -8 -1 -1 -2 2 19)
1969/12/31/18:00:17.867000,(-12 12 -1 -1 0 1 -8 -27)
1969/12/31/18:00:17.867000,(-3 -6 0 -3 -6 -4 -2 -4)
1969/12/31/18:00:17.889000,(-14 -8 -5 -10 -12 -11 -13 -12)
1969/12/31/18:00:17.889000,(-1 -17 -12 -20 -7 -1 2 7)
1969/12/31/18:00:17.890000,(-3 -5 -1 1 -7 -21 -10 -2)
1969/12/31/18:00:17.890000,(-4 -10 -5 -19 -25 -4 -4 -4)
1969/12/31/18:00:17.903000,(-1 11 19 78 57 15 4 -2)
1969/12/31/18:00:17.903000,(10 20 21 34 42 31 15 11)
1969/12/31/18:00:17.912000,(10 11 6 7 24 14 6 7)
1969/12/31/18:00:17.912000,(-43 -64 -22 -31 -23 -10 -8 -20)
1969/12/31/18:00:17.927000,(74 70 1 -33 -27 1 26 47)
1969/12/31/18:00:17.927000,(-42 -32 -16 -6 -23 -30 -32 -33)
1969/12/31/18:00:17.927000,(-11 -9 -3 -12 -8 -3 -10 -13)
1969/12/31/18:00:17.927000,(7 1 0 2 6 5 7 13)
1969/12/31/18:00:17.949000,(-25 -26 -13 -19 -20 -10 -11 -15)
1969/12/31/18:00:17.949000,(0 0 3 9 6 0 5 2)
1969/12/31/18:00:17.950000,(14 16 4 -4 0 6 8 14)
1969/12/31/18:00:17.950000,(4 7 3 16 5 0 -3 -1)
1969/12/31/18:00:17.964000,(-18 -21 -9 -15 8 -2 -7 -11)
1969/12/31/18:00:17.964000,(22 32 5 17 -2 5 11 10)
1969/12/31/18:00:17.965000,(-6 -10 9 22 14 4 2 1)
1969/12/31/18:00:17.965000,(6 12 8 23 20 9 4 0)
1969/12/31/18:00:17.986000,(-15 -11 -6 -28 -17 -8 -8 -10)
1969/12/31/18:00:17.986000,(0 -10 -10 -20 -18 -4 0 3)
1969/12/31/18:00:17.987000,(0 -4 -6 -6 -7 -2 2 2)
1969/12/31/18:00:17.987000,(-10 -16 -7 -7 1 -4 -5 -3)
1969/12/31/18:00:18.009000,(55 75 12 -4 -7 10 24 31)
1969/12/31/18:00:18.009000,(-21 -16 -5 -5 -32 -23 -21 -28)
1969/12/31/18:00:18.010000,(-11 -12 -1 12 17 6 -1 -4)
1969/12/31/18:00:18.010000,(7 7 7 4 29 20 12 11)
1969/12/31/18:00:18.024000,(-27 -15 -6 13 6 -5 -19 -21)
1969/12/31/18:00:18.024000,(28 13 12 14 6 8 14 22)
1969/12/31/18:00:18.025000,(3 7 1 -9 -14 -6 -3 2)
1969/12/31/18:00:18.025000,(5 1 -9 -17 -17 -10 -5 0)
1969/12/31/18:00:18.047000,(-24 -24 -5 -3 -7 -5 -7 -16)
1969/12/31/18:00:18.047000,(11 14 2 -3 -1 -3 3 7)
1969/12/31/18:00:18.047000,(-6 -10 -5 -7 -3 -3 -2 -5)
1969/12/31/18:00:18.047000,(2 1 2 3 5 4 1 1)
1969/12/31/18:00:18.069000,(-20 -22 0 6 -5 -10 -11 -13)
1969/12/31/18:00:18.069000,(12 11 2 -2 6 1 0 3)
1969/12/31/18:00:18.070000,(3 -5 -2 -2 -1 0 3 5)
1969/12/31/18:00:18.070000,(-15 -6 0 4 1 1 3 -5)
1969/12/31/18:00:18.084000,(11 -17 -8 -4 -4 -6 -6 1)
1969/12/31/18:00:18.084000,(1 32 17 6 13 15 14 1)
1969/12/31/18:00:18.085000,(-1 -7 -8 -7 -5 -5 -9 -13)
1969/12/31/18:00:18.085000,(9 10 1 2 -2 -1 1 1)
1969/12/31/18:00:18.107000,(-23 -26 -5 -16 4 -3 -7 -11)
1969/12/31/18:00:18.107000,(-6 -14 0 14 -8 -2 -1 7)
1969/12/31/18:00:18.107000,(12 12 3 11 9 4 2 6)
1969/12/31/18:00:18.107000,(1 5 2 -28 -22 -4 -5 -6)
1969/12/31/18:00:18.129000,(-7 -11 -5 18 18 1 3 0)
1969/12/31/18:00:18.129000,(1 -3 -7 -9 9 1 0 2)
1969/12/31/18:00:18.130000,(-7 1 3 3 -9 4 6 2)
1969/12/31/18:00:18.130000,(9 8 2 10 0 -8 -9 -2)
1969/12/31/18:00:18.144000,(3 -20 6 -5 -8 4 3 7)
1969/12/31/18:00:18.144000,(3 15 -6 -11 -1 1 3 -4)
1969/12/31/18:00:18.145000,(-24 -29 -5 4 2 -7 -9 -13)
1969/12/31/18:00:18.145000,(65 48 14 5 0 6 22 52)
1969/12/31/18:00:18.167000,(-16 -21 -10 -4 -10 -9 -12 -22)
1969/12/31/18:00:18.167000,(-9 -4 -5 -1 0 -3 -3 -6)
1969/12/31/18:00:18.167000,(19 4 5 -8 0 6 10 21)
1969/12/31/18:00:18.167000,(-20 -9 -4 4 5 2 -5 -15)
1969/12/31/18:00:18.190000,(-1 7 5 2 -2 2 5 4)
1969/12/31/18:00:18.190000,(-11 4 -13 -12 -11 -9 -7 -2)
1969/12/31/18:00:18.190000,(-7 0 -5 -6 -9 -16 -22 -19)
1969/12/31/18:00:18.190000,(1 3 0 -2 3 -1 1 2)
1969/12/31/18:00:18.204000,(0 2 -3 1 -2 -1 -1 -2)
1969/12/31/18:00:18.204000,(-29 -31 -6 -5 -3 -4 -8 -17)
1969/12/31/18:00:18.205000,(-1 2 1 4 4 6 7 5)
1969/12/31/18:00:18.205000,(-9 -10 -5 -4 0 1 -1 -7)
1969/12/31/18:00:18.227000,(-2 -3 -6 -11 -7 -5 -1 0)
1969/12/31/18:00:18.227000,(36 19 23 19 15 12 21 33)
1969/12/31/18:00:18.227000,(-15 -10 -3 5 2 -4 -6 -13)
1969/12/31/18:00:18.227000,(-4 -7 -3 2 0 -2 -3 -6)
1969/12/31/18:00:18.250000,(-19 -2 -4 -9 -3 -6 -11 -16)
1969/12/31/18:00:18.250000,(6 0 -4 -12 -8 0 3 7)
1969/12/31/18:00:18.250000,(19 14 -1 -32 -31 3 10 15)
1969/12/31/18:00:18.250000,(-20 -13 1 41 20 -4 -8 -13)
1969/12/31/18:00:18.264000,(12 14 13 24 21 9 8 11)
1969/12/31/18:00:18.264000,(-8 -10 2 4 -1 -2 -10 -13)
1969/12/31/18:00:18.265000,(-4 -5 -10 -37 -1 2 3 1)
1969/12/31/18:00:18.265000,(3 1 -8 -20 -31 -12 -4 1)
1969/12/31/18:00:18.286000,(2 7 -6 -36 -31 -10 -5 -1)
1969/12/31/18:00:18.286000,(7 1 12 62 33 13 6 5)
1969/12/31/18:00:18.287000,(-4 7 17 63 48 19 8 0)
1969/12/31/18:00:18.287000,(-2 0 9 18 30 10 2 -1)
1969/12/31/18:00:18.309000,(-1 -2 -9 -9 -6 -7 -4 -3)
1969/12/31/18:00:18.309000,(-12 -18 -15 -59 -48 -20 -8 -8)
1969/12/31/18:00:18.310000,(4 7 10 -16 -44 -12 -2 3)
1969/12/31/18:00:18.310000,(6 7 -1 13 36 14 8 5)
1969/12/31/18:00:18.324000,(0 -8 -30 -7 20 2 -3 0)
1969/12/31/18:00:18.324000,(-9 -13 -14 -43 -26 2 -4 -7)
1969/12/31/18:00:18.325000,(-2 2 3 34 19 -5 -5 -3)
1969/12/31/18:00:18.325000,(1 3 12 -4 -22 -10 -3 0)
1969/12/31/18:00:18.347000,(-2 7 30 18 6 13 6 -1)
1969/12/31/18:00:18.347000,(9 10 7 5 4 -6 2 6)
1969/12/31/18:00:18.347000,(11 3 -25 -9 -1 3 2 7)
1969/12/31/18:00:18.347000,(-14 -12 -14 -18 1 2 -6 -10)
1969/12/31/18:00:18.370000,(-3 -4 -3 8 21 8 2 0)
1969/12/31/18:00:18.370000,(-7 -4 13 1 -6 0 -2 -7)
1969/12/31/18:00:18.377000,(6 14 22 16 0 -2 2 4)
1969/12/31/18:00:18.377000,(9 3 -4 -16 -17 -6 4 4)
1969/12/31/18:00:18.384000,(-3 -13 -42 -12 -24 -15 -8 -2)
1969/12/31/18:00:18.384000,(-10 -17 -11 1 1 -6 -7 -8)
1969/12/31/18:00:18.385000,(-6 2 22 5 20 2 -1 -4)
1969/12/31/18:00:18.385000,(4 7 0 -35 -21 3 2 0)
1969/12/31/18:00:18.407000,(6 7 6 18 -7 0 5 7)
1969/12/31/18:00:18.407000,(-1 2 4 16 20 2 -3 -1)
1969/12/31/18:00:18.407000,(-2 -6 3 0 5 10 3 0)
1969/12/31/18:00:18.407000,(-2 0 -5 18 20 -3 -3 -2)
1969/12/31/18:00:18.429000,(1 -3 3 -16 -19 -8 -5 -1)
1969/12/31/18:00:18.429000,(0 1 -14 -26 -9 -4 -1 0)
1969/12/31/18:00:18.430000,(6 5 7 -17 -13 0 3 3)
1969/12/31/18:00:18.430000,(-1 -3 1 17 -5 5 1 -3)
1969/12/31/18:00:18.444000,(-4 -5 3 21 18 7 1 -3)
1969/12/31/18:00:18.444000,(0 1 5 12 12 2 -1 -1)
1969/12/31/18:00:18.445000,(-1 -3 -8 -30 -10 -6 -2 -3)
1969/12/31/18:00:18.445000,(0 -2 -6 2 -17 -6 -3 -2)
1969/12/31/18:00:18.467000,(7 7 -1 9 11 2 3 7)
1969/12/31/18:00:18.467000,(-6 -4 8 7 11 10 3 -2)
1969/12/31/18:00:18.467000,(-4 -5 -12 -6 -1 -3 -2 0)
1969/12/31/18:00:18.467000,(-6 -8 -11 -19 -11 -10 -5 -3)
1969/12/31/18:00:18.489000,(1 9 36 8 -4 -1 0 -1)
1969/12/31/18:00:18.489000,(9 11 5 12 3 3 3 4)
1969/12/31/18:00:18.490000,(7 -2 -31 1 10 1 4 6)
1969/12/31/18:00:18.490000,(0 -13 -15 -1 5 0 -1 1)
1969/12/31/18:00:18.504000,(-7 3 20 -27 -22 -10 -6 -5)
1969/12/31/18:00:18.504000,(2 6 -6 22 16 3 0 3)
1969/12/31/18:00:18.505000,(2 -2 -6 8 0 2 5 3)
1969/12/31/18:00:18.505000,(-6 1 12 -19 0 4 0 -5)
1969/12/31/18:00:18.527000,(3 3 0 15 1 -2 1 1)
1969/12/31/18:00:18.527000,(-5 -3 8 -2 -7 -5 -5 -7)
1969/12/31/18:00:18.527000,(4 6 7 8 6 3 1 3)
1969/12/31/18:00:18.527000,(1 -5 -9 7 4 3 2 4)
1969/12/31/18:00:18.557000,(-6 0 -4 -19 -6 1 -1 -2)
1969/12/31/18:00:18.557000,(-3 -5 -11 -9 -5 -6 -4 -5)
1969/12/31/18:00:18.558000,(-2 -4 2 -10 -31 -16 -6 -2)
1969/12/31/18:00:18.558000,(0 4 7 1 19 14 5 1)
1969/12/31/18:00:18.564000,(8 2 -6 22 26 22 10 7)
1969/12/31/18:00:18.564000,(0 -8 -2 15 11 4 -1 0)
1969/12/31/18:00:18.565000,(-7 -5 4 -6 -1 -9 -5 -6)
1969/12/31/18:00:18.565000,(-13 1 12 -12 -37 -24 -14 -11)
1969/12/31/18:00:18.587000,(3 3 -2 4 9 3 2 4)
1969/12/31/18:00:18.587000,(2 4 -7 -34 -21 2 4 1)
1969/12/31/18:00:18.587000,(2 -2 -2 20 16 2 -3 1)
1969/12/31/18:00:18.587000,(-7 -3 3 10 2 -4 -4 -6)
1969/12/31/18:00:18.610000,(-2 -3 1 7 9 4 3 0)
1969/12/31/18:00:18.610000,(2 4 -6 -33 -13 -4 -1 0)
1969/12/31/18:00:18.611000,(2 -1 -8 4 -2 0 0 1)
1969/12/31/18:00:18.611000,(-4 -4 -6 18 5 8 3 -2)
1969/12/31/18:00:18.623000,(10 1 -9 -15 -17 -16 -3 6)
1969/12/31/18:00:18.623000,(-6 -8 -1 2 2 -3 0 2)
1969/12/31/18:00:18.631000,(-6 -3 0 -17 -2 8 4 -4)
1969/12/31/18:00:18.631000,(9 9 2 2 0 -1 0 4)
1969/12/31/18:00:18.647000,(-12 -9 -3 -13 -16 -1 -4 -10)
1969/12/31/18:00:18.647000,(7 6 6 44 37 10 6 6)
1969/12/31/18:00:18.647000,(8 -1 -26 -26 -8 1 1 5)
1969/12/31/18:00:18.647000,(-7 -3 4 -4 3 5 -1 -6)
1969/12/31/18:00:18.670000,(10 4 -19 -9 -9 -5 3 6)
1969/12/31/18:00:18.670000,(1 2 10 8 -24 -14 -5 0)
1969/12/31/18:00:18.670000,(-13 0 28 36 46 12 -6 -11)
1969/12/31/18:00:18.671000,(7 7 0 -7 -9 -4 4 3)
1969/12/31/18:00:18.683000,(-1 -2 3 -2 1 3 2 0)
1969/12/31/18:00:18.683000,(-12 -7 -1 -4 -4 -6 -12 -12)
1969/12/31/18:00:18.699000,(11 2 -16 -14 -15 -4 7 9)
1969/12/31/18:00:18.699000,(-1 -4 -1 -13 -10 -4 -4 -3)
1969/12/31/18:00:18.708000,(-7 1 17 16 14 1 -5 -7)
1969/12/31/18:00:18.708000,(3 4 -10 11 11 2 5 1)
1969/12/31/18:00:18.709000,(1 -3 -3 -9 -11 -1 1 0)
1969/12/31/18:00:18.709000,(-1 1 3 3 10 1 0 -1)
1969/12/31/18:00:18.730000,(1 -3 -12 -46 -13 -4 0 -1)
1969/12/31/18:00:18.730000,(-3 0 18 57 8 2 0 -2)
1969/12/31/18:00:18.731000,(-7 2 11 6 6 -1 -5 -6)
1969/12/31/18:00:18.731000,(8 -1 -20 -22 -2 3 5 8)
1969/12/31/18:00:18.743000,(-2 3 6 20 4 1 -3 -1)
1969/12/31/18:00:18.743000,(4 1 -5 -25 -8 -2 1 2)
1969/12/31/18:00:18.768000,(-6 -4 1 0 -14 -9 -6 -5)
1969/12/31/18:00:18.768000,(-1 0 -1 -2 12 -1 -2 -1)
1969/12/31/18:00:18.770000,(-2 0 -4 -27 -20 -6 -1 -1)
1969/12/31/18:00:18.770000,(1 3 4 12 15 9 3 0)
1969/12/31/18:00:18.770000,(0 1 4 21 10 5 2 0)
1969/12/31/18:00:18.770000,(-1 -1 5 5 -1 -2 -3 -1)
1969/12/31/18:00:18.790000,(0 -3 -19 -35 -10 -8 -1 -1)
1969/12/31/18:00:18.790000,(-1 0 -3 -23 -12 -3 -1 2)
1969/12/31/18:00:18.790000,(-3 2 17 63 23 8 2 -3)
1969/12/31/18:00:18.790000,(-2 4 10 15 17 4 -1 -2)
1969/12/31/18:00:18.820000,(-2 -1 4 38 11 2 -1 -2)
1969/12/31/18:00:18.820000,(5 -4 -22 -46 -20 -5 5 5)
1969/12/31/18:00:18.820000,(-1 -4 -15 -51 -36 -11 -4 -3)
1969/12/31/18:00:18.820000,(-11 -6 9 11 24 4 -4 -8)
1969/12/31/18:00:18.827000,(9 11 17 33 13 6 6 6)
1969/12/31/18:00:18.827000,(0 0 4 6 7 7 2 2)
1969/12/31/18:00:18.827000,(2 -2 -12 -4 -5 -4 0 3)
1969/12/31/18:00:18.827000,(0 -4 -23 -32 -35 -14 -4 0)
1969/12/31/18:00:18.850000,(-5 -5 -8 -72 -32 -9 -2 -2)
1969/12/31/18:00:18.850000,(-4 1 17 68 33 8 -3 -5)
1969/12/31/18:00:18.850000,(2 4 17 46 30 12 7 2)
1969/12/31/18:00:18.850000,(2 6 14 32 13 7 7 6)
1969/12/31/18:00:18.863000,(-6 -7 -8 5 -1 -5 -10 -7)
1969/12/31/18:00:18.863000,(0 -7 -22 -84 -96 -26 -6 -2)
1969/12/31/18:00:18.872000,(0 0 -10 -16 47 6 3 1)
1969/12/31/18:00:18.872000,(-1 -1 3 14 26 9 3 0)
1969/12/31/18:00:18.887000,(10 8 11 40 16 6 0 3)
1969/12/31/18:00:18.887000,(-5 -3 -2 -7 0 -3 -3 -5)
1969/12/31/18:00:18.894000,(-2 -4 -6 -30 -46 -14 -6 -3)
1969/12/31/18:00:18.894000,(0 -1 -3 -10 -11 -3 1 2)
1969/12/31/18:00:18.910000,(-4 -1 0 12 8 3 2 -1)
1969/12/31/18:00:18.910000,(-1 -1 0 -6 -2 0 -3 0)
1969/12/31/18:00:18.910000,(-5 -3 -1 -10 -5 -1 -2 -4)
1969/12/31/18:00:18.910000,(4 2 -2 -3 -5 -1 0 2)
1969/12/31/18:00:18.923000,(-1 -2 -5 11 -7 -2 0 0)
1969/12/31/18:00:18.923000,(-2 -2 -6 -49 7 -1 -3 -7)
1969/12/31/18:00:18.932000,(6 5 12 38 -11 4 5 7)
1969/12/31/18:00:18.932000,(-11 -10 -10 -5 -24 -11 -13 -14)
1969/12/31/18:00:18.947000,(1 3 7 20 52 9 6 3)
1969/12/31/18:00:18.947000,(3 5 26 78 38 15 8 2)
1969/12/31/18:00:18.948000,(-5 -3 -7 -24 -3 -2 -5 -8)
1969/12/31/18:00:18.948000,(3 1 -9 -27 -27 -5 2 6)
1969/12/31/18:00:18.970000,(2 1 -5 -18 -25 -7 -5 -1)
1969/12/31/18:00:18.970000,(-4 -4 -12 -14 -2 -5 -3 -3)
1969/12/31/18:00:18.971000,(2 2 0 -16 -9 -2 2 1)
1969/12/31/18:00:18.971000,(2 0 0 8 -5 -3 -3 -3)
1969/12/31/18:00:18.992000,(-6 -8 -7 -12 -3 -1 0 -2)
1969/12/31/18:00:18.992000,(11 11 3 6 11 3 4 8)
1969/12/31/18:00:18.993000,(-4 -3 -1 1 -6 -1 -3 -5)
1969/12/31/18:00:18.993000,(-1 -3 -4 -1 7 -1 -1 -1)
1969/12/31/18:00:19.006000,(-2 -1 2 6 0 3 1 -2)
1969/12/31/18:00:19.007000,(-5 -3 1 0 -5 -2 -3 -3)
1969/12/31/18:00:19.007000,(0 0 -3 -2 0 -3 -1 3)
1969/12/31/18:00:19.007000,(2 1 2 0 12 4 1 1)
1969/12/31/18:00:19.030000,(-2 0 3 2 -9 1 3 1)
1969/12/31/18:00:19.030000,(-1 -3 0 11 4 -1 0 0)
1969/12/31/18:00:19.031000,(1 0 -3 -8 1 1 -3 -1)
1969/12/31/18:00:19.031000,(1 1 3 8 4 3 1 3)
1969/12/31/18:00:19.052000,(-1 -2 0 0 -6 -1 -4 -2)
1969/12/31/18:00:19.052000,(0 0 -6 -8 -4 0 2 1)
1969/12/31/18:00:19.059000,(-1 -1 -2 -6 2 -4 -1 -2)
1969/12/31/18:00:19.059000,(2 0 2 1 1 2 1 -1)
1969/12/31/18:00:19.066000,(-1 1 1 4 -2 -1 0 -1)
1969/12/31/18:00:19.066000,(3 -2 -3 0 6 3 2 2)
1969/12/31/18:00:19.067000,(0 0 -1 -5 -6 -1 -3 -1)
1969/12/31/18:00:19.067000,(1 -1 -4 -11 -8 -3 -1 0)
1969/12/31/18:00:19.090000,(0 0 1 7 2 1 2 1)
1969/12/31/18:00:19.090000,(-3 0 3 10 7 0 -1 -1)
1969/12/31/18:00:19.091000,(-2 1 3 10 -3 0 -2 -2)
1969/12/31/18:00:19.091000,(0 1 0 -1 6 -1 -3 -3)
1969/12/31/18:00:19.112000,(1 -1 -3 -17 -3 -2 1 -1)
1969/12/31/18:00:19.112000,(0 -2 -2 4 -6 -2 2 1)
1969/12/31/18:00:19.113000,(0 0 -1 -1 -7 0 1 0)
1969/12/31/18:00:19.113000,(-1 0 0 3 13 -2 -3 -1)
1969/12/31/18:00:19.127000,(-5 -3 -2 -1 -5 0 -1 -2)
1969/12/31/18:00:19.127000,(-1 -1 -4 -5 -2 0 -3 -2)
1969/12/31/18:00:19.128000,(-2 1 -1 -5 -2 -2 0 -1)
1969/12/31/18:00:19.128000,(1 -2 1 7 -4 0 3 3)
1969/12/31/18:00:19.150000,(-3 -1 2 1 3 0 -2 -2)
1969/12/31/18:00:19.150000,(1 -1 -5 -8 -3 -2 0 1)
1969/12/31/18:00:19.150000,(0 -2 1 0 2 0 -2 -2)
1969/12/31/18:00:19.150000,(-1 1 3 1 -1 0 1 0)
1969/12/31/18:00:19.172000,(1 0 0 4 -1 2 1 -1)
1969/12/31/18:00:19.172000,(-2 -2 -1 -4 -3 -2 -2 0)
1969/12/31/18:00:19.173000,(1 -2 -1 -2 1 0 0 0)
1969/12/31/18:00:19.173000,(2 1 1 7 3 1 1 0)
1969/12/31/18:00:19.186000,(-1 0 -1 -3 -4 -2 -1 0)
1969/12/31/18:00:19.186000,(-2 0 1 -2 1 -1 -4 -2)
1969/12/31/18:00:19.201000,(-2 -3 -3 -6 -5 -3 -1 -1)
1969/12/31/18:00:19.201000,(1 1 0 2 1 0 1 3)
1969/12/31/18:00:19.210000,(-1 -1 -1 4 -1 1 0 0)
1969/12/31/18:00:19.210000,(-1 -3 0 -4 1 -1 -1 0)
1969/12/31/18:00:19.211000,(-2 -1 -1 -2 -2 -1 -2 -2)
1969/12/31/18:00:19.211000,(0 0 -2 -1 6 1 -1 0)
1969/12/31/18:00:19.232000,(0 1 3 3 2 -2 -4 -3)
1969/12/31/18:00:19.232000,(0 -1 -2 1 3 1 -2 -2)
1969/12/31/18:00:19.234000,(2 1 -2 -1 -3 -1 3 3)
1969/12/31/18:00:19.234000,(-2 -2 -2 -7 -12 -4 -1 -2)
1969/12/31/18:00:19.246000,(0 0 0 -8 -10 -2 -1 -1)
1969/12/31/18:00:19.246000,(1 4 3 16 16 2 4 2)
1969/12/31/18:00:19.262000,(0 0 2 5 9 2 0 0)
1969/12/31/18:00:19.262000,(-1 -1 -1 1 -1 2 2 -2)
1969/12/31/18:00:19.270000,(1 1 -1 -2 3 0 -2 0)
1969/12/31/18:00:19.270000,(-5 -7 -4 -11 -16 -8 -6 -4)
1969/12/31/18:00:19.271000,(-1 -1 -3 -4 1 0 1 0)
1969/12/31/18:00:19.271000,(0 3 1 3 2 -1 -1 1)
1969/12/31/18:00:19.292000,(-1 -2 1 1 -1 2 0 -1)
1969/12/31/18:00:19.292000,(-1 1 -1 -1 -7 -1 -1 1)
1969/12/31/18:00:19.294000,(0 -1 -3 1 11 -2 -3 -1)
1969/12/31/18:00:19.294000,(0 -1 -1 0 -9 0 0 0)
1969/12/31/18:00:19.307000,(1 0 1 4 2 0 -2 -1)
1969/12/31/18:00:19.307000,(1 -1 -1 -2 0 4 2 1)
1969/12/31/18:00:19.315000,(-1 1 0 -4 -4 0 0 1)
1969/12/31/18:00:19.315000,(-1 -3 -2 -2 -2 -1 -2 -3)
1969/12/31/18:00:19.330000,(0 -2 0 5 5 2 -1 0)
1969/12/31/18:00:19.330000,(-2 -2 -1 -4 -2 -3 -4 -2)
1969/12/31/18:00:19.332000,(-1 -1 0 -3 -7 -1 -1 0)
1969/12/31/18:00:19.332000,(0 -1 -1 3 10 2 0 0)
1969/12/31/18:00:19.352000,(-1 0 -1 1 1 -2 -1 1)
1969/12/31/18:00:19.352000,(-2 -2 -2 -5 -2 1 -1 0)
1969/12/31/18:00:19.354000,(-1 0 0 1 -5 -1 0 -1)
1969/12/31/18:00:19.354000,(-1 -2 2 1 1 1 1 -1)
1969/12/31/18:00:19.375000,(-1 -1 -1 -1 4 -1 -1 -3)
1969/12/31/18:00:19.375000,(0 -1 1 0 -1 2 -1 -1)
1969/12/31/18:00:19.376000,(-1 -2 0 -1 1 -2 -4 -1)
1969/12/31/18:00:19.376000,(-2 -3 -3 -3 -4 -1 2 1)
1969/12/31/18:00:19.391000,(3 2 4 1 -4 -3 -1 2)
1969/12/31/18:00:19.391000,(0 -1 -1 -3 0 -1 -2 -1)
1969/12/31/18:00:19.392000,(1 -2 -1 1 3 1 -1 0)
1969/12/31/18:00:19.392000,(-1 -1 0 -2 -1 -2 -2 -3)
1969/12/31/18:00:19.413000,(-1 -1 -4 -3 -7 -1 1 0)
1969/12/31/18:00:19.413000,(1 0 -1 -1 6 0 0 0)
1969/12/31/18:00:19.414000,(2 1 1 5 6 4 1 1)
1969/12/31/18:00:19.414000,(-2 -1 0 0 -6 -3 -3 1)
1969/12/31/18:00:19.426000,(-2 -2 -2 -1 1 -1 -1 -1)
1969/12/31/18:00:19.427000,(0 0 0 -1 -3 0 1 0)
1969/12/31/18:00:19.433000,(0 -2 -3 -2 -3 -3 0 -3)
1969/12/31/18:00:19.433000,(2 2 1 0 1 1 2 2)
1969/12/31/18:00:19.450000,(-1 0 -2 3 0 1 1 0)
1969/12/31/18:00:19.450000,(0 1 1 1 0 -1 -3 -2)
1969/12/31/18:00:19.451000,(-1 0 -2 -2 -2 -1 -1 -1)
1969/12/31/18:00:19.451000,(0 0 -1 -1 -3 -3 0 -2)
1969/12/31/18:00:19.473000,(-1 1 0 -3 -1 -2 -1 1)
1969/12/31/18:00:19.473000,(-1 -1 -1 -1 -6 -1 0 -2)
1969/12/31/18:00:19.474000,(-2 0 2 1 8 1 -1 -1)
1969/12/31/18:00:19.474000,(-1 -1 1 2 5 3 0 0)
1969/12/31/18:00:19.486000,(-1 -1 -1 -2 -3 -2 -2 -3)
1969/12/31/18:00:19.486000,(-1 -1 -3 2 1 2 3 1)
1969/12/31/18:00:19.501000,(1 2 0 -2 -5 -5 0 1)
1969/12/31/18:00:19.501000,(1 1 -3 -2 -3 0 4 2)
1969/12/31/18:00:19.510000,(2 0 0 3 6 1 -1 -1)
1969/12/31/18:00:19.510000,(-1 -1 0 -2 -4 -1 1 0)
