time,.data
1969/12/31/18:00:03.600000,(-2 -1 -1 -2 1 -1 0 4)
1969/12/31/18:00:03.600000,(-3 -2 -1 0 -2 -4 -5 -2)
1969/12/31/18:00:03.607000,(-3 -3 -1 -3 -2 -2 -3 -5)
1969/12/31/18:00:03.607000,(0 0 0 -3 -2 2 0 -1)
1969/12/31/18:00:03.621000,(4 -3 -14 -20 -12 -1 6 5)
1969/12/31/18:00:03.621000,(-1 -2 4 15 22 3 0 1)
1969/12/31/18:00:03.629000,(-3 3 9 19 0 3 -3 -4)
1969/12/31/18:00:03.629000,(-1 -5 1 14 14 2 -1 -2)
1969/12/31/18:00:03.653000,(-3 -2 6 -1 -3 4 2 -2)
1969/12/31/18:00:03.653000,(-3 -5 -15 -31 -18 -4 -1 -3)
1969/12/31/18:00:03.653000,(4 3 0 -6 -7 -9 -2 4)
1969/12/31/18:00:03.653000,(-7 0 5 -16 -17 -7 -5 -8)
1969/12/31/18:00:03.659000,(4 1 -10 9 14 5 0 3)
1969/12/31/18:00:03.659000,(-1 5 24 31 6 3 -2 -1)
1969/12/31/18:00:03.674000,(-4 -2 2 14 11 4 0 -3)
1969/12/31/18:00:03.674000,(5 6 -7 -4 -11 1 2 3)
1969/12/31/18:00:03.681000,(12 9 -17 -39 -8 -4 6 6)
1969/12/31/18:00:03.681000,(6 -2 -8 -14 -7 -3 1 2)
1969/12/31/18:00:03.690000,(-5 -10 -2 20 6 -8 -9 -4)
1969/12/31/18:00:03.690000,(-15 -6 16 -3 -18 -5 -3 -8)
1969/12/31/18:00:03.704000,(-5 -8 -1 -14 0 4 4 1)
1969/12/31/18:00:03.704000,(-1 0 -23 -47 -1 2 -1 -2)
1969/12/31/18:00:03.705000,(9 7 -2 1 -10 -12 0 4)
1969/12/31/18:00:03.705000,(15 17 14 43 25 13 5 6)
1969/12/31/18:00:03.719000,(11 12 24 66 19 -1 -2 4)
1969/12/31/18:00:03.719000,(-7 -11 14 13 4 15 4 0)
1969/12/31/18:00:03.727000,(-13 -16 -27 -3 2 -8 -11 -8)
1969/12/31/18:00:03.727000,(-9 -18 -21 -36 5 -7 -6 -8)
1969/12/31/18:00:03.741000,(-9 5 -9 -67 -56 -19 -9 -8)
1969/12/31/18:00:03.741000,(20 18 4 8 11 7 12 17)
1969/12/31/18:00:03.749000,(7 7 24 -38 -12 11 9 7)
1969/12/31/18:00:03.749000,(2 2 8 52 31 -1 -2 3)
1969/12/31/18:00:03.764000,(-20 -24 5 78 51 10 -3 -10)
1969/12/31/18:00:03.764000,(-14 -7 -6 -11 -34 -9 -6 -10)
1969/12/31/18:00:03.765000,(6 14 11 10 2 6 5 1)
1969/12/31/18:00:03.765000,(3 2 17 11 -20 8 3 3)
1969/12/31/18:00:03.779000,(-7 -7 -14 -27 23 -4 -3 -5)
1969/12/31/18:00:03.779000,(0 -4 -28 -21 -10 1 -1 0)
1969/12/31/18:00:03.787000,(13 0 -29 -50 -21 -7 3 8)
1969/12/31/18:00:03.787000,(-4 -3 -10 -25 -55 -15 -6 -7)
1969/12/31/18:00:03.801000,(3 -5 -9 7 7 -5 -1 0)
1969/12/31/18:00:03.801000,(-1 7 50 8 28 -8 -5 -2)
1969/12/31/18:00:03.810000,(-9 3 -6 30 31 11 3 -6)
1969/12/31/18:00:03.810000,(6 -4 2 -27 -16 0 2 3)
1969/12/31/18:00:03.824000,(4 4 1 31 -3 8 4 5)
1969/12/31/18:00:03.824000,(13 7 -7 47 34 8 1 6)
1969/12/31/18:00:03.833000,(-7 -8 12 -1 -8 -1 -2 -3)
1969/12/31/18:00:03.833000,(-8 -5 -15 -23 -7 -8 -6 -3)
1969/12/31/18:00:03.839000,(0 0 -8 -88 -38 -5 0 0)
1969/12/31/18:00:03.839000,(-4 -8 -42 -84 -61 -19 -4 -1)
1969/12/31/18:00:03.848000,(1 1 20 43 20 6 -1 -1)
1969/12/31/18:00:03.848000,(1 15 41 91 62 21 6 2)
1969/12/31/18:00:03.861000,(1 3 11 25 19 9 0 -2)
1969/12/31/18:00:03.861000,(-3 -3 -2 -9 -8 0 0 -2)
1969/12/31/18:00:03.870000,(-2 -4 -15 -39 -37 -8 -2 -2)
1969/12/31/18:00:03.870000,(2 -2 -8 -22 -5 -2 2 2)
1969/12/31/18:00:03.884000,(1 6 22 47 16 5 2 1)
1969/12/31/18:00:03.884000,(-3 -4 3 29 12 -1 1 -2)
1969/12/31/18:00:03.893000,(-3 -7 -13 -35 -5 -6 0 -2)
1969/12/31/18:00:03.893000,(-3 -6 -14 -7 4 -9 -1 -3)
1969/12/31/18:00:03.899000,(-5 -6 -5 -5 -10 -8 1 -4)
1969/12/31/18:00:03.899000,(-5 -3 0 8 -1 -10 -5 -6)
1969/12/31/18:00:03.907000,(0 -1 2 12 -1 -2 0 -1)
1969/12/31/18:00:03.907000,(2 -2 -8 -23 4 -1 1 5)
1969/12/31/18:00:03.930000,(10 8 3 10 -12 -2 -1 3)
1969/12/31/18:00:03.930000,(-5 1 11 22 16 6 0 -2)
1969/12/31/18:00:03.931000,(-5 0 3 -2 3 -1 -8 -7)
1969/12/31/18:00:03.932000,(-9 -5 -11 -9 -6 -1 -5 -4)
1969/12/31/18:00:03.944000,(8 0 -5 -11 -6 1 2 6)
1969/12/31/18:00:03.944000,(4 2 3 -11 2 6 -4 -1)
1969/12/31/18:00:03.952000,(4 2 2 -6 -3 10 4 5)
1969/12/31/18:00:03.952000,(9 11 14 60 19 16 4 4)
1969/12/31/18:00:03.967000,(-6 -1 0 -3 -2 5 1 0)
1969/12/31/18:00:03.967000,(3 3 -1 -2 -2 0 3 1)
1969/12/31/18:00:03.969000,(3 -2 -9 -27 -17 -7 -1 0)
1969/12/31/18:00:03.969000,(-26 -16 -10 -40 8 -3 -1 -10)
1969/12/31/18:00:03.981000,(4 4 14 24 5 -2 0 -3)
1969/12/31/18:00:03.981000,(3 2 6 31 13 5 4 1)
1969/12/31/18:00:03.990000,(-9 -10 -10 -6 -3 -5 -4 -8)
1969/12/31/18:00:03.990000,(-13 -5 -9 -18 -12 -10 -1 2)
1969/12/31/18:00:04.004000,(22 7 -4 -14 -7 3 -1 3)
1969/12/31/18:00:04.004000,(-5 3 1 -8 -5 1 2 -2)
1969/12/31/18:00:04.013000,(6 9 5 20 11 9 7 10)
1969/12/31/18:00:04.013000,(9 4 -6 -17 -11 -3 2 6)
1969/12/31/18:00:04.019000,(-21 -11 2 -5 2 -1 -4 -9)
1969/12/31/18:00:04.019000,(9 -1 -5 -8 -10 -5 -4 -5)
1969/12/31/18:00:04.028000,(-22 -9 -8 -15 10 1 -4 -12)
1969/12/31/18:00:04.028000,(-23 -9 -3 -5 -3 -1 2 0)
1969/12/31/18:00:04.041000,(47 28 28 59 29 12 15 19)
1969/12/31/18:00:04.041000,(0 2 8 16 6 0 5 6)
1969/12/31/18:00:04.050000,(-6 -13 -9 -12 -12 -12 -9 -4)
1969/12/31/18:00:04.050000,(2 -7 -13 -32 -8 -6 -5 -1)
1969/12/31/18:00:04.064000,(-3 -4 -14 -20 -12 -4 3 10)
1969/12/31/18:00:04.064000,(-23 -6 4 22 2 -5 -18 -29)
1969/12/31/18:00:04.072000,(12 7 -2 -8 -2 -2 2 6)
1969/12/31/18:00:04.073000,(-18 -15 -5 -3 2 -2 -7 -15)
1969/12/31/18:00:04.079000,(-16 -5 0 -3 -1 -5 -4 -9)
1969/12/31/18:00:04.079000,(29 12 12 31 8 -1 7 22)
1969/12/31/18:00:04.087000,(-3 -3 -20 -75 -32 -7 -2 -6)
1969/12/31/18:00:04.087000,(13 -1 -16 -36 -20 -9 -4 -3)
1969/12/31/18:00:04.109000,(-21 -2 37 83 42 6 -1 -4)
1969/12/31/18:00:04.109000,(10 8 16 19 33 11 1 -1)
1969/12/31/18:00:04.116000,(-1 -3 12 27 12 6 6 6)
1969/12/31/18:00:04.116000,(29 32 -1 -51 -5 13 17 15)
1969/12/31/18:00:04.132000,(-5 -26 -59 -128 -74 -22 -10 -7)
1969/12/31/18:00:04.132000,(-25 -6 -10 14 -6 -4 2 7)
1969/12/31/18:00:04.134000,(31 23 56 111 59 22 9 10)
1969/12/31/18:00:04.134000,(-7 -11 7 33 6 -2 -10 -16)
1969/12/31/18:00:04.146000,(10 9 4 -12 -5 -11 -17 -11)
1969/12/31/18:00:04.146000,(11 -1 -20 -57 -29 -8 -2 -1)
1969/12/31/18:00:04.155000,(-18 -8 -27 -49 -16 -1 15 18)
1969/12/31/18:00:04.155000,(-45 -32 -38 -60 -19 -9 -2 -3)
1969/12/31/18:00:04.169000,(44 30 35 39 5 12 15 15)
1969/12/31/18:00:04.169000,(-23 -13 28 74 30 -5 -7 -6)
1969/12/31/18:00:04.177000,(-4 8 16 34 25 3 -7 -24)
1969/12/31/18:00:04.177000,(-11 -5 12 31 13 3 1 -6)
1969/12/31/18:00:04.192000,(-10 -21 -29 -40 -17 -11 1 15)
1969/12/31/18:00:04.192000,(8 20 3 -30 -6 10 16 2)
1969/12/31/18:00:04.194000,(11 21 -10 0 -2 -4 -10 -19)
1969/12/31/18:00:04.194000,(-65 -37 -7 -6 -1 2 2 -7)
1969/12/31/18:00:04.215000,(64 17 -11 -18 0 10 16 31)
1969/12/31/18:00:04.215000,(-3 -11 -12 -9 -18 -18 -16 -8)
1969/12/31/18:00:04.216000,(8 0 -23 -30 -14 -4 2 13)
1969/12/31/18:00:04.216000,(29 19 34 44 7 2 3 4)
1969/12/31/18:00:04.229000,(-42 -17 -30 -66 -4 1 0 -9)
1969/12/31/18:00:04.229000,(6 -2 6 99 1 7 8 10)
1969/12/31/18:00:04.236000,(9 6 40 91 12 5 1 3)
1969/12/31/18:00:04.236000,(23 20 39 89 53 3 -9 -3)
1969/12/31/18:00:04.252000,(-38 -11 22 3 4 6 -3 -19)
1969/12/31/18:00:04.253000,(9 -1 -31 -113 -25 -6 -3 -1)
1969/12/31/18:00:04.254000,(-14 -23 -36 -74 -45 -23 -13 0)
1969/12/31/18:00:04.254000,(17 6 0 3 3 1 -3 1)
1969/12/31/18:00:04.275000,(-31 -3 -5 0 16 4 -5 -19)
1969/12/31/18:00:04.275000,(-11 -15 -3 -31 9 16 8 -15)
1969/12/31/18:00:04.276000,(76 34 -2 3 -10 -4 2 25)
1969/12/31/18:00:04.276000,(11 4 -11 -31 -12 0 4 0)
1969/12/31/18:00:04.288000,(4 -3 -16 -14 -22 -15 -10 1)
1969/12/31/18:00:04.288000,(-22 -19 -18 -9 -44 -10 -2 -3)
1969/12/31/18:00:04.298000,(-8 5 63 113 58 24 12 7)
1969/12/31/18:00:04.298000,(23 20 28 41 56 14 1 4)
1969/12/31/18:00:04.313000,(-13 -4 -4 14 19 5 -5 -15)
1969/12/31/18:00:04.313000,(0 -7 -32 -47 -8 -5 0 7)
1969/12/31/18:00:04.314000,(-11 -6 7 -1 -33 -6 -3 -4)
1969/12/31/18:00:04.314000,(23 13 11 13 -18 -6 0 11)
1969/12/31/18:00:04.335000,(-28 -7 15 24 5 -4 -7 -15)
1969/12/31/18:00:04.335000,(9 -1 -4 -37 2 -8 -6 5)
1969/12/31/18:00:04.336000,(-57 -27 -29 -52 -8 -7 -5 -15)
1969/12/31/18:00:04.336000,(-43 -22 -17 -15 -13 -4 -13 -37)
1969/12/31/18:00:04.348000,(17 8 7 0 -3 5 8 14)
1969/12/31/18:00:04.348000,(25 8 1 -11 0 -5 -3 2)
1969/12/31/18:00:04.357000,(-47 -27 -2 5 12 5 -1 -9)
1969/12/31/18:00:04.357000,(27 18 4 1 -9 0 12 23)
1969/12/31/18:00:04.374000,(-13 -14 -13 3 0 -6 -6 -10)
1969/12/31/18:00:04.374000,(-5 1 -5 -42 -26 -9 -9 -6)
1969/12/31/18:00:04.375000,(1 -5 0 23 3 -2 0 -6)
1969/12/31/18:00:04.375000,(26 13 13 25 13 6 4 15)
1969/12/31/18:00:04.395000,(1 3 14 41 27 10 3 6)
1969/12/31/18:00:04.395000,(-67 -35 13 22 19 4 -4 -21)
1969/12/31/18:00:04.397000,(6 9 -13 -48 -10 5 5 -5)
1969/12/31/18:00:04.397000,(9 -2 -30 -45 -36 -16 -12 -3)
1969/12/31/18:00:04.418000,(7 10 9 13 0 2 9 8)
1969/12/31/18:00:04.418000,(-19 -12 8 22 15 6 0 8)
1969/12/31/18:00:04.419000,(14 0 -9 -16 -5 -4 0 -3)
1969/12/31/18:00:04.419000,(25 11 -2 -3 1 10 14 24)
1969/12/31/18:00:04.432000,(-17 -14 -7 -6 -4 -2 -3 -12)
1969/12/31/18:00:04.432000,(13 24 4 4 3 2 6 23)
1969/12/31/18:00:04.434000,(5 6 -2 -12 -10 -11 -15 -21)
1969/12/31/18:00:04.434000,(2 -2 -13 -38 -8 -3 4 6)
1969/12/31/18:00:04.455000,(8 2 -14 0 1 0 -2 1)
1969/12/31/18:00:04.455000,(19 5 23 74 25 15 5 11)
1969/12/31/18:00:04.456000,(10 6 11 7 8 5 1 6)
1969/12/31/18:00:04.456000,(-14 -5 10 18 -8 -8 -9 -13)
1969/12/31/18:00:04.469000,(-19 -11 -2 -23 -16 -13 -14 -22)
1969/12/31/18:00:04.469000,(16 4 -20 -24 -6 -4 2 2)
1969/12/31/18:00:04.478000,(-13 -5 -14 -8 5 4 3 8)
1969/12/31/18:00:04.478000,(-8 -5 -3 -4 -8 -1 -3 -9)
1969/12/31/18:00:04.493000,(0 -8 -14 -18 -26 -11 -5 -1)
1969/12/31/18:00:04.493000,(-3 -4 14 5 -2 -5 -6 -3)
1969/12/31/18:00:04.494000,(-8 1 4 9 19 3 -1 -7)
1969/12/31/18:00:04.494000,(-21 -9 -2 3 8 7 4 -4)
1969/12/31/18:00:04.515000,(4 3 -5 -27 2 5 4 4)
1969/12/31/18:00:04.516000,(2 6 7 40 -4 -6 -8 -12)
1969/12/31/18:00:04.521000,(11 -4 -2 -36 -9 -6 -3 8)
1969/12/31/18:00:04.521000,(-7 -3 -1 20 6 -1 -3 -6)
1969/12/31/18:00:04.529000,(5 5 -5 -11 -11 2 5 6)
1969/12/31/18:00:04.529000,(-7 -4 3 13 21 5 0 -13)
1969/12/31/18:00:04.538000,(8 6 3 21 -4 8 9 16)
1969/12/31/18:00:04.538000,(15 5 -2 -17 -11 -6 -2 4)
1969/12/31/18:00:04.552000,(1 7 18 22 5 -3 -4 -2)
1969/12/31/18:00:04.552000,(11 8 8 6 15 11 12 11)
1969/12/31/18:00:04.554000,(3 -4 -14 -10 -15 -8 -3 1)
1969/12/31/18:00:04.554000,(-17 -13 -4 -27 -4 -6 -11 -14)
1969/12/31/18:00:04.575000,(2 -3 -11 5 8 8 6 6)
1969/12/31/18:00:04.575000,(11 12 -2 -43 -19 -5 -2 0)
1969/12/31/18:00:04.576000,(-7 -1 15 44 13 -4 -8 -10)
1969/12/31/18:00:04.576000,(21 1 -28 -54 -5 10 18 23)
1969/12/31/18:00:04.589000,(-18 -8 32 79 8 -13 -20 -18)
1969/12/31/18:00:04.589000,(-5 -1 -14 -38 -8 -7 -2 -6)
1969/12/31/18:00:04.598000,(15 4 0 17 -4 6 9 17)
1969/12/31/18:00:04.598000,(-18 -19 -4 -27 -16 -2 -4 -7)
1969/12/31/18:00:04.612000,(24 29 16 15 26 24 27 25)
1969/12/31/18:00:04.612000,(-20 -24 -31 -40 -28 -10 -9 -14)
1969/12/31/18:00:04.614000,(-6 -3 -8 -2 32 -3 -3 -3)
1969/12/31/18:00:04.614000,(10 12 -3 -2 -13 -8 -10 -1)
1969/12/31/18:00:04.635000,(15 15 9 16 -3 11 6 1)
1969/12/31/18:00:04.635000,(2 16 34 21 0 0 -2 -6)
1969/12/31/18:00:04.636000,(-37 -25 4 -1 -4 -9 -13 -19)
1969/12/31/18:00:04.636000,(27 22 17 39 15 0 2 16)
1969/12/31/18:00:04.649000,(-30 -34 -16 -21 -6 2 3 -4)
1969/12/31/18:00:04.649000,(33 18 -13 -34 -6 5 8 17)
1969/12/31/18:00:04.658000,(-12 -10 -14 -16 -8 -2 -2 -6)
1969/12/31/18:00:04.658000,(-7 0 -2 -9 0 0 -2 -3)
1969/12/31/18:00:04.672000,(-7 -3 -13 -36 -19 -15 -11 -5)
1969/12/31/18:00:04.672000,(1 -3 5 22 19 9 7 6)
1969/12/31/18:00:04.674000,(13 2 14 27 7 2 5 11)
1969/12/31/18:00:04.674000,(-7 2 9 23 -4 -8 -13 -12)
1969/12/31/18:00:04.695000,(3 -3 -16 -51 -12 -10 -4 -2)
1969/12/31/18:00:04.695000,(6 -1 0 40 10 3 8 13)
1969/12/31/18:00:04.696000,(57 32 -3 -14 -8 -4 2 16)
1969/12/31/18:00:04.696000,(4 -2 0 -4 1 -1 2 -9)
1969/12/31/18:00:04.709000,(-13 -3 8 17 7 0 -3 -7)
1969/12/31/18:00:04.709000,(47 24 -2 -9 0 3 8 18)
1969/12/31/18:00:04.718000,(-18 -18 -16 -29 -10 1 -2 -13)
1969/12/31/18:00:04.718000,(4 2 -3 17 2 0 0 5)
1969/12/31/18:00:04.740000,(-11 -6 3 -6 -2 -5 -7 -12)
1969/12/31/18:00:04.740000,(-47 -31 5 17 -2 -9 -10 -9)
1969/12/31/18:00:04.742000,(39 27 2 0 9 15 11 10)
1969/12/31/18:00:04.742000,(-2 2 -4 2 3 2 3 2)
1969/12/31/18:00:04.755000,(-8 -8 -12 -15 -9 -7 -3 -4)
1969/12/31/18:00:04.755000,(-24 -7 -1 -17 -6 -15 -19 -26)
1969/12/31/18:00:04.756000,(-1 12 2 5 -7 4 9 14)
1969/12/31/18:00:04.756000,(2 -2 1 8 3 3 5 4)
1969/12/31/18:00:04.768000,(4 4 15 17 2 -8 -11 -10)
1969/12/31/18:00:04.768000,(-27 -18 0 1 1 3 4 -6)
1969/12/31/18:00:04.777000,(40 16 -12 -13 8 7 10 20)
1969/12/31/18:00:04.777000,(-4 -1 -5 -13 -10 -8 -10 -14)
1969/12/31/18:00:04.792000,(12 3 -4 4 0 0 0 7)
1969/12/31/18:00:04.792000,(-19 -20 -13 -28 4 4 0 -8)
1969/12/31/18:00:04.794000,(24 14 11 -6 -4 -2 1 5)
1969/12/31/18:00:04.794000,(-14 -6 14 45 17 11 7 1)
1969/12/31/18:00:04.815000,(-17 -3 7 12 -15 -17 -18 -20)
1969/12/31/18:00:04.815000,(35 10 -3 2 4 2 3 9)
1969/12/31/18:00:04.817000,(30 12 -10 -32 -12 -5 3 11)
1969/12/31/18:00:04.817000,(-13 -4 -5 -9 -3 -4 -3 -7)
1969/12/31/18:00:04.828000,(-8 1 7 8 3 -6 -9 -12)
1969/12/31/18:00:04.828000,(-1 0 -1 -1 2 11 13 17)
1969/12/31/18:00:04.838000,(-24 -17 -4 3 2 2 3 -6)
1969/12/31/18:00:04.838000,(8 -13 -7 -3 1 -2 -3 1)
1969/12/31/18:00:04.852000,(40 47 3 -4 10 6 7 12)
1969/12/31/18:00:04.852000,(-2 -10 -3 -4 -19 -10 -9 -7)
1969/12/31/18:00:04.854000,(-42 -22 -2 10 7 3 -3 -22)
1969/12/31/18:00:04.854000,(-11 5 8 2 3 -1 -1 -2)
1969/12/31/18:00:04.875000,(-20 -20 -7 -1 5 5 0 -6)
1969/12/31/18:00:04.875000,(-8 1 1 7 -3 -5 -9 -13)
1969/12/31/18:00:04.876000,(-58 -36 -6 -11 -6 -4 -1 -4)
1969/12/31/18:00:04.876000,(24 12 5 10 4 9 17 19)
1969/12/31/18:00:04.889000,(-1 -5 2 19 5 4 2 3)
1969/12/31/18:00:04.889000,(10 24 3 -20 -3 -3 -2 -2)
1969/12/31/18:00:04.897000,(-42 -30 3 7 -8 -9 -14 -22)
1969/12/31/18:00:04.897000,(11 2 4 13 8 7 8 15)
1969/12/31/18:00:04.912000,(20 6 -3 -9 1 5 8 14)
1969/12/31/18:00:04.912000,(21 14 0 10 -5 -11 -9 1)
1969/12/31/18:00:04.914000,(-14 1 3 -8 2 -2 -7 -13)
1969/12/31/18:00:04.914000,(-14 -9 -5 -17 -6 -5 -7 -11)
1969/12/31/18:00:04.935000,(9 -1 1 1 -2 4 4 4)
1969/12/31/18:00:04.935000,(28 5 -6 -3 12 8 15 30)
1969/12/31/18:00:04.936000,(-25 -17 -9 -5 -6 -6 -13 -19)
1969/12/31/18:00:04.936000,(38 20 3 -5 1 11 16 15)
1969/12/31/18:00:04.948000,(-47 -23 -7 10 8 -11 -15 -23)
1969/12/31/18:00:04.948000,(5 10 17 13 -4 5 -1 1)
1969/12/31/18:00:04.957000,(11 -3 -2 -5 -3 -10 -2 1)
1969/12/31/18:00:04.957000,(-26 -13 -16 -38 -6 -9 -11 -18)
1969/12/31/18:00:04.972000,(-3 -8 4 22 -3 -1 0 3)
1969/12/31/18:00:04.972000,(-2 1 -2 10 16 7 6 0)
1969/12/31/18:00:04.978000,(28 29 28 50 11 2 4 10)
1969/12/31/18:00:04.979000,(0 -4 -3 0 0 1 2 6)
1969/12/31/18:00:04.995000,(-1 -6 -10 -25 -6 0 3 -1)
1969/12/31/18:00:04.995000,(-38 -20 -7 -10 -13 -14 -13 -19)
1969/12/31/18:00:04.997000,(32 28 -4 -21 4 22 23 15)
1969/12/31/18:00:04.997000,(-36 -22 -10 -5 -10 -11 -11 -12)
1969/12/31/18:00:05.008000,(19 3 11 18 22 24 30 33)
1969/12/31/18:00:05.009000,(-19 -16 -9 0 -1 -1 -10 -20)
1969/12/31/18:00:05.017000,(-1 -5 -2 -16 3 0 -1 8)
1969/12/31/18:00:05.017000,(-1 6 13 26 -5 -3 -6 -9)
1969/12/31/18:00:05.032000,(18 21 -1 -22 -16 -8 3 13)
1969/12/31/18:00:05.032000,(-1 -3 1 -19 -14 -5 -7 -6)
1969/12/31/18:00:05.039000,(-13 -8 3 28 6 -1 -5 -9)
1969/12/31/18:00:05.039000,(-4 -3 0 14 9 -3 -8 -9)
1969/12/31/18:00:05.055000,(15 2 -13 -18 4 15 13 12)
1969/12/31/18:00:05.055000,(13 10 1 -4 -3 1 9 19)
1969/12/31/18:00:05.056000,(-4 1 -4 -12 -7 -11 -17 -14)
1969/12/31/18:00:05.056000,(-16 -10 3 15 1 4 -2 -12)
1969/12/31/18:00:05.068000,(-3 -3 -4 -6 -8 -13 -12 -8)
1969/12/31/18:00:05.069000,(-18 -21 -17 -31 -12 -15 -17 -22)
1969/12/31/18:00:05.077000,(16 5 -9 3 -3 9 14 16)
1969/12/31/18:00:05.077000,(12 19 25 29 11 1 1 8)
1969/12/31/18:00:05.092000,(25 9 7 15 0 -6 -7 5)
1969/12/31/18:00:05.092000,(-61 -32 4 19 10 8 -1 -27)
1969/12/31/18:00:05.099000,(-5 -7 -5 -14 -6 -8 -14 -17)
1969/12/31/18:00:05.099000,(8 -9 -28 -57 -15 -2 0 -3)
1969/12/31/18:00:05.115000,(40 18 -22 -69 -21 -2 7 24)
1969/12/31/18:00:05.115000,(9 11 41 90 15 0 -4 1)
1969/12/31/18:00:05.117000,(-3 8 23 31 7 -6 -2 -1)
1969/12/31/18:00:05.117000,(13 1 -12 14 11 14 18 20)
1969/12/31/18:00:05.129000,(-20 -14 -6 -5 1 -4 -8 -9)
1969/12/31/18:00:05.129000,(3 7 -14 -23 -7 -5 -4 -1)
1969/12/31/18:00:05.138000,(-20 -23 -13 -29 -11 -2 -4 -10)
1969/12/31/18:00:05.138000,(-25 -6 3 -15 -6 -8 -9 -17)
1969/12/31/18:00:05.152000,(-17 -12 -2 8 -4 -3 -3 -5)
1969/12/31/18:00:05.152000,(39 31 2 1 1 -3 6 17)
1969/12/31/18:00:05.158000,(-9 18 19 25 13 13 16 11)
1969/12/31/18:00:05.159000,(26 7 -10 -25 -22 -28 -29 -17)
1969/12/31/18:00:05.175000,(3 -2 -7 9 12 20 21 14)
1969/12/31/18:00:05.175000,(-17 -8 3 4 3 0 -8 -7)
1969/12/31/18:00:05.177000,(-9 -15 -14 -19 -7 -1 -3 -4)
1969/12/31/18:00:05.177000,(-4 3 4 3 2 7 9 9)
1969/12/31/18:00:05.197000,(-9 2 5 -8 -8 -7 -12 -17)
1969/12/31/18:00:05.197000,(20 7 -22 -20 -5 4 8 10)
1969/12/31/18:00:05.199000,(12 5 16 15 2 -4 -1 9)
1969/12/31/18:00:05.199000,(33 21 12 35 17 10 12 15)
1969/12/31/18:00:05.212000,(-25 -17 11 20 -1 -16 -17 -23)
1969/12/31/18:00:05.212000,(57 45 10 -5 9 26 42 63)
1969/12/31/18:00:05.218000,(-37 -30 -31 -34 -19 -18 -30 -41)
1969/12/31/18:00:05.219000,(-27 -8 -5 -7 -11 -13 -15 -14)
1969/12/31/18:00:05.235000,(-32 -11 8 17 14 20 23 2)
1969/12/31/18:00:05.235000,(-11 -9 -6 -15 -7 -11 -14 -14)
1969/12/31/18:00:05.236000,(11 0 -5 -4 6 7 11 14)
1969/12/31/18:00:05.236000,(6 9 9 7 -3 0 -3 3)
1969/12/31/18:00:05.257000,(-15 -8 3 12 -9 -11 -10 -10)
1969/12/31/18:00:05.257000,(14 9 3 8 12 9 7 -2)
1969/12/31/18:00:05.259000,(0 -9 -9 -1 1 0 -2 1)
1969/12/31/18:00:05.259000,(-13 -17 -6 -22 10 4 2 0)
1969/12/31/18:00:05.271000,(7 13 11 0 -17 -11 -16 -12)
1969/12/31/18:00:05.271000,(22 11 7 12 0 1 7 19)
1969/12/31/18:00:05.280000,(-16 -5 -17 -48 -17 -12 -20 -29)
1969/12/31/18:00:05.280000,(-11 -12 -6 19 7 0 0 -3)
1969/12/31/18:00:05.295000,(12 9 12 28 15 11 19 31)
1969/12/31/18:00:05.295000,(28 13 16 13 11 7 6 1)
1969/12/31/18:00:05.296000,(11 5 -1 5 -1 -8 -7 12)
1969/12/31/18:00:05.296000,(-9 -6 -5 -19 -7 4 6 3)
1969/12/31/18:00:05.317000,(-7 -13 -17 -22 -7 -4 -6 -9)
1969/12/31/18:00:05.317000,(-26 -17 0 -19 -7 -2 -6 -14)
1969/12/31/18:00:05.319000,(35 32 23 55 20 11 22 33)
1969/12/31/18:00:05.319000,(0 -3 -7 -1 -4 -11 -10 -11)
1969/12/31/18:00:05.331000,(0 -10 -17 -1 4 -5 -7 -5)
1969/12/31/18:00:05.331000,(-23 -23 -32 -91 -35 -7 -5 -13)
1969/12/31/18:00:05.340000,(5 9 25 48 12 6 4 1)
1969/12/31/18:00:05.340000,(28 27 29 44 3 0 4 17)
1969/12/31/18:00:05.355000,(1 2 3 16 8 -9 -11 -5)
1969/12/31/18:00:05.355000,(-47 -21 -11 -5 1 -8 -17 -37)
1969/12/31/18:00:05.356000,(-5 -10 -20 -47 -13 -2 -5 -3)
1969/12/31/18:00:05.356000,(-4 -9 -9 -17 -6 1 2 2)
1969/12/31/18:00:05.376000,(7 9 4 -11 -13 -8 -7 -4)
1969/12/31/18:00:05.376000,(-13 2 9 24 8 5 11 8)
1969/12/31/18:00:05.385000,(55 28 0 3 4 -1 2 23)
1969/12/31/18:00:05.385000,(-19 -14 -5 -5 -3 -3 -8 -19)
1969/12/31/18:00:05.391000,(-31 -15 -2 -15 -4 -1 -8 -22)
1969/12/31/18:00:05.391000,(8 4 3 20 7 2 1 2)
1969/12/31/18:00:05.400000,(-11 -6 2 -7 -3 3 4 -4)
1969/12/31/18:00:05.400000,(10 9 1 0 1 4 9 14)
1969/12/31/18:00:05.415000,(15 10 -6 -27 -12 -3 -1 0)
1969/12/31/18:00:05.415000,(-4 -13 -26 -25 -9 -9 -4 -1)
1969/12/31/18:00:05.417000,(-9 -10 5 27 4 1 1 -1)
1969/12/31/18:00:05.417000,(-11 1 35 76 27 2 -9 -13)
1969/12/31/18:00:05.438000,(11 13 19 45 9 2 2 5)
1969/12/31/18:00:05.438000,(5 -14 0 4 7 10 13 18)
1969/12/31/18:00:05.439000,(2 3 -22 -61 -23 -6 -1 -3)
1969/12/31/18:00:05.439000,(-20 -16 -24 -41 -16 -12 -19 -21)
1969/12/31/18:00:05.460000,(9 8 2 1 0 1 4 1)
1969/12/31/18:00:05.460000,(3 -7 0 -2 -3 -6 -5 -3)
1969/12/31/18:00:05.461000,(16 7 2 0 3 -1 0 7)
1969/12/31/18:00:05.461000,(-4 1 1 -3 -1 9 15 12)
1969/12/31/18:00:05.475000,(-7 -10 -3 -6 1 -1 -7 -6)
1969/12/31/18:00:05.475000,(-7 1 3 0 -6 -8 -13 -15)
1969/12/31/18:00:05.476000,(-9 -5 0 18 7 1 3 -2)
1969/12/31/18:00:05.476000,(11 5 -7 -33 2 5 10 12)
1969/12/31/18:00:05.498000,(-3 -4 -1 14 -9 5 7 8)
1969/12/31/18:00:05.498000,(-2 7 20 53 24 3 -1 -1)
1969/12/31/18:00:05.499000,(-11 -1 8 6 -3 -8 -11 -15)
1969/12/31/18:00:05.499000,(9 -6 -12 -16 3 13 22 26)
1969/12/31/18:00:05.511000,(-3 -5 -13 -28 -3 1 1 -2)
1969/12/31/18:00:05.511000,(29 14 -1 5 -6 -3 1 13)
1969/12/31/18:00:05.520000,(-65 -31 4 8 7 4 -10 -44)
1969/12/31/18:00:05.520000,(-14 -17 -1 -11 -2 4 4 7)
1969/12/31/18:00:05.535000,(40 27 3 -1 4 6 14 20)
1969/12/31/18:00:05.535000,(-23 -15 -1 7 -5 -8 -13 -20)
1969/12/31/18:00:05.536000,(42 21 3 -7 8 14 24 39)
1969/12/31/18:00:05.536000,(-26 -12 -2 -4 -7 -3 -4 -13)
1969/12/31/18:00:05.557000,(-7 -5 -3 -8 0 1 0 -1)
1969/12/31/18:00:05.557000,(3 -2 -18 -67 -40 -10 -4 3)
1969/12/31/18:00:05.559000,(-11 -10 2 34 17 0 -4 -5)
1969/12/31/18:00:05.559000,(16 18 26 70 28 8 2 3)
1969/12/31/18:00:05.571000,(0 2 10 35 28 0 -5 -2)
1969/12/31/18:00:05.571000,(-8 -4 -4 -12 -5 -1 -6 -11)
1969/12/31/18:00:05.580000,(-3 -7 -10 -29 -37 -10 -3 0)
1969/12/31/18:00:05.580000,(8 2 -11 -20 -14 -8 -6 -4)
1969/12/31/18:00:05.595000,(12 10 0 -12 4 10 15 17)
1969/12/31/18:00:05.595000,(-10 -12 -4 7 7 0 -1 -4)
1969/12/31/18:00:05.596000,(-6 -6 6 -1 3 -1 0 -2)
1969/12/31/18:00:05.596000,(-15 -8 -4 -6 -3 -1 -4 -12)
1969/12/31/18:00:05.617000,(-9 -11 -10 -10 -7 -3 -2 -7)
1969/12/31/18:00:05.617000,(-3 0 5 16 8 1 -2 -3)
1969/12/31/18:00:05.619000,(4 -2 -3 2 1 -1 -1 3)
1969/12/31/18:00:05.619000,(5 2 -4 -11 -11 -9 -8 -4)
1969/12/31/18:00:05.631000,(-9 -6 -5 -8 -5 -3 -3 -5)
1969/12/31/18:00:05.631000,(11 9 7 20 11 10 9 10)
1969/12/31/18:00:05.640000,(2 2 1 6 -1 -4 -3 4)
1969/12/31/18:00:05.640000,(6 1 -17 -73 -21 -5 -2 0)
1969/12/31/18:00:05.655000,(-3 -4 -5 9 -3 -1 -1 0)
1969/12/31/18:00:05.655000,(3 6 7 27 20 2 0 1)
1969/12/31/18:00:05.656000,(-7 -3 17 40 -1 0 -3 -6)
1969/12/31/18:00:05.656000,(9 9 10 15 7 2 2 4)
1969/12/31/18:00:05.677000,(-10 -5 -2 -36 -21 -12 -9 -12)
1969/12/31/18:00:05.677000,(6 8 10 16 11 9 9 8)
1969/12/31/18:00:05.679000,(3 11 18 5 -1 1 1 3)
1969/12/31/18:00:05.679000,(7 5 -1 16 12 2 1 4)
1969/12/31/18:00:05.691000,(0 -12 -37 -92 -24 -8 -5 -1)
1969/12/31/18:00:05.691000,(-15 -28 -63 74 -16 -24 -14 -11)
1969/12/31/18:00:05.700000,(0 -5 4 -13 -49 -13 1 2)
1969/12/31/18:00:05.700000,(-4 13 14 27 27 11 -1 -6)
1969/12/31/18:00:05.722000,(9 13 23 50 47 26 12 10)
1969/12/31/18:00:05.722000,(-9 0 8 12 52 7 -5 -9)
1969/12/31/18:00:05.724000,(-11 -14 -19 -17 3 -11 -13 -12)
1969/12/31/18:00:05.724000,(0 -3 1 -33 -36 -10 -1 -2)
1969/12/31/18:00:05.737000,(13 18 25 -26 -11 13 16 13)
1969/12/31/18:00:05.737000,(11 -11 -47 -47 -35 -7 4 11)
1969/12/31/18:00:05.739000,(-5 -14 -36 -12 -7 -10 -3 1)
1969/12/31/18:00:05.739000,(-8 9 40 -1 -1 -2 -3 -5)
1969/12/31/18:00:05.751000,(5 24 46 60 16 1 0 1)
1969/12/31/18:00:05.751000,(16 14 22 85 21 0 4 9)
1969/12/31/18:00:05.760000,(-11 -21 -7 24 14 -2 -12 -14)
1969/12/31/18:00:05.760000,(-13 -17 -22 5 -16 -6 -6 -7)
1969/12/31/18:00:05.775000,(-8 -17 -45 -46 -19 -19 -7 -6)
1969/12/31/18:00:05.775000,(-9 5 25 -55 -11 3 0 -5)
1969/12/31/18:00:05.776000,(16 29 19 0 34 27 19 14)
1969/12/31/18:00:05.776000,(17 14 25 3 10 12 7 10)
1969/12/31/18:00:05.797000,(2 -6 -34 -40 -9 -11 -1 3)
1969/12/31/18:00:05.797000,(-6 -18 -20 18 -24 -11 -2 -7)
1969/12/31/18:00:05.799000,(-12 -12 -10 4 0 -16 -10 -11)
1969/12/31/18:00:05.799000,(-2 2 14 21 3 -1 -1 -1)
1969/12/31/18:00:05.811000,(-2 8 27 25 15 9 2 -1)
1969/12/31/18:00:05.811000,(7 7 -27 -76 -19 2 6 7)
1969/12/31/18:00:05.820000,(2 -2 3 23 -1 -1 2 1)
1969/12/31/18:00:05.820000,(-1 -9 -21 18 7 -8 -4 0)
1969/12/31/18:00:05.835000,(-10 -11 3 -3 4 -6 -5 -9)
1969/12/31/18:00:05.835000,(0 14 36 4 3 9 4 -1)
1969/12/31/18:00:05.836000,(13 14 24 74 18 5 8 10)
1969/12/31/18:00:05.836000,(4 -18 -43 6 2 -21 -10 -3)
1969/12/31/18:00:05.857000,(-14 -14 -11 13 -8 -6 -10 -9)
1969/12/31/18:00:05.857000,(-8 -4 0 -59 -18 -2 -7 -7)
1969/12/31/18:00:05.859000,(-3 1 -13 -77 -19 -1 0 1)
1969/12/31/18:00:05.859000,(4 4 -4 10 0 2 4 4)
1969/12/31/18:00:05.871000,(4 9 42 18 6 18 11 4)
1969/12/31/18:00:05.871000,(-3 -5 -18 -24 -26 -18 -11 -5)
1969/12/31/18:00:05.880000,(-1 -1 -21 -17 20 -1 -3 0)
1969/12/31/18:00:05.880000,(13 12 24 38 22 14 2 6)
1969/12/31/18:00:05.903000,(-1 6 0 10 1 17 -5 -6)
1969/12/31/18:00:05.903000,(8 3 20 77 32 20 2 5)
1969/12/31/18:00:05.904000,(-3 7 16 -46 -29 12 1 0)
1969/12/31/18:00:05.904000,(-1 -6 -22 -49 -22 -2 -4 -2)
1969/12/31/18:00:05.917000,(4 3 0 12 8 0 3 4)
1969/12/31/18:00:05.917000,(0 -4 1 0 5 2 3 1)
1969/12/31/18:00:05.919000,(-12 -2 -1 -26 -8 -9 -6 -9)
1969/12/31/18:00:05.919000,(-5 -4 -16 -20 -7 1 1 -4)
1969/12/31/18:00:05.931000,(2 -11 -7 13 -21 -21 -1 4)
1969/12/31/18:00:05.931000,(-7 7 18 -17 6 -7 -2 -8)
1969/12/31/18:00:05.940000,(8 0 -4 21 15 7 9 4)
1969/12/31/18:00:05.940000,(-5 4 2 -9 -6 -4 -2 -4)
1969/12/31/18:00:05.954000,(0 -7 -5 25 -7 -3 -1 -2)
1969/12/31/18:00:05.954000,(-11 -14 -6 -19 -6 -14 -9 -7)
1969/12/31/18:00:05.961000,(-1 8 10 -5 16 11 4 2)
1969/12/31/18:00:05.961000,(7 6 -6 -2 -4 3 -1 7)
1969/12/31/18:00:05.985000,(2 0 -3 10 -1 2 -7 0)
1969/12/31/18:00:05.985000,(5 13 20 24 17 17 7 9)
1969/12/31/18:00:05.986000,(3 0 -4 -12 -4 4 -3 -2)
1969/12/31/18:00:05.986000,(1 -4 -4 -11 3 3 2 1)
1969/12/31/18:00:05.991000,(-12 -6 -8 -14 -8 -11 -9 -9)
1969/12/31/18:00:05.991000,(1 5 -5 -16 -9 1 -1 -1)
1969/12/31/18:00:06.000000,(6 -3 -1 3 -1 -4 3 5)
1969/12/31/18:00:06.000000,(-11 0 13 -1 2 0 0 -3)
1969/12/31/18:00:06.014000,(-4 -7 -8 13 9 -6 -3 -1)
1969/12/31/18:00:06.014000,(-8 -8 7 11 16 1 1 -6)
1969/12/31/18:00:06.022000,(6 3 -4 14 1 0 2 5)
1969/12/31/18:00:06.022000,(-6 -11 -9 -30 -16 -9 -6 -5)
1969/12/31/18:00:06.037000,(-4 5 -1 -6 -2 -8 -2 -5)
1969/12/31/18:00:06.037000,(-2 -3 6 15 -4 -9 -1 -3)
1969/12/31/18:00:06.038000,(2 -5 -4 25 12 -5 3 4)
1969/12/31/18:00:06.038000,(6 -15 -12 15 19 4 12 9)
1969/12/31/18:00:06.059000,(-6 -6 -8 -5 -1 -8 -3 -4)
1969/12/31/18:00:06.059000,(7 5 -8 -15 -8 -4 0 2)
1969/12/31/18:00:06.060000,(-7 0 2 -27 -22 -10 -9 -9)
1969/12/31/18:00:06.060000,(0 7 10 23 1 4 2 -4)
1969/12/31/18:00:06.075000,(1 3 -4 1 2 8 3 3)
1969/12/31/18:00:06.075000,(0 3 4 -30 -5 2 0 -2)
1969/12/31/18:00:06.082000,(7 0 6 32 5 9 8 12)
1969/12/31/18:00:06.082000,(0 -3 -2 -2 -11 -3 -2 6)
1969/12/31/18:00:06.097000,(9 6 -8 -19 -11 -1 0 0)
1969/12/31/18:00:06.097000,(-9 -3 -10 -39 -19 -8 -8 -15)
1969/12/31/18:00:06.098000,(-5 -1 6 -23 10 -2 -7 -5)
1969/12/31/18:00:06.098000,(-1 8 35 96 58 14 2 -2)
1969/12/31/18:00:06.098000,(-9 -8 -13 -30 -27 -14 -23 -18)
1969/12/31/18:00:06.098000,(-5 -7 -16 -35 -41 -14 -5 -5)
1969/12/31/18:00:06.106000,(4 3 -2 -13 -7 3 10 11)
1969/12/31/18:00:06.106000,(7 3 3 25 24 2 11 12)
1969/12/31/18:00:06.113000,(-5 -4 -7 -11 -15 -8 -9 -11)
1969/12/31/18:00:06.113000,(-6 -4 -4 -29 -12 -5 -13 -14)
1969/12/31/18:00:06.121000,(1 3 6 17 4 8 13 9)
1969/12/31/18:00:06.121000,(5 2 6 18 36 17 7 6)
1969/12/31/18:00:06.129000,(-8 -7 -11 -8 7 -3 -21 -21)
1969/12/31/18:00:06.129000,(-7 -7 -12 -38 -42 -16 -6 -3)
1969/12/31/18:00:06.144000,(12 11 9 16 -5 -3 10 15)
1969/12/31/18:00:06.144000,(9 7 16 28 -3 6 -1 1)
1969/12/31/18:00:06.151000,(-10 1 27 35 14 -2 -13 -15)
1969/12/31/18:00:06.151000,(-4 -7 -23 -15 1 12 10 5)
1969/12/31/18:00:06.166000,(-2 -13 -23 -26 13 -7 1 4)
1969/12/31/18:00:06.166000,(-9 -1 12 7 -13 -1 -1 -4)
1969/12/31/18:00:06.173000,(3 11 27 12 -3 6 4 1)
1969/12/31/18:00:06.173000,(5 0 -26 -25 -20 -14 -4 1)
1969/12/31/18:00:06.196000,(-2 -2 -6 -26 -21 -4 -1 -1)
1969/12/31/18:00:06.196000,(-6 -7 3 -10 -4 -6 3 0)
1969/12/31/18:00:06.206000,(7 0 -19 -3 -4 -1 -3 3)
1969/12/31/18:00:06.206000,(-7 5 30 -1 15 3 -10 -12)
1969/12/31/18:00:06.207000,(6 2 -26 1 4 7 12 10)
1969/12/31/18:00:06.207000,(5 -4 -6 -5 -9 -8 -1 3)
1969/12/31/18:00:06.210000,(-8 11 52 35 14 15 -2 -6)
1969/12/31/18:00:06.210000,(8 2 -19 41 34 7 7 7)
1969/12/31/18:00:06.226000,(-3 -20 -15 -26 -13 -4 0 -1)
1969/12/31/18:00:06.226000,(-5 -4 -4 -35 -35 -12 -1 2)
1969/12/31/18:00:06.233000,(-6 -11 -22 -37 -18 -11 -7 -5)
1969/12/31/18:00:06.233000,(-6 7 50 50 22 14 1 0)
1969/12/31/18:00:06.249000,(4 29 47 49 27 2 2 0)
1969/12/31/18:00:06.249000,(22 8 -32 -8 -6 1 3 9)
1969/12/31/18:00:06.251000,(0 -28 -66 -86 -43 -20 -2 2)
1969/12/31/18:00:06.251000,(-10 -6 5 -41 -38 -5 -3 -5)
1969/12/31/18:00:06.264000,(26 23 -5 27 46 18 18 21)
1969/12/31/18:00:06.264000,(-1 3 27 90 57 17 -7 -8)
1969/12/31/18:00:06.271000,(-12 -12 14 46 30 4 -8 -13)
1969/12/31/18:00:06.271000,(-9 -15 -5 -2 -8 -19 -9 -5)
1969/12/31/18:00:06.286000,(-28 -20 -2 -63 -60 -14 -11 -16)
1969/12/31/18:00:06.286000,(5 13 9 16 37 2 2 2)
1969/12/31/18:00:06.293000,(6 7 -2 -56 -94 0 11 7)
1969/12/31/18:00:06.293000,(2 0 -21 1 64 -14 -5 -2)
1969/12/31/18:00:06.311000,(10 12 38 81 28 16 6 4)
1969/12/31/18:00:06.311000,(-4 -7 -22 -38 -24 -3 -1 -2)
1969/12/31/18:00:06.312000,(-10 -4 6 44 38 9 -7 -10)
1969/12/31/18:00:06.312000,(11 -3 -25 -48 -29 -1 1 5)
1969/12/31/18:00:06.323000,(-14 -20 -29 -87 -30 -13 -7 -7)
1969/12/31/18:00:06.323000,(2 4 16 51 -14 -4 -4 0)
1969/12/31/18:00:06.332000,(5 15 12 -1 7 1 2 6)
1969/12/31/18:00:06.332000,(1 4 4 23 13 7 2 -1)
1969/12/31/18:00:06.346000,(0 -5 10 27 25 7 -2 0)
1969/12/31/18:00:06.346000,(-8 -4 5 24 -2 1 -2 -2)
1969/12/31/18:00:06.353000,(1 2 -5 9 19 2 -1 3)
1969/12/31/18:00:06.353000,(3 1 -6 -12 -5 3 -1 1)
1969/12/31/18:00:06.369000,(-7 -11 -24 -64 -33 -16 -8 -7)
1969/12/31/18:00:06.370000,(-1 0 7 -19 -15 1 3 1)
1969/12/31/18:00:06.371000,(4 5 11 65 29 1 -3 2)
1969/12/31/18:00:06.371000,(-1 -4 3 13 14 3 2 -1)
1969/12/31/18:00:06.383000,(-4 -5 -4 -9 -21 -5 -1 -2)
1969/12/31/18:00:06.383000,(1 0 -15 -57 -12 -5 2 4)
1969/12/31/18:00:06.392000,(1 -4 -5 14 27 -2 0 -3)
1969/12/31/18:00:06.392000,(-4 -3 2 5 -6 -3 -2 -5)
1969/12/31/18:00:06.406000,(-2 -4 -14 -3 -12 -2 1 3)
1969/12/31/18:00:06.406000,(5 6 -9 -46 -6 9 2 2)
1969/12/31/18:00:06.421000,(6 9 26 47 2 13 0 4)
1969/12/31/18:00:06.421000,(-1 5 15 12 -5 10 -2 -2)
1969/12/31/18:00:06.429000,(2 6 9 3 11 3 1 3)
1969/12/31/18:00:06.430000,(-2 -2 -5 5 5 3 2 -1)
1969/12/31/18:00:06.431000,(-2 -6 -18 -38 -12 -5 1 -1)
1969/12/31/18:00:06.431000,(1 1 3 -3 2 -3 -2 -2)
1969/12/31/18:00:06.443000,(-3 -7 -7 -12 -14 -5 2 0)
1969/12/31/18:00:06.443000,(5 -3 -3 0 0 -4 4 9)
1969/12/31/18:00:06.452000,(-13 4 10 30 23 1 -6 -21)
1969/12/31/18:00:06.452000,(-6 -11 -6 2 -6 -8 -7 -6)
1969/12/31/18:00:06.474000,(0 -1 -3 7 0 -9 -2 -1)
1969/12/31/18:00:06.475000,(4 -1 -3 -21 -6 -4 0 2)
1969/12/31/18:00:06.476000,(1 1 -10 -15 -16 -8 -1 0)
1969/12/31/18:00:06.476000,(-1 6 2 7 6 5 -1 0)
1969/12/31/18:00:06.489000,(2 1 7 19 13 8 2 6)
1969/12/31/18:00:06.489000,(-19 -12 -4 -8 0 -3 -11 -17)
1969/12/31/18:00:06.489000,(11 2 -5 -8 0 -6 5 17)
1969/12/31/18:00:06.489000,(-10 -4 -3 -25 -21 -8 -7 -8)
1969/12/31/18:00:06.511000,(4 0 10 50 0 -5 2 0)
1969/12/31/18:00:06.511000,(14 3 6 5 4 3 3 4)
1969/12/31/18:00:06.512000,(-10 -2 -8 -6 16 3 -6 2)
1969/12/31/18:00:06.512000,(25 1 6 11 11 7 14 16)
1969/12/31/18:00:06.527000,(-17 -6 -3 0 1 0 -6 -5)
1969/12/31/18:00:06.527000,(-2 9 6 7 10 9 0 -8)
1969/12/31/18:00:06.533000,(-63 -30 -12 -25 -15 -9 -14 -24)
1969/12/31/18:00:06.533000,(44 11 -8 -4 -10 -9 -13 2)
1969/12/31/18:00:06.549000,(38 15 -2 -6 -10 6 5 20)
1969/12/31/18:00:06.549000,(-30 -6 -4 -14 -29 -7 -1 -14)
1969/12/31/18:00:06.549000,(-3 -11 -6 -11 13 -3 -8 -4)
1969/12/31/18:00:06.550000,(-17 -1 16 24 8 1 6 2)
1969/12/31/18:00:06.571000,(-10 -6 -17 -23 -36 -22 -6 -14)
1969/12/31/18:00:06.571000,(20 7 -7 -39 4 1 10 23)
1969/12/31/18:00:06.572000,(11 4 10 36 28 12 7 2)
1969/12/31/18:00:06.572000,(-20 -3 23 70 29 16 3 -9)
1969/12/31/18:00:06.587000,(8 7 12 28 26 19 5 -1)
1969/12/31/18:00:06.587000,(12 -2 -7 -11 -14 -7 0 17)
1969/12/31/18:00:06.593000,(0 1 -17 -57 -42 -15 -8 -13)
1969/12/31/18:00:06.593000,(0 -3 -10 -10 5 -1 2 1)
1969/12/31/18:00:06.609000,(-23 -9 0 -9 -3 6 -4 -9)
1969/12/31/18:00:06.609000,(35 19 -25 -54 -11 -2 13 18)
1969/12/31/18:00:06.610000,(20 -2 13 45 -17 -19 -21 -6)
1969/12/31/18:00:06.610000,(-25 11 37 46 33 21 17 -2)
1969/12/31/18:00:06.631000,(15 -4 -10 -13 -15 -7 0 3)
1969/12/31/18:00:06.631000,(-18 -13 -14 -39 -9 -4 -10 -15)
1969/12/31/18:00:06.632000,(16 11 1 -6 -1 16 14 13)
1969/12/31/18:00:06.632000,(-7 0 8 26 40 13 3 5)
1969/12/31/18:00:06.647000,(-5 9 9 12 25 9 -6 -9)
1969/12/31/18:00:06.647000,(15 0 13 30 8 4 13 25)
1969/12/31/18:00:06.653000,(-23 -20 -26 -46 -42 -17 -11 -30)
1969/12/31/18:00:06.653000,(-9 -12 -16 -25 -21 -20 -10 2)
1969/12/31/18:00:06.669000,(-5 -7 -5 -21 -13 -15 -5 2)
1969/12/31/18:00:06.669000,(15 -9 -34 -63 -77 -35 -20 -10)
1969/12/31/18:00:06.669000,(1 9 25 48 65 21 13 3)
1969/12/31/18:00:06.669000,(40 21 24 70 49 21 5 24)
1969/12/31/18:00:06.691000,(-51 -19 9 32 34 5 -13 -44)
1969/12/31/18:00:06.691000,(-29 -14 -3 -3 -5 -4 -11 -21)
1969/12/31/18:00:06.692000,(39 14 -33 -34 -41 -16 8 28)
1969/12/31/18:00:06.692000,(-5 -13 -36 -118 -53 -27 -20 -17)
1969/12/31/18:00:06.707000,(33 18 16 -13 2 12 23 34)
1969/12/31/18:00:06.707000,(-52 -11 54 127 49 13 -2 -19)
1969/12/31/18:00:06.713000,(25 11 17 18 17 7 -5 -8)
1969/12/31/18:00:06.713000,(-40 -23 -23 -8 -17 -11 -7 -22)
1969/12/31/18:00:06.729000,(41 23 -2 -18 -1 22 26 26)
1969/12/31/18:00:06.729000,(18 5 -7 -26 -4 -8 7 35)
1969/12/31/18:00:06.729000,(5 -2 -9 0 7 1 2 8)
1969/12/31/18:00:06.729000,(-33 -14 -13 -20 -24 -3 -7 -24)
1969/12/31/18:00:06.751000,(13 8 1 -18 -17 7 9 12)
1969/12/31/18:00:06.751000,(-11 -6 -7 -5 -19 -20 -19 -22)
1969/12/31/18:00:06.752000,(8 0 4 25 24 19 17 20)
1969/12/31/18:00:06.752000,(23 18 8 -4 41 18 10 13)
1969/12/31/18:00:06.767000,(-25 -8 19 55 17 5 -8 -14)
1969/12/31/18:00:06.767000,(18 13 19 30 28 16 5 5)
1969/12/31/18:00:06.773000,(-13 -3 2 -2 -18 -17 -13 -8)
1969/12/31/18:00:06.773000,(-9 -5 -9 -25 -23 -2 2 -6)
1969/12/31/18:00:06.789000,(6 -6 -13 -7 -3 -7 7 26)
1969/12/31/18:00:06.789000,(-25 -22 -24 -28 -32 -25 -32 -37)
1969/12/31/18:00:06.790000,(-28 -11 -3 -27 -4 1 0 -14)
1969/12/31/18:00:06.790000,(87 61 25 21 21 28 44 60)
1969/12/31/18:00:06.819000,(-14 -21 -10 3 -3 -3 -12 -24)
1969/12/31/18:00:06.819000,(-14 -5 -13 -72 -75 -28 -16 -13)
1969/12/31/18:00:06.819000,(-13 -6 -4 28 54 5 6 3)
1969/12/31/18:00:06.820000,(41 16 10 35 37 19 17 30)
1969/12/31/18:00:06.834000,(-21 -9 -18 -12 -26 -11 -18 -24)
1969/12/31/18:00:06.834000,(11 2 -19 -32 24 14 17 11)
1969/12/31/18:00:06.835000,(0 0 18 11 -50 -11 -1 3)
1969/12/31/18:00:06.835000,(-25 -19 -10 -44 -61 -19 -15 -16)
1969/12/31/18:00:06.856000,(17 23 53 122 96 15 9 12)
1969/12/31/18:00:06.856000,(7 11 33 94 74 35 11 1)
1969/12/31/18:00:06.857000,(11 5 -2 -6 0 -1 4 15)
1969/12/31/18:00:06.857000,(-60 -51 -32 -45 -34 -19 -24 -33)
1969/12/31/18:00:06.879000,(69 48 -27 -80 -56 -15 11 36)
1969/12/31/18:00:06.879000,(-30 -38 -16 -22 -13 -14 -8 -8)
1969/12/31/18:00:06.880000,(64 50 -1 -26 1 14 21 34)
1969/12/31/18:00:06.880000,(-57 -29 -13 -20 -19 -16 -16 -20)
1969/12/31/18:00:06.894000,(-74 -78 -24 -28 -22 -21 -22 -11)
1969/12/31/18:00:06.894000,(70 93 36 32 27 22 21 3)
1969/12/31/18:00:06.895000,(55 39 53 61 51 41 25 27)
1969/12/31/18:00:06.895000,(40 8 -19 44 37 -9 -7 5)
1969/12/31/18:00:06.916000,(-83 -71 -25 9 -16 -37 -31 -34)
1969/12/31/18:00:06.916000,(-20 -25 -28 1 -2 -25 -32 -26)
1969/12/31/18:00:06.917000,(-45 -17 -9 -49 -31 -1 1 -24)
1969/12/31/18:00:06.917000,(-15 3 15 -15 -15 3 -3 -18)
1969/12/31/18:00:06.939000,(61 57 35 26 30 26 29 43)
1969/12/31/18:00:06.939000,(-3 -14 5 -3 -3 2 -10 -23)
1969/12/31/18:00:06.940000,(29 9 -1 -10 -8 -6 6 31)
1969/12/31/18:00:06.940000,(13 44 19 17 18 25 28 29)
1969/12/31/18:00:06.954000,(-124 -78 -26 -34 -24 -30 -44 -80)
1969/12/31/18:00:06.954000,(-41 -31 14 19 20 26 26 13)
1969/12/31/18:00:06.955000,(38 36 -10 -10 -6 -9 -8 15)
1969/12/31/18:00:06.955000,(-37 -37 -8 13 -3 -10 -10 -28)
1969/12/31/18:00:06.976000,(57 33 8 -11 -8 7 14 35)
1969/12/31/18:00:06.976000,(32 24 7 -12 -2 0 -1 12)
1969/12/31/18:00:06.977000,(-75 -63 -20 15 1 -14 -20 -41)
1969/12/31/18:00:06.977000,(9 1 2 -10 -11 -5 -1 4)
1969/12/31/18:00:06.999000,(16 18 -12 -52 -12 -1 0 -9)
1969/12/31/18:00:06.999000,(-13 -21 -28 -34 -7 1 5 6)
1969/12/31/18:00:07.000000,(-10 -11 24 71 31 2 -2 3)
1969/12/31/18:00:07.000000,(51 37 38 64 22 12 19 44)
1969/12/31/18:00:07.014000,(38 34 42 42 23 17 18 18)
1969/12/31/18:00:07.014000,(-37 -32 -17 -10 -7 -9 -9 -10)
1969/12/31/18:00:07.015000,(15 14 -39 -72 -44 -23 -23 -29)
1969/12/31/18:00:07.015000,(5 -12 -16 -30 -18 -8 -1 4)
1969/12/31/18:00:07.036000,(0 -8 -12 -3 3 2 -3 -3)
1969/12/31/18:00:07.036000,(6 5 1 -3 -1 3 10 10)
1969/12/31/18:00:07.037000,(-53 -39 -14 -21 -18 -8 -13 -30)
1969/12/31/18:00:07.037000,(13 2 -5 7 -2 -10 -12 -4)
1969/12/31/18:00:07.060000,(-37 -7 -6 -20 14 0 -12 -29)
1969/12/31/18:00:07.060000,(1 1 13 54 4 1 -6 -6)
1969/12/31/18:00:07.060000,(4 1 1 -25 -4 -3 2 6)
1969/12/31/18:00:07.060000,(-20 -16 -28 -72 -37 -13 -12 -17)
1969/12/31/18:00:07.074000,(3 -17 24 68 8 3 10 15)
1969/12/31/18:00:07.074000,(25 59 41 38 40 22 15 13)
1969/12/31/18:00:07.075000,(-20 -18 -6 -9 2 -4 -9 -9)
1969/12/31/18:00:07.075000,(-22 -15 -6 -6 -20 -7 -6 -14)
1969/12/31/18:00:07.104000,(23 6 -19 -29 -8 -1 8 13)
1969/12/31/18:00:07.104000,(-14 -11 1 9 16 10 6 6)
1969/12/31/18:00:07.105000,(1 -1 -10 -17 14 14 11 13)
1969/12/31/18:00:07.105000,(0 11 33 37 -23 -10 -9 -9)
1969/12/31/18:00:07.120000,(7 11 -19 -94 -35 -13 -5 -1)
1969/12/31/18:00:07.120000,(-16 -23 2 116 43 -6 -14 -15)
1969/12/31/18:00:07.120000,(-14 -6 -13 -3 19 0 0 -7)
1969/12/31/18:00:07.120000,(-7 -12 -10 -31 -18 1 -1 -5)
1969/12/31/18:00:07.134000,(2 10 7 -1 -12 5 4 0)
1969/12/31/18:00:07.134000,(6 2 -17 -40 -27 -6 2 8)
1969/12/31/18:00:07.135000,(-19 -26 -6 -9 -11 -11 -9 -3)
1969/12/31/18:00:07.135000,(13 15 4 11 22 10 12 10)
1969/12/31/18:00:07.156000,(0 4 27 47 -1 4 -1 -1)
1969/12/31/18:00:07.156000,(12 -2 14 24 19 8 13 17)
1969/12/31/18:00:07.157000,(12 -3 6 17 6 -2 -4 5)
1969/12/31/18:00:07.157000,(-17 -21 -52 -39 -22 -25 -25 -23)
1969/12/31/18:00:07.179000,(-7 -4 -1 -10 -12 -3 -3 -5)
1969/12/31/18:00:07.179000,(1 -4 -1 28 -13 -7 -5 -2)
1969/12/31/18:00:07.180000,(19 28 72 127 46 17 12 15)
1969/12/31/18:00:07.180000,(3 8 32 2 46 28 10 4)
1969/12/31/18:00:07.194000,(-7 -17 -57 -27 1 -10 -14 -17)
1969/12/31/18:00:07.194000,(1 -4 -14 -69 -52 -22 -2 6)
1969/12/31/18:00:07.195000,(10 15 0 -73 -30 -9 5 5)
1969/12/31/18:00:07.195000,(-4 -4 -8 60 35 10 3 -1)
1969/12/31/18:00:07.216000,(-11 -13 -21 15 19 -4 -6 -6)
1969/12/31/18:00:07.216000,(3 -5 -11 -36 -19 -13 -8 0)
1969/12/31/18:00:07.217000,(-70 -26 -22 -92 -51 -14 -19 -40)
1969/12/31/18:00:07.217000,(-7 -3 6 1 3 12 18 11)
1969/12/31/18:00:07.239000,(18 11 16 46 35 22 14 9)
1969/12/31/18:00:07.239000,(3 -4 5 -51 1 3 0 7)
1969/12/31/18:00:07.240000,(25 15 23 112 13 11 9 7)
1969/12/31/18:00:07.240000,(-21 -19 -15 -41 -8 -12 -22 -21)
1969/12/31/18:00:07.254000,(5 7 14 -49 -13 -8 -2 8)
1969/12/31/18:00:07.254000,(-12 7 24 88 19 7 3 -11)
1969/12/31/18:00:07.255000,(6 -5 -29 -107 -24 -6 -2 2)
1969/12/31/18:00:07.255000,(3 6 20 79 -7 -4 -1 1)
1969/12/31/18:00:07.276000,(50 34 7 -19 -3 -10 -4 10)
1969/12/31/18:00:07.276000,(-30 -18 5 13 32 22 20 2)
1969/12/31/18:00:07.277000,(26 -8 -22 -18 12 10 13 11)
1969/12/31/18:00:07.277000,(79 52 -16 -33 -8 0 17 41)
1969/12/31/18:00:07.300000,(-56 -22 -19 -22 -30 -24 -30 -35)
1969/12/31/18:00:07.300000,(-53 -6 -4 -69 -13 -3 -7 -30)
1969/12/31/18:00:07.300000,(22 8 4 54 -2 -3 -4 4)
1969/12/31/18:00:07.300000,(0 4 12 -4 19 14 18 14)
1969/12/31/18:00:07.314000,(-38 -38 0 -23 -10 -6 -11 -14)
1969/12/31/18:00:07.314000,(-8 3 7 -9 3 4 -7 -24)
1969/12/31/18:00:07.314000,(34 31 6 24 -3 -1 0 6)
1969/12/31/18:00:07.314000,(3 7 37 77 2 -3 -6 -3)
1969/12/31/18:00:07.336000,(-3 -1 -16 0 12 2 -2 -4)
1969/12/31/18:00:07.336000,(1 -17 -10 -16 -5 -5 -5 3)
1969/12/31/18:00:07.337000,(-20 10 2 -37 -1 3 11 13)
1969/12/31/18:00:07.337000,(-14 -21 -26 -42 -9 -10 -12 -7)
1969/12/31/18:00:07.359000,(-6 1 2 6 4 16 15 -1)
1969/12/31/18:00:07.359000,(86 43 -7 -3 -8 -4 8 40)
1969/12/31/18:00:07.360000,(7 14 5 15 4 -4 -8 -10)
1969/12/31/18:00:07.360000,(-13 -15 -44 -104 -18 -17 -18 -16)
1969/12/31/18:00:07.382000,(7 5 9 82 -6 8 9 7)
1969/12/31/18:00:07.382000,(-1 3 43 75 8 -1 -8 -1)
1969/12/31/18:00:07.383000,(-44 -26 26 53 16 -14 -21 -27)
1969/12/31/18:00:07.383000,(72 47 6 -16 13 18 36 58)
1969/12/31/18:00:07.396000,(1 9 1 -30 0 2 -1 -7)
1969/12/31/18:00:07.396000,(14 -4 -24 -25 -47 -7 4 18)
1969/12/31/18:00:07.397000,(-37 -28 -29 -41 -5 -11 -18 -23)
1969/12/31/18:00:07.397000,(13 14 9 24 5 -1 -4 -14)
1969/12/31/18:00:07.419000,(55 18 -7 -8 14 -1 8 34)
1969/12/31/18:00:07.419000,(-6 8 7 -8 8 9 6 -9)
1969/12/31/18:00:07.420000,(-44 -65 -6 38 -7 -5 -1 6)
1969/12/31/18:00:07.420000,(9 13 -11 -64 -13 -9 -21 -38)
1969/12/31/18:00:07.434000,(-2 8 27 117 11 -5 -4 -1)
1969/12/31/18:00:07.434000,(16 16 -2 -23 10 0 0 0)
1969/12/31/18:00:07.434000,(-18 -11 0 -11 4 9 9 -3)
1969/12/31/18:00:07.434000,(-42 -38 5 -1 -13 -5 -5 -7)
1969/12/31/18:00:07.456000,(28 32 -3 -37 -1 -2 11 15)
1969/12/31/18:00:07.456000,(-9 -12 -7 26 6 -8 -13 -8)
1969/12/31/18:00:07.457000,(13 17 25 46 -17 12 19 17)
1969/12/31/18:00:07.457000,(2 7 25 49 25 12 14 10)
1969/12/31/18:00:07.479000,(-31 -26 8 13 3 4 0 -4)
1969/12/31/18:00:07.479000,(-24 1 -20 -21 11 -5 -12 -19)
1969/12/31/18:00:07.480000,(43 38 -19 -50 2 4 9 9)
1969/12/31/18:00:07.480000,(-3 -8 -15 -73 -36 -18 -17 -9)
1969/12/31/18:00:07.493000,(3 -13 6 81 -2 7 11 4)
1969/12/31/18:00:07.493000,(-31 -14 8 16 23 6 1 -7)
1969/12/31/18:00:07.501000,(79 25 -8 -3 -1 5 6 15)
1969/12/31/18:00:07.501000,(-28 -1 11 22 5 -6 -13 -21)
1969/12/31/18:00:07.516000,(-3 -5 -41 -112 -19 -14 -14 -14)
1969/12/31/18:00:07.516000,(12 -4 -4 10 -22 0 1 7)
1969/12/31/18:00:07.517000,(-23 -4 4 -5 -6 -2 3 6)
1969/12/31/18:00:07.517000,(-49 -45 12 74 19 2 -2 -7)
1969/12/31/18:00:07.539000,(52 31 39 54 36 29 28 43)
1969/12/31/18:00:07.539000,(-14 -12 -14 -31 -10 -6 -8 -11)
1969/12/31/18:00:07.540000,(-13 -7 -31 -76 0 -11 -10 -11)
1969/12/31/18:00:07.540000,(-20 -5 25 45 -16 2 3 5)
1969/12/31/18:00:07.553000,(5 -4 8 8 -4 2 3 -2)
1969/12/31/18:00:07.553000,(25 15 2 -58 3 5 20 31)
1969/12/31/18:00:07.561000,(-78 -61 -10 44 5 -10 -18 -29)
1969/12/31/18:00:07.561000,(11 24 -19 -28 -2 3 6 7)
1969/12/31/18:00:07.576000,(-34 -13 -3 1 -8 -13 -21 -25)
1969/12/31/18:00:07.576000,(17 -2 -5 -11 2 -2 0 3)
1969/12/31/18:00:07.577000,(-6 -5 -3 -5 10 6 1 -3)
1969/12/31/18:00:07.577000,(6 -7 -15 -7 6 4 8 11)
1969/12/31/18:00:07.599000,(-17 -5 2 -25 -29 -4 -3 -8)
1969/12/31/18:00:07.599000,(-8 -5 11 30 -2 -10 -12 -13)
1969/12/31/18:00:07.600000,(19 20 15 13 16 8 8 11)
1969/12/31/18:00:07.600000,(-17 -14 7 53 21 0 -7 -11)
1969/12/31/18:00:07.613000,(6 1 -4 -43 -20 0 0 -3)
1969/12/31/18:00:07.613000,(-2 0 -2 19 -9 -11 -6 0)
1969/12/31/18:00:07.621000,(-5 37 18 10 -3 9 20 20)
1969/12/31/18:00:07.621000,(-32 -22 -13 -20 6 4 -6 -24)
1969/12/31/18:00:07.636000,(21 9 -17 -28 13 9 21 37)
1969/12/31/18:00:07.636000,(25 12 -5 -3 -9 1 -5 -1)
1969/12/31/18:00:07.637000,(-3 -14 0 0 -6 -4 -6 -3)
1969/12/31/18:00:07.637000,(17 -1 -8 -30 -6 -3 4 16)
1969/12/31/18:00:07.659000,(-8 4 -10 -22 -6 -6 -9 -17)
1969/12/31/18:00:07.659000,(-21 -13 20 54 5 -5 -8 -10)
1969/12/31/18:00:07.660000,(19 11 0 -14 3 5 5 6)
1969/12/31/18:00:07.660000,(6 -1 14 49 8 5 2 2)
1969/12/31/18:00:07.673000,(-5 3 12 17 1 -5 -6 -7)
1969/12/31/18:00:07.673000,(-1 -1 -30 -76 -12 -2 3 6)
1969/12/31/18:00:07.681000,(-18 -16 -14 -17 -3 -11 -18 -26)
1969/12/31/18:00:07.681000,(30 16 5 21 -17 -4 4 18)
1969/12/31/18:00:07.696000,(-45 -6 18 24 -6 -9 -21 -28)
1969/12/31/18:00:07.696000,(-3 -17 -13 -14 5 -4 -13 -32)
1969/12/31/18:00:07.697000,(3 7 -17 -54 -10 4 6 4)
1969/12/31/18:00:07.697000,(-28 -33 -4 23 -7 -19 -20 -17)
1969/12/31/18:00:07.719000,(-6 -8 13 43 20 5 6 3)
1969/12/31/18:00:07.719000,(11 16 -1 -34 -11 -8 -12 1)
1969/12/31/18:00:07.720000,(-4 -3 -1 13 0 4 3 -1)
1969/12/31/18:00:07.720000,(-9 2 3 -29 -3 7 2 -3)
1969/12/31/18:00:07.733000,(9 -8 -37 -56 -31 -7 0 5)
1969/12/31/18:00:07.733000,(-13 -3 22 69 23 16 14 4)
1969/12/31/18:00:07.741000,(-12 -8 35 57 29 -2 -11 -11)
1969/12/31/18:00:07.741000,(88 50 -2 -13 6 4 22 59)
1969/12/31/18:00:07.756000,(-44 -27 -41 -79 -20 -10 -20 -36)
1969/12/31/18:00:07.756000,(19 7 -8 11 5 10 15 24)
1969/12/31/18:00:07.757000,(-14 -8 6 41 -13 0 -4 -10)
1969/12/31/18:00:07.757000,(-29 -6 19 26 -4 -13 -17 -23)
1969/12/31/18:00:07.779000,(61 49 17 15 1 4 4 9)
1969/12/31/18:00:07.779000,(-59 -35 -22 -28 0 -3 -5 -17)
1969/12/31/18:00:07.780000,(9 -2 -18 -52 -7 0 1 2)
1969/12/31/18:00:07.780000,(-8 -5 -11 -15 -2 2 -3 -10)
1969/12/31/18:00:07.802000,(1 4 5 13 7 -2 2 7)
1969/12/31/18:00:07.802000,(2 6 2 -28 -10 3 7 7)
1969/12/31/18:00:07.803000,(9 0 14 67 6 2 3 10)
1969/12/31/18:00:07.803000,(-55 -39 -6 2 9 -5 -18 -36)
1969/12/31/18:00:07.816000,(30 18 -3 -11 3 4 8 17)
1969/12/31/18:00:07.816000,(27 10 19 20 -3 -1 0 20)
1969/12/31/18:00:07.817000,(-17 -13 -5 -37 -11 -7 -8 -10)
1969/12/31/18:00:07.817000,(4 10 1 -3 -5 1 3 2)
1969/12/31/18:00:07.839000,(43 4 12 45 27 18 23 35)
1969/12/31/18:00:07.839000,(-14 -19 -48 -69 -8 -8 -7 -9)
1969/12/31/18:00:07.840000,(13 5 -6 -26 -11 -9 -8 -4)
1969/12/31/18:00:07.840000,(8 18 32 51 -10 8 6 9)
1969/12/31/18:00:07.862000,(-8 -4 -5 -27 9 -3 -2 0)
1969/12/31/18:00:07.862000,(6 6 -4 59 10 4 9 4)
1969/12/31/18:00:07.863000,(-7 -4 15 27 9 3 -5 -8)
1969/12/31/18:00:07.863000,(-5 -3 -9 -9 2 -2 -2 -5)
1969/12/31/18:00:07.876000,(-56 -50 1 14 -7 -10 -11 -18)
1969/12/31/18:00:07.876000,(51 41 -1 -23 3 16 25 32)
1969/12/31/18:00:07.877000,(-2 -5 -9 -8 -3 -7 -6 -2)
1969/12/31/18:00:07.877000,(14 5 -1 17 -2 -2 -8 -12)
1969/12/31/18:00:07.899000,(-27 -12 -14 -47 1 3 0 -10)
1969/12/31/18:00:07.899000,(-17 1 16 31 -3 1 -4 -7)
1969/12/31/18:00:07.901000,(39 5 27 50 17 20 29 51)
1969/12/31/18:00:07.901000,(-2 -9 -33 -60 -7 2 3 -2)
1969/12/31/18:00:07.922000,(-11 -6 7 1 -4 -8 -11 -10)
1969/12/31/18:00:07.922000,(-9 -5 8 20 2 -1 -4 -6)
1969/12/31/18:00:07.923000,(8 20 13 38 2 -2 -1 -6)
1969/12/31/18:00:07.923000,(-12 -12 -9 -28 -2 1 3 2)
1969/12/31/18:00:07.936000,(-5 -6 -9 -13 -2 -4 -3 0)
1969/12/31/18:00:07.936000,(-18 -15 -2 -23 -10 -4 -4 -12)
1969/12/31/18:00:07.944000,(-14 -20 -15 -16 -12 -10 -8 -4)
1969/12/31/18:00:07.945000,(31 43 -9 -16 10 2 10 21)
1969/12/31/18:00:07.959000,(-25 -7 12 52 -1 -8 -17 -26)
1969/12/31/18:00:07.959000,(1 0 10 20 23 4 1 -2)
1969/12/31/18:00:07.961000,(-20 -10 -8 -12 -15 -9 -9 -19)
1969/12/31/18:00:07.961000,(-13 -11 14 4 -8 7 8 -1)
1969/12/31/18:00:07.982000,(16 6 9 15 5 3 6 25)
1969/12/31/18:00:07.982000,(-2 -11 -24 -27 -8 -9 -10 -11)
1969/12/31/18:00:07.984000,(-3 -7 -40 -98 -1 4 2 -2)
1969/12/31/18:00:07.984000,(4 4 19 59 -6 -4 -2 -1)
1969/12/31/18:00:07.996000,(-8 8 25 70 10 -2 -5 -11)
1969/12/31/18:00:07.996000,(-32 -22 12 32 10 -4 -8 -8)
1969/12/31/18:00:08.003000,(59 46 8 -4 11 18 21 22)
1969/12/31/18:00:08.003000,(-18 -18 -25 -76 -19 -14 -16 -17)
1969/12/31/18:00:08.019000,(-5 -10 -18 -27 -8 3 5 2)
1969/12/31/18:00:08.019000,(-9 5 19 31 0 -9 -7 -6)
1969/12/31/18:00:08.021000,(20 17 -21 -25 -13 -3 2 10)
1969/12/31/18:00:08.021000,(-4 -6 9 12 5 4 1 2)
1969/12/31/18:00:08.042000,(0 1 9 40 11 -3 -5 -6)
1969/12/31/18:00:08.042000,(1 -4 12 1 9 22 20 14)
1969/12/31/18:00:08.043000,(5 8 -7 -7 -19 -21 -22 -14)
1969/12/31/18:00:08.043000,(6 -3 -14 -14 5 4 5 6)
1969/12/31/18:00:08.058000,(10 1 -12 -32 -4 2 6 11)
1969/12/31/18:00:08.058000,(-6 -7 3 13 -6 -4 -4 -6)
1969/12/31/18:00:08.063000,(40 31 -14 -47 -6 4 8 17)
1969/12/31/18:00:08.063000,(-24 -17 -16 -57 -22 -7 -5 -12)
1969/12/31/18:00:08.080000,(-2 8 30 89 22 1 -6 -11)
1969/12/31/18:00:08.080000,(8 14 20 28 7 2 -3 0)
1969/12/31/18:00:08.081000,(-31 -31 0 35 14 -4 -12 -17)
1969/12/31/18:00:08.081000,(-10 6 -1 -15 6 0 -3 -12)
1969/12/31/18:00:08.102000,(17 8 -22 -61 -17 9 14 13)
1969/12/31/18:00:08.102000,(-2 -2 -20 -37 -19 -11 -10 -8)
1969/12/31/18:00:08.103000,(-12 -10 3 -7 -6 -5 -3 -2)
1969/12/31/18:00:08.103000,(10 4 16 44 19 3 2 2)
1969/12/31/18:00:08.116000,(-30 -21 2 10 -1 -4 -2 -4)
1969/12/31/18:00:08.116000,(-25 -6 3 6 6 2 -6 -13)
1969/12/31/18:00:08.123000,(-12 -5 4 8 2 11 14 7)
1969/12/31/18:00:08.123000,(6 -2 -7 -7 -5 -3 1 6)
1969/12/31/18:00:08.154000,(-3 0 -10 -49 -11 -7 -6 -8)
1969/12/31/18:00:08.154000,(12 1 -23 -27 -10 -4 1 5)
1969/12/31/18:00:08.156000,(-3 0 18 56 5 7 7 3)
1969/12/31/18:00:08.156000,(-5 -2 9 23 11 0 -5 -1)
1969/12/31/18:00:08.162000,(3 1 9 17 2 -2 -2 2)
1969/12/31/18:00:08.162000,(8 8 5 -30 -10 -4 0 4)
1969/12/31/18:00:08.164000,(-18 -11 -14 -17 1 -7 -11 -17)
1969/12/31/18:00:08.164000,(23 13 13 47 21 17 15 20)
1969/12/31/18:00:08.176000,(11 10 3 6 18 12 8 5)
1969/12/31/18:00:08.176000,(-1 -3 -6 -7 -11 -10 -9 -5)
1969/12/31/18:00:08.183000,(-12 -8 -11 -23 -17 -10 -4 -6)
1969/12/31/18:00:08.183000,(-4 -6 -11 -18 -12 -6 -3 -2)
1969/12/31/18:00:08.199000,(1 -1 -1 8 -4 -3 -2 -3)
1969/12/31/18:00:08.199000,(-24 -6 5 15 11 4 -2 -10)
1969/12/31/18:00:08.201000,(-8 -5 0 -28 -12 -6 -8 -8)
1969/12/31/18:00:08.201000,(3 -5 -47 -48 -33 -21 -7 -2)
1969/12/31/18:00:08.222000,(5 3 11 2 -11 -2 1 2)
1969/12/31/18:00:08.222000,(20 11 10 -6 -11 8 12 15)
1969/12/31/18:00:08.224000,(2 1 -1 20 82 26 9 5)
1969/12/31/18:00:08.224000,(-1 8 40 97 20 16 4 -2)
1969/12/31/18:00:08.236000,(0 5 -6 -23 -56 -26 -11 -3)
1969/12/31/18:00:08.236000,(18 23 54 19 9 10 10 10)
1969/12/31/18:00:08.245000,(3 2 -6 12 -14 12 9 7)
1969/12/31/18:00:08.245000,(-5 -25 -38 -1 65 5 -7 -5)
1969/12/31/18:00:08.260000,(-36 -34 -46 -78 -10 -20 -20 -27)
1969/12/31/18:00:08.260000,(3 -1 -8 47 -33 -8 -1 0)
1969/12/31/18:00:08.261000,(4 8 20 -7 -14 -7 -1 -1)
1969/12/31/18:00:08.261000,(8 11 23 23 -6 4 8 9)
1969/12/31/18:00:08.282000,(13 7 -16 -65 6 7 7 10)
1969/12/31/18:00:08.282000,(1 -4 -8 5 8 1 -2 0)
1969/12/31/18:00:08.283000,(3 8 20 39 7 1 3 2)
1969/12/31/18:00:08.283000,(0 1 4 -28 -24 -5 -2 -1)
1969/12/31/18:00:08.296000,(3 6 15 29 10 6 4 2)
1969/12/31/18:00:08.296000,(7 -6 -27 -15 11 -2 1 3)
1969/12/31/18:00:08.304000,(3 -1 2 -24 -5 3 2 1)
1969/12/31/18:00:08.304000,(0 -5 -20 -41 -20 -13 -7 -2)
1969/12/31/18:00:08.319000,(-6 -6 7 44 5 -7 -6 -6)
1969/12/31/18:00:08.319000,(-8 5 21 30 14 6 -3 -7)
1969/12/31/18:00:08.321000,(-2 -11 -28 -9 -7 -10 -7 -2)
1969/12/31/18:00:08.321000,(-11 -9 -1 -31 -20 -10 -4 -5)
1969/12/31/18:00:08.342000,(3 10 25 -3 16 14 6 3)
1969/12/31/18:00:08.342000,(5 1 -18 5 8 2 2 3)
1969/12/31/18:00:08.343000,(2 1 -15 -25 6 -1 1 2)
1969/12/31/18:00:08.343000,(0 2 20 26 -8 -3 0 -2)
1969/12/31/18:00:08.356000,(2 0 -3 12 -29 -7 2 2)
1969/12/31/18:00:08.356000,(3 0 4 -43 6 -3 1 2)
1969/12/31/18:00:08.365000,(-2 0 3 28 30 19 6 1)
1969/12/31/18:00:08.365000,(7 4 -9 34 18 -2 -2 4)
1969/12/31/18:00:08.379000,(0 -9 -12 2 -6 -2 -5 -2)
1969/12/31/18:00:08.379000,(-9 -3 0 -25 -21 -3 -4 -7)
1969/12/31/18:00:08.381000,(4 9 11 -36 -30 -9 -2 1)
1969/12/31/18:00:08.381000,(6 11 20 -7 6 18 8 6)
1969/12/31/18:00:08.402000,(11 6 -18 27 18 4 5 8)
1969/12/31/18:00:08.402000,(-5 -14 -22 -17 -5 -7 -4 -3)
1969/12/31/18:00:08.408000,(-6 -1 20 -12 -8 -6 -4 -6)
1969/12/31/18:00:08.408000,(-6 -4 -9 -18 -10 1 -1 -3)
1969/12/31/18:00:08.416000,(0 0 -14 25 8 5 4 3)
1969/12/31/18:00:08.416000,(2 -2 4 48 16 -8 -4 -2)
1969/12/31/18:00:08.425000,(-11 -9 -6 -28 -24 -14 -7 -9)
1969/12/31/18:00:08.425000,(-3 2 9 -26 -7 0 -1 -5)
1969/12/31/18:00:08.439000,(9 14 28 38 23 13 5 6)
1969/12/31/18:00:08.439000,(8 7 -2 8 7 12 6 6)
1969/12/31/18:00:08.441000,(-1 -6 -16 -24 -22 -4 -2 1)
1969/12/31/18:00:08.441000,(0 -2 -6 -17 -12 -6 -7 1)
1969/12/31/18:00:08.462000,(-7 -3 1 19 4 8 -3 -4)
1969/12/31/18:00:08.462000,(0 6 7 -38 1 -1 -3 -2)
1969/12/31/18:00:08.464000,(1 -2 -9 -4 -4 5 2 1)
1969/12/31/18:00:08.464000,(-4 -8 -10 38 9 6 2 -2)
1969/12/31/18:00:08.476000,(-4 -3 17 32 27 4 -1 -1)
1969/12/31/18:00:08.476000,(-5 -3 -28 -102 -66 -14 -3 -4)
1969/12/31/18:00:08.484000,(5 5 -5 12 25 -3 0 3)
1969/12/31/18:00:08.484000,(2 10 47 84 49 5 1 2)
1969/12/31/18:00:08.500000,(-3 3 29 69 17 5 4 -4)
1969/12/31/18:00:08.500000,(-4 -6 -6 -1 0 -5 -2 -2)
1969/12/31/18:00:08.506000,(4 -14 -67 -95 -77 -26 -2 2)
1969/12/31/18:00:08.506000,(1 -2 -13 -60 -18 -6 2 2)
1969/12/31/18:00:08.522000,(4 9 35 48 37 5 1 1)
1969/12/31/18:00:08.522000,(-7 -4 -5 -28 -7 3 1 -3)
1969/12/31/18:00:08.524000,(9 13 39 127 74 22 6 5)
1969/12/31/18:00:08.524000,(-11 -2 14 1 -5 -8 -11 -11)
1969/12/31/18:00:08.536000,(3 -9 -73 -128 -76 -26 -12 0)
1969/12/31/18:00:08.536000,(5 -4 2 26 6 -3 3 7)
1969/12/31/18:00:08.545000,(-14 2 36 80 45 6 -4 -10)
1969/12/31/18:00:08.545000,(-3 1 -2 8 8 2 -3 -4)
1969/12/31/18:00:08.559000,(6 4 -3 -41 -6 5 8 8)
1969/12/31/18:00:08.559000,(25 5 -19 -28 -9 5 4 13)
1969/12/31/18:00:08.566000,(-5 -6 -5 -12 -45 -3 -6 -4)
1969/12/31/18:00:08.566000,(-2 0 -13 -42 16 -3 -4 -3)
1969/12/31/18:00:08.582000,(-23 -5 25 33 4 1 -10 -15)
1969/12/31/18:00:08.582000,(17 12 2 -11 12 11 12 14)
1969/12/31/18:00:08.583000,(0 -1 13 60 21 4 1 0)
1969/12/31/18:00:08.583000,(-3 -2 -16 -22 -27 -7 -1 -4)
1969/12/31/18:00:08.596000,(-5 -4 -16 -67 -25 -9 -2 -5)
1969/12/31/18:00:08.596000,(-20 -15 4 58 15 -7 -9 -14)
1969/12/31/18:00:08.605000,(3 8 22 -2 16 -2 2 3)
1969/12/31/18:00:08.605000,(-2 -2 -11 -5 -15 -5 -2 -2)
1969/12/31/18:00:08.619000,(9 -3 -27 -60 -10 3 9 7)
1969/12/31/18:00:08.619000,(-23 6 64 116 45 3 -11 -17)
1969/12/31/18:00:08.619000,(0 0 1 2 1 3 -1 0)
1969/12/31/18:00:08.619000,(0 0 3 0 3 0 1 -1)
1969/12/31/18:00:08.641000,(0 1 -2 -3 -3 0 -1 -1)
1969/12/31/18:00:08.641000,(-1 -2 0 -2 -2 -3 -3 -3)
1969/12/31/18:00:08.641000,(0 -3 -2 -4 -1 -1 -3 -3)
1969/12/31/18:00:08.641000,(0 -2 -1 2 3 0 0 0)
1969/12/31/18:00:08.663000,(1 0 2 -1 1 2 -1 2)
1969/12/31/18:00:08.663000,(0 -1 -2 3 1 1 0 0)
1969/12/31/18:00:08.664000,(0 -1 0 5 2 -2 -1 0)
1969/12/31/18:00:08.664000,(-1 1 3 -4 -2 -1 0 0)
1969/12/31/18:00:08.678000,(4 2 -4 5 6 8 5 5)
1969/12/31/18:00:08.678000,(4 -1 -8 1 0 -5 -3 2)
1969/12/31/18:00:08.679000,(-10 -6 -1 -10 -8 -4 -4 -5)
1969/12/31/18:00:08.679000,(3 3 5 1 -1 0 0 -1)
1969/12/31/18:00:08.701000,(-4 -5 -9 2 0 -7 -7 -8)
1969/12/31/18:00:08.701000,(-2 -3 1 -4 3 8 5 1)
1969/12/31/18:00:08.701000,(3 1 0 2 2 4 2 2)
1969/12/31/18:00:08.702000,(4 8 12 -7 -9 1 3 1)
1969/12/31/18:00:08.723000,(9 2 -17 13 9 6 5 9)
1969/12/31/18:00:08.723000,(-2 -1 6 1 6 1 -2 -3)
1969/12/31/18:00:08.724000,(-9 -5 -2 -13 -15 -12 -10 -6)
1969/12/31/18:00:08.724000,(-10 -7 -2 -7 -8 -7 -8 -7)
1969/12/31/18:00:08.746000,(-4 -3 1 2 2 4 1 -1)
1969/12/31/18:00:08.746000,(9 3 -10 9 13 6 5 6)
1969/12/31/18:00:08.747000,(-8 -8 6 -8 -4 4 -1 -6)
1969/12/31/18:00:08.747000,(3 3 -11 7 3 -3 2 4)
1969/12/31/18:00:08.761000,(-2 -10 -4 -2 5 -4 -5 -2)
1969/12/31/18:00:08.761000,(-13 -2 12 -21 -25 -10 -6 -11)
1969/12/31/18:00:08.762000,(16 15 -12 14 14 10 8 8)
1969/12/31/18:00:08.762000,(-7 -12 8 -12 -7 -4 -4 -6)
1969/12/31/18:00:08.783000,(5 16 7 -2 -8 -7 -1 0)
1969/12/31/18:00:08.783000,(5 -5 -19 -3 2 4 4 3)
1969/12/31/18:00:08.784000,(-9 -13 -2 6 2 -4 -5 -8)
1969/12/31/18:00:08.784000,(-3 1 -9 -15 -17 -1 2 -2)
1969/12/31/18:00:08.798000,(-1 3 4 -17 11 -6 -5 -1)
1969/12/31/18:00:08.798000,(-1 2 12 11 -2 -6 -4 -2)
1969/12/31/18:00:08.799000,(6 6 6 -22 -14 -6 2 5)
1969/12/31/18:00:08.799000,(3 0 5 57 12 7 1 2)
1969/12/31/18:00:08.822000,(-5 -4 6 26 20 11 3 -4)
1969/12/31/18:00:08.822000,(-3 -3 -13 -32 0 -3 -3 -3)
1969/12/31/18:00:08.828000,(-2 -11 -32 -32 -30 -14 -6 -2)
1969/12/31/18:00:08.828000,(-4 -1 13 10 13 -6 -5 -2)
1969/12/31/18:00:08.843000,(3 11 33 22 17 9 2 2)
1969/12/31/18:00:08.843000,(3 7 15 39 -4 5 1 1)
1969/12/31/18:00:08.844000,(3 1 -7 30 29 9 5 3)
1969/12/31/18:00:08.844000,(2 -13 -33 -78 -29 -3 2 2)
1969/12/31/18:00:08.858000,(-4 -5 -2 4 0 -7 -5 -3)
1969/12/31/18:00:08.858000,(-4 0 -4 -17 -28 -9 -4 -2)
1969/12/31/18:00:08.859000,(2 7 15 13 18 8 4 3)
1969/12/31/18:00:08.859000,(2 9 18 50 27 16 4 3)
1969/12/31/18:00:08.881000,(-4 -9 -11 -25 -9 -2 -2 -2)
1969/12/31/18:00:08.881000,(-3 -9 -33 -86 -29 -9 -6 -3)
1969/12/31/18:00:08.881000,(6 4 20 34 -12 4 4 4)
1969/12/31/18:00:08.881000,(3 14 16 27 5 -2 1 -1)
1969/12/31/18:00:08.903000,(9 3 -4 -21 -8 11 6 7)
1969/12/31/18:00:08.903000,(-13 -10 1 43 8 2 -7 -8)
1969/12/31/18:00:08.904000,(-3 -3 -10 -98 -27 -14 -9 -5)
1969/12/31/18:00:08.904000,(2 4 31 96 64 16 2 -1)
1969/12/31/18:00:08.918000,(-5 1 10 24 8 9 3 -2)
1969/12/31/18:00:08.918000,(-1 -6 -23 -19 -31 -7 2 0)
1969/12/31/18:00:08.919000,(1 -5 -14 -34 17 -2 -1 0)
1969/12/31/18:00:08.919000,(-3 -2 1 -5 -25 -8 -2 -2)
1969/12/31/18:00:08.940000,(0 -5 -15 -23 -23 -9 0 -1)
1969/12/31/18:00:08.940000,(7 8 11 0 25 7 3 4)
1969/12/31/18:00:08.941000,(1 1 3 24 -10 -5 2 1)
1969/12/31/18:00:08.941000,(-11 -14 -23 -63 -27 -18 -7 -6)
1969/12/31/18:00:08.963000,(-2 -2 5 40 15 -7 1 -1)
1969/12/31/18:00:08.963000,(-3 2 25 10 9 -3 -2 -3)
1969/12/31/18:00:08.964000,(0 2 9 61 25 6 4 0)
1969/12/31/18:00:08.964000,(-1 -6 -18 -10 4 -2 0 -1)
1969/12/31/18:00:08.986000,(-4 -9 -22 -54 -33 -17 -5 -2)
1969/12/31/18:00:08.986000,(1 -2 0 -17 -6 -2 3 2)
1969/12/31/18:00:08.987000,(3 5 11 42 20 8 2 2)
1969/12/31/18:00:08.987000,(3 1 -6 -10 3 5 -1 1)
1969/12/31/18:00:09.000000,(0 1 -1 -4 -6 2 -2 -2)
1969/12/31/18:00:09.001000,(4 5 -1 -2 -5 -3 -2 1)
1969/12/31/18:00:09.001000,(-2 -1 2 -5 -3 -2 -1 -1)
1969/12/31/18:00:09.001000,(1 -2 -6 -2 1 -3 -2 0)
1969/12/31/18:00:09.023000,(-7 -4 -1 -16 -13 -8 -4 -6)
1969/12/31/18:00:09.023000,(2 3 4 26 17 -1 4 1)
1969/12/31/18:00:09.024000,(-1 -2 0 11 1 -1 -1 -1)
1969/12/31/18:00:09.024000,(2 2 -8 -28 -11 0 -2 2)
1969/12/31/18:00:09.039000,(3 2 -1 1 -4 6 -1 1)
1969/12/31/18:00:09.039000,(5 7 8 20 14 11 1 4)
1969/12/31/18:00:09.046000,(0 2 0 -8 -4 5 0 2)
1969/12/31/18:00:09.046000,(4 3 0 -13 -8 2 3 1)
1969/12/31/18:00:09.061000,(-2 3 3 2 2 6 1 -2)
1969/12/31/18:00:09.061000,(-6 -7 0 10 8 1 2 -1)
1969/12/31/18:00:09.061000,(1 0 -1 -13 -5 -2 0 -5)
1969/12/31/18:00:09.061000,(-2 -1 -2 -2 -1 -2 -3 -3)
1969/12/31/18:00:09.083000,(-1 -3 1 8 1 -2 -2 4)
1969/12/31/18:00:09.083000,(-3 0 1 -2 1 2 -4 -3)
1969/12/31/18:00:09.084000,(0 -3 -6 -8 -6 -1 -3 -1)
1969/12/31/18:00:09.084000,(-1 4 4 7 5 1 -1 -5)
1969/12/31/18:00:09.097000,(-1 1 3 1 0 -2 1 -3)
1969/12/31/18:00:09.097000,(1 -1 -3 -3 -2 0 3 7)
1969/12/31/18:00:09.106000,(6 10 7 4 4 8 10 4)
1969/12/31/18:00:09.106000,(-7 -7 -5 -6 -6 -7 -10 -10)
1969/12/31/18:00:09.121000,(-4 -5 -5 -7 -4 -5 -3 -3)
1969/12/31/18:00:09.121000,(-4 -2 1 4 4 0 -4 -7)
1969/12/31/18:00:09.122000,(1 0 -2 -2 -2 -4 -2 4)
1969/12/31/18:00:09.122000,(-4 -4 -3 -4 0 -2 2 3)
1969/12/31/18:00:09.143000,(6 1 5 4 0 -4 0 1)
1969/12/31/18:00:09.143000,(1 -4 -9 0 -1 -10 -5 -1)
1969/12/31/18:00:09.144000,(-3 -3 -11 -56 -30 -8 -4 -4)
1969/12/31/18:00:09.144000,(3 2 9 26 20 5 5 5)
1969/12/31/18:00:09.157000,(-6 -3 10 36 9 3 -4 -7)
1969/12/31/18:00:09.157000,(5 6 6 18 12 11 5 1)
1969/12/31/18:00:09.166000,(0 2 5 29 14 8 0 1)
1969/12/31/18:00:09.166000,(3 2 -8 -28 -10 3 3 4)
1969/12/31/18:00:09.181000,(1 3 -4 -21 -8 1 -1 -2)
1969/12/31/18:00:09.181000,(-3 0 -5 -18 -9 -6 -5 -4)
1969/12/31/18:00:09.181000,(-1 -6 -13 -58 -21 -6 -1 1)
1969/12/31/18:00:09.181000,(4 3 13 62 7 1 2 4)
1969/12/31/18:00:09.203000,(1 -2 13 47 24 5 3 6)
1969/12/31/18:00:09.203000,(-6 -1 1 -5 -3 -4 -5 -7)
1969/12/31/18:00:09.204000,(-9 -3 -4 -1 1 -3 -8 -10)
1969/12/31/18:00:09.204000,(-2 -4 -16 -46 -23 -6 -4 -3)
1969/12/31/18:00:09.217000,(4 3 -15 -79 -17 -8 1 3)
1969/12/31/18:00:09.217000,(1 1 3 35 3 -1 0 3)
1969/12/31/18:00:09.226000,(1 1 8 15 20 2 -3 2)
1969/12/31/18:00:09.226000,(-2 0 0 38 -13 1 -1 -3)
1969/12/31/18:00:09.241000,(-1 1 19 33 15 1 -3 -2)
1969/12/31/18:00:09.241000,(8 6 17 4 10 8 6 5)
1969/12/31/18:00:09.241000,(-5 -2 -3 -9 -2 2 2 -3)
1969/12/31/18:00:09.241000,(-14 -10 -15 -38 -8 -4 -4 -6)
1969/12/31/18:00:09.263000,(32 6 -13 -29 -11 -4 10 21)
1969/12/31/18:00:09.263000,(-11 -9 -8 26 2 -5 -3 -9)
1969/12/31/18:00:09.264000,(-14 -5 -6 6 0 -5 -6 -13)
1969/12/31/18:00:09.264000,(4 -6 -12 -32 -8 -15 -12 -1)
1969/12/31/18:00:09.278000,(-6 0 0 -33 -10 2 4 2)
1969/12/31/18:00:09.278000,(4 0 10 36 2 -1 -1 3)
1969/12/31/18:00:09.286000,(13 0 -8 -32 -13 -1 2 9)
1969/12/31/18:00:09.286000,(-4 2 -3 1 -5 -3 1 -1)
1969/12/31/18:00:09.309000,(3 7 29 94 28 8 4 1)
1969/12/31/18:00:09.309000,(-3 4 21 13 20 6 -1 -3)
1969/12/31/18:00:09.309000,(-15 -2 4 47 27 10 4 -9)
1969/12/31/18:00:09.309000,(29 6 -9 -39 -9 0 4 11)
1969/12/31/18:00:09.323000,(-19 -14 -22 -35 -39 -19 -13 -14)
1969/12/31/18:00:09.323000,(38 11 -12 -32 -8 5 25 38)
1969/12/31/18:00:09.324000,(-22 -10 -3 -5 -11 -13 -13 -22)
1969/12/31/18:00:09.324000,(-29 -7 4 -8 11 6 13 15)
1969/12/31/18:00:09.337000,(58 25 4 32 7 7 6 6)
1969/12/31/18:00:09.337000,(-22 -19 -30 -57 -25 -23 -26 -19)
1969/12/31/18:00:09.346000,(2 -5 -27 -52 10 0 3 4)
1969/12/31/18:00:09.346000,(8 8 39 101 -7 8 6 8)
1969/12/31/18:00:09.361000,(-24 -6 1 -76 -3 5 1 -4)
1969/12/31/18:00:09.361000,(-2 6 27 69 13 8 3 0)
1969/12/31/18:00:09.362000,(17 11 30 105 26 12 11 12)
1969/12/31/18:00:09.362000,(-5 -3 -2 7 18 -14 -21 -11)
1969/12/31/18:00:09.383000,(-21 -24 -67 -99 -62 -33 -19 -13)
1969/12/31/18:00:09.383000,(17 9 7 -7 -28 0 7 7)
1969/12/31/18:00:09.384000,(-6 2 17 35 29 9 0 1)
1969/12/31/18:00:09.384000,(14 12 8 19 49 29 10 0)
1969/12/31/18:00:09.398000,(-14 -6 15 42 17 4 -6 -10)
1969/12/31/18:00:09.398000,(-7 -7 -30 -60 -19 -9 -3 -1)
1969/12/31/18:00:09.406000,(-10 -1 -4 -9 -38 -9 -5 -17)
1969/12/31/18:00:09.406000,(-24 -4 -12 -68 -14 -8 -6 -12)
1969/12/31/18:00:09.421000,(1 -4 -13 29 15 1 -3 1)
1969/12/31/18:00:09.421000,(-19 -10 -5 -22 -12 -1 -5 -9)
1969/12/31/18:00:09.421000,(8 1 7 7 -6 -4 -4 6)
1969/12/31/18:00:09.421000,(16 1 -14 -21 -1 1 3 5)
1969/12/31/18:00:09.444000,(-16 -5 -8 -42 -13 -2 -3 -5)
1969/12/31/18:00:09.444000,(6 14 57 104 30 14 11 4)
1969/12/31/18:00:09.445000,(17 21 54 70 41 10 4 12)
1969/12/31/18:00:09.445000,(-4 -7 -9 -25 -9 -4 -5 -6)
1969/12/31/18:00:09.466000,(-8 -8 -16 -32 -6 -1 0 -1)
1969/12/31/18:00:09.466000,(3 -7 -39 -62 -8 -3 -3 0)
1969/12/31/18:00:09.467000,(7 -7 -41 -69 -31 -7 1 7)
1969/12/31/18:00:09.467000,(-8 -4 12 18 7 -2 -3 -7)
1969/12/31/18:00:09.481000,(10 15 30 36 12 15 8 0)
1969/12/31/18:00:09.481000,(-10 2 0 -5 -4 -3 0 3)
1969/12/31/18:00:09.482000,(-29 -22 -21 -28 -9 -13 -19 -21)
1969/12/31/18:00:09.482000,(-42 -17 0 6 -9 2 5 -12)
1969/12/31/18:00:09.504000,(53 25 10 33 15 7 11 23)
1969/12/31/18:00:09.504000,(51 32 6 7 13 3 2 20)
1969/12/31/18:00:09.504000,(-26 -16 -6 -15 -14 -7 -9 -13)
1969/12/31/18:00:09.505000,(12 5 -1 0 -3 -6 -4 1)
1969/12/31/18:00:09.534000,(-18 -14 1 6 -1 -5 -6 -7)
1969/12/31/18:00:09.534000,(-25 -11 -12 -27 -6 1 -3 -12)
1969/12/31/18:00:09.535000,(19 7 -1 -1 1 2 3 10)
1969/12/31/18:00:09.535000,(8 2 2 12 7 -4 -5 -2)
1969/12/31/18:00:09.541000,(-13 -2 9 15 4 1 1 -3)
1969/12/31/18:00:09.541000,(4 -5 -9 -17 -1 -5 -4 -5)
1969/12/31/18:00:09.541000,(-29 -12 -4 -4 -15 -25 -44 -35)
1969/12/31/18:00:09.542000,(18 11 5 2 -3 4 19 4)
1969/12/31/18:00:09.566000,(-13 -24 -6 -1 2 8 10 1)
1969/12/31/18:00:09.566000,(62 48 17 11 23 40 72 81)
1969/12/31/18:00:09.567000,(34 9 -5 -1 -10 -12 -12 -3)
1969/12/31/18:00:09.567000,(52 31 6 -4 1 2 -9 13)
1969/12/31/18:00:09.586000,(-24 -13 0 2 4 0 -7 -10)
1969/12/31/18:00:09.586000,(-20 -11 -2 1 2 -11 -24 -23)
1969/12/31/18:00:09.587000,(11 3 2 -2 -2 6 13 13)
1969/12/31/18:00:09.587000,(-6 -1 -3 -6 -7 -6 -5 -2)
1969/12/31/18:00:09.601000,(8 7 2 8 6 2 5 7)
1969/12/31/18:00:09.601000,(-28 -19 -4 0 1 -6 -15 -22)
1969/12/31/18:00:09.601000,(4 7 5 2 3 7 18 17)
1969/12/31/18:00:09.601000,(-8 -10 -5 -7 -5 2 2 -2)
1969/12/31/18:00:09.624000,(-4 2 0 -21 0 -7 -10 -4)
1969/12/31/18:00:09.624000,(-13 -12 -11 9 -14 -11 -13 -18)
1969/12/31/18:00:09.624000,(8 2 0 -2 -2 4 14 16)
1969/12/31/18:00:09.624000,(-8 -17 -1 19 0 -2 -9 -1)
1969/12/31/18:00:09.646000,(-30 -7 17 31 22 17 21 2)
1969/12/31/18:00:09.646000,(62 38 1 -11 8 -1 -6 7)
1969/12/31/18:00:09.647000,(14 3 -5 -17 -8 5 11 15)
1969/12/31/18:00:09.647000,(-24 -17 -11 -14 -13 -10 -14 -19)
1969/12/31/18:00:09.661000,(2 0 -5 -6 -7 -7 -5 2)
1969/12/31/18:00:09.661000,(-21 -23 -11 -13 -9 -12 -12 -12)
1969/12/31/18:00:09.661000,(-29 -8 2 3 3 6 -2 -23)
1969/12/31/18:00:09.661000,(15 8 -2 -7 -1 3 7 13)
1969/12/31/18:00:09.684000,(5 2 -11 -34 -19 -7 -6 -2)
1969/12/31/18:00:09.684000,(-17 -13 0 25 18 0 -5 -13)
1969/12/31/18:00:09.684000,(18 10 12 13 -4 1 -2 9)
1969/12/31/18:00:09.685000,(-14 -4 -9 -43 -8 -1 1 -4)
1969/12/31/18:00:09.706000,(16 10 10 46 5 -6 -4 3)
1969/12/31/18:00:09.706000,(-21 -9 8 16 -4 0 -8 -17)
1969/12/31/18:00:09.707000,(-3 -1 -1 -8 8 5 5 4)
1969/12/31/18:00:09.707000,(5 -2 2 21 2 -1 3 5)
1969/12/31/18:00:09.721000,(4 -4 -2 -14 -1 -5 -10 -5)
1969/12/31/18:00:09.721000,(40 33 4 -6 2 6 10 18)
1969/12/31/18:00:09.721000,(-1 -7 -17 -32 -9 -3 2 2)
1969/12/31/18:00:09.721000,(5 0 -4 -7 -5 -3 -4 0)
1969/12/31/18:00:09.744000,(12 6 5 24 6 3 -1 1)
1969/12/31/18:00:09.744000,(-20 -16 6 9 1 -1 -2 -7)
1969/12/31/18:00:09.745000,(-7 -9 -6 -13 -3 -3 -2 -6)
1969/12/31/18:00:09.745000,(-7 -4 -13 0 -2 -1 -2 -11)
1969/12/31/18:00:09.766000,(-7 -4 -1 3 -3 -2 2 0)
1969/12/31/18:00:09.766000,(-22 -10 -9 -16 1 -4 -5 -10)
1969/12/31/18:00:09.767000,(4 3 -1 10 0 2 1 4)
1969/12/31/18:00:09.767000,(5 4 17 46 3 3 5 10)
1969/12/31/18:00:09.781000,(-1 11 25 28 11 1 0 -3)
1969/12/31/18:00:09.781000,(-14 -14 -9 -26 -6 0 -3 -10)
1969/12/31/18:00:09.782000,(-14 -6 -6 -1 5 1 1 0)
1969/12/31/18:00:09.782000,(1 -1 0 -2 7 2 2 -1)
1969/12/31/18:00:09.804000,(4 6 -10 -19 -12 -2 2 3)
1969/12/31/18:00:09.804000,(12 7 -4 -21 -9 -2 3 11)
1969/12/31/18:00:09.805000,(-21 -13 1 3 2 2 2 -4)
1969/12/31/18:00:09.805000,(-10 -2 -7 -38 -3 2 7 2)
1969/12/31/18:00:09.826000,(16 -1 -26 -14 -7 1 3 8)
1969/12/31/18:00:09.826000,(-12 -11 3 27 5 -2 -3 -5)
1969/12/31/18:00:09.827000,(14 7 0 -15 0 1 4 7)
1969/12/31/18:00:09.827000,(-1 4 21 41 20 -1 -4 -3)
1969/12/31/18:00:09.841000,(3 8 24 41 -24 1 1 2)
1969/12/31/18:00:09.841000,(-10 -9 -13 -19 -4 -7 -6 -5)
1969/12/31/18:00:09.842000,(5 4 17 53 5 -4 -5 -6)
1969/12/31/18:00:09.842000,(-19 -13 -17 -64 7 1 -6 -11)
1969/12/31/18:00:09.871000,(-14 -9 0 22 20 -3 -5 -11)
1969/12/31/18:00:09.871000,(0 13 20 26 -25 14 18 12)
1969/12/31/18:00:09.872000,(18 12 -11 -48 -18 -6 -1 6)
1969/12/31/18:00:09.872000,(1 -7 -38 -4 0 -6 -1 1)
1969/12/31/18:00:09.886000,(-10 -12 -23 -19 -12 -2 -2 -5)
1969/12/31/18:00:09.886000,(3 7 44 94 19 4 1 2)
1969/12/31/18:00:09.887000,(6 12 34 67 24 2 0 -1)
1969/12/31/18:00:09.887000,(-2 1 10 -16 -4 2 -2 -2)
1969/12/31/18:00:09.902000,(0 -3 -26 -67 -7 -1 0 2)
1969/12/31/18:00:09.902000,(-8 -19 -50 -122 -13 -4 -4 -5)
1969/12/31/18:00:09.909000,(0 2 7 46 1 5 3 5)
1969/12/31/18:00:09.909000,(12 16 39 84 2 -1 0 6)
1969/12/31/18:00:09.924000,(-12 -6 9 24 8 -6 -9 -10)
1969/12/31/18:00:09.924000,(-9 -11 -16 -41 -12 -10 -10 -10)
1969/12/31/18:00:09.926000,(2 -3 -33 -86 -18 -3 1 1)
1969/12/31/18:00:09.926000,(2 2 2 45 7 2 2 3)
1969/12/31/18:00:09.946000,(4 7 26 59 9 8 5 4)
1969/12/31/18:00:09.946000,(-3 3 14 23 12 2 -3 -4)
1969/12/31/18:00:09.948000,(-3 -11 -36 -93 -16 -4 -2 1)
1969/12/31/18:00:09.948000,(5 1 2 19 -7 1 3 4)
1969/12/31/18:00:09.960000,(-1 3 9 -55 -2 -4 -5 -2)
1969/12/31/18:00:09.960000,(-4 -1 25 112 30 3 -2 -4)
1969/12/31/18:00:09.969000,(-13 -2 14 2 -1 -6 -7 -14)
1969/12/31/18:00:09.969000,(6 0 -24 -49 -18 -5 3 6)
1969/12/31/18:00:09.984000,(9 3 -12 -7 -12 1 3 6)
1969/12/31/18:00:09.984000,(4 -4 -27 -74 -7 -1 1 3)
1969/12/31/18:00:09.986000,(4 -2 -15 29 13 6 8 8)
1969/12/31/18:00:09.986000,(-10 -4 13 26 17 -1 -8 -12)
1969/12/31/18:00:10.006000,(-7 0 30 22 -18 -4 -5 -6)
1969/12/31/18:00:10.006000,(-2 6 26 70 -2 -8 -5 -5)
1969/12/31/18:00:10.008000,(2 7 5 -3 -1 -7 -5 -3)
1969/12/31/18:00:10.008000,(11 0 -23 -37 7 4 8 12)
1969/12/31/18:00:10.020000,(-6 -8 -24 -21 11 3 3 2)
1969/12/31/18:00:10.020000,(-3 -8 -17 -43 -17 -3 -5 -2)
1969/12/31/18:00:10.029000,(-12 -3 11 25 5 1 -6 -10)
1969/12/31/18:00:10.029000,(5 -3 -22 -106 -26 1 6 9)
1969/12/31/18:00:10.044000,(-2 -1 10 88 15 -1 -4 -2)
1969/12/31/18:00:10.044000,(2 6 13 8 7 2 -1 -1)
1969/12/31/18:00:10.046000,(2 6 22 55 7 -3 -5 -1)
1969/12/31/18:00:10.046000,(2 3 9 5 2 3 2 1)
1969/12/31/18:00:10.066000,(1 -3 -23 -77 -11 1 3 5)
1969/12/31/18:00:10.066000,(-2 -9 -33 -28 -9 -3 -1 -1)
1969/12/31/18:00:10.068000,(4 2 19 43 8 7 9 10)
1969/12/31/18:00:10.068000,(-10 -1 12 11 -3 -3 -8 -11)
1969/12/31/18:00:10.080000,(-9 -5 -14 -14 1 -3 0 -2)
1969/12/31/18:00:10.080000,(1 -3 -30 -59 -16 -5 -3 -2)
1969/12/31/18:00:10.089000,(5 1 10 12 1 6 3 5)
1969/12/31/18:00:10.089000,(-12 5 40 87 19 1 -7 -9)
1969/12/31/18:00:10.104000,(6 6 10 17 12 0 0 2)
1969/12/31/18:00:10.104000,(2 1 -3 -3 -1 -1 0 3)
1969/12/31/18:00:10.105000,(2 -4 -27 -43 -13 1 5 4)
1969/12/31/18:00:10.105000,(-2 -4 -12 -12 -10 -4 0 -2)
1969/12/31/18:00:10.126000,(2 -1 -3 2 8 3 4 2)
1969/12/31/18:00:10.126000,(1 -2 -21 -37 4 4 3 3)
1969/12/31/18:00:10.128000,(2 -1 9 36 -12 -3 1 -1)
1969/12/31/18:00:10.128000,(2 8 22 41 7 -4 -3 -2)
1969/12/31/18:00:10.140000,(-6 3 3 -15 1 -7 -9 -11)
1969/12/31/18:00:10.140000,(1 0 16 40 3 0 1 1)
1969/12/31/18:00:10.149000,(-1 -8 -11 -26 3 -1 -2 1)
1969/12/31/18:00:10.149000,(-6 -3 -8 -13 -6 -1 0 -2)
1969/12/31/18:00:10.163000,(5 2 -5 5 -5 0 -1 1)
1969/12/31/18:00:10.163000,(-10 -4 8 -6 -1 -4 -6 -10)
1969/12/31/18:00:10.170000,(6 4 -1 -7 -1 -1 1 5)
1969/12/31/18:00:10.170000,(-7 -9 -10 -8 2 11 11 5)
1969/12/31/18:00:10.186000,(10 3 -3 1 3 4 3 5)
1969/12/31/18:00:10.186000,(0 2 10 11 3 -1 -3 -3)
1969/12/31/18:00:10.188000,(5 10 8 3 -1 -4 -5 -4)
1969/12/31/18:00:10.188000,(-11 -11 -11 -7 -5 -1 0 -4)
1969/12/31/18:00:10.210000,(9 8 3 -14 -6 -8 -3 4)
1969/12/31/18:00:10.210000,(-22 -6 -2 -21 -1 11 6 -4)
1969/12/31/18:00:10.212000,(6 7 14 51 16 2 -2 0)
1969/12/31/18:00:10.212000,(16 0 6 -5 -4 0 12 26)
1969/12/31/18:00:10.223000,(2 0 -16 -22 -47 -40 -42 -37)
1969/12/31/18:00:10.223000,(-41 -19 -5 -4 -4 -12 -20 -30)
1969/12/31/18:00:10.230000,(12 6 -3 -15 35 25 20 13)
1969/12/31/18:00:10.230000,(-6 -17 -56 -115 -25 -10 -9 -4)
1969/12/31/18:00:10.246000,(-4 -6 31 96 18 22 18 14)
1969/12/31/18:00:10.246000,(24 12 5 17 -2 -5 12 27)
1969/12/31/18:00:10.248000,(-25 -16 11 26 28 -7 -26 -37)
1969/12/31/18:00:10.248000,(-10 4 29 91 22 9 0 -12)
1969/12/31/18:00:10.260000,(11 10 -1 -21 -1 2 5 10)
1969/12/31/18:00:10.260000,(25 18 4 -9 -19 -5 0 5)
1969/12/31/18:00:10.269000,(-1 -5 -28 -46 -30 -10 3 11)
1969/12/31/18:00:10.269000,(23 7 -6 -41 -23 -19 -17 -6)
1969/12/31/18:00:10.283000,(-22 -12 -10 -6 -1 3 3 -5)
1969/12/31/18:00:10.283000,(-3 -3 14 56 17 2 -6 -6)
1969/12/31/18:00:10.290000,(-43 -18 1 -19 -9 -1 -4 -15)
1969/12/31/18:00:10.290000,(77 49 6 9 9 19 25 41)
1969/12/31/18:00:10.306000,(-43 -39 -33 -40 -13 -20 -28 -35)
1969/12/31/18:00:10.306000,(10 -7 -46 -100 -19 -1 6 7)
1969/12/31/18:00:10.308000,(-1 0 15 103 -6 0 1 2)
1969/12/31/18:00:10.308000,(-9 8 50 90 24 7 0 -6)
1969/12/31/18:00:10.320000,(8 15 21 31 20 12 9 7)
1969/12/31/18:00:10.320000,(0 -7 0 -27 -27 -9 -5 -3)
1969/12/31/18:00:10.329000,(-4 -6 -9 -68 -2 -6 -8 -9)
1969/12/31/18:00:10.329000,(-18 -7 -3 52 11 2 -7 -10)
1969/12/31/18:00:10.344000,(63 30 9 2 28 16 28 48)
1969/12/31/18:00:10.344000,(-54 -27 -8 5 5 -6 -20 -30)
1969/12/31/18:00:10.350000,(80 29 -11 -38 -20 2 18 35)
1969/12/31/18:00:10.350000,(-28 -17 -9 -32 -23 -23 -22 -26)
1969/12/31/18:00:10.367000,(24 14 -4 -22 -3 12 26 41)
1969/12/31/18:00:10.367000,(16 2 -5 9 2 3 1 2)
1969/12/31/18:00:10.368000,(0 -4 -4 -30 -2 3 6 4)
1969/12/31/18:00:10.368000,(-12 -13 -30 -41 -8 -5 -6 -6)
1969/12/31/18:00:10.380000,(-7 -1 12 -33 -3 0 0 -6)
1969/12/31/18:00:10.380000,(-10 3 33 88 16 -8 -10 -10)
1969/12/31/18:00:10.389000,(-6 2 18 48 6 5 3 1)
1969/12/31/18:00:10.389000,(-11 -10 8 24 27 0 0 -4)
1969/12/31/18:00:10.403000,(-28 -11 -9 -30 -32 -12 -13 -25)
1969/12/31/18:00:10.403000,(15 14 3 -14 4 6 10 13)
1969/12/31/18:00:10.410000,(-6 -9 -15 -6 -2 -3 -6 -3)
1969/12/31/18:00:10.410000,(0 -1 -16 -37 1 1 3 0)
1969/12/31/18:00:10.427000,(0 2 5 32 17 10 10 2)
1969/12/31/18:00:10.427000,(6 -2 3 -19 -2 -10 -11 -2)
1969/12/31/18:00:10.428000,(-12 -12 -39 -81 -29 -12 -7 -6)
1969/12/31/18:00:10.428000,(0 3 25 65 7 8 8 4)
1969/12/31/18:00:10.449000,(-12 -3 25 45 17 -5 -11 -16)
1969/12/31/18:00:10.449000,(3 2 3 21 3 6 8 13)
1969/12/31/18:00:10.450000,(-83 -55 -21 -34 -10 -14 -23 -42)
1969/12/31/18:00:10.450000,(47 35 -5 -52 -6 13 17 21)
1969/12/31/18:00:10.463000,(-1 -6 -22 -12 -10 -1 0 1)
1969/12/31/18:00:10.463000,(4 6 16 35 19 4 2 -1)
1969/12/31/18:00:10.470000,(-1 2 9 32 -1 -4 -9 -5)
1969/12/31/18:00:10.470000,(-15 -10 10 1 -3 -3 -6 -8)
1969/12/31/18:00:10.494000,(1 2 -4 -24 -6 -5 -6 -3)
1969/12/31/18:00:10.494000,(-3 -10 -24 -27 -1 1 1 -3)
1969/12/31/18:00:10.496000,(31 31 38 58 11 12 17 24)
1969/12/31/18:00:10.496000,(-6 -6 5 5 -7 -10 -8 2)
1969/12/31/18:00:10.509000,(-18 -20 -22 -26 -12 -17 -32 -36)
1969/12/31/18:00:10.509000,(-4 -4 -11 -14 -2 4 3 -4)
1969/12/31/18:00:10.511000,(21 17 1 -10 7 6 12 27)
1969/12/31/18:00:10.511000,(-13 -4 -14 -29 -20 -18 -22 -15)
1969/12/31/18:00:10.523000,(-41 -25 -6 16 3 -1 -12 -25)
1969/12/31/18:00:10.523000,(-18 3 13 15 10 6 8 8)
1969/12/31/18:00:10.532000,(-11 -5 1 7 -3 -10 -20 -26)
1969/12/31/18:00:10.532000,(5 1 -12 -24 -2 10 15 12)
1969/12/31/18:00:10.546000,(8 -5 -12 -14 0 3 7 17)
1969/12/31/18:00:10.546000,(-5 2 7 -5 4 5 4 -2)
1969/12/31/18:00:10.548000,(16 16 3 9 3 8 9 11)
1969/12/31/18:00:10.548000,(-34 -18 19 46 0 -9 -16 -23)
1969/12/31/18:00:10.569000,(11 16 14 -9 8 6 12 9)
1969/12/31/18:00:10.569000,(27 6 -1 11 -3 6 10 16)
1969/12/31/18:00:10.570000,(-8 -7 -12 -22 -1 -5 -5 -8)
1969/12/31/18:00:10.570000,(7 -1 -10 -12 0 1 1 1)
1969/12/31/18:00:10.583000,(-6 -5 1 16 -4 3 4 3)
1969/12/31/18:00:10.583000,(38 25 4 -22 1 6 15 30)
1969/12/31/18:00:10.592000,(-27 -27 -14 -10 -6 -13 -19 -23)
1969/12/31/18:00:10.592000,(-13 -8 0 -2 3 8 6 -3)
1969/12/31/18:00:10.607000,(41 35 4 -6 -5 -1 8 23)
1969/12/31/18:00:10.607000,(-12 -11 -10 -32 -6 4 8 5)
1969/12/31/18:00:10.608000,(-6 -1 1 -3 8 1 -3 -10)
1969/12/31/18:00:10.608000,(-13 -5 26 82 6 -2 -7 -11)
1969/12/31/18:00:10.629000,(3 3 13 14 14 3 2 1)
1969/12/31/18:00:10.629000,(7 -4 -21 -11 -10 -1 -2 -2)
1969/12/31/18:00:10.630000,(-3 -3 5 -13 -19 -15 -11 -7)
1969/12/31/18:00:10.630000,(20 22 10 9 24 11 15 18)
1969/12/31/18:00:10.643000,(-3 -4 -7 -2 2 1 -2 -2)
1969/12/31/18:00:10.643000,(21 3 -6 -4 -1 0 0 8)
1969/12/31/18:00:10.652000,(-63 -36 -17 -17 -7 3 5 -5)
1969/12/31/18:00:10.652000,(57 21 -12 -29 -15 -7 -3 8)
1969/12/31/18:00:10.666000,(-4 -15 -8 -2 -12 -13 -14 -8)
1969/12/31/18:00:10.666000,(5 21 24 23 13 2 -5 -24)
1969/12/31/18:00:10.668000,(-2 6 10 17 6 0 0 0)
1969/12/31/18:00:10.668000,(-4 -7 -24 -44 -8 5 8 10)
1969/12/31/18:00:10.689000,(10 -4 -10 -27 2 3 1 3)
1969/12/31/18:00:10.689000,(-19 -2 33 66 1 -8 -12 -16)
1969/12/31/18:00:10.690000,(31 16 13 36 10 0 4 9)
1969/12/31/18:00:10.690000,(-3 -4 -9 -36 -5 2 3 5)
1969/12/31/18:00:10.704000,(-9 -6 -14 -17 5 8 11 6)
1969/12/31/18:00:10.704000,(-22 -20 -10 -4 -4 -2 -5 -8)
1969/12/31/18:00:10.710000,(12 15 13 -9 -10 -3 -1 3)
1969/12/31/18:00:10.710000,(-10 -8 -8 2 -4 -9 -8 -6)
1969/12/31/18:00:10.726000,(-11 -3 13 29 4 2 1 -2)
1969/12/31/18:00:10.726000,(3 1 6 9 14 0 2 4)
1969/12/31/18:00:10.728000,(37 7 -7 0 4 1 -1 9)
1969/12/31/18:00:10.728000,(-18 -3 -5 -29 -17 -10 -10 -16)
1969/12/31/18:00:10.749000,(2 10 3 -10 0 12 11 0)
1969/12/31/18:00:10.749000,(4 1 -7 5 -5 -5 -5 -1)
1969/12/31/18:00:10.750000,(0 -6 -43 -99 -26 -5 -4 -5)
1969/12/31/18:00:10.750000,(-10 -17 -10 19 14 -1 -2 -2)
1969/12/31/18:00:10.762000,(7 18 61 114 15 5 4 2)
1969/12/31/18:00:10.762000,(-9 1 8 6 -21 -19 -16 -11)
1969/12/31/18:00:10.771000,(-8 -7 1 -8 5 3 5 1)
1969/12/31/18:00:10.771000,(-8 2 5 5 20 5 -3 -5)
1969/12/31/18:00:10.786000,(14 5 -19 -26 12 8 9 15)
1969/12/31/18:00:10.786000,(16 8 -4 2 14 20 18 15)
1969/12/31/18:00:10.788000,(12 8 3 -7 -12 2 11 20)
1969/12/31/18:00:10.788000,(-15 -17 -12 -32 -26 -10 -5 -8)
1969/12/31/18:00:10.809000,(-32 -21 -7 -15 -7 -10 -15 -24)
1969/12/31/18:00:10.809000,(-11 -6 -3 -7 -7 -8 -12 -13)
1969/12/31/18:00:10.811000,(10 9 6 22 13 12 14 11)
1969/12/31/18:00:10.811000,(-18 -6 3 2 -3 -5 -8 -12)
1969/12/31/18:00:10.823000,(15 -2 -4 1 -5 -2 2 7)
1969/12/31/18:00:10.823000,(1 -11 -13 -24 -6 -2 2 13)
1969/12/31/18:00:10.830000,(12 17 3 12 0 -8 -10 -9)
1969/12/31/18:00:10.830000,(3 1 9 18 6 3 2 0)
1969/12/31/18:00:10.846000,(4 -2 -42 -113 -33 -10 -3 5)
1969/12/31/18:00:10.847000,(0 -3 13 45 -4 -5 -4 -9)
1969/12/31/18:00:10.848000,(1 5 35 83 29 12 10 9)
1969/12/31/18:00:10.848000,(-22 -8 16 32 14 2 -3 -9)
1969/12/31/18:00:10.869000,(52 23 -6 -14 22 30 31 41)
1969/12/31/18:00:10.869000,(-48 -28 -31 -56 -25 -41 -50 -56)
1969/12/31/18:00:10.871000,(-5 -4 -6 -14 -10 -1 -3 -4)
1969/12/31/18:00:10.871000,(12 6 -1 -9 -15 0 8 10)
1969/12/31/18:00:10.882000,(-18 -16 -7 -4 -13 -12 -11 -11)
1969/12/31/18:00:10.882000,(1 7 5 -2 10 16 19 13)
1969/12/31/18:00:10.891000,(3 -1 2 12 -1 -10 -10 -6)
1969/12/31/18:00:10.891000,(-6 -2 -7 -19 -8 -6 -10 -12)
1969/12/31/18:00:10.906000,(-30 -19 6 22 2 -5 -9 -16)
1969/12/31/18:00:10.906000,(47 26 6 12 13 10 11 19)
1969/12/31/18:00:10.908000,(7 7 4 2 7 5 5 9)
1969/12/31/18:00:10.908000,(-1 -4 -17 -69 -62 -18 2 2)
1969/12/31/18:00:10.929000,(-4 -3 -1 32 6 -8 -2 -2)
1969/12/31/18:00:10.929000,(7 4 3 -19 33 24 17 16)
1969/12/31/18:00:10.930000,(4 4 -8 16 60 33 12 4)
1969/12/31/18:00:10.930000,(9 5 34 79 44 18 1 2)
1969/12/31/18:00:10.942000,(25 27 25 32 -15 -9 -2 6)
1969/12/31/18:00:10.942000,(-34 -23 -15 -26 -46 -31 -25 -29)
1969/12/31/18:00:10.951000,(-3 -7 -17 -38 -26 -12 -3 -5)
1969/12/31/18:00:10.951000,(0 -6 -21 -38 -11 -6 -4 -1)
1969/12/31/18:00:10.966000,(-7 -1 -5 -7 -9 -13 -12 -9)
1969/12/31/18:00:10.966000,(11 0 1 11 12 10 14 17)
1969/12/31/18:00:10.968000,(-6 -4 -1 -6 -8 -2 -1 -6)
1969/12/31/18:00:10.968000,(8 4 -4 2 3 4 6 9)
1969/12/31/18:00:10.989000,(-32 -17 3 8 1 -9 -20 -32)
1969/12/31/18:00:10.989000,(34 24 12 10 14 20 30 39)
1969/12/31/18:00:10.990000,(-14 -9 2 11 -6 -6 -6 -11)
1969/12/31/18:00:10.990000,(4 5 2 5 3 2 1 0)
1969/12/31/18:00:11.002000,(-8 -7 -7 -13 1 -2 -5 -9)
1969/12/31/18:00:11.003000,(1 -4 -7 -8 -7 -4 -3 -3)
1969/12/31/18:00:11.012000,(9 9 8 14 0 3 7 11)
1969/12/31/18:00:11.012000,(-11 -3 2 4 6 -1 -4 -7)
1969/12/31/18:00:11.025000,(-1 -4 -6 -24 -25 -5 3 3)
1969/12/31/18:00:11.025000,(-14 -11 -19 -27 -19 -23 -18 -15)
1969/12/31/18:00:11.034000,(-1 0 16 44 20 10 5 2)
1969/12/31/18:00:11.034000,(4 6 17 43 54 21 2 -4)
1969/12/31/18:00:11.049000,(3 4 0 10 35 18 6 4)
1969/12/31/18:00:11.049000,(-9 -8 8 24 -10 8 6 0)
1969/12/31/18:00:11.051000,(0 3 14 -10 -43 -23 -10 -5)
1969/12/31/18:00:11.051000,(-2 2 -1 -49 11 -3 -4 -2)
1969/12/31/18:00:11.063000,(9 10 14 41 5 10 10 9)
1969/12/31/18:00:11.063000,(1 -13 -57 -10 -5 -13 -6 0)
1969/12/31/18:00:11.072000,(-26 -41 -47 -43 -37 -26 -17 -19)
1969/12/31/18:00:11.072000,(-7 0 -8 -12 -14 -9 -6 -6)
1969/12/31/18:00:11.086000,(-1 2 13 -20 0 1 0 1)
1969/12/31/18:00:11.086000,(5 13 28 7 13 17 9 7)
1969/12/31/18:00:11.088000,(13 13 4 -42 -28 0 5 9)
1969/12/31/18:00:11.088000,(9 4 -5 23 4 3 11 13)
1969/12/31/18:00:11.109000,(3 3 0 16 12 -2 1 1)
1969/12/31/18:00:11.109000,(-1 5 11 -23 -6 3 4 0)
1969/12/31/18:00:11.110000,(-2 3 26 48 25 13 1 0)
1969/12/31/18:00:11.110000,(5 5 12 21 29 10 2 3)
1969/12/31/18:00:11.123000,(3 -3 -21 4 27 11 4 1)
1969/12/31/18:00:11.123000,(-10 -11 0 33 28 -2 -10 -11)
1969/12/31/18:00:11.131000,(-9 -11 -32 -16 -26 -17 -8 -8)
1969/12/31/18:00:11.132000,(-9 -15 -12 -25 -55 -16 -3 -3)
1969/12/31/18:00:11.146000,(-12 -3 6 -12 -25 -24 -14 -9)
1969/12/31/18:00:11.146000,(-4 2 3 -46 -16 4 4 3)
1969/12/31/18:00:11.152000,(15 16 2 -29 11 10 11 10)
1969/12/31/18:00:11.152000,(12 3 1 4 -15 -11 -1 8)
1969/12/31/18:00:11.169000,(-1 5 37 55 2 4 -2 -3)
1969/12/31/18:00:11.169000,(5 7 20 36 22 7 5 2)
1969/12/31/18:00:11.170000,(-9 -15 -27 -15 25 -1 -5 -7)
1969/12/31/18:00:11.170000,(6 2 -27 -17 -25 -2 7 6)
1969/12/31/18:00:11.182000,(-2 -10 -41 -71 -3 -3 -1 -2)
1969/12/31/18:00:11.182000,(-3 -9 9 42 27 -12 -8 -5)
1969/12/31/18:00:11.192000,(-14 2 45 67 -10 2 -1 -10)
1969/12/31/18:00:11.192000,(2 7 18 -8 -32 -5 1 0)
1969/12/31/18:00:11.206000,(4 1 -15 -14 17 9 4 4)
1969/12/31/18:00:11.206000,(8 0 -27 -32 20 7 8 10)
1969/12/31/18:00:11.212000,(-3 -11 -3 23 6 -9 -9 -5)
1969/12/31/18:00:11.212000,(-3 1 -11 -57 -7 4 -2 -2)
1969/12/31/18:00:11.229000,(1 -5 -17 12 -28 -7 -4 0)
1969/12/31/18:00:11.229000,(-3 7 30 24 -17 -2 -2 -3)
1969/12/31/18:00:11.230000,(5 3 -22 -59 15 8 3 2)
1969/12/31/18:00:11.230000,(5 2 3 78 21 5 5 8)
1969/12/31/18:00:11.251000,(-7 3 45 74 -5 -3 -4 -6)
1969/12/31/18:00:11.251000,(-3 3 19 1 11 9 2 -4)
1969/12/31/18:00:11.253000,(8 12 11 5 6 5 7 5)
1969/12/31/18:00:11.253000,(-5 -12 -31 -44 2 -5 -6 -7)
1969/12/31/18:00:11.266000,(-3 -14 -45 -62 -12 -16 -5 -3)
1969/12/31/18:00:11.266000,(-11 -7 -1 9 -20 -16 -11 -9)
1969/12/31/18:00:11.273000,(3 21 31 -10 -7 9 4 1)
1969/12/31/18:00:11.273000,(8 -1 -2 14 29 12 6 6)
1969/12/31/18:00:11.289000,(2 -2 21 15 4 -3 -2 2)
1969/12/31/18:00:11.289000,(-4 5 7 -7 -18 -2 -5 -5)
1969/12/31/18:00:11.290000,(11 -1 -34 -16 10 3 7 8)
1969/12/31/18:00:11.290000,(-3 -5 -2 15 -6 -6 -3 -4)
1969/12/31/18:00:11.302000,(-5 -1 -6 -81 -18 2 1 -3)
1969/12/31/18:00:11.303000,(2 1 4 76 13 6 2 1)
1969/12/31/18:00:11.311000,(-7 -9 -11 -30 2 -16 -9 -5)
1969/12/31/18:00:11.311000,(-5 -3 5 49 -6 -10 -4 -5)
1969/12/31/18:00:11.326000,(-3 -4 11 -6 8 -4 0 -2)
1969/12/31/18:00:11.326000,(-7 -4 -14 -2 -24 -9 -6 -7)
1969/12/31/18:00:11.333000,(2 -3 1 37 37 7 5 3)
1969/12/31/18:00:11.333000,(2 5 19 -21 11 11 3 1)
1969/12/31/18:00:11.349000,(5 6 -6 2 2 6 2 2)
1969/12/31/18:00:11.349000,(4 -6 -16 -40 -19 -1 0 3)
1969/12/31/18:00:11.350000,(2 0 10 25 -15 2 -2 3)
1969/12/31/18:00:11.350000,(-6 2 2 -38 -6 4 -5 -4)
1969/12/31/18:00:11.371000,(12 11 0 -12 -21 16 8 10)
1969/12/31/18:00:11.371000,(2 -7 -14 10 23 10 1 1)
1969/12/31/18:00:11.373000,(-2 5 9 1 -4 6 -1 -3)
1969/12/31/18:00:11.373000,(3 10 -2 -28 -9 -2 0 0)
1969/12/31/18:00:11.386000,(-3 -4 3 10 -5 -12 -6 -4)
1969/12/31/18:00:11.386000,(-19 -14 -10 -11 -3 -4 -6 -13)
1969/12/31/18:00:11.393000,(2 -6 -2 20 18 2 8 5)
1969/12/31/18:00:11.393000,(-3 -6 -11 -38 -7 -9 -2 -2)
1969/12/31/18:00:11.409000,(-8 0 20 59 3 -11 -7 -7)
1969/12/31/18:00:11.409000,(7 6 6 2 2 -1 6 6)
1969/12/31/18:00:11.410000,(-9 -5 3 10 8 -6 -5 -8)
1969/12/31/18:00:11.410000,(5 0 5 18 -1 -2 2 3)
1969/12/31/18:00:11.431000,(4 -2 -19 -46 -11 -5 2 0)
1969/12/31/18:00:11.431000,(-1 -2 -15 -41 -20 -5 0 -4)
1969/12/31/18:00:11.433000,(0 -1 1 34 11 3 3 0)
1969/12/31/18:00:11.433000,(-5 5 22 19 5 4 0 -3)
1969/12/31/18:00:11.445000,(4 -5 -14 2 13 10 1 6)
1969/12/31/18:00:11.445000,(-6 -1 12 4 6 -1 -2 0)
1969/12/31/18:00:11.454000,(11 -1 -18 -25 -20 2 1 10)
1969/12/31/18:00:11.454000,(-10 -11 -7 3 0 -4 -6 -6)
1969/12/31/18:00:11.469000,(-9 2 5 1 5 -1 -1 -4)
1969/12/31/18:00:11.469000,(7 0 -3 2 1 0 0 3)
1969/12/31/18:00:11.471000,(0 -3 1 -18 -13 -4 -2 -1)
1969/12/31/18:00:11.471000,(9 4 -1 14 16 10 7 6)
1969/12/31/18:00:11.491000,(-4 -3 6 8 0 -1 0 -3)
1969/12/31/18:00:11.491000,(5 1 2 -14 -4 -1 2 2)
1969/12/31/18:00:11.493000,(-4 0 0 -4 -8 -5 -1 -4)
1969/12/31/18:00:11.493000,(-3 -6 -7 -12 -15 -6 -2 -2)
1969/12/31/18:00:11.505000,(-6 -2 3 13 15 2 -4 -5)
1969/12/31/18:00:11.505000,(2 6 9 23 13 3 3 3)
1969/12/31/18:00:11.514000,(-5 -3 0 5 4 -4 -3 -4)
1969/12/31/18:00:11.514000,(-2 -1 4 6 -3 -2 -2 -3)
1969/12/31/18:00:11.529000,(-1 -3 -9 -11 -4 -6 -3 -2)
1969/12/31/18:00:11.529000,(3 2 -6 -16 -7 -4 1 2)
1969/12/31/18:00:11.531000,(-1 -1 -5 -19 -14 -1 -2 -1)
1969/12/31/18:00:11.531000,(0 2 9 12 6 5 0 1)
1969/12/31/18:00:11.551000,(1 0 2 9 12 5 -1 -1)
1969/12/31/18:00:11.551000,(-9 -6 3 8 7 1 -4 -7)
1969/12/31/18:00:11.553000,(10 10 4 5 5 10 11 11)
1969/12/31/18:00:11.553000,(1 -4 -8 -8 -4 -7 -2 -1)
1969/12/31/18:00:11.565000,(-3 -3 -5 -6 -8 -4 -1 -3)
1969/12/31/18:00:11.565000,(-4 -2 -4 -27 -12 -5 -3 -4)
1969/12/31/18:00:11.574000,(-5 -1 3 9 -4 -6 -4 -5)
1969/12/31/18:00:11.574000,(1 1 4 19 7 1 -1 0)
1969/12/31/18:00:11.589000,(1 -1 4 10 6 2 1 2)
1969/12/31/18:00:11.589000,(-1 -1 -4 -10 -6 -4 -3 -1)
1969/12/31/18:00:11.590000,(0 -1 -9 -18 -8 -2 -1 1)
1969/12/31/18:00:11.591000,(4 4 -3 -7 -13 1 2 3)
1969/12/31/18:00:11.611000,(-1 -2 -3 -5 11 -2 -3 -1)
1969/12/31/18:00:11.611000,(-4 0 3 6 -2 -1 -5 -3)
1969/12/31/18:00:11.613000,(-7 -2 2 -9 -3 -4 -13 -8)
1969/12/31/18:00:11.613000,(-2 1 3 7 3 4 -1 -3)
1969/12/31/18:00:11.625000,(2 0 -4 4 5 7 16 11)
1969/12/31/18:00:11.625000,(9 7 4 8 2 4 8 9)
1969/12/31/18:00:11.634000,(-2 -3 4 7 3 -1 6 -1)
1969/12/31/18:00:11.634000,(-6 -7 -7 -15 -5 -7 -7 -6)
1969/12/31/18:00:11.649000,(2 2 -4 -6 -10 -15 -25 -12)
1969/12/31/18:00:11.649000,(-7 -6 -2 2 5 -3 1 -9)
1969/12/31/18:00:11.650000,(2 0 0 3 0 10 24 18)
1969/12/31/18:00:11.651000,(1 -1 0 1 4 0 1 1)
1969/12/31/18:00:11.671000,(1 -3 1 0 -5 -2 -3 -1)
1969/12/31/18:00:11.671000,(2 2 -3 -3 -8 -2 -5 -1)
1969/12/31/18:00:11.673000,(-6 -5 -6 -9 -7 -11 -18 -12)
1969/12/31/18:00:11.673000,(-13 -5 3 4 1 -2 -2 -9)
1969/12/31/18:00:11.685000,(6 6 2 10 1 5 6 6)
1969/12/31/18:00:11.685000,(0 3 0 8 19 6 0 1)
1969/12/31/18:00:11.694000,(2 -4 -3 -5 -3 1 -4 -5)
1969/12/31/18:00:11.694000,(-3 -6 -8 -9 -14 -9 6 3)
1969/12/31/18:00:11.709000,(-1 -2 -1 -18 -27 -10 11 11)
1969/12/31/18:00:11.709000,(-3 -2 3 -2 -3 4 -6 -2)
1969/12/31/18:00:11.710000,(6 8 12 37 54 23 3 1)
1969/12/31/18:00:11.710000,(1 3 5 20 23 3 -4 -4)
1969/12/31/18:00:11.732000,(-4 -3 -4 -4 -10 3 8 1)
1969/12/31/18:00:11.732000,(1 -3 -8 -18 -28 -11 2 2)
1969/12/31/18:00:11.733000,(-3 -2 0 -8 -16 -9 -2 1)
1969/12/31/18:00:11.733000,(0 1 1 0 3 -1 -11 -6)
1969/12/31/18:00:11.745000,(3 0 -4 0 -2 -7 -4 -2)
1969/12/31/18:00:11.745000,(-6 -6 -6 -11 -4 -2 -5 -5)
1969/12/31/18:00:11.754000,(-3 1 -1 -3 -4 -1 -1 -2)
1969/12/31/18:00:11.754000,(8 1 0 -1 2 9 14 11)
1969/12/31/18:00:11.769000,(-5 0 1 1 0 -8 -26 -17)
1969/12/31/18:00:11.769000,(-7 -5 3 5 6 -2 6 -5)
1969/12/31/18:00:11.770000,(12 7 1 0 3 13 19 24)
1969/12/31/18:00:11.770000,(8 3 1 -1 -4 -3 -4 1)
1969/12/31/18:00:11.799000,(-13 -6 -1 4 8 12 6 -2)
1969/12/31/18:00:11.799000,(1 0 0 2 1 -5 -17 -12)
1969/12/31/18:00:11.800000,(-8 -7 -2 -3 -11 -11 -4 -8)
1969/12/31/18:00:11.800000,(1 1 -1 3 1 2 5 6)
1969/12/31/18:00:11.814000,(7 4 1 2 2 -2 -5 1)
1969/12/31/18:00:11.814000,(-1 0 -1 -2 1 1 2 1)
1969/12/31/18:00:11.816000,(2 0 0 -2 -5 0 5 4)
1969/12/31/18:00:11.816000,(2 2 0 -1 1 2 -2 3)
1969/12/31/18:00:11.831000,(0 0 1 3 3 1 1 -4)
1969/12/31/18:00:11.831000,(1 0 -1 -2 -2 1 3 3)
1969/12/31/18:00:11.835000,(-2 -1 0 -3 -2 -4 -6 -4)
1969/12/31/18:00:11.835000,(-3 -3 -2 1 3 0 -3 -7)
1969/12/31/18:00:11.851000,(-2 -1 -1 -1 2 5 15 11)
1969/12/31/18:00:11.851000,(5 4 2 0 2 2 3 4)
1969/12/31/18:00:11.853000,(-6 -3 -3 -2 -4 -8 -12 -12)
1969/12/31/18:00:11.853000,(-3 -1 -1 -1 0 0 -1 -2)
1969/12/31/18:00:11.865000,(1 -1 1 2 -1 2 8 3)
1969/12/31/18:00:11.865000,(3 1 -1 1 3 0 0 2)
1969/12/31/18:00:11.874000,(-3 0 -3 -3 -3 -4 -1 -4)
1969/12/31/18:00:11.874000,(-2 -2 -1 -3 -1 -1 8 3)
1969/12/31/18:00:11.889000,(-1 -2 2 0 1 -1 -1 -1)
1969/12/31/18:00:11.889000,(1 -2 -1 -2 0 0 3 4)
1969/12/31/18:00:11.890000,(-2 0 0 3 0 1 -5 -6)
1969/12/31/18:00:11.890000,(1 4 1 0 -1 -3 -2 0)
1969/12/31/18:00:11.911000,(1 -1 -3 -1 -1 0 1 1)
1969/12/31/18:00:11.911000,(-2 -3 -1 -3 -5 -7 -1 2)
1969/12/31/18:00:11.913000,(-1 -1 -2 -1 -1 -3 -10 -6)
1969/12/31/18:00:11.913000,(-1 1 0 0 -1 -1 -1 -1)
1969/12/31/18:00:11.925000,(1 1 2 1 1 4 5 4)
1969/12/31/18:00:11.925000,(4 2 0 1 1 4 4 4)
1969/12/31/18:00:11.934000,(0 1 0 -1 -1 -3 -3 -2)
1969/12/31/18:00:11.934000,(-2 -1 1 0 0 0 -4 -5)
1969/12/31/18:00:11.949000,(-2 1 0 -1 0 0 -2 -2)
1969/12/31/18:00:11.949000,(1 -1 -1 -1 1 3 4 3)
1969/12/31/18:00:11.950000,(3 0 -1 0 0 2 6 5)
1969/12/31/18:00:11.950000,(-1 -1 -1 -4 -3 -2 -6 -2)
1969/12/31/18:00:11.971000,(-5 -3 -3 -2 -1 -4 -8 -8)
1969/12/31/18:00:11.971000,(5 2 1 0 1 3 12 14)
1969/12/31/18:00:11.977000,(-1 -3 -1 -3 -1 -1 4 -1)
1969/12/31/18:00:11.977000,(0 -3 -1 0 1 0 -1 4)
1969/12/31/18:00:11.985000,(-1 -1 -2 -1 -1 -4 -7 -4)
1969/12/31/18:00:11.985000,(-5 -2 -3 -1 -1 -4 -11 -11)
1969/12/31/18:00:11.994000,(-2 -3 0 1 -1 -3 -5 -5)
1969/12/31/18:00:11.994000,(1 -1 1 1 0 1 4 6)
1969/12/31/18:00:12.009000,(0 0 0 0 0 1 1 0)
1969/12/31/18:00:12.009000,(0 1 -1 0 1 1 -1 -1)
1969/12/31/18:00:12.011000,(-2 -2 -2 -1 -2 -2 -4 -1)
1969/12/31/18:00:12.011000,(-2 -2 -2 -1 -1 -4 -5 -6)
1969/12/31/18:00:12.031000,(0 0 1 1 -1 1 -1 1)
1969/12/31/18:00:12.031000,(-3 -2 0 0 -3 -3 -3 0)
1969/12/31/18:00:12.033000,(0 1 1 -1 0 1 -1 0)
1969/12/31/18:00:12.033000,(0 -1 -2 -3 -2 1 5 4)
1969/12/31/18:00:12.045000,(0 1 3 3 2 2 0 2)
1969/12/31/18:00:12.045000,(1 -2 -3 -1 -2 -4 -6 -3)
1969/12/31/18:00:12.054000,(0 1 -1 -1 -2 -1 1 3)
1969/12/31/18:00:12.054000,(3 1 0 3 3 5 6 8)
1969/12/31/18:00:12.054000,(-6 -2 -20 -33 -18 -7 -3 -5)
1969/12/31/18:00:12.054000,(2 -4 -12 -90 -28 -7 1 2)
1969/12/31/18:00:12.062000,(-2 6 17 16 -14 4 5 2)
1969/12/31/18:00:12.062000,(12 12 0 36 14 -2 2 4)
1969/12/31/18:00:12.077000,(2 -4 -5 9 12 7 1 0)
1969/12/31/18:00:12.077000,(1 0 20 61 5 -1 1 1)
1969/12/31/18:00:12.078000,(-5 8 18 -29 10 0 0 -6)
1969/12/31/18:00:12.078000,(9 -7 -53 -53 -70 -25 -11 3)
1969/12/31/18:00:12.100000,(-6 -6 -2 -18 4 -5 -3 -4)
1969/12/31/18:00:12.100000,(-4 6 25 57 46 25 11 2)
1969/12/31/18:00:12.101000,(16 20 10 67 43 10 1 6)
1969/12/31/18:00:12.101000,(2 -10 7 -21 7 2 1 -1)
1969/12/31/18:00:12.114000,(7 2 -21 -26 -37 -1 4 8)
1969/12/31/18:00:12.114000,(-14 -26 -46 -78 -35 -18 -11 -7)
1969/12/31/18:00:12.122000,(-19 -13 5 -38 -31 -10 -8 -14)
1969/12/31/18:00:12.122000,(4 11 4 -11 14 4 1 5)
1969/12/31/18:00:12.137000,(-7 -4 -5 -33 -51 -8 0 -5)
1969/12/31/18:00:12.137000,(7 4 -4 13 29 2 -1 6)
1969/12/31/18:00:12.138000,(6 9 29 95 46 20 9 4)
1969/12/31/18:00:12.138000,(-2 -9 -13 -56 -27 -5 -1 0)
1969/12/31/18:00:12.160000,(-13 0 28 39 5 -6 -7 -11)
1969/12/31/18:00:12.160000,(13 14 20 70 99 25 11 9)
1969/12/31/18:00:12.160000,(-10 -19 -35 -46 -54 -20 -8 -9)
1969/12/31/18:00:12.160000,(6 8 5 -8 10 3 2 6)
1969/12/31/18:00:12.183000,(0 -4 8 26 3 7 5 2)
1969/12/31/18:00:12.183000,(-5 -2 -3 -27 -38 -13 -6 -5)
1969/12/31/18:00:12.184000,(-4 -8 -11 -22 -13 -10 -2 -1)
1969/12/31/18:00:12.184000,(-5 0 -3 -22 -17 -11 -7 -3)
1969/12/31/18:00:12.197000,(-5 -10 -35 -110 -6 -8 -8 -1)
1969/12/31/18:00:12.197000,(7 10 25 63 27 7 4 6)
1969/12/31/18:00:12.198000,(5 11 40 88 65 22 8 5)
1969/12/31/18:00:12.198000,(0 -3 -6 -27 -13 -4 -1 -3)
1969/12/31/18:00:12.220000,(-1 0 9 11 -20 0 -1 -2)
1969/12/31/18:00:12.220000,(-2 -8 -25 -27 -1 -1 -4 -3)
1969/12/31/18:00:12.221000,(-1 0 -13 -90 -87 -13 -4 1)
1969/12/31/18:00:12.221000,(4 10 27 83 82 22 5 3)
1969/12/31/18:00:12.243000,(-1 -2 6 52 39 16 3 0)
1969/12/31/18:00:12.243000,(0 -5 -11 -53 -19 -2 0 0)
1969/12/31/18:00:12.244000,(-2 -4 -8 -8 -7 -7 0 -3)
1969/12/31/18:00:12.244000,(-4 -6 -13 -49 -27 -18 -3 -4)
1969/12/31/18:00:12.257000,(3 2 3 3 -2 -3 5 1)
1969/12/31/18:00:12.257000,(6 3 4 47 1 -2 1 4)
1969/12/31/18:00:12.258000,(2 -1 -11 -42 -14 -1 0 2)
1969/12/31/18:00:12.258000,(1 1 6 23 12 11 2 -2)
1969/12/31/18:00:12.280000,(-1 5 12 21 14 8 -2 -2)
1969/12/31/18:00:12.280000,(-8 -8 -9 -15 -19 -8 -2 -6)
1969/12/31/18:00:12.280000,(-3 -6 -6 -20 1 -9 0 -4)
1969/12/31/18:00:12.280000,(3 6 13 28 17 1 3 -1)
1969/12/31/18:00:12.294000,(-4 -6 -3 24 4 -5 -2 -3)
1969/12/31/18:00:12.294000,(0 -2 -8 -28 -20 -4 -1 1)
1969/12/31/18:00:12.302000,(-3 0 -3 -13 4 -1 -1 -1)
1969/12/31/18:00:12.302000,(1 -2 6 18 1 -1 3 5)
1969/12/31/18:00:12.317000,(1 -3 -4 5 -1 -7 -2 -2)
1969/12/31/18:00:12.317000,(-6 -3 -6 -8 -6 -5 -3 -3)
1969/12/31/18:00:12.318000,(4 3 1 -19 4 3 4 7)
1969/12/31/18:00:12.318000,(-5 -5 -4 34 7 -2 -3 -1)
1969/12/31/18:00:12.340000,(-5 -1 4 8 5 -2 0 -1)
1969/12/31/18:00:12.340000,(1 -2 -4 -8 -7 -5 0 2)
1969/12/31/18:00:12.340000,(7 6 -4 -4 -2 1 1 5)
1969/12/31/18:00:12.340000,(0 7 -5 -23 -8 7 0 -6)
1969/12/31/18:00:12.363000,(5 4 9 30 5 9 -3 1)
1969/12/31/18:00:12.363000,(-5 -1 -3 -12 -7 6 -11 -8)
1969/12/31/18:00:12.364000,(-2 1 0 -4 -7 10 -1 1)
1969/12/31/18:00:12.364000,(12 7 5 -2 -1 5 3 8)
1969/12/31/18:00:12.377000,(-1 1 -7 -41 -11 0 2 -2)
1969/12/31/18:00:12.377000,(6 4 5 12 0 3 1 4)
1969/12/31/18:00:12.378000,(-17 -6 6 23 -4 -1 -3 -7)
1969/12/31/18:00:12.378000,(0 -4 -3 -17 11 -6 -12 -11)
1969/12/31/18:00:12.400000,(-21 -3 11 26 -3 -6 -3 -3)
1969/12/31/18:00:12.400000,(27 4 0 16 12 4 5 3)
1969/12/31/18:00:12.401000,(-20 -2 2 -5 6 -5 -11 -21)
1969/12/31/18:00:12.401000,(23 1 2 6 -5 -2 5 20)
1969/12/31/18:00:12.414000,(-10 -8 -19 -40 -11 -5 -4 -6)
1969/12/31/18:00:12.414000,(-16 -11 -2 -8 -9 -5 -1 -1)
1969/12/31/18:00:12.422000,(-6 0 -4 3 5 5 6 1)
1969/12/31/18:00:12.422000,(17 8 3 -1 -1 7 6 8)
1969/12/31/18:00:12.437000,(6 -2 -28 -82 -37 -10 -4 0)
1969/12/31/18:00:12.437000,(2 4 20 59 14 4 4 2)
1969/12/31/18:00:12.438000,(-3 11 37 67 45 15 -1 -9)
1969/12/31/18:00:12.438000,(-15 -5 0 21 2 -1 -3 -5)
1969/12/31/18:00:12.461000,(10 1 6 17 6 3 4 6)
1969/12/31/18:00:12.461000,(-9 -6 -28 -73 -25 -5 0 -4)
1969/12/31/18:00:12.461000,(-13 -13 -8 -18 -11 -7 -3 -1)
1969/12/31/18:00:12.461000,(22 2 15 17 0 4 11 8)
1969/12/31/18:00:12.483000,(-19 -13 -14 -13 6 -10 -20 -32)
1969/12/31/18:00:12.483000,(26 9 2 10 5 6 19 34)
1969/12/31/18:00:12.484000,(-5 -4 -9 -13 -6 -20 -30 -40)
1969/12/31/18:00:12.484000,(-13 -13 -14 -12 -12 -18 -14 -7)
1969/12/31/18:00:12.497000,(23 23 15 18 13 16 28 31)
1969/12/31/18:00:12.497000,(-27 -21 -41 -111 -30 -18 -25 -32)
1969/12/31/18:00:12.498000,(4 -9 -50 -128 -43 -4 11 20)
1969/12/31/18:00:12.498000,(-16 -1 38 88 17 2 -1 -10)
1969/12/31/18:00:12.520000,(3 9 51 119 50 11 2 -5)
1969/12/31/18:00:12.520000,(7 18 59 127 57 13 9 9)
1969/12/31/18:00:12.521000,(7 2 7 -6 8 2 4 6)
1969/12/31/18:00:12.521000,(-9 -5 -17 -52 -23 -5 -2 -7)
1969/12/31/18:00:12.543000,(-37 -24 -26 -59 -21 -6 -1 -4)
1969/12/31/18:00:12.543000,(9 2 -28 -52 -25 -3 -3 -3)
1969/12/31/18:00:12.544000,(51 22 -1 -11 -14 -25 -22 3)
1969/12/31/18:00:12.544000,(-69 -29 -23 -26 -9 -8 -23 -48)
1969/12/31/18:00:12.557000,(64 45 11 12 6 12 31 49)
1969/12/31/18:00:12.557000,(37 -5 2 -5 5 13 21 50)
1969/12/31/18:00:12.558000,(-31 -17 -5 14 -6 -8 -12 -16)
1969/12/31/18:00:12.558000,(15 6 -1 -7 3 1 3 8)
1969/12/31/18:00:12.580000,(-24 -10 3 5 4 2 -2 -12)
1969/12/31/18:00:12.580000,(-11 1 -23 -86 -17 7 9 -6)
1969/12/31/18:00:12.581000,(26 0 -39 -67 -44 1 17 25)
1969/12/31/18:00:12.581000,(-4 11 66 90 53 13 11 9)
1969/12/31/18:00:12.603000,(-5 4 59 102 51 9 -10 -16)
1969/12/31/18:00:12.603000,(-3 6 27 29 22 -3 -11 -14)
1969/12/31/18:00:12.604000,(-14 -14 -16 -49 -10 -2 -3 -6)
1969/12/31/18:00:12.604000,(-9 -15 -69 -123 -37 -17 -9 -10)
1969/12/31/18:00:12.617000,(14 1 -18 -33 -34 -5 5 13)
1969/12/31/18:00:12.617000,(-21 -12 3 18 -5 -12 -16 -24)
1969/12/31/18:00:12.618000,(57 47 38 50 33 29 35 51)
1969/12/31/18:00:12.618000,(2 1 -8 -2 -6 2 1 -1)
1969/12/31/18:00:12.640000,(2 -16 -12 -19 0 0 -10 -3)
1969/12/31/18:00:12.640000,(-64 -13 -2 0 -8 -14 -19 -38)
1969/12/31/18:00:12.641000,(-3 -5 1 22 9 3 -1 -5)
1969/12/31/18:00:12.641000,(28 15 5 -13 2 6 12 30)
1969/12/31/18:00:12.663000,(-1 -4 -16 -25 -11 -6 -5 -10)
1969/12/31/18:00:12.663000,(-19 -16 -15 -52 -19 -2 -4 -9)
1969/12/31/18:00:12.664000,(2 1 -8 13 10 5 9 9)
1969/12/31/18:00:12.664000,(9 18 57 91 26 7 0 -2)
1969/12/31/18:00:12.677000,(-20 -1 31 61 18 -2 -9 -13)
1969/12/31/18:00:12.677000,(20 7 3 18 0 2 8 13)
1969/12/31/18:00:12.678000,(-15 -7 -8 -31 4 -8 -8 -15)
1969/12/31/18:00:12.678000,(-3 -12 -47 -95 -54 -11 -3 1)
1969/12/31/18:00:12.700000,(6 -1 -22 -42 -10 0 5 10)
1969/12/31/18:00:12.700000,(13 9 17 37 18 -1 -6 -3)
1969/12/31/18:00:12.701000,(-7 3 20 35 19 21 12 -1)
1969/12/31/18:00:12.701000,(0 -5 -1 10 5 -6 -2 15)
1969/12/31/18:00:12.723000,(4 11 0 -3 -4 5 9 0)
1969/12/31/18:00:12.723000,(-60 -19 -18 -26 -26 -29 -42 -60)
1969/12/31/18:00:12.724000,(10 -12 4 14 1 -2 -1 7)
1969/12/31/18:00:12.724000,(-5 -4 -8 -3 -2 -7 -4 -9)
1969/12/31/18:00:12.737000,(-1 -3 -11 -28 -12 -7 -4 0)
1969/12/31/18:00:12.737000,(22 8 -4 -35 -27 -4 10 21)
1969/12/31/18:00:12.738000,(-7 0 6 36 5 2 4 -2)
1969/12/31/18:00:12.738000,(-8 -3 4 43 27 5 -6 -7)
1969/12/31/18:00:12.760000,(7 0 3 3 21 7 1 2)
1969/12/31/18:00:12.760000,(1 1 9 39 18 10 2 -1)
1969/12/31/18:00:12.761000,(-9 -1 13 4 -11 -13 -17 -12)
1969/12/31/18:00:12.761000,(9 1 -22 -72 -30 -2 12 13)
1969/12/31/18:00:12.783000,(-9 -17 -21 -10 -26 -14 -9 -11)
1969/12/31/18:00:12.783000,(-26 -12 21 49 18 7 4 2)
1969/12/31/18:00:12.784000,(26 25 25 25 27 29 33 27)
1969/12/31/18:00:12.784000,(-13 -2 -1 10 10 1 -10 -12)
1969/12/31/18:00:12.797000,(5 -4 -24 -44 -22 -33 -40 -20)
1969/12/31/18:00:12.797000,(-50 -38 -28 -38 -22 -15 -10 -36)
1969/12/31/18:00:12.798000,(-8 -3 -1 5 0 -1 3 3)
1969/12/31/18:00:12.798000,(-7 -2 0 -3 2 0 -6 -14)
1969/12/31/18:00:12.820000,(-12 -5 7 3 5 17 24 12)
1969/12/31/18:00:12.820000,(60 26 3 0 2 12 25 48)
1969/12/31/18:00:12.820000,(-23 -12 -4 0 -1 -6 -17 -23)
1969/12/31/18:00:12.820000,(5 5 5 3 -1 6 3 3)
1969/12/31/18:00:12.843000,(-1 3 0 -9 -5 -7 -15 -8)
1969/12/31/18:00:12.843000,(16 19 22 18 15 13 9 9)
1969/12/31/18:00:12.844000,(4 1 -6 -4 4 4 4 5)
1969/12/31/18:00:12.844000,(-4 -11 -21 -6 -13 -20 -13 -5)
1969/12/31/18:00:12.857000,(8 -8 -17 -18 -19 -19 -9 1)
1969/12/31/18:00:12.857000,(6 4 -7 -6 2 3 5 8)
1969/12/31/18:00:12.858000,(-19 -5 14 -2 0 5 -5 -15)
1969/12/31/18:00:12.858000,(18 16 18 16 13 17 13 13)
1969/12/31/18:00:12.888000,(3 -3 -13 8 9 0 3 1)
1969/12/31/18:00:12.888000,(21 2 -6 -3 0 -4 1 15)
1969/12/31/18:00:12.889000,(-55 -33 -7 -12 -13 -13 -18 -27)
1969/12/31/18:00:12.889000,(44 32 14 9 10 17 29 39)
1969/12/31/18:00:12.903000,(-28 -10 7 0 4 4 -1 -10)
1969/12/31/18:00:12.903000,(10 6 -4 -6 -4 -4 -7 -5)
1969/12/31/18:00:12.904000,(26 8 -3 5 -2 -9 -2 10)
1969/12/31/18:00:12.904000,(-3 -3 4 3 3 2 1 0)
1969/12/31/18:00:12.917000,(-19 2 7 -4 4 7 7 -1)
1969/12/31/18:00:12.917000,(6 6 15 -7 5 10 5 1)
1969/12/31/18:00:12.918000,(7 -2 -28 -1 8 -7 -4 -1)
1969/12/31/18:00:12.918000,(-11 -6 7 12 -12 -4 -7 -9)
1969/12/31/18:00:12.949000,(11 1 -16 -8 -4 -7 -5 2)
1969/12/31/18:00:12.949000,(-16 -7 1 -3 -7 -7 -5 -9)
1969/12/31/18:00:12.950000,(3 6 11 -2 0 6 5 4)
1969/12/31/18:00:12.950000,(-5 -5 -13 -5 12 -4 -5 -8)
1969/12/31/18:00:12.963000,(-10 -15 -2 -8 -16 -6 -6 -6)
1969/12/31/18:00:12.963000,(46 23 0 6 0 1 11 33)
1969/12/31/18:00:12.963000,(-26 -17 -8 -13 -7 -8 -13 -23)
1969/12/31/18:00:12.964000,(-16 -8 3 -4 1 0 -6 -6)
1969/12/31/18:00:12.977000,(11 1 10 6 10 13 10 8)
1969/12/31/18:00:12.977000,(8 9 0 10 4 -4 -4 -7)
1969/12/31/18:00:12.978000,(4 1 1 8 -7 -8 -8 -3)
1969/12/31/18:00:12.978000,(-1 -6 -9 -27 -4 2 9 7)
1969/12/31/18:00:13.000000,(-2 4 18 -3 2 2 -2 -5)
1969/12/31/18:00:13.000000,(-5 -2 -20 -18 -6 1 -1 -1)
1969/12/31/18:00:13.001000,(-3 -10 -29 3 10 -6 1 4)
1969/12/31/18:00:13.001000,(-3 -1 22 33 -6 1 -3 -7)
1969/12/31/18:00:13.023000,(10 17 25 33 11 5 6 8)
1969/12/31/18:00:13.023000,(-10 -6 -6 -29 8 9 5 -4)
1969/12/31/18:00:13.024000,(5 -3 -14 3 -12 -14 -7 -3)
1969/12/31/18:00:13.024000,(-3 -5 -26 -34 -12 -21 -15 -6)
1969/12/31/18:00:13.037000,(7 11 5 -2 -6 0 -1 0)
1969/12/31/18:00:13.037000,(-12 -3 21 29 10 10 6 4)
1969/12/31/18:00:13.038000,(-7 -7 3 -14 -1 3 0 12)
1969/12/31/18:00:13.038000,(-39 -1 15 14 15 15 -2 -30)
1969/12/31/18:00:13.060000,(-2 -6 -2 -16 -1 7 2 1)
1969/12/31/18:00:13.060000,(-7 -11 -22 -20 -11 -10 -13 -15)
1969/12/31/18:00:13.061000,(-7 -10 -18 -56 -20 -8 -2 3)
1969/12/31/18:00:13.061000,(11 14 34 55 13 3 5 5)
1969/12/31/18:00:13.083000,(13 23 40 53 -3 6 4 5)
1969/12/31/18:00:13.083000,(-9 -9 7 61 13 -1 -2 -5)
1969/12/31/18:00:13.084000,(8 1 -13 3 4 -6 -1 0)
1969/12/31/18:00:13.084000,(-8 -18 -44 -38 -9 -20 -14 -8)
1969/12/31/18:00:13.097000,(1 -2 -17 -38 -2 2 8 7)
1969/12/31/18:00:13.097000,(-1 2 14 -1 -14 -4 -7 -2)
1969/12/31/18:00:13.106000,(9 12 19 10 10 18 14 8)
1969/12/31/18:00:13.106000,(2 -14 -14 -13 2 9 9 11)
1969/12/31/18:00:13.119000,(9 -3 -26 -11 -6 -11 -6 4)
1969/12/31/18:00:13.119000,(-37 0 0 -9 0 1 -9 -28)
1969/12/31/18:00:13.128000,(8 8 13 9 -1 1 -2 -1)
1969/12/31/18:00:13.128000,(4 -2 4 12 3 0 0 5)
1969/12/31/18:00:13.143000,(-28 -17 7 16 1 -7 -11 -20)
1969/12/31/18:00:13.143000,(-1 -4 0 17 4 -3 -1 1)
1969/12/31/18:00:13.144000,(23 18 -3 -17 -4 2 10 13)
1969/12/31/18:00:13.144000,(9 2 -24 -39 -15 -2 3 7)
1969/12/31/18:00:13.157000,(4 4 -4 -13 2 3 4 3)
1969/12/31/18:00:13.157000,(5 4 28 64 20 1 1 2)
1969/12/31/18:00:13.165000,(-15 -11 23 57 16 -2 -9 -14)
1969/12/31/18:00:13.165000,(11 13 14 -1 -17 -2 -1 3)
1969/12/31/18:00:13.179000,(9 2 -24 -28 1 3 5 7)
1969/12/31/18:00:13.179000,(1 -9 -32 -58 -21 -9 -5 -3)
1969/12/31/18:00:13.188000,(7 1 6 0 10 11 12 14)
1969/12/31/18:00:13.188000,(14 17 12 -3 6 4 0 2)
1969/12/31/18:00:13.203000,(8 11 8 22 6 3 2 2)
1969/12/31/18:00:13.203000,(13 5 -4 -19 -11 -9 -7 1)
1969/12/31/18:00:13.204000,(-4 0 2 -6 -8 -3 -4 -2)
1969/12/31/18:00:13.204000,(9 1 -8 -2 7 3 4 6)
1969/12/31/18:00:13.216000,(-5 -10 -6 0 1 -2 -1 2)
1969/12/31/18:00:13.216000,(-1 -8 0 -17 -7 -5 2 10)
1969/12/31/18:00:13.225000,(8 11 1 1 1 -3 -1 -7)
1969/12/31/18:00:13.225000,(-12 -7 15 8 -15 -6 -12 -22)
1969/12/31/18:00:13.239000,(-13 -2 -16 -26 8 -4 -4 -8)
1969/12/31/18:00:13.239000,(11 -4 21 73 20 11 10 14)
1969/12/31/18:00:13.248000,(-59 -12 -7 -20 -20 -13 -12 -18)
1969/12/31/18:00:13.248000,(87 66 -1 4 12 19 23 25)
1969/12/31/18:00:13.263000,(-8 -8 -14 -22 -10 -2 -1 -3)
1969/12/31/18:00:13.263000,(-18 -33 -20 -37 -5 -3 7 24)
1969/12/31/18:00:13.265000,(61 35 15 11 7 8 9 18)
1969/12/31/18:00:13.265000,(-53 -40 7 10 -3 -13 -16 -24)
1969/12/31/18:00:13.286000,(33 45 14 15 10 17 21 14)
1969/12/31/18:00:13.286000,(8 -1 -6 -21 -2 -8 -13 -10)
1969/12/31/18:00:13.287000,(-24 -16 10 22 2 2 1 -1)
1969/12/31/18:00:13.287000,(-17 -1 -5 -15 -7 -7 -7 -10)
1969/12/31/18:00:13.300000,(3 -14 -11 -8 -10 -9 -8 0)
1969/12/31/18:00:13.300000,(-11 -4 -7 -4 18 15 12 3)
1969/12/31/18:00:13.307000,(-1 1 11 30 4 4 -3 -9)
1969/12/31/18:00:13.307000,(-36 -35 1 11 4 -2 -5 -8)
1969/12/31/18:00:13.323000,(33 34 5 8 0 -1 0 6)
1969/12/31/18:00:13.323000,(-5 8 -9 -18 -9 -1 -1 -5)
1969/12/31/18:00:13.324000,(-2 -8 -10 -40 -7 -4 -2 2)
1969/12/31/18:00:13.324000,(-68 -40 3 19 -4 0 -6 -24)
1969/12/31/18:00:13.345000,(57 34 16 36 9 15 24 42)
1969/12/31/18:00:13.346000,(24 32 -1 7 8 6 8 -1)
1969/12/31/18:00:13.347000,(8 -6 -13 -22 -5 2 6 11)
1969/12/31/18:00:13.347000,(0 -4 -5 -12 -4 -9 -7 -4)
1969/12/31/18:00:13.359000,(-58 -42 4 6 -2 -9 -17 -32)
1969/12/31/18:00:13.359000,(11 14 16 32 0 -1 -1 -3)
1969/12/31/18:00:13.368000,(-1 11 9 28 14 5 7 1)
1969/12/31/18:00:13.368000,(38 15 -6 -1 1 2 10 25)
1969/12/31/18:00:13.383000,(-42 -32 -4 -18 -3 -2 -6 -19)
1969/12/31/18:00:13.383000,(5 8 -18 -30 -14 -7 -6 3)
1969/12/31/18:00:13.384000,(1 -13 -5 -4 -10 -9 -16 -23)
1969/12/31/18:00:13.384000,(23 15 -2 -4 1 -2 1 10)
1969/12/31/18:00:13.405000,(-25 -7 -4 1 -6 -12 -19 -31)
1969/12/31/18:00:13.405000,(12 -11 -3 -9 -4 4 9 30)
1969/12/31/18:00:13.407000,(-37 -11 1 -2 -6 -8 -13 -24)
1969/12/31/18:00:13.407000,(38 31 8 15 25 28 35 40)
1969/12/31/18:00:13.419000,(-27 -28 0 1 -8 -16 -21 -16)
1969/12/31/18:00:13.419000,(1 -1 -12 -53 -23 -8 1 -2)
1969/12/31/18:00:13.428000,(-3 4 6 44 16 8 8 3)
1969/12/31/18:00:13.428000,(-2 4 11 26 7 0 -6 -7)
1969/12/31/18:00:13.443000,(2 -7 9 31 13 10 13 17)
1969/12/31/18:00:13.443000,(-24 -7 -1 -16 -11 -13 -15 -24)
1969/12/31/18:00:13.444000,(-16 -12 -12 -26 -13 -1 6 13)
1969/12/31/18:00:13.444000,(-24 -21 -7 -6 6 3 -6 -20)
1969/12/31/18:00:13.466000,(20 17 -11 -13 -3 -4 -2 -1)
1969/12/31/18:00:13.466000,(59 58 14 11 5 7 10 27)
1969/12/31/18:00:13.467000,(-24 -21 -22 -45 -5 -10 -9 -15)
1969/12/31/18:00:13.467000,(6 4 5 1 -31 -15 -12 -1)
1969/12/31/18:00:13.479000,(9 6 8 27 13 14 17 22)
1969/12/31/18:00:13.479000,(-24 -15 11 38 19 0 -10 -19)
1969/12/31/18:00:13.488000,(17 11 2 3 -5 -1 0 7)
1969/12/31/18:00:13.488000,(-17 -16 -23 -30 -3 -5 -4 -5)
1969/12/31/18:00:13.503000,(-2 8 -1 -25 -9 -2 3 2)
1969/12/31/18:00:13.503000,(-36 -28 -8 -19 -9 0 2 -6)
1969/12/31/18:00:13.505000,(26 8 -6 -13 0 6 11 21)
1969/12/31/18:00:13.505000,(-26 -16 -10 0 -3 -13 -18 -27)
1969/12/31/18:00:13.526000,(-21 -18 13 36 4 -6 -10 -15)
1969/12/31/18:00:13.526000,(26 21 8 22 8 3 4 7)
1969/12/31/18:00:13.527000,(-13 11 15 10 0 -1 -2 -7)
1969/12/31/18:00:13.527000,(1 -6 -6 -18 -6 -2 -2 1)
1969/12/31/18:00:13.539000,(21 3 -20 -43 -9 1 8 14)
1969/12/31/18:00:13.539000,(-14 -11 -2 15 2 0 -1 -13)
1969/12/31/18:00:13.548000,(-36 -20 12 17 -2 0 -3 -11)
1969/12/31/18:00:13.548000,(107 63 10 18 19 24 33 62)
1969/12/31/18:00:13.563000,(-25 -17 -5 -9 -5 -7 -11 -14)
1969/12/31/18:00:13.563000,(-14 -9 -8 -8 4 8 5 -5)
1969/12/31/18:00:13.569000,(3 -6 -9 -8 -9 -9 -12 -10)
1969/12/31/18:00:13.569000,(-17 -1 7 1 -2 -3 -6 -13)
1969/12/31/18:00:13.585000,(-12 -13 -12 -22 -7 -4 -3 -2)
1969/12/31/18:00:13.585000,(23 6 -3 -11 0 7 10 14)
1969/12/31/18:00:13.587000,(-12 -19 0 22 7 0 -4 0)
1969/12/31/18:00:13.587000,(11 41 19 6 3 0 0 -2)
1969/12/31/18:00:13.599000,(28 16 -5 -9 -7 -9 -9 0)
1969/12/31/18:00:13.599000,(-5 -13 -20 -26 1 1 5 5)
1969/12/31/18:00:13.608000,(30 17 1 -16 -3 10 17 23)
1969/12/31/18:00:13.608000,(-30 -25 5 25 -13 -13 -6 -5)
1969/12/31/18:00:13.623000,(1 18 18 33 23 12 4 -4)
1969/12/31/18:00:13.623000,(-17 -1 3 15 5 -4 -9 -12)
1969/12/31/18:00:13.624000,(8 -2 -14 -34 -8 -4 -1 3)
1969/12/31/18:00:13.624000,(-14 -16 -13 -21 -6 -4 -5 -4)
1969/12/31/18:00:13.645000,(-2 0 1 2 -12 -9 -6 -3)
1969/12/31/18:00:13.645000,(-27 -29 -3 2 3 1 2 -6)
1969/12/31/18:00:13.647000,(29 17 9 13 6 8 19 30)
1969/12/31/18:00:13.647000,(-29 -20 -8 -2 5 4 -7 -30)
1969/12/31/18:00:13.659000,(40 15 -1 -14 -3 5 10 27)
1969/12/31/18:00:13.659000,(-21 -11 -4 -14 -6 -10 -14 -20)
1969/12/31/18:00:13.668000,(-11 -9 -3 11 -8 -9 -10 -12)
1969/12/31/18:00:13.668000,(32 38 21 37 20 16 21 28)
1969/12/31/18:00:13.683000,(-37 -24 -14 -25 -7 -11 -17 -27)
1969/12/31/18:00:13.683000,(-7 -8 -16 -30 -18 -5 -4 -2)
1969/12/31/18:00:13.684000,(43 25 20 44 15 13 12 19)
1969/12/31/18:00:13.684000,(-15 -8 8 4 6 -4 -8 -8)
1969/12/31/18:00:13.705000,(-3 6 17 40 2 1 0 1)
1969/12/31/18:00:13.705000,(-3 1 -2 -15 -16 -19 -18 -14)
1969/12/31/18:00:13.707000,(-6 -3 -18 -23 -4 5 7 3)
1969/12/31/18:00:13.707000,(7 -3 -12 -22 -2 -2 -1 6)
1969/12/31/18:00:13.719000,(-15 -13 -8 -8 -3 -9 -14 -19)
1969/12/31/18:00:13.720000,(5 10 14 13 1 6 6 8)
1969/12/31/18:00:13.728000,(9 14 7 -10 4 -5 -11 -15)
1969/12/31/18:00:13.728000,(-35 -15 -9 -11 -14 -6 0 -2)
1969/12/31/18:00:13.743000,(-7 -10 -9 -17 -2 8 7 3)
1969/12/31/18:00:13.743000,(-3 -2 -10 -10 -8 -2 -2 0)
1969/12/31/18:00:13.744000,(-19 -9 9 45 14 -5 -14 -15)
1969/12/31/18:00:13.744000,(-22 -11 12 3 -3 -14 -18 -22)
1969/12/31/18:00:13.765000,(51 29 3 28 23 27 36 40)
1969/12/31/18:00:13.765000,(2 3 7 3 2 4 0 -4)
1969/12/31/18:00:13.767000,(-31 -25 -15 -32 -11 -3 -4 -16)
1969/12/31/18:00:13.767000,(3 -2 -2 -7 -12 -8 -3 -2)
1969/12/31/18:00:13.779000,(6 9 0 3 -4 -10 -3 2)
1969/12/31/18:00:13.779000,(36 24 7 -1 8 6 12 19)
1969/12/31/18:00:13.788000,(9 2 -14 -34 -7 8 4 5)
1969/12/31/18:00:13.788000,(13 -2 2 18 0 2 1 10)
1969/12/31/18:00:13.803000,(-33 -10 15 24 3 7 9 -7)
1969/12/31/18:00:13.803000,(-9 -8 8 31 6 -7 -9 -11)
1969/12/31/18:00:13.804000,(-24 2 8 6 -3 -6 -7 -14)
1969/12/31/18:00:13.804000,(33 20 -14 -31 -2 5 6 14)
1969/12/31/18:00:13.825000,(-26 -21 -15 -50 -17 -1 -2 -7)
1969/12/31/18:00:13.825000,(-4 -4 -2 22 9 2 3 -3)
1969/12/31/18:00:13.827000,(45 25 7 6 7 7 15 32)
1969/12/31/18:00:13.827000,(-11 -8 4 11 0 -3 -4 -8)
1969/12/31/18:00:13.839000,(18 12 1 -4 3 -2 -3 2)
1969/12/31/18:00:13.839000,(-8 -8 -5 -5 -1 1 2 0)
1969/12/31/18:00:13.848000,(-3 -6 -6 -10 -4 -6 -3 -2)
1969/12/31/18:00:13.848000,(-7 3 2 -7 -1 1 4 1)
1969/12/31/18:00:13.863000,(7 5 -3 -5 -10 -7 -6 1)
1969/12/31/18:00:13.863000,(0 2 4 -1 -2 -6 -5 -6)
1969/12/31/18:00:13.865000,(-10 -6 1 9 3 0 -1 -5)
1969/12/31/18:00:13.865000,(-10 -16 -8 -7 0 5 1 -2)
1969/12/31/18:00:13.885000,(-14 -11 -3 1 6 1 -2 -6)
1969/12/31/18:00:13.885000,(8 5 0 -10 -8 -3 -1 4)
1969/12/31/18:00:13.887000,(17 14 3 10 6 2 1 6)
1969/12/31/18:00:13.887000,(4 1 -2 5 4 5 8 8)
1969/12/31/18:00:13.899000,(-10 -7 -4 0 5 -3 -5 -5)
1969/12/31/18:00:13.899000,(6 -10 -17 -28 -4 1 2 10)
1969/12/31/18:00:13.908000,(-39 -3 19 35 -13 -5 -12 -31)
1969/12/31/18:00:13.908000,(-2 0 7 27 13 -7 -17 -18)
1969/12/31/18:00:13.923000,(-11 -6 6 17 6 1 -2 -4)
1969/12/31/18:00:13.923000,(1 -3 -8 -15 -3 -3 -4 -1)
1969/12/31/18:00:13.924000,(34 10 -13 -26 -9 -2 7 24)
1969/12/31/18:00:13.924000,(-14 -17 -11 -20 -9 -1 1 2)
1969/12/31/18:00:13.946000,(-16 -1 -6 -24 -9 -4 -4 -10)
1969/12/31/18:00:13.946000,(-13 -7 1 -10 -11 -8 -6 -7)
1969/12/31/18:00:13.947000,(7 1 7 30 9 3 0 2)
1969/12/31/18:00:13.947000,(-4 -3 1 6 16 9 2 -3)
1969/12/31/18:00:13.968000,(19 4 7 28 17 8 5 12)
1969/12/31/18:00:13.968000,(-6 3 11 19 2 2 -2 -2)
1969/12/31/18:00:13.969000,(-4 0 -6 -21 -12 -7 -3 -1)
1969/12/31/18:00:13.969000,(23 14 -10 -46 -17 -2 6 13)
1969/12/31/18:00:13.983000,(-14 -13 -19 -44 -19 -11 -5 -9)
1969/12/31/18:00:13.983000,(6 9 10 23 15 5 3 2)
1969/12/31/18:00:13.984000,(-9 -5 18 58 5 -1 -5 -10)
1969/12/31/18:00:13.984000,(0 0 7 4 9 2 4 5)
1969/12/31/18:00:14.006000,(-1 -2 3 14 4 2 1 0)
1969/12/31/18:00:14.006000,(3 -4 -7 -23 -8 4 5 5)
1969/12/31/18:00:14.007000,(6 -5 -23 -36 -8 -6 -8 -6)
1969/12/31/18:00:14.007000,(-9 -11 -2 -1 -14 -9 -8 -7)
1969/12/31/18:00:14.019000,(28 16 6 6 5 13 19 32)
1969/12/31/18:00:14.019000,(-7 10 13 24 13 10 3 -9)
1969/12/31/18:00:14.028000,(-16 -12 -6 -23 -7 -7 -10 -12)
1969/12/31/18:00:14.028000,(-2 -4 -7 -3 -3 -1 3 0)
1969/12/31/18:00:14.043000,(7 0 -2 3 -4 -8 -6 1)
1969/12/31/18:00:14.043000,(4 5 3 11 5 6 5 6)
1969/12/31/18:00:14.044000,(4 1 -4 -33 1 3 7 7)
1969/12/31/18:00:14.044000,(-6 -2 -5 1 -30 -17 -14 -11)
1969/12/31/18:00:14.066000,(-1 -3 -1 -20 3 -4 -1 -6)
1969/12/31/18:00:14.066000,(4 5 14 58 32 9 7 7)
1969/12/31/18:00:14.067000,(-6 4 23 22 16 12 3 -3)
1969/12/31/18:00:14.067000,(6 16 24 -19 15 22 13 10)
1969/12/31/18:00:14.079000,(4 -1 -24 27 -10 -5 -4 -1)
1969/12/31/18:00:14.079000,(-3 -20 -36 -20 -38 -35 -20 -10)
1969/12/31/18:00:14.088000,(-21 -20 -18 -30 -15 -19 -15 -17)
1969/12/31/18:00:14.088000,(-5 -3 -11 -43 -7 -4 -3 -5)
1969/12/31/18:00:14.103000,(-5 -1 15 -55 -19 -4 3 0)
1969/12/31/18:00:14.103000,(13 23 21 85 34 15 6 6)
1969/12/31/18:00:14.104000,(15 9 5 12 9 21 14 15)
1969/12/31/18:00:14.104000,(-3 -5 -9 -12 15 7 0 -4)
1969/12/31/18:00:14.125000,(3 7 11 -16 -8 13 4 -1)
1969/12/31/18:00:14.125000,(0 -13 -29 -12 -8 -5 0 3)
1969/12/31/18:00:14.127000,(-8 -11 3 -14 -30 -22 -9 -6)
1969/12/31/18:00:14.127000,(-16 -11 -17 48 -6 -25 -18 -16)
1969/12/31/18:00:14.139000,(-1 1 22 36 19 -5 -4 -3)
1969/12/31/18:00:14.139000,(-14 -8 -24 -116 -37 -1 -2 -9)
1969/12/31/18:00:14.148000,(24 17 -22 73 38 23 21 21)
1969/12/31/18:00:14.148000,(13 5 39 49 -2 8 8 9)
1969/12/31/18:00:14.162000,(-6 -4 20 64 -3 -8 -9 -10)
1969/12/31/18:00:14.162000,(-6 12 40 -78 -6 6 0 -5)
1969/12/31/18:00:14.169000,(3 10 2 -1 -8 2 2 1)
1969/12/31/18:00:14.169000,(7 -2 -17 41 18 5 8 9)
1969/12/31/18:00:14.185000,(-10 -14 -17 16 4 -11 -11 -10)
1969/12/31/18:00:14.185000,(-6 -11 -21 -46 -14 -17 -7 -6)
1969/12/31/18:00:14.187000,(-12 -12 -4 -20 -9 -8 -8 -7)
1969/12/31/18:00:14.187000,(4 7 -14 -28 7 12 8 4)
1969/12/31/18:00:14.199000,(8 -4 -22 -8 0 12 8 7)
1969/12/31/18:00:14.199000,(0 2 5 36 1 -6 -6 -1)
1969/12/31/18:00:14.208000,(-9 -3 18 14 -4 -12 -12 -8)
1969/12/31/18:00:14.208000,(-3 0 16 13 -1 -10 -4 -5)
1969/12/31/18:00:14.222000,(3 -2 -30 -37 3 -2 4 2)
1969/12/31/18:00:14.222000,(-7 -14 -28 -71 -13 1 3 -2)
1969/12/31/18:00:14.229000,(10 15 32 64 10 3 8 8)
1969/12/31/18:00:14.229000,(5 13 57 45 22 10 4 4)
1969/12/31/18:00:14.245000,(3 3 -31 23 5 -4 -4 1)
1969/12/31/18:00:14.245000,(-1 -11 -8 20 -3 -5 -4 1)
1969/12/31/18:00:14.247000,(-12 -8 8 -40 -5 -1 -6 -10)
1969/12/31/18:00:14.247000,(-5 -4 -26 -91 -30 -2 -2 -4)
1969/12/31/18:00:14.259000,(10 17 31 27 4 19 13 13)
1969/12/31/18:00:14.259000,(14 10 11 113 40 0 1 7)
1969/12/31/18:00:14.268000,(-13 -16 -11 -34 -3 -12 -10 -11)
1969/12/31/18:00:14.268000,(-6 -6 -13 19 1 -3 -3 -3)
1969/12/31/18:00:14.290000,(-9 -6 4 -37 -11 -5 -3 -4)
1969/12/31/18:00:14.290000,(-1 6 2 -45 -27 -3 0 -1)
1969/12/31/18:00:14.292000,(9 -10 -18 35 14 7 10 10)
1969/12/31/18:00:14.292000,(-5 -1 3 8 1 -7 -6 -5)
1969/12/31/18:00:14.305000,(-5 -1 -5 -1 5 -3 -9 -8)
1969/12/31/18:00:14.305000,(6 6 14 2 -11 14 7 5)
1969/12/31/18:00:14.307000,(8 16 -2 -45 -3 13 0 5)
1969/12/31/18:00:14.307000,(13 3 1 44 14 21 7 12)
1969/12/31/18:00:14.328000,(-4 2 6 -15 -8 7 -8 -6)
1969/12/31/18:00:14.328000,(0 8 16 18 6 17 3 2)
1969/12/31/18:00:14.334000,(4 6 -10 -35 -10 7 1 3)
1969/12/31/18:00:14.334000,(-5 -13 -18 -31 -16 -6 -4 -3)
1969/12/31/18:00:14.342000,(-8 3 16 12 -3 -12 -6 -8)
1969/12/31/18:00:14.342000,(0 -10 -6 8 0 -4 5 1)
1969/12/31/18:00:14.349000,(-8 -1 -2 -19 -5 -2 2 -6)
1969/12/31/18:00:14.349000,(6 1 1 32 17 -7 5 4)
1969/12/31/18:00:14.365000,(-7 -12 -7 -25 2 -8 -9 -8)
1969/12/31/18:00:14.365000,(-8 -5 1 6 9 -4 -3 -6)
1969/12/31/18:00:14.367000,(5 9 15 15 10 -5 -1 -1)
1969/12/31/18:00:14.367000,(2 -5 -25 -6 -16 -4 3 3)
1969/12/31/18:00:14.388000,(4 -1 4 0 2 7 10 6)
1969/12/31/18:00:14.388000,(-2 4 6 20 27 9 0 -3)
1969/12/31/18:00:14.389000,(-2 -16 -13 17 18 -1 1 2)
1969/12/31/18:00:14.389000,(-11 1 13 -20 -8 -14 -12 -13)
1969/12/31/18:00:14.402000,(-7 2 -2 2 -10 -11 -6 -7)
1969/12/31/18:00:14.402000,(30 0 -22 0 -12 -5 8 18)
1969/12/31/18:00:14.410000,(-18 -20 -22 -20 -14 -10 -5 -11)
1969/12/31/18:00:14.411000,(-15 6 10 -8 -9 -10 -7 -7)
1969/12/31/18:00:14.426000,(21 21 31 65 30 2 2 11)
1969/12/31/18:00:14.426000,(-14 -21 -1 -10 -15 -16 -8 -10)
1969/12/31/18:00:14.427000,(6 4 -6 -9 -6 0 3 3)
1969/12/31/18:00:14.427000,(1 -5 -17 -18 -4 3 3 0)
