time,.data
1969/12/31/18:00:31.268,(-9 -16 -33 -21 -17 -6 -3 -5)
1969/12/31/18:00:31.268,(3 5 -9 2 0 -2 -4 -7)
1969/12/31/18:00:31.269,(0 -1 21 -13 0 4 4 5)
1969/12/31/18:00:31.269,(3 10 2 9 2 2 2 2)
1969/12/31/18:00:31.281,(-5 -3 17 -34 -22 -16 -11 -7)
1969/12/31/18:00:31.281,(-1 -7 -2 5 12 3 7 4)
1969/12/31/18:00:31.290,(1 3 0 -3 2 3 -6 -8)
1969/12/31/18:00:31.291,(-2 -8 -16 18 -17 0 8 6)
1969/12/31/18:00:31.305,(9 13 12 40 61 16 3 2)
1969/12/31/18:00:31.305,(-9 -18 -14 -34 -28 -3 5 -1)
1969/12/31/18:00:31.307,(-1 3 -8 -4 -5 -9 -20 -6)
1969/12/31/18:00:31.307,(-1 -17 -18 -26 -15 -7 3 6)
1969/12/31/18:00:31.328,(-3 -1 -7 -10 -25 -5 -3 1)
1969/12/31/18:00:31.328,(2 13 8 17 -9 -2 -8 -9)
1969/12/31/18:00:31.329,(0 3 -2 3 21 4 1 -2)
1969/12/31/18:00:31.329,(-6 2 13 -16 -7 -12 -11 -9)
1969/12/31/18:00:31.341,(1 -8 -13 3 -1 7 10 7)
1969/12/31/18:00:31.341,(2 8 17 22 11 -3 -5 -1)
1969/12/31/18:00:31.350,(-4 -7 -16 -18 -24 -7 0 0)
1969/12/31/18:00:31.350,(1 6 13 33 19 5 -3 -6)
1969/12/31/18:00:31.365,(-3 -5 5 -6 -1 -1 3 0)
1969/12/31/18:00:31.365,(-2 -4 5 11 6 3 1 1)
1969/12/31/18:00:31.367,(0 -4 -21 -21 -4 -4 3 4)
1969/12/31/18:00:31.367,(-1 0 5 -8 -2 -1 -4 -5)
1969/12/31/18:00:31.388,(-1 -5 -9 5 4 5 4 4)
1969/12/31/18:00:31.388,(-2 -2 0 6 3 -1 -3 0)
1969/12/31/18:00:31.389,(-1 1 -2 -3 -4 1 2 -1)
1969/12/31/18:00:31.389,(-1 2 4 1 4 1 -4 -4)
1969/12/31/18:00:31.401,(-1 -2 -5 -15 -11 -4 -5 -4)
1969/12/31/18:00:31.401,(-1 2 5 15 6 0 -2 2)
1969/12/31/18:00:31.410,(-1 -2 3 0 -2 -2 0 0)
1969/12/31/18:00:31.410,(-3 -1 -5 -5 -3 0 1 0)
1969/12/31/18:00:31.425,(-2 -4 -11 -8 -1 -2 -3 -4)
1969/12/31/18:00:31.425,(-1 0 7 9 3 1 3 4)
1969/12/31/18:00:31.427,(-2 0 1 4 0 1 0 -4)
1969/12/31/18:00:31.427,(-6 -13 -16 -15 -5 -2 -3 -2)
1969/12/31/18:00:31.448,(-3 -23 -7 1 -2 -1 -1 3)
1969/12/31/18:00:31.448,(10 43 30 23 9 3 3 1)
1969/12/31/18:00:31.449,(1 5 0 -9 -7 -4 -3 -5)
1969/12/31/18:00:31.449,(2 -1 -5 -2 1 0 0 -1)
1969/12/31/18:00:31.462,(-3 -8 -6 -3 -3 0 0 -1)
1969/12/31/18:00:31.462,(-4 -15 -8 1 0 -1 -2 0)
1969/12/31/18:00:31.470,(-6 -6 -8 -5 -2 -3 -2 -2)
1969/12/31/18:00:31.470,(7 5 5 -3 -1 1 0 1)
1969/12/31/18:00:31.485,(3 1 -5 -1 2 0 0 1)
1969/12/31/18:00:31.485,(-17 -16 -9 -4 0 -2 -4 -4)
1969/12/31/18:00:31.487,(9 10 24 12 6 3 3 3)
1969/12/31/18:00:31.487,(-10 -7 -3 -1 0 -2 -2 -5)
1969/12/31/18:00:31.508,(17 19 9 4 1 -1 -2 4)
1969/12/31/18:00:31.508,(-14 -11 -12 -7 -5 -4 -3 -9)
1969/12/31/18:00:31.509,(-8 -10 -9 -5 -4 1 -1 -2)
1969/12/31/18:00:31.509,(1 22 12 4 2 2 3 2)
1969/12/31/18:00:31.522,(0 4 5 5 2 1 0 -6)
1969/12/31/18:00:31.522,(1 -18 -7 -1 -2 -1 -2 -2)
1969/12/31/18:00:31.530,(-14 -16 -12 -2 -5 -3 -4 -6)
1969/12/31/18:00:31.530,(13 1 0 -2 -2 -5 -6 -6)
1969/12/31/18:00:31.545,(-17 12 1 -1 -2 0 -1 -11)
1969/12/31/18:00:31.545,(30 5 -1 0 -2 0 8 29)
1969/12/31/18:00:31.547,(19 10 2 0 0 1 0 3)
1969/12/31/18:00:31.547,(-22 2 -1 -4 -4 -6 -10 -18)
1969/12/31/18:00:31.568,(20 -20 -7 -4 1 -1 3 9)
1969/12/31/18:00:31.568,(-60 -24 -7 -4 -2 -4 -6 -24)
1969/12/31/18:00:31.569,(-5 -10 -2 -3 -1 -3 -3 6)
1969/12/31/18:00:31.569,(-12 -1 -4 -4 -3 -2 -8 -30)
1969/12/31/18:00:31.582,(14 9 -2 -1 -2 2 11 23)
1969/12/31/18:00:31.582,(6 0 4 4 3 4 -1 8)
1969/12/31/18:00:31.591,(13 4 -6 -4 -2 -3 13 8)
1969/12/31/18:00:31.591,(-54 -23 -3 -4 -5 -11 -15 0)
1969/12/31/18:00:31.605,(41 11 3 1 -1 5 -1 1)
1969/12/31/18:00:31.605,(6 -2 -3 0 6 28 -5 -6)
1969/12/31/18:00:31.611,(-29 -19 -6 -4 -4 -31 -25 -30)
1969/12/31/18:00:31.611,(-6 -2 0 1 0 5 3 -5)
1969/12/31/18:00:31.628,(27 9 -4 -3 -4 -4 10 68)
1969/12/31/18:00:31.628,(-12 -6 4 2 -1 3 7 -8)
1969/12/31/18:00:31.629,(25 30 8 4 3 3 -12 -4)
1969/12/31/18:00:31.629,(-8 -26 -18 -13 -10 -9 -5 -1)
1969/12/31/18:00:31.641,(-54 -13 5 4 3 4 8 -34)
1969/12/31/18:00:31.641,(43 18 5 2 1 -4 -16 12)
1969/12/31/18:00:31.651,(-15 -19 -7 -4 -3 -1 5 -1)
1969/12/31/18:00:31.651,(32 12 6 3 2 4 17 35)
1969/12/31/18:00:31.665,(-17 18 5 -2 -7 -8 -3 -10)
1969/12/31/18:00:31.665,(-6 12 8 9 5 -2 -5 -26)
1969/12/31/18:00:31.667,(0 -3 -13 -11 -10 -6 2 -14)
1969/12/31/18:00:31.667,(18 -3 -6 -6 8 13 11 23)
1969/12/31/18:00:31.688,(-42 -30 -10 -2 -5 -7 10 -44)
1969/12/31/18:00:31.688,(-1 0 6 2 3 -20 6 22)
1969/12/31/18:00:31.689,(31 29 18 15 10 11 8 28)
1969/12/31/18:00:31.689,(3 9 -3 -4 -5 -7 -7 -11)
1969/12/31/18:00:31.701,(28 24 2 -3 1 3 -2 10)
1969/12/31/18:00:31.701,(-50 -40 2 5 4 6 1 -15)
1969/12/31/18:00:31.710,(29 11 -2 -4 -1 -6 14 24)
1969/12/31/18:00:31.710,(0 12 7 0 2 0 1 -4)
1969/12/31/18:00:31.724,(6 -11 -14 -11 -6 -3 -14 14)
1969/12/31/18:00:31.724,(25 19 0 -1 -6 1 -15 -25)
1969/12/31/18:00:31.733,(-55 -46 -18 -6 -2 17 13 -16)
1969/12/31/18:00:31.733,(22 -1 9 9 7 5 -5 32)
1969/12/31/18:00:31.748,(-6 6 -4 0 0 -14 -21 -18)
1969/12/31/18:00:31.748,(-6 4 -1 -3 -8 10 24 9)
1969/12/31/18:00:31.749,(7 12 -2 -4 3 34 13 -13)
1969/12/31/18:00:31.749,(-20 -2 -4 -2 -7 -7 -19 -25)
1969/12/31/18:00:31.762,(-18 -23 -5 -1 1 -1 7 -6)
1969/12/31/18:00:31.762,(35 36 4 0 -4 -31 -21 -3)
1969/12/31/18:00:31.778,(-17 -12 7 4 3 -2 -2 -26)
1969/12/31/18:00:31.778,(11 3 -4 -4 -4 4 27 65)
1969/12/31/18:00:31.800,(-33 -34 -9 -1 4 13 -24 -36)
1969/12/31/18:00:31.800,(-2 3 3 -2 1 1 15 16)
1969/12/31/18:00:31.802,(56 29 10 5 -7 4 -1 31)
1969/12/31/18:00:31.802,(-18 -25 -12 -8 -3 13 -6 -29)
1969/12/31/18:00:31.808,(-14 1 7 8 3 -11 -20 -16)
1969/12/31/18:00:31.808,(24 29 6 0 0 -1 0 -6)
1969/12/31/18:00:31.809,(-10 -12 2 0 -1 -16 -7 15)
1969/12/31/18:00:31.809,(23 1 4 4 3 -6 -6 -5)
1969/12/31/18:00:31.830,(-16 -1 6 8 6 13 25 12)
1969/12/31/18:00:31.830,(1 -19 -11 -8 -9 11 -6 -23)
1969/12/31/18:00:31.832,(36 8 -6 -10 -7 -15 -25 4)
1969/12/31/18:00:31.832,(-29 -2 0 0 -2 -6 -2 -16)
1969/12/31/18:00:31.845,(-16 -1 -4 -10 -2 20 6 -34)
1969/12/31/18:00:31.845,(2 -6 0 -1 -4 -39 -15 10)
1969/12/31/18:00:31.851,(-23 -12 -6 -5 -7 -20 -7 -7)
1969/12/31/18:00:31.851,(7 10 3 1 1 -3 -3 -12)
1969/12/31/18:00:31.868,(15 17 4 1 -2 -6 -9 26)
1969/12/31/18:00:31.868,(-14 -41 -23 -10 -7 5 32 72)
1969/12/31/18:00:31.869,(19 15 7 5 7 14 -1 -6)
1969/12/31/18:00:31.869,(-9 -15 -9 -4 -5 -7 -2 11)
1969/12/31/18:00:31.890,(2 -4 -1 -5 -6 -15 -1 -11)
1969/12/31/18:00:31.890,(-31 9 6 5 5 9 -3 -49)
1969/12/31/18:00:31.892,(27 17 0 0 1 5 16 18)
1969/12/31/18:00:31.892,(6 18 8 6 7 7 -5 -8)
1969/12/31/18:00:31.904,(-11 -42 -13 -7 -6 -16 14 48)
1969/12/31/18:00:31.904,(-62 -14 -8 -4 0 1 -29 -74)
1969/12/31/18:00:31.911,(-39 -18 -1 -1 1 1 -7 0)
1969/12/31/18:00:31.911,(35 2 4 4 4 14 12 29)
1969/12/31/18:00:31.928,(39 27 9 4 -1 -3 3 8)
1969/12/31/18:00:31.928,(11 10 0 -4 -1 4 -6 14)
1969/12/31/18:00:31.929,(-36 -15 -7 -3 -7 -3 3 -35)
1969/12/31/18:00:31.929,(-17 -15 0 4 4 1 13 0)
1969/12/31/18:00:31.950,(-39 18 4 1 3 5 -1 18)
1969/12/31/18:00:31.950,(-39 -25 7 11 11 13 10 -12)
1969/12/31/18:00:31.952,(18 7 -14 -11 -8 -4 -10 3)
1969/12/31/18:00:31.952,(8 21 7 1 0 -4 7 4)
1969/12/31/18:00:31.964,(-9 5 -3 -4 -5 -5 -16 -25)
1969/12/31/18:00:31.964,(39 -8 -7 -6 -6 -9 -1 -11)
1969/12/31/18:00:31.973,(-61 -1 3 1 2 10 22 54)
1969/12/31/18:00:31.973,(-40 -1 7 5 5 6 1 -50)
1969/12/31/18:00:31.988,(24 2 1 -4 -3 -7 -18 -42)
1969/12/31/18:00:31.988,(-3 33 6 0 -3 -1 8 7)
1969/12/31/18:00:31.989,(6 -31 -5 -2 -6 -23 -38 -18)
1969/12/31/18:00:31.989,(4 -7 -5 0 1 5 14 0)
1969/12/31/18:00:32.010,(19 20 10 5 6 -4 -20 10)
1969/12/31/18:00:32.010,(-8 -25 -19 -11 -8 9 23 47)
1969/12/31/18:00:32.012,(34 30 5 -1 3 10 -4 8)
1969/12/31/18:00:32.012,(23 15 9 4 6 6 -23 -28)
1969/12/31/18:00:32.024,(4 -40 -19 -12 -23 -35 0 70)
1969/12/31/18:00:32.024,(19 19 6 1 0 3 -8 8)
1969/12/31/18:00:32.033,(-34 -15 2 5 5 -2 -1 -8)
1969/12/31/18:00:32.033,(17 -2 1 3 3 2 3 49)
1969/12/31/18:00:32.048,(49 21 3 2 5 18 22 -20)
1969/12/31/18:00:32.048,(3 -17 -12 -7 -3 5 -27 -15)
1969/12/31/18:00:32.049,(-4 1 4 2 -2 -12 6 9)
1969/12/31/18:00:32.049,(1 -4 -7 -6 -2 11 -25 0)
1969/12/31/18:00:32.070,(-50 2 11 11 11 -3 -5 -39)
1969/12/31/18:00:32.070,(9 -2 -1 -1 -1 8 26 -12)
1969/12/31/18:00:32.072,(-35 5 4 2 -2 -29 -5 -59)
1969/12/31/18:00:32.072,(-5 -1 -8 -21 -25 -17 -9 -8)
1969/12/31/18:00:32.084,(-29 -24 -16 -21 -27 -52 -10 -18)
1969/12/31/18:00:32.084,(36 24 16 29 39 27 13 38)
1969/12/31/18:00:32.093,(-25 -18 -3 6 6 17 4 -13)
1969/12/31/18:00:32.093,(-25 13 7 6 24 -13 -31 -39)
1969/12/31/18:00:32.108,(37 -21 -22 -11 -15 -4 -3 1)
1969/12/31/18:00:32.108,(31 8 2 1 -20 -39 16 35)
1969/12/31/18:00:32.109,(23 -1 -9 -17 -14 -11 -3 11)
1969/12/31/18:00:32.109,(11 8 5 1 -5 2 38 31)
1969/12/31/18:00:32.130,(-36 -7 9 6 8 11 -20 -43)
1969/12/31/18:00:32.130,(13 15 -2 0 10 -8 -17 -33)
1969/12/31/18:00:32.132,(7 1 3 9 9 18 -14 -38)
1969/12/31/18:00:32.132,(44 -3 -6 0 -8 -2 8 23)
1969/12/31/18:00:32.144,(-27 19 15 11 23 25 23 -4)
1969/12/31/18:00:32.144,(46 -10 -16 -21 -32 -14 -33 -25)
1969/12/31/18:00:32.153,(6 12 3 -8 -8 16 19 7)
1969/12/31/18:00:32.153,(9 -11 -9 -8 -32 -31 -2 19)
1969/12/31/18:00:32.167,(4 7 8 11 20 3 0 0)
1969/12/31/18:00:32.167,(-38 10 3 -11 -5 9 3 9)
1969/12/31/18:00:32.175,(41 -20 -2 1 5 25 -5 21)
1969/12/31/18:00:32.175,(-29 -11 -5 16 48 15 7 -9)
1969/12/31/18:00:32.190,(-6 5 -2 -11 -33 -2 -14 15)
1969/12/31/18:00:32.190,(-39 -2 6 5 -13 -19 21 -15)
1969/12/31/18:00:32.192,(-11 1 -10 -18 -26 2 -25 -22)
1969/12/31/18:00:32.192,(-8 -5 3 5 5 -11 0 -4)
1969/12/31/18:00:32.204,(-5 -9 -5 7 18 5 -1 10)
1969/12/31/18:00:32.204,(-2 16 6 -2 -14 16 -3 2)
1969/12/31/18:00:32.213,(-10 -7 1 17 24 18 7 1)
1969/12/31/18:00:32.213,(15 25 10 -11 -71 -81 21 14)
1969/12/31/18:00:32.228,(8 -13 -6 -3 22 68 -15 -8)
1969/12/31/18:00:32.228,(24 1 -5 -7 18 -1 -10 51)
1969/12/31/18:00:32.229,(-21 -15 -10 11 20 -8 24 12)
1969/12/31/18:00:32.229,(2 5 -5 -11 11 31 -17 2)
1969/12/31/18:00:32.250,(5 3 -5 -18 -49 -41 1 7)
1969/12/31/18:00:32.250,(2 -1 7 3 -9 -14 -4 5)
1969/12/31/18:00:32.252,(-24 0 3 14 15 -9 20 -14)
1969/12/31/18:00:32.252,(-6 -33 -17 -20 -5 11 0 -9)
1969/12/31/18:00:32.264,(5 17 11 6 -3 -14 14 42)
1969/12/31/18:00:32.264,(-38 -33 -14 -2 16 -30 -24 -28)
1969/12/31/18:00:32.273,(12 16 8 12 9 46 15 23)
1969/12/31/18:00:32.273,(-7 -2 0 7 6 -18 -9 -10)
1969/12/31/18:00:32.288,(11 -11 -10 -8 13 39 1 -14)
1969/12/31/18:00:32.288,(-7 10 8 -5 -18 -13 -19 -21)
1969/12/31/18:00:32.289,(1 -2 -4 -13 -26 -49 -25 -14)
1969/12/31/18:00:32.289,(-10 1 1 12 25 30 19 -14)
1969/12/31/18:00:32.310,(-8 -28 -51 -21 -13 -17 -10 -16)
1969/12/31/18:00:32.310,(7 20 43 36 35 4 14 7)
1969/12/31/18:00:32.312,(-5 31 22 -26 -45 3 -8 -22)
1969/12/31/18:00:32.312,(5 -3 -5 -4 -8 -6 7 8)
1969/12/31/18:00:32.324,(-12 11 14 13 25 2 -17 -31)
1969/12/31/18:00:32.324,(8 -118 -113 -36 -32 33 22 24)
1969/12/31/18:00:32.333,(21 29 -19 -20 -1 -4 8 28)
1969/12/31/18:00:32.333,(6 65 61 43 9 -18 -16 -17)
1969/12/31/18:00:32.348,(9 9 -7 -4 -15 2 14 7)
1969/12/31/18:00:32.348,(-12 -22 7 8 25 20 19 36)
1969/12/31/18:00:32.349,(-2 -41 -32 -10 -1 -33 -16 -1)
1969/12/31/18:00:32.349,(4 -26 -36 -32 -26 21 -15 -3)
1969/12/31/18:00:32.371,(38 22 27 20 26 12 24 23)
1969/12/31/18:00:32.371,(-18 -24 -28 -14 -25 -8 6 -5)
1969/12/31/18:00:32.372,(22 7 27 9 21 -2 -17 -1)
1969/12/31/18:00:32.372,(-18 -14 -35 -14 -13 -2 -1 -9)
1969/12/31/18:00:32.392,(-1 55 55 32 28 7 -4 5)
1969/12/31/18:00:32.392,(13 69 68 11 -8 4 3 -6)
1969/12/31/18:00:32.393,(-46 -40 -26 -13 -32 -14 1 -7)
1969/12/31/18:00:32.393,(8 -43 -40 -21 4 1 -16 -7)
1969/12/31/18:00:32.407,(0 -56 -33 -15 -19 -19 -5 -12)
1969/12/31/18:00:32.407,(0 25 15 12 17 14 0 14)
1969/12/31/18:00:32.408,(-16 24 18 14 3 -1 -5 -40)
1969/12/31/18:00:32.408,(0 -8 9 7 28 29 -3 -1)
1969/12/31/18:00:32.430,(1 -6 -19 -11 -10 -4 10 13)
1969/12/31/18:00:32.430,(-10 -94 -84 -9 -17 -55 -36 -25)
1969/12/31/18:00:32.430,(-13 20 -71 -34 -1 15 10 18)
1969/12/31/18:00:32.430,(16 36 40 20 -7 40 14 0)
1969/12/31/18:00:32.452,(-44 -30 17 13 -6 -12 -5 -26)
1969/12/31/18:00:32.452,(11 27 15 2 2 0 -7 -13)
1969/12/31/18:00:32.453,(-18 -98 -53 11 35 -18 -14 -15)
1969/12/31/18:00:32.453,(-23 -102 -128 -74 -38 2 1 -9)
1969/12/31/18:00:32.467,(21 119 105 45 -6 2 -6 17)
1969/12/31/18:00:32.467,(-3 58 37 21 10 2 -13 -60)
1969/12/31/18:00:32.475,(16 -22 12 14 4 -40 -3 18)
1969/12/31/18:00:32.475,(-48 -25 -1 32 20 9 1 -8)
1969/12/31/18:00:32.490,(7 -69 -68 -32 -25 22 27 34)
1969/12/31/18:00:32.490,(-49 -103 -115 -91 -20 -8 -8 -31)
1969/12/31/18:00:32.490,(2 123 90 15 -6 6 -30 -59)
1969/12/31/18:00:32.490,(81 65 78 50 7 -35 0 61)
1969/12/31/18:00:32.512,(-17 -16 -47 2 9 3 -2 -12)
1969/12/31/18:00:32.512,(20 -37 7 28 10 9 29 36)
1969/12/31/18:00:32.513,(86 -128 -118 -47 -10 10 6 29)
1969/12/31/18:00:32.513,(-81 -29 -88 -36 -3 -28 -22 -51)
1969/12/31/18:00:32.527,(34 99 73 16 23 22 3 0)
1969/12/31/18:00:32.527,(64 127 105 32 2 -6 5 30)
1969/12/31/18:00:32.528,(9 17 30 18 -1 7 14 42)
1969/12/31/18:00:32.528,(8 -32 -3 1 0 2 -4 11)
1969/12/31/18:00:32.550,(-18 -107 -85 -19 23 6 -9 -39)
1969/12/31/18:00:32.550,(-25 -25 -45 -27 -22 9 -12 -12)
1969/12/31/18:00:32.550,(-17 -5 21 12 -14 -12 23 29)
1969/12/31/18:00:32.550,(16 48 46 18 -2 -24 -21 -22)
1969/12/31/18:00:32.572,(-19 -23 -25 -21 -19 -12 14 9)
1969/12/31/18:00:32.572,(5 -9 -11 12 48 29 -6 15)
1969/12/31/18:00:32.573,(-23 -52 -37 -20 -24 22 4 -18)
1969/12/31/18:00:32.573,(3 51 17 10 7 4 16 15)
1969/12/31/18:00:32.587,(23 -8 12 -2 -8 -12 -6 24)
1969/12/31/18:00:32.587,(-20 55 29 24 9 -6 0 -3)
1969/12/31/18:00:32.588,(0 19 55 44 29 -6 -4 16)
1969/12/31/18:00:32.588,(55 -42 -28 -17 -1 0 12 8)
1969/12/31/18:00:32.610,(22 28 9 -6 4 33 2 -1)
1969/12/31/18:00:32.610,(3 -102 -88 -32 -37 -30 9 56)
1969/12/31/18:00:32.610,(-14 -16 -53 -11 -3 -19 -33 -21)
1969/12/31/18:00:32.610,(-13 48 78 18 12 28 11 -16)
1969/12/31/18:00:32.632,(-35 1 10 1 -18 -22 2 -8)
1969/12/31/18:00:32.632,(26 7 -6 3 8 -35 -25 -32)
1969/12/31/18:00:32.633,(-11 -29 8 10 14 58 30 6)
1969/12/31/18:00:32.633,(-8 -60 -75 -40 -29 -9 -3 6)
1969/12/31/18:00:32.649,(-21 -110 -73 -28 15 17 9 -13)
1969/12/31/18:00:32.649,(-12 80 44 30 0 -19 -13 -27)
1969/12/31/18:00:32.649,(25 52 52 47 17 1 8 0)
1969/12/31/18:00:32.649,(-18 -94 -86 -2 1 -5 -22 -17)
1969/12/31/18:00:32.670,(46 -32 -95 -28 -15 -10 1 18)
1969/12/31/18:00:32.670,(-52 -4 44 18 9 12 7 -38)
1969/12/31/18:00:32.670,(-39 -101 -113 -49 -16 -6 -11 -14)
1969/12/31/18:00:32.670,(29 127 92 27 7 3 18 30)
1969/12/31/18:00:32.693,(18 -71 -22 -3 -4 -44 -15 2)
1969/12/31/18:00:32.693,(17 61 46 8 7 46 1 18)
1969/12/31/18:00:32.694,(-32 7 2 -11 -42 -7 21 -12)
1969/12/31/18:00:32.694,(-5 -128 -123 -29 17 18 20 71)
1969/12/31/18:00:32.707,(-25 9 33 -14 -27 -13 -16 -14)
1969/12/31/18:00:32.707,(12 46 19 -7 -9 -4 12 -5)
1969/12/31/18:00:32.708,(25 122 112 51 36 31 15 19)
1969/12/31/18:00:32.708,(-8 -55 -26 -7 -10 -23 -19 -18)
1969/12/31/18:00:32.730,(-4 -2 -10 16 13 0 -2 -14)
1969/12/31/18:00:32.730,(-5 -121 -106 -31 -7 6 -9 2)
1969/12/31/18:00:32.730,(-6 31 23 -13 -5 -7 -3 -4)
1969/12/31/18:00:32.730,(-38 -52 -81 -44 -16 -14 0 -1)
1969/12/31/18:00:32.752,(46 108 97 103 37 5 3 14)
1969/12/31/18:00:32.752,(-13 -104 -103 -24 -10 17 18 21)
1969/12/31/18:00:32.753,(21 102 46 20 0 -3 -4 -6)
1969/12/31/18:00:32.753,(-24 -82 -31 -20 -23 -32 -14 -14)
1969/12/31/18:00:32.767,(-53 -65 -115 -72 -24 -10 -20 -11)
1969/12/31/18:00:32.767,(5 91 98 91 50 25 26 -22)
1969/12/31/18:00:32.768,(55 -101 -73 -2 -7 -26 -13 14)
1969/12/31/18:00:32.768,(-21 -8 5 1 -1 28 3 -19)
1969/12/31/18:00:32.790,(-30 -48 -34 -17 -20 -19 -6 -24)
1969/12/31/18:00:32.790,(13 -32 -33 -27 -22 -26 -16 -2)
1969/12/31/18:00:32.791,(-41 -128 -128 -54 -25 -47 -30 -16)
1969/12/31/18:00:32.791,(13 127 127 61 60 78 15 -31)
1969/12/31/18:00:32.812,(28 -28 -41 -3 -6 -6 7 20)
1969/12/31/18:00:32.812,(-13 -20 -43 -16 -15 -6 -9 -3)
1969/12/31/18:00:32.813,(-1 58 95 46 20 6 2 -11)
1969/12/31/18:00:32.813,(17 -30 -53 -28 -24 -36 -22 -6)
1969/12/31/18:00:32.827,(-32 -10 17 10 8 17 15 12)
1969/12/31/18:00:32.827,(-27 -98 -32 -17 5 11 -16 -48)
1969/12/31/18:00:32.828,(-1 -120 -103 -55 -19 -5 -8 -15)
1969/12/31/18:00:32.828,(-14 127 80 43 17 -20 -20 -45)
1969/12/31/18:00:32.850,(8 32 59 36 12 22 -7 -12)
1969/12/31/18:00:32.850,(-7 -91 -45 -20 -38 -15 14 26)
1969/12/31/18:00:32.850,(17 -35 -35 -12 2 9 3 10)
1969/12/31/18:00:32.850,(-7 -38 -34 -3 -4 -34 -3 -3)
1969/12/31/18:00:32.872,(-9 -76 -52 -14 -39 -30 -24 28)
1969/12/31/18:00:32.872,(7 68 55 -22 6 37 10 31)
1969/12/31/18:00:32.873,(27 35 27 26 23 6 15 25)
1969/12/31/18:00:32.873,(26 68 14 -16 -14 22 16 13)
1969/12/31/18:00:32.887,(7 10 -2 -1 -4 -31 -26 -12)
1969/12/31/18:00:32.887,(-22 -90 -65 -19 -18 -53 -20 -11)
1969/12/31/18:00:32.888,(-38 45 -4 -11 13 36 0 -2)
1969/12/31/18:00:32.888,(24 21 69 42 15 1 11 -16)
1969/12/31/18:00:32.910,(12 18 -6 -3 4 2 10 -3)
1969/12/31/18:00:32.910,(8 -17 13 10 10 15 6 13)
1969/12/31/18:00:32.910,(-26 -53 -47 -7 9 -7 -4 1)
1969/12/31/18:00:32.910,(-33 -15 -9 -13 -10 -6 -2 -2)
1969/12/31/18:00:32.932,(-17 11 34 4 10 25 18 10)
1969/12/31/18:00:32.932,(36 60 20 20 13 -9 4 28)
1969/12/31/18:00:32.933,(-11 -14 -13 -13 -16 -5 -7 -9)
1969/12/31/18:00:32.933,(14 -13 12 14 1 7 4 19)
1969/12/31/18:00:32.947,(-21 -24 -20 -19 -2 -13 -17 -48)
1969/12/31/18:00:32.947,(-9 -4 -4 12 28 12 5 -5)
1969/12/31/18:00:32.948,(-29 -45 -70 -48 -36 15 -11 -24)
1969/12/31/18:00:32.948,(34 75 93 71 15 -20 10 25)
1969/12/31/18:00:32.970,(-15 -99 -111 -36 -4 22 3 -17)
1969/12/31/18:00:32.970,(10 122 93 27 -19 -10 15 15)
1969/12/31/18:00:32.970,(34 -21 -11 -2 2 9 -11 -14)
1969/12/31/18:00:32.970,(-43 -128 -128 -48 -4 -7 -3 -11)
1969/12/31/18:00:32.992,(17 111 45 20 -10 -50 -16 -18)
1969/12/31/18:00:32.992,(-24 -58 -4 6 14 34 16 -4)
1969/12/31/18:00:32.993,(-13 -36 -58 -32 -8 11 -8 -2)
1969/12/31/18:00:32.993,(20 87 104 54 17 -10 -7 0)
1969/12/31/18:00:33.007,(8 -103 -88 -34 -19 6 14 39)
1969/12/31/18:00:33.007,(-1 49 -60 -23 -13 -12 -3 -7)
1969/12/31/18:00:33.008,(36 73 109 41 17 1 15 17)
1969/12/31/18:00:33.008,(-17 -128 -128 -59 -13 10 2 4)
1969/12/31/18:00:33.029,(11 92 91 28 12 4 3 -3)
1969/12/31/18:00:33.029,(-17 -79 -28 -10 10 10 -11 -21)
1969/12/31/18:00:33.037,(12 50 16 17 11 -6 16 28)
1969/12/31/18:00:33.037,(13 3 -3 -12 -18 17 -2 -37)
1969/12/31/18:00:33.052,(18 -8 8 7 4 -9 3 13)
1969/12/31/18:00:33.052,(16 -63 -40 -10 -3 10 -7 2)
1969/12/31/18:00:33.053,(-18 32 18 3 0 -26 -22 -51)
1969/12/31/18:00:33.053,(-48 -37 -14 -13 -15 -14 -16 -22)
1969/12/31/18:00:33.067,(-6 -55 -53 -4 31 16 12 26)
1969/12/31/18:00:33.067,(11 64 31 2 -36 -5 1 -15)
1969/12/31/18:00:33.068,(12 -66 -28 0 -3 -14 5 21)
1969/12/31/18:00:33.068,(27 32 -58 -28 -4 -6 -3 40)
1969/12/31/18:00:33.090,(22 90 102 69 20 -4 8 8)
1969/12/31/18:00:33.090,(-5 -92 -112 -38 -13 16 -17 6)
1969/12/31/18:00:33.090,(-15 31 42 8 0 6 13 -5)
1969/12/31/18:00:33.090,(15 -10 -11 -8 -8 7 3 11)
1969/12/31/18:00:33.112,(-22 -71 -56 -24 0 0 -13 -25)
1969/12/31/18:00:33.112,(5 -71 -33 2 15 -5 -1 1)
1969/12/31/18:00:33.113,(-12 21 -31 3 11 -7 -12 -19)
1969/12/31/18:00:33.113,(5 72 84 58 23 13 36 21)
1969/12/31/18:00:33.127,(-9 6 20 -11 -26 1 -2 -12)
1969/12/31/18:00:33.127,(-16 -43 -23 3 12 2 -14 -15)
1969/12/31/18:00:33.128,(35 27 -25 -18 -12 -13 5 16)
1969/12/31/18:00:33.128,(-14 -80 -23 11 24 23 3 0)
1969/12/31/18:00:33.150,(2 32 0 6 6 10 4 17)
1969/12/31/18:00:33.150,(-33 -89 -46 -29 -26 -26 -8 -14)
1969/12/31/18:00:33.150,(1 -16 11 37 45 2 -8 2)
1969/12/31/18:00:33.150,(14 21 -40 -41 -59 -17 -44 -33)
1969/12/31/18:00:33.173,(32 10 18 -15 -29 -6 -2 19)
1969/12/31/18:00:33.173,(5 108 78 17 27 13 28 19)
1969/12/31/18:00:33.173,(-15 8 25 -8 -29 -14 -4 5)
1969/12/31/18:00:33.173,(-3 -26 -22 13 24 -8 -16 -30)
1969/12/31/18:00:33.187,(-36 -80 -34 -13 -4 9 2 -7)
1969/12/31/18:00:33.187,(11 -6 -30 -12 -12 -16 -11 4)
1969/12/31/18:00:33.188,(-13 -83 -46 -11 -4 9 7 1)
1969/12/31/18:00:33.188,(17 56 -4 -11 -4 4 23 49)
1969/12/31/18:00:33.209,(4 66 27 36 30 -10 -36 -45)
1969/12/31/18:00:33.210,(4 58 7 14 -6 -5 12 4)
1969/12/31/18:00:33.210,(40 63 110 49 14 -3 2 23)
1969/12/31/18:00:33.210,(-32 -128 -128 -58 -52 -4 -5 10)
1969/12/31/18:00:33.232,(15 60 43 -6 -2 14 7 -13)
1969/12/31/18:00:33.232,(-6 -34 -28 -8 17 7 -2 18)
1969/12/31/18:00:33.233,(-4 29 41 -2 -13 -3 -19 -34)
1969/12/31/18:00:33.233,(-34 -32 -3 12 6 -20 -6 -25)
1969/12/31/18:00:33.247,(24 25 7 0 3 4 10 11)
1969/12/31/18:00:33.247,(4 21 27 7 -3 -1 -10 -8)
1969/12/31/18:00:33.248,(-19 -91 -79 -28 -8 0 0 -1)
1969/12/31/18:00:33.248,(-20 4 40 25 44 25 7 -14)
1969/12/31/18:00:33.270,(9 55 17 -4 -21 -13 -11 -1)
1969/12/31/18:00:33.270,(8 -22 -1 -7 -7 -4 4 -3)
1969/12/31/18:00:33.270,(-16 33 4 2 -5 2 -1 -6)
1969/12/31/18:00:33.270,(31 42 45 7 6 -3 1 8)
1969/12/31/18:00:33.292,(-6 -128 -90 -18 19 18 21 39)
1969/12/31/18:00:33.292,(20 103 48 4 -19 -36 -18 -19)
1969/12/31/18:00:33.293,(-14 8 18 17 10 20 8 1)
1969/12/31/18:00:33.293,(-5 -65 -51 -27 -15 26 -9 -19)
1969/12/31/18:00:33.307,(7 26 -3 -12 -8 -2 5 10)
1969/12/31/18:00:33.307,(-8 43 54 14 -5 -7 7 0)
1969/12/31/18:00:33.308,(-4 -52 -58 -16 -14 -4 -3 2)
1969/12/31/18:00:33.308,(0 -3 8 19 27 -18 -14 -13)
1969/12/31/18:00:33.330,(-42 -95 -72 -46 -44 -7 -14 -27)
1969/12/31/18:00:33.330,(6 27 20 6 -10 -20 -17 -31)
1969/12/31/18:00:33.337,(-11 -37 -26 -14 -2 6 4 11)
1969/12/31/18:00:33.337,(29 71 61 20 1 -6 1 1)
1969/12/31/18:00:33.352,(-30 8 0 0 5 -6 -3 -11)
1969/12/31/18:00:33.352,(3 -12 -20 6 7 1 5 12)
1969/12/31/18:00:33.353,(1 -8 -19 -4 -2 -1 17 11)
1969/12/31/18:00:33.353,(-9 24 33 20 32 30 1 -8)
1969/12/31/18:00:33.366,(2 -45 -35 -12 -20 -23 -12 -9)
1969/12/31/18:00:33.367,(6 36 21 5 4 26 -3 -18)
1969/12/31/18:00:33.375,(-7 -26 -19 -10 -6 -6 0 -3)
1969/12/31/18:00:33.375,(8 20 4 2 -5 -20 7 15)
1969/12/31/18:00:33.390,(-1 32 8 3 7 10 3 -5)
1969/12/31/18:00:33.390,(-5 -72 -24 -2 19 18 10 7)
1969/12/31/18:00:33.390,(-9 4 -36 -8 8 -10 -14 -7)
1969/12/31/18:00:33.390,(-14 15 53 16 -26 -13 -7 -26)
1969/12/31/18:00:33.412,(2 -9 -32 -8 -1 8 1 11)
1969/12/31/18:00:33.412,(-17 -69 -34 2 14 -3 1 13)
1969/12/31/18:00:33.413,(-3 7 -38 -15 -20 -14 -28 -38)
1969/12/31/18:00:33.413,(7 25 20 -14 -2 11 21 28)
1969/12/31/18:00:33.426,(-5 -45 -30 -11 1 4 -8 -12)
1969/12/31/18:00:33.426,(7 45 63 21 3 1 -4 -4)
1969/12/31/18:00:33.435,(8 38 6 -5 4 19 15 19)
1969/12/31/18:00:33.435,(-42 -96 -48 2 4 -24 -19 -22)
1969/12/31/18:00:33.450,(31 70 52 11 -14 7 17 19)
1969/12/31/18:00:33.450,(11 -4 -9 -11 -2 -4 -1 1)
1969/12/31/18:00:33.450,(-14 -69 -9 -1 6 -2 2 1)
1969/12/31/18:00:33.450,(5 -9 -37 -22 -19 -23 -7 0)
1969/12/31/18:00:33.472,(-4 63 79 42 36 34 2 -7)
1969/12/31/18:00:33.472,(-11 -2 13 16 3 -4 3 3)
1969/12/31/18:00:33.473,(21 -2 8 0 -6 -9 -3 -1)
1969/12/31/18:00:33.473,(-16 -71 -71 -29 -4 11 2 5)
1969/12/31/18:00:33.487,(25 0 26 16 4 -17 13 16)
1969/12/31/18:00:33.487,(-4 1 -39 -22 -20 -19 -22 -4)
1969/12/31/18:00:33.502,(20 89 98 31 15 16 5 -4)
1969/12/31/18:00:33.502,(14 -26 -37 -4 0 -12 10 18)
1969/12/31/18:00:33.510,(-16 52 49 22 18 14 8 4)
1969/12/31/18:00:33.510,(-1 7 -4 -6 -7 11 4 7)
1969/12/31/18:00:33.510,(-20 -128 -76 -27 -26 -34 -3 9)
1969/12/31/18:00:33.510,(21 83 20 -11 -6 12 -8 -5)
1969/12/31/18:00:33.532,(-12 -31 -17 3 10 1 -2 6)
1969/12/31/18:00:33.532,(9 -60 -41 -4 1 2 13 5)
1969/12/31/18:00:33.533,(-11 45 -7 -3 15 7 0 7)
1969/12/31/18:00:33.533,(5 -32 20 7 -11 8 10 5)
1969/12/31/18:00:33.555,(-13 -6 -29 -11 -19 -24 -22 -18)
1969/12/31/18:00:33.555,(-7 -49 -29 -15 -2 14 11 -11)
1969/12/31/18:00:33.556,(-28 -36 -27 -5 -9 -26 -32 -49)
1969/12/31/18:00:33.556,(-23 24 23 11 17 -2 7 3)
1969/12/31/18:00:33.570,(37 19 -36 -12 4 9 0 -6)
1969/12/31/18:00:33.570,(-8 -37 16 6 -15 -14 -13 -15)
1969/12/31/18:00:33.570,(16 15 1 2 -13 -6 7 13)
1969/12/31/18:00:33.570,(-2 44 20 1 4 10 1 7)
1969/12/31/18:00:33.593,(-8 -82 -58 -26 -13 -14 -11 -15)
1969/12/31/18:00:33.593,(-9 10 8 -3 -12 -16 7 21)
1969/12/31/18:00:33.593,(11 -28 -16 1 13 32 5 -3)
1969/12/31/18:00:33.593,(15 51 42 7 -1 -12 -4 10)
1969/12/31/18:00:33.615,(-8 -29 -25 -4 12 11 17 24)
1969/12/31/18:00:33.615,(53 127 101 38 13 5 0 16)
1969/12/31/18:00:33.616,(-16 -69 -29 -4 -4 0 4 -2)
1969/12/31/18:00:33.616,(-10 -59 -65 -16 1 3 2 3)
1969/12/31/18:00:33.630,(-8 19 28 2 1 -5 -5 -18)
1969/12/31/18:00:33.630,(-27 -27 -26 -5 -12 -11 -11 -7)
1969/12/31/18:00:33.630,(50 75 57 11 5 13 7 20)
1969/12/31/18:00:33.630,(-54 -84 -99 -32 -5 -27 -26 -80)
1969/12/31/18:00:33.653,(1 27 62 23 -4 27 27 15)
1969/12/31/18:00:33.653,(2 -23 -16 -11 4 -1 -37 -11)
1969/12/31/18:00:33.653,(31 82 44 4 -10 -11 9 17)
1969/12/31/18:00:33.653,(-15 -92 -49 0 3 5 -8 -24)
1969/12/31/18:00:33.667,(6 11 -9 -14 1 1 21 51)
1969/12/31/18:00:33.667,(-23 -25 -33 -13 21 6 -12 -45)
1969/12/31/18:00:33.675,(19 61 38 22 -3 -4 4 25)
1969/12/31/18:00:33.675,(46 54 79 13 -13 3 9 46)
1969/12/31/18:00:33.690,(-20 -82 -67 -22 -10 -20 -22 -15)
1969/12/31/18:00:33.690,(17 20 10 -2 2 16 22 24)
1969/12/31/18:00:33.690,(-41 -122 -84 -24 1 -2 1 -10)
1969/12/31/18:00:33.690,(-3 31 -22 -5 -1 -6 3 32)
1969/12/31/18:00:33.713,(32 110 85 37 18 0 -8 -14)
1969/12/31/18:00:33.713,(-31 -82 -82 -30 -33 -15 14 -16)
1969/12/31/18:00:33.714,(20 33 12 5 9 14 -1 51)
1969/12/31/18:00:33.714,(-5 43 57 13 3 13 2 -16)
1969/12/31/18:00:33.735,(-44 -61 -63 -34 -12 -6 -16 -33)
1969/12/31/18:00:33.735,(-10 -42 -48 -15 -12 -6 2 -6)
1969/12/31/18:00:33.736,(11 77 77 36 38 36 14 -9)
1969/12/31/18:00:33.736,(-12 -79 -39 -13 -21 -3 8 7)
1969/12/31/18:00:33.750,(11 10 47 33 22 -8 -2 -2)
1969/12/31/18:00:33.750,(18 31 11 9 3 -28 -8 9)
1969/12/31/18:00:33.757,(-23 -68 -24 -23 -14 12 8 -9)
1969/12/31/18:00:33.757,(-12 53 37 10 -5 -11 -27 -46)
1969/12/31/18:00:33.773,(18 4 17 16 18 13 6 4)
1969/12/31/18:00:33.773,(-45 -108 -98 -47 -32 -8 -6 0)
1969/12/31/18:00:33.774,(28 97 53 1 7 -4 -1 1)
1969/12/31/18:00:33.774,(6 16 30 -1 -26 -7 5 -4)
1969/12/31/18:00:33.795,(5 58 51 32 13 -11 -9 -9)
1969/12/31/18:00:33.795,(-25 -47 -10 12 20 15 -2 -10)
1969/12/31/18:00:33.796,(53 33 2 3 13 -1 -2 4)
1969/12/31/18:00:33.796,(16 -12 -4 -2 12 25 22 35)
1969/12/31/18:00:33.810,(-15 -92 -36 1 -9 -16 -8 7)
1969/12/31/18:00:33.810,(35 127 98 6 -1 -3 -1 6)
1969/12/31/18:00:33.810,(-53 -127 -63 10 31 15 2 -42)
1969/12/31/18:00:33.810,(22 2 -47 -15 -6 2 24 35)
1969/12/31/18:00:33.833,(-19 55 35 -13 -24 -13 -17 -9)
1969/12/31/18:00:33.833,(-17 -25 -6 2 17 11 -7 -18)
1969/12/31/18:00:33.834,(-27 -26 -21 -5 -12 -22 -31 -36)
1969/12/31/18:00:33.834,(28 -20 9 -1 4 -4 5 20)
1969/12/31/18:00:33.855,(-22 -104 -128 -74 -34 -1 -3 -14)
1969/12/31/18:00:33.855,(50 125 120 64 27 11 16 28)
1969/12/31/18:00:33.856,(-43 -75 -44 -11 -14 -19 -19 -33)
1969/12/31/18:00:33.856,(-22 -78 -70 -18 -3 0 -11 -4)
1969/12/31/18:00:33.870,(23 39 56 28 24 19 30 44)
1969/12/31/18:00:33.870,(-4 -19 -53 -31 -5 15 -25 -17)
1969/12/31/18:00:33.870,(-3 35 20 9 -32 -13 17 -24)
1969/12/31/18:00:33.870,(-10 -18 20 13 15 -5 2 -10)
1969/12/31/18:00:33.893,(-54 -49 -18 -11 -9 -2 -21 -43)
1969/12/31/18:00:33.893,(10 -3 -28 -15 7 5 12 21)
1969/12/31/18:00:33.893,(42 83 50 16 2 5 11 26)
1969/12/31/18:00:33.893,(-25 -54 -35 -28 -31 -15 -3 -3)
1969/12/31/18:00:33.915,(14 40 8 6 4 -3 4 -6)
1969/12/31/18:00:33.915,(7 0 6 18 6 2 5 15)
1969/12/31/18:00:33.916,(-21 21 27 -2 -6 -10 -11 -9)
1969/12/31/18:00:33.916,(35 22 8 5 6 -2 6 21)
1969/12/31/18:00:33.938,(-3 -38 -40 -17 -12 -15 -10 -17)
1969/12/31/18:00:33.938,(-40 -84 -43 -19 -6 14 -1 -20)
1969/12/31/18:00:33.939,(8 -61 -60 -21 5 -20 -10 1)
1969/12/31/18:00:33.939,(7 127 93 41 -17 -11 -13 -13)
1969/12/31/18:00:33.953,(-16 -123 -73 -16 -7 -1 -5 9)
1969/12/31/18:00:33.953,(16 29 -5 -10 2 -7 1 6)
1969/12/31/18:00:33.954,(-2 1 10 18 6 -2 0 19)
1969/12/31/18:00:33.954,(17 57 32 6 0 -27 -12 0)
1969/12/31/18:00:33.975,(8 -11 -6 0 7 25 -9 -15)
1969/12/31/18:00:33.975,(-16 -36 -31 -14 -26 -17 12 23)
1969/12/31/18:00:33.976,(9 -6 41 -2 -13 -13 -3 10)
1969/12/31/18:00:33.976,(8 -35 -52 -29 8 14 -7 -3)
1969/12/31/18:00:33.990,(19 75 50 21 4 2 9 6)
1969/12/31/18:00:33.990,(-27 -3 3 10 -3 -21 -11 -19)
1969/12/31/18:00:33.997,(-10 -30 -25 -12 17 21 4 12)
1969/12/31/18:00:33.997,(5 -21 -7 13 -3 1 6 11)
1969/12/31/18:00:34.013,(5 -7 -17 -15 -10 -6 -13 -19)
1969/12/31/18:00:34.013,(10 0 -17 -3 15 12 9 7)
1969/12/31/18:00:34.013,(-33 -50 -1 -24 -18 6 13 15)
1969/12/31/18:00:34.013,(33 110 108 76 33 5 -2 -19)
1969/12/31/18:00:34.036,(47 -32 -26 4 19 15 25 53)
1969/12/31/18:00:34.036,(-11 -29 2 1 -7 -8 -27 -31)
1969/12/31/18:00:34.036,(-3 -1 -11 -7 -24 -1 -1 7)
1969/12/31/18:00:34.036,(-30 -57 -55 -36 -1 10 -14 -29)
1969/12/31/18:00:34.050,(-11 -9 2 9 14 -14 -4 -5)
1969/12/31/18:00:34.050,(7 83 39 22 -6 -10 7 -5)
1969/12/31/18:00:34.050,(14 53 62 33 25 9 -19 -13)
1969/12/31/18:00:34.050,(-32 -86 -86 -38 -12 17 0 -2)
1969/12/31/18:00:34.073,(38 127 107 32 -10 -6 14 10)
1969/12/31/18:00:34.073,(3 -28 2 1 9 8 -1 -1)
1969/12/31/18:00:34.073,(8 -44 -69 -9 12 19 23 45)
1969/12/31/18:00:34.074,(-44 -102 -23 -15 -16 -20 -20 -20)
1969/12/31/18:00:34.095,(-10 51 27 6 8 7 -1 5)
1969/12/31/18:00:34.095,(27 13 -5 11 14 0 4 -12)
1969/12/31/18:00:34.096,(6 1 1 -4 -26 -17 -17 -9)
1969/12/31/18:00:34.096,(12 -13 14 11 13 37 26 11)
1969/12/31/18:00:34.110,(-50 -117 -87 -46 -11 -8 -11 -20)
1969/12/31/18:00:34.110,(-7 10 1 7 0 3 -3 -12)
1969/12/31/18:00:34.111,(-12 -15 -22 -2 -4 1 6 -6)
1969/12/31/18:00:34.111,(23 88 25 -4 -17 -2 -5 14)
1969/12/31/18:00:34.133,(22 6 2 -6 -10 -3 -4 -3)
1969/12/31/18:00:34.133,(-8 -62 -37 -21 -3 -5 -5 0)
1969/12/31/18:00:34.134,(-31 -106 -79 -36 -1 -14 -12 -29)
1969/12/31/18:00:34.134,(26 72 25 7 -9 -9 -3 -1)
1969/12/31/18:00:34.155,(25 71 21 22 12 13 13 14)
1969/12/31/18:00:34.155,(-5 -22 32 26 28 25 7 20)
1969/12/31/18:00:34.156,(-26 -36 -20 -9 -27 -19 -4 -18)
1969/12/31/18:00:34.156,(-24 -85 -42 -22 -11 -19 -17 -6)
1969/12/31/18:00:34.170,(38 95 28 2 1 5 8 12)
1969/12/31/18:00:34.170,(1 1 -14 -6 -7 -8 3 4)
1969/12/31/18:00:34.170,(-15 36 39 26 19 3 -2 -9)
1969/12/31/18:00:34.170,(52 5 3 7 7 -4 -8 18)
1969/12/31/18:00:34.193,(-51 -74 -20 -12 -8 -1 -3 -2)
1969/12/31/18:00:34.193,(0 -34 -35 -24 -14 -2 5 2)
1969/12/31/18:00:34.194,(19 112 70 20 7 5 -4 -17)
1969/12/31/18:00:34.194,(1 3 -5 -10 -16 -5 11 10)
1969/12/31/18:00:34.216,(-31 -81 -50 3 25 -9 -14 -13)
1969/12/31/18:00:34.216,(-8 18 48 33 2 -1 -6 -6)
1969/12/31/18:00:34.217,(6 -20 -46 -19 -6 2 16 25)
1969/12/31/18:00:34.217,(-3 41 38 15 7 0 2 -4)
1969/12/31/18:00:34.238,(20 -4 -6 -12 -20 -8 3 1)
1969/12/31/18:00:34.238,(-7 -20 -6 -7 -5 1 8 2)
1969/12/31/18:00:34.239,(10 6 -6 -7 7 -7 -11 -7)
1969/12/31/18:00:34.239,(-12 -1 -14 -17 -27 -13 8 -5)
1969/12/31/18:00:34.253,(-25 -46 -12 10 11 -2 -9 -11)
1969/12/31/18:00:34.253,(36 61 22 5 10 6 10 14)
1969/12/31/18:00:34.254,(-8 -31 -7 -10 -13 -5 -8 -8)
1969/12/31/18:00:34.254,(-28 14 -2 3 28 12 -2 -7)
1969/12/31/18:00:34.275,(-3 -13 -7 -6 -21 -14 -14 -9)
1969/12/31/18:00:34.275,(10 8 6 -14 -23 5 26 24)
1969/12/31/18:00:34.277,(19 15 0 5 -3 -10 -8 0)
1969/12/31/18:00:34.277,(-26 -21 -6 9 24 15 -10 -16)
1969/12/31/18:00:34.289,(21 43 15 0 -4 2 -10 -7)
1969/12/31/18:00:34.289,(-59 -66 -15 1 9 -4 -20 -15)
1969/12/31/18:00:34.298,(30 5 -19 -45 -63 -13 -4 -5)
1969/12/31/18:00:34.298,(-14 -3 9 55 83 33 7 -8)
1969/12/31/18:00:34.313,(-39 -29 -20 -14 -27 -41 -35 -32)
1969/12/31/18:00:34.313,(40 36 19 15 9 10 8 22)
1969/12/31/18:00:34.320,(1 5 6 13 10 9 -2 -3)
1969/12/31/18:00:34.321,(-6 7 14 0 -15 -15 -2 4)
1969/12/31/18:00:34.335,(11 -3 -10 -15 -1 40 46 6)
1969/12/31/18:00:34.335,(-5 -9 -4 -2 -4 -40 -52 -13)
1969/12/31/18:00:34.337,(39 17 5 7 6 -3 15 25)
1969/12/31/18:00:34.337,(-39 -48 -28 -27 -15 4 -31 -36)
1969/12/31/18:00:34.349,(11 33 30 20 17 5 15 15)
1969/12/31/18:00:34.349,(-41 -5 -16 -21 -23 -10 -4 -30)
1969/12/31/18:00:34.358,(-11 12 24 23 26 16 13 4)
1969/12/31/18:00:34.358,(11 -34 -8 -4 -6 -9 14 16)
1969/12/31/18:00:34.373,(73 47 16 8 3 7 18 34)
1969/12/31/18:00:34.373,(-2 0 -1 2 1 -1 -7 -12)
1969/12/31/18:00:34.374,(-21 33 4 -1 5 -8 -17 -19)
1969/12/31/18:00:34.374,(32 -10 13 14 4 8 24 36)
1969/12/31/18:00:34.395,(-76 -65 -33 -27 -22 -16 -25 -47)
1969/12/31/18:00:34.396,(36 6 12 7 7 5 -6 -5)
1969/12/31/18:00:34.397,(-30 -9 -14 -6 -1 -3 -5 -15)
1969/12/31/18:00:34.397,(6 -25 -38 -21 -12 -6 2 -1)
1969/12/31/18:00:34.409,(80 101 97 44 20 12 18 52)
1969/12/31/18:00:34.409,(53 59 23 10 4 5 15 26)
1969/12/31/18:00:34.418,(-80 -85 -25 -6 -1 -3 -8 -30)
1969/12/31/18:00:34.418,(48 1 -20 -14 -11 -9 -6 4)
1969/12/31/18:00:34.433,(-13 -39 -35 -13 -4 -6 -11 -1)
1969/12/31/18:00:34.433,(6 27 1 -9 -6 0 1 -10)
1969/12/31/18:00:34.434,(2 3 18 16 10 6 8 14)
1969/12/31/18:00:34.434,(-1 13 6 0 -3 -3 0 1)
1969/12/31/18:00:34.456,(2 -13 -10 -1 2 1 3 2)
1969/12/31/18:00:34.456,(28 1 10 5 0 5 8 28)
1969/12/31/18:00:34.457,(-24 -4 -7 3 5 6 4 -23)
1969/12/31/18:00:34.457,(-20 -13 -20 -19 -19 -19 -14 9)
1969/12/31/18:00:34.469,(-21 -12 -5 -1 -2 -1 -1 -3)
1969/12/31/18:00:34.469,(-22 -19 -9 -6 -2 -1 -2 -6)
1969/12/31/18:00:34.478,(26 22 9 4 6 3 1 11)
1969/12/31/18:00:34.478,(6 14 10 2 2 3 3 -10)
1969/12/31/18:00:34.492,(-14 -15 -2 -1 -1 -3 -2 -5)
1969/12/31/18:00:34.492,(-28 -20 -10 -5 0 -2 -3 -8)
1969/12/31/18:00:34.506,(13 -7 -5 -4 -3 -3 -1 11)
1969/12/31/18:00:34.506,(-42 -1 9 5 1 -1 -3 -29)
1969/12/31/18:00:34.515,(0 -12 -17 -11 -8 -2 -2 2)
1969/12/31/18:00:34.515,(-15 -7 -7 -5 -1 -3 -5 -11)
1969/12/31/18:00:34.517,(16 -16 6 6 5 3 5 13)
1969/12/31/18:00:34.517,(7 14 1 0 -2 -1 0 5)
1969/12/31/18:00:34.538,(-24 -12 -12 -5 -2 -2 -6 -15)
1969/12/31/18:00:34.538,(6 -10 -2 -3 -2 0 7 9)
1969/12/31/18:00:34.539,(15 24 8 1 1 0 0 8)
1969/12/31/18:00:34.539,(-10 5 0 -2 -4 -6 -11 -21)
1969/12/31/18:00:34.552,(-2 -20 -16 -6 0 0 0 -1)
1969/12/31/18:00:34.552,(-5 27 26 11 2 2 1 -11)
1969/12/31/18:00:34.559,(8 -10 -14 -8 -5 -2 9 18)
1969/12/31/18:00:34.559,(-4 -1 7 1 0 -1 4 2)
1969/12/31/18:00:34.575,(0 -8 -7 -1 1 1 0 -1)
1969/12/31/18:00:34.575,(-14 -20 -30 -14 -9 -8 -10 -8)
1969/12/31/18:00:34.577,(11 4 -2 0 -2 -3 -10 -1)
1969/12/31/18:00:34.577,(4 12 17 7 5 4 6 0)
1969/12/31/18:00:34.589,(0 -25 -30 -10 -4 -2 3 4)
1969/12/31/18:00:34.589,(-17 22 20 2 -1 1 9 10)
1969/12/31/18:00:34.598,(0 -18 -13 -4 -3 -4 -8 -4)
1969/12/31/18:00:34.598,(-6 5 18 9 4 2 -7 -7)
1969/12/31/18:00:34.612,(20 20 -4 -4 -3 -7 -4 16)
1969/12/31/18:00:34.612,(-8 5 15 7 2 0 1 -11)
1969/12/31/18:00:34.619,(11 5 -5 -2 1 8 9 10)
1969/12/31/18:00:34.619,(-13 -14 -10 -7 -3 -1 5 11)
1969/12/31/18:00:34.636,(-13 1 25 7 3 2 -6 -12)
1969/12/31/18:00:34.636,(15 -10 -13 -4 -3 -1 3 16)
1969/12/31/18:00:34.637,(-6 6 8 1 -4 -10 -18 -19)
1969/12/31/18:00:34.637,(3 -17 -25 -8 -1 -2 2 16)
1969/12/31/18:00:34.658,(-3 10 12 3 -2 0 3 -8)
1969/12/31/18:00:34.658,(8 -4 -4 -1 -1 -1 -3 1)
1969/12/31/18:00:34.659,(-3 -3 -3 1 3 5 14 0)
1969/12/31/18:00:34.659,(8 3 4 -1 -2 2 6 24)
1969/12/31/18:00:34.672,(-6 26 24 7 1 -8 -13 -16)
1969/12/31/18:00:34.672,(-2 -3 1 4 3 5 1 -6)
1969/12/31/18:00:34.679,(30 6 -8 -3 3 7 16 42)
1969/12/31/18:00:34.679,(-10 -19 -19 -7 -9 -7 -7 -7)
1969/12/31/18:00:34.694,(-11 -27 -23 -12 -11 -6 -2 -8)
1969/12/31/18:00:34.694,(-2 26 19 3 2 -1 -2 -1)
1969/12/31/18:00:34.703,(-14 4 3 5 3 -1 -9 -10)
1969/12/31/18:00:34.703,(0 9 3 0 -3 -2 5 -7)
1969/12/31/18:00:34.718,(-7 -17 -13 -4 -1 4 -2 -2)
1969/12/31/18:00:34.718,(-6 -31 -24 -8 1 2 2 1)
1969/12/31/18:00:34.719,(-7 12 4 -2 -4 -7 -8 -21)
1969/12/31/18:00:34.719,(3 11 5 1 0 2 3 2)
1969/12/31/18:00:34.732,(-3 -6 -10 -6 -5 -5 -2 -1)
1969/12/31/18:00:34.732,(-3 -11 -7 -2 -3 -10 -13 -5)
1969/12/31/18:00:34.739,(0 15 19 10 7 9 -3 -6)
1969/12/31/18:00:34.739,(9 -10 -11 -7 -3 0 11 4)
1969/12/31/18:00:34.755,(1 1 3 -1 -1 -2 -5 -2)
1969/12/31/18:00:34.755,(0 -5 -8 0 4 1 -3 1)
1969/12/31/18:00:34.757,(-5 -16 -8 -8 -13 -9 -7 -9)
1969/12/31/18:00:34.757,(3 10 7 3 4 4 -2 5)
1969/12/31/18:00:34.785,(-5 0 0 0 0 -2 -5 -16)
1969/12/31/18:00:34.785,(0 -5 -8 -5 -4 -3 -5 -9)
1969/12/31/18:00:34.787,(-6 -1 9 1 -1 -1 3 -1)
1969/12/31/18:00:34.787,(1 -5 -7 -5 0 -1 1 -1)
1969/12/31/18:00:34.792,(-1 4 3 3 3 1 5 9)
1969/12/31/18:00:34.792,(-2 -10 -7 -4 -3 -1 -6 -7)
1969/12/31/18:00:34.799,(-4 -9 -7 -4 -2 -3 10 4)
1969/12/31/18:00:34.799,(-3 12 8 1 -3 -6 -17 -17)
1969/12/31/18:00:34.815,(-1 6 7 9 9 9 6 2)
1969/12/31/18:00:34.816,(0 -2 -6 -4 -6 0 1 -2)
1969/12/31/18:00:34.817,(-3 -8 4 2 0 -1 4 7)
1969/12/31/18:00:34.817,(-2 -9 -7 -1 -1 -2 -1 -2)
1969/12/31/18:00:34.838,(-2 6 0 1 -1 1 1 1)
1969/12/31/18:00:34.838,(2 3 4 2 -1 -1 2 1)
1969/12/31/18:00:34.839,(-2 0 -4 -6 -1 -4 -6 -3)
1969/12/31/18:00:34.839,(-2 -3 -3 -3 -2 -4 -9 -10)
1969/12/31/18:00:34.851,(-2 -4 4 0 0 1 10 8)
1969/12/31/18:00:34.851,(1 0 -5 -3 -4 -1 -2 -2)
1969/12/31/18:00:34.860,(0 0 -5 -2 -1 -1 -8 -9)
1969/12/31/18:00:34.861,(0 6 4 3 1 0 -3 -3)
1969/12/31/18:00:34.875,(-4 -10 -12 -3 0 -1 1 1)
1969/12/31/18:00:34.875,(1 5 3 -2 0 -3 0 0)
1969/12/31/18:00:34.877,(-3 -4 -3 -5 -3 -2 -1 -3)
1969/12/31/18:00:34.877,(2 10 9 8 5 6 5 0)
1969/12/31/18:00:34.898,(-2 -1 0 1 -2 -2 -3 0)
1969/12/31/18:00:34.898,(0 -10 -7 -1 1 2 3 2)
1969/12/31/18:00:34.899,(-2 4 -1 -2 -2 -3 -3 -3)
1969/12/31/18:00:34.899,(-2 -3 -4 -2 -2 -1 3 -2)
1969/12/31/18:00:34.922,(-8 -32 -14 -12 -7 -7 -9 -10)
1969/12/31/18:00:34.922,(5 30 17 10 4 1 1 2)
1969/12/31/18:00:34.923,(5 22 21 11 5 5 2 1)
1969/12/31/18:00:34.923,(-4 -12 -3 2 -2 -3 -6 -4)
1969/12/31/18:00:34.926,(0 3 -4 -1 -1 -3 -1 0)
1969/12/31/18:00:34.926,(-7 -32 -19 -11 -6 -3 -1 -4)
1969/12/31/18:00:34.935,(-3 -3 0 1 -3 -2 -3 -3)
1969/12/31/18:00:34.935,(2 6 1 -1 0 -1 -2 -3)
1969/12/31/18:00:34.949,(-1 7 -1 -1 0 0 -1 0)
1969/12/31/18:00:34.949,(-2 -7 -8 -5 -2 1 -1 -4)
1969/12/31/18:00:34.958,(-5 -12 -5 -4 -1 -2 -4 -2)
1969/12/31/18:00:34.958,(0 1 3 -1 1 -2 2 2)
1969/12/31/18:00:34.964,(1 8 5 2 0 0 1 0)
1969/12/31/18:00:34.964,(0 0 -2 -1 -1 -1 -2 0)
1969/12/31/18:00:34.973,(-3 -12 -7 -2 -3 0 0 -2)
1969/12/31/18:00:34.973,(-4 -1 3 -1 -1 -1 -2 -4)
1969/12/31/18:00:34.986,(2 -2 2 0 -2 -1 -2 1)
1969/12/31/18:00:34.986,(2 15 -6 10 6 3 2 1)
1969/12/31/18:00:34.995,(1 7 11 1 -1 -1 2 0)
1969/12/31/18:00:34.995,(-2 -6 -8 -2 -2 -1 -2 -2)
1969/12/31/18:00:35.009,(-3 2 9 -3 -1 1 -1 -3)
1969/12/31/18:00:35.009,(-7 -23 -11 -8 -5 -5 -4 -3)
1969/12/31/18:00:35.018,(5 7 -3 6 1 0 -1 2)
1969/12/31/18:00:35.018,(3 -1 -2 0 1 0 1 -2)
1969/12/31/18:00:35.024,(-3 2 -4 2 1 2 1 -2)
1969/12/31/18:00:35.024,(-8 -18 -7 -7 -5 -4 -4 -6)
1969/12/31/18:00:35.047,(-2 2 -8 -4 0 -1 1 2)
1969/12/31/18:00:35.047,(-3 -4 -5 -6 -3 -5 -6 -1)
1969/12/31/18:00:35.048,(5 15 11 3 -2 2 1 4)
1969/12/31/18:00:35.048,(5 7 14 8 1 0 0 1)
1969/12/31/18:00:35.062,(-6 -8 -11 -10 -7 -2 -2 -3)
1969/12/31/18:00:35.062,(7 8 2 2 -1 2 3 6)
1969/12/31/18:00:35.069,(-7 -14 -13 -3 0 -3 -1 -4)
1969/12/31/18:00:35.069,(-2 3 0 -3 -3 -5 -1 -1)
1969/12/31/18:00:35.086,(2 4 2 6 2 0 1 0)
1969/12/31/18:00:35.086,(-3 -16 -14 -5 -2 -1 2 0)
1969/12/31/18:00:35.087,(4 7 -2 -2 -1 1 -2 1)
1969/12/31/18:00:35.087,(-6 -5 2 1 -1 1 -1 -5)
1969/12/31/18:00:35.094,(-8 -12 -8 -10 -6 -5 -5 -7)
1969/12/31/18:00:35.094,(2 5 -6 -1 0 0 -1 -1)
1969/12/31/18:00:35.107,(1 4 4 0 1 -1 -2 -2)
1969/12/31/18:00:35.107,(4 4 2 -3 0 -1 1 2)
1969/12/31/18:00:35.116,(-3 -8 -6 -6 -2 0 0 -1)
1969/12/31/18:00:35.116,(-2 0 5 0 -4 -4 -4 -4)
1969/12/31/18:00:35.138,(2 1 0 7 3 -2 0 1)
1969/12/31/18:00:35.138,(0 1 1 0 -3 -1 1 -2)
1969/12/31/18:00:35.140,(-4 -7 -4 -2 -3 -3 -4 -5)
1969/12/31/18:00:35.140,(-2 -6 0 -1 1 -2 0 -1)
1969/12/31/18:00:35.144,(-6 -7 -9 -7 -4 -2 -1 -4)
1969/12/31/18:00:35.144,(5 11 9 3 1 2 1 4)
1969/12/31/18:00:35.153,(0 -5 -4 5 2 1 1 0)
1969/12/31/18:00:35.153,(3 5 6 5 1 1 1 2)
1969/12/31/18:00:35.166,(1 3 2 1 1 -2 -1 1)
1969/12/31/18:00:35.166,(-9 -12 -13 -10 -6 -2 -6 -9)
1969/12/31/18:00:35.175,(4 3 2 2 4 0 0 1)
1969/12/31/18:00:35.175,(-2 3 4 -2 -2 -2 -1 1)
1969/12/31/18:00:35.189,(1 -4 -8 -3 1 -1 1 0)
1969/12/31/18:00:35.189,(4 4 8 5 2 0 0 2)
1969/12/31/18:00:35.198,(0 -2 -3 -5 -5 -3 0 0)
1969/12/31/18:00:35.198,(-4 -3 -8 -4 2 2 -3 -2)
1969/12/31/18:00:35.204,(-1 -1 3 5 2 1 -1 -3)
1969/12/31/18:00:35.204,(0 -2 -1 0 -1 -1 0 -1)
1969/12/31/18:00:35.213,(3 4 5 0 2 1 0 3)
1969/12/31/18:00:35.213,(-10 -8 -3 -2 -1 -1 -2 -5)
1969/12/31/18:00:35.236,(-1 5 -2 -5 -3 -3 -2 -3)
1969/12/31/18:00:35.236,(2 2 4 -2 0 2 1 3)
1969/12/31/18:00:35.237,(-2 1 -2 3 -1 0 -2 -3)
1969/12/31/18:00:35.237,(0 2 4 -4 -3 -4 -3 -1)
1969/12/31/18:00:35.258,(-4 -7 -5 -14 -9 -5 -4 -4)
1969/12/31/18:00:35.258,(1 5 9 20 8 1 1 1)
1969/12/31/18:00:35.259,(3 1 4 2 1 3 2 5)
1969/12/31/18:00:35.259,(-2 -4 1 1 -1 -1 -2 -1)
1969/12/31/18:00:35.264,(0 1 4 -2 -1 -2 -2 -1)
1969/12/31/18:00:35.264,(-1 -1 0 -8 -1 -2 -2 -1)
1969/12/31/18:00:35.273,(-3 -8 -10 -5 0 -1 -1 -2)
1969/12/31/18:00:35.273,(-1 -3 -3 -7 -7 -3 -3 -6)
1969/12/31/18:00:35.286,(3 3 1 4 5 4 2 3)
1969/12/31/18:00:35.287,(1 3 2 -2 -1 0 -2 0)
1969/12/31/18:00:35.295,(-6 -7 -4 -4 -3 -2 -1 0)
1969/12/31/18:00:35.295,(-4 0 -1 -4 -3 -3 -6 -7)
1969/12/31/18:00:35.310,(0 -2 -5 -1 -3 -2 -1 0)
1969/12/31/18:00:35.311,(0 -4 1 -1 -1 0 1 2)
1969/12/31/18:00:35.318,(-1 3 2 -2 -1 -1 -1 -1)
1969/12/31/18:00:35.318,(1 -2 -3 1 1 1 2 1)
1969/12/31/18:00:35.324,(-2 -1 2 4 -1 0 0 0)
1969/12/31/18:00:35.324,(-4 -3 -5 -5 -1 -2 -2 -6)
1969/12/31/18:00:35.333,(2 2 2 0 -2 -1 -1 1)
1969/12/31/18:00:35.333,(1 -2 -1 -1 0 1 1 1)
1969/12/31/18:00:35.346,(-1 1 0 0 -1 -1 -2 -2)
1969/12/31/18:00:35.346,(0 0 0 -3 -5 -3 -1 -2)
1969/12/31/18:00:35.355,(1 1 4 8 4 1 2 2)
1969/12/31/18:00:35.355,(2 2 0 4 0 -2 0 0)
1969/12/31/18:00:35.369,(1 3 0 -1 -4 0 0 0)
1969/12/31/18:00:35.369,(-3 -7 -4 -2 -2 -3 -3 -5)
1969/12/31/18:00:35.378,(-4 -7 -4 -6 -5 0 -1 -2)
1969/12/31/18:00:35.378,(-3 -4 -4 -1 0 -2 -1 -1)
1969/12/31/18:00:35.384,(-3 -8 -8 -5 -2 -1 -1 -3)
1969/12/31/18:00:35.384,(-1 5 1 -2 0 -3 -2 -3)
1969/12/31/18:00:35.393,(-1 0 1 3 3 2 -1 -1)
1969/12/31/18:00:35.393,(0 -4 -2 0 0 1 3 4)
1969/12/31/18:00:35.407,(0 3 3 0 -2 -2 -2 -2)
1969/12/31/18:00:35.407,(-3 -7 -8 0 2 0 0 -1)
1969/12/31/18:00:35.415,(-4 -5 -3 -2 -2 -5 -4 -5)
1969/12/31/18:00:35.415,(1 4 0 -3 0 -2 -3 -1)
1969/12/31/18:00:35.429,(-4 -6 -5 -3 -5 0 -2 -1)
1969/12/31/18:00:35.429,(-2 -3 -8 -6 -2 -1 -1 1)
1969/12/31/18:00:35.438,(2 5 -1 -3 -1 -2 -2 0)
1969/12/31/18:00:35.438,(-2 2 7 6 2 1 0 -3)
1969/12/31/18:00:35.453,(3 1 4 7 3 0 1 0)
1969/12/31/18:00:35.453,(-1 -3 1 -1 0 2 2 3)
1969/12/31/18:00:35.454,(-4 -3 -3 -1 0 -1 -3 -5)
1969/12/31/18:00:35.454,(1 -1 -3 -3 -2 -1 0 0)
1969/12/31/18:00:35.467,(-1 -2 1 1 2 0 -2 -3)
1969/12/31/18:00:35.467,(1 2 0 0 -1 0 1 1)
1969/12/31/18:00:35.475,(0 1 -1 -5 -2 0 0 0)
1969/12/31/18:00:35.476,(-1 0 -2 -3 -1 0 0 -1)
1969/12/31/18:00:35.489,(1 -1 0 -2 -1 -2 0 0)
1969/12/31/18:00:35.489,(0 3 3 1 -1 0 -1 -1)
1969/12/31/18:00:35.498,(-2 -3 -4 -2 -3 -3 -2 -1)
1969/12/31/18:00:35.498,(0 0 4 4 2 1 0 -1)
1969/12/31/18:00:35.513,(-1 -3 -2 -3 -1 -2 -1 1)
1969/12/31/18:00:35.513,(-1 1 0 -1 1 -1 0 0)
1969/12/31/18:00:35.514,(0 1 2 1 -2 -1 0 -3)
1969/12/31/18:00:35.514,(-2 -2 -3 -2 -3 -2 0 0)
1969/12/31/18:00:35.535,(0 0 3 3 2 -2 -1 -1)
1969/12/31/18:00:35.535,(-2 -4 -3 -2 -2 -2 -2 1)
1969/12/31/18:00:35.537,(1 -4 -4 -5 -4 -2 -3 -3)
1969/12/31/18:00:35.537,(0 2 4 2 1 -1 -2 -4)
1969/12/31/18:00:35.550,(-3 -2 2 -1 -2 -1 0 -3)
1969/12/31/18:00:35.550,(-2 -6 -5 -5 -4 -2 -2 -3)
1969/12/31/18:00:35.557,(0 4 -2 -3 -1 0 0 -1)
1969/12/31/18:00:35.557,(3 1 4 4 1 2 -1 1)
1969/12/31/18:00:35.573,(-7 -4 -5 -3 -2 -3 -6 -8)
1969/12/31/18:00:35.573,(-1 -3 -3 2 -2 0 -1 -1)
1969/12/31/18:00:35.574,(0 2 0 -1 1 0 -1 1)
1969/12/31/18:00:35.574,(-1 -1 -5 -7 -3 -3 0 0)
1969/12/31/18:00:35.587,(0 1 2 2 2 1 1 1)
1969/12/31/18:00:35.587,(-1 0 -1 1 1 0 0 0)
1969/12/31/18:00:35.596,(0 1 5 5 5 0 1 0)
1969/12/31/18:00:35.596,(-1 -2 -2 -3 0 -1 -1 -1)
1969/12/31/18:00:35.609,(-1 -2 0 -1 -1 0 1 2)
1969/12/31/18:00:35.609,(-3 -3 -5 -4 -3 -3 0 -1)
1969/12/31/18:00:35.618,(-2 -2 -4 -4 -2 0 -1 -1)
1969/12/31/18:00:35.618,(-1 2 1 -3 -1 -1 -1 -1)
