time,.data
1969/12/31/18:00:08.325,(-1 0 0 -2 -3 -2 0 -3)
1969/12/31/18:00:08.325,(-4 -2 -2 0 0 -1 -4 -3)
1969/12/31/18:00:08.336,(1 1 0 0 -3 2 4 5)
1969/12/31/18:00:08.336,(3 1 -1 6 4 0 -2 0)
1969/12/31/18:00:08.338,(4 7 5 -4 1 3 0 2)
1969/12/31/18:00:08.338,(-1 -1 -8 6 -1 -3 -2 -1)
1969/12/31/18:00:08.356,(-4 -10 0 -4 7 4 -1 -2)
1969/12/31/18:00:08.356,(-11 -9 -8 -6 -18 -3 0 -6)
1969/12/31/18:00:08.357,(5 1 -12 -12 3 -10 -8 1)
1969/12/31/18:00:08.357,(-2 5 14 4 4 1 1 -4)
1969/12/31/18:00:08.367,(10 1 -6 17 10 6 8 10)
1969/12/31/18:00:08.367,(-4 -5 6 20 18 5 -3 -3)
1969/12/31/18:00:08.376,(-7 -3 -2 -7 -30 -6 -2 -3)
1969/12/31/18:00:08.376,(11 -5 -23 -14 10 3 2 7)
1969/12/31/18:00:08.388,(-4 -3 0 -27 -5 -9 -10 -4)
1969/12/31/18:00:08.388,(1 2 9 22 3 -1 -1 -3)
1969/12/31/18:00:08.400,(-3 2 1 -36 -30 -5 -1 -2)
1969/12/31/18:00:08.400,(0 -8 -9 7 -12 -2 5 4)
1969/12/31/18:00:08.407,(13 25 23 52 45 16 5 6)
1969/12/31/18:00:08.407,(-8 -8 -5 33 20 1 -8 -4)
1969/12/31/18:00:08.408,(-7 -4 7 40 43 12 -2 -5)
1969/12/31/18:00:08.408,(-5 0 3 -74 -43 -6 3 -2)
1969/12/31/18:00:08.419,(-1 0 -19 -34 -33 -26 -14 -6)
1969/12/31/18:00:08.419,(8 5 -1 -51 -49 -7 7 5)
1969/12/31/18:00:08.427,(11 -6 -13 26 44 13 4 8)
1969/12/31/18:00:08.427,(-10 0 31 -6 -14 -2 -1 -7)
1969/12/31/18:00:08.439,(0 -3 -40 7 -26 -20 -11 -5)
1969/12/31/18:00:08.439,(-13 -17 -4 -98 -17 -7 -6 -9)
1969/12/31/18:00:08.441,(-3 -3 34 68 -16 -8 3 4)
1969/12/31/18:00:08.441,(-3 5 37 117 92 47 12 3)
1969/12/31/18:00:08.459,(-8 2 29 26 55 39 16 3)
1969/12/31/18:00:08.459,(13 8 -20 -21 2 -4 -3 5)
1969/12/31/18:00:08.460,(-5 -11 -35 -75 -9 -16 -6 -5)
1969/12/31/18:00:08.460,(-3 -6 -25 -79 -39 -24 -13 -8)
1969/12/31/18:00:08.471,(5 6 16 49 -22 -5 7 5)
1969/12/31/18:00:08.471,(9 10 -2 56 23 11 3 5)
1969/12/31/18:00:08.478,(-11 -13 -8 -62 -37 -16 -8 -9)
1969/12/31/18:00:08.478,(-3 -5 14 33 -7 -13 -10 -3)
1969/12/31/18:00:08.490,(-4 -4 -18 -65 -27 -6 -1 -4)
1969/12/31/18:00:08.490,(-2 -8 -40 -102 -28 -18 -15 -7)
1969/12/31/18:00:08.497,(0 7 42 121 27 11 2 1)
1969/12/31/18:00:08.497,(0 2 16 26 56 11 5 2)
1969/12/31/18:00:08.510,(4 0 9 4 -22 2 5 6)
1969/12/31/18:00:08.510,(7 17 21 47 72 15 7 7)
1969/12/31/18:00:08.512,(6 1 -28 -13 -9 6 3 2)
1969/12/31/18:00:08.512,(-16 -23 -9 -19 -14 -6 -9 -7)
1969/12/31/18:00:08.522,(-6 -2 -5 -25 15 2 0 -4)
1969/12/31/18:00:08.522,(1 3 2 -32 -40 -21 -8 -2)
1969/12/31/18:00:08.530,(-1 4 -14 26 -37 -19 -6 -3)
1969/12/31/18:00:08.530,(7 4 16 37 43 21 11 9)
1969/12/31/18:00:08.542,(2 2 7 -1 4 4 3 3)
1969/12/31/18:00:08.542,(-7 -11 -21 -86 -61 -6 -4 -3)
1969/12/31/18:00:08.548,(4 8 18 58 52 19 8 3)
1969/12/31/18:00:08.548,(5 2 -25 0 -20 -13 -6 0)
1969/12/31/18:00:08.561,(-2 -5 -3 -15 2 -2 -1 -2)
1969/12/31/18:00:08.561,(-3 1 11 23 10 3 3 0)
1969/12/31/18:00:08.563,(-2 2 1 -38 -17 -4 -2 -1)
1969/12/31/18:00:08.563,(3 5 -4 13 -11 -3 -1 1)
1969/12/31/18:00:08.573,(-2 -1 -1 0 13 -2 -2 -2)
1969/12/31/18:00:08.573,(-2 -4 5 12 -12 -2 1 0)
1969/12/31/18:00:08.581,(-2 2 10 -7 0 2 1 1)
1969/12/31/18:00:08.581,(0 -1 -14 -12 1 -3 0 -1)
1969/12/31/18:00:08.594,(-4 -6 -3 -23 -16 -7 -4 -2)
1969/12/31/18:00:08.594,(1 3 9 53 11 4 3 1)
1969/12/31/18:00:08.599,(-3 -2 -6 -22 5 1 0 -1)
1969/12/31/18:00:08.599,(4 5 -5 -22 -7 -4 0 3)
1969/12/31/18:00:08.613,(-4 -3 1 10 -5 -1 -2 -4)
1969/12/31/18:00:08.613,(0 -2 5 23 9 4 2 2)
1969/12/31/18:00:08.614,(-3 -1 -1 -13 9 1 0 -1)
1969/12/31/18:00:08.614,(-2 0 -6 -18 -24 -8 -4 -2)
1969/12/31/18:00:08.625,(1 -2 -4 -1 -2 0 -2 0)
1969/12/31/18:00:08.625,(-1 0 5 15 12 2 3 1)
1969/12/31/18:00:08.631,(3 2 2 5 7 3 2 3)
1969/12/31/18:00:08.632,(-2 -2 -4 -8 -16 -5 -3 -4)
1969/12/31/18:00:08.644,(-3 -2 3 11 4 2 -1 0)
1969/12/31/18:00:08.644,(-3 -2 5 14 10 4 1 1)
1969/12/31/18:00:08.650,(4 1 -11 -29 -10 -3 -3 -1)
1969/12/31/18:00:08.650,(4 6 2 -6 -7 4 2 -1)
1969/12/31/18:00:08.664,(-1 -2 0 -1 1 -2 -2 -1)
1969/12/31/18:00:08.664,(-3 -4 1 21 9 7 7 8)
1969/12/31/18:00:08.665,(4 3 4 -14 -5 1 -1 -2)
1969/12/31/18:00:08.665,(-4 -6 -9 1 -3 -9 -12 -9)
1969/12/31/18:00:08.683,(1 1 -3 -28 -8 -4 -1 0)
1969/12/31/18:00:08.684,(2 8 9 36 14 3 -2 -1)
1969/12/31/18:00:08.685,(-2 -8 -9 -16 -6 0 5 5)
1969/12/31/18:00:08.685,(-1 0 1 0 -2 2 4 6)
1969/12/31/18:00:08.696,(-8 -8 8 15 11 8 3 -6)
1969/12/31/18:00:08.696,(1 1 -6 -15 -11 -6 -3 -2)
1969/12/31/18:00:08.702,(3 5 2 8 7 -2 -6 -4)
1969/12/31/18:00:08.702,(22 14 0 -7 -2 6 10 14)
1969/12/31/18:00:08.715,(-14 -12 -11 -5 -9 -12 -10 -4)
1969/12/31/18:00:08.715,(-25 -15 0 7 9 7 10 -6)
1969/12/31/18:00:08.716,(2 3 2 -8 -7 -8 -13 -13)
1969/12/31/18:00:08.716,(17 19 2 -10 -9 -7 -5 1)
1969/12/31/18:00:08.727,(16 4 -4 0 -5 -4 -4 6)
1969/12/31/18:00:08.727,(5 4 2 1 3 -1 -1 6)
1969/12/31/18:00:08.734,(-36 -23 -5 -8 -1 1 -9 -32)
1969/12/31/18:00:08.734,(-16 -13 -9 -14 -5 -5 -1 -3)
1969/12/31/18:00:08.747,(10 6 4 0 -29 -1 3 3)
1969/12/31/18:00:08.747,(2 2 1 12 33 3 -7 -4)
1969/12/31/18:00:08.753,(8 11 9 20 21 16 17 16)
1969/12/31/18:00:08.753,(-5 -9 -2 3 4 1 -4 -4)
1969/12/31/18:00:08.767,(-10 0 -3 -7 -5 -8 -10 -8)
1969/12/31/18:00:08.767,(-23 -21 -3 -3 -16 -5 2 -7)
1969/12/31/18:00:08.768,(32 24 3 -5 0 2 6 11)
1969/12/31/18:00:08.768,(-3 11 2 -1 6 3 7 -5)
1969/12/31/18:00:08.786,(-19 -27 -7 -1 4 -2 -1 9)
1969/12/31/18:00:08.786,(66 43 7 -3 -7 -1 -7 -4)
1969/12/31/18:00:08.787,(-1 -25 -12 -3 2 -2 1 9)
1969/12/31/18:00:08.787,(-22 -8 -10 -7 -16 -12 -14 -22)
1969/12/31/18:00:08.797,(-8 3 4 5 9 8 10 5)
1969/12/31/18:00:08.797,(3 0 -5 -27 -15 -2 0 5)
1969/12/31/18:00:08.805,(-4 7 -7 -30 -11 -9 -2 2)
1969/12/31/18:00:08.805,(18 1 4 5 5 4 6 10)
1969/12/31/18:00:08.818,(-10 -1 12 42 10 9 1 -9)
1969/12/31/18:00:08.818,(-9 -3 18 73 58 18 8 2)
1969/12/31/18:00:08.820,(-4 -1 8 28 8 5 -2 -4)
1969/12/31/18:00:08.820,(-8 -7 1 -10 2 -2 -2 5)
1969/12/31/18:00:08.837,(-31 -15 -13 -39 -21 -17 -9 -22)
1969/12/31/18:00:08.837,(65 46 -4 -43 -35 -5 14 43)
1969/12/31/18:00:08.838,(-34 -39 -17 -18 -13 -6 0 -11)
1969/12/31/18:00:08.838,(36 16 -5 0 5 0 -1 19)
1969/12/31/18:00:08.849,(-18 7 -6 -10 -8 -13 -23 -40)
1969/12/31/18:00:08.849,(-48 -56 8 5 4 19 36 23)
1969/12/31/18:00:08.856,(60 47 -7 -6 -8 -23 -28 3)
1969/12/31/18:00:08.856,(-12 -3 -5 -1 -4 -3 -8 -11)
1969/12/31/18:00:08.869,(39 14 7 4 7 6 12 25)
1969/12/31/18:00:08.869,(-23 -5 0 3 -4 -3 -8 -15)
1969/12/31/18:00:08.871,(-17 -10 6 -7 -10 5 13 1)
1969/12/31/18:00:08.871,(-13 -11 3 18 11 7 2 -4)
1969/12/31/18:00:08.888,(19 16 3 -1 16 6 4 6)
1969/12/31/18:00:08.888,(-21 -15 -9 7 -15 -11 -13 -21)
1969/12/31/18:00:08.890,(-8 -9 -10 -24 -2 -1 4 6)
1969/12/31/18:00:08.890,(28 23 9 26 -12 -3 2 10)
1969/12/31/18:00:08.900,(-50 -48 13 58 20 1 0 -8)
1969/12/31/18:00:08.900,(47 47 12 10 39 16 10 19)
1969/12/31/18:00:08.908,(5 4 -2 -11 -13 -4 -10 -11)
1969/12/31/18:00:08.908,(-29 -12 -9 -20 -3 6 14 1)
1969/12/31/18:00:08.921,(4 -15 -12 -26 -15 -13 -10 1)
1969/12/31/18:00:08.921,(8 -4 -12 -14 -21 -10 -8 4)
1969/12/31/18:00:08.921,(-30 -16 -1 -3 -1 -2 -1 -17)
1969/12/31/18:00:08.921,(-6 -11 1 -3 3 3 2 -5)
1969/12/31/18:00:08.939,(24 20 4 3 2 4 8 14)
1969/12/31/18:00:08.940,(-21 -9 -9 -20 -20 -11 -12 -19)
1969/12/31/18:00:08.941,(2 1 -9 -39 -17 -6 3 12)
1969/12/31/18:00:08.941,(0 -4 1 9 -17 -3 -4 -4)
1969/12/31/18:00:08.951,(4 15 9 32 37 17 7 2)
1969/12/31/18:00:08.951,(0 3 5 19 35 14 -3 -4)
1969/12/31/18:00:08.959,(-9 -4 20 90 40 15 6 0)
1969/12/31/18:00:08.959,(-7 -5 6 5 11 -3 -3 -2)
1969/12/31/18:00:08.972,(23 17 -11 -51 -31 -10 4 10)
1969/12/31/18:00:08.972,(-16 -17 -14 -32 -33 -16 -10 -12)
1969/12/31/18:00:08.974,(-4 -12 -2 1 -10 -3 2 5)
1969/12/31/18:00:08.974,(19 29 13 33 14 0 -4 -2)
1969/12/31/18:00:08.997,(6 -5 -1 3 -2 -1 -1 -2)
1969/12/31/18:00:08.997,(-52 -32 -2 -16 -4 0 -5 -28)
1969/12/31/18:00:08.999,(58 40 4 -19 -7 1 12 30)
1969/12/31/18:00:08.999,(-6 -16 -16 -28 -18 -10 -11 -6)
1969/12/31/18:00:09.003,(4 2 -3 -5 4 9 7 5)
1969/12/31/18:00:09.003,(2 0 -7 -13 10 0 -6 -2)
1969/12/31/18:00:09.016,(-9 -2 -10 -18 -27 -4 2 0)
1969/12/31/18:00:09.016,(-4 -5 22 96 34 7 7 4)
1969/12/31/18:00:09.023,(8 10 14 18 8 -2 -2 1)
1969/12/31/18:00:09.023,(-6 -4 4 14 -6 -1 -3 -5)
1969/12/31/18:00:09.024,(-14 -7 2 -28 17 6 -2 -9)
1969/12/31/18:00:09.024,(4 -1 -9 -19 -2 3 3 6)
1969/12/31/18:00:09.042,(6 4 -3 2 3 1 -2 -2)
1969/12/31/18:00:09.042,(6 3 1 -2 -11 -9 -5 0)
1969/12/31/18:00:09.044,(-17 -3 2 -12 -7 0 4 -2)
1969/12/31/18:00:09.044,(3 -4 -9 -35 -12 -3 -4 -5)
1969/12/31/18:00:09.054,(-12 -19 -4 4 2 0 -1 -5)
1969/12/31/18:00:09.054,(9 20 0 0 -3 -3 -1 5)
1969/12/31/18:00:09.068,(-3 0 -2 5 -1 -4 -9 -7)
1969/12/31/18:00:09.068,(17 9 0 -7 -2 -4 -3 5)
1969/12/31/18:00:09.074,(-20 -10 -9 -24 -39 -31 -19 -21)
1969/12/31/18:00:09.074,(0 -10 -5 -3 -10 -1 -2 -2)
1969/12/31/18:00:09.075,(-2 3 6 24 48 29 14 6)
1969/12/31/18:00:09.075,(-7 -2 1 8 30 15 3 1)
1969/12/31/18:00:09.093,(11 7 0 -5 -1 3 6 8)
1969/12/31/18:00:09.093,(8 6 7 17 -19 -13 -3 1)
1969/12/31/18:00:09.095,(-8 -7 2 12 -19 -16 -10 -9)
1969/12/31/18:00:09.095,(-8 -7 1 -7 11 4 1 -3)
1969/12/31/18:00:09.113,(3 2 -5 -13 9 8 3 4)
1969/12/31/18:00:09.113,(-8 -6 -3 1 3 4 3 -4)
1969/12/31/18:00:09.115,(3 0 1 -5 -2 -1 -3 -2)
1969/12/31/18:00:09.115,(5 1 -4 -17 -20 -6 1 2)
1969/12/31/18:00:09.126,(-6 -1 2 10 -2 2 7 8)
1969/12/31/18:00:09.126,(-11 -12 -3 0 5 -2 -2 -2)
1969/12/31/18:00:09.127,(13 9 4 10 4 0 -3 0)
1969/12/31/18:00:09.127,(-9 -15 -5 -17 -13 -10 -7 -8)
1969/12/31/18:00:09.145,(3 5 -1 -11 -13 -4 2 -1)
1969/12/31/18:00:09.145,(-6 -3 -3 5 8 6 2 4)
1969/12/31/18:00:09.146,(-5 -6 -7 1 11 10 5 2)
1969/12/31/18:00:09.146,(-9 -3 6 23 9 2 1 -2)
1969/12/31/18:00:09.157,(-2 0 6 17 13 7 -1 0)
1969/12/31/18:00:09.157,(5 0 1 0 6 0 3 3)
1969/12/31/18:00:09.164,(-2 1 1 -10 -12 -6 -2 0)
1969/12/31/18:00:09.164,(10 6 -6 -16 -9 -4 -2 5)
1969/12/31/18:00:09.177,(-6 -3 -7 -10 -4 0 0 -2)
1969/12/31/18:00:09.177,(4 6 8 19 -11 -4 -4 -5)
1969/12/31/18:00:09.178,(11 10 7 19 10 5 6 9)
1969/12/31/18:00:09.178,(-12 -10 -1 11 -1 0 -4 -8)
1969/12/31/18:00:09.196,(2 -2 -9 -51 7 -1 0 1)
1969/12/31/18:00:09.196,(14 9 -3 19 -6 1 3 7)
1969/12/31/18:00:09.198,(-13 -14 5 -1 -11 -7 -7 -11)
1969/12/31/18:00:09.198,(3 6 4 9 7 3 1 -2)
1969/12/31/18:00:09.208,(1 -2 -3 -8 -8 2 0 4)
1969/12/31/18:00:09.208,(5 1 -8 -23 0 1 2 4)
1969/12/31/18:00:09.216,(1 -2 -5 2 -3 -7 -7 -5)
1969/12/31/18:00:09.216,(-6 -3 2 2 2 -1 2 0)
1969/12/31/18:00:09.228,(-5 0 0 -1 13 4 -4 -10)
1969/12/31/18:00:09.228,(-2 -1 1 7 -6 -4 -3 -2)
1969/12/31/18:00:09.229,(-2 -1 -2 -11 -24 -11 -1 2)
1969/12/31/18:00:09.229,(-2 -4 -16 -67 -15 0 -1 -2)
1969/12/31/18:00:09.248,(7 4 5 51 22 12 5 5)
1969/12/31/18:00:09.248,(2 6 20 67 33 11 4 1)
1969/12/31/18:00:09.249,(-1 -2 10 35 24 6 -3 -4)
1969/12/31/18:00:09.249,(0 0 -2 -9 -9 -7 3 4)
1969/12/31/18:00:09.259,(-4 -5 -14 -57 -36 -13 -7 -4)
1969/12/31/18:00:09.259,(8 2 -15 -41 -13 -10 -2 3)
1969/12/31/18:00:09.267,(-1 1 6 23 -2 -3 -6 -3)
1969/12/31/18:00:09.267,(-4 -2 4 8 8 3 6 1)
1969/12/31/18:00:09.279,(0 -6 1 14 0 -1 -3 2)
1969/12/31/18:00:09.279,(3 2 -5 -25 -2 -2 -5 -6)
1969/12/31/18:00:09.285,(-2 5 4 2 12 16 26 19)
1969/12/31/18:00:09.285,(11 7 2 9 -3 -7 -10 -6)
1969/12/31/18:00:09.298,(-4 -2 2 18 3 -1 -3 -3)
1969/12/31/18:00:09.298,(-4 -6 -2 -7 7 2 -1 -2)
1969/12/31/18:00:09.300,(-2 -4 -11 -31 -13 -6 -3 -2)
1969/12/31/18:00:09.300,(-1 0 -3 -2 -11 -2 2 2)
1969/12/31/18:00:09.310,(-1 0 3 14 3 1 3 2)
1969/12/31/18:00:09.310,(8 5 2 -5 -3 -3 1 5)
1969/12/31/18:00:09.318,(-6 -6 -9 -35 -13 -6 -7 -10)
1969/12/31/18:00:09.318,(-4 -2 0 21 -8 -2 -3 -2)
1969/12/31/18:00:09.331,(-2 1 10 38 14 2 -4 -5)
1969/12/31/18:00:09.331,(-5 -2 6 8 19 6 2 -2)
1969/12/31/18:00:09.332,(9 3 1 4 -3 2 2 8)
1969/12/31/18:00:09.332,(-14 -14 -9 -24 0 -4 -7 -10)
1969/12/31/18:00:09.350,(17 13 -8 -19 -25 -5 4 8)
1969/12/31/18:00:09.350,(2 2 -1 -5 -11 -4 -1 3)
1969/12/31/18:00:09.350,(-16 -8 -2 0 12 -8 -14 -17)
1969/12/31/18:00:09.350,(-12 -7 -4 -31 -15 3 1 -1)
1969/12/31/18:00:09.369,(-3 -3 -3 27 9 -1 -3 -6)
1969/12/31/18:00:09.369,(1 -6 -13 -33 -10 -5 -7 -3)
1969/12/31/18:00:09.369,(-3 -1 7 48 9 -1 1 1)
1969/12/31/18:00:09.369,(-4 6 11 18 19 3 -2 -4)
1969/12/31/18:00:09.381,(2 0 0 -37 -12 2 6 6)
1969/12/31/18:00:09.381,(6 4 -3 -6 7 0 1 2)
1969/12/31/18:00:09.388,(-2 -3 -4 -3 -4 2 1 0)
1969/12/31/18:00:09.388,(-4 -4 4 12 1 -1 -2 0)
1969/12/31/18:00:09.401,(-4 5 0 -10 4 -4 -3 -1)
1969/12/31/18:00:09.401,(-22 -26 -3 -6 -10 -6 -7 -12)
1969/12/31/18:00:09.401,(10 16 -6 -21 -10 -1 -5 -3)
1969/12/31/18:00:09.401,(1 1 -9 -24 -13 0 -1 0)
1969/12/31/18:00:09.420,(-4 -1 6 22 4 -5 -2 -1)
1969/12/31/18:00:09.420,(-17 -8 4 14 9 1 -3 -6)
1969/12/31/18:00:09.421,(29 13 1 -3 3 4 10 18)
1969/12/31/18:00:09.421,(3 4 -2 1 -2 -1 3 2)
1969/12/31/18:00:09.434,(11 3 -2 -3 2 3 2 6)
1969/12/31/18:00:09.434,(-12 -7 2 8 -8 -3 -3 -5)
1969/12/31/18:00:09.435,(0 -2 3 -1 4 -1 -2 -3)
1969/12/31/18:00:09.435,(5 2 -2 5 3 0 3 4)
1969/12/31/18:00:09.452,(-5 -7 -3 -5 0 0 0 -2)
1969/12/31/18:00:09.452,(-11 1 1 10 1 -2 -4 -9)
1969/12/31/18:00:09.452,(26 16 0 -16 -5 2 0 6)
1969/12/31/18:00:09.452,(-8 -4 -3 -1 -3 -2 -4 -9)
1969/12/31/18:00:09.473,(-8 -8 1 14 1 -2 -2 -6)
1969/12/31/18:00:09.473,(-14 -11 -3 -9 -4 -5 -5 -3)
1969/12/31/18:00:09.474,(47 45 17 8 13 22 31 34)
1969/12/31/18:00:09.474,(-5 -18 -3 3 0 -2 0 3)
1969/12/31/18:00:09.484,(0 25 4 1 4 4 3 4)
1969/12/31/18:00:09.484,(29 6 -3 -9 -7 -3 -2 4)
1969/12/31/18:00:09.485,(-26 -23 1 4 1 -4 -4 -4)
1969/12/31/18:00:09.485,(-9 -2 -3 8 1 -7 -8 -8)
1969/12/31/18:00:09.504,(-23 -20 -2 -1 5 6 0 -15)
1969/12/31/18:00:09.504,(17 16 -2 -11 -7 1 8 14)
1969/12/31/18:00:09.505,(-23 -28 -11 -4 -3 -7 -12 -14)
1969/12/31/18:00:09.505,(-12 -5 1 -8 -8 0 -7 -12)
1969/12/31/18:00:09.523,(-3 -7 -2 17 7 -5 -8 -7)
1969/12/31/18:00:09.523,(3 17 7 7 8 5 3 -1)
1969/12/31/18:00:09.523,(-17 -23 -7 0 -1 -5 -6 -5)
1969/12/31/18:00:09.523,(3 2 1 -6 -5 -2 0 1)
1969/12/31/18:00:09.535,(17 17 4 -11 -9 -4 3 12)
1969/12/31/18:00:09.535,(5 17 4 10 6 4 2 0)
1969/12/31/18:00:09.536,(-38 -38 -17 -20 -17 -17 -14 -16)
1969/12/31/18:00:09.536,(23 15 7 6 15 14 9 2)
1969/12/31/18:00:09.555,(-26 -34 -9 -3 -8 -12 -18 -22)
1969/12/31/18:00:09.555,(69 33 -2 -2 0 2 12 43)
1969/12/31/18:00:09.555,(-49 -23 -3 2 -1 -3 -16 -41)
1969/12/31/18:00:09.555,(-31 -45 -5 9 -1 -4 -2 -2)
1969/12/31/18:00:09.574,(30 35 4 -4 4 12 20 27)
1969/12/31/18:00:09.574,(-26 -25 -8 -8 -5 -6 -12 -21)
1969/12/31/18:00:09.575,(24 20 1 -12 -6 8 16 20)
1969/12/31/18:00:09.575,(20 11 0 5 8 0 5 11)
1969/12/31/18:00:09.587,(-14 -6 8 27 9 3 -4 -10)
1969/12/31/18:00:09.587,(-16 -6 0 -2 3 -1 -1 -5)
1969/12/31/18:00:09.588,(31 28 3 0 -5 -1 6 16)
1969/12/31/18:00:09.588,(-17 -13 7 4 2 0 -2 -4)
1969/12/31/18:00:09.606,(17 18 -5 -18 -8 -6 -6 3)
1969/12/31/18:00:09.606,(-32 -41 -4 2 1 3 4 -12)
1969/12/31/18:00:09.606,(41 42 3 -4 2 3 8 17)
1969/12/31/18:00:09.606,(5 12 -3 -5 1 1 -1 3)
1969/12/31/18:00:09.625,(4 -9 -9 -9 -7 -9 -9 -3)
1969/12/31/18:00:09.625,(-7 -4 9 9 6 15 18 9)
1969/12/31/18:00:09.626,(-64 -84 -10 -4 -8 -10 -19 -28)
1969/12/31/18:00:09.626,(43 65 -1 -7 -4 -6 0 13)
1969/12/31/18:00:09.638,(0 -16 1 -5 -1 6 8 7)
1969/12/31/18:00:09.638,(3 20 -5 -19 -18 -5 -4 0)
1969/12/31/18:00:09.639,(-2 -5 2 32 16 -1 2 1)
1969/12/31/18:00:09.639,(-10 1 7 7 17 1 -2 -5)
1969/12/31/18:00:09.658,(-14 -24 2 1 -16 -3 -4 -8)
1969/12/31/18:00:09.658,(9 7 0 -1 5 -1 -1 1)
1969/12/31/18:00:09.658,(7 11 4 -3 -6 2 3 4)
1969/12/31/18:00:09.658,(-3 -17 -7 -6 -6 -4 -2 -3)
1969/12/31/18:00:09.684,(19 32 4 -15 8 9 17 18)
1969/12/31/18:00:09.684,(-14 -7 1 7 1 4 1 -9)
1969/12/31/18:00:09.684,(7 25 3 2 -1 -4 -6 -9)
1969/12/31/18:00:09.684,(-26 -41 -7 -2 -2 -2 -5 -4)
1969/12/31/18:00:09.689,(15 7 -8 -7 -2 -1 -2 -4)
1969/12/31/18:00:09.689,(4 -2 -2 4 -2 -6 -7 4)
1969/12/31/18:00:09.696,(8 3 1 1 5 2 3 6)
1969/12/31/18:00:09.696,(3 -4 -3 -5 -8 -2 2 4)
1969/12/31/18:00:09.709,(-17 -7 4 7 4 -2 -6 -13)
1969/12/31/18:00:09.709,(5 3 0 1 -3 -7 -10 -3)
1969/12/31/18:00:09.709,(3 8 1 -6 0 2 3 0)
1969/12/31/18:00:09.709,(5 5 -4 -30 -16 -5 -1 4)
1969/12/31/18:00:09.728,(-3 -3 4 36 10 1 -3 -3)
1969/12/31/18:00:09.728,(-2 4 3 14 18 2 0 -4)
1969/12/31/18:00:09.729,(-9 -14 -2 5 -1 2 2 1)
1969/12/31/18:00:09.729,(8 -2 0 -5 -5 1 6 7)
1969/12/31/18:00:09.741,(15 12 -4 -14 0 1 0 8)
1969/12/31/18:00:09.741,(-24 -2 -3 -14 -6 -2 -7 -25)
1969/12/31/18:00:09.741,(9 -2 0 3 -1 -6 -8 -2)
1969/12/31/18:00:09.741,(-16 1 -1 -4 -8 -7 -8 -16)
1969/12/31/18:00:09.760,(35 5 -6 -6 3 6 13 30)
1969/12/31/18:00:09.760,(-9 -15 3 15 9 5 3 3)
1969/12/31/18:00:09.760,(15 21 -2 2 9 9 13 8)
1969/12/31/18:00:09.760,(-5 6 5 8 -1 0 -4 -9)
1969/12/31/18:00:09.779,(-30 -19 -5 -13 -9 -13 -13 -15)
1969/12/31/18:00:09.779,(22 18 0 -3 -9 3 6 10)
1969/12/31/18:00:09.780,(-14 -8 2 5 10 -2 -6 -7)
1969/12/31/18:00:09.780,(4 1 -2 -4 -18 -4 -4 -2)
1969/12/31/18:00:09.792,(9 13 0 0 1 5 13 14)
1969/12/31/18:00:09.792,(-18 -19 8 12 17 8 1 -7)
1969/12/31/18:00:09.793,(-5 1 -3 -4 -5 -2 -4 -11)
1969/12/31/18:00:09.793,(8 6 -1 4 8 2 6 15)
1969/12/31/18:00:09.812,(-11 -8 -4 -9 -9 -6 -13 -19)
1969/12/31/18:00:09.812,(14 6 -5 -15 -15 -2 7 13)
1969/12/31/18:00:09.812,(-5 -4 5 8 7 11 7 -5)
1969/12/31/18:00:09.812,(-3 15 -2 2 1 -1 -7 -14)
1969/12/31/18:00:09.830,(7 4 1 -7 1 4 7 8)
1969/12/31/18:00:09.830,(-4 -2 -3 4 -2 -5 -5 -7)
1969/12/31/18:00:09.831,(-17 -13 -4 -1 -6 -10 -11 -6)
1969/12/31/18:00:09.831,(-2 -4 4 5 2 1 1 -7)
1969/12/31/18:00:09.843,(-18 -10 -4 -3 0 -5 -6 -13)
1969/12/31/18:00:09.843,(20 10 -4 -5 -1 -3 -7 9)
1969/12/31/18:00:09.844,(4 -4 -4 -13 -10 -2 1 3)
1969/12/31/18:00:09.844,(14 21 11 15 9 5 8 9)
1969/12/31/18:00:09.863,(-4 -4 -3 -6 -6 -2 1 -1)
1969/12/31/18:00:09.863,(2 -4 0 -2 0 7 14 17)
1969/12/31/18:00:09.863,(-6 -2 -1 -2 -4 5 12 4)
1969/12/31/18:00:09.863,(23 16 11 13 12 -1 -6 17)
1969/12/31/18:00:09.882,(-37 -25 -7 -5 -13 -19 -29 -33)
1969/12/31/18:00:09.882,(3 -3 -3 -13 -5 0 3 -1)
1969/12/31/18:00:09.883,(79 61 11 13 22 37 51 78)
1969/12/31/18:00:09.883,(-12 -12 -4 -1 -1 -2 -7 -21)
1969/12/31/18:00:09.894,(33 26 0 -6 -3 -2 -1 14)
1969/12/31/18:00:09.894,(-38 -28 -9 -23 -25 -17 -25 -37)
1969/12/31/18:00:09.895,(-19 -20 -6 11 14 -6 -5 -7)
1969/12/31/18:00:09.895,(-7 -8 1 14 4 4 10 6)
1969/12/31/18:00:09.914,(25 16 4 -7 7 14 17 22)
1969/12/31/18:00:09.914,(8 5 -1 13 -3 -2 2 4)
1969/12/31/18:00:09.915,(-27 -9 7 0 -18 -18 -21 -25)
1969/12/31/18:00:09.915,(20 0 -8 4 20 12 10 20)
1969/12/31/18:00:09.933,(-17 -14 -1 2 0 -2 -4 -17)
1969/12/31/18:00:09.933,(2 3 -3 -14 -2 -1 1 4)
1969/12/31/18:00:09.934,(-23 -18 -5 -9 -17 -17 -23 -26)
1969/12/31/18:00:09.934,(-63 -60 -15 -19 -19 -20 -14 -23)
1969/12/31/18:00:09.947,(51 24 14 12 10 4 -1 11)
1969/12/31/18:00:09.947,(7 6 -5 -3 7 6 4 1)
1969/12/31/18:00:09.953,(14 16 -3 -3 -6 -4 -2 6)
1969/12/31/18:00:09.953,(-29 -33 -14 -5 -4 -6 -15 -22)
1969/12/31/18:00:09.965,(-19 -10 5 7 3 5 12 4)
1969/12/31/18:00:09.965,(4 9 7 8 -2 -5 -1 3)
1969/12/31/18:00:09.965,(-17 -21 -4 2 2 -4 -18 -22)
1969/12/31/18:00:09.965,(43 43 11 -4 5 14 27 36)
1969/12/31/18:00:09.984,(-11 -11 -6 -4 -7 -3 1 -1)
1969/12/31/18:00:09.984,(-11 -7 -1 4 -2 -8 -12 -14)
1969/12/31/18:00:09.985,(11 4 1 9 8 7 9 9)
1969/12/31/18:00:09.985,(4 6 6 9 8 8 5 0)
1969/12/31/18:00:09.997,(-45 -43 -10 6 -6 -22 -36 -27)
1969/12/31/18:00:09.997,(-22 -5 -3 1 0 -6 -10 -25)
1969/12/31/18:00:09.998,(54 41 14 -6 13 24 28 34)
1969/12/31/18:00:09.998,(-20 -20 -11 -6 -11 -7 -12 -18)
1969/12/31/18:00:10.017,(31 19 7 -3 0 7 12 13)
1969/12/31/18:00:10.017,(-9 -13 -5 1 -1 -2 0 3)
1969/12/31/18:00:10.017,(-15 -7 -10 -12 -9 -12 -18 -15)
1969/12/31/18:00:10.017,(-6 -8 -1 3 -1 -3 -6 -11)
1969/12/31/18:00:10.036,(-3 9 6 -3 1 7 13 8)
1969/12/31/18:00:10.036,(25 15 -1 -14 -6 7 13 20)
1969/12/31/18:00:10.037,(-8 1 1 5 -5 -9 -10 -10)
1969/12/31/18:00:10.037,(13 12 6 6 13 9 10 12)
1969/12/31/18:00:10.048,(-28 -40 -4 11 4 -1 -3 -8)
1969/12/31/18:00:10.048,(-12 21 -6 6 1 -3 -1 -2)
1969/12/31/18:00:10.049,(57 19 6 -5 3 6 7 33)
1969/12/31/18:00:10.049,(-16 -13 -9 -12 -13 -8 -8 -12)
1969/12/31/18:00:10.068,(-5 9 -2 2 -2 -3 -9 -13)
1969/12/31/18:00:10.068,(7 -22 12 -1 10 25 35 28)
1969/12/31/18:00:10.068,(-8 21 -3 -7 -7 -13 -19 -8)
1969/12/31/18:00:10.068,(16 9 -2 -3 -6 -4 -5 -5)
1969/12/31/18:00:10.088,(9 4 -3 -15 -2 6 8 6)
1969/12/31/18:00:10.088,(-20 -19 -1 7 -9 -16 -18 -15)
1969/12/31/18:00:10.089,(-4 -4 -2 13 13 11 15 7)
1969/12/31/18:00:10.089,(35 21 10 -3 4 16 19 30)
1969/12/31/18:00:10.099,(-24 -9 -6 2 0 -13 -14 -16)
1969/12/31/18:00:10.100,(30 24 3 -3 3 8 7 10)
1969/12/31/18:00:10.107,(-39 -48 -3 6 -1 -5 -5 -13)
1969/12/31/18:00:10.107,(2 8 -8 0 -5 -6 -6 -3)
1969/12/31/18:00:10.119,(7 21 4 6 7 8 14 15)
1969/12/31/18:00:10.119,(-21 -8 0 -5 -6 -15 -16 -22)
1969/12/31/18:00:10.119,(-8 -6 0 -5 -8 -1 5 -3)
1969/12/31/18:00:10.119,(-12 -22 -11 -1 4 5 3 7)
1969/12/31/18:00:10.139,(11 28 0 -12 -15 -11 -12 -8)
1969/12/31/18:00:10.139,(35 21 11 9 12 9 9 16)
1969/12/31/18:00:10.140,(8 20 -3 -10 -10 -9 -5 -2)
1969/12/31/18:00:10.140,(2 4 7 -1 0 3 10 10)
1969/12/31/18:00:10.150,(-24 -16 -2 -6 -3 1 2 -11)
1969/12/31/18:00:10.150,(24 17 -6 -21 6 4 5 17)
1969/12/31/18:00:10.158,(-23 -25 -2 26 -10 -6 -6 -17)
1969/12/31/18:00:10.158,(2 14 13 27 15 -2 -4 -3)
1969/12/31/18:00:10.171,(11 1 8 23 11 9 9 7)
1969/12/31/18:00:10.171,(-50 -36 -8 0 2 -12 -23 -33)
1969/12/31/18:00:10.171,(0 -26 -7 -27 -4 6 5 10)
1969/12/31/18:00:10.171,(7 17 3 -9 -11 2 8 0)
1969/12/31/18:00:10.190,(1 -10 -8 -11 -5 -5 -9 -9)
1969/12/31/18:00:10.190,(0 1 -8 -4 -5 -1 -4 0)
1969/12/31/18:00:10.191,(-16 -14 -8 -7 -5 -7 -14 -14)
1969/12/31/18:00:10.191,(5 2 0 1 1 6 7 7)
1969/12/31/18:00:10.202,(-28 -30 -11 -17 -10 -10 -8 -17)
1969/12/31/18:00:10.202,(14 10 8 15 5 6 7 13)
1969/12/31/18:00:10.209,(0 13 4 1 2 0 0 -4)
1969/12/31/18:00:10.209,(-9 -6 1 2 -3 -11 -15 -14)
1969/12/31/18:00:10.222,(21 19 2 6 6 10 14 19)
1969/12/31/18:00:10.222,(-15 -11 3 11 0 -3 -6 -9)
1969/12/31/18:00:10.222,(23 6 -3 -2 5 1 -6 6)
1969/12/31/18:00:10.222,(10 37 2 -10 -8 -5 -3 0)
1969/12/31/18:00:10.242,(-4 -12 -8 -11 -6 -5 -10 -5)
1969/12/31/18:00:10.242,(5 13 4 0 -2 3 4 -2)
1969/12/31/18:00:10.243,(-31 -24 -4 -7 -5 -6 -4 -16)
1969/12/31/18:00:10.243,(-16 -11 -6 -8 -10 -13 -18 -14)
1969/12/31/18:00:10.254,(19 8 2 2 9 12 12 18)
1969/12/31/18:00:10.254,(14 -2 -5 -1 -4 -6 -3 10)
1969/12/31/18:00:10.260,(10 41 5 -8 -6 -2 1 4)
1969/12/31/18:00:10.260,(-20 -22 -7 -20 -16 -1 -2 -8)
1969/12/31/18:00:10.273,(-2 1 -3 -11 -7 -8 -3 -1)
1969/12/31/18:00:10.273,(-16 -14 -3 12 -2 -5 -9 -12)
1969/12/31/18:00:10.274,(31 19 17 44 30 23 27 32)
1969/12/31/18:00:10.274,(5 0 13 23 16 2 -2 -1)
1969/12/31/18:00:10.293,(13 24 11 12 6 11 14 19)
1969/12/31/18:00:10.293,(-5 -12 -12 -27 -13 -8 -15 -19)
1969/12/31/18:00:10.294,(-29 -28 -18 -23 -19 -15 -15 -17)
1969/12/31/18:00:10.294,(54 55 9 -1 0 8 16 27)
1969/12/31/18:00:10.304,(-42 -52 -10 -6 -8 -13 -19 -26)
1969/12/31/18:00:10.304,(2 11 19 15 16 18 27 21)
1969/12/31/18:00:10.312,(60 62 5 -7 -3 -1 2 27)
1969/12/31/18:00:10.312,(-35 -39 -19 -9 -7 -15 -27 -38)
1969/12/31/18:00:10.324,(-4 -1 13 15 16 19 26 18)
1969/12/31/18:00:10.324,(-7 2 7 8 -6 -9 -12 -10)
1969/12/31/18:00:10.331,(1 -13 0 -6 6 8 11 11)
1969/12/31/18:00:10.331,(24 14 -1 -4 0 3 9 13)
1969/12/31/18:00:10.344,(10 16 -1 -1 -9 -10 -10 -4)
1969/12/31/18:00:10.344,(-25 -23 -11 -1 -6 -10 -10 -14)
1969/12/31/18:00:10.345,(-41 -40 -2 -8 0 -1 -12 -35)
1969/12/31/18:00:10.345,(-23 -25 -6 -6 -2 -2 0 -4)
1969/12/31/18:00:10.356,(23 -3 -8 5 8 9 8 12)
1969/12/31/18:00:10.356,(-11 -1 -1 -3 -4 -7 -4 3)
1969/12/31/18:00:10.363,(-49 -28 -2 2 -4 -5 -16 -55)
1969/12/31/18:00:10.363,(8 4 -4 -2 3 -1 -6 5)
1969/12/31/18:00:10.376,(-30 -22 -2 1 -10 -14 -20 -28)
1969/12/31/18:00:10.376,(16 -14 1 -2 13 18 18 23)
1969/12/31/18:00:10.377,(22 25 -2 0 -1 2 6 7)
1969/12/31/18:00:10.377,(-43 -19 2 5 -1 0 -4 -18)
1969/12/31/18:00:10.396,(6 -5 -1 1 3 4 4 4)
1969/12/31/18:00:10.396,(15 6 -6 -15 -9 2 4 8)
1969/12/31/18:00:10.396,(1 4 4 4 7 5 7 12)
1969/12/31/18:00:10.396,(3 -14 -3 -4 -1 1 0 2)
1969/12/31/18:00:10.415,(2 7 9 17 7 -3 -5 -2)
1969/12/31/18:00:10.415,(2 22 -5 4 -1 -5 -3 -5)
1969/12/31/18:00:10.415,(16 -2 -6 -4 -1 0 1 12)
1969/12/31/18:00:10.415,(-10 -8 -7 -8 -7 -8 -10 -12)
1969/12/31/18:00:10.427,(1 5 -1 -6 0 7 10 9)
1969/12/31/18:00:10.427,(-17 -20 -4 -5 -8 -10 -11 -17)
1969/12/31/18:00:10.427,(-30 -45 -3 1 -4 -4 -5 -11)
1969/12/31/18:00:10.427,(82 74 16 7 12 17 34 63)
1969/12/31/18:00:10.447,(12 25 4 -5 -4 1 -1 -4)
1969/12/31/18:00:10.447,(-7 -9 -8 2 -3 -7 -14 -13)
1969/12/31/18:00:10.447,(-4 -4 -4 -7 -6 -1 0 1)
1969/12/31/18:00:10.447,(-26 -23 3 4 -4 -5 -8 -15)
1969/12/31/18:00:10.466,(32 27 6 0 7 10 15 23)
1969/12/31/18:00:10.466,(17 18 2 -5 1 1 5 11)
1969/12/31/18:00:10.467,(2 3 -6 -18 -10 -4 -4 0)
1969/12/31/18:00:10.467,(-16 -15 -7 6 -8 -5 -2 -8)
1969/12/31/18:00:10.479,(-28 -23 -3 7 2 -14 -16 -17)
1969/12/31/18:00:10.479,(42 32 9 16 23 13 13 26)
1969/12/31/18:00:10.479,(-51 -38 8 18 7 -5 -19 -32)
1969/12/31/18:00:10.479,(62 36 15 0 20 35 48 57)
1969/12/31/18:00:10.498,(-9 -17 -13 -13 -14 -5 -9 -6)
1969/12/31/18:00:10.498,(-10 -11 -6 -8 -11 -5 -6 -4)
1969/12/31/18:00:10.499,(-29 -26 -6 -11 -12 -14 -11 -14)
1969/12/31/18:00:10.499,(81 87 25 -2 3 12 31 71)
1969/12/31/18:00:10.517,(-33 -33 -10 -4 -4 -7 -13 -22)
1969/12/31/18:00:10.517,(-15 -23 1 2 2 3 -2 -7)
1969/12/31/18:00:10.518,(0 10 -3 3 -3 -4 -1 2)
1969/12/31/18:00:10.518,(-35 -34 -10 -3 -7 -16 -19 -28)
1969/12/31/18:00:10.530,(34 32 5 -1 5 8 16 26)
1969/12/31/18:00:10.530,(7 14 -1 -4 -3 -4 -5 -4)
1969/12/31/18:00:10.530,(-12 0 4 7 3 4 2 -4)
1969/12/31/18:00:10.530,(-63 -68 -19 -7 -9 -17 -25 -40)
1969/12/31/18:00:10.550,(25 -13 -5 0 5 10 8 4)
1969/12/31/18:00:10.550,(39 42 20 9 10 15 25 36)
1969/12/31/18:00:10.550,(0 -3 -4 -1 -1 -4 -7 1)
1969/12/31/18:00:10.550,(-8 -8 0 2 2 -4 -12 -16)
1969/12/31/18:00:10.568,(-29 -20 -3 -3 -6 -4 -2 -5)
1969/12/31/18:00:10.568,(1 -5 0 -5 -2 2 5 5)
1969/12/31/18:00:10.570,(32 25 2 -4 -3 -1 7 16)
1969/12/31/18:00:10.570,(-27 -23 -9 -20 -17 -5 -8 -18)
1969/12/31/18:00:10.580,(-20 -6 -8 -17 -8 -16 -16 -16)
1969/12/31/18:00:10.580,(16 16 4 35 20 11 12 12)
1969/12/31/18:00:10.588,(10 16 19 47 26 9 1 4)
1969/12/31/18:00:10.588,(-15 -21 3 18 4 -1 -7 -11)
1969/12/31/18:00:10.601,(4 17 -4 -13 -10 -1 0 -8)
1969/12/31/18:00:10.601,(-30 -24 -16 -33 -22 -14 -17 -26)
1969/12/31/18:00:10.602,(3 -12 -5 -22 -3 8 13 13)
1969/12/31/18:00:10.602,(1 1 -13 -9 -9 -13 -11 -4)
1969/12/31/18:00:10.620,(42 65 17 3 -2 3 6 10)
1969/12/31/18:00:10.620,(-17 -25 -13 -8 -5 -7 -13 -15)
1969/12/31/18:00:10.621,(-13 -26 -10 -1 -6 -4 -5 -6)
1969/12/31/18:00:10.621,(14 22 9 3 8 13 20 15)
1969/12/31/18:00:10.632,(-2 -7 -4 1 4 1 -3 3)
1969/12/31/18:00:10.632,(-13 0 6 8 4 4 7 1)
1969/12/31/18:00:10.639,(10 8 -3 -13 -5 -3 -2 1)
1969/12/31/18:00:10.639,(-33 -25 -9 -1 -7 -10 -14 -23)
1969/12/31/18:00:10.652,(7 3 8 -8 -8 3 8 11)
1969/12/31/18:00:10.652,(5 5 6 26 20 3 2 3)
1969/12/31/18:00:10.653,(7 3 -3 -1 1 -1 0 5)
1969/12/31/18:00:10.653,(-8 -4 -1 1 1 1 -4 -7)
1969/12/31/18:00:10.672,(7 8 5 0 1 2 3 5)
1969/12/31/18:00:10.672,(-8 -35 -7 -16 -15 -9 -11 -10)
1969/12/31/18:00:10.673,(45 65 8 -7 -1 10 27 40)
1969/12/31/18:00:10.673,(-24 -19 -9 4 1 -11 -21 -32)
1969/12/31/18:00:10.684,(6 -3 4 8 8 9 8 12)
1969/12/31/18:00:10.684,(-31 -30 -4 -7 -9 -7 -10 -17)
1969/12/31/18:00:10.689,(19 9 -6 -19 -7 -4 1 10)
1969/12/31/18:00:10.689,(-4 -5 5 12 3 1 -2 -6)
1969/12/31/18:00:10.703,(-17 -8 -5 0 -3 -7 -6 -7)
1969/12/31/18:00:10.703,(16 18 -2 -14 4 2 4 8)
1969/12/31/18:00:10.704,(-17 -15 -3 7 -19 -10 -10 -17)
1969/12/31/18:00:10.704,(20 9 4 13 25 13 14 16)
1969/12/31/18:00:10.722,(-14 -15 2 12 9 -1 -4 -9)
1969/12/31/18:00:10.722,(-1 5 1 1 4 4 3 3)
1969/12/31/18:00:10.727,(-12 -10 -8 -12 -5 -1 -6 -13)
1969/12/31/18:00:10.727,(-8 -4 -3 -10 -13 -4 -2 -5)
1969/12/31/18:00:10.735,(23 19 0 3 3 -3 5 14)
1969/12/31/18:00:10.735,(-16 -12 4 0 -3 3 -3 -10)
1969/12/31/18:00:10.740,(12 36 13 7 7 12 20 19)
1969/12/31/18:00:10.740,(-14 -18 -13 -4 -4 -6 -11 -16)
1969/12/31/18:00:10.755,(-6 -14 -7 -9 -4 -7 -10 -3)
1969/12/31/18:00:10.755,(1 4 -5 -6 -18 -1 -2 -4)
1969/12/31/18:00:10.756,(-2 -9 -6 -22 -27 -11 -4 -1)
1969/12/31/18:00:10.756,(0 -4 6 27 17 1 1 2)
1969/12/31/18:00:10.780,(-13 -5 9 33 27 9 -1 -11)
1969/12/31/18:00:10.780,(11 8 5 6 15 11 9 10)
1969/12/31/18:00:10.781,(-16 -15 -2 4 6 1 -6 -13)
1969/12/31/18:00:10.781,(21 16 -5 -24 -19 1 11 17)
1969/12/31/18:00:10.786,(1 -3 -5 -29 -18 -2 2 3)
1969/12/31/18:00:10.786,(4 6 -1 12 -4 -4 -3 -1)
1969/12/31/18:00:10.793,(0 -4 0 13 10 -8 -8 -5)
1969/12/31/18:00:10.793,(1 1 -3 -6 -1 -7 -4 0)
1969/12/31/18:00:10.806,(-18 -15 -3 11 -4 -6 -9 -12)
1969/12/31/18:00:10.806,(3 0 -3 -14 -10 -4 0 -1)
1969/12/31/18:00:10.807,(5 7 8 -2 5 6 2 -1)
1969/12/31/18:00:10.807,(-6 -23 -3 2 4 5 -1 0)
1969/12/31/18:00:10.825,(35 43 -6 -10 -4 -5 0 12)
1969/12/31/18:00:10.825,(-25 -15 -5 -4 -8 -9 -14 -26)
1969/12/31/18:00:10.827,(-32 -26 -11 -1 -3 -6 -7 -9)
1969/12/31/18:00:10.827,(1 2 0 -4 4 1 -3 -12)
1969/12/31/18:00:10.837,(-13 -33 -5 4 -3 -2 -6 -2)
1969/12/31/18:00:10.837,(10 4 2 -2 5 7 10 12)
1969/12/31/18:00:10.845,(0 4 -4 2 -4 -14 -17 -12)
1969/12/31/18:00:10.845,(-7 -8 -5 -3 5 10 12 12)
1969/12/31/18:00:10.857,(-29 -13 5 5 2 8 7 -14)
1969/12/31/18:00:10.857,(-7 21 0 -4 -6 -14 -18 -22)
1969/12/31/18:00:10.858,(39 -5 0 4 14 11 9 22)
1969/12/31/18:00:10.858,(-10 -3 1 -4 -8 -7 -6 -3)
1969/12/31/18:00:10.876,(21 12 2 -4 -2 0 6 11)
1969/12/31/18:00:10.876,(-26 -15 1 7 -1 -8 -7 -9)
1969/12/31/18:00:10.878,(25 20 -2 -7 6 10 13 15)
1969/12/31/18:00:10.878,(16 22 8 -4 -6 -4 -2 4)
1969/12/31/18:00:10.888,(-24 -23 -14 -17 -7 -6 -7 -13)
1969/12/31/18:00:10.888,(14 10 -6 -46 -26 -6 2 7)
1969/12/31/18:00:10.896,(-6 -3 4 24 5 3 3 -4)
1969/12/31/18:00:10.896,(-1 0 15 70 42 12 1 2)
1969/12/31/18:00:10.908,(-3 7 20 39 15 6 1 -4)
1969/12/31/18:00:10.908,(3 -5 10 5 3 -2 2 6)
1969/12/31/18:00:10.914,(-5 0 -8 -42 -24 -12 -9 -7)
1969/12/31/18:00:10.914,(12 18 26 -8 -5 11 13 10)
1969/12/31/18:00:10.927,(0 6 -1 1 11 24 11 1)
1969/12/31/18:00:10.927,(22 -3 -56 -21 -4 -8 1 16)
1969/12/31/18:00:10.929,(-30 -34 -22 -44 -27 -39 -29 -21)
1969/12/31/18:00:10.929,(-19 -2 21 -45 -29 -9 -10 -15)
1969/12/31/18:00:10.939,(24 33 20 90 23 5 9 17)
1969/12/31/18:00:10.939,(6 -3 -7 5 14 6 7 6)
1969/12/31/18:00:10.947,(-15 -26 -87 -39 10 -10 -11 -11)
1969/12/31/18:00:10.947,(-21 -31 -12 -14 -27 -21 -16 -12)
1969/12/31/18:00:10.959,(-11 2 54 -8 -1 10 6 -4)
1969/12/31/18:00:10.959,(13 22 21 56 33 22 15 12)
1969/12/31/18:00:10.965,(10 19 46 16 3 20 12 5)
1969/12/31/18:00:10.965,(17 21 12 -21 -14 -2 5 9)
1969/12/31/18:00:10.979,(14 8 27 30 12 8 7 10)
1969/12/31/18:00:10.979,(8 15 8 -22 -38 0 0 2)
1969/12/31/18:00:10.980,(7 -7 -34 21 27 2 3 5)
1969/12/31/18:00:10.980,(-7 -21 -62 -104 -20 -14 -11 -5)
1969/12/31/18:00:10.991,(-18 -25 -38 34 16 -12 -11 -12)
1969/12/31/18:00:10.991,(-22 -14 40 23 23 5 -1 -12)
1969/12/31/18:00:10.998,(-5 15 35 44 3 13 5 -2)
1969/12/31/18:00:10.998,(18 19 12 27 10 4 12 14)
1969/12/31/18:00:11.010,(2 0 -8 -61 -26 -12 -5 0)
1969/12/31/18:00:11.010,(6 -7 -26 -27 -23 -13 -5 3)
1969/12/31/18:00:11.016,(-8 -6 14 4 -7 -2 -1 -5)
1969/12/31/18:00:11.016,(6 12 19 30 10 6 3 2)
1969/12/31/18:00:11.030,(-3 -9 -31 -38 -12 -6 -5 -1)
1969/12/31/18:00:11.030,(-3 -4 -3 5 2 5 2 -2)
1969/12/31/18:00:11.032,(6 6 19 -2 -3 4 7 6)
1969/12/31/18:00:11.032,(1 3 -2 20 8 8 3 0)
1969/12/31/18:00:11.050,(-1 -5 -17 -3 10 -8 -12 -7)
1969/12/31/18:00:11.050,(-8 -17 -21 -12 -9 -14 -5 -3)
1969/12/31/18:00:11.051,(-13 -3 9 1 0 -6 -6 -8)
1969/12/31/18:00:11.051,(1 3 1 5 -2 7 5 1)
1969/12/31/18:00:11.062,(9 10 19 -3 -3 6 6 5)
1969/12/31/18:00:11.062,(5 6 -9 -1 5 1 -3 1)
1969/12/31/18:00:11.068,(-4 -4 4 -30 -13 0 0 -1)
1969/12/31/18:00:11.068,(6 9 0 48 19 3 1 1)
1969/12/31/18:00:11.081,(-6 -16 -20 -5 6 -2 -3 -2)
1969/12/31/18:00:11.081,(-5 0 21 12 14 4 1 0)
1969/12/31/18:00:11.083,(4 7 8 15 4 6 4 2)
1969/12/31/18:00:11.083,(4 6 2 -18 -10 6 3 3)
1969/12/31/18:00:11.093,(7 0 -18 -18 -10 -2 1 5)
1969/12/31/18:00:11.093,(-11 -17 -9 6 7 -11 -7 -6)
1969/12/31/18:00:11.101,(-7 0 10 9 0 2 -1 -4)
1969/12/31/18:00:11.101,(0 0 2 -13 1 -3 2 0)
1969/12/31/18:00:11.113,(3 2 -15 -8 -17 -6 -2 -3)
1969/12/31/18:00:11.113,(3 5 13 -1 3 7 3 3)
1969/12/31/18:00:11.120,(2 1 -4 7 7 6 3 0)
1969/12/31/18:00:11.121,(0 -5 -5 0 4 -11 -8 -1)
1969/12/31/18:00:11.133,(-7 2 9 -21 -29 -6 -3 -6)
1969/12/31/18:00:11.133,(7 4 2 21 29 8 4 6)
1969/12/31/18:00:11.134,(-3 0 -4 -11 -8 -2 -1 -1)
1969/12/31/18:00:11.134,(6 4 -2 11 -3 0 2 4)
1969/12/31/18:00:11.145,(-12 -12 -2 0 11 0 -4 -6)
1969/12/31/18:00:11.145,(0 -2 -12 -47 -22 2 4 0)
1969/12/31/18:00:11.152,(3 1 -4 33 -1 -5 -3 2)
1969/12/31/18:00:11.152,(-3 -6 7 31 18 -1 -2 1)
1969/12/31/18:00:11.164,(-1 1 5 -13 -3 -3 1 1)
1969/12/31/18:00:11.165,(-5 1 1 0 -9 -2 0 -3)
1969/12/31/18:00:11.170,(4 1 1 -18 -2 0 2 3)
1969/12/31/18:00:11.170,(-2 0 -33 -45 -29 -1 1 -3)
1969/12/31/18:00:11.184,(8 -1 14 60 15 -6 -3 5)
1969/12/31/18:00:11.184,(-16 -13 -10 -51 -9 -8 -4 -10)
1969/12/31/18:00:11.186,(10 8 -6 10 9 6 6 5)
1969/12/31/18:00:11.186,(-2 -6 21 54 7 -2 0 0)
1969/12/31/18:00:11.204,(-3 -1 -3 -29 6 9 5 -1)
1969/12/31/18:00:11.204,(7 3 -13 -22 -4 7 4 4)
1969/12/31/18:00:11.205,(-6 -3 6 35 7 -14 -11 -6)
1969/12/31/18:00:11.205,(-7 -2 7 5 8 3 1 -2)
1969/12/31/18:00:11.216,(-2 3 -2 -20 -19 -5 2 -1)
1969/12/31/18:00:11.216,(6 7 3 8 -4 -1 -1 2)
1969/12/31/18:00:11.222,(6 -7 -37 -61 -24 -7 0 5)
1969/12/31/18:00:11.223,(6 -1 -15 15 14 7 2 2)
1969/12/31/18:00:11.235,(8 7 13 24 4 2 2 7)
1969/12/31/18:00:11.235,(-12 -6 16 21 5 -3 -7 -10)
1969/12/31/18:00:11.237,(-1 5 20 8 6 5 6 0)
1969/12/31/18:00:11.237,(-4 -6 -7 -20 -11 -7 -4 -3)
1969/12/31/18:00:11.255,(-5 -3 -4 -10 6 3 0 -3)
1969/12/31/18:00:11.255,(7 4 0 14 1 -3 0 2)
1969/12/31/18:00:11.256,(-7 -5 10 2 1 1 -3 -6)
1969/12/31/18:00:11.256,(8 7 -11 -17 -6 0 3 5)
1969/12/31/18:00:11.267,(-5 -9 -14 -8 -2 -2 -2 -4)
1969/12/31/18:00:11.267,(1 3 4 8 -5 -3 -1 2)
1969/12/31/18:00:11.275,(-4 -3 2 7 2 0 -1 -2)
1969/12/31/18:00:11.275,(-4 -2 1 -6 5 2 0 -3)
1969/12/31/18:00:11.287,(3 1 -4 -8 -5 -1 1 3)
1969/12/31/18:00:11.287,(1 3 6 18 4 0 -2 -1)
1969/12/31/18:00:11.288,(-5 -3 0 -4 -1 -1 -2 -4)
1969/12/31/18:00:11.288,(-6 -1 2 -4 1 -3 -5 -5)
1969/12/31/18:00:11.306,(1 -6 -11 -2 -8 -4 1 2)
1969/12/31/18:00:11.306,(0 -1 3 4 -1 -1 1 -1)
1969/12/31/18:00:11.307,(3 0 -4 -8 1 1 0 1)
1969/12/31/18:00:11.307,(-2 1 7 -2 -3 1 0 -3)
1969/12/31/18:00:11.318,(1 -3 1 7 12 4 3 2)
1969/12/31/18:00:11.318,(-6 -2 1 4 -2 -4 -2 -2)
1969/12/31/18:00:11.331,(0 -8 -26 -25 -19 -2 2 0)
1969/12/31/18:00:11.331,(8 7 17 37 32 14 6 8)
1969/12/31/18:00:11.345,(-8 1 10 -4 2 -1 -6 -6)
1969/12/31/18:00:11.345,(3 2 5 13 4 3 1 2)
1969/12/31/18:00:11.346,(-2 1 4 -3 3 1 0 -3)
1969/12/31/18:00:11.346,(1 -5 -15 -14 -10 -5 -3 -1)
1969/12/31/18:00:11.358,(-1 1 -5 -8 -7 -3 -2 -1)
1969/12/31/18:00:11.358,(1 0 -1 -3 -3 -1 2 1)
1969/12/31/18:00:11.359,(5 5 3 4 -1 1 3 5)
1969/12/31/18:00:11.359,(-2 -3 -4 -6 0 -3 -5 -2)
1969/12/31/18:00:11.376,(-2 -2 0 -1 0 -2 -5 -3)
1969/12/31/18:00:11.376,(-2 -1 -5 -9 -7 -3 -2 0)
1969/12/31/18:00:11.378,(2 0 2 10 4 0 -1 0)
1969/12/31/18:00:11.378,(-5 -4 1 1 2 2 2 -3)
1969/12/31/18:00:11.389,(-5 -1 3 -7 -4 -3 -5 -5)
1969/12/31/18:00:11.389,(2 0 -4 -3 -5 -1 1 0)
1969/12/31/18:00:11.391,(0 -2 -3 -1 -3 -5 -3 0)
1969/12/31/18:00:11.391,(0 0 -7 -5 -4 0 1 1)
1969/12/31/18:00:11.409,(-1 -4 3 10 12 3 0 -2)
1969/12/31/18:00:11.409,(1 5 14 8 3 7 4 0)
1969/12/31/18:00:11.410,(0 1 10 17 4 3 2 0)
1969/12/31/18:00:11.410,(0 -3 -8 -10 3 -2 -3 0)
1969/12/31/18:00:11.421,(3 1 -11 -7 -6 -1 2 3)
1969/12/31/18:00:11.421,(-3 -4 -4 1 0 -5 -4 -2)
1969/12/31/18:00:11.429,(0 -6 -3 -5 -5 -2 2 4)
1969/12/31/18:00:11.429,(-1 12 5 -1 -5 -3 -5 -9)
1969/12/31/18:00:11.441,(11 10 9 5 7 13 20 20)
1969/12/31/18:00:11.441,(-21 -19 -18 -15 -11 -17 -23 -23)
1969/12/31/18:00:11.442,(1 -4 -4 -3 -1 -3 -1 3)
1969/12/31/18:00:11.442,(-2 -5 -6 -15 -23 -15 -3 -3)
1969/12/31/18:00:11.460,(4 2 5 2 -37 -2 3 5)
1969/12/31/18:00:11.460,(9 5 8 24 70 29 12 9)
1969/12/31/18:00:11.465,(4 7 12 14 23 12 5 2)
1969/12/31/18:00:11.465,(3 -3 -2 6 12 6 2 6)
1969/12/31/18:00:11.472,(-9 -5 -6 -18 -18 -14 -10 -11)
1969/12/31/18:00:11.472,(4 2 1 -5 -29 -12 -4 3)
1969/12/31/18:00:11.480,(-7 -2 -1 -3 -1 -5 -6 -9)
1969/12/31/18:00:11.480,(1 1 1 -4 -3 0 0 1)
1969/12/31/18:00:11.492,(-5 -4 -7 -6 -6 -6 -4 -4)
1969/12/31/18:00:11.492,(0 -8 -3 1 -4 1 4 3)
1969/12/31/18:00:11.494,(6 11 4 2 8 2 1 3)
1969/12/31/18:00:11.494,(-6 -5 -1 -4 -8 1 -1 -7)
1969/12/31/18:00:11.512,(-7 -9 -7 1 8 -1 -7 -10)
1969/12/31/18:00:11.512,(5 6 -1 -5 -4 -3 2 7)
1969/12/31/18:00:11.513,(-1 -5 -3 2 -3 1 1 -1)
1969/12/31/18:00:11.513,(4 -1 3 1 -1 -2 -2 3)
1969/12/31/18:00:11.523,(-1 0 -2 -6 0 -6 -6 -5)
1969/12/31/18:00:11.523,(3 2 1 4 -4 -2 -1 2)
1969/12/31/18:00:11.531,(-4 -2 6 0 3 7 4 1)
1969/12/31/18:00:11.531,(-5 -5 -1 5 10 6 -1 -3)
1969/12/31/18:00:11.543,(-3 -1 1 2 14 2 -1 -1)
1969/12/31/18:00:11.543,(0 3 -1 -4 -13 -3 2 2)
1969/12/31/18:00:11.545,(2 1 -5 -3 -7 -4 1 2)
1969/12/31/18:00:11.545,(-3 -2 -1 -3 1 -1 -3 -3)
1969/12/31/18:00:11.569,(1 0 -2 -2 -5 -5 -2 -1)
1969/12/31/18:00:11.569,(9 2 -2 -2 -6 -2 2 8)
1969/12/31/18:00:11.571,(-4 2 6 5 5 4 -3 -5)
1969/12/31/18:00:11.571,(-13 -11 -5 -2 -3 -4 -7 -9)
1969/12/31/18:00:11.574,(1 -2 -7 -4 -1 -1 0 1)
1969/12/31/18:00:11.574,(1 1 0 -2 0 -1 -1 -2)
1969/12/31/18:00:11.583,(3 1 0 0 -1 -4 0 4)
1969/12/31/18:00:11.583,(5 3 0 0 -1 -1 3 5)
1969/12/31/18:00:11.594,(0 1 1 1 3 2 -2 0)
1969/12/31/18:00:11.594,(-4 -3 0 1 3 1 -3 -1)
1969/12/31/18:00:11.596,(-3 -1 -3 -5 -6 -5 -1 -3)
1969/12/31/18:00:11.596,(2 2 -1 -3 -4 -3 0 1)
1969/12/31/18:00:11.614,(1 -1 -1 2 4 0 -1 -1)
1969/12/31/18:00:11.614,(-2 0 -1 -2 0 1 0 -2)
1969/12/31/18:00:11.615,(-3 -2 1 -1 -4 -2 -2 -4)
1969/12/31/18:00:11.615,(0 0 -3 -4 -4 0 0 2)
1969/12/31/18:00:11.625,(0 2 1 3 5 1 0 1)
1969/12/31/18:00:11.625,(-4 -2 1 -1 -3 -1 -1 -3)
1969/12/31/18:00:11.640,(0 0 -2 -1 -2 -2 -1 -1)
1969/12/31/18:00:11.640,(2 0 -5 -5 -4 -2 -1 2)
1969/12/31/18:00:11.646,(2 0 0 6 4 4 1 -1)
1969/12/31/18:00:11.646,(-4 -5 -2 3 7 0 -1 -2)
1969/12/31/18:00:11.647,(-11 -8 3 -3 -2 -2 -6 -6)
1969/12/31/18:00:11.647,(-2 0 1 -1 -1 -2 -1 -1)
1969/12/31/18:00:11.671,(-1 1 -1 -3 -6 -3 0 -2)
1969/12/31/18:00:11.671,(4 4 -2 1 -1 0 3 5)
1969/12/31/18:00:11.673,(4 1 -3 2 4 1 0 4)
1969/12/31/18:00:11.673,(0 0 2 -2 -2 1 1 1)
1969/12/31/18:00:11.677,(-1 -2 -2 -2 -1 -2 1 -1)
1969/12/31/18:00:11.677,(-3 1 1 2 -1 -1 -3 -4)
1969/12/31/18:00:11.684,(1 -1 -1 -2 -4 -2 -1 1)
1969/12/31/18:00:11.685,(2 2 0 1 -1 -1 2 3)
1969/12/31/18:00:11.697,(-2 -1 2 1 2 1 -1 -1)
1969/12/31/18:00:11.697,(-2 -3 -1 -2 -4 -2 -1 -4)
1969/12/31/18:00:11.699,(1 2 0 0 1 0 0 -1)
1969/12/31/18:00:11.699,(1 0 -1 -2 -1 -1 -1 -3)
1969/12/31/18:00:11.717,(0 -2 -3 -1 0 -1 1 0)
1969/12/31/18:00:11.717,(0 1 1 -2 -1 1 -2 -1)
1969/12/31/18:00:11.718,(-1 1 0 1 -1 -2 -3 1)
1969/12/31/18:00:11.718,(-2 -3 -2 1 1 1 -1 -3)
1969/12/31/18:00:11.728,(1 -3 0 3 1 1 2 2)
1969/12/31/18:00:11.728,(-2 0 0 -2 -3 -2 0 -1)
1969/12/31/18:00:11.736,(1 0 -2 -1 -1 -1 -1 0)
1969/12/31/18:00:11.736,(0 1 2 1 3 1 -1 0)
1969/12/31/18:00:11.762,(-3 -2 -2 -3 -2 -2 -1 -1)
1969/12/31/18:00:11.762,(-2 -1 -1 -3 -1 -2 0 -1)
1969/12/31/18:00:11.763,(2 0 -1 -1 -1 -1 -1 -1)
1969/12/31/18:00:11.763,(-2 -2 -1 0 -2 0 -1 1)
1969/12/31/18:00:11.768,(0 1 -1 -1 1 2 -1 0)
1969/12/31/18:00:11.768,(-1 0 -2 -2 0 1 -1 -1)
1969/12/31/18:00:11.769,(0 -1 -1 2 0 1 0 1)
1969/12/31/18:00:11.769,(1 1 0 -2 -1 0 -1 0)
1969/12/31/18:00:11.779,(0 0 0 -2 -3 0 -1 -1)
1969/12/31/18:00:11.779,(0 -1 -2 1 -1 -1 -1 1)
1969/12/31/18:00:11.788,(-1 0 1 1 2 2 2 0)
1969/12/31/18:00:11.788,(-1 -2 -2 0 -1 0 1 2)
1969/12/31/18:00:11.807,(-2 1 -1 2 -1 -1 -1 -1)
1969/12/31/18:00:11.807,(2 0 -1 -1 0 -2 1 -1)
1969/12/31/18:00:11.807,(1 -1 0 1 2 0 -1 -3)
1969/12/31/18:00:11.807,(0 0 -1 0 -2 -1 2 1)
1969/12/31/18:00:11.819,(-3 -2 0 -2 -2 -1 -1 -2)
1969/12/31/18:00:11.819,(1 0 0 -1 0 1 2 2)
1969/12/31/18:00:11.821,(-1 0 -2 0 0 1 0 0)
1969/12/31/18:00:11.821,(-1 0 2 0 -1 -1 -1 -3)
1969/12/31/18:00:11.831,(0 -1 1 -1 -2 -2 -1 -1)
1969/12/31/18:00:11.831,(-1 -1 0 -1 0 -1 0 -1)
1969/12/31/18:00:11.839,(-3 -1 -2 -3 -1 0 1 0)
1969/12/31/18:00:11.839,(1 1 0 0 -1 1 0 0)
1969/12/31/18:00:11.851,(-2 0 0 0 1 -1 -2 -1)
1969/12/31/18:00:11.851,(-1 0 -1 0 -2 1 -1 -1)
1969/12/31/18:00:11.857,(1 -1 0 1 1 1 2 3)
1969/12/31/18:00:11.857,(-1 -1 0 -3 0 -4 -2 -2)
1969/12/31/18:00:11.871,(-2 0 -1 0 -1 1 -2 1)
1969/12/31/18:00:11.871,(-1 -1 -1 -1 -1 0 0 -1)
1969/12/31/18:00:11.872,(-1 -1 0 -2 -1 0 1 -1)
1969/12/31/18:00:11.872,(0 1 -2 -1 0 0 -1 1)
1969/12/31/18:00:11.883,(-1 -1 1 -2 0 -2 -2 -1)
1969/12/31/18:00:11.883,(-1 -1 -1 0 -1 -2 0 1)
1969/12/31/18:00:11.889,(-1 0 0 -1 -2 0 0 0)
1969/12/31/18:00:11.889,(-1 -1 -2 -1 -1 1 0 0)
1969/12/31/18:00:11.902,(-2 -1 -1 -2 -1 0 0 0)
1969/12/31/18:00:11.902,(-2 -1 1 2 1 -1 -4 -3)
1969/12/31/18:00:11.904,(-2 0 1 0 0 0 2 0)
1969/12/31/18:00:11.904,(1 0 -1 -1 -1 -1 -2 -3)
1969/12/31/18:00:11.922,(0 0 -1 -1 -1 -1 -1 -1)
1969/12/31/18:00:11.922,(0 2 -1 1 0 -1 1 0)
1969/12/31/18:00:11.924,(-1 -2 -3 -1 -3 -3 -3 -2)
1969/12/31/18:00:11.924,(-2 0 0 -1 0 -1 1 0)
1969/12/31/18:00:11.934,(0 -2 -1 -1 -1 -1 0 0)
1969/12/31/18:00:11.934,(0 0 -2 -3 -1 0 -2 -1)
1969/12/31/18:00:11.934,(-2 6 11 56 44 3 -3 -2)
1969/12/31/18:00:11.934,(14 16 -15 -85 -66 -15 3 6)
1969/12/31/18:00:11.936,(-5 -22 -52 -97 -42 -6 -1 -5)
1969/12/31/18:00:11.936,(-5 -6 27 95 67 3 -10 -3)
1969/12/31/18:00:11.946,(-4 12 58 85 36 13 8 2)
1969/12/31/18:00:11.946,(-2 0 27 9 35 12 -1 0)
1969/12/31/18:00:11.960,(4 14 -2 -30 -5 13 13 6)
1969/12/31/18:00:11.960,(17 6 -73 -110 -40 -7 6 6)
1969/12/31/18:00:11.966,(1 -22 -50 -30 -38 -12 -10 1)
1969/12/31/18:00:11.966,(-15 -2 45 28 -1 -7 -4 -9)
1969/12/31/18:00:11.972,(-6 -1 27 48 39 -3 -2 -5)
1969/12/31/18:00:11.972,(7 12 18 -9 -21 4 5 2)
1969/12/31/18:00:11.985,(4 7 19 56 33 1 5 0)
1969/12/31/18:00:11.985,(1 -8 -44 -30 14 13 1 1)
1969/12/31/18:00:11.987,(2 0 20 70 55 15 1 4)
1969/12/31/18:00:11.987,(-15 -19 16 28 -31 -5 -6 -9)
1969/12/31/18:00:11.997,(-9 -1 -1 -108 -35 -19 -6 -6)
1969/12/31/18:00:11.997,(4 3 -6 2 -3 -3 1 4)
1969/12/31/18:00:12.005,(-4 -7 -45 -88 -32 -18 -8 -3)
1969/12/31/18:00:12.005,(11 3 -11 -80 -56 -9 -1 7)
1969/12/31/18:00:12.017,(-4 1 33 90 54 20 6 0)
1969/12/31/18:00:12.017,(3 9 32 30 42 16 8 5)
1969/12/31/18:00:12.023,(5 8 12 51 39 12 1 3)
1969/12/31/18:00:12.023,(-9 -18 -51 -101 -112 -35 -15 -8)
1969/12/31/18:00:12.037,(-3 -11 -48 -94 -61 -27 -9 -4)
1969/12/31/18:00:12.037,(0 -2 9 50 46 6 -2 1)
1969/12/31/18:00:12.038,(-7 3 39 43 22 15 3 -2)
1969/12/31/18:00:12.038,(-4 -2 2 -18 20 3 3 -1)
1969/12/31/18:00:12.049,(-4 -7 -5 -58 14 2 -5 -2)
1969/12/31/18:00:12.049,(2 7 -15 -27 -67 -23 -5 -2)
1969/12/31/18:00:12.056,(-2 -1 -10 37 -17 -8 -7 -7)
1969/12/31/18:00:12.056,(1 4 18 63 84 28 11 5)
1969/12/31/18:00:12.068,(1 -5 -18 -106 -57 -12 -2 -2)
1969/12/31/18:00:12.068,(-1 3 15 87 47 12 3 0)
1969/12/31/18:00:12.074,(0 0 -4 -86 0 -8 -2 -3)
1969/12/31/18:00:12.074,(6 7 6 71 -6 -5 0 1)
1969/12/31/18:00:12.088,(2 0 -1 29 1 2 4 2)
1969/12/31/18:00:12.088,(-2 -6 -7 -34 -6 -4 -4 0)
1969/12/31/18:00:12.090,(4 4 1 -4 -14 -2 2 4)
1969/12/31/18:00:12.090,(1 0 2 -13 11 3 0 1)
1969/12/31/18:00:12.100,(-5 -3 9 36 8 2 -1 -2)
1969/12/31/18:00:12.100,(-1 -2 -3 -15 -14 -4 -1 -1)
1969/12/31/18:00:12.108,(0 0 -2 8 8 0 -1 1)
1969/12/31/18:00:12.108,(4 1 -5 -22 7 2 -1 1)
1969/12/31/18:00:12.120,(2 2 3 -4 -20 -8 -2 0)
1969/12/31/18:00:12.120,(-4 -5 -5 -2 -2 3 4 -3)
1969/12/31/18:00:12.126,(-5 -4 1 -14 -1 -1 -3 -2)
1969/12/31/18:00:12.126,(-7 -4 5 12 20 2 0 -3)
1969/12/31/18:00:12.140,(4 4 -1 10 -16 -3 -2 -1)
1969/12/31/18:00:12.140,(5 5 -4 -7 2 0 -1 4)
1969/12/31/18:00:12.142,(5 0 2 -5 10 7 7 4)
1969/12/31/18:00:12.142,(-20 -7 2 13 2 -3 -5 -11)
1969/12/31/18:00:12.151,(18 3 -1 3 -5 -1 1 6)
1969/12/31/18:00:12.151,(-10 2 -2 -13 1 8 6 -1)
1969/12/31/18:00:12.159,(5 0 -2 -5 -7 -7 -5 -2)
1969/12/31/18:00:12.159,(24 13 1 -1 1 4 7 15)
1969/12/31/18:00:12.171,(-18 -9 -2 -9 -9 6 7 -1)
1969/12/31/18:00:12.171,(-8 -15 -3 -10 -7 -11 -16 -17)
1969/12/31/18:00:12.177,(17 27 7 13 5 9 10 11)
1969/12/31/18:00:12.177,(-14 -10 -3 5 -1 -6 -10 -14)
1969/12/31/18:00:12.190,(2 -7 -7 -8 -7 -4 3 6)
1969/12/31/18:00:12.190,(6 1 -5 -14 -2 3 6 9)
1969/12/31/18:00:12.192,(-17 -8 6 -4 -2 3 4 -3)
1969/12/31/18:00:12.192,(24 13 8 24 8 -2 -4 4)
1969/12/31/18:00:12.202,(4 8 8 14 10 5 -1 -2)
1969/12/31/18:00:12.202,(-4 -6 -3 -7 -8 -2 -1 0)
1969/12/31/18:00:12.210,(-4 -6 -6 -7 -3 -4 -5 -3)
1969/12/31/18:00:12.210,(-4 1 0 -7 3 2 7 6)
1969/12/31/18:00:12.222,(-17 -10 -5 -5 -10 -2 2 -8)
1969/12/31/18:00:12.222,(24 26 13 12 12 7 6 9)
1969/12/31/18:00:12.228,(-29 -15 -8 -9 -10 -12 -20 -26)
1969/12/31/18:00:12.228,(-2 -11 -6 -5 -7 -5 -1 -3)
1969/12/31/18:00:12.242,(8 4 1 3 0 3 1 7)
1969/12/31/18:00:12.242,(-10 -14 -13 -21 -13 -9 -5 -4)
1969/12/31/18:00:12.243,(8 6 8 16 10 5 6 12)
1969/12/31/18:00:12.244,(-11 -5 -9 -20 -13 -4 -3 -9)
1969/12/31/18:00:12.254,(-1 2 -7 -49 -20 -7 -3 1)
1969/12/31/18:00:12.254,(0 5 24 86 36 13 5 1)
1969/12/31/18:00:12.261,(-7 -5 8 30 22 6 -1 -4)
1969/12/31/18:00:12.261,(10 5 1 13 18 8 5 8)
1969/12/31/18:00:12.273,(9 5 -11 -41 -21 -8 -1 -4)
1969/12/31/18:00:12.273,(-27 -11 0 -20 -19 -7 -7 -14)
1969/12/31/18:00:12.279,(36 21 18 30 11 9 16 29)
1969/12/31/18:00:12.279,(-1 -12 -17 -38 -11 -7 -11 -6)
1969/12/31/18:00:12.293,(4 8 -3 19 -3 -3 -2 2)
1969/12/31/18:00:12.293,(-19 -10 -7 -14 -5 -5 -11 -16)
1969/12/31/18:00:12.295,(-24 -13 -9 -9 -6 -5 -16 -33)
1969/12/31/18:00:12.295,(-24 -17 -4 -3 -3 0 -2 -5)
1969/12/31/18:00:12.305,(27 14 6 -3 2 6 9 24)
1969/12/31/18:00:12.305,(13 -7 -17 -29 -25 -4 3 13)
1969/12/31/18:00:12.313,(2 -1 -1 -14 1 0 5 9)
1969/12/31/18:00:12.313,(-2 7 9 21 -4 1 -3 -6)
1969/12/31/18:00:12.325,(-24 -10 5 20 26 2 -8 -15)
1969/12/31/18:00:12.325,(3 1 12 27 3 -1 0 0)
1969/12/31/18:00:12.331,(11 6 -13 -28 -16 -4 1 7)
1969/12/31/18:00:12.331,(13 6 -2 -6 6 3 6 7)
1969/12/31/18:00:12.344,(-24 -20 -7 -37 -27 -15 -18 -17)
1969/12/31/18:00:12.344,(20 21 26 91 52 23 23 27)
1969/12/31/18:00:12.346,(26 15 0 3 17 5 6 12)
1969/12/31/18:00:12.346,(-37 -6 0 6 -3 -2 -9 -33)
1969/12/31/18:00:12.356,(9 -8 -2 -11 -9 -5 -3 7)
1969/12/31/18:00:12.356,(-28 -28 -32 -83 -37 -25 -34 -38)
1969/12/31/18:00:12.364,(-17 -23 -8 6 -7 -4 0 3)
1969/12/31/18:00:12.364,(17 13 8 7 13 9 15 19)
1969/12/31/18:00:12.376,(-26 -14 -1 7 3 0 -1 -16)
1969/12/31/18:00:12.376,(21 4 -7 -21 -8 -4 5 12)
1969/12/31/18:00:12.382,(2 -2 -5 -23 -14 -4 -2 -2)
1969/12/31/18:00:12.382,(-15 -18 0 10 8 -3 -6 -7)
1969/12/31/18:00:12.396,(6 20 13 30 -1 1 -2 -3)
1969/12/31/18:00:12.396,(11 9 -3 12 20 8 8 10)
1969/12/31/18:00:12.397,(-4 -5 4 14 4 1 2 1)
1969/12/31/18:00:12.397,(-6 4 -5 -10 -10 -7 -7 -5)
1969/12/31/18:00:12.415,(38 22 13 20 19 23 28 33)
1969/12/31/18:00:12.415,(-3 1 -18 -74 -38 -17 -17 -15)
1969/12/31/18:00:12.416,(-37 -36 -5 35 15 -6 -11 -21)
1969/12/31/18:00:12.416,(36 49 30 56 40 18 19 23)
1969/12/31/18:00:12.427,(10 -11 -4 24 3 -10 -17 -6)
1969/12/31/18:00:12.427,(-17 -8 -12 -30 -16 -7 -5 -13)
1969/12/31/18:00:12.434,(3 -4 -11 -45 -30 -9 -3 -3)
1969/12/31/18:00:12.434,(2 -17 -25 -78 -32 -4 5 10)
1969/12/31/18:00:12.447,(-13 -1 -1 15 -5 -1 -1 -8)
1969/12/31/18:00:12.447,(13 16 30 92 45 17 14 12)
1969/12/31/18:00:12.449,(-18 -3 4 -2 13 -2 -10 -15)
1969/12/31/18:00:12.449,(1 -2 6 28 16 2 1 1)
1969/12/31/18:00:12.466,(-7 2 -6 -25 -11 0 -1 -7)
1969/12/31/18:00:12.466,(3 -5 -8 -35 -25 -3 4 8)
1969/12/31/18:00:12.467,(14 13 4 5 10 6 10 11)
1969/12/31/18:00:12.467,(4 -1 -5 -8 -12 -3 -2 0)
1969/12/31/18:00:12.486,(-7 -9 -5 -7 -1 -7 -7 -3)
1969/12/31/18:00:12.486,(-13 -9 3 22 4 0 -1 -4)
1969/12/31/18:00:12.486,(17 21 0 -18 -4 -1 -1 4)
1969/12/31/18:00:12.486,(-18 -6 -8 -26 -15 -4 -8 -20)
1969/12/31/18:00:12.497,(-24 -16 -6 -5 -14 -11 -10 -13)
1969/12/31/18:00:12.497,(16 12 6 22 19 5 5 9)
1969/12/31/18:00:12.498,(-7 -3 3 2 12 7 2 -4)
1969/12/31/18:00:12.498,(7 -6 -2 9 -1 0 1 9)
1969/12/31/18:00:12.517,(4 1 -9 -60 -18 -10 -4 -2)
1969/12/31/18:00:12.517,(-12 -6 -10 -8 -21 -12 -5 -6)
1969/12/31/18:00:12.518,(-1 -1 11 41 10 2 -3 -3)
1969/12/31/18:00:12.518,(-1 -8 -2 -43 -18 1 1 0)
1969/12/31/18:00:12.537,(3 5 11 85 32 15 13 6)
1969/12/31/18:00:12.537,(12 13 19 53 69 22 12 10)
1969/12/31/18:00:12.538,(-1 -7 -16 -56 -37 -5 -1 -2)
1969/12/31/18:00:12.538,(2 -2 0 26 15 -8 -6 -2)
1969/12/31/18:00:12.549,(-3 -1 6 -4 2 -5 -5 -4)
1969/12/31/18:00:12.549,(1 -2 -4 -34 -20 -4 -1 5)
1969/12/31/18:00:12.550,(-9 3 8 35 21 7 4 -3)
1969/12/31/18:00:12.550,(-25 -42 -12 -41 -29 -9 -9 -9)
1969/12/31/18:00:12.575,(43 57 -9 -33 -12 -1 7 11)
1969/12/31/18:00:12.575,(-11 -10 0 25 9 -2 -4 -10)
1969/12/31/18:00:12.576,(-6 -3 -2 -18 -7 0 1 0)
1969/12/31/18:00:12.576,(12 5 -4 -8 -7 0 1 4)
1969/12/31/18:00:12.588,(-20 -20 -3 -11 0 2 -1 -5)
1969/12/31/18:00:12.588,(5 3 4 20 4 3 6 7)
1969/12/31/18:00:12.589,(13 7 -19 -100 -55 -14 -5 1)
1969/12/31/18:00:12.589,(0 7 24 119 39 5 3 0)
1969/12/31/18:00:12.602,(-6 -3 29 98 88 18 7 2)
1969/12/31/18:00:12.602,(-1 2 -10 -70 -41 0 0 -1)
1969/12/31/18:00:12.603,(-23 -27 -13 4 1 -8 -8 -11)
1969/12/31/18:00:12.603,(-29 -41 -3 2 0 -2 -1 2)
1969/12/31/18:00:12.620,(61 56 7 -24 -24 8 9 20)
1969/12/31/18:00:12.620,(-4 -25 -9 -22 -3 -14 -18 -10)
1969/12/31/18:00:12.621,(13 12 4 13 -6 0 2 5)
1969/12/31/18:00:12.621,(-14 -11 -7 -16 -2 -2 -3 -8)
1969/12/31/18:00:12.632,(-12 -15 -5 0 0 1 3 -1)
1969/12/31/18:00:12.632,(-8 -6 -1 -14 -6 3 5 3)
1969/12/31/18:00:12.639,(14 12 9 27 9 0 1 5)
1969/12/31/18:00:12.639,(13 21 -13 -72 -48 -18 -6 -1)
1969/12/31/18:00:12.651,(-14 -21 -21 43 -71 -23 -6 -6)
1969/12/31/18:00:12.651,(8 18 33 106 94 30 7 4)
1969/12/31/18:00:12.652,(-7 -1 28 81 78 36 10 3)
1969/12/31/18:00:12.652,(7 9 9 -7 8 11 4 1)
1969/12/31/18:00:12.672,(-11 -6 -13 -76 -44 -9 -5 -9)
1969/12/31/18:00:12.672,(-12 -16 -25 -84 -79 -30 -10 -8)
1969/12/31/18:00:12.672,(12 15 -2 -10 -13 -6 7 12)
1969/12/31/18:00:12.672,(38 28 1 -11 1 2 3 9)
1969/12/31/18:00:12.683,(-24 -31 -9 -9 17 -2 -6 -12)
1969/12/31/18:00:12.683,(-1 5 3 3 -5 -1 -1 -6)
1969/12/31/18:00:12.691,(2 -2 8 9 9 3 4 9)
1969/12/31/18:00:12.691,(-5 -1 -7 -37 2 0 -3 -5)
1969/12/31/18:00:12.704,(0 12 18 69 17 7 12 11)
1969/12/31/18:00:12.704,(3 -3 2 6 16 -4 -13 -8)
1969/12/31/18:00:12.704,(3 1 -13 -25 -33 -11 -6 -3)
1969/12/31/18:00:12.704,(-33 -27 -9 -9 1 -3 -5 -14)
1969/12/31/18:00:12.722,(33 1 14 17 33 15 10 24)
1969/12/31/18:00:12.722,(37 57 3 -41 -7 7 14 19)
1969/12/31/18:00:12.723,(-19 -18 -4 26 -13 -11 -12 -18)
1969/12/31/18:00:12.723,(11 6 -1 -8 -18 -7 -2 4)
1969/12/31/18:00:12.734,(-17 -22 -29 -109 -28 -9 -6 -11)
1969/12/31/18:00:12.734,(4 0 28 98 31 10 6 8)
1969/12/31/18:00:12.741,(-7 -1 15 34 43 8 -5 -9)
1969/12/31/18:00:12.741,(-1 7 5 24 12 10 9 2)
1969/12/31/18:00:12.754,(-6 -7 -10 -78 -38 -12 -11 -5)
1969/12/31/18:00:12.754,(-4 -10 -23 -19 -39 -13 0 -1)
1969/12/31/18:00:12.755,(4 3 4 24 18 4 6 5)
1969/12/31/18:00:12.755,(-1 2 7 19 13 6 0 0)
1969/12/31/18:00:12.774,(-6 -3 -1 4 4 1 -2 -4)
1969/12/31/18:00:12.774,(-8 -11 -9 -34 -16 -5 -5 -5)
1969/12/31/18:00:12.775,(-1 -6 -9 -29 -24 -8 -3 -3)
1969/12/31/18:00:12.775,(11 11 1 16 -2 -4 0 6)
1969/12/31/18:00:12.786,(-5 -1 6 4 19 4 -1 -5)
1969/12/31/18:00:12.786,(-10 -7 1 21 11 4 0 -4)
1969/12/31/18:00:12.792,(-1 -2 -2 -8 -1 -1 0 1)
1969/12/31/18:00:12.792,(7 10 1 -16 -11 3 6 5)
1969/12/31/18:00:12.805,(-4 -1 6 51 15 1 -5 -7)
1969/12/31/18:00:12.805,(-4 -5 -4 -20 -2 -1 -3 -1)
1969/12/31/18:00:12.806,(1 1 -1 -18 -17 0 4 1)
1969/12/31/18:00:12.806,(1 -4 -5 -26 -8 -2 -1 3)
1969/12/31/18:00:12.825,(-14 -13 -14 -21 -15 -8 -7 -12)
1969/12/31/18:00:12.825,(-9 -11 0 31 14 -1 -2 -7)
1969/12/31/18:00:12.826,(14 16 15 44 30 6 0 4)
1969/12/31/18:00:12.826,(10 8 14 40 19 10 8 5)
1969/12/31/18:00:12.839,(-15 -8 -1 -7 1 2 -3 -10)
1969/12/31/18:00:12.839,(5 4 -18 -57 -39 -8 -1 2)
1969/12/31/18:00:12.851,(12 4 -8 -38 -18 -4 -1 8)
1969/12/31/18:00:12.851,(-9 -7 6 40 22 1 -3 -7)
1969/12/31/18:00:12.857,(7 4 19 38 27 14 14 18)
1969/12/31/18:00:12.857,(-17 -9 -6 -26 -13 -6 -9 -16)
1969/12/31/18:00:12.857,(-3 -3 -13 -29 -28 -12 -6 -3)
1969/12/31/18:00:12.857,(7 0 -18 -66 -48 -8 -1 9)
1969/12/31/18:00:12.876,(-1 1 15 95 65 10 3 1)
1969/12/31/18:00:12.876,(-8 3 21 57 36 13 1 -7)
1969/12/31/18:00:12.877,(-7 -1 1 -7 -4 -1 1 -4)
1969/12/31/18:00:12.877,(-2 -3 -19 -57 -30 -10 -7 -3)
1969/12/31/18:00:12.888,(0 -4 -8 -10 -20 -7 -3 0)
1969/12/31/18:00:12.888,(9 3 10 12 12 6 9 12)
1969/12/31/18:00:12.895,(-16 -10 -2 3 2 -2 -9 -7)
1969/12/31/18:00:12.895,(14 10 -1 -4 5 1 1 -3)
1969/12/31/18:00:12.909,(-5 -2 -7 -35 -15 -7 -6 -7)
1969/12/31/18:00:12.909,(7 3 -6 -1 -2 -2 -1 0)
1969/12/31/18:00:12.910,(-11 -12 -1 -10 -15 -2 1 0)
1969/12/31/18:00:12.910,(-6 13 13 39 23 7 4 9)
1969/12/31/18:00:12.928,(13 2 0 -2 -2 -2 -4 -4)
1969/12/31/18:00:12.928,(-3 -4 -6 -19 -9 -2 0 1)
1969/12/31/18:00:12.928,(8 -3 -12 -19 -8 -4 -3 0)
1969/12/31/18:00:12.928,(-14 -12 0 9 -10 -4 -3 -3)
1969/12/31/18:00:12.940,(1 10 13 25 27 4 0 2)
1969/12/31/18:00:12.940,(-14 -25 7 23 16 7 3 -2)
1969/12/31/18:00:12.947,(7 29 7 21 5 0 -2 -1)
1969/12/31/18:00:12.947,(15 5 2 -2 6 5 9 11)
1969/12/31/18:00:12.959,(4 1 -15 -56 -31 -5 3 3)
1969/12/31/18:00:12.959,(1 -7 -13 -25 -20 -10 -5 -2)
1969/12/31/18:00:12.960,(-10 -24 -5 -6 -4 0 -2 -1)
1969/12/31/18:00:12.960,(20 34 12 25 19 8 13 12)
1969/12/31/18:00:12.979,(-28 -26 6 19 0 0 -7 -19)
1969/12/31/18:00:12.979,(12 19 -2 -10 3 4 7 12)
1969/12/31/18:00:12.980,(-15 -32 -12 -8 -9 -8 -9 -13)
1969/12/31/18:00:12.980,(29 21 -1 -15 -6 -3 -2 10)
1969/12/31/18:00:12.991,(-1 4 -3 21 0 -4 -6 -4)
1969/12/31/18:00:12.991,(-22 -8 1 4 6 1 -4 -11)
1969/12/31/18:00:12.998,(-29 -18 -1 -14 -5 -2 -3 -2)
1969/12/31/18:00:12.998,(46 29 6 21 14 13 17 18)
1969/12/31/18:00:13.011,(-10 -5 -6 -30 -18 -7 -8 -9)
1969/12/31/18:00:13.011,(1 -7 -2 8 -2 -5 -6 -1)
1969/12/31/18:00:13.011,(28 35 9 19 18 8 11 14)
1969/12/31/18:00:13.011,(-43 -33 -3 12 4 -6 -15 -26)
1969/12/31/18:00:13.030,(-6 7 4 -3 0 5 10 12)
1969/12/31/18:00:13.030,(26 15 -7 -35 -24 -8 -8 -6)
1969/12/31/18:00:13.030,(-7 -17 -10 -2 -2 -4 -5 -6)
1969/12/31/18:00:13.031,(-27 -11 3 16 6 -2 -6 -19)
1969/12/31/18:00:13.050,(25 17 -6 -9 1 3 7 24)
1969/12/31/18:00:13.050,(-34 -14 -2 -2 -3 -7 -10 -16)
1969/12/31/18:00:13.051,(-7 -34 2 5 3 6 6 -4)
1969/12/31/18:00:13.051,(-12 16 -2 2 -2 -11 -11 -7)
1969/12/31/18:00:13.062,(1 -4 -6 -6 -6 -4 1 9)
1969/12/31/18:00:13.062,(32 21 2 -3 2 8 8 4)
1969/12/31/18:00:13.063,(26 25 3 2 4 5 6 9)
1969/12/31/18:00:13.063,(-16 -47 0 3 -1 -7 -9 -5)
1969/12/31/18:00:13.082,(-35 -55 -3 0 -2 -5 -3 -4)
1969/12/31/18:00:13.082,(60 86 18 6 2 5 15 32)
1969/12/31/18:00:13.082,(6 20 -9 -17 -12 -8 -11 -11)
1969/12/31/18:00:13.082,(-26 -25 -7 10 8 2 1 -12)
1969/12/31/18:00:13.093,(23 20 6 3 2 5 3 1)
1969/12/31/18:00:13.093,(-3 -22 -4 -4 -2 1 8 14)
1969/12/31/18:00:13.100,(-22 -27 0 -4 -6 -7 -10 -18)
1969/12/31/18:00:13.100,(15 18 6 5 3 5 10 22)
1969/12/31/18:00:13.113,(-2 1 -5 -5 -3 -4 -11 -15)
1969/12/31/18:00:13.113,(-21 -25 -9 -50 -22 -4 0 -8)
1969/12/31/18:00:13.114,(-5 5 6 27 7 0 1 0)
1969/12/31/18:00:13.114,(-13 -15 4 32 21 -1 -7 -9)
1969/12/31/18:00:13.133,(28 38 19 20 10 6 9 16)
1969/12/31/18:00:13.133,(-18 -36 -11 -3 1 2 -4 -5)
1969/12/31/18:00:13.134,(31 45 5 -19 -3 8 12 18)
1969/12/31/18:00:13.134,(-27 -45 -13 -23 -19 -7 -11 -16)
1969/12/31/18:00:13.152,(24 23 -7 1 7 3 3 6)
1969/12/31/18:00:13.152,(-25 0 7 8 -2 -1 -3 -6)
1969/12/31/18:00:13.153,(-5 -12 -7 -14 -10 -8 -6 -3)
1969/12/31/18:00:13.153,(-11 -2 -1 4 1 -1 0 -1)
1969/12/31/18:00:13.165,(30 5 -1 0 5 7 3 9)
1969/12/31/18:00:13.165,(-4 -14 -1 6 -2 -5 -6 -2)
1969/12/31/18:00:13.166,(-1 3 -2 7 2 -1 -1 -2)
1969/12/31/18:00:13.166,(-9 -3 -4 -11 -5 -5 -12 -14)
1969/12/31/18:00:13.184,(-28 -23 -9 -17 -15 -7 -2 -7)
1969/12/31/18:00:13.184,(48 47 14 18 7 10 13 24)
1969/12/31/18:00:13.185,(0 -4 -7 -34 -11 -15 -12 -1)
1969/12/31/18:00:13.185,(-23 -10 7 38 8 3 -5 -22)
1969/12/31/18:00:13.204,(-8 1 7 14 12 4 -1 -7)
1969/12/31/18:00:13.204,(-9 -15 -5 2 4 -2 -5 -8)
1969/12/31/18:00:13.205,(1 -3 1 13 9 9 12 11)
1969/12/31/18:00:13.205,(37 51 1 -32 -17 -1 7 21)
1969/12/31/18:00:13.216,(-45 -28 -3 -2 -5 -4 -8 -25)
1969/12/31/18:00:13.216,(-29 -51 -5 -2 4 3 7 3)
1969/12/31/18:00:13.217,(46 59 -5 -5 -3 6 7 10)
1969/12/31/18:00:13.217,(6 5 0 8 3 -13 -18 -6)
1969/12/31/18:00:13.235,(-2 -13 -3 2 -6 -4 -6 -7)
1969/12/31/18:00:13.235,(-16 -1 -4 -5 -7 -11 -17 -16)
1969/12/31/18:00:13.236,(11 -3 4 -6 -3 3 13 14)
1969/12/31/18:00:13.236,(-14 -30 -11 -4 4 8 7 3)
1969/12/31/18:00:13.255,(7 21 2 -20 -10 -3 -1 1)
1969/12/31/18:00:13.255,(-14 -26 2 25 17 1 -2 -5)
1969/12/31/18:00:13.256,(-8 0 -3 -4 0 0 1 -1)
1969/12/31/18:00:13.256,(4 13 2 -5 -15 -9 -5 -7)
1969/12/31/18:00:13.267,(-5 -3 14 31 29 12 6 2)
1969/12/31/18:00:13.267,(24 13 -6 -10 -6 0 1 11)
1969/12/31/18:00:13.268,(-6 -4 4 10 5 11 12 -1)
1969/12/31/18:00:13.268,(-16 -12 -6 -15 -7 -5 -9 -11)
1969/12/31/18:00:13.287,(23 3 -8 -19 -8 2 8 21)
1969/12/31/18:00:13.287,(-14 0 -2 0 -6 -9 -10 -15)
1969/12/31/18:00:13.288,(5 7 -3 -1 -1 -9 -11 -1)
1969/12/31/18:00:13.288,(-36 -39 11 12 13 22 25 -6)
1969/12/31/18:00:13.306,(-40 -30 3 9 -1 -5 -12 -25)
1969/12/31/18:00:13.306,(110 112 25 11 15 20 37 73)
1969/12/31/18:00:13.307,(-35 -38 -25 -46 -35 -39 -65 -52)
1969/12/31/18:00:13.307,(2 -11 -4 15 6 -4 -1 2)
1969/12/31/18:00:13.318,(14 11 2 -2 -2 7 17 10)
1969/12/31/18:00:13.318,(-28 -15 7 7 10 20 31 -2)
1969/12/31/18:00:13.319,(13 12 14 -1 0 3 4 16)
1969/12/31/18:00:13.319,(16 12 -11 -3 -2 -21 -31 -8)
1969/12/31/18:00:13.338,(-39 -26 -21 -16 -9 -2 -4 -32)
1969/12/31/18:00:13.338,(15 -2 -2 13 0 -1 -7 5)
1969/12/31/18:00:13.339,(-26 -11 30 68 35 29 34 5)
1969/12/31/18:00:13.339,(55 52 17 18 13 -5 -12 18)
1969/12/31/18:00:13.359,(-21 -12 -8 -9 -16 -24 -23 -13)
1969/12/31/18:00:13.359,(9 7 -14 -35 -11 2 4 2)
1969/12/31/18:00:13.359,(10 -8 -14 -21 -8 7 10 11)
1969/12/31/18:00:13.359,(2 -20 -4 -4 -8 4 15 12)
1969/12/31/18:00:13.370,(-1 13 10 4 14 19 19 3)
1969/12/31/18:00:13.370,(-23 -10 -6 -9 -7 -7 -8 -16)
1969/12/31/18:00:13.371,(-4 4 9 15 8 2 -2 -2)
1969/12/31/18:00:13.371,(13 3 1 -5 -1 4 7 10)
1969/12/31/18:00:13.389,(-1 -4 -10 -18 -18 -10 -6 -5)
1969/12/31/18:00:13.389,(-17 -14 -1 -12 -11 -11 -18 -8)
1969/12/31/18:00:13.389,(-16 -23 -5 41 31 -4 -11 -13)
1969/12/31/18:00:13.390,(1 3 2 2 8 16 19 7)
1969/12/31/18:00:13.409,(41 40 15 7 -1 1 1 25)
1969/12/31/18:00:13.409,(-32 -29 -13 -12 -17 -18 -19 -37)
1969/12/31/18:00:13.410,(-11 -19 -10 -22 -16 -6 3 0)
1969/12/31/18:00:13.410,(-9 2 -4 -14 -13 -14 -15 -9)
1969/12/31/18:00:13.421,(44 40 12 11 18 25 30 22)
1969/12/31/18:00:13.422,(-9 -14 -6 3 -1 -5 -8 -6)
1969/12/31/18:00:13.422,(-6 -2 -4 -4 0 7 6 -2)
1969/12/31/18:00:13.422,(7 -12 -4 -28 3 5 9 18)
1969/12/31/18:00:13.441,(-5 -7 4 18 -15 -19 -20 -10)
1969/12/31/18:00:13.441,(-20 2 5 12 1 -4 -1 -20)
1969/12/31/18:00:13.442,(34 10 6 9 10 13 21 49)
1969/12/31/18:00:13.442,(-6 2 4 7 7 12 13 0)
1969/12/31/18:00:13.467,(-17 -33 -20 -59 -16 -12 -14 -10)
1969/12/31/18:00:13.467,(38 40 4 8 -15 -11 -10 18)
1969/12/31/18:00:13.467,(-53 -22 1 43 17 -4 0 -38)
1969/12/31/18:00:13.467,(35 33 17 17 18 11 -7 6)
1969/12/31/18:00:13.472,(-12 -18 -4 11 10 -2 -7 -5)
1969/12/31/18:00:13.472,(-37 -24 -7 -24 -22 -12 -10 -26)
1969/12/31/18:00:13.473,(25 21 -1 -33 -17 1 13 15)
1969/12/31/18:00:13.473,(67 40 9 7 11 24 42 66)
1969/12/31/18:00:13.492,(-19 -17 -8 2 3 1 3 -3)
1969/12/31/18:00:13.492,(-46 -42 -9 1 1 0 -9 -22)
1969/12/31/18:00:13.492,(20 24 11 -7 -9 -14 -14 3)
1969/12/31/18:00:13.492,(21 2 -1 1 -4 -5 -4 6)
1969/12/31/18:00:13.512,(4 19 2 -2 0 5 3 5)
1969/12/31/18:00:13.512,(-1 -23 -2 7 13 15 19 12)
1969/12/31/18:00:13.513,(18 27 8 10 1 0 3 16)
1969/12/31/18:00:13.513,(-31 -6 -3 -8 -12 -11 -6 -21)
1969/12/31/18:00:13.524,(-9 -4 -3 -2 -13 -26 -37 -26)
1969/12/31/18:00:13.524,(10 0 -5 -4 10 10 9 11)
1969/12/31/18:00:13.524,(-10 -11 -10 -18 -12 -2 -7 -14)
1969/12/31/18:00:13.524,(-31 -18 -5 2 -10 -8 -6 -18)
1969/12/31/18:00:13.543,(22 18 11 16 15 13 20 21)
1969/12/31/18:00:13.543,(41 34 12 2 9 6 8 33)
1969/12/31/18:00:13.543,(2 0 -5 -5 -5 -3 -9 -8)
1969/12/31/18:00:13.543,(-45 -32 -11 -2 -7 -16 -22 -33)
1969/12/31/18:00:13.563,(-41 -34 -7 2 -5 -7 -8 -18)
1969/12/31/18:00:13.563,(36 0 20 18 21 19 20 26)
1969/12/31/18:00:13.564,(54 25 -6 -13 -4 7 15 36)
1969/12/31/18:00:13.564,(-29 -7 -15 -19 -20 -26 -41 -46)
1969/12/31/18:00:13.575,(-18 -12 -5 -9 -8 -9 -10 -16)
1969/12/31/18:00:13.575,(-40 -37 0 12 0 -11 -9 -18)
1969/12/31/18:00:13.576,(-1 -2 1 3 8 13 20 8)
1969/12/31/18:00:13.576,(55 60 21 5 14 23 19 36)
1969/12/31/18:00:13.595,(-28 -26 -18 -11 -15 -23 -41 -37)
1969/12/31/18:00:13.595,(-3 7 -3 -8 -8 -4 -3 -8)
1969/12/31/18:00:13.595,(-29 -30 -11 -6 -7 -11 -14 -17)
1969/12/31/18:00:13.595,(-3 0 -3 4 6 11 18 6)
1969/12/31/18:00:13.614,(21 8 5 9 6 8 9 14)
1969/12/31/18:00:13.614,(18 25 1 -4 0 1 0 7)
1969/12/31/18:00:13.615,(-45 -24 -9 -6 -13 -17 -24 -39)
1969/12/31/18:00:13.616,(-13 -13 -4 -4 -6 -5 1 -7)
1969/12/31/18:00:13.626,(21 9 1 15 8 6 14 27)
1969/12/31/18:00:13.626,(-65 -70 -13 0 1 -12 -21 -41)
1969/12/31/18:00:13.627,(39 42 14 -2 4 2 -3 8)
1969/12/31/18:00:13.627,(-19 -20 -11 -9 -5 0 -4 -11)
1969/12/31/18:00:13.647,(-3 -1 0 -5 -9 -3 1 2)
1969/12/31/18:00:13.647,(3 6 -16 -18 -8 -4 0 1)
1969/12/31/18:00:13.647,(-35 -38 1 20 10 0 1 -12)
1969/12/31/18:00:13.647,(93 67 21 17 22 22 26 57)
1969/12/31/18:00:13.666,(-10 -4 8 22 14 0 -3 -13)
1969/12/31/18:00:13.666,(8 13 3 -9 -5 0 6 9)
1969/12/31/18:00:13.666,(-18 -11 -1 -15 -14 -7 -10 -12)
1969/12/31/18:00:13.666,(-23 -14 -8 -10 -21 -19 -16 -18)
1969/12/31/18:00:13.678,(56 31 3 7 27 33 41 52)
1969/12/31/18:00:13.678,(22 34 8 9 5 2 -4 -5)
1969/12/31/18:00:13.685,(22 17 8 10 6 5 6 21)
1969/12/31/18:00:13.685,(-62 -52 -14 -11 -16 -20 -32 -49)
1969/12/31/18:00:13.696,(21 0 11 -5 -3 7 10 18)
1969/12/31/18:00:13.696,(-41 -4 -12 5 0 -10 -15 -27)
1969/12/31/18:00:13.704,(30 33 -2 -8 -3 0 3 4)
1969/12/31/18:00:13.704,(-42 -43 7 7 6 6 9 0)
1969/12/31/18:00:13.717,(-16 -20 -12 -12 -15 -17 -20 -25)
1969/12/31/18:00:13.717,(8 -1 4 8 2 5 3 8)
1969/12/31/18:00:13.719,(12 -3 0 -4 3 6 9 18)
1969/12/31/18:00:13.719,(-12 -8 -8 -4 -4 -5 -8 -8)
1969/12/31/18:00:13.729,(-8 9 1 0 -3 -5 -4 -7)
1969/12/31/18:00:13.729,(-9 -9 0 -1 -4 -4 -3 -4)
1969/12/31/18:00:13.737,(-15 -7 -1 0 0 1 0 -8)
1969/12/31/18:00:13.737,(28 19 1 -3 1 5 8 10)
1969/12/31/18:00:13.748,(3 4 3 8 13 8 6 8)
1969/12/31/18:00:13.748,(22 20 4 -9 -9 -4 3 11)
1969/12/31/18:00:13.755,(-34 -46 0 0 -1 -3 -9 -20)
1969/12/31/18:00:13.755,(82 92 25 13 8 13 32 60)
1969/12/31/18:00:13.768,(3 0 -11 -9 -7 -11 -15 -17)
1969/12/31/18:00:13.768,(-3 -8 2 5 9 6 -1 0)
1969/12/31/18:00:13.770,(1 1 -2 -7 -7 -5 -6 -9)
1969/12/31/18:00:13.770,(-32 -45 -7 -1 -1 2 2 -7)
1969/12/31/18:00:13.780,(23 40 12 0 2 3 8 13)
1969/12/31/18:00:13.780,(-4 -2 -8 2 0 -4 -5 -6)
1969/12/31/18:00:13.788,(25 15 5 -2 4 4 10 19)
1969/12/31/18:00:13.788,(-19 -20 -9 2 1 -6 -17 -22)
1969/12/31/18:00:13.800,(-3 -1 0 -1 -3 1 6 5)
1969/12/31/18:00:13.800,(-20 -19 -9 -6 -6 -5 -7 -11)
1969/12/31/18:00:13.807,(-12 -18 0 8 4 10 15 3)
1969/12/31/18:00:13.807,(2 13 -13 -16 -14 -26 -37 -11)
1969/12/31/18:00:13.819,(-9 -5 2 3 5 8 8 -6)
1969/12/31/18:00:13.819,(26 18 7 1 -2 1 4 15)
1969/12/31/18:00:13.821,(-45 -39 -14 -5 -13 -20 -25 -39)
1969/12/31/18:00:13.821,(-8 -11 0 4 14 22 30 13)
1969/12/31/18:00:13.831,(17 6 -7 -6 -3 1 3 13)
1969/12/31/18:00:13.831,(4 9 1 -6 -3 -1 0 2)
1969/12/31/18:00:13.839,(-17 -6 -3 6 0 -9 -17 -18)
1969/12/31/18:00:13.839,(-11 -12 -1 -8 -7 -4 -2 -7)
1969/12/31/18:00:13.851,(-7 1 5 3 -3 0 6 -6)
1969/12/31/18:00:13.851,(24 6 7 6 6 1 2 25)
1969/12/31/18:00:13.863,(10 13 -6 -5 -1 3 4 9)
1969/12/31/18:00:13.863,(-8 -11 -6 -1 -1 -2 -4 -10)
1969/12/31/18:00:13.871,(-34 -28 -8 -1 -5 -9 -15 -22)
1969/12/31/18:00:13.871,(33 31 11 -2 4 10 15 19)
1969/12/31/18:00:13.872,(-28 -6 2 2 -8 -9 -12 -19)
1969/12/31/18:00:13.872,(23 7 -11 -15 5 2 -5 3)
1969/12/31/18:00:13.883,(4 4 5 1 2 6 12 11)
1969/12/31/18:00:13.883,(-34 -30 -13 -3 -6 -9 -14 -28)
1969/12/31/18:00:13.890,(-10 6 -2 -2 0 -3 -6 4)
1969/12/31/18:00:13.890,(-41 -30 -4 0 -7 -5 -2 -23)
1969/12/31/18:00:13.902,(23 14 1 -5 3 4 4 12)
1969/12/31/18:00:13.902,(-4 0 0 -5 -2 0 3 -1)
1969/12/31/18:00:13.908,(32 18 5 -1 2 4 12 28)
1969/12/31/18:00:13.908,(-4 -2 2 6 -1 2 1 -2)
1969/12/31/18:00:13.922,(-12 -8 3 4 -3 -11 -11 -6)
1969/12/31/18:00:13.922,(2 -13 -6 4 8 8 11 10)
1969/12/31/18:00:13.924,(4 -5 -5 -4 0 -1 -2 -4)
1969/12/31/18:00:13.924,(6 12 3 -3 0 -2 2 2)
1969/12/31/18:00:13.941,(-3 23 13 6 0 1 0 -3)
1969/12/31/18:00:13.942,(8 -17 -8 -13 1 8 10 7)
1969/12/31/18:00:13.943,(40 42 5 6 9 12 16 33)
1969/12/31/18:00:13.943,(-5 -6 -5 -6 -5 -3 0 -4)
1969/12/31/18:00:13.954,(-9 -9 1 -4 -9 -15 -19 -9)
1969/12/31/18:00:13.954,(-26 -10 6 6 -11 -19 -19 -24)
1969/12/31/18:00:13.955,(20 15 1 -9 9 14 13 7)
1969/12/31/18:00:13.955,(-17 -24 -5 1 -1 -2 -6 -6)
1969/12/31/18:00:13.973,(12 3 -4 -3 1 9 14 12)
1969/12/31/18:00:13.973,(6 12 -1 0 -5 -6 -8 0)
1969/12/31/18:00:13.974,(-8 -12 4 5 -3 -5 -8 -10)
1969/12/31/18:00:13.974,(-28 -16 3 5 -3 -4 -4 -12)
1969/12/31/18:00:13.985,(24 27 -6 -3 2 2 3 9)
1969/12/31/18:00:13.985,(-20 -13 -8 -5 -6 -8 -14 -15)
1969/12/31/18:00:13.993,(10 11 9 4 2 4 8 9)
1969/12/31/18:00:13.993,(-8 -11 1 7 -1 -4 -6 -6)
1969/12/31/18:00:14.005,(0 -10 -6 -8 -4 0 3 4)
1969/12/31/18:00:14.005,(32 38 15 11 10 16 20 24)
1969/12/31/18:00:14.007,(-22 -22 -12 -7 -7 -10 -14 -14)
1969/12/31/18:00:14.007,(7 7 -2 1 -3 -3 -5 -3)
1969/12/31/18:00:14.025,(-36 -29 -7 3 -6 -16 -22 -29)
1969/12/31/18:00:14.025,(4 4 6 -3 1 4 8 5)
1969/12/31/18:00:14.026,(84 74 24 8 19 28 34 60)
1969/12/31/18:00:14.026,(-11 -12 -8 -2 -4 -6 -10 -9)
1969/12/31/18:00:14.044,(-40 -34 1 4 2 1 -5 -18)
1969/12/31/18:00:14.044,(-1 -14 -17 -13 -11 -10 -9 -11)
1969/12/31/18:00:14.045,(-28 -30 3 1 1 -5 -9 -21)
1969/12/31/18:00:14.045,(36 44 4 -1 2 6 14 20)
1969/12/31/18:00:14.057,(-1 -3 0 1 2 3 0 0)
1969/12/31/18:00:14.057,(-4 -5 -4 0 1 1 0 -1)
1969/12/31/18:00:14.058,(-39 -42 -12 -1 -6 -11 -13 -21)
1969/12/31/18:00:14.058,(41 21 12 -5 -4 1 9 13)
1969/12/31/18:00:14.076,(4 11 -4 0 -1 -2 -6 -6)
1969/12/31/18:00:14.076,(18 9 1 5 10 10 9 11)
1969/12/31/18:00:14.077,(-3 -1 -6 -3 -6 -5 -5 -6)
1969/12/31/18:00:14.077,(-19 -22 -3 3 1 -2 -7 -9)
1969/12/31/18:00:14.096,(0 1 2 -1 -3 -3 1 0)
1969/12/31/18:00:14.096,(63 57 19 12 11 15 29 63)
1969/12/31/18:00:14.097,(-29 -24 -12 -5 -9 -11 -21 -28)
1969/12/31/18:00:14.097,(-9 -4 -1 -1 -3 -4 -7 -9)
1969/12/31/18:00:14.108,(-8 -25 2 5 2 5 11 19)
1969/12/31/18:00:14.108,(1 27 -6 -14 -13 -22 -34 -37)
1969/12/31/18:00:14.120,(21 14 1 4 9 12 10 13)
1969/12/31/18:00:14.120,(-6 1 0 1 1 3 1 -1)
1969/12/31/18:00:14.127,(-5 -25 -9 -8 -4 -4 -2 -2)
1969/12/31/18:00:14.127,(14 11 5 6 0 0 -1 0)
1969/12/31/18:00:14.128,(-42 -42 -9 0 -6 -11 -11 -21)
1969/12/31/18:00:14.128,(53 38 5 -4 2 5 15 40)
1969/12/31/18:00:14.146,(8 26 5 -8 3 6 2 -11)
1969/12/31/18:00:14.147,(-31 -29 -5 2 -3 -3 -6 -15)
1969/12/31/18:00:14.148,(-6 -2 -3 -3 -3 -2 -3 -9)
1969/12/31/18:00:14.148,(1 -4 1 5 0 -1 -1 4)
1969/12/31/18:00:14.158,(7 4 -2 -7 -4 -1 2 10)
1969/12/31/18:00:14.158,(-10 -6 4 3 2 4 7 -1)
1969/12/31/18:00:14.166,(-10 -11 -5 -4 -4 -6 -7 -9)
1969/12/31/18:00:14.166,(-31 -9 -5 5 -4 -9 -10 -19)
1969/12/31/18:00:14.179,(10 9 3 -8 -4 -1 3 10)
1969/12/31/18:00:14.179,(19 2 -2 1 11 12 12 12)
1969/12/31/18:00:14.180,(16 12 2 -1 1 4 6 11)
1969/12/31/18:00:14.180,(-21 -12 -4 -1 -3 -8 -9 -18)
1969/12/31/18:00:14.198,(-3 -18 5 12 -6 -11 -3 3)
1969/12/31/18:00:14.198,(43 54 26 0 20 26 29 40)
1969/12/31/18:00:14.199,(33 29 20 11 6 5 11 28)
1969/12/31/18:00:14.199,(21 29 -2 -6 4 7 5 6)
1969/12/31/18:00:14.209,(-18 0 -9 1 -2 -7 -17 -28)
1969/12/31/18:00:14.209,(-38 -42 -9 -6 -9 -9 -10 -19)
1969/12/31/18:00:14.217,(3 6 0 -1 -2 -3 -4 -6)
1969/12/31/18:00:14.217,(-4 3 4 -2 0 1 -1 -4)
1969/12/31/18:00:14.243,(5 2 2 3 5 7 12 14)
1969/12/31/18:00:14.243,(-18 -14 -4 2 -4 -8 -11 -14)
1969/12/31/18:00:14.244,(-7 -6 -6 -9 -5 -2 -1 -7)
1969/12/31/18:00:14.244,(-12 -17 -5 0 -2 -1 -1 -3)
1969/12/31/18:00:14.249,(-15 -12 -7 4 -1 -2 -9 -13)
1969/12/31/18:00:14.249,(-15 -13 -5 -2 -3 -5 -7 -11)
1969/12/31/18:00:14.250,(35 29 7 -4 9 14 21 31)
1969/12/31/18:00:14.250,(-3 -12 -1 1 0 2 2 0)
1969/12/31/18:00:14.268,(16 11 -2 1 5 7 5 8)
1969/12/31/18:00:14.268,(-26 -15 -6 1 -11 -17 -22 -29)
1969/12/31/18:00:14.270,(-48 -43 -11 -2 -8 -10 -13 -23)
1969/12/31/18:00:14.270,(13 39 2 0 -3 -7 -14 -18)
1969/12/31/18:00:14.281,(16 6 -1 -7 7 11 11 17)
1969/12/31/18:00:14.281,(-9 -16 -9 0 -3 -1 5 3)
1969/12/31/18:00:14.283,(-4 -1 -7 -4 -5 -3 -4 -7)
1969/12/31/18:00:14.283,(-17 -27 -5 -3 -6 -3 -3 -7)
1969/12/31/18:00:14.301,(-6 0 -2 -7 -17 -19 -10 -10)
1969/12/31/18:00:14.301,(1 4 -3 -7 -17 -6 -1 1)
1969/12/31/18:00:14.302,(-3 -4 -1 6 15 12 4 0)
1969/12/31/18:00:14.302,(-1 -4 1 10 37 21 12 6)
1969/12/31/18:00:14.312,(16 14 7 -2 12 15 12 10)
1969/12/31/18:00:14.312,(-6 -9 -3 5 -8 -6 0 0)
1969/12/31/18:00:14.320,(-3 0 -1 -9 -19 -12 -6 -5)
1969/12/31/18:00:14.320,(-3 -6 1 9 -5 -7 -3 2)
1969/12/31/18:00:14.333,(11 9 6 3 5 1 0 4)
1969/12/31/18:00:14.333,(-21 -19 -8 -3 -2 -8 -9 -13)
1969/12/31/18:00:14.334,(6 7 2 -3 -5 0 1 0)
1969/12/31/18:00:14.334,(8 2 -1 -10 -5 1 5 8)
1969/12/31/18:00:14.352,(-8 -8 -5 -2 0 -1 -3 -6)
1969/12/31/18:00:14.352,(-8 -2 -1 -2 -1 -2 -5 -7)
1969/12/31/18:00:14.354,(-8 -3 -4 -2 -2 -1 0 -2)
1969/12/31/18:00:14.354,(17 8 5 0 4 10 16 16)
1969/12/31/18:00:14.363,(-4 2 1 4 -1 2 2 2)
1969/12/31/18:00:14.363,(-6 -8 -5 -3 0 -5 -12 -13)
1969/12/31/18:00:14.371,(5 0 -3 -2 1 0 3 6)
1969/12/31/18:00:14.371,(-27 -42 -8 -6 -11 -14 -14 -17)
1969/12/31/18:00:14.384,(16 21 5 4 3 8 11 10)
1969/12/31/18:00:14.384,(7 5 3 0 7 7 11 12)
1969/12/31/18:00:14.385,(15 16 4 2 -1 -7 -3 10)
1969/12/31/18:00:14.385,(-53 -54 -8 -1 -12 -13 -17 -27)
1969/12/31/18:00:14.404,(56 52 11 -2 7 13 18 26)
1969/12/31/18:00:14.404,(29 11 4 3 6 10 16 28)
1969/12/31/18:00:14.404,(-1 -7 -12 1 5 0 -7 -13)
1969/12/31/18:00:14.404,(30 30 10 0 0 6 10 15)
1969/12/31/18:00:14.416,(-34 -35 -9 -1 -3 -10 -16 -20)
1969/12/31/18:00:14.416,(1 7 3 -3 -1 0 2 0)
1969/12/31/18:00:14.421,(-13 -7 -3 0 -3 -4 -7 -11)
1969/12/31/18:00:14.421,(11 15 -3 -4 -3 -3 1 8)
1969/12/31/18:00:14.435,(-2 -8 -2 1 4 4 4 1)
1969/12/31/18:00:14.435,(9 8 -2 -3 3 5 1 7)
1969/12/31/18:00:14.436,(-20 -14 0 3 -2 -4 -7 -10)
1969/12/31/18:00:14.436,(-3 2 -5 -3 -2 -4 -6 -7)
1969/12/31/18:00:14.454,(-5 -3 2 -3 -8 -8 -6 -2)
1969/12/31/18:00:14.454,(-15 -12 -6 -2 -3 -6 -7 -11)
1969/12/31/18:00:14.456,(-2 -4 0 -3 -4 1 2 -1)
1969/12/31/18:00:14.456,(-4 4 2 4 0 -4 -4 -2)
1969/12/31/18:00:14.466,(30 11 -1 9 20 17 18 23)
1969/12/31/18:00:14.466,(-1 2 4 2 5 4 1 -1)
1969/12/31/18:00:14.479,(5 1 -2 -3 0 0 2 3)
1969/12/31/18:00:14.479,(-6 -2 -3 -8 -7 -3 -3 -5)
1969/12/31/18:00:14.486,(-18 -13 -5 -8 -14 -10 -10 -11)
1969/12/31/18:00:14.486,(-5 -6 -17 -54 -14 -7 -6 -5)
1969/12/31/18:00:14.499,(1 4 7 30 -14 -2 2 1)
1969/12/31/18:00:14.499,(6 6 11 38 24 7 5 6)
1969/12/31/18:00:14.506,(-14 -6 6 22 25 6 -3 -10)
1969/12/31/18:00:14.506,(-1 2 7 14 7 6 5 0)
1969/12/31/18:00:14.507,(-1 2 -5 -19 -8 -6 -4 -2)
1969/12/31/18:00:14.507,(6 -3 -13 -47 -36 -13 -3 4)
1969/12/31/18:00:14.517,(2 4 16 13 -32 -6 -2 -2)
1969/12/31/18:00:14.517,(-1 7 7 29 36 10 1 -3)
1969/12/31/18:00:14.525,(0 -7 -22 0 29 8 3 3)
1969/12/31/18:00:14.525,(4 -9 -19 -12 4 5 -1 2)
1969/12/31/18:00:14.537,(-26 -17 -4 -39 -25 -13 -10 -18)
1969/12/31/18:00:14.537,(0 5 9 -16 -23 -5 1 0)
1969/12/31/18:00:14.543,(14 12 1 -29 -11 -2 4 8)
1969/12/31/18:00:14.543,(14 10 -4 55 19 -3 5 11)
1969/12/31/18:00:14.557,(-10 -12 3 18 9 -4 -7 -9)
1969/12/31/18:00:14.557,(-13 -2 22 39 22 8 -2 -8)
1969/12/31/18:00:14.558,(4 9 13 -3 4 5 3 3)
1969/12/31/18:00:14.558,(0 -2 -10 -64 -18 -3 0 1)
1969/12/31/18:00:14.576,(4 2 -6 -8 -32 -4 1 4)
1969/12/31/18:00:14.576,(5 1 0 10 -5 -4 0 1)
1969/12/31/18:00:14.578,(2 0 -6 11 9 3 1 2)
1969/12/31/18:00:14.578,(-3 4 24 41 20 3 -2 -4)
1969/12/31/18:00:14.595,(-7 -4 -6 21 29 -1 -6 -4)
1969/12/31/18:00:14.595,(-6 -6 -4 -27 -11 -1 -1 -5)
1969/12/31/18:00:14.597,(-6 -9 -29 -79 -36 -8 -3 -1)
1969/12/31/18:00:14.597,(2 -6 -22 1 -16 -5 0 0)
1969/12/31/18:00:14.608,(-9 -9 -9 -36 -21 -8 -5 -6)
1969/12/31/18:00:14.608,(-1 5 29 74 29 1 -3 -3)
1969/12/31/18:00:14.610,(3 7 14 57 48 13 7 2)
1969/12/31/18:00:14.610,(1 1 3 -25 1 12 9 3)
1969/12/31/18:00:14.620,(1 4 8 6 0 1 0 2)
1969/12/31/18:00:14.620,(1 -4 -15 -24 -27 -17 -9 -2)
1969/12/31/18:00:14.628,(-3 1 19 -7 -21 -12 -8 -5)
1969/12/31/18:00:14.628,(0 0 -9 -12 -5 0 0 -2)
1969/12/31/18:00:14.640,(4 -13 -41 -25 10 6 3 3)
1969/12/31/18:00:14.640,(-11 -13 -6 -21 -16 -5 -4 -6)
1969/12/31/18:00:14.646,(3 9 25 32 2 -2 0 3)
1969/12/31/18:00:14.646,(1 6 7 18 20 13 4 1)
1969/12/31/18:00:14.659,(2 2 7 10 10 2 -1 -1)
1969/12/31/18:00:14.659,(-2 -5 -16 -7 -4 -2 1 0)
1969/12/31/18:00:14.661,(-2 -6 0 -11 -7 -1 -1 -3)
1969/12/31/18:00:14.661,(1 9 10 -1 -5 6 3 -1)
1969/12/31/18:00:14.671,(7 5 -11 -14 -3 -2 1 4)
1969/12/31/18:00:14.671,(-3 -2 -1 9 3 -2 -1 -2)
1969/12/31/18:00:14.679,(-3 -7 -11 14 -3 -7 -5 -1)
1969/12/31/18:00:14.679,(-12 -6 14 -14 -5 -3 -4 -5)
1969/12/31/18:00:14.691,(0 5 -7 12 7 -1 -1 -3)
1969/12/31/18:00:14.691,(3 -3 -8 -19 -8 1 3 3)
1969/12/31/18:00:14.697,(-1 4 9 9 15 9 6 0)
1969/12/31/18:00:14.697,(-2 2 2 8 7 -2 -2 0)
1969/12/31/18:00:14.724,(4 3 8 -1 4 3 2 1)
1969/12/31/18:00:14.724,(2 -4 -9 -12 -7 0 1 1)
1969/12/31/18:00:14.726,(-2 -2 -2 2 -5 -2 -3 -3)
1969/12/31/18:00:14.726,(6 2 -1 22 9 0 3 6)
1969/12/31/18:00:14.726,(-2 1 6 -6 -4 4 4 -1)
1969/12/31/18:00:14.726,(3 1 -8 5 0 -4 -3 2)
1969/12/31/18:00:14.736,(-3 -3 -10 -17 -3 4 2 -2)
1969/12/31/18:00:14.736,(3 -3 -4 -11 -15 -6 -1 1)
1969/12/31/18:00:14.742,(-7 -6 3 13 2 -7 -9 -4)
1969/12/31/18:00:14.742,(-5 -1 -1 -2 5 6 3 -2)
1969/12/31/18:00:14.748,(-3 0 9 -15 -16 -8 -3 -3)
1969/12/31/18:00:14.748,(0 4 2 -8 -3 -3 -3 -2)
1969/12/31/18:00:14.762,(8 3 -4 28 18 8 6 5)
1969/12/31/18:00:14.762,(2 5 5 -9 7 5 3 2)
1969/12/31/18:00:14.764,(-2 -2 -3 11 2 -3 -5 -2)
1969/12/31/18:00:14.764,(-2 -4 -4 -10 -11 -5 1 1)
1969/12/31/18:00:14.774,(1 1 -1 -16 -8 -3 0 1)
1969/12/31/18:00:14.774,(-4 -8 -15 -14 -9 -2 -4 -5)
1969/12/31/18:00:14.781,(4 3 9 31 11 2 4 4)
1969/12/31/18:00:14.781,(-4 -3 -6 -18 -11 -3 -2 -4)
1969/12/31/18:00:14.793,(-2 -6 -6 -10 -4 -5 -3 -1)
1969/12/31/18:00:14.793,(-5 1 13 23 8 -2 -2 -2)
1969/12/31/18:00:14.799,(-2 -5 -10 -17 -8 -2 -2 -2)
1969/12/31/18:00:14.799,(-16 -15 2 10 1 3 -5 -14)
1969/12/31/18:00:14.813,(13 18 27 25 14 7 9 13)
1969/12/31/18:00:14.813,(3 -6 -17 -22 -14 -6 -2 0)
1969/12/31/18:00:14.815,(-5 -6 -3 2 4 2 -2 -5)
1969/12/31/18:00:14.815,(6 8 0 -2 1 2 7 7)
1969/12/31/18:00:14.839,(-7 -10 -13 -16 -14 -4 -5 -5)
1969/12/31/18:00:14.839,(-4 0 4 9 6 0 0 -3)
1969/12/31/18:00:14.841,(7 2 -5 -15 -3 -1 2 6)
1969/12/31/18:00:14.841,(-14 -5 -15 -43 -22 -6 -7 -13)
1969/12/31/18:00:14.845,(0 -1 17 57 23 2 1 3)
1969/12/31/18:00:14.845,(9 8 7 11 8 1 3 11)
1969/12/31/18:00:14.858,(-6 -9 2 3 4 2 0 -2)
1969/12/31/18:00:14.858,(3 3 2 1 -1 -1 -1 -2)
1969/12/31/18:00:14.864,(-4 -1 -5 -12 -13 -6 -6 -6)
1969/12/31/18:00:14.864,(1 1 -11 -16 1 4 2 -3)
1969/12/31/18:00:14.866,(1 -1 -4 -2 -1 1 0 -2)
1969/12/31/18:00:14.866,(0 2 13 21 8 1 -2 2)
1969/12/31/18:00:14.884,(0 -3 -13 -22 -9 0 3 0)
1969/12/31/18:00:14.884,(-2 0 7 5 -3 0 -2 -3)
1969/12/31/18:00:14.886,(-1 5 -3 -3 -3 -2 -3 -1)
1969/12/31/18:00:14.886,(4 0 -1 10 5 0 0 4)
1969/12/31/18:00:14.896,(-1 -1 2 -5 1 2 1 -1)
1969/12/31/18:00:14.896,(-1 0 -1 -3 -2 -1 -2 -1)
1969/12/31/18:00:14.904,(-2 0 0 8 2 0 -1 1)
1969/12/31/18:00:14.904,(-4 -3 3 6 2 -2 -3 -5)
1969/12/31/18:00:14.916,(0 3 -7 -11 -6 -2 -2 0)
1969/12/31/18:00:14.916,(0 -4 -8 -1 -1 1 3 3)
1969/12/31/18:00:14.917,(1 -2 -6 -7 -5 -1 0 0)
1969/12/31/18:00:14.917,(5 4 5 10 8 2 2 5)
1969/12/31/18:00:14.935,(0 0 -4 -11 -4 -1 -2 -2)
1969/12/31/18:00:14.935,(-6 -2 6 7 -2 -6 -6 -6)
1969/12/31/18:00:14.937,(-3 -4 -2 -7 -4 1 -3 -2)
1969/12/31/18:00:14.937,(1 0 1 6 10 7 6 5)
1969/12/31/18:00:14.947,(3 -2 -7 -7 -16 -6 -3 0)
1969/12/31/18:00:14.947,(-3 0 6 -1 17 4 0 -2)
1969/12/31/18:00:14.955,(6 5 0 12 11 6 5 4)
1969/12/31/18:00:14.955,(1 1 2 9 4 -1 -2 0)
1969/12/31/18:00:14.967,(-4 -2 3 -3 -4 -1 -2 -3)
1969/12/31/18:00:14.967,(-1 -2 -6 -7 -13 -2 -1 -1)
1969/12/31/18:00:14.969,(-3 -2 -3 -3 -4 -4 0 -2)
1969/12/31/18:00:14.969,(0 -1 -1 -2 -3 -2 -1 0)
1969/12/31/18:00:14.987,(-3 0 3 -1 1 0 -1 0)
1969/12/31/18:00:14.987,(2 -2 -3 -1 -3 -1 1 1)
1969/12/31/18:00:14.988,(0 0 2 4 2 -3 -2 -1)
1969/12/31/18:00:14.988,(-3 -2 -2 -4 -10 -3 -4 -1)
1969/12/31/18:00:14.999,(-7 -4 1 0 6 0 0 -4)
1969/12/31/18:00:14.999,(4 2 -6 -6 -7 -1 3 3)
1969/12/31/18:00:15.006,(5 3 0 5 -2 -7 -3 1)
1969/12/31/18:00:15.006,(-3 -2 6 0 5 3 0 1)
1969/12/31/18:00:15.018,(-5 -3 -7 -10 -8 -4 -4 -5)
1969/12/31/18:00:15.018,(1 3 -3 -20 -9 -3 -1 0)
1969/12/31/18:00:15.020,(2 2 4 15 10 7 2 0)
1969/12/31/18:00:15.020,(-1 4 8 25 17 2 -2 -2)
1969/12/31/18:00:15.038,(2 2 8 15 16 3 -1 -1)
1969/12/31/18:00:15.038,(-3 -4 -4 -4 -14 -5 -3 -2)
1969/12/31/18:00:15.039,(0 -1 -9 -23 -16 -5 -3 -1)
1969/12/31/18:00:15.040,(1 0 -6 -10 -5 -4 -1 -2)
1969/12/31/18:00:15.050,(-3 -2 -1 0 -3 -2 1 -1)
1969/12/31/18:00:15.050,(-1 1 -1 1 2 -3 -3 -1)
1969/12/31/18:00:15.058,(-5 -2 2 -2 -3 -1 -1 -3)
1969/12/31/18:00:15.058,(-1 0 -2 -2 -3 -4 -2 -3)
1969/12/31/18:00:15.070,(1 -2 -2 1 2 2 1 3)
1969/12/31/18:00:15.070,(0 -1 1 5 2 3 -1 0)
1969/12/31/18:00:15.071,(-3 -1 4 2 3 0 1 0)
1969/12/31/18:00:15.071,(0 -2 -4 -3 -3 -2 -1 -2)
1969/12/31/18:00:15.089,(2 3 -3 -6 -7 -1 2 3)
1969/12/31/18:00:15.089,(-3 1 3 7 4 1 -2 0)
1969/12/31/18:00:15.091,(-4 -3 0 1 0 -1 0 -1)
1969/12/31/18:00:15.091,(0 0 -6 -8 -6 0 1 1)
1969/12/31/18:00:15.101,(0 0 2 -1 2 0 2 1)
1969/12/31/18:00:15.101,(0 0 3 8 4 1 -3 -4)
1969/12/31/18:00:15.115,(-2 -2 -4 -4 -2 0 1 0)
1969/12/31/18:00:15.115,(4 -1 -5 -3 -2 0 0 3)
1969/12/31/18:00:15.120,(-1 1 0 0 0 1 0 0)
1969/12/31/18:00:15.120,(0 -2 1 0 1 0 1 1)
1969/12/31/18:00:15.128,(-1 -2 1 -3 -1 -1 -1 -2)
1969/12/31/18:00:15.128,(1 -2 -2 -1 1 3 3 1)
1969/12/31/18:00:15.141,(0 1 -1 1 0 -1 -3 -1)
1969/12/31/18:00:15.142,(-3 1 -1 1 1 -1 -1 -2)
1969/12/31/18:00:15.142,(0 1 -2 -3 -4 -1 -1 0)
1969/12/31/18:00:15.142,(2 2 -1 4 -1 -2 1 3)
1969/12/31/18:00:15.153,(-5 -3 2 1 0 -3 -3 -5)
1969/12/31/18:00:15.153,(-2 -2 1 0 0 0 -1 -1)
1969/12/31/18:00:15.160,(-1 -1 -1 -2 0 0 0 0)
1969/12/31/18:00:15.160,(0 -1 -2 -2 -2 0 -1 -2)
1969/12/31/18:00:15.172,(1 -1 -2 -1 -1 -1 -1 -1)
1969/12/31/18:00:15.173,(0 -1 -4 1 1 -1 -1 1)
1969/12/31/18:00:15.174,(-2 -1 -1 -1 0 0 0 -2)
1969/12/31/18:00:15.174,(1 0 0 -1 -2 -1 1 0)
1969/12/31/18:00:15.192,(-1 -2 0 -1 0 0 -2 -2)
1969/12/31/18:00:15.192,(-1 1 2 0 -2 -1 -2 -2)
1969/12/31/18:00:15.194,(-1 0 0 -2 -3 -2 -2 -1)
1969/12/31/18:00:15.194,(0 -1 1 0 2 1 0 1)
1969/12/31/18:00:15.204,(0 -1 1 1 -1 1 0 -1)
1969/12/31/18:00:15.204,(0 -2 -2 -1 -1 -1 0 0)
1969/12/31/18:00:15.212,(1 -2 0 2 0 -1 -1 -1)
1969/12/31/18:00:15.212,(-4 -1 0 -1 -1 -2 -4 -3)
1969/12/31/18:00:15.224,(0 0 1 -4 -2 -1 1 0)
1969/12/31/18:00:15.224,(0 0 0 -1 0 -1 0 0)
1969/12/31/18:00:15.225,(-1 0 0 1 0 -1 -1 -1)
1969/12/31/18:00:15.225,(0 0 0 -2 -2 -1 -1 -1)
1969/12/31/18:00:15.243,(0 -1 -2 1 1 0 -1 -1)
1969/12/31/18:00:15.243,(2 -1 0 1 0 0 1 -1)
1969/12/31/18:00:15.245,(1 -3 -1 -1 -2 -1 1 1)
1969/12/31/18:00:15.245,(0 2 0 -3 -6 5 5 0)
1969/12/31/18:00:15.255,(5 7 -3 6 3 0 -3 1)
1969/12/31/18:00:15.255,(-6 -9 -6 -6 -3 -5 -7 -5)
1969/12/31/18:00:15.263,(-2 0 9 4 5 4 0 -2)
1969/12/31/18:00:15.263,(-6 -7 -4 -2 0 -1 -2 -3)
1969/12/31/18:00:15.275,(-1 -3 -1 -6 -5 -1 2 -2)
1969/12/31/18:00:15.275,(6 5 0 0 -12 0 4 3)
1969/12/31/18:00:15.277,(3 1 -8 -2 -3 -1 0 0)
1969/12/31/18:00:15.277,(3 -1 -4 1 17 7 4 3)
1969/12/31/18:00:15.295,(3 6 9 7 0 3 1 1)
1969/12/31/18:00:15.295,(-4 -1 -2 9 11 2 -3 -4)
1969/12/31/18:00:15.296,(-5 -8 0 -8 -9 -4 -3 -4)
1969/12/31/18:00:15.296,(-1 3 2 0 -5 -1 -2 -3)
1969/12/31/18:00:15.307,(-3 -6 -6 -4 0 -3 -1 -3)
1969/12/31/18:00:15.307,(3 3 1 -3 -5 0 1 2)
1969/12/31/18:00:15.320,(-1 1 -1 -2 -2 -3 -3 -3)
1969/12/31/18:00:15.320,(3 -2 -3 0 -1 -1 0 4)
1969/12/31/18:00:15.326,(1 0 0 0 3 0 2 3)
1969/12/31/18:00:15.326,(1 -1 -1 -1 -2 -1 0 0)
1969/12/31/18:00:15.328,(0 0 -3 0 3 2 2 2)
1969/12/31/18:00:15.328,(0 -1 0 -1 -4 -5 -3 -2)
1969/12/31/18:00:15.328,(-5 -4 2 6 3 -3 -3 -4)
1969/12/31/18:00:15.328,(-3 -4 0 -4 -4 -3 -2 -1)
1969/12/31/18:00:15.329,(-2 3 2 2 -1 0 -3 -4)
1969/12/31/18:00:15.329,(3 0 -2 -2 -1 -1 4 5)
1969/12/31/18:00:15.341,(-2 -2 0 4 2 0 -1 0)
1969/12/31/18:00:15.341,(3 -1 -2 -3 -7 -1 3 3)
1969/12/31/18:00:15.342,(2 3 1 2 17 3 2 4)
1969/12/31/18:00:15.342,(-3 -1 1 -4 -8 -1 -6 -5)
1969/12/31/18:00:15.366,(1 -4 -2 -1 0 -1 2 2)
1969/12/31/18:00:15.366,(-1 0 0 -1 0 -1 -1 -3)
1969/12/31/18:00:15.367,(0 0 -3 -10 -16 -5 -2 1)
1969/12/31/18:00:15.367,(-1 -3 -3 -11 1 -1 2 -1)
1969/12/31/18:00:15.380,(-1 0 2 22 4 1 -1 -2)
1969/12/31/18:00:15.380,(-1 3 4 8 25 4 -1 -3)
1969/12/31/18:00:15.380,(0 -2 0 -1 -10 0 0 1)
1969/12/31/18:00:15.380,(-3 -3 -7 -17 -11 -5 -1 0)
1969/12/31/18:00:15.392,(-6 -2 0 -7 -15 -9 -3 -6)
1969/12/31/18:00:15.392,(-5 -6 -8 -2 -3 1 1 -1)
1969/12/31/18:00:15.392,(6 5 0 -4 5 2 3 3)
1969/12/31/18:00:15.392,(2 4 10 20 7 4 -3 2)
1969/12/31/18:00:15.411,(4 0 4 5 -7 2 1 3)
1969/12/31/18:00:15.411,(0 4 4 12 22 3 -3 -3)
1969/12/31/18:00:15.412,(-5 -8 -14 -40 -28 -8 -3 -3)
1969/12/31/18:00:15.412,(-2 -5 -18 -71 -58 -19 -3 -3)
1969/12/31/18:00:15.431,(1 2 -14 18 42 4 -3 1)
1969/12/31/18:00:15.431,(3 8 46 101 47 24 7 3)
1969/12/31/18:00:15.431,(-13 -2 34 60 34 15 1 -7)
1969/12/31/18:00:15.431,(13 12 -12 -12 4 -4 -2 6)
1969/12/31/18:00:15.443,(-3 -8 -26 -70 -78 -26 -9 -6)
1969/12/31/18:00:15.443,(3 -3 -24 -74 -22 -10 1 2)
1969/12/31/18:00:15.444,(-5 -3 5 19 32 5 -5 -4)
1969/12/31/18:00:15.444,(-4 -12 -1 78 44 22 3 1)
1969/12/31/18:00:15.462,(-3 6 27 -9 2 2 4 0)
1969/12/31/18:00:15.462,(2 -2 -28 -38 -35 -20 -11 -4)
1969/12/31/18:00:15.463,(9 -2 -13 -24 -17 -1 6 7)
1969/12/31/18:00:15.463,(4 20 9 -12 -8 -7 -4 -4)
1969/12/31/18:00:15.482,(1 -11 -23 11 1 1 -2 1)
1969/12/31/18:00:15.482,(-10 -17 -6 -16 -11 -3 -3 -5)
1969/12/31/18:00:15.483,(-11 -17 -18 -51 -23 -17 -11 -5)
1969/12/31/18:00:15.483,(-12 -9 19 41 -4 -2 -1 -6)
1969/12/31/18:00:15.502,(2 18 55 83 30 14 6 2)
1969/12/31/18:00:15.502,(18 34 7 20 44 23 14 13)
1969/12/31/18:00:15.502,(18 2 -45 -60 -51 -9 1 9)
1969/12/31/18:00:15.502,(-19 -35 -33 -61 -26 -9 -10 -12)
1969/12/31/18:00:15.513,(-2 3 15 44 61 17 7 1)
1969/12/31/18:00:15.513,(-3 -1 0 35 10 -4 -7 -5)
1969/12/31/18:00:15.514,(3 -8 -9 -6 16 4 0 4)
1969/12/31/18:00:15.514,(-22 -19 2 -116 -81 -26 -13 -14)
1969/12/31/18:00:15.533,(-4 -4 -7 -105 -76 -19 -3 -3)
1969/12/31/18:00:15.533,(18 24 0 99 70 20 7 8)
1969/12/31/18:00:15.534,(10 5 15 49 46 11 -1 5)
1969/12/31/18:00:15.534,(-20 -8 50 55 64 5 -7 -10)
1969/12/31/18:00:15.546,(-8 -5 -11 -80 -19 -3 1 -3)
1969/12/31/18:00:15.546,(4 2 -3 20 -38 -8 0 4)
1969/12/31/18:00:15.547,(-5 6 5 -19 -46 -16 -3 -5)
1969/12/31/18:00:15.547,(27 17 -53 -7 -16 -2 2 11)
1969/12/31/18:00:15.565,(2 -6 3 20 83 29 9 5)
1969/12/31/18:00:15.565,(-8 -10 17 14 9 5 3 0)
1969/12/31/18:00:15.566,(-20 -12 9 -27 -27 -10 -10 -14)
1969/12/31/18:00:15.566,(4 13 33 71 9 0 3 6)
1969/12/31/18:00:15.585,(3 11 -3 1 -14 -2 0 -2)
1969/12/31/18:00:15.585,(1 -16 -32 -60 -21 -12 -4 0)
1969/12/31/18:00:15.586,(0 5 7 11 15 9 6 -1)
1969/12/31/18:00:15.586,(4 3 -23 -61 -19 -4 6 3)
1969/12/31/18:00:15.597,(-1 -12 -30 -43 -56 -13 -9 -1)
1969/12/31/18:00:15.597,(-6 -10 10 59 44 15 3 -1)
1969/12/31/18:00:15.597,(-2 5 20 -23 7 2 -1 -1)
1969/12/31/18:00:15.597,(7 16 22 115 71 31 15 6)
1969/12/31/18:00:15.616,(-6 -7 -2 39 2 -8 -7 -5)
1969/12/31/18:00:15.616,(-10 -6 2 -51 -30 -15 -11 -8)
1969/12/31/18:00:15.617,(0 4 2 -18 -18 -6 -1 1)
1969/12/31/18:00:15.617,(6 2 -9 -13 0 3 5 5)
1969/12/31/18:00:15.636,(2 2 5 18 4 -4 -2 -1)
1969/12/31/18:00:15.636,(-3 -5 -11 -49 -29 -11 -4 -4)
1969/12/31/18:00:15.637,(2 6 6 39 15 6 4 1)
1969/12/31/18:00:15.637,(0 -4 -5 -21 0 -5 -3 -1)
1969/12/31/18:00:15.649,(2 4 0 7 -2 -4 -1 1)
1969/12/31/18:00:15.649,(-5 -5 -4 -34 -25 -8 -4 -3)
1969/12/31/18:00:15.649,(3 2 -2 18 19 5 3 2)
1969/12/31/18:00:15.649,(0 -3 1 -18 -9 -3 -2 -3)
1969/12/31/18:00:15.667,(1 0 -1 14 10 0 -1 1)
1969/12/31/18:00:15.667,(-1 -2 1 -5 -5 -2 1 -1)
1969/12/31/18:00:15.668,(-2 -3 -7 2 -2 0 -1 -2)
1969/12/31/18:00:15.668,(1 0 0 1 3 0 -1 0)
1969/12/31/18:00:15.687,(0 -2 -6 8 6 2 -1 0)
1969/12/31/18:00:15.688,(-2 0 3 -34 -15 -6 -4 -1)
1969/12/31/18:00:15.688,(3 3 3 25 10 4 2 3)
1969/12/31/18:00:15.688,(-2 -2 -3 -8 3 2 0 -1)
1969/12/31/18:00:15.700,(-1 -3 -2 11 3 3 1 0)
1969/12/31/18:00:15.700,(0 1 1 -13 -9 -2 1 2)
1969/12/31/18:00:15.700,(-1 2 0 6 9 0 -1 -2)
1969/12/31/18:00:15.700,(2 0 -1 8 4 2 2 3)
1969/12/31/18:00:15.719,(-2 0 2 -5 -3 -2 -2 -1)
1969/12/31/18:00:15.719,(-1 -1 -1 -7 -13 -3 -2 1)
1969/12/31/18:00:15.720,(-3 -1 -1 9 -2 1 0 2)
1969/12/31/18:00:15.720,(-1 -1 -3 2 -1 -1 -5 -3)
1969/12/31/18:00:15.738,(5 8 0 -5 -1 0 -3 -4)
1969/12/31/18:00:15.738,(-10 -8 4 -3 -1 3 2 -7)
1969/12/31/18:00:15.739,(-1 -2 -6 7 -1 -3 -4 -3)
1969/12/31/18:00:15.739,(-8 -7 -1 6 4 1 -2 -1)
1969/12/31/18:00:15.751,(2 5 -3 -8 -5 0 2 5)
1969/12/31/18:00:15.751,(0 -4 3 4 4 3 3 6)
1969/12/31/18:00:15.751,(3 3 -1 -6 0 0 -1 -4)
1969/12/31/18:00:15.752,(12 4 3 5 1 0 3 4)
1969/12/31/18:00:15.770,(-2 -4 -3 4 5 -3 -7 -10)
1969/12/31/18:00:15.770,(-15 -2 2 1 -2 1 -2 -9)
1969/12/31/18:00:15.771,(21 11 3 3 0 4 10 15)
1969/12/31/18:00:15.771,(-7 -11 -3 -1 0 -6 -9 -8)
1969/12/31/18:00:15.790,(-7 -2 0 4 6 3 2 -3)
1969/12/31/18:00:15.790,(0 -5 -5 -6 -5 -3 1 2)
1969/12/31/18:00:15.791,(-27 -19 -6 0 -2 -4 -9 -13)
1969/12/31/18:00:15.791,(17 7 -4 -13 -5 2 6 9)
1969/12/31/18:00:15.803,(0 1 0 -6 -3 -2 1 3)
1969/12/31/18:00:15.803,(-12 -8 -5 -13 -28 -10 -5 -4)
1969/12/31/18:00:15.803,(46 34 11 30 30 10 7 16)
1969/12/31/18:00:15.803,(2 6 11 34 23 12 5 -4)
1969/12/31/18:00:15.828,(-9 -13 -7 -14 6 -4 -7 -5)
1969/12/31/18:00:15.828,(7 5 13 10 9 6 7 5)
1969/12/31/18:00:15.829,(-30 -19 -11 -24 -21 -10 -19 -23)
1969/12/31/18:00:15.829,(18 15 1 -8 -12 -3 3 10)
1969/12/31/18:00:15.841,(0 -5 -2 -2 -2 -3 4 3)
1969/12/31/18:00:15.841,(14 23 -2 -4 -3 -4 -8 -4)
1969/12/31/18:00:15.842,(-1 -13 -2 -1 -2 0 7 13)
1969/12/31/18:00:15.842,(-16 -4 1 1 7 5 1 -12)
1969/12/31/18:00:15.854,(-8 -9 -1 3 -8 -6 -8 -4)
1969/12/31/18:00:15.854,(-3 -7 -7 -16 -2 -5 -2 1)
1969/12/31/18:00:15.855,(-9 3 -1 -2 -12 -5 -3 -6)
1969/12/31/18:00:15.855,(-3 -5 0 2 -1 1 2 8)
1969/12/31/18:00:15.873,(-7 -1 18 34 26 12 6 2)
1969/12/31/18:00:15.873,(36 22 1 4 -2 -4 -9 -9)
1969/12/31/18:00:15.873,(-3 -15 -18 -61 -39 -6 -2 -1)
1969/12/31/18:00:15.873,(-6 -7 -6 6 13 -3 -4 -4)
1969/12/31/18:00:15.892,(0 1 11 39 13 5 7 8)
1969/12/31/18:00:15.892,(3 13 5 1 12 9 8 10)
1969/12/31/18:00:15.893,(-7 -5 -6 10 -6 -6 -9 -12)
1969/12/31/18:00:15.893,(2 2 2 -3 -1 -4 -3 0)
1969/12/31/18:00:15.904,(-14 -11 -3 -9 0 -2 -3 -9)
1969/12/31/18:00:15.904,(-10 -4 -1 3 -1 -2 2 -3)
1969/12/31/18:00:15.911,(-4 0 1 -14 -8 -4 -2 -7)
1969/12/31/18:00:15.911,(-6 -13 -6 -17 -12 -1 5 13)
1969/12/31/18:00:15.924,(40 18 -7 0 -3 -8 -4 14)
1969/12/31/18:00:15.924,(1 -5 -1 -12 -3 0 -10 -15)
1969/12/31/18:00:15.925,(-26 -20 -6 3 8 1 0 -3)
1969/12/31/18:00:15.925,(13 18 13 17 4 4 8 -1)
1969/12/31/18:00:15.944,(25 5 -6 -17 -13 -8 -6 12)
1969/12/31/18:00:15.944,(-15 -10 -9 -27 -19 -10 -7 -6)
1969/12/31/18:00:15.944,(10 8 3 6 -4 -1 2 5)
1969/12/31/18:00:15.944,(-9 -7 -13 -21 -14 -15 -12 -7)
1969/12/31/18:00:15.956,(-7 5 20 73 12 9 9 1)
1969/12/31/18:00:15.956,(-19 -12 17 51 81 28 12 3)
1969/12/31/18:00:15.962,(7 7 7 28 27 17 4 1)
1969/12/31/18:00:15.962,(16 10 -3 -39 -18 2 6 9)
1969/12/31/18:00:15.975,(4 5 -16 -60 -41 -17 -10 -8)
1969/12/31/18:00:15.975,(-25 -25 -11 -31 -28 -8 1 -6)
1969/12/31/18:00:15.976,(-1 -15 -2 26 8 -4 5 9)
1969/12/31/18:00:15.976,(8 23 -1 -7 3 0 -2 -1)
1969/12/31/18:00:15.995,(7 33 9 5 0 4 2 0)
1969/12/31/18:00:15.996,(-4 -29 -6 -25 -18 -5 -1 3)
1969/12/31/18:00:15.996,(4 3 1 12 5 -1 3 5)
1969/12/31/18:00:15.996,(-4 -3 -5 -22 -21 0 -5 -7)
1969/12/31/18:00:16.007,(-4 -4 5 60 49 7 2 -4)
1969/12/31/18:00:16.007,(9 15 15 60 18 3 2 7)
1969/12/31/18:00:16.014,(5 6 9 15 19 5 1 1)
1969/12/31/18:00:16.014,(-19 -17 -4 -2 -7 -3 -9 -10)
1969/12/31/18:00:16.027,(-2 -10 -15 -69 -26 -5 -2 -2)
1969/12/31/18:00:16.027,(10 19 -14 -25 -31 -12 -3 -3)
1969/12/31/18:00:16.027,(17 4 -28 -110 -60 -19 -11 -3)
1969/12/31/18:00:16.027,(-13 -12 1 55 -3 -8 -7 -10)
1969/12/31/18:00:16.046,(-6 -5 24 71 55 23 9 3)
1969/12/31/18:00:16.046,(2 -2 12 47 45 22 7 7)
1969/12/31/18:00:16.047,(2 10 10 15 15 9 3 2)
1969/12/31/18:00:16.047,(-9 -1 -4 -33 -8 3 5 -5)
1969/12/31/18:00:16.058,(-11 -20 -22 -56 -44 -16 -4 -3)
1969/12/31/18:00:16.058,(16 28 -5 -13 -22 -15 -8 8)
1969/12/31/18:00:16.065,(-21 -19 -4 -38 -22 2 5 -12)
1969/12/31/18:00:16.065,(-8 -10 3 26 30 3 -1 -3)
1969/12/31/18:00:16.078,(-32 -35 2 39 22 3 -5 -15)
1969/12/31/18:00:16.078,(22 34 4 -8 1 4 7 12)
1969/12/31/18:00:16.079,(-7 -4 -2 -3 -5 -4 -4 -1)
1969/12/31/18:00:16.079,(3 -3 -8 -25 -27 -6 -2 1)
1969/12/31/18:00:16.098,(-10 -9 -16 -64 -29 -5 -5 -9)
1969/12/31/18:00:16.098,(-4 -15 5 39 3 0 1 3)
1969/12/31/18:00:16.098,(10 19 20 57 47 13 8 11)
1969/12/31/18:00:16.098,(4 5 1 -10 -5 1 -1 1)
1969/12/31/18:00:16.109,(2 -1 -22 -60 -26 -9 -3 0)
1969/12/31/18:00:16.109,(-6 -11 1 33 -16 -1 -3 -4)
1969/12/31/18:00:16.116,(5 13 19 57 41 3 2 0)
1969/12/31/18:00:16.116,(-8 -10 7 15 22 4 0 -1)
1969/12/31/18:00:16.129,(10 10 -4 -39 -30 -7 1 6)
1969/12/31/18:00:16.129,(0 -6 -14 -36 -12 -4 0 -2)
1969/12/31/18:00:16.130,(-5 -2 6 26 22 9 1 -3)
1969/12/31/18:00:16.130,(2 2 0 17 24 7 2 1)
1969/12/31/18:00:16.149,(-2 3 1 3 -3 -3 1 3)
1969/12/31/18:00:16.149,(-9 -12 -5 -7 -10 -9 -2 0)
1969/12/31/18:00:16.151,(9 19 -4 -16 -15 -7 -4 1)
1969/12/31/18:00:16.151,(0 -21 -13 -21 -16 -11 -10 -7)
1969/12/31/18:00:16.169,(8 16 3 14 4 4 -2 -6)
1969/12/31/18:00:16.169,(-17 -16 2 4 13 6 2 -3)
1969/12/31/18:00:16.170,(0 -7 -8 -13 -14 -8 -5 -1)
1969/12/31/18:00:16.170,(19 28 12 2 1 8 12 9)
1969/12/31/18:00:16.180,(1 -8 3 21 11 -1 -4 0)
1969/12/31/18:00:16.180,(-7 -7 -4 -20 -4 -4 -4 -7)
1969/12/31/18:00:16.188,(-1 -6 -11 -28 -20 -6 1 2)
1969/12/31/18:00:16.188,(-2 -2 1 0 -8 -1 -1 2)
1969/12/31/18:00:16.200,(3 4 3 19 18 2 1 2)
1969/12/31/18:00:16.200,(-5 1 6 12 6 2 -3 -8)
1969/12/31/18:00:16.202,(-1 -7 3 31 10 7 4 3)
1969/12/31/18:00:16.202,(0 0 4 17 14 4 2 2)
1969/12/31/18:00:16.220,(10 11 -2 -26 -8 2 7 7)
1969/12/31/18:00:16.220,(5 0 -6 -23 -10 -5 -3 0)
1969/12/31/18:00:16.221,(-4 0 -4 -4 -12 -6 -5 -5)
1969/12/31/18:00:16.221,(-8 -7 -6 -20 -9 -7 -6 -4)
1969/12/31/18:00:16.232,(-3 -5 -3 12 -2 0 3 -2)
1969/12/31/18:00:16.232,(5 3 1 7 9 -1 -3 1)
1969/12/31/18:00:16.239,(-8 -10 -1 -3 1 1 4 5)
1969/12/31/18:00:16.239,(5 8 -1 1 0 -3 -4 -2)
1969/12/31/18:00:16.251,(19 12 5 -6 -2 3 6 16)
1969/12/31/18:00:16.251,(20 11 -4 -2 -10 -6 0 -1)
1969/12/31/18:00:16.253,(-5 -6 -2 -4 -3 0 2 0)
1969/12/31/18:00:16.253,(-1 6 6 11 11 2 -2 -2)
1969/12/31/18:00:16.271,(-15 -8 5 11 9 1 -5 -11)
1969/12/31/18:00:16.271,(-5 -9 -9 -8 2 6 5 4)
1969/12/31/18:00:16.272,(19 9 -7 -8 -6 -5 -1 7)
1969/12/31/18:00:16.272,(-13 -11 0 -8 -12 -1 0 -5)
1969/12/31/18:00:16.283,(-9 -9 -1 12 4 -4 -5 -7)
1969/12/31/18:00:16.283,(0 6 6 7 0 -1 -2 -1)
1969/12/31/18:00:16.291,(-6 -6 -1 8 -5 -4 -6 -10)
1969/12/31/18:00:16.291,(5 6 5 18 19 4 6 7)
1969/12/31/18:00:16.303,(4 5 3 -6 -1 0 2 7)
1969/12/31/18:00:16.303,(-9 -8 -12 -37 -21 -7 -3 -6)
1969/12/31/18:00:16.304,(5 6 2 10 4 1 3 3)
1969/12/31/18:00:16.304,(3 0 2 15 11 1 -1 6)
1969/12/31/18:00:16.322,(-8 -8 -10 -20 -10 -6 -8 -12)
1969/12/31/18:00:16.322,(0 0 3 20 4 1 0 -2)
1969/12/31/18:00:16.324,(-3 2 6 -3 -5 7 4 -2)
1969/12/31/18:00:16.324,(-3 -2 -1 7 3 -3 -4 -3)
1969/12/31/18:00:16.334,(-10 -11 -6 6 15 -7 -10 -9)
1969/12/31/18:00:16.334,(10 5 3 -12 -3 7 8 12)
1969/12/31/18:00:16.341,(4 1 -7 -36 -14 -5 -2 -1)
1969/12/31/18:00:16.341,(1 -4 -5 6 -17 -4 0 -2)
1969/12/31/18:00:16.354,(-3 -3 -8 -24 0 4 3 1)
1969/12/31/18:00:16.354,(2 5 6 20 3 -1 -2 -5)
1969/12/31/18:00:16.356,(-14 -2 16 46 20 1 -3 -7)
1969/12/31/18:00:16.356,(-9 -7 -9 -28 -4 -6 -7 -2)
1969/12/31/18:00:16.374,(-7 -4 2 6 -12 2 -3 -14)
1969/12/31/18:00:16.374,(6 6 2 10 9 -2 0 3)
1969/12/31/18:00:16.375,(-1 -3 -7 -24 -7 5 9 5)
1969/12/31/18:00:16.375,(-5 -7 -2 7 -1 -5 -3 -3)
1969/12/31/18:00:16.386,(0 -1 0 -2 0 4 2 4)
1969/12/31/18:00:16.386,(-3 -3 -7 -29 -8 -1 -3 -2)
1969/12/31/18:00:16.393,(-1 1 0 14 1 -4 -6 -3)
1969/12/31/18:00:16.393,(4 2 -1 -10 0 2 5 5)
1969/12/31/18:00:16.405,(5 6 4 -8 -10 1 4 6)
1969/12/31/18:00:16.405,(10 4 5 24 16 5 5 8)
1969/12/31/18:00:16.407,(-4 -2 -6 -20 -3 -6 -7 -4)
1969/12/31/18:00:16.407,(1 -4 -1 31 4 1 0 -1)
1969/12/31/18:00:16.425,(-2 0 10 16 4 0 0 1)
1969/12/31/18:00:16.425,(2 -1 -7 -13 -16 -12 -13 0)
1969/12/31/18:00:16.427,(-14 -3 5 -2 10 12 8 -15)
1969/12/31/18:00:16.427,(1 -5 -6 -23 -7 -1 1 5)
1969/12/31/18:00:16.437,(1 0 -4 5 -8 -5 -3 -1)
1969/12/31/18:00:16.437,(-15 -13 1 8 10 -3 -6 -9)
1969/12/31/18:00:16.445,(15 10 1 6 3 0 2 13)
1969/12/31/18:00:16.445,(16 13 7 5 2 5 4 4)
1969/12/31/18:00:16.464,(-7 -6 1 5 3 1 -2 -4)
1969/12/31/18:00:16.464,(-9 -6 -10 -59 -20 -7 -1 -3)
1969/12/31/18:00:16.465,(6 2 -10 -17 -29 -8 -1 5)
1969/12/31/18:00:16.465,(-11 -5 11 56 37 8 0 -6)
1969/12/31/18:00:16.476,(13 6 3 -11 16 6 5 6)
1969/12/31/18:00:16.476,(-12 -14 -1 34 13 -1 -3 -6)
1969/12/31/18:00:16.477,(13 13 8 3 5 9 9 5)
1969/12/31/18:00:16.477,(-26 -21 -18 -46 -34 -16 -13 -20)
1969/12/31/18:00:16.488,(11 17 7 16 5 3 8 10)
1969/12/31/18:00:16.488,(-11 -14 -8 -34 -3 1 1 -5)
1969/12/31/18:00:16.496,(-27 -26 -11 -10 -10 -10 -10 -12)
1969/12/31/18:00:16.496,(34 21 2 13 2 4 9 15)
1969/12/31/18:00:16.507,(-6 -8 1 -12 -6 -1 -6 -4)
1969/12/31/18:00:16.507,(19 30 -2 -2 -3 3 7 10)
1969/12/31/18:00:16.515,(-23 -25 -10 -15 -4 -6 -7 -12)
1969/12/31/18:00:16.515,(7 11 15 25 18 8 6 6)
1969/12/31/18:00:16.528,(-6 -11 4 24 6 -2 -5 -6)
1969/12/31/18:00:16.528,(2 1 10 24 12 10 13 10)
1969/12/31/18:00:16.529,(11 7 -4 -7 -3 -2 -5 2)
1969/12/31/18:00:16.529,(-20 -14 -13 -42 -19 -10 -7 -11)
1969/12/31/18:00:16.540,(15 16 -1 8 -9 1 9 11)
1969/12/31/18:00:16.540,(-2 -20 3 11 3 -6 -11 -3)
1969/12/31/18:00:16.546,(-6 3 4 20 13 2 -1 -8)
1969/12/31/18:00:16.546,(-17 6 -5 -14 -7 0 -6 -13)
1969/12/31/18:00:16.559,(-1 -20 -15 -16 -10 0 7 6)
1969/12/31/18:00:16.559,(8 13 -7 -14 -13 -10 -15 -11)
1969/12/31/18:00:16.561,(-10 -18 -1 9 4 -1 -2 -2)
1969/12/31/18:00:16.561,(1 8 -1 -14 -11 0 5 8)
1969/12/31/18:00:16.579,(7 8 1 30 23 -1 -1 0)
1969/12/31/18:00:16.579,(-11 -11 2 -8 -4 1 -2 -7)
1969/12/31/18:00:16.580,(5 10 0 -16 -19 -2 -2 0)
1969/12/31/18:00:16.580,(-2 -9 2 30 17 4 1 0)
1969/12/31/18:00:16.591,(1 0 6 25 19 7 2 4)
1969/12/31/18:00:16.591,(-6 -9 10 16 2 2 2 5)
1969/12/31/18:00:16.598,(-24 6 9 -9 2 3 8 -9)
1969/12/31/18:00:16.598,(64 33 1 -20 -7 6 12 25)
1969/12/31/18:00:16.611,(-7 -16 -24 -28 -19 -14 -21 -21)
1969/12/31/18:00:16.611,(-14 -4 11 15 4 6 10 8)
1969/12/31/18:00:16.612,(19 3 -5 2 -4 -12 -8 14)
1969/12/31/18:00:16.612,(-43 -27 4 -1 0 -4 -6 -22)
1969/12/31/18:00:16.630,(9 15 0 -8 0 4 5 2)
1969/12/31/18:00:16.630,(27 14 -5 -35 -15 2 4 14)
1969/12/31/18:00:16.631,(-18 -26 -14 -6 -15 -8 -13 -10)
1969/12/31/18:00:16.631,(-6 -6 10 52 15 2 -3 -3)
1969/12/31/18:00:16.642,(-1 11 13 16 22 5 2 3)
1969/12/31/18:00:16.642,(-13 -14 -3 15 2 1 -1 -7)
1969/12/31/18:00:16.649,(10 17 1 -39 -14 -1 5 8)
1969/12/31/18:00:16.650,(-10 -12 -2 13 -5 -15 -18 -18)
1969/12/31/18:00:16.662,(1 -20 11 16 7 9 19 23)
1969/12/31/18:00:16.662,(38 48 -5 6 17 14 14 18)
1969/12/31/18:00:16.664,(25 53 14 4 1 -4 -11 -5)
1969/12/31/18:00:16.664,(-9 -24 -24 -38 -18 -7 -13 -13)
1969/12/31/18:00:16.682,(-31 -32 -5 -13 -8 3 8 -4)
1969/12/31/18:00:16.682,(25 21 -3 -5 -8 -7 0 7)
1969/12/31/18:00:16.682,(-34 -63 0 19 9 -1 -4 -11)
1969/12/31/18:00:16.682,(60 77 5 -15 -2 -1 2 19)
1969/12/31/18:00:16.694,(-18 -13 -4 -10 -10 -9 -14 -21)
1969/12/31/18:00:16.694,(-20 -23 -13 -28 -3 5 4 -7)
1969/12/31/18:00:16.701,(11 -9 -9 -35 -25 5 8 10)
1969/12/31/18:00:16.701,(-12 -10 8 51 32 1 3 4)
1969/12/31/18:00:16.713,(7 13 8 7 12 7 4 4)
1969/12/31/18:00:16.713,(-8 7 14 21 -12 -11 -10 -13)
1969/12/31/18:00:16.725,(9 9 -1 17 11 3 1 5)
1969/12/31/18:00:16.725,(-16 -16 7 1 6 1 -2 -6)
1969/12/31/18:00:16.733,(16 23 -8 -15 -5 -3 0 3)
1969/12/31/18:00:16.733,(-20 -1 12 8 11 10 9 -2)
1969/12/31/18:00:16.734,(-1 5 1 -2 -2 -3 0 6)
1969/12/31/18:00:16.734,(25 14 -8 -31 -22 -4 -5 -3)
1969/12/31/18:00:16.745,(-35 -43 -13 0 -13 -17 -27 -31)
1969/12/31/18:00:16.745,(24 37 -2 -9 0 8 20 16)
1969/12/31/18:00:16.753,(5 -10 0 21 15 -6 -19 -4)
1969/12/31/18:00:16.753,(-28 -23 -3 -12 -8 -3 -2 -5)
1969/12/31/18:00:16.765,(35 37 10 1 7 16 24 28)
1969/12/31/18:00:16.765,(-14 -37 -10 -5 -9 -11 -15 -17)
1969/12/31/18:00:16.771,(4 17 5 17 16 9 12 3)
1969/12/31/18:00:16.771,(-16 -18 -2 -3 -4 -5 -4 -3)
1969/12/31/18:00:16.784,(4 20 10 -8 -9 0 5 5)
1969/12/31/18:00:16.784,(-10 -20 -8 0 -3 -5 -3 2)
1969/12/31/18:00:16.785,(18 13 -5 16 9 -2 -7 -6)
1969/12/31/18:00:16.785,(0 6 5 -8 -3 2 7 10)
1969/12/31/18:00:16.796,(-13 -21 -10 -31 -18 -1 3 -1)
1969/12/31/18:00:16.796,(22 31 7 35 18 7 8 17)
1969/12/31/18:00:16.804,(11 13 4 2 8 8 9 6)
1969/12/31/18:00:16.804,(-20 -36 -11 -10 -8 -6 -12 -10)
1969/12/31/18:00:16.823,(-1 3 1 -1 -9 -10 -15 -29)
1969/12/31/18:00:16.823,(27 24 15 7 9 11 19 37)
1969/12/31/18:00:16.824,(-16 -13 -17 -8 -6 -9 -17 -24)
1969/12/31/18:00:16.824,(12 26 4 -1 3 7 14 16)
1969/12/31/18:00:16.835,(-20 -33 -12 -2 -9 -11 -9 -5)
1969/12/31/18:00:16.835,(-9 -4 -3 -7 -5 -2 -3 -10)
1969/12/31/18:00:16.837,(16 -2 13 7 3 4 15 23)
1969/12/31/18:00:16.837,(26 49 6 -19 -14 -1 4 10)
1969/12/31/18:00:16.847,(-35 -35 -12 -1 -2 -9 -11 -16)
1969/12/31/18:00:16.847,(-10 -11 -1 25 18 1 -9 -15)
1969/12/31/18:00:16.854,(5 -2 3 5 13 14 14 14)
1969/12/31/18:00:16.854,(-21 -10 -6 12 -8 -2 0 -18)
1969/12/31/18:00:16.867,(15 -10 17 0 -13 -9 -15 -1)
1969/12/31/18:00:16.867,(0 20 -6 -18 -6 -10 -5 9)
1969/12/31/18:00:16.873,(-19 -2 -3 15 11 5 0 -20)
1969/12/31/18:00:16.873,(32 7 12 16 18 13 13 25)
1969/12/31/18:00:16.887,(14 15 -4 -5 -5 -1 -2 11)
1969/12/31/18:00:16.887,(-14 -27 -3 -19 -16 -8 -10 -14)
1969/12/31/18:00:16.889,(-18 -20 -11 -28 -20 -11 -9 -2)
1969/12/31/18:00:16.889,(23 29 4 14 4 9 16 5)
1969/12/31/18:00:16.899,(-3 7 2 22 17 7 2 2)
1969/12/31/18:00:16.899,(-12 -19 -8 1 3 -1 -7 -15)
1969/12/31/18:00:16.906,(20 17 9 2 -3 -1 4 12)
1969/12/31/18:00:16.906,(-35 -48 -7 -9 1 2 3 -5)
1969/12/31/18:00:16.918,(-6 19 -2 4 -6 -17 -24 -22)
1969/12/31/18:00:16.918,(15 11 5 -13 -3 12 10 2)
1969/12/31/18:00:16.924,(2 -14 -6 4 3 0 -1 -3)
1969/12/31/18:00:16.924,(-6 -19 -3 -20 -4 12 18 17)
1969/12/31/18:00:16.938,(-26 7 -4 -4 -4 -11 -11 -16)
1969/12/31/18:00:16.938,(20 13 1 16 16 9 8 9)
1969/12/31/18:00:16.940,(-1 3 3 14 4 1 -1 -6)
1969/12/31/18:00:16.940,(5 1 -6 4 -4 -7 -13 -1)
1969/12/31/18:00:16.950,(-8 -1 -1 3 1 4 7 -7)
1969/12/31/18:00:16.950,(13 -6 18 30 14 14 20 30)
1969/12/31/18:00:16.958,(4 16 -1 -8 -4 -7 -13 -6)
1969/12/31/18:00:16.958,(-24 -29 -12 -11 -5 -12 -20 -23)
1969/12/31/18:00:16.970,(42 23 -7 -23 -3 13 30 34)
1969/12/31/18:00:16.970,(-3 -13 -2 -1 1 2 -5 -1)
1969/12/31/18:00:16.976,(-9 25 5 9 3 4 4 -19)
1969/12/31/18:00:16.976,(3 -9 8 -1 -2 -9 -7 9)
1969/12/31/18:00:16.995,(9 3 -8 -7 -11 -12 -13 5)
1969/12/31/18:00:16.996,(-3 3 -5 -14 -10 -7 -4 -7)
1969/12/31/18:00:16.997,(-11 -21 -14 -82 -36 -5 0 4)
1969/12/31/18:00:16.997,(-26 -6 3 47 21 -4 -8 -24)
1969/12/31/18:00:17.009,(74 79 28 63 37 34 51 65)
1969/12/31/18:00:17.009,(-46 -32 3 23 10 -12 -33 -45)
1969/12/31/18:00:17.010,(13 -7 -3 -2 0 9 13 18)
1969/12/31/18:00:17.010,(4 8 -5 -37 -16 -2 0 -1)
1969/12/31/18:00:17.020,(-16 -17 -11 -43 -30 -19 -17 -15)
1969/12/31/18:00:17.020,(-29 -15 -3 -8 -11 -4 1 -10)
1969/12/31/18:00:17.028,(26 19 13 43 23 -1 -5 7)
1969/12/31/18:00:17.028,(-29 -23 -4 0 -1 1 -7 -21)
1969/12/31/18:00:17.041,(-5 -6 -6 1 5 -4 -15 -11)
1969/12/31/18:00:17.041,(-50 -65 -21 -31 -29 -21 -24 -37)
1969/12/31/18:00:17.042,(14 31 0 4 7 6 15 17)
1969/12/31/18:00:17.042,(23 16 -2 -1 8 15 25 33)
1969/12/31/18:00:17.060,(-55 -64 -5 9 3 2 -5 -24)
1969/12/31/18:00:17.060,(33 23 2 -16 -11 -9 -15 -2)
1969/12/31/18:00:17.061,(-18 -16 -6 1 -10 -9 -5 -6)
1969/12/31/18:00:17.061,(-15 -12 -7 -9 -12 -11 -12 -15)
1969/12/31/18:00:17.072,(31 24 9 0 14 19 17 24)
1969/12/31/18:00:17.072,(-3 13 4 11 12 -6 -4 -2)
1969/12/31/18:00:17.079,(-1 -10 11 38 11 2 1 3)
1969/12/31/18:00:17.079,(-36 -15 -3 -6 -11 -20 -29 -35)
1969/12/31/18:00:17.092,(-14 -17 -12 -36 -22 -4 2 -4)
1969/12/31/18:00:17.092,(45 29 -2 7 19 23 35 40)
1969/12/31/18:00:17.094,(-19 -9 6 11 0 -8 -13 -14)
1969/12/31/18:00:17.094,(11 4 -1 4 3 3 2 5)
1969/12/31/18:00:17.111,(-1 -25 2 -3 2 3 4 -1)
1969/12/31/18:00:17.111,(-12 14 -7 -26 -16 -2 7 -2)
1969/12/31/18:00:17.113,(18 -6 -17 -44 -11 -5 -3 20)
1969/12/31/18:00:17.113,(47 69 32 53 13 9 10 15)
1969/12/31/18:00:17.124,(-40 -37 0 47 22 -8 -20 -31)
1969/12/31/18:00:17.124,(26 30 14 29 21 12 10 14)
1969/12/31/18:00:17.136,(-24 -29 -10 -14 -4 3 -1 -5)
1969/12/31/18:00:17.136,(5 -6 -20 -40 -15 -4 4 2)
1969/12/31/18:00:17.143,(49 56 16 -13 -6 2 7 26)
1969/12/31/18:00:17.143,(-25 -20 -4 0 -8 -10 -11 -20)
1969/12/31/18:00:17.145,(-10 5 -8 -6 -8 -9 -5 -7)
1969/12/31/18:00:17.145,(-17 -20 5 3 10 7 -5 -15)
1969/12/31/18:00:17.162,(-18 -9 -2 6 3 2 2 -12)
1969/12/31/18:00:17.162,(-12 3 -16 -25 -22 -20 -23 -14)
1969/12/31/18:00:17.164,(25 16 17 10 2 14 20 19)
1969/12/31/18:00:17.164,(-12 -8 0 15 11 0 -1 -3)
1969/12/31/18:00:17.175,(11 26 13 12 13 6 7 6)
1969/12/31/18:00:17.175,(-11 -35 -9 1 4 5 -5 -8)
1969/12/31/18:00:17.181,(-20 -16 -7 5 2 4 4 -4)
1969/12/31/18:00:17.181,(36 33 8 -7 1 10 12 13)
1969/12/31/18:00:17.195,(-10 -10 -2 -2 -5 -4 -3 5)
1969/12/31/18:00:17.195,(-37 -36 -4 -4 -15 -11 -10 -17)
1969/12/31/18:00:17.196,(38 35 5 8 16 18 28 27)
1969/12/31/18:00:17.196,(-11 6 -7 -15 -12 -15 -20 -10)
1969/12/31/18:00:17.213,(-14 -25 -16 -26 -11 -5 -3 -4)
1969/12/31/18:00:17.213,(-16 -26 -6 4 -4 0 -3 -5)
1969/12/31/18:00:17.215,(-11 -9 5 27 8 -8 -7 -7)
1969/12/31/18:00:17.215,(40 20 6 6 18 15 17 25)
1969/12/31/18:00:17.226,(-20 -27 -5 8 -2 -2 -7 -14)
1969/12/31/18:00:17.226,(21 22 2 -6 -2 4 5 13)
1969/12/31/18:00:17.231,(-25 -11 -5 -24 -21 -17 -22 -28)
1969/12/31/18:00:17.231,(4 -9 -12 -16 -1 0 4 10)
1969/12/31/18:00:17.246,(-8 -34 -1 17 8 4 5 4)
1969/12/31/18:00:17.246,(37 56 16 19 -9 3 12 20)
1969/12/31/18:00:17.247,(14 2 5 19 22 13 4 9)
1969/12/31/18:00:17.247,(-20 -11 -9 -29 -12 -10 -13 -19)
1969/12/31/18:00:17.266,(-6 4 -15 -28 -23 -18 -15 -16)
1969/12/31/18:00:17.266,(20 10 19 21 21 17 19 18)
1969/12/31/18:00:17.266,(-4 0 1 4 -3 -3 -6 -9)
1969/12/31/18:00:17.266,(-15 -16 -9 -7 0 -4 -6 -7)
1969/12/31/18:00:17.278,(-21 -12 -8 6 3 3 -2 -10)
1969/12/31/18:00:17.278,(55 57 18 1 0 2 15 32)
1969/12/31/18:00:17.284,(-20 -10 -2 -15 -13 -12 -21 -27)
1969/12/31/18:00:17.284,(-16 -29 -3 5 -6 -2 1 -1)
1969/12/31/18:00:17.297,(-6 -5 -13 -10 -9 -10 -11 -13)
1969/12/31/18:00:17.297,(-14 -18 -2 -2 8 8 4 -1)
1969/12/31/18:00:17.298,(7 8 0 -8 -2 1 4 -2)
1969/12/31/18:00:17.298,(22 19 14 7 2 6 8 21)
1969/12/31/18:00:17.316,(0 -7 -3 5 -7 -10 -11 0)
1969/12/31/18:00:17.316,(10 3 0 -13 -3 0 1 2)
1969/12/31/18:00:17.318,(-18 -26 -8 3 1 -3 0 -1)
1969/12/31/18:00:17.318,(-10 -14 -11 8 2 -1 -7 -12)
1969/12/31/18:00:17.329,(30 16 16 -1 4 9 15 25)
1969/12/31/18:00:17.329,(15 51 -3 -11 -9 -7 2 3)
1969/12/31/18:00:17.335,(21 16 9 1 -3 -12 -25 -8)
1969/12/31/18:00:17.335,(-21 -9 -2 7 -6 -7 -10 -24)
1969/12/31/18:00:17.349,(50 52 26 26 26 21 32 54)
1969/12/31/18:00:17.349,(-44 -49 -17 -8 -6 -7 -12 -32)
1969/12/31/18:00:17.349,(-35 -16 -7 -6 -13 -4 -7 -14)
1969/12/31/18:00:17.349,(45 27 7 1 12 14 16 29)
1969/12/31/18:00:17.367,(-29 -10 -6 -17 -11 -14 -20 -31)
1969/12/31/18:00:17.367,(17 -3 -1 4 1 8 13 22)
1969/12/31/18:00:17.369,(1 9 4 2 2 2 7 4)
1969/12/31/18:00:17.369,(-15 -2 1 7 4 -4 -7 -11)
1969/12/31/18:00:17.380,(-3 3 -1 -4 -1 0 -2 -9)
1969/12/31/18:00:17.380,(-46 -75 -25 -16 -12 -14 -13 -13)
1969/12/31/18:00:17.386,(62 68 12 -1 5 13 17 27)
1969/12/31/18:00:17.386,(-5 -10 0 -4 -8 -6 -3 5)
1969/12/31/18:00:17.400,(17 23 -1 1 0 -4 -5 -2)
1969/12/31/18:00:17.400,(-76 -55 -8 -2 -7 -12 -33 -57)
1969/12/31/18:00:17.402,(-4 -12 -5 4 5 10 27 19)
1969/12/31/18:00:17.402,(73 47 17 0 7 12 11 47)
1969/12/31/18:00:17.426,(-90 -51 -23 -18 -25 -36 -55 -81)
1969/12/31/18:00:17.426,(10 8 0 8 18 19 20 22)
1969/12/31/18:00:17.427,(2 -21 -8 2 0 0 3 10)
1969/12/31/18:00:17.427,(2 12 0 2 -3 7 17 5)
1969/12/31/18:00:17.431,(21 21 12 1 6 5 -5 1)
1969/12/31/18:00:17.431,(-15 -9 -5 -7 -12 -19 -20 -21)
1969/12/31/18:00:17.438,(-7 -15 4 14 12 10 8 1)
1969/12/31/18:00:17.438,(-16 -6 -6 -5 -7 -2 3 -4)
1969/12/31/18:00:17.451,(20 5 1 3 3 6 13 18)
1969/12/31/18:00:17.451,(-10 -10 1 -10 -7 -4 -5 -5)
1969/12/31/18:00:17.453,(0 25 1 3 -9 -16 -20 -17)
1969/12/31/18:00:17.453,(-33 -31 -9 -1 -6 -11 -14 -24)
1969/12/31/18:00:17.470,(31 24 9 8 12 17 30 41)
1969/12/31/18:00:17.470,(-20 -10 -12 -3 -7 -24 -47 -48)
1969/12/31/18:00:17.472,(-18 -8 -5 -4 -3 -3 -3 -6)
1969/12/31/18:00:17.472,(2 4 -2 -15 -12 -3 1 3)
1969/12/31/18:00:17.482,(-10 -10 -3 -1 -4 -5 -1 -7)
1969/12/31/18:00:17.482,(6 16 5 2 -3 -1 3 5)
1969/12/31/18:00:17.490,(47 28 3 -1 15 24 28 37)
1969/12/31/18:00:17.490,(-63 -60 -12 5 -7 -19 -24 -38)
1969/12/31/18:00:17.502,(31 30 11 3 12 17 15 20)
1969/12/31/18:00:17.502,(17 6 9 7 4 8 11 14)
1969/12/31/18:00:17.504,(-45 -45 -16 -14 -14 -21 -22 -29)
1969/12/31/18:00:17.504,(24 24 10 13 12 16 17 16)
1969/12/31/18:00:17.522,(-1 17 -1 -14 -9 -3 -4 -5)
1969/12/31/18:00:17.522,(37 28 7 10 13 11 14 22)
1969/12/31/18:00:17.523,(-39 -42 -9 4 -6 -7 -12 -21)
1969/12/31/18:00:17.523,(14 5 11 11 9 1 -1 3)
1969/12/31/18:00:17.533,(15 25 -5 -4 3 7 7 6)
1969/12/31/18:00:17.533,(11 -1 12 6 -2 4 14 19)
1969/12/31/18:00:17.541,(7 8 -2 -8 -4 -1 2 1)
1969/12/31/18:00:17.541,(8 30 15 -2 -1 1 4 13)
1969/12/31/18:00:17.554,(-71 -93 -18 4 -2 -5 -15 -46)
1969/12/31/18:00:17.554,(49 65 10 -2 6 14 27 37)
1969/12/31/18:00:17.555,(15 6 3 0 -2 -6 -6 4)
1969/12/31/18:00:17.555,(-14 -3 0 -3 -5 -5 -9 -11)
1969/12/31/18:00:17.574,(-14 -19 -4 5 -4 -8 -8 -7)
1969/12/31/18:00:17.574,(-14 -14 -12 -21 -7 2 1 -2)
1969/12/31/18:00:17.575,(6 6 6 -3 -1 3 8 8)
1969/12/31/18:00:17.575,(-22 -17 -9 13 7 -3 -10 -20)
1969/12/31/18:00:17.585,(-13 3 0 9 -1 -4 -1 4)
1969/12/31/18:00:17.585,(70 51 30 25 27 33 38 60)
1969/12/31/18:00:17.592,(-44 -52 -12 -4 -9 -12 -20 -27)
1969/12/31/18:00:17.592,(33 71 5 -8 3 15 26 22)
1969/12/31/18:00:17.605,(-19 -19 -13 -18 -16 -12 -7 -8)
1969/12/31/18:00:17.605,(-3 8 4 -1 -2 -4 -12 -22)
1969/12/31/18:00:17.607,(-13 -12 -3 0 -3 -7 -11 -13)
1969/12/31/18:00:17.607,(-22 -33 -14 -4 -4 -5 -4 -10)
1969/12/31/18:00:17.624,(18 15 7 2 1 2 7 15)
1969/12/31/18:00:17.624,(8 5 -5 -1 0 -3 -8 -10)
1969/12/31/18:00:17.626,(-2 5 2 0 -2 -1 2 2)
1969/12/31/18:00:17.626,(-15 -26 -22 -64 -35 -13 -13 -15)
1969/12/31/18:00:17.636,(10 23 5 17 1 0 6 6)
1969/12/31/18:00:17.636,(-32 -37 1 42 15 -4 -9 -15)
1969/12/31/18:00:17.644,(-4 13 15 24 26 7 -1 -7)
1969/12/31/18:00:17.644,(-20 -22 2 28 0 -3 -5 -10)
1969/12/31/18:00:17.656,(62 42 16 -10 14 17 21 37)
1969/12/31/18:00:17.656,(-26 -16 -10 -21 -17 -7 -4 -10)
1969/12/31/18:00:17.663,(-21 -26 -7 -12 -7 -7 -5 -10)
1969/12/31/18:00:17.663,(-13 2 -6 -11 -15 -14 -17 -17)
1969/12/31/18:00:17.675,(35 42 8 -7 8 12 12 16)
1969/12/31/18:00:17.675,(20 -8 -5 10 15 10 9 17)
1969/12/31/18:00:17.677,(-25 -15 -11 -11 -12 -12 -14 -25)
1969/12/31/18:00:17.677,(-11 -16 3 1 -2 -6 -5 -6)
1969/12/31/18:00:17.687,(-19 -30 -15 -5 -4 1 4 -4)
1969/12/31/18:00:17.687,(-3 6 -1 -58 -29 -16 -9 -3)
1969/12/31/18:00:17.695,(26 19 -28 -80 -62 -8 5 14)
1969/12/31/18:00:17.695,(11 -9 2 75 21 2 7 15)
1969/12/31/18:00:17.709,(-26 -11 42 100 87 19 -6 -24)
1969/12/31/18:00:17.709,(-26 -1 34 62 63 13 -6 -20)
1969/12/31/18:00:17.710,(21 17 16 -6 24 18 17 20)
1969/12/31/18:00:17.710,(8 3 -16 -81 -42 -6 5 9)
1969/12/31/18:00:17.727,(9 -3 -26 -65 -54 -19 -5 7)
1969/12/31/18:00:17.727,(-31 -25 -25 -33 -29 -19 -16 -22)
1969/12/31/18:00:17.728,(-40 -67 1 7 -1 -3 0 -3)
1969/12/31/18:00:17.728,(35 55 4 -2 5 8 17 20)
1969/12/31/18:00:17.738,(30 7 6 9 16 24 23 29)
1969/12/31/18:00:17.738,(20 9 -7 -12 -18 -14 -12 -7)
1969/12/31/18:00:17.746,(-18 -9 -1 18 8 2 -5 -8)
1969/12/31/18:00:17.746,(-9 -23 -2 6 6 -4 -9 -11)
1969/12/31/18:00:17.758,(-34 -31 -6 -7 -12 -11 -10 -14)
1969/12/31/18:00:17.758,(47 43 5 -1 6 13 18 31)
1969/12/31/18:00:17.764,(13 22 12 15 5 0 1 3)
1969/12/31/18:00:17.764,(-13 -14 5 4 8 -3 -7 -10)
1969/12/31/18:00:17.778,(-19 -1 -14 -21 -20 -15 -17 -18)
1969/12/31/18:00:17.778,(-9 4 2 -3 -8 -3 2 0)
1969/12/31/18:00:17.780,(46 23 1 9 14 12 15 18)
1969/12/31/18:00:17.780,(2 3 8 3 7 4 -3 4)
1969/12/31/18:00:17.798,(16 8 -1 -13 -7 -1 0 2)
1969/12/31/18:00:17.798,(-48 -30 -8 -3 -14 -14 -17 -31)
1969/12/31/18:00:17.799,(3 7 -5 -2 -4 -6 -5 1)
1969/12/31/18:00:17.799,(9 2 -7 -36 -18 -1 5 6)
1969/12/31/18:00:17.809,(-27 -32 -7 15 4 -10 -11 -13)
1969/12/31/18:00:17.809,(28 19 10 11 9 10 10 14)
1969/12/31/18:00:17.817,(-16 0 -8 -2 1 -10 -16 -18)
1969/12/31/18:00:17.817,(8 -4 8 17 12 8 9 9)
1969/12/31/18:00:17.829,(-6 2 4 1 -10 -6 -5 -8)
1969/12/31/18:00:17.829,(-35 -36 -11 -7 -8 -7 -8 -12)
1969/12/31/18:00:17.831,(41 28 17 12 13 14 24 32)
1969/12/31/18:00:17.831,(18 5 2 3 11 12 9 12)
1969/12/31/18:00:17.849,(8 14 -2 -14 -5 2 4 9)
1969/12/31/18:00:17.849,(-23 -24 -10 -7 -8 -9 -10 -13)
1969/12/31/18:00:17.850,(-36 -21 -9 -8 -5 -13 -18 -30)
1969/12/31/18:00:17.850,(-17 -6 -1 4 -13 -6 -2 -4)
1969/12/31/18:00:17.862,(34 20 9 13 22 15 17 23)
1969/12/31/18:00:17.862,(-3 -9 -4 -6 0 3 1 2)
1969/12/31/18:00:17.863,(-9 1 -2 5 5 4 5 3)
1969/12/31/18:00:17.863,(41 25 10 5 9 13 20 34)
1969/12/31/18:00:17.880,(-24 -16 -11 -12 -18 -13 -15 -19)
1969/12/31/18:00:17.880,(1 -1 -5 -25 -15 -5 -2 0)
1969/12/31/18:00:17.882,(7 13 2 6 0 -1 0 1)
1969/12/31/18:00:17.882,(-7 -3 -2 0 11 -5 -6 -5)
1969/12/31/18:00:17.900,(13 9 12 37 15 11 9 11)
1969/12/31/18:00:17.900,(23 22 15 16 14 10 7 14)
1969/12/31/18:00:17.901,(-6 -13 -1 6 -1 1 -1 -3)
1969/12/31/18:00:17.901,(-22 -13 -6 -17 -11 -9 -9 -14)
1969/12/31/18:00:17.919,(-10 -3 -11 -31 -16 -13 -15 -18)
1969/12/31/18:00:17.919,(15 17 6 1 -3 3 10 8)
1969/12/31/18:00:17.921,(12 15 3 -1 7 6 10 9)
1969/12/31/18:00:17.921,(-20 -17 -4 -1 -3 -4 -6 -13)
1969/12/31/18:00:17.932,(-1 -3 -2 -4 1 4 6 1)
1969/12/31/18:00:17.932,(16 21 -4 1 -5 -9 -13 5)
1969/12/31/18:00:17.933,(-12 -5 1 1 -4 -4 -5 -13)
1969/12/31/18:00:17.933,(21 22 2 2 4 0 -2 5)
1969/12/31/18:00:17.951,(-19 -21 3 1 -3 -3 -3 -7)
1969/12/31/18:00:17.951,(-42 -35 -15 -8 -8 -7 -3 -20)
1969/12/31/18:00:17.953,(53 34 12 9 12 13 21 35)
1969/12/31/18:00:17.953,(-6 -5 -1 6 3 -3 -5 -2)
1969/12/31/18:00:17.971,(-11 -8 -1 -12 -12 -12 -15 -13)
1969/12/31/18:00:17.971,(-10 -11 -6 -3 -3 -4 -6 -7)
1969/12/31/18:00:17.972,(-2 1 -3 -11 -2 0 3 2)
1969/12/31/18:00:17.972,(-17 -21 -4 22 -2 1 0 -10)
1969/12/31/18:00:17.983,(15 14 -4 -29 -6 -3 1 9)
1969/12/31/18:00:17.983,(8 4 3 2 -6 -2 5 8)
1969/12/31/18:00:17.985,(-14 -5 6 49 17 -1 -5 -9)
1969/12/31/18:00:17.985,(-11 -6 8 16 26 8 0 -6)
1969/12/31/18:00:18.003,(-10 -12 -2 7 0 -3 -2 -3)
1969/12/31/18:00:18.003,(20 12 -1 -18 -4 5 5 10)
1969/12/31/18:00:18.004,(-6 -18 -7 -27 -19 -4 -3 -1)
1969/12/31/18:00:18.004,(8 4 -6 -12 -10 -8 -7 -4)
1969/12/31/18:00:18.015,(-23 -12 -3 4 -2 -4 -7 -17)
1969/12/31/18:00:18.015,(11 3 11 7 14 20 29 26)
1969/12/31/18:00:18.022,(57 46 22 17 11 19 29 50)
1969/12/31/18:00:18.022,(-7 -3 -1 -2 -5 -10 -12 -13)
1969/12/31/18:00:18.041,(16 13 2 -6 0 6 7 12)
1969/12/31/18:00:18.041,(-7 -15 -12 -15 -4 -3 -3 -8)
1969/12/31/18:00:18.043,(-24 -16 -12 -16 -21 -13 -15 -18)
1969/12/31/18:00:18.043,(26 25 16 31 26 15 18 22)
1969/12/31/18:00:18.054,(-1 2 -1 3 2 1 -2 0)
1969/12/31/18:00:18.054,(16 11 5 4 3 6 6 7)
1969/12/31/18:00:18.055,(-22 -6 -9 -11 -14 -15 -18 -22)
1969/12/31/18:00:18.055,(-13 -18 -10 -9 -3 -5 -3 -8)
1969/12/31/18:00:18.066,(4 -6 4 34 12 5 8 7)
1969/12/31/18:00:18.066,(-14 -9 1 13 17 3 -5 -10)
1969/12/31/18:00:18.074,(-4 -6 -8 -28 -21 0 -3 -4)
1969/12/31/18:00:18.074,(-15 -15 -12 -15 -16 -7 -6 -11)
1969/12/31/18:00:18.087,(13 15 3 -13 3 -1 5 9)
1969/12/31/18:00:18.087,(-21 -14 -14 -7 -5 -12 -15 -19)
1969/12/31/18:00:18.088,(2 4 4 3 -13 -3 -2 -1)
1969/12/31/18:00:18.088,(9 5 0 15 -6 -9 0 6)
1969/12/31/18:00:18.105,(-6 0 -4 -4 -32 -22 -11 -7)
1969/12/31/18:00:18.105,(-10 -18 -25 -80 -22 -1 -4 -5)
1969/12/31/18:00:18.107,(1 4 5 55 66 3 -2 -2)
1969/12/31/18:00:18.107,(3 5 17 47 -14 15 8 1)
1969/12/31/18:00:18.124,(0 5 31 64 29 24 9 1)
1969/12/31/18:00:18.124,(-4 7 37 55 30 18 7 -3)
1969/12/31/18:00:18.126,(2 1 -22 -22 53 22 6 4)
1969/12/31/18:00:18.126,(-8 -21 -47 -64 22 6 -3 -5)
1969/12/31/18:00:18.137,(-2 -8 -28 -51 -44 -28 -13 -5)
1969/12/31/18:00:18.137,(-14 -12 -2 -10 -59 -26 -12 -12)
1969/12/31/18:00:18.139,(4 13 27 3 -24 -16 -2 1)
1969/12/31/18:00:18.139,(10 15 17 8 -7 1 6 5)
1969/12/31/18:00:18.157,(5 -4 -22 -34 -2 3 4 6)
1969/12/31/18:00:18.157,(-6 -10 -20 -7 5 -13 -13 -7)
1969/12/31/18:00:18.158,(-9 -8 -1 1 -21 -10 -6 -9)
1969/12/31/18:00:18.158,(2 8 22 -16 5 12 8 5)
1969/12/31/18:00:18.169,(12 14 12 34 2 10 8 9)
1969/12/31/18:00:18.169,(6 4 3 13 4 -12 -6 2)
1969/12/31/18:00:18.176,(-8 -8 10 16 -2 3 -3 -6)
1969/12/31/18:00:18.176,(-6 -4 -23 -17 -37 -15 -11 -8)
1969/12/31/18:00:18.188,(5 3 -5 -16 18 7 6 3)
1969/12/31/18:00:18.188,(7 -2 -12 41 53 22 11 10)
1969/12/31/18:00:18.190,(-9 -8 6 -11 20 15 -1 -4)
1969/12/31/18:00:18.190,(-6 -4 15 -7 -8 1 0 -4)
1969/12/31/18:00:18.208,(4 10 -2 0 -19 -12 -4 0)
1969/12/31/18:00:18.208,(-2 -2 -13 4 -4 -9 -7 -4)
1969/12/31/18:00:18.210,(-4 -8 4 11 -4 -4 -2 -5)
1969/12/31/18:00:18.210,(1 4 8 -5 6 3 5 2)
1969/12/31/18:00:18.228,(8 7 1 -13 0 9 6 6)
1969/12/31/18:00:18.228,(0 2 3 -28 -15 -5 -1 -2)
1969/12/31/18:00:18.228,(4 0 -16 -9 -14 -6 1 3)
1969/12/31/18:00:18.228,(-1 -5 -8 -13 0 -5 0 0)
1969/12/31/18:00:18.240,(-11 -7 -3 29 15 -11 -14 -10)
1969/12/31/18:00:18.240,(-1 -4 0 12 7 2 1 -1)
1969/12/31/18:00:18.241,(-3 2 7 -10 -4 3 2 -3)
1969/12/31/18:00:18.241,(-1 5 16 11 0 -4 -2 -1)
1969/12/31/18:00:18.260,(4 -3 -4 -22 -4 4 5 4)
1969/12/31/18:00:18.260,(4 6 -2 -1 -4 4 3 2)
1969/12/31/18:00:18.261,(3 4 1 -5 -2 4 4 2)
1969/12/31/18:00:18.261,(-3 -7 -9 13 9 -2 -3 -2)
1969/12/31/18:00:18.270,(-5 -7 0 -11 -14 -4 -3 -4)
1969/12/31/18:00:18.270,(-1 0 3 -9 9 -6 -3 -3)
1969/12/31/18:00:18.279,(-2 1 -2 -7 -25 -11 -3 1)
1969/12/31/18:00:18.279,(-4 3 20 25 32 10 2 0)
1969/12/31/18:00:18.291,(3 1 -8 13 14 14 6 3)
1969/12/31/18:00:18.291,(-2 -3 -12 -13 -18 -11 -8 -2)
1969/12/31/18:00:18.297,(8 4 -2 -16 -12 -7 1 5)
1969/12/31/18:00:18.297,(-2 -5 -5 -18 4 3 -1 -1)
1969/12/31/18:00:18.311,(-1 -1 13 35 10 2 1 1)
1969/12/31/18:00:18.311,(-3 2 9 1 -3 3 1 -2)
1969/12/31/18:00:18.312,(1 0 -13 -13 -10 -2 0 0)
1969/12/31/18:00:18.312,(0 -1 -8 -1 -8 -10 -6 0)
1969/12/31/18:00:18.322,(-1 3 9 -11 5 5 0 -1)
1969/12/31/18:00:18.322,(6 5 -1 16 7 10 6 4)
1969/12/31/18:00:18.330,(-7 -10 -4 -7 -3 -12 -9 -7)
1969/12/31/18:00:18.330,(-3 -2 -9 -10 -18 -6 -3 -3)
1969/12/31/18:00:18.342,(3 -2 0 1 3 -2 1 2)
1969/12/31/18:00:18.342,(-9 -4 7 0 3 0 -1 -3)
1969/12/31/18:00:18.348,(3 8 1 20 10 8 1 1)
1969/12/31/18:00:18.348,(-5 -6 -11 -2 7 2 0 -6)
1969/12/31/18:00:18.369,(3 4 8 4 7 2 1 2)
1969/12/31/18:00:18.369,(-2 3 6 -11 -21 -7 -3 -3)
1969/12/31/18:00:18.370,(6 -2 -10 -1 -8 -6 2 6)
1969/12/31/18:00:18.370,(-10 -4 6 6 8 5 -2 -5)
1969/12/31/18:00:18.374,(4 4 -1 2 17 10 5 8)
1969/12/31/18:00:18.374,(1 1 -4 0 1 5 4 1)
1969/12/31/18:00:18.388,(0 1 -2 -11 -5 -5 -1 -2)
1969/12/31/18:00:18.388,(5 3 -8 5 -15 -12 -8 0)
1969/12/31/18:00:18.394,(-13 -10 -7 -25 -10 -6 -4 -9)
1969/12/31/18:00:18.394,(6 10 14 15 -1 -6 -2 3)
1969/12/31/18:00:18.400,(-7 -3 9 23 17 6 -1 -5)
1969/12/31/18:00:18.400,(1 -1 1 9 1 -2 -1 0)
1969/12/31/18:00:18.419,(1 1 8 -3 -4 -1 2 2)
1969/12/31/18:00:18.419,(-1 -5 -6 -2 -12 -2 0 -2)
1969/12/31/18:00:18.421,(-1 -1 -7 2 22 11 2 0)
1969/12/31/18:00:18.421,(-2 -6 -5 -8 1 -7 -3 -2)
1969/12/31/18:00:18.424,(1 1 -10 -16 -7 -4 -2 0)
1969/12/31/18:00:18.424,(-2 -7 -4 -8 -4 2 0 -1)
1969/12/31/18:00:18.439,(-1 4 0 -1 -9 -8 -5 -3)
1969/12/31/18:00:18.439,(-2 -7 -3 0 1 6 5 1)
1969/12/31/18:00:18.445,(0 4 -1 5 5 -3 -2 0)
1969/12/31/18:00:18.445,(6 -2 -8 -1 2 6 9 8)
1969/12/31/18:00:18.451,(-3 -6 -10 -13 -8 0 1 -2)
1969/12/31/18:00:18.451,(-1 -1 -2 -2 7 4 -1 -2)
1969/12/31/18:00:18.464,(0 5 8 7 -5 -5 -1 -2)
1969/12/31/18:00:18.464,(0 0 4 6 -4 -7 -2 -2)
1969/12/31/18:00:18.465,(-11 -6 3 -19 2 -2 -9 -11)
1969/12/31/18:00:18.465,(12 9 -2 19 4 5 11 12)
1969/12/31/18:00:18.483,(-7 -8 3 6 8 5 0 -2)
1969/12/31/18:00:18.483,(-4 0 -1 1 6 -4 -5 -5)
1969/12/31/18:00:18.485,(2 0 -5 -28 -27 -5 -1 1)
1969/12/31/18:00:18.485,(-1 4 6 27 12 4 0 0)
1969/12/31/18:00:18.495,(0 1 2 4 4 -2 -1 -1)
1969/12/31/18:00:18.495,(-4 -8 -5 -5 1 2 -1 -2)
1969/12/31/18:00:18.503,(8 6 0 -6 -6 0 2 4)
1969/12/31/18:00:18.503,(-4 -2 3 1 1 -1 -4 -6)
1969/12/31/18:00:18.516,(7 2 -3 10 -3 -2 1 4)
1969/12/31/18:00:18.516,(-5 -1 11 11 9 4 0 0)
1969/12/31/18:00:18.517,(-3 0 4 3 1 -2 -4 -2)
1969/12/31/18:00:18.517,(0 0 -1 -17 -13 -5 -3 0)
1969/12/31/18:00:18.535,(-2 -5 -15 -13 -6 -1 -1 -4)
1969/12/31/18:00:18.535,(-3 -1 0 -6 -3 -6 -6 -5)
1969/12/31/18:00:18.536,(-2 -3 3 15 5 -1 -2 -2)
1969/12/31/18:00:18.536,(8 2 -12 -15 -5 -1 3 6)
1969/12/31/18:00:18.547,(-3 0 0 -9 -10 -2 -2 -2)
1969/12/31/18:00:18.547,(0 1 1 4 5 2 -2 1)
1969/12/31/18:00:18.561,(-1 -4 -20 -16 -13 -7 -6 -1)
1969/12/31/18:00:18.561,(0 -6 -9 -10 -14 -12 -3 -1)
1969/12/31/18:00:18.567,(-2 4 24 7 6 9 4 2)
1969/12/31/18:00:18.567,(4 8 9 43 49 25 9 4)
1969/12/31/18:00:18.569,(-1 -2 7 21 18 7 3 0)
1969/12/31/18:00:18.569,(-7 -4 -6 -14 -13 -6 -5 -7)
1969/12/31/18:00:18.586,(-2 -5 -20 -39 -29 -15 -7 -5)
1969/12/31/18:00:18.586,(2 1 0 5 -13 -6 -1 1)
1969/12/31/18:00:18.588,(1 1 4 10 3 1 2 2)
1969/12/31/18:00:18.588,(0 1 1 -4 -1 1 -2 -1)
1969/12/31/18:00:18.598,(2 0 -2 0 1 1 0 1)
1969/12/31/18:00:18.598,(-1 -4 -5 -14 -9 -5 -4 -3)
1969/12/31/18:00:18.606,(5 1 -1 2 0 -1 3 2)
1969/12/31/18:00:18.606,(1 1 4 0 -1 0 -1 0)
1969/12/31/18:00:18.618,(-4 1 1 5 5 1 -1 -2)
1969/12/31/18:00:18.618,(-1 -2 -6 -10 -6 -3 -2 -1)
1969/12/31/18:00:18.620,(4 0 3 7 0 4 7 6)
1969/12/31/18:00:18.620,(-8 -5 0 -4 -5 -2 -2 -5)
1969/12/31/18:00:18.637,(11 8 -9 -2 3 -1 -2 6)
1969/12/31/18:00:18.637,(-8 -3 4 -8 4 -1 2 -3)
1969/12/31/18:00:18.639,(-2 -1 2 10 3 3 1 0)
1969/12/31/18:00:18.639,(1 -1 6 12 14 5 2 0)
1969/12/31/18:00:18.649,(-3 -2 -1 0 -9 -5 -2 -4)
1969/12/31/18:00:18.649,(2 1 -7 -11 -16 -8 -2 -1)
1969/12/31/18:00:18.657,(0 0 -2 -4 -2 -2 -2 -1)
1969/12/31/18:00:18.657,(-2 0 -1 -3 -2 -1 1 -1)
1969/12/31/18:00:18.677,(-2 -4 -1 0 1 0 1 -2)
1969/12/31/18:00:18.677,(0 -1 -3 -1 -4 -1 -2 0)
1969/12/31/18:00:18.677,(-3 -1 -2 2 3 1 -2 -2)
1969/12/31/18:00:18.677,(2 0 -1 -1 -1 -2 -1 1)
1969/12/31/18:00:18.695,(-1 -1 0 3 4 1 1 -1)
1969/12/31/18:00:18.695,(-1 -3 0 -2 -3 -2 -1 -3)
1969/12/31/18:00:18.697,(0 0 -1 0 -3 -2 -2 0)
1969/12/31/18:00:18.697,(-2 0 -1 -2 -1 -1 -4 -2)
1969/12/31/18:00:18.701,(0 -4 0 3 5 3 2 1)
1969/12/31/18:00:18.701,(-2 -1 1 0 -2 0 -1 1)
1969/12/31/18:00:18.708,(-1 0 2 -1 0 -3 -1 -1)
1969/12/31/18:00:18.708,(0 0 -1 1 3 1 1 2)
1969/12/31/18:00:18.720,(-1 -2 1 0 -1 1 2 -2)
1969/12/31/18:00:18.720,(1 0 -2 -1 -5 -2 0 -2)
1969/12/31/18:00:18.721,(0 -1 1 -1 2 0 2 2)
1969/12/31/18:00:18.721,(-2 -1 0 0 -1 1 0 1)
1969/12/31/18:00:18.740,(-1 -1 -2 -1 -2 -1 -1 1)
1969/12/31/18:00:18.740,(0 -1 -3 -2 -2 -1 -1 0)
1969/12/31/18:00:18.740,(-1 -2 -1 1 1 -2 -3 -2)
1969/12/31/18:00:18.740,(-1 -3 -2 1 0 1 -1 -2)
1969/12/31/18:00:18.760,(1 0 1 2 1 -2 -2 0)
1969/12/31/18:00:18.760,(0 2 1 -1 -3 -4 -4 -2)
1969/12/31/18:00:18.760,(-1 -2 -1 3 2 0 2 1)
1969/12/31/18:00:18.760,(3 2 -1 -1 0 0 2 3)
1969/12/31/18:00:18.771,(-3 -4 0 3 4 3 1 2)
1969/12/31/18:00:18.771,(-2 -1 0 0 0 -3 -10 -7)
1969/12/31/18:00:18.772,(-4 0 0 0 -1 0 1 -4)
1969/12/31/18:00:18.772,(-2 -2 -1 -3 0 1 -4 -3)
1969/12/31/18:00:18.791,(0 2 -1 -5 -4 -2 5 2)
1969/12/31/18:00:18.791,(-1 -1 -1 -1 -2 -2 0 1)
1969/12/31/18:00:18.792,(2 0 -2 -1 -1 0 -2 -1)
1969/12/31/18:00:18.792,(0 1 1 -2 0 0 0 1)
1969/12/31/18:00:18.811,(1 -2 -1 0 -1 0 -4 -5)
1969/12/31/18:00:18.811,(0 1 -1 -1 -1 0 2 3)
1969/12/31/18:00:18.812,(0 2 0 -3 -1 -2 -2 -1)
1969/12/31/18:00:18.812,(0 0 2 1 0 1 1 2)
1969/12/31/18:00:18.823,(0 -1 0 0 2 2 1 1)
1969/12/31/18:00:18.823,(1 -1 -2 -3 -2 2 4 3)
1969/12/31/18:00:18.824,(-2 0 -1 1 -2 -1 -2 -1)
1969/12/31/18:00:18.824,(0 0 2 -1 1 -1 -2 -1)
