timestamp,_data,_check_fields
41683685817.0,"array('h', [1.2865675936413405, 0.6936054370184666, 0.7387329154338333, 0.693791071451838, 1.0416249095625911, 0.5813959237049026, 1.396639894749991, 1.3800061844379188])",False
41703640205.97953,"array('h', [1.005607309602259, 0.43595890804906595, 0.8332220738063673, 0.8361688506719379, 0.8690160388002356, 0.6860387639357988, 1.3759840432664665, 0.9261006993528803])",False
41723594594.95906,"array('h', [0.9482114293342391, 0.7423224225996875, 0.8622657371250135, 0.7527221161316235, 0.7822168121212495, 1.0244525801414703, 1.2007037365964093, 0.7886027559780973])",False
41743548983.9386,"array('h', [0.9698531773084386, 0.6796551687797514, 0.7836452763491925, 0.7782260664240988, 0.9504198910127026, 1.1178511158014672, 1.1198689881403752, 0.8970696966223086])",False
41763503372.91813,"array('h', [0.903963843143523, 0.8288711113929063, 0.8120281596142669, 0.9092868883966265, 0.9151397731665974, 1.1138724810238125, 1.112898891361842, 0.8771191177333826])",False
41783457761.89766,"array('h', [0.8644271940782389, 0.8515313815666385, 0.7451527919505557, 0.9520795180104041, 0.8935543475597276, 0.9574300134095138, 1.147458405313811, 0.8905247273781077])",False
41803412150.87719,"array('h', [0.8408444200381293, 0.9213684849267761, 0.7847670683839493, 1.036358124459823, 0.9248620987341313, 0.961301672142988, 1.1827403440812172, 0.900459699679765])",False
41823366539.85673,"array('h', [0.8778353609795698, 0.9178582663520194, 0.895249972302199, 1.0348561612831422, 0.9727107407527416, 0.9157066512360953, 1.190604722052692, 1.0246556122382007])",False
41843320928.83626,"array('h', [0.9378040664111162, 0.9854221798322848, 0.8915086085672271, 1.0702809795926038, 0.919980615201094, 0.8714011615364328, 1.1272272334468931, 0.9962388266635381])",False
41863275317.81579,"array('h', [0.9791549804024474, 0.9685223506802723, 0.8626984419074408, 1.0441073896550352, 0.9254099086174625, 0.8703015955912617, 1.1305962951391533, 1.0296565880055406])",False
41883229706.79532,"array('h', [0.9804362708958909, 0.9951136863243669, 0.9233565594190201, 1.0723280651487717, 0.9712348775624703, 0.8636440538360091, 1.1236423214419493, 1.0295550067313057])",False
41903184095.77486,"array('h', [1.0258630316434199, 1.0745958782067346, 0.9528967197705578, 1.1923191543215612, 1.1463282558964953, 0.9177910300122952, 1.2032744249169094, 1.0675457303720453])",False
41923138484.75439,"array('h', [1.0915521095059515, 1.1597031302736198, 1.0375858386306547, 1.2447494597436966, 1.118308083606304, 0.9568418448700783, 1.264584701317477, 1.0834603596584425])",False
41943092873.73392,"array('h', [1.170834747006266, 1.1776839675566924, 1.094197091683325, 1.209220745716244, 1.1505740779645466, 0.9806719219028374, 1.2611130741495047, 1.081145890041661])",False
41963047262.71345,"array('h', [1.2032372465910992, 1.2659029182929666, 1.0783106710671202, 1.2155495120059423, 1.1017710968221037, 1.0001236219070553, 1.2458030576669419, 1.124677245556599])",False
41983001651.692986,"array('h', [1.2533398780499758, 1.3460359588245352, 1.1768570463390655, 1.2646703472007261, 1.1556222024367875, 0.9366915151677585, 1.2865116718866314, 1.1399019010090092])",False
42002956040.672516,"array('h', [1.4424644136508173, 1.582788556586645, 1.2292973602488646, 1.5262540170318855, 1.2493918201444283, 0.9247613355187122, 1.3300002880934807, 1.2276068797762298])",False
42022910429.65205,"array('h', [1.5821542673719364, 1.6883043869418988, 1.334529723290812, 1.6761177299525294, 1.4178613171414902, 1.0214160005016737, 1.38951746839123, 1.3937412204235944])",False
42042864818.63158,"array('h', [1.9112165195750164, 1.8744986603270446, 1.7267029544846704, 1.904047603261969, 1.6276775913027668, 1.1413355227683717, 1.5358292200312322, 1.6529895071795921])",False
42062819207.611115,"array('h', [2.25935679695953, 2.0700484532917836, 2.3652457196625227, 2.034654416635714, 2.232608543412086, 1.4680983256787565, 1.7568599244576173, 1.9014931572080596])",False
42082773596.590645,"array('h', [2.451880850880008, 2.1475022022359567, 2.7710183889624638, 2.523202002093608, 2.904445271793127, 1.7343523398003895, 1.9893708318837036, 1.9982382174664688])",False
42102727985.570175,"array('h', [2.5909880713070765, 2.221384858487505, 3.501301960010487, 3.1933881098176644, 3.377401941303804, 1.8883616806735555, 2.0375280335971016, 2.099983879942556])",False
42122682374.549706,"array('h', [2.7597789304560894, 2.405138961700506, 4.0582949192226, 3.6306592088985212, 3.7918515525260394, 2.0000305801582106, 2.0482799234777116, 2.1828649376363183])",False
42142636763.52924,"array('h', [2.876164494143001, 2.435770256898271, 4.508988105336584, 3.988503039821972, 4.007853492830152, 2.1904186285904834, 2.1221411939673587, 2.206807030877301])",False
42162591152.50877,"array('h', [2.936034998898888, 2.477293439881436, 5.164731586131212, 4.921098979999538, 4.7198440672360205, 2.4991738629055793, 2.1796502809615874, 2.245870153698939])",False
42182545541.488304,"array('h', [2.9669629696871125, 2.61437158312472, 5.797142138827832, 5.693287848313797, 5.471813155312852, 2.711356125868528, 2.1839607187024472, 2.2922449451728086])",False
42202499930.467834,"array('h', [3.5091275374655, 3.2421493523317055, 6.173596320021598, 6.901164845300876, 6.155006479843621, 3.0259657495724293, 2.316899300051469, 2.6060955590135597])",False
42222454319.447365,"array('h', [4.316513185138714, 4.217521740277231, 6.457833608447446, 7.933302721549479, 6.812378029164682, 3.121059185153197, 2.586697180023658, 3.0308447810348276])",False
42242408708.4269,"array('h', [4.340327133702998, 4.271435372532, 6.993710299869425, 8.750686372669286, 7.27269149377613, 3.5631708909351825, 2.7483513990981834, 3.1198709057286846])",False
42262363097.40643,"array('h', [4.445870472336389, 4.443019342174325, 7.704937078610385, 9.565668440624947, 8.15665147673931, 3.8340041014605704, 2.916744267081277, 3.118998944139714])",False
42282317486.38596,"array('h', [4.762765520162446, 4.8948312458175245, 8.30358209056758, 10.994270018192696, 8.872735272178874, 3.9897877981927645, 2.958829232217831, 3.217862213333381])",False
42302271875.36549,"array('h', [4.641071090581782, 5.038068482185971, 9.03675909583935, 13.24994284822013, 10.047254782333598, 4.16556175759509, 2.9713366688352267, 3.061501326176209])",False
42322226264.34503,"array('h', [5.0724440367378065, 5.967741723670242, 8.87531733552228, 14.618548410082392, 10.606877002112904, 4.255158539679156, 3.0449737970304476, 3.2985590405939154])",False
42342180653.32456,"array('h', [5.43676789870495, 6.501429327783411, 9.056819380955071, 16.488032342431673, 12.008854578510137, 4.762309167975481, 3.2595110666022173, 3.6092523556879206])",False
42362135042.30409,"array('h', [5.593488354656649, 6.673736019226197, 9.080587696247328, 17.312034211037645, 12.580372228677764, 4.960475629496991, 3.4871052449544107, 3.6784156923801663])",False
42382089431.28362,"array('h', [5.72518572666042, 6.953623594070326, 8.923444262962436, 18.195536812288612, 12.78877726974457, 5.1712061265785, 3.6520719099721712, 3.872504194436315])",False
42402043820.26316,"array('h', [5.624557878998145, 6.901561585237488, 8.808831887267072, 18.82584648109369, 13.118586277343455, 5.040627585756428, 3.5157572418644096, 3.8485336324903456])",False
42421998209.24269,"array('h', [5.645845594561654, 6.83657647924714, 8.410385989488834, 19.535716702721597, 12.83840300555379, 4.9012119265056775, 3.4356609227263966, 3.8387945794703713])",False
42441952598.22222,"array('h', [5.483099769868428, 6.669673640047294, 7.855889683397478, 18.999947526109597, 12.362105366278707, 4.6929741135778755, 3.5058983212666166, 3.7862993895779304])",False
42461906987.20175,"array('h', [4.758498188615383, 5.801126968713221, 7.950670252681209, 19.476968364890336, 13.184075872652182, 4.866317432430954, 3.362132876443083, 3.424376258721635])",False
42481861376.18129,"array('h', [4.28536945497985, 5.197404032533024, 8.058086208653275, 19.609272027468336, 13.673261392842228, 4.949170945173054, 3.202726869485554, 3.1183394452347026])",False
42501815765.16082,"array('h', [4.280762928575798, 5.155995869892006, 7.507958028209897, 19.537289623157594, 13.555121570611483, 4.637801574268405, 3.030135465342734, 3.1704496462184912])",False
42521770154.14035,"array('h', [3.8770891054318355, 4.630744064972198, 7.042546338793331, 19.820890872071004, 13.298629220835185, 4.555256051480917, 2.9098987579927442, 3.0305624970082183])",False
42541724543.11988,"array('h', [3.66044628036185, 4.3545626325119855, 6.007072198738293, 17.721337140712972, 12.172604923308239, 4.224574246520768, 2.7899828940174443, 2.867810602752875])",False
42561678932.09942,"array('h', [3.294975827154466, 3.7458347248811, 5.037425109826458, 16.934514178237077, 11.308530002229569, 3.9458434330607406, 2.4940469757006283, 2.661865623570833])",False
42581633321.07895,"array('h', [2.6091632103013405, 2.7399858396760712, 4.708930184250455, 15.106596020255754, 9.950243022954924, 3.4777120147629765, 2.1270063584577423, 2.133506567969643])",False
42601587710.05848,"array('h', [2.2803718907913457, 2.470923051924783, 3.9053262732485687, 13.137483534863563, 8.391090323450877, 3.030761825128903, 1.8941294811935094, 1.9914957185865636])",False
42621542099.03801,"array('h', [2.077795222733618, 2.2173151743920343, 3.531301965073405, 12.017126144628635, 7.750636145247335, 2.7184749844688993, 1.732793950717077, 1.9091123561653252])",False
42641496488.01755,"array('h', [2.138251098360193, 2.092502251309493, 3.205747800632612, 11.04190009476247, 7.248524161606136, 2.500556725725823, 1.6954471130416653, 1.8825249887388065])",False
42661450876.99708,"array('h', [2.447356206165239, 2.352872572821896, 2.8624967695759858, 9.526157516652162, 6.640924071311812, 2.4957937677167363, 1.9164019223630326, 2.0398268372154185])",False
42681405265.97661,"array('h', [2.5260960310260145, 2.39101300053831, 2.75700636119553, 8.559870327848783, 6.543275096804184, 2.592871553500364, 1.9460938414040037, 2.100139777324939])",False
42701359654.95614,"array('h', [2.5057118550436743, 2.413655591283059, 2.7655335521529087, 8.09539979844568, 5.906092898259324, 2.3442093070536503, 1.8170006897253945, 2.049814821456498])",False
42721314043.93567,"array('h', [2.828187602089114, 2.434496206982896, 2.3087883644799536, 6.563907366165574, 4.428551977287018, 2.0180449521183808, 1.802579978392484, 2.334002166885445])",False
42741268432.91521,"array('h', [2.9841287163910586, 2.5898665201192337, 2.111741828257905, 6.407032533957582, 3.9793871294617893, 1.9509035001651316, 1.8798000380193265, 2.536933861776577])",False
42761222821.89474,"array('h', [3.0725571438160064, 2.687985755893331, 1.9086863967494736, 4.68255065736884, 3.0718645685297745, 1.7495276901238899, 1.870074537380621, 2.4883733405901185])",False
42781177210.87427,"array('h', [3.1592088631214073, 2.7532193920680137, 1.9520297221074152, 4.50176022213425, 3.0859605281117792, 1.7663430203991457, 1.8572096673942977, 2.487764802264616])",False
42801131599.8538,"array('h', [3.2647819224364425, 2.8724202599011246, 2.132956189027673, 4.150710184870048, 2.847295469162728, 1.8880682143067116, 1.9835377887015166, 2.6635457769708992])",False
42821085988.833336,"array('h', [3.5457209422766915, 3.088024233929809, 2.34722719166284, 3.5161647576149226, 2.509898682342708, 1.9381699940828685, 2.1957482159167108, 2.7866615295872945])",False
42841040377.81287,"array('h', [3.973666141278121, 3.4725091363484637, 2.4812278367814975, 3.4376476135881147, 2.429809910614153, 1.9461215179725875, 2.3272717134330976, 2.9332741063345447])",False
42860994766.7924,"array('h', [4.052343606248336, 3.3902142485899898, 2.3274818643515798, 3.5434567430168666, 2.584674931812969, 1.969015977949762, 2.3207560359383628, 2.9047239951684056])",False
42880949155.77193,"array('h', [4.207507412687468, 3.4834355386665363, 2.274927185899625, 3.8955588980769296, 2.6493207775858347, 1.9928016591116553, 2.3847581610844077, 2.971748832684975])",False
42900903544.751465,"array('h', [4.461504801203355, 3.807034707774327, 2.4892088016643887, 4.068821833774187, 2.760149815073084, 2.183932348465796, 2.673678112359818, 3.1928685520979054])",False
42920857933.730995,"array('h', [4.556107893127281, 3.9838166570302036, 2.611856637821832, 4.054905763393528, 2.579443564323944, 2.2024021727270675, 2.8373161533915074, 3.315625575415535])",False
42940812322.710526,"array('h', [4.764388137301658, 4.01226364150789, 2.6230997554957125, 4.493718571459305, 2.6979761516508676, 2.244604824564825, 2.9728454219918103, 3.4412430420049067])",False
42960766711.690056,"array('h', [4.883026461427874, 3.951156135079841, 2.717710390565628, 4.499807086379209, 2.690542680162115, 2.3018405310686565, 3.0588834846172794, 3.508336905497932])",False
42980721100.66959,"array('h', [4.797225653768154, 3.974878597359846, 2.7457922911074784, 4.213370625321926, 2.6452100214333325, 2.3526998850914462, 3.213445738605934, 3.5475491318354764])",False
43000675489.649124,"array('h', [5.0640457017852984, 4.145130283818713, 2.7451891216630773, 4.254993318721112, 2.778876204588537, 2.5200303332718095, 3.343914581811947, 3.8379300997009684])",False
43020629878.628654,"array('h', [5.307140438001606, 4.19586192681896, 2.8049162411680197, 4.594420336839428, 3.0647467957981154, 2.715742994794506, 3.5131049489087967, 4.042310036605123])",False
43040584267.608185,"array('h', [5.161624414238094, 4.1556667363907085, 2.7020742444449692, 4.730889977555999, 3.6109758744050042, 2.82847452147453, 3.4539013432396386, 3.9730840643576126])",False
43060538656.58772,"array('h', [5.53310118997887, 4.291178049746978, 2.6633731839660832, 5.351007360763952, 4.389264131750111, 2.9554197287629265, 3.551532310399073, 4.247257500848056])",False
43080493045.56725,"array('h', [5.755000675689479, 4.181971906842512, 2.6549462516769604, 5.569292270893336, 4.432341060600663, 2.947822847608509, 3.526927237815858, 4.5043124132951675])",False
43100447434.54678,"array('h', [5.5069034679161275, 3.990987952663709, 2.74362328761961, 6.041054867841477, 4.918732946025156, 3.0277035989199597, 3.5225421157313432, 4.357156863902512])",False
43120401823.52631,"array('h', [5.946412045412422, 4.300459023552349, 3.212924517023866, 7.1153636630305215, 6.143690902728558, 3.536350130946725, 3.812738405081798, 4.746102710294971])",False
43140356212.505844,"array('h', [5.9386419140188895, 4.1018394795775395, 3.248878041948875, 7.260551568228009, 6.531837135268883, 3.7351760464771746, 3.8197129772308527, 4.893491646785974])",False
43160310601.48538,"array('h', [5.805756241627846, 3.8457170819373987, 3.222053576351082, 7.801231150993063, 6.583305880833424, 3.6840604883340573, 3.6343165829030366, 4.81877966572031])",False
43180264990.46491,"array('h', [5.852512668071402, 3.6909751007527407, 3.4298494898575944, 9.134953931601572, 7.493363915455835, 3.714491745873325, 3.495253213275665, 4.886811576042082])",False
43200219379.44444,"array('h', [6.461547086049451, 4.2017582354437115, 3.8345170236157733, 9.789908965577858, 8.29518506619378, 4.177310027105054, 3.8920192112740564, 5.23870531106327])",False
43220173768.42397,"array('h', [6.761074920482336, 4.592919365075537, 3.906109084964606, 10.198043404084979, 8.339709162997796, 4.403993591871945, 4.054847174249726, 5.305124549336216])",False
43240128157.40351,"array('h', [7.078809803425831, 4.551069155984576, 3.9905868084021474, 10.478925446688272, 8.859433456959612, 4.549045274566963, 4.135995953327776, 5.254533778610397])",False
43260082546.38304,"array('h', [7.3861688391462375, 5.129837369283613, 4.586211377310248, 11.188941429666402, 9.654009126729267, 5.046785318824798, 4.487776198063451, 5.371086103094598])",False
43280036935.36257,"array('h', [8.20060939178119, 5.717863710268774, 5.289030999212998, 12.833141384468929, 11.070193690366061, 6.192013947404793, 5.2067997892985876, 6.056382539170986])",False
43299991324.3421,"array('h', [8.454564747762031, 5.972789268158596, 5.831414455221654, 13.144632121399315, 11.506264728434232, 6.678882717065697, 5.389138502422131, 6.218644292083969])",False
43319945713.32164,"array('h', [8.40078806917913, 6.36415841356894, 5.900464179715494, 12.937625285929139, 11.54342463192097, 6.964816611422811, 5.60042935184579, 6.0216551185545555])",False
43339900102.30117,"array('h', [8.990980977353964, 6.873180236446426, 5.958366232447613, 13.104459445771875, 12.101776444392504, 7.376219788929827, 6.124295417573397, 6.532203746475253])",False
43359854491.2807,"array('h', [8.934596251774774, 6.96915867755955, 6.018371532223646, 12.865589864854917, 11.354365048497597, 7.27665554571602, 6.054891434184276, 6.633768877613665])",False
43379808880.26023,"array('h', [8.606274612760984, 6.852436492816777, 6.266274010905388, 13.64866562294757, 11.864354062872208, 7.382599955692414, 6.059080392110194, 6.198159858008457])",False
43399763269.23977,"array('h', [8.975713126119793, 7.142992927338757, 6.652466643567883, 14.505761617651231, 12.95157465305145, 7.667463845078355, 6.064426535352762, 6.23086079517619])",False
43419717658.2193,"array('h', [9.30295885809058, 7.463821798115122, 6.59077725398414, 14.316812864985343, 13.424152873043873, 8.07942646018905, 6.257920733262761, 6.5418012075749505])",False
43439672047.19883,"array('h', [8.913969882201025, 7.581761614397265, 6.828362532754992, 14.976110021469893, 14.407472697484625, 8.818209600569729, 6.373719350114201, 6.370766598064753])",False
43459626436.17836,"array('h', [8.309029792195235, 7.184784979946269, 6.8157124246589165, 15.366866901013138, 15.321146180101561, 9.035498732569962, 6.251890629823581, 6.080836104688646])",False
43479580825.1579,"array('h', [8.184259594486738, 7.07868610560929, 6.923824913555083, 15.88052271564027, 15.751852123842445, 8.984421341288632, 6.075134893762086, 5.9704188271382135])",False
43499535214.13743,"array('h', [7.684932553649682, 6.651544325734818, 6.798338905437321, 16.77545314507873, 16.278696603423082, 8.907865678741544, 5.991258896344104, 5.866061133323041])",False
43519489603.11696,"array('h', [7.118510866092791, 6.027288596776464, 6.3103701511773185, 16.32206909867544, 15.37776947309296, 8.225580029624744, 5.5989068033512055, 5.600109906916231])",False
43539443992.09649,"array('h', [6.5366563483354865, 5.561172436126038, 5.80233784739804, 15.712595546138136, 14.342023313567104, 7.270759655867005, 5.047096240896763, 5.0558981291509095])",False
43559398381.07603,"array('h', [6.589798038835732, 5.269681793310539, 5.706778426418596, 16.493192780450734, 14.590658720135322, 7.020149060101333, 4.926262534008695, 5.06717734421357])",False
43579352770.05556,"array('h', [5.842444924955098, 4.687936901760398, 5.619507290855817, 16.454293738699477, 14.394608320419954, 6.711248117315091, 4.423466905883919, 4.76481686775259])",False
43599307159.03509,"array('h', [5.539391917693899, 4.475468847720331, 5.794070915203158, 18.278573343728727, 15.095393491870565, 6.95955556984938, 4.376659869188904, 4.459534625526763])",False
43619261548.01462,"array('h', [6.407740835366171, 5.287390691500458, 6.15415729412206, 19.14631873232959, 15.79539317284754, 7.147619885570345, 4.478796818141465, 4.55522527394619])",False
43639215936.994156,"array('h', [6.307006062196698, 5.391984073438857, 6.2075714873819985, 19.16685389423912, 15.339055730758833, 7.136343254108068, 4.5380212912095095, 4.753407612002374])",False
43659170325.97369,"array('h', [5.9649645110561185, 5.030218798291541, 6.553454245736252, 20.304602349115243, 16.055354840827015, 7.24090262496836, 4.552680863151742, 4.50285543187142])",False
43679124714.95322,"array('h', [5.80392805848735, 4.674287921750615, 6.3796017754629055, 19.23107326365601, 16.363410339175257, 6.7108299897619945, 4.2598939708890855, 4.087114347784273])",False
43699079103.93275,"array('h', [5.906757279943057, 4.529808434074863, 6.211877845851547, 18.89491893057323, 15.486893431138839, 6.313761178326287, 4.181386501375345, 3.997356125127261])",False
43719033492.91228,"array('h', [5.648138648129416, 4.438927160374377, 6.355796392950159, 19.477808360559365, 15.268069609071732, 6.189451212239946, 4.196248681556401, 4.010780294017183])",False
43738987881.891815,"array('h', [5.556737381704698, 4.625910927957834, 6.397564246610332, 19.553156394730326, 15.132124493254185, 6.23863301841963, 4.183362303642092, 4.046819234820347])",False
43758942270.871346,"array('h', [5.5254645782859075, 4.611120171015401, 6.409482657893503, 19.482642615792482, 15.23776216152972, 6.22420092155607, 4.033609328668563, 3.7406154030426975])",False
43778896659.850876,"array('h', [5.4255750986487445, 4.653567222803651, 6.239914488799283, 18.776400892686596, 15.067052881920631, 5.90427639587203, 3.8552396603500716, 3.6991681261084848])",False
43798851048.83041,"array('h', [5.844033574303142, 5.0007005727177685, 6.091423050684318, 18.27731466549578, 15.005427704758914, 6.255259037550863, 4.377554809810611, 4.311585154002167])",False
43818805437.809944,"array('h', [5.712070309857199, 5.0371293580386, 5.942989863231449, 18.474372834472916, 15.481193054934963, 6.491954742183561, 4.5854806843482345, 4.348573484323014])",False
43838759826.789474,"array('h', [6.078837698771582, 5.33958538697683, 6.144928602323332, 18.80363348369806, 15.984405708895306, 6.458185837466674, 4.43830711485579, 4.26046646064568])",False
43858714215.769005,"array('h', [5.85719474129062, 5.342156332689723, 5.787635569375916, 17.19429663551439, 15.113453938622776, 5.856912296740386, 4.234557588272832, 4.401223941073544])",False
43878668604.748535,"array('h', [5.535160649757717, 5.029476868046646, 5.48982844757816, 16.435481561260797, 14.335404891097655, 5.440579529708933, 4.168955532554663, 4.393841141739136])",False
43898622993.72807,"array('h', [5.8235084573711715, 5.32877597980405, 4.964874371510709, 14.430300153753434, 13.558774114643084, 5.0149511852141035, 3.9670575843118803, 4.301132635366691])",False
43918577382.7076,"array('h', [5.852965697372733, 5.902898749182831, 4.634181823206627, 13.921860982641707, 12.179044092442352, 4.769608334295057, 3.981917075725273, 4.4689865893267635])",False
43938531771.68713,"array('h', [6.212230065251182, 6.524381049025437, 4.840090220915517, 14.275555162684686, 11.269766120862284, 4.769476034276891, 4.098154112195772, 4.7335997202803615])",False
43958486160.666664,"array('h', [7.280200484332922, 8.129745130041314, 4.492770138824401, 12.855847929078864, 10.656957538150566, 4.37761922363742, 4.045313650895647, 5.287271307620831])",False
43978440549.6462,"array('h', [7.5753093938423435, 8.337653187741763, 4.837639202130776, 13.102868711758973, 11.21757227337365, 4.560261509293356, 4.231293065190242, 5.34429433913666])",False
43998394938.62573,"array('h', [8.094680203958186, 8.766919977905287, 4.845808520169326, 13.345734221437333, 10.965518056131259, 4.499457604458478, 4.222117727681165, 5.393874570734613])",False
44018349327.60526,"array('h', [8.875059718682, 9.321522573605797, 4.8430866651777995, 13.689745451512954, 10.883003630858669, 4.858386406494555, 4.497289065507652, 5.76399025313716])",False
44038303716.58479,"array('h', [9.05493603703648, 9.774208895521559, 5.1510168172157345, 13.806747811643199, 10.889603463535337, 5.011719181139414, 4.530817151377422, 5.619981668311224])",False
44058258105.56433,"array('h', [8.97613684068426, 9.540644539950314, 5.200619555197427, 13.40174685101121, 9.965278366668516, 4.464018404313706, 3.9428871249957185, 5.101938362855532])",False
44078212494.54386,"array('h', [9.168404806624848, 9.79792988344936, 5.260060180174844, 12.996761863041371, 9.364593136363423, 4.369001655104293, 4.238212753693652, 5.500267370785443])",False
44098166883.52339,"array('h', [9.817764856649912, 10.383895834602374, 5.178004730882574, 13.38997376778418, 9.249488224844278, 4.472559654595647, 4.759740752056591, 6.048027622654353])",False
44118121272.50292,"array('h', [9.781559513317989, 10.412712324149767, 5.512521173981204, 13.846404417986102, 9.680603609014286, 4.8875285920009945, 4.928203366660652, 6.103479402094078])",False
44138075661.48245,"array('h', [10.011523794151302, 10.90815819532545, 5.779329480480419, 14.275705149628351, 9.73384781281921, 4.999293386650696, 5.140038438977062, 6.59931812898752])",False
44158030050.46199,"array('h', [9.808690020709582, 10.483568564641851, 6.028003867701417, 15.603355327221, 10.225039929000387, 5.089693828631106, 5.284395835275976, 6.621587017729055])",False
44177984439.44152,"array('h', [9.982242162398762, 10.303435676292237, 5.86188153534694, 15.133114042086673, 9.965460451666951, 5.112767221593028, 5.484921327198114, 6.96131863006326])",False
44197938828.42105,"array('h', [9.540837092598402, 9.176745297780998, 5.830562869451774, 14.796641207793439, 9.699129002533413, 4.943365691313906, 5.428432482948865, 6.921217140497091])",False
44217893217.40058,"array('h', [8.969397070984725, 8.057857881440336, 5.876495316102574, 15.9301796223115, 9.711624780486947, 5.065322421651849, 5.335690469194882, 6.811084686505912])",False
44237847606.38012,"array('h', [8.988446082660909, 8.284753916229658, 5.573229007933597, 15.760964597880436, 9.203040974712472, 5.029912662548678, 5.425822362780364, 7.035857769160075])",False
44257801995.35965,"array('h', [8.439591570532214, 8.001374872334248, 5.676924007700518, 14.882516185499748, 8.602085043966868, 4.909499284703622, 5.674593190094278, 7.169223088706282])",False
44277756384.33918,"array('h', [8.22153871441767, 7.835888198394352, 5.4721699723594135, 15.150555498457122, 8.50597788440345, 4.555392245390871, 5.611639225722365, 7.2567346690756604])",False
44297710773.31871,"array('h', [8.358665018863437, 8.380264431832888, 5.516576731056826, 15.19800656314129, 8.772136852838267, 4.631255093844525, 6.013729057281124, 7.800624969084768])",False
44317665162.29825,"array('h', [8.79978977856233, 9.17320997573814, 5.623932326210776, 14.73501014243593, 8.660135501876297, 4.710887415019762, 6.4089908456694795, 8.315747152825145])",False
44337619551.27778,"array('h', [8.258948503767085, 8.365948476470981, 5.699292452501843, 14.54522584967321, 8.378107202691536, 4.495450371621197, 5.88644081477152, 7.73150068194346])",False
44357573940.25731,"array('h', [7.72380693922493, 7.836406955900712, 5.508793602263249, 13.561636119669416, 8.110704408353774, 4.2494806554673294, 5.553562666815032, 7.4574045075722655])",False
44377528329.23684,"array('h', [7.965992584610729, 8.020602161927723, 4.958317663116112, 13.376962569669645, 8.20732390608714, 4.28737125442991, 5.460389824362244, 7.186087658581969])",False
44397482718.21638,"array('h', [7.800492525682821, 8.248994892344305, 4.785186570644735, 12.448437468480336, 7.7701016141856325, 4.415391829651288, 5.450249749286901, 6.991779754104139])",False
44417437107.19591,"array('h', [7.521355720832668, 8.228055780537739, 4.855584817871553, 11.738658740860153, 7.894713454767031, 4.271501977082002, 5.192444886308386, 6.718040164701779])",False
44437391496.17544,"array('h', [7.37996627827197, 8.339161351761412, 4.9503094380713755, 12.278546655813225, 8.487633100236375, 4.277999146762525, 5.022733248729757, 6.348172373704536])",False
44457345885.15497,"array('h', [7.275265598141807, 8.506195645069832, 4.993723945493969, 12.235462840159526, 8.532708375944464, 4.409637658437017, 5.30018737105724, 6.416586921339789])",False
44477300274.13451,"array('h', [7.462566193337415, 8.81439095452649, 5.007062620814091, 11.30288040476786, 8.353860631705984, 4.333454100307551, 5.364080433998333, 6.413443072928591])",False
44497254663.11404,"array('h', [7.655453711334943, 8.64243808527566, 5.000464585828356, 11.541264328785592, 8.334028401198434, 4.170029433279455, 5.003581874386101, 6.3273038023140895])",False
44517209052.09357,"array('h', [8.07880827186557, 8.882083233526346, 5.0552554032478865, 11.627832476327358, 8.546611255321485, 4.145491817061933, 4.705945724219683, 6.338237142630457])",False
44537163441.0731,"array('h', [8.515489152180228, 8.869682922011677, 5.117631047370955, 11.06478984351421, 8.170059374291323, 4.191257490172309, 4.649259579503302, 6.102898686147644])",False
44557117830.05263,"array('h', [8.670056665665175, 8.2811682040768, 4.988003848854373, 11.328257574830666, 8.228000609243388, 4.112958171324627, 4.328703200163295, 5.695355700601586])",False
44577072219.032166,"array('h', [8.91854280161626, 8.519373396573224, 4.813499588922417, 11.634971803776414, 8.444260486439656, 4.180346864363696, 4.336353356299696, 5.766756951198444])",False
44597026608.011696,"array('h', [9.828080112435536, 9.680052680043982, 4.762609294045133, 11.640599343645258, 8.38712843819702, 4.315534130243051, 4.624850105820437, 6.310040138865769])",False
44616980996.99123,"array('h', [10.143923918955828, 9.909634088799605, 4.6839331886262565, 10.97635403834104, 7.7111436744160855, 4.275289853274187, 4.732699940272804, 6.532882651448493])",False
44636935385.970764,"array('h', [9.770967876829586, 9.309365683988126, 4.654660715425353, 10.650554307829823, 7.159583634059195, 4.004197200492916, 4.54719583326739, 6.400945403444868])",False
44656889774.950294,"array('h', [9.986027231242236, 9.560977366378976, 4.4875452605945725, 10.835149886071942, 6.8010616172749145, 3.92823463284473, 4.532383242787195, 6.438875562015067])",False
44676844163.929825,"array('h', [10.52416551436959, 10.364491028045903, 4.507404790302773, 10.486292488775774, 6.300476884862156, 3.928921471571469, 4.590141518168166, 6.526803104477738])",False
44696798552.909355,"array('h', [11.032544098107374, 11.30481682077967, 4.36509892591656, 9.952900430935697, 5.934705960816849, 3.6957868426382583, 4.48855649095145, 6.883166841458626])",False
44716752941.888885,"array('h', [11.038605729925319, 11.284156993278835, 4.0963423777833325, 9.726269002874773, 5.8326498125167845, 3.5717619134151404, 4.163824986757204, 6.698610516145458])",False
44736707330.86842,"array('h', [10.70686521081249, 11.122429613749937, 3.9847036090941117, 9.185737413797062, 5.616995828863605, 3.413533718721119, 4.098525486626282, 6.7452429253112225])",False
44756661719.84795,"array('h', [10.701535122064229, 11.77882258275879, 3.9244253689440334, 8.534803286086799, 5.659843403622264, 3.515852864326117, 4.405084747357776, 7.038306839100089])",False
44776616108.827484,"array('h', [11.519725035675467, 12.72613715187389, 3.9774268339072743, 8.515044317879344, 5.951289661474747, 3.6649842574498397, 4.6968924239899765, 7.270528305662509])",False
44796570497.807014,"array('h', [10.870494063792165, 12.674910130664593, 3.829045970001369, 8.867114499476953, 6.126140346060269, 3.7099078671059984, 4.627545436245047, 6.832457699631259])",False
44816524886.78655,"array('h', [11.474279162664127, 12.76569040575082, 3.8109424038960813, 8.64860833190568, 5.9181710570764, 3.7621327835793066, 4.792982655135514, 7.052236326432518])",False
44836479275.76608,"array('h', [11.551495653124613, 12.911332139461543, 4.136975966732003, 8.59195203758394, 5.657806639706329, 3.857639130563895, 4.803163264446145, 7.0750817705487865])",False
44856433664.74561,"array('h', [11.039167622498846, 12.715146540546998, 4.403960647348329, 9.492605444075782, 5.908294135578056, 3.908273724858054, 4.730581821270452, 6.859977752732548])",False
44876388053.72514,"array('h', [12.183092155962854, 13.250422336458383, 4.424100708149012, 9.80394921480562, 6.008741351859334, 4.004983908448687, 5.200215743486918, 7.68367570594403])",False
44896342442.70468,"array('h', [13.389341397918944, 14.38847927888388, 4.521048898795636, 9.457908772838326, 6.119378354008234, 4.398127610419647, 5.986220263513585, 8.618127981178798])",False
44916296831.68421,"array('h', [13.715816480229803, 14.31780993948187, 4.3868161147301965, 9.183567643026752, 5.966778248499161, 4.4648123801739015, 6.382125196976003, 9.022223020978064])",False
44936251220.66374,"array('h', [13.043817904501354, 13.360568748522597, 4.339428634894832, 10.028545958389994, 5.895034012891695, 4.453972277980128, 6.266843291892867, 8.787507268996208])",False
44956205609.64327,"array('h', [13.659474664069176, 13.69588708787292, 4.514873858745852, 10.678710427627172, 6.518367121887132, 4.651513402641517, 6.5693296068138345, 9.017314273166145])",False
44976159998.62281,"array('h', [14.58631163717847, 14.81155002310116, 4.454508303661101, 10.254039771862297, 6.571562642126348, 4.883392761975554, 6.996786576835669, 9.333937369943387])",False
44996114387.60234,"array('h', [15.065188652574474, 14.893762366487922, 4.265182367288836, 10.193638532858522, 6.744242342206286, 5.171782584949578, 7.179044643616817, 9.270766439971057])",False
45016068776.58187,"array('h', [14.24328403169832, 13.899832400567167, 4.17799342594459, 9.93061488313857, 6.529334136901856, 5.100629581684228, 6.7969371675056385, 8.607170823386594])",False
45036023165.5614,"array('h', [13.948696642871276, 13.80000897460141, 4.324973495097561, 9.823488591105772, 6.279253032291073, 5.010070003576163, 6.556623762317507, 8.567080434340106])",False
45055977554.54094,"array('h', [14.022478901484543, 14.238686010509065, 4.43208470172768, 9.564230954129451, 6.118296680812008, 5.012304643024987, 6.595864208672537, 8.865793525121289])",False
45075931943.52047,"array('h', [13.053039824505474, 14.473116279659093, 4.554841444993811, 9.825160653820037, 6.158339328731304, 5.02957202992348, 6.552828761028041, 8.594432445900612])",False
45095886332.5,"array('h', [14.061185823656464, 15.501591283555337, 4.229797278191185, 8.975290837891572, 5.851048619364375, 4.9142311449662355, 6.488463883836548, 8.603631422199742])",False
45115840721.47953,"array('h', [15.244484240232342, 17.002733788741008, 4.181024599958436, 8.030823820211268, 5.526166278085705, 5.076141219461832, 6.692099087346214, 9.013827177907743])",False
45135795110.45906,"array('h', [14.377045190538452, 16.548899708277855, 4.129293139853237, 7.885965783266021, 5.593394311402666, 4.9675981554352155, 6.39231393755954, 8.608850871606966])",False
45155749499.4386,"array('h', [14.275078342461544, 16.300483659980642, 4.126410885808637, 7.97357638110675, 5.380062216815382, 4.548385221905178, 5.586708348743757, 8.027528268612752])",False
45175703888.41813,"array('h', [15.260351666474993, 17.467064473007003, 4.6232956104434155, 8.01798853720985, 5.708540796047054, 4.896773227956126, 5.888287535597803, 8.621881544159878])",False
45195658277.39766,"array('h', [15.230634113101559, 17.18671727928046, 4.380661572380824, 6.634775846022934, 5.121949257165112, 4.855836534035071, 5.836499109609722, 8.84751921224823])",False
45215612666.37719,"array('h', [14.864629470612543, 17.04238201324112, 4.472916424615916, 6.119376914583723, 4.650062547028871, 4.74851125053963, 5.676765955321056, 8.776112332368818])",False
45235567055.35673,"array('h', [15.04814328898165, 17.063794088001004, 4.560872044923814, 5.986422032365293, 4.491005330799745, 4.808494603832197, 5.821116108026228, 8.948196682711645])",False
45255521444.33626,"array('h', [15.347091047111288, 17.146092578921397, 4.782951170791639, 5.907500302402518, 4.36910929209546, 5.022374219645291, 6.358942625647343, 9.599015783809714])",False
45275475833.31579,"array('h', [14.888857623444661, 16.675380451261006, 4.775555424311068, 5.888927356302345, 4.385875980067003, 5.036053246765448, 6.534684732160109, 9.615737069841112])",False
45295430222.29532,"array('h', [15.380352152358729, 17.507630096416168, 4.774431637876231, 5.574182820642316, 4.2904830161835745, 5.285923034315493, 7.063058352425259, 10.232661540954139])",False
45315384611.27486,"array('h', [16.62718663145243, 19.577576328931396, 4.9337257016118885, 5.393631871266412, 4.504835034040299, 5.644089084846593, 7.300651410400422, 10.201810857849953])",False
45335339000.25439,"array('h', [17.849924649731904, 19.730154914907818, 4.67588181066322, 4.949429108333811, 4.568281241331921, 5.795223655763883, 7.7207806158618695, 11.153502967082218])",False
45355293389.23392,"array('h', [17.734724493699755, 19.726529460698938, 4.866396707346019, 5.083002699250514, 5.026691704104257, 6.224818390193418, 8.384292115870718, 11.606557456396029])",False
45375247778.21345,"array('h', [17.067798043418303, 19.729553739935834, 4.989559472121875, 5.155423837009873, 4.932411776567799, 5.926394443579097, 7.693579348680041, 10.598943836367555])",False
45395202167.192986,"array('h', [17.53611158723064, 19.948906356035884, 5.109158231996005, 5.071533233837539, 5.000057519108831, 6.164776288637271, 7.848666992133754, 10.617263532826465])",False
45415156556.172516,"array('h', [17.12861578339536, 19.68402832034088, 4.918545338383395, 4.795314753755773, 5.040793568550303, 6.307604086300089, 7.908077664584329, 10.512625501075933])",False
45435110945.15205,"array('h', [17.798715732737612, 20.0591851449831, 4.769785947113249, 4.618615918303489, 5.115644642272887, 6.556941455825678, 8.35790180010134, 10.849668312377716])",False
45455065334.13158,"array('h', [18.099666739623462, 20.263760947431425, 4.927650658972121, 4.684193564084009, 5.202864547394345, 6.76367934653911, 8.603614954044444, 10.748579319597667])",False
45475019723.111115,"array('h', [17.32750474174768, 19.57136603880208, 4.875612369451051, 4.539212840041356, 5.080583547540888, 6.601552750659004, 8.479742722653066, 10.822268267472774])",False
45494974112.090645,"array('h', [16.921074230161263, 19.604294745531703, 4.954058288559229, 4.394681913776315, 4.969274605917415, 6.339565340265163, 7.932017356615659, 9.929325821102397])",False
45514928501.070175,"array('h', [18.668567819124682, 21.257525928076248, 4.7967505667579475, 4.2068411845156914, 4.583425231705662, 6.204478530280317, 8.143937207773055, 10.633428354638452])",False
45534882890.049706,"array('h', [19.64110615269586, 21.75568444923712, 4.832898371469716, 3.9223929404077773, 4.50494292626525, 6.400055747957538, 8.646083796919465, 11.623993136983204])",False
45554837279.029236,"array('h', [19.473257622239608, 20.24080599824438, 4.692388831816501, 3.645225258212459, 4.242560570292157, 6.032041936189948, 8.285883784687362, 11.568919092269212])",False
45574791668.00877,"array('h', [18.977777634919367, 19.222184432120336, 4.742433616854655, 3.539171416763201, 4.4844678223586545, 6.290381529952743, 8.518128115143886, 12.011200686646598])",False
45594746056.988304,"array('h', [17.973778653851152, 18.33413719240628, 5.04012891902016, 3.514899812458508, 4.6165581552502015, 6.438128760046591, 8.248838072614053, 11.05194520925526])",False
45614700445.967834,"array('h', [17.87733712028813, 16.862716819522188, 4.887423714570778, 3.1410683979983616, 4.361537857083279, 6.370247143221807, 8.623419232658982, 11.72426932413849])",False
45634654834.94737,"array('h', [17.381281144363506, 16.116443813600295, 4.898754611667349, 3.0071107147686553, 4.31295928575276, 6.28258946890035, 8.567966564260276, 11.295348576800787])",False
45654609223.9269,"array('h', [18.88427872079097, 17.101458385772798, 4.946209473567015, 2.9847641963495866, 4.526068641249932, 6.496815707436087, 9.463108331687215, 13.094935183005356])",False
45674563612.90643,"array('h', [20.73425629538492, 18.441774934703304, 4.843904376142037, 3.0102179183322493, 4.584732287844135, 6.6826941832401365, 9.825702028937222, 14.118876741357536])",False
45694518001.88596,"array('h', [20.045209727659596, 18.292621503219276, 4.983686742937695, 2.9691821128648814, 4.503463060476298, 6.605721157348167, 9.563033987432497, 13.677610745820164])",False
45714472390.86549,"array('h', [21.477593920380667, 19.37240987789086, 5.10853419309105, 2.8888379895632146, 4.893491035083532, 7.282448591777309, 10.198338018315994, 14.217138989210765])",False
45734426779.84503,"array('h', [23.38280447234333, 21.96478233793724, 5.082965462614648, 2.958895910472419, 5.078239081871598, 7.505491118953432, 10.64077213290602, 14.684816699201711])",False
45754381168.82456,"array('h', [22.681487479258028, 21.51177490575519, 5.026763028287658, 3.162598543460712, 5.265177597389055, 7.7521233092231405, 11.192762068701985, 15.316213790908154])",False
45774335557.80409,"array('h', [21.323593326579452, 20.508144726804783, 5.021730395618424, 3.266589688225952, 5.431247944956707, 7.765523587708055, 10.738392065533482, 14.249524551621382])",False
45794289946.78362,"array('h', [21.7187899465886, 21.17398804340613, 5.300845015058842, 3.6994421520869785, 5.837030377595153, 8.114131907619617, 11.110152685978308, 14.799341604505035])",False
45814244335.76316,"array('h', [21.444312802349476, 20.8666973139354, 5.527877187828343, 3.938841470911911, 6.18422694864421, 8.500307749067249, 11.228994259512051, 14.790157907440559])",False
45834198724.74269,"array('h', [22.26828063964935, 21.177418393077307, 5.60223598274651, 3.7389310057149916, 5.814038122218209, 8.200229901665477, 11.187098314483976, 15.036970928405752])",False
45854153113.72222,"array('h', [21.584246990885852, 20.700384501586555, 5.383437974928024, 3.729262875061106, 5.796839834192652, 7.959338631292952, 10.661641359129161, 14.416560849544975])",False
45874107502.70175,"array('h', [23.929247196269618, 23.48384399012965, 5.794083164722703, 3.8156387028849044, 6.161846686094279, 8.526253657568681, 11.208275254273838, 15.29124863924159])",False
45894061891.68129,"array('h', [24.444688970493612, 24.827191553706058, 5.992692348848019, 4.020857262012271, 6.3360004625146855, 8.803921455317742, 11.35834764424436, 15.446442771940415])",False
45914016280.66082,"array('h', [22.01020625020354, 23.031006060446664, 5.968882870495576, 3.8911019857472073, 6.173177855415113, 8.416042422991481, 10.19306630788076, 13.076765693497402])",False
45933970669.64035,"array('h', [22.925488905475017, 23.81173031234965, 6.115885077407632, 3.784791811852314, 6.191409970983736, 8.453601577907857, 10.67936778452944, 14.166477958677339])",False
45953925058.61988,"array('h', [23.879413820605325, 25.696891369832844, 6.029851380269244, 4.024022772631498, 6.284975005121678, 8.23594623084454, 10.512203768470247, 14.202921756056723])",False
45973879447.59942,"array('h', [22.841615775926492, 24.883602822034092, 6.045530326820411, 4.064946153440519, 6.140723058959817, 8.107140690754925, 10.404712633653618, 14.169066112011421])",False
45993833836.57895,"array('h', [22.519284025039582, 23.35169591206768, 6.283567249572901, 3.9069501421340873, 6.139989305791847, 8.038738441335594, 9.999590042108583, 13.931465387254537])",False
46013788225.55848,"array('h', [23.368505804945627, 24.107570674691736, 6.672984661945727, 3.8877941683624737, 6.170843062543844, 7.906496838526822, 9.660180895802398, 13.626995763384393])",False
46033742614.53801,"array('h', [22.988121066241327, 23.8704091644177, 6.6966733057004015, 3.898804436925937, 6.300051070337329, 8.042501881762668, 9.848252827669073, 13.51434461096539])",False
46053697003.51755,"array('h', [23.274837909064352, 23.719724891352687, 6.663513530341954, 3.8155717238750184, 5.986886217404677, 7.748409031309413, 9.670112602347244, 13.190717888923364])",False
46073651392.49708,"array('h', [23.766981752176566, 23.724533447832172, 6.851309267679305, 4.056810012455688, 5.809563971996276, 7.768387543851769, 9.968659914140177, 13.567290037733159])",False
46093605781.47661,"array('h', [24.389445606910815, 24.92877527610721, 6.832897610502883, 4.104053208672039, 5.799181113098306, 7.683557545774762, 9.82341738847774, 14.028208714507683])",False
46113560170.45614,"array('h', [25.215488157383632, 26.376560867648855, 6.946597149448732, 4.266021841401794, 5.798516088630093, 7.872344518745353, 10.098782284890229, 14.968127297961649])",False
46133514559.43567,"array('h', [22.747725392099042, 24.019713033440244, 6.512044134451209, 4.358696902813286, 5.8279630407864245, 7.661578523130249, 9.756586593082673, 14.604875611273906])",False
46153468948.41521,"array('h', [23.460524508460374, 25.254685310696495, 6.71637497562579, 4.444562504868275, 5.784060686411781, 7.871692885234036, 10.467114357351614, 16.04231886801136])",False
46173423337.39474,"array('h', [22.511589619590126, 24.907025427004363, 6.747424590534292, 4.4716436098711, 5.657088989903051, 7.784492083752202, 10.277246761810325, 15.142338917330722])",False
46193377726.37427,"array('h', [20.878882120541977, 23.662861211912567, 6.762374790186071, 4.412789932342088, 5.4635710783718645, 7.444992323551456, 9.758295476199464, 14.137332374663638])",False
46213332115.3538,"array('h', [20.519064525907083, 22.830868456649874, 6.835243444491363, 4.218282909746137, 5.214764538693033, 7.234426416004538, 9.718095277060083, 14.34551255756254])",False
46233286504.333336,"array('h', [20.864753824385183, 23.16872460920609, 6.859856272033001, 4.39554177680148, 5.013922271743659, 6.988716190165149, 9.372532738217274, 14.1681992133925])",False
46253240893.31287,"array('h', [21.333940535423938, 24.484085297982197, 6.9901278009317025, 4.570427114874101, 4.911848243134792, 6.975188745002865, 9.752281139379484, 14.773502547502488])",False
46273195282.2924,"array('h', [21.184541902799054, 24.264708488947356, 6.949899523727206, 4.408036143814323, 4.854647954729957, 6.802341007115626, 9.649014166964063, 14.817242725269592])",False
46293149671.27193,"array('h', [21.071547421286894, 24.12293726160325, 6.880416884679662, 4.257233768158114, 4.924620258999758, 6.702369725344381, 9.324468853390583, 14.54545616558252])",False
46313104060.251465,"array('h', [20.28564598476816, 23.727169226711172, 6.446802899459421, 3.922306440480497, 4.899219425211147, 6.644731480953749, 9.077504690022097, 14.204698343532023])",False
46333058449.230995,"array('h', [19.762212324640508, 24.196161872516754, 6.345148307922323, 4.014216803912059, 4.831614072411989, 6.667385064545451, 9.2266123216892, 14.077572807549714])",False
46353012838.210526,"array('h', [19.082965641620998, 22.81101548651634, 6.537163830529108, 4.010987654730477, 4.822956553401271, 6.6945996884045025, 9.33751061827634, 13.646561520887674])",False
46372967227.190056,"array('h', [18.595934845904452, 21.52575720741783, 6.480778246255407, 3.916865217078636, 5.083077137364885, 6.531763496639635, 8.97555292569731, 13.316604164174596])",False
46392921616.16959,"array('h', [19.397254174202114, 21.17980798289289, 6.52105984999599, 4.017819243179421, 5.739798687133382, 6.974477894948621, 9.16642047172115, 13.128461645015141])",False
46412876005.149124,"array('h', [18.58162753324616, 20.418249839539122, 6.2378641290634285, 4.623045558441603, 7.102513091500883, 7.286961119676326, 8.937018396730743, 12.73403732194312])",False
46432830394.128654,"array('h', [18.202245068321282, 19.848942125208314, 6.4871275011682386, 5.596887758063725, 8.896882564862565, 8.364316126939299, 9.676663940093627, 13.777370828735098])",False
46452784783.108185,"array('h', [17.732181565617033, 18.350303008628554, 6.303653559833813, 6.1597851253533165, 9.470560436924824, 8.750534388946326, 9.796686288712966, 13.677824450970755])",False
46472739172.08772,"array('h', [16.76734557289692, 17.503939462191788, 6.4582944986232045, 6.8195107913283595, 10.125013024779024, 8.692270358627113, 9.691192705803862, 13.227138395036475])",False
46492693561.06725,"array('h', [16.200024140244093, 16.45097862506069, 6.354278971587188, 7.198004419614124, 11.394032829242569, 9.341541050142743, 9.99213628246907, 12.965143091196637])",False
46512647950.04678,"array('h', [16.69811640637014, 16.743695650489887, 6.316360994954302, 7.81703724153088, 12.31497190475823, 9.824336179582728, 9.93480902319191, 12.981637291893712])",False
46532602339.02631,"array('h', [17.178534423822057, 16.768931456631297, 6.1407839861212254, 7.880565245142728, 12.126234263133416, 9.772521988762454, 9.755654887093312, 12.96942489148063])",False
46552556728.005844,"array('h', [17.58496303362278, 16.87829889289506, 6.150125749112331, 7.8781020601336875, 11.875796431875271, 9.638778351629275, 9.972446223588335, 13.480943231138877])",False
46572511116.98538,"array('h', [18.27229286238723, 16.8037382818632, 6.307647308471322, 7.953891724653752, 11.899443498586141, 9.514912057655733, 9.889221175606842, 13.800668762194514])",False
46592465505.96491,"array('h', [17.636541883947096, 15.743335208961561, 6.025483047578928, 7.8249230660028894, 11.897729080309647, 9.262927675741928, 9.494994455182608, 13.369538153945594])",False
46612419894.94444,"array('h', [17.386767434853123, 15.348141707143203, 6.0770536848247465, 7.78351661741336, 11.671435137021533, 9.114786347708817, 9.45022518247503, 13.069715487606631])",False
46632374283.92398,"array('h', [16.76397503877679, 15.036536590673268, 5.8332373656859025, 7.464654553794154, 10.985035395401146, 8.746698294977845, 9.178272968836211, 12.655131989494695])",False
46652328672.90351,"array('h', [16.35083551273848, 15.075005561142987, 5.775147832299551, 7.047496991686068, 9.845644997996004, 7.953800142832405, 8.771490504492174, 12.35583417245033])",False
46672283061.88304,"array('h', [16.25425807612328, 14.428279505564074, 5.461383673662041, 6.171135263495518, 7.931874663880881, 6.969904329228438, 8.069737549414914, 11.554370899611301])",False
46692237450.86257,"array('h', [17.350796110380934, 16.150047841163186, 5.499010313470492, 5.380186091750366, 6.64258732056935, 6.103047412341841, 7.47570210920468, 10.90682567684449])",False
46712191839.8421,"array('h', [19.195576678887775, 17.955222356312582, 5.919648216541958, 5.195707711475979, 6.327440091266568, 6.029472387841824, 7.702691813476941, 11.841272045601732])",False
46732146228.82164,"array('h', [19.480979086205664, 18.32772844248127, 5.894156122509469, 4.546902945749201, 5.5033966476587475, 5.83676675265656, 7.687943177997177, 12.070099855172414])",False
46752100617.80117,"array('h', [19.61737950533914, 18.351315263590987, 6.227283201921006, 3.8515782672465337, 4.566570393673184, 5.671484454726915, 7.821014698437584, 12.246565432755473])",False
46772055006.7807,"array('h', [18.592335596187347, 17.60622381510971, 6.039299425741942, 3.4449824944355916, 3.9690941529976786, 5.466485748086622, 7.96786210998482, 12.150177285502084])",False
46792009395.76023,"array('h', [18.51644091396945, 17.770132503516145, 6.228344602987094, 3.6814903268019443, 4.017111639897348, 5.577452125184006, 8.102745848166219, 12.28353298696127])",False
46811963784.73977,"array('h', [16.984179601979537, 16.98330099534611, 5.937496626548451, 3.395860469247651, 3.665305273590192, 5.262133758268423, 7.664357050864425, 11.384625081133166])",False
46831918173.7193,"array('h', [16.00148996029109, 16.39893112103972, 5.888718066301587, 3.5820226622705764, 3.6234717572487534, 5.04706327779274, 7.413421079358804, 10.810700006141673])",False
46851872562.69883,"array('h', [15.820882325755637, 16.207325019736583, 5.720824183241407, 4.474457557938879, 4.456985985123244, 5.050031017292658, 7.32593244544452, 10.709179260041285])",False
46871826951.67836,"array('h', [14.758429163441077, 15.480088458805279, 5.993332101518256, 7.174724730034533, 5.738137694475088, 5.017133958001011, 7.027324616774674, 10.08585504443178])",False
46891781340.6579,"array('h', [14.536718307577411, 14.573368318522855, 6.348849121253623, 9.62515328879365, 7.099571806509842, 5.3205372753491895, 6.716470235114705, 9.659825140209403])",False
46911735729.63743,"array('h', [13.707031388518915, 13.370821344969896, 6.423123670750551, 10.414974152424035, 7.873088410771217, 5.4172334295388325, 6.455179949972524, 9.124875168584959])",False
46931690118.61696,"array('h', [13.375588535854066, 12.809989183603596, 6.677204013842582, 10.61191073195198, 8.049225904816842, 5.5165600361752105, 6.6874723247788115, 9.332619725313645])",False
46951644507.59649,"array('h', [10.85915495775225, 10.083658024252756, 6.447997471578938, 11.400684843248936, 8.293109522229688, 5.576912910378481, 6.291391571530076, 8.227491511219439])",False
46971598896.57602,"array('h', [9.795972331440824, 8.8827198867239, 6.51300184033617, 12.25969160353545, 8.545468060783952, 5.7456915216286975, 6.096713869184299, 7.461745032731189])",False
46991553285.55556,"array('h', [8.65092417869248, 7.749212648488643, 6.363911014413461, 13.018297848867192, 8.365904284736821, 5.343156091976692, 5.625553905424288, 6.831269335311858])",False
47011507674.53509,"array('h', [7.313492969960115, 6.504523765058398, 6.431240328029309, 14.483463274787828, 8.695762806125002, 4.79650142897646, 4.903782201552218, 5.8973286987524824])",False
47031462063.51462,"array('h', [6.799443397040726, 5.79792060064575, 6.689771445436109, 15.461353330238715, 9.430812558296363, 4.593568056818537, 4.482804495488734, 5.402931693080779])",False
47051416452.494156,"array('h', [5.85936825866404, 5.01822736551908, 6.847145305503687, 16.318352290890164, 9.428947961444644, 4.351743825498828, 3.953712254713479, 4.587278013309015])",False
47071370841.47369,"array('h', [5.5695798659069355, 4.638524580041079, 7.17946133657715, 17.503316438613886, 9.812443040725984, 4.445630021267415, 3.7197454595997304, 4.182420314888068])",False
47091325230.45322,"array('h', [4.609382645275976, 3.91143920229484, 7.270368567876377, 17.87125552352369, 10.398287582236113, 4.43068778137449, 3.4312225034159773, 3.5567968033060438])",False
47111279619.43275,"array('h', [4.430802570027462, 3.8695972998749375, 7.283053295234046, 17.32608510939041, 9.967952640716712, 4.348466448255759, 3.296424337123545, 3.3806834190908748])",False
47131234008.41228,"array('h', [4.021023708374708, 3.7066835142724934, 6.641372289592232, 15.56577297760496, 8.706947007590026, 3.909409786708498, 3.1282676399271616, 3.046610393448252])",False
47151188397.391815,"array('h', [3.9631657916462983, 3.7565110603899043, 6.722923381530242, 16.116028217630006, 8.113051329442209, 3.5946094321273048, 3.196723397906546, 3.0247848626030134])",False
47171142786.371346,"array('h', [4.022893198004928, 3.8154063466931083, 6.856333516798494, 17.102914498906337, 8.267005697680458, 3.699756013178489, 3.2626243977630986, 2.966538527635683])",False
47191097175.350876,"array('h', [3.8878541510629088, 3.6443797627942, 6.685648091199242, 16.914934545203597, 8.414001847138628, 3.5219806629439763, 3.0635829104929604, 2.8578591162750606])",False
47211051564.33041,"array('h', [3.656433033417178, 3.524368206571114, 6.28480359403945, 16.180162947870183, 8.131508405371443, 3.3431481693932747, 3.0403956645530923, 2.708190376987262])",False
47231005953.309944,"array('h', [3.2723897768276, 3.0324561528329115, 5.800305784637712, 16.872722001628777, 8.91736217440859, 3.323356154089055, 2.7508634054097842, 2.421542804729091])",False
47250960342.289474,"array('h', [3.423692055945866, 2.907649668416603, 5.529449525657712, 16.454522708638404, 9.542710427384707, 3.401938391770486, 2.714920958670154, 2.490123711225778])",False
47270914731.269005,"array('h', [3.6471680914792866, 2.7875314509355515, 5.7256492455898815, 16.703622973053644, 9.713866585946406, 3.750557762230664, 2.9377653564528172, 2.7744657993499127])",False
47290869120.248535,"array('h', [4.269367931808897, 2.9488821725677203, 6.27582877587794, 17.935100554538177, 10.376130916807496, 3.863009350019315, 3.222028442146706, 3.2329962229191977])",False
47310823509.22807,"array('h', [4.369527461685454, 2.940134969248665, 6.18791254279519, 17.236729557060627, 10.732013405469308, 3.911653922475308, 3.2974097191625233, 3.2414436768005004])",False
47330777898.2076,"array('h', [4.5549330389888905, 3.1431307164588738, 6.001211157411767, 17.0277419855954, 10.412183088729426, 3.8076833943258683, 3.286502547714495, 3.3693731687985142])",False
47350732287.18713,"array('h', [4.485501412055546, 2.984614359275779, 5.813142301519247, 16.50467312070717, 9.668739340781853, 3.745223267482342, 3.1758692083054556, 3.253422629618498])",False
47370686676.166664,"array('h', [4.630558285676904, 2.951190122957338, 6.069282767703209, 16.38695658295871, 9.53082291336123, 3.712950658577664, 3.1756408604483677, 3.2885571094300117])",False
47390641065.1462,"array('h', [4.706170121695538, 2.993955117664027, 6.107040262899553, 15.490916439123755, 9.189745679918962, 3.7549518420265073, 3.274193388515822, 3.318702264885487])",False
47410595454.12573,"array('h', [4.637035491240589, 2.808221425631058, 5.897351942389112, 14.069101938523607, 9.190535439651848, 3.8669955021587046, 3.309445511630643, 3.3872921850780995])",False
47430549843.10526,"array('h', [4.648717396477526, 2.9003081975685694, 6.334974358190397, 14.072084803373759, 9.237767058755267, 3.788630793450031, 3.286175420259526, 3.4537164341414366])",False
47450504232.08479,"array('h', [4.5354939901917835, 2.8279580898684515, 6.278678545366983, 14.056762717887613, 9.182660053091654, 3.6805839055320075, 3.151045758241218, 3.3991125141929373])",False
47470458621.06433,"array('h', [4.510528875862638, 2.815560995780871, 6.210530188970386, 13.042897420071505, 8.560980242472493, 3.358959414253615, 2.9062119846010828, 3.318735952142224])",False
47490413010.04386,"array('h', [4.758001410589388, 3.167923097421484, 6.350405290127222, 12.506329708906874, 7.957436490704799, 3.4967273105456713, 3.206874641295401, 3.505677305670919])",False
47510367399.02339,"array('h', [4.879459381914971, 3.4388328867033993, 6.417502271810585, 12.860733813798342, 8.170186776104387, 3.5555202319537376, 3.3478243436819684, 3.727849758244647])",False
47530321788.00292,"array('h', [4.252630767836266, 3.249781793835964, 5.520872688534704, 10.644482972934629, 7.257659956770829, 3.2759192512433164, 3.1103908268334814, 3.223283050000566])",False
47550276176.98245,"array('h', [3.59012611352379, 3.066339022408229, 4.824656047736553, 9.458085216117267, 6.585014846487962, 3.3069487464758742, 2.950088994936144, 2.8990842104895216])",False
47570230565.96199,"array('h', [3.4943065433484253, 3.0696818222499513, 4.686153671357083, 9.109486907304229, 6.390281263905791, 3.0678662589761934, 2.9062140930936495, 2.952091283111058])",False
47590184954.94152,"array('h', [3.5747304497573547, 3.1466813026442297, 4.612543994247925, 8.603129460240304, 6.262247112536712, 3.0861363919870803, 3.1527652283553245, 3.180518858257124])",False
47610139343.92105,"array('h', [3.5134031235891223, 3.206031216689085, 4.382606200919641, 8.087933926842387, 6.090357744818257, 3.0416403809613857, 3.173582998073354, 3.1714367845926392])",False
47630093732.90059,"array('h', [3.333962231629542, 3.158489727770171, 4.357797513255976, 7.696949338936282, 6.531983745155125, 3.184941055616539, 3.2668869919901797, 3.2644220451438435])",False
47650048121.88012,"array('h', [3.288889455240879, 3.3655576150293935, 4.74731118792156, 8.366520222351756, 6.975376566855808, 3.180087312793348, 3.1195551940233694, 3.293126307566755])",False
47670002510.85965,"array('h', [3.284465138985712, 3.4267902369703167, 4.403568706417955, 8.069823541641561, 6.679171154979523, 3.275419461414818, 3.3918387862653328, 3.3303969168790633])",False
47689956899.83918,"array('h', [3.369962776292483, 3.3755990902829707, 4.0298454820454435, 7.79943717865698, 6.594380593222637, 3.312145908613699, 3.8588344663476244, 3.408237597919658])",False
47709911288.81871,"array('h', [3.4525212218240373, 3.4918575537600347, 4.224948490207519, 8.420464505600043, 7.248764730504348, 3.63817644496665, 4.081713908147702, 3.3989575851480467])",False
47729865677.79825,"array('h', [3.3025044143722466, 3.348260188119978, 4.431840712751099, 9.099544051482557, 7.820172102473578, 3.7266118706499087, 4.311572353314384, 3.512047373458853])",False
47749820066.77778,"array('h', [2.9165895145382574, 2.9682215266932346, 3.985809027662552, 8.335226337439646, 7.190625603630887, 3.2636991118753524, 3.922809047077637, 3.121881311850906])",False
47769774455.75731,"array('h', [3.0554014881656872, 2.8160029718156814, 3.6650038373849347, 7.532308161632659, 6.494988028323666, 3.0915966585888572, 3.8411444947195723, 3.099717352190373])",False
47789728844.73684,"array('h', [3.138026152535388, 2.6689328942736874, 3.8088761369448023, 7.594032624133718, 6.491408122397651, 3.0801747018168375, 3.8442366615072787, 3.2341807144189025])",False
47809683233.71638,"array('h', [3.281470494892052, 2.7456300595089025, 3.6999093909507343, 7.509980835366953, 6.413561948976739, 3.0634025631130966, 3.9103097356438727, 3.2935563510059467])",False
47829637622.69591,"array('h', [3.066700510144281, 2.58005886029204, 3.502834771275427, 7.258520543931184, 6.29310943736771, 3.0133245632692143, 3.772305852417472, 2.9828790837466075])",False
47849592011.67544,"array('h', [2.9938704038775716, 2.484175296270723, 3.393036901255339, 7.019919890049044, 6.025014839722769, 2.8553892781388397, 3.611592074133652, 2.8867936794686213])",False
47869546400.65497,"array('h', [2.943235865474364, 2.408607184775425, 3.214460123406521, 6.696658050982715, 5.574157284962341, 2.751187060784774, 3.5332945917271292, 2.8110510384318363])",False
47889500789.63451,"array('h', [2.899261585914506, 2.253626783654741, 2.7180978177773385, 5.542101258323768, 4.774258576061891, 2.4725316805131703, 3.3967946581337536, 2.601261779688666])",False
47909455178.61404,"array('h', [2.8016524147731205, 1.9627748109319367, 2.3196864920368534, 4.329940461120401, 4.128356995477136, 2.1744150075617212, 3.2033542955066756, 2.461454413057927])",False
47929409567.59357,"array('h', [2.636443801231928, 1.7605206816867662, 2.110635239138292, 4.012883250355625, 3.721779670433815, 1.8478966119789288, 2.628335924420473, 2.1954782746931487])",False
47949363956.5731,"array('h', [2.470771285043618, 1.5555263038449312, 1.9026441686453006, 3.5275026557577895, 3.2210337916623653, 1.6332507487352819, 2.3269004671477367, 2.2017301500183115])",False
47969318345.55263,"array('h', [2.3688828708559186, 1.4853604288634767, 1.5142637300059412, 2.5425891965192653, 2.39498553446037, 1.2811161239250697, 2.1001427465435145, 2.116119871209207])",False
47989272734.532166,"array('h', [2.2319591344177954, 1.4281601844209544, 1.3123286344890306, 1.6799279366308635, 1.7734534668519562, 1.1526918019848709, 1.8921139095795543, 1.9674977751265106])",False
48009227123.511696,"array('h', [2.0078999334623178, 1.2859193632963324, 1.2740974573136314, 1.554467268941803, 1.5508712517984347, 1.0890329175385143, 1.7776438121330647, 1.9232059211709867])",False
48029181512.49123,"array('h', [1.773689889493731, 1.1740809289206922, 1.201188255813883, 1.4427773912095598, 1.4629482401958638, 1.003646724097251, 1.6771312836749217, 1.7217795969233398])",False
48049135901.470764,"array('h', [1.6232585944927826, 1.0608105738931393, 1.0562071596925255, 1.2384885604823228, 1.3617198871101708, 0.857096118956768, 1.5768018790683622, 1.5483519098166088])",False
48069090290.450294,"array('h', [1.5515018392231745, 0.9783037277026276, 1.044605913628314, 1.2194827693378978, 1.346130019331752, 0.8914362745462155, 1.5971363371049707, 1.5711176923656485])",False
48089044679.429825,"array('h', [1.5078172037423496, 0.9304896227751297, 1.0148293449094172, 1.1151907995916994, 1.2271297180992142, 0.8859338583093962, 1.626070515096819, 1.6060008207106462])",False
48108999068.409355,"array('h', [1.4059790740383935, 0.8902875906531751, 0.9995048880130138, 1.1194520744603986, 1.2351132762708308, 0.9239424937624804, 1.5950678239209033, 1.5688937628016437])",False
48128953457.388885,"array('h', [1.4696630231503742, 0.9669133421900944, 0.9681599234913144, 1.212577621484854, 1.2614814600905582, 1.0019234590479449, 1.6204092813907738, 1.644611985560769])",False
48148907846.36842,"array('h', [1.438750433369697, 0.9485768883075313, 0.9711411190084359, 1.256580391186073, 1.3299423580139849, 1.0649487271145008, 1.62670142243138, 1.6382595314036574])",False
48168862235.34795,"array('h', [1.4055932637616038, 0.9748401353989636, 0.9840995824336884, 1.2764743892646333, 1.1975782810380369, 1.044664625317309, 1.6571097899345146, 1.6827083793590754])",False
48188816624.327484,"array('h', [1.3854638286483332, 1.015154990822252, 0.9975288230193948, 1.3005847199735339, 1.2521286377816396, 1.18625500880568, 1.6514145451180358, 1.6972864938685421])",False
48208771013.307014,"array('h', [1.4415357046169217, 1.0408944315663797, 1.0041640246751005, 1.2489528265691827, 1.2244557513951972, 1.2137967310687, 1.626914424860687, 1.6309519169429294])",False
48228725402.28655,"array('h', [1.4587619614526182, 1.0690871271065578, 0.956556567219036, 1.2882101354848254, 1.3111670790428234, 1.35329577060064, 1.726084670897609, 1.6726629163927367])",False
48248679791.26608,"array('h', [1.5021373093417567, 1.1782281470823084, 1.0367714323189676, 1.3176541994106157, 1.3114993265898087, 1.4677676217232265, 1.8949800287936216, 1.7928649412235595])",False
48268634180.24561,"array('h', [1.4149659402558614, 1.2107261715616626, 1.037616166386628, 1.2548322273480041, 1.3706544892295103, 1.5420222801489205, 1.9683656892739096, 1.7944205304175849])",False
48288588569.22514,"array('h', [1.3690304851257082, 1.227198626051696, 1.001623918066082, 1.217564988406304, 1.316881995609058, 1.5605019821824422, 1.9177816520253228, 1.7739720682999318])",False
48308542958.20468,"array('h', [1.3901955017767285, 1.2357877820820211, 1.048321375376753, 1.1513578809032514, 1.2418161202252327, 1.590540189107453, 1.8891442566076018, 1.7270389048569217])",False
48328497347.18421,"array('h', [1.4480600237523382, 1.2648648742625728, 1.0691202467624727, 1.0846454569437194, 1.1818307226913876, 1.5921132781494889, 1.8500732196407357, 1.7585434360461139])",False
48348451736.16374,"array('h', [1.4407451834460678, 1.2779974947437098, 1.1096023078514516, 1.1355867688672878, 1.2104213840035298, 1.5882844323310668, 1.8861247243455943, 1.7839618832591098])",False
48368406125.14327,"array('h', [1.43096865204548, 1.2451155383803116, 1.093838142285248, 1.0902326182059152, 1.226317222729197, 1.5215030538801526, 1.911040706870771, 1.8011583127261654])",False
48388360514.1228,"array('h', [1.389007121952766, 1.1826385750198836, 1.0821584880737416, 0.9876709877375814, 1.1480334954542826, 1.4434711467758514, 1.840789536712495, 1.71762559989994])",False
48408314903.10234,"array('h', [1.3592076394970607, 1.1674782265168184, 1.0269883357157348, 0.9671800495141569, 1.0711732043065985, 1.3804646703052899, 1.8129690853390545, 1.6799200452470822])",False
48428269292.08187,"array('h', [1.2880035740351548, 1.1320774204064616, 1.0425370505604945, 0.8978979945263146, 1.081275360663247, 1.2975240404946955, 1.7246680573817386, 1.6373183273203402])",False
48448223681.0614,"array('h', [1.2738254561852316, 1.1032807759324166, 0.9958448973521044, 0.9242982229494384, 1.054490672806753, 1.1691903063225098, 1.7083853018233524, 1.615709451014975])",False
48468178070.04094,"array('h', [1.1987736429793285, 1.105042941945601, 1.0336057871617492, 0.9694909679731347, 1.0779376415310205, 1.1630624696338845, 1.721798306049455, 1.5882669119174473])",False
48488132459.02047,"array('h', [1.2132071631659769, 0.992556218607419, 1.0126178513131106, 0.9005941903132147, 1.0100976456553332, 1.0063921226735013, 1.541025335067243, 1.4933624779320378])",False
48508086848.0,"array('h', [1.120604185410109, 0.9626352933960604, 1.0209110142200668, 0.9175771825182417, 1.0364697634942006, 0.9653726330583817, 1.380829305157385, 1.2874763782530123])",False
