time,.data
1969/12/31/18:00:06.779,(0 -8 -46 -13 -1 4 -8 -1)
1969/12/31/18:00:06.779,(-6 -7 13 -1 -11 -1 15 1)
1969/12/31/18:00:06.780,(-11 -15 -55 -54 2 15 0 -8)
1969/12/31/18:00:06.780,(22 39 90 99 33 23 19 20)
1969/12/31/18:00:06.794,(5 18 75 72 17 -11 -36 -9)
1969/12/31/18:00:06.794,(-4 -5 -17 -5 -1 -22 -34 -14)
1969/12/31/18:00:06.794,(-1 -10 -24 -29 -8 15 35 7)
1969/12/31/18:00:06.794,(-23 -43 -96 -126 -61 -59 -24 -20)
1969/12/31/18:00:06.816,(-7 -9 -13 -1 21 25 18 0)
1969/12/31/18:00:06.816,(15 27 28 38 26 35 15 12)
1969/12/31/18:00:06.817,(6 0 7 -2 8 37 28 10)
1969/12/31/18:00:06.817,(-5 -5 -21 7 -3 -18 -44 -14)
1969/12/31/18:00:06.839,(-3 0 32 -5 -22 -64 -43 -15)
1969/12/31/18:00:06.839,(-7 -3 -12 -18 -6 -29 -18 -13)
1969/12/31/18:00:06.839,(4 7 24 33 14 58 40 14)
1969/12/31/18:00:06.839,(0 -7 0 -2 5 12 10 18)
1969/12/31/18:00:06.854,(-1 -6 -43 -3 -16 -1 11 -3)
1969/12/31/18:00:06.854,(-3 3 -14 -8 -3 8 -7 3)
1969/12/31/18:00:06.855,(-2 8 60 11 6 -30 -31 -15)
1969/12/31/18:00:06.855,(3 -4 -22 4 1 -2 13 -6)
1969/12/31/18:00:06.876,(-1 0 -14 -27 -1 -22 -29 -12)
1969/12/31/18:00:06.876,(-1 -11 -28 -21 -16 -12 42 10)
1969/12/31/18:00:06.877,(1 -1 19 7 -6 13 -8 3)
1969/12/31/18:00:06.877,(-5 0 -8 -29 -6 -8 -37 -18)
1969/12/31/18:00:06.899,(1 4 28 19 11 27 40 8)
1969/12/31/18:00:06.899,(3 4 8 33 3 1 -18 1)
1969/12/31/18:00:06.899,(-1 -3 3 -2 -1 -19 -8 -5)
1969/12/31/18:00:06.899,(-4 -7 -12 -13 -2 -1 9 0)
1969/12/31/18:00:06.914,(-7 -18 -36 -42 -19 3 8 5)
1969/12/31/18:00:06.914,(-2 6 3 -24 -4 -9 -17 -17)
1969/12/31/18:00:06.914,(0 4 0 23 -1 -19 -16 -3)
1969/12/31/18:00:06.914,(6 6 18 8 6 16 15 10)
1969/12/31/18:00:06.937,(-3 -9 -17 -17 -5 11 16 8)
1969/12/31/18:00:06.937,(-2 -2 -3 -2 5 4 -11 -9)
1969/12/31/18:00:06.944,(-7 -14 -17 -2 -4 -23 -7 -5)
1969/12/31/18:00:06.944,(2 10 10 9 6 18 30 -2)
1969/12/31/18:00:06.959,(6 4 6 1 4 -11 9 19)
1969/12/31/18:00:06.959,(2 -1 11 9 2 -1 8 8)
1969/12/31/18:00:06.966,(-2 0 -10 -3 -6 -6 -4 -3)
1969/12/31/18:00:06.966,(-11 -15 -6 -6 -4 -2 5 -7)
1969/12/31/18:00:06.973,(1 4 -8 0 -1 3 -1 -7)
1969/12/31/18:00:06.974,(-2 -8 -1 -21 -7 4 -3 2)
1969/12/31/18:00:06.974,(5 9 -12 15 1 -6 0 3)
1969/12/31/18:00:06.974,(5 6 21 12 6 3 -8 1)
1969/12/31/18:00:06.996,(0 6 4 4 3 7 3 0)
1969/12/31/18:00:06.996,(-4 -9 -3 -4 -1 -1 -4 -2)
1969/12/31/18:00:06.997,(-1 -3 -8 -7 -2 0 -4 -3)
1969/12/31/18:00:06.997,(-1 -4 -8 -2 -1 -1 5 1)
1969/12/31/18:00:07.019,(-5 -2 6 4 5 7 5 1)
1969/12/31/18:00:07.019,(3 3 -1 -2 -2 -1 3 2)
1969/12/31/18:00:07.019,(-4 -2 3 0 -2 -6 -5 -7)
1969/12/31/18:00:07.019,(-2 0 2 4 1 3 -2 -4)
1969/12/31/18:00:07.034,(-3 -8 -6 -6 0 3 7 4)
1969/12/31/18:00:07.034,(6 7 3 6 0 -1 -3 2)
1969/12/31/18:00:07.035,(-1 1 5 3 -1 -3 -1 1)
1969/12/31/18:00:07.035,(-2 -3 -5 -3 -3 -4 -5 -3)
1969/12/31/18:00:07.056,(-1 -3 -9 -5 -1 1 -5 -5)
1969/12/31/18:00:07.056,(-3 -4 0 5 0 -1 3 0)
1969/12/31/18:00:07.057,(0 0 2 -1 -2 -1 -1 -2)
1969/12/31/18:00:07.057,(0 -3 -4 -3 -1 -2 1 -1)
1969/12/31/18:00:07.080,(0 3 0 0 -1 -2 -3 -3)
1969/12/31/18:00:07.080,(-2 -3 0 5 0 -1 -2 -1)
1969/12/31/18:00:07.081,(-1 1 -4 -2 -3 -2 0 0)
1969/12/31/18:00:07.081,(-1 -1 -1 0 1 0 -1 -2)
1969/12/31/18:00:07.102,(-8 -14 -7 -1 0 2 -2 -10)
1969/12/31/18:00:07.102,(11 40 36 14 4 0 5 16)
1969/12/31/18:00:07.103,(0 2 1 -2 -2 -1 0 1)
1969/12/31/18:00:07.103,(1 -10 -11 -5 -3 -3 1 11)
1969/12/31/18:00:07.116,(1 4 -2 -3 -4 -3 -6 -13)
1969/12/31/18:00:07.116,(-19 -29 -20 0 0 5 4 -23)
1969/12/31/18:00:07.117,(3 9 0 -4 -6 -9 -9 12)
1969/12/31/18:00:07.117,(-5 1 7 0 0 0 -5 -9)
1969/12/31/18:00:07.139,(-13 -8 -8 -4 -2 -1 -5 -10)
1969/12/31/18:00:07.139,(17 -4 -4 -2 3 2 9 25)
1969/12/31/18:00:07.139,(8 0 2 2 0 -3 -3 -3)
1969/12/31/18:00:07.139,(0 -12 -10 -5 -2 0 6 6)
1969/12/31/18:00:07.154,(-22 -4 2 -2 -1 -2 -8 -20)
1969/12/31/18:00:07.154,(12 9 -3 -2 -3 -2 1 4)
1969/12/31/18:00:07.154,(-20 -4 4 3 2 -1 -7 -29)
1969/12/31/18:00:07.154,(-30 -27 -9 -2 -1 -2 -3 -4)
1969/12/31/18:00:07.176,(8 43 23 7 5 5 15 14)
1969/12/31/18:00:07.176,(35 -5 -9 -5 -8 -6 -1 29)
1969/12/31/18:00:07.177,(-14 -11 -7 -5 -4 -2 -6 -18)
1969/12/31/18:00:07.177,(-4 5 3 2 0 -2 -5 -20)
1969/12/31/18:00:07.199,(1 -16 -11 -3 -4 -8 -6 -28)
1969/12/31/18:00:07.199,(-59 -11 7 8 11 18 9 11)
1969/12/31/18:00:07.200,(61 9 0 -2 -5 -12 11 32)
1969/12/31/18:00:07.200,(-47 -27 -19 -14 -11 -16 -56 -57)
1969/12/31/18:00:07.214,(22 19 8 4 0 -2 39 29)
1969/12/31/18:00:07.214,(-18 3 2 -2 -1 -7 6 -55)
1969/12/31/18:00:07.214,(23 -3 2 4 2 12 -5 15)
1969/12/31/18:00:07.214,(79 35 13 7 1 1 22 73)
1969/12/31/18:00:07.236,(-71 -40 -25 -20 -17 -20 -31 -36)
1969/12/31/18:00:07.236,(12 6 0 -2 0 5 -10 5)
1969/12/31/18:00:07.237,(-59 -17 -6 -4 -3 -12 8 -60)
1969/12/31/18:00:07.237,(-23 -1 11 9 7 3 1 -33)
1969/12/31/18:00:07.259,(60 46 13 10 5 15 12 50)
1969/12/31/18:00:07.259,(22 -14 -15 -9 -10 -29 -6 14)
1969/12/31/18:00:07.260,(32 11 1 -2 1 14 -23 6)
1969/12/31/18:00:07.260,(13 10 1 -3 -3 33 31 21)
1969/12/31/18:00:07.273,(-2 -30 -6 1 9 10 3 34)
1969/12/31/18:00:07.273,(-97 -32 -2 4 -4 -17 -36 -75)
1969/12/31/18:00:07.281,(90 0 -1 1 2 8 19 70)
1969/12/31/18:00:07.281,(6 21 6 -1 0 -8 12 18)
1969/12/31/18:00:07.296,(48 14 5 3 5 9 26 48)
1969/12/31/18:00:07.296,(5 3 -10 -11 -13 -13 -10 -31)
1969/12/31/18:00:07.297,(-22 -11 0 1 2 -2 2 2)
1969/12/31/18:00:07.297,(0 8 1 7 3 -1 -9 -38)
1969/12/31/18:00:07.319,(40 23 18 2 1 1 0 26)
1969/12/31/18:00:07.319,(-73 -49 -25 -12 -2 -3 -22 -66)
1969/12/31/18:00:07.320,(16 2 4 4 0 0 13 32)
1969/12/31/18:00:07.320,(12 33 1 -1 1 -13 -18 -24)
1969/12/31/18:00:07.333,(-7 6 26 11 4 10 -8 -11)
1969/12/31/18:00:07.333,(-4 5 1 0 -2 6 12 -10)
1969/12/31/18:00:07.341,(-28 -5 1 0 -3 -19 -25 -31)
1969/12/31/18:00:07.341,(0 -37 -34 -10 -1 -2 1 27)
1969/12/31/18:00:07.356,(0 4 -3 -8 -10 -10 -12 -18)
1969/12/31/18:00:07.356,(60 7 3 -1 -2 9 47 103)
1969/12/31/18:00:07.357,(19 12 -2 -2 0 -1 6 33)
1969/12/31/18:00:07.357,(-10 -7 4 -2 -1 6 -5 -16)
1969/12/31/18:00:07.379,(-40 -19 -13 -1 2 -4 -12 -22)
1969/12/31/18:00:07.379,(43 20 15 10 5 19 14 10)
1969/12/31/18:00:07.386,(-15 18 6 -1 -2 1 6 -24)
1969/12/31/18:00:07.386,(-16 -12 -3 -2 -3 -8 4 0)
1969/12/31/18:00:07.402,(-23 -15 -7 -4 -5 -6 -21 -55)
1969/12/31/18:00:07.402,(74 10 -6 -2 -2 0 -4 76)
1969/12/31/18:00:07.403,(-46 -14 -4 -1 1 4 20 -39)
1969/12/31/18:00:07.403,(-4 15 17 1 0 -1 -27 -16)
1969/12/31/18:00:07.416,(-59 -36 -15 -3 0 -3 -6 -46)
1969/12/31/18:00:07.416,(49 20 6 7 7 -3 -14 25)
1969/12/31/18:00:07.417,(-77 -15 2 2 3 4 -11 -59)
1969/12/31/18:00:07.417,(79 1 -7 -7 -5 -2 14 37)
1969/12/31/18:00:07.439,(-35 -6 -10 -6 -3 -5 -7 -47)
1969/12/31/18:00:07.439,(-16 10 10 0 -1 -1 -3 -21)
1969/12/31/18:00:07.439,(6 17 8 7 6 2 -13 -11)
1969/12/31/18:00:07.439,(-12 34 24 14 10 -16 -25 -58)
1969/12/31/18:00:07.453,(17 -56 -27 -10 -5 11 64 91)
1969/12/31/18:00:07.453,(-38 -11 -8 -6 2 7 -5 -51)
1969/12/31/18:00:07.461,(18 10 0 -3 0 15 -8 9)
1969/12/31/18:00:07.461,(-36 -9 0 1 -4 -21 2 -2)
1969/12/31/18:00:07.484,(20 29 9 6 2 -7 -1 10)
1969/12/31/18:00:07.484,(-25 -17 -5 -5 -2 1 11 9)
1969/12/31/18:00:07.485,(-8 -7 3 1 -1 -6 -10 -10)
1969/12/31/18:00:07.485,(-26 -4 -3 -1 -1 13 9 -32)
1969/12/31/18:00:07.499,(50 25 3 0 -1 7 7 64)
1969/12/31/18:00:07.499,(-21 6 3 -1 -2 -5 -2 -33)
1969/12/31/18:00:07.499,(27 4 -4 -6 -6 2 4 21)
1969/12/31/18:00:07.499,(-27 -12 -6 1 0 6 0 0)
1969/12/31/18:00:07.513,(-1 -14 -2 3 0 3 17 55)
1969/12/31/18:00:07.513,(-4 -2 1 1 -4 -16 -9 -5)
1969/12/31/18:00:07.521,(8 -38 -15 -7 -6 -13 -3 51)
1969/12/31/18:00:07.521,(15 0 0 -1 1 -3 8 12)
1969/12/31/18:00:07.536,(-69 2 7 3 3 -1 -4 -49)
1969/12/31/18:00:07.536,(-1 -5 -11 -6 -6 -5 41 43)
1969/12/31/18:00:07.537,(9 2 -2 0 -1 10 -45 -67)
1969/12/31/18:00:07.537,(-27 -18 -3 -3 -4 -2 -1 -12)
1969/12/31/18:00:07.559,(-14 -28 -13 -5 -4 -27 -13 28)
1969/12/31/18:00:07.559,(-46 0 6 6 5 1 -3 -45)
1969/12/31/18:00:07.559,(-10 -3 2 3 3 0 21 25)
1969/12/31/18:00:07.559,(46 14 -5 -9 -8 3 7 14)
1969/12/31/18:00:07.573,(8 17 -1 -2 -4 -4 -20 -30)
1969/12/31/18:00:07.573,(-3 -4 0 2 7 17 -23 -2)
1969/12/31/18:00:07.581,(10 2 -1 -4 -5 -16 15 3)
1969/12/31/18:00:07.581,(18 15 12 7 3 1 -10 17)
1969/12/31/18:00:07.598,(14 -1 5 0 -1 -2 -20 -42)
1969/12/31/18:00:07.598,(20 17 0 -1 -2 -5 -17 -40)
1969/12/31/18:00:07.599,(-52 -24 -13 -4 3 16 16 -22)
1969/12/31/18:00:07.599,(-27 -26 -16 -9 -5 -2 2 -17)
1969/12/31/18:00:07.619,(19 26 12 2 0 0 -7 -5)
1969/12/31/18:00:07.619,(-15 35 9 4 3 2 -22 -4)
1969/12/31/18:00:07.619,(-3 -40 -21 -19 -20 -21 -17 12)
1969/12/31/18:00:07.619,(0 -3 -4 -5 -2 -18 -8 14)
1969/12/31/18:00:07.642,(-24 -3 -3 -4 -3 27 15 -2)
1969/12/31/18:00:07.642,(76 5 8 7 4 -2 -41 65)
1969/12/31/18:00:07.643,(-37 28 15 9 5 4 55 -48)
1969/12/31/18:00:07.643,(-14 -42 -29 -19 -21 -22 -39 -32)
1969/12/31/18:00:07.656,(-3 4 -5 -6 4 10 -13 -53)
1969/12/31/18:00:07.656,(-20 -1 1 0 1 26 32 9)
1969/12/31/18:00:07.657,(30 29 13 6 -2 -27 3 6)
1969/12/31/18:00:07.657,(50 8 7 5 -3 5 28 91)
1969/12/31/18:00:07.687,(-18 -11 -4 4 -9 -58 -10 -75)
1969/12/31/18:00:07.687,(16 -17 -6 17 9 8 21 17)
1969/12/31/18:00:07.687,(-26 -16 -8 -13 14 19 -5 8)
1969/12/31/18:00:07.688,(33 23 3 -24 -25 12 10 57)
1969/12/31/18:00:07.702,(-12 -2 -2 -15 -14 -10 -3 6)
1969/12/31/18:00:07.702,(35 -1 -13 -18 -2 -9 24 76)
1969/12/31/18:00:07.702,(-2 7 3 12 13 5 -15 -3)
1969/12/31/18:00:07.702,(-104 -4 11 21 10 -2 -2 -57)
1969/12/31/18:00:07.716,(69 5 -1 9 19 5 16 75)
1969/12/31/18:00:07.716,(-18 -10 -7 -21 -21 3 -9 -40)
1969/12/31/18:00:07.717,(-2 7 0 -6 -8 4 -13 -2)
1969/12/31/18:00:07.717,(-28 -12 -4 0 9 13 13 -36)
1969/12/31/18:00:07.739,(7 9 -5 8 11 7 9 16)
1969/12/31/18:00:07.739,(-35 -25 1 1 -8 2 4 -9)
1969/12/31/18:00:07.739,(-11 -12 -8 -4 -27 -45 -12 19)
1969/12/31/18:00:07.739,(-11 -8 3 15 43 26 -15 -23)
1969/12/31/18:00:07.762,(-2 11 6 4 3 12 0 -29)
1969/12/31/18:00:07.762,(-12 -5 2 6 10 -12 -31 -2)
1969/12/31/18:00:07.763,(19 10 -3 -23 -17 22 -6 -18)
1969/12/31/18:00:07.763,(34 6 -6 -17 -33 -28 30 19)
1969/12/31/18:00:07.776,(1 -18 -6 -12 -23 -9 0 23)
1969/12/31/18:00:07.776,(-6 8 4 6 27 -13 -14 -25)
1969/12/31/18:00:07.777,(34 1 0 13 3 17 10 35)
1969/12/31/18:00:07.777,(-14 -22 -17 9 19 10 6 -3)
1969/12/31/18:00:07.799,(7 10 -13 -3 29 15 -24 -13)
1969/12/31/18:00:07.799,(-10 5 23 -5 -33 -19 6 -16)
1969/12/31/18:00:07.799,(-15 -14 -7 -4 -9 -2 11 20)
1969/12/31/18:00:07.799,(-9 11 10 2 -12 -23 -16 -4)
1969/12/31/18:00:07.822,(-47 -8 6 34 43 37 8 -35)
1969/12/31/18:00:07.822,(-43 -24 -28 -36 -22 2 -18 -31)
1969/12/31/18:00:07.823,(-7 6 9 6 7 14 6 -1)
1969/12/31/18:00:07.823,(21 -48 -46 -22 -10 4 4 14)
1969/12/31/18:00:07.836,(9 89 79 19 -9 -42 -10 2)
1969/12/31/18:00:07.836,(32 -4 -8 11 9 19 23 50)
1969/12/31/18:00:07.837,(-2 18 14 3 10 -2 -22 -29)
1969/12/31/18:00:07.837,(-5 15 14 7 12 16 -8 -56)
1969/12/31/18:00:07.867,(57 -69 -52 -24 -33 -3 18 69)
1969/12/31/18:00:07.867,(43 29 -4 1 0 -17 -2 10)
1969/12/31/18:00:07.868,(57 2 1 6 11 -13 3 25)
1969/12/31/18:00:07.868,(13 -90 -70 -17 -13 -6 -1 28)
1969/12/31/18:00:07.882,(3 72 38 2 -10 -1 -12 -4)
1969/12/31/18:00:07.882,(-93 11 21 -5 -8 10 -3 -89)
1969/12/31/18:00:07.883,(40 3 -2 14 23 -5 1 46)
1969/12/31/18:00:07.883,(-27 33 41 25 -2 -41 -17 -37)
1969/12/31/18:00:07.896,(-20 -57 -55 -32 -4 41 5 -22)
1969/12/31/18:00:07.896,(3 -18 -14 -7 -2 7 1 -4)
1969/12/31/18:00:07.897,(-45 8 7 4 -13 -7 -1 -13)
1969/12/31/18:00:07.897,(21 0 -7 -2 8 1 2 9)
1969/12/31/18:00:07.919,(-22 -49 -62 -22 -29 -24 -17 -23)
1969/12/31/18:00:07.919,(6 69 93 29 24 7 -3 22)
1969/12/31/18:00:07.920,(-31 6 14 13 12 11 -10 -56)
1969/12/31/18:00:07.920,(-1 -35 -30 -9 5 -11 -5 31)
1969/12/31/18:00:07.942,(10 51 23 4 -11 11 2 17)
1969/12/31/18:00:07.942,(12 -49 -40 -2 8 -21 -11 -17)
1969/12/31/18:00:07.943,(13 -38 -38 -27 -34 0 1 10)
1969/12/31/18:00:07.943,(16 65 28 -6 -11 8 6 27)
1969/12/31/18:00:07.956,(-6 52 83 35 15 5 15 33)
1969/12/31/18:00:07.956,(19 -12 -34 -5 13 -8 -3 -30)
1969/12/31/18:00:07.957,(-52 -80 -76 -4 16 7 5 17)
1969/12/31/18:00:07.957,(30 90 49 10 -1 13 12 13)
1969/12/31/18:00:07.979,(28 10 26 -1 -14 -22 -14 23)
1969/12/31/18:00:07.979,(20 -28 -59 -25 -22 -2 -2 -2)
1969/12/31/18:00:07.979,(-33 -7 68 26 3 -20 -5 -26)
1969/12/31/18:00:07.979,(-40 -36 -17 -2 15 19 0 -26)
1969/12/31/18:00:08.002,(-16 -57 -69 -28 -25 -9 4 -50)
1969/12/31/18:00:08.002,(-13 1 48 37 51 41 -1 4)
1969/12/31/18:00:08.003,(-22 -80 -96 -37 -33 -5 2 -19)
1969/12/31/18:00:08.003,(0 35 -28 -25 11 53 5 -11)
1969/12/31/18:00:08.016,(48 90 84 17 -10 -37 -12 10)
1969/12/31/18:00:08.017,(-36 -67 -14 -8 -8 -9 9 18)
1969/12/31/18:00:08.017,(38 54 25 3 -13 -19 1 28)
1969/12/31/18:00:08.017,(6 -85 -43 9 21 2 3 3)
1969/12/31/18:00:08.039,(-21 -15 -21 -5 -3 1 -14 -11)
1969/12/31/18:00:08.039,(21 56 52 3 -2 -9 -14 -22)
1969/12/31/18:00:08.040,(-1 18 12 11 15 41 5 28)
1969/12/31/18:00:08.040,(-22 20 7 -8 -20 -43 5 -14)
1969/12/31/18:00:08.062,(-34 -106 -66 -24 20 32 -2 -10)
1969/12/31/18:00:08.062,(-4 -30 -11 3 -35 -44 10 19)
1969/12/31/18:00:08.063,(-59 68 34 0 24 36 1 -55)
1969/12/31/18:00:08.063,(36 60 85 31 -1 -6 -25 4)
1969/12/31/18:00:08.076,(-12 -55 -49 -3 -4 -22 6 19)
1969/12/31/18:00:08.076,(-4 -77 -68 -20 -4 19 12 12)
1969/12/31/18:00:08.077,(2 -14 -28 -4 -1 -51 -14 0)
1969/12/31/18:00:08.077,(18 62 52 8 4 48 2 -5)
1969/12/31/18:00:08.100,(-6 44 35 10 3 4 -2 -16)
1969/12/31/18:00:08.100,(63 17 15 7 -34 -27 -8 19)
1969/12/31/18:00:08.100,(-15 -89 -51 -31 -16 5 15 -5)
1969/12/31/18:00:08.100,(15 -16 -29 -7 -11 -28 -1 48)
1969/12/31/18:00:08.122,(-14 63 31 13 8 -14 -5 -35)
1969/12/31/18:00:08.122,(-8 -46 -8 14 26 -9 -11 -8)
1969/12/31/18:00:08.123,(58 75 2 -11 -9 33 3 13)
1969/12/31/18:00:08.123,(-12 38 56 11 -7 1 11 -6)
1969/12/31/18:00:08.136,(-11 -128 -118 -39 -17 6 9 36)
1969/12/31/18:00:08.136,(-62 -22 -79 -24 -7 -33 -22 -66)
1969/12/31/18:00:08.137,(39 102 113 57 17 -29 -10 6)
1969/12/31/18:00:08.137,(13 -96 -47 -6 14 2 -12 6)
1969/12/31/18:00:08.161,(23 -4 -54 -20 -56 -10 -8 8)
1969/12/31/18:00:08.161,(-12 47 71 26 9 10 16 -2)
1969/12/31/18:00:08.162,(-6 -77 -51 -27 -6 -1 4 30)
1969/12/31/18:00:08.162,(-38 -47 -72 -23 4 3 -3 -27)
1969/12/31/18:00:08.182,(26 -7 57 25 20 13 11 14)
1969/12/31/18:00:08.182,(5 113 48 14 -3 -25 -7 3)
1969/12/31/18:00:08.183,(17 27 43 8 1 41 9 -10)
1969/12/31/18:00:08.183,(-16 -39 -11 7 -18 -29 -7 -6)
1969/12/31/18:00:08.196,(24 -60 -46 -8 22 -4 -2 21)
1969/12/31/18:00:08.196,(-2 -7 -33 -8 23 29 22 14)
1969/12/31/18:00:08.197,(25 -43 -36 -27 -76 -41 -18 -13)
1969/12/31/18:00:08.197,(1 13 -2 5 15 0 15 7)
1969/12/31/18:00:08.220,(-13 -58 -21 -22 29 43 -9 -37)
1969/12/31/18:00:08.220,(36 118 101 40 12 16 18 34)
1969/12/31/18:00:08.220,(-17 -52 -45 4 30 6 -3 -32)
1969/12/31/18:00:08.220,(-48 -71 -33 -19 -34 -24 -22 -34)
1969/12/31/18:00:08.242,(-21 -27 -56 -10 -25 -71 -12 -4)
1969/12/31/18:00:08.242,(47 69 47 0 18 62 9 15)
1969/12/31/18:00:08.243,(-48 -60 -5 7 8 -9 -2 -34)
1969/12/31/18:00:08.243,(50 -10 -45 -5 18 -13 -1 28)
1969/12/31/18:00:08.256,(-47 63 52 18 11 28 -12 -37)
1969/12/31/18:00:08.256,(-29 -84 -67 -40 -42 -10 -11 -6)
1969/12/31/18:00:08.264,(33 31 5 -2 7 -7 0 8)
1969/12/31/18:00:08.264,(19 -80 -41 -13 6 24 17 50)
1969/12/31/18:00:08.280,(-39 67 36 19 24 -10 -10 -74)
1969/12/31/18:00:08.280,(-6 -26 -33 -29 -21 1 -14 5)
1969/12/31/18:00:08.280,(10 77 50 6 3 10 5 12)
1969/12/31/18:00:08.280,(-19 -80 -18 9 -9 -10 -3 -5)
1969/12/31/18:00:08.302,(13 -24 -79 -20 -1 -10 31 10)
1969/12/31/18:00:08.302,(44 72 79 100 77 32 -9 38)
1969/12/31/18:00:08.303,(-2 -112 -108 -38 -65 -35 -29 -27)
1969/12/31/18:00:08.303,(-55 -39 -67 -25 -26 -17 5 -31)
1969/12/31/18:00:08.316,(-62 27 47 7 26 33 -34 -44)
1969/12/31/18:00:08.316,(7 -128 -125 -53 -23 -16 11 -30)
1969/12/31/18:00:08.325,(26 127 118 52 22 -21 1 49)
1969/12/31/18:00:08.325,(-11 38 83 46 21 34 19 -17)
1969/12/31/18:00:08.340,(-7 -107 -55 -25 -40 -25 3 27)
1969/12/31/18:00:08.340,(23 21 -21 -11 -6 -2 8 35)
1969/12/31/18:00:08.341,(-36 -8 26 18 35 15 3 -6)
1969/12/31/18:00:08.341,(53 33 -4 -24 -39 -20 -18 -1)
1969/12/31/18:00:08.362,(-8 19 11 8 13 7 -11 -1)
1969/12/31/18:00:08.362,(-28 40 39 10 -3 1 7 14)
1969/12/31/18:00:08.363,(47 3 -28 -8 8 5 14 65)
1969/12/31/18:00:08.363,(67 53 27 3 -4 -10 -13 -11)
1969/12/31/18:00:08.375,(-38 -105 -45 -4 16 22 8 9)
1969/12/31/18:00:08.375,(-27 -96 -73 -26 -34 -45 -11 21)
1969/12/31/18:00:08.385,(-62 98 79 27 32 33 -36 -86)
1969/12/31/18:00:08.385,(-16 -3 11 -7 -10 -3 35 -7)
1969/12/31/18:00:08.399,(91 75 39 10 1 19 33 59)
1969/12/31/18:00:08.399,(-57 -103 -51 -18 14 -17 -28 -73)
1969/12/31/18:00:08.401,(-30 -110 -102 -10 51 79 53 59)
1969/12/31/18:00:08.401,(13 86 93 12 -42 -7 4 -27)
1969/12/31/18:00:08.430,(13 97 49 9 -26 -21 -28 -16)
1969/12/31/18:00:08.430,(-11 -6 28 9 0 -11 27 52)
1969/12/31/18:00:08.431,(42 -66 -68 -33 -12 -32 -19 6)
1969/12/31/18:00:08.431,(-18 27 8 15 24 10 -16 -8)
1969/12/31/18:00:08.436,(0 -39 1 -2 0 6 26 38)
1969/12/31/18:00:08.436,(-47 58 7 4 -12 -8 -26 -50)
1969/12/31/18:00:08.445,(13 -59 -15 -1 -5 -17 -18 -41)
1969/12/31/18:00:08.445,(-7 -56 -128 -47 0 11 9 19)
1969/12/31/18:00:08.460,(-30 111 115 53 11 -14 -8 -33)
1969/12/31/18:00:08.460,(51 -20 -45 -9 -14 -14 -24 17)
1969/12/31/18:00:08.461,(80 -26 -52 -19 -1 23 45 93)
1969/12/31/18:00:08.461,(-4 113 103 26 39 17 1 5)
1969/12/31/18:00:08.482,(-22 -128 -75 -6 6 -22 -35 -19)
1969/12/31/18:00:08.482,(-17 -15 4 -32 -57 46 46 -3)
1969/12/31/18:00:08.483,(12 34 -7 -19 -50 -72 -18 -13)
1969/12/31/18:00:08.483,(-46 -116 -53 5 18 -13 2 32)
1969/12/31/18:00:08.504,(14 48 -5 -20 -15 -24 -42 -15)
1969/12/31/18:00:08.504,(4 26 44 25 41 61 31 71)
1969/12/31/18:00:08.512,(-65 35 66 7 -22 -34 -22 -39)
1969/12/31/18:00:08.512,(15 -66 -53 -20 -16 -16 -13 3)
1969/12/31/18:00:08.519,(37 96 59 16 0 -4 23 8)
1969/12/31/18:00:08.519,(-29 -108 -80 -24 -5 -19 -17 -13)
1969/12/31/18:00:08.525,(-39 -82 -95 -40 -5 15 9 -9)
1969/12/31/18:00:08.526,(64 127 127 75 34 5 -3 14)
1969/12/31/18:00:08.542,(37 -102 -32 3 -5 -7 10 18)
1969/12/31/18:00:08.542,(9 -52 -41 -2 13 14 -3 -42)
1969/12/31/18:00:08.543,(-48 44 20 6 17 6 -7 -36)
1969/12/31/18:00:08.543,(15 -19 -32 -37 -64 -72 -31 -5)
1969/12/31/18:00:08.564,(-21 -78 -107 -43 25 70 5 -8)
1969/12/31/18:00:08.564,(54 127 127 63 29 8 17 1)
1969/12/31/18:00:08.566,(-16 -105 -58 -20 -22 -35 -22 -21)
1969/12/31/18:00:08.566,(-68 -78 -99 -27 -6 2 -14 -34)
1969/12/31/18:00:08.579,(-15 90 122 42 9 28 18 -7)
1969/12/31/18:00:08.579,(11 -59 -76 -29 -14 -32 -16 -16)
1969/12/31/18:00:08.593,(-1 5 15 13 11 -3 1 20)
1969/12/31/18:00:08.593,(16 0 -40 -24 -3 24 8 9)
1969/12/31/18:00:08.602,(-64 -33 7 8 -18 -34 -3 -25)
1969/12/31/18:00:08.602,(-55 -91 -89 -30 -4 9 -24 -58)
1969/12/31/18:00:08.603,(-3 127 90 23 -1 1 3 -3)
1969/12/31/18:00:08.603,(-43 -18 7 -3 -8 -3 -10 -28)
1969/12/31/18:00:08.624,(47 -99 -112 -28 6 3 15 52)
1969/12/31/18:00:08.624,(14 104 117 25 -12 -23 -9 0)
1969/12/31/18:00:08.626,(-50 -128 -114 -30 -22 -20 -15 -22)
1969/12/31/18:00:08.626,(-47 48 4 -7 14 -21 1 -18)
1969/12/31/18:00:08.638,(71 127 118 76 61 90 46 29)
1969/12/31/18:00:08.638,(-43 -73 -50 -29 -45 -21 -11 -25)
1969/12/31/18:00:08.647,(27 -26 19 28 30 11 5 -4)
1969/12/31/18:00:08.647,(28 56 31 7 0 25 15 12)
1969/12/31/18:00:08.662,(1 -39 -55 -41 -35 -49 -28 -13)
1969/12/31/18:00:08.662,(18 -52 -96 -28 -10 -27 -5 18)
1969/12/31/18:00:08.664,(6 99 97 56 19 32 20 -5)
1969/12/31/18:00:08.664,(37 -37 1 16 10 1 -7 9)
1969/12/31/18:00:08.684,(29 -77 -61 -18 -16 -18 -3 17)
1969/12/31/18:00:08.684,(-33 85 76 34 62 64 27 -6)
1969/12/31/18:00:08.686,(-52 -61 -70 -63 -76 -52 -55 -41)
1969/12/31/18:00:08.686,(3 -54 -15 -2 -10 -3 26 28)
1969/12/31/18:00:08.699,(14 45 27 -1 -2 -4 -2 -8)
1969/12/31/18:00:08.699,(16 -43 -23 -14 -13 -27 -4 20)
1969/12/31/18:00:08.706,(25 -45 -37 3 26 30 40 64)
1969/12/31/18:00:08.706,(42 127 112 19 6 11 -3 -6)
1969/12/31/18:00:08.722,(-45 -128 -76 -27 -27 -30 -20 -27)
1969/12/31/18:00:08.722,(-7 -68 -99 -16 9 0 -2 37)
1969/12/31/18:00:08.724,(46 127 110 19 1 39 41 15)
1969/12/31/18:00:08.724,(18 -46 10 14 14 21 3 21)
1969/12/31/18:00:08.744,(-11 -46 -50 -14 10 -21 -7 11)
1969/12/31/18:00:08.744,(72 68 40 13 -2 -1 11 28)
1969/12/31/18:00:08.746,(-11 -62 -45 -11 -26 -31 -19 4)
1969/12/31/18:00:08.746,(-74 -74 -72 -25 -11 39 12 -38)
1969/12/31/18:00:08.758,(-34 127 116 30 13 -28 -25 -21)
1969/12/31/18:00:08.758,(-9 -65 -27 -9 2 9 0 2)
1969/12/31/18:00:08.767,(-16 -65 -88 -25 3 -1 -6 -14)
1969/12/31/18:00:08.767,(36 101 102 58 27 -5 0 7)
1969/12/31/18:00:08.790,(0 -56 -47 8 -7 -1 4 -4)
1969/12/31/18:00:08.790,(-5 21 -20 -7 7 27 25 13)
1969/12/31/18:00:08.791,(-21 84 122 23 -7 -18 -27 -29)
1969/12/31/18:00:08.791,(-44 -128 -123 -46 -13 -14 -1 8)
1969/12/31/18:00:08.804,(1 111 50 -5 -14 18 -3 -22)
1969/12/31/18:00:08.804,(31 17 80 48 29 -11 3 37)
1969/12/31/18:00:08.811,(14 -69 -82 -30 8 28 -1 5)
1969/12/31/18:00:08.811,(13 49 35 15 3 -13 -7 13)
1969/12/31/18:00:08.818,(-34 -71 -40 -19 1 37 7 6)
1969/12/31/18:00:08.818,(-41 -59 -62 -30 -27 -20 -13 -33)
1969/12/31/18:00:08.827,(54 69 43 21 16 -7 2 21)
1969/12/31/18:00:08.827,(-29 -37 -32 5 25 10 -8 -38)
1969/12/31/18:00:08.842,(70 -11 -41 -11 -14 -11 22 43)
1969/12/31/18:00:08.842,(-4 127 127 18 -40 -16 -25 -49)
1969/12/31/18:00:08.843,(2 -128 -93 -26 12 16 -2 4)
1969/12/31/18:00:08.843,(-50 -77 -62 -33 -22 -19 -28 -45)
1969/12/31/18:00:08.872,(-2 65 40 12 12 12 17 13)
1969/12/31/18:00:08.872,(34 43 21 16 20 6 4 8)
1969/12/31/18:00:08.874,(-26 -31 -38 -6 -8 -13 1 -33)
1969/12/31/18:00:08.874,(-8 60 57 31 24 4 -7 18)
1969/12/31/18:00:08.878,(8 -73 -81 -18 17 27 -6 -18)
1969/12/31/18:00:08.878,(-5 -14 21 -2 -39 -37 -16 -10)
1969/12/31/18:00:08.894,(8 34 16 -2 0 3 23 26)
1969/12/31/18:00:08.895,(-35 -128 -112 -35 -2 -7 -13 -16)
1969/12/31/18:00:08.902,(-3 57 22 12 -15 -24 -23 -45)
1969/12/31/18:00:08.902,(6 12 -12 7 29 41 17 -6)
1969/12/31/18:00:08.903,(32 -61 -26 9 1 -23 -18 0)
1969/12/31/18:00:08.903,(31 24 27 14 3 13 30 36)
1969/12/31/18:00:08.924,(-6 -82 -51 -30 -9 -1 6 43)
1969/12/31/18:00:08.924,(50 66 44 5 1 -4 13 18)
1969/12/31/18:00:08.926,(21 29 15 10 15 3 -2 14)
1969/12/31/18:00:08.926,(27 -40 -82 -43 -21 9 13 59)
1969/12/31/18:00:08.939,(14 84 105 63 17 -3 12 13)
1969/12/31/18:00:08.939,(-27 -110 -79 -14 -1 1 -14 -22)
1969/12/31/18:00:08.946,(27 87 16 -9 -32 -8 1 0)
1969/12/31/18:00:08.946,(11 -11 30 3 -7 0 0 -3)
1969/12/31/18:00:08.962,(-29 -112 -73 -39 -23 -36 -8 -18)
1969/12/31/18:00:08.962,(5 27 12 9 4 5 -2 6)
1969/12/31/18:00:08.963,(-16 -34 -20 6 30 31 19 13)
1969/12/31/18:00:08.963,(-32 58 61 15 14 18 -10 -37)
1969/12/31/18:00:08.992,(-19 89 67 6 -32 -13 -7 -37)
1969/12/31/18:00:08.992,(-30 -108 -96 -26 14 -11 -13 -21)
1969/12/31/18:00:08.993,(0 -8 -6 0 1 -3 4 5)
1969/12/31/18:00:08.994,(24 33 1 5 -10 -3 3 23)
1969/12/31/18:00:08.999,(-20 -70 -48 -22 -4 4 -19 -47)
1969/12/31/18:00:08.999,(-4 51 63 31 12 -40 -19 -7)
1969/12/31/18:00:09.006,(-44 -53 -25 -17 -20 19 -13 -29)
1969/12/31/18:00:09.006,(-16 -16 -33 5 9 5 19 -2)
1969/12/31/18:00:09.022,(32 100 55 2 0 -4 5 18)
1969/12/31/18:00:09.022,(22 27 25 11 8 13 8 22)
1969/12/31/18:00:09.023,(-8 -65 -65 -24 -14 -12 16 50)
1969/12/31/18:00:09.023,(23 76 79 47 12 4 -12 -21)
1969/12/31/18:00:09.045,(2 -90 -67 -3 -2 -32 -3 12)
1969/12/31/18:00:09.045,(-26 -101 -99 -39 -21 22 -7 -21)
1969/12/31/18:00:09.046,(-11 60 47 20 4 21 28 1)
1969/12/31/18:00:09.046,(13 -11 -31 -11 -1 7 -4 -12)
1969/12/31/18:00:09.058,(-11 -63 -36 -10 -1 1 4 1)
1969/12/31/18:00:09.058,(-6 80 90 22 2 -32 -7 -1)
1969/12/31/18:00:09.067,(9 10 5 12 10 -5 2 10)
1969/12/31/18:00:09.067,(-10 -84 -73 -35 -19 16 -3 2)
1969/12/31/18:00:09.082,(15 107 36 14 -9 -7 -2 13)
1969/12/31/18:00:09.082,(1 -68 -74 -21 -19 -26 2 -10)
1969/12/31/18:00:09.083,(-34 -61 -70 -22 12 36 -10 -20)
1969/12/31/18:00:09.083,(48 127 127 70 22 -2 3 15)
1969/12/31/18:00:09.104,(54 -38 -31 -9 7 4 13 48)
1969/12/31/18:00:09.104,(-34 -86 -82 -34 -17 10 -5 -19)
1969/12/31/18:00:09.106,(50 110 48 11 -10 -30 -3 40)
1969/12/31/18:00:09.106,(13 -7 12 16 6 -26 -7 -11)
1969/12/31/18:00:09.118,(-31 -6 10 1 11 34 -9 -18)
1969/12/31/18:00:09.118,(16 -24 -11 -8 -15 13 -6 -1)
1969/12/31/18:00:09.127,(-14 3 34 13 -17 -18 2 -12)
1969/12/31/18:00:09.127,(-18 -109 -108 -40 3 6 9 -1)
1969/12/31/18:00:09.142,(31 82 72 9 -4 16 -3 -13)
1969/12/31/18:00:09.142,(6 107 84 28 20 14 4 -10)
1969/12/31/18:00:09.143,(-27 -109 -56 -9 3 -18 -23 -30)
1969/12/31/18:00:09.143,(5 15 -21 -21 -13 -16 -22 3)
1969/12/31/18:00:09.164,(-25 -55 -15 10 -3 -19 -2 -13)
1969/12/31/18:00:09.164,(8 22 18 -2 1 2 14 18)
1969/12/31/18:00:09.166,(-11 -15 -17 -16 -13 1 -14 -28)
1969/12/31/18:00:09.166,(15 67 34 9 -6 -29 6 18)
1969/12/31/18:00:09.178,(5 -67 -47 3 32 36 -22 -10)
1969/12/31/18:00:09.178,(-21 -38 -52 -29 -11 -5 -9 -18)
1969/12/31/18:00:09.187,(-15 90 93 42 18 4 3 -25)
1969/12/31/18:00:09.187,(-25 -47 -44 -17 10 20 0 -28)
1969/12/31/18:00:09.202,(-29 -38 -15 -23 -53 -38 -12 -24)
1969/12/31/18:00:09.202,(20 66 57 28 21 0 12 18)
1969/12/31/18:00:09.203,(45 106 60 9 -7 17 -8 2)
1969/12/31/18:00:09.203,(-24 -72 -49 -5 2 10 22 6)
1969/12/31/18:00:09.224,(-36 -76 -65 -16 12 -2 -18 -30)
1969/12/31/18:00:09.224,(-6 49 12 3 0 -7 -3 -7)
1969/12/31/18:00:09.226,(-11 -33 -10 3 8 -18 -17 -6)
1969/12/31/18:00:09.226,(13 -19 12 0 12 21 11 19)
1969/12/31/18:00:09.238,(19 67 15 16 8 16 49 77)
1969/12/31/18:00:09.238,(11 2 27 19 9 -6 -14 -8)
1969/12/31/18:00:09.247,(-12 -63 -76 -36 -8 -2 0 11)
1969/12/31/18:00:09.247,(10 54 49 2 -12 -17 -24 -18)
1969/12/31/18:00:09.262,(1 -6 -25 -8 5 13 17 7)
1969/12/31/18:00:09.262,(6 -65 -43 -10 -8 -7 7 1)
1969/12/31/18:00:09.264,(0 37 47 23 24 8 2 2)
1969/12/31/18:00:09.264,(-6 -82 -64 -39 -53 -43 -22 5)
1969/12/31/18:00:09.284,(-16 92 80 38 67 47 5 -13)
1969/12/31/18:00:09.284,(-7 -13 -7 -25 -50 -26 7 4)
1969/12/31/18:00:09.286,(-18 -86 -87 -50 -27 -10 -13 -21)
1969/12/31/18:00:09.286,(-7 38 17 21 8 -9 6 5)
1969/12/31/18:00:09.298,(-26 -67 -67 -17 -5 -2 -10 -30)
1969/12/31/18:00:09.298,(-17 31 -3 4 1 2 -22 -21)
1969/12/31/18:00:09.307,(11 21 34 18 19 14 13 16)
1969/12/31/18:00:09.307,(-11 -94 -83 -31 -5 -24 -19 -25)
1969/12/31/18:00:09.322,(-6 41 18 0 -24 -7 9 2)
1969/12/31/18:00:09.322,(-23 -15 27 7 13 12 -14 -20)
1969/12/31/18:00:09.323,(16 -2 -31 -10 -15 -31 -3 11)
1969/12/31/18:00:09.323,(-12 -3 19 8 1 5 8 0)
1969/12/31/18:00:09.345,(18 50 26 9 -12 0 -7 1)
1969/12/31/18:00:09.345,(15 -54 -49 -24 -15 6 8 14)
1969/12/31/18:00:09.351,(18 -8 8 14 20 6 9 14)
1969/12/31/18:00:09.351,(9 9 -25 -9 -2 16 5 0)
1969/12/31/18:00:09.358,(11 2 28 19 2 -29 -21 7)
1969/12/31/18:00:09.358,(51 -26 -31 2 23 14 14 34)
1969/12/31/18:00:09.367,(26 17 41 15 -8 -12 -6 0)
1969/12/31/18:00:09.367,(-34 -109 -92 -32 -13 -5 -7 -12)
1969/12/31/18:00:09.382,(14 38 51 -2 1 34 30 22)
1969/12/31/18:00:09.382,(10 -17 -36 -3 5 -15 -2 18)
1969/12/31/18:00:09.383,(4 82 88 59 52 62 22 10)
1969/12/31/18:00:09.383,(12 -23 -8 1 -10 -14 -3 5)
1969/12/31/18:00:09.405,(10 -24 -22 -5 -2 -10 5 11)
1969/12/31/18:00:09.405,(-20 -92 -49 -2 27 -3 -7 -4)
1969/12/31/18:00:09.407,(-39 -128 -121 -60 -34 -30 -34 -34)
1969/12/31/18:00:09.407,(2 76 37 18 -2 18 20 14)
1969/12/31/18:00:09.427,(4 59 70 39 26 15 -3 -21)
1969/12/31/18:00:09.427,(13 -23 -45 -18 -32 -14 7 28)
1969/12/31/18:00:09.428,(-13 -53 -31 -7 -9 -25 -13 -3)
1969/12/31/18:00:09.428,(-3 26 22 2 8 -14 -8 -12)
1969/12/31/18:00:09.441,(-24 -128 -94 -37 -12 -5 1 -6)
1969/12/31/18:00:09.441,(-7 -56 -49 -31 -17 9 12 6)
1969/12/31/18:00:09.448,(-2 113 67 39 16 1 8 -8)
1969/12/31/18:00:09.448,(24 -23 26 30 20 0 -8 4)
1969/12/31/18:00:09.464,(6 -61 -62 -7 -9 -19 -7 -1)
1969/12/31/18:00:09.465,(-47 -49 -16 15 -10 -15 7 -23)
1969/12/31/18:00:09.466,(-30 -18 -16 -36 -10 39 -13 -43)
1969/12/31/18:00:09.466,(-29 -37 -55 -31 -11 0 -7 -20)
1969/12/31/18:00:09.478,(5 76 68 23 19 -6 -10 -8)
1969/12/31/18:00:09.478,(19 127 80 26 17 19 -22 -4)
1969/12/31/18:00:09.487,(-2 -73 -71 -24 -2 -12 11 15)
1969/12/31/18:00:09.487,(33 88 77 14 -13 6 -2 15)
1969/12/31/18:00:09.501,(-7 -26 15 1 7 5 6 -2)
1969/12/31/18:00:09.501,(6 73 42 22 25 -7 -18 -22)
1969/12/31/18:00:09.516,(4 -62 1 13 3 -3 2 -8)
1969/12/31/18:00:09.516,(20 30 -31 -21 -28 29 16 10)
1969/12/31/18:00:09.524,(-8 -49 -31 -26 -23 -27 -21 -7)
1969/12/31/18:00:09.524,(-2 26 29 4 7 11 -3 1)
1969/12/31/18:00:09.526,(4 -34 -37 1 13 -5 4 -4)
1969/12/31/18:00:09.526,(-23 -33 -12 -12 -16 -6 9 15)
1969/12/31/18:00:09.547,(25 49 30 11 -6 -8 -3 9)
1969/12/31/18:00:09.547,(23 74 40 22 13 15 20 20)
1969/12/31/18:00:09.549,(-15 4 -4 -2 10 -9 -7 17)
1969/12/31/18:00:09.549,(-27 -84 -27 -5 -1 -32 -19 -18)
1969/12/31/18:00:09.562,(-23 -39 -82 -29 -20 -2 -12 -10)
1969/12/31/18:00:09.562,(48 72 91 20 -7 51 58 43)
1969/12/31/18:00:09.563,(-2 -65 -49 -17 -18 -19 -4 9)
1969/12/31/18:00:09.563,(12 -22 -16 5 18 11 5 10)
1969/12/31/18:00:09.585,(30 56 53 29 27 -14 -26 -11)
1969/12/31/18:00:09.585,(-5 -18 -10 -5 6 3 2 1)
1969/12/31/18:00:09.586,(-4 72 58 7 -11 4 -11 -20)
1969/12/31/18:00:09.586,(-15 -45 -17 6 18 12 -13 -21)
1969/12/31/18:00:09.607,(-17 -82 -58 -26 -18 -2 22 15)
1969/12/31/18:00:09.607,(-15 -60 -42 -18 -6 -16 -6 -5)
1969/12/31/18:00:09.613,(32 116 88 37 5 13 17 20)
1969/12/31/18:00:09.613,(17 38 45 25 7 -6 -3 13)
1969/12/31/18:00:09.622,(13 56 7 -3 -9 0 -1 -2)
1969/12/31/18:00:09.622,(-18 -59 -33 -20 -6 -2 -19 -27)
1969/12/31/18:00:09.624,(-29 -101 -74 -25 -9 4 4 -6)
1969/12/31/18:00:09.624,(-5 -67 -53 -13 -3 -13 1 3)
1969/12/31/18:00:09.644,(39 76 12 8 9 24 -4 -7)
1969/12/31/18:00:09.644,(-19 -13 7 12 15 -18 -12 -9)
1969/12/31/18:00:09.646,(36 110 77 13 -20 -24 -21 1)
1969/12/31/18:00:09.646,(-17 -41 -18 17 21 31 31 21)
1969/12/31/18:00:09.675,(-71 -128 -102 -66 -44 -23 -9 -15)
1969/12/31/18:00:09.675,(-29 -109 -62 -19 -11 -6 1 -13)
1969/12/31/18:00:09.677,(23 90 68 20 12 -2 -4 4)
1969/12/31/18:00:09.677,(36 127 95 30 18 -9 -24 -42)
1969/12/31/18:00:09.681,(-35 -101 -39 7 0 7 9 -5)
1969/12/31/18:00:09.681,(-20 5 -31 -13 -21 -9 4 -5)
1969/12/31/18:00:09.688,(-8 -38 -20 5 17 -15 2 2)
1969/12/31/18:00:09.688,(-6 -50 -43 -39 -34 26 -13 -14)
1969/12/31/18:00:09.705,(14 68 62 26 6 -8 17 12)
1969/12/31/18:00:09.705,(11 -47 -35 -1 9 5 -8 1)
1969/12/31/18:00:09.706,(9 -27 -29 -8 8 19 17 -2)
1969/12/31/18:00:09.706,(-17 -6 -17 -12 -13 -27 -17 -14)
1969/12/31/18:00:09.727,(19 48 66 22 0 -4 6 16)
1969/12/31/18:00:09.727,(-14 -56 -36 -15 -18 -12 -10 -7)
1969/12/31/18:00:09.728,(-5 10 26 25 27 -13 8 5)
1969/12/31/18:00:09.728,(11 53 33 -7 -4 31 6 -2)
1969/12/31/18:00:09.741,(-22 -82 -86 -36 -12 -7 -9 -12)
1969/12/31/18:00:09.741,(40 77 73 31 0 -7 14 31)
1969/12/31/18:00:09.748,(-41 -77 -59 -14 3 -3 -25 -29)
1969/12/31/18:00:09.748,(-3 0 17 -3 -11 -15 6 16)
1969/12/31/18:00:09.764,(-2 -29 -48 -16 -8 -4 -12 22)
1969/12/31/18:00:09.764,(38 32 31 2 15 0 -11 -10)
1969/12/31/18:00:09.766,(25 -37 -24 -1 -3 -21 3 21)
1969/12/31/18:00:09.766,(-4 23 24 21 22 31 16 4)
1969/12/31/18:00:09.787,(-33 -78 -27 -19 -16 -20 -8 -13)
1969/12/31/18:00:09.787,(-29 -14 -51 -28 -11 5 -8 -12)
1969/12/31/18:00:09.788,(19 45 30 5 -5 5 13 16)
1969/12/31/18:00:09.789,(-21 -47 -65 -11 0 -29 -6 2)
1969/12/31/18:00:09.801,(23 67 114 54 40 25 -3 0)
1969/12/31/18:00:09.801,(-13 -9 -54 -12 -7 -1 14 -6)
1969/12/31/18:00:09.816,(-10 -27 -2 -13 -12 22 7 1)
1969/12/31/18:00:09.816,(-10 -22 -7 -6 -6 -16 -18 -18)
1969/12/31/18:00:09.824,(22 -35 -33 -10 -5 -4 4 3)
1969/12/31/18:00:09.824,(-42 -46 -14 -8 -6 -17 -9 -10)
1969/12/31/18:00:09.826,(-7 18 -7 -5 -2 22 3 -2)
1969/12/31/18:00:09.826,(7 18 22 5 2 -4 -1 2)
1969/12/31/18:00:09.847,(33 68 27 10 13 11 16 12)
1969/12/31/18:00:09.847,(-28 -46 8 3 -2 0 -10 -9)
1969/12/31/18:00:09.848,(22 14 0 0 -11 -13 -12 0)
1969/12/31/18:00:09.848,(30 43 33 12 -4 -16 -9 -4)
1969/12/31/18:00:09.861,(-10 0 -8 -1 8 28 26 8)
1969/12/31/18:00:09.861,(-12 -11 14 3 5 24 16 14)
1969/12/31/18:00:09.868,(-3 -46 -27 -13 -17 -9 -6 -6)
1969/12/31/18:00:09.868,(20 6 -19 -12 0 2 8 23)
1969/12/31/18:00:09.884,(11 54 43 14 -1 -10 -3 -1)
1969/12/31/18:00:09.884,(-2 -4 0 1 -4 -7 -10 -2)
1969/12/31/18:00:09.886,(-8 12 11 2 12 20 14 10)
1969/12/31/18:00:09.886,(-24 -9 0 10 5 -2 3 -11)
1969/12/31/18:00:09.907,(-35 -53 -24 -19 -19 -18 -19 -7)
1969/12/31/18:00:09.907,(20 23 8 2 10 23 19 5)
1969/12/31/18:00:09.908,(-18 -26 -5 -4 -15 -19 -14 -10)
1969/12/31/18:00:09.908,(36 24 7 3 2 0 5 17)
1969/12/31/18:00:09.920,(12 21 5 7 5 -5 3 -7)
1969/12/31/18:00:09.920,(11 -8 -4 -2 -2 4 -28 0)
1969/12/31/18:00:09.929,(-36 -29 -16 -13 -15 -9 24 -2)
1969/12/31/18:00:09.929,(-19 0 3 -2 0 -8 -5 -2)
1969/12/31/18:00:09.944,(-3 -13 -10 -6 0 18 -37 -18)
1969/12/31/18:00:09.944,(4 4 5 -2 -12 -37 43 18)
1969/12/31/18:00:09.946,(-11 11 -4 -2 4 22 -11 -13)
1969/12/31/18:00:09.946,(25 9 7 0 -2 -3 14 8)
1969/12/31/18:00:09.967,(-15 -13 -3 -5 0 9 -19 -6)
1969/12/31/18:00:09.967,(39 20 0 0 -11 -34 -12 13)
1969/12/31/18:00:09.968,(-18 6 -1 1 5 20 0 -23)
1969/12/31/18:00:09.968,(-26 -28 -3 -4 -4 -10 15 -3)
1969/12/31/18:00:09.981,(9 -4 -2 2 4 8 -25 -3)
1969/12/31/18:00:09.981,(36 35 12 7 13 12 30 11)
1969/12/31/18:00:09.989,(20 -3 1 4 -16 -40 -28 9)
1969/12/31/18:00:09.989,(-25 -9 -4 -6 2 13 -39 -20)
1969/12/31/18:00:10.005,(-11 -4 0 1 0 -8 23 -1)
1969/12/31/18:00:10.005,(-13 13 11 12 6 -1 -36 -28)
1969/12/31/18:00:10.006,(6 7 0 0 4 14 1 -14)
1969/12/31/18:00:10.006,(11 1 -2 -3 -7 -14 13 1)
1969/12/31/18:00:10.027,(-9 -10 -11 -8 -15 -30 -45 -20)
1969/12/31/18:00:10.027,(-17 -7 1 3 13 67 43 24)
1969/12/31/18:00:10.028,(60 37 12 3 -3 -15 31 34)
1969/12/31/18:00:10.028,(-22 -14 -10 -7 -12 -13 -24 -29)
1969/12/31/18:00:10.041,(28 2 1 2 5 11 24 18)
1969/12/31/18:00:10.041,(9 -6 -9 -9 -5 8 -29 -4)
1969/12/31/18:00:10.049,(-24 -11 -1 -3 -5 -18 16 7)
1969/12/31/18:00:10.050,(-16 1 10 5 11 21 -22 6)
1969/12/31/18:00:10.064,(-25 -15 -7 -3 -6 -11 20 -12)
1969/12/31/18:00:10.065,(-26 10 1 -5 -4 0 8 -26)
1969/12/31/18:00:10.066,(-16 -22 -10 -2 0 -13 -58 -35)
1969/12/31/18:00:10.066,(-27 -14 -10 -6 -8 -5 24 20)
1969/12/31/18:00:10.087,(-26 -9 -6 -4 2 17 0 -26)
1969/12/31/18:00:10.087,(-41 -52 -3 5 3 0 -8 4)
1969/12/31/18:00:10.088,(96 79 20 7 6 11 15 33)
1969/12/31/18:00:10.088,(-19 24 -1 -4 -4 -7 -1 14)
1969/12/31/18:00:10.101,(1 -13 -8 -5 -1 -2 3 -17)
1969/12/31/18:00:10.101,(-6 -4 3 2 -2 -14 -3 35)
1969/12/31/18:00:10.109,(19 -14 -5 0 2 3 -7 -25)
1969/12/31/18:00:10.109,(18 0 7 6 9 10 5 -4)
1969/12/31/18:00:10.124,(24 11 5 7 4 0 23 27)
1969/12/31/18:00:10.124,(17 27 -1 -8 -11 -19 -27 -16)
1969/12/31/18:00:10.126,(-22 -14 -2 0 -1 3 3 0)
1969/12/31/18:00:10.126,(7 14 15 12 8 9 9 10)
1969/12/31/18:00:10.147,(55 15 -2 -3 -4 -4 7 23)
1969/12/31/18:00:10.147,(11 -6 1 1 -1 -1 -2 8)
1969/12/31/18:00:10.148,(-15 -11 -8 -3 -1 -3 -22 -20)
1969/12/31/18:00:10.148,(-75 -17 -6 -7 -6 -5 -4 -72)
1969/12/31/18:00:10.161,(-17 -44 -8 2 1 -4 2 28)
1969/12/31/18:00:10.161,(-35 -26 1 4 6 2 -8 -66)
1969/12/31/18:00:10.176,(17 54 -10 -18 -17 -9 -4 -7)
1969/12/31/18:00:10.176,(-62 -27 5 6 5 -2 -10 -14)
1969/12/31/18:00:10.184,(-5 23 3 -2 -3 -5 -3 -7)
1969/12/31/18:00:10.184,(43 -2 -7 -5 -7 -4 10 76)
1969/12/31/18:00:10.190,(-35 -35 -2 6 8 10 5 -17)
1969/12/31/18:00:10.190,(73 16 -4 -2 -1 2 9 38)
1969/12/31/18:00:10.207,(-11 4 -10 -20 -12 -7 -1 -6)
1969/12/31/18:00:10.207,(11 6 11 23 11 1 0 4)
1969/12/31/18:00:10.209,(-18 -11 4 2 4 3 6 11)
1969/12/31/18:00:10.209,(27 13 7 13 2 0 1 19)
1969/12/31/18:00:10.221,(-12 -12 -10 -4 0 0 4 3)
1969/12/31/18:00:10.221,(-21 -2 -17 -22 -10 -9 -12 -21)
1969/12/31/18:00:10.230,(2 9 25 17 6 3 4 5)
1969/12/31/18:00:10.230,(5 -4 -3 -3 -3 -1 -5 -20)
1969/12/31/18:00:10.245,(-4 -9 2 3 1 -1 1 7)
1969/12/31/18:00:10.245,(-9 -3 -31 -25 -14 -11 -12 -39)
1969/12/31/18:00:10.246,(26 4 0 -6 -3 2 5 13)
1969/12/31/18:00:10.246,(-15 -18 -26 -8 -3 -3 0 2)
1969/12/31/18:00:10.267,(-13 67 92 31 11 1 -2 -10)
1969/12/31/18:00:10.267,(-8 13 2 8 0 1 1 2)
1969/12/31/18:00:10.268,(-31 -70 -61 -25 -9 -5 -3 -4)
1969/12/31/18:00:10.268,(39 79 91 43 14 8 7 14)
1969/12/31/18:00:10.281,(-14 -5 -13 -1 2 6 1 -22)
1969/12/31/18:00:10.281,(-14 -14 -14 -10 -8 -9 -8 -7)
1969/12/31/18:00:10.289,(-5 -32 -24 -9 -3 -2 4 10)
1969/12/31/18:00:10.289,(10 -5 -8 -8 1 2 2 5)
1969/12/31/18:00:10.304,(-9 -13 -28 -12 -8 -5 -4 -8)
1969/12/31/18:00:10.304,(13 24 48 13 2 1 2 4)
1969/12/31/18:00:10.311,(-21 -35 -29 -12 -6 -4 -3 -3)
1969/12/31/18:00:10.311,(7 -18 -34 -6 5 11 19 18)
1969/12/31/18:00:10.327,(0 20 8 3 -3 -7 -15 -8)
1969/12/31/18:00:10.327,(9 36 28 6 2 2 -4 -7)
1969/12/31/18:00:10.328,(-14 -4 18 11 -2 -2 0 1)
1969/12/31/18:00:10.328,(-1 -13 -26 -7 -2 -4 -8 -6)
1969/12/31/18:00:10.341,(5 -60 -25 2 5 10 27 24)
1969/12/31/18:00:10.341,(-5 29 1 -5 -4 -10 -21 -19)
1969/12/31/18:00:10.350,(-8 15 9 6 4 3 1 -3)
1969/12/31/18:00:10.350,(-2 -83 -70 -31 -14 -6 -2 3)
1969/12/31/18:00:10.364,(16 93 79 35 6 -3 -1 1)
1969/12/31/18:00:10.364,(-8 -20 -13 -5 1 2 -1 1)
1969/12/31/18:00:10.371,(-4 -14 1 4 3 2 6 11)
1969/12/31/18:00:10.371,(7 35 21 0 3 7 9 6)
1969/12/31/18:00:10.387,(-8 -31 -40 -19 -7 -6 -1 2)
1969/12/31/18:00:10.387,(-8 2 12 10 2 -4 -11 -21)
1969/12/31/18:00:10.388,(-5 -11 3 -2 0 3 8 3)
1969/12/31/18:00:10.388,(0 1 -20 -8 -3 -4 -3 1)
1969/12/31/18:00:10.401,(4 21 29 3 -1 -3 -2 1)
1969/12/31/18:00:10.401,(-1 -10 -10 -6 -3 -1 2 4)
1969/12/31/18:00:10.410,(-10 -13 -14 1 0 0 -8 -11)
1969/12/31/18:00:10.410,(3 -6 10 -7 -7 -5 -4 -6)
1969/12/31/18:00:10.424,(-7 6 -6 5 4 0 1 -2)
1969/12/31/18:00:10.424,(2 -13 -22 -1 -2 0 3 6)
1969/12/31/18:00:10.431,(-11 -3 23 6 -1 -4 -2 -2)
1969/12/31/18:00:10.431,(11 46 6 3 1 -3 -15 -9)
1969/12/31/18:00:10.446,(-19 -61 -57 -25 -12 -7 -8 -11)
1969/12/31/18:00:10.446,(8 46 32 10 5 3 2 4)
1969/12/31/18:00:10.455,(-19 -47 -30 -7 -3 1 3 2)
1969/12/31/18:00:10.455,(10 44 62 16 3 -4 -3 -5)
1969/12/31/18:00:10.469,(3 -25 -22 -10 2 5 2 3)
1969/12/31/18:00:10.469,(-5 -1 -13 -6 -3 -1 3 -1)
1969/12/31/18:00:10.471,(17 26 -7 1 10 8 7 7)
1969/12/31/18:00:10.471,(-4 -1 24 6 -10 -6 -3 2)
1969/12/31/18:00:10.484,(0 0 -9 -2 6 0 -8 -3)
1969/12/31/18:00:10.484,(-7 -29 -9 -7 2 1 5 0)
1969/12/31/18:00:10.491,(1 13 7 -3 -3 -2 -4 -2)
1969/12/31/18:00:10.491,(-11 -36 -5 -8 -3 -3 -1 -4)
1969/12/31/18:00:10.508,(16 33 -5 9 4 1 3 5)
1969/12/31/18:00:10.508,(-3 -3 -8 2 -2 -3 -3 -6)
1969/12/31/18:00:10.509,(5 28 27 7 4 2 0 1)
1969/12/31/18:00:10.509,(-25 -87 -65 -34 -11 -2 3 4)
1969/12/31/18:00:10.537,(23 66 72 29 5 -1 -6 -5)
1969/12/31/18:00:10.537,(2 -17 -12 3 4 2 2 4)
1969/12/31/18:00:10.539,(9 16 -14 -7 -5 -3 0 3)
1969/12/31/18:00:10.539,(-1 3 6 7 2 3 4 4)
1969/12/31/18:00:10.544,(-31 -86 -53 -31 -15 -8 -8 -11)
1969/12/31/18:00:10.544,(5 21 36 17 6 2 3 0)
1969/12/31/18:00:10.567,(18 45 35 10 1 1 1 6)
1969/12/31/18:00:10.567,(8 26 4 3 1 0 -1 -1)
1969/12/31/18:00:10.568,(-11 -18 -1 -4 -5 -4 -2 0)
1969/12/31/18:00:10.568,(4 12 -2 -1 -3 -1 -3 -3)
1969/12/31/18:00:10.570,(-6 -9 -23 -16 -8 -4 -3 -6)
1969/12/31/18:00:10.570,(-7 -14 -1 2 0 0 -7 -7)
1969/12/31/18:00:10.590,(11 38 58 20 7 4 4 7)
1969/12/31/18:00:10.590,(-15 -46 -37 -14 -4 -3 -1 1)
1969/12/31/18:00:10.591,(-3 -16 -7 -4 -1 -1 -3 -1)
1969/12/31/18:00:10.591,(5 11 -2 7 3 -2 -2 -1)
1969/12/31/18:00:10.604,(7 0 -19 -10 -7 -4 -1 3)
1969/12/31/18:00:10.604,(-12 -26 -8 -10 -6 -3 -4 -6)
1969/12/31/18:00:10.611,(-4 -5 -3 -3 0 -1 -1 -2)
1969/12/31/18:00:10.611,(-4 5 -1 2 1 -1 -5 -6)
1969/12/31/18:00:10.627,(-4 -28 -28 -14 -3 -2 -2 2)
1969/12/31/18:00:10.627,(4 17 4 -4 -1 -1 1 3)
1969/12/31/18:00:10.628,(-10 -41 -11 -6 -5 -3 -2 -4)
1969/12/31/18:00:10.628,(7 25 8 5 6 2 1 -2)
1969/12/31/18:00:10.649,(-3 -2 9 6 0 1 1 0)
1969/12/31/18:00:10.649,(4 -9 -36 -12 -5 -1 1 2)
1969/12/31/18:00:10.651,(-5 -9 4 3 2 2 -1 -4)
1969/12/31/18:00:10.651,(-7 -10 -7 -6 -4 -2 -3 -4)
1969/12/31/18:00:10.664,(1 2 -22 -11 -3 -1 1 1)
1969/12/31/18:00:10.664,(-5 5 39 11 1 1 1 -1)
1969/12/31/18:00:10.670,(2 17 5 5 -1 0 1 0)
1969/12/31/18:00:10.671,(9 15 11 4 0 2 1 2)
1969/12/31/18:00:10.687,(-6 1 0 0 -3 -1 -3 -6)
1969/12/31/18:00:10.687,(-2 -9 -12 -6 0 -3 1 1)
1969/12/31/18:00:10.689,(7 30 13 4 3 1 3 2)
1969/12/31/18:00:10.689,(-2 -18 -4 2 0 -1 0 -2)
1969/12/31/18:00:10.710,(-3 -12 -4 -5 -3 -1 -1 0)
1969/12/31/18:00:10.710,(2 11 6 4 2 2 2 2)
1969/12/31/18:00:10.711,(8 36 11 2 1 1 0 0)
1969/12/31/18:00:10.711,(-4 -11 7 3 2 0 1 1)
1969/12/31/18:00:10.733,(-7 -21 -5 -1 -2 -2 -4 -4)
1969/12/31/18:00:10.733,(11 37 24 14 5 2 0 0)
1969/12/31/18:00:10.734,(-5 -8 -4 -5 -3 -4 -5 -5)
1969/12/31/18:00:10.734,(-3 -10 -9 -7 -3 -1 0 0)
1969/12/31/18:00:10.747,(0 2 0 1 1 1 0 -2)
1969/12/31/18:00:10.747,(-9 -15 -14 -12 -5 -2 -2 -4)
1969/12/31/18:00:10.749,(5 7 6 4 1 -1 -2 -1)
1969/12/31/18:00:10.749,(-2 0 -5 -5 -3 -1 -1 -1)
1969/12/31/18:00:10.770,(3 2 -7 -2 -1 3 3 5)
1969/12/31/18:00:10.770,(-5 -11 -6 -6 -2 -3 -4 -4)
1969/12/31/18:00:10.771,(-3 1 0 2 -1 -2 -1 -4)
1969/12/31/18:00:10.771,(3 3 0 -5 -5 0 2 4)
1969/12/31/18:00:10.783,(2 6 -3 1 2 2 -1 -1)
1969/12/31/18:00:10.783,(-3 -12 -6 -4 -5 -1 0 2)
1969/12/31/18:00:10.798,(-3 -4 6 -1 0 1 1 3)
1969/12/31/18:00:10.798,(0 7 1 -1 1 -3 -11 -11)
1969/12/31/18:00:10.814,(3 3 -2 -2 -5 -6 -4 -2)
1969/12/31/18:00:10.815,(-2 -5 5 8 5 7 4 0)
1969/12/31/18:00:10.816,(1 7 2 1 2 0 -3 -1)
1969/12/31/18:00:10.816,(-2 -3 -3 2 1 0 -3 -5)
1969/12/31/18:00:10.837,(1 2 -8 -4 2 3 9 8)
1969/12/31/18:00:10.837,(-3 0 -1 1 -1 -4 -7 -9)
1969/12/31/18:00:10.838,(-4 -7 -11 -6 -2 -4 -1 -1)
1969/12/31/18:00:10.838,(-2 -10 -6 -4 -3 -2 -2 0)
1969/12/31/18:00:10.843,(-3 4 -1 -1 -3 -4 -6 -3)
1969/12/31/18:00:10.843,(-1 -9 -4 -2 -2 1 0 2)
1969/12/31/18:00:10.852,(1 -5 -6 -3 1 2 1 1)
1969/12/31/18:00:10.852,(-1 7 4 1 0 0 0 0)
1969/12/31/18:00:10.868,(1 1 2 0 2 -2 -2 -2)
1969/12/31/18:00:10.868,(-2 -10 -13 -8 -6 -3 -1 -1)
1969/12/31/18:00:10.870,(-3 -5 -1 -1 -2 -3 -6 -3)
1969/12/31/18:00:10.870,(-3 -1 -2 1 0 -2 1 -1)
1969/12/31/18:00:10.890,(-2 -1 0 1 0 -1 -1 -2)
1969/12/31/18:00:10.890,(-1 -2 -2 -2 1 0 -1 0)
1969/12/31/18:00:10.891,(0 0 2 1 -2 0 -1 -1)
1969/12/31/18:00:10.891,(-1 1 1 -1 -2 -3 -1 0)
1969/12/31/18:00:10.903,(0 1 0 2 -1 1 2 0)
1969/12/31/18:00:10.903,(1 0 -3 -1 -2 0 -2 1)
1969/12/31/18:00:10.912,(-1 -1 1 -1 -1 -2 0 -1)
1969/12/31/18:00:10.912,(-1 4 7 6 6 3 -4 -6)
1969/12/31/18:00:10.927,(-3 -4 -10 -6 -6 -4 -4 -3)
1969/12/31/18:00:10.928,(2 0 -2 -7 -5 -4 1 3)
1969/12/31/18:00:10.929,(-3 -6 -5 -2 -4 -1 -1 -3)
1969/12/31/18:00:10.929,(0 3 2 2 2 -1 0 0)
1969/12/31/18:00:10.950,(1 1 2 4 3 4 1 -1)
1969/12/31/18:00:10.950,(-2 -1 -2 2 3 -1 -1 -1)
1969/12/31/18:00:10.951,(-2 -3 -7 -4 -5 -2 -2 -3)
1969/12/31/18:00:10.951,(-2 -3 -1 -2 0 -1 0 1)
1969/12/31/18:00:10.972,(-1 -2 -1 -4 -3 -2 0 -2)
1969/12/31/18:00:10.972,(-3 -5 -3 -3 -2 -5 -3 -1)
1969/12/31/18:00:10.973,(0 2 9 6 4 1 1 0)
1969/12/31/18:00:10.974,(-2 -3 -4 -4 -3 -1 -1 -1)
1969/12/31/18:00:10.987,(1 2 3 4 5 2 1 0)
1969/12/31/18:00:10.987,(-1 -1 1 1 0 0 0 0)
1969/12/31/18:00:10.988,(-2 -1 0 -1 -2 -1 -1 -1)
1969/12/31/18:00:10.988,(-1 -5 -8 -5 -6 -1 -1 1)
