time,.data
1969/12/31/18:00:05.820,(0 1 -1 -3 -2 0 0 2)
1969/12/31/18:00:05.820,(-2 -5 -5 -2 -1 -1 -1 -2)
1969/12/31/18:00:05.822,(1 1 0 0 1 1 1 2)
1969/12/31/18:00:05.822,(3 5 6 1 -1 -1 1 0)
1969/12/31/18:00:05.834,(-9 -12 -9 -4 -2 -3 -4 -7)
1969/12/31/18:00:05.834,(2 1 1 -5 -2 -1 1 0)
1969/12/31/18:00:05.850,(-3 -5 -4 -1 -2 -2 -2 -3)
1969/12/31/18:00:05.850,(0 0 1 0 2 0 0 1)
1969/12/31/18:00:05.859,(2 3 6 5 3 -1 -1 2)
1969/12/31/18:00:05.859,(-1 -2 0 -1 -2 0 -2 -1)
1969/12/31/18:00:05.860,(2 0 0 -4 -2 -2 -2 -1)
1969/12/31/18:00:05.860,(-1 0 0 2 -1 1 -1 0)
1969/12/31/18:00:05.882,(0 0 -1 -2 0 0 1 -1)
1969/12/31/18:00:05.882,(-3 -3 -4 -1 -4 -13 -10 -3)
1969/12/31/18:00:05.884,(-2 4 1 0 2 13 7 -1)
1969/12/31/18:00:05.884,(2 1 5 0 0 0 -2 3)
1969/12/31/18:00:05.896,(-3 -1 -9 -6 0 3 2 -3)
1969/12/31/18:00:05.896,(-4 -3 0 -2 -4 -5 -17 -6)
1969/12/31/18:00:05.905,(0 1 -2 -4 -2 -9 -2 1)
1969/12/31/18:00:05.905,(-2 -5 -4 0 0 0 5 1)
1969/12/31/18:00:05.921,(-1 1 4 -1 -3 0 4 2)
1969/12/31/18:00:05.921,(0 -1 -9 -3 3 5 2 2)
1969/12/31/18:00:05.927,(-3 -4 8 6 -3 -6 1 -3)
1969/12/31/18:00:05.927,(-4 -7 -22 -16 -4 -1 -2 -4)
1969/12/31/18:00:05.945,(2 5 15 7 3 -2 -3 0)
1969/12/31/18:00:05.945,(2 5 18 32 8 8 3 2)
1969/12/31/18:00:05.947,(-1 -2 1 -2 1 4 4 5)
1969/12/31/18:00:05.947,(-1 -2 4 3 -2 -1 -2 -3)
1969/12/31/18:00:05.958,(-5 -10 -15 -21 -9 -6 -5 -3)
1969/12/31/18:00:05.958,(-3 -2 -13 -9 -4 -1 -1 -5)
1969/12/31/18:00:05.968,(-1 -5 0 2 0 2 -1 0)
1969/12/31/18:00:05.968,(0 7 -7 -24 -9 -7 -3 -6)
1969/12/31/18:00:05.983,(3 0 -9 3 3 4 2 3)
1969/12/31/18:00:05.983,(3 7 15 -7 -1 -3 0 -1)
1969/12/31/18:00:05.984,(0 0 7 18 0 -2 0 -1)
1969/12/31/18:00:05.984,(-3 -6 -17 4 3 1 0 -2)
1969/12/31/18:00:06.014,(-1 2 19 -4 -5 -1 -1 0)
1969/12/31/18:00:06.014,(-6 -3 -24 -50 -12 -7 0 -3)
1969/12/31/18:00:06.015,(2 0 -8 3 -4 -3 -3 2)
1969/12/31/18:00:06.015,(13 23 42 59 18 1 -7 -5)
1969/12/31/18:00:06.020,(1 4 1 10 5 2 0 0)
1969/12/31/18:00:06.020,(-2 -7 -3 5 -2 1 3 3)
1969/12/31/18:00:06.030,(-3 -9 -16 -31 -9 -2 -1 1)
1969/12/31/18:00:06.030,(-5 -9 -11 -20 -6 0 1 0)
1969/12/31/18:00:06.045,(-1 -5 -7 5 1 -2 -2 -2)
1969/12/31/18:00:06.045,(0 -1 2 -3 -2 -3 -1 -3)
1969/12/31/18:00:06.046,(-2 -2 -7 -7 0 -1 -2 -2)
1969/12/31/18:00:06.046,(-3 -2 2 6 1 0 1 1)
1969/12/31/18:00:06.068,(-3 -4 -1 -3 -1 -3 0 1)
1969/12/31/18:00:06.068,(0 2 -4 -2 -3 -1 -1 -4)
1969/12/31/18:00:06.070,(1 4 4 8 2 -1 -2 -2)
1969/12/31/18:00:06.070,(-2 0 5 -1 -3 -2 -2 -3)
1969/12/31/18:00:06.092,(0 -1 -5 -9 -2 0 1 1)
1969/12/31/18:00:06.092,(-1 -2 1 7 2 2 2 0)
1969/12/31/18:00:06.093,(1 -1 0 3 2 0 0 -1)
1969/12/31/18:00:06.093,(-1 -3 0 -11 -3 0 7 7)
1969/12/31/18:00:06.107,(-2 0 -7 -5 -6 -8 -9 -8)
1969/12/31/18:00:06.107,(0 1 1 8 4 3 0 -2)
1969/12/31/18:00:06.108,(-3 1 2 -1 -1 -3 -8 -9)
1969/12/31/18:00:06.108,(-5 -11 -7 -9 -1 3 5 4)
1969/12/31/18:00:06.130,(3 4 -2 0 0 -1 3 -1)
1969/12/31/18:00:06.130,(-3 -6 -1 3 2 1 1 3)
1969/12/31/18:00:06.132,(-3 -3 0 -5 -2 1 1 1)
1969/12/31/18:00:06.132,(-2 6 2 1 -1 -3 -7 -3)
1969/12/31/18:00:06.145,(-1 -7 -1 6 2 -1 -2 0)
1969/12/31/18:00:06.145,(-5 -18 -12 -2 -3 -1 -1 -1)
1969/12/31/18:00:06.154,(4 25 9 1 -2 0 3 6)
1969/12/31/18:00:06.154,(0 -2 -4 -2 -2 -3 -4 -5)
1969/12/31/18:00:06.168,(-2 5 -2 3 2 1 3 1)
1969/12/31/18:00:06.168,(-1 4 6 5 0 -1 0 -2)
1969/12/31/18:00:06.176,(3 22 23 6 0 0 5 8)
1969/12/31/18:00:06.176,(-5 -15 -11 -6 -4 -3 0 -2)
1969/12/31/18:00:06.192,(2 12 14 4 0 0 -5 0)
1969/12/31/18:00:06.192,(-4 -5 -5 -1 -1 2 1 1)
1969/12/31/18:00:06.194,(-6 -17 -15 -3 -1 0 -4 -7)
1969/12/31/18:00:06.194,(-2 -17 -13 -12 -9 0 11 13)
1969/12/31/18:00:06.207,(-3 -3 -2 -3 -3 -4 -6 -5)
1969/12/31/18:00:06.207,(-4 3 3 3 1 1 2 -4)
1969/12/31/18:00:06.216,(2 -4 -6 -5 -4 -6 -9 -10)
1969/12/31/18:00:06.216,(-1 4 4 -1 1 2 -1 -3)
1969/12/31/18:00:06.230,(-2 -16 -13 -4 -4 0 3 6)
1969/12/31/18:00:06.230,(-3 6 7 2 -1 -1 0 -2)
1969/12/31/18:00:06.238,(-6 -8 -10 -6 -4 -4 -3 -7)
1969/12/31/18:00:06.238,(-2 -6 -3 0 1 -2 -8 -8)
1969/12/31/18:00:06.254,(-1 0 -1 -4 -3 0 -2 -3)
1969/12/31/18:00:06.254,(10 13 6 3 2 -1 0 6)
1969/12/31/18:00:06.256,(3 -7 -3 0 2 1 -2 -1)
1969/12/31/18:00:06.256,(8 6 5 4 3 2 2 7)
1969/12/31/18:00:06.269,(-10 9 5 1 1 3 6 5)
1969/12/31/18:00:06.269,(-22 -18 -8 -5 -3 -7 -14 -29)
1969/12/31/18:00:06.278,(-5 -17 -12 -9 -3 4 13 18)
1969/12/31/18:00:06.278,(37 29 13 5 -2 -3 -8 4)
1969/12/31/18:00:06.301,(-2 -11 -9 -5 -4 -8 -11 -12)
1969/12/31/18:00:06.301,(-32 -26 -14 -7 -4 -3 0 -5)
1969/12/31/18:00:06.303,(-16 -5 1 3 0 2 1 2)
1969/12/31/18:00:06.303,(24 21 7 0 1 -2 2 4)
1969/12/31/18:00:06.316,(7 2 -4 -1 -1 -14 -5 -4)
1969/12/31/18:00:06.316,(35 22 3 2 3 27 18 18)
1969/12/31/18:00:06.318,(-12 -27 -8 -1 1 4 -21 -17)
1969/12/31/18:00:06.318,(-18 23 9 3 0 -9 8 8)
1969/12/31/18:00:06.331,(36 -15 -7 -1 -1 -2 8 14)
1969/12/31/18:00:06.331,(-7 -1 -13 -9 -6 -13 -5 9)
1969/12/31/18:00:06.340,(-6 15 16 9 2 -4 -1 -15)
1969/12/31/18:00:06.340,(17 -4 -8 -4 1 19 -4 -11)
1969/12/31/18:00:06.355,(-25 2 6 3 1 2 21 -22)
1969/12/31/18:00:06.355,(25 -5 -1 0 3 16 -10 43)
1969/12/31/18:00:06.362,(43 41 14 5 2 -15 -8 20)
1969/12/31/18:00:06.362,(-30 -43 -14 -4 -2 4 18 11)
1969/12/31/18:00:06.379,(-15 1 6 1 3 1 -14 -13)
1969/12/31/18:00:06.379,(0 28 6 -1 -5 -12 -1 -22)
1969/12/31/18:00:06.385,(-56 -41 -17 -4 -3 -6 -7 -33)
1969/12/31/18:00:06.385,(-66 -31 -13 -10 -8 -12 -27 -68)
1969/12/31/18:00:06.402,(25 -17 -11 -4 -3 11 6 59)
1969/12/31/18:00:06.402,(-4 5 0 -2 -2 -6 -7 -37)
1969/12/31/18:00:06.403,(88 36 9 2 -3 -1 18 81)
1969/12/31/18:00:06.403,(-13 -38 -12 -4 -2 -9 -6 -8)
1969/12/31/18:00:06.417,(-24 -3 0 3 3 6 17 0)
1969/12/31/18:00:06.417,(-24 21 9 1 5 35 -23 -44)
1969/12/31/18:00:06.424,(2 18 1 1 -5 -40 -32 -48)
1969/12/31/18:00:06.424,(1 -16 -13 -9 -5 6 6 42)
1969/12/31/18:00:06.441,(34 20 4 -2 -9 -26 -35 13)
1969/12/31/18:00:06.441,(9 0 8 10 4 -15 19 10)
1969/12/31/18:00:06.443,(-15 -9 -6 -8 -5 2 30 -3)
1969/12/31/18:00:06.443,(-2 -34 -15 -3 2 16 -4 38)
1969/12/31/18:00:06.464,(-21 4 -3 -2 1 3 -2 -17)
1969/12/31/18:00:06.464,(46 4 -11 -9 -6 -4 -1 17)
1969/12/31/18:00:06.465,(-29 -30 -6 -3 5 48 23 28)
1969/12/31/18:00:06.465,(-7 18 13 5 -5 -51 -16 -13)
1969/12/31/18:00:06.479,(-16 -2 -3 0 3 0 18 -1)
1969/12/31/18:00:06.479,(49 21 15 10 5 27 22 59)
1969/12/31/18:00:06.486,(-40 -27 -10 -4 1 -20 -37 -48)
1969/12/31/18:00:06.486,(8 10 5 -1 -2 8 -12 -11)
1969/12/31/18:00:06.503,(33 20 6 4 2 -14 -22 -1)
1969/12/31/18:00:06.503,(-8 -5 6 4 0 -20 14 39)
1969/12/31/18:00:06.505,(-7 -1 0 2 4 27 8 -50)
1969/12/31/18:00:06.505,(19 40 13 4 -1 -7 -25 -3)
1969/12/31/18:00:06.527,(-17 -17 -8 -4 0 13 15 -8)
1969/12/31/18:00:06.527,(-21 -28 -11 -3 -4 -9 -9 -22)
1969/12/31/18:00:06.528,(-5 18 2 -2 -5 -13 -1 8)
1969/12/31/18:00:06.528,(14 -3 -3 -2 0 14 12 -15)
1969/12/31/18:00:06.541,(30 20 0 1 3 6 -3 16)
1969/12/31/18:00:06.541,(-31 -10 -7 -8 -2 1 -10 -21)
1969/12/31/18:00:06.548,(20 1 3 3 -2 -5 9 12)
1969/12/31/18:00:06.548,(-33 2 2 3 3 10 15 -10)
1969/12/31/18:00:06.565,(-8 5 1 -3 -10 -17 -26 -50)
1969/12/31/18:00:06.565,(-14 -25 -12 -2 0 -17 10 0)
1969/12/31/18:00:06.567,(28 7 -4 -4 -1 4 5 21)
1969/12/31/18:00:06.567,(-4 9 6 3 3 -2 -12 -14)
1969/12/31/18:00:06.589,(-44 -8 7 9 11 34 18 17)
1969/12/31/18:00:06.589,(-8 7 4 2 -3 -52 -27 -57)
1969/12/31/18:00:06.590,(24 -5 -7 -6 6 55 34 57)
1969/12/31/18:00:06.590,(12 8 2 -1 -6 -10 5 10)
1969/12/31/18:00:06.602,(-5 -4 -4 -5 -1 7 15 17)
1969/12/31/18:00:06.602,(-15 -12 4 3 1 -5 -11 -11)
1969/12/31/18:00:06.612,(-31 -8 -10 -4 -6 -24 -18 -21)
1969/12/31/18:00:06.612,(45 35 13 8 8 10 15 9)
1969/12/31/18:00:06.627,(21 3 -7 -9 -11 -8 -15 -27)
1969/12/31/18:00:06.627,(-18 -8 2 1 0 13 12 -3)
1969/12/31/18:00:06.629,(-20 -13 -4 0 -2 -20 -36 -19)
1969/12/31/18:00:06.629,(-13 -8 -3 0 4 17 17 4)
1969/12/31/18:00:06.651,(-17 13 5 -3 -4 -16 -21 -29)
1969/12/31/18:00:06.651,(24 -21 -5 2 7 23 10 24)
1969/12/31/18:00:06.652,(31 24 11 7 3 -6 14 31)
1969/12/31/18:00:06.653,(-22 -27 -12 -8 -7 -15 -11 -7)
1969/12/31/18:00:06.674,(-34 1 6 6 3 -2 -16 -26)
1969/12/31/18:00:06.674,(-21 -9 -18 -16 -12 -4 -10 -5)
1969/12/31/18:00:06.676,(-25 -7 -1 -2 -5 -7 -12 -13)
1969/12/31/18:00:06.676,(5 -1 -5 -6 -3 25 9 -7)
1969/12/31/18:00:06.689,(-17 -14 -5 -1 4 -3 19 -5)
1969/12/31/18:00:06.689,(14 17 7 3 -3 -7 -25 0)
1969/12/31/18:00:06.691,(-24 -1 3 4 11 15 22 -5)
1969/12/31/18:00:06.691,(-12 -3 -1 -5 -14 -30 -25 -4)
1969/12/31/18:00:06.713,(6 -15 -7 -3 -8 -10 -10 -3)
1969/12/31/18:00:06.713,(2 7 4 2 3 16 -2 -6)
1969/12/31/18:00:06.715,(-49 -5 2 0 -2 -15 -25 -81)
1969/12/31/18:00:06.715,(12 24 14 16 34 34 12 24)
1969/12/31/18:00:06.727,(-14 -14 -5 -1 -14 -17 9 -8)
1969/12/31/18:00:06.727,(15 -6 -7 -5 -2 3 6 10)
1969/12/31/18:00:06.737,(-1 6 -5 -19 -42 -44 -23 -14)
1969/12/31/18:00:06.737,(10 3 5 2 23 14 22 10)
1969/12/31/18:00:06.752,(-1 5 3 2 -18 4 -31 -28)
1969/12/31/18:00:06.752,(-6 9 0 -1 9 14 19 13)
1969/12/31/18:00:06.758,(15 10 6 5 5 -6 16 35)
1969/12/31/18:00:06.758,(-32 -59 -31 -20 -26 -28 -29 -33)
1969/12/31/18:00:06.775,(20 5 10 12 28 23 23 53)
1969/12/31/18:00:06.775,(-2 6 6 9 3 18 12 2)
1969/12/31/18:00:06.776,(43 13 9 13 18 -29 8 60)
1969/12/31/18:00:06.777,(35 26 10 24 46 23 21 32)
1969/12/31/18:00:06.789,(-7 -23 -10 -7 -35 -3 12 2)
1969/12/31/18:00:06.789,(-28 -1 -9 -29 -42 -4 -29 -33)
1969/12/31/18:00:06.799,(8 -25 -21 -29 -22 -1 1 3)
1969/12/31/18:00:06.799,(16 26 8 -13 -39 -16 -4 2)
1969/12/31/18:00:06.813,(4 -25 -10 -2 20 5 10 15)
1969/12/31/18:00:06.813,(-12 -17 -12 16 27 -13 7 11)
1969/12/31/18:00:06.815,(33 -93 -73 -18 -1 9 -10 7)
1969/12/31/18:00:06.815,(36 48 -29 -2 19 12 10 31)
1969/12/31/18:00:06.837,(-7 97 84 53 6 4 -16 -44)
1969/12/31/18:00:06.837,(-30 -20 -6 13 4 -6 0 -17)
1969/12/31/18:00:06.839,(43 -21 -64 -21 2 13 13 35)
1969/12/31/18:00:06.839,(-22 -25 15 -6 -6 -18 -21 -39)
1969/12/31/18:00:06.852,(0 -123 -66 -19 -17 -12 9 18)
1969/12/31/18:00:06.852,(66 117 30 -5 4 5 4 7)
1969/12/31/18:00:06.861,(-21 112 127 62 17 8 -7 -29)
1969/12/31/18:00:06.861,(-50 -29 -37 -10 -3 -12 10 1)
1969/12/31/18:00:06.875,(-52 -64 -55 -18 7 5 -14 -21)
1969/12/31/18:00:06.875,(28 -67 -23 -6 -24 -9 -4 -11)
1969/12/31/18:00:06.877,(-46 -116 -104 -48 -11 23 -12 -22)
1969/12/31/18:00:06.877,(48 117 116 41 1 8 6 17)
1969/12/31/18:00:06.899,(3 40 43 6 -6 -25 -10 -17)
1969/12/31/18:00:06.899,(-7 -77 -70 -16 -3 -16 0 16)
1969/12/31/18:00:06.901,(-11 -87 -58 -21 -12 5 0 -26)
1969/12/31/18:00:06.901,(-42 25 -15 20 9 -4 -2 -33)
1969/12/31/18:00:06.914,(94 47 20 -2 28 30 15 62)
1969/12/31/18:00:06.914,(-89 -56 -60 -41 -31 -41 -57 -83)
1969/12/31/18:00:06.922,(59 127 127 61 15 -12 15 35)
1969/12/31/18:00:06.922,(28 -128 -122 -43 -4 3 18 49)
1969/12/31/18:00:06.938,(-51 107 84 46 17 11 -22 -38)
1969/12/31/18:00:06.938,(42 66 47 31 -8 2 9 3)
1969/12/31/18:00:06.940,(-39 -122 -120 -40 1 1 10 34)
1969/12/31/18:00:06.940,(-27 100 109 37 33 29 5 -18)
1969/12/31/18:00:06.961,(-15 -128 -128 -128 -66 -15 -41 -84)
1969/12/31/18:00:06.961,(33 99 119 76 33 12 43 38)
1969/12/31/18:00:06.963,(31 72 36 22 -5 -21 -18 3)
1969/12/31/18:00:06.963,(-59 -93 -81 -19 -13 -31 -30 -43)
1969/12/31/18:00:06.976,(-37 -117 -103 -18 17 11 18 3)
1969/12/31/18:00:06.976,(-37 -128 -128 -57 -23 31 13 -1)
1969/12/31/18:00:06.985,(78 122 86 43 42 46 3 30)
1969/12/31/18:00:06.985,(15 48 38 28 -4 -9 -12 -38)
1969/12/31/18:00:07.001,(36 -7 -12 21 3 -25 11 37)
1969/12/31/18:00:07.001,(-6 -64 -32 -4 26 8 -3 13)
1969/12/31/18:00:07.002,(-54 -128 -95 -40 -21 -31 -9 -32)
1969/12/31/18:00:07.002,(21 -39 -48 -25 9 12 -2 18)
1969/12/31/18:00:07.023,(25 57 22 1 -4 25 28 58)
1969/12/31/18:00:07.023,(34 127 116 25 18 22 31 50)
1969/12/31/18:00:07.026,(4 -87 -32 0 15 -4 -9 25)
1969/12/31/18:00:07.026,(-35 -13 -12 -32 -76 -26 -13 -31)
1969/12/31/18:00:07.037,(-21 22 5 5 -7 -15 -4 -37)
1969/12/31/18:00:07.037,(6 -20 -39 -27 -16 -7 -9 -2)
1969/12/31/18:00:07.046,(-64 -58 -36 12 32 22 -4 -33)
1969/12/31/18:00:07.046,(6 10 -39 -21 -22 -11 -22 -15)
1969/12/31/18:00:07.062,(-5 -17 6 12 -8 -16 11 4)
1969/12/31/18:00:07.062,(-3 -60 -104 -40 11 16 -7 -15)
1969/12/31/18:00:07.064,(38 112 117 79 15 -16 18 49)
1969/12/31/18:00:07.064,(-14 -128 -103 -52 -33 10 -8 -18)
1969/12/31/18:00:07.086,(6 -57 -72 -9 40 16 0 12)
1969/12/31/18:00:07.086,(-14 71 79 32 -15 -12 12 -17)
1969/12/31/18:00:07.087,(14 36 18 0 -11 -14 16 31)
1969/12/31/18:00:07.087,(-48 -48 9 15 -1 16 -26 -76)
1969/12/31/18:00:07.099,(-31 -35 -48 -24 -9 -12 -7 1)
1969/12/31/18:00:07.100,(11 -6 31 23 22 -15 4 48)
1969/12/31/18:00:07.109,(-6 3 -16 -10 -11 14 5 11)
1969/12/31/18:00:07.109,(38 43 27 0 -10 -51 -9 25)
1969/12/31/18:00:07.124,(7 69 80 4 -5 36 16 -14)
1969/12/31/18:00:07.124,(-35 -85 -39 -10 4 -34 -19 -22)
1969/12/31/18:00:07.126,(-6 72 35 8 -10 15 -2 -26)
1969/12/31/18:00:07.126,(5 -80 -65 0 34 20 46 73)
1969/12/31/18:00:07.148,(62 91 72 41 15 -14 -7 20)
1969/12/31/18:00:07.148,(30 90 100 16 -29 -1 -11 33)
1969/12/31/18:00:07.149,(5 -36 -29 -21 -12 -11 3 -26)
1969/12/31/18:00:07.149,(-43 -102 -67 15 50 -3 -5 -26)
1969/12/31/18:00:07.173,(-8 4 -14 -25 -25 -10 -4 14)
1969/12/31/18:00:07.173,(-25 4 5 24 8 -25 10 -21)
1969/12/31/18:00:07.174,(-30 -128 -128 -102 -52 20 -11 -63)
1969/12/31/18:00:07.174,(34 127 127 35 -22 1 -16 -37)
1969/12/31/18:00:07.185,(27 -8 38 52 27 7 18 20)
1969/12/31/18:00:07.185,(-7 -100 -94 -28 -12 -12 -33 -7)
1969/12/31/18:00:07.194,(-20 -88 -96 -4 12 -14 -1 -20)
1969/12/31/18:00:07.194,(67 55 49 15 4 0 18 58)
1969/12/31/18:00:07.210,(23 1 -75 -35 -20 -25 -37 -27)
1969/12/31/18:00:07.210,(38 77 93 62 22 30 17 1)
1969/12/31/18:00:07.211,(-14 11 13 -2 -8 -1 12 -7)
1969/12/31/18:00:07.211,(4 -2 -14 0 2 12 19 34)
1969/12/31/18:00:07.223,(-7 -71 -52 -35 -32 14 -13 -47)
1969/12/31/18:00:07.223,(-45 -108 -77 -30 12 -9 -15 -29)
1969/12/31/18:00:07.233,(-50 21 -23 -2 6 16 15 6)
1969/12/31/18:00:07.233,(57 63 73 33 -6 18 3 12)
1969/12/31/18:00:07.248,(10 -46 2 17 6 -10 19 38)
1969/12/31/18:00:07.248,(-8 -89 -100 -31 19 13 14 13)
1969/12/31/18:00:07.255,(-18 -93 -24 -15 -33 -56 -42 -56)
1969/12/31/18:00:07.255,(-20 43 -34 -1 14 21 -2 -21)
1969/12/31/18:00:07.272,(-2 -12 11 10 -13 7 -7 -5)
1969/12/31/18:00:07.272,(4 -20 -77 -20 -1 6 0 4)
1969/12/31/18:00:07.273,(20 99 101 24 -4 13 -4 21)
1969/12/31/18:00:07.274,(13 18 12 -7 1 -25 7 21)
1969/12/31/18:00:07.286,(-8 -51 -34 -5 7 -1 0 -3)
1969/12/31/18:00:07.286,(-43 9 12 -6 -13 -28 -25 -38)
1969/12/31/18:00:07.296,(17 71 69 34 50 35 15 13)
1969/12/31/18:00:07.296,(30 -12 -13 -4 -26 -23 -13 -7)
1969/12/31/18:00:07.310,(12 -35 -15 -1 13 -17 2 24)
1969/12/31/18:00:07.310,(13 70 37 -9 -17 19 11 20)
1969/12/31/18:00:07.317,(20 -47 -40 -8 -20 -29 -9 -1)
1969/12/31/18:00:07.317,(-62 -86 -41 -6 10 0 -8 -32)
1969/12/31/18:00:07.334,(-67 50 26 10 43 36 18 4)
1969/12/31/18:00:07.334,(-38 -45 -29 -34 -59 -48 -37 -76)
1969/12/31/18:00:07.336,(-11 38 37 15 5 9 -4 -7)
1969/12/31/18:00:07.336,(-30 -63 -17 3 13 -2 11 34)
1969/12/31/18:00:07.347,(0 -4 -48 -3 12 -10 1 11)
1969/12/31/18:00:07.347,(31 127 112 19 -2 24 4 25)
1969/12/31/18:00:07.364,(-22 -25 -4 -2 -11 1 -5 -21)
1969/12/31/18:00:07.364,(-26 -128 -114 -29 3 -1 15 28)
1969/12/31/18:00:07.372,(4 20 21 6 -8 18 2 31)
1969/12/31/18:00:07.372,(13 47 25 4 -8 2 -17 -35)
1969/12/31/18:00:07.380,(8 -101 -93 -34 -1 12 27 47)
1969/12/31/18:00:07.380,(-2 82 56 14 -5 -8 -18 -3)
1969/12/31/18:00:07.396,(-29 -50 -21 15 15 -20 -13 -53)
1969/12/31/18:00:07.396,(35 -18 -40 -8 3 6 -1 -8)
1969/12/31/18:00:07.397,(-26 53 71 19 -2 9 -4 -23)
1969/12/31/18:00:07.398,(-19 -78 -102 -44 -22 -10 17 21)
1969/12/31/18:00:07.419,(-12 124 127 54 46 15 -17 -36)
1969/12/31/18:00:07.419,(-43 -103 -46 -14 -35 0 13 7)
1969/12/31/18:00:07.421,(-21 -35 -19 -21 -10 -33 -44 -72)
1969/12/31/18:00:07.421,(-14 84 55 20 8 0 12 -5)
1969/12/31/18:00:07.434,(4 -61 -57 -40 -36 14 11 42)
1969/12/31/18:00:07.434,(18 -71 -59 -12 11 0 -8 -10)
1969/12/31/18:00:07.442,(0 -8 -13 12 15 20 14 -7)
1969/12/31/18:00:07.442,(83 82 82 29 24 8 0 10)
1969/12/31/18:00:07.458,(44 -37 -38 -22 -13 -20 -15 -4)
1969/12/31/18:00:07.458,(-13 72 57 33 7 -6 6 11)
1969/12/31/18:00:07.459,(33 -27 -33 -24 -14 -34 -6 24)
1969/12/31/18:00:07.459,(-9 -34 -77 -21 -3 16 -5 1)
1969/12/31/18:00:07.481,(6 103 99 47 3 -13 11 3)
1969/12/31/18:00:07.481,(-61 -69 -26 16 53 33 7 0)
1969/12/31/18:00:07.483,(11 37 -40 -42 -63 -12 -24 -34)
1969/12/31/18:00:07.483,(-14 17 65 26 -3 10 3 -47)
1969/12/31/18:00:07.497,(-11 -48 -124 -44 -17 -9 -4 45)
1969/12/31/18:00:07.497,(-43 97 103 55 24 -3 -1 -17)
1969/12/31/18:00:07.504,(2 -77 -35 18 15 -14 -10 24)
1969/12/31/18:00:07.504,(-33 -83 -46 -29 16 20 -23 -18)
1969/12/31/18:00:07.520,(-21 -31 -23 -16 -21 -13 5 -15)
1969/12/31/18:00:07.520,(10 -72 -76 -46 -25 10 26 28)
1969/12/31/18:00:07.521,(52 127 100 37 27 7 7 40)
1969/12/31/18:00:07.521,(-31 -54 -23 -12 -4 12 6 -22)
1969/12/31/18:00:07.543,(-11 -40 18 2 -21 -35 -12 -29)
1969/12/31/18:00:07.543,(16 2 -55 -30 -5 2 -33 -6)
1969/12/31/18:00:07.545,(31 40 25 28 24 27 21 -2)
1969/12/31/18:00:07.545,(-36 -28 11 4 -11 -14 0 40)
1969/12/31/18:00:07.559,(-42 13 10 8 2 2 -5 -55)
1969/12/31/18:00:07.559,(8 -31 -28 -18 3 0 -4 26)
1969/12/31/18:00:07.566,(-3 -122 -118 -42 -2 0 4 12)
1969/12/31/18:00:07.566,(18 127 97 36 -10 -13 -5 -11)
1969/12/31/18:00:07.582,(-14 -55 -62 -16 -3 -2 -8 -23)
1969/12/31/18:00:07.582,(21 -58 -42 -2 0 -49 -22 -26)
1969/12/31/18:00:07.583,(16 127 116 38 29 63 18 62)
1969/12/31/18:00:07.583,(17 -127 -96 -46 -51 -71 -43 -35)
1969/12/31/18:00:07.605,(21 34 25 6 17 50 5 19)
1969/12/31/18:00:07.605,(-2 -79 -86 -36 -25 -26 -6 -1)
1969/12/31/18:00:07.607,(-3 67 65 54 45 4 -4 -9)
1969/12/31/18:00:07.607,(64 -36 -41 -9 -28 5 13 35)
1969/12/31/18:00:07.620,(-18 -13 -16 -11 -29 -30 -5 -15)
1969/12/31/18:00:07.620,(-2 -18 15 27 26 10 11 31)
1969/12/31/18:00:07.629,(61 -16 -60 -38 -36 -18 -13 10)
1969/12/31/18:00:07.629,(-45 -50 -35 -6 27 35 14 -20)
1969/12/31/18:00:07.644,(54 103 107 51 25 -5 -4 20)
1969/12/31/18:00:07.644,(40 -29 -24 -2 -5 18 25 28)
1969/12/31/18:00:07.653,(-43 -48 -37 -23 -8 -35 -12 -16)
1969/12/31/18:00:07.653,(-32 -34 -39 -6 27 14 -20 -18)
1969/12/31/18:00:07.667,(20 40 48 35 9 19 38 38)
1969/12/31/18:00:07.667,(45 18 3 9 -17 -12 5 12)
1969/12/31/18:00:07.669,(-53 -46 -21 -18 -27 -27 -27 -66)
1969/12/31/18:00:07.669,(50 -51 -48 -20 -8 1 27 56)
1969/12/31/18:00:07.682,(-20 -22 -21 -17 11 14 8 15)
1969/12/31/18:00:07.682,(37 89 63 31 -2 -5 27 70)
1969/12/31/18:00:07.691,(39 10 25 33 49 28 4 -12)
1969/12/31/18:00:07.691,(-15 117 54 -12 -26 6 -5 -23)
1969/12/31/18:00:07.706,(-90 -104 -37 -11 -20 -15 -28 -66)
1969/12/31/18:00:07.706,(24 -18 -52 -20 3 -10 -11 19)
1969/12/31/18:00:07.714,(7 -48 16 2 -11 -3 16 58)
1969/12/31/18:00:07.714,(-10 -18 -61 0 17 0 -2 -45)
1969/12/31/18:00:07.729,(-38 79 93 40 16 -23 -15 -41)
1969/12/31/18:00:07.729,(-31 -21 -32 -34 -44 -17 -68 -122)
1969/12/31/18:00:07.732,(-63 -37 -41 -26 -25 -9 9 -4)
1969/12/31/18:00:07.732,(-36 -9 18 17 11 -15 -11 1)
1969/12/31/18:00:07.744,(-9 -123 -122 -49 -15 2 3 17)
1969/12/31/18:00:07.744,(-31 112 126 55 17 -23 -15 -85)
1969/12/31/18:00:07.753,(27 39 -6 4 11 24 6 17)
1969/12/31/18:00:07.753,(14 16 15 9 -12 -76 -11 -15)
1969/12/31/18:00:07.769,(39 -53 -47 -31 -9 69 17 20)
1969/12/31/18:00:07.769,(-76 -13 -4 -9 -2 15 2 17)
1969/12/31/18:00:07.771,(-31 -2 2 -10 -10 -24 -25 -63)
1969/12/31/18:00:07.771,(10 77 82 37 17 26 26 16)
1969/12/31/18:00:07.792,(4 -76 -66 -18 3 -12 -15 -9)
1969/12/31/18:00:07.792,(22 66 55 2 -1 16 28 58)
1969/12/31/18:00:07.794,(-24 38 16 10 1 -2 -7 8)
1969/12/31/18:00:07.794,(-47 -31 0 -1 -5 -18 -23 -32)
1969/12/31/18:00:07.806,(22 36 -31 -5 14 3 -4 8)
1969/12/31/18:00:07.806,(-32 28 45 24 -1 14 20 -20)
1969/12/31/18:00:07.815,(40 23 12 16 27 -4 11 10)
1969/12/31/18:00:07.815,(-43 -51 -47 -35 -36 0 -47 -79)
1969/12/31/18:00:07.831,(47 29 4 -1 -5 -8 1 23)
1969/12/31/18:00:07.831,(-37 -60 -57 -7 20 0 2 12)
1969/12/31/18:00:07.832,(16 54 44 4 1 20 18 45)
1969/12/31/18:00:07.832,(62 -79 -66 -18 3 15 0 34)
1969/12/31/18:00:07.854,(-30 -55 -37 -29 -14 -10 -6 -33)
1969/12/31/18:00:07.854,(73 80 67 34 33 13 -5 14)
1969/12/31/18:00:07.856,(-10 -16 -8 19 -4 -27 9 -6)
1969/12/31/18:00:07.856,(-5 2 4 -8 -8 42 13 36)
1969/12/31/18:00:07.868,(-13 -92 -81 -29 -15 -33 -5 11)
1969/12/31/18:00:07.868,(23 11 10 -1 -8 3 12 11)
1969/12/31/18:00:07.877,(-9 -25 -20 -7 -1 3 -11 -29)
1969/12/31/18:00:07.877,(-9 -60 -49 -8 11 -5 28 58)
1969/12/31/18:00:07.893,(-3 127 127 78 45 -12 27 49)
1969/12/31/18:00:07.893,(-102 -128 -73 -31 -13 26 -4 -31)
1969/12/31/18:00:07.894,(19 -30 -21 5 6 8 25 62)
1969/12/31/18:00:07.894,(-16 -35 -30 -5 18 7 -27 -57)
1969/12/31/18:00:07.916,(57 25 20 -1 -30 9 28 54)
1969/12/31/18:00:07.916,(11 17 -10 -3 27 -7 -5 -10)
1969/12/31/18:00:07.918,(-31 -34 -24 -13 -43 -34 -2 29)
1969/12/31/18:00:07.918,(2 43 40 18 18 23 7 -12)
1969/12/31/18:00:07.930,(80 7 -9 -22 -31 2 -2 26)
1969/12/31/18:00:07.930,(74 -45 -32 -14 -18 0 16 36)
1969/12/31/18:00:07.940,(-51 -29 -33 -26 -9 -1 -5 -37)
1969/12/31/18:00:07.940,(59 109 69 35 25 -10 4 17)
1969/12/31/18:00:07.962,(-6 123 125 55 2 -2 -8 30)
1969/12/31/18:00:07.962,(-6 -17 -23 -2 4 -4 3 26)
1969/12/31/18:00:07.964,(-68 -105 -54 -14 3 -11 -27 -76)
1969/12/31/18:00:07.964,(-4 -15 -29 -30 -44 -10 1 -15)
1969/12/31/18:00:07.978,(-23 -101 -69 -22 16 29 3 -6)
1969/12/31/18:00:07.978,(-16 75 35 7 -3 -4 0 -11)
1969/12/31/18:00:07.980,(39 35 15 7 5 1 7 21)
1969/12/31/18:00:07.980,(3 22 25 28 28 12 3 78)
1969/12/31/18:00:07.992,(-19 7 1 -20 -17 5 -16 -77)
1969/12/31/18:00:07.992,(-25 -71 -37 -9 -3 -3 -31 -36)
1969/12/31/18:00:08.002,(24 6 -5 -19 -22 -16 10 -17)
1969/12/31/18:00:08.002,(34 24 8 -2 -7 4 -2 39)
1969/12/31/18:00:08.017,(17 -28 -26 8 18 -5 -3 -34)
1969/12/31/18:00:08.017,(15 -9 -11 -13 -10 -6 -1 8)
1969/12/31/18:00:08.019,(-18 19 23 4 -5 -4 20 4)
1969/12/31/18:00:08.019,(-74 -7 4 -11 -13 35 15 -24)
1969/12/31/18:00:08.040,(-20 0 -7 6 20 -54 -69 6)
1969/12/31/18:00:08.040,(-5 -21 7 7 16 56 40 8)
1969/12/31/18:00:08.042,(-13 6 -9 -5 -9 -43 -26 -11)
1969/12/31/18:00:08.042,(11 -12 1 5 -5 2 -4 36)
1969/12/31/18:00:08.054,(-1 17 3 -13 -17 5 18 -25)
1969/12/31/18:00:08.054,(88 26 2 9 6 -27 -3 60)
1969/12/31/18:00:08.064,(8 9 7 4 8 31 -29 17)
1969/12/31/18:00:08.064,(-28 48 27 8 1 -10 1 -9)
1969/12/31/18:00:08.079,(91 -24 -43 -39 -32 2 -49 13)
1969/12/31/18:00:08.079,(8 -6 0 -1 -11 -43 44 -4)
1969/12/31/18:00:08.081,(34 50 32 21 13 26 -28 -4)
1969/12/31/18:00:08.081,(-46 -61 -21 -8 3 -11 -40 -27)
1969/12/31/18:00:08.102,(-18 -7 -20 -10 -12 -3 -25 -1)
1969/12/31/18:00:08.102,(-24 -5 -2 0 -3 4 50 8)
1969/12/31/18:00:08.104,(77 33 20 9 9 27 30 47)
1969/12/31/18:00:08.104,(37 -1 -10 -5 -13 -38 2 -25)
1969/12/31/18:00:08.117,(-74 -33 -16 -8 1 11 32 -28)
1969/12/31/18:00:08.117,(-60 10 4 -1 -1 -16 -43 -54)
1969/12/31/18:00:08.126,(-72 -69 -19 -6 -4 -19 -24 -28)
1969/12/31/18:00:08.126,(26 12 3 -3 -3 -8 5 -26)
1969/12/31/18:00:08.141,(41 83 35 18 14 2 8 6)
1969/12/31/18:00:08.141,(-45 -18 -7 -2 -2 -3 -17 41)
1969/12/31/18:00:08.144,(-40 -28 -18 -13 -7 6 -5 -45)
1969/12/31/18:00:08.144,(20 -5 11 11 12 19 40 6)
1969/12/31/18:00:08.164,(-26 17 14 9 4 -15 11 47)
1969/12/31/18:00:08.164,(-70 -48 -7 1 4 13 -7 -27)
1969/12/31/18:00:08.166,(102 72 19 10 8 11 16 82)
1969/12/31/18:00:08.166,(-1 -4 -11 -12 -8 -10 6 37)
1969/12/31/18:00:08.179,(-41 -49 7 17 18 15 28 -23)
1969/12/31/18:00:08.179,(50 30 -5 -11 -9 -6 -19 -33)
1969/12/31/18:00:08.188,(-2 -36 -9 -3 0 2 12 4)
1969/12/31/18:00:08.188,(5 44 13 6 2 1 14 29)
1969/12/31/18:00:08.204,(-13 -2 -2 0 0 -3 -10 -10)
1969/12/31/18:00:08.204,(-12 -7 -14 -15 -11 -8 -16 -4)
1969/12/31/18:00:08.205,(42 -21 -4 2 4 4 8 14)
1969/12/31/18:00:08.205,(-1 7 8 10 1 -1 -1 -10)
1969/12/31/18:00:08.227,(24 -6 -5 0 0 -2 6 62)
1969/12/31/18:00:08.227,(25 17 16 10 6 6 -6 -28)
1969/12/31/18:00:08.228,(-45 23 8 2 2 6 10 -17)
1969/12/31/18:00:08.228,(-33 -58 -45 -18 -9 -9 -5 23)
1969/12/31/18:00:08.241,(-7 29 47 15 3 3 13 17)
1969/12/31/18:00:08.241,(42 40 -6 -14 -6 -1 -1 13)
1969/12/31/18:00:08.250,(5 9 23 11 -1 -2 -4 -4)
1969/12/31/18:00:08.250,(45 24 10 8 3 -5 2 19)
1969/12/31/18:00:08.265,(5 -26 -22 -6 -2 -4 -11 -32)
1969/12/31/18:00:08.265,(10 -13 -9 -4 -2 1 -6 -16)
1969/12/31/18:00:08.272,(-48 -15 -4 -2 3 6 2 -10)
1969/12/31/18:00:08.272,(-10 -10 -9 -5 -4 -7 -8 -18)
1969/12/31/18:00:08.288,(5 0 -7 -5 -2 0 3 -2)
1969/12/31/18:00:08.288,(6 8 2 0 -2 0 0 12)
1969/12/31/18:00:08.291,(-20 -29 -21 -5 -2 2 5 -9)
1969/12/31/18:00:08.291,(-3 5 1 -15 -7 -6 -7 -8)
1969/12/31/18:00:08.303,(2 19 -10 8 4 2 1 -9)
1969/12/31/18:00:08.303,(-2 5 36 17 8 4 -1 9)
1969/12/31/18:00:08.312,(-11 -21 -15 -7 -6 -6 -9 -25)
1969/12/31/18:00:08.312,(-15 -39 -27 -2 2 0 1 0)
1969/12/31/18:00:08.327,(9 49 39 5 2 3 2 -3)
1969/12/31/18:00:08.327,(-4 -15 -22 -9 -1 0 -2 2)
1969/12/31/18:00:08.334,(-3 23 32 19 4 1 2 5)
1969/12/31/18:00:08.334,(-29 -101 -71 -33 -16 -5 -1 -15)
1969/12/31/18:00:08.351,(4 62 54 17 7 -3 -8 -9)
1969/12/31/18:00:08.351,(15 60 55 27 14 9 8 0)
1969/12/31/18:00:08.353,(-14 -33 -23 -13 -6 -3 -2 -5)
1969/12/31/18:00:08.353,(-6 21 18 3 -4 -3 -5 -5)
1969/12/31/18:00:08.374,(-20 -54 -49 -23 -12 -6 1 -9)
1969/12/31/18:00:08.374,(-3 -27 -27 -11 -2 -5 -15 0)
1969/12/31/18:00:08.376,(4 13 13 -3 3 3 5 6)
1969/12/31/18:00:08.376,(14 74 64 24 6 -1 0 -6)
1969/12/31/18:00:08.389,(-22 -68 -51 -29 -12 -1 2 -4)
1969/12/31/18:00:08.389,(1 24 13 11 4 1 -1 -2)
1969/12/31/18:00:08.396,(-4 -38 -25 -2 3 3 3 5)
1969/12/31/18:00:08.396,(2 8 -11 -6 -4 -4 -15 -13)
1969/12/31/18:00:08.413,(3 61 50 22 12 4 5 1)
1969/12/31/18:00:08.413,(-12 -33 -20 -2 -1 1 4 2)
1969/12/31/18:00:08.415,(8 13 -15 -11 -6 -2 -13 -12)
1969/12/31/18:00:08.415,(-1 9 11 6 2 -1 1 -1)
1969/12/31/18:00:08.436,(-8 -41 -35 -14 -8 -2 7 6)
1969/12/31/18:00:08.436,(-4 -18 -15 -12 -8 -8 -7 -2)
1969/12/31/18:00:08.439,(9 40 11 4 5 4 7 6)
1969/12/31/18:00:08.439,(-1 2 10 7 3 -2 -6 -7)
1969/12/31/18:00:08.451,(-18 -74 -61 -24 -10 -4 -5 -11)
1969/12/31/18:00:08.451,(9 60 81 26 10 5 8 12)
1969/12/31/18:00:08.458,(-4 -9 -3 -6 -4 -2 -3 -2)
1969/12/31/18:00:08.458,(1 -4 -18 -8 -3 -3 -5 -1)
1969/12/31/18:00:08.484,(-5 -29 24 14 3 -5 -6 -9)
1969/12/31/18:00:08.484,(18 53 5 12 9 6 6 11)
1969/12/31/18:00:08.485,(-6 3 -5 -3 -6 -6 -7 -10)
1969/12/31/18:00:08.485,(-7 -13 -11 -6 -1 3 11 6)
1969/12/31/18:00:08.498,(-4 2 -5 -4 -4 -1 -3 -1)
1969/12/31/18:00:08.498,(-9 -37 -22 -15 -9 -5 -5 -7)
1969/12/31/18:00:08.499,(-6 -7 2 -1 -1 -4 -3 -2)
1969/12/31/18:00:08.499,(13 30 23 13 7 2 5 5)
1969/12/31/18:00:08.521,(2 30 5 3 0 -1 -1 -3)
1969/12/31/18:00:08.521,(-9 -38 -42 -19 -10 -5 -6 -4)
1969/12/31/18:00:08.521,(7 17 19 14 4 0 3 2)
1969/12/31/18:00:08.521,(-9 -25 -3 -2 -4 -3 1 0)
1969/12/31/18:00:08.537,(0 41 28 4 1 -2 -14 -15)
1969/12/31/18:00:08.537,(-5 -33 -22 -8 -5 0 8 1)
1969/12/31/18:00:08.537,(-2 -5 -1 -3 0 -1 0 2)
1969/12/31/18:00:08.537,(4 8 7 0 -2 0 -1 0)
1969/12/31/18:00:08.560,(-17 -46 -47 -22 -7 -3 -2 -9)
1969/12/31/18:00:08.560,(13 45 50 31 10 4 -1 2)
1969/12/31/18:00:08.561,(10 -2 -13 8 2 2 2 3)
1969/12/31/18:00:08.561,(0 10 16 5 0 -1 -3 -5)
1969/12/31/18:00:08.574,(-7 -26 -22 -5 -3 1 4 7)
1969/12/31/18:00:08.574,(-10 -18 -16 -14 -5 -5 -6 -7)
1969/12/31/18:00:08.582,(-2 0 -3 -10 -6 -3 -1 -4)
1969/12/31/18:00:08.582,(9 15 5 5 4 1 -1 1)
1969/12/31/18:00:08.599,(-5 -6 -1 -5 -2 -2 -1 -2)
1969/12/31/18:00:08.599,(3 -8 -5 -2 1 1 1 2)
1969/12/31/18:00:08.599,(-3 1 7 0 0 1 1 2)
1969/12/31/18:00:08.599,(-8 -4 -7 -6 -3 -1 -4 -6)
1969/12/31/18:00:08.622,(4 14 11 2 -1 1 -2 -2)
1969/12/31/18:00:08.622,(3 -4 2 4 3 3 5 4)
1969/12/31/18:00:08.623,(-3 -12 -15 -8 -5 -3 -4 -3)
1969/12/31/18:00:08.623,(0 9 9 0 1 -2 -2 -1)
1969/12/31/18:00:08.636,(1 12 -2 2 -1 -2 -4 -4)
1969/12/31/18:00:08.636,(-2 -17 0 5 1 -1 0 1)
1969/12/31/18:00:08.645,(-4 -5 -2 -5 -2 -2 -1 0)
1969/12/31/18:00:08.645,(0 8 10 5 4 0 -2 -3)
1969/12/31/18:00:08.661,(1 5 7 5 2 1 2 3)
1969/12/31/18:00:08.661,(-6 -16 -14 -12 -5 -3 -3 -3)
1969/12/31/18:00:08.661,(1 21 -6 -8 -2 0 -3 -3)
1969/12/31/18:00:08.661,(5 4 5 4 0 1 3 0)
1969/12/31/18:00:08.686,(0 -6 -1 5 4 1 0 0)
1969/12/31/18:00:08.686,(-2 6 -13 -7 -4 -2 -1 -2)
1969/12/31/18:00:08.686,(-3 -12 -9 -6 -2 -1 -2 -1)
1969/12/31/18:00:08.686,(1 0 -4 -4 -3 0 -1 0)
1969/12/31/18:00:08.698,(6 17 18 7 2 -1 2 0)
1969/12/31/18:00:08.698,(-12 -32 -28 -11 -3 -4 -4 -4)
1969/12/31/18:00:08.707,(-6 -5 -3 0 0 -2 1 -3)
1969/12/31/18:00:08.707,(-1 -5 -5 -3 0 -2 -1 -1)
1969/12/31/18:00:08.723,(4 2 9 7 2 2 2 4)
1969/12/31/18:00:08.723,(3 8 8 4 -1 -1 -1 1)
1969/12/31/18:00:08.723,(-4 -9 -6 -2 0 0 1 1)
1969/12/31/18:00:08.723,(0 -1 0 -2 -1 -3 -4 -3)
1969/12/31/18:00:08.746,(-1 -1 3 -2 -1 -1 0 -1)
1969/12/31/18:00:08.746,(1 7 10 3 -1 -1 -2 -1)
1969/12/31/18:00:08.747,(-4 -2 -1 0 -2 -2 -1 -3)
1969/12/31/18:00:08.747,(-4 -6 1 -4 -3 -2 -2 -3)
1969/12/31/18:00:08.762,(4 18 5 4 2 -1 -1 -2)
1969/12/31/18:00:08.762,(-3 -8 -11 -6 -2 -1 -2 -1)
1969/12/31/18:00:08.770,(0 1 3 1 -1 -1 -1 0)
1969/12/31/18:00:08.770,(-3 1 -3 -3 -4 -2 -2 -3)
1969/12/31/18:00:08.785,(-5 -8 -6 -5 -4 -1 -1 -3)
1969/12/31/18:00:08.785,(-1 -4 -2 -3 -1 0 -1 -1)
1969/12/31/18:00:08.793,(-2 -2 -2 -2 -2 0 -3 -3)
1969/12/31/18:00:08.793,(1 -2 -5 -4 -1 -1 -1 0)
1969/12/31/18:00:08.808,(-1 -3 4 3 1 1 0 -1)
1969/12/31/18:00:08.808,(0 -1 -5 -3 -3 -1 1 -2)
1969/12/31/18:00:08.809,(-1 0 3 -1 -2 -3 -3 -1)
1969/12/31/18:00:08.809,(0 0 -3 -1 1 2 0 2)
1969/12/31/18:00:08.823,(-4 -9 -7 -1 0 0 0 -2)
1969/12/31/18:00:08.823,(3 5 4 -1 -4 -2 -2 3)
1969/12/31/18:00:08.831,(-2 -4 0 -2 -1 -1 -3 -3)
1969/12/31/18:00:08.831,(-1 -1 -3 0 -1 -2 -3 -3)
1969/12/31/18:00:08.847,(1 3 4 0 -1 2 4 5)
1969/12/31/18:00:08.847,(-7 -8 -10 -6 -3 -3 -2 -5)
1969/12/31/18:00:08.848,(-1 0 6 1 -2 -1 -1 -1)
1969/12/31/18:00:08.848,(-1 -2 -7 -6 -4 -1 1 0)
1969/12/31/18:00:08.870,(-1 4 2 -5 -3 -2 -2 -3)
1969/12/31/18:00:08.870,(1 -3 2 7 2 1 1 0)
1969/12/31/18:00:08.871,(2 5 8 4 0 -1 0 1)
1969/12/31/18:00:08.871,(-1 -2 -1 2 -2 0 -1 -1)
1969/12/31/18:00:08.886,(-2 -4 -7 -7 -4 -4 -3 -4)
1969/12/31/18:00:08.886,(1 0 -1 -2 1 0 2 0)
1969/12/31/18:00:08.894,(-1 -1 -2 -1 1 -2 -1 -3)
1969/12/31/18:00:08.894,(-2 -6 -7 -5 -4 -3 0 -2)
1969/12/31/18:00:08.910,(-2 0 -1 2 -2 -7 -11 -7)
1969/12/31/18:00:08.910,(-1 -4 -5 -3 0 6 13 4)
1969/12/31/18:00:08.910,(-2 -1 -3 -4 -3 -7 -14 -7)
1969/12/31/18:00:08.910,(0 1 7 5 3 4 4 1)
1969/12/31/18:00:08.932,(0 -2 -1 1 2 1 3 2)
1969/12/31/18:00:08.932,(0 2 1 -1 0 -3 -7 -3)
1969/12/31/18:00:08.933,(-6 -9 -8 -5 -2 -2 2 -3)
1969/12/31/18:00:08.933,(2 -4 -3 0 1 -1 1 4)
1969/12/31/18:00:08.949,(4 4 1 0 0 1 -2 2)
1969/12/31/18:00:08.949,(-6 -7 -9 -11 -7 -5 -3 -2)
1969/12/31/18:00:08.956,(1 0 0 3 3 3 5 3)
1969/12/31/18:00:08.956,(0 1 1 -2 -3 -4 -5 -1)
1969/12/31/18:00:08.972,(-1 0 -2 -1 -1 0 3 -1)
1969/12/31/18:00:08.972,(2 5 5 2 -1 -1 -1 1)
1969/12/31/18:00:08.973,(-6 -6 -3 -3 -2 -3 -3 -2)
1969/12/31/18:00:08.973,(-2 -2 -2 0 0 1 0 -2)
1969/12/31/18:00:08.994,(-1 -2 -1 -3 -1 -1 -1 -1)
1969/12/31/18:00:08.994,(0 1 1 1 -1 0 -1 -1)
1969/12/31/18:00:08.995,(0 1 1 1 0 0 1 2)
1969/12/31/18:00:08.995,(0 1 2 1 1 1 0 2)
1969/12/31/18:00:09.009,(-2 -5 -4 -5 -5 -2 -1 2)
1969/12/31/18:00:09.009,(-2 -2 -1 -2 -2 -4 -5 -6)
1969/12/31/18:00:09.018,(1 -1 0 0 -2 1 2 2)
1969/12/31/18:00:09.018,(-3 -3 -4 -1 -2 -1 -3 -1)
1969/12/31/18:00:09.034,(-2 -2 -1 -1 -2 -3 -2 -2)
1969/12/31/18:00:09.034,(-1 -1 1 2 2 0 -2 0)
1969/12/31/18:00:09.034,(1 2 1 -1 1 2 3 0)
1969/12/31/18:00:09.034,(0 0 -1 0 -1 -1 -1 -2)
1969/12/31/18:00:09.057,(0 0 3 2 2 3 -1 2)
1969/12/31/18:00:09.057,(-1 -3 -4 -3 -2 -1 -2 -1)
1969/12/31/18:00:09.058,(-1 -1 0 0 0 -1 0 -1)
1969/12/31/18:00:09.058,(-1 -1 -2 -1 -1 -1 -1 -2)
1969/12/31/18:00:09.073,(-1 -2 -2 0 1 -1 0 -1)
1969/12/31/18:00:09.073,(1 -1 -2 -1 -1 0 -1 2)
1969/12/31/18:00:09.080,(-1 1 -2 -2 -1 -2 -3 -1)
1969/12/31/18:00:09.080,(0 -3 -1 1 -2 0 0 0)
1969/12/31/18:00:09.096,(-3 -2 -2 1 -1 -1 -2 -3)
1969/12/31/18:00:09.096,(-4 0 -1 0 -3 -2 -3 -3)
1969/12/31/18:00:09.097,(-1 -2 -1 -2 -2 -1 0 -2)
1969/12/31/18:00:09.097,(-1 1 2 -1 -2 -1 -1 0)
1969/12/31/18:00:09.119,(-3 -5 -6 -4 -2 -2 -1 -2)
1969/12/31/18:00:09.119,(-1 -2 -2 0 2 0 -1 1)
1969/12/31/18:00:09.120,(0 0 -1 -1 -3 0 1 -1)
1969/12/31/18:00:09.120,(-2 -2 -2 -3 0 -2 0 0)
1969/12/31/18:00:09.133,(1 -1 0 2 2 2 2 1)
1969/12/31/18:00:09.133,(-3 -2 -3 -5 -3 -1 0 -3)
1969/12/31/18:00:09.142,(-1 -1 -2 -2 -2 -1 -2 0)
1969/12/31/18:00:09.142,(-1 2 0 -1 -3 -2 -1 -2)
1969/12/31/18:00:09.166,(0 -1 0 1 3 0 0 1)
1969/12/31/18:00:09.166,(1 -1 2 -1 0 -2 -1 -1)
1969/12/31/18:00:09.166,(-1 0 -1 1 0 -1 0 -1)
1969/12/31/18:00:09.166,(0 0 0 1 -1 1 0 0)
1969/12/31/18:00:09.181,(-7 -7 -5 -3 -3 -4 -4 -5)
1969/12/31/18:00:09.181,(-1 -3 -3 -1 0 0 0 1)
1969/12/31/18:00:09.182,(-1 -3 -4 0 -1 -1 0 -1)
1969/12/31/18:00:09.182,(1 -1 -1 -3 -1 0 1 3)
1969/12/31/18:00:09.195,(1 3 1 -1 -3 -1 1 0)
1969/12/31/18:00:09.195,(1 1 2 2 2 0 -2 -1)
1969/12/31/18:00:09.205,(-1 -1 -3 -3 -2 -2 -1 -2)
1969/12/31/18:00:09.205,(-1 -1 -1 2 1 -2 3 -3)
1969/12/31/18:00:09.220,(0 -1 1 -1 -4 -4 -7 -2)
1969/12/31/18:00:09.220,(-1 -1 -2 0 -1 0 4 -2)
1969/12/31/18:00:09.220,(2 -1 0 0 -1 -1 0 -1)
1969/12/31/18:00:09.220,(-3 -1 0 0 2 1 0 0)
1969/12/31/18:00:09.251,(-2 -4 -1 -1 -3 -3 -4 -1)
1969/12/31/18:00:09.251,(-1 1 -1 0 3 0 -9 -4)
1969/12/31/18:00:09.252,(-2 -5 -3 -3 -1 4 7 2)
1969/12/31/18:00:09.252,(-4 -3 -1 -1 -2 -2 -7 -3)
1969/12/31/18:00:09.257,(-1 1 0 1 4 2 6 1)
1969/12/31/18:00:09.257,(-1 -3 -1 -2 -1 -7 -5 0)
1969/12/31/18:00:09.267,(0 2 1 2 1 0 2 1)
1969/12/31/18:00:09.267,(-1 1 -2 -1 -1 1 -1 -1)
1969/12/31/18:00:09.282,(-1 -1 -1 -3 -1 -2 -1 -1)
1969/12/31/18:00:09.282,(-3 0 -2 -3 -5 2 4 -1)
1969/12/31/18:00:09.282,(-2 1 0 1 1 0 -4 -1)
1969/12/31/18:00:09.282,(1 -3 -3 -4 -4 -3 -1 -2)
1969/12/31/18:00:09.305,(1 1 0 -2 -1 -1 -2 -2)
1969/12/31/18:00:09.305,(1 0 -1 -2 -3 0 0 0)
1969/12/31/18:00:09.306,(-1 -2 0 -2 0 1 -1 0)
1969/12/31/18:00:09.306,(-1 -1 0 2 1 -3 -4 -1)
1969/12/31/18:00:09.320,(-1 -2 -2 0 0 1 1 -1)
1969/12/31/18:00:09.320,(0 -2 0 1 1 0 1 0)
1969/12/31/18:00:09.336,(-3 -1 0 -3 -1 -3 -5 -2)
1969/12/31/18:00:09.336,(-1 0 -1 -3 -1 0 0 -1)
1969/12/31/18:00:09.354,(1 -1 0 -1 -1 2 -1 -3)
1969/12/31/18:00:09.354,(-1 0 -1 -3 -3 -2 1 -1)
1969/12/31/18:00:09.355,(0 -1 -1 -1 1 -5 -4 1)
1969/12/31/18:00:09.355,(0 -1 -3 -2 0 6 10 3)
1969/12/31/18:00:09.367,(-1 1 1 2 -1 2 2 -2)
1969/12/31/18:00:09.367,(0 0 0 0 0 0 0 -2)
1969/12/31/18:00:09.368,(1 2 0 -1 -3 -4 -3 0)
1969/12/31/18:00:09.368,(1 -1 1 1 2 -2 1 3)
1969/12/31/18:00:09.391,(-3 -3 -4 -4 -3 -2 -2 -3)
1969/12/31/18:00:09.391,(-2 -1 -2 -3 -2 -1 -3 -1)
1969/12/31/18:00:09.392,(0 -2 0 2 0 -1 -1 -1)
1969/12/31/18:00:09.392,(-2 0 -2 0 -2 -3 -2 -1)
1969/12/31/18:00:09.406,(0 -1 -2 -3 -3 -1 -1 0)
1969/12/31/18:00:09.406,(-1 -1 1 0 0 8 0 0)
1969/12/31/18:00:09.406,(-2 0 0 -3 -4 -6 -3 -2)
1969/12/31/18:00:09.406,(-1 -1 1 0 1 -1 -3 -3)
1969/12/31/18:00:09.438,(-1 0 -2 -2 -1 -3 -4 -1)
1969/12/31/18:00:09.438,(0 0 -2 -1 -1 2 5 3)
1969/12/31/18:00:09.439,(1 0 2 2 0 4 3 1)
1969/12/31/18:00:09.439,(-1 0 -1 -2 1 -1 -5 -2)
1969/12/31/18:00:09.439,(-1 -1 0 -3 -3 -2 -2 0)
1969/12/31/18:00:09.439,(1 4 7 5 2 2 0 0)
1969/12/31/18:00:09.439,(-5 -7 -6 -3 0 -2 -3 -3)
1969/12/31/18:00:09.439,(1 -1 2 0 -1 1 0 -1)
1969/12/31/18:00:09.461,(-1 -1 -5 -3 -2 -1 -1 -2)
1969/12/31/18:00:09.461,(0 -4 -3 -1 -1 0 0 1)
1969/12/31/18:00:09.462,(2 1 3 1 0 0 1 1)
1969/12/31/18:00:09.462,(-4 -2 -6 -1 1 -2 -2 -1)
1969/12/31/18:00:09.477,(-1 -1 4 -1 -2 -2 -2 -2)
1969/12/31/18:00:09.477,(-2 -2 0 -2 -2 -1 0 -1)
1969/12/31/18:00:09.478,(0 3 2 1 1 0 0 -2)
1969/12/31/18:00:09.478,(-2 -3 -4 -2 -2 -2 -2 -2)
1969/12/31/18:00:09.501,(0 1 -2 0 0 -1 -1 -2)
1969/12/31/18:00:09.501,(-1 0 1 1 1 -1 -2 0)
1969/12/31/18:00:09.502,(0 -1 3 -1 -1 0 1 1)
1969/12/31/18:00:09.502,(0 0 1 1 0 0 0 0)
1969/12/31/18:00:09.515,(-2 -3 -4 -2 -1 -1 0 -1)
1969/12/31/18:00:09.515,(-1 0 -1 -1 -1 -1 -2 -1)
1969/12/31/18:00:09.523,(2 0 0 1 2 0 0 -1)
1969/12/31/18:00:09.523,(-2 -3 -3 -3 -3 -2 -1 -3)
1969/12/31/18:00:09.539,(0 0 -2 -2 -1 1 -1 -1)
1969/12/31/18:00:09.539,(-1 -1 -2 -4 -1 -2 0 0)
1969/12/31/18:00:09.540,(2 7 6 5 3 1 -2 2)
1969/12/31/18:00:09.540,(-3 -4 -3 -4 -3 -2 -1 -3)
1969/12/31/18:00:09.563,(-1 -4 -1 -1 1 -2 1 0)
1969/12/31/18:00:09.563,(-4 -5 0 -3 -3 -3 -4 -5)
1969/12/31/18:00:09.564,(0 0 -7 -3 0 0 0 0)
1969/12/31/18:00:09.564,(2 -1 0 -1 -2 0 -1 0)
1969/12/31/18:00:09.577,(-2 0 2 5 0 -1 -2 0)
1969/12/31/18:00:09.577,(0 1 -3 -1 1 -1 0 -1)
1969/12/31/18:00:09.586,(-1 -1 -1 -1 -3 -2 -1 -1)
1969/12/31/18:00:09.586,(-3 -1 1 0 0 0 -2 1)
1969/12/31/18:00:09.601,(1 0 -3 -4 -2 -2 -2 -3)
1969/12/31/18:00:09.601,(-2 -5 0 0 -1 1 -1 0)
1969/12/31/18:00:09.602,(-1 -4 -1 -2 -2 0 -1 -1)
1969/12/31/18:00:09.602,(0 1 -1 -1 1 0 0 0)
1969/12/31/18:00:09.625,(0 -2 1 -2 -2 0 -1 1)
1969/12/31/18:00:09.625,(0 0 -3 0 -2 -2 -2 -2)
1969/12/31/18:00:09.625,(-3 -2 -2 -3 -1 0 0 -3)
1969/12/31/18:00:09.625,(2 2 4 3 -1 0 1 2)
1969/12/31/18:00:09.639,(-3 -1 -2 1 -1 -1 -1 -3)
1969/12/31/18:00:09.639,(-1 -1 0 0 -1 -2 -2 -1)
1969/12/31/18:00:09.665,(0 0 0 1 -3 -2 0 -2)
1969/12/31/18:00:09.665,(-1 2 -2 -3 -1 0 0 0)
1969/12/31/18:00:09.666,(-1 -5 -7 -3 -1 -1 -1 -2)
1969/12/31/18:00:09.666,(0 -1 1 -1 -1 0 0 -1)
1969/12/31/18:00:09.667,(-4 -6 -5 -3 -3 -3 -4 -3)
1969/12/31/18:00:09.667,(0 1 2 3 2 -1 0 1)
1969/12/31/18:00:09.687,(0 -1 1 -2 -1 -1 0 1)
1969/12/31/18:00:09.687,(-2 -2 -3 -1 -1 0 -1 -1)
1969/12/31/18:00:09.687,(0 0 -1 -1 -2 -3 -3 -1)
1969/12/31/18:00:09.687,(-3 -5 -7 -5 -2 -2 -2 -1)
1969/12/31/18:00:09.701,(0 1 2 1 0 -1 0 1)
1969/12/31/18:00:09.701,(-1 -4 -4 -4 -2 0 0 0)
1969/12/31/18:00:09.710,(0 0 1 0 0 0 0 1)
1969/12/31/18:00:09.710,(0 -1 0 1 -1 0 -1 -2)
1969/12/31/18:00:09.725,(-3 -3 -5 -4 -1 -2 -3 -1)
1969/12/31/18:00:09.725,(2 2 1 1 -1 -1 -1 0)
1969/12/31/18:00:09.726,(1 -1 -1 -1 -1 0 0 0)
1969/12/31/18:00:09.726,(0 1 3 0 -1 -1 1 -2)
1969/12/31/18:00:09.749,(-2 -3 2 0 -3 0 -1 -1)
1969/12/31/18:00:09.749,(2 5 -6 -1 0 1 -1 -2)
1969/12/31/18:00:09.749,(-2 -3 -1 -3 -5 -1 -3 -2)
1969/12/31/18:00:09.749,(1 -4 -3 -3 0 1 -1 1)
1969/12/31/18:00:09.780,(2 4 5 5 0 0 0 -2)
1969/12/31/18:00:09.780,(-3 -3 -2 -1 0 -2 -2 -2)
1969/12/31/18:00:09.781,(-1 -3 -1 1 0 -1 -1 2)
1969/12/31/18:00:09.781,(0 -2 0 -2 -2 1 -1 -1)
1969/12/31/18:00:09.787,(0 2 0 0 0 -2 -1 -1)
1969/12/31/18:00:09.787,(-1 0 2 0 -1 0 -1 -1)
1969/12/31/18:00:09.788,(-2 1 0 1 2 1 -1 0)
1969/12/31/18:00:09.788,(-3 -2 -5 -2 -2 -3 -2 0)
1969/12/31/18:00:09.811,(-1 -4 -6 -4 1 -1 0 -1)
1969/12/31/18:00:09.811,(1 3 1 2 0 -2 -1 0)
1969/12/31/18:00:09.811,(-1 -2 -3 -1 1 -1 0 -1)
1969/12/31/18:00:09.811,(-1 -3 0 -1 -1 0 0 -2)
1969/12/31/18:00:09.827,(-1 0 -2 -4 -3 -1 -2 -1)
1969/12/31/18:00:09.827,(-2 -2 -2 -5 -2 -2 -1 -2)
1969/12/31/18:00:09.834,(1 1 5 4 0 -2 0 -2)
1969/12/31/18:00:09.834,(1 0 -2 1 0 1 0 0)
1969/12/31/18:00:09.858,(-1 -1 -1 1 2 2 1 -1)
1969/12/31/18:00:09.858,(0 -3 -2 0 -2 -2 -1 0)
1969/12/31/18:00:09.859,(-3 -2 -2 -8 -3 -2 -2 -1)
1969/12/31/18:00:09.859,(0 -1 -7 -3 -2 -4 -3 -3)
1969/12/31/18:00:09.873,(-2 2 13 8 3 1 1 3)
1969/12/31/18:00:09.873,(-1 -2 -6 -8 -6 -5 -4 -2)
1969/12/31/18:00:09.873,(4 8 5 8 4 3 2 1)
1969/12/31/18:00:09.873,(0 2 4 7 1 2 1 1)
1969/12/31/18:00:09.888,(-2 -2 -11 -11 -5 -3 -1 -2)
1969/12/31/18:00:09.888,(-7 -13 -5 -19 -5 -1 -1 -2)
1969/12/31/18:00:09.896,(-2 0 -11 -8 -5 -3 -2 -2)
1969/12/31/18:00:09.896,(4 6 10 15 7 1 1 2)
1969/12/31/18:00:09.912,(-2 -4 5 12 4 2 -1 -1)
1969/12/31/18:00:09.912,(-5 -17 -4 -14 -5 1 2 2)
1969/12/31/18:00:09.913,(1 8 -25 -17 -11 -7 -8 -8)
1969/12/31/18:00:09.913,(0 14 30 -5 0 1 0 -1)
1969/12/31/18:00:09.935,(0 -6 -6 11 -4 -2 -3 0)
1969/12/31/18:00:09.935,(0 7 -1 -2 1 0 0 1)
1969/12/31/18:00:09.935,(-5 -13 1 5 3 2 0 3)
1969/12/31/18:00:09.935,(3 5 9 27 7 2 2 1)
1969/12/31/18:00:09.958,(1 9 0 -5 -1 1 0 0)
1969/12/31/18:00:09.958,(-4 -2 -10 2 0 1 -1 -4)
1969/12/31/18:00:09.959,(-3 -14 -2 -9 -5 -2 -2 -3)
1969/12/31/18:00:09.959,(-13 -22 -23 -22 -8 -3 -3 -2)
1969/12/31/18:00:09.974,(4 20 -3 -23 -4 -1 1 -2)
1969/12/31/18:00:09.974,(-18 -77 -53 -11 -8 -5 -4 -3)
1969/12/31/18:00:09.975,(40 101 100 67 27 9 6 8)
1969/12/31/18:00:09.975,(-11 -55 -35 -16 -10 -5 -4 -5)
1969/12/31/18:00:10.013,(1 20 33 25 2 -3 2 -1)
1969/12/31/18:00:10.013,(8 39 37 39 9 2 -5 -2)
1969/12/31/18:00:10.014,(-13 -30 -28 -23 -3 2 -1 -7)
1969/12/31/18:00:10.014,(1 -2 -15 -16 -3 -3 -2 1)
1969/12/31/18:00:10.020,(0 11 30 8 2 3 3 -2)
1969/12/31/18:00:10.020,(-3 -6 -11 -37 -9 -6 -2 -2)
1969/12/31/18:00:10.021,(-5 -6 16 34 5 0 2 4)
1969/12/31/18:00:10.021,(9 22 23 19 10 3 1 3)
1969/12/31/18:00:10.036,(-13 -44 -61 -61 -18 -7 -6 -2)
1969/12/31/18:00:10.036,(3 14 4 25 8 -1 0 -1)
1969/12/31/18:00:10.037,(-3 -9 19 23 6 2 1 1)
1969/12/31/18:00:10.037,(-2 0 -23 -16 -8 -4 -2 -2)
1969/12/31/18:00:10.060,(2 -1 9 8 3 2 -2 0)
1969/12/31/18:00:10.060,(6 21 13 0 3 2 1 1)
1969/12/31/18:00:10.060,(-11 -27 -47 -57 -19 -7 -4 -6)
1969/12/31/18:00:10.060,(0 10 4 20 5 0 -1 -1)
1969/12/31/18:00:10.082,(-6 -19 -12 -6 -8 -4 -4 -4)
1969/12/31/18:00:10.082,(-2 -3 -17 -39 -10 -2 -2 -1)
1969/12/31/18:00:10.083,(9 12 33 61 23 10 6 9)
1969/12/31/18:00:10.083,(2 23 17 9 3 2 -1 -1)
1969/12/31/18:00:10.098,(-3 -13 -22 -1 -1 0 -2 -1)
1969/12/31/18:00:10.098,(-3 6 4 6 -1 -2 -2 -2)
1969/12/31/18:00:10.099,(-8 -16 -35 -36 -14 -7 -4 -5)
1969/12/31/18:00:10.099,(0 0 7 -2 -2 -1 0 -2)
1969/12/31/18:00:10.121,(0 -4 1 1 2 0 0 -1)
1969/12/31/18:00:10.121,(2 5 -1 5 2 1 -1 0)
1969/12/31/18:00:10.129,(-8 -8 -6 -12 -6 -4 -3 -4)
1969/12/31/18:00:10.129,(0 2 -5 -5 -3 -3 -2 -2)
1969/12/31/18:00:10.146,(0 -4 -8 -1 -1 -2 -1 2)
1969/12/31/18:00:10.146,(2 0 10 13 3 1 0 1)
1969/12/31/18:00:10.147,(-3 0 -8 -9 -3 -2 -2 -2)
1969/12/31/18:00:10.147,(-2 -12 -8 -7 -3 -3 0 -1)
1969/12/31/18:00:10.160,(1 6 1 4 3 1 -1 0)
1969/12/31/18:00:10.160,(3 5 9 10 3 1 -1 -3)
1969/12/31/18:00:10.161,(-4 -7 -7 -9 -5 -1 -1 0)
1969/12/31/18:00:10.161,(-2 -2 -6 -7 -6 -6 -4 -1)
1969/12/31/18:00:10.184,(-3 4 6 3 3 5 4 -4)
1969/12/31/18:00:10.184,(4 2 3 6 -2 -8 -13 0)
1969/12/31/18:00:10.184,(-2 -8 -11 -10 -3 7 5 3)
1969/12/31/18:00:10.184,(-13 -5 1 -2 0 0 -4 -12)
1969/12/31/18:00:10.207,(0 4 1 4 1 -5 -3 -9)
1969/12/31/18:00:10.207,(16 -1 -1 1 4 21 13 28)
1969/12/31/18:00:10.208,(10 2 -3 -6 -7 -25 7 -3)
1969/12/31/18:00:10.208,(-23 -2 3 1 -1 0 -1 -13)
1969/12/31/18:00:10.222,(15 -4 1 1 1 2 3 13)
1969/12/31/18:00:10.222,(-10 -4 0 -2 -2 -3 -7 -24)
1969/12/31/18:00:10.223,(16 0 -3 -4 -3 -5 -7 28)
1969/12/31/18:00:10.223,(-5 -7 -5 -6 -2 -15 -12 -34)
1969/12/31/18:00:10.246,(9 0 -6 -7 -4 21 7 41)
1969/12/31/18:00:10.246,(1 8 7 12 7 12 5 -10)
1969/12/31/18:00:10.246,(13 1 -3 -3 6 7 12 8)
1969/12/31/18:00:10.246,(-32 -10 -4 -3 -11 5 -15 -26)
1969/12/31/18:00:10.270,(41 5 -4 -8 -23 -11 -5 21)
1969/12/31/18:00:10.270,(-88 -28 2 5 30 -15 -17 -35)
1969/12/31/18:00:10.271,(25 3 -6 -10 -26 4 28 4)
1969/12/31/18:00:10.271,(-6 0 -1 6 -1 -13 -47 0)
1969/12/31/18:00:10.284,(9 1 1 3 -1 12 14 -2)
1969/12/31/18:00:10.284,(48 42 18 7 -4 -18 5 54)
1969/12/31/18:00:10.285,(3 -24 -15 -12 -5 6 23 -5)
1969/12/31/18:00:10.285,(0 -12 -7 -10 -1 12 -4 13)
1969/12/31/18:00:10.308,(-55 -28 -7 -4 0 -2 -11 -27)
1969/12/31/18:00:10.308,(-23 1 8 5 -5 -19 -14 -31)
1969/12/31/18:00:10.308,(5 10 -3 -2 -6 -23 -12 6)
1969/12/31/18:00:10.308,(17 -8 -4 -6 -2 9 11 11)
1969/12/31/18:00:10.332,(40 21 5 6 8 -27 32 11)
1969/12/31/18:00:10.332,(-35 -16 -2 -4 -8 -2 -1 -41)
1969/12/31/18:00:10.333,(-19 2 -1 6 31 78 24 -9)
1969/12/31/18:00:10.333,(1 9 6 3 -1 4 9 12)
1969/12/31/18:00:10.346,(2 -16 -14 -3 1 -21 -24 3)
1969/12/31/18:00:10.346,(3 -12 -5 -2 -2 -12 1 -24)
1969/12/31/18:00:10.347,(-13 0 -1 -2 -13 -18 -19 -12)
1969/12/31/18:00:10.347,(23 10 8 -2 2 9 53 38)
1969/12/31/18:00:10.370,(16 -7 -5 3 18 25 -30 7)
1969/12/31/18:00:10.370,(21 14 1 -2 -7 -27 -3 19)
1969/12/31/18:00:10.370,(25 -22 -11 0 2 25 -11 40)
1969/12/31/18:00:10.370,(10 18 2 0 6 -11 -10 -9)
1969/12/31/18:00:10.401,(-69 -30 -4 -3 -3 -10 7 -8)
1969/12/31/18:00:10.401,(34 16 -8 -8 -2 27 -5 26)
1969/12/31/18:00:10.402,(-37 5 15 15 20 15 17 -28)
1969/12/31/18:00:10.402,(-20 -35 -10 -8 -5 -38 -28 -23)
1969/12/31/18:00:10.410,(45 42 9 4 -1 -9 44 25)
1969/12/31/18:00:10.410,(-62 -37 0 9 8 3 -40 -55)
1969/12/31/18:00:10.411,(48 18 2 -6 -8 -14 -10 43)
1969/12/31/18:00:10.411,(5 -5 -3 1 -4 22 10 5)
1969/12/31/18:00:10.432,(0 24 2 -1 -4 -24 -16 -38)
1969/12/31/18:00:10.432,(-30 -19 -7 -9 -15 7 39 10)
1969/12/31/18:00:10.432,(-23 5 10 5 3 -31 -29 -23)
1969/12/31/18:00:10.432,(37 32 5 3 -1 -4 -1 22)
1969/12/31/18:00:10.456,(-50 -63 -13 -9 -2 38 -17 -45)
1969/12/31/18:00:10.456,(6 -17 -12 -4 -2 13 20 27)
1969/12/31/18:00:10.457,(15 3 2 -2 -5 13 -5 -12)
1969/12/31/18:00:10.457,(43 33 5 3 3 -8 0 66)
1969/12/31/18:00:10.471,(32 22 9 -1 -1 14 33 35)
1969/12/31/18:00:10.471,(-8 -17 -15 -12 -9 -18 5 -12)
1969/12/31/18:00:10.472,(-13 0 10 7 1 5 -27 0)
1969/12/31/18:00:10.472,(-51 -32 -22 -10 -1 -2 -18 -63)
1969/12/31/18:00:10.494,(-5 11 5 2 -1 0 -9 6)
1969/12/31/18:00:10.494,(20 3 7 4 7 23 14 26)
1969/12/31/18:00:10.494,(-13 5 -4 -3 -4 -30 -18 -34)
1969/12/31/18:00:10.494,(-27 5 -10 -13 -12 17 16 -20)
1969/12/31/18:00:10.518,(22 3 17 14 9 -28 -8 45)
1969/12/31/18:00:10.518,(34 8 -5 -2 1 14 14 21)
1969/12/31/18:00:10.518,(38 2 -1 -3 -5 4 6 28)
1969/12/31/18:00:10.518,(-22 -3 6 8 8 8 4 20)
1969/12/31/18:00:10.533,(-5 20 -5 -7 -6 10 -16 -47)
1969/12/31/18:00:10.533,(-2 22 11 4 1 -5 -6 -4)
1969/12/31/18:00:10.541,(-48 -62 -35 -19 -18 -58 -65 -53)
1969/12/31/18:00:10.541,(-16 -20 -5 -3 -2 8 7 -56)
1969/12/31/18:00:10.557,(1 23 12 3 4 -3 -4 2)
1969/12/31/18:00:10.557,(-6 -17 -9 0 -2 25 30 -10)
1969/12/31/18:00:10.557,(-17 7 0 -2 -1 -5 9 6)
1969/12/31/18:00:10.557,(-17 -10 7 7 3 -15 -3 -16)
1969/12/31/18:00:10.580,(-28 4 -3 -2 1 -4 -16 -33)
1969/12/31/18:00:10.580,(32 17 -4 -7 -12 -9 18 -9)
1969/12/31/18:00:10.581,(-26 0 4 4 19 25 29 3)
1969/12/31/18:00:10.581,(-5 -20 -4 -3 -18 -33 -9 31)
1969/12/31/18:00:10.594,(-39 2 5 3 -4 -2 13 -63)
1969/12/31/18:00:10.594,(7 -14 -8 -7 2 20 -25 55)
1969/12/31/18:00:10.603,(-3 10 5 1 -3 -9 -7 -26)
1969/12/31/18:00:10.603,(-30 3 10 8 12 6 -13 -39)
1969/12/31/18:00:10.619,(-43 -12 -10 -4 16 14 26 6)
1969/12/31/18:00:10.619,(-10 -12 -9 -10 -31 -20 -2 -10)
1969/12/31/18:00:10.619,(-6 22 8 4 -4 -14 -18 -22)
1969/12/31/18:00:10.619,(26 -9 3 1 -5 8 7 21)
1969/12/31/18:00:10.642,(-52 -39 -15 -6 -5 -1 -19 -61)
1969/12/31/18:00:10.642,(22 26 8 5 10 1 -5 -1)
1969/12/31/18:00:10.644,(-12 22 20 15 17 28 19 13)
1969/12/31/18:00:10.644,(-52 -23 -21 -18 -19 -29 -22 -67)
1969/12/31/18:00:10.657,(-43 -2 7 5 -1 -8 -12 -2)
1969/12/31/18:00:10.657,(35 5 -6 -2 -2 -7 -31 -36)
1969/12/31/18:00:10.665,(7 6 9 6 8 -3 1 -8)
1969/12/31/18:00:10.665,(41 8 -4 -2 -5 11 39 57)
1969/12/31/18:00:10.681,(-22 -11 -6 -1 -4 -5 -24 3)
1969/12/31/18:00:10.681,(8 -14 -8 -4 -7 0 -17 -21)
1969/12/31/18:00:10.681,(59 12 -2 -5 -13 -6 25 77)
1969/12/31/18:00:10.681,(0 11 8 5 2 0 -9 12)
1969/12/31/18:00:10.705,(48 0 -5 -5 0 16 8 -14)
1969/12/31/18:00:10.705,(-18 4 -1 -2 3 -8 25 -2)
1969/12/31/18:00:10.706,(21 -15 -9 -4 -1 -2 5 68)
1969/12/31/18:00:10.706,(-56 -8 -6 -3 13 18 -1 -11)
1969/12/31/18:00:10.719,(3 -2 -3 -7 -26 -40 12 50)
1969/12/31/18:00:10.719,(80 12 -3 0 7 25 24 36)
1969/12/31/18:00:10.727,(-39 -15 -4 -2 -7 -15 -12 -53)
1969/12/31/18:00:10.727,(37 29 12 4 4 -6 3 9)
1969/12/31/18:00:10.743,(8 -1 -1 3 12 21 -5 17)
1969/12/31/18:00:10.743,(-17 -27 -12 -4 0 7 -13 1)
1969/12/31/18:00:10.743,(8 -6 -12 -11 -8 -14 18 6)
1969/12/31/18:00:10.743,(55 4 -4 -6 -2 17 11 33)
1969/12/31/18:00:10.767,(39 18 7 6 13 32 -2 15)
1969/12/31/18:00:10.767,(29 22 11 4 -26 -61 -4 49)
1969/12/31/18:00:10.768,(-40 -8 1 1 6 25 5 -24)
1969/12/31/18:00:10.768,(5 13 0 0 0 3 -5 -28)
1969/12/31/18:00:10.780,(12 -12 0 -4 -7 7 4 10)
1969/12/31/18:00:10.780,(-48 -15 0 -1 21 2 -10 -26)
1969/12/31/18:00:10.789,(15 -4 -6 -2 -3 -3 -40 -38)
1969/12/31/18:00:10.789,(74 24 11 6 0 28 30 41)
1969/12/31/18:00:10.805,(-19 -12 -12 -9 -3 -4 16 3)
1969/12/31/18:00:10.805,(-39 16 7 -2 -3 2 13 -34)
1969/12/31/18:00:10.805,(-10 -10 -3 -1 11 1 -40 -17)
1969/12/31/18:00:10.805,(-7 -4 0 -2 -5 -27 -11 -4)
1969/12/31/18:00:10.829,(60 40 11 4 2 -12 -8 8)
1969/12/31/18:00:10.829,(-23 -46 -13 -4 24 24 22 23)
1969/12/31/18:00:10.830,(7 9 -1 -4 -22 40 28 1)
1969/12/31/18:00:10.830,(14 -8 -7 -5 12 -2 -11 9)
1969/12/31/18:00:10.843,(-45 -12 4 3 -21 -55 -43 -13)
1969/12/31/18:00:10.843,(-3 15 9 9 -3 6 -4 -24)
1969/12/31/18:00:10.852,(16 16 3 0 -5 0 22 -19)
1969/12/31/18:00:10.852,(-6 -11 -6 1 9 -3 -17 -4)
1969/12/31/18:00:10.875,(47 19 4 4 7 19 -3 13)
1969/12/31/18:00:10.875,(-36 -6 -3 -3 6 -4 2 -29)
1969/12/31/18:00:10.876,(-60 -13 -6 -1 -12 -23 -21 -60)
1969/12/31/18:00:10.876,(48 10 4 -4 -24 -9 58 51)
1969/12/31/18:00:10.891,(-14 -31 -17 -4 3 -12 -45 3)
1969/12/31/18:00:10.891,(10 19 8 16 61 15 -18 -1)
1969/12/31/18:00:10.892,(-24 -16 -3 -13 -35 -29 -11 2)
1969/12/31/18:00:10.892,(-37 -24 -21 -24 -28 -27 -11 -21)
1969/12/31/18:00:10.915,(45 -19 -29 -15 -4 30 36 40)
1969/12/31/18:00:10.915,(-61 -26 -22 -2 17 4 -8 16)
1969/12/31/18:00:10.915,(1 64 69 26 25 2 -2 22)
1969/12/31/18:00:10.915,(-8 -22 15 26 -4 -17 -4 -16)
1969/12/31/18:00:10.929,(16 0 -23 -16 -1 17 -2 -16)
1969/12/31/18:00:10.929,(-13 -46 -73 -32 -31 -15 -12 -11)
1969/12/31/18:00:10.929,(12 57 42 10 8 20 26 41)
1969/12/31/18:00:10.929,(29 23 68 36 24 17 -16 15)
1969/12/31/18:00:10.953,(-34 13 14 4 1 1 10 -9)
1969/12/31/18:00:10.953,(8 -28 -10 6 -3 -9 -1 11)
1969/12/31/18:00:10.953,(14 -121 -124 -54 -39 -24 -6 -19)
1969/12/31/18:00:10.953,(-1 64 2 -21 -8 -14 -9 22)
1969/12/31/18:00:10.976,(-10 56 52 18 13 -7 -7 -22)
1969/12/31/18:00:10.976,(-12 -68 -50 -26 -22 -24 -15 -10)
1969/12/31/18:00:10.977,(22 45 91 49 37 41 26 30)
1969/12/31/18:00:10.977,(29 22 -10 1 20 3 -15 -15)
1969/12/31/18:00:10.991,(6 -33 -79 -45 -45 -12 6 2)
1969/12/31/18:00:10.991,(-27 1 71 33 -4 -18 -13 -3)
1969/12/31/18:00:10.992,(-19 -105 -110 -20 26 23 -9 -22)
1969/12/31/18:00:10.992,(11 7 -6 -23 -27 6 25 -7)
1969/12/31/18:00:11.015,(-71 100 57 25 44 -21 -18 -49)
1969/12/31/18:00:11.015,(16 110 106 59 -30 7 -4 1)
1969/12/31/18:00:11.016,(-27 -35 -88 -32 -6 14 7 8)
1969/12/31/18:00:11.016,(1 38 66 26 16 5 5 18)
1969/12/31/18:00:11.038,(-43 -128 -92 -54 -6 18 -6 -32)
1969/12/31/18:00:11.038,(-43 22 -64 -36 -6 -5 2 -27)
1969/12/31/18:00:11.039,(49 40 58 72 1 -32 -19 5)
1969/12/31/18:00:11.039,(23 -109 -128 -72 -25 0 8 45)
1969/12/31/18:00:11.053,(86 113 127 77 3 -3 20 62)
1969/12/31/18:00:11.053,(-16 -67 -45 -18 7 8 12 27)
1969/12/31/18:00:11.053,(12 -65 -56 -36 -18 -21 -1 -10)
1969/12/31/18:00:11.053,(-63 -85 -102 -37 -11 -48 -55 -116)
1969/12/31/18:00:11.077,(7 -27 -15 13 7 14 11 14)
1969/12/31/18:00:11.077,(65 105 17 -8 2 31 16 23)
1969/12/31/18:00:11.078,(19 110 119 57 40 42 37 0)
1969/12/31/18:00:11.078,(5 -58 -53 -3 -36 -61 -36 7)
1969/12/31/18:00:11.100,(-3 -123 -104 -27 2 2 -2 7)
1969/12/31/18:00:11.101,(-10 -15 24 4 -5 -16 -15 -29)
1969/12/31/18:00:11.102,(-61 2 -72 -47 -16 22 6 -6)
1969/12/31/18:00:11.102,(10 44 64 45 27 5 -2 -36)
1969/12/31/18:00:11.116,(40 -83 -81 -40 0 -2 -11 20)
1969/12/31/18:00:11.116,(85 67 71 61 49 49 43 15)
1969/12/31/18:00:11.116,(34 -128 -128 -75 -47 -37 -20 71)
1969/12/31/18:00:11.116,(13 124 127 76 27 67 45 43)
1969/12/31/18:00:11.139,(16 71 45 29 0 -6 1 -7)
1969/12/31/18:00:11.139,(41 -96 -52 -33 -18 -2 -9 38)
1969/12/31/18:00:11.140,(-5 -9 33 17 35 11 3 -23)
1969/12/31/18:00:11.140,(-64 -91 -68 -24 -21 -35 -13 2)
1969/12/31/18:00:11.162,(-31 -69 -39 -32 -33 -1 0 -11)
1969/12/31/18:00:11.163,(43 51 -52 -11 12 11 19 87)
1969/12/31/18:00:11.163,(36 98 105 85 64 24 12 -2)
1969/12/31/18:00:11.163,(-50 -44 -8 -1 -20 33 -18 -53)
1969/12/31/18:00:11.178,(26 3 -29 2 -1 -6 29 25)
1969/12/31/18:00:11.178,(-40 -43 20 -1 -7 -6 -2 -22)
1969/12/31/18:00:11.178,(-45 -120 -100 -51 4 -23 -19 -10)
1969/12/31/18:00:11.178,(5 76 28 -10 -3 42 5 -14)
1969/12/31/18:00:11.201,(-24 69 42 33 34 2 17 0)
1969/12/31/18:00:11.201,(63 58 38 19 -6 11 -7 22)
1969/12/31/18:00:11.203,(-39 -26 -22 -32 -40 -8 5 -12)
1969/12/31/18:00:11.203,(-13 -7 10 16 25 -1 1 -20)
1969/12/31/18:00:11.224,(-24 -111 -94 -41 -10 -22 -2 -8)
1969/12/31/18:00:11.224,(-59 62 75 24 33 37 -11 -46)
1969/12/31/18:00:11.226,(-3 36 20 8 5 -1 -18 -14)
1969/12/31/18:00:11.226,(-5 -85 -71 -33 -26 -40 -20 -22)
1969/12/31/18:00:11.239,(-6 63 37 21 4 24 21 8)
1969/12/31/18:00:11.239,(-93 -58 -13 -8 -20 -23 -12 -49)
1969/12/31/18:00:11.248,(10 0 10 0 -13 -40 -26 -16)
1969/12/31/18:00:11.248,(-35 -76 -53 -19 23 31 15 5)
1969/12/31/18:00:11.265,(-19 -13 -51 -23 -31 -3 -8 -18)
1969/12/31/18:00:11.265,(-19 52 27 12 -20 -46 -26 -54)
1969/12/31/18:00:11.267,(28 127 118 38 20 3 2 -10)
1969/12/31/18:00:11.267,(-4 -49 -39 -3 -26 -22 4 30)
1969/12/31/18:00:11.286,(52 -37 -6 6 5 -8 1 13)
1969/12/31/18:00:11.286,(11 -110 -91 -36 -7 -7 -10 8)
1969/12/31/18:00:11.288,(35 -71 -47 -8 33 3 17 42)
1969/12/31/18:00:11.288,(16 114 73 5 -27 0 -6 -8)
1969/12/31/18:00:11.301,(53 90 113 51 23 3 -7 10)
1969/12/31/18:00:11.301,(14 -24 -23 -4 -34 -15 -26 -12)
1969/12/31/18:00:11.310,(-7 -47 -58 -15 15 8 -11 -14)
1969/12/31/18:00:11.310,(15 -23 -11 6 17 3 9 13)
1969/12/31/18:00:11.326,(12 81 101 36 19 14 6 3)
1969/12/31/18:00:11.326,(-8 -37 -45 -19 -28 -58 -3 -3)
1969/12/31/18:00:11.328,(-36 -101 -88 -42 -40 29 20 35)
1969/12/31/18:00:11.328,(24 66 44 19 39 -3 -19 -3)
1969/12/31/18:00:11.350,(-16 100 102 35 -15 -13 5 -11)
1969/12/31/18:00:11.350,(-7 -51 -44 3 18 33 16 -4)
1969/12/31/18:00:11.351,(1 15 23 15 10 -7 -2 -9)
1969/12/31/18:00:11.351,(-37 -85 -98 -28 -20 34 1 -37)
1969/12/31/18:00:11.363,(-6 24 25 5 16 10 11 48)
1969/12/31/18:00:11.363,(24 -6 -64 -27 -10 3 -11 -23)
1969/12/31/18:00:11.372,(6 114 95 58 2 -14 18 11)
1969/12/31/18:00:11.372,(82 -41 -55 -11 9 11 -8 13)
1969/12/31/18:00:11.388,(-41 -100 -81 -30 -13 -18 -1 -11)
1969/12/31/18:00:11.388,(11 -28 -28 -20 10 25 -8 6)
1969/12/31/18:00:11.390,(6 -66 -90 -36 -18 -29 -13 -8)
1969/12/31/18:00:11.390,(7 127 127 62 49 21 2 9)
1969/12/31/18:00:11.411,(-24 -30 -4 -1 -15 -2 1 -2)
1969/12/31/18:00:11.411,(77 -43 -66 -27 15 5 5 62)
1969/12/31/18:00:11.413,(7 92 106 26 -22 0 5 -4)
1969/12/31/18:00:11.413,(3 63 74 31 5 -11 8 11)
1969/12/31/18:00:11.425,(1 -123 -107 -20 2 8 -13 -29)
1969/12/31/18:00:11.425,(-38 74 57 5 -3 -3 7 -23)
1969/12/31/18:00:11.434,(20 -64 -52 -8 25 34 -13 -14)
1969/12/31/18:00:11.434,(-39 -78 -128 -79 -30 -18 -11 16)
1969/12/31/18:00:11.450,(-11 77 119 60 20 -1 4 -11)
1969/12/31/18:00:11.450,(-11 3 25 7 -7 -14 12 16)
1969/12/31/18:00:11.451,(1 -28 -17 -4 -15 -11 -1 0)
1969/12/31/18:00:11.451,(-14 -21 -14 3 26 33 -6 -12)
1969/12/31/18:00:11.473,(-13 -79 -83 -54 -39 -30 -16 -8)
1969/12/31/18:00:11.473,(-14 -73 -44 -13 -23 -10 -4 -22)
1969/12/31/18:00:11.475,(-20 96 53 -4 -4 11 11 -18)
1969/12/31/18:00:11.475,(24 -19 -29 18 15 -2 8 28)
1969/12/31/18:00:11.487,(-1 69 68 8 -2 3 -18 -15)
1969/12/31/18:00:11.487,(-15 5 12 12 3 -5 19 12)
1969/12/31/18:00:11.497,(-10 -18 -20 -17 -9 -9 -22 -23)
1969/12/31/18:00:11.497,(-38 -48 -13 -4 -9 -20 10 6)
1969/12/31/18:00:11.512,(7 -3 -28 -12 13 14 -4 -11)
1969/12/31/18:00:11.512,(23 -28 -5 22 11 -2 -4 15)
1969/12/31/18:00:11.514,(27 50 45 3 -27 -19 -7 -35)
1969/12/31/18:00:11.514,(28 -30 -23 -19 -19 -29 12 18)
1969/12/31/18:00:11.535,(-24 7 -1 -4 21 31 -19 -6)
1969/12/31/18:00:11.535,(17 -19 12 6 -11 6 0 28)
1969/12/31/18:00:11.537,(25 95 76 13 -23 -41 -8 18)
1969/12/31/18:00:11.537,(-16 -59 -19 3 15 10 2 -11)
1969/12/31/18:00:11.549,(-13 3 -22 -18 -15 -7 -7 -43)
1969/12/31/18:00:11.549,(-40 -28 1 0 -11 -7 7 23)
1969/12/31/18:00:11.559,(27 -12 -19 -6 4 -1 -3 16)
1969/12/31/18:00:11.559,(11 -15 -26 -21 -27 1 2 5)
1969/12/31/18:00:11.574,(19 -13 -6 0 19 -21 5 16)
1969/12/31/18:00:11.574,(10 7 -12 4 16 41 15 -1)
1969/12/31/18:00:11.576,(6 62 40 11 -3 -6 -15 -30)
1969/12/31/18:00:11.576,(13 -12 4 0 1 -17 6 36)
1969/12/31/18:00:11.597,(-18 -53 -59 -19 -1 5 2 -9)
1969/12/31/18:00:11.597,(8 -12 -10 -12 -21 -45 -13 -9)
1969/12/31/18:00:11.599,(-33 -125 -126 -43 -9 14 0 -11)
1969/12/31/18:00:11.599,(59 115 109 87 67 58 28 23)
1969/12/31/18:00:11.611,(20 -44 -27 3 -45 -27 -9 9)
1969/12/31/18:00:11.611,(-5 28 9 2 -17 -15 -9 -41)
1969/12/31/18:00:11.621,(-4 -65 -31 -3 2 -15 20 52)
1969/12/31/18:00:11.621,(-46 -20 -27 -26 3 26 -11 -10)
1969/12/31/18:00:11.636,(12 -65 -37 -10 5 -4 2 -5)
1969/12/31/18:00:11.636,(13 87 51 17 19 24 -5 -29)
1969/12/31/18:00:11.638,(-36 -102 -55 -7 1 -4 10 13)
1969/12/31/18:00:11.638,(13 89 41 -8 -46 -27 -20 -28)
1969/12/31/18:00:11.659,(16 47 58 28 38 47 30 21)
1969/12/31/18:00:11.659,(14 -63 -77 -39 -17 -25 -11 34)
1969/12/31/18:00:11.661,(-83 1 13 18 1 -29 -34 -99)
1969/12/31/18:00:11.661,(-41 -23 18 14 20 -9 -24 -83)
1969/12/31/18:00:11.674,(-16 -103 -97 -47 -44 -26 -9 0)
1969/12/31/18:00:11.674,(6 101 76 23 12 1 -2 2)
1969/12/31/18:00:11.683,(40 26 -8 -2 1 12 14 41)
1969/12/31/18:00:11.683,(-23 -34 -11 9 3 -20 4 26)
1969/12/31/18:00:11.697,(-12 30 26 11 2 -6 -9 -26)
1969/12/31/18:00:11.697,(-30 -34 -12 0 32 35 8 -17)
1969/12/31/18:00:11.705,(7 -74 -84 -40 -36 -19 -9 4)
1969/12/31/18:00:11.705,(34 67 60 25 -17 -13 16 31)
1969/12/31/18:00:11.721,(1 94 95 47 28 34 -4 -5)
1969/12/31/18:00:11.721,(-6 -31 -19 0 1 5 14 -1)
1969/12/31/18:00:11.723,(-2 -48 -24 -8 -2 -1 -11 5)
1969/12/31/18:00:11.723,(-29 -49 -56 -23 -20 -5 -13 -31)
1969/12/31/18:00:11.736,(33 46 24 7 -8 -33 -1 -24)
1969/12/31/18:00:11.736,(56 45 27 22 11 10 26 44)
1969/12/31/18:00:11.745,(-114 -31 10 -6 -9 -32 -18 -47)
1969/12/31/18:00:11.745,(-3 -73 -55 -36 -9 27 -17 -28)
1969/12/31/18:00:11.759,(-33 -11 -19 -15 -21 -30 -7 2)
1969/12/31/18:00:11.759,(27 -36 -23 -1 11 10 -3 48)
1969/12/31/18:00:11.767,(58 86 69 33 30 29 28 52)
1969/12/31/18:00:11.767,(2 13 -1 -3 -12 -15 0 7)
1969/12/31/18:00:11.783,(-63 6 -17 0 14 0 3 -10)
1969/12/31/18:00:11.784,(0 -32 19 3 15 6 -8 -5)
1969/12/31/18:00:11.785,(37 8 -33 -11 -28 18 7 15)
1969/12/31/18:00:11.785,(-2 -26 3 -4 -5 -35 -9 6)
1969/12/31/18:00:11.798,(41 73 45 13 15 12 11 31)
1969/12/31/18:00:11.798,(-59 -42 -29 -11 -24 -26 -8 -20)
1969/12/31/18:00:11.807,(-37 -18 -28 -7 20 18 -17 -69)
1969/12/31/18:00:11.807,(-2 -1 -2 -26 -41 -12 -3 -2)
1969/12/31/18:00:11.823,(-62 -103 -46 -10 11 18 6 -8)
1969/12/31/18:00:11.823,(39 66 18 3 0 -19 -5 -16)
1969/12/31/18:00:11.829,(43 57 38 10 0 13 -9 37)
1969/12/31/18:00:11.829,(-45 -41 -22 0 20 23 9 -32)
1969/12/31/18:00:11.845,(15 -45 -44 -17 -6 -8 -6 -2)
1969/12/31/18:00:11.845,(26 -50 -69 -36 -11 1 -6 14)
1969/12/31/18:00:11.847,(22 80 102 72 38 4 0 -4)
1969/12/31/18:00:11.847,(19 17 -7 12 -4 2 15 29)
1969/12/31/18:00:11.869,(13 -37 -20 -8 -17 -12 -10 3)
1969/12/31/18:00:11.869,(-51 -50 -54 -30 -22 -31 -18 -46)
1969/12/31/18:00:11.870,(21 24 21 8 12 27 9 20)
1969/12/31/18:00:11.870,(-16 -4 -10 12 33 4 4 -13)
1969/12/31/18:00:11.884,(33 57 34 -18 -29 27 30 77)
1969/12/31/18:00:11.884,(40 7 5 0 -11 -27 -19 -23)
1969/12/31/18:00:11.891,(-52 -17 -5 -14 -18 -15 -9 -23)
1969/12/31/18:00:11.891,(-16 -18 -14 -3 22 -3 12 10)
1969/12/31/18:00:11.907,(-4 23 11 11 4 -14 -6 -8)
1969/12/31/18:00:11.907,(-40 4 22 11 5 24 3 14)
1969/12/31/18:00:11.910,(92 -18 -23 -16 -16 -25 -1 52)
1969/12/31/18:00:11.910,(36 -10 -8 -5 4 36 24 37)
1969/12/31/18:00:11.931,(-32 -40 -39 -15 -5 -18 -15 -22)
1969/12/31/18:00:11.931,(-11 60 42 16 3 9 7 1)
1969/12/31/18:00:11.933,(-44 -24 -11 2 17 14 14 -30)
1969/12/31/18:00:11.933,(-37 -41 -31 -24 -46 -55 -28 -6)
1969/12/31/18:00:11.946,(77 16 0 6 -3 10 6 70)
1969/12/31/18:00:11.946,(-21 -13 17 12 18 1 7 -18)
1969/12/31/18:00:11.953,(-36 -33 -33 -20 -21 -20 -29 -45)
1969/12/31/18:00:11.953,(23 41 17 0 3 8 8 1)
1969/12/31/18:00:11.971,(-38 -29 -15 -12 -1 8 -6 -35)
1969/12/31/18:00:11.971,(-36 3 3 3 18 63 14 -8)
1969/12/31/18:00:11.972,(-30 -21 -19 -22 -16 -32 1 1)
1969/12/31/18:00:11.972,(46 25 22 22 24 27 -12 29)
1969/12/31/18:00:11.993,(-47 -5 2 6 1 -9 4 -6)
1969/12/31/18:00:11.993,(23 -22 -8 8 -7 -51 -34 46)
1969/12/31/18:00:11.995,(-11 -15 -13 -7 8 46 17 -15)
1969/12/31/18:00:11.995,(-23 17 19 17 7 -43 -17 -4)
1969/12/31/18:00:12.008,(5 -15 -25 -14 -2 18 19 -30)
1969/12/31/18:00:12.008,(-29 10 10 -1 -3 -3 2 -41)
1969/12/31/18:00:12.023,(72 6 0 -5 -4 -5 -14 55)
1969/12/31/18:00:12.023,(-101 -54 -32 -30 -27 -1 8 -86)
1969/12/31/18:00:12.032,(47 16 -2 6 9 -18 -18 33)
1969/12/31/18:00:12.032,(5 18 4 -16 -23 -13 -6 -27)
1969/12/31/18:00:12.034,(-60 12 13 20 15 -7 -2 -48)
1969/12/31/18:00:12.034,(65 -2 4 -4 5 42 36 110)
1969/12/31/18:00:12.056,(-9 -52 -31 -19 -27 -81 -23 31)
1969/12/31/18:00:12.056,(0 21 5 -5 -4 9 4 11)
1969/12/31/18:00:12.058,(55 21 12 3 6 31 76 53)
1969/12/31/18:00:12.058,(-38 -1 1 5 -9 -54 -53 -52)
1969/12/31/18:00:12.070,(-7 -12 -7 13 21 31 -10 -14)
1969/12/31/18:00:12.070,(-15 -4 6 10 -3 -16 9 -9)
1969/12/31/18:00:12.079,(12 -16 14 14 17 6 45 55)
1969/12/31/18:00:12.079,(-24 45 -10 -22 -28 -10 -54 -91)
1969/12/31/18:00:12.094,(-3 -7 -7 -8 -5 4 -8 11)
1969/12/31/18:00:12.095,(28 10 -4 -9 -7 -2 4 -29)
1969/12/31/18:00:12.096,(-25 -16 -8 -7 -4 -2 -25 -1)
1969/12/31/18:00:12.096,(18 -6 17 20 23 36 12 30)
1969/12/31/18:00:12.118,(-41 -20 -19 -15 -20 -25 -30 -79)
1969/12/31/18:00:12.118,(-15 -20 4 4 8 16 5 54)
1969/12/31/18:00:12.120,(55 12 -4 -4 -6 -8 3 23)
1969/12/31/18:00:12.120,(-8 20 1 -1 0 -10 2 -35)
1969/12/31/18:00:12.132,(87 6 -4 -2 2 23 7 39)
1969/12/31/18:00:12.132,(66 8 5 9 11 6 20 13)
1969/12/31/18:00:12.141,(3 -5 -10 -8 -12 -19 -27 -35)
1969/12/31/18:00:12.141,(-14 -15 2 4 8 5 22 14)
1969/12/31/18:00:12.156,(-20 15 7 -2 -6 2 -6 -26)
1969/12/31/18:00:12.156,(-37 20 5 1 1 -5 -10 -34)
1969/12/31/18:00:12.158,(-81 -30 -15 -10 -7 -4 -19 -32)
1969/12/31/18:00:12.158,(3 -14 -2 -2 2 9 4 0)
1969/12/31/18:00:12.180,(17 23 23 13 13 14 25 1)
1969/12/31/18:00:12.180,(6 -15 -20 -9 -8 -13 -35 -30)
1969/12/31/18:00:12.182,(-35 5 5 5 3 -2 -11 1)
1969/12/31/18:00:12.182,(31 14 7 -9 -3 -3 10 17)
1969/12/31/18:00:12.194,(-67 -23 9 21 12 8 -2 -30)
1969/12/31/18:00:12.194,(35 14 -4 -12 -4 -5 4 9)
1969/12/31/18:00:12.204,(48 18 4 7 1 2 -4 18)
1969/12/31/18:00:12.204,(37 15 15 14 11 8 14 19)
1969/12/31/18:00:12.219,(-21 1 -4 -5 2 6 19 51)
1969/12/31/18:00:12.219,(-21 4 0 0 -2 -2 -10 -26)
1969/12/31/18:00:12.220,(-25 -10 12 4 -4 -3 -6 -22)
1969/12/31/18:00:12.220,(-4 -4 -11 -6 -4 1 2 25)
1969/12/31/18:00:12.242,(-9 0 -11 -14 -10 -7 -11 -28)
1969/12/31/18:00:12.242,(-21 -15 -4 -1 -1 -3 8 35)
1969/12/31/18:00:12.243,(-28 -25 -29 -17 -3 -1 -6 -26)
1969/12/31/18:00:12.243,(11 22 24 7 0 -5 -7 -15)
1969/12/31/18:00:12.256,(43 5 -7 -1 1 1 5 20)
1969/12/31/18:00:12.256,(-3 -14 2 4 2 2 4 14)
1969/12/31/18:00:12.266,(3 2 -20 -8 -3 0 -4 -10)
1969/12/31/18:00:12.266,(-7 27 39 21 5 -1 -4 -2)
1969/12/31/18:00:12.280,(-25 1 7 2 0 -1 -5 -25)
1969/12/31/18:00:12.280,(0 -7 -2 -1 -1 1 -4 -16)
1969/12/31/18:00:12.282,(-2 -19 -25 -14 -8 -3 -3 -1)
1969/12/31/18:00:12.282,(-23 -44 -27 -16 -8 -6 -2 -2)
1969/12/31/18:00:12.304,(22 -21 -43 -28 -10 -3 -2 -1)
1969/12/31/18:00:12.304,(16 88 72 43 17 7 7 14)
1969/12/31/18:00:12.306,(11 -7 -13 -7 -3 -4 -15 -9)
1969/12/31/18:00:12.306,(0 36 38 18 7 4 10 1)
1969/12/31/18:00:12.318,(0 -1 19 13 3 1 -4 -7)
1969/12/31/18:00:12.318,(-18 -41 -54 -31 -12 -6 -3 -11)
1969/12/31/18:00:12.333,(1 21 27 14 6 0 2 6)
1969/12/31/18:00:12.334,(-3 -32 -31 -14 -2 -1 -2 2)
1969/12/31/18:00:12.342,(0 4 -5 -3 1 2 3 1)
1969/12/31/18:00:12.342,(-1 -13 -7 -7 -4 -5 -4 -2)
1969/12/31/18:00:12.344,(0 -23 -22 -7 -4 -4 -4 3)
1969/12/31/18:00:12.344,(5 25 -19 -9 -2 0 -3 3)
1969/12/31/18:00:12.366,(13 29 21 18 3 2 12 8)
1969/12/31/18:00:12.366,(-11 -17 -20 -12 -6 -7 -23 -21)
1969/12/31/18:00:12.367,(-1 -1 24 20 6 4 2 -5)
1969/12/31/18:00:12.367,(-1 -27 -46 -24 -10 -1 4 2)
1969/12/31/18:00:12.381,(-10 -58 -4 3 1 3 6 -2)
1969/12/31/18:00:12.381,(12 86 45 10 5 3 6 11)
1969/12/31/18:00:12.390,(-7 -13 -18 -12 -8 -8 -18 -5)
1969/12/31/18:00:12.390,(7 23 47 14 2 -1 -3 1)
1969/12/31/18:00:12.404,(-4 -1 -5 2 3 3 -1 -5)
1969/12/31/18:00:12.405,(-11 -62 -28 -19 -11 -4 4 1)
1969/12/31/18:00:12.406,(1 -6 -12 -5 -1 0 5 4)
1969/12/31/18:00:12.406,(10 54 52 29 14 7 6 6)
1969/12/31/18:00:12.428,(2 3 -14 -1 -1 -4 -5 -5)
1969/12/31/18:00:12.428,(-3 -14 -8 -2 -1 -1 0 3)
1969/12/31/18:00:12.429,(3 13 2 3 3 4 13 11)
1969/12/31/18:00:12.430,(-9 -44 -30 -14 -7 -7 -18 -18)
1969/12/31/18:00:12.443,(-8 1 -6 -15 -7 -2 14 3)
1969/12/31/18:00:12.443,(-1 11 18 10 7 5 -21 -11)
1969/12/31/18:00:12.452,(-2 18 12 4 0 -3 2 -2)
1969/12/31/18:00:12.452,(1 -20 -5 -6 -5 -2 3 8)
1969/12/31/18:00:12.466,(-3 -6 -12 -11 -4 -5 -12 -7)
1969/12/31/18:00:12.466,(12 55 22 16 10 3 1 7)
1969/12/31/18:00:12.469,(-10 -20 -5 -7 -6 1 5 0)
1969/12/31/18:00:12.469,(4 11 2 -3 -5 -7 -9 -3)
1969/12/31/18:00:12.490,(-2 -11 -16 5 10 14 14 8)
1969/12/31/18:00:12.490,(-9 -39 5 -3 -5 -7 -1 -4)
1969/12/31/18:00:12.491,(6 35 19 11 4 -4 -12 -5)
1969/12/31/18:00:12.491,(-11 -22 -22 -9 -6 -1 4 -1)
1969/12/31/18:00:12.504,(-11 -2 0 -12 -12 -13 -22 -14)
1969/12/31/18:00:12.504,(16 16 -22 -10 2 11 18 10)
1969/12/31/18:00:12.513,(0 31 12 13 9 4 13 4)
1969/12/31/18:00:12.513,(-6 -16 -15 -7 -2 -2 -8 -6)
1969/12/31/18:00:12.537,(6 36 20 1 -1 -6 -4 -5)
1969/12/31/18:00:12.537,(-5 -21 -6 2 4 -1 -2 -3)
1969/12/31/18:00:12.538,(-13 -43 -5 -14 -11 -7 -8 -7)
1969/12/31/18:00:12.538,(2 10 7 9 3 6 6 5)
1969/12/31/18:00:12.552,(10 28 23 15 6 1 -1 1)
1969/12/31/18:00:12.552,(-6 -12 2 3 -3 -3 3 1)
1969/12/31/18:00:12.554,(12 11 -21 -8 -2 1 3 3)
1969/12/31/18:00:12.554,(-10 -23 -9 2 2 1 1 -2)
1969/12/31/18:00:12.566,(-2 -8 -16 -15 -6 -3 -3 -2)
1969/12/31/18:00:12.566,(-2 -3 19 9 1 -1 -4 0)
1969/12/31/18:00:12.576,(-2 -22 -3 1 0 2 0 0)
1969/12/31/18:00:12.576,(6 19 -11 -15 -3 -4 -4 1)
1969/12/31/18:00:12.591,(5 5 5 7 0 0 -2 -1)
1969/12/31/18:00:12.591,(-11 -33 -31 -14 -4 -2 0 -2)
1969/12/31/18:00:12.593,(6 26 42 15 7 2 4 4)
1969/12/31/18:00:12.593,(-7 -29 -24 -11 -4 0 -1 0)
1969/12/31/18:00:12.615,(9 30 17 0 1 -1 1 4)
1969/12/31/18:00:12.615,(-8 1 -6 2 -1 -2 -1 -8)
1969/12/31/18:00:12.617,(-5 -11 0 -3 -6 -5 -8 -5)
1969/12/31/18:00:12.617,(7 9 -15 3 1 3 5 5)
1969/12/31/18:00:12.629,(-1 -2 4 4 0 -1 -4 -2)
1969/12/31/18:00:12.629,(1 1 -1 -3 -1 0 5 4)
1969/12/31/18:00:12.638,(3 11 -5 -4 -2 -1 -3 -3)
1969/12/31/18:00:12.638,(-4 -6 2 -3 -1 -3 -2 -1)
1969/12/31/18:00:12.653,(-8 -12 -11 -7 -4 -2 -5 -5)
1969/12/31/18:00:12.653,(-1 0 -12 -5 -3 -4 -3 -4)
1969/12/31/18:00:12.655,(-3 -9 -5 -7 -1 1 0 -1)
1969/12/31/18:00:12.655,(-1 -8 -10 -1 -1 -3 0 2)
1969/12/31/18:00:12.677,(-3 -2 15 7 2 -2 -3 -4)
1969/12/31/18:00:12.677,(1 7 11 5 0 0 2 0)
1969/12/31/18:00:12.683,(1 -3 -6 -4 1 0 -2 0)
1969/12/31/18:00:12.683,(-4 -7 0 3 -1 -2 0 -4)
1969/12/31/18:00:12.691,(-1 0 0 1 -2 -1 -1 -2)
1969/12/31/18:00:12.691,(-2 -5 -23 -9 -2 -2 -2 0)
1969/12/31/18:00:12.699,(-2 -9 -6 1 -2 -1 0 1)
1969/12/31/18:00:12.699,(-1 -1 2 -1 0 1 -2 -2)
1969/12/31/18:00:12.715,(-5 -18 -5 -3 -2 0 1 -3)
1969/12/31/18:00:12.715,(0 5 -6 0 -1 -2 -3 -3)
1969/12/31/18:00:12.721,(0 1 -2 -5 -3 -1 -1 -1)
1969/12/31/18:00:12.721,(1 -2 2 3 1 1 3 3)
1969/12/31/18:00:12.740,(-3 -2 -4 -4 -4 -1 -3 -3)
1969/12/31/18:00:12.740,(-2 -5 1 -4 -1 -1 0 -1)
1969/12/31/18:00:12.741,(0 4 -2 -8 -4 -3 -2 -1)
1969/12/31/18:00:12.741,(4 8 5 12 6 3 2 3)
1969/12/31/18:00:12.752,(-1 -1 -4 -12 -4 -1 -2 -3)
1969/12/31/18:00:12.752,(-1 -8 -13 -7 -3 -1 1 0)
1969/12/31/18:00:12.763,(0 1 0 -9 1 1 0 2)
1969/12/31/18:00:12.763,(-1 2 12 14 4 -1 -4 -3)
1969/12/31/18:00:12.777,(3 4 18 26 8 5 8 9)
1969/12/31/18:00:12.777,(4 12 20 11 5 -1 -5 -4)
1969/12/31/18:00:12.784,(2 4 -4 -3 -3 -3 -2 -3)
1969/12/31/18:00:12.784,(-11 -20 -20 -18 -11 -5 -3 -2)
1969/12/31/18:00:12.801,(-3 -4 -11 -14 -5 -3 -4 -3)
1969/12/31/18:00:12.801,(-3 -6 -1 -3 -3 0 1 2)
1969/12/31/18:00:12.803,(0 5 4 0 0 -1 1 1)
1969/12/31/18:00:12.803,(4 3 0 -5 -2 -2 0 0)
1969/12/31/18:00:12.815,(-1 -5 -7 -5 -4 -3 -2 -1)
1969/12/31/18:00:12.815,(1 -2 3 2 2 1 1 3)
1969/12/31/18:00:12.825,(-3 -2 -3 6 -3 -1 -3 -4)
1969/12/31/18:00:12.825,(-1 -4 1 0 -1 -2 2 2)
1969/12/31/18:00:12.839,(-2 0 -6 -2 -3 -5 -4 -5)
1969/12/31/18:00:12.839,(1 -2 0 -3 -8 -3 -1 1)
1969/12/31/18:00:12.847,(1 3 2 3 4 1 3 4)
1969/12/31/18:00:12.847,(2 15 10 -3 -9 -5 -6 -6)
1969/12/31/18:00:12.863,(-2 -1 -4 -5 -8 -2 -1 -3)
1969/12/31/18:00:12.863,(-5 -8 -7 -16 -17 -5 -2 -4)
1969/12/31/18:00:12.864,(0 1 8 31 51 16 2 -1)
1969/12/31/18:00:12.864,(0 0 -3 2 8 1 -1 1)
1969/12/31/18:00:12.886,(3 4 3 7 14 6 0 3)
1969/12/31/18:00:12.886,(-1 1 2 -1 -6 1 -2 -2)
1969/12/31/18:00:12.888,(-2 -6 -8 -12 -17 -2 -2 -3)
1969/12/31/18:00:12.888,(0 1 2 1 4 2 0 1)
1969/12/31/18:00:12.902,(-1 1 -1 -1 -4 -2 -3 -1)
1969/12/31/18:00:12.902,(-5 -8 -6 -3 -1 -2 -2 -4)
1969/12/31/18:00:12.909,(-1 0 -2 -5 -9 -2 -2 -1)
1969/12/31/18:00:12.909,(0 2 2 0 3 1 0 -1)
1969/12/31/18:00:12.925,(-3 -7 -4 -2 -3 -2 -1 -1)
1969/12/31/18:00:12.925,(-1 0 1 3 3 2 -1 0)
1969/12/31/18:00:12.926,(2 2 6 6 0 -1 0 2)
1969/12/31/18:00:12.927,(-2 -1 0 -3 -6 -2 0 0)
1969/12/31/18:00:12.948,(2 -1 0 0 1 -2 -1 0)
1969/12/31/18:00:12.948,(1 2 3 3 5 -1 0 -1)
1969/12/31/18:00:12.950,(-2 -1 -3 -3 -7 -2 -5 -3)
1969/12/31/18:00:12.950,(-4 -6 -6 -5 -4 -3 -3 -2)
1969/12/31/18:00:12.963,(-3 0 0 -1 -2 -3 -3 -3)
1969/12/31/18:00:12.963,(-4 -5 -5 -1 2 -1 -3 -3)
1969/12/31/18:00:12.972,(-2 -2 1 -1 -5 -3 0 1)
1969/12/31/18:00:12.972,(2 1 1 -2 0 1 1 1)
1969/12/31/18:00:12.987,(-2 1 1 4 5 1 1 -1)
1969/12/31/18:00:12.987,(-1 -1 2 0 0 -1 -1 -1)
1969/12/31/18:00:12.988,(1 -3 -5 -6 -6 -2 -1 0)
1969/12/31/18:00:12.989,(-5 -7 -8 -2 3 0 -2 -5)
1969/12/31/18:00:13.010,(-2 -1 -2 -5 -7 -1 -1 -1)
1969/12/31/18:00:13.011,(1 1 1 2 1 -1 0 0)
1969/12/31/18:00:13.012,(-2 -3 -4 -6 -3 -3 -2 -2)
1969/12/31/18:00:13.012,(1 -1 1 1 0 2 2 0)
1969/12/31/18:00:13.024,(0 1 -1 -2 -2 -1 -1 -1)
1969/12/31/18:00:13.024,(-1 1 2 4 1 0 0 0)
1969/12/31/18:00:13.034,(-1 -2 -4 -7 -7 -4 -2 -2)
1969/12/31/18:00:13.034,(-2 -1 -2 -2 -3 -3 -1 -2)
1969/12/31/18:00:13.049,(-2 -2 -2 2 2 0 0 0)
1969/12/31/18:00:13.049,(-1 0 -1 0 1 0 1 1)
1969/12/31/18:00:13.051,(0 0 3 5 2 1 -1 -1)
1969/12/31/18:00:13.051,(3 5 6 0 -4 -1 -1 1)
1969/12/31/18:00:13.072,(-5 -12 -13 -6 2 -2 -3 -3)
1969/12/31/18:00:13.072,(-2 0 -2 -1 0 -2 -1 -2)
1969/12/31/18:00:13.074,(-3 -4 -6 -7 -4 -3 -2 -3)
1969/12/31/18:00:13.074,(-3 -2 -2 0 0 -1 -2 -1)
1969/12/31/18:00:13.087,(3 3 5 3 -1 -1 0 2)
1969/12/31/18:00:13.087,(0 2 1 -1 -3 -1 -1 -1)
1969/12/31/18:00:13.096,(-1 1 -1 1 3 0 1 0)
1969/12/31/18:00:13.096,(1 1 -2 -3 -2 -1 1 -1)
1969/12/31/18:00:13.111,(0 0 3 -1 1 2 -1 -1)
1969/12/31/18:00:13.111,(-1 -4 -3 2 1 0 0 0)
1969/12/31/18:00:13.113,(0 0 1 -2 -2 0 0 0)
1969/12/31/18:00:13.113,(-2 -3 -1 -2 -1 -1 -3 -1)
1969/12/31/18:00:13.134,(1 3 1 -1 -2 -1 0 0)
1969/12/31/18:00:13.134,(-3 -3 -3 -6 -7 -6 -2 -3)
1969/12/31/18:00:13.136,(0 1 4 1 3 1 0 -1)
1969/12/31/18:00:13.136,(-1 -2 -3 -1 0 0 1 2)
1969/12/31/18:00:13.150,(-3 -2 -5 -1 -1 -3 -2 -4)
1969/12/31/18:00:13.150,(-1 0 -2 -3 0 1 -2 -1)
1969/12/31/18:00:13.157,(-3 -5 -4 -3 -7 -3 -5 -4)
1969/12/31/18:00:13.157,(-1 -1 -1 -3 -3 -2 -2 -2)
1969/12/31/18:00:13.157,(-4 -5 -18 -9 -3 1 1 1)
1969/12/31/18:00:13.157,(12 54 69 26 7 3 1 1)
1969/12/31/18:00:13.158,(-6 -22 -12 -1 -2 -1 0 -3)
1969/12/31/18:00:13.158,(-6 -19 -21 -9 -5 -3 0 -1)
1969/12/31/18:00:13.171,(2 13 9 4 0 0 -1 0)
1969/12/31/18:00:13.171,(-1 -25 16 11 4 2 -1 -1)
1969/12/31/18:00:13.178,(1 28 -12 -10 -4 -1 0 -1)
1969/12/31/18:00:13.178,(12 48 53 18 4 0 3 4)
1969/12/31/18:00:13.196,(-4 5 29 10 0 -1 3 2)
1969/12/31/18:00:13.196,(-6 -1 -11 1 3 -3 -11 -19)
1969/12/31/18:00:13.197,(-1 -27 -12 -1 -1 -1 -3 10)
1969/12/31/18:00:13.197,(-7 -31 -22 -11 -4 -2 1 -1)
1969/12/31/18:00:13.218,(3 11 1 0 0 -2 -8 -3)
1969/12/31/18:00:13.218,(-1 -9 -21 -11 -4 0 4 3)
1969/12/31/18:00:13.220,(3 -5 -3 -7 -5 -2 0 2)
1969/12/31/18:00:13.220,(-1 8 -6 -3 2 -2 -10 -14)
1969/12/31/18:00:13.233,(-16 -14 2 4 2 -2 -7 -24)
1969/12/31/18:00:13.233,(-3 -10 -8 -7 -3 2 3 2)
1969/12/31/18:00:13.242,(3 12 8 5 5 0 -7 -11)
1969/12/31/18:00:13.242,(11 6 4 0 -1 0 4 14)
1969/12/31/18:00:13.257,(-8 -16 -17 -7 -2 0 1 -8)
1969/12/31/18:00:13.257,(3 5 1 -1 1 -1 -1 -4)
1969/12/31/18:00:13.258,(1 -2 5 -1 -2 1 7 12)
1969/12/31/18:00:13.259,(-18 -6 2 4 2 -1 -6 -20)
1969/12/31/18:00:13.280,(35 21 3 1 1 2 7 15)
1969/12/31/18:00:13.280,(-43 -26 -30 -19 -12 -9 -6 -5)
1969/12/31/18:00:13.282,(10 1 6 2 -1 0 3 -1)
1969/12/31/18:00:13.282,(3 -9 -9 -5 -1 -2 1 7)
1969/12/31/18:00:13.295,(28 28 7 3 6 4 2 17)
1969/12/31/18:00:13.295,(-29 -20 -13 -9 -6 -7 -12 -19)
1969/12/31/18:00:13.304,(-17 -8 4 1 2 -1 -4 -8)
1969/12/31/18:00:13.304,(2 -3 -4 -3 -2 3 5 3)
1969/12/31/18:00:13.320,(-10 -8 -2 -5 -5 0 5 1)
1969/12/31/18:00:13.320,(38 7 -1 6 0 -11 -23 -12)
1969/12/31/18:00:13.322,(32 35 6 -2 -5 -19 -14 0)
1969/12/31/18:00:13.322,(-39 -14 -2 0 3 33 14 -13)
1969/12/31/18:00:13.342,(13 3 -8 -8 -3 0 2 36)
1969/12/31/18:00:13.342,(-64 -21 -6 -1 -5 -3 8 -7)
1969/12/31/18:00:13.344,(-14 -31 -11 -5 -4 -6 1 -24)
1969/12/31/18:00:13.344,(-16 6 -9 -9 -10 -20 -21 -18)
1969/12/31/18:00:13.357,(22 4 2 5 -3 -10 29 26)
1969/12/31/18:00:13.357,(30 16 -2 -3 2 13 -15 -7)
1969/12/31/18:00:13.366,(-4 -15 5 4 8 20 33 40)
1969/12/31/18:00:13.366,(29 10 4 4 5 14 16 12)
1969/12/31/18:00:13.382,(-51 -7 -4 -3 -5 -16 -33 -35)
1969/12/31/18:00:13.382,(-32 -42 -18 -7 -2 -20 4 -15)
1969/12/31/18:00:13.384,(36 53 6 -4 -9 -6 -9 4)
1969/12/31/18:00:13.384,(-31 -68 -16 -1 2 9 9 -6)
1969/12/31/18:00:13.404,(16 8 0 1 2 -11 -5 -10)
1969/12/31/18:00:13.404,(13 3 12 11 8 13 10 67)
1969/12/31/18:00:13.406,(3 -23 -19 -8 -6 -14 -17 -5)
1969/12/31/18:00:13.406,(38 48 18 5 5 13 26 23)
1969/12/31/18:00:13.419,(-83 -63 -21 -12 -6 -2 -46 -79)
1969/12/31/18:00:13.419,(43 25 -5 -7 -9 -8 4 13)
1969/12/31/18:00:13.434,(-16 -13 5 5 9 41 27 15)
1969/12/31/18:00:13.434,(5 19 4 2 -7 -30 -32 2)
1969/12/31/18:00:13.444,(22 12 -5 -6 -4 4 19 7)
1969/12/31/18:00:13.444,(-51 -41 -16 -8 -4 -1 1 -48)
1969/12/31/18:00:13.446,(55 10 1 -2 -2 -11 38 90)
1969/12/31/18:00:13.446,(-19 20 3 -4 -10 -16 -52 -61)
1969/12/31/18:00:13.466,(-1 -20 6 11 11 8 -16 -21)
1969/12/31/18:00:13.466,(-26 -11 -7 -9 -5 -4 6 -7)
1969/12/31/18:00:13.469,(1 24 2 3 -5 -27 6 -21)
1969/12/31/18:00:13.469,(17 5 7 7 15 23 25 36)
1969/12/31/18:00:13.481,(49 19 8 6 10 43 33 40)
1969/12/31/18:00:13.481,(7 9 -4 -5 0 1 -17 -8)
1969/12/31/18:00:13.490,(-44 19 8 4 3 -33 -34 -41)
1969/12/31/18:00:13.490,(10 -24 -1 -1 -15 -36 20 10)
1969/12/31/18:00:13.506,(-40 -27 -14 -12 -3 -4 -12 -18)
1969/12/31/18:00:13.506,(83 33 17 12 3 11 42 97)
1969/12/31/18:00:13.508,(-82 -58 -32 -14 -10 8 -13 -69)
1969/12/31/18:00:13.508,(-11 7 -2 -1 0 -1 -6 -16)
1969/12/31/18:00:13.530,(50 29 10 2 0 -4 41 71)
1969/12/31/18:00:13.530,(-18 -12 -2 -5 -4 1 -5 0)
1969/12/31/18:00:13.531,(-26 -17 2 1 6 12 -28 -16)
1969/12/31/18:00:13.531,(11 -5 -6 -4 3 22 19 -2)
1969/12/31/18:00:13.543,(-54 -22 -7 -1 -3 -16 -4 -21)
1969/12/31/18:00:13.543,(20 19 1 -2 1 12 18 -2)
1969/12/31/18:00:13.552,(26 8 -1 -4 -10 -12 5 -11)
1969/12/31/18:00:13.552,(-16 -4 6 2 5 -19 -31 -21)
1969/12/31/18:00:13.568,(5 15 6 3 4 11 4 9)
1969/12/31/18:00:13.568,(-7 16 10 8 5 -23 -14 -67)
1969/12/31/18:00:13.569,(13 -10 6 3 0 -15 -13 -2)
1969/12/31/18:00:13.569,(-2 11 -2 -2 -1 20 -11 6)
1969/12/31/18:00:13.591,(-26 -14 -10 -4 -5 -5 -3 -9)
1969/12/31/18:00:13.591,(46 -2 2 2 3 2 -10 34)
1969/12/31/18:00:13.593,(-36 -30 -12 -12 -10 -1 18 -15)
1969/12/31/18:00:13.593,(46 24 8 6 5 -17 -36 26)
1969/12/31/18:00:13.605,(2 -14 -8 -6 -11 -20 7 16)
1969/12/31/18:00:13.605,(-19 -20 -6 2 10 19 -5 27)
1969/12/31/18:00:13.615,(-12 -5 -2 -2 -1 4 -10 -18)
1969/12/31/18:00:13.615,(26 22 2 1 -3 5 0 7)
1969/12/31/18:00:13.630,(3 4 8 5 2 10 13 27)
1969/12/31/18:00:13.630,(-15 3 -4 -6 -4 1 10 -20)
1969/12/31/18:00:13.631,(44 5 0 6 4 9 -8 32)
1969/12/31/18:00:13.631,(-49 -29 -15 -11 -7 -14 -11 -18)
1969/12/31/18:00:13.654,(-22 -4 4 2 -3 -11 -5 -22)
1969/12/31/18:00:13.654,(28 36 10 4 3 2 -18 -23)
1969/12/31/18:00:13.655,(-5 3 6 8 11 29 25 16)
1969/12/31/18:00:13.655,(2 -22 -13 -9 -4 34 47 25)
1969/12/31/18:00:13.667,(67 25 3 -1 -1 -16 -13 18)
1969/12/31/18:00:13.667,(-28 2 -3 -6 -10 -15 -55 -17)
1969/12/31/18:00:13.677,(-26 -21 -1 3 5 10 8 -10)
1969/12/31/18:00:13.677,(56 29 4 0 -3 -24 -9 35)
1969/12/31/18:00:13.691,(-36 -41 -11 -7 -5 -3 -7 -18)
1969/12/31/18:00:13.691,(36 29 12 7 8 15 13 19)
1969/12/31/18:00:13.707,(31 35 16 6 -1 -9 5 0)
1969/12/31/18:00:13.707,(-77 -61 -15 -8 -6 -11 -1 -15)
1969/12/31/18:00:13.715,(19 24 0 0 1 3 -11 -36)
1969/12/31/18:00:13.715,(9 -10 -1 -2 -4 -8 7 24)
1969/12/31/18:00:13.717,(10 -6 -5 -3 1 -4 -2 22)
1969/12/31/18:00:13.717,(33 40 19 11 11 14 21 27)
1969/12/31/18:00:13.729,(-17 -23 -6 -5 -4 -3 -16 -14)
1969/12/31/18:00:13.729,(-39 -21 -14 -7 -7 -14 20 -18)
1969/12/31/18:00:13.739,(-27 -3 -2 -1 5 10 -9 -22)
1969/12/31/18:00:13.739,(49 18 2 2 -8 -17 15 0)
1969/12/31/18:00:13.754,(-20 -1 0 1 2 10 9 3)
1969/12/31/18:00:13.754,(8 -1 3 1 3 -6 -24 2)
1969/12/31/18:00:13.756,(-13 6 1 -3 -4 0 -1 -2)
1969/12/31/18:00:13.756,(18 12 4 3 4 9 -5 -1)
1969/12/31/18:00:13.778,(3 10 -3 -5 -9 -11 -8 -2)
1969/12/31/18:00:13.778,(-15 -23 -4 -3 -3 7 22 -20)
1969/12/31/18:00:13.779,(-14 -13 -3 -2 -1 2 -7 -8)
1969/12/31/18:00:13.779,(-32 -1 0 -2 4 7 7 -15)
1969/12/31/18:00:13.792,(54 7 -7 -6 -6 -12 -7 51)
1969/12/31/18:00:13.792,(26 5 -1 1 4 11 15 13)
1969/12/31/18:00:13.801,(-2 13 6 4 1 8 2 12)
1969/12/31/18:00:13.801,(-33 -13 -1 -3 -6 -27 -22 -42)
1969/12/31/18:00:13.815,(9 -1 0 0 -6 1 13 7)
1969/12/31/18:00:13.815,(-18 -9 -5 -1 4 16 10 -2)
1969/12/31/18:00:13.823,(5 0 -1 -1 -4 -12 -4 2)
1969/12/31/18:00:13.823,(36 4 0 -1 4 33 68 71)
1969/12/31/18:00:13.839,(-29 -2 5 5 5 -37 -71 -50)
1969/12/31/18:00:13.839,(-17 -20 -12 -9 -19 -31 -10 -8)
1969/12/31/18:00:13.841,(44 4 -5 -5 -7 8 4 7)
1969/12/31/18:00:13.841,(-8 -12 -8 -5 12 7 8 12)
1969/12/31/18:00:13.863,(-45 -6 2 3 -5 24 36 -20)
1969/12/31/18:00:13.863,(8 13 6 3 3 -5 -5 -7)
1969/12/31/18:00:13.865,(0 10 2 1 -5 -8 -20 -2)
1969/12/31/18:00:13.865,(-19 -23 -8 -5 -11 -18 -13 -10)
1969/12/31/18:00:13.877,(45 13 -1 -3 10 25 -6 -22)
1969/12/31/18:00:13.877,(2 -2 -2 3 6 19 29 40)
1969/12/31/18:00:13.886,(-7 12 5 1 0 0 1 -18)
1969/12/31/18:00:13.886,(-41 -7 1 1 0 -10 -27 -42)
1969/12/31/18:00:13.910,(35 4 -2 -3 5 8 16 19)
1969/12/31/18:00:13.910,(-40 3 7 6 -2 -3 -5 -11)
1969/12/31/18:00:13.911,(-8 -8 0 1 -3 -46 -26 -36)
1969/12/31/18:00:13.911,(-11 -3 -6 -3 -11 -7 18 -2)
1969/12/31/18:00:13.917,(-31 -14 -9 -7 10 -16 -35 -20)
1969/12/31/18:00:13.917,(8 13 9 17 18 33 7 5)
1969/12/31/18:00:13.917,(49 -13 -7 -3 -10 -5 3 49)
1969/12/31/18:00:13.917,(1 13 -2 -13 -20 8 -25 -34)
1969/12/31/18:00:13.932,(-12 -20 0 0 -1 -12 18 2)
1969/12/31/18:00:13.932,(10 -1 -6 -14 -9 -6 0 4)
1969/12/31/18:00:13.939,(-38 -2 3 6 21 10 2 3)
1969/12/31/18:00:13.939,(5 -2 -3 3 2 -1 -12 -21)
1969/12/31/18:00:13.954,(5 4 1 -4 -4 17 8 10)
1969/12/31/18:00:13.954,(-8 -2 -3 0 3 -31 -15 -10)
1969/12/31/18:00:13.962,(-10 12 2 -1 -6 15 -13 -16)
1969/12/31/18:00:13.962,(-30 -24 -8 4 19 3 -1 -12)
1969/12/31/18:00:13.979,(-12 3 -1 11 23 -4 3 -14)
1969/12/31/18:00:13.979,(2 -8 -8 -29 -86 -30 -21 -3)
1969/12/31/18:00:13.979,(0 4 -7 -19 -2 4 6 -12)
1969/12/31/18:00:13.979,(-1 2 2 -8 -24 -9 -11 -22)
1969/12/31/18:00:13.994,(-6 7 9 12 17 19 -4 -4)
1969/12/31/18:00:13.994,(-4 -3 -2 8 24 5 5 -4)
1969/12/31/18:00:14.018,(43 10 -6 -4 5 3 -5 -4)
1969/12/31/18:00:14.018,(-3 -13 -2 5 -1 -19 0 13)
1969/12/31/18:00:14.019,(-16 -6 -5 1 -10 10 8 -3)
1969/12/31/18:00:14.019,(-20 4 -2 -2 18 27 5 -19)
1969/12/31/18:00:14.024,(-32 -2 9 0 -21 -16 -16 -9)
1969/12/31/18:00:14.024,(22 1 -7 0 8 -27 -9 -4)
1969/12/31/18:00:14.041,(19 11 3 6 -3 5 13 24)
1969/12/31/18:00:14.041,(1 -13 -7 4 25 19 9 -8)
1969/12/31/18:00:14.041,(3 13 13 -2 -23 6 14 17)
1969/12/31/18:00:14.041,(17 -22 -24 -12 -10 6 -6 11)
1969/12/31/18:00:14.057,(-33 -32 -43 -31 -29 -17 -18 -12)
1969/12/31/18:00:14.057,(8 91 92 41 28 8 12 10)
1969/12/31/18:00:14.064,(0 -25 -23 -3 4 -3 8 -7)
1969/12/31/18:00:14.064,(2 14 14 13 13 8 -7 9)
1969/12/31/18:00:14.079,(-9 -38 -40 -10 -13 -19 -10 -19)
1969/12/31/18:00:14.079,(2 -99 -72 -27 0 2 -12 21)
1969/12/31/18:00:14.087,(-48 83 41 17 -7 -27 6 -12)
1969/12/31/18:00:14.087,(22 20 20 15 9 23 14 27)
1969/12/31/18:00:14.103,(31 9 -17 15 31 13 15 31)
1969/12/31/18:00:14.103,(-5 17 14 -13 -38 1 -17 -31)
1969/12/31/18:00:14.103,(-34 -128 -128 -54 -7 1 1 -1)
1969/12/31/18:00:14.103,(-6 67 -11 -18 3 2 -3 5)
1969/12/31/18:00:14.120,(2 76 101 40 -15 -29 1 3)
1969/12/31/18:00:14.120,(52 -15 -47 3 12 7 1 11)
1969/12/31/18:00:14.126,(10 3 16 7 -8 8 6 29)
1969/12/31/18:00:14.126,(-34 -57 -41 -14 10 -14 -8 -46)
1969/12/31/18:00:14.141,(-3 -36 -35 -23 -18 -10 -11 0)
1969/12/31/18:00:14.141,(-38 -6 3 -7 -23 -33 -16 -12)
1969/12/31/18:00:14.149,(11 36 29 14 22 20 -4 -6)
1969/12/31/18:00:14.149,(4 -56 -27 -3 -7 -34 -3 12)
1969/12/31/18:00:14.164,(-21 -37 -17 -9 4 32 1 -11)
1969/12/31/18:00:14.164,(11 77 51 19 4 -4 -21 -40)
1969/12/31/18:00:14.165,(6 -82 -58 -7 23 42 16 20)
1969/12/31/18:00:14.165,(30 121 103 51 16 15 15 21)
1969/12/31/18:00:14.181,(-12 -46 -18 -12 -21 5 -13 -11)
1969/12/31/18:00:14.181,(-38 -103 -128 -56 -12 -30 11 27)
1969/12/31/18:00:14.187,(69 123 121 55 20 -6 6 13)
1969/12/31/18:00:14.188,(-1 -101 -72 -23 -25 1 -26 -27)
1969/12/31/18:00:14.203,(-17 -72 -72 -16 -7 -26 0 15)
1969/12/31/18:00:14.203,(13 94 103 37 37 37 7 -41)
1969/12/31/18:00:14.211,(-9 -70 -60 -27 -16 12 1 -1)
1969/12/31/18:00:14.211,(-29 -38 -2 -3 26 18 -13 -18)
1969/12/31/18:00:14.227,(37 27 34 12 -34 -3 10 8)
1969/12/31/18:00:14.227,(48 41 60 36 -1 -38 -4 26)
1969/12/31/18:00:14.227,(-30 24 -19 -3 1 -1 -13 -38)
1969/12/31/18:00:14.227,(-24 51 42 4 3 11 9 -3)
1969/12/31/18:00:14.244,(-21 -115 -120 -74 -11 -49 -9 -12)
1969/12/31/18:00:14.244,(-21 72 47 15 -8 22 -8 -25)
1969/12/31/18:00:14.250,(55 -12 45 36 9 4 8 -2)
1969/12/31/18:00:14.250,(16 -48 -56 -3 -2 12 17 44)
1969/12/31/18:00:14.266,(-34 103 41 22 17 9 7 3)
1969/12/31/18:00:14.266,(-29 -128 -106 -46 -24 -9 -1 -43)
1969/12/31/18:00:14.273,(-4 -26 -92 -66 -27 -31 -18 -2)
1969/12/31/18:00:14.273,(-74 78 88 91 29 14 7 -27)
1969/12/31/18:00:14.299,(15 -85 -89 -36 -4 -39 -19 -37)
1969/12/31/18:00:14.299,(110 127 59 29 16 56 34 102)
1969/12/31/18:00:14.300,(-10 -45 -37 -8 -3 -17 0 -15)
1969/12/31/18:00:14.300,(5 42 64 -1 -16 -14 -14 -24)
1969/12/31/18:00:14.307,(56 57 53 18 5 30 24 66)
1969/12/31/18:00:14.307,(-60 -128 -128 -54 -35 -33 7 4)
1969/12/31/18:00:14.312,(-34 -11 -15 4 53 28 13 56)
1969/12/31/18:00:14.312,(38 82 68 6 -14 17 1 6)
1969/12/31/18:00:14.328,(75 85 75 40 -4 -2 17 30)
1969/12/31/18:00:14.328,(-9 -54 -19 -11 -14 -47 -24 -18)
1969/12/31/18:00:14.335,(-4 -42 -25 -7 1 10 -5 -2)
1969/12/31/18:00:14.335,(36 -42 -35 -15 10 -21 -5 16)
1969/12/31/18:00:14.352,(-15 -46 -25 -1 14 24 -2 2)
1969/12/31/18:00:14.352,(-10 89 55 31 38 3 -8 -15)
1969/12/31/18:00:14.353,(-29 -51 -26 -16 -26 -5 -6 -44)
1969/12/31/18:00:14.353,(0 36 19 -4 -18 -29 -9 21)
1969/12/31/18:00:14.374,(-20 33 15 -1 13 57 13 -3)
1969/12/31/18:00:14.374,(-16 -23 -12 6 4 -8 7 -17)
1969/12/31/18:00:14.375,(-65 -64 -62 -11 -12 -13 -18 -48)
1969/12/31/18:00:14.375,(27 49 9 -15 -13 12 14 -4)
1969/12/31/18:00:14.390,(-1 -6 17 20 8 -14 -6 6)
1969/12/31/18:00:14.390,(-64 -104 -111 -47 -11 -5 -20 -70)
1969/12/31/18:00:14.397,(19 127 127 46 -30 -15 -5 3)
1969/12/31/18:00:14.397,(27 -122 -108 -38 -15 -6 -6 -9)
1969/12/31/18:00:14.414,(-18 49 39 15 19 8 5 -22)
1969/12/31/18:00:14.414,(20 -27 3 4 0 -5 -4 15)
1969/12/31/18:00:14.414,(4 -30 -27 -7 17 13 -7 -11)
1969/12/31/18:00:14.414,(-33 -50 -40 -25 -13 -27 2 11)
1969/12/31/18:00:14.430,(19 -32 -26 1 3 12 -6 0)
1969/12/31/18:00:14.430,(22 83 86 23 -12 -2 4 9)
1969/12/31/18:00:14.436,(53 67 40 15 12 3 19 49)
1969/12/31/18:00:14.436,(-29 -82 -53 -8 3 14 2 -12)
1969/12/31/18:00:14.451,(-19 -56 -59 -17 0 -1 -2 -20)
1969/12/31/18:00:14.451,(-1 17 46 15 16 18 1 7)
1969/12/31/18:00:14.459,(-10 71 49 30 6 -14 -3 -24)
1969/12/31/18:00:14.459,(30 32 28 9 -6 -1 7 20)
1969/12/31/18:00:14.476,(0 -105 -75 -32 -16 -25 -28 8)
1969/12/31/18:00:14.476,(8 32 -1 -10 3 23 20 22)
1969/12/31/18:00:14.476,(2 -74 -34 -18 -23 -27 -20 8)
1969/12/31/18:00:14.476,(-13 55 35 10 -1 18 -1 0)
1969/12/31/18:00:14.492,(-23 23 30 10 3 -7 -3 -23)
1969/12/31/18:00:14.492,(2 -35 -30 4 8 -16 3 16)
1969/12/31/18:00:14.499,(36 -60 -23 -8 5 32 27 47)
1969/12/31/18:00:14.499,(-6 8 -30 -13 3 -10 -20 -34)
1969/12/31/18:00:14.514,(23 58 34 5 -5 6 -6 -6)
1969/12/31/18:00:14.514,(14 34 27 17 -1 -10 2 -2)
1969/12/31/18:00:14.521,(-33 -22 -9 6 13 21 -10 -41)
1969/12/31/18:00:14.521,(-56 -128 -128 -45 -9 -15 -6 -19)
1969/12/31/18:00:14.537,(23 127 104 28 -12 27 21 19)
1969/12/31/18:00:14.537,(5 -107 -101 -23 -9 -6 -15 -15)
1969/12/31/18:00:14.538,(20 31 16 24 8 -43 -26 -29)
1969/12/31/18:00:14.538,(-18 -57 -38 -14 -32 8 -4 0)
1969/12/31/18:00:14.554,(-13 62 78 9 8 -5 -2 -8)
1969/12/31/18:00:14.554,(-59 -89 -54 -17 4 17 18 -2)
1969/12/31/18:00:14.560,(-2 -28 -49 -21 -16 -34 -28 3)
1969/12/31/18:00:14.560,(9 35 12 -3 -5 12 -4 2)
1969/12/31/18:00:14.575,(-27 59 59 31 11 -13 -5 -37)
1969/12/31/18:00:14.575,(45 78 45 14 -4 -1 -4 23)
1969/12/31/18:00:14.583,(-57 -60 -26 -13 7 8 6 -14)
1969/12/31/18:00:14.583,(-17 -50 -32 -9 6 0 9 13)
1969/12/31/18:00:14.607,(-3 -39 -52 -21 -14 9 18 11)
1969/12/31/18:00:14.607,(56 -6 5 16 37 2 -9 26)
1969/12/31/18:00:14.608,(37 76 59 5 -37 2 3 2)
1969/12/31/18:00:14.608,(-29 -13 18 11 8 -2 7 -6)
1969/12/31/18:00:14.623,(-18 -46 -33 -15 2 7 -4 -10)
1969/12/31/18:00:14.623,(48 35 -18 -14 -11 -4 -5 34)
1969/12/31/18:00:14.624,(-3 36 36 24 11 -9 6 -7)
1969/12/31/18:00:14.624,(1 -6 -8 -11 -21 -3 -3 -10)
1969/12/31/18:00:14.638,(8 25 23 0 -13 -10 -8 6)
1969/12/31/18:00:14.638,(-13 -14 -19 -9 -2 -7 5 -17)
1969/12/31/18:00:14.646,(-8 33 13 -6 -1 30 9 3)
1969/12/31/18:00:14.646,(33 -28 6 25 32 20 -10 -1)
1969/12/31/18:00:14.661,(39 -16 -8 -2 -8 -5 32 62)
1969/12/31/18:00:14.661,(-54 4 6 -6 -18 -38 -26 -92)
1969/12/31/18:00:14.669,(-7 19 25 10 18 38 9 8)
1969/12/31/18:00:14.669,(8 -17 -37 -17 -10 -39 -10 -2)
1969/12/31/18:00:14.678,(3 -27 -17 -7 0 4 1 10)
1969/12/31/18:00:14.678,(-36 -75 -60 -16 6 6 0 5)
1969/12/31/18:00:14.684,(-11 74 59 27 19 -22 5 -7)
1969/12/31/18:00:14.685,(17 -41 -39 8 24 41 10 -16)
1969/12/31/18:00:14.701,(-11 -57 -67 -27 -35 -31 -23 12)
1969/12/31/18:00:14.701,(-16 31 50 10 -12 0 19 45)
1969/12/31/18:00:14.708,(-18 -103 -98 -32 -21 -18 -20 -33)
1969/12/31/18:00:14.708,(22 37 34 0 -17 -8 -7 12)
1969/12/31/18:00:14.724,(-39 -9 -11 8 22 -11 -4 -36)
1969/12/31/18:00:14.724,(30 74 72 17 10 12 4 19)
1969/12/31/18:00:14.730,(40 44 2 -9 -19 -7 20 71)
1969/12/31/18:00:14.730,(-3 -2 26 6 9 -5 19 66)
1969/12/31/18:00:14.747,(15 -47 -26 4 21 17 -6 -8)
1969/12/31/18:00:14.747,(-49 -72 -44 -19 -2 1 -15 -28)
1969/12/31/18:00:14.748,(28 39 27 -7 -30 -3 -5 22)
1969/12/31/18:00:14.748,(30 20 12 7 -2 -35 6 25)
1969/12/31/18:00:14.763,(-18 -63 -59 -10 11 13 -2 -21)
1969/12/31/18:00:14.763,(59 54 34 12 -16 13 28 57)
1969/12/31/18:00:14.778,(-16 48 46 24 19 5 0 5)
1969/12/31/18:00:14.778,(-53 30 -13 -29 -34 -18 3 -52)
1969/12/31/18:00:14.785,(18 -62 -26 -3 -5 -22 -34 -15)
1969/12/31/18:00:14.785,(-1 80 38 15 13 19 -18 -63)
1969/12/31/18:00:14.794,(-9 21 50 31 17 5 15 0)
1969/12/31/18:00:14.794,(-21 -66 -44 -12 0 5 -8 -22)
1969/12/31/18:00:14.809,(-43 13 0 4 11 -10 -2 -30)
1969/12/31/18:00:14.809,(34 -27 -23 1 1 11 -8 18)
1969/12/31/18:00:14.810,(-57 -82 -71 -47 -18 -6 -23 -60)
1969/12/31/18:00:14.810,(-29 54 67 26 18 3 -18 -62)
1969/12/31/18:00:14.833,(44 -12 -45 -27 -17 12 10 29)
1969/12/31/18:00:14.833,(-13 -39 -2 1 3 3 7 22)
1969/12/31/18:00:14.833,(23 32 20 17 29 -11 -3 3)
1969/12/31/18:00:14.833,(43 49 34 8 -23 -19 -2 17)
1969/12/31/18:00:14.856,(-58 -29 -1 9 27 38 -5 -20)
1969/12/31/18:00:14.856,(21 -20 -23 -16 -17 10 21 29)
1969/12/31/18:00:14.857,(-8 -61 -58 -13 1 -3 1 -20)
1969/12/31/18:00:14.857,(34 -6 -43 -23 -9 12 3 38)
1969/12/31/18:00:14.872,(12 127 127 57 21 11 17 16)
1969/12/31/18:00:14.872,(-60 -62 -39 -2 -8 -5 10 -8)
1969/12/31/18:00:14.880,(6 -1 -4 -3 -6 -39 -26 -36)
1969/12/31/18:00:14.880,(-58 -49 -45 -7 15 12 -8 -26)
1969/12/31/18:00:14.895,(-2 -9 -11 -16 -25 -23 -16 -42)
1969/12/31/18:00:14.895,(-50 -29 -13 2 36 3 -17 -35)
1969/12/31/18:00:14.895,(15 -74 -83 -46 -61 5 19 51)
1969/12/31/18:00:14.895,(13 117 121 59 39 6 0 13)
1969/12/31/18:00:14.926,(45 12 -4 -9 -13 -15 -3 22)
1969/12/31/18:00:14.926,(-3 -9 -8 -5 7 10 -14 -66)
1969/12/31/18:00:14.927,(-29 -68 -25 -12 -13 -10 -5 8)
1969/12/31/18:00:14.927,(-2 -60 -48 -20 -5 -1 -4 -17)
1969/12/31/18:00:14.943,(-5 54 39 11 1 12 5 8)
1969/12/31/18:00:14.943,(4 -87 -86 -28 4 -6 -1 0)
1969/12/31/18:00:14.943,(18 101 45 12 -6 -21 2 5)
1969/12/31/18:00:14.943,(15 59 71 24 -17 44 24 24)
1969/12/31/18:00:14.957,(-19 -81 -59 -7 2 1 7 37)
1969/12/31/18:00:14.957,(0 -9 -17 -15 -28 -9 -5 6)
1969/12/31/18:00:14.957,(24 -83 -36 -2 18 19 28 65)
1969/12/31/18:00:14.958,(35 -19 -63 -20 -3 -22 -3 16)
1969/12/31/18:00:14.980,(-7 57 59 14 16 -14 -22 -59)
1969/12/31/18:00:14.980,(10 3 -8 -10 -30 -23 -2 24)
1969/12/31/18:00:14.981,(-26 -68 -45 -16 16 39 2 18)
1969/12/31/18:00:14.981,(19 30 2 4 4 -18 -21 -26)
1969/12/31/18:00:15.012,(6 27 28 11 -6 -10 10 24)
1969/12/31/18:00:15.012,(16 71 56 11 -3 -12 13 36)
1969/12/31/18:00:15.013,(-40 -27 -21 -7 -11 -7 -12 -36)
1969/12/31/18:00:15.013,(-9 -65 -44 -7 20 17 -2 -15)
1969/12/31/18:00:15.019,(5 -36 -38 -31 -38 -27 -20 -57)
1969/12/31/18:00:15.019,(-13 63 55 23 12 9 1 1)
1969/12/31/18:00:15.019,(0 -20 -27 -15 2 -2 3 -21)
1969/12/31/18:00:15.019,(16 -34 -18 -5 -2 -10 -4 8)
1969/12/31/18:00:15.042,(-2 67 44 8 -13 2 7 12)
1969/12/31/18:00:15.042,(33 -106 -61 -13 -15 -1 -1 30)
1969/12/31/18:00:15.043,(25 124 75 19 7 11 -6 -30)
1969/12/31/18:00:15.043,(-10 -30 -13 9 10 -16 -2 -13)
1969/12/31/18:00:15.066,(-4 -65 -52 -6 17 14 6 3)
1969/12/31/18:00:15.066,(-37 -19 -11 -15 -17 15 -2 -16)
1969/12/31/18:00:15.067,(-13 -87 -69 -22 4 1 8 14)
1969/12/31/18:00:15.067,(17 83 79 9 -2 -2 -10 -34)
1969/12/31/18:00:15.081,(-3 32 53 35 15 -8 6 17)
1969/12/31/18:00:15.081,(44 98 43 4 5 0 -9 -21)
1969/12/31/18:00:15.082,(-45 -60 -11 12 9 3 -8 -35)
1969/12/31/18:00:15.082,(-14 3 -42 -15 18 4 4 7)
1969/12/31/18:00:15.104,(-10 10 34 11 -3 50 9 2)
1969/12/31/18:00:15.104,(-35 -76 -52 -18 -1 -27 -14 -35)
1969/12/31/18:00:15.105,(63 55 38 21 52 29 0 25)
1969/12/31/18:00:15.105,(21 -53 -47 -41 -50 -14 -1 43)
1969/12/31/18:00:15.128,(0 1 6 3 2 -2 1 -6)
1969/12/31/18:00:15.128,(-4 -1 -9 1 -5 -20 -4 12)
1969/12/31/18:00:15.129,(44 35 34 19 25 16 13 23)
1969/12/31/18:00:15.129,(-45 -35 -46 -12 2 2 12 -5)
1969/12/31/18:00:15.144,(22 28 22 13 3 8 12 40)
1969/12/31/18:00:15.144,(4 -17 5 4 -6 -23 -16 -42)
1969/12/31/18:00:15.144,(-34 -29 -36 1 -2 15 21 33)
1969/12/31/18:00:15.144,(-10 1 5 -14 -23 10 -2 2)
1969/12/31/18:00:15.166,(-3 -63 -67 -24 -3 -3 6 -13)
1969/12/31/18:00:15.166,(9 85 54 29 40 10 15 28)
1969/12/31/18:00:15.167,(-9 -36 1 -9 -40 -40 -44 -51)
1969/12/31/18:00:15.167,(4 30 21 -8 -31 -6 2 5)
1969/12/31/18:00:15.190,(-14 -30 -53 -18 2 -11 14 56)
1969/12/31/18:00:15.190,(-20 -72 3 8 4 15 3 1)
1969/12/31/18:00:15.191,(-6 45 8 2 -9 -41 -17 -6)
1969/12/31/18:00:15.191,(32 20 22 18 37 50 21 31)
1969/12/31/18:00:15.206,(-7 -62 -49 -23 -23 -17 -8 -5)
1969/12/31/18:00:15.206,(-8 40 20 4 3 5 7 37)
1969/12/31/18:00:15.207,(35 10 32 5 -16 -18 -14 -5)
1969/12/31/18:00:15.207,(-15 -7 -4 14 25 11 9 32)
1969/12/31/18:00:15.228,(2 28 19 -4 -20 -27 -9 -14)
1969/12/31/18:00:15.228,(-10 -39 -43 -11 -17 -10 4 0)
1969/12/31/18:00:15.229,(-17 21 16 8 13 24 1 -35)
1969/12/31/18:00:15.229,(13 -31 -18 0 -5 -13 8 12)
1969/12/31/18:00:15.252,(-9 -15 -23 -24 -11 9 -12 -48)
1969/12/31/18:00:15.252,(3 -2 9 -1 -6 -5 -15 -2)
1969/12/31/18:00:15.253,(-6 -24 -26 -6 3 16 20 19)
1969/12/31/18:00:15.253,(26 51 38 23 7 10 12 15)
1969/12/31/18:00:15.268,(-5 4 30 22 18 -5 -26 -33)
1969/12/31/18:00:15.268,(3 31 -8 -10 -11 -14 -12 -36)
1969/12/31/18:00:15.269,(-8 21 24 13 19 3 8 -8)
1969/12/31/18:00:15.269,(9 -46 -31 -6 -13 -15 2 43)
1969/12/31/18:00:15.291,(26 -49 -23 0 9 3 -21 -18)
1969/12/31/18:00:15.291,(48 34 -3 -1 6 13 18 51)
1969/12/31/18:00:15.292,(5 -86 -52 -26 -21 -6 12 28)
1969/12/31/18:00:15.292,(-13 94 95 49 49 12 -8 -29)
1969/12/31/18:00:15.314,(56 70 50 11 -8 28 37 74)
1969/12/31/18:00:15.314,(-54 -28 -5 4 -3 -2 0 -33)
1969/12/31/18:00:15.315,(-43 -58 -43 -19 -5 -15 -32 -79)
1969/12/31/18:00:15.315,(-33 -45 -33 -33 -20 -3 -4 -23)
1969/12/31/18:00:15.330,(-15 -53 -60 -19 4 -15 -10 7)
1969/12/31/18:00:15.330,(23 101 90 31 20 24 -2 -23)
1969/12/31/18:00:15.330,(28 -9 -20 -12 -21 -17 1 28)
1969/12/31/18:00:15.330,(-4 59 79 31 18 -6 -6 -2)
1969/12/31/18:00:15.353,(21 -59 -56 -13 -8 1 1 18)
1969/12/31/18:00:15.353,(26 61 36 4 1 -9 19 69)
1969/12/31/18:00:15.361,(-25 2 19 1 -15 3 -13 -23)
1969/12/31/18:00:15.361,(2 -68 -79 -23 1 -3 -12 -24)
1969/12/31/18:00:15.376,(20 100 95 15 -1 13 18 26)
1969/12/31/18:00:15.376,(-24 -82 -45 0 5 -4 -6 -12)
1969/12/31/18:00:15.377,(-7 73 37 9 5 8 14 -9)
1969/12/31/18:00:15.377,(12 -34 -31 -21 -22 -20 10 38)
1969/12/31/18:00:15.392,(-85 -41 -24 -3 0 -24 -25 -68)
1969/12/31/18:00:15.392,(-30 -29 -22 -9 -13 7 -11 -24)
1969/12/31/18:00:15.392,(3 31 38 14 18 30 7 11)
1969/12/31/18:00:15.392,(-14 -46 -57 -9 3 -16 -6 -18)
1969/12/31/18:00:15.415,(11 69 64 32 12 2 -2 -2)
1969/12/31/18:00:15.415,(0 3 -9 -23 -31 12 7 1)
1969/12/31/18:00:15.416,(-26 -92 -56 -25 -24 -17 -17 -2)
1969/12/31/18:00:15.416,(-14 17 -5 4 7 16 9 -38)
1969/12/31/18:00:15.440,(-10 0 -7 -16 -15 -16 2 7)
1969/12/31/18:00:15.440,(-17 10 22 16 23 8 0 -20)
1969/12/31/18:00:15.440,(17 12 -13 -1 -5 -16 -10 7)
1969/12/31/18:00:15.440,(-25 -78 -15 -10 -11 5 2 -11)
1969/12/31/18:00:15.454,(13 44 21 -3 -5 -10 -5 -5)
1969/12/31/18:00:15.454,(-13 2 -7 4 5 -10 -8 -23)
1969/12/31/18:00:15.454,(-38 -74 -51 -20 -16 -11 -11 -20)
1969/12/31/18:00:15.454,(25 97 54 15 7 -11 -14 -2)
1969/12/31/18:00:15.477,(-7 1 28 18 35 30 15 21)
1969/12/31/18:00:15.477,(33 -2 -39 -8 -16 7 5 5)
1969/12/31/18:00:15.478,(16 127 115 51 21 7 9 35)
1969/12/31/18:00:15.478,(-33 -50 -32 -27 -33 -19 -3 12)
1969/12/31/18:00:15.501,(-14 -41 -50 -13 6 4 -7 -48)
1969/12/31/18:00:15.501,(-24 -49 -32 -24 -25 -6 -22 -7)
1969/12/31/18:00:15.502,(0 -5 -6 -1 10 1 0 3)
1969/12/31/18:00:15.502,(34 37 21 10 10 13 11 33)
1969/12/31/18:00:15.515,(-8 -26 -27 -15 -17 -12 9 36)
1969/12/31/18:00:15.515,(-29 -29 1 4 12 -11 -11 -13)
1969/12/31/18:00:15.523,(10 11 0 -3 2 -9 -6 -33)
1969/12/31/18:00:15.523,(-20 -66 -17 -2 2 16 -6 -23)
1969/12/31/18:00:15.539,(9 10 -26 -7 4 -4 -7 -1)
1969/12/31/18:00:15.539,(5 -15 -23 -11 -4 -4 0 5)
1969/12/31/18:00:15.540,(31 115 108 42 14 6 19 44)
1969/12/31/18:00:15.540,(1 -5 -5 3 -9 -35 -12 -14)
1969/12/31/18:00:15.563,(-5 -17 -21 -5 5 33 -1 -14)
1969/12/31/18:00:15.563,(-7 -37 -34 -15 -8 -23 -9 -9)
1969/12/31/18:00:15.564,(4 -26 -21 -11 11 17 5 18)
1969/12/31/18:00:15.564,(-7 12 9 -5 -8 9 1 9)
1969/12/31/18:00:15.577,(29 -16 -10 5 -2 -2 19 68)
1969/12/31/18:00:15.577,(-2 23 17 0 -3 8 25 -33)
1969/12/31/18:00:15.586,(17 -1 -10 -5 -4 -35 -69 -6)
1969/12/31/18:00:15.586,(-16 12 6 0 -6 -21 -23 -24)
1969/12/31/18:00:15.601,(-42 -38 -13 -7 -1 11 26 -20)
1969/12/31/18:00:15.601,(53 20 14 7 15 38 0 50)
1969/12/31/18:00:15.602,(16 0 -8 -5 -7 6 23 17)
1969/12/31/18:00:15.602,(-18 -7 -2 -3 -1 24 25 2)
1969/12/31/18:00:15.625,(-35 -17 -17 -13 -20 -36 -62 -43)
1969/12/31/18:00:15.626,(-4 12 11 9 6 -25 -4 9)
1969/12/31/18:00:15.626,(68 5 -21 -11 -11 4 3 58)
1969/12/31/18:00:15.626,(63 6 -5 -17 -1 95 93 28)
1969/12/31/18:00:15.649,(-11 -34 -10 13 14 -57 -58 0)
1969/12/31/18:00:15.649,(22 19 23 14 2 -6 33 25)
1969/12/31/18:00:15.650,(-105 -47 -24 -11 -11 -32 -54 -85)
1969/12/31/18:00:15.650,(-14 4 -2 -3 -6 -23 17 -22)
1969/12/31/18:00:15.663,(89 44 13 0 2 26 35 24)
1969/12/31/18:00:15.663,(-42 -31 -13 -12 -13 -10 -10 -4)
1969/12/31/18:00:15.664,(-35 -6 8 6 6 -12 33 0)
1969/12/31/18:00:15.664,(-39 3 15 12 10 2 -1 31)
1969/12/31/18:00:15.687,(-52 2 -9 -10 -15 -5 -7 -67)
1969/12/31/18:00:15.687,(14 15 8 1 -1 -11 -34 -7)
1969/12/31/18:00:15.688,(-44 -27 -15 -10 -6 20 26 -22)
1969/12/31/18:00:15.688,(-17 -28 -13 -9 -8 -27 -54 -41)
1969/12/31/18:00:15.701,(17 -8 3 6 11 65 32 38)
1969/12/31/18:00:15.701,(65 54 11 3 -2 -3 48 -5)
1969/12/31/18:00:15.710,(67 -16 -12 -9 -11 -25 -20 24)
1969/12/31/18:00:15.710,(116 40 17 13 9 9 -17 39)
1969/12/31/18:00:15.726,(-46 47 13 4 0 -4 -3 -37)
1969/12/31/18:00:15.726,(-80 -40 -22 -16 -11 -19 -16 -60)
1969/12/31/18:00:15.727,(-1 21 1 2 9 29 -14 36)
1969/12/31/18:00:15.727,(-72 -47 -6 0 -6 -49 -32 -46)
1969/12/31/18:00:15.749,(17 -14 1 3 7 11 49 19)
1969/12/31/18:00:15.749,(-33 -15 6 9 7 8 1 71)
1969/12/31/18:00:15.750,(63 61 18 8 5 2 24 4)
1969/12/31/18:00:15.750,(20 2 -3 -5 -5 -13 -28 -26)
1969/12/31/18:00:15.764,(-33 -16 -12 -10 -10 -11 -26 -38)
1969/12/31/18:00:15.764,(-62 -10 -2 -1 1 -2 -7 -23)
1969/12/31/18:00:15.773,(40 -14 -5 -5 -2 8 11 -7)
1969/12/31/18:00:15.773,(-30 -14 8 12 9 5 -6 -14)
1969/12/31/18:00:15.787,(65 50 10 -2 -7 -18 -6 11)
1969/12/31/18:00:15.787,(41 -5 -17 -20 -2 5 -8 12)
1969/12/31/18:00:15.796,(-32 -10 -6 -3 -7 4 7 -22)
1969/12/31/18:00:15.796,(-15 12 13 12 7 3 8 26)
1969/12/31/18:00:15.811,(-9 -36 -15 -8 -5 -11 -3 19)
1969/12/31/18:00:15.811,(26 8 8 4 8 9 -5 -17)
1969/12/31/18:00:15.813,(3 -1 -19 0 4 6 11 9)
1969/12/31/18:00:15.813,(1 5 17 -12 -11 -9 -5 11)
1969/12/31/18:00:15.835,(-19 -24 -12 -9 -5 -3 -6 -6)
1969/12/31/18:00:15.835,(41 24 18 22 9 7 6 23)
1969/12/31/18:00:15.836,(-13 -15 -14 -2 2 0 5 -2)
1969/12/31/18:00:15.836,(13 34 18 18 7 0 -5 -9)
1969/12/31/18:00:15.848,(-21 -25 4 1 1 0 -3 -13)
1969/12/31/18:00:15.848,(-42 -95 -78 -59 -27 -8 -6 0)
1969/12/31/18:00:15.858,(23 63 39 18 1 -5 -14 -56)
1969/12/31/18:00:15.858,(-18 7 -17 -1 11 5 0 14)
1969/12/31/18:00:15.873,(-28 57 85 64 14 -4 -14 -35)
1969/12/31/18:00:15.873,(-10 -28 -13 -5 -1 -1 -8 -7)
1969/12/31/18:00:15.875,(-27 -91 -91 -54 -28 -9 0 23)
1969/12/31/18:00:15.875,(-7 41 23 -8 1 -1 -9 -37)
1969/12/31/18:00:15.888,(34 -20 -45 -31 -16 -10 2 28)
1969/12/31/18:00:15.888,(30 32 52 63 21 8 7 1)
1969/12/31/18:00:15.904,(18 -18 -20 -2 5 7 22 67)
1969/12/31/18:00:15.904,(-4 23 21 3 -3 -3 -3 -6)
1969/12/31/18:00:15.913,(2 -18 -18 -4 -2 0 2 21)
1969/12/31/18:00:15.913,(-8 -2 -8 -13 -9 -3 -2 -19)
1969/12/31/18:00:15.920,(7 23 16 3 7 6 11 20)
1969/12/31/18:00:15.921,(1 5 4 9 3 -4 -6 -8)
1969/12/31/18:00:15.935,(10 52 66 10 2 -1 -2 3)
1969/12/31/18:00:15.935,(-4 -23 -29 -21 -15 -5 -5 -1)
1969/12/31/18:00:15.938,(-27 -49 -2 -6 -1 -1 -4 -25)
1969/12/31/18:00:15.938,(18 22 -8 10 0 1 6 15)
1969/12/31/18:00:15.959,(-6 3 -5 -4 0 0 -8 -25)
1969/12/31/18:00:15.959,(6 5 -18 -7 4 6 6 8)
1969/12/31/18:00:15.960,(-10 4 20 1 -6 -7 -4 -8)
1969/12/31/18:00:15.960,(7 16 12 -9 -3 -1 5 6)
1969/12/31/18:00:15.974,(9 4 -1 11 3 2 10 20)
1969/12/31/18:00:15.974,(10 60 64 45 16 2 -8 -10)
1969/12/31/18:00:15.981,(-14 -25 -14 -3 1 -1 -2 -4)
1969/12/31/18:00:15.981,(-4 -48 -51 -22 -16 -6 -6 -4)
1969/12/31/18:00:15.998,(4 -10 -26 -22 -9 -5 3 15)
1969/12/31/18:00:15.998,(-16 -36 -9 -26 -13 -8 -15 -10)
1969/12/31/18:00:16.000,(-14 -16 -36 -18 -7 -3 -3 -20)
1969/12/31/18:00:16.000,(30 68 77 54 24 10 6 13)
1969/12/31/18:00:16.021,(-15 -96 -71 -21 -3 1 1 -4)
1969/12/31/18:00:16.021,(19 79 45 16 5 2 2 9)
1969/12/31/18:00:16.022,(4 52 61 28 1 -1 -7 -9)
1969/12/31/18:00:16.022,(-34 -125 -90 -51 -23 -4 0 -8)
1969/12/31/18:00:16.035,(18 95 53 25 14 0 -16 -17)
1969/12/31/18:00:16.035,(-20 -55 -54 -11 1 4 6 -5)
1969/12/31/18:00:16.045,(-8 -19 -4 -6 -1 3 -3 -6)
1969/12/31/18:00:16.045,(9 24 33 16 7 4 17 5)
1969/12/31/18:00:16.060,(-11 -29 -9 -1 -6 -6 -12 -11)
1969/12/31/18:00:16.060,(-1 -7 -12 -14 -11 -7 -8 -7)
1969/12/31/18:00:16.062,(11 40 37 25 8 1 6 4)
1969/12/31/18:00:16.062,(-7 -20 -18 -7 -1 -3 -14 -4)
1969/12/31/18:00:16.083,(-6 -26 -28 -18 -9 -1 10 0)
1969/12/31/18:00:16.083,(6 17 13 8 5 1 0 1)
1969/12/31/18:00:16.085,(-6 -31 -20 -9 -2 1 2 -2)
1969/12/31/18:00:16.086,(4 33 12 -9 -4 -3 -4 -2)
1969/12/31/18:00:16.107,(-5 -15 -10 -8 -5 -5 -3 0)
1969/12/31/18:00:16.107,(13 47 27 21 13 3 2 4)
1969/12/31/18:00:16.109,(-2 -4 -12 5 7 3 2 -1)
1969/12/31/18:00:16.109,(-5 -18 -6 8 1 -1 -4 -2)
1969/12/31/18:00:16.130,(6 14 -14 -7 -5 0 1 4)
1969/12/31/18:00:16.130,(-3 -6 -4 -6 0 -2 -4 -3)
1969/12/31/18:00:16.132,(-6 -5 -15 -20 -5 -2 -6 -8)
1969/12/31/18:00:16.132,(0 -2 -8 6 -1 -3 -2 -3)
1969/12/31/18:00:16.146,(-6 -30 -34 -16 -4 -1 1 3)
1969/12/31/18:00:16.146,(0 -13 4 -1 -4 -1 1 2)
1969/12/31/18:00:16.147,(6 33 13 0 0 1 0 1)
1969/12/31/18:00:16.147,(-7 -14 -4 -9 -9 -5 -4 -2)
1969/12/31/18:00:16.160,(-4 -7 -10 -9 -3 -2 -1 -1)
1969/12/31/18:00:16.160,(12 19 27 16 11 3 3 1)
1969/12/31/18:00:16.168,(1 -4 -3 3 -1 0 0 -1)
1969/12/31/18:00:16.168,(-7 -13 -9 -4 -3 -3 -2 -4)
1969/12/31/18:00:16.184,(-2 -7 2 -1 -1 0 -2 1)
1969/12/31/18:00:16.184,(-4 -7 -8 -7 -6 -1 1 0)
1969/12/31/18:00:16.186,(3 4 13 8 1 0 -1 1)
1969/12/31/18:00:16.186,(-1 -8 -10 -5 -3 0 -3 -1)
1969/12/31/18:00:16.208,(0 5 14 5 3 -1 -1 -1)
1969/12/31/18:00:16.208,(-3 -6 -3 -1 -1 -2 -1 -1)
1969/12/31/18:00:16.210,(-1 1 3 2 0 -1 1 1)
1969/12/31/18:00:16.210,(-2 -1 -9 -8 -1 -2 -1 -3)
1969/12/31/18:00:16.222,(2 2 7 2 2 -1 1 -1)
1969/12/31/18:00:16.222,(2 2 4 3 -1 -3 -1 -1)
1969/12/31/18:00:16.230,(-2 0 -4 -2 -2 -1 -1 1)
1969/12/31/18:00:16.230,(-2 -2 -1 -2 -2 0 0 1)
1969/12/31/18:00:16.247,(-5 -10 -4 -1 0 1 -1 0)
1969/12/31/18:00:16.247,(0 5 3 -9 -7 -4 -4 -3)
1969/12/31/18:00:16.248,(6 16 -6 5 3 0 0 1)
1969/12/31/18:00:16.248,(-4 -11 -9 -4 -2 -1 -1 -4)
1969/12/31/18:00:16.270,(1 0 -3 -1 0 -1 -2 0)
1969/12/31/18:00:16.270,(-9 -27 -1 -5 -3 0 0 -1)
1969/12/31/18:00:16.272,(3 10 14 9 2 0 -1 2)
1969/12/31/18:00:16.272,(3 9 4 2 -2 -4 -3 -3)
1969/12/31/18:00:16.301,(-2 -6 -6 1 0 1 1 1)
1969/12/31/18:00:16.301,(-6 -9 -9 -7 -3 -2 -3 -5)
1969/12/31/18:00:16.302,(-5 -14 -5 -8 -2 -1 -2 -5)
1969/12/31/18:00:16.302,(-1 0 -2 -1 -1 -1 1 0)
1969/12/31/18:00:16.308,(-1 9 11 5 2 -2 -1 -1)
1969/12/31/18:00:16.308,(-2 -4 -6 2 2 2 -3 0)
1969/12/31/18:00:16.310,(-3 -1 1 -2 -1 2 0 -1)
1969/12/31/18:00:16.310,(2 6 -2 -3 -1 1 -2 0)
1969/12/31/18:00:16.331,(-2 -5 1 0 -2 -2 -2 -1)
1969/12/31/18:00:16.331,(0 5 0 2 0 0 1 2)
1969/12/31/18:00:16.339,(-4 -5 -2 -2 -3 -4 -3 -4)
1969/12/31/18:00:16.339,(4 0 0 -1 0 -2 1 2)
1969/12/31/18:00:16.346,(-5 -5 1 1 -2 -4 -1 -5)
1969/12/31/18:00:16.346,(-1 -3 -8 -6 -4 -2 0 -2)
1969/12/31/18:00:16.356,(1 5 5 0 -2 -2 -1 1)
1969/12/31/18:00:16.356,(0 1 0 -4 -3 0 1 2)
1969/12/31/18:00:16.371,(2 8 9 2 -5 -1 -1 1)
1969/12/31/18:00:16.371,(3 8 0 1 1 -1 0 0)
1969/12/31/18:00:16.372,(-2 -4 0 -1 1 0 0 0)
1969/12/31/18:00:16.372,(-3 -3 -6 -5 1 -1 -2 -2)
1969/12/31/18:00:16.394,(-1 1 1 -2 3 4 0 -1)
1969/12/31/18:00:16.394,(-2 -5 -5 -2 0 -1 -1 -4)
1969/12/31/18:00:16.396,(0 -1 -2 0 1 1 -2 1)
1969/12/31/18:00:16.396,(-2 -3 1 2 2 -2 -1 0)
1969/12/31/18:00:16.409,(-1 1 0 -1 2 1 -1 -1)
1969/12/31/18:00:16.409,(-2 -3 -3 -2 -1 -2 -2 -1)
1969/12/31/18:00:16.418,(0 1 3 0 1 -1 2 0)
1969/12/31/18:00:16.418,(-1 0 -1 -1 -1 -1 -3 -2)
1969/12/31/18:00:16.432,(-3 -6 -3 -2 1 -2 -2 -3)
1969/12/31/18:00:16.432,(0 0 -2 -1 -2 1 0 -2)
1969/12/31/18:00:16.434,(0 0 1 0 -2 -1 -1 0)
1969/12/31/18:00:16.434,(1 1 2 3 1 3 2 2)
1969/12/31/18:00:16.456,(-1 -1 -3 1 -1 -1 -2 -1)
1969/12/31/18:00:16.456,(-1 -2 -4 -2 0 1 0 0)
1969/12/31/18:00:16.458,(-2 -2 -2 -1 -1 -1 -2 -4)
1969/12/31/18:00:16.458,(-1 -3 -2 -4 -2 0 0 -2)
1969/12/31/18:00:16.471,(2 1 1 -1 -3 -1 -1 1)
1969/12/31/18:00:16.471,(0 1 2 4 2 -1 -2 0)
1969/12/31/18:00:16.479,(1 -2 -2 0 3 2 0 1)
1969/12/31/18:00:16.480,(-2 0 -1 1 -3 2 -4 0)
1969/12/31/18:00:16.494,(-5 -9 -7 -3 -3 -3 -3 -2)
1969/12/31/18:00:16.494,(-1 -2 -7 -3 -3 -3 -1 0)
1969/12/31/18:00:16.497,(1 6 13 7 2 -4 1 0)
1969/12/31/18:00:16.497,(-1 -3 -1 1 0 -4 -1 -2)
1969/12/31/18:00:16.497,(-2 2 2 -3 0 0 -1 1)
1969/12/31/18:00:16.497,(3 0 2 2 2 1 3 1)
1969/12/31/18:00:16.499,(-4 0 1 -1 -2 -3 -3 -3)
1969/12/31/18:00:16.499,(0 0 -1 -2 1 -1 1 -1)
1969/12/31/18:00:16.520,(-2 -2 -3 -1 0 -1 -1 -1)
1969/12/31/18:00:16.520,(0 -5 -4 -4 -2 -1 0 -1)
1969/12/31/18:00:16.521,(2 3 1 -2 0 1 2 4)
1969/12/31/18:00:16.521,(-4 -4 -6 -7 -4 -2 -3 -3)
1969/12/31/18:00:16.534,(1 3 4 4 0 -2 -1 1)
1969/12/31/18:00:16.534,(-3 0 0 4 0 -1 -2 -3)
1969/12/31/18:00:16.543,(-2 -4 -8 -7 -3 -1 0 -4)
1969/12/31/18:00:16.543,(-1 2 3 2 0 -1 0 -1)
1969/12/31/18:00:16.559,(-1 -1 0 3 0 0 0 -1)
1969/12/31/18:00:16.559,(-1 -1 -4 -2 -2 -2 -2 -1)
1969/12/31/18:00:16.561,(-1 -1 2 5 2 0 0 1)
1969/12/31/18:00:16.561,(-1 -2 -3 -5 -2 -1 -1 -2)
1969/12/31/18:00:16.581,(-3 -8 -9 -9 -3 -1 -1 -3)
1969/12/31/18:00:16.581,(-1 -1 -4 -3 -3 -3 -1 -2)
1969/12/31/18:00:16.583,(2 1 -1 1 0 0 0 -1)
1969/12/31/18:00:16.583,(-3 -5 -6 -6 -3 0 -2 0)
1969/12/31/18:00:16.596,(-1 2 11 8 4 -2 0 -2)
1969/12/31/18:00:16.596,(-5 0 2 2 -1 0 -3 -2)
1969/12/31/18:00:16.605,(-2 0 -12 1 0 -1 -2 0)
1969/12/31/18:00:16.605,(3 -1 10 11 3 2 2 2)
1969/12/31/18:00:16.620,(-5 7 -1 -9 -4 -4 -7 -9)
1969/12/31/18:00:16.620,(-1 5 5 1 0 -2 -1 -2)
1969/12/31/18:00:16.627,(-3 -6 2 5 1 2 2 -1)
1969/12/31/18:00:16.627,(0 -3 -11 0 2 -1 -1 0)
1969/12/31/18:00:16.644,(-4 -5 -8 -15 -8 -3 0 -3)
1969/12/31/18:00:16.644,(-5 -2 -3 -20 -8 -5 -5 -4)
1969/12/31/18:00:16.646,(2 6 7 26 9 0 -1 0)
1969/12/31/18:00:16.646,(0 0 3 4 -1 0 2 1)
1969/12/31/18:00:16.658,(3 1 2 5 0 -1 -2 1)
1969/12/31/18:00:16.658,(-1 1 12 2 4 3 1 0)
1969/12/31/18:00:16.667,(-5 -14 -21 -39 -14 -2 0 -3)
1969/12/31/18:00:16.667,(2 -2 -5 1 -1 0 5 6)
1969/12/31/18:00:16.682,(0 3 12 20 6 0 -1 0)
1969/12/31/18:00:16.682,(-2 4 -3 -1 -4 -8 -24 -8)
1969/12/31/18:00:16.689,(-1 -3 1 -10 -2 3 7 1)
1969/12/31/18:00:16.689,(-4 -6 -4 1 0 1 -1 1)
1969/12/31/18:00:16.706,(-4 -12 -11 -22 -3 2 8 5)
1969/12/31/18:00:16.706,(4 3 -9 23 8 4 7 4)
1969/12/31/18:00:16.708,(0 7 38 28 6 3 -3 -2)
1969/12/31/18:00:16.708,(-2 1 -9 -30 -12 -4 -5 -4)
1969/12/31/18:00:16.720,(3 0 -3 12 -1 -4 -5 -4)
1969/12/31/18:00:16.720,(-4 -16 -21 -18 -6 -1 5 3)
1969/12/31/18:00:16.729,(0 -2 -23 -22 -7 -4 -3 -1)
1969/12/31/18:00:16.729,(4 12 35 27 11 3 4 3)
1969/12/31/18:00:16.744,(-5 -10 -16 -21 -6 1 0 2)
1969/12/31/18:00:16.744,(0 -5 -3 11 5 4 6 6)
1969/12/31/18:00:16.751,(0 9 17 23 2 -6 -6 -7)
1969/12/31/18:00:16.751,(-5 -7 -25 -30 -10 -6 -7 -7)
1969/12/31/18:00:16.768,(0 4 11 27 8 3 -1 -1)
1969/12/31/18:00:16.769,(-3 -7 -10 -19 -9 -7 -1 -2)
1969/12/31/18:00:16.770,(2 6 3 -6 0 0 2 3)
1969/12/31/18:00:16.770,(-1 7 11 24 5 -3 -7 -9)
1969/12/31/18:00:16.782,(1 -1 -8 -13 -2 0 0 1)
1969/12/31/18:00:16.782,(1 -2 7 5 1 -1 1 -1)
1969/12/31/18:00:16.792,(-4 -6 -30 -30 -7 -3 -2 -2)
1969/12/31/18:00:16.792,(1 4 36 18 2 1 4 5)
1969/12/31/18:00:16.806,(0 -2 -4 1 -1 1 2 6)
1969/12/31/18:00:16.806,(0 3 7 2 1 -1 1 -1)
1969/12/31/18:00:16.813,(-4 -6 -10 -9 -5 -4 -10 -6)
1969/12/31/18:00:16.813,(-2 -3 -15 -10 1 0 0 -4)
1969/12/31/18:00:16.831,(-3 -2 0 1 0 0 3 0)
1969/12/31/18:00:16.831,(-2 -1 4 -1 -1 2 0 0)
1969/12/31/18:00:16.832,(2 -2 0 0 -1 -2 2 2)
1969/12/31/18:00:16.832,(-3 -5 -11 0 -1 3 2 5)
1969/12/31/18:00:16.854,(-1 3 6 -1 -3 -4 -10 -11)
1969/12/31/18:00:16.854,(2 0 -5 -2 -1 2 2 0)
1969/12/31/18:00:16.855,(-1 -3 2 7 2 -1 -2 -2)
1969/12/31/18:00:16.856,(-2 -19 -11 -3 -3 0 1 1)
1969/12/31/18:00:16.868,(0 -2 -20 -11 -5 -4 -1 -2)
1969/12/31/18:00:16.868,(4 26 34 14 4 2 1 -1)
1969/12/31/18:00:16.884,(-2 -14 0 5 2 0 1 0)
1969/12/31/18:00:16.884,(-2 -2 -8 -5 -4 -2 -4 8)
1969/12/31/18:00:16.893,(-2 0 -2 -3 -1 1 -1 -1)
1969/12/31/18:00:16.893,(-1 -11 -5 -2 -3 -1 -2 -2)
1969/12/31/18:00:16.894,(-4 -10 -8 -4 -4 -3 -4 -3)
1969/12/31/18:00:16.894,(5 26 22 7 4 -1 0 -4)
1969/12/31/18:00:16.916,(-1 3 1 0 -1 -1 -2 -3)
1969/12/31/18:00:16.916,(-1 8 3 -1 2 -1 -1 2)
1969/12/31/18:00:16.918,(-2 -6 1 -1 1 1 1 -1)
1969/12/31/18:00:16.918,(-8 -19 -20 -10 -3 -1 0 -2)
1969/12/31/18:00:16.930,(-1 1 4 -1 0 -1 2 5)
1969/12/31/18:00:16.930,(0 -3 4 3 2 2 1 -1)
1969/12/31/18:00:16.938,(-1 1 0 -2 0 -1 1 2)
1969/12/31/18:00:16.938,(0 -1 -8 -3 -2 -2 -3 -3)
1969/12/31/18:00:16.955,(0 0 2 -1 -1 0 2 0)
1969/12/31/18:00:16.955,(-3 -12 -13 -5 -3 -1 0 0)
1969/12/31/18:00:16.956,(5 7 1 3 1 0 -3 -2)
1969/12/31/18:00:16.956,(-3 4 0 0 2 -1 -5 -5)
1969/12/31/18:00:16.978,(3 -7 -2 -5 -3 -1 3 4)
1969/12/31/18:00:16.978,(-4 -5 -4 -2 1 -2 -5 -5)
1969/12/31/18:00:16.979,(-7 1 3 0 -2 1 3 0)
1969/12/31/18:00:16.979,(4 1 -3 -3 -2 -4 -5 -7)
1969/12/31/18:00:16.992,(-4 -4 2 -1 0 -1 -4 -2)
1969/12/31/18:00:16.992,(2 6 -3 -4 -2 0 1 2)
1969/12/31/18:00:17.000,(1 3 2 1 1 -2 -1 5)
1969/12/31/18:00:17.000,(-7 -22 -10 -7 -5 -3 -3 -8)
1969/12/31/18:00:17.017,(26 12 3 1 -2 -1 -1 1)
1969/12/31/18:00:17.017,(-19 -3 -4 1 -1 -2 -2 -5)
1969/12/31/18:00:17.018,(-39 -2 5 1 0 -3 -1 -7)
1969/12/31/18:00:17.018,(30 10 -2 -3 -3 0 0 13)
1969/12/31/18:00:17.040,(-2 -8 -2 0 -1 -2 -12 -14)
1969/12/31/18:00:17.040,(-6 -18 -6 -2 -1 1 -2 2)
1969/12/31/18:00:17.041,(-6 -5 -10 -8 -7 -10 -5 -4)
1969/12/31/18:00:17.041,(-11 4 1 2 3 11 13 -4)
1969/12/31/18:00:17.054,(-8 3 2 2 0 -5 -7 3)
1969/12/31/18:00:17.054,(28 18 5 2 0 -3 -7 5)
1969/12/31/18:00:17.062,(-11 -14 -5 0 0 1 6 6)
1969/12/31/18:00:17.062,(-6 -11 -6 -5 -6 -9 -9 -13)
1969/12/31/18:00:17.079,(15 9 1 0 0 0 7 6)
1969/12/31/18:00:17.079,(-24 10 8 5 5 2 5 -6)
1969/12/31/18:00:17.080,(27 -2 1 1 -1 2 0 5)
1969/12/31/18:00:17.080,(-8 -8 -9 -5 -5 -12 -14 -8)
1969/12/31/18:00:17.102,(-2 1 2 2 6 18 16 7)
1969/12/31/18:00:17.102,(-17 -4 -6 -7 -5 0 21 1)
1969/12/31/18:00:17.103,(20 21 13 8 3 4 -37 -11)
1969/12/31/18:00:17.104,(16 9 -3 -4 -2 -4 -6 13)
1969/12/31/18:00:17.117,(-32 -36 3 8 7 11 0 -14)
1969/12/31/18:00:17.117,(3 10 -7 -7 -9 -24 -20 -14)
1969/12/31/18:00:17.126,(1 -5 -1 -5 -2 3 10 4)
1969/12/31/18:00:17.126,(5 22 15 9 6 5 -1 -3)
1969/12/31/18:00:17.140,(1 0 1 2 -4 -11 -8 -26)
1969/12/31/18:00:17.140,(18 6 2 2 4 14 8 37)
1969/12/31/18:00:17.142,(-5 -28 -17 -5 -3 -1 11 13)
1969/12/31/18:00:17.142,(-32 -23 -14 -14 -12 -5 -11 -31)
1969/12/31/18:00:17.164,(-9 10 9 7 5 -2 17 22)
1969/12/31/18:00:17.164,(4 -24 -6 -1 0 0 -11 17)
1969/12/31/18:00:17.166,(21 11 -5 -5 -5 -10 56 4)
1969/12/31/18:00:17.166,(-17 -7 5 6 11 17 -23 3)
1969/12/31/18:00:17.179,(13 27 0 -1 -4 2 0 2)
1969/12/31/18:00:17.179,(-2 8 -3 -4 -4 -8 -6 -14)
1969/12/31/18:00:17.188,(43 32 3 -1 0 8 -1 35)
1969/12/31/18:00:17.188,(-53 -53 -15 -5 -2 1 8 -28)
1969/12/31/18:00:17.203,(-3 -6 9 5 0 -20 -22 -10)
1969/12/31/18:00:17.203,(-58 -34 -17 -8 -1 18 16 -47)
1969/12/31/18:00:17.205,(28 21 9 2 -3 -20 -10 5)
1969/12/31/18:00:17.205,(17 5 3 3 4 -5 36 38)
1969/12/31/18:00:17.234,(21 11 -8 -8 -6 25 -15 5)
1969/12/31/18:00:17.234,(-18 -4 -4 -2 -2 -11 1 -8)
1969/12/31/18:00:17.236,(8 -13 -6 -5 -6 3 -30 5)
1969/12/31/18:00:17.236,(0 12 5 3 -1 -5 26 4)
1969/12/31/18:00:17.241,(48 11 -2 -2 -3 -22 -9 6)
1969/12/31/18:00:17.241,(16 5 5 1 2 14 -6 11)
1969/12/31/18:00:17.250,(-60 -35 -14 -10 -7 -2 -20 -55)
1969/12/31/18:00:17.250,(51 42 22 7 2 3 -12 13)
1969/12/31/18:00:17.273,(16 8 -3 -4 2 0 1 9)
1969/12/31/18:00:17.273,(-37 -36 -11 1 -7 -19 15 -25)
1969/12/31/18:00:17.274,(-11 -3 2 5 5 -7 -9 -1)
1969/12/31/18:00:17.274,(18 21 0 -3 2 12 -16 -6)
1969/12/31/18:00:17.288,(-32 -23 -13 -7 -4 7 12 -5)
1969/12/31/18:00:17.288,(59 19 8 4 -2 -18 -3 12)
1969/12/31/18:00:17.291,(-57 -16 2 4 5 14 22 -8)
1969/12/31/18:00:17.291,(11 13 -4 -5 -4 -7 -18 -21)
1969/12/31/18:00:17.303,(13 11 12 7 3 -2 14 27)
1969/12/31/18:00:17.303,(-24 -41 -16 -8 -4 -5 -15 -18)
1969/12/31/18:00:17.312,(-44 5 5 5 1 1 -24 -56)
1969/12/31/18:00:17.312,(56 -2 -10 -7 -5 6 23 26)
1969/12/31/18:00:17.328,(65 8 -7 -8 -10 -18 -19 49)
1969/12/31/18:00:17.328,(-30 10 12 3 4 12 4 -11)
1969/12/31/18:00:17.329,(-2 -11 -7 -6 -8 -18 -14 -19)
1969/12/31/18:00:17.329,(-9 -9 0 4 4 0 2 54)
1969/12/31/18:00:17.351,(-16 9 1 3 4 3 16 -25)
1969/12/31/18:00:17.351,(-13 8 2 1 2 -2 -19 -16)
1969/12/31/18:00:17.353,(78 14 2 -1 1 21 23 53)
1969/12/31/18:00:17.353,(-48 -11 1 1 -3 -7 -2 -19)
1969/12/31/18:00:17.365,(-40 -18 -12 -8 -7 -3 10 -26)
1969/12/31/18:00:17.365,(12 31 16 8 6 4 -21 8)
1969/12/31/18:00:17.381,(15 -23 -10 -3 -1 -7 -3 -14)
1969/12/31/18:00:17.381,(-18 -9 -5 -2 -3 -3 6 -24)
1969/12/31/18:00:17.390,(-58 -18 -1 2 6 24 8 -15)
1969/12/31/18:00:17.390,(19 4 -7 -7 -8 -12 -5 4)
1969/12/31/18:00:17.391,(-18 1 5 4 2 2 12 10)
1969/12/31/18:00:17.391,(-38 -16 -7 -3 -3 -10 -24 -43)
1969/12/31/18:00:17.413,(21 -3 -7 -8 -9 -8 -13 -18)
1969/12/31/18:00:17.413,(29 5 -2 -3 4 11 -10 23)
1969/12/31/18:00:17.415,(13 12 2 0 0 2 26 11)
1969/12/31/18:00:17.415,(-18 7 6 5 4 -4 -31 -21)
1969/12/31/18:00:17.427,(20 6 6 5 6 -10 43 2)
1969/12/31/18:00:17.427,(-22 -13 -8 -7 -12 -34 -51 -48)
1969/12/31/18:00:17.436,(-17 7 5 2 3 -12 -34 -20)
1969/12/31/18:00:17.436,(14 5 4 4 7 22 22 27)
1969/12/31/18:00:17.451,(-29 2 3 2 -4 -15 -16 -6)
1969/12/31/18:00:17.451,(45 6 2 6 6 12 28 26)
1969/12/31/18:00:17.453,(-29 -2 0 -4 0 -1 -3 -19)
1969/12/31/18:00:17.453,(-12 6 3 1 -3 -8 2 1)
1969/12/31/18:00:17.475,(-28 -25 -10 -5 0 15 -7 7)
1969/12/31/18:00:17.475,(-13 -2 -1 -3 -1 2 21 1)
1969/12/31/18:00:17.477,(10 16 5 8 6 1 -8 7)
1969/12/31/18:00:17.477,(21 10 3 3 10 21 24 21)
1969/12/31/18:00:17.489,(-36 -11 -6 -14 -23 -24 -21 -22)
1969/12/31/18:00:17.489,(14 5 5 15 17 14 18 -22)
1969/12/31/18:00:17.499,(-28 -7 -1 1 11 7 -1 -12)
1969/12/31/18:00:17.499,(14 0 -5 -3 16 27 11 23)
1969/12/31/18:00:17.513,(-13 -5 -3 2 -27 -29 -6 -7)
1969/12/31/18:00:17.513,(49 10 -5 -12 -22 -26 -7 38)
1969/12/31/18:00:17.515,(4 -19 -10 -6 -20 -9 8 14)
1969/12/31/18:00:17.515,(4 -3 -2 -7 15 23 6 -3)
1969/12/31/18:00:17.537,(-27 -16 -14 -19 0 6 -8 -24)
1969/12/31/18:00:17.537,(-4 1 5 2 9 34 28 41)
1969/12/31/18:00:17.538,(20 11 1 1 -4 -19 -12 11)
1969/12/31/18:00:17.538,(-41 -13 -4 4 -3 -3 2 -11)
1969/12/31/18:00:17.551,(42 13 6 13 20 2 24 42)
1969/12/31/18:00:17.551,(-31 -4 1 2 -2 -1 -3 -18)
1969/12/31/18:00:17.561,(-8 0 -1 -2 3 -2 6 -13)
1969/12/31/18:00:17.561,(34 7 -2 7 4 -11 -27 -31)
1969/12/31/18:00:17.575,(42 5 10 23 9 8 1 30)
1969/12/31/18:00:17.575,(7 -6 -11 -21 -18 -15 7 15)
1969/12/31/18:00:17.577,(-26 -23 -17 -35 -31 10 7 -14)
1969/12/31/18:00:17.577,(-19 -4 -2 -10 -14 -31 -41 0)
1969/12/31/18:00:17.607,(-4 3 -2 2 12 23 7 -12)
1969/12/31/18:00:17.607,(-8 2 6 20 33 8 -8 -10)
1969/12/31/18:00:17.608,(7 8 5 11 9 8 8 28)
1969/12/31/18:00:17.608,(17 -13 -12 -12 -31 -29 -2 14)
1969/12/31/18:00:17.613,(-14 -5 -1 0 12 12 2 17)
1969/12/31/18:00:17.613,(-5 8 -6 -13 -18 -17 -19 -24)
1969/12/31/18:00:17.623,(-5 -41 -28 -1 14 11 3 6)
1969/12/31/18:00:17.623,(51 85 55 26 13 -10 9 14)
1969/12/31/18:00:17.637,(-22 2 10 3 -11 7 -16 -34)
1969/12/31/18:00:17.637,(11 -30 -27 -14 -15 -21 4 42)
1969/12/31/18:00:17.645,(35 33 17 14 19 29 13 20)
1969/12/31/18:00:17.645,(16 -9 -32 -8 0 -4 -12 -47)
1969/12/31/18:00:17.660,(15 13 28 -4 -6 -8 -2 -13)
1969/12/31/18:00:17.660,(-4 0 20 9 -7 -1 3 -2)
1969/12/31/18:00:17.669,(3 -36 -66 -25 -18 -11 -13 4)
1969/12/31/18:00:17.669,(-15 27 36 6 -14 -20 0 -13)
1969/12/31/18:00:17.676,(-13 -15 -64 -31 6 18 1 22)
1969/12/31/18:00:17.676,(0 68 77 24 21 25 -1 -13)
1969/12/31/18:00:17.685,(-54 -39 35 29 21 7 2 -44)
1969/12/31/18:00:17.685,(39 7 -10 -7 11 5 0 -30)
1969/12/31/18:00:17.699,(6 1 15 4 -22 -2 6 9)
1969/12/31/18:00:17.699,(1 -75 -102 -30 5 2 -4 -23)
1969/12/31/18:00:17.707,(-1 113 50 5 -16 -30 -19 -35)
1969/12/31/18:00:17.707,(-26 -34 -3 -9 5 31 14 14)
1969/12/31/18:00:17.723,(-7 -45 -30 -12 -6 -15 -1 -3)
1969/12/31/18:00:17.723,(-4 0 -15 5 -6 3 3 4)
1969/12/31/18:00:17.725,(0 -68 4 19 14 2 -7 -15)
1969/12/31/18:00:17.725,(-38 18 -26 -13 5 -11 1 -12)
1969/12/31/18:00:17.738,(12 3 -24 -9 -1 24 8 24)
1969/12/31/18:00:17.738,(5 -29 -1 -10 -14 -6 0 17)
1969/12/31/18:00:17.754,(-28 -4 -22 -8 1 -30 -5 4)
1969/12/31/18:00:17.754,(-1 69 86 38 -23 14 0 12)
1969/12/31/18:00:17.762,(-29 -92 -74 -14 7 29 -22 -66)
1969/12/31/18:00:17.762,(11 44 -1 -4 9 -26 0 0)
1969/12/31/18:00:17.768,(56 89 90 19 9 0 17 55)
1969/12/31/18:00:17.769,(-24 -127 -100 -29 -2 13 13 47)
1969/12/31/18:00:17.785,(-42 127 90 12 -12 -8 -17 -20)
1969/12/31/18:00:17.785,(52 38 -6 9 2 25 31 25)
1969/12/31/18:00:17.787,(-14 -90 -122 -33 -8 -12 -8 -7)
1969/12/31/18:00:17.787,(-14 87 76 45 18 -12 -3 -14)
1969/12/31/18:00:17.808,(6 -8 19 10 1 -36 -4 21)
1969/12/31/18:00:17.808,(-59 -18 10 18 33 25 -12 -17)
1969/12/31/18:00:17.810,(-8 -58 -51 -49 -42 22 -12 -40)
1969/12/31/18:00:17.810,(22 -59 -79 -36 -18 -31 11 33)
1969/12/31/18:00:17.824,(-20 -14 37 12 8 10 -7 -7)
1969/12/31/18:00:17.824,(-47 -55 -82 -41 -11 -9 -39 -73)
1969/12/31/18:00:17.831,(59 116 107 109 57 24 27 35)
1969/12/31/18:00:17.831,(31 -119 -82 -34 -10 -5 -9 36)
1969/12/31/18:00:17.847,(11 -66 -51 -23 -43 -24 4 14)
1969/12/31/18:00:17.847,(20 -32 -43 -21 -14 17 20 23)
1969/12/31/18:00:17.850,(3 -43 -10 -21 -22 -16 -21 -13)
1969/12/31/18:00:17.850,(0 59 23 6 6 -32 -18 -11)
1969/12/31/18:00:17.871,(-41 -92 -70 -15 12 31 18 13)
1969/12/31/18:00:17.871,(8 49 67 10 -5 -7 12 -44)
1969/12/31/18:00:17.872,(21 111 84 41 11 34 5 33)
1969/12/31/18:00:17.872,(-32 19 15 9 8 -20 -9 -27)
1969/12/31/18:00:17.886,(101 -91 -100 -18 12 -15 7 62)
1969/12/31/18:00:17.886,(-72 -34 -9 -27 -51 -4 -25 -44)
1969/12/31/18:00:17.892,(-28 14 -23 -17 -9 -37 -4 -26)
1969/12/31/18:00:17.892,(29 -51 -56 -28 -25 19 10 19)
1969/12/31/18:00:17.910,(-18 78 58 15 4 -25 -6 -11)
1969/12/31/18:00:17.910,(-10 31 41 18 -5 -10 1 -4)
1969/12/31/18:00:17.911,(21 -28 -44 -8 -18 -35 -20 1)
1969/12/31/18:00:17.911,(-13 -38 -24 -32 6 40 -5 -21)
1969/12/31/18:00:17.941,(16 55 44 30 12 0 17 0)
1969/12/31/18:00:17.941,(-12 -66 -40 -6 3 9 10 19)
1969/12/31/18:00:17.943,(-46 -76 -66 -22 -21 -30 -13 -50)
1969/12/31/18:00:17.943,(-35 -57 -16 3 -5 6 10 -26)
1969/12/31/18:00:17.956,(-4 -73 -76 -26 4 -17 -21 -20)
1969/12/31/18:00:17.956,(55 127 114 35 -3 -18 3 14)
1969/12/31/18:00:17.958,(12 -14 -7 14 12 4 17 25)
1969/12/31/18:00:17.958,(-37 -70 -51 5 30 50 12 -21)
1969/12/31/18:00:17.972,(10 11 37 13 -11 -27 -44 -40)
1969/12/31/18:00:17.972,(-9 -125 -118 -42 -12 -10 -10 8)
1969/12/31/18:00:17.973,(-24 -28 -16 -21 16 8 -3 15)
1969/12/31/18:00:17.973,(-27 -31 -51 -10 -14 -22 -10 -29)
1969/12/31/18:00:17.995,(42 115 100 32 11 1 44 81)
1969/12/31/18:00:17.995,(13 -2 26 31 17 21 -8 8)
1969/12/31/18:00:17.997,(20 16 -11 -18 5 27 18 31)
1969/12/31/18:00:17.997,(2 -66 -25 4 15 5 -15 13)
1969/12/31/18:00:18.009,(-32 -2 -44 -24 -8 4 -7 -22)
1969/12/31/18:00:18.009,(17 -38 -21 5 6 -11 -2 15)
1969/12/31/18:00:18.018,(-13 28 -34 -11 -7 3 -10 -57)
1969/12/31/18:00:18.018,(33 99 92 45 9 -1 1 -5)
1969/12/31/18:00:18.034,(-51 -109 -70 -9 -5 -1 -19 -61)
1969/12/31/18:00:18.034,(-5 22 35 29 24 -1 16 28)
1969/12/31/18:00:18.036,(16 -108 -103 -49 -35 -32 -21 -1)
1969/12/31/18:00:18.036,(21 32 31 -12 -41 -20 -2 -33)
1969/12/31/18:00:18.057,(29 -6 23 18 11 21 -11 -1)
1969/12/31/18:00:18.057,(-56 -19 -77 -40 -30 -2 -15 -43)
1969/12/31/18:00:18.059,(4 68 95 54 30 13 8 2)
1969/12/31/18:00:18.059,(-12 -43 -60 -10 4 -3 2 -6)
1969/12/31/18:00:18.071,(2 22 32 13 -19 -21 -3 -20)
1969/12/31/18:00:18.071,(1 -110 -61 -11 1 -20 8 15)
1969/12/31/18:00:18.080,(-9 -20 -47 -49 -11 37 -11 -21)
1969/12/31/18:00:18.080,(3 84 92 32 -14 -50 -14 -13)
1969/12/31/18:00:18.096,(-86 -103 -128 -50 -1 0 -15 -66)
1969/12/31/18:00:18.096,(41 93 96 35 14 37 -1 -10)
1969/12/31/18:00:18.098,(-13 -5 34 19 3 -17 4 18)
1969/12/31/18:00:18.098,(32 2 4 -3 1 4 9 27)
1969/12/31/18:00:18.120,(-21 -116 -85 -35 -21 -22 -28 -6)
1969/12/31/18:00:18.120,(-19 -68 -118 -61 -37 -28 -6 37)
1969/12/31/18:00:18.121,(71 113 127 100 41 61 30 27)
1969/12/31/18:00:18.121,(16 -121 -115 -5 10 16 21 41)
1969/12/31/18:00:18.135,(-13 -43 -25 15 16 -27 -5 -21)
1969/12/31/18:00:18.135,(16 -34 -27 1 -13 -14 4 43)
1969/12/31/18:00:18.151,(9 -10 -27 -31 11 33 11 24)
1969/12/31/18:00:18.151,(-34 -79 -38 -13 21 10 12 47)
1969/12/31/18:00:18.158,(34 105 47 3 -17 16 17 37)
1969/12/31/18:00:18.158,(12 -94 -47 -9 2 -3 6 4)
1969/12/31/18:00:18.160,(-1 59 52 25 8 -9 9 43)
1969/12/31/18:00:18.160,(-42 -7 -5 15 1 -4 16 4)
1969/12/31/18:00:18.181,(1 -16 -10 -4 8 10 -16 -22)
1969/12/31/18:00:18.181,(-10 52 46 16 12 10 19 -1)
1969/12/31/18:00:18.183,(-11 -104 -83 -24 -4 -5 0 3)
1969/12/31/18:00:18.183,(-36 64 44 -16 -32 -23 -21 -51)
1969/12/31/18:00:18.195,(19 -3 34 9 -24 -7 10 29)
1969/12/31/18:00:18.195,(11 71 23 5 -11 -11 2 20)
1969/12/31/18:00:18.205,(-7 13 16 13 29 9 2 -11)
1969/12/31/18:00:18.205,(-3 -28 -17 -6 -1 -7 -18 -6)
1969/12/31/18:00:18.220,(-6 -50 -55 -22 -25 -24 14 -9)
1969/12/31/18:00:18.220,(5 85 75 29 17 22 -19 -53)
1969/12/31/18:00:18.221,(-19 -110 -77 -34 -22 -15 9 -6)
1969/12/31/18:00:18.221,(42 68 24 10 9 -1 -4 16)
1969/12/31/18:00:18.243,(-12 -2 17 7 21 22 9 19)
1969/12/31/18:00:18.243,(-6 -50 -39 -8 4 -6 -8 -6)
