time,.data
1969/12/31/18:00:05.926,(12 0 3 25 16 5 4 9)
1969/12/31/18:00:05.926,(-5 -4 -8 -11 -6 -7 -6 -2)
1969/12/31/18:00:05.932,(5 -1 2 -7 -4 2 2 6)
1969/12/31/18:00:05.932,(-11 -3 -1 -2 -2 -1 -2 -4)
1969/12/31/18:00:05.947,(-2 2 -1 15 5 -3 -4 -7)
1969/12/31/18:00:05.947,(3 -11 -1 -13 -5 -2 3 4)
1969/12/31/18:00:05.948,(8 8 0 3 3 1 -3 -6)
1969/12/31/18:00:05.948,(0 -6 -5 3 -3 -4 0 1)
1969/12/31/18:00:05.970,(5 3 -2 5 1 -2 2 0)
1969/12/31/18:00:05.970,(-5 -3 -2 -5 -6 -3 0 -1)
1969/12/31/18:00:05.970,(0 -2 -3 2 3 0 -1 3)
1969/12/31/18:00:05.970,(2 1 1 -7 -4 2 -2 -2)
1969/12/31/18:00:05.986,(-3 2 1 -1 1 4 1 -1)
1969/12/31/18:00:05.986,(-1 3 2 1 2 4 -2 -1)
1969/12/31/18:00:05.991,(-2 -2 -1 0 0 1 1 -2)
1969/12/31/18:00:05.992,(9 6 0 -12 -4 4 3 8)
1969/12/31/18:00:06.007,(-4 -4 1 8 3 -2 -4 -5)
1969/12/31/18:00:06.007,(2 2 -2 -2 -1 2 2 3)
1969/12/31/18:00:06.008,(-2 -4 2 2 -2 -2 -5 -7)
1969/12/31/18:00:06.008,(11 12 3 -3 6 9 8 6)
1969/12/31/18:00:06.031,(-31 -8 0 8 2 -2 -4 -11)
1969/12/31/18:00:06.031,(35 10 -1 -2 1 1 2 10)
1969/12/31/18:00:06.032,(-18 -6 0 -2 -2 -8 -8 -10)
1969/12/31/18:00:06.032,(3 -2 -5 -3 -1 -2 2 5)
1969/12/31/18:00:06.046,(-1 1 1 0 2 0 0 -1)
1969/12/31/18:00:06.046,(-7 -1 -3 -12 -7 -2 0 -2)
1969/12/31/18:00:06.051,(3 -4 -1 -2 -3 -3 -2 3)
1969/12/31/18:00:06.052,(-4 -1 3 12 -11 -3 -3 -4)
1969/12/31/18:00:06.067,(6 0 3 17 21 4 1 1)
1969/12/31/18:00:06.067,(-6 0 -4 -23 -20 -1 0 -1)
1969/12/31/18:00:06.068,(4 -2 -2 0 10 -2 -2 0)
1969/12/31/18:00:06.068,(-4 -4 2 -4 -6 1 1 -3)
1969/12/31/18:00:06.097,(10 2 -1 9 -3 -2 -1 2)
1969/12/31/18:00:06.097,(-2 -1 2 6 8 3 4 2)
1969/12/31/18:00:06.098,(-9 -3 -14 -46 -29 -10 -6 -7)
1969/12/31/18:00:06.098,(3 -5 -11 -20 -14 -7 -2 1)
1969/12/31/18:00:06.112,(2 2 13 43 24 7 1 -1)
1969/12/31/18:00:06.112,(-10 -1 21 49 21 3 -2 -4)
1969/12/31/18:00:06.113,(22 13 1 6 4 10 11 14)
1969/12/31/18:00:06.113,(-20 -11 -2 -17 -8 -9 -14 -22)
1969/12/31/18:00:06.135,(6 -5 -22 -69 -27 -7 -2 2)
1969/12/31/18:00:06.135,(-26 -9 -32 -67 -23 -7 -3 -5)
1969/12/31/18:00:06.136,(15 3 24 97 15 1 5 11)
1969/12/31/18:00:06.136,(-5 0 27 64 23 -2 -11 -10)
1969/12/31/18:00:06.157,(6 4 7 17 7 4 4 6)
1969/12/31/18:00:06.157,(0 7 -2 -16 7 7 3 2)
1969/12/31/18:00:06.158,(-10 -10 -16 -48 -9 1 1 -11)
1969/12/31/18:00:06.158,(30 15 -1 -11 0 7 9 16)
1969/12/31/18:00:06.172,(6 -7 -6 -10 -9 -6 -8 0)
1969/12/31/18:00:06.172,(13 4 -1 1 -2 -4 1 3)
1969/12/31/18:00:06.173,(-10 -3 6 -1 2 5 3 3)
1969/12/31/18:00:06.173,(-5 -3 3 9 10 4 0 -2)
1969/12/31/18:00:06.195,(8 3 -13 -28 -12 -3 3 5)
1969/12/31/18:00:06.195,(5 2 3 36 0 0 1 3)
1969/12/31/18:00:06.196,(-5 -2 6 -4 1 -4 -1 -1)
1969/12/31/18:00:06.196,(-6 -4 -20 -47 -22 -8 -2 -1)
1969/12/31/18:00:06.217,(7 8 36 102 24 10 6 9)
1969/12/31/18:00:06.217,(-8 -1 27 58 29 0 -8 -12)
1969/12/31/18:00:06.218,(-6 2 3 10 9 3 -3 -10)
1969/12/31/18:00:06.218,(24 -7 -20 -42 -5 0 8 17)
1969/12/31/18:00:06.232,(-38 -11 -28 -75 -24 -14 -17 -34)
1969/12/31/18:00:06.232,(-26 -12 -4 6 -12 -9 -7 -9)
1969/12/31/18:00:06.233,(7 7 0 -19 -12 -4 3 6)
1969/12/31/18:00:06.233,(24 8 -2 -2 1 1 -6 -4)
1969/12/31/18:00:06.255,(5 -2 -1 0 1 2 7 14)
1969/12/31/18:00:06.255,(9 0 4 2 9 6 1 -2)
1969/12/31/18:00:06.256,(-36 -16 -14 -30 -7 -8 -12 -19)
1969/12/31/18:00:06.256,(-8 -3 -7 -3 -4 5 11 7)
1969/12/31/18:00:06.277,(6 2 -3 4 -11 -3 0 1)
1969/12/31/18:00:06.277,(-6 -6 -18 -49 -14 -10 -9 -8)
1969/12/31/18:00:06.278,(19 11 38 91 21 8 8 15)
1969/12/31/18:00:06.278,(-11 8 39 95 35 3 -5 -10)
1969/12/31/18:00:06.292,(10 6 10 0 16 8 6 5)
1969/12/31/18:00:06.292,(0 -3 -16 -41 -30 -5 -2 1)
1969/12/31/18:00:06.293,(11 -2 -26 -47 -12 -2 4 11)
1969/12/31/18:00:06.293,(2 -2 -15 -35 -7 1 3 -1)
1969/12/31/18:00:06.315,(-18 -8 -9 -21 -10 -6 -7 -6)
1969/12/31/18:00:06.315,(-1 2 -3 -30 -1 5 6 1)
1969/12/31/18:00:06.316,(-3 -4 -6 0 -4 -7 -9 -7)
1969/12/31/18:00:06.316,(20 8 10 36 0 -8 -6 5)
1969/12/31/18:00:06.337,(-12 -6 -5 -18 -1 0 -2 -9)
1969/12/31/18:00:06.337,(2 0 12 32 0 -2 -4 -6)
1969/12/31/18:00:06.338,(13 3 7 1 -1 0 -2 3)
1969/12/31/18:00:06.338,(-40 -16 -7 -17 -3 -1 -4 -14)
1969/12/31/18:00:06.352,(46 13 -12 -36 -7 4 10 23)
1969/12/31/18:00:06.352,(-4 -10 -22 14 0 -5 -5 -5)
1969/12/31/18:00:06.353,(-11 3 25 50 33 4 -3 -8)
1969/12/31/18:00:06.353,(-8 2 19 47 -15 0 -3 -6)
1969/12/31/18:00:06.375,(5 5 24 65 7 -5 1 10)
1969/12/31/18:00:06.375,(-7 -2 -3 -21 5 3 -6 -14)
1969/12/31/18:00:06.376,(-3 2 -22 -40 -7 1 2 3)
1969/12/31/18:00:06.376,(-8 -6 -9 -22 -3 -6 -7 -6)
1969/12/31/18:00:06.397,(-22 -10 -11 -27 -12 -3 -1 -9)
1969/12/31/18:00:06.397,(22 2 7 14 6 5 12 20)
1969/12/31/18:00:06.398,(-2 -6 -8 -9 -3 -6 -5 -5)
1969/12/31/18:00:06.398,(4 -1 -14 -69 -49 -16 -1 3)
1969/12/31/18:00:06.412,(-5 -4 -8 13 -1 0 -3 -5)
1969/12/31/18:00:06.412,(7 6 23 58 44 14 5 13)
1969/12/31/18:00:06.413,(-19 3 22 43 43 22 -3 -25)
1969/12/31/18:00:06.413,(-42 -23 -2 -1 9 -7 -21 -19)
1969/12/31/18:00:06.443,(86 54 9 -8 -10 11 33 45)
1969/12/31/18:00:06.443,(-10 -15 -21 -61 -33 -7 14 7)
1969/12/31/18:00:06.444,(7 -4 -18 -28 -39 -10 2 12)
1969/12/31/18:00:06.444,(4 3 -1 25 19 5 1 -1)
1969/12/31/18:00:06.457,(-30 -13 7 24 10 -10 -37 -25)
1969/12/31/18:00:06.457,(-1 6 10 15 16 8 10 -3)
1969/12/31/18:00:06.458,(8 4 -5 -19 -10 2 8 9)
1969/12/31/18:00:06.458,(8 2 -8 -21 -4 3 11 9)
1969/12/31/18:00:06.472,(-16 -15 -22 -51 -41 -19 -10 -10)
1969/12/31/18:00:06.472,(9 7 -1 -4 -28 -9 -11 -3)
1969/12/31/18:00:06.473,(-6 -2 5 20 35 4 -6 -6)
1969/12/31/18:00:06.473,(14 10 23 72 50 20 9 10)
1969/12/31/18:00:06.495,(-24 -8 8 2 24 18 5 -13)
1969/12/31/18:00:06.495,(0 -3 -16 -25 -27 -12 -6 -3)
1969/12/31/18:00:06.495,(2 -7 -5 -31 -39 -12 3 9)
1969/12/31/18:00:06.495,(-12 5 11 37 8 -5 -5 -2)
1969/12/31/18:00:06.518,(-24 -7 5 13 11 0 -12 -32)
1969/12/31/18:00:06.518,(-3 -3 -9 -20 -3 -4 -8 -1)
1969/12/31/18:00:06.519,(7 2 -12 -20 -13 -8 0 2)
1969/12/31/18:00:06.519,(-5 -18 -16 -32 -6 0 6 10)
1969/12/31/18:00:06.540,(12 15 3 7 0 1 4 -5)
1969/12/31/18:00:06.540,(-12 -4 4 8 2 -2 -14 -7)
1969/12/31/18:00:06.541,(-5 -3 3 19 12 1 -1 -6)
1969/12/31/18:00:06.541,(5 2 -5 -37 -8 7 16 8)
1969/12/31/18:00:06.555,(7 0 0 24 3 5 7 14)
1969/12/31/18:00:06.555,(2 4 9 15 17 8 3 2)
1969/12/31/18:00:06.555,(-2 -2 -6 -27 -15 -9 -10 -6)
1969/12/31/18:00:06.555,(2 3 2 16 -11 -7 -5 -4)
1969/12/31/18:00:06.578,(-1 -4 1 1 1 2 2 2)
1969/12/31/18:00:06.578,(-18 -4 1 5 12 1 -4 -7)
1969/12/31/18:00:06.579,(27 14 11 20 2 3 6 16)
1969/12/31/18:00:06.579,(-7 6 7 -9 0 5 -1 -21)
1969/12/31/18:00:06.592,(-12 -3 -5 1 0 -4 -2 4)
1969/12/31/18:00:06.592,(5 -10 -5 -1 -11 -9 -7 1)
1969/12/31/18:00:06.593,(-9 -8 -16 -16 -5 -3 0 0)
1969/12/31/18:00:06.593,(22 9 -4 -17 -2 3 7 17)
1969/12/31/18:00:06.615,(-11 -10 -2 4 3 1 -3 -7)
1969/12/31/18:00:06.615,(1 6 -4 -7 3 5 10 2)
1969/12/31/18:00:06.616,(3 3 11 28 8 4 3 4)
1969/12/31/18:00:06.616,(-1 -2 4 20 7 1 -4 -1)
1969/12/31/18:00:06.638,(-5 -5 1 -11 -3 -4 -4 -1)
1969/12/31/18:00:06.638,(6 -2 -17 -61 -45 -18 -6 0)
1969/12/31/18:00:06.639,(-10 -3 -5 18 -3 -5 -4 -9)
1969/12/31/18:00:06.639,(-13 -6 -7 10 13 1 -6 -9)
1969/12/31/18:00:06.652,(23 6 18 32 46 18 14 19)
1969/12/31/18:00:06.652,(-5 7 24 52 29 14 1 -6)
1969/12/31/18:00:06.653,(-32 -8 -1 -17 -16 -1 -5 -12)
1969/12/31/18:00:06.653,(15 -1 -19 -40 -29 -16 -6 2)
1969/12/31/18:00:06.675,(-21 -11 -13 -15 -19 -11 -4 -5)
1969/12/31/18:00:06.675,(19 9 4 15 16 10 17 18)
1969/12/31/18:00:06.675,(13 -4 -10 -18 -10 -7 -6 -1)
1969/12/31/18:00:06.676,(-8 1 1 0 4 0 0 -2)
1969/12/31/18:00:06.698,(-16 -8 -2 -14 -8 -7 -9 -13)
1969/12/31/18:00:06.698,(1 0 2 11 4 7 6 7)
1969/12/31/18:00:06.699,(0 3 4 4 10 5 -1 -4)
1969/12/31/18:00:06.699,(26 9 1 -2 2 3 5 14)
1969/12/31/18:00:06.712,(4 6 4 18 2 5 6 4)
1969/12/31/18:00:06.712,(9 5 5 5 1 -3 1 2)
1969/12/31/18:00:06.713,(-7 -2 11 25 7 -1 -5 -9)
1969/12/31/18:00:06.713,(10 7 4 3 -2 -3 -6 -3)
1969/12/31/18:00:06.735,(-28 2 5 -7 3 8 7 -3)
1969/12/31/18:00:06.735,(2 -8 -10 -26 -4 -4 -4 -3)
1969/12/31/18:00:06.736,(5 -7 -14 3 -5 -2 1 7)
1969/12/31/18:00:06.736,(-32 -15 3 -11 0 -2 6 6)
1969/12/31/18:00:06.758,(22 14 -4 -9 -8 -5 -11 -12)
1969/12/31/18:00:06.758,(25 14 4 17 9 10 12 20)
1969/12/31/18:00:06.759,(-2 2 5 2 6 3 1 1)
1969/12/31/18:00:06.759,(-20 -19 -5 -1 -4 -1 -3 -4)
1969/12/31/18:00:06.772,(23 30 7 -2 -6 -11 -19 -17)
1969/12/31/18:00:06.772,(-25 -12 1 5 3 -1 -4 -15)
1969/12/31/18:00:06.773,(5 -5 -14 -18 -5 -1 1 -1)
1969/12/31/18:00:06.773,(5 -1 1 7 -2 -2 -7 -5)
1969/12/31/18:00:06.795,(-1 -12 -6 -4 -4 2 8 16)
1969/12/31/18:00:06.795,(-7 -2 2 -6 0 -3 -1 -2)
1969/12/31/18:00:06.796,(9 9 5 14 7 3 5 6)
1969/12/31/18:00:06.796,(-57 -35 -6 -13 -9 -8 -14 -31)
1969/12/31/18:00:06.818,(30 13 -11 -27 -2 5 8 13)
1969/12/31/18:00:06.818,(-15 0 0 22 -2 -7 -12 -14)
1969/12/31/18:00:06.819,(-21 -32 -5 -5 2 7 17 24)
1969/12/31/18:00:06.819,(62 30 12 18 7 6 2 1)
1969/12/31/18:00:06.832,(9 -4 12 3 -10 -12 -3 21)
1969/12/31/18:00:06.832,(-31 -15 -15 -29 0 2 -4 -25)
1969/12/31/18:00:06.840,(0 8 -5 -12 -2 -3 -5 -4)
1969/12/31/18:00:06.840,(-7 0 -12 -25 -9 3 2 -3)
1969/12/31/18:00:06.855,(-12 -14 4 26 3 -2 -2 -3)
1969/12/31/18:00:06.855,(18 5 3 30 9 1 2 10)
1969/12/31/18:00:06.855,(-4 7 33 53 17 1 -3 -10)
1969/12/31/18:00:06.856,(4 1 -18 -18 -17 4 10 15)
1969/12/31/18:00:06.878,(3 0 18 94 18 3 1 1)
1969/12/31/18:00:06.878,(-32 -11 9 -14 -1 -6 -9 -13)
1969/12/31/18:00:06.879,(29 14 -13 -3 2 -4 -9 -12)
1969/12/31/18:00:06.879,(7 11 -4 -42 -13 -8 -1 8)
1969/12/31/18:00:06.892,(-4 -8 -27 -58 -17 -2 2 -2)
1969/12/31/18:00:06.892,(1 -3 1 22 7 3 3 3)
1969/12/31/18:00:06.900,(9 -1 11 -4 6 -5 -7 0)
1969/12/31/18:00:06.900,(-31 -3 6 -8 -2 -1 -6 -23)
1969/12/31/18:00:06.915,(-5 -6 -12 10 -5 -2 0 2)
1969/12/31/18:00:06.915,(9 -5 -24 -69 1 -9 -7 -3)
1969/12/31/18:00:06.916,(0 3 15 64 -11 -1 -5 -4)
1969/12/31/18:00:06.916,(16 10 37 103 46 5 4 12)
1969/12/31/18:00:06.938,(-16 1 30 28 23 17 3 -12)
1969/12/31/18:00:06.938,(4 4 -27 -97 -34 -9 -1 -1)
1969/12/31/18:00:06.939,(-3 -5 -31 -16 -16 -7 0 4)
1969/12/31/18:00:06.939,(-13 -7 3 12 1 -2 -4 -10)
1969/12/31/18:00:06.952,(-13 -8 1 1 -1 -4 -6 -7)
1969/12/31/18:00:06.952,(28 15 7 53 12 0 1 15)
1969/12/31/18:00:06.960,(4 8 -5 -63 -9 6 8 2)
1969/12/31/18:00:06.960,(6 -1 13 39 6 4 2 0)
1969/12/31/18:00:06.975,(-4 -9 -13 -43 -7 -4 -3 -4)
1969/12/31/18:00:06.975,(-3 -1 12 34 2 -4 -4 -3)
1969/12/31/18:00:06.976,(-2 -5 -7 -24 -21 -5 -1 0)
1969/12/31/18:00:06.976,(2 3 3 2 15 4 3 5)
1969/12/31/18:00:06.998,(-7 -5 -1 -8 7 2 -2 -5)
1969/12/31/18:00:06.998,(10 0 1 25 6 1 3 9)
1969/12/31/18:00:06.999,(26 18 -6 -19 6 10 16 20)
1969/12/31/18:00:06.999,(-14 -9 -19 -42 -18 -9 -11 -17)
1969/12/31/18:00:07.020,(-12 -8 -7 -15 -17 -8 -6 -8)
1969/12/31/18:00:07.020,(8 -2 5 12 -5 -7 -2 4)
1969/12/31/18:00:07.021,(-9 16 16 3 23 24 23 11)
1969/12/31/18:00:07.021,(-4 -6 -9 -9 -6 -4 -4 -5)
1969/12/31/18:00:07.035,(-2 -2 -9 -5 -2 -6 -2 -2)
1969/12/31/18:00:07.035,(-12 -2 2 7 -3 0 -2 -5)
1969/12/31/18:00:07.036,(21 2 11 17 2 -3 0 14)
1969/12/31/18:00:07.036,(-13 -3 -3 2 0 -6 -11 -18)
1969/12/31/18:00:07.058,(-11 -6 -2 -1 -2 0 0 -6)
1969/12/31/18:00:07.058,(17 5 1 -11 -9 -7 -8 -1)
1969/12/31/18:00:07.059,(-12 -15 -14 -18 -4 -4 -5 -6)
1969/12/31/18:00:07.059,(7 8 0 2 0 6 11 12)
1969/12/31/18:00:07.080,(4 -8 -9 -29 -10 -8 -6 -3)
1969/12/31/18:00:07.080,(6 10 21 37 12 14 16 5)
1969/12/31/18:00:07.081,(-49 -24 -11 -5 -8 -14 -22 -33)
1969/12/31/18:00:07.081,(51 4 -10 -5 10 14 22 44)
1969/12/31/18:00:07.095,(-14 -8 3 1 -4 -2 -3 -9)
1969/12/31/18:00:07.095,(35 17 -2 -8 -6 2 6 7)
1969/12/31/18:00:07.096,(-11 -1 5 2 1 -7 -12 -16)
1969/12/31/18:00:07.096,(1 0 -3 -8 -1 3 8 9)
1969/12/31/18:00:07.118,(-18 0 -3 -6 -9 -12 -14 -16)
1969/12/31/18:00:07.118,(22 20 14 19 20 31 41 40)
1969/12/31/18:00:07.119,(-7 -10 -11 -7 -4 -8 -15 -15)
1969/12/31/18:00:07.119,(2 8 10 0 9 17 22 23)
1969/12/31/18:00:07.141,(36 9 -3 3 -1 -4 -2 5)
1969/12/31/18:00:07.141,(-11 -2 0 -5 -6 -8 -14 -13)
1969/12/31/18:00:07.141,(5 4 -1 -6 -2 -5 -3 -5)
1969/12/31/18:00:07.141,(-16 -6 -2 -7 -3 -5 -3 -1)
1969/12/31/18:00:07.155,(3 0 -1 5 -3 -2 -2 0)
1969/12/31/18:00:07.155,(-53 -55 -9 -4 0 2 8 2)
1969/12/31/18:00:07.156,(51 34 11 10 7 9 13 25)
1969/12/31/18:00:07.156,(-37 -26 -15 -7 -11 -13 -16 -21)
1969/12/31/18:00:07.178,(55 29 1 -3 5 7 10 16)
1969/12/31/18:00:07.178,(-22 -13 -14 -14 -17 -21 -33 -35)
1969/12/31/18:00:07.180,(-15 -1 7 4 1 -1 4 5)
1969/12/31/18:00:07.180,(6 -2 -9 -4 -1 -3 -2 0)
1969/12/31/18:00:07.201,(-15 -3 3 6 7 12 14 7)
1969/12/31/18:00:07.201,(1 9 -3 -2 -4 -2 -3 3)
1969/12/31/18:00:07.201,(-8 -13 -7 -5 -7 -3 -6 -11)
1969/12/31/18:00:07.201,(5 13 5 -3 -10 -16 -20 -18)
1969/12/31/18:00:07.215,(-40 -37 -16 -8 6 13 16 8)
1969/12/31/18:00:07.215,(61 40 13 21 11 8 7 13)
1969/12/31/18:00:07.216,(-7 -10 2 16 4 -1 1 7)
1969/12/31/18:00:07.216,(-38 -18 5 20 8 -2 -17 -31)
1969/12/31/18:00:07.238,(19 16 6 -1 1 7 13 20)
1969/12/31/18:00:07.238,(5 1 -4 -17 -5 -2 -5 -9)
1969/12/31/18:00:07.239,(14 6 -3 -13 -3 5 12 23)
1969/12/31/18:00:07.239,(-6 -4 -4 -13 -9 -8 -10 -13)
1969/12/31/18:00:07.261,(-18 -9 -6 1 3 0 0 -4)
1969/12/31/18:00:07.261,(-67 -40 -11 -6 -15 -19 -21 -31)
1969/12/31/18:00:07.261,(28 29 4 5 18 26 31 23)
1969/12/31/18:00:07.261,(7 1 0 -3 -7 -5 -4 2)
1969/12/31/18:00:07.275,(-6 0 4 1 -3 -4 -5 -4)
1969/12/31/18:00:07.275,(0 5 5 5 -6 -9 -12 -10)
1969/12/31/18:00:07.276,(-21 -22 -7 -8 -7 -8 -11 -10)
1969/12/31/18:00:07.276,(12 -4 -10 1 15 20 22 14)
1969/12/31/18:00:07.298,(-8 1 4 7 7 3 -5 -12)
1969/12/31/18:00:07.298,(47 23 5 2 1 2 8 17)
1969/12/31/18:00:07.299,(-40 -21 -4 -6 -10 -16 -20 -29)
1969/12/31/18:00:07.299,(57 21 9 0 1 7 25 44)
1969/12/31/18:00:07.320,(-22 -35 -6 0 0 -7 -4 10)
1969/12/31/18:00:07.320,(19 11 -6 -4 -2 -12 -24 -23)
1969/12/31/18:00:07.322,(7 20 10 4 3 5 4 -2)
1969/12/31/18:00:07.322,(-5 0 -2 -1 -5 -4 -4 -3)
1969/12/31/18:00:07.334,(19 7 -2 1 0 3 5 7)
1969/12/31/18:00:07.334,(-23 -12 -2 -2 3 7 11 8)
1969/12/31/18:00:07.343,(1 -11 -29 -95 -37 -15 -8 0)
1969/12/31/18:00:07.343,(-10 -6 -10 15 3 -9 -15 -21)
1969/12/31/18:00:07.358,(13 22 32 57 4 11 10 11)
1969/12/31/18:00:07.358,(-17 -2 21 57 26 8 -2 -7)
1969/12/31/18:00:07.360,(-17 -10 13 25 3 -7 -14 -17)
1969/12/31/18:00:07.360,(38 24 -10 -33 -6 -2 5 16)
1969/12/31/18:00:07.382,(-1 -1 -17 -36 -6 0 0 -5)
1969/12/31/18:00:07.382,(35 19 -6 -17 -11 -1 11 22)
1969/12/31/18:00:07.384,(54 22 7 8 8 9 16 40)
1969/12/31/18:00:07.384,(-15 7 -2 -11 -10 -15 -27 -40)
1969/12/31/18:00:07.394,(21 5 -2 3 0 -4 -2 9)
1969/12/31/18:00:07.394,(0 -3 1 -8 -3 -2 3 4)
1969/12/31/18:00:07.403,(-18 -22 -8 9 4 -3 -6 -8)
1969/12/31/18:00:07.403,(7 7 3 9 11 18 18 14)
1969/12/31/18:00:07.418,(2 9 3 -2 -2 -3 -6 -6)
1969/12/31/18:00:07.418,(-36 -23 -7 -14 -3 -2 -4 -8)
1969/12/31/18:00:07.420,(7 14 2 10 4 3 -2 -12)
1969/12/31/18:00:07.420,(-15 -14 2 -4 -4 2 -1 -1)
1969/12/31/18:00:07.440,(-17 -8 -10 -13 -8 -3 -5 -15)
1969/12/31/18:00:07.440,(-34 -24 -1 7 5 -5 -10 -16)
1969/12/31/18:00:07.442,(59 34 8 27 23 22 26 37)
1969/12/31/18:00:07.442,(-24 -5 -19 -66 -19 -10 -10 -20)
1969/12/31/18:00:07.454,(4 -4 -3 -14 -34 -18 -10 -2)
1969/12/31/18:00:07.454,(-19 5 31 72 23 3 -3 -7)
1969/12/31/18:00:07.463,(22 8 12 51 39 14 2 6)
1969/12/31/18:00:07.463,(-14 -2 12 23 29 13 1 2)
1969/12/31/18:00:07.478,(22 9 -16 -37 -3 0 -2 -6)
1969/12/31/18:00:07.478,(-27 -36 -38 -61 -45 -27 -26 -24)
1969/12/31/18:00:07.480,(-25 -1 4 -5 -8 3 12 -2)
1969/12/31/18:00:07.480,(14 2 0 -1 0 4 13 24)
1969/12/31/18:00:07.501,(-24 -13 -4 0 -2 -6 -8 -15)
1969/12/31/18:00:07.501,(53 31 3 -1 -1 6 21 48)
1969/12/31/18:00:07.502,(-45 -25 -11 -11 -20 -31 -45 -54)
1969/12/31/18:00:07.502,(-18 -10 -2 4 -7 -5 -5 -11)
1969/12/31/18:00:07.514,(4 7 15 16 11 6 5 6)
1969/12/31/18:00:07.514,(16 14 -1 -2 6 12 16 15)
1969/12/31/18:00:07.523,(-3 -13 -7 -13 -5 0 2 0)
1969/12/31/18:00:07.523,(-13 -7 7 15 0 2 2 -2)
1969/12/31/18:00:07.538,(-8 -8 -3 1 -2 -12 -15 -11)
1969/12/31/18:00:07.538,(6 6 1 0 6 7 7 6)
1969/12/31/18:00:07.540,(-10 -9 -10 -4 -5 -3 1 4)
1969/12/31/18:00:07.540,(-12 2 13 30 7 5 0 -8)
1969/12/31/18:00:07.561,(-83 -58 -6 -2 -2 -13 -18 -28)
1969/12/31/18:00:07.561,(-17 29 13 -7 14 31 27 21)
1969/12/31/18:00:07.562,(-44 -21 -5 -8 -16 -18 -25 -27)
1969/12/31/18:00:07.562,(5 16 3 1 -2 -3 3 6)
1969/12/31/18:00:07.575,(4 4 3 4 12 16 24 16)
1969/12/31/18:00:07.575,(-15 -13 -8 -10 -6 -9 -12 -17)
1969/12/31/18:00:07.582,(8 4 2 -2 -1 1 3 3)
1969/12/31/18:00:07.582,(18 1 3 -7 -5 -3 1 6)
1969/12/31/18:00:07.598,(24 20 -2 2 7 3 3 4)
1969/12/31/18:00:07.598,(0 -11 -12 -25 -15 -7 -6 -8)
1969/12/31/18:00:07.600,(3 0 14 27 3 1 3 8)
1969/12/31/18:00:07.600,(-23 -2 8 26 14 6 1 -13)
1969/12/31/18:00:07.621,(9 10 7 10 2 2 4 12)
1969/12/31/18:00:07.621,(-34 -37 -19 -9 -1 -7 -11 -11)
1969/12/31/18:00:07.622,(-9 -1 5 -19 4 17 14 -10)
1969/12/31/18:00:07.622,(4 -4 -3 -12 -7 -7 -5 -1)
1969/12/31/18:00:07.634,(-2 -1 -4 3 -9 -8 -11 -8)
1969/12/31/18:00:07.634,(-7 -7 1 0 0 -3 -3 -6)
1969/12/31/18:00:07.643,(-2 -1 -7 -5 -1 9 18 14)
1969/12/31/18:00:07.643,(-8 -9 -5 0 -5 -16 -21 -17)
1969/12/31/18:00:07.657,(14 11 3 -4 4 4 3 5)
1969/12/31/18:00:07.657,(9 -1 -5 -5 -1 0 2 1)
1969/12/31/18:00:07.666,(-7 -5 -3 6 -1 -2 -5 -7)
1969/12/31/18:00:07.666,(17 8 2 -4 2 5 10 18)
1969/12/31/18:00:07.681,(8 2 -6 -27 -10 -6 -9 -3)
1969/12/31/18:00:07.681,(4 6 2 4 -15 -8 -4 -6)
1969/12/31/18:00:07.682,(3 -1 -17 -42 -29 -20 -5 4)
1969/12/31/18:00:07.682,(-2 -10 -8 11 12 5 5 4)
1969/12/31/18:00:07.694,(12 15 33 67 60 23 8 6)
1969/12/31/18:00:07.694,(-3 3 25 59 48 25 3 -6)
1969/12/31/18:00:07.703,(15 8 4 2 11 12 9 13)
1969/12/31/18:00:07.703,(1 -6 -12 -40 -42 -18 -11 -6)
1969/12/31/18:00:07.718,(-8 -7 -19 -22 -29 -16 -4 -6)
1969/12/31/18:00:07.718,(27 16 -5 -24 -3 0 7 16)
1969/12/31/18:00:07.720,(-63 -42 -6 1 -17 -15 -15 -21)
1969/12/31/18:00:07.720,(19 20 2 -14 -7 -3 1 1)
1969/12/31/18:00:07.740,(4 6 5 3 0 0 -4 1)
1969/12/31/18:00:07.740,(-3 -3 -6 -7 -8 -12 -13 -13)
1969/12/31/18:00:07.742,(17 25 -1 -5 1 -6 -8 -7)
1969/12/31/18:00:07.742,(-9 -20 -8 3 0 -5 -8 2)
1969/12/31/18:00:07.754,(3 1 0 0 1 3 6 3)
1969/12/31/18:00:07.754,(4 -3 -2 -7 -9 -4 -3 1)
1969/12/31/18:00:07.763,(-4 3 3 6 6 1 -1 -4)
1969/12/31/18:00:07.763,(0 4 6 12 10 6 3 3)
1969/12/31/18:00:07.778,(11 6 -2 -6 -2 -2 -1 3)
1969/12/31/18:00:07.778,(-11 -6 -4 -14 -9 -1 1 -3)
1969/12/31/18:00:07.780,(-20 -34 -2 5 0 -7 -5 0)
1969/12/31/18:00:07.780,(5 27 15 23 18 21 20 4)
1969/12/31/18:00:07.800,(-11 -10 -4 -14 -9 -8 -5 -6)
1969/12/31/18:00:07.801,(2 4 5 3 -1 -1 1 2)
1969/12/31/18:00:07.802,(-3 -11 -4 2 6 3 -2 -2)
1969/12/31/18:00:07.802,(15 4 0 -6 3 6 9 10)
1969/12/31/18:00:07.814,(-9 -7 -7 -7 -10 -5 -3 -5)
1969/12/31/18:00:07.814,(-12 -7 -4 -9 6 -3 -5 -11)
1969/12/31/18:00:07.823,(35 30 9 16 3 13 17 25)
1969/12/31/18:00:07.823,(-16 -19 -4 2 -8 -9 -7 -8)
1969/12/31/18:00:07.838,(10 5 3 6 7 7 10 12)
1969/12/31/18:00:07.838,(-2 -5 -3 -4 -4 -8 -8 -9)
1969/12/31/18:00:07.840,(-11 -13 -10 -10 -4 -9 -13 -16)
1969/12/31/18:00:07.840,(4 -5 -3 -2 -2 -2 -3 -2)
1969/12/31/18:00:07.862,(69 73 27 13 18 32 59 83)
1969/12/31/18:00:07.862,(-69 -25 -4 -3 -8 -12 -20 -39)
1969/12/31/18:00:07.864,(-18 -1 -1 -1 -2 -5 -8 -13)
1969/12/31/18:00:07.864,(11 8 3 -2 -4 -2 1 4)
1969/12/31/18:00:07.874,(-4 -16 -8 -3 -5 -3 -8 -7)
1969/12/31/18:00:07.874,(16 6 1 5 -1 2 6 9)
1969/12/31/18:00:07.883,(31 22 -8 -30 -3 5 11 17)
1969/12/31/18:00:07.883,(-17 -17 -4 6 -10 -11 -14 -13)
1969/12/31/18:00:07.897,(-10 -10 -4 -33 -13 -1 -7 -13)
1969/12/31/18:00:07.897,(9 10 13 47 17 7 6 7)
1969/12/31/18:00:07.904,(-11 -7 11 -7 -28 -16 -11 -13)
1969/12/31/18:00:07.904,(-4 2 11 17 18 4 0 1)
1969/12/31/18:00:07.920,(-15 -11 -10 33 30 2 -10 -18)
1969/12/31/18:00:07.920,(4 -9 -21 -41 8 5 -1 -2)
1969/12/31/18:00:07.928,(10 6 -4 23 15 8 8 7)
1969/12/31/18:00:07.928,(4 9 26 53 -13 4 7 8)
1969/12/31/18:00:07.934,(-12 -3 -1 6 -14 -17 -18 -21)
1969/12/31/18:00:07.934,(-7 -12 -9 -5 -9 -8 -4 -3)
1969/12/31/18:00:07.943,(0 -3 -9 -30 -3 -6 0 0)
1969/12/31/18:00:07.943,(-5 2 -15 -80 -22 -3 -1 1)
1969/12/31/18:00:07.957,(-6 -1 15 24 5 8 0 -6)
1969/12/31/18:00:07.957,(17 11 -1 -7 1 6 9 15)
1969/12/31/18:00:07.964,(5 10 28 19 9 11 6 6)
1969/12/31/18:00:07.964,(4 -2 -14 11 7 0 1 -1)
1969/12/31/18:00:07.981,(-13 -29 -58 -86 -36 -22 -11 -7)
1969/12/31/18:00:07.981,(-9 -4 13 44 -7 -12 -8 -7)
1969/12/31/18:00:07.982,(-4 1 0 14 13 -1 -6 -5)
1969/12/31/18:00:07.982,(-9 -3 18 33 16 6 -2 -6)
1969/12/31/18:00:07.994,(1 7 10 -12 1 8 6 2)
1969/12/31/18:00:07.994,(10 5 -1 -14 -6 4 9 9)
1969/12/31/18:00:08.003,(-4 -2 10 19 4 2 -3 -6)
1969/12/31/18:00:08.003,(-1 -4 -13 -8 3 -3 -2 -1)
1969/12/31/18:00:08.017,(-10 -9 -7 -3 -4 -3 -6 -8)
1969/12/31/18:00:08.017,(10 10 5 -8 -5 5 7 8)
1969/12/31/18:00:08.024,(5 4 3 5 3 4 4 3)
1969/12/31/18:00:08.024,(-3 0 -11 -56 -12 -1 -1 1)
1969/12/31/18:00:08.041,(0 0 8 52 9 0 -1 0)
1969/12/31/18:00:08.041,(0 0 1 5 7 1 -3 -1)
1969/12/31/18:00:08.042,(-6 -10 -24 -8 -2 -10 -5 -2)
1969/12/31/18:00:08.042,(-5 -2 8 5 -18 -7 -3 -3)
1969/12/31/18:00:08.054,(-6 0 11 17 -3 -2 -3 -7)
1969/12/31/18:00:08.054,(3 1 7 11 6 7 3 4)
1969/12/31/18:00:08.071,(-1 -9 -42 -82 -13 -3 -3 0)
1969/12/31/18:00:08.071,(0 -6 -3 51 11 -3 0 1)
1969/12/31/18:00:08.077,(-8 1 22 34 12 -5 -8 -8)
1969/12/31/18:00:08.077,(6 6 9 11 2 3 2 2)
1969/12/31/18:00:08.084,(5 6 7 -13 -5 9 9 6)
1969/12/31/18:00:08.084,(0 -3 -18 -32 -4 2 2 1)
1969/12/31/18:00:08.101,(2 -4 -6 -19 -10 -1 0 0)
1969/12/31/18:00:08.101,(-5 1 -2 -7 -5 -7 -6 -5)
1969/12/31/18:00:08.102,(4 11 29 -3 1 11 9 3)
1969/12/31/18:00:08.102,(1 -9 -25 25 15 2 1 -1)
1969/12/31/18:00:08.114,(-8 -15 -34 -45 -22 -17 -10 -5)
1969/12/31/18:00:08.114,(-7 -9 -18 -17 -21 -14 -8 -7)
1969/12/31/18:00:08.124,(-4 -1 12 24 12 -1 -3 -3)
1969/12/31/18:00:08.124,(4 13 34 29 9 7 5 4)
1969/12/31/18:00:08.137,(6 14 43 42 21 15 7 4)
1969/12/31/18:00:08.137,(11 11 9 -89 -31 9 9 7)
1969/12/31/18:00:08.144,(9 -8 -55 26 2 -6 -1 4)
1969/12/31/18:00:08.144,(-15 -14 -10 4 13 -3 -9 -10)
1969/12/31/18:00:08.160,(-9 -7 6 32 9 -2 -7 -8)
1969/12/31/18:00:08.161,(-2 13 26 5 10 14 6 2)
1969/12/31/18:00:08.162,(9 13 18 16 0 10 5 5)
1969/12/31/18:00:08.162,(-2 -15 -39 -62 -26 -20 -10 -2)
1969/12/31/18:00:08.183,(-7 -6 -13 -46 -20 -8 -3 -6)
1969/12/31/18:00:08.183,(2 2 -3 7 -2 -1 0 -1)
1969/12/31/18:00:08.185,(0 0 10 -12 -1 9 4 4)
1969/12/31/18:00:08.185,(1 8 12 7 14 6 2 -2)
1969/12/31/18:00:08.197,(4 -4 0 67 19 0 2 3)
1969/12/31/18:00:08.197,(-5 -1 -4 5 14 10 4 -2)
1969/12/31/18:00:08.206,(2 3 24 10 0 -11 -6 -1)
1969/12/31/18:00:08.206,(-2 6 7 -12 -10 -1 -3 -3)
1969/12/31/18:00:08.221,(-7 -11 -27 -29 0 -2 -3 -5)
1969/12/31/18:00:08.221,(8 -7 -30 -23 -16 -11 0 5)
1969/12/31/18:00:08.222,(-4 -1 4 -11 -7 -5 -3 -3)
1969/12/31/18:00:08.222,(2 8 16 17 5 3 0 -2)
1969/12/31/18:00:08.243,(6 11 13 0 8 11 7 3)
1969/12/31/18:00:08.243,(1 0 0 32 13 5 1 3)
1969/12/31/18:00:08.245,(-8 -9 -8 -5 -4 -2 -4 -4)
1969/12/31/18:00:08.245,(3 7 18 -3 -6 -2 1 2)
1969/12/31/18:00:08.257,(-7 -3 -6 -10 -4 4 1 -2)
1969/12/31/18:00:08.257,(-2 -9 -13 8 9 -5 0 1)
1969/12/31/18:00:08.266,(-5 5 13 2 -7 -4 -5 -5)
1969/12/31/18:00:08.266,(-6 -14 -20 6 6 -3 -2 -2)
1969/12/31/18:00:08.280,(2 1 8 -11 -4 3 2 4)
1969/12/31/18:00:08.280,(-1 2 3 -2 -9 -8 -5 -2)
1969/12/31/18:00:08.287,(1 -2 -11 -21 -19 -9 -2 -3)
1969/12/31/18:00:08.287,(-2 -1 9 47 22 2 -1 0)
1969/12/31/18:00:08.303,(0 3 -1 -1 0 3 1 0)
1969/12/31/18:00:08.303,(-1 -2 8 19 10 2 1 -1)
1969/12/31/18:00:08.305,(1 -1 0 13 5 0 0 1)
1969/12/31/18:00:08.305,(1 -2 -11 -38 -19 -4 5 2)
1969/12/31/18:00:08.317,(-3 -1 -2 -13 -8 -5 -1 -4)
1969/12/31/18:00:08.317,(-5 -4 0 10 5 4 -1 -1)
1969/12/31/18:00:08.326,(0 -2 -7 -20 -8 -3 -2 4)
1969/12/31/18:00:08.326,(-4 4 15 19 1 1 -2 -2)
1969/12/31/18:00:08.340,(16 15 10 12 9 3 3 9)
1969/12/31/18:00:08.340,(-3 -2 -8 -18 -3 -1 0 0)
1969/12/31/18:00:08.347,(4 0 1 27 15 8 4 3)
1969/12/31/18:00:08.347,(-13 -11 -3 -25 -12 -2 -6 -9)
1969/12/31/18:00:08.363,(7 10 3 -2 8 3 3 4)
1969/12/31/18:00:08.363,(-6 -6 0 -14 -8 -3 -3 -5)
1969/12/31/18:00:08.365,(-1 -2 -2 27 11 0 0 -1)
1969/12/31/18:00:08.365,(2 5 3 -7 -7 0 2 5)
1969/12/31/18:00:08.385,(-7 -3 1 -7 -5 -7 -4 -4)
1969/12/31/18:00:08.385,(1 -4 -4 18 7 -2 -1 -1)
1969/12/31/18:00:08.387,(-11 -7 -7 -12 -17 -10 -5 -9)
1969/12/31/18:00:08.387,(1 3 2 -18 19 2 -1 -2)
1969/12/31/18:00:08.401,(9 -1 -8 17 -8 0 0 7)
1969/12/31/18:00:08.401,(-1 0 3 21 21 1 -2 -2)
1969/12/31/18:00:08.403,(1 5 2 2 -6 0 2 1)
1969/12/31/18:00:08.403,(3 -6 -10 -7 -6 -1 1 0)
1969/12/31/18:00:08.423,(-7 -6 -12 -45 -15 -4 -3 -5)
1969/12/31/18:00:08.423,(2 3 -1 1 -12 -3 1 3)
1969/12/31/18:00:08.425,(-1 1 6 11 14 -1 -3 -1)
1969/12/31/18:00:08.425,(-1 2 3 -1 -7 -2 -1 -2)
1969/12/31/18:00:08.437,(-1 -4 3 22 7 0 0 -3)
1969/12/31/18:00:08.437,(2 0 -2 4 -4 -1 1 0)
1969/12/31/18:00:08.446,(-2 -3 -8 -5 2 1 0 1)
1969/12/31/18:00:08.446,(4 1 -1 -5 -4 0 -1 2)
1969/12/31/18:00:08.461,(-9 -7 -6 -9 -6 -6 -5 -5)
1969/12/31/18:00:08.461,(0 2 7 -8 -17 -6 -1 -2)
1969/12/31/18:00:08.462,(0 1 1 21 23 6 1 0)
1969/12/31/18:00:08.462,(3 1 -12 -8 -13 -1 -2 1)
1969/12/31/18:00:08.484,(-3 -3 -22 -88 -29 -7 -2 -3)
1969/12/31/18:00:08.484,(1 4 12 56 26 9 2 2)
1969/12/31/18:00:08.485,(2 7 25 59 25 11 3 0)
1969/12/31/18:00:08.485,(-3 2 10 25 6 4 2 -2)
1969/12/31/18:00:08.497,(0 -4 -8 -2 -6 0 1 1)
1969/12/31/18:00:08.497,(4 -2 -22 -53 -17 0 4 5)
1969/12/31/18:00:08.506,(-1 -5 -13 -36 -23 -8 -6 -2)
1969/12/31/18:00:08.506,(2 4 5 5 5 -1 -2 2)
1969/12/31/18:00:08.520,(-1 2 12 27 7 2 0 1)
1969/12/31/18:00:08.520,(-4 -1 -2 -4 0 0 -3 -3)
1969/12/31/18:00:08.522,(-1 -1 -2 2 -2 1 0 -1)
1969/12/31/18:00:08.522,(0 -3 -7 -27 -27 -5 0 -1)
1969/12/31/18:00:08.551,(-3 -1 -3 -3 8 1 -1 -2)
1969/12/31/18:00:08.551,(1 4 9 16 21 5 0 0)
1969/12/31/18:00:08.552,(-2 -5 -6 1 -4 0 0 -2)
1969/12/31/18:00:08.552,(0 -5 -15 -41 -7 -2 1 0)
1969/12/31/18:00:08.557,(2 5 18 39 1 3 0 0)
1969/12/31/18:00:08.557,(-5 -4 -7 -34 -15 -7 -3 -2)
1969/12/31/18:00:08.566,(1 5 14 39 12 -3 -3 -3)
1969/12/31/18:00:08.566,(-4 1 23 64 31 11 2 -2)
