time,.data
1969/12/31/18:00:26.226,(8 14 -4 -64 -17 -6 0 4)
1969/12/31/18:00:26.226,(7 5 -14 -43 -35 -14 -9 0)
1969/12/31/18:00:26.235,(-4 -2 20 67 42 12 7 0)
1969/12/31/18:00:26.235,(-3 -5 -7 4 -35 3 6 1)
1969/12/31/18:00:26.250,(-5 -7 -31 -6 56 6 -2 -5)
1969/12/31/18:00:26.250,(4 3 40 61 20 9 9 6)
1969/12/31/18:00:26.251,(-4 2 1 -50 -60 -16 -7 -3)
1969/12/31/18:00:26.251,(1 1 9 14 14 2 -1 1)
1969/12/31/18:00:26.272,(1 4 16 56 7 4 0 -1)
1969/12/31/18:00:26.272,(-16 -20 -49 -70 -31 -19 -11 -13)
1969/12/31/18:00:26.274,(12 6 1 -6 26 14 9 6)
1969/12/31/18:00:26.274,(-5 -6 0 34 -1 -5 -1 -3)
1969/12/31/18:00:26.286,(-2 -1 -2 -43 -24 -8 -5 -4)
1969/12/31/18:00:26.286,(3 7 -2 1 1 -5 -1 -1)
1969/12/31/18:00:26.302,(-6 -14 -30 -80 -50 -20 -9 -6)
1969/12/31/18:00:26.302,(0 8 29 49 12 6 2 1)
1969/12/31/18:00:26.310,(2 3 13 -10 42 19 8 3)
1969/12/31/18:00:26.310,(0 0 7 52 21 5 4 1)
1969/12/31/18:00:26.311,(3 3 -4 -2 7 2 1 3)
1969/12/31/18:00:26.311,(5 1 -7 -20 -5 -1 1 3)
1969/12/31/18:00:26.332,(-6 -6 3 6 -3 0 -1 -4)
1969/12/31/18:00:26.332,(2 -1 -15 -57 -22 -11 -1 0)
1969/12/31/18:00:26.334,(2 0 -7 6 18 5 -1 0)
1969/12/31/18:00:26.334,(4 7 13 -2 -26 -5 -1 1)
1969/12/31/18:00:26.346,(-2 2 19 100 63 14 3 0)
1969/12/31/18:00:26.346,(-8 -9 -16 -46 -7 -6 -5 -6)
1969/12/31/18:00:26.355,(4 2 1 34 -3 0 1 1)
1969/12/31/18:00:26.355,(-3 0 8 14 12 -1 -2 -2)
1969/12/31/18:00:26.369,(4 3 -9 -28 -25 -4 3 2)
1969/12/31/18:00:26.369,(-1 0 -3 -6 -8 -2 -1 -2)
1969/12/31/18:00:26.376,(-1 1 5 4 8 2 0 2)
1969/12/31/18:00:26.376,(0 -1 3 21 15 3 0 -1)
1969/12/31/18:00:26.394,(-7 -6 -11 -19 -24 -8 -6 -3)
1969/12/31/18:00:26.394,(4 2 -3 -23 0 0 2 4)
1969/12/31/18:00:26.395,(-5 -5 -4 -3 -11 -3 -2 -2)
1969/12/31/18:00:26.395,(-2 2 5 -7 6 0 -1 -2)
1969/12/31/18:00:26.406,(6 7 10 21 -5 4 2 3)
1969/12/31/18:00:26.406,(-3 -5 -7 -12 -4 -5 1 3)
1969/12/31/18:00:26.415,(1 1 0 11 4 6 2 -1)
1969/12/31/18:00:26.415,(-9 -5 5 4 17 1 -7 -13)
1969/12/31/18:00:26.429,(-3 -6 -6 -13 -12 -7 -3 -3)
1969/12/31/18:00:26.430,(-3 -1 -4 -8 -8 -5 -3 -1)
1969/12/31/18:00:26.436,(1 -3 -3 -3 0 -1 0 4)
1969/12/31/18:00:26.436,(6 4 4 21 7 6 7 8)
1969/12/31/18:00:26.452,(-4 -2 1 -8 -8 -2 -2 -4)
1969/12/31/18:00:26.452,(1 -2 -6 -16 -5 -3 -1 0)
1969/12/31/18:00:26.454,(-3 -1 2 4 9 3 1 -1)
1969/12/31/18:00:26.454,(0 3 2 25 8 -1 -2 3)
1969/12/31/18:00:26.466,(11 6 1 -14 -17 -5 0 5)
1969/12/31/18:00:26.466,(-33 -14 3 14 9 5 -4 -22)
1969/12/31/18:00:26.475,(11 -7 -9 -27 -12 -6 -4 -1)
1969/12/31/18:00:26.475,(2 7 -2 9 9 7 3 -1)
1969/12/31/18:00:26.489,(-3 -7 -9 -15 -13 -13 -7 -1)
1969/12/31/18:00:26.489,(21 16 7 14 10 8 10 8)
1969/12/31/18:00:26.496,(-14 1 0 -13 -17 -9 -6 2)
1969/12/31/18:00:26.496,(33 -7 -8 2 -1 5 15 28)
1969/12/31/18:00:26.512,(-31 -8 8 -1 9 6 -11 -32)
1969/12/31/18:00:26.512,(-12 -13 -6 7 3 -5 -12 -11)
1969/12/31/18:00:26.514,(-9 7 5 -11 0 3 1 -1)
1969/12/31/18:00:26.514,(15 4 3 15 6 -2 1 11)
1969/12/31/18:00:26.526,(-9 -15 -8 -10 -10 -3 1 7)
1969/12/31/18:00:26.526,(-19 -15 -3 -7 -11 -5 -7 -14)
1969/12/31/18:00:26.535,(70 38 2 -13 -8 7 11 19)
1969/12/31/18:00:26.535,(-7 2 -1 14 4 -5 -10 -8)
1969/12/31/18:00:26.549,(14 11 -1 -6 -5 -1 5 6)
1969/12/31/18:00:26.549,(-13 -9 -6 -14 -21 -6 -3 5)
1969/12/31/18:00:26.556,(-15 -11 2 14 26 15 13 3)
1969/12/31/18:00:26.556,(-5 12 6 2 3 -2 -5 -13)
1969/12/31/18:00:26.572,(-38 -29 -5 7 3 -4 -10 -11)
1969/12/31/18:00:26.572,(14 2 3 -5 -4 0 4 3)
1969/12/31/18:00:26.574,(15 11 -3 -5 -6 -2 0 11)
1969/12/31/18:00:26.574,(-6 3 0 1 4 3 1 -8)
1969/12/31/18:00:26.586,(-8 -8 -2 1 -4 -4 -2 -4)
1969/12/31/18:00:26.586,(10 10 -5 -18 -20 -7 1 5)
1969/12/31/18:00:26.595,(-32 -32 -10 -3 0 -11 -16 -22)
1969/12/31/18:00:26.595,(-7 -7 7 26 20 6 2 2)
1969/12/31/18:00:26.609,(5 7 -12 -49 -25 0 2 4)
1969/12/31/18:00:26.609,(11 11 25 100 40 6 4 7)
1969/12/31/18:00:26.617,(-6 4 9 16 8 6 5 0)
1969/12/31/18:00:26.617,(-17 -20 -8 -18 -3 0 -1 -10)
1969/12/31/18:00:26.633,(-6 -4 -2 -16 -2 0 9 10)
1969/12/31/18:00:26.633,(6 2 -10 -36 -2 11 9 -1)
1969/12/31/18:00:26.635,(35 47 11 3 -12 -16 -21 -7)
1969/12/31/18:00:26.635,(21 -1 5 3 9 13 18 14)
1969/12/31/18:00:26.646,(-8 0 -8 1 -16 -9 -10 -12)
1969/12/31/18:00:26.646,(4 -27 -12 -19 -7 -2 11 23)
1969/12/31/18:00:26.655,(-15 13 9 19 11 12 2 -14)
1969/12/31/18:00:26.655,(3 6 -9 -19 -13 -7 -8 -4)
1969/12/31/18:00:26.669,(28 15 0 1 7 6 5 8)
1969/12/31/18:00:26.669,(-22 -3 -8 -46 -39 -11 -4 -7)
1969/12/31/18:00:26.676,(-1 -14 0 26 29 3 6 8)
1969/12/31/18:00:26.676,(3 9 17 48 14 4 -2 1)
1969/12/31/18:00:26.692,(-9 -3 10 26 18 7 1 -8)
1969/12/31/18:00:26.692,(0 5 -4 -12 0 -3 -6 -2)
1969/12/31/18:00:26.694,(-53 -49 -14 -30 -27 -9 -5 -9)
1969/12/31/18:00:26.694,(58 53 6 -15 2 10 16 18)
1969/12/31/18:00:26.715,(1 -20 -10 16 5 -7 -10 -2)
1969/12/31/18:00:26.715,(9 8 3 -4 4 3 0 0)
1969/12/31/18:00:26.716,(18 3 1 -6 -3 2 9 15)
1969/12/31/18:00:26.716,(-38 -10 -6 -5 -11 -15 -17 -17)
1969/12/31/18:00:26.729,(39 6 3 1 -1 5 9 24)
1969/12/31/18:00:26.729,(-16 -3 -4 1 3 -2 -10 -20)
1969/12/31/18:00:26.737,(-17 -21 -11 -31 -19 -10 -8 -2)
1969/12/31/18:00:26.737,(-5 -8 -7 2 -12 -4 1 7)
1969/12/31/18:00:26.752,(14 27 17 17 8 10 8 4)
1969/12/31/18:00:26.752,(-9 -6 10 40 30 5 -4 -6)
1969/12/31/18:00:26.754,(-4 1 6 27 16 7 1 -4)
1969/12/31/18:00:26.754,(4 -4 -14 -57 -9 -2 1 4)
1969/12/31/18:00:26.775,(-10 -8 -9 5 -22 -8 -1 -5)
1969/12/31/18:00:26.775,(6 10 10 32 17 2 0 0)
1969/12/31/18:00:26.776,(15 16 -5 -26 -20 -4 0 1)
1969/12/31/18:00:26.776,(-34 -22 0 9 -4 -8 -11 -13)
1969/12/31/18:00:26.789,(-7 -22 -8 -12 5 1 3 10)
1969/12/31/18:00:26.789,(18 17 2 -5 -2 2 -1 -10)
1969/12/31/18:00:26.797,(12 12 -3 2 -5 -9 -9 -7)
1969/12/31/18:00:26.797,(8 2 -3 -13 -6 -4 -8 -11)
1969/12/31/18:00:26.812,(-20 -9 -4 -1 -2 -11 -9 -10)
1969/12/31/18:00:26.812,(9 4 -2 -19 -11 1 7 16)
1969/12/31/18:00:26.814,(-7 -13 -12 -27 -22 -14 -5 -4)
1969/12/31/18:00:26.814,(-13 -12 -7 -8 -16 -8 -1 1)
1969/12/31/18:00:26.835,(6 10 -7 1 42 20 7 0)
1969/12/31/18:00:26.835,(7 10 44 95 61 26 9 6)
1969/12/31/18:00:26.836,(-4 0 22 51 48 17 5 -1)
1969/12/31/18:00:26.836,(-8 -9 -5 -34 -38 -12 -4 -5)
1969/12/31/18:00:26.849,(4 6 -11 -27 -32 -20 -5 -3)
1969/12/31/18:00:26.849,(-7 -8 -23 -54 -23 -14 -7 -5)
1969/12/31/18:00:26.857,(8 -8 -10 -6 -11 -1 9 22)
1969/12/31/18:00:26.857,(8 13 10 9 18 14 10 2)
1969/12/31/18:00:26.872,(-2 0 -3 -19 -14 -10 -23 -28)
1969/12/31/18:00:26.872,(-1 0 -9 -17 -16 -11 -8 -4)
1969/12/31/18:00:26.874,(-1 -5 2 7 -2 0 -2 -4)
1969/12/31/18:00:26.874,(8 4 -3 -5 -5 -4 -1 9)
1969/12/31/18:00:26.895,(8 13 6 -1 -3 -11 3 13)
1969/12/31/18:00:26.895,(-16 -22 -21 -101 -100 -49 -19 -13)
1969/12/31/18:00:26.896,(-4 0 3 72 23 23 4 -5)
1969/12/31/18:00:26.896,(-9 -6 10 15 99 52 12 3)
1969/12/31/18:00:26.908,(13 14 12 35 -23 14 14 11)
1969/12/31/18:00:26.908,(-7 -13 11 19 14 17 4 3)
1969/12/31/18:00:26.917,(31 31 -3 13 71 21 8 19)
1969/12/31/18:00:26.917,(-64 -19 12 35 15 4 -10 -37)
1969/12/31/18:00:26.932,(14 -15 -4 -22 -18 -22 -10 2)
1969/12/31/18:00:26.932,(2 -11 -30 -56 -93 -38 -16 -12)
1969/12/31/18:00:26.934,(-13 -12 2 -20 -9 -5 4 2)
1969/12/31/18:00:26.934,(14 -12 -3 19 25 9 3 3)
1969/12/31/18:00:26.955,(20 40 -4 -15 8 -1 1 8)
1969/12/31/18:00:26.955,(-5 3 2 8 -9 -4 3 -1)
1969/12/31/18:00:26.956,(-23 -32 -5 -10 -20 -5 -2 -7)
1969/12/31/18:00:26.956,(18 16 -1 -13 -18 -16 -2 7)
1969/12/31/18:00:26.968,(-12 -9 -3 -27 -25 -8 2 -2)
1969/12/31/18:00:26.968,(5 -2 -8 -2 3 9 3 6)
1969/12/31/18:00:26.977,(2 9 17 27 32 16 6 -2)
1969/12/31/18:00:26.977,(3 -2 1 10 9 0 1 4)
1969/12/31/18:00:26.992,(-2 -5 3 13 -4 -3 -8 -2)
1969/12/31/18:00:26.992,(4 20 7 19 20 3 7 2)
1969/12/31/18:00:26.994,(-19 -10 -12 -39 -41 -18 -14 -18)
1969/12/31/18:00:26.994,(-3 -5 -13 -52 -20 -14 -11 -11)
1969/12/31/18:00:27.022,(-4 -18 -7 -21 -2 15 6 0)
1969/12/31/18:00:27.022,(28 28 7 71 43 2 5 15)
1969/12/31/18:00:27.024,(-4 2 22 39 -5 -1 -1 -5)
1969/12/31/18:00:27.024,(-3 -8 5 29 14 8 0 1)
1969/12/31/18:00:27.028,(-9 7 9 13 52 24 8 -4)
1969/12/31/18:00:27.028,(-14 -15 -18 -57 -20 -10 -6 -5)
1969/12/31/18:00:27.037,(9 -14 -17 -40 -54 -16 3 9)
1969/12/31/18:00:27.037,(20 29 1 15 -5 -7 4 9)
1969/12/31/18:00:27.052,(2 10 5 -17 2 -1 -2 -4)
1969/12/31/18:00:27.052,(-13 -18 2 22 13 3 -4 -4)
1969/12/31/18:00:27.054,(0 9 -2 -8 5 -1 -1 -7)
1969/12/31/18:00:27.054,(7 -5 -1 -10 -20 0 11 14)
1969/12/31/18:00:27.075,(-4 0 2 12 -3 -4 -2 -6)
1969/12/31/18:00:27.075,(1 -1 6 5 14 7 -1 -3)
1969/12/31/18:00:27.076,(6 3 -3 -18 -27 -13 2 7)
1969/12/31/18:00:27.076,(-1 5 -5 -5 -9 -5 0 1)
1969/12/31/18:00:27.097,(2 0 0 12 34 16 4 1)
1969/12/31/18:00:27.097,(1 -6 2 25 34 25 12 10)
1969/12/31/18:00:27.099,(-11 -8 4 10 1 -4 -9 -9)
1969/12/31/18:00:27.099,(11 23 1 -25 -48 -27 -7 3)
1969/12/31/18:00:27.112,(-12 -19 1 32 -13 -5 -1 -8)
1969/12/31/18:00:27.112,(-3 4 4 -5 31 14 -1 -4)
1969/12/31/18:00:27.114,(5 7 -3 -14 6 6 3 4)
1969/12/31/18:00:27.114,(-4 -13 -9 -10 -11 -7 -4 -2)
1969/12/31/18:00:27.135,(3 2 6 8 -4 -3 0 7)
1969/12/31/18:00:27.135,(-6 0 2 -4 -7 -3 -4 -9)
1969/12/31/18:00:27.136,(2 1 -6 -15 -9 -10 -11 -5)
1969/12/31/18:00:27.136,(-27 -20 -3 0 -6 -9 -11 -18)
1969/12/31/18:00:27.148,(-1 -6 -19 -64 -77 -27 -5 -1)
1969/12/31/18:00:27.149,(12 7 6 61 46 25 18 17)
1969/12/31/18:00:27.157,(-3 -1 13 40 97 38 5 -3)
1969/12/31/18:00:27.157,(17 6 10 22 26 28 16 18)
1969/12/31/18:00:27.172,(-10 3 8 14 5 -1 -4 -3)
1969/12/31/18:00:27.172,(-17 -16 -12 -39 -48 -30 -20 -17)
1969/12/31/18:00:27.174,(0 -9 -14 -38 -38 -15 1 6)
1969/12/31/18:00:27.174,(11 7 -5 3 0 -3 2 2)
1969/12/31/18:00:27.195,(-29 -20 -5 2 -5 -6 -8 -16)
1969/12/31/18:00:27.195,(17 12 -2 -1 2 -2 -2 6)
1969/12/31/18:00:27.196,(-25 -2 7 5 16 9 1 -12)
1969/12/31/18:00:27.196,(17 4 -2 2 -12 -2 -4 0)
1969/12/31/18:00:27.209,(-9 -6 7 5 4 2 0 -4)
1969/12/31/18:00:27.209,(-10 -10 -12 -32 -7 -5 -1 -6)
1969/12/31/18:00:27.217,(25 18 6 41 -4 0 8 14)
1969/12/31/18:00:27.217,(-16 -11 14 29 15 7 2 -2)
1969/12/31/18:00:27.232,(11 4 3 5 22 7 3 7)
1969/12/31/18:00:27.232,(-6 -2 2 -12 -6 -3 -7 -12)
1969/12/31/18:00:27.234,(7 8 -12 -33 -28 -11 -4 -1)
1969/12/31/18:00:27.234,(1 2 -8 -31 -19 -9 -2 1)
1969/12/31/18:00:27.262,(-1 -11 -15 -16 -26 -13 -6 0)
1969/12/31/18:00:27.262,(-2 1 5 20 16 11 8 6)
1969/12/31/18:00:27.264,(-10 -11 12 26 34 11 -2 -4)
1969/12/31/18:00:27.264,(7 2 4 12 16 8 2 2)
1969/12/31/18:00:27.269,(6 3 6 27 25 15 9 10)
1969/12/31/18:00:27.269,(-5 -2 -4 -17 -26 -17 -14 -19)
1969/12/31/18:00:27.278,(-15 -24 -17 -56 -38 -17 -3 -2)
1969/12/31/18:00:27.278,(6 12 1 11 0 1 1 2)
1969/12/31/18:00:27.292,(3 -1 -2 17 5 0 0 8)
1969/12/31/18:00:27.292,(0 0 4 16 14 12 10 4)
1969/12/31/18:00:27.294,(-9 -6 2 -15 -4 -1 -3 -9)
1969/12/31/18:00:27.294,(-13 -24 -18 -11 -15 -11 -7 -1)
1969/12/31/18:00:27.315,(-20 -11 6 -4 6 5 1 -8)
1969/12/31/18:00:27.315,(14 13 -1 13 7 7 7 8)
1969/12/31/18:00:27.317,(13 18 1 -4 -2 -2 -3 -1)
1969/12/31/18:00:27.317,(-14 -21 -7 -14 -18 -12 -9 -7)
1969/12/31/18:00:27.328,(-37 -33 -2 10 8 0 -5 -13)
1969/12/31/18:00:27.328,(49 36 5 -3 4 4 7 21)
1969/12/31/18:00:27.337,(3 10 1 -1 -15 -4 1 1)
1969/12/31/18:00:27.337,(5 4 -4 -7 -3 -2 -1 0)
1969/12/31/18:00:27.352,(17 16 12 19 23 8 4 6)
1969/12/31/18:00:27.352,(-26 -23 -7 -38 -17 -8 -6 -7)
1969/12/31/18:00:27.354,(13 6 -19 -17 -22 -7 0 7)
1969/12/31/18:00:27.354,(6 10 27 80 29 7 2 0)
1969/12/31/18:00:27.375,(7 -4 2 -3 14 0 1 9)
1969/12/31/18:00:27.375,(-23 1 7 23 13 10 1 -18)
1969/12/31/18:00:27.376,(-59 -58 -10 -24 -17 -9 -5 -13)
1969/12/31/18:00:27.376,(51 51 -11 -36 -7 4 9 10)
1969/12/31/18:00:27.397,(21 16 -5 -15 -7 -3 -4 6)
1969/12/31/18:00:27.397,(5 -1 5 9 4 2 1 3)
1969/12/31/18:00:27.399,(13 9 -2 -9 -1 -6 -5 -2)
1969/12/31/18:00:27.399,(-43 -37 -3 9 2 4 4 -11)
1969/12/31/18:00:27.412,(4 16 3 3 -5 -4 -3 2)
1969/12/31/18:00:27.412,(-6 -11 4 4 6 5 4 2)
1969/12/31/18:00:27.418,(33 27 -2 -32 -2 5 3 4)
1969/12/31/18:00:27.418,(-9 -12 0 25 5 -6 -7 -4)
1969/12/31/18:00:27.435,(7 15 2 -9 -3 -1 -3 -6)
1969/12/31/18:00:27.435,(-22 -27 0 12 2 4 8 9)
1969/12/31/18:00:27.436,(11 11 12 31 17 -1 -4 -1)
1969/12/31/18:00:27.436,(6 4 -25 -59 -25 -15 -14 1)
1969/12/31/18:00:27.448,(-21 -14 3 17 -4 4 4 -21)
1969/12/31/18:00:27.448,(-4 -8 1 3 4 2 4 8)
1969/12/31/18:00:27.457,(-6 -20 -4 -6 2 4 2 5)
1969/12/31/18:00:27.457,(28 38 13 11 2 -2 -3 -4)
1969/12/31/18:00:27.472,(-77 -68 -20 -13 -9 -12 -16 -30)
1969/12/31/18:00:27.472,(86 76 5 -9 0 1 11 34)
1969/12/31/18:00:27.478,(17 7 -2 22 5 7 4 9)
1969/12/31/18:00:27.478,(-34 -21 1 -14 -8 -6 -12 -20)
1969/12/31/18:00:27.495,(5 -8 -16 -49 -24 -9 -3 -1)
1969/12/31/18:00:27.495,(-11 -12 4 23 1 -1 2 -3)
1969/12/31/18:00:27.496,(15 13 14 43 19 6 6 14)
1969/12/31/18:00:27.496,(-14 -21 2 14 10 1 0 -5)
1969/12/31/18:00:27.508,(30 42 27 62 38 20 17 19)
1969/12/31/18:00:27.509,(-18 -19 -20 -57 -22 -15 -20 -15)
1969/12/31/18:00:27.517,(-31 -29 -1 16 -8 -5 -2 -6)
1969/12/31/18:00:27.517,(17 21 -2 -13 2 6 7 3)
1969/12/31/18:00:27.532,(12 2 -12 -36 -9 -2 0 2)
1969/12/31/18:00:27.532,(-7 -2 0 23 -3 -3 1 0)
1969/12/31/18:00:27.538,(-31 -46 -8 -2 2 -2 -5 -16)
1969/12/31/18:00:27.538,(5 23 0 -60 -14 8 17 22)
1969/12/31/18:00:27.555,(13 16 -2 42 1 -6 -10 -13)
1969/12/31/18:00:27.555,(-10 -15 17 50 21 0 -6 -8)
1969/12/31/18:00:27.556,(6 18 2 -11 -4 -4 -1 -1)
1969/12/31/18:00:27.556,(-25 -25 -1 2 -3 -2 0 -4)
1969/12/31/18:00:27.568,(24 25 -9 -26 -12 -4 -6 -1)
1969/12/31/18:00:27.568,(-10 4 -17 -50 -21 -9 -8 -9)
1969/12/31/18:00:27.577,(2 6 11 34 -2 1 1 -3)
1969/12/31/18:00:27.577,(-6 -5 12 51 24 0 -2 0)
1969/12/31/18:00:27.592,(13 10 9 -2 3 0 3 13)
1969/12/31/18:00:27.592,(-21 -22 -1 -4 2 1 -5 -15)
1969/12/31/18:00:27.599,(0 7 -16 -37 -13 -11 -15 -14)
1969/12/31/18:00:27.599,(6 -7 -3 -28 -16 2 4 5)
1969/12/31/18:00:27.615,(9 8 4 7 4 0 3 5)
1969/12/31/18:00:27.615,(-20 -26 -1 7 5 0 0 0)
1969/12/31/18:00:27.616,(17 25 3 4 5 0 1 6)
1969/12/31/18:00:27.616,(-7 -2 2 8 3 8 5 -11)
1969/12/31/18:00:27.637,(-22 -32 -17 -40 -7 -4 -8 -6)
1969/12/31/18:00:27.637,(33 39 -14 -30 -23 -4 5 16)
1969/12/31/18:00:27.639,(-10 0 29 82 33 5 1 1)
1969/12/31/18:00:27.639,(-11 -11 1 22 4 -9 -12 -13)
1969/12/31/18:00:27.652,(-20 -20 6 19 8 8 11 1)
1969/12/31/18:00:27.652,(22 17 -3 -26 1 2 0 14)
1969/12/31/18:00:27.659,(-3 -11 -13 -40 -20 -3 -1 -3)
1969/12/31/18:00:27.659,(10 -14 -8 -5 -4 -2 -1 4)
1969/12/31/18:00:27.675,(41 54 5 7 -2 -4 -2 14)
1969/12/31/18:00:27.675,(-41 -29 -2 -3 -4 -9 -16 -33)
1969/12/31/18:00:27.676,(20 9 -4 -12 0 3 4 17)
1969/12/31/18:00:27.676,(-9 -15 -4 -25 -13 -2 -1 6)
1969/12/31/18:00:27.697,(24 30 1 18 3 1 9 13)
1969/12/31/18:00:27.697,(-5 -5 23 48 32 22 19 12)
1969/12/31/18:00:27.699,(5 30 -4 -3 -3 -6 -13 -14)
1969/12/31/18:00:27.699,(-49 -52 -17 -24 -19 -15 -17 -26)
1969/12/31/18:00:27.711,(12 1 -3 -9 4 6 -1 0)
1969/12/31/18:00:27.711,(52 44 3 3 3 5 10 26)
1969/12/31/18:00:27.720,(-51 -60 -3 -6 0 2 -2 -25)
1969/12/31/18:00:27.720,(40 54 1 -2 0 -1 1 18)
1969/12/31/18:00:27.735,(-11 -14 -2 -19 -18 -3 3 -1)
1969/12/31/18:00:27.735,(2 -1 0 24 11 -5 -3 -6)
1969/12/31/18:00:27.736,(-14 -29 -1 -3 1 4 6 0)
1969/12/31/18:00:27.736,(17 41 6 12 2 -4 -2 7)
1969/12/31/18:00:27.757,(-43 -39 -5 6 -1 -12 -25 -38)
1969/12/31/18:00:27.757,(3 -9 -5 -17 -7 -1 1 -3)
1969/12/31/18:00:27.759,(10 7 -10 -19 -12 -5 8 20)
1969/12/31/18:00:27.759,(-3 -21 -5 12 11 10 4 -7)
1969/12/31/18:00:27.771,(7 11 9 3 6 8 15 19)
1969/12/31/18:00:27.771,(2 7 -3 -12 -11 -14 -20 -14)
1969/12/31/18:00:27.780,(-3 -6 -5 -4 -5 -6 -4 -5)
1969/12/31/18:00:27.780,(-8 -10 -4 -3 -8 -4 -3 -4)
1969/12/31/18:00:27.795,(9 3 1 -1 1 1 4 5)
1969/12/31/18:00:27.795,(-20 -26 -8 -23 -10 2 3 0)
1969/12/31/18:00:27.796,(24 35 14 53 24 6 6 11)
1969/12/31/18:00:27.796,(-29 -39 8 12 9 -1 -4 -7)
1969/12/31/18:00:27.817,(21 13 0 -1 3 6 9 5)
1969/12/31/18:00:27.817,(46 68 9 -15 -8 7 16 32)
1969/12/31/18:00:27.819,(0 7 -8 -22 -4 -3 -4 -15)
1969/12/31/18:00:27.819,(-16 -15 -5 -3 -5 -2 -2 -7)
1969/12/31/18:00:27.831,(-15 -23 -4 7 -1 -5 -10 -7)
1969/12/31/18:00:27.831,(-10 -13 -4 -9 -7 -4 0 1)
1969/12/31/18:00:27.840,(24 17 1 -10 -5 6 11 17)
1969/12/31/18:00:27.840,(-8 1 5 8 2 2 1 -6)
1969/12/31/18:00:27.855,(-20 -10 -5 -3 -5 -8 -10 -10)
1969/12/31/18:00:27.855,(-13 -10 -4 0 2 -2 -4 -9)
1969/12/31/18:00:27.856,(10 6 3 -11 -4 12 16 15)
1969/12/31/18:00:27.856,(2 -10 -2 14 10 2 0 2)
1969/12/31/18:00:27.877,(8 19 6 12 8 7 10 16)
1969/12/31/18:00:27.877,(-14 -24 -9 2 -8 -16 -14 -8)
1969/12/31/18:00:27.879,(2 2 4 -6 -4 -2 -6 -7)
1969/12/31/18:00:27.879,(22 14 -5 -13 -4 2 7 17)
1969/12/31/18:00:27.892,(5 9 1 -1 1 3 -1 -2)
1969/12/31/18:00:27.892,(-35 -28 -6 8 -2 -10 -15 -24)
1969/12/31/18:00:27.900,(6 1 3 -9 -2 3 6 12)
1969/12/31/18:00:27.900,(15 34 -2 -7 -6 1 8 11)
1969/12/31/18:00:27.915,(-12 -18 -2 0 -3 -10 -14 -14)
1969/12/31/18:00:27.915,(18 17 4 6 5 4 1 3)
1969/12/31/18:00:27.916,(-15 3 1 2 -3 -6 -8 -18)
1969/12/31/18:00:27.916,(-21 -41 6 5 6 3 -2 -5)
1969/12/31/18:00:27.937,(48 48 8 3 7 12 22 32)
1969/12/31/18:00:27.937,(-13 0 -7 -6 -5 -3 -3 -10)
1969/12/31/18:00:27.939,(12 -11 -2 1 6 8 13 20)
1969/12/31/18:00:27.939,(5 10 1 -4 -4 -4 -4 -6)
1969/12/31/18:00:27.951,(-18 -18 -1 -5 -5 -5 -6 -7)
1969/12/31/18:00:27.951,(13 8 -1 -7 -5 5 9 11)
1969/12/31/18:00:27.960,(-6 0 -1 7 -6 -12 -15 -13)
1969/12/31/18:00:27.960,(13 16 9 21 19 7 10 4)
1969/12/31/18:00:27.982,(-8 -7 0 4 4 6 0 -6)
1969/12/31/18:00:27.982,(-25 -28 -2 9 7 -5 -8 -12)
1969/12/31/18:00:27.984,(2 10 -16 -17 -8 -2 -4 -6)
1969/12/31/18:00:27.984,(23 26 0 -21 -20 -10 -9 4)
1969/12/31/18:00:27.997,(-20 -23 -6 -4 1 0 -2 -9)
1969/12/31/18:00:27.997,(-11 -15 2 -1 1 5 1 -8)
1969/12/31/18:00:27.999,(13 13 1 1 -1 0 8 15)
1969/12/31/18:00:27.999,(-32 -40 -5 -5 -4 -2 -4 -6)
1969/12/31/18:00:28.011,(70 84 10 0 0 3 11 29)
1969/12/31/18:00:28.011,(13 1 8 12 9 11 17 17)
1969/12/31/18:00:28.020,(-26 -28 -4 -1 0 1 -8 -21)
1969/12/31/18:00:28.020,(19 12 -3 2 0 0 1 7)
1969/12/31/18:00:28.035,(-42 -31 -7 -8 -3 1 2 -12)
1969/12/31/18:00:28.035,(7 11 4 -1 1 -3 -10 -3)
1969/12/31/18:00:28.036,(0 -6 1 0 3 2 6 5)
1969/12/31/18:00:28.036,(-10 4 -6 -13 -8 -3 -6 -13)
1969/12/31/18:00:28.057,(-13 -32 -1 2 -2 -2 1 2)
1969/12/31/18:00:28.057,(58 58 15 21 21 20 31 43)
1969/12/31/18:00:28.059,(-12 -3 -4 -4 1 -8 -16 -20)
1969/12/31/18:00:28.059,(-15 -18 -1 -4 -18 -4 -3 -6)
1969/12/31/18:00:28.080,(-2 -7 -6 -6 -11 -9 -12 -10)
1969/12/31/18:00:28.080,(-19 -3 3 -3 -1 7 15 -1)
1969/12/31/18:00:28.081,(35 14 7 7 12 7 10 23)
1969/12/31/18:00:28.081,(16 14 1 -1 5 4 3 5)
1969/12/31/18:00:28.095,(-17 -8 -5 -1 2 0 1 -7)
1969/12/31/18:00:28.095,(-29 -21 -10 -8 -12 -15 -24 -33)
1969/12/31/18:00:28.096,(-25 -19 -13 -16 -15 -9 -8 -12)
1969/12/31/18:00:28.096,(4 2 1 10 13 3 1 3)
1969/12/31/18:00:28.117,(-9 -12 5 13 2 0 -1 1)
1969/12/31/18:00:28.117,(33 33 -4 -6 -5 -9 -6 16)
1969/12/31/18:00:28.119,(-31 -14 -2 -6 -9 -10 -22 -37)
1969/12/31/18:00:28.119,(-6 -12 -9 -6 -5 -9 -7 -6)
1969/12/31/18:00:28.131,(-2 -7 -1 -7 -2 2 0 -6)
1969/12/31/18:00:28.131,(8 8 -3 -3 -6 -6 -6 0)
1969/12/31/18:00:28.140,(-14 -2 6 -1 -9 -3 -5 -11)
1969/12/31/18:00:28.140,(17 19 3 14 17 9 13 15)
1969/12/31/18:00:28.155,(-3 -10 -2 10 10 6 2 1)
1969/12/31/18:00:28.155,(-15 -20 0 -11 -9 -1 -4 -11)
1969/12/31/18:00:28.156,(8 6 -7 -3 -2 -2 4 12)
1969/12/31/18:00:28.156,(-9 -7 2 0 -3 -6 -4 -4)
1969/12/31/18:00:28.177,(1 18 10 11 10 9 6 -1)
1969/12/31/18:00:28.177,(-19 -30 -8 1 4 2 -6 -11)
1969/12/31/18:00:28.179,(10 0 -1 -10 -11 -4 3 22)
1969/12/31/18:00:28.179,(-23 -12 -12 -11 -12 -11 -18 -31)
1969/12/31/18:00:28.191,(16 18 -9 -11 -6 -5 3 8)
1969/12/31/18:00:28.191,(-2 5 7 0 -6 -9 -20 -31)
1969/12/31/18:00:28.200,(7 0 2 9 8 6 11 20)
1969/12/31/18:00:28.200,(21 21 3 2 10 9 12 17)
1969/12/31/18:00:28.215,(-10 -22 -6 -15 -17 -11 -11 -3)
1969/12/31/18:00:28.215,(-6 -10 -7 -4 -9 -6 -2 -1)
1969/12/31/18:00:28.216,(16 18 11 11 13 8 10 9)
1969/12/31/18:00:28.216,(10 9 9 5 5 10 13 14)
1969/12/31/18:00:28.237,(2 -3 -1 -3 -1 0 1 -3)
1969/12/31/18:00:28.237,(-29 -27 -10 -15 -7 -6 -5 -7)
1969/12/31/18:00:28.239,(39 24 7 -4 -3 12 20 27)
1969/12/31/18:00:28.239,(0 -4 10 36 22 8 7 3)
1969/12/31/18:00:28.251,(-37 -26 2 17 9 -4 -6 -9)
1969/12/31/18:00:28.251,(51 60 10 10 11 10 9 6)
1969/12/31/18:00:28.260,(-17 -21 -10 -15 -9 -6 -6 -8)
1969/12/31/18:00:28.260,(4 4 -3 -19 -12 -3 0 -2)
1969/12/31/18:00:28.275,(-4 -6 -7 -19 -14 -6 -3 -5)
1969/12/31/18:00:28.275,(-8 -21 -6 2 -1 1 5 11)
1969/12/31/18:00:28.277,(-6 12 7 19 15 -3 -10 -15)
1969/12/31/18:00:28.277,(7 11 -1 -1 2 3 3 5)
1969/12/31/18:00:28.297,(13 9 3 -10 8 2 -3 2)
1969/12/31/18:00:28.297,(-7 -6 -2 1 -9 0 3 4)
1969/12/31/18:00:28.299,(2 3 -2 3 -5 -1 -4 -4)
1969/12/31/18:00:28.299,(-18 -8 -6 4 3 -8 -10 -13)
1969/12/31/18:00:28.311,(13 -14 -15 -25 -16 -8 -5 9)
1969/12/31/18:00:28.311,(-44 -12 16 22 22 9 -6 -41)
1969/12/31/18:00:28.320,(-12 3 0 4 -2 -3 -6 -11)
1969/12/31/18:00:28.320,(-28 -10 5 0 -4 -4 -7 -9)
1969/12/31/18:00:28.342,(-7 -22 -11 -8 -9 -7 -10 -15)
1969/12/31/18:00:28.342,(47 32 1 -7 1 3 12 28)
1969/12/31/18:00:28.343,(-4 -10 -2 1 0 -3 -3 -6)
1969/12/31/18:00:28.343,(-4 20 1 -9 -4 -3 -8 -12)
1969/12/31/18:00:28.357,(-5 5 2 -7 -10 1 2 -4)
1969/12/31/18:00:28.357,(-15 -19 -5 9 14 -5 -5 -1)
1969/12/31/18:00:28.357,(9 2 -6 -10 -12 -2 4 8)
1969/12/31/18:00:28.357,(29 2 3 11 3 4 11 24)
1969/12/31/18:00:28.379,(-7 10 13 27 17 4 -4 -12)
1969/12/31/18:00:28.379,(2 -5 -5 -30 -10 0 5 7)
1969/12/31/18:00:28.380,(-10 -10 -5 10 -5 -8 -9 -10)
1969/12/31/18:00:28.380,(-12 11 0 8 -1 -11 -10 -12)
1969/12/31/18:00:28.393,(76 68 20 25 24 30 39 57)
1969/12/31/18:00:28.393,(-32 -32 -15 -9 -5 -10 -18 -23)
1969/12/31/18:00:28.402,(-11 -8 -5 -19 -9 -3 -4 -9)
1969/12/31/18:00:28.402,(7 -6 -5 -22 -23 -3 2 5)
1969/12/31/18:00:28.417,(-11 -14 5 19 15 1 1 -2)
1969/12/31/18:00:28.417,(16 -7 -8 -1 -1 -2 2 19)
1969/12/31/18:00:28.417,(-12 12 -1 -1 0 1 -8 -27)
1969/12/31/18:00:28.417,(-3 -6 0 -3 -6 -4 -2 -4)
1969/12/31/18:00:28.439,(-14 -8 -5 -10 -12 -11 -13 -12)
1969/12/31/18:00:28.439,(-1 -17 -12 -20 -7 -1 2 7)
1969/12/31/18:00:28.440,(-3 -5 -1 1 -7 -21 -10 -2)
1969/12/31/18:00:28.440,(-4 -10 -5 -19 -25 -4 -4 -4)
1969/12/31/18:00:28.453,(-1 11 19 78 57 15 4 -2)
1969/12/31/18:00:28.453,(10 20 21 34 42 31 15 11)
1969/12/31/18:00:28.462,(10 11 6 7 24 14 6 7)
1969/12/31/18:00:28.462,(-43 -64 -22 -31 -23 -10 -8 -20)
1969/12/31/18:00:28.477,(74 70 1 -33 -27 1 26 47)
1969/12/31/18:00:28.477,(-42 -32 -16 -6 -23 -30 -32 -33)
1969/12/31/18:00:28.477,(-11 -9 -3 -12 -8 -3 -10 -13)
1969/12/31/18:00:28.477,(7 1 0 2 6 5 7 13)
1969/12/31/18:00:28.499,(-25 -26 -13 -19 -20 -10 -11 -15)
1969/12/31/18:00:28.499,(0 0 3 9 6 0 5 2)
1969/12/31/18:00:28.500,(14 16 4 -4 0 6 8 14)
1969/12/31/18:00:28.500,(4 7 3 16 5 0 -3 -1)
1969/12/31/18:00:28.514,(-18 -21 -9 -15 8 -2 -7 -11)
1969/12/31/18:00:28.514,(22 32 5 17 -2 5 11 10)
1969/12/31/18:00:28.515,(-6 -10 9 22 14 4 2 1)
1969/12/31/18:00:28.515,(6 12 8 23 20 9 4 0)
1969/12/31/18:00:28.536,(-15 -11 -6 -28 -17 -8 -8 -10)
1969/12/31/18:00:28.536,(0 -10 -10 -20 -18 -4 0 3)
1969/12/31/18:00:28.537,(0 -4 -6 -6 -7 -2 2 2)
1969/12/31/18:00:28.537,(-10 -16 -7 -7 1 -4 -5 -3)
1969/12/31/18:00:28.559,(55 75 12 -4 -7 10 24 31)
1969/12/31/18:00:28.559,(-21 -16 -5 -5 -32 -23 -21 -28)
1969/12/31/18:00:28.560,(-11 -12 -1 12 17 6 -1 -4)
1969/12/31/18:00:28.560,(7 7 7 4 29 20 12 11)
1969/12/31/18:00:28.574,(-27 -15 -6 13 6 -5 -19 -21)
1969/12/31/18:00:28.574,(28 13 12 14 6 8 14 22)
1969/12/31/18:00:28.575,(3 7 1 -9 -14 -6 -3 2)
1969/12/31/18:00:28.575,(5 1 -9 -17 -17 -10 -5 0)
1969/12/31/18:00:28.597,(-24 -24 -5 -3 -7 -5 -7 -16)
1969/12/31/18:00:28.597,(11 14 2 -3 -1 -3 3 7)
1969/12/31/18:00:28.597,(-6 -10 -5 -7 -3 -3 -2 -5)
1969/12/31/18:00:28.597,(2 1 2 3 5 4 1 1)
1969/12/31/18:00:28.619,(-20 -22 0 6 -5 -10 -11 -13)
1969/12/31/18:00:28.619,(12 11 2 -2 6 1 0 3)
1969/12/31/18:00:28.620,(3 -5 -2 -2 -1 0 3 5)
1969/12/31/18:00:28.620,(-15 -6 0 4 1 1 3 -5)
1969/12/31/18:00:28.634,(11 -17 -8 -4 -4 -6 -6 1)
1969/12/31/18:00:28.634,(1 32 17 6 13 15 14 1)
1969/12/31/18:00:28.635,(-1 -7 -8 -7 -5 -5 -9 -13)
1969/12/31/18:00:28.635,(9 10 1 2 -2 -1 1 1)
1969/12/31/18:00:28.657,(-23 -26 -5 -16 4 -3 -7 -11)
1969/12/31/18:00:28.657,(-6 -14 0 14 -8 -2 -1 7)
1969/12/31/18:00:28.657,(12 12 3 11 9 4 2 6)
1969/12/31/18:00:28.657,(1 5 2 -28 -22 -4 -5 -6)
1969/12/31/18:00:28.679,(-7 -11 -5 18 18 1 3 0)
1969/12/31/18:00:28.679,(1 -3 -7 -9 9 1 0 2)
1969/12/31/18:00:28.680,(-7 1 3 3 -9 4 6 2)
1969/12/31/18:00:28.680,(9 8 2 10 0 -8 -9 -2)
1969/12/31/18:00:28.694,(3 -20 6 -5 -8 4 3 7)
1969/12/31/18:00:28.694,(3 15 -6 -11 -1 1 3 -4)
1969/12/31/18:00:28.695,(-24 -29 -5 4 2 -7 -9 -13)
1969/12/31/18:00:28.695,(65 48 14 5 0 6 22 52)
1969/12/31/18:00:28.717,(-16 -21 -10 -4 -10 -9 -12 -22)
1969/12/31/18:00:28.717,(-9 -4 -5 -1 0 -3 -3 -6)
1969/12/31/18:00:28.717,(19 4 5 -8 0 6 10 21)
1969/12/31/18:00:28.717,(-20 -9 -4 4 5 2 -5 -15)
1969/12/31/18:00:28.740,(-1 7 5 2 -2 2 5 4)
1969/12/31/18:00:28.740,(-11 4 -13 -12 -11 -9 -7 -2)
1969/12/31/18:00:28.740,(-7 0 -5 -6 -9 -16 -22 -19)
1969/12/31/18:00:28.740,(1 3 0 -2 3 -1 1 2)
1969/12/31/18:00:28.754,(0 2 -3 1 -2 -1 -1 -2)
1969/12/31/18:00:28.754,(-29 -31 -6 -5 -3 -4 -8 -17)
1969/12/31/18:00:28.755,(-1 2 1 4 4 6 7 5)
1969/12/31/18:00:28.755,(-9 -10 -5 -4 0 1 -1 -7)
1969/12/31/18:00:28.777,(-2 -3 -6 -11 -7 -5 -1 0)
1969/12/31/18:00:28.777,(36 19 23 19 15 12 21 33)
1969/12/31/18:00:28.777,(-15 -10 -3 5 2 -4 -6 -13)
1969/12/31/18:00:28.777,(-4 -7 -3 2 0 -2 -3 -6)
1969/12/31/18:00:28.800,(-19 -2 -4 -9 -3 -6 -11 -16)
1969/12/31/18:00:28.800,(6 0 -4 -12 -8 0 3 7)
1969/12/31/18:00:28.800,(19 14 -1 -32 -31 3 10 15)
1969/12/31/18:00:28.800,(-20 -13 1 41 20 -4 -8 -13)
1969/12/31/18:00:28.814,(12 14 13 24 21 9 8 11)
1969/12/31/18:00:28.814,(-8 -10 2 4 -1 -2 -10 -13)
1969/12/31/18:00:28.815,(-4 -5 -10 -37 -1 2 3 1)
1969/12/31/18:00:28.815,(3 1 -8 -20 -31 -12 -4 1)
1969/12/31/18:00:28.836,(2 7 -6 -36 -31 -10 -5 -1)
1969/12/31/18:00:28.836,(7 1 12 62 33 13 6 5)
1969/12/31/18:00:28.837,(-4 7 17 63 48 19 8 0)
1969/12/31/18:00:28.837,(-2 0 9 18 30 10 2 -1)
1969/12/31/18:00:28.859,(-1 -2 -9 -9 -6 -7 -4 -3)
1969/12/31/18:00:28.859,(-12 -18 -15 -59 -48 -20 -8 -8)
1969/12/31/18:00:28.860,(4 7 10 -16 -44 -12 -2 3)
1969/12/31/18:00:28.860,(6 7 -1 13 36 14 8 5)
1969/12/31/18:00:28.874,(0 -8 -30 -7 20 2 -3 0)
1969/12/31/18:00:28.874,(-9 -13 -14 -43 -26 2 -4 -7)
1969/12/31/18:00:28.875,(-2 2 3 34 19 -5 -5 -3)
1969/12/31/18:00:28.875,(1 3 12 -4 -22 -10 -3 0)
1969/12/31/18:00:28.897,(-2 7 30 18 6 13 6 -1)
1969/12/31/18:00:28.897,(9 10 7 5 4 -6 2 6)
1969/12/31/18:00:28.897,(11 3 -25 -9 -1 3 2 7)
1969/12/31/18:00:28.897,(-14 -12 -14 -18 1 2 -6 -10)
1969/12/31/18:00:28.920,(-3 -4 -3 8 21 8 2 0)
1969/12/31/18:00:28.920,(-7 -4 13 1 -6 0 -2 -7)
1969/12/31/18:00:28.927,(6 14 22 16 0 -2 2 4)
1969/12/31/18:00:28.927,(9 3 -4 -16 -17 -6 4 4)
1969/12/31/18:00:28.934,(-3 -13 -42 -12 -24 -15 -8 -2)
1969/12/31/18:00:28.934,(-10 -17 -11 1 1 -6 -7 -8)
1969/12/31/18:00:28.935,(-6 2 22 5 20 2 -1 -4)
1969/12/31/18:00:28.935,(4 7 0 -35 -21 3 2 0)
1969/12/31/18:00:28.957,(6 7 6 18 -7 0 5 7)
1969/12/31/18:00:28.957,(-1 2 4 16 20 2 -3 -1)
1969/12/31/18:00:28.957,(-2 -6 3 0 5 10 3 0)
1969/12/31/18:00:28.957,(-2 0 -5 18 20 -3 -3 -2)
1969/12/31/18:00:28.979,(1 -3 3 -16 -19 -8 -5 -1)
1969/12/31/18:00:28.979,(0 1 -14 -26 -9 -4 -1 0)
1969/12/31/18:00:28.980,(6 5 7 -17 -13 0 3 3)
1969/12/31/18:00:28.980,(-1 -3 1 17 -5 5 1 -3)
1969/12/31/18:00:28.994,(-4 -5 3 21 18 7 1 -3)
1969/12/31/18:00:28.994,(0 1 5 12 12 2 -1 -1)
1969/12/31/18:00:28.995,(-1 -3 -8 -30 -10 -6 -2 -3)
1969/12/31/18:00:28.995,(0 -2 -6 2 -17 -6 -3 -2)
1969/12/31/18:00:29.017,(7 7 -1 9 11 2 3 7)
1969/12/31/18:00:29.017,(-6 -4 8 7 11 10 3 -2)
1969/12/31/18:00:29.017,(-4 -5 -12 -6 -1 -3 -2 0)
1969/12/31/18:00:29.017,(-6 -8 -11 -19 -11 -10 -5 -3)
1969/12/31/18:00:29.039,(1 9 36 8 -4 -1 0 -1)
1969/12/31/18:00:29.039,(9 11 5 12 3 3 3 4)
1969/12/31/18:00:29.040,(7 -2 -31 1 10 1 4 6)
1969/12/31/18:00:29.040,(0 -13 -15 -1 5 0 -1 1)
1969/12/31/18:00:29.054,(-7 3 20 -27 -22 -10 -6 -5)
1969/12/31/18:00:29.054,(2 6 -6 22 16 3 0 3)
1969/12/31/18:00:29.055,(2 -2 -6 8 0 2 5 3)
1969/12/31/18:00:29.055,(-6 1 12 -19 0 4 0 -5)
1969/12/31/18:00:29.077,(3 3 0 15 1 -2 1 1)
1969/12/31/18:00:29.077,(-5 -3 8 -2 -7 -5 -5 -7)
1969/12/31/18:00:29.077,(4 6 7 8 6 3 1 3)
1969/12/31/18:00:29.077,(1 -5 -9 7 4 3 2 4)
1969/12/31/18:00:29.107,(-6 0 -4 -19 -6 1 -1 -2)
1969/12/31/18:00:29.107,(-3 -5 -11 -9 -5 -6 -4 -5)
1969/12/31/18:00:29.108,(-2 -4 2 -10 -31 -16 -6 -2)
1969/12/31/18:00:29.108,(0 4 7 1 19 14 5 1)
1969/12/31/18:00:29.114,(8 2 -6 22 26 22 10 7)
1969/12/31/18:00:29.114,(0 -8 -2 15 11 4 -1 0)
1969/12/31/18:00:29.115,(-7 -5 4 -6 -1 -9 -5 -6)
1969/12/31/18:00:29.115,(-13 1 12 -12 -37 -24 -14 -11)
1969/12/31/18:00:29.137,(3 3 -2 4 9 3 2 4)
1969/12/31/18:00:29.137,(2 4 -7 -34 -21 2 4 1)
1969/12/31/18:00:29.137,(2 -2 -2 20 16 2 -3 1)
1969/12/31/18:00:29.137,(-7 -3 3 10 2 -4 -4 -6)
1969/12/31/18:00:29.160,(-2 -3 1 7 9 4 3 0)
1969/12/31/18:00:29.160,(2 4 -6 -33 -13 -4 -1 0)
1969/12/31/18:00:29.161,(2 -1 -8 4 -2 0 0 1)
1969/12/31/18:00:29.161,(-4 -4 -6 18 5 8 3 -2)
1969/12/31/18:00:29.173,(10 1 -9 -15 -17 -16 -3 6)
1969/12/31/18:00:29.173,(-6 -8 -1 2 2 -3 0 2)
1969/12/31/18:00:29.181,(-6 -3 0 -17 -2 8 4 -4)
1969/12/31/18:00:29.181,(9 9 2 2 0 -1 0 4)
1969/12/31/18:00:29.197,(-12 -9 -3 -13 -16 -1 -4 -10)
1969/12/31/18:00:29.197,(7 6 6 44 37 10 6 6)
1969/12/31/18:00:29.197,(8 -1 -26 -26 -8 1 1 5)
1969/12/31/18:00:29.197,(-7 -3 4 -4 3 5 -1 -6)
1969/12/31/18:00:29.220,(10 4 -19 -9 -9 -5 3 6)
1969/12/31/18:00:29.220,(1 2 10 8 -24 -14 -5 0)
1969/12/31/18:00:29.220,(-13 0 28 36 46 12 -6 -11)
1969/12/31/18:00:29.221,(7 7 0 -7 -9 -4 4 3)
1969/12/31/18:00:29.233,(-1 -2 3 -2 1 3 2 0)
1969/12/31/18:00:29.233,(-12 -7 -1 -4 -4 -6 -12 -12)
1969/12/31/18:00:29.249,(11 2 -16 -14 -15 -4 7 9)
1969/12/31/18:00:29.249,(-1 -4 -1 -13 -10 -4 -4 -3)
1969/12/31/18:00:29.258,(-7 1 17 16 14 1 -5 -7)
1969/12/31/18:00:29.258,(3 4 -10 11 11 2 5 1)
1969/12/31/18:00:29.259,(1 -3 -3 -9 -11 -1 1 0)
1969/12/31/18:00:29.259,(-1 1 3 3 10 1 0 -1)
1969/12/31/18:00:29.280,(1 -3 -12 -46 -13 -4 0 -1)
1969/12/31/18:00:29.280,(-3 0 18 57 8 2 0 -2)
1969/12/31/18:00:29.281,(-7 2 11 6 6 -1 -5 -6)
1969/12/31/18:00:29.281,(8 -1 -20 -22 -2 3 5 8)
1969/12/31/18:00:29.293,(-2 3 6 20 4 1 -3 -1)
1969/12/31/18:00:29.293,(4 1 -5 -25 -8 -2 1 2)
1969/12/31/18:00:29.318,(-6 -4 1 0 -14 -9 -6 -5)
1969/12/31/18:00:29.318,(-1 0 -1 -2 12 -1 -2 -1)
1969/12/31/18:00:29.320,(-2 0 -4 -27 -20 -6 -1 -1)
1969/12/31/18:00:29.320,(1 3 4 12 15 9 3 0)
1969/12/31/18:00:29.320,(0 1 4 21 10 5 2 0)
1969/12/31/18:00:29.320,(-1 -1 5 5 -1 -2 -3 -1)
1969/12/31/18:00:29.340,(0 -3 -19 -35 -10 -8 -1 -1)
1969/12/31/18:00:29.340,(-1 0 -3 -23 -12 -3 -1 2)
1969/12/31/18:00:29.340,(-3 2 17 63 23 8 2 -3)
1969/12/31/18:00:29.340,(-2 4 10 15 17 4 -1 -2)
1969/12/31/18:00:29.370,(-2 -1 4 38 11 2 -1 -2)
1969/12/31/18:00:29.370,(5 -4 -22 -46 -20 -5 5 5)
1969/12/31/18:00:29.370,(-1 -4 -15 -51 -36 -11 -4 -3)
1969/12/31/18:00:29.370,(-11 -6 9 11 24 4 -4 -8)
1969/12/31/18:00:29.377,(9 11 17 33 13 6 6 6)
1969/12/31/18:00:29.377,(0 0 4 6 7 7 2 2)
1969/12/31/18:00:29.377,(2 -2 -12 -4 -5 -4 0 3)
1969/12/31/18:00:29.377,(0 -4 -23 -32 -35 -14 -4 0)
1969/12/31/18:00:29.400,(-5 -5 -8 -72 -32 -9 -2 -2)
1969/12/31/18:00:29.400,(-4 1 17 68 33 8 -3 -5)
1969/12/31/18:00:29.400,(2 4 17 46 30 12 7 2)
1969/12/31/18:00:29.400,(2 6 14 32 13 7 7 6)
1969/12/31/18:00:29.413,(-6 -7 -8 5 -1 -5 -10 -7)
1969/12/31/18:00:29.413,(0 -7 -22 -84 -96 -26 -6 -2)
1969/12/31/18:00:29.422,(0 0 -10 -16 47 6 3 1)
1969/12/31/18:00:29.422,(-1 -1 3 14 26 9 3 0)
1969/12/31/18:00:29.437,(10 8 11 40 16 6 0 3)
1969/12/31/18:00:29.437,(-5 -3 -2 -7 0 -3 -3 -5)
1969/12/31/18:00:29.444,(-2 -4 -6 -30 -46 -14 -6 -3)
1969/12/31/18:00:29.444,(0 -1 -3 -10 -11 -3 1 2)
1969/12/31/18:00:29.460,(-4 -1 0 12 8 3 2 -1)
1969/12/31/18:00:29.460,(-1 -1 0 -6 -2 0 -3 0)
1969/12/31/18:00:29.460,(-5 -3 -1 -10 -5 -1 -2 -4)
1969/12/31/18:00:29.460,(4 2 -2 -3 -5 -1 0 2)
1969/12/31/18:00:29.473,(-1 -2 -5 11 -7 -2 0 0)
1969/12/31/18:00:29.473,(-2 -2 -6 -49 7 -1 -3 -7)
1969/12/31/18:00:29.482,(6 5 12 38 -11 4 5 7)
1969/12/31/18:00:29.482,(-11 -10 -10 -5 -24 -11 -13 -14)
1969/12/31/18:00:29.497,(1 3 7 20 52 9 6 3)
1969/12/31/18:00:29.497,(3 5 26 78 38 15 8 2)
1969/12/31/18:00:29.498,(-5 -3 -7 -24 -3 -2 -5 -8)
1969/12/31/18:00:29.498,(3 1 -9 -27 -27 -5 2 6)
1969/12/31/18:00:29.520,(2 1 -5 -18 -25 -7 -5 -1)
1969/12/31/18:00:29.520,(-4 -4 -12 -14 -2 -5 -3 -3)
1969/12/31/18:00:29.521,(2 2 0 -16 -9 -2 2 1)
1969/12/31/18:00:29.521,(2 0 0 8 -5 -3 -3 -3)
1969/12/31/18:00:29.542,(-6 -8 -7 -12 -3 -1 0 -2)
1969/12/31/18:00:29.542,(11 11 3 6 11 3 4 8)
1969/12/31/18:00:29.543,(-4 -3 -1 1 -6 -1 -3 -5)
1969/12/31/18:00:29.543,(-1 -3 -4 -1 7 -1 -1 -1)
1969/12/31/18:00:29.556,(-2 -1 2 6 0 3 1 -2)
1969/12/31/18:00:29.557,(-5 -3 1 0 -5 -2 -3 -3)
1969/12/31/18:00:29.557,(0 0 -3 -2 0 -3 -1 3)
1969/12/31/18:00:29.557,(2 1 2 0 12 4 1 1)
1969/12/31/18:00:29.580,(-2 0 3 2 -9 1 3 1)
1969/12/31/18:00:29.580,(-1 -3 0 11 4 -1 0 0)
1969/12/31/18:00:29.581,(1 0 -3 -8 1 1 -3 -1)
1969/12/31/18:00:29.581,(1 1 3 8 4 3 1 3)
1969/12/31/18:00:29.602,(-1 -2 0 0 -6 -1 -4 -2)
1969/12/31/18:00:29.602,(0 0 -6 -8 -4 0 2 1)
1969/12/31/18:00:29.609,(-1 -1 -2 -6 2 -4 -1 -2)
1969/12/31/18:00:29.609,(2 0 2 1 1 2 1 -1)
1969/12/31/18:00:29.616,(-1 1 1 4 -2 -1 0 -1)
1969/12/31/18:00:29.616,(3 -2 -3 0 6 3 2 2)
1969/12/31/18:00:29.617,(0 0 -1 -5 -6 -1 -3 -1)
1969/12/31/18:00:29.617,(1 -1 -4 -11 -8 -3 -1 0)
1969/12/31/18:00:29.640,(0 0 1 7 2 1 2 1)
1969/12/31/18:00:29.640,(-3 0 3 10 7 0 -1 -1)
1969/12/31/18:00:29.641,(-2 1 3 10 -3 0 -2 -2)
1969/12/31/18:00:29.641,(0 1 0 -1 6 -1 -3 -3)
1969/12/31/18:00:29.662,(1 -1 -3 -17 -3 -2 1 -1)
1969/12/31/18:00:29.662,(0 -2 -2 4 -6 -2 2 1)
1969/12/31/18:00:29.663,(0 0 -1 -1 -7 0 1 0)
1969/12/31/18:00:29.663,(-1 0 0 3 13 -2 -3 -1)
1969/12/31/18:00:29.677,(-5 -3 -2 -1 -5 0 -1 -2)
1969/12/31/18:00:29.677,(-1 -1 -4 -5 -2 0 -3 -2)
1969/12/31/18:00:29.678,(-2 1 -1 -5 -2 -2 0 -1)
1969/12/31/18:00:29.678,(1 -2 1 7 -4 0 3 3)
1969/12/31/18:00:29.700,(-3 -1 2 1 3 0 -2 -2)
1969/12/31/18:00:29.700,(1 -1 -5 -8 -3 -2 0 1)
1969/12/31/18:00:29.700,(0 -2 1 0 2 0 -2 -2)
1969/12/31/18:00:29.700,(-1 1 3 1 -1 0 1 0)
1969/12/31/18:00:29.722,(1 0 0 4 -1 2 1 -1)
1969/12/31/18:00:29.722,(-2 -2 -1 -4 -3 -2 -2 0)
1969/12/31/18:00:29.723,(1 -2 -1 -2 1 0 0 0)
1969/12/31/18:00:29.723,(2 1 1 7 3 1 1 0)
1969/12/31/18:00:29.736,(-1 0 -1 -3 -4 -2 -1 0)
1969/12/31/18:00:29.736,(-2 0 1 -2 1 -1 -4 -2)
1969/12/31/18:00:29.751,(-2 -3 -3 -6 -5 -3 -1 -1)
1969/12/31/18:00:29.751,(1 1 0 2 1 0 1 3)
1969/12/31/18:00:29.760,(-1 -1 -1 4 -1 1 0 0)
1969/12/31/18:00:29.760,(-1 -3 0 -4 1 -1 -1 0)
1969/12/31/18:00:29.761,(-2 -1 -1 -2 -2 -1 -2 -2)
1969/12/31/18:00:29.761,(0 0 -2 -1 6 1 -1 0)
1969/12/31/18:00:29.782,(0 1 3 3 2 -2 -4 -3)
1969/12/31/18:00:29.782,(0 -1 -2 1 3 1 -2 -2)
1969/12/31/18:00:29.784,(2 1 -2 -1 -3 -1 3 3)
1969/12/31/18:00:29.784,(-2 -2 -2 -7 -12 -4 -1 -2)
1969/12/31/18:00:29.796,(0 0 0 -8 -10 -2 -1 -1)
1969/12/31/18:00:29.796,(1 4 3 16 16 2 4 2)
1969/12/31/18:00:29.812,(0 0 2 5 9 2 0 0)
1969/12/31/18:00:29.812,(-1 -1 -1 1 -1 2 2 -2)
1969/12/31/18:00:29.820,(1 1 -1 -2 3 0 -2 0)
1969/12/31/18:00:29.820,(-5 -7 -4 -11 -16 -8 -6 -4)
1969/12/31/18:00:29.821,(-1 -1 -3 -4 1 0 1 0)
1969/12/31/18:00:29.821,(0 3 1 3 2 -1 -1 1)
1969/12/31/18:00:29.842,(-1 -2 1 1 -1 2 0 -1)
1969/12/31/18:00:29.842,(-1 1 -1 -1 -7 -1 -1 1)
1969/12/31/18:00:29.844,(0 -1 -3 1 11 -2 -3 -1)
1969/12/31/18:00:29.844,(0 -1 -1 0 -9 0 0 0)
1969/12/31/18:00:29.857,(1 0 1 4 2 0 -2 -1)
1969/12/31/18:00:29.857,(1 -1 -1 -2 0 4 2 1)
1969/12/31/18:00:29.865,(-1 1 0 -4 -4 0 0 1)
1969/12/31/18:00:29.865,(-1 -3 -2 -2 -2 -1 -2 -3)
1969/12/31/18:00:29.880,(0 -2 0 5 5 2 -1 0)
1969/12/31/18:00:29.880,(-2 -2 -1 -4 -2 -3 -4 -2)
1969/12/31/18:00:29.882,(-1 -1 0 -3 -7 -1 -1 0)
1969/12/31/18:00:29.882,(0 -1 -1 3 10 2 0 0)
1969/12/31/18:00:29.902,(-1 0 -1 1 1 -2 -1 1)
1969/12/31/18:00:29.902,(-2 -2 -2 -5 -2 1 -1 0)
1969/12/31/18:00:29.904,(-1 0 0 1 -5 -1 0 -1)
1969/12/31/18:00:29.904,(-1 -2 2 1 1 1 1 -1)
1969/12/31/18:00:29.925,(-1 -1 -1 -1 4 -1 -1 -3)
1969/12/31/18:00:29.925,(0 -1 1 0 -1 2 -1 -1)
1969/12/31/18:00:29.926,(-1 -2 0 -1 1 -2 -4 -1)
1969/12/31/18:00:29.926,(-2 -3 -3 -3 -4 -1 2 1)
1969/12/31/18:00:29.941,(3 2 4 1 -4 -3 -1 2)
1969/12/31/18:00:29.941,(0 -1 -1 -3 0 -1 -2 -1)
1969/12/31/18:00:29.942,(1 -2 -1 1 3 1 -1 0)
1969/12/31/18:00:29.942,(-1 -1 0 -2 -1 -2 -2 -3)
1969/12/31/18:00:29.963,(-1 -1 -4 -3 -7 -1 1 0)
1969/12/31/18:00:29.963,(1 0 -1 -1 6 0 0 0)
1969/12/31/18:00:29.964,(2 1 1 5 6 4 1 1)
1969/12/31/18:00:29.964,(-2 -1 0 0 -6 -3 -3 1)
1969/12/31/18:00:29.976,(-2 -2 -2 -1 1 -1 -1 -1)
1969/12/31/18:00:29.977,(0 0 0 -1 -3 0 1 0)
1969/12/31/18:00:29.983,(0 -2 -3 -2 -3 -3 0 -3)
1969/12/31/18:00:29.983,(2 2 1 0 1 1 2 2)
1969/12/31/18:00:30.000,(-1 0 -2 3 0 1 1 0)
1969/12/31/18:00:30.000,(0 1 1 1 0 -1 -3 -2)
1969/12/31/18:00:30.001,(-1 0 -2 -2 -2 -1 -1 -1)
1969/12/31/18:00:30.001,(0 0 -1 -1 -3 -3 0 -2)
1969/12/31/18:00:30.023,(-1 1 0 -3 -1 -2 -1 1)
1969/12/31/18:00:30.023,(-1 -1 -1 -1 -6 -1 0 -2)
1969/12/31/18:00:30.024,(-2 0 2 1 8 1 -1 -1)
1969/12/31/18:00:30.024,(-1 -1 1 2 5 3 0 0)
1969/12/31/18:00:30.036,(-1 -1 -1 -2 -3 -2 -2 -3)
1969/12/31/18:00:30.036,(-1 -1 -3 2 1 2 3 1)
1969/12/31/18:00:30.051,(1 2 0 -2 -5 -5 0 1)
1969/12/31/18:00:30.051,(1 1 -3 -2 -3 0 4 2)
1969/12/31/18:00:30.060,(2 0 0 3 6 1 -1 -1)
1969/12/31/18:00:30.060,(-1 -1 0 -2 -4 -1 1 0)
1969/12/31/18:00:30.061,(0 -3 -2 -2 -1 2 0 -1)
1969/12/31/18:00:30.061,(-1 -1 0 0 -1 0 -1 -2)
1969/12/31/18:00:30.082,(-1 0 0 -2 2 1 0 -1)
1969/12/31/18:00:30.082,(-1 -1 -2 0 0 -1 -1 -1)
1969/12/31/18:00:30.084,(-1 -1 -1 0 -1 0 2 0)
1969/12/31/18:00:30.084,(3 1 1 -1 -3 -1 -1 2)
1969/12/31/18:00:30.096,(-1 -2 -1 0 -4 0 -2 -1)
1969/12/31/18:00:30.096,(0 -1 0 0 1 -1 -1 -2)
