time,.data
1969/12/31/18:00:16.461,(-2 -1 -2 -2 -5 -1 -1 0)
1969/12/31/18:00:16.461,(2 -1 -2 -2 -1 1 1 0)
1969/12/31/18:00:16.462,(-3 0 -1 2 1 -1 -1 -2)
1969/12/31/18:00:16.462,(0 -1 -2 -1 -2 -1 0 0)
1969/12/31/18:00:16.484,(0 0 -2 -2 0 -1 0 -2)
1969/12/31/18:00:16.484,(-2 -2 -1 -2 -1 -1 -1 -2)
1969/12/31/18:00:16.485,(0 -2 -1 1 -1 0 0 1)
1969/12/31/18:00:16.485,(0 -3 -3 -1 -1 -1 -2 -1)
1969/12/31/18:00:16.499,(-3 -2 -3 -3 -2 -2 -1 0)
1969/12/31/18:00:16.499,(-2 0 2 -1 0 0 -2 -1)
1969/12/31/18:00:16.499,(0 0 1 -2 -2 1 1 0)
1969/12/31/18:00:16.499,(-1 -2 -1 -2 -1 -2 -2 -5)
1969/12/31/18:00:16.521,(-1 0 -1 -2 -1 1 0 -1)
1969/12/31/18:00:16.521,(-2 -4 -5 -2 -3 -2 0 -4)
1969/12/31/18:00:16.522,(-1 1 0 0 -1 0 -2 -2)
1969/12/31/18:00:16.522,(0 -1 -2 -1 -2 -1 0 0)
1969/12/31/18:00:16.544,(-4 -5 -5 -4 0 -2 -3 -5)
1969/12/31/18:00:16.544,(2 2 3 4 1 -2 0 1)
1969/12/31/18:00:16.545,(-1 -1 -5 -2 -2 -1 0 0)
1969/12/31/18:00:16.545,(-1 2 2 0 -1 -2 0 -1)
1969/12/31/18:00:16.559,(2 3 4 3 1 0 -1 1)
1969/12/31/18:00:16.559,(-3 -1 -2 -4 -1 -1 1 1)
1969/12/31/18:00:16.560,(0 -3 -2 -2 -2 -3 0 -1)
1969/12/31/18:00:16.560,(-3 -2 -5 -7 -15 -4 -3 -3)
1969/12/31/18:00:16.581,(-2 -2 -5 -2 16 -1 -2 -2)
1969/12/31/18:00:16.581,(1 0 5 8 8 4 -1 0)
1969/12/31/18:00:16.582,(0 2 0 0 -3 -2 -1 -2)
1969/12/31/18:00:16.582,(-1 -1 2 -4 -2 -1 1 -1)
1969/12/31/18:00:16.604,(1 1 2 5 -9 1 2 2)
1969/12/31/18:00:16.604,(-1 -1 -2 -2 9 4 1 -1)
1969/12/31/18:00:16.605,(0 0 1 9 13 4 3 0)
1969/12/31/18:00:16.605,(-5 -10 -19 -37 -30 -5 0 -3)
1969/12/31/18:00:16.618,(4 6 8 21 25 -4 -1 3)
1969/12/31/18:00:16.618,(6 8 9 19 11 14 -8 2)
1969/12/31/18:00:16.626,(1 4 16 16 -4 8 12 4)
1969/12/31/18:00:16.626,(-2 -4 -4 7 5 -2 -12 -2)
1969/12/31/18:00:16.641,(-6 -8 -28 -49 -19 -9 -2 -4)
1969/12/31/18:00:16.641,(-3 -7 1 -17 -34 -25 -5 0)
1969/12/31/18:00:16.642,(0 3 11 37 53 -2 -28 -7)
1969/12/31/18:00:16.642,(5 9 12 27 16 19 14 5)
1969/12/31/18:00:16.664,(-2 -5 6 0 -21 -4 4 8)
1969/12/31/18:00:16.664,(-7 -11 -33 -55 -29 -7 4 -8)
1969/12/31/18:00:16.665,(-1 -1 7 -19 -11 5 46 11)
1969/12/31/18:00:16.665,(1 4 14 27 9 -28 -58 -8)
1969/12/31/18:00:16.678,(2 2 1 10 17 17 9 1)
1969/12/31/18:00:16.678,(-2 2 10 37 6 -6 -5 -4)
1969/12/31/18:00:16.686,(0 -3 -8 -14 -12 8 9 4)
1969/12/31/18:00:16.686,(-7 -10 -19 -32 -10 -4 -1 -9)
1969/12/31/18:00:16.701,(-9 -15 -18 -31 -20 -9 -12 -9)
1969/12/31/18:00:16.701,(1 6 -4 -4 9 -3 0 0)
1969/12/31/18:00:16.702,(0 5 35 31 2 6 -3 -2)
1969/12/31/18:00:16.702,(4 8 5 12 11 6 15 4)
1969/12/31/18:00:16.724,(1 4 16 8 -7 -3 0 5)
1969/12/31/18:00:16.724,(-6 -8 10 -14 -3 -1 -1 -2)
1969/12/31/18:00:16.725,(-7 -16 -58 -47 -23 -11 -14 -8)
1969/12/31/18:00:16.725,(8 13 8 38 21 10 12 9)
1969/12/31/18:00:16.740,(0 3 28 3 2 6 -1 -5)
1969/12/31/18:00:16.740,(2 4 6 32 7 1 3 1)
1969/12/31/18:00:16.746,(-4 -12 -8 -33 -17 -12 -13 -4)
1969/12/31/18:00:16.746,(-7 -16 -51 -41 -15 -4 2 -7)
1969/12/31/18:00:16.761,(8 12 35 61 19 9 3 5)
1969/12/31/18:00:16.761,(-1 0 -3 -15 -2 1 -2 0)
1969/12/31/18:00:16.762,(-1 1 -3 6 -1 -4 -9 -1)
1969/12/31/18:00:16.762,(-1 -8 -8 -19 -5 -2 7 0)
1969/12/31/18:00:16.784,(-8 -12 -36 -49 -13 -6 -7 -8)
1969/12/31/18:00:16.784,(5 12 55 68 21 11 5 7)
1969/12/31/18:00:16.785,(-3 -10 -16 -31 -15 -7 -4 -2)
1969/12/31/18:00:16.785,(2 3 -4 17 9 5 4 2)
1969/12/31/18:00:16.800,(6 5 16 10 0 -2 -1 5)
1969/12/31/18:00:16.800,(-3 -13 -35 -50 -13 -1 2 3)
1969/12/31/18:00:16.806,(-4 7 7 24 3 -6 -17 -20)
1969/12/31/18:00:16.806,(-7 -4 13 -3 -2 -3 -6 -9)
1969/12/31/18:00:16.821,(-3 -9 -23 -5 -5 -2 0 -2)
1969/12/31/18:00:16.821,(0 -1 -7 -10 -2 -2 -2 -1)
1969/12/31/18:00:16.822,(3 5 3 4 1 -1 3 8)
1969/12/31/18:00:16.822,(2 -1 11 -4 -5 -2 3 5)
1969/12/31/18:00:16.844,(-4 -6 -10 -3 1 0 -3 -7)
1969/12/31/18:00:16.844,(1 4 -5 0 0 -2 -1 -1)
1969/12/31/18:00:16.845,(0 9 3 -1 -1 -2 -2 1)
1969/12/31/18:00:16.845,(-1 3 6 4 2 2 1 0)
1969/12/31/18:00:16.867,(1 6 -6 -2 -2 -2 0 0)
1969/12/31/18:00:16.867,(-1 -4 -7 -6 -1 0 -2 -1)
1969/12/31/18:00:16.868,(1 -3 -4 1 0 1 1 2)
1969/12/31/18:00:16.868,(-7 -9 2 -3 -1 1 -1 -2)
1969/12/31/18:00:16.881,(-2 -2 -1 2 0 -1 -1 -1)
1969/12/31/18:00:16.881,(-1 -2 -5 -2 -2 -1 -2 -1)
1969/12/31/18:00:16.882,(-1 -5 1 2 2 1 -1 -2)
1969/12/31/18:00:16.882,(2 4 7 4 0 1 1 3)
1969/12/31/18:00:16.905,(-6 -8 -8 -6 -7 -4 -4 -3)
1969/12/31/18:00:16.905,(-3 -12 -11 -1 0 -2 -3 -1)
1969/12/31/18:00:16.905,(1 6 10 3 1 -1 0 1)
1969/12/31/18:00:16.905,(6 4 5 -2 -3 0 0 3)
1969/12/31/18:00:16.927,(-15 -14 -13 -3 0 -1 -1 -16)
1969/12/31/18:00:16.927,(14 27 16 4 2 -1 -3 -3)
1969/12/31/18:00:16.928,(-3 -10 -5 -3 -1 0 7 17)
1969/12/31/18:00:16.928,(22 17 9 2 0 -1 2 17)
1969/12/31/18:00:16.941,(-3 -8 -1 0 1 -1 -5 -8)
1969/12/31/18:00:16.941,(-19 -10 -9 -4 -2 -2 -4 -17)
1969/12/31/18:00:16.942,(-7 1 5 0 1 3 0 -9)
1969/12/31/18:00:16.942,(40 21 11 3 1 5 16 32)
1969/12/31/18:00:16.964,(-20 1 2 2 1 -1 -5 -10)
1969/12/31/18:00:16.964,(-27 -16 -11 -6 -4 -5 -8 -19)
1969/12/31/18:00:16.965,(25 2 -3 2 2 2 -2 -7)
1969/12/31/18:00:16.965,(19 -14 -10 -7 -6 -5 5 20)
1969/12/31/18:00:16.987,(-10 -8 -1 3 -1 2 8 3)
1969/12/31/18:00:16.987,(-9 1 3 1 -2 -1 -3 -12)
1969/12/31/18:00:16.988,(-28 0 -3 -1 0 -2 -5 -17)
1969/12/31/18:00:16.988,(27 16 5 1 3 1 3 8)
1969/12/31/18:00:17.001,(-3 -10 -3 -5 -3 -4 -7 -9)
1969/12/31/18:00:17.001,(-18 -8 0 2 1 -1 -4 -7)
1969/12/31/18:00:17.002,(31 8 -1 -2 -2 1 5 7)
1969/12/31/18:00:17.002,(-38 -16 -3 -1 0 -3 -20 -57)
1969/12/31/18:00:17.025,(-1 -2 -3 -3 -4 2 -8 -8)
1969/12/31/18:00:17.025,(17 1 -1 -2 0 3 17 36)
1969/12/31/18:00:17.025,(2 -1 -10 -9 -7 -11 -20 7)
1969/12/31/18:00:17.025,(-55 -15 -3 -1 0 0 -10 -26)
1969/12/31/18:00:17.047,(15 2 1 0 -1 -5 20 8)
1969/12/31/18:00:17.047,(28 15 9 5 5 7 -5 25)
1969/12/31/18:00:17.048,(-27 -10 -12 -8 -2 32 8 -10)
1969/12/31/18:00:17.048,(-38 -18 -4 -2 -9 -46 -16 -4)
1969/12/31/18:00:17.061,(4 -8 -8 -7 -9 -19 -3 3)
1969/12/31/18:00:17.061,(-25 -14 -3 -2 1 27 45 9)
1969/12/31/18:00:17.062,(61 35 9 8 7 18 1 23)
1969/12/31/18:00:17.062,(-50 -21 -8 -1 3 10 -16 -43)
1969/12/31/18:00:17.085,(26 22 10 6 4 8 20 10)
1969/12/31/18:00:17.085,(-27 5 6 6 1 -29 -7 -48)
1969/12/31/18:00:17.085,(-8 -9 -6 -5 -1 3 -38 -45)
1969/12/31/18:00:17.085,(-10 5 -2 -2 -3 1 18 3)
1969/12/31/18:00:17.107,(-20 -20 -7 -3 -1 -5 -16 -17)
1969/12/31/18:00:17.107,(25 12 5 3 3 10 -3 17)
1969/12/31/18:00:17.108,(-34 -14 -4 -3 -5 -19 7 8)
1969/12/31/18:00:17.108,(-7 -6 -2 0 2 3 -11 -26)
1969/12/31/18:00:17.121,(-18 18 8 6 7 10 -11 -18)
1969/12/31/18:00:17.121,(53 -5 -12 -10 -7 -7 2 32)
1969/12/31/18:00:17.122,(-1 -19 -8 -6 -9 -5 14 6)
1969/12/31/18:00:17.122,(49 14 2 -1 4 2 -8 54)
1969/12/31/18:00:17.145,(-17 9 15 12 8 19 3 -20)
1969/12/31/18:00:17.145,(-99 -22 -10 -4 -6 -31 -25 -98)
1969/12/31/18:00:17.145,(55 13 0 -2 -5 -24 -19 0)
1969/12/31/18:00:17.145,(25 1 -1 -3 0 51 45 38)
1969/12/31/18:00:17.167,(17 5 -4 -1 4 8 -2 -3)
1969/12/31/18:00:17.167,(-27 -21 -8 -6 -11 -13 -12 -23)
1969/12/31/18:00:17.168,(-45 2 12 10 11 16 -1 -11)
1969/12/31/18:00:17.168,(-29 2 -13 -12 -17 -38 -1 -34)
1969/12/31/18:00:17.181,(-48 -46 -18 -9 -1 -12 -24 9)
1969/12/31/18:00:17.181,(26 10 -4 -7 -6 -1 -10 -10)
1969/12/31/18:00:17.182,(-50 -28 0 3 3 0 4 -30)
1969/12/31/18:00:17.182,(83 53 13 3 -1 -5 -8 23)
1969/12/31/18:00:17.205,(-40 -31 -12 -1 -2 -4 -6 -13)
1969/12/31/18:00:17.205,(34 8 -1 0 2 -1 2 21)
1969/12/31/18:00:17.205,(-23 -4 -6 -8 -8 -15 0 42)
1969/12/31/18:00:17.205,(-18 -41 -13 -1 6 19 19 0)
1969/12/31/18:00:17.227,(20 32 10 0 -1 -3 -41 16)
1969/12/31/18:00:17.227,(73 -3 1 2 -3 -2 20 66)
1969/12/31/18:00:17.228,(-10 3 2 4 3 -13 -41 -42)
1969/12/31/18:00:17.228,(-17 4 11 11 8 -9 -20 -60)
1969/12/31/18:00:17.241,(5 -9 -11 -11 -13 -5 33 17)
1969/12/31/18:00:17.241,(-3 5 -4 -3 5 27 34 43)
1969/12/31/18:00:17.242,(47 24 9 3 -3 -7 -24 30)
1969/12/31/18:00:17.242,(21 -7 -9 -9 -8 0 -1 -3)
1969/12/31/18:00:17.265,(-4 -11 3 4 3 4 -11 -3)
1969/12/31/18:00:17.265,(-31 -2 3 2 3 -15 -20 -21)
1969/12/31/18:00:17.265,(19 4 2 2 -2 -6 28 22)
1969/12/31/18:00:17.265,(-25 -14 -4 -4 -6 -15 -19 -17)
1969/12/31/18:00:17.287,(39 53 14 6 4 6 17 18)
1969/12/31/18:00:17.287,(11 11 6 3 5 18 6 11)
1969/12/31/18:00:17.288,(-89 -53 -18 -7 -6 -11 -4 -43)
1969/12/31/18:00:17.288,(-17 13 2 -1 0 3 11 -23)
1969/12/31/18:00:17.301,(71 18 -4 -9 -7 -7 -8 80)
1969/12/31/18:00:17.301,(-30 -18 -9 -6 -6 -2 -22 -56)
1969/12/31/18:00:17.302,(25 12 -1 -2 -2 9 81 57)
1969/12/31/18:00:17.302,(11 8 12 12 15 3 -6 42)
1969/12/31/18:00:17.325,(40 -1 0 -3 -5 -16 -8 2)
1969/12/31/18:00:17.325,(-2 0 -1 -2 -5 8 3 2)
1969/12/31/18:00:17.325,(-10 -5 1 4 2 -13 -15 0)
1969/12/31/18:00:17.325,(91 31 5 3 9 41 40 114)
1969/12/31/18:00:17.347,(-40 -38 -7 1 2 7 26 -10)
1969/12/31/18:00:17.347,(-8 8 5 6 5 -19 -41 -32)
1969/12/31/18:00:17.348,(57 13 9 4 4 -1 2 11)
1969/12/31/18:00:17.348,(-22 -11 -1 -1 -2 10 38 14)
1969/12/31/18:00:17.361,(-31 8 0 -1 -2 -7 -27 -40)
1969/12/31/18:00:17.361,(-21 -26 -12 -5 -5 -6 -30 -5)
1969/12/31/18:00:17.362,(40 27 4 -2 -1 5 36 9)
1969/12/31/18:00:17.362,(-52 -29 -9 -5 -2 2 -48 -48)
1969/12/31/18:00:17.385,(20 4 0 -2 -3 2 35 -7)
1969/12/31/18:00:17.385,(-11 4 3 2 1 5 18 19)
1969/12/31/18:00:17.385,(-25 1 -3 -2 -5 -9 -12 -4)
1969/12/31/18:00:17.385,(-43 0 7 1 0 -21 -45 -69)
1969/12/31/18:00:17.407,(4 -21 -15 -9 -5 -9 -25 -61)
1969/12/31/18:00:17.407,(22 20 4 -1 1 -13 7 37)
1969/12/31/18:00:17.408,(-18 0 -1 -3 -7 -7 -24 -3)
1969/12/31/18:00:17.408,(16 -5 -3 0 10 24 20 9)
1969/12/31/18:00:17.421,(12 12 6 10 29 29 -30 15)
1969/12/31/18:00:17.421,(22 21 6 -4 -28 -37 19 -28)
1969/12/31/18:00:17.422,(-10 -27 -10 -4 -4 27 6 -19)
1969/12/31/18:00:17.422,(-27 -15 -12 -5 1 -28 -53 -49)
1969/12/31/18:00:17.445,(-31 -7 -3 -5 -15 -7 6 22)
1969/12/31/18:00:17.445,(65 22 5 7 26 32 1 82)
1969/12/31/18:00:17.445,(14 2 10 10 4 15 22 9)
1969/12/31/18:00:17.445,(-15 -7 -4 6 -10 -60 -21 -39)
1969/12/31/18:00:17.467,(21 8 0 -5 3 46 58 23)
1969/12/31/18:00:17.467,(-6 -6 -6 -11 -16 -11 3 1)
1969/12/31/18:00:17.469,(-7 5 -3 -12 -9 17 -12 -11)
1969/12/31/18:00:17.469,(23 2 4 -1 23 13 30 39)
1969/12/31/18:00:17.481,(-1 13 7 14 -4 -31 -26 -16)
1969/12/31/18:00:17.481,(-25 12 8 17 28 57 9 -41)
1969/12/31/18:00:17.490,(-3 -15 -6 -8 -33 -43 -12 -28)
1969/12/31/18:00:17.490,(6 -10 -11 -15 -10 -3 -14 6)
1969/12/31/18:00:17.512,(-31 8 3 -1 -14 -35 0 -28)
1969/12/31/18:00:17.512,(-39 -17 -4 1 18 25 -5 -1)
1969/12/31/18:00:17.514,(-31 6 4 6 9 2 -11 -41)
1969/12/31/18:00:17.514,(5 -2 -6 0 -7 -4 7 8)
1969/12/31/18:00:17.527,(-6 26 6 -3 16 16 2 5)
1969/12/31/18:00:17.527,(-18 -45 -6 -1 -22 -23 4 -8)
1969/12/31/18:00:17.529,(2 -6 -9 -6 8 3 -7 1)
1969/12/31/18:00:17.529,(-62 4 10 21 15 -1 27 24)
1969/12/31/18:00:17.541,(47 1 0 -16 -36 14 30 25)
1969/12/31/18:00:17.541,(15 5 1 14 21 -2 -9 -12)
1969/12/31/18:00:17.550,(19 -19 -33 -28 -40 -34 -7 40)
1969/12/31/18:00:17.550,(21 12 3 -17 -12 24 25 25)
1969/12/31/18:00:17.564,(4 75 75 23 33 -10 -12 -14)
1969/12/31/18:00:17.564,(45 -2 13 1 -40 -29 -23 21)
1969/12/31/18:00:17.566,(-26 -28 -18 4 26 16 3 -7)
1969/12/31/18:00:17.566,(1 -17 -55 -16 -3 -3 -14 -35)
1969/12/31/18:00:17.595,(-33 56 78 33 7 -2 0 -30)
1969/12/31/18:00:17.595,(-44 -97 -102 -43 -34 -11 -3 16)
1969/12/31/18:00:17.596,(3 96 32 7 16 17 0 -7)
1969/12/31/18:00:17.596,(10 14 20 14 -7 12 -6 -42)
1969/12/31/18:00:17.601,(-16 -106 -121 -22 20 -18 -12 19)
1969/12/31/18:00:17.601,(-1 57 -44 -31 -34 -25 -8 -9)
1969/12/31/18:00:17.616,(54 32 47 41 22 7 26 61)
1969/12/31/18:00:17.616,(-15 -5 -45 -27 -11 22 -4 -44)
1969/12/31/18:00:17.624,(50 68 75 41 20 10 24 46)
1969/12/31/18:00:17.624,(14 -97 -43 -12 0 -22 -21 -6)
1969/12/31/18:00:17.631,(-28 -68 -57 -7 2 -43 1 -21)
1969/12/31/18:00:17.631,(13 -25 -15 -11 4 68 -7 -52)
1969/12/31/18:00:17.647,(43 39 34 8 3 17 9 35)
1969/12/31/18:00:17.647,(-15 81 80 32 49 38 34 36)
1969/12/31/18:00:17.649,(-6 6 -5 -34 -42 -49 -55 -74)
1969/12/31/18:00:17.649,(-9 -84 -10 12 -6 -31 5 51)
1969/12/31/18:00:17.661,(-44 -128 -128 -48 -15 -17 -21 -46)
1969/12/31/18:00:17.661,(-31 21 -25 -26 -34 -13 14 -26)
1969/12/31/18:00:17.670,(54 91 110 40 23 -8 11 43)
1969/12/31/18:00:17.670,(-8 107 102 48 33 6 9 -1)
1969/12/31/18:00:17.684,(-66 -107 -116 -63 -31 21 -13 -11)
1969/12/31/18:00:17.684,(65 127 127 69 33 7 -12 -66)
1969/12/31/18:00:17.698,(-6 -128 -75 -4 -3 9 4 31)
1969/12/31/18:00:17.698,(32 58 -7 -17 -29 -52 -11 11)
1969/12/31/18:00:17.707,(15 99 126 84 7 -9 3 27)
1969/12/31/18:00:17.707,(-13 -64 -69 -22 12 25 3 7)
1969/12/31/18:00:17.709,(23 -55 -75 -21 -12 16 5 71)
1969/12/31/18:00:17.709,(-1 -15 14 -5 -2 5 -13 -43)
1969/12/31/18:00:17.731,(2 -128 -116 -39 1 -15 -4 -40)
1969/12/31/18:00:17.731,(-19 -41 -41 -38 -44 -26 -7 -20)
1969/12/31/18:00:17.733,(-20 95 15 -2 24 51 -7 -37)
1969/12/31/18:00:17.733,(-32 -69 -52 -14 -14 -18 6 7)
1969/12/31/18:00:17.752,(60 127 126 70 32 -2 4 26)
1969/12/31/18:00:17.752,(-4 -121 -79 1 1 -4 -1 14)
1969/12/31/18:00:17.754,(-42 83 15 -21 -19 5 6 -21)
1969/12/31/18:00:17.754,(68 -15 -17 10 -23 -13 5 54)
1969/12/31/18:00:17.767,(-58 -54 -12 -36 -14 -5 -10 -18)
1969/12/31/18:00:17.767,(15 -89 -95 -53 -10 -3 7 7)
1969/12/31/18:00:17.769,(28 72 104 75 25 -1 -19 -37)
1969/12/31/18:00:17.769,(-9 -86 -116 -43 5 9 11 5)
1969/12/31/18:00:17.781,(30 115 118 53 31 40 36 53)
1969/12/31/18:00:17.781,(-69 -86 -59 3 -6 6 -9 -25)
1969/12/31/18:00:17.789,(4 -92 -118 -50 16 29 19 54)
1969/12/31/18:00:17.790,(2 71 116 37 18 8 -13 7)
1969/12/31/18:00:17.805,(19 -25 -92 -37 -11 -34 1 -28)
1969/12/31/18:00:17.805,(22 127 126 9 -19 7 8 15)
1969/12/31/18:00:17.811,(0 -114 -114 -56 -3 17 18 27)
1969/12/31/18:00:17.811,(-19 89 97 93 24 -5 5 10)
1969/12/31/18:00:17.827,(-47 -116 -128 -44 -21 -13 -26 -44)
1969/12/31/18:00:17.827,(-4 114 122 64 40 3 6 22)
1969/12/31/18:00:17.828,(-17 54 25 18 3 20 -3 -47)
1969/12/31/18:00:17.828,(2 31 53 13 18 11 -9 -7)
1969/12/31/18:00:17.841,(16 -51 -78 -32 -39 -33 7 35)
1969/12/31/18:00:17.841,(-17 -53 -17 -15 3 16 8 -12)
1969/12/31/18:00:17.850,(-35 -81 -87 -13 0 -29 -30 -14)
1969/12/31/18:00:17.850,(-84 -128 -73 -35 -19 24 16 -34)
1969/12/31/18:00:17.864,(55 122 46 41 42 33 25 59)
1969/12/31/18:00:17.864,(-18 -38 -40 -36 -35 -8 -22 -25)
1969/12/31/18:00:17.871,(6 -21 70 38 23 19 11 4)
1969/12/31/18:00:17.871,(-14 -93 -75 -36 -26 -46 -41 -26)
1969/12/31/18:00:17.887,(19 -17 4 -16 -35 -30 -8 -1)
1969/12/31/18:00:17.887,(16 47 -13 -3 9 19 -2 2)
1969/12/31/18:00:17.889,(54 -15 26 11 3 -32 -6 9)
1969/12/31/18:00:17.889,(-11 -18 -34 -4 -5 -17 10 13)
1969/12/31/18:00:17.910,(-47 -126 -96 -36 19 57 -1 7)
1969/12/31/18:00:17.910,(22 117 46 17 6 -23 -13 -36)
1969/12/31/18:00:17.911,(39 19 51 47 7 12 9 46)
1969/12/31/18:00:17.911,(7 30 -10 -30 -27 -16 0 -35)
1969/12/31/18:00:17.924,(-25 -71 -90 -29 -5 -12 -30 -58)
1969/12/31/18:00:17.924,(83 95 98 96 45 10 13 60)
1969/12/31/18:00:17.931,(-5 -128 -128 -37 -24 -18 -13 -33)
1969/12/31/18:00:17.931,(15 33 -84 -10 7 3 10 15)
1969/12/31/18:00:17.947,(-12 96 77 -3 -32 -14 9 -12)
1969/12/31/18:00:17.947,(-73 -47 -8 -16 23 46 7 -36)
1969/12/31/18:00:17.949,(-1 113 83 1 -9 -2 -3 -30)
1969/12/31/18:00:17.949,(2 -121 -76 -12 1 -20 -14 25)
1969/12/31/18:00:17.970,(-23 -34 1 -4 2 23 6 1)
1969/12/31/18:00:17.970,(74 51 46 21 13 -6 41 96)
1969/12/31/18:00:17.971,(0 0 34 14 -9 -4 0 4)
1969/12/31/18:00:17.971,(65 93 65 6 16 14 -8 -2)
1969/12/31/18:00:17.984,(-58 -102 -45 -8 -6 -8 -1 -7)
1969/12/31/18:00:17.984,(0 -65 -82 -22 -29 -20 -5 13)
1969/12/31/18:00:17.991,(44 79 66 -6 -30 -14 10 -8)
1969/12/31/18:00:17.991,(-44 84 45 13 -10 -9 0 5)
1969/12/31/18:00:18.007,(19 8 36 5 9 7 -9 -19)
1969/12/31/18:00:18.007,(-57 -88 -76 -15 7 -21 -27 -28)
1969/12/31/18:00:18.009,(-23 75 47 26 17 -23 -6 -30)
1969/12/31/18:00:18.009,(-22 -90 -59 -13 -14 25 19 50)
1969/12/31/18:00:18.030,(-26 67 42 16 -8 -18 -13 -38)
1969/12/31/18:00:18.030,(-20 -29 12 -1 36 24 4 5)
1969/12/31/18:00:18.031,(-70 -87 -114 -60 -61 -42 -52 -107)
1969/12/31/18:00:18.031,(23 -7 53 33 41 1 3 11)
1969/12/31/18:00:18.044,(-25 -38 -55 -22 -22 9 9 -29)
1969/12/31/18:00:18.044,(-15 -109 -100 -31 -17 -42 -25 -9)
1969/12/31/18:00:18.051,(33 87 45 54 21 41 21 33)
1969/12/31/18:00:18.051,(23 -50 -62 -19 -24 -18 -13 -2)
1969/12/31/18:00:18.068,(-65 -98 -112 -20 -9 -8 -27 -43)
1969/12/31/18:00:18.068,(5 75 36 9 0 -11 -20 -47)
1969/12/31/18:00:18.069,(47 -35 -32 -10 30 -26 4 42)
1969/12/31/18:00:18.069,(-31 -34 0 -15 -37 24 20 -9)
1969/12/31/18:00:18.089,(48 127 127 44 13 6 24 27)
1969/12/31/18:00:18.089,(-65 -127 -128 -44 -5 -13 -25 -28)
1969/12/31/18:00:18.091,(-41 -20 -67 -33 -3 -1 -9 5)
1969/12/31/18:00:18.091,(15 95 75 31 9 8 -1 -16)
1969/12/31/18:00:18.103,(55 -119 -98 -34 -16 4 -2 35)
1969/12/31/18:00:18.103,(9 79 36 13 3 3 20 15)
1969/12/31/18:00:18.112,(-29 -20 27 11 13 10 -10 -6)
1969/12/31/18:00:18.112,(-14 -38 -68 -35 -26 -42 -24 -26)
1969/12/31/18:00:18.127,(45 61 78 23 7 5 8 73)
1969/12/31/18:00:18.127,(22 55 60 37 31 2 5 -1)
1969/12/31/18:00:18.129,(-70 -110 -98 -58 -37 8 -1 -13)
1969/12/31/18:00:18.129,(86 127 112 58 41 11 16 35)
1969/12/31/18:00:18.150,(-9 -52 12 9 -7 10 -18 8)
1969/12/31/18:00:18.150,(38 -9 -2 -9 -25 -12 19 14)
1969/12/31/18:00:18.151,(18 -74 -31 4 33 13 26 30)
1969/12/31/18:00:18.151,(-27 -31 -35 -41 -41 -1 -13 -19)
1969/12/31/18:00:18.163,(-25 -9 -24 0 18 -25 -20 -50)
1969/12/31/18:00:18.163,(30 -99 -86 -33 -13 16 5 31)
1969/12/31/18:00:18.172,(32 109 109 98 83 67 23 6)
1969/12/31/18:00:18.172,(-48 -128 -109 -23 17 -7 -19 -35)
1969/12/31/18:00:18.187,(6 -41 -44 -7 -14 -13 1 -17)
1969/12/31/18:00:18.187,(35 58 32 5 -11 9 10 35)
1969/12/31/18:00:18.188,(-42 -128 -81 -35 -26 -11 -7 -1)
1969/12/31/18:00:18.188,(39 127 89 26 36 17 7 -2)
1969/12/31/18:00:18.210,(40 99 50 20 1 -12 -5 10)
1969/12/31/18:00:18.210,(-92 -123 -55 -15 -6 -4 -7 -31)
1969/12/31/18:00:18.211,(20 -52 -75 -23 6 6 5 13)
1969/12/31/18:00:18.211,(-68 60 24 -5 5 34 25 11)
1969/12/31/18:00:18.223,(-9 29 41 6 -10 -28 -3 -7)
1969/12/31/18:00:18.223,(64 13 15 14 11 38 23 35)
1969/12/31/18:00:18.232,(-15 -6 20 -10 0 -18 -26 -39)
1969/12/31/18:00:18.232,(-24 -128 -103 -17 26 3 3 1)
1969/12/31/18:00:18.247,(-6 -51 -45 -43 -28 0 -1 5)
1969/12/31/18:00:18.247,(56 27 52 20 -8 -32 -1 -11)
1969/12/31/18:00:18.248,(-13 49 -32 -11 -33 -5 -1 4)
1969/12/31/18:00:18.248,(29 -2 9 45 42 49 22 12)
1969/12/31/18:00:18.270,(-30 -85 -94 -43 -29 -20 -31 -45)
1969/12/31/18:00:18.270,(-11 85 67 41 10 2 8 9)
1969/12/31/18:00:18.271,(23 -19 -39 1 27 -23 9 44)
1969/12/31/18:00:18.271,(7 -86 -80 -59 -77 -7 -14 6)
1969/12/31/18:00:18.283,(54 127 108 48 21 5 35 50)
1969/12/31/18:00:18.283,(-28 -12 -8 -13 -20 -35 -18 -19)
1969/12/31/18:00:18.292,(-39 -4 16 -10 -12 21 -16 -32)
1969/12/31/18:00:18.292,(-20 -13 -49 -31 -34 -22 -6 -7)
1969/12/31/18:00:18.307,(72 -15 11 34 43 8 12 38)
1969/12/31/18:00:18.307,(-19 11 -5 -26 -22 26 -1 -14)
1969/12/31/18:00:18.308,(2 54 55 1 -48 -27 13 -7)
1969/12/31/18:00:18.308,(9 -59 -6 15 19 -23 -10 -3)
1969/12/31/18:00:18.329,(-75 -116 -42 -21 -17 9 -17 -20)
1969/12/31/18:00:18.329,(-26 44 -28 -11 6 4 -14 -37)
1969/12/31/18:00:18.331,(26 -87 -38 15 23 0 0 -15)
1969/12/31/18:00:18.331,(-2 -17 -9 -32 -45 -31 -12 2)
1969/12/31/18:00:18.344,(-28 -27 -69 -15 35 31 4 -12)
1969/12/31/18:00:18.344,(-21 3 26 46 25 -19 -9 -23)
1969/12/31/18:00:18.351,(-23 -117 -78 -53 -52 21 2 -14)
1969/12/31/18:00:18.351,(-47 -54 -80 -34 -17 -47 -17 -13)
1969/12/31/18:00:18.367,(53 96 84 58 28 32 -3 -29)
1969/12/31/18:00:18.367,(-15 -128 -91 -25 -10 -10 -9 3)
1969/12/31/18:00:18.369,(-5 119 60 18 -12 -13 -10 -28)
1969/12/31/18:00:18.369,(29 6 63 40 36 -6 10 24)
1969/12/31/18:00:18.389,(-36 -76 -67 -7 12 -15 0 11)
1969/12/31/18:00:18.389,(18 39 11 -27 -44 23 -8 8)
1969/12/31/18:00:18.391,(9 -30 7 -17 -35 -29 -11 -4)
1969/12/31/18:00:18.391,(11 107 70 15 3 1 8 50)
1969/12/31/18:00:18.403,(-18 -84 -81 -21 -4 -5 -17 -28)
1969/12/31/18:00:18.403,(44 92 91 44 26 -5 -3 0)
1969/12/31/18:00:18.412,(4 -73 -48 -6 22 17 18 22)
1969/12/31/18:00:18.412,(-43 -72 -70 6 8 -1 5 -35)
1969/12/31/18:00:18.428,(36 102 85 13 -26 9 16 21)
1969/12/31/18:00:18.428,(-10 -101 -82 -34 -32 -20 -22 -27)
1969/12/31/18:00:18.429,(49 127 105 38 27 -4 16 21)
1969/12/31/18:00:18.429,(-7 -87 -1 11 44 46 -3 -28)
1969/12/31/18:00:18.450,(60 72 39 8 -7 -5 5 9)
1969/12/31/18:00:18.450,(-19 -73 -73 -27 -16 -14 10 13)
1969/12/31/18:00:18.451,(-26 -83 -62 -16 -25 -8 -2 13)
1969/12/31/18:00:18.451,(31 31 -55 -13 -7 4 2 7)
1969/12/31/18:00:18.463,(-51 51 41 22 29 -3 -16 7)
1969/12/31/18:00:18.463,(23 56 19 3 19 40 23 0)
1969/12/31/18:00:18.472,(-9 -56 -28 -17 -23 -12 -11 -4)
1969/12/31/18:00:18.472,(8 -9 18 5 -7 -18 -5 4)
1969/12/31/18:00:18.487,(-42 -4 -9 -14 -6 -7 -13 -48)
1969/12/31/18:00:18.487,(44 -14 -14 0 2 -17 13 26)
1969/12/31/18:00:18.489,(-41 -45 -49 -7 20 35 -17 -18)
1969/12/31/18:00:18.489,(21 88 91 39 15 -19 -15 -1)
1969/12/31/18:00:18.510,(-64 -99 -70 -50 -49 -18 13 17)
1969/12/31/18:00:18.510,(-5 15 -62 -6 31 9 -16 13)
1969/12/31/18:00:18.512,(65 99 89 22 -12 -11 1 11)
1969/12/31/18:00:18.512,(12 -106 -77 -18 -32 2 2 -2)
1969/12/31/18:00:18.532,(-17 -65 -38 3 16 -23 16 3)
1969/12/31/18:00:18.532,(-19 -55 -34 -31 -13 7 -1 -15)
1969/12/31/18:00:18.534,(-43 -50 -24 2 18 12 -4 1)
1969/12/31/18:00:18.534,(-26 -6 -20 -20 -20 -28 -21 -31)
1969/12/31/18:00:18.547,(77 89 106 52 81 82 21 33)
1969/12/31/18:00:18.547,(-38 -128 -89 -30 -49 -21 -1 15)
1969/12/31/18:00:18.548,(43 127 107 38 -21 -41 -6 8)
1969/12/31/18:00:18.548,(-17 -88 -74 -9 31 3 -2 -10)
1969/12/31/18:00:18.570,(-9 5 -65 -58 -44 0 -2 7)
1969/12/31/18:00:18.570,(31 116 108 52 33 1 5 29)
1969/12/31/18:00:18.571,(16 95 45 8 8 1 4 -30)
1969/12/31/18:00:18.571,(10 21 39 20 -1 -8 0 11)
1969/12/31/18:00:18.583,(-4 -98 -66 -30 -27 -13 -6 15)
1969/12/31/18:00:18.583,(-40 -94 -79 -52 -31 11 -21 -28)
1969/12/31/18:00:18.592,(-2 85 38 29 38 12 14 14)
1969/12/31/18:00:18.592,(-5 -64 -43 -11 10 5 13 9)
1969/12/31/18:00:18.607,(-2 -37 -30 1 -7 14 -16 -18)
1969/12/31/18:00:18.607,(15 123 122 57 -1 -36 10 -1)
1969/12/31/18:00:18.609,(-54 -128 -100 -40 -9 12 -4 -33)
1969/12/31/18:00:18.609,(-14 28 -21 -2 39 39 -5 -3)
1969/12/31/18:00:18.630,(25 79 77 13 -25 -16 7 7)
1969/12/31/18:00:18.630,(33 -100 -71 -20 5 -7 17 32)
1969/12/31/18:00:18.631,(-3 24 -18 8 3 -27 -20 5)
1969/12/31/18:00:18.631,(3 -50 4 1 -6 57 19 24)
1969/12/31/18:00:18.643,(-47 -62 -58 -36 -31 -55 -24 -44)
1969/12/31/18:00:18.643,(1 108 105 62 58 15 -4 -27)
1969/12/31/18:00:18.660,(0 58 39 9 -12 12 -1 3)
1969/12/31/18:00:18.660,(-15 -3 16 -13 -18 9 14 15)
1969/12/31/18:00:18.666,(17 51 76 54 21 -1 -5 -8)
1969/12/31/18:00:18.666,(1 -55 -80 -63 -52 -27 -5 -31)
1969/12/31/18:00:18.673,(-11 -56 -82 -15 11 7 6 23)
1969/12/31/18:00:18.673,(13 95 63 25 -9 -12 7 22)
1969/12/31/18:00:18.690,(-40 -66 -30 -11 9 13 7 -9)
1969/12/31/18:00:18.690,(-51 -34 -59 -4 -3 -6 11 14)
1969/12/31/18:00:18.691,(57 13 43 10 6 -19 -5 -21)
1969/12/31/18:00:18.691,(15 -59 -52 -27 -12 5 -4 3)
1969/12/31/18:00:18.703,(34 113 53 29 18 1 2 -18)
1969/12/31/18:00:18.703,(15 -31 -15 -13 10 10 -10 -7)
1969/12/31/18:00:18.712,(-34 -98 -61 -9 17 22 7 16)
1969/12/31/18:00:18.712,(26 31 34 14 -11 -7 12 20)
1969/12/31/18:00:18.726,(24 -37 -56 3 9 -12 2 -1)
1969/12/31/18:00:18.726,(5 -11 4 -6 14 34 5 9)
1969/12/31/18:00:18.733,(45 103 99 19 5 -5 -3 6)
1969/12/31/18:00:18.733,(-13 -78 -89 -10 25 -16 -12 -30)
1969/12/31/18:00:18.749,(11 77 25 -13 -2 40 10 16)
1969/12/31/18:00:18.749,(65 99 81 61 19 -29 15 47)
1969/12/31/18:00:18.751,(16 -102 -57 -11 0 46 -4 -4)
1969/12/31/18:00:18.751,(-25 -74 -56 -36 -41 -38 -3 -3)
1969/12/31/18:00:18.763,(-18 -70 -102 -34 -14 -31 -7 12)
1969/12/31/18:00:18.763,(-64 65 79 42 16 2 -25 -53)
1969/12/31/18:00:18.772,(-36 -56 -7 15 33 -24 -7 -34)
1969/12/31/18:00:18.772,(11 3 -31 -21 -24 28 5 21)
1969/12/31/18:00:18.786,(-8 -39 -25 -18 -14 -6 4 15)
1969/12/31/18:00:18.786,(11 -115 -102 -33 4 17 4 23)
1969/12/31/18:00:18.793,(29 89 76 15 -15 -19 15 24)
1969/12/31/18:00:18.793,(-70 -44 -20 3 33 27 -12 -42)
1969/12/31/18:00:18.810,(61 -38 5 7 -24 -1 9 78)
1969/12/31/18:00:18.810,(-32 17 13 -6 -28 -31 -25 -70)
1969/12/31/18:00:18.811,(4 9 -17 11 1 -26 5 12)
1969/12/31/18:00:18.811,(18 -5 -14 -29 -15 13 -1 7)
1969/12/31/18:00:18.832,(-15 64 38 21 3 24 1 -13)
1969/12/31/18:00:18.832,(18 -79 -82 -28 -10 10 -8 -14)
1969/12/31/18:00:18.834,(64 -1 -15 4 6 6 18 49)
1969/12/31/18:00:18.834,(-2 63 40 31 11 -43 -15 -31)
1969/12/31/18:00:18.846,(-26 -57 -24 -1 22 28 6 1)
1969/12/31/18:00:18.846,(17 -25 -4 -8 -29 -6 3 52)
1969/12/31/18:00:18.853,(-52 -99 -89 -48 -24 13 10 -9)
1969/12/31/18:00:18.853,(53 67 -9 4 8 -18 -10 -3)
1969/12/31/18:00:18.870,(19 54 61 21 20 27 8 -3)
1969/12/31/18:00:18.870,(-14 17 24 10 17 -9 -12 -16)
1969/12/31/18:00:18.871,(-24 -34 -53 -16 -3 41 3 -5)
1969/12/31/18:00:18.871,(2 13 46 11 12 -4 4 16)
1969/12/31/18:00:18.892,(-13 -125 -121 -20 -15 -15 -8 21)
1969/12/31/18:00:18.892,(93 127 127 79 19 7 0 38)
1969/12/31/18:00:18.894,(-69 -128 -128 -50 -35 -38 -29 -36)
1969/12/31/18:00:18.894,(26 75 93 33 -9 -15 1 4)
1969/12/31/18:00:18.906,(75 114 76 26 17 10 20 21)
1969/12/31/18:00:18.906,(-105 -128 -107 -45 15 13 -7 -66)
1969/12/31/18:00:18.913,(23 36 -36 -9 -7 2 -10 -6)
1969/12/31/18:00:18.913,(38 75 65 23 -9 5 11 14)
1969/12/31/18:00:18.930,(-81 -116 -49 -6 9 -23 -18 -52)
1969/12/31/18:00:18.930,(33 11 -90 -41 -16 -5 11 36)
1969/12/31/18:00:18.931,(73 59 60 33 14 0 14 39)
1969/12/31/18:00:18.931,(-12 -75 -20 0 -6 -22 -3 -12)
1969/12/31/18:00:18.952,(-22 -40 -6 -14 -3 20 13 -7)
1969/12/31/18:00:18.952,(-56 -66 -23 -9 -1 -2 -11 -36)
1969/12/31/18:00:18.954,(-38 -25 -27 -22 -14 -13 -7 -8)
1969/12/31/18:00:18.954,(13 -2 55 21 22 3 -2 23)
1969/12/31/18:00:18.966,(20 33 -11 -3 -9 -27 -8 1)
1969/12/31/18:00:18.966,(38 58 29 13 8 16 4 8)
1969/12/31/18:00:18.973,(-9 -37 29 11 1 -26 -8 -6)
1969/12/31/18:00:18.973,(4 0 -7 -3 -2 31 10 13)
1969/12/31/18:00:18.990,(-54 -52 -36 -19 -12 -30 -21 -39)
1969/12/31/18:00:18.990,(-11 38 23 -8 -6 -8 6 12)
1969/12/31/18:00:18.991,(-27 -64 -32 16 28 15 -16 -39)
1969/12/31/18:00:18.991,(16 56 19 -15 13 24 9 -5)
1969/12/31/18:00:19.012,(45 33 30 32 18 5 10 8)
1969/12/31/18:00:19.012,(0 4 -6 -24 -65 -7 -4 8)
1969/12/31/18:00:19.014,(-33 -20 27 17 8 -42 -1 -5)
1969/12/31/18:00:19.014,(-33 -23 -38 -20 -9 8 -19 -19)
1969/12/31/18:00:19.026,(-4 17 0 14 19 -1 -7 -12)
1969/12/31/18:00:19.026,(-7 -73 -13 -3 -17 5 12 -12)
1969/12/31/18:00:19.035,(17 29 -15 -21 -14 9 8 25)
1969/12/31/18:00:19.035,(10 38 11 8 2 -29 -5 7)
1969/12/31/18:00:19.050,(26 36 20 0 -22 -6 -8 10)
1969/12/31/18:00:19.050,(-19 -59 -22 -4 11 0 -2 -19)
1969/12/31/18:00:19.051,(-31 -16 -13 -14 -8 16 6 3)
1969/12/31/18:00:19.051,(2 44 0 1 -8 -7 12 10)
1969/12/31/18:00:19.072,(12 -24 4 1 -1 -6 -11 -17)
1969/12/31/18:00:19.072,(58 22 6 12 23 13 21 55)
1969/12/31/18:00:19.073,(-29 0 7 0 0 5 -8 -33)
1969/12/31/18:00:19.073,(-11 -20 -14 -8 -33 -15 -4 -3)
1969/12/31/18:00:19.086,(-57 -43 -35 -20 -14 -12 -3 -20)
1969/12/31/18:00:19.086,(7 32 19 7 9 6 -7 -11)
1969/12/31/18:00:19.095,(8 24 23 -2 -12 -6 -4 10)
1969/12/31/18:00:19.095,(-1 -4 -3 5 7 0 6 -10)
1969/12/31/18:00:19.110,(-22 -25 -16 -17 -4 16 26 8)
1969/12/31/18:00:19.110,(-5 31 34 54 48 3 -18 3)
1969/12/31/18:00:19.111,(-5 -22 6 4 5 31 13 3)
1969/12/31/18:00:19.111,(35 -39 -37 -9 -5 -62 -33 13)
1969/12/31/18:00:19.132,(-12 -45 -65 -36 3 53 10 -15)
1969/12/31/18:00:19.132,(10 96 87 76 29 25 19 -13)
1969/12/31/18:00:19.133,(9 28 -21 -12 -21 -10 -5 -3)
1969/12/31/18:00:19.133,(-16 -44 -38 -2 6 9 1 0)
1969/12/31/18:00:19.146,(-6 -3 20 6 -14 -47 -13 4)
1969/12/31/18:00:19.146,(-17 -51 -39 -28 6 40 11 13)
1969/12/31/18:00:19.154,(-9 12 13 3 13 4 -11 -1)
1969/12/31/18:00:19.155,(10 -16 -4 -11 -25 -3 -2 -11)
1969/12/31/18:00:19.177,(23 17 4 -1 -1 -19 -17 10)
1969/12/31/18:00:19.177,(-17 -18 -15 -19 1 -1 -1 -5)
1969/12/31/18:00:19.178,(-20 11 10 -9 -16 -16 -8 -15)
1969/12/31/18:00:19.178,(-29 -7 0 9 21 23 -6 -7)
1969/12/31/18:00:19.192,(6 -11 -2 6 0 -10 5 -9)
1969/12/31/18:00:19.192,(-29 4 7 2 5 6 25 17)
1969/12/31/18:00:19.193,(13 -4 -2 -7 -17 -45 -15 -17)
1969/12/31/18:00:19.193,(-20 14 0 -2 0 24 -17 -17)
1969/12/31/18:00:19.206,(10 -35 -22 3 0 5 2 2)
1969/12/31/18:00:19.206,(-8 -12 -53 -19 14 -21 1 -12)
1969/12/31/18:00:19.215,(42 96 89 36 13 64 15 21)
1969/12/31/18:00:19.215,(14 -20 -23 5 -8 -44 -2 -6)
1969/12/31/18:00:19.229,(-22 -13 -14 -27 -57 -9 -24 -16)
1969/12/31/18:00:19.229,(-20 -102 -58 -41 -29 -1 1 1)
1969/12/31/18:00:19.231,(45 -10 -26 -3 11 -16 5 28)
1969/12/31/18:00:19.231,(10 20 23 -1 3 23 9 10)
1969/12/31/18:00:19.259,(13 10 14 20 38 -7 -4 5)
1969/12/31/18:00:19.259,(-11 -8 -14 -13 -31 -37 -28 -28)
1969/12/31/18:00:19.261,(-25 -25 -11 5 22 18 11 -8)
1969/12/31/18:00:19.261,(-33 2 19 8 -8 7 -17 8)
1969/12/31/18:00:19.266,(26 21 6 13 12 -16 -4 -4)
1969/12/31/18:00:19.266,(40 32 17 0 -4 -3 5 55)
1969/12/31/18:00:19.281,(-8 -19 -10 -9 -12 -12 -8 -1)
1969/12/31/18:00:19.281,(29 -3 -16 -16 -4 2 20 14)
1969/12/31/18:00:19.289,(-18 -1 0 -4 0 2 -45 -39)
1969/12/31/18:00:19.289,(8 3 12 3 -5 -12 -3 29)
1969/12/31/18:00:19.291,(-20 -15 -14 -9 -11 -25 29 4)
1969/12/31/18:00:19.291,(-8 -31 -25 -11 -5 7 -30 -27)
1969/12/31/18:00:19.312,(-12 19 27 17 8 17 27 13)
1969/12/31/18:00:19.312,(43 37 18 3 -9 -4 -3 -4)
1969/12/31/18:00:19.313,(-63 -71 -55 -50 -42 -28 -26 -26)
1969/12/31/18:00:19.313,(-26 -4 -1 5 21 44 15 -6)
1969/12/31/18:00:19.325,(-32 -14 5 27 33 -12 -59 -30)
1969/12/31/18:00:19.325,(22 13 13 8 10 32 62 30)
1969/12/31/18:00:19.335,(-22 36 12 21 17 -1 19 10)
1969/12/31/18:00:19.335,(-102 -59 -27 -19 -22 -24 -9 -46)
1969/12/31/18:00:19.349,(85 27 -8 -25 -29 -20 -13 25)
1969/12/31/18:00:19.349,(3 -28 -10 -7 -3 -2 -9 19)
1969/12/31/18:00:19.351,(10 -4 14 8 11 12 -9 7)
1969/12/31/18:00:19.351,(79 29 4 -3 -9 4 44 49)
1969/12/31/18:00:19.372,(-92 -21 -3 -1 0 -6 17 -32)
1969/12/31/18:00:19.372,(-64 -33 -22 -17 -11 -16 -7 22)
1969/12/31/18:00:19.373,(43 35 3 -4 -3 25 -4 6)
1969/12/31/18:00:19.373,(-68 -50 -9 2 7 -17 -12 -22)
1969/12/31/18:00:19.386,(50 13 8 5 2 10 13 27)
1969/12/31/18:00:19.386,(37 20 17 13 11 9 -3 14)
1969/12/31/18:00:19.395,(-10 -32 -17 -3 -3 0 -13 -34)
1969/12/31/18:00:19.395,(35 30 6 -1 -1 -6 22 7)
1969/12/31/18:00:19.409,(-28 -6 -2 -7 -6 11 -7 10)
1969/12/31/18:00:19.409,(-17 -31 -1 -1 -2 -9 -16 -70)
1969/12/31/18:00:19.411,(86 25 6 10 11 3 8 34)
1969/12/31/18:00:19.411,(6 18 4 0 -4 -9 -10 -18)
1969/12/31/18:00:19.432,(28 25 1 -8 -7 1 26 16)
1969/12/31/18:00:19.432,(-6 -9 -5 3 7 9 -2 19)
1969/12/31/18:00:19.434,(-33 -4 4 5 0 -5 -12 -20)
1969/12/31/18:00:19.434,(16 4 2 3 5 12 11 28)
1969/12/31/18:00:19.454,(12 -13 -8 -5 -2 4 12 20)
1969/12/31/18:00:19.454,(-39 11 5 3 -4 -11 -27 -48)
1969/12/31/18:00:19.456,(-14 -5 8 4 4 5 9 2)
1969/12/31/18:00:19.456,(-17 19 -3 -5 -5 -5 -7 -7)
1969/12/31/18:00:19.470,(-4 -9 0 -5 -2 -3 -2 -8)
1969/12/31/18:00:19.470,(4 -25 -29 -8 -5 -6 -5 -12)
1969/12/31/18:00:19.471,(-3 28 21 -3 0 -3 0 -4)
1969/12/31/18:00:19.471,(6 -17 -2 14 6 3 -6 4)
1969/12/31/18:00:19.492,(9 -5 -16 -10 -6 -2 4 7)
1969/12/31/18:00:19.492,(12 29 33 14 3 0 -5 -15)
1969/12/31/18:00:19.494,(-23 -25 -14 1 1 0 -3 -2)
1969/12/31/18:00:19.494,(1 -2 0 -1 2 -1 -5 -3)
1969/12/31/18:00:19.506,(0 9 12 4 2 2 9 3)
1969/12/31/18:00:19.506,(-2 -9 -19 -14 -7 -2 -5 -12)
1969/12/31/18:00:19.515,(6 -5 -6 -1 0 0 1 21)
1969/12/31/18:00:19.515,(6 -2 -6 -5 -2 -2 -2 7)
1969/12/31/18:00:19.529,(-5 -5 -4 0 -2 -4 2 1)
1969/12/31/18:00:19.529,(5 -24 -15 -8 -3 0 -4 -6)
1969/12/31/18:00:19.537,(8 42 27 1 -3 -3 -9 -10)
1969/12/31/18:00:19.537,(-19 -25 -19 -7 -6 -1 -5 -11)
1969/12/31/18:00:19.552,(-10 -37 2 10 5 3 3 6)
1969/12/31/18:00:19.552,(4 32 -18 -12 -5 -4 -9 -14)
1969/12/31/18:00:19.554,(15 25 25 10 -1 -3 -2 -8)
1969/12/31/18:00:19.554,(-5 -11 -2 -3 -1 -2 -5 -5)
1969/12/31/18:00:19.566,(9 17 3 1 3 8 6 7)
1969/12/31/18:00:19.566,(-13 -32 -14 -6 -4 -2 -9 -34)
1969/12/31/18:00:19.574,(-14 -12 -1 6 1 -3 -5 -7)
1969/12/31/18:00:19.574,(4 6 -3 -6 -7 -4 -2 -6)
1969/12/31/18:00:19.589,(2 7 -4 0 3 1 -4 5)
1969/12/31/18:00:19.589,(-6 -7 -9 -7 -4 -4 3 8)
1969/12/31/18:00:19.596,(0 6 3 8 6 5 -4 2)
1969/12/31/18:00:19.596,(7 18 17 4 -1 -4 -2 -5)
1969/12/31/18:00:19.612,(-11 -29 -31 -14 -6 -3 13 5)
1969/12/31/18:00:19.612,(-5 17 23 7 2 3 -10 -13)
1969/12/31/18:00:19.614,(-8 -16 -21 -13 -9 -6 -1 -4)
1969/12/31/18:00:19.614,(-4 -74 -54 -11 0 0 -2 5)
1969/12/31/18:00:19.626,(4 78 56 19 6 1 -5 -13)
1969/12/31/18:00:19.626,(0 10 -10 -6 -3 1 6 9)
1969/12/31/18:00:19.635,(1 -22 -21 -6 -4 -2 -1 2)
1969/12/31/18:00:19.635,(2 19 18 -3 2 2 1 -3)
1969/12/31/18:00:19.649,(-4 -24 -22 2 -4 -4 -2 4)
1969/12/31/18:00:19.649,(-2 -11 -4 0 1 3 2 5)
1969/12/31/18:00:19.651,(2 13 11 -1 -1 -1 -6 2)
1969/12/31/18:00:19.651,(2 -1 -13 -4 1 3 2 4)
1969/12/31/18:00:19.672,(-8 -1 10 0 -3 -5 -5 -8)
1969/12/31/18:00:19.672,(2 4 3 -2 -3 -6 -2 0)
1969/12/31/18:00:19.674,(0 -22 -12 0 4 8 14 13)
1969/12/31/18:00:19.674,(1 27 8 -2 -1 1 -5 -8)
1969/12/31/18:00:19.686,(-1 -1 20 9 2 1 6 2)
1969/12/31/18:00:19.686,(2 0 1 0 1 1 6 9)
1969/12/31/18:00:19.695,(-8 -4 -15 -10 -6 -10 -21 -21)
1969/12/31/18:00:19.695,(6 18 21 14 2 2 7 7)
1969/12/31/18:00:19.709,(2 -3 -7 -3 -3 0 -2 -1)
1969/12/31/18:00:19.709,(-8 -9 -7 -3 -4 -2 -4 -2)
1969/12/31/18:00:19.716,(-3 -11 -6 -5 -3 -1 8 3)
1969/12/31/18:00:19.716,(-4 8 6 3 2 -2 -5 -7)
1969/12/31/18:00:19.732,(-2 -11 -8 -4 -3 -3 -9 -15)
1969/12/31/18:00:19.732,(1 7 2 -2 -2 -1 5 5)
1969/12/31/18:00:19.734,(-3 -20 -15 -3 -1 -4 -6 -5)
1969/12/31/18:00:19.734,(4 28 19 11 4 1 -2 -1)
1969/12/31/18:00:19.746,(0 -4 -3 -3 -2 -1 3 4)
1969/12/31/18:00:19.746,(-1 -4 0 -1 -4 -2 -6 -5)
1969/12/31/18:00:19.754,(-4 -4 -3 -4 -2 3 4 1)
1969/12/31/18:00:19.754,(-5 -7 -7 -8 -5 -4 -5 -3)
1969/12/31/18:00:19.769,(-9 -14 -8 -5 -4 -5 -7 -11)
1969/12/31/18:00:19.769,(4 15 18 13 5 -2 1 1)
1969/12/31/18:00:19.776,(9 8 -5 3 2 4 6 6)
1969/12/31/18:00:19.776,(1 0 6 7 2 3 -1 -2)
1969/12/31/18:00:19.792,(-7 1 -7 -9 -3 -3 -1 -2)
1969/12/31/18:00:19.792,(-7 -29 -18 -16 -6 -1 -1 1)
1969/12/31/18:00:19.793,(5 22 10 4 1 -2 -1 -1)
1969/12/31/18:00:19.794,(3 7 12 2 1 -3 3 3)
1969/12/31/18:00:19.815,(-3 -2 -2 4 0 0 0 -1)
1969/12/31/18:00:19.815,(0 6 1 -1 -3 -4 -6 -8)
1969/12/31/18:00:19.816,(-16 -18 -3 -11 -4 0 2 -4)
1969/12/31/18:00:19.816,(-7 -15 -2 1 -2 -3 -9 -11)
1969/12/31/18:00:19.829,(10 -8 -18 -8 1 2 3 7)
1969/12/31/18:00:19.829,(9 35 23 14 8 1 3 7)
1969/12/31/18:00:19.836,(-10 -25 -11 -4 -3 -2 -4 -6)
1969/12/31/18:00:19.836,(-10 -20 -18 -14 -8 -2 3 1)
1969/12/31/18:00:19.852,(-1 23 9 10 0 -1 -6 -5)
1969/12/31/18:00:19.852,(-6 -30 -18 -1 0 0 0 0)
1969/12/31/18:00:19.854,(6 22 11 -6 -2 -3 -2 1)
1969/12/31/18:00:19.854,(7 21 10 5 1 0 1 2)
1969/12/31/18:00:19.875,(6 13 1 7 0 -1 1 1)
1969/12/31/18:00:19.875,(-4 -32 -24 -4 1 2 3 4)
1969/12/31/18:00:19.876,(-11 -20 -20 -6 -6 -4 -5 -6)
1969/12/31/18:00:19.876,(-2 -2 22 7 1 -2 0 1)
1969/12/31/18:00:19.888,(-1 1 -12 -16 -9 -5 -3 1)
1969/12/31/18:00:19.888,(6 33 39 11 -1 -3 -2 -3)
1969/12/31/18:00:19.897,(4 -10 -4 12 7 4 3 4)
1969/12/31/18:00:19.897,(-14 -61 -44 -14 -5 -2 -2 -1)
1969/12/31/18:00:19.912,(7 43 39 14 5 3 1 -2)
1969/12/31/18:00:19.912,(-5 -2 4 1 -2 -1 1 1)
1969/12/31/18:00:19.914,(5 10 1 -5 -3 -2 -1 2)
1969/12/31/18:00:19.914,(-3 -9 -1 -1 -2 -2 -1 0)
1969/12/31/18:00:19.934,(-9 -18 -6 -4 -2 -2 -2 -7)
1969/12/31/18:00:19.934,(-8 -16 -11 -19 -7 -2 3 3)
1969/12/31/18:00:19.936,(16 38 -8 -4 -1 -4 -7 -7)
1969/12/31/18:00:19.936,(6 9 9 24 12 8 5 6)
1969/12/31/18:00:19.949,(-10 -25 -18 -7 -1 -4 -5 -7)
1969/12/31/18:00:19.949,(-1 -2 -15 -5 -4 -3 -5 -7)
1969/12/31/18:00:19.956,(-4 -9 -1 -3 2 1 4 5)
1969/12/31/18:00:19.956,(4 14 5 -3 -2 -2 1 4)
1969/12/31/18:00:19.972,(3 7 3 -2 1 0 0 -1)
1969/12/31/18:00:19.972,(-7 -26 -19 -5 -2 0 -2 -2)
1969/12/31/18:00:19.973,(3 8 16 9 1 2 3 3)
1969/12/31/18:00:19.973,(-2 4 -7 -9 -6 -3 -5 -5)
1969/12/31/18:00:19.995,(-7 -16 6 -8 -3 -2 2 2)
1969/12/31/18:00:19.995,(14 35 13 13 7 2 -1 4)
1969/12/31/18:00:19.996,(0 -2 0 4 1 -2 0 -1)
1969/12/31/18:00:19.996,(7 23 17 3 0 0 2 2)
1969/12/31/18:00:20.009,(-7 -24 -24 -11 -5 -2 -3 -4)
1969/12/31/18:00:20.009,(1 4 7 -2 -1 -4 -1 -1)
1969/12/31/18:00:20.016,(-1 -1 1 0 -1 -2 0 1)
1969/12/31/18:00:20.016,(-3 -5 -14 -11 -5 -4 0 0)
1969/12/31/18:00:20.040,(5 15 8 1 1 2 2 2)
1969/12/31/18:00:20.040,(-2 -5 -8 -3 0 1 -3 -1)
1969/12/31/18:00:20.041,(1 2 16 18 7 5 3 2)
1969/12/31/18:00:20.041,(1 11 14 3 0 1 -1 -1)
1969/12/31/18:00:20.056,(-5 -10 -8 -3 -2 -1 -2 -1)
1969/12/31/18:00:20.056,(-4 -1 -2 -6 -4 -3 -4 -4)
1969/12/31/18:00:20.058,(-4 -7 -9 -11 -6 -4 -4 -3)
1969/12/31/18:00:20.058,(2 6 -5 -6 -2 -1 -2 0)
1969/12/31/18:00:20.068,(-8 -13 -12 -6 -4 -4 -4 -6)
1969/12/31/18:00:20.068,(-1 -1 3 0 0 0 1 1)
1969/12/31/18:00:20.094,(-3 -7 -2 -3 -2 1 0 -1)
1969/12/31/18:00:20.094,(2 3 -4 0 0 0 -2 1)
1969/12/31/18:00:20.095,(6 7 15 10 0 1 0 1)
1969/12/31/18:00:20.095,(-1 0 4 1 0 1 0 -2)
1969/12/31/18:00:20.098,(-6 -11 -13 -10 -5 -1 0 0)
1969/12/31/18:00:20.098,(-2 8 3 -3 -2 -2 -7 -8)
1969/12/31/18:00:20.122,(6 1 2 3 2 2 4 5)
1969/12/31/18:00:20.122,(1 1 8 9 4 1 4 2)
1969/12/31/18:00:20.124,(-3 -6 0 1 1 1 -3 -5)
1969/12/31/18:00:20.124,(-2 -4 0 4 0 -2 -1 -5)
1969/12/31/18:00:20.128,(-1 3 1 3 3 0 1 2)
1969/12/31/18:00:20.128,(-3 -2 -6 -6 -3 -5 -5 -5)
1969/12/31/18:00:20.137,(-1 -1 -4 -4 -2 3 5 6)
1969/12/31/18:00:20.137,(-3 -7 -6 -7 -5 -3 -5 -2)
1969/12/31/18:00:20.152,(-1 2 2 0 0 -3 -5 -5)
1969/12/31/18:00:20.152,(1 3 -1 1 -1 0 -4 -1)
1969/12/31/18:00:20.153,(1 -2 -1 -2 -2 -2 -1 1)
1969/12/31/18:00:20.154,(-2 -1 -2 1 -3 -1 2 2)
1969/12/31/18:00:20.175,(2 0 -1 0 -1 1 1 4)
1969/12/31/18:00:20.175,(-3 -3 -2 0 0 0 -3 -6)
1969/12/31/18:00:20.176,(-1 -2 -3 0 1 -3 -2 -3)
1969/12/31/18:00:20.176,(1 2 3 1 2 1 0 2)
1969/12/31/18:00:20.188,(-1 -1 -3 -3 -2 2 -1 0)
1969/12/31/18:00:20.188,(-2 -3 -2 -3 -2 0 -1 -2)
1969/12/31/18:00:20.197,(1 3 1 0 0 1 -1 -1)
1969/12/31/18:00:20.197,(1 0 -3 -2 -2 -1 -1 -1)
1969/12/31/18:00:20.212,(-1 0 0 1 3 1 0 -1)
1969/12/31/18:00:20.212,(-7 -7 -6 -4 -2 0 -2 -4)
1969/12/31/18:00:20.214,(2 3 2 -3 -2 -2 0 2)
1969/12/31/18:00:20.214,(-2 -9 -3 2 0 -2 -1 -4)
1969/12/31/18:00:20.235,(1 1 3 2 -2 -1 0 0)
1969/12/31/18:00:20.235,(-1 1 1 -1 -1 -2 -1 0)
1969/12/31/18:00:20.236,(-1 3 -4 0 -1 -3 -2 -3)
1969/12/31/18:00:20.236,(-1 -4 -6 -6 -2 -2 -2 0)
1969/12/31/18:00:20.248,(-3 -4 -7 -6 -3 -5 -2 -2)
1969/12/31/18:00:20.248,(-2 -1 1 0 -1 -1 0 -1)
1969/12/31/18:00:20.257,(-2 -4 -3 -3 -4 -3 -3 -3)
1969/12/31/18:00:20.257,(0 3 1 0 1 2 0 1)
1969/12/31/18:00:20.272,(-1 -2 -1 0 1 0 0 -2)
1969/12/31/18:00:20.272,(0 1 -1 -3 -4 -2 -1 1)
1969/12/31/18:00:20.274,(-3 -2 0 1 0 -2 -2 -3)
1969/12/31/18:00:20.274,(-2 -1 1 0 1 0 0 -1)
1969/12/31/18:00:20.295,(0 -2 1 -1 -2 1 0 0)
1969/12/31/18:00:20.295,(2 -1 -1 -1 -2 0 0 2)
1969/12/31/18:00:20.296,(0 2 8 4 2 1 0 -1)
1969/12/31/18:00:20.296,(-2 -2 -4 -2 -3 -1 -1 -2)
1969/12/31/18:00:20.317,(-2 1 -1 -2 1 -1 0 0)
1969/12/31/18:00:20.317,(0 0 2 0 -1 -1 -1 -2)
1969/12/31/18:00:20.319,(-2 0 -10 -6 -3 -2 0 -1)
1969/12/31/18:00:20.319,(-2 -5 13 4 3 1 3 0)
1969/12/31/18:00:20.332,(0 2 -1 -2 0 -1 -1 -2)
1969/12/31/18:00:20.332,(-1 -3 -6 1 2 0 -2 -1)
1969/12/31/18:00:20.334,(1 2 -3 -2 -1 -1 -2 -2)
1969/12/31/18:00:20.334,(-4 -4 -10 -8 -5 -3 -2 -4)
1969/12/31/18:00:20.355,(-2 1 0 2 0 1 1 1)
1969/12/31/18:00:20.355,(0 0 4 2 0 -1 -1 -3)
1969/12/31/18:00:20.356,(0 -3 -1 -1 2 3 2 2)
1969/12/31/18:00:20.356,(1 2 -4 -3 -3 -1 -1 1)
1969/12/31/18:00:20.368,(-1 -3 -3 -5 -6 -3 -2 -1)
1969/12/31/18:00:20.368,(-1 -2 -4 -1 0 0 -1 0)
1969/12/31/18:00:20.377,(-1 -1 2 -1 -3 -3 -2 -3)
1969/12/31/18:00:20.377,(1 1 -1 -1 -1 0 -1 1)
