timestamp,_data,_check_fields
5774826346.0,"array('h', [1.0697390387168186, 1.6292831662409077, 2.1845401258354764, 2.0022534307535236, 0.6902203490910611, 1.0983668120526682, 0.5247601410469883, 0.8969641500574798])",False
5794731974.372881,"array('h', [0.7890359588145347, 0.9333450577465042, 1.5504171879642197, 0.8149630854126235, 0.5856653788646587, 0.8268616855410043, 0.26995660498021185, 0.6411965614948999])",False
5814637602.745763,"array('h', [0.7933067510482552, 1.2454038164656127, 1.9564166567112753, 1.7217331599386554, 1.3912167285519084, 0.7596964915599278, 0.8325122007290762, 1.275032472686349])",False
5834543231.118644,"array('h', [0.8760055423819244, 1.2420334737483734, 2.287799645217835, 1.8727318267420212, 1.332038693608632, 0.7232646007688386, 0.9710254879628027, 1.1289332616610785])",False
5854448859.491526,"array('h', [1.0870471801268067, 1.4554293981986954, 2.5747614285486464, 2.0099206755399144, 1.134720544359383, 0.7870242134382271, 1.0456858541334952, 1.286259438331591])",False
5874354487.864407,"array('h', [1.1316995626598916, 1.7129170965291352, 3.0611235004518624, 2.4224929050581427, 1.1978663967971956, 0.8841129964542145, 1.0740253854712334, 1.1357750000947262])",False
5894260116.237288,"array('h', [1.3600802157837724, 1.9391751501238297, 3.141252115070813, 2.6458736481406873, 1.5006036028874723, 1.2406529389048802, 1.3308041530138917, 1.3959405734614554])",False
5914165744.610169,"array('h', [1.276962792967962, 2.1445711664659717, 3.6337476204048467, 2.752623914502898, 1.5056903186240356, 1.516348379114668, 1.619760157413449, 1.7171567011605218])",False
5934071372.983051,"array('h', [1.4796882358330328, 2.3199267144038984, 4.541450914164061, 3.276700956207444, 1.8488214722149214, 1.6033020230803707, 1.7348619670373757, 1.9112982163987091])",False
5953977001.355932,"array('h', [1.3650514825681859, 2.408425285648773, 5.491940907037461, 3.955012929255421, 2.3503389620324837, 1.9387577878632958, 1.9972122282873084, 2.3327853729298247])",False
5973882629.728813,"array('h', [1.5030209825626297, 2.5822720614533945, 5.750679897105676, 4.210746997384773, 2.405257930704462, 2.0302211256639295, 2.074957082345094, 2.316943644906115])",False
5993788258.101695,"array('h', [1.4937671662447791, 2.6259681603301037, 6.023482102976119, 4.433251045872784, 2.5261880636764302, 2.3051093488493186, 2.3252645190046493, 2.458428734891233])",False
6013693886.474576,"array('h', [1.5167301060734617, 2.705828884292229, 6.3392473234656235, 4.707436170525863, 2.5007189549812487, 2.4960564419359343, 2.418920914622863, 2.4227743580180494])",False
6033599514.847458,"array('h', [1.4952758175794734, 2.7904872781213546, 6.567073419355979, 4.754712121730035, 2.6725822146248754, 2.7292632443943248, 2.523149410445151, 2.646712935156671])",False
6053505143.220339,"array('h', [1.627157915354591, 2.7826831677601223, 7.076021097657455, 4.862450922439789, 2.728977629601616, 2.923434022644086, 2.835968536762454, 2.923938432287655])",False
6073410771.593221,"array('h', [1.6068529410941317, 2.7865055430737664, 7.159769983833121, 4.832019770786838, 2.7860167418163915, 3.3266546077003016, 2.9563163026260053, 2.9456862515550255])",False
6093316399.966102,"array('h', [1.7083782220211767, 2.8283477979045832, 7.295700644896507, 5.004364072709795, 3.0154015959281666, 3.5715737746675136, 3.405412535419147, 3.2505520930386287])",False
6113222028.338984,"array('h', [1.5445235137944833, 2.8014027046632863, 7.102734842737373, 4.875524014259553, 3.00006302901735, 3.6533435355620383, 3.3528929146538418, 3.2871630468053286])",False
6133127656.711864,"array('h', [1.8858263177663366, 3.0712300722287087, 7.506117045837576, 4.942737533691555, 2.9818908453899358, 3.642689674300518, 3.5940581831906955, 3.478420976091308])",False
6153033285.084745,"array('h', [2.3430870362804432, 3.7111088807181463, 7.96105327554568, 5.042567129518604, 3.086232324005703, 3.5286828667598407, 3.665194519182545, 3.561973226306391])",False
6172938913.457627,"array('h', [2.620969899804175, 3.980485056056496, 7.6432348321410135, 4.986474023961891, 3.1319861917989087, 3.3752096633508653, 3.9555368599518492, 3.8214824922638893])",False
6192844541.830508,"array('h', [2.708944473719014, 4.00327180739381, 6.866256919078368, 4.396369287000572, 2.7260646744827026, 3.314957783251345, 4.077905232212531, 3.984591392498004])",False
6212750170.20339,"array('h', [4.742537738730003, 4.609620227562835, 6.185293449259548, 3.949737124803458, 2.5604664617566972, 3.2626971849840913, 4.415907668671092, 4.6223916664596265])",False
6232655798.576271,"array('h', [6.3598400760703715, 5.312082820627358, 6.326687100282663, 3.816037763338708, 2.6712610651900492, 3.611424147926082, 4.839626947871085, 5.272315525265162])",False
6252561426.949153,"array('h', [7.52512162136045, 5.739727588623291, 6.17382223358851, 3.47873148159174, 2.7440765371596423, 3.6736273287354893, 5.258917986405236, 5.947753424076752])",False
6272467055.322034,"array('h', [9.253472732192751, 6.1541870529447635, 5.825838783271301, 3.171771133083314, 2.6462728588390645, 3.5657685599525166, 5.4043777038986125, 7.602768788888161])",False
6292372683.694916,"array('h', [11.244579382130217, 7.2835299918321175, 5.794727970891062, 3.3974727204378277, 2.6618242813031814, 4.111167430923223, 6.145304247428162, 9.586156684123848])",False
6312278312.067797,"array('h', [12.333056734391054, 7.7028254196263415, 5.538172073536177, 3.3687782318070476, 2.8180908651250522, 5.87997441736032, 7.249263568671811, 11.14255794281051])",False
6332183940.440678,"array('h', [14.178373715714326, 8.81006498247573, 5.4812978042852585, 3.3552794065994025, 3.1143122889827626, 8.71472375074624, 7.855839907472118, 12.861166606168464])",False
6352089568.81356,"array('h', [16.207182641651492, 10.142857596463367, 5.712124956199953, 3.5605635289184847, 3.446887692133295, 10.47538976190753, 8.715053567509031, 14.152835092148393])",False
6371995197.18644,"array('h', [18.066136161780594, 11.079856564828589, 6.133651966719061, 3.9132969377180244, 4.062591436665067, 12.703225844452431, 10.012524956066466, 16.438240291810274])",False
6391900825.559322,"array('h', [18.487238374067505, 11.731677202225093, 5.914465252633913, 4.015100027366575, 4.546155682928515, 16.54595074581905, 10.65302406800427, 17.482841956130585])",False
6411806453.932203,"array('h', [19.142133399121157, 11.675110714935414, 5.752832386580183, 3.9987968036761155, 4.843389209463053, 19.84625487871464, 11.615358085937496, 18.94088928196203])",False
6431712082.305085,"array('h', [21.227375900527164, 12.492614913684472, 6.156825435907683, 4.187297132867197, 5.273248543735894, 21.894664480291606, 12.697338777286733, 20.95770190566337])",False
6451617710.677966,"array('h', [22.19034550234624, 12.569866465467902, 6.344963504894934, 4.486551358345742, 5.385307149008222, 23.237341230125914, 13.384006883978392, 21.932940188279407])",False
6471523339.050848,"array('h', [22.17488452747209, 13.104591648834045, 6.355520241720559, 4.523237051713342, 5.494775601049537, 25.005716035483776, 14.303852397455348, 24.15020156687237])",False
6491428967.423729,"array('h', [22.856288297864104, 13.532464527368814, 6.1473200152746434, 4.818748486899926, 5.8767449458263945, 26.526135235949234, 15.919422775098367, 26.977859952101173])",False
6511334595.79661,"array('h', [22.33617299927618, 13.612863032235389, 6.175848274465033, 5.017388681646093, 6.161005784429774, 27.592633855477537, 17.24801564788922, 27.06681917307027])",False
6531240224.169492,"array('h', [22.172535769575898, 14.120646825749718, 6.186932663898458, 5.235096329725373, 6.624894991201223, 30.38512610325685, 17.2127749088665, 26.28743500792972])",False
6551145852.542373,"array('h', [21.832374924751246, 14.217212370214408, 6.189360972075649, 5.189894641237691, 6.814883450771086, 31.336163529193374, 16.601645910349433, 25.175788060615844])",False
6571051480.915255,"array('h', [21.65200707074701, 14.002725596642916, 6.2473934239788695, 5.264895535329418, 6.606760643361879, 30.72774625924435, 16.631219124358598, 25.301340232082527])",False
6590957109.288136,"array('h', [20.711901511599187, 12.910513939362126, 6.271107793366156, 5.238967792342839, 6.577189545459158, 31.49594938137204, 17.141007825554723, 24.462338771030787])",False
6610862737.661016,"array('h', [19.443865622735707, 12.364748081932458, 5.987748414618587, 5.04242046264859, 6.976860079748768, 31.94255829994276, 17.327442217893143, 24.10863149409026])",False
6630768366.033898,"array('h', [18.33841031857534, 11.845311038617425, 5.500601162613105, 4.804620054671637, 6.714586485364125, 29.556283418678824, 17.813703839799633, 23.372450028830286])",False
6650673994.406779,"array('h', [18.636774146236938, 11.272514662071908, 5.435682954399621, 5.16711132770039, 6.609511121907602, 28.518520348730213, 19.30376031539056, 23.692975155307536])",False
6670579622.779661,"array('h', [18.570532184152476, 11.193558926587668, 5.322907001331971, 5.345758817100013, 7.12390709008238, 29.11008076402907, 20.660840191782658, 23.95483800377751])",False
6690485251.152542,"array('h', [17.57306797163481, 10.84261353133953, 5.064287312920889, 5.441932403093866, 8.640427252180148, 28.047507675425035, 20.762727570820047, 23.24056952714567])",False
6710390879.525424,"array('h', [16.43923460580296, 10.62127170707293, 4.940864246329717, 5.600291449937262, 11.191427023299234, 27.95885780669258, 21.30236784302043, 22.871280867483588])",False
6730296507.898305,"array('h', [14.650362576346623, 9.469348467401513, 4.675163721070136, 5.848297016696523, 13.135768536591007, 27.5383848104897, 20.704085049373152, 20.182296797217163])",False
6750202136.271187,"array('h', [13.875936937232419, 9.107572425041177, 4.4801952498296895, 6.213052000172127, 15.982929112198132, 29.159015293779888, 19.435760206947503, 18.537442693140786])",False
6770107764.644068,"array('h', [13.148454915296014, 8.375599946598934, 4.343158166733382, 6.4863758605605755, 18.643622164616577, 30.204920370190475, 19.33346160325337, 18.67242819746756])",False
6790013393.016949,"array('h', [11.527054332079537, 7.193326709894266, 4.361403996215743, 7.091302007627455, 20.959219664866975, 29.293896575699854, 19.93097043182443, 18.637784698742195])",False
6809919021.389831,"array('h', [11.58722151474114, 7.5010265007115375, 5.330134402503397, 8.428048743136145, 23.876765043661933, 29.414385614329284, 19.41035371134188, 18.70759562243814])",False
6829824649.762712,"array('h', [11.134174167847311, 8.043400390407337, 8.202130983428013, 9.166902199742307, 24.401403870322422, 27.6281734736531, 18.57683153856128, 17.618549074648868])",False
6849730278.135593,"array('h', [12.133989229506133, 9.253808661656779, 11.206958660887999, 9.75023849618216, 24.647422009478706, 26.290475797073153, 17.989977196023258, 18.383854243714342])",False
6869635906.508474,"array('h', [13.291564305212287, 11.405419342154795, 14.427987532693159, 10.506827319749526, 25.06370913517052, 26.293223892999027, 17.26566315061045, 17.637414765431423])",False
6889541534.881356,"array('h', [14.547983882768506, 13.389859378998988, 16.39942190569276, 10.772573907752585, 26.837005067671253, 26.468624228176765, 17.091233787367003, 19.771103386625036])",False
6909447163.254237,"array('h', [15.290771631903596, 15.43112071219932, 17.95980991289161, 11.157276183786953, 29.713372110089715, 24.61872840925559, 15.862878003951709, 20.434143966281077])",False
6929352791.627119,"array('h', [16.362477025775185, 17.981549260135413, 21.662115300325375, 11.986885149863092, 30.18494745112929, 24.728279235672765, 14.782624944739084, 20.003697542598186])",False
6949258420.0,"array('h', [18.28882793584549, 22.819212502179962, 27.636010227258005, 13.902831678720379, 29.068661436856136, 25.507855515725222, 14.987885076668757, 20.38907761894454])",False
6969164048.372881,"array('h', [19.33972384692342, 26.011074270436414, 31.375446378955036, 15.455741166465577, 29.433540654480005, 26.107288378056538, 14.717174819324969, 19.82810616908728])",False
6989069676.745763,"array('h', [20.984038275762263, 29.35434975157227, 32.70096532738826, 15.627336127805147, 30.76180469410193, 27.264452094047737, 14.85050790650955, 20.984495681741876])",False
7008975305.118644,"array('h', [22.62106136503006, 31.674414004226044, 36.114797821041996, 17.151726975484394, 30.718157059822303, 26.589647790827748, 14.87584415734103, 21.700830243876485])",False
7028880933.491526,"array('h', [24.641187599567424, 36.18161634682235, 40.42308921480464, 17.719192387484615, 29.403858431112372, 25.173082886352482, 15.685047418742863, 23.661665348290516])",False
7048786561.864407,"array('h', [26.87917191296884, 40.25828334298705, 43.810745555820816, 17.889349609803, 27.296018767761463, 25.03104604805471, 16.57991805459699, 25.97199711684739])",False
7068692190.237288,"array('h', [28.275174707518275, 44.371228209044176, 46.149380793983475, 18.217660837884672, 26.58896391882594, 25.615820588094763, 18.40533034112252, 25.542447137886352])",False
7088597818.610169,"array('h', [28.01688634542114, 46.835768735919636, 44.70949269178009, 18.07287683931175, 27.23656797164231, 25.91721297957734, 19.77802989915462, 26.612251047420767])",False
7108503446.983051,"array('h', [27.806034852468866, 45.775118266264016, 43.07621056184345, 18.131419298805106, 27.822187032838382, 26.709722594069998, 20.127505645545483, 27.1765577931777])",False
7128409075.355932,"array('h', [27.662371408428584, 44.980719888657156, 41.78195239380246, 18.742311233328305, 28.953968823427992, 28.49401312248606, 20.213758902473607, 28.041509500650452])",False
7148314703.728813,"array('h', [26.781375862700045, 46.89722548861852, 43.390078681588214, 19.505883191858874, 28.630598891487814, 29.862832207390618, 19.323705384096826, 26.269867603236516])",False
7168220332.101695,"array('h', [26.32434606740219, 49.107342108620394, 46.421993606237855, 20.416206149858496, 27.38678553353731, 29.35652537496804, 19.288039417651866, 26.59932146241164])",False
7188125960.474576,"array('h', [24.386029136060753, 47.60461585180978, 45.016849771552124, 19.627812267052466, 29.288420846258624, 30.300660026682642, 19.716130290135784, 26.91741672284958])",False
7208031588.847458,"array('h', [22.881610160905357, 46.19545897783732, 43.08361496344791, 18.526442359827296, 29.619747872166013, 30.261383690895155, 19.97839538365357, 27.99073384352573])",False
7227937217.220339,"array('h', [22.57250452562695, 46.402070268979855, 43.12110098213452, 18.934316453277102, 30.10328600653577, 29.41258461202236, 20.20166363059419, 28.603097026181395])",False
7247842845.593221,"array('h', [21.437278920870455, 46.47870145529383, 42.69207627163352, 17.65585312143897, 27.50874457610758, 27.695331578977026, 19.852953993993548, 28.20179878692501])",False
7267748473.966102,"array('h', [20.194971958335554, 46.404211400525476, 40.11718820355086, 16.667051863370304, 26.229288740333402, 26.643312721065524, 19.620868266931137, 27.184618859078295])",False
7287654102.338984,"array('h', [18.58820424007756, 43.06349130489666, 36.96393801832262, 16.774883278342138, 28.288277255327476, 27.25261696408653, 19.719949164870588, 23.960766222130303])",False
7307559730.711864,"array('h', [17.634393472242316, 42.52828701476594, 35.4186358149275, 15.611986727492928, 30.44699921556097, 28.276681497138583, 19.928744472126798, 23.709971214128522])",False
7327465359.084745,"array('h', [18.461115253577624, 41.126554007724195, 34.38832195110406, 14.893631658189092, 31.491498257567017, 27.822698272316007, 18.60137058165133, 24.653945721297625])",False
7347370987.457627,"array('h', [18.951649938673242, 43.60436832372251, 35.929084770526785, 16.05754347714719, 33.73071065317527, 28.435439772422612, 17.88872955154598, 24.223278573754563])",False
7367276615.830508,"array('h', [18.140977487313155, 47.02765742550284, 37.89457725971441, 17.022794435851047, 34.73831520166219, 28.12978619345402, 18.116037637897264, 24.004167748011042])",False
7387182244.20339,"array('h', [18.121635433745805, 46.515971146190516, 38.82033331682774, 16.699400664427856, 33.37306163149206, 26.649288847349624, 18.334881922038818, 23.58565349437352])",False
7407087872.576271,"array('h', [17.953260311959514, 44.495751233508216, 36.564012867263834, 16.19578419207976, 33.78281523168175, 26.285107557888644, 19.24579139234384, 24.808645744989267])",False
7426993500.949153,"array('h', [17.481431373561396, 43.974520944366716, 34.97307839501622, 15.954676548764326, 32.727364784885225, 25.372792504421678, 19.65541593653057, 24.91914222402374])",False
7446899129.322034,"array('h', [18.366052449611782, 45.99891616365003, 35.22157576036317, 16.876406367084606, 31.211663500229626, 24.551799891456678, 19.44157739455509, 24.372567039763776])",False
7466804757.694916,"array('h', [18.8499545607219, 44.10078329159189, 34.47726801659456, 16.262991356629524, 30.832761689975683, 25.363974345374768, 20.304678211261642, 23.209573492487092])",False
7486710386.067797,"array('h', [18.39929790800075, 41.430631659559545, 34.495505671818236, 16.50682592721379, 30.491873191777753, 25.458267723105916, 20.76518303953193, 22.53557360176027])",False
7506616014.440678,"array('h', [19.079359847981337, 40.20670292111173, 35.27984440320866, 17.373913726859936, 31.46003281883651, 26.503297818605436, 20.93842416846303, 23.277488315778573])",False
7526521642.81356,"array('h', [20.495259807021586, 39.67971833094881, 37.012020475828976, 17.398594832743836, 30.24928796360362, 26.32242010537889, 20.8640769186784, 24.942949777710687])",False
7546427271.18644,"array('h', [21.05695758479868, 39.90928305770814, 38.43015476353415, 17.495006201599043, 28.749057387906927, 25.625682304340362, 20.1089723687244, 25.875616835505472])",False
7566332899.559322,"array('h', [19.90865781483427, 38.643843796243274, 38.97878329556968, 19.84467462395281, 27.880716492978845, 25.870151001467075, 20.452744320529355, 26.349847420870088])",False
7586238527.932203,"array('h', [19.430600745226258, 37.21808975427757, 38.671979569042975, 19.724253680143732, 27.133228370866615, 26.209088018534466, 21.666974964298138, 26.025144276667703])",False
7606144156.305084,"array('h', [19.04424220559649, 32.69426580349547, 36.54256395207371, 18.76200617278637, 25.77689919154558, 24.914921206112567, 22.213605681270508, 25.121978675690844])",False
7626049784.677966,"array('h', [19.865647431209684, 33.03835977218329, 37.27467271154672, 19.09733146052251, 26.807060434760118, 24.987726011086863, 22.621737710244087, 24.15516684482489])",False
7645955413.050848,"array('h', [20.837424760371455, 33.37969542612093, 38.317376373266065, 18.723841549041122, 27.651560339168952, 25.697480074492745, 23.111107688015977, 24.585157543794903])",False
7665861041.423729,"array('h', [20.93425430494378, 32.97286128922278, 37.550342946671364, 18.335647981861904, 27.466025427950683, 26.303067383099744, 21.525518795530544, 22.190362685909683])",False
7685766669.79661,"array('h', [21.79325992160152, 30.109326305761574, 35.19211953683291, 18.23113971083575, 29.091584869620597, 25.990568172589356, 21.389030276288754, 22.069343118022474])",False
7705672298.169492,"array('h', [21.018364642452894, 27.828803763262698, 33.75160998607962, 19.03107592508767, 32.861885559539814, 27.272164422834564, 21.769067373313437, 21.500718687525712])",False
7725577926.542373,"array('h', [21.29995928995344, 29.70350356430092, 34.2947614746336, 19.023943867247965, 32.61526014262071, 27.556396635186662, 20.203876668430617, 21.816567496028668])",False
7745483554.915255,"array('h', [21.92250870374707, 29.908836326918447, 33.129505641580906, 18.350872812654536, 31.59459889561074, 26.591341727051137, 22.007035115752007, 23.133480727078304])",False
7765389183.288136,"array('h', [22.196999189468524, 30.090226391658813, 31.471575640147794, 18.735112961730643, 33.06428298946172, 27.853956161567684, 23.16766424978469, 23.32864913089896])",False
7785294811.661016,"array('h', [20.876734224532886, 28.941230514399567, 29.520654883432826, 19.294300582699893, 33.515916735385154, 28.471278940332454, 23.26899311730619, 22.411879507927367])",False
7805200440.033898,"array('h', [20.6155712628261, 27.908265678641445, 27.616648323657323, 18.37864523578696, 32.681573786099015, 26.761866359747717, 23.211943785528316, 21.916305091871244])",False
7825106068.40678,"array('h', [21.318026631114808, 27.191335822493137, 25.6224540754532, 16.49498648183678, 33.32561275670556, 27.262830474995294, 22.944108385169013, 21.971604031077913])",False
7845011696.779661,"array('h', [21.651278960797033, 26.926919179610874, 25.65020950222789, 17.21280504555654, 32.22918343379695, 26.712524285346515, 22.160903180684784, 21.630237990993386])",False
7864917325.152542,"array('h', [22.375642964530773, 26.433093436154557, 24.11617091775674, 16.055105284954646, 30.659753077609828, 26.292656764980325, 21.501567752657568, 22.746315319219505])",False
7884822953.525424,"array('h', [22.610875416767115, 25.96643947095447, 21.07673523296733, 16.097128908778792, 30.184248245284696, 25.716009388753143, 20.746557029738117, 22.24297423125802])",False
7904728581.898305,"array('h', [21.950956612015574, 24.068234702624853, 18.996280325639546, 16.255885045723005, 29.501099262039755, 24.942019153306575, 20.45199167290404, 21.583970487698803])",False
7924634210.271187,"array('h', [22.04243639423003, 23.31403894503172, 18.177031469253677, 16.162767299330394, 28.55622109634258, 24.054603957046773, 20.720499446218287, 21.239839046408377])",False
7944539838.644068,"array('h', [22.04468168020574, 24.367530594232974, 17.879940617468623, 15.169696344090116, 25.901791060765945, 23.239967887834716, 19.20318785685323, 20.104560320555258])",False
7964445467.016949,"array('h', [21.98516863620243, 23.826333945080343, 16.801882991523367, 13.807602994493552, 21.95462117837984, 20.076177949474484, 18.102964144506284, 20.688528105358117])",False
7984351095.389831,"array('h', [21.179146571013593, 21.993469226637718, 15.723992879659637, 14.263431013761034, 23.293091712987525, 21.051259470144963, 18.58555036587957, 19.767730032045268])",False
8004256723.762712,"array('h', [21.189209514200506, 20.918208009763408, 14.856726182685057, 14.4011825759544, 23.084577005290697, 21.033065820948703, 16.397232925783058, 17.68273514382418])",False
8024162352.135593,"array('h', [22.356734591722265, 20.635084530078355, 14.371193429759353, 13.544483338482992, 21.68846354758728, 19.109125863325914, 15.7016240705024, 16.560001042687258])",False
8044067980.508474,"array('h', [22.31645781724302, 20.376694871116094, 13.639122828639087, 12.562790700263117, 21.508083878092204, 19.005322549401143, 15.184632233872565, 16.81873956427206])",False
8063973608.881356,"array('h', [22.395109336864508, 19.41390630480258, 12.45958112733149, 12.481084653868853, 21.074671872394134, 18.43541482740905, 15.796732915187723, 15.488748363169535])",False
8083879237.254237,"array('h', [22.33978244822352, 19.8882317627519, 11.845115561361634, 12.56666352650875, 20.881892033695188, 18.213716438083797, 16.084532616894066, 15.076686365999016])",False
8103784865.627119,"array('h', [23.27256779629641, 22.126426935777513, 11.321159039333374, 12.505967902468115, 20.83006835007676, 17.905058457500242, 16.642197535271364, 15.223302113286673])",False
8123690494.0,"array('h', [24.185293437873383, 20.968926673154378, 10.854604262757443, 12.380008618905178, 20.174933786055863, 17.916710778842987, 17.37240341671327, 16.01485379873832])",False
8143596122.372881,"array('h', [23.84679350795129, 19.544811078441327, 9.973202411549106, 12.346827849852177, 19.267764927279735, 16.35423888409094, 17.36882156835018, 15.195058749269045])",False
8163501750.745763,"array('h', [25.698640531967094, 19.441913931629152, 9.778252085957199, 12.996074896720717, 19.454435272011484, 16.14502427346915, 18.10428874952996, 15.363140136761094])",False
8183407379.118645,"array('h', [27.596436746818387, 19.524795262268963, 9.182164319239742, 12.602305204133588, 19.261187355455792, 17.80849884605364, 18.24239797991731, 16.2751580942808])",False
8203313007.491526,"array('h', [32.180019987148185, 20.11775428204709, 8.778167448030585, 12.73650178094432, 19.56999852723091, 18.737780224422945, 19.938291880711727, 19.453332253042937])",False
8223218635.864407,"array('h', [34.30630459802248, 20.428978835661358, 7.560853601035956, 12.413745034673916, 18.465714307610234, 18.304409149114452, 20.22528401959638, 20.751667111869196])",False
8243124264.237287,"array('h', [35.973271906015725, 21.555031966579477, 8.073994478765307, 12.250921586085866, 15.933792226693088, 15.75652330470562, 19.298974205653213, 21.95205514205469])",False
8263029892.610169,"array('h', [36.397342719681326, 21.6538134038871, 8.339874927551643, 11.245979122041067, 15.328202160284967, 15.658320655482678, 20.36365302136969, 25.493547116578466])",False
8282935520.983051,"array('h', [35.35321722625109, 21.360768179637507, 8.057567130809684, 10.876949029429479, 14.211739883413152, 14.84306060876828, 19.324558045710695, 25.172401949498045])",False
8302841149.355932,"array('h', [36.00303914419534, 21.21267908826134, 8.084399213871484, 10.85241460584932, 13.36414866006545, 14.32849231219393, 18.67119239745668, 24.84318481586956])",False
8322746777.728813,"array('h', [34.91413665948149, 20.27076786055566, 8.063499243663168, 10.648308864468516, 11.46258671502527, 12.487092588293875, 16.688602040572093, 24.718184220143858])",False
8342652406.101695,"array('h', [33.86969911775934, 17.786347045242515, 7.645053886013671, 9.985932145347896, 10.46416050040815, 11.130141691391204, 15.66117559380722, 24.6492688358208])",False
8362558034.474577,"array('h', [31.43019129163952, 16.207695559218234, 7.085508173350375, 8.994908100341648, 9.575673405284014, 10.278392603728728, 14.407343670228677, 23.19682358442359])",False
8382463662.847458,"array('h', [29.292748423279164, 15.257548826199857, 6.514744256031494, 8.325861156973717, 8.63417957339722, 9.55290869704581, 13.457632387180775, 22.02927390467778])",False
8402369291.220339,"array('h', [28.097659446066345, 15.485090318591647, 6.401380994208109, 6.840861362456985, 7.013115067263723, 9.207982744002551, 12.085325614673557, 21.687242277723982])",False
8422274919.59322,"array('h', [25.419850086407724, 14.938529704681127, 6.256190036523655, 6.228085041798377, 6.366915249984778, 7.704263276477242, 10.960868239952212, 20.68031476966757])",False
8442180547.966102,"array('h', [20.94412418920409, 12.525134733573468, 6.143649393256757, 5.819666726839633, 5.093676758600136, 5.56526036705112, 10.012606296114521, 18.759168254355036])",False
8462086176.338984,"array('h', [16.276493376952278, 10.860393026630744, 6.460668593310095, 5.313854397561888, 4.218098434265982, 4.457948419640659, 8.27138895294718, 14.988071455639298])",False
8481991804.711864,"array('h', [14.243121844737145, 10.91030301401458, 8.082326558375238, 5.307110869447797, 3.730332254322012, 4.058513666865128, 7.962391411501907, 14.176071754660944])",False
8501897433.084745,"array('h', [11.085807642341047, 9.323407520955406, 8.065024914870467, 4.895173316278723, 3.2082422803493085, 3.501183244714049, 7.2459538227409075, 10.844751950640156])",False
8521803061.457627,"array('h', [9.092283367479228, 9.789954162727147, 9.113281733442838, 5.168211939411896, 2.8811686282528237, 3.088976593493624, 6.730054530555302, 8.446075300723727])",False
8541708689.830509,"array('h', [8.959443912975557, 10.727617277213728, 10.340674963201531, 5.353070892479949, 2.9511229147228875, 3.3141053759434747, 7.567655051256654, 8.185153831626563])",False
8561614318.20339,"array('h', [7.632317807219599, 10.520212022637942, 11.171156721701518, 5.529113723604385, 2.7260848722010187, 3.10599792142421, 7.150797422142005, 7.251960990183984])",False
8581519946.576271,"array('h', [7.257436147221199, 11.38912815032501, 11.683086597787192, 5.6471720475758875, 2.772105652754291, 3.2888479100308006, 6.9619836476460755, 6.753437615399561])",False
8601425574.949152,"array('h', [6.787515175391347, 12.44869087477368, 13.938511642048175, 6.668557183924131, 2.9633403268602856, 3.2681218726255343, 6.715435836792711, 6.091608969376605])",False
8621331203.322033,"array('h', [7.367966454208208, 13.45861743439181, 14.917958847833551, 7.143202378463212, 3.123715626674396, 3.4457830957725424, 6.881915809653433, 5.886385094378487])",False
8641236831.694916,"array('h', [7.376807140924308, 14.841294384407197, 16.808818712879248, 8.183878214284071, 3.2287180217605513, 3.234942595687533, 6.889182132298911, 5.555728248795649])",False
8661142460.067797,"array('h', [7.229991656936061, 16.026528234755197, 18.452905425629922, 9.066076608503941, 3.4272043583842744, 3.522477501101344, 7.361969134068735, 5.516701262556192])",False
8681048088.440678,"array('h', [7.950505795794748, 17.921389485398077, 20.149803324276657, 10.06545196418249, 3.7206977763153377, 3.619323141458834, 7.527852479378571, 5.429674111923966])",False
8700953716.81356,"array('h', [7.701064702258106, 19.469935248026918, 22.09126418162516, 11.50149099630955, 4.280938909325854, 4.268922726773912, 7.6200542831893205, 5.4157632964030435])",False
8720859345.186441,"array('h', [7.65893339875133, 18.786989787696015, 21.09774781491939, 11.450504717080294, 4.176439873719493, 4.777794215200117, 7.554318779020078, 5.314919211732858])",False
8740764973.559322,"array('h', [7.58149380777525, 19.76086112743815, 20.47342418380305, 11.165964510790067, 4.239850047894937, 4.814021768790433, 7.297536641833053, 4.969851540760126])",False
8760670601.932203,"array('h', [7.561693645471727, 20.631198313512385, 20.150367355246185, 11.172182999287879, 4.141606200517098, 4.612612676715548, 6.625353797337383, 4.49058764545908])",False
8780576230.305084,"array('h', [7.5168794272009904, 20.186601601896555, 18.993509155505496, 10.919924993304775, 4.246291419529755, 4.424381967053036, 6.013847417477949, 4.105390785898252])",False
8800481858.677967,"array('h', [7.327414490629569, 20.134553545645062, 18.338698869655204, 10.870254745428701, 4.069572029557189, 4.225584509019067, 5.383098607215348, 3.8911112128153436])",False
8820387487.050848,"array('h', [7.408572408420709, 20.393211922074105, 18.428397492444233, 10.810352974529673, 4.12754322946207, 4.1984774982320205, 5.3387275234803315, 3.778241107749021])",False
8840293115.423729,"array('h', [7.102528206136951, 19.486410645664613, 17.458981460182866, 10.282249115227403, 4.029709250105206, 4.141065979296591, 5.428711655680888, 3.75151571675799])",False
8860198743.79661,"array('h', [6.49815839496105, 18.58917586075111, 15.947606884302928, 9.75347298202356, 3.953460752490596, 4.034224973653816, 5.067197518164276, 3.5242000342237194])",False
8880104372.16949,"array('h', [5.6850301763474445, 17.621828831553056, 15.429453630301195, 9.293805969163278, 3.7074628728877133, 3.831938513393877, 4.663084919720488, 3.483195704916235])",False
8900010000.542374,"array('h', [5.485502576251994, 16.065027387814265, 13.580110127830379, 8.092157413995544, 3.35665643905705, 4.0287596336476845, 4.448096315934464, 3.3620235955386253])",False
8919915628.915255,"array('h', [4.5887216042923065, 15.04740928819863, 12.611243490830088, 7.354650345487604, 2.9554561818085814, 3.891375681833075, 3.9929713777107287, 3.1247651801525373])",False
8939821257.288136,"array('h', [4.065332999348485, 14.250445942747037, 10.635586481170987, 5.819632050756468, 2.4251240387937423, 3.719247551539719, 3.5988605748713893, 3.075042301893199])",False
8959726885.661016,"array('h', [3.992031408917887, 14.512673828162201, 9.610221880567819, 4.969440533067123, 2.0752480731083347, 2.7617596105825046, 2.913349544414274, 2.6334158179881726])",False
8979632514.033897,"array('h', [3.76921234767615, 13.892519090917952, 9.39103479366002, 4.908458388608811, 2.0201693942780996, 2.362613958434283, 2.6113702892809774, 2.2970882110206077])",False
8999538142.40678,"array('h', [3.6420847304978836, 12.854414307919782, 8.766952058306344, 4.749849440013009, 1.9587082874262243, 2.195758012194306, 2.2486170476749616, 2.075485161695427])",False
9019443770.77966,"array('h', [3.297757963390334, 11.743140651606918, 8.204861881955097, 4.587767783646518, 1.9582880192918912, 2.114436838762331, 2.3072198888369972, 2.0846218730667663])",False
9039349399.152542,"array('h', [3.1176477534577383, 10.959656881074794, 8.249010963288853, 4.732146983592851, 1.9609522525474532, 2.0951968391317544, 2.1775227475400785, 1.9919179153902165])",False
9059255027.525423,"array('h', [2.8302041580647312, 10.164667433184814, 7.530167781610723, 4.283137257958305, 1.9618380791788412, 1.9966150085698335, 2.0882745788349633, 1.9415706765676122])",False
9079160655.898306,"array('h', [2.5004822930679373, 9.53499532425706, 7.202056911608223, 4.317649183425562, 1.831894949598423, 1.8220545655889062, 1.8368106878361214, 1.8288961178706173])",False
9099066284.271189,"array('h', [2.4190356393133507, 9.358539885339953, 6.682872773629161, 3.9942068227460363, 1.7442986517138157, 1.7659186047892865, 1.7710351600937615, 1.8271203500526274])",False
9118971912.644068,"array('h', [2.275747117544198, 8.458234152896821, 6.282409021398913, 3.770677265374385, 1.630579333608842, 1.7202756011690805, 1.5924294183991756, 1.7577430293541716])",False
9138877541.016949,"array('h', [2.1372669145881864, 8.023027987996826, 5.721357628437864, 3.597803997140793, 1.6325909004533903, 1.5774040019496625, 1.241992931045621, 1.5511537961803108])",False
9158783169.389832,"array('h', [2.1216745695391572, 7.435274563323895, 5.3822583822536485, 3.538829359011983, 1.5661432198612426, 1.2064516925433837, 1.0196593377457897, 1.5161579660139766])",False
9178688797.762712,"array('h', [1.7356674415551345, 6.525554145092742, 4.978214767634555, 3.5541074055762736, 1.7032022506799258, 1.1824661117515867, 1.0003623616745052, 1.38764455790723])",False
9198594426.135592,"array('h', [1.6553024046519154, 4.894728599641959, 4.300176405073809, 3.322160377202329, 1.6006441141485401, 1.2234017571603446, 0.9865716727857202, 1.2440595959294658])",False
9218500054.508474,"array('h', [1.4669588596376273, 4.159457436955635, 3.9628561676827916, 3.275290857029074, 1.6951916855214868, 1.3702764436521804, 1.0300863146795727, 1.2064572485410616])",False
9238405682.881355,"array('h', [1.4405332924923284, 3.6131063901415863, 3.7411302435109572, 3.194781103390765, 1.6092360272650303, 1.3075170622101189, 1.0310427057833238, 1.194516988839059])",False
9258311311.254238,"array('h', [1.2895504668135291, 3.320372460118148, 3.7188777951876713, 3.1250135597122797, 1.7158007336022034, 1.445179740116222, 1.0917195589177233, 1.2659773290120477])",False
9278216939.62712,"array('h', [1.2442878418782592, 2.7927390824104155, 3.5183830227492487, 3.0067348928717124, 1.6272351153969289, 1.4394744520833196, 1.0219963352466561, 1.2896057031328816])",False
9298122568.0,"array('h', [1.1256253488619172, 2.5929149355973444, 3.1961765412459804, 2.84223748545411, 1.709882134165294, 1.6636182926600513, 1.090323921236102, 1.4027625822257055])",False
9298122569.0,"array('h', [0.4554099871105841, 0.7466497430646402, 1.6373747249046426, 1.8085390637050314, 1.5441794463148508, 0.895957562813124, 0.5013404245262829, 0.997784140740414])",False
9318179157.011627,"array('h', [0.6943235854914143, 1.2571443720666615, 2.1113089520629114, 2.739313541302858, 1.0102250626772022, 0.5685557649303543, 0.6845214817038947, 1.0904730932724451])",False
9338235745.023256,"array('h', [0.8071596403609381, 1.196843470565463, 1.6771978362143827, 2.2597296073077273, 0.9054112414851488, 0.7168022766110695, 0.9327654170304206, 0.8798606989670423])",False
9358292333.034883,"array('h', [1.1965067622427097, 1.2250297901987832, 1.6209649379691695, 2.422195484732316, 0.8834610389916017, 0.6770258229351702, 0.9958033471377281, 1.0230417217535435])",False
9378348921.04651,"array('h', [1.0070299142713681, 1.4801123117737194, 1.5128292949355393, 2.287991556679831, 0.8558489957590464, 0.7968373767767908, 1.030915772324558, 1.1613354628772181])",False
9398405509.05814,"array('h', [1.1613844975316245, 1.6109924421677209, 2.4121620330399396, 3.096070966087537, 1.0202041923080152, 0.7506390825986196, 1.0060153479628562, 1.1495779517533866])",False
9418462097.069769,"array('h', [1.0856072073428777, 1.7927494389444967, 3.1196184938229385, 3.396473386756243, 1.2651014285019129, 0.9640771748239022, 0.888969632684785, 1.1331819942319408])",False
9438518685.081396,"array('h', [1.1359113491389712, 1.8367646419477786, 3.382469282791702, 3.381413750035185, 1.2924540022442152, 1.4397418784971923, 0.9667853363051054, 1.2024374500347317])",False
9458575273.093023,"array('h', [1.1973571480028085, 2.171439390550263, 3.7296304291447004, 3.3154514414552687, 1.3266813148748557, 1.8660387773874458, 1.4066490387998107, 1.3831326438112543])",False
9478631861.10465,"array('h', [1.5644618664435055, 2.311572112877042, 4.158602362325709, 3.3159129724391545, 1.3254437050200794, 1.8007354468872971, 1.8068863665903703, 2.0272260888135243])",False
9498688449.11628,"array('h', [1.590482592933491, 2.2102383089056516, 4.394643144949377, 3.374784519890367, 1.5098684277126393, 1.9697305455362422, 2.1915626454887804, 3.4849010170908117])",False
9518745037.127909,"array('h', [2.0064371155752108, 2.906027088848651, 5.128503504129935, 3.7947924808559548, 1.62183283909105, 2.0210587271436475, 2.4105699574160897, 4.426842343399932])",False
9538801625.139534,"array('h', [2.0367084929169517, 3.793749060203395, 6.114887606890077, 4.3111776350430295, 1.7771659406923874, 2.24585396894306, 2.456490262832021, 4.655085264911913])",False
9558858213.151163,"array('h', [2.5028246424626195, 4.466505343480635, 6.869708171396314, 4.512619216400308, 1.9574481032869906, 2.249030587435444, 2.7137633237663876, 4.880942792065484])",False
9578914801.16279,"array('h', [2.4909703929793157, 4.8930741158520705, 7.470158026141891, 4.640655585864006, 2.067595120621695, 2.407534396101104, 2.8502092462390456, 5.089965530704928])",False
9598971389.17442,"array('h', [2.8089340483260763, 5.075130605898065, 7.934156958860095, 4.847356198442553, 2.1259892075639524, 2.5080447081768664, 2.9745158180484284, 5.312844213155768])",False
9619027977.186049,"array('h', [2.6577079007647213, 5.389588843011836, 8.648702520791925, 4.973042397908784, 2.2009604585233964, 2.706236117848615, 3.0876739636567394, 5.4306172018787775])",False
9639084565.197674,"array('h', [2.8756876404572744, 5.712155557618571, 8.805422123668713, 4.82116190859041, 2.282184248485933, 2.725688319830849, 3.2538090760642255, 5.71795200040545])",False
9659141153.209305,"array('h', [2.7435708924324804, 6.118499283917055, 8.648460019367603, 4.441967274361885, 2.1727718867599797, 2.890512513238527, 3.433939490433526, 5.984856331901977])",False
9679197741.22093,"array('h', [3.1829646021913667, 6.8578191189793385, 9.006383743655167, 4.406302460360311, 2.1912675450839973, 2.751832729731911, 3.8313331535853132, 6.6849217441393405])",False
9699254329.232555,"array('h', [3.4601594099321624, 6.924021570331742, 9.130275112111118, 4.2925813243677595, 2.172741182640286, 2.4479770761805364, 3.798238001520974, 7.190010070938451])",False
9719310917.244186,"array('h', [5.063502833362635, 7.236982365158135, 8.785872202379352, 4.257468513385828, 2.198850155388515, 2.3330931615451487, 3.743681299255267, 7.912019116546406])",False
9739367505.255814,"array('h', [6.651586062252739, 8.19930555789835, 8.635053820289567, 4.145281412397241, 2.1769935310351354, 2.539919724812263, 3.742347632559486, 7.929401249965685])",False
9759424093.267445,"array('h', [8.204600184607326, 8.322541675263663, 8.225047511487416, 3.874151982749372, 2.02455829723561, 2.678467407457515, 3.5823078002227304, 7.403319209179636])",False
9779480681.27907,"array('h', [10.018846914979317, 7.958753097765071, 7.2277970577012605, 3.2706187296057148, 2.0040678515101207, 3.1237076652691833, 3.555095549724137, 7.7657787262773805])",False
9799537269.290695,"array('h', [10.43068112865364, 7.513110297899052, 6.474675382466652, 2.9242327815911464, 2.1250091794343047, 4.742082346793819, 3.959952511500504, 7.834401796961859])",False
9819593857.302326,"array('h', [11.558476508756318, 7.682470054297489, 5.966272652231348, 2.797806677849898, 2.117452767707739, 6.025128881609831, 4.610266622582056, 8.081166311529277])",False
9839650445.313951,"array('h', [12.812905481698412, 8.288887569116815, 5.740229286510312, 2.7320695185089794, 2.2824636212596894, 7.326916922110265, 5.990209298856649, 10.290188974625618])",False
9859707033.32558,"array('h', [14.449810072152761, 8.813085579528158, 5.39267988747261, 2.6688384272871857, 2.4918612682390733, 11.068227221726294, 7.426271201265556, 12.715565948530559])",False
9879763621.33721,"array('h', [17.165945739639294, 9.69037092746662, 5.486221371253526, 2.9517299308056346, 2.808324607278842, 14.176133265330607, 9.608912592761346, 14.100784412655734])",False
9899820209.348837,"array('h', [18.35991828306822, 9.683590154914974, 5.379155110150915, 2.9625767490755988, 3.283586085941628, 17.331353857439662, 11.945202635609645, 16.02367771249797])",False
9919876797.360466,"array('h', [20.259993531158656, 9.61292181574791, 5.233043927156234, 3.1734901249671186, 3.6325839676626677, 19.854712660491792, 14.440611538089893, 18.381942194788405])",False
9939933385.372091,"array('h', [21.547693042188765, 9.928800161028885, 5.146035631247076, 3.423544690668993, 4.075860131355083, 22.124893834965647, 15.577354056967593, 19.345905234508717])",False
9959989973.38372,"array('h', [22.810989374742633, 10.842882597975496, 5.381287940178078, 3.7927532937233823, 4.813750981150198, 25.063998744979017, 16.91583396424957, 20.6114980713924])",False
9980046561.39535,"array('h', [22.071175321797377, 10.722305508650404, 5.746370839941142, 3.9312052560573876, 5.020937525085505, 27.11448231930394, 17.136914559649533, 20.444354933445858])",False
10000103149.406977,"array('h', [21.78166689610071, 10.709114500895518, 5.8297222591181255, 4.017741164900733, 5.3985165028463395, 29.685662340274206, 17.504953711310073, 21.474935588211682])",False
10020159737.418604,"array('h', [20.37830824087548, 11.287592957181204, 6.138276408107362, 4.238049653930065, 5.8111704895079335, 31.91399600883834, 18.11817496068784, 23.012217533174123])",False
10040216325.430231,"array('h', [19.822776281691954, 11.472654684705708, 6.18754266995621, 4.526762827501455, 5.972846549383466, 33.048006269057566, 19.23240692347098, 24.763514322584314])",False
10060272913.44186,"array('h', [20.76279428227401, 12.150082120795357, 6.546571717824245, 4.95166751289286, 6.259585188299381, 32.4337046462838, 19.783492565732384, 27.278667174154585])",False
10080329501.45349,"array('h', [21.006597557572768, 11.97336727348721, 6.735633013151454, 5.22431697519298, 6.979966040785234, 33.76648836169818, 20.855552565391665, 28.755443026156943])",False
10100386089.465117,"array('h', [21.209548274640664, 11.972884516395213, 6.848588164595051, 5.181006645023114, 7.109763919992418, 33.815197092827766, 20.592907326942896, 28.12110344580667])",False
10120442677.476744,"array('h', [19.903498476924728, 11.898942067986377, 6.663762586682613, 4.994269759877574, 7.29831533181491, 33.8007200934579, 20.64289863302713, 28.803333108301192])",False
10140499265.488373,"array('h', [19.091029229288285, 11.716023627119023, 6.485169888468405, 4.884435008527512, 7.230297348329668, 33.839767058313775, 20.509781932745753, 28.726920660452492])",False
10160555853.5,"array('h', [18.501853763773397, 12.052544136482306, 6.514611301115105, 4.817765124807511, 7.307983292600174, 31.87718653039795, 18.6773073510819, 27.177940677570167])",False
10180612441.511627,"array('h', [17.134448026343374, 11.894308649095601, 6.0614761493595815, 4.424872982397331, 7.928548963023278, 32.222282585114236, 17.19028233495971, 26.770753949852313])",False
10200669029.523256,"array('h', [17.00600063360154, 11.722929255179261, 5.815021613949202, 4.682998007819545, 8.975227608560271, 30.671872116455894, 16.902388723039962, 26.095338360708965])",False
10220725617.534883,"array('h', [15.996336400950158, 10.792731103440468, 5.435623466893952, 4.712515128477159, 10.48161925661653, 29.178460962482806, 17.59088533733954, 26.672338053969828])",False
10240782205.546513,"array('h', [15.967684379446993, 10.614484505297675, 5.237637081911677, 5.513173066624367, 12.915903517108818, 29.29854804610715, 18.33898280047024, 26.026023375300788])",False
10260838793.55814,"array('h', [15.080375790411043, 9.91291176001598, 5.067275766008991, 6.274698204272302, 14.563049630934788, 29.390066424728136, 19.784999165889566, 24.560560981242705])",False
10280895381.569769,"array('h', [15.66285130901384, 9.307582280308246, 4.669283218561974, 6.353665184557202, 15.994501288517732, 29.23379104043784, 20.301712241359887, 23.31608008309119])",False
10300951969.581396,"array('h', [14.87007655788861, 9.006458095790512, 4.333455348979125, 6.574224396669602, 18.146698242496914, 30.14586210398078, 19.656120164643845, 21.4876249278316])",False
10321008557.593023,"array('h', [13.428746911229924, 8.174691651257124, 3.9088205047568305, 6.659692411669269, 19.601271371972103, 31.020000639335265, 18.292697098614717, 20.03014310369674])",False
10341065145.60465,"array('h', [12.350739300184255, 7.850507987952642, 3.7466766120407877, 7.00597055389121, 22.24015210317481, 31.268666289635807, 17.310921893992166, 18.195165542114946])",False
10361121733.61628,"array('h', [12.20056815126728, 7.519359260913148, 4.672304472661823, 7.437462609710267, 26.04739675955326, 31.744968223741335, 17.329606060886697, 16.91607944359527])",False
10381178321.627909,"array('h', [12.782725351317117, 6.7089658999870485, 7.210517066854574, 8.195639067498027, 29.16485947872862, 29.988651299705097, 15.733722945375362, 16.296720017121363])",False
10401234909.639534,"array('h', [13.300836354172327, 8.35569997629544, 10.396581990149365, 9.107612830078496, 30.035580914067708, 28.911498012266794, 14.897949782946652, 17.779620480108203])",False
10421291497.651163,"array('h', [15.08545091812412, 12.846087230905631, 13.90170250671385, 11.381275246148613, 32.873477304529196, 30.096950828756377, 15.085134877798946, 17.991194644465725])",False
10441348085.66279,"array('h', [15.951019621178592, 16.93460654314704, 18.350938682657098, 12.844607464624985, 33.19139850438125, 28.893558475349323, 15.386602552235125, 19.893782647627766])",False
10461404673.67442,"array('h', [16.030996792414147, 21.74950081652567, 25.22296641396563, 13.634894780957275, 34.04731958228138, 30.870821669369153, 15.055441482408352, 21.11358002419128])",False
10481461261.686049,"array('h', [16.46347900071719, 26.671494084358827, 30.38353433423355, 14.290786386418608, 34.17887408652966, 31.204344022245195, 15.98999622794531, 22.294912646434447])",False
10501517849.697674,"array('h', [17.815110171718104, 32.77074371830492, 36.186089520674955, 15.092862707243249, 33.919586563052654, 29.34805172747871, 15.240457684458953, 24.312753763797616])",False
10521574437.709305,"array('h', [17.862689773228603, 37.638444292553, 41.068816055544715, 16.4845679495857, 35.575299508533135, 28.9052130812922, 14.620969915111107, 26.025602661894133])",False
10541631025.72093,"array('h', [17.989903203860862, 43.05633343189643, 47.415455296191006, 17.485797039674786, 35.17436630825967, 27.60958106340853, 13.919462802375266, 26.223543815664577])",False
10561687613.73256,"array('h', [20.489900176286522, 46.019218287172045, 52.10230202517826, 18.651130330613473, 35.33822116879007, 27.31058832804302, 14.504812580170082, 26.693494451211755])",False
10581744201.744186,"array('h', [22.42059661673782, 49.82972380557053, 55.512186857422016, 19.038977651477808, 34.32314485699779, 26.747662846793475, 15.110667515702886, 27.13336622722719])",False
10601800789.755814,"array('h', [23.6651791287145, 54.05684804444716, 59.24083943063417, 19.87847447628795, 31.647099305906842, 25.189375315798735, 15.271120455257496, 27.016142263092586])",False
10621857377.767445,"array('h', [26.479462167019125, 57.152623842614446, 59.68274627012585, 21.132351339723474, 29.483955130133563, 23.715541231955044, 15.503651042394997, 27.623348398231073])",False
10641913965.77907,"array('h', [26.766752123068542, 59.47028332930895, 59.62521258863409, 21.165923368507173, 30.744683650301607, 24.61904247179433, 16.38875293793896, 27.779606023851326])",False
10661970553.790695,"array('h', [25.41497365774219, 56.81868175635214, 57.01487236019119, 20.064150480082866, 30.842868307803343, 23.129112221986976, 16.99874170350221, 27.300291510032338])",False
10682027141.802326,"array('h', [25.18105863380291, 54.072129002098926, 54.74106605779396, 19.52993172957151, 30.72342660131567, 22.969059080118697, 17.606092430478444, 27.303063202455956])",False
10702083729.813951,"array('h', [24.897027617205318, 52.15554570147586, 50.36248431000523, 20.05744459834519, 33.289532617361594, 25.477936922865258, 19.00299920804134, 27.91873893783871])",False
10722140317.82558,"array('h', [24.58714124260381, 50.77422213385635, 46.656284654570136, 20.426807363227883, 32.87376623544809, 23.623069207167603, 18.711681994608597, 27.186299393448973])",False
10742196905.83721,"array('h', [23.8571800165822, 47.249429304723385, 44.26010779227501, 20.79130717468666, 34.17256083500341, 24.406433707523615, 18.513912217709876, 26.344633599487395])",False
10762253493.848837,"array('h', [24.516651277875976, 45.63695396884119, 42.59359617788294, 19.103103451053077, 32.81480345966142, 23.69520052134677, 18.70279657387192, 25.54714505265973])",False
10782310081.860466,"array('h', [25.484287356786858, 45.17557587501647, 41.76604379020068, 18.97430082895757, 32.60201318888034, 23.07585472620579, 18.94194861594237, 25.358908462751337])",False
10802366669.872091,"array('h', [25.477670724924156, 44.763871067156465, 40.0791722524082, 19.316246109240545, 34.554307152793584, 23.60279849046722, 19.148268593974795, 25.617771909882315])",False
10822423257.88372,"array('h', [23.132834383831124, 45.93627239780081, 41.1723151210335, 20.261192013509724, 35.90805230462232, 23.39502872572835, 18.4197734907029, 24.55034009494674])",False
10842479845.89535,"array('h', [22.953284078578953, 44.00225114979314, 38.529686712881066, 20.604513917694256, 37.905544283684485, 22.895605534651164, 17.54192476781634, 25.44304753150736])",False
10862536433.906977,"array('h', [20.7505396957465, 44.875414785210225, 40.208641283355306, 19.919510857482543, 38.43671763459085, 23.440411435067528, 17.126700891870616, 25.286243906980793])",False
10882593021.918606,"array('h', [19.136872832891147, 44.60115482850619, 40.927838050018586, 20.00619133170571, 38.75199657820268, 25.049373778328253, 17.89568807685268, 24.443026817307047])",False
10902649609.930231,"array('h', [20.98913312030553, 45.916339627524046, 41.30045254108666, 21.37040994126625, 39.58058608537127, 27.873689168498167, 18.445555253166745, 24.962531225119346])",False
10922706197.94186,"array('h', [23.326846871957002, 46.448884483262724, 43.3572237833026, 21.921027643615947, 40.166272256194965, 31.33439238193296, 19.038381811703992, 26.432368782575036])",False
10942762785.95349,"array('h', [25.56023049307769, 45.1894308416341, 43.37553651909372, 20.83444000772583, 39.056982545923155, 30.216676523176634, 18.585148162345742, 25.833742247675755])",False
10962819373.965117,"array('h', [26.068340675697023, 44.21012358514606, 43.897373379056425, 20.547037506553544, 38.74938618863331, 30.609210926085787, 18.012535092442203, 24.380519170670926])",False
10982875961.976744,"array('h', [26.492451823594777, 44.934789700874106, 44.60129095291783, 20.38881836245654, 38.67494929840833, 31.20595023606718, 17.130425187781842, 24.600623296040503])",False
11002932549.988373,"array('h', [26.001741870196142, 46.698420602508286, 45.854225177521215, 20.935259639204514, 37.638109803815, 30.490785981657176, 16.871583564905453, 24.69209880221294])",False
11022989138.0,"array('h', [25.013971051705283, 45.78424935801258, 45.13310238685167, 21.42830989037292, 39.04089590564149, 32.25763939000944, 16.822593821390246, 24.261021892058995])",False
11043045726.011627,"array('h', [24.922997384506164, 45.239530918547366, 44.254203405101606, 20.774613446182528, 37.00268055992169, 32.04142367992435, 16.857709377705152, 24.270098763008235])",False
11063102314.023256,"array('h', [25.98477631605847, 45.514066893054796, 42.98055690606238, 20.447969162357683, 34.77378207772271, 31.139985677498466, 17.55634203863182, 26.362260828492424])",False
11083158902.034883,"array('h', [25.905223857742783, 45.70007488004758, 42.63478528067237, 19.53298726239886, 33.336485633470986, 31.68707925140236, 17.738421576251373, 26.731827921263168])",False
11103215490.046513,"array('h', [27.194082558073266, 45.34464513690399, 42.05943064411931, 19.696957367120437, 33.1298566040992, 32.379762522263896, 18.035714758722488, 26.062176370535862])",False
11123272078.05814,"array('h', [26.470560717720286, 43.486522793818615, 39.715120743783984, 19.074787379345167, 32.933761891921826, 30.419916948904373, 17.190387368397644, 26.935704404006305])",False
11143328666.069769,"array('h', [26.367847725783513, 43.05783815787345, 40.20537319412549, 19.115738068781162, 31.011468359502246, 28.48313983522899, 15.239540983413931, 26.579127831507446])",False
11163385254.081396,"array('h', [25.131901888739744, 42.082433810336106, 40.36749239122223, 18.258057832873007, 29.89248879249393, 25.983302335137616, 13.95105336713268, 25.248359502712265])",False
11183441842.093023,"array('h', [22.765100151416327, 45.90180032166169, 43.0888820808332, 18.16604249242067, 29.58788839159973, 24.862323832421072, 13.588237842107219, 23.816037060472528])",False
11203498430.104652,"array('h', [21.836194949072862, 47.48740338724543, 44.1978364208906, 17.912147490616878, 28.60230649539953, 24.273947207033693, 14.02766526201908, 24.510912614685697])",False
11223555018.11628,"array('h', [21.875023085083672, 47.73867770389167, 44.57236550972156, 17.472745824172772, 29.145558562628395, 24.507226515376463, 14.727254183306524, 25.070110113160418])",False
11243611606.127909,"array('h', [22.48934452116385, 46.346423684759785, 42.29576289184343, 16.675730617006217, 29.79062039727733, 26.295812011894242, 15.626604442177396, 25.54542957498557])",False
11263668194.139534,"array('h', [22.963975759987463, 43.66479690950868, 39.08540794148208, 15.971139159640542, 28.425829786216745, 25.162568679373564, 15.36260840962472, 25.757840005493037])",False
11283724782.151163,"array('h', [24.288277760245517, 41.62490773972096, 37.99155715880071, 15.523340729151904, 29.011174379210086, 25.74744048083362, 14.959220572169436, 26.32065467363548])",False
11303781370.16279,"array('h', [23.300449969594315, 38.423377737317246, 36.15542448459991, 14.615224450759426, 32.99992454683031, 28.649448013650314, 15.461296374504949, 26.60992817970473])",False
11323837958.17442,"array('h', [24.275267004968626, 37.416524247465915, 37.03574275891448, 14.836939701368586, 33.176967125582316, 28.517117353600913, 15.255259165347393, 25.397990588567048])",False
11343894546.186049,"array('h', [23.143139112836852, 37.428069476190046, 38.633005347652315, 15.895820831079538, 32.128419526166184, 26.885008900919882, 16.290747947323457, 25.884990731621308])",False
11363951134.197674,"array('h', [23.282243911932348, 39.266101107272306, 40.11490592611118, 17.23327455381804, 33.09751792255822, 28.464230824725625, 17.570343930906564, 26.55698016335027])",False
11384007722.209305,"array('h', [24.138008941287538, 39.5644720455962, 39.40536324853318, 17.731437364448137, 35.57056254377755, 32.03671586486092, 18.227938083265382, 25.67742081131031])",False
11404064310.22093,"array('h', [22.952561799952182, 38.542628202868904, 37.769864416911105, 17.38833021806901, 37.6573934437287, 32.98250312323999, 19.26544431241328, 25.661400234081533])",False
11424120898.23256,"array('h', [22.814219276300374, 36.608572228744755, 35.27353130818314, 19.347042109749886, 38.83890885437191, 33.36230761820245, 19.219206916129774, 25.83200450801797])",False
11444177486.244186,"array('h', [22.18156282092537, 32.75320058936521, 31.777750128959703, 19.99645896677905, 39.05350039011054, 33.268633768519734, 18.10603112885911, 25.58815859834398])",False
11464234074.255814,"array('h', [23.29893370778406, 30.960936656944053, 29.389333955187688, 19.521680223818432, 36.450059915702745, 31.393886853740547, 17.068199684781376, 25.245569137691756])",False
11484290662.267445,"array('h', [23.18183275478713, 28.652794277178074, 26.98504807665738, 18.771983500415594, 33.43857097614027, 29.719939790892273, 16.613228764757196, 25.01669775672381])",False
11504347250.27907,"array('h', [22.836555327275914, 27.236483293089684, 26.23523858982599, 18.59649752152168, 32.49515707543805, 29.178389069187972, 16.56265212555081, 24.612185674357757])",False
11524403838.2907,"array('h', [23.944485351098532, 27.12216587785796, 24.783009915062287, 19.77402385595271, 31.666619242509753, 29.858474532300978, 17.06014350859825, 23.89128618048797])",False
11544460426.302326,"array('h', [24.054215462336753, 26.746826045316084, 23.474197792268296, 20.74076059218572, 28.24197306707071, 28.278772546803747, 17.89376953734257, 23.307131073156274])",False
11564517014.313951,"array('h', [24.2698976415238, 25.36775794819999, 20.731771889217004, 20.39611945812978, 25.498032339182867, 27.749969179412794, 19.37110465273338, 24.650376227961356])",False
11584573602.32558,"array('h', [25.221180391353336, 23.87260441715024, 17.205681145117133, 19.19287872118683, 25.248982684572933, 28.493283985490514, 19.954765438611798, 26.50267283561522])",False
11604630190.33721,"array('h', [25.09192091700315, 19.958426994996273, 13.947731767518516, 17.664641121595633, 24.03004949300736, 28.80583553563382, 19.08313480091422, 26.38318282261399])",False
11624686778.348837,"array('h', [26.93302317212605, 17.961705735601466, 11.629354473936468, 15.904451054828298, 20.58160369365745, 25.67280704052773, 19.122686714071826, 28.90534443240247])",False
11644743366.360466,"array('h', [28.324121522191295, 17.367735851036333, 10.94845343577947, 15.036892644401355, 16.251228723206474, 21.940535717117022, 18.27784413607057, 30.122487120697684])",False
11664799954.372091,"array('h', [28.1728274051458, 16.74447224795498, 9.601155381769974, 13.216041569468654, 12.579226492085402, 20.47035086024722, 17.83268907346033, 30.28025550544761])",False
11684856542.38372,"array('h', [28.306906367237545, 15.99638750305055, 8.525417975464274, 10.675193604722613, 9.482398144233208, 18.513812611957775, 17.897645962128284, 30.26849143376567])",False
11704913130.39535,"array('h', [28.772089352203775, 15.959653536550933, 8.214551424276856, 10.071169365828206, 8.887672321176163, 18.36961759500836, 17.79381910071927, 29.513096231288447])",False
11724969718.406977,"array('h', [27.71280857671633, 14.801627795301025, 7.456101700194427, 9.642039487838321, 8.436476429233931, 17.562719103864985, 17.005122843982456, 28.7177793708784])",False
11745026306.418606,"array('h', [28.560319582681533, 15.214015204472197, 7.402323649094349, 9.48062301611798, 7.9025084440224544, 16.14026470030062, 15.826959818134805, 27.549398136346777])",False
11765082894.430231,"array('h', [27.426054212074533, 14.791961571027604, 7.7874309855249395, 8.413234169170904, 7.21447714664091, 14.801631266170979, 14.696757677853858, 27.514874475892658])",False
11785139482.44186,"array('h', [25.344844439444838, 13.936016336261865, 7.59151124448606, 6.559257491664674, 6.439615910833181, 12.727045894935102, 13.568651403563287, 27.019375510307658])",False
11805196070.45349,"array('h', [24.363892885786466, 14.249452200958146, 7.683093531727392, 5.411249446646127, 4.919278484345172, 10.16913759536213, 11.022515494541132, 24.799679338967014])",False
11825252658.465117,"array('h', [22.247705508244312, 13.460693083741033, 7.740521686447194, 4.668597908027684, 4.116035211251413, 8.357098117840527, 9.24937083802081, 21.51529297057631])",False
11845309246.476746,"array('h', [22.355634735040265, 14.229266028689162, 8.501480851247074, 4.439756208761545, 3.555364740230964, 6.900480207120384, 8.582167676254425, 20.639478721629203])",False
11865365834.488373,"array('h', [20.649949145571064, 13.571330479461558, 8.721611447507092, 4.2768663321357545, 2.863829999164579, 4.946496216759127, 7.540034259731628, 18.007867495183685])",False
11885422422.5,"array('h', [17.07384935008701, 12.709547848982197, 9.077017927785093, 4.368784615446661, 2.5808974211172866, 4.430214958772693, 6.765874701563004, 14.652879263898724])",False
11905479010.511627,"array('h', [15.574717867797881, 13.11376460319277, 9.524015185503938, 4.499417547376708, 2.7838895388751124, 4.094240282532649, 6.7128330734355695, 12.990861316881821])",False
11925535598.523254,"array('h', [14.72716154133661, 12.49113903196352, 9.62176648368323, 4.5712039198665435, 2.6728452965357907, 3.3481919857237115, 6.1091298412054345, 11.181638717175774])",False
11945592186.534885,"array('h', [12.846178488309846, 13.65934262271598, 10.695346434701065, 4.901729243145359, 2.5682308234808766, 2.835442330015501, 6.080882386440479, 10.097529674862033])",False
11965648774.546513,"array('h', [11.252309530176774, 14.71709494322251, 12.558305856135243, 5.522518587493493, 2.5724960635704317, 2.4613179515327444, 5.663693118803089, 8.854650043792006])",False
11985705362.55814,"array('h', [10.138259149505815, 14.668454841738637, 13.044390511125416, 5.875555501023332, 2.738643142453638, 2.448700305648836, 5.7197139682863956, 8.339241442003061])",False
12005761950.569767,"array('h', [8.785355637955503, 14.089572717537996, 13.077855928976478, 5.894981879572455, 2.667085324227526, 2.394111413925052, 5.812642237770162, 7.371173466883124])",False
12025818538.581394,"array('h', [8.395192162106216, 15.608345828047716, 14.215952345375173, 6.38319853972087, 2.9184813789919137, 2.375000330118816, 5.6043815749940835, 6.162737542324958])",False
12045875126.593025,"array('h', [7.857652107965674, 16.74607712581489, 15.702118977056744, 6.865850463687856, 3.041589770890396, 2.3745115709243665, 5.353815277722301, 5.735965842612789])",False
12065931714.604652,"array('h', [8.110624556381739, 17.031636355257074, 15.396081991882491, 6.666126989486043, 3.048797941817093, 2.3780013876322257, 5.031647496307857, 5.454158824140349])",False
12085988302.61628,"array('h', [7.395739965024411, 18.27429401524452, 15.869982065799665, 7.168695978195987, 3.1196664481248737, 2.2597826254787976, 4.585166510921216, 4.710423056841958])",False
12106044890.627907,"array('h', [7.855112278272051, 20.004912736378426, 16.62068379539408, 8.180735353808137, 3.5737589605126563, 2.249973937618476, 4.135283729976232, 4.234182156100645])",False
12126101478.639534,"array('h', [7.428372132717866, 20.796003871503633, 16.68058883322754, 8.676361964724665, 3.6364438060227546, 2.2353024812544118, 3.789148644330276, 4.004305219348467])",False
12146158066.651161,"array('h', [7.924657401005551, 21.256383740844477, 18.062443057958912, 10.140499520240486, 4.178396919940195, 2.5510397865072765, 3.741974017422781, 3.912107408826083])",False
12166214654.662792,"array('h', [8.091688017909352, 22.110943946926202, 19.089171259523297, 11.094194896672896, 4.39031038022529, 2.6852944199195545, 3.3371542142790354, 3.835656321683023])",False
12186271242.67442,"array('h', [7.820702367273784, 21.4181466266742, 19.09423888009827, 10.958324198265984, 4.3784194993681105, 2.674520876404462, 3.0193141727999233, 3.576822402245039])",False
12206327830.686047,"array('h', [7.491844847645155, 19.608188914553942, 17.872290382883197, 10.754384034139958, 4.262489747132593, 2.8410521037212457, 2.7802810528409814, 3.107755823897152])",False
12226384418.697674,"array('h', [7.545029858390608, 19.124267563550454, 16.45516670955266, 10.275442017302044, 4.161961864929979, 2.8577617357217933, 2.7334620521647177, 3.2623260081086713])",False
12246441006.709301,"array('h', [7.138942332967349, 18.829931348257976, 16.681584615310705, 10.419579632519262, 4.177503739146625, 4.0160744259418015, 2.993900392499663, 3.552608583145224])",False
12266497594.720932,"array('h', [6.870018802704335, 18.3039281946462, 16.136435572742766, 10.161601602612453, 4.136353394896793, 4.73292285956382, 3.4534454072251037, 3.787952782385074])",False
12286554182.73256,"array('h', [6.661752669432371, 16.10126634144233, 14.445152375419624, 9.704252924980201, 3.8749703787489467, 5.431387572609169, 3.590149402379891, 3.7988381959818183])",False
12306610770.744186,"array('h', [6.097260831972045, 14.94228785805216, 13.846747531320291, 9.62675871445958, 3.8334603338236715, 5.935022337412761, 4.072900247342508, 3.944255777438338])",False
12326667358.755814,"array('h', [5.548053055162172, 13.604830135861187, 13.859497728603046, 9.71438811885359, 3.7524809510973767, 5.829838733873541, 4.184731449770203, 4.037681135865751])",False
12346723946.76744,"array('h', [4.438350195480699, 10.698078974137301, 11.951046846366024, 8.499898535430768, 3.307888373614445, 5.896498159972286, 4.2768035878262864, 3.944948537301057])",False
12366780534.779068,"array('h', [3.382703187278585, 8.760582859897276, 10.643371510847459, 7.4814006619729145, 2.9275531319442547, 5.6383304334049456, 3.9936652248914415, 3.7899673713058077])",False
12386837122.790699,"array('h', [3.000436748664718, 7.606361573972652, 8.844565346625691, 6.243958895199458, 2.6865131572908894, 5.469736927852487, 3.8164996242585025, 3.556878417545048])",False
12406893710.802326,"array('h', [2.2617794921351675, 6.365249226347093, 6.998865954359174, 4.603742962788077, 1.8712486734988358, 5.053959934249709, 3.7464047436169268, 3.6137297709415113])",False
12426950298.813953,"array('h', [2.317926371075211, 5.85109103625574, 6.324435389862629, 4.255584882570609, 2.4129522675019555, 5.504598135034233, 3.891079745011725, 3.5460041952587242])",False
12447006886.82558,"array('h', [1.9651314993318179, 5.4637404076504525, 5.5524723572395285, 4.158736511281791, 4.103242353919412, 6.434780395626598, 3.6992938056406905, 3.487245345358559])",False
12467063474.837212,"array('h', [1.9174526672018763, 5.058788510345979, 5.323937163851261, 3.9449944216903163, 4.456585923509934, 6.5972711893454985, 3.55323305601218, 3.3014957753485716])",False
12487120062.848839,"array('h', [1.6438241789345964, 4.719872794288879, 5.099224581119982, 3.6535062374719054, 4.6733411121019195, 6.0975392550112755, 3.314011821348059, 2.977248626674076])",False
12507176650.860466,"array('h', [1.6970641708276193, 4.383254545113818, 4.384813230837739, 3.4541772673038507, 5.033384741894776, 5.1476763326260935, 2.6726651185456625, 2.4802677020005293])",False
12527233238.872093,"array('h', [1.4733885401269062, 3.6477855800748493, 4.014362860857255, 3.2554174478113964, 5.2490478716797915, 4.754619196596276, 2.408915684565596, 2.291137714483079])",False
12547289826.88372,"array('h', [1.5167493547606699, 3.5986847443320493, 3.5235168822380687, 3.011202964788447, 5.57816427478863, 4.065940343674993, 2.0832487202302694, 2.056655711622168])",False
12567346414.895348,"array('h', [1.290036078884153, 3.1467192652913836, 3.102774377742576, 2.853019701831018, 5.4797189245241, 3.9285567697753003, 1.691846219239938, 1.734111615778233])",False
12587403002.906979,"array('h', [1.3571469575960091, 2.9106714382658008, 2.7377293807444274, 2.672577296230848, 5.610071523958347, 3.8581639697055756, 1.5848264986029974, 1.683706610133866])",False
12607459590.918606,"array('h', [1.1124455293723032, 2.7185156133150903, 2.5805885376863995, 2.5994134362703356, 5.568780238888839, 3.8381554116155763, 1.45768712090054, 1.6161261459996994])",False
12627516178.930233,"array('h', [1.1411028186388323, 2.5882024709314773, 2.5055375055335785, 2.5893065585893194, 5.695533889355804, 3.8886349079905798, 1.521827130852378, 1.5695366790708507])",False
12647572766.94186,"array('h', [0.9678260305838738, 2.2327531099032316, 2.175738028026982, 2.4025812486725324, 5.58064831014127, 3.7846772708241634, 1.3379183848746306, 1.486720219218116])",False
12667629354.953487,"array('h', [0.9775642733114852, 1.7586842820876443, 1.789484062630912, 2.3296199829505393, 5.685424407026289, 3.7547143321996654, 1.29708012379346, 1.2692442293570563])",False
12687685942.965118,"array('h', [0.7367796787197132, 1.5609194591926265, 1.6500112826058921, 2.0828419328412857, 4.077611473389557, 2.7271560810807225, 1.06161816332032, 1.1873255964545688])",False
12707742530.976746,"array('h', [0.7698625772192893, 1.4980866852394676, 1.6916169432535626, 1.8843073819033862, 2.920222200651765, 1.9380415501684503, 1.0594751243470526, 1.1312935940574904])",False
12727799118.988373,"array('h', [0.6686375477274615, 1.3622966931370557, 1.692862039194391, 1.974690625542724, 2.6962410140918442, 1.851837366671799, 0.9629012585766676, 1.1045155749917028])",False
12747855707.0,"array('h', [0.7145449524419519, 1.3748036534848411, 1.5322614886724504, 1.7365123845369708, 2.2786881319105143, 1.6388804247744655, 1.0041188536800296, 0.9973287737125994])",False
12747855708.0,"array('h', [6.275520809444879, 8.588521528577209, 9.715779830399283, 5.0120707392410715, 3.0820788844882037, 2.7634472256442963, 3.548977936441868, 7.437006103466304])",False
12768037031.105263,"array('h', [6.511079734416238, 3.0386999307866938, 4.907483863213818, 2.9212181602604654, 1.9344887813142897, 1.3159758932140866, 1.9917132789419614, 11.731850122027668])",False
12788218354.21053,"array('h', [4.596057369483857, 4.70033269808838, 8.447365748048346, 4.618591295926291, 1.8781782243620724, 1.7155739636361726, 3.0118432967052837, 10.103942874359994])",False
12808399677.315788,"array('h', [4.525424851751935, 4.269865209743796, 8.45194218601249, 5.944248709382716, 2.230753105567414, 1.675772558876873, 2.8950108470937645, 9.88347145356112])",False
12828581000.421051,"array('h', [4.376724745035661, 5.544538843580755, 9.379534006417945, 7.762077536826592, 2.468535925093285, 1.7102346292255655, 2.7685211264174425, 7.837061710396746])",False
12848762323.526321,"array('h', [4.008780626674147, 4.374665952999426, 7.700602857776584, 7.570386416553436, 2.4021295554517255, 1.8711845484270715, 3.0975408934608573, 8.11555660155802])",False
12868943646.63158,"array('h', [3.992909984396204, 4.906082748635313, 7.696587903699298, 7.315718015663743, 2.5783642190437104, 2.3070113966180616, 3.3813864838598353, 7.281114058577036])",False
12889124969.736843,"array('h', [3.7754290304873974, 4.270522445239409, 6.6725332690862444, 6.430337710442782, 2.3947009169096565, 2.647684443757645, 3.5663848004072936, 6.925207186949239])",False
12909306292.842106,"array('h', [3.811724993110719, 4.4537905877098405, 7.047318073649299, 6.220926462121166, 2.3911778817111577, 2.722081028021364, 4.00489272957685, 7.024584462477287])",False
12929487615.947369,"array('h', [3.4319289496292975, 3.76477391775081, 6.044176319452735, 5.649697436393959, 2.1876660344676937, 2.648244380571052, 3.7619802336866117, 6.570170842763913])",False
12949668939.052631,"array('h', [3.411605934412136, 4.297186680678457, 6.8115175375952095, 5.67770671321084, 2.142444202887828, 2.6369403125083286, 3.735619223371994, 6.322207158048672])",False
12969850262.15789,"array('h', [3.2714246766312423, 4.621827432304747, 7.492021993558008, 5.523953506586744, 2.164450328750571, 2.611014953175896, 3.782205602484166, 6.031299384776617])",False
12990031585.26316,"array('h', [3.3416886069341905, 5.085677206352782, 7.666879151289048, 5.2955650497070295, 2.1495479286053496, 2.396076865611585, 3.906257959479259, 5.92670129100642])",False
13010212908.36842,"array('h', [3.2542886597480747, 5.417048087277956, 7.720666501239563, 5.239729782450123, 2.211983432810727, 2.4951716919587708, 4.013833309333349, 5.6286702673543445])",False
13030394231.473679,"array('h', [3.596346917659139, 6.377458759787694, 8.080856331103849, 5.325213645399022, 2.318208408722464, 2.5214686301593106, 4.3655828773606284, 5.418707253151697])",False
13050575554.578949,"array('h', [3.917434058734229, 6.215217207734769, 7.297316307600395, 4.759863852771417, 2.2814195897198113, 2.5781898615979424, 4.536772567339885, 5.251230962416211])",False
13070756877.684212,"array('h', [4.409277282287754, 5.9338189352855935, 6.89820408716463, 3.9551386536036106, 2.122044827942596, 2.6576949756055965, 5.218162867670084, 6.079089993041827])",False
13090938200.789474,"array('h', [5.660831787103953, 6.088384680839656, 6.675290649746771, 3.332683459155825, 2.54001730975667, 3.952258150806177, 5.653126681399391, 6.493775970599828])",False
13111119523.894737,"array('h', [6.692281498476641, 6.657552091376803, 7.395044984438248, 3.3095314773935645, 3.014900846794247, 5.152640816605358, 6.244115137473404, 7.657108024562233])",False
13131300847.0,"array('h', [7.173704805721021, 6.734883690023201, 7.758265737220521, 3.4389762412139255, 3.0512557761863204, 5.464535045716838, 6.420068377329546, 8.33358707330922])",False
13151482170.105263,"array('h', [9.441263280080493, 7.833149192514179, 8.116567072937055, 3.8094666876212337, 3.51614331071271, 6.134550305664526, 6.308185147078026, 8.769746834790405])",False
13171663493.21053,"array('h', [11.032251974320673, 8.470653802887705, 8.116832585016944, 3.7926779245768043, 3.4501507500926154, 6.355304003197841, 6.430342480465666, 9.571308772106986])",False
13191844816.315788,"array('h', [13.132180362158156, 9.256871091529133, 8.288922772981358, 3.9718193201449643, 3.6663454541951435, 6.365027042003346, 7.157855420099138, 12.072886864602388])",False
13212026139.421051,"array('h', [15.409712529214904, 9.584886209774991, 7.0417076541510975, 4.008015402891303, 3.711831031607248, 7.134267840327567, 7.996452817558391, 13.53844073996584])",False
13232207462.526321,"array('h', [16.48404355190595, 9.501409862187256, 6.63160400179847, 4.156510204740338, 3.93924939122211, 8.832438430212711, 9.25660708769847, 15.300770932665348])",False
13252388785.63158,"array('h', [17.57955371040955, 9.591300212503628, 6.393564736100603, 4.290837169529672, 3.9443945821459843, 9.911101871847363, 10.641788703766682, 16.821580296599375])",False
13272570108.736843,"array('h', [17.4657974683842, 9.20454784867806, 6.038595909277574, 4.230349107294288, 4.169986892082397, 11.175489491387216, 10.916648903656956, 18.12006396603653])",False
13292751431.842106,"array('h', [17.722780142838086, 9.296978006933676, 6.03292075760749, 4.628466600561069, 4.79717541402809, 13.772281802227202, 11.7375821556623, 19.50764934459896])",False
13312932754.947369,"array('h', [19.485171400216625, 10.37651673633288, 6.436277477138844, 5.024870356255031, 5.1094581785875794, 14.69155018227732, 12.340362441420982, 21.242042275234056])",False
13333114078.052631,"array('h', [20.451807003161306, 11.624424955206877, 6.617739272952668, 5.20535258771568, 5.108786600737655, 15.406947515773695, 13.00570988757767, 22.563477859801555])",False
13353295401.15789,"array('h', [19.51171128458086, 11.813288189156477, 6.682468526880647, 5.3207364204195455, 4.710908052040694, 14.73564244793682, 13.689351923847395, 23.273999558301057])",False
13373476724.26316,"array('h', [20.34944100065382, 12.3805349298834, 6.3093421608122755, 5.437510296670844, 5.118442426422202, 16.565456569258647, 14.321961449672749, 23.674201109197437])",False
13393658047.36842,"array('h', [19.94678144682715, 12.078224787240439, 6.074690251661442, 5.276677558389642, 5.185140911576629, 17.722086840865185, 15.681739662485668, 23.900833175374807])",False
13413839370.473679,"array('h', [19.65046918858321, 11.635063408695363, 5.721910095566816, 5.058557919535172, 5.035632171255413, 17.72589841251565, 16.110552047062807, 25.450176952674074])",False
13434020693.578949,"array('h', [20.527038169747023, 11.941481941099875, 5.993791695550725, 5.255832496646852, 5.309655046149463, 19.87295640863926, 16.8296760538973, 26.87417889222612])",False
13454202016.684212,"array('h', [18.330128944475895, 11.186808394551331, 5.827340165305359, 5.031385927942586, 5.7974500875711374, 21.153808332246914, 16.932580016740616, 25.881274304403885])",False
13474383339.789474,"array('h', [18.847151608847412, 11.120111021256474, 6.005754846139194, 4.837295172077575, 5.83659315237859, 21.898470425194887, 16.922161835395816, 26.41554345065033])",False
13494564662.894737,"array('h', [18.383865660987347, 10.910968151827612, 5.933248711835657, 5.5340769712452, 6.150593900537147, 23.770907239547896, 15.749638797038406, 25.917964471414372])",False
13514745986.0,"array('h', [19.343878408121395, 11.059883835175333, 6.216752479663363, 6.502183314717813, 7.204462761735486, 25.52745023991599, 16.784092959838063, 26.447715360566498])",False
13534927309.105263,"array('h', [20.83321764639776, 11.17751999150993, 6.295801098004242, 7.333044083804796, 8.140733558979214, 25.484068405906704, 18.648364026349817, 26.650230762321858])",False
13555108632.21053,"array('h', [20.56338149336276, 10.951807185944924, 6.476053568342259, 7.774043513265148, 8.609835297306564, 25.51249623971978, 18.316806907537103, 24.784207918936502])",False
13575289955.315788,"array('h', [19.186892375130526, 9.805023603387662, 6.06757657906189, 8.538148354672197, 9.608037294721182, 27.828516709912922, 18.55992090227656, 23.652722495319104])",False
13595471278.421051,"array('h', [18.854436821551335, 9.284802572506438, 5.907230938629139, 9.176160785416396, 10.598056814357937, 29.720875169955253, 18.38378482397891, 23.393394154543063])",False
13615652601.526321,"array('h', [18.386173316301022, 8.611150570300994, 5.665764556088552, 10.068849472977021, 11.243935855396849, 29.735496395247495, 19.00072513910788, 22.919212717470327])",False
13635833924.63158,"array('h', [17.145799294343522, 8.245687774463175, 5.655620925835781, 11.010094646238432, 12.559394974919607, 28.30895190872529, 18.807535357923946, 23.051197036928034])",False
13656015247.736843,"array('h', [16.014138706471257, 8.140354365516524, 5.667808253679462, 11.296120856828798, 13.301153981457912, 28.76559828173185, 19.048471510367612, 22.154038469210306])",False
13676196570.842106,"array('h', [13.782129459634493, 7.8229181202228455, 5.909677677712508, 11.995057000207408, 15.058984974371398, 30.18178429751052, 19.406632078036925, 19.715692649285096])",False
13696377893.947369,"array('h', [13.602621221693438, 7.806334867463247, 5.691096243821374, 12.520659496691895, 17.412673432091776, 31.72398276030138, 19.615161339891166, 18.761293178728575])",False
13716559217.052631,"array('h', [12.712712391375975, 7.437594866955896, 5.815775204707815, 13.538662089771247, 20.170107509312526, 33.42485735062667, 19.843004645771565, 18.5023652435319])",False
13736740540.15789,"array('h', [11.481289267641419, 7.284113472938067, 5.635915651966185, 14.19438344318754, 23.445220891930074, 33.651788188330954, 20.658547825851873, 17.514988683243168])",False
13756921863.26316,"array('h', [11.006992044779295, 8.249380479166092, 7.344187298613726, 14.536699863681037, 24.738903801875498, 32.64058580682412, 20.60983097111781, 17.812003064543894])",False
13777103186.36842,"array('h', [10.182071175199248, 10.221863466304061, 10.177675310359094, 14.925193512844551, 24.364467230062825, 31.26691021254149, 18.946625498956685, 17.6475215796175])",False
13797284509.473686,"array('h', [10.195535243101018, 11.070553284513636, 11.939483642312759, 15.407285137715997, 24.287509151001714, 30.850519860124887, 18.957982514973352, 19.589406464072976])",False
13817465832.578949,"array('h', [10.002317265373987, 11.976566313596539, 13.53674789355413, 15.284202789452658, 24.88977780808974, 30.913541031640598, 19.575822718165895, 20.29370721989255])",False
13837647155.684212,"array('h', [10.322536255638468, 15.388801225681508, 17.76240113770086, 15.386978802862382, 24.534782495326695, 27.495090464192117, 19.383937770321708, 20.505466574478643])",False
13857828478.789474,"array('h', [11.63472535135697, 18.067835636415293, 20.361219798284605, 15.10460434222574, 24.97086085151577, 26.92187149404848, 18.92370240832377, 21.648662410602718])",False
13878009801.894737,"array('h', [13.931324016599191, 21.714630623672637, 24.546433778947062, 13.866176173352573, 26.087707620728754, 27.813995832168466, 18.312607696112874, 23.068764747392763])",False
13898191125.0,"array('h', [16.92104071334588, 24.58093439386313, 27.499678210381056, 14.885564057943592, 28.02287586412639, 28.947516272347787, 18.081224774131528, 25.34909846105909])",False
13918372448.105263,"array('h', [19.369819871300475, 26.38805200841781, 29.627934122103945, 16.661961023979284, 30.856662625660547, 30.164608862191752, 18.25577053993485, 27.363030574355268])",False
13938553771.21053,"array('h', [19.56330295355487, 30.075277614795965, 32.99748403757911, 16.85803629234752, 29.467998227547117, 27.46323103384268, 18.003763848976686, 28.59995722117218])",False
13958735094.315788,"array('h', [19.944000290447686, 34.22075695076034, 35.65114637094785, 17.14655659375648, 29.066205853893877, 25.63232393621982, 18.315800321010897, 30.63697183824435])",False
13978916417.421051,"array('h', [23.347864546503875, 38.137066891277605, 40.00084154439644, 19.250269218777024, 29.80188140942196, 25.28368067923489, 17.92872575758231, 33.91809653712248])",False
13999097740.526321,"array('h', [25.93602254076442, 39.60710431861753, 41.027842136548905, 19.324937500773647, 29.253306982417026, 23.80265598495099, 16.749753684042496, 34.943926116935984])",False
14019279063.63158,"array('h', [25.879224677953044, 39.55951960665973, 40.16214745448908, 19.14452541555938, 29.677483767953227, 24.629951527215837, 17.085225757807596, 33.94932570866137])",False
14039460386.736843,"array('h', [26.815513438028066, 38.70087083722343, 39.11060079592889, 18.9083923399737, 31.6992479937085, 26.396793797144063, 16.038621561180662, 32.61548306159303])",False
14059641709.842106,"array('h', [26.447900729478494, 42.94962736795876, 42.34445580030108, 19.50727376771729, 31.81872334066997, 26.197893264324257, 15.33460904144176, 31.19163217821621])",False
14079823032.947369,"array('h', [27.5168953898109, 44.894538773787154, 44.851837902996664, 21.495930726949744, 33.10541243992882, 26.324606770182175, 15.091692533127139, 30.3526216749185])",False
14100004356.052631,"array('h', [29.477365029214184, 46.19940838565028, 46.87827514803214, 22.037972783203767, 35.35104058783185, 27.98854215130496, 15.507220538390532, 30.486316970646843])",False
14120185679.15789,"array('h', [29.609717231217104, 47.034173820519406, 47.53356071458003, 22.73317121171458, 35.637230473672226, 28.57466225397897, 15.795303825976514, 29.82333661018855])",False
14140367002.26316,"array('h', [28.551889206778256, 48.12138473839834, 47.24666250673157, 22.740260336995103, 33.47320025758889, 27.7770688188868, 15.403379579803794, 28.65739732149586])",False
14160548325.36842,"array('h', [26.54818008119631, 48.9961591696472, 47.42846963319835, 21.818712626062997, 32.816215228589996, 26.277014602843312, 15.711305446061683, 26.541229734060327])",False
14180729648.473686,"array('h', [25.067973838766896, 46.65497423707062, 45.19248451756611, 21.209003616535167, 33.86333847055889, 27.018832022557238, 16.63963041581553, 25.25423369407059])",False
14200910971.578949,"array('h', [27.084252328071884, 47.8442850201689, 45.987283926013646, 22.11492162539566, 33.74300793937344, 27.236764752555693, 16.194039133000377, 23.918524096836936])",False
14221092294.684212,"array('h', [27.18600793365456, 47.43998440181662, 44.032717088236424, 20.335132798619846, 32.23226379212299, 26.462769938074604, 16.441223355085324, 20.7756710904679])",False
14241273617.789474,"array('h', [25.263800413649907, 48.88738674409115, 44.73863135833478, 18.774864577518716, 32.47937583361083, 27.47726102184642, 18.966802910778352, 19.936768636506763])",False
14261454940.894737,"array('h', [25.66459282576091, 49.85868946037667, 46.84498881941945, 19.70357609923665, 33.036788145997384, 28.332978047896404, 19.43313562443649, 19.963117794250927])",False
14281636264.0,"array('h', [24.831992521412538, 51.80130995244712, 47.425872568102754, 19.278887069718557, 31.622280568442157, 27.59225718290754, 19.353661998369816, 19.627302878476332])",False
14301817587.105263,"array('h', [24.956307016944763, 51.9461642432342, 46.803082900636944, 19.36403665946821, 31.424952045763163, 26.025262715322096, 19.75804370405893, 20.17041565349382])",False
14321998910.21053,"array('h', [24.67093194694219, 49.850362433439315, 43.01215793641283, 17.61327965886525, 34.437603962615405, 28.63488692121027, 20.59441726950888, 22.283431526904078])",False
14342180233.315788,"array('h', [22.77279708105825, 49.88479327129516, 41.35097784021037, 18.106204099336576, 36.82375591337114, 32.4038097708492, 20.768383610002616, 21.09849498407943])",False
14362361556.421051,"array('h', [22.028849691682897, 48.227454186788776, 41.02628056817333, 19.668976866906632, 37.18625686809993, 32.1408931938916, 20.58603235020556, 21.259578245715883])",False
14382542879.526321,"array('h', [20.785605267798662, 46.66149602680761, 40.59782360881706, 19.947869527286663, 39.536793300530235, 32.56014250531486, 21.23520375613842, 21.672712143503006])",False
14402724202.63158,"array('h', [21.601332973694383, 44.78860456578549, 40.56661058432086, 19.581784253283253, 41.1693908044947, 34.359711146508445, 23.59548556879694, 22.890975183906104])",False
14422905525.736843,"array('h', [23.88401313486091, 49.39833152121849, 41.40211714815206, 19.035072908267487, 38.14568861729531, 32.2992315293656, 24.473371786331487, 24.489100598453227])",False
14443086848.842106,"array('h', [24.350290894670476, 46.977234699906305, 38.81630176872442, 18.369571210612794, 40.23653939859288, 33.65071271906653, 24.244537071272045, 25.365891429921763])",False
14463268171.947369,"array('h', [22.476694983126755, 44.47789348725833, 37.727135655774376, 17.621928672638195, 40.83573068513092, 35.03644449278249, 24.62768226074817, 26.456139252777827])",False
14483449495.052631,"array('h', [23.35963783627323, 42.91747234572563, 35.72809718472881, 18.505914882502005, 42.5305493908613, 35.49813650121283, 24.361652720979258, 26.357600423496184])",False
14503630818.15789,"array('h', [23.034227383361696, 40.403998332441176, 32.48286182717828, 18.09491081870046, 42.15677781973601, 35.509151661819054, 24.920445098237767, 25.732689970298686])",False
14523812141.26316,"array('h', [22.213041983297007, 40.79164827190301, 32.082349870946466, 18.02529526327978, 42.301129119479974, 34.91740572871042, 24.931707846551998, 25.88698690086926])",False
14543993464.36842,"array('h', [21.885236113646695, 40.57023887348931, 32.50749688665501, 18.64196720309075, 44.471376822804466, 36.79488919853602, 25.429327368792734, 28.106980342282572])",False
14564174787.473686,"array('h', [20.870665440834564, 40.99748075850656, 34.25233790469425, 19.402720523279335, 43.56929561531023, 36.03320446161019, 25.422772440366, 28.072262363533998])",False
14584356110.578949,"array('h', [23.422572777901916, 41.7524876427897, 33.5961827785423, 19.039841310170146, 39.846238022814646, 31.97964270663027, 25.392603635987793, 27.769452171249092])",False
14604537433.684212,"array('h', [23.287893890512393, 40.75014672097642, 29.45615552129661, 16.079768765488538, 35.9053736964685, 28.480450136056078, 24.701285566231483, 27.217026658001426])",False
14624718756.789474,"array('h', [24.065464359612914, 39.07989273748335, 27.89200142932252, 15.225129967896056, 34.54096158484568, 28.00906223724011, 24.973406321294657, 26.340906717814214])",False
14644900079.894737,"array('h', [24.87146288967152, 38.82183093840832, 25.409824660779087, 14.730062251963835, 33.16808286067288, 26.50617278871502, 23.749438682088154, 25.39043728889729])",False
14665081403.0,"array('h', [22.080772668377797, 36.3573730656515, 25.426427299068486, 15.952230333268595, 34.041198284961304, 26.829867302367386, 20.99411667192942, 23.229404665136627])",False
14685262726.105263,"array('h', [21.11598938719431, 34.79585855688521, 26.114347520144552, 16.25346204293939, 33.437386200649314, 26.402761056091368, 20.95499454113628, 22.276876677742145])",False
14705444049.21053,"array('h', [21.849269478523333, 35.35379879180045, 27.226597846695412, 16.69851168113714, 33.95948632652316, 25.906360254552492, 20.181654707149086, 20.43603356770603])",False
14725625372.315788,"array('h', [22.01972090269429, 34.308191190275586, 28.393446997475912, 17.520934256472493, 33.49721636654736, 25.268556677458246, 18.999246725819173, 20.162953718124587])",False
14745806695.421051,"array('h', [20.03880231810833, 35.042363679038246, 29.46591201211622, 17.552939507552523, 29.510546415821217, 22.31440703182972, 16.548566002452873, 19.00446767754141])",False
14765988018.526321,"array('h', [21.51980246900568, 34.1252960115212, 29.22560017287185, 16.86271464107909, 29.39851851176951, 21.712251518520226, 15.76981952479053, 19.59878131681308])",False
14786169341.63158,"array('h', [22.70905205716626, 31.17712826062582, 27.56711105260885, 16.325722273577185, 28.34503888464553, 20.34140680506373, 15.37033230291516, 18.286902143713363])",False
14806350664.736843,"array('h', [25.1446379218351, 28.89443037593269, 24.88807291747439, 16.738979137627666, 28.34477450409336, 19.859867022225107, 14.46416877982252, 16.325016707490335])",False
14826531987.842106,"array('h', [24.249670602971637, 25.552855776481977, 21.88174349189999, 16.280931694292953, 26.326512949062675, 18.355764014554232, 13.099731848325629, 16.261895286990942])",False
14846713310.947369,"array('h', [23.73982960344814, 21.750489618857177, 21.228523773420243, 15.851346284946493, 25.57330864292342, 19.388068861224774, 13.605478520385033, 18.02690855424109])",False
14866894634.052631,"array('h', [25.58300841175569, 22.690720177493006, 20.619245126608053, 16.448814548254166, 25.14606739451153, 20.809093536358365, 13.95020504905362, 18.129740024155225])",False
14887075957.15789,"array('h', [25.638285001337792, 22.179625942362343, 19.459321288153216, 17.030705862577143, 23.433745303417286, 20.26742881287174, 12.663950947466208, 18.8389154461778])",False
14907257280.26316,"array('h', [28.344662201942263, 21.94423846042141, 18.092115118523477, 16.20699112023026, 20.90104371171664, 19.819571165371418, 12.870182524657652, 20.53271815540066])",False
14927438603.36842,"array('h', [29.975555639657824, 20.464737866920736, 15.822484265877138, 14.880171656228088, 19.09677970998096, 18.625348747507864, 11.553771988342998, 21.7517009376397])",False
14947619926.473686,"array('h', [31.07028429165538, 20.63706959991656, 15.407422966158302, 14.723296734064979, 16.32698706088948, 17.300842204772486, 11.026049410137103, 22.693763538884575])",False
14967801249.578949,"array('h', [32.849624409878665, 19.777161816826688, 12.890547855417854, 13.493929106385087, 13.312991407359318, 15.277606311217738, 11.536404629767071, 24.994837427098343])",False
14987982572.684212,"array('h', [33.14741416304457, 19.048419397216964, 11.803149379641539, 12.495132717831735, 11.9452278925592, 14.61828298294621, 11.460502689331939, 24.687481035275603])",False
15008163895.789474,"array('h', [33.33354940578905, 18.11905245612774, 10.5749112399097, 11.926855120890991, 11.566586085834976, 14.571879779401664, 11.502182988576891, 24.91909287196083])",False
15028345218.894737,"array('h', [31.894650152881212, 17.992826719014317, 9.65941387008883, 11.644537087804622, 10.23811211492775, 13.776119970066977, 10.912555573731275, 23.869760956639798])",False
15048526542.0,"array('h', [29.6784232797371, 17.173752593737863, 8.730175088501204, 9.767851244701891, 7.358421824482656, 12.125518455958433, 10.475971095774158, 23.259699325617927])",False
15068707865.105263,"array('h', [28.714492680780715, 16.51461256340638, 8.252553971613377, 8.13079511319162, 5.834707374505412, 11.584296534591763, 10.312223625646654, 22.35885716235659])",False
15088889188.21053,"array('h', [28.623445040471342, 16.413759524559445, 8.032975549651274, 7.623620393471275, 5.829440057989046, 10.964044417825482, 9.80555333098132, 22.444319142926282])",False
15109070511.315788,"array('h', [25.84325644868834, 15.581683166128137, 7.56406015248833, 7.20574894423775, 5.462262480013339, 8.487271308608825, 8.230973141070907, 21.3920544642938])",False
15129251834.421051,"array('h', [24.015183794108637, 14.22248652839757, 7.2130323430875825, 5.871934636772747, 4.568262019242938, 6.726167444107822, 7.483568586467242, 19.98141706795173])",False
15149433157.526318,"array('h', [21.245302609556365, 13.384526754730173, 8.171031848591918, 5.928373043239708, 4.172900913560668, 5.5862298811861875, 7.501847562015445, 17.799891132948833])",False
15169614480.63158,"array('h', [18.868525173493726, 13.82427575189425, 10.184294314505248, 6.39666083349579, 4.1640711378193505, 5.224450468085844, 7.1489098088969705, 16.215691007295135])",False
15189795803.736843,"array('h', [17.020299840152607, 14.414563733262577, 11.938861218802174, 6.746626740970358, 4.015342903017719, 5.056210866521211, 7.1986904943442225, 14.384436632278051])",False
15209977126.842106,"array('h', [13.220033477720863, 14.223976730449445, 13.516958844306089, 7.08839636845216, 3.6293316847549706, 4.278957858397669, 6.791494471896256, 12.16528839052176])",False
15230158449.947369,"array('h', [10.686681117002797, 14.620892674719228, 15.337794998356078, 7.41781467124888, 3.2571142830141855, 4.060853147797415, 6.176444725937431, 10.063977969219554])",False
15250339773.052631,"array('h', [9.550502661787307, 13.715384163581035, 15.407105538095154, 7.082446942378805, 3.1847454146761605, 3.5035587413425295, 5.641916965892408, 9.379310570810805])",False
15270521096.15789,"array('h', [8.539245912696805, 13.773112172643733, 16.126639712880916, 7.627538868459891, 3.243492287657569, 3.4091921894109802, 6.0602401681351425, 8.355443130991056])",False
15290702419.26316,"array('h', [8.65716990010498, 13.738153874833856, 16.382114088724784, 7.607346442828117, 3.190017686545196, 3.1776833521851504, 6.949195228263433, 8.503286223280533])",False
15310883742.36842,"array('h', [7.986062595809659, 16.0681539339331, 17.90791790497239, 8.485215881332167, 3.3051504476819527, 3.2938653726103717, 7.372888764764804, 7.957981015124657])",False
15331065065.473686,"array('h', [7.54490983900919, 15.526537174192182, 18.49019760255245, 9.031978550356595, 3.4855760010473347, 3.0586063634098895, 6.894777479815108, 7.181362523164178])",False
15351246388.578949,"array('h', [6.766533451712543, 16.86683330993941, 19.788535953700944, 9.709127621076782, 3.6423274281036644, 3.1711193331403216, 6.8284640680242745, 4.865150811141775])",False
15371427711.684212,"array('h', [7.197727636562985, 17.402390666333254, 19.968990132493932, 9.608476700854615, 3.894397134231672, 3.0926271248654196, 6.750739931377368, 5.319849001380071])",False
15391609034.789474,"array('h', [7.021265280004493, 18.780989972771327, 21.324991552066102, 10.120490500697882, 3.901542475472315, 3.482487965092018, 6.9854688294866465, 4.442928852994943])",False
15411790357.894737,"array('h', [7.022723890771005, 17.70078065935169, 19.174873771303965, 9.260538029446533, 3.6553032480542225, 3.504065997744397, 6.404963411632686, 5.2890615482439545])",False
15431971681.0,"array('h', [6.759385856136506, 19.422639581244127, 19.163048565238448, 9.610063497019512, 3.7910080896259464, 3.720698280778007, 6.58742083791857, 3.4316594929211655])",False
15431971682.0,"array('h', [3.2247966178112923, 5.139175559311095, 14.751844299430333, 6.954724040970284, 3.5437749865753827, 2.204648081245891, 2.3062676289090986, 3.2302391571845086])",False
15451775449.095543,"array('h', [5.106622975387859, 14.1895180452792, 43.64130163950981, 25.488692271550693, 9.027508352671727, 2.87601427916913, 1.685586029729659, 3.999729060584275])",False
15471579216.191078,"array('h', [4.270888079331722, 9.301277064545129, 29.4543902252007, 20.130806368672, 8.275868413391091, 3.0727701375804455, 2.037896826337587, 3.0507889058046986])",False
15491382983.286625,"array('h', [3.7867914359091315, 8.619757672875465, 29.023747557525073, 18.54542244212563, 7.8525286876458695, 3.0935258239133643, 2.566498524427211, 3.4731096249507414])",False
15511186750.382164,"array('h', [3.462407712145922, 8.074539057178733, 26.505843780987966, 17.99920258218843, 8.09925436506153, 3.39384911595912, 2.7150696775329806, 3.2597242005867373])",False
15530990517.477707,"array('h', [3.3773614735971442, 7.534038404181877, 25.723942717946652, 18.84957393992798, 10.465990407205755, 3.855737785592706, 3.4528712743204086, 4.04637518491738])",False
15550794284.57325,"array('h', [3.0544901009546006, 6.595453932823205, 23.152877674424484, 17.71759035043521, 9.90233920106238, 4.382621547957958, 3.4831522543841853, 3.9866018223870214])",False
15570598051.668789,"array('h', [3.007620485901306, 6.733362049230103, 22.154302030915478, 16.356566143749596, 9.003886463910147, 4.030607491748444, 3.420176983775753, 4.011848171303452])",False
15590401818.764332,"array('h', [2.7892380330883912, 6.77056818757463, 20.025690799585153, 14.98519519891438, 8.406432942714398, 3.87419716136415, 3.142780722760551, 3.5634354095512344])",False
15610205585.85987,"array('h', [2.947409689920524, 7.010181086930064, 19.75213446217474, 14.207454251040472, 7.88818877556515, 3.574179188116377, 3.022533042690385, 3.5361930255891116])",False
15630009352.955414,"array('h', [3.207300890616991, 6.59197612091394, 18.494729837285956, 12.915005325163914, 7.238040885189551, 3.4518601060799567, 2.8412058314852717, 3.32490965362898])",False
15649813120.05096,"array('h', [3.8497607946333035, 6.448441400583128, 17.911377028950515, 12.51934669071388, 6.9801091492239085, 3.2524448098131504, 3.1691033059609017, 3.624206951604043])",False
15669616887.146496,"array('h', [5.004408466482656, 6.488602596336353, 16.67418776242068, 11.654593535959263, 6.603210012226245, 3.2175658412968136, 3.413631280853255, 3.7914654369701006])",False
15689420654.242039,"array('h', [6.351322329944199, 6.4686364595530295, 15.05050673222278, 10.697111694837641, 6.183044766889856, 3.133378407684982, 3.8736280311771396, 4.416209316612492])",False
15709224421.337578,"array('h', [7.711385707988982, 6.0421680401539914, 11.888772474631994, 8.5787988792273, 5.66332545897944, 3.3178176323482926, 3.990683028022264, 5.258754533809058])",False
15729028188.43312,"array('h', [10.439934379395886, 6.903473360374496, 12.097692575475326, 8.216268141854759, 5.4542440826084295, 4.070331729015854, 4.278387917274919, 7.026819119921664])",False
15748831955.528664,"array('h', [11.160955024330082, 7.035311374728341, 10.080508382550338, 7.019795918859805, 5.219877114005943, 5.287491196115325, 4.964745713539196, 7.521183443148326])",False
15768635722.624203,"array('h', [12.80685837942679, 8.112695706417115, 9.412916876382388, 5.852452304808768, 4.1270265848317464, 6.521114869550008, 6.027809260034313, 8.773839988081091])",False
15788439489.719746,"array('h', [14.78241587392864, 9.448887637041523, 8.125090891366543, 4.564348282141195, 3.3229945775880183, 8.451487082609964, 6.599595838109186, 9.170767951110868])",False
15808243256.815285,"array('h', [16.498097274127147, 10.598812479144742, 8.139390036191259, 4.3299685550651414, 3.6734260900728564, 10.630656525805493, 7.655837082534121, 10.682174819528775])",False
15828047023.910828,"array('h', [18.063116345554878, 10.674634931135413, 7.120623888556244, 3.8949791103280385, 4.005031793673003, 13.498290251841478, 8.464224615922133, 12.228679006057522])",False
15847850791.00637,"array('h', [19.677625914763063, 10.85296270287361, 7.151784497024071, 3.899341003527584, 4.225816831398256, 16.06937718315044, 9.973649608128438, 14.581571798929815])",False
15867654558.10191,"array('h', [21.496309251398372, 11.935722363523185, 6.608623389410742, 4.19919174813792, 4.815076976584564, 18.104535798144937, 12.088289839259968, 18.03231466622516])",False
15887458325.197453,"array('h', [21.59118421392623, 12.800251515595336, 6.522581105105635, 4.2301084520263785, 5.112777221975064, 19.443688852865492, 13.15096341750469, 19.026553106870036])",False
15907262092.292995,"array('h', [21.976464441232633, 13.01270380243545, 6.0685521144410846, 3.9967675733514727, 5.204635796316883, 21.23883544845204, 14.669161490291838, 20.715470876723924])",False
15927065859.38853,"array('h', [21.67607611513209, 13.123571280459151, 6.319155656267936, 4.6447652216118245, 5.733882598116938, 23.258538872099503, 15.776997197938153, 21.167923183332274])",False
15946869626.484081,"array('h', [21.3025979323475, 13.169485784040022, 5.855517611282739, 4.653446484448714, 5.982287274202957, 25.41595109996804, 16.199518664082287, 21.393986444757505])",False
15966673393.579617,"array('h', [19.424718136487176, 12.995290041781546, 6.0790497726631285, 5.183998296361388, 6.111895143975609, 26.309872179541532, 16.65743457412693, 21.0009017528322])",False
15986477160.67516,"array('h', [18.02289143499006, 12.628542909340513, 5.209157011490762, 5.03382433882595, 6.036506044764108, 28.822020843186518, 18.80747272097707, 21.687266269000478])",False
16006280927.770702,"array('h', [18.745101438367485, 12.497756245623282, 5.286676099781753, 5.310625803842826, 6.088734739045345, 29.135354926500334, 19.28027488264235, 22.777762746617885])",False
16026084694.866241,"array('h', [17.3266115591376, 11.6932054003499, 4.813284723783079, 5.343661389722594, 6.392614438410712, 27.657817863472495, 20.243922638116317, 23.175072561077823])",False
16045888461.961784,"array('h', [16.13931370921849, 10.639480035980977, 4.736121591938108, 5.568021992865972, 6.649746053046158, 28.07242545534135, 21.547748855861116, 24.854225446447234])",False
16065692229.057323,"array('h', [15.426227743635435, 10.120227304717023, 4.3864898728474, 5.817413809002128, 6.847881256640468, 28.42331044298638, 23.050802072517353, 24.942556518346482])",False
16085495996.152863,"array('h', [15.444782015784524, 10.797470923087179, 4.981559624834699, 6.454245132283031, 6.982937156993286, 28.34576504034044, 25.275621399019077, 25.54825697700651])",False
16105299763.24841,"array('h', [14.986555772380173, 10.676813188912202, 4.276495525299224, 6.062604887974665, 6.702936678174865, 27.445614792254517, 23.49452044351656, 22.956967887712022])",False
16125103530.343948,"array('h', [14.505680805666755, 9.911735493924105, 4.139696287662845, 5.77552571058148, 6.312683409395488, 26.707356003428238, 23.103612179180182, 22.899907939785155])",False
16144907297.439491,"array('h', [15.030147283333413, 10.064843964758273, 3.9783130575534447, 5.780690324789744, 6.312888989598288, 26.754194275266848, 22.580169581691006, 22.6844236486331])",False
16164711064.53503,"array('h', [15.234910207936323, 10.47849940526975, 4.352385703498957, 5.991615210054625, 6.2921777409903275, 26.921062247597828, 24.131082595070016, 24.059622764911257])",False
16184514831.630573,"array('h', [15.768229147310544, 10.689930663218865, 4.449396317324945, 6.560414526891216, 7.358914432606208, 26.416392603527036, 25.381274232169577, 26.13985252695912])",False
16204318598.72612,"array('h', [15.324094354424835, 10.510814477577654, 4.645295371300699, 7.240232678122944, 9.150896871773467, 26.17103210910162, 27.82018095443474, 25.56446783246886])",False
16224122365.821651,"array('h', [15.882603305011896, 10.746281212727231, 4.586563198878714, 7.7341884903721665, 10.715286519943517, 25.51765922574866, 28.076243313607986, 25.671428221878923])",False
16243926132.917198,"array('h', [15.219185100723795, 10.49345885714397, 4.670557679015363, 8.617774637436591, 11.956832685097606, 23.416313023078644, 26.714193044028992, 24.37133323101634])",False
16263729900.012737,"array('h', [14.20691915400828, 10.165112225185755, 4.628540246381963, 8.444115047077716, 12.511504889893382, 24.499991090412347, 28.34108024787752, 24.6999144468439])",False
16283533667.10828,"array('h', [14.137853119370659, 9.959749023941471, 4.757222454140983, 8.713232222087447, 13.894125109695576, 24.753163627391796, 26.40822806224947, 22.95915228856856])",False
16303337434.203823,"array('h', [13.763720863073932, 10.12267663027216, 4.639192830400308, 9.11268238407518, 16.0960333446557, 24.247882504411923, 26.139325853465305, 21.9080998694946])",False
16323141201.299358,"array('h', [13.846673085842047, 10.346881046480217, 4.854634373675488, 9.16840269617763, 17.447072151848257, 23.88004680246961, 22.854822847934837, 20.766483009451505])",False
16342944968.394905,"array('h', [13.389103435909524, 11.35038658003764, 5.300044010507335, 9.135536851238262, 18.382125564960386, 24.310794083607778, 21.994219490865223, 20.17063969688043])",False
16362748735.490444,"array('h', [12.886849219101995, 11.643207326227442, 5.764465762207118, 9.730168003417639, 19.201116013381572, 24.79592769232007, 21.949862923373647, 20.24696770577648])",False
16382552502.585987,"array('h', [14.395799820356716, 13.474598677398422, 6.947287939495867, 10.718271855067337, 21.477949710684026, 25.30894905043374, 21.503316722380784, 20.79540097996815])",False
16402356269.68153,"array('h', [14.72741929185937, 14.989765730659968, 9.003613232980546, 11.918309579593354, 24.720890065404973, 25.147757559849346, 19.628883032336784, 19.674289895421275])",False
16422160036.77707,"array('h', [14.318596414696371, 17.922487185357678, 13.397403795495972, 12.959780432055506, 25.846162546052692, 24.245802435950054, 16.580178817290747, 16.191526566683077])",False
16441963803.872608,"array('h', [15.231118150730861, 20.50706798618884, 17.617456123069164, 13.358731294829918, 26.200959715051887, 23.141163516823077, 15.54882475704535, 16.059712631982663])",False
16461767570.968155,"array('h', [17.00505858665633, 24.6787251921636, 21.248998029250387, 14.265564873967332, 28.549910412663667, 24.06818068435843, 14.993478667483096, 18.232817862770958])",False
16481571338.06369,"array('h', [17.391162580995534, 28.72971994037648, 25.02611544545987, 15.294609868667434, 29.269744318087877, 24.665771472321005, 16.617036344778366, 20.569901469198733])",False
16501375105.15924,"array('h', [19.741056963720236, 33.50083972006777, 27.314495221107165, 15.58583376127617, 32.12611348842882, 25.77382525309895, 16.362920693149274, 22.56078226627568])",False
16521178872.254776,"array('h', [21.77329846365984, 36.47085438617262, 29.638586330418942, 16.59442078159729, 34.0120384894727, 26.53723684348336, 16.06638092940641, 24.826578190147632])",False
16540982639.350319,"array('h', [24.582395781382456, 39.08955069918104, 31.03470935297469, 15.775880823414145, 33.44430625484497, 25.935477019988447, 16.22604703416965, 26.36471774565661])",False
16560786406.445862,"array('h', [26.62683392361913, 43.46103015202116, 33.148955247212896, 15.841140297590547, 34.80251180175507, 26.49775394879924, 16.45149053345117, 26.80294787598089])",False
16580590173.5414,"array('h', [27.770318902965347, 45.74382509639693, 37.34701672247972, 17.372602600824838, 35.98450128075448, 25.853024842226876, 17.463886708138908, 28.648189159201994])",False
16600393940.636944,"array('h', [29.594713215045235, 48.934933719836984, 41.31936859179776, 17.62196091274346, 39.760586891051545, 26.139321569790848, 17.931431148412585, 31.935624879498633])",False
16620197707.732483,"array('h', [30.158468865355488, 50.08099585952057, 42.8982159930897, 18.00347002793165, 40.53430273507542, 26.63040664851021, 19.15608960990884, 33.037784772762485])",False
16640001474.828026,"array('h', [30.179857905594368, 50.42266525372583, 43.63556348498185, 18.015757175457946, 38.758133812271474, 26.23738606491933, 20.390377305696635, 33.219723866521946])",False
16659805241.923569,"array('h', [30.194642479536814, 52.233667157396674, 42.976989245861965, 17.023150798557754, 36.63440514386867, 25.765118080105026, 20.65017557828192, 35.094243023187616])",False
16679609009.019108,"array('h', [29.44162420918893, 52.37086388899428, 42.830712254533886, 17.379120960508935, 37.31274425289841, 26.91051226911914, 20.052318096801635, 37.041784916901776])",False
16699412776.11465,"array('h', [28.413471780797305, 51.95332324860972, 41.962607432484035, 17.286787559429936, 37.76768622167056, 28.154703053446674, 19.71664105039561, 38.983916551789186])",False
16719216543.21019,"array('h', [27.33960346290206, 49.48804744685843, 40.40329648262127, 16.259556338375848, 35.361668905185454, 26.73695264004237, 17.50365860595429, 36.74745459467037])",False
16739020310.305733,"array('h', [26.59146795075952, 48.83073106927239, 41.19763321111712, 16.40818117522232, 35.87912065230278, 27.081345769653378, 15.780526268493327, 34.91881203764918])",False
16758824077.40128,"array('h', [25.419339248220435, 48.09037409024626, 42.82685782772869, 17.258178442194158, 35.324740466991294, 27.357144484244373, 14.43566372226338, 33.34131833193727])",False
16778627844.49681,"array('h', [23.518943503504783, 48.683493824624776, 43.7010494045531, 17.543197776247666, 36.43779192112015, 27.623602193418332, 14.423211374732542, 31.253129415000522])",False
16798431611.592361,"array('h', [21.677767764099528, 45.86390289136065, 44.61801282806855, 18.16991199518766, 34.08894746925964, 26.393701864680548, 14.333101972408025, 30.630020549153606])",False
16818235378.687897,"array('h', [20.640989000569544, 43.940432019074336, 43.64245722271226, 17.453624472078584, 32.457287055521604, 24.773199791336925, 14.195593683126074, 30.276992045685628])",False
16838039145.78344,"array('h', [20.02313335457481, 43.23922716730139, 42.13201477978694, 17.527352095506565, 29.385130912475603, 23.46720712747865, 13.335496402988216, 29.09813648322337])",False
16857842912.878983,"array('h', [19.001972409168342, 41.95470434270237, 41.59167558244806, 18.36014037734993, 27.88099571064794, 22.653403165456847, 13.011828761317481, 27.32730214304182])",False
16877646679.974522,"array('h', [17.171227204480612, 42.287564107335896, 41.53925891364892, 17.646950933614576, 30.20148280663575, 23.007908088350437, 12.458034447173512, 26.10341429721713])",False
16897450447.070065,"array('h', [16.29569846081822, 41.70772725136389, 42.34975999393086, 17.964827178540627, 30.611782521960883, 23.142760679743002, 12.56297583128986, 25.79769677197578])",False
16917254214.165604,"array('h', [17.044092472569847, 42.95530485398288, 42.11088235698884, 17.551666556785584, 32.7029519185806, 23.813247848405638, 13.9175082444377, 24.759099131689563])",False
16937057981.261147,"array('h', [18.461375331061397, 42.580341419030745, 39.64313416342788, 17.136353333840482, 33.75876574520653, 24.220609096221697, 14.916940842238988, 24.00155165245957])",False
16956861748.35669,"array('h', [19.284634647592025, 44.03202689625032, 41.25403233513047, 17.33982751298643, 33.76616900550357, 25.223567056559187, 15.411726194825503, 23.62866321262248])",False
16976665515.452229,"array('h', [20.94614023601436, 47.06815516847141, 41.248886116216084, 16.84211152282009, 34.541429725482026, 25.27846992867511, 16.221964985890146, 25.586326296502435])",False
16996469282.547771,"array('h', [21.146961391610542, 46.993263802411796, 39.685161639007525, 16.822453068487523, 34.33788433711784, 24.84705142233611, 16.66019843703837, 24.983118761984887])",False
17016273049.64331,"array('h', [20.812180377243635, 45.136784897140785, 37.81940006460667, 16.041965296385865, 32.99559447263847, 24.36848771504615, 17.15418113892354, 24.203883055162528])",False
17036076816.738853,"array('h', [21.54389828441428, 44.519360012476575, 35.42601906920098, 15.282343891576264, 31.889123035619583, 24.05214130744652, 16.64131297922119, 24.69859031593611])",False
17055880583.8344,"array('h', [21.66893209718853, 47.3064189654196, 36.06768179387785, 15.68724521377321, 31.881322937441592, 23.379836447002123, 16.523375936426465, 25.469101453097572])",False
17075684350.929932,"array('h', [22.108301678290115, 46.90499171101645, 36.78631681408561, 16.257257455155077, 32.4304225794705, 23.7451964191199, 17.735188340383004, 26.413438141133145])",False
17095488118.025478,"array('h', [21.35468253535228, 45.49436613072706, 34.85672517078753, 15.089638226654714, 33.45153559311449, 24.183265729070598, 17.496483617364575, 24.591491524505987])",False
17115291885.121017,"array('h', [23.224154429256345, 45.83359976084203, 34.4292916828174, 14.553823377339294, 30.826841159115894, 23.20197044973317, 18.148521367544017, 25.422836580958982])",False
17135095652.21656,"array('h', [25.343994178055834, 45.66790396444003, 33.69513672502617, 14.803451416348063, 28.87521791556819, 22.741355436743337, 18.42765036017408, 25.5112574537866])",False
17154899419.312103,"array('h', [25.29024872122128, 42.773039337300716, 32.99497588777658, 15.197617238864265, 28.057186319434983, 22.260482725930093, 18.823176505609784, 25.94827047315983])",False
17174703186.407639,"array('h', [24.592999726761917, 40.76845876874794, 33.64412528431643, 16.578803633047414, 27.69508500289476, 21.66806113319135, 19.28901285982575, 25.95779131967872])",False
17194506953.503185,"array('h', [23.298309377795956, 41.597324739547005, 35.3090468862345, 17.588561835991946, 28.02245531183652, 22.651704804932038, 19.388040268031116, 23.485104801092067])",False
17214310720.598724,"array('h', [22.59513226671392, 38.58457090562505, 35.12004601956745, 18.810560404184145, 28.781861901091357, 21.794925169753537, 18.494907610605722, 21.71896822115507])",False
17234114487.694267,"array('h', [22.732906387932715, 35.36225841897708, 34.69583941958397, 19.06473192112311, 28.922023558737067, 23.192875666614075, 18.4443702867038, 20.390448630273667])",False
17253918254.78981,"array('h', [23.760867430625414, 34.03765583482693, 33.597982531848494, 19.25611738040533, 28.45431197224887, 23.893346195232333, 19.186701467577798, 21.885365323802304])",False
17273722021.88535,"array('h', [24.969323032055804, 35.96104987736217, 36.85243779164201, 20.444948371162948, 28.025544172039176, 23.162076145461263, 18.766886363397322, 22.809971413641097])",False
17293525788.98089,"array('h', [25.074008710402463, 36.32425986458826, 39.46521242076378, 22.531866090535214, 28.28106912488289, 22.96460813337922, 19.003173603177363, 22.596608412977197])",False
17313329556.07643,"array('h', [23.99945061459885, 34.553911127732015, 37.79643794194007, 23.39752521065673, 29.90982521981443, 25.120284319493674, 18.659756535121993, 20.92373209519576])",False
17333133323.17197,"array('h', [23.237902309276013, 33.681190843344154, 36.27587143565862, 23.345039997227527, 30.46401375535817, 26.168737364441697, 19.123443534496474, 20.86635778616402])",False
17352937090.26752,"array('h', [22.7932283782941, 32.71446070390205, 36.48699472122624, 24.915875971635657, 30.850501024534818, 25.607060449791252, 18.67022861035262, 20.249251556899623])",False
17372740857.363056,"array('h', [21.150842670192826, 30.87194442234653, 35.421578141369295, 25.048967883951573, 31.83282706036378, 25.51778155706339, 17.539130241353487, 18.905087806984543])",False
17392544624.4586,"array('h', [20.136329558401787, 30.45225312767748, 35.15158695834606, 25.56993748850256, 32.15020899654844, 24.66818592330191, 17.15086459222706, 18.70049700554032])",False
17412348391.554146,"array('h', [20.794926876057897, 29.556568211730006, 32.49190343465407, 25.078991347876112, 31.618849937679368, 24.44039539332536, 15.667073594128818, 17.50060398871705])",False
17432152158.64968,"array('h', [22.320907960049215, 27.46511124898518, 29.428400847353526, 23.85783240039145, 27.961139825114955, 22.171245521534143, 15.220367257888723, 18.6092497141766])",False
17451955925.745224,"array('h', [23.81123071257877, 25.719333170095755, 25.94709253945241, 22.23779260891218, 25.294439051171597, 19.89423915684903, 15.519366578407878, 20.17547248043744])",False
17471759692.840767,"array('h', [24.32158974585048, 25.17884153348254, 23.653388122975894, 22.716240672782046, 24.136939866875622, 19.5390785252952, 16.390576857714805, 20.520784227613166])",False
17491563459.93631,"array('h', [24.458888950600745, 24.023963507973523, 22.53669328911902, 22.579027274078992, 22.14326503523728, 16.156838438341666, 15.141317574442658, 20.35857185107597])",False
17511367227.031845,"array('h', [24.48509170868189, 23.292962958324207, 20.817694511305305, 22.02676526820328, 20.929101865587118, 14.557017895537417, 14.289975110323168, 19.589262991885622])",False
17531170994.127388,"array('h', [24.203554530412802, 21.57998555991802, 17.822763754378165, 21.803527220370086, 21.306808457422772, 14.510458132408246, 14.444850700512712, 19.899743221039714])",False
17550974761.22293,"array('h', [26.075972437394707, 20.18691373459304, 15.571538357446288, 19.08319897478448, 19.393565487818783, 13.523346805906217, 13.899889327029411, 21.024652783980933])",False
17570778528.318474,"array('h', [27.578326324014277, 21.006067187945156, 15.346355775591682, 17.879690630425113, 16.284949167142912, 10.447827665951346, 12.476076162532202, 20.7133727849858])",False
17590582295.414017,"array('h', [27.87288597547684, 21.298093779440077, 15.079991926298167, 16.834143452718155, 14.206542995700506, 9.122937374536159, 11.943226654674604, 20.76453250929383])",False
17610386062.509552,"array('h', [28.768709952825308, 21.148514094508204, 14.289286472389005, 15.791005666390477, 12.38071885219757, 8.698056226456714, 11.78382784335255, 21.028503683196273])",False
17630189829.605095,"array('h', [28.464648857862322, 20.36346951558014, 13.297960722997322, 14.554909450114032, 11.121611069135827, 8.262516538948743, 11.102801463738986, 20.822619755920126])",False
17649993596.700638,"array('h', [28.679068268928983, 19.821712448311857, 12.02072883829046, 13.284538202431941, 10.04695196935812, 7.853940850193894, 10.765628238158815, 20.554547817717975])",False
17669797363.79618,"array('h', [27.39132101734216, 18.75685565860274, 11.960712886733235, 12.069942977079865, 9.082158140856556, 7.458369708851264, 10.32018584174632, 19.784484458285373])",False
17689601130.891724,"array('h', [24.93044525431926, 18.001197891522196, 11.753577166376623, 11.19785889562445, 8.277296509444982, 6.633293609534407, 9.14174144128546, 18.618950381949865])",False
17709404897.98726,"array('h', [23.57348637729491, 17.383895988365378, 11.822500098279434, 10.413083462695557, 7.141359848793681, 5.813659639536211, 8.071928579960987, 17.387307665428747])",False
17729208665.0828,"array('h', [22.12084807674598, 16.567557842679992, 11.833725668415607, 8.490294388227323, 5.422871868756542, 4.854876726652073, 7.631920789803773, 16.581672651603263])",False
17749012432.178345,"array('h', [20.012327665508007, 16.984445300723316, 13.11068936352814, 8.155243381901588, 4.829249546738209, 4.32712188415441, 7.3813715661176795, 15.156483063320158])",False
17768816199.273888,"array('h', [18.464715851974752, 16.198662216325104, 12.537368493399745, 6.820009221022306, 3.6938684699543565, 3.8076859631014486, 6.838668247023992, 14.18315877916421])",False
17788619966.36943,"array('h', [16.0589947753628, 16.588038978741263, 13.093778936143524, 6.6538730730432185, 3.2573020992426103, 3.601396216126162, 6.8708356030850295, 12.619730271356817])",False
17808423733.464966,"array('h', [13.554159517084202, 17.822383121438317, 14.532064557139083, 7.2528275183802835, 3.5071121576433577, 3.4267937387095597, 7.4662605693249855, 11.263974962143052])",False
17828227500.56051,"array('h', [12.277674081229437, 18.200068759369717, 14.349508829276912, 6.841305923968847, 3.2958915725087254, 3.28184278721226, 7.989796868666767, 10.765586375049097])",False
17848031267.65605,"array('h', [10.8197714508589, 19.233226443725552, 15.866814073782681, 7.007137114748811, 3.2518940226597715, 3.0420179754373744, 7.989464594133317, 9.773782517204648])",False
17867835034.751595,"array('h', [9.329760496738173, 19.12470889602073, 16.21220091911102, 7.011164373873226, 2.958436157811437, 2.8570356917123263, 8.051952288310021, 8.690582770426927])",False
17887638801.847137,"array('h', [8.5519990343507, 20.55644257832759, 17.447660692758006, 7.544296998094384, 3.0391949890535828, 2.8958150324360816, 8.078811652825417, 7.886082736654374])",False
17907442568.942673,"array('h', [7.360596718435309, 23.482638732745965, 19.42908755181246, 8.110748484037451, 2.9446321829115285, 2.8462571915073087, 8.339251548928054, 7.943122303869573])",False
17927246336.038216,"array('h', [7.257842612044589, 25.003873319677943, 20.986697437669385, 8.8605865983283, 3.1163518723055885, 3.08501351521552, 8.007251967975854, 7.305219490357931])",False
17947050103.13376,"array('h', [8.434311165533423, 27.94838615760209, 23.252871585750338, 10.939953907693049, 3.8277691475166447, 3.2989981352545215, 7.965889785737079, 7.164744284107238])",False
17966853870.2293,"array('h', [7.91198090544288, 28.557177953197414, 23.208332220245595, 11.296229032995711, 4.242823460121944, 3.50967365404906, 7.775584197864662, 6.743044948940723])",False
17986657637.324844,"array('h', [7.522521736469278, 28.76537261614287, 22.797836088016293, 11.012609826895416, 4.252205856336309, 3.663490983026658, 7.608788052245302, 6.5532889860037224])",False
