time,.data
1969/12/31/18:00:07.619,(0 18 7 1 -7 -2 -6 3)
1969/12/31/18:00:07.619,(20 -1 -1 4 10 10 14 5)
1969/12/31/18:00:07.619,(-1 -3 -3 -5 -6 -3 -8 -3)
1969/12/31/18:00:07.619,(-2 7 2 6 9 12 18 3)
1969/12/31/18:00:07.637,(-5 -16 -8 -4 -5 -12 -28 -3)
1969/12/31/18:00:07.637,(-6 11 7 3 2 -4 -10 -5)
1969/12/31/18:00:07.637,(3 1 1 -2 -3 4 2 1)
1969/12/31/18:00:07.637,(1 -7 -5 -7 -4 -4 6 -4)
1969/12/31/18:00:07.649,(2 9 8 6 0 -16 -11 -11)
1969/12/31/18:00:07.649,(-2 -2 -4 -7 -4 18 1 3)
1969/12/31/18:00:07.649,(4 -15 -9 -3 -2 -6 11 13)
1969/12/31/18:00:07.649,(-9 2 1 1 2 13 0 -10)
1969/12/31/18:00:07.667,(5 -7 -4 -2 3 4 -8 7)
1969/12/31/18:00:07.667,(2 4 0 -1 -6 -10 -3 -4)
1969/12/31/18:00:07.667,(-20 -8 -2 -4 -5 -10 -7 -3)
1969/12/31/18:00:07.667,(0 -6 -3 -2 -1 -1 -3 1)
1969/12/31/18:00:07.686,(-7 -3 -2 -1 -1 2 3 -4)
1969/12/31/18:00:07.686,(11 3 0 -2 -3 -7 -2 6)
1969/12/31/18:00:07.686,(4 3 0 0 1 5 5 0)
1969/12/31/18:00:07.686,(-13 -11 -6 -3 -3 -7 -16 -9)
1969/12/31/18:00:07.698,(-9 -13 -4 0 0 3 8 -4)
1969/12/31/18:00:07.698,(-9 0 0 -1 -1 0 -5 -1)
1969/12/31/18:00:07.698,(19 20 10 6 2 3 33 7)
1969/12/31/18:00:07.698,(-6 -20 -17 -13 -9 -18 -40 -23)
1969/12/31/18:00:07.716,(7 14 3 -4 0 12 23 5)
1969/12/31/18:00:07.716,(-13 -18 -7 -7 -2 -5 -4 -5)
1969/12/31/18:00:07.716,(-8 3 3 4 1 -11 -21 -9)
1969/12/31/18:00:07.716,(3 4 5 3 1 -2 7 11)
1969/12/31/18:00:07.735,(0 -3 -2 0 -1 2 21 -5)
1969/12/31/18:00:07.735,(-10 1 -1 -1 0 18 -8 -4)
1969/12/31/18:00:07.735,(11 14 2 1 1 -6 -22 -5)
1969/12/31/18:00:07.735,(-3 -4 0 -1 -2 -1 3 0)
1969/12/31/18:00:07.747,(0 0 -2 -3 -2 2 6 7)
1969/12/31/18:00:07.747,(12 9 5 4 3 -8 -2 -3)
1969/12/31/18:00:07.747,(-22 -7 5 0 2 7 5 0)
1969/12/31/18:00:07.747,(14 3 -2 -1 -2 -6 -8 -3)
1969/12/31/18:00:07.765,(-6 -7 -5 -4 -3 4 -3 -3)
1969/12/31/18:00:07.765,(3 7 1 0 -3 -11 6 4)
1969/12/31/18:00:07.765,(-10 0 3 1 -1 9 26 9)
1969/12/31/18:00:07.765,(11 18 4 3 4 -5 -52 -14)
1969/12/31/18:00:07.784,(-10 -20 -8 -5 -4 4 -1 -3)
1969/12/31/18:00:07.784,(4 -11 3 4 -1 -11 -6 8)
1969/12/31/18:00:07.784,(-19 0 0 -1 0 1 -1 -8)
1969/12/31/18:00:07.784,(33 33 4 -4 -5 1 16 18)
1969/12/31/18:00:07.795,(-6 -11 0 1 -1 -2 4 3)
1969/12/31/18:00:07.795,(27 45 8 1 5 20 1 7)
1969/12/31/18:00:07.796,(1 -38 -16 -6 -6 -6 16 -1)
1969/12/31/18:00:07.796,(-30 -10 0 1 5 27 23 3)
1969/12/31/18:00:07.814,(8 -9 -7 -7 -14 -82 -79 -19)
1969/12/31/18:00:07.814,(-36 -29 -8 -5 -5 0 10 -7)
1969/12/31/18:00:07.814,(35 29 9 5 5 7 -17 15)
1969/12/31/18:00:07.814,(-12 -20 -11 -4 -4 9 39 -5)
1969/12/31/18:00:07.833,(-22 0 -1 3 9 19 -7 -10)
1969/12/31/18:00:07.833,(7 -3 -3 -3 -5 -22 -18 -19)
1969/12/31/18:00:07.834,(-30 -18 -4 -4 -4 -14 3 -10)
1969/12/31/18:00:07.834,(16 27 13 5 3 43 33 26)
1969/12/31/18:00:07.844,(3 3 -2 -2 2 -3 -26 -14)
1969/12/31/18:00:07.844,(-38 -31 -8 -1 -3 -18 19 -3)
1969/12/31/18:00:07.845,(10 6 -4 -4 -5 -39 -42 -6)
1969/12/31/18:00:07.845,(9 24 12 6 1 -5 11 23)
1969/12/31/18:00:07.863,(7 2 3 5 5 25 21 1)
1969/12/31/18:00:07.863,(14 5 -4 -6 0 22 25 26)
1969/12/31/18:00:07.863,(-20 -32 -16 -5 -4 -1 23 -14)
1969/12/31/18:00:07.863,(-10 4 7 4 -3 -39 -41 -24)
1969/12/31/18:00:07.882,(7 6 -2 0 3 32 42 29)
1969/12/31/18:00:07.882,(-34 -12 8 7 1 -18 -45 -56)
1969/12/31/18:00:07.882,(20 10 5 5 6 34 27 39)
1969/12/31/18:00:07.882,(4 -10 -18 -16 -8 -21 -22 -42)
1969/12/31/18:00:07.893,(4 1 3 1 0 1 -11 6)
1969/12/31/18:00:07.893,(50 39 4 -2 0 -11 5 18)
1969/12/31/18:00:07.894,(-53 -27 4 7 2 -9 -8 -17)
1969/12/31/18:00:07.894,(-2 -6 -11 -6 6 29 39 2)
1969/12/31/18:00:07.912,(-17 -17 9 7 -1 -2 5 21)
1969/12/31/18:00:07.912,(26 41 -3 -8 -2 19 -7 -18)
1969/12/31/18:00:07.912,(-4 -35 -11 -5 -1 -8 -13 10)
1969/12/31/18:00:07.912,(21 20 6 1 -2 -20 -9 8)
1969/12/31/18:00:07.931,(14 20 2 -4 -5 -6 -6 -19)
1969/12/31/18:00:07.931,(-20 -25 0 2 3 12 14 6)
1969/12/31/18:00:07.931,(18 29 10 2 2 17 -28 -6)
1969/12/31/18:00:07.931,(-27 -68 -11 3 -1 -29 3 8)
1969/12/31/18:00:07.942,(11 16 1 -2 1 9 -1 9)
1969/12/31/18:00:07.942,(-25 -20 -8 -4 -8 -13 5 11)
1969/12/31/18:00:07.943,(9 -2 -7 -3 -3 0 -3 -19)
1969/12/31/18:00:07.943,(8 25 9 4 9 50 11 -5)
1969/12/31/18:00:07.961,(-43 -31 -8 -1 2 -5 5 -17)
1969/12/31/18:00:07.961,(-7 -25 -3 -2 -4 -2 -17 -16)
1969/12/31/18:00:07.961,(29 46 5 -4 -1 18 34 -3)
1969/12/31/18:00:07.961,(-11 -14 -5 -2 -6 -27 -18 7)
1969/12/31/18:00:07.980,(-25 -6 0 -3 -4 -23 -56 -37)
1969/12/31/18:00:07.980,(6 2 -3 0 3 25 38 24)
1969/12/31/18:00:07.980,(12 28 16 6 5 0 -10 8)
1969/12/31/18:00:07.980,(-48 -47 -17 -6 -5 -3 -12 -40)
1969/12/31/18:00:07.991,(-3 31 9 2 1 6 24 1)
1969/12/31/18:00:07.991,(5 -43 -14 -11 -8 -7 0 39)
1969/12/31/18:00:07.998,(52 25 2 0 -3 -7 -12 19)
1969/12/31/18:00:07.998,(4 4 1 1 0 -9 4 6)
1969/12/31/18:00:08.010,(14 1 2 2 3 2 22 16)
1969/12/31/18:00:08.010,(-14 2 0 0 -3 -5 -23 -28)
1969/12/31/18:00:08.011,(3 -3 -10 -11 -11 -6 28 1)
1969/12/31/18:00:08.011,(-5 -8 4 0 -2 3 -18 14)
1969/12/31/18:00:08.029,(19 2 -6 -1 0 19 34 24)
1969/12/31/18:00:08.029,(-2 9 -3 -4 0 -11 -36 -20)
1969/12/31/18:00:08.029,(-23 -13 0 -2 -7 -9 21 -19)
1969/12/31/18:00:08.029,(-23 -5 -1 1 3 0 -15 -12)
1969/12/31/18:00:08.039,(2 -1 -6 -6 -5 -10 -8 -10)
1969/12/31/18:00:08.039,(32 -4 -2 0 3 -2 21 39)
1969/12/31/18:00:08.046,(-26 -6 3 2 1 10 -18 -42)
1969/12/31/18:00:08.047,(19 23 1 -2 -3 5 19 31)
1969/12/31/18:00:08.059,(-11 -22 -5 2 2 0 -2 11)
1969/12/31/18:00:08.060,(43 28 -2 -9 -10 -4 -30 2)
1969/12/31/18:00:08.060,(14 -7 -8 -7 -4 -23 -7 24)
1969/12/31/18:00:08.060,(-7 3 5 1 1 19 8 -5)
1969/12/31/18:00:08.078,(-51 -57 -2 8 9 3 0 -36)
1969/12/31/18:00:08.078,(6 44 8 6 5 16 23 -6)
1969/12/31/18:00:08.078,(10 2 -3 -3 -2 0 -21 19)
1969/12/31/18:00:08.078,(9 4 2 -1 9 -15 -16 -3)
1969/12/31/18:00:08.088,(26 35 1 -5 -23 -9 -3 -9)
1969/12/31/18:00:08.088,(-56 -65 -11 -2 -8 -20 -14 -16)
1969/12/31/18:00:08.096,(-7 1 -3 0 18 28 -21 -22)
1969/12/31/18:00:08.096,(19 15 5 6 -6 13 48 31)
1969/12/31/18:00:08.108,(-9 -5 4 0 -4 -22 -17 -10)
1969/12/31/18:00:08.108,(-20 6 3 -1 -1 3 -2 -27)
1969/12/31/18:00:08.108,(7 -16 -8 -2 -7 -32 -3 20)
1969/12/31/18:00:08.108,(4 -40 -6 -4 -6 -20 -27 23)
1969/12/31/18:00:08.127,(34 49 2 -1 4 14 15 -5)
1969/12/31/18:00:08.127,(-1 2 -1 -6 3 6 -10 -28)
1969/12/31/18:00:08.127,(-29 -7 -3 -3 1 10 -2 -2)
1969/12/31/18:00:08.127,(-32 -33 -2 5 -2 3 10 -6)
1969/12/31/18:00:08.137,(36 27 3 -1 15 67 54 25)
1969/12/31/18:00:08.137,(17 17 2 0 4 -33 -16 10)
1969/12/31/18:00:08.144,(-39 -29 -3 3 -8 -25 -29 -20)
1969/12/31/18:00:08.144,(-4 13 -3 -11 -13 4 3 -14)
1969/12/31/18:00:08.156,(12 -2 4 2 -6 -21 2 6)
1969/12/31/18:00:08.156,(-28 -23 -4 6 25 37 24 1)
1969/12/31/18:00:08.168,(-8 -35 -6 4 7 7 -8 1)
1969/12/31/18:00:08.168,(-1 48 9 -3 -19 -39 -32 -32)
1969/12/31/18:00:08.175,(34 18 -3 -3 19 18 19 22)
1969/12/31/18:00:08.175,(3 -4 -11 -10 -24 -18 -16 9)
1969/12/31/18:00:08.176,(-54 -49 -13 -1 36 64 37 -2)
1969/12/31/18:00:08.176,(-79 -85 -6 11 -8 -14 9 -22)
1969/12/31/18:00:08.186,(87 42 13 5 -8 -32 -31 18)
1969/12/31/18:00:08.186,(-44 -13 -5 -9 -14 -17 19 -36)
1969/12/31/18:00:08.193,(88 110 7 -14 0 -2 -7 5)
1969/12/31/18:00:08.193,(-16 12 -1 -2 6 11 5 -6)
1969/12/31/18:00:08.205,(-35 -44 -15 -2 2 9 -1 0)
1969/12/31/18:00:08.205,(-33 -39 4 6 -13 -28 -2 -1)
1969/12/31/18:00:08.212,(-25 -44 -8 2 1 16 2 -24)
1969/12/31/18:00:08.212,(24 18 3 2 26 29 -10 6)
1969/12/31/18:00:08.224,(-27 -11 -4 -1 -14 -18 0 -4)
1969/12/31/18:00:08.224,(52 34 8 6 5 26 22 31)
1969/12/31/18:00:08.225,(13 35 2 -8 -7 13 11 10)
1969/12/31/18:00:08.225,(19 10 -1 0 -6 -60 -19 7)
1969/12/31/18:00:08.242,(-38 -44 3 9 -37 -57 -18 24)
1969/12/31/18:00:08.242,(-35 -22 -2 2 14 40 18 -22)
1969/12/31/18:00:08.244,(66 70 6 -13 -21 -1 11 23)
1969/12/31/18:00:08.244,(1 -46 -44 -25 10 25 -7 -15)
1969/12/31/18:00:08.254,(-11 23 13 3 34 45 14 -11)
1969/12/31/18:00:08.254,(-43 -35 29 20 -13 -74 -32 1)
1969/12/31/18:00:08.261,(-2 9 25 25 10 -1 11 17)
1969/12/31/18:00:08.261,(60 35 -5 -16 -22 -8 -5 13)
1969/12/31/18:00:08.273,(-7 -22 -30 -14 9 22 4 -18)
1969/12/31/18:00:08.273,(31 16 -10 -5 5 22 0 17)
1969/12/31/18:00:08.275,(-49 -38 -1 4 -4 -22 -12 -23)
1969/12/31/18:00:08.275,(-10 19 3 4 18 22 3 -10)
1969/12/31/18:00:08.291,(6 0 -8 -8 -27 -18 0 9)
1969/12/31/18:00:08.291,(52 40 7 0 29 38 2 14)
1969/12/31/18:00:08.293,(13 -2 -2 -4 -24 -64 -29 -4)
1969/12/31/18:00:08.293,(-18 -22 1 5 -11 20 17 1)
1969/12/31/18:00:08.303,(-59 -36 -4 -2 2 -25 -51 -27)
1969/12/31/18:00:08.303,(26 14 -7 -12 -8 -5 1 1)
1969/12/31/18:00:08.308,(-71 -24 -19 -12 -24 -14 -24 -45)
1969/12/31/18:00:08.308,(83 17 1 -3 2 8 16 75)
1969/12/31/18:00:08.322,(27 35 14 1 -1 1 -2 5)
1969/12/31/18:00:08.322,(-35 -47 -28 -12 -10 7 -2 0)
1969/12/31/18:00:08.323,(28 5 7 15 36 14 15 24)
1969/12/31/18:00:08.323,(-41 -34 -1 12 27 -9 -31 -40)
1969/12/31/18:00:08.340,(-10 7 1 -19 -45 8 27 22)
1969/12/31/18:00:08.340,(58 36 0 -7 -8 -4 1 5)
1969/12/31/18:00:08.342,(8 -4 -7 1 4 10 16 16)
1969/12/31/18:00:08.342,(-25 -27 -30 -10 -25 -44 -38 -23)
1969/12/31/18:00:08.352,(38 32 20 14 31 34 37 68)
1969/12/31/18:00:08.352,(-17 21 24 19 16 -27 -23 -1)
1969/12/31/18:00:08.357,(12 -32 -10 -26 -44 11 16 -7)
1969/12/31/18:00:08.357,(10 29 17 -3 -11 -4 -10 -6)
1969/12/31/18:00:08.371,(-34 -33 -25 3 47 -2 -16 -33)
1969/12/31/18:00:08.371,(-25 -3 -3 12 -41 -21 -9 -22)
1969/12/31/18:00:08.372,(40 9 -2 -13 14 31 12 16)
1969/12/31/18:00:08.372,(-16 -3 1 -4 3 2 -12 4)
1969/12/31/18:00:08.389,(-12 5 -14 -28 -20 19 11 -32)
1969/12/31/18:00:08.389,(-3 5 10 28 63 -6 -6 -3)
1969/12/31/18:00:08.391,(15 -6 -1 10 -27 -22 18 38)
1969/12/31/18:00:08.391,(-59 5 15 -6 -30 -1 -41 -88)
1969/12/31/18:00:08.401,(29 -11 -6 -7 -5 -15 41 -10)
1969/12/31/18:00:08.401,(-8 -10 -4 2 7 30 15 -27)
1969/12/31/18:00:08.408,(17 13 2 3 9 -10 -12 27)
1969/12/31/18:00:08.408,(24 19 14 5 37 15 21 14)
1969/12/31/18:00:08.420,(-33 -1 6 14 -25 -21 -26 -21)
1969/12/31/18:00:08.420,(-14 -3 -8 -2 -1 1 13 9)
1969/12/31/18:00:08.421,(-40 -9 2 20 56 24 -12 -61)
1969/12/31/18:00:08.421,(27 24 11 -36 -85 -6 21 33)
1969/12/31/18:00:08.438,(-15 -8 5 2 -2 16 -5 -7)
1969/12/31/18:00:08.438,(26 -25 -20 -20 -35 -25 -39 12)
1969/12/31/18:00:08.443,(-71 -27 0 47 77 -13 -17 -22)
1969/12/31/18:00:08.443,(2 -39 -32 -49 -55 5 15 13)
1969/12/31/18:00:08.449,(15 -2 -29 -27 -18 -7 5 26)
1969/12/31/18:00:08.449,(-9 66 94 26 -12 3 3 -9)
1969/12/31/18:00:08.462,(-1 7 5 1 -17 -38 -13 -11)
1969/12/31/18:00:08.462,(7 5 0 19 35 38 9 4)
1969/12/31/18:00:08.469,(-9 -13 -11 -4 -15 -10 5 5)
1969/12/31/18:00:08.469,(-6 -12 -24 -18 -5 -2 -4 -5)
1969/12/31/18:00:08.470,(2 -13 -13 -7 -6 -11 2 -1)
1969/12/31/18:00:08.470,(-7 -15 -24 7 14 -4 16 8)
1969/12/31/18:00:08.487,(22 -25 -38 11 35 -21 -25 -3)
1969/12/31/18:00:08.487,(50 77 83 27 14 36 23 80)
1969/12/31/18:00:08.489,(22 83 110 21 -38 0 -6 11)
1969/12/31/18:00:08.489,(-7 8 -5 8 24 8 17 -3)
1969/12/31/18:00:08.498,(-11 -17 1 28 54 -17 -45 -87)
1969/12/31/18:00:08.498,(-35 -55 -75 -42 -53 -16 -13 -19)
1969/12/31/18:00:08.506,(-35 -19 -38 -31 -24 1 -5 -15)
1969/12/31/18:00:08.506,(34 20 16 3 -6 -7 19 70)
1969/12/31/18:00:08.518,(-6 -4 8 8 15 8 15 17)
1969/12/31/18:00:08.518,(3 -24 -15 19 44 -3 19 -17)
1969/12/31/18:00:08.519,(-6 -8 -15 -21 -17 23 -3 11)
1969/12/31/18:00:08.520,(-2 16 11 19 23 11 14 15)
1969/12/31/18:00:08.536,(-13 -4 6 -5 -16 -3 3 4)
1969/12/31/18:00:08.536,(3 1 -7 -13 -4 -2 -3 2)
1969/12/31/18:00:08.538,(4 -12 -2 13 8 5 14 16)
1969/12/31/18:00:08.538,(-4 -50 -50 -1 13 -19 -15 -52)
1969/12/31/18:00:08.547,(-1 24 -30 -37 -37 6 -13 -1)
1969/12/31/18:00:08.547,(-16 48 85 56 24 14 -10 -31)
1969/12/31/18:00:08.555,(0 -40 -87 -19 2 -22 2 -1)
1969/12/31/18:00:08.555,(-27 62 49 17 3 -1 14 -23)
1969/12/31/18:00:08.567,(36 24 44 14 -1 18 27 79)
1969/12/31/18:00:08.567,(28 -62 -104 -45 -4 1 5 -10)
1969/12/31/18:00:08.569,(5 74 103 40 12 2 -2 -10)
1969/12/31/18:00:08.569,(23 -20 -11 -3 -3 -20 -27 7)
1969/12/31/18:00:08.585,(-8 -30 -14 -13 -19 -1 -11 -16)
1969/12/31/18:00:08.585,(-4 17 -15 -5 16 -10 22 15)
1969/12/31/18:00:08.586,(0 -48 -38 -17 -16 -23 -35 -19)
1969/12/31/18:00:08.586,(6 -19 -16 -7 3 41 4 21)
1969/12/31/18:00:08.597,(13 31 12 1 2 -8 -3 -8)
1969/12/31/18:00:08.597,(-25 -51 -36 -21 -37 -11 -10 -22)
1969/12/31/18:00:08.603,(12 -65 -70 -33 -5 12 32 38)
1969/12/31/18:00:08.603,(-20 -8 29 9 -17 -75 -31 -54)
1969/12/31/18:00:08.616,(-9 46 18 29 54 54 7 -9)
1969/12/31/18:00:08.616,(-16 -88 -75 -52 -49 -1 -24 -11)
1969/12/31/18:00:08.617,(14 118 96 50 22 43 41 61)
1969/12/31/18:00:08.617,(34 117 114 46 18 5 -5 2)
1969/12/31/18:00:08.634,(8 -87 -31 5 13 1 15 25)
1969/12/31/18:00:08.634,(-12 -63 -59 -17 -1 -20 -3 -5)
1969/12/31/18:00:08.635,(-46 -115 -128 -96 -37 -12 -13 -63)
1969/12/31/18:00:08.635,(59 42 47 80 44 36 17 53)
1969/12/31/18:00:08.646,(-33 31 59 27 -11 -26 -16 -32)
1969/12/31/18:00:08.646,(30 -56 -59 5 10 20 11 21)
1969/12/31/18:00:08.653,(-84 -97 -79 -26 -10 0 -11 -53)
1969/12/31/18:00:08.653,(34 -55 -79 -41 -4 1 14 37)
1969/12/31/18:00:08.665,(7 -1 -11 -19 -26 -40 -4 30)
1969/12/31/18:00:08.665,(-40 -76 -58 -6 16 25 11 25)
1969/12/31/18:00:08.666,(37 73 16 15 10 56 10 22)
1969/12/31/18:00:08.666,(-4 71 86 -1 -59 -41 3 13)
1969/12/31/18:00:08.689,(34 28 6 -5 -11 -10 -11 17)
1969/12/31/18:00:08.689,(-20 -12 41 18 26 -12 3 8)
1969/12/31/18:00:08.690,(-9 -108 -102 -35 13 7 3 12)
1969/12/31/18:00:08.690,(-24 55 26 39 17 26 10 -65)
1969/12/31/18:00:08.694,(-41 -81 -6 21 14 42 -14 -8)
1969/12/31/18:00:08.694,(47 76 -39 -23 -29 -48 -29 -60)
1969/12/31/18:00:08.701,(0 55 103 47 -18 -34 -18 -22)
1969/12/31/18:00:08.701,(-31 -128 -111 -28 27 -6 -12 -19)
1969/12/31/18:00:08.714,(-31 -106 -106 -58 -47 -16 -3 -30)
1969/12/31/18:00:08.714,(21 108 43 7 23 29 16 12)
1969/12/31/18:00:08.714,(38 73 79 31 -2 -12 -21 28)
1969/12/31/18:00:08.714,(-6 69 39 19 32 -17 7 14)
1969/12/31/18:00:08.732,(5 -59 -71 -23 -32 -24 -4 -34)
1969/12/31/18:00:08.732,(-9 108 115 69 -14 -44 -34 -25)
1969/12/31/18:00:08.733,(60 -89 -88 -10 18 20 -6 11)
1969/12/31/18:00:08.733,(-32 -66 -60 -20 -13 5 29 22)
1969/12/31/18:00:08.743,(6 -3 -3 -7 -6 17 10 24)
1969/12/31/18:00:08.743,(-47 -60 -45 -46 -38 -27 -7 -23)
1969/12/31/18:00:08.750,(-17 127 112 38 8 -39 -22 -48)
1969/12/31/18:00:08.750,(35 -89 -88 -24 -8 23 6 44)
1969/12/31/18:00:08.763,(-14 40 34 1 15 -33 -6 -43)
1969/12/31/18:00:08.763,(-42 -89 -86 -44 -9 15 -35 -40)
1969/12/31/18:00:08.763,(58 91 94 63 11 -5 8 30)
1969/12/31/18:00:08.763,(-36 -118 -92 -16 -1 1 -17 -33)
1969/12/31/18:00:08.781,(-6 -1 -48 -8 -3 -28 -15 -19)
1969/12/31/18:00:08.781,(24 17 49 30 28 63 61 79)
1969/12/31/18:00:08.782,(-12 -128 -128 -47 -22 -13 17 27)
1969/12/31/18:00:08.782,(23 108 54 13 12 10 -29 -69)
1969/12/31/18:00:08.792,(17 49 80 29 31 8 -30 -35)
1969/12/31/18:00:08.792,(-24 -45 -4 -8 -17 -33 -13 4)
1969/12/31/18:00:08.799,(-39 -90 -77 -35 -35 7 -6 -39)
1969/12/31/18:00:08.799,(-25 37 35 10 -1 13 30 26)
1969/12/31/18:00:08.811,(-7 -101 -95 -17 -7 -9 -7 -8)
1969/12/31/18:00:08.811,(5 17 -13 12 21 -2 -12 13)
1969/12/31/18:00:08.816,(47 107 90 40 -8 -19 -6 7)
1969/12/31/18:00:08.816,(-44 -83 -128 -86 -52 -48 -57 -56)
1969/12/31/18:00:08.829,(9 71 110 50 27 41 56 42)
1969/12/31/18:00:08.829,(7 -26 -61 -13 5 6 27 43)
1969/12/31/18:00:08.831,(-28 40 43 61 19 -9 -19 -26)
1969/12/31/18:00:08.831,(3 -75 -69 -15 3 9 -39 -55)
1969/12/31/18:00:08.841,(6 5 1 -6 -19 1 4 -6)
1969/12/31/18:00:08.841,(-53 -128 -103 -32 -10 0 3 -19)
1969/12/31/18:00:08.848,(-59 -1 -70 -41 12 -1 -16 -31)
1969/12/31/18:00:08.848,(56 114 78 26 -17 -3 48 95)
1969/12/31/18:00:08.866,(-23 -101 -86 -17 9 -35 -25 -28)
1969/12/31/18:00:08.866,(52 127 127 59 87 103 37 20)
1969/12/31/18:00:08.868,(-33 -31 8 -39 -48 -8 29 2)
1969/12/31/18:00:08.868,(59 94 64 20 9 22 30 79)
1969/12/31/18:00:08.878,(-46 -98 -68 -31 -32 -61 -76 -61)
1969/12/31/18:00:08.878,(31 -109 -96 -12 17 -8 9 72)
1969/12/31/18:00:08.880,(-9 68 38 -7 12 36 -14 -57)
1969/12/31/18:00:08.880,(5 -128 -119 -34 5 3 3 15)
1969/12/31/18:00:08.890,(97 127 122 81 11 9 27 92)
1969/12/31/18:00:08.890,(-29 -49 -13 -14 -34 -10 -18 -26)
1969/12/31/18:00:08.897,(63 -33 -37 -7 7 -13 6 48)
1969/12/31/18:00:08.897,(-28 -125 -94 -30 -15 -12 -9 -21)
1969/12/31/18:00:08.915,(-93 -40 -101 -39 -5 10 1 -31)
1969/12/31/18:00:08.915,(18 127 97 48 19 9 6 -28)
1969/12/31/18:00:08.917,(37 -42 26 15 -5 -27 18 62)
1969/12/31/18:00:08.917,(-8 36 11 8 36 41 -22 -26)
1969/12/31/18:00:08.927,(42 56 53 11 21 52 55 76)
1969/12/31/18:00:08.927,(-26 -89 -43 -45 -44 -25 1 -4)
1969/12/31/18:00:08.929,(2 -29 -41 -3 45 7 7 4)
1969/12/31/18:00:08.929,(-43 -38 6 -9 -50 -36 -24 -20)
1969/12/31/18:00:08.939,(-1 10 -6 -6 -9 5 0 2)
1969/12/31/18:00:08.939,(43 37 15 5 6 -2 11 26)
1969/12/31/18:00:08.946,(-35 -64 -40 0 11 -6 5 -4)
1969/12/31/18:00:08.946,(26 89 77 31 25 31 18 26)
1969/12/31/18:00:08.958,(4 104 93 27 -2 -6 -2 -44)
1969/12/31/18:00:08.958,(41 119 103 27 -12 -22 -8 -14)
1969/12/31/18:00:08.963,(-56 -128 -128 -49 -5 -7 -20 6)
1969/12/31/18:00:08.963,(8 58 48 15 -1 7 21 -2)
1969/12/31/18:00:08.976,(32 62 60 38 27 25 2 3)
1969/12/31/18:00:08.976,(17 -83 -51 7 1 -11 -3 -17)
1969/12/31/18:00:08.978,(-14 -68 -76 -26 10 23 -7 -9)
1969/12/31/18:00:08.978,(-15 47 64 16 5 0 27 45)
1969/12/31/18:00:08.988,(-2 -41 -46 -28 -23 -8 7 11)
1969/12/31/18:00:08.988,(3 9 1 14 -10 -35 -21 -27)
1969/12/31/18:00:08.995,(32 -52 -29 -19 8 34 -8 6)
1969/12/31/18:00:08.995,(-41 -111 -67 -6 0 -37 -31 -42)
1969/12/31/18:00:09.006,(16 37 -21 -20 -3 32 31 63)
1969/12/31/18:00:09.006,(-7 35 25 1 1 -4 -33 -40)
1969/12/31/18:00:09.012,(-12 4 10 -2 -27 -13 -4 -12)
1969/12/31/18:00:09.012,(2 37 -20 0 12 5 6 -54)
1969/12/31/18:00:09.025,(-5 21 58 31 6 2 19 25)
1969/12/31/18:00:09.025,(-39 -128 -120 -43 -18 -8 -9 -16)
1969/12/31/18:00:09.027,(12 127 120 32 0 -7 -4 -28)
1969/12/31/18:00:09.027,(-20 -101 -37 -13 -19 -26 -9 -17)
1969/12/31/18:00:09.044,(-8 -41 -51 -29 -21 -17 -45 -66)
1969/12/31/18:00:09.044,(-13 58 69 27 28 25 21 19)
1969/12/31/18:00:09.045,(-31 -70 -29 16 20 16 26 46)
1969/12/31/18:00:09.045,(28 -27 -23 -37 -44 -16 8 11)
1969/12/31/18:00:09.055,(-22 -67 -61 -17 4 -3 -14 2)
1969/12/31/18:00:09.055,(-41 -28 -14 -16 -17 -2 -2 0)
1969/12/31/18:00:09.062,(13 89 50 12 1 -18 -13 -24)
1969/12/31/18:00:09.062,(-26 -55 -42 13 41 9 3 12)
1969/12/31/18:00:09.074,(7 -51 -22 -11 -42 -43 -42 32)
1969/12/31/18:00:09.074,(46 101 66 21 33 30 1 -27)
1969/12/31/18:00:09.076,(-14 -53 -40 -21 -14 17 8 -34)
1969/12/31/18:00:09.076,(-3 -46 -49 -28 -32 -29 -3 25)
1969/12/31/18:00:09.093,(6 -13 -15 4 3 9 -9 -7)
1969/12/31/18:00:09.093,(4 74 2 -10 -3 -22 -7 15)
1969/12/31/18:00:09.094,(14 -57 -18 3 -2 -14 -8 22)
1969/12/31/18:00:09.094,(0 74 22 9 17 21 -1 -21)
1969/12/31/18:00:09.104,(-10 -41 5 6 32 9 15 8)
1969/12/31/18:00:09.104,(19 -91 -118 -52 -54 -40 -12 -28)
1969/12/31/18:00:09.110,(4 127 120 41 4 13 22 -6)
1969/12/31/18:00:09.110,(42 51 20 -4 -13 -13 0 19)
1969/12/31/18:00:09.123,(14 -16 -36 -13 -2 -18 -5 -9)
1969/12/31/18:00:09.123,(-46 -65 4 20 39 33 23 4)
1969/12/31/18:00:09.125,(-23 -98 -96 -50 -57 -29 -37 -27)
1969/12/31/18:00:09.125,(17 -7 -5 6 12 14 8 9)
1969/12/31/18:00:09.142,(53 106 97 45 35 26 24 36)
1969/12/31/18:00:09.142,(-22 -85 -35 -15 -19 -10 -13 -13)
1969/12/31/18:00:09.143,(-6 -76 -43 14 12 -19 -7 10)
1969/12/31/18:00:09.143,(9 89 73 4 -6 38 40 35)
1969/12/31/18:00:09.153,(-31 -82 -67 -24 2 -9 1 -2)
1969/12/31/18:00:09.153,(-5 -7 -68 -26 -24 5 -11 -5)
1969/12/31/18:00:09.159,(13 23 75 27 10 12 13 34)
1969/12/31/18:00:09.159,(24 41 -3 7 1 -24 -35 -23)
1969/12/31/18:00:09.172,(-46 -60 -31 -14 -13 9 28 -10)
1969/12/31/18:00:09.172,(19 -72 -45 1 3 -18 2 41)
1969/12/31/18:00:09.174,(-51 -59 -30 -11 -2 3 0 -1)
1969/12/31/18:00:09.174,(-26 27 -5 -1 -1 -7 -40 -87)
1969/12/31/18:00:09.191,(20 31 42 17 5 -6 -9 -8)
1969/12/31/18:00:09.191,(-39 -62 -30 -2 28 10 8 -9)
1969/12/31/18:00:09.192,(23 15 -15 -14 -44 -4 -8 7)
1969/12/31/18:00:09.192,(-23 21 50 14 -1 -18 3 14)
1969/12/31/18:00:09.202,(-2 -89 -84 -32 -22 -2 5 33)
1969/12/31/18:00:09.202,(8 92 64 41 51 44 -4 -5)
1969/12/31/18:00:09.208,(14 -50 -44 -13 -10 -24 26 -19)
1969/12/31/18:00:09.208,(1 58 57 -19 -44 -20 -27 -7)
1969/12/31/18:00:09.220,(-82 -63 -28 -6 -23 -32 -26 -58)
1969/12/31/18:00:09.220,(81 90 31 10 -4 14 28 57)
1969/12/31/18:00:09.227,(14 -25 -19 -3 9 -16 2 17)
1969/12/31/18:00:09.227,(-33 -128 -106 -23 13 10 -11 -9)
1969/12/31/18:00:09.240,(-7 127 44 14 4 7 18 21)
1969/12/31/18:00:09.240,(16 -5 1 4 -13 -9 -22 -17)
1969/12/31/18:00:09.240,(-14 -38 -68 -5 29 7 -1 -14)
1969/12/31/18:00:09.240,(21 60 47 32 8 27 17 -18)
1969/12/31/18:00:09.250,(-13 -77 -32 -30 -20 1 -26 -25)
1969/12/31/18:00:09.250,(-21 62 -58 -31 -36 -23 -11 -19)
1969/12/31/18:00:09.258,(72 127 127 66 22 16 26 52)
1969/12/31/18:00:09.258,(-17 -128 -96 6 15 -10 -1 7)
1969/12/31/18:00:09.270,(16 -83 -70 -28 -3 6 -15 -38)
1969/12/31/18:00:09.270,(7 88 77 27 36 1 10 6)
1969/12/31/18:00:09.271,(-69 -109 -57 -44 -40 7 6 -31)
1969/12/31/18:00:09.271,(46 22 -7 -2 0 -16 -5 6)
1969/12/31/18:00:09.289,(40 115 103 60 82 31 -5 -20)
1969/12/31/18:00:09.289,(-30 -96 -14 -42 -70 18 5 -3)
1969/12/31/18:00:09.293,(-10 -21 -25 -14 15 24 9 -8)
1969/12/31/18:00:09.293,(-19 4 32 9 2 -6 4 0)
1969/12/31/18:00:09.299,(8 -42 -67 -21 -24 -26 -38 -42)
1969/12/31/18:00:09.299,(-4 81 120 51 30 -3 -7 -14)
1969/12/31/18:00:09.307,(34 39 -36 -28 -5 -4 7 25)
1969/12/31/18:00:09.307,(-17 -7 -1 -9 -3 -1 -11 16)
1969/12/31/18:00:09.319,(3 -23 -41 -3 3 -6 12 11)
1969/12/31/18:00:09.319,(-48 -103 -18 -3 -7 -14 -18 -38)
1969/12/31/18:00:09.320,(12 -1 -63 -9 -17 -21 -37 -65)
1969/12/31/18:00:09.320,(24 31 59 34 41 34 -11 -3)
1969/12/31/18:00:09.338,(-31 -5 -56 -26 -25 12 33 8)
1969/12/31/18:00:09.338,(-23 -77 -33 -3 10 2 0 6)
1969/12/31/18:00:09.338,(-33 -36 -32 -28 -23 -29 -38 -22)
1969/12/31/18:00:09.338,(-11 -34 -2 7 -3 -16 -23 -19)
1969/12/31/18:00:09.348,(31 37 -8 8 5 24 48 68)
1969/12/31/18:00:09.348,(20 66 60 11 -16 -3 13 9)
1969/12/31/18:00:09.362,(25 14 34 22 20 -27 -47 -4)
1969/12/31/18:00:09.362,(-43 -122 -121 -46 -31 -9 2 9)
1969/12/31/18:00:09.368,(41 40 40 26 23 24 1 32)
1969/12/31/18:00:09.368,(16 -13 -21 -12 -13 -21 11 14)
1969/12/31/18:00:09.369,(-3 17 28 22 28 8 25 17)
1969/12/31/18:00:09.369,(7 -48 -26 -11 -12 21 8 14)
1969/12/31/18:00:09.386,(-64 -128 -61 -22 -10 -11 -18 -51)
1969/12/31/18:00:09.386,(-9 87 34 1 -1 -6 7 -36)
1969/12/31/18:00:09.387,(-8 -64 -27 -8 7 3 -25 -45)
1969/12/31/18:00:09.387,(39 79 34 23 21 2 21 34)
1969/12/31/18:00:09.397,(-23 -63 -5 -12 -17 -15 -4 0)
1969/12/31/18:00:09.397,(16 -40 -79 -17 0 -6 -29 12)
1969/12/31/18:00:09.404,(6 80 91 27 12 4 46 39)
1969/12/31/18:00:09.404,(-13 -89 -82 -18 -4 10 -16 -14)
1969/12/31/18:00:09.417,(21 81 34 2 8 9 4 23)
1969/12/31/18:00:09.417,(-11 -45 37 13 -22 -11 18 28)
1969/12/31/18:00:09.418,(26 74 45 19 21 17 -1 12)
1969/12/31/18:00:09.418,(-1 -55 -62 -33 -25 -31 -9 6)
1969/12/31/18:00:09.435,(-27 76 74 33 31 14 0 -20)
1969/12/31/18:00:09.435,(-10 -25 -16 1 10 6 -11 -17)
1969/12/31/18:00:09.436,(-21 -66 -72 -21 -6 -7 20 0)
1969/12/31/18:00:09.436,(2 99 100 44 13 26 5 12)
1969/12/31/18:00:09.453,(0 -71 -52 -43 -64 -28 -10 -2)
1969/12/31/18:00:09.453,(2 -13 -37 3 15 32 6 -2)
1969/12/31/18:00:09.455,(20 78 32 -5 -14 3 4 -6)
1969/12/31/18:00:09.455,(-35 -116 -49 -2 21 -9 13 41)
1969/12/31/18:00:09.466,(-6 65 35 13 5 -24 -34 -65)
1969/12/31/18:00:09.466,(39 31 32 13 -16 -3 -15 11)
1969/12/31/18:00:09.467,(-40 -67 -39 -17 -21 -18 -29 -30)
1969/12/31/18:00:09.467,(-19 -11 0 3 13 18 20 -19)
1969/12/31/18:00:09.484,(3 -63 -33 -28 -33 -7 11 9)
1969/12/31/18:00:09.484,(23 2 -47 -9 38 -6 8 39)
1969/12/31/18:00:09.485,(-4 9 4 16 -19 2 -30 -31)
1969/12/31/18:00:09.485,(-5 92 57 14 21 6 4 -15)
1969/12/31/18:00:09.496,(50 -73 -20 -3 -11 -16 -4 15)
1969/12/31/18:00:09.496,(-39 3 -41 -18 -6 4 -4 -47)
1969/12/31/18:00:09.502,(-19 10 -14 -6 10 -1 9 7)
1969/12/31/18:00:09.502,(71 103 81 18 -3 -16 6 48)
1969/12/31/18:00:09.514,(1 -37 -47 3 9 11 26 38)
1969/12/31/18:00:09.514,(-3 9 14 -6 -1 -1 -16 -27)
1969/12/31/18:00:09.516,(-6 -40 -25 -16 -12 13 -7 -19)
1969/12/31/18:00:09.516,(-26 -35 -9 -11 -13 1 11 -2)
1969/12/31/18:00:09.533,(-19 -59 -31 16 39 11 -22 -30)
1969/12/31/18:00:09.533,(-5 -17 -27 -18 -43 -25 7 21)
1969/12/31/18:00:09.534,(19 31 47 15 15 9 16 26)
1969/12/31/18:00:09.534,(-33 4 -4 27 26 2 -19 -61)
1969/12/31/18:00:09.545,(42 72 43 16 -4 -16 20 39)
1969/12/31/18:00:09.545,(1 0 4 -6 -13 16 -7 -24)
1969/12/31/18:00:09.552,(-15 -67 -29 0 19 -8 -3 14)
1969/12/31/18:00:09.552,(-70 -125 -128 -83 -57 -21 -18 -59)
1969/12/31/18:00:09.563,(-9 107 102 43 19 18 10 -25)
1969/12/31/18:00:09.563,(2 51 30 27 28 17 15 29)
1969/12/31/18:00:09.565,(31 47 36 -1 -15 -20 -18 -28)
1969/12/31/18:00:09.565,(7 -40 -6 14 -7 1 12 43)
1969/12/31/18:00:09.582,(-31 -121 -105 -40 0 -22 0 38)
1969/12/31/18:00:09.582,(4 34 26 -5 3 16 -15 -3)
1969/12/31/18:00:09.583,(27 64 54 14 -5 0 14 53)
1969/12/31/18:00:09.583,(-48 -88 -91 -36 -13 -16 -18 -41)
1969/12/31/18:00:09.593,(45 110 91 28 16 22 8 13)
1969/12/31/18:00:09.593,(12 48 56 34 17 -13 -8 -34)
1969/12/31/18:00:09.600,(-22 -86 -91 -33 -1 11 -9 -21)
1969/12/31/18:00:09.600,(23 85 97 54 32 11 12 15)
1969/12/31/18:00:09.612,(-32 -105 -79 -7 -6 12 -5 -19)
1969/12/31/18:00:09.612,(-39 -128 -116 -54 -30 -19 -11 -16)
1969/12/31/18:00:09.614,(2 113 126 57 18 4 31 -1)
1969/12/31/18:00:09.614,(5 -23 0 -4 -3 8 -17 -16)
1969/12/31/18:00:09.631,(-4 8 -1 -2 0 -23 -15 -10)
1969/12/31/18:00:09.631,(-29 -102 -45 -4 25 21 -2 -8)
1969/12/31/18:00:09.632,(-11 1 -42 -59 -57 -13 -1 -26)
1969/12/31/18:00:09.632,(22 35 21 -3 -12 -1 14 24)
1969/12/31/18:00:09.642,(-7 -33 -45 -2 27 -17 -10 -8)
1969/12/31/18:00:09.642,(-19 11 43 26 1 -1 15 2)
1969/12/31/18:00:09.649,(40 8 3 13 26 21 -5 34)
1969/12/31/18:00:09.649,(31 79 35 -3 -9 -21 8 26)
1969/12/31/18:00:09.661,(-47 -13 9 6 -36 -15 -8 -34)
1969/12/31/18:00:09.661,(23 66 87 24 5 -7 -1 25)
1969/12/31/18:00:09.666,(-67 -107 -96 -29 3 0 -24 -50)
1969/12/31/18:00:09.666,(29 102 75 28 4 -7 1 9)
1969/12/31/18:00:09.680,(55 21 6 -8 1 15 2 39)
1969/12/31/18:00:09.680,(-11 -111 -118 -26 -2 -15 12 37)
1969/12/31/18:00:09.681,(2 43 29 22 -3 2 -9 2)
1969/12/31/18:00:09.681,(-41 -87 -55 -13 7 1 -21 -23)
1969/12/31/18:00:09.691,(-3 13 -27 -14 -15 21 25 6)
1969/12/31/18:00:09.691,(-6 7 7 15 9 4 4 -2)
1969/12/31/18:00:09.704,(14 -104 -46 -18 25 27 15 46)
1969/12/31/18:00:09.704,(24 0 -43 -9 -24 -20 16 9)
1969/12/31/18:00:09.709,(19 79 72 -9 3 17 5 17)
1969/12/31/18:00:09.709,(-10 -100 -128 -58 -28 -22 -29 -29)
1969/12/31/18:00:09.715,(46 125 127 77 30 4 18 25)
1969/12/31/18:00:09.715,(8 -54 -19 19 36 7 -6 -1)
1969/12/31/18:00:09.729,(10 -24 -10 -3 -42 6 -6 -8)
1969/12/31/18:00:09.729,(-28 -63 -78 -41 -38 -18 15 51)
1969/12/31/18:00:09.730,(12 -29 -6 6 13 16 6 2)
1969/12/31/18:00:09.730,(6 95 57 13 2 -11 -14 -17)
1969/12/31/18:00:09.740,(12 33 15 -7 2 -12 -27 -30)
1969/12/31/18:00:09.740,(-7 -71 -13 -6 5 -1 0 2)
1969/12/31/18:00:09.747,(-6 -76 -59 -20 -26 -19 -10 8)
1969/12/31/18:00:09.747,(-7 -18 -6 10 45 32 -3 -17)
1969/12/31/18:00:09.758,(-31 88 85 35 -23 -51 12 12)
1969/12/31/18:00:09.758,(21 79 48 13 -16 -10 -21 -35)
1969/12/31/18:00:09.764,(-3 -4 5 -18 -5 18 -2 20)
1969/12/31/18:00:09.764,(5 15 5 -15 -10 -2 -9 0)
1969/12/31/18:00:09.778,(13 -55 -83 -27 20 21 20 28)
1969/12/31/18:00:09.778,(15 34 45 32 17 -19 2 -13)
1969/12/31/18:00:09.779,(-43 -103 -61 -11 7 4 11 -7)
1969/12/31/18:00:09.779,(-18 -3 14 -11 -31 -18 -34 -47)
1969/12/31/18:00:09.796,(-27 -115 -59 -15 -18 -11 8 5)
1969/12/31/18:00:09.796,(27 126 80 30 7 6 3 18)
1969/12/31/18:00:09.797,(-9 -14 -20 -3 7 15 19 -16)
1969/12/31/18:00:09.797,(-40 -121 -95 -37 -15 -4 -1 -26)
1969/12/31/18:00:09.808,(-11 60 46 14 9 27 -14 -36)
1969/12/31/18:00:09.808,(-23 -121 -95 -27 -4 7 4 28)
1969/12/31/18:00:09.810,(-17 127 98 36 1 -6 -6 -57)
1969/12/31/18:00:09.810,(1 8 23 11 3 -15 4 5)
1969/12/31/18:00:09.827,(-31 -113 -97 -30 -2 -6 -4 6)
1969/12/31/18:00:09.827,(42 118 82 23 28 13 12 1)
1969/12/31/18:00:09.828,(42 -91 -60 -8 -20 -25 -21 45)
1969/12/31/18:00:09.828,(18 4 12 4 -13 7 25 20)
1969/12/31/18:00:09.845,(3 59 69 27 49 24 -17 -34)
1969/12/31/18:00:09.845,(-30 -39 -8 -11 -23 3 15 -14)
1969/12/31/18:00:09.846,(40 5 -32 -24 -18 -52 0 20)
1969/12/31/18:00:09.846,(-9 -82 -48 -9 -8 3 -43 -20)
1969/12/31/18:00:09.857,(13 -77 -70 -16 7 8 -2 -17)
1969/12/31/18:00:09.857,(58 117 86 43 33 19 3 -16)
1969/12/31/18:00:09.859,(-7 85 72 4 -20 -16 12 31)
1969/12/31/18:00:09.859,(-38 -81 -60 -16 -13 -12 7 -11)
1969/12/31/18:00:09.875,(-9 7 -31 -5 0 -9 -10 9)
1969/12/31/18:00:09.875,(22 5 30 2 9 37 -2 17)
1969/12/31/18:00:09.882,(7 -42 -64 -5 1 -16 5 34)
1969/12/31/18:00:09.882,(-33 40 37 -14 -17 14 4 -43)
1969/12/31/18:00:09.894,(38 72 65 21 -1 -8 -8 -1)
1969/12/31/18:00:09.894,(-11 -9 2 7 -17 -24 -2 8)
1969/12/31/18:00:09.895,(-46 -57 -38 -25 -4 13 -16 -39)
1969/12/31/18:00:09.895,(13 -73 -34 3 23 14 1 16)
1969/12/31/18:00:09.906,(-1 29 -32 -17 -5 -20 -4 -39)
1969/12/31/18:00:09.906,(5 43 48 38 -3 2 4 -11)
1969/12/31/18:00:09.908,(47 -32 -1 18 18 31 18 31)
1969/12/31/18:00:09.908,(14 -55 -30 -10 -3 3 26 49)
1969/12/31/18:00:09.925,(-47 -70 -53 -41 -37 -34 -31 2)
1969/12/31/18:00:09.925,(0 -41 -44 -26 -4 -8 -17 -48)
1969/12/31/18:00:09.925,(11 80 43 13 10 -1 -11 -12)
1969/12/31/18:00:09.925,(3 -7 -7 19 34 19 22 36)
1969/12/31/18:00:09.943,(15 29 30 7 -14 3 4 29)
1969/12/31/18:00:09.943,(-14 -21 -51 -26 -3 0 11 -5)
1969/12/31/18:00:09.944,(-13 18 -1 -2 -1 5 -9 -11)
1969/12/31/18:00:09.944,(37 62 28 16 20 18 -10 -5)
1969/12/31/18:00:09.954,(-14 -85 -41 6 11 -3 3 -2)
1969/12/31/18:00:09.954,(-34 26 36 20 -2 5 -5 0)
1969/12/31/18:00:09.961,(-10 -128 -127 -47 -29 -7 -3 -35)
1969/12/31/18:00:09.961,(27 127 111 41 6 -3 8 -7)
1969/12/31/18:00:09.974,(-7 -53 -2 7 -9 -43 -8 -39)
1969/12/31/18:00:09.974,(-19 -105 -57 -32 -4 36 7 -7)
1969/12/31/18:00:09.978,(-33 -14 -28 -20 1 -8 2 0)
1969/12/31/18:00:09.978,(-10 17 15 14 -6 -14 -7 -1)
1969/12/31/18:00:09.992,(19 10 -11 -2 13 18 18 31)
1969/12/31/18:00:09.992,(33 -24 12 6 6 -16 -6 34)
1969/12/31/18:00:09.993,(-36 -43 -56 -22 -20 -1 3 -7)
1969/12/31/18:00:09.993,(8 66 66 35 15 4 9 -25)
1969/12/31/18:00:10.004,(0 25 4 5 -9 -8 -6 1)
1969/12/31/18:00:10.004,(24 -103 -112 -35 -20 -36 -2 34)
1969/12/31/18:00:10.009,(-19 102 100 32 3 17 -32 -20)
1969/12/31/18:00:10.009,(13 21 -15 -14 -8 -5 10 9)
1969/12/31/18:00:10.023,(-60 -41 -19 -1 17 20 16 -9)
1969/12/31/18:00:10.023,(1 36 33 22 13 10 4 -4)
1969/12/31/18:00:10.023,(-7 -128 -123 -47 -18 -21 4 20)
1969/12/31/18:00:10.023,(7 93 69 49 29 -16 -16 -28)
1969/12/31/18:00:10.040,(25 74 93 24 -13 36 -2 3)
1969/12/31/18:00:10.040,(-9 -65 -59 -38 -27 -13 8 37)
1969/12/31/18:00:10.042,(7 -57 3 11 21 22 15 -2)
1969/12/31/18:00:10.042,(-20 -70 -84 -44 -18 -10 6 9)
1969/12/31/18:00:10.053,(43 78 55 40 32 -11 -13 1)
1969/12/31/18:00:10.053,(-7 15 24 6 -1 19 15 -17)
1969/12/31/18:00:10.058,(10 23 2 7 10 12 1 5)
1969/12/31/18:00:10.058,(2 8 35 24 -3 14 15 16)
1969/12/31/18:00:10.071,(-34 -63 -63 -34 -1 -3 -6 -22)
1969/12/31/18:00:10.071,(12 -28 -61 -17 -11 -10 -20 6)
1969/12/31/18:00:10.072,(48 105 102 35 14 3 25 5)
1969/12/31/18:00:10.072,(-3 -82 -73 -29 -12 -15 -22 11)
1969/12/31/18:00:10.089,(0 -19 24 19 10 31 15 1)
1969/12/31/18:00:10.089,(-1 -35 -64 -26 2 9 12 5)
1969/12/31/18:00:10.091,(-37 10 39 16 -5 12 -31 -77)
1969/12/31/18:00:10.091,(-12 -70 -48 -28 -13 -25 -14 6)
1969/12/31/18:00:10.101,(34 46 -42 -8 1 7 11 23)
1969/12/31/18:00:10.101,(45 29 42 29 1 -14 20 42)
1969/12/31/18:00:10.108,(-26 -89 -28 2 -2 -15 -5 14)
1969/12/31/18:00:10.108,(13 3 3 -6 -10 8 3 -15)
1969/12/31/18:00:10.120,(3 -96 -70 -26 -1 -21 -24 30)
1969/12/31/18:00:10.120,(-12 32 16 -6 4 -2 -9 -20)
1969/12/31/18:00:10.122,(12 8 2 -4 -11 -10 -1 0)
1969/12/31/18:00:10.122,(-14 -22 -21 -35 -18 11 4 10)
1969/12/31/18:00:10.138,(-20 -8 6 14 4 17 16 -16)
1969/12/31/18:00:10.138,(12 45 -7 14 4 -30 -45 -22)
1969/12/31/18:00:10.140,(39 127 106 26 20 30 25 17)
1969/12/31/18:00:10.140,(-58 -128 -99 -40 -29 -17 -3 -11)
1969/12/31/18:00:10.151,(16 -51 -69 -37 -25 -9 -9 -9)
1969/12/31/18:00:10.151,(12 124 127 79 33 5 16 23)
1969/12/31/18:00:10.156,(-14 -126 -104 -28 1 -15 -3 23)
1969/12/31/18:00:10.156,(19 -70 -62 -16 -6 0 4 12)
1969/12/31/18:00:10.175,(-4 35 36 3 -2 -4 2 4)
1969/12/31/18:00:10.175,(-19 -58 -38 -10 -2 8 -9 -18)
1969/12/31/18:00:10.177,(15 52 6 5 -1 -10 0 10)
1969/12/31/18:00:10.177,(-11 23 38 11 -3 -8 8 3)
1969/12/31/18:00:10.187,(-38 -51 -17 -3 -1 -2 -44 -38)
1969/12/31/18:00:10.187,(8 -16 -19 -15 4 6 34 -2)
1969/12/31/18:00:10.189,(-11 39 1 6 -3 -21 -24 -34)
1969/12/31/18:00:10.189,(44 118 101 40 11 19 27 24)
1969/12/31/18:00:10.199,(-39 -41 -16 4 -4 20 -13 -70)
1969/12/31/18:00:10.199,(-28 -10 -1 -8 -1 -6 -8 -16)
1969/12/31/18:00:10.206,(-10 -128 -105 -62 -32 -12 -16 -8)
1969/12/31/18:00:10.206,(-5 -50 -24 2 -4 -10 3 -1)
1969/12/31/18:00:10.218,(37 127 87 69 39 -7 15 14)
1969/12/31/18:00:10.218,(19 -15 1 5 -17 -2 -2 -5)
1969/12/31/18:00:10.219,(-49 -54 -21 10 11 15 8 -9)
1969/12/31/18:00:10.219,(-15 -64 -37 -28 -8 -5 -16 1)
1969/12/31/18:00:10.236,(23 -96 -81 -43 -17 3 13 16)
1969/12/31/18:00:10.236,(-25 -39 -53 -24 -5 -8 -10 -12)
1969/12/31/18:00:10.238,(33 105 112 65 26 -6 15 23)
1969/12/31/18:00:10.238,(-11 -85 -40 -19 -4 -3 -22 -17)
1969/12/31/18:00:10.248,(40 102 65 13 -5 -7 3 17)
1969/12/31/18:00:10.248,(-43 -75 -51 -12 4 -4 0 -5)
1969/12/31/18:00:10.255,(29 15 -2 -1 5 15 15 22)
1969/12/31/18:00:10.255,(-19 -19 -21 4 -4 -5 -23 -10)
1969/12/31/18:00:10.267,(-37 -59 -95 -33 20 29 -6 -26)
1969/12/31/18:00:10.267,(-12 -29 14 -4 -13 17 17 -3)
1969/12/31/18:00:10.272,(39 59 0 9 -8 -14 -4 13)
1969/12/31/18:00:10.272,(10 -17 -8 20 11 -21 -11 -10)
1969/12/31/18:00:10.285,(7 -128 -81 -34 -29 -5 2 1)
1969/12/31/18:00:10.285,(15 2 -29 -17 -1 -1 -19 -5)
1969/12/31/18:00:10.287,(-37 23 36 7 3 0 0 -12)
1969/12/31/18:00:10.287,(-7 -91 -91 -39 0 1 11 -1)
1969/12/31/18:00:10.297,(-22 102 39 11 -4 -8 11 4)
1969/12/31/18:00:10.297,(53 77 81 41 13 5 -3 0)
1969/12/31/18:00:10.304,(-1 -83 -4 1 7 8 25 6)
1969/12/31/18:00:10.304,(-17 3 27 6 -4 2 -3 -11)
1969/12/31/18:00:10.316,(23 -18 -5 -21 -6 3 13 17)
1969/12/31/18:00:10.316,(4 0 -6 -4 -23 -11 -4 22)
1969/12/31/18:00:10.317,(-10 -1 -24 -8 0 -23 -11 -21)
1969/12/31/18:00:10.317,(-16 18 10 10 6 30 19 12)
1969/12/31/18:00:10.334,(15 26 -7 -24 -19 -11 34 6)
1969/12/31/18:00:10.334,(-25 -28 -20 30 53 2 -17 -15)
1969/12/31/18:00:10.336,(-13 -46 -38 -18 -38 -5 -22 15)
1969/12/31/18:00:10.336,(-5 51 26 21 22 8 -2 -3)
1969/12/31/18:00:10.345,(-18 -10 7 -1 -8 -6 -11 8)
1969/12/31/18:00:10.345,(41 83 82 12 4 -11 -2 12)
1969/12/31/18:00:10.353,(-20 -55 -51 -20 0 14 10 -16)
1969/12/31/18:00:10.353,(36 33 8 18 13 5 -8 13)
1969/12/31/18:00:10.365,(-11 -70 -18 -9 -16 -18 -12 6)
1969/12/31/18:00:10.365,(-8 -10 -7 -9 -2 7 -12 -20)
1969/12/31/18:00:10.366,(43 20 1 7 9 30 63 27)
1969/12/31/18:00:10.366,(-9 9 8 -11 -26 -25 -15 -16)
1969/12/31/18:00:10.383,(17 34 37 21 27 50 -41 -1)
1969/12/31/18:00:10.383,(-36 -53 -43 -22 -12 -33 2 -10)
1969/12/31/18:00:10.385,(-4 24 13 -21 -15 38 -4 -26)
1969/12/31/18:00:10.385,(22 16 -5 -4 -9 -42 -4 21)
1969/12/31/18:00:10.394,(-1 -47 -15 16 11 6 5 5)
1969/12/31/18:00:10.394,(-12 64 54 13 17 12 -16 -25)
1969/12/31/18:00:10.407,(-3 32 46 12 -5 -14 -30 -4)
1969/12/31/18:00:10.407,(15 -3 -15 -14 -4 3 -9 0)
1969/12/31/18:00:10.420,(-33 10 20 12 -1 -28 -13 -6)
1969/12/31/18:00:10.420,(-2 -37 -29 -11 -4 12 17 4)
1969/12/31/18:00:10.421,(45 56 29 3 -1 -25 -14 -4)
1969/12/31/18:00:10.421,(-14 -11 -13 -5 -4 2 13 8)
1969/12/31/18:00:10.433,(-11 10 23 10 2 -9 0 5)
1969/12/31/18:00:10.433,(-21 -61 -36 -13 -4 20 12 -24)
1969/12/31/18:00:10.434,(-34 -22 -18 -4 0 -35 -47 3)
1969/12/31/18:00:10.434,(51 63 5 -5 -4 -4 -14 4)
1969/12/31/18:00:10.451,(-16 -13 -4 -4 5 12 46 -15)
1969/12/31/18:00:10.451,(-3 2 2 -5 -7 18 -41 1)
1969/12/31/18:00:10.451,(-31 -61 -32 -8 -10 0 -25 -16)
1969/12/31/18:00:10.451,(3 26 22 3 9 17 -31 -16)
1969/12/31/18:00:10.463,(4 8 8 10 0 -28 42 7)
1969/12/31/18:00:10.463,(-16 -28 -10 -19 -42 -24 -20 1)
1969/12/31/18:00:10.464,(26 6 -2 28 56 36 9 -9)
1969/12/31/18:00:10.464,(-18 -15 -8 6 1 -12 17 10)
1969/12/31/18:00:10.481,(43 54 35 7 -3 25 1 7)
1969/12/31/18:00:10.481,(-55 -73 -43 -10 -4 -29 -5 -5)
1969/12/31/18:00:10.482,(-10 1 -16 -20 -22 -16 0 -4)
1969/12/31/18:00:10.482,(-9 17 11 -1 -2 7 -5 -19)
1969/12/31/18:00:10.492,(50 -1 0 2 2 -18 -13 41)
1969/12/31/18:00:10.492,(29 34 11 3 2 5 18 31)
1969/12/31/18:00:10.500,(-4 -28 -13 -8 -7 -7 5 1)
1969/12/31/18:00:10.500,(-20 -7 2 5 10 16 -1 -8)
1969/12/31/18:00:10.511,(-12 7 9 3 -4 -5 -7 -3)
1969/12/31/18:00:10.511,(11 -2 -4 0 5 2 -1 -2)
1969/12/31/18:00:10.517,(-7 9 3 2 1 -8 -12 -22)
1969/12/31/18:00:10.517,(2 -6 0 4 3 3 13 58)
1969/12/31/18:00:10.530,(-27 -14 -9 -5 -6 -6 -20 -40)
1969/12/31/18:00:10.530,(-18 -12 -7 -2 4 5 4 7)
1969/12/31/18:00:10.531,(19 -9 -8 -2 0 -2 8 -1)
1969/12/31/18:00:10.531,(4 9 -5 -6 -9 -5 -7 -30)
1969/12/31/18:00:10.541,(1 -4 2 -1 -1 -2 -1 1)
1969/12/31/18:00:10.541,(6 8 -4 -2 3 -1 2 -1)
1969/12/31/18:00:10.548,(-27 1 6 2 -1 0 -2 1)
1969/12/31/18:00:10.548,(14 0 0 2 1 8 14 2)
1969/12/31/18:00:10.566,(-73 -69 -36 -16 -9 -10 -18 -26)
1969/12/31/18:00:10.567,(66 25 7 9 7 8 16 23)
1969/12/31/18:00:10.568,(5 63 48 14 4 1 11 22)
1969/12/31/18:00:10.568,(-9 -17 -21 -11 -8 -5 -4 -15)
1969/12/31/18:00:10.579,(8 16 20 6 1 0 -1 0)
1969/12/31/18:00:10.579,(2 -18 -16 -3 2 3 7 12)
1969/12/31/18:00:10.580,(2 -15 -11 -2 0 0 3 -7)
1969/12/31/18:00:10.580,(19 12 17 10 9 12 23 80)
1969/12/31/18:00:10.597,(22 7 -5 -5 -4 -3 -1 23)
1969/12/31/18:00:10.597,(-12 -11 -10 -7 -4 -4 -5 -5)
1969/12/31/18:00:10.598,(3 -7 -1 0 0 -1 4 8)
1969/12/31/18:00:10.598,(9 -4 0 1 0 1 1 -13)
1969/12/31/18:00:10.609,(-17 -2 2 4 0 0 -1 -9)
1969/12/31/18:00:10.609,(8 15 9 1 0 0 3 0)
1969/12/31/18:00:10.615,(-7 -14 -15 -8 -7 -8 -5 -5)
1969/12/31/18:00:10.615,(-20 -15 -8 -4 -1 -3 -5 -24)
1969/12/31/18:00:10.628,(18 15 4 0 0 0 0 13)
1969/12/31/18:00:10.628,(-12 8 6 0 0 -4 -7 -25)
1969/12/31/18:00:10.629,(0 -13 -10 -2 -3 0 -3 3)
1969/12/31/18:00:10.629,(-12 -7 -4 -3 -2 -2 -3 -18)
1969/12/31/18:00:10.646,(8 6 4 1 0 1 -3 -8)
1969/12/31/18:00:10.646,(-2 1 -3 -4 0 -1 3 2)
1969/12/31/18:00:10.647,(-10 -16 -11 -1 -1 0 -3 -6)
1969/12/31/18:00:10.647,(-5 3 2 -2 -3 -2 -1 -14)
1969/12/31/18:00:10.658,(-3 2 -1 4 -1 -3 -3 -1)
1969/12/31/18:00:10.658,(-2 -4 -1 -1 -3 -2 -1 8)
1969/12/31/18:00:10.663,(9 -3 -6 -6 0 2 4 4)
1969/12/31/18:00:10.663,(-26 -2 -2 0 -5 -7 -16 -53)
1969/12/31/18:00:10.677,(5 3 2 3 1 -1 -1 4)
1969/12/31/18:00:10.677,(-8 -2 2 4 1 3 1 -8)
1969/12/31/18:00:10.678,(-1 -6 -2 0 0 -1 1 1)
1969/12/31/18:00:10.678,(9 0 -1 -2 2 6 12 10)
1969/12/31/18:00:10.695,(-13 -8 -6 -7 -6 -4 -4 -7)
1969/12/31/18:00:10.695,(1 5 -17 -11 -4 -6 -5 -12)
1969/12/31/18:00:10.696,(9 -4 6 12 3 -4 -9 6)
1969/12/31/18:00:10.696,(6 29 51 18 6 4 0 9)
1969/12/31/18:00:10.706,(7 -1 -5 -3 -2 3 12 13)
1969/12/31/18:00:10.706,(-7 -40 -23 -9 -6 -2 -7 -4)
1969/12/31/18:00:10.714,(-8 22 -6 -13 -5 0 0 -15)
1969/12/31/18:00:10.714,(-4 -7 -6 -4 -4 -8 -17 -11)
1969/12/31/18:00:10.726,(4 3 1 4 2 -1 -2 3)
1969/12/31/18:00:10.726,(6 4 10 3 -2 -1 6 14)
1969/12/31/18:00:10.727,(-3 -24 -21 -4 2 3 0 -1)
1969/12/31/18:00:10.727,(-2 -2 -8 -5 0 -1 -3 -6)
1969/12/31/18:00:10.743,(0 11 3 -10 -6 -5 0 -6)
1969/12/31/18:00:10.743,(-9 -8 -2 1 2 0 -15 -15)
1969/12/31/18:00:10.744,(2 0 8 1 -2 -5 6 11)
1969/12/31/18:00:10.744,(1 -10 -12 -5 -4 -4 -4 3)
1969/12/31/18:00:10.755,(-2 4 1 -1 3 6 4 0)
1969/12/31/18:00:10.755,(-7 5 5 -8 -4 -4 5 -3)
1969/12/31/18:00:10.761,(3 12 11 8 0 -2 -2 0)
1969/12/31/18:00:10.761,(-3 -23 -10 -1 1 7 5 5)
1969/12/31/18:00:10.774,(-5 -23 -51 -12 -10 -9 -6 -2)
1969/12/31/18:00:10.774,(4 47 56 18 5 3 3 -1)
1969/12/31/18:00:10.774,(-3 -18 -28 -17 -4 -1 -3 -2)
1969/12/31/18:00:10.774,(-6 12 17 2 -1 0 2 -7)
1969/12/31/18:00:10.792,(1 -7 -8 -1 1 -3 6 10)
1969/12/31/18:00:10.792,(-4 -6 -17 -5 -1 -6 -14 -18)
1969/12/31/18:00:10.793,(0 -4 3 -1 -11 1 4 6)
1969/12/31/18:00:10.793,(-9 -20 -28 -13 -5 -4 -12 -20)
1969/12/31/18:00:10.805,(6 9 18 1 -4 -1 2 9)
1969/12/31/18:00:10.805,(-1 5 8 8 2 -3 -5 -4)
1969/12/31/18:00:10.810,(-4 -8 -17 -9 -1 3 7 -3)
1969/12/31/18:00:10.810,(3 3 5 6 -1 -2 1 7)
1969/12/31/18:00:10.823,(0 7 14 5 6 8 1 -3)
1969/12/31/18:00:10.823,(-3 -11 -14 -5 -6 -7 -4 3)
1969/12/31/18:00:10.823,(-4 -14 -8 -6 -6 -5 14 -2)
1969/12/31/18:00:10.823,(5 2 1 -3 -1 0 -14 -4)
1969/12/31/18:00:10.841,(-1 0 0 3 1 -4 -5 -1)
1969/12/31/18:00:10.841,(-5 11 1 4 2 5 4 -3)
1969/12/31/18:00:10.842,(0 -36 -8 1 2 2 2 5)
1969/12/31/18:00:10.842,(5 47 27 5 4 4 8 7)
1969/12/31/18:00:10.853,(5 4 12 5 1 -1 0 1)
1969/12/31/18:00:10.853,(-1 -15 -19 -4 0 2 4 2)
1969/12/31/18:00:10.859,(-10 8 5 0 -3 -5 -14 -15)
1969/12/31/18:00:10.859,(0 -16 -16 -5 -2 -2 11 8)
1969/12/31/18:00:10.872,(-7 -16 -10 -5 -2 -1 -14 -12)
1969/12/31/18:00:10.872,(4 -2 1 -5 -4 -4 3 6)
1969/12/31/18:00:10.873,(1 9 -2 -5 0 -4 -11 -4)
1969/12/31/18:00:10.873,(0 -11 -8 0 0 -1 3 1)
1969/12/31/18:00:10.890,(1 9 8 4 2 0 5 3)
1969/12/31/18:00:10.890,(-10 -20 -3 3 2 1 -1 -3)
1969/12/31/18:00:10.891,(9 36 19 6 5 0 -3 -3)
1969/12/31/18:00:10.891,(-4 -6 -6 -5 -4 -2 2 1)
1969/12/31/18:00:10.902,(0 -13 -10 -4 -1 1 4 2)
1969/12/31/18:00:10.902,(-5 9 -12 -10 -3 -2 -8 -3)
1969/12/31/18:00:10.908,(-3 -14 -4 -3 -1 0 -7 -10)
1969/12/31/18:00:10.908,(2 27 18 -1 -3 -1 2 2)
1969/12/31/18:00:10.921,(2 -2 23 10 4 1 -1 0)
1969/12/31/18:00:10.921,(3 1 -9 3 2 2 6 9)
1969/12/31/18:00:10.921,(-3 -7 -3 8 1 -1 1 0)
1969/12/31/18:00:10.921,(3 3 -1 -2 -4 -2 0 1)
1969/12/31/18:00:10.945,(-18 -29 -23 -18 -7 -3 -9 -15)
1969/12/31/18:00:10.945,(5 3 7 1 0 0 0 -1)
1969/12/31/18:00:10.952,(0 18 19 7 1 -1 -3 -1)
1969/12/31/18:00:10.952,(5 -15 -15 -8 -4 -2 2 6)
1969/12/31/18:00:10.953,(-3 5 -1 -4 1 -4 -3 -2)
1969/12/31/18:00:10.953,(-14 -18 -8 0 -9 -1 0 -11)
1969/12/31/18:00:10.957,(5 7 -3 -6 -5 -1 4 10)
1969/12/31/18:00:10.957,(-18 -21 -12 -9 -3 -6 -17 -22)
1969/12/31/18:00:10.970,(1 -23 27 13 4 1 2 4)
1969/12/31/18:00:10.970,(20 74 19 15 10 4 4 8)
1969/12/31/18:00:10.970,(0 -6 -3 0 2 -4 -1 -3)
1969/12/31/18:00:10.970,(2 -4 -5 -9 -3 0 5 6)
1969/12/31/18:00:10.995,(-8 -5 -14 -13 -10 -6 -6 -8)
1969/12/31/18:00:10.995,(-6 -21 -14 -11 -3 -3 -3 -4)
1969/12/31/18:00:10.995,(-2 -2 25 17 5 3 1 -1)
1969/12/31/18:00:10.995,(6 46 20 17 5 1 1 1)
1969/12/31/18:00:10.999,(-2 3 0 2 0 -1 -1 -4)
1969/12/31/18:00:10.999,(1 -13 -13 -16 -9 -2 4 3)
1969/12/31/18:00:11.012,(-11 -25 -34 -34 -15 -9 -7 -5)
1969/12/31/18:00:11.012,(-1 -12 -2 16 7 0 -3 -8)
1969/12/31/18:00:11.019,(14 46 2 20 15 10 7 8)
1969/12/31/18:00:11.019,(-1 6 11 3 0 -3 -2 1)
1969/12/31/18:00:11.019,(-9 -17 -9 -6 -1 -5 -6 -8)
1969/12/31/18:00:11.019,(-12 -29 -13 -8 -6 -3 0 -3)
1969/12/31/18:00:11.037,(2 20 -7 -30 -11 -4 -3 0)
1969/12/31/18:00:11.037,(-2 -10 -15 8 1 -3 -5 -4)
1969/12/31/18:00:11.038,(5 3 3 12 6 4 2 2)
1969/12/31/18:00:11.038,(0 -3 -1 4 0 1 2 3)
1969/12/31/18:00:11.048,(1 8 10 7 3 0 -1 -3)
1969/12/31/18:00:11.048,(-9 -29 -11 -18 -7 -1 0 -1)
1969/12/31/18:00:11.055,(4 22 18 0 -3 -1 -3 -1)
1969/12/31/18:00:11.055,(0 -1 -9 -4 0 1 1 2)
1969/12/31/18:00:11.068,(-2 -13 -1 -3 -2 -2 0 -1)
1969/12/31/18:00:11.068,(2 5 14 6 5 2 -3 3)
1969/12/31/18:00:11.068,(0 6 -1 1 -4 0 -1 -2)
1969/12/31/18:00:11.068,(-3 -10 -2 -5 -6 -3 -1 -1)
1969/12/31/18:00:11.086,(-8 -30 -23 -14 -8 -3 -4 -5)
1969/12/31/18:00:11.086,(15 41 30 27 13 6 5 5)
1969/12/31/18:00:11.087,(0 12 13 10 8 3 2 1)
1969/12/31/18:00:11.087,(0 -9 -5 3 2 1 2 4)
1969/12/31/18:00:11.098,(-3 3 4 1 -6 -4 -5 -8)
1969/12/31/18:00:11.098,(-4 -17 -6 -10 -6 -4 -2 -5)
1969/12/31/18:00:11.105,(-2 -2 -18 -15 -3 -1 -1 -1)
1969/12/31/18:00:11.105,(3 7 -7 -4 1 4 3 6)
1969/12/31/18:00:11.117,(-6 1 11 5 1 -1 -2 -5)
1969/12/31/18:00:11.117,(3 -8 5 5 3 1 2 0)
1969/12/31/18:00:11.117,(-5 -2 -9 -23 -8 -5 -3 -7)
1969/12/31/18:00:11.117,(2 -6 -11 1 -2 0 2 4)
1969/12/31/18:00:11.135,(5 15 6 11 3 -3 -3 -1)
1969/12/31/18:00:11.135,(-1 -5 3 -2 -2 -2 -2 -2)
1969/12/31/18:00:11.136,(-1 2 -9 -1 -3 -3 -4 -1)
1969/12/31/18:00:11.136,(1 -6 13 2 5 2 2 1)
1969/12/31/18:00:11.147,(2 -1 1 3 -1 2 0 2)
1969/12/31/18:00:11.147,(-12 -11 -9 -3 -2 -4 -4 -10)
1969/12/31/18:00:11.154,(3 0 2 6 0 -1 -3 -1)
1969/12/31/18:00:11.154,(1 5 -3 -10 -5 -4 -3 -6)
1969/12/31/18:00:11.166,(3 1 6 6 4 3 4 7)
1969/12/31/18:00:11.166,(-7 -15 -9 -9 -5 -1 -2 -2)
1969/12/31/18:00:11.166,(-2 -2 -5 0 1 0 -1 -1)
1969/12/31/18:00:11.166,(-4 -4 -3 -3 -2 -1 -5 -5)
1969/12/31/18:00:11.184,(1 -1 1 2 1 2 4 2)
1969/12/31/18:00:11.184,(1 4 4 0 1 -1 0 3)
1969/12/31/18:00:11.185,(-5 -5 -3 3 -1 -1 -1 -3)
1969/12/31/18:00:11.185,(1 3 7 5 1 -1 0 -1)
1969/12/31/18:00:11.196,(1 4 -4 -5 -6 -3 -3 0)
1969/12/31/18:00:11.196,(-3 -4 -12 -11 -3 -1 -2 -4)
1969/12/31/18:00:11.202,(5 9 5 6 3 1 3 4)
1969/12/31/18:00:11.202,(-3 -3 6 4 1 -2 -1 -2)
1969/12/31/18:00:11.215,(-2 -5 -7 -6 -2 -2 0 -1)
1969/12/31/18:00:11.215,(-4 -7 -6 -5 -2 0 2 -1)
1969/12/31/18:00:11.215,(4 10 13 8 2 0 -2 -1)
1969/12/31/18:00:11.215,(0 5 -8 -2 -2 0 1 0)
1969/12/31/18:00:11.239,(-7 -10 -15 -6 -4 -3 -5 -6)
1969/12/31/18:00:11.239,(3 8 -1 0 0 1 -1 0)
1969/12/31/18:00:11.240,(-2 -9 1 2 0 -1 -1 0)
1969/12/31/18:00:11.240,(2 5 5 -1 -2 -2 -2 0)
1969/12/31/18:00:11.244,(1 5 3 -1 2 1 -1 0)
1969/12/31/18:00:11.244,(-1 -4 1 1 -1 -1 1 2)
1969/12/31/18:00:11.251,(-5 -5 -5 -2 -3 -1 -2 -3)
1969/12/31/18:00:11.251,(0 1 -1 0 -1 -1 -1 -1)
1969/12/31/18:00:11.264,(0 2 -2 -2 -1 0 1 2)
1969/12/31/18:00:11.264,(-3 -3 -2 -4 -5 -1 -1 1)
1969/12/31/18:00:11.264,(0 0 6 7 3 1 0 -2)
1969/12/31/18:00:11.264,(-3 -4 -15 -14 -5 -4 -1 2)
1969/12/31/18:00:11.288,(-2 -4 13 13 2 -2 -2 -3)
1969/12/31/18:00:11.288,(6 6 0 0 1 -2 -1 2)
1969/12/31/18:00:11.289,(1 3 10 4 0 0 -1 -2)
1969/12/31/18:00:11.289,(-2 -5 -3 -1 -3 -2 -2 -2)
1969/12/31/18:00:11.293,(0 1 -3 -4 -2 -2 -1 -2)
1969/12/31/18:00:11.293,(1 2 4 0 -1 0 0 0)
1969/12/31/18:00:11.300,(-6 -9 -7 -5 -2 0 -1 -2)
1969/12/31/18:00:11.300,(0 7 6 2 3 1 2 -2)
1969/12/31/18:00:11.313,(0 1 -5 -3 -2 0 2 0)
1969/12/31/18:00:11.313,(-1 -1 4 4 1 -1 -1 -4)
1969/12/31/18:00:11.313,(-2 -2 -4 -5 -3 -4 -6 -6)
1969/12/31/18:00:11.313,(-2 -5 -3 -4 -2 -1 -1 -3)
1969/12/31/18:00:11.337,(1 1 -4 -5 -2 -1 -2 -3)
1969/12/31/18:00:11.337,(-1 2 1 -1 -2 0 0 -2)
1969/12/31/18:00:11.338,(-2 -5 -4 0 2 -2 -1 -1)
1969/12/31/18:00:11.338,(-2 -1 -1 2 -2 -2 -2 -1)
1969/12/31/18:00:11.349,(1 2 4 8 4 2 0 0)
1969/12/31/18:00:11.349,(-2 -3 -3 -2 -3 -2 -1 1)
1969/12/31/18:00:11.350,(-1 -4 -4 -4 -2 -2 -1 0)
1969/12/31/18:00:11.350,(0 -1 3 2 1 -2 -1 1)
1969/12/31/18:00:11.362,(-2 -3 -5 -6 -3 -3 -4 -3)
1969/12/31/18:00:11.362,(-6 -9 -6 -6 -3 -1 -3 -3)
1969/12/31/18:00:11.362,(-1 1 -1 -2 -2 -1 2 3)
1969/12/31/18:00:11.362,(-4 -5 -9 -1 0 0 -2 -3)
1969/12/31/18:00:11.379,(5 4 14 9 6 2 1 3)
1969/12/31/18:00:11.379,(-2 0 0 -1 0 -2 -1 -1)
1969/12/31/18:00:11.380,(-4 -7 -7 -4 -5 -2 -1 -1)
1969/12/31/18:00:11.380,(1 -2 -3 -2 -2 -3 -3 -1)
1969/12/31/18:00:11.405,(-2 0 -4 -4 -4 -1 -1 -1)
1969/12/31/18:00:11.405,(1 5 6 1 0 0 -2 -1)
1969/12/31/18:00:11.406,(1 -1 -1 1 1 0 2 2)
1969/12/31/18:00:11.406,(-1 0 3 -3 -2 -2 -1 -4)
1969/12/31/18:00:11.410,(0 -4 -2 1 0 1 3 -1)
1969/12/31/18:00:11.410,(-3 -2 0 0 1 -1 -2 -4)
1969/12/31/18:00:11.410,(-2 -2 -4 -5 -3 -1 -2 -2)
1969/12/31/18:00:11.410,(0 -1 -1 1 1 0 -1 0)
1969/12/31/18:00:11.429,(-3 -2 -4 -5 -4 -2 -2 -1)
1969/12/31/18:00:11.429,(1 -2 -5 1 0 0 2 2)
1969/12/31/18:00:11.435,(1 1 2 -4 -1 0 -1 -1)
1969/12/31/18:00:11.435,(-2 -4 4 5 2 1 0 -1)
1969/12/31/18:00:11.447,(-1 -1 -1 -3 0 0 0 1)
1969/12/31/18:00:11.447,(2 3 5 1 -3 0 -1 3)
1969/12/31/18:00:11.448,(-5 -5 -11 -8 -5 -4 -2 -6)
1969/12/31/18:00:11.448,(1 -1 0 1 3 -1 1 0)
1969/12/31/18:00:11.459,(2 1 -1 -2 -2 -2 0 -1)
1969/12/31/18:00:11.459,(-3 -7 -7 -5 0 -1 -1 -2)
1969/12/31/18:00:11.459,(3 5 -1 4 6 2 2 2)
1969/12/31/18:00:11.459,(-4 -5 8 5 0 0 0 -3)
1969/12/31/18:00:11.477,(1 5 0 3 1 0 0 -3)
1969/12/31/18:00:11.477,(1 -2 1 -2 -1 0 0 0)
1969/12/31/18:00:11.478,(1 1 5 4 0 0 0 1)
1969/12/31/18:00:11.478,(-2 1 -7 -5 -3 -2 -2 -2)
1969/12/31/18:00:11.496,(-2 -6 -4 -3 -4 -4 -1 -1)
1969/12/31/18:00:11.496,(-3 -5 -7 -8 -6 -6 -4 -3)
1969/12/31/18:00:11.497,(1 0 -2 -3 -5 -1 1 1)
1969/12/31/18:00:11.497,(-4 1 -6 -6 -5 -2 -3 -4)
1969/12/31/18:00:11.508,(1 2 9 6 0 1 -2 0)
1969/12/31/18:00:11.508,(1 0 -6 1 2 2 2 0)
1969/12/31/18:00:11.508,(-6 -3 2 -2 -1 -1 -3 -5)
1969/12/31/18:00:11.508,(3 4 -1 -1 -1 -1 -1 2)
1969/12/31/18:00:11.526,(-1 -1 -3 -3 0 -1 1 0)
1969/12/31/18:00:11.526,(-2 -4 0 -3 -3 -1 -2 -2)
1969/12/31/18:00:11.527,(1 2 0 2 0 3 -1 2)
1969/12/31/18:00:11.527,(2 0 1 0 -3 1 1 0)
1969/12/31/18:00:11.545,(-5 -7 -5 -1 0 -2 -5 -4)
1969/12/31/18:00:11.545,(1 0 0 -2 -1 -2 -1 -1)
1969/12/31/18:00:11.546,(0 1 4 1 1 -1 -2 0)
1969/12/31/18:00:11.546,(-4 -1 1 1 0 -1 -3 -2)
1969/12/31/18:00:11.564,(0 -2 -5 -5 -2 0 -1 -1)
1969/12/31/18:00:11.564,(-1 1 0 0 -1 -1 1 -1)
1969/12/31/18:00:11.565,(0 3 2 0 -1 0 -1 1)
1969/12/31/18:00:11.565,(-3 -4 -1 -2 0 0 0 -2)
1969/12/31/18:00:11.577,(1 1 -1 -1 1 0 2 3)
1969/12/31/18:00:11.577,(-5 -4 -6 -5 -4 -3 -4 -6)
1969/12/31/18:00:11.577,(-1 -3 -3 -1 -1 -2 0 -1)
1969/12/31/18:00:11.577,(2 3 1 0 0 0 0 1)
1969/12/31/18:00:11.594,(-4 -2 -3 -2 -4 -3 -2 0)
1969/12/31/18:00:11.594,(2 2 5 3 3 0 1 3)
1969/12/31/18:00:11.595,(-2 -4 -2 -4 -3 -2 -2 -3)
1969/12/31/18:00:11.595,(1 0 -6 -5 -1 -1 0 0)
1969/12/31/18:00:11.605,(-2 -2 3 -2 -3 -1 -2 -2)
1969/12/31/18:00:11.605,(1 0 -2 -2 -4 -2 -1 -1)
1969/12/31/18:00:11.606,(-2 -5 -5 4 0 -1 -1 -3)
1969/12/31/18:00:11.606,(1 2 5 3 1 0 0 1)
1969/12/31/18:00:11.631,(-3 -2 -5 -3 -2 -1 -2 -3)
1969/12/31/18:00:11.631,(-4 -1 0 -3 -2 -2 -1 -2)
1969/12/31/18:00:11.631,(2 5 3 3 0 2 1 1)
1969/12/31/18:00:11.631,(0 -3 1 1 0 0 0 2)
1969/12/31/18:00:11.643,(-4 -4 -5 -6 -1 -3 -3 -8)
1969/12/31/18:00:11.643,(-5 -8 -11 -3 1 0 -2 -3)
1969/12/31/18:00:11.644,(-2 -2 3 1 3 0 1 -1)
1969/12/31/18:00:11.644,(-1 -3 1 2 -1 -2 -3 -1)
1969/12/31/18:00:11.655,(3 5 4 1 -1 1 2 1)
1969/12/31/18:00:11.655,(-2 -4 -3 -1 0 0 -1 -2)
1969/12/31/18:00:11.655,(1 1 -3 -6 0 -1 0 -1)
1969/12/31/18:00:11.655,(-3 -6 -8 -7 -2 -4 -5 -4)
1969/12/31/18:00:11.673,(-1 -3 0 0 0 -1 0 1)
1969/12/31/18:00:11.673,(2 5 2 5 1 -1 1 0)
1969/12/31/18:00:11.674,(1 2 4 1 -2 -2 0 -1)
1969/12/31/18:00:11.674,(-2 -6 -8 -3 2 -1 0 -2)
1969/12/31/18:00:11.698,(-4 -2 1 1 0 1 -1 -1)
1969/12/31/18:00:11.698,(-2 -3 -1 -4 -2 0 -1 0)
1969/12/31/18:00:11.699,(3 8 4 0 -2 -3 -3 1)
1969/12/31/18:00:11.699,(-2 1 0 0 2 0 -2 -2)
1969/12/31/18:00:11.704,(-4 -3 -6 -6 -3 -2 -2 -1)
1969/12/31/18:00:11.704,(-1 -2 1 3 3 2 1 0)
1969/12/31/18:00:11.704,(-4 -4 -6 -7 -3 -1 -1 -4)
1969/12/31/18:00:11.704,(-1 -3 -3 -3 -2 -2 0 -1)
1969/12/31/18:00:11.722,(3 4 -1 1 2 0 -3 1)
1969/12/31/18:00:11.722,(1 -4 6 2 -1 -1 -1 -1)
1969/12/31/18:00:11.723,(-2 -4 -4 -3 -5 -1 -2 0)
1969/12/31/18:00:11.723,(0 0 0 1 -1 1 -1 -1)
1969/12/31/18:00:11.741,(0 0 0 1 -3 0 1 0)
1969/12/31/18:00:11.741,(-1 3 2 1 0 0 -1 -1)
1969/12/31/18:00:11.742,(-1 -2 0 3 1 1 -1 0)
1969/12/31/18:00:11.742,(-4 -8 -3 -3 -2 -1 -1 -1)
1969/12/31/18:00:11.753,(1 1 3 0 1 -1 0 0)
1969/12/31/18:00:11.753,(-6 -2 -1 -1 -1 -2 -1 -1)
1969/12/31/18:00:11.753,(1 1 1 0 -1 0 0 0)
1969/12/31/18:00:11.753,(7 12 3 -1 -1 -2 -1 1)
1969/12/31/18:00:11.771,(-3 -6 -5 -4 -1 0 -2 -1)
1969/12/31/18:00:11.771,(1 0 -1 1 1 -2 0 -3)
1969/12/31/18:00:11.772,(-4 -7 -2 -2 1 -2 -1 -3)
1969/12/31/18:00:11.772,(-4 -5 -3 -3 -4 0 -1 -1)
1969/12/31/18:00:11.790,(-1 -1 -1 -1 -1 -1 -3 -2)
1969/12/31/18:00:11.790,(0 0 1 0 1 1 -2 0)
1969/12/31/18:00:11.791,(0 -2 -1 0 1 -1 2 1)
1969/12/31/18:00:11.791,(0 0 0 -1 -1 1 -1 -1)
1969/12/31/18:00:11.802,(0 -1 0 0 -1 -1 0 0)
1969/12/31/18:00:11.802,(0 1 -1 -2 -1 0 -3 -1)
1969/12/31/18:00:11.803,(-2 -3 -4 -3 0 0 -2 -1)
1969/12/31/18:00:11.803,(-1 -1 -1 -3 -1 0 0 -1)
1969/12/31/18:00:11.820,(-1 3 4 3 -1 -1 -1 0)
1969/12/31/18:00:11.820,(1 -2 -2 0 2 1 0 0)
1969/12/31/18:00:11.821,(0 1 -1 -2 -3 0 -1 0)
1969/12/31/18:00:11.821,(-4 -1 -3 -2 -4 -3 -1 -2)
1969/12/31/18:00:11.845,(3 -3 3 1 3 0 1 0)
1969/12/31/18:00:11.845,(1 1 6 -1 0 0 1 -1)
1969/12/31/18:00:11.846,(0 2 2 1 -1 0 0 1)
1969/12/31/18:00:11.846,(-7 -12 -11 -2 -1 -3 -5 -6)
1969/12/31/18:00:11.850,(0 2 -3 -6 -2 -3 -2 -2)
1969/12/31/18:00:11.850,(2 0 -1 -4 -4 -1 -2 1)
1969/12/31/18:00:11.857,(-7 -10 -7 -3 0 -2 -4 -4)
1969/12/31/18:00:11.857,(1 -1 -2 4 0 0 1 4)
1969/12/31/18:00:11.875,(0 1 0 0 -1 -2 -2 -1)
1969/12/31/18:00:11.875,(-2 -3 -1 -2 -1 -3 -2 -1)
1969/12/31/18:00:11.876,(1 3 -1 -6 -4 1 -1 0)
1969/12/31/18:00:11.876,(2 4 3 4 2 0 1 1)
1969/12/31/18:00:11.887,(-6 -6 -3 -2 -2 1 -1 -1)
1969/12/31/18:00:11.887,(0 1 2 2 0 0 1 1)
1969/12/31/18:00:11.888,(0 -1 -3 -2 -1 -3 -3 -2)
1969/12/31/18:00:11.888,(-1 2 5 1 0 -1 0 -1)
1969/12/31/18:00:11.899,(0 -2 -4 -2 -2 0 0 -1)
1969/12/31/18:00:11.899,(0 0 -1 4 1 0 0 2)
1969/12/31/18:00:11.905,(-1 -1 -2 -3 -2 -1 -2 -1)
1969/12/31/18:00:11.905,(-1 0 3 0 3 2 0 -1)
1969/12/31/18:00:11.918,(-1 0 -2 -4 -5 -2 -1 -3)
1969/12/31/18:00:11.918,(-1 -1 -3 1 1 1 -1 -1)
1969/12/31/18:00:11.918,(0 1 1 0 -4 -1 0 0)
1969/12/31/18:00:11.918,(0 -3 2 -1 -1 -3 -2 0)
1969/12/31/18:00:11.936,(-1 -1 -3 -3 -3 -2 -2 0)
1969/12/31/18:00:11.936,(-1 2 0 0 -2 -1 -2 1)
1969/12/31/18:00:11.937,(1 0 2 2 0 2 -1 1)
1969/12/31/18:00:11.937,(1 0 0 -2 -1 0 0 -1)
1969/12/31/18:00:11.948,(0 -2 -2 1 3 0 0 -1)
1969/12/31/18:00:11.948,(-4 -3 -3 -7 -4 -2 -3 -3)
1969/12/31/18:00:11.954,(0 2 3 4 2 0 2 0)
1969/12/31/18:00:11.954,(0 1 0 3 0 0 0 -1)
1969/12/31/18:00:11.954,(-3 -8 -10 -12 -4 -4 -4 -4)
1969/12/31/18:00:11.954,(-1 -3 -20 -25 -8 -5 -3 -3)
1969/12/31/18:00:11.955,(3 4 9 4 -5 -3 -1 -1)
1969/12/31/18:00:11.955,(-1 0 -14 5 9 3 2 -2)
1969/12/31/18:00:11.965,(-2 -5 16 11 -1 -2 3 3)
1969/12/31/18:00:11.965,(-3 0 -10 -25 -5 15 9 -2)
1969/12/31/18:00:11.972,(-1 2 8 6 -5 -23 -17 -6)
1969/12/31/18:00:11.972,(-3 -5 1 9 -2 0 3 3)
1969/12/31/18:00:11.985,(-2 -5 -14 -7 -6 1 0 -3)
1969/12/31/18:00:11.985,(-3 -5 -22 -14 1 -4 6 -1)
1969/12/31/18:00:11.985,(3 5 21 14 11 20 -5 4)
1969/12/31/18:00:11.985,(5 5 15 10 0 -6 4 12)
1969/12/31/18:00:12.003,(-4 -1 -7 -9 -2 -3 -11 -15)
1969/12/31/18:00:12.003,(-9 -5 -10 -12 -9 -8 -9 -13)
1969/12/31/18:00:12.008,(-6 -10 -20 -19 -12 1 2 -3)
1969/12/31/18:00:12.008,(0 -2 0 -9 -5 -10 0 3)
1969/12/31/18:00:12.014,(-5 -12 -18 -83 -19 -2 -2 4)
1969/12/31/18:00:12.014,(3 10 -10 72 -9 -9 -5 -4)
1969/12/31/18:00:12.021,(17 25 73 68 58 28 27 28)
1969/12/31/18:00:12.021,(1 -5 -9 -16 -11 17 6 -5)
1969/12/31/18:00:12.033,(-12 -3 -8 -10 -1 -27 -24 -20)
1969/12/31/18:00:12.033,(-3 -6 -9 -9 3 -3 -7 -8)
1969/12/31/18:00:12.034,(-11 -11 -32 -12 -11 -9 1 -16)
1969/12/31/18:00:12.034,(4 10 15 12 12 -5 -12 2)
1969/12/31/18:00:12.051,(0 -7 -10 -9 -5 7 11 8)
1969/12/31/18:00:12.051,(-4 -11 -12 -12 10 -3 -1 7)
1969/12/31/18:00:12.053,(-6 1 10 -18 -30 -5 -5 -19)
1969/12/31/18:00:12.053,(-5 -9 14 19 3 8 0 -4)
1969/12/31/18:00:12.063,(2 -12 -3 12 3 1 5 5)
1969/12/31/18:00:12.063,(3 -3 13 9 7 0 11 20)
1969/12/31/18:00:12.070,(1 -3 -19 -18 -5 -6 -5 -1)
1969/12/31/18:00:12.070,(-4 8 -8 -16 -10 -11 -20 -20)
1969/12/31/18:00:12.082,(1 12 13 31 19 12 4 3)
1969/12/31/18:00:12.082,(-2 -1 4 -9 -9 -2 0 -1)
1969/12/31/18:00:12.084,(0 0 -17 -17 -3 2 4 6)
1969/12/31/18:00:12.084,(0 2 1 2 1 -3 -3 -5)
1969/12/31/18:00:12.100,(6 12 1 21 -3 1 8 6)
1969/12/31/18:00:12.100,(8 11 3 -16 -1 4 -1 -2)
1969/12/31/18:00:12.102,(0 5 -13 -3 1 -4 -5 -5)
1969/12/31/18:00:12.102,(2 6 4 7 1 -3 -2 -1)
1969/12/31/18:00:12.112,(1 7 4 4 3 4 1 1)
1969/12/31/18:00:12.112,(-2 -3 0 -10 -5 -1 -7 -4)
1969/12/31/18:00:12.119,(-1 -3 -1 3 3 -4 -5 -2)
1969/12/31/18:00:12.119,(0 -4 -1 -4 -4 -1 9 6)
1969/12/31/18:00:12.131,(-1 -3 -2 -3 -2 2 -1 -1)
1969/12/31/18:00:12.131,(-4 -4 5 -2 -1 -1 -6 -4)
1969/12/31/18:00:12.133,(-5 -5 -6 0 -4 -4 -3 0)
1969/12/31/18:00:12.133,(-5 -4 -2 -7 2 2 2 1)
1969/12/31/18:00:12.150,(-1 -1 -1 3 0 -1 -3 -3)
1969/12/31/18:00:12.150,(-1 -2 4 3 1 -1 -3 -2)
1969/12/31/18:00:12.151,(0 -6 -3 -2 0 1 2 2)
1969/12/31/18:00:12.151,(-3 -5 -1 -4 -2 0 0 -1)
1969/12/31/18:00:12.161,(-1 -3 3 11 2 0 -2 -2)
1969/12/31/18:00:12.161,(-3 -7 1 1 -1 0 2 1)
1969/12/31/18:00:12.168,(-2 -6 -5 -5 -3 -1 -1 -1)
1969/12/31/18:00:12.168,(0 -3 0 0 -1 0 -1 -2)
1969/12/31/18:00:12.180,(-2 -2 -1 5 0 -2 0 -1)
1969/12/31/18:00:12.180,(-1 1 -1 -4 0 0 -1 -2)
1969/12/31/18:00:12.182,(-2 -2 -5 -3 -1 -3 -4 -3)
1969/12/31/18:00:12.182,(-2 0 0 0 -1 0 -3 0)
1969/12/31/18:00:12.198,(0 2 2 2 0 0 1 1)
1969/12/31/18:00:12.198,(-1 0 0 -2 -1 2 0 -1)
1969/12/31/18:00:12.200,(1 0 -3 -1 0 0 1 2)
1969/12/31/18:00:12.200,(-1 1 -6 -5 -5 -5 -2 0)
1969/12/31/18:00:12.210,(1 3 1 2 1 1 0 -2)
1969/12/31/18:00:12.210,(-5 -9 -8 -10 -5 2 12 10)
1969/12/31/18:00:12.223,(3 4 0 2 -1 -3 -4 -3)
1969/12/31/18:00:12.223,(-4 -3 -3 -5 -2 -1 3 2)
1969/12/31/18:00:12.228,(-2 -2 -1 -4 -2 -1 -1 -1)
1969/12/31/18:00:12.228,(2 3 1 1 -1 -2 -2 -1)
1969/12/31/18:00:12.234,(-6 -2 -5 -1 1 1 4 2)
1969/12/31/18:00:12.234,(6 5 3 4 1 -3 -4 -4)
1969/12/31/18:00:12.247,(-2 -6 -4 -2 -3 -1 -2 -7)
1969/12/31/18:00:12.247,(-9 -3 -1 -3 -2 -1 -2 -2)
1969/12/31/18:00:12.249,(8 5 4 1 2 -2 -3 2)
1969/12/31/18:00:12.249,(-4 1 0 -1 -1 4 4 -1)
1969/12/31/18:00:12.259,(5 0 0 3 1 0 2 4)
1969/12/31/18:00:12.259,(-8 5 6 6 6 -4 -15 -14)
1969/12/31/18:00:12.266,(-13 0 -3 -1 -3 -1 -1 -3)
1969/12/31/18:00:12.266,(10 2 -1 -1 -2 -1 9 2)
1969/12/31/18:00:12.277,(4 -3 -4 -5 -4 -6 -18 -1)
1969/12/31/18:00:12.277,(-17 -12 -3 -1 -1 2 -14 -19)
1969/12/31/18:00:12.283,(5 2 2 0 -1 -3 -10 -6)
1969/12/31/18:00:12.283,(-5 -9 -6 -5 -1 5 8 11)
1969/12/31/18:00:12.296,(4 10 2 0 -1 4 5 -1)
1969/12/31/18:00:12.296,(14 -3 5 5 2 3 1 14)
1969/12/31/18:00:12.298,(-12 -3 -1 0 -2 -10 -2 -12)
1969/12/31/18:00:12.298,(-3 -11 -9 -6 -2 5 9 8)
1969/12/31/18:00:12.307,(8 7 1 1 -1 -3 -4 -5)
1969/12/31/18:00:12.307,(-2 -4 -4 -3 -3 -8 -6 -9)
1969/12/31/18:00:12.315,(-7 -7 -7 -7 -4 3 13 5)
1969/12/31/18:00:12.315,(-25 10 16 9 4 -3 -7 -24)
1969/12/31/18:00:12.326,(42 -4 -6 -4 -1 6 22 55)
1969/12/31/18:00:12.326,(21 25 8 5 4 -7 -14 -8)
1969/12/31/18:00:12.332,(-4 -10 1 -2 -2 -2 -7 -11)
1969/12/31/18:00:12.332,(-16 -19 -12 -7 -4 3 0 17)
1969/12/31/18:00:12.345,(-26 -16 4 3 3 -3 16 8)
1969/12/31/18:00:12.345,(26 32 3 -3 -3 -6 -6 -20)
1969/12/31/18:00:12.350,(-13 -16 -12 -5 -2 8 -2 11)
1969/12/31/18:00:12.350,(0 -12 -6 0 2 2 2 -5)
1969/12/31/18:00:12.356,(-15 10 3 -2 -7 -5 -11 -23)
1969/12/31/18:00:12.356,(-25 -31 -10 -10 -8 -1 4 6)
1969/12/31/18:00:12.364,(51 41 30 23 12 4 7 16)
1969/12/31/18:00:12.364,(-42 -16 -16 -8 -3 0 -1 -29)
1969/12/31/18:00:12.375,(-4 6 0 1 1 -3 -11 -9)
1969/12/31/18:00:12.376,(-14 6 4 3 1 4 6 -10)
1969/12/31/18:00:12.381,(0 -21 -5 -8 -10 -15 7 -11)
1969/12/31/18:00:12.381,(53 18 5 3 7 18 12 38)
1969/12/31/18:00:12.400,(-6 8 7 3 -4 -11 -8 3)
1969/12/31/18:00:12.400,(-58 -42 -22 -12 -8 -17 -11 -29)
1969/12/31/18:00:12.401,(3 34 16 6 8 13 3 -28)
1969/12/31/18:00:12.401,(27 -5 -11 -5 -4 -11 -18 29)
1969/12/31/18:00:12.413,(-4 22 1 -2 0 10 18 9)
1969/12/31/18:00:12.413,(-9 -14 7 4 4 7 -6 -9)
1969/12/31/18:00:12.413,(13 31 5 2 1 -3 -17 -2)
1969/12/31/18:00:12.413,(-13 -20 2 2 -1 -11 -12 -25)
1969/12/31/18:00:12.424,(-13 24 10 5 5 23 38 -49)
1969/12/31/18:00:12.424,(31 6 -4 -7 -6 -18 -33 35)
1969/12/31/18:00:12.430,(-17 -37 -18 -9 1 28 32 4)
1969/12/31/18:00:12.430,(-41 -22 -9 -6 -6 -10 -30 -26)
1969/12/31/18:00:12.449,(-2 -17 -6 -1 -6 -47 -32 -24)
1969/12/31/18:00:12.449,(-14 0 7 11 10 31 31 6)
1969/12/31/18:00:12.450,(8 -14 -26 -23 -20 -21 -37 -18)
1969/12/31/18:00:12.450,(37 32 15 6 3 17 31 26)
1969/12/31/18:00:12.462,(-29 -19 -2 2 1 -10 -43 -44)
1969/12/31/18:00:12.462,(30 20 2 2 2 1 11 19)
1969/12/31/18:00:12.463,(-33 -37 -9 2 4 5 5 18)
1969/12/31/18:00:12.463,(6 21 7 3 -1 -5 7 -3)
1969/12/31/18:00:12.473,(22 17 4 1 2 6 -3 5)
1969/12/31/18:00:12.473,(-5 -16 -3 1 1 -8 -10 -27)
1969/12/31/18:00:12.479,(12 12 3 -4 -3 5 9 16)
1969/12/31/18:00:12.479,(-2 3 11 4 -2 -13 -5 -4)
1969/12/31/18:00:12.492,(-8 -15 -6 2 5 14 2 5)
1969/12/31/18:00:12.492,(15 -15 -16 -10 -7 16 17 46)
1969/12/31/18:00:12.493,(-48 9 8 -2 -10 -32 -55 -73)
1969/12/31/18:00:12.493,(-2 -11 -7 -3 3 -1 -17 -16)
1969/12/31/18:00:12.511,(37 -2 -6 -9 -6 12 46 50)
1969/12/31/18:00:12.511,(24 35 8 1 0 30 -31 10)
1969/12/31/18:00:12.512,(-4 -7 -8 -3 -5 -15 -5 -2)
1969/12/31/18:00:12.512,(-31 4 11 2 -2 -9 -1 -16)
1969/12/31/18:00:12.522,(6 -1 -7 -1 3 13 8 36)
1969/12/31/18:00:12.522,(-35 -50 -19 -10 -2 -7 15 -39)
1969/12/31/18:00:12.528,(83 56 18 8 0 -4 9 55)
1969/12/31/18:00:12.528,(5 -26 -14 -5 -2 7 1 6)
1969/12/31/18:00:12.541,(-18 5 -2 -3 -5 -1 14 -3)
1969/12/31/18:00:12.541,(48 18 11 5 1 -6 29 66)
1969/12/31/18:00:12.542,(-29 -43 -11 1 4 4 3 24)
1969/12/31/18:00:12.542,(-72 -9 -5 -6 -11 -23 -46 -78)
1969/12/31/18:00:12.559,(41 17 4 -3 4 10 8 11)
1969/12/31/18:00:12.559,(-21 22 9 1 -3 -3 19 7)
1969/12/31/18:00:12.560,(-60 -18 -10 -6 -3 -2 -39 -54)
1969/12/31/18:00:12.560,(22 -22 -9 -3 -4 -11 8 11)
1969/12/31/18:00:12.570,(-61 -45 -8 3 2 0 -3 24)
1969/12/31/18:00:12.570,(19 43 12 1 1 -3 -12 -78)
1969/12/31/18:00:12.577,(17 -1 -5 -6 -5 4 30 43)
1969/12/31/18:00:12.577,(32 23 8 3 3 5 9 26)
1969/12/31/18:00:12.590,(-21 -2 -2 -3 -3 -8 -29 -25)
1969/12/31/18:00:12.590,(27 1 3 3 2 -11 -1 39)
1969/12/31/18:00:12.591,(24 -4 -8 -6 -2 2 -4 -11)
1969/12/31/18:00:12.591,(-21 -9 0 3 5 8 19 51)
1969/12/31/18:00:12.608,(88 -4 -11 -10 -10 -3 10 50)
1969/12/31/18:00:12.608,(4 17 2 -5 -4 -9 -6 -7)
1969/12/31/18:00:12.609,(-51 -31 -11 -6 -2 -1 4 -45)
1969/12/31/18:00:12.609,(24 5 1 0 1 7 -3 18)
1969/12/31/18:00:12.619,(-29 2 3 2 -2 -3 -5 -30)
1969/12/31/18:00:12.619,(32 0 3 5 6 9 -6 19)
1969/12/31/18:00:12.626,(44 28 4 -1 -2 -18 24 44)
1969/12/31/18:00:12.626,(17 24 1 -2 0 24 38 13)
1969/12/31/18:00:12.639,(1 -18 0 2 -1 -13 -45 -23)
1969/12/31/18:00:12.639,(-30 0 -4 -7 -5 -3 5 -43)
1969/12/31/18:00:12.640,(38 5 6 5 6 10 12 14)
1969/12/31/18:00:12.640,(3 7 1 -2 -7 -15 -16 -15)
1969/12/31/18:00:12.657,(-34 -9 -1 -2 -2 -3 -5 -35)
1969/12/31/18:00:12.657,(-90 -33 -4 4 4 -1 -2 -29)
1969/12/31/18:00:12.659,(44 29 13 9 5 13 -10 -21)
1969/12/31/18:00:12.659,(28 10 -8 -11 -5 -1 -23 -48)
1969/12/31/18:00:12.669,(-5 8 5 -2 -12 -50 47 19)
1969/12/31/18:00:12.669,(37 -30 -14 -4 3 8 -77 21)
1969/12/31/18:00:12.675,(-2 1 2 -1 0 9 -1 6)
1969/12/31/18:00:12.675,(9 12 7 7 2 -5 2 20)
1969/12/31/18:00:12.687,(-32 -29 -10 -4 -4 -15 -11 -13)
1969/12/31/18:00:12.687,(31 23 1 -6 -11 3 31 34)
1969/12/31/18:00:12.689,(-23 -15 -2 3 3 -4 1 7)
1969/12/31/18:00:12.689,(6 -6 1 7 12 17 15 4)
1969/12/31/18:00:12.706,(-8 -2 -6 -5 -2 4 5 -2)
1969/12/31/18:00:12.706,(-33 -8 -4 -5 -14 -33 -8 -17)
1969/12/31/18:00:12.708,(-32 -3 -1 -1 2 30 22 0)
1969/12/31/18:00:12.708,(18 5 0 -3 -2 -1 10 30)
1969/12/31/18:00:12.717,(-71 -3 2 2 3 7 -6 -54)
1969/12/31/18:00:12.718,(6 -22 -12 -2 -1 -4 26 -28)
1969/12/31/18:00:12.725,(-13 -5 -6 -8 -18 -47 -78 -30)
1969/12/31/18:00:12.725,(-2 -2 7 13 22 15 -12 -12)
1969/12/31/18:00:12.736,(30 14 5 2 -8 1 2 2)
1969/12/31/18:00:12.736,(-24 -7 -8 -18 -33 -8 -8 -39)
1969/12/31/18:00:12.738,(7 -12 -4 -1 -2 11 38 49)
1969/12/31/18:00:12.738,(14 10 1 1 8 1 3 26)
1969/12/31/18:00:12.755,(20 8 4 6 10 18 -29 -32)
1969/12/31/18:00:12.755,(-2 -8 -2 -2 4 -16 18 72)
1969/12/31/18:00:12.756,(53 30 10 3 1 7 59 40)
1969/12/31/18:00:12.757,(-43 -47 -14 -5 -2 -23 -19 -41)
1969/12/31/18:00:12.766,(10 0 -2 -1 -13 30 12 24)
1969/12/31/18:00:12.766,(3 -2 5 12 20 -10 -3 -2)
1969/12/31/18:00:12.773,(-52 -9 -1 0 2 2 -7 -42)
1969/12/31/18:00:12.773,(44 20 4 18 29 -17 65 13)
1969/12/31/18:00:12.785,(29 3 -2 -7 -22 45 -25 40)
1969/12/31/18:00:12.785,(17 9 -11 -19 -26 -16 -12 -30)
1969/12/31/18:00:12.787,(-23 -8 6 -2 1 -2 -49 -40)
1969/12/31/18:00:12.787,(2 1 -1 -6 -15 7 -8 -22)
1969/12/31/18:00:12.804,(78 0 -4 9 19 -14 5 28)
1969/12/31/18:00:12.804,(-6 -7 1 8 30 2 19 52)
1969/12/31/18:00:12.805,(-8 -4 2 0 -18 1 -1 -7)
1969/12/31/18:00:12.805,(-28 0 5 17 30 -3 -22 6)
1969/12/31/18:00:12.815,(-25 17 2 -26 -38 -11 -2 -27)
1969/12/31/18:00:12.815,(-13 -34 -17 -15 -14 10 10 18)
1969/12/31/18:00:12.822,(16 -14 1 6 12 -5 15 24)
1969/12/31/18:00:12.822,(11 3 -5 -7 -2 0 -9 -15)
1969/12/31/18:00:12.834,(-61 7 10 23 21 -9 -21 -56)
1969/12/31/18:00:12.834,(14 25 11 4 3 4 10 -61)
1969/12/31/18:00:12.836,(-6 -6 -1 0 16 -3 24 10)
1969/12/31/18:00:12.836,(0 26 8 -3 -13 8 -19 -7)
1969/12/31/18:00:12.853,(-15 -42 -18 -27 -55 -22 7 5)
1969/12/31/18:00:12.853,(15 23 6 -3 -7 5 -10 -3)
1969/12/31/18:00:12.854,(-47 -22 -10 2 18 -12 -46 -38)
1969/12/31/18:00:12.854,(0 -3 -4 -6 -19 -11 -4 -5)
1969/12/31/18:00:12.864,(23 15 -1 8 21 -8 -6 17)
1969/12/31/18:00:12.864,(-43 -36 -10 9 23 21 19 13)
1969/12/31/18:00:12.871,(34 13 2 9 -4 8 13 27)
1969/12/31/18:00:12.871,(13 -17 -18 -25 -30 -22 -30 -4)
1969/12/31/18:00:12.883,(-18 9 0 -5 3 4 10 7)
1969/12/31/18:00:12.883,(-17 4 6 20 12 -3 -18 -64)
1969/12/31/18:00:12.885,(38 -69 -78 -33 -19 -12 -19 0)
1969/12/31/18:00:12.885,(-13 56 35 4 -9 16 14 38)
1969/12/31/18:00:12.901,(44 58 43 35 49 -7 21 45)
1969/12/31/18:00:12.901,(-32 -35 -41 -14 -16 15 -9 27)
1969/12/31/18:00:12.902,(52 19 30 -9 -19 -15 3 53)
1969/12/31/18:00:12.902,(-10 -33 -37 -8 -9 -11 9 -18)
1969/12/31/18:00:12.919,(30 12 8 -18 1 5 -9 -25)
1969/12/31/18:00:12.919,(-13 -42 -17 5 8 -1 9 9)
1969/12/31/18:00:12.920,(-44 -22 -57 4 79 44 15 -21)
1969/12/31/18:00:12.920,(-27 58 79 16 -53 -53 -26 -40)
1969/12/31/18:00:12.932,(-14 -49 -18 3 2 40 32 38)
1969/12/31/18:00:12.932,(23 72 28 -9 0 29 -13 -21)
1969/12/31/18:00:12.932,(-27 12 45 12 -18 -19 21 24)
1969/12/31/18:00:12.932,(13 -15 -30 -10 -3 -11 -40 -45)
1969/12/31/18:00:12.957,(-9 -31 -59 -10 6 -22 -11 -17)
1969/12/31/18:00:12.957,(-10 -23 48 12 -8 -17 5 17)
1969/12/31/18:00:12.957,(22 46 -17 -6 -9 15 5 20)
1969/12/31/18:00:12.957,(3 108 127 82 56 31 23 35)
1969/12/31/18:00:12.969,(21 -115 -64 -11 -11 -5 -4 12)
1969/12/31/18:00:12.969,(22 -20 -54 3 31 5 9 29)
1969/12/31/18:00:12.969,(-37 60 52 -16 -60 -30 -18 -36)
1969/12/31/18:00:12.969,(17 -90 -76 -20 24 10 21 58)
1969/12/31/18:00:12.980,(-38 -3 -48 -27 -21 14 -29 -44)
1969/12/31/18:00:12.980,(36 26 63 28 -1 41 44 79)
1969/12/31/18:00:12.987,(26 -33 -38 -9 7 25 -2 -28)
1969/12/31/18:00:12.987,(-3 11 -3 -31 -3 -13 -7 4)
1969/12/31/18:00:12.999,(-93 -86 -66 -15 -10 -72 -35 -83)
1969/12/31/18:00:12.999,(-47 73 -7 -2 -10 -13 -28 -92)
1969/12/31/18:00:13.000,(22 105 111 62 20 42 7 -28)
1969/12/31/18:00:13.000,(-17 -99 -92 -50 -29 11 7 -3)
1969/12/31/18:00:13.018,(24 -11 -25 1 44 -7 -9 -6)
1969/12/31/18:00:13.018,(-8 79 76 29 -43 -35 -8 -14)
1969/12/31/18:00:13.018,(48 -83 -92 -22 -2 -13 2 21)
1969/12/31/18:00:13.018,(-36 -21 52 21 7 28 -3 -37)
1969/12/31/18:00:13.036,(-27 -71 -86 -28 -20 -32 -9 -18)
1969/12/31/18:00:13.036,(58 51 40 11 10 9 2 41)
1969/12/31/18:00:13.036,(-34 0 1 20 55 32 -15 4)
1969/12/31/18:00:13.037,(18 -30 -16 -8 -40 -8 13 -7)
1969/12/31/18:00:13.048,(-5 -76 -47 -40 -33 -6 -19 -29)
1969/12/31/18:00:13.048,(-47 -128 -128 -47 0 -26 -6 9)
1969/12/31/18:00:13.049,(-18 79 34 2 -36 -30 -12 -15)
1969/12/31/18:00:13.049,(38 29 12 28 34 1 -2 -14)
1969/12/31/18:00:13.067,(7 48 76 34 37 65 30 37)
1969/12/31/18:00:13.067,(37 -125 -94 -41 -25 4 15 14)
1969/12/31/18:00:13.067,(-58 -28 30 -2 -3 -10 -14 -42)
1969/12/31/18:00:13.067,(-26 71 37 44 29 -10 -12 -9)
1969/12/31/18:00:13.078,(114 61 61 13 -25 3 -26 -27)
1969/12/31/18:00:13.078,(-45 -19 10 12 12 6 11 8)
1969/12/31/18:00:13.085,(10 -128 -114 -8 20 -1 10 23)
1969/12/31/18:00:13.085,(-16 21 -74 -66 -56 -65 -17 -12)
1969/12/31/18:00:13.097,(3 126 103 38 13 57 36 108)
1969/12/31/18:00:13.097,(-15 -103 -84 -24 6 -15 -26 -60)
1969/12/31/18:00:13.098,(11 66 4 10 34 38 20 2)
1969/12/31/18:00:13.098,(1 21 11 9 -24 11 -6 -10)
1969/12/31/18:00:13.116,(-34 -5 21 2 -6 8 32 11)
1969/12/31/18:00:13.116,(24 3 -17 -23 -26 -10 -19 -20)
1969/12/31/18:00:13.116,(19 -90 -56 -27 -14 -26 1 37)
1969/12/31/18:00:13.116,(29 -57 -39 -23 -3 -12 -10 10)
1969/12/31/18:00:13.128,(-88 -38 -16 5 1 -27 -15 -75)
1969/12/31/18:00:13.128,(35 48 -45 -30 -14 -9 -31 -38)
1969/12/31/18:00:13.129,(-27 18 36 16 -6 0 -6 -47)
1969/12/31/18:00:13.129,(24 -26 -14 12 27 35 46 92)
1969/12/31/18:00:13.147,(30 -37 -73 -4 37 56 3 -18)
1969/12/31/18:00:13.147,(-8 106 125 51 -11 -35 8 16)
1969/12/31/18:00:13.147,(-36 -56 -43 -51 -53 -35 -7 -14)
1969/12/31/18:00:13.147,(-72 -62 -44 -19 10 0 -16 -2)
1969/12/31/18:00:13.165,(28 -17 -5 4 -39 -58 -12 23)
1969/12/31/18:00:13.165,(5 70 77 45 62 71 58 53)
1969/12/31/18:00:13.165,(55 74 41 16 -10 -28 -13 22)
1969/12/31/18:00:13.165,(-74 -109 -70 -37 -17 23 20 -11)
1969/12/31/18:00:13.177,(-16 -76 -108 -37 8 -19 -13 -9)
1969/12/31/18:00:13.177,(18 61 60 65 22 -5 -7 -23)
1969/12/31/18:00:13.177,(5 27 24 23 -2 19 17 27)
1969/12/31/18:00:13.177,(-22 -59 -72 -25 -9 -3 -21 -59)
1969/12/31/18:00:13.195,(-3 -46 -8 -7 8 4 2 20)
1969/12/31/18:00:13.195,(1 -29 -20 -5 2 0 4 37)
1969/12/31/18:00:13.196,(-19 -44 -30 -11 22 -3 1 -8)
1969/12/31/18:00:13.196,(-18 -92 -90 -22 -35 -37 -35 -24)
1969/12/31/18:00:13.213,(55 127 127 69 52 36 30 79)
1969/12/31/18:00:13.213,(-32 -7 13 -14 -44 14 35 -9)
1969/12/31/18:00:13.213,(4 -38 -5 3 -11 0 -22 9)
1969/12/31/18:00:13.213,(-5 -53 -48 -15 18 23 -7 -43)
1969/12/31/18:00:13.226,(-40 -19 7 -16 -33 -48 -31 26)
1969/12/31/18:00:13.226,(28 -19 -56 -14 20 7 -1 3)
1969/12/31/18:00:13.226,(3 80 74 39 18 13 33 31)
1969/12/31/18:00:13.226,(20 -43 -30 -8 -4 -8 2 19)
1969/12/31/18:00:13.244,(47 109 105 55 23 11 -1 18)
1969/12/31/18:00:13.244,(-50 -113 -125 -52 -18 -27 -17 -17)
1969/12/31/18:00:13.244,(-6 15 33 13 -22 5 19 0)
1969/12/31/18:00:13.244,(14 -7 -4 28 22 0 -4 -17)
1969/12/31/18:00:13.262,(-12 -10 -19 -27 -15 26 0 -26)
1969/12/31/18:00:13.262,(-5 -28 1 -17 -30 -21 -15 -27)
1969/12/31/18:00:13.262,(-19 5 -6 5 8 -1 -28 -73)
1969/12/31/18:00:13.262,(-9 39 43 12 -5 16 7 15)
1969/12/31/18:00:13.275,(-16 -128 -128 -50 -7 15 -11 -6)
1969/12/31/18:00:13.275,(22 104 127 47 15 -11 -10 -14)
1969/12/31/18:00:13.275,(-6 -128 -100 -2 28 -12 3 17)
1969/12/31/18:00:13.275,(73 127 70 -3 -44 -21 -22 37)
1969/12/31/18:00:13.293,(-22 62 74 34 13 28 55 -7)
1969/12/31/18:00:13.293,(37 -107 -118 -43 6 21 3 92)
1969/12/31/18:00:13.293,(33 96 89 74 22 -3 10 -21)
1969/12/31/18:00:13.293,(-26 -128 -67 16 18 -2 -4 3)
1969/12/31/18:00:13.311,(42 -68 -88 -17 -18 -36 -22 -16)
1969/12/31/18:00:13.311,(-39 -84 -24 -13 -16 1 -5 -33)
1969/12/31/18:00:13.311,(-16 -65 -67 -52 -8 0 -28 -19)
1969/12/31/18:00:13.311,(-31 50 53 12 27 13 0 -55)
1969/12/31/18:00:13.324,(-17 25 19 4 -1 -11 9 -11)
1969/12/31/18:00:13.324,(-26 -9 -11 2 -8 -18 17 16)
1969/12/31/18:00:13.324,(17 5 -36 -46 -32 17 -19 -14)
1969/12/31/18:00:13.324,(1 12 44 11 20 56 54 46)
1969/12/31/18:00:13.341,(-9 -79 -121 -43 -14 -29 -13 -7)
1969/12/31/18:00:13.341,(69 76 79 77 90 61 9 28)
1969/12/31/18:00:13.342,(-22 -103 -49 -13 -44 -38 1 7)
1969/12/31/18:00:13.342,(60 125 58 31 3 1 16 31)
1969/12/31/18:00:13.360,(-17 -106 -54 10 20 10 23 51)
1969/12/31/18:00:13.360,(-33 -44 -104 -33 -18 -19 -34 -53)
1969/12/31/18:00:13.360,(61 127 115 48 15 10 17 48)
1969/12/31/18:00:13.360,(-5 -72 -58 -18 17 -8 -8 2)
1969/12/31/18:00:13.372,(-8 -49 -32 -18 -21 -11 -35 -28)
1969/12/31/18:00:13.372,(14 74 62 1 -20 -27 0 9)
1969/12/31/18:00:13.372,(-25 -106 -84 -15 23 9 -17 -10)
1969/12/31/18:00:13.372,(24 -15 -5 -3 -23 14 23 55)
1969/12/31/18:00:13.390,(7 36 51 9 -7 -36 -14 -21)
1969/12/31/18:00:13.390,(-51 -108 -74 -23 29 44 -17 -51)
1969/12/31/18:00:13.391,(-44 17 -21 -23 -30 -30 15 -12)
1969/12/31/18:00:13.391,(-3 0 3 -6 -15 -22 -12 -37)
1969/12/31/18:00:13.409,(-19 94 55 11 8 4 14 -9)
1969/12/31/18:00:13.409,(3 3 10 -11 -49 -19 -17 -7)
1969/12/31/18:00:13.409,(13 29 34 8 10 16 26 40)
1969/12/31/18:00:13.409,(0 -64 -64 -10 20 1 -24 -35)
1969/12/31/18:00:13.421,(-19 22 -16 -16 -31 -15 -8 -4)
1969/12/31/18:00:13.421,(22 49 36 25 18 -8 23 66)
1969/12/31/18:00:13.422,(-23 38 -7 -4 6 3 -2 -21)
1969/12/31/18:00:13.422,(-19 -36 3 4 -35 -26 -11 -4)
1969/12/31/18:00:13.439,(18 -30 -59 -12 12 10 0 0)
1969/12/31/18:00:13.439,(-30 -55 -10 7 1 -23 -11 -8)
1969/12/31/18:00:13.440,(-31 -15 -1 8 32 39 5 -6)
1969/12/31/18:00:13.440,(-13 -49 -34 -28 -23 -17 4 4)
1969/12/31/18:00:13.458,(-3 -56 -28 -8 -6 -33 -12 16)
1969/12/31/18:00:13.458,(26 77 76 30 9 48 13 -10)
1969/12/31/18:00:13.458,(-4 -120 -102 -50 -34 -33 -21 -18)
1969/12/31/18:00:13.458,(8 127 127 54 34 9 -6 -23)
1969/12/31/18:00:13.470,(-20 25 50 25 4 1 4 -4)
1969/12/31/18:00:13.470,(-9 -79 -106 -17 26 -20 -18 -30)
1969/12/31/18:00:13.470,(68 83 84 27 -21 10 9 51)
1969/12/31/18:00:13.470,(-4 51 35 -9 -36 -4 1 -3)
1969/12/31/18:00:13.488,(31 0 14 8 0 12 20 34)
1969/12/31/18:00:13.488,(-32 -51 -25 -43 -20 -9 -24 -44)
1969/12/31/18:00:13.489,(25 -34 -72 -21 9 -12 -13 3)
1969/12/31/18:00:13.489,(-52 26 52 22 21 -2 -18 -45)
1969/12/31/18:00:13.507,(-11 -7 19 14 -7 20 8 -2)
1969/12/31/18:00:13.507,(-9 -79 -74 -22 -3 20 28 1)
1969/12/31/18:00:13.507,(-30 46 58 26 20 21 4 35)
1969/12/31/18:00:13.507,(48 -48 -15 3 18 25 35 0)
1969/12/31/18:00:13.519,(22 33 4 13 14 -51 -38 -14)
1969/12/31/18:00:13.519,(-2 -29 28 -7 -31 -4 -3 13)
1969/12/31/18:00:13.519,(-41 15 -19 -35 -35 -12 11 3)
1969/12/31/18:00:13.520,(-8 31 15 11 8 -10 -16 -8)
1969/12/31/18:00:13.537,(19 -75 -47 2 25 24 23 34)
1969/12/31/18:00:13.537,(10 30 -1 4 21 -13 -30 -37)
1969/12/31/18:00:13.538,(-7 72 79 36 -18 14 22 -33)
1969/12/31/18:00:13.538,(-13 -88 -67 -39 -29 -20 -7 12)
1969/12/31/18:00:13.556,(14 -43 -54 -31 -13 25 8 0)
1969/12/31/18:00:13.556,(23 88 81 32 -2 -24 5 45)
1969/12/31/18:00:13.556,(-33 -128 -112 -10 29 -6 -12 -26)
1969/12/31/18:00:13.556,(26 79 -15 -12 -1 13 -11 2)
1969/12/31/18:00:13.568,(-20 43 73 14 -30 -14 -5 -23)
1969/12/31/18:00:13.568,(-19 -35 -47 -11 11 9 11 -11)
1969/12/31/18:00:13.568,(38 -28 2 -9 4 -7 -10 6)
1969/12/31/18:00:13.568,(-28 -70 -73 -25 -18 -5 10 22)
1969/12/31/18:00:13.586,(-18 27 30 17 37 -1 -14 -41)
1969/12/31/18:00:13.586,(32 65 30 12 -14 30 5 27)
1969/12/31/18:00:13.587,(-15 -94 -79 -36 -30 -18 -8 -11)
1969/12/31/18:00:13.587,(-6 29 33 13 0 -2 -10 18)
1969/12/31/18:00:13.605,(41 127 47 12 -15 -8 16 12)
1969/12/31/18:00:13.605,(-46 -66 -15 -6 -3 -6 3 -2)
1969/12/31/18:00:13.605,(19 62 38 11 16 -8 -8 -21)
1969/12/31/18:00:13.606,(-44 -78 -44 -17 -17 -9 -2 -7)
1969/12/31/18:00:13.616,(3 -45 -36 -20 -7 10 -9 0)
1969/12/31/18:00:13.616,(-11 2 26 7 8 -7 -3 -28)
1969/12/31/18:00:13.623,(22 20 -27 -15 -26 -16 -13 38)
1969/12/31/18:00:13.623,(20 36 42 19 19 2 3 15)
1969/12/31/18:00:13.635,(-7 -39 -49 -7 11 31 11 7)
1969/12/31/18:00:13.635,(-24 -80 -68 -42 -37 -16 5 -6)
1969/12/31/18:00:13.636,(-16 41 50 30 37 -22 -13 -46)
1969/12/31/18:00:13.636,(18 41 9 -9 -8 15 -6 -9)
1969/12/31/18:00:13.654,(-31 -26 11 3 -33 -33 -28 -17)
1969/12/31/18:00:13.654,(34 -26 -46 -19 11 14 6 27)
1969/12/31/18:00:13.655,(-12 0 -5 -7 3 6 28 4)
1969/12/31/18:00:13.655,(1 -66 -80 1 35 3 -5 0)
1969/12/31/18:00:13.665,(-27 82 90 7 -35 -5 -11 -19)
1969/12/31/18:00:13.665,(-2 -46 -29 -5 3 -27 -16 13)
1969/12/31/18:00:13.672,(19 8 34 16 0 11 9 32)
1969/12/31/18:00:13.672,(13 67 86 37 11 10 -5 -18)
1969/12/31/18:00:13.684,(-10 -87 -59 -25 -15 -28 -9 2)
1969/12/31/18:00:13.684,(13 17 8 13 0 8 5 7)
1969/12/31/18:00:13.685,(22 -59 -76 -45 -7 10 20 50)
1969/12/31/18:00:13.685,(-9 -49 -45 -6 -8 -19 -21 -25)
1969/12/31/18:00:13.703,(-8 43 44 19 27 5 -20 -38)
1969/12/31/18:00:13.703,(-32 -63 -16 -8 -25 -35 -16 -25)
1969/12/31/18:00:13.704,(7 40 59 30 16 28 11 -17)
1969/12/31/18:00:13.704,(41 18 23 -6 -6 -7 28 45)
1969/12/31/18:00:13.714,(-10 11 9 20 19 12 0 9)
1969/12/31/18:00:13.714,(21 -63 -52 -26 -37 -20 9 35)
1969/12/31/18:00:13.721,(-16 -6 1 7 9 20 -6 -18)
1969/12/31/18:00:13.721,(-4 38 15 -3 -1 24 3 -14)
1969/12/31/18:00:13.733,(-12 -45 -21 -4 14 3 3 -3)
1969/12/31/18:00:13.733,(22 -28 -91 -19 14 10 20 39)
1969/12/31/18:00:13.734,(-10 92 89 51 -12 -15 -20 -32)
1969/12/31/18:00:13.734,(-32 -108 -89 6 36 -13 -11 -8)
1969/12/31/18:00:13.752,(45 47 -3 -20 -22 33 21 41)
1969/12/31/18:00:13.752,(17 -15 58 32 7 0 -12 -24)
1969/12/31/18:00:13.752,(-53 -27 -54 -27 -20 -18 -19 -23)
1969/12/31/18:00:13.752,(6 -79 -19 2 20 5 22 10)
1969/12/31/18:00:13.763,(7 9 -22 -13 -1 1 1 4)
1969/12/31/18:00:13.763,(7 47 15 -5 2 3 -6 -15)
1969/12/31/18:00:13.770,(-8 -29 -10 -13 15 -3 -12 -12)
1969/12/31/18:00:13.770,(-16 -6 2 4 -13 10 17 1)
1969/12/31/18:00:13.782,(2 35 4 4 19 17 -15 6)
1969/12/31/18:00:13.782,(26 0 11 -2 -15 -2 9 21)
1969/12/31/18:00:13.783,(8 23 24 18 20 -1 3 15)
1969/12/31/18:00:13.783,(11 -1 -27 -8 17 -32 -28 -21)
1969/12/31/18:00:13.801,(30 58 43 6 -28 25 27 17)
1969/12/31/18:00:13.801,(-13 18 -7 -7 -17 -2 6 -3)
1969/12/31/18:00:13.801,(-23 -118 -75 -30 -15 -14 -22 -22)
1969/12/31/18:00:13.801,(42 118 124 74 36 20 9 8)
1969/12/31/18:00:13.812,(-5 -111 -104 11 26 -17 -3 -38)
1969/12/31/18:00:13.812,(35 21 7 1 -13 7 -7 16)
1969/12/31/18:00:13.819,(-10 -47 -11 -11 -18 -4 4 -9)
1969/12/31/18:00:13.819,(-5 -28 -23 -29 -25 2 -1 -8)
1969/12/31/18:00:13.831,(-10 4 -8 -4 -6 -21 -3 49)
1969/12/31/18:00:13.831,(-31 21 -12 6 21 1 -17 -51)
1969/12/31/18:00:13.832,(4 70 80 11 -12 -1 -2 -30)
1969/12/31/18:00:13.832,(36 19 -4 -3 0 -6 14 26)
1969/12/31/18:00:13.850,(-8 -70 -30 -24 -2 2 1 1)
1969/12/31/18:00:13.850,(-40 4 -20 -24 -10 -29 -26 -20)
1969/12/31/18:00:13.850,(74 91 70 47 28 9 19 49)
1969/12/31/18:00:13.850,(-27 -94 -59 -16 -21 13 -11 -20)
1969/12/31/18:00:13.868,(-20 -8 -15 -10 1 -4 -2 -14)
1969/12/31/18:00:13.868,(-4 92 83 26 9 8 -3 -25)
1969/12/31/18:00:13.869,(1 -90 -82 -23 8 -9 -6 0)
1969/12/31/18:00:13.869,(-12 -42 -32 -16 -23 -18 3 39)
1969/12/31/18:00:13.880,(13 -14 1 -9 -4 13 18 2)
1969/12/31/18:00:13.880,(-2 29 51 30 35 14 3 -10)
1969/12/31/18:00:13.880,(-5 -84 -81 -21 -31 -23 -14 8)
1969/12/31/18:00:13.880,(2 58 20 -10 -5 6 0 16)
1969/12/31/18:00:13.898,(-6 50 47 32 29 7 -5 -50)
1969/12/31/18:00:13.898,(31 -16 -24 -14 -30 -10 10 33)
1969/12/31/18:00:13.898,(3 -35 -11 5 9 -10 10 42)
1969/12/31/18:00:13.898,(-32 -61 -54 -27 -16 17 6 -5)
1969/12/31/18:00:13.910,(16 25 29 -3 -24 -14 4 19)
1969/12/31/18:00:13.910,(-15 -39 -7 17 20 5 17 -14)
1969/12/31/18:00:13.916,(-1 44 1 -21 -3 6 -8 -9)
1969/12/31/18:00:13.916,(-10 -83 -60 -8 -6 -5 -10 4)
1969/12/31/18:00:13.929,(8 96 56 15 2 4 12 11)
1969/12/31/18:00:13.929,(-8 53 70 29 33 16 3 11)
1969/12/31/18:00:13.929,(-39 -85 -86 -32 -14 -7 -21 -41)
1969/12/31/18:00:13.929,(-30 -40 -53 -33 -18 -25 -14 -28)
1969/12/31/18:00:13.947,(-7 20 53 33 17 16 5 -18)
1969/12/31/18:00:13.947,(-31 -60 -40 -5 -16 -32 -21 -21)
1969/12/31/18:00:13.948,(5 -21 -21 -14 10 32 -3 8)
1969/12/31/18:00:13.948,(14 29 2 -5 -10 -8 3 -1)
1969/12/31/18:00:13.966,(-6 -15 -14 -7 -6 -8 5 -5)
1969/12/31/18:00:13.966,(-18 13 32 7 -6 -2 -12 -4)
1969/12/31/18:00:13.967,(-14 6 -6 6 2 9 34 17)
1969/12/31/18:00:13.967,(25 -23 -2 19 14 -4 -4 7)
1969/12/31/18:00:13.984,(-26 -48 -24 -14 -12 -19 2 -1)
1969/12/31/18:00:13.984,(9 15 0 6 -4 4 -13 6)
1969/12/31/18:00:13.985,(15 -61 -57 -32 -18 8 2 -16)
1969/12/31/18:00:13.985,(3 115 103 30 13 -2 8 9)
1969/12/31/18:00:13.996,(-17 -99 -55 2 19 11 2 10)
1969/12/31/18:00:13.996,(6 -17 -20 -4 6 -13 0 7)
1969/12/31/18:00:13.997,(21 30 6 -3 -20 12 9 12)
1969/12/31/18:00:13.997,(32 127 95 33 19 1 -5 -16)
1969/12/31/18:00:14.015,(0 -77 -39 -8 3 8 -14 36)
1969/12/31/18:00:14.015,(-15 -107 -77 -39 -30 -13 14 -10)
1969/12/31/18:00:14.016,(1 66 62 33 1 -17 -8 -22)
1969/12/31/18:00:14.016,(11 21 47 3 -5 5 -9 -14)
1969/12/31/18:00:14.026,(-15 -53 -31 -5 1 -8 -8 -12)
1969/12/31/18:00:14.026,(3 -30 -37 -16 -5 -3 -4 -8)
1969/12/31/18:00:14.027,(-3 -27 -27 -4 -24 -4 4 60)
1969/12/31/18:00:14.027,(-19 -39 -1 -5 -13 -37 -17 -23)
1969/12/31/18:00:14.045,(-4 -39 -23 -8 28 50 19 15)
1969/12/31/18:00:14.045,(-3 39 15 -1 -13 2 -3 4)
1969/12/31/18:00:14.046,(25 44 11 3 11 -10 6 5)
1969/12/31/18:00:14.046,(-11 -15 11 15 8 -2 -5 0)
1969/12/31/18:00:14.064,(-24 -96 -93 -45 -34 -28 -20 -18)
1969/12/31/18:00:14.064,(66 127 115 40 12 19 27 38)
1969/12/31/18:00:14.065,(-48 -81 -15 16 21 -2 -13 -23)
1969/12/31/18:00:14.065,(0 -113 -109 -24 -1 12 10 11)
1969/12/31/18:00:14.075,(69 115 97 29 2 -3 3 25)
1969/12/31/18:00:14.075,(-3 -20 6 24 30 7 4 9)
1969/12/31/18:00:14.076,(38 -27 -28 -8 -17 -5 -9 -25)
1969/12/31/18:00:14.076,(-53 -96 -58 -38 -11 16 -2 -21)
1969/12/31/18:00:14.094,(-3 -26 -33 -18 -27 -16 -14 2)
1969/12/31/18:00:14.095,(0 35 4 -4 -3 -15 3 6)
1969/12/31/18:00:14.095,(-21 -11 7 17 25 -25 -24 -24)
1969/12/31/18:00:14.095,(4 22 -17 -22 -63 -11 3 4)
1969/12/31/18:00:14.113,(3 58 39 5 28 43 23 -10)
1969/12/31/18:00:14.113,(-26 -48 -21 -4 3 4 -13 -24)
1969/12/31/18:00:14.114,(-42 -96 -94 -31 -4 8 5 -18)
1969/12/31/18:00:14.114,(49 111 73 43 19 -11 3 28)
1969/12/31/18:00:14.124,(3 67 67 36 9 -13 10 28)
1969/12/31/18:00:14.124,(3 -48 -48 -28 -28 -7 -17 -17)
1969/12/31/18:00:14.125,(16 -41 -16 -16 -5 0 5 16)
1969/12/31/18:00:14.125,(-30 -49 -48 -14 16 9 -6 -7)
1969/12/31/18:00:14.143,(-43 1 -12 4 -7 -8 -10 -48)
1969/12/31/18:00:14.143,(54 19 0 2 9 11 13 33)
1969/12/31/18:00:14.144,(0 15 20 -13 -12 -6 -11 -19)
1969/12/31/18:00:14.144,(-15 17 17 -17 -22 5 0 -12)
1969/12/31/18:00:14.168,(-1 -12 -16 -11 12 -21 5 1)
1969/12/31/18:00:14.168,(23 24 13 45 21 31 7 9)
1969/12/31/18:00:14.168,(-88 -25 1 -2 -5 -4 -5 -17)
1969/12/31/18:00:14.168,(22 3 -1 4 4 -11 -30 -31)
1969/12/31/18:00:14.173,(10 -13 -20 -19 -22 -3 9 8)
1969/12/31/18:00:14.173,(-10 -41 -32 -26 -3 -4 -14 -2)
1969/12/31/18:00:14.174,(24 36 25 12 6 7 4 20)
1969/12/31/18:00:14.174,(-10 34 35 12 5 2 9 10)
1969/12/31/18:00:14.192,(10 24 0 -10 -31 -17 -15 -12)
1969/12/31/18:00:14.192,(42 25 -1 -54 -26 -4 15 30)
1969/12/31/18:00:14.193,(-76 -31 9 81 81 24 -24 -60)
1969/12/31/18:00:14.193,(-10 -56 -20 5 16 2 12 16)
1969/12/31/18:00:14.211,(61 22 1 -7 -18 -10 11 16)
1969/12/31/18:00:14.211,(-67 -3 17 26 9 -9 -23 -20)
1969/12/31/18:00:14.212,(66 26 -14 -51 -38 16 28 23)
1969/12/31/18:00:14.212,(5 9 5 9 1 18 22 41)
1969/12/31/18:00:14.222,(0 -16 2 13 25 -1 21 17)
1969/12/31/18:00:14.222,(-65 -20 -11 6 13 17 -30 -69)
1969/12/31/18:00:14.223,(14 31 16 -11 -23 -37 -27 4)
1969/12/31/18:00:14.223,(67 42 22 33 29 0 0 34)
1969/12/31/18:00:14.241,(-44 -25 -24 -28 -25 7 -7 -30)
1969/12/31/18:00:14.241,(-34 -20 -16 -13 -16 -32 2 -8)
1969/12/31/18:00:14.242,(-18 14 23 16 17 11 12 2)
1969/12/31/18:00:14.242,(62 21 -3 -17 -18 7 -3 -9)
1969/12/31/18:00:14.260,(52 11 -7 4 -2 -23 -16 12)
1969/12/31/18:00:14.260,(-46 -39 -10 4 10 8 -4 -3)
1969/12/31/18:00:14.260,(6 31 30 12 -2 4 22 19)
1969/12/31/18:00:14.260,(10 12 -19 -22 -11 -11 -5 -7)
1969/12/31/18:00:14.271,(-53 -56 -15 -6 -3 -11 -27 -53)
1969/12/31/18:00:14.271,(42 7 -9 4 4 2 9 -4)
1969/12/31/18:00:14.272,(-47 -24 8 -3 -9 -1 -7 -12)
1969/12/31/18:00:14.272,(-38 -13 -5 1 3 -6 -3 -11)
1969/12/31/18:00:14.290,(76 38 24 29 27 20 12 15)
1969/12/31/18:00:14.290,(-42 8 -9 -11 -11 -2 -3 -11)
1969/12/31/18:00:14.291,(0 4 -4 -15 -15 -14 -14 1)
1969/12/31/18:00:14.291,(-48 -33 -2 5 10 7 11 7)
1969/12/31/18:00:14.309,(-16 -2 1 1 -1 2 -14 -18)
1969/12/31/18:00:14.309,(64 13 12 9 6 4 9 2)
1969/12/31/18:00:14.309,(-11 10 -2 -6 -8 -3 0 2)
1969/12/31/18:00:14.309,(-91 7 -5 -13 -5 -9 -18 -54)
1969/12/31/18:00:14.327,(-22 -38 -11 -4 -1 5 5 13)
1969/12/31/18:00:14.327,(24 -8 -16 -3 -1 -1 7 23)
1969/12/31/18:00:14.327,(11 -2 -3 -1 -1 -1 -4 -21)
1969/12/31/18:00:14.327,(60 8 -1 -4 -4 -3 2 41)
1969/12/31/18:00:14.339,(-43 -25 -26 -19 -15 -11 -14 -16)
1969/12/31/18:00:14.339,(13 28 5 -15 -2 1 10 27)
1969/12/31/18:00:14.340,(3 7 7 11 -1 0 -4 -17)
1969/12/31/18:00:14.340,(-39 -17 5 -8 5 10 16 22)
1969/12/31/18:00:14.358,(43 2 -14 -15 -10 -10 -10 26)
1969/12/31/18:00:14.358,(8 5 9 19 5 4 3 3)
1969/12/31/18:00:14.358,(59 21 5 4 -1 0 -6 -2)
1969/12/31/18:00:14.358,(10 1 27 45 14 2 -5 -25)
1969/12/31/18:00:14.369,(-19 6 -7 -1 4 2 0 -10)
1969/12/31/18:00:14.369,(-11 -11 1 -8 -7 0 9 10)
1969/12/31/18:00:14.370,(1 4 -17 -28 -7 -4 -5 9)
1969/12/31/18:00:14.370,(-15 -13 -1 2 -5 -3 -5 -27)
1969/12/31/18:00:14.388,(3 -2 -5 -9 1 2 0 9)
1969/12/31/18:00:14.388,(-17 -17 -23 -16 -10 -10 -21 -66)
1969/12/31/18:00:14.393,(11 14 10 9 3 0 9 16)
1969/12/31/18:00:14.393,(-12 -16 -25 -25 -6 -3 0 -7)
1969/12/31/18:00:14.406,(-9 10 37 35 10 7 -1 -9)
1969/12/31/18:00:14.406,(7 19 -1 -11 0 4 22 46)
1969/12/31/18:00:14.407,(-2 11 0 8 1 -4 -3 5)
1969/12/31/18:00:14.407,(11 -6 24 15 7 7 1 21)
1969/12/31/18:00:14.417,(-61 -34 -28 -8 -3 -7 -12 -62)
1969/12/31/18:00:14.417,(22 22 16 1 -2 -3 -6 12)
1969/12/31/18:00:14.425,(-5 -6 -12 -11 -3 2 1 -12)
1969/12/31/18:00:14.425,(-39 -10 -19 -16 -11 -9 -12 -33)
1969/12/31/18:00:14.437,(-5 -7 4 4 3 0 1 18)
1969/12/31/18:00:14.437,(2 -10 -3 3 -2 -4 -1 15)
1969/12/31/18:00:14.438,(5 -4 -9 -5 1 5 8 11)
1969/12/31/18:00:14.438,(3 8 3 1 0 0 0 -9)
1969/12/31/18:00:14.455,(1 -3 4 -4 -4 -3 -5 -4)
1969/12/31/18:00:14.455,(-7 -2 -6 1 2 5 3 -4)
1969/12/31/18:00:14.457,(4 -12 -11 -5 -8 -8 -3 8)
1969/12/31/18:00:14.457,(14 -29 -38 -17 -4 1 16 25)
1969/12/31/18:00:14.467,(10 53 27 11 3 -2 -10 3)
1969/12/31/18:00:14.467,(0 0 20 14 6 3 -2 -7)
1969/12/31/18:00:14.473,(2 -6 -7 -3 -1 2 1 18)
1969/12/31/18:00:14.473,(0 17 18 4 -1 -1 3 -17)
1969/12/31/18:00:14.486,(-1 -32 -32 -10 -5 1 5 9)
1969/12/31/18:00:14.486,(-15 -27 -28 -8 -5 -5 -13 -13)
1969/12/31/18:00:14.487,(5 32 41 10 -2 -7 1 0)
1969/12/31/18:00:14.487,(10 -18 -33 -18 -6 -3 -9 4)
1969/12/31/18:00:14.504,(9 32 35 12 7 7 4 11)
1969/12/31/18:00:14.504,(-5 13 10 8 2 1 6 2)
1969/12/31/18:00:14.505,(4 -24 -18 -7 0 0 3 2)
1969/12/31/18:00:14.506,(8 7 -2 -3 -2 -3 -2 9)
1969/12/31/18:00:14.515,(0 -10 -4 -4 -2 1 12 7)
1969/12/31/18:00:14.515,(-13 -19 -11 -9 -7 -7 -17 -10)
1969/12/31/18:00:14.523,(-5 -1 3 3 2 -1 -5 -12)
1969/12/31/18:00:14.523,(6 20 15 8 5 2 -4 -1)
1969/12/31/18:00:14.535,(2 -9 -9 -5 0 1 4 5)
1969/12/31/18:00:14.535,(3 -1 -4 1 -1 -2 1 -1)
1969/12/31/18:00:14.536,(-3 0 4 -3 -5 -3 -1 3)
1969/12/31/18:00:14.536,(2 -8 5 0 1 -1 -5 0)
1969/12/31/18:00:14.553,(7 6 -5 11 4 2 2 6)
1969/12/31/18:00:14.553,(4 27 20 5 1 -2 -3 -4)
1969/12/31/18:00:14.555,(-1 7 3 -1 1 3 1 -3)
1969/12/31/18:00:14.555,(-2 -29 -16 -4 -2 -4 -2 1)
1969/12/31/18:00:14.571,(-2 15 9 -4 -5 -4 -6 -3)
1969/12/31/18:00:14.571,(-4 -27 2 3 3 1 2 2)
1969/12/31/18:00:14.573,(4 16 -10 -5 -2 -1 -1 0)
1969/12/31/18:00:14.573,(5 28 21 4 2 0 -3 -3)
1969/12/31/18:00:14.583,(-2 -11 -7 3 -1 -1 1 2)
1969/12/31/18:00:14.583,(1 -5 3 12 7 3 2 0)
1969/12/31/18:00:14.588,(-4 -9 -4 -9 -8 -3 -1 -1)
1969/12/31/18:00:14.588,(-11 -55 -33 -22 -10 -5 -3 -1)
1969/12/31/18:00:14.602,(16 72 76 37 14 4 -2 -3)
1969/12/31/18:00:14.602,(-6 -8 -5 -3 -4 -1 0 2)
1969/12/31/18:00:14.603,(4 -2 -29 -7 6 -2 -6 -4)
1969/12/31/18:00:14.603,(4 29 32 18 8 4 2 -2)
1969/12/31/18:00:14.613,(-7 -5 -23 -10 -2 -1 2 -4)
1969/12/31/18:00:14.613,(-18 -29 1 -12 -5 -4 -1 -4)
1969/12/31/18:00:14.620,(10 12 14 17 5 1 2 4)
1969/12/31/18:00:14.621,(-2 -1 -2 4 2 0 1 0)
1969/12/31/18:00:14.632,(-19 -77 -55 -42 -20 -10 -7 -5)
1969/12/31/18:00:14.632,(20 66 60 30 9 3 7 8)
1969/12/31/18:00:14.637,(-16 -34 16 2 -2 -1 -4 -8)
1969/12/31/18:00:14.638,(11 23 -6 2 3 2 0 4)
1969/12/31/18:00:14.651,(1 -7 12 23 7 4 6 3)
1969/12/31/18:00:14.651,(-24 -77 -59 -36 -16 -5 -3 -5)
1969/12/31/18:00:14.652,(37 103 43 21 8 0 0 8)
1969/12/31/18:00:14.652,(-17 -56 -45 -14 -8 -4 -6 -8)
1969/12/31/18:00:14.662,(-5 -28 11 -1 2 1 4 5)
1969/12/31/18:00:14.662,(7 27 -6 5 7 1 0 0)
1969/12/31/18:00:14.669,(0 6 13 10 3 4 1 2)
1969/12/31/18:00:14.669,(-5 -11 -15 -11 -7 -6 -4 -6)
1969/12/31/18:00:14.688,(4 14 -9 -7 -1 0 1 3)
1969/12/31/18:00:14.688,(-9 -23 -27 -18 -8 -4 -5 -5)
1969/12/31/18:00:14.689,(-2 -3 -14 -7 0 0 -3 -1)
1969/12/31/18:00:14.689,(3 25 20 14 6 3 -1 -2)
1969/12/31/18:00:14.700,(-15 -46 -24 -16 -8 -3 -2 -1)
1969/12/31/18:00:14.700,(8 52 51 24 5 -1 -1 -2)
1969/12/31/18:00:14.701,(-9 -27 -24 -16 -7 -2 0 -1)
1969/12/31/18:00:14.701,(-8 -10 -15 -9 -3 -1 -3 -4)
1969/12/31/18:00:14.719,(10 24 18 6 4 1 3 6)
1969/12/31/18:00:14.719,(-4 -21 -31 -15 -6 -2 -5 -5)
1969/12/31/18:00:14.723,(-6 -6 0 4 1 -1 1 -3)
1969/12/31/18:00:14.723,(-1 5 19 3 -1 -1 0 0)
1969/12/31/18:00:14.730,(2 1 -12 -8 -3 -1 -3 -4)
1969/12/31/18:00:14.730,(5 7 2 5 1 1 0 2)
1969/12/31/18:00:14.735,(-4 -5 6 4 0 0 -1 -2)
1969/12/31/18:00:14.735,(2 4 5 2 -2 -1 -1 2)
1969/12/31/18:00:14.749,(4 -3 -50 -14 -3 -4 -5 -1)
1969/12/31/18:00:14.749,(1 8 30 11 3 1 1 -1)
1969/12/31/18:00:14.750,(-8 -24 -10 -12 -6 -2 0 -2)
1969/12/31/18:00:14.750,(1 4 -3 0 -1 -2 -1 -2)
1969/12/31/18:00:14.769,(-3 1 -7 -6 -3 -2 -4 -7)
1969/12/31/18:00:14.769,(0 -10 -20 -10 -3 -3 -2 -1)
1969/12/31/18:00:14.770,(-2 0 6 5 1 0 2 3)
1969/12/31/18:00:14.770,(-9 4 1 -4 -3 -6 -8 -12)
1969/12/31/18:00:14.779,(8 16 16 5 -1 1 3 4)
1969/12/31/18:00:14.779,(-6 -9 -19 -8 -5 -4 -3 -4)
1969/12/31/18:00:14.799,(-2 -5 3 1 3 2 3 1)
1969/12/31/18:00:14.799,(2 5 0 3 2 0 3 6)
1969/12/31/18:00:14.799,(-2 5 11 0 -1 0 -2 -2)
1969/12/31/18:00:14.799,(4 7 -7 -8 -4 -2 -2 1)
1969/12/31/18:00:14.799,(3 12 10 7 -14 -4 -2 -2)
1969/12/31/18:00:14.799,(-3 -6 13 25 31 7 0 -3)
1969/12/31/18:00:14.817,(4 8 -2 6 0 4 2 2)
1969/12/31/18:00:14.817,(-3 4 3 -22 -9 -2 -5 -6)
1969/12/31/18:00:14.818,(-3 0 -9 -5 12 -2 -3 -3)
1969/12/31/18:00:14.818,(-3 -9 -9 4 -11 -2 1 3)
1969/12/31/18:00:14.829,(5 10 14 14 -1 -2 1 4)
1969/12/31/18:00:14.829,(-4 -9 -1 -3 3 2 2 1)
1969/12/31/18:00:14.830,(1 -3 -6 7 10 2 1 -1)
1969/12/31/18:00:14.830,(-3 -2 5 -12 -14 -6 -4 -2)
1969/12/31/18:00:14.848,(1 4 8 -17 -4 -2 1 4)
1969/12/31/18:00:14.848,(0 -5 -7 7 -9 -2 4 2)
1969/12/31/18:00:14.848,(-1 3 8 1 -1 1 -8 -4)
1969/12/31/18:00:14.848,(-5 -2 -16 -13 -10 -8 -4 -5)
1969/12/31/18:00:14.861,(3 8 0 14 12 1 2 5)
1969/12/31/18:00:14.861,(-1 -2 2 7 14 3 -3 -3)
1969/12/31/18:00:14.866,(-3 -10 -12 -23 -4 2 9 4)
1969/12/31/18:00:14.866,(2 1 7 29 3 1 -1 -1)
1969/12/31/18:00:14.878,(1 5 9 -3 -9 -2 -5 -4)
1969/12/31/18:00:14.878,(2 1 -3 13 9 -1 -2 -2)
1969/12/31/18:00:14.879,(-3 -1 2 2 -2 -1 -2 -3)
1969/12/31/18:00:14.879,(-6 -6 -21 -28 -12 -3 -5 -5)
1969/12/31/18:00:14.897,(-6 -9 0 1 2 -2 -4 -6)
1969/12/31/18:00:14.897,(-4 -6 -8 -8 -2 -2 -1 -2)
1969/12/31/18:00:14.897,(-3 0 -13 -32 -6 -5 -3 -7)
1969/12/31/18:00:14.897,(3 11 15 24 2 -3 -3 -3)
1969/12/31/18:00:14.908,(2 -4 0 10 5 3 5 7)
1969/12/31/18:00:14.908,(-1 -1 -6 -15 -13 -4 -5 -5)
1969/12/31/18:00:14.915,(-3 8 15 16 4 0 -1 -2)
1969/12/31/18:00:14.915,(0 -4 1 -5 2 4 3 2)
1969/12/31/18:00:14.927,(-2 2 4 2 -4 -5 -5 -7)
1969/12/31/18:00:14.927,(-3 -7 -17 -7 -1 -3 0 1)
1969/12/31/18:00:14.928,(0 0 -2 1 4 -1 -1 -2)
1969/12/31/18:00:14.928,(-5 -6 0 -3 -5 -4 -2 -3)
1969/12/31/18:00:14.946,(3 1 -12 -4 -4 -2 0 -1)
1969/12/31/18:00:14.946,(0 -1 1 -4 0 -1 -1 1)
1969/12/31/18:00:14.946,(6 5 14 17 6 4 6 7)
1969/12/31/18:00:14.946,(-1 -1 -5 -10 -7 -3 -2 0)
1969/12/31/18:00:14.957,(-6 -5 -2 0 0 -1 -2 -5)
1969/12/31/18:00:14.957,(-4 0 -4 -5 -2 -4 -7 -10)
1969/12/31/18:00:14.963,(1 0 7 11 3 0 1 4)
1969/12/31/18:00:14.963,(0 -1 -4 -7 -1 -2 0 4)
1969/12/31/18:00:14.976,(-1 -1 -2 -5 -2 0 -2 -2)
1969/12/31/18:00:14.976,(2 1 4 4 1 1 2 0)
1969/12/31/18:00:14.977,(-1 2 -2 3 0 -3 -6 -5)
1969/12/31/18:00:14.977,(-1 -4 -2 -8 -2 0 2 1)
1969/12/31/18:00:14.994,(-1 -3 -3 -1 -3 -3 -1 -2)
1969/12/31/18:00:14.994,(2 8 10 3 -1 -1 -3 -1)
1969/12/31/18:00:14.995,(-1 -13 -4 0 2 4 5 4)
1969/12/31/18:00:14.995,(-1 6 2 -5 -3 -4 -2 -3)
1969/12/31/18:00:15.006,(-2 -4 0 3 0 -1 -3 -4)
1969/12/31/18:00:15.006,(1 6 4 6 0 -2 -2 -2)
1969/12/31/18:00:15.012,(-1 -5 -3 -2 -1 0 -2 -1)
1969/12/31/18:00:15.012,(0 -16 -10 -6 -2 0 -2 -1)
1969/12/31/18:00:15.025,(-6 6 0 -1 0 -1 -2 -6)
1969/12/31/18:00:15.025,(3 -3 0 -2 0 1 1 3)
1969/12/31/18:00:15.025,(-8 -9 -2 3 1 -1 -3 -4)
1969/12/31/18:00:15.025,(-16 -9 -5 -4 -3 0 -4 -6)
1969/12/31/18:00:15.043,(20 6 8 2 2 2 6 13)
1969/12/31/18:00:15.043,(10 17 -4 -6 -4 -4 -1 2)
1969/12/31/18:00:15.044,(15 -7 -7 -4 -4 -4 -1 3)
1969/12/31/18:00:15.044,(-3 23 14 4 3 -2 -2 -6)
1969/12/31/18:00:15.062,(-13 -6 0 1 2 1 0 -5)
1969/12/31/18:00:15.062,(-21 -13 -5 0 -1 -1 -2 -3)
1969/12/31/18:00:15.063,(7 9 7 4 1 1 -1 1)
1969/12/31/18:00:15.063,(-1 -7 -9 -6 -2 -1 0 -2)
1969/12/31/18:00:15.074,(6 -1 -3 -2 -2 0 -1 2)
1969/12/31/18:00:15.074,(-2 -2 0 -1 -1 0 -1 -1)
1969/12/31/18:00:15.074,(0 -3 -8 -3 -2 -1 0 -2)
1969/12/31/18:00:15.074,(1 -1 -1 -3 -2 -1 0 1)
1969/12/31/18:00:15.092,(-1 1 6 2 1 0 0 -1)
1969/12/31/18:00:15.092,(-14 -15 -15 -9 -3 -4 -3 -5)
1969/12/31/18:00:15.093,(-5 7 10 3 1 0 0 0)
1969/12/31/18:00:15.093,(15 7 3 1 -1 -2 -1 3)
1969/12/31/18:00:15.104,(-17 -9 -3 0 0 0 1 -1)
1969/12/31/18:00:15.104,(14 -9 -5 -2 -2 -2 -3 -1)
1969/12/31/18:00:15.111,(-14 0 3 2 2 -1 -2 -5)
1969/12/31/18:00:15.111,(2 2 1 -1 0 -1 1 2)
1969/12/31/18:00:15.123,(13 5 -7 -5 -1 0 1 3)
1969/12/31/18:00:15.123,(-15 -5 3 0 -1 1 0 -1)
1969/12/31/18:00:15.123,(-2 8 3 0 -1 -1 -1 3)
1969/12/31/18:00:15.123,(-18 -20 -13 -8 -5 -4 -9 -12)
1969/12/31/18:00:15.141,(13 15 8 3 3 4 8 13)
1969/12/31/18:00:15.141,(-11 -17 -2 -1 -1 -6 -6 -12)
1969/12/31/18:00:15.142,(-8 11 8 4 2 2 4 2)
1969/12/31/18:00:15.142,(19 2 -7 -5 -3 -2 -2 4)
1969/12/31/18:00:15.160,(-5 -11 -5 -4 -3 -4 -6 -7)
1969/12/31/18:00:15.160,(-34 -15 -7 -7 -5 -2 -4 -12)
1969/12/31/18:00:15.161,(8 4 4 2 1 4 5 4)
1969/12/31/18:00:15.161,(-29 -14 -4 1 1 -4 -9 -11)
1969/12/31/18:00:15.171,(15 2 -3 0 0 -2 -2 1)
1969/12/31/18:00:15.171,(14 12 5 4 0 -6 0 14)
1969/12/31/18:00:15.172,(11 10 -4 -7 -4 7 27 -2)
1969/12/31/18:00:15.172,(-17 4 4 1 0 2 -17 -11)
1969/12/31/18:00:15.190,(2 -8 1 1 -2 -3 -10 -4)
1969/12/31/18:00:15.190,(-2 -5 -3 1 -1 1 2 3)
1969/12/31/18:00:15.191,(-8 0 1 2 1 -1 -6 9)
1969/12/31/18:00:15.191,(36 22 0 1 0 1 20 12)
1969/12/31/18:00:15.209,(-5 -5 4 3 2 0 -16 0)
1969/12/31/18:00:15.209,(22 13 -4 -8 -4 -2 -1 9)
1969/12/31/18:00:15.210,(-44 -40 -5 -1 -1 -4 -6 -17)
1969/12/31/18:00:15.210,(4 25 8 3 2 3 -5 -32)
1969/12/31/18:00:15.220,(30 11 1 2 -1 1 16 42)
1969/12/31/18:00:15.220,(-18 -4 -9 -3 -5 -18 -18 -13)
1969/12/31/18:00:15.221,(28 2 2 3 2 27 15 27)
1969/12/31/18:00:15.221,(-39 -29 -7 -2 -2 -8 -14 -12)
1969/12/31/18:00:15.239,(-10 14 -1 -3 -4 -7 -10 -40)
1969/12/31/18:00:15.239,(67 40 11 6 3 7 22 46)
1969/12/31/18:00:15.239,(-84 -56 -20 -10 -7 -15 -32 -55)
1969/12/31/18:00:15.240,(22 10 3 -3 -1 8 12 18)
1969/12/31/18:00:15.258,(9 -1 2 2 1 0 29 41)
1969/12/31/18:00:15.258,(-30 9 -11 -14 -11 -9 -45 -60)
1969/12/31/18:00:15.259,(-7 -19 -5 -3 -2 -3 -7 -9)
1969/12/31/18:00:15.259,(19 13 -2 1 5 27 17 0)
1969/12/31/18:00:15.270,(-21 -4 -1 0 -3 -35 4 -2)
1969/12/31/18:00:15.270,(-5 -14 -1 3 4 25 -1 5)
1969/12/31/18:00:15.270,(7 3 1 1 -3 -22 -19 5)
1969/12/31/18:00:15.270,(18 19 7 0 -7 -21 7 26)
1969/12/31/18:00:15.288,(-6 -6 -4 -5 -1 27 33 -11)
1969/12/31/18:00:15.288,(-19 0 -3 -6 -6 -1 -27 -21)
1969/12/31/18:00:15.289,(4 16 -1 -1 0 0 3 12)
1969/12/31/18:00:15.289,(17 -12 1 4 4 0 -2 -5)
1969/12/31/18:00:15.307,(-16 -1 7 8 6 6 2 3)
1969/12/31/18:00:15.307,(-71 -17 1 2 3 -7 -35 -56)
1969/12/31/18:00:15.308,(78 8 -7 -4 -2 3 14 69)
1969/12/31/18:00:15.308,(11 24 10 3 -4 -8 -42 -20)
1969/12/31/18:00:15.318,(-24 -45 -20 -16 -14 -27 9 -10)
1969/12/31/18:00:15.318,(10 6 4 3 10 29 45 11)
1969/12/31/18:00:15.319,(7 11 6 3 2 -2 -12 0)
1969/12/31/18:00:15.319,(-13 -25 -5 4 5 19 20 40)
1969/12/31/18:00:15.337,(-12 -4 -15 -13 -17 -24 -31 -42)
1969/12/31/18:00:15.337,(6 -25 -4 3 1 -7 14 10)
1969/12/31/18:00:15.338,(36 40 7 -1 1 3 5 36)
1969/12/31/18:00:15.338,(-26 -25 -8 -7 -3 -11 5 2)
1969/12/31/18:00:15.356,(-42 16 13 11 12 7 -33 -33)
1969/12/31/18:00:15.356,(85 2 -5 -6 -8 -2 27 64)
1969/12/31/18:00:15.357,(-8 14 6 2 0 7 -3 -25)
1969/12/31/18:00:15.357,(-32 -25 -11 -3 -1 0 -11 -39)
1969/12/31/18:00:15.368,(12 9 2 1 -1 -1 20 19)
1969/12/31/18:00:15.368,(-33 -3 8 11 7 -13 -3 1)
1969/12/31/18:00:15.369,(-1 18 1 0 -4 -13 -38 -28)
1969/12/31/18:00:15.369,(10 -37 -17 -11 -4 12 49 33)
1969/12/31/18:00:15.386,(32 18 2 -5 -8 -5 -45 13)
1969/12/31/18:00:15.386,(41 21 6 6 5 3 38 34)
1969/12/31/18:00:15.387,(-36 -31 -11 -6 -7 -10 -8 -47)
1969/12/31/18:00:15.387,(1 28 13 2 0 -11 -21 -4)
1969/12/31/18:00:15.405,(-25 -19 0 1 4 5 -8 -7)
1969/12/31/18:00:15.405,(8 5 -4 -5 -4 -2 -3 -17)
1969/12/31/18:00:15.405,(22 9 9 12 8 12 24 63)
1969/12/31/18:00:15.405,(25 -6 -4 -2 0 1 3 18)
1969/12/31/18:00:15.416,(-41 -7 -4 -4 -3 2 -13 -67)
1969/12/31/18:00:15.416,(-19 -2 6 1 0 1 -10 24)
1969/12/31/18:00:15.417,(-29 -13 -8 -6 0 3 15 -50)
1969/12/31/18:00:15.417,(18 10 5 5 4 4 6 -11)
1969/12/31/18:00:15.435,(38 7 1 -2 -1 -9 15 43)
1969/12/31/18:00:15.435,(-36 4 3 -1 -9 -12 7 -24)
1969/12/31/18:00:15.436,(-7 -11 3 3 6 15 38 4)
1969/12/31/18:00:15.436,(-19 26 3 -2 -6 -25 -17 -30)
1969/12/31/18:00:15.454,(-26 -34 -10 -3 -3 10 -12 -34)
1969/12/31/18:00:15.454,(-27 -13 5 4 4 -4 -19 -23)
1969/12/31/18:00:15.454,(-10 -8 -10 -7 -5 -2 13 3)
1969/12/31/18:00:15.454,(59 28 -1 -3 -2 -3 -2 14)
1969/12/31/18:00:15.465,(21 19 5 2 -1 -3 5 24)
1969/12/31/18:00:15.465,(9 -2 1 0 0 1 14 8)
1969/12/31/18:00:15.471,(-33 6 7 5 3 -1 -11 -51)
1969/12/31/18:00:15.471,(-5 10 6 4 6 5 0 41)
1969/12/31/18:00:15.484,(32 -25 -11 -4 -4 -1 2 -4)
1969/12/31/18:00:15.484,(-3 3 3 7 10 13 -6 -11)
1969/12/31/18:00:15.485,(18 5 -7 -10 -9 -5 4 44)
1969/12/31/18:00:15.485,(-23 -11 -5 -5 -5 -6 -12 -21)
1969/12/31/18:00:15.502,(29 43 14 5 6 11 22 51)
1969/12/31/18:00:15.502,(-47 -46 -11 -2 0 9 5 -31)
1969/12/31/18:00:15.503,(8 3 2 3 3 -5 -24 -19)
1969/12/31/18:00:15.503,(12 8 0 -1 -4 -5 7 28)
1969/12/31/18:00:15.514,(20 -5 2 3 5 10 -4 9)
1969/12/31/18:00:15.514,(16 17 4 4 3 1 16 72)
1969/12/31/18:00:15.515,(-7 0 -10 -11 -13 -20 -26 -32)
1969/12/31/18:00:15.515,(-81 -57 -17 -8 0 31 11 -48)
1969/12/31/18:00:15.533,(28 12 2 1 0 -4 -2 44)
1969/12/31/18:00:15.533,(31 11 -1 -3 -3 -3 -5 11)
1969/12/31/18:00:15.533,(40 11 -1 -1 -5 -6 11 10)
1969/12/31/18:00:15.533,(-6 -4 1 0 -1 -7 -3 -3)
1969/12/31/18:00:15.551,(-66 -21 -10 -7 1 19 -2 -33)
1969/12/31/18:00:15.551,(10 -4 -4 -6 -9 -8 -14 -15)
1969/12/31/18:00:15.552,(-36 -4 1 3 1 -1 6 11)
1969/12/31/18:00:15.552,(25 -6 -8 -9 -11 -27 -29 -40)
1969/12/31/18:00:15.564,(-4 5 1 4 8 13 0 -13)
1969/12/31/18:00:15.564,(24 0 -2 -5 -8 -12 3 27)
1969/12/31/18:00:15.564,(-26 -5 3 -1 0 3 5 -11)
1969/12/31/18:00:15.564,(-56 -23 -8 -2 -2 -5 -10 -24)
1969/12/31/18:00:15.582,(44 43 18 7 5 2 11 8)
1969/12/31/18:00:15.582,(-6 -35 -17 -12 -8 -5 -13 -1)
1969/12/31/18:00:15.582,(111 34 7 5 1 1 12 66)
1969/12/31/18:00:15.582,(5 -15 -6 -3 -3 -7 18 22)
1969/12/31/18:00:15.600,(-14 29 9 1 2 0 -11 -14)
1969/12/31/18:00:15.600,(-21 -4 0 0 5 11 21 4)
1969/12/31/18:00:15.601,(0 2 15 9 6 0 -11 -30)
1969/12/31/18:00:15.601,(2 5 -5 -4 -3 0 6 7)
1969/12/31/18:00:15.612,(4 -32 -13 -5 -4 -11 -21 -14)
1969/12/31/18:00:15.612,(-8 41 25 17 11 9 24 5)
1969/12/31/18:00:15.618,(61 6 -4 -5 -4 -5 -26 -8)
1969/12/31/18:00:15.618,(-40 4 8 3 1 -3 -1 -36)
1969/12/31/18:00:15.630,(-16 8 5 4 7 1 7 -8)
1969/12/31/18:00:15.630,(-19 -28 -18 -15 -14 -7 -18 -22)
1969/12/31/18:00:15.631,(42 8 11 8 3 2 -2 28)
1969/12/31/18:00:15.631,(-7 -27 -12 -3 -4 -6 -28 -30)
1969/12/31/18:00:15.649,(56 32 1 1 -3 -7 11 17)
1969/12/31/18:00:15.649,(-22 2 -5 -12 -11 -4 -10 -43)
1969/12/31/18:00:15.649,(-63 -24 -7 -3 9 10 16 -2)
1969/12/31/18:00:15.649,(-9 -19 -10 -10 -7 5 -20 -8)
1969/12/31/18:00:15.660,(-47 -52 -11 9 24 -18 -26 -12)
1969/12/31/18:00:15.660,(26 15 5 -2 -22 -14 7 -3)
1969/12/31/18:00:15.667,(-46 -7 -4 -6 -4 9 1 -44)
1969/12/31/18:00:15.667,(40 15 10 3 3 4 9 57)
1969/12/31/18:00:15.679,(-56 -22 -7 -4 -4 0 8 -9)
1969/12/31/18:00:15.679,(19 18 3 11 15 12 -20 -59)
1969/12/31/18:00:15.680,(44 19 0 -2 4 -15 0 38)
1969/12/31/18:00:15.680,(-55 -40 -10 -1 -4 2 2 -29)
1969/12/31/18:00:15.699,(40 32 -1 -3 3 7 -20 -11)
1969/12/31/18:00:15.699,(22 -22 -9 -10 -20 -15 -11 13)
1969/12/31/18:00:15.700,(-7 -6 -7 -14 2 9 9 18)
1969/12/31/18:00:15.700,(38 46 18 2 -17 -9 15 49)
1969/12/31/18:00:15.710,(3 -39 -15 -13 -20 -22 3 -8)
1969/12/31/18:00:15.710,(-39 -10 -3 4 3 11 -12 -34)
1969/12/31/18:00:15.716,(-18 -16 -8 0 0 3 -3 35)
1969/12/31/18:00:15.716,(13 45 18 12 18 1 6 25)
1969/12/31/18:00:15.728,(-36 -55 -10 -1 -4 -16 3 -7)
1969/12/31/18:00:15.728,(15 9 10 16 25 44 -18 60)
1969/12/31/18:00:15.728,(-106 -29 -12 -11 -21 -38 -42 -111)
1969/12/31/18:00:15.728,(19 -4 -11 -2 10 13 -12 -30)
1969/12/31/18:00:15.747,(43 29 15 3 -14 -3 8 42)
1969/12/31/18:00:15.747,(-43 0 -2 -1 10 1 7 -32)
1969/12/31/18:00:15.748,(-16 -26 -7 -13 -27 -3 11 20)
1969/12/31/18:00:15.748,(33 48 15 -8 -20 -8 10 33)
1969/12/31/18:00:15.759,(-8 -19 -12 -7 -7 15 6 -27)
1969/12/31/18:00:15.759,(-26 -22 -15 -5 3 -12 -6 11)
1969/12/31/18:00:15.765,(28 23 14 22 25 17 6 9)
1969/12/31/18:00:15.765,(-6 -28 -10 3 11 4 0 -9)
1969/12/31/18:00:15.777,(-2 9 -2 -14 -23 -33 6 5)
1969/12/31/18:00:15.777,(-1 23 17 36 82 46 26 10)
1969/12/31/18:00:15.778,(42 9 -9 -43 -71 -5 -10 7)
1969/12/31/18:00:15.778,(-18 33 21 6 -5 10 29 -18)
1969/12/31/18:00:15.796,(-3 -44 -23 -12 -4 18 -26 30)
1969/12/31/18:00:15.796,(-9 0 -6 -5 -4 -19 31 -7)
1969/12/31/18:00:15.797,(12 -3 10 40 50 -3 10 11)
1969/12/31/18:00:15.797,(-12 -14 -8 -6 1 1 -19 -3)
1969/12/31/18:00:15.807,(-8 33 7 -6 -1 25 16 -4)
1969/12/31/18:00:15.807,(42 13 2 -18 -39 -45 -14 8)
1969/12/31/18:00:15.814,(-45 -19 1 30 50 -3 -3 -1)
1969/12/31/18:00:15.814,(35 -9 -6 -16 -16 32 18 41)
1969/12/31/18:00:15.826,(-9 29 4 -6 -5 10 7 -6)
1969/12/31/18:00:15.826,(10 -58 -32 -28 -19 16 2 14)
1969/12/31/18:00:15.827,(17 30 2 0 -2 -3 6 4)
1969/12/31/18:00:15.827,(-35 5 31 40 13 -77 -31 -40)
1969/12/31/18:00:15.845,(0 -27 -8 4 9 -9 -2 -8)
1969/12/31/18:00:15.845,(-5 -3 -42 -37 -12 29 -14 -19)
1969/12/31/18:00:15.846,(-27 61 52 6 -20 -12 5 0)
1969/12/31/18:00:15.846,(5 -29 -4 6 -1 0 0 -21)
1969/12/31/18:00:15.856,(18 7 -4 2 2 -13 -29 -76)
1969/12/31/18:00:15.856,(-8 -1 17 19 -4 -44 -12 -5)
1969/12/31/18:00:15.863,(-44 -78 -59 -16 30 6 -15 -47)
1969/12/31/18:00:15.863,(-20 -4 -10 -21 -44 19 21 43)
1969/12/31/18:00:15.875,(-58 -1 1 7 -6 -23 -6 -32)
1969/12/31/18:00:15.875,(24 -38 -11 -20 -5 16 -21 -31)
1969/12/31/18:00:15.876,(34 55 -6 5 31 37 21 13)
1969/12/31/18:00:15.876,(13 10 26 17 27 4 1 25)
1969/12/31/18:00:15.900,(-2 15 12 -12 -42 -18 -13 1)
1969/12/31/18:00:15.900,(9 39 33 14 4 -15 18 14)
1969/12/31/18:00:15.900,(-18 -85 -46 -27 -51 -70 -11 8)
1969/12/31/18:00:15.900,(-10 -77 -108 -15 39 -29 -22 -22)
1969/12/31/18:00:15.913,(16 100 99 37 -7 72 23 21)
1969/12/31/18:00:15.913,(12 -44 3 4 -12 26 6 10)
1969/12/31/18:00:15.913,(-36 11 -14 1 9 36 19 -8)
1969/12/31/18:00:15.913,(53 51 32 -23 -25 -3 16 17)
1969/12/31/18:00:15.924,(-7 -50 -39 6 14 -32 -4 15)
1969/12/31/18:00:15.924,(-17 112 59 24 -11 -37 1 25)
1969/12/31/18:00:15.924,(-17 -76 23 39 68 10 11 20)
1969/12/31/18:00:15.924,(-10 -68 -91 -51 -22 94 3 -15)
1969/12/31/18:00:15.943,(11 62 9 -17 0 -6 11 31)
1969/12/31/18:00:15.943,(-2 84 82 10 -19 19 4 4)
1969/12/31/18:00:15.944,(11 9 -2 -11 -26 -50 -6 5)
1969/12/31/18:00:15.944,(-57 -53 -9 18 32 -50 -33 -44)
1969/12/31/18:00:15.962,(9 -128 -103 -26 18 42 18 26)
1969/12/31/18:00:15.962,(32 -100 -100 -44 -22 -14 10 25)
1969/12/31/18:00:15.962,(-7 102 64 1 -34 11 -26 -38)
1969/12/31/18:00:15.962,(15 44 23 5 1 -22 2 0)
1969/12/31/18:00:15.972,(-10 62 81 52 68 47 25 53)
1969/12/31/18:00:15.972,(-12 5 -10 -14 -67 -48 -13 -7)
1969/12/31/18:00:15.980,(44 -86 -82 -31 -14 14 -9 -11)
1969/12/31/18:00:15.980,(-25 -16 52 36 -25 -9 -2 5)
1969/12/31/18:00:15.992,(20 79 -5 -39 -29 -33 -12 -33)
1969/12/31/18:00:15.992,(-4 -80 -20 24 51 4 9 -7)
1969/12/31/18:00:15.993,(17 87 36 1 1 25 -10 2)
1969/12/31/18:00:15.993,(-21 67 57 34 29 5 10 -22)
1969/12/31/18:00:16.010,(8 -97 -93 -69 -80 -11 -21 -31)
1969/12/31/18:00:16.010,(22 65 30 24 14 8 3 36)
1969/12/31/18:00:16.011,(23 44 47 -1 -24 -33 -7 -14)
1969/12/31/18:00:16.011,(21 -60 -29 18 42 7 14 13)
1969/12/31/18:00:16.021,(-45 -81 -53 -10 0 -18 -5 4)
1969/12/31/18:00:16.021,(-11 -1 -28 -35 10 39 9 5)
1969/12/31/18:00:16.028,(-62 -93 -55 -6 -31 -47 -19 -23)
1969/12/31/18:00:16.028,(24 72 -45 -17 21 51 4 11)
1969/12/31/18:00:16.041,(53 119 127 127 72 21 18 2)
1969/12/31/18:00:16.041,(0 -128 -122 -21 -14 -28 5 58)
1969/12/31/18:00:16.041,(-5 8 -57 -41 -11 17 -7 -19)
1969/12/31/18:00:16.041,(6 72 104 59 26 4 34 50)
1969/12/31/18:00:16.059,(-82 -128 -128 -128 -70 -65 -27 -11)
1969/12/31/18:00:16.059,(110 127 127 127 98 60 21 31)
1969/12/31/18:00:16.060,(-19 -128 -105 -5 -20 -2 -15 -24)
1969/12/31/18:00:16.060,(-14 -128 -128 -53 -43 -2 -1 33)
1969/12/31/18:00:16.071,(-25 -54 -35 -1 51 18 15 -4)
1969/12/31/18:00:16.071,(-25 -4 -23 -34 -44 -60 -27 -38)
1969/12/31/18:00:16.077,(12 -19 23 6 26 35 2 18)
1969/12/31/18:00:16.077,(-4 -106 -85 -37 -31 -24 -18 -5)
1969/12/31/18:00:16.090,(20 58 43 24 25 47 16 -12)
1969/12/31/18:00:16.090,(24 55 54 59 45 -7 9 28)
1969/12/31/18:00:16.091,(28 -19 9 -2 -27 13 28 57)
1969/12/31/18:00:16.091,(-25 -53 -44 -23 -16 2 14 7)
1969/12/31/18:00:16.108,(-49 -7 -52 -20 3 -3 -13 -1)
1969/12/31/18:00:16.108,(-16 0 -2 -16 -19 -14 -23 -61)
1969/12/31/18:00:16.109,(-5 -14 7 31 13 -23 -10 -8)
1969/12/31/18:00:16.109,(34 74 86 38 24 -4 -2 0)
1969/12/31/18:00:16.120,(42 -55 -23 0 -18 -31 -5 12)
1969/12/31/18:00:16.120,(-20 -40 -44 -41 -54 -9 -8 -15)
1969/12/31/18:00:16.125,(-4 -91 -61 -17 30 44 13 -12)
1969/12/31/18:00:16.125,(-16 8 -44 -38 -15 -34 -18 -8)
1969/12/31/18:00:16.139,(22 57 93 56 -4 28 8 -1)
1969/12/31/18:00:16.139,(16 -98 -60 2 15 -16 -9 0)
1969/12/31/18:00:16.139,(-17 -62 -36 -11 0 -12 -11 -19)
1969/12/31/18:00:16.139,(-10 -17 -43 -39 -32 4 16 19)
1969/12/31/18:00:16.157,(74 -98 -23 37 41 -40 -24 39)
1969/12/31/18:00:16.157,(5 78 77 -14 -55 28 -1 2)
1969/12/31/18:00:16.158,(18 -35 -25 -45 -56 -31 27 73)
1969/12/31/18:00:16.158,(-7 -56 -22 14 37 20 -11 -37)
1969/12/31/18:00:16.175,(4 112 106 48 -18 -32 -19 -52)
1969/12/31/18:00:16.175,(-63 -128 -128 -21 10 -7 -8 -33)
1969/12/31/18:00:16.176,(7 -7 -44 1 7 -6 -10 -35)
1969/12/31/18:00:16.177,(-17 27 47 10 -2 19 17 -14)
1969/12/31/18:00:16.187,(-6 -128 -128 -55 -28 -38 -23 -31)
1969/12/31/18:00:16.187,(-7 51 32 -5 23 -3 17 8)
1969/12/31/18:00:16.189,(21 127 127 42 11 11 -1 -1)
1969/12/31/18:00:16.189,(-4 84 82 27 1 7 -19 -30)
1969/12/31/18:00:16.206,(-30 -16 -5 -26 -6 47 5 -15)
1969/12/31/18:00:16.206,(-33 -101 -77 -14 -12 -62 -30 -25)
1969/12/31/18:00:16.207,(16 45 -18 -24 -11 26 10 -2)
1969/12/31/18:00:16.207,(-26 -80 -14 22 12 -38 -14 -15)
1969/12/31/18:00:16.218,(16 38 -30 -18 -27 13 8 34)
1969/12/31/18:00:16.218,(-19 49 46 11 -4 -10 -12 -30)
1969/12/31/18:00:16.223,(-73 -51 -19 -9 7 1 3 -36)
1969/12/31/18:00:16.223,(61 -82 -91 -56 -41 -17 -10 10)
1969/12/31/18:00:16.236,(-42 11 42 34 30 15 1 -22)
1969/12/31/18:00:16.236,(-8 -40 -49 -7 19 7 -2 20)
1969/12/31/18:00:16.238,(9 34 28 17 -5 -12 -21 -49)
1969/12/31/18:00:16.238,(0 -58 -33 1 13 14 14 24)
1969/12/31/18:00:16.255,(-20 37 4 16 32 -7 0 24)
1969/12/31/18:00:16.255,(24 7 -7 -44 -44 -14 1 -32)
1969/12/31/18:00:16.256,(12 17 13 28 56 40 8 40)
1969/12/31/18:00:16.256,(-26 94 94 25 14 16 4 -6)
1969/12/31/18:00:16.266,(73 -60 -30 -1 3 9 26 49)
1969/12/31/18:00:16.266,(32 -47 -69 -32 -12 21 31 58)
1969/12/31/18:00:16.273,(23 79 87 33 9 -35 -9 18)
1969/12/31/18:00:16.273,(-4 -36 -27 5 1 -28 -15 -16)
1969/12/31/18:00:16.285,(-25 -15 -10 -18 13 4 6 -8)
1969/12/31/18:00:16.285,(-5 8 -4 0 -4 16 -2 -26)
1969/12/31/18:00:16.287,(21 15 11 -10 -19 4 -7 17)
1969/12/31/18:00:16.287,(41 -28 -34 -12 -11 10 28 61)
1969/12/31/18:00:16.304,(-49 33 20 20 7 -7 -7 -24)
1969/12/31/18:00:16.304,(12 -60 -51 -18 3 -10 -12 -3)
1969/12/31/18:00:16.305,(-2 55 1 -11 -3 2 5 -23)
1969/12/31/18:00:16.305,(-3 102 100 35 10 11 -25 -44)
1969/12/31/18:00:16.315,(-24 -124 -90 -44 -36 -21 -1 4)
1969/12/31/18:00:16.315,(-26 -79 -37 -10 7 0 -2 -16)
1969/12/31/18:00:16.322,(39 94 93 70 27 -8 6 16)
1969/12/31/18:00:16.322,(9 -48 -50 -29 -14 8 21 18)
1969/12/31/18:00:16.334,(-6 2 2 -17 -33 -31 -30 -12)
1969/12/31/18:00:16.334,(1 18 26 51 51 28 2 17)
1969/12/31/18:00:16.336,(-43 -128 -111 -55 -13 8 13 6)
1969/12/31/18:00:16.336,(1 49 -18 -17 -17 -20 -27 -16)
1969/12/31/18:00:16.353,(7 42 27 -11 -5 41 3 -20)
1969/12/31/18:00:16.353,(74 127 127 38 3 -10 -4 23)
1969/12/31/18:00:16.354,(-44 -117 -75 -5 17 -7 -2 -8)
1969/12/31/18:00:16.354,(25 -54 -72 -33 -31 -12 -20 -29)
1969/12/31/18:00:16.364,(57 82 63 0 -13 -9 24 69)
1969/12/31/18:00:16.364,(-1 3 18 12 12 22 4 -6)
1969/12/31/18:00:16.371,(-60 -100 -95 -11 17 -6 12 3)
1969/12/31/18:00:16.371,(-8 57 33 -21 -54 0 -3 -2)
1969/12/31/18:00:16.383,(31 28 37 39 10 -5 6 -6)
1969/12/31/18:00:16.383,(-25 -26 -34 -27 -15 12 5 -12)
1969/12/31/18:00:16.384,(11 -42 -8 15 9 -28 -15 5)
1969/12/31/18:00:16.384,(-72 -128 -90 -6 17 41 12 -33)
1969/12/31/18:00:16.401,(41 61 -2 -20 -29 -12 -3 0)
1969/12/31/18:00:16.401,(-17 87 88 16 0 1 20 7)
1969/12/31/18:00:16.408,(-18 -85 -61 -35 -19 1 -7 -24)
1969/12/31/18:00:16.408,(24 102 98 63 30 -16 7 25)
1969/12/31/18:00:16.413,(-42 -115 -51 -10 13 12 -6 -29)
1969/12/31/18:00:16.413,(-25 -46 -55 1 10 3 3 32)
1969/12/31/18:00:16.420,(32 -2 -66 -27 -8 -8 3 23)
1969/12/31/18:00:16.420,(96 59 79 62 4 15 9 21)
1969/12/31/18:00:16.432,(-28 -120 -60 -3 2 -29 -7 -17)
1969/12/31/18:00:16.432,(-29 -56 -62 -36 -29 26 -12 -20)
1969/12/31/18:00:16.434,(-23 -50 -16 -4 -17 -10 -10 10)
1969/12/31/18:00:16.434,(-22 -4 -6 -10 -1 -26 -10 -19)
1969/12/31/18:00:16.451,(13 87 43 26 41 16 -5 -16)
1969/12/31/18:00:16.451,(-54 -75 -34 -33 -34 -12 16 -54)
1969/12/31/18:00:16.452,(39 119 48 3 -15 -5 -6 1)
1969/12/31/18:00:16.452,(-17 8 24 12 39 13 -17 -19)
1969/12/31/18:00:16.461,(19 -60 -38 -24 -49 -20 14 60)
1969/12/31/18:00:16.461,(-3 -56 -49 0 20 2 -2 1)
1969/12/31/18:00:16.469,(12 65 66 14 -6 -3 1 1)
1969/12/31/18:00:16.469,(-18 -63 -88 -32 -6 -17 -4 9)
1969/12/31/18:00:16.488,(-32 39 56 29 20 -16 -16 -29)
1969/12/31/18:00:16.488,(-2 35 38 17 17 30 5 -25)
1969/12/31/18:00:16.488,(28 -28 -48 -35 -41 -1 5 17)
1969/12/31/18:00:16.488,(-39 -108 -33 12 18 -44 -5 -2)
1969/12/31/18:00:16.499,(-9 37 -58 -42 -11 57 15 3)
1969/12/31/18:00:16.499,(23 90 69 44 3 -33 -26 -28)
1969/12/31/18:00:16.501,(19 -44 4 14 -5 30 10 26)
1969/12/31/18:00:16.501,(-45 -84 -41 -19 5 7 5 -21)
1969/12/31/18:00:16.510,(-37 -62 -57 -16 -18 -7 -7 -39)
1969/12/31/18:00:16.510,(-13 -4 5 14 15 -10 19 40)
1969/12/31/18:00:16.518,(-28 53 30 12 33 6 -23 -55)
1969/12/31/18:00:16.518,(10 15 27 -13 -23 -7 -15 -20)
1969/12/31/18:00:16.529,(-8 -83 -35 22 26 14 31 27)
1969/12/31/18:00:16.529,(-5 -15 -42 -41 -21 9 -22 0)
1969/12/31/18:00:16.535,(-11 84 62 35 21 10 -3 -19)
1969/12/31/18:00:16.535,(15 -16 6 8 13 2 -2 -9)
1969/12/31/18:00:16.549,(29 78 75 21 10 13 18 18)
1969/12/31/18:00:16.549,(23 51 44 35 16 -24 -11 24)
1969/12/31/18:00:16.550,(-43 -128 -128 -52 -6 13 -3 -16)
1969/12/31/18:00:16.550,(42 126 92 2 -19 -7 12 10)
1969/12/31/18:00:16.559,(39 35 21 16 9 2 3 64)
1969/12/31/18:00:16.559,(-28 -38 -41 -24 -2 -4 -14 -63)
1969/12/31/18:00:16.567,(-15 -10 39 17 -6 -10 2 3)
1969/12/31/18:00:16.567,(26 9 -28 -12 -11 -15 -8 19)
1969/12/31/18:00:16.578,(-21 -37 -12 15 28 0 0 -25)
1969/12/31/18:00:16.578,(38 23 -1 -26 -9 13 -28 -5)
1969/12/31/18:00:16.584,(37 32 41 18 3 8 29 48)
1969/12/31/18:00:16.584,(-61 -115 -101 -27 -14 -1 -14 -38)
1969/12/31/18:00:16.598,(26 95 49 -25 3 23 5 32)
1969/12/31/18:00:16.598,(-36 -44 -5 31 34 11 38 18)
1969/12/31/18:00:16.598,(18 3 1 -2 -6 -16 -11 -26)
1969/12/31/18:00:16.598,(-4 -54 -11 -2 10 21 -9 -14)
1969/12/31/18:00:16.608,(-58 -128 -128 -37 -20 -37 -31 -43)
1969/12/31/18:00:16.608,(38 93 53 30 10 6 8 17)
1969/12/31/18:00:16.616,(15 0 48 0 -15 -3 0 12)
1969/12/31/18:00:16.616,(-45 -2 -30 -11 -18 -9 4 -6)
1969/12/31/18:00:16.627,(-17 1 21 5 3 1 -11 -20)
1969/12/31/18:00:16.627,(7 -128 -87 -22 -16 -19 -1 25)
1969/12/31/18:00:16.633,(-9 99 73 18 8 -7 -13 -55)
1969/12/31/18:00:16.633,(26 24 14 -5 -3 3 -4 11)
1969/12/31/18:00:16.647,(-55 -86 -58 -12 -19 -6 0 -5)
1969/12/31/18:00:16.647,(-22 0 18 3 -4 13 -6 -15)
1969/12/31/18:00:16.647,(38 59 20 16 23 -4 13 38)
1969/12/31/18:00:16.647,(-5 -47 -39 -21 -21 5 8 4)
1969/12/31/18:00:16.657,(64 101 52 31 28 10 13 45)
1969/12/31/18:00:16.657,(-32 -106 -55 -30 -27 -32 -11 13)
1969/12/31/18:00:16.665,(3 39 30 26 5 3 -4 -2)
1969/12/31/18:00:16.665,(46 29 -9 -12 7 -11 15 45)
1969/12/31/18:00:16.676,(-35 -23 10 -12 -40 -22 -23 -30)
1969/12/31/18:00:16.676,(12 -65 -71 -23 19 43 8 6)
1969/12/31/18:00:16.682,(39 66 44 10 14 14 2 31)
1969/12/31/18:00:16.682,(-36 -59 -39 14 12 8 19 28)
1969/12/31/18:00:16.696,(13 79 63 -4 -16 -23 -24 -39)
1969/12/31/18:00:16.696,(12 -17 -26 -26 -26 -20 -1 -13)
1969/12/31/18:00:16.696,(11 44 40 17 -1 1 19 9)
1969/12/31/18:00:16.696,(-29 -23 10 22 21 3 -8 14)
1969/12/31/18:00:16.713,(-6 -13 -13 -7 -6 6 5 -1)
1969/12/31/18:00:16.713,(-8 -41 -22 0 -13 -24 -7 -29)
1969/12/31/18:00:16.715,(-50 -128 -118 -53 -31 3 2 28)
1969/12/31/18:00:16.715,(33 47 -10 -28 -23 1 6 10)
1969/12/31/18:00:16.725,(17 77 95 71 35 5 6 -19)
1969/12/31/18:00:16.726,(-10 -31 -27 -14 -19 -18 2 21)
1969/12/31/18:00:16.731,(1 -102 -99 -7 25 -16 -7 -16)
1969/12/31/18:00:16.731,(33 107 87 24 -7 30 -20 6)
1969/12/31/18:00:16.744,(6 -36 -41 -34 -17 5 11 -5)
1969/12/31/18:00:16.744,(47 127 95 24 13 13 11 31)
1969/12/31/18:00:16.745,(-19 -35 -18 20 32 2 8 10)
1969/12/31/18:00:16.745,(-12 -31 -27 -4 -11 -20 -23 -50)
1969/12/31/18:00:16.762,(12 -11 -22 -30 -19 14 3 4)
1969/12/31/18:00:16.762,(-7 36 67 26 -7 -23 -19 2)
1969/12/31/18:00:16.763,(-4 -96 -58 -22 30 39 9 6)
1969/12/31/18:00:16.763,(-19 -39 -40 -13 -9 -33 -15 -32)
1969/12/31/18:00:16.774,(38 72 39 26 14 5 21 60)
1969/12/31/18:00:16.774,(-3 -5 6 7 15 4 -9 -35)
1969/12/31/18:00:16.779,(0 -56 -32 -14 -29 -13 -2 19)
1969/12/31/18:00:16.779,(-51 -11 7 -1 6 11 4 -4)
1969/12/31/18:00:16.793,(-6 -10 1 -12 -11 0 7 21)
1969/12/31/18:00:16.793,(-11 -61 -52 -4 4 1 -8 -20)
1969/12/31/18:00:16.794,(15 120 67 7 -2 -1 1 -6)
1969/12/31/18:00:16.794,(-4 -10 -25 -6 3 4 5 15)
1969/12/31/18:00:16.811,(-29 -28 -21 14 21 -3 -34 -91)
1969/12/31/18:00:16.811,(7 24 13 16 18 -5 -17 -19)
1969/12/31/18:00:16.813,(-12 -45 -10 -27 -40 17 3 -12)
1969/12/31/18:00:16.813,(-20 -106 -109 -42 -21 -27 -4 -14)
1969/12/31/18:00:16.823,(42 88 95 41 1 -19 3 -1)
1969/12/31/18:00:16.823,(-38 -15 -38 -9 12 23 -17 -24)
1969/12/31/18:00:16.830,(1 40 61 33 13 -14 -4 -5)
1969/12/31/18:00:16.830,(-4 1 18 -10 -7 8 0 -6)
1969/12/31/18:00:16.841,(17 -48 -82 -18 14 -1 13 16)
1969/12/31/18:00:16.841,(-24 -112 -39 -13 2 5 21 22)
1969/12/31/18:00:16.843,(10 104 63 21 -12 -23 -27 -38)
1969/12/31/18:00:16.843,(-9 3 16 13 10 12 2 -61)
1969/12/31/18:00:16.860,(-8 -102 -33 7 6 -9 -23 -3)
1969/12/31/18:00:16.860,(32 70 16 5 20 -4 7 13)
1969/12/31/18:00:16.861,(-23 -64 -62 -41 -42 10 2 -14)
1969/12/31/18:00:16.862,(-9 -26 11 -1 -12 -11 11 52)
1969/12/31/18:00:16.872,(-6 22 -2 -15 -22 -22 12 11)
1969/12/31/18:00:16.872,(26 28 7 -6 2 23 -3 11)
1969/12/31/18:00:16.879,(8 42 64 32 25 -2 5 21)
1969/12/31/18:00:16.879,(-27 -11 -6 -4 2 -9 -9 -24)
1969/12/31/18:00:16.890,(-11 -2 -10 -22 1 24 21 3)
1969/12/31/18:00:16.890,(9 16 13 3 -9 -6 13 33)
1969/12/31/18:00:16.892,(-18 -88 -82 -29 -19 -15 -8 8)
1969/12/31/18:00:16.892,(28 -6 -54 -21 -4 3 1 -2)
1969/12/31/18:00:16.909,(-17 22 53 51 25 4 -12 -14)
1969/12/31/18:00:16.909,(4 -20 -27 -14 -19 3 5 5)
1969/12/31/18:00:16.910,(-4 -68 -44 5 13 0 16 40)
1969/12/31/18:00:16.910,(42 37 32 17 25 4 -4 -21)
1969/12/31/18:00:16.921,(-21 -104 -101 -53 -39 -5 -24 -38)
1969/12/31/18:00:16.921,(-1 121 87 18 -7 -11 -8 -15)
1969/12/31/18:00:16.928,(-28 -94 -88 -19 -2 -6 -3 -13)
1969/12/31/18:00:16.928,(34 83 42 26 12 5 19 61)
1969/12/31/18:00:16.940,(-43 -2 44 26 12 -13 -36 -69)
1969/12/31/18:00:16.940,(-30 -25 -36 -29 -42 0 9 -21)
1969/12/31/18:00:16.941,(49 73 69 14 9 1 4 13)
1969/12/31/18:00:16.941,(20 -9 -4 11 -23 -37 -10 -3)
1969/12/31/18:00:16.958,(7 -51 -54 -23 37 52 -1 15)
1969/12/31/18:00:16.958,(24 26 50 36 -2 -16 3 28)
1969/12/31/18:00:16.959,(-25 -67 -76 -24 -9 -12 -14 -65)
1969/12/31/18:00:16.959,(-3 44 19 15 0 14 1 -14)
1969/12/31/18:00:16.970,(35 -51 -60 -6 6 -13 5 40)
1969/12/31/18:00:16.970,(-6 97 86 35 10 10 3 -28)
1969/12/31/18:00:16.977,(10 12 -2 -2 -6 2 1 -6)
1969/12/31/18:00:16.977,(50 20 65 41 41 7 9 79)
1969/12/31/18:00:16.989,(-31 -110 -89 -49 -13 -2 2 -5)
1969/12/31/18:00:16.989,(-19 38 19 0 10 10 0 -13)
1969/12/31/18:00:16.990,(-9 -44 -21 -10 -12 -17 -13 -23)
1969/12/31/18:00:16.990,(-12 61 19 -6 -12 -5 -18 -44)
1969/12/31/18:00:17.007,(19 68 27 11 -4 0 0 15)
1969/12/31/18:00:17.007,(-42 -128 -128 -45 -7 -5 0 27)
1969/12/31/18:00:17.008,(45 103 109 87 60 23 25 45)
1969/12/31/18:00:17.008,(-33 -123 -79 -26 -65 -17 -3 -10)
1969/12/31/18:00:17.018,(34 -44 -38 -38 -28 8 6 23)
1969/12/31/18:00:17.018,(-12 34 53 18 7 -21 -15 -40)
1969/12/31/18:00:17.026,(-7 -42 -49 -22 -6 2 -12 -3)
1969/12/31/18:00:17.026,(-11 1 26 24 49 20 28 16)
1969/12/31/18:00:17.037,(-38 -42 -14 -3 -28 -16 -3 -14)
1969/12/31/18:00:17.037,(34 -96 -82 -23 -5 -3 -2 43)
1969/12/31/18:00:17.039,(-33 21 7 -26 -24 -15 -18 -36)
1969/12/31/18:00:17.039,(16 52 41 15 25 6 -1 13)
1969/12/31/18:00:17.056,(-10 -10 -10 13 17 -13 2 -2)
1969/12/31/18:00:17.056,(7 -16 -12 -27 -37 14 -2 3)
1969/12/31/18:00:17.057,(-19 -6 -45 -27 -27 -2 -10 -13)
1969/12/31/18:00:17.057,(-12 -70 5 2 6 0 -5 -14)
1969/12/31/18:00:17.067,(-17 103 16 9 -6 -23 -5 13)
1969/12/31/18:00:17.067,(12 23 28 19 16 9 -6 -19)
1969/12/31/18:00:17.080,(0 -85 -99 -37 -24 -18 -11 3)
1969/12/31/18:00:17.080,(22 77 69 72 21 18 18 20)
1969/12/31/18:00:17.087,(15 -104 -87 -11 16 -3 -12 -2)
1969/12/31/18:00:17.087,(14 -3 -9 5 6 -7 2 -15)
1969/12/31/18:00:17.088,(-12 -49 -31 -29 -8 7 6 -1)
1969/12/31/18:00:17.088,(-15 -18 -37 -25 0 -1 -18 -15)
1969/12/31/18:00:17.105,(16 70 81 38 23 5 9 6)
1969/12/31/18:00:17.105,(4 -26 -26 -24 -45 -4 11 2)
1969/12/31/18:00:17.107,(-2 30 33 18 14 0 -1 -8)
1969/12/31/18:00:17.107,(7 0 -8 -10 -15 -3 -8 8)
1969/12/31/18:00:17.116,(-24 -64 -43 -30 -14 8 -2 -16)
1969/12/31/18:00:17.116,(13 44 9 -6 11 -15 -8 -23)
1969/12/31/18:00:17.124,(38 127 122 64 27 11 -3 12)
1969/12/31/18:00:17.124,(-13 -87 -44 -13 -10 9 14 16)
1969/12/31/18:00:17.136,(-22 -10 -16 1 -9 -9 -3 -27)
1969/12/31/18:00:17.136,(-8 -50 -32 -11 15 2 10 24)
1969/12/31/18:00:17.137,(-1 -16 -22 -8 3 -19 -29 -53)
1969/12/31/18:00:17.137,(1 20 1 -21 4 30 1 -15)
1969/12/31/18:00:17.154,(-13 -6 1 6 9 10 10 3)
1969/12/31/18:00:17.154,(-33 -54 -35 -13 -36 -22 -19 -21)
1969/12/31/18:00:17.155,(7 52 52 14 4 8 18 24)
1969/12/31/18:00:17.155,(-21 -67 -47 -6 19 2 -7 -21)
1969/12/31/18:00:17.164,(23 94 36 -12 -24 3 10 10)
1969/12/31/18:00:17.164,(27 48 69 55 43 -2 -9 10)
1969/12/31/18:00:17.173,(15 -128 -121 -37 -13 6 0 16)
1969/12/31/18:00:17.173,(-13 99 31 -13 -16 -7 -6 -50)
1969/12/31/18:00:17.185,(15 40 50 22 6 14 4 24)
1969/12/31/18:00:17.185,(-21 -90 -75 -9 0 -14 -3 8)
1969/12/31/18:00:17.186,(-39 33 -39 -17 -10 -14 0 -12)
1969/12/31/18:00:17.186,(72 51 45 33 14 6 8 13)
1969/12/31/18:00:17.203,(-17 -43 -2 11 11 3 3 -24)
1969/12/31/18:00:17.203,(7 -3 -9 -16 -12 -6 -13 -10)
1969/12/31/18:00:17.204,(-56 -61 4 4 22 12 7 -16)
1969/12/31/18:00:17.204,(-15 -13 -20 -30 -40 0 10 18)
1969/12/31/18:00:17.214,(-1 13 18 2 -9 -8 -3 -12)
1969/12/31/18:00:17.214,(-11 -46 -40 -9 18 5 -5 -3)
1969/12/31/18:00:17.221,(3 -38 -26 -18 -13 3 15 24)
1969/12/31/18:00:17.221,(-35 57 54 27 19 -15 -29 -42)
1969/12/31/18:00:17.239,(21 -3 -5 6 -1 7 18 51)
1969/12/31/18:00:17.239,(-52 -53 -30 -6 0 1 -6 -47)
1969/12/31/18:00:17.240,(18 -8 -10 -13 -17 -5 -10 -7)
1969/12/31/18:00:17.240,(-5 71 72 45 19 8 13 5)
1969/12/31/18:00:17.252,(-20 -117 -85 -25 -17 -14 -17 -31)
1969/12/31/18:00:17.252,(-2 -16 -51 -1 18 9 19 29)
1969/12/31/18:00:17.253,(-3 108 99 28 -13 -7 -16 -12)
1969/12/31/18:00:17.253,(-20 -128 -112 -51 -17 -7 -9 -8)
1969/12/31/18:00:17.263,(-1 79 63 28 12 -7 -6 -5)
1969/12/31/18:00:17.263,(49 25 12 -1 -3 9 27 59)
1969/12/31/18:00:17.270,(18 -68 -36 -11 -7 0 -1 2)
1969/12/31/18:00:17.270,(-24 -9 -12 -11 -6 -8 10 15)
1969/12/31/18:00:17.282,(-5 -1 8 -1 -2 -3 -6 -11)
1969/12/31/18:00:17.282,(-5 -51 -12 2 6 1 -4 1)
1969/12/31/18:00:17.288,(4 38 -3 -6 -14 -5 -6 0)
1969/12/31/18:00:17.288,(38 91 83 28 4 -2 9 21)
1969/12/31/18:00:17.301,(-4 -30 -16 11 28 11 9 15)
1969/12/31/18:00:17.301,(-2 -50 -60 -34 -38 4 -13 -6)
1969/12/31/18:00:17.301,(24 87 88 31 8 10 22 43)
1969/12/31/18:00:17.301,(14 48 34 8 4 -17 -32 -57)
1969/12/31/18:00:17.312,(12 30 12 -1 -11 -10 0 -4)
1969/12/31/18:00:17.312,(-30 -33 12 25 30 6 0 -38)
1969/12/31/18:00:17.319,(16 -76 -71 5 31 -2 -4 33)
1969/12/31/18:00:17.319,(1 -19 -74 -65 -66 -11 -22 -19)
1969/12/31/18:00:17.331,(-10 86 102 41 7 10 14 5)
1969/12/31/18:00:17.331,(41 23 6 1 -8 -1 -13 -25)
1969/12/31/18:00:17.336,(-40 -43 -23 -3 7 -1 -4 -50)
