time,.data
1969/12/31/18:00:07.620,(-2 -1 -2 -6 9 -1 -2 0)
1969/12/31/18:00:07.620,(-1 0 -1 -6 -16 -3 -1 -2)
1969/12/31/18:00:07.621,(-2 -1 7 35 21 5 2 -4)
1969/12/31/18:00:07.621,(-2 -2 -7 -7 -1 -1 -2 -2)
1969/12/31/18:00:07.637,(2 0 -4 -19 -1 0 0 1)
1969/12/31/18:00:07.637,(-2 -3 -4 -21 -12 -3 -2 -2)
1969/12/31/18:00:07.639,(2 2 7 12 3 2 1 -1)
1969/12/31/18:00:07.639,(3 3 0 20 8 5 2 3)
1969/12/31/18:00:07.650,(-2 -2 -8 -16 -4 3 -1 -1)
1969/12/31/18:00:07.650,(-2 -1 0 -3 -9 -2 -1 -2)
1969/12/31/18:00:07.655,(-3 -2 4 18 7 0 0 -1)
1969/12/31/18:00:07.655,(0 2 -2 0 3 -2 1 -2)
1969/12/31/18:00:07.668,(-4 -5 -11 -20 -13 -8 0 4)
1969/12/31/18:00:07.668,(8 3 0 -5 0 -2 2 6)
1969/12/31/18:00:07.669,(-11 1 11 29 11 2 -5 -16)
1969/12/31/18:00:07.669,(-3 -6 -9 -9 -7 -5 -1 -3)
1969/12/31/18:00:07.686,(0 0 -2 -9 -5 -1 -2 -3)
1969/12/31/18:00:07.686,(-1 0 -1 2 1 0 2 1)
1969/12/31/18:00:07.688,(7 3 2 5 -1 3 2 9)
1969/12/31/18:00:07.688,(-2 -2 -3 -7 -1 -1 -1 -2)
1969/12/31/18:00:07.699,(-3 1 6 9 4 -2 -3 -3)
1969/12/31/18:00:07.699,(3 0 -6 -11 -5 1 3 3)
1969/12/31/18:00:07.703,(-2 -4 -1 -5 -9 -3 -2 0)
1969/12/31/18:00:07.703,(-2 -2 0 19 12 3 -1 0)
1969/12/31/18:00:07.717,(-5 -4 -4 -10 -6 -4 -2 -3)
1969/12/31/18:00:07.717,(4 -1 -7 -21 -20 -3 2 2)
1969/12/31/18:00:07.718,(1 2 5 8 14 2 2 1)
1969/12/31/18:00:07.718,(0 1 10 42 24 8 3 1)
1969/12/31/18:00:07.735,(1 1 -2 -6 -4 -1 0 0)
1969/12/31/18:00:07.735,(-3 0 4 4 2 0 -2 -3)
1969/12/31/18:00:07.737,(-3 -5 -7 -18 -24 -5 -4 -1)
1969/12/31/18:00:07.737,(2 1 -6 -17 -2 -3 0 5)
1969/12/31/18:00:07.747,(-3 -3 -3 -14 -5 -2 -2 -3)
1969/12/31/18:00:07.747,(0 0 1 13 -1 0 0 -2)
1969/12/31/18:00:07.754,(2 0 8 28 13 2 3 4)
1969/12/31/18:00:07.754,(6 3 0 -3 -5 -1 2 4)
1969/12/31/18:00:07.766,(-3 0 3 2 3 4 3 -3)
1969/12/31/18:00:07.766,(-10 -8 -8 -22 -8 -9 -10 -10)
1969/12/31/18:00:07.768,(0 1 -1 -2 -1 0 3 2)
1969/12/31/18:00:07.768,(-4 -4 -3 -3 -6 -2 -3 -4)
1969/12/31/18:00:07.784,(6 3 0 -6 1 3 5 8)
1969/12/31/18:00:07.784,(-8 -5 2 9 4 -1 -1 -2)
1969/12/31/18:00:07.786,(7 5 4 8 5 1 0 2)
1969/12/31/18:00:07.786,(-7 -2 -1 -10 -11 -7 -6 -5)
1969/12/31/18:00:07.795,(17 7 -3 -6 0 4 6 11)
1969/12/31/18:00:07.795,(-3 -1 -1 -7 0 -1 -5 -5)
1969/12/31/18:00:07.803,(4 0 -7 -3 -2 2 3 4)
1969/12/31/18:00:07.803,(-4 -3 0 -3 -1 -1 -4 -7)
1969/12/31/18:00:07.815,(-2 -2 -8 -59 -32 -8 -4 -2)
1969/12/31/18:00:07.815,(-1 1 9 73 31 2 -1 1)
1969/12/31/18:00:07.816,(-1 0 13 36 18 6 -1 -4)
1969/12/31/18:00:07.816,(2 1 2 5 7 4 5 4)
1969/12/31/18:00:07.833,(-3 0 1 8 7 4 3 2)
1969/12/31/18:00:07.833,(0 -4 -8 -43 -23 -10 -8 -6)
1969/12/31/18:00:07.835,(-24 -15 -16 -25 -15 -4 -2 -13)
1969/12/31/18:00:07.835,(5 6 4 4 1 -1 3 4)
1969/12/31/18:00:07.844,(4 2 0 10 -2 -10 -14 -7)
1969/12/31/18:00:07.844,(-2 -1 -3 -14 2 16 18 9)
1969/12/31/18:00:07.852,(14 3 3 8 2 -8 -7 4)
1969/12/31/18:00:07.852,(-20 -13 -13 -23 -14 -10 -20 -23)
1969/12/31/18:00:07.864,(-6 -7 -8 4 2 -3 -4 -7)
1969/12/31/18:00:07.864,(3 10 14 19 14 6 7 7)
1969/12/31/18:00:07.866,(-5 -2 -2 -10 -6 -1 1 -5)
1969/12/31/18:00:07.866,(1 0 -1 -16 -2 1 4 4)
1969/12/31/18:00:07.882,(2 2 7 28 4 1 4 5)
1969/12/31/18:00:07.882,(2 0 -8 -33 -13 -6 -5 -4)
1969/12/31/18:00:07.883,(0 2 3 16 5 1 1 3)
1969/12/31/18:00:07.883,(3 2 -2 3 -9 -1 0 1)
1969/12/31/18:00:07.893,(-7 -2 8 39 26 6 3 -3)
1969/12/31/18:00:07.893,(-8 -1 4 3 20 5 0 -6)
1969/12/31/18:00:07.901,(7 -2 -9 -22 -19 -13 -12 2)
1969/12/31/18:00:07.901,(10 10 1 -3 0 5 6 6)
1969/12/31/18:00:07.913,(3 -3 -2 -8 -5 4 11 11)
1969/12/31/18:00:07.913,(6 1 -4 -3 -11 -2 -2 -6)
1969/12/31/18:00:07.914,(1 3 -3 -21 2 4 1 2)
1969/12/31/18:00:07.914,(-9 -8 -2 17 -1 -1 -3 -6)
1969/12/31/18:00:07.931,(7 7 3 4 3 2 7 6)
1969/12/31/18:00:07.931,(0 -2 -1 -1 -2 -5 -6 -1)
1969/12/31/18:00:07.932,(1 2 -1 0 0 0 0 1)
1969/12/31/18:00:07.932,(1 -1 -1 5 -1 2 4 3)
1969/12/31/18:00:07.942,(-7 -4 4 12 3 -7 -16 -10)
1969/12/31/18:00:07.942,(5 -1 -3 0 -9 1 5 7)
1969/12/31/18:00:07.949,(-2 0 0 -1 5 5 4 -1)
1969/12/31/18:00:07.949,(5 4 6 6 13 9 8 8)
1969/12/31/18:00:07.962,(-9 -8 -4 -4 -4 -1 -5 -7)
1969/12/31/18:00:07.962,(4 4 0 -7 -5 -1 -3 1)
1969/12/31/18:00:07.962,(-7 -4 -8 -14 -12 -7 -3 -2)
1969/12/31/18:00:07.962,(15 6 -1 -9 -12 -2 2 9)
1969/12/31/18:00:07.980,(-21 -14 1 -1 2 6 8 -1)
1969/12/31/18:00:07.980,(17 13 0 10 1 -6 -4 6)
1969/12/31/18:00:07.985,(-3 -3 6 10 3 1 0 -7)
1969/12/31/18:00:07.985,(-11 -13 -11 -18 -8 -12 -17 -16)
1969/12/31/18:00:07.991,(9 4 -12 -32 -19 -2 0 1)
1969/12/31/18:00:07.991,(-4 -4 6 45 27 4 3 2)
1969/12/31/18:00:07.998,(-2 3 8 -6 2 4 2 2)
1969/12/31/18:00:07.998,(2 2 -1 -1 11 3 4 3)
1969/12/31/18:00:08.011,(0 1 2 13 1 -4 -6 -2)
1969/12/31/18:00:08.011,(-5 -1 2 -8 -7 -2 1 -3)
1969/12/31/18:00:08.012,(-2 0 -2 11 -14 -6 -5 -7)
1969/12/31/18:00:08.012,(-8 -4 -4 -15 -7 0 1 -2)
1969/12/31/18:00:08.028,(1 -3 -18 -60 -24 -17 -8 -1)
1969/12/31/18:00:08.028,(-2 1 -1 15 -15 -1 0 1)
1969/12/31/18:00:08.030,(-1 0 11 41 56 18 8 3)
1969/12/31/18:00:08.030,(1 1 7 17 25 21 9 6)
1969/12/31/18:00:08.047,(4 3 3 9 10 8 5 2)
1969/12/31/18:00:08.047,(-5 -5 -3 -17 -16 -13 -11 2)
1969/12/31/18:00:08.048,(1 -2 -7 -26 -30 -9 2 2)
1969/12/31/18:00:08.048,(1 -2 -5 -9 -8 -8 -1 3)
1969/12/31/18:00:08.059,(-3 -3 -2 13 5 -4 -6 -6)
1969/12/31/18:00:08.059,(-11 -7 6 -3 0 -1 -2 -6)
1969/12/31/18:00:08.061,(10 10 -6 -11 -10 -4 1 6)
1969/12/31/18:00:08.061,(-18 -10 3 9 4 -8 -15 -23)
1969/12/31/18:00:08.078,(-3 -1 -4 -8 -7 0 -1 -4)
1969/12/31/18:00:08.078,(4 -1 -3 -9 -6 5 6 6)
1969/12/31/18:00:08.079,(-4 -1 0 15 20 -4 -8 -6)
1969/12/31/18:00:08.079,(4 3 3 3 -4 1 5 4)
1969/12/31/18:00:08.089,(2 1 1 6 1 1 1 2)
1969/12/31/18:00:08.089,(-4 -1 -2 -8 3 1 -2 -8)
1969/12/31/18:00:08.096,(-3 -5 -1 -7 -5 1 1 2)
1969/12/31/18:00:08.096,(8 4 -3 -7 -7 -1 3 7)
1969/12/31/18:00:08.108,(0 1 4 9 6 2 -1 -2)
1969/12/31/18:00:08.108,(5 1 -2 -5 6 2 4 4)
1969/12/31/18:00:08.110,(4 2 1 0 -4 1 -1 0)
1969/12/31/18:00:08.110,(-3 -4 -4 -1 -5 -5 -1 0)
1969/12/31/18:00:08.126,(-3 -4 -1 6 5 0 -5 -7)
1969/12/31/18:00:08.126,(0 -1 -5 -6 2 1 -1 -3)
1969/12/31/18:00:08.128,(-4 -9 -3 -5 -6 -1 -3 -1)
1969/12/31/18:00:08.128,(-4 0 -1 1 -3 -3 -1 -4)
1969/12/31/18:00:08.138,(-1 2 2 3 4 2 3 2)
1969/12/31/18:00:08.138,(-2 -1 -1 -6 -2 -4 -3 -3)
1969/12/31/18:00:08.145,(2 2 4 2 1 4 3 3)
1969/12/31/18:00:08.145,(0 1 -1 0 -2 -3 -2 1)
1969/12/31/18:00:08.157,(5 2 3 0 -1 1 1 4)
1969/12/31/18:00:08.157,(0 -2 0 -1 0 1 0 0)
1969/12/31/18:00:08.158,(-5 -3 -4 -6 -5 -3 -1 -5)
1969/12/31/18:00:08.159,(1 2 4 3 2 2 6 5)
1969/12/31/18:00:08.175,(0 -4 0 1 0 -2 -3 -6)
1969/12/31/18:00:08.175,(8 4 2 4 5 1 1 7)
1969/12/31/18:00:08.177,(6 5 -2 -7 -2 2 4 2)
1969/12/31/18:00:08.177,(-5 -5 -1 -1 -2 -5 -5 -5)
1969/12/31/18:00:08.187,(5 6 2 0 0 -1 4 8)
1969/12/31/18:00:08.187,(2 0 -1 0 0 2 3 2)
1969/12/31/18:00:08.194,(-5 -5 -4 -1 -3 0 -2 -2)
1969/12/31/18:00:08.194,(-2 -1 -1 1 -2 -1 -3 -1)
1969/12/31/18:00:08.205,(-7 -3 -1 4 2 -2 -4 -3)
1969/12/31/18:00:08.205,(1 2 -1 -5 -3 -2 -2 -1)
1969/12/31/18:00:08.211,(5 3 2 0 0 0 3 3)
1969/12/31/18:00:08.211,(1 0 -2 -1 -1 0 1 1)
1969/12/31/18:00:08.225,(2 -2 -2 0 0 -1 -1 -1)
1969/12/31/18:00:08.225,(-7 -7 -4 -4 -6 -3 -3 -7)
1969/12/31/18:00:08.226,(-3 -2 0 2 4 -3 -2 -2)
1969/12/31/18:00:08.226,(2 0 0 -2 0 -1 0 1)
1969/12/31/18:00:08.235,(4 2 1 1 1 2 1 5)
1969/12/31/18:00:08.235,(1 2 1 3 4 1 0 1)
1969/12/31/18:00:08.243,(0 -2 -1 -1 -4 -1 2 -2)
1969/12/31/18:00:08.243,(5 2 2 1 3 1 6 8)
1969/12/31/18:00:08.254,(-9 -9 -8 -5 -5 -8 -13 -9)
1969/12/31/18:00:08.254,(-5 -4 -3 -17 -21 -6 -2 -4)
1969/12/31/18:00:08.260,(3 2 -3 -1 -2 -2 0 3)
1969/12/31/18:00:08.260,(3 3 2 10 9 3 4 1)
1969/12/31/18:00:08.273,(-1 0 2 9 3 4 1 -1)
1969/12/31/18:00:08.273,(-1 -1 1 9 11 5 1 1)
1969/12/31/18:00:08.275,(-6 -2 0 -4 1 1 -4 -4)
1969/12/31/18:00:08.275,(-3 -3 -2 -8 -8 -3 -3 -4)
1969/12/31/18:00:08.284,(7 6 0 -11 -7 -1 2 5)
1969/12/31/18:00:08.284,(-4 -4 -5 -3 -5 -4 -5 -4)
1969/12/31/18:00:08.292,(-2 -1 -2 -1 -3 -3 -2 -2)
1969/12/31/18:00:08.292,(2 2 -1 5 14 3 -1 0)
1969/12/31/18:00:08.303,(-1 1 7 24 9 0 2 0)
1969/12/31/18:00:08.303,(-5 -3 2 11 6 2 0 0)
1969/12/31/18:00:08.309,(6 3 1 -2 -7 1 3 5)
1969/12/31/18:00:08.309,(0 -4 -5 -10 -8 -1 -2 -2)
1969/12/31/18:00:08.322,(-1 -1 -5 -15 -6 -3 0 -1)
1969/12/31/18:00:08.322,(3 3 0 3 1 0 4 3)
1969/12/31/18:00:08.323,(-2 -2 -1 -3 -1 -3 -4 -1)
1969/12/31/18:00:08.323,(-2 0 -4 -4 -7 -8 -7 -6)
1969/12/31/18:00:08.333,(2 2 5 2 6 9 9 3)
1969/12/31/18:00:08.333,(-3 -4 -2 -2 -2 -3 -4 -5)
1969/12/31/18:00:08.341,(2 0 3 4 2 1 -1 0)
1969/12/31/18:00:08.341,(-2 -2 -1 5 -1 -1 -3 -3)
1969/12/31/18:00:08.352,(4 4 2 -1 -7 -2 1 6)
1969/12/31/18:00:08.352,(0 1 0 0 4 0 0 1)
1969/12/31/18:00:08.358,(-2 -2 -2 -8 -6 -1 1 -3)
1969/12/31/18:00:08.358,(3 3 0 5 2 3 4 5)
1969/12/31/18:00:08.371,(-2 -2 1 9 13 2 -3 -3)
1969/12/31/18:00:08.371,(-3 -2 -3 -13 -7 -1 -1 0)
1969/12/31/18:00:08.372,(-4 -3 -2 -1 -1 -3 -2 -2)
1969/12/31/18:00:08.372,(-1 -1 -3 -30 -11 -2 -1 2)
1969/12/31/18:00:08.389,(-3 -4 -4 10 -5 -6 -4 1)
1969/12/31/18:00:08.389,(1 2 4 16 11 0 -2 -4)
1969/12/31/18:00:08.391,(-1 0 1 7 6 4 1 1)
1969/12/31/18:00:08.391,(5 3 3 4 9 4 4 4)
1969/12/31/18:00:08.402,(-2 0 -5 -18 -12 -4 -5 -5)
1969/12/31/18:00:08.402,(-5 0 2 -4 -6 -5 -1 -1)
1969/12/31/18:00:08.403,(-15 -12 -9 4 2 -3 -8 -12)
1969/12/31/18:00:08.403,(11 3 4 6 -1 0 -2 -1)
1969/12/31/18:00:08.420,(-15 -14 -11 -7 -3 -2 -8 -15)
1969/12/31/18:00:08.420,(1 1 -3 -2 -4 -1 -2 -1)
1969/12/31/18:00:08.421,(5 4 0 -7 -9 -3 4 4)
1969/12/31/18:00:08.421,(-12 -7 -8 -20 -15 -9 -8 -10)
1969/12/31/18:00:08.438,(6 4 -2 -14 -27 0 4 7)
1969/12/31/18:00:08.438,(7 3 10 45 39 8 3 3)
1969/12/31/18:00:08.440,(-12 -4 8 28 27 10 1 -7)
1969/12/31/18:00:08.440,(1 1 6 8 -2 3 -1 1)
1969/12/31/18:00:08.456,(-2 0 -1 -14 -6 -5 -4 0)
1969/12/31/18:00:08.456,(-3 -2 -8 -29 -20 -4 2 1)
1969/12/31/18:00:08.458,(26 14 -1 -14 -17 0 12 22)
1969/12/31/18:00:08.458,(-8 -9 -9 -12 1 -6 -4 -8)
1969/12/31/18:00:08.469,(5 1 -7 -8 -9 -1 2 3)
1969/12/31/18:00:08.469,(-2 0 5 39 6 -3 -6 -8)
1969/12/31/18:00:08.470,(-10 -3 5 12 14 4 -2 -5)
1969/12/31/18:00:08.470,(20 17 9 13 4 6 10 21)
1969/12/31/18:00:08.487,(-19 -11 -3 -12 6 -3 -13 -27)
1969/12/31/18:00:08.487,(2 -1 -9 -32 -18 -3 0 3)
1969/12/31/18:00:08.489,(0 -2 -1 2 -6 -4 1 -3)
1969/12/31/18:00:08.489,(-2 2 2 9 4 -5 -5 2)
1969/12/31/18:00:08.498,(2 1 0 1 -16 -6 1 4)
1969/12/31/18:00:08.498,(7 4 -6 -23 1 0 4 7)
1969/12/31/18:00:08.505,(1 1 -4 -4 11 4 -2 0)
1969/12/31/18:00:08.505,(-4 -3 7 24 12 9 3 -4)
1969/12/31/18:00:08.517,(4 2 3 1 3 4 6 8)
1969/12/31/18:00:08.517,(-6 -5 4 21 -2 -3 -4 -5)
1969/12/31/18:00:08.519,(-1 1 3 9 9 -4 -3 -1)
1969/12/31/18:00:08.519,(-5 -4 -6 -17 5 1 3 -3)
1969/12/31/18:00:08.535,(4 2 2 13 4 4 5 5)
1969/12/31/18:00:08.535,(-1 0 -6 -31 -13 -2 1 0)
1969/12/31/18:00:08.543,(-1 -7 -6 -6 -8 -5 -2 -1)
1969/12/31/18:00:08.543,(-8 -8 -2 1 -4 1 0 -6)
1969/12/31/18:00:08.547,(17 11 3 -8 37 7 8 8)
1969/12/31/18:00:08.547,(-2 -4 -2 -2 -38 -6 -6 -3)
1969/12/31/18:00:08.553,(-1 1 0 -1 8 -4 -6 -4)
1969/12/31/18:00:08.553,(-6 -3 2 11 -15 -1 4 6)
1969/12/31/18:00:08.573,(-16 -16 -9 -2 7 -2 2 -9)
1969/12/31/18:00:08.573,(2 0 2 -15 9 9 8 7)
1969/12/31/18:00:08.574,(5 2 -5 -8 -19 -2 2 3)
1969/12/31/18:00:08.574,(1 0 -5 -12 -3 -5 -5 -4)
1969/12/31/18:00:08.585,(6 12 14 40 19 3 -2 3)
1969/12/31/18:00:08.585,(-3 -4 -3 -17 8 5 2 1)
1969/12/31/18:00:08.587,(-2 -1 2 10 -18 -6 -7 -7)
1969/12/31/18:00:08.587,(-3 -2 1 -3 8 -5 -7 -6)
1969/12/31/18:00:08.596,(-5 -3 -5 -36 -17 -3 -1 2)
1969/12/31/18:00:08.596,(11 6 4 46 14 3 5 7)
1969/12/31/18:00:08.602,(-1 1 6 17 26 8 1 1)
1969/12/31/18:00:08.602,(-8 -5 -10 -31 -1 -4 -18 -16)
1969/12/31/18:00:08.615,(4 3 4 20 -24 2 14 15)
1969/12/31/18:00:08.615,(4 1 -2 -12 -9 -3 0 6)
1969/12/31/18:00:08.617,(-19 -15 -7 -16 -11 -4 0 -11)
1969/12/31/18:00:08.617,(1 0 1 12 3 0 2 2)
1969/12/31/18:00:08.634,(-10 -7 -7 -21 1 -5 -13 -9)
1969/12/31/18:00:08.634,(25 16 2 -5 1 5 13 18)
1969/12/31/18:00:08.635,(-6 -6 -4 10 -10 -7 -6 -4)
1969/12/31/18:00:08.635,(9 6 0 -20 -7 -1 -1 0)
1969/12/31/18:00:08.652,(-6 -3 -5 -2 -4 -3 -8 -11)
1969/12/31/18:00:08.652,(-7 -5 4 25 12 3 -1 -4)
1969/12/31/18:00:08.653,(5 3 -8 -56 1 -4 -2 2)
1969/12/31/18:00:08.653,(-2 1 9 56 0 3 7 5)
1969/12/31/18:00:08.664,(-6 0 17 47 30 5 -3 -2)
1969/12/31/18:00:08.664,(-2 1 -3 -18 1 0 -3 -4)
1969/12/31/18:00:08.666,(5 2 -1 0 -6 -1 2 9)
1969/12/31/18:00:08.666,(-8 -12 -15 -36 -16 -5 -4 -9)
1969/12/31/18:00:08.683,(8 6 3 23 1 4 7 8)
1969/12/31/18:00:08.683,(-22 -16 -3 -2 3 -7 -13 -16)
1969/12/31/18:00:08.684,(3 1 -7 -14 -8 -1 -1 -5)
1969/12/31/18:00:08.684,(-6 -2 3 5 -5 -1 3 5)
1969/12/31/18:00:08.694,(18 9 -3 -10 -2 -2 -3 0)
1969/12/31/18:00:08.694,(-8 -7 -5 -22 -5 -2 -3 -9)
1969/12/31/18:00:08.700,(1 2 1 11 1 -1 3 3)
1969/12/31/18:00:08.700,(-5 0 2 1 -4 0 0 0)
1969/12/31/18:00:08.713,(8 7 2 -7 8 3 1 6)
1969/12/31/18:00:08.713,(9 9 2 -18 -9 -2 -1 2)
1969/12/31/18:00:08.714,(3 -1 -16 -60 -32 -4 1 2)
1969/12/31/18:00:08.714,(-9 -11 9 71 26 6 2 -6)
1969/12/31/18:00:08.732,(-2 2 22 60 39 13 6 2)
1969/12/31/18:00:08.732,(-7 -3 5 26 15 -1 -3 -8)
1969/12/31/18:00:08.733,(4 3 0 -9 -3 -3 0 10)
1969/12/31/18:00:08.733,(-12 -7 -13 -56 -24 -7 -7 -15)
1969/12/31/18:00:08.742,(-8 -8 -19 -43 -36 -14 -12 -7)
1969/12/31/18:00:08.743,(2 11 10 27 26 19 25 14)
1969/12/31/18:00:08.750,(-5 -9 -4 5 0 -4 -9 -12)
1969/12/31/18:00:08.750,(18 16 -7 -12 -9 -5 -1 12)
1969/12/31/18:00:08.762,(-42 -40 1 10 1 -6 -12 -26)
1969/12/31/18:00:08.762,(12 12 -3 -7 1 2 4 9)
1969/12/31/18:00:08.763,(10 10 9 12 4 3 4 3)
1969/12/31/18:00:08.763,(18 6 -5 -59 -24 -1 8 14)
1969/12/31/18:00:08.780,(6 2 -2 35 21 3 5 10)
1969/12/31/18:00:08.780,(-4 4 7 7 -6 -11 -12 -6)
1969/12/31/18:00:08.782,(-11 15 13 22 5 4 2 -4)
1969/12/31/18:00:08.782,(-5 -20 -2 2 5 2 2 -1)
1969/12/31/18:00:08.792,(11 5 -17 -43 -18 -3 2 8)
1969/12/31/18:00:08.792,(-13 -23 -4 3 5 -2 -1 -2)
1969/12/31/18:00:08.798,(13 14 7 28 7 -1 -4 -6)
1969/12/31/18:00:08.798,(4 6 16 15 16 14 16 13)
1969/12/31/18:00:08.811,(17 28 -10 -29 -18 -5 -5 2)
1969/12/31/18:00:08.811,(-9 -11 0 7 -1 5 2 -6)
1969/12/31/18:00:08.812,(-1 -9 -5 0 4 -2 0 3)
1969/12/31/18:00:08.812,(-15 -7 -3 1 1 -4 -5 -8)
1969/12/31/18:00:08.829,(-5 -21 2 -6 -6 -3 6 7)
1969/12/31/18:00:08.829,(33 51 13 8 5 2 0 7)
1969/12/31/18:00:08.831,(-31 -46 -23 -31 -21 -13 -18 -19)
1969/12/31/18:00:08.831,(46 49 -4 -21 -27 -6 2 12)
1969/12/31/18:00:08.841,(-3 -2 14 22 -4 -6 -4 -3)
1969/12/31/18:00:08.841,(-23 -15 2 43 43 3 -11 -17)
1969/12/31/18:00:08.848,(16 0 6 23 26 37 27 24)
1969/12/31/18:00:08.848,(-4 -14 -4 21 30 12 6 5)
1969/12/31/18:00:08.859,(-9 -5 -13 -55 -36 -13 -8 -10)
1969/12/31/18:00:08.859,(-3 -7 -5 -19 -30 -20 -12 -4)
1969/12/31/18:00:08.861,(-3 3 1 13 4 -11 -6 -3)
1969/12/31/18:00:08.861,(-19 -17 -2 6 0 -4 -9 -15)
1969/12/31/18:00:08.878,(18 4 0 -11 -1 4 5 12)
1969/12/31/18:00:08.878,(-22 -4 -2 -14 -15 -8 -10 -21)
1969/12/31/18:00:08.879,(21 18 8 -1 -1 -1 3 9)
1969/12/31/18:00:08.879,(-7 3 -2 5 -1 -3 -6 -6)
1969/12/31/18:00:08.890,(4 -17 -2 8 17 9 7 8)
1969/12/31/18:00:08.890,(22 -3 2 7 5 8 8 20)
1969/12/31/18:00:08.896,(-10 0 -1 -36 -17 -8 -9 -7)
1969/12/31/18:00:08.896,(-12 -11 -5 -8 -8 -7 -4 -6)
1969/12/31/18:00:08.909,(11 6 -11 -15 22 11 11 9)
1969/12/31/18:00:08.909,(8 4 7 40 -3 6 6 10)
1969/12/31/18:00:08.910,(-7 -3 11 23 17 3 -2 -5)
1969/12/31/18:00:08.910,(-11 -2 11 17 13 -2 -6 -9)
1969/12/31/18:00:08.927,(-6 5 -1 -6 -2 -4 -3 -4)
1969/12/31/18:00:08.927,(-1 -8 -16 -36 -13 -2 -1 -1)
1969/12/31/18:00:08.928,(-5 -2 -2 -6 -11 -6 -1 -2)
1969/12/31/18:00:08.928,(-1 -5 -8 -13 -5 -7 -5 -3)
1969/12/31/18:00:08.938,(14 17 10 17 4 10 13 13)
1969/12/31/18:00:08.938,(-23 -33 -4 -8 -6 -9 -9 -14)
1969/12/31/18:00:08.945,(16 25 6 10 2 6 10 12)
1969/12/31/18:00:08.945,(-2 -9 -7 4 10 8 7 3)
1969/12/31/18:00:08.957,(3 9 1 -3 -4 -2 -4 -4)
1969/12/31/18:00:08.958,(-18 -21 1 2 1 -1 1 2)
1969/12/31/18:00:08.959,(11 9 3 1 -1 -4 -3 -2)
1969/12/31/18:00:08.959,(-2 -1 -2 0 -2 -7 -2 -1)
1969/12/31/18:00:08.976,(4 11 2 0 -2 3 1 -1)
1969/12/31/18:00:08.976,(2 -6 -9 -33 -11 -1 -2 1)
1969/12/31/18:00:08.978,(-7 -10 -6 8 -1 0 -3 -1)
1969/12/31/18:00:08.978,(4 12 9 3 -8 -3 -1 1)
1969/12/31/18:00:08.987,(-28 -26 0 33 9 -6 -11 -18)
1969/12/31/18:00:08.987,(20 18 -1 -7 19 13 10 10)
1969/12/31/18:00:08.995,(-5 -6 -2 -6 -8 -4 -3 -5)
1969/12/31/18:00:08.995,(3 -1 -1 -6 -7 -2 -1 4)
1969/12/31/18:00:09.006,(-4 -20 -6 -10 -8 -3 -1 2)
1969/12/31/18:00:09.006,(13 41 -3 -4 -15 -3 4 -1)
1969/12/31/18:00:09.011,(-8 -9 -11 -12 5 2 -2 -4)
1969/12/31/18:00:09.011,(20 15 9 18 8 3 0 0)
1969/12/31/18:00:09.025,(-13 -6 1 0 -7 -9 -12 -9)
1969/12/31/18:00:09.025,(12 7 -1 -2 5 2 3 10)
1969/12/31/18:00:09.026,(-13 -15 -2 2 -1 -1 0 -8)
1969/12/31/18:00:09.026,(3 4 -1 -1 -7 -3 0 7)
1969/12/31/18:00:09.043,(5 7 1 -6 0 0 -1 0)
1969/12/31/18:00:09.043,(-18 -12 -3 -13 -12 -8 -10 -15)
1969/12/31/18:00:09.044,(1 -1 1 13 4 3 3 4)
1969/12/31/18:00:09.044,(-1 -7 7 33 21 8 3 0)
1969/12/31/18:00:09.055,(-2 4 3 6 2 0 0 -3)
1969/12/31/18:00:09.055,(20 9 -5 -15 -5 -1 3 14)
1969/12/31/18:00:09.060,(-21 -11 1 -11 -9 -7 -8 -19)
1969/12/31/18:00:09.060,(4 -5 -12 -7 -5 -5 -5 4)
1969/12/31/18:00:09.074,(-32 -34 0 -12 -9 -4 -13 -24)
1969/12/31/18:00:09.074,(28 35 2 7 4 1 6 14)
1969/12/31/18:00:09.075,(4 6 -1 9 5 -4 -7 -5)
1969/12/31/18:00:09.075,(-4 -1 -2 -4 2 3 1 -4)
1969/12/31/18:00:09.084,(7 2 0 -3 -4 1 3 6)
1969/12/31/18:00:09.084,(-2 -12 -3 -13 -6 1 2 3)
1969/12/31/18:00:09.098,(6 3 2 5 -6 1 0 2)
1969/12/31/18:00:09.098,(-11 -4 4 16 7 0 -1 -4)
1969/12/31/18:00:09.104,(19 15 -4 2 11 10 12 16)
1969/12/31/18:00:09.104,(-11 -11 2 8 2 2 -4 -9)
1969/12/31/18:00:09.110,(-3 -3 -1 -6 0 -2 -2 -2)
1969/12/31/18:00:09.110,(-11 -11 -12 -24 -12 -9 -7 -8)
1969/12/31/18:00:09.123,(18 22 12 11 -7 4 15 16)
1969/12/31/18:00:09.123,(-11 -26 -3 2 3 -5 -10 -7)
1969/12/31/18:00:09.123,(7 22 10 9 11 8 8 6)
1969/12/31/18:00:09.123,(-30 -37 -4 -5 3 5 -1 -14)
1969/12/31/18:00:09.133,(12 24 -5 -1 -5 -6 -3 -2)
1969/12/31/18:00:09.133,(-28 -26 -3 -3 -4 -5 -2 -6)
1969/12/31/18:00:09.141,(15 -2 -12 -8 6 10 11 16)
1969/12/31/18:00:09.141,(9 7 13 10 0 3 6 12)
1969/12/31/18:00:09.153,(2 12 -2 -9 -2 0 -2 -3)
1969/12/31/18:00:09.153,(-16 -9 -1 4 -9 -10 -12 -14)
1969/12/31/18:00:09.158,(2 4 3 -18 -9 -7 -2 2)
1969/12/31/18:00:09.158,(5 -6 -5 23 18 9 8 12)
1969/12/31/18:00:09.172,(-15 -16 1 3 9 5 -3 -7)
1969/12/31/18:00:09.172,(3 13 4 1 -3 -1 1 -5)
1969/12/31/18:00:09.173,(5 2 -3 -10 -23 -10 -7 1)
1969/12/31/18:00:09.173,(-4 2 1 -5 2 -3 -5 -10)
1969/12/31/18:00:09.189,(-13 -16 2 12 7 -5 -8 -4)
1969/12/31/18:00:09.189,(-6 3 -1 3 5 2 -2 -10)
1969/12/31/18:00:09.191,(9 -6 0 0 5 8 10 15)
1969/12/31/18:00:09.191,(28 15 -8 -17 -9 1 6 15)
1969/12/31/18:00:09.202,(8 3 -1 6 6 9 7 13)
1969/12/31/18:00:09.202,(-29 -24 -4 -3 -7 -10 -16 -22)
1969/12/31/18:00:09.207,(42 47 6 0 5 6 11 24)
1969/12/31/18:00:09.207,(0 2 0 1 2 3 2 -1)
1969/12/31/18:00:09.220,(8 2 -7 -7 -6 -7 -6 -2)
1969/12/31/18:00:09.220,(4 4 -3 -3 3 2 1 -4)
1969/12/31/18:00:09.221,(-31 -23 0 7 -10 -15 -17 -20)
1969/12/31/18:00:09.222,(1 7 5 -3 -2 1 2 0)
1969/12/31/18:00:09.238,(-1 -2 -6 -4 -6 -7 -4 0)
1969/12/31/18:00:09.238,(6 14 7 5 2 0 0 5)
1969/12/31/18:00:09.243,(-5 -9 -3 4 6 1 -3 -9)
1969/12/31/18:00:09.243,(-2 3 1 -4 -4 -2 -5 -5)
1969/12/31/18:00:09.250,(2 -3 2 4 2 2 2 -1)
1969/12/31/18:00:09.250,(1 -4 -1 -13 -10 -3 3 6)
1969/12/31/18:00:09.255,(-2 -25 -7 1 6 6 2 5)
1969/12/31/18:00:09.256,(-3 23 -2 -19 -15 -11 -15 -17)
1969/12/31/18:00:09.269,(-9 -9 -5 -10 8 3 2 -3)
1969/12/31/18:00:09.269,(3 -2 4 30 9 6 11 11)
1969/12/31/18:00:09.270,(-9 -5 -3 -7 -3 -6 -6 -9)
1969/12/31/18:00:09.270,(0 -3 1 4 -5 -4 0 3)
1969/12/31/18:00:09.287,(7 10 5 -3 -3 0 -1 2)
1969/12/31/18:00:09.287,(14 5 -9 -7 5 2 4 9)
1969/12/31/18:00:09.289,(-4 -3 -1 4 7 9 8 1)
1969/12/31/18:00:09.289,(2 0 1 -4 -4 -2 0 6)
1969/12/31/18:00:09.299,(-1 1 -6 -11 -10 -5 -3 -2)
1969/12/31/18:00:09.299,(1 0 2 0 -2 -1 -2 -4)
1969/12/31/18:00:09.312,(-10 -17 -3 -3 -2 -1 1 -2)
1969/12/31/18:00:09.312,(-3 -17 -5 -2 1 0 1 2)
1969/12/31/18:00:09.318,(-6 9 5 14 4 2 0 -7)
1969/12/31/18:00:09.318,(-2 -5 -2 -8 1 -4 -7 -3)
1969/12/31/18:00:09.319,(5 11 2 -10 -14 -2 6 4)
1969/12/31/18:00:09.319,(-3 -2 3 9 11 8 8 2)
1969/12/31/18:00:09.336,(-19 -22 -4 -7 -3 -2 -6 -13)
1969/12/31/18:00:09.336,(7 8 4 17 13 2 3 6)
1969/12/31/18:00:09.338,(-5 4 6 7 4 -2 -9 -9)
1969/12/31/18:00:09.338,(-7 -6 -1 -9 -13 -4 -3 -2)
1969/12/31/18:00:09.348,(16 15 0 2 3 -1 2 8)
1969/12/31/18:00:09.348,(6 11 -3 -10 -5 0 -5 -7)
1969/12/31/18:00:09.361,(-19 -30 -8 -2 0 -7 -7 -9)
1969/12/31/18:00:09.361,(17 21 -1 4 -3 -4 -3 3)
1969/12/31/18:00:09.367,(7 15 1 -6 -7 -7 -7 2)
1969/12/31/18:00:09.367,(-6 -7 1 -3 -1 3 2 -2)
1969/12/31/18:00:09.368,(1 5 -1 -5 -4 -3 -7 -5)
1969/12/31/18:00:09.368,(-11 -7 1 2 -1 -4 -7 -12)
1969/12/31/18:00:09.385,(-16 -8 5 9 1 -2 -2 -4)
1969/12/31/18:00:09.385,(20 11 1 7 4 5 8 16)
1969/12/31/18:00:09.387,(-1 -3 -5 -5 -3 -1 1 2)
1969/12/31/18:00:09.387,(22 35 8 3 10 13 14 13)
1969/12/31/18:00:09.396,(-3 -7 -8 -6 -9 -5 -9 -13)
1969/12/31/18:00:09.396,(-7 -11 -1 -4 -4 -2 0 -2)
1969/12/31/18:00:09.404,(3 0 -1 6 7 4 9 8)
1969/12/31/18:00:09.404,(-17 -22 -6 -17 -11 -4 -6 -8)
1969/12/31/18:00:09.416,(12 4 6 8 8 5 10 12)
1969/12/31/18:00:09.416,(1 15 5 4 2 -3 -5 -6)
1969/12/31/18:00:09.418,(10 12 4 3 1 -1 1 10)
1969/12/31/18:00:09.418,(-3 -12 -7 -6 -6 0 0 -2)
1969/12/31/18:00:09.434,(-4 15 0 -14 -5 -1 -7 -8)
1969/12/31/18:00:09.434,(-16 -27 -11 -1 12 -4 -2 0)
1969/12/31/18:00:09.435,(-7 3 2 5 -11 -6 -7 -10)
1969/12/31/18:00:09.435,(6 2 0 0 2 -4 -2 1)
1969/12/31/18:00:09.445,(16 11 -1 -5 -2 0 3 12)
1969/12/31/18:00:09.445,(-15 -12 5 -1 2 8 9 -2)
1969/12/31/18:00:09.453,(-13 -8 -9 -5 -5 -13 -21 -22)
1969/12/31/18:00:09.453,(-12 -11 -5 1 3 -1 -2 -5)
1969/12/31/18:00:09.465,(8 -4 -4 -13 -8 -3 1 7)
1969/12/31/18:00:09.465,(20 17 0 2 -5 2 8 14)
1969/12/31/18:00:09.466,(5 2 8 26 20 7 7 7)
1969/12/31/18:00:09.466,(-13 -3 3 4 -3 -9 -11 -12)
1969/12/31/18:00:09.483,(-19 -20 -4 6 3 3 2 -6)
1969/12/31/18:00:09.483,(3 -3 -7 -13 -3 6 6 6)
1969/12/31/18:00:09.484,(28 31 6 -9 -3 5 8 12)
1969/12/31/18:00:09.484,(12 2 1 4 15 -2 1 5)
1969/12/31/18:00:09.494,(-21 -10 7 5 -11 -2 0 -6)
1969/12/31/18:00:09.494,(10 13 -3 -13 -10 -2 2 4)
1969/12/31/18:00:09.501,(-27 -38 -7 -10 -5 -4 -5 -5)
1969/12/31/18:00:09.501,(16 21 4 13 15 10 7 4)
1969/12/31/18:00:09.514,(-8 -6 3 10 9 1 -4 -8)
1969/12/31/18:00:09.514,(-3 -6 -2 1 -4 -4 -4 0)
1969/12/31/18:00:09.515,(16 23 4 1 -3 -3 -2 0)
1969/12/31/18:00:09.515,(-17 -11 3 -4 -8 1 2 -3)
1969/12/31/18:00:09.532,(27 12 -5 -6 1 2 10 24)
1969/12/31/18:00:09.532,(-16 -9 4 3 -6 -10 -15 -20)
1969/12/31/18:00:09.533,(19 13 -2 -7 5 5 7 13)
1969/12/31/18:00:09.533,(-9 -14 -4 2 1 0 -2 -3)
1969/12/31/18:00:09.543,(-14 -14 -8 -17 -13 -7 -9 -11)
1969/12/31/18:00:09.543,(16 18 7 9 7 -2 3 8)
1969/12/31/18:00:09.550,(-20 -14 2 18 4 -5 -3 -3)
1969/12/31/18:00:09.550,(4 -1 3 0 6 13 17 14)
1969/12/31/18:00:09.563,(-2 -5 -1 3 6 3 -1 -6)
1969/12/31/18:00:09.563,(-38 -33 -3 -13 -21 -17 -22 -28)
1969/12/31/18:00:09.563,(56 46 -1 -3 15 27 40 46)
1969/12/31/18:00:09.563,(-29 -27 -12 -3 -11 -20 -30 -31)
1969/12/31/18:00:09.581,(12 8 2 3 6 7 8 8)
1969/12/31/18:00:09.581,(-5 -2 -1 -4 -2 -3 -6 -7)
1969/12/31/18:00:09.582,(-30 -27 -8 1 -8 -13 -18 -23)
1969/12/31/18:00:09.582,(16 21 2 -5 -1 2 5 12)
1969/12/31/18:00:09.592,(-4 0 5 5 -2 -3 -5 -7)
1969/12/31/18:00:09.592,(8 -5 -10 -2 4 7 10 13)
1969/12/31/18:00:09.599,(-8 2 5 4 -1 -5 -13 -20)
1969/12/31/18:00:09.599,(3 -4 -8 -10 -7 -3 -1 1)
1969/12/31/18:00:09.611,(-16 -14 0 4 -2 -7 -12 -14)
1969/12/31/18:00:09.611,(-1 10 4 4 0 0 4 5)
1969/12/31/18:00:09.612,(-11 -11 -9 -48 -21 -5 -3 -6)
1969/12/31/18:00:09.612,(0 -3 -3 -8 -21 -3 0 1)
1969/12/31/18:00:09.629,(0 5 10 57 28 0 -4 -2)
1969/12/31/18:00:09.629,(12 18 6 14 7 0 0 5)
1969/12/31/18:00:09.631,(-37 -37 0 9 3 -2 -10 -23)
1969/12/31/18:00:09.631,(11 16 3 -15 -1 1 2 6)
1969/12/31/18:00:09.641,(34 26 -4 -23 -5 6 14 21)
1969/12/31/18:00:09.641,(5 -10 -13 -2 2 5 2 2)
1969/12/31/18:00:09.648,(-9 -6 -3 -1 -4 -9 -10 -10)
1969/12/31/18:00:09.648,(-2 -1 3 0 0 -1 2 4)
1969/12/31/18:00:09.660,(-12 -13 -5 4 -4 -6 -4 -2)
1969/12/31/18:00:09.660,(13 9 4 0 5 4 6 9)
1969/12/31/18:00:09.661,(29 20 -3 -3 -5 -2 4 16)
1969/12/31/18:00:09.661,(-24 -16 2 10 8 2 -5 -18)
1969/12/31/18:00:09.678,(-10 -8 -5 -6 -5 -4 -3 -5)
1969/12/31/18:00:09.678,(-15 -9 -5 -21 -12 -5 -9 -13)
1969/12/31/18:00:09.680,(-1 -7 -4 6 1 1 1 5)
1969/12/31/18:00:09.680,(10 10 8 19 12 2 -2 1)
1969/12/31/18:00:09.690,(-13 -8 6 5 0 0 0 -6)
1969/12/31/18:00:09.690,(-10 -7 -6 -5 -3 -3 -8 -11)
1969/12/31/18:00:09.697,(-4 -8 -2 2 0 3 5 3)
1969/12/31/18:00:09.697,(9 6 0 -6 4 -2 -1 7)
1969/12/31/18:00:09.709,(10 11 -2 -9 -19 -5 8 9)
1969/12/31/18:00:09.709,(-15 -14 2 9 8 5 -2 -7)
1969/12/31/18:00:09.710,(3 -10 8 9 21 15 15 14)
1969/12/31/18:00:09.710,(28 35 -2 -4 -2 0 3 3)
1969/12/31/18:00:09.727,(-8 -9 -3 3 1 -5 -10 -11)
1969/12/31/18:00:09.727,(8 7 -3 -33 -23 -9 2 5)
1969/12/31/18:00:09.729,(-8 0 -4 17 0 -5 -5 -12)
1969/12/31/18:00:09.729,(18 4 4 12 11 6 11 24)
1969/12/31/18:00:09.739,(-23 -20 0 1 3 -1 -10 -16)
1969/12/31/18:00:09.739,(9 9 1 2 2 4 4 4)
1969/12/31/18:00:09.746,(-6 -1 -4 -25 -13 -7 -8 -10)
1969/12/31/18:00:09.746,(-14 -13 -5 -11 -20 -13 -11 -8)
1969/12/31/18:00:09.757,(28 15 2 13 18 15 18 19)
1969/12/31/18:00:09.757,(-24 -22 2 14 3 -11 -16 -18)
1969/12/31/18:00:09.763,(46 43 10 2 11 18 25 36)
1969/12/31/18:00:09.763,(-28 -18 -6 3 -1 -4 -11 -23)
1969/12/31/18:00:09.776,(-14 -9 -7 -14 -10 -7 -10 -9)
1969/12/31/18:00:09.776,(6 4 -7 -12 -1 2 2 5)
1969/12/31/18:00:09.778,(-19 -14 -2 -2 -14 -11 -11 -13)
1969/12/31/18:00:09.778,(16 9 0 -10 -10 -1 8 17)
1969/12/31/18:00:09.787,(-3 1 9 7 1 0 3 3)
1969/12/31/18:00:09.787,(20 14 2 17 11 5 2 6)
1969/12/31/18:00:09.795,(-9 -3 2 -19 -14 -5 -7 -16)
1969/12/31/18:00:09.795,(-21 -21 -8 13 6 -6 -9 -11)
1969/12/31/18:00:09.806,(12 7 -4 -27 -2 6 8 10)
1969/12/31/18:00:09.806,(-3 0 1 23 5 2 1 2)
1969/12/31/18:00:09.812,(11 7 10 15 11 7 4 10)
1969/12/31/18:00:09.812,(-16 -12 -1 -4 -7 -5 -6 -12)
1969/12/31/18:00:09.825,(2 1 -5 -15 -6 -1 0 0)
1969/12/31/18:00:09.825,(18 11 0 -18 -2 6 11 16)
1969/12/31/18:00:09.827,(-4 0 -3 7 0 0 -4 -7)
1969/12/31/18:00:09.827,(2 -6 7 9 5 6 12 12)
1969/12/31/18:00:09.844,(0 8 -5 7 3 -17 -30 -17)
1969/12/31/18:00:09.844,(-6 -4 -3 -14 -6 3 0 -3)
1969/12/31/18:00:09.844,(-18 -22 -13 -3 -6 -11 -15 -15)
1969/12/31/18:00:09.844,(18 22 13 5 6 17 22 21)
1969/12/31/18:00:09.855,(3 -8 -4 -3 1 6 7 8)
1969/12/31/18:00:09.855,(-12 -21 2 9 3 0 0 1)
1969/12/31/18:00:09.856,(-17 3 -7 0 -4 -6 -12 -26)
1969/12/31/18:00:09.856,(38 32 4 -6 0 2 8 23)
1969/12/31/18:00:09.874,(2 1 -2 -5 0 2 3 0)
1969/12/31/18:00:09.874,(-2 -5 1 -2 -6 -5 -3 5)
1969/12/31/18:00:09.875,(1 0 -4 -1 -2 1 2 6)
1969/12/31/18:00:09.875,(-13 -11 2 5 4 -1 -4 -9)
1969/12/31/18:00:09.892,(2 6 3 -3 0 4 6 7)
1969/12/31/18:00:09.892,(3 6 0 10 7 0 0 -3)
1969/12/31/18:00:09.893,(18 5 -3 1 -6 -7 0 10)
1969/12/31/18:00:09.893,(-36 -15 4 4 4 -6 -18 -29)
1969/12/31/18:00:09.904,(-8 -4 0 -4 -2 -1 0 -5)
1969/12/31/18:00:09.904,(-9 -2 -1 -2 -8 -6 -7 -10)
1969/12/31/18:00:09.905,(7 2 -2 -6 -2 -7 -4 4)
1969/12/31/18:00:09.905,(-15 -25 -3 1 6 9 11 1)
1969/12/31/18:00:09.923,(2 -2 2 4 -3 1 5 2)
1969/12/31/18:00:09.923,(6 10 -2 -2 0 -3 -3 1)
1969/12/31/18:00:09.923,(-11 -14 -1 8 6 3 -1 -6)
1969/12/31/18:00:09.923,(4 5 -5 -7 -7 -6 -7 -1)
1969/12/31/18:00:09.941,(9 6 5 3 8 9 10 8)
1969/12/31/18:00:09.941,(1 7 2 8 1 -3 -2 -2)
1969/12/31/18:00:09.941,(0 -4 2 -4 6 8 8 10)
1969/12/31/18:00:09.941,(5 3 -7 -5 -7 -2 -2 -3)
1969/12/31/18:00:09.953,(-5 -4 -4 7 5 -2 -4 -4)
1969/12/31/18:00:09.953,(-8 0 8 7 0 -5 -7 -10)
1969/12/31/18:00:09.954,(11 -1 2 5 5 2 8 12)
1969/12/31/18:00:09.954,(-5 3 4 0 2 6 6 -2)
1969/12/31/18:00:09.972,(-4 -5 -6 -11 -9 -5 -7 -7)
1969/12/31/18:00:09.972,(-24 -18 -6 -2 -6 -9 -12 -15)
1969/12/31/18:00:09.972,(22 18 7 0 12 21 31 26)
1969/12/31/18:00:09.972,(17 2 -3 2 2 -4 -6 6)
1969/12/31/18:00:09.989,(-5 -7 -10 -24 0 -2 -7 -6)
1969/12/31/18:00:09.989,(-5 -7 3 25 -9 -2 -2 -5)
1969/12/31/18:00:09.990,(-5 9 8 10 6 -5 -7 -4)
1969/12/31/18:00:09.990,(8 3 3 10 9 2 0 4)
1969/12/31/18:00:10.002,(0 -1 5 4 8 7 8 7)
1969/12/31/18:00:10.002,(6 0 -10 -23 -2 3 4 3)
1969/12/31/18:00:10.003,(-15 -11 -5 -6 -10 -7 -7 -11)
1969/12/31/18:00:10.003,(0 -1 -5 -5 -9 -7 -3 0)
1969/12/31/18:00:10.020,(-17 -8 1 8 -2 -9 -13 -14)
1969/12/31/18:00:10.020,(21 8 -4 -10 8 15 19 21)
1969/12/31/18:00:10.021,(2 4 4 8 1 -6 -9 -7)
1969/12/31/18:00:10.021,(5 4 1 -3 5 7 8 5)
1969/12/31/18:00:10.046,(-5 -5 -1 4 -6 -5 0 1)
1969/12/31/18:00:10.046,(4 18 4 -2 -5 -3 -4 0)
1969/12/31/18:00:10.046,(-15 -9 -4 -5 0 3 -3 -11)
1969/12/31/18:00:10.046,(-18 -21 -15 -13 -11 -10 -13 -12)
1969/12/31/18:00:10.051,(11 12 6 7 -1 -1 -5 -6)
1969/12/31/18:00:10.051,(-7 -13 -1 -4 3 -2 -6 -8)
1969/12/31/18:00:10.051,(0 1 2 -6 -5 -2 0 3)
1969/12/31/18:00:10.051,(-2 5 -2 -1 -5 -6 -5 -4)
1969/12/31/18:00:10.069,(3 -3 0 -1 -3 1 6 9)
1969/12/31/18:00:10.069,(3 1 -6 -38 -13 -2 1 4)
1969/12/31/18:00:10.069,(1 -1 -5 22 14 4 0 -1)
1969/12/31/18:00:10.069,(-5 -2 11 26 9 0 -5 -5)
1969/12/31/18:00:10.087,(-3 1 3 -3 -7 -3 -2 0)
1969/12/31/18:00:10.087,(11 10 7 42 25 8 8 7)
1969/12/31/18:00:10.088,(2 7 0 -18 -7 -3 -3 0)
1969/12/31/18:00:10.088,(-8 -15 -10 -4 0 1 -2 -3)
1969/12/31/18:00:10.099,(1 4 1 -9 -5 2 3 0)
1969/12/31/18:00:10.099,(6 0 -4 -19 -6 2 5 4)
1969/12/31/18:00:10.100,(-7 -8 -3 -5 -6 -5 -6 -6)
1969/12/31/18:00:10.100,(16 12 -2 -7 -7 -7 -2 7)
1969/12/31/18:00:10.118,(-14 -8 -3 -1 -3 -7 -15 -18)
1969/12/31/18:00:10.118,(-16 -22 -6 0 1 2 0 -7)
1969/12/31/18:00:10.119,(1 19 2 9 3 1 3 -4)
1969/12/31/18:00:10.119,(14 7 2 -3 -1 6 4 1)
1969/12/31/18:00:10.136,(4 -5 -6 -1 1 1 5 12)
1969/12/31/18:00:10.136,(-7 1 4 8 3 1 1 -5)
1969/12/31/18:00:10.137,(-4 -15 -5 -13 -13 -6 -6 -2)
1969/12/31/18:00:10.137,(-7 -2 -3 -7 1 -2 0 -3)
1969/12/31/18:00:10.148,(2 6 1 8 1 0 0 1)
1969/12/31/18:00:10.148,(12 9 6 2 -1 2 7 10)
1969/12/31/18:00:10.149,(-2 -2 -3 -17 -9 -5 -3 -2)
1969/12/31/18:00:10.149,(-2 -5 -4 2 -7 0 0 -1)
1969/12/31/18:00:10.167,(3 -4 1 25 13 -1 -2 3)
1969/12/31/18:00:10.167,(-6 10 18 23 19 16 13 6)
1969/12/31/18:00:10.168,(-24 -31 -7 5 1 -3 -13 -21)
1969/12/31/18:00:10.168,(-4 -1 -9 -20 -14 -8 -6 -5)
1969/12/31/18:00:10.185,(-1 7 -5 -15 -12 -4 -1 -5)
1969/12/31/18:00:10.185,(30 22 3 -5 -3 2 8 19)
1969/12/31/18:00:10.186,(5 1 1 0 2 0 2 4)
1969/12/31/18:00:10.186,(-12 -11 2 2 4 2 0 -6)
1969/12/31/18:00:10.197,(-10 -6 -5 -5 -9 -6 -7 -8)
1969/12/31/18:00:10.198,(1 5 1 -1 3 1 0 -3)
1969/12/31/18:00:10.204,(20 19 4 5 8 11 19 22)
1969/12/31/18:00:10.204,(-18 -8 6 4 1 1 -1 -5)
1969/12/31/18:00:10.216,(-19 -23 -7 1 -1 -2 -3 -4)
1969/12/31/18:00:10.216,(22 18 0 -5 -4 -3 -6 -2)
1969/12/31/18:00:10.216,(-1 -4 -2 -2 0 1 0 -2)
1969/12/31/18:00:10.216,(7 12 0 2 -2 -2 2 4)
1969/12/31/18:00:10.235,(9 2 2 -6 -1 3 8 10)
1969/12/31/18:00:10.235,(-20 -20 -12 -18 -10 -10 -13 -14)
1969/12/31/18:00:10.235,(6 5 -2 -3 5 5 4 4)
1969/12/31/18:00:10.235,(-10 -10 6 28 -2 -4 -5 -8)
1969/12/31/18:00:10.246,(28 28 16 19 20 15 17 22)
1969/12/31/18:00:10.246,(-8 -14 -12 -8 -4 -8 -10 -7)
1969/12/31/18:00:10.253,(-8 -5 -4 -7 -9 -5 -9 -10)
1969/12/31/18:00:10.253,(3 -3 -10 -26 -11 0 3 3)
1969/12/31/18:00:10.265,(-10 -7 -6 3 2 -9 -12 -12)
1969/12/31/18:00:10.265,(6 7 3 13 1 3 6 6)
1969/12/31/18:00:10.265,(3 1 8 19 13 1 1 2)
1969/12/31/18:00:10.265,(-5 -10 -2 -6 -1 1 -4 -5)
1969/12/31/18:00:10.283,(-4 -1 -3 -8 -9 1 2 -6)
1969/12/31/18:00:10.283,(6 2 -6 -8 -4 -5 -3 1)
1969/12/31/18:00:10.284,(-15 -7 1 -1 -5 -3 -3 -11)
1969/12/31/18:00:10.284,(-2 -4 -2 2 6 -1 -3 -2)
1969/12/31/18:00:10.295,(2 3 0 -4 -2 2 2 3)
1969/12/31/18:00:10.295,(-8 -6 -3 -4 -3 -3 -6 -6)
1969/12/31/18:00:10.296,(2 -4 -1 4 1 1 1 5)
1969/12/31/18:00:10.296,(9 13 5 1 -1 0 4 5)
1969/12/31/18:00:10.320,(-6 -2 -4 -6 -7 -7 -6 -8)
1969/12/31/18:00:10.320,(15 11 0 -6 5 9 9 13)
1969/12/31/18:00:10.321,(2 0 0 15 -2 -1 -2 1)
1969/12/31/18:00:10.321,(-2 -3 2 6 6 3 0 1)
1969/12/31/18:00:10.332,(-9 -10 -5 -2 4 -5 -5 -9)
1969/12/31/18:00:10.332,(0 0 -3 -6 -4 -2 -1 -1)
1969/12/31/18:00:10.333,(2 4 3 8 1 2 1 3)
1969/12/31/18:00:10.333,(5 7 7 10 10 3 4 -2)
1969/12/31/18:00:10.344,(2 2 1 -2 0 5 6 3)
1969/12/31/18:00:10.344,(-18 -14 -8 -7 -9 -11 -9 -9)
1969/12/31/18:00:10.345,(-5 -9 -6 -13 -5 -6 -8 -7)
1969/12/31/18:00:10.345,(2 -3 -7 -5 -4 -2 3 4)
1969/12/31/18:00:10.363,(4 2 1 -2 -5 -2 1 3)
1969/12/31/18:00:10.363,(0 1 -2 -29 -32 -20 -7 -4)
1969/12/31/18:00:10.363,(3 5 -1 12 -2 -2 -2 2)
1969/12/31/18:00:10.363,(-3 -3 0 12 25 7 1 -2)
1969/12/31/18:00:10.381,(6 2 4 13 30 28 12 6)
1969/12/31/18:00:10.381,(6 8 7 18 24 14 5 5)
1969/12/31/18:00:10.381,(-4 -3 -3 -13 -16 -8 -3 -5)
1969/12/31/18:00:10.381,(-2 -3 -7 -12 -17 -14 -12 -6)
1969/12/31/18:00:10.393,(9 -6 -6 -6 -15 -14 2 6)
1969/12/31/18:00:10.393,(-21 0 18 19 13 19 23 -3)
1969/12/31/18:00:10.394,(-4 -2 -3 -5 -1 -4 -4 -3)
1969/12/31/18:00:10.394,(3 4 -2 -4 -3 1 -1 4)
1969/12/31/18:00:10.412,(-7 -7 -3 -1 -9 -9 -11 -8)
1969/12/31/18:00:10.412,(-4 -7 -6 1 -2 -4 -4 -4)
1969/12/31/18:00:10.413,(19 16 7 3 8 10 16 24)
1969/12/31/18:00:10.413,(-9 -10 -5 -6 -2 -2 -8 -10)
1969/12/31/18:00:10.429,(3 6 1 -3 -3 -1 3 4)
1969/12/31/18:00:10.429,(-2 -5 -3 0 -4 -5 -6 -5)
1969/12/31/18:00:10.430,(-8 -5 -2 -6 7 -3 -1 -7)
1969/12/31/18:00:10.430,(13 9 -1 -7 -19 -2 5 10)
1969/12/31/18:00:10.442,(-2 -1 4 18 16 3 1 3)
1969/12/31/18:00:10.442,(-2 -3 0 11 8 1 -5 -8)
1969/12/31/18:00:10.454,(-5 -4 -1 -4 -2 -6 -6 -9)
1969/12/31/18:00:10.454,(4 0 -4 -15 -5 2 4 8)
1969/12/31/18:00:10.460,(-2 -1 0 -3 -5 -2 1 -3)
1969/12/31/18:00:10.460,(-8 -11 0 3 -1 -1 -3 -3)
1969/12/31/18:00:10.461,(19 25 12 5 6 13 22 27)
1969/12/31/18:00:10.461,(-15 -8 -1 1 -2 -7 -14 -19)
1969/12/31/18:00:10.479,(-3 -3 -1 -4 -4 0 3 2)
1969/12/31/18:00:10.479,(-8 -13 -10 -2 -4 -4 -8 -3)
1969/12/31/18:00:10.480,(11 6 0 -6 -1 6 4 5)
1969/12/31/18:00:10.480,(3 8 4 2 2 -1 0 2)
1969/12/31/18:00:10.491,(7 5 0 -1 2 1 0 3)
1969/12/31/18:00:10.491,(-3 -5 -3 -1 -7 -8 -5 0)
1969/12/31/18:00:10.497,(-10 -10 -5 -2 -6 -5 -8 -10)
1969/12/31/18:00:10.497,(-1 -3 -2 8 3 2 5 4)
1969/12/31/18:00:10.509,(10 6 0 -11 -4 4 3 8)
1969/12/31/18:00:10.509,(-1 0 1 1 3 2 5 7)
1969/12/31/18:00:10.509,(-4 -2 -2 -4 -4 -4 -5 -6)
1969/12/31/18:00:10.509,(3 0 1 6 2 -1 0 1)
1969/12/31/18:00:10.528,(-24 -15 -2 7 0 -6 -11 -20)
1969/12/31/18:00:10.528,(10 11 2 -11 -3 2 4 6)
1969/12/31/18:00:10.529,(-3 -9 -9 -6 -6 -4 -6 -5)
1969/12/31/18:00:10.529,(5 7 6 8 10 8 17 17)
1969/12/31/18:00:10.539,(-13 -11 -4 -2 -2 -4 -11 -8)
1969/12/31/18:00:10.539,(6 10 5 8 5 9 12 7)
1969/12/31/18:00:10.546,(1 -5 1 -4 -5 -6 -10 -4)
1969/12/31/18:00:10.546,(8 -1 -7 -7 0 3 6 6)
1969/12/31/18:00:10.558,(18 16 4 -1 3 6 7 10)
1969/12/31/18:00:10.558,(-12 -13 -9 -8 -7 -7 -7 -8)
1969/12/31/18:00:10.559,(7 8 5 7 5 3 5 6)
1969/12/31/18:00:10.559,(-19 -9 1 4 -4 -8 -13 -18)
1969/12/31/18:00:10.577,(19 12 -2 -12 -3 2 11 16)
1969/12/31/18:00:10.577,(-10 -11 -16 -43 -5 -12 -14 -13)
1969/12/31/18:00:10.578,(9 8 6 33 -3 3 9 7)
1969/12/31/18:00:10.578,(1 1 12 35 11 1 -1 2)
1969/12/31/18:00:10.588,(-11 -2 10 31 14 1 -5 -12)
1969/12/31/18:00:10.588,(11 5 -2 -6 1 3 6 8)
1969/12/31/18:00:10.595,(-23 -14 -8 -4 5 -7 -11 -18)
1969/12/31/18:00:10.595,(21 14 0 -14 0 7 13 15)
1969/12/31/18:00:10.607,(-2 2 -2 -19 -13 -8 -5 -2)
1969/12/31/18:00:10.607,(-5 -5 -2 4 -10 -6 -5 -6)
1969/12/31/18:00:10.607,(-7 -5 -4 -5 0 -2 -3 -5)
1969/12/31/18:00:10.607,(-1 -2 -13 -39 1 2 -1 0)
1969/12/31/18:00:10.626,(2 0 -1 -4 -2 5 5 2)
1969/12/31/18:00:10.626,(4 6 27 62 7 5 -1 -3)
1969/12/31/18:00:10.627,(-6 0 1 16 0 -8 -6 -5)
1969/12/31/18:00:10.627,(-12 -11 -8 10 -3 -10 -13 -14)
1969/12/31/18:00:10.636,(3 -4 -19 -45 -7 -3 1 3)
1969/12/31/18:00:10.636,(-10 -9 -10 -31 0 -1 -5 -6)
1969/12/31/18:00:10.644,(6 9 15 21 2 7 9 5)
1969/12/31/18:00:10.644,(10 14 31 34 19 17 12 7)
1969/12/31/18:00:10.656,(-3 -3 -11 18 13 -3 -6 -4)
1969/12/31/18:00:10.656,(0 -6 -21 -3 -12 -14 -9 -3)
1969/12/31/18:00:10.657,(-10 -13 -9 -35 -16 -7 -6 -7)
1969/12/31/18:00:10.657,(-1 1 4 -15 -13 -3 -1 -1)
1969/12/31/18:00:10.675,(1 7 22 19 0 7 5 1)
1969/12/31/18:00:10.675,(13 16 20 23 17 13 11 7)
1969/12/31/18:00:10.675,(1 -6 -29 -23 -1 -9 -10 -3)
1969/12/31/18:00:10.675,(-9 -16 -22 -22 -13 -10 -8 -7)
1969/12/31/18:00:10.686,(-6 -2 8 3 -13 -7 -5 -6)
1969/12/31/18:00:10.686,(4 6 16 13 15 11 6 5)
1969/12/31/18:00:10.693,(12 16 16 10 5 11 10 6)
1969/12/31/18:00:10.693,(-2 -5 -12 3 1 -2 -3 -3)
1969/12/31/18:00:10.705,(-4 -13 -31 -21 -10 -14 -10 -3)
1969/12/31/18:00:10.705,(-7 -5 -5 -37 -21 -9 -5 -5)
1969/12/31/18:00:10.706,(1 3 4 9 0 1 1 1)
1969/12/31/18:00:10.706,(-1 5 11 40 20 1 -1 0)
1969/12/31/18:00:10.723,(-1 3 15 20 14 10 7 1)
1969/12/31/18:00:10.723,(1 3 9 13 5 6 3 2)
1969/12/31/18:00:10.724,(0 -8 -21 -41 -15 -6 -3 0)
1969/12/31/18:00:10.724,(1 -1 -15 -32 -23 -6 -1 -1)
1969/12/31/18:00:10.742,(1 0 2 19 1 -1 -1 -1)
1969/12/31/18:00:10.742,(0 2 1 22 9 1 -2 0)
1969/12/31/18:00:10.742,(-1 4 19 13 13 5 -1 -1)
1969/12/31/18:00:10.743,(1 -1 -13 -21 -10 -5 -4 0)
1969/12/31/18:00:10.754,(-4 -6 -8 -25 -7 -3 0 -3)
1969/12/31/18:00:10.754,(-1 0 10 7 -11 -6 -2 -3)
1969/12/31/18:00:10.755,(0 -1 -8 4 7 -1 0 -1)
1969/12/31/18:00:10.755,(0 1 8 22 7 4 3 1)
1969/12/31/18:00:10.772,(2 2 -9 -18 -8 0 3 2)
1969/12/31/18:00:10.772,(-3 -8 -19 -11 -3 -9 -7 -4)
1969/12/31/18:00:10.773,(-6 -4 8 14 16 0 -1 -2)
1969/12/31/18:00:10.773,(-1 2 10 -4 0 4 3 0)
1969/12/31/18:00:10.791,(2 5 6 4 -3 -1 -1 1)
1969/12/31/18:00:10.791,(6 2 1 -7 -2 7 4 6)
1969/12/31/18:00:10.791,(4 -1 1 -5 -9 -4 -1 1)
1969/12/31/18:00:10.791,(0 2 -1 -1 -1 -3 -2 1)
1969/12/31/18:00:10.803,(-2 -5 -8 -3 -4 -4 -1 -1)
1969/12/31/18:00:10.803,(-6 -3 0 -11 -2 -2 -2 -4)
1969/12/31/18:00:10.803,(1 5 15 -8 -3 8 5 2)
1969/12/31/18:00:10.803,(4 -2 -17 -4 -3 -2 -2 1)
1969/12/31/18:00:10.821,(-7 -8 2 24 6 -4 -3 -4)
1969/12/31/18:00:10.821,(-4 0 8 10 15 -2 -3 -2)
1969/12/31/18:00:10.827,(-1 0 -11 0 2 2 2 1)
1969/12/31/18:00:10.827,(-1 0 1 -15 -4 1 1 1)
1969/12/31/18:00:10.839,(2 4 17 -6 -4 4 1 1)
1969/12/31/18:00:10.839,(-3 -2 -12 21 7 4 -2 -2)
1969/12/31/18:00:10.840,(-2 -7 -5 -35 -17 -8 -5 -3)
1969/12/31/18:00:10.840,(-6 -5 -11 15 2 -6 -3 -3)
1969/12/31/18:00:10.851,(-5 -3 4 9 7 0 -5 -4)
1969/12/31/18:00:10.851,(6 9 16 2 -4 8 7 2)
1969/12/31/18:00:10.852,(4 1 -10 15 9 1 -1 1)
1969/12/31/18:00:10.852,(-1 -6 -5 -32 -19 -6 -2 0)
1969/12/31/18:00:10.870,(-8 -3 2 -8 -6 -8 -4 -5)
1969/12/31/18:00:10.870,(-1 -3 -8 -10 -2 -4 -3 -1)
1969/12/31/18:00:10.871,(-6 -4 -1 4 0 3 0 -2)
1969/12/31/18:00:10.871,(5 4 12 32 24 9 5 2)
1969/12/31/18:00:10.889,(4 6 3 3 -2 2 0 1)
1969/12/31/18:00:10.889,(8 3 -7 -32 -15 1 3 4)
1969/12/31/18:00:10.889,(3 -3 -6 21 -10 -11 -6 -2)
1969/12/31/18:00:10.889,(-13 -9 6 4 8 -2 -4 -7)
1969/12/31/18:00:10.900,(-1 2 -1 -1 15 5 3 0)
1969/12/31/18:00:10.900,(-4 -5 -5 -16 -17 -7 -4 -3)
1969/12/31/18:00:10.901,(-2 -2 1 4 0 4 0 -2)
1969/12/31/18:00:10.901,(8 5 4 -2 5 4 3 4)
1969/12/31/18:00:10.919,(-8 -7 -10 3 -8 -2 -3 -4)
1969/12/31/18:00:10.919,(6 6 0 -2 3 8 6 5)
1969/12/31/18:00:10.920,(-3 -4 -2 13 5 -9 -6 -3)
1969/12/31/18:00:10.920,(-6 2 2 -23 -16 -4 -2 -4)
1969/12/31/18:00:10.937,(5 0 -17 -5 -4 -6 -2 2)
1969/12/31/18:00:10.937,(-7 -6 3 5 -3 -2 -1 -3)
1969/12/31/18:00:10.938,(2 6 8 -3 17 10 5 2)
1969/12/31/18:00:10.938,(3 2 -4 18 4 0 -3 0)
1969/12/31/18:00:10.949,(-7 -9 -7 -11 6 1 -2 -5)
1969/12/31/18:00:10.949,(1 1 7 26 17 3 2 1)
1969/12/31/18:00:10.950,(-10 -6 1 -27 -16 -8 -5 -6)
1969/12/31/18:00:10.950,(0 0 -2 -21 -16 -4 1 1)
1969/12/31/18:00:10.968,(6 8 5 -3 -12 -3 4 4)
1969/12/31/18:00:10.968,(-1 -5 -15 11 15 0 -5 -5)
1969/12/31/18:00:10.969,(3 1 12 68 40 13 4 5)
1969/12/31/18:00:10.969,(-14 -14 -5 -40 -27 -18 -9 -8)
1969/12/31/18:00:10.992,(8 5 -5 -14 -15 -2 2 5)
1969/12/31/18:00:10.992,(-5 -4 -5 -28 -9 -1 0 -4)
1969/12/31/18:00:10.993,(-1 -4 -18 -9 -14 -4 -2 -1)
1969/12/31/18:00:10.993,(4 7 14 15 17 9 2 3)
1969/12/31/18:00:10.998,(1 2 14 20 6 0 -1 1)
1969/12/31/18:00:10.998,(2 -2 -16 -16 -5 -3 -3 0)
1969/12/31/18:00:10.998,(4 3 3 -9 -3 0 0 2)
1969/12/31/18:00:10.998,(-3 2 14 12 1 1 1 -4)
1969/12/31/18:00:11.016,(-6 -6 -4 -4 -1 0 -1 -4)
1969/12/31/18:00:11.016,(0 2 8 17 16 7 2 1)
1969/12/31/18:00:11.022,(10 -4 -36 -28 -15 -6 3 7)
1969/12/31/18:00:11.022,(3 -2 -4 -2 -6 -1 0 0)
1969/12/31/18:00:11.035,(-5 2 22 30 20 11 1 -5)
1969/12/31/18:00:11.035,(2 1 12 12 12 -2 -2 3)
1969/12/31/18:00:11.036,(-6 1 11 -2 -7 -3 -1 -4)
1969/12/31/18:00:11.036,(-6 -4 -3 -2 -7 -3 -1 -3)
1969/12/31/18:00:11.046,(5 0 -9 -7 8 5 9 7)
1969/12/31/18:00:11.046,(-5 -2 1 5 -12 -8 -3 -4)
1969/12/31/18:00:11.054,(-6 -6 -3 -10 -2 -1 0 -3)
1969/12/31/18:00:11.054,(3 -1 -12 -6 -1 1 3 3)
1969/12/31/18:00:11.066,(-4 -3 0 -4 -9 -8 -6 -6)
1969/12/31/18:00:11.066,(-3 -4 -6 -3 -4 -4 0 -1)
1969/12/31/18:00:11.067,(0 1 2 -5 -2 1 1 -1)
1969/12/31/18:00:11.067,(-3 -3 -7 1 1 -2 -3 -4)
1969/12/31/18:00:11.084,(3 1 1 3 2 3 0 0)
1969/12/31/18:00:11.084,(-1 -1 -1 0 -2 0 -2 -8)
1969/12/31/18:00:11.085,(-3 0 3 -3 -3 2 -4 -9)
1969/12/31/18:00:11.085,(0 3 11 10 5 4 -2 -1)
1969/12/31/18:00:11.095,(13 6 -13 -14 -4 4 3 10)
1969/12/31/18:00:11.095,(5 1 -4 -4 -2 -1 -2 6)
1969/12/31/18:00:11.102,(-3 -3 7 2 -2 2 0 2)
1969/12/31/18:00:11.102,(-2 -1 6 10 8 4 0 0)
1969/12/31/18:00:11.115,(-2 -1 -2 -2 -3 -2 -1 3)
1969/12/31/18:00:11.115,(-2 -2 -4 -4 -5 -3 -2 0)
1969/12/31/18:00:11.116,(-1 1 2 2 5 2 0 3)
1969/12/31/18:00:11.116,(2 2 -4 2 1 -2 0 2)
1969/12/31/18:00:11.133,(3 1 -2 -4 -1 0 2 0)
1969/12/31/18:00:11.133,(0 -1 2 1 -3 -2 -2 -1)
1969/12/31/18:00:11.134,(-4 -3 -3 -9 -7 -2 0 -3)
1969/12/31/18:00:11.134,(10 6 0 11 6 8 7 6)
1969/12/31/18:00:11.144,(-10 -9 5 3 14 -2 -6 -8)
1969/12/31/18:00:11.144,(5 5 1 5 1 1 4 8)
1969/12/31/18:00:11.151,(2 3 1 -12 -9 -8 -1 5)
1969/12/31/18:00:11.151,(-1 -2 -7 -5 -6 -6 1 3)
1969/12/31/18:00:11.163,(-1 2 3 6 13 -1 2 3)
1969/12/31/18:00:11.163,(-5 -6 0 7 0 -3 -4 -5)
1969/12/31/18:00:11.165,(1 -1 -2 -8 -2 1 -2 -5)
1969/12/31/18:00:11.165,(0 2 -1 8 0 0 0 -2)
1969/12/31/18:00:11.181,(-2 -2 -2 -3 -9 -5 -4 -7)
1969/12/31/18:00:11.181,(-1 -1 -3 -8 -4 -4 -2 -3)
1969/12/31/18:00:11.183,(1 2 1 5 1 -2 0 -2)
1969/12/31/18:00:11.183,(-2 -2 0 -3 4 -1 -4 -4)
1969/12/31/18:00:11.193,(-1 -1 -1 -4 -7 0 1 1)
1969/12/31/18:00:11.193,(-2 -1 -5 -5 -4 0 0 1)
1969/12/31/18:00:11.200,(4 -2 1 6 5 3 2 3)
1969/12/31/18:00:11.200,(-4 -2 -2 -2 3 1 -4 -3)
1969/12/31/18:00:11.212,(-4 -4 -7 -13 -18 -7 -5 -5)
1969/12/31/18:00:11.212,(4 4 -6 -9 4 1 3 5)
1969/12/31/18:00:11.214,(-5 0 11 24 11 5 3 -1)
1969/12/31/18:00:11.214,(-6 -3 0 -3 -2 -1 -2 -5)
1969/12/31/18:00:11.231,(6 3 -3 5 0 1 2 4)
1969/12/31/18:00:11.231,(-5 -3 4 1 0 1 -2 -2)
1969/12/31/18:00:11.232,(0 0 -2 -7 0 0 -2 0)
1969/12/31/18:00:11.232,(0 -2 -1 -5 -2 -2 0 0)
1969/12/31/18:00:11.242,(-5 -2 0 -4 -7 -2 -3 -3)
1969/12/31/18:00:11.242,(0 -1 -2 -4 -3 -2 1 0)
1969/12/31/18:00:11.249,(-2 -2 -2 0 2 -1 -3 -3)
1969/12/31/18:00:11.249,(3 1 0 -4 -4 1 4 5)
1969/12/31/18:00:11.260,(-3 -2 -3 -1 -2 -2 -5 -2)
1969/12/31/18:00:11.260,(2 3 3 6 3 -2 2 0)
1969/12/31/18:00:11.266,(-1 2 2 1 1 1 -2 -1)
1969/12/31/18:00:11.266,(-2 -4 -4 -4 -5 -5 -7 -4)
1969/12/31/18:00:11.280,(1 0 1 -4 -12 0 2 4)
1969/12/31/18:00:11.280,(1 -1 -7 -10 15 5 2 1)
1969/12/31/18:00:11.281,(-2 -2 -8 0 -2 -5 -3 -3)
1969/12/31/18:00:11.281,(3 2 3 14 10 2 -1 1)
1969/12/31/18:00:11.291,(2 3 10 16 15 4 -2 1)
1969/12/31/18:00:11.291,(-8 -5 4 -2 -7 -2 -3 -5)
1969/12/31/18:00:11.298,(0 0 -4 -13 -7 -1 3 3)
1969/12/31/18:00:11.298,(0 -1 -7 -11 -8 -3 3 0)
1969/12/31/18:00:11.309,(3 0 -5 1 -2 -4 -2 -2)
1969/12/31/18:00:11.309,(1 -1 -1 0 -4 -1 -2 -1)
1969/12/31/18:00:11.321,(-2 -3 -3 -3 -1 -1 -3 -4)
1969/12/31/18:00:11.321,(6 6 5 7 4 3 3 8)
1969/12/31/18:00:11.328,(1 -1 -2 -4 1 2 2 4)
1969/12/31/18:00:11.328,(-10 -5 -5 -2 -4 -11 -27 -22)
1969/12/31/18:00:11.330,(-3 -1 0 1 -4 1 16 5)
1969/12/31/18:00:11.330,(10 0 1 1 2 9 17 21)
1969/12/31/18:00:11.339,(-1 0 1 -1 4 2 -3 -3)
1969/12/31/18:00:11.339,(4 -1 -1 1 -4 0 4 4)
1969/12/31/18:00:11.347,(-4 -1 2 1 0 -5 -12 -10)
1969/12/31/18:00:11.347,(-7 -3 -4 -3 0 -5 -7 -9)
1969/12/31/18:00:11.358,(-2 0 0 0 1 0 -1 -2)
1969/12/31/18:00:11.358,(3 1 -1 2 -5 -1 3 -1)
1969/12/31/18:00:11.366,(-1 0 0 1 0 -1 -3 -3)
1969/12/31/18:00:11.366,(-3 -2 -2 -2 0 0 0 -3)
1969/12/31/18:00:11.378,(-2 0 -1 -2 -1 1 -1 0)
1969/12/31/18:00:11.378,(-2 -1 0 1 -3 1 0 0)
1969/12/31/18:00:11.379,(2 1 -1 -3 0 2 2 3)
1969/12/31/18:00:11.379,(-1 0 -2 -1 -2 -1 -1 -1)
1969/12/31/18:00:11.388,(-3 -1 0 1 0 -3 -2 -3)
1969/12/31/18:00:11.388,(3 1 1 -2 0 2 5 3)
1969/12/31/18:00:11.396,(3 0 0 -2 -1 0 0 3)
1969/12/31/18:00:11.396,(-4 -1 -1 0 1 -1 -4 -5)
1969/12/31/18:00:11.414,(-2 -1 -1 1 1 -3 -2 -4)
1969/12/31/18:00:11.414,(2 2 -4 -2 -4 4 7 4)
1969/12/31/18:00:11.415,(1 -2 -4 -1 -1 0 -2 -1)
1969/12/31/18:00:11.415,(1 4 6 5 2 1 -2 -1)
1969/12/31/18:00:11.426,(-3 -1 1 -4 -3 -3 -1 0)
1969/12/31/18:00:11.426,(0 -1 3 2 0 -4 -3 1)
1969/12/31/18:00:11.427,(-3 -3 0 -1 -2 -3 -2 -3)
1969/12/31/18:00:11.427,(-2 -3 -3 -2 1 0 -2 -5)
1969/12/31/18:00:11.438,(2 2 -2 0 1 1 1 4)
1969/12/31/18:00:11.438,(-1 -2 -2 1 -2 -2 0 0)
1969/12/31/18:00:11.445,(-1 0 -1 -1 0 0 1 0)
1969/12/31/18:00:11.445,(-1 -1 -2 -1 -1 -1 -2 0)
1969/12/31/18:00:11.463,(1 -1 0 -1 -2 -2 -1 -1)
1969/12/31/18:00:11.463,(-1 -1 -1 -2 0 -2 -3 -3)
1969/12/31/18:00:11.464,(4 1 2 2 2 1 1 3)
1969/12/31/18:00:11.464,(-1 -1 0 -2 0 -1 -2 -2)
1969/12/31/18:00:11.481,(1 -1 -2 -3 -3 1 0 2)
1969/12/31/18:00:11.482,(-3 -3 -1 -2 -4 -2 -2 0)
1969/12/31/18:00:11.483,(0 0 -1 -1 -1 -1 2 2)
1969/12/31/18:00:11.483,(1 -1 1 2 4 1 -4 -5)
1969/12/31/18:00:11.493,(0 -3 -4 -3 -2 1 0 -1)
1969/12/31/18:00:11.493,(0 -1 6 6 7 1 1 2)
1969/12/31/18:00:11.495,(-4 -2 2 -3 -2 -2 -5 -3)
1969/12/31/18:00:11.495,(-2 -1 -2 -1 -3 -2 -3 -2)
1969/12/31/18:00:11.505,(1 -2 -2 0 -1 -1 2 -1)
1969/12/31/18:00:11.505,(1 0 -5 -2 -2 0 1 1)
1969/12/31/18:00:11.511,(2 0 -2 0 -2 0 2 1)
1969/12/31/18:00:11.511,(-1 0 -1 -2 -1 -3 0 0)
1969/12/31/18:00:11.524,(-1 1 0 0 0 0 0 0)
1969/12/31/18:00:11.524,(0 0 -2 -2 -1 2 -1 1)
1969/12/31/18:00:11.525,(-2 1 2 3 1 -1 -4 -3)
1969/12/31/18:00:11.525,(-2 -2 -1 0 -1 -2 -2 0)
1969/12/31/18:00:11.542,(2 0 0 1 0 1 2 1)
1969/12/31/18:00:11.542,(-1 -1 -1 0 -3 -1 1 -1)
1969/12/31/18:00:11.544,(-1 -1 -2 -1 2 -1 -4 -4)
1969/12/31/18:00:11.544,(1 1 -1 -3 -4 0 4 2)
1969/12/31/18:00:11.554,(1 1 3 4 6 -3 -4 -1)
1969/12/31/18:00:11.554,(-2 -3 1 -1 0 3 1 -1)
1969/12/31/18:00:11.559,(1 -1 -1 -1 -2 -2 0 -2)
1969/12/31/18:00:11.559,(1 0 2 0 -1 -1 0 -1)
1969/12/31/18:00:11.572,(-4 -3 -2 -2 -3 -1 0 -1)
1969/12/31/18:00:11.572,(2 2 0 2 0 1 2 -1)
1969/12/31/18:00:11.574,(-1 -2 -1 2 0 1 -2 1)
1969/12/31/18:00:11.574,(-2 1 -1 -1 0 1 -1 -2)
1969/12/31/18:00:11.591,(0 0 -1 -1 -1 0 0 0)
1969/12/31/18:00:11.591,(0 0 0 1 1 0 -1 1)
1969/12/31/18:00:11.593,(-1 -1 -1 -1 -1 -2 2 0)
1969/12/31/18:00:11.593,(-1 -2 -2 1 -1 -3 -2 1)
1969/12/31/18:00:11.603,(1 -1 -2 -1 0 0 1 1)
1969/12/31/18:00:11.603,(1 -1 0 -3 -2 -3 -4 -2)
1969/12/31/18:00:11.609,(2 1 2 1 1 0 2 1)
1969/12/31/18:00:11.609,(0 -2 0 -2 -1 -1 -3 -2)
1969/12/31/18:00:11.621,(2 -1 0 0 0 1 2 0)
1969/12/31/18:00:11.621,(0 -1 -2 -3 -3 0 3 2)
1969/12/31/18:00:11.623,(0 1 -1 0 0 2 -1 1)
1969/12/31/18:00:11.623,(-2 -4 -5 -4 -1 -1 -2 -3)
1969/12/31/18:00:11.640,(0 1 2 -1 -2 -1 -3 1)
1969/12/31/18:00:11.640,(-1 -1 3 2 4 -1 -1 -2)
1969/12/31/18:00:11.641,(-3 -3 -2 -3 -4 -3 -1 0)
1969/12/31/18:00:11.641,(-2 -2 0 1 1 -1 -1 -1)
1969/12/31/18:00:11.652,(-1 -1 -3 -3 -3 -3 0 -1)
1969/12/31/18:00:11.652,(-1 1 -1 1 0 0 -2 1)
1969/12/31/18:00:11.657,(-2 1 0 0 0 0 -2 0)
1969/12/31/18:00:11.657,(0 -1 1 0 -2 -2 0 1)
1969/12/31/18:00:11.670,(-1 -1 -2 0 -1 -2 -4 -2)
1969/12/31/18:00:11.670,(0 -1 0 -1 -1 0 -1 2)
1969/12/31/18:00:11.672,(2 -1 -1 -5 -2 0 4 1)
1969/12/31/18:00:11.672,(1 0 0 -1 -1 0 2 2)
1969/12/31/18:00:11.689,(-1 -1 1 0 1 1 0 -2)
1969/12/31/18:00:11.689,(-3 -2 -2 -1 0 -2 -3 -3)
1969/12/31/18:00:11.690,(2 0 0 -3 -3 -1 3 1)
1969/12/31/18:00:11.690,(0 0 0 0 -1 2 -1 -1)
1969/12/31/18:00:11.707,(0 -2 1 0 -1 0 -2 -1)
1969/12/31/18:00:11.707,(0 -1 -2 -2 -1 -2 3 0)
1969/12/31/18:00:11.709,(2 1 2 2 2 0 1 1)
1969/12/31/18:00:11.709,(-1 -1 -2 0 1 -2 0 0)
1969/12/31/18:00:11.719,(-3 -2 0 0 2 1 -2 0)
1969/12/31/18:00:11.719,(0 -1 -3 -1 -3 0 0 -1)
1969/12/31/18:00:11.721,(-2 0 0 0 0 -1 -1 -2)
1969/12/31/18:00:11.721,(-1 0 -2 0 -1 1 -1 0)
1969/12/31/18:00:11.738,(-1 0 1 0 -1 1 2 0)
1969/12/31/18:00:11.738,(0 0 -1 0 -1 -1 -3 0)
1969/12/31/18:00:11.739,(-1 -2 -1 0 0 0 -3 -2)
1969/12/31/18:00:11.739,(-1 -1 0 -2 0 -2 -2 -2)
1969/12/31/18:00:11.749,(0 0 0 0 1 -2 -2 -1)
1969/12/31/18:00:11.749,(0 2 0 -2 -2 -1 1 0)
1969/12/31/18:00:11.755,(-3 -2 -2 0 -1 -1 -2 -1)
1969/12/31/18:00:11.755,(-1 -2 -1 -1 -2 1 2 0)
1969/12/31/18:00:11.769,(-1 1 -2 0 -2 -2 0 0)
1969/12/31/18:00:11.769,(0 -2 -1 -1 1 0 0 0)
1969/12/31/18:00:11.770,(-1 -1 0 -1 2 -2 -2 -1)
1969/12/31/18:00:11.770,(-1 -2 0 1 0 -1 -5 -1)
1969/12/31/18:00:11.800,(0 -1 0 -2 -2 -1 2 2)
1969/12/31/18:00:11.800,(0 1 1 2 0 0 0 1)
1969/12/31/18:00:11.801,(-2 -3 -1 -2 0 2 -1 0)
1969/12/31/18:00:11.801,(0 1 0 -1 -2 -1 2 2)
1969/12/31/18:00:11.802,(-1 0 -2 -1 -1 0 0 1)
1969/12/31/18:00:11.802,(-2 0 -2 -1 -1 -2 -3 -3)
1969/12/31/18:00:11.805,(2 -2 -1 -1 -1 0 1 0)
1969/12/31/18:00:11.805,(-2 -3 0 0 1 0 -2 -2)
1969/12/31/18:00:11.817,(4 0 -1 -3 -2 1 -2 3)
1969/12/31/18:00:11.817,(-1 -2 -1 0 -1 -1 -3 -1)
1969/12/31/18:00:11.819,(1 3 0 2 -1 0 -1 0)
1969/12/31/18:00:11.819,(1 -2 1 1 1 0 0 -1)
1969/12/31/18:00:11.849,(-1 0 0 -2 -2 -1 2 -2)
1969/12/31/18:00:11.849,(0 -2 -1 -2 -2 1 1 0)
1969/12/31/18:00:11.850,(-2 -1 2 -1 -1 -2 -4 -3)
1969/12/31/18:00:11.850,(0 1 -2 -1 -1 -1 1 1)
1969/12/31/18:00:11.851,(-2 -2 -1 1 1 0 0 -2)
1969/12/31/18:00:11.851,(-1 -2 -2 0 0 0 -1 -2)
1969/12/31/18:00:11.854,(0 1 0 -3 -4 2 6 5)
1969/12/31/18:00:11.854,(2 1 0 -2 -2 1 3 2)
1969/12/31/18:00:11.867,(-3 -1 0 1 0 -3 -6 -4)
1969/12/31/18:00:11.867,(-1 -1 -1 0 -1 -1 1 -1)
1969/12/31/18:00:11.867,(0 1 0 1 1 -1 0 -1)
1969/12/31/18:00:11.867,(-1 0 -1 -1 0 -1 -2 -1)
1969/12/31/18:00:11.885,(0 -2 -2 0 -1 1 2 2)
1969/12/31/18:00:11.885,(-3 -2 -1 1 2 -3 -8 -3)
1969/12/31/18:00:11.886,(-2 -1 -1 -2 0 0 -2 -2)
1969/12/31/18:00:11.886,(0 -1 0 1 0 -2 -1 0)
1969/12/31/18:00:11.896,(0 1 1 0 1 0 0 -2)
1969/12/31/18:00:11.896,(-1 0 0 0 0 1 -2 -2)
1969/12/31/18:00:11.903,(-1 -1 -2 -1 0 0 -2 -2)
1969/12/31/18:00:11.903,(0 0 0 -2 -2 1 3 1)
1969/12/31/18:00:11.915,(-1 -2 -2 0 -1 -3 -1 1)
1969/12/31/18:00:11.915,(1 -1 -1 -3 -1 -2 3 1)
1969/12/31/18:00:11.916,(-1 -1 -1 1 -1 -2 -1 -2)
1969/12/31/18:00:11.916,(1 -1 -1 -1 -1 -1 -1 -2)
1969/12/31/18:00:11.933,(1 1 -1 -1 -1 -1 1 0)
1969/12/31/18:00:11.933,(0 1 1 -1 0 -1 0 -2)
1969/12/31/18:00:11.935,(-2 -2 0 1 -1 -1 -1 -1)
1969/12/31/18:00:11.935,(-1 -1 1 0 -1 1 -2 -2)
1969/12/31/18:00:11.945,(0 -1 0 2 -1 -1 0 -1)
1969/12/31/18:00:11.945,(-3 -1 0 0 -1 0 -1 0)
1969/12/31/18:00:11.952,(-1 1 0 -1 0 -2 0 0)
1969/12/31/18:00:11.952,(0 -2 1 1 1 1 0 1)
1969/12/31/18:00:11.952,(-8 -6 9 -9 10 -8 -3 -3)
1969/12/31/18:00:11.952,(7 16 17 -20 -31 11 13 6)
1969/12/31/18:00:11.953,(22 22 -9 36 35 11 10 12)
1969/12/31/18:00:11.953,(11 5 2 22 8 16 11 9)
1969/12/31/18:00:11.964,(-1 -4 14 14 47 17 -4 -1)
1969/12/31/18:00:11.964,(-27 -23 -6 10 27 -16 -21 -20)
1969/12/31/18:00:11.964,(-13 -16 -11 -58 -57 -14 1 -6)
1969/12/31/18:00:11.964,(1 8 0 -47 -54 -22 -6 -2)
1969/12/31/18:00:11.982,(4 -2 -12 45 40 4 5 5)
1969/12/31/18:00:11.982,(-7 -5 38 52 36 24 4 0)
1969/12/31/18:00:11.983,(-3 7 13 42 15 3 3 0)
1969/12/31/18:00:11.983,(20 14 -16 2 7 4 7 12)
1969/12/31/18:00:12.001,(-9 -11 -13 -47 -38 -14 -9 -8)
1969/12/31/18:00:12.001,(3 -1 -10 -28 -7 -2 3 3)
1969/12/31/18:00:12.002,(-5 2 8 -28 -42 -18 -6 -2)
1969/12/31/18:00:12.002,(8 6 -13 13 4 1 2 2)
1969/12/31/18:00:12.012,(4 0 5 3 31 14 5 3)
1969/12/31/18:00:12.012,(-6 -9 -41 -50 -35 -13 2 -5)
1969/12/31/18:00:12.013,(3 -3 -28 -91 -43 -17 -11 -3)
1969/12/31/18:00:12.013,(-6 2 24 55 28 2 -9 -4)
1969/12/31/18:00:12.031,(8 18 60 87 49 36 15 9)
1969/12/31/18:00:12.031,(-5 0 17 42 13 -1 -5 -2)
1969/12/31/18:00:12.032,(-3 -7 -44 -34 -44 -11 1 -5)
1969/12/31/18:00:12.032,(5 -8 -3 -21 23 1 -1 3)
1969/12/31/18:00:12.050,(-13 -3 17 29 12 1 -3 -5)
1969/12/31/18:00:12.050,(2 2 -18 -23 -23 -9 -2 1)
1969/12/31/18:00:12.051,(1 5 27 43 25 11 4 4)
1969/12/31/18:00:12.051,(-1 -3 -17 -38 -20 -7 3 -1)
1969/12/31/18:00:12.061,(5 -1 -9 -5 -40 -5 4 3)
1969/12/31/18:00:12.061,(10 10 11 4 26 0 -1 5)
1969/12/31/18:00:12.062,(1 -2 6 13 24 13 2 2)
1969/12/31/18:00:12.062,(-7 -2 -4 17 12 3 2 -3)
1969/12/31/18:00:12.080,(-1 -5 -24 -55 -31 -15 -6 -3)
1969/12/31/18:00:12.080,(1 -2 -15 -17 -4 -1 -3 -2)
1969/12/31/18:00:12.081,(-4 -8 14 15 12 -4 -3 -3)
1969/12/31/18:00:12.081,(-5 1 14 9 1 0 0 -3)
1969/12/31/18:00:12.099,(2 0 -18 -31 -18 -4 0 -1)
1969/12/31/18:00:12.099,(3 2 -2 -13 -10 -1 0 2)
1969/12/31/18:00:12.100,(-4 0 11 31 19 2 1 -3)
1969/12/31/18:00:12.100,(0 3 -2 -6 2 1 0 0)
1969/12/31/18:00:12.110,(-1 -3 -6 3 -5 -6 -5 -1)
1969/12/31/18:00:12.110,(-3 -3 9 8 2 0 -2 -3)
1969/12/31/18:00:12.111,(-1 -1 6 4 10 0 1 2)
1969/12/31/18:00:12.111,(-2 -1 -5 -11 -21 -4 -2 -2)
1969/12/31/18:00:12.129,(2 0 -14 -31 0 1 1 2)
1969/12/31/18:00:12.129,(-1 -2 8 23 0 -2 -3 -2)
1969/12/31/18:00:12.129,(-2 -3 -4 -18 2 0 -3 -3)
1969/12/31/18:00:12.129,(5 6 12 25 7 4 3 5)
1969/12/31/18:00:12.148,(-2 -2 1 11 -2 -1 -2 -3)
1969/12/31/18:00:12.148,(-3 -1 1 -4 0 -2 -2 -2)
1969/12/31/18:00:12.148,(-5 -3 -4 10 -4 -5 -3 -3)
1969/12/31/18:00:12.148,(-2 -4 -8 -30 -8 -3 -1 -3)
1969/12/31/18:00:12.166,(2 0 0 -6 -5 -2 -2 1)
1969/12/31/18:00:12.166,(-3 -4 -1 7 1 -4 -2 -2)
1969/12/31/18:00:12.166,(4 2 -1 -11 -8 1 2 3)
1969/12/31/18:00:12.166,(-4 -5 -2 6 13 3 1 -2)
1969/12/31/18:00:12.178,(-2 1 -1 3 -6 -2 0 0)
1969/12/31/18:00:12.178,(6 3 -2 -6 -5 3 3 3)
1969/12/31/18:00:12.179,(0 -3 3 7 5 1 -1 -2)
1969/12/31/18:00:12.179,(-5 -3 4 4 -4 -2 -4 -5)
1969/12/31/18:00:12.197,(3 2 -5 -8 -7 3 3 1)
1969/12/31/18:00:12.197,(-3 -3 0 2 1 1 -2 -3)
1969/12/31/18:00:12.197,(1 2 2 1 6 3 4 3)
1969/12/31/18:00:12.197,(-3 -1 0 5 -4 -1 -1 -1)
1969/12/31/18:00:12.208,(-6 -3 -8 -3 -1 -2 -4 -4)
1969/12/31/18:00:12.208,(2 1 -2 -8 -5 0 0 2)
1969/12/31/18:00:12.209,(-2 -3 2 9 4 0 0 0)
1969/12/31/18:00:12.209,(-4 -3 -3 -4 -7 -5 0 2)
1969/12/31/18:00:12.227,(2 3 -1 -4 -1 -6 0 0)
1969/12/31/18:00:12.227,(-4 3 4 5 4 -2 -4 -6)
1969/12/31/18:00:12.228,(1 -1 -2 1 -1 -3 1 1)
1969/12/31/18:00:12.228,(6 1 -2 -2 -3 -4 2 6)
1969/12/31/18:00:12.246,(-6 1 0 0 3 2 -3 -11)
1969/12/31/18:00:12.246,(4 -1 -1 1 -1 1 1 1)
1969/12/31/18:00:12.246,(-9 -4 2 8 5 5 -1 -7)
1969/12/31/18:00:12.246,(-9 -3 -1 -3 -6 -2 -3 -4)
1969/12/31/18:00:12.257,(16 7 -3 -4 -3 -1 3 7)
1969/12/31/18:00:12.257,(-6 -8 -6 -4 -1 -3 0 3)
1969/12/31/18:00:12.263,(4 0 2 2 1 -1 0 -1)
1969/12/31/18:00:12.263,(21 14 -1 0 -1 3 8 14)
1969/12/31/18:00:12.276,(-17 -7 0 6 3 5 2 -9)
1969/12/31/18:00:12.276,(-6 -6 -2 -4 -4 -5 -6 -7)
1969/12/31/18:00:12.276,(0 -3 -1 0 -6 -6 -1 6)
1969/12/31/18:00:12.276,(7 8 -1 1 2 2 4 7)
1969/12/31/18:00:12.294,(-20 -17 -3 -1 -2 -8 -14 -16)
1969/12/31/18:00:12.294,(31 24 5 5 5 8 10 18)
1969/12/31/18:00:12.295,(-14 -4 1 -1 0 -2 -6 -9)
1969/12/31/18:00:12.295,(-12 -4 3 -1 -4 -9 -19 -26)
1969/12/31/18:00:12.306,(8 -1 -4 -3 -7 -3 3 7)
1969/12/31/18:00:12.306,(-11 -11 -4 -15 -10 -1 4 0)
1969/12/31/18:00:12.312,(11 5 1 7 12 2 -1 9)
1969/12/31/18:00:12.312,(2 0 3 15 8 7 6 6)
1969/12/31/18:00:12.324,(0 -3 1 1 6 2 2 5)
1969/12/31/18:00:12.324,(-7 -5 -2 -2 -8 -6 -9 -8)
1969/12/31/18:00:12.325,(16 15 -3 -21 -10 5 12 11)
1969/12/31/18:00:12.325,(-24 -22 -4 -1 -1 -3 -1 -6)
1969/12/31/18:00:12.343,(12 26 3 5 0 1 -4 -7)
1969/12/31/18:00:12.343,(-3 -24 -10 -6 -5 -5 -4 0)
1969/12/31/18:00:12.345,(-8 0 4 3 -1 -7 -15 -23)
1969/12/31/18:00:12.345,(-34 -28 -11 -13 -8 -7 -6 -6)
1969/12/31/18:00:12.354,(45 34 6 2 2 2 3 10)
1969/12/31/18:00:12.354,(-3 12 4 1 0 -3 -7 -9)
1969/12/31/18:00:12.361,(9 2 -1 2 7 5 12 13)
1969/12/31/18:00:12.361,(-8 -4 -3 -9 -10 -4 -4 -4)
1969/12/31/18:00:12.373,(-19 -19 -12 -47 -24 -8 -3 1)
1969/12/31/18:00:12.373,(3 9 6 38 10 6 8 3)
1969/12/31/18:00:12.380,(-2 -2 13 48 35 13 6 2)
1969/12/31/18:00:12.380,(10 12 11 22 14 5 0 -2)
1969/12/31/18:00:12.399,(-7 -11 -4 1 -4 -3 -3 1)
1969/12/31/18:00:12.399,(-1 5 -5 -39 -21 -9 -5 -9)
1969/12/31/18:00:12.399,(3 -1 -10 -21 -16 -12 -2 9)
1969/12/31/18:00:12.399,(-3 0 2 17 15 6 1 -5)
1969/12/31/18:00:12.403,(-52 -21 15 19 15 8 -5 -24)
1969/12/31/18:00:12.403,(59 20 -2 -1 5 4 11 28)
1969/12/31/18:00:12.410,(-4 -6 -13 -18 -24 -20 -24 -22)
1969/12/31/18:00:12.410,(29 29 5 -11 -2 4 6 4)
1969/12/31/18:00:12.422,(-7 -5 -7 -11 -10 -5 5 9)
1969/12/31/18:00:12.422,(-13 -11 -13 -30 -5 4 5 1)
1969/12/31/18:00:12.428,(-3 -4 5 37 8 3 5 6)
1969/12/31/18:00:12.428,(-1 0 10 26 8 5 2 2)
1969/12/31/18:00:12.441,(8 6 7 14 14 5 6 7)
1969/12/31/18:00:12.441,(-20 -6 0 -14 0 -2 -8 -8)
1969/12/31/18:00:12.443,(-1 -24 -7 0 -1 8 15 19)
1969/12/31/18:00:12.443,(6 9 5 -1 1 -8 -16 -18)
1969/12/31/18:00:12.452,(17 10 5 12 2 3 4 3)
1969/12/31/18:00:12.452,(-3 0 -3 -11 -5 -5 -9 -6)
1969/12/31/18:00:12.460,(-35 -2 -14 -29 -23 -14 -13 -19)
1969/12/31/18:00:12.460,(34 16 8 -2 6 19 33 38)
1969/12/31/18:00:12.471,(-9 -21 -11 -13 -11 -13 -11 -2)
1969/12/31/18:00:12.471,(-14 -1 1 16 4 0 -4 -17)
1969/12/31/18:00:12.477,(6 -6 12 11 6 9 9 23)
1969/12/31/18:00:12.477,(-25 4 -4 -20 -3 7 7 -8)
1969/12/31/18:00:12.490,(33 21 -12 -12 2 4 1 1)
1969/12/31/18:00:12.490,(-16 -9 -5 -5 -16 -8 -7 -10)
1969/12/31/18:00:12.491,(6 6 10 23 -4 -4 -6 -6)
1969/12/31/18:00:12.491,(-6 -6 2 8 26 2 -3 -1)
1969/12/31/18:00:12.501,(0 -4 7 18 13 10 7 9)
1969/12/31/18:00:12.501,(-15 -9 6 21 7 3 0 -5)
1969/12/31/18:00:12.508,(5 6 -2 -2 5 -6 -7 -8)
1969/12/31/18:00:12.508,(16 1 -6 -13 -21 -7 -1 8)
1969/12/31/18:00:12.520,(-10 1 -2 -3 -6 -4 -2 -11)
1969/12/31/18:00:12.520,(5 -2 -14 -87 -29 -10 -4 6)
1969/12/31/18:00:12.526,(1 1 -10 1 -16 0 0 -7)
1969/12/31/18:00:12.526,(-22 -13 19 84 20 4 -6 -12)
1969/12/31/18:00:12.539,(-11 -8 10 22 30 8 10 14)
1969/12/31/18:00:12.539,(6 -2 12 26 13 10 2 -3)
1969/12/31/18:00:12.540,(22 21 -15 -57 -16 -8 -5 -2)
1969/12/31/18:00:12.540,(-29 -14 -19 -46 -27 -15 -18 -16)
1969/12/31/18:00:12.557,(18 -7 -11 -15 -32 -3 5 10)
1969/12/31/18:00:12.557,(-9 -11 -6 21 12 -3 -1 1)
1969/12/31/18:00:12.558,(9 10 18 23 26 17 15 14)
1969/12/31/18:00:12.558,(7 -3 -13 -43 -17 -10 -7 -5)
1969/12/31/18:00:12.568,(-15 -8 -22 -49 -62 -21 -13 -9)
1969/12/31/18:00:12.568,(10 10 11 88 47 21 9 12)
1969/12/31/18:00:12.575,(5 9 32 86 76 26 7 -1)
1969/12/31/18:00:12.575,(-9 -6 14 42 37 16 3 0)
1969/12/31/18:00:12.588,(0 0 -5 -39 -4 -8 -6 -1)
1969/12/31/18:00:12.588,(-4 -2 -6 -26 -44 -16 -3 -2)
1969/12/31/18:00:12.592,(-11 -9 -19 -52 -41 -14 -5 -10)
1969/12/31/18:00:12.592,(14 -1 -15 -44 -2 -8 1 8)
1969/12/31/18:00:12.606,(-1 0 9 36 3 -1 -5 -6)
1969/12/31/18:00:12.606,(2 6 5 10 6 0 0 0)
1969/12/31/18:00:12.607,(-25 -29 3 -1 4 -3 0 -4)
1969/12/31/18:00:12.607,(26 27 0 -31 -16 8 22 25)
1969/12/31/18:00:12.617,(-9 -7 -7 -5 9 -5 -15 -18)
1969/12/31/18:00:12.617,(-1 0 -3 5 11 5 4 4)
1969/12/31/18:00:12.624,(-6 -6 5 14 -5 1 -1 -5)
1969/12/31/18:00:12.624,(13 1 -1 7 -5 -3 3 10)
1969/12/31/18:00:12.636,(0 -1 7 10 10 4 4 3)
1969/12/31/18:00:12.636,(-11 -6 1 -19 -3 -8 -9 -11)
1969/12/31/18:00:12.637,(2 -1 -15 -16 -14 -5 -1 0)
1969/12/31/18:00:12.637,(6 0 0 6 -6 -4 -6 -6)
1969/12/31/18:00:12.654,(13 17 10 21 19 0 -4 9)
1969/12/31/18:00:12.654,(-25 -19 -10 -14 -5 -12 -19 -27)
1969/12/31/18:00:12.656,(16 9 -8 -28 -21 -2 5 8)
1969/12/31/18:00:12.656,(-29 -36 -7 1 -11 -9 -10 -10)
1969/12/31/18:00:12.666,(14 25 0 5 11 2 -1 -5)
1969/12/31/18:00:12.666,(24 12 0 -9 -8 0 7 15)
1969/12/31/18:00:12.673,(8 16 12 3 2 7 9 10)
1969/12/31/18:00:12.673,(-27 -15 0 18 12 -9 -13 -18)
1969/12/31/18:00:12.685,(16 17 17 34 13 12 10 7)
1969/12/31/18:00:12.685,(-11 -6 4 14 12 3 -2 -4)
1969/12/31/18:00:12.687,(1 6 -3 -25 -9 -4 -3 -8)
1969/12/31/18:00:12.687,(-1 -6 -14 -23 -19 -10 -4 2)
1969/12/31/18:00:12.704,(-6 -13 -11 -17 -9 -1 1 2)
1969/12/31/18:00:12.704,(14 14 1 11 -13 -5 9 11)
1969/12/31/18:00:12.705,(-15 -14 -7 -20 13 -4 -8 -10)
1969/12/31/18:00:12.705,(8 10 6 25 6 7 4 4)
1969/12/31/18:00:12.715,(-12 -9 6 17 15 5 0 -4)
1969/12/31/18:00:12.715,(-10 -14 -18 -78 -50 -19 -9 -9)
1969/12/31/18:00:12.722,(11 5 9 65 14 15 5 8)
1969/12/31/18:00:12.722,(5 8 13 28 47 17 8 10)
1969/12/31/18:00:12.734,(-4 -4 11 31 24 16 7 2)
1969/12/31/18:00:12.734,(-25 -14 3 -11 -2 -3 -4 -11)
1969/12/31/18:00:12.736,(13 18 -13 -52 -33 -14 -3 2)
1969/12/31/18:00:12.736,(8 5 -11 -18 -34 -13 -7 -3)
1969/12/31/18:00:12.752,(-19 -22 -6 -6 -6 -10 -8 -8)
1969/12/31/18:00:12.752,(31 26 12 24 21 11 13 23)
1969/12/31/18:00:12.754,(-28 -10 4 4 0 -3 -8 -19)
1969/12/31/18:00:12.754,(-3 -8 -4 -25 -11 -2 -8 -12)
1969/12/31/18:00:12.764,(-6 -6 -9 -10 -27 -7 2 5)
1969/12/31/18:00:12.764,(9 3 -5 -19 -10 -4 -1 3)
1969/12/31/18:00:12.771,(7 5 8 55 41 8 4 5)
1969/12/31/18:00:12.771,(6 6 10 5 7 16 8 7)
1969/12/31/18:00:12.783,(-6 -5 -1 -2 17 0 -5 -4)
1969/12/31/18:00:12.783,(0 3 7 18 3 6 3 3)
1969/12/31/18:00:12.784,(-4 -7 -6 -37 -24 -11 -9 -5)
1969/12/31/18:00:12.784,(-8 -8 -10 -10 -20 -13 -3 -4)
1969/12/31/18:00:12.802,(-20 -24 -9 -7 -11 -11 -7 -15)
1969/12/31/18:00:12.802,(43 27 18 36 31 23 22 29)
1969/12/31/18:00:12.803,(-31 -24 -4 -16 -3 -3 -4 -17)
1969/12/31/18:00:12.803,(14 8 -5 -7 -6 -5 -2 2)
1969/12/31/18:00:12.812,(-1 -2 -8 -15 -11 -5 -8 -1)
1969/12/31/18:00:12.812,(-8 -8 -1 10 9 -1 -8 -10)
1969/12/31/18:00:12.820,(1 -5 1 3 -2 -2 1 4)
1969/12/31/18:00:12.820,(-5 -6 -10 -41 -31 -10 4 0)
1969/12/31/18:00:12.832,(19 13 -1 5 -14 -1 4 7)
1969/12/31/18:00:12.832,(-15 -12 -8 1 38 13 0 -6)
1969/12/31/18:00:12.834,(13 13 21 68 26 12 3 7)
1969/12/31/18:00:12.834,(-19 -10 11 33 15 1 -7 -11)
1969/12/31/18:00:12.850,(14 21 3 -15 -11 -1 12 12)
1969/12/31/18:00:12.850,(-1 1 -14 -29 -28 -15 -10 -10)
1969/12/31/18:00:12.852,(-9 -13 -14 -30 -13 -7 -5 -9)
1969/12/31/18:00:12.852,(8 10 0 -3 -2 -2 1 7)
1969/12/31/18:00:12.861,(-23 -28 -7 -13 -4 -2 -3 -14)
1969/12/31/18:00:12.861,(12 12 6 16 9 8 12 15)
1969/12/31/18:00:12.869,(6 6 -3 -10 -5 -1 0 -2)
1969/12/31/18:00:12.869,(-4 -3 -2 5 1 2 2 3)
1969/12/31/18:00:12.881,(9 2 -4 -17 -5 0 4 6)
1969/12/31/18:00:12.881,(-9 -2 0 17 1 -9 -12 -11)
1969/12/31/18:00:12.882,(-7 -6 2 6 1 4 4 -1)
1969/12/31/18:00:12.882,(-8 -5 2 1 20 0 -5 -9)
1969/12/31/18:00:12.899,(-1 0 -3 -22 -21 -3 -1 -2)
1969/12/31/18:00:12.899,(-4 -3 0 16 -6 -4 -1 0)
1969/12/31/18:00:12.900,(20 11 0 0 8 -2 -4 9)
1969/12/31/18:00:12.900,(11 14 5 -7 -4 6 11 6)
1969/12/31/18:00:12.910,(5 6 9 47 21 5 1 2)
1969/12/31/18:00:12.910,(-5 0 -3 -25 -9 -5 -4 -6)
1969/12/31/18:00:12.924,(-20 -18 -5 -6 -9 -4 -6 -12)
1969/12/31/18:00:12.924,(4 0 -3 -19 -8 1 -1 0)
1969/12/31/18:00:12.930,(3 3 -5 -22 -5 -3 0 3)
1969/12/31/18:00:12.930,(-9 -8 3 26 2 -2 -1 -2)
1969/12/31/18:00:12.931,(7 6 1 4 9 3 5 10)
1969/12/31/18:00:12.931,(-3 -4 -6 -8 -4 -5 -6 -7)
1969/12/31/18:00:12.949,(3 -1 -6 -8 -6 -2 -2 -1)
1969/12/31/18:00:12.949,(-13 -18 4 30 3 -11 -17 -11)
1969/12/31/18:00:12.949,(-1 19 21 -11 14 20 32 15)
1969/12/31/18:00:12.949,(-12 -13 -8 16 -11 -13 -17 -17)
1969/12/31/18:00:12.959,(3 8 -1 -11 9 4 2 4)
1969/12/31/18:00:12.959,(2 -7 -4 -14 -3 1 0 5)
1969/12/31/18:00:12.966,(3 -3 -12 -19 -20 -9 -7 0)
1969/12/31/18:00:12.966,(-2 -1 -1 7 3 0 0 -1)
1969/12/31/18:00:12.979,(-5 -5 7 19 11 8 9 6)
1969/12/31/18:00:12.979,(5 2 -15 -72 -49 -22 0 4)
1969/12/31/18:00:12.979,(2 -1 3 21 -8 -9 -9 -6)
1969/12/31/18:00:12.979,(-1 2 12 37 50 20 7 3)
1969/12/31/18:00:12.997,(-6 -7 5 9 28 14 -1 -3)
1969/12/31/18:00:12.997,(10 11 15 49 31 24 24 16)
1969/12/31/18:00:12.998,(8 19 -15 -35 -28 -18 -14 -1)
1969/12/31/18:00:12.998,(-33 -47 1 5 -14 -8 -1 -10)
1969/12/31/18:00:13.008,(24 42 3 -14 -18 -7 -3 0)
1969/12/31/18:00:13.008,(-1 -16 -6 -15 -3 -6 -9 -4)
1969/12/31/18:00:13.015,(19 27 -13 -34 -15 -5 3 13)
1969/12/31/18:00:13.015,(-26 -37 -11 -7 0 1 -5 -16)
1969/12/31/18:00:13.028,(23 32 8 8 5 6 9 14)
1969/12/31/18:00:13.028,(-14 -9 -1 -3 10 7 2 -7)
1969/12/31/18:00:13.028,(11 5 7 41 2 -7 -12 -5)
1969/12/31/18:00:13.028,(9 19 5 -15 -3 -2 4 7)
1969/12/31/18:00:13.045,(-7 -11 -11 -29 -9 0 3 -1)
1969/12/31/18:00:13.045,(2 -14 -9 5 -8 -6 -9 -7)
1969/12/31/18:00:13.047,(-37 -36 7 48 35 8 0 -17)
1969/12/31/18:00:13.047,(35 17 18 21 3 8 13 28)
1969/12/31/18:00:13.057,(-11 -15 -7 15 1 -6 -8 -15)
1969/12/31/18:00:13.057,(7 16 5 -9 -1 7 14 14)
1969/12/31/18:00:13.064,(-19 -18 -16 -54 -12 -9 -16 -17)
1969/12/31/18:00:13.064,(2 -21 -10 12 -5 8 22 26)
1969/12/31/18:00:13.076,(12 21 2 0 -6 -16 -26 -19)
1969/12/31/18:00:13.076,(3 26 -3 1 -3 -9 -13 -15)
1969/12/31/18:00:13.081,(36 18 0 -17 -3 9 16 33)
1969/12/31/18:00:13.081,(2 17 -4 -6 -3 2 -1 -9)
1969/12/31/18:00:13.095,(-16 -28 -3 -2 0 0 5 7)
1969/12/31/18:00:13.095,(-5 2 -3 -26 -5 3 2 -4)
1969/12/31/18:00:13.096,(-9 -15 -15 -61 -30 -11 -11 -13)
1969/12/31/18:00:13.096,(3 9 12 71 12 0 -2 0)
1969/12/31/18:00:13.106,(1 4 24 76 49 14 9 6)
1969/12/31/18:00:13.106,(-11 -10 8 34 4 0 -6 -6)
1969/12/31/18:00:13.113,(-10 -11 1 -11 -2 -1 -1 -4)
1969/12/31/18:00:13.113,(-13 -2 -28 -71 -33 -21 -23 -30)
1969/12/31/18:00:13.125,(-37 -51 -17 -25 -19 -7 -6 -24)
1969/12/31/18:00:13.125,(-6 8 -8 -24 -5 -8 -18 -15)
1969/12/31/18:00:13.130,(-6 -15 -4 26 -3 -1 -2 3)
1969/12/31/18:00:13.130,(-48 -78 7 25 1 -10 -18 -23)
1969/12/31/18:00:13.143,(18 54 3 11 7 8 8 -1)
1969/12/31/18:00:13.143,(11 -8 4 1 9 8 11 24)
1969/12/31/18:00:13.150,(21 39 6 -11 -8 -5 -2 -2)
1969/12/31/18:00:13.150,(10 15 -1 -29 -14 -4 0 6)
1969/12/31/18:00:13.155,(7 -4 4 8 0 -2 4 11)
1969/12/31/18:00:13.155,(2 -7 -9 -22 3 9 9 9)
1969/12/31/18:00:13.162,(-14 -14 6 50 7 0 -3 -11)
1969/12/31/18:00:13.162,(25 39 8 11 14 6 7 14)
1969/12/31/18:00:13.173,(-7 -23 -9 -22 -9 -3 -2 2)
1969/12/31/18:00:13.173,(25 33 4 0 -8 4 10 15)
1969/12/31/18:00:13.179,(-57 -80 -13 17 7 -11 -20 -29)
1969/12/31/18:00:13.179,(32 64 3 -10 0 -6 -8 -3)
1969/12/31/18:00:13.193,(-50 -36 -13 -17 -22 -20 -25 -40)
1969/12/31/18:00:13.193,(-6 -25 -2 6 2 -5 -7 -12)
1969/12/31/18:00:13.194,(15 39 18 0 -3 2 5 7)
1969/12/31/18:00:13.194,(-16 -22 -12 -23 -11 -3 1 -1)
1969/12/31/18:00:13.204,(26 13 3 0 5 6 9 22)
1969/12/31/18:00:13.204,(5 7 -10 -32 -4 2 5 0)
1969/12/31/18:00:13.211,(-1 -13 1 13 6 4 5 4)
1969/12/31/18:00:13.211,(7 14 3 13 5 -1 0 1)
1969/12/31/18:00:13.222,(-2 7 12 25 0 -3 -3 -1)
1969/12/31/18:00:13.222,(-17 -12 15 51 25 7 5 -4)
1969/12/31/18:00:13.228,(26 16 2 -2 20 22 19 20)
1969/12/31/18:00:13.228,(12 7 -11 -44 -19 3 7 11)
1969/12/31/18:00:13.241,(9 0 -15 -49 -19 -6 -1 13)
1969/12/31/18:00:13.241,(-15 -18 -2 35 1 -8 -10 -8)
1969/12/31/18:00:13.243,(1 18 4 15 11 4 4 3)
1969/12/31/18:00:13.243,(10 12 4 15 8 1 -2 -4)
1969/12/31/18:00:13.252,(-1 -11 -5 -24 -10 -2 0 0)
1969/12/31/18:00:13.252,(-8 -9 5 -3 -6 -1 1 -2)
1969/12/31/18:00:13.260,(12 16 -5 5 5 -1 -3 0)
1969/12/31/18:00:13.260,(-5 -1 -3 -25 -11 -2 0 -5)
1969/12/31/18:00:13.271,(7 -7 -7 11 1 0 4 8)
1969/12/31/18:00:13.271,(16 17 5 7 11 8 11 16)
1969/12/31/18:00:13.277,(-10 -21 -4 -5 -9 -9 -10 -9)
1969/12/31/18:00:13.277,(13 25 9 34 15 8 9 9)
1969/12/31/18:00:13.290,(19 40 10 -5 0 4 11 12)
1969/12/31/18:00:13.290,(-22 -18 -1 15 -11 -11 -17 -19)
1969/12/31/18:00:13.292,(-14 -5 7 -3 0 -1 -1 -15)
1969/12/31/18:00:13.292,(-2 -15 0 -3 5 0 4 14)
1969/12/31/18:00:13.309,(12 -7 -10 -26 2 6 8 15)
1969/12/31/18:00:13.309,(10 25 -3 6 -6 1 9 9)
1969/12/31/18:00:13.309,(-31 -24 6 9 -1 -6 -10 -17)
1969/12/31/18:00:13.309,(19 8 -13 -26 -17 -5 0 10)
1969/12/31/18:00:13.320,(-3 -2 3 18 10 7 4 -3)
1969/12/31/18:00:13.320,(-1 -9 0 -4 -1 5 3 6)
1969/12/31/18:00:13.326,(13 20 7 25 16 5 4 8)
1969/12/31/18:00:13.326,(-17 -6 9 22 10 -6 -11 -15)
1969/12/31/18:00:13.339,(-10 -6 -3 -23 -17 -6 -3 -3)
1969/12/31/18:00:13.339,(-33 -30 -9 -16 -9 -16 -18 -31)
1969/12/31/18:00:13.340,(26 42 7 -7 -9 8 24 35)
1969/12/31/18:00:13.340,(17 -5 -8 -12 2 5 1 9)
1969/12/31/18:00:13.363,(14 21 1 -7 -3 -5 -5 -2)
1969/12/31/18:00:13.363,(-11 -12 9 25 5 1 -1 -3)
1969/12/31/18:00:13.365,(1 -6 4 -10 -11 -2 1 0)
1969/12/31/18:00:13.365,(-5 -3 -11 -15 -2 -6 -5 -3)
1969/12/31/18:00:13.369,(-47 -66 6 25 22 6 -3 -22)
1969/12/31/18:00:13.369,(36 53 0 -14 -8 -3 -1 8)
1969/12/31/18:00:13.376,(17 4 0 25 0 7 7 10)
1969/12/31/18:00:13.376,(-20 -15 2 7 4 -3 -9 -16)
1969/12/31/18:00:13.388,(-13 -47 1 11 -6 -2 -2 0)
1969/12/31/18:00:13.388,(-7 18 -4 -26 -3 -5 -6 -8)
1969/12/31/18:00:13.389,(16 12 -16 -22 1 0 0 0)
1969/12/31/18:00:13.389,(22 15 10 -16 -3 10 12 13)
1969/12/31/18:00:13.406,(-3 2 6 34 3 -3 -2 0)
1969/12/31/18:00:13.406,(-16 -26 -1 -2 6 -6 -12 -8)
1969/12/31/18:00:13.408,(-3 0 4 -13 -7 -1 -4 -6)
1969/12/31/18:00:13.408,(-46 -32 -14 -4 -11 -16 -21 -32)
1969/12/31/18:00:13.418,(22 32 4 1 0 8 10 9)
1969/12/31/18:00:13.418,(24 7 -1 -8 3 1 2 13)
1969/12/31/18:00:13.425,(3 -4 -1 23 6 -3 -2 2)
1969/12/31/18:00:13.425,(-9 -9 -2 -22 -16 -3 0 -1)
1969/12/31/18:00:13.437,(-10 0 -8 -3 -9 -14 -14 -10)
1969/12/31/18:00:13.437,(29 14 5 29 10 16 23 25)
1969/12/31/18:00:13.438,(-29 -21 8 19 15 -3 -14 -20)
1969/12/31/18:00:13.438,(17 12 0 1 5 6 10 9)
1969/12/31/18:00:13.455,(0 1 -6 -9 -9 -7 -3 0)
1969/12/31/18:00:13.455,(-37 -39 -8 -17 -6 -4 -4 -10)
1969/12/31/18:00:13.457,(5 1 -7 -19 -2 5 8 -1)
1969/12/31/18:00:13.457,(0 12 1 11 -1 -1 -1 0)
1969/12/31/18:00:13.467,(-5 2 -11 -40 -32 -11 -9 -9)
1969/12/31/18:00:13.467,(12 4 4 32 39 15 18 12)
1969/12/31/18:00:13.474,(-16 -22 -15 -35 -29 -12 -9 -8)
1969/12/31/18:00:13.474,(25 27 19 59 36 15 18 26)
1969/12/31/18:00:13.486,(-9 -3 5 23 17 -4 -22 -18)
1969/12/31/18:00:13.486,(-3 7 2 -8 -7 2 6 0)
1969/12/31/18:00:13.487,(-9 -15 -8 -32 -15 -3 4 3)
1969/12/31/18:00:13.487,(12 18 -9 -16 -10 -6 -5 7)
1969/12/31/18:00:13.504,(11 -5 7 10 6 0 2 3)
1969/12/31/18:00:13.504,(6 -2 0 -5 -2 5 3 3)
1969/12/31/18:00:13.506,(1 6 -7 -9 -1 -2 -6 -2)
1969/12/31/18:00:13.506,(-32 -34 -7 -10 -18 -16 -19 -24)
1969/12/31/18:00:13.516,(-12 -21 2 9 9 8 13 17)
1969/12/31/18:00:13.516,(33 51 9 3 -2 -1 -7 -8)
1969/12/31/18:00:13.523,(-14 -17 -8 -7 -2 -8 -9 -13)
1969/12/31/18:00:13.523,(20 29 9 5 8 10 10 8)
1969/12/31/18:00:13.535,(-33 -34 -14 -21 -19 -11 -14 -17)
1969/12/31/18:00:13.535,(-12 -19 -16 -45 -11 -6 0 0)
1969/12/31/18:00:13.536,(31 35 15 58 30 15 15 25)
1969/12/31/18:00:13.536,(-15 -25 5 -3 -3 -1 -5 -11)
1969/12/31/18:00:13.553,(22 17 1 22 14 8 12 13)
1969/12/31/18:00:13.553,(-32 -10 -2 -21 -5 -5 -9 -17)
1969/12/31/18:00:13.555,(22 8 -1 -11 -14 -1 3 12)
1969/12/31/18:00:13.555,(13 0 0 3 5 0 4 6)
1969/12/31/18:00:13.564,(23 26 11 4 8 10 15 15)
1969/12/31/18:00:13.564,(-21 -14 -9 1 -2 -7 -11 -13)
1969/12/31/18:00:13.577,(-16 -14 -3 -18 -12 -8 -4 -9)
1969/12/31/18:00:13.577,(-38 -65 -7 -4 -8 4 14 7)
1969/12/31/18:00:13.584,(82 100 12 7 17 17 22 41)
1969/12/31/18:00:13.584,(-8 -19 2 9 1 -4 -8 -2)
1969/12/31/18:00:13.585,(16 6 5 15 13 10 11 13)
1969/12/31/18:00:13.585,(-10 -9 -10 -31 -21 -14 -14 -14)
1969/12/31/18:00:13.602,(-17 -14 -5 3 -2 -5 -5 -12)
1969/12/31/18:00:13.602,(5 -4 3 21 6 7 11 13)
1969/12/31/18:00:13.604,(8 6 5 -6 -1 -4 -4 3)
1969/12/31/18:00:13.604,(-2 10 0 -34 -11 -1 0 -2)
1969/12/31/18:00:13.613,(-4 -10 2 27 13 1 -4 -3)
1969/12/31/18:00:13.613,(-25 -16 6 11 -3 -3 -1 -14)
1969/12/31/18:00:13.621,(9 11 -8 -31 -2 2 3 4)
1969/12/31/18:00:13.621,(-20 -6 -7 10 -4 -6 -10 -24)
1969/12/31/18:00:13.632,(37 35 13 -3 -1 0 6 24)
1969/12/31/18:00:13.632,(4 -1 7 26 5 2 1 -1)
1969/12/31/18:00:13.634,(-26 -19 -4 6 6 -11 -15 -16)
1969/12/31/18:00:13.634,(11 1 -5 6 3 10 7 10)
1969/12/31/18:00:13.657,(11 2 -7 -28 -14 -9 -9 -6)
1969/12/31/18:00:13.657,(-22 -21 -8 -8 -9 -9 -5 -5)
1969/12/31/18:00:13.658,(53 52 8 0 5 10 19 30)
1969/12/31/18:00:13.658,(-25 -15 -8 -10 -1 -9 -17 -24)
1969/12/31/18:00:13.662,(-18 -17 0 20 8 4 1 -6)
1969/12/31/18:00:13.662,(4 6 1 -5 -8 -6 -8 -3)
1969/12/31/18:00:13.670,(-13 -17 0 -6 -4 -1 -2 -5)
1969/12/31/18:00:13.670,(15 23 1 12 3 -5 -1 12)
1969/12/31/18:00:13.682,(-12 -22 -2 -7 -1 1 -3 -13)
1969/12/31/18:00:13.682,(25 13 -7 -3 3 2 0 7)
1969/12/31/18:00:13.683,(-24 -26 5 13 3 1 -1 -6)
1969/12/31/18:00:13.683,(9 9 8 20 12 4 2 5)
1969/12/31/18:00:13.700,(-37 -28 -12 -26 -13 -16 -25 -29)
1969/12/31/18:00:13.700,(12 14 -2 -17 -15 -3 3 7)
1969/12/31/18:00:13.701,(-13 -15 -15 -36 -28 -9 -7 -9)
1969/12/31/18:00:13.701,(15 11 6 20 14 5 9 13)
1969/12/31/18:00:13.711,(-24 -11 12 67 30 0 -4 -13)
1969/12/31/18:00:13.711,(-6 -12 14 -1 17 9 8 4)
1969/12/31/18:00:13.718,(13 6 1 20 7 4 2 8)
1969/12/31/18:00:13.718,(-5 0 -4 -34 -17 1 3 -8)
1969/12/31/18:00:13.731,(-4 -6 -16 -31 -21 -10 -5 -4)
1969/12/31/18:00:13.731,(-9 -5 3 19 4 3 4 2)
1969/12/31/18:00:13.731,(-19 -8 7 13 15 8 7 -3)
1969/12/31/18:00:13.731,(5 -1 -13 -11 -8 -10 -16 -13)
1969/12/31/18:00:13.749,(9 3 6 -10 1 12 21 18)
1969/12/31/18:00:13.749,(5 3 -9 -8 2 -2 -2 -1)
1969/12/31/18:00:13.750,(-19 -6 0 -7 -21 -10 -10 -14)
1969/12/31/18:00:13.750,(-20 -11 -8 4 -2 -9 -8 -11)
1969/12/31/18:00:13.760,(22 28 8 1 9 18 19 21)
1969/12/31/18:00:13.760,(19 17 10 6 1 1 7 20)
1969/12/31/18:00:13.767,(-3 -13 -6 -3 3 -1 -6 -7)
1969/12/31/18:00:13.767,(7 16 9 22 9 7 10 10)
1969/12/31/18:00:13.779,(-23 -17 -14 -63 -32 -12 -11 -15)
1969/12/31/18:00:13.779,(18 -1 -4 12 0 2 4 11)
1969/12/31/18:00:13.780,(9 11 12 48 17 -1 -6 -6)
1969/12/31/18:00:13.780,(-13 -16 19 21 14 9 9 5)
1969/12/31/18:00:13.797,(-28 -8 -12 -10 -12 -17 -22 -29)
1969/12/31/18:00:13.797,(17 9 -8 -25 -10 1 0 7)
1969/12/31/18:00:13.799,(-15 -20 -4 -9 -3 3 1 -8)
1969/12/31/18:00:13.799,(1 7 -10 -9 -5 -2 -6 -2)
1969/12/31/18:00:13.808,(8 -5 -5 -8 -5 -1 0 3)
1969/12/31/18:00:13.809,(-30 -14 -6 -4 -10 -17 -23 -30)
1969/12/31/18:00:13.816,(7 11 6 2 4 -2 4 8)
1969/12/31/18:00:13.816,(15 4 4 5 6 6 6 10)
1969/12/31/18:00:13.827,(-11 -6 8 18 15 10 8 3)
1969/12/31/18:00:13.827,(-11 -10 -6 -3 -8 -5 -10 -14)
1969/12/31/18:00:13.834,(1 2 -1 -18 -6 -3 -3 0)
1969/12/31/18:00:13.834,(15 11 -3 3 2 2 6 11)
1969/12/31/18:00:13.846,(26 19 10 14 4 2 3 15)
1969/12/31/18:00:13.846,(-19 -20 -5 2 2 2 -3 -15)
1969/12/31/18:00:13.848,(-21 -8 -7 -6 -6 -6 -5 -12)
1969/12/31/18:00:13.848,(0 0 -2 -29 -20 -9 -8 -4)
1969/12/31/18:00:13.858,(13 -12 -8 -5 4 7 13 17)
1969/12/31/18:00:13.858,(9 26 12 18 19 10 11 10)
1969/12/31/18:00:13.865,(-12 -1 -1 12 0 -10 -18 -20)
1969/12/31/18:00:13.865,(-12 -25 -4 0 2 0 1 -1)
1969/12/31/18:00:13.876,(2 5 -4 7 0 5 7 2)
1969/12/31/18:00:13.876,(-6 -12 -2 -10 -2 -5 -2 -5)
1969/12/31/18:00:13.882,(13 2 -9 -21 -15 -3 6 14)
1969/12/31/18:00:13.882,(21 28 8 30 12 10 7 8)
1969/12/31/18:00:13.895,(-45 -49 -5 -7 -6 -18 -26 -32)
1969/12/31/18:00:13.895,(43 47 5 2 8 13 15 27)
1969/12/31/18:00:13.897,(-17 -20 -2 0 2 4 1 -7)
1969/12/31/18:00:13.897,(-4 -8 -7 -11 -8 -7 -8 -4)
1969/12/31/18:00:13.907,(-20 -6 -2 7 -3 -5 -3 -18)
1969/12/31/18:00:13.907,(-12 1 5 -4 -9 -11 -11 -2)
1969/12/31/18:00:13.914,(16 12 2 -3 3 5 3 7)
1969/12/31/18:00:13.914,(5 0 2 3 8 7 5 5)
1969/12/31/18:00:13.925,(-4 8 0 1 -2 -2 -7 -6)
1969/12/31/18:00:13.925,(-21 -12 -4 -8 -15 -9 -6 -13)
1969/12/31/18:00:13.931,(25 16 -3 -5 7 9 15 19)
1969/12/31/18:00:13.931,(2 1 -2 -9 -5 0 4 4)
1969/12/31/18:00:13.944,(10 2 5 22 16 6 7 12)
1969/12/31/18:00:13.944,(-16 -14 -4 -6 -3 -2 -7 -16)
1969/12/31/18:00:13.946,(-2 -3 -2 -7 -16 -5 -5 -1)
1969/12/31/18:00:13.946,(-7 -7 2 14 17 0 -3 -7)
1969/12/31/18:00:13.956,(12 -7 7 3 -2 6 10 15)
1969/12/31/18:00:13.956,(19 29 1 -5 -2 -1 0 1)
1969/12/31/18:00:13.963,(-23 -11 -8 -4 4 3 2 -13)
1969/12/31/18:00:13.963,(2 0 -2 -8 -8 -3 0 2)
1969/12/31/18:00:13.974,(-24 -8 -7 -9 -10 -10 -16 -22)
1969/12/31/18:00:13.974,(-11 -26 -3 -11 -6 -4 2 5)
1969/12/31/18:00:13.980,(44 11 0 5 15 16 17 23)
1969/12/31/18:00:13.980,(2 21 -1 0 -1 -1 -2 -3)
1969/12/31/18:00:13.993,(5 15 -1 3 4 -3 -7 -3)
1969/12/31/18:00:13.993,(-5 -9 -2 -1 -1 3 3 3)
1969/12/31/18:00:13.995,(-27 -17 -1 2 -6 -6 -8 -13)
1969/12/31/18:00:13.995,(41 32 10 -1 4 5 13 23)
1969/12/31/18:00:14.004,(12 3 -5 -9 0 2 -1 0)
1969/12/31/18:00:14.004,(0 0 2 5 -3 -2 0 -2)
1969/12/31/18:00:14.012,(-4 6 4 -3 -7 -7 -7 -4)
1969/12/31/18:00:14.012,(-12 -13 -2 1 3 3 1 -2)
1969/12/31/18:00:14.023,(-5 -1 1 -2 -5 0 -1 0)
1969/12/31/18:00:14.023,(8 3 -4 -6 -3 -3 -4 -3)
1969/12/31/18:00:14.029,(-15 -10 1 7 0 -7 -8 -10)
1969/12/31/18:00:14.029,(9 11 9 6 2 0 3 4)
1969/12/31/18:00:14.042,(9 -12 -4 4 11 15 17 16)
1969/12/31/18:00:14.042,(15 8 2 8 9 13 19 20)
1969/12/31/18:00:14.043,(-3 11 -1 -4 -5 -13 -22 -18)
1969/12/31/18:00:14.043,(15 14 0 -4 -4 -1 1 4)
1969/12/31/18:00:14.053,(1 -1 -2 -3 -1 -3 -4 0)
1969/12/31/18:00:14.053,(-3 -6 1 5 0 0 -2 -2)
1969/12/31/18:00:14.061,(8 5 0 -5 1 3 10 16)
1969/12/31/18:00:14.061,(-6 -14 -5 0 1 1 0 -5)
1969/12/31/18:00:14.072,(23 28 6 -1 0 1 3 8)
1969/12/31/18:00:14.072,(-13 -11 -5 -26 -23 -9 -9 -8)
1969/12/31/18:00:14.078,(5 7 -3 6 5 -2 0 3)
1969/12/31/18:00:14.078,(-18 -18 -1 11 4 -3 -5 -11)
1969/12/31/18:00:14.091,(3 6 7 14 4 -1 -3 2)
1969/12/31/18:00:14.091,(-7 -6 1 11 1 -2 -8 -12)
1969/12/31/18:00:14.092,(-2 -7 -3 -3 -1 2 0 -4)
1969/12/31/18:00:14.092,(22 21 7 0 8 18 25 29)
1969/12/31/18:00:14.109,(-30 -22 -9 -9 -8 -7 -9 -21)
1969/12/31/18:00:14.109,(-2 -6 3 0 1 -3 -4 -4)
1969/12/31/18:00:14.110,(-5 -8 -12 -5 -9 -8 -8 -3)
1969/12/31/18:00:14.110,(19 23 6 -5 5 8 13 14)
1969/12/31/18:00:14.121,(-10 0 2 -3 -11 -10 -12 -13)
1969/12/31/18:00:14.121,(5 0 5 10 8 7 10 9)
1969/12/31/18:00:14.127,(19 17 7 2 6 3 2 8)
1969/12/31/18:00:14.127,(-19 -24 -9 -8 -8 -12 -14 -15)
1969/12/31/18:00:14.140,(4 -2 -6 -13 -2 1 6 5)
1969/12/31/18:00:14.140,(-11 -6 -10 -15 -22 -18 -15 -16)
1969/12/31/18:00:14.141,(-12 -15 -9 -38 -52 -26 -6 -3)
1969/12/31/18:00:14.141,(-13 -5 6 41 1 2 -11 -14)
1969/12/31/18:00:14.158,(19 14 14 56 87 45 27 19)
1969/12/31/18:00:14.158,(1 -1 11 36 59 30 12 8)
1969/12/31/18:00:14.159,(0 0 3 3 8 8 5 3)
1969/12/31/18:00:14.159,(-23 -23 -19 -61 -53 -24 -19 -20)
1969/12/31/18:00:14.169,(-3 1 -8 -14 -40 -19 -6 -2)
1969/12/31/18:00:14.169,(9 8 -1 -12 -9 -4 4 7)
1969/12/31/18:00:14.176,(0 0 3 16 23 3 0 -4)
1969/12/31/18:00:14.176,(-1 -2 2 7 0 -4 -2 -2)
1969/12/31/18:00:14.189,(-3 -2 0 -12 -14 -4 -4 1)
1969/12/31/18:00:14.189,(17 15 -3 -10 -2 -2 4 9)
1969/12/31/18:00:14.193,(-16 -9 -1 -5 -7 -3 -9 -13)
1969/12/31/18:00:14.193,(-4 -12 -8 1 7 2 0 -3)
1969/12/31/18:00:14.206,(-1 3 1 -4 -4 -6 -2 0)
1969/12/31/18:00:14.206,(3 0 -6 -4 -11 -2 4 3)
1969/12/31/18:00:14.208,(-8 -6 3 10 7 6 1 -7)
1969/12/31/18:00:14.208,(-3 -10 -4 6 6 -8 -12 -5)
1969/12/31/18:00:14.218,(7 21 25 5 15 29 43 26)
1969/12/31/18:00:14.218,(-8 -3 1 1 -4 -5 -8 -10)
1969/12/31/18:00:14.225,(3 -4 -4 5 5 6 0 4)
1969/12/31/18:00:14.225,(-9 -8 -1 1 7 -1 -4 -6)
1969/12/31/18:00:14.237,(-21 -45 -8 -8 -15 -13 -15 -11)
1969/12/31/18:00:14.237,(20 38 4 -5 -6 3 11 14)
1969/12/31/18:00:14.239,(20 11 13 16 15 10 9 11)
1969/12/31/18:00:14.239,(-3 3 0 -1 -1 -1 -2 -3)
1969/12/31/18:00:14.255,(-5 -4 -5 -11 -13 -12 -8 -8)
1969/12/31/18:00:14.255,(-10 -17 -13 -20 -4 -5 -7 -6)
1969/12/31/18:00:14.257,(-6 -5 -2 31 8 -1 -3 -4)
1969/12/31/18:00:14.257,(-6 -3 8 20 12 3 1 1)
1969/12/31/18:00:14.267,(15 21 9 14 6 1 -4 -3)
1969/12/31/18:00:14.267,(-6 -6 -4 -14 -6 -4 -3 -5)
1969/12/31/18:00:14.274,(-22 -43 -6 -22 -12 -6 -4 -6)
1969/12/31/18:00:14.274,(20 32 2 -2 6 18 31 20)
1969/12/31/18:00:14.286,(8 7 -8 -16 -7 -6 -7 1)
1969/12/31/18:00:14.286,(-16 -13 -2 7 -5 -5 -5 -4)
1969/12/31/18:00:14.288,(8 17 9 -1 -2 3 7 -4)
1969/12/31/18:00:14.288,(-37 -27 -10 -4 -8 -21 -37 -35)
1969/12/31/18:00:14.305,(7 10 -2 -4 -6 -6 -2 1)
1969/12/31/18:00:14.305,(-1 -18 -7 2 7 8 6 4)
1969/12/31/18:00:14.306,(8 8 0 8 6 3 2 7)
1969/12/31/18:00:14.306,(-2 0 4 -10 -5 -3 -2 -1)
1969/12/31/18:00:14.316,(8 14 -9 -27 -10 -7 -3 1)
1969/12/31/18:00:14.316,(-25 -24 -18 -23 -37 -20 -21 -22)
1969/12/31/18:00:14.323,(1 11 2 -16 0 -1 3 5)
1969/12/31/18:00:14.323,(12 7 11 44 13 13 11 12)
1969/12/31/18:00:14.335,(-16 -17 15 79 45 15 -1 -8)
1969/12/31/18:00:14.335,(14 17 33 50 44 19 18 14)
1969/12/31/18:00:14.336,(7 14 3 -26 -33 -8 -4 1)
1969/12/31/18:00:14.336,(8 -5 -23 -51 -16 -9 -1 0)
1969/12/31/18:00:14.354,(-5 -9 -23 -68 -47 -27 -12 -5)
1969/12/31/18:00:14.354,(-7 -9 -8 18 3 -5 -9 -9)
1969/12/31/18:00:14.355,(6 7 -14 49 22 1 4 6)
1969/12/31/18:00:14.355,(-14 -10 29 6 -6 1 -5 -8)
1969/12/31/18:00:14.364,(3 12 -7 15 41 22 10 5)
1969/12/31/18:00:14.364,(15 9 -8 -23 32 12 3 8)
1969/12/31/18:00:14.372,(-11 -9 11 5 -5 14 -1 -5)
1969/12/31/18:00:14.372,(11 5 8 6 -7 7 15 12)
1969/12/31/18:00:14.384,(-8 -13 -27 -40 -45 -34 -18 -9)
1969/12/31/18:00:14.384,(3 -3 -17 -40 -36 -28 -9 -1)
1969/12/31/18:00:14.385,(-8 -3 14 7 -2 -6 -3 -6)
1969/12/31/18:00:14.385,(8 15 17 10 10 6 2 3)
1969/12/31/18:00:14.402,(5 4 0 -47 2 14 8 4)
1969/12/31/18:00:14.402,(-4 -5 -22 14 -17 -4 -3 -4)
1969/12/31/18:00:14.404,(0 2 29 26 16 -2 -4 1)
1969/12/31/18:00:14.404,(-5 4 20 16 11 1 -2 -6)
1969/12/31/18:00:14.413,(5 -3 -25 63 10 -4 -4 3)
1969/12/31/18:00:14.413,(-8 -12 -8 -14 18 11 3 -3)
1969/12/31/18:00:14.421,(-1 -3 -17 -47 -14 4 5 1)
1969/12/31/18:00:14.421,(-4 -1 0 -4 -3 -6 -8 -3)
1969/12/31/18:00:14.433,(4 4 14 -6 -6 -1 3 2)
1969/12/31/18:00:14.433,(4 8 5 0 -16 -7 -1 2)
1969/12/31/18:00:14.435,(3 4 -3 -13 -3 -5 -1 1)
1969/12/31/18:00:14.435,(-6 -11 -25 -14 3 1 -2 -3)
1969/12/31/18:00:14.452,(0 1 17 17 -3 3 2 -1)
1969/12/31/18:00:14.452,(3 8 15 0 3 5 4 3)
1969/12/31/18:00:14.452,(1 -3 -20 8 13 0 -1 0)
1969/12/31/18:00:14.452,(-3 -8 -15 -3 -2 -6 -3 0)
1969/12/31/18:00:14.462,(-5 -3 11 2 -5 0 1 -2)
1969/12/31/18:00:14.462,(3 9 23 21 6 0 -3 0)
1969/12/31/18:00:14.470,(4 0 -17 -21 -5 -1 0 2)
1969/12/31/18:00:14.470,(-2 -10 -26 -25 -16 -11 -4 -2)
1969/12/31/18:00:14.482,(-6 -2 10 4 2 1 0 -2)
1969/12/31/18:00:14.482,(1 3 9 7 3 7 3 0)
1969/12/31/18:00:14.483,(3 3 -1 10 5 -2 -1 2)
1969/12/31/18:00:14.483,(1 -1 -13 -28 -3 1 0 1)
1969/12/31/18:00:14.501,(-4 -1 8 9 -10 -1 -1 -4)
1969/12/31/18:00:14.501,(6 5 1 8 -19 -5 1 2)
1969/12/31/18:00:14.502,(-1 -3 -3 -15 16 1 -2 -3)
1969/12/31/18:00:14.502,(0 1 10 45 18 8 4 2)
1969/12/31/18:00:14.511,(0 2 1 -1 12 -1 -3 -1)
1969/12/31/18:00:14.511,(2 -1 -5 -13 -7 -1 0 0)
1969/12/31/18:00:14.518,(1 0 -5 6 -12 0 -2 -1)
1969/12/31/18:00:14.518,(-1 -5 -4 -13 -3 -3 0 2)
1969/12/31/18:00:14.531,(-8 -2 0 -32 -20 -11 -8 -6)
1969/12/31/18:00:14.531,(-5 -3 0 8 1 1 -3 -2)
1969/12/31/18:00:14.532,(-1 -2 1 5 11 2 2 1)
1969/12/31/18:00:14.532,(9 10 3 0 -1 1 3 5)
1969/12/31/18:00:14.549,(0 -2 -2 20 4 1 -3 -1)
1969/12/31/18:00:14.549,(-1 -1 3 -11 5 2 0 0)
1969/12/31/18:00:14.550,(0 5 4 -3 -3 -3 -2 0)
1969/12/31/18:00:14.550,(-2 -5 -14 -7 -3 -4 -4 -2)
1969/12/31/18:00:14.560,(-1 -1 1 2 0 0 3 0)
1969/12/31/18:00:14.560,(-2 2 6 -1 3 4 1 -1)
1969/12/31/18:00:14.567,(-2 -6 -10 -1 -5 0 0 1)
1969/12/31/18:00:14.567,(-6 -4 0 -1 -6 -7 -5 -7)
1969/12/31/18:00:14.580,(-3 -3 0 -4 -9 -6 -6 -7)
1969/12/31/18:00:14.580,(10 9 15 39 31 6 5 5)
1969/12/31/18:00:14.580,(0 -6 -3 -11 -8 1 6 2)
1969/12/31/18:00:14.581,(-8 0 2 -29 -18 -7 -5 -6)
1969/12/31/18:00:14.598,(4 -2 -16 -22 0 5 3 2)
1969/12/31/18:00:14.598,(2 3 5 14 -8 -9 -5 -1)
1969/12/31/18:00:14.599,(-13 -6 14 31 21 8 -1 -10)
1969/12/31/18:00:14.599,(16 5 -22 -25 -4 1 5 14)
1969/12/31/18:00:14.609,(0 -8 -31 -18 -16 2 1 0)
1969/12/31/18:00:14.609,(-1 2 26 27 23 6 2 0)
1969/12/31/18:00:14.616,(-9 -2 0 -30 -35 -23 -14 -7)
1969/12/31/18:00:14.616,(-5 -3 19 18 9 1 1 -2)
1969/12/31/18:00:14.628,(-2 7 26 58 31 9 3 -1)
1969/12/31/18:00:14.628,(3 -3 -40 -43 -10 4 5 1)
1969/12/31/18:00:14.630,(3 0 -13 -1 7 4 0 0)
1969/12/31/18:00:14.630,(-3 2 14 3 -3 -4 -3 -6)
1969/12/31/18:00:14.646,(-4 -1 9 10 0 -11 -9 -3)
1969/12/31/18:00:14.646,(-12 -9 -5 -11 -10 -2 -2 -7)
1969/12/31/18:00:14.648,(10 4 -5 -8 -6 -4 2 6)
1969/12/31/18:00:14.648,(-1 -3 -15 -5 -4 1 0 -2)
1969/12/31/18:00:14.658,(-8 3 19 2 5 1 -3 -8)
1969/12/31/18:00:14.658,(11 -1 -20 -8 -12 -2 6 11)
1969/12/31/18:00:14.665,(-6 -6 -11 -8 3 3 1 -3)
1969/12/31/18:00:14.665,(9 5 4 28 12 10 5 5)
1969/12/31/18:00:14.677,(-3 -11 0 -4 3 1 1 1)
1969/12/31/18:00:14.677,(-7 5 10 -6 -6 -4 -5 -6)
1969/12/31/18:00:14.682,(1 4 3 -1 -7 -4 -1 -1)
1969/12/31/18:00:14.682,(-8 -4 1 4 3 -3 -4 -7)
1969/12/31/18:00:14.695,(2 4 10 8 7 4 1 0)
1969/12/31/18:00:14.695,(10 1 -21 -12 -9 1 9 11)
1969/12/31/18:00:14.697,(1 -3 -1 -1 -1 -1 2 -1)
1969/12/31/18:00:14.697,(-9 -5 2 6 4 -3 -4 -6)
1969/12/31/18:00:14.707,(6 3 -8 -17 -13 0 1 5)
1969/12/31/18:00:14.707,(-4 -3 7 7 -2 -3 -5 -7)
1969/12/31/18:00:14.714,(2 5 6 1 14 4 2 2)
1969/12/31/18:00:14.714,(1 2 1 4 -2 1 1 -1)
1969/12/31/18:00:14.725,(1 -1 -9 -10 2 1 1 1)
1969/12/31/18:00:14.725,(-4 -6 -2 -21 -14 -5 -3 0)
1969/12/31/18:00:14.731,(5 6 13 31 10 6 2 5)
1969/12/31/18:00:14.731,(1 1 5 12 7 3 -1 2)
1969/12/31/18:00:14.744,(4 4 -3 -6 -3 3 6 8)
1969/12/31/18:00:14.744,(-1 -2 -2 -4 -5 -5 -3 0)
1969/12/31/18:00:14.746,(2 0 -4 -15 -7 0 -1 -1)
1969/12/31/18:00:14.746,(-2 -5 -3 -10 -6 -2 1 -2)
1969/12/31/18:00:14.756,(2 2 0 10 2 -1 -1 -2)
1969/12/31/18:00:14.756,(-2 -1 3 3 5 2 -2 -2)
1969/12/31/18:00:14.769,(1 -3 -1 -1 -4 -1 -1 -2)
1969/12/31/18:00:14.769,(-3 -3 1 0 -2 -2 -2 -3)
1969/12/31/18:00:14.774,(4 2 -5 -10 -1 -2 -2 1)
1969/12/31/18:00:14.774,(-4 -2 -1 3 1 -1 -3 -4)
1969/12/31/18:00:14.781,(-1 -1 -8 -13 -9 -4 -3 -2)
1969/12/31/18:00:14.781,(1 3 3 6 -5 -5 -5 -1)
1969/12/31/18:00:14.793,(1 1 1 -2 8 5 4 3)
1969/12/31/18:00:14.793,(2 2 6 18 14 8 3 3)
1969/12/31/18:00:14.794,(-6 -3 9 2 5 6 2 0)
1969/12/31/18:00:14.794,(-5 -2 -3 -4 -8 -8 -3 -6)
1969/12/31/18:00:14.794,(-3 -1 6 -13 -9 0 0 0)
1969/12/31/18:00:14.794,(4 -1 -7 8 8 3 -1 1)
1969/12/31/18:00:14.795,(-1 -3 2 1 -5 4 3 0)
1969/12/31/18:00:14.795,(-4 0 -1 11 3 -7 -5 -5)
1969/12/31/18:00:14.805,(-3 -4 -5 3 9 3 0 -1)
1969/12/31/18:00:14.805,(2 5 9 -11 -14 -4 1 -1)
1969/12/31/18:00:14.813,(3 3 -18 -5 -5 -2 1 1)
1969/12/31/18:00:14.813,(12 6 10 8 22 10 5 8)
1969/12/31/18:00:14.824,(-18 -16 -9 -28 -23 -14 -13 -13)
1969/12/31/18:00:14.824,(-2 -4 -10 6 -6 0 1 0)
1969/12/31/18:00:14.826,(-6 -8 6 7 14 3 -2 -3)
1969/12/31/18:00:14.826,(-5 1 -1 -28 -20 -5 3 -2)
1969/12/31/18:00:14.843,(17 15 8 56 28 4 0 9)
1969/12/31/18:00:14.843,(-9 -7 -3 -36 -23 -8 -5 -5)
1969/12/31/18:00:14.844,(-1 -3 -4 -13 -23 -8 -5 -3)
1969/12/31/18:00:14.844,(0 -1 13 50 38 20 8 3)
1969/12/31/18:00:14.854,(1 5 4 -9 13 5 5 1)
1969/12/31/18:00:14.854,(0 -3 -3 13 -2 -9 -5 -2)
1969/12/31/18:00:14.861,(-3 -6 -5 7 19 12 3 1)
1969/12/31/18:00:14.861,(-11 -9 -6 -23 -23 -9 -9 -7)
1969/12/31/18:00:14.874,(-6 -5 -13 -34 -27 -7 1 -3)
1969/12/31/18:00:14.874,(6 6 -7 -13 6 -3 -2 2)
1969/12/31/18:00:14.875,(6 5 -15 -16 -48 -18 -4 1)
1969/12/31/18:00:14.875,(5 -3 -3 3 24 6 -1 1)
1969/12/31/18:00:14.892,(-8 -4 26 26 19 5 2 -2)
1969/12/31/18:00:14.892,(-1 1 7 27 11 6 2 2)
1969/12/31/18:00:14.892,(-6 -4 -7 0 6 -1 -2 -4)
1969/12/31/18:00:14.892,(2 6 9 -7 -4 0 -1 3)
1969/12/31/18:00:14.903,(-5 -5 -20 -28 -47 -19 -7 -5)
1969/12/31/18:00:14.903,(7 5 -5 -3 19 6 -3 5)
1969/12/31/18:00:14.910,(-12 -6 20 12 22 6 1 -5)
1969/12/31/18:00:14.910,(1 -1 -17 -4 -18 -5 0 1)
1969/12/31/18:00:14.928,(1 -6 -6 -2 3 -5 -6 -1)
1969/12/31/18:00:14.928,(-2 2 -2 -13 -4 4 4 0)
1969/12/31/18:00:14.930,(7 4 -12 -17 -23 -5 -2 3)
1969/12/31/18:00:14.930,(6 6 18 17 31 16 7 8)
1969/12/31/18:00:14.940,(0 3 15 36 22 5 1 0)
1969/12/31/18:00:14.940,(-3 -6 -9 10 -10 -3 -3 -1)
1969/12/31/18:00:14.942,(-2 -1 -15 -45 -15 -10 -4 -1)
1969/12/31/18:00:14.942,(5 5 -20 -49 -32 -8 -2 1)
1969/12/31/18:00:14.952,(4 1 3 21 27 19 5 5)
1969/12/31/18:00:14.952,(-11 -4 40 68 15 3 -1 -5)
1969/12/31/18:00:14.959,(-3 0 7 7 19 5 1 0)
1969/12/31/18:00:14.959,(-4 -7 -18 -15 -29 -16 -6 -3)
1969/12/31/18:00:14.971,(7 -1 -29 -30 -20 -5 1 2)
1969/12/31/18:00:14.971,(1 3 15 3 14 4 0 1)
1969/12/31/18:00:14.972,(0 0 14 14 2 1 0 1)
1969/12/31/18:00:14.972,(-2 -2 3 7 -1 -2 -1 -3)
1969/12/31/18:00:14.989,(0 -1 -9 -5 -2 1 -1 1)
1969/12/31/18:00:14.989,(-3 -3 -13 -31 -7 -1 0 -1)
1969/12/31/18:00:14.991,(-1 3 5 18 2 -1 -1 0)
1969/12/31/18:00:14.991,(-1 -2 -1 -7 -3 -3 1 0)
1969/12/31/18:00:15.001,(-2 0 -1 -4 2 1 2 2)
1969/12/31/18:00:15.001,(-2 -2 -8 -22 -11 -7 -4 -2)
1969/12/31/18:00:15.008,(1 1 4 20 11 5 2 1)
1969/12/31/18:00:15.008,(-1 -1 7 28 12 1 -2 -1)
1969/12/31/18:00:15.020,(-1 0 8 9 -4 -3 0 0)
1969/12/31/18:00:15.020,(0 0 -6 -1 -1 2 2 0)
1969/12/31/18:00:15.021,(-4 -5 -5 0 8 1 -2 -4)
1969/12/31/18:00:15.021,(-1 -3 -3 -13 2 1 0 -2)
1969/12/31/18:00:15.038,(-1 0 5 17 5 1 0 0)
1969/12/31/18:00:15.038,(1 -1 -4 -10 -11 -6 0 0)
1969/12/31/18:00:15.040,(9 4 -2 -18 4 2 3 5)
1969/12/31/18:00:15.040,(-1 -1 3 11 -5 -4 -1 -2)
1969/12/31/18:00:15.050,(0 -1 2 -4 3 -1 -2 0)
1969/12/31/18:00:15.050,(-2 0 -4 -4 -1 -1 -1 -2)
1969/12/31/18:00:15.057,(-3 -4 0 5 0 0 -2 -2)
1969/12/31/18:00:15.057,(-6 -6 -1 11 3 -2 -3 -2)
1969/12/31/18:00:15.068,(2 2 -2 -16 -9 -3 2 1)
1969/12/31/18:00:15.068,(3 1 -1 -2 4 3 2 1)
1969/12/31/18:00:15.070,(-2 0 -1 6 -1 -2 -1 -1)
1969/12/31/18:00:15.070,(-1 -1 -1 -2 1 1 0 0)
1969/12/31/18:00:15.087,(-2 -1 0 -6 -3 0 -1 -2)
1969/12/31/18:00:15.087,(0 -1 -4 0 0 1 -1 0)
1969/12/31/18:00:15.089,(-1 0 -3 -5 -5 -3 -1 -3)
1969/12/31/18:00:15.089,(-6 -1 1 -10 0 1 -4 -4)
1969/12/31/18:00:15.099,(3 1 7 15 4 1 0 2)
1969/12/31/18:00:15.099,(2 1 2 6 4 2 1 1)
1969/12/31/18:00:15.105,(3 1 -3 -10 -7 -1 0 2)
1969/12/31/18:00:15.105,(-4 -3 -5 -2 -3 -4 -2 -4)
1969/12/31/18:00:15.117,(4 3 -1 -6 -5 2 2 2)
1969/12/31/18:00:15.117,(0 -1 -2 1 4 0 -1 -2)
1969/12/31/18:00:15.123,(-2 -2 0 3 0 -1 -1 -1)
1969/12/31/18:00:15.123,(1 -1 -3 -1 -5 -2 1 0)
1969/12/31/18:00:15.136,(-1 -1 -2 0 2 -1 0 -2)
1969/12/31/18:00:15.136,(-3 -2 -3 0 -1 -1 -1 -3)
1969/12/31/18:00:15.138,(-2 0 0 -5 -2 -2 -1 0)
1969/12/31/18:00:15.138,(4 1 1 8 1 2 2 3)
1969/12/31/18:00:15.147,(-5 -4 0 0 -3 -5 -3 -2)
1969/12/31/18:00:15.147,(4 1 -1 -9 -9 1 3 5)
1969/12/31/18:00:15.155,(-2 2 2 8 15 2 -1 -2)
1969/12/31/18:00:15.155,(-4 -2 -3 1 -3 -2 -5 -3)
1969/12/31/18:00:15.166,(1 0 -3 -15 -7 1 -1 2)
1969/12/31/18:00:15.166,(1 0 3 16 5 -2 1 0)
1969/12/31/18:00:15.172,(3 0 0 -5 -6 0 1 2)
1969/12/31/18:00:15.172,(-2 -1 -1 3 -1 -2 -1 -2)
1969/12/31/18:00:15.185,(-1 0 -2 -3 0 0 -2 0)
1969/12/31/18:00:15.185,(0 -2 -2 -3 -3 0 -1 0)
1969/12/31/18:00:15.187,(-2 -4 -1 2 1 -1 -2 -3)
1969/12/31/18:00:15.187,(2 1 -2 -9 -4 0 0 1)
1969/12/31/18:00:15.196,(3 1 4 7 0 0 1 -1)
1969/12/31/18:00:15.196,(0 0 -1 -12 -4 -1 0 1)
1969/12/31/18:00:15.204,(-1 -1 1 13 4 -2 -2 -1)
1969/12/31/18:00:15.204,(-2 0 -2 0 -1 0 -1 -2)
1969/12/31/18:00:15.215,(-2 -1 0 -10 -3 -2 -2 0)
1969/12/31/18:00:15.215,(-2 -1 -1 16 10 3 -1 -2)
1969/12/31/18:00:15.221,(-1 -1 -1 -7 -6 -2 0 0)
1969/12/31/18:00:15.221,(-3 -2 -2 -1 -3 -3 -2 -1)
1969/12/31/18:00:15.234,(2 -2 -5 -11 -3 -1 -1 1)
1969/12/31/18:00:15.234,(-6 -5 -2 -6 -1 2 2 -1)
1969/12/31/18:00:15.235,(2 1 0 7 0 1 2 1)
1969/12/31/18:00:15.235,(2 -2 -4 -1 -2 0 4 5)
1969/12/31/18:00:15.245,(-3 0 -2 2 6 2 3 -2)
1969/12/31/18:00:15.245,(-2 -1 1 -9 -8 -5 -11 -12)
1969/12/31/18:00:15.253,(-3 -2 1 10 5 0 -2 -4)
1969/12/31/18:00:15.253,(6 5 -1 -3 1 0 4 6)
1969/12/31/18:00:15.264,(1 -3 -8 -6 -5 -5 -2 1)
1969/12/31/18:00:15.264,(5 7 8 7 3 3 3 6)
1969/12/31/18:00:15.270,(-9 -5 -6 -27 -10 -5 -4 -6)
1969/12/31/18:00:15.270,(-6 -1 5 10 -2 -4 -5 -8)
1969/12/31/18:00:15.283,(4 1 0 6 2 0 -2 0)
1969/12/31/18:00:15.283,(-2 2 3 8 14 0 3 1)
1969/12/31/18:00:15.284,(-1 -2 6 23 1 0 -2 -2)
1969/12/31/18:00:15.284,(1 3 -4 -32 -11 2 7 6)
1969/12/31/18:00:15.301,(-1 4 -1 17 5 -6 -6 -4)
1969/12/31/18:00:15.301,(-1 -5 -1 -5 0 3 3 1)
1969/12/31/18:00:15.302,(-6 -7 -2 1 0 -1 -2 0)
1969/12/31/18:00:15.302,(-17 -5 2 4 -1 0 -3 -6)
1969/12/31/18:00:15.313,(26 8 -3 -10 -2 5 13 22)
1969/12/31/18:00:15.313,(-3 -8 -5 -5 -7 -8 -14 -16)
1969/12/31/18:00:15.319,(2 4 -1 -4 2 7 16 11)
1969/12/31/18:00:15.319,(-4 1 6 8 3 0 -3 -7)
1969/12/31/18:00:15.332,(-6 -13 -6 -4 -2 -4 -7 -9)
1969/12/31/18:00:15.332,(1 2 1 2 4 0 -1 3)
1969/12/31/18:00:15.333,(0 -1 -6 -10 -11 -4 -7 -3)
1969/12/31/18:00:15.333,(11 2 -4 -17 -9 -4 3 8)
1969/12/31/18:00:15.349,(-14 -5 -1 -6 -2 2 3 -6)
1969/12/31/18:00:15.350,(4 3 10 56 25 4 4 4)
1969/12/31/18:00:15.351,(-4 -1 12 29 15 5 -4 -4)
1969/12/31/18:00:15.351,(-4 -3 0 15 9 0 -3 -4)
1969/12/31/18:00:15.362,(3 4 6 -18 -8 2 2 -4)
1969/12/31/18:00:15.362,(-5 -3 -15 -37 -22 -6 -4 0)
1969/12/31/18:00:15.367,(11 5 -6 -10 -5 -5 0 7)
1969/12/31/18:00:15.367,(-8 -5 -3 -2 -1 -4 -10 -14)
1969/12/31/18:00:15.380,(-7 -2 0 4 -2 -1 -4 -5)
1969/12/31/18:00:15.380,(-1 -1 -3 -10 -8 -3 0 1)
1969/12/31/18:00:15.382,(7 -2 -7 -7 -3 -2 1 3)
1969/12/31/18:00:15.382,(-55 -36 -3 -15 -8 1 5 -15)
1969/12/31/18:00:15.399,(68 51 14 24 11 2 3 31)
1969/12/31/18:00:15.399,(-5 -5 -6 -4 -3 -7 -15 -14)
1969/12/31/18:00:15.400,(6 2 0 -2 -3 -1 0 1)
1969/12/31/18:00:15.400,(12 3 -3 1 1 2 2 5)
1969/12/31/18:00:15.410,(-23 -13 0 0 -2 1 2 -5)
1969/12/31/18:00:15.410,(2 2 -5 -30 -15 2 8 11)
1969/12/31/18:00:15.417,(9 3 -5 -18 -13 -4 -1 0)
1969/12/31/18:00:15.417,(7 8 14 64 32 6 -1 2)
1969/12/31/18:00:15.429,(-33 -18 13 33 22 1 -7 -17)
1969/12/31/18:00:15.429,(26 10 0 3 0 6 8 18)
1969/12/31/18:00:15.431,(-8 2 -2 -25 -9 -3 -6 -11)
1969/12/31/18:00:15.431,(17 11 -10 -29 -20 -5 1 5)
1969/12/31/18:00:15.447,(-20 -16 -2 3 0 -1 -4 -17)
1969/12/31/18:00:15.447,(-8 -8 -8 -8 -7 -5 -3 -6)
1969/12/31/18:00:15.449,(-2 -2 -1 -1 -3 -4 1 1)
1969/12/31/18:00:15.449,(15 13 -7 -47 -25 -4 -2 8)
1969/12/31/18:00:15.459,(-11 -6 -1 28 13 4 2 -5)
1969/12/31/18:00:15.459,(-8 -2 4 22 25 4 2 5)
1969/12/31/18:00:15.466,(-4 9 18 21 16 14 12 -2)
1969/12/31/18:00:15.466,(8 -1 -1 10 3 -3 -5 -1)
1969/12/31/18:00:15.478,(-7 -10 -11 -38 -23 -8 -5 -3)
1969/12/31/18:00:15.478,(-1 1 -4 -18 -20 -7 -3 0)
1969/12/31/18:00:15.479,(-3 -9 -10 -19 -18 -5 -3 -2)
1969/12/31/18:00:15.479,(6 2 -5 -1 12 1 2 4)
1969/12/31/18:00:15.496,(12 12 15 59 28 14 11 13)
1969/12/31/18:00:15.496,(-7 0 20 48 24 7 1 -3)
1969/12/31/18:00:15.497,(-7 -6 0 3 4 -2 -5 -7)
1969/12/31/18:00:15.497,(-3 -4 -6 -30 -22 -5 -3 -3)
1969/12/31/18:00:15.515,(-1 -5 -17 -45 -23 -11 -5 -2)
1969/12/31/18:00:15.515,(-6 0 -1 1 0 0 2 -4)
1969/12/31/18:00:15.515,(5 -4 -3 -4 2 -2 1 3)
1969/12/31/18:00:15.515,(-33 -25 -7 1 -3 -8 -13 -19)
1969/12/31/18:00:15.527,(29 26 7 -2 1 3 4 9)
1969/12/31/18:00:15.527,(-20 -19 -5 -11 -11 -5 -8 -15)
1969/12/31/18:00:15.527,(11 18 -3 -2 -1 -2 -3 3)
1969/12/31/18:00:15.527,(-3 -14 6 19 15 11 9 1)
1969/12/31/18:00:15.545,(-15 -9 -3 -13 -10 -5 -2 -4)
1969/12/31/18:00:15.545,(7 7 1 -3 3 1 2 4)
1969/12/31/18:00:15.546,(-10 -15 -11 -13 -20 -12 -9 -6)
1969/12/31/18:00:15.546,(15 17 9 20 10 0 5 11)
1969/12/31/18:00:15.564,(-3 -3 0 5 9 11 4 2)
1969/12/31/18:00:15.564,(12 8 0 -1 18 12 10 10)
1969/12/31/18:00:15.564,(-8 -6 -1 2 4 1 -3 -2)
1969/12/31/18:00:15.564,(8 8 0 -4 -13 -6 -1 1)
1969/12/31/18:00:15.576,(-4 -4 -12 -54 -33 -14 -6 -3)
1969/12/31/18:00:15.576,(-15 -10 0 41 12 -9 -10 -13)
1969/12/31/18:00:15.576,(6 5 11 17 10 8 5 7)
1969/12/31/18:00:15.576,(3 5 3 0 4 3 1 1)
1969/12/31/18:00:15.594,(-11 -10 -8 -6 0 -2 -5 -7)
1969/12/31/18:00:15.594,(10 10 5 -10 -10 4 7 8)
1969/12/31/18:00:15.595,(-7 -2 7 21 6 0 3 -2)
1969/12/31/18:00:15.595,(14 9 5 11 10 7 4 10)
1969/12/31/18:00:15.613,(-18 -12 -5 0 -1 -5 -6 -9)
1969/12/31/18:00:15.613,(15 5 -13 -47 -14 -3 -3 3)
1969/12/31/18:00:15.613,(0 0 -3 3 -4 0 1 1)
1969/12/31/18:00:15.613,(-7 -5 -3 3 -7 -4 -3 -4)
1969/12/31/18:00:15.624,(8 7 2 -4 9 1 2 4)
1969/12/31/18:00:15.624,(-13 -7 -3 -3 1 -1 -3 -8)
1969/12/31/18:00:15.625,(0 -7 3 20 -1 0 4 7)
1969/12/31/18:00:15.625,(14 14 8 16 16 7 8 8)
1969/12/31/18:00:15.643,(-1 6 -1 -6 -7 -1 -1 -4)
1969/12/31/18:00:15.643,(-7 1 2 0 -5 0 2 7)
1969/12/31/18:00:15.644,(-4 -7 -7 -13 4 -3 -14 -15)
1969/12/31/18:00:15.644,(-2 2 -4 -4 -2 -2 -4 -4)
1969/12/31/18:00:15.662,(-4 -8 -1 -6 -12 -4 -1 -2)
1969/12/31/18:00:15.662,(-1 -2 -6 -6 -7 -4 -2 -3)
1969/12/31/18:00:15.662,(2 5 1 5 10 2 6 16)
1969/12/31/18:00:15.662,(5 4 2 -8 -14 0 1 0)
1969/12/31/18:00:15.673,(-12 -13 2 25 18 2 -2 -8)
1969/12/31/18:00:15.673,(-7 -7 3 6 1 3 -1 -3)
1969/12/31/18:00:15.674,(5 9 1 -1 -1 0 0 1)
1969/12/31/18:00:15.674,(-4 -6 -2 -9 1 1 4 5)
1969/12/31/18:00:15.692,(13 6 -17 -85 -41 -11 -5 4)
1969/12/31/18:00:15.692,(-6 -4 -2 22 -10 -2 -2 -3)
1969/12/31/18:00:15.692,(-4 -4 7 22 21 4 -3 -7)
1969/12/31/18:00:15.692,(-14 -10 15 62 30 4 -3 -4)
1969/12/31/18:00:15.710,(-12 -12 15 40 19 6 3 -1)
1969/12/31/18:00:15.710,(19 36 1 -13 -12 -7 -5 -3)
1969/12/31/18:00:15.711,(-1 -3 -11 -50 -13 -2 0 2)
1969/12/31/18:00:15.711,(-6 -5 -13 -21 -16 -7 -8 -9)
1969/12/31/18:00:15.722,(3 -6 0 12 5 0 2 9)
1969/12/31/18:00:15.722,(-21 -20 -7 -19 -4 -2 -7 -14)
1969/12/31/18:00:15.723,(9 4 -3 2 -6 -1 2 0)
1969/12/31/18:00:15.723,(0 4 -1 -11 -1 -2 -3 -1)
1969/12/31/18:00:15.741,(5 6 3 13 4 1 2 5)
1969/12/31/18:00:15.741,(-5 -9 1 -5 -5 -4 -1 2)
1969/12/31/18:00:15.741,(-1 4 3 3 0 0 -3 -3)
1969/12/31/18:00:15.741,(2 -9 -6 -1 0 4 4 2)
1969/12/31/18:00:15.752,(5 2 -13 -60 -15 -5 -2 -1)
1969/12/31/18:00:15.752,(13 5 9 65 25 9 11 11)
1969/12/31/18:00:15.758,(-10 -2 12 18 11 0 -3 -4)
1969/12/31/18:00:15.758,(-3 2 -3 -3 -3 -2 -3 -6)
1969/12/31/18:00:15.771,(-3 2 6 15 10 2 2 -1)
1969/12/31/18:00:15.771,(-1 -4 -4 -27 -5 -10 -13 -5)
1969/12/31/18:00:15.772,(-6 -4 -7 -15 -25 -8 -2 -8)
1969/12/31/18:00:15.772,(7 4 -1 -8 2 0 2 7)
1969/12/31/18:00:15.789,(-3 1 -1 11 4 4 -2 -8)
1969/12/31/18:00:15.789,(-3 -6 -3 -12 -7 2 1 2)
1969/12/31/18:00:15.790,(3 0 -7 -23 0 0 -2 -1)
1969/12/31/18:00:15.790,(-4 -4 -14 -32 -37 -11 -7 -6)
1969/12/31/18:00:15.801,(-2 4 23 118 68 10 7 -1)
1969/12/31/18:00:15.801,(-4 5 25 45 34 13 4 -4)
1969/12/31/18:00:15.808,(-10 -10 -10 -65 -23 -9 -5 -4)
1969/12/31/18:00:15.808,(17 11 -4 -4 -17 1 9 12)
1969/12/31/18:00:15.820,(4 0 -1 -8 -8 -5 -3 0)
1969/12/31/18:00:15.820,(7 -1 -13 -42 -4 -1 1 5)
1969/12/31/18:00:15.820,(-2 -2 5 27 -6 3 1 -1)
1969/12/31/18:00:15.820,(-5 -1 1 -14 11 -1 -2 -5)
1969/12/31/18:00:15.838,(1 0 -6 -14 -33 -16 -10 -3)
1969/12/31/18:00:15.838,(0 0 3 3 7 5 1 1)
1969/12/31/18:00:15.839,(-2 1 -3 -8 10 8 2 -1)
1969/12/31/18:00:15.839,(-6 -5 -1 -2 10 5 1 -3)
1969/12/31/18:00:15.850,(6 3 4 18 -3 6 8 9)
1969/12/31/18:00:15.850,(-5 -4 -4 -20 -13 -6 -7 -7)
1969/12/31/18:00:15.857,(5 0 -5 5 6 3 0 0)
1969/12/31/18:00:15.857,(-9 -6 11 42 27 5 1 2)
1969/12/31/18:00:15.868,(-8 -6 -5 -41 -4 1 -1 -6)
1969/12/31/18:00:15.868,(7 5 -6 -26 -47 -13 -2 2)
1969/12/31/18:00:15.869,(7 4 1 29 13 2 5 3)
1969/12/31/18:00:15.869,(1 2 13 37 18 2 -1 -2)
1969/12/31/18:00:15.887,(-8 -7 0 3 -3 2 -3 -3)
1969/12/31/18:00:15.887,(-3 -5 -7 6 14 4 5 1)
1969/12/31/18:00:15.888,(2 0 16 24 6 2 -1 3)
1969/12/31/18:00:15.888,(-13 -12 -12 -37 -24 -8 -7 -14)
1969/12/31/18:00:15.899,(1 1 -6 -15 -2 0 0 0)
1969/12/31/18:00:15.899,(-5 -4 -7 -7 -5 -3 -3 -5)
1969/12/31/18:00:15.905,(2 0 -3 -12 -7 1 4 8)
1969/12/31/18:00:15.905,(3 2 -4 4 0 -6 -4 -2)
1969/12/31/18:00:15.917,(-3 -2 1 -5 -8 -1 0 3)
1969/12/31/18:00:15.917,(0 0 -6 -9 -6 -4 -6 -6)
1969/12/31/18:00:15.918,(1 0 -10 -66 -16 1 15 12)
1969/12/31/18:00:15.918,(-8 -6 -4 38 -11 -7 -8 -7)
1969/12/31/18:00:15.936,(-10 -5 17 59 45 8 -6 -9)
1969/12/31/18:00:15.936,(1 11 18 44 28 10 0 3)
1969/12/31/18:00:15.937,(19 10 4 5 12 11 12 10)
1969/12/31/18:00:15.937,(1 -4 -11 -59 -26 -6 -3 4)
1969/12/31/18:00:15.948,(-7 -10 -24 -47 -38 -15 -3 -5)
1969/12/31/18:00:15.948,(-2 -5 4 25 0 -1 1 -2)
1969/12/31/18:00:15.955,(-6 -3 -4 -14 -5 -6 -9 -3)
1969/12/31/18:00:15.955,(4 7 11 49 26 5 2 3)
1969/12/31/18:00:15.966,(-4 4 11 29 4 -5 -4 -2)
1969/12/31/18:00:15.966,(15 5 3 -12 -1 -3 -5 5)
1969/12/31/18:00:15.967,(-23 -22 -9 -9 -12 -6 -8 -14)
1969/12/31/18:00:15.967,(27 39 -3 -36 -7 -1 2 12)
1969/12/31/18:00:15.985,(-38 -57 -19 -7 -14 -14 -32 -32)
1969/12/31/18:00:15.985,(2 19 -2 -19 -11 0 5 2)
1969/12/31/18:00:15.986,(10 8 3 36 21 5 1 -1)
1969/12/31/18:00:15.986,(-20 -20 2 -4 2 -5 -11 -15)
1969/12/31/18:00:15.996,(33 22 1 -35 -6 8 16 21)
1969/12/31/18:00:15.996,(-2 -7 -10 -16 -29 -10 -1 0)
1969/12/31/18:00:16.003,(-18 -16 2 36 10 -12 -15 -16)
1969/12/31/18:00:16.003,(11 9 19 36 34 21 16 14)
1969/12/31/18:00:16.015,(13 22 4 -2 20 12 8 6)
1969/12/31/18:00:16.015,(-18 -25 -5 -7 -9 0 2 -1)
1969/12/31/18:00:16.016,(18 18 -1 1 -9 1 6 13)
1969/12/31/18:00:16.016,(-5 -13 0 1 -5 0 -2 -3)
1969/12/31/18:00:16.034,(-2 6 -3 -28 -12 -3 1 5)
1969/12/31/18:00:16.034,(-41 -24 -6 -1 1 -8 -11 -20)
1969/12/31/18:00:16.035,(-4 -1 -8 12 1 -7 -10 -12)
1969/12/31/18:00:16.035,(-20 -17 -2 -15 -8 -7 -8 -19)
1969/12/31/18:00:16.053,(24 23 4 10 3 8 8 8)
1969/12/31/18:00:16.053,(5 2 -2 -14 2 4 5 0)
1969/12/31/18:00:16.053,(-4 -8 -8 -28 -23 -1 1 3)
1969/12/31/18:00:16.053,(8 -1 -16 -16 11 1 4 11)
1969/12/31/18:00:16.064,(-2 2 11 44 -2 -2 -1 -1)
1969/12/31/18:00:16.064,(5 5 12 36 25 2 3 8)
1969/12/31/18:00:16.065,(7 13 17 29 9 6 4 4)
1969/12/31/18:00:16.065,(8 4 0 -19 -10 0 1 3)
1969/12/31/18:00:16.083,(-1 -5 -10 -18 -11 2 2 2)
1969/12/31/18:00:16.083,(11 9 0 23 16 -10 -17 -9)
1969/12/31/18:00:16.084,(-58 -42 -9 2 5 3 -12 -39)
1969/12/31/18:00:16.084,(10 -41 -16 -18 -14 -8 0 13)
1969/12/31/18:00:16.101,(37 89 10 -22 -10 3 13 25)
1969/12/31/18:00:16.101,(-19 -18 -11 -19 -13 -3 -8 -22)
1969/12/31/18:00:16.102,(-4 9 2 -3 1 -9 -10 -7)
1969/12/31/18:00:16.102,(-2 -4 2 7 -6 -2 0 -6)
1969/12/31/18:00:16.113,(1 -39 -10 -5 0 -7 -7 7)
1969/12/31/18:00:16.113,(0 16 5 -14 0 16 21 13)
1969/12/31/18:00:16.114,(13 8 -6 3 10 1 -2 2)
1969/12/31/18:00:16.114,(-16 4 5 2 -10 -1 -2 -5)
1969/12/31/18:00:16.132,(-5 -8 -5 9 6 -7 -7 -7)
1969/12/31/18:00:16.132,(0 6 1 -15 1 3 4 -4)
1969/12/31/18:00:16.132,(4 -28 3 36 9 4 8 20)
1969/12/31/18:00:16.132,(7 34 9 23 9 -1 -5 -4)
1969/12/31/18:00:16.150,(-24 -2 6 8 5 6 6 -17)
1969/12/31/18:00:16.150,(54 16 -5 -22 -9 -3 -1 28)
1969/12/31/18:00:16.151,(-25 -14 -16 -27 -12 -8 -12 -28)
1969/12/31/18:00:16.151,(-13 -49 -10 -4 -9 -11 -12 -9)
1969/12/31/18:00:16.162,(-26 0 3 0 1 3 4 -12)
1969/12/31/18:00:16.162,(-7 -18 0 8 5 4 7 3)
1969/12/31/18:00:16.163,(23 32 8 -8 -3 1 2 9)
1969/12/31/18:00:16.163,(-7 -20 -6 -15 -4 0 2 5)
1969/12/31/18:00:16.180,(11 31 -9 -39 -17 -17 -19 -19)
1969/12/31/18:00:16.180,(-3 -21 1 52 13 9 7 7)
1969/12/31/18:00:16.181,(13 8 23 55 29 13 16 20)
1969/12/31/18:00:16.181,(53 52 15 -24 10 21 28 37)
1969/12/31/18:00:16.199,(-9 -33 -13 2 -14 -13 -15 -9)
1969/12/31/18:00:16.199,(-37 -36 -13 -39 -17 -13 -10 -21)
1969/12/31/18:00:16.200,(90 96 14 10 4 12 28 55)
1969/12/31/18:00:16.200,(-41 -12 2 51 19 -7 -21 -40)
1969/12/31/18:00:16.211,(5 -7 9 -2 9 7 -2 11)
1969/12/31/18:00:16.211,(-3 -3 -8 -9 -12 -5 -7 -9)
1969/12/31/18:00:16.211,(-10 -21 -9 -37 -21 -8 -6 -4)
1969/12/31/18:00:16.211,(-2 -3 -14 -37 -17 -4 -2 -4)
1969/12/31/18:00:16.230,(10 10 3 11 -3 3 10 14)
1969/12/31/18:00:16.230,(-37 -64 -4 18 10 -5 -8 -7)
1969/12/31/18:00:16.230,(25 48 -13 -76 -39 -6 -4 -2)
1969/12/31/18:00:16.230,(7 19 -10 7 -9 -8 -3 0)
1969/12/31/18:00:16.248,(-13 -14 25 80 41 9 3 -7)
1969/12/31/18:00:16.248,(19 16 29 112 55 19 11 23)
1969/12/31/18:00:16.249,(-5 19 11 31 24 -6 -20 -27)
1969/12/31/18:00:16.249,(-47 -53 -14 -56 -8 4 -1 -20)
1969/12/31/18:00:16.260,(20 -15 -11 -29 -30 4 22 34)
1969/12/31/18:00:16.260,(19 8 -8 -45 -26 -20 -14 -4)
1969/12/31/18:00:16.260,(14 20 -3 -26 -15 -3 5 13)
1969/12/31/18:00:16.260,(18 43 0 3 -2 4 2 5)
1969/12/31/18:00:16.278,(-24 -34 -7 -12 8 7 -3 -15)
1969/12/31/18:00:16.278,(4 7 -1 -28 -11 7 13 6)
1969/12/31/18:00:16.278,(-25 -48 -20 -53 -22 -9 -5 -6)
1969/12/31/18:00:16.278,(11 19 22 71 25 -2 -2 3)
1969/12/31/18:00:16.297,(7 12 22 49 41 15 8 8)
1969/12/31/18:00:16.297,(3 19 -8 -28 -19 0 2 3)
1969/12/31/18:00:16.298,(1 -3 -12 -44 -19 -7 -6 -5)
1969/12/31/18:00:16.298,(-5 -11 -4 9 6 -2 0 1)
1969/12/31/18:00:16.308,(-4 10 14 54 8 -3 -5 -5)
1969/12/31/18:00:16.308,(-16 15 1 -4 2 -11 -18 -28)
1969/12/31/18:00:16.309,(-48 -88 -5 5 13 8 2 -11)
1969/12/31/18:00:16.309,(25 49 -5 -25 -11 6 3 -3)
1969/12/31/18:00:16.327,(8 -5 -25 -72 -27 -6 -1 3)
1969/12/31/18:00:16.327,(10 13 3 24 -7 -5 -3 4)
1969/12/31/18:00:16.328,(-32 -21 4 27 5 -3 -3 -9)
1969/12/31/18:00:16.328,(-17 -22 4 1 0 -4 -5 -10)
1969/12/31/18:00:16.346,(12 0 -20 -61 -19 0 1 5)
1969/12/31/18:00:16.346,(23 25 -12 -39 -22 2 4 8)
1969/12/31/18:00:16.347,(3 -8 15 85 37 7 3 5)
1969/12/31/18:00:16.347,(-11 -9 19 50 47 6 -1 4)
1969/12/31/18:00:16.357,(12 21 13 9 -6 1 0 0)
1969/12/31/18:00:16.357,(25 22 -4 -46 -16 3 14 17)
1969/12/31/18:00:16.358,(-4 -8 -9 1 -3 -2 -4 -4)
1969/12/31/18:00:16.358,(2 -4 -15 -31 -29 -8 -4 5)
1969/12/31/18:00:16.376,(-31 -50 1 16 12 -2 -9 -15)
1969/12/31/18:00:16.376,(24 65 23 34 20 9 14 19)
1969/12/31/18:00:16.377,(-8 2 2 -3 -1 1 2 -7)
1969/12/31/18:00:16.377,(12 -2 -7 -26 -11 2 3 12)
1969/12/31/18:00:16.395,(17 0 -6 -13 -10 -3 1 9)
1969/12/31/18:00:16.395,(-7 -16 -1 -16 6 2 -1 -3)
1969/12/31/18:00:16.396,(11 19 13 53 17 3 1 3)
1969/12/31/18:00:16.396,(52 77 13 -9 12 13 18 33)
1969/12/31/18:00:16.407,(-37 -26 -14 6 -15 -21 -21 -28)
1969/12/31/18:00:16.407,(-10 -2 -2 -32 -13 2 4 -6)
1969/12/31/18:00:16.408,(-9 -23 -6 13 2 0 0 -4)
1969/12/31/18:00:16.408,(7 -11 5 34 27 8 6 7)
1969/12/31/18:00:16.425,(-3 25 18 32 24 10 5 -2)
1969/12/31/18:00:16.425,(-11 -33 -3 -4 -3 -11 -11 -2)
1969/12/31/18:00:16.426,(6 13 -12 -42 -25 -8 -2 -6)
1969/12/31/18:00:16.426,(19 28 -4 -13 -11 10 12 10)
1969/12/31/18:00:16.444,(-7 -2 -3 -14 -7 -7 -10 -6)
1969/12/31/18:00:16.444,(11 14 -4 -8 -10 -4 -1 2)
1969/12/31/18:00:16.444,(-12 -14 7 21 12 -9 -17 -9)
1969/12/31/18:00:16.444,(-27 -29 5 19 -1 -6 -10 -23)
1969/12/31/18:00:16.455,(20 15 -4 0 4 2 6 14)
1969/12/31/18:00:16.456,(-12 -15 0 11 9 10 8 1)
1969/12/31/18:00:16.456,(2 2 -8 -49 -17 -4 0 8)
1969/12/31/18:00:16.456,(-3 16 0 10 -30 -15 -14 -15)
1969/12/31/18:00:16.474,(-2 -2 -3 -15 0 -8 -5 -2)
1969/12/31/18:00:16.474,(5 -1 11 48 26 6 1 2)
1969/12/31/18:00:16.475,(17 26 1 13 -3 2 6 13)
1969/12/31/18:00:16.475,(-15 -23 9 -3 15 7 7 -2)
1969/12/31/18:00:16.492,(-1 5 -13 -22 -12 -4 -3 -4)
1969/12/31/18:00:16.492,(-14 -44 6 12 5 0 6 10)
1969/12/31/18:00:16.498,(3 26 0 -21 -3 -6 -10 -15)
1969/12/31/18:00:16.498,(-3 -14 -8 -5 -25 -16 -9 -2)
1969/12/31/18:00:16.504,(40 52 5 1 4 8 8 11)
1969/12/31/18:00:16.504,(-14 -20 -8 -9 4 3 2 0)
1969/12/31/18:00:16.510,(5 -13 0 -2 -6 0 0 8)
1969/12/31/18:00:16.510,(-4 -13 -4 -29 -13 -5 -6 -4)
1969/12/31/18:00:16.523,(-45 -33 -4 -1 5 -5 -10 -26)
1969/12/31/18:00:16.523,(-1 8 -5 -9 -12 -8 -12 -9)
1969/12/31/18:00:16.523,(28 0 8 31 17 24 25 23)
1969/12/31/18:00:16.523,(-32 -25 1 48 24 -6 -12 -20)
1969/12/31/18:00:16.541,(-12 -55 11 34 17 -4 -8 1)
1969/12/31/18:00:16.541,(42 106 15 5 5 10 12 7)
1969/12/31/18:00:16.542,(-19 -36 -17 -44 -20 -11 -15 -19)
1969/12/31/18:00:16.542,(28 8 -13 -29 -10 9 22 25)
1969/12/31/18:00:16.553,(-10 -10 -6 -13 -13 -9 -15 -14)
1969/12/31/18:00:16.553,(-13 -26 -11 2 0 -6 -10 -11)
1969/12/31/18:00:16.566,(-1 21 25 18 12 14 20 13)
1969/12/31/18:00:16.566,(-3 -15 -12 -5 3 -2 -4 -2)
1969/12/31/18:00:16.572,(-17 -6 -22 -76 -21 -4 -2 -11)
1969/12/31/18:00:16.572,(8 -13 -4 22 -19 -15 -12 0)
1969/12/31/18:00:16.572,(-37 -29 0 16 18 6 -1 -16)
1969/12/31/18:00:16.572,(9 23 13 16 10 0 -3 0)
1969/12/31/18:00:16.590,(27 34 -2 -54 -32 2 13 15)
1969/12/31/18:00:16.590,(-35 -53 -22 -13 -7 -10 -17 -25)
1969/12/31/18:00:16.591,(35 41 36 103 59 16 12 20)
1969/12/31/18:00:16.591,(3 11 31 46 40 17 14 18)
1969/12/31/18:00:16.602,(-29 -48 -14 7 1 -3 -6 -15)
1969/12/31/18:00:16.602,(30 19 -3 -42 -10 13 18 23)
1969/12/31/18:00:16.608,(-21 -23 -25 -66 -50 -23 -17 -19)
1969/12/31/18:00:16.608,(7 -3 -10 -31 -20 -3 4 6)
1969/12/31/18:00:16.620,(0 21 9 26 13 4 9 7)
1969/12/31/18:00:16.620,(-46 -78 -7 -3 -3 -11 -16 -16)
1969/12/31/18:00:16.621,(72 79 12 3 17 15 17 28)
1969/12/31/18:00:16.621,(-33 -34 -14 -9 -16 -11 -19 -30)
1969/12/31/18:00:16.639,(32 33 20 37 15 14 17 25)
1969/12/31/18:00:16.639,(-12 -10 1 -5 -14 -13 -13 -9)
1969/12/31/18:00:16.640,(-19 -6 1 34 27 8 7 -10)
1969/12/31/18:00:16.640,(-18 3 -9 -32 -13 -10 -22 -27)
1969/12/31/18:00:16.651,(24 14 -5 -18 -10 3 7 12)
1969/12/31/18:00:16.651,(-23 -5 -6 4 -6 -8 -6 -16)
1969/12/31/18:00:16.658,(9 -11 -9 -9 6 5 -1 6)
1969/12/31/18:00:16.658,(-6 0 -5 -26 -4 -6 2 4)
1969/12/31/18:00:16.668,(-1 3 12 60 6 4 2 -1)
1969/12/31/18:00:16.668,(-11 3 7 9 21 3 -3 -11)
1969/12/31/18:00:16.676,(-3 -4 -1 -17 -16 -4 1 1)
1969/12/31/18:00:16.676,(-43 -87 -12 -3 -2 -4 -4 -6)
1969/12/31/18:00:16.688,(80 101 14 6 12 10 22 40)
1969/12/31/18:00:16.688,(-32 -31 -5 -28 -10 -4 -13 -29)
1969/12/31/18:00:16.690,(13 5 -9 -21 -5 -1 -2 4)
1969/12/31/18:00:16.690,(31 33 11 20 -5 0 7 16)
1969/12/31/18:00:16.699,(-60 -78 -22 -7 -13 -21 -30 -46)
1969/12/31/18:00:16.699,(-22 -8 -1 17 0 -5 -1 0)
1969/12/31/18:00:16.707,(-11 -14 -5 -18 -6 -11 -19 -11)
1969/12/31/18:00:16.707,(12 10 -6 -6 -5 -2 -1 -1)
1969/12/31/18:00:16.718,(-14 -46 -16 -80 -35 -3 3 6)
1969/12/31/18:00:16.718,(58 111 22 71 43 9 7 9)
1969/12/31/18:00:16.724,(-49 -62 -18 -47 -26 -16 -16 -25)
1969/12/31/18:00:16.724,(7 16 7 38 0 0 5 5)
1969/12/31/18:00:16.737,(38 32 25 48 44 21 16 24)
1969/12/31/18:00:16.737,(-11 -23 3 -6 6 8 5 -3)
1969/12/31/18:00:16.739,(1 8 1 -3 -17 -11 -5 5)
1969/12/31/18:00:16.739,(3 10 -14 -61 -22 0 2 -5)
1969/12/31/18:00:16.748,(-18 -6 -6 -9 -13 -9 -5 -5)
1969/12/31/18:00:16.748,(26 0 14 37 12 2 3 21)
1969/12/31/18:00:16.756,(3 1 -11 -42 -16 0 -3 -8)
1969/12/31/18:00:16.756,(2 1 12 47 30 8 2 5)
1969/12/31/18:00:16.767,(-34 -18 0 29 12 -4 -18 -33)
1969/12/31/18:00:16.767,(1 -7 -4 -19 -8 -1 2 2)
1969/12/31/18:00:16.773,(21 22 4 -9 -10 3 8 13)
1969/12/31/18:00:16.773,(-7 -18 -6 -27 -7 0 3 3)
1969/12/31/18:00:16.786,(-13 -17 -6 8 -3 -7 -5 -6)
1969/12/31/18:00:16.786,(48 59 9 -5 0 2 6 21)
1969/12/31/18:00:16.787,(-29 -17 1 11 -1 -12 -18 -29)
1969/12/31/18:00:16.787,(10 -9 -11 -19 -3 4 4 6)
1969/12/31/18:00:16.797,(3 9 0 -14 1 2 6 6)
1969/12/31/18:00:16.797,(-12 -21 -9 -25 -22 -5 2 -2)
1969/12/31/18:00:16.805,(-12 5 5 58 22 -5 -2 1)
1969/12/31/18:00:16.805,(13 17 23 37 26 20 22 17)
1969/12/31/18:00:16.816,(-17 -17 -16 -29 -7 -9 -15 -18)
1969/12/31/18:00:16.816,(13 0 -8 -9 -10 2 10 19)
1969/12/31/18:00:16.822,(-17 -17 2 2 2 2 1 -1)
1969/12/31/18:00:16.822,(2 -6 0 -5 -7 -3 -1 0)
1969/12/31/18:00:16.841,(27 27 7 1 1 8 12 16)
1969/12/31/18:00:16.841,(-20 -32 -19 -21 -5 1 1 -6)
1969/12/31/18:00:16.842,(23 37 -4 -1 -5 1 8 12)
1969/12/31/18:00:16.842,(-1 -13 5 9 8 -1 -1 -4)
1969/12/31/18:00:16.853,(22 12 0 -7 -12 -7 -5 14)
1969/12/31/18:00:16.853,(-35 -17 -10 -6 -11 -7 -13 -30)
1969/12/31/18:00:16.854,(-1 -8 17 38 19 4 2 2)
1969/12/31/18:00:16.854,(9 16 2 10 14 6 8 11)
1969/12/31/18:00:16.865,(17 16 17 33 19 10 3 5)
1969/12/31/18:00:16.865,(-20 -6 1 -12 -5 -9 -10 -13)
1969/12/31/18:00:16.871,(-12 -8 -12 -21 -17 -1 1 -6)
1969/12/31/18:00:16.871,(18 13 -5 -24 -17 -9 -7 3)
1969/12/31/18:00:16.884,(-6 -12 -3 3 4 5 14 11)
1969/12/31/18:00:16.884,(-6 -33 -2 6 4 1 -1 5)
1969/12/31/18:00:16.885,(1 35 -1 -17 -9 -11 -16 -19)
1969/12/31/18:00:16.885,(-2 4 1 -36 -20 1 12 9)
1969/12/31/18:00:16.902,(12 25 11 59 20 -2 0 5)
1969/12/31/18:00:16.902,(-1 -12 10 19 11 6 1 -3)
1969/12/31/18:00:16.908,(-20 -34 -3 15 2 -5 -7 -9)
1969/12/31/18:00:16.908,(-24 -13 -19 -43 -18 -12 -17 -20)
1969/12/31/18:00:16.913,(9 2 -11 -23 -16 -1 8 10)
1969/12/31/18:00:16.913,(-5 -9 18 44 24 9 4 4)
1969/12/31/18:00:16.920,(14 5 6 12 14 5 3 -1)
1969/12/31/18:00:16.920,(12 14 0 5 6 -2 -6 4)
1969/12/31/18:00:16.932,(-29 -24 -24 -68 -45 -19 -14 -23)
1969/12/31/18:00:16.932,(15 9 0 29 7 -1 0 -1)
1969/12/31/18:00:16.934,(19 4 20 33 39 34 40 35)
1969/12/31/18:00:16.934,(-12 3 9 33 14 -1 -12 -19)
1969/12/31/18:00:16.951,(-20 -30 0 14 4 0 -7 -13)
1969/12/31/18:00:16.951,(40 67 13 -31 -20 1 10 25)
1969/12/31/18:00:16.952,(6 -12 -11 -19 -10 7 18 20)
1969/12/31/18:00:16.952,(-24 -31 -20 -13 -12 -17 -20 -25)
1969/12/31/18:00:16.962,(26 33 19 13 14 16 24 32)
1969/12/31/18:00:16.962,(22 36 -4 -1 -2 -8 -12 0)
1969/12/31/18:00:16.969,(-9 9 -8 -39 -16 2 6 -3)
1969/12/31/18:00:16.969,(4 3 4 10 -8 -6 -8 0)
1969/12/31/18:00:16.981,(-1 -3 -5 3 -5 0 5 5)
1969/12/31/18:00:16.981,(0 -4 -1 12 12 -9 -20 -13)
1969/12/31/18:00:16.983,(10 -2 -3 -34 -12 3 4 6)
1969/12/31/18:00:16.983,(-8 3 8 49 6 5 7 -1)
1969/12/31/18:00:17.000,(-5 -1 18 56 43 6 -3 -8)
1969/12/31/18:00:17.000,(-13 -6 1 5 8 2 3 -2)
1969/12/31/18:00:17.001,(4 -9 -7 -12 -10 -4 -2 1)
1969/12/31/18:00:17.001,(-36 -22 -20 -53 -38 -24 -28 -36)
1969/12/31/18:00:17.011,(16 1 -4 -30 -16 9 15 16)
1969/12/31/18:00:17.011,(20 31 8 -10 0 11 17 22)
1969/12/31/18:00:17.018,(-8 -11 -1 4 -3 -7 -8 -3)
1969/12/31/18:00:17.018,(-7 -2 -5 -10 -7 -2 0 -1)
1969/12/31/18:00:17.031,(-27 -23 -9 10 4 -13 -24 -30)
1969/12/31/18:00:17.031,(18 18 -3 -47 -13 11 22 20)
1969/12/31/18:00:17.032,(-3 41 6 35 3 -14 -16 -10)
1969/12/31/18:00:17.032,(12 -2 15 31 35 15 15 26)
1969/12/31/18:00:17.048,(-16 -13 -12 -8 -6 -8 -17 -26)
1969/12/31/18:00:17.048,(-6 -12 -5 -28 -18 0 0 -4)
1969/12/31/18:00:17.050,(-22 -25 -11 -5 -7 -9 -10 -16)
1969/12/31/18:00:17.050,(15 9 -1 10 4 5 11 13)
1969/12/31/18:00:17.060,(0 8 -5 -52 -14 -6 -7 -6)
1969/12/31/18:00:17.060,(10 -10 3 53 14 10 10 6)
1969/12/31/18:00:17.067,(-3 -6 7 8 -2 -6 -10 -6)
1969/12/31/18:00:17.067,(-1 5 -1 4 5 -1 -4 -3)
1969/12/31/18:00:17.079,(4 -2 -4 -39 -21 -1 4 4)
1969/12/31/18:00:17.079,(-27 -22 -9 -5 1 -14 -17 -24)
1969/12/31/18:00:17.081,(-21 -7 8 27 15 8 9 6)
1969/12/31/18:00:17.081,(52 38 16 16 19 19 16 20)
1969/12/31/18:00:17.098,(-32 -22 -9 -6 -9 -5 -7 -18)
1969/12/31/18:00:17.098,(9 10 -5 -17 -4 0 2 4)
1969/12/31/18:00:17.099,(-24 -36 -12 -9 -12 -12 -17 -22)
1969/12/31/18:00:17.099,(-9 -6 3 -8 -2 1 7 3)
1969/12/31/18:00:17.108,(5 11 -2 13 0 -7 -6 4)
1969/12/31/18:00:17.108,(-13 -20 -3 1 3 1 -2 -7)
1969/12/31/18:00:17.116,(7 -4 0 0 3 2 1 3)
1969/12/31/18:00:17.116,(-13 -22 -8 -30 -22 -6 -5 -5)
1969/12/31/18:00:17.128,(44 64 4 16 6 -5 -5 15)
1969/12/31/18:00:17.128,(-73 -77 -7 1 18 0 -14 -41)
1969/12/31/18:00:17.130,(83 93 28 29 10 11 23 49)
1969/12/31/18:00:17.130,(-27 -13 -10 -22 -20 -18 -24 -36)
1969/12/31/18:00:17.147,(1 -15 1 19 12 6 6 18)
1969/12/31/18:00:17.147,(14 7 -8 -18 -8 -2 2 0)
1969/12/31/18:00:17.148,(-13 -24 -12 -16 -11 -5 -6 -5)
1969/12/31/18:00:17.148,(-33 -25 -8 -9 -4 -3 -7 -16)
1969/12/31/18:00:17.157,(19 -11 10 27 14 16 23 26)
1969/12/31/18:00:17.157,(5 25 -5 -5 -11 -5 1 4)
1969/12/31/18:00:17.165,(-14 -24 -6 -6 6 -3 -11 -14)
1969/12/31/18:00:17.165,(9 17 -2 30 4 -6 -4 2)
1969/12/31/18:00:17.177,(-15 -3 11 0 4 8 4 -12)
1969/12/31/18:00:17.177,(16 6 0 -12 8 9 7 15)
1969/12/31/18:00:17.179,(-15 -17 -7 1 -13 -11 -12 -17)
1969/12/31/18:00:17.179,(20 18 3 -15 -10 -3 2 12)
1969/12/31/18:00:17.196,(-36 -36 -4 11 10 9 8 -9)
1969/12/31/18:00:17.196,(-12 13 8 23 12 -2 -2 -6)
1969/12/31/18:00:17.197,(-20 -27 -5 -6 1 3 1 -3)
1969/12/31/18:00:17.197,(28 23 -2 -8 5 11 13 22)
1969/12/31/18:00:17.206,(-15 -16 -10 -11 -14 -10 -11 -17)
1969/12/31/18:00:17.206,(52 55 4 -11 -9 4 13 27)
1969/12/31/18:00:17.214,(-16 -15 -4 4 2 -2 -3 -10)
1969/12/31/18:00:17.214,(11 11 7 -8 7 7 13 17)
1969/12/31/18:00:17.226,(-4 0 -7 -18 -19 -13 -18 -14)
1969/12/31/18:00:17.226,(-5 -14 -2 6 -7 0 2 2)
1969/12/31/18:00:17.227,(-1 -1 12 40 23 1 -3 -1)
1969/12/31/18:00:17.227,(-8 -7 5 24 13 4 -3 -9)
1969/12/31/18:00:17.244,(0 3 -12 -95 -33 -4 1 1)
1969/12/31/18:00:17.244,(0 -5 -2 45 0 -5 -4 -2)
1969/12/31/18:00:17.245,(-8 -13 -2 17 9 -8 -10 -4)
1969/12/31/18:00:17.245,(-22 -19 5 18 20 11 4 -12)
1969/12/31/18:00:17.256,(29 50 11 10 10 4 0 3)
1969/12/31/18:00:17.256,(-20 -28 -14 -48 -28 -6 -5 -11)
1969/12/31/18:00:17.262,(-5 -3 -13 -42 -32 -11 -10 -11)
1969/12/31/18:00:17.262,(-48 -65 -12 14 9 -6 -4 -15)
1969/12/31/18:00:17.275,(63 71 18 17 11 11 21 46)
1969/12/31/18:00:17.275,(-3 -7 10 2 3 -2 -12 -17)
1969/12/31/18:00:17.276,(9 12 0 2 2 4 2 1)
1969/12/31/18:00:17.276,(-5 -8 -5 -12 -9 -3 -3 -4)
1969/12/31/18:00:17.293,(-30 -35 -2 10 -1 -4 -7 -12)
1969/12/31/18:00:17.293,(8 9 0 -6 8 0 2 11)
1969/12/31/18:00:17.294,(11 8 6 8 -6 5 8 8)
1969/12/31/18:00:17.294,(5 9 4 6 5 1 1 3)
1969/12/31/18:00:17.304,(-7 -13 -1 18 18 0 -2 -7)
1969/12/31/18:00:17.304,(8 -5 -6 3 -11 -7 -4 4)
1969/12/31/18:00:17.311,(-14 11 -2 -27 -5 8 12 -3)
1969/12/31/18:00:17.311,(22 17 3 1 -1 4 2 9)
1969/12/31/18:00:17.324,(-22 -23 -3 18 9 -1 -2 -9)
1969/12/31/18:00:17.324,(-5 12 -2 -15 -7 -6 -7 -14)
1969/12/31/18:00:17.325,(28 9 -3 -8 -1 -1 -11 6)
1969/12/31/18:00:17.325,(11 4 -7 -5 -8 -2 4 8)
1969/12/31/18:00:17.341,(-16 -20 1 -6 -12 -5 -7 -12)
1969/12/31/18:00:17.341,(-2 -2 -17 -77 -18 -4 3 4)
1969/12/31/18:00:17.343,(9 10 11 63 13 3 8 8)
1969/12/31/18:00:17.343,(3 12 14 37 27 8 1 -2)
1969/12/31/18:00:17.353,(-2 -10 -1 18 8 1 -3 -3)
1969/12/31/18:00:17.353,(0 -6 -12 -57 -19 0 5 8)
1969/12/31/18:00:17.360,(-3 -4 -11 -20 -18 -12 -6 -5)
1969/12/31/18:00:17.360,(5 10 13 39 4 -2 -3 -1)
1969/12/31/18:00:17.372,(-9 -17 17 43 30 12 10 5)
1969/12/31/18:00:17.372,(48 61 11 24 15 14 19 27)
1969/12/31/18:00:17.374,(6 -7 -9 -45 -12 -9 -16 -8)
1969/12/31/18:00:17.374,(-22 -17 -19 -35 -31 -15 -15 -20)
1969/12/31/18:00:17.391,(-25 -24 -8 -6 -8 -5 -1 -8)
1969/12/31/18:00:17.391,(39 21 11 21 10 3 9 29)
1969/12/31/18:00:17.392,(3 -11 1 -6 6 6 3 0)
1969/12/31/18:00:17.392,(10 13 0 -4 -2 1 5 4)
1969/12/31/18:00:17.402,(10 2 -7 -12 -11 -10 -10 -2)
1969/12/31/18:00:17.402,(-40 -38 1 22 3 -3 -6 -21)
1969/12/31/18:00:17.409,(-4 10 5 1 0 -3 1 1)
1969/12/31/18:00:17.409,(22 11 0 -11 5 8 8 17)
1969/12/31/18:00:17.421,(-3 3 -9 -26 -15 -5 -2 -3)
1969/12/31/18:00:17.421,(-23 -18 -2 27 -18 -13 -13 -19)
1969/12/31/18:00:17.423,(-4 0 3 3 0 -4 0 0)
1969/12/31/18:00:17.423,(-10 -8 2 -7 20 3 -4 -7)
1969/12/31/18:00:17.439,(21 28 9 33 25 17 8 9)
1969/12/31/18:00:17.439,(10 -4 4 22 26 16 7 8)
1969/12/31/18:00:17.441,(1 19 -4 -17 -11 1 5 4)
1969/12/31/18:00:17.441,(-11 -12 -10 -23 -21 -9 -4 -5)
1969/12/31/18:00:17.451,(-7 -5 -7 -12 -15 -14 -8 -5)
1969/12/31/18:00:17.451,(1 -2 1 2 -2 -6 -7 -4)
1969/12/31/18:00:17.458,(-6 -8 -1 -4 0 4 7 6)
1969/12/31/18:00:17.458,(8 11 -1 -6 -9 -2 -4 -1)
1969/12/31/18:00:17.470,(-12 -14 -9 -4 -5 -5 -5 -11)
1969/12/31/18:00:17.470,(26 38 9 3 1 3 5 17)
1969/12/31/18:00:17.475,(-23 -20 -3 6 2 -9 -22 -26)
1969/12/31/18:00:17.475,(0 -1 -16 -76 -27 -6 -2 2)
1969/12/31/18:00:17.488,(10 -1 -7 13 -26 -8 -5 0)
1969/12/31/18:00:17.488,(-8 -10 22 101 49 5 0 -1)
1969/12/31/18:00:17.490,(-3 0 17 43 36 13 6 4)
1969/12/31/18:00:17.490,(8 9 8 27 3 0 5 7)
1969/12/31/18:00:17.500,(-15 -9 -9 -35 -4 -1 -6 -9)
1969/12/31/18:00:17.500,(-10 -12 -16 -54 -19 -2 -2 -4)
1969/12/31/18:00:17.507,(14 12 1 -2 1 10 13 12)
1969/12/31/18:00:17.507,(-5 -7 -2 -2 -2 -3 -5 -5)
1969/12/31/18:00:17.518,(8 0 -7 -14 -12 -8 2 8)
1969/12/31/18:00:17.519,(-16 -6 -5 -2 -8 -8 -9 -12)
1969/12/31/18:00:17.525,(-12 -9 -3 -13 -4 1 3 2)
1969/12/31/18:00:17.525,(38 36 11 7 7 13 15 18)
1969/12/31/18:00:17.538,(-13 -10 8 21 14 4 -3 -14)
1969/12/31/18:00:17.538,(-60 -71 4 6 6 4 2 -3)
1969/12/31/18:00:17.539,(73 53 -7 -17 -6 -2 5 25)
1969/12/31/18:00:17.539,(-20 -13 -7 -1 -10 -12 -15 -15)
1969/12/31/18:00:17.556,(15 22 11 13 9 9 12 11)
1969/12/31/18:00:17.556,(-17 -21 -8 -11 -4 -6 -8 -14)
1969/12/31/18:00:17.557,(-4 -10 -5 -10 -8 4 10 7)
1969/12/31/18:00:17.557,(-5 3 3 14 3 -1 -1 -4)
1969/12/31/18:00:17.567,(6 -3 0 -8 4 -3 -1 6)
1969/12/31/18:00:17.567,(-19 0 -5 -14 -13 -7 -9 -20)
1969/12/31/18:00:17.573,(-11 -16 -6 5 5 1 -1 -5)
1969/12/31/18:00:17.573,(4 -4 1 11 8 5 7 12)
1969/12/31/18:00:17.587,(1 22 2 -4 -5 -3 -9 -9)
1969/12/31/18:00:17.587,(-2 2 -4 -17 -3 2 8 3)
1969/12/31/18:00:17.587,(-22 -15 -4 -3 -11 -12 -15 -20)
1969/12/31/18:00:17.587,(-15 -18 -2 11 6 -3 -4 -12)
1969/12/31/18:00:17.605,(-27 -41 -10 -11 -9 -7 -5 0)
1969/12/31/18:00:17.605,(28 21 3 9 7 6 1 5)
1969/12/31/18:00:17.606,(4 -2 -1 -7 -4 0 2 2)
1969/12/31/18:00:17.606,(-12 -15 -12 -23 -9 -2 1 0)
1969/12/31/18:00:17.616,(-6 -5 -4 -2 -6 -6 -1 -1)
1969/12/31/18:00:17.616,(18 17 0 -19 -10 -1 0 1)
1969/12/31/18:00:17.622,(-6 -8 4 17 6 1 0 3)
1969/12/31/18:00:17.622,(1 2 10 40 13 4 1 -1)
1969/12/31/18:00:17.635,(21 16 9 20 28 14 11 12)
1969/12/31/18:00:17.635,(3 2 -8 -23 -6 -4 -3 -2)
1969/12/31/18:00:17.636,(-12 -5 -11 -48 -31 -9 -5 -10)
1969/12/31/18:00:17.636,(0 2 0 1 -4 -4 -2 1)
1969/12/31/18:00:17.653,(13 14 8 -14 -2 3 3 2)
1969/12/31/18:00:17.653,(-3 -1 14 51 18 10 4 -1)
1969/12/31/18:00:17.655,(-1 -4 -6 24 25 2 -2 4)
1969/12/31/18:00:17.655,(4 6 10 8 2 -3 -4 0)
1969/12/31/18:00:17.665,(-3 -2 -2 -2 -1 2 3 1)
1969/12/31/18:00:17.665,(0 -9 -21 -33 -13 -5 -6 -6)
1969/12/31/18:00:17.672,(-1 -2 -9 -25 -20 -3 3 1)
1969/12/31/18:00:17.672,(5 2 -15 -7 -23 -17 -6 0)
1969/12/31/18:00:17.684,(3 9 17 -3 -10 8 6 1)
1969/12/31/18:00:17.684,(6 7 -4 18 22 10 0 3)
1969/12/31/18:00:17.685,(2 -4 -4 6 27 1 -4 -3)
1969/12/31/18:00:17.685,(-11 -7 11 -20 2 9 3 -4)
1969/12/31/18:00:17.702,(6 8 -1 -4 -24 -9 -1 2)
1969/12/31/18:00:17.702,(5 2 4 20 -2 6 6 2)
1969/12/31/18:00:17.704,(-5 -3 2 60 36 9 0 -3)
