time,.data
1969/12/31/18:00:03.703,(1 -1 -1 1 -2 0 -1 0)
1969/12/31/18:00:03.703,(0 -1 -3 -1 -3 -1 -3 -1)
1969/12/31/18:00:03.704,(-1 -2 -2 0 -1 0 0 -1)
1969/12/31/18:00:03.704,(-1 -2 1 -1 -2 -1 -1 -2)
1969/12/31/18:00:03.726,(-1 0 0 -2 -1 -1 -2 0)
1969/12/31/18:00:03.726,(0 2 1 -1 -2 -3 0 -1)
1969/12/31/18:00:03.727,(-1 -2 -1 -2 -2 -3 -3 -1)
1969/12/31/18:00:03.727,(3 0 -3 1 2 2 4 4)
1969/12/31/18:00:03.740,(-2 -1 1 0 0 1 -1 -1)
1969/12/31/18:00:03.740,(-2 -5 -4 -3 0 0 1 -2)
1969/12/31/18:00:03.741,(5 5 7 9 1 0 -1 2)
1969/12/31/18:00:03.741,(-9 -5 -8 -5 -3 -5 -7 -10)
1969/12/31/18:00:03.763,(7 -2 -6 -2 3 -3 3 9)
1969/12/31/18:00:03.763,(-4 1 3 -3 -1 -1 -1 -2)
1969/12/31/18:00:03.764,(-3 -4 -5 -9 -5 0 1 -3)
1969/12/31/18:00:03.764,(-1 2 0 -6 -2 2 0 -1)
1969/12/31/18:00:03.786,(-1 -3 -5 -6 -1 -1 -1 -1)
1969/12/31/18:00:03.786,(-1 2 6 16 9 1 -2 -2)
1969/12/31/18:00:03.787,(-1 2 7 9 5 -1 0 1)
1969/12/31/18:00:03.787,(-1 -8 -13 12 3 -2 -4 0)
1969/12/31/18:00:03.801,(-4 -1 -7 -49 -46 -5 0 -4)
1969/12/31/18:00:03.801,(5 -1 -18 -28 20 2 5 7)
1969/12/31/18:00:03.801,(-5 -5 21 59 18 -1 -8 -9)
1969/12/31/18:00:03.801,(-4 2 3 -47 -10 0 0 -1)
1969/12/31/18:00:03.823,(5 5 16 31 6 -3 0 5)
1969/12/31/18:00:03.823,(1 -6 -33 34 6 10 7 3)
1969/12/31/18:00:03.824,(5 1 -4 -6 16 9 8 6)
1969/12/31/18:00:03.824,(-7 -3 15 17 1 -10 -12 -8)
1969/12/31/18:00:03.846,(-2 1 14 0 -4 1 -1 -2)
1969/12/31/18:00:03.846,(-9 -3 -8 -27 -33 -15 -9 -7)
1969/12/31/18:00:03.847,(1 -2 -20 -29 -2 -2 3 2)
1969/12/31/18:00:03.847,(8 4 -8 -12 -20 2 6 8)
1969/12/31/18:00:03.861,(-4 -2 -30 -71 1 -2 -3 -5)
1969/12/31/18:00:03.861,(6 -3 23 112 43 8 1 4)
1969/12/31/18:00:03.862,(-9 2 25 -6 28 5 -2 -7)
1969/12/31/18:00:03.862,(-1 1 -11 -19 -23 -5 -2 -2)
1969/12/31/18:00:03.883,(2 -3 -6 -31 -26 1 3 4)
1969/12/31/18:00:03.883,(2 3 -4 -15 -1 2 0 1)
1969/12/31/18:00:03.884,(5 4 18 88 24 5 1 3)
1969/12/31/18:00:03.884,(-3 10 32 -65 -8 -3 -1 -2)
1969/12/31/18:00:03.906,(7 0 -18 63 5 -1 0 3)
1969/12/31/18:00:03.906,(-4 -9 -3 -62 -30 -3 2 0)
1969/12/31/18:00:03.907,(9 15 -23 -68 -32 -6 0 3)
1969/12/31/18:00:03.907,(4 -12 6 68 -11 3 2 4)
1969/12/31/18:00:03.920,(-14 8 44 44 67 7 -2 -8)
1969/12/31/18:00:03.920,(8 15 11 34 27 13 6 3)
1969/12/31/18:00:03.921,(-7 -13 -23 -47 -10 -3 -4 -5)
1969/12/31/18:00:03.921,(4 6 -10 -24 -2 1 4 1)
1969/12/31/18:00:03.967,(-3 -15 -33 -15 -54 -17 -9 -5)
1969/12/31/18:00:03.967,(-8 -12 9 -23 3 -7 -3 -3)
1969/12/31/18:00:03.967,(-4 3 9 46 4 0 4 1)
1969/12/31/18:00:03.967,(-6 -16 -33 -68 -17 -4 -6 -6)
1969/12/31/18:00:03.974,(-1 7 22 2 11 5 2 -1)
1969/12/31/18:00:03.974,(2 8 14 38 -18 -1 2 0)
1969/12/31/18:00:03.975,(9 10 22 57 64 19 9 6)
1969/12/31/18:00:03.975,(4 0 0 39 32 1 1 2)
1969/12/31/18:00:03.981,(-9 -11 -17 -57 -2 -4 -3 -7)
1969/12/31/18:00:03.981,(3 1 -1 -32 -59 -16 -3 4)
1969/12/31/18:00:03.981,(-10 -14 -5 -24 -31 -15 -7 -8)
1969/12/31/18:00:03.981,(8 18 9 57 26 9 7 4)
1969/12/31/18:00:04.003,(1 -13 -26 -62 -23 -12 -8 -1)
1969/12/31/18:00:04.003,(-5 -1 -9 -32 -26 -8 -4 -4)
1969/12/31/18:00:04.004,(-1 -1 26 86 64 11 -3 -2)
1969/12/31/18:00:04.004,(-10 -5 3 -59 -6 1 0 -4)
1969/12/31/18:00:04.026,(7 8 -3 80 25 13 8 5)
1969/12/31/18:00:04.026,(3 7 4 -45 -6 -5 -4 -1)
1969/12/31/18:00:04.027,(0 -6 -16 -51 -49 -11 -3 -1)
1969/12/31/18:00:04.027,(4 6 7 13 26 12 5 4)
1969/12/31/18:00:04.040,(-4 0 13 41 21 2 -1 -3)
1969/12/31/18:00:04.040,(2 0 -6 -20 -1 -4 -4 0)
1969/12/31/18:00:04.041,(0 3 -2 -21 -23 -9 -3 -2)
1969/12/31/18:00:04.041,(-2 -7 -5 15 -5 -3 -3 -3)
1969/12/31/18:00:04.063,(0 2 7 -7 -9 3 1 2)
1969/12/31/18:00:04.063,(-3 -2 -8 5 28 10 2 2)
1969/12/31/18:00:04.064,(-1 -7 -25 -44 -30 -6 -2 2)
1969/12/31/18:00:04.064,(-1 0 0 4 -4 -7 0 -1)
1969/12/31/18:00:04.094,(2 -1 0 11 10 1 2 1)
1969/12/31/18:00:04.094,(-5 -5 4 -12 -9 -6 -2 -3)
1969/12/31/18:00:04.094,(2 2 6 -36 7 4 1 0)
1969/12/31/18:00:04.094,(-1 -1 12 68 22 3 0 1)
1969/12/31/18:00:04.101,(2 2 0 6 9 4 3 1)
1969/12/31/18:00:04.101,(-3 -5 -2 9 -1 -1 -4 -5)
1969/12/31/18:00:04.102,(1 -1 -10 -31 -23 -5 2 2)
1969/12/31/18:00:04.102,(2 -1 -3 -17 -2 -2 -2 0)
1969/12/31/18:00:04.123,(1 0 6 12 -1 0 -3 -1)
1969/12/31/18:00:04.123,(0 0 1 6 8 0 0 -2)
1969/12/31/18:00:04.124,(-3 0 -2 11 -7 -1 -2 -1)
1969/12/31/18:00:04.124,(0 -1 -4 -7 -1 1 1 2)
1969/12/31/18:00:04.146,(0 -1 0 -2 -5 -1 1 2)
1969/12/31/18:00:04.146,(-2 -4 2 6 5 1 2 0)
1969/12/31/18:00:04.147,(-5 0 -4 -2 -5 -1 -3 -4)
1969/12/31/18:00:04.147,(10 3 -1 3 -1 2 3 2)
1969/12/31/18:00:04.169,(-9 -5 0 -9 -6 -8 -10 -12)
1969/12/31/18:00:04.169,(9 5 1 14 12 2 1 2)
1969/12/31/18:00:04.170,(10 -1 -12 -19 -9 1 8 13)
1969/12/31/18:00:04.170,(-9 -2 2 4 1 -1 -3 -3)
1969/12/31/18:00:04.183,(-7 0 6 7 4 4 -2 -7)
1969/12/31/18:00:04.183,(-3 -4 -3 -5 -1 2 -1 -1)
1969/12/31/18:00:04.184,(3 7 4 2 -2 3 0 -2)
1969/12/31/18:00:04.184,(15 7 3 -3 -4 0 2 10)
1969/12/31/18:00:04.206,(-13 -1 1 -5 3 8 0 0)
1969/12/31/18:00:04.206,(12 5 4 -5 6 9 2 2)
1969/12/31/18:00:04.207,(5 2 0 -6 -5 2 3 1)
1969/12/31/18:00:04.207,(-10 -12 -5 4 0 -9 -2 -8)
1969/12/31/18:00:04.229,(0 -1 -2 1 0 -9 0 1)
1969/12/31/18:00:04.229,(-15 -8 -2 4 -1 -10 -3 -5)
1969/12/31/18:00:04.229,(-1 -5 -4 2 -5 -4 -2 -1)
1969/12/31/18:00:04.229,(1 3 -2 -1 -1 -2 -4 -2)
1969/12/31/18:00:04.243,(-2 -2 -3 -5 -3 1 5 8)
1969/12/31/18:00:04.243,(0 4 3 2 2 2 4 6)
1969/12/31/18:00:04.244,(15 -1 5 8 3 6 -1 -6)
1969/12/31/18:00:04.244,(-46 -12 -6 -3 -7 -9 -22 -34)
1969/12/31/18:00:04.282,(19 7 2 -4 2 2 2 6)
1969/12/31/18:00:04.282,(4 4 -4 0 0 2 2 5)
1969/12/31/18:00:04.283,(-2 -3 -7 -18 -7 -4 3 8)
1969/12/31/18:00:04.283,(8 2 5 13 5 7 6 10)
1969/12/31/18:00:04.285,(-1 2 -2 -31 -22 -8 -4 -3)
1969/12/31/18:00:04.285,(-8 -11 -25 -73 -32 -11 -6 -3)
1969/12/31/18:00:04.288,(-5 2 13 61 30 4 2 -1)
1969/12/31/18:00:04.288,(8 7 26 88 52 13 5 5)
1969/12/31/18:00:04.303,(-1 0 6 15 19 7 2 -3)
1969/12/31/18:00:04.303,(1 0 0 -7 -10 -3 -1 -3)
1969/12/31/18:00:04.304,(-8 -4 -19 -60 -36 -9 -4 -4)
1969/12/31/18:00:04.304,(6 -3 -14 -43 -27 -8 3 11)
1969/12/31/18:00:04.326,(-2 4 9 10 5 1 -4 -6)
1969/12/31/18:00:04.326,(2 -3 -1 0 -1 -3 -4 -4)
1969/12/31/18:00:04.327,(-4 5 5 3 2 -1 -4 -7)
1969/12/31/18:00:04.327,(-11 -3 -5 -8 -4 -1 1 -1)
1969/12/31/18:00:04.340,(23 -7 -10 -7 -6 -7 -7 -2)
1969/12/31/18:00:04.340,(-35 -6 9 17 12 5 -3 -14)
1969/12/31/18:00:04.348,(11 4 1 2 2 0 1 3)
1969/12/31/18:00:04.348,(-1 -5 -4 -10 -7 -3 0 1)
1969/12/31/18:00:04.371,(22 14 -1 -4 1 7 10 15)
1969/12/31/18:00:04.371,(4 -2 -18 -44 -14 -2 6 7)
1969/12/31/18:00:04.372,(-6 -9 9 55 19 -1 -2 -3)
1969/12/31/18:00:04.372,(3 3 1 1 0 0 -3 -5)
1969/12/31/18:00:04.386,(-4 2 9 32 12 3 4 7)
1969/12/31/18:00:04.386,(-9 8 21 29 11 0 -7 -14)
1969/12/31/18:00:04.387,(-18 -18 -10 -32 -12 2 -2 -8)
1969/12/31/18:00:04.387,(37 24 -1 -19 -3 1 8 15)
1969/12/31/18:00:04.400,(0 -10 -14 -28 -18 -15 -12 -4)
1969/12/31/18:00:04.400,(11 -4 -11 -9 -5 -4 -5 5)
1969/12/31/18:00:04.408,(-15 -1 0 3 -3 -1 -3 -7)
1969/12/31/18:00:04.408,(-54 -13 5 8 3 4 3 -4)
1969/12/31/18:00:04.423,(36 4 1 -2 -1 4 0 -2)
1969/12/31/18:00:04.423,(-3 2 2 4 5 1 3 4)
1969/12/31/18:00:04.424,(-2 -2 1 0 -3 -6 -4 1)
1969/12/31/18:00:04.424,(28 14 -4 -15 -2 4 4 7)
1969/12/31/18:00:04.446,(-26 -4 -1 6 3 2 2 2)
1969/12/31/18:00:04.446,(-15 -7 3 16 6 2 -1 -11)
1969/12/31/18:00:04.447,(-8 3 -6 -14 -5 -6 -5 -3)
1969/12/31/18:00:04.447,(65 15 6 5 6 14 21 27)
1969/12/31/18:00:04.460,(-57 -18 -2 -24 -8 -7 -15 -25)
1969/12/31/18:00:04.460,(49 11 -1 15 2 0 6 14)
1969/12/31/18:00:04.468,(-3 6 7 19 13 5 7 10)
1969/12/31/18:00:04.468,(-16 -5 -10 -25 -13 -10 -13 -16)
1969/12/31/18:00:04.483,(10 0 -31 -71 -10 0 4 6)
1969/12/31/18:00:04.483,(-2 5 33 80 14 4 1 3)
1969/12/31/18:00:04.484,(-8 1 25 73 32 4 -4 -9)
1969/12/31/18:00:04.484,(-8 -9 -6 -26 -7 -2 -4 -4)
1969/12/31/18:00:04.507,(5 3 3 30 6 5 5 4)
1969/12/31/18:00:04.507,(-15 -9 -19 -47 -14 -6 -4 -9)
1969/12/31/18:00:04.507,(10 1 -11 -36 -19 -4 0 1)
1969/12/31/18:00:04.507,(1 -4 0 4 1 -6 -4 1)
1969/12/31/18:00:04.530,(-24 -5 1 -4 -2 -1 -1 -7)
1969/12/31/18:00:04.530,(29 12 -1 -6 4 1 5 9)
1969/12/31/18:00:04.532,(-6 -4 -3 -5 -7 -4 -5 -8)
1969/12/31/18:00:04.532,(-24 -10 -6 -7 -8 -11 -11 -13)
1969/12/31/18:00:04.543,(17 -1 4 8 -1 5 11 15)
1969/12/31/18:00:04.543,(14 14 8 15 5 7 10 11)
1969/12/31/18:00:04.544,(12 4 -7 -2 4 -4 -2 3)
1969/12/31/18:00:04.544,(-35 -25 -9 -11 -5 -5 -8 -15)
1969/12/31/18:00:04.566,(18 7 12 50 6 -6 -7 -1)
1969/12/31/18:00:04.566,(-19 -4 -6 -18 5 2 0 0)
1969/12/31/18:00:04.567,(34 4 -29 -63 -22 0 7 12)
1969/12/31/18:00:04.567,(-10 -1 11 -15 -20 -1 2 -1)
1969/12/31/18:00:04.589,(-3 4 20 48 28 3 -2 -4)
1969/12/31/18:00:04.589,(-6 -4 15 69 14 3 -2 -5)
1969/12/31/18:00:04.590,(-12 -3 3 -3 6 -1 -3 -2)
1969/12/31/18:00:04.590,(-25 -18 -12 -11 -6 -5 -2 -4)
1969/12/31/18:00:04.602,(46 22 -10 -44 -17 0 0 0)
1969/12/31/18:00:04.602,(-7 -2 -12 -40 -12 -6 -5 -1)
1969/12/31/18:00:04.611,(-9 -5 2 4 -1 0 -2 -4)
1969/12/31/18:00:04.611,(10 8 4 14 3 0 -2 0)
1969/12/31/18:00:04.626,(-18 -16 -1 -1 -2 -1 1 4)
1969/12/31/18:00:04.626,(-31 -15 -3 2 3 -2 -1 -10)
1969/12/31/18:00:04.628,(33 10 -6 -45 -23 -6 -7 1)
1969/12/31/18:00:04.628,(-17 -12 -7 32 17 1 -5 -10)
1969/12/31/18:00:04.649,(-23 -3 7 12 -1 4 6 2)
1969/12/31/18:00:04.649,(32 11 1 -3 -6 -8 -6 0)
1969/12/31/18:00:04.651,(-22 -13 -9 -12 -6 -1 0 -6)
1969/12/31/18:00:04.651,(23 16 7 20 11 5 5 10)
1969/12/31/18:00:04.662,(-12 -6 4 15 11 -3 -4 -11)
1969/12/31/18:00:04.662,(-2 -4 -4 -19 -8 3 4 4)
1969/12/31/18:00:04.671,(-16 -6 3 12 -5 0 0 -6)
1969/12/31/18:00:04.671,(14 3 -16 -19 -1 -4 -4 -1)
1969/12/31/18:00:04.686,(3 7 19 37 0 2 4 7)
1969/12/31/18:00:04.686,(-9 -4 5 8 7 -2 -5 -6)
1969/12/31/18:00:04.688,(1 3 1 9 8 5 3 3)
1969/12/31/18:00:04.688,(8 0 -15 -51 -19 -3 2 5)
1969/12/31/18:00:04.709,(-6 -6 -12 -2 -7 -4 0 -1)
1969/12/31/18:00:04.709,(-3 -3 12 23 5 0 -5 -8)
1969/12/31/18:00:04.711,(4 2 7 26 17 8 5 8)
1969/12/31/18:00:04.711,(-3 -3 4 3 4 0 1 2)
1969/12/31/18:00:04.723,(6 4 -5 -29 -7 2 1 -1)
1969/12/31/18:00:04.723,(3 -7 -10 -27 -12 -5 2 5)
1969/12/31/18:00:04.731,(-22 -16 -11 9 -7 -14 -15 -13)
1969/12/31/18:00:04.731,(45 43 29 23 17 23 23 15)
1969/12/31/18:00:04.746,(-13 -10 -17 -38 -13 -9 -11 -11)
1969/12/31/18:00:04.746,(0 1 -10 -18 -1 3 7 6)
1969/12/31/18:00:04.748,(-8 -8 -15 -65 -35 -11 -4 -3)
1969/12/31/18:00:04.748,(-6 -3 26 87 26 3 -1 4)
1969/12/31/18:00:04.769,(21 20 25 60 37 10 2 4)
1969/12/31/18:00:04.769,(-3 1 6 16 17 6 -3 -8)
1969/12/31/18:00:04.770,(8 1 -27 -87 -24 1 7 8)
1969/12/31/18:00:04.770,(-13 -12 -7 5 -2 -9 -12 -11)
1969/12/31/18:00:04.782,(2 3 -6 -46 -39 -2 5 6)
1969/12/31/18:00:04.782,(2 -2 -12 -28 -8 -5 1 7)
1969/12/31/18:00:04.791,(11 10 16 74 34 8 4 3)
1969/12/31/18:00:04.791,(-12 -10 -6 -15 -3 -4 -5 -8)
1969/12/31/18:00:04.806,(-16 -7 8 36 9 -3 -7 -10)
1969/12/31/18:00:04.806,(4 3 9 31 8 4 2 1)
1969/12/31/18:00:04.808,(3 1 4 5 10 5 4 6)
1969/12/31/18:00:04.808,(-14 -6 -3 -6 1 -1 -8 -15)
1969/12/31/18:00:04.829,(-10 -13 -17 -45 -18 -7 -1 5)
1969/12/31/18:00:04.829,(8 13 -2 -27 -14 6 6 -3)
1969/12/31/18:00:04.830,(2 2 6 20 3 -1 1 4)
1969/12/31/18:00:04.830,(3 -3 -4 -17 -9 -3 -2 3)
1969/12/31/18:00:04.842,(-8 -3 -11 -5 -5 -4 -3 -7)
1969/12/31/18:00:04.843,(-4 -7 -9 -26 -5 -3 -4 0)
1969/12/31/18:00:04.851,(0 1 13 59 10 3 0 -4)
1969/12/31/18:00:04.851,(10 7 3 -11 -4 -1 1 5)
1969/12/31/18:00:04.866,(0 1 2 3 4 1 3 1)
1969/12/31/18:00:04.866,(-3 -1 2 -4 5 2 3 1)
1969/12/31/18:00:04.868,(0 -2 -21 -55 -11 0 3 1)
1969/12/31/18:00:04.868,(-5 -4 7 28 -7 -2 2 3)
1969/12/31/18:00:04.889,(19 9 12 35 14 -3 -7 -6)
1969/12/31/18:00:04.889,(-8 -2 -1 1 -8 -13 -15 -12)
1969/12/31/18:00:04.890,(-70 -35 1 -3 -4 -7 -11 -26)
1969/12/31/18:00:04.890,(52 20 -9 -14 -2 3 7 15)
1969/12/31/18:00:04.903,(21 5 -11 -51 -5 2 7 15)
1969/12/31/18:00:04.903,(-24 -9 1 41 6 -3 -4 -11)
1969/12/31/18:00:04.910,(0 0 1 -2 -4 -3 -5 -4)
1969/12/31/18:00:04.910,(-12 -15 -13 -13 -10 -12 -9 -1)
1969/12/31/18:00:04.934,(-10 7 12 5 6 5 -3 -14)
1969/12/31/18:00:04.934,(-19 -19 -22 -35 -4 -4 -2 3)
1969/12/31/18:00:04.935,(61 36 21 54 8 7 11 13)
1969/12/31/18:00:04.935,(-11 4 11 10 3 -4 -9 -8)
1969/12/31/18:00:04.949,(0 -14 -5 9 9 5 2 1)
1969/12/31/18:00:04.949,(-15 4 0 -8 -7 -4 -1 -1)
1969/12/31/18:00:04.950,(8 7 10 4 5 3 8 7)
1969/12/31/18:00:04.950,(-56 -39 -10 -10 -9 -4 -3 -9)
1969/12/31/18:00:04.962,(-2 -6 -8 -27 -4 7 6 8)
1969/12/31/18:00:04.962,(58 15 -4 9 -1 -5 -4 2)
1969/12/31/18:00:04.971,(-67 -32 3 -28 0 4 1 -8)
1969/12/31/18:00:04.971,(81 45 -1 33 4 2 5 9)
1969/12/31/18:00:04.986,(-36 -9 1 -6 -4 -4 -1 -7)
1969/12/31/18:00:04.986,(16 -3 -2 -34 -8 0 5 10)
1969/12/31/18:00:04.988,(-6 -5 -4 -22 -18 -10 -9 -9)
1969/12/31/18:00:04.988,(-7 -13 2 31 15 8 5 4)
1969/12/31/18:00:05.016,(28 20 17 19 12 7 10 16)
1969/12/31/18:00:05.016,(2 -2 7 52 6 -1 -3 -3)
1969/12/31/18:00:05.018,(18 15 9 19 18 2 0 -1)
1969/12/31/18:00:05.018,(-89 -41 -20 -41 -20 -14 -14 -19)
1969/12/31/18:00:05.022,(30 22 3 0 2 9 5 -6)
1969/12/31/18:00:05.022,(-35 -38 -8 -39 -18 -6 -11 -29)
1969/12/31/18:00:05.031,(124 79 8 -11 -1 4 15 57)
1969/12/31/18:00:05.031,(-81 -83 -16 -6 -8 -23 -37 -45)
1969/12/31/18:00:05.046,(38 69 1 1 -4 -3 0 9)
1969/12/31/18:00:05.046,(-10 -15 -2 -4 -3 -3 -3 3)
1969/12/31/18:00:05.048,(-39 -35 -11 -21 -3 4 -3 -18)
1969/12/31/18:00:05.048,(74 53 16 9 16 15 24 40)
1969/12/31/18:00:05.069,(-60 -60 -26 -34 -23 -8 -7 -10)
1969/12/31/18:00:05.069,(-3 16 30 73 23 13 10 2)
1969/12/31/18:00:05.070,(0 9 22 62 13 -5 -7 -6)
1969/12/31/18:00:05.070,(9 9 1 -44 -16 2 7 6)
1969/12/31/18:00:05.082,(3 -2 5 22 -3 -14 -16 -16)
1969/12/31/18:00:05.082,(8 5 -11 7 19 16 17 17)
1969/12/31/18:00:05.091,(-18 -23 -11 -4 -5 0 3 9)
1969/12/31/18:00:05.091,(18 16 -10 -30 0 12 7 -14)
1969/12/31/18:00:05.106,(-47 -44 4 5 -1 -12 -18 -19)
1969/12/31/18:00:05.106,(71 85 10 -11 -8 1 4 14)
1969/12/31/18:00:05.108,(-86 -39 -12 -11 -8 -13 -23 -49)
1969/12/31/18:00:05.108,(74 40 4 0 7 11 22 44)
1969/12/31/18:00:05.129,(-30 -35 -16 -3 -1 1 3 -7)
1969/12/31/18:00:05.129,(-28 -25 3 0 -4 -5 -7 -3)
1969/12/31/18:00:05.131,(11 12 -3 -13 2 8 12 12)
1969/12/31/18:00:05.131,(-11 6 1 30 4 -1 0 -6)
1969/12/31/18:00:05.151,(10 5 10 24 10 6 9 7)
1969/12/31/18:00:05.151,(-2 -6 -3 -17 -6 -5 -2 2)
1969/12/31/18:00:05.153,(10 6 -2 -5 -2 -1 -1 -3)
1969/12/31/18:00:05.153,(-3 -9 9 16 1 -2 -4 1)
1969/12/31/18:00:05.166,(21 15 -6 -23 -7 1 8 16)
1969/12/31/18:00:05.166,(-37 -26 -1 6 9 -2 -6 -10)
1969/12/31/18:00:05.168,(-4 15 21 52 9 9 4 -7)
1969/12/31/18:00:05.168,(12 -5 13 15 1 -1 1 7)
1969/12/31/18:00:05.189,(22 24 -17 -17 1 2 -1 -6)
1969/12/31/18:00:05.189,(26 13 1 -16 -4 1 1 8)
1969/12/31/18:00:05.191,(-16 -25 -16 -24 -13 -10 -11 -8)
1969/12/31/18:00:05.191,(-11 1 1 -10 3 3 3 -1)
1969/12/31/18:00:05.202,(-12 -13 -2 6 -1 -2 -1 0)
1969/12/31/18:00:05.202,(-22 -6 -5 -7 -2 7 9 -6)
1969/12/31/18:00:05.211,(56 27 8 7 9 4 8 30)
1969/12/31/18:00:05.211,(-35 -7 1 -7 -9 -8 -13 -26)
1969/12/31/18:00:05.225,(-4 -2 -4 7 0 -1 6 12)
1969/12/31/18:00:05.225,(-28 -16 -1 16 0 -1 -2 -4)
1969/12/31/18:00:05.232,(6 -20 -7 -4 0 1 4 5)
1969/12/31/18:00:05.232,(18 18 -4 1 7 0 -2 -3)
1969/12/31/18:00:05.248,(12 -3 2 -7 -7 -4 2 12)
1969/12/31/18:00:05.248,(-85 -82 -16 -14 -6 -6 -4 -18)
1969/12/31/18:00:05.250,(116 103 6 -5 -4 -1 9 36)
1969/12/31/18:00:05.250,(34 5 5 5 6 4 0 7)
1969/12/31/18:00:05.262,(-33 -25 -2 3 -1 -6 -8 -12)
1969/12/31/18:00:05.262,(45 36 8 11 1 0 -2 -4)
1969/12/31/18:00:05.271,(-34 -32 -22 -69 -17 7 10 5)
1969/12/31/18:00:05.271,(-21 -8 1 18 2 -1 0 -2)
1969/12/31/18:00:05.285,(3 6 12 32 14 -2 -9 -14)
1969/12/31/18:00:05.286,(6 2 2 -4 0 3 2 3)
1969/12/31/18:00:05.292,(-49 -34 -4 14 10 -8 -15 -22)
1969/12/31/18:00:05.292,(51 34 -3 -21 -18 0 6 16)
1969/12/31/18:00:05.309,(-64 -21 3 -3 1 5 -4 -18)
1969/12/31/18:00:05.309,(102 68 7 0 2 9 17 35)
1969/12/31/18:00:05.310,(-47 -33 -7 -8 -5 -16 -25 -37)
1969/12/31/18:00:05.310,(0 7 -14 -28 -11 -9 -6 1)
1969/12/31/18:00:05.322,(-26 -12 0 14 4 0 -5 -15)
1969/12/31/18:00:05.323,(-41 -23 0 8 1 -5 -11 -13)
1969/12/31/18:00:05.331,(2 1 -2 5 -2 -2 -4 -15)
1969/12/31/18:00:05.331,(-28 -19 0 2 -1 -8 -9 -13)
1969/12/31/18:00:05.346,(23 17 1 -14 -9 -5 3 12)
1969/12/31/18:00:05.346,(-30 -21 -9 1 2 -1 -5 -8)
1969/12/31/18:00:05.352,(-4 -5 3 16 5 11 11 10)
1969/12/31/18:00:05.352,(-3 7 4 8 4 6 3 -8)
1969/12/31/18:00:05.369,(31 -7 -3 -10 -7 -8 -6 5)
1969/12/31/18:00:05.369,(4 1 -2 -9 -5 -7 -9 -3)
1969/12/31/18:00:05.370,(-17 -9 -2 -5 -10 -8 -12 -20)
1969/12/31/18:00:05.370,(-36 -28 -11 -5 -1 -7 -4 0)
1969/12/31/18:00:05.382,(22 28 6 10 12 7 -2 -18)
1969/12/31/18:00:05.382,(28 10 6 6 0 2 12 31)
1969/12/31/18:00:05.391,(0 17 2 -1 0 3 5 1)
1969/12/31/18:00:05.391,(-2 -13 -10 -15 -15 -16 -19 -12)
1969/12/31/18:00:05.405,(-8 -8 -13 -23 -8 -4 -4 0)
1969/12/31/18:00:05.405,(-24 -10 -7 8 0 -1 -8 -20)
1969/12/31/18:00:05.412,(22 9 9 12 11 15 18 25)
1969/12/31/18:00:05.412,(-52 -27 15 23 7 1 -7 -21)
1969/12/31/18:00:05.429,(44 24 3 13 13 13 18 36)
1969/12/31/18:00:05.429,(42 12 0 -4 -4 -2 3 14)
1969/12/31/18:00:05.430,(-32 -27 -15 -14 -11 -17 -23 -26)
1969/12/31/18:00:05.431,(-22 -10 -5 -10 -4 -1 -4 -12)
1969/12/31/18:00:05.451,(-28 -14 6 -3 -9 -4 -8 -18)
1969/12/31/18:00:05.451,(-10 -6 1 12 5 -3 3 17)
1969/12/31/18:00:05.453,(26 17 2 6 2 2 -1 -4)
1969/12/31/18:00:05.453,(22 15 8 0 1 3 5 12)
1969/12/31/18:00:05.466,(-32 -2 -2 -3 -5 -4 -6 -14)
1969/12/31/18:00:05.466,(-44 -35 -8 -13 -1 3 3 -11)
1969/12/31/18:00:05.481,(23 18 9 18 14 10 15 8)
1969/12/31/18:00:05.481,(31 33 6 1 6 11 9 10)
1969/12/31/18:00:05.489,(14 -4 -1 -5 -5 -7 -6 3)
1969/12/31/18:00:05.489,(-33 -20 -8 -7 -13 -14 -20 -40)
1969/12/31/18:00:05.490,(51 26 4 18 19 18 30 49)
1969/12/31/18:00:05.490,(-55 -31 -5 2 1 1 -2 -14)
1969/12/31/18:00:05.511,(23 13 0 0 0 3 6 -2)
1969/12/31/18:00:05.511,(26 29 1 -2 -7 -9 -9 1)
1969/12/31/18:00:05.513,(-101 -40 -3 -15 -19 -22 -24 -43)
1969/12/31/18:00:05.513,(50 11 3 -4 9 7 8 13)
1969/12/31/18:00:05.541,(12 1 1 17 15 10 12 11)
1969/12/31/18:00:05.541,(2 3 3 -6 -3 1 -2 -6)
1969/12/31/18:00:05.543,(-22 -30 -14 -16 -10 -8 -9 -6)
1969/12/31/18:00:05.543,(-15 -1 1 8 -9 -7 -5 -10)
1969/12/31/18:00:05.556,(4 13 7 2 -5 -2 -2 3)
1969/12/31/18:00:05.556,(-41 -38 -9 17 11 -3 -7 -17)
1969/12/31/18:00:05.558,(108 76 27 28 26 32 33 52)
1969/12/31/18:00:05.558,(15 20 3 0 0 -3 2 10)
1969/12/31/18:00:05.572,(-5 -15 -15 -17 -11 -4 0 2)
1969/12/31/18:00:05.572,(-21 -13 -11 -17 -13 -8 -13 -19)
1969/12/31/18:00:05.573,(-14 -10 2 -7 -8 -14 -14 -16)
1969/12/31/18:00:05.573,(30 10 -6 0 3 5 16 34)
1969/12/31/18:00:05.585,(48 23 9 1 1 4 4 20)
1969/12/31/18:00:05.585,(-5 5 2 0 0 -4 -6 -13)
1969/12/31/18:00:05.594,(-42 -45 -7 -4 2 4 5 2)
1969/12/31/18:00:05.594,(15 4 -4 -1 5 12 10 4)
1969/12/31/18:00:05.609,(-19 -14 -5 -8 -7 -8 -5 0)
1969/12/31/18:00:05.609,(13 7 7 2 -2 -1 1 7)
1969/12/31/18:00:05.610,(51 24 -1 -5 -3 -1 6 17)
1969/12/31/18:00:05.610,(-49 -37 -7 -13 -2 -2 -4 -16)
1969/12/31/18:00:05.631,(21 16 -2 9 2 -2 -5 -2)
1969/12/31/18:00:05.631,(-17 -12 -4 2 -8 -17 -22 -25)
1969/12/31/18:00:05.633,(18 22 1 -2 3 4 -2 -11)
1969/12/31/18:00:05.633,(-59 -40 -4 1 -3 -5 -6 -12)
1969/12/31/18:00:05.645,(68 48 1 -5 4 7 13 26)
1969/12/31/18:00:05.645,(-3 -9 -12 -21 -9 -4 -3 -4)
1969/12/31/18:00:05.654,(-27 -28 -10 -6 4 -9 -9 -10)
1969/12/31/18:00:05.654,(21 23 12 7 -17 0 2 3)
1969/12/31/18:00:05.669,(-23 -16 -5 -13 11 0 -6 -13)
1969/12/31/18:00:05.669,(21 22 22 41 0 7 10 19)
1969/12/31/18:00:05.670,(5 3 4 -1 7 3 1 5)
1969/12/31/18:00:05.670,(0 -2 1 16 10 3 -4 -5)
1969/12/31/18:00:05.691,(-36 -8 -1 5 -7 -6 0 0)
1969/12/31/18:00:05.691,(13 11 -9 -23 6 2 -7 -7)
1969/12/31/18:00:05.693,(-36 -24 -10 -15 -19 -15 -17 -24)
1969/12/31/18:00:05.693,(-2 -3 -9 -32 -13 -7 -7 -10)
1969/12/31/18:00:05.705,(-28 -24 0 8 -1 -7 -7 -11)
1969/12/31/18:00:05.705,(14 21 6 3 14 20 25 23)
1969/12/31/18:00:05.714,(48 21 9 18 3 12 19 42)
1969/12/31/18:00:05.714,(-15 -14 -10 -18 -9 -8 -11 -15)
1969/12/31/18:00:05.736,(-7 -7 -2 0 0 2 1 0)
1969/12/31/18:00:05.736,(-6 -5 3 14 10 9 9 4)
1969/12/31/18:00:05.738,(19 21 6 -2 -3 2 5 6)
1969/12/31/18:00:05.738,(13 9 -7 -19 4 0 4 6)
1969/12/31/18:00:05.759,(-20 -22 -8 -9 -20 -9 -12 -12)
1969/12/31/18:00:05.759,(15 -7 15 13 0 1 11 28)
1969/12/31/18:00:05.760,(23 12 15 35 17 11 8 -9)
1969/12/31/18:00:05.760,(86 45 19 26 25 17 24 61)
1969/12/31/18:00:05.765,(-40 -15 -5 -9 2 1 -7 -29)
1969/12/31/18:00:05.765,(3 -5 -14 -27 -9 -1 0 0)
1969/12/31/18:00:05.774,(-30 -24 -9 -8 -13 -10 -9 -8)
1969/12/31/18:00:05.774,(0 6 -6 -10 -5 0 4 -2)
1969/12/31/18:00:05.789,(-7 -10 -6 -15 -5 -8 -11 -10)
1969/12/31/18:00:05.789,(17 14 6 27 6 4 6 11)
1969/12/31/18:00:05.790,(-21 -5 1 10 6 0 -2 -5)
1969/12/31/18:00:05.790,(-13 -8 -4 4 -3 -9 -15 -20)
1969/12/31/18:00:05.811,(-4 -6 -4 -13 -13 -12 -7 6)
1969/12/31/18:00:05.811,(2 21 -10 -25 -4 -1 -8 -33)
1969/12/31/18:00:05.813,(-15 -18 -24 -40 -13 -1 -1 0)
1969/12/31/18:00:05.813,(-24 -18 -3 16 -8 -4 -8 -15)
1969/12/31/18:00:05.825,(-2 -4 18 59 20 -1 -4 -5)
1969/12/31/18:00:05.825,(0 4 17 31 5 5 6 9)
1969/12/31/18:00:05.832,(45 27 16 10 15 12 20 35)
1969/12/31/18:00:05.832,(6 -2 -7 -21 -7 -8 -15 -9)
1969/12/31/18:00:05.849,(3 0 -11 -29 -10 4 8 3)
1969/12/31/18:00:05.849,(-10 -11 -4 3 8 0 -3 -6)
1969/12/31/18:00:05.850,(-2 -1 -2 -4 -6 0 0 2)
1969/12/31/18:00:05.850,(38 31 -1 -5 -2 4 15 34)
1969/12/31/18:00:05.871,(9 5 5 -1 1 1 3 -3)
1969/12/31/18:00:05.871,(-10 -10 -7 -22 -13 -14 -17 -13)
1969/12/31/18:00:05.873,(-31 -23 -13 2 -3 -9 -14 -20)
1969/12/31/18:00:05.873,(-17 -8 7 11 3 1 -1 -7)
1969/12/31/18:00:05.885,(12 6 -3 -11 4 3 5 12)
1969/12/31/18:00:05.885,(-18 0 12 27 8 7 6 -2)
1969/12/31/18:00:05.892,(-9 -7 0 -2 -5 -7 -10 -7)
1969/12/31/18:00:05.892,(-40 -20 -3 4 6 4 2 -13)
1969/12/31/18:00:05.909,(36 17 -3 -3 6 2 4 13)
1969/12/31/18:00:05.909,(-2 -7 -9 -43 -33 -10 -4 -1)
1969/12/31/18:00:05.910,(-15 -8 -2 11 7 -5 -7 -13)
1969/12/31/18:00:05.910,(-13 -8 7 30 7 9 7 -3)
1969/12/31/18:00:05.931,(-12 -6 3 8 11 2 -1 -5)
1969/12/31/18:00:05.931,(14 10 -1 -2 8 5 5 13)
1969/12/31/18:00:05.933,(-2 -6 -8 -21 -23 -10 -5 -6)
1969/12/31/18:00:05.933,(-1 -3 -8 -23 -24 -15 -9 -6)
1969/12/31/18:00:05.945,(-8 -6 -1 3 4 1 0 -3)
1969/12/31/18:00:05.945,(-27 -25 2 5 24 10 5 5)
1969/12/31/18:00:05.954,(54 61 24 28 25 35 47 44)
1969/12/31/18:00:05.954,(-37 -10 -2 7 5 -10 -21 -30)
1969/12/31/18:00:05.968,(-19 -3 -5 -9 -23 -5 -2 -6)
1969/12/31/18:00:05.968,(-2 -12 -8 -9 -6 -1 4 0)
1969/12/31/18:00:05.975,(-1 0 7 4 4 3 7 19)
1969/12/31/18:00:05.975,(-10 -5 -4 -24 -9 -16 -14 -15)
1969/12/31/18:00:05.991,(-15 -7 -4 24 33 26 23 6)
1969/12/31/18:00:05.991,(41 19 1 11 12 11 2 15)
1969/12/31/18:00:05.993,(-40 -34 -7 8 3 -19 -40 -44)
1969/12/31/18:00:05.993,(1 12 8 3 -5 8 5 -5)
1969/12/31/18:00:06.005,(14 -5 -10 -32 -58 -35 -11 13)
1969/12/31/18:00:06.005,(9 4 -5 -9 -2 2 15 12)
1969/12/31/18:00:06.014,(-19 -17 -9 -1 11 6 -3 -18)
1969/12/31/18:00:06.014,(-30 -34 -9 8 22 -1 -14 -4)
1969/12/31/18:00:06.035,(-72 -15 0 0 2 -16 -35 -63)
1969/12/31/18:00:06.035,(-5 6 3 5 -10 -3 3 5)
1969/12/31/18:00:06.044,(0 2 -6 -21 -28 -22 -20 -16)
1969/12/31/18:00:06.044,(2 -14 -5 -3 0 4 10 6)
1969/12/31/18:00:06.051,(12 -3 3 2 7 18 19 22)
1969/12/31/18:00:06.051,(15 8 -6 -13 -6 -8 -5 -2)
1969/12/31/18:00:06.053,(-28 -25 -12 6 -6 -6 -9 -17)
1969/12/31/18:00:06.053,(37 29 9 -4 -5 8 16 25)
1969/12/31/18:00:06.065,(9 4 12 35 24 6 -2 5)
1969/12/31/18:00:06.065,(-20 -3 10 27 16 1 -10 -18)
1969/12/31/18:00:06.074,(3 -1 7 4 11 9 12 15)
1969/12/31/18:00:06.074,(17 13 -1 -8 -8 7 12 16)
1969/12/31/18:00:06.089,(35 21 0 -15 -8 1 9 14)
1969/12/31/18:00:06.089,(-7 -16 -16 -28 -9 -6 -4 -3)
1969/12/31/18:00:06.090,(-37 -24 -2 3 -9 -12 -16 -25)
1969/12/31/18:00:06.090,(28 25 10 15 15 17 22 26)
1969/12/31/18:00:06.111,(-11 -13 -2 -5 -8 1 -1 -2)
1969/12/31/18:00:06.111,(16 13 5 10 13 7 8 12)
1969/12/31/18:00:06.113,(-8 -9 -8 -19 -16 -13 -9 -6)
1969/12/31/18:00:06.113,(-9 -6 -2 1 3 0 -1 -5)
1969/12/31/18:00:06.125,(50 24 0 -10 7 4 11 24)
1969/12/31/18:00:06.125,(-13 2 14 27 2 1 -8 -14)
1969/12/31/18:00:06.134,(-45 -29 -5 -4 -11 -8 -12 -22)
1969/12/31/18:00:06.134,(42 30 4 4 17 15 18 21)
1969/12/31/18:00:06.149,(15 -8 -1 -2 -4 -4 -3 9)
1969/12/31/18:00:06.149,(-31 -11 4 9 0 -2 -4 -18)
1969/12/31/18:00:06.150,(3 2 -3 -9 0 0 2 -3)
1969/12/31/18:00:06.150,(-11 -3 -5 -6 -8 -10 -5 -3)
1969/12/31/18:00:06.171,(-30 -20 -6 -6 -5 -2 -5 -14)
1969/12/31/18:00:06.171,(19 5 -11 -18 -3 1 6 13)
1969/12/31/18:00:06.173,(15 5 3 8 2 1 1 7)
1969/12/31/18:00:06.173,(-29 -26 -6 -4 -8 -9 -12 -21)
1969/12/31/18:00:06.185,(63 60 9 6 6 9 14 28)
1969/12/31/18:00:06.185,(-8 -14 -9 -1 -3 -9 -12 -11)
1969/12/31/18:00:06.194,(15 19 3 -9 -2 4 18 27)
1969/12/31/18:00:06.194,(2 -4 -10 -2 -4 -12 -14 -10)
1969/12/31/18:00:06.209,(-40 -20 0 10 6 6 0 -18)
1969/12/31/18:00:06.209,(-24 -13 -2 -5 -3 -1 -4 -13)
1969/12/31/18:00:06.210,(103 58 12 6 13 30 46 93)
1969/12/31/18:00:06.210,(-64 -30 -7 -5 -16 -28 -45 -58)
1969/12/31/18:00:06.231,(-11 -5 1 4 1 -1 0 3)
1969/12/31/18:00:06.231,(-2 -11 -8 -3 0 2 5 7)
1969/12/31/18:00:06.233,(6 3 -1 -3 1 -2 -6 -12)
1969/12/31/18:00:06.233,(17 6 1 3 3 7 11 14)
1969/12/31/18:00:06.245,(-13 -10 0 2 2 -1 -3 -5)
1969/12/31/18:00:06.245,(14 15 2 -6 -9 -10 -8 -4)
1969/12/31/18:00:06.254,(-9 -4 -3 -3 -3 -3 -5 -14)
1969/12/31/18:00:06.254,(11 7 -2 -21 -41 -12 1 6)
1969/12/31/18:00:06.268,(-14 -11 -7 -8 20 0 -2 -11)
1969/12/31/18:00:06.268,(5 3 5 24 37 21 9 11)
1969/12/31/18:00:06.275,(-9 -3 2 17 7 5 -4 -10)
1969/12/31/18:00:06.275,(-9 -7 2 -20 20 7 -1 -3)
1969/12/31/18:00:06.292,(8 4 13 51 -2 -1 2 5)
1969/12/31/18:00:06.292,(2 2 -2 4 -13 -9 -4 0)
1969/12/31/18:00:06.293,(-18 -11 -1 -5 -10 -12 -16 -18)
1969/12/31/18:00:06.293,(6 2 -3 -12 -25 -11 -1 -1)
1969/12/31/18:00:06.314,(-4 -3 -7 -29 -24 -10 -7 -3)
1969/12/31/18:00:06.314,(10 5 -8 -7 22 8 6 10)
1969/12/31/18:00:06.315,(-17 -15 -15 -11 7 -1 -8 -15)
1969/12/31/18:00:06.315,(3 2 6 0 -21 4 5 4)
1969/12/31/18:00:06.328,(2 6 16 17 12 1 -1 2)
1969/12/31/18:00:06.328,(0 -3 -6 -18 -40 -14 -3 2)
1969/12/31/18:00:06.335,(-5 -5 -1 -1 19 -7 -8 -9)
1969/12/31/18:00:06.335,(2 2 8 39 36 18 5 3)
1969/12/31/18:00:06.359,(-1 -5 -9 -4 -2 3 1 1)
1969/12/31/18:00:06.359,(-3 0 -1 -12 -24 -11 -6 -7)
1969/12/31/18:00:06.360,(1 3 -3 -33 -13 -3 2 0)
1969/12/31/18:00:06.360,(5 3 5 27 22 9 8 5)
1969/12/31/18:00:06.365,(-3 -2 7 22 -5 -6 -8 -5)
1969/12/31/18:00:06.365,(0 -1 -1 -8 -5 -9 -3 -1)
1969/12/31/18:00:06.374,(-5 -1 1 -9 -9 -9 -7 -5)
1969/12/31/18:00:06.374,(0 0 -3 1 7 2 4 3)
1969/12/31/18:00:06.388,(1 -4 -11 -21 -1 7 5 3)
1969/12/31/18:00:06.388,(4 3 -2 -1 3 -2 -1 3)
1969/12/31/18:00:06.395,(-7 -3 7 9 -7 -5 -7 -4)
1969/12/31/18:00:06.395,(4 5 -2 -6 -2 -2 0 1)
1969/12/31/18:00:06.411,(-6 -10 -25 -70 -10 -1 -3 -5)
1969/12/31/18:00:06.411,(17 13 15 47 3 10 9 13)
1969/12/31/18:00:06.413,(-2 -2 -7 11 -3 -2 -1 -4)
1969/12/31/18:00:06.413,(-4 -1 6 7 2 -6 -6 -5)
1969/12/31/18:00:06.434,(-8 -10 -12 26 3 -4 -7 -9)
1969/12/31/18:00:06.434,(-7 1 26 38 18 -1 -4 -6)
1969/12/31/18:00:06.435,(-3 2 1 7 -8 5 2 -1)
1969/12/31/18:00:06.435,(0 1 16 19 18 11 4 3)
1969/12/31/18:00:06.448,(1 6 1 -26 -11 -2 1 1)
1969/12/31/18:00:06.448,(-2 -6 -19 -30 -7 -9 -7 -4)
1969/12/31/18:00:06.455,(1 3 4 -27 21 6 3 3)
1969/12/31/18:00:06.455,(5 1 -14 9 -26 -6 -1 3)
1969/12/31/18:00:06.471,(-3 -5 1 -80 -16 -4 -2 -2)
1969/12/31/18:00:06.471,(4 5 4 63 9 5 3 2)
1969/12/31/18:00:06.473,(-2 -4 -9 30 8 1 0 -2)
1969/12/31/18:00:06.473,(-5 -11 -12 -15 9 -3 -5 -4)
1969/12/31/18:00:06.494,(3 14 36 37 4 3 2 0)
1969/12/31/18:00:06.494,(2 -4 -24 -44 -11 -7 -3 0)
1969/12/31/18:00:06.495,(-8 -11 -13 -39 -18 -4 -2 -5)
1969/12/31/18:00:06.495,(3 2 -16 -39 -4 -1 2 4)
1969/12/31/18:00:06.508,(2 -1 20 90 12 -4 0 2)
1969/12/31/18:00:06.508,(-5 10 28 -44 12 19 5 -3)
1969/12/31/18:00:06.516,(14 11 7 81 12 5 5 8)
1969/12/31/18:00:06.516,(-10 -15 -32 -36 -22 -22 -16 -10)
1969/12/31/18:00:06.532,(-3 1 -8 -56 -11 -3 -2 -3)
1969/12/31/18:00:06.532,(1 -1 0 20 0 2 3 1)
1969/12/31/18:00:06.533,(2 7 18 -2 9 7 4 3)
1969/12/31/18:00:06.533,(4 6 16 7 11 16 8 4)
1969/12/31/18:00:06.554,(4 -10 -29 5 1 -2 1 7)
1969/12/31/18:00:06.554,(-11 -8 9 -4 -8 -15 -12 -8)
1969/12/31/18:00:06.555,(-6 -6 -13 -25 -17 -9 -9 -8)
1969/12/31/18:00:06.555,(-2 1 2 11 1 1 3 1)
1969/12/31/18:00:06.567,(3 7 7 15 0 6 2 3)
1969/12/31/18:00:06.567,(8 4 -2 -24 5 4 4 6)
1969/12/31/18:00:06.577,(1 -1 13 -3 -18 1 1 -2)
1969/12/31/18:00:06.577,(2 -8 -6 62 36 -1 -1 1)
1969/12/31/18:00:06.591,(-11 -1 13 26 16 7 -1 -5)
1969/12/31/18:00:06.591,(1 -3 -14 -31 -13 -5 -2 -1)
1969/12/31/18:00:06.593,(-4 -1 -3 -2 -3 -10 -4 -4)
1969/12/31/18:00:06.593,(6 9 14 -17 -14 6 3 0)
1969/12/31/18:00:06.614,(6 1 -8 12 14 7 6 8)
1969/12/31/18:00:06.614,(-2 4 19 -3 3 0 -2 -2)
1969/12/31/18:00:06.615,(5 -4 -34 -10 6 6 0 3)
1969/12/31/18:00:06.615,(-4 -12 -9 -18 -7 0 -1 0)
1969/12/31/18:00:06.627,(2 12 18 8 4 5 -2 -3)
1969/12/31/18:00:06.627,(4 2 4 -1 -2 4 0 2)
1969/12/31/18:00:06.636,(-1 4 0 -4 -9 -2 0 -1)
1969/12/31/18:00:06.636,(6 8 6 2 -10 1 4 5)
1969/12/31/18:00:06.651,(-9 -9 -7 -32 17 -1 -4 -8)
1969/12/31/18:00:06.651,(1 -2 -5 10 -12 -3 5 2)
1969/12/31/18:00:06.653,(-3 -6 4 29 16 -9 -5 -4)
1969/12/31/18:00:06.653,(-4 -1 6 -1 -5 -6 1 0)
1969/12/31/18:00:06.673,(-6 -5 2 18 1 -8 -3 -6)
1969/12/31/18:00:06.673,(4 5 -12 -12 -8 -6 1 3)
