time,.data
1969-12-31 18:00:03.691000000,(0 0 1 -1 -1 1 0 -1)
1969-12-31 18:00:03.691000000,(0 0 -1 -4 -2 -1 -2 -1)
1969-12-31 18:00:03.692112524,(0 0 -1 -2 -1 -2 -1 -2)
1969-12-31 18:00:03.692112524,(-2 0 -1 1 0 0 -1 -2)
1969-12-31 18:00:03.697675143,(-2 0 -2 -1 -2 -2 1 1)
1969-12-31 18:00:03.697675143,(-1 -2 -1 1 -1 -1 -1 -1)
1969-12-31 18:00:03.697675143,(0 0 -2 -2 -1 -2 -1 -1)
1969-12-31 18:00:03.698787667,(0 -1 -2 -2 -1 1 -1 -3)
1969-12-31 18:00:03.713250477,(0 -2 -2 -2 -2 -2 -1 1)
1969-12-31 18:00:03.713250477,(-1 -3 -2 -3 -1 -1 -1 -2)
1969-12-31 18:00:03.714363001,(-1 0 -4 -2 -1 -2 -1 0)
1969-12-31 18:00:03.714363001,(0 0 0 -3 -3 3 -1 -1)
1969-12-31 18:00:03.729938334,(-1 -3 -1 -1 -1 -5 -1 -1)
1969-12-31 18:00:03.729938334,(-2 -1 -3 -2 -1 -2 -2 0)
1969-12-31 18:00:03.732163382,(-1 -1 -3 -4 -6 -2 -1 -3)
1969-12-31 18:00:03.732163382,(-2 -1 -1 2 4 -5 6 0)
1969-12-31 18:00:03.745513668,(-2 0 -7 -18 -18 2 -11 -1)
1969-12-31 18:00:03.745513668,(-2 -1 3 20 28 26 12 -1)
1969-12-31 18:00:03.781114431,(0 2 1 3 -4 -9 -8 -4)
1969-12-31 18:00:03.781114431,(-1 -5 -5 -4 2 0 3 -2)
1969-12-31 18:00:03.781114431,(2 2 7 4 -4 -4 5 3)
1969-12-31 18:00:03.781114431,(-1 -1 -4 -20 -12 -13 -4 0)
1969-12-31 18:00:03.783339479,(-5 -4 -1 6 4 2 5 -5)
1969-12-31 18:00:03.783339479,(-1 -2 -4 3 0 6 -1 1)
1969-12-31 18:00:03.805589955,(1 -2 -8 -11 -4 -31 -12 1)
1969-12-31 18:00:03.805589955,(-1 -1 -3 -6 -13 11 -9 -3)
1969-12-31 18:00:03.807815003,(2 1 -2 5 6 0 18 7)
1969-12-31 18:00:03.807815003,(2 4 10 -5 -13 -7 -5 -1)
1969-12-31 18:00:03.847865861,(-4 -7 -1 9 11 29 19 1)
1969-12-31 18:00:03.847865861,(-5 -5 -9 -18 -11 -49 -35 -7)
1969-12-31 18:00:03.850090909,(3 6 8 10 3 7 -2 5)
1969-12-31 18:00:03.850090909,(3 3 -1 19 27 -23 -35 -6)
1969-12-31 18:00:03.851203433,(-4 -3 -3 -19 -22 -13 -5 -4)
1969-12-31 18:00:03.851203433,(0 0 0 25 15 15 7 6)
1969-12-31 18:00:03.865666243,(-2 -3 2 4 -2 -16 -12 1)
1969-12-31 18:00:03.865666243,(-2 -6 -13 -22 -13 19 14 2)
1969-12-31 18:00:03.866778767,(0 1 -23 -32 -4 6 -1 -7)
1969-12-31 18:00:03.866778767,(5 7 30 21 6 41 29 11)
1969-12-31 18:00:03.870116338,(-1 3 11 23 10 1 -6 -2)
1969-12-31 18:00:03.870116338,(3 4 5 6 -4 -4 -4 1)
1969-12-31 18:00:03.879016529,(-7 -16 -39 -39 -10 -15 12 0)
1969-12-31 18:00:03.879016529,(-2 1 -11 -14 -14 -12 -9 -7)
1969-12-31 18:00:03.895704387,(4 4 23 20 6 8 4 3)
1969-12-31 18:00:03.895704387,(-2 2 -4 -4 -4 -4 8 1)
1969-12-31 18:00:03.905717101,(0 0 27 34 15 7 -7 4)
1969-12-31 18:00:03.905717101,(-2 -14 -31 -36 -10 -11 -3 -8)
1969-12-31 18:00:03.906829625,(-7 -1 -13 -8 -2 4 0 3)
1969-12-31 18:00:03.906829625,(3 4 31 15 0 1 -2 -4)
1969-12-31 18:00:03.937980292,(-2 0 -4 3 3 4 -3 -5)
1969-12-31 18:00:03.939092816,(1 1 15 14 4 4 12 19)
1969-12-31 18:00:03.940205340,(-2 -9 -22 -27 -11 -6 -9 -11)
1969-12-31 18:00:03.940205340,(-3 -8 -16 -21 -9 2 3 -3)
1969-12-31 18:00:03.945767959,(0 6 20 30 10 6 -2 -2)
1969-12-31 18:00:03.945767959,(-2 -5 -2 -11 -2 -3 3 2)
1969-12-31 18:00:03.953555626,(3 8 26 12 -2 5 5 6)
1969-12-31 18:00:03.953555626,(2 4 -3 9 5 1 3 2)
1969-12-31 18:00:03.989156389,(7 5 2 4 4 3 2 10)
1969-12-31 18:00:03.989156389,(-3 1 -6 15 -2 -8 -11 -15)
1969-12-31 18:00:03.991381437,(-5 -10 -9 -23 -5 2 0 -4)
1969-12-31 18:00:03.991381437,(-2 -4 -8 -6 -5 -2 -2 5)
1969-12-31 18:00:03.996944056,(-1 -4 -8 1 -2 -5 -7 -6)
1969-12-31 18:00:03.996944056,(1 -4 -10 -15 -7 -4 -3 -4)
1969-12-31 18:00:03.998056580,(3 21 13 -5 0 -1 -3 -6)
1969-12-31 18:00:03.998056580,(-3 -10 -15 -6 -3 -4 0 4)
1969-12-31 18:00:04.030319771,(-4 5 6 3 5 0 -1 -5)
1969-12-31 18:00:04.030319771,(-2 -15 -3 4 4 0 4 8)
1969-12-31 18:00:04.031432295,(-1 1 -5 -4 -3 -3 -8 -10)
1969-12-31 18:00:04.031432295,(-2 0 -2 -1 1 1 -2 -10)
1969-12-31 18:00:04.039219962,(-1 3 18 6 -1 -1 -3 -7)
1969-12-31 18:00:04.039219962,(-2 5 10 10 2 0 -5 -7)
1969-12-31 18:00:04.040332486,(-2 -8 -2 2 -2 1 2 3)
1969-12-31 18:00:04.040332486,(0 3 2 -3 -2 0 -2 -3)
1969-12-31 18:00:04.063695486,(1 -5 -4 1 1 1 1 4)
1969-12-31 18:00:04.063695486,(-1 1 -2 -3 -2 -2 3 4)
1969-12-31 18:00:04.065920534,(-3 -4 -13 -10 -1 -2 -8 -10)
1969-12-31 18:00:04.065920534,(-3 -3 -1 -3 -3 -2 -4 -7)
1969-12-31 18:00:04.079270820,(-3 1 -2 3 0 -1 -3 -2)
1969-12-31 18:00:04.079270820,(-1 1 -1 0 1 -2 1 3)
1969-12-31 18:00:04.089283535,(1 -5 -6 -5 -2 -1 -2 -2)
1969-12-31 18:00:04.089283535,(-1 1 0 -1 -1 -2 -3 -6)
1969-12-31 18:00:04.113759059,(1 0 1 2 0 -2 -6 -6)
1969-12-31 18:00:04.113759059,(-1 0 0 -3 0 0 5 1)
1969-12-31 18:00:04.114871583,(-1 -16 -11 -4 -3 0 0 4)
1969-12-31 18:00:04.115984107,(-1 -4 -4 -2 -3 -3 3 1)
1969-12-31 18:00:04.149359822,(-1 13 8 0 1 -1 -3 1)
1969-12-31 18:00:04.149359822,(-1 12 10 4 0 -2 -2 -3)
1969-12-31 18:00:04.150472346,(-1 -4 -12 -5 -2 -1 0 7)
1969-12-31 18:00:04.150472346,(-3 -6 4 7 3 1 -4 -13)
1969-12-31 18:00:04.151584870,(0 -8 -8 -4 -1 2 5 1)
1969-12-31 18:00:04.151584870,(-7 -8 -4 -1 -1 -3 -1 -2)
1969-12-31 18:00:04.154922441,(1 -18 -16 -7 -1 -2 3 -1)
1969-12-31 18:00:04.156034965,(-6 3 -16 -9 -3 -2 -1 6)
1969-12-31 18:00:04.171610299,(-9 16 19 9 2 0 -1 -5)
1969-12-31 18:00:04.171610299,(7 -10 -10 -2 -2 -1 -2 -1)
1969-12-31 18:00:04.173835346,(-3 1 7 0 2 -7 -11 -7)
1969-12-31 18:00:04.173835346,(-3 -9 -11 -1 0 1 5 9)
1969-12-31 18:00:04.197198347,(-3 -13 -7 -1 0 -2 1 3)
1969-12-31 18:00:04.197198347,(-5 7 -2 -2 -2 1 8 5)
1969-12-31 18:00:04.199423395,(4 5 2 2 0 0 -5 -2)
1969-12-31 18:00:04.199423395,(2 3 4 -2 0 -2 -1 0)
1969-12-31 18:00:04.212773681,(3 8 -2 -3 -1 -3 -3 9)
1969-12-31 18:00:04.212773681,(-9 0 -3 -1 0 -4 -12 -22)
1969-12-31 18:00:04.222786395,(6 0 -6 -3 0 3 14 9)
1969-12-31 18:00:04.222786395,(4 8 13 5 3 -4 -8 8)
1969-12-31 18:00:04.239474253,(5 -10 -10 -5 -2 3 22 39)
1969-12-31 18:00:04.239474253,(14 8 5 3 3 -6 -28 -26)
1969-12-31 18:00:04.240586777,(6 19 11 6 5 3 -7 -25)
1969-12-31 18:00:04.240586777,(-42 -28 -10 -8 -10 -8 -2 -1)
1969-12-31 18:00:04.263949777,(26 12 6 5 5 9 15 24)
1969-12-31 18:00:04.263949777,(10 9 4 2 -2 -2 0 -5)
1969-12-31 18:00:04.265062301,(-30 -14 -6 -5 -5 -7 -7 -3)
1969-12-31 18:00:04.265062301,(-8 -3 -6 -3 -1 0 10 4)
1969-12-31 18:00:04.297325493,(-40 -21 -10 -5 -5 -13 -29 -53)
1969-12-31 18:00:04.297325493,(23 10 2 -7 -4 2 14 24)
1969-12-31 18:00:04.299550540,(16 10 13 5 1 4 3 -7)
1969-12-31 18:00:04.299550540,(-27 -26 -7 -7 -7 13 -15 -11)
1969-12-31 18:00:04.306225683,(-7 -2 1 -4 -17 -49 -3 -21)
1969-12-31 18:00:04.306225683,(10 -11 8 8 14 43 -10 3)
1969-12-31 18:00:04.307338207,(33 6 -4 0 -7 -12 -6 -1)
1969-12-31 18:00:04.307338207,(13 22 12 5 4 4 -2 -3)
1969-12-31 18:00:04.330701208,(-25 -1 1 2 4 34 18 -7)
1969-12-31 18:00:04.330701208,(-39 -32 -22 -15 -17 -48 -29 -14)
1969-12-31 18:00:04.332926256,(29 16 11 4 6 22 26 17)
1969-12-31 18:00:04.332926256,(13 11 11 9 4 -9 -4 -4)
1969-12-31 18:00:04.346276542,(-12 -24 -17 -7 -1 6 -5 23)
1969-12-31 18:00:04.346276542,(8 5 1 0 -2 -5 15 17)
1969-12-31 18:00:04.356289256,(-25 6 10 8 10 26 36 45)
1969-12-31 18:00:04.356289256,(-25 -27 -19 -14 -13 -31 -36 -66)
1969-12-31 18:00:04.372977114,(78 11 4 3 6 42 28 59)
1969-12-31 18:00:04.372977114,(23 34 12 5 2 -28 34 45)
1969-12-31 18:00:04.374089638,(-71 -35 -21 -18 -16 -1 -56 -64)
1969-12-31 18:00:04.374089638,(0 -9 4 2 1 -10 38 65)
1969-12-31 18:00:04.397452638,(-39 -4 0 2 1 -18 -46 -90)
1969-12-31 18:00:04.397452638,(27 13 6 2 2 12 10 -20)
1969-12-31 18:00:04.398565162,(4 2 5 6 5 0 4 -19)
1969-12-31 18:00:04.398565162,(-13 -3 -11 -11 -6 1 -11 -32)
1969-12-31 18:00:04.424153210,(17 -5 -2 -5 -3 -10 -15 -27)
1969-12-31 18:00:04.424153210,(13 26 17 13 12 29 16 11)
1969-12-31 18:00:04.425265734,(12 0 -11 -8 -4 -17 23 27)
1969-12-31 18:00:04.425265734,(14 14 7 4 2 10 -38 -13)
1969-12-31 18:00:04.455303878,(-6 4 -7 -4 1 -1 -29 -35)
1969-12-31 18:00:04.456416402,(-23 -23 -11 -10 -13 -28 35 32)
1969-12-31 18:00:04.465316592,(-10 -9 -3 -3 10 81 59 55)
1969-12-31 18:00:04.465316592,(35 17 2 -1 -4 -33 18 4)
1969-12-31 18:00:04.465316592,(-6 -12 7 5 3 -11 -37 -11)
1969-12-31 18:00:04.465316592,(-7 -7 -19 -15 -11 -12 -6 24)
1969-12-31 18:00:04.467541640,(-16 -27 -4 0 -5 -34 -26 -7)
1969-12-31 18:00:04.467541640,(70 39 19 13 12 34 36 75)
1969-12-31 18:00:04.470879212,(-22 3 -4 0 5 38 11 -36)
1969-12-31 18:00:04.470879212,(18 -7 2 4 0 -23 -14 15)
1969-12-31 18:00:04.480891926,(29 23 3 -1 -5 -20 -21 4)
1969-12-31 18:00:04.480891926,(-33 -24 -3 -2 3 5 8 -14)
1969-12-31 18:00:04.496467260,(30 19 6 5 -2 -36 -1 24)
1969-12-31 18:00:04.496467260,(-16 -8 0 3 13 52 22 18)
1969-12-31 18:00:04.506479975,(-14 -7 -8 -8 -9 -18 -41 -51)
1969-12-31 18:00:04.506479975,(30 16 9 9 9 28 20 60)
1969-12-31 18:00:04.522055308,(-61 -35 -22 -21 -20 -39 27 1)
1969-12-31 18:00:04.522055308,(19 29 20 14 10 2 -31 -88)
1969-12-31 18:00:04.529842975,(-44 -13 -13 -11 -5 36 1 -54)
1969-12-31 18:00:04.529842975,(46 37 12 10 6 -26 10 33)
1969-12-31 18:00:04.537630642,(9 3 3 2 -2 -10 20 -1)
1969-12-31 18:00:04.537630642,(-67 -45 -22 -18 -15 14 -46 -64)
1969-12-31 18:00:04.547643357,(23 -4 4 1 -2 -25 3 47)
1969-12-31 18:00:04.547643357,(-2 -1 -7 -8 -6 -10 -12 -29)
1969-12-31 18:00:04.563218690,(5 17 5 2 3 6 -22 -33)
1969-12-31 18:00:04.563218690,(5 7 3 4 8 18 8 20)
1969-12-31 18:00:04.608832168,(1 0 8 12 7 -9 0 29)
1969-12-31 18:00:04.608832168,(-80 -45 -22 -17 -15 8 13 -23)
1969-12-31 18:00:04.608832168,(6 -14 -1 2 -1 -22 10 56)
1969-12-31 18:00:04.608832168,(30 20 -3 -3 3 24 25 31)
1969-12-31 18:00:04.615507311,(65 41 14 5 5 -8 12 33)
1969-12-31 18:00:04.615507311,(-12 -27 -10 -5 -3 3 -20 -55)
1969-12-31 18:00:04.615507311,(-13 -3 0 -1 -3 -3 10 38)
1969-12-31 18:00:04.615507311,(-7 -5 0 -4 -8 -10 -36 -21)
1969-12-31 18:00:04.617732359,(-50 -16 -7 -7 -9 -13 -50 -48)
1969-12-31 18:00:04.617732359,(19 10 4 3 0 1 5 39)
1969-12-31 18:00:04.628857597,(38 29 11 5 1 -7 7 12)
1969-12-31 18:00:04.628857597,(-38 -52 -18 -10 -10 -7 -11 -3)
1969-12-31 18:00:04.639982835,(-3 6 2 2 2 -7 19 -31)
1969-12-31 18:00:04.639982835,(6 3 0 1 -1 0 2 20)
1969-12-31 18:00:04.655558169,(15 4 -1 -3 -4 -8 -20 1)
1969-12-31 18:00:04.655558169,(-51 -21 -2 0 0 4 21 -21)
1969-12-31 18:00:04.663345836,(58 34 1 -1 -2 -9 -2 8)
1969-12-31 18:00:04.663345836,(-12 1 2 1 3 -1 -7 -14)
1969-12-31 18:00:04.681146217,(21 1 4 6 8 16 0 48)
1969-12-31 18:00:04.681146217,(91 31 8 5 2 -4 30 65)
1969-12-31 18:00:04.682258741,(-93 -38 -9 -3 1 3 18 -5)
1969-12-31 18:00:04.682258741,(29 13 6 2 6 20 2 -14)
1969-12-31 18:00:04.695609027,(11 12 0 1 5 7 -3 36)
1969-12-31 18:00:04.695609027,(-26 -8 -3 -4 -8 -23 -20 -53)
1969-12-31 18:00:04.714521933,(6 9 6 4 3 2 9 3)
1969-12-31 18:00:04.714521933,(-60 -28 -20 -12 -12 -50 -31 -57)
1969-12-31 18:00:04.722309599,(-27 -10 9 6 2 10 0 -26)
1969-12-31 18:00:04.722309599,(-22 5 2 4 4 -3 0 33)
1969-12-31 18:00:04.730097266,(23 9 -1 -2 -3 -21 -19 -12)
1969-12-31 18:00:04.730097266,(-38 -14 -4 -3 2 32 -3 -69)
1969-12-31 18:00:04.774598220,(-24 -20 -14 -11 -8 -3 -2 -8)
1969-12-31 18:00:04.774598220,(-6 -4 -6 -8 -9 -23 -66 -72)
1969-12-31 18:00:04.776823268,(27 13 11 9 9 17 26 59)
1969-12-31 18:00:04.776823268,(40 17 7 6 14 43 16 41)
1969-12-31 18:00:04.776823268,(-21 -4 -7 -5 -5 -11 3 -87)
1969-12-31 18:00:04.776823268,(-49 -10 -4 -3 -10 -16 -6 -37)
1969-12-31 18:00:04.781273363,(27 -1 -7 -1 13 30 16 8)
1969-12-31 18:00:04.781273363,(21 14 12 2 -28 -34 -16 34)
1969-12-31 18:00:04.789061030,(-12 -10 -11 -14 -21 -8 -9 -30)
1969-12-31 18:00:04.789061030,(17 11 4 4 -1 -2 20 49)
1969-12-31 18:00:04.795736173,(-16 -27 -9 -6 8 78 -30 -29)
1969-12-31 18:00:04.795736173,(16 28 16 14 18 -47 30 14)
1969-12-31 18:00:04.814649078,(8 6 2 3 0 -13 -7 21)
1969-12-31 18:00:04.814649078,(-5 -13 -3 -1 6 -1 -7 2)
1969-12-31 18:00:04.815761602,(17 6 1 3 9 -1 7 26)
1969-12-31 18:00:04.815761602,(-12 -17 -8 -2 7 31 31 80)
1969-12-31 18:00:04.840237127,(22 6 2 11 14 6 -15 8)
1969-12-31 18:00:04.840237127,(-34 -1 4 30 76 32 8 -28)
1969-12-31 18:00:04.841349650,(-26 -13 -12 -40 -110 -92 43 83)
1969-12-31 18:00:04.841349650,(25 -1 -14 -40 -34 -6 -52 -32)
1969-12-31 18:00:04.856924984,(-4 -10 -8 -20 -15 -9 17 26)
1969-12-31 18:00:04.856924984,(39 23 14 14 41 29 30 75)
1969-12-31 18:00:04.863600127,(44 8 7 33 61 16 0 44)
1969-12-31 18:00:04.863600127,(-44 -15 -1 14 6 0 -7 -24)
1969-12-31 18:00:04.881400509,(11 1 -3 -18 -39 1 6 57)
1969-12-31 18:00:04.881400509,(0 -8 -7 -9 -10 22 15 36)
1969-12-31 18:00:04.882513032,(-23 -6 3 6 -3 -38 -18 -52)
1969-12-31 18:00:04.882513032,(11 0 -4 -2 12 -9 -6 -8)
1969-12-31 18:00:04.914776224,(5 5 -1 14 34 29 -1 -25)
1969-12-31 18:00:04.914776224,(8 -9 -6 -15 -57 -37 6 14)
1969-12-31 18:00:04.917001271,(-17 -12 -7 -14 -10 7 -14 -28)
1969-12-31 18:00:04.917001271,(-13 -5 -2 10 27 19 12 -5)
1969-12-31 18:00:04.921451367,(-18 -7 2 17 29 15 15 0)
1969-12-31 18:00:04.922563891,(10 15 2 -5 -32 -29 -11 -26)
1969-12-31 18:00:04.929239034,(21 10 4 19 40 29 24 67)
1969-12-31 18:00:04.929239034,(21 15 9 -3 -16 4 11 50)
1969-12-31 18:00:04.957052130,(-13 -5 -7 -32 -38 15 1 0)
1969-12-31 18:00:04.957052130,(0 -3 1 -4 -5 -17 22 18)
1969-12-31 18:00:04.958164654,(-10 -31 -36 -17 -10 -52 -91 -104)
1969-12-31 18:00:04.958164654,(-11 -7 12 33 91 43 10 -32)
1969-12-31 18:00:04.962614749,(32 38 6 19 -19 -25 -7 4)
1969-12-31 18:00:04.962614749,(-12 -51 -14 -26 -3 42 8 20)
1969-12-31 18:00:04.973739987,(9 51 31 10 -10 -26 23 52)
1969-12-31 18:00:04.973739987,(7 -18 -8 -4 -14 5 -22 -33)
1969-12-31 18:00:04.989315321,(-13 -15 -50 -30 -42 -35 11 -28)
1969-12-31 18:00:04.989315321,(-5 67 95 52 43 27 -39 -60)
1969-12-31 18:00:04.995990464,(-52 -24 -36 -7 37 33 0 -57)
1969-12-31 18:00:04.995990464,(44 2 -24 5 12 4 9 8)
1969-12-31 18:00:05.014903369,(-32 -6 39 2 10 -11 16 80)
1969-12-31 18:00:05.014903369,(-32 -12 -65 -49 -123 -86 -60 -101)
1969-12-31 18:00:05.016015893,(-4 -3 22 -7 -13 -4 7 12)
1969-12-31 18:00:05.016015893,(7 18 25 29 35 22 -7 -33)
1969-12-31 18:00:05.030478703,(12 -51 -73 -17 31 19 16 -11)
1969-12-31 18:00:05.030478703,(3 -49 -9 11 83 31 29 27)
1969-12-31 18:00:05.040491418,(-28 23 52 5 -83 -28 -14 -42)
1969-12-31 18:00:05.040491418,(73 -79 -117 -55 -44 -7 51 101)
1969-12-31 18:00:05.082767324,(-66 61 94 28 -12 -18 -58 -43)
1969-12-31 18:00:05.082767324,(-10 38 35 34 48 32 42 16)
1969-12-31 18:00:05.084992371,(62 -26 -86 -1 54 66 -9 13)
1969-12-31 18:00:05.084992371,(-34 21 45 0 -60 -76 -7 -43)
1969-12-31 18:00:05.086104895,(-38 -111 -97 -59 -39 -17 -19 -66)
1969-12-31 18:00:05.086104895,(36 78 47 9 -6 -6 -1 57)
1969-12-31 18:00:05.090554990,(2 -59 -33 -3 26 -1 4 37)
1969-12-31 18:00:05.090554990,(5 -57 -58 -6 76 73 14 -32)
1969-12-31 18:00:05.097230134,(33 64 62 43 -57 -22 17 -6)
1969-12-31 18:00:05.097230134,(-52 68 73 -15 -53 -36 -62 -66)
1969-12-31 18:00:05.106130324,(-55 -58 -21 -14 -20 -6 -9 -81)
1969-12-31 18:00:05.106130324,(-44 -34 -33 -19 0 -31 -61 -50)
1969-12-31 18:00:05.122818182,(34 -117 -93 -3 63 44 31 90)
1969-12-31 18:00:05.122818182,(28 -27 -63 -14 35 47 50 1)
1969-12-31 18:00:05.130605849,(-35 127 114 10 -90 -112 -60 -88)
1969-12-31 18:00:05.130605849,(-32 -27 -2 -3 -11 14 24 64)
1969-12-31 18:00:05.148406230,(20 70 79 46 123 101 41 -34)
1969-12-31 18:00:05.148406230,(25 61 31 1 -116 -74 -21 58)
1969-12-31 18:00:05.149518754,(52 -96 -94 -23 47 47 4 2)
1969-12-31 18:00:05.149518754,(-41 -26 10 2 -28 -39 -4 -76)
1969-12-31 18:00:05.163981564,(26 -77 -49 0 10 8 28 80)
1969-12-31 18:00:05.163981564,(-17 32 -1 -10 15 34 9 -25)
1969-12-31 18:00:05.173994278,(20 38 29 4 35 22 21 -6)
1969-12-31 18:00:05.173994278,(-12 -2 -1 4 -6 13 -25 14)
1969-12-31 18:00:05.225170375,(40 47 45 16 -26 -22 -10 15)
1969-12-31 18:00:05.225170375,(-66 -125 -86 -37 -27 -52 -37 -110)
1969-12-31 18:00:05.226282899,(-15 -68 -33 -24 -12 11 31 48)
1969-12-31 18:00:05.226282899,(0 47 -19 -4 25 18 16 22)
1969-12-31 18:00:05.227395423,(-31 60 53 19 31 -22 -41 -36)
1969-12-31 18:00:05.227395423,(26 97 76 19 -71 -39 -2 30)
1969-12-31 18:00:05.232958042,(-7 10 -1 -17 -38 -9 -1 -7)
1969-12-31 18:00:05.232958042,(62 -73 -43 0 15 16 5 57)
1969-12-31 18:00:05.232958042,(-47 14 -48 -11 8 -2 -2 -49)
1969-12-31 18:00:05.232958042,(2 54 62 51 57 -1 2 -9)
1969-12-31 18:00:05.240745709,(21 -78 -62 -8 -9 13 -14 42)
1969-12-31 18:00:05.240745709,(-55 26 43 -13 -66 -31 -26 -95)
1969-12-31 18:00:05.256321043,(27 -58 -41 -27 -17 -17 -1 15)
1969-12-31 18:00:05.256321043,(29 -75 -63 -25 32 27 7 22)
1969-12-31 18:00:05.264108709,(8 41 29 37 65 30 19 25)
1969-12-31 18:00:05.264108709,(-15 -26 0 4 0 -13 0 -3)
1969-12-31 18:00:05.281909091,(-15 39 26 -8 -74 -30 -27 -26)
1969-12-31 18:00:05.281909091,(10 -72 -77 -30 -1 -4 1 -33)
1969-12-31 18:00:05.283021615,(-14 19 23 -1 2 -4 -7 -34)
1969-12-31 18:00:05.284134139,(12 127 84 18 -8 -7 -2 58)
1969-12-31 18:00:05.297484425,(-21 0 -2 2 18 3 -12 -73)
1969-12-31 18:00:05.297484425,(3 -57 -30 -1 -15 -7 5 28)
1969-12-31 18:00:05.307497139,(8 -58 -39 -12 19 -3 -17 46)
1969-12-31 18:00:05.307497139,(22 -81 -81 15 87 90 46 -2)
1969-12-31 18:00:05.323072473,(-5 111 111 5 -94 -83 -36 17)
1969-12-31 18:00:05.323072473,(47 24 3 8 20 15 52 54)
1969-12-31 18:00:05.329747616,(-13 -8 3 -6 -11 -8 -21 -26)
1969-12-31 18:00:05.329747616,(11 21 49 18 -2 -13 -21 0)
1969-12-31 18:00:05.348660521,(39 -128 -90 0 49 61 43 65)
1969-12-31 18:00:05.348660521,(-23 16 -27 -22 -16 -2 -27 -19)
1969-12-31 18:00:05.349773045,(3 89 71 45 34 23 37 -3)
1969-12-31 18:00:05.349773045,(-36 -73 -38 -11 -11 -12 -14 -37)
1969-12-31 18:00:05.392048951,(-15 -37 -24 -17 -41 -20 19 24)
1969-12-31 18:00:05.392048951,(30 23 0 -1 24 -3 12 45)
1969-12-31 18:00:05.393161475,(-24 13 12 4 -41 -33 -46 -75)
1969-12-31 18:00:05.393161475,(4 -29 -46 -36 -4 7 34 15)
1969-12-31 18:00:05.394273999,(-29 91 92 51 5 -24 -62 -33)
1969-12-31 18:00:05.394273999,(39 -69 -62 -7 4 9 -5 20)
1969-12-31 18:00:05.398724094,(-31 -62 -40 13 74 30 15 12)
1969-12-31 18:00:05.398724094,(4 22 -41 -34 -75 -39 -26 -52)
1969-12-31 18:00:05.423199619,(-6 -20 -61 -63 -60 -48 11 5)
1969-12-31 18:00:05.423199619,(2 127 79 29 41 26 -18 -24)
1969-12-31 18:00:05.425424666,(5 109 104 34 57 8 3 -7)
1969-12-31 18:00:05.425424666,(39 -97 -104 -8 46 38 3 50)
1969-12-31 18:00:05.438774952,(-34 78 82 -3 -59 -61 -77 -56)
1969-12-31 18:00:05.438774952,(-22 -31 -20 -22 -35 -29 -16 -31)
1969-12-31 18:00:05.448787667,(13 -57 -41 -22 -39 -8 35 29)
1969-12-31 18:00:05.448787667,(-6 14 36 28 64 24 -2 -8)
1969-12-31 18:00:05.465475524,(17 -70 -59 10 49 51 9 17)
1969-12-31 18:00:05.465475524,(-17 -128 -62 -12 22 0 -10 7)
1969-12-31 18:00:05.466588048,(-19 87 79 47 3 11 12 -18)
1969-12-31 18:00:05.466588048,(-5 -38 -6 1 -50 -37 -26 -13)
1969-12-31 18:00:05.489951049,(27 18 13 37 127 120 10 -8)
1969-12-31 18:00:05.489951049,(-67 -57 -69 -49 -76 -52 10 -4)
1969-12-31 18:00:05.492176097,(19 39 24 -8 -54 -57 19 25)
1969-12-31 18:00:05.492176097,(-12 57 56 1 -43 -4 6 -2)
1969-12-31 18:00:05.534452003,(39 -6 -71 -33 -7 -29 -6 19)
1969-12-31 18:00:05.534452003,(1 -3 11 11 2 55 4 1)
1969-12-31 18:00:05.535564526,(-5 -11 -26 -28 -24 -24 -11 -14)
1969-12-31 18:00:05.535564526,(-45 -1 29 4 -17 -21 3 0)
1969-12-31 18:00:05.536677050,(21 -80 -92 -36 1 7 32 6)
1969-12-31 18:00:05.536677050,(14 67 86 58 90 69 24 31)
1969-12-31 18:00:05.540014622,(13 25 -5 -2 -8 -12 -11 15)
1969-12-31 18:00:05.540014622,(11 -5 24 6 1 -5 -20 -16)
1969-12-31 18:00:05.556702479,(7 -21 -9 -1 7 16 40 25)
1969-12-31 18:00:05.556702479,(4 -38 -1 17 51 51 55 27)
1969-12-31 18:00:05.558927527,(25 12 12 -1 -74 -64 -72 -14)
1969-12-31 18:00:05.558927527,(-18 91 42 13 56 26 32 32)
1969-12-31 18:00:05.582290528,(-23 10 16 -6 -38 -12 27 12)
1969-12-31 18:00:05.582290528,(-4 -66 -31 -12 -54 -57 -31 -30)
1969-12-31 18:00:05.583403051,(-13 -128 -112 -42 40 66 34 22)
1969-12-31 18:00:05.583403051,(2 114 107 13 -72 -56 11 10)
1969-12-31 18:00:05.598978385,(33 52 32 27 89 60 -8 13)
1969-12-31 18:00:05.598978385,(21 -60 -54 -12 -67 -81 -15 14)
1969-12-31 18:00:05.600090909,(-53 -32 -9 -11 1 -7 -40 -22)
1969-12-31 18:00:05.600090909,(27 -13 -40 -3 -3 -10 -12 -4)
1969-12-31 18:00:05.625678957,(5 -79 -24 3 27 35 41 24)
1969-12-31 18:00:05.625678957,(11 97 80 42 66 57 10 40)
1969-12-31 18:00:05.627904005,(-30 21 -13 -21 -33 -16 29 -49)
1969-12-31 18:00:05.627904005,(-13 -18 -32 -22 -26 -4 -19 -32)
1969-12-31 18:00:05.640141767,(8 -73 -35 -10 -8 14 -8 10)
1969-12-31 18:00:05.640141767,(7 -42 -47 -4 27 17 -4 13)
1969-12-31 18:00:05.649041958,(29 81 90 46 8 -23 5 5)
1969-12-31 18:00:05.649041958,(6 30 24 -8 -5 21 -3 -14)
1969-12-31 18:00:05.700218055,(-17 -68 -44 -4 -6 -35 -54 -47)
1969-12-31 18:00:05.700218055,(37 -64 -59 -16 18 30 -22 66)
1969-12-31 18:00:05.702443102,(20 99 37 -10 -20 13 -9 9)
1969-12-31 18:00:05.702443102,(-34 2 -13 -1 33 0 3 1)
1969-12-31 18:00:05.703555626,(34 -63 -70 -41 -63 -74 -1 29)
1969-12-31 18:00:05.703555626,(-43 127 109 26 -69 -53 -1 -18)
1969-12-31 18:00:05.718018436,(7 -125 -110 -3 53 22 -85 -11)
1969-12-31 18:00:05.718018436,(15 -96 -86 -27 2 9 43 44)
1969-12-31 18:00:05.719130960,(-12 127 90 38 8 -5 -33 -14)
1969-12-31 18:00:05.719130960,(-20 -38 -48 -6 3 2 3 -75)
1969-12-31 18:00:05.732481246,(-3 -91 -42 -35 -52 -14 43 34)
1969-12-31 18:00:05.732481246,(-13 -44 44 31 15 0 -33 -32)
1969-12-31 18:00:05.732481246,(-19 -47 -21 3 52 29 8 25)
1969-12-31 18:00:05.732481246,(8 -102 -112 -51 -10 -6 36 7)
1969-12-31 18:00:05.739156389,(6 116 116 98 62 19 -7 28)
1969-12-31 18:00:05.739156389,(-6 -59 -112 -57 -93 -75 -11 -4)
1969-12-31 18:00:05.756956771,(11 -3 26 7 -32 -16 21 -2)
1969-12-31 18:00:05.756956771,(-17 -46 -46 -14 17 14 -40 -38)
1969-12-31 18:00:05.765856961,(5 -120 -47 11 89 90 65 37)
1969-12-31 18:00:05.765856961,(13 85 75 33 -43 -28 5 52)
1969-12-31 18:00:05.772532104,(12 127 127 29 18 25 -62 -82)
1969-12-31 18:00:05.772532104,(-32 -94 -42 -24 -67 -35 -1 -11)
1969-12-31 18:00:05.782544819,(22 -52 -105 -49 59 7 32 22)
1969-12-31 18:00:05.782544819,(-19 104 105 41 -2 6 -16 -29)
1969-12-31 18:00:05.798120153,(-38 -68 -75 -25 -39 5 20 -11)
1969-12-31 18:00:05.798120153,(5 107 87 21 29 9 -4 -13)
1969-12-31 18:00:05.840396058,(-21 -15 -37 -20 -42 -27 13 3)
1969-12-31 18:00:05.841508582,(0 -98 -69 -15 30 22 15 -9)
1969-12-31 18:00:05.859308964,(3 59 34 18 15 35 -9 36)
1969-12-31 18:00:05.859308964,(-26 73 60 8 24 -25 -7 -29)
1969-12-31 18:00:05.861534011,(10 -48 -35 -14 -59 -38 1 1)
1969-12-31 18:00:05.861534011,(-1 38 18 -2 -15 19 10 -9)
1969-12-31 18:00:05.861534011,(6 -102 -62 -6 8 -18 -14 -15)
1969-12-31 18:00:05.861534011,(7 85 56 15 31 39 26 10)
1969-12-31 18:00:05.868209154,(38 -3 1 -16 -54 -23 -40 18)
1969-12-31 18:00:05.868209154,(-20 53 14 8 16 -18 8 13)
1969-12-31 18:00:05.868209154,(-10 18 28 4 7 15 7 -33)
1969-12-31 18:00:05.868209154,(-15 39 54 22 47 12 -13 -4)
1969-12-31 18:00:05.872659250,(24 -36 -81 -62 -109 -46 -12 -3)
1969-12-31 18:00:05.872659250,(14 -9 9 11 81 48 -22 -13)
1969-12-31 18:00:05.890459631,(15 -29 -23 5 20 17 70 60)
1969-12-31 18:00:05.891572155,(17 -22 -17 4 -19 -49 -22 -4)
1969-12-31 18:00:05.892684679,(-6 43 30 16 -10 35 -8 -30)
1969-12-31 18:00:05.892684679,(6 -38 -19 -34 -23 -44 -11 9)
1969-12-31 18:00:05.916047680,(-54 9 -19 -13 2 17 -13 -67)
1969-12-31 18:00:05.916047680,(6 -58 -20 -10 -35 -19 -29 17)
1969-12-31 18:00:05.917160203,(-9 80 68 21 32 -7 -13 -23)
1969-12-31 18:00:05.918272727,(-13 -48 -32 -16 27 54 20 3)
1969-12-31 18:00:05.931623013,(-8 24 7 7 -10 -19 41 22)
1969-12-31 18:00:05.931623013,(54 -128 -120 -23 -58 -50 -45 9)
1969-12-31 18:00:05.939410680,(-29 61 60 54 66 44 16 4)
1969-12-31 18:00:05.939410680,(8 -23 -43 -42 -88 -86 -23 -18)
1969-12-31 18:00:05.957211062,(-50 -28 -3 -13 7 1 -33 -56)
1969-12-31 18:00:05.957211062,(-11 63 4 0 18 32 15 6)
1969-12-31 18:00:05.959436109,(-11 -66 -37 2 40 9 -26 -38)
1969-12-31 18:00:05.959436109,(17 4 12 9 7 2 44 17)
1969-12-31 18:00:06.009499682,(22 -96 -74 -35 -36 -23 -26 4)
1969-12-31 18:00:06.009499682,(-20 35 48 12 35 43 20 -12)
1969-12-31 18:00:06.011724730,(-20 -7 17 10 37 22 -13 -28)
1969-12-31 18:00:06.011724730,(17 52 7 27 13 14 13 1)
1969-12-31 18:00:06.012837254,(2 56 43 -24 -114 -108 -26 -14)
1969-12-31 18:00:06.012837254,(-14 -67 -49 -29 25 16 -25 21)
1969-12-31 18:00:06.016174825,(20 -53 -43 -8 58 28 61 16)
1969-12-31 18:00:06.016174825,(-49 -10 2 27 64 26 3 9)
1969-12-31 18:00:06.025075016,(-2 66 35 -7 -66 -20 -10 -12)
1969-12-31 18:00:06.025075016,(13 -32 -19 -15 -6 7 18 10)
1969-12-31 18:00:06.026187540,(-23 -1 22 -6 -15 -8 22 10)
1969-12-31 18:00:06.026187540,(53 -44 -47 7 -10 -25 -26 19)
1969-12-31 18:00:06.049550540,(23 58 47 30 49 35 39 63)
1969-12-31 18:00:06.049550540,(-44 -10 20 8 24 0 -72 -68)
1969-12-31 18:00:06.050663064,(-28 -18 -26 -25 -77 -43 -8 -13)
1969-12-31 18:00:06.050663064,(23 49 33 -6 -6 14 -21 -15)
1969-12-31 18:00:06.074026065,(16 -61 -42 7 25 6 5 48)
1969-12-31 18:00:06.074026065,(34 52 24 7 -15 1 30 13)
1969-12-31 18:00:06.076251113,(25 9 5 4 24 13 19 55)
1969-12-31 18:00:06.076251113,(34 -20 -8 -3 -30 -20 -31 32)
1969-12-31 18:00:06.091826446,(-20 -13 -4 -15 -7 -7 -3 -8)
1969-12-31 18:00:06.091826446,(17 -114 -85 -12 75 67 47 35)
1969-12-31 18:00:06.092938970,(12 94 21 26 7 -15 7 -2)
1969-12-31 18:00:06.092938970,(-20 106 114 -18 -88 -64 -42 -37)
1969-12-31 18:00:06.116301971,(16 -41 -25 6 68 45 18 -10)
1969-12-31 18:00:06.116301971,(-22 -6 11 14 5 -1 31 -4)
1969-12-31 18:00:06.117414495,(-3 -66 -44 -20 -21 -3 -9 14)
1969-12-31 18:00:06.117414495,(18 -36 -39 6 41 37 32 36)
1969-12-31 18:00:06.150790210,(-12 35 16 16 40 34 -8 -24)
1969-12-31 18:00:06.150790210,(1 80 62 -1 -55 -61 -8 7)
1969-12-31 18:00:06.151902734,(11 -13 -4 -4 -22 0 18 30)
1969-12-31 18:00:06.151902734,(7 -58 -47 -15 11 11 -18 -30)
1969-12-31 18:00:06.158577877,(-43 -4 9 -21 -22 -5 -4 -18)
1969-12-31 18:00:06.158577877,(-10 -8 -11 1 14 12 9 -16)
1969-12-31 18:00:06.159690401,(33 23 3 15 24 13 19 32)
1969-12-31 18:00:06.159690401,(-11 -80 -36 -23 -47 -42 -50 -21)
1969-12-31 18:00:06.183053401,(23 34 20 37 29 29 48 11)
1969-12-31 18:00:06.183053401,(-9 28 -5 7 66 60 -37 -44)
1969-12-31 18:00:06.185278449,(-20 56 37 -28 -109 -88 21 -9)
1969-12-31 18:00:06.185278449,(7 -14 5 -40 -33 10 4 2)
1969-12-31 18:00:06.197516211,(-18 -11 0 39 42 -8 -25 -15)
1969-12-31 18:00:06.198628735,(43 13 -19 -37 -45 -8 8 25)
1969-12-31 18:00:06.208641449,(17 -4 21 44 52 45 21 34)
1969-12-31 18:00:06.208641449,(4 35 14 50 67 18 6 -10)
1969-12-31 18:00:06.224216783,(13 -37 -21 -10 -35 -18 -17 18)
1969-12-31 18:00:06.224216783,(2 10 14 4 -24 -20 5 15)
1969-12-31 18:00:06.226441831,(1 8 0 -31 1 6 -40 -33)
1969-12-31 18:00:06.226441831,(22 13 8 28 6 11 40 49)
1969-12-31 18:00:06.249804832,(-3 12 5 22 24 -15 -25 -24)
1969-12-31 18:00:06.249804832,(-31 -10 -2 -7 -33 0 22 -5)
1969-12-31 18:00:06.250917355,(-28 -16 -19 -26 -11 -21 -50 -47)
1969-12-31 18:00:06.250917355,(-20 -91 -66 -30 7 0 -13 -25)
1969-12-31 18:00:06.265380165,(12 86 56 -27 -24 13 17 14)
1969-12-31 18:00:06.265380165,(18 19 14 4 -20 -33 -5 8)
1969-12-31 18:00:06.275392880,(9 -7 -6 17 17 15 8 12)
1969-12-31 18:00:06.275392880,(-57 -47 -31 -2 17 10 -13 -42)
1969-12-31 18:00:06.309881119,(-52 16 9 -10 -12 -21 -37 -48)
1969-12-31 18:00:06.309881119,(-13 -12 5 -20 -30 -23 -6 -4)
1969-12-31 18:00:06.310993643,(-29 -14 -3 -17 -29 -8 -6 -26)
1969-12-31 18:00:06.310993643,(58 38 26 21 28 35 27 76)
1969-12-31 18:00:06.317668786,(7 -26 -25 37 57 33 23 -7)
1969-12-31 18:00:06.317668786,(1 12 5 33 22 -27 -8 -33)
1969-12-31 18:00:06.318781310,(3 -17 2 10 10 23 11 -6)
1969-12-31 18:00:06.318781310,(-14 28 7 -37 -59 -46 -12 -61)
1969-12-31 18:00:06.341031786,(18 -29 -25 -57 -58 -19 -23 19)
1969-12-31 18:00:06.341031786,(-6 -2 2 10 29 29 14 23)
1969-12-31 18:00:06.342144310,(10 -5 -5 5 15 9 13 20)
1969-12-31 18:00:06.342144310,(-17 20 17 -3 0 1 -12 -16)
1969-12-31 18:00:06.357719644,(46 3 0 2 -3 -7 24 47)
1969-12-31 18:00:06.357719644,(-15 -4 -10 8 -1 -2 4 -8)
1969-12-31 18:00:06.357719644,(-57 -35 -10 -5 -3 -13 -20 -20)
1969-12-31 18:00:06.358832168,(4 21 15 4 5 1 -4 -11)
1969-12-31 18:00:06.382195168,(19 4 -2 3 22 4 7 16)
1969-12-31 18:00:06.382195168,(44 12 -7 -8 -19 2 8 41)
1969-12-31 18:00:06.383307692,(59 17 8 -5 -6 0 -24 3)
1969-12-31 18:00:06.383307692,(-104 -16 15 43 29 -6 -5 -31)
1969-12-31 18:00:06.407783217,(10 -9 -9 6 4 15 26 -17)
1969-12-31 18:00:06.407783217,(-55 -23 -13 -23 -20 -19 -38 -55)
1969-12-31 18:00:06.408895741,(3 10 2 -12 -12 -21 -5 5)
1969-12-31 18:00:06.408895741,(104 60 21 17 25 18 11 34)
1969-12-31 18:00:06.424471074,(68 -5 -17 -18 -21 -10 -5 35)
1969-12-31 18:00:06.424471074,(-100 -31 -3 -5 -12 -10 -12 -62)
1969-12-31 18:00:06.425583598,(10 -6 -3 5 8 -1 -6 -9)
1969-12-31 18:00:06.425583598,(-39 -9 1 1 1 4 -2 -11)
1969-12-31 18:00:06.460071837,(18 6 4 -2 -6 7 16 36)
1969-12-31 18:00:06.460071837,(30 7 2 6 1 -2 -4 6)
1969-12-31 18:00:06.461184361,(-19 -11 -9 -1 -3 -7 -14 -24)
1969-12-31 18:00:06.461184361,(6 5 9 0 11 9 8 11)
1969-12-31 18:00:06.474534647,(-31 -5 -2 -2 -4 -3 -3 -4)
1969-12-31 18:00:06.474534647,(21 -11 -14 4 6 3 13 22)
1969-12-31 18:00:06.474534647,(62 20 3 -5 -1 -2 4 15)
1969-12-31 18:00:06.474534647,(-114 -62 -27 -54 -57 -30 -40 -103)
1969-12-31 18:00:06.491222505,(39 20 22 48 50 15 8 11)
1969-12-31 18:00:06.491222505,(46 16 8 35 16 9 7 36)
1969-12-31 18:00:06.492335029,(-17 -17 -4 10 6 0 -2 -16)
1969-12-31 18:00:06.492335029,(-9 -3 -6 -8 -12 -3 8 20)
1969-12-31 18:00:06.515698029,(-14 -10 -9 -19 -19 -4 2 3)
1969-12-31 18:00:06.515698029,(11 18 0 -16 -11 -4 4 -10)
1969-12-31 18:00:06.516810553,(-43 -22 -13 -13 -9 -5 -9 -35)
1969-12-31 18:00:06.516810553,(82 18 -3 7 17 11 15 40)
1969-12-31 18:00:06.541286078,(-85 -58 -31 -25 -23 -20 -33 -72)
1969-12-31 18:00:06.541286078,(17 50 29 11 13 11 14 15)
1969-12-31 18:00:06.542398601,(27 53 35 11 0 4 9 23)
1969-12-31 18:00:06.542398601,(-36 -43 -17 2 5 1 -3 -2)
1969-12-31 18:00:06.557973935,(15 16 -3 1 -3 -3 -2 1)
1969-12-31 18:00:06.557973935,(-7 -24 -18 -12 -9 -3 -16 -49)
1969-12-31 18:00:06.557973935,(51 17 7 4 8 12 28 60)
1969-12-31 18:00:06.557973935,(-24 -8 -9 -9 -4 -13 -21 -68)
1969-12-31 18:00:06.582449460,(-12 -6 1 4 1 2 -1 -3)
1969-12-31 18:00:06.582449460,(24 2 0 0 1 -2 0 25)
1969-12-31 18:00:06.583561983,(-29 -17 -12 -13 -8 -3 -7 -14)
1969-12-31 18:00:06.583561983,(41 22 17 17 14 11 19 43)
1969-12-31 18:00:06.619162746,(-51 -25 -16 -15 -12 -6 -4 -13)
1969-12-31 18:00:06.619162746,(0 0 15 14 12 -1 -5 -5)
1969-12-31 18:00:06.619162746,(-2 1 2 8 9 2 -1 0)
1969-12-31 18:00:06.620275270,(1 4 -1 1 -2 1 5 23)
1969-12-31 18:00:06.624725366,(26 1 -13 -12 -11 -6 -3 8)
1969-12-31 18:00:06.624725366,(-2 -6 -2 1 5 5 7 15)
1969-12-31 18:00:06.625837889,(-21 -21 -17 -11 -13 -14 -23 -15)
1969-12-31 18:00:06.625837889,(3 19 13 12 11 6 4 3)
1969-12-31 18:00:06.659213605,(11 8 10 -2 -8 -2 -3 -3)
1969-12-31 18:00:06.659213605,(-13 -19 -12 -8 -5 -4 3 1)
1969-12-31 18:00:06.659213605,(-24 -18 -9 -4 2 2 0 -11)
1969-12-31 18:00:06.659213605,(34 21 3 0 2 0 4 23)
1969-12-31 18:00:06.674788938,(-6 10 3 0 3 3 -1 -8)
1969-12-31 18:00:06.674788938,(-3 -13 -1 4 4 4 -1 0)
1969-12-31 18:00:06.675901462,(-18 -1 4 3 0 2 5 -13)
1969-12-31 18:00:06.675901462,(20 17 4 -1 -3 0 0 19)
1969-12-31 18:00:06.691476796,(-11 -15 3 4 4 -2 -1 -5)
1969-12-31 18:00:06.691476796,(13 30 5 -4 -9 -5 -4 2)
1969-12-31 18:00:06.692589320,(-18 -49 -12 -6 0 -2 -6 -12)
1969-12-31 18:00:06.692589320,(-3 4 2 3 0 1 4 8)
1969-12-31 18:00:06.715952320,(6 -1 -1 2 3 0 3 3)
1969-12-31 18:00:06.715952320,(-20 4 13 -3 -8 -5 -8 -7)
1969-12-31 18:00:06.717064844,(-3 -8 -7 4 4 3 1 6)
1969-12-31 18:00:06.717064844,(11 11 -3 -2 -4 -1 10 2)
1969-12-31 18:00:06.769353465,(3 -1 -5 -5 -5 -5 -19 -5)
1969-12-31 18:00:06.769353465,(2 -13 -11 -1 1 0 4 23)
1969-12-31 18:00:06.769353465,(3 12 -1 -4 -5 -5 -6 -12)
1969-12-31 18:00:06.769353465,(-14 -27 -7 1 2 4 5 1)
1969-12-31 18:00:06.771578512,(5 21 10 4 1 0 -3 2)
1969-12-31 18:00:06.771578512,(6 -13 -11 -7 -8 -5 -3 -3)
1969-12-31 18:00:06.774916084,(0 1 -4 -6 0 -1 -5 1)
1969-12-31 18:00:06.774916084,(-15 -25 -2 2 1 1 0 -8)
1969-12-31 18:00:06.782703751,(8 12 6 1 -1 0 0 1)
1969-12-31 18:00:06.782703751,(1 3 0 -2 -4 0 2 5)
1969-12-31 18:00:06.783816275,(-7 6 4 -2 -5 -5 2 2)
1969-12-31 18:00:06.783816275,(6 4 2 -1 1 2 4 3)
1969-12-31 18:00:06.810516847,(-3 -16 -6 -2 2 4 3 6)
1969-12-31 18:00:06.810516847,(-8 -20 -13 -2 -2 -2 2 -8)
1969-12-31 18:00:06.810516847,(7 36 27 11 3 -3 -4 -2)
1969-12-31 18:00:06.810516847,(-3 4 1 -4 -2 -4 -12 -6)
1969-12-31 18:00:06.824979657,(-4 -32 -32 -12 -5 -3 11 11)
1969-12-31 18:00:06.824979657,(1 12 10 7 1 -3 -14 -10)
1969-12-31 18:00:06.824979657,(-18 14 35 3 0 3 2 -5)
1969-12-31 18:00:06.824979657,(9 32 14 14 5 4 15 11)
1969-12-31 18:00:06.849455181,(-11 0 1 -1 -8 -11 -28 -28)
1969-12-31 18:00:06.849455181,(-3 -24 -20 -10 -5 -4 -7 -5)
1969-12-31 18:00:06.850567705,(11 -3 -8 -1 0 2 7 6)
1969-12-31 18:00:06.850567705,(-8 -24 -18 -12 -4 4 -3 0)
1969-12-31 18:00:06.875043229,(-6 2 2 -1 -1 1 13 1)
1969-12-31 18:00:06.875043229,(6 2 -1 4 3 0 -6 7)
1969-12-31 18:00:06.876155753,(-8 -50 -34 -13 -8 -7 -9 -14)
1969-12-31 18:00:06.876155753,(7 39 21 7 6 2 5 2)
1969-12-31 18:00:06.891731087,(3 11 3 2 1 1 -9 5)
1969-12-31 18:00:06.891731087,(-4 5 6 -4 -3 -2 -6 1)
1969-12-31 18:00:06.891731087,(2 -29 -55 -18 -3 1 -1 -8)
1969-12-31 18:00:06.891731087,(-9 -4 31 5 -3 -6 -12 -9)
1969-12-31 18:00:06.936232041,(6 16 15 11 9 10 16 10)
1969-12-31 18:00:06.936232041,(2 -3 1 -3 -2 -2 2 8)
1969-12-31 18:00:06.936232041,(5 18 6 5 4 3 0 6)
1969-12-31 18:00:06.936232041,(1 -26 -40 -14 -10 -10 -11 -8)
1969-12-31 18:00:06.941794660,(-5 -3 11 2 1 5 2 -4)
1969-12-31 18:00:06.941794660,(4 -42 -14 3 3 0 6 8)
1969-12-31 18:00:06.942907184,(6 18 -2 -7 -4 -1 -3 -2)
1969-12-31 18:00:06.942907184,(1 27 20 9 4 1 -6 -2)
1969-12-31 18:00:06.958482516,(-5 10 23 16 2 1 31 7)
1969-12-31 18:00:06.958482516,(-4 -20 -21 -10 -4 0 -27 -16)
1969-12-31 18:00:06.958482516,(-3 0 15 7 2 -1 -8 -4)
1969-12-31 18:00:06.958482516,(-11 -25 -15 -11 -7 -7 -9 -6)
1969-12-31 18:00:06.982958042,(-2 -37 -35 -20 -7 1 9 0)
1969-12-31 18:00:06.982958042,(2 13 5 3 1 8 12 6)
1969-12-31 18:00:06.984070566,(1 39 37 12 -1 -6 -16 -15)
1969-12-31 18:00:06.984070566,(11 24 20 15 5 5 2 2)
1969-12-31 18:00:07.008546090,(-4 -48 -49 -27 -11 -6 -8 1)
1969-12-31 18:00:07.008546090,(-10 10 30 24 8 1 4 -8)
1969-12-31 18:00:07.008546090,(-10 -27 -19 -3 -3 -1 1 7)
1969-12-31 18:00:07.008546090,(4 -11 -7 -7 0 -1 13 12)
1969-12-31 18:00:07.008546090,(-2 -2 4 8 5 3 0 -3)
1969-12-31 18:00:07.008546090,(0 -2 1 1 2 -1 -2 0)
1969-12-31 18:00:07.010771138,(-2 -4 4 6 -5 -2 -4 -10)
1969-12-31 18:00:07.010771138,(-1 -1 -9 -13 -6 5 1 -2)
1969-12-31 18:00:07.050821996,(-1 1 5 3 1 -4 -7 -3)
1969-12-31 18:00:07.050821996,(-2 -4 -3 -2 0 5 5 1)
1969-12-31 18:00:07.053047044,(0 -3 -5 -1 -2 1 0 4)
1969-12-31 18:00:07.053047044,(-2 -4 -4 -3 -3 -3 -6 -2)
1969-12-31 18:00:07.054159568,(3 1 -2 -1 -1 -1 1 -1)
1969-12-31 18:00:07.054159568,(0 2 -1 -1 0 4 3 2)
1969-12-31 18:00:07.058609663,(-2 -1 1 -1 -3 -6 -5 -4)
1969-12-31 18:00:07.058609663,(-2 -4 -2 -2 0 -1 -3 -2)
1969-12-31 18:00:07.075297521,(-3 -3 -2 -4 -4 0 -3 -1)
1969-12-31 18:00:07.075297521,(1 0 -2 -2 2 5 4 0)
1969-12-31 18:00:07.077522568,(-2 0 4 2 -3 -9 -8 -11)
1969-12-31 18:00:07.077522568,(-3 0 0 -3 -3 5 3 -1)
1969-12-31 18:00:07.126473617,(2 -1 -4 -11 -16 -10 -6 0)
1969-12-31 18:00:07.126473617,(-2 -7 -2 6 20 10 6 1)
1969-12-31 18:00:07.128698665,(2 2 3 9 2 0 -1 0)
1969-12-31 18:00:07.128698665,(-2 -3 -3 -5 -4 -3 0 0)
1969-12-31 18:00:07.129811189,(-3 -3 1 1 2 5 1 -5)
1969-12-31 18:00:07.129811189,(-2 -2 -7 -9 -13 -11 -5 3)
1969-12-31 18:00:07.144273999,(-2 1 0 -1 4 2 6 2)
1969-12-31 18:00:07.144273999,(-1 -2 -5 1 -1 -4 1 6)
1969-12-31 18:00:07.145386523,(-2 -3 -1 -3 2 1 6 7)
1969-12-31 18:00:07.145386523,(0 3 -3 -2 -4 -6 -7 -9)
1969-12-31 18:00:07.148724094,(1 1 -4 -2 2 0 0 2)
1969-12-31 18:00:07.148724094,(2 -1 -4 -4 -4 -3 0 0)
1969-12-31 18:00:07.166524476,(-1 1 0 2 2 -3 -1 3)
1969-12-31 18:00:07.166524476,(-2 -1 -2 2 2 4 1 -1)
1969-12-31 18:00:07.168749523,(-2 -1 0 2 1 0 4 6)
1969-12-31 18:00:07.168749523,(0 3 2 -4 -3 -5 -7 -7)
1969-12-31 18:00:07.192112523,(-2 -1 0 -2 1 0 0 0)
1969-12-31 18:00:07.192112523,(-2 -5 -1 -2 -4 -2 0 0)
1969-12-31 18:00:07.193225048,(0 -3 -5 -5 -4 0 -2 1)
1969-12-31 18:00:07.193225048,(1 1 7 5 1 1 -1 1)
1969-12-31 18:00:07.208800381,(2 5 1 3 3 -1 -18 -20)
1969-12-31 18:00:07.208800381,(-1 -7 -9 -6 -5 0 5 5)
1969-12-31 18:00:07.211025429,(-5 14 24 11 3 -1 -9 -9)
1969-12-31 18:00:07.211025429,(-2 17 20 7 3 4 0 4)
1969-12-31 18:00:07.268876669,(-7 -10 -7 -4 -5 -1 7 -6)
1969-12-31 18:00:07.268876669,(10 8 2 2 0 -2 -6 -4)
1969-12-31 18:00:07.271101716,(-5 -19 -17 -8 -4 -1 -2 -10)
1969-12-31 18:00:07.271101716,(4 -8 -10 -5 -5 -1 1 10)
1969-12-31 18:00:07.272214240,(1 3 1 1 0 1 7 19)
1969-12-31 18:00:07.272214240,(-7 -4 -3 -4 -4 -9 -9 -13)
1969-12-31 18:00:07.277776860,(-3 -2 0 -2 0 1 2 -3)
1969-12-31 18:00:07.277776860,(4 -2 -2 -2 -1 0 1 4)
1969-12-31 18:00:07.278889383,(18 7 -1 0 4 7 12 33)
1969-12-31 18:00:07.278889383,(2 -1 -2 -1 -5 -5 -9 -11)
1969-12-31 18:00:07.282226955,(-20 -3 -2 1 1 -3 -6 -9)
1969-12-31 18:00:07.282226955,(13 -4 -12 -7 -1 2 9 13)
1969-12-31 18:00:07.301139860,(1 2 -2 -3 -2 -1 -3 -24)
1969-12-31 18:00:07.301139860,(29 9 9 8 6 3 9 39)
1969-12-31 18:00:07.302252384,(-67 -19 -9 -7 -6 -5 -7 -28)
1969-12-31 18:00:07.302252384,(-2 -10 -11 -6 -2 -4 -14 -18)
1969-12-31 18:00:07.315602670,(-11 -5 -4 -4 -2 3 25 33)
1969-12-31 18:00:07.315602670,(-20 -2 -2 -3 -4 -7 -20 -52)
1969-12-31 18:00:07.326727908,(69 26 5 4 6 2 8 35)
1969-12-31 18:00:07.326727908,(9 -13 -12 -7 -4 -9 -5 2)
1969-12-31 18:00:07.342303242,(-58 -21 -7 -3 -2 -12 -10 -10)
1969-12-31 18:00:07.342303242,(-15 -5 -5 -7 3 45 25 36)
1969-12-31 18:00:07.344528290,(16 -2 -1 -6 -16 -48 13 15)
1969-12-31 18:00:07.344528290,(15 6 4 -4 -4 -4 -25 -36)
1969-12-31 18:00:07.367891291,(19 18 23 12 2 -14 -31 -43)
1969-12-31 18:00:07.367891291,(-3 -6 6 2 3 36 -13 2)
1969-12-31 18:00:07.369003814,(-32 -19 -8 -11 -17 -32 10 0)
1969-12-31 18:00:07.369003814,(-43 -14 6 7 9 24 -17 2)
1969-12-31 18:00:07.382354100,(22 0 0 -1 1 -6 11 39)
1969-12-31 18:00:07.382354100,(25 12 -5 -2 -5 -27 -38 -67)
1969-12-31 18:00:07.392366815,(19 17 9 6 8 45 14 3)
1969-12-31 18:00:07.392366815,(-33 -8 -7 -2 -11 -20 4 -29)
1969-12-31 18:00:07.435755245,(11 4 -2 -3 -1 6 -11 6)
1969-12-31 18:00:07.435755245,(15 24 8 4 5 8 28 20)
1969-12-31 18:00:07.436867769,(30 -4 0 4 5 -2 -8 57)
1969-12-31 18:00:07.437980292,(18 7 -3 -2 -2 -33 4 32)
1969-12-31 18:00:07.437980292,(6 7 2 4 10 90 11 -80)
1969-12-31 18:00:07.437980292,(-6 -6 -4 -2 -1 5 15 48)
1969-12-31 18:00:07.442430388,(29 14 0 -3 -3 -21 9 4)
1969-12-31 18:00:07.442430388,(-10 2 7 7 7 8 -5 15)
1969-12-31 18:00:07.449105531,(28 -5 -5 -3 -5 -27 14 93)
1969-12-31 18:00:07.449105531,(-8 0 -5 -3 -3 -15 4 -3)
1969-12-31 18:00:07.459118245,(27 13 10 12 19 65 -2 32)
1969-12-31 18:00:07.459118245,(-20 -7 -3 -1 -8 -34 7 -11)
1969-12-31 18:00:07.475806103,(-29 -16 -13 -11 -10 -22 -21 -54)
1969-12-31 18:00:07.475806103,(-15 -25 -3 -4 -8 -47 1 -11)
1969-12-31 18:00:07.478031151,(-17 -5 -6 -7 -2 17 -14 8)
1969-12-31 18:00:07.478031151,(19 2 0 -1 -2 9 7 15)
1969-12-31 18:00:07.501394151,(36 25 4 2 -16 -96 -23 4)
1969-12-31 18:00:07.501394151,(-47 -17 -1 4 16 67 34 64)
1969-12-31 18:00:07.502506675,(-23 -21 -14 -15 -18 -25 -11 -60)
1969-12-31 18:00:07.502506675,(13 5 4 1 2 1 -1 12)
1969-12-31 18:00:07.515856961,(-29 -30 -12 -3 5 42 29 17)
1969-12-31 18:00:07.515856961,(23 12 7 5 4 -10 -13 -1)
1969-12-31 18:00:07.525869676,(-7 11 4 5 1 -17 -11 -22)
1969-12-31 18:00:07.525869676,(22 -1 -1 3 8 60 39 28)
1969-12-31 18:00:07.541445010,(19 5 0 1 11 31 13 77)
1969-12-31 18:00:07.541445010,(-3 2 -6 -6 -9 -59 -46 -62)
1969-12-31 18:00:07.578158296,(-7 -6 0 4 -2 -1 21 52)
1969-12-31 18:00:07.578158296,(-49 -1 -6 -10 -16 -41 -18 -63)
1969-12-31 18:00:07.579270820,(-47 -20 -5 -6 -4 4 -17 -55)
1969-12-31 18:00:07.579270820,(11 14 7 3 0 17 8 -2)
1969-12-31 18:00:07.583720915,(-47 -39 -12 -9 -5 -7 -9 -12)
1969-12-31 18:00:07.583720915,(59 30 17 12 17 49 16 87)
1969-12-31 18:00:07.583720915,(-20 -9 -8 -10 -15 -45 -29 -74)
1969-12-31 18:00:07.584833439,(-32 -12 -7 -6 -7 -19 6 -38)
1969-12-31 18:00:07.592621106,(22 16 11 8 15 38 -2 29)
1969-12-31 18:00:07.592621106,(25 19 -4 -6 -12 -51 -8 -35)
1969-12-31 18:00:07.608196440,(3 -1 7 7 1 8 7 -9)
1969-12-31 18:00:07.608196440,(22 5 7 10 13 16 2 65)
1969-12-31 18:00:07.615984107,(4 1 -4 0 0 -11 2 -36)
1969-12-31 18:00:07.615984107,(-44 -35 -14 -5 3 16 24 17)
1969-12-31 18:00:07.634897012,(-21 -7 -4 -5 -8 -15 -35 0)
1969-12-31 18:00:07.634897012,(3 5 -3 -5 -9 15 18 21)
1969-12-31 18:00:07.636009536,(-3 -1 -1 -4 -3 -21 0 6)
1969-12-31 18:00:07.636009536,(-5 6 3 0 1 3 -22 -31)
1969-12-31 18:00:07.649359822,(15 14 1 1 2 5 17 -11)
1969-12-31 18:00:07.649359822,(-11 -5 2 0 0 -1 -6 -23)
1969-12-31 18:00:07.659372537,(5 13 9 11 17 22 6 10)
1969-12-31 18:00:07.659372537,(-23 -22 -24 -22 -21 -3 -20 -48)
1969-12-31 18:00:07.676060394,(14 -3 3 2 -3 -50 5 53)
1969-12-31 18:00:07.676060394,(33 14 4 0 1 12 3 -1)
1969-12-31 18:00:07.678285442,(6 -7 -2 1 6 22 23 -9)
1969-12-31 18:00:07.678285442,(-5 10 10 9 6 -7 -3 -34)
1969-12-31 18:00:07.701648442,(37 21 5 1 3 13 -19 -13)
1969-12-31 18:00:07.701648442,(-69 -40 -11 -3 -5 -19 -14 -37)
1969-12-31 18:00:07.702760966,(32 3 -6 -9 -4 37 42 42)
1969-12-31 18:00:07.702760966,(12 2 4 3 6 9 -33 9)
1969-12-31 18:00:07.735024158,(-55 -19 -16 -14 -13 -8 -16 -37)
1969-12-31 18:00:07.735024158,(13 8 4 2 1 -5 -14 -20)
1969-12-31 18:00:07.736136682,(-16 -15 -5 -2 -10 -17 -24 -23)
1969-12-31 18:00:07.736136682,(-8 -8 -5 -1 6 37 8 -3)
1969-12-31 18:00:07.741699301,(32 32 13 11 9 4 -16 -9)
1969-12-31 18:00:07.741699301,(6 -22 -11 -7 -4 4 30 60)
1969-12-31 18:00:07.749486968,(-53 -7 0 -1 -4 -25 -62 -82)
1969-12-31 18:00:07.749486968,(8 3 -2 -4 -6 -18 0 -38)
1969-12-31 18:00:07.768399873,(-52 -26 -7 -3 -1 10 8 -38)
1969-12-31 18:00:07.768399873,(10 29 8 2 -5 -8 2 -29)
1969-12-31 18:00:07.769512397,(-1 -23 -8 -4 10 4 5 12)
1969-12-31 18:00:07.769512397,(-4 -7 0 0 -3 -9 -26 5)
1969-12-31 18:00:07.782862683,(16 11 6 5 -5 -4 11 12)
1969-12-31 18:00:07.782862683,(7 1 -1 1 25 12 -5 -3)
1969-12-31 18:00:07.792875397,(18 23 9 13 28 1 -3 4)
1969-12-31 18:00:07.792875397,(25 17 9 15 -10 -37 5 55)
1969-12-31 18:00:07.808450731,(7 -9 -5 -18 -57 19 14 23)
1969-12-31 18:00:07.808450731,(11 -5 -8 -27 -51 -37 -12 -24)
1969-12-31 18:00:07.816238398,(23 10 1 -10 -4 6 10 41)
1969-12-31 18:00:07.816238398,(-9 -8 1 4 29 23 28 26)
1969-12-31 18:00:07.835151303,(10 4 5 17 42 68 15 7)
1969-12-31 18:00:07.835151303,(11 11 1 8 22 -45 -23 -13)
1969-12-31 18:00:07.836263827,(-7 -2 -3 -7 -29 18 3 -4)
1969-12-31 18:00:07.836263827,(14 19 5 1 -29 -31 10 10)
1969-12-31 18:00:07.886327400,(-5 -9 2 9 8 0 3 23)
1969-12-31 18:00:07.886327400,(-7 -6 0 -1 -10 -21 -8 5)
1969-12-31 18:00:07.888552448,(8 5 -2 -6 -4 31 39 -20)
1969-12-31 18:00:07.888552448,(-22 -14 -8 -6 4 -34 -19 -22)
1969-12-31 18:00:07.888552448,(0 12 6 2 13 -5 0 -11)
1969-12-31 18:00:07.888552448,(0 -1 -1 12 29 59 40 48)
1969-12-31 18:00:07.903015257,(-14 -1 -1 1 -3 -34 -25 -22)
1969-12-31 18:00:07.903015257,(-8 -6 -2 0 13 19 12 -27)
1969-12-31 18:00:07.904127781,(0 -8 -7 -10 -20 -19 -4 10)
1969-12-31 18:00:07.904127781,(16 6 5 5 17 8 9 34)
1969-12-31 18:00:07.908577877,(-27 -5 -2 2 -9 -13 -9 -19)
1969-12-31 18:00:07.908577877,(6 18 6 -2 -21 5 9 26)
1969-12-31 18:00:07.934165925,(13 -13 0 2 20 9 20 42)
1969-12-31 18:00:07.934165925,(-43 -5 3 10 28 28 -16 -47)
1969-12-31 18:00:07.936390973,(17 8 -2 -8 -32 -42 -9 7)
1969-12-31 18:00:07.936390973,(5 7 0 3 11 0 -5 12)
1969-12-31 18:00:07.941953592,(-10 -16 -10 -12 -1 7 6 18)
1969-12-31 18:00:07.941953592,(7 11 -2 -9 -22 -16 -12 -3)
1969-12-31 18:00:07.949741259,(-19 -11 -3 -7 7 10 -15 -30)
1969-12-31 18:00:07.949741259,(7 5 2 4 8 23 13 20)
1969-12-31 18:00:07.968654164,(-6 5 -4 -1 -7 -19 4 14)
1969-12-31 18:00:07.968654164,(6 -22 -26 4 54 43 29 3)
1969-12-31 18:00:07.969766688,(5 8 7 7 -26 -53 -53 -31)
1969-12-31 18:00:07.969766688,(-32 -5 24 -6 -62 -39 -11 -9)
1969-12-31 18:00:07.993129688,(11 25 6 -4 1 13 -15 3)
1969-12-31 18:00:07.993129688,(-16 -31 -5 -6 -21 -18 6 9)
1969-12-31 18:00:07.995354736,(23 13 -11 -8 10 11 9 23)
1969-12-31 18:00:07.995354736,(-4 -8 -11 2 26 20 -8 -8)
1969-12-31 18:00:08.009817546,(25 1 0 3 0 -11 6 11)
1969-12-31 18:00:08.009817546,(37 21 9 5 -9 -13 -8 11)
1969-12-31 18:00:08.044305785,(-1 -23 -22 -1 22 12 12 6)
1969-12-31 18:00:08.044305785,(23 -10 -5 2 -17 -7 10 38)
1969-12-31 18:00:08.045418309,(-20 28 42 6 -11 2 0 -30)
1969-12-31 18:00:08.045418309,(-10 -6 -3 -11 1 -16 -32 -10)
1969-12-31 18:00:08.046530833,(-1 15 19 9 -22 -18 4 -14)
1969-12-31 18:00:08.046530833,(-12 -29 -27 -18 -6 -8 -8 12)
1969-12-31 18:00:08.059881119,(-7 -27 -39 -5 15 21 1 -39)
1969-12-31 18:00:08.059881119,(-39 5 37 12 5 -1 -5 -14)
1969-12-31 18:00:08.062106167,(27 -31 -73 -15 23 15 8 26)
1969-12-31 18:00:08.062106167,(2 80 88 15 -11 -6 -9 17)
1969-12-31 18:00:08.075456453,(-36 9 45 10 -35 -48 -1 -6)
1969-12-31 18:00:08.075456453,(12 8 -4 -9 5 9 -11 1)
1969-12-31 18:00:08.083244120,(3 -38 -25 -2 -13 9 23 48)
1969-12-31 18:00:08.083244120,(40 -26 -69 -13 16 19 10 41)
1969-12-31 18:00:08.101044501,(4 -13 -21 3 56 53 2 -33)
1969-12-31 18:00:08.101044501,(-21 110 107 32 -52 -46 -15 -29)
1969-12-31 18:00:08.103269549,(-36 -33 -2 -3 -11 -31 17 28)
1969-12-31 18:00:08.103269549,(-10 -18 -16 -9 -3 5 -26 -49)
1969-12-31 18:00:08.126632549,(26 -63 -59 6 72 24 2 18)
1969-12-31 18:00:08.126632549,(-10 -61 -114 -32 -41 -7 -9 -47)
1969-12-31 18:00:08.128857597,(-30 112 120 8 -50 -17 -25 -52)
1969-12-31 18:00:08.128857597,(-19 -12 -23 26 96 94 48 -29)
1969-12-31 18:00:08.142207883,(-14 72 66 -15 -117 -112 -24 -1)
1969-12-31 18:00:08.142207883,(40 -75 -77 -20 28 5 1 46)
1969-12-31 18:00:08.149995550,(4 -2 -29 0 -3 -19 -16 9)
1969-12-31 18:00:08.149995550,(-28 98 105 28 3 3 -18 -45)
1969-12-31 18:00:08.195609027,(-23 -101 -51 10 60 55 4 29)
1969-12-31 18:00:08.195609027,(51 8 -23 -12 -36 -8 36 76)
1969-12-31 18:00:08.196721551,(-9 -11 16 11 27 30 24 14)
1969-12-31 18:00:08.196721551,(26 -61 -57 -6 74 56 -7 5)
1969-12-31 18:00:08.197834075,(16 42 -13 -11 -87 -67 -3 -13)
1969-12-31 18:00:08.197834075,(-35 47 69 10 -29 -16 -20 19)
1969-12-31 18:00:08.202284170,(-34 6 8 3 40 35 -4 -51)
1969-12-31 18:00:08.202284170,(-9 -82 -69 -24 -14 -25 -18 -3)
1969-12-31 18:00:08.208959313,(-4 -12 -53 -19 18 -12 -11 27)
1969-12-31 18:00:08.208959313,(6 61 64 26 -1 0 13 -18)
1969-12-31 18:00:08.218972028,(12 3 -6 -9 -26 -17 -16 11)
1969-12-31 18:00:08.218972028,(17 -16 -49 -26 -36 1 79 53)
1969-12-31 18:00:08.234547362,(-23 26 61 5 -51 -20 -42 -4)
1969-12-31 18:00:08.234547362,(-1 -128 -125 -25 91 12 -58 -68)
1969-12-31 18:00:08.243447552,(73 100 24 2 -45 -46 11 87)
1969-12-31 18:00:08.243447552,(-49 57 105 18 -59 -46 -16 -42)
1969-12-31 18:00:08.260135410,(35 6 -71 -15 21 39 25 1)
1969-12-31 18:00:08.260135410,(-8 -23 3 -3 -16 3 11 44)
1969-12-31 18:00:08.261247934,(-38 -9 2 18 95 73 32 12)
1969-12-31 18:00:08.261247934,(32 -26 -54 -14 -25 -39 -14 31)
1969-12-31 18:00:08.275710744,(9 -40 -15 11 26 26 12 -33)
1969-12-31 18:00:08.276823268,(-44 85 79 13 -28 -6 21 16)
1969-12-31 18:00:08.283498411,(57 -14 -55 -32 -45 -69 -49 12)
1969-12-31 18:00:08.283498411,(-32 -26 -7 -10 -11 -8 -50 -80)
1969-12-31 18:00:08.302411316,(-54 5 54 23 19 14 26 -12)
1969-12-31 18:00:08.302411316,(-1 -104 -68 -9 63 53 15 -1)
1969-12-31 18:00:08.303523840,(23 -77 -52 -3 -12 -9 37 49)
1969-12-31 18:00:08.303523840,(-12 127 107 36 53 13 50 20)
1969-12-31 18:00:08.351362365,(3 14 11 3 -60 -11 -53 -26)
1969-12-31 18:00:08.351362365,(-11 -81 -72 -46 -73 -31 15 -75)
1969-12-31 18:00:08.362487603,(-57 95 80 22 39 -8 -17 -65)
1969-12-31 18:00:08.362487603,(11 -77 -92 -25 -8 -12 -13 62)
1969-12-31 18:00:08.363600127,(-30 15 -54 2 81 53 18 -26)
1969-12-31 18:00:08.363600127,(-2 22 35 16 -84 -43 30 32)
1969-12-31 18:00:08.369162746,(32 55 71 17 5 36 -15 -8)
1969-12-31 18:00:08.369162746,(-33 -111 -44 -14 -8 -7 10 -28)
1969-12-31 18:00:08.370275270,(-8 8 4 1 36 9 25 20)
1969-12-31 18:00:08.370275270,(34 -63 -68 -10 5 -7 -28 9)
1969-12-31 18:00:08.372500318,(24 24 8 3 16 24 37 8)
1969-12-31 18:00:08.372500318,(-24 60 41 26 50 29 3 17)
1969-12-31 18:00:08.393638271,(-15 -35 11 0 -48 -17 -13 45)
1969-12-31 18:00:08.393638271,(61 120 111 36 23 6 -11 -19)
1969-12-31 18:00:08.395863318,(9 -128 -128 -32 5 9 3 -34)
1969-12-31 18:00:08.395863318,(-6 127 123 64 21 26 29 -12)
1969-12-31 18:00:08.409213605,(-25 -125 -75 -73 -83 -65 -40 -23)
1969-12-31 18:00:08.409213605,(0 35 21 35 74 33 8 11)
1969-12-31 18:00:08.419226319,(-12 -72 -47 -20 -32 -22 -19 -36)
1969-12-31 18:00:08.419226319,(12 -67 -110 -43 35 30 -12 -11)
1969-12-31 18:00:08.435914177,(-5 126 119 19 -87 -52 -4 -29)
1969-12-31 18:00:08.435914177,(-24 -31 -27 -28 -26 -15 -18 -41)
1969-12-31 18:00:08.437026701,(-9 -73 19 30 55 39 9 -14)
1969-12-31 18:00:08.437026701,(40 -128 -103 -8 75 68 45 61)
1969-12-31 18:00:08.460389701,(-4 56 -5 -6 -35 -66 -38 -50)
1969-12-31 18:00:08.460389701,(-41 41 11 -21 -53 -24 -54 -19)
1969-12-31 18:00:08.461502225,(-36 -59 -10 5 1 -5 -3 -18)
1969-12-31 18:00:08.461502225,(-4 -80 -39 -16 -32 -27 -18 -19)
1969-12-31 18:00:08.503778131,(46 -84 -106 -29 56 46 32 68)
1969-12-31 18:00:08.503778131,(15 102 100 40 0 3 4 -1)
1969-12-31 18:00:08.506003179,(-32 -61 -22 -18 -52 -45 -20 -24)
1969-12-31 18:00:08.506003179,(21 -81 -76 -26 -3 3 -9 -3)
1969-12-31 18:00:08.507115702,(48 97 89 62 71 43 17 32)
1969-12-31 18:00:08.507115702,(21 -31 -91 -31 2 -23 0 17)
1969-12-31 18:00:08.510453274,(-8 127 122 45 -45 6 -23 29)
1969-12-31 18:00:08.510453274,(-14 2 14 -15 -73 -55 -20 -43)
1969-12-31 18:00:08.527141132,(0 -101 -55 24 127 92 49 26)
1969-12-31 18:00:08.527141132,(7 -98 -89 -17 19 17 31 -10)
1969-12-31 18:00:08.528253655,(6 123 89 15 -15 8 50 38)
1969-12-31 18:00:08.528253655,(5 41 1 -63 -128 -100 -75 -47)
1969-12-31 18:00:08.542716465,(11 9 31 11 -15 -21 -13 -13)
1969-12-31 18:00:08.542716465,(-30 -60 -8 9 78 77 36 43)
1969-12-31 18:00:08.552729180,(26 -21 -68 -18 16 -4 7 58)
1969-12-31 18:00:08.552729180,(-14 2 9 21 4 7 5 -16)
1969-12-31 18:00:08.568304514,(14 -62 -96 -34 21 30 52 33)
1969-12-31 18:00:08.568304514,(-31 97 99 70 -2 -34 -92 -65)
1969-12-31 18:00:08.570529561,(-10 -107 -100 -22 -22 -20 -8 11)
1969-12-31 18:00:08.570529561,(-2 -57 17 23 22 4 -13 -5)
1969-12-31 18:00:08.593892562,(54 -21 -35 -30 -39 -37 12 3)
1969-12-31 18:00:08.593892562,(-25 -126 -110 -42 52 39 10 24)
1969-12-31 18:00:08.596117610,(-40 127 104 2 -97 -30 -14 -89)
1969-12-31 18:00:08.596117610,(-8 35 41 17 1 -34 -53 -30)
1969-12-31 18:00:08.609467896,(-2 -64 -67 1 92 92 56 -5)
1969-12-31 18:00:08.609467896,(-22 70 72 -21 -117 -92 -45 -25)
1969-12-31 18:00:08.618368086,(2 -49 -69 -25 35 -1 -100 -49)
1969-12-31 18:00:08.618368086,(-12 -34 -43 19 22 46 54 14)
1969-12-31 18:00:08.670656707,(7 19 63 -33 -109 -100 -22 7)
1969-12-31 18:00:08.670656707,(15 50 9 13 53 37 21 20)
1969-12-31 18:00:08.672881755,(28 -59 -51 -30 7 -1 10 -45)
1969-12-31 18:00:08.672881755,(-16 121 87 40 51 26 13 46)
1969-12-31 18:00:08.672881755,(-16 59 -4 23 13 1 -70 -105)
1969-12-31 18:00:08.672881755,(-11 -128 -72 -21 -16 11 47 41)
1969-12-31 18:00:08.678444374,(12 -16 -13 14 16 -2 -2 -3)
1969-12-31 18:00:08.678444374,(20 6 -20 -25 -31 -13 -1 -8)
1969-12-31 18:00:08.678444374,(-43 1 24 10 82 58 20 2)
1969-12-31 18:00:08.679556898,(16 -65 -27 -11 -109 -93 17 26)
1969-12-31 18:00:08.686232041,(4 46 -3 22 78 52 -5 -4)
1969-12-31 18:00:08.686232041,(-1 78 72 -26 -122 -73 -45 -33)
1969-12-31 18:00:08.702919898,(10 18 20 -22 -77 -43 -34 17)
1969-12-31 18:00:08.702919898,(6 -69 -44 -10 45 39 19 -2)
1969-12-31 18:00:08.704032422,(-13 -127 -68 11 121 89 39 33)
1969-12-31 18:00:08.704032422,(19 -5 -25 20 -18 -24 58 55)
1969-12-31 18:00:08.727395423,(-25 127 127 27 -42 -37 -18 -43)
1969-12-31 18:00:08.727395423,(34 -17 -33 -8 40 36 -5 20)
1969-12-31 18:00:08.729620470,(11 -40 16 3 -14 -19 22 44)
1969-12-31 18:00:08.729620470,(10 66 15 2 17 27 -18 3)
1969-12-31 18:00:08.742970757,(-6 -71 -76 -17 -15 -19 -14 -46)
1969-12-31 18:00:08.742970757,(-28 -54 -13 -7 -18 -13 -9 -22)
1969-12-31 18:00:08.752983471,(-1 91 62 10 7 4 2 -15)
1969-12-31 18:00:08.752983471,(-4 -40 -26 16 44 30 0 -11)
1969-12-31 18:00:08.769671329,(65 -43 -27 26 59 19 34 92)
1969-12-31 18:00:08.769671329,(-35 88 100 16 -22 10 -12 -50)
1969-12-31 18:00:08.770783853,(-31 -81 -62 -42 -80 -57 -28 -3)
1969-12-31 18:00:08.770783853,(-19 -16 -9 -25 -3 -12 9 -8)
1969-12-31 18:00:08.813059758,(-9 -24 0 12 -32 -18 -27 -11)
1969-12-31 18:00:08.813059758,(30 -57 -57 -8 66 44 7 31)
1969-12-31 18:00:08.814172282,(27 66 -17 -20 -61 -51 5 12)
1969-12-31 18:00:08.814172282,(-87 -10 37 17 58 32 5 -76)
1969-12-31 18:00:08.815284806,(8 3 -10 -2 -5 -10 -23 32)
1969-12-31 18:00:08.815284806,(11 -3 -5 -1 2 -5 3 -2)
1969-12-31 18:00:08.819734901,(-27 -108 -96 -33 -15 -5 -8 -5)
1969-12-31 18:00:08.819734901,(35 33 7 10 20 20 29 57)
1969-12-31 18:00:08.835310235,(-15 100 103 26 6 12 22 -16)
1969-12-31 18:00:08.835310235,(22 64 11 -1 -38 -33 -17 -18)
1969-12-31 18:00:08.843097902,(-66 -55 -28 -3 7 5 -15 -69)
1969-12-31 18:00:08.843097902,(38 -6 -8 32 91 72 35 41)
1969-12-31 18:00:08.860898284,(-1 -19 -17 -43 -89 -70 -8 26)
1969-12-31 18:00:08.860898284,(27 36 16 -8 -19 -24 21 26)
1969-12-31 18:00:08.863123331,(12 24 42 31 66 52 0 -25)
1969-12-31 18:00:08.863123331,(-22 -64 -39 -30 -7 -41 -19 -20)
1969-12-31 18:00:08.895386523,(-37 -13 -14 -11 -23 -16 -27 -69)
1969-12-31 18:00:08.895386523,(3 62 29 6 1 27 31 41)
1969-12-31 18:00:08.896499046,(16 -5 7 -6 -5 -9 13 56)
1969-12-31 18:00:08.896499046,(-8 -54 -22 9 0 5 -10 15)
1969-12-31 18:00:08.902061666,(38 -14 -27 -4 17 15 -19 -4)
1969-12-31 18:00:08.902061666,(-37 -35 2 12 0 -16 10 9)
1969-12-31 18:00:08.912074380,(36 62 3 4 10 16 10 19)
1969-12-31 18:00:08.912074380,(-1 84 87 11 -13 -17 -22 -13)
1969-12-31 18:00:08.913186904,(36 62 3 4 10 16 10 19)
1969-12-31 18:00:08.913186904,(-1 84 87 11 -13 -17 -22 -13)
1969-12-31 18:00:08.915411952,(-13 -127 -68 11 121 89 39 33)
1969-12-31 18:00:08.915411952,(19 -5 -25 20 -18 -24 58 55)
1969-12-31 18:00:08.918749523,(-25 127 127 27 -42 -37 -18 -43)
1969-12-31 18:00:08.918749523,(34 -17 -33 -8 40 36 -5 20)
1969-12-31 18:00:08.927649714,(5 -34 -52 -4 15 30 32 45)
1969-12-31 18:00:08.927649714,(15 -5 -28 7 14 -1 -29 -19)
1969-12-31 18:00:08.927649714,(-9 5 47 19 39 24 -26 -6)
1969-12-31 18:00:08.927649714,(8 -98 -54 -32 -86 -80 -35 10)
1969-12-31 18:00:08.978825811,(-31 43 4 -15 -5 40 44 11)
1969-12-31 18:00:08.978825811,(10 23 24 33 73 47 25 76)
1969-12-31 18:00:08.979938334,(-14 -22 -18 -14 -96 -76 -49 -61)
1969-12-31 18:00:08.979938334,(37 25 -32 -38 -11 17 9 14)
1969-12-31 18:00:08.982163382,(-4 -34 13 8 13 9 18 21)
1969-12-31 18:00:08.982163382,(-5 36 -1 -20 -38 -32 -20 -31)
1969-12-31 18:00:08.985500954,(-27 -42 -7 0 41 44 47 24)
1969-12-31 18:00:08.985500954,(10 -6 12 37 38 0 -3 12)
1969-12-31 18:00:08.993288620,(17 -23 -20 9 8 15 17 55)
1969-12-31 18:00:08.993288620,(-21 32 53 -2 -20 5 15 -55)
1969-12-31 18:00:08.994401144,(33 82 34 16 -3 -29 -24 21)
1969-12-31 18:00:08.994401144,(-4 -48 -78 -26 11 29 10 -11)
1969-12-31 18:00:09.018876669,(-2 13 105 48 -11 -20 14 22)
1969-12-31 18:00:09.018876669,(-30 -30 -56 -25 -17 -16 -11 -63)
1969-12-31 18:00:09.019989193,(0 3 9 -8 -11 0 11 16)
1969-12-31 18:00:09.019989193,(-1 76 42 18 15 29 27 25)
1969-12-31 18:00:09.036677050,(-18 -34 -42 -16 26 -17 -61 -55)
1969-12-31 18:00:09.036677050,(22 -32 -28 -9 -3 22 -5 -1)
1969-12-31 18:00:09.044464717,(-15 -38 -29 2 3 -15 21 -10)
1969-12-31 18:00:09.044464717,(8 -41 -21 -39 -60 -16 -40 -21)
1969-12-31 18:00:09.060040051,(4 35 17 34 39 9 30 31)
1969-12-31 18:00:09.060040051,(-71 -44 -11 -35 -61 -47 -76 -87)
1969-12-31 18:00:09.061152575,(26 60 28 9 11 11 7 2)
1969-12-31 18:00:09.061152575,(-12 -50 -14 -1 21 29 9 -15)
1969-12-31 18:00:09.085628099,(41 53 19 8 -9 -5 0 34)
1969-12-31 18:00:09.085628099,(17 3 -31 5 32 -9 -31 -19)
1969-12-31 18:00:09.085628099,(-11 59 63 11 -34 -9 28 39)
1969-12-31 18:00:09.085628099,(-6 -21 1 -1 -1 -10 -4 -5)
1969-12-31 18:00:09.121228862,(14 -11 -54 -27 -9 15 -1 -5)
1969-12-31 18:00:09.121228862,(-13 59 43 29 13 -9 14 -13)
1969-12-31 18:00:09.122341386,(-18 -93 -25 -1 30 27 -17 -3)
1969-12-31 18:00:09.122341386,(-19 34 19 22 -3 -39 -18 -95)
1969-12-31 18:00:09.126791481,(-45 -55 -59 -55 -70 -51 -49 -44)
1969-12-31 18:00:09.126791481,(18 -4 -9 -29 -33 9 24 1)
1969-12-31 18:00:09.127904005,(-9 -16 -10 28 66 23 11 6)
1969-12-31 18:00:09.127904005,(-2 -40 -14 -19 -24 4 8 32)
1969-12-31 18:00:09.152379530,(3 -62 -67 -21 24 21 30 -3)
1969-12-31 18:00:09.152379530,(23 98 98 63 38 18 -1 20)
1969-12-31 18:00:09.153492053,(16 1 -1 4 5 4 14 10)
1969-12-31 18:00:09.153492053,(13 -30 -4 -8 -42 -8 1 50)
1969-12-31 18:00:09.169067387,(-20 -16 -19 -11 -23 -39 -33 -27)
1969-12-31 18:00:09.169067387,(15 17 -19 -14 9 12 4 -11)
1969-12-31 18:00:09.170179911,(-11 -43 -40 -11 9 3 11 -51)
1969-12-31 18:00:09.170179911,(-34 48 51 20 16 -1 11 1)
1969-12-31 18:00:09.193542912,(22 -6 6 -8 -21 2 8 16)
1969-12-31 18:00:09.193542912,(-6 -53 -26 -1 4 0 8 19)
1969-12-31 18:00:09.194655435,(-2 -19 -30 -20 -32 -37 -50 -19)
1969-12-31 18:00:09.194655435,(27 -55 -66 -32 -16 -10 2 18)
1969-12-31 18:00:09.219130960,(-33 5 21 -3 -8 -15 -26 -31)
1969-12-31 18:00:09.219130960,(11 31 23 12 10 5 12 21)
1969-12-31 18:00:09.220243484,(16 16 5 -14 -21 -2 10 14)
1969-12-31 18:00:09.220243484,(-9 -10 5 19 88 40 14 22)
1969-12-31 18:00:09.235818818,(3 36 32 12 -42 1 -35 -37)
1969-12-31 18:00:09.235818818,(-1 -83 -41 -18 -25 -22 -16 13)
1969-12-31 18:00:09.235818818,(2 64 25 -6 -21 -11 6 1)
1969-12-31 18:00:09.235818818,(-34 58 62 25 16 -1 -11 -38)
1969-12-31 18:00:09.289219962,(8 6 28 40 99 63 20 18)
1969-12-31 18:00:09.289219962,(-19 -66 -44 -29 -40 -14 -3 6)
1969-12-31 18:00:09.289219962,(8 -15 -16 -16 -21 4 17 14)
1969-12-31 18:00:09.290332486,(12 -29 -29 -2 1 -9 -4 -7)
1969-12-31 18:00:09.294782581,(14 66 48 13 8 7 7 14)
1969-12-31 18:00:09.294782581,(33 -12 -11 4 27 7 0 19)
1969-12-31 18:00:09.295895105,(9 -3 -4 20 43 37 36 63)
1969-12-31 18:00:09.295895105,(-16 25 2 -7 -50 -42 -48 -36)
1969-12-31 18:00:09.302570248,(5 -50 -40 -28 -35 -18 12 5)
1969-12-31 18:00:09.302570248,(4 64 49 22 22 5 3 12)
1969-12-31 18:00:09.302570248,(2 -39 -24 -12 -1 9 17 14)
1969-12-31 18:00:09.302570248,(16 42 25 3 -17 4 3 28)
1969-12-31 18:00:09.328158296,(-3 -18 10 19 27 14 17 16)
1969-12-31 18:00:09.328158296,(-33 -28 -32 -11 0 -10 -7 -61)
1969-12-31 18:00:09.328158296,(12 52 45 9 -7 -5 -25 -26)
1969-12-31 18:00:09.328158296,(19 -9 -17 -11 -5 6 21 33)
1969-12-31 18:00:09.352633821,(-28 -18 -13 0 7 -16 -4 -20)
1969-12-31 18:00:09.352633821,(16 -23 -21 -10 -18 -25 -1 36)
1969-12-31 18:00:09.352633821,(0 13 3 2 -7 -3 -16 -16)
1969-12-31 18:00:09.352633821,(-29 21 45 21 4 2 -8 -49)
1969-12-31 18:00:09.369321678,(34 19 12 13 61 52 40 50)
1969-12-31 18:00:09.369321678,(-29 -9 -10 -8 -41 -21 2 -6)
1969-12-31 18:00:09.370434202,(-1 -89 -77 -54 -48 -26 -28 -16)
1969-12-31 18:00:09.370434202,(-12 83 63 26 39 5 16 8)
1969-12-31 18:00:09.394909727,(-12 12 -3 4 -19 -3 -12 -40)
1969-12-31 18:00:09.394909727,(23 -6 -3 12 56 67 38 76)
1969-12-31 18:00:09.394909727,(-11 -22 -14 -11 -40 -41 -2 -23)
1969-12-31 18:00:09.394909727,(4 -54 -68 -39 -43 -38 -37 -31)
1969-12-31 18:00:09.430510490,(-24 19 26 11 13 -5 -18 -29)
1969-12-31 18:00:09.430510490,(12 22 27 3 5 10 0 3)
1969-12-31 18:00:09.431623013,(19 36 20 13 13 10 19 24)
1969-12-31 18:00:09.431623013,(-10 -60 -33 -1 23 39 28 33)
1969-12-31 18:00:09.436073109,(-16 -13 -14 -13 -37 -46 -14 -35)
1969-12-31 18:00:09.436073109,(15 -1 1 -1 -3 -1 -30 -42)
1969-12-31 18:00:09.437185633,(-28 12 6 -3 -7 -11 -13 -24)
1969-12-31 18:00:09.437185633,(8 6 6 3 -11 -10 7 -6)
1969-12-31 18:00:09.478349015,(26 6 -14 -6 8 9 2 25)
1969-12-31 18:00:09.478349015,(-3 -25 -2 -2 -7 9 38 22)
1969-12-31 18:00:09.479461538,(-17 -8 -23 -7 19 4 -18 -18)
1969-12-31 18:00:09.479461538,(-4 33 35 17 -3 16 26 10)
1969-12-31 18:00:09.486136682,(7 -20 -18 -17 -5 -5 -36 -13)
1969-12-31 18:00:09.486136682,(-24 -19 -30 -7 -21 -28 -13 -14)
1969-12-31 18:00:09.487249205,(10 35 48 14 3 14 6 6)
1969-12-31 18:00:09.487249205,(22 -7 -23 -5 7 3 14 17)
1969-12-31 18:00:09.502824539,(1 -14 -6 2 11 11 15 19)
1969-12-31 18:00:09.502824539,(30 47 42 32 40 31 17 55)
1969-12-31 18:00:09.503937063,(-48 -57 -24 -12 -18 -14 -21 -34)
1969-12-31 18:00:09.503937063,(21 3 -10 -4 -6 -4 0 22)
1969-12-31 18:00:09.527300064,(-10 -1 4 1 -9 -32 -22 -22)
1969-12-31 18:00:09.527300064,(-2 -1 -18 -21 -2 -2 -6 3)
1969-12-31 18:00:09.528412587,(21 50 41 24 27 31 35 52)
1969-12-31 18:00:09.528412587,(0 -32 -24 -12 -19 -14 -14 -16)
1969-12-31 18:00:09.552888112,(-2 -18 -30 -30 -46 -21 -22 -19)
1969-12-31 18:00:09.552888112,(-54 30 54 18 21 15 12 -43)
1969-12-31 18:00:09.554000636,(37 15 8 8 -3 -13 -1 1)
1969-12-31 18:00:09.554000636,(-18 -1 -4 -3 26 -1 -21 -52)
1969-12-31 18:00:09.587376351,(8 -15 -29 -6 -7 -5 -15 8)
1969-12-31 18:00:09.587376351,(13 14 14 -14 -45 -23 8 -3)
1969-12-31 18:00:09.595164018,(-27 -40 -36 -13 12 11 9 4)
1969-12-31 18:00:09.595164018,(33 75 55 27 28 12 2 -20)
1969-12-31 18:00:09.597389065,(-58 -50 11 4 -17 -17 5 -8)
1969-12-31 18:00:09.597389065,(-3 -32 -30 -25 -12 -3 -13 -6)
1969-12-31 18:00:09.598501589,(-1 17 -15 9 1 -6 -8 -10)
1969-12-31 18:00:09.598501589,(-24 -46 -18 -10 -8 -12 -10 1)
1969-12-31 18:00:09.628539733,(50 38 21 23 43 44 29 26)
1969-12-31 18:00:09.628539733,(-83 6 56 33 18 -17 -44 -83)
1969-12-31 18:00:09.629652257,(14 -24 -25 -32 -36 -14 -3 -1)
1969-12-31 18:00:09.629652257,(25 -6 -26 -2 -20 -1 11 41)
1969-12-31 18:00:09.635214876,(-27 -20 -12 -33 -23 -6 30 -15)
1969-12-31 18:00:09.635214876,(31 -2 -11 17 29 22 -39 9)
1969-12-31 18:00:09.663027972,(-1 10 11 -12 -37 -30 21 23)
1969-12-31 18:00:09.663027972,(12 -2 -14 -20 -28 -13 -19 -6)
1969-12-31 18:00:09.664140496,(16 42 39 34 63 52 43 65)
1969-12-31 18:00:09.664140496,(8 1 -14 12 28 21 24 -3)
1969-12-31 18:00:09.665253020,(6 2 10 4 -13 -17 -27 7)
1969-12-31 18:00:09.665253020,(-3 -51 -51 -18 -2 -1 0 3)
1969-12-31 18:00:09.686390973,(-10 0 13 6 -4 1 5 1)
1969-12-31 18:00:09.686390973,(5 27 8 -13 -3 -3 5 3)
1969-12-31 18:00:09.687503497,(-14 57 56 34 23 10 -20 -22)
1969-12-31 18:00:09.687503497,(-1 -25 4 0 -11 -13 4 -4)
1969-12-31 18:00:09.704191354,(10 -20 -25 -6 0 -5 -14 5)
1969-12-31 18:00:09.704191354,(-3 -19 -9 4 -7 -5 6 -3)
1969-12-31 18:00:09.738679593,(0 -26 -33 -25 -8 2 -9 -10)
1969-12-31 18:00:09.738679593,(-18 26 24 -6 -18 -7 18 -6)
1969-12-31 18:00:09.739792117,(-23 -10 0 14 45 12 -23 -17)
1969-12-31 18:00:09.739792117,(60 28 3 -6 -15 7 29 69)
1969-12-31 18:00:09.740904641,(-51 -40 -18 10 -5 -9 -5 -82)
1969-12-31 18:00:09.740904641,(-4 2 -3 -18 -65 -52 -22 5)
1969-12-31 18:00:09.753142403,(-9 -4 -10 -31 -37 -36 -44 -48)
1969-12-31 18:00:09.753142403,(13 8 0 1 8 -1 14 5)
1969-12-31 18:00:09.754254927,(21 -6 -2 12 49 37 3 25)
1969-12-31 18:00:09.754254927,(3 1 6 8 23 22 26 30)
1969-12-31 18:00:09.768717737,(-22 12 14 6 -10 -4 0 -30)
1969-12-31 18:00:09.768717737,(8 -12 -24 -7 -8 -6 -13 1)
1969-12-31 18:00:09.777617928,(15 35 37 14 14 15 18 22)
1969-12-31 18:00:09.777617928,(-21 6 -3 -2 2 -6 -23 -35)
1969-12-31 18:00:09.794305785,(11 -12 -14 -5 -9 -1 5 3)
1969-12-31 18:00:09.794305785,(12 1 -3 -2 1 5 7 4)
1969-12-31 18:00:09.795418309,(-25 -19 -5 -7 -10 -13 -8 1)
1969-12-31 18:00:09.795418309,(14 5 -2 -5 2 3 -1 0)
1969-12-31 18:00:09.819893833,(4 1 -6 0 1 3 -3 1)
1969-12-31 18:00:09.819893833,(0 -14 -5 -5 -13 -20 -7 -2)
1969-12-31 18:00:09.821006356,(13 8 3 -27 -15 8 10 14)
1969-12-31 18:00:09.821006356,(9 8 3 35 37 5 -14 -14)
1969-12-31 18:00:09.835469167,(-24 -11 -5 0 -4 0 5 -14)
1969-12-31 18:00:09.835469167,(-3 3 -2 -5 1 -4 0 -1)
1969-12-31 18:00:09.844369358,(11 3 3 9 -4 -7 -8 1)
1969-12-31 18:00:09.844369358,(6 0 -5 -11 2 5 -2 6)
1969-12-31 18:00:09.861057216,(9 15 7 4 -4 3 6 14)
1969-12-31 18:00:09.861057216,(-4 -8 -6 -7 -13 -13 -7 -11)
1969-12-31 18:00:09.862169739,(-5 -5 -5 -4 4 0 -3 -5)
1969-12-31 18:00:09.862169739,(-9 -7 0 -2 2 8 12 11)
1969-12-31 18:00:09.903333121,(-1 1 8 14 6 -7 -27 -28)
1969-12-31 18:00:09.903333121,(-28 -22 -19 -20 -21 -12 -18 -49)
1969-12-31 18:00:09.904445645,(17 12 7 6 5 -3 1 4)
1969-12-31 18:00:09.904445645,(-3 -3 0 3 4 15 -7 8)
1969-12-31 18:00:09.912233312,(-11 -7 -9 -10 -6 -1 -5 -3)
1969-12-31 18:00:09.912233312,(-26 -7 -2 0 -9 -14 54 -16)
1969-12-31 18:00:09.913345836,(25 15 9 10 21 51 -6 28)
1969-12-31 18:00:09.913345836,(-5 -4 -4 -4 -10 -64 -21 -17)
1969-12-31 18:00:09.927808646,(23 -6 -6 2 8 40 10 7)
1969-12-31 18:00:09.927808646,(8 1 0 1 1 -56 -24 21)
1969-12-31 18:00:09.928921170,(-9 0 3 5 -14 -21 30 9)
1969-12-31 18:00:09.928921170,(5 -2 -4 -9 -2 16 5 17)
1969-12-31 18:00:09.953396694,(2 3 0 -8 -7 0 7 16)
1969-12-31 18:00:09.953396694,(9 5 6 19 18 27 7 17)
1969-12-31 18:00:09.954509218,(0 -7 -8 -7 -7 -15 -9 -12)
1969-12-31 18:00:09.954509218,(-19 -12 -3 -8 4 10 1 -22)
1969-12-31 18:00:09.978984743,(40 27 8 7 0 31 52 43)
1969-12-31 18:00:09.978984743,(-35 -16 -1 -2 -6 -16 -73 -30)
1969-12-31 18:00:09.980097266,(30 16 3 -1 0 -18 6 19)
1969-12-31 18:00:09.980097266,(-69 -54 -22 -14 -15 -7 -18 -79)
1969-12-31 18:00:09.994560076,(-14 5 5 -3 0 -7 17 48)
1969-12-31 18:00:09.994560076,(63 17 -2 -5 -2 13 9 28)
1969-12-31 18:00:09.995672600,(-1 9 10 11 17 47 -9 16)
1969-12-31 18:00:09.995672600,(-30 -1 -4 -3 -9 -24 37 -17)
1969-12-31 18:00:10.047961221,(26 0 1 2 -2 -15 -18 -15)
1969-12-31 18:00:10.047961221,(-59 -24 -3 -2 -3 0 -6 -25)
1969-12-31 18:00:10.047961221,(25 23 5 5 4 -5 1 8)
1969-12-31 18:00:10.047961221,(4 -18 -14 -11 -3 12 -6 2)
1969-12-31 18:00:10.050186268,(-10 -8 -3 -3 -2 -21 -35 -24)
1969-12-31 18:00:10.050186268,(32 24 4 -2 -7 14 6 6)
1969-12-31 18:00:10.053523840,(1 -10 -1 4 6 0 4 -1)
1969-12-31 18:00:10.053523840,(4 12 15 11 10 21 -10 36)
1969-12-31 18:00:10.061311507,(53 10 -1 0 -5 -21 23 40)
1969-12-31 18:00:10.061311507,(-6 -2 -6 -11 -11 13 -19 -49)
1969-12-31 18:00:10.062424031,(-8 -17 -6 -3 -2 -9 11 11)
1969-12-31 18:00:10.062424031,(-12 6 -3 -6 -5 -11 -19 -34)
1969-12-31 18:00:10.086899555,(25 2 7 2 1 0 0 4)
1969-12-31 18:00:10.086899555,(-46 5 5 5 6 14 19 10)
1969-12-31 18:00:10.094687222,(7 -4 -9 -8 -8 -19 -10 -24)
1969-12-31 18:00:10.094687222,(-14 -18 -8 -6 -7 2 -3 -9)
1969-12-31 18:00:10.112487603,(-21 1 -2 -3 0 2 4 -1)
1969-12-31 18:00:10.112487603,(12 -1 1 2 0 -4 1 -10)
1969-12-31 18:00:10.112487603,(-38 -8 1 1 2 0 -5 -12)
1969-12-31 18:00:10.113600127,(21 8 1 0 -1 -4 -6 7)
1969-12-31 18:00:10.128062937,(-24 2 -1 -1 -1 0 -7 -31)
1969-12-31 18:00:10.128062937,(19 -4 0 -2 0 -1 10 41)
1969-12-31 18:00:10.129175461,(-34 -11 -6 -5 -5 -6 -9 -16)
1969-12-31 18:00:10.129175461,(34 19 6 3 4 9 10 33)
1969-12-31 18:00:10.153650985,(-14 -4 -3 -2 -1 -6 -5 -4)
1969-12-31 18:00:10.153650985,(-13 -11 -4 0 -1 3 5 -2)
1969-12-31 18:00:10.154763509,(23 6 -2 -2 -3 -5 -11 6)
1969-12-31 18:00:10.154763509,(4 12 7 5 5 6 3 -10)
1969-12-31 18:00:10.205939606,(-44 -21 -9 -6 -6 -6 -14 -22)
1969-12-31 18:00:10.205939606,(5 -1 -2 1 -1 -4 -2 1)
1969-12-31 18:00:10.207052130,(1 -3 -2 0 0 -1 -1 -5)
1969-12-31 18:00:10.207052130,(30 15 4 2 0 2 10 31)
1969-12-31 18:00:10.208164654,(-9 -5 -3 -3 -2 -4 -6 -9)
1969-12-31 18:00:10.208164654,(2 -5 -6 -6 -1 2 3 9)
1969-12-31 18:00:10.211502225,(-8 -3 1 0 -6 -5 -1 -5)
1969-12-31 18:00:10.211502225,(5 8 5 3 2 3 2 8)
1969-12-31 18:00:10.221514940,(-5 -2 -3 -2 -2 -2 -1 -4)
1969-12-31 18:00:10.221514940,(9 2 3 1 1 2 3 8)
1969-12-31 18:00:10.222627462,(-8 -5 -4 -4 -3 -1 -2 -6)
1969-12-31 18:00:10.222627462,(-2 -1 -4 -3 -1 0 -4 -9)
1969-12-31 18:00:10.245990464,(5 -3 -2 -1 0 0 0 2)
1969-12-31 18:00:10.245990464,(3 0 -4 -1 2 -3 0 5)
1969-12-31 18:00:10.247102988,(-15 -8 -1 0 1 -2 -2 -10)
1969-12-31 18:00:10.247102988,(4 10 15 5 1 5 2 6)
1969-12-31 18:00:10.261565798,(2 2 -4 -1 1 -1 -4 -7)
1969-12-31 18:00:10.261565798,(0 -8 -13 -1 -1 0 -4 -28)
1969-12-31 18:00:10.262678322,(-17 14 32 11 4 -2 -2 -5)
1969-12-31 18:00:10.262678322,(11 5 -1 0 -2 -1 6 9)
1969-12-31 18:00:10.287153846,(1 -3 -3 -4 -3 0 -4 -3)
1969-12-31 18:00:10.287153846,(-2 -14 -15 -9 -5 -3 -2 3)
1969-12-31 18:00:10.287153846,(6 -14 -20 -6 1 2 3 19)
1969-12-31 18:00:10.287153846,(2 11 2 -3 -2 -2 -6 -9)
1969-12-31 18:00:10.312741894,(-6 3 19 8 1 2 5 -16)
1969-12-31 18:00:10.312741894,(-1 -6 -6 -3 -7 -8 0 19)
1969-12-31 18:00:10.313854418,(-1 -31 -23 -10 -3 -2 -2 2)
1969-12-31 18:00:10.313854418,(-1 -7 -19 -8 -4 -2 3 9)
1969-12-31 18:00:10.313854418,(0 6 3 -1 -1 0 0 0)
1969-12-31 18:00:10.313854418,(-2 -12 -12 -2 -2 -2 1 0)
1969-12-31 18:00:10.316079466,(-3 -4 -6 -4 -3 -1 0 -1)
1969-12-31 18:00:10.316079466,(-1 7 3 1 3 0 -3 -1)
1969-12-31 18:00:10.363917991,(-6 -2 0 -2 -1 -1 3 0)
1969-12-31 18:00:10.365030515,(1 -3 -5 -2 0 -1 -2 -3)
1969-12-31 18:00:10.366143039,(-1 -4 -2 -4 -2 -1 2 6)
1969-12-31 18:00:10.366143039,(-2 -15 -7 -1 0 0 -3 -3)
1969-12-31 18:00:10.371705658,(-2 13 10 6 0 2 -4 -7)
1969-12-31 18:00:10.372818182,(-2 -12 -11 -7 -6 -4 0 10)
1969-12-31 18:00:10.373930706,(-2 -7 -5 -3 -2 -3 -6 -12)
1969-12-31 18:00:10.373930706,(14 8 1 -2 -2 1 6 28)
1969-12-31 18:00:10.380605849,(-2 -1 3 -1 1 1 2 0)
1969-12-31 18:00:10.380605849,(-49 -24 -13 -4 -4 -2 -6 -18)
1969-12-31 18:00:10.382830896,(27 10 4 -1 -2 -3 0 10)
1969-12-31 18:00:10.382830896,(-13 3 2 3 1 -1 0 -12)
1969-12-31 18:00:10.405081373,(29 5 -2 -1 -1 -5 4 17)
1969-12-31 18:00:10.405081373,(3 -1 -7 -3 -1 0 6 15)
1969-12-31 18:00:10.407306421,(-17 -8 -3 -4 -2 -2 -9 -32)
1969-12-31 18:00:10.407306421,(0 0 4 -1 1 2 -3 -8)
1969-12-31 18:00:10.420656707,(5 -5 2 -1 -3 3 -2 -13)
1969-12-31 18:00:10.420656707,(17 11 15 11 6 9 13 30)
1969-12-31 18:00:10.430669421,(33 1 0 -4 -7 -3 -10 -11)
1969-12-31 18:00:10.430669421,(-34 -6 6 4 -2 -5 -25 -25)
1969-12-31 18:00:10.447357279,(-8 -6 -6 -7 -8 9 14 -12)
1969-12-31 18:00:10.447357279,(30 11 5 5 5 12 7 44)
1969-12-31 18:00:10.449582327,(23 15 5 3 -2 -6 -2 0)
1969-12-31 18:00:10.449582327,(-23 -16 -4 -1 -1 2 11 22)
1969-12-31 18:00:10.472945327,(-9 5 3 2 4 4 -8 -11)
1969-12-31 18:00:10.472945327,(-45 -16 -10 -4 -5 -10 -7 -48)
1969-12-31 18:00:10.475170375,(18 18 5 0 3 -8 -5 15)
1969-12-31 18:00:10.475170375,(17 2 -2 -5 1 21 7 -2)
1969-12-31 18:00:10.515221233,(30 21 0 -2 -12 -46 -9 17)
1969-12-31 18:00:10.515221233,(-33 -18 -16 -8 -5 15 1 -32)
1969-12-31 18:00:10.517446281,(-52 -22 1 4 2 13 -13 -21)
1969-12-31 18:00:10.517446281,(6 2 4 9 6 -10 -7 -18)
1969-12-31 18:00:10.518558805,(-21 -10 -5 -3 0 13 -5 6)
1969-12-31 18:00:10.518558805,(21 28 2 1 -6 -30 -9 -9)
1969-12-31 18:00:10.523008900,(-25 -13 -2 -1 5 0 7 25)
1969-12-31 18:00:10.523008900,(25 10 2 3 10 63 -5 -11)
1969-12-31 18:00:10.538584234,(14 23 4 -2 -8 -32 16 1)
1969-12-31 18:00:10.538584234,(-8 -36 -12 -8 -7 -5 0 20)
1969-12-31 18:00:10.540809282,(-21 -19 -12 -7 -9 -22 -8 21)
1969-12-31 18:00:10.540809282,(-2 -7 2 2 4 18 26 32)
1969-12-31 18:00:10.554159568,(6 9 4 6 6 12 -13 1)
1969-12-31 18:00:10.554159568,(29 21 5 2 4 8 8 -30)
1969-12-31 18:00:10.564172282,(-45 -22 -5 -1 2 22 1 -20)
1969-12-31 18:00:10.564172282,(3 -5 -4 -5 -7 -27 -4 19)
1969-12-31 18:00:10.580860140,(0 14 -6 -9 -11 -12 -13 -22)
1969-12-31 18:00:10.580860140,(-5 -14 -1 1 11 35 -12 -15)
1969-12-31 18:00:10.581972664,(-13 -20 -11 -8 -17 -56 7 -44)
1969-12-31 18:00:10.581972664,(28 14 -3 -7 -10 -20 -13 8)
1969-12-31 18:00:10.605335664,(-58 -55 -15 -6 3 21 5 -20)
1969-12-31 18:00:10.606448188,(35 26 3 2 0 -33 -24 15)
1969-12-31 18:00:10.607560712,(-66 -26 -1 1 0 9 -30 -46)
1969-12-31 18:00:10.607560712,(35 26 -3 -9 -14 -22 15 21)
1969-12-31 18:00:10.620910998,(29 14 11 8 8 3 4 51)
1969-12-31 18:00:10.620910998,(-36 -28 -15 -9 -1 13 30 -4)
1969-12-31 18:00:10.630923713,(57 25 15 11 11 10 23 59)
1969-12-31 18:00:10.630923713,(10 20 -3 -4 -6 -11 -13 -41)
1969-12-31 18:00:10.682099809,(-27 -31 -2 0 2 0 -5 -5)
1969-12-31 18:00:10.682099809,(32 18 11 9 9 4 23 58)
1969-12-31 18:00:10.684324857,(-22 2 -8 -7 -6 -20 -41 -76)
1969-12-31 18:00:10.684324857,(25 7 5 4 2 9 24 51)
1969-12-31 18:00:10.685437381,(-50 -15 -8 -5 -4 -8 -23 -37)
1969-12-31 18:00:10.685437381,(45 15 14 10 5 6 11 61)
1969-12-31 18:00:10.689887476,(36 17 -8 -8 -7 -27 -14 18)
1969-12-31 18:00:10.689887476,(-30 -8 5 4 4 27 23 -28)
1969-12-31 18:00:10.691000000,(51 7 0 5 9 53 16 39)
1969-12-31 18:00:10.691000000,(11 -1 4 -1 -9 -12 6 -7)
1969-12-31 18:00:10.697675143,(-51 0 3 2 0 -51 -38 -22)
1969-12-31 18:00:10.697675143,(-29 -34 -18 -17 -14 -20 -5 -21)
1969-12-31 18:00:10.714363001,(16 12 9 10 9 9 17 5)
1969-12-31 18:00:10.714363001,(5 8 1 -4 -8 -6 -15 -25)
1969-12-31 18:00:10.716588048,(54 16 5 6 6 39 19 36)
1969-12-31 18:00:10.716588048,(-31 -4 -5 -4 -6 -41 -15 -8)
1969-12-31 18:00:10.738838525,(-13 -30 -12 -6 2 27 5 44)
1969-12-31 18:00:10.738838525,(13 -2 -16 -16 -17 -24 -12 -11)
1969-12-31 18:00:10.741063573,(9 25 6 -2 -3 11 13 11)
1969-12-31 18:00:10.741063573,(-47 -67 -12 -1 6 44 21 21)
1969-12-31 18:00:10.754413859,(7 18 3 0 3 7 -6 -9)
1969-12-31 18:00:10.754413859,(-3 -7 -4 1 -2 -17 3 -21)
1969-12-31 18:00:10.764426573,(-13 -9 -5 -4 -6 -2 -12 -25)
1969-12-31 18:00:10.764426573,(16 22 8 4 0 -5 -4 9)
1969-12-31 18:00:10.780001907,(6 -11 -4 -2 -5 -18 -13 8)
1969-12-31 18:00:10.780001907,(-12 10 6 3 10 22 1 15)
1969-12-31 18:00:10.824502861,(29 3 2 0 -2 24 51 34)
1969-12-31 18:00:10.824502861,(22 4 -4 -2 -4 -23 -31 -2)
1969-12-31 18:00:10.824502861,(-15 3 1 1 -2 -10 1 -20)
1969-12-31 18:00:10.824502861,(-17 5 2 0 -1 -12 -20 -30)
1969-12-31 18:00:10.826727908,(0 -13 -6 -1 4 30 9 -15)
1969-12-31 18:00:10.826727908,(-12 -3 -1 1 -2 -6 -16 -35)
1969-12-31 18:00:10.831178004,(20 19 5 0 -5 -9 22 25)
1969-12-31 18:00:10.831178004,(-15 4 2 4 2 12 -5 4)
1969-12-31 18:00:10.833403051,(20 -10 -2 1 2 12 0 27)
1969-12-31 18:00:10.833403051,(-4 1 5 6 6 8 11 -12)
1969-12-31 18:00:10.846753338,(-9 -5 -4 -6 -7 -32 -15 -19)
1969-12-31 18:00:10.846753338,(28 24 2 1 5 40 11 49)
1969-12-31 18:00:10.854541004,(-14 -13 2 4 -3 -21 5 -5)
1969-12-31 18:00:10.854541004,(-22 1 7 6 5 -4 14 13)
1969-12-31 18:00:10.872341386,(12 0 -2 -1 -2 -11 -3 5)
1969-12-31 18:00:10.872341386,(-28 -30 -15 -9 -8 -5 -10 2)
1969-12-31 18:00:10.874566434,(16 25 10 7 9 22 30 51)
1969-12-31 18:00:10.874566434,(17 13 6 8 5 -9 -31 9)
1969-12-31 18:00:10.897929434,(-18 -20 -18 -12 5 67 -4 -17)
1969-12-31 18:00:10.897929434,(6 16 23 15 1 -32 41 56)
1969-12-31 18:00:10.900154482,(4 -12 -10 -12 -23 -71 -15 -56)
1969-12-31 18:00:10.900154482,(25 18 9 11 7 1 12 59)
1969-12-31 18:00:10.913504768,(18 9 -3 -5 -2 16 24 -2)
1969-12-31 18:00:10.913504768,(-61 -31 -18 -14 -9 -16 -45 -48)
1969-12-31 18:00:10.921292435,(-6 6 7 4 12 37 14 8)
1969-12-31 18:00:10.921292435,(36 5 -2 -4 -7 -6 1 31)
1969-12-31 18:00:10.939092816,(-35 -35 -18 -16 -19 -37 -6 -18)
1969-12-31 18:00:10.939092816,(-22 -9 -9 -7 -3 6 -26 -50)
1969-12-31 18:00:10.941317864,(7 17 11 8 5 3 -16 12)
1969-12-31 18:00:10.941317864,(-17 -8 -7 -3 1 -2 6 -15)
1969-12-31 18:00:10.983593770,(10 1 4 6 -1 -23 -70 -49)
1969-12-31 18:00:10.983593770,(38 7 1 1 1 14 35 53)
1969-12-31 18:00:10.984706294,(-79 -26 -16 -12 -4 -2 -39 -59)
1969-12-31 18:00:10.984706294,(8 10 4 1 -5 -6 39 -6)
1969-12-31 18:00:10.985818818,(14 11 2 1 1 42 17 31)
1969-12-31 18:00:10.985818818,(-17 -23 -11 -9 -13 -46 -22 -64)
1969-12-31 18:00:10.990268913,(43 28 16 12 11 -12 19 83)
1969-12-31 18:00:10.990268913,(-44 -27 -17 -15 -6 35 -38 -96)
1969-12-31 18:00:11.006956771,(15 3 5 0 0 16 34 26)
1969-12-31 18:00:11.006956771,(5 2 1 4 5 -11 -32 -4)
1969-12-31 18:00:11.008069294,(-8 -14 -14 -11 -4 48 17 -20)
1969-12-31 18:00:11.008069294,(24 15 8 3 -12 -94 -28 20)
1969-12-31 18:00:11.031432295,(-1 7 3 -1 -5 5 18 -15)
1969-12-31 18:00:11.031432295,(23 12 8 10 12 27 7 -6)
1969-12-31 18:00:11.033657343,(45 15 2 -1 -2 -6 19 44)
1969-12-31 18:00:11.033657343,(17 -15 -5 -1 4 29 -9 31)
1969-12-31 18:00:11.047007629,(-15 -12 -2 2 8 18 36 -32)
1969-12-31 18:00:11.047007629,(-36 -9 -5 -7 -5 -48 7 -19)
1969-12-31 18:00:11.054795296,(-29 -4 1 3 9 58 -3 -43)
1969-12-31 18:00:11.054795296,(32 31 4 -8 -16 -56 13 72)
1969-12-31 18:00:11.073708201,(-10 -6 1 1 0 6 7 41)
1969-12-31 18:00:11.073708201,(-16 -25 -4 2 7 4 -8 -10)
1969-12-31 18:00:11.074820725,(-16 4 -3 -3 -11 -13 -10 -29)
1969-12-31 18:00:11.074820725,(-78 -32 -15 -11 -6 6 -30 -63)
1969-12-31 18:00:11.097071202,(41 42 24 20 15 -28 9 51)
1969-12-31 18:00:11.097071202,(3 1 -6 -13 -20 -19 -15 31)
1969-12-31 18:00:11.133784488,(31 3 5 2 7 28 7 43)
1969-12-31 18:00:11.133784488,(9 -16 -8 -1 2 13 13 -40)
1969-12-31 18:00:11.134897012,(-64 -17 -9 -19 -31 -35 -4 -37)
1969-12-31 18:00:11.134897012,(-8 1 -1 1 8 22 12 9)
1969-12-31 18:00:11.140459631,(29 15 7 4 7 -1 5 -20)
1969-12-31 18:00:11.140459631,(2 15 6 8 8 16 13 10)
1969-12-31 18:00:11.141572155,(-46 -40 -20 -5 0 -18 -45 21)
1969-12-31 18:00:11.141572155,(-7 -13 -4 -3 2 43 -4 -86)
1969-12-31 18:00:11.142684679,(33 18 5 1 -9 -36 18 72)
1969-12-31 18:00:11.142684679,(-53 -21 -12 -12 -12 -14 -46 -111)
1969-12-31 18:00:11.164935156,(-26 -2 3 4 9 16 24 -67)
1969-12-31 18:00:11.164935156,(5 17 8 7 1 -2 -32 21)
1969-12-31 18:00:11.166047680,(14 -5 -11 -10 -15 -45 -14 -2)
1969-12-31 18:00:11.166047680,(0 -1 5 3 7 3 -16 -19)
1969-12-31 18:00:11.180510490,(7 -30 -20 -9 -2 -1 -12 -27)
1969-12-31 18:00:11.180510490,(17 1 -4 -13 -19 -56 1 -13)
1969-12-31 18:00:11.190523204,(26 14 18 29 67 105 27 75)
1969-12-31 18:00:11.190523204,(17 23 8 -7 -63 -58 -6 8)
1969-12-31 18:00:11.207211062,(11 16 6 -7 -18 -50 -25 -17)
1969-12-31 18:00:11.207211062,(18 17 13 12 0 11 14 19)
1969-12-31 18:00:11.208323585,(-8 -4 -1 -3 2 -2 -8 -17)
1969-12-31 18:00:11.208323585,(20 -7 -5 -10 13 40 24 42)
1969-12-31 18:00:11.231686586,(19 -4 -1 -1 4 -5 -15 27)
1969-12-31 18:00:11.231686586,(29 3 1 5 10 5 20 44)
1969-12-31 18:00:11.232799110,(-12 3 4 10 8 13 4 -23)
1969-12-31 18:00:11.232799110,(-29 -22 -7 1 12 8 -7 -81)
1969-12-31 18:00:11.246149396,(17 22 8 5 -2 -11 0 4)
1969-12-31 18:00:11.246149396,(29 15 -1 1 10 17 6 46)
1969-12-31 18:00:11.257274634,(-54 -44 -17 -12 -17 -9 -19 -70)
1969-12-31 18:00:11.257274634,(15 -3 -7 -5 7 34 -14 -3)
1969-12-31 18:00:11.290650350,(-54 -10 -6 -2 -15 -29 -21 -82)
1969-12-31 18:00:11.290650350,(-42 -21 -1 42 99 66 39 17)
1969-12-31 18:00:11.291762873,(2 3 -10 -42 -113 -96 -33 6)
1969-12-31 18:00:11.291762873,(25 11 -3 -23 -46 -33 -13 51)
1969-12-31 18:00:11.298438017,(43 22 8 -8 4 10 11 42)
1969-12-31 18:00:11.298438017,(-22 -43 -14 -25 -36 -11 -11 -2)
1969-12-31 18:00:11.299550540,(-40 -23 -16 5 47 45 2 -31)
1969-12-31 18:00:11.300663064,(-14 -14 8 26 37 -3 22 16)
1969-12-31 18:00:11.315125874,(35 32 9 16 4 -1 -1 26)
1969-12-31 18:00:11.315125874,(-10 -9 -16 -15 -29 -17 -32 -41)
1969-12-31 18:00:11.324026065,(19 15 -3 -9 -16 -15 -5 3)
1969-12-31 18:00:11.324026065,(-8 7 25 5 -9 15 5 -17)
1969-12-31 18:00:11.339601399,(-17 -16 0 8 25 13 4 21)
1969-12-31 18:00:11.339601399,(8 10 4 7 7 21 12 -14)
1969-12-31 18:00:11.341826446,(-35 -22 -26 -12 -3 -35 -27 -78)
1969-12-31 18:00:11.341826446,(10 19 2 19 68 45 16 25)
1969-12-31 18:00:11.365189447,(2 -15 1 -7 -71 -65 -13 6)
1969-12-31 18:00:11.365189447,(-22 0 -8 -12 12 15 -14 -34)
1969-12-31 18:00:11.366301971,(36 17 16 -9 -49 -19 12 56)
1969-12-31 18:00:11.366301971,(10 10 -7 3 41 22 10 12)
1969-12-31 18:00:11.380764781,(-28 -16 -6 -5 9 8 5 -15)
1969-12-31 18:00:11.380764781,(3 -17 -23 -16 -40 -6 -6 -36)
1969-12-31 18:00:11.390777495,(-2 -43 -49 -4 39 19 11 9)
1969-12-31 18:00:11.390777495,(-10 105 100 50 -1 -3 10 12)
1969-12-31 18:00:11.407465353,(17 10 -9 -25 -45 -37 -33 -6)
1969-12-31 18:00:11.407465353,(-38 -40 -6 -2 11 -10 -4 8)
1969-12-31 18:00:11.408577877,(-10 -90 -59 13 59 29 8 9)
1969-12-31 18:00:11.408577877,(18 -64 -96 -56 -66 -29 10 4)
1969-12-31 18:00:11.440841068,(-16 116 107 47 51 29 5 -20)
1969-12-31 18:00:11.440841068,(26 68 34 10 -36 -9 -5 24)
1969-12-31 18:00:11.441953592,(-24 35 46 1 -15 -22 -29 -69)
1969-12-31 18:00:11.441953592,(25 -88 -76 3 65 38 20 36)
1969-12-31 18:00:11.447516211,(36 -41 -63 -13 10 6 14 49)
1969-12-31 18:00:11.447516211,(10 18 22 -3 2 18 29 1)
1969-12-31 18:00:11.457528926,(-10 41 24 -4 -43 -26 7 10)
1969-12-31 18:00:11.457528926,(14 6 6 -9 -38 -34 -55 -43)
1969-12-31 18:00:11.482004450,(9 -43 -19 27 105 62 39 36)
1969-12-31 18:00:11.482004450,(7 -37 -67 -14 -49 -43 -51 -5)
1969-12-31 18:00:11.484229498,(-20 126 113 18 -18 2 27 24)
1969-12-31 18:00:11.484229498,(27 -39 -23 13 72 22 6 -6)
1969-12-31 18:00:11.498692308,(-27 -15 -22 -6 -100 -47 -18 -41)
1969-12-31 18:00:11.498692308,(-9 41 37 -16 31 44 17 -12)
1969-12-31 18:00:11.499804832,(85 -96 -89 -14 -18 -14 32 71)
1969-12-31 18:00:11.499804832,(-29 56 40 -20 -46 -37 -40 -28)
1969-12-31 18:00:11.514267641,(-23 28 63 48 127 106 16 26)
1969-12-31 18:00:11.514267641,(7 -37 -40 -5 -69 -101 -4 -24)
1969-12-31 18:00:11.524280356,(-39 -36 -34 -2 24 30 -31 -54)
1969-12-31 18:00:11.524280356,(-93 -36 -13 -36 -40 14 20 -42)
1969-12-31 18:00:11.540968214,(34 -65 -116 -48 -14 -33 -6 -3)
1969-12-31 18:00:11.540968214,(-2 127 117 33 3 -10 -3 12)
1969-12-31 18:00:11.542080737,(13 65 89 67 42 9 3 3)
1969-12-31 18:00:11.542080737,(40 -75 -81 -25 -28 17 36 36)
1969-12-31 18:00:11.565443738,(-20 51 28 -17 -62 -25 -30 -15)
1969-12-31 18:00:11.565443738,(0 8 2 -3 48 21 -10 -17)
1969-12-31 18:00:11.566556262,(2 -98 -78 -14 28 -5 5 26)
1969-12-31 18:00:11.566556262,(11 127 121 55 -3 8 14 33)
1969-12-31 18:00:11.598819453,(-27 -36 1 2 17 1 -29 -54)
1969-12-31 18:00:11.598819453,(21 -128 -128 -39 -10 -18 33 81)
1969-12-31 18:00:11.601044501,(-25 127 78 -10 -32 -8 -21 -77)
1969-12-31 18:00:11.601044501,(-14 14 56 7 -7 -11 2 9)
1969-12-31 18:00:11.607719644,(-50 -96 -72 -23 3 9 17 24)
1969-12-31 18:00:11.607719644,(-7 65 54 45 43 26 21 12)
1969-12-31 18:00:11.608832168,(13 31 -46 -28 -13 -10 -19 17)
1969-12-31 18:00:11.608832168,(13 59 35 5 -14 -17 -23 -38)
1969-12-31 18:00:11.632195168,(6 0 35 27 31 -5 -1 -16)
1969-12-31 18:00:11.632195168,(14 -59 -39 15 66 36 20 -20)
1969-12-31 18:00:11.634420216,(-19 -128 -88 -23 -76 -19 6 -2)
1969-12-31 18:00:11.634420216,(11 80 39 -10 -35 -56 -68 -52)
1969-12-31 18:00:11.647770502,(35 -99 -71 -17 -36 -18 4 10)
1969-12-31 18:00:11.647770502,(-12 94 58 7 1 -4 -21 -32)
1969-12-31 18:00:11.657783217,(24 -5 30 42 86 52 59 48)
1969-12-31 18:00:11.657783217,(-24 -12 -65 -23 -38 -21 -42 -62)
1969-12-31 18:00:11.674471074,(0 20 49 -1 -25 -14 19 6)
1969-12-31 18:00:11.674471074,(-16 -86 -48 -24 -27 -4 -21 64)
1969-12-31 18:00:11.675583598,(1 35 6 8 30 11 -20 -73)
1969-12-31 18:00:11.675583598,(-9 -99 -73 -4 17 6 25 23)
1969-12-31 18:00:11.698946599,(34 127 34 -1 -2 8 -5 -12)
1969-12-31 18:00:11.698946599,(-13 79 97 36 -6 5 18 -2)
1969-12-31 18:00:11.700059123,(8 -105 -78 -20 8 -3 -10 33)
1969-12-31 18:00:11.700059123,(16 -3 -33 0 21 18 32 21)
1969-12-31 18:00:11.714521933,(-18 -78 -77 -14 88 91 33 8)
1969-12-31 18:00:11.714521933,(10 58 10 -1 -92 -90 -14 -19)
1969-12-31 18:00:11.751235219,(-23 -8 34 -31 -93 -71 -44 -30)
1969-12-31 18:00:11.751235219,(-8 -128 -99 -26 32 18 -9 67)
1969-12-31 18:00:11.752347743,(16 41 74 30 22 26 5 3)
1969-12-31 18:00:11.752347743,(-70 -128 -128 -80 -69 -39 -47 -98)
1969-12-31 18:00:11.755685314,(-14 115 83 8 30 14 6 37)
1969-12-31 18:00:11.755685314,(15 81 94 41 -32 -36 30 15)
1969-12-31 18:00:11.765698029,(8 -92 -88 -9 27 29 22 41)
1969-12-31 18:00:11.765698029,(-42 -113 -97 -26 25 20 -15 -19)
1969-12-31 18:00:11.766810553,(15 71 72 21 -16 -14 -8 13)
1969-12-31 18:00:11.766810553,(4 -74 -20 -1 29 25 10 10)
1969-12-31 18:00:11.781273363,(2 -26 10 31 3 4 13 -9)
1969-12-31 18:00:11.781273363,(14 -88 -28 -20 -2 4 35 50)
1969-12-31 18:00:11.791286078,(9 -128 -128 -9 4 4 -3 44)
1969-12-31 18:00:11.791286078,(-52 121 127 6 -53 -19 -14 -47)
1969-12-31 18:00:11.806861411,(20 -68 -38 -39 -47 -30 17 45)
1969-12-31 18:00:11.807973935,(0 2 2 4 9 0 -29 -15)
1969-12-31 18:00:11.809086459,(-1 7 -5 8 53 21 26 14)
1969-12-31 18:00:11.809086459,(25 -115 -77 18 45 14 -1 25)
1969-12-31 18:00:11.832449460,(-11 -8 -77 -43 -12 -5 -17 -49)
1969-12-31 18:00:11.832449460,(-3 127 127 45 2 43 41 2)
1969-12-31 18:00:11.833561983,(-13 -80 -37 -6 -41 -36 -36 -31)
1969-12-31 18:00:11.833561983,(21 -40 -39 -7 -7 1 -32 1)
1969-12-31 18:00:11.848024793,(26 -22 -4 4 -4 -34 -57 -12)
1969-12-31 18:00:11.848024793,(-3 -62 -53 -4 62 30 4 -19)
1969-12-31 18:00:11.858037508,(17 110 53 25 9 3 15 21)
1969-12-31 18:00:11.858037508,(-19 63 54 6 17 3 13 0)
1969-12-31 18:00:11.873612842,(4 10 24 4 -48 -25 14 23)
1969-12-31 18:00:11.873612842,(40 -25 -17 -17 -10 8 11 28)
1969-12-31 18:00:11.908101081,(21 -44 -33 -3 -19 -10 1 20)
1969-12-31 18:00:11.908101081,(-6 -23 -24 29 107 72 52 13)
1969-12-31 18:00:11.909213605,(-5 127 88 14 -30 -35 -29 -21)
1969-12-31 18:00:11.909213605,(42 86 53 12 -61 -47 -11 8)
1969-12-31 18:00:11.914776224,(-32 -25 -11 -27 20 4 13 -17)
1969-12-31 18:00:11.914776224,(18 -76 -43 -12 -7 -1 19 35)
1969-12-31 18:00:11.924788938,(-7 -94 -65 -25 -36 -7 -9 -22)
1969-12-31 18:00:11.924788938,(-34 33 15 7 11 3 3 10)
1969-12-31 18:00:11.925901462,(8 70 38 3 -8 8 -26 -40)
1969-12-31 18:00:11.925901462,(8 -33 -45 -4 14 2 1 8)
1969-12-31 18:00:11.940364272,(4 19 21 19 28 17 11 41)
1969-12-31 18:00:11.940364272,(21 43 45 12 -3 3 4 10)
1969-12-31 18:00:11.948151939,(-16 -97 -43 -3 34 20 -15 -40)
1969-12-31 18:00:11.948151939,(16 79 12 -11 -28 -12 0 -11)
1969-12-31 18:00:11.965952320,(-22 -74 -50 -19 8 28 23 22)
1969-12-31 18:00:11.965952320,(45 -52 -9 22 -25 -42 -13 39)
1969-12-31 18:00:11.967064844,(-12 15 -20 -38 -60 -36 -7 -45)
1969-12-31 18:00:11.967064844,(-5 8 3 -2 -2 3 -35 8)
1969-12-31 18:00:11.991540369,(-23 88 104 33 13 -1 32 -10)
1969-12-31 18:00:11.991540369,(22 -25 -13 1 36 51 33 36)
1969-12-31 18:00:11.992652893,(-1 -105 -74 -13 6 7 -34 -11)
1969-12-31 18:00:11.992652893,(13 6 -1 -4 -9 -16 14 0)
1969-12-31 18:00:12.007115702,(14 82 52 24 23 -3 -9 1)
1969-12-31 18:00:12.007115702,(-32 2 -7 -14 -16 -10 -9 -60)
1969-12-31 18:00:12.014903369,(-5 -29 -23 -8 2 13 12 21)
1969-12-31 18:00:12.014903369,(-11 -47 -46 -19 -11 -7 17 9)
1969-12-31 18:00:12.059404323,(-43 52 63 5 -86 -76 -104 -78)
1969-12-31 18:00:12.059404323,(7 -51 -56 -20 13 9 -3 6)
1969-12-31 18:00:12.060516847,(12 57 54 35 55 26 31 -10)
1969-12-31 18:00:12.060516847,(-10 1 5 26 55 35 4 0)
1969-12-31 18:00:12.061629371,(7 41 11 -31 -94 -53 -4 57)
1969-12-31 18:00:12.061629371,(21 23 -14 -22 -23 -19 -13 -5)
1969-12-31 18:00:12.066079466,(-14 -56 -18 4 10 -9 -37 -19)
1969-12-31 18:00:12.066079466,(-15 -48 -36 -21 -16 6 12 -3)
1969-12-31 18:00:12.073867133,(27 18 9 19 71 39 35 14)
1969-12-31 18:00:12.073867133,(6 90 77 29 5 0 -25 14)
1969-12-31 18:00:12.081654800,(45 6 -14 11 33 36 24 18)
1969-12-31 18:00:12.081654800,(7 -26 -3 -31 -113 -90 -34 -25)
1969-12-31 18:00:12.099455181,(-37 -121 -78 -33 5 -12 -35 -74)
1969-12-31 18:00:12.099455181,(-21 12 10 -9 -13 -11 1 -31)
1969-12-31 18:00:12.100567705,(14 -8 -16 1 15 21 24 40)
1969-12-31 18:00:12.100567705,(17 54 65 37 34 23 -8 18)
1969-12-31 18:00:12.125043229,(-2 -31 -44 3 18 -2 -20 -24)
1969-12-31 18:00:12.125043229,(-9 -67 -21 9 22 24 38 36)
1969-12-31 18:00:12.126155753,(-13 69 57 9 -26 -20 6 -32)
1969-12-31 18:00:12.126155753,(-56 10 33 -9 -23 -15 -15 -25)
1969-12-31 18:00:12.140618563,(54 -67 -47 4 34 37 45 50)
1969-12-31 18:00:12.140618563,(-45 -32 3 23 49 29 -14 -30)
1969-12-31 18:00:12.148406230,(32 25 -5 -18 -26 -10 18 47)
1969-12-31 18:00:12.148406230,(-10 39 45 26 42 11 -16 -47)
1969-12-31 18:00:12.166206612,(-2 30 18 -8 -65 -27 7 -29)
1969-12-31 18:00:12.166206612,(-4 -66 -69 -39 -27 -20 -31 -5)
1969-12-31 18:00:12.168431659,(21 62 47 10 0 -9 -3 26)
1969-12-31 18:00:12.168431659,(-24 -24 -31 2 32 34 19 -1)
1969-12-31 18:00:12.215157661,(10 -77 -58 15 46 39 12 30)
1969-12-31 18:00:12.215157661,(8 73 44 -9 -24 -30 3 11)
1969-12-31 18:00:12.227395423,(-18 -8 1 -3 -20 -17 -32 12)
1969-12-31 18:00:12.227395423,(27 -44 -67 -19 12 11 23 12)
1969-12-31 18:00:12.227395423,(-7 38 47 7 -22 -16 -28 2)
1969-12-31 18:00:12.227395423,(3 -39 -16 6 19 17 1 7)
1969-12-31 18:00:12.232958042,(16 0 -25 -9 -12 -1 44 50)
1969-12-31 18:00:12.232958042,(4 3 32 35 37 27 -15 -29)
1969-12-31 18:00:12.234070566,(-9 76 17 -11 -28 -39 -6 -1)
1969-12-31 18:00:12.234070566,(-29 -49 -8 -18 4 20 -8 -51)
1969-12-31 18:00:12.236295613,(-29 1 3 4 16 -10 2 -2)
1969-12-31 18:00:12.236295613,(9 -51 -30 -3 -8 13 -17 -1)
1969-12-31 18:00:12.258546090,(-6 -32 -5 6 16 -3 23 -7)
1969-12-31 18:00:12.258546090,(6 62 8 -13 -62 -55 -43 -26)
1969-12-31 18:00:12.259658614,(-17 -77 -36 0 34 46 2 -36)
1969-12-31 18:00:12.259658614,(13 30 8 -14 31 7 4 19)
1969-12-31 18:00:12.273008900,(-14 -5 -4 5 2 7 11 -34)
1969-12-31 18:00:12.273008900,(20 77 62 10 -54 -43 -13 5)
1969-12-31 18:00:12.283021615,(-9 11 20 1 -17 -2 7 -10)
1969-12-31 18:00:12.283021615,(11 -8 -2 -1 10 7 15 27)
1969-12-31 18:00:12.299709472,(-9 -40 -60 -18 8 2 -27 12)
1969-12-31 18:00:12.299709472,(-18 -28 -2 13 50 28 6 1)
1969-12-31 18:00:12.301934520,(15 17 34 6 -15 -19 16 19)
1969-12-31 18:00:12.301934520,(-33 -1 -24 -23 -41 -17 -16 -25)
1969-12-31 18:00:12.324184997,(-18 41 55 20 24 12 42 67)
1969-12-31 18:00:12.324184997,(79 -1 -35 12 23 28 17 58)
1969-12-31 18:00:12.326410045,(-33 -51 -1 -5 -21 -22 -19 7)
1969-12-31 18:00:12.326410045,(49 -9 -37 -11 17 7 -3 -4)
1969-12-31 18:00:12.367573427,(-61 25 42 -14 -85 -82 -48 -29)
1969-12-31 18:00:12.367573427,(-43 16 6 -7 -7 16 0 -74)
1969-12-31 18:00:12.369798474,(21 37 19 16 22 13 6 15)
1969-12-31 18:00:12.369798474,(8 -48 -23 -1 11 20 23 29)
1969-12-31 18:00:12.375361093,(14 -24 -27 0 38 15 -27 -17)
1969-12-31 18:00:12.375361093,(2 -97 -97 -25 -22 -9 11 22)
1969-12-31 18:00:12.375361093,(-17 87 84 34 8 44 -2 -49)
1969-12-31 18:00:12.375361093,(-33 -21 -13 -9 -63 -79 -20 9)
1969-12-31 18:00:12.390936427,(41 37 34 20 51 40 36 42)
1969-12-31 18:00:12.390936427,(25 -27 3 36 74 48 22 57)
1969-12-31 18:00:12.392048951,(-5 -48 -57 -28 -18 -17 30 8)
1969-12-31 18:00:12.392048951,(0 29 8 -29 -73 -36 -16 8)
1969-12-31 18:00:12.415411952,(-1 -22 8 11 54 41 -34 -44)
1969-12-31 18:00:12.415411952,(21 -18 -27 9 16 -6 45 62)
1969-12-31 18:00:12.416524476,(-12 -62 -24 -44 -70 -48 -38 -14)
1969-12-31 18:00:12.416524476,(-7 127 100 38 36 18 -10 -14)
1969-12-31 18:00:12.432099809,(14 -16 -12 13 66 75 31 13)
1969-12-31 18:00:12.432099809,(-9 -23 -13 -19 -62 -74 -11 -10)
1969-12-31 18:00:12.433212333,(4 37 21 8 -2 -7 20 3)
1969-12-31 18:00:12.433212333,(-25 -54 -76 -44 -20 -12 -3 -1)
1969-12-31 18:00:12.457687858,(-37 23 43 12 -5 -6 -35 -38)
1969-12-31 18:00:12.457687858,(-11 23 11 25 90 67 27 -22)
1969-12-31 18:00:12.458800381,(22 -4 1 8 -23 -15 -8 2)
1969-12-31 18:00:12.458800381,(18 16 15 1 -21 -12 -11 -5)
1969-12-31 18:00:12.483275906,(29 -10 -15 11 29 36 43 60)
1969-12-31 18:00:12.483275906,(-59 -14 -33 -59 -80 -42 -18 -36)
1969-12-31 18:00:12.483275906,(-30 3 -5 -19 -15 -34 -24 -55)
1969-12-31 18:00:12.483275906,(14 -39 -6 6 10 10 15 34)
1969-12-31 18:00:12.535564526,(21 24 -15 6 30 39 47 33)
1969-12-31 18:00:12.535564526,(38 4 4 13 14 -5 -41 0)
1969-12-31 18:00:12.535564526,(-35 4 15 -16 -43 -48 -36 -28)
1969-12-31 18:00:12.535564526,(-41 1 10 5 -10 -2 -3 -61)
1969-12-31 18:00:12.537789574,(5 -38 -43 -19 7 -1 10 -14)
1969-12-31 18:00:12.537789574,(-7 -52 -10 -12 -25 -4 8 36)
1969-12-31 18:00:12.541127146,(13 53 5 8 7 -5 -41 -3)
1969-12-31 18:00:12.541127146,(75 60 44 43 32 12 29 79)
1969-12-31 18:00:12.548914812,(-20 -31 9 -7 -33 -24 -28 -34)
1969-12-31 18:00:12.548914812,(8 30 22 1 22 21 -1 -26)
1969-12-31 18:00:12.550027336,(-17 -66 -60 -15 22 16 15 -32)
1969-12-31 18:00:12.550027336,(-36 -19 12 13 3 -19 -71 -34)
1969-12-31 18:00:12.566715194,(26 45 5 5 -1 10 33 28)
1969-12-31 18:00:12.566715194,(-13 2 12 4 1 11 -21 -32)
1969-12-31 18:00:12.566715194,(13 -15 -16 11 31 16 30 45)
1969-12-31 18:00:12.566715194,(-7 -41 -42 -16 -29 -37 -19 -5)
1969-12-31 18:00:12.591190718,(-16 7 24 -4 -32 -19 19 4)
1969-12-31 18:00:12.591190718,(29 -2 6 0 -15 -10 -19 15)
1969-12-31 18:00:12.592303242,(-35 50 24 17 39 22 -4 -45)
1969-12-31 18:00:12.592303242,(-12 -12 11 12 47 65 19 0)
1969-12-31 18:00:12.624566434,(23 6 -10 -3 -65 -59 -20 -7)
1969-12-31 18:00:12.625678957,(-17 -24 -22 -40 -55 -34 -11 -4)
1969-12-31 18:00:12.625678957,(-3 -56 -25 -3 24 28 31 32)
1969-12-31 18:00:12.625678957,(-21 22 8 -9 -11 -22 6 1)
1969-12-31 18:00:12.632354100,(17 -26 -23 2 22 10 2 -8)
1969-12-31 18:00:12.632354100,(21 53 22 2 29 24 -3 4)
1969-12-31 18:00:12.633466624,(-33 3 7 -6 -53 -34 5 -18)
1969-12-31 18:00:12.633466624,(3 4 -3 -3 -4 -22 -3 -15)
1969-12-31 18:00:12.685755245,(-8 -25 -14 -13 -23 -14 -22 5)
1969-12-31 18:00:12.685755245,(5 -8 -33 -6 20 12 7 -10)
1969-12-31 18:00:12.686867769,(-12 -8 46 34 53 48 29 39)
1969-12-31 18:00:12.686867769,(20 37 29 23 13 15 31 42)
1969-12-31 18:00:12.687980292,(-6 -5 -22 -35 -52 -54 -47 -17)
1969-12-31 18:00:12.687980292,(-21 -15 -3 8 2 4 -7 -45)
1969-12-31 18:00:12.691317864,(79 0 -37 -8 16 -1 14 81)
1969-12-31 18:00:12.691317864,(-56 -61 -12 -13 -16 8 0 -32)
1969-12-31 18:00:12.699105530,(3 54 31 9 8 19 -1 -9)
1969-12-31 18:00:12.699105530,(-12 33 42 44 56 24 10 -5)
1969-12-31 18:00:12.700218055,(-22 -25 -16 -18 -57 -40 -6 8)
1969-12-31 18:00:12.700218055,(11 -18 -22 -23 4 11 5 3)
1969-12-31 18:00:12.724693579,(11 -7 -25 -25 -26 -15 4 9)
1969-12-31 18:00:12.724693579,(-12 -32 2 -1 -12 -20 -18 -8)
1969-12-31 18:00:12.725806103,(0 24 -5 5 38 31 -3 -37)
1969-12-31 18:00:12.725806103,(-2 34 36 17 -10 -18 -12 -25)
1969-12-31 18:00:12.740268913,(18 -17 -4 -7 -11 6 3 43)
1969-12-31 18:00:12.740268913,(-13 9 -2 8 36 29 13 -9)
1969-12-31 18:00:12.750281627,(3 -17 -19 -21 -37 -35 -29 -31)
1969-12-31 18:00:12.750281627,(8 -9 -23 -19 -5 -6 -16 -19)
1969-12-31 18:00:12.765856961,(16 -13 -12 -1 14 9 10 5)
1969-12-31 18:00:12.765856961,(-17 -15 13 11 5 -11 -5 1)
1969-12-31 18:00:12.766969485,(15 57 35 7 3 3 -7 18)
1969-12-31 18:00:12.766969485,(34 25 16 24 39 43 45 44)
1969-12-31 18:00:12.791445010,(0 -12 -6 -9 -53 -55 9 55)
1969-12-31 18:00:12.791445010,(-11 -24 -23 -29 -63 -70 -66 -10)
1969-12-31 18:00:12.792557533,(-6 -13 -7 2 14 3 -24 -8)
1969-12-31 18:00:12.792557533,(30 -31 -25 -14 2 8 27 25)
1969-12-31 18:00:12.834833439,(-25 25 20 16 55 39 5 -22)
1969-12-31 18:00:12.834833439,(-19 8 6 -2 -10 0 7 -14)
1969-12-31 18:00:12.835945963,(13 28 10 0 24 16 4 0)
1969-12-31 18:00:12.835945963,(-15 -9 -5 -13 -85 -43 -16 -22)
1969-12-31 18:00:12.837058487,(11 -19 -20 -3 29 0 -40 -71)
1969-12-31 18:00:12.837058487,(6 19 7 -4 -21 -2 -12 -12)
1969-12-31 18:00:12.841508582,(-36 -20 -1 8 27 18 13 -30)
1969-12-31 18:00:12.841508582,(12 20 -10 0 9 5 6 3)
1969-12-31 18:00:12.858196440,(-37 -17 -3 -5 -4 -9 4 15)
1969-12-31 18:00:12.858196440,(-9 18 14 15 22 19 11 -18)
1969-12-31 18:00:12.859308964,(-11 -48 -16 -5 -12 -3 -5 -14)
1969-12-31 18:00:12.859308964,(-4 23 15 -3 1 2 -2 7)
1969-12-31 18:00:12.873771774,(8 24 20 10 5 7 16 7)
1969-12-31 18:00:12.873771774,(7 -10 -9 4 15 9 9 10)
1969-12-31 18:00:12.883784488,(15 -8 -20 -25 -56 -52 -21 24)
1969-12-31 18:00:12.883784488,(-38 -17 -13 -6 13 -2 -15 -49)
1969-12-31 18:00:12.899359822,(-19 -17 -2 5 -7 0 0 -10)
1969-12-31 18:00:12.899359822,(20 34 14 -4 2 24 38 27)
1969-12-31 18:00:12.900472346,(5 11 2 7 1 -1 -2 -8)
1969-12-31 18:00:12.900472346,(20 -4 3 -3 -1 -19 -18 13)
1969-12-31 18:00:12.924947870,(24 21 0 12 13 31 8 2)
1969-12-31 18:00:12.924947870,(-6 -17 -2 -21 -12 -2 14 5)
1969-12-31 18:00:12.926060394,(-22 -14 2 38 29 8 -18 -8)
1969-12-31 18:00:12.926060394,(2 -7 -10 -1 16 -5 13 16)
1969-12-31 18:00:12.940523204,(12 13 4 -5 -11 -6 8 14)
1969-12-31 18:00:12.940523204,(-10 7 4 8 -6 3 -4 7)
1969-12-31 18:00:12.949423395,(47 6 6 -8 1 -5 27 77)
1969-12-31 18:00:12.949423395,(33 1 -6 1 17 31 7 32)
1969-12-31 18:00:12.985024158,(-11 0 3 5 -25 -8 -3 -28)
1969-12-31 18:00:12.985024158,(-6 -6 -11 -21 -36 -21 -13 -24)
1969-12-31 18:00:12.986136682,(7 15 3 -2 10 -9 -18 -6)
1969-12-31 18:00:12.986136682,(35 6 6 5 -6 -7 -12 34)
1969-12-31 18:00:12.991699301,(-78 -40 -14 -19 2 17 10 -37)
1969-12-31 18:00:12.991699301,(9 -6 -3 5 15 -22 9 3)
1969-12-31 18:00:12.992811825,(-21 -4 -5 -6 -15 -3 -33 -62)
1969-12-31 18:00:12.992811825,(0 -7 -2 -6 -15 -13 13 12)
1969-12-31 18:00:13.017287349,(102 48 15 -3 11 50 12 46)
1969-12-31 18:00:13.017287349,(-103 -61 -27 -6 4 -24 2 -67)
1969-12-31 18:00:13.018399873,(20 2 -1 -8 -4 44 -30 3)
1969-12-31 18:00:13.018399873,(-38 -22 -17 -7 -23 -45 16 -12)
1969-12-31 18:00:13.032862683,(10 9 9 27 12 -24 -26 -14)
1969-12-31 18:00:13.032862683,(23 16 8 12 14 33 17 -5)
1969-12-31 18:00:13.033975207,(7 19 10 3 7 30 32 1)
1969-12-31 18:00:13.033975207,(-41 -30 -11 -15 -16 -39 -62 -20)
1969-12-31 18:00:13.058450731,(-10 -20 -17 -25 -14 -12 -5 -3)
1969-12-31 18:00:13.058450731,(47 14 14 10 15 42 16 49)
1969-12-31 18:00:13.058450731,(-17 8 -2 -2 -2 -15 -5 -12)
1969-12-31 18:00:13.058450731,(-28 3 -8 -7 -4 16 -2 -55)
1969-12-31 18:00:13.084038779,(42 12 10 8 5 -19 -5 8)
1969-12-31 18:00:13.084038779,(40 18 5 6 7 -1 5 29)
1969-12-31 18:00:13.085151303,(30 0 -2 3 5 7 -7 15)
1969-12-31 18:00:13.085151303,(-61 -38 -10 -6 -12 3 9 -13)
1969-12-31 18:00:13.099614113,(-39 -9 -13 -11 -9 -27 -2 -8)
1969-12-31 18:00:13.099614113,(18 2 2 -2 3 9 -6 26)
1969-12-31 18:00:13.100726637,(40 37 19 11 13 80 38 31)
1969-12-31 18:00:13.100726637,(6 0 -17 -15 -28 -94 -61 -35)
1969-12-31 18:00:13.143002543,(-92 -37 -9 -10 -8 1 -15 -63)
1969-12-31 18:00:13.143002543,(14 -20 -11 -9 -6 -14 -20 -3)
1969-12-31 18:00:13.143002543,(-18 -21 -3 -1 2 -8 17 5)
1969-12-31 18:00:13.143002543,(85 48 29 32 30 56 45 75)
1969-12-31 18:00:13.151902734,(56 35 7 -5 -12 -18 -26 12)
1969-12-31 18:00:13.151902734,(-41 -12 1 9 4 -12 -15 -48)
1969-12-31 18:00:13.153015257,(43 3 -10 -15 -13 -25 5 38)
1969-12-31 18:00:13.153015257,(-91 -53 -17 -6 2 20 4 -35)
1969-12-31 18:00:13.166365544,(5 -14 -22 -7 2 4 18 65)
1969-12-31 18:00:13.166365544,(3 -33 -10 -3 2 4 6 2)
1969-12-31 18:00:13.167478067,(-41 31 0 2 -8 -22 -17 -38)
1969-12-31 18:00:13.167478067,(25 42 43 15 8 20 5 2)
1969-12-31 18:00:13.191953592,(7 -13 6 3 2 2 10 15)
1969-12-31 18:00:13.191953592,(50 17 -3 3 5 11 24 70)
1969-12-31 18:00:13.193066115,(-52 -45 -31 -20 -13 -26 -33 -81)
1969-12-31 18:00:13.193066115,(-35 -10 -12 -13 -2 3 -9 -42)
1969-12-31 18:00:13.217541640,(-5 5 3 3 -2 -8 -9 -21)
1969-12-31 18:00:13.217541640,(51 43 16 8 4 6 14 39)
1969-12-31 18:00:13.218654164,(-36 -36 6 8 1 -9 -2 -5)
1969-12-31 18:00:13.218654164,(16 4 -4 4 2 14 12 16)
1969-12-31 18:00:13.233116974,(22 -10 -3 -8 -4 -1 -3 -9)
1969-12-31 18:00:13.233116974,(-26 11 -16 -5 -3 -7 -12 -27)
1969-12-31 18:00:13.234229498,(13 15 38 18 3 -1 9 14)
1969-12-31 18:00:13.234229498,(-3 -17 -13 2 3 3 -8 -19)
1969-12-31 18:00:13.258705022,(-11 5 2 6 1 2 -2 -14)
1969-12-31 18:00:13.258705022,(-14 -2 -3 -5 -1 -4 -8 -2)
1969-12-31 18:00:13.294305785,(-1 -10 -22 -16 -4 -4 2 4)
1969-12-31 18:00:13.294305785,(22 6 5 -1 1 11 12 23)
1969-12-31 18:00:13.295418309,(-5 3 1 1 0 -2 1 -6)
1969-12-31 18:00:13.295418309,(-7 5 9 7 3 1 3 -1)
1969-12-31 18:00:13.296530833,(-11 -15 5 0 -1 -7 -10 -7)
1969-12-31 18:00:13.296530833,(18 31 20 3 2 5 6 3)
1969-12-31 18:00:13.310993643,(-40 -22 -24 -14 -5 -3 -8 -18)
1969-12-31 18:00:13.310993643,(2 -6 6 3 -4 -3 3 -7)
1969-12-31 18:00:13.312106167,(19 32 15 15 5 2 2 11)
1969-12-31 18:00:13.312106167,(4 8 2 2 0 2 2 6)
1969-12-31 18:00:13.325456453,(1 -29 -20 -8 -5 -3 -5 -4)
1969-12-31 18:00:13.325456453,(-34 26 34 16 7 3 13 3)
1969-12-31 18:00:13.326568976,(-13 -23 -27 -12 -9 -10 -12 -16)
1969-12-31 18:00:13.326568976,(10 -20 -24 -10 -4 -1 -3 2)
1969-12-31 18:00:13.351044501,(3 37 37 11 4 6 5 -1)
1969-12-31 18:00:13.351044501,(-3 -13 -8 -5 -5 -7 -10 -2)
1969-12-31 18:00:13.352157025,(6 17 16 6 1 -2 -11 -4)
1969-12-31 18:00:13.352157025,(-7 1 -2 -3 0 2 9 1)
1969-12-31 18:00:13.366619835,(1 -16 -12 -3 -1 -5 -8 4)
1969-12-31 18:00:13.366619835,(-4 -21 -17 -5 -4 -5 -3 -11)
1969-12-31 18:00:13.367732359,(4 11 3 -3 -1 1 9 10)
1969-12-31 18:00:13.367732359,(11 6 0 2 4 7 6 7)
1969-12-31 18:00:13.392207883,(-10 -5 0 2 -2 -2 -7 -8)
1969-12-31 18:00:13.392207883,(6 -15 -17 -8 -3 -1 -1 7)
1969-12-31 18:00:13.393320407,(-7 22 30 12 6 -1 -7 2)
1969-12-31 18:00:13.393320407,(-1 0 4 3 -1 -1 1 -11)
1969-12-31 18:00:13.417795931,(-5 13 9 3 -1 -3 3 2)
1969-12-31 18:00:13.417795931,(-6 -6 -2 -3 1 1 -9 -5)
1969-12-31 18:00:13.418908455,(8 -19 -24 -14 -4 -2 6 8)
1969-12-31 18:00:13.418908455,(3 3 5 4 1 -1 0 6)
1969-12-31 18:00:13.451171647,(-7 2 7 2 4 4 4 -8)
1969-12-31 18:00:13.451171647,(1 -4 -11 -7 -7 -7 -1 -2)
1969-12-31 18:00:13.452284170,(-2 2 -8 -2 -1 -3 -13 -3)
1969-12-31 18:00:13.452284170,(-3 7 8 3 -1 -1 -5 -2)
1969-12-31 18:00:13.462296885,(-4 -15 -7 0 2 6 4 -1)
1969-12-31 18:00:13.462296885,(-3 8 2 2 0 -1 -3 -6)
1969-12-31 18:00:13.463409409,(3 -10 -10 -3 0 3 23 15)
1969-12-31 18:00:13.463409409,(0 -8 -3 -2 -3 -2 -6 2)
1969-12-31 18:00:13.484547362,(-1 2 0 -2 -2 -7 -9 -14)
1969-12-31 18:00:13.484547362,(0 4 -2 1 1 -2 -7 2)
1969-12-31 18:00:13.485659886,(2 -4 -1 0 0 2 4 2)
1969-12-31 18:00:13.485659886,(7 1 -2 -2 1 3 10 10)
1969-12-31 18:00:13.500122695,(-1 0 3 2 1 0 -5 -2)
1969-12-31 18:00:13.500122695,(0 14 12 2 1 -3 -2 -3)
1969-12-31 18:00:13.501235219,(-1 -15 -17 -8 -5 -4 3 -1)
1969-12-31 18:00:13.501235219,(0 -6 -4 -6 -3 -4 -6 -2)
1969-12-31 18:00:13.525710744,(2 5 4 2 3 5 6 13)
1969-12-31 18:00:13.525710744,(-2 3 0 -7 -2 0 0 -3)
1969-12-31 18:00:13.526823268,(-3 -3 -2 7 1 0 15 -11)
1969-12-31 18:00:13.526823268,(-8 -8 -3 0 -3 -8 -36 -20)
1969-12-31 18:00:13.551298792,(-5 -2 0 -2 -6 -1 3 0)
1969-12-31 18:00:13.551298792,(-5 -5 -4 -7 -4 -2 -2 1)
1969-12-31 18:00:13.552411316,(6 4 6 3 -2 4 7 7)
1969-12-31 18:00:13.552411316,(0 2 2 0 1 2 4 -3)
1969-12-31 18:00:13.566874126,(-4 -6 -5 -8 -5 -9 -2 -1)
1969-12-31 18:00:13.566874126,(1 -3 -2 0 2 7 -3 -1)
1969-12-31 18:00:13.567986650,(0 -5 -12 -14 -7 -1 -3 3)
1969-12-31 18:00:13.567986650,(-6 -11 0 -16 -9 -4 4 -11)
1969-12-31 18:00:13.603587413,(6 5 -1 22 4 0 -8 1)
1969-12-31 18:00:13.603587413,(6 13 19 9 -3 4 8 6)
1969-12-31 18:00:13.603587413,(-4 1 17 31 18 5 -1 -4)
1969-12-31 18:00:13.603587413,(-6 -5 -13 -2 -1 -9 -7 1)
1969-12-31 18:00:13.626950413,(-7 -10 -20 -20 -14 1 3 3)
1969-12-31 18:00:13.626950413,(-6 -7 -21 -21 -13 -7 0 0)
1969-12-31 18:00:13.628062937,(1 0 -6 -4 3 -15 -12 0)
1969-12-31 18:00:13.628062937,(2 1 -5 7 -6 -3 9 11)
1969-12-31 18:00:13.633625556,(-2 3 -1 -1 11 5 6 2)
1969-12-31 18:00:13.633625556,(2 7 0 1 -4 -10 -4 4)
1969-12-31 18:00:13.633625556,(0 0 1 -1 -1 0 0 0)
1969-12-31 18:00:13.633625556,(-5 -5 -4 -1 -2 -2 -1 -2)
1969-12-31 18:00:13.635850604,(-2 -1 -2 -1 -2 -1 -1 0)
1969-12-31 18:00:13.635850604,(0 -1 -2 -1 0 0 0 -1)
1969-12-31 18:00:13.659213605,(0 1 3 0 1 -1 0 -1)
1969-12-31 18:00:13.659213605,(-1 -6 -3 0 -1 0 -1 -1)
1969-12-31 18:00:13.660326128,(1 -1 1 0 -1 -1 -1 1)
1969-12-31 18:00:13.660326128,(1 0 -3 -3 -3 -3 0 1)
1969-12-31 18:00:13.674788938,(-3 -2 -3 0 -1 -1 -1 -1)
1969-12-31 18:00:13.674788938,(-1 -3 -1 -2 -1 -1 -1 -1)
1969-12-31 18:00:13.682576605,(0 0 -1 1 0 0 -4 -1)
1969-12-31 18:00:13.682576605,(-2 0 -3 -3 -1 0 -2 -1)
1969-12-31 18:00:13.700376987,(3 3 0 4 1 1 0 1)
1969-12-31 18:00:13.700376987,(-2 -3 -3 -5 -1 0 -2 -1)
1969-12-31 18:00:13.702602034,(-2 -2 -3 -2 -1 -1 -1 -1)
1969-12-31 18:00:13.702602034,(0 0 5 7 2 -2 0 0)
1969-12-31 18:00:13.768240941,(1 -1 -2 -1 0 1 1 -1)
1969-12-31 18:00:13.768240941,(-2 -1 -5 -7 -2 -1 -1 -1)
1969-12-31 18:00:13.770465989,(0 3 1 1 -2 1 0 0)
1969-12-31 18:00:13.770465989,(-2 -3 -3 0 -1 -2 -1 -1)
1969-12-31 18:00:13.771578512,(-1 -1 -2 -1 0 -1 -1 -1)
1969-12-31 18:00:13.771578512,(0 0 0 2 -1 -1 -2 -1)
1969-12-31 18:00:13.782703751,(-2 -5 -9 -5 -2 0 1 -1)
1969-12-31 18:00:13.782703751,(-1 2 -2 -6 -2 -10 -3 -2)
1969-12-31 18:00:13.783816275,(2 3 14 7 0 8 0 0)
1969-12-31 18:00:13.783816275,(0 2 4 -2 0 -4 -3 -2)
1969-12-31 18:00:13.800504132,(0 1 -3 -4 -3 -7 -2 0)
1969-12-31 18:00:13.800504132,(-1 -2 -5 0 1 1 0 0)
1969-12-31 18:00:13.801616656,(0 -2 0 -2 -1 0 -1 0)
1969-12-31 18:00:13.801616656,(1 1 4 3 -1 -2 -1 -2)
1969-12-31 18:00:13.807179275,(0 1 -9 -18 -7 -2 -2 -1)
1969-12-31 18:00:13.807179275,(0 -10 -8 -2 0 0 -1 0)
1969-12-31 18:00:13.842780038,(-5 -2 -10 -15 -3 -6 -4 -4)
1969-12-31 18:00:13.842780038,(-1 -1 5 6 0 3 2 0)
1969-12-31 18:00:13.843892562,(1 7 11 9 5 0 -1 1)
1969-12-31 18:00:13.843892562,(1 8 22 27 3 2 2 1)
1969-12-31 18:00:13.846117610,(3 1 4 0 0 1 1 0)
1969-12-31 18:00:13.846117610,(0 -2 -9 -14 -2 -2 -3 -1)
1969-12-31 18:00:13.910643992,(-2 -1 -1 -2 -2 -2 -3 -3)
1969-12-31 18:00:13.910643992,(-3 -11 -20 -17 -5 -1 -1 -1)
1969-12-31 18:00:13.911756516,(-1 -3 0 -1 -2 -1 -3 -3)
1969-12-31 18:00:13.911756516,(1 3 3 3 -1 0 -2 0)
1969-12-31 18:00:13.912869040,(0 2 0 -3 0 -2 -1 -2)
1969-12-31 18:00:13.912869040,(-3 -7 -11 -16 -7 -4 -4 -5)
1969-12-31 18:00:13.918431659,(-2 1 5 8 1 1 2 1)
1969-12-31 18:00:13.918431659,(-3 -6 -4 -2 0 4 4 2)
1969-12-31 18:00:13.919544183,(-1 -9 -25 -30 -9 -6 -5 -4)
1969-12-31 18:00:13.919544183,(2 7 25 38 5 1 -1 -1)
1969-12-31 18:00:13.925106802,(-1 0 12 8 -1 0 1 -2)
1969-12-31 18:00:13.925106802,(0 5 -5 -5 1 0 2 3)
1969-12-31 18:00:13.927331850,(-3 -5 -3 -5 -1 1 2 -1)
1969-12-31 18:00:13.927331850,(1 4 18 14 2 -2 -5 -6)
1969-12-31 18:00:13.958482516,(-1 -6 -18 -12 -4 -6 -8 -12)
1969-12-31 18:00:13.958482516,(-4 -6 -12 -15 -5 -3 0 -2)
1969-12-31 18:00:13.960707565,(0 -1 7 2 -1 -1 -2 -2)
1969-12-31 18:00:13.960707565,(-5 -5 -15 -10 -1 -1 1 0)
1969-12-31 18:00:13.967382708,(-1 -6 -1 5 -2 -1 1 3)
1969-12-31 18:00:13.967382708,(1 1 2 1 0 -4 -2 -2)
1969-12-31 18:00:13.969607756,(-1 0 -13 -11 -4 -4 2 4)
1969-12-31 18:00:13.969607756,(-1 1 0 0 3 0 1 3)
1969-12-31 18:00:14.000758423,(-1 3 3 10 2 -1 4 7)
1969-12-31 18:00:14.000758423,(0 0 -2 -3 2 0 2 2)
1969-12-31 18:00:14.002983471,(0 -3 -13 -13 -5 -2 0 4)
1969-12-31 18:00:14.002983471,(2 1 0 -1 -1 -3 -3 -3)
1969-12-31 18:00:14.007433566,(-1 6 12 10 5 2 0 1)
1969-12-31 18:00:14.007433566,(1 -4 -8 -8 -3 0 -2 1)
1969-12-31 18:00:14.017446281,(1 -2 -6 -4 -3 -3 -2 -6)
1969-12-31 18:00:14.017446281,(-1 -2 1 7 -1 0 -1 -2)
1969-12-31 18:00:14.050821996,(0 3 4 2 -2 -3 -3 -6)
1969-12-31 18:00:14.050821996,(0 0 2 -3 -1 1 2 1)
1969-12-31 18:00:14.053047044,(-2 -1 1 1 0 0 -3 1)
1969-12-31 18:00:14.053047044,(1 -2 5 4 0 0 -2 1)
1969-12-31 18:00:14.058609663,(-3 -6 -8 -4 -1 0 2 3)
1969-12-31 18:00:14.058609663,(0 -1 -3 -4 -4 -2 -3 -2)
1969-12-31 18:00:14.060834711,(2 13 22 7 2 -2 -3 -3)
1969-12-31 18:00:14.060834711,(-2 -3 -2 -2 -1 1 0 0)
1969-12-31 18:00:14.093097902,(-3 -12 -6 1 0 1 1 2)
1969-12-31 18:00:14.093097902,(-4 7 2 -3 -3 -3 -3 -3)
1969-12-31 18:00:14.094210426,(1 -2 -6 1 0 -1 -2 -2)
1969-12-31 18:00:14.094210426,(0 -1 -3 -1 -2 0 0 3)
1969-12-31 18:00:14.100885569,(1 -3 -3 0 -1 0 0 1)
1969-12-31 18:00:14.100885569,(-1 9 1 1 0 -2 1 -1)
1969-12-31 18:00:14.101998093,(-2 -6 -10 -6 -4 -2 -1 -1)
1969-12-31 18:00:14.103110617,(-2 -3 -2 -2 -2 -1 -1 0)
1969-12-31 18:00:14.126473617,(-4 -4 1 1 -1 -1 -1 -1)
1969-12-31 18:00:14.126473617,(0 0 -3 -2 0 -2 -2 -3)
1969-12-31 18:00:14.128698665,(-3 0 1 -1 -1 -1 -1 -4)
1969-12-31 18:00:14.128698665,(5 1 0 0 -1 0 3 1)
1969-12-31 18:00:14.140936427,(1 0 1 0 0 0 -1 1)
1969-12-31 18:00:14.140936427,(4 0 4 1 -1 0 -2 1)
1969-12-31 18:00:14.150949142,(-12 -4 -1 0 -3 1 -3 -9)
1969-12-31 18:00:14.150949142,(11 -1 1 -2 -1 0 -1 8)
1969-12-31 18:00:14.167636999,(-28 -5 -6 -6 -2 -3 -6 -33)
1969-12-31 18:00:14.167636999,(-12 -4 7 4 0 -1 -6 -10)
1969-12-31 18:00:14.169862047,(40 2 -9 -4 -3 -3 1 18)
1969-12-31 18:00:14.169862047,(-1 -1 7 4 1 2 2 -3)
1969-12-31 18:00:14.201012715,(-61 -22 -10 -7 -8 -8 -17 -24)
1969-12-31 18:00:14.201012715,(15 7 -4 -2 -1 1 3 0)
1969-12-31 18:00:14.203237762,(3 5 1 1 1 -2 -9 -4)
1969-12-31 18:00:14.203237762,(-4 -4 -1 -4 -2 -5 -1 -4)
1969-12-31 18:00:14.207687858,(36 15 4 1 2 2 8 28)
1969-12-31 18:00:14.207687858,(-4 -4 1 2 2 -12 -8 -3)
1969-12-31 18:00:14.217700572,(5 8 1 0 -1 25 21 2)
1969-12-31 18:00:14.217700572,(12 15 2 2 2 -15 -21 8)
1969-12-31 18:00:14.243288620,(-3 -1 0 2 2 4 5 -3)
1969-12-31 18:00:14.243288620,(-7 -7 -5 -4 0 -1 -3 8)
1969-12-31 18:00:14.244401144,(-44 -21 -12 -8 -8 -19 -19 -51)
1969-12-31 18:00:14.244401144,(36 17 6 5 7 -26 2 29)
1969-12-31 18:00:14.259976478,(6 -4 -6 -5 1 45 -10 -15)
1969-12-31 18:00:14.259976478,(31 -4 -1 -8 -10 -7 17 27)
1969-12-31 18:00:14.261089002,(15 0 7 4 3 4 6 29)
1969-12-31 18:00:14.261089002,(-63 -20 -5 -6 -4 32 -20 -83)
1969-12-31 18:00:14.284452003,(11 -1 8 1 -14 -68 -14 -12)
1969-12-31 18:00:14.284452003,(-6 -8 -1 -4 -6 9 -4 -17)
1969-12-31 18:00:14.286677050,(4 4 1 1 -1 -6 -11 -4)
1969-12-31 18:00:14.286677050,(-37 -40 -6 -2 -7 2 13 18)
1969-12-31 18:00:14.301139860,(38 20 10 8 7 18 18 29)
1969-12-31 18:00:14.301139860,(-28 -10 -7 -3 -5 -15 -13 -6)
1969-12-31 18:00:14.302252384,(-14 9 2 2 0 1 3 -8)
1969-12-31 18:00:14.302252384,(29 1 -3 2 4 6 7 63)
1969-12-31 18:00:14.325615385,(11 28 7 3 0 7 10 3)
1969-12-31 18:00:14.326727908,(-19 -11 0 3 3 4 1 -11)
1969-12-31 18:00:14.327840432,(-16 -43 -23 -26 -17 -8 -10 -9)
1969-12-31 18:00:14.327840432,(-16 5 2 14 13 7 23 12)
1969-12-31 18:00:14.360103624,(63 19 12 8 4 -18 -15 25)
1969-12-31 18:00:14.360103624,(-2 3 -10 -22 1 82 17 27)
1969-12-31 18:00:14.362328671,(2 19 5 6 1 -19 13 27)
1969-12-31 18:00:14.362328671,(-33 -21 -5 16 5 -38 -10 -25)
1969-12-31 18:00:14.367891291,(4 7 11 20 2 -53 -29 3)
1969-12-31 18:00:14.367891291,(4 29 13 8 -1 -37 7 -11)
1969-12-31 18:00:14.370116338,(5 -6 -4 -10 1 25 3 -17)
1969-12-31 18:00:14.370116338,(24 27 8 -5 -2 38 38 26)
1969-12-31 18:00:14.393479339,(-37 -40 -34 -32 -17 -9 -44 -39)
1969-12-31 18:00:14.393479339,(8 -5 -4 -2 -3 -16 -8 -5)
1969-12-31 18:00:14.394591863,(3 -7 -2 3 0 9 18 41)
1969-12-31 18:00:14.394591863,(45 30 8 0 6 21 5 5)
1969-12-31 18:00:14.417954863,(-13 4 4 0 4 23 16 -26)
1969-12-31 18:00:14.417954863,(28 1 3 4 -3 -33 -54 11)
1969-12-31 18:00:14.420179911,(-5 -6 -6 -2 -7 -14 14 3)
1969-12-31 18:00:14.420179911,(-18 -3 -3 -4 -4 -8 -12 -12)
1969-12-31 18:00:14.434642721,(-27 -9 -11 -11 -10 -1 20 -23)
1969-12-31 18:00:14.434642721,(-14 11 2 5 12 25 -2 -25)
1969-12-31 18:00:14.435755245,(29 27 23 22 14 -41 3 38)
1969-12-31 18:00:14.435755245,(-57 -53 -25 -25 -22 0 -31 -83)
1969-12-31 18:00:14.460230769,(20 -11 -8 -5 8 26 12 5)
1969-12-31 18:00:14.460230769,(-56 -17 -1 4 0 -15 18 -5)
1969-12-31 18:00:14.461343293,(35 17 4 7 5 20 -7 -5)
1969-12-31 18:00:14.461343293,(-41 -10 -4 -3 -2 -2 14 -45)
1969-12-31 18:00:14.511406866,(-52 -25 -5 -4 -10 -63 -36 -24)
1969-12-31 18:00:14.511406866,(37 35 2 -4 -3 20 29 37)
1969-12-31 18:00:14.512519390,(-13 -25 -10 -6 -2 -2 -20 15)
1969-12-31 18:00:14.512519390,(-1 2 3 3 -3 -7 -15 -42)
1969-12-31 18:00:14.513631914,(25 12 -3 -5 -2 19 32 36)
1969-12-31 18:00:14.513631914,(1 -19 -4 -2 -6 -23 -3 7)
1969-12-31 18:00:14.518082009,(-7 18 0 -2 -5 -1 -20 -30)
1969-12-31 18:00:14.518082009,(44 12 4 1 1 0 12 38)
1969-12-31 18:00:14.525869676,(-38 -3 -2 4 8 27 1 33)
1969-12-31 18:00:14.525869676,(-10 -10 -9 -7 -18 -10 25 -23)
1969-12-31 18:00:14.528094723,(-19 -13 -6 -9 -10 -44 23 25)
1969-12-31 18:00:14.528094723,(37 2 -1 -5 -5 -9 16 26)
1969-12-31 18:00:14.541445010,(28 51 12 4 4 31 -13 -12)
1969-12-31 18:00:14.541445010,(-10 -27 -4 3 4 -4 5 6)
1969-12-31 18:00:14.558132867,(-29 -44 -10 -6 -2 8 -29 -44)
1969-12-31 18:00:14.558132867,(-24 11 -2 -3 -5 -12 21 36)
1969-12-31 18:00:14.567033058,(1 -3 1 2 2 4 10 -10)
1969-12-31 18:00:14.567033058,(-1 -3 2 3 5 9 -15 -4)
1969-12-31 18:00:14.574820725,(30 21 -4 -7 -7 3 7 -4)
1969-12-31 18:00:14.574820725,(3 -15 1 3 3 -2 -17 11)
1969-12-31 18:00:14.592621106,(14 16 6 2 0 6 16 20)
1969-12-31 18:00:14.592621106,(-16 -13 -6 -4 1 3 -8 36)
1969-12-31 18:00:14.594846154,(-31 -7 4 7 5 9 3 -32)
1969-12-31 18:00:14.594846154,(23 13 -2 -3 -5 1 -16 -5)
1969-12-31 18:00:14.618209154,(-16 -10 0 0 2 4 11 -1)
1969-12-31 18:00:14.618209154,(39 9 1 0 -1 -4 10 50)
1969-12-31 18:00:14.620434202,(5 8 7 6 11 42 -18 -15)
1969-12-31 18:00:14.620434202,(23 11 0 -2 -4 -14 12 18)
1969-12-31 18:00:14.669385251,(-51 -37 -13 -8 -14 -24 -27 -45)
1969-12-31 18:00:14.669385251,(6 14 6 7 8 3 -5 -38)
1969-12-31 18:00:14.671610299,(18 13 1 -3 1 6 -21 12)
1969-12-31 18:00:14.671610299,(-32 -16 -7 -6 -6 -4 -29 -72)
1969-12-31 18:00:14.672722823,(22 -1 0 1 4 19 8 27)
1969-12-31 18:00:14.672722823,(-11 -6 -4 -2 -3 -8 -12 -38)
1969-12-31 18:00:14.677172918,(-6 -8 -3 -1 -4 -2 7 29)
1969-12-31 18:00:14.677172918,(28 37 9 4 3 0 -6 28)
1969-12-31 18:00:14.684960585,(-8 -22 -7 -11 -8 -8 -4 11)
1969-12-31 18:00:14.684960585,(-29 -37 -12 -8 -3 5 -15 -12)
1969-12-31 18:00:14.687185633,(2 7 5 4 1 0 26 5)
1969-12-31 18:00:14.687185633,(47 17 10 9 12 19 25 90)
1969-12-31 18:00:14.700535919,(2 9 1 4 8 63 26 27)
1969-12-31 18:00:14.700535919,(18 4 -3 -5 -5 -53 -27 -14)
1969-12-31 18:00:14.708323586,(-3 3 3 2 0 -15 14 7)
1969-12-31 18:00:14.708323586,(4 3 3 3 2 -7 -4 -12)
1969-12-31 18:00:14.726123967,(17 -1 5 7 7 -8 25 30)
1969-12-31 18:00:14.726123967,(2 24 6 4 3 39 -33 -29)
1969-12-31 18:00:14.728349015,(-13 -22 -11 -5 -8 -14 28 4)
1969-12-31 18:00:14.728349015,(33 13 2 -2 -4 -21 0 91)
1969-12-31 18:00:14.751712015,(-19 -14 -4 -1 2 19 -12 -34)
1969-12-31 18:00:14.751712015,(4 -2 3 4 3 14 4 37)
1969-12-31 18:00:14.753937063,(-12 12 0 -2 -7 -33 -11 -26)
1969-12-31 18:00:14.753937063,(-18 -16 -5 -6 -8 13 -9 -22)
1969-12-31 18:00:14.767287349,(45 23 3 -1 -7 -46 -12 41)
1969-12-31 18:00:14.767287349,(-62 -45 -24 -20 -17 -5 -18 -76)
1969-12-31 18:00:14.775075016,(14 5 9 10 14 41 12 72)
1969-12-31 18:00:14.775075016,(70 38 9 12 32 67 46 3)
1969-12-31 18:00:14.820688492,(-72 -54 -14 -15 -30 -117 -54 -70)
1969-12-31 18:00:14.820688492,(24 25 6 -1 -11 29 19 21)
1969-12-31 18:00:14.821801016,(26 15 6 2 -8 -8 14 47)
1969-12-31 18:00:14.821801016,(-36 -19 -8 -6 -4 7 -13 -66)
1969-12-31 18:00:14.822913541,(-27 4 -13 -14 -19 12 8 -33)
1969-12-31 18:00:14.822913541,(29 4 5 11 24 -33 -3 -2)
1969-12-31 18:00:14.827363636,(-65 -15 -7 -4 3 19 -19 -86)
1969-12-31 18:00:14.827363636,(-8 -6 0 4 28 9 -18 -10)
1969-12-31 18:00:14.834038779,(98 53 22 9 -30 12 58 91)
1969-12-31 18:00:14.834038779,(-74 -47 -17 -7 -2 -34 -46 -83)
1969-12-31 18:00:14.841826446,(1 10 1 -4 6 27 -53 -49)
1969-12-31 18:00:14.841826446,(18 0 -3 -12 -32 -47 16 7)
1969-12-31 18:00:14.860739352,(-10 -24 -14 -15 -1 -47 -47 -21)
1969-12-31 18:00:14.860739352,(13 16 5 -5 -9 41 37 16)
1969-12-31 18:00:14.861851875,(49 27 8 7 16 19 15 28)
1969-12-31 18:00:14.861851875,(-22 0 3 6 -1 -6 13 17)
1969-12-31 18:00:14.885214876,(-54 -48 -13 4 22 10 -57 -99)
1969-12-31 18:00:14.885214876,(-35 -21 -9 -4 -10 -20 2 6)
1969-12-31 18:00:14.886327400,(-15 -12 -7 -9 -8 -18 -11 -45)
1969-12-31 18:00:14.886327400,(-10 13 3 -4 -12 -4 -2 0)
1969-12-31 18:00:14.900790210,(31 35 12 12 15 32 28 22)
1969-12-31 18:00:14.900790210,(20 7 7 13 34 21 4 70)
1969-12-31 18:00:14.909690401,(20 -10 -1 10 9 9 24 79)
1969-12-31 18:00:14.910802924,(-32 -22 -12 -19 -48 -21 -34 -78)
1969-12-31 18:00:14.926378258,(7 14 6 4 37 9 12 11)
1969-12-31 18:00:14.926378258,(30 16 5 -2 -30 -23 7 11)
1969-12-31 18:00:14.928603306,(9 0 -2 -12 -19 -6 2 -6)
1969-12-31 18:00:14.928603306,(0 12 10 19 24 4 -9 9)
1969-12-31 18:00:14.976441831,(1 -6 4 0 0 5 -1 4)
1969-12-31 18:00:14.976441831,(12 -32 -28 -10 48 50 39 80)
1969-12-31 18:00:14.986454545,(2 4 -2 3 12 -39 1 -26)
1969-12-31 18:00:14.986454545,(5 -10 -14 -17 -62 -19 -3 9)
1969-12-31 18:00:14.986454545,(27 58 68 34 6 -1 0 18)
1969-12-31 18:00:14.986454545,(-28 -25 6 11 -10 -5 22 22)
1969-12-31 18:00:14.988679593,(-6 -48 -51 -19 24 27 4 -6)
1969-12-31 18:00:14.988679593,(1 8 4 -1 38 16 1 7)
1969-12-31 18:00:14.993129688,(-22 18 22 -4 -43 -38 -30 -54)
1969-12-31 18:00:14.993129688,(26 9 -3 -9 -36 0 -3 -14)
1969-12-31 18:00:14.995354736,(-30 21 25 13 28 13 -7 -6)
1969-12-31 18:00:14.995354736,(-10 -40 -26 8 12 -21 -2 -4)
1969-12-31 18:00:15.018717737,(4 -1 -26 -32 -72 -45 -22 -3)
1969-12-31 18:00:15.018717737,(-14 -60 -24 -10 2 9 0 -35)
1969-12-31 18:00:15.020942784,(2 12 -47 -21 -39 -54 -17 -8)
1969-12-31 18:00:15.020942784,(6 73 80 25 60 64 16 46)
1969-12-31 18:00:15.035405594,(-7 -59 -47 -10 31 24 19 15)
1969-12-31 18:00:15.035405594,(17 4 -3 -13 -64 -56 -18 -13)
1969-12-31 18:00:15.044305785,(-10 62 84 36 11 21 18 15)
1969-12-31 18:00:15.044305785,(0 -33 -38 -6 13 6 -9 -26)
1969-12-31 18:00:15.059881119,(-23 -51 -26 -14 -17 -14 -31 -22)
1969-12-31 18:00:15.059881119,(7 -70 -95 -16 48 27 -5 -29)
1969-12-31 18:00:15.062106167,(-3 65 90 68 43 -12 9 33)
1969-12-31 18:00:15.062106167,(-12 55 14 -40 -106 -34 1 -15)
1969-12-31 18:00:15.085469167,(-3 -47 -30 0 40 48 28 37)
1969-12-31 18:00:15.085469167,(44 -19 -63 -4 37 9 7 -5)
1969-12-31 18:00:15.086581691,(-17 -43 8 3 -1 13 25 64)
1969-12-31 18:00:15.086581691,(4 -6 -11 -17 -24 -36 7 28)
1969-12-31 18:00:15.128857597,(-15 -28 -44 -10 27 20 -18 -22)
1969-12-31 18:00:15.128857597,(2 76 94 40 26 36 26 26)
1969-12-31 18:00:15.129970121,(34 -75 -96 -46 -62 -55 -36 -38)
1969-12-31 18:00:15.129970121,(0 8 -1 2 30 5 -7 -13)
1969-12-31 18:00:15.131082645,(-3 106 91 40 -28 -15 19 -7)
1969-12-31 18:00:15.131082645,(-4 -56 -55 -3 22 7 6 16)
1969-12-31 18:00:15.135532740,(-10 86 41 -6 -5 12 -11 -39)
1969-12-31 18:00:15.135532740,(-37 -127 -87 -13 50 22 10 -27)
1969-12-31 18:00:15.152220598,(42 29 -60 -36 -36 14 8 43)
1969-12-31 18:00:15.152220598,(-16 127 127 64 10 -1 23 -8)
1969-12-31 18:00:15.153333121,(5 -128 -120 -25 -43 -1 11 -1)
1969-12-31 18:00:15.153333121,(-24 -61 -97 -38 -8 -32 -66 -39)
1969-12-31 18:00:15.176696122,(-10 75 98 80 83 26 30 30)
1969-12-31 18:00:15.177808646,(28 -92 -117 -76 -48 11 7 18)
1969-12-31 18:00:15.178921170,(48 77 85 0 -7 -28 9 80)
1969-12-31 18:00:15.178921170,(-50 -121 -101 -20 -22 -13 -12 -58)
1969-12-31 18:00:15.193383979,(5 84 86 42 31 26 11 -3)
1969-12-31 18:00:15.193383979,(-20 73 82 -18 -86 -39 -28 -37)
1969-12-31 18:00:15.195609027,(8 -63 -13 0 29 32 18 14)
1969-12-31 18:00:15.195609027,(36 -39 -25 4 46 33 -12 55)
1969-12-31 18:00:15.218972028,(-6 -13 -37 -27 -63 -55 15 -21)
1969-12-31 18:00:15.218972028,(-14 -65 -79 -7 8 -25 -89 -73)
1969-12-31 18:00:15.220084552,(-56 93 37 3 -9 6 8 -55)
1969-12-31 18:00:15.220084552,(8 127 127 74 56 19 21 37)
1969-12-31 18:00:15.234547362,(11 -70 -51 -13 22 11 -3 22)
1969-12-31 18:00:15.234547362,(13 -17 -3 -26 -18 -33 15 -4)
1969-12-31 18:00:15.244560076,(-1 -128 -94 -6 37 28 6 42)
1969-12-31 18:00:15.244560076,(-10 -35 -25 -26 -69 -49 -34 -26)
1969-12-31 18:00:15.286835982,(3 -94 -57 -26 -63 -11 3 -17)
1969-12-31 18:00:15.286835982,(-39 105 98 23 26 8 0 14)
1969-12-31 18:00:15.287948506,(1 39 55 16 -23 -7 -2 -5)
1969-12-31 18:00:15.287948506,(16 -19 -1 12 33 28 61 65)
1969-12-31 18:00:15.294623649,(24 -7 -42 -30 -7 -10 -40 -34)
1969-12-31 18:00:15.294623649,(-10 -48 -20 15 24 4 -26 -32)
1969-12-31 18:00:15.295736173,(-3 -25 -89 -27 21 31 16 -16)
1969-12-31 18:00:15.295736173,(-17 127 127 45 -14 -30 -26 -29)
1969-12-31 18:00:15.301298792,(15 -43 -35 -10 37 38 18 -5)
1969-12-31 18:00:15.301298792,(4 -30 -21 6 11 -26 -8 24)
1969-12-31 18:00:15.311311507,(-5 2 30 27 55 25 -8 -39)
1969-12-31 18:00:15.311311507,(-18 -81 -37 -6 -66 -32 -4 -10)
1969-12-31 18:00:15.327999364,(-10 -88 -65 -47 -49 32 9 22)
1969-12-31 18:00:15.327999364,(19 115 47 -3 7 0 26 -11)
1969-12-31 18:00:15.329111888,(-4 7 32 16 -19 -25 -22 -39)
1969-12-31 18:00:15.329111888,(18 -108 -91 -27 50 12 22 54)
1969-12-31 18:00:15.352474889,(-5 114 71 39 31 0 -11 -54)
1969-12-31 18:00:15.352474889,(7 35 46 37 -5 35 37 38)
1969-12-31 18:00:15.354699936,(-35 -41 -46 -35 -21 -18 -3 -17)
1969-12-31 18:00:15.354699936,(31 -49 -23 23 66 56 21 22)
1969-12-31 18:00:15.368050223,(4 46 28 -3 -36 -27 -21 26)
1969-12-31 18:00:15.368050223,(-6 -22 -28 -29 -39 -33 -2 -5)
1969-12-31 18:00:15.385850604,(4 28 -2 -13 -14 -12 -22 -4)
1969-12-31 18:00:15.385850604,(8 31 18 30 61 35 21 2)
1969-12-31 18:00:15.393638271,(-19 17 46 29 38 28 25 31)
1969-12-31 18:00:15.393638271,(1 -22 -16 12 26 -7 0 -12)
1969-12-31 18:00:15.401425938,(4 -1 4 -32 -103 -22 0 29)
1969-12-31 18:00:15.401425938,(-1 -27 -34 -36 -45 -23 -36 -67)
1969-12-31 18:00:15.445926891,(-12 -62 -33 -4 38 19 24 -10)
1969-12-31 18:00:15.447039415,(-18 -20 -26 16 48 7 -18 -31)
1969-12-31 18:00:15.448151939,(-18 56 37 17 -7 -27 -38 -52)
1969-12-31 18:00:15.448151939,(-1 11 14 -1 -27 5 12 -35)
