time,.data
1969/12/31/18:00:07.230,(-2 2 6 3 -1 -1 -1 -2)
1969/12/31/18:00:07.230,(-2 0 2 3 0 -1 -1 -1)
1969/12/31/18:00:07.243,(2 1 -2 1 0 1 0 -1)
1969/12/31/18:00:07.243,(-3 -6 -2 -2 -2 -3 -4 -2)
1969/12/31/18:00:07.252,(-5 -5 -6 -3 1 2 0 -1)
1969/12/31/18:00:07.252,(8 8 -3 -6 -2 -2 -3 1)
1969/12/31/18:00:07.258,(-2 -2 0 -7 -4 -2 -1 -1)
1969/12/31/18:00:07.258,(2 2 7 15 7 3 2 3)
1969/12/31/18:00:07.283,(-2 -3 -4 2 -1 -2 -1 -1)
1969/12/31/18:00:07.283,(-7 -8 -2 -2 -3 0 -2 -5)
1969/12/31/18:00:07.284,(-2 -5 -9 -8 -3 0 0 -1)
1969/12/31/18:00:07.284,(-2 -1 -3 -11 -3 -2 -1 -3)
1969/12/31/18:00:07.290,(7 7 12 8 2 1 1 1)
1969/12/31/18:00:07.290,(-6 -4 -5 -1 -1 -2 -1 -1)
1969/12/31/18:00:07.303,(-2 -3 -9 -7 -2 -2 -1 -2)
1969/12/31/18:00:07.303,(1 1 3 -3 -4 -2 -2 -1)
1969/12/31/18:00:07.319,(-6 -2 -7 -6 -5 -4 -4 -6)
1969/12/31/18:00:07.319,(4 5 5 13 9 3 3 2)
1969/12/31/18:00:07.320,(0 0 14 11 -2 -2 1 0)
1969/12/31/18:00:07.320,(1 2 -4 0 14 5 3 5)
1969/12/31/18:00:07.327,(-7 -12 -18 -16 -11 -6 -2 -3)
1969/12/31/18:00:07.327,(0 0 7 7 3 2 1 1)
1969/12/31/18:00:07.342,(-3 -2 -15 -2 0 -6 -3 -3)
1969/12/31/18:00:07.342,(3 10 27 18 2 6 5 4)
1969/12/31/18:00:07.350,(0 -7 -10 -21 -9 0 0 0)
1969/12/31/18:00:07.350,(-5 -1 -13 -16 -4 -3 -5 -7)
1969/12/31/18:00:07.363,(4 7 31 45 6 4 1 3)
1969/12/31/18:00:07.363,(-4 -9 -12 -10 -1 0 -1 -3)
1969/12/31/18:00:07.372,(0 -4 -5 0 3 0 -1 0)
1969/12/31/18:00:07.372,(-3 -7 -12 -16 -7 -3 -2 -2)
1969/12/31/18:00:07.378,(-3 -3 -11 -23 -4 -1 1 2)
1969/12/31/18:00:07.378,(-2 -1 -6 1 -6 -7 -5 -5)
1969/12/31/18:00:07.387,(1 1 5 4 4 4 1 0)
1969/12/31/18:00:07.387,(0 2 3 1 -3 -8 -4 -2)
1969/12/31/18:00:07.401,(0 2 -2 -6 -4 0 -2 -1)
1969/12/31/18:00:07.401,(-4 -5 -1 -1 1 -1 -3 -2)
1969/12/31/18:00:07.409,(-1 -7 -11 -10 -3 -1 1 2)
1969/12/31/18:00:07.409,(7 9 9 4 -1 -2 -2 3)
1969/12/31/18:00:07.423,(-11 -11 2 8 3 1 -4 -7)
1969/12/31/18:00:07.423,(-4 0 -9 -8 -4 -3 -3 -4)
1969/12/31/18:00:07.439,(3 11 3 7 2 0 -1 1)
1969/12/31/18:00:07.439,(4 5 -4 -2 -4 1 2 2)
1969/12/31/18:00:07.439,(0 2 -5 -10 -2 -1 -2 0)
1969/12/31/18:00:07.439,(2 2 -2 -3 -2 -2 -1 -2)
1969/12/31/18:00:07.447,(-1 0 3 8 3 -1 -1 -2)
1969/12/31/18:00:07.447,(-3 -6 0 4 0 1 0 1)
1969/12/31/18:00:07.461,(0 -4 -4 -2 1 1 0 1)
1969/12/31/18:00:07.461,(-4 -5 -1 -1 -7 -1 -3 -4)
1969/12/31/18:00:07.470,(-1 -2 5 3 -2 -2 -3 -1)
1969/12/31/18:00:07.470,(-3 -3 -1 1 0 -2 -1 -3)
1969/12/31/18:00:07.492,(-2 -3 -3 -4 -1 -2 -1 0)
1969/12/31/18:00:07.492,(1 -2 -3 -1 -3 -2 -1 0)
1969/12/31/18:00:07.494,(0 2 4 -1 -1 -1 0 0)
1969/12/31/18:00:07.494,(-5 -3 -4 -1 0 2 0 -3)
1969/12/31/18:00:07.498,(-4 -8 5 8 7 3 4 3)
1969/12/31/18:00:07.498,(-2 -3 -3 -2 -1 -2 -3 -1)
1969/12/31/18:00:07.515,(-6 -16 -10 -5 -4 -3 -3 -2)
1969/12/31/18:00:07.515,(-1 20 18 6 0 0 -2 -5)
1969/12/31/18:00:07.521,(0 0 -4 -7 -5 -4 -2 -3)
1969/12/31/18:00:07.521,(0 0 -4 -2 0 -2 -1 -3)
1969/12/31/18:00:07.529,(1 -22 -12 -5 2 2 1 4)
1969/12/31/18:00:07.529,(-5 -30 -26 -13 -5 -6 -8 -3)
1969/12/31/18:00:07.544,(1 32 26 5 5 0 0 -7)
1969/12/31/18:00:07.544,(14 7 1 -4 -1 -1 -2 6)
1969/12/31/18:00:07.551,(-2 11 4 3 2 -1 -2 -6)
1969/12/31/18:00:07.551,(-28 -40 -23 -12 -8 -3 6 10)
1969/12/31/18:00:07.558,(0 -3 -5 0 1 -4 -12 -10)
1969/12/31/18:00:07.558,(-2 6 11 4 0 2 3 -12)
1969/12/31/18:00:07.575,(-13 -7 -5 -4 -5 -3 7 15)
1969/12/31/18:00:07.575,(25 24 17 9 5 1 -10 -13)
1969/12/31/18:00:07.581,(-11 -10 -11 -7 -6 -1 5 1)
1969/12/31/18:00:07.581,(-18 -1 2 1 1 -1 -6 -13)
1969/12/31/18:00:07.590,(17 10 3 3 -1 -3 -6 -3)
1969/12/31/18:00:07.590,(6 9 9 3 1 1 4 2)
1969/12/31/18:00:07.604,(-9 -11 -12 -6 -5 -3 -5 -6)
1969/12/31/18:00:07.604,(2 -14 -13 -4 -5 -2 3 2)
1969/12/31/18:00:07.610,(-4 8 4 1 0 -1 1 2)
1969/12/31/18:00:07.610,(7 7 5 2 1 0 5 15)
1969/12/31/18:00:07.618,(8 1 0 0 2 2 2 10)
1969/12/31/18:00:07.618,(-2 -1 2 2 2 -5 -15 -23)
1969/12/31/18:00:07.633,(-3 -1 2 -2 -1 0 9 29)
1969/12/31/18:00:07.633,(5 9 9 5 4 -1 -6 0)
1969/12/31/18:00:07.640,(4 11 -1 -6 -4 3 9 -21)
1969/12/31/18:00:07.640,(8 -1 1 1 1 -4 -12 14)
1969/12/31/18:00:07.656,(-39 -26 -8 -4 -2 1 0 -22)
1969/12/31/18:00:07.656,(-8 -17 -5 -3 -3 -3 -3 -9)
1969/12/31/18:00:07.664,(-16 -7 -11 -9 -10 -5 -7 -6)
1969/12/31/18:00:07.664,(-2 13 10 4 4 3 12 9)
1969/12/31/18:00:07.670,(32 32 6 3 7 29 -12 2)
1969/12/31/18:00:07.670,(-3 -1 0 -2 -7 -28 16 2)
1969/12/31/18:00:07.678,(-3 2 6 7 9 5 5 -12)
1969/12/31/18:00:07.678,(-8 -16 -5 -3 -4 -20 -10 3)
1969/12/31/18:00:07.687,(-11 11 17 13 7 -7 -30 -49)
1969/12/31/18:00:07.687,(44 20 7 1 5 20 15 31)
1969/12/31/18:00:07.701,(-9 -14 -8 -6 -7 -9 -21 -5)
1969/12/31/18:00:07.701,(-6 -9 -5 0 2 10 22 -4)
1969/12/31/18:00:07.717,(32 12 3 0 1 -1 35 62)
1969/12/31/18:00:07.717,(-44 -15 -8 -4 -6 -9 -40 -21)
1969/12/31/18:00:07.724,(22 14 4 1 1 -11 4 15)
1969/12/31/18:00:07.724,(1 0 -8 -8 -7 15 -7 -30)
1969/12/31/18:00:07.731,(-38 -39 -15 -8 -4 -15 -3 0)
1969/12/31/18:00:07.731,(14 6 -3 -4 -6 11 30 25)
1969/12/31/18:00:07.747,(5 -25 -11 -6 -1 12 3 -6)
1969/12/31/18:00:07.747,(-13 -2 -4 3 2 -32 -56 -47)
1969/12/31/18:00:07.749,(-18 1 -2 -7 -6 5 21 3)
1969/12/31/18:00:07.749,(-15 -12 6 1 -4 -10 -17 -31)
1969/12/31/18:00:07.777,(-13 -4 6 4 2 -1 0 4)
1969/12/31/18:00:07.777,(3 -1 -5 -2 0 8 27 16)
1969/12/31/18:00:07.778,(10 0 7 6 2 -5 -35 -30)
1969/12/31/18:00:07.778,(4 -8 -9 -3 1 3 7 36)
1969/12/31/18:00:07.784,(29 18 5 1 -3 -7 17 14)
1969/12/31/18:00:07.784,(-22 -17 -6 -2 0 10 13 -1)
1969/12/31/18:00:07.791,(13 0 -8 -7 -5 2 -5 25)
1969/12/31/18:00:07.791,(-22 -20 -8 -4 0 8 23 5)
1969/12/31/18:00:07.814,(66 46 16 9 5 2 5 27)
1969/12/31/18:00:07.814,(-94 -11 -4 -2 -3 1 0 -53)
1969/12/31/18:00:07.816,(6 -19 -6 -5 -6 -15 -36 -77)
1969/12/31/18:00:07.816,(3 13 -2 -6 -7 3 9 2)
1969/12/31/18:00:07.821,(-32 -25 -8 -1 2 -6 -11 -16)
1969/12/31/18:00:07.821,(16 17 9 3 2 2 1 26)
1969/12/31/18:00:07.830,(1 19 3 0 -2 1 25 24)
1969/12/31/18:00:07.830,(7 -16 -8 -4 -2 -6 -22 -12)
1969/12/31/18:00:07.852,(-15 8 6 4 2 10 2 -15)
1969/12/31/18:00:07.852,(38 7 -2 -4 -6 -12 2 56)
1969/12/31/18:00:07.854,(79 7 -8 -9 -1 20 23 69)
1969/12/31/18:00:07.854,(29 -4 -8 -5 -7 -18 12 73)
1969/12/31/18:00:07.866,(-35 -4 3 -1 -4 -6 -10 -9)
1969/12/31/18:00:07.866,(-17 -20 -13 -6 0 9 -7 1)
1969/12/31/18:00:07.875,(20 27 -1 -6 -8 -11 7 3)
1969/12/31/18:00:07.875,(41 -3 -2 4 6 5 -1 19)
1969/12/31/18:00:07.889,(-38 -30 -10 -8 -4 6 3 -2)
1969/12/31/18:00:07.889,(-15 -14 0 2 1 -2 -3 -15)
1969/12/31/18:00:07.896,(33 14 2 4 1 2 22 37)
1969/12/31/18:00:07.896,(-5 0 4 2 4 9 -4 -29)
1969/12/31/18:00:07.919,(-10 16 4 1 0 -6 -10 -12)
1969/12/31/18:00:07.919,(45 -5 -7 -12 -11 -4 17 20)
1969/12/31/18:00:07.921,(-57 -19 5 7 3 -8 -23 -43)
1969/12/31/18:00:07.921,(-27 -15 -11 -6 -1 7 2 -13)
1969/12/31/18:00:07.934,(33 16 6 3 5 0 7 36)
1969/12/31/18:00:07.934,(20 21 18 11 5 -13 -25 -4)
1969/12/31/18:00:07.936,(41 18 -6 -7 -4 -1 -20 -25)
1969/12/31/18:00:07.936,(-30 9 8 4 4 23 26 -50)
1969/12/31/18:00:07.949,(-47 -40 -21 -12 -9 27 41 -1)
1969/12/31/18:00:07.949,(-6 18 9 4 3 -19 -47 27)
1969/12/31/18:00:07.956,(28 -23 2 2 2 -10 -1 -6)
1969/12/31/18:00:07.956,(24 32 9 8 8 -6 -34 -2)
1969/12/31/18:00:07.972,(-3 -21 -20 -17 -18 -20 -20 -22)
1969/12/31/18:00:07.972,(24 53 15 2 1 10 19 22)
1969/12/31/18:00:07.973,(-52 -52 -17 -5 -3 11 -19 -108)
1969/12/31/18:00:07.973,(-7 28 19 9 2 -12 -15 -26)
1969/12/31/18:00:07.994,(16 -27 -4 8 9 7 7 51)
1969/12/31/18:00:07.994,(-33 -6 -11 -8 -8 -5 -11 -60)
1969/12/31/18:00:07.996,(-38 5 0 -2 0 -8 -1 -2)
1969/12/31/18:00:07.996,(23 9 1 1 0 9 21 21)
1969/12/31/18:00:08.008,(10 -15 -9 -7 -7 -6 -17 14)
1969/12/31/18:00:08.008,(-35 -19 6 8 8 11 14 -37)
1969/12/31/18:00:08.017,(41 26 -8 -15 -16 -10 -21 -21)
1969/12/31/18:00:08.017,(-50 -33 -14 -12 -13 -17 -27 -53)
1969/12/31/18:00:08.032,(-21 6 2 6 13 13 13 -11)
1969/12/31/18:00:08.032,(20 6 -3 -5 -2 8 30 23)
1969/12/31/18:00:08.034,(-60 -31 6 12 12 12 -9 -8)
1969/12/31/18:00:08.034,(39 24 -4 -6 -12 -36 8 55)
1969/12/31/18:00:08.054,(7 7 2 2 8 13 -41 -68)
1969/12/31/18:00:08.055,(110 8 -4 2 -4 -7 14 64)
1969/12/31/18:00:08.056,(-40 -8 4 3 5 0 10 43)
1969/12/31/18:00:08.056,(-7 12 -5 -6 -6 -15 -32 -45)
1969/12/31/18:00:08.068,(-33 -19 -1 2 0 -4 2 -11)
1969/12/31/18:00:08.068,(-24 -6 -1 -3 -1 2 5 -26)
1969/12/31/18:00:08.077,(59 42 17 10 7 5 20 65)
1969/12/31/18:00:08.077,(-71 -39 -12 -3 -1 0 -35 -81)
1969/12/31/18:00:08.092,(97 51 8 -4 -9 -16 -9 22)
1969/12/31/18:00:08.092,(-87 -45 -14 -2 -1 0 -16 -80)
1969/12/31/18:00:08.093,(-3 5 -2 0 0 -3 6 75)
1969/12/31/18:00:08.093,(-10 -23 1 1 6 20 26 -16)
1969/12/31/18:00:08.122,(1 4 -3 -5 -4 5 17 20)
1969/12/31/18:00:08.122,(15 25 12 5 -2 -24 -39 11)
1969/12/31/18:00:08.129,(2 -11 -8 -3 -2 -3 2 7)
1969/12/31/18:00:08.129,(-2 -5 10 6 4 5 -3 44)
1969/12/31/18:00:08.129,(-23 -25 -13 -8 -6 -19 -3 -13)
1969/12/31/18:00:08.129,(16 -6 -5 -1 0 15 51 46)
1969/12/31/18:00:08.143,(14 8 2 3 -1 -22 -19 -5)
1969/12/31/18:00:08.143,(-38 -7 6 7 11 31 4 -2)
1969/12/31/18:00:08.152,(-10 23 6 -2 -1 11 4 -33)
1969/12/31/18:00:08.152,(10 33 8 3 6 -15 1 35)
1969/12/31/18:00:08.153,(5 -41 -4 5 0 -8 13 -34)
1969/12/31/18:00:08.153,(42 -5 -10 -8 3 42 16 35)
1969/12/31/18:00:08.173,(11 1 5 5 -23 -44 -2 35)
1969/12/31/18:00:08.173,(-37 3 -5 -8 -4 -16 -36 -70)
1969/12/31/18:00:08.182,(-48 15 17 19 16 9 3 -51)
1969/12/31/18:00:08.182,(-17 6 8 5 7 -9 -12 -5)
1969/12/31/18:00:08.188,(-11 -34 -14 -9 -4 41 13 -15)
1969/12/31/18:00:08.188,(2 7 -6 -10 -7 14 7 9)
1969/12/31/18:00:08.197,(46 1 -1 -8 -9 5 26 71)
1969/12/31/18:00:08.197,(0 -25 -16 -9 -4 -18 4 2)
1969/12/31/18:00:08.213,(-29 9 12 21 30 -5 -6 1)
1969/12/31/18:00:08.213,(-16 -15 -7 -10 -36 -14 -3 -9)
1969/12/31/18:00:08.214,(26 3 5 27 46 6 -19 -36)
1969/12/31/18:00:08.214,(40 45 17 -4 -21 -1 16 -6)
1969/12/31/18:00:08.235,(7 -11 -25 -39 -13 12 -14 -27)
1969/12/31/18:00:08.235,(18 -24 -16 -22 -23 -1 -2 11)
1969/12/31/18:00:08.236,(-28 -10 -10 -5 3 9 2 -12)
1969/12/31/18:00:08.236,(-4 22 12 16 2 -26 -14 -8)
1969/12/31/18:00:08.248,(8 -26 -1 9 0 -16 -9 -23)
1969/12/31/18:00:08.248,(0 -5 -2 2 5 17 -11 -18)
1969/12/31/18:00:08.257,(-39 6 -1 -1 -1 -10 -6 -12)
1969/12/31/18:00:08.257,(-17 11 11 18 14 8 23 26)
1969/12/31/18:00:08.271,(18 23 2 -15 -15 -11 3 80)
1969/12/31/18:00:08.272,(35 -18 -7 3 6 2 9 -1)
1969/12/31/18:00:08.278,(6 -3 1 6 -3 2 15 37)
1969/12/31/18:00:08.278,(-25 -1 -5 -17 -11 7 -17 -49)
1969/12/31/18:00:08.294,(-38 9 -2 1 9 -4 -16 -55)
1969/12/31/18:00:08.294,(-10 -23 -8 -13 -8 11 14 30)
1969/12/31/18:00:08.296,(-15 4 -1 -12 -28 -27 -10 -37)
1969/12/31/18:00:08.296,(1 -14 -9 27 49 9 5 11)
1969/12/31/18:00:08.308,(45 27 10 -9 -17 22 5 11)
1969/12/31/18:00:08.308,(14 30 11 4 17 14 10 -11)
1969/12/31/18:00:08.323,(-8 -21 -15 -21 -25 -5 -2 -13)
1969/12/31/18:00:08.324,(-5 -14 -4 -5 -13 -18 -9 -2)
1969/12/31/18:00:08.340,(-10 -22 -5 12 14 -18 0 9)
1969/12/31/18:00:08.340,(-30 -4 -3 11 20 3 -1 -43)
1969/12/31/18:00:08.341,(0 35 15 3 -6 11 14 35)
1969/12/31/18:00:08.341,(-17 -8 -4 -5 -13 -22 -5 -4)
1969/12/31/18:00:08.355,(-30 11 7 2 16 9 -1 -18)
1969/12/31/18:00:08.355,(-8 -32 0 -8 -6 9 2 7)
1969/12/31/18:00:08.357,(5 7 -8 -1 11 4 0 3)
1969/12/31/18:00:08.357,(28 17 2 -6 -10 0 5 4)
1969/12/31/18:00:08.368,(-6 -23 -8 2 -16 -22 -5 -11)
1969/12/31/18:00:08.368,(0 9 -6 2 0 -7 -11 16)
1969/12/31/18:00:08.377,(-4 40 20 -6 -14 -25 -10 -12)
1969/12/31/18:00:08.377,(-1 -22 0 -2 -1 13 12 35)
1969/12/31/18:00:08.392,(-17 9 6 7 26 42 2 -10)
1969/12/31/18:00:08.392,(60 -52 -37 -2 -9 -32 8 56)
1969/12/31/18:00:08.394,(36 37 -3 -8 12 12 -11 -6)
1969/12/31/18:00:08.394,(24 43 44 4 -9 17 25 45)
1969/12/31/18:00:08.414,(39 3 -22 -5 -6 -9 -5 -5)
1969/12/31/18:00:08.414,(-13 35 39 12 6 10 5 13)
1969/12/31/18:00:08.416,(28 -38 -31 -23 -34 -32 -2 33)
1969/12/31/18:00:08.416,(-23 -77 -48 -9 -4 -45 -6 -11)
1969/12/31/18:00:08.437,(20 25 -9 4 11 25 0 10)
1969/12/31/18:00:08.437,(-17 -29 -28 -20 1 35 -6 -50)
1969/12/31/18:00:08.438,(-18 -4 -3 0 -13 -11 2 -13)
1969/12/31/18:00:08.438,(22 110 78 14 8 12 -12 -7)
1969/12/31/18:00:08.452,(-25 21 52 30 11 -16 -16 -47)
1969/12/31/18:00:08.452,(-33 -27 -19 0 0 4 16 12)
1969/12/31/18:00:08.454,(-58 -101 -43 -12 0 -4 -15 -12)
1969/12/31/18:00:08.454,(20 -66 -110 -40 -37 -33 4 27)
1969/12/31/18:00:08.475,(-22 -9 14 24 25 -8 -7 -8)
1969/12/31/18:00:08.475,(28 110 67 6 14 45 8 25)
1969/12/31/18:00:08.477,(8 36 39 6 -8 31 30 15)
1969/12/31/18:00:08.477,(1 -34 -31 -15 -4 -6 -29 -53)
1969/12/31/18:00:08.488,(0 -72 -48 -29 -35 -37 6 -9)
1969/12/31/18:00:08.488,(-5 22 24 17 8 -23 -3 16)
1969/12/31/18:00:08.497,(-5 7 -22 0 17 8 -9 -38)
1969/12/31/18:00:08.497,(-19 -27 10 3 2 15 6 -11)
1969/12/31/18:00:08.512,(37 25 -34 -14 -8 3 25 69)
1969/12/31/18:00:08.512,(20 48 61 20 5 -8 -16 -11)
1969/12/31/18:00:08.514,(-17 30 45 7 -8 -24 -10 1)
1969/12/31/18:00:08.514,(-25 -23 -30 -8 17 20 2 -15)
1969/12/31/18:00:08.542,(-6 51 35 -4 -17 4 -4 9)
1969/12/31/18:00:08.542,(-4 -30 -37 -5 5 -10 -8 8)
1969/12/31/18:00:08.544,(-8 11 10 11 14 17 7 -1)
1969/12/31/18:00:08.544,(-7 -94 -38 -20 -35 -33 -10 80)
1969/12/31/18:00:08.548,(-30 -80 -54 -15 15 8 24 4)
1969/12/31/18:00:08.548,(-60 54 13 -13 -41 -51 -37 -78)
1969/12/31/18:00:08.557,(-5 -24 -3 -1 2 3 -18 -4)
1969/12/31/18:00:08.557,(-4 -66 -86 -23 6 20 12 -27)
1969/12/31/18:00:08.571,(17 105 103 34 16 22 -13 -1)
1969/12/31/18:00:08.571,(43 26 -5 5 23 13 30 44)
1969/12/31/18:00:08.580,(-73 -69 -10 -2 1 17 -8 -30)
1969/12/31/18:00:08.580,(17 39 -34 -15 -20 -19 -13 -8)
1969/12/31/18:00:08.593,(-24 15 29 9 0 -7 -28 -54)
1969/12/31/18:00:08.593,(-14 -123 -68 -24 -11 -8 13 6)
1969/12/31/18:00:08.602,(-44 45 10 3 18 9 -7 -30)
1969/12/31/18:00:08.602,(-18 -13 4 -1 0 -4 -2 -13)
1969/12/31/18:00:08.608,(8 -25 -8 -1 -25 -40 -21 -3)
1969/12/31/18:00:08.608,(98 78 60 30 8 11 11 53)
1969/12/31/18:00:08.617,(5 -70 -57 -1 71 17 -28 -48)
1969/12/31/18:00:08.617,(-46 73 80 6 -38 47 7 -14)
1969/12/31/18:00:08.639,(-23 -75 -54 -45 -38 -27 -7 0)
1969/12/31/18:00:08.639,(-21 -2 -28 -16 -16 3 -3 -37)
1969/12/31/18:00:08.641,(6 42 49 14 -6 -15 0 -6)
1969/12/31/18:00:08.641,(43 80 60 35 26 -31 3 5)
1969/12/31/18:00:08.654,(12 -48 -29 4 18 18 11 22)
1969/12/31/18:00:08.654,(-80 -89 -37 -4 4 10 19 18)
1969/12/31/18:00:08.656,(86 98 23 3 1 9 15 29)
1969/12/31/18:00:08.656,(-1 52 41 9 5 -9 -10 -31)
1969/12/31/18:00:08.668,(-1 -45 -44 -18 -15 13 37 23)
1969/12/31/18:00:08.668,(-66 -88 -41 -5 -9 -32 -11 -46)
1969/12/31/18:00:08.685,(-17 32 50 11 -1 -6 -26 -7)
1969/12/31/18:00:08.685,(24 99 68 16 13 15 -14 -12)
1969/12/31/18:00:08.692,(12 105 55 14 -2 -6 6 7)
1969/12/31/18:00:08.692,(-17 -54 -53 -11 3 -4 -26 -14)
1969/12/31/18:00:08.694,(-10 -16 8 5 -22 0 35 51)
1969/12/31/18:00:08.694,(23 -47 -33 -6 3 -22 -2 37)
1969/12/31/18:00:08.714,(-40 -29 -3 -1 27 24 0 -29)
1969/12/31/18:00:08.714,(16 -16 -44 -22 -27 -31 18 32)
1969/12/31/18:00:08.716,(-3 59 55 19 0 17 -7 -11)
1969/12/31/18:00:08.716,(-44 -81 -46 -8 -6 -10 -5 -39)
1969/12/31/18:00:08.737,(-13 -64 -88 -29 -18 -21 -29 -10)
1969/12/31/18:00:08.737,(46 103 108 47 23 15 7 2)
1969/12/31/18:00:08.739,(-5 -110 -80 -28 -22 -24 -17 -36)
1969/12/31/18:00:08.739,(11 -23 -21 -6 -2 11 7 12)
1969/12/31/18:00:08.752,(-43 16 53 17 5 -17 -30 -28)
1969/12/31/18:00:08.752,(22 -90 -81 -29 -6 2 -4 27)
1969/12/31/18:00:08.754,(19 11 -20 -11 3 16 -2 20)
1969/12/31/18:00:08.754,(66 59 103 57 33 21 14 30)
1969/12/31/18:00:08.774,(-32 -54 -48 -14 -20 -11 -7 -43)
1969/12/31/18:00:08.774,(38 36 11 7 35 36 17 31)
1969/12/31/18:00:08.776,(-42 -85 -38 -13 -3 -11 3 -10)
1969/12/31/18:00:08.776,(-21 -29 -49 -21 18 24 -13 -20)
1969/12/31/18:00:08.788,(19 13 18 5 -12 -7 26 48)
1969/12/31/18:00:08.788,(-7 -12 1 -6 -12 2 -12 -41)
1969/12/31/18:00:08.797,(35 64 44 32 23 8 8 7)
1969/12/31/18:00:08.797,(-41 -99 -53 -17 -14 -14 -4 -22)
1969/12/31/18:00:08.811,(27 58 3 -1 9 7 -2 9)
1969/12/31/18:00:08.811,(36 94 83 19 -2 -1 10 43)
1969/12/31/18:00:08.818,(-15 -119 -77 -32 -27 -14 9 -13)
1969/12/31/18:00:08.818,(17 45 0 -7 9 6 15 36)
1969/12/31/18:00:08.835,(26 33 46 33 27 11 4 16)
1969/12/31/18:00:08.835,(-25 -53 -107 -44 -17 11 14 32)
1969/12/31/18:00:08.836,(19 60 68 19 -10 -16 -5 -3)
1969/12/31/18:00:08.836,(-53 -72 -48 -13 -19 -9 -7 -28)
1969/12/31/18:00:08.857,(-39 -20 -8 -7 -9 -5 -8 -35)
1969/12/31/18:00:08.857,(-28 -1 27 9 7 2 -25 -35)
1969/12/31/18:00:08.859,(28 -11 -30 -19 -8 -9 2 23)
1969/12/31/18:00:08.859,(6 29 19 14 24 12 5 -3)
1969/12/31/18:00:08.871,(10 -50 -41 -22 -35 -14 -15 -3)
1969/12/31/18:00:08.871,(-9 17 10 7 3 -12 -2 -12)
1969/12/31/18:00:08.878,(-34 -128 -107 -41 -28 2 5 -12)
1969/12/31/18:00:08.878,(22 100 69 36 6 -11 -6 -9)
1969/12/31/18:00:08.894,(61 -74 -42 11 24 8 16 67)
1969/12/31/18:00:08.894,(-31 -63 -32 -6 -18 -4 10 -2)
1969/12/31/18:00:08.896,(-13 81 45 7 -9 11 -14 -32)
1969/12/31/18:00:08.896,(17 0 -32 -14 13 7 -5 1)
1969/12/31/18:00:08.917,(50 -30 -5 -1 15 7 20 38)
1969/12/31/18:00:08.917,(-50 -128 -80 4 3 0 -7 -20)
1969/12/31/18:00:08.919,(46 78 66 15 -1 4 -6 14)
1969/12/31/18:00:08.919,(23 5 47 -9 -20 9 25 15)
1969/12/31/18:00:08.931,(-52 3 2 -3 6 -15 -36 -76)
1969/12/31/18:00:08.931,(-8 -57 -10 0 2 -4 -7 -25)
1969/12/31/18:00:08.946,(8 -3 -24 2 -8 -14 -23 -21)
1969/12/31/18:00:08.946,(-10 -35 -8 3 17 22 11 29)
1969/12/31/18:00:08.962,(25 39 36 16 -12 -22 -1 15)
1969/12/31/18:00:08.962,(1 -14 -56 -37 -19 -10 -13 -18)
1969/12/31/18:00:08.964,(-8 84 34 16 28 5 -9 -4)
1969/12/31/18:00:08.964,(-27 -98 -50 -13 -16 -26 -4 1)
1969/12/31/18:00:08.977,(-48 86 51 2 -23 -4 -4 -23)
1969/12/31/18:00:08.977,(36 126 114 38 5 -17 -12 -22)
1969/12/31/18:00:08.979,(38 -107 -98 -11 -1 -8 16 60)
1969/12/31/18:00:08.979,(-34 89 43 -9 -14 -10 -2 -13)
1969/12/31/18:00:08.991,(35 -47 -43 -7 14 29 -11 19)
1969/12/31/18:00:08.991,(-5 -17 -16 -13 8 4 0 -13)
1969/12/31/18:00:08.998,(-54 -90 -52 -23 -38 -26 5 -6)
1969/12/31/18:00:08.998,(38 65 63 27 6 13 -5 -30)
1969/12/31/18:00:09.014,(-3 -70 -28 -14 -8 -16 6 48)
1969/12/31/18:00:09.014,(-8 61 73 28 22 19 -4 -21)
1969/12/31/18:00:09.016,(-28 -128 -95 -19 11 7 -3 -12)
1969/12/31/18:00:09.016,(69 -5 -24 -1 -11 -6 1 26)
1969/12/31/18:00:09.037,(12 65 19 -6 -7 -2 -17 -36)
1969/12/31/18:00:09.037,(4 84 41 14 9 7 1 17)
1969/12/31/18:00:09.039,(-7 16 45 8 1 -22 13 5)
1969/12/31/18:00:09.039,(55 -27 -31 1 11 33 8 43)
1969/12/31/18:00:09.051,(-33 -39 -21 -21 -21 -16 -7 -29)
1969/12/31/18:00:09.051,(20 -107 -86 -23 -1 -16 -9 17)
1969/12/31/18:00:09.060,(12 104 97 24 13 22 0 -15)
1969/12/31/18:00:09.060,(-47 -117 -74 3 8 -23 -20 -15)
1969/12/31/18:00:09.074,(39 88 67 10 6 30 12 5)
1969/12/31/18:00:09.074,(9 14 33 10 -11 -8 -3 3)
1969/12/31/18:00:09.076,(-10 -14 -11 -13 -10 -2 6 -16)
1969/12/31/18:00:09.076,(-45 -77 -24 -4 20 7 13 -21)
1969/12/31/18:00:09.097,(17 -119 -119 -30 -14 -14 15 44)
1969/12/31/18:00:09.097,(0 120 114 41 11 -12 -27 -41)
1969/12/31/18:00:09.099,(7 -6 -26 -7 1 40 23 23)
1969/12/31/18:00:09.099,(-37 -104 -58 -22 -23 -35 -20 -17)
1969/12/31/18:00:09.111,(35 62 4 12 21 18 20 21)
1969/12/31/18:00:09.111,(16 97 99 28 16 14 23 23)
1969/12/31/18:00:09.120,(22 -91 -74 -24 -27 -31 -12 5)
1969/12/31/18:00:09.120,(-19 19 -13 1 25 -5 -20 -30)
1969/12/31/18:00:09.135,(-7 63 99 40 16 41 24 14)
1969/12/31/18:00:09.135,(-10 -113 -85 -39 -47 -6 9 11)
1969/12/31/18:00:09.136,(-18 20 30 8 2 -12 -13 -7)
1969/12/31/18:00:09.136,(16 20 -9 8 -7 0 24 23)
1969/12/31/18:00:09.157,(-22 -48 -18 -6 10 2 -27 -24)
1969/12/31/18:00:09.157,(4 -18 -57 -21 -8 0 -15 0)
1969/12/31/18:00:09.158,(25 39 37 20 42 28 12 16)
1969/12/31/18:00:09.158,(-17 -58 -25 -23 -67 -20 1 -12)
1969/12/31/18:00:09.171,(36 115 47 15 8 -10 27 41)
1969/12/31/18:00:09.171,(47 -44 -5 15 1 -3 2 28)
1969/12/31/18:00:09.180,(-19 -74 -52 -17 -12 -29 -4 12)
1969/12/31/18:00:09.180,(-5 -11 -33 -9 16 17 -16 -9)
1969/12/31/18:00:09.194,(1 50 59 21 11 11 -2 -12)
1969/12/31/18:00:09.195,(-74 -128 -82 -32 -11 -16 -21 -47)
1969/12/31/18:00:09.196,(13 106 62 17 -8 12 15 19)
1969/12/31/18:00:09.196,(13 11 17 -4 4 -7 -10 -13)
1969/12/31/18:00:09.217,(-60 -128 -92 -23 16 4 -8 -30)
1969/12/31/18:00:09.217,(56 127 84 26 -3 -12 12 13)
1969/12/31/18:00:09.219,(-9 -68 -42 -4 24 -4 -15 -27)
1969/12/31/18:00:09.219,(-63 17 21 20 29 17 4 -3)
1969/12/31/18:00:09.231,(-67 -114 -84 -38 -9 50 -14 -47)
1969/12/31/18:00:09.231,(-12 19 -10 -22 -41 -24 -8 -31)
1969/12/31/18:00:09.240,(-20 5 -17 -16 -15 -5 -7 -14)
1969/12/31/18:00:09.240,(5 110 98 31 27 4 4 13)
1969/12/31/18:00:09.254,(22 -21 0 10 1 -54 -13 -3)
1969/12/31/18:00:09.254,(16 -3 -7 15 10 27 13 30)
1969/12/31/18:00:09.256,(-2 -75 -83 -39 -21 -16 8 27)
1969/12/31/18:00:09.256,(-4 42 74 15 -16 5 -29 -50)
1969/12/31/18:00:09.277,(-17 -57 -83 -26 -5 -15 -2 5)
1969/12/31/18:00:09.277,(22 39 72 38 22 21 24 55)
1969/12/31/18:00:09.279,(-14 -49 -48 -1 0 4 -4 -14)
1969/12/31/18:00:09.279,(-31 -39 -56 -21 31 -31 -6 4)
1969/12/31/18:00:09.291,(2 47 57 21 -54 21 13 22)
1969/12/31/18:00:09.291,(-35 -90 -52 -22 -11 -9 -14 -11)
1969/12/31/18:00:09.300,(-43 -26 -9 -28 -17 -3 -12 -28)
1969/12/31/18:00:09.300,(24 -13 -66 -20 7 6 16 11)
1969/12/31/18:00:09.315,(20 46 46 19 2 -5 6 12)
1969/12/31/18:00:09.315,(-40 -68 -71 -27 15 0 -2 -1)
1969/12/31/18:00:09.316,(23 66 91 35 10 16 13 16)
1969/12/31/18:00:09.316,(24 30 21 11 5 0 -7 9)
1969/12/31/18:00:09.337,(-1 -24 -26 -29 -46 -52 -10 -13)
1969/12/31/18:00:09.337,(36 69 44 7 0 17 14 25)
1969/12/31/18:00:09.339,(3 -20 -58 -22 -11 12 -5 -3)
1969/12/31/18:00:09.339,(38 107 107 44 -19 -19 -1 17)
1969/12/31/18:00:09.359,(59 -71 -72 11 35 11 1 12)
1969/12/31/18:00:09.359,(-24 61 78 40 35 28 10 -22)
1969/12/31/18:00:09.361,(-17 -49 -56 -21 -33 -28 -10 -32)
1969/12/31/18:00:09.361,(21 -57 -22 -8 -12 7 -7 2)
1969/12/31/18:00:09.374,(0 -40 -15 2 11 2 -8 -3)
1969/12/31/18:00:09.374,(4 -36 -24 -21 4 -5 10 -1)
1969/12/31/18:00:09.376,(34 72 76 34 10 9 1 28)
1969/12/31/18:00:09.376,(-12 -88 -68 -25 -2 3 23 36)
1969/12/31/18:00:09.397,(-26 82 92 21 10 7 -13 -36)
1969/12/31/18:00:09.397,(-13 -128 -116 -30 -3 -4 -5 12)
1969/12/31/18:00:09.398,(20 127 107 25 29 -8 -12 -6)
1969/12/31/18:00:09.398,(-27 -54 -66 -25 -20 41 0 -8)
1969/12/31/18:00:09.411,(40 12 0 -9 -16 -11 -1 23)
1969/12/31/18:00:09.411,(-25 14 19 11 -11 -13 -21 -18)
1969/12/31/18:00:09.420,(1 11 24 22 6 1 18 -2)
1969/12/31/18:00:09.420,(32 -80 -62 -14 35 10 4 11)
1969/12/31/18:00:09.435,(-12 27 -7 -5 -7 -35 -1 -27)
1969/12/31/18:00:09.435,(33 33 47 8 -25 46 21 30)
1969/12/31/18:00:09.436,(-29 -45 -21 -6 -3 11 -2 -16)
1969/12/31/18:00:09.437,(-86 -47 -39 -29 -15 -12 9 -19)
1969/12/31/18:00:09.456,(-34 3 45 17 8 -6 -15 -40)
1969/12/31/18:00:09.456,(20 -14 -46 -16 17 -13 -6 -6)
1969/12/31/18:00:09.457,(13 -57 -50 -13 6 14 14 37)
1969/12/31/18:00:09.457,(0 82 86 21 -24 -16 5 7)
1969/12/31/18:00:09.479,(-40 -128 -114 -42 4 14 -4 2)
1969/12/31/18:00:09.479,(-24 103 69 17 -4 -18 -14 -31)
1969/12/31/18:00:09.479,(9 -24 -20 16 13 19 11 9)
1969/12/31/18:00:09.479,(-4 -87 -88 -19 19 -7 -18 -13)
1969/12/31/18:00:09.494,(-21 -60 -11 11 -17 4 22 8)
1969/12/31/18:00:09.494,(1 61 59 2 -7 -11 -13 1)
1969/12/31/18:00:09.494,(40 -1 6 -7 -10 -25 6 46)
1969/12/31/18:00:09.495,(-5 4 31 22 7 -6 -21 -50)
1969/12/31/18:00:09.516,(-33 -23 -41 -40 -15 14 -29 -27)
1969/12/31/18:00:09.516,(-14 -92 -73 -10 16 34 38 19)
1969/12/31/18:00:09.517,(-17 -13 20 19 19 3 -4 -9)
1969/12/31/18:00:09.517,(27 89 55 18 -8 -3 -9 0)
1969/12/31/18:00:09.539,(5 -35 -41 -9 21 17 23 24)
1969/12/31/18:00:09.539,(19 62 55 15 3 -15 -23 -20)
1969/12/31/18:00:09.540,(18 73 60 7 -14 -3 7 11)
1969/12/31/18:00:09.540,(36 -39 -24 0 -10 -9 7 19)
1969/12/31/18:00:09.554,(3 29 25 15 13 13 6 6)
1969/12/31/18:00:09.554,(16 -117 -107 -30 -9 -20 8 31)
1969/12/31/18:00:09.554,(-13 -1 -59 -28 -3 2 1 -15)
1969/12/31/18:00:09.555,(-16 21 22 12 -7 13 5 -4)
1969/12/31/18:00:09.576,(38 75 55 11 -12 -44 -18 -1)
1969/12/31/18:00:09.576,(-21 -126 -128 -28 41 55 13 25)
1969/12/31/18:00:09.577,(33 66 84 42 -20 -8 6 -6)
1969/12/31/18:00:09.577,(1 -47 -32 -34 -44 -33 -18 -20)
1969/12/31/18:00:09.599,(-19 -59 -51 -9 9 25 1 16)
1969/12/31/18:00:09.599,(15 65 78 18 -7 -25 2 -15)
1969/12/31/18:00:09.600,(-22 -86 -43 5 29 21 -15 -17)
1969/12/31/18:00:09.600,(-33 -65 -81 -42 -19 1 6 13)
1969/12/31/18:00:09.614,(48 107 113 101 11 -22 14 7)
1969/12/31/18:00:09.614,(-23 -121 -102 -29 -16 -1 -8 -8)
1969/12/31/18:00:09.615,(7 -91 -100 -37 -15 -21 -22 -13)
1969/12/31/18:00:09.615,(29 114 113 18 -14 -3 -5 2)
1969/12/31/18:00:09.636,(4 67 24 -6 15 -6 4 6)
1969/12/31/18:00:09.636,(5 -10 -28 -5 -8 -18 -15 -13)
1969/12/31/18:00:09.637,(-16 -56 -37 -4 24 26 10 23)
1969/12/31/18:00:09.637,(26 56 71 42 -17 -28 -12 -9)
1969/12/31/18:00:09.659,(-45 -99 -83 -47 -20 17 -1 -40)
1969/12/31/18:00:09.659,(-11 4 26 15 9 -11 -5 -12)
1969/12/31/18:00:09.660,(-49 -128 -106 -38 14 16 -1 0)
1969/12/31/18:00:09.660,(-21 41 16 -8 -9 -19 -20 -25)
1969/12/31/18:00:09.674,(-22 24 27 -1 -12 -5 5 2)
1969/12/31/18:00:09.674,(-28 -113 -76 -14 15 25 5 -17)
1969/12/31/18:00:09.675,(83 103 82 33 -4 -7 -1 36)
1969/12/31/18:00:09.675,(3 -13 -21 11 50 26 15 36)
1969/12/31/18:00:09.696,(25 -46 -28 -22 -34 6 -11 -5)
1969/12/31/18:00:09.696,(-32 -72 -38 -31 -28 -38 -8 -15)
1969/12/31/18:00:09.697,(-15 -27 -28 -10 -1 -1 -20 -19)
1969/12/31/18:00:09.697,(-14 46 12 17 18 25 4 -16)
1969/12/31/18:00:09.719,(42 46 17 10 20 -4 24 42)
1969/12/31/18:00:09.719,(-41 -81 -45 -24 -50 -13 -9 0)
1969/12/31/18:00:09.720,(-17 23 33 29 63 53 33 -12)
1969/12/31/18:00:09.720,(-41 -128 -95 -53 -65 -30 -36 -26)
1969/12/31/18:00:09.734,(0 -47 -50 -27 8 8 16 17)
1969/12/31/18:00:09.734,(37 127 127 93 32 -3 -3 -6)
1969/12/31/18:00:09.735,(12 -43 -32 -17 -5 -34 -3 20)
1969/12/31/18:00:09.735,(19 -41 -18 10 -2 41 24 55)
1969/12/31/18:00:09.765,(-26 -110 -91 -37 -10 -4 -18 -28)
1969/12/31/18:00:09.765,(23 16 38 -3 -8 3 -8 -2)
1969/12/31/18:00:09.765,(8 72 29 5 5 11 1 -2)
1969/12/31/18:00:09.765,(42 46 61 47 12 14 30 32)
1969/12/31/18:00:09.779,(-52 -75 -71 -11 -9 -24 -24 -22)
1969/12/31/18:00:09.779,(12 3 0 9 22 18 12 3)
1969/12/31/18:00:09.779,(-52 -128 -89 -36 -43 -39 -28 -19)
1969/12/31/18:00:09.779,(-2 63 29 1 15 8 -2 -41)
1969/12/31/18:00:09.795,(-15 -14 26 6 -9 14 4 -18)
1969/12/31/18:00:09.795,(14 -31 -31 -1 8 -11 5 18)
1969/12/31/18:00:09.796,(-26 -36 -11 0 -13 -4 3 -16)
1969/12/31/18:00:09.796,(-12 -65 -58 -33 9 -13 -17 -4)
1969/12/31/18:00:09.816,(-5 67 58 13 -41 -32 -13 -13)
1969/12/31/18:00:09.816,(0 6 -12 -10 -4 19 2 23)
1969/12/31/18:00:09.817,(38 15 21 -5 -6 3 18 13)
1969/12/31/18:00:09.817,(0 16 40 15 1 -14 -5 -9)
1969/12/31/18:00:09.839,(21 86 22 12 37 9 -4 4)
1969/12/31/18:00:09.839,(24 79 84 39 5 -16 -15 -2)
1969/12/31/18:00:09.846,(-14 -65 -66 -26 -58 -19 5 -2)
1969/12/31/18:00:09.846,(-10 57 16 9 18 8 13 -4)
1969/12/31/18:00:09.854,(-1 -61 -35 -12 3 15 17 50)
1969/12/31/18:00:09.854,(-34 -99 -120 -44 16 -8 -29 -45)
1969/12/31/18:00:09.854,(14 118 127 59 -22 -6 36 23)
1969/12/31/18:00:09.855,(39 16 -8 -28 -34 -25 -29 -15)
1969/12/31/18:00:09.876,(4 10 43 43 24 -7 -2 -33)
1969/12/31/18:00:09.876,(-14 24 -14 -19 -35 -1 8 -6)
1969/12/31/18:00:09.877,(-32 -63 -42 -17 18 -14 -35 -44)
1969/12/31/18:00:09.877,(-8 -128 -85 -32 -14 -6 19 47)
1969/12/31/18:00:09.899,(19 117 86 41 27 7 0 8)
1969/12/31/18:00:09.899,(6 -50 -47 -32 -12 -2 0 -11)
1969/12/31/18:00:09.899,(9 101 100 24 14 9 -12 -10)
1969/12/31/18:00:09.900,(-10 -89 -73 -26 -16 -3 8 20)
1969/12/31/18:00:09.914,(32 63 73 61 38 19 8 18)
1969/12/31/18:00:09.914,(14 -73 -61 -9 14 2 -5 18)
1969/12/31/18:00:09.915,(-60 -77 -90 -33 2 -1 -13 -36)
1969/12/31/18:00:09.915,(10 47 53 25 -18 -14 -14 -33)
1969/12/31/18:00:09.936,(-42 -32 -62 -13 9 38 15 -13)
1969/12/31/18:00:09.936,(-27 -32 -35 -26 -48 -34 -41 -36)
1969/12/31/18:00:09.937,(17 44 20 13 15 21 6 1)
1969/12/31/18:00:09.937,(-8 -44 -38 -22 3 -15 -7 -9)
1969/12/31/18:00:09.959,(-19 -32 -53 -25 5 -10 -13 -19)
1969/12/31/18:00:09.959,(-23 72 112 47 -13 -22 -1 -8)
1969/12/31/18:00:09.960,(11 -79 -64 -29 -3 26 -3 -17)
1969/12/31/18:00:09.960,(-5 -47 -34 -21 -30 -37 -19 -19)
1969/12/31/18:00:09.974,(-2 -15 -32 -32 -11 -7 7 22)
1969/12/31/18:00:09.974,(28 71 61 48 54 44 25 16)
1969/12/31/18:00:09.975,(0 -67 -50 -17 -19 -21 -12 15)
1969/12/31/18:00:09.975,(38 126 111 54 40 27 23 10)
1969/12/31/18:00:09.996,(-33 -69 -37 -19 -4 -4 -3 -8)
1969/12/31/18:00:09.996,(-25 -93 -74 -32 -21 -9 -10 -6)
1969/12/31/18:00:09.997,(27 112 60 18 -12 -28 -1 11)
1969/12/31/18:00:09.997,(-17 -16 -9 -5 -3 5 -9 3)
1969/12/31/18:00:10.019,(-14 -63 -55 -14 11 18 10 -4)
1969/12/31/18:00:10.019,(-21 -5 17 2 -23 -38 -1 -8)
1969/12/31/18:00:10.019,(-21 -91 -55 -28 -9 -3 -12 -13)
1969/12/31/18:00:10.020,(15 35 11 18 7 -20 4 8)
1969/12/31/18:00:10.034,(13 -29 -30 -13 -11 -8 -9 0)
1969/12/31/18:00:10.034,(33 -10 1 -3 17 8 5 6)
1969/12/31/18:00:10.034,(0 21 11 18 -1 29 21 7)
1969/12/31/18:00:10.034,(30 -54 -79 -28 12 0 6 25)
1969/12/31/18:00:10.056,(37 50 76 34 -4 -4 -10 2)
1969/12/31/18:00:10.056,(-6 -63 -68 -30 -12 17 11 12)
1969/12/31/18:00:10.057,(3 105 106 35 20 -16 -11 -6)
1969/12/31/18:00:10.057,(-13 -85 -82 -23 10 19 10 11)
1969/12/31/18:00:10.080,(-25 106 78 25 3 -5 -4 -14)
1969/12/31/18:00:10.080,(-50 -56 -33 -3 -6 -2 -5 -16)
1969/12/31/18:00:10.081,(17 -48 -49 -19 -4 8 6 10)
1969/12/31/18:00:10.081,(-40 -35 -13 9 29 -13 0 -18)
1969/12/31/18:00:10.095,(11 -15 0 4 -19 7 -11 1)
1969/12/31/18:00:10.095,(7 39 1 -75 -67 -13 1 23)
1969/12/31/18:00:10.096,(-5 14 27 42 39 -2 16 7)
1969/12/31/18:00:10.096,(-4 -1 23 41 41 41 4 6)
1969/12/31/18:00:10.116,(-7 -80 -68 -26 -16 -26 -5 -7)
1969/12/31/18:00:10.116,(34 52 15 25 30 4 17 27)
1969/12/31/18:00:10.117,(-16 27 20 -9 2 7 -3 -21)
1969/12/31/18:00:10.117,(-2 12 34 -6 -38 -16 -24 -19)
1969/12/31/18:00:10.139,(41 81 36 16 15 15 8 18)
1969/12/31/18:00:10.139,(20 -66 -58 -1 9 15 18 8)
1969/12/31/18:00:10.140,(8 118 98 19 -5 -10 -1 33)
1969/12/31/18:00:10.140,(7 -15 -5 3 4 4 3 -24)
1969/12/31/18:00:10.154,(-44 -93 -54 -36 -21 -14 -14 -14)
1969/12/31/18:00:10.154,(15 76 42 14 8 -11 9 -6)
1969/12/31/18:00:10.154,(-8 -81 -54 -8 -15 -8 -11 3)
1969/12/31/18:00:10.154,(13 26 12 5 6 30 -2 6)
1969/12/31/18:00:10.176,(43 75 74 3 -19 -2 20 31)
1969/12/31/18:00:10.176,(-20 -49 -17 2 46 27 -5 -10)
1969/12/31/18:00:10.177,(5 -43 -60 -4 -24 -8 7 -2)
1969/12/31/18:00:10.177,(1 70 75 34 -11 6 17 6)
1969/12/31/18:00:10.199,(13 -38 -42 -8 -3 -13 1 43)
1969/12/31/18:00:10.199,(32 46 50 26 11 5 0 18)
1969/12/31/18:00:10.200,(19 -10 -25 -29 -26 -13 -8 -1)
1969/12/31/18:00:10.200,(-20 -34 -35 -33 6 0 -11 -24)
1969/12/31/18:00:10.213,(-3 -32 -2 27 24 10 14 18)
1969/12/31/18:00:10.214,(-13 -25 -20 13 15 1 -5 -16)
1969/12/31/18:00:10.214,(71 48 44 28 18 12 12 33)
1969/12/31/18:00:10.214,(10 91 64 0 -16 -2 4 11)
1969/12/31/18:00:10.236,(-15 -9 -5 -15 -7 -13 -15 -30)
1969/12/31/18:00:10.236,(0 -37 -29 -19 -11 -5 6 17)
1969/12/31/18:00:10.237,(-16 -51 -34 -14 -14 -1 -13 -18)
1969/12/31/18:00:10.237,(-39 -25 -26 -2 26 3 4 -3)
1969/12/31/18:00:10.267,(49 6 -9 -21 -10 -4 -13 -5)
1969/12/31/18:00:10.267,(-11 -4 17 27 -1 5 -3 -18)
1969/12/31/18:00:10.268,(-44 42 39 13 9 -1 -5 -11)
1969/12/31/18:00:10.268,(10 -21 -18 -2 -9 7 8 32)
1969/12/31/18:00:10.274,(-38 -36 -31 -24 -10 -10 -19 -46)
1969/12/31/18:00:10.274,(71 60 30 -3 -16 -17 43 40)
1969/12/31/18:00:10.275,(-72 -69 -29 8 19 -16 -35 -40)
1969/12/31/18:00:10.275,(-29 -37 -17 29 54 43 34 -1)
1969/12/31/18:00:10.296,(-35 1 -3 -1 -22 -41 -49 -77)
1969/12/31/18:00:10.296,(-5 10 12 -1 9 20 2 5)
1969/12/31/18:00:10.297,(-14 -17 1 -3 -6 17 12 16)
1969/12/31/18:00:10.297,(62 7 -11 -19 -22 -21 -11 0)
1969/12/31/18:00:10.319,(-7 3 -17 -10 -7 2 1 18)
1969/12/31/18:00:10.319,(35 42 35 14 9 3 12 12)
1969/12/31/18:00:10.319,(-24 -31 -27 -17 -4 -6 -7 -18)
1969/12/31/18:00:10.319,(-38 -48 -25 -7 -6 0 -9 -17)
1969/12/31/18:00:10.334,(-7 -5 15 10 7 6 17 15)
1969/12/31/18:00:10.334,(-38 10 -7 -8 -13 -3 -21 -18)
1969/12/31/18:00:10.335,(9 -29 -11 3 11 11 19 16)
1969/12/31/18:00:10.335,(65 35 -7 -13 -20 -19 7 9)
1969/12/31/18:00:10.365,(17 4 7 3 4 7 8 26)
1969/12/31/18:00:10.365,(-49 -17 -5 -4 -4 7 19 -32)
1969/12/31/18:00:10.365,(18 1 -2 -3 -6 -22 -49 -6)
1969/12/31/18:00:10.365,(-33 -40 -5 -7 -5 7 25 1)
1969/12/31/18:00:10.379,(19 41 1 15 16 1 -20 -35)
1969/12/31/18:00:10.379,(3 44 10 4 -1 -1 -2 7)
1969/12/31/18:00:10.380,(32 24 6 -1 -3 -16 21 25)
1969/12/31/18:00:10.380,(-35 -54 -17 -11 -14 -12 -14 -12)
1969/12/31/18:00:10.393,(41 26 24 14 14 16 28 47)
1969/12/31/18:00:10.393,(-64 -40 -30 -33 -40 -20 -41 -46)
1969/12/31/18:00:10.401,(30 6 1 9 32 14 30 20)
1969/12/31/18:00:10.401,(-15 -18 -4 15 13 5 -22 -11)
1969/12/31/18:00:10.416,(20 -8 6 -1 0 7 17 30)
1969/12/31/18:00:10.416,(27 -11 3 4 0 -11 -8 -1)
1969/12/31/18:00:10.417,(-2 41 10 -9 -21 -3 -5 -1)
1969/12/31/18:00:10.417,(-22 -38 -20 -21 -15 -14 -27 -30)
1969/12/31/18:00:10.439,(-57 -30 0 12 14 9 13 -5)
1969/12/31/18:00:10.439,(-27 15 -4 -5 -5 -8 -14 -24)
1969/12/31/18:00:10.440,(114 18 -1 -4 -2 5 14 35)
1969/12/31/18:00:10.440,(-46 20 2 -2 -7 -7 -13 -19)
1969/12/31/18:00:10.453,(28 -45 -27 -15 -12 -5 6 12)
1969/12/31/18:00:10.453,(2 32 29 13 9 0 -5 2)
1969/12/31/18:00:10.461,(-50 -31 -1 4 0 4 -1 -14)
1969/12/31/18:00:10.461,(29 41 6 1 -2 -2 6 13)
1969/12/31/18:00:10.485,(-9 -37 -27 -21 -15 -6 -11 -2)
1969/12/31/18:00:10.485,(-2 -7 0 6 8 2 -12 -7)
1969/12/31/18:00:10.485,(-22 18 7 4 2 0 -4 -20)
1969/12/31/18:00:10.485,(11 5 4 -6 -9 -3 0 4)
1969/12/31/18:00:10.499,(-15 -2 1 0 -1 3 8 3)
1969/12/31/18:00:10.499,(6 -15 -6 1 2 1 -1 8)
1969/12/31/18:00:10.500,(-10 -1 -4 -4 -6 -3 -4 -9)
1969/12/31/18:00:10.500,(13 3 -4 -4 0 2 4 5)
1969/12/31/18:00:10.513,(-7 -4 1 2 1 -1 -1 -4)
1969/12/31/18:00:10.513,(3 4 0 2 3 -2 -3 -1)
1969/12/31/18:00:10.521,(-1 -15 -4 -6 -4 0 -1 -7)
1969/12/31/18:00:10.521,(-4 7 -2 2 0 0 0 5)
1969/12/31/18:00:10.536,(-7 6 -2 -5 -4 -6 -6 -14)
1969/12/31/18:00:10.536,(2 -3 3 0 -3 -2 0 5)
1969/12/31/18:00:10.537,(-6 -10 -5 2 4 3 3 6)
1969/12/31/18:00:10.537,(14 15 11 5 2 1 -2 5)
1969/12/31/18:00:10.559,(-14 -5 0 -1 -5 -3 -3 -9)
1969/12/31/18:00:10.559,(11 -9 -7 -5 -1 0 2 2)
1969/12/31/18:00:10.560,(-22 -4 -4 -5 -5 -3 -3 -10)
1969/12/31/18:00:10.560,(12 0 -6 -2 -2 -2 -2 0)
1969/12/31/18:00:10.573,(-8 -23 -12 -8 -4 -4 -6 -7)
1969/12/31/18:00:10.573,(10 35 23 10 8 5 7 15)
1969/12/31/18:00:10.581,(-8 6 -8 -3 -3 -1 -5 -14)
1969/12/31/18:00:10.581,(-3 -7 5 4 1 0 -1 2)
1969/12/31/18:00:10.604,(-3 0 0 0 0 -1 -1 -4)
1969/12/31/18:00:10.604,(-3 -39 -24 -10 -4 -3 0 -1)
1969/12/31/18:00:10.605,(2 38 26 2 -1 -4 -6 -4)
1969/12/31/18:00:10.605,(2 -29 -24 -9 -1 1 0 2)
1969/12/31/18:00:10.619,(-3 20 9 4 -1 -1 -1 -8)
1969/12/31/18:00:10.619,(-2 -2 3 6 3 2 0 4)
1969/12/31/18:00:10.620,(7 3 -3 -2 0 0 0 18)
1969/12/31/18:00:10.620,(-8 -9 -10 -6 -4 1 5 -6)
1969/12/31/18:00:10.633,(1 8 12 4 4 3 4 2)
1969/12/31/18:00:10.633,(-1 -19 -19 -8 -6 -5 -2 0)
1969/12/31/18:00:10.641,(-5 -7 2 2 0 -2 1 -1)
1969/12/31/18:00:10.641,(0 4 -3 -1 1 -2 -2 1)
1969/12/31/18:00:10.656,(4 1 -4 -7 -3 -1 1 3)
1969/12/31/18:00:10.656,(-4 1 -2 -4 -2 0 5 4)
1969/12/31/18:00:10.664,(-2 2 6 4 3 -2 -16 -21)
1969/12/31/18:00:10.664,(-1 -1 3 0 0 0 0 1)
1969/12/31/18:00:10.679,(0 -14 -17 -6 -4 -4 -4 -3)
1969/12/31/18:00:10.679,(1 23 27 9 4 2 2 -1)
1969/12/31/18:00:10.679,(-5 -14 -11 -5 -5 0 0 -5)
1969/12/31/18:00:10.679,(1 4 2 -1 -4 -3 1 5)
1969/12/31/18:00:10.693,(0 -2 -3 1 0 1 1 3)
1969/12/31/18:00:10.693,(-1 -8 -4 4 3 -2 -2 -7)
1969/12/31/18:00:10.701,(-1 -6 -13 -12 -6 -1 -5 -4)
1969/12/31/18:00:10.701,(0 13 24 12 5 2 12 4)
1969/12/31/18:00:10.716,(-1 2 -4 -5 -5 -6 -3 0)
1969/12/31/18:00:10.716,(0 -7 -4 -3 -2 -1 1 2)
1969/12/31/18:00:10.717,(3 -2 -6 -2 -1 6 15 11)
1969/12/31/18:00:10.717,(-2 -1 -2 0 2 -3 -25 -13)
1969/12/31/18:00:10.739,(-1 5 6 1 0 0 3 -2)
1969/12/31/18:00:10.739,(0 -3 -8 -2 0 -2 -1 0)
1969/12/31/18:00:10.740,(-8 -11 -8 -7 -3 -5 -5 -9)
1969/12/31/18:00:10.740,(0 2 2 -5 -5 -1 7 9)
1969/12/31/18:00:10.762,(2 3 3 5 3 3 1 2)
1969/12/31/18:00:10.762,(0 7 5 0 2 -2 -12 -8)
1969/12/31/18:00:10.763,(0 -7 -6 0 -6 0 7 8)
1969/12/31/18:00:10.763,(1 11 8 -2 0 -3 -2 -2)
1969/12/31/18:00:10.776,(0 2 0 1 3 -2 -10 -7)
1969/12/31/18:00:10.776,(-2 -24 -13 -3 0 7 12 9)
1969/12/31/18:00:10.777,(3 14 3 -5 1 1 1 -3)
1969/12/31/18:00:10.777,(1 10 3 5 2 -3 -2 -1)
1969/12/31/18:00:10.807,(-5 -11 -7 -8 -5 -3 -2 1)
1969/12/31/18:00:10.807,(3 9 2 -1 -9 -12 -13 -7)
1969/12/31/18:00:10.808,(-2 -15 -12 -3 0 7 13 3)
1969/12/31/18:00:10.808,(-1 -5 -8 -4 5 5 -5 4)
1969/12/31/18:00:10.822,(7 7 5 6 2 6 20 14)
1969/12/31/18:00:10.822,(-6 -7 -6 -1 3 2 -35 -24)
1969/12/31/18:00:10.823,(-6 -4 2 -1 -2 -5 7 -5)
1969/12/31/18:00:10.823,(-2 1 0 -7 -10 -9 -5 -4)
1969/12/31/18:00:10.836,(-2 -2 1 1 0 0 -1 -1)
1969/12/31/18:00:10.836,(4 2 -1 0 0 -3 0 8)
1969/12/31/18:00:10.837,(-1 1 0 2 4 -1 -4 -2)
1969/12/31/18:00:10.837,(0 0 4 -1 0 4 12 5)
1969/12/31/18:00:10.859,(-2 -5 -3 5 2 -3 -14 -8)
1969/12/31/18:00:10.859,(-5 -2 -4 -8 -6 -3 2 -3)
1969/12/31/18:00:10.860,(-1 1 5 3 4 -3 -8 0)
1969/12/31/18:00:10.860,(2 -4 -4 1 0 6 9 2)
1969/12/31/18:00:10.882,(-6 -2 -4 -14 -12 -6 -8 -10)
1969/12/31/18:00:10.882,(-5 0 0 0 3 4 3 -5)
1969/12/31/18:00:10.883,(0 0 1 -1 -3 -3 6 10)
1969/12/31/18:00:10.883,(2 0 3 3 2 1 2 5)
1969/12/31/18:00:10.904,(-3 3 4 9 0 -8 -5 -14)
1969/12/31/18:00:10.904,(-3 -1 -1 -3 -5 3 1 -1)
1969/12/31/18:00:10.905,(3 -5 -5 -4 1 5 3 2)
1969/12/31/18:00:10.905,(-7 -6 -7 -14 -21 -8 -7 -8)
1969/12/31/18:00:10.919,(2 6 8 14 29 0 -13 -7)
1969/12/31/18:00:10.920,(3 0 2 2 -1 3 17 14)
1969/12/31/18:00:10.920,(-6 -6 -2 -2 -2 -9 -19 -24)
1969/12/31/18:00:10.920,(-1 -3 -4 12 10 7 2 0)
1969/12/31/18:00:10.942,(2 -5 -7 -19 -27 -5 7 11)
1969/12/31/18:00:10.942,(-2 2 1 0 18 0 5 -2)
1969/12/31/18:00:10.943,(0 2 7 7 5 2 -10 2)
1969/12/31/18:00:10.943,(-2 -4 -8 -18 -27 -11 -9 -3)
1969/12/31/18:00:10.956,(-2 0 2 16 31 10 9 4)
1969/12/31/18:00:10.956,(4 1 -5 -9 -10 6 9 6)
1969/12/31/18:00:10.957,(-1 -6 -7 -5 -14 -14 3 0)
1969/12/31/18:00:10.957,(1 4 3 8 11 -3 -4 0)
1969/12/31/18:00:10.987,(7 1 -2 -9 -9 5 9 10)
1969/12/31/18:00:10.987,(-13 -4 3 6 6 1 -24 -25)
1969/12/31/18:00:10.988,(-1 2 1 -2 -1 -13 0 1)
1969/12/31/18:00:10.988,(0 0 1 6 3 -9 -7 -9)
1969/12/31/18:00:11.003,(-2 -4 -7 -31 -44 -9 4 6)
1969/12/31/18:00:11.003,(4 6 0 16 33 26 27 5)
1969/12/31/18:00:11.003,(-5 -2 1 7 16 -12 -49 -11)
1969/12/31/18:00:11.003,(-8 -6 -6 -1 3 9 7 -2)
1969/12/31/18:00:11.025,(3 3 1 -2 -2 -9 -9 0)
1969/12/31/18:00:11.025,(1 0 2 -3 -20 -6 -3 0)
1969/12/31/18:00:11.025,(0 -2 -3 -7 -9 8 13 1)
1969/12/31/18:00:11.025,(3 1 0 -1 2 0 5 5)
1969/12/31/18:00:11.040,(-1 0 1 10 17 3 -6 -3)
1969/12/31/18:00:11.040,(-6 -6 -9 -21 -28 -14 -9 -5)
1969/12/31/18:00:11.040,(3 3 3 -1 -2 3 6 0)
1969/12/31/18:00:11.040,(-1 1 1 2 1 2 -6 -7)
1969/12/31/18:00:11.062,(-8 -9 -5 -4 -6 -3 -7 -10)
1969/12/31/18:00:11.062,(4 -1 0 -4 -1 -9 -1 8)
1969/12/31/18:00:11.063,(-2 0 1 4 -5 7 3 -4)
1969/12/31/18:00:11.063,(0 -1 2 0 2 -6 -6 -4)
1969/12/31/18:00:11.077,(-3 -2 1 -3 -3 0 1 -2)
1969/12/31/18:00:11.077,(2 -3 -11 0 1 0 2 7)
1969/12/31/18:00:11.078,(4 3 2 -3 4 -3 -5 0)
1969/12/31/18:00:11.078,(7 7 7 16 6 13 18 11)
1969/12/31/18:00:11.099,(-8 -6 -2 4 6 1 4 -4)
1969/12/31/18:00:11.099,(1 2 4 0 -3 -7 -10 -4)
1969/12/31/18:00:11.100,(-7 -5 -7 -8 -6 1 6 -2)
1969/12/31/18:00:11.100,(-1 -2 -5 -5 1 -5 -6 -3)
1969/12/31/18:00:11.122,(4 4 -1 -2 -4 5 2 4)
1969/12/31/18:00:11.122,(2 3 3 5 0 -3 -1 -1)
1969/12/31/18:00:11.123,(4 2 0 2 1 4 8 8)
1969/12/31/18:00:11.123,(-12 -12 -7 -13 -7 -5 -9 -12)
1969/12/31/18:00:11.136,(0 2 -2 1 2 -2 -2 2)
1969/12/31/18:00:11.136,(1 0 3 2 1 -2 0 -1)
1969/12/31/18:00:11.137,(0 -2 -5 -4 -4 -1 2 1)
1969/12/31/18:00:11.137,(-1 -4 -4 -16 -6 -2 -1 -1)
1969/12/31/18:00:11.159,(0 1 -3 10 0 -2 0 -3)
1969/12/31/18:00:11.159,(6 7 8 11 7 2 3 6)
1969/12/31/18:00:11.160,(-4 0 7 5 1 3 0 -1)
1969/12/31/18:00:11.160,(-14 -17 -12 3 -1 -6 -6 -7)
1969/12/31/18:00:11.189,(0 -2 -2 -2 -3 -1 -4 -3)
1969/12/31/18:00:11.189,(-3 -3 1 -7 -6 -3 -2 -4)
1969/12/31/18:00:11.190,(-1 -5 -2 10 8 4 7 7)
1969/12/31/18:00:11.190,(4 11 -1 -11 -6 -3 -9 -7)
1969/12/31/18:00:11.205,(-13 -31 -12 -13 -3 -5 -3 -3)
1969/12/31/18:00:11.205,(3 16 3 7 2 -1 -1 0)
1969/12/31/18:00:11.205,(1 -7 -10 -5 -3 2 4 0)
1969/12/31/18:00:11.205,(0 -13 -9 -1 0 -2 1 2)
1969/12/31/18:00:11.219,(4 20 14 6 0 -1 0 4)
1969/12/31/18:00:11.219,(-14 -37 -16 -14 -5 -4 -5 -11)
1969/12/31/18:00:11.220,(-3 0 -15 -9 -5 -3 -4 -5)
1969/12/31/18:00:11.220,(4 9 16 14 7 2 3 4)
1969/12/31/18:00:11.242,(6 26 -6 -2 -1 -1 0 -1)
1969/12/31/18:00:11.242,(-8 -26 -15 -12 -5 -5 -1 0)
1969/12/31/18:00:11.243,(7 29 30 7 5 3 -1 1)
1969/12/31/18:00:11.243,(-4 -15 -12 1 1 1 0 -2)
1969/12/31/18:00:11.256,(8 14 10 4 5 2 3 6)
1969/12/31/18:00:11.256,(-3 5 -1 -2 -2 -1 0 1)
1969/12/31/18:00:11.257,(-11 -31 -12 -5 -4 -3 -5 -7)
1969/12/31/18:00:11.257,(-4 0 -10 -8 -1 -3 0 -1)
1969/12/31/18:00:11.279,(6 1 6 2 -1 0 0 -1)
1969/12/31/18:00:11.279,(11 30 8 2 1 -1 1 1)
1969/12/31/18:00:11.286,(-2 -19 -11 -6 -5 -2 -2 -1)
1969/12/31/18:00:11.286,(-5 2 9 5 4 1 3 1)
1969/12/31/18:00:11.302,(-7 -12 -4 -2 0 0 1 -2)
1969/12/31/18:00:11.302,(3 12 8 1 -4 -4 -3 1)
1969/12/31/18:00:11.304,(5 9 3 2 4 3 2 1)
1969/12/31/18:00:11.304,(-3 -2 5 2 -2 0 -2 -1)
1969/12/31/18:00:11.316,(-2 -5 -4 -6 -4 -2 -2 -4)
1969/12/31/18:00:11.316,(1 -2 -7 -1 -2 -1 -2 1)
1969/12/31/18:00:11.325,(1 9 6 -4 -2 -2 -3 -1)
1969/12/31/18:00:11.325,(-3 -15 -10 0 -1 -1 0 1)
1969/12/31/18:00:11.340,(5 3 -3 -3 -1 -1 -1 2)
1969/12/31/18:00:11.340,(2 3 9 3 0 1 0 2)
1969/12/31/18:00:11.341,(-7 -10 -7 -3 -1 -1 -4 -6)
1969/12/31/18:00:11.341,(3 10 1 -4 -3 -3 0 -3)
1969/12/31/18:00:11.378,(-4 -3 5 -2 -1 -2 -2 -2)
1969/12/31/18:00:11.378,(-2 -7 0 3 1 1 0 1)
1969/12/31/18:00:11.379,(4 8 5 3 -3 0 1 5)
1969/12/31/18:00:11.379,(0 3 2 0 1 0 -1 -1)
1969/12/31/18:00:11.380,(-4 -10 -9 -5 -3 -2 -1 -2)
1969/12/31/18:00:11.380,(2 4 4 1 1 -2 -3 0)
1969/12/31/18:00:11.385,(-4 -3 -3 -1 -3 -2 1 -2)
1969/12/31/18:00:11.385,(2 4 4 2 -2 -3 -1 1)
1969/12/31/18:00:11.399,(-3 -7 -5 -2 -2 -1 0 0)
1969/12/31/18:00:11.399,(-5 -9 -7 -6 -4 -1 -3 -2)
1969/12/31/18:00:11.406,(-1 0 -2 1 2 -1 -2 -2)
1969/12/31/18:00:11.406,(2 3 -1 -5 -1 1 1 2)
1969/12/31/18:00:11.430,(-2 -3 0 1 2 0 -1 -2)
1969/12/31/18:00:11.430,(4 3 4 1 0 0 1 3)
1969/12/31/18:00:11.431,(-9 -13 -10 -2 -2 -2 -6 -10)
1969/12/31/18:00:11.431,(-2 0 0 -3 -1 2 0 -2)
1969/12/31/18:00:11.444,(-3 -2 0 1 4 2 -2 -2)
1969/12/31/18:00:11.444,(-3 -3 0 -1 1 2 -1 0)
1969/12/31/18:00:11.446,(4 5 2 1 0 -1 1 1)
1969/12/31/18:00:11.446,(0 0 -1 0 -4 -1 -2 0)
1969/12/31/18:00:11.460,(-3 -5 -3 -4 -2 -1 -2 -3)
1969/12/31/18:00:11.460,(-2 -2 -3 -2 0 -2 0 -1)
1969/12/31/18:00:11.461,(5 4 4 8 4 1 2 5)
1969/12/31/18:00:11.462,(-1 2 4 1 -3 -1 -2 -2)
1969/12/31/18:00:11.483,(-1 -1 -1 -4 -4 -1 -2 -1)
1969/12/31/18:00:11.483,(-3 -3 -2 3 2 -1 -2 -1)
1969/12/31/18:00:11.484,(-2 -2 -1 -3 -1 -2 -1 -2)
1969/12/31/18:00:11.484,(-1 -1 -3 -7 -4 -2 -2 -3)
