time,.data
1969-12-31 18:00:12.825000000,(-2 -2 -3 0 -1 -1 -1 -2)
1969-12-31 18:00:12.825000000,(0 -2 -1 -1 -1 -2 -3 -2)
1969-12-31 18:00:12.833256108,(-3 -4 -3 -2 -1 0 0 0)
1969-12-31 18:00:12.833256108,(-2 -3 1 -1 -2 -1 0 -1)
1969-12-31 18:00:12.835614996,(1 -1 -3 -1 1 -1 1 -4)
1969-12-31 18:00:12.835614996,(0 -3 -1 0 -2 -1 -1 0)
1969-12-31 18:00:12.849768324,(2 1 2 3 0 -1 1 1)
1969-12-31 18:00:12.849768324,(-2 -2 -1 -1 -2 0 -2 -4)
1969-12-31 18:00:12.860383319,(-1 0 -2 -3 -1 -1 -3 -1)
1969-12-31 18:00:12.860383319,(-1 1 1 -1 -1 1 2 3)
1969-12-31 18:00:12.876895535,(1 0 -1 -2 -3 0 -2 -1)
1969-12-31 18:00:12.876895535,(-2 0 -1 -1 -2 0 0 -1)
1969-12-31 18:00:12.879254423,(1 -2 -2 -1 -1 -2 0 -1)
1969-12-31 18:00:12.879254423,(1 -1 0 -2 -1 0 -1 -2)
1969-12-31 18:00:12.904022746,(-1 0 -1 0 -1 -2 0 0)
1969-12-31 18:00:12.904022746,(-1 -1 2 -2 -1 -2 -1 0)
1969-12-31 18:00:12.906381634,(-2 0 2 1 1 0 -1 0)
1969-12-31 18:00:12.906381634,(-2 0 2 1 1 -2 -1 -1)
1969-12-31 18:00:12.920534962,(-1 0 -1 -1 -1 -1 -3 -2)
1969-12-31 18:00:12.920534962,(-1 -1 -1 -1 -1 1 -2 0)
1969-12-31 18:00:12.931149958,(0 0 -1 -2 -1 1 -1 -1)
1969-12-31 18:00:12.931149958,(-1 1 -1 -2 -2 -1 -2 -2)
1969-12-31 18:00:12.955918281,(-1 0 1 0 -2 -1 1 0)
1969-12-31 18:00:12.955918281,(0 0 -1 -3 -2 -2 -2 -1)
1969-12-31 18:00:12.966533277,(-2 -3 -3 -3 -2 -2 1 -2)
1969-12-31 18:00:12.966533277,(-1 0 -1 0 -3 1 -2 -1)
1969-12-31 18:00:12.973609941,(0 -2 0 0 2 -1 -3 0)
1969-12-31 18:00:12.973609941,(0 -1 -2 -2 -1 -1 -1 -1)
1969-12-31 18:00:12.984224937,(0 1 2 1 0 -1 1 -1)
1969-12-31 18:00:12.984224937,(-1 -2 -1 -1 -2 -1 0 -2)
1969-12-31 18:00:13.000737152,(0 -1 -3 -2 -3 -2 -1 -2)
1969-12-31 18:00:13.000737152,(0 -2 -1 0 0 0 -2 -1)
1969-12-31 18:00:13.010172704,(-1 -1 1 1 0 0 -2 -1)
1969-12-31 18:00:13.010172704,(-2 -3 -3 -2 1 0 0 -1)
1969-12-31 18:00:13.019608256,(-1 0 0 0 -2 -1 -1 -2)
1969-12-31 18:00:13.019608256,(0 -1 -3 0 -1 0 0 0)
1969-12-31 18:00:13.020787700,(0 -4 0 0 -3 -2 -2 -1)
1969-12-31 18:00:13.020787700,(2 0 -1 -1 -1 0 -3 -1)
1969-12-31 18:00:13.045556024,(-1 -2 -1 -3 -2 -1 0 -1)
1969-12-31 18:00:13.045556024,(-2 -3 -3 -1 -1 1 -2 0)
1969-12-31 18:00:13.047914912,(0 2 3 3 2 -1 0 0)
1969-12-31 18:00:13.047914912,(-1 0 1 0 -1 0 0 -1)
1969-12-31 18:00:13.079759899,(-2 -2 -4 -3 -1 -1 -1 -2)
1969-12-31 18:00:13.079759899,(-2 -6 -5 -1 -2 -1 -1 -4)
1969-12-31 18:00:13.091554338,(0 1 3 -1 0 -1 0 0)
1969-12-31 18:00:13.091554338,(-1 -4 -5 -5 -2 -1 -3 1)
1969-12-31 18:00:13.092733783,(0 2 3 -1 -1 -2 -1 0)
1969-12-31 18:00:13.092733783,(0 2 3 7 3 -3 1 1)
1969-12-31 18:00:13.097451559,(-3 -3 -7 -5 -3 0 -1 -2)
1969-12-31 18:00:13.097451559,(-1 3 3 6 0 -3 -2 -1)
1969-12-31 18:00:13.115143218,(-2 -5 -7 -2 -3 -2 -2 -2)
1969-12-31 18:00:13.115143218,(0 0 -2 -2 -4 -3 -5 -5)
1969-12-31 18:00:13.142270430,(-1 -4 -6 -6 -3 0 0 0)
1969-12-31 18:00:13.142270430,(-4 -5 -18 -16 -3 1 -1 0)
1969-12-31 18:00:13.150526537,(-6 -8 2 -3 -6 -2 -4 -3)
1969-12-31 18:00:13.150526537,(2 2 -10 6 2 0 3 4)
1969-12-31 18:00:13.171756529,(2 12 15 -12 -1 -4 -4 -6)
1969-12-31 18:00:13.172935973,(1 5 15 23 4 0 -3 -1)
1969-12-31 18:00:13.172935973,(1 6 10 16 6 -7 -2 1)
1969-12-31 18:00:13.172935973,(2 -1 4 17 5 8 -1 3)
1969-12-31 18:00:13.176474305,(-2 -6 -32 -27 -4 1 5 2)
1969-12-31 18:00:13.176474305,(-4 -9 4 -31 -6 -3 -1 1)
1969-12-31 18:00:13.187089301,(7 20 52 52 10 -2 -1 2)
1969-12-31 18:00:13.187089301,(5 7 13 6 11 4 12 17)
1969-12-31 18:00:13.189448189,(-2 -11 -27 -9 -4 -5 -7 -8)
1969-12-31 18:00:13.189448189,(-7 -8 -20 -22 -6 -6 -6 -10)
1969-12-31 18:00:13.213037068,(-5 -15 -34 -36 -10 -4 2 3)
1969-12-31 18:00:13.213037068,(-5 -12 -17 -24 -10 -8 0 3)
1969-12-31 18:00:13.222472620,(5 4 -6 -2 -4 -5 -6 0)
1969-12-31 18:00:13.222472620,(4 2 17 7 7 3 10 10)
1969-12-31 18:00:13.230728728,(7 -6 -7 -9 -3 -6 1 8)
1969-12-31 18:00:13.230728728,(0 1 -23 -6 -2 -7 0 -1)
1969-12-31 18:00:13.238984836,(2 3 44 23 7 -1 6 10)
1969-12-31 18:00:13.238984836,(6 7 9 25 6 -4 3 9)
1969-12-31 18:00:13.256676495,(3 2 -13 -3 3 0 4 4)
1969-12-31 18:00:13.256676495,(-3 17 19 -4 -3 -3 -4 -6)
1969-12-31 18:00:13.267291491,(-10 -5 -13 -12 -7 -1 -3 -8)
1969-12-31 18:00:13.267291491,(-4 -2 -7 -6 -4 5 -5 -12)
1969-12-31 18:00:13.284983151,(-8 -8 -7 -7 -3 13 -2 -12)
1969-12-31 18:00:13.284983151,(-7 -21 -7 -13 -10 7 -7 -13)
1969-12-31 18:00:13.286162595,(-10 13 17 14 0 10 -4 -23)
1969-12-31 18:00:13.286162595,(9 10 15 17 2 14 0 5)
1969-12-31 18:00:13.300315922,(-2 2 2 0 -4 10 -6 -14)
1969-12-31 18:00:13.300315922,(1 -8 -1 -1 -4 7 -5 -5)
1969-12-31 18:00:13.310930918,(3 -7 -3 9 -2 5 -1 2)
1969-12-31 18:00:13.310930918,(-8 -20 -18 -3 -3 0 -2 -6)
1969-12-31 18:00:13.328622578,(-5 1 -11 -10 -1 -2 -2 -9)
1969-12-31 18:00:13.328622578,(6 14 15 5 -3 -9 -1 19)
1969-12-31 18:00:13.330981466,(5 -2 3 11 4 -1 3 16)
1969-12-31 18:00:13.330981466,(-1 -4 -17 -8 -3 -11 -4 -4)
1969-12-31 18:00:13.355749789,(2 -1 2 -2 -1 -4 -1 2)
1969-12-31 18:00:13.355749789,(-3 -1 -3 2 3 -5 1 -1)
1969-12-31 18:00:13.356929232,(2 -4 -10 -4 -1 -9 -2 5)
1969-12-31 18:00:13.356929232,(-1 -3 -7 -5 0 -6 2 7)
1969-12-31 18:00:13.371082561,(1 1 7 1 3 -5 6 13)
1969-12-31 18:00:13.371082561,(3 4 1 -3 0 -7 -6 -16)
1969-12-31 18:00:13.381697557,(-9 -3 -3 -2 -2 -8 -3 6)
1969-12-31 18:00:13.381697557,(-1 -4 -6 -3 -2 -5 0 -3)
1969-12-31 18:00:13.399389217,(-4 -1 1 -1 -2 0 4 18)
1969-12-31 18:00:13.399389217,(0 5 2 -1 0 1 -1 -17)
1969-12-31 18:00:13.400568660,(9 0 2 0 -1 3 0 -1)
1969-12-31 18:00:13.401748104,(13 6 3 -2 -2 5 14 5)
1969-12-31 18:00:13.425336984,(-19 -8 -5 1 1 2 -9 -4)
1969-12-31 18:00:13.425336984,(-26 -18 -5 -4 -8 -5 -12 -15)
1969-12-31 18:00:13.434772536,(-7 -6 -3 0 -1 1 1 -2)
1969-12-31 18:00:13.434772536,(19 8 0 -2 -2 -3 -4 -3)
1969-12-31 18:00:13.441849200,(3 8 2 -1 0 5 7 -3)
1969-12-31 18:00:13.441849200,(14 -4 -3 -1 1 2 4 4)
1969-12-31 18:00:13.452464195,(-30 -15 -4 -4 -3 -9 -4 0)
1969-12-31 18:00:13.452464195,(-14 1 4 3 2 0 -9 -22)
1969-12-31 18:00:13.468976411,(-1 4 1 2 4 3 -10 2)
1969-12-31 18:00:13.468976411,(14 0 -4 -2 0 5 5 2)
1969-12-31 18:00:13.486668071,(14 4 0 1 -2 -8 -1 9)
1969-12-31 18:00:13.486668071,(38 22 12 6 4 3 -10 26)
1969-12-31 18:00:13.497283067,(0 -8 -10 -7 -6 -7 -4 -32)
1969-12-31 18:00:13.497283067,(-36 -10 -2 1 1 4 18 16)
1969-12-31 18:00:13.498462511,(49 21 3 8 7 -15 -22 12)
1969-12-31 18:00:13.498462511,(-33 -22 -14 -8 -3 -14 0 -17)
1969-12-31 18:00:13.512615838,(18 10 -1 -7 -1 -3 2 4)
1969-12-31 18:00:13.512615838,(41 23 10 1 8 25 4 38)
1969-12-31 18:00:13.523230834,(-47 -18 1 -7 -9 -6 -3 -47)
1969-12-31 18:00:13.523230834,(-17 -2 9 4 -4 -8 -21 6)
1969-12-31 18:00:13.540922494,(1 0 3 3 -2 20 -2 -12)
1969-12-31 18:00:13.540922494,(-9 -14 -7 -8 -13 -36 -18 1)
1969-12-31 18:00:13.543281382,(-11 0 7 7 5 24 -10 -9)
1969-12-31 18:00:13.543281382,(32 13 -9 -7 -11 2 7 -21)
1969-12-31 18:00:13.568049705,(7 -5 -2 -2 -5 -21 -6 10)
1969-12-31 18:00:13.568049705,(7 0 0 1 1 24 0 1)
1969-12-31 18:00:13.569229149,(-35 -10 -10 -6 -4 -1 4 -47)
1969-12-31 18:00:13.569229149,(9 2 13 13 8 1 14 37)
1969-12-31 18:00:13.583382477,(-15 0 -11 -5 -4 11 -7 -32)
1969-12-31 18:00:13.583382477,(-10 -2 0 3 0 -15 9 2)
1969-12-31 18:00:13.593997473,(16 7 -2 0 2 24 14 1)
1969-12-31 18:00:13.593997473,(-7 -3 -4 -5 -2 -8 -1 40)
1969-12-31 18:00:13.611689132,(-26 -17 -2 1 0 3 1 6)
1969-12-31 18:00:13.611689132,(22 7 5 7 3 -1 9 -10)
1969-12-31 18:00:13.614048020,(1 -2 -1 0 -3 -17 -29 12)
1969-12-31 18:00:13.614048020,(-17 12 7 3 11 59 -23 -74)
1969-12-31 18:00:13.637636900,(-33 -17 -6 -4 -27 -96 -10 -7)
1969-12-31 18:00:13.637636900,(-8 3 -2 0 12 63 -12 -30)
1969-12-31 18:00:13.655328559,(-1 -8 -1 -1 0 -17 4 12)
1969-12-31 18:00:13.655328559,(0 -10 0 2 4 10 6 -6)
1969-12-31 18:00:13.663584667,(59 29 -3 -3 1 -5 -3 11)
1969-12-31 18:00:13.663584667,(-98 -49 -11 -10 -10 -21 11 -16)
1969-12-31 18:00:13.674199663,(28 14 2 0 2 23 2 -1)
1969-12-31 18:00:13.674199663,(-18 -15 -3 -1 2 -21 19 10)
1969-12-31 18:00:13.682455771,(13 8 6 7 11 43 43 75)
1969-12-31 18:00:13.682455771,(44 14 0 -1 -7 -17 9 31)
1969-12-31 18:00:13.683635215,(9 2 1 0 -5 -11 -5 26)
1969-12-31 18:00:13.683635215,(-10 -3 -4 -3 -5 -6 -5 26)
1969-12-31 18:00:13.709582982,(25 6 2 3 9 20 8 25)
1969-12-31 18:00:13.709582982,(-15 1 -4 -1 -6 -4 -18 -40)
1969-12-31 18:00:13.710762426,(-4 -3 3 4 5 -9 12 3)
1969-12-31 18:00:13.710762426,(4 2 -2 -5 -7 5 -16 -25)
1969-12-31 18:00:13.724915754,(3 12 9 8 7 4 -16 0)
1969-12-31 18:00:13.724915754,(-6 -6 -7 -4 -6 -4 4 -27)
1969-12-31 18:00:13.735530750,(-24 -5 -4 0 2 15 8 22)
1969-12-31 18:00:13.735530750,(-12 -7 -7 -6 -10 -33 11 20)
1969-12-31 18:00:13.753222409,(-2 -1 2 -1 5 -1 -22 -39)
1969-12-31 18:00:13.753222409,(9 -1 -4 -4 -7 -25 -27 -53)
1969-12-31 18:00:13.755581297,(-22 3 8 8 9 26 2 -17)
1969-12-31 18:00:13.755581297,(4 3 -5 -5 -2 16 -9 -17)
1969-12-31 18:00:13.780349621,(-14 -11 0 0 1 21 15 6)
1969-12-31 18:00:13.780349621,(33 17 8 7 8 9 21 66)
1969-12-31 18:00:13.781529065,(21 2 -1 -1 0 6 36 94)
1969-12-31 18:00:13.781529065,(-43 -17 -7 -6 -8 -18 -37 -110)
1969-12-31 18:00:13.795682393,(-7 -2 -5 -8 -7 -15 -9 -28)
1969-12-31 18:00:13.795682393,(20 12 5 4 6 16 8 43)
1969-12-31 18:00:13.813374052,(7 -1 -5 -4 -4 -19 -6 -3)
1969-12-31 18:00:13.813374052,(-32 -20 -8 -1 -1 -4 26 38)
1969-12-31 18:00:13.823989048,(24 21 16 11 8 -13 -3 6)
1969-12-31 18:00:13.823989048,(-25 -10 -9 -8 4 57 -27 -51)
1969-12-31 18:00:13.826347936,(33 14 7 2 -6 -26 13 12)
1969-12-31 18:00:13.826347936,(20 6 -3 -4 -1 -1 -1 -6)
1969-12-31 18:00:13.851116259,(-34 -20 -9 -8 -7 -15 -8 -27)
1969-12-31 18:00:13.851116259,(18 6 -1 0 3 -4 10 31)
1969-12-31 18:00:13.852295703,(-12 -5 -6 -5 -3 -4 -11 -21)
1969-12-31 18:00:13.852295703,(2 1 6 5 2 1 1 4)
1969-12-31 18:00:13.866449031,(19 2 -1 0 -3 9 13 35)
1969-12-31 18:00:13.866449031,(-16 -1 1 0 1 -19 -18 -44)
1969-12-31 18:00:13.877064027,(33 -5 -9 -9 -9 -2 -14 -7)
1969-12-31 18:00:13.877064027,(-20 0 3 4 1 -4 4 5)
1969-12-31 18:00:13.894755687,(-12 -14 -4 -5 -1 5 -4 -18)
1969-12-31 18:00:13.894755687,(-23 -6 -6 -4 -4 -15 5 8)
1969-12-31 18:00:13.897114575,(-21 -16 -12 -10 -4 -9 -12 -39)
1969-12-31 18:00:13.897114575,(41 31 17 13 9 6 -6 16)
1969-12-31 18:00:13.920703454,(0 2 0 1 0 5 -1 -22)
1969-12-31 18:00:13.920703454,(-8 -3 0 1 -3 -13 -8 12)
1969-12-31 18:00:13.923062342,(-12 5 -1 -2 -1 6 -8 -65)
1969-12-31 18:00:13.923062342,(-5 -18 -11 -11 -6 22 12 10)
1969-12-31 18:00:13.937215670,(-28 -17 -10 -9 -13 -51 -10 -13)
1969-12-31 18:00:13.937215670,(64 25 14 8 3 -3 23 36)
1969-12-31 18:00:13.947830666,(-17 -11 -5 -2 0 -2 -13 -45)
1969-12-31 18:00:13.947830666,(32 20 10 11 11 19 27 106)
1969-12-31 18:00:13.964342881,(-58 -21 -9 -8 -8 2 -38 -68)
1969-12-31 18:00:13.964342881,(28 8 7 5 1 -11 5 59)
1969-12-31 18:00:13.974957877,(-5 -9 -4 0 -8 -17 -1 42)
1969-12-31 18:00:13.974957877,(-5 4 9 2 -3 -10 -13 -33)
1969-12-31 18:00:13.991470093,(-17 21 11 7 5 17 -1 -58)
1969-12-31 18:00:13.991470093,(-2 -5 -25 -21 -17 -25 -22 -40)
1969-12-31 18:00:13.993828981,(-50 -60 -22 -15 -6 6 6 -4)
1969-12-31 18:00:13.993828981,(4 8 0 -3 -3 25 -9 -29)
1969-12-31 18:00:14.007982308,(2 -17 -4 -4 -2 -9 15 17)
1969-12-31 18:00:14.007982308,(51 51 35 24 19 11 25 38)
1969-12-31 18:00:14.018597304,(-13 14 5 2 -2 -11 -19 -68)
1969-12-31 18:00:14.018597304,(-12 -37 -16 -10 3 13 -23 -32)
1969-12-31 18:00:14.035109520,(18 12 2 -1 -5 -36 -9 0)
1969-12-31 18:00:14.035109520,(-31 -13 -2 2 -3 -4 -17 -68)
1969-12-31 18:00:14.043365628,(55 32 14 9 5 -7 26 104)
1969-12-31 18:00:14.043365628,(-17 -8 -2 0 -1 -6 3 -16)
1969-12-31 18:00:14.062236731,(18 3 -2 -1 8 57 17 45)
1969-12-31 18:00:14.062236731,(-46 -28 -18 -12 -12 -23 -42 -33)
1969-12-31 18:00:14.070492839,(13 14 10 9 9 29 17 28)
1969-12-31 18:00:14.070492839,(4 4 -6 -4 -10 -24 -5 -7)
1969-12-31 18:00:14.078748947,(-3 -13 -10 -5 -1 18 6 3)
1969-12-31 18:00:14.078748947,(-16 -15 -7 -6 -3 1 12 35)
1969-12-31 18:00:14.089363943,(6 7 3 0 1 4 6 13)
1969-12-31 18:00:14.089363943,(-4 5 4 1 2 -2 7 2)
1969-12-31 18:00:14.105876158,(-1 -3 -2 -3 -5 -16 -1 20)
1969-12-31 18:00:14.105876158,(9 3 5 5 3 11 12 15)
1969-12-31 18:00:14.116491154,(-22 -9 -8 -7 -5 -5 -19 -77)
1969-12-31 18:00:14.116491154,(9 4 -3 -4 -3 -18 0 5)
1969-12-31 18:00:14.133003370,(27 8 7 8 7 12 -12 -10)
1969-12-31 18:00:14.133003370,(15 -16 -11 -8 -7 -3 8 36)
1969-12-31 18:00:14.142438922,(-21 -5 -2 -7 -7 -6 -32 -44)
1969-12-31 18:00:14.142438922,(-5 1 -1 -3 -8 -20 -22 -29)
1969-12-31 18:00:14.160130581,(8 -4 -1 -4 -3 2 4 2)
1969-12-31 18:00:14.160130581,(5 10 8 5 8 10 6 15)
1969-12-31 18:00:14.162489469,(-10 -23 -13 -9 -10 -14 -2 8)
1969-12-31 18:00:14.162489469,(20 6 5 6 5 7 12 23)
1969-12-31 18:00:14.176642797,(2 9 -1 -1 -4 -1 4 10)
1969-12-31 18:00:14.176642797,(-16 -15 -3 1 3 5 -3 -21)
1969-12-31 18:00:14.184898905,(8 9 4 3 7 26 35 37)
1969-12-31 18:00:14.184898905,(-2 3 3 -1 -3 -11 2 3)
1969-12-31 18:00:14.204949452,(-4 -5 -5 -2 -1 2 3 8)
1969-12-31 18:00:14.204949452,(6 7 2 0 -1 2 -13 -20)
1969-12-31 18:00:14.206128896,(3 1 0 3 1 -6 -19 -20)
1969-12-31 18:00:14.206128896,(17 3 1 3 5 6 23 41)
1969-12-31 18:00:14.230897220,(-24 -5 -2 -5 -1 1 -6 -24)
1969-12-31 18:00:14.232076664,(-5 3 1 0 -6 -11 -7 4)
1969-12-31 18:00:14.233256108,(-23 -1 1 0 2 2 7 19)
1969-12-31 18:00:14.233256108,(0 6 2 3 1 -5 6 33)
1969-12-31 18:00:14.247409436,(-1 -10 -7 -3 -3 -4 -8 -18)
1969-12-31 18:00:14.247409436,(-19 -7 -2 -2 1 4 13 0)
1969-12-31 18:00:14.255665543,(17 11 3 2 -4 -25 -9 5)
1969-12-31 18:00:14.255665543,(13 3 0 2 10 39 13 14)
1969-12-31 18:00:14.274536647,(8 9 -1 -1 0 20 15 6)
1969-12-31 18:00:14.274536647,(-19 -27 -6 1 42 38 -5 -6)
1969-12-31 18:00:14.276895535,(29 5 2 2 -18 -33 53 56)
1969-12-31 18:00:14.276895535,(-2 -7 -6 -5 -16 -20 5 33)
1969-12-31 18:00:14.300484414,(8 15 6 -4 -46 -34 -10 25)
1969-12-31 18:00:14.300484414,(42 11 0 -1 1 -12 -4 50)
1969-12-31 18:00:14.311099410,(-14 -1 -1 2 34 23 -17 -17)
1969-12-31 18:00:14.311099410,(15 6 -3 -5 -5 -16 -18 -19)
1969-12-31 18:00:14.318176074,(-24 -12 -3 5 38 46 -4 -8)
1969-12-31 18:00:14.318176074,(-12 -12 -7 -4 5 13 27 31)
1969-12-31 18:00:14.326432181,(0 0 -1 -6 -43 -17 -11 12)
1969-12-31 18:00:14.326432181,(9 4 -3 -7 -23 -24 16 43)
1969-12-31 18:00:14.346482730,(-17 -4 -5 -5 -7 -4 -17 -18)
1969-12-31 18:00:14.346482730,(12 13 6 4 0 -14 -13 -38)
1969-12-31 18:00:14.347662174,(-10 -3 -3 3 35 41 -5 -50)
1969-12-31 18:00:14.347662174,(10 -8 -6 -4 -21 -24 -24 4)
1969-12-31 18:00:14.372430497,(19 10 12 13 22 12 25 62)
1969-12-31 18:00:14.372430497,(-50 -17 -8 -7 -17 -27 -29 -97)
1969-12-31 18:00:14.374789385,(31 15 7 1 4 23 23 14)
1969-12-31 18:00:14.374789385,(-12 -6 -2 -6 2 18 -3 -4)
1969-12-31 18:00:14.388942713,(5 -8 -3 23 97 58 22 24)
1969-12-31 18:00:14.388942713,(-7 -9 -7 -2 -38 -52 7 27)
1969-12-31 18:00:14.397198821,(5 5 -1 -16 -58 -28 -8 7)
1969-12-31 18:00:14.397198821,(-9 1 -4 -21 -47 -31 -13 -40)
1969-12-31 18:00:14.417249368,(31 0 -5 -14 -18 -1 4 52)
1969-12-31 18:00:14.417249368,(7 6 5 8 45 43 -9 -51)
1969-12-31 18:00:14.418428812,(5 -9 -4 1 26 6 -6 2)
1969-12-31 18:00:14.418428812,(-5 2 6 18 64 79 15 -49)
1969-12-31 18:00:14.442017692,(-10 -4 -1 -10 -102 -106 -15 -23)
1969-12-31 18:00:14.442017692,(2 9 3 -4 -16 -20 -9 0)
1969-12-31 18:00:14.452632687,(9 1 0 1 -7 -13 -6 21)
1969-12-31 18:00:14.452632687,(30 14 6 15 42 31 19 50)
1969-12-31 18:00:14.459709351,(4 -24 -26 -14 10 3 -24 -57)
1969-12-31 18:00:14.459709351,(0 -2 -2 12 25 18 8 -21)
1969-12-31 18:00:14.470324347,(-7 -5 0 -13 -43 -26 -21 -1)
1969-12-31 18:00:14.470324347,(-16 12 20 -11 -27 -15 9 6)
1969-12-31 18:00:14.488016007,(-2 8 9 6 9 10 7 4)
1969-12-31 18:00:14.488016007,(-30 -23 -18 -10 -35 -46 -19 -15)
1969-12-31 18:00:14.489195451,(-10 -4 -8 -12 -3 10 -8 -29)
1969-12-31 18:00:14.489195451,(-24 -20 -3 10 13 12 5 -25)
1969-12-31 18:00:14.513963774,(-3 -16 -21 -8 20 7 4 10)
1969-12-31 18:00:14.513963774,(27 13 -8 -1 21 28 -2 -7)
1969-12-31 18:00:14.521040438,(26 20 15 18 17 -19 -14 -62)
1969-12-31 18:00:14.521040438,(-23 19 25 -27 -106 -96 -45 -29)
1969-12-31 18:00:14.530475990,(-34 -22 4 -5 25 16 -13 -35)
1969-12-31 18:00:14.530475990,(31 21 -25 -5 15 20 20 36)
1969-12-31 18:00:14.541090986,(-56 -18 37 12 14 11 -7 -13)
1969-12-31 18:00:14.541090986,(15 -36 -56 -12 29 25 26 40)
1969-12-31 18:00:14.557603201,(54 27 27 22 2 -2 -9 50)
1969-12-31 18:00:14.557603201,(-42 -8 37 16 2 4 -20 -21)
1969-12-31 18:00:14.559962089,(-3 1 -39 -21 -20 -22 0 23)
1969-12-31 18:00:14.559962089,(-8 30 33 12 8 -1 -8 -9)
1969-12-31 18:00:14.584730413,(-6 -34 -30 -11 14 14 9 -26)
1969-12-31 18:00:14.584730413,(-23 -37 -37 -25 -12 10 12 -12)
1969-12-31 18:00:14.585909857,(46 16 39 26 -9 -7 -2 42)
1969-12-31 18:00:14.585909857,(-69 -55 -45 -24 -11 -31 -25 -64)
1969-12-31 18:00:14.601242628,(54 71 8 -4 -2 -1 -14 -24)
1969-12-31 18:00:14.601242628,(-7 -80 -38 7 13 13 39 25)
1969-12-31 18:00:14.611857624,(-19 48 16 -6 -12 9 -17 -26)
1969-12-31 18:00:14.611857624,(48 102 79 43 25 9 5 13)
1969-12-31 18:00:14.628369840,(-71 -70 -13 -15 -36 -34 -23 -55)
1969-12-31 18:00:14.628369840,(14 -11 -55 -18 39 16 3 34)
1969-12-31 18:00:14.637805392,(-31 20 36 10 -18 -9 31 25)
1969-12-31 18:00:14.637805392,(-23 4 -2 -2 -7 0 -17 -46)
1969-12-31 18:00:14.655497051,(-39 -42 -30 -8 12 24 19 -1)
1969-12-31 18:00:14.655497051,(1 -53 -52 -15 0 -7 2 -5)
1969-12-31 18:00:14.656676495,(-113 -66 -37 -41 -48 -58 -22 -60)
1969-12-31 18:00:14.657855939,(38 41 -18 27 21 21 -9 28)
1969-12-31 18:00:14.672009267,(52 77 67 8 -30 -12 18 54)
1969-12-31 18:00:14.672009267,(29 -12 52 11 -16 -16 6 13)
1969-12-31 18:00:14.682624263,(-43 -41 -53 -34 6 -3 -28 -72)
1969-12-31 18:00:14.682624263,(-49 -8 78 32 86 53 0 -32)
1969-12-31 18:00:14.700315922,(17 53 -84 -30 -73 -49 -2 -39)
1969-12-31 18:00:14.700315922,(23 -64 -85 -44 -47 -17 -26 53)
1969-12-31 18:00:14.701495366,(19 91 97 54 45 19 20 35)
1969-12-31 18:00:14.701495366,(47 35 18 18 -14 -8 8 27)
1969-12-31 18:00:14.726263690,(41 4 24 30 54 25 -22 -49)
1969-12-31 18:00:14.726263690,(-20 -13 12 -23 -5 24 -8 -57)
1969-12-31 18:00:14.728622578,(-54 11 11 11 -12 -23 -7 -29)
1969-12-31 18:00:14.728622578,(23 -5 -57 -19 -8 -1 2 56)
1969-12-31 18:00:14.742775906,(-51 -53 -16 16 63 32 17 2)
1969-12-31 18:00:14.742775906,(34 83 29 10 -38 -27 5 17)
1969-12-31 18:00:14.753390901,(14 -85 -25 -37 -30 -20 13 37)
1969-12-31 18:00:14.753390901,(0 24 8 -26 -29 -29 -32 -33)
1969-12-31 18:00:14.772262005,(-2 -67 -57 -26 -12 -7 -4 43)
1969-12-31 18:00:14.772262005,(-33 -14 -19 11 44 28 1 -17)
1969-12-31 18:00:14.773441449,(58 -47 -92 -15 30 25 10 0)
1969-12-31 18:00:14.773441449,(1 69 81 75 1 -10 8 3)
1969-12-31 18:00:14.797030329,(78 -12 -47 4 -20 3 27 87)
1969-12-31 18:00:14.797030329,(-120 26 77 18 26 -1 -25 -106)
1969-12-31 18:00:14.799389217,(66 -43 -47 -18 -16 5 -26 -12)
1969-12-31 18:00:14.799389217,(-10 -79 -51 -53 -35 -36 -4 12)
1969-12-31 18:00:14.813542544,(-27 -17 -7 -6 36 8 -16 -31)
1969-12-31 18:00:14.813542544,(44 -31 -32 -4 -58 -12 57 92)
1969-12-31 18:00:14.824157540,(35 49 9 1 -1 0 -25 12)
1969-12-31 18:00:14.824157540,(-16 -29 -24 0 13 16 -24 -39)
1969-12-31 18:00:14.840669756,(-75 -14 2 8 -4 -2 8 -44)
1969-12-31 18:00:14.840669756,(42 21 24 25 53 9 16 53)
1969-12-31 18:00:14.848925864,(18 -73 -41 -18 -12 16 25 35)
1969-12-31 18:00:14.848925864,(-33 -43 -69 -45 -52 -52 -4 -13)
1969-12-31 18:00:14.868976411,(-24 113 127 42 -51 -10 13 13)
1969-12-31 18:00:14.868976411,(1 15 -2 -16 4 -18 -46 -32)
1969-12-31 18:00:14.871335299,(30 4 -30 10 72 47 21 53)
1969-12-31 18:00:14.871335299,(19 70 78 58 49 37 29 8)
1969-12-31 18:00:14.884309183,(3 -61 -37 -16 -2 -6 8 3)
1969-12-31 18:00:14.884309183,(-66 30 37 1 -51 -30 -15 -59)
1969-12-31 18:00:14.894924179,(19 9 3 19 45 17 -11 30)
1969-12-31 18:00:14.894924179,(-9 -76 -70 -52 -59 -12 33 -7)
1969-12-31 18:00:14.912615838,(0 -41 -54 -34 -1 -17 -41 -9)
1969-12-31 18:00:14.912615838,(37 123 111 82 70 59 43 31)
1969-12-31 18:00:14.913795282,(11 7 10 14 -37 -15 -10 -40)
1969-12-31 18:00:14.913795282,(57 -109 -101 -68 -54 -39 -1 84)
1969-12-31 18:00:14.937384162,(-61 34 47 6 3 -8 -44 -68)
1969-12-31 18:00:14.937384162,(10 -38 -69 -45 -60 -48 -5 -1)
1969-12-31 18:00:14.955075821,(-17 -72 -64 -32 25 24 -20 -15)
1969-12-31 18:00:14.955075821,(34 100 102 87 43 26 36 9)
1969-12-31 18:00:14.965690817,(17 -5 -40 -2 12 26 26 34)
1969-12-31 18:00:14.965690817,(40 -47 -34 0 30 13 27 72)
1969-12-31 18:00:14.966870261,(-26 46 53 -5 -39 -18 -20 -41)
1969-12-31 18:00:14.966870261,(-64 -87 -86 -77 -14 8 -15 -75)
1969-12-31 18:00:14.982203033,(38 42 47 34 25 5 11 30)
1969-12-31 18:00:14.982203033,(16 46 29 57 41 13 -12 -17)
1969-12-31 18:00:14.984561921,(-13 -60 -35 19 48 32 29 52)
1969-12-31 18:00:14.984561921,(0 -9 -6 22 37 -11 1 18)
1969-12-31 18:00:15.009330244,(-36 -12 -11 -2 -25 -7 -28 -42)
1969-12-31 18:00:15.009330244,(7 43 29 21 -6 0 -7 -18)
1969-12-31 18:00:15.011689132,(35 -16 -22 -8 -7 5 23 66)
1969-12-31 18:00:15.011689132,(11 20 -25 -26 -10 -25 -15 -11)
1969-12-31 18:00:15.025842460,(-21 3 55 5 59 29 0 -18)
1969-12-31 18:00:15.025842460,(-1 -114 -89 -66 -81 -44 -14 -49)
1969-12-31 18:00:15.036457456,(-17 127 87 -1 -51 -11 -13 -46)
1969-12-31 18:00:15.036457456,(38 -90 -87 -12 78 74 61 73)
1969-12-31 18:00:15.054149115,(-27 23 46 13 -72 -60 -27 -23)
1969-12-31 18:00:15.054149115,(3 51 7 1 -10 -17 -12 -11)
1969-12-31 18:00:15.055328559,(26 -22 -22 3 55 26 28 16)
1969-12-31 18:00:15.056508003,(32 -58 4 6 -17 -9 -21 -9)
1969-12-31 18:00:15.080096883,(11 70 -7 16 28 8 21 30)
1969-12-31 18:00:15.080096883,(-66 -19 23 -19 -17 -1 -14 -18)
1969-12-31 18:00:15.082455771,(51 24 15 -13 -3 12 20 60)
1969-12-31 18:00:15.082455771,(-47 -39 -12 2 3 1 -17 -36)
1969-12-31 18:00:15.096609099,(48 -7 -14 14 47 33 32 48)
1969-12-31 18:00:15.096609099,(-19 -24 -7 24 -7 -24 -53 -13)
1969-12-31 18:00:15.107224094,(45 23 -15 3 -9 9 40 27)
1969-12-31 18:00:15.107224094,(-34 -22 20 -1 2 32 19 9)
1969-12-31 18:00:15.122556866,(-13 11 -7 -20 -55 -54 -14 -34)
1969-12-31 18:00:15.122556866,(-7 -5 -32 -39 -13 -4 -21 -2)
1969-12-31 18:00:15.133171862,(-38 57 60 43 13 -1 22 -30)
1969-12-31 18:00:15.133171862,(9 10 18 3 10 2 -45 -48)
1969-12-31 18:00:15.150863521,(49 -11 -20 -23 -32 -4 32 46)
1969-12-31 18:00:15.150863521,(-32 20 29 9 27 27 24 0)
1969-12-31 18:00:15.153222409,(-15 -74 -46 -9 22 6 -9 -6)
1969-12-31 18:00:15.153222409,(-15 1 -18 -6 -30 -24 -7 0)
1969-12-31 18:00:15.167375737,(-8 -22 3 9 28 10 -5 13)
1969-12-31 18:00:15.167375737,(-13 -19 -21 -52 -82 -28 -3 -19)
1969-12-31 18:00:15.177990733,(-3 -17 -25 -3 -5 -17 -27 -33)
1969-12-31 18:00:15.177990733,(6 58 26 27 36 28 39 29)
1969-12-31 18:00:15.194502949,(-25 -37 14 -12 13 13 -32 -52)
1969-12-31 18:00:15.194502949,(12 14 19 33 -5 -36 -10 10)
1969-12-31 18:00:15.202759056,(-11 -20 -30 5 10 -2 -22 -19)
1969-12-31 18:00:15.202759056,(71 96 64 29 11 30 24 44)
1969-12-31 18:00:15.221630160,(-9 -82 -62 -22 -25 -8 8 -5)
1969-12-31 18:00:15.221630160,(15 112 85 10 6 27 38 34)
1969-12-31 18:00:15.223989048,(-33 -72 -51 -14 -16 -16 -19 -34)
1969-12-31 18:00:15.223989048,(8 8 2 5 6 -19 -10 -8)
1969-12-31 18:00:15.248757372,(11 -33 -36 -4 9 18 11 42)
1969-12-31 18:00:15.248757372,(83 76 79 29 20 22 20 62)
1969-12-31 18:00:15.251116259,(-83 -89 -40 -33 -25 -36 -36 -77)
1969-12-31 18:00:15.251116259,(-2 5 -6 -12 0 -8 -8 7)
1969-12-31 18:00:15.265269587,(11 7 10 11 -13 2 -18 -9)
1969-12-31 18:00:15.265269587,(22 -79 -87 -22 21 -1 37 18)
1969-12-31 18:00:15.274705139,(-4 127 119 57 66 34 -18 4)
1969-12-31 18:00:15.274705139,(-29 -64 -61 -48 -100 -76 -29 -49)
1969-12-31 18:00:15.301832350,(-14 26 39 -32 -62 -21 -25 -2)
1969-12-31 18:00:15.301832350,(7 -51 -72 -78 -1 6 3 -23)
1969-12-31 18:00:15.303011794,(28 24 11 59 27 10 6 10)
1969-12-31 18:00:15.303011794,(-52 -43 8 53 127 75 14 -12)
1969-12-31 18:00:15.319524010,(2 0 -32 -20 -69 -82 -50 -26)
1969-12-31 18:00:15.319524010,(29 92 89 37 2 27 7 60)
1969-12-31 18:00:15.320703454,(-7 -42 -43 -60 -53 -19 4 8)
1969-12-31 18:00:15.320703454,(42 3 -8 -5 -1 -7 -1 45)
1969-12-31 18:00:15.336036226,(16 -31 -58 -11 39 34 28 25)
1969-12-31 18:00:15.336036226,(-51 -27 -20 -1 12 0 -24 -34)
1969-12-31 18:00:15.352548441,(17 65 57 27 -12 -15 5 11)
1969-12-31 18:00:15.353727885,(29 15 15 8 -18 -4 -2 15)
1969-12-31 18:00:15.372598989,(-76 23 19 11 75 52 34 -10)
1969-12-31 18:00:15.372598989,(-17 -53 -60 -48 -102 -94 -79 -62)
1969-12-31 18:00:15.373778433,(-1 -6 17 12 45 25 -9 -35)
1969-12-31 18:00:15.373778433,(-4 -44 -53 -40 -5 -14 -14 7)
1969-12-31 18:00:15.390290649,(10 57 71 27 -20 -4 20 18)
1969-12-31 18:00:15.390290649,(-4 3 -35 -24 -2 19 25 7)
1969-12-31 18:00:15.391470093,(-21 -84 -27 25 14 -10 -13 16)
1969-12-31 18:00:15.391470093,(-39 63 32 -1 20 2 -17 -74)
1969-12-31 18:00:15.406802864,(81 21 -55 -4 14 31 9 16)
1969-12-31 18:00:15.406802864,(-8 77 110 73 5 -8 12 0)
1969-12-31 18:00:15.416238416,(-8 -21 -44 -55 -66 -26 -9 -20)
1969-12-31 18:00:15.416238416,(-16 11 48 15 0 3 -23 -10)
1969-12-31 18:00:15.432750632,(-1 -43 -57 -19 -8 -9 10 24)
1969-12-31 18:00:15.432750632,(-62 -30 -6 4 73 33 -34 -66)
1969-12-31 18:00:15.443365628,(16 -28 -28 -21 -20 -16 31 48)
1969-12-31 18:00:15.443365628,(31 -2 -21 0 -36 -9 4 54)
1969-12-31 18:00:15.461057287,(37 24 9 -23 -3 -15 -22 -18)
1969-12-31 18:00:15.461057287,(20 -16 11 14 -5 8 16 32)
1969-12-31 18:00:15.462236731,(-13 25 27 22 46 25 2 -21)
1969-12-31 18:00:15.462236731,(-10 -10 -1 -3 -61 -10 28 17)
1969-12-31 18:00:15.477569503,(-1 24 18 -10 -17 -6 -15 -66)
1969-12-31 18:00:15.477569503,(-20 -47 -48 -2 11 -19 5 10)
1969-12-31 18:00:15.494081719,(50 9 -36 -25 -8 -16 -14 33)
1969-12-31 18:00:15.494081719,(-15 25 41 -9 -17 -5 12 -15)
1969-12-31 18:00:15.504696714,(-1 -23 22 24 29 5 8 16)
1969-12-31 18:00:15.504696714,(-9 3 -4 -4 17 16 -12 -27)
1969-12-31 18:00:15.507055602,(-1 34 20 22 22 9 -1 -19)
1969-12-31 18:00:15.507055602,(-5 -32 -59 -38 -63 -20 -18 -1)
1969-12-31 18:00:15.531823926,(-54 -47 6 -5 -15 -11 13 -30)
1969-12-31 18:00:15.531823926,(-15 4 -21 -3 39 27 -35 -53)
1969-12-31 18:00:15.533003370,(-22 27 49 8 -22 -4 24 -3)
1969-12-31 18:00:15.533003370,(-22 -29 -15 0 -1 -36 -20 -9)
1969-12-31 18:00:15.547156698,(55 -2 -20 -3 -7 -1 7 45)
1969-12-31 18:00:15.547156698,(40 -19 -27 -6 -7 3 24 42)
1969-12-31 18:00:15.557771693,(2 -13 -5 -16 -9 15 -17 -12)
1969-12-31 18:00:15.557771693,(48 20 -8 10 31 3 -12 -16)
1969-12-31 18:00:15.575463353,(-53 85 107 35 -8 -19 3 -9)
1969-12-31 18:00:15.575463353,(29 4 1 6 17 14 4 24)
1969-12-31 18:00:15.577822241,(2 -2 -3 -3 -3 13 13 19)
1969-12-31 18:00:15.577822241,(-20 24 34 27 64 35 13 -14)
1969-12-31 18:00:15.601411120,(38 -48 -65 -14 -29 -22 2 26)
1969-12-31 18:00:15.601411120,(-62 -44 -16 -36 -62 -71 -61 -72)
1969-12-31 18:00:15.620282224,(47 27 28 5 17 14 4 14)
1969-12-31 18:00:15.620282224,(-81 -42 -32 -23 -22 -11 -23 -65)
1969-12-31 18:00:15.628538332,(23 -32 -54 -17 62 45 9 19)
1969-12-31 18:00:15.628538332,(63 17 36 32 14 18 65 80)
1969-12-31 18:00:15.629717776,(-14 35 30 48 6 -1 13 16)
1969-12-31 18:00:15.630897220,(-20 -10 -15 -15 -19 -5 0 -28)
1969-12-31 18:00:15.646229992,(-12 59 62 22 19 6 -45 5)
1969-12-31 18:00:15.646229992,(-3 -67 -55 -26 -19 -5 10 -6)
1969-12-31 18:00:15.648588880,(23 73 25 6 38 43 12 22)
1969-12-31 18:00:15.648588880,(8 4 9 2 -59 -52 -19 -10)
1969-12-31 18:00:15.673357203,(-3 -11 13 -13 -50 -27 12 16)
1969-12-31 18:00:15.673357203,(19 0 -35 -31 -19 -14 -8 5)
1969-12-31 18:00:15.674536647,(40 -10 -17 1 18 18 0 15)
1969-12-31 18:00:15.674536647,(14 38 21 28 80 51 12 19)
1969-12-31 18:00:15.688689975,(-98 -91 -52 -25 -42 -14 -13 -89)
1969-12-31 18:00:15.688689975,(53 30 28 14 -19 -34 11 60)
1969-12-31 18:00:15.699304971,(-93 -69 -64 -70 -92 -8 -57 -98)
1969-12-31 18:00:15.699304971,(47 7 3 12 60 13 24 39)
1969-12-31 18:00:15.715817186,(35 37 25 92 84 24 15 33)
1969-12-31 18:00:15.715817186,(-38 -7 -1 14 20 33 19 -18)
1969-12-31 18:00:15.726432182,(-18 1 2 -17 -54 -45 -2 -23)
1969-12-31 18:00:15.726432182,(-1 -10 -6 -23 -32 -17 -24 17)
1969-12-31 18:00:15.751200505,(46 5 -1 -2 25 28 25 23)
1969-12-31 18:00:15.751200505,(-30 -8 2 -3 -13 3 -15 22)
1969-12-31 18:00:15.761815501,(37 4 -2 4 29 -16 4 -1)
1969-12-31 18:00:15.761815501,(-4 -2 -2 -3 -6 6 -17 9)
1969-12-31 18:00:15.762994945,(80 20 -12 -11 -21 -22 28 84)
1969-12-31 18:00:15.762994945,(-35 4 32 16 9 4 -27 -59)
1969-12-31 18:00:15.777148273,(0 -20 -19 -14 3 -11 -9 2)
1969-12-31 18:00:15.777148273,(-20 -9 0 8 16 14 5 -16)
1969-12-31 18:00:15.787763269,(-14 -4 -6 -11 -14 -4 -14 -7)
1969-12-31 18:00:15.787763269,(49 18 -3 -1 8 16 15 29)
1969-12-31 18:00:15.788942713,(-54 -38 -12 -5 5 -13 -18 -63)
1969-12-31 18:00:15.788942713,(37 11 -3 -2 -17 -4 5 -11)
1969-12-31 18:00:15.813711036,(-28 -18 -16 -23 -10 -12 -9 1)
1969-12-31 18:00:15.814890480,(14 16 8 -26 4 19 21 8)
1969-12-31 18:00:15.816069924,(-47 -21 3 22 -11 -36 -20 12)
1969-12-31 18:00:15.816069924,(-12 -19 -5 5 43 41 18 -1)
1969-12-31 18:00:15.830223252,(-18 1 10 44 13 -6 1 6)
1969-12-31 18:00:15.830223252,(17 8 2 17 20 34 18 28)
1969-12-31 18:00:15.840838248,(90 42 13 -10 -23 -40 38 111)
1969-12-31 18:00:15.840838248,(-34 -15 -5 -22 -34 -14 -18 -7)
1969-12-31 18:00:15.858529906,(-36 1 6 -6 9 14 7 -14)
1969-12-31 18:00:15.858529906,(-38 -24 -17 -12 -5 -15 -31 -67)
1969-12-31 18:00:15.860888795,(11 6 -1 2 1 10 8 -2)
1969-12-31 18:00:15.860888795,(19 21 13 5 -5 -7 8 21)
1969-12-31 18:00:15.885657119,(-22 -12 -14 -18 3 4 -11 -65)
1969-12-31 18:00:15.885657119,(23 20 9 15 4 3 13 23)
1969-12-31 18:00:15.886836563,(2 0 9 4 15 19 7 6)
1969-12-31 18:00:15.886836563,(16 9 3 8 1 -6 3 -8)
1969-12-31 18:00:15.910425442,(-5 -1 0 -11 -11 1 -2 1)
1969-12-31 18:00:15.910425442,(-37 -25 -8 -2 -1 -13 -21 -35)
1969-12-31 18:00:15.911604886,(29 -3 -9 1 5 11 10 7)
1969-12-31 18:00:15.911604886,(-23 -15 -12 -13 -16 -16 -13 -16)
1969-12-31 18:00:15.928117102,(24 6 3 -5 -7 -7 -12 5)
1969-12-31 18:00:15.928117102,(29 23 3 4 8 1 -6 5)
1969-12-31 18:00:15.936373210,(21 9 7 5 6 18 17 44)
1969-12-31 18:00:15.937552654,(6 -15 -9 -5 -12 -20 8 -8)
1969-12-31 18:00:15.955244313,(-35 -6 -7 -17 -10 -10 -12 -29)
1969-12-31 18:00:15.955244313,(60 51 23 24 15 11 19 39)
1969-12-31 18:00:15.956423757,(-94 -93 -42 -27 -19 -19 -28 -65)
1969-12-31 18:00:15.956423757,(-32 -15 -2 -1 -1 1 -11 -33)
1969-12-31 18:00:15.981192081,(24 9 8 1 2 4 0 -12)
1969-12-31 18:00:15.981192081,(-71 -16 -11 -10 -8 -7 -1 -29)
1969-12-31 18:00:15.982371525,(-5 24 17 12 10 10 12 17)
1969-12-31 18:00:15.982371525,(-18 -8 -7 -4 -7 -4 -7 6)
1969-12-31 18:00:15.998883741,(18 -19 -6 -4 -1 -3 -1 10)
1969-12-31 18:00:16.000063184,(25 -4 -9 -4 -3 -1 -3 12)
1969-12-31 18:00:16.000063184,(36 41 15 2 7 9 8 11)
1969-12-31 18:00:16.000063184,(-5 23 27 12 9 4 0 0)
1969-12-31 18:00:16.026010952,(-53 -16 1 5 4 3 3 0)
1969-12-31 18:00:16.026010952,(-23 -2 7 10 2 -3 -6 -29)
1969-12-31 18:00:16.027190396,(15 5 7 10 5 5 7 16)
1969-12-31 18:00:16.027190396,(30 9 -1 3 5 5 15 39)
1969-12-31 18:00:16.051958719,(28 15 -2 -8 -5 -3 -5 11)
1969-12-31 18:00:16.053138163,(-10 -22 -9 -6 0 -3 -2 2)
1969-12-31 18:00:16.053138163,(7 5 -6 -8 -3 -3 -3 -7)
1969-12-31 18:00:16.053138163,(-2 -4 -4 -1 -3 3 -2 -7)
1969-12-31 18:00:16.070829823,(-6 -7 -3 -4 -4 3 6 25)
1969-12-31 18:00:16.070829823,(4 -4 -9 -8 -2 -5 -2 10)
1969-12-31 18:00:16.070829823,(-21 -12 -7 -6 -5 -6 -9 -21)
1969-12-31 18:00:16.070829823,(-3 -5 0 3 5 4 5 4)
1969-12-31 18:00:16.096777591,(3 0 0 -1 2 1 -2 2)
1969-12-31 18:00:16.096777591,(18 6 -4 -3 -3 -2 0 4)
1969-12-31 18:00:16.105033698,(-3 8 11 5 -1 -1 -2 -4)
1969-12-31 18:00:16.105033698,(5 -14 -21 -10 -4 -1 0 3)
1969-12-31 18:00:16.122725358,(2 20 18 3 -1 -4 -5 -7)
1969-12-31 18:00:16.122725358,(-19 -37 -11 -6 -2 0 2 12)
1969-12-31 18:00:16.123904802,(2 16 -6 -4 2 -1 0 -16)
1969-12-31 18:00:16.123904802,(-3 -12 -11 -5 -1 6 2 0)
1969-12-31 18:00:16.141596462,(-1 22 17 8 -4 -5 -8 -6)
1969-12-31 18:00:16.141596462,(15 12 -5 -5 -2 -3 -5 4)
1969-12-31 18:00:16.141596462,(-4 -10 11 13 7 5 12 4)
1969-12-31 18:00:16.141596462,(1 1 -15 -3 -3 1 7 2)
1969-12-31 18:00:16.167544229,(9 -35 -41 -16 -5 -4 -16 7)
1969-12-31 18:00:16.167544229,(-15 7 3 -2 -5 -7 -1 -14)
1969-12-31 18:00:16.168723673,(-15 -11 1 -5 -5 -6 -13 -12)
1969-12-31 18:00:16.168723673,(8 15 -5 -7 -2 1 0 3)
1969-12-31 18:00:16.194671441,(1 -4 13 6 6 8 30 20)
1969-12-31 18:00:16.194671441,(-17 -36 -25 -12 -4 -3 -22 -28)
1969-12-31 18:00:16.194671441,(15 36 6 -9 -13 -13 -5 3)
1969-12-31 18:00:16.194671441,(-11 11 39 25 11 4 5 -1)
1969-12-31 18:00:16.212363100,(-4 -67 -66 -24 -12 -8 8 9)
1969-12-31 18:00:16.212363100,(13 92 77 26 13 12 2 3)
1969-12-31 18:00:16.212363100,(-11 -25 -34 -13 -9 -6 -13 -18)
1969-12-31 18:00:16.212363100,(7 43 46 17 7 6 12 1)
1969-12-31 18:00:16.238310868,(-6 -11 5 0 -3 -6 -24 -23)
1969-12-31 18:00:16.238310868,(-13 -53 -45 -20 -8 2 19 8)
1969-12-31 18:00:16.239490312,(-6 -27 -11 -6 -1 -1 -3 4)
1969-12-31 18:00:16.239490312,(4 13 -3 -2 -2 -3 2 4)
1969-12-31 18:00:16.264258635,(7 15 -1 -9 0 3 -1 -4)
1969-12-31 18:00:16.264258635,(2 0 1 5 0 -8 -7 1)
1969-12-31 18:00:16.273694187,(-5 -5 5 11 5 6 0 -5)
1969-12-31 18:00:16.273694187,(3 0 3 -1 -5 -6 -2 0)
1969-12-31 18:00:16.283129739,(8 -29 -29 -14 -3 8 30 15)
1969-12-31 18:00:16.283129739,(-17 30 45 11 0 -6 -53 -33)
1969-12-31 18:00:16.283129739,(5 9 9 -3 -3 -3 -1 -2)
1969-12-31 18:00:16.283129739,(-3 9 -10 4 1 2 -3 -1)
1969-12-31 18:00:16.309077506,(-24 -23 -1 -13 -9 -7 -13 -18)
1969-12-31 18:00:16.309077506,(21 16 10 20 11 13 24 17)
1969-12-31 18:00:16.310256950,(-6 -14 -9 6 -1 2 6 4)
1969-12-31 18:00:16.310256950,(0 -24 -19 -13 -6 -3 -13 -7)
1969-12-31 18:00:16.335025274,(18 46 18 7 3 2 1 4)
1969-12-31 18:00:16.335025274,(13 -36 -31 -18 -8 -5 -2 1)
1969-12-31 18:00:16.336204718,(-15 -4 -15 -14 -3 -1 -6 -9)
1969-12-31 18:00:16.336204718,(4 -41 -34 -17 -7 2 12 4)
1969-12-31 18:00:16.355075820,(17 76 59 21 5 -1 -14 -2)
1969-12-31 18:00:16.355075820,(-5 -20 -22 -12 -6 -4 -10 1)
1969-12-31 18:00:16.356255265,(2 -6 -14 2 4 4 2 -3)
1969-12-31 18:00:16.356255265,(-3 10 22 12 -1 -6 -3 -4)
1969-12-31 18:00:16.379844145,(-10 -42 -49 -28 -7 -6 -5 -8)
1969-12-31 18:00:16.379844145,(5 44 57 34 9 1 14 13)
1969-12-31 18:00:16.381023589,(12 11 8 -2 -3 -9 2 9)
1969-12-31 18:00:16.381023589,(-17 -44 -75 -42 -12 -12 -7 -3)
1969-12-31 18:00:16.405791912,(-3 -6 27 23 8 -5 -4 -7)
1969-12-31 18:00:16.405791912,(-18 -35 -19 -14 -4 -6 8 6)
1969-12-31 18:00:16.415227464,(1 35 31 6 4 -2 0 0)
1969-12-31 18:00:16.415227464,(12 14 20 10 3 -6 -3 1)
1969-12-31 18:00:16.434098568,(0 3 -15 -4 -2 -2 4 3)
1969-12-31 18:00:16.434098568,(-3 -51 -32 -18 -6 -5 1 2)
1969-12-31 18:00:16.435278012,(-11 14 2 6 2 2 2 -3)
1969-12-31 18:00:16.435278012,(0 -7 -7 -3 -1 -4 -8 -5)
1969-12-31 18:00:16.450610783,(-15 -1 12 1 2 4 1 -3)
1969-12-31 18:00:16.450610783,(-11 -32 6 14 4 3 4 -3)
1969-12-31 18:00:16.451790227,(21 42 31 23 12 10 2 0)
1969-12-31 18:00:16.451790227,(-15 -3 0 -6 -5 7 -4 -7)
1969-12-31 18:00:16.476558551,(-9 -38 -8 -5 -6 2 -5 -6)
1969-12-31 18:00:16.476558551,(-6 9 17 10 4 9 2 -6)
1969-12-31 18:00:16.477737995,(-1 -36 -11 -6 -4 3 2 5)
1969-12-31 18:00:16.477737995,(4 24 32 12 3 1 -3 -4)
1969-12-31 18:00:16.494250211,(5 28 32 16 1 -2 1 1)
1969-12-31 18:00:16.494250211,(1 22 -18 -22 -12 -14 -8 -12)
1969-12-31 18:00:16.503685762,(7 35 7 1 2 -5 0 1)
1969-12-31 18:00:16.503685762,(-7 -27 -2 2 1 -3 1 4)
1969-12-31 18:00:16.521377422,(-4 -34 -9 -5 -3 -3 -1 4)
1969-12-31 18:00:16.521377422,(10 42 5 1 2 -3 2 6)
1969-12-31 18:00:16.529633530,(-14 -58 -29 -15 -5 -4 0 1)
1969-12-31 18:00:16.529633530,(-7 3 5 2 1 -3 -2 -3)
1969-12-31 18:00:16.547325190,(9 -5 -6 4 3 -6 1 3)
1969-12-31 18:00:16.547325190,(2 12 -5 0 3 -1 2 6)
1969-12-31 18:00:16.548504634,(-10 -27 -18 -17 -8 -5 0 -2)
1969-12-31 18:00:16.548504634,(-1 -10 18 2 0 -3 -1 -1)
1969-12-31 18:00:16.565016849,(4 28 0 2 0 1 1 -3)
1969-12-31 18:00:16.565016849,(-2 -37 -31 -15 -4 -2 3 3)
1969-12-31 18:00:16.574452401,(12 49 31 18 6 -2 -10 -4)
1969-12-31 18:00:16.574452401,(-15 -32 -21 -16 -8 4 21 19)
1969-12-31 18:00:16.601579612,(9 8 -7 -3 -3 -5 -24 -21)
1969-12-31 18:00:16.601579612,(-7 -6 -4 -6 -3 2 -1 -6)
1969-12-31 18:00:16.602759056,(-7 -27 -21 -6 -1 -1 3 2)
1969-12-31 18:00:16.602759056,(5 9 2 4 2 0 3 6)
1969-12-31 18:00:16.618091828,(-9 -15 -5 -7 -5 0 15 14)
1969-12-31 18:00:16.618091828,(6 13 5 2 0 -4 -13 -16)
1969-12-31 18:00:16.619271272,(8 9 -19 -10 -5 0 -7 -4)
1969-12-31 18:00:16.619271272,(0 -17 2 5 3 2 -2 -1)
1969-12-31 18:00:16.635783488,(-6 6 -1 -5 0 3 3 0)
1969-12-31 18:00:16.635783488,(6 3 3 5 0 2 0 1)
1969-12-31 18:00:16.636962932,(-8 -6 0 0 0 5 5 4)
1969-12-31 18:00:16.636962932,(3 16 -1 3 0 -2 -9 -13)
1969-12-31 18:00:16.662910699,(-2 -3 -13 -11 -5 1 -2 -1)
1969-12-31 18:00:16.662910699,(4 29 13 6 3 2 4 6)
1969-12-31 18:00:16.664090143,(-2 -12 12 6 1 0 -2 -4)
1969-12-31 18:00:16.664090143,(5 18 8 2 -2 -1 -4 -5)
1969-12-31 18:00:16.688858467,(6 13 14 11 3 4 0 -2)
1969-12-31 18:00:16.688858467,(-10 -51 -17 -13 -7 1 3 3)
1969-12-31 18:00:16.690037911,(8 67 48 17 4 4 3 0)
1969-12-31 18:00:16.690037911,(-4 -5 -8 -4 -5 -2 -9 -9)
1969-12-31 18:00:16.690037911,(-11 -21 -25 10 -12 -15 -10 -6)
1969-12-31 18:00:16.690037911,(-1 -8 -43 -32 -7 -8 -15 -5)
1969-12-31 18:00:16.691217355,(16 36 108 79 27 0 13 10)
1969-12-31 18:00:16.691217355,(1 9 -6 -6 0 -16 -23 -6)
1969-12-31 18:00:16.717165122,(-6 -12 -29 -19 -9 21 16 -3)
1969-12-31 18:00:16.717165122,(-16 -41 -92 -89 -28 -15 -10 -8)
1969-12-31 18:00:16.718344566,(-2 6 55 7 -8 12 3 -4)
1969-12-31 18:00:16.718344566,(6 -2 0 50 19 -4 2 5)
1969-12-31 18:00:16.734856782,(8 27 54 37 12 12 13 5)
1969-12-31 18:00:16.734856782,(7 24 10 -7 4 -1 -14 -6)
1969-12-31 18:00:16.743112890,(-11 -27 -55 -27 -14 -3 -4 1)
1969-12-31 18:00:16.743112890,(5 12 57 54 14 9 2 -1)
1969-12-31 18:00:16.760804549,(-6 -23 -98 -62 -12 -9 3 4)
1969-12-31 18:00:16.760804549,(-6 -14 -16 -13 -8 -7 -8 -2)
1969-12-31 18:00:16.770240101,(0 6 16 -12 -6 -14 -11 -4)
1969-12-31 18:00:16.770240101,(-6 -7 -22 -3 -1 0 3 5)
1969-12-31 18:00:16.787931761,(-6 0 38 16 5 -12 0 -7)
1969-12-31 18:00:16.787931761,(8 16 22 65 20 -12 0 4)
1969-12-31 18:00:16.789111205,(-7 -16 -78 -57 -13 -21 -5 -8)
1969-12-31 18:00:16.789111205,(2 12 41 18 1 -6 -1 -3)
1969-12-31 18:00:16.805623420,(-2 6 -3 -21 4 -2 11 2)
1969-12-31 18:00:16.805623420,(-7 -4 49 25 0 1 6 0)
1969-12-31 18:00:16.806802864,(1 5 -15 1 0 6 -3 -2)
1969-12-31 18:00:16.806802864,(-9 -17 -24 -30 -10 13 2 -6)
1969-12-31 18:00:16.831571188,(3 11 25 5 1 10 -10 -7)
1969-12-31 18:00:16.831571188,(2 12 35 22 7 25 2 -3)
1969-12-31 18:00:16.841006739,(-5 -1 -3 13 -1 17 -3 -10)
1969-12-31 18:00:16.841006739,(-4 -12 -26 -24 -16 4 -11 -19)
1969-12-31 18:00:16.858698399,(1 -4 16 13 1 2 1 7)
1969-12-31 18:00:16.858698399,(1 3 -2 15 0 3 7 -7)
1969-12-31 18:00:16.859877843,(5 -7 -26 -18 -6 -10 -2 8)
1969-12-31 18:00:16.859877843,(-5 1 7 -6 -1 -8 0 0)
1969-12-31 18:00:16.876390059,(7 0 14 13 2 -11 -2 6)
1969-12-31 18:00:16.876390059,(-6 -6 -5 3 1 -3 5 1)
1969-12-31 18:00:16.877569503,(-1 -6 -17 -16 -3 -5 2 4)
1969-12-31 18:00:16.877569503,(0 5 3 -1 0 -1 0 1)
1969-12-31 18:00:16.902337826,(-2 4 13 10 3 -1 -6 -6)
1969-12-31 18:00:16.902337826,(1 1 -1 3 -1 3 -1 -2)
1969-12-31 18:00:16.903517270,(-3 -5 -10 -8 -3 3 -1 -5)
1969-12-31 18:00:16.903517270,(-2 0 4 1 0 3 1 -1)
1969-12-31 18:00:16.929465038,(-1 4 7 6 0 2 -10 -13)
1969-12-31 18:00:16.929465038,(4 -2 3 2 -2 3 2 17)
1969-12-31 18:00:16.938900590,(-5 -4 -7 -5 -1 2 -1 -6)
1969-12-31 18:00:16.938900590,(3 0 -3 -2 -4 6 2 6)
1969-12-31 18:00:16.947156698,(-2 3 5 3 1 0 -6 -16)
1969-12-31 18:00:16.947156698,(8 -5 -8 1 1 2 6 19)
1969-12-31 18:00:16.948336142,(0 -7 -12 -5 -2 -5 -1 5)
1969-12-31 18:00:16.948336142,(-3 -2 -7 -6 1 -6 -4 -1)
1969-12-31 18:00:16.983719461,(2 2 -1 -2 -1 -8 -2 0)
1969-12-31 18:00:16.983719461,(-5 -2 -1 -1 1 -5 7 4)
1969-12-31 18:00:16.984898905,(-4 2 -6 -3 4 0 0 3)
1969-12-31 18:00:16.984898905,(15 -5 -7 -9 -3 -13 3 22)
1969-12-31 18:00:17.000231676,(-4 2 1 4 3 -10 -5 -5)
1969-12-31 18:00:17.000231676,(6 -3 -8 -5 1 -5 6 -5)
1969-12-31 18:00:17.001411120,(-8 1 -3 -4 -1 -14 -5 -4)
1969-12-31 18:00:17.001411120,(-18 -1 4 -4 1 -17 -16 -12)
1969-12-31 18:00:17.019102780,(6 -3 2 -4 -1 17 5 7)
1969-12-31 18:00:17.019102780,(1 9 9 4 2 4 1 2)
1969-12-31 18:00:17.020282224,(3 -1 -1 -3 -4 -5 -16 2)
1969-12-31 18:00:17.020282224,(6 3 1 2 -2 23 16 -28)
1969-12-31 18:00:17.043871104,(-1 5 8 4 -2 -7 2 6)
1969-12-31 18:00:17.043871104,(-59 -21 -3 0 1 43 3 -18)
1969-12-31 18:00:17.045050548,(18 -3 -3 -5 -10 -6 -6 -8)
1969-12-31 18:00:17.045050548,(22 13 6 5 0 -7 -18 18)
1969-12-31 18:00:17.070998315,(-26 -11 -5 -3 -3 -2 3 -9)
1969-12-31 18:00:17.070998315,(11 -1 -4 -4 -6 -11 -3 -12)
1969-12-31 18:00:17.079254423,(-11 -1 -1 -1 1 13 -2 -7)
1969-12-31 18:00:17.079254423,(-1 -4 -2 0 0 11 8 14)
1969-12-31 18:00:17.098125527,(10 -2 -2 -1 -2 -1 -9 -4)
1969-12-31 18:00:17.098125527,(-8 0 2 2 2 -7 -9 -11)
1969-12-31 18:00:17.099304971,(10 1 -4 -2 -3 -22 -11 18)
1969-12-31 18:00:17.099304971,(5 7 1 1 -2 13 32 -6)
1969-12-31 18:00:17.114637742,(8 1 1 0 0 -6 -1 17)
1969-12-31 18:00:17.114637742,(-6 -3 0 -1 -2 -14 -12 -15)
1969-12-31 18:00:17.115817186,(5 -4 -4 -1 3 -9 -12 4)
1969-12-31 18:00:17.115817186,(-6 -1 -2 -2 -2 -6 4 -4)
1969-12-31 18:00:17.141764954,(10 15 6 6 5 13 22 8)
1969-12-31 18:00:17.141764954,(-13 -18 -8 -7 -7 -18 -35 -22)
1969-12-31 18:00:17.142944398,(-20 -6 -3 -3 -2 -11 17 -14)
1969-12-31 18:00:17.142944398,(-20 -7 -7 -5 -2 1 -12 -19)
1969-12-31 18:00:17.158277169,(7 -11 -6 -4 -5 1 -6 21)
1969-12-31 18:00:17.158277169,(11 7 4 3 3 -1 14 22)
1969-12-31 18:00:17.168892165,(-9 2 -2 -1 1 14 22 3)
1969-12-31 18:00:17.168892165,(-31 -16 -5 -4 -1 -13 -23 -45)
1969-12-31 18:00:17.185404381,(8 14 9 3 2 8 20 -9)
1969-12-31 18:00:17.185404381,(17 -2 -15 -7 -6 -8 -7 29)
1969-12-31 18:00:17.186583825,(-8 0 5 1 3 9 -2 -2)
1969-12-31 18:00:17.186583825,(9 -1 0 -1 -3 -14 -2 5)
1969-12-31 18:00:17.212531592,(-11 -8 -2 -1 3 15 -1 6)
1969-12-31 18:00:17.212531592,(11 14 6 5 2 -6 4 4)
1969-12-31 18:00:17.213711036,(-3 -4 0 1 1 35 0 -22)
1969-12-31 18:00:17.213711036,(9 -1 -4 -3 -3 -16 10 10)
1969-12-31 18:00:17.229043808,(-14 -12 -5 -2 0 -4 -15 -6)
1969-12-31 18:00:17.229043808,(-4 3 0 -2 -1 -1 12 14)
1969-12-31 18:00:17.238479360,(-9 -9 -2 -1 -1 -3 5 5)
1969-12-31 18:00:17.238479360,(12 10 7 5 3 2 -17 -17)
1969-12-31 18:00:17.256171019,(-12 -12 -11 -9 -8 -11 -11 -23)
1969-12-31 18:00:17.256171019,(26 30 19 15 7 -5 -30 -37)
1969-12-31 18:00:17.265606571,(5 -10 -4 -6 -5 -14 0 15)
1969-12-31 18:00:17.265606571,(2 -3 -2 -1 4 18 -4 24)
1969-12-31 18:00:17.283298231,(-1 -2 1 0 -4 -21 6 -19)
1969-12-31 18:00:17.283298231,(0 -4 -2 -2 -1 2 12 4)
1969-12-31 18:00:17.284477675,(9 10 5 4 6 -2 -23 -9)
1969-12-31 18:00:17.284477675,(3 1 -2 0 0 7 -3 -11)
1969-12-31 18:00:17.299810447,(-33 -14 -9 -9 -13 -26 10 -2)
1969-12-31 18:00:17.299810447,(-9 -12 -7 -7 1 22 6 0)
1969-12-31 18:00:17.309245998,(7 5 3 0 -4 -9 1 -10)
1969-12-31 18:00:17.309245998,(7 -3 -9 -6 -2 1 -2 12)
1969-12-31 18:00:17.326937658,(15 20 12 7 6 -1 2 -4)
1969-12-31 18:00:17.326937658,(-8 -31 -16 -11 -11 -4 -1 -16)
1969-12-31 18:00:17.328117102,(7 6 0 -3 -3 -1 3 7)
1969-12-31 18:00:17.328117102,(-7 -5 3 2 0 -2 4 7)
1969-12-31 18:00:17.354064869,(20 8 0 2 4 15 18 44)
1969-12-31 18:00:17.354064869,(-18 -7 -8 -6 -6 -10 -15 -28)
1969-12-31 18:00:17.355244312,(7 10 3 4 2 3 -10 -27)
1969-12-31 18:00:17.355244312,(1 4 7 5 0 -3 -2 4)
1969-12-31 18:00:17.370577085,(1 2 8 9 4 3 -8 -12)
1969-12-31 18:00:17.370577085,(23 11 4 5 5 8 17 25)
1969-12-31 18:00:17.380012637,(6 -5 -8 -6 -5 -5 14 39)
1969-12-31 18:00:17.380012637,(8 -6 -5 -5 -2 2 9 37)
1969-12-31 18:00:17.400063184,(0 -5 -7 -7 -2 -4 -13 4)
1969-12-31 18:00:17.400063184,(11 7 -3 -5 -5 -13 -4 9)
1969-12-31 18:00:17.400063184,(-11 -3 0 4 3 6 6 -10)
1969-12-31 18:00:17.400063184,(-6 1 5 6 2 7 4 8)
1969-12-31 18:00:17.424831508,(22 1 -3 -1 1 5 1 20)
1969-12-31 18:00:17.424831508,(34 17 10 7 2 -5 -11 -16)
1969-12-31 18:00:17.426010952,(-27 -14 -13 -13 -9 -8 -7 -54)
1969-12-31 18:00:17.426010952,(-4 0 -5 -4 0 3 0 2)
1969-12-31 18:00:17.451958719,(0 -3 0 1 0 -4 -5 -15)
1969-12-31 18:00:17.451958719,(-28 -7 -2 0 7 48 20 17)
1969-12-31 18:00:17.453138163,(16 10 11 9 -3 -58 -11 2)
1969-12-31 18:00:17.453138163,(3 -1 1 2 -4 -4 12 9)
1969-12-31 18:00:17.469650379,(-1 1 1 -1 -1 -12 -12 -9)
1969-12-31 18:00:17.469650379,(16 6 5 4 4 11 15 15)
1969-12-31 18:00:17.469650379,(21 7 6 3 6 22 11 31)
1969-12-31 18:00:17.469650379,(-12 -8 -4 -6 -3 4 -4 -10)
1969-12-31 18:00:17.495598147,(-2 0 -3 -2 -5 -24 -11 -8)
1969-12-31 18:00:17.495598147,(-14 -6 -2 -2 -1 -5 3 3)
1969-12-31 18:00:17.496777591,(9 1 -2 -2 0 12 -9 8)
1969-12-31 18:00:17.496777591,(26 5 3 2 1 -1 19 66)
1969-12-31 18:00:17.523904802,(-4 -6 -3 -1 0 13 -4 -9)
1969-12-31 18:00:17.523904802,(-1 -1 2 2 -3 -18 -21 -28)
1969-12-31 18:00:17.523904802,(-3 5 1 -1 0 14 -4 -10)
1969-12-31 18:00:17.523904802,(21 15 5 5 3 -6 8 38)
1969-12-31 18:00:17.539237574,(-20 -33 -16 -11 -3 13 -18 -36)
1969-12-31 18:00:17.539237574,(-11 -5 -7 -7 -9 -19 29 15)
1969-12-31 18:00:17.540417018,(-15 -8 1 -4 -3 3 13 13)
1969-12-31 18:00:17.540417018,(1 9 2 0 1 2 -5 -8)
1969-12-31 18:00:17.566364785,(-3 7 2 2 0 15 10 17)
1969-12-31 18:00:17.566364785,(-28 -10 4 5 2 -19 -28 -43)
1969-12-31 18:00:17.574620893,(-11 1 -1 0 3 10 9 -25)
1969-12-31 18:00:17.574620893,(6 -8 -7 -5 -9 -33 -40 -79)
1969-12-31 18:00:17.592312553,(-22 2 0 -1 4 47 9 24)
1969-12-31 18:00:17.592312553,(12 2 -3 -4 -11 -46 11 5)
1969-12-31 18:00:17.601748104,(-10 -5 -3 -4 -3 -9 -26 -11)
1969-12-31 18:00:17.601748104,(-28 -11 -5 1 1 24 16 -18)
1969-12-31 18:00:17.610004212,(5 -2 -4 -4 -6 -41 -44 -9)
1969-12-31 18:00:17.610004212,(7 5 -2 -1 1 10 9 16)
1969-12-31 18:00:17.611183656,(-10 -6 -3 0 -1 -2 -11 -18)
1969-12-31 18:00:17.611183656,(8 -7 -3 -5 -4 -7 -5 -1)
1969-12-31 18:00:17.637131424,(32 -3 -5 -4 -2 3 19 56)
1969-12-31 18:00:17.637131424,(5 6 3 2 3 9 -8 4)
1969-12-31 18:00:17.638310868,(-4 2 0 -1 -4 -4 -2 -12)
1969-12-31 18:00:17.638310868,(-1 5 -1 -1 0 7 -4 -5)
1969-12-31 18:00:17.664258635,(-14 -8 -2 -1 -1 0 16 -15)
1969-12-31 18:00:17.664258635,(5 -3 -1 0 -1 -2 -27 12)
1969-12-31 18:00:17.665438079,(14 2 -4 -4 -4 1 14 24)
1969-12-31 18:00:17.665438079,(-16 8 10 5 5 5 -2 -37)
1969-12-31 18:00:17.680770851,(10 -1 -5 -4 -4 -18 -23 -55)
1969-12-31 18:00:17.680770851,(-16 -22 -7 -4 -2 6 8 -12)
1969-12-31 18:00:17.681950295,(-29 -22 -10 -6 -5 -5 1 13)
1969-12-31 18:00:17.681950295,(-19 0 -3 -2 0 32 -8 -19)
1969-12-31 18:00:17.707898062,(8 10 4 2 -8 -54 -1 10)
1969-12-31 18:00:17.707898062,(1 2 1 0 1 13 6 8)
1969-12-31 18:00:17.709077506,(-1 1 -2 -1 1 2 6 -18)
1969-12-31 18:00:17.709077506,(-30 -17 -8 -5 -5 -23 -26 -39)
1969-12-31 18:00:17.733845830,(18 19 10 9 9 18 19 48)
1969-12-31 18:00:17.733845830,(3 5 0 -1 0 9 5 12)
1969-12-31 18:00:17.743281382,(19 2 -1 -3 -5 -11 -5 29)
1969-12-31 18:00:17.743281382,(-34 -12 -2 2 2 -1 -1 -53)
1969-12-31 18:00:17.753896377,(19 2 1 -1 0 6 -1 9)
1969-12-31 18:00:17.753896377,(-11 -1 -3 -3 -3 -9 0 -11)
1969-12-31 18:00:17.755075821,(22 6 3 6 9 58 7 31)
1969-12-31 18:00:17.755075821,(-7 0 0 -4 -3 -14 -19 -29)
1969-12-31 18:00:17.778664701,(23 6 -5 -6 -7 -2 -5 -35)
1969-12-31 18:00:17.778664701,(-41 -5 2 1 0 1 -1 -24)
1969-12-31 18:00:17.779844145,(-39 -13 -3 4 5 22 0 -6)
1969-12-31 18:00:17.779844145,(-8 -27 -15 -16 -16 -38 5 60)
1969-12-31 18:00:17.805791912,(-11 12 9 6 4 8 11 -6)
1969-12-31 18:00:17.805791912,(4 -13 -14 -11 -8 -27 -11 20)
1969-12-31 18:00:17.806971356,(8 9 9 4 -2 -19 12 25)
1969-12-31 18:00:17.806971356,(-20 -2 -5 -2 -2 0 -4 -10)
1969-12-31 18:00:17.822304128,(-25 -7 -4 -3 1 -4 -14 -37)
1969-12-31 18:00:17.822304128,(22 15 12 10 3 6 6 9)
1969-12-31 18:00:17.823483572,(-9 -7 -2 -4 2 20 11 -3)
1969-12-31 18:00:17.823483572,(25 8 4 4 2 -3 8 58)
1969-12-31 18:00:17.850610783,(36 25 12 8 8 16 11 33)
1969-12-31 18:00:17.850610783,(8 2 -1 0 1 8 -1 -15)
1969-12-31 18:00:17.850610783,(-7 -8 -10 -8 -8 -16 -7 -21)
1969-12-31 18:00:17.851790227,(23 -5 -2 -1 2 17 14 40)
1969-12-31 18:00:17.876558551,(-50 -18 0 0 -2 -18 -22 -40)
1969-12-31 18:00:17.876558551,(-6 14 3 0 6 23 -1 -50)
1969-12-31 18:00:17.877737995,(22 16 4 7 16 -18 6 20)
1969-12-31 18:00:17.877737995,(6 3 5 5 -5 50 -11 -12)
1969-12-31 18:00:17.893070767,(-33 -21 -11 -8 -20 -94 -45 -37)
1969-12-31 18:00:17.893070767,(-19 -18 -12 -9 -2 22 17 -21)
1969-12-31 18:00:17.902506318,(-1 -1 -4 -11 -22 -14 -35 -27)
1969-12-31 18:00:17.902506318,(0 3 3 1 12 -17 -2 -18)
1969-12-31 18:00:17.922556866,(28 13 5 2 4 47 23 47)
1969-12-31 18:00:17.922556866,(-44 -20 -10 -3 27 -2 -16 -72)
1969-12-31 18:00:17.923736310,(3 -2 3 7 -6 -9 10 18)
1969-12-31 18:00:17.923736310,(-6 7 2 -5 -59 -100 -37 -55)
1969-12-31 18:00:17.947325190,(-18 -9 -8 -7 -7 6 -26 -39)
1969-12-31 18:00:17.947325190,(17 14 2 -1 -6 -11 -3 11)
1969-12-31 18:00:17.948504634,(2 -13 2 9 48 58 29 28)
1969-12-31 18:00:17.948504634,(-4 0 1 10 15 -23 3 6)
1969-12-31 18:00:17.965016849,(18 7 1 -13 -35 -14 1 14)
1969-12-31 18:00:17.965016849,(-13 9 8 5 5 27 25 -10)
1969-12-31 18:00:17.973272957,(42 4 -6 -6 16 15 -15 49)
1969-12-31 18:00:17.973272957,(-1 -4 -1 -1 -1 19 30 14)
1969-12-31 18:00:17.993323505,(-7 -4 -1 -2 -36 -87 -73 -56)
1969-12-31 18:00:17.993323505,(31 9 6 4 5 39 25 81)
1969-12-31 18:00:17.993323505,(-15 0 -1 -2 -19 -71 -14 -41)
1969-12-31 18:00:17.993323505,(20 -3 -7 -5 23 84 36 37)
1969-12-31 18:00:18.018091828,(-16 -2 3 5 24 50 46 39)
1969-12-31 18:00:18.018091828,(19 0 0 -2 -27 -54 2 26)
1969-12-31 18:00:18.019271272,(-8 -1 -5 -4 2 -13 1 -19)
1969-12-31 18:00:18.019271272,(-11 -9 -3 2 23 51 -12 -16)
1969-12-31 18:00:18.034604044,(22 5 -1 7 16 19 27 24)
1969-12-31 18:00:18.034604044,(8 12 7 16 22 21 5 26)
1969-12-31 18:00:18.044039596,(7 4 0 -9 -33 -19 -12 -21)
1969-12-31 18:00:18.044039596,(-33 -13 -14 -25 -45 -39 -5 -26)
1969-12-31 18:00:18.061731255,(16 1 2 -8 -16 8 -4 11)
1969-12-31 18:00:18.061731255,(-7 -2 -3 1 27 12 -8 17)
1969-12-31 18:00:18.069987363,(3 6 5 7 -15 -14 7 3)
1969-12-31 18:00:18.069987363,(50 12 6 8 21 16 11 75)
1969-12-31 18:00:18.088858467,(-10 1 -4 1 12 -3 8 39)
1969-12-31 18:00:18.088858467,(-30 -27 -9 -5 -9 -11 -28 -53)
1969-12-31 18:00:18.090037911,(10 6 2 4 21 34 2 26)
1969-12-31 18:00:18.090037911,(-10 3 4 12 59 29 21 -10)
1969-12-31 18:00:18.106550126,(9 13 -5 4 -8 -19 -12 5)
1969-12-31 18:00:18.106550126,(28 12 5 -18 -85 -54 -10 22)
1969-12-31 18:00:18.106550126,(-36 -16 4 -9 -22 5 19 -13)
1969-12-31 18:00:18.106550126,(-16 -18 -14 -4 -9 -14 -25 -18)
1969-12-31 18:00:18.133677338,(-4 -3 -20 -21 22 26 -15 -30)
1969-12-31 18:00:18.133677338,(-10 7 33 15 -9 -22 -3 9)
1969-12-31 18:00:18.133677338,(-13 0 -1 -6 9 3 -8 -9)
1969-12-31 18:00:18.134856782,(-40 -17 -3 18 25 10 -8 -49)
1969-12-31 18:00:18.159625105,(-12 0 20 -9 1 15 30 9)
1969-12-31 18:00:18.159625105,(27 -22 -57 -23 16 12 -20 15)
1969-12-31 18:00:18.160804549,(-8 -6 21 27 -4 -3 11 27)
1969-12-31 18:00:18.160804549,(-7 48 62 30 -6 -9 24 51)
1969-12-31 18:00:18.176137321,(-31 -59 -28 11 -20 -14 21 22)
1969-12-31 18:00:18.176137321,(39 77 46 -3 -17 -42 -7 17)
1969-12-31 18:00:18.185572873,(-64 -60 -75 -19 81 60 -4 -74)
1969-12-31 18:00:18.185572873,(45 8 -28 -55 -109 -89 -20 20)
1969-12-31 18:00:18.204443976,(-49 15 80 31 22 15 -2 -18)
1969-12-31 18:00:18.204443976,(-49 -68 -32 -8 8 7 10 7)
1969-12-31 18:00:18.204443976,(61 42 4 2 10 33 56 108)
1969-12-31 18:00:18.204443976,(7 -16 -23 -10 32 -12 -2 -23)
1969-12-31 18:00:18.229212300,(5 -22 -47 -33 -87 -35 -33 1)
1969-12-31 18:00:18.229212300,(0 -39 -22 -6 15 20 -8 -57)
1969-12-31 18:00:18.238647852,(-13 33 25 6 8 -20 -34 -60)
1969-12-31 18:00:18.238647852,(-45 -36 7 7 31 39 18 -11)
1969-12-31 18:00:18.248083404,(63 50 27 28 78 58 46 67)
1969-12-31 18:00:18.248083404,(9 34 33 30 -61 -42 2 39)
1969-12-31 18:00:18.256339511,(7 -10 -20 -29 -70 -45 -35 -26)
1969-12-31 18:00:18.256339511,(-8 -64 -80 -26 54 52 15 4)
1969-12-31 18:00:18.274031171,(52 29 7 11 23 4 8 23)
1969-12-31 18:00:18.274031171,(-63 82 74 10 -23 4 4 -8)
1969-12-31 18:00:18.275210615,(18 32 16 6 18 -7 -17 -53)
1969-12-31 18:00:18.275210615,(9 -25 6 12 32 57 6 25)
1969-12-31 18:00:18.301158382,(-7 -26 27 18 -5 -24 13 28)
1969-12-31 18:00:18.301158382,(-6 -20 -42 -14 -2 -5 10 -9)
1969-12-31 18:00:18.302337826,(-18 58 56 7 -37 -16 0 -35)
1969-12-31 18:00:18.302337826,(-31 -53 -58 -39 -34 -39 -33 -28)
1969-12-31 18:00:18.317670598,(-49 0 -8 -3 26 32 11 -30)
1969-12-31 18:00:18.317670598,(2 41 49 12 -8 -14 -14 26)
1969-12-31 18:00:18.327106150,(2 -7 0 5 10 -8 -14 -17)
1969-12-31 18:00:18.327106150,(61 39 52 54 97 95 63 43)
1969-12-31 18:00:18.343618366,(-51 -34 -81 -31 -45 -64 -50 -128)
1969-12-31 18:00:18.343618366,(-14 -108 -13 -42 -77 -46 -21 -31)
1969-12-31 18:00:18.354233360,(25 11 -57 -23 14 0 17 62)
1969-12-31 18:00:18.354233360,(21 9 43 2 -63 -41 -22 -49)
1969-12-31 18:00:18.371925021,(7 69 33 22 72 39 14 0)
1969-12-31 18:00:18.371925021,(30 24 7 24 40 37 31 18)
1969-12-31 18:00:18.374283909,(48 -25 -33 -4 -24 8 -6 80)
1969-12-31 18:00:18.374283909,(-19 11 21 -10 -42 -55 -27 -52)
1969-12-31 18:00:18.388437237,(50 -39 -24 -4 53 74 48 29)
1969-12-31 18:00:18.388437237,(-18 14 0 7 -11 -28 -4 17)
1969-12-31 18:00:18.399052233,(-21 -57 -21 -17 23 15 -29 4)
1969-12-31 18:00:18.399052233,(61 5 -50 -24 -67 -57 -3 60)
1969-12-31 18:00:18.415564448,(-105 -25 22 -11 6 18 -25 -49)
1969-12-31 18:00:18.415564448,(28 48 26 19 7 -1 5 0)
1969-12-31 18:00:18.423820556,(-7 3 7 13 20 27 25 16)
1969-12-31 18:00:18.423820556,(26 -48 -33 -16 -19 -19 -34 -20)
1969-12-31 18:00:18.442691660,(-9 73 28 3 -4 -4 13 48)
1969-12-31 18:00:18.442691660,(3 60 44 9 -2 3 -21 -4)
1969-12-31 18:00:18.445050548,(-57 -64 -28 12 32 22 4 -32)
1969-12-31 18:00:18.445050548,(-44 -6 -42 -16 11 11 -31 -48)
1969-12-31 18:00:18.459203875,(41 -84 -64 -34 -48 -22 14 27)
1969-12-31 18:00:18.459203875,(8 -28 -34 -3 68 35 15 -10)
1969-12-31 18:00:18.469818871,(4 18 15 -24 -77 -68 -45 -40)
1969-12-31 18:00:18.469818871,(-13 -11 -3 1 -2 6 18 24)
1969-12-31 18:00:18.486331087,(23 -88 -67 -10 38 47 16 39)
1969-12-31 18:00:18.486331087,(-4 38 23 -5 -34 -15 24 17)
1969-12-31 18:00:18.494587195,(-24 41 72 31 23 -14 -17 -50)
1969-12-31 18:00:18.494587195,(12 76 44 10 1 1 12 38)
1969-12-31 18:00:18.513458298,(5 86 67 42 6 -5 -15 -20)
1969-12-31 18:00:18.513458298,(24 -79 -74 -22 19 27 -4 -10)
1969-12-31 18:00:18.515817186,(14 -64 -33 -17 0 6 13 1)
1969-12-31 18:00:18.515817186,(9 -6 10 13 32 -5 11 23)
1969-12-31 18:00:18.541764954,(-30 23 4 -28 -82 -60 -37 -30)
1969-12-31 18:00:18.541764954,(11 -51 -52 -10 81 45 -12 -14)
1969-12-31 18:00:18.544123842,(38 30 -33 -15 -76 -56 1 19)
1969-12-31 18:00:18.544123842,(28 117 123 58 81 34 31 62)
1969-12-31 18:00:18.557097725,(-23 -56 -27 -4 -64 -45 -25 -46)
1969-12-31 18:00:18.557097725,(-70 -48 -54 -26 -9 18 5 -46)
1969-12-31 18:00:18.566533277,(-36 -47 -7 -9 3 2 -32 3)
1969-12-31 18:00:18.566533277,(28 -4 -25 4 76 68 32 21)
1969-12-31 18:00:18.584224937,(22 -62 -75 -30 -21 -15 -16 -10)
1969-12-31 18:00:18.584224937,(43 84 76 17 -55 -56 -7 45)
1969-12-31 18:00:18.586583825,(-45 2 13 8 -18 -17 0 -24)
1969-12-31 18:00:18.586583825,(9 47 -1 1 -25 -17 -20 -51)
1969-12-31 18:00:18.611352148,(14 23 27 25 58 50 22 46)
1969-12-31 18:00:18.611352148,(-46 -37 -6 1 30 22 9 -11)
1969-12-31 18:00:18.612531592,(9 47 37 18 -9 -8 1 -50)
1969-12-31 18:00:18.612531592,(-11 -76 -40 -9 -27 8 17 16)
1969-12-31 18:00:18.627864364,(-2 -5 -39 -25 -4 -19 -21 -31)
1969-12-31 18:00:18.627864364,(27 -57 -50 -28 18 15 4 7)
1969-12-31 18:00:18.636120472,(29 61 18 15 47 7 -10 -13)
1969-12-31 18:00:18.636120472,(-32 -10 8 1 -79 -41 -22 -18)
1969-12-31 18:00:18.654991575,(-1 73 77 19 38 15 33 11)
1969-12-31 18:00:18.654991575,(28 -4 -26 6 -30 10 -12 32)
1969-12-31 18:00:18.657350463,(0 -36 -64 -35 49 35 28 16)
1969-12-31 18:00:18.657350463,(9 70 64 24 -51 -42 -14 10)
1969-12-31 18:00:18.682118787,(-59 21 18 -8 5 9 2 -62)
1969-12-31 18:00:18.682118787,(14 -12 -21 -1 12 -22 -17 -1)
1969-12-31 18:00:18.683298231,(2 -24 51 33 13 26 24 31)
1969-12-31 18:00:18.683298231,(5 -35 -48 -16 26 15 -12 2)
1969-12-31 18:00:18.698631003,(-2 -50 -36 -17 -10 -19 -2 21)
1969-12-31 18:00:18.698631003,(12 99 37 41 70 53 34 42)
1969-12-31 18:00:18.706887110,(-19 -8 8 -19 -54 -27 2 -12)
1969-12-31 18:00:18.706887110,(-3 -21 -21 -6 -36 -21 7 0)
1969-12-31 18:00:18.724578770,(-4 32 42 -13 -62 -36 -19 -11)
1969-12-31 18:00:18.724578770,(-25 -73 -55 -10 51 30 -5 -26)
1969-12-31 18:00:18.735193766,(43 -4 -14 -1 -29 3 11 48)
1969-12-31 18:00:18.735193766,(-8 -27 -32 -5 82 11 10 18)
1969-12-31 18:00:18.752885425,(37 61 48 36 13 -13 -15 28)
1969-12-31 18:00:18.752885425,(-18 -68 -52 -59 -98 -59 -49 -67)
1969-12-31 18:00:18.754064869,(5 82 73 36 43 30 23 26)
1969-12-31 18:00:18.754064869,(-11 -38 -29 -4 12 20 -4 -58)
1969-12-31 18:00:18.769397641,(21 -79 -104 -24 10 23 -3 3)
1969-12-31 18:00:18.769397641,(-14 92 105 1 -41 -84 -63 -12)
1969-12-31 18:00:18.777653749,(28 -4 -1 -1 -4 5 -1 16)
1969-12-31 18:00:18.777653749,(-66 -11 -23 -17 -6 -2 3 -31)
1969-12-31 18:00:18.796524853,(53 32 48 39 37 26 29 24)
1969-12-31 18:00:18.796524853,(9 21 18 23 29 26 12 8)
1969-12-31 18:00:18.798883741,(-19 -37 -62 -12 -28 -16 -9 -28)
1969-12-31 18:00:18.798883741,(-41 50 97 -11 -45 -43 -25 -5)
1969-12-31 18:00:18.822472620,(-20 -56 -7 -4 24 2 -12 15)
1969-12-31 18:00:18.823652064,(42 -37 -69 -10 17 34 30 22)
1969-12-31 18:00:18.824831508,(15 11 -15 4 0 -12 17 36)
1969-12-31 18:00:18.824831508,(-24 30 31 -16 -66 -56 -41 -60)
1969-12-31 18:00:18.840164280,(-9 11 2 5 -13 -60 -36 -23)
1969-12-31 18:00:18.840164280,(-19 -48 -19 2 52 48 23 9)
1969-12-31 18:00:18.848420388,(19 -99 -108 -45 -31 -1 20 40)
1969-12-31 18:00:18.848420388,(-15 32 46 21 -7 16 -20 -25)
1969-12-31 18:00:18.867291491,(-9 76 -3 -5 33 10 3 -22)
1969-12-31 18:00:18.867291491,(-14 21 66 24 -16 -14 10 -1)
1969-12-31 18:00:18.869650379,(-15 35 14 -2 -37 -31 -17 -29)
1969-12-31 18:00:18.869650379,(9 -89 -69 -26 -3 19 15 14)
1969-12-31 18:00:18.893239259,(28 34 21 15 13 13 1 1)
1969-12-31 18:00:18.893239259,(-42 21 27 23 21 4 -4 -32)
1969-12-31 18:00:18.902674810,(-52 -84 -33 -21 22 19 -10 -43)
1969-12-31 18:00:18.902674810,(54 17 -12 5 -2 -26 -6 32)
1969-12-31 18:00:18.909751474,(18 37 32 26 32 52 29 6)
1969-12-31 18:00:18.909751474,(50 -1 -33 -18 -68 -66 -18 23)
1969-12-31 18:00:18.920366470,(-82 17 68 -13 -21 -19 -25 -20)
1969-12-31 18:00:18.920366470,(29 -1 -35 12 49 44 28 12)
1969-12-31 18:00:18.938058130,(-67 -83 -39 -28 -75 -42 -34 -95)
1969-12-31 18:00:18.938058130,(1 27 10 0 58 57 8 13)
1969-12-31 18:00:18.940417018,(70 -13 -44 -20 -72 -46 21 35)
1969-12-31 18:00:18.940417018,(3 72 70 37 26 15 -31 -11)
1969-12-31 18:00:18.965185341,(-9 0 0 -22 -54 -16 11 28)
1969-12-31 18:00:18.965185341,(13 -55 -14 8 20 3 10 26)
1969-12-31 18:00:18.966364785,(-1 31 1 11 32 2 -28 -38)
1969-12-31 18:00:18.966364785,(39 -13 -6 0 53 47 59 87)
1969-12-31 18:00:18.980518113,(-12 -95 -95 -33 -15 -11 -15 -38)
1969-12-31 18:00:18.980518113,(-21 77 40 21 74 59 -7 -22)
1969-12-31 18:00:18.991133109,(1 -45 2 2 -45 -51 -17 7)
1969-12-31 18:00:18.991133109,(-1 64 9 0 -21 -12 18 9)
1969-12-31 18:00:19.008824768,(10 -19 20 19 45 31 14 11)
1969-12-31 18:00:19.008824768,(-1 39 41 15 -65 -45 5 12)
1969-12-31 18:00:19.011183656,(5 1 7 -4 33 31 -1 -6)
1969-12-31 18:00:19.011183656,(50 -27 -66 -2 48 14 -11 32)
1969-12-31 18:00:19.034772536,(-8 47 29 -25 -105 -56 -2 5)
1969-12-31 18:00:19.034772536,(-42 -84 -39 -7 52 35 11 -14)
1969-12-31 18:00:19.044208088,(22 -5 -4 -11 -51 -42 1 7)
1969-12-31 18:00:19.044208088,(-26 43 52 10 20 22 4 -17)
1969-12-31 18:00:19.051284751,(36 -8 -17 8 7 -2 7 50)
1969-12-31 18:00:19.051284751,(26 -49 -33 -16 0 -7 -2 2)
1969-12-31 18:00:19.061899747,(15 0 -37 6 27 46 33 36)
1969-12-31 18:00:19.061899747,(-102 39 59 6 -61 -57 -52 -92)
1969-12-31 18:00:19.079591407,(20 31 26 20 34 2 3 6)
1969-12-31 18:00:19.079591407,(-13 -54 -44 -22 -34 -7 4 -1)
1969-12-31 18:00:19.081950295,(90 -1 -46 10 86 49 13 48)
1969-12-31 18:00:19.081950295,(-36 -64 -41 -58 -71 -25 -3 -55)
1969-12-31 18:00:19.106718618,(-32 69 81 29 25 8 -37 -36)
1969-12-31 18:00:19.106718618,(37 1 -40 -2 -4 1 10 29)
1969-12-31 18:00:19.107898062,(4 -22 6 15 53 43 14 0)
1969-12-31 18:00:19.107898062,(21 -29 -34 -31 -94 -82 -20 35)
1969-12-31 18:00:19.122051390,(9 -20 -24 -19 -3 23 14 17)
1969-12-31 18:00:19.122051390,(-12 -36 -17 -19 -2 -2 -18 -35)
1969-12-31 18:00:19.132666386,(18 78 29 36 72 44 17 10)
1969-12-31 18:00:19.132666386,(-7 51 70 35 36 16 10 24)
1969-12-31 18:00:19.150358045,(5 -20 -13 2 -35 -18 -12 -4)
1969-12-31 18:00:19.150358045,(-7 14 3 -3 2 -6 -7 -14)
1969-12-31 18:00:19.152716933,(-41 -69 -24 -25 -33 -15 -11 -22)
1969-12-31 18:00:19.152716933,(50 -54 -95 -21 -12 -5 -6 20)
1969-12-31 18:00:19.177485257,(2 80 79 46 59 35 28 22)
1969-12-31 18:00:19.177485257,(-8 -1 7 26 12 9 7 20)
1969-12-31 18:00:19.178664701,(8 38 22 -9 -26 -16 -8 -10)
1969-12-31 18:00:19.178664701,(-50 -58 -42 -33 8 36 7 -54)
1969-12-31 18:00:19.192818029,(5 -51 -44 -20 -59 -81 -35 -1)
1969-12-31 18:00:19.192818029,(7 26 7 -7 -15 0 18 1)
1969-12-31 18:00:19.210509688,(-3 -5 -7 7 37 19 9 17)
1969-12-31 18:00:19.210509688,(-19 8 19 27 34 39 25 11)
1969-12-31 18:00:19.219945240,(22 97 95 45 33 29 8 35)
1969-12-31 18:00:19.219945240,(-45 -5 16 -16 -50 -40 -40 -62)
1969-12-31 18:00:19.230560236,(-38 -20 -11 -3 -7 -11 -4 -14)
1969-12-31 18:00:19.230560236,(6 -40 -38 -7 14 3 -3 -11)
1969-12-31 18:00:19.247072452,(17 -112 -124 -52 3 17 12 20)
1969-12-31 18:00:19.247072452,(10 92 83 31 -8 -20 -4 -1)
1969-12-31 18:00:19.249431340,(-12 37 22 11 8 20 -4 -4)
1969-12-31 18:00:19.249431340,(13 -5 24 23 16 6 17 14)
1969-12-31 18:00:19.274199663,(-11 7 0 3 30 -7 -10 -15)
1969-12-31 18:00:19.274199663,(34 -21 -29 -5 -8 15 13 19)
1969-12-31 18:00:19.276558551,(-14 1 -7 -44 -102 -77 -41 -29)
1969-12-31 18:00:19.276558551,(29 6 23 17 34 20 24 82)
1969-12-31 18:00:19.291891323,(15 -30 -44 -2 55 34 4 -3)
1969-12-31 18:00:19.291891323,(9 19 2 -17 -19 12 29 -2)
1969-12-31 18:00:19.294250211,(1 6 37 20 -4 -41 -80 -35)
1969-12-31 18:00:19.294250211,(25 -16 -32 -15 -20 -28 1 1)
1969-12-31 18:00:19.317839090,(6 -47 -56 -27 -12 9 5 -33)
1969-12-31 18:00:19.319018534,(7 76 57 47 68 15 -5 -2)
1969-12-31 18:00:19.320197978,(-41 -45 -10 -4 -40 4 40 18)
1969-12-31 18:00:19.320197978,(13 17 27 15 -5 -11 -17 16)
1969-12-31 18:00:19.334351306,(-11 -66 -80 -28 -7 0 -17 -30)
1969-12-31 18:00:19.334351306,(-31 -7 13 -10 -24 -14 -11 -12)
1969-12-31 18:00:19.344966302,(-25 55 45 18 38 18 17 -23)
1969-12-31 18:00:19.344966302,(13 -6 -34 -16 -41 -20 -12 2)
1969-12-31 18:00:19.361478517,(16 5 8 13 58 43 30 38)
1969-12-31 18:00:19.361478517,(-29 -32 -27 -7 -77 -40 -5 -12)
1969-12-31 18:00:19.372093513,(-4 -12 14 -3 81 34 29 7)
1969-12-31 18:00:19.372093513,(-34 -16 -23 -29 -35 -31 -33 -39)
1969-12-31 18:00:19.388605729,(17 16 10 -2 -42 -28 -11 1)
1969-12-31 18:00:19.388605729,(-46 -76 -58 -4 40 24 7 -46)
1969-12-31 18:00:19.390964617,(-63 -8 23 9 -8 -5 -23 -32)
1969-12-31 18:00:19.390964617,(28 56 7 18 27 24 34 29)
1969-12-31 18:00:19.405117944,(-63 -32 -7 -21 -35 -17 6 -54)
1969-12-31 18:00:19.405117944,(22 27 12 1 0 -15 -22 -2)
1969-12-31 18:00:19.415732940,(7 -44 -55 -19 -17 2 12 4)
1969-12-31 18:00:19.415732940,(5 11 16 11 45 31 -2 -2)
1969-12-31 18:00:19.433424600,(-10 43 49 15 -29 -24 7 40)
1969-12-31 18:00:19.433424600,(49 -18 -60 -33 -13 3 21 40)
1969-12-31 18:00:19.435783488,(-24 42 71 33 25 2 -11 -30)
1969-12-31 18:00:19.435783488,(35 11 -7 26 65 22 9 9)
1969-12-31 18:00:19.460551811,(8 28 30 -4 -36 0 -18 9)
1969-12-31 18:00:19.460551811,(-18 -73 -59 -32 -27 -15 6 1)
1969-12-31 18:00:19.461731255,(80 79 23 25 38 20 5 51)
1969-12-31 18:00:19.461731255,(-75 -33 27 8 21 -16 -17 -37)
1969-12-31 18:00:19.475884583,(-32 -8 10 7 -10 3 1 -11)
1969-12-31 18:00:19.475884583,(15 -11 -51 -24 1 -8 -26 -16)
1969-12-31 18:00:19.486499579,(5 17 32 7 -9 -5 6 18)
1969-12-31 18:00:19.486499579,(21 27 6 -3 -11 -5 16 4)
1969-12-31 18:00:19.504191238,(-12 -27 -30 -3 25 15 -33 -47)
1969-12-31 18:00:19.504191238,(45 27 33 15 -3 -4 10 19)
1969-12-31 18:00:19.506550126,(-48 -59 -45 -24 -29 -19 -24 -82)
1969-12-31 18:00:19.506550126,(-19 -33 -48 -26 -29 -15 -11 -21)
1969-12-31 18:00:19.528959562,(74 14 43 15 11 8 26 83)
1969-12-31 18:00:19.528959562,(-44 102 93 38 36 20 -18 -37)
1969-12-31 18:00:19.539574558,(10 -29 -28 -6 10 9 11 4)
1969-12-31 18:00:19.539574558,(5 -51 -44 -29 -53 -24 -14 0)
1969-12-31 18:00:19.546651222,(-13 -9 -26 -7 7 -1 3 4)
1969-12-31 18:00:19.546651222,(53 56 54 37 69 47 25 56)
1969-12-31 18:00:19.557266217,(-1 -11 -11 -6 -59 -41 -1 7)
1969-12-31 18:00:19.557266217,(-20 -17 -10 -17 -34 -21 -41 -14)
1969-12-31 18:00:19.574957877,(5 -14 -6 -8 -2 -2 22 9)
1969-12-31 18:00:19.574957877,(-1 -30 -23 -42 -58 -14 5 12)
1969-12-31 18:00:19.577316765,(-42 -3 -8 -3 49 10 -8 -28)
1969-12-31 18:00:19.577316765,(30 24 13 45 20 15 18 5)
1969-12-31 18:00:19.602085088,(-28 -30 -3 4 -7 -15 -12 -8)
1969-12-31 18:00:19.602085088,(-27 -17 -10 -20 8 9 -1 -11)
1969-12-31 18:00:19.603264532,(40 19 2 11 -6 -9 -5 24)
1969-12-31 18:00:19.603264532,(-7 16 18 19 17 16 8 -21)
1969-12-31 18:00:19.617417860,(-22 5 6 11 6 -3 -4 -12)
1969-12-31 18:00:19.617417860,(-23 -14 -16 -12 -21 -19 -14 -17)
1969-12-31 18:00:19.628032856,(-25 -51 -27 -19 -14 7 4 10)
1969-12-31 18:00:19.628032856,(39 35 22 2 13 2 3 10)
1969-12-31 18:00:19.644545072,(15 20 6 -6 -2 2 -4 -9)
1969-12-31 18:00:19.644545072,(17 -8 -5 4 -6 -7 -5 9)
1969-12-31 18:00:19.652801179,(24 27 12 4 2 0 -4 5)
1969-12-31 18:00:19.652801179,(-3 19 18 0 -7 -4 0 -3)
1969-12-31 18:00:19.671672283,(-3 -42 -25 -18 -1 2 -4 -6)
1969-12-31 18:00:19.671672283,(2 -13 -9 6 10 -3 7 23)
1969-12-31 18:00:19.681107835,(-4 2 1 2 -14 12 -5 -13)
1969-12-31 18:00:19.681107835,(-6 1 1 -14 0 0 6 9)
1969-12-31 18:00:19.688184499,(12 13 4 2 -18 -23 -7 1)
1969-12-31 18:00:19.688184499,(11 0 -3 7 5 -11 -14 -9)
1969-12-31 18:00:19.698799495,(-9 -14 -9 2 17 13 14 15)
1969-12-31 18:00:19.698799495,(14 -7 -10 -19 -10 34 -20 -2)
1969-12-31 18:00:19.715311710,(56 45 7 5 10 -58 38 38)
1969-12-31 18:00:19.716491154,(-114 -64 -5 1 -2 29 11 -48)
1969-12-31 18:00:19.723567818,(19 21 4 5 -7 -16 -22 -18)
1969-12-31 18:00:19.723567818,(-6 -11 -9 -9 -11 -9 -2 -12)
1969-12-31 18:00:19.743618366,(23 17 8 -13 -8 15 -10 13)
1969-12-31 18:00:19.743618366,(7 10 5 10 17 60 36 12)
1969-12-31 18:00:19.744797810,(-10 -11 -5 0 -5 -56 -25 -14)
1969-12-31 18:00:19.744797810,(9 31 17 6 7 -11 1 8)
1969-12-31 18:00:19.769566133,(-59 -13 -9 9 2 -5 -5 -22)
1969-12-31 18:00:19.769566133,(47 -10 4 -1 -9 -11 22 29)
1969-12-31 18:00:19.771925021,(8 15 0 -8 -2 32 -10 -24)
1969-12-31 18:00:19.771925021,(-30 -29 0 1 -1 -4 18 9)
1969-12-31 18:00:19.786078349,(-32 -4 -15 -20 -14 9 -25 -40)
1969-12-31 18:00:19.786078349,(-71 -38 -11 -7 -6 -15 -32 -31)
1969-12-31 18:00:19.794334457,(57 34 2 1 1 6 7 10)
1969-12-31 18:00:19.794334457,(27 -3 3 -3 -10 -15 1 4)
1969-12-31 18:00:19.814385004,(24 14 14 10 12 22 22 36)
1969-12-31 18:00:19.814385004,(1 18 -9 -3 -4 -19 -16 -14)
1969-12-31 18:00:19.815564448,(-80 -60 -16 -9 -6 -4 1 -3)
1969-12-31 18:00:19.815564448,(51 17 6 2 1 -10 9 19)
1969-12-31 18:00:19.840332772,(-33 -2 1 7 11 21 -5 -8)
1969-12-31 18:00:19.840332772,(18 4 -4 -4 -9 -24 -20 -5)
1969-12-31 18:00:19.842691660,(13 9 8 2 4 7 14 12)
1969-12-31 18:00:19.842691660,(-25 -17 -7 -1 -1 3 -7 -11)
1969-12-31 18:00:19.856844987,(40 12 13 9 8 13 8 42)
1969-12-31 18:00:19.856844987,(52 16 2 -2 -6 -13 -1 32)
1969-12-31 18:00:19.874536647,(18 17 4 -1 1 7 8 -16)
1969-12-31 18:00:19.874536647,(-78 -44 -19 -12 -6 -11 -20 -38)
1969-12-31 18:00:19.883972199,(7 9 -2 -8 -5 -5 -8 -20)
1969-12-31 18:00:19.883972199,(-2 2 11 10 2 -8 5 17)
1969-12-31 18:00:19.893407751,(28 10 -2 1 0 7 5 17)
1969-12-31 18:00:19.893407751,(-21 -12 -6 -8 -3 -2 2 4)
1969-12-31 18:00:19.911099410,(-1 -5 -1 -2 -6 -6 -8 -15)
1969-12-31 18:00:19.911099410,(15 1 -7 -2 -3 -4 -8 1)
1969-12-31 18:00:19.913458298,(19 2 7 8 6 7 8 15)
1969-12-31 18:00:19.913458298,(-41 -5 -4 -1 -5 -9 -13 -27)
1969-12-31 18:00:19.927611626,(-6 -5 -3 -1 2 7 5 3)
1969-12-31 18:00:19.927611626,(2 -13 -9 -5 -3 -4 -9 -6)
1969-12-31 18:00:19.935867734,(11 6 -6 -3 -3 -3 2 7)
1969-12-31 18:00:19.935867734,(-1 -10 -1 5 1 1 5 8)
1969-12-31 18:00:19.955918281,(-3 8 -3 -3 0 3 -3 -10)
1969-12-31 18:00:19.955918281,(8 3 14 9 4 -5 -3 13)
1969-12-31 18:00:19.964174389,(11 14 7 -6 -4 1 7 12)
1969-12-31 18:00:19.964174389,(2 -8 -6 -4 -1 0 -3 -3)
1969-12-31 18:00:19.981866049,(-8 0 -5 -4 0 0 -3 -10)
1969-12-31 18:00:19.981866049,(18 -21 -9 -1 -1 -3 1 6)
1969-12-31 18:00:19.984224937,(-30 -8 -8 -6 -1 -1 1 -2)
1969-12-31 18:00:19.984224937,(22 16 3 0 4 5 10 14)
1969-12-31 18:00:19.998378265,(-14 -16 2 1 1 2 -1 -6)
1969-12-31 18:00:19.999557709,(27 29 6 -2 -5 -8 -1 -1)
1969-12-31 18:00:20.006634372,(-33 -16 3 8 -1 -4 -18 -21)
1969-12-31 18:00:20.006634372,(7 -4 -3 2 0 0 3 2)
1969-12-31 18:00:20.025505476,(11 1 1 1 1 3 11 12)
1969-12-31 18:00:20.025505476,(-10 -15 -1 3 5 5 9 3)
1969-12-31 18:00:20.042017692,(0 18 1 -1 3 2 -9 -4)
1969-12-31 18:00:20.043197136,(5 24 24 9 1 2 4 -1)
1969-12-31 18:00:20.054991575,(-11 -27 -15 -9 -1 0 1 -1)
1969-12-31 18:00:20.054991575,(-7 0 9 2 0 -4 -13 -21)
1969-12-31 18:00:20.056171019,(8 -11 -13 -8 -2 2 8 12)
1969-12-31 18:00:20.056171019,(-1 -1 -19 -16 -11 -8 -5 -4)
1969-12-31 18:00:20.069144903,(-2 16 31 23 8 2 -2 -3)
1969-12-31 18:00:20.069144903,(-11 -4 -6 6 5 3 -2 2)
1969-12-31 18:00:20.079759899,(4 5 13 4 -2 0 10 3)
1969-12-31 18:00:20.079759899,(-8 -14 -18 -7 -1 2 -9 -6)
1969-12-31 18:00:20.097451559,(-6 -18 -16 -12 -8 -4 2 5)
1969-12-31 18:00:20.097451559,(8 29 -1 -4 1 7 16 11)
1969-12-31 18:00:20.098631003,(-14 -28 -10 -8 -8 -16 -46 -27)
1969-12-31 18:00:20.098631003,(-4 -12 -11 -13 -3 -3 3 -2)
1969-12-31 18:00:20.123399326,(12 50 51 30 10 -2 -6 -3)
1969-12-31 18:00:20.123399326,(-15 -20 -11 -2 -1 2 1 -7)
1969-12-31 18:00:20.125758214,(14 30 16 4 1 4 23 22)
1969-12-31 18:00:20.125758214,(-3 -37 -20 -11 -3 -3 -1 2)
1969-12-31 18:00:20.139911542,(-4 24 6 1 -2 -2 -8 -10)
1969-12-31 18:00:20.139911542,(-5 -52 -51 -28 -12 -4 -4 1)
1969-12-31 18:00:20.150526537,(3 71 76 32 10 3 -2 -5)
1969-12-31 18:00:20.150526537,(12 -8 1 6 1 4 2 4)
1969-12-31 18:00:20.168218197,(-18 -21 -55 -33 -11 -3 -2 -8)
1969-12-31 18:00:20.168218197,(-2 23 24 10 -1 0 -6 -5)
1969-12-31 18:00:20.169397641,(-1 -33 -43 -19 -8 -1 2 0)
1969-12-31 18:00:20.169397641,(5 11 28 21 9 5 3 1)
1969-12-31 18:00:20.192986521,(-9 -54 -30 -5 -3 -2 -21 -8)
1969-12-31 18:00:20.192986521,(3 37 -7 -16 -7 3 2 -1)
1969-12-31 18:00:20.213037068,(-14 2 31 19 5 1 1 -6)
1969-12-31 18:00:20.213037068,(-15 13 -11 -5 -7 -4 -11 -12)
1969-12-31 18:00:20.221293176,(9 -9 2 -5 -2 1 4 3)
1969-12-31 18:00:20.221293176,(-6 -40 -16 -8 -4 -12 -6 1)
1969-12-31 18:00:20.222472620,(7 32 31 11 0 -6 8 10)
1969-12-31 18:00:20.222472620,(9 21 0 5 4 -4 1 2)
1969-12-31 18:00:20.237805392,(-14 -23 -1 -7 -3 -6 5 1)
1969-12-31 18:00:20.237805392,(14 69 42 6 0 -14 -12 -1)
1969-12-31 18:00:20.240164280,(-1 -35 -41 -13 3 2 14 7)
1969-12-31 18:00:20.240164280,(-6 -14 8 -1 -3 -7 0 4)
1969-12-31 18:00:20.264932603,(12 45 2 -13 -3 -8 -5 -1)
1969-12-31 18:00:20.264932603,(-3 -15 1 9 6 5 8 5)
1969-12-31 18:00:20.267291491,(-10 -54 -41 -22 -9 -8 -11 -6)
1969-12-31 18:00:20.267291491,(9 65 38 15 5 1 3 -6)
1969-12-31 18:00:20.290880371,(6 -15 -13 5 1 7 -5 6)
1969-12-31 18:00:20.290880371,(-19 -38 -30 -26 -13 -5 1 -6)
1969-12-31 18:00:20.293239259,(3 10 4 16 5 4 -4 -5)
1969-12-31 18:00:20.293239259,(-9 -53 -18 -8 -5 1 -7 -4)
1969-12-31 18:00:20.309751474,(2 17 18 7 2 3 6 0)
1969-12-31 18:00:20.309751474,(-7 -2 14 12 4 5 0 -4)
1969-12-31 18:00:20.310930918,(-4 4 -25 -23 -11 1 -7 -9)
1969-12-31 18:00:20.310930918,(6 4 0 1 -3 2 3 1)
1969-12-31 18:00:20.310930918,(5 9 1 3 6 -3 13 3)
1969-12-31 18:00:20.310930918,(14 -9 -7 -10 -14 -7 -16 21)
1969-12-31 18:00:20.312110362,(-9 -1 -6 -4 0 39 2 -46)
1969-12-31 18:00:20.312110362,(-10 -16 -3 2 5 -23 -11 -15)
1969-12-31 18:00:20.336878686,(30 6 -4 -2 6 42 7 0)
1969-12-31 18:00:20.336878686,(31 21 14 9 -14 -18 4 56)
1969-12-31 18:00:20.339237574,(-25 -12 -3 -3 6 7 -10 10)
1969-12-31 18:00:20.339237574,(1 10 4 1 -6 -30 -30 -30)
1969-12-31 18:00:20.353390900,(1 -7 1 4 15 -3 -1 28)
1969-12-31 18:00:20.353390900,(2 -2 -4 0 5 9 3 11)
1969-12-31 18:00:20.364005897,(23 1 -3 -1 -2 4 23 59)
1969-12-31 18:00:20.364005897,(3 9 5 8 7 5 -4 -32)
1969-12-31 18:00:20.380518113,(-28 -4 -3 -4 -8 -13 0 26)
1969-12-31 18:00:20.380518113,(1 -9 -7 -9 -6 22 11 -41)
1969-12-31 18:00:20.382877001,(-6 -5 0 0 1 -35 -30 -2)
1969-12-31 18:00:20.382877001,(1 -4 -4 -3 1 17 32 13)
1969-12-31 18:00:20.407645324,(8 2 -1 -2 -6 -6 -8 -16)
1969-12-31 18:00:20.407645324,(0 -6 -9 -5 0 6 4 1)
1969-12-31 18:00:20.410004212,(-41 -14 -1 1 -3 4 -11 -25)
1969-12-31 18:00:20.410004212,(9 8 4 0 -4 -4 -2 -1)
1969-12-31 18:00:20.424157540,(14 11 3 3 0 2 -1 21)
1969-12-31 18:00:20.424157540,(-24 -19 -11 -10 -10 -30 -11 -17)
1969-12-31 18:00:20.434772536,(28 8 2 1 3 15 22 8)
1969-12-31 18:00:20.434772536,(9 7 -1 -1 0 -26 -16 34)
1969-12-31 18:00:20.451284751,(-12 -10 -9 -7 0 39 13 -2)
1969-12-31 18:00:20.451284751,(19 14 7 6 -2 -21 -1 19)
1969-12-31 18:00:20.460720303,(-6 -2 -1 4 3 0 3 -37)
1969-12-31 18:00:20.460720303,(-29 -17 -12 -11 -3 16 2 -7)
1969-12-31 18:00:20.478411963,(30 8 5 8 0 -25 11 38)
1969-12-31 18:00:20.478411963,(-35 -6 0 -4 -5 -17 -20 -36)
1969-12-31 18:00:20.480770851,(23 7 4 3 -7 -50 13 35)
1969-12-31 18:00:20.480770851,(-3 -1 -2 -2 -1 -11 -6 -2)
1969-12-31 18:00:20.494924179,(-2 -3 -5 -4 -6 -3 -18 -24)
1969-12-31 18:00:20.494924179,(-11 -10 -2 -2 2 -3 7 7)
1969-12-31 18:00:20.505539174,(-1 4 2 0 0 8 -7 2)
1969-12-31 18:00:20.505539174,(-22 -5 -7 -7 -6 5 1 -30)
1969-12-31 18:00:20.522051390,(16 0 5 4 1 -12 2 8)
1969-12-31 18:00:20.522051390,(23 -7 -5 -4 -6 19 23 86)
1969-12-31 18:00:20.530307498,(-5 -6 -6 -8 -6 -2 -3 -24)
1969-12-31 18:00:20.530307498,(53 28 19 15 14 18 18 6)
1969-12-31 18:00:20.549178602,(-21 -11 -6 -6 -3 7 8 -1)
1969-12-31 18:00:20.549178602,(-1 0 -1 0 -4 -16 -10 50)
1969-12-31 18:00:20.551537489,(4 -8 -4 -4 0 9 0 27)
1969-12-31 18:00:20.551537489,(-6 5 5 4 6 -1 -4 -10)
1969-12-31 18:00:20.584561921,(16 2 -1 -3 -4 -3 10 27)
1969-12-31 18:00:20.584561921,(39 4 9 8 7 15 9 54)
1969-12-31 18:00:20.586920809,(-19 -2 -9 -6 -4 -14 -14 -31)
1969-12-31 18:00:20.586920809,(-20 -1 -1 1 7 33 -22 48)
1969-12-31 18:00:20.592818029,(-46 -19 -8 -6 -10 -34 -15 -92)
1969-12-31 18:00:20.592818029,(-14 -4 -3 -4 -2 8 0 -19)
1969-12-31 18:00:20.602253580,(18 2 3 0 -5 -55 -4 17)
1969-12-31 18:00:20.602253580,(-23 -13 -11 -13 8 10 -1 -13)
1969-12-31 18:00:20.621124684,(21 17 9 10 0 -14 -10 35)
1969-12-31 18:00:20.621124684,(-15 9 -1 3 14 50 7 -56)
1969-12-31 18:00:20.622304128,(-14 -11 -4 4 -5 -32 12 39)
1969-12-31 18:00:20.622304128,(-40 -26 -10 -6 -8 23 -13 -47)
1969-12-31 18:00:20.645893008,(21 38 23 16 21 -7 27 20)
1969-12-31 18:00:20.645893008,(-48 -36 -24 -21 -16 30 -40 -128)
1969-12-31 18:00:20.648251896,(5 13 3 -2 4 43 32 50)
1969-12-31 18:00:20.648251896,(37 10 5 4 -3 -13 12 18)
1969-12-31 18:00:20.663584667,(12 14 8 7 5 17 -10 10)
1969-12-31 18:00:20.663584667,(-47 -16 -4 -1 -7 -28 -10 -14)
1969-12-31 18:00:20.671840775,(5 -4 -4 -3 3 12 2 -1)
1969-12-31 18:00:20.671840775,(61 25 13 13 8 -1 30 77)
1969-12-31 18:00:20.690711879,(17 -14 -12 -15 -12 -19 -6 -2)
1969-12-31 18:00:20.690711879,(33 23 9 8 2 -31 4 32)
1969-12-31 18:00:20.693070767,(-1 0 1 0 5 56 12 -5)
1969-12-31 18:00:20.693070767,(-3 3 2 0 -3 -15 -30 -13)
1969-12-31 18:00:20.716659646,(-19 -10 -5 -3 -3 9 -16 -23)
1969-12-31 18:00:20.716659646,(44 17 8 8 7 -4 37 91)
1969-12-31 18:00:20.719018534,(-35 -15 -9 -9 -4 -3 -13 -65)
1969-12-31 18:00:20.719018534,(-38 -20 -10 -8 -9 -3 -1 -32)
1969-12-31 18:00:20.734351306,(-2 0 -2 -1 1 5 -2 -28)
1969-12-31 18:00:20.734351306,(-1 4 2 -2 -2 -8 -6 4)
1969-12-31 18:00:20.743786858,(16 10 9 8 3 3 7 18)
1969-12-31 18:00:20.743786858,(19 12 9 11 4 -10 -4 -1)
1969-12-31 18:00:20.760299073,(-26 -8 -9 -8 -1 3 -3 7)
1969-12-31 18:00:20.760299073,(-17 -10 -2 -1 -6 -20 -4 -55)
1969-12-31 18:00:20.770914069,(41 13 4 2 0 8 19 63)
1969-12-31 18:00:20.770914069,(2 -1 -2 -2 -2 -9 2 16)
1969-12-31 18:00:20.796861837,(-7 -16 -6 -2 -4 -2 -6 -33)
1969-12-31 18:00:20.796861837,(34 23 11 6 6 11 -7 -3)
1969-12-31 18:00:20.799220725,(28 14 10 5 -2 9 19 80)
1969-12-31 18:00:20.799220725,(-46 -27 -20 -19 -18 -74 -34 -65)
1969-12-31 18:00:20.805117944,(-14 -6 2 2 5 40 -24 -19)
1969-12-31 18:00:20.805117944,(-29 -13 -11 -9 -10 -12 3 -1)
1969-12-31 18:00:20.813374052,(18 12 7 8 8 -8 29 29)
1969-12-31 18:00:20.813374052,(34 24 9 6 9 50 1 -13)
1969-12-31 18:00:20.832245156,(-37 -1 3 -1 -12 -80 -26 -73)
1969-12-31 18:00:20.832245156,(7 -7 -5 -3 -7 -27 -8 15)
1969-12-31 18:00:20.834604044,(10 18 3 -1 10 82 13 -25)
1969-12-31 18:00:20.834604044,(-22 -10 -3 1 -16 -79 6 50)
1969-12-31 18:00:20.859372367,(-36 -52 -26 -14 3 17 49 15)
1969-12-31 18:00:20.859372367,(-14 7 1 2 6 23 16 -16)
1969-12-31 18:00:20.860551811,(-42 -16 -3 -1 -7 -49 -49 -109)
1969-12-31 18:00:20.860551811,(20 11 1 -5 -4 25 24 15)
1969-12-31 18:00:20.875884583,(16 13 8 6 2 19 -4 22)
1969-12-31 18:00:20.875884583,(7 -1 -1 0 -3 -27 21 18)
1969-12-31 18:00:20.884140691,(29 9 3 3 -5 -34 -32 -35)
1969-12-31 18:00:20.884140691,(-32 -41 -32 -26 -15 9 -9 -29)
1969-12-31 18:00:20.903011794,(33 28 22 16 11 3 -5 3)
1969-12-31 18:00:20.903011794,(-45 -20 -11 -12 -6 17 -21 -66)
1969-12-31 18:00:20.905370682,(21 9 3 -1 -5 -52 -21 -18)
1969-12-31 18:00:20.905370682,(11 7 10 11 3 1 48 44)
1969-12-31 18:00:20.928959562,(-46 -16 -9 -8 -2 -6 -27 -28)
1969-12-31 18:00:20.928959562,(-4 -9 -8 -7 -8 -3 -31 -50)
1969-12-31 18:00:20.939574558,(-29 -18 -14 -14 -9 0 -10 -61)
1969-12-31 18:00:20.939574558,(31 15 12 13 19 45 37 77)
1969-12-31 18:00:20.954907328,(-4 -6 -7 -7 -12 -67 -2 23)
1969-12-31 18:00:20.956086772,(1 7 9 5 -6 43 21 19)
1969-12-31 18:00:20.956086772,(-30 -15 -4 2 11 -20 -8 36)
1969-12-31 18:00:20.956086772,(24 5 1 1 -9 -26 -27 -22)
1969-12-31 18:00:20.972598989,(79 44 21 10 -21 22 41 101)
1969-12-31 18:00:20.972598989,(-8 -15 -10 -4 8 -65 -40 -31)
1969-12-31 18:00:20.973778433,(-16 -15 -8 -5 -5 43 21 2)
1969-12-31 18:00:20.973778433,(8 21 21 36 97 78 -14 18)
1969-12-31 18:00:20.999726201,(13 11 4 -10 -80 -29 6 22)
1969-12-31 18:00:20.999726201,(-31 -20 -12 -16 -33 -71 -40 -72)
1969-12-31 18:00:20.999726201,(-21 -10 -7 -5 14 16 -16 -55)
1969-12-31 18:00:21.000905644,(-29 -11 -8 -29 -80 -51 -6 -20)
1969-12-31 18:00:21.025673968,(-10 0 -1 1 38 37 12 -15)
1969-12-31 18:00:21.025673968,(42 24 13 11 8 21 14 65)
1969-12-31 18:00:21.026853412,(-27 -17 -9 2 19 7 -7 -2)
1969-12-31 18:00:21.026853412,(-15 -7 -7 5 32 40 -1 -18)
1969-12-31 18:00:21.043365628,(25 -2 -3 -2 10 -5 0 -3)
1969-12-31 18:00:21.043365628,(-24 -12 -4 5 3 1 -13 -50)
1969-12-31 18:00:21.044545072,(19 12 6 2 0 16 1 20)
1969-12-31 18:00:21.044545072,(-4 -2 -8 -18 -26 -35 -3 -1)
1969-12-31 18:00:21.070492839,(-38 -21 -19 -29 -67 -25 -5 -72)
1969-12-31 18:00:21.070492839,(12 3 0 7 7 11 24 52)
1969-12-31 18:00:21.071672283,(-8 -6 0 4 0 -14 -7 1)
1969-12-31 18:00:21.071672283,(10 20 20 17 13 7 8 13)
1969-12-31 18:00:21.096440607,(-7 -3 -3 1 51 37 -16 -6)
1969-12-31 18:00:21.096440607,(29 10 -21 -2 31 60 34 63)
1969-12-31 18:00:21.105876158,(-11 -18 -2 -11 -40 -23 -2 -44)
1969-12-31 18:00:21.105876158,(6 17 4 -8 -22 -25 -4 -8)
1969-12-31 18:00:21.124747262,(-33 -18 -11 1 26 17 13 11)
1969-12-31 18:00:21.124747262,(14 10 33 14 -3 -10 -3 19)
1969-12-31 18:00:21.124747262,(25 -1 -52 -15 43 19 9 12)
1969-12-31 18:00:21.124747262,(-24 -16 46 20 -3 0 -11 28)
1969-12-31 18:00:21.141259478,(-22 18 -1 -10 -62 -43 3 -50)
1969-12-31 18:00:21.141259478,(37 -2 -10 -5 6 11 -15 12)
1969-12-31 18:00:21.142438922,(-25 -21 -25 -11 -19 -9 11 39)
1969-12-31 18:00:21.142438922,(-13 -16 -3 1 22 16 -9 -67)
1969-12-31 18:00:21.157771693,(4 60 84 35 35 19 -13 5)
1969-12-31 18:00:21.157771693,(-2 -1 3 9 17 14 38 20)
1969-12-31 18:00:21.167207245,(12 16 1 0 -2 -6 -10 46)
1969-12-31 18:00:21.167207245,(33 -38 -80 -35 3 -4 3 -3)
1969-12-31 18:00:21.184898905,(-54 -75 -46 -32 -68 -32 -16 12)
1969-12-31 18:00:21.186078349,(-3 89 100 44 16 10 16 -5)
1969-12-31 18:00:21.186078349,(3 -17 -13 -1 9 6 8 -17)
1969-12-31 18:00:21.186078349,(16 8 2 0 4 7 20 62)
1969-12-31 18:00:21.212026116,(3 12 17 26 33 18 -1 14)
1969-12-31 18:00:21.212026116,(-17 -33 -30 -15 11 7 5 34)
1969-12-31 18:00:21.213205560,(37 110 122 59 -15 8 20 -8)
1969-12-31 18:00:21.213205560,(7 18 17 -2 -32 -46 -34 -28)
1969-12-31 18:00:21.228538332,(48 -40 -66 -19 33 33 34 86)
1969-12-31 18:00:21.228538332,(-69 -72 -47 -14 -10 -13 -9 -24)
1969-12-31 18:00:21.237973884,(38 -25 -26 -24 -6 0 1 66)
1969-12-31 18:00:21.237973884,(14 -1 -5 -22 -40 -44 -38 -4)
1969-12-31 18:00:21.255665543,(19 54 105 57 53 44 36 79)
1969-12-31 18:00:21.255665543,(-12 -34 -43 -24 -55 -20 5 -21)
1969-12-31 18:00:21.265101095,(10 -41 -51 -31 -29 -14 -2 56)
1969-12-31 18:00:21.265101095,(-6 96 41 11 7 -2 -17 -78)
1969-12-31 18:00:21.282792755,(-1 -121 -84 -29 15 -12 -28 -40)
1969-12-31 18:00:21.282792755,(-11 112 98 44 31 26 12 -7)
1969-12-31 18:00:21.283972199,(-9 -7 14 14 -4 -2 -5 -31)
1969-12-31 18:00:21.283972199,(-98 -117 -106 -43 -17 -13 -9 -78)
1969-12-31 18:00:21.299304971,(55 71 13 10 23 30 19 37)
1969-12-31 18:00:21.299304971,(-13 6 -24 2 -3 -5 -11 -63)
1969-12-31 18:00:21.308740522,(-29 -37 -28 -15 30 19 -13 -10)
1969-12-31 18:00:21.308740522,(43 104 101 55 0 -15 21 61)
1969-12-31 18:00:21.327611626,(-4 -50 -62 -30 -47 -24 -10 -20)
1969-12-31 18:00:21.327611626,(26 -109 -49 -52 -47 1 51 68)
1969-12-31 18:00:21.327611626,(-79 17 -2 1 2 -42 -96 -118)
1969-12-31 18:00:21.327611626,(37 -36 -56 -20 12 40 16 41)
1969-12-31 18:00:21.353559393,(-6 -3 18 19 42 17 15 -24)
1969-12-31 18:00:21.353559393,(58 127 110 48 6 -17 -28 39)
1969-12-31 18:00:21.354738837,(37 19 9 12 -1 24 66 36)
1969-12-31 18:00:21.354738837,(68 -55 -75 -31 8 4 1 16)
1969-12-31 18:00:21.370071609,(-80 -40 30 17 -15 -22 -60 -124)
1969-12-31 18:00:21.370071609,(34 11 4 -1 17 21 13 59)
1969-12-31 18:00:21.379507161,(23 -20 -67 -51 -19 -34 2 33)
1969-12-31 18:00:21.379507161,(-20 117 123 74 23 32 25 16)
1969-12-31 18:00:21.397198821,(51 -59 -88 -35 26 8 -2 24)
1969-12-31 18:00:21.397198821,(-88 -68 -25 -20 -49 -40 -24 -75)
1969-12-31 18:00:21.398378265,(-65 -40 1 -15 -31 -20 -14 -31)
1969-12-31 18:00:21.398378265,(77 -10 -16 4 20 13 21 95)
1969-12-31 18:00:21.424326032,(6 -61 -80 -31 2 5 15 14)
1969-12-31 18:00:21.424326032,(-58 89 79 35 32 -20 -42 -35)
1969-12-31 18:00:21.432582140,(-12 38 -26 -2 -49 -18 3 -35)
1969-12-31 18:00:21.432582140,(17 -22 -49 -22 19 26 21 53)
1969-12-31 18:00:21.443197136,(-70 10 24 6 -44 -23 -18 -61)
1969-12-31 18:00:21.443197136,(58 -86 -109 -40 13 -3 -9 26)
1969-12-31 18:00:21.450273799,(11 -27 -5 -9 12 1 -5 14)
1969-12-31 18:00:21.450273799,(-14 5 52 14 -10 7 34 73)
1969-12-31 18:00:21.467965459,(68 127 70 38 39 42 38 105)
1969-12-31 18:00:21.467965459,(-66 -82 -45 -26 -35 -37 -66 -100)
1969-12-31 18:00:21.469144903,(-10 109 127 65 19 -3 -13 -55)
1969-12-31 18:00:21.469144903,(16 -94 -82 -35 -22 -6 -1 12)
1969-12-31 18:00:21.495092671,(-79 -44 -40 -38 -21 -27 -18 -55)
1969-12-31 18:00:21.495092671,(82 53 7 19 46 44 31 60)
1969-12-31 18:00:21.496272115,(-69 -59 -31 -11 -11 -2 -17 -92)
1969-12-31 18:00:21.496272115,(-48 42 1 -5 -34 -34 -14 -31)
1969-12-31 18:00:21.522219882,(42 -17 -20 -2 -1 -8 -31 -19)
1969-12-31 18:00:21.522219882,(35 6 -17 -16 -28 -8 15 -29)
1969-12-31 18:00:21.522219882,(-15 54 91 34 33 0 -3 12)
1969-12-31 18:00:21.522219882,(-86 -62 -51 -20 -8 0 -25 -123)
1969-12-31 18:00:21.538732098,(4 26 11 -5 -4 -4 6 22)
1969-12-31 18:00:21.538732098,(42 -36 -65 -17 8 18 35 83)
1969-12-31 18:00:21.539911542,(13 -121 -123 -46 -16 0 10 4)
1969-12-31 18:00:21.539911542,(-33 89 81 32 -9 -12 -5 -14)
1969-12-31 18:00:21.565859309,(85 93 64 51 49 16 -18 -30)
1969-12-31 18:00:21.565859309,(-41 -45 -36 -13 -36 -24 -37 -58)
1969-12-31 18:00:21.567038753,(17 -25 2 -1 -12 2 7 -14)
1969-12-31 18:00:21.567038753,(28 -74 -76 -26 25 33 25 63)
1969-12-31 18:00:21.582371525,(22 -65 -40 -15 10 6 32 86)
1969-12-31 18:00:21.582371525,(55 126 125 45 -56 -23 5 -26)
1969-12-31 18:00:21.591807077,(-56 -25 -36 -23 12 -1 -21 2)
1969-12-31 18:00:21.591807077,(24 -16 4 12 -2 12 16 27)
1969-12-31 18:00:21.609498736,(-18 -13 -19 -22 -31 -7 7 13)
1969-12-31 18:00:21.610678180,(-82 -118 -112 -48 2 -11 -17 -52)
1969-12-31 18:00:21.610678180,(127 127 120 86 48 47 63 127)
1969-12-31 18:00:21.610678180,(-126 -93 -50 -24 -16 -40 -65 -128)
1969-12-31 18:00:21.636625948,(-17 113 94 33 2 5 -10 -32)
1969-12-31 18:00:21.636625948,(42 -13 -3 4 9 3 1 67)
1969-12-31 18:00:21.637805392,(46 -54 -84 -31 2 16 30 66)
1969-12-31 18:00:21.637805392,(-25 -39 31 34 34 17 11 -8)
1969-12-31 18:00:21.666112047,(-31 17 -15 -25 -35 -26 -14 -37)
1969-12-31 18:00:21.666112047,(56 86 62 19 11 9 11 70)
1969-12-31 18:00:21.666112047,(-61 -57 -80 -18 14 -8 -26 -34)
1969-12-31 18:00:21.666112047,(38 -17 28 -1 -10 24 51 29)
1969-12-31 18:00:21.680265375,(-9 -35 -52 -21 -45 -22 -51 -1)
1969-12-31 18:00:21.680265375,(8 25 14 -1 -5 -15 8 20)
1969-12-31 18:00:21.681444819,(-25 -69 -57 -26 -9 -11 -13 -56)
1969-12-31 18:00:21.681444819,(-14 -50 -69 -31 32 6 -23 -46)
1969-12-31 18:00:21.707392586,(-58 100 107 61 -9 -5 2 -26)
1969-12-31 18:00:21.707392586,(-26 -46 -63 -19 23 21 11 -30)
1969-12-31 18:00:21.708572030,(37 22 -3 6 -12 -5 -8 18)
1969-12-31 18:00:21.708572030,(9 -28 -72 -17 10 11 -7 26)
1969-12-31 18:00:21.734519798,(12 3 46 16 8 -5 10 -9)
1969-12-31 18:00:21.734519798,(-13 25 15 -3 -16 -18 -22 0)
1969-12-31 18:00:21.735699242,(-57 -26 -18 -13 -20 -19 10 -74)
1969-12-31 18:00:21.735699242,(43 78 80 22 -45 -34 -22 49)
1969-12-31 18:00:21.751032013,(-37 -63 -63 -37 5 0 -11 -64)
1969-12-31 18:00:21.751032013,(26 7 -15 13 25 9 -20 -51)
1969-12-31 18:00:21.760467565,(-8 92 117 21 4 16 1 -10)
1969-12-31 18:00:21.760467565,(23 2 -31 -16 -4 -13 1 26)
1969-12-31 18:00:21.778159225,(-13 -74 -47 -9 0 0 4 -22)
1969-12-31 18:00:21.778159225,(-13 -37 -4 -8 4 -4 -15 -14)
1969-12-31 18:00:21.779338669,(75 68 48 31 17 8 1 6)
1969-12-31 18:00:21.779338669,(-44 -6 3 14 69 53 8 -40)
1969-12-31 18:00:21.805286436,(58 -31 -54 -24 -74 -57 -10 34)
1969-12-31 18:00:21.805286436,(-18 58 82 56 42 29 19 30)
1969-12-31 18:00:21.806465880,(8 -71 -48 -12 -5 -9 2 19)
1969-12-31 18:00:21.806465880,(16 40 0 13 17 30 17 19)
1969-12-31 18:00:21.821798652,(33 -27 -33 -14 5 20 43 81)
1969-12-31 18:00:21.821798652,(-46 -53 -46 -26 -15 -9 -48 -70)
1969-12-31 18:00:21.822978096,(-24 -5 -13 -10 -34 -38 -11 8)
1969-12-31 18:00:21.822978096,(-18 52 73 16 -8 -20 -27 -46)
1969-12-31 18:00:21.848925864,(87 82 67 41 51 40 33 70)
1969-12-31 18:00:21.848925864,(-76 -49 -39 -38 -46 -4 17 -56)
1969-12-31 18:00:21.850105307,(67 7 -23 -9 9 5 1 42)
1969-12-31 18:00:21.850105307,(-56 -112 -87 -56 -54 -37 -20 -45)
1969-12-31 18:00:21.876053075,(3 120 118 67 40 3 -16 -8)
1969-12-31 18:00:21.876053075,(54 20 -2 11 -2 -10 3 -9)
1969-12-31 18:00:21.877232519,(-61 -29 16 3 13 13 -14 -67)
1969-12-31 18:00:21.877232519,(12 22 18 17 23 -1 -7 -29)
1969-12-31 18:00:21.892565291,(0 -112 -128 -50 22 38 7 1)
1969-12-31 18:00:21.892565291,(-18 -11 25 0 -47 -38 18 46)
1969-12-31 18:00:21.902000842,(-31 18 10 -3 -32 -21 -32 -19)
1969-12-31 18:00:21.902000842,(6 16 -18 -9 -1 -12 -22 -21)
1969-12-31 18:00:21.919692502,(71 38 21 11 39 43 62 89)
1969-12-31 18:00:21.919692502,(-40 -109 -88 -31 -17 -10 -41 -62)
1969-12-31 18:00:21.927948610,(45 51 56 17 17 12 19 20)
1969-12-31 18:00:21.927948610,(0 57 30 9 -21 -25 -13 -16)
1969-12-31 18:00:21.946819714,(68 -21 -82 -22 22 28 12 51)
1969-12-31 18:00:21.946819714,(25 46 72 27 39 5 -1 -7)
1969-12-31 18:00:21.947999158,(-52 16 33 15 -27 -15 -8 -26)
1969-12-31 18:00:21.947999158,(21 -38 -36 -10 3 -3 -23 -10)
1969-12-31 18:00:21.963331929,(-14 -26 -17 -16 -19 -18 -7 -13)
1969-12-31 18:00:21.963331929,(-55 -75 -59 -22 29 38 22 -30)
1969-12-31 18:00:21.964511373,(10 -7 -63 -24 -9 -2 -12 -4)
1969-12-31 18:00:21.964511373,(35 93 123 77 7 -32 8 16)
1969-12-31 18:00:21.990459141,(-46 -58 -25 -43 -63 -40 -40 -40)
1969-12-31 18:00:21.990459141,(40 73 50 47 74 60 43 45)
1969-12-31 18:00:21.991638585,(-57 -65 -45 -37 -30 -16 1 -33)
1969-12-31 18:00:21.991638585,(30 7 -32 -21 -24 9 -4 16)
1969-12-31 18:00:22.017586352,(-106 -93 -69 -33 -15 -39 -48 -98)
1969-12-31 18:00:22.017586352,(92 105 78 43 -22 -42 5 99)
1969-12-31 18:00:22.018765796,(13 40 38 30 34 30 16 17)
1969-12-31 18:00:22.018765796,(-58 -77 -57 -24 -16 -9 -18 -72)
1969-12-31 18:00:22.034098568,(-16 -52 -34 -16 -1 5 9 2)
1969-12-31 18:00:22.035278012,(61 -34 -65 -14 13 31 27 70)
1969-12-31 18:00:22.035278012,(-3 55 33 23 12 -6 -5 -26)
1969-12-31 18:00:22.035278012,(3 19 33 -1 -20 -14 -4 34)
1969-12-31 18:00:22.061225779,(13 127 111 60 50 35 21 -27)
1969-12-31 18:00:22.061225779,(-77 -91 -93 -45 -51 -40 -54 -100)
1969-12-31 18:00:22.062405223,(105 -36 -21 15 21 27 49 127)
1969-12-31 18:00:22.062405223,(-4 27 -22 -26 -10 9 18 12)
1969-12-31 18:00:22.087173547,(-69 -44 -16 -4 -5 -27 -27 -79)
1969-12-31 18:00:22.087173547,(5 -48 -34 -34 -55 -27 -24 44)
1969-12-31 18:00:22.096609099,(-11 26 -2 -15 -14 -27 -27 -12)
1969-12-31 18:00:22.096609099,(9 -66 -89 -40 5 3 -11 -14)
1969-12-31 18:00:22.104865206,(3 60 99 48 16 18 21 12)
1969-12-31 18:00:22.104865206,(-12 39 25 17 49 25 12 4)
1969-12-31 18:00:22.106044650,(6 -128 -128 -52 -30 -8 3 52)
1969-12-31 18:00:22.106044650,(-6 81 112 51 8 -2 -11 -55)
1969-12-31 18:00:22.131992418,(26 58 36 13 -5 -5 -14 17)
1969-12-31 18:00:22.131992418,(57 16 3 25 53 23 32 78)
1969-12-31 18:00:22.131992418,(46 8 -18 -19 -32 5 15 32)
1969-12-31 18:00:22.131992418,(-72 -79 -32 -5 -5 -14 -6 -52)
1969-12-31 18:00:22.159119629,(-63 -70 -46 -61 -96 -76 -45 -85)
1969-12-31 18:00:22.159119629,(-62 -20 -40 -31 3 -3 -16 -60)
1969-12-31 18:00:22.160299073,(-27 18 24 33 37 21 27 15)
1969-12-31 18:00:22.160299073,(-51 12 29 15 28 25 -41 -44)
1969-12-31 18:00:22.175631845,(-12 -12 5 15 12 -13 -21 -14)
1969-12-31 18:00:22.175631845,(34 -50 -52 -44 -80 -76 -18 26)
1969-12-31 18:00:22.185067397,(-67 -13 -17 -13 0 -7 -9 -55)
1969-12-31 18:00:22.185067397,(-14 60 45 15 30 22 43 54)
1969-12-31 18:00:22.202759056,(24 -11 -47 -13 8 21 -14 -22)
1969-12-31 18:00:22.202759056,(-13 -1 17 13 12 22 15 26)
1969-12-31 18:00:22.203938500,(6 -62 -63 -33 -5 5 9 -1)
1969-12-31 18:00:22.203938500,(27 8 68 31 12 -1 -12 41)
1969-12-31 18:00:22.228706824,(-4 36 21 28 29 19 18 12)
1969-12-31 18:00:22.228706824,(-2 -36 -20 13 11 -2 10 -7)
1969-12-31 18:00:22.238142376,(19 42 72 10 -36 -17 -1 -8)
1969-12-31 18:00:22.238142376,(-25 -34 -55 -19 -9 2 23 -18)
1969-12-31 18:00:22.248757372,(-12 -58 -22 -24 -39 -21 -19 44)
1969-12-31 18:00:22.248757372,(-20 68 53 33 48 23 -16 -35)
1969-12-31 18:00:22.255834035,(-37 -35 -61 -35 -16 9 19 -18)
1969-12-31 18:00:22.255834035,(3 35 9 -20 -36 -34 -31 -45)
1969-12-31 18:00:22.273525695,(50 50 27 37 29 26 52 73)
1969-12-31 18:00:22.273525695,(-72 -83 -41 -42 -31 -9 -35 -79)
1969-12-31 18:00:22.274705139,(-6 2 21 10 21 -6 30 29)
1969-12-31 18:00:22.274705139,(12 -15 -28 -4 -10 1 10 52)
1969-12-31 18:00:22.308909014,(-19 -50 -62 -23 13 19 12 -6)
1969-12-31 18:00:22.310088458,(8 44 50 22 18 7 -15 -10)
1969-12-31 18:00:22.310088458,(47 11 -6 -2 -24 -9 25 38)
1969-12-31 18:00:22.310088458,(-30 66 58 18 9 10 -33 -55)
1969-12-31 18:00:22.317165122,(15 -58 -64 -29 -12 -8 1 6)
1969-12-31 18:00:22.317165122,(65 -10 12 8 3 13 34 60)
1969-12-31 18:00:22.318344566,(-76 -20 6 0 17 -10 -68 -121)
1969-12-31 18:00:22.318344566,(74 38 26 49 64 56 67 92)
1969-12-31 18:00:22.344292333,(4 26 16 19 24 14 -16 -40)
1969-12-31 18:00:22.344292333,(-49 -17 -19 -55 -87 -83 -25 -63)
1969-12-31 18:00:22.345471778,(-5 -110 -70 -30 18 -6 -48 -23)
1969-12-31 18:00:22.345471778,(65 -14 -49 -7 -6 8 43 87)
1969-12-31 18:00:22.371419545,(2 101 106 41 49 51 19 0)
1969-12-31 18:00:22.371419545,(-58 1 -16 -1 8 11 5 -56)
1969-12-31 18:00:22.372598989,(-12 16 63 26 2 9 -22 2)
1969-12-31 18:00:22.372598989,(49 -37 -62 -21 -3 -14 3 23)
1969-12-31 18:00:22.387931761,(-72 8 21 2 -17 -14 -10 -61)
1969-12-31 18:00:22.387931761,(25 4 -15 10 55 42 18 14)
1969-12-31 18:00:22.397367313,(19 24 17 -2 -64 -29 -1 -2)
1969-12-31 18:00:22.397367313,(-23 0 10 5 0 -8 -37 -17)
1969-12-31 18:00:22.413879528,(15 -76 -45 -28 -2 -11 1 19)
1969-12-31 18:00:22.413879528,(2 58 57 27 -23 -13 1 8)
1969-12-31 18:00:22.423315080,(-21 40 11 25 65 51 8 -9)
1969-12-31 18:00:22.423315080,(-11 -55 -32 -32 -67 -48 2 -9)
1969-12-31 18:00:22.442186184,(-26 -39 -21 -23 -24 -19 -4 -6)
1969-12-31 18:00:22.442186184,(9 -16 -30 -5 25 14 -15 5)
1969-12-31 18:00:22.443365628,(63 43 31 24 53 22 1 -7)
1969-12-31 18:00:22.443365628,(23 -7 9 1 -37 -7 16 24)
1969-12-31 18:00:22.458698399,(-8 3 -16 -14 12 -5 -25 -15)
1969-12-31 18:00:22.458698399,(83 27 2 12 26 37 38 80)
1969-12-31 18:00:22.468133951,(-42 -62 -39 -23 -47 -46 -21 -31)
1969-12-31 18:00:22.468133951,(-11 26 25 17 42 17 7 4)
1969-12-31 18:00:22.485825611,(18 24 11 11 -15 -8 26 56)
1969-12-31 18:00:22.485825611,(5 27 26 4 -11 8 -8 -40)
1969-12-31 18:00:22.487005055,(14 -22 -37 -11 19 15 6 29)
1969-12-31 18:00:22.487005055,(-67 -34 10 -10 -21 -22 -13 -50)
1969-12-31 18:00:22.512952822,(18 -3 -10 0 -14 -1 6 29)
1969-12-31 18:00:22.512952822,(-2 2 1 5 -1 -3 -18 -7)
1969-12-31 18:00:22.514132266,(-14 -2 2 -9 -11 -14 -10 -4)
1969-12-31 18:00:22.514132266,(2 -27 -30 -20 -4 -4 -5 -22)
1969-12-31 18:00:22.529465038,(38 21 2 12 -1 0 2 32)
1969-12-31 18:00:22.529465038,(-21 14 26 3 5 -6 -10 -6)
1969-12-31 18:00:22.538900590,(-10 0 3 6 19 25 7 -40)
1969-12-31 18:00:22.538900590,(124 52 14 -7 -35 -30 -5 63)
1969-12-31 18:00:22.556592249,(-50 -22 7 12 14 -6 -18 -47)
1969-12-31 18:00:22.556592249,(-58 -51 -39 -13 -19 -16 -10 -35)
1969-12-31 18:00:22.564848357,(29 43 40 33 24 15 12 20)
1969-12-31 18:00:22.564848357,(61 25 7 17 53 56 33 52)
1969-12-31 18:00:22.583719461,(-39 -22 -16 -27 -56 -57 -32 -38)
1969-12-31 18:00:22.583719461,(38 14 8 1 -2 7 18 20)
1969-12-31 18:00:22.584898905,(-13 23 21 9 2 1 -3 3)
1969-12-31 18:00:22.584898905,(-56 -28 -14 -5 23 22 -6 -86)
1969-12-31 18:00:22.610846672,(19 4 -3 -3 -4 -5 -2 0)
1969-12-31 18:00:22.610846672,(21 -1 1 0 -10 -20 -2 15)
1969-12-31 18:00:22.610846672,(17 35 22 11 4 7 18 39)
1969-12-31 18:00:22.610846672,(7 -20 -18 -6 -9 -6 -2 8)
1969-12-31 18:00:22.627358888,(-5 9 9 4 14 23 11 9)
1969-12-31 18:00:22.627358888,(5 9 12 9 10 28 13 -7)
1969-12-31 18:00:22.628538332,(9 7 0 -5 -11 -31 -29 -1)
1969-12-31 18:00:22.628538332,(-73 -35 -18 -10 -18 -36 -3 -59)
1969-12-31 18:00:22.654486099,(11 7 -3 -2 6 23 7 -1)
1969-12-31 18:00:22.654486099,(-17 -36 -19 -34 -27 20 5 -31)
1969-12-31 18:00:22.655665543,(-4 11 1 -37 5 -23 -48 -9)
1969-12-31 18:00:22.655665543,(50 32 43 98 69 12 26 55)
1969-12-31 18:00:22.670998315,(-19 18 5 -5 -14 -41 -1 -47)
1969-12-31 18:00:22.670998315,(-107 -51 -23 -1 0 -3 -38 -32)
1969-12-31 18:00:22.680433867,(12 7 6 -5 -12 -4 25 7)
1969-12-31 18:00:22.680433867,(-6 -3 -13 -33 -22 11 -5 17)
1969-12-31 18:00:22.698125527,(-24 -30 -4 3 1 -32 -12 -5)
1969-12-31 18:00:22.698125527,(-38 8 4 4 7 14 5 -33)
1969-12-31 18:00:22.706381634,(-2 -11 -7 -3 -11 10 0 -14)
1969-12-31 18:00:22.706381634,(40 17 5 -7 -5 -28 -3 34)
1969-12-31 18:00:22.724073294,(-16 -7 -5 2 1 26 10 -6)
1969-12-31 18:00:22.724073294,(3 10 -6 -11 3 38 -1 8)
1969-12-31 18:00:22.733508846,(-18 2 14 20 -7 -72 23 45)
1969-12-31 18:00:22.733508846,(-30 -31 -24 -19 -8 49 -5 -115)
1969-12-31 18:00:22.742944398,(14 -25 -12 -16 -16 -89 -51 -24)
1969-12-31 18:00:22.742944398,(53 37 20 10 3 -14 0 21)
1969-12-31 18:00:22.751200505,(35 23 10 17 9 21 23 27)
1969-12-31 18:00:22.751200505,(89 25 -2 -7 1 16 27 113)
1969-12-31 18:00:22.768892165,(-16 -12 0 1 2 2 6 28)
1969-12-31 18:00:22.768892165,(-30 -10 -2 -6 -3 -20 -13 -27)
1969-12-31 18:00:22.770071609,(67 18 5 21 9 6 -11 15)
1969-12-31 18:00:22.770071609,(-68 -26 -3 -12 -15 -9 1 -2)
1969-12-31 18:00:22.796019377,(6 -1 -10 -7 3 24 3 -7)
1969-12-31 18:00:22.796019377,(23 9 -8 -8 -7 -28 7 26)
1969-12-31 18:00:22.797198821,(26 -2 -19 -7 -1 26 8 14)
1969-12-31 18:00:22.797198821,(-46 -24 12 3 -5 -13 -21 -35)
1969-12-31 18:00:22.823146588,(-7 5 12 14 7 16 16 24)
1969-12-31 18:00:22.823146588,(43 21 5 4 2 -5 -1 9)
1969-12-31 18:00:22.823146588,(2 5 -1 -7 -2 10 4 -3)
1969-12-31 18:00:22.823146588,(-11 -11 -14 -8 -6 -10 -5 22)
1969-12-31 18:00:22.839658804,(6 -13 -12 -13 -8 -4 -12 -15)
1969-12-31 18:00:22.839658804,(23 2 5 4 3 5 20 41)
1969-12-31 18:00:22.840838248,(-27 -5 -4 -3 0 4 -6 -26)
1969-12-31 18:00:22.840838248,(-14 0 0 -4 -7 -12 -12 -17)
1969-12-31 18:00:22.866786015,(38 18 6 5 7 24 18 33)
1969-12-31 18:00:22.867965459,(2 -3 1 0 -2 -9 2 6)
1969-12-31 18:00:22.867965459,(-25 -11 -7 1 1 1 5 0)
1969-12-31 18:00:22.867965459,(-5 -9 -14 -17 -7 -5 -15 -46)
1969-12-31 18:00:22.892733783,(15 27 24 12 2 11 3 -22)
1969-12-31 18:00:22.892733783,(-3 -17 -16 -1 -5 -14 -6 7)
1969-12-31 18:00:22.900989890,(-22 1 16 2 -4 -2 -5 -10)
1969-12-31 18:00:22.900989890,(7 -2 -20 -10 -6 -2 5 10)
1969-12-31 18:00:22.911604886,(14 -6 -7 -4 5 9 5 21)
1969-12-31 18:00:22.911604886,(1 13 10 4 1 -8 -7 -21)
1969-12-31 18:00:22.912784330,(9 -3 4 1 3 11 15 25)
1969-12-31 18:00:22.912784330,(-8 8 -7 -2 -2 -4 -4 -13)
1969-12-31 18:00:22.937552654,(18 40 38 18 7 11 -5 13)
1969-12-31 18:00:22.937552654,(-3 -29 -12 -4 -3 -4 19 21)
1969-12-31 18:00:22.938732098,(-3 -4 -1 -4 -5 -4 -25 -28)
1969-12-31 18:00:22.938732098,(-7 49 41 13 3 -1 8 3)
1969-12-31 18:00:22.964679865,(-11 -70 -73 -34 -15 -8 -16 -5)
1969-12-31 18:00:22.964679865,(8 17 -2 -6 -2 -3 -3 4)
1969-12-31 18:00:22.965859309,(-1 31 37 25 14 16 32 -3)
1969-12-31 18:00:22.965859309,(-12 -20 -6 -6 -11 -11 -28 -12)
1969-12-31 18:00:22.981192081,(3 -32 -29 -15 -6 2 -13 2)
1969-12-31 18:00:22.981192081,(2 -21 -55 -33 -11 -10 -2 2)
1969-12-31 18:00:22.982371525,(-15 56 60 24 7 -2 -9 -14)
1969-12-31 18:00:22.982371525,(12 -18 -48 -16 -7 1 3 12)
1969-12-31 18:00:23.008319292,(0 62 102 58 15 8 19 9)
1969-12-31 18:00:23.008319292,(-14 -70 -32 -4 0 3 -13 -8)
1969-12-31 18:00:23.009498736,(-8 -19 -11 -4 -4 0 -13 -16)
1969-12-31 18:00:23.009498736,(-6 -2 -31 -16 -8 -5 3 -5)
1969-12-31 18:00:23.035446504,(15 11 -10 -20 -5 -1 9 6)
1969-12-31 18:00:23.035446504,(4 65 74 42 16 3 4 10)
1969-12-31 18:00:23.036625948,(-2 -13 -2 -1 -2 1 6 2)
1969-12-31 18:00:23.036625948,(-12 -57 -48 -24 -9 -3 -9 -6)
1969-12-31 18:00:23.050779275,(-3 -33 -32 -14 -7 -2 8 3)
1969-12-31 18:00:23.050779275,(-3 7 16 9 0 3 13 1)
1969-12-31 18:00:23.061394271,(2 33 24 8 1 3 -23 -5)
1969-12-31 18:00:23.061394271,(-6 -14 -8 -1 -3 -6 -6 -8)
1969-12-31 18:00:23.079085931,(10 34 22 9 7 6 11 9)
1969-12-31 18:00:23.079085931,(7 -28 -29 -15 -7 -1 -2 2)
1969-12-31 18:00:23.081444819,(-12 4 21 8 -2 -3 -7 -11)
1969-12-31 18:00:23.081444819,(1 9 13 -2 -3 -1 6 -1)
1969-12-31 18:00:23.106213142,(-20 -45 -6 3 0 1 -18 -15)
1969-12-31 18:00:23.106213142,(11 49 19 20 8 4 -5 -4)
1969-12-31 18:00:23.107392586,(-1 -56 -49 -27 -12 -6 -2 5)
1969-12-31 18:00:23.108572030,(-25 -24 11 3 2 -2 -1 3)
1969-12-31 18:00:23.121545914,(38 77 57 31 10 3 15 12)
1969-12-31 18:00:23.121545914,(-8 -28 -11 -5 -1 -11 -8 -5)
1969-12-31 18:00:23.132160910,(0 -13 -26 -16 -5 -7 19 10)
1969-12-31 18:00:23.132160910,(5 -10 3 -1 0 -7 -13 -3)
1969-12-31 18:00:23.159288121,(-10 0 -3 -15 -8 -9 -6 -3)
1969-12-31 18:00:23.159288121,(-1 20 19 6 2 -7 -2 -1)
1969-12-31 18:00:23.160467565,(-6 4 -7 -5 -1 0 13 2)
1969-12-31 18:00:23.160467565,(13 11 -11 -3 -1 -6 1 -1)
1969-12-31 18:00:23.176979781,(-14 -46 -34 -11 -4 -2 -18 -2)
1969-12-31 18:00:23.176979781,(0 34 18 2 2 4 8 -2)
1969-12-31 18:00:23.178159225,(-11 -25 -17 -16 -9 -9 -12 -3)
1969-12-31 18:00:23.178159225,(-3 9 25 12 1 1 -1 -3)
1969-12-31 18:00:23.192312553,(2 -17 -14 -8 0 6 9 6)
1969-12-31 18:00:23.192312553,(5 50 13 -5 -3 5 -2 -5)
1969-12-31 18:00:23.212363100,(-5 -65 -21 -3 -3 7 -13 -10)
1969-12-31 18:00:23.212363100,(3 65 48 25 11 31 7 -14)
1969-12-31 18:00:23.219439764,(-8 17 9 6 -1 29 1 -14)
1969-12-31 18:00:23.219439764,(0 -27 -12 -1 -7 18 -5 -7)
1969-12-31 18:00:23.230054760,(3 -5 -19 -7 -10 2 -1 -1)
1969-12-31 18:00:23.230054760,(2 -5 -15 -3 -6 -9 1 11)
1969-12-31 18:00:23.247746420,(1 -19 -26 1 0 -22 2 12)
1969-12-31 18:00:23.247746420,(-2 -17 -21 -7 0 -27 3 18)
1969-12-31 18:00:23.248925864,(9 14 -11 -3 7 -38 11 16)
1969-12-31 18:00:23.248925864,(1 -2 3 -4 7 -31 -4 9)
1969-12-31 18:00:23.263079191,(-3 10 -20 -19 0 -20 4 4)
1969-12-31 18:00:23.263079191,(-5 -6 13 0 2 -4 -7 -4)
1969-12-31 18:00:23.273694187,(-1 8 -4 -3 4 21 2 -5)
1969-12-31 18:00:23.273694187,(-1 -4 4 4 4 28 2 -4)
1969-12-31 18:00:23.291385847,(2 8 6 -1 -4 13 0 -1)
1969-12-31 18:00:23.291385847,(0 -4 5 5 2 5 -1 -1)
1969-12-31 18:00:23.293744735,(-7 -35 -30 -17 -11 -3 -4 -5)
1969-12-31 18:00:23.293744735,(5 26 16 5 -1 -1 -8 -10)
1969-12-31 18:00:23.317333614,(4 -12 -16 -8 -6 -7 8 13)
1969-12-31 18:00:23.318513058,(3 16 12 4 2 -10 -7 -6)
1969-12-31 18:00:23.319692502,(-2 -18 -31 -16 -4 -8 2 3)
1969-12-31 18:00:23.319692502,(-7 -8 14 10 4 -1 5 4)
1969-12-31 18:00:23.333845830,(6 21 7 -2 -1 -1 -2 1)
1969-12-31 18:00:23.333845830,(-10 -9 -11 -8 -4 -3 -5 -7)
1969-12-31 18:00:23.344460826,(-2 -12 -6 -6 -4 3 -4 -3)
1969-12-31 18:00:23.344460826,(3 16 10 1 -1 2 1 -2)
1969-12-31 18:00:23.362152485,(0 3 6 1 2 4 -1 -2)
1969-12-31 18:00:23.362152485,(-7 -17 2 4 -2 3 -1 -6)
1969-12-31 18:00:23.364511373,(2 22 16 7 1 4 -5 -4)
1969-12-31 18:00:23.364511373,(-6 -18 -5 -2 -2 1 -3 -3)
1969-12-31 18:00:23.364511373,(1 3 -6 -4 -2 -3 -1 -1)
1969-12-31 18:00:23.364511373,(0 -1 8 4 1 0 1 0)
1969-12-31 18:00:23.373946925,(-3 3 2 -1 0 -3 -2 -1)
1969-12-31 18:00:23.373946925,(-1 -6 -5 -5 -4 -1 0 0)
1969-12-31 18:00:23.381023589,(0 -7 -5 -2 -3 -2 -1 0)
1969-12-31 18:00:23.381023589,(0 3 2 1 -1 -1 -3 -3)
1969-12-31 18:00:23.391638585,(-2 -7 -8 -3 -1 0 -1 1)
1969-12-31 18:00:23.391638585,(-2 1 1 -3 -2 -1 -1 -2)
1969-12-31 18:00:23.409330244,(-2 -3 1 3 -3 -1 -2 -2)
1969-12-31 18:00:23.409330244,(1 4 -4 -6 -2 -1 1 2)
1969-12-31 18:00:23.411689132,(-1 2 0 1 -1 -3 -3 -4)
1969-12-31 18:00:23.411689132,(1 -4 -4 -4 -2 0 2 2)
1969-12-31 18:00:23.436457456,(-1 -2 -7 -8 -3 -3 -1 1)
1969-12-31 18:00:23.436457456,(-5 -11 -8 -11 -5 -1 -3 -5)
1969-12-31 18:00:23.438816344,(2 7 14 20 8 2 2 2)
1969-12-31 18:00:23.438816344,(-3 -3 -2 -8 -4 -1 -3 -2)
1969-12-31 18:00:23.451790227,(-1 -10 -4 -1 -1 2 0 0)
1969-12-31 18:00:23.451790227,(8 24 13 20 8 2 3 4)
1969-12-31 18:00:23.462405223,(0 5 6 4 1 0 1 0)
1969-12-31 18:00:23.462405223,(1 4 -3 -6 -4 -4 -4 -7)
1969-12-31 18:00:23.480096883,(-8 -18 -34 -23 -8 -2 -3 -5)
1969-12-31 18:00:23.480096883,(-10 -13 -19 -36 -14 -7 -8 -9)
1969-12-31 18:00:23.482455771,(-2 -8 31 28 1 -4 -3 -2)
1969-12-31 18:00:23.482455771,(-2 0 -16 -10 -4 -2 -1 -2)
1969-12-31 18:00:23.506044650,(4 3 -7 16 14 3 4 3)
1969-12-31 18:00:23.506044650,(5 11 56 51 15 5 4 5)
1969-12-31 18:00:23.515480202,(-4 5 -38 -38 -5 0 1 -2)
1969-12-31 18:00:23.515480202,(2 -9 29 69 14 0 1 3)
1969-12-31 18:00:23.522556866,(4 7 18 -1 0 2 1 1)
1969-12-31 18:00:23.522556866,(-11 -22 -64 -44 -13 -6 -3 -4)
1969-12-31 18:00:23.534351306,(2 35 42 4 -3 -3 -3 -1)
1969-12-31 18:00:23.534351306,(-3 2 -10 -31 -9 -4 -4 -1)
1969-12-31 18:00:23.550863521,(0 9 -56 -13 -10 -10 -5 -5)
1969-12-31 18:00:23.550863521,(-5 -22 101 24 9 -4 4 4)
1969-12-31 18:00:23.553222409,(18 49 -40 -11 4 -3 0 2)
1969-12-31 18:00:23.553222409,(-2 36 14 5 7 -2 1 1)
1969-12-31 18:00:23.577990733,(-3 -14 17 11 2 -10 1 1)
1969-12-31 18:00:23.577990733,(2 1 -34 -22 -2 -9 3 5)
1969-12-31 18:00:23.579170177,(1 -38 -53 -21 -3 -12 1 5)
1969-12-31 18:00:23.579170177,(1 0 28 15 12 -3 3 7)
1969-12-31 18:00:23.594502949,(-1 12 2 0 3 -3 -1 -1)
1969-12-31 18:00:23.594502949,(-4 3 -35 -13 -4 -1 -5 -3)
1969-12-31 18:00:23.603938500,(-11 -24 20 7 0 7 -3 -6)
1969-12-31 18:00:23.603938500,(1 -8 -30 -14 -6 9 -2 -5)
1969-12-31 18:00:23.620450716,(-2 -4 5 -10 -9 6 -3 -6)
1969-12-31 18:00:23.620450716,(-4 -8 4 10 0 12 -2 -6)
1969-12-31 18:00:23.631065712,(-1 1 38 20 1 6 -2 -8)
1969-12-31 18:00:23.631065712,(-2 -9 -5 -4 -5 4 0 -7)
1969-12-31 18:00:23.648757372,(-12 -38 3 -4 -5 1 0 -5)
1969-12-31 18:00:23.648757372,(12 22 20 24 3 4 0 -1)
1969-12-31 18:00:23.649936816,(10 34 2 -2 -2 4 -1 -2)
1969-12-31 18:00:23.649936816,(11 -8 -17 -10 -7 -1 -2 1)
1969-12-31 18:00:23.664090143,(-7 11 23 12 3 5 0 -4)
1969-12-31 18:00:23.664090143,(-17 -23 -27 -7 -5 -1 -6 -13)
1969-12-31 18:00:23.681781803,(-3 -21 -12 -13 -8 1 -2 -2)
1969-12-31 18:00:23.681781803,(-14 -15 -5 -2 -3 1 -2 -7)
1969-12-31 18:00:23.692396799,(15 16 10 7 1 3 1 1)
1969-12-31 18:00:23.692396799,(-6 -3 -9 -1 -1 -1 -1 8)
1969-12-31 18:00:23.694755687,(-12 -15 -6 -2 -3 -1 -2 -12)
1969-12-31 18:00:23.694755687,(8 -1 4 0 -3 -2 2 10)
1969-12-31 18:00:23.719524010,(5 5 4 3 0 -5 -3 0)
1969-12-31 18:00:23.719524010,(7 7 -4 0 -2 -9 -4 2)
1969-12-31 18:00:23.720703454,(4 -10 -2 -1 0 2 15 12)
1969-12-31 18:00:23.720703454,(-2 -2 -5 -6 1 -10 3 3)
1969-12-31 18:00:23.734856782,(-12 -3 -2 -5 0 -4 2 -4)
1969-12-31 18:00:23.734856782,(13 8 -8 -6 -2 -14 -17 5)
1969-12-31 18:00:23.745471778,(-5 -7 0 3 2 -16 -20 -2)
1969-12-31 18:00:23.745471778,(-10 -4 -3 -4 0 -4 7 -2)
1969-12-31 18:00:23.763163437,(18 17 7 1 -4 -22 -31 -7)
1969-12-31 18:00:23.763163437,(-14 -8 1 2 2 12 -12 -2)
1969-12-31 18:00:23.765522325,(7 -2 0 -1 -1 -11 -19 -6)
1969-12-31 18:00:23.765522325,(-11 -7 -2 -5 3 72 21 17)
1969-12-31 18:00:23.807982308,(3 4 10 4 -3 -28 -6 -1)
1969-12-31 18:00:23.807982308,(-8 -1 -6 0 -6 -6 4 -22)
1969-12-31 18:00:23.810341196,(-9 -12 -3 -1 -2 6 7 -5)
1969-12-31 18:00:23.810341196,(-2 -5 -2 1 0 -8 -17 -16)
1969-12-31 18:00:23.811520640,(5 5 -1 -1 -6 -35 -15 10)
1969-12-31 18:00:23.811520640,(6 -1 -4 -3 2 47 1 11)
1969-12-31 18:00:23.816238416,(-25 -9 -3 -5 -7 -7 3 -35)
1969-12-31 18:00:23.816238416,(20 4 4 -1 -3 -3 12 17)
1969-12-31 18:00:23.833930076,(-29 -8 -4 -1 -1 -4 24 -22)
1969-12-31 18:00:23.833930076,(8 7 3 -1 -6 -63 -37 -9)
1969-12-31 18:00:23.836288964,(2 -4 -1 2 2 0 -37 -9)
1969-12-31 18:00:23.836288964,(-5 -5 -7 -7 -6 25 -13 -8)
1969-12-31 18:00:23.861057287,(-6 2 2 1 4 47 48 17)
1969-12-31 18:00:23.861057287,(11 3 -3 -1 2 -7 -22 -4)
1969-12-31 18:00:23.862236731,(2 4 -1 1 -1 -6 52 9)
1969-12-31 18:00:23.862236731,(-36 -14 -1 1 0 -7 6 -15)
1969-12-31 18:00:23.876390059,(5 -6 -6 -3 2 4 4 16)
1969-12-31 18:00:23.876390059,(-12 1 0 1 -1 -13 -3 -10)
1969-12-31 18:00:23.887005055,(14 5 -4 -6 6 25 -6 33)
1969-12-31 18:00:23.887005055,(33 18 5 4 4 25 4 30)
1969-12-31 18:00:23.904696714,(-19 -34 -18 -15 -19 -41 -16 -18)
1969-12-31 18:00:23.904696714,(5 2 0 -3 3 23 33 3)
1969-12-31 18:00:23.907055602,(15 4 4 1 -7 -32 6 14)
1969-12-31 18:00:23.907055602,(-1 -3 -2 -3 0 -2 -6 9)
1969-12-31 18:00:23.930644482,(-5 5 4 1 -1 -4 -10 -4)
1969-12-31 18:00:23.930644482,(14 6 2 5 12 45 -10 9)
1969-12-31 18:00:23.940080034,(-8 -4 -3 -2 -10 -51 22 -12)
1969-12-31 18:00:23.940080034,(-7 0 4 4 7 32 -2 -30)
1969-12-31 18:00:23.947156698,(-13 4 0 -2 -9 -37 -19 9)
1969-12-31 18:00:23.947156698,(-4 -13 -12 -10 -4 23 30 -30)
1969-12-31 18:00:23.957771693,(-1 6 13 11 4 11 -3 18)
1969-12-31 18:00:23.957771693,(2 -2 -1 2 4 -10 3 -16)
1969-12-31 18:00:23.975463353,(7 -2 0 -1 0 9 -2 -24)
1969-12-31 18:00:23.975463353,(7 9 1 0 1 -14 29 48)
1969-12-31 18:00:23.977822241,(-12 -12 -11 -9 -9 -3 -11 -24)
1969-12-31 18:00:23.977822241,(12 8 2 -1 -3 -20 9 8)
1969-12-31 18:00:24.002590564,(4 5 7 6 5 26 -8 -8)
1969-12-31 18:00:24.002590564,(8 -15 -11 -7 -4 -9 16 51)
1969-12-31 18:00:24.009667228,(2 -3 -2 1 5 24 18 12)
1969-12-31 18:00:24.009667228,(-10 -6 0 -4 -5 -41 -49 -9)
1969-12-31 18:00:24.017923336,(11 2 -1 0 3 24 5 -20)
1969-12-31 18:00:24.017923336,(0 27 22 17 15 40 -25 -20)
1969-12-31 18:00:24.029717776,(-12 -9 -9 -9 -6 -23 -49 -10)
1969-12-31 18:00:24.029717776,(-9 -2 -2 -1 -3 -9 4 -16)
1969-12-31 18:00:24.046229992,(13 4 1 -1 -2 -31 -23 3)
1969-12-31 18:00:24.046229992,(-16 -8 -5 -6 -6 -17 -1 -23)
1969-12-31 18:00:24.053306655,(22 17 21 16 8 1 12 74)
1969-12-31 18:00:24.053306655,(-27 -11 -6 -2 0 25 2 -66)
1969-12-31 18:00:24.073357203,(-8 -3 -3 -4 2 28 6 8)
1969-12-31 18:00:24.073357203,(3 -3 -2 -2 -2 14 12 14)
1969-12-31 18:00:24.074536647,(-11 -7 -4 -4 -9 -51 -6 -4)
1969-12-31 18:00:24.074536647,(1 -4 -7 -3 -1 -13 7 22)
1969-12-31 18:00:24.088689975,(-1 -7 -8 -2 0 9 15 20)
1969-12-31 18:00:24.089869419,(0 1 3 1 -6 -31 -2 -25)
1969-12-31 18:00:24.100484414,(3 -3 -7 -6 3 58 10 -19)
1969-12-31 18:00:24.100484414,(37 15 12 11 7 -21 10 99)
1969-12-31 18:00:24.134688290,(-34 -5 1 3 1 20 -6 -67)
1969-12-31 18:00:24.134688290,(-2 -12 -10 -12 -16 -40 -27 -29)
1969-12-31 18:00:24.137047178,(-10 -2 -2 -2 1 -7 -33 -38)
1969-12-31 18:00:24.137047178,(22 2 0 -4 -21 -105 -54 -8)
1969-12-31 18:00:24.144123842,(-10 -1 -3 -4 1 63 -6 -31)
1969-12-31 18:00:24.144123842,(-18 -11 -4 -5 -13 -20 10 -47)
1969-12-31 18:00:24.145303286,(-6 -4 -1 -3 -1 12 -25 -17)
1969-12-31 18:00:24.145303286,(8 2 0 -3 2 27 26 -10)
1969-12-31 18:00:24.170071609,(6 8 1 -1 -2 -51 3 50)
1969-12-31 18:00:24.170071609,(-16 -17 -7 -6 -5 31 -6 -44)
1969-12-31 18:00:24.172430497,(15 6 -4 -3 -1 17 17 5)
1969-12-31 18:00:24.172430497,(-13 -8 -7 -5 -3 -18 -10 -7)
1969-12-31 18:00:24.187763269,(16 6 3 0 2 6 9 28)
1969-12-31 18:00:24.187763269,(11 13 5 5 6 3 10 31)
1969-12-31 18:00:24.194839933,(0 -10 -4 -4 -2 3 0 -15)
1969-12-31 18:00:24.194839933,(-5 6 1 2 2 11 7 -12)
1969-12-31 18:00:24.214890480,(-5 -15 -15 -10 -6 -5 -3 -2)
1969-12-31 18:00:24.214890480,(-8 -8 -5 -5 0 -1 3 2)
1969-12-31 18:00:24.216069924,(-10 12 19 14 4 6 13 1)
1969-12-31 18:00:24.216069924,(-4 -1 -1 2 5 32 -22 24)
1969-12-31 18:00:24.240838248,(7 0 -3 -7 -10 -15 -28 3)
1969-12-31 18:00:24.240838248,(5 6 -2 -1 -9 -58 3 9)
1969-12-31 18:00:24.243197136,(-14 -6 -5 -4 -4 -4 5 -6)
1969-12-31 18:00:24.243197136,(-14 -11 -6 -6 0 15 13 5)
1969-12-31 18:00:24.257350463,(39 3 0 3 5 13 13 47)
1969-12-31 18:00:24.257350463,(-3 -1 2 1 2 8 -11 -26)
1969-12-31 18:00:24.267965459,(-3 -1 -1 1 2 9 3 6)
1969-12-31 18:00:24.267965459,(-10 1 3 1 -1 -6 3 -42)
1969-12-31 18:00:24.285657119,(-25 -11 -4 -1 -2 -4 -9 -25)
1969-12-31 18:00:24.285657119,(5 2 -1 -2 0 5 7 39)
1969-12-31 18:00:24.286836563,(9 14 2 -1 1 5 1 -24)
1969-12-31 18:00:24.286836563,(2 -11 -2 1 1 0 3 12)
1969-12-31 18:00:24.311604886,(-20 -24 -6 -4 0 -2 11 -10)
1969-12-31 18:00:24.311604886,(8 8 6 3 5 12 -1 19)
1969-12-31 18:00:24.313963774,(5 2 -1 0 0 4 0 16)
1969-12-31 18:00:24.313963774,(11 -1 -6 -6 -7 -7 2 -1)
1969-12-31 18:00:24.328117102,(37 34 20 13 9 11 5 -31)
1969-12-31 18:00:24.328117102,(-47 -24 -12 -4 -2 -2 -10 -19)
1969-12-31 18:00:24.336373210,(11 4 1 -1 4 6 4 35)
1969-12-31 18:00:24.336373210,(0 -2 -5 -7 -6 -12 7 16)
1969-12-31 18:00:24.356423757,(-31 -15 -6 -3 0 16 -28 -48)
1969-12-31 18:00:24.356423757,(44 16 0 -1 -1 1 8 15)
1969-12-31 18:00:24.357603201,(-4 -3 -1 -1 -4 -24 -24 -26)
1969-12-31 18:00:24.357603201,(-24 -5 -3 -1 0 2 15 -7)
1969-12-31 18:00:24.382371525,(6 9 5 0 -2 -6 -1 16)
1969-12-31 18:00:24.382371525,(-27 5 9 11 12 29 7 9)
1969-12-31 18:00:24.384730413,(-11 -28 -20 -18 -12 9 20 -31)
1969-12-31 18:00:24.384730413,(1 8 1 -1 0 18 -5 -1)
1969-12-31 18:00:24.400063184,(11 -3 2 6 1 -17 11 54)
1969-12-31 18:00:24.400063184,(11 3 2 0 2 7 7 22)
1969-12-31 18:00:24.407139848,(-28 -12 -3 -3 -2 4 3 -43)
1969-12-31 18:00:24.407139848,(31 -2 -5 -2 -3 -7 -7 18)
1969-12-31 18:00:24.426010952,(8 12 0 -3 1 8 12 35)
1969-12-31 18:00:24.426010952,(3 -8 -14 -15 -14 -10 -11 -8)
1969-12-31 18:00:24.435446504,(16 9 3 4 5 -7 -15 27)
1969-12-31 18:00:24.435446504,(19 15 10 9 8 3 8 4)
1969-12-31 18:00:24.453138163,(-29 -7 -6 -3 -3 -10 -17 -67)
1969-12-31 18:00:24.453138163,(8 11 5 2 -2 -23 -18 4)
1969-12-31 18:00:24.455497051,(-17 2 -3 -2 -6 -8 30 24)
1969-12-31 18:00:24.455497051,(-12 -17 -4 -1 1 -8 -22 -16)
1969-12-31 18:00:24.469650379,(4 6 5 5 0 0 -1 52)
1969-12-31 18:00:24.469650379,(32 10 5 3 2 0 1 16)
1969-12-31 18:00:24.480265375,(-14 2 6 6 6 14 -1 -26)
1969-12-31 18:00:24.480265375,(0 -11 -12 -10 -11 -12 -30 -63)
1969-12-31 18:00:24.497957035,(-33 -33 -20 -14 -9 19 -9 -4)
1969-12-31 18:00:24.497957035,(10 19 8 4 1 -15 -12 1)
1969-12-31 18:00:24.499136479,(1 -9 -8 -6 -1 5 -10 -38)
1969-12-31 18:00:24.499136479,(10 10 4 2 2 1 17 18)
1969-12-31 18:00:24.523904802,(2 -3 -4 -2 -3 -15 -1 10)
1969-12-31 18:00:24.523904802,(1 8 1 1 1 18 10 -9)
1969-12-31 18:00:24.526263690,(27 6 4 3 4 14 13 48)
1969-12-31 18:00:24.526263690,(-16 1 -2 -4 -5 -11 -10 -31)
1969-12-31 18:00:24.540417018,(-17 -10 -4 -6 -4 -9 -5 -102)
1969-12-31 18:00:24.540417018,(-17 -13 -2 1 1 6 9 10)
1969-12-31 18:00:24.551032013,(3 0 -4 -2 -3 -19 -9 4)
1969-12-31 18:00:24.551032013,(-15 8 5 5 2 -1 0 -23)
1969-12-31 18:00:24.568723673,(18 -3 -1 -1 0 4 22 43)
1969-12-31 18:00:24.568723673,(-12 -10 -2 0 -1 -1 2 -9)
1969-12-31 18:00:24.569903117,(-18 -5 -2 0 2 1 -9 1)
1969-12-31 18:00:24.569903117,(-14 -1 1 0 3 10 16 52)
1969-12-31 18:00:24.594671441,(14 13 5 2 1 13 11 29)
1969-12-31 18:00:24.594671441,(-14 -13 -4 -2 3 -6 -12 -7)
1969-12-31 18:00:24.604106992,(13 8 3 2 -3 -7 -9 4)
1969-12-31 18:00:24.604106992,(-34 -2 3 -1 -8 -25 -4 0)
1969-12-31 18:00:24.611183656,(-3 -7 -5 -1 6 -38 31 75)
1969-12-31 18:00:24.611183656,(2 4 -1 1 14 2 12 -7)
1969-12-31 18:00:24.621798652,(12 0 -1 7 20 34 1 -4)
1969-12-31 18:00:24.621798652,(-6 -7 -3 -13 -37 -64 -28 -3)
1969-12-31 18:00:24.639490312,(3 3 2 -2 -26 -18 -15 -11)
1969-12-31 18:00:24.639490312,(35 10 5 6 4 24 34 76)
1969-12-31 18:00:24.640669756,(4 -12 -8 -5 2 -8 0 67)
1969-12-31 18:00:24.640669756,(55 9 -4 -1 13 32 11 5)
1969-12-31 18:00:24.665438079,(-47 -15 -6 -4 7 6 -36 -77)
1969-12-31 18:00:24.665438079,(7 3 0 1 -9 -7 1 6)
1969-12-31 18:00:24.667796967,(-16 -10 -1 3 6 13 1 -28)
1969-12-31 18:00:24.667796967,(1 -2 0 -1 -3 14 5 -7)
1969-12-31 18:00:24.681950295,(31 18 4 0 -2 -4 3 21)
1969-12-31 18:00:24.681950295,(-17 -15 -6 -7 -12 -22 -15 -19)
1969-12-31 18:00:24.692565291,(-5 -3 -4 -11 -29 -26 -9 2)
1969-12-31 18:00:24.692565291,(-6 4 4 8 15 8 10 5)
1969-12-31 18:00:24.710256950,(3 3 -1 -3 10 35 8 7)
1969-12-31 18:00:24.710256950,(-21 -1 0 7 41 2 -2 -40)
1969-12-31 18:00:24.711436394,(5 -1 -3 -8 -57 -34 -16 -10)
1969-12-31 18:00:24.711436394,(-18 -18 -9 -7 7 4 1 -6)
1969-12-31 18:00:24.736204718,(30 37 15 9 -3 22 17 9)
1969-12-31 18:00:24.736204718,(-31 -26 -10 -18 -49 -28 -14 -9)
1969-12-31 18:00:24.738563606,(-21 -15 -9 -11 13 -2 -14 -39)
1969-12-31 18:00:24.738563606,(-8 -4 -2 2 9 2 3 12)
1969-12-31 18:00:24.752716933,(22 -4 -3 10 27 14 10 25)
1969-12-31 18:00:24.752716933,(5 10 1 2 6 19 3 6)
1969-12-31 18:00:24.763331929,(15 17 3 -1 5 -5 -2 9)
1969-12-31 18:00:24.763331929,(-14 -18 -22 -7 -6 2 -1 5)
1969-12-31 18:00:24.781023589,(-14 -5 22 9 17 3 7 -5)
1969-12-31 18:00:24.781023589,(-45 4 0 -1 6 8 -21 -90)
1969-12-31 18:00:24.788100253,(-4 -7 -7 0 -3 -6 7 29)
1969-12-31 18:00:24.788100253,(26 9 -7 -27 -93 -39 -6 22)
1969-12-31 18:00:24.806971356,(3 4 -2 -4 -5 -6 -5 2)
1969-12-31 18:00:24.806971356,(7 -21 -8 -3 5 -3 1 4)
1969-12-31 18:00:24.809330244,(10 19 2 11 55 40 9 -2)
1969-12-31 18:00:24.809330244,(-29 21 58 28 17 10 4 -15)
1969-12-31 18:00:24.823483572,(11 0 -14 -11 -21 -20 -24 -4)
1969-12-31 18:00:24.823483572,(42 11 5 3 17 23 17 36)
1969-12-31 18:00:24.834098568,(3 -66 -81 -18 4 -8 8 -9)
1969-12-31 18:00:24.834098568,(20 15 2 -1 31 32 3 10)
1969-12-31 18:00:24.850610783,(-23 18 39 19 -27 -32 8 5)
1969-12-31 18:00:24.851790227,(-1 0 7 -10 -38 -16 -18 -11)
1969-12-31 18:00:24.852969671,(15 9 27 0 -28 -1 4 21)
1969-12-31 18:00:24.852969671,(47 -23 -57 -7 33 10 2 37)
1969-12-31 18:00:24.877737995,(5 -5 -25 -20 -9 -14 -7 -25)
1969-12-31 18:00:24.877737995,(-6 5 18 15 21 18 30 53)
1969-12-31 18:00:24.880096883,(-16 19 13 10 41 29 12 -7)
1969-12-31 18:00:24.880096883,(-2 11 -7 1 -9 7 18 39)
1969-12-31 18:00:24.894250211,(-24 -51 -24 -7 52 44 2 6)
1969-12-31 18:00:24.894250211,(29 51 50 2 -96 -64 23 94)
1969-12-31 18:00:24.913121314,(-8 13 4 -10 -21 -27 -33 -38)
1969-12-31 18:00:24.913121314,(-12 -6 38 32 24 11 3 -24)
1969-12-31 18:00:24.921377422,(5 -16 -41 -1 23 20 0 -12)
1969-12-31 18:00:24.921377422,(-19 -49 -32 -12 38 34 26 -2)
1969-12-31 18:00:24.930812974,(-34 17 49 9 -27 -3 12 -2)
1969-12-31 18:00:24.930812974,(-22 8 -29 -22 -9 -18 -19 -27)
1969-12-31 18:00:24.948504634,(5 21 14 -4 -32 -22 -8 7)
1969-12-31 18:00:24.948504634,(30 15 -29 6 32 20 0 -31)
1969-12-31 18:00:24.950863521,(-19 6 52 33 49 28 -3 -16)
1969-12-31 18:00:24.950863521,(-5 -78 -46 -25 -64 -46 -32 -1)
1969-12-31 18:00:24.965016849,(-23 -31 -37 -33 -52 -20 1 -37)
1969-12-31 18:00:24.965016849,(-38 -18 -12 -21 -27 -48 -48 -32)
1969-12-31 18:00:24.975631845,(72 -38 -56 -8 29 17 26 49)
1969-12-31 18:00:24.975631845,(-23 81 73 18 29 46 26 7)
1969-12-31 18:00:24.993323505,(-3 -8 26 41 51 -7 -9 33)
1969-12-31 18:00:24.993323505,(95 20 -49 -11 -47 -4 7 78)
1969-12-31 18:00:24.994502949,(-50 67 25 -32 -35 -27 -18 -13)
1969-12-31 18:00:24.994502949,(-71 6 82 50 53 17 -17 -46)
1969-12-31 18:00:25.019271272,(20 16 -28 -12 -37 -22 1 -33)
1969-12-31 18:00:25.019271272,(-63 -79 -15 0 36 -1 -39 -55)
1969-12-31 18:00:25.021630160,(53 -16 -64 -19 0 6 25 48)
1969-12-31 18:00:25.021630160,(-39 -74 -64 -41 -37 -11 -11 -43)
1969-12-31 18:00:25.035783488,(29 82 59 30 32 14 15 60)
1969-12-31 18:00:25.035783488,(-2 47 21 14 19 -1 -25 -104)
1969-12-31 18:00:25.046398484,(12 -31 -1 1 -37 -7 15 15)
1969-12-31 18:00:25.046398484,(56 -20 -19 10 42 25 31 54)
1969-12-31 18:00:25.064090143,(0 -25 -18 -13 -46 -27 -18 -23)
1969-12-31 18:00:25.064090143,(27 23 9 -6 11 -4 -10 18)
1969-12-31 18:00:25.065269587,(-10 10 -6 9 43 50 -8 -28)
1969-12-31 18:00:25.065269587,(-30 -9 -1 -20 -52 -37 0 -45)
1969-12-31 18:00:25.088858467,(-13 -56 -24 -31 -59 -67 -18 41)
1969-12-31 18:00:25.088858467,(20 -4 -14 2 11 36 27 15)
1969-12-31 18:00:25.099473463,(-37 16 14 12 25 -33 -25 -67)
1969-12-31 18:00:25.099473463,(7 96 62 37 25 20 -4 12)
1969-12-31 18:00:25.106550126,(-11 -75 -15 -4 38 57 31 -7)
1969-12-31 18:00:25.106550126,(-40 -28 -12 -19 -36 -43 -18 -21)
1969-12-31 18:00:25.117165122,(10 -128 -90 -23 -10 -1 -18 3)
1969-12-31 18:00:25.117165122,(39 30 -51 -22 12 16 -7 -61)
1969-12-31 18:00:25.134856782,(-84 79 49 18 -48 -60 -53 -122)
1969-12-31 18:00:25.134856782,(29 35 30 18 29 17 13 42)
1969-12-31 18:00:25.136036226,(-77 -50 0 -6 -19 -9 -17 -71)
1969-12-31 18:00:25.136036226,(5 -44 -29 -21 -32 -36 -8 13)
1969-12-31 18:00:25.160804549,(66 -25 -61 -10 46 54 35 30)
1969-12-31 18:00:25.160804549,(-88 25 84 40 23 16 3 -34)
1969-12-31 18:00:25.163163437,(55 -37 -58 -38 -10 -17 -2 24)
1969-12-31 18:00:25.163163437,(-46 82 83 23 -29 -16 -22 -26)
1969-12-31 18:00:25.177316765,(8 60 22 10 24 10 -15 -6)
1969-12-31 18:00:25.177316765,(12 -104 -92 -35 -25 8 31 45)
1969-12-31 18:00:25.187931761,(-8 110 113 37 1 -15 -10 22)
1969-12-31 18:00:25.187931761,(16 -32 -51 -5 2 6 7 25)
1969-12-31 18:00:25.204443976,(0 -17 1 -26 -64 -38 -26 -15)
1969-12-31 18:00:25.204443976,(-6 -75 -38 -2 -10 -18 -17 -19)
1969-12-31 18:00:25.212700084,(-24 58 10 -22 -12 4 27 7)
1969-12-31 18:00:25.212700084,(10 7 17 21 55 32 7 21)
1969-12-31 18:00:25.231571188,(13 -5 -2 14 40 20 16 40)
1969-12-31 18:00:25.231571188,(33 -23 -8 8 5 -16 -4 36)
1969-12-31 18:00:25.233930076,(-7 -104 -68 -32 -49 -17 8 -3)
1969-12-31 18:00:25.233930076,(41 89 91 21 -18 -30 -40 3)
1969-12-31 18:00:25.257518955,(-34 41 24 7 20 45 35 -10)
1969-12-31 18:00:25.257518955,(-17 -91 -66 -26 -6 -7 -21 -21)
1969-12-31 18:00:25.268133951,(25 34 -10 19 51 27 -10 3)
1969-12-31 18:00:25.268133951,(-1 47 39 -2 -42 -39 17 -2)
1969-12-31 18:00:25.275210615,(-15 -56 -43 -17 -12 -9 -4 -10)
1969-12-31 18:00:25.275210615,(-11 18 -11 -30 -14 7 -17 -27)
1969-12-31 18:00:25.283466723,(17 -8 33 59 87 91 51 57)
1969-12-31 18:00:25.283466723,(12 -67 -50 -42 -82 -82 -35 29)
1969-12-31 18:00:25.304696714,(-5 -8 6 -2 1 10 16 15)
1969-12-31 18:00:25.304696714,(-14 29 3 -7 -1 -1 1 -38)
1969-12-31 18:00:25.305876158,(-7 -86 -82 -29 14 -12 -21 -21)
1969-12-31 18:00:25.305876158,(-4 51 57 31 86 75 52 53)
1969-12-31 18:00:25.329465038,(-27 107 101 37 -40 -54 -55 -46)
1969-12-31 18:00:25.329465038,(21 53 27 8 -1 17 -2 -5)
1969-12-31 18:00:25.330644482,(37 -66 -60 -14 -14 -12 25 43)
