time,.data
1969/12/31/18:00:14.790,(-4 -23 -1 3 -1 3 -1 0)
1969/12/31/18:00:14.790,(2 7 2 0 -3 -2 -5 -6)
1969/12/31/18:00:14.792,(9 -7 -24 -14 -7 1 0 5)
1969/12/31/18:00:14.792,(-8 -12 -1 -4 -6 -1 9 10)
1969/12/31/18:00:14.821,(2 0 0 3 0 -7 -13 -9)
1969/12/31/18:00:14.821,(9 35 23 11 7 -2 -8 -10)
1969/12/31/18:00:14.823,(-9 -18 -11 -7 -3 -4 1 1)
1969/12/31/18:00:14.823,(-2 2 -8 -7 -3 -2 16 11)
1969/12/31/18:00:14.823,(5 5 10 10 7 -6 -14 -13)
1969/12/31/18:00:14.823,(-4 -9 -18 -8 -2 -6 -2 -5)
1969/12/31/18:00:14.827,(-1 12 5 -2 -3 -1 7 7)
1969/12/31/18:00:14.827,(6 -3 0 5 5 -3 -17 -13)
1969/12/31/18:00:14.842,(-1 -4 -9 0 -2 0 5 10)
1969/12/31/18:00:14.842,(-6 2 4 0 -3 -5 -3 -2)
1969/12/31/18:00:14.844,(3 8 11 0 1 2 -1 -4)
1969/12/31/18:00:14.844,(4 -12 -8 -1 -4 4 -2 5)
1969/12/31/18:00:14.856,(5 16 11 3 0 6 4 -7)
1969/12/31/18:00:14.856,(1 -1 4 0 -4 0 -1 -1)
1969/12/31/18:00:14.865,(-38 -18 -6 -6 -2 0 2 -5)
1969/12/31/18:00:14.865,(25 1 -6 -4 -4 -6 -10 -2)
1969/12/31/18:00:14.880,(-26 -9 -5 -5 -3 -3 5 10)
1969/12/31/18:00:14.880,(22 0 -5 -3 -1 -6 6 6)
1969/12/31/18:00:14.881,(-3 -6 -14 -5 3 -11 5 10)
1969/12/31/18:00:14.881,(-10 6 -4 -4 3 -23 -4 -16)
1969/12/31/18:00:14.902,(17 11 10 0 5 9 13 22)
1969/12/31/18:00:14.902,(-59 -26 -2 -3 2 29 12 -13)
1969/12/31/18:00:14.904,(19 6 11 4 -9 -22 -24 -5)
1969/12/31/18:00:14.904,(-8 5 16 8 3 44 0 -28)
1969/12/31/18:00:14.916,(14 2 5 1 -10 -3 2 7)
1969/12/31/18:00:14.916,(7 9 6 6 2 19 9 16)
1969/12/31/18:00:14.925,(-12 -1 -2 -2 -3 34 -19 -42)
1969/12/31/18:00:14.925,(-1 -14 -2 4 -8 -31 16 24)
1969/12/31/18:00:14.941,(-32 -14 0 5 8 17 -6 -20)
1969/12/31/18:00:14.941,(45 14 -3 -5 -3 1 13 14)
1969/12/31/18:00:14.942,(-25 -1 -1 -2 0 -29 -34 -22)
1969/12/31/18:00:14.942,(2 0 -1 1 0 -17 -19 7)
1969/12/31/18:00:14.962,(28 4 -7 -8 -2 12 28 17)
1969/12/31/18:00:14.962,(-17 -11 -9 -5 -6 -13 -10 -26)
1969/12/31/18:00:14.964,(6 2 4 1 2 3 3 1)
1969/12/31/18:00:14.964,(35 12 -5 -2 2 11 -1 17)
1969/12/31/18:00:14.976,(-96 -31 -7 -4 -2 -10 -16 -28)
1969/12/31/18:00:14.976,(15 3 -7 -4 2 1 -10 6)
1969/12/31/18:00:14.985,(12 -8 -1 -1 -2 -19 21 9)
1969/12/31/18:00:14.985,(-23 -7 -1 -2 -7 -33 -9 -15)
1969/12/31/18:00:15.000,(20 10 0 0 5 12 -1 12)
1969/12/31/18:00:15.000,(-10 -14 -11 -12 -5 33 22 -9)
1969/12/31/18:00:15.002,(33 17 10 10 5 -7 7 47)
1969/12/31/18:00:15.002,(-32 -7 -4 0 0 -16 -15 -26)
1969/12/31/18:00:15.022,(26 3 4 1 -4 -26 -11 9)
1969/12/31/18:00:15.022,(-23 -10 -7 -4 -8 -41 -11 -12)
1969/12/31/18:00:15.024,(18 12 0 -1 5 44 30 25)
1969/12/31/18:00:15.024,(-13 -12 -2 -1 6 37 8 4)
1969/12/31/18:00:15.036,(-1 2 -6 -7 -13 -38 -21 -21)
1969/12/31/18:00:15.036,(9 0 3 2 4 39 9 15)
1969/12/31/18:00:15.045,(-6 7 1 -1 -1 -16 -5 -21)
1969/12/31/18:00:15.045,(24 4 -2 0 5 10 9 7)
1969/12/31/18:00:15.076,(-7 2 5 3 5 13 18 -2)
1969/12/31/18:00:15.076,(31 18 4 5 -3 -47 -57 -13)
1969/12/31/18:00:15.077,(4 2 -3 -3 -2 14 7 8)
1969/12/31/18:00:15.077,(-14 -25 -3 0 -4 1 22 6)
1969/12/31/18:00:15.083,(-6 -15 -11 -7 -6 1 -21 -18)
1969/12/31/18:00:15.083,(-7 15 10 8 5 -6 3 -55)
1969/12/31/18:00:15.085,(-32 -16 -12 -4 -1 19 -25 28)
1969/12/31/18:00:15.085,(68 36 16 9 3 6 20 47)
1969/12/31/18:00:15.096,(11 1 -16 -14 -20 -57 -12 -17)
1969/12/31/18:00:15.096,(-36 -15 0 0 -1 2 3 12)
1969/12/31/18:00:15.105,(2 4 -1 -4 1 5 -7 -24)
1969/12/31/18:00:15.105,(-16 -13 -5 -4 -6 -4 34 41)
1969/12/31/18:00:15.120,(11 12 5 5 11 50 12 6)
1969/12/31/18:00:15.120,(27 4 -5 -7 -8 -34 4 42)
1969/12/31/18:00:15.127,(3 -5 0 0 -1 -16 19 -2)
1969/12/31/18:00:15.127,(6 -5 -8 -11 -5 15 19 23)
1969/12/31/18:00:15.142,(20 23 15 12 17 47 -26 12)
1969/12/31/18:00:15.142,(-32 -32 -13 -8 -9 -16 -5 -53)
1969/12/31/18:00:15.144,(-21 -9 -4 -7 -13 -2 0 -42)
1969/12/31/18:00:15.144,(-9 4 -4 -1 2 -6 -40 -8)
1969/12/31/18:00:15.165,(-8 11 10 8 -1 -21 -19 -40)
1969/12/31/18:00:15.165,(7 -3 0 1 2 8 12 -16)
1969/12/31/18:00:15.166,(-38 -14 -12 -10 -7 -8 -22 -67)
1969/12/31/18:00:15.166,(15 6 5 1 0 17 7 18)
1969/12/31/18:00:15.179,(-11 6 -5 -7 -7 -9 16 -5)
1969/12/31/18:00:15.179,(37 7 7 6 9 10 12 61)
1969/12/31/18:00:15.186,(-1 16 9 6 7 6 17 5)
1969/12/31/18:00:15.186,(-49 -30 -3 -2 -4 -30 -50 -98)
1969/12/31/18:00:15.202,(17 12 -2 -3 -6 12 17 8)
1969/12/31/18:00:15.202,(-18 -5 0 1 5 6 -32 -28)
1969/12/31/18:00:15.204,(39 -1 -5 -3 -3 -1 13 48)
1969/12/31/18:00:15.204,(-3 3 -4 -5 18 7 -15 -5)
1969/12/31/18:00:15.241,(-9 -14 -3 5 10 59 41 17)
1969/12/31/18:00:15.241,(-25 5 3 3 11 -64 -16 -12)
1969/12/31/18:00:15.243,(11 -5 -5 -7 -44 1 -10 -9)
1969/12/31/18:00:15.243,(8 4 0 -1 -10 11 12 28)
1969/12/31/18:00:15.244,(-27 -12 -1 2 43 15 -12 -36)
1969/12/31/18:00:15.244,(31 9 1 16 84 67 39 59)
1969/12/31/18:00:15.248,(33 6 6 8 6 4 3 -16)
1969/12/31/18:00:15.248,(-22 6 -6 -28 -105 -101 -58 -57)
1969/12/31/18:00:15.262,(-21 -10 -6 -18 -15 -37 -16 11)
1969/12/31/18:00:15.263,(-2 1 -1 -11 -31 17 6 -12)
1969/12/31/18:00:15.264,(0 5 5 14 92 52 1 -1)
1969/12/31/18:00:15.264,(-7 -9 -5 14 42 51 36 -14)
1969/12/31/18:00:15.285,(-4 -17 -3 -1 -33 -69 -40 8)
1969/12/31/18:00:15.285,(26 8 -2 0 -11 -11 10 47)
1969/12/31/18:00:15.286,(-7 -5 1 -6 -34 -25 16 74)
1969/12/31/18:00:15.286,(-5 19 11 20 70 46 23 17)
1969/12/31/18:00:15.299,(14 -4 4 28 40 34 5 -6)
1969/12/31/18:00:15.299,(11 -3 -15 -39 -110 -53 -19 2)
1969/12/31/18:00:15.306,(-31 -17 -26 -32 -28 -41 -25 -36)
1969/12/31/18:00:15.306,(-27 -7 30 19 65 54 3 -14)
1969/12/31/18:00:15.322,(32 11 -15 2 6 23 15 12)
1969/12/31/18:00:15.322,(-25 -21 10 -8 -80 -72 -38 -26)
1969/12/31/18:00:15.324,(11 14 -9 -2 11 18 9 38)
1969/12/31/18:00:15.324,(-20 23 36 -10 -55 -55 -29 -28)
1969/12/31/18:00:15.345,(-39 -24 6 5 36 17 -2 -38)
1969/12/31/18:00:15.346,(20 16 -16 18 73 58 41 77)
1969/12/31/18:00:15.347,(-50 -13 13 3 -15 -20 -24 -78)
1969/12/31/18:00:15.347,(18 2 -26 1 17 22 5 39)
1969/12/31/18:00:15.360,(15 -10 -24 -18 28 19 24 25)
1969/12/31/18:00:15.360,(-33 -9 -5 -1 -58 -24 -2 -26)
1969/12/31/18:00:15.366,(32 11 42 27 87 76 0 87)
1969/12/31/18:00:15.366,(27 -9 -20 -6 -75 -68 -11 6)
1969/12/31/18:00:15.382,(20 59 68 3 -86 -84 -7 -12)
1969/12/31/18:00:15.382,(-15 -48 -43 -10 34 2 -28 -46)
1969/12/31/18:00:15.384,(52 -63 -81 -23 0 21 58 54)
1969/12/31/18:00:15.384,(27 79 82 35 44 40 -10 48)
1969/12/31/18:00:15.405,(-7 -56 -59 -22 -15 -16 -1 21)
1969/12/31/18:00:15.405,(-8 36 55 38 44 30 -13 -46)
1969/12/31/18:00:15.407,(-43 19 42 20 28 -9 -15 -47)
1969/12/31/18:00:15.407,(-11 -67 -62 -44 -50 -27 -8 -19)
1969/12/31/18:00:15.419,(-9 -56 -23 -11 -23 -10 -9 -75)
1969/12/31/18:00:15.419,(-83 -5 -48 -48 -37 -49 -28 -61)
1969/12/31/18:00:15.426,(33 95 91 90 32 19 24 39)
1969/12/31/18:00:15.426,(-24 -93 -116 -36 33 50 17 54)
1969/12/31/18:00:15.442,(-22 47 16 -3 -60 -47 -12 -20)
1969/12/31/18:00:15.442,(-8 2 37 5 15 22 2 57)
1969/12/31/18:00:15.444,(15 -28 -54 -32 -27 -23 51 66)
1969/12/31/18:00:15.444,(-1 83 65 14 8 -12 -10 -75)
1969/12/31/18:00:15.465,(48 13 13 31 77 71 51 119)
1969/12/31/18:00:15.465,(0 -45 -4 -7 -13 1 -16 -68)
1969/12/31/18:00:15.466,(10 -32 -55 -37 -40 -35 -20 22)
1969/12/31/18:00:15.466,(-56 -15 -22 8 16 18 -1 -90)
1969/12/31/18:00:15.479,(-2 14 37 -8 -23 -30 -10 2)
1969/12/31/18:00:15.479,(-23 -53 -45 2 89 86 56 6)
1969/12/31/18:00:15.504,(-41 102 104 25 -25 -16 -8 -93)
1969/12/31/18:00:15.504,(23 -5 -9 -17 -70 -56 -11 -2)
1969/12/31/18:00:15.505,(-13 -82 -102 -53 -37 -32 -66 -72)
1969/12/31/18:00:15.505,(-7 104 82 28 37 31 65 58)
1969/12/31/18:00:15.506,(38 -19 -30 -11 -30 -4 -19 49)
1969/12/31/18:00:15.506,(74 13 7 19 77 45 26 43)
1969/12/31/18:00:15.525,(-53 -29 -11 5 9 18 33 -15)
1969/12/31/18:00:15.525,(34 -38 -39 -39 -98 -89 -49 60)
1969/12/31/18:00:15.526,(-46 -31 -55 -41 -33 -22 -23 -83)
1969/12/31/18:00:15.527,(59 29 26 21 -3 -4 45 87)
1969/12/31/18:00:15.538,(-32 37 90 45 57 35 -16 -5)
1969/12/31/18:00:15.538,(44 -18 -51 -1 52 48 29 16)
1969/12/31/18:00:15.548,(-11 72 86 38 -14 -34 -53 -63)
1969/12/31/18:00:15.548,(2 15 2 2 12 10 -17 -3)
1969/12/31/18:00:15.562,(-10 -44 -39 -11 7 23 17 -9)
1969/12/31/18:00:15.562,(6 -24 -33 -16 -33 -32 -43 -20)
1969/12/31/18:00:15.564,(-17 -43 9 20 69 44 9 -9)
1969/12/31/18:00:15.564,(14 -31 -29 19 54 41 15 29)
1969/12/31/18:00:15.585,(55 33 -2 -10 -80 -53 37 113)
1969/12/31/18:00:15.585,(-1 111 74 -25 -94 -55 4 -38)
1969/12/31/18:00:15.586,(15 -128 -128 -44 33 24 -38 -3)
1969/12/31/18:00:15.586,(-44 22 15 -16 11 9 32 34)
1969/12/31/18:00:15.599,(-19 97 57 52 53 11 -23 -3)
1969/12/31/18:00:15.599,(5 -89 -51 22 52 40 10 -5)
1969/12/31/18:00:15.608,(41 29 -14 -6 15 0 -1 -6)
1969/12/31/18:00:15.608,(-28 45 43 4 -82 -50 0 16)
1969/12/31/18:00:15.623,(31 -45 -49 -15 0 -9 -30 -55)
1969/12/31/18:00:15.623,(-16 40 63 33 18 29 15 6)
1969/12/31/18:00:15.625,(-16 -20 -27 -27 -52 -64 -10 21)
1969/12/31/18:00:15.625,(4 -51 -52 -24 -9 8 -1 -40)
1969/12/31/18:00:15.645,(17 -3 7 8 31 32 16 21)
1969/12/31/18:00:15.645,(-42 -25 18 11 47 30 -27 -68)
1969/12/31/18:00:15.647,(12 4 -26 -13 -85 -45 42 25)
1969/12/31/18:00:15.647,(-33 85 110 27 39 22 -12 -53)
1969/12/31/18:00:15.659,(36 3 -24 -14 -33 -50 -52 10)
1969/12/31/18:00:15.659,(7 -40 -49 20 107 77 16 -2)
1969/12/31/18:00:15.668,(15 -55 -64 -43 -97 -77 -13 1)
1969/12/31/18:00:15.668,(-36 38 48 4 -18 -20 6 -5)
1969/12/31/18:00:15.682,(-15 56 41 0 1 10 2 -14)
1969/12/31/18:00:15.682,(21 6 -4 8 9 4 -10 14)
1969/12/31/18:00:15.684,(13 12 12 28 71 43 32 45)
1969/12/31/18:00:15.684,(30 -124 -128 -43 -9 4 7 -26)
1969/12/31/18:00:15.705,(-34 37 60 17 13 18 5 3)
1969/12/31/18:00:15.705,(9 72 34 19 -14 -16 -13 14)
1969/12/31/18:00:15.707,(-3 -11 15 -1 -7 -9 11 11)
1969/12/31/18:00:15.707,(9 -8 -17 -18 -84 -76 -46 22)
1969/12/31/18:00:15.718,(2 -28 -15 6 25 38 11 -21)
1969/12/31/18:00:15.718,(51 -22 -58 -3 19 31 35 47)
1969/12/31/18:00:15.728,(-35 43 42 -29 -69 -58 -28 -8)
1969/12/31/18:00:15.728,(-26 -32 -25 -34 -36 -71 -26 -45)
1969/12/31/18:00:15.743,(0 -118 -73 -55 -42 -32 -6 22)
1969/12/31/18:00:15.743,(-24 50 21 9 70 70 60 18)
1969/12/31/18:00:15.744,(37 108 17 48 76 55 16 51)
1969/12/31/18:00:15.744,(-31 -1 63 10 -53 -25 -15 14)
1969/12/31/18:00:15.766,(2 105 80 30 41 1 -4 -25)
1969/12/31/18:00:15.766,(1 -100 -65 -32 -41 -5 0 26)
1969/12/31/18:00:15.767,(-10 21 12 -3 15 22 11 -21)
1969/12/31/18:00:15.767,(-12 -26 -40 3 21 17 12 4)
1969/12/31/18:00:15.788,(9 -34 -60 -11 -2 10 16 12)
1969/12/31/18:00:15.788,(17 15 57 23 3 2 -22 -9)
1969/12/31/18:00:15.789,(-13 -26 -15 -6 1 -31 -2 -6)
1969/12/31/18:00:15.789,(1 69 49 12 -42 9 -23 12)
1969/12/31/18:00:15.802,(18 1 -6 12 90 74 49 18)
1969/12/31/18:00:15.803,(-10 -38 -34 -38 -120 -110 -44 -34)
1969/12/31/18:00:15.804,(5 -99 -69 -26 50 34 -2 14)
1969/12/31/18:00:15.804,(11 45 42 43 75 87 41 82)
1969/12/31/18:00:15.825,(-12 92 55 24 -79 -77 -23 -25)
1969/12/31/18:00:15.825,(43 -70 -56 -16 -20 5 74 80)
1969/12/31/18:00:15.827,(-7 73 59 11 -11 -17 -64 -73)
1969/12/31/18:00:15.827,(-31 -22 -24 6 50 21 -10 -41)
1969/12/31/18:00:15.839,(-4 -100 -68 -16 27 47 -2 -6)
1969/12/31/18:00:15.839,(-37 0 -47 -7 21 -5 6 -27)
1969/12/31/18:00:15.848,(-17 35 21 -21 -96 -72 -34 -57)
1969/12/31/18:00:15.848,(-3 2 -37 -3 34 22 -11 -33)
1969/12/31/18:00:15.862,(-14 -25 -9 -15 1 -7 -20 -26)
1969/12/31/18:00:15.862,(-8 -25 -5 -4 -61 -38 -15 -23)
1969/12/31/18:00:15.864,(9 -58 -58 -24 -35 3 26 41)
1969/12/31/18:00:15.864,(57 -31 -57 -17 34 22 10 -49)
1969/12/31/18:00:15.885,(-29 93 97 89 -1 -15 -27 -29)
1969/12/31/18:00:15.885,(-21 -35 -50 -24 1 -18 -57 -46)
1969/12/31/18:00:15.887,(-9 12 39 22 21 26 13 -15)
1969/12/31/18:00:15.887,(25 -86 -53 -19 4 1 20 44)
1969/12/31/18:00:15.899,(20 -25 -82 -50 -25 -20 10 4)
1969/12/31/18:00:15.899,(75 125 75 55 103 77 57 88)
1969/12/31/18:00:15.908,(-65 4 56 21 -73 -86 -75 -71)
1969/12/31/18:00:15.908,(-36 -61 -42 -29 -33 -32 -43 -80)
1969/12/31/18:00:15.923,(-10 -73 -63 -33 -2 17 37 16)
1969/12/31/18:00:15.923,(-17 66 62 3 -60 -55 -66 -25)
1969/12/31/18:00:15.924,(58 -29 -35 19 120 99 57 49)
1969/12/31/18:00:15.924,(12 -10 23 6 -39 -45 -10 18)
1969/12/31/18:00:15.945,(46 98 31 1 20 5 -5 0)
1969/12/31/18:00:15.945,(-47 -29 0 -11 -44 -27 -25 -34)
1969/12/31/18:00:15.947,(5 -35 -35 -5 13 35 28 29)
1969/12/31/18:00:15.947,(-3 -6 -6 40 105 75 32 -12)
1969/12/31/18:00:15.958,(20 -32 -18 6 5 -19 -5 53)
1969/12/31/18:00:15.958,(2 5 8 -50 -73 -51 -6 -36)
1969/12/31/18:00:15.967,(0 19 -29 -3 28 -10 -18 -1)
1969/12/31/18:00:15.967,(-17 2 4 33 33 23 18 18)
1969/12/31/18:00:15.982,(-12 100 103 33 -19 19 36 22)
1969/12/31/18:00:15.982,(-30 -50 -24 2 33 0 -1 -21)
1969/12/31/18:00:15.984,(-3 -46 -18 -12 -37 -13 -24 7)
1969/12/31/18:00:15.984,(18 -22 -65 -32 -7 -10 -13 -13)
1969/12/31/18:00:16.005,(4 -13 -9 7 75 79 28 16)
1969/12/31/18:00:16.005,(-79 -30 31 3 -83 -88 -35 -50)
1969/12/31/18:00:16.006,(34 61 36 12 -7 18 21 -9)
1969/12/31/18:00:16.006,(1 -19 -16 -2 36 22 -4 27)
1969/12/31/18:00:16.027,(-2 -12 -27 -26 -79 -39 -4 11)
1969/12/31/18:00:16.027,(30 15 -3 10 57 29 -4 16)
1969/12/31/18:00:16.029,(-22 -23 6 5 16 6 28 -18)
1969/12/31/18:00:16.029,(-44 -9 18 -20 -52 -33 -18 -14)
1969/12/31/18:00:16.043,(-22 -1 8 -2 3 5 -18 -34)
1969/12/31/18:00:16.043,(5 23 -15 -9 17 17 -5 5)
1969/12/31/18:00:16.045,(27 -47 -54 -25 -46 -41 4 10)
1969/12/31/18:00:16.045,(76 97 59 35 -12 9 18 45)
1969/12/31/18:00:16.065,(-62 -41 23 -1 43 15 -4 -40)
1969/12/31/18:00:16.065,(37 27 48 37 28 40 9 33)
1969/12/31/18:00:16.071,(-12 -3 -3 -18 -43 -46 -5 21)
1969/12/31/18:00:16.071,(2 -15 -28 -26 -40 -37 -9 -12)
1969/12/31/18:00:16.079,(-1 -60 -54 -23 -22 -17 -21 -19)
1969/12/31/18:00:16.079,(6 15 -46 -9 45 28 -22 0)
1969/12/31/18:00:16.088,(1 26 39 20 20 35 28 10)
1969/12/31/18:00:16.088,(-46 -38 20 3 -8 -12 2 -10)
1969/12/31/18:00:16.102,(48 51 28 20 27 24 30 88)
1969/12/31/18:00:16.102,(16 9 -4 -4 -37 -32 -12 -13)
1969/12/31/18:00:16.108,(-47 -36 -10 -2 22 14 -44 -69)
1969/12/31/18:00:16.109,(-3 -33 -53 -40 -52 -35 4 -10)
1969/12/31/18:00:16.125,(31 49 10 0 -2 -5 -3 12)
1969/12/31/18:00:16.125,(-24 -27 8 7 -5 9 9 -19)
1969/12/31/18:00:16.126,(1 38 31 30 75 55 10 29)
1969/12/31/18:00:16.126,(-27 -25 -4 -25 -29 -39 -34 -30)
1969/12/31/18:00:16.138,(-10 -102 -84 -41 -70 -57 -9 -31)
1969/12/31/18:00:16.139,(43 34 -52 -9 0 -4 2 23)
1969/12/31/18:00:16.155,(-52 3 75 45 100 96 8 -53)
1969/12/31/18:00:16.155,(35 109 63 29 -72 -74 8 5)
1969/12/31/18:00:16.162,(-34 -70 -36 -22 10 12 -12 -32)
1969/12/31/18:00:16.162,(31 -4 -4 -18 -40 -50 -8 10)
1969/12/31/18:00:16.168,(17 0 -10 4 37 41 18 44)
1969/12/31/18:00:16.168,(-10 -11 0 8 36 25 7 4)
1969/12/31/18:00:16.185,(-7 -27 -43 -43 -36 -28 -7 -3)
1969/12/31/18:00:16.185,(14 7 28 4 -8 22 14 23)
1969/12/31/18:00:16.187,(30 61 6 22 12 -4 23 27)
1969/12/31/18:00:16.187,(-6 -15 28 25 17 8 -11 8)
1969/12/31/18:00:16.207,(28 30 -2 -2 -16 -9 -6 16)
1969/12/31/18:00:16.207,(-19 -12 9 -26 25 26 6 -18)
1969/12/31/18:00:16.209,(-11 -5 3 10 -44 -69 -45 -7)
1969/12/31/18:00:16.209,(-42 -68 -48 5 -2 -8 -20 -57)
1969/12/31/18:00:16.222,(18 -1 -9 8 21 16 5 6)
1969/12/31/18:00:16.222,(-18 27 29 31 84 67 14 -6)
1969/12/31/18:00:16.228,(-26 12 24 -14 -87 -71 -3 8)
1969/12/31/18:00:16.229,(39 11 -6 -38 -1 7 2 59)
1969/12/31/18:00:16.245,(3 -13 -5 -11 -20 -13 0 -12)
1969/12/31/18:00:16.245,(-31 -2 5 1 13 4 27 6)
1969/12/31/18:00:16.247,(19 -26 -7 42 53 44 29 14)
1969/12/31/18:00:16.247,(-8 37 13 4 16 14 -23 11)
1969/12/31/18:00:16.267,(-9 1 30 15 -13 -14 9 18)
1969/12/31/18:00:16.267,(-1 -12 -41 -21 -15 -13 -1 -9)
1969/12/31/18:00:16.269,(22 -44 -45 -33 1 3 -7 -2)
1969/12/31/18:00:16.269,(27 42 13 2 -23 0 12 9)
1969/12/31/18:00:16.281,(-21 22 37 10 19 2 10 22)
1969/12/31/18:00:16.281,(13 47 67 42 -7 -3 -7 -1)
1969/12/31/18:00:16.288,(0 -8 -23 -89 -104 -42 -24 -26)
1969/12/31/18:00:16.288,(-1 -32 -14 81 114 47 27 35)
1969/12/31/18:00:16.304,(41 33 1 19 5 25 0 -8)
1969/12/31/18:00:16.304,(-57 -51 -21 0 13 36 9 -4)
1969/12/31/18:00:16.305,(-16 -15 -24 -38 -63 -59 -29 -29)
1969/12/31/18:00:16.305,(17 23 14 -41 -43 -40 -46 -15)
1969/12/31/18:00:16.327,(20 5 13 71 21 -11 27 57)
1969/12/31/18:00:16.327,(-7 -19 -4 18 13 -10 -3 -3)
1969/12/31/18:00:16.328,(17 10 -6 -13 12 39 15 -2)
1969/12/31/18:00:16.328,(-18 -8 4 -14 14 12 -3 -13)
1969/12/31/18:00:16.343,(-65 -28 -3 -9 6 -2 -17 -41)
1969/12/31/18:00:16.343,(-13 -7 -14 -26 -45 -36 -36 -55)
1969/12/31/18:00:16.349,(95 11 -23 2 43 25 19 61)
1969/12/31/18:00:16.349,(-100 -5 59 17 -9 -13 -18 -66)
1969/12/31/18:00:16.364,(-24 4 0 -10 -18 -10 -15 -18)
1969/12/31/18:00:16.364,(2 3 4 1 -3 4 26 19)
1969/12/31/18:00:16.365,(-67 -27 -14 9 13 -2 -21 -71)
1969/12/31/18:00:16.365,(49 3 -25 -14 -1 9 22 9)
1969/12/31/18:00:16.387,(-3 -13 -10 -27 -25 -6 -9 -29)
1969/12/31/18:00:16.387,(0 8 21 16 23 -5 -9 9)
1969/12/31/18:00:16.387,(-30 -16 -12 -17 -15 2 -1 10)
1969/12/31/18:00:16.387,(1 2 -19 -43 -57 -12 4 5)
1969/12/31/18:00:16.401,(-11 -12 0 14 -14 -20 -10 -7)
1969/12/31/18:00:16.401,(24 4 -13 40 54 20 3 12)
1969/12/31/18:00:16.409,(16 24 33 41 9 13 16 12)
1969/12/31/18:00:16.409,(32 21 4 -8 1 -3 9 24)
1969/12/31/18:00:16.424,(-13 -16 -8 -23 -25 0 -8 -12)
1969/12/31/18:00:16.424,(20 -7 -15 -24 -32 -19 1 20)
1969/12/31/18:00:16.425,(-70 -49 -4 -4 14 8 -4 -27)
1969/12/31/18:00:16.425,(21 39 -6 -9 -3 0 -5 -53)
1969/12/31/18:00:16.455,(-8 -6 -3 -11 7 -10 -28 -47)
1969/12/31/18:00:16.455,(-43 -24 -13 -17 -22 -13 0 -14)
1969/12/31/18:00:16.456,(-28 17 17 15 22 16 9 -21)
1969/12/31/18:00:16.456,(27 -6 -8 2 9 5 1 41)
1969/12/31/18:00:16.471,(-5 -25 -27 -36 -15 51 28 -10)
1969/12/31/18:00:16.471,(48 29 15 -20 -22 -62 -18 5)
1969/12/31/18:00:16.471,(79 43 26 66 45 4 15 47)
1969/12/31/18:00:16.471,(-26 -40 -12 33 16 1 -17 -34)
1969/12/31/18:00:16.484,(17 -11 -1 6 10 -7 -19 4)
1969/12/31/18:00:16.484,(31 13 5 -13 -23 6 1 6)
1969/12/31/18:00:16.485,(21 11 4 -24 -10 7 11 37)
1969/12/31/18:00:16.485,(39 13 -2 2 9 3 4 26)
1969/12/31/18:00:16.507,(-37 -18 -14 -7 0 -11 -7 -16)
1969/12/31/18:00:16.507,(17 15 15 -1 -2 13 14 14)
1969/12/31/18:00:16.508,(46 32 20 14 13 4 8 32)
1969/12/31/18:00:16.508,(-1 6 10 10 11 18 14 19)
1969/12/31/18:00:16.521,(-15 -33 -21 -19 -18 -30 -21 13)
1969/12/31/18:00:16.521,(-14 -13 -1 3 1 6 5 13)
1969/12/31/18:00:16.529,(-41 -28 -16 -8 -3 0 -11 -21)
1969/12/31/18:00:16.529,(30 3 -5 -5 6 12 23 48)
1969/12/31/18:00:16.544,(35 48 22 13 7 -1 5 1)
1969/12/31/18:00:16.544,(24 20 12 15 8 6 5 19)
1969/12/31/18:00:16.545,(-122 -72 -32 -25 -23 -24 -40 -79)
1969/12/31/18:00:16.545,(12 15 -2 -8 -4 6 13 -1)
1969/12/31/18:00:16.575,(-8 9 11 14 12 0 12 22)
1969/12/31/18:00:16.575,(14 2 -1 1 1 4 -2 -2)
1969/12/31/18:00:16.575,(24 22 3 -4 -5 2 4 5)
1969/12/31/18:00:16.576,(-32 -21 -6 -4 -3 -2 4 -7)
1969/12/31/18:00:16.581,(30 11 2 -1 3 -1 1 11)
1969/12/31/18:00:16.581,(-21 -16 -4 0 -3 -2 -8 -16)
1969/12/31/18:00:16.589,(15 9 0 -3 2 4 7 15)
1969/12/31/18:00:16.589,(0 -6 1 3 5 -1 -6 0)
1969/12/31/18:00:16.605,(-2 0 -1 -4 -4 -5 -2 -1)
1969/12/31/18:00:16.605,(1 -4 -7 -6 -4 0 -1 -3)
1969/12/31/18:00:16.606,(-1 -12 -15 -8 -3 -6 -5 3)
1969/12/31/18:00:16.606,(-14 -1 0 -4 -2 -1 -1 -10)
1969/12/31/18:00:16.627,(5 12 21 16 10 4 4 2)
1969/12/31/18:00:16.627,(-16 -8 -5 1 -2 1 -1 -12)
1969/12/31/18:00:16.628,(10 2 -5 -5 -5 -2 -3 12)
1969/12/31/18:00:16.628,(-25 -8 -8 -5 -3 -2 0 -12)
1969/12/31/18:00:16.641,(23 25 16 6 5 4 10 26)
1969/12/31/18:00:16.641,(-11 -18 -2 1 2 1 -11 -16)
1969/12/31/18:00:16.649,(11 4 2 -2 -3 -5 -4 -5)
1969/12/31/18:00:16.649,(-18 -12 -10 -7 -4 -2 2 -1)
1969/12/31/18:00:16.664,(-2 0 -11 -6 -1 -5 -1 -1)
1969/12/31/18:00:16.664,(5 13 5 1 0 0 -6 -21)
1969/12/31/18:00:16.665,(-10 -9 6 3 3 5 6 -3)
1969/12/31/18:00:16.665,(-14 10 14 7 1 -3 6 -7)
1969/12/31/18:00:16.687,(1 -15 -12 -2 -2 -3 -7 -8)
1969/12/31/18:00:16.687,(2 -7 -12 -6 -5 -3 0 3)
1969/12/31/18:00:16.688,(4 2 -6 -5 -3 -3 -13 -9)
1969/12/31/18:00:16.688,(16 8 7 4 1 1 5 3)
1969/12/31/18:00:16.701,(-8 -11 -3 7 3 2 9 10)
1969/12/31/18:00:16.701,(6 -24 -41 -20 -5 -3 -6 2)
1969/12/31/18:00:16.709,(-11 80 93 32 8 2 7 -6)
1969/12/31/18:00:16.709,(11 -15 -18 -7 -6 -3 -9 0)
1969/12/31/18:00:16.724,(-9 13 24 11 4 0 -3 -8)
1969/12/31/18:00:16.724,(-14 -33 -27 -13 -6 -3 -9 -4)
1969/12/31/18:00:16.725,(6 -30 -31 -11 -2 4 8 1)
1969/12/31/18:00:16.725,(-3 24 23 7 3 4 8 1)
1969/12/31/18:00:16.756,(8 6 12 1 -5 -10 -12 8)
1969/12/31/18:00:16.756,(-6 15 15 4 1 -3 5 -5)
1969/12/31/18:00:16.757,(9 -26 -28 -12 -5 -2 0 0)
1969/12/31/18:00:16.757,(-7 -12 -12 -3 2 -2 -14 -4)
1969/12/31/18:00:16.761,(6 4 -26 -15 -5 -1 8 6)
1969/12/31/18:00:16.761,(-11 5 33 15 8 2 6 2)
1969/12/31/18:00:16.769,(3 15 12 8 -1 -3 -12 -1)
1969/12/31/18:00:16.769,(0 -11 -2 3 1 1 10 -4)
1969/12/31/18:00:16.784,(-2 -16 -19 -11 -4 -1 1 -4)
1969/12/31/18:00:16.784,(-6 -34 -39 -18 -9 -4 -3 -3)
1969/12/31/18:00:16.785,(0 22 35 10 0 -2 -4 0)
1969/12/31/18:00:16.785,(6 -4 -9 -1 1 0 -1 -1)
1969/12/31/18:00:16.807,(1 27 26 5 -1 -3 -3 4)
1969/12/31/18:00:16.807,(3 10 14 10 3 6 1 3)
1969/12/31/18:00:16.807,(-9 -32 -28 -11 -4 -1 4 -1)
1969/12/31/18:00:16.807,(-4 -50 -48 -28 -14 -6 -11 -7)
1969/12/31/18:00:16.821,(3 35 26 13 6 5 2 -7)
1969/12/31/18:00:16.821,(11 12 11 10 4 5 9 7)
1969/12/31/18:00:16.829,(5 -9 -32 -10 -7 -8 -32 -8)
1969/12/31/18:00:16.829,(-19 20 22 8 1 0 -3 -5)
1969/12/31/18:00:16.844,(-7 -40 -22 -5 0 2 -8 -8)
1969/12/31/18:00:16.844,(-4 8 1 -3 -1 2 -3 -3)
1969/12/31/18:00:16.845,(6 -9 -13 -9 -1 2 5 6)
1969/12/31/18:00:16.845,(-1 -9 -12 -11 -7 -4 -5 -3)
1969/12/31/18:00:16.867,(11 23 22 11 6 3 7 6)
1969/12/31/18:00:16.867,(-17 -33 -10 -1 -2 -5 -3 -6)
1969/12/31/18:00:16.867,(17 24 -9 -7 -2 0 2 1)
1969/12/31/18:00:16.867,(-15 2 20 16 6 4 2 -2)
1969/12/31/18:00:16.883,(-2 -11 5 0 -2 7 5 -3)
1969/12/31/18:00:16.883,(-8 -25 -31 -21 -11 -6 -12 -5)
1969/12/31/18:00:16.890,(-3 27 33 13 3 3 1 -6)
1969/12/31/18:00:16.890,(2 -2 0 -3 -2 -1 -2 0)
1969/12/31/18:00:16.905,(10 40 20 15 7 3 -6 -4)
1969/12/31/18:00:16.905,(6 8 2 -2 -3 -1 -4 -1)
1969/12/31/18:00:16.906,(-11 -26 -2 1 1 6 9 1)
1969/12/31/18:00:16.906,(-6 -8 -11 -11 -7 -5 -8 -3)
1969/12/31/18:00:16.927,(-17 -33 -23 -20 -12 -7 -9 -11)
1969/12/31/18:00:16.927,(19 52 24 11 4 3 0 3)
1969/12/31/18:00:16.927,(-13 -50 -57 -20 -2 -3 9 7)
1969/12/31/18:00:16.927,(10 37 69 38 15 -5 0 0)
1969/12/31/18:00:16.941,(0 -5 -10 2 4 -5 7 10)
1969/12/31/18:00:16.941,(-8 8 4 -2 -2 -8 6 4)
1969/12/31/18:00:16.949,(2 6 -6 -3 -2 -12 -1 2)
1969/12/31/18:00:16.949,(-3 -13 -23 -16 -5 -6 5 5)
1969/12/31/18:00:16.964,(-1 -10 -27 -22 -9 -14 -5 -1)
1969/12/31/18:00:16.964,(-1 1 6 9 5 -3 5 4)
1969/12/31/18:00:16.965,(-21 -21 -7 -14 -5 -4 1 -2)
1969/12/31/18:00:16.965,(33 47 31 17 5 0 0 3)
1969/12/31/18:00:16.987,(-9 -53 -14 6 4 5 6 4)
1969/12/31/18:00:16.987,(-11 -8 12 -2 -3 1 0 -4)
1969/12/31/18:00:16.988,(5 21 14 9 0 4 3 3)
1969/12/31/18:00:16.988,(-13 -6 -21 -14 -7 -5 -6 -11)
1969/12/31/18:00:17.001,(3 -10 -14 -5 0 0 -1 -2)
1969/12/31/18:00:17.001,(-8 -23 -31 -23 -8 -3 2 1)
1969/12/31/18:00:17.017,(11 23 24 14 3 -4 0 2)
1969/12/31/18:00:17.017,(7 -6 5 2 2 2 2 8)
1969/12/31/18:00:17.033,(-3 16 -10 -7 -5 0 -2 -5)
1969/12/31/18:00:17.033,(-9 -9 19 11 2 3 -3 -6)
1969/12/31/18:00:17.034,(0 5 8 6 -1 4 -6 -7)
1969/12/31/18:00:17.034,(-7 -18 -17 -6 -4 4 -4 -6)
1969/12/31/18:00:17.056,(-2 -6 4 -1 -2 5 -2 -2)
1969/12/31/18:00:17.056,(8 22 6 3 -1 4 -2 -3)
1969/12/31/18:00:17.057,(4 -11 -10 -7 -4 3 -3 -3)
1969/12/31/18:00:17.057,(-5 -4 7 6 0 4 1 1)
1969/12/31/18:00:17.061,(4 20 0 -4 -1 2 -4 -3)
1969/12/31/18:00:17.061,(3 -16 14 10 4 4 -1 -3)
1969/12/31/18:00:17.069,(5 -2 -11 -5 -3 4 -5 -4)
1969/12/31/18:00:17.069,(-5 2 1 2 -2 6 -4 -8)
1969/12/31/18:00:17.093,(2 -5 2 0 -5 6 -6 -8)
1969/12/31/18:00:17.093,(6 -1 -9 -4 -3 1 0 -1)
1969/12/31/18:00:17.094,(-7 -9 -6 -3 -2 -2 1 1)
1969/12/31/18:00:17.094,(-4 -8 -23 -15 -4 -9 2 6)
1969/12/31/18:00:17.107,(1 4 -10 -8 1 -9 6 13)
1969/12/31/18:00:17.107,(-4 7 -9 -2 5 -18 9 12)
1969/12/31/18:00:17.122,(-4 6 -7 -12 1 -23 7 10)
1969/12/31/18:00:17.122,(0 1 -13 -2 4 -18 4 10)
1969/12/31/18:00:17.124,(1 5 4 0 3 -16 5 11)
1969/12/31/18:00:17.124,(-4 -1 -10 -7 -2 -12 -1 2)
1969/12/31/18:00:17.130,(1 9 2 -3 1 -4 2 0)
1969/12/31/18:00:17.130,(-2 -1 3 1 1 0 1 1)
1969/12/31/18:00:17.145,(-1 -4 -1 -2 -3 3 0 -4)
1969/12/31/18:00:17.145,(7 12 9 3 -3 3 -2 -4)
1969/12/31/18:00:17.146,(-2 -7 9 5 -3 -1 -5 -8)
1969/12/31/18:00:17.146,(-3 -5 8 4 -4 4 -8 -11)
1969/12/31/18:00:17.183,(-2 -5 21 11 1 8 -7 -12)
1969/12/31/18:00:17.183,(1 2 5 3 -2 15 -9 -8)
1969/12/31/18:00:17.184,(0 -12 8 4 -2 17 -4 -3)
1969/12/31/18:00:17.184,(3 15 15 1 -3 16 -5 -7)
1969/12/31/18:00:17.200,(-5 -2 -2 0 -3 9 -5 -6)
1969/12/31/18:00:17.200,(-2 -7 0 3 0 9 -2 -5)
1969/12/31/18:00:17.200,(0 -4 0 -2 -3 5 -3 -2)
1969/12/31/18:00:17.200,(-2 -9 -8 -4 -2 2 -4 -6)
1969/12/31/18:00:17.205,(4 7 6 5 -1 -1 0 -1)
1969/12/31/18:00:17.205,(-8 -4 0 0 -3 -1 -3 -7)
1969/12/31/18:00:17.206,(-6 -8 -9 -4 -5 -6 -4 -5)
1969/12/31/18:00:17.206,(-5 -5 -5 -6 -3 -2 -4 -6)
1969/12/31/18:00:17.227,(-1 0 -3 -6 -2 -3 -3 -3)
1969/12/31/18:00:17.227,(5 9 6 7 1 2 0 2)
1969/12/31/18:00:17.228,(1 0 -1 0 0 0 -1 -2)
1969/12/31/18:00:17.228,(0 -4 -4 0 0 -5 0 3)
1969/12/31/18:00:17.257,(-4 -9 -9 -4 -2 -5 -1 0)
1969/12/31/18:00:17.257,(-2 0 -8 -6 -1 -3 -2 1)
1969/12/31/18:00:17.258,(-1 1 0 0 2 -3 0 0)
1969/12/31/18:00:17.258,(-2 -3 -3 -2 2 -2 4 4)
1969/12/31/18:00:17.289,(-2 -1 -5 -3 0 -5 1 3)
1969/12/31/18:00:17.289,(0 5 -2 -2 1 -5 1 4)
1969/12/31/18:00:17.290,(1 1 -3 0 0 -3 2 3)
1969/12/31/18:00:17.290,(1 2 0 -2 0 -2 1 0)
1969/12/31/18:00:17.291,(-2 -2 -8 -2 0 -4 1 0)
1969/12/31/18:00:17.291,(2 2 -1 -5 -1 0 1 3)
1969/12/31/18:00:17.295,(-2 5 6 8 5 3 -1 -1)
1969/12/31/18:00:17.295,(-2 -6 -4 -1 -2 -1 0 0)
1969/12/31/18:00:17.310,(-2 -5 -1 2 2 0 -2 -2)
1969/12/31/18:00:17.310,(2 7 3 -1 1 -3 -1 -1)
1969/12/31/18:00:17.311,(2 2 3 1 -1 2 0 1)
1969/12/31/18:00:17.311,(0 -4 -1 -4 -3 1 -2 -3)
1969/12/31/18:00:17.324,(2 5 8 7 0 4 -2 -2)
1969/12/31/18:00:17.324,(-7 -13 -5 -3 -5 -1 -6 -7)
1969/12/31/18:00:17.325,(-3 -4 -4 -5 -4 0 -1 -4)
1969/12/31/18:00:17.325,(-2 -2 -2 2 2 1 0 -4)
1969/12/31/18:00:17.349,(2 -2 0 -1 -3 -2 -1 -1)
1969/12/31/18:00:17.349,(-1 0 1 -2 -2 -3 -2 0)
1969/12/31/18:00:17.350,(-1 0 1 2 1 -2 -2 0)
1969/12/31/18:00:17.350,(-1 0 -3 -4 -2 -2 1 2)
1969/12/31/18:00:17.370,(1 2 1 -1 1 -1 -1 -1)
1969/12/31/18:00:17.370,(-1 2 1 3 1 1 1 -1)
1969/12/31/18:00:17.371,(0 2 2 6 0 -1 -1 -1)
1969/12/31/18:00:17.371,(-2 -1 0 -4 -2 -4 -3 -1)
1969/12/31/18:00:17.384,(-3 -4 -10 -8 -4 -4 -2 -3)
1969/12/31/18:00:17.384,(-2 -6 7 9 3 2 -1 -1)
1969/12/31/18:00:17.385,(-2 -1 -1 -1 0 -1 3 0)
1969/12/31/18:00:17.385,(-1 -1 1 2 -2 -2 0 -1)
1969/12/31/18:00:17.407,(-3 0 -4 -6 -3 1 -1 -3)
1969/12/31/18:00:17.407,(1 0 -2 -2 -1 -3 0 0)
1969/12/31/18:00:17.408,(3 1 0 -2 0 0 -1 2)
1969/12/31/18:00:17.408,(-5 -7 -5 0 0 -1 -1 -2)
