time,.data
1969/12/31/18:00:07.447000,(-5 -1 -3 -3 -4 -5 -4 -3)
1969/12/31/18:00:07.447000,(-2 -2 -2 -2 -3 -2 0 -1)
1969/12/31/18:00:07.462000,(6 5 3 3 3 2 2 3)
1969/12/31/18:00:07.462000,(-4 0 0 0 1 -1 -3 -3)
1969/12/31/18:00:07.464000,(2 0 -4 -3 1 3 3 2)
1969/12/31/18:00:07.464000,(2 3 8 3 2 -2 -1 2)
1969/12/31/18:00:07.476000,(-7 -6 -7 -5 -6 0 -1 -2)
1969/12/31/18:00:07.476000,(3 -5 -7 -4 -2 1 1 3)
1969/12/31/18:00:07.485000,(-12 -4 2 -11 -11 -3 -5 -6)
1969/12/31/18:00:07.485000,(7 -2 -1 18 18 6 4 8)
1969/12/31/18:00:07.499000,(-8 -6 -2 -4 -1 -3 -7 -7)
1969/12/31/18:00:07.500000,(3 1 -9 -36 -20 -7 -2 0)
1969/12/31/18:00:07.501000,(3 0 -17 -42 -28 -5 1 1)
1969/12/31/18:00:07.501000,(7 13 26 74 49 15 3 5)
1969/12/31/18:00:07.522000,(-5 0 25 60 26 14 6 -2)
1969/12/31/18:00:07.522000,(-1 2 6 24 16 9 4 1)
1969/12/31/18:00:07.524000,(6 -3 -9 -30 -4 -2 3 7)
1969/12/31/18:00:07.524000,(-11 -7 -16 -38 -32 -19 -12 -12)
1969/12/31/18:00:07.536000,(5 3 6 -17 0 0 -1 3)
1969/12/31/18:00:07.536000,(-4 3 6 -8 -13 2 1 -5)
1969/12/31/18:00:07.545000,(7 -3 -25 21 -11 -13 -1 5)
1969/12/31/18:00:07.545000,(-11 -14 -10 -47 -2 0 -8 -8)
1969/12/31/18:00:07.560000,(3 4 20 54 24 14 8 4)
1969/12/31/18:00:07.560000,(4 1 -22 -52 -29 -4 5 1)
1969/12/31/18:00:07.561000,(7 9 22 -12 -5 -9 -7 2)
1969/12/31/18:00:07.561000,(2 11 12 72 -13 -4 -1 -2)
1969/12/31/18:00:07.582000,(-5 -2 -2 20 71 7 -5 -5)
1969/12/31/18:00:07.582000,(-6 -4 5 -4 19 0 -1 -2)
1969/12/31/18:00:07.584000,(-1 -4 -39 -87 -61 -25 -12 -7)
1969/12/31/18:00:07.584000,(0 -12 -10 -67 -43 -3 -1 -1)
1969/12/31/18:00:07.605000,(10 17 46 64 47 15 11 8)
1969/12/31/18:00:07.605000,(6 5 18 53 31 12 6 6)
1969/12/31/18:00:07.606000,(-18 -24 -16 25 42 15 1 -11)
1969/12/31/18:00:07.606000,(-17 -15 6 -110 -54 -15 -7 -8)
1969/12/31/18:00:07.620000,(11 19 -17 -69 -36 -19 -4 5)
1969/12/31/18:00:07.620000,(3 1 0 99 3 -5 -5 -2)
1969/12/31/18:00:07.621000,(0 -5 -4 -33 -10 2 2 1)
1969/12/31/18:00:07.621000,(-1 -3 -28 40 1 2 4 -1)
1969/12/31/18:00:07.642000,(0 -8 -13 -18 18 -5 -1 1)
1969/12/31/18:00:07.642000,(-2 5 43 11 27 21 7 1)
1969/12/31/18:00:07.644000,(-13 -6 -1 0 18 8 -4 -7)
1969/12/31/18:00:07.644000,(5 4 -2 -22 -30 -14 -2 1)
1969/12/31/18:00:07.656000,(0 -5 -22 -41 -83 -24 -7 -4)
1969/12/31/18:00:07.656000,(-2 -1 15 34 12 -2 0 -1)
1969/12/31/18:00:07.665000,(-3 4 20 59 44 14 1 -3)
1969/12/31/18:00:07.665000,(-3 -3 -5 -28 39 4 -3 -2)
1969/12/31/18:00:07.680000,(-5 -6 -32 -93 -73 -18 -7 -4)
1969/12/31/18:00:07.680000,(2 -2 -1 3 -16 -6 -4 1)
1969/12/31/18:00:07.681000,(2 9 36 72 37 21 4 0)
1969/12/31/18:00:07.681000,(5 8 14 87 57 18 11 5)
1969/12/31/18:00:07.702000,(-4 -9 -8 -26 -33 -11 -8 -3)
1969/12/31/18:00:07.702000,(-1 -4 -23 -61 -36 -15 -9 -1)
1969/12/31/18:00:07.704000,(1 2 -13 -83 -27 -13 -1 -1)
1969/12/31/18:00:07.704000,(8 7 5 90 22 7 7 7)
1969/12/31/18:00:07.716000,(-8 -9 -17 -49 -46 -10 -7 -6)
1969/12/31/18:00:07.716000,(-1 -2 5 -8 30 9 2 -1)
1969/12/31/18:00:07.725000,(2 7 21 77 50 9 4 4)
1969/12/31/18:00:07.725000,(2 4 6 -1 10 7 4 3)
1969/12/31/18:00:07.740000,(-2 -3 0 17 14 5 4 1)
1969/12/31/18:00:07.740000,(-7 -7 -21 -34 -26 -13 -7 -7)
1969/12/31/18:00:07.741000,(2 3 1 0 -23 -8 0 2)
1969/12/31/18:00:07.741000,(-4 -4 -12 -35 -6 -6 -4 -4)
1969/12/31/18:00:07.762000,(1 3 9 14 16 6 4 2)
1969/12/31/18:00:07.762000,(1 -1 -3 8 2 -2 -1 0)
1969/12/31/18:00:07.764000,(-3 -1 8 32 2 -1 -2 -3)
1969/12/31/18:00:07.764000,(-2 0 -2 -12 -13 -4 0 -1)
1969/12/31/18:00:07.776000,(-4 -6 -6 2 11 4 0 -4)
1969/12/31/18:00:07.776000,(2 1 -6 -16 -5 -3 -1 2)
1969/12/31/18:00:07.792000,(2 3 5 6 -7 -1 2 3)
1969/12/31/18:00:07.792000,(1 -1 0 -16 -2 -2 -3 -4)
1969/12/31/18:00:07.799000,(-1 -1 0 24 10 5 0 -3)
1969/12/31/18:00:07.799000,(-9 -12 -5 -4 4 -3 -4 -3)
1969/12/31/18:00:07.806000,(-1 0 -1 -4 -7 0 2 0)
1969/12/31/18:00:07.806000,(0 -2 -2 -13 -7 1 0 2)
1969/12/31/18:00:07.822000,(1 2 3 8 6 4 -3 -2)
1969/12/31/18:00:07.822000,(6 2 -7 -9 -7 -3 0 5)
1969/12/31/18:00:07.824000,(-2 4 4 0 1 1 0 -3)
1969/12/31/18:00:07.824000,(-18 -14 -1 -5 -3 -3 -3 -6)
1969/12/31/18:00:07.836000,(23 12 3 14 8 1 3 9)
1969/12/31/18:00:07.836000,(-2 1 -6 -12 -1 1 2 -2)
1969/12/31/18:00:07.845000,(-11 -3 2 4 -5 -2 -9 -13)
1969/12/31/18:00:07.845000,(3 5 2 -4 1 2 5 6)
1969/12/31/18:00:07.859000,(-6 -6 -1 4 2 0 1 -1)
1969/12/31/18:00:07.859000,(-15 -12 -8 -4 -4 -5 -4 -2)
1969/12/31/18:00:07.866000,(25 13 0 -7 -3 1 5 12)
1969/12/31/18:00:07.866000,(5 5 1 -5 -3 1 2 2)
1969/12/31/18:00:07.882000,(-3 -4 -2 -2 0 0 -1 1)
1969/12/31/18:00:07.882000,(5 4 0 0 1 0 0 0)
1969/12/31/18:00:07.884000,(-13 -8 -1 1 -2 -3 -3 -3)
1969/12/31/18:00:07.884000,(10 1 -1 -3 -2 -3 -3 1)
1969/12/31/18:00:07.904000,(-10 -5 0 10 6 0 1 -7)
1969/12/31/18:00:07.904000,(3 -1 -3 -15 -9 -7 -4 2)
1969/12/31/18:00:07.912000,(0 2 1 10 13 8 6 0)
1969/12/31/18:00:07.912000,(-6 -5 -3 -5 -9 -7 -7 -7)
1969/12/31/18:00:07.919000,(22 14 4 6 7 7 9 15)
1969/12/31/18:00:07.919000,(-14 -4 1 -2 -4 -2 -7 -14)
1969/12/31/18:00:07.926000,(9 -1 -6 -12 -9 -5 0 8)
1969/12/31/18:00:07.926000,(0 2 2 9 5 3 1 -2)
1969/12/31/18:00:07.942000,(-8 -5 -4 -17 -9 -5 -3 -4)
1969/12/31/18:00:07.942000,(2 -3 -2 -3 -8 -5 -1 2)
1969/12/31/18:00:07.944000,(4 2 2 4 -11 0 2 6)
1969/12/31/18:00:07.944000,(-3 1 4 17 40 9 0 -2)
1969/12/31/18:00:07.956000,(-12 -6 2 -14 -9 -5 -5 -7)
1969/12/31/18:00:07.956000,(6 4 2 20 6 3 1 2)
1969/12/31/18:00:07.965000,(-1 0 1 4 3 -2 -1 -3)
1969/12/31/18:00:07.965000,(-3 -4 -11 -42 -27 -11 -5 -3)
1969/12/31/18:00:07.979000,(3 -2 0 15 -3 -1 -1 4)
1969/12/31/18:00:07.979000,(6 3 0 10 14 -2 3 8)
1969/12/31/18:00:07.986000,(-1 7 6 10 11 3 -3 -17)
1969/12/31/18:00:07.986000,(-23 -14 -2 16 1 -2 -4 -3)
1969/12/31/18:00:08.002000,(43 28 6 -11 12 14 21 28)
1969/12/31/18:00:08.002000,(-25 -17 -13 -20 -22 -7 -11 -17)
1969/12/31/18:00:08.004000,(1 -3 -3 -5 -6 -6 -6 -6)
1969/12/31/18:00:08.004000,(7 5 -1 -13 -7 -2 2 11)
1969/12/31/18:00:08.016000,(-7 -8 -4 10 0 -3 -7 -9)
1969/12/31/18:00:08.016000,(9 5 -1 -4 2 4 11 15)
1969/12/31/18:00:08.025000,(-5 -1 -3 -12 -1 1 2 4)
1969/12/31/18:00:08.025000,(-10 -7 -10 -38 -29 -7 -9 -13)
1969/12/31/18:00:08.039000,(-14 -9 -3 -3 -11 -7 -6 -5)
1969/12/31/18:00:08.039000,(7 13 29 87 45 12 6 6)
1969/12/31/18:00:08.046000,(6 -6 12 34 23 9 4 1)
1969/12/31/18:00:08.046000,(13 12 6 12 6 1 1 4)
1969/12/31/18:00:08.063000,(-27 -14 -6 -19 -5 2 -4 -16)
1969/12/31/18:00:08.063000,(-18 -14 -15 -50 -27 -11 -12 -20)
1969/12/31/18:00:08.068000,(6 7 -7 -15 -12 -3 9 19)
1969/12/31/18:00:08.068000,(3 5 1 9 2 2 0 -3)
1969/12/31/18:00:08.085000,(1 1 -4 -1 1 -6 -8 -5)
1969/12/31/18:00:08.085000,(34 20 7 -3 1 8 8 11)
1969/12/31/18:00:08.091000,(-18 -12 -7 -3 -7 -7 -8 -7)
1969/12/31/18:00:08.091000,(17 5 2 0 3 6 6 9)
1969/12/31/18:00:08.099000,(-19 -8 0 9 3 -5 -6 -3)
1969/12/31/18:00:08.099000,(9 -1 5 -9 -2 4 5 3)
1969/12/31/18:00:08.106000,(3 -3 -30 -101 -50 -14 -2 4)
1969/12/31/18:00:08.106000,(2 0 -6 65 -8 -4 2 2)
1969/12/31/18:00:08.122000,(-10 0 37 111 49 6 2 -4)
1969/12/31/18:00:08.122000,(-11 3 4 -1 45 14 -1 -3)
1969/12/31/18:00:08.124000,(5 -1 10 30 19 12 5 4)
1969/12/31/18:00:08.124000,(-6 -5 3 -30 -3 3 -1 -7)
1969/12/31/18:00:08.145000,(0 -7 -21 -56 -34 -14 -7 -4)
1969/12/31/18:00:08.145000,(9 5 -5 -12 -20 -14 -5 1)
1969/12/31/18:00:08.151000,(-23 -14 -7 -21 -4 -7 -11 -15)
1969/12/31/18:00:08.151000,(-2 -4 3 -12 2 8 18 19)
1969/12/31/18:00:08.168000,(52 34 -1 5 -3 -4 -4 16)
1969/12/31/18:00:08.168000,(-17 -10 -2 -12 -4 -4 -11 -22)
1969/12/31/18:00:08.173000,(-1 -3 -2 3 -2 -3 -3 -2)
1969/12/31/18:00:08.173000,(4 4 3 10 4 2 2 -1)
1969/12/31/18:00:08.182000,(-16 -13 -1 -6 3 3 0 -1)
1969/12/31/18:00:08.182000,(-17 -14 -11 -18 -14 -3 -2 2)
1969/12/31/18:00:08.184000,(24 19 2 -8 1 1 1 8)
1969/12/31/18:00:08.184000,(-11 -7 -13 -22 -26 -15 -11 -11)
1969/12/31/18:00:08.205000,(-8 -9 -21 -105 -37 -9 -2 -5)
1969/12/31/18:00:08.205000,(5 4 18 90 15 2 4 7)
1969/12/31/18:00:08.206000,(-13 0 47 127 73 22 6 -5)
1969/12/31/18:00:08.206000,(5 9 20 18 44 16 6 1)
1969/12/31/18:00:08.218000,(-6 -7 -9 -28 -8 -1 -4 -4)
1969/12/31/18:00:08.218000,(3 -5 -24 -66 -39 -9 0 4)
1969/12/31/18:00:08.227000,(-3 -9 -23 -56 -41 -16 -6 -3)
1969/12/31/18:00:08.227000,(2 2 -2 0 1 -6 -3 -2)
1969/12/31/18:00:08.242000,(5 6 1 9 2 4 4 3)
1969/12/31/18:00:08.242000,(-4 -3 -5 -11 -2 0 1 0)
1969/12/31/18:00:08.244000,(3 0 -2 -8 -7 0 1 2)
1969/12/31/18:00:08.244000,(-4 -1 -2 -7 -6 -3 -6 -6)
1969/12/31/18:00:08.265000,(-7 -4 3 47 21 3 2 -5)
1969/12/31/18:00:08.265000,(-1 1 9 21 12 3 5 2)
1969/12/31/18:00:08.266000,(-1 -3 1 -1 -4 -5 -4 -6)
1969/12/31/18:00:08.266000,(6 2 -4 -11 -10 -4 -1 6)
1969/12/31/18:00:08.278000,(-8 -2 5 5 4 -3 -4 -4)
1969/12/31/18:00:08.278000,(-14 -8 0 4 8 3 -1 -9)
1969/12/31/18:00:08.287000,(14 7 -11 -14 3 0 2 7)
1969/12/31/18:00:08.287000,(-2 -6 -4 -12 -18 -2 0 0)
1969/12/31/18:00:08.302000,(9 12 7 16 6 3 7 3)
1969/12/31/18:00:08.302000,(-1 -3 -2 -11 3 -1 -1 0)
1969/12/31/18:00:08.303000,(-5 -1 -6 -3 -6 -9 -9 -3)
1969/12/31/18:00:08.303000,(7 8 0 -9 3 -3 -7 -11)
1969/12/31/18:00:08.325000,(-13 -13 -13 -30 -14 -5 -7 -11)
1969/12/31/18:00:08.325000,(11 7 -2 -2 -5 1 6 10)
1969/12/31/18:00:08.326000,(3 1 11 26 8 2 0 1)
1969/12/31/18:00:08.326000,(-5 -1 4 22 21 4 0 0)
1969/12/31/18:00:08.338000,(-2 -1 8 28 6 6 3 3)
1969/12/31/18:00:08.338000,(0 1 -3 -21 -5 -4 -7 -9)
1969/12/31/18:00:08.347000,(-8 -7 -8 -15 -14 -6 -1 2)
1969/12/31/18:00:08.347000,(-4 -1 -3 -11 -6 -6 -6 -8)
1969/12/31/18:00:08.363000,(-4 -2 -1 -2 1 2 4 2)
1969/12/31/18:00:08.363000,(-5 -6 -6 -7 -5 -3 -7 -6)
1969/12/31/18:00:08.368000,(0 2 2 -1 2 2 1 -7)
1969/12/31/18:00:08.368000,(-1 -1 -1 4 0 1 2 2)
1969/12/31/18:00:08.385000,(5 2 -3 -5 -2 -1 -2 2)
1969/12/31/18:00:08.385000,(-10 -5 1 8 -2 -3 -3 -4)
1969/12/31/18:00:08.386000,(15 10 3 -2 1 5 9 11)
1969/12/31/18:00:08.386000,(-4 -4 -6 -9 -6 -4 -2 0)
1969/12/31/18:00:08.399000,(0 -2 3 20 3 6 5 2)
1969/12/31/18:00:08.399000,(4 5 2 1 4 1 2 3)
1969/12/31/18:00:08.407000,(-11 -5 1 4 6 3 -1 -7)
1969/12/31/18:00:08.407000,(-7 -7 -3 -5 -3 -3 -2 -6)
1969/12/31/18:00:08.423000,(16 7 0 -7 3 1 5 15)
1969/12/31/18:00:08.423000,(-7 -4 -3 -5 -7 -4 -3 -5)
1969/12/31/18:00:08.428000,(-23 -26 -8 -7 -9 -6 -5 -5)
1969/12/31/18:00:08.428000,(38 36 1 1 5 3 7 12)
1969/12/31/18:00:08.445000,(-4 -1 3 8 5 3 -1 -4)
1969/12/31/18:00:08.445000,(6 3 -2 -4 -3 -1 -2 5)
1969/12/31/18:00:08.446000,(0 1 3 0 4 6 7 3)
1969/12/31/18:00:08.446000,(-14 -12 -2 -8 -1 -1 -6 -6)
1969/12/31/18:00:08.458000,(-4 -2 0 9 -3 -3 -3 -4)
1969/12/31/18:00:08.458000,(11 9 0 3 0 1 1 3)
1969/12/31/18:00:08.467000,(3 6 4 3 3 5 4 4)
1969/12/31/18:00:08.467000,(-5 -5 0 7 5 1 -1 1)
1969/12/31/18:00:08.482000,(4 1 -1 -19 -6 -2 -2 -1)
1969/12/31/18:00:08.482000,(-9 -10 -3 -2 -8 -3 -1 -2)
1969/12/31/18:00:08.484000,(12 11 -2 -23 0 1 2 7)
1969/12/31/18:00:08.484000,(-4 -6 -9 -7 -13 -4 2 0)
1969/12/31/18:00:08.505000,(-8 -7 4 27 5 -5 -5 -5)
1969/12/31/18:00:08.505000,(2 5 15 42 30 9 6 1)
1969/12/31/18:00:08.511000,(1 3 7 19 8 1 -1 -2)
1969/12/31/18:00:08.511000,(-11 -8 -1 -9 5 1 -4 -6)
1969/12/31/18:00:08.518000,(-1 -1 -8 -24 -12 -5 -7 -7)
1969/12/31/18:00:08.518000,(-4 -6 -8 -19 -17 -10 -7 -4)
1969/12/31/18:00:08.527000,(6 5 -6 -7 -6 -1 0 2)
1969/12/31/18:00:08.527000,(-4 -8 -3 1 -1 -2 -1 -1)
1969/12/31/18:00:08.542000,(-14 -8 0 5 3 2 1 -5)
1969/12/31/18:00:08.542000,(15 9 -1 -12 -3 -3 -2 3)
1969/12/31/18:00:08.544000,(-9 -7 -1 -4 -2 -4 -2 -5)
1969/12/31/18:00:08.544000,(-2 -3 0 3 -2 -4 -3 -3)
1969/12/31/18:00:08.565000,(8 9 3 -8 0 4 8 9)
1969/12/31/18:00:08.565000,(1 3 2 6 -1 1 2 4)
1969/12/31/18:00:08.566000,(-10 -5 -3 6 4 -4 -9 -10)
1969/12/31/18:00:08.566000,(8 3 3 -4 -4 6 6 7)
1969/12/31/18:00:08.578000,(5 3 -3 3 -8 -2 -1 0)
1969/12/31/18:00:08.578000,(0 -1 -2 -8 0 4 6 5)
1969/12/31/18:00:08.587000,(-4 -4 -7 -18 -17 -3 -4 -6)
1969/12/31/18:00:08.587000,(-7 -6 0 21 17 -1 -3 0)
1969/12/31/18:00:08.602000,(-1 -2 1 4 -6 -1 0 -1)
1969/12/31/18:00:08.602000,(-9 -2 4 22 13 4 -1 -9)
1969/12/31/18:00:08.604000,(13 4 6 10 8 4 6 9)
1969/12/31/18:00:08.604000,(-9 -1 1 -7 -2 3 4 -3)
1969/12/31/18:00:08.625000,(2 -2 -8 -15 -3 -2 -6 -5)
1969/12/31/18:00:08.625000,(-4 -2 0 -16 -10 0 2 -2)
1969/12/31/18:00:08.626000,(-1 0 -1 1 -4 -4 -3 -4)
1969/12/31/18:00:08.626000,(4 1 -1 -2 0 2 2 8)
1969/12/31/18:00:08.638000,(2 -1 -1 3 4 0 1 1)
1969/12/31/18:00:08.638000,(2 0 -1 -6 -2 0 -2 2)
1969/12/31/18:00:08.647000,(-2 0 -1 -8 -7 -2 0 -1)
1969/12/31/18:00:08.647000,(2 0 -6 -30 -15 -6 -2 0)
1969/12/31/18:00:08.662000,(-11 -6 1 20 4 -1 -3 -5)
1969/12/31/18:00:08.662000,(13 9 13 42 29 7 5 8)
1969/12/31/18:00:08.664000,(-14 -12 1 15 -2 -4 -11 -13)
1969/12/31/18:00:08.664000,(6 12 6 4 1 4 6 10)
1969/12/31/18:00:08.685000,(-7 -5 -7 -29 -6 -2 -4 -11)
1969/12/31/18:00:08.685000,(2 -5 -17 -30 -20 -6 -2 5)
1969/12/31/18:00:08.686000,(-5 -3 1 16 5 2 1 -3)
1969/12/31/18:00:08.686000,(-28 -20 -1 15 3 -5 -12 -17)
1969/12/31/18:00:08.698000,(39 15 2 -3 0 0 6 21)
1969/12/31/18:00:08.698000,(-12 -5 0 -9 -4 5 3 -5)
1969/12/31/18:00:08.707000,(-3 -6 -7 -14 -7 -5 -2 -3)
1969/12/31/18:00:08.707000,(9 6 2 -9 -9 0 3 5)
1969/12/31/18:00:08.721000,(-13 -2 0 7 4 -1 -3 -3)
1969/12/31/18:00:08.721000,(-10 -7 0 18 8 -3 -6 -5)
1969/12/31/18:00:08.728000,(8 9 4 7 10 6 3 2)
1969/12/31/18:00:08.728000,(1 1 4 15 9 4 0 0)
1969/12/31/18:00:08.745000,(-5 0 -3 -17 5 3 1 -4)
1969/12/31/18:00:08.745000,(-1 -7 -10 -30 -25 -6 0 -1)
1969/12/31/18:00:08.746000,(-41 -26 -3 16 -1 -12 -16 -20)
1969/12/31/18:00:08.746000,(62 53 5 2 3 1 6 30)
1969/12/31/18:00:08.758000,(26 4 12 9 4 9 11 13)
1969/12/31/18:00:08.758000,(27 20 7 4 6 4 6 13)
1969/12/31/18:00:08.767000,(-8 -15 -11 -10 -2 -1 -1 -5)
1969/12/31/18:00:08.767000,(-23 -18 -5 4 -7 -7 -7 -13)
1969/12/31/18:00:08.781000,(13 9 -3 -8 3 5 9 16)
1969/12/31/18:00:08.781000,(3 8 2 1 -3 -1 -1 3)
1969/12/31/18:00:08.790000,(6 2 5 -3 -1 -1 2 9)
1969/12/31/18:00:08.790000,(-11 -10 -8 -4 -6 -4 -8 -11)
1969/12/31/18:00:08.805000,(-38 -31 -12 -35 -15 -8 -7 -13)
1969/12/31/18:00:08.805000,(32 18 -1 25 3 3 2 4)
1969/12/31/18:00:08.806000,(-1 21 14 31 16 2 2 8)
1969/12/31/18:00:08.806000,(-15 -13 10 -17 8 8 -1 -15)
1969/12/31/18:00:08.819000,(-43 -41 -5 20 -4 -5 -12 -26)
1969/12/31/18:00:08.819000,(-39 -38 -17 -38 -10 -3 0 -1)
1969/12/31/18:00:08.827000,(69 48 -14 -51 -25 -5 -1 12)
1969/12/31/18:00:08.827000,(15 15 12 51 13 -6 -1 3)
1969/12/31/18:00:08.841000,(29 23 13 14 12 11 11 10)
1969/12/31/18:00:08.842000,(-30 -20 1 0 0 -6 -12 -22)
1969/12/31/18:00:08.848000,(-10 -15 -5 -7 -6 3 4 4)
1969/12/31/18:00:08.848000,(7 -5 -19 -85 -27 0 7 8)
1969/12/31/18:00:08.865000,(11 9 -3 35 -4 -5 -3 7)
1969/12/31/18:00:08.865000,(1 13 17 25 26 6 0 0)
1969/12/31/18:00:08.866000,(-14 -17 -14 -43 -17 -5 -3 -5)
1969/12/31/18:00:08.866000,(1 0 -3 -7 -14 -9 -6 0)
1969/12/31/18:00:08.878000,(4 15 18 34 15 2 2 6)
1969/12/31/18:00:08.878000,(15 13 4 20 18 7 6 7)
1969/12/31/18:00:08.887000,(-11 -6 18 82 40 8 -2 -7)
1969/12/31/18:00:08.887000,(3 9 7 14 8 8 2 -1)
1969/12/31/18:00:08.910000,(-12 -23 -19 -67 -33 -11 -3 1)
1969/12/31/18:00:08.910000,(15 12 -9 -38 -25 -7 0 -2)
1969/12/31/18:00:08.911000,(9 7 -5 -14 -2 2 3 -2)
1969/12/31/18:00:08.911000,(-9 -12 -14 -47 -17 -4 -1 -2)
1969/12/31/18:00:08.925000,(-14 -8 -3 2 -18 -4 -7 -12)
1969/12/31/18:00:08.925000,(-12 -9 1 12 14 -2 -6 -7)
1969/12/31/18:00:08.931000,(-4 -6 1 21 15 6 5 3)
1969/12/31/18:00:08.931000,(-4 -3 14 78 28 7 0 -4)
1969/12/31/18:00:08.938000,(17 29 4 -39 -8 2 3 7)
1969/12/31/18:00:08.938000,(-15 -17 -17 -37 -14 -7 -3 -7)
1969/12/31/18:00:08.947000,(20 22 13 35 2 8 17 22)
1969/12/31/18:00:08.947000,(-13 -21 1 -4 9 3 -1 -5)
1969/12/31/18:00:08.961000,(-11 -11 -9 14 3 -3 -8 -14)
1969/12/31/18:00:08.961000,(2 2 3 2 -11 -4 2 5)
1969/12/31/18:00:08.968000,(4 0 -4 -38 -13 -3 1 3)
1969/12/31/18:00:08.968000,(-15 -22 -3 4 -6 -3 -4 -6)
1969/12/31/18:00:08.985000,(3 6 1 6 8 2 4 3)
1969/12/31/18:00:08.985000,(7 6 0 6 5 -2 1 2)
1969/12/31/18:00:08.986000,(-18 -11 -5 -8 1 0 -4 -10)
1969/12/31/18:00:08.986000,(17 6 2 17 7 8 9 15)
1969/12/31/18:00:08.998000,(-12 -3 0 -1 4 -1 -6 -13)
1969/12/31/18:00:08.998000,(11 8 0 -16 -14 -1 2 10)
1969/12/31/18:00:09.007000,(-9 -8 0 3 0 -6 -8 -10)
1969/12/31/18:00:09.007000,(-29 -15 10 16 10 9 13 4)
1969/12/31/18:00:09.021000,(7 9 -10 -10 5 3 5 11)
1969/12/31/18:00:09.021000,(-8 -13 -18 -61 -31 -6 -4 -7)
1969/12/31/18:00:09.028000,(6 7 -1 33 4 -5 -6 -2)
1969/12/31/18:00:09.028000,(1 6 6 14 8 -1 -5 -5)
1969/12/31/18:00:09.045000,(-18 -16 1 20 7 -1 -1 -2)
1969/12/31/18:00:09.045000,(13 8 -1 -8 -1 3 1 7)
1969/12/31/18:00:09.046000,(-9 -15 -4 -28 -16 -5 -6 -8)
1969/12/31/18:00:09.046000,(-10 3 -8 9 -1 -9 -12 -15)
1969/12/31/18:00:09.067000,(-10 -12 6 23 15 2 2 -3)
1969/12/31/18:00:09.067000,(3 10 6 8 -1 -4 -4 0)
1969/12/31/18:00:09.069000,(5 5 1 -15 -1 5 8 5)
1969/12/31/18:00:09.069000,(5 5 2 3 -4 -7 -8 -4)
1969/12/31/18:00:09.081000,(0 -1 -2 -12 3 6 8 5)
1969/12/31/18:00:09.081000,(-14 -25 -6 10 2 -3 -5 -7)
1969/12/31/18:00:09.090000,(-21 -18 3 4 2 6 1 -12)
1969/12/31/18:00:09.090000,(17 8 -5 -16 -8 -3 4 14)
1969/12/31/18:00:09.105000,(15 19 -2 -3 -4 -6 -10 -7)
1969/12/31/18:00:09.105000,(-23 -2 3 20 7 0 -5 -14)
1969/12/31/18:00:09.106000,(4 -11 3 -6 -4 0 9 16)
1969/12/31/18:00:09.106000,(-7 -7 -4 -9 0 8 8 5)
1969/12/31/18:00:09.127000,(6 1 -1 0 -2 -7 -8 -6)
1969/12/31/18:00:09.127000,(9 8 10 15 10 9 17 15)
1969/12/31/18:00:09.129000,(3 3 -8 -8 -8 -6 -9 -5)
1969/12/31/18:00:09.129000,(12 -1 -2 -3 -2 -4 -2 -2)
1969/12/31/18:00:09.141000,(8 10 5 4 6 13 21 20)
1969/12/31/18:00:09.141000,(-6 -5 0 3 -3 -6 -8 -8)
1969/12/31/18:00:09.150000,(-7 -12 -3 -5 -5 -6 -7 -1)
1969/12/31/18:00:09.150000,(1 11 -2 2 -1 -1 0 -4)
1969/12/31/18:00:09.165000,(10 2 -4 2 6 1 0 4)
1969/12/31/18:00:09.165000,(22 24 7 -1 -1 4 13 14)
1969/12/31/18:00:09.166000,(7 7 2 -5 -1 -2 -9 -5)
1969/12/31/18:00:09.166000,(0 5 -6 2 -3 -5 -7 -3)
1969/12/31/18:00:09.187000,(-7 -1 8 2 2 3 2 -4)
1969/12/31/18:00:09.187000,(-3 -8 -1 4 4 4 4 6)
1969/12/31/18:00:09.189000,(9 6 5 4 3 7 13 12)
1969/12/31/18:00:09.189000,(-10 -9 -5 -11 -11 -6 -6 -9)
1969/12/31/18:00:09.201000,(-4 1 -3 -1 -6 -9 -8 -7)
1969/12/31/18:00:09.201000,(-10 -9 8 12 11 7 1 -3)
1969/12/31/18:00:09.210000,(-13 -7 -1 0 3 -2 -4 -5)
1969/12/31/18:00:09.210000,(1 20 -7 -9 -5 -2 -1 -1)
1969/12/31/18:00:09.225000,(4 -7 7 0 1 6 7 -1)
1969/12/31/18:00:09.225000,(-18 -29 -13 -1 -5 -7 -11 -16)
1969/12/31/18:00:09.226000,(20 28 2 -4 2 7 13 13)
1969/12/31/18:00:09.226000,(-33 -27 -6 -3 -5 -6 -6 -16)
1969/12/31/18:00:09.247000,(32 28 5 1 3 6 13 33)
1969/12/31/18:00:09.247000,(21 16 5 8 6 5 5 11)
1969/12/31/18:00:09.249000,(-11 0 -2 -5 -3 -2 0 -6)
1969/12/31/18:00:09.249000,(19 -2 -4 -3 -1 0 3 17)
1969/12/31/18:00:09.261000,(-13 -6 4 3 -1 -2 -5 -12)
1969/12/31/18:00:09.261000,(-6 0 -2 -2 -3 -7 -10 -7)
1969/12/31/18:00:09.270000,(-14 -21 -4 -3 1 3 4 7)
1969/12/31/18:00:09.270000,(22 10 -1 -2 1 5 8 10)
1969/12/31/18:00:09.285000,(18 10 3 5 5 10 11 6)
1969/12/31/18:00:09.285000,(-21 -23 -8 -3 -10 -20 -27 -20)
1969/12/31/18:00:09.287000,(5 15 -3 -2 -3 -5 -5 -2)
1969/12/31/18:00:09.287000,(21 10 12 3 5 12 22 21)
1969/12/31/18:00:09.307000,(-24 -21 -12 -8 -9 -19 -30 -25)
1969/12/31/18:00:09.307000,(-7 3 -2 0 -1 2 3 -1)
1969/12/31/18:00:09.309000,(17 9 1 -1 1 -1 -7 -7)
1969/12/31/18:00:09.309000,(-23 -22 -7 1 -3 -9 -14 -16)
1969/12/31/18:00:09.321000,(-14 -9 5 3 0 0 0 -7)
1969/12/31/18:00:09.321000,(5 -3 -3 -1 4 11 14 13)
1969/12/31/18:00:09.330000,(13 16 -6 -8 -9 -5 -6 5)
1969/12/31/18:00:09.330000,(-2 -2 7 2 2 5 10 10)
1969/12/31/18:00:09.345000,(-3 1 1 -3 -6 -11 -14 -7)
1969/12/31/18:00:09.345000,(-25 -43 -9 -2 -8 -10 -10 -17)
1969/12/31/18:00:09.346000,(10 0 -2 1 12 17 17 16)
1969/12/31/18:00:09.346000,(-38 -36 -2 5 0 -1 -8 -15)
1969/12/31/18:00:09.367000,(37 50 10 -1 0 2 9 11)
1969/12/31/18:00:09.367000,(21 24 3 0 0 3 1 5)
1969/12/31/18:00:09.369000,(-5 2 -4 -6 -8 -11 -8 -9)
1969/12/31/18:00:09.369000,(-8 -7 -9 -2 3 1 -2 0)
1969/12/31/18:00:09.381000,(-39 -55 -10 -1 -1 -2 -6 -12)
1969/12/31/18:00:09.381000,(46 43 10 -2 6 9 13 21)
1969/12/31/18:00:09.390000,(-39 -54 -1 1 -3 -2 3 5)
1969/12/31/18:00:09.390000,(4 24 3 -2 0 -3 -8 -15)
1969/12/31/18:00:09.405000,(-13 -5 -8 -1 -6 -2 0 -3)
1969/12/31/18:00:09.405000,(9 24 2 -2 0 0 -2 -5)
1969/12/31/18:00:09.406000,(-11 -16 -1 4 3 -1 -4 -5)
1969/12/31/18:00:09.406000,(39 21 6 -9 -3 4 14 28)
1969/12/31/18:00:09.427000,(6 8 -2 -3 4 6 7 6)
1969/12/31/18:00:09.427000,(-35 -24 -4 2 -5 -11 -16 -24)
1969/12/31/18:00:09.429000,(66 50 5 1 -2 -3 12 49)
1969/12/31/18:00:09.429000,(-84 -71 -10 -2 -10 -20 -39 -65)
1969/12/31/18:00:09.441000,(85 100 12 5 19 28 46 65)
1969/12/31/18:00:09.441000,(1 3 5 -1 3 8 6 8)
1969/12/31/18:00:09.450000,(-18 -8 -3 0 -7 -10 -13 -23)
1969/12/31/18:00:09.450000,(36 31 3 -17 -10 7 16 25)
1969/12/31/18:00:09.464000,(-30 -53 -12 1 15 -7 -11 -12)
1969/12/31/18:00:09.464000,(-42 -48 -3 9 -14 -12 -12 -12)
1969/12/31/18:00:09.466000,(67 88 13 19 17 12 17 26)
1969/12/31/18:00:09.466000,(-35 -21 -8 -12 -10 -14 -25 -39)
1969/12/31/18:00:09.487000,(-12 -42 -9 -8 -4 9 5 2)
1969/12/31/18:00:09.487000,(-15 -33 3 3 14 8 10 1)
1969/12/31/18:00:09.489000,(-23 7 -3 0 -3 -3 -15 -32)
1969/12/31/18:00:09.489000,(26 43 -4 6 0 -5 10 26)
1969/12/31/18:00:09.501000,(10 22 5 -5 -14 -20 -26 -27)
1969/12/31/18:00:09.501000,(-23 -19 -7 -6 -5 -7 -12 -21)
1969/12/31/18:00:09.510000,(10 -3 4 -8 -2 7 11 12)
1969/12/31/18:00:09.510000,(-32 -52 -13 0 1 -6 -11 -15)
1969/12/31/18:00:09.525000,(14 23 6 0 -5 -3 5 20)
1969/12/31/18:00:09.525000,(45 40 4 -16 4 12 15 25)
1969/12/31/18:00:09.526000,(-61 -69 -12 5 -11 -14 -17 -28)
1969/12/31/18:00:09.526000,(30 33 12 12 14 15 16 10)
1969/12/31/18:00:09.547000,(-20 -24 -3 -18 -15 -8 -10 -13)
1969/12/31/18:00:09.547000,(-15 -9 4 37 7 -5 -11 -14)
1969/12/31/18:00:09.549000,(51 65 13 10 17 8 11 20)
1969/12/31/18:00:09.549000,(1 -3 3 10 10 8 6 7)
1969/12/31/18:00:09.561000,(-25 -42 -10 -1 -4 -7 -9 -12)
1969/12/31/18:00:09.561000,(37 70 -6 -34 -17 -6 -2 7)
1969/12/31/18:00:09.570000,(-84 -108 -28 -26 -23 -16 -29 -49)
1969/12/31/18:00:09.570000,(28 53 10 13 5 -1 -4 -1)
1969/12/31/18:00:09.585000,(27 40 10 -6 -5 -8 -8 0)
1969/12/31/18:00:09.585000,(-15 -17 -6 -7 -5 1 -2 -7)
1969/12/31/18:00:09.586000,(-26 -28 -14 -9 -15 -24 -29 -25)
1969/12/31/18:00:09.586000,(9 11 12 9 22 31 34 14)
1969/12/31/18:00:09.607000,(-47 -47 -13 -3 -10 -13 -24 -30)
1969/12/31/18:00:09.607000,(25 24 1 -10 -8 -2 9 16)
1969/12/31/18:00:09.609000,(-2 -4 2 23 26 5 0 0)
1969/12/31/18:00:09.609000,(-20 -30 2 12 9 -1 -3 -6)
1969/12/31/18:00:09.622000,(7 18 -3 -14 21 9 5 3)
1969/12/31/18:00:09.622000,(-17 -28 1 25 -18 0 4 5)
1969/12/31/18:00:09.630000,(-14 -26 15 11 3 -1 1 -3)
1969/12/31/18:00:09.630000,(30 60 -4 -9 -6 -9 -4 10)
1969/12/31/18:00:09.644000,(21 20 -4 8 10 5 7 7)
1969/12/31/18:00:09.644000,(22 9 -12 -35 -5 -3 2 12)
1969/12/31/18:00:09.651000,(35 17 12 -7 0 18 21 28)
1969/12/31/18:00:09.651000,(-13 -17 -5 -3 -4 -2 -5 -9)
1969/12/31/18:00:09.667000,(-36 -62 -8 3 -6 -8 -9 -15)
1969/12/31/18:00:09.667000,(4 12 -2 -1 3 -7 -10 -5)
1969/12/31/18:00:09.669000,(-9 -16 -2 -11 -12 0 5 3)
1969/12/31/18:00:09.669000,(0 1 -1 -3 1 -11 -9 -1)
1969/12/31/18:00:09.681000,(-39 -44 1 23 14 15 6 -12)
1969/12/31/18:00:09.681000,(-10 -16 2 12 8 4 4 1)
1969/12/31/18:00:09.690000,(3 10 -3 -4 -2 -9 -12 -9)
1969/12/31/18:00:09.690000,(-88 -116 -27 -21 -21 -17 -30 -46)
1969/12/31/18:00:09.704000,(58 62 20 3 -3 12 30 32)
1969/12/31/18:00:09.704000,(17 11 -1 -9 5 5 6 10)
1969/12/31/18:00:09.711000,(15 20 -1 6 -6 -4 0 6)
1969/12/31/18:00:09.711000,(-15 -27 -5 4 0 -13 -15 -6)
1969/12/31/18:00:09.727000,(42 88 5 8 -5 -16 -18 -7)
1969/12/31/18:00:09.727000,(-27 -17 7 4 16 18 9 -19)
1969/12/31/18:00:09.729000,(16 10 -3 -13 2 16 26 22)
1969/12/31/18:00:09.729000,(12 15 -4 -5 -13 -3 0 9)
1969/12/31/18:00:09.741000,(-21 -20 -4 -2 1 1 -1 -13)
1969/12/31/18:00:09.741000,(15 19 4 -6 -2 -2 3 10)
1969/12/31/18:00:09.750000,(-6 3 -7 -17 -12 -10 -9 -9)
1969/12/31/18:00:09.750000,(23 14 11 11 1 10 16 18)
1969/12/31/18:00:09.772000,(-11 -17 -3 -12 -18 -9 -6 1)
1969/12/31/18:00:09.772000,(1 -4 -10 2 21 -2 -4 -1)
1969/12/31/18:00:09.774000,(-13 -20 12 30 9 14 7 0)
1969/12/31/18:00:09.774000,(-5 -15 6 0 -4 -2 -4 -2)
1969/12/31/18:00:09.787000,(38 12 -6 -7 -7 -4 6 19)
1969/12/31/18:00:09.787000,(-31 -46 -13 -2 -2 -8 -16 -30)
1969/12/31/18:00:09.789000,(-9 8 -6 -14 -1 -3 -13 -19)
1969/12/31/18:00:09.789000,(10 18 -3 -22 -5 7 14 8)
1969/12/31/18:00:09.801000,(-31 -28 -3 19 -1 -9 -15 -15)
1969/12/31/18:00:09.801000,(19 13 11 13 9 11 21 26)
1969/12/31/18:00:09.810000,(11 9 -1 2 8 3 2 5)
1969/12/31/18:00:09.810000,(4 4 0 -5 -8 -4 -5 -1)
1969/12/31/18:00:09.825000,(-27 -25 0 -5 4 4 4 -4)
1969/12/31/18:00:09.825000,(0 -4 -4 -5 -17 -3 2 4)
1969/12/31/18:00:09.826000,(-1 8 4 -1 -6 -5 -3 -1)
1969/12/31/18:00:09.826000,(27 31 -4 -40 -24 -7 1 14)
1969/12/31/18:00:09.847000,(-10 -8 1 7 -5 -6 -2 -5)
1969/12/31/18:00:09.847000,(-14 -16 11 25 25 7 -2 -3)
1969/12/31/18:00:09.849000,(-2 -7 -8 22 20 0 -6 -2)
1969/12/31/18:00:09.849000,(-21 -13 11 24 16 3 -7 -19)
1969/12/31/18:00:09.861000,(16 8 -1 -16 -4 6 17 25)
1969/12/31/18:00:09.861000,(-21 -10 -10 -24 -28 -15 -15 -20)
1969/12/31/18:00:09.870000,(15 -5 -5 -20 -17 -5 5 11)
1969/12/31/18:00:09.870000,(20 11 -4 -16 -2 -2 3 10)
1969/12/31/18:00:09.892000,(-18 -11 0 14 -5 -6 -9 -11)
1969/12/31/18:00:09.892000,(0 -6 3 30 34 9 9 11)
1969/12/31/18:00:09.893000,(64 80 15 4 13 22 17 15)
1969/12/31/18:00:09.893000,(6 6 -2 5 0 -8 -4 0)
1969/12/31/18:00:09.907000,(-7 -17 -3 -30 -47 -16 -9 -9)
1969/12/31/18:00:09.907000,(26 38 -2 -2 3 -3 -1 3)
1969/12/31/18:00:09.909000,(9 17 16 15 26 16 17 24)
1969/12/31/18:00:09.909000,(2 -5 1 1 -6 -3 -4 -4)
1969/12/31/18:00:09.921000,(-5 -7 -9 -21 -39 -27 -15 -11)
1969/12/31/18:00:09.921000,(-4 -3 -2 -13 -25 -11 -6 -4)
1969/12/31/18:00:09.930000,(-16 -17 -2 2 40 18 3 -4)
1969/12/31/18:00:09.930000,(12 11 12 38 51 42 17 10)
1969/12/31/18:00:09.944000,(-4 -8 5 25 40 25 15 8)
1969/12/31/18:00:09.944000,(-3 -4 -3 -11 -31 -17 -8 -4)
1969/12/31/18:00:09.951000,(-13 -12 -10 -27 -45 -32 -17 -11)
1969/12/31/18:00:09.951000,(-1 -6 -7 -6 -12 -9 2 6)
1969/12/31/18:00:09.967000,(1 1 -2 2 8 0 -2 -5)
1969/12/31/18:00:09.967000,(17 12 5 -1 1 3 9 17)
1969/12/31/18:00:09.969000,(-7 13 -7 -5 -10 -6 -4 -9)
1969/12/31/18:00:09.969000,(0 2 -1 3 0 -3 0 2)
1969/12/31/18:00:09.990000,(-2 -11 0 1 10 6 0 2)
1969/12/31/18:00:09.990000,(12 12 3 0 6 5 4 6)
1969/12/31/18:00:09.991000,(-37 -28 -7 -4 6 -11 -17 -30)
1969/12/31/18:00:09.991000,(-49 -29 -7 2 -21 -6 -11 -38)
1969/12/31/18:00:10.004000,(29 14 7 -1 15 14 15 17)
1969/12/31/18:00:10.004000,(-8 -11 0 10 8 2 -5 -6)
1969/12/31/18:00:10.011000,(-15 -15 -4 0 -6 -7 -10 -13)
1969/12/31/18:00:10.011000,(10 1 -2 -10 -7 -2 1 8)
1969/12/31/18:00:10.027000,(-2 0 -2 6 10 -6 -5 -5)
1969/12/31/18:00:10.027000,(-12 -9 -8 -39 -22 1 -2 -8)
1969/12/31/18:00:10.029000,(8 -7 3 18 2 11 12 14)
1969/12/31/18:00:10.029000,(13 7 1 5 18 6 8 11)
1969/12/31/18:00:10.050000,(-28 -38 3 20 18 12 0 -6)
1969/12/31/18:00:10.050000,(77 87 23 17 7 -1 10 42)
1969/12/31/18:00:10.051000,(-23 -21 -9 -12 -16 -13 -13 -19)
1969/12/31/18:00:10.051000,(8 -7 -3 -13 -14 -8 -4 5)
1969/12/31/18:00:10.063000,(-3 5 -6 -12 -4 0 3 0)
1969/12/31/18:00:10.063000,(8 14 -8 -5 -10 -14 -17 -13)
1969/12/31/18:00:10.072000,(2 -5 -5 -10 -7 2 -3 -4)
1969/12/31/18:00:10.072000,(3 2 1 5 4 -4 -3 -2)
1969/12/31/18:00:10.087000,(10 10 -3 -7 -6 -5 -5 1)
1969/12/31/18:00:10.087000,(-50 -68 -7 5 -1 1 -3 -14)
1969/12/31/18:00:10.089000,(-8 5 4 4 -3 -6 -5 -9)
1969/12/31/18:00:10.089000,(59 46 10 8 19 27 39 50)
1969/12/31/18:00:10.110000,(1 16 -3 -5 -6 -10 -18 -19)
1969/12/31/18:00:10.110000,(-14 -18 1 4 4 3 0 -6)
1969/12/31/18:00:10.111000,(-36 -37 -11 -6 -5 -6 -9 -16)
1969/12/31/18:00:10.111000,(-17 -12 -8 -10 -11 -11 -12 -14)
1969/12/31/18:00:10.124000,(-7 -3 -3 3 0 2 1 -2)
1969/12/31/18:00:10.124000,(-20 -38 -1 5 8 6 7 0)
1969/12/31/18:00:10.131000,(32 32 1 -8 -9 -7 -1 12)
1969/12/31/18:00:10.131000,(-10 4 0 2 -4 -10 -11 -15)
1969/12/31/18:00:10.147000,(27 12 -2 1 7 8 13 30)
1969/12/31/18:00:10.147000,(-7 9 -6 -8 -3 -9 -13 -15)
1969/12/31/18:00:10.149000,(7 1 0 1 -8 7 11 9)
1969/12/31/18:00:10.149000,(-15 -11 0 1 0 -6 -7 -8)
1969/12/31/18:00:10.170000,(-14 -1 1 1 -2 -2 -5 -14)
1969/12/31/18:00:10.170000,(6 -1 2 8 13 13 16 18)
1969/12/31/18:00:10.171000,(-1 -11 3 1 2 4 9 10)
1969/12/31/18:00:10.171000,(21 12 4 5 7 10 11 16)
1969/12/31/18:00:10.184000,(-23 -18 -4 -6 -6 -8 -14 -21)
1969/12/31/18:00:10.184000,(33 49 9 2 3 8 18 27)
1969/12/31/18:00:10.191000,(2 -1 3 -2 -3 -3 -4 -1)
1969/12/31/18:00:10.191000,(-13 -17 -6 -8 -8 -4 -5 -6)
1969/12/31/18:00:10.207000,(12 13 -5 -19 -3 2 4 4)
1969/12/31/18:00:10.207000,(-14 -12 2 23 3 -2 -7 -13)
1969/12/31/18:00:10.209000,(-4 -1 14 34 18 6 3 0)
1969/12/31/18:00:10.209000,(19 40 6 12 9 5 7 5)
1969/12/31/18:00:10.237000,(11 8 2 -4 -1 6 10 16)
1969/12/31/18:00:10.237000,(-12 -8 -8 -21 -14 -11 -14 -19)
1969/12/31/18:00:10.239000,(-2 -7 -11 -18 -3 -1 1 3)
1969/12/31/18:00:10.239000,(-3 -12 -5 -22 -19 -7 -4 -1)
1969/12/31/18:00:10.244000,(-11 -9 -3 9 -13 -4 -5 -10)
1969/12/31/18:00:10.244000,(-3 -3 10 29 6 -1 -2 -6)
1969/12/31/18:00:10.251000,(2 -2 4 21 22 10 5 7)
1969/12/31/18:00:10.251000,(-13 -15 -5 -10 4 1 -2 -5)
1969/12/31/18:00:10.275000,(5 4 -4 -16 0 0 4 4)
1969/12/31/18:00:10.275000,(-5 -10 -12 -57 -35 -7 -5 -3)
1969/12/31/18:00:10.276000,(-1 4 1 23 6 -6 -4 -1)
1969/12/31/18:00:10.276000,(3 -1 -6 -31 -15 -1 0 4)
1969/12/31/18:00:10.290000,(-4 -4 -13 -55 -3 -3 -3 -4)
1969/12/31/18:00:10.290000,(4 2 9 31 -8 1 1 2)
1969/12/31/18:00:10.291000,(0 -1 -11 -65 -26 -8 -3 0)
1969/12/31/18:00:10.291000,(-8 -4 25 116 46 6 -2 -5)
1969/12/31/18:00:10.305000,(-6 3 24 62 94 23 8 -1)
1969/12/31/18:00:10.305000,(-10 -11 -22 -49 -31 -3 -6 -9)
1969/12/31/18:00:10.312000,(7 5 8 15 -38 -4 7 6)
1969/12/31/18:00:10.312000,(-3 -2 -1 -16 8 -4 -4 -3)
1969/12/31/18:00:10.327000,(2 1 -2 17 24 -3 0 3)
1969/12/31/18:00:10.327000,(3 2 -6 -20 12 1 1 3)
1969/12/31/18:00:10.329000,(-5 -8 -21 8 -25 -16 -12 -8)
1969/12/31/18:00:10.329000,(0 -4 -2 11 -19 -2 3 4)
1969/12/31/18:00:10.350000,(-5 4 39 115 40 6 -3 -6)
1969/12/31/18:00:10.350000,(1 5 25 48 40 19 8 4)
1969/12/31/18:00:10.351000,(-1 -6 -32 -117 -60 -13 -2 -3)
1969/12/31/18:00:10.351000,(0 -3 -14 50 -14 -8 -3 -2)
1969/12/31/18:00:10.363000,(4 2 1 6 5 6 4 3)
1969/12/31/18:00:10.363000,(-2 0 14 65 45 6 -1 -3)
1969/12/31/18:00:10.372000,(2 4 15 22 1 5 3 2)
1969/12/31/18:00:10.372000,(-2 -4 -15 -93 -22 -8 -3 -4)
1969/12/31/18:00:10.387000,(3 -8 -46 -108 -92 -18 -4 2)
1969/12/31/18:00:10.387000,(4 6 17 89 18 6 7 6)
1969/12/31/18:00:10.389000,(-4 8 25 82 61 18 -2 -5)
1969/12/31/18:00:10.389000,(4 0 8 43 -1 -11 -3 3)
1969/12/31/18:00:10.417000,(-19 -16 -14 -74 -33 -22 -16 -18)
1969/12/31/18:00:10.417000,(-2 -4 -8 -26 -23 -7 0 0)
1969/12/31/18:00:10.418000,(2 4 6 -24 21 7 1 2)
1969/12/31/18:00:10.418000,(0 1 3 17 6 12 4 1)
1969/12/31/18:00:10.432000,(13 9 -7 -65 -39 -2 9 13)
1969/12/31/18:00:10.432000,(-3 -9 -24 18 -5 -12 -8 -5)
1969/12/31/18:00:10.432000,(-2 0 13 31 30 3 0 -1)
1969/12/31/18:00:10.432000,(-10 -6 -18 -68 -12 -4 -7 -9)
1969/12/31/18:00:10.446000,(-2 -3 7 76 0 -1 -2 -1)
1969/12/31/18:00:10.446000,(-2 2 17 1 7 6 2 -1)
1969/12/31/18:00:10.447000,(3 4 4 44 23 10 5 4)
1969/12/31/18:00:10.447000,(-1 4 32 95 61 10 1 1)
1969/12/31/18:00:10.469000,(0 4 3 2 2 5 0 0)
1969/12/31/18:00:10.469000,(3 -5 -14 -54 -21 -5 -1 1)
1969/12/31/18:00:10.470000,(-4 -4 -11 -42 -38 -18 -8 -7)
1969/12/31/18:00:10.470000,(1 -4 -30 -88 -36 -3 0 -2)
1969/12/31/18:00:10.491000,(2 -4 -6 21 -8 0 2 2)
1969/12/31/18:00:10.491000,(1 6 15 29 21 -9 -4 -1)
1969/12/31/18:00:10.492000,(-9 -14 -15 -39 -5 -2 -2 -4)
1969/12/31/18:00:10.492000,(-5 -3 7 -8 -23 -7 -5 -5)
1969/12/31/18:00:10.506000,(1 4 9 60 38 7 3 -2)
1969/12/31/18:00:10.506000,(-5 -6 -12 -26 -15 -1 -4 -5)
1969/12/31/18:00:10.507000,(6 1 -11 -57 -55 -7 4 4)
1969/12/31/18:00:10.507000,(7 8 10 22 29 8 6 5)
1969/12/31/18:00:10.530000,(-3 4 22 66 36 18 1 -4)
1969/12/31/18:00:10.530000,(5 0 -24 -76 -24 0 2 3)
1969/12/31/18:00:10.531000,(1 0 11 74 29 2 2 4)
1969/12/31/18:00:10.531000,(-14 -12 4 -5 -19 -9 -7 -9)
1969/12/31/18:00:10.551000,(0 2 4 0 -3 -3 0 -2)
1969/12/31/18:00:10.551000,(-3 0 0 10 19 3 -1 -4)
1969/12/31/18:00:10.552000,(6 2 -15 -63 -20 -2 0 4)
1969/12/31/18:00:10.552000,(5 3 -15 -2 -20 -1 1 2)
1969/12/31/18:00:10.566000,(6 1 10 40 23 -1 1 7)
1969/12/31/18:00:10.566000,(-8 -1 12 -29 -9 -1 0 -3)
1969/12/31/18:00:10.567000,(-4 -7 -9 12 5 -3 -5 -5)
1969/12/31/18:00:10.567000,(-2 -1 0 -7 -1 -2 -1 -2)
1969/12/31/18:00:10.597000,(0 1 -1 -27 -21 -1 4 2)
1969/12/31/18:00:10.597000,(1 -1 -8 8 7 3 -1 0)
1969/12/31/18:00:10.598000,(1 3 12 25 20 4 3 0)
1969/12/31/18:00:10.598000,(-4 -6 0 15 23 2 -1 -1)
1969/12/31/18:00:10.611000,(-7 -5 -2 -24 -21 -3 -3 -4)
1969/12/31/18:00:10.611000,(4 1 -4 -13 -11 -1 2 3)
1969/12/31/18:00:10.612000,(-2 -1 1 29 17 -2 1 -2)
1969/12/31/18:00:10.612000,(0 -1 -7 -27 -16 -1 0 -2)
1969/12/31/18:00:10.626000,(3 3 0 28 15 5 1 2)
1969/12/31/18:00:10.626000,(-2 -2 8 16 14 3 -2 -2)
1969/12/31/18:00:10.627000,(3 7 0 -15 -14 -3 1 0)
1969/12/31/18:00:10.627000,(-1 -2 3 0 3 -1 -1 -1)
1969/12/31/18:00:10.649000,(-4 -7 -15 -44 -26 -10 -4 -2)
1969/12/31/18:00:10.649000,(2 1 1 13 13 8 3 0)
1969/12/31/18:00:10.650000,(-2 -4 -10 -12 -14 -6 -4 -5)
1969/12/31/18:00:10.650000,(-1 -3 0 21 11 3 2 0)
1969/12/31/18:00:10.672000,(-1 -5 4 -1 -1 1 0 0)
1969/12/31/18:00:10.672000,(9 4 -11 -24 -21 -3 2 4)
1969/12/31/18:00:10.672000,(-2 -1 4 -12 5 -1 -5 -4)
1969/12/31/18:00:10.672000,(7 0 -11 -1 -3 1 1 3)
1969/12/31/18:00:10.687000,(-2 -5 0 -11 -3 -1 -2 -3)
1969/12/31/18:00:10.687000,(-5 -4 -4 -3 -7 -7 -6 -4)
1969/12/31/18:00:10.688000,(-2 -3 3 12 11 2 0 1)
1969/12/31/18:00:10.688000,(-1 4 2 -10 -6 -2 -1 -3)
1969/12/31/18:00:10.709000,(2 6 1 -7 1 -2 -1 1)
1969/12/31/18:00:10.709000,(-2 -1 6 10 -7 -5 0 0)
1969/12/31/18:00:10.710000,(-1 -1 -4 -4 7 0 -2 -3)
1969/12/31/18:00:10.710000,(2 5 7 -1 5 4 0 2)
1969/12/31/18:00:10.731000,(1 4 1 5 1 0 -1 1)
1969/12/31/18:00:10.731000,(-5 -4 0 4 3 -2 -4 -5)
1969/12/31/18:00:10.732000,(0 0 4 14 0 0 -1 -1)
1969/12/31/18:00:10.732000,(2 -4 -9 -23 -11 -3 0 2)
1969/12/31/18:00:10.746000,(0 -1 -17 -32 -20 -5 -1 1)
1969/12/31/18:00:10.746000,(1 2 10 19 15 2 1 -1)
1969/12/31/18:00:10.754000,(-5 -3 7 17 4 2 -2 -1)
1969/12/31/18:00:10.754000,(0 4 15 28 27 10 2 1)
1969/12/31/18:00:10.769000,(-3 0 1 11 0 -2 -2 -3)
1969/12/31/18:00:10.769000,(4 -2 -14 -28 -12 -4 2 6)
1969/12/31/18:00:10.770000,(0 0 -7 4 -6 2 2 1)
1969/12/31/18:00:10.770000,(0 3 8 -10 -2 -1 2 1)
1969/12/31/18:00:10.792000,(-4 -2 1 13 0 -3 -7 -7)
1969/12/31/18:00:10.792000,(0 5 10 10 6 1 2 0)
1969/12/31/18:00:10.793000,(0 -1 3 4 10 6 6 1)
1969/12/31/18:00:10.793000,(5 0 -11 -14 -14 -6 -1 3)
1969/12/31/18:00:10.806000,(6 1 -5 -20 -7 2 2 1)
1969/12/31/18:00:10.806000,(-2 0 4 26 19 2 -3 -2)
1969/12/31/18:00:10.807000,(-3 1 4 0 -7 -6 -2 -1)
1969/12/31/18:00:10.807000,(0 2 2 6 13 3 1 0)
1969/12/31/18:00:10.829000,(2 -2 -5 -11 -9 -4 -1 0)
1969/12/31/18:00:10.829000,(-2 -4 -8 1 -8 -2 -3 -4)
1969/12/31/18:00:10.830000,(2 2 -2 -16 -2 -1 2 3)
1969/12/31/18:00:10.830000,(-6 -4 0 10 -11 -5 -2 -2)
1969/12/31/18:00:10.852000,(-3 0 3 9 11 0 0 0)
1969/12/31/18:00:10.852000,(1 2 -1 -4 4 3 2 2)
1969/12/31/18:00:10.853000,(0 -2 -4 -9 2 6 4 1)
1969/12/31/18:00:10.853000,(-2 -2 4 10 -4 -5 -4 -1)
1969/12/31/18:00:10.866000,(-2 2 4 4 6 4 0 -1)
1969/12/31/18:00:10.866000,(-5 -3 -3 -9 -10 -4 -2 -2)
1969/12/31/18:00:10.867000,(-3 -4 -3 -6 -5 -2 -2 -2)
1969/12/31/18:00:10.867000,(3 1 -4 -1 3 3 6 3)
1969/12/31/18:00:10.889000,(-3 -2 1 3 7 2 0 -2)
1969/12/31/18:00:10.889000,(1 0 -2 -9 -7 -2 -1 1)
1969/12/31/18:00:10.890000,(1 0 1 3 0 -1 -2 0)
1969/12/31/18:00:10.890000,(-5 -1 -3 -4 -1 -1 -4 -3)
1969/12/31/18:00:10.911000,(-1 -3 1 -2 -2 0 -2 -1)
1969/12/31/18:00:10.911000,(-3 -2 -3 -5 -17 -3 -1 -1)
1969/12/31/18:00:10.919000,(2 2 0 5 19 1 -1 0)
1969/12/31/18:00:10.919000,(0 -2 -3 1 -2 -1 2 0)
1969/12/31/18:00:10.928000,(2 4 1 -8 -3 0 3 2)
1969/12/31/18:00:10.928000,(-1 1 3 5 2 -1 -1 -3)
1969/12/31/18:00:10.929000,(-3 -5 3 8 -1 -2 -3 -3)
1969/12/31/18:00:10.929000,(0 -2 -1 -5 1 0 -2 -2)
1969/12/31/18:00:10.949000,(-1 -2 -4 -5 -2 -3 -4 -3)
1969/12/31/18:00:10.949000,(2 0 -1 -1 -3 0 1 1)
1969/12/31/18:00:10.950000,(1 3 4 6 0 -2 0 -1)
1969/12/31/18:00:10.950000,(-2 -1 -2 -5 1 2 2 0)
1969/12/31/18:00:10.972000,(-4 -5 -4 -3 -4 -3 -2 -4)
1969/12/31/18:00:10.972000,(0 -1 -1 1 1 0 -1 1)
1969/12/31/18:00:10.973000,(0 1 1 3 0 1 -1 0)
1969/12/31/18:00:10.973000,(-1 0 -2 1 -1 -1 0 -1)
1969/12/31/18:00:10.986000,(1 -1 -1 -1 0 1 0 0)
1969/12/31/18:00:10.987000,(0 -1 -1 -2 2 -1 -2 -1)
1969/12/31/18:00:10.987000,(0 1 -1 -2 -2 -1 0 0)
1969/12/31/18:00:10.987000,(1 -1 -2 -1 -2 -1 -2 -2)
1969/12/31/18:00:11.009000,(-1 0 -1 1 0 0 1 1)
1969/12/31/18:00:11.009000,(-2 -2 0 -1 1 2 -1 -2)
1969/12/31/18:00:11.010000,(0 0 0 1 -3 1 2 2)
1969/12/31/18:00:11.010000,(-1 -1 2 1 1 -3 -1 0)
1969/12/31/18:00:11.032000,(0 2 -1 -3 -1 -1 -1 -1)
1969/12/31/18:00:11.032000,(-1 -1 -1 -2 0 -1 2 -1)
1969/12/31/18:00:11.033000,(2 1 0 1 0 1 0 0)
1969/12/31/18:00:11.033000,(-1 -1 1 -2 -1 -1 -2 -2)
1969/12/31/18:00:11.046000,(-1 -2 -1 -1 -2 0 -3 0)
1969/12/31/18:00:11.046000,(-2 -1 -2 -2 -2 -3 -1 -2)
1969/12/31/18:00:11.047000,(-1 0 1 0 -1 0 0 0)
1969/12/31/18:00:11.047000,(-1 1 0 -1 0 0 -1 -1)
1969/12/31/18:00:11.069000,(-3 -1 0 -1 0 -1 0 -1)
1969/12/31/18:00:11.069000,(-2 -2 -1 0 1 -1 -3 -2)
1969/12/31/18:00:11.070000,(-2 -1 -2 0 -1 0 0 0)
1969/12/31/18:00:11.070000,(1 -1 -1 0 0 1 -1 1)
1969/12/31/18:00:11.100000,(-1 -1 0 0 -1 3 1 3)
1969/12/31/18:00:11.100000,(0 0 -2 1 1 -1 -2 -1)
1969/12/31/18:00:11.100000,(0 0 0 -1 0 -1 -2 -2)
1969/12/31/18:00:11.100000,(-1 -1 -1 2 0 0 -2 0)
1969/12/31/18:00:11.106000,(2 -1 0 -2 0 -1 2 2)
1969/12/31/18:00:11.106000,(1 -2 0 -1 -2 -1 -1 2)
1969/12/31/18:00:11.107000,(0 -1 -1 -1 -1 0 -2 -2)
1969/12/31/18:00:11.107000,(-2 -1 0 0 -1 -1 -1 -3)
1969/12/31/18:00:11.145000,(0 0 0 0 1 -2 -1 0)
1969/12/31/18:00:11.145000,(-2 -2 -1 0 -2 1 2 -1)
1969/12/31/18:00:11.146000,(-1 -1 0 -1 0 -1 0 -1)
1969/12/31/18:00:11.146000,(0 0 0 1 0 1 0 2)
1969/12/31/18:00:11.154000,(0 1 -2 -1 0 -1 -1 -1)
1969/12/31/18:00:11.154000,(-1 0 -1 0 0 -1 -2 0)
1969/12/31/18:00:11.154000,(0 0 -1 -2 -3 -2 -1 2)
1969/12/31/18:00:11.154000,(0 -1 -1 -1 1 0 -2 -1)
1969/12/31/18:00:11.166000,(1 -2 -1 -1 -3 0 -1 -2)
1969/12/31/18:00:11.166000,(-1 0 0 1 0 -1 0 1)
1969/12/31/18:00:11.167000,(-1 -1 0 -1 0 -1 -1 1)
1969/12/31/18:00:11.167000,(0 0 -1 1 -2 -1 0 1)
1969/12/31/18:00:11.191000,(-1 -2 -2 1 -1 -1 -1 -2)
1969/12/31/18:00:11.191000,(-2 0 1 1 0 0 0 -1)
1969/12/31/18:00:11.197000,(0 0 -1 -1 -1 0 1 -1)
1969/12/31/18:00:11.197000,(-1 0 0 -2 -1 -1 0 -3)
1969/12/31/18:00:11.212000,(-1 -2 0 0 1 0 -1 -1)
1969/12/31/18:00:11.212000,(0 0 -1 -2 -1 0 -2 1)
1969/12/31/18:00:11.213000,(1 -1 -1 2 0 0 1 1)
1969/12/31/18:00:11.213000,(-2 0 -2 -1 -1 0 -1 -2)
1969/12/31/18:00:11.226000,(-1 -1 0 -1 0 0 1 1)
1969/12/31/18:00:11.226000,(0 0 0 -1 -2 1 2 0)
1969/12/31/18:00:11.227000,(-2 -1 0 1 -2 0 -2 -3)
1969/12/31/18:00:11.227000,(0 -1 1 -3 0 -2 0 0)
1969/12/31/18:00:11.227000,(-3 -4 -4 -4 -4 -6 -6 -5)
1969/12/31/18:00:11.227000,(1 2 1 0 -2 0 -1 1)
1969/12/31/18:00:11.228000,(-2 0 0 -3 -2 -1 0 0)
1969/12/31/18:00:11.228000,(3 -2 -4 -2 -2 -1 1 1)
1969/12/31/18:00:11.240000,(1 3 2 3 4 4 0 -1)
1969/12/31/18:00:11.240000,(-2 -3 1 4 4 2 -1 -3)
1969/12/31/18:00:11.249000,(4 1 0 -1 -1 2 3 3)
1969/12/31/18:00:11.249000,(-1 -1 1 -4 -1 -2 -1 -1)
1969/12/31/18:00:11.264000,(-1 0 -3 -4 -2 -3 -1 -3)
1969/12/31/18:00:11.264000,(-1 2 -2 -3 -2 -3 -2 0)
1969/12/31/18:00:11.266000,(1 2 1 1 1 3 1 1)
1969/12/31/18:00:11.266000,(-1 0 1 4 4 3 -1 0)
1969/12/31/18:00:11.287000,(-1 -2 -1 -2 -6 -5 0 0)
1969/12/31/18:00:11.287000,(0 -2 0 -1 0 0 2 0)
1969/12/31/18:00:11.288000,(0 0 0 1 -1 0 2 2)
1969/12/31/18:00:11.288000,(0 2 1 -1 -2 -1 -3 1)
1969/12/31/18:00:11.300000,(-3 0 -4 -5 -8 -1 2 1)
1969/12/31/18:00:11.300000,(1 0 -1 -2 2 -2 -2 1)
1969/12/31/18:00:11.309000,(-1 -1 3 3 2 0 -2 -1)
1969/12/31/18:00:11.309000,(-1 -1 3 7 8 1 0 0)
1969/12/31/18:00:11.332000,(-1 -1 -2 0 -1 -1 -3 -2)
1969/12/31/18:00:11.332000,(1 2 -3 -2 -3 2 1 0)
1969/12/31/18:00:11.339000,(0 -1 -3 -4 -5 -1 0 -1)
1969/12/31/18:00:11.339000,(-1 1 1 -4 -3 -3 -3 -3)
1969/12/31/18:00:11.347000,(0 -3 -2 -3 -1 -3 1 -1)
1969/12/31/18:00:11.347000,(1 2 0 1 2 3 4 2)
1969/12/31/18:00:11.348000,(0 1 -1 -5 0 1 1 -1)
1969/12/31/18:00:11.348000,(2 1 -5 -10 -7 -1 3 3)
1969/12/31/18:00:11.360000,(1 1 3 17 10 6 0 1)
1969/12/31/18:00:11.360000,(-5 -5 -4 -9 -26 -12 -7 -6)
1969/12/31/18:00:11.377000,(-2 0 -1 -19 11 0 1 0)
1969/12/31/18:00:11.377000,(4 2 8 31 14 6 3 4)
1969/12/31/18:00:11.384000,(0 -3 -5 -10 -17 -5 1 1)
1969/12/31/18:00:11.384000,(1 3 -5 -28 6 -2 -5 -2)
1969/12/31/18:00:11.386000,(-11 -4 17 55 -4 -2 -3 -8)
1969/12/31/18:00:11.386000,(12 15 6 12 26 9 4 6)
1969/12/31/18:00:11.407000,(-10 -13 -18 -58 -39 -15 -7 -8)
1969/12/31/18:00:11.407000,(12 4 2 22 25 10 9 12)
1969/12/31/18:00:11.408000,(-5 -5 7 29 1 -2 -4 -4)
1969/12/31/18:00:11.408000,(4 4 -5 -23 -7 -5 -3 3)
1969/12/31/18:00:11.420000,(-5 -2 -7 -67 -50 -11 -4 -5)
1969/12/31/18:00:11.420000,(-2 -4 -14 24 6 -8 -1 0)
1969/12/31/18:00:11.429000,(0 -5 9 30 45 19 6 4)
1969/12/31/18:00:11.429000,(-11 -3 10 -5 -15 -1 -2 -8)
1969/12/31/18:00:11.444000,(11 7 -26 45 -15 -17 -7 3)
1969/12/31/18:00:11.444000,(-11 -13 -32 -128 -99 -19 -3 -8)
1969/12/31/18:00:11.450000,(4 3 16 50 71 17 2 2)
1969/12/31/18:00:11.450000,(-15 -2 52 101 45 17 1 -7)
1969/12/31/18:00:11.467000,(17 15 3 -69 5 -2 5 9)
1969/12/31/18:00:11.467000,(-7 -12 -7 36 55 6 0 -5)
1969/12/31/18:00:11.468000,(6 -8 -42 -57 -49 -2 2 5)
1969/12/31/18:00:11.468000,(-2 -3 -1 -66 -25 -17 -8 -5)
1969/12/31/18:00:11.480000,(-4 4 -2 28 -26 4 0 -3)
1969/12/31/18:00:11.480000,(11 3 -6 -38 26 9 7 8)
1969/12/31/18:00:11.489000,(2 9 38 24 28 10 5 2)
1969/12/31/18:00:11.489000,(-4 4 53 112 75 20 4 1)
1969/12/31/18:00:11.504000,(-4 4 21 16 25 13 4 0)
1969/12/31/18:00:11.504000,(-7 -12 -26 -27 20 -5 -6 -5)
1969/12/31/18:00:11.510000,(7 -5 -79 -128 -96 -23 -1 2)
1969/12/31/18:00:11.510000,(13 -5 -52 -88 -84 -23 -6 4)
1969/12/31/18:00:11.527000,(4 8 37 80 62 10 3 3)
1969/12/31/18:00:11.527000,(-4 -3 23 124 -6 4 -4 -3)
1969/12/31/18:00:11.533000,(-21 -23 7 -100 -39 -13 -6 -11)
1969/12/31/18:00:11.533000,(-9 -3 -14 24 -58 -10 -3 -5)
1969/12/31/18:00:11.540000,(-5 -8 -6 -40 14 -3 -3 0)
1969/12/31/18:00:11.540000,(3 14 16 11 41 12 2 -1)
1969/12/31/18:00:11.555000,(11 11 -1 12 56 15 5 6)
1969/12/31/18:00:11.555000,(-2 -6 -11 -1 -23 -14 -6 -1)
1969/12/31/18:00:11.564000,(-6 -3 3 52 18 8 -4 -6)
1969/12/31/18:00:11.564000,(1 7 42 64 -2 5 1 3)
1969/12/31/18:00:11.571000,(-5 -2 -10 -12 -9 -11 -5 -5)
1969/12/31/18:00:11.571000,(-3 -6 -25 -106 -37 -8 -4 -3)
1969/12/31/18:00:11.587000,(4 0 3 21 31 7 3 4)
1969/12/31/18:00:11.587000,(2 2 6 -2 7 9 5 2)
1969/12/31/18:00:11.588000,(1 1 -5 0 -15 -5 -4 -2)
1969/12/31/18:00:11.588000,(-2 -5 -11 -82 -5 -2 -3 -2)
1969/12/31/18:00:11.600000,(-2 -4 10 70 30 7 1 0)
1969/12/31/18:00:11.600000,(-1 -3 -11 -30 -15 -6 -3 0)
1969/12/31/18:00:11.609000,(3 5 9 15 -17 -7 -2 2)
1969/12/31/18:00:11.609000,(1 0 -2 -8 33 6 2 0)
1969/12/31/18:00:11.632000,(0 -1 -4 -12 -10 -4 2 -1)
1969/12/31/18:00:11.632000,(-1 -1 2 -7 -15 -7 -2 -4)
1969/12/31/18:00:11.633000,(-4 2 13 37 9 -2 -2 -1)
1969/12/31/18:00:11.633000,(0 1 -8 10 7 1 2 0)
1969/12/31/18:00:11.647000,(1 -3 -6 -32 -12 -1 1 1)
1969/12/31/18:00:11.647000,(-1 1 2 -4 -11 -6 -2 0)
1969/12/31/18:00:11.648000,(-1 1 6 24 1 -3 -4 -4)
1969/12/31/18:00:11.648000,(1 -5 -6 11 12 6 6 6)
1969/12/31/18:00:11.660000,(-9 -6 -6 -19 -10 -5 -1 -1)
1969/12/31/18:00:11.660000,(18 13 7 2 1 1 1 1)
1969/12/31/18:00:11.669000,(-5 1 -1 9 -1 -3 -3 -7)
1969/12/31/18:00:11.669000,(-2 -1 -1 4 0 -1 -3 -3)
1969/12/31/18:00:11.684000,(6 1 0 -11 -3 1 0 3)
1969/12/31/18:00:11.684000,(-4 -7 -6 -11 -10 -2 2 3)
1969/12/31/18:00:11.690000,(1 5 1 3 -2 0 0 -1)
1969/12/31/18:00:11.690000,(-9 -4 -1 10 7 -1 -4 -6)
1969/12/31/18:00:11.706000,(-7 -4 -2 -10 -7 -4 -3 -3)
1969/12/31/18:00:11.706000,(1 4 3 1 -3 2 1 2)
1969/12/31/18:00:11.714000,(2 -1 -3 -6 -6 1 3 1)
1969/12/31/18:00:11.714000,(0 -3 -1 7 6 1 0 1)
1969/12/31/18:00:11.720000,(7 4 0 -3 0 3 1 3)
1969/12/31/18:00:11.720000,(5 1 -5 -18 -10 -4 2 5)
1969/12/31/18:00:11.729000,(-11 -4 3 13 7 0 -6 -8)
1969/12/31/18:00:11.729000,(5 -1 -4 8 6 1 2 2)
1969/12/31/18:00:11.744000,(0 -2 -1 -23 -6 1 -1 -3)
1969/12/31/18:00:11.744000,(0 -2 1 4 -8 -4 -5 -5)
1969/12/31/18:00:11.750000,(10 8 4 10 8 2 6 9)
1969/12/31/18:00:11.750000,(-7 -3 0 6 4 1 -1 -1)
1969/12/31/18:00:11.767000,(7 3 -3 -4 -2 -3 -2 -2)
1969/12/31/18:00:11.767000,(-18 -17 -6 -3 0 -5 -6 -10)
1969/12/31/18:00:11.768000,(2 0 -4 -8 -10 -8 -3 3)
1969/12/31/18:00:11.768000,(-1 3 3 1 -1 2 2 -1)
1969/12/31/18:00:11.789000,(-3 -7 0 -1 3 0 0 -2)
1969/12/31/18:00:11.789000,(-15 -2 4 7 5 4 -2 -9)
1969/12/31/18:00:11.791000,(-15 -15 -4 3 -2 -5 -8 -6)
1969/12/31/18:00:11.791000,(40 30 4 5 7 8 18 18)
1969/12/31/18:00:11.803000,(5 -2 -8 -11 -4 0 1 2)
1969/12/31/18:00:11.803000,(10 8 -2 -6 -13 -5 0 4)
1969/12/31/18:00:11.812000,(-5 -8 -6 -7 5 3 3 2)
1969/12/31/18:00:11.812000,(-11 -9 -4 1 5 -1 -9 -7)
1969/12/31/18:00:11.827000,(-18 -6 -4 -28 -20 -4 0 -5)
1969/12/31/18:00:11.827000,(15 11 14 42 19 7 2 3)
1969/12/31/18:00:11.828000,(9 7 13 63 29 11 10 11)
1969/12/31/18:00:11.828000,(-1 -1 1 0 -2 -2 -3 2)
1969/12/31/18:00:11.849000,(-11 -3 -1 -4 3 -1 -4 -11)
1969/12/31/18:00:11.849000,(-14 -17 -12 -38 -21 -12 -10 -8)
1969/12/31/18:00:11.851000,(19 13 2 -33 -17 2 8 6)
1969/12/31/18:00:11.851000,(-8 -8 -12 -5 -1 -4 -9 -11)
1969/12/31/18:00:11.863000,(-7 -4 2 20 6 -4 -2 -4)
1969/12/31/18:00:11.863000,(-17 -4 3 2 1 1 -4 -10)
1969/12/31/18:00:11.872000,(25 6 -4 -2 2 5 9 16)
1969/12/31/18:00:11.872000,(5 -6 -11 -43 -24 -18 -17 -4)
1969/12/31/18:00:11.887000,(2 8 -2 5 -6 1 5 12)
1969/12/31/18:00:11.887000,(2 10 16 31 21 14 7 -5)
1969/12/31/18:00:11.888000,(-15 -6 -1 -23 -5 1 -4 -10)
1969/12/31/18:00:11.888000,(-3 0 6 27 -1 2 2 -4)
1969/12/31/18:00:11.909000,(-10 -6 9 10 17 2 3 2)
1969/12/31/18:00:11.909000,(4 -3 -6 -9 -3 0 10 14)
1969/12/31/18:00:11.911000,(-2 1 -9 -35 -8 -3 -10 -19)
1969/12/31/18:00:11.911000,(-4 -9 -29 -93 -20 -8 -7 -3)
1969/12/31/18:00:11.923000,(-10 -9 5 52 -4 0 -3 -5)
1969/12/31/18:00:11.923000,(3 9 25 75 38 19 16 3)
1969/12/31/18:00:11.932000,(10 13 13 19 8 3 11 14)
1969/12/31/18:00:11.932000,(-5 -15 -13 -12 -20 -42 -57 -30)
1969/12/31/18:00:11.947000,(-9 -12 -24 -72 -29 -7 -5 -16)
1969/12/31/18:00:11.947000,(5 -2 -19 -46 -24 -28 -27 6)
1969/12/31/18:00:11.948000,(-23 -13 1 34 3 15 14 -4)
1969/12/31/18:00:11.948000,(18 15 0 -44 -13 6 19 26)
1969/12/31/18:00:11.969000,(-2 -5 -13 -4 -28 -17 -19 -10)
1969/12/31/18:00:11.969000,(1 5 23 84 47 16 16 1)
1969/12/31/18:00:11.971000,(4 7 20 42 38 5 -10 1)
1969/12/31/18:00:11.971000,(-17 -5 9 40 19 17 14 -2)
1969/12/31/18:00:11.983000,(15 5 -20 -87 -41 -6 2 5)
1969/12/31/18:00:11.983000,(4 -3 -17 -32 -31 -3 5 4)
1969/12/31/18:00:11.992000,(3 -2 4 48 22 -5 -3 0)
1969/12/31/18:00:11.992000,(-13 0 20 40 25 19 16 2)
1969/12/31/18:00:12.007000,(-7 -7 -31 -78 -27 -6 -8 -8)
1969/12/31/18:00:12.007000,(-1 -2 -4 49 -11 -8 -6 0)
1969/12/31/18:00:12.008000,(-19 -21 19 65 11 -2 -8 -10)
1969/12/31/18:00:12.008000,(8 34 36 71 43 21 22 19)
1969/12/31/18:00:12.030000,(92 49 12 15 18 -5 -2 27)
1969/12/31/18:00:12.030000,(-60 -49 -42 -106 -45 -26 -35 -49)
1969/12/31/18:00:12.035000,(6 -3 -24 -70 -35 -8 1 9)
1969/12/31/18:00:12.035000,(-4 -5 -1 7 -1 3 7 -4)
1969/12/31/18:00:12.043000,(-5 1 9 7 14 13 14 8)
1969/12/31/18:00:12.043000,(23 13 -4 -26 -17 1 6 17)
1969/12/31/18:00:12.059000,(2 4 9 29 -8 -8 -7 -6)
1969/12/31/18:00:12.059000,(-3 0 14 45 28 7 -1 -7)
1969/12/31/18:00:12.067000,(-18 -6 18 51 26 8 -2 -8)
1969/12/31/18:00:12.067000,(6 -1 -2 -16 9 7 6 7)
1969/12/31/18:00:12.068000,(-10 -1 -14 -55 -24 -12 -7 -8)
1969/12/31/18:00:12.068000,(-3 -11 -22 -44 -31 -9 -5 -5)
1969/12/31/18:00:12.089000,(-2 -3 0 12 6 1 4 7)
1969/12/31/18:00:12.089000,(-2 3 10 25 11 5 3 -3)
1969/12/31/18:00:12.091000,(-8 -3 7 18 12 6 3 3)
1969/12/31/18:00:12.091000,(-4 -3 0 12 12 3 -1 -14)
1969/12/31/18:00:12.103000,(-18 -10 5 13 5 -7 -17 -17)
1969/12/31/18:00:12.103000,(4 2 -4 -37 -13 1 5 7)
1969/12/31/18:00:12.112000,(-22 -26 -16 -18 -20 -12 -10 -14)
1969/12/31/18:00:12.112000,(22 21 13 13 8 17 21 18)
1969/12/31/18:00:12.127000,(-10 -9 1 3 8 6 5 -2)
1969/12/31/18:00:12.127000,(7 8 -9 -27 -3 -6 -5 2)
1969/12/31/18:00:12.128000,(2 -4 -5 -16 -31 -6 -1 3)
1969/12/31/18:00:12.128000,(-1 -5 -5 5 13 0 0 3)
1969/12/31/18:00:12.149000,(7 10 21 62 38 19 8 6)
1969/12/31/18:00:12.149000,(-5 3 24 42 39 14 6 1)
1969/12/31/18:00:12.151000,(1 -2 -17 -41 -17 -13 -16 -11)
1969/12/31/18:00:12.151000,(-3 -9 -14 -33 -32 -7 6 2)
1969/12/31/18:00:12.163000,(-15 -12 -9 -15 -23 -29 -43 -27)
1969/12/31/18:00:12.163000,(18 15 0 -10 -6 -1 1 2)
1969/12/31/18:00:12.172000,(-3 1 -6 -18 0 -1 5 1)
1969/12/31/18:00:12.172000,(19 6 2 9 -4 5 9 12)
1969/12/31/18:00:12.187000,(-11 -3 4 14 12 7 9 -1)
1969/12/31/18:00:12.187000,(1 -1 0 -6 -6 4 1 3)
1969/12/31/18:00:12.188000,(4 5 -5 -18 -5 -3 -9 -4)
1969/12/31/18:00:12.188000,(2 -2 -1 14 0 -6 -7 0)
1969/12/31/18:00:12.209000,(0 2 6 10 11 7 11 8)
1969/12/31/18:00:12.209000,(8 1 1 5 1 -1 -1 0)
1969/12/31/18:00:12.211000,(4 4 -1 -6 2 1 2 -2)
1969/12/31/18:00:12.211000,(-14 -11 1 7 -1 1 1 2)
1969/12/31/18:00:12.223000,(3 4 8 9 5 -1 -9 -4)
1969/12/31/18:00:12.223000,(2 -1 -6 -6 -4 -3 0 -7)
1969/12/31/18:00:12.232000,(3 4 1 -5 22 15 24 24)
1969/12/31/18:00:12.232000,(-1 -3 -5 -19 -25 -13 -14 -6)
1969/12/31/18:00:12.247000,(-4 -5 -2 6 -5 4 11 3)
1969/12/31/18:00:12.247000,(-1 -1 4 11 7 2 -4 -5)
1969/12/31/18:00:12.253000,(17 13 9 3 13 4 4 11)
1969/12/31/18:00:12.253000,(-4 -11 -23 -72 -28 -9 -5 -3)
1969/12/31/18:00:12.269000,(2 -2 -6 2 -10 0 12 8)
1969/12/31/18:00:12.269000,(-3 4 16 51 22 7 4 6)
1969/12/31/18:00:12.271000,(-2 4 16 37 24 13 1 -6)
1969/12/31/18:00:12.271000,(-16 -7 0 5 -6 -15 -22 -17)
1969/12/31/18:00:12.283000,(-5 -6 -14 -44 -28 -11 -5 -4)
1969/12/31/18:00:12.283000,(1 -3 -12 -32 -12 -4 3 6)
1969/12/31/18:00:12.292000,(2 1 1 14 2 9 7 2)
1969/12/31/18:00:12.292000,(1 4 9 18 15 3 -2 -4)
1969/12/31/18:00:12.307000,(0 2 -2 -2 1 1 3 3)
1969/12/31/18:00:12.307000,(-10 -11 -12 -20 -17 -19 -22 -16)
1969/12/31/18:00:12.313000,(6 4 -3 -11 -23 -7 -3 2)
1969/12/31/18:00:12.313000,(-1 -2 1 15 9 4 6 5)
1969/12/31/18:00:12.329000,(0 2 5 17 15 6 6 1)
1969/12/31/18:00:12.329000,(8 7 7 0 4 12 14 17)
1969/12/31/18:00:12.335000,(-11 -7 -10 -40 -13 -7 -10 -13)
1969/12/31/18:00:12.335000,(0 -1 -6 32 8 -2 -1 -3)
1969/12/31/18:00:12.343000,(0 -2 0 -4 -3 4 4 2)
1969/12/31/18:00:12.343000,(-6 -4 -2 -3 3 -3 -3 -3)
1969/12/31/18:00:12.352000,(0 -1 -9 -28 -21 -11 -9 -4)
1969/12/31/18:00:12.352000,(-2 1 10 38 12 7 4 -2)
1969/12/31/18:00:12.367000,(5 4 16 42 36 4 -4 2)
1969/12/31/18:00:12.367000,(-3 -1 6 7 -10 3 2 1)
1969/12/31/18:00:12.368000,(-1 -3 -8 -23 -13 -13 -8 -5)
1969/12/31/18:00:12.368000,(-7 -3 -12 -31 -19 -4 -2 -5)
1969/12/31/18:00:12.390000,(0 -4 -4 -14 -6 2 3 4)
1969/12/31/18:00:12.390000,(2 1 -5 -7 2 -1 -2 -1)
1969/12/31/18:00:12.395000,(7 4 5 25 13 5 4 5)
1969/12/31/18:00:12.395000,(-9 -6 -1 -24 -8 -6 -8 -7)
1969/12/31/18:00:12.403000,(20 13 2 21 5 4 14 14)
1969/12/31/18:00:12.403000,(-2 -4 -10 -34 -23 -7 -3 -4)
1969/12/31/18:00:12.412000,(4 2 -1 -4 -5 1 5 6)
1969/12/31/18:00:12.412000,(-10 -5 6 40 24 1 -6 -9)
1969/12/31/18:00:12.427000,(0 2 9 11 10 10 12 5)
1969/12/31/18:00:12.427000,(-6 -1 1 3 2 -8 -12 -6)
1969/12/31/18:00:12.428000,(-1 -2 -3 -13 0 -3 -4 -4)
1969/12/31/18:00:12.428000,(-2 -3 -4 -24 -18 -4 -3 -1)
1969/12/31/18:00:12.450000,(-13 -7 -1 6 -5 -9 -8 -12)
1969/12/31/18:00:12.450000,(0 1 -4 -6 -1 1 6 0)
1969/12/31/18:00:12.455000,(14 6 6 7 3 3 11 16)
1969/12/31/18:00:12.455000,(-21 -14 -15 -15 -7 -11 -18 -23)
1969/12/31/18:00:12.463000,(14 12 -3 -14 -7 -3 -4 6)
1969/12/31/18:00:12.463000,(-14 -16 -6 1 0 -4 -10 -16)
1969/12/31/18:00:12.472000,(6 4 -5 -3 8 4 3 1)
1969/12/31/18:00:12.472000,(9 6 1 -11 -14 2 8 9)
1969/12/31/18:00:12.486000,(-14 -9 1 22 -5 -6 -7 -11)
1969/12/31/18:00:12.486000,(3 7 4 -8 6 5 3 2)
1969/12/31/18:00:12.493000,(-5 -1 0 13 9 3 -2 -3)
1969/12/31/18:00:12.493000,(9 4 -1 -3 14 4 4 9)
1969/12/31/18:00:12.509000,(-6 -5 -7 -16 -9 -2 -4 -4)
1969/12/31/18:00:12.509000,(1 3 7 5 -11 -2 5 6)
1969/12/31/18:00:12.511000,(-1 1 7 33 11 7 2 -3)
1969/12/31/18:00:12.511000,(4 5 9 7 3 -2 -2 5)
1969/12/31/18:00:12.523000,(2 -3 -6 -16 1 5 8 3)
1969/12/31/18:00:12.523000,(7 1 -6 -9 3 3 3 8)
1969/12/31/18:00:12.532000,(-19 -15 -11 -20 -15 -13 -14 -21)
1969/12/31/18:00:12.532000,(26 14 -6 -12 -7 -1 6 23)
1969/12/31/18:00:12.546000,(-13 -11 0 1 -2 -3 -10 -17)
1969/12/31/18:00:12.546000,(-5 1 5 25 3 0 -1 -3)
1969/12/31/18:00:12.554000,(-4 1 -2 8 6 -3 -5 -5)
1969/12/31/18:00:12.554000,(-17 -10 2 -2 -4 -1 2 -10)
1969/12/31/18:00:12.569000,(-2 -3 -8 -23 7 -11 -15 -5)
1969/12/31/18:00:12.569000,(20 5 -6 -20 -20 -3 4 10)
1969/12/31/18:00:12.569000,(4 5 2 -1 -8 -7 -9 0)
1969/12/31/18:00:12.569000,(15 7 20 46 39 29 30 21)
1969/12/31/18:00:12.591000,(-10 -3 4 4 5 3 -1 -7)
1969/12/31/18:00:12.591000,(4 4 4 12 10 5 5 2)
1969/12/31/18:00:12.592000,(-10 -7 2 -3 -10 -5 -5 -4)
1969/12/31/18:00:12.592000,(12 8 -9 -20 -5 4 14 14)
1969/12/31/18:00:12.605000,(10 1 -2 -5 -4 -3 -4 8)
1969/12/31/18:00:12.605000,(6 11 -16 -42 -14 -19 -24 -14)
1969/12/31/18:00:12.614000,(-16 -16 -10 0 -8 -3 -3 -10)
1969/12/31/18:00:12.614000,(-3 -5 4 32 4 -1 -5 -2)
1969/12/31/18:00:12.628000,(-2 0 9 27 13 9 13 6)
1969/12/31/18:00:12.628000,(2 -11 4 13 8 -1 -1 8)
1969/12/31/18:00:12.629000,(24 32 -5 -57 -17 -5 -2 5)
1969/12/31/18:00:12.629000,(2 -3 -17 -12 -26 -18 -8 -5)
1969/12/31/18:00:12.651000,(-24 -13 -1 -9 -35 -23 -17 -22)
1969/12/31/18:00:12.651000,(10 4 0 8 0 3 15 17)
1969/12/31/18:00:12.652000,(11 11 19 42 42 35 10 9)
1969/12/31/18:00:12.652000,(-45 -37 4 17 24 16 -9 -28)
1969/12/31/18:00:12.665000,(94 74 22 24 34 19 45 70)
1969/12/31/18:00:12.665000,(-58 -41 -29 -88 -19 12 -22 -44)
1969/12/31/18:00:12.674000,(8 -5 3 96 -7 13 19 17)
1969/12/31/18:00:12.674000,(-13 -1 23 58 40 6 -12 -16)
1969/12/31/18:00:12.689000,(23 9 -3 6 5 5 9 12)
1969/12/31/18:00:12.689000,(-3 2 4 -10 -3 -19 3 0)
1969/12/31/18:00:12.689000,(-13 -20 -38 -109 -71 -55 -43 -21)
1969/12/31/18:00:12.689000,(4 -1 -14 -8 -70 -34 -16 -2)
1969/12/31/18:00:12.711000,(-26 -18 4 12 -7 -19 -8 -14)
1969/12/31/18:00:12.711000,(-7 -3 -7 -73 42 22 9 0)
1969/12/31/18:00:12.712000,(-8 0 31 123 104 49 13 -1)
1969/12/31/18:00:12.712000,(20 21 26 34 36 32 22 19)
1969/12/31/18:00:12.725000,(-13 -11 -13 -41 -16 8 -2 -8)
1969/12/31/18:00:12.725000,(25 14 9 56 3 6 13 21)
1969/12/31/18:00:12.733000,(-7 -10 -18 -73 -57 -44 -10 -3)
1969/12/31/18:00:12.734000,(6 5 -12 -18 -29 -27 -21 -8)
1969/12/31/18:00:12.748000,(-34 -24 -12 -27 11 7 -8 -21)
1969/12/31/18:00:12.748000,(9 7 10 45 -9 -8 -5 0)
1969/12/31/18:00:12.749000,(-32 -21 16 10 21 11 9 -18)
1969/12/31/18:00:12.749000,(50 45 -2 -33 -7 2 19 38)
1969/12/31/18:00:12.779000,(-14 -15 -10 -19 -25 -13 -19 -17)
1969/12/31/18:00:12.779000,(-8 -4 -4 1 -1 -7 -10 -10)
1969/12/31/18:00:12.780000,(9 5 -4 -8 -12 -6 -1 3)
1969/12/31/18:00:12.780000,(-11 -12 -10 -47 -7 3 5 -4)
1969/12/31/18:00:12.785000,(-13 -8 -4 16 6 -1 -5 -7)
1969/12/31/18:00:12.785000,(11 9 4 8 -40 -11 2 7)
1969/12/31/18:00:12.794000,(6 3 19 58 36 18 10 8)
1969/12/31/18:00:12.794000,(7 5 13 29 75 33 15 8)
1969/12/31/18:00:12.808000,(-7 -3 -3 7 28 16 -6 -8)
1969/12/31/18:00:12.809000,(-7 -10 -9 -27 -22 -10 -1 -3)
1969/12/31/18:00:12.809000,(16 7 -20 -26 -28 -7 6 12)
1969/12/31/18:00:12.809000,(-25 -30 5 7 -21 -14 -15 -14)
1969/12/31/18:00:12.831000,(24 35 15 7 3 -7 1 17)
1969/12/31/18:00:12.831000,(-20 -17 -7 -1 1 -3 -10 -13)
1969/12/31/18:00:12.832000,(-7 -7 -4 -13 -19 -6 -7 -7)
1969/12/31/18:00:12.832000,(4 14 -9 -18 2 -2 2 -1)
1969/12/31/18:00:12.845000,(9 -3 -1 7 -11 -2 2 3)
1969/12/31/18:00:12.845000,(4 3 7 16 11 7 5 4)
1969/12/31/18:00:12.854000,(25 19 -2 -8 20 13 19 20)
1969/12/31/18:00:12.854000,(-13 -15 0 -6 -4 -6 -11 -8)
1969/12/31/18:00:12.868000,(-10 -9 -3 -5 -26 -6 -4 -5)
1969/12/31/18:00:12.868000,(-3 7 4 25 13 -1 -5 -9)
1969/12/31/18:00:12.869000,(-21 -23 -12 -21 6 -1 -8 -15)
1969/12/31/18:00:12.869000,(23 16 5 7 9 12 14 18)
1969/12/31/18:00:12.892000,(-12 -4 -1 -4 -8 -7 -11 -20)
1969/12/31/18:00:12.892000,(4 7 7 22 13 4 -1 2)
1969/12/31/18:00:12.892000,(1 0 2 -5 -5 4 12 19)
1969/12/31/18:00:12.892000,(-21 -16 -17 -24 -20 -14 -21 -28)
1969/12/31/18:00:12.916000,(12 3 1 0 1 4 11 14)
1969/12/31/18:00:12.916000,(-16 -14 -4 5 0 -4 -4 -9)
1969/12/31/18:00:12.916000,(-11 -13 4 1 1 -4 -11 -10)
1969/12/31/18:00:12.916000,(12 19 3 -7 -4 1 5 8)
1969/12/31/18:00:12.920000,(-15 -18 -7 -3 4 2 -1 -11)
1969/12/31/18:00:12.920000,(9 9 7 9 0 2 5 7)
1969/12/31/18:00:12.928000,(2 4 4 -5 -3 -3 -1 0)
1969/12/31/18:00:12.928000,(-1 -4 -3 -5 -2 -1 4 1)
1969/12/31/18:00:12.943000,(-7 -4 2 3 -1 -2 -2 -3)
1969/12/31/18:00:12.943000,(12 9 4 9 8 5 6 5)
1969/12/31/18:00:12.944000,(3 2 -1 -2 2 -2 -2 -1)
1969/12/31/18:00:12.944000,(-4 -4 -5 -12 -11 -2 2 -5)
1969/12/31/18:00:12.959000,(13 7 0 4 0 -6 -6 8)
1969/12/31/18:00:12.959000,(-1 -12 1 8 6 5 3 -2)
1969/12/31/18:00:12.965000,(-10 4 -3 -3 -1 1 1 -10)
1969/12/31/18:00:12.965000,(-18 -10 -8 -15 -15 -10 -15 -16)
1969/12/31/18:00:12.980000,(4 -9 1 14 20 10 8 8)
1969/12/31/18:00:12.980000,(-11 9 12 15 9 9 5 -5)
1969/12/31/18:00:12.988000,(-2 1 2 -3 -6 -11 -10 -8)
1969/12/31/18:00:12.988000,(-10 -10 -6 -5 -14 -10 -7 -9)
1969/12/31/18:00:13.004000,(5 1 -8 -10 3 6 9 5)
1969/12/31/18:00:13.004000,(7 -3 -5 1 8 4 6 11)
1969/12/31/18:00:13.004000,(1 -2 4 4 0 0 1 6)
1969/12/31/18:00:13.004000,(-11 2 -6 -8 -5 -5 -10 -19)
1969/12/31/18:00:13.019000,(3 6 1 -3 -9 -7 -4 -3)
1969/12/31/18:00:13.019000,(3 -11 -2 -2 -9 -12 -9 5)
1969/12/31/18:00:13.025000,(-5 4 0 -1 9 13 9 -5)
1969/12/31/18:00:13.025000,(-11 -17 -4 -2 -4 -5 -6 -4)
1969/12/31/18:00:13.040000,(-5 -2 -2 -1 -2 1 4 0)
1969/12/31/18:00:13.040000,(7 8 3 5 10 14 15 12)
1969/12/31/18:00:13.048000,(-4 -3 -2 0 6 -12 -10 -8)
1969/12/31/18:00:13.048000,(11 3 1 -3 -16 2 10 14)
1969/12/31/18:00:13.063000,(-5 -1 1 1 -3 0 -3 -8)
1969/12/31/18:00:13.063000,(-8 -8 -2 0 3 -2 3 2)
1969/12/31/18:00:13.064000,(15 7 -3 -14 -14 -3 0 7)
1969/12/31/18:00:13.064000,(5 1 -1 19 25 8 9 6)
1969/12/31/18:00:13.079000,(0 5 7 13 8 6 3 5)
1969/12/31/18:00:13.079000,(-1 0 -3 -2 -12 -1 -4 -5)
1969/12/31/18:00:13.085000,(-12 -3 1 3 2 -2 -1 -5)
1969/12/31/18:00:13.085000,(-7 -5 -4 -18 -5 0 -4 -10)
1969/12/31/18:00:13.100000,(-11 -7 0 -5 -5 -2 1 -4)
1969/12/31/18:00:13.100000,(-15 -15 -3 -1 -1 -8 -9 -12)
1969/12/31/18:00:13.108000,(42 38 2 1 2 10 16 25)
1969/12/31/18:00:13.108000,(4 -1 6 3 0 -4 -4 4)
1969/12/31/18:00:13.123000,(2 6 -4 -2 1 4 10 5)
1969/12/31/18:00:13.123000,(10 5 -5 -6 2 1 1 6)
1969/12/31/18:00:13.124000,(4 0 -7 -5 13 -1 0 2)
1969/12/31/18:00:13.124000,(10 5 3 1 -29 -2 7 13)
1969/12/31/18:00:13.139000,(1 2 -1 -11 0 -2 -7 -5)
1969/12/31/18:00:13.139000,(-4 1 5 17 19 7 0 -4)
1969/12/31/18:00:13.145000,(-13 -13 4 16 10 0 -7 -4)
1969/12/31/18:00:13.145000,(11 10 5 6 16 10 6 6)
1969/12/31/18:00:13.160000,(2 0 -5 -14 -18 -12 -9 1)
1969/12/31/18:00:13.160000,(-7 1 -3 -11 -10 -3 2 -1)
1969/12/31/18:00:13.168000,(-1 10 -1 -1 -12 -12 -13 -9)
1969/12/31/18:00:13.168000,(-7 -14 3 0 7 6 11 17)
1969/12/31/18:00:13.183000,(8 0 -9 -9 -7 5 10 -1)
1969/12/31/18:00:13.183000,(-10 -5 0 -1 -6 -15 -23 -14)
1969/12/31/18:00:13.184000,(-1 -10 -4 4 -4 -2 -4 -6)
1969/12/31/18:00:13.184000,(-38 -34 -4 -8 -10 -12 -13 -22)
1969/12/31/18:00:13.199000,(55 48 10 10 23 24 24 38)
1969/12/31/18:00:13.199000,(-2 1 0 2 0 0 2 2)
1969/12/31/18:00:13.205000,(-16 -15 0 -15 -20 -3 -5 -10)
1969/12/31/18:00:13.205000,(-8 -7 -14 -8 3 -4 -14 -16)
1969/12/31/18:00:13.220000,(-15 -13 6 23 13 0 -1 -1)
1969/12/31/18:00:13.220000,(7 8 5 3 -14 -1 2 0)
1969/12/31/18:00:13.228000,(10 9 4 -4 0 3 3 8)
1969/12/31/18:00:13.228000,(21 19 5 12 10 5 8 16)
1969/12/31/18:00:13.245000,(-31 -30 -8 -1 -3 -8 -10 -20)
1969/12/31/18:00:13.245000,(-10 -21 -19 -6 3 1 -1 -4)
1969/12/31/18:00:13.246000,(0 6 -2 -5 -5 2 0 -13)
1969/12/31/18:00:13.246000,(0 -6 1 -2 1 0 3 3)
1969/12/31/18:00:13.267000,(9 11 -13 -14 -12 -16 -20 -11)
1969/12/31/18:00:13.267000,(-25 -18 0 -1 1 2 0 -13)
1969/12/31/18:00:13.268000,(-8 -8 0 5 6 -1 0 2)
1969/12/31/18:00:13.268000,(5 5 3 4 2 3 2 0)
1969/12/31/18:00:13.282000,(-15 -8 0 0 -11 -12 -12 -17)
1969/12/31/18:00:13.282000,(45 35 2 -2 6 6 10 29)
1969/12/31/18:00:13.288000,(13 9 1 0 -5 -5 0 6)
1969/12/31/18:00:13.288000,(0 7 -2 4 5 -6 -11 -9)
1969/12/31/18:00:13.305000,(-2 -4 3 -14 -20 -3 8 9)
1969/12/31/18:00:13.305000,(5 8 3 24 28 -3 -6 -1)
1969/12/31/18:00:13.305000,(-10 -13 8 20 14 16 16 7)
1969/12/31/18:00:13.305000,(-11 -5 -1 3 1 -3 -6 -11)
1969/12/31/18:00:13.319000,(5 -8 -5 -16 -6 1 4 14)
1969/12/31/18:00:13.319000,(11 14 1 -12 -13 -1 4 -1)
1969/12/31/18:00:13.325000,(-8 -7 -8 -6 -3 -11 -12 -10)
1969/12/31/18:00:13.325000,(17 7 -5 -4 -12 5 11 15)
1969/12/31/18:00:13.340000,(-18 -9 4 9 6 1 -2 -6)
1969/12/31/18:00:13.340000,(-8 -7 0 5 -1 -4 -3 -3)
1969/12/31/18:00:13.348000,(3 6 4 3 5 4 2 3)
1969/12/31/18:00:13.348000,(11 13 3 -5 -2 0 2 7)
1969/12/31/18:00:13.363000,(-17 -14 -3 -4 1 -4 -7 -13)
1969/12/31/18:00:13.363000,(28 19 -3 -1 -6 2 6 12)
1969/12/31/18:00:13.364000,(-21 -12 -2 -3 -5 -8 -11 -17)
1969/12/31/18:00:13.364000,(-1 1 -4 -4 3 2 3 2)
1969/12/31/18:00:13.379000,(19 14 5 6 -6 1 6 11)
1969/12/31/18:00:13.379000,(-18 -16 2 -7 -5 -3 -4 -9)
1969/12/31/18:00:13.385000,(39 46 2 0 -3 1 4 14)
1969/12/31/18:00:13.385000,(9 8 0 6 11 6 5 11)
1969/12/31/18:00:13.400000,(-14 -11 -13 -34 -16 -2 -7 -10)
1969/12/31/18:00:13.400000,(11 9 0 16 8 1 2 3)
1969/12/31/18:00:13.408000,(-6 -14 -7 -5 13 -6 1 2)
1969/12/31/18:00:13.408000,(-13 -5 6 20 -22 -8 -12 -13)
1969/12/31/18:00:13.423000,(0 7 7 14 17 2 -1 -3)
1969/12/31/18:00:13.423000,(-14 -14 -1 -12 3 9 6 1)
1969/12/31/18:00:13.424000,(-9 -19 -10 -9 2 8 3 -4)
1969/12/31/18:00:13.424000,(10 9 -11 -17 -16 -17 -12 -5)
1969/12/31/18:00:13.439000,(-32 -26 -4 -7 -8 -10 -15 -24)
1969/12/31/18:00:13.439000,(-4 -2 -2 -8 -8 -9 -6 -4)
1969/12/31/18:00:13.445000,(1 -1 5 5 -4 0 -1 -1)
1969/12/31/18:00:13.445000,(11 24 14 16 24 20 26 23)
1969/12/31/18:00:13.460000,(11 6 -5 -5 -4 2 -2 3)
1969/12/31/18:00:13.460000,(0 4 5 1 -8 -7 -10 -7)
1969/12/31/18:00:13.468000,(-17 -10 -7 -37 -36 -12 -13 -14)
1969/12/31/18:00:13.468000,(-3 -8 -9 -3 21 -5 -4 -2)
1969/12/31/18:00:13.483000,(6 4 15 50 14 8 9 11)
1969/12/31/18:00:13.483000,(-28 -10 16 38 30 14 6 -11)
1969/12/31/18:00:13.484000,(32 4 -4 14 9 9 9 20)
1969/12/31/18:00:13.484000,(-6 -9 -9 -32 -23 -13 -19 -16)
1969/12/31/18:00:13.498000,(-6 0 -8 -22 -4 -7 -9 -12)
1969/12/31/18:00:13.498000,(-2 -10 -5 -10 -16 -10 -4 2)
1969/12/31/18:00:13.505000,(30 42 -1 -1 -2 7 16 16)
1969/12/31/18:00:13.505000,(-16 -23 -7 -7 -6 -14 -23 -26)
1969/12/31/18:00:13.520000,(-1 -2 1 -4 -9 -12 -8 -4)
1969/12/31/18:00:13.520000,(-11 -4 -4 -9 -27 -6 -6 -12)
1969/12/31/18:00:13.528000,(17 10 2 -15 22 16 13 15)
1969/12/31/18:00:13.528000,(3 1 6 28 29 19 11 7)
1969/12/31/18:00:13.544000,(9 10 12 32 13 7 6 9)
1969/12/31/18:00:13.544000,(7 7 -4 -6 -6 -8 -9 -4)
1969/12/31/18:00:13.544000,(-37 -30 -1 5 -11 -12 -16 -26)
1969/12/31/18:00:13.544000,(3 4 1 -8 -10 0 8 7)
1969/12/31/18:00:13.558000,(-1 -5 -7 -43 -12 -4 -1 2)
1969/12/31/18:00:13.558000,(-4 -2 -7 2 -6 -1 -3 -2)
1969/12/31/18:00:13.574000,(0 1 8 22 20 0 -1 2)
1969/12/31/18:00:13.574000,(-6 -7 2 7 -5 3 -1 -4)
1969/12/31/18:00:13.580000,(22 17 -7 -5 1 -2 5 9)
1969/12/31/18:00:13.580000,(-7 -18 -5 -14 -2 -1 2 4)
1969/12/31/18:00:13.588000,(36 49 7 13 2 3 5 12)
1969/12/31/18:00:13.588000,(-8 -3 7 -9 -12 -7 -6 -10)
1969/12/31/18:00:13.604000,(2 4 1 12 5 6 10 4)
1969/12/31/18:00:13.604000,(-10 -12 -3 2 8 5 -2 -5)
1969/12/31/18:00:13.604000,(2 -3 2 5 13 3 -1 1)
1969/12/31/18:00:13.604000,(-11 -10 -3 2 6 3 1 -6)
1969/12/31/18:00:13.618000,(-16 -15 -8 -20 -15 -2 -4 -14)
1969/12/31/18:00:13.618000,(2 7 5 -6 -6 -7 -2 0)
1969/12/31/18:00:13.625000,(-12 -22 -4 2 -5 -2 1 3)
1969/12/31/18:00:13.625000,(-13 -6 -3 -1 -4 -12 -19 -22)
1969/12/31/18:00:13.640000,(-1 -3 4 1 5 8 4 2)
1969/12/31/18:00:13.640000,(2 -3 -9 -35 -41 -18 2 3)
1969/12/31/18:00:13.648000,(-10 -13 -11 -45 -5 -7 -6 -4)
1969/12/31/18:00:13.648000,(0 1 8 57 24 14 11 4)
1969/12/31/18:00:13.663000,(8 8 20 55 50 26 11 11)
1969/12/31/18:00:13.663000,(-5 -11 1 8 4 3 2 -3)
1969/12/31/18:00:13.664000,(7 17 -2 -12 -15 -8 -5 -3)
1969/12/31/18:00:13.664000,(6 4 -11 -35 -18 -10 0 5)
1969/12/31/18:00:13.678000,(-32 -37 -13 -16 -17 -15 -13 -24)
1969/12/31/18:00:13.678000,(33 37 7 11 24 26 36 36)
1969/12/31/18:00:13.685000,(-17 -19 1 1 -12 -11 -12 -13)
1969/12/31/18:00:13.685000,(0 -2 -3 -7 -5 4 7 5)
1969/12/31/18:00:13.700000,(-5 -1 -2 -3 -1 -2 -3 -6)
1969/12/31/18:00:13.700000,(15 15 5 6 6 5 8 13)
1969/12/31/18:00:13.708000,(1 -10 0 13 8 2 -1 3)
1969/12/31/18:00:13.708000,(4 2 5 0 -4 -4 -8 -6)
1969/12/31/18:00:13.724000,(-19 -16 -6 1 2 -2 -7 -6)
1969/12/31/18:00:13.724000,(6 -3 -5 -11 -2 -2 -4 -9)
1969/12/31/18:00:13.731000,(-20 -15 -1 9 -5 -1 2 -6)
1969/12/31/18:00:13.731000,(10 -4 -4 -3 0 -5 -2 6)
1969/12/31/18:00:13.738000,(4 10 1 -7 -6 -1 2 3)
1969/12/31/18:00:13.738000,(-10 -5 -2 2 -2 -4 -12 -11)
1969/12/31/18:00:13.745000,(-18 -20 -1 9 -1 -2 -3 -10)
1969/12/31/18:00:13.745000,(-4 -4 -4 -5 6 3 4 0)
1969/12/31/18:00:13.760000,(23 16 5 2 1 6 15 26)
1969/12/31/18:00:13.760000,(4 6 -1 -1 5 2 1 0)
1969/12/31/18:00:13.768000,(-8 -8 -2 -1 -6 -2 -3 -6)
1969/12/31/18:00:13.768000,(3 4 1 -11 -9 -1 2 4)
1969/12/31/18:00:13.783000,(3 1 -4 -7 -3 -7 -8 -5)
1969/12/31/18:00:13.783000,(-5 17 -4 14 5 -4 -7 -8)
1969/12/31/18:00:13.791000,(10 -2 14 17 17 17 25 25)
1969/12/31/18:00:13.791000,(12 7 -3 2 2 2 -2 5)
1969/12/31/18:00:13.814000,(-9 -11 -3 -2 -5 -7 -7 -11)
1969/12/31/18:00:13.814000,(-7 -11 -6 -18 -10 -7 -8 -7)
1969/12/31/18:00:13.815000,(-3 1 -8 -23 -15 0 8 5)
1969/12/31/18:00:13.815000,(1 10 8 32 15 3 -1 -4)
1969/12/31/18:00:13.829000,(-2 -1 9 7 8 10 16 6)
1969/12/31/18:00:13.829000,(-9 -9 -4 -6 -4 0 -4 -6)
1969/12/31/18:00:13.829000,(-7 0 -18 -45 -29 -18 -15 -10)
1969/12/31/18:00:13.829000,(2 -7 5 17 4 2 5 5)
1969/12/31/18:00:13.852000,(19 24 14 40 23 12 8 15)
1969/12/31/18:00:13.852000,(5 3 7 15 17 8 2 1)
1969/12/31/18:00:13.853000,(-13 -14 -1 -3 -8 -5 -9 -16)
1969/12/31/18:00:13.853000,(-11 0 -11 -37 -18 -10 -8 -4)
1969/12/31/18:00:13.874000,(-4 -5 -15 -29 -19 -8 -1 -4)
1969/12/31/18:00:13.874000,(14 4 -3 0 -9 3 9 13)
1969/12/31/18:00:13.875000,(3 9 7 19 15 -3 -6 -3)
1969/12/31/18:00:13.875000,(0 -6 -21 -84 -11 1 3 4)
1969/12/31/18:00:13.889000,(0 10 20 71 -12 -7 -11 -7)
1969/12/31/18:00:13.889000,(-1 4 30 47 19 8 5 1)
1969/12/31/18:00:13.889000,(6 3 -4 19 20 -2 -1 4)
1969/12/31/18:00:13.889000,(-10 -9 7 -63 -35 -10 -2 -7)
1969/12/31/18:00:13.912000,(-3 -10 -24 4 27 10 2 -1)
1969/12/31/18:00:13.912000,(3 -4 -40 -44 -15 -15 -8 1)
1969/12/31/18:00:13.913000,(-13 -16 7 54 13 12 1 -6)
1969/12/31/18:00:13.913000,(-1 5 -13 19 -6 -7 -2 1)
1969/12/31/18:00:13.934000,(5 6 24 -33 -8 -5 -7 -3)
1969/12/31/18:00:13.934000,(0 13 26 -2 -15 4 6 0)
1969/12/31/18:00:13.935000,(21 16 -16 -23 6 -1 4 11)
1969/12/31/18:00:13.935000,(7 -2 -1 18 4 4 6 4)
1969/12/31/18:00:13.949000,(-8 -13 -32 -25 -23 -16 -9 -9)
1969/12/31/18:00:13.949000,(-6 -10 4 -4 11 -6 -7 -7)
1969/12/31/18:00:13.949000,(-4 2 28 -43 -19 12 8 0)
1969/12/31/18:00:13.949000,(7 6 -6 66 10 4 3 6)
1969/12/31/18:00:13.972000,(0 0 3 5 13 -2 -2 -1)
1969/12/31/18:00:13.972000,(-11 -11 -14 -21 0 -4 -8 -9)
1969/12/31/18:00:13.972000,(2 -2 -20 -56 -41 -18 -4 1)
1969/12/31/18:00:13.973000,(-3 -4 0 55 -39 -8 -3 -4)
1969/12/31/18:00:13.994000,(9 11 21 87 97 25 9 10)
1969/12/31/18:00:13.994000,(-6 0 39 58 19 21 3 -7)
1969/12/31/18:00:13.996000,(-3 6 -2 13 18 10 5 -2)
1969/12/31/18:00:13.996000,(7 3 -20 -86 -24 -3 4 4)
1969/12/31/18:00:14.008000,(-6 -9 -13 -35 -20 -12 -5 -5)
1969/12/31/18:00:14.008000,(6 10 20 5 16 19 9 4)
1969/12/31/18:00:14.017000,(3 8 16 41 6 -8 -6 -1)
1969/12/31/18:00:14.017000,(-9 -11 -16 -29 2 -10 -6 -5)
1969/12/31/18:00:14.032000,(3 -3 -25 -25 -40 -19 -5 2)
1969/12/31/18:00:14.032000,(-12 -14 -20 -19 6 -5 -5 -5)
1969/12/31/18:00:14.033000,(-2 4 22 17 3 11 4 1)
1969/12/31/18:00:14.033000,(1 4 6 0 10 0 -3 0)
1969/12/31/18:00:14.054000,(4 -1 -11 -31 -23 1 4 4)
1969/12/31/18:00:14.054000,(-1 0 -4 9 -4 -12 -5 -1)
1969/12/31/18:00:14.056000,(2 -5 -23 -5 -5 -9 -2 -2)
1969/12/31/18:00:14.056000,(-5 1 40 42 15 10 3 -2)
1969/12/31/18:00:14.068000,(3 11 7 2 14 18 8 3)
1969/12/31/18:00:14.068000,(11 4 4 6 -1 0 0 6)
1969/12/31/18:00:14.077000,(-8 -12 -22 0 -41 -11 -9 -8)
1969/12/31/18:00:14.077000,(-7 -7 -7 42 49 5 -4 -5)
1969/12/31/18:00:14.092000,(-6 0 18 -10 15 4 -2 -2)
1969/12/31/18:00:14.092000,(1 0 -13 -31 -24 -8 0 2)
1969/12/31/18:00:14.093000,(1 -1 -4 4 -3 -6 -3 -1)
1969/12/31/18:00:14.093000,(-2 -2 11 -7 -6 8 5 0)
1969/12/31/18:00:14.114000,(1 3 -5 -1 -9 -5 -4 -2)
1969/12/31/18:00:14.114000,(2 -7 -17 -20 -1 -1 1 6)
1969/12/31/18:00:14.116000,(0 10 22 26 8 4 1 2)
1969/12/31/18:00:14.116000,(7 3 -8 15 14 0 3 6)
1969/12/31/18:00:14.128000,(-8 -6 5 -3 -10 -3 -3 -6)
1969/12/31/18:00:14.128000,(2 -1 -8 -16 -6 0 3 3)
1969/12/31/18:00:14.137000,(-3 -4 -11 -24 -8 0 -1 -4)
1969/12/31/18:00:14.137000,(4 7 16 26 7 1 0 1)
1969/12/31/18:00:14.152000,(6 7 2 -42 -26 4 7 3)
1969/12/31/18:00:14.152000,(-1 -9 -17 29 19 -4 -4 0)
1969/12/31/18:00:14.153000,(-11 -5 13 32 30 2 -4 -5)
1969/12/31/18:00:14.153000,(-6 -3 -10 -33 -8 -1 -1 -4)
1969/12/31/18:00:14.174000,(1 -3 -3 5 -19 -7 -2 0)
1969/12/31/18:00:14.174000,(2 2 -3 9 2 -1 0 0)
1969/12/31/18:00:14.176000,(7 1 -13 -16 10 4 4 3)
1969/12/31/18:00:14.176000,(-4 1 14 12 15 -4 -6 -6)
1969/12/31/18:00:14.188000,(-8 -9 -12 -41 -32 -8 -7 -5)
1969/12/31/18:00:14.188000,(-2 0 5 12 16 8 4 -2)
1969/12/31/18:00:14.197000,(0 -1 4 26 12 -2 -4 0)
1969/12/31/18:00:14.197000,(-4 -2 -5 -25 -15 6 4 -1)
1969/12/31/18:00:14.212000,(3 -5 -16 -8 -9 -5 -2 -3)
1969/12/31/18:00:14.212000,(0 4 13 20 13 -1 -2 0)
1969/12/31/18:00:14.213000,(3 -1 -3 -27 -14 -5 -2 0)
1969/12/31/18:00:14.213000,(-7 -8 -9 -2 -3 -6 -6 -6)
1969/12/31/18:00:14.234000,(-5 3 19 48 14 1 0 -4)
1969/12/31/18:00:14.234000,(5 0 -16 -31 -7 3 1 3)
1969/12/31/18:00:14.236000,(6 -2 4 7 8 15 15 11)
1969/12/31/18:00:14.236000,(14 9 -3 10 6 3 4 8)
1969/12/31/18:00:14.248000,(-8 -11 2 4 1 -12 -9 -8)
1969/12/31/18:00:14.248000,(-5 -5 -12 -27 -22 1 -3 -7)
1969/12/31/18:00:14.257000,(-5 -2 3 17 8 -4 -1 0)
1969/12/31/18:00:14.257000,(-5 -3 -1 -11 -7 -2 -2 -2)
1969/12/31/18:00:14.271000,(-2 2 15 0 2 0 -2 -5)
1969/12/31/18:00:14.271000,(0 3 5 4 -6 -5 4 7)
1969/12/31/18:00:14.278000,(-1 -5 -5 -22 -12 -1 -3 -3)
1969/12/31/18:00:14.278000,(-3 6 20 29 18 7 3 -2)
1969/12/31/18:00:14.294000,(5 -3 -25 -12 5 6 6 5)
1969/12/31/18:00:14.294000,(-9 -3 11 8 -6 -7 -9 -10)
1969/12/31/18:00:14.296000,(1 -1 -4 -12 -11 -5 -2 -1)
1969/12/31/18:00:14.296000,(11 3 -4 2 5 1 4 8)
1969/12/31/18:00:14.308000,(3 1 -6 -7 2 0 -2 3)
1969/12/31/18:00:14.308000,(-7 -5 -3 -16 -12 -9 -7 -7)
1969/12/31/18:00:14.317000,(-4 -4 -6 -21 -26 -10 -7 -6)
1969/12/31/18:00:14.317000,(-1 5 24 50 26 10 0 -1)
1969/12/31/18:00:14.331000,(1 4 11 15 11 3 2 0)
1969/12/31/18:00:14.331000,(9 1 -5 6 9 7 8 7)
1969/12/31/18:00:14.339000,(3 5 -6 -19 -1 -1 0 1)
1969/12/31/18:00:14.339000,(2 -4 -12 -26 -12 -2 -1 0)
1969/12/31/18:00:14.354000,(2 3 3 2 -6 -1 0 -1)
1969/12/31/18:00:14.354000,(-4 0 -3 -7 -7 -4 -5 -4)
1969/12/31/18:00:14.356000,(3 2 0 10 4 -1 -1 0)
1969/12/31/18:00:14.356000,(0 2 -2 -9 -7 1 0 0)
1969/12/31/18:00:14.377000,(1 1 6 9 14 3 4 5)
1969/12/31/18:00:14.377000,(1 -4 -7 -4 -6 -2 0 0)
1969/12/31/18:00:14.378000,(3 1 3 11 10 3 1 2)
1969/12/31/18:00:14.378000,(-11 -9 -5 -8 -16 -9 -8 -11)
1969/12/31/18:00:14.391000,(9 6 -8 -10 -1 -1 1 8)
1969/12/31/18:00:14.391000,(-1 -4 -9 -15 -27 -5 -1 0)
1969/12/31/18:00:14.398000,(-3 5 14 15 32 10 1 -2)
1969/12/31/18:00:14.398000,(4 -1 -13 -9 -5 2 4 5)
1969/12/31/18:00:14.414000,(-1 -2 -3 -7 3 -2 -2 1)
1969/12/31/18:00:14.414000,(-1 6 25 63 21 6 4 2)
1969/12/31/18:00:14.416000,(-4 1 6 2 -4 1 -1 -3)
1969/12/31/18:00:14.416000,(0 1 1 -12 2 -1 -3 0)
1969/12/31/18:00:14.428000,(0 -4 -10 -7 -10 -4 -1 0)
1969/12/31/18:00:14.428000,(3 0 -12 -24 -12 -9 -5 -1)
1969/12/31/18:00:14.437000,(0 -3 -4 -1 -3 -3 1 0)
1969/12/31/18:00:14.437000,(-2 -1 -2 -3 3 0 -2 -3)
1969/12/31/18:00:14.450000,(0 -2 -1 1 -6 1 4 1)
1969/12/31/18:00:14.450000,(-6 0 0 -7 1 -2 -6 -3)
1969/12/31/18:00:14.459000,(-6 -4 0 10 7 2 1 1)
1969/12/31/18:00:14.459000,(1 -2 -6 -4 0 2 3 5)
1969/12/31/18:00:14.475000,(-4 -1 3 1 -3 1 -1 1)
1969/12/31/18:00:14.475000,(-3 2 2 -1 -9 -2 2 1)
1969/12/31/18:00:14.480000,(-3 -2 -5 0 13 1 -2 -3)
1969/12/31/18:00:14.480000,(-6 -3 -1 -4 -6 -5 -1 -1)
1969/12/31/18:00:14.497000,(-2 4 5 0 -21 -5 -2 0)
1969/12/31/18:00:14.497000,(-2 -1 2 3 26 7 -2 -1)
1969/12/31/18:00:14.503000,(-1 0 -1 2 -2 2 2 1)
1969/12/31/18:00:14.503000,(-3 -1 2 -3 -1 -2 -1 -4)
1969/12/31/18:00:14.510000,(-3 -3 0 4 8 2 1 -5)
1969/12/31/18:00:14.510000,(4 1 -3 -10 -16 -5 0 1)
1969/12/31/18:00:14.519000,(1 -2 -2 -1 -5 0 -1 -1)
1969/12/31/18:00:14.519000,(-2 0 6 4 7 1 0 -1)
1969/12/31/18:00:14.534000,(1 1 0 -2 -4 -2 -2 1)
1969/12/31/18:00:14.534000,(0 -1 -1 -3 0 -1 1 -3)
1969/12/31/18:00:14.536000,(0 0 -2 1 -2 -1 -5 -1)
1969/12/31/18:00:14.536000,(1 0 0 -2 -3 -1 0 2)
1969/12/31/18:00:14.557000,(-6 -6 4 6 5 0 -6 -7)
1969/12/31/18:00:14.557000,(-2 -2 0 0 3 4 4 2)
1969/12/31/18:00:14.559000,(5 7 -2 -7 -4 -1 1 3)
1969/12/31/18:00:14.559000,(2 0 -5 -6 -7 -2 0 2)
1969/12/31/18:00:14.570000,(5 4 -6 -8 1 -1 -2 2)
1969/12/31/18:00:14.570000,(1 0 -3 -2 -1 -2 -2 -1)
1969/12/31/18:00:14.579000,(-2 -1 2 -1 -5 -4 -4 -3)
1969/12/31/18:00:14.579000,(-2 -4 -6 0 -3 -1 2 1)
1969/12/31/18:00:14.595000,(-3 -6 2 5 7 3 5 -1)
1969/12/31/18:00:14.595000,(3 5 2 1 -1 -1 -1 -2)
1969/12/31/18:00:14.596000,(-3 -2 0 -1 -3 -2 -3 -4)
1969/12/31/18:00:14.596000,(0 -3 3 2 2 2 -2 -1)
1969/12/31/18:00:14.617000,(2 8 2 3 1 2 2 0)
1969/12/31/18:00:14.617000,(-4 -6 -4 -4 -5 -4 -4 -3)
1969/12/31/18:00:14.618000,(2 0 -2 -1 -2 1 0 -1)
1969/12/31/18:00:14.618000,(0 1 0 2 2 -1 -3 -2)
1969/12/31/18:00:14.630000,(-1 -4 1 -1 -1 0 3 3)
1969/12/31/18:00:14.630000,(-1 -1 -2 1 2 2 2 -1)
1969/12/31/18:00:14.639000,(1 -1 -1 -2 -1 -1 -3 -3)
1969/12/31/18:00:14.640000,(-1 0 -3 -2 -2 1 1 2)
1969/12/31/18:00:14.654000,(5 4 1 -3 -3 0 0 2)
1969/12/31/18:00:14.654000,(-1 -1 0 0 0 -4 -2 -1)
1969/12/31/18:00:14.656000,(-6 -7 -1 -1 -1 -2 -1 -4)
1969/12/31/18:00:14.656000,(4 4 -1 -1 1 3 1 2)
1969/12/31/18:00:14.677000,(-1 -2 -1 2 4 3 -3 -2)
1969/12/31/18:00:14.677000,(0 1 3 1 2 -1 0 2)
1969/12/31/18:00:14.678000,(4 3 -1 -3 -4 -4 0 0)
1969/12/31/18:00:14.678000,(-3 -1 0 -3 -4 -2 -4 -6)
1969/12/31/18:00:14.690000,(-2 -2 -3 4 2 0 -1 -2)
1969/12/31/18:00:14.691000,(1 -2 -2 -4 -2 1 2 2)
1969/12/31/18:00:14.707000,(-2 -2 -2 0 -1 0 1 1)
1969/12/31/18:00:14.707000,(0 0 2 2 2 0 1 0)
1969/12/31/18:00:14.714000,(0 1 1 -1 0 0 -2 0)
1969/12/31/18:00:14.714000,(-2 -1 -2 0 -2 0 3 1)
1969/12/31/18:00:14.716000,(0 3 -2 2 0 0 1 0)
1969/12/31/18:00:14.716000,(-1 -3 -4 -1 2 -1 -3 -1)
1969/12/31/18:00:14.737000,(-2 -4 0 -1 -1 0 1 0)
1969/12/31/18:00:14.737000,(1 0 0 -2 1 0 -3 -2)
1969/12/31/18:00:14.738000,(1 1 2 -3 -3 -2 2 1)
1969/12/31/18:00:14.738000,(0 0 1 2 0 -2 3 0)
1969/12/31/18:00:14.751000,(0 1 -2 -1 -1 -1 -4 -2)
1969/12/31/18:00:14.751000,(0 -4 -2 0 0 0 0 0)
1969/12/31/18:00:14.759000,(0 0 0 3 1 3 0 0)
1969/12/31/18:00:14.760000,(1 1 3 1 -3 -1 1 1)
1969/12/31/18:00:14.774000,(-1 -1 -3 -3 -2 -4 0 0)
1969/12/31/18:00:14.774000,(0 -1 -3 2 1 0 0 0)
1969/12/31/18:00:14.776000,(-3 -2 -2 -1 0 0 -1 -2)
1969/12/31/18:00:14.776000,(-1 0 -3 -2 -2 0 -2 -3)
1969/12/31/18:00:14.797000,(-2 2 1 2 -1 0 0 2)
1969/12/31/18:00:14.797000,(2 2 3 0 0 3 3 2)
1969/12/31/18:00:14.798000,(-1 -2 -1 -1 -2 -2 -2 -1)
1969/12/31/18:00:14.799000,(1 0 1 0 0 0 0 -1)
1969/12/31/18:00:14.811000,(0 -1 -1 0 0 0 -1 2)
1969/12/31/18:00:14.811000,(-2 -1 -1 0 0 -1 -3 -1)
1969/12/31/18:00:14.818000,(1 1 1 2 1 1 -1 -1)
1969/12/31/18:00:14.818000,(1 -1 1 -1 -4 -3 2 0)
1969/12/31/18:00:14.834000,(0 0 -1 -2 -2 -2 0 -3)
1969/12/31/18:00:14.834000,(-2 0 -1 -1 -2 -1 -1 -2)
1969/12/31/18:00:14.836000,(-1 -2 0 -1 1 1 -2 0)
1969/12/31/18:00:14.836000,(-1 1 0 0 -1 -1 -2 0)
1969/12/31/18:00:14.857000,(0 0 1 0 0 -1 -3 -3)
1969/12/31/18:00:14.857000,(0 1 3 -1 -2 -1 0 0)
1969/12/31/18:00:14.863000,(-2 -2 -5 -2 0 -1 0 0)
1969/12/31/18:00:14.863000,(1 0 -2 -2 -1 0 -1 0)
1969/12/31/18:00:14.871000,(1 0 -2 -3 -3 -2 -1 -1)
1969/12/31/18:00:14.871000,(-2 -2 -1 -1 0 0 -3 -3)
1969/12/31/18:00:14.878000,(0 2 -1 0 -2 -1 1 1)
1969/12/31/18:00:14.878000,(-2 0 1 1 2 0 -1 -1)
1969/12/31/18:00:14.894000,(-1 -1 0 -1 0 2 -1 -1)
1969/12/31/18:00:14.894000,(3 0 -2 -3 0 1 3 2)
1969/12/31/18:00:14.896000,(2 1 0 1 2 0 0 2)
1969/12/31/18:00:14.896000,(-1 -1 -1 0 0 -2 -1 -1)
1969/12/31/18:00:14.917000,(-1 1 0 -2 -3 -2 1 1)
1969/12/31/18:00:14.917000,(-4 -3 -1 1 0 -1 -1 -2)
1969/12/31/18:00:14.918000,(-2 0 1 -2 -1 0 1 1)
1969/12/31/18:00:14.918000,(-2 -1 0 -1 -1 -3 -4 -3)
1969/12/31/18:00:14.931000,(0 1 1 0 -1 0 2 2)
1969/12/31/18:00:14.931000,(-1 -2 -3 0 1 -2 -2 -1)
1969/12/31/18:00:14.938000,(0 -1 -2 -1 -3 -2 1 -1)
1969/12/31/18:00:14.938000,(-1 -1 1 1 0 0 -1 -1)
1969/12/31/18:00:14.954000,(1 0 -1 0 -1 0 1 0)
1969/12/31/18:00:14.954000,(-1 0 -1 -1 -1 -2 -2 1)
1969/12/31/18:00:14.956000,(-1 -1 -3 0 -2 0 0 -1)
1969/12/31/18:00:14.956000,(-2 0 1 0 1 1 0 0)
1969/12/31/18:00:14.977000,(-1 -3 -3 0 1 -1 -3 -2)
1969/12/31/18:00:14.977000,(0 -3 0 0 -1 0 2 2)
1969/12/31/18:00:14.978000,(1 0 0 -1 2 1 -1 1)
1969/12/31/18:00:14.978000,(3 4 2 -3 -3 -1 3 3)
1969/12/31/18:00:14.991000,(-1 -1 -2 -1 -1 -2 0 -1)
1969/12/31/18:00:14.991000,(-1 1 -1 0 0 -1 -2 -3)
1969/12/31/18:00:14.998000,(-3 -3 0 0 0 -1 -2 -3)
1969/12/31/18:00:14.998000,(-1 -3 -2 0 0 1 -3 0)
1969/12/31/18:00:15.014000,(-1 0 0 -1 1 1 0 0)
1969/12/31/18:00:15.014000,(-1 -1 -1 -1 -1 -1 -3 -1)
1969/12/31/18:00:15.016000,(-2 -2 -2 -1 -1 0 1 2)
1969/12/31/18:00:15.016000,(0 1 0 1 -2 -1 0 0)
1969/12/31/18:00:15.037000,(1 1 0 -2 -1 -1 1 1)
1969/12/31/18:00:15.037000,(-1 -2 0 -1 -1 0 -1 -2)
1969/12/31/18:00:15.038000,(0 0 -1 -2 -2 -3 2 0)
1969/12/31/18:00:15.038000,(0 0 -2 -2 -1 -1 0 0)
1969/12/31/18:00:15.050000,(-2 0 -1 1 2 0 -2 -2)
1969/12/31/18:00:15.050000,(1 -1 -2 0 -1 -1 0 1)
1969/12/31/18:00:15.059000,(0 0 -1 -1 0 -2 -1 0)
1969/12/31/18:00:15.059000,(-1 0 -1 0 -1 0 0 -1)
1969/12/31/18:00:15.059000,(1 -3 -2 0 -1 0 0 2)
1969/12/31/18:00:15.059000,(-2 -1 0 -1 -2 -3 -2 -2)
1969/12/31/18:00:15.060000,(1 -2 -2 -1 -1 -2 4 1)
1969/12/31/18:00:15.060000,(2 2 0 2 0 0 0 1)
1969/12/31/18:00:15.072000,(-1 -4 -1 1 1 0 -2 -2)
1969/12/31/18:00:15.072000,(-1 -3 1 0 3 0 1 -1)
1969/12/31/18:00:15.081000,(0 -1 1 -1 -2 0 -1 2)
1969/12/31/18:00:15.081000,(1 0 -2 -2 -1 -2 -4 -1)
1969/12/31/18:00:15.096000,(-1 0 0 -3 -5 -1 -2 -1)
1969/12/31/18:00:15.096000,(1 1 0 -1 -2 0 -1 1)
1969/12/31/18:00:15.098000,(-2 -1 -1 1 2 0 -2 -2)
1969/12/31/18:00:15.098000,(-2 -1 0 -2 -2 0 0 -2)
1969/12/31/18:00:15.119000,(-1 1 -1 -1 0 0 -2 -1)
1969/12/31/18:00:15.119000,(0 -2 1 2 4 1 0 0)
1969/12/31/18:00:15.120000,(-1 -2 -2 -2 -3 0 -1 -1)
1969/12/31/18:00:15.120000,(2 1 0 0 -3 -1 1 1)
1969/12/31/18:00:15.132000,(-2 -2 -1 1 0 -3 -1 -3)
1969/12/31/18:00:15.132000,(-2 -2 0 -3 1 1 0 0)
1969/12/31/18:00:15.141000,(-1 -1 -1 -1 -2 -2 -2 -2)
1969/12/31/18:00:15.141000,(-3 -1 0 -2 0 -1 -2 -1)
1969/12/31/18:00:15.157000,(-1 0 0 2 2 4 1 1)
1969/12/31/18:00:15.157000,(-2 0 -1 -3 -3 -4 -3 -3)
1969/12/31/18:00:15.162000,(0 -1 1 0 2 2 2 0)
1969/12/31/18:00:15.162000,(0 0 -2 -2 -3 -3 -2 -3)
1969/12/31/18:00:15.179000,(2 0 -1 1 -1 1 2 3)
1969/12/31/18:00:15.179000,(-2 -3 -4 -3 -3 -3 -3 -1)
1969/12/31/18:00:15.180000,(0 1 0 1 -1 -1 1 1)
1969/12/31/18:00:15.180000,(1 0 0 -3 -1 0 0 0)
1969/12/31/18:00:15.192000,(1 0 0 3 2 2 1 1)
1969/12/31/18:00:15.192000,(2 0 0 2 1 1 0 1)
1969/12/31/18:00:15.201000,(-2 0 0 -3 -4 -3 -4 -3)
1969/12/31/18:00:15.201000,(1 -1 0 -2 1 0 -1 1)
1969/12/31/18:00:15.216000,(-4 -3 -4 -2 -4 -4 -2 -3)
1969/12/31/18:00:15.216000,(4 1 -1 0 1 2 3 4)
1969/12/31/18:00:15.218000,(-2 -1 -1 1 1 0 -1 -1)
1969/12/31/18:00:15.218000,(-2 -2 -1 0 1 -1 -1 -2)
1969/12/31/18:00:15.239000,(-1 2 1 -4 -5 -5 -3 -3)
1969/12/31/18:00:15.239000,(-3 -2 -3 -1 0 -2 -1 -3)
1969/12/31/18:00:15.240000,(1 1 1 -1 -1 1 3 0)
1969/12/31/18:00:15.240000,(-2 0 0 0 0 0 -2 -2)
1969/12/31/18:00:15.252000,(1 -1 0 -3 -3 -2 0 -2)
1969/12/31/18:00:15.252000,(-1 -2 -5 0 -5 0 1 0)
1969/12/31/18:00:15.261000,(0 0 -2 2 2 -1 -3 -1)
1969/12/31/18:00:15.261000,(-2 -1 3 2 5 3 1 -1)
1969/12/31/18:00:15.276000,(-1 0 0 -4 -4 0 2 0)
1969/12/31/18:00:15.276000,(3 1 0 0 -1 -2 -1 2)
1969/12/31/18:00:15.278000,(-3 -2 1 -3 -1 -3 -4 -3)
1969/12/31/18:00:15.278000,(-2 0 -1 3 0 1 -1 -1)
1969/12/31/18:00:15.299000,(0 -1 -3 1 2 -1 -3 0)
1969/12/31/18:00:15.299000,(3 5 6 1 2 3 2 0)
1969/12/31/18:00:15.300000,(-2 -4 -5 0 -1 -1 -1 -3)
1969/12/31/18:00:15.300000,(2 0 0 -8 -8 -5 -1 1)
1969/12/31/18:00:15.312000,(-1 -1 -10 1 0 1 0 0)
1969/12/31/18:00:15.312000,(-4 -7 0 1 -2 1 -2 -1)
1969/12/31/18:00:15.321000,(-10 -6 0 -9 -8 -7 -4 -5)
1969/12/31/18:00:15.321000,(-4 -2 -2 -6 7 -3 -3 -3)
1969/12/31/18:00:15.335000,(-2 1 7 8 -3 0 1 0)
1969/12/31/18:00:15.335000,(6 3 -7 2 13 5 4 4)
1969/12/31/18:00:15.344000,(11 4 5 -1 3 7 8 9)
1969/12/31/18:00:15.344000,(-7 -5 -6 14 -9 -4 -5 -5)
1969/12/31/18:00:15.359000,(9 12 8 -12 -3 1 1 4)
1969/12/31/18:00:15.359000,(-5 1 5 12 -5 -6 -5 -7)
1969/12/31/18:00:15.360000,(-5 -10 -19 5 17 6 2 -3)
1969/12/31/18:00:15.360000,(-7 -9 6 2 -1 -2 -2 -4)
1969/12/31/18:00:15.372000,(-5 -3 5 3 3 0 1 -1)
1969/12/31/18:00:15.372000,(6 12 -6 -28 -20 -2 1 3)
1969/12/31/18:00:15.381000,(2 1 -11 -25 -28 -16 -7 -2)
1969/12/31/18:00:15.381000,(4 -6 -19 -12 -27 -9 -2 1)
1969/12/31/18:00:15.395000,(-3 -8 -20 -39 31 -6 -8 -3)
1969/12/31/18:00:15.396000,(-10 -8 9 -7 -54 -10 -5 -7)
1969/12/31/18:00:15.402000,(4 12 22 36 57 21 11 3)
1969/12/31/18:00:15.402000,(1 4 18 96 59 33 9 3)
1969/12/31/18:00:15.419000,(0 -3 17 -46 8 15 12 3)
1969/12/31/18:00:15.419000,(9 7 -14 8 -13 -5 -4 6)
1969/12/31/18:00:15.420000,(-11 -8 -1 4 -15 -8 -10 -10)
1969/12/31/18:00:15.420000,(-1 0 -9 -25 13 -14 -7 -5)
1969/12/31/18:00:15.432000,(-19 -18 22 56 -4 -7 -4 -10)
1969/12/31/18:00:15.432000,(4 12 32 69 40 14 10 6)
1969/12/31/18:00:15.441000,(4 1 -10 -25 20 2 1 4)
1969/12/31/18:00:15.441000,(7 9 -9 0 -28 -4 0 4)
1969/12/31/18:00:15.455000,(-3 4 -24 -83 -35 -21 -12 -8)
1969/12/31/18:00:15.455000,(0 -13 -34 -58 -41 -18 -5 -2)
1969/12/31/18:00:15.462000,(-3 -11 -6 -34 -31 1 1 1)
1969/12/31/18:00:15.462000,(-10 -11 -1 -14 -15 -2 -3 -5)
1969/12/31/18:00:15.479000,(8 5 12 61 73 16 7 6)
1969/12/31/18:00:15.479000,(-12 -4 13 12 17 -2 -7 -10)
1969/12/31/18:00:15.480000,(-1 2 25 30 -18 2 4 0)
1969/12/31/18:00:15.480000,(3 2 -18 -26 -4 -4 1 0)
1969/12/31/18:00:15.492000,(3 7 6 35 -21 -10 -6 1)
1969/12/31/18:00:15.492000,(3 4 -2 14 4 6 1 1)
1969/12/31/18:00:15.501000,(-3 -10 -26 -39 2 -9 -10 -6)
1969/12/31/18:00:15.501000,(-3 -12 -26 -116 -53 -14 -1 -4)
1969/12/31/18:00:15.515000,(14 12 32 106 55 34 20 14)
1969/12/31/18:00:15.515000,(-4 0 4 16 45 7 -1 -3)
1969/12/31/18:00:15.524000,(0 1 -12 -72 -44 -16 -7 -2)
1969/12/31/18:00:15.524000,(-7 -8 -4 -52 -75 -18 -6 -5)
1969/12/31/18:00:15.539000,(-1 -3 6 55 61 13 2 1)
1969/12/31/18:00:15.539000,(9 11 -1 -61 -16 5 8 5)
1969/12/31/18:00:15.540000,(10 16 38 127 58 23 10 9)
1969/12/31/18:00:15.540000,(-4 -2 -9 6 20 -4 -9 -4)
1969/12/31/18:00:15.561000,(-8 -16 -31 -83 -66 -17 -9 -6)
1969/12/31/18:00:15.561000,(-2 2 16 -1 6 3 5 0)
1969/12/31/18:00:15.563000,(0 -4 -34 -37 -31 -17 -5 -2)
1969/12/31/18:00:15.563000,(-5 -5 12 -11 -7 5 0 -1)
1969/12/31/18:00:15.575000,(-1 6 19 62 18 10 2 1)
1969/12/31/18:00:15.575000,(-5 -6 -8 2 15 1 -1 -3)
1969/12/31/18:00:15.584000,(2 -1 -16 -61 -20 -4 1 1)
1969/12/31/18:00:15.584000,(11 13 34 76 49 14 9 8)
1969/12/31/18:00:15.599000,(1 2 -11 13 -9 1 1 -3)
1969/12/31/18:00:15.599000,(-5 -12 -14 -28 -6 -4 -3 -2)
1969/12/31/18:00:15.600000,(-2 4 8 5 -3 -3 -1 0)
1969/12/31/18:00:15.600000,(3 2 -5 -10 -5 3 3 3)
1969/12/31/18:00:15.621000,(2 5 -4 -33 -15 -7 -5 0)
1969/12/31/18:00:15.621000,(-3 -5 -2 22 4 -2 -1 -2)
1969/12/31/18:00:15.623000,(-2 -4 -3 -15 0 1 -1 -1)
1969/12/31/18:00:15.623000,(7 12 21 42 18 4 5 5)
1969/12/31/18:00:15.635000,(-1 -5 -13 -35 -31 -11 -2 -1)
1969/12/31/18:00:15.635000,(-5 -5 0 12 0 -2 -5 -4)
1969/12/31/18:00:15.644000,(1 -1 5 17 3 1 0 -1)
1969/12/31/18:00:15.644000,(3 8 2 2 13 3 1 1)
1969/12/31/18:00:15.659000,(-6 -7 -13 -19 -20 -11 -8 -7)
1969/12/31/18:00:15.659000,(3 2 -2 -15 -5 -2 2 3)
1969/12/31/18:00:15.665000,(5 10 13 16 1 -1 2 5)
1969/12/31/18:00:15.665000,(-10 -11 -4 12 9 -4 -2 0)
1969/12/31/18:00:15.681000,(13 2 -6 -16 -11 3 1 -1)
1969/12/31/18:00:15.681000,(-21 -3 -3 -19 -12 -7 -9 -13)
1969/12/31/18:00:15.683000,(15 1 6 27 11 6 7 9)
1969/12/31/18:00:15.683000,(-15 -1 2 12 10 1 -5 -12)
1969/12/31/18:00:15.695000,(-4 1 -2 -19 -14 -8 -4 1)
1969/12/31/18:00:15.695000,(27 8 -4 -2 -1 0 7 20)
1969/12/31/18:00:15.704000,(-23 -11 -1 -1 1 3 -2 -9)
1969/12/31/18:00:15.704000,(6 -1 1 0 1 1 -5 -7)
1969/12/31/18:00:15.719000,(-16 -5 -3 0 -1 0 -4 -7)
1969/12/31/18:00:15.719000,(0 -2 -1 -1 -1 -1 -3 -4)
1969/12/31/18:00:15.725000,(2 4 2 14 5 -1 1 6)
1969/12/31/18:00:15.725000,(3 -7 -3 -10 -4 -1 3 7)
1969/12/31/18:00:15.740000,(4 4 -4 -4 -5 -6 -1 4)
1969/12/31/18:00:15.740000,(5 3 0 -3 -5 3 3 7)
1969/12/31/18:00:15.741000,(4 4 6 10 12 3 -5 -5)
1969/12/31/18:00:15.741000,(-19 -1 1 -4 3 0 -3 -11)
1969/12/31/18:00:15.763000,(-4 -5 -2 -3 -4 -1 -1 -4)
1969/12/31/18:00:15.763000,(0 -6 -7 -18 -6 -3 -1 -8)
1969/12/31/18:00:15.764000,(-33 -21 -5 11 -1 -6 -7 -6)
1969/12/31/18:00:15.764000,(41 18 3 7 -3 -1 5 16)
1969/12/31/18:00:15.778000,(-11 6 -3 -15 -1 0 -3 -13)
1969/12/31/18:00:15.778000,(-9 -5 2 2 -1 -2 1 6)
1969/12/31/18:00:15.779000,(20 0 1 5 5 3 1 5)
1969/12/31/18:00:15.779000,(-5 2 -10 -17 -5 5 5 -1)
1969/12/31/18:00:15.800000,(1 -8 -13 -26 -18 -3 1 3)
1969/12/31/18:00:15.800000,(-21 -6 12 29 18 5 -7 -17)
1969/12/31/18:00:15.801000,(16 13 15 27 19 6 5 5)
1969/12/31/18:00:15.801000,(-14 -9 -1 21 7 2 3 1)
1969/12/31/18:00:15.824000,(40 24 -4 -24 -16 -9 2 15)
1969/12/31/18:00:15.824000,(-6 -4 -6 -14 -5 3 9 3)
1969/12/31/18:00:15.824000,(-14 -7 -5 -10 -15 -12 -16 -18)
1969/12/31/18:00:15.824000,(-26 -22 -5 -9 0 -1 -1 -1)
1969/12/31/18:00:15.838000,(14 6 2 1 -2 1 3 15)
1969/12/31/18:00:15.838000,(8 10 8 14 9 6 3 -6)
1969/12/31/18:00:15.839000,(-18 -15 -8 -18 -11 -6 -3 2)
1969/12/31/18:00:15.839000,(37 33 5 6 3 8 5 -1)
1969/12/31/18:00:15.860000,(-29 -26 -14 -26 -21 -11 -13 -6)
1969/12/31/18:00:15.860000,(-4 7 -1 7 26 4 5 5)
1969/12/31/18:00:15.861000,(35 18 -4 -32 -10 -1 -2 2)
1969/12/31/18:00:15.861000,(-13 -4 12 45 5 -1 -3 1)
1969/12/31/18:00:15.884000,(-4 -3 31 92 48 18 5 -2)
1969/12/31/18:00:15.884000,(-7 -6 -5 -24 -12 -5 -7 -6)
1969/12/31/18:00:15.885000,(-26 -13 -6 -8 -13 -5 0 -6)
1969/12/31/18:00:15.885000,(32 23 -8 -28 -13 -12 -7 11)
1969/12/31/18:00:15.898000,(5 -10 -10 -19 -5 10 19 16)
1969/12/31/18:00:15.898000,(-33 -22 -4 -6 -9 -11 -9 -8)
1969/12/31/18:00:15.899000,(21 41 6 -3 2 5 -1 -16)
1969/12/31/18:00:15.899000,(-3 -16 -6 -4 -11 -17 -23 -13)
1969/12/31/18:00:15.921000,(-2 14 1 -3 5 8 12 6)
1969/12/31/18:00:15.921000,(52 2 -9 -1 -1 6 20 32)
1969/12/31/18:00:15.921000,(12 15 13 11 4 4 -1 2)
1969/12/31/18:00:15.921000,(-15 -8 0 -3 3 3 0 -8)
1969/12/31/18:00:15.944000,(-6 16 4 -13 -4 -10 -11 -8)
1969/12/31/18:00:15.944000,(-15 -23 -10 -9 -12 -4 -8 -12)
1969/12/31/18:00:15.944000,(-1 -5 -26 -53 -42 -5 6 13)
1969/12/31/18:00:15.944000,(14 10 29 96 46 11 11 7)
1969/12/31/18:00:15.959000,(-36 -22 21 66 39 5 -14 -17)
1969/12/31/18:00:15.959000,(4 11 6 9 14 6 2 0)
1969/12/31/18:00:15.960000,(4 1 9 17 11 2 1 2)
1969/12/31/18:00:15.960000,(-28 -30 -21 -53 -19 -5 -1 -1)
1969/12/31/18:00:15.981000,(19 1 -12 -24 -22 -3 5 6)
1969/12/31/18:00:15.981000,(-16 -12 -7 -16 -7 -8 -11 -15)
1969/12/31/18:00:15.981000,(-46 -30 11 3 11 12 6 -17)
1969/12/31/18:00:15.981000,(80 72 -1 -25 -12 -2 1 13)
1969/12/31/18:00:16.004000,(-7 -9 -9 -7 -9 -14 -12 -7)
1969/12/31/18:00:16.004000,(13 6 0 3 2 6 -3 -1)
1969/12/31/18:00:16.004000,(-29 -15 -5 -2 -3 -1 2 3)
1969/12/31/18:00:16.004000,(-19 -26 -2 11 9 5 8 2)
1969/12/31/18:00:16.018000,(7 1 -31 -120 -34 -12 -12 -9)
1969/12/31/18:00:16.018000,(-1 2 5 56 -39 -19 -5 4)
1969/12/31/18:00:16.019000,(8 18 28 100 38 4 0 5)
1969/12/31/18:00:16.019000,(-12 4 20 40 60 26 9 -2)
1969/12/31/18:00:16.041000,(-11 -3 7 13 17 16 1 -13)
1969/12/31/18:00:16.041000,(-14 -18 -21 -77 -20 -7 -7 -4)
1969/12/31/18:00:16.041000,(17 4 -23 -44 -47 -17 -1 9)
1969/12/31/18:00:16.041000,(1 1 11 61 -11 -12 -5 3)
1969/12/31/18:00:16.064000,(7 -2 13 45 30 6 3 6)
1969/12/31/18:00:16.064000,(-38 -10 18 35 24 12 -6 -28)
1969/12/31/18:00:16.064000,(28 27 3 -23 6 3 6 12)
1969/12/31/18:00:16.064000,(-30 -21 -31 -85 -32 -12 -12 -17)
1969/12/31/18:00:16.078000,(9 -5 -8 -2 -22 -10 -4 -3)
1969/12/31/18:00:16.078000,(7 -4 0 -13 -4 -2 3 4)
1969/12/31/18:00:16.079000,(43 40 -8 -10 7 2 6 27)
1969/12/31/18:00:16.079000,(-23 -27 -7 -15 -13 -6 -8 -16)
1969/12/31/18:00:16.100000,(0 3 -5 -26 -10 -11 -3 0)
1969/12/31/18:00:16.100000,(16 5 1 14 -20 -6 -2 9)
1969/12/31/18:00:16.101000,(-21 -22 3 20 18 3 -4 -10)
1969/12/31/18:00:16.101000,(8 12 16 31 25 17 10 10)
1969/12/31/18:00:16.115000,(2 2 -2 -16 25 13 6 2)
1969/12/31/18:00:16.115000,(-4 2 8 29 9 3 3 -1)
1969/12/31/18:00:16.123000,(-10 -10 1 -2 -5 -8 -10 -15)
1969/12/31/18:00:16.123000,(17 -1 -7 -5 -18 -9 -1 13)
1969/12/31/18:00:16.138000,(-9 -4 1 -8 -11 1 0 -6)
1969/12/31/18:00:16.138000,(-2 9 -12 -24 -4 -4 0 4)
1969/12/31/18:00:16.139000,(-12 8 1 7 0 2 1 -14)
1969/12/31/18:00:16.139000,(12 -4 -7 -28 -9 -6 -5 3)
1969/12/31/18:00:16.161000,(3 -4 -15 -30 -18 -4 -1 2)
1969/12/31/18:00:16.161000,(15 4 2 13 9 0 4 12)
1969/12/31/18:00:16.161000,(-28 -23 7 23 1 0 -2 -10)
1969/12/31/18:00:16.161000,(-38 -31 -4 -7 11 0 -2 -14)
1969/12/31/18:00:16.176000,(62 66 16 31 -2 2 7 26)
1969/12/31/18:00:16.176000,(-22 -11 -1 1 5 -8 -16 -27)
1969/12/31/18:00:16.183000,(9 -12 -13 -27 9 2 7 12)
1969/12/31/18:00:16.183000,(-14 -7 -8 -23 -26 -6 -2 -7)
1969/12/31/18:00:16.198000,(-7 -12 -4 -3 -27 -13 -2 -1)
1969/12/31/18:00:16.198000,(2 0 -3 -14 -9 -19 -10 0)
1969/12/31/18:00:16.199000,(16 7 3 29 15 17 7 7)
1969/12/31/18:00:16.199000,(6 7 11 36 59 36 17 8)
1969/12/31/18:00:16.220000,(-3 -4 8 37 39 24 1 2)
1969/12/31/18:00:16.220000,(9 22 9 -6 6 15 15 5)
1969/12/31/18:00:16.221000,(-20 -23 -14 -33 -38 -27 -19 -17)
1969/12/31/18:00:16.221000,(4 4 -6 -18 -34 -20 -4 4)
1969/12/31/18:00:16.244000,(-14 -13 1 5 -10 -12 -7 -11)
1969/12/31/18:00:16.244000,(8 4 2 0 9 4 7 10)
1969/12/31/18:00:16.244000,(20 9 1 -3 -5 -5 -6 2)
1969/12/31/18:00:16.244000,(-8 -13 -1 -27 -6 1 5 5)
1969/12/31/18:00:16.258000,(19 20 -1 -5 -6 -1 2 2)
1969/12/31/18:00:16.258000,(27 22 6 38 13 5 5 14)
1969/12/31/18:00:16.259000,(-21 -17 -4 3 9 -1 -10 -18)
1969/12/31/18:00:16.259000,(4 9 4 8 -5 -2 -3 0)
1969/12/31/18:00:16.281000,(-20 -25 -2 -6 -2 -1 -3 -7)
1969/12/31/18:00:16.281000,(2 2 -1 -8 0 4 6 6)
1969/12/31/18:00:16.281000,(4 -2 -5 -7 9 1 3 7)
1969/12/31/18:00:16.281000,(6 7 -7 -22 -18 -8 -6 -2)
1969/12/31/18:00:16.295000,(-16 -11 5 13 -10 -1 -1 -6)
1969/12/31/18:00:16.295000,(-5 -6 0 0 15 8 -2 -4)
1969/12/31/18:00:16.303000,(17 14 2 5 13 4 0 6)
1969/12/31/18:00:16.303000,(-25 -16 -2 11 -1 2 -1 -16)
1969/12/31/18:00:16.318000,(-10 -7 6 16 7 2 3 1)
1969/12/31/18:00:16.318000,(1 -10 1 -8 -8 -9 -7 0)
1969/12/31/18:00:16.319000,(-6 -2 -4 -12 -4 1 1 -9)
1969/12/31/18:00:16.319000,(17 7 -7 -10 -2 1 9 15)
1969/12/31/18:00:16.340000,(6 6 -7 -9 -5 -1 2 2)
1969/12/31/18:00:16.340000,(-7 -12 -3 -4 1 -2 -6 -7)
1969/12/31/18:00:16.341000,(8 1 7 10 0 1 8 18)
1969/12/31/18:00:16.341000,(-11 2 0 1 -2 -4 -8 -17)
1969/12/31/18:00:16.355000,(-19 -17 -4 -12 -5 -3 -1 -8)
1969/12/31/18:00:16.355000,(6 6 -9 -7 -4 -1 2 4)
1969/12/31/18:00:16.363000,(4 0 2 -5 7 1 4 7)
1969/12/31/18:00:16.363000,(21 15 8 40 -1 -1 -1 6)
1969/12/31/18:00:16.378000,(-17 -11 3 -15 6 -2 -9 -13)
1969/12/31/18:00:16.378000,(-17 -20 -1 13 1 -1 -5 -10)
1969/12/31/18:00:16.379000,(9 20 0 2 -2 1 2 -1)
1969/12/31/18:00:16.379000,(7 12 1 -9 3 -2 -2 5)
1969/12/31/18:00:16.400000,(-18 -17 -6 -3 5 7 12 -2)
1969/12/31/18:00:16.400000,(18 17 1 -7 -7 -4 0 2)
1969/12/31/18:00:16.401000,(-23 -19 -5 -2 -7 -7 -14 -19)
1969/12/31/18:00:16.401000,(-2 2 9 0 13 10 16 12)
1969/12/31/18:00:16.415000,(16 11 1 9 -10 -1 1 11)
1969/12/31/18:00:16.415000,(-3 0 -3 -2 -1 -1 -1 -1)
1969/12/31/18:00:16.423000,(-7 -10 -4 5 5 -1 -4 -5)
1969/12/31/18:00:16.423000,(-1 -4 -20 -65 -23 -11 -7 -2)
1969/12/31/18:00:16.438000,(8 4 6 41 23 7 4 5)
1969/12/31/18:00:16.438000,(-12 -14 12 38 19 6 3 -1)
1969/12/31/18:00:16.439000,(19 17 6 8 2 5 7 11)
1969/12/31/18:00:16.439000,(-23 -38 -8 -7 -11 -12 -15 -12)
1969/12/31/18:00:16.460000,(28 32 -1 -19 -3 1 10 12)
1969/12/31/18:00:16.460000,(-9 -5 -3 -14 -7 -1 -3 -8)
1969/12/31/18:00:16.461000,(-13 -12 -3 -10 -1 1 1 -3)
1969/12/31/18:00:16.461000,(-6 -9 -6 6 -2 -5 -6 -4)
1969/12/31/18:00:16.484000,(-9 -5 5 6 -6 -3 -1 0)
1969/12/31/18:00:16.484000,(17 18 7 18 10 2 3 8)
1969/12/31/18:00:16.484000,(-8 1 2 -11 -7 -1 3 2)
1969/12/31/18:00:16.484000,(1 0 2 0 4 4 -2 -7)
1969/12/31/18:00:16.498000,(-6 -15 -4 0 -5 -4 -7 1)
1969/12/31/18:00:16.498000,(4 5 -9 -14 -7 -7 -5 -1)
1969/12/31/18:00:16.499000,(-20 -16 2 6 2 0 -3 -12)
1969/12/31/18:00:16.499000,(12 13 7 12 0 -2 -1 2)
1969/12/31/18:00:16.520000,(0 4 4 -2 1 8 12 8)
1969/12/31/18:00:16.520000,(-7 -9 -4 -14 -6 1 -2 -7)
1969/12/31/18:00:16.521000,(2 -3 -7 14 0 -6 -11 -6)
1969/12/31/18:00:16.521000,(6 13 11 19 11 5 6 7)
1969/12/31/18:00:16.543000,(-10 -12 -10 -10 -9 -10 -10 -10)
1969/12/31/18:00:16.543000,(23 13 -1 -8 -4 -3 -3 8)
1969/12/31/18:00:16.544000,(15 8 -4 -13 -6 5 6 13)
1969/12/31/18:00:16.544000,(8 12 1 9 5 6 6 6)
1969/12/31/18:00:16.558000,(-5 -13 -7 -8 -8 -13 -12 -3)
1969/12/31/18:00:16.558000,(-6 2 4 -3 -1 4 6 2)
1969/12/31/18:00:16.559000,(11 8 -3 -15 -10 -11 -4 3)
1969/12/31/18:00:16.559000,(-19 -20 -14 -58 -26 -24 -14 -14)
1969/12/31/18:00:16.581000,(2 4 -1 24 2 5 -4 -7)
1969/12/31/18:00:16.581000,(-1 4 17 59 51 30 12 3)
1969/12/31/18:00:16.581000,(-10 -3 10 20 21 -3 -5 -9)
1969/12/31/18:00:16.581000,(9 15 6 -1 5 24 22 15)
1969/12/31/18:00:16.611000,(-25 -14 -12 -29 -16 -15 -29 -32)
1969/12/31/18:00:16.611000,(-18 -4 -11 -29 -12 -1 -8 -16)
1969/12/31/18:00:16.612000,(6 -5 1 16 4 -7 0 13)
1969/12/31/18:00:16.612000,(5 6 -10 -14 -46 -31 -3 -1)
1969/12/31/18:00:16.618000,(-7 -1 -13 -29 -42 -29 -25 -15)
1969/12/31/18:00:16.618000,(-3 -8 7 -7 18 18 14 9)
1969/12/31/18:00:16.619000,(-8 -3 2 12 22 19 9 -1)
1969/12/31/18:00:16.619000,(-9 -11 -13 -13 -9 -7 -13 -12)
1969/12/31/18:00:16.640000,(16 9 13 33 7 -15 14 18)
1969/12/31/18:00:16.640000,(2 1 5 21 -6 -3 -3 2)
1969/12/31/18:00:16.641000,(6 3 8 11 -4 27 14 6)
1969/12/31/18:00:16.641000,(-1 3 4 10 25 10 1 -2)
1969/12/31/18:00:16.664000,(5 1 -3 -6 62 41 13 7)
1969/12/31/18:00:16.664000,(-7 -4 -6 14 23 6 -7 -10)
1969/12/31/18:00:16.664000,(19 10 -2 -63 -30 -5 12 19)
1969/12/31/18:00:16.664000,(-10 -8 5 44 -4 -3 -2 -4)
1969/12/31/18:00:16.678000,(-4 -1 2 -9 -32 -20 -7 -5)
1969/12/31/18:00:16.678000,(-4 -3 -8 -6 -16 -20 -7 -4)
1969/12/31/18:00:16.679000,(-2 -3 -7 -19 -12 -6 -5 -1)
1969/12/31/18:00:16.679000,(5 -1 -4 -25 -13 -10 -5 1)
1969/12/31/18:00:16.700000,(15 10 1 -29 -32 -9 12 18)
1969/12/31/18:00:16.700000,(-4 -1 -3 -4 -30 -11 -10 -9)
1969/12/31/18:00:16.701000,(-7 -7 6 28 41 10 0 -8)
1969/12/31/18:00:16.701000,(12 21 16 49 57 26 6 6)
1969/12/31/18:00:16.724000,(-13 -6 2 40 23 19 7 -3)
1969/12/31/18:00:16.724000,(-22 -36 -12 -34 -55 -26 -2 -3)
1969/12/31/18:00:16.724000,(45 37 -19 -63 -81 -35 2 21)
1969/12/31/18:00:16.724000,(-9 -13 -9 -16 13 12 -3 -7)
1969/12/31/18:00:16.738000,(7 5 4 16 99 40 11 6)
1969/12/31/18:00:16.738000,(-3 0 14 41 63 16 2 -2)
1969/12/31/18:00:16.739000,(-7 -3 16 55 -5 8 7 0)
1969/12/31/18:00:16.739000,(-2 3 4 -4 -16 -8 2 3)
1969/12/31/18:00:16.760000,(13 9 -6 -34 -42 -16 -10 -1)
1969/12/31/18:00:16.760000,(-27 -28 -16 -24 -6 -10 -10 -20)
1969/12/31/18:00:16.761000,(3 -2 -2 5 20 0 -8 1)
1969/12/31/18:00:16.761000,(-1 5 7 0 -15 9 20 10)
1969/12/31/18:00:16.784000,(-14 -9 -1 -4 -16 -11 -16 -15)
1969/12/31/18:00:16.784000,(3 8 -6 -16 -3 -4 1 5)
1969/12/31/18:00:16.784000,(-22 -14 0 -5 -19 -3 4 -1)
1969/12/31/18:00:16.784000,(5 4 2 -7 -9 -6 -10 -4)
1969/12/31/18:00:16.798000,(-4 -3 3 31 22 3 0 -1)
1969/12/31/18:00:16.798000,(17 13 1 2 -12 7 11 9)
1969/12/31/18:00:16.799000,(-13 -9 3 12 35 4 -9 -12)
1969/12/31/18:00:16.799000,(7 5 4 2 10 4 5 5)
1969/12/31/18:00:16.820000,(-8 -3 5 -3 -13 -2 2 -6)
1969/12/31/18:00:16.821000,(29 23 1 -1 -20 -6 0 21)
1969/12/31/18:00:16.821000,(-6 -2 -9 3 0 -10 -16 -16)
1969/12/31/18:00:16.821000,(-36 -26 -4 -4 6 -5 -14 -24)
1969/12/31/18:00:16.844000,(7 2 -1 -3 -3 0 -1 0)
1969/12/31/18:00:16.844000,(-5 -16 4 -10 5 18 28 26)
1969/12/31/18:00:16.844000,(-23 -12 -15 -11 -11 -15 -22 -24)
1969/12/31/18:00:16.844000,(22 10 -2 2 1 0 4 12)
1969/12/31/18:00:16.858000,(-5 -2 0 -5 -21 -2 7 1)
1969/12/31/18:00:16.858000,(5 17 -1 -10 -3 -10 -17 -9)
1969/12/31/18:00:16.859000,(-5 -17 7 1 2 4 6 5)
1969/12/31/18:00:16.859000,(1 0 0 -7 -27 -11 -7 3)
1969/12/31/18:00:16.880000,(-4 -8 -1 24 41 12 11 9)
1969/12/31/18:00:16.880000,(-1 -9 -2 3 32 13 2 -3)
1969/12/31/18:00:16.881000,(10 13 3 12 2 9 9 6)
1969/12/31/18:00:16.881000,(8 -3 2 3 -3 0 0 2)
1969/12/31/18:00:16.904000,(-11 0 -2 -7 -15 -3 2 -2)
1969/12/31/18:00:16.904000,(16 10 -2 -10 -12 -13 -5 -2)
1969/12/31/18:00:16.904000,(-16 -12 -11 -13 -4 -13 -12 -18)
1969/12/31/18:00:16.904000,(-31 -39 -15 -13 -21 -8 -8 -12)
1969/12/31/18:00:16.918000,(67 45 12 10 16 14 19 31)
1969/12/31/18:00:16.918000,(-3 -1 0 5 2 -10 -21 -19)
1969/12/31/18:00:16.919000,(17 15 4 0 5 18 30 29)
1969/12/31/18:00:16.919000,(24 33 -5 -7 -1 -19 -25 -4)
1969/12/31/18:00:16.941000,(-28 -19 1 0 -5 3 2 -10)
1969/12/31/18:00:16.941000,(-13 -8 -2 -11 -23 -9 -6 -11)
1969/12/31/18:00:16.941000,(10 6 -2 5 3 0 -4 -3)
1969/12/31/18:00:16.941000,(13 2 -3 -1 5 12 22 22)
1969/12/31/18:00:16.964000,(-13 -15 -1 -6 -5 1 -1 -4)
1969/12/31/18:00:16.964000,(31 25 1 -14 -30 -6 2 14)
1969/12/31/18:00:16.964000,(-21 -20 -2 16 25 0 -4 -11)
1969/12/31/18:00:16.964000,(-9 -4 6 14 37 13 2 -4)
1969/12/31/18:00:16.978000,(21 21 -5 5 -21 -18 -11 12)
1969/12/31/18:00:16.978000,(-67 -41 5 13 10 4 -12 -45)
1969/12/31/18:00:16.979000,(-3 -6 -3 -14 -25 -8 -2 -1)
1969/12/31/18:00:16.979000,(-1 -7 -7 -7 -11 -7 -5 -2)
1969/12/31/18:00:17.009000,(32 24 0 -10 -2 7 17 21)
1969/12/31/18:00:17.009000,(0 -2 -4 -14 -14 -15 -7 -1)
1969/12/31/18:00:17.009000,(0 4 -4 -11 -28 -11 -6 -5)
1969/12/31/18:00:17.009000,(-41 -46 2 20 30 12 -2 -20)
1969/12/31/18:00:17.023000,(36 30 6 15 38 22 10 9)
1969/12/31/18:00:17.023000,(-7 0 4 -1 -11 -2 -2 -3)
1969/12/31/18:00:17.024000,(3 0 0 -5 -11 -1 2 6)
1969/12/31/18:00:17.024000,(11 -1 -2 -7 -18 -9 -3 1)
1969/12/31/18:00:17.038000,(-27 -19 -5 -7 -17 -18 -22 -22)
1969/12/31/18:00:17.038000,(4 9 2 9 -3 4 17 18)
1969/12/31/18:00:17.039000,(0 -2 4 13 56 27 1 2)
1969/12/31/18:00:17.039000,(16 18 10 25 49 36 26 16)
1969/12/31/18:00:17.060000,(-12 -6 8 13 3 20 15 7)
1969/12/31/18:00:17.060000,(-9 -9 -12 -21 -27 -35 -32 -21)
1969/12/31/18:00:17.061000,(-32 -30 -11 -20 -48 -25 -6 -8)
1969/12/31/18:00:17.061000,(23 25 4 -5 7 7 16 15)
1969/12/31/18:00:17.084000,(-8 -25 -12 -33 -53 -33 -24 -11)
1969/12/31/18:00:17.084000,(2 1 -4 4 25 15 15 9)
1969/12/31/18:00:17.085000,(0 -1 -5 -4 7 5 5 1)
1969/12/31/18:00:17.085000,(-14 -2 7 29 22 10 -1 -10)
1969/12/31/18:00:17.098000,(-1 -6 7 9 19 6 2 3)
1969/12/31/18:00:17.098000,(4 1 -2 -6 -10 5 11 14)
1969/12/31/18:00:17.099000,(24 25 7 12 -1 -3 -3 5)
1969/12/31/18:00:17.099000,(-48 -45 -4 -4 3 -8 -12 -24)
1969/12/31/18:00:17.120000,(-30 -16 -8 -9 -16 -12 -8 -17)
1969/12/31/18:00:17.120000,(57 59 6 1 17 18 22 25)
1969/12/31/18:00:17.121000,(-14 -13 -6 -4 1 -8 -18 -23)
1969/12/31/18:00:17.121000,(31 19 2 -8 -20 -2 11 25)
1969/12/31/18:00:17.144000,(-11 -24 -2 1 2 3 4 3)
1969/12/31/18:00:17.144000,(-2 -6 -9 -12 -22 -19 -11 -6)
1969/12/31/18:00:17.145000,(15 24 6 -19 -5 -2 4 9)
1969/12/31/18:00:17.145000,(-17 -6 -10 -21 -7 -6 -11 -17)
1969/12/31/18:00:17.157000,(-16 -20 2 42 13 6 -7 -12)
1969/12/31/18:00:17.157000,(42 19 12 24 46 38 38 45)
1969/12/31/18:00:17.165000,(-7 0 7 33 15 17 12 -8)
1969/12/31/18:00:17.165000,(10 7 3 -22 -29 -21 -10 12)
1969/12/31/18:00:17.189000,(-4 4 -3 -8 -2 -2 3 -1)
1969/12/31/18:00:17.189000,(-24 -16 -5 -5 0 2 11 -4)
1969/12/31/18:00:17.189000,(13 5 -6 -5 -7 -22 -33 -12)
1969/12/31/18:00:17.190000,(-14 -13 -20 -34 -18 -7 -4 -13)
1969/12/31/18:00:17.204000,(12 17 1 -6 4 -1 1 2)
1969/12/31/18:00:17.204000,(-22 -20 10 27 9 10 0 -9)
1969/12/31/18:00:17.205000,(12 5 3 -6 1 9 19 19)
1969/12/31/18:00:17.205000,(0 6 -1 11 -13 -11 -16 -14)
1969/12/31/18:00:17.217000,(5 5 1 -6 12 -1 2 6)
1969/12/31/18:00:17.217000,(3 11 -9 -26 -36 -8 -6 -7)
1969/12/31/18:00:17.226000,(-9 -14 -9 -29 33 6 1 0)
1969/12/31/18:00:17.226000,(-1 3 4 9 -13 -5 -11 -8)
1969/12/31/18:00:17.240000,(5 5 7 42 9 6 6 4)
1969/12/31/18:00:17.240000,(9 4 14 21 26 19 19 20)
1969/12/31/18:00:17.249000,(-21 -16 1 -3 -18 -10 -10 -14)
1969/12/31/18:00:17.249000,(16 31 -10 -19 -17 -10 -8 -4)
1969/12/31/18:00:17.264000,(12 11 -10 -29 -7 -4 1 2)
1969/12/31/18:00:17.264000,(5 -1 -2 -1 -2 -8 -12 -2)
1969/12/31/18:00:17.265000,(-12 -21 -2 6 -6 -3 -5 -3)
1969/12/31/18:00:17.265000,(18 23 -4 -7 7 8 13 14)
1969/12/31/18:00:17.277000,(5 -5 -16 -74 -26 -15 1 6)
1969/12/31/18:00:17.277000,(4 4 9 45 13 6 -7 -4)
1969/12/31/18:00:17.286000,(-5 2 25 68 62 37 12 -1)
1969/12/31/18:00:17.286000,(-11 -7 18 59 61 28 7 -3)
1969/12/31/18:00:17.301000,(1 5 -8 -52 -50 -17 -9 -4)
1969/12/31/18:00:17.301000,(-12 -13 -12 -10 -6 -17 -4 -7)
1969/12/31/18:00:17.307000,(14 19 1 -11 -27 -11 -2 6)
1969/12/31/18:00:17.307000,(-34 -45 -2 3 -8 -11 -3 -9)
1969/12/31/18:00:17.324000,(63 68 17 13 15 17 19 33)
1969/12/31/18:00:17.324000,(-10 -17 -14 -31 -25 -22 -20 -11)
1969/12/31/18:00:17.325000,(10 4 -4 -1 -4 2 8 12)
1969/12/31/18:00:17.325000,(-11 -8 1 3 1 -6 -10 -9)
1969/12/31/18:00:17.337000,(5 0 3 12 6 7 12 16)
1969/12/31/18:00:17.337000,(-25 -22 -11 -4 1 -6 -22 -29)
1969/12/31/18:00:17.346000,(-5 0 -21 -92 -104 -58 -21 -10)
1969/12/31/18:00:17.346000,(6 -1 -17 -37 26 10 4 6)
1969/12/31/18:00:17.360000,(-33 -20 24 112 93 37 -3 -19)
1969/12/31/18:00:17.360000,(19 25 32 72 76 39 20 14)
1969/12/31/18:00:17.367000,(-14 -8 2 4 -9 1 -4 -13)
1969/12/31/18:00:17.367000,(-6 -19 -6 -36 -49 -20 11 18)
1969/12/31/18:00:17.384000,(12 17 -19 -44 -45 -28 -18 -9)
1969/12/31/18:00:17.384000,(-7 -10 -11 -31 -25 -15 -7 -3)
1969/12/31/18:00:17.390000,(-25 -30 -4 10 17 6 1 -11)
1969/12/31/18:00:17.390000,(65 49 18 18 10 17 21 43)
1969/12/31/18:00:17.397000,(-38 -32 -6 8 11 10 1 -11)
1969/12/31/18:00:17.397000,(-13 -9 -5 -18 -20 -5 3 -1)
1969/12/31/18:00:17.406000,(5 -1 -1 -2 5 -2 -5 -1)
1969/12/31/18:00:17.406000,(3 4 2 18 0 0 0 -5)
1969/12/31/18:00:17.420000,(-19 -23 -2 1 0 -1 -5 -12)
1969/12/31/18:00:17.420000,(27 41 6 -6 5 1 3 9)
1969/12/31/18:00:17.427000,(13 11 6 12 11 1 -8 11)
1969/12/31/18:00:17.427000,(-25 -24 -3 3 -4 -8 -16 -21)
1969/12/31/18:00:17.444000,(3 9 -5 -37 -34 -10 8 2)
1969/12/31/18:00:17.444000,(-4 -12 -5 1 -11 -4 -2 0)
1969/12/31/18:00:17.445000,(10 11 6 26 53 34 18 9)
1969/12/31/18:00:17.445000,(16 31 18 32 30 18 8 5)
1969/12/31/18:00:17.467000,(16 -10 6 0 -16 -7 -2 14)
1969/12/31/18:00:17.467000,(-4 -8 -8 -24 -10 -8 -7 -3)
1969/12/31/18:00:17.472000,(-5 2 -13 -48 -16 -9 -4 -3)
1969/12/31/18:00:17.472000,(8 1 1 31 -9 4 7 3)
1969/12/31/18:00:17.481000,(-14 -9 15 23 17 8 2 -14)
1969/12/31/18:00:17.481000,(14 21 6 5 10 -2 -7 3)
1969/12/31/18:00:17.483000,(-14 -12 -7 1 2 -3 -8 -17)
1969/12/31/18:00:17.483000,(-9 -12 -9 -31 -28 -9 1 -2)
1969/12/31/18:00:17.504000,(8 8 -6 -10 2 -6 3 8)
1969/12/31/18:00:17.504000,(-32 -21 -5 7 -2 -4 -6 -12)
1969/12/31/18:00:17.505000,(26 12 11 26 18 22 6 3)
1969/12/31/18:00:17.505000,(31 25 5 -1 20 2 -3 7)
1969/12/31/18:00:17.526000,(-7 3 -4 -2 -21 -10 -15 -19)
1969/12/31/18:00:17.526000,(-14 -22 -10 -25 -18 -14 -12 -10)
1969/12/31/18:00:17.528000,(-4 -2 -5 0 -8 -8 8 7)
1969/12/31/18:00:17.528000,(-11 -5 -6 -11 -28 -7 -5 -5)
1969/12/31/18:00:17.540000,(-6 -14 -7 -8 27 -1 -9 -3)
1969/12/31/18:00:17.540000,(11 8 6 41 23 14 15 7)
1969/12/31/18:00:17.549000,(2 5 9 37 18 10 4 4)
1969/12/31/18:00:17.549000,(-2 18 7 1 -5 -7 -13 -15)
1969/12/31/18:00:17.564000,(-33 -26 -16 -22 -24 -11 3 -10)
1969/12/31/18:00:17.564000,(61 34 1 -23 1 3 17 40)
1969/12/31/18:00:17.565000,(-17 6 7 4 -3 5 4 -14)
1969/12/31/18:00:17.565000,(-15 -25 -8 -7 -8 -8 -7 -6)
1969/12/31/18:00:17.586000,(7 26 1 1 2 -3 -12 -12)
1969/12/31/18:00:17.586000,(-17 -12 -1 0 -1 1 -3 -14)
1969/12/31/18:00:17.588000,(12 6 1 -2 -17 -5 4 12)
1969/12/31/18:00:17.588000,(-12 -6 -5 -9 13 -6 -10 -13)
1969/12/31/18:00:17.600000,(-8 -9 2 10 7 4 -4 -5)
1969/12/31/18:00:17.600000,(1 -4 -5 -17 -32 -8 0 3)
1969/12/31/18:00:17.609000,(10 6 -1 6 20 4 2 5)
1969/12/31/18:00:17.609000,(-18 -13 2 13 30 13 0 -6)
1969/12/31/18:00:17.624000,(5 2 5 13 7 8 3 4)
1969/12/31/18:00:17.624000,(-14 -7 -3 -6 -13 -5 -8 -8)
1969/12/31/18:00:17.625000,(-3 -8 -8 -16 -20 -11 1 0)
1969/12/31/18:00:17.625000,(-13 -30 -8 -8 -12 -9 -2 1)
1969/12/31/18:00:17.646000,(-37 -41 1 7 -3 -4 -6 -17)
1969/12/31/18:00:17.646000,(77 57 14 1 20 26 32 38)
1969/12/31/18:00:17.648000,(-6 -3 -3 -1 -3 -8 -13 -9)
1969/12/31/18:00:17.648000,(-2 -5 -1 -2 3 0 -2 -4)
1969/12/31/18:00:17.660000,(11 6 3 2 -5 -1 -1 5)
1969/12/31/18:00:17.660000,(-19 -16 -5 -11 -3 -4 -8 -13)
1969/12/31/18:00:17.669000,(-11 -20 -7 -3 3 -4 -9 -7)
1969/12/31/18:00:17.669000,(52 87 6 -8 -4 2 9 20)
1969/12/31/18:00:17.684000,(-2 1 5 12 4 4 4 1)
1969/12/31/18:00:17.684000,(-27 -12 -3 -2 -3 -8 -15 -22)
1969/12/31/18:00:17.690000,(20 10 -10 -34 -7 5 10 18)
1969/12/31/18:00:17.690000,(-20 -26 -6 18 -2 -12 -14 -11)
1969/12/31/18:00:17.706000,(30 29 6 6 -5 10 11 18)
1969/12/31/18:00:17.706000,(-25 -12 6 10 7 -10 -19 -28)
1969/12/31/18:00:17.708000,(-6 -8 -5 5 -7 -11 -13 -12)
1969/12/31/18:00:17.708000,(-17 -17 -9 -28 -10 1 4 -6)
1969/12/31/18:00:17.720000,(27 12 -11 -10 4 2 7 18)
1969/12/31/18:00:17.720000,(-16 -19 -7 -5 -9 -7 -9 -7)
1969/12/31/18:00:17.729000,(4 6 9 19 7 10 9 9)
1969/12/31/18:00:17.729000,(-2 1 1 0 6 1 -3 -6)
1969/12/31/18:00:17.744000,(-8 -6 -7 -32 -19 -11 -11 -9)
1969/12/31/18:00:17.744000,(-5 -6 -3 4 -21 -6 1 1)
1969/12/31/18:00:17.745000,(-6 0 13 53 32 4 4 -1)
1969/12/31/18:00:17.745000,(5 3 11 26 26 14 11 11)
1969/12/31/18:00:17.766000,(-9 -9 -5 -8 -8 -8 -8 -7)
1969/12/31/18:00:17.766000,(1 -8 -26 -87 -46 -18 1 6)
1969/12/31/18:00:17.768000,(12 7 2 14 16 17 9 10)
1969/12/31/18:00:17.768000,(-3 -1 19 25 22 26 10 0)
1969/12/31/18:00:17.780000,(-5 2 10 43 37 12 0 -2)
1969/12/31/18:00:17.780000,(-4 0 -3 -35 -34 -23 -15 -8)
1969/12/31/18:00:17.789000,(-9 -8 -8 -25 -38 -36 -11 -7)
1969/12/31/18:00:17.789000,(14 -1 -31 -48 -45 -22 3 11)
1969/12/31/18:00:17.804000,(-7 -10 -12 48 40 5 -4 -4)
1969/12/31/18:00:17.804000,(-9 -4 11 17 36 27 7 -1)
1969/12/31/18:00:17.805000,(-8 2 15 19 17 16 4 -5)
1969/12/31/18:00:17.805000,(-3 -2 10 -4 -3 2 3 -1)
1969/12/31/18:00:17.827000,(2 0 -2 -20 -19 -12 -2 -1)
1969/12/31/18:00:17.827000,(-1 -4 -6 23 6 -5 -2 0)
1969/12/31/18:00:17.832000,(2 -1 -3 -24 -9 0 2 4)
1969/12/31/18:00:17.832000,(-1 0 0 -7 -21 -10 -5 -1)
1969/12/31/18:00:17.840000,(6 4 -1 -33 -18 -5 1 3)
1969/12/31/18:00:17.840000,(3 5 8 -1 21 17 9 6)
1969/12/31/18:00:17.849000,(4 3 -4 19 -19 -8 -2 1)
1969/12/31/18:00:17.849000,(-4 -6 -7 -10 2 -6 -8 -5)
1969/12/31/18:00:17.864000,(-11 -13 -27 -89 -49 -31 -16 -8)
1969/12/31/18:00:17.864000,(-1 -5 -4 87 18 13 6 1)
1969/12/31/18:00:17.865000,(-3 0 24 49 21 6 -1 -2)
1969/12/31/18:00:17.865000,(-7 4 44 87 66 27 7 -5)
1969/12/31/18:00:17.886000,(4 6 5 12 21 20 8 3)
1969/12/31/18:00:17.886000,(-3 -3 -14 -63 -9 -1 2 1)
1969/12/31/18:00:17.888000,(2 1 -10 -39 -17 -5 -5 -1)
1969/12/31/18:00:17.888000,(5 -2 -3 -11 -29 -9 4 5)
1969/12/31/18:00:17.900000,(-4 -7 -21 -29 -3 -2 -1 -2)
1969/12/31/18:00:17.900000,(0 -2 0 13 -2 -13 -5 1)
1969/12/31/18:00:17.909000,(-5 -4 -9 -23 -12 -9 -8 -5)
1969/12/31/18:00:17.909000,(3 1 -12 -80 -25 0 2 2)
1969/12/31/18:00:17.924000,(4 11 43 60 -23 -18 -2 3)
1969/12/31/18:00:17.924000,(-1 5 -10 19 15 4 -5 -3)
1969/12/31/18:00:17.925000,(2 -7 -17 24 48 15 4 2)
1969/12/31/18:00:17.925000,(-12 -6 0 -38 -13 11 2 -7)
1969/12/31/18:00:17.946000,(-7 -11 -18 30 38 -3 -7 -5)
1969/12/31/18:00:17.946000,(-1 5 23 1 -11 4 5 -2)
1969/12/31/18:00:17.948000,(6 8 6 -67 -44 -15 -2 2)
1969/12/31/18:00:17.948000,(-5 -6 -25 27 28 -1 -3 -2)
1969/12/31/18:00:17.960000,(3 -2 -12 -26 -21 0 -1 1)
1969/12/31/18:00:17.960000,(1 5 45 39 10 4 3 5)
1969/12/31/18:00:17.969000,(1 5 -7 51 40 14 3 3)
1969/12/31/18:00:17.969000,(1 -7 -5 0 -13 -11 -4 -1)
1969/12/31/18:00:17.984000,(-12 -9 2 18 -3 -1 -7 -7)
1969/12/31/18:00:17.984000,(-1 -6 -21 -59 -16 -7 2 -1)
1969/12/31/18:00:17.985000,(3 3 -1 -56 -47 -11 -1 2)
1969/12/31/18:00:17.985000,(-1 -7 -14 3 16 0 -4 -3)
1969/12/31/18:00:18.006000,(-1 2 3 -7 11 10 4 3)
1969/12/31/18:00:18.006000,(0 0 -4 -8 5 2 -1 -1)
1969/12/31/18:00:18.008000,(-6 -5 1 -13 -40 -7 -3 -4)
1969/12/31/18:00:18.008000,(-1 -1 -5 35 21 -17 -10 -1)
1969/12/31/18:00:18.020000,(4 4 7 -11 10 15 4 3)
1969/12/31/18:00:18.020000,(-1 -1 1 10 20 10 4 3)
1969/12/31/18:00:18.029000,(0 1 2 32 10 8 3 2)
1969/12/31/18:00:18.029000,(-2 0 4 -16 2 -2 -4 -3)
1969/12/31/18:00:18.044000,(2 0 -5 4 -56 -14 -5 -1)
1969/12/31/18:00:18.044000,(-3 -5 -5 6 17 -2 -3 -3)
1969/12/31/18:00:18.050000,(-5 -6 -1 12 0 -7 -4 -4)
1969/12/31/18:00:18.050000,(-3 -1 -2 -5 -18 -6 -3 -2)
1969/12/31/18:00:18.066000,(-4 0 10 -5 2 -2 0 -4)
1969/12/31/18:00:18.066000,(3 2 0 0 5 2 0 0)
1969/12/31/18:00:18.068000,(-5 -6 -12 -33 4 -1 -3 -4)
1969/12/31/18:00:18.068000,(6 4 -11 -33 -56 -18 -2 4)
1969/12/31/18:00:18.090000,(2 4 5 -41 -22 -6 -3 -2)
1969/12/31/18:00:18.090000,(5 4 -3 90 43 9 8 6)
1969/12/31/18:00:18.092000,(0 -6 -11 -45 8 10 3 2)
1969/12/31/18:00:18.092000,(-5 1 13 -6 -5 -1 -1 -4)
1969/12/31/18:00:18.103000,(7 12 36 88 65 25 12 8)
1969/12/31/18:00:18.103000,(-3 -4 -11 -52 -31 -12 -4 -4)
1969/12/31/18:00:18.117000,(1 1 -5 7 2 -4 -3 -1)
1969/12/31/18:00:18.117000,(1 2 8 22 5 4 3 3)
1969/12/31/18:00:18.126000,(-5 -8 -15 -38 -4 -6 -3 -5)
1969/12/31/18:00:18.126000,(5 3 -12 -9 9 5 2 4)
1969/12/31/18:00:18.128000,(0 0 4 -1 -13 -8 -3 0)
1969/12/31/18:00:18.128000,(-7 -6 -9 -41 -22 -8 -7 -6)
1969/12/31/18:00:18.140000,(-3 -2 1 26 10 -2 -1 -3)
1969/12/31/18:00:18.140000,(4 4 10 31 12 -1 2 4)
1969/12/31/18:00:18.149000,(-2 -2 4 -12 -4 0 1 -3)
1969/12/31/18:00:18.149000,(2 -1 -4 -1 4 -4 -1 -1)
1969/12/31/18:00:18.163000,(1 2 6 41 33 6 1 3)
1969/12/31/18:00:18.163000,(-5 -5 -17 -57 -51 -11 -5 -5)
1969/12/31/18:00:18.170000,(3 2 -11 -20 -24 -7 -1 2)
1969/12/31/18:00:18.170000,(4 4 23 60 54 23 5 2)
1969/12/31/18:00:18.186000,(-6 -5 -8 -29 -5 -5 -5 -5)
1969/12/31/18:00:18.186000,(2 2 1 -11 -13 -4 0 2)
1969/12/31/18:00:18.188000,(-3 0 16 48 14 3 0 -4)
1969/12/31/18:00:18.188000,(3 -3 -25 -42 -34 -9 1 2)
1969/12/31/18:00:18.200000,(9 6 -14 -20 -4 7 9 6)
1969/12/31/18:00:18.200000,(-8 -2 33 51 41 7 -3 -5)
1969/12/31/18:00:18.209000,(-6 -4 6 -2 1 -2 -3 -5)
1969/12/31/18:00:18.209000,(1 0 -3 1 -10 0 -1 0)
1969/12/31/18:00:18.231000,(1 -3 -11 -23 -13 -5 -3 1)
1969/12/31/18:00:18.231000,(1 -3 -8 -3 -11 -3 1 1)
1969/12/31/18:00:18.233000,(1 -1 -5 -1 11 1 0 -1)
1969/12/31/18:00:18.233000,(0 0 0 -1 -2 1 0 1)
1969/12/31/18:00:18.246000,(-1 -1 -3 -12 -19 -3 -1 -2)
1969/12/31/18:00:18.246000,(-1 0 3 -17 -10 0 -2 -1)
1969/12/31/18:00:18.248000,(-2 -1 -3 7 3 -1 -2 -2)
1969/12/31/18:00:18.248000,(0 2 3 18 7 1 0 0)
1969/12/31/18:00:18.260000,(-3 -1 4 -10 -12 -3 -3 -2)
1969/12/31/18:00:18.260000,(-4 -1 -2 1 4 -1 -6 -4)
1969/12/31/18:00:18.269000,(0 1 -3 -12 -2 -2 2 1)
1969/12/31/18:00:18.269000,(5 2 0 10 -4 2 5 3)
1969/12/31/18:00:18.283000,(4 2 0 8 11 2 3 3)
1969/12/31/18:00:18.283000,(3 2 2 -3 -6 -3 -2 1)
1969/12/31/18:00:18.290000,(-4 1 11 22 13 5 1 -1)
1969/12/31/18:00:18.290000,(0 1 -4 -13 -2 -2 0 1)
1969/12/31/18:00:18.306000,(1 -2 -6 -4 -4 -2 2 0)
1969/12/31/18:00:18.306000,(-3 -4 -8 8 -7 -4 -4 -3)
1969/12/31/18:00:18.308000,(-3 -3 4 11 14 6 1 -2)
1969/12/31/18:00:18.308000,(1 4 11 18 20 7 3 2)
1969/12/31/18:00:18.329000,(4 4 -1 -3 -5 -2 0 3)
1969/12/31/18:00:18.329000,(-6 -7 -5 -10 -4 -5 -6 -7)
1969/12/31/18:00:18.330000,(-5 -4 -4 -12 -7 -6 -4 -5)
1969/12/31/18:00:18.330000,(4 3 -8 -10 -13 -6 -1 2)
1969/12/31/18:00:18.342000,(-2 -4 -2 3 2 2 1 1)
1969/12/31/18:00:18.342000,(6 2 -1 0 5 5 4 4)
1969/12/31/18:00:18.351000,(2 -2 -4 -3 -1 -3 -2 1)
1969/12/31/18:00:18.351000,(-6 -6 3 7 -4 0 -3 -7)
1969/12/31/18:00:18.366000,(-4 2 5 7 5 0 -1 -2)
1969/12/31/18:00:18.366000,(-4 -6 -3 -1 3 1 -2 -3)
1969/12/31/18:00:18.368000,(4 5 2 -2 -2 -1 4 3)
1969/12/31/18:00:18.368000,(-1 -3 -6 -5 -11 -5 -4 -2)
1969/12/31/18:00:18.389000,(0 -2 0 0 7 4 3 0)
1969/12/31/18:00:18.389000,(-2 1 6 2 11 4 -2 -3)
1969/12/31/18:00:18.390000,(-1 2 -2 3 1 0 2 2)
1969/12/31/18:00:18.390000,(3 2 -2 -1 2 1 0 3)
1969/12/31/18:00:18.402000,(-3 0 -2 5 -1 1 -4 -3)
1969/12/31/18:00:18.402000,(0 -1 -4 -7 -6 -3 0 0)
1969/12/31/18:00:18.411000,(1 -2 -1 -3 3 -2 -6 -3)
1969/12/31/18:00:18.411000,(1 -1 0 -1 0 2 3 4)
1969/12/31/18:00:18.427000,(0 -2 0 -1 -3 -2 1 0)
1969/12/31/18:00:18.427000,(1 3 -2 -3 -3 -2 -1 1)
1969/12/31/18:00:18.432000,(-2 -2 -3 -2 2 1 -3 -3)
1969/12/31/18:00:18.432000,(-4 -5 1 1 5 0 0 -2)
1969/12/31/18:00:18.449000,(0 0 2 0 -4 0 0 -3)
1969/12/31/18:00:18.449000,(1 0 -1 -1 -2 -3 -2 1)
1969/12/31/18:00:18.450000,(2 1 0 0 -9 -1 4 2)
1969/12/31/18:00:18.450000,(-2 -2 -3 -4 7 3 -2 -1)
1969/12/31/18:00:18.462000,(0 0 4 9 7 4 0 -1)
1969/12/31/18:00:18.462000,(-3 -2 -3 -2 -4 0 -1 -2)
1969/12/31/18:00:18.471000,(-3 -3 -2 -2 2 0 -5 -5)
1969/12/31/18:00:18.471000,(-3 -2 1 0 -4 -1 0 0)
1969/12/31/18:00:18.486000,(1 -1 -2 -5 -4 -4 -1 1)
1969/12/31/18:00:18.486000,(0 -1 0 -1 0 1 2 -1)
1969/12/31/18:00:18.492000,(2 1 -2 -2 -6 -2 3 3)
1969/12/31/18:00:18.492000,(2 1 2 4 3 1 -1 -1)
1969/12/31/18:00:18.509000,(-2 -3 -3 -2 -1 -1 -3 -1)
1969/12/31/18:00:18.509000,(-1 -1 -1 -2 -3 -1 0 1)
1969/12/31/18:00:18.510000,(1 2 -2 -2 0 -2 -2 1)
1969/12/31/18:00:18.510000,(-1 0 2 3 2 -1 -3 -4)
1969/12/31/18:00:18.522000,(-2 -1 -1 1 1 -1 0 1)
1969/12/31/18:00:18.522000,(-1 0 -1 0 -3 1 1 1)
1969/12/31/18:00:18.531000,(0 0 -1 0 0 0 1 1)
1969/12/31/18:00:18.531000,(-5 -2 0 3 4 3 -2 -2)
1969/12/31/18:00:18.546000,(0 0 0 1 -3 -1 -4 -3)
1969/12/31/18:00:18.546000,(1 1 -2 -2 -2 -1 1 0)
1969/12/31/18:00:18.548000,(0 -1 -3 -1 0 2 0 0)
1969/12/31/18:00:18.548000,(-1 1 2 2 1 -1 -2 -3)
1969/12/31/18:00:18.569000,(0 0 1 0 -1 -1 2 0)
1969/12/31/18:00:18.569000,(-2 -2 -1 -2 -3 -2 -2 -3)
1969/12/31/18:00:18.570000,(1 2 0 0 2 0 0 1)
1969/12/31/18:00:18.570000,(-2 -2 0 -2 -1 -2 -1 -2)
1969/12/31/18:00:18.583000,(-2 1 0 -2 -1 -1 -2 0)
1969/12/31/18:00:18.583000,(1 0 -1 -2 0 -1 -3 0)
1969/12/31/18:00:18.591000,(-2 -2 -2 -3 -3 -1 1 1)
1969/12/31/18:00:18.591000,(3 3 2 4 4 2 2 3)
1969/12/31/18:00:18.606000,(-3 -2 -4 -1 -2 -2 -2 -2)
1969/12/31/18:00:18.606000,(-2 -2 0 -3 -4 -4 -1 -2)
1969/12/31/18:00:18.608000,(0 -1 -1 -4 -2 1 2 0)
1969/12/31/18:00:18.608000,(0 -1 -4 -1 -3 -1 -2 -3)
1969/12/31/18:00:18.629000,(2 -1 -1 0 -1 1 4 4)
1969/12/31/18:00:18.629000,(1 2 3 2 4 3 -1 1)
1969/12/31/18:00:18.630000,(-1 0 0 0 -2 -1 -2 -2)
1969/12/31/18:00:18.630000,(-2 -1 -2 -1 0 0 -1 -2)
1969/12/31/18:00:18.642000,(-1 0 0 -1 -2 -1 -3 -1)
1969/12/31/18:00:18.642000,(-1 0 -3 1 0 -2 1 0)
1969/12/31/18:00:18.651000,(1 -1 -1 -2 -2 -1 3 2)
1969/12/31/18:00:18.651000,(-1 0 -1 -2 -2 -1 0 1)
1969/12/31/18:00:18.666000,(1 2 -1 -1 -1 -1 -2 -1)
1969/12/31/18:00:18.666000,(-2 -1 -2 0 -2 1 1 0)
1969/12/31/18:00:18.668000,(-1 0 -1 0 1 0 -2 -2)
1969/12/31/18:00:18.668000,(-1 -2 -1 -1 -2 -1 -1 0)
1969/12/31/18:00:18.689000,(-3 -2 0 1 0 -1 -2 -2)
1969/12/31/18:00:18.689000,(2 0 0 -2 1 1 3 0)
1969/12/31/18:00:18.695000,(0 -2 -2 -1 -1 -1 -2 -2)
1969/12/31/18:00:18.695000,(-1 -3 1 1 1 1 0 0)
1969/12/31/18:00:18.702000,(-2 -2 0 -2 -1 0 -4 -4)
1969/12/31/18:00:18.702000,(0 0 -1 -1 -2 -1 -4 -1)
1969/12/31/18:00:18.711000,(-2 1 -1 2 1 1 -1 -1)
1969/12/31/18:00:18.711000,(0 -1 0 0 2 1 3 2)
1969/12/31/18:00:18.726000,(0 2 2 -3 -1 -2 0 -2)
1969/12/31/18:00:18.726000,(0 -2 -2 -2 0 -2 1 1)
1969/12/31/18:00:18.728000,(0 1 0 0 0 -2 -1 0)
1969/12/31/18:00:18.728000,(-2 0 -1 1 -1 -2 -2 -1)
1969/12/31/18:00:18.749000,(0 -2 -1 0 0 0 2 1)
1969/12/31/18:00:18.749000,(-2 -1 0 1 1 2 -2 -2)
1969/12/31/18:00:18.750000,(0 0 3 1 0 -2 -1 2)
1969/12/31/18:00:18.750000,(-2 0 0 -2 -2 -3 -2 -4)
1969/12/31/18:00:18.762000,(-1 0 1 -1 -1 1 0 -2)
1969/12/31/18:00:18.762000,(-3 -1 0 0 0 -1 2 0)
1969/12/31/18:00:18.771000,(1 -3 -2 0 1 0 -1 -1)
1969/12/31/18:00:18.771000,(0 0 -2 -2 -3 -2 -1 0)
1969/12/31/18:00:18.786000,(0 3 0 1 0 0 -2 0)
1969/12/31/18:00:18.786000,(-1 -2 -3 -1 -2 -5 -2 -1)
1969/12/31/18:00:18.788000,(-4 -3 -3 -2 0 1 -2 -3)
1969/12/31/18:00:18.788000,(0 2 1 -1 1 -1 0 0)
1969/12/31/18:00:18.809000,(-2 -3 -3 -1 -1 -1 1 0)
1969/12/31/18:00:18.809000,(1 0 1 -2 1 0 -1 -2)
1969/12/31/18:00:18.810000,(2 1 1 -2 -2 -2 0 0)
1969/12/31/18:00:18.810000,(-1 -3 -2 0 0 1 -1 -1)
1969/12/31/18:00:18.822000,(1 1 -2 0 -1 -2 2 0)
1969/12/31/18:00:18.822000,(-1 -2 -1 0 0 -1 -1 -2)
1969/12/31/18:00:18.839000,(2 -1 0 -4 -4 -2 1 1)
1969/12/31/18:00:18.839000,(-2 -2 -2 -1 -1 0 -2 -2)
1969/12/31/18:00:18.845000,(-2 -1 0 2 4 2 1 -1)
1969/12/31/18:00:18.846000,(0 1 0 1 0 -2 2 2)
1969/12/31/18:00:18.852000,(-3 -1 -1 0 -2 1 -1 -3)
1969/12/31/18:00:18.852000,(1 1 -1 -1 -2 -1 -1 0)
1969/12/31/18:00:18.869000,(-2 -2 0 0 -1 -2 -1 -3)
1969/12/31/18:00:18.869000,(0 -1 -2 -2 -1 1 -1 -1)
1969/12/31/18:00:18.870000,(2 3 4 3 1 1 3 1)
1969/12/31/18:00:18.870000,(-1 -2 -2 -2 -2 -2 -1 -1)
1969/12/31/18:00:18.882000,(-3 -1 -1 1 0 1 -4 -3)
1969/12/31/18:00:18.882000,(-1 0 0 -1 -1 0 0 -2)
1969/12/31/18:00:18.891000,(-1 -2 -2 1 3 2 -4 -2)
1969/12/31/18:00:18.891000,(0 0 0 -1 0 0 0 0)
1969/12/31/18:00:18.906000,(0 -1 -2 -4 -3 -3 0 -1)
1969/12/31/18:00:18.906000,(0 -1 -1 -1 -2 0 -2 0)
1969/12/31/18:00:18.908000,(-1 0 -1 -1 -1 -3 -3 -3)
1969/12/31/18:00:18.908000,(0 1 2 1 0 -1 0 -1)
1969/12/31/18:00:18.929000,(3 -1 -2 -4 -1 0 1 3)
1969/12/31/18:00:18.929000,(-3 -1 -1 2 1 3 0 -1)
1969/12/31/18:00:18.930000,(-3 -2 0 1 0 0 -2 -1)
1969/12/31/18:00:18.930000,(2 -2 -3 -1 -2 1 4 2)
1969/12/31/18:00:18.943000,(-2 0 0 2 -1 -2 -1 -1)
1969/12/31/18:00:18.943000,(0 0 1 -2 0 -1 0 0)
1969/12/31/18:00:18.943000,(0 -1 1 0 -1 3 3 2)
1969/12/31/18:00:18.943000,(1 -1 2 1 0 -2 -1 1)
1969/12/31/18:00:18.944000,(-3 0 -1 -2 -2 -3 -2 -2)
1969/12/31/18:00:18.944000,(-1 0 1 0 -1 -1 0 0)
1969/12/31/18:00:18.957000,(1 1 0 1 0 -1 -1 -2)
1969/12/31/18:00:18.957000,(-1 0 0 -1 0 0 0 1)
1969/12/31/18:00:18.965000,(1 0 -1 -1 -1 0 0 0)
1969/12/31/18:00:18.965000,(-2 -1 -1 -2 -3 -1 -1 1)
1969/12/31/18:00:18.980000,(-1 0 0 0 1 2 1 0)
1969/12/31/18:00:18.980000,(-1 -1 -1 0 -1 -1 0 0)
1969/12/31/18:00:18.981000,(-1 1 1 3 2 2 1 0)
1969/12/31/18:00:18.981000,(0 0 -1 0 0 1 -2 -2)
1969/12/31/18:00:19.004000,(-1 0 -2 -1 -1 -2 -1 -3)
1969/12/31/18:00:19.004000,(1 -1 -4 -3 -1 0 -1 2)
1969/12/31/18:00:19.004000,(1 1 -1 0 -3 -1 0 1)
1969/12/31/18:00:19.004000,(1 0 1 0 0 -1 3 0)
1969/12/31/18:00:19.018000,(0 -1 -1 0 -1 -2 -1 -1)
1969/12/31/18:00:19.018000,(0 0 0 1 0 0 0 -1)
1969/12/31/18:00:19.018000,(0 -3 -3 -2 -2 -2 0 1)
1969/12/31/18:00:19.018000,(-1 1 0 -1 0 1 -2 1)
1969/12/31/18:00:19.040000,(-1 0 -2 -3 -4 -3 0 1)
1969/12/31/18:00:19.040000,(-2 -1 0 -1 2 -1 -2 -3)
1969/12/31/18:00:19.041000,(0 -1 0 -2 -1 1 0 1)
1969/12/31/18:00:19.041000,(-2 0 -2 0 -1 -1 -1 -2)
1969/12/31/18:00:19.063000,(-1 -2 -2 -2 0 0 0 0)
1969/12/31/18:00:19.063000,(-1 0 0 -1 0 -1 -2 0)
1969/12/31/18:00:19.064000,(0 -1 -2 0 -2 0 0 -1)
1969/12/31/18:00:19.064000,(0 -2 -1 -2 1 0 -1 -1)
1969/12/31/18:00:19.077000,(0 -1 1 1 1 0 -2 -1)
1969/12/31/18:00:19.077000,(0 2 2 0 1 0 3 1)
