time,.data
1969/12/31/18:00:03.589,(1 1 1 0 -1 -1 0 0)
1969/12/31/18:00:03.589,(1 -1 -2 -3 -3 -1 1 0)
1969/12/31/18:00:03.590,(-1 -1 2 1 1 -1 0 0)
1969/12/31/18:00:03.590,(-2 0 -2 0 -3 0 -2 -2)
1969/12/31/18:00:03.605,(0 -1 -3 -4 -3 -2 -1 -5)
1969/12/31/18:00:03.605,(-1 0 -1 -1 -2 -1 0 0)
1969/12/31/18:00:03.617,(0 -2 -2 1 -1 -1 -1 -3)
1969/12/31/18:00:03.617,(1 2 3 3 -1 -2 -1 -2)
1969/12/31/18:00:03.636,(-8 -13 -10 -5 -4 -3 -1 0)
1969/12/31/18:00:03.636,(-4 -7 -10 -11 -5 -2 -4 -4)
1969/12/31/18:00:03.639,(1 1 3 -7 -4 -2 -3 1)
1969/12/31/18:00:03.639,(2 5 -1 3 2 1 1 3)
1969/12/31/18:00:03.666,(0 4 2 5 0 -1 -1 3)
1969/12/31/18:00:03.666,(1 6 5 12 5 1 0 -1)
1969/12/31/18:00:03.668,(-1 -1 9 6 0 0 0 2)
1969/12/31/18:00:03.668,(-4 -5 -11 -13 -6 -3 -4 -2)
1969/12/31/18:00:03.683,(-5 -6 -4 -9 -5 -1 3 0)
1969/12/31/18:00:03.683,(-4 -13 -34 -29 -11 -9 -11 -7)
1969/12/31/18:00:03.694,(-1 -5 -26 -26 -8 5 2 -3)
1969/12/31/18:00:03.694,(5 15 61 61 16 9 6 4)
1969/12/31/18:00:03.713,(6 13 -7 -23 -2 -4 3 0)
1969/12/31/18:00:03.713,(-18 -27 3 21 0 -3 -3 -11)
1969/12/31/18:00:03.716,(6 8 2 30 16 5 6 5)
1969/12/31/18:00:03.716,(0 2 -35 -50 -9 0 -3 1)
1969/12/31/18:00:03.743,(10 20 55 31 1 -4 -2 3)
1969/12/31/18:00:03.743,(-17 -45 -89 -62 -19 -3 6 -3)
1969/12/31/18:00:03.744,(0 -5 14 -18 -9 -6 -7 -4)
1969/12/31/18:00:03.744,(2 12 10 39 16 9 7 6)
1969/12/31/18:00:03.760,(-18 -33 -15 -32 -1 -2 -7 -14)
1969/12/31/18:00:03.760,(24 41 17 46 13 6 9 18)
1969/12/31/18:00:03.771,(-13 -11 51 11 -7 -5 -8 -12)
1969/12/31/18:00:03.773,(3 3 -42 -92 -21 -3 -3 1)
1969/12/31/18:00:03.791,(4 8 54 85 12 4 -2 5)
1969/12/31/18:00:03.791,(4 6 18 42 21 11 5 5)
1969/12/31/18:00:03.793,(-7 -18 -72 -35 -5 0 -1 2)
1969/12/31/18:00:03.793,(1 2 10 17 -2 -9 -5 -2)
1969/12/31/18:00:03.820,(2 -2 -1 -23 -9 -6 2 5)
1969/12/31/18:00:03.820,(-4 -4 -15 -25 -6 -9 2 5)
1969/12/31/18:00:03.822,(-4 -18 -59 -28 -13 -19 -13 -9)
1969/12/31/18:00:03.822,(-10 -5 -4 -31 0 -10 -5 -10)
1969/12/31/18:00:03.838,(4 8 21 12 0 -3 6 10)
1969/12/31/18:00:03.838,(7 23 25 16 6 -1 -5 -7)
1969/12/31/18:00:03.850,(9 13 22 28 16 6 12 17)
1969/12/31/18:00:03.850,(-9 -33 -82 -40 -21 -13 -10 -12)
1969/12/31/18:00:03.869,(-6 -14 -49 -28 -6 6 -1 0)
1969/12/31/18:00:03.869,(-4 8 106 38 4 2 -2 -5)
1969/12/31/18:00:03.871,(11 35 56 88 31 14 -1 -5)
1969/12/31/18:00:03.872,(2 1 -9 -2 2 6 2 1)
1969/12/31/18:00:03.898,(-2 7 12 11 -6 -2 -6 -7)
1969/12/31/18:00:03.898,(-4 -12 -31 -63 -20 0 -1 -2)
1969/12/31/18:00:03.900,(-8 -17 -34 -31 -12 0 -3 -8)
1969/12/31/18:00:03.900,(8 11 40 62 17 8 5 4)
1969/12/31/18:00:03.916,(0 -4 -29 -30 -6 0 -5 -6)
1969/12/31/18:00:03.916,(-8 -12 -17 -13 -8 -3 -5 -6)
1969/12/31/18:00:03.927,(-2 0 9 -2 -5 -2 -1 0)
1969/12/31/18:00:03.927,(-4 -2 12 4 -1 -3 -4 -2)
1969/12/31/18:00:03.947,(-1 -6 -29 -14 -2 1 -2 -2)
1969/12/31/18:00:03.947,(1 5 13 11 4 1 -2 -3)
1969/12/31/18:00:03.948,(3 8 8 4 -1 0 2 2)
1969/12/31/18:00:03.948,(-4 -10 -6 -5 -4 0 0 0)
1969/12/31/18:00:03.975,(-2 0 -1 6 2 -1 -4 -6)
1969/12/31/18:00:03.975,(8 5 0 9 3 1 4 8)
1969/12/31/18:00:03.977,(15 8 -4 -17 -6 -1 2 4)
1969/12/31/18:00:03.977,(-17 -7 2 4 -2 -1 6 6)
1969/12/31/18:00:03.992,(5 -14 -12 -1 1 -7 -3 -3)
1969/12/31/18:00:03.992,(18 18 3 3 7 -6 -7 -1)
1969/12/31/18:00:04.003,(-22 -19 -20 -15 -4 -2 9 2)
1969/12/31/18:00:04.003,(29 -1 4 1 -4 -15 -13 10)
1969/12/31/18:00:04.023,(12 32 6 7 12 4 12 9)
1969/12/31/18:00:04.023,(-35 -38 -29 -27 -16 -24 -17 -1)
1969/12/31/18:00:04.032,(14 12 13 1 3 1 -7 -1)
1969/12/31/18:00:04.032,(-26 -4 11 13 9 17 7 6)
1969/12/31/18:00:04.052,(1 -5 -6 -9 -4 31 32 8)
1969/12/31/18:00:04.052,(25 21 9 0 -6 -13 -3 4)
1969/12/31/18:00:04.053,(-4 -8 -1 -2 -3 1 -3 4)
1969/12/31/18:00:04.053,(-32 -3 10 8 4 -12 -11 -8)
1969/12/31/18:00:04.069,(37 6 -11 -5 -5 5 22 23)
1969/12/31/18:00:04.069,(0 11 5 6 7 19 -2 -8)
1969/12/31/18:00:04.082,(-24 -35 -16 -12 -21 -61 -8 -22)
1969/12/31/18:00:04.082,(-2 -5 0 -1 2 29 1 -16)
1969/12/31/18:00:04.100,(-10 -1 3 3 3 16 -25 -7)
1969/12/31/18:00:04.100,(-13 0 1 2 -8 -14 16 12)
1969/12/31/18:00:04.102,(59 40 10 1 9 25 -2 9)
1969/12/31/18:00:04.102,(-7 -3 5 8 8 19 1 6)
1969/12/31/18:00:04.129,(-21 -23 -14 -9 -9 -10 -17 -8)
1969/12/31/18:00:04.129,(19 10 9 8 -2 -44 52 -10)
1969/12/31/18:00:04.132,(18 0 -4 -2 -1 23 -35 29)
1969/12/31/18:00:04.132,(7 16 11 6 6 -2 24 38)
1969/12/31/18:00:04.148,(5 0 -3 -3 -10 13 2 -10)
1969/12/31/18:00:04.148,(-46 -20 -9 -3 2 30 -25 -32)
1969/12/31/18:00:04.159,(-11 -3 -4 -4 -17 -23 26 1)
1969/12/31/18:00:04.159,(30 20 5 4 13 8 -8 -8)
1969/12/31/18:00:04.177,(-14 -23 -3 2 6 -21 -6 30)
1969/12/31/18:00:04.177,(-8 -17 -17 -11 -8 39 24 -29)
1969/12/31/18:00:04.186,(-12 6 11 9 7 -52 -61 -35)
1969/12/31/18:00:04.186,(5 1 -10 -7 -20 -64 -23 7)
1969/12/31/18:00:04.207,(0 8 0 -5 -8 10 -17 -26)
1969/12/31/18:00:04.207,(12 -13 -9 -5 8 70 25 44)
1969/12/31/18:00:04.208,(-22 -3 3 3 10 13 15 0)
1969/12/31/18:00:04.208,(-20 -13 -10 -11 -11 -5 -3 -50)
1969/12/31/18:00:04.236,(30 14 9 6 3 -17 -8 23)
1969/12/31/18:00:04.236,(43 57 22 8 2 -19 -13 4)
1969/12/31/18:00:04.238,(23 -20 -10 -4 -19 -47 2 38)
1969/12/31/18:00:04.238,(-39 -30 -10 -7 -1 -14 -20 -37)
1969/12/31/18:00:04.254,(-7 3 1 0 2 44 12 -5)
1969/12/31/18:00:04.254,(-21 -18 -6 -7 -14 -67 -59 -8)
1969/12/31/18:00:04.263,(59 41 8 6 11 21 55 78)
1969/12/31/18:00:04.263,(19 -2 -6 -15 -26 -26 -36 -11)
1969/12/31/18:00:04.284,(0 3 1 0 2 -28 1 34)
1969/12/31/18:00:04.284,(-18 -11 -14 -9 3 71 -11 -22)
1969/12/31/18:00:04.285,(-46 -30 -10 -5 2 -8 -2 -29)
1969/12/31/18:00:04.285,(30 26 10 6 6 37 74 47)
1969/12/31/18:00:04.312,(28 -1 -5 1 -1 -16 24 63)
1969/12/31/18:00:04.312,(-50 -23 -2 0 -2 -36 -45 -67)
1969/12/31/18:00:04.315,(-26 -6 -2 -8 -6 52 9 -24)
1969/12/31/18:00:04.315,(8 1 -4 -4 -5 -15 -20 5)
1969/12/31/18:00:04.332,(-32 -8 2 2 4 0 -4 -45)
1969/12/31/18:00:04.332,(8 6 -1 4 3 -24 -5 21)
1969/12/31/18:00:04.341,(1 -6 -7 -7 1 28 27 1)
1969/12/31/18:00:04.341,(10 3 21 17 10 13 -22 30)
1969/12/31/18:00:04.361,(-3 5 -5 -5 1 1 -3 -35)
1969/12/31/18:00:04.361,(-34 -15 -1 0 -1 30 17 -12)
1969/12/31/18:00:04.363,(-46 -14 -12 -11 -7 -14 -27 -115)
1969/12/31/18:00:04.363,(6 -16 -15 -9 -9 -19 34 -28)
1969/12/31/18:00:04.390,(-17 -3 3 -1 -8 -31 -59 -42)
1969/12/31/18:00:04.390,(-5 0 0 2 4 -2 -5 -5)
1969/12/31/18:00:04.392,(24 11 3 0 2 21 39 54)
1969/12/31/18:00:04.392,(-7 0 1 6 6 21 11 -4)
1969/12/31/18:00:04.408,(-6 -8 3 5 10 55 15 1)
1969/12/31/18:00:04.408,(9 -4 -6 -6 -12 -37 7 18)
1969/12/31/18:00:04.419,(67 26 11 7 5 5 -4 17)
1969/12/31/18:00:04.419,(-39 -35 -7 -5 -5 -5 10 11)
1969/12/31/18:00:04.439,(-12 18 -4 -5 0 0 -29 -43)
1969/12/31/18:00:04.439,(25 -2 4 4 14 49 8 22)
1969/12/31/18:00:04.441,(-31 2 1 2 -5 -29 -22 -35)
1969/12/31/18:00:04.441,(12 -2 -11 -6 -5 3 -5 8)
1969/12/31/18:00:04.467,(-26 2 9 7 -1 -22 15 7)
1969/12/31/18:00:04.467,(16 7 1 3 5 -5 6 38)
1969/12/31/18:00:04.470,(-24 -1 1 1 0 4 -28 -49)
1969/12/31/18:00:04.470,(87 22 6 2 6 10 22 58)
1969/12/31/18:00:04.486,(-38 -28 -13 -7 -4 10 -15 25)
1969/12/31/18:00:04.486,(0 -19 -9 -7 -13 -35 6 -3)
1969/12/31/18:00:04.494,(-21 3 5 0 2 15 17 25)
1969/12/31/18:00:04.495,(4 5 2 2 2 -3 -19 0)
1969/12/31/18:00:04.516,(32 11 3 6 8 -6 22 33)
1969/12/31/18:00:04.516,(-15 1 -4 -5 -6 1 11 -60)
1969/12/31/18:00:04.517,(-20 -4 -4 -5 -8 -15 -26 -32)
1969/12/31/18:00:04.517,(-20 1 -5 -2 0 -5 14 -26)
1969/12/31/18:00:04.546,(25 -2 -3 -5 -2 -11 2 -4)
1969/12/31/18:00:04.546,(22 9 2 -1 -11 -34 -21 23)
1969/12/31/18:00:04.547,(9 5 4 5 14 32 17 37)
1969/12/31/18:00:04.547,(-41 -16 -8 -7 -7 -9 -51 -82)
1969/12/31/18:00:04.562,(10 14 8 4 -1 -12 14 3)
1969/12/31/18:00:04.562,(-9 1 0 -1 -2 -19 -8 12)
1969/12/31/18:00:04.582,(-5 -15 -12 -7 0 46 -23 -35)
1969/12/31/18:00:04.582,(-4 12 6 5 8 49 38 70)
1969/12/31/18:00:04.593,(-24 -13 -8 -7 -8 -40 -32 -78)
1969/12/31/18:00:04.593,(25 10 7 9 9 -2 -12 5)
1969/12/31/18:00:04.594,(-3 -2 -5 -8 0 28 27 3)
1969/12/31/18:00:04.594,(-11 5 2 12 46 23 -8 -17)
1969/12/31/18:00:04.623,(20 5 0 -4 -51 -51 -7 -7)
1969/12/31/18:00:04.623,(-24 -9 -9 -20 -34 19 -3 -25)
1969/12/31/18:00:04.624,(-28 -1 7 3 0 -35 -4 -19)
1969/12/31/18:00:04.624,(2 -5 -6 -7 -13 -67 0 52)
1969/12/31/18:00:04.640,(-30 -37 -9 10 72 81 27 -39)
1969/12/31/18:00:04.640,(21 21 6 6 10 32 25 41)
1969/12/31/18:00:04.651,(-24 -13 -11 -23 -86 -97 -40 -20)
1969/12/31/18:00:04.651,(45 25 17 15 29 64 11 11)
1969/12/31/18:00:04.670,(-23 -5 -4 8 39 7 -21 -1)
1969/12/31/18:00:04.670,(26 23 3 3 -30 -9 16 18)
1969/12/31/18:00:04.672,(4 -25 -3 -3 -43 -42 4 44)
1969/12/31/18:00:04.672,(-44 -24 -18 -23 -43 -41 -18 -30)
1969/12/31/18:00:04.700,(22 20 10 2 9 33 15 -17)
1969/12/31/18:00:04.700,(-2 -16 2 7 42 29 0 -3)
1969/12/31/18:00:04.701,(10 5 4 21 66 41 31 26)
1969/12/31/18:00:04.701,(15 16 3 3 -11 -30 -16 -18)
1969/12/31/18:00:04.717,(-14 -33 -22 -21 -6 12 6 20)
1969/12/31/18:00:04.717,(-20 9 0 14 114 92 5 -17)
1969/12/31/18:00:04.728,(9 22 7 -10 -83 -67 -5 -2)
1969/12/31/18:00:04.728,(11 -4 -19 -34 -60 -62 -35 -16)
1969/12/31/18:00:04.748,(-13 -16 -4 -18 -6 -19 -13 -16)
1969/12/31/18:00:04.748,(3 6 17 1 -29 -23 6 8)
1969/12/31/18:00:04.750,(26 12 12 21 71 54 29 57)
1969/12/31/18:00:04.750,(-32 9 7 34 66 60 3 -34)
1969/12/31/18:00:04.777,(26 31 -5 -7 -46 -22 42 102)
1969/12/31/18:00:04.777,(-21 -16 21 13 -4 -27 -28 -42)
1969/12/31/18:00:04.779,(18 -10 -24 -1 63 61 2 -23)
1969/12/31/18:00:04.779,(65 17 -20 -31 -112 -90 -7 34)
1969/12/31/18:00:04.794,(-41 -29 22 28 27 41 9 3)
1969/12/31/18:00:04.794,(49 28 -53 -24 -1 -31 5 -1)
1969/12/31/18:00:04.806,(19 -36 19 13 66 39 6 86)
1969/12/31/18:00:04.806,(-53 -55 -26 -13 -37 -1 -2 -24)
1969/12/31/18:00:04.825,(-68 72 92 26 -31 -33 -17 -106)
1969/12/31/18:00:04.825,(-27 18 47 21 -17 2 -25 -31)
1969/12/31/18:00:04.826,(0 -74 -87 -54 -20 -10 -15 -37)
1969/12/31/18:00:04.828,(-9 -53 -48 -2 87 83 38 59)
1969/12/31/18:00:04.853,(71 12 -64 -28 4 10 -8 -3)
1969/12/31/18:00:04.853,(-24 -55 3 -28 -95 -103 -15 -25)
1969/12/31/18:00:04.856,(-60 19 91 39 -24 -32 -45 -78)
1969/12/31/18:00:04.856,(-12 19 11 10 2 24 -2 -26)
1969/12/31/18:00:04.871,(51 -50 -70 -8 94 73 23 3)
1969/12/31/18:00:04.871,(37 -21 -76 -25 -19 2 42 78)
1969/12/31/18:00:04.883,(-55 16 37 -35 -96 -89 -44 -28)
1969/12/31/18:00:04.883,(56 24 13 17 36 18 9 16)
1969/12/31/18:00:04.902,(51 113 127 52 11 -11 4 59)
1969/12/31/18:00:04.902,(15 -44 -96 -34 65 41 2 5)
1969/12/31/18:00:04.905,(87 15 -13 11 -38 -1 24 68)
1969/12/31/18:00:04.905,(-30 27 -9 -5 1 -6 -9 -35)
1969/12/31/18:00:04.931,(-19 -45 16 28 5 -9 -7 -45)
1969/12/31/18:00:04.931,(69 79 26 42 60 41 38 96)
1969/12/31/18:00:04.940,(37 91 78 32 -16 6 13 52)
1969/12/31/18:00:04.940,(-65 -21 36 1 34 -5 3 -38)
1969/12/31/18:00:04.949,(-4 -113 -108 -68 -53 -9 -8 41)
1969/12/31/18:00:04.949,(-20 13 57 7 -31 -37 -5 13)
1969/12/31/18:00:04.960,(-110 -29 -80 -52 -74 -75 -91 -128)
1969/12/31/18:00:04.960,(15 -10 -23 -3 21 20 27 24)
1969/12/31/18:00:04.980,(4 -20 -24 -8 0 -9 -17 60)
1969/12/31/18:00:04.980,(-19 -22 -36 -10 20 8 -34 -21)
1969/12/31/18:00:04.981,(46 39 23 12 63 40 32 44)
1969/12/31/18:00:04.981,(-73 -3 53 28 -8 -3 -13 -109)
1969/12/31/18:00:05.008,(-29 -22 -45 -25 -14 -16 1 -23)
1969/12/31/18:00:05.008,(15 47 93 31 5 4 3 22)
1969/12/31/18:00:05.011,(75 19 -17 2 18 24 30 24)
1969/12/31/18:00:05.011,(56 60 5 -9 5 18 13 75)
1969/12/31/18:00:05.026,(19 28 76 55 60 9 -14 -5)
1969/12/31/18:00:05.026,(-15 -15 -12 -5 -64 -29 -1 -23)
1969/12/31/18:00:05.038,(-26 -29 -36 -20 -10 12 13 0)
1969/12/31/18:00:05.038,(-45 -41 17 13 28 -4 -56 -66)
1969/12/31/18:00:05.057,(-9 -26 -55 -36 -30 -1 -9 -38)
1969/12/31/18:00:05.057,(-17 -28 -37 -11 -7 -31 -3 -32)
1969/12/31/18:00:05.058,(-41 -9 47 12 25 35 -3 -23)
1969/12/31/18:00:05.059,(-25 -73 -60 -28 -24 -18 12 14)
1969/12/31/18:00:05.087,(72 59 16 4 3 6 25 94)
1969/12/31/18:00:05.087,(-55 79 88 23 17 36 14 -40)
1969/12/31/18:00:05.088,(57 5 -48 -2 48 20 12 8)
1969/12/31/18:00:05.088,(11 -4 22 -8 -112 -68 -41 -5)
1969/12/31/18:00:05.103,(25 -66 -36 -4 2 15 21 37)
1969/12/31/18:00:05.103,(24 -23 -2 11 27 -19 -21 2)
1969/12/31/18:00:05.115,(-39 90 35 9 13 12 24 -7)
1969/12/31/18:00:05.115,(-41 7 26 13 41 16 -19 -48)
1969/12/31/18:00:05.135,(-25 -51 -38 -41 -121 -55 3 -9)
1969/12/31/18:00:05.135,(-24 -44 -47 -33 4 -12 -60 -83)
1969/12/31/18:00:05.164,(0 -34 -25 8 68 59 25 -1)
1969/12/31/18:00:05.164,(63 35 2 -5 -9 1 38 74)
1969/12/31/18:00:05.165,(-30 14 15 12 2 -24 -32 -53)
1969/12/31/18:00:05.165,(33 -57 -84 -23 -20 -5 27 40)
1969/12/31/18:00:05.168,(-100 -37 21 20 57 27 -18 -40)
1969/12/31/18:00:05.168,(15 58 47 1 -77 -54 -17 -12)
1969/12/31/18:00:05.181,(16 106 52 -4 -33 -31 -16 -7)
1969/12/31/18:00:05.181,(31 -68 -78 -22 14 13 27 69)
1969/12/31/18:00:05.192,(37 59 60 27 26 -4 -4 52)
1969/12/31/18:00:05.192,(-48 43 39 35 40 47 23 -4)
1969/12/31/18:00:05.211,(-40 -52 0 4 15 -13 4 -6)
1969/12/31/18:00:05.211,(-7 20 16 -8 -18 3 -28 -10)
1969/12/31/18:00:05.214,(36 -20 -33 7 60 25 33 8)
1969/12/31/18:00:05.214,(-13 -7 -21 -24 -44 3 -9 -49)
1969/12/31/18:00:05.240,(-77 1 11 -25 9 -43 6 -25)
1969/12/31/18:00:05.240,(-31 -30 -6 13 -4 -13 -8 -21)
1969/12/31/18:00:05.242,(38 -64 -71 -13 42 28 -23 -2)
1969/12/31/18:00:05.242,(-51 21 91 34 11 -13 5 -4)
1969/12/31/18:00:05.258,(15 8 -57 -3 44 73 41 24)
1969/12/31/18:00:05.258,(-12 16 -11 -13 -39 -1 20 -33)
1969/12/31/18:00:05.277,(-14 90 108 16 -100 -97 -49 -35)
1969/12/31/18:00:05.277,(51 -103 -128 -8 127 49 -6 33)
1969/12/31/18:00:05.289,(26 19 -31 -50 -50 -64 -38 -37)
1969/12/31/18:00:05.289,(-91 24 97 48 -36 -38 -23 -62)
1969/12/31/18:00:05.296,(44 -35 -71 -3 -2 24 24 33)
1969/12/31/18:00:05.296,(118 49 19 -1 -31 -3 36 74)
1969/12/31/18:00:05.317,(-8 -50 -18 -7 -3 16 -13 26)
1969/12/31/18:00:05.317,(1 -79 -72 -17 101 84 16 3)
1969/12/31/18:00:05.320,(-69 -3 21 12 -33 -17 11 -6)
1969/12/31/18:00:05.320,(-23 -50 -30 -10 -9 -41 -18 -33)
1969/12/31/18:00:05.335,(1 35 30 -5 -19 6 34 25)
1969/12/31/18:00:05.335,(48 41 -10 -5 -2 14 -7 22)
1969/12/31/18:00:05.347,(14 -43 4 6 -29 -22 -2 18)
1969/12/31/18:00:05.347,(22 70 51 2 6 37 12 21)
1969/12/31/18:00:05.365,(-44 -71 -12 12 24 19 -31 -52)
1969/12/31/18:00:05.365,(14 74 43 6 -73 -90 -25 24)
1969/12/31/18:00:05.374,(-13 -22 -7 -36 19 21 -10 -72)
1969/12/31/18:00:05.374,(-26 -3 -71 -10 6 -5 -8 -33)
1969/12/31/18:00:05.396,(59 7 33 39 15 10 16 -13)
1969/12/31/18:00:05.396,(-38 -72 -14 -15 26 36 22 -10)
1969/12/31/18:00:05.397,(-26 -23 -23 -38 -66 -70 -60 -51)
1969/12/31/18:00:05.397,(19 99 62 23 4 1 -19 5)
1969/12/31/18:00:05.412,(-39 19 -3 0 -69 -41 -29 -49)
1969/12/31/18:00:05.412,(56 11 -5 13 94 46 23 42)
1969/12/31/18:00:05.432,(-12 -77 -49 -33 -40 -10 33 37)
1969/12/31/18:00:05.432,(-18 -89 -68 -33 -11 1 -24 23)
1969/12/31/18:00:05.442,(0 -4 -24 -12 -22 -5 8 36)
1969/12/31/18:00:05.442,(66 56 38 36 24 14 14 29)
1969/12/31/18:00:05.451,(2 22 7 3 17 34 53 50)
1969/12/31/18:00:05.451,(4 65 78 22 -28 -16 1 9)
1969/12/31/18:00:05.472,(20 7 8 3 7 -20 -38 -75)
1969/12/31/18:00:05.472,(-19 -86 -70 -45 -44 0 29 39)
1969/12/31/18:00:05.474,(32 127 92 59 15 -1 4 17)
1969/12/31/18:00:05.474,(22 -117 -94 -18 41 30 17 -6)
1969/12/31/18:00:05.501,(-23 -2 9 6 6 13 9 23)
1969/12/31/18:00:05.501,(27 23 9 18 10 0 6 20)
1969/12/31/18:00:05.503,(-19 -112 -128 -48 30 49 7 -62)
1969/12/31/18:00:05.503,(-58 28 104 1 -91 -70 -57 -37)
1969/12/31/18:00:05.519,(42 38 -45 -15 3 -19 -1 -2)
1969/12/31/18:00:05.519,(-2 62 89 36 13 36 25 15)
1969/12/31/18:00:05.528,(32 0 7 33 61 20 -21 21)
1969/12/31/18:00:05.528,(-29 -49 -46 -63 -26 -6 24 -17)
1969/12/31/18:00:05.550,(-3 -86 -71 8 60 54 9 25)
1969/12/31/18:00:05.550,(-37 2 7 -5 -18 -4 17 13)
1969/12/31/18:00:05.552,(-9 42 -14 -9 -16 -30 -12 3)
1969/12/31/18:00:05.552,(40 -29 -85 -16 -12 3 11 40)
1969/12/31/18:00:05.579,(11 127 127 57 24 20 8 7)
1969/12/31/18:00:05.579,(-2 39 48 27 10 6 1 -18)
1969/12/31/18:00:05.581,(1 -91 -34 -7 -47 -26 -9 51)
1969/12/31/18:00:05.581,(-10 15 22 14 43 1 -15 -23)
1969/12/31/18:00:05.597,(-15 -120 -128 -53 -1 0 -11 4)
1969/12/31/18:00:05.597,(-26 16 8 -32 -54 -28 -3 -39)
1969/12/31/18:00:05.606,(-22 -7 -1 -11 -30 -27 -14 3)
1969/12/31/18:00:05.606,(45 -20 -30 34 86 51 8 3)
1969/12/31/18:00:05.628,(95 70 45 25 -7 14 45 75)
1969/12/31/18:00:05.628,(-41 20 56 -15 -101 -98 -77 -90)
1969/12/31/18:00:05.635,(-41 -69 -75 -31 2 29 14 -8)
1969/12/31/18:00:05.635,(-45 -15 -17 -7 64 15 27 -20)
1969/12/31/18:00:05.656,(5 13 -37 -3 10 10 -4 -5)
1969/12/31/18:00:05.656,(36 -20 -27 9 53 41 6 42)
1969/12/31/18:00:05.658,(-22 95 98 17 -31 -41 -23 -91)
1969/12/31/18:00:05.658,(74 -10 -35 13 -12 7 30 80)
1969/12/31/18:00:05.674,(-121 22 76 6 -19 -4 -10 -63)
1969/12/31/18:00:05.674,(38 77 61 4 -18 -38 -49 -40)
1969/12/31/18:00:05.683,(-48 -50 -16 0 -11 -3 -3 10)
1969/12/31/18:00:05.683,(8 -3 -12 -9 -23 5 -23 -46)
1969/12/31/18:00:05.704,(-12 -63 -39 -15 -64 -29 3 13)
1969/12/31/18:00:05.704,(19 -83 -84 -15 96 68 36 43)
1969/12/31/18:00:05.705,(21 54 31 12 18 -1 22 14)
1969/12/31/18:00:05.705,(-39 52 22 -11 -36 -57 -86 -71)
1969/12/31/18:00:05.743,(-42 -69 14 17 27 5 7 -17)
1969/12/31/18:00:05.743,(-26 25 -10 14 15 1 -4 21)
1969/12/31/18:00:05.743,(78 90 81 35 79 97 59 31)
1969/12/31/18:00:05.743,(-9 -10 -23 -54 -118 -104 -53 -14)
1969/12/31/18:00:05.751,(-6 87 82 24 13 -1 -20 -8)
1969/12/31/18:00:05.751,(12 -124 -117 -47 -5 8 10 22)
1969/12/31/18:00:05.760,(47 80 82 58 35 18 8 30)
1969/12/31/18:00:05.760,(19 -43 11 29 36 43 27 25)
1969/12/31/18:00:05.781,(-31 6 17 6 5 -6 -3 -11)
1969/12/31/18:00:05.781,(-11 -93 -58 -24 -19 -2 10 4)
1969/12/31/18:00:05.781,(8 -32 -74 -40 -64 -33 -18 -8)
1969/12/31/18:00:05.782,(13 30 7 -18 4 5 30 6)
1969/12/31/18:00:05.821,(76 47 -9 38 103 52 44 97)
1969/12/31/18:00:05.821,(-34 14 88 44 4 5 -14 4)
1969/12/31/18:00:05.821,(-69 -128 -128 -77 -31 -34 -41 -47)
1969/12/31/18:00:05.821,(42 60 18 20 -14 -19 15 17)
1969/12/31/18:00:05.828,(10 88 87 46 -7 -6 1 -7)
1969/12/31/18:00:05.828,(60 115 56 25 34 29 20 29)
1969/12/31/18:00:05.837,(-43 -59 -39 -39 -83 -58 -18 -28)
1969/12/31/18:00:05.837,(-16 -69 -52 -13 35 44 14 52)
1969/12/31/18:00:05.858,(-36 -8 1 -22 -20 -34 -35 -72)
1969/12/31/18:00:05.858,(44 63 -10 12 24 27 18 34)
1969/12/31/18:00:05.859,(8 77 127 64 54 46 -32 45)
1969/12/31/18:00:05.859,(21 -56 -51 -23 -57 -50 0 24)
1969/12/31/18:00:05.886,(-11 -29 -40 -49 -20 5 -5 -2)
1969/12/31/18:00:05.886,(-10 -49 -47 -23 -17 -18 -25 -54)
1969/12/31/18:00:05.888,(27 -51 -23 31 51 27 43 62)
1969/12/31/18:00:05.888,(-37 46 41 17 -19 21 10 -21)
1969/12/31/18:00:05.904,(5 -25 -16 -1 34 13 2 21)
1969/12/31/18:00:05.904,(5 7 20 -5 -80 -38 10 14)
1969/12/31/18:00:05.915,(8 -32 -77 -49 -6 -26 -20 -24)
1969/12/31/18:00:05.915,(-53 42 67 34 38 32 -4 -40)
1969/12/31/18:00:05.935,(-8 -66 -85 -40 -20 -20 5 -12)
1969/12/31/18:00:05.935,(8 77 74 41 4 13 3 20)
1969/12/31/18:00:05.937,(37 35 41 12 8 22 24 -36)
1969/12/31/18:00:05.937,(-38 -37 -7 -7 1 -5 -6 -19)
1969/12/31/18:00:05.964,(13 6 5 -14 -18 -38 -36 -10)
1969/12/31/18:00:05.964,(-36 -43 -55 -18 -19 -34 -22 -37)
1969/12/31/18:00:05.965,(22 54 39 18 34 9 -13 23)
1969/12/31/18:00:05.965,(-22 -54 -44 -22 94 54 49 17)
1969/12/31/18:00:05.983,(20 -22 -21 3 -10 21 19 3)
1969/12/31/18:00:05.983,(-12 -19 -14 -9 -20 -24 -25 -37)
1969/12/31/18:00:05.992,(19 19 -6 4 -21 -24 -2 -1)
1969/12/31/18:00:05.992,(19 8 -2 -10 -1 -14 -8 -8)
1969/12/31/18:00:06.014,(22 0 5 11 18 1 -2 24)
1969/12/31/18:00:06.014,(-55 -34 -38 -8 -2 -3 -7 -20)
1969/12/31/18:00:06.015,(-56 -72 -17 -18 -21 -9 0 -19)
1969/12/31/18:00:06.015,(98 110 95 57 36 28 21 59)
1969/12/31/18:00:06.041,(-6 39 72 22 -37 -11 14 4)
1969/12/31/18:00:06.041,(3 -47 -34 -41 -32 -11 -23 -17)
1969/12/31/18:00:06.042,(-113 -98 -86 -34 10 -16 -30 -56)
1969/12/31/18:00:06.042,(74 6 -23 -5 -30 -34 -4 8)
1969/12/31/18:00:06.060,(16 57 54 19 4 5 -3 0)
1969/12/31/18:00:06.060,(13 6 6 -15 -38 -12 7 4)
1969/12/31/18:00:06.069,(32 7 -12 10 53 18 17 46)
1969/12/31/18:00:06.069,(-42 -9 2 6 15 4 -20 -23)
1969/12/31/18:00:06.090,(-25 -44 -52 -34 25 13 6 -22)
1969/12/31/18:00:06.090,(-6 -7 -4 -10 9 20 -3 0)
1969/12/31/18:00:06.091,(-6 38 33 51 2 -24 -10 -9)
1969/12/31/18:00:06.091,(6 1 -10 -7 -35 15 22 3)
1969/12/31/18:00:06.118,(19 -13 -14 6 47 4 0 18)
1969/12/31/18:00:06.118,(6 9 9 -6 0 9 7 7)
1969/12/31/18:00:06.120,(41 26 8 -13 2 16 21 49)
1969/12/31/18:00:06.120,(34 -5 -4 -15 -7 -10 -5 26)
1969/12/31/18:00:06.148,(-85 -34 -17 2 -9 -21 -39 -80)
1969/12/31/18:00:06.149,(-30 -24 -5 -4 5 10 -28 -31)
1969/12/31/18:00:06.149,(26 31 15 4 -11 -7 13 39)
1969/12/31/18:00:06.149,(6 -22 -22 -12 -17 -32 -37 -40)
1969/12/31/18:00:06.178,(48 24 3 -10 -22 5 -4 54)
1969/12/31/18:00:06.178,(45 33 15 19 27 0 23 18)
1969/12/31/18:00:06.179,(-53 -22 -8 -6 -20 -18 -19 -49)
1969/12/31/18:00:06.179,(-10 -21 -1 1 1 16 9 8)
1969/12/31/18:00:06.196,(-50 6 5 4 -11 -5 -2 -44)
1969/12/31/18:00:06.196,(39 27 7 10 21 3 6 13)
1969/12/31/18:00:06.197,(-40 -23 -27 -27 -29 -6 -22 -42)
1969/12/31/18:00:06.197,(12 -13 9 6 -3 2 18 28)
1969/12/31/18:00:06.215,(-31 -42 -32 -18 -19 -11 -18 -15)
1969/12/31/18:00:06.215,(-58 -17 -6 -2 12 -2 4 -14)
1969/12/31/18:00:06.225,(46 51 36 15 2 14 26 37)
1969/12/31/18:00:06.225,(-63 -35 -25 -9 -5 18 -14 -55)
1969/12/31/18:00:06.244,(105 40 1 -3 -12 -33 14 37)
1969/12/31/18:00:06.244,(-116 -47 -8 -6 -3 -12 -19 -55)
1969/12/31/18:00:06.244,(4 -11 -18 -15 -19 -12 -10 -12)
1969/12/31/18:00:06.244,(13 29 27 22 15 12 17 43)
1969/12/31/18:00:06.273,(-54 -13 5 7 2 8 -24 -44)
1969/12/31/18:00:06.273,(94 55 21 14 10 9 31 48)
1969/12/31/18:00:06.274,(-42 -32 -29 -20 -18 -21 -28 -44)
1969/12/31/18:00:06.274,(14 8 6 7 7 10 5 12)
1969/12/31/18:00:06.292,(6 -8 -8 -14 -11 7 7 13)
1969/12/31/18:00:06.292,(6 3 -5 -5 1 -2 2 13)
1969/12/31/18:00:06.302,(44 30 18 19 7 8 -2 6)
1969/12/31/18:00:06.302,(-20 -4 1 7 1 -3 0 -9)
1969/12/31/18:00:06.322,(15 6 2 3 0 6 4 16)
1969/12/31/18:00:06.322,(-24 -23 -17 -19 -5 -7 -10 -14)
1969/12/31/18:00:06.323,(30 11 33 4 -3 6 13 39)
1969/12/31/18:00:06.323,(-17 2 -2 30 0 -10 -1 30)
1969/12/31/18:00:06.350,(24 13 17 13 11 7 8 1)
1969/12/31/18:00:06.350,(-28 -23 -29 -11 -1 -3 -7 -10)
1969/12/31/18:00:06.351,(24 5 -10 -15 -4 0 4 7)
1969/12/31/18:00:06.351,(-41 -25 -10 -25 -10 -8 -5 -11)
1969/12/31/18:00:06.371,(9 2 1 4 -4 -1 -1 5)
1969/12/31/18:00:06.371,(-31 -24 -19 -3 -2 -2 -2 -4)
1969/12/31/18:00:06.380,(33 34 28 4 0 -4 0 -2)
1969/12/31/18:00:06.380,(-44 -17 -6 -11 -4 -8 -10 -35)
1969/12/31/18:00:06.399,(23 9 -2 0 -2 4 5 19)
1969/12/31/18:00:06.399,(2 7 30 12 1 -3 -4 -16)
1969/12/31/18:00:06.399,(6 -16 -10 11 -2 -2 3 7)
1969/12/31/18:00:06.400,(-5 5 -2 -5 0 2 -2 -15)
1969/12/31/18:00:06.427,(-11 -26 -34 -28 -10 -7 -3 6)
1969/12/31/18:00:06.427,(-1 -3 -2 0 3 8 6 9)
1969/12/31/18:00:06.429,(-21 31 12 5 -1 -6 -10 -21)
1969/12/31/18:00:06.429,(6 -2 -19 -19 -12 -7 -12 -11)
1969/12/31/18:00:06.448,(-7 31 46 27 5 2 6 -2)
1969/12/31/18:00:06.448,(6 -28 -9 -3 2 0 2 0)
1969/12/31/18:00:06.457,(-3 -8 -5 -2 3 7 10 9)
1969/12/31/18:00:06.457,(-5 1 -8 -1 0 -6 2 -7)
1969/12/31/18:00:06.476,(25 11 -10 -13 -8 -8 -18 4)
1969/12/31/18:00:06.476,(15 41 31 20 8 -1 -7 1)
1969/12/31/18:00:06.478,(-7 -19 -11 -1 0 9 22 6)
1969/12/31/18:00:06.478,(-9 -45 -31 -17 -9 -6 -18 -21)
1969/12/31/18:00:06.506,(-3 47 63 20 6 4 13 14)
1969/12/31/18:00:06.506,(18 45 43 21 11 7 -5 -5)
1969/12/31/18:00:06.507,(6 -19 -13 4 -6 -8 11 1)
1969/12/31/18:00:06.507,(-4 26 28 16 9 8 -20 -6)
1969/12/31/18:00:06.536,(-8 -37 -30 -12 -8 -1 3 -2)
1969/12/31/18:00:06.536,(-5 -26 -40 -20 -10 -6 -1 -1)
1969/12/31/18:00:06.536,(-11 -37 -22 -19 -3 4 -2 -1)
1969/12/31/18:00:06.536,(11 24 -7 -14 -4 -1 10 10)
1969/12/31/18:00:06.554,(-16 -24 -10 -1 1 -1 -2 -8)
1969/12/31/18:00:06.554,(9 30 40 23 1 -5 0 -1)
1969/12/31/18:00:06.555,(2 14 0 8 9 6 -14 -8)
1969/12/31/18:00:06.555,(0 -32 -1 9 3 2 24 14)
1969/12/31/18:00:06.582,(2 9 -19 -14 -2 0 -9 6)
1969/12/31/18:00:06.582,(-16 -31 -29 -8 1 6 -3 -14)
1969/12/31/18:00:06.583,(-5 13 8 -7 -6 -4 2 -1)
1969/12/31/18:00:06.583,(5 17 7 -1 -4 -7 -18 -7)
1969/12/31/18:00:06.601,(-8 -21 -5 0 4 7 17 7)
1969/12/31/18:00:06.601,(6 -19 -36 -19 -8 -2 4 4)
1969/12/31/18:00:06.612,(3 29 29 16 2 -6 -24 -13)
1969/12/31/18:00:06.612,(-17 0 11 1 -1 0 10 -3)
1969/12/31/18:00:06.631,(-3 -13 -5 2 -4 3 2 -4)
1969/12/31/18:00:06.631,(-2 -24 -24 -16 -5 -2 0 5)
1969/12/31/18:00:06.631,(9 28 11 7 2 3 -2 -5)
1969/12/31/18:00:06.632,(3 7 10 11 0 -2 1 4)
1969/12/31/18:00:06.659,(-13 -24 -26 -16 -6 -4 -7 -5)
1969/12/31/18:00:06.659,(0 8 -6 0 -2 -3 -1 0)
1969/12/31/18:00:06.661,(-10 -14 -4 -16 -8 -3 7 1)
1969/12/31/18:00:06.661,(-6 10 -4 3 4 -3 -18 -7)
1969/12/31/18:00:06.690,(14 -18 -13 2 4 2 -3 2)
1969/12/31/18:00:06.690,(-2 -11 -3 7 1 1 5 0)
1969/12/31/18:00:06.690,(-12 10 22 1 -1 -4 -6 -5)
1969/12/31/18:00:06.690,(7 0 -5 -4 -2 2 6 5)
1969/12/31/18:00:06.708,(-11 -14 -4 -3 -4 -5 -6 -9)
1969/12/31/18:00:06.708,(3 18 -27 -24 -8 -6 1 3)
1969/12/31/18:00:06.708,(4 -12 22 14 4 0 3 5)
1969/12/31/18:00:06.708,(-13 -36 -8 -9 -5 0 4 1)
1969/12/31/18:00:06.737,(13 61 65 36 13 0 0 -3)
1969/12/31/18:00:06.737,(-17 -41 -28 -18 -10 -7 -16 -5)
1969/12/31/18:00:06.738,(-2 0 -38 -20 -8 -4 -4 -2)
1969/12/31/18:00:06.738,(12 22 -33 -15 -7 -3 5 10)
1969/12/31/18:00:06.767,(16 2 43 35 10 0 1 3)
1969/12/31/18:00:06.767,(-10 -9 25 12 5 0 3 -2)
1969/12/31/18:00:06.769,(8 1 3 4 2 -2 0 5)
1969/12/31/18:00:06.769,(-10 -3 10 0 1 -2 3 -1)
1969/12/31/18:00:06.785,(4 26 -7 -19 -6 -8 -1 2)
1969/12/31/18:00:06.785,(-1 4 6 -1 2 -1 0 -1)
1969/12/31/18:00:06.785,(4 -7 -18 -9 -1 -4 -5 2)
1969/12/31/18:00:06.787,(10 10 -7 -5 1 0 -1 -4)
1969/12/31/18:00:06.814,(-20 -35 -26 -7 -2 1 0 -5)
1969/12/31/18:00:06.814,(7 21 33 13 5 4 -12 -10)
1969/12/31/18:00:06.815,(1 22 16 9 1 0 -6 -7)
1969/12/31/18:00:06.815,(2 3 7 4 0 3 0 -5)
1969/12/31/18:00:06.845,(-6 -17 -18 -14 -5 2 -1 -3)
1969/12/31/18:00:06.845,(4 22 5 2 -3 1 -4 -6)
1969/12/31/18:00:06.845,(-9 -18 -16 -3 -3 4 2 -4)
1969/12/31/18:00:06.845,(7 0 14 12 3 1 -18 -18)
1969/12/31/18:00:06.845,(0 2 -1 -2 -2 0 1 2)
1969/12/31/18:00:06.845,(2 1 6 8 3 0 0 1)
1969/12/31/18:00:06.854,(-8 -12 -18 -16 -8 -4 -4 -6)
1969/12/31/18:00:06.854,(-1 -1 -7 -10 -2 -1 -4 -4)
1969/12/31/18:00:06.855,(1 6 6 7 4 3 6 3)
1969/12/31/18:00:06.855,(3 1 4 7 2 3 1 1)
1969/12/31/18:00:06.883,(-1 0 5 2 1 -2 -2 2)
1969/12/31/18:00:06.883,(-3 -1 -6 -5 -2 -4 -2 -1)
1969/12/31/18:00:06.885,(-2 -10 -13 -12 -5 -3 -3 -3)
1969/12/31/18:00:06.885,(-2 0 2 3 1 0 1 1)
1969/12/31/18:00:06.900,(-1 -3 -3 -8 -4 -1 -3 -5)
1969/12/31/18:00:06.900,(0 9 -11 -5 -2 -1 -1 0)
1969/12/31/18:00:06.912,(-2 -10 13 12 1 -1 1 1)
1969/12/31/18:00:06.912,(3 15 22 20 6 3 4 5)
1969/12/31/18:00:06.931,(0 1 -3 2 -1 -1 -3 -7)
1969/12/31/18:00:06.931,(1 0 -13 -18 -6 -2 -2 -2)
1969/12/31/18:00:06.934,(-4 -3 -27 -25 -9 -4 -3 -4)
1969/12/31/18:00:06.934,(-4 -8 -17 -10 -5 -3 -4 -5)
1969/12/31/18:00:06.959,(1 4 41 -1 -1 0 -1 0)
1969/12/31/18:00:06.959,(6 15 17 31 10 2 0 2)
1969/12/31/18:00:06.961,(0 -2 1 19 1 2 2 3)
1969/12/31/18:00:06.961,(-7 -16 -31 -31 -9 -4 -2 -4)
1969/12/31/18:00:06.988,(1 -2 -17 -8 -2 -3 -2 0)
1969/12/31/18:00:06.988,(-10 -28 -51 -67 -20 -7 -6 -7)
1969/12/31/18:00:06.989,(5 19 39 38 8 0 -1 1)
1969/12/31/18:00:06.989,(7 9 75 67 23 6 5 6)
1969/12/31/18:00:07.007,(-1 -10 -29 -29 -7 -2 0 3)
1969/12/31/18:00:07.007,(2 -23 28 55 12 5 5 4)
1969/12/31/18:00:07.008,(4 37 -63 -77 -16 -5 -2 -2)
1969/12/31/18:00:07.008,(-15 -16 -15 -35 -19 -6 -4 -7)
1969/12/31/18:00:07.037,(3 5 -69 -11 1 -2 0 0)
1969/12/31/18:00:07.037,(-6 -2 46 -9 -4 -1 -1 -3)
1969/12/31/18:00:07.037,(12 -7 82 75 12 5 5 7)
1969/12/31/18:00:07.037,(20 76 39 69 36 13 7 7)
1969/12/31/18:00:07.065,(-6 6 41 47 10 5 3 3)
1969/12/31/18:00:07.066,(4 -10 -107 -78 -21 -9 -4 -1)
1969/12/31/18:00:07.066,(13 20 20 4 -4 -3 -4 -1)
1969/12/31/18:00:07.066,(-14 -54 7 5 0 -2 -1 -1)
1969/12/31/18:00:07.087,(-2 0 4 11 0 0 0 -1)
1969/12/31/18:00:07.087,(-18 -5 -16 0 0 -3 -1 -5)
1969/12/31/18:00:07.088,(-3 -24 -34 -50 -15 -8 -6 -5)
1969/12/31/18:00:07.088,(-5 -13 -41 -30 -15 -12 -9 -8)
1969/12/31/18:00:07.114,(-12 -12 -34 -53 -12 -3 -2 -5)
1969/12/31/18:00:07.114,(-2 12 73 31 10 4 0 0)
1969/12/31/18:00:07.115,(-2 6 21 47 16 13 4 4)
1969/12/31/18:00:07.115,(11 -1 -39 -27 -7 3 -2 2)
1969/12/31/18:00:07.142,(3 -5 -10 5 0 -5 -4 -2)
1969/12/31/18:00:07.142,(11 29 84 36 14 2 7 9)
1969/12/31/18:00:07.144,(-11 -20 -46 -24 -3 -11 -1 -4)
1969/12/31/18:00:07.144,(-5 -1 -7 -18 -8 -11 -4 -7)
1969/12/31/18:00:07.162,(6 -4 -6 -8 -4 2 4 -2)
1969/12/31/18:00:07.162,(-9 -7 -12 6 -10 -23 -16 -10)
1969/12/31/18:00:07.163,(12 8 6 -2 0 39 -1 -1)
1969/12/31/18:00:07.163,(-11 -13 -11 -12 -14 -1 -2 -2)
1969/12/31/18:00:07.191,(11 1 11 5 0 9 2 2)
1969/12/31/18:00:07.191,(12 12 0 16 5 -18 -9 7)
1969/12/31/18:00:07.193,(-2 -5 -5 -6 0 -27 -13 6)
1969/12/31/18:00:07.193,(-4 -2 -16 -21 -8 -33 12 0)
1969/12/31/18:00:07.220,(-6 -5 15 14 3 -11 -27 -8)
1969/12/31/18:00:07.220,(19 25 -4 -2 3 -26 1 8)
1969/12/31/18:00:07.221,(-23 -21 -12 -7 3 -5 -13 -9)
1969/12/31/18:00:07.221,(-22 -15 2 2 8 63 27 -1)
1969/12/31/18:00:07.239,(17 13 17 10 3 -32 -14 3)
1969/12/31/18:00:07.239,(11 3 -8 -8 -7 42 14 8)
1969/12/31/18:00:07.240,(-30 -11 3 -2 -2 -10 16 -5)
1969/12/31/18:00:07.240,(0 -3 6 -7 -10 -4 19 0)
1969/12/31/18:00:07.269,(-23 3 17 13 2 11 -34 -18)
1969/12/31/18:00:07.269,(40 9 -7 -2 4 -4 -12 4)
1969/12/31/18:00:07.270,(2 3 5 2 -11 5 -44 -29)
1969/12/31/18:00:07.270,(-3 5 5 1 5 26 11 -15)
1969/12/31/18:00:07.297,(-20 -26 -8 0 10 29 -42 -10)
1969/12/31/18:00:07.297,(-4 1 -2 9 -8 -22 65 23)
1969/12/31/18:00:07.298,(-26 -20 -8 -3 -1 13 -1 -15)
1969/12/31/18:00:07.298,(8 15 6 -1 -24 -44 -38 -17)
1969/12/31/18:00:07.316,(43 23 6 7 54 36 48 10)
1969/12/31/18:00:07.316,(-57 -29 -10 -4 -3 0 -62 -10)
1969/12/31/18:00:07.317,(36 13 -2 -3 0 -22 11 -2)
1969/12/31/18:00:07.317,(4 2 -1 1 -8 4 -2 51)
1969/12/31/18:00:07.346,(-10 4 5 -1 -10 37 60 3)
1969/12/31/18:00:07.346,(2 -10 -8 -5 -12 -57 -57 -6)
1969/12/31/18:00:07.347,(3 2 -2 -5 6 39 32 -17)
1969/12/31/18:00:07.347,(48 10 5 2 0 -28 -20 31)
1969/12/31/18:00:07.374,(-44 -16 -9 -6 -15 -6 -18 -21)
1969/12/31/18:00:07.374,(-4 -4 -8 -7 2 -6 21 -13)
1969/12/31/18:00:07.375,(13 -5 -3 -8 -9 43 -4 41)
1969/12/31/18:00:07.375,(-12 -7 -1 5 7 -49 2 -38)
1969/12/31/18:00:07.393,(-42 -12 -9 -8 -6 27 5 4)
1969/12/31/18:00:07.393,(-2 4 -1 -2 -12 -16 14 3)
1969/12/31/18:00:07.395,(-2 -3 -4 -1 2 -40 -47 -33)
1969/12/31/18:00:07.395,(-12 -7 -3 -2 9 87 7 -15)
1969/12/31/18:00:07.423,(19 8 5 -1 -17 -76 19 25)
1969/12/31/18:00:07.423,(-5 1 -1 -2 4 25 3 -14)
1969/12/31/18:00:07.424,(15 11 7 5 0 42 3 -4)
1969/12/31/18:00:07.424,(-32 -3 -4 -6 -23 -31 -31 -20)
1969/12/31/18:00:07.451,(-14 -15 -10 -2 2 -23 8 -24)
1969/12/31/18:00:07.451,(12 -1 3 3 6 25 -29 -25)
1969/12/31/18:00:07.453,(-5 5 4 3 12 38 13 -17)
1969/12/31/18:00:07.453,(19 5 -3 -5 -15 -21 -8 12)
1969/12/31/18:00:07.471,(29 11 10 3 -2 12 34 39)
1969/12/31/18:00:07.471,(-17 -2 4 4 7 19 -10 -47)
1969/12/31/18:00:07.472,(-2 -2 -8 -8 -10 -43 14 6)
1969/12/31/18:00:07.472,(0 -7 -9 -8 3 -18 11 16)
1969/12/31/18:00:07.500,(7 15 17 11 -9 -6 -27 -33)
1969/12/31/18:00:07.500,(-29 -35 -22 -15 4 24 25 13)
1969/12/31/18:00:07.502,(9 12 14 10 3 -34 12 64)
1969/12/31/18:00:07.502,(5 9 0 -2 7 6 11 -4)
1969/12/31/18:00:07.518,(31 17 5 6 -2 2 0 -7)
1969/12/31/18:00:07.518,(-34 -27 -10 -6 -6 23 2 -14)
1969/12/31/18:00:07.529,(-27 -14 -10 -9 -2 -10 -5 9)
1969/12/31/18:00:07.529,(-3 -3 3 8 3 -21 -20 -23)
1969/12/31/18:00:07.548,(9 11 1 0 6 59 23 24)
1969/12/31/18:00:07.548,(32 8 0 -2 -3 -14 11 50)
1969/12/31/18:00:07.549,(-29 -15 -12 -12 -12 12 29 16)
1969/12/31/18:00:07.549,(34 13 3 5 22 3 -72 25)
1969/12/31/18:00:07.578,(-37 -22 -11 -10 -7 4 -3 -62)
1969/12/31/18:00:07.578,(17 14 10 5 -12 -41 16 20)
1969/12/31/18:00:07.578,(11 2 -2 4 20 2 35 25)
1969/12/31/18:00:07.578,(-9 -4 -2 -4 -1 19 7 -17)
1969/12/31/18:00:07.596,(39 9 7 9 6 -2 28 90)
1969/12/31/18:00:07.596,(-29 -13 -9 -9 -13 -28 -29 -53)
1969/12/31/18:00:07.605,(29 24 14 9 3 21 -1 4)
1969/12/31/18:00:07.605,(-49 -40 -19 -10 -1 53 21 -57)
1969/12/31/18:00:07.625,(22 11 8 0 -2 -34 -32 23)
1969/12/31/18:00:07.625,(16 12 -6 -6 -6 7 23 -11)
1969/12/31/18:00:07.627,(-1 -16 -2 0 -4 -5 -21 -20)
1969/12/31/18:00:07.627,(14 8 10 6 9 -1 15 41)
1969/12/31/18:00:07.655,(-17 -22 -18 -16 -15 18 12 -46)
1969/12/31/18:00:07.655,(0 8 7 5 6 8 -2 2)
1969/12/31/18:00:07.655,(18 8 -1 -1 -9 -54 -12 17)
1969/12/31/18:00:07.655,(10 5 5 6 8 -6 5 -45)
1969/12/31/18:00:07.683,(-1 -6 -3 -3 -3 -19 4 0)
1969/12/31/18:00:07.683,(11 7 6 6 7 14 28 78)
1969/12/31/18:00:07.685,(-41 -19 -7 -2 0 3 0 -27)
1969/12/31/18:00:07.685,(8 6 2 0 -9 -30 29 25)
1969/12/31/18:00:07.703,(33 10 1 0 1 26 -31 9)
1969/12/31/18:00:07.703,(-23 1 8 7 14 11 -14 -15)
1969/12/31/18:00:07.704,(-46 -24 -22 -21 -5 55 -55 -67)
1969/12/31/18:00:07.704,(-20 -2 -4 -5 -15 -68 -27 -8)
1969/12/31/18:00:07.732,(-36 -23 -9 -9 -17 -30 12 10)
1969/12/31/18:00:07.732,(20 5 3 1 6 31 4 -24)
1969/12/31/18:00:07.733,(-7 -12 -6 -6 -9 -11 -16 -48)
1969/12/31/18:00:07.733,(17 16 2 -1 2 23 11 7)
1969/12/31/18:00:07.761,(-15 5 3 7 12 17 24 36)
1969/12/31/18:00:07.761,(-31 -29 -21 -19 -25 -70 -68 -67)
1969/12/31/18:00:07.762,(39 22 14 10 5 -9 14 0)
1969/12/31/18:00:07.762,(-22 -16 -11 -9 -9 -9 -19 -60)
1969/12/31/18:00:07.780,(-39 -16 -8 -7 4 44 -11 -27)
1969/12/31/18:00:07.780,(39 24 11 9 3 -16 34 60)
1969/12/31/18:00:07.781,(-20 2 -2 -3 1 10 -6 16)
1969/12/31/18:00:07.781,(-14 -28 -15 -10 -5 18 28 76)
1969/12/31/18:00:07.809,(0 8 8 5 7 -5 -25 -25)
1969/12/31/18:00:07.809,(64 20 8 4 5 -9 15 23)
1969/12/31/18:00:07.811,(-53 -26 -12 -9 -6 18 -40 -6)
1969/12/31/18:00:07.811,(-23 20 10 7 1 -2 10 6)
1969/12/31/18:00:07.839,(-25 -42 -23 -19 -14 -17 43 23)
1969/12/31/18:00:07.839,(-20 6 -4 -3 -5 4 -20 -38)
1969/12/31/18:00:07.840,(44 18 8 8 0 -19 48 63)
1969/12/31/18:00:07.840,(-7 -3 3 4 4 7 -24 22)
1969/12/31/18:00:07.857,(4 -2 -5 -5 -4 -23 -23 -56)
1969/12/31/18:00:07.857,(-34 -18 -11 -10 -6 28 25 -5)
1969/12/31/18:00:07.858,(0 3 7 4 2 -3 -1 -18)
1969/12/31/18:00:07.858,(-12 -31 -16 -10 -1 23 3 -6)
1969/12/31/18:00:07.887,(38 35 14 8 -10 -59 -4 9)
1969/12/31/18:00:07.887,(38 4 5 5 9 16 5 48)
1969/12/31/18:00:07.888,(18 -4 -7 -4 -7 -53 -21 26)
1969/12/31/18:00:07.888,(34 22 16 16 15 -22 16 46)
1969/12/31/18:00:07.916,(24 18 7 7 1 -42 -22 42)
1969/12/31/18:00:07.916,(-36 -21 -13 -8 -1 60 36 -7)
1969/12/31/18:00:07.918,(70 40 16 11 8 -16 37 68)
1969/12/31/18:00:07.918,(-56 -18 -5 -2 -6 -16 -28 -85)
1969/12/31/18:00:07.934,(-36 -23 -13 -11 -15 11 -3 -8)
1969/12/31/18:00:07.934,(1 23 17 11 9 -7 -57 -47)
1969/12/31/18:00:07.936,(-16 -10 -5 -4 2 25 30 8)
1969/12/31/18:00:07.936,(19 -4 -3 -4 -3 14 26 66)
1969/12/31/18:00:07.964,(17 10 4 4 5 16 -7 -20)
1969/12/31/18:00:07.964,(-7 -9 -4 3 3 -3 -5 -26)
1969/12/31/18:00:07.965,(10 19 6 17 57 63 -17 -3)
1969/12/31/18:00:07.965,(11 -22 1 -12 -53 -35 -16 -13)
1969/12/31/18:00:07.994,(-22 -5 -5 -15 -40 -73 -68 -36)
1969/12/31/18:00:07.994,(18 5 6 5 3 2 19 53)
1969/12/31/18:00:07.995,(-4 12 11 12 -8 4 6 -23)
1969/12/31/18:00:07.995,(-23 9 2 6 12 -6 1 -49)
1969/12/31/18:00:08.012,(26 3 1 11 61 25 1 77)
1969/12/31/18:00:08.012,(-82 -44 -31 -47 -57 -19 -51 -76)
1969/12/31/18:00:08.013,(3 2 -5 -19 -23 -26 15 20)
1969/12/31/18:00:08.013,(7 8 7 1 -55 -42 -35 -9)
1969/12/31/18:00:08.041,(10 1 5 4 12 -2 8 -27)
1969/12/31/18:00:08.041,(34 29 17 23 45 28 21 45)
1969/12/31/18:00:08.043,(10 -17 -15 -1 43 36 20 21)
1969/12/31/18:00:08.043,(24 31 2 6 33 5 -8 -28)
1969/12/31/18:00:08.071,(-14 -40 16 2 -61 -11 12 11)
1969/12/31/18:00:08.071,(33 20 2 17 57 19 -23 21)
1969/12/31/18:00:08.072,(-32 -28 8 3 -16 -5 2 -2)
1969/12/31/18:00:08.072,(14 -1 -11 -26 -33 0 13 17)
1969/12/31/18:00:08.089,(-35 7 -19 -13 -50 -12 -18 -73)
1969/12/31/18:00:08.089,(-25 -23 -7 -19 -37 -28 18 39)
1969/12/31/18:00:08.090,(24 34 12 20 62 -5 0 13)
1969/12/31/18:00:08.090,(-19 -16 20 11 -7 28 11 -8)
1969/12/31/18:00:08.119,(-12 -43 -26 -4 66 98 37 12)
1969/12/31/18:00:08.119,(16 13 -23 -9 -15 -15 24 43)
1969/12/31/18:00:08.120,(33 37 -13 -25 -111 -89 -40 -33)
1969/12/31/18:00:08.120,(4 -30 6 -1 52 17 -19 -1)
1969/12/31/18:00:08.148,(-16 5 15 -1 -44 -5 10 -4)
1969/12/31/18:00:08.148,(-31 16 60 41 17 20 13 -16)
1969/12/31/18:00:08.150,(57 -26 -50 -13 35 32 14 53)
1969/12/31/18:00:08.150,(-74 -55 -38 -31 -32 -43 -48 -91)
1969/12/31/18:00:08.166,(-38 50 9 25 52 24 4 -8)
1969/12/31/18:00:08.166,(11 -95 -73 -32 -25 -27 -26 -61)
1969/12/31/18:00:08.168,(-112 34 74 18 23 39 10 -98)
1969/12/31/18:00:08.168,(82 101 52 53 41 27 9 96)
1969/12/31/18:00:08.196,(7 -38 -23 -14 6 -28 23 31)
1969/12/31/18:00:08.196,(7 1 12 0 -47 -42 0 -1)
1969/12/31/18:00:08.197,(-3 -126 -128 -90 -95 -55 -66 -61)
1969/12/31/18:00:08.197,(-19 18 5 2 45 50 34 17)
1969/12/31/18:00:08.226,(77 120 114 60 29 -2 -47 14)
1969/12/31/18:00:08.226,(65 28 -12 7 41 33 38 77)
1969/12/31/18:00:08.227,(-16 -12 6 11 14 5 -9 -56)
1969/12/31/18:00:08.227,(73 46 -11 10 26 18 11 49)
1969/12/31/18:00:08.245,(35 -97 -108 -32 33 0 4 8)
1969/12/31/18:00:08.245,(-61 54 70 9 -69 -19 -34 -54)
1969/12/31/18:00:08.245,(37 49 -27 -30 -52 -69 -23 26)
1969/12/31/18:00:08.245,(-83 -81 25 10 20 6 -20 -67)
1969/12/31/18:00:08.273,(40 25 -7 -4 33 51 33 69)
1969/12/31/18:00:08.273,(-35 -80 -40 -12 10 -11 -18 -67)
1969/12/31/18:00:08.273,(13 74 75 54 23 22 47 107)
1969/12/31/18:00:08.274,(17 44 5 2 -10 -19 -32 -69)
1969/12/31/18:00:08.303,(19 -62 -47 -16 28 59 46 73)
1969/12/31/18:00:08.303,(37 -17 -37 -13 15 2 13 29)
1969/12/31/18:00:08.304,(-33 20 25 -26 -91 -45 35 66)
1969/12/31/18:00:08.304,(4 -69 -54 -36 -28 -23 0 25)
1969/12/31/18:00:08.321,(-37 -54 18 -1 15 -9 -20 -34)
1969/12/31/18:00:08.321,(28 69 -5 11 57 16 7 24)
1969/12/31/18:00:08.322,(-42 18 59 36 -20 -24 7 -33)
1969/12/31/18:00:08.322,(28 -21 -57 -23 -4 24 23 47)
1969/12/31/18:00:08.350,(-34 20 -14 -27 -40 -31 -38 -87)
1969/12/31/18:00:08.350,(-18 30 15 24 33 51 40 22)
1969/12/31/18:00:08.352,(18 -3 54 37 36 22 10 12)
1969/12/31/18:00:08.352,(20 4 19 31 88 69 13 -19)
1969/12/31/18:00:08.380,(-50 16 10 -14 -115 -97 -35 -47)
1969/12/31/18:00:08.380,(16 -41 -42 -44 -30 -10 -6 7)
1969/12/31/18:00:08.381,(-39 -24 -9 4 56 36 -10 -27)
1969/12/31/18:00:08.381,(16 30 -23 -3 -41 -26 11 35)
1969/12/31/18:00:08.398,(36 27 -1 -7 -10 -41 -24 0)
1969/12/31/18:00:08.398,(-54 46 98 21 29 -2 -35 -58)
1969/12/31/18:00:08.417,(24 -82 -59 -15 -33 -1 -8 64)
1969/12/31/18:00:08.417,(10 40 -4 -2 -18 -10 25 2)
1969/12/31/18:00:08.428,(6 50 64 43 59 47 13 -40)
1969/12/31/18:00:08.428,(-55 -58 -44 -30 -83 -38 12 13)
1969/12/31/18:00:08.429,(24 -28 -93 -38 80 55 -16 -14)
1969/12/31/18:00:08.429,(-28 26 70 28 -31 -31 3 -17)
1969/12/31/18:00:08.457,(-28 52 4 0 -11 -6 12 4)
1969/12/31/18:00:08.457,(-34 -50 8 24 37 36 2 -48)
1969/12/31/18:00:08.459,(5 66 18 20 40 19 -11 -45)
1969/12/31/18:00:08.459,(24 -55 -93 -44 -49 -63 -9 30)
1969/12/31/18:00:08.475,(-11 34 72 3 -54 7 -32 -23)
1969/12/31/18:00:08.475,(13 -22 -34 -12 1 -27 5 21)
1969/12/31/18:00:08.486,(4 -87 -74 -50 -40 -10 -4 -14)
1969/12/31/18:00:08.486,(-4 -21 -14 -14 -2 4 -1 4)
1969/12/31/18:00:08.505,(52 72 57 48 48 10 10 39)
1969/12/31/18:00:08.505,(61 70 57 48 66 48 1 18)
1969/12/31/18:00:08.505,(-58 -77 16 15 -29 -50 2 -43)
1969/12/31/18:00:08.505,(37 -24 -84 -66 -34 -28 -60 26)
1969/12/31/18:00:08.535,(-17 -20 26 18 34 15 9 4)
1969/12/31/18:00:08.535,(21 13 -12 -1 -34 -11 -2 -1)
1969/12/31/18:00:08.536,(-8 4 11 13 56 34 13 -9)
1969/12/31/18:00:08.536,(-69 -70 -25 -35 -30 -7 24 -8)
1969/12/31/18:00:08.564,(-21 -13 -35 -2 -36 -12 -18 -27)
1969/12/31/18:00:08.564,(46 75 40 18 -3 7 30 71)
1969/12/31/18:00:08.564,(-32 -34 18 14 2 -17 -10 -28)
1969/12/31/18:00:08.564,(-8 -28 -31 -24 41 47 2 10)
1969/12/31/18:00:08.582,(-19 -61 -62 -34 -4 -16 -25 -18)
1969/12/31/18:00:08.582,(28 66 1 18 -5 13 4 -5)
1969/12/31/18:00:08.584,(24 25 56 7 -40 -21 28 34)
1969/12/31/18:00:08.584,(-47 83 99 58 28 19 7 -27)
1969/12/31/18:00:08.612,(-6 -60 -65 -27 -2 2 11 -8)
1969/12/31/18:00:08.612,(37 -126 -103 -57 -1 1 -23 26)
1969/12/31/18:00:08.613,(24 54 -16 -3 9 1 -23 -27)
1969/12/31/18:00:08.613,(23 71 110 54 15 18 20 18)
1969/12/31/18:00:08.630,(-18 -28 -10 -15 -38 -51 -12 5)
1969/12/31/18:00:08.630,(-27 -1 21 7 31 14 18 -7)
1969/12/31/18:00:08.640,(-28 24 9 7 19 3 -32 -53)
1969/12/31/18:00:08.640,(-3 -10 -7 -14 -11 -1 40 8)
1969/12/31/18:00:08.660,(58 -33 -60 -10 9 9 -29 0)
1969/12/31/18:00:08.660,(-16 49 49 -2 -28 -37 -27 -26)
1969/12/31/18:00:08.661,(-27 10 5 1 45 34 5 -12)
1969/12/31/18:00:08.661,(10 13 19 0 -49 -55 -17 6)
1969/12/31/18:00:08.691,(6 18 25 36 66 67 49 16)
1969/12/31/18:00:08.691,(-9 -83 -61 -32 -42 -19 -52 -20)
1969/12/31/18:00:08.692,(10 -11 -15 -20 -33 -10 1 -1)
1969/12/31/18:00:08.692,(-23 -2 -20 5 17 2 1 -18)
1969/12/31/18:00:08.707,(6 -38 -37 -28 -38 -21 29 48)
1969/12/31/18:00:08.707,(13 45 28 19 62 32 4 16)
1969/12/31/18:00:08.718,(20 57 37 31 -18 -3 11 11)
1969/12/31/18:00:08.718,(-25 14 19 9 -20 12 -11 -23)
1969/12/31/18:00:08.737,(-3 -45 -75 -39 3 -6 2 -27)
1969/12/31/18:00:08.737,(-69 -2 30 15 1 6 8 -9)
1969/12/31/18:00:08.737,(28 -40 -68 -14 44 24 21 28)
1969/12/31/18:00:08.738,(-5 -54 -27 -2 -13 -2 -9 -5)
1969/12/31/18:00:08.767,(-6 88 81 31 3 14 11 9)
1969/12/31/18:00:08.767,(11 -19 -13 -27 -37 -37 12 16)
1969/12/31/18:00:08.768,(5 -36 -61 -15 46 20 -13 45)
1969/12/31/18:00:08.768,(-12 39 42 6 -44 -31 1 -45)
1969/12/31/18:00:08.785,(-16 -7 57 23 18 26 14 9)
1969/12/31/18:00:08.785,(-24 -54 -54 -8 20 7 50 -3)
1969/12/31/18:00:08.795,(45 115 107 50 6 -3 -30 19)
1969/12/31/18:00:08.795,(43 -82 -100 -19 10 21 30 29)
1969/12/31/18:00:08.824,(-16 99 88 18 -10 -13 -14 -25)
1969/12/31/18:00:08.824,(-6 38 53 15 12 0 -2 -7)
1969/12/31/18:00:08.826,(-9 -45 -41 -34 -81 -46 4 -27)
1969/12/31/18:00:08.826,(-8 -84 -73 -14 66 54 3 6)
1969/12/31/18:00:08.844,(33 20 -3 -6 -38 -15 -18 -25)
1969/12/31/18:00:08.844,(-50 -37 -32 -8 33 6 2 -9)
1969/12/31/18:00:08.845,(-20 -5 -4 -12 -37 -21 -56 -29)
1969/12/31/18:00:08.845,(25 22 34 14 -16 -17 -20 11)
1969/12/31/18:00:08.873,(-20 -67 -102 -56 -23 -19 27 4)
1969/12/31/18:00:08.873,(27 44 64 40 29 43 1 15)
1969/12/31/18:00:08.873,(-19 -77 -67 -1 6 2 19 25)
1969/12/31/18:00:08.873,(-11 88 95 48 99 47 0 -21)
1969/12/31/18:00:08.893,(16 39 14 11 -26 -1 -20 5)
1969/12/31/18:00:08.893,(37 -27 -72 -28 5 5 -2 14)
1969/12/31/18:00:08.894,(-77 -34 9 -3 -104 -98 3 -20)
1969/12/31/18:00:08.894,(41 -34 -34 -35 -14 6 -28 -30)
1969/12/31/18:00:08.921,(-5 -24 0 0 35 2 4 12)
1969/12/31/18:00:08.921,(-18 14 36 12 13 23 -3 -10)
1969/12/31/18:00:08.922,(45 76 42 10 23 36 6 -17)
1969/12/31/18:00:08.922,(-69 32 10 10 -23 -19 2 -5)
1969/12/31/18:00:08.951,(-19 -58 -15 -16 -40 -26 2 -2)
1969/12/31/18:00:08.951,(-13 -1 -26 -16 -50 -10 -12 -2)
1969/12/31/18:00:08.951,(2 -61 -61 -10 76 67 7 24)
1969/12/31/18:00:08.951,(6 -24 -3 -6 -13 -35 -4 11)
1969/12/31/18:00:08.969,(11 18 -15 -9 -33 -39 -32 -16)
1969/12/31/18:00:08.969,(39 82 80 48 -10 -6 -6 9)
1969/12/31/18:00:08.970,(20 6 -1 8 11 -2 29 3)
1969/12/31/18:00:08.970,(-2 -18 -37 -30 -44 4 2 21)
1969/12/31/18:00:08.998,(7 -103 -113 -52 -56 -41 -4 21)
1969/12/31/18:00:08.998,(4 84 67 61 29 5 -10 -37)
1969/12/31/18:00:09.000,(9 9 30 8 38 36 -9 -36)
1969/12/31/18:00:09.000,(-6 -38 -22 -6 -58 -64 -44 -35)
1969/12/31/18:00:09.027,(-102 -32 -19 -27 -59 -67 -51 -60)
1969/12/31/18:00:09.027,(70 -80 -126 -60 -22 -10 4 23)
1969/12/31/18:00:09.028,(42 120 123 74 44 28 36 51)
1969/12/31/18:00:09.028,(-4 -15 10 34 82 74 27 24)
1969/12/31/18:00:09.046,(-32 -38 -2 19 81 77 20 -31)
1969/12/31/18:00:09.046,(-68 -30 -3 -11 -25 -59 -14 -49)
1969/12/31/18:00:09.047,(-39 4 -6 -17 -6 1 -3 0)
1969/12/31/18:00:09.047,(27 -4 -58 -39 -25 -23 -29 -6)
1969/12/31/18:00:09.076,(42 41 71 26 4 45 45 61)
1969/12/31/18:00:09.076,(-13 -30 -38 16 74 24 13 -3)
1969/12/31/18:00:09.077,(-21 -40 -24 -19 -14 11 -8 -7)
1969/12/31/18:00:09.077,(20 103 101 18 -11 -55 -25 11)
1969/12/31/18:00:09.104,(22 24 0 -11 -30 -10 -2 13)
1969/12/31/18:00:09.104,(-38 -73 -66 -19 29 20 -3 -18)
1969/12/31/18:00:09.105,(66 44 49 15 -62 -26 8 34)
1969/12/31/18:00:09.105,(-17 -15 4 7 40 32 25 -12)
1969/12/31/18:00:09.134,(60 -1 -67 -2 65 46 13 36)
1969/12/31/18:00:09.134,(-41 103 98 15 -85 -68 -25 -8)
1969/12/31/18:00:09.135,(-70 -72 -58 -49 -2 35 1 -45)
1969/12/31/18:00:09.135,(-8 -34 -33 -8 -47 -75 -30 -9)
1969/12/31/18:00:09.153,(37 29 36 29 59 31 14 7)
1969/12/31/18:00:09.153,(45 -5 -13 -2 0 25 33 59)
1969/12/31/18:00:09.154,(3 -24 -24 -29 -41 -13 15 17)
1969/12/31/18:00:09.154,(-7 -13 -31 6 76 83 7 -3)
1969/12/31/18:00:09.183,(-39 26 49 8 -45 -38 0 -10)
1969/12/31/18:00:09.183,(15 -29 -25 6 -32 -36 -38 2)
1969/12/31/18:00:09.185,(-7 -11 -39 -4 44 0 3 -33)
1969/12/31/18:00:09.185,(-13 16 26 3 -48 -4 21 -4)
1969/12/31/18:00:09.201,(57 22 9 25 47 33 31 53)
1969/12/31/18:00:09.201,(-36 28 58 -2 -45 -40 -17 -37)
1969/12/31/18:00:09.202,(-7 -66 -66 -28 1 -17 -21 -34)
1969/12/31/18:00:09.202,(47 -33 -111 -39 2 16 11 45)
1969/12/31/18:00:09.230,(8 71 93 73 39 19 -3 -27)
1969/12/31/18:00:09.230,(41 47 9 0 37 52 10 8)
1969/12/31/18:00:09.232,(-8 13 30 30 0 -34 -12 9)
1969/12/31/18:00:09.232,(23 6 -4 -9 -69 -37 -22 -22)
1969/12/31/18:00:09.259,(-62 -81 -71 -68 -75 -12 10 0)
1969/12/31/18:00:09.259,(-45 -73 -64 -31 72 29 -7 -12)
1969/12/31/18:00:09.260,(31 31 25 -7 -31 -6 1 17)
1969/12/31/18:00:09.260,(-21 -9 18 46 105 32 10 -2)
1969/12/31/18:00:09.278,(39 14 -73 -18 -10 6 -7 1)
1969/12/31/18:00:09.278,(-16 26 88 62 67 68 40 39)
1969/12/31/18:00:09.278,(38 46 27 1 -83 -96 -11 47)
1969/12/31/18:00:09.278,(-7 16 14 -37 -19 -20 -28 -44)
1969/12/31/18:00:09.308,(-42 -15 20 13 51 23 4 -13)
1969/12/31/18:00:09.308,(12 -108 -128 -82 -19 7 0 -9)
1969/12/31/18:00:09.310,(-52 -24 50 28 44 28 -5 -25)
1969/12/31/18:00:09.310,(19 95 27 33 -10 -5 12 15)
1969/12/31/18:00:09.346,(15 23 63 21 -45 -40 -13 26)
1969/12/31/18:00:09.346,(29 5 0 2 -17 33 35 2)
1969/12/31/18:00:09.349,(-22 -77 -69 -20 82 20 -38 -40)
1969/12/31/18:00:09.349,(-11 -45 -28 -27 -80 -49 -5 -18)
1969/12/31/18:00:09.354,(15 10 -19 -72 -24 -25 -28 -18)
1969/12/31/18:00:09.354,(-2 22 23 70 6 -26 -2 -9)
1969/12/31/18:00:09.365,(35 18 -8 5 10 37 25 51)
1969/12/31/18:00:09.365,(-31 -6 21 24 51 47 19 -3)
1969/12/31/18:00:09.385,(28 23 -5 15 33 9 4 10)
1969/12/31/18:00:09.385,(-53 -55 -45 -60 -71 -47 -33 -29)
1969/12/31/18:00:09.387,(27 69 61 26 7 8 12 12)
1969/12/31/18:00:09.387,(24 27 22 6 -6 12 15 28)
1969/12/31/18:00:09.413,(-42 -32 30 8 -57 -33 -4 -14)
1969/12/31/18:00:09.413,(7 -5 -16 -1 77 26 0 13)
1969/12/31/18:00:09.416,(12 4 -46 -14 -23 -9 -5 -11)
1969/12/31/18:00:09.416,(-55 -31 33 -5 -13 -12 -8 -16)
1969/12/31/18:00:09.431,(17 20 5 20 30 17 29 32)
1969/12/31/18:00:09.431,(-37 -11 0 -22 -80 -45 -65 -97)
1969/12/31/18:00:09.443,(49 22 -14 -28 64 31 4 7)
1969/12/31/18:00:09.443,(39 3 8 47 56 11 18 42)
1969/12/31/18:00:09.462,(-41 -9 -22 6 20 1 -5 -14)
1969/12/31/18:00:09.462,(-23 -41 1 16 -19 -14 6 14)
1969/12/31/18:00:09.465,(4 -6 -4 -13 -50 -12 -7 4)
1969/12/31/18:00:09.465,(-11 -3 -15 -8 9 25 -6 -24)
1969/12/31/18:00:09.492,(-15 -11 -3 -2 14 -42 -39 -25)
1969/12/31/18:00:09.492,(76 50 3 -21 -35 -14 13 33)
1969/12/31/18:00:09.493,(-54 -36 -11 -3 -27 2 -6 -4)
1969/12/31/18:00:09.493,(19 6 0 -9 11 -10 -16 -18)
1969/12/31/18:00:09.508,(-36 -24 -16 0 -1 -12 20 -17)
1969/12/31/18:00:09.508,(-26 -9 4 -12 -9 9 -16 -11)
1969/12/31/18:00:09.520,(81 34 -4 2 -12 -20 8 28)
1969/12/31/18:00:09.520,(21 17 17 7 3 10 15 15)
1969/12/31/18:00:09.541,(-46 -53 -32 -11 19 38 1 -31)
1969/12/31/18:00:09.541,(29 -4 -5 -8 -25 -84 -29 -10)
1969/12/31/18:00:09.542,(-3 -3 13 12 -9 34 11 -2)
1969/12/31/18:00:09.542,(16 29 -1 -3 -2 15 15 35)
1969/12/31/18:00:09.568,(-28 -7 -18 -18 -20 -12 -24 -41)
1969/12/31/18:00:09.568,(-26 -15 4 2 3 17 17 14)
1969/12/31/18:00:09.570,(-14 2 -5 4 0 -12 -6 -18)
1969/12/31/18:00:09.570,(-21 -30 -1 -7 -6 -4 18 41)
1969/12/31/18:00:09.586,(100 60 15 10 6 3 -7 12)
1969/12/31/18:00:09.586,(-128 -26 -22 -21 -14 -5 -21 -62)
1969/12/31/18:00:09.597,(50 7 8 3 -1 -13 5 34)
1969/12/31/18:00:09.597,(-34 -20 -8 -3 -4 2 -1 -17)
1969/12/31/18:00:09.617,(9 -19 -6 1 11 12 -8 -20)
1969/12/31/18:00:09.617,(108 93 36 22 14 24 29 52)
1969/12/31/18:00:09.619,(-125 -71 -21 -10 -14 -17 -6 -41)
1969/12/31/18:00:09.619,(-68 -34 -30 -21 -11 -13 -30 -80)
1969/12/31/18:00:09.645,(16 -4 0 4 6 9 4 25)
1969/12/31/18:00:09.645,(23 3 5 0 -5 -2 2 5)
1969/12/31/18:00:09.648,(6 7 -3 1 -4 -10 -2 3)
1969/12/31/18:00:09.648,(7 17 14 7 8 8 5 12)
1969/12/31/18:00:09.663,(-12 -10 -8 -3 -3 -2 -4 0)
1969/12/31/18:00:09.663,(8 -7 -6 -7 -7 2 3 10)
1969/12/31/18:00:09.675,(-19 -8 -2 0 4 -1 0 -5)
1969/12/31/18:00:09.675,(15 -5 -3 -2 0 2 4 11)
1969/12/31/18:00:09.694,(31 17 -9 -8 -7 -7 -5 4)
1969/12/31/18:00:09.694,(-22 -11 3 3 6 6 6 7)
1969/12/31/18:00:09.697,(6 11 8 5 0 -2 -2 -3)
1969/12/31/18:00:09.697,(1 -2 3 -1 0 -2 0 -2)
1969/12/31/18:00:09.722,(-18 -10 1 1 -2 3 0 6)
1969/12/31/18:00:09.724,(26 16 4 6 3 1 -2 3)
1969/12/31/18:00:09.725,(-31 -28 -33 -21 -9 -8 -8 -21)
1969/12/31/18:00:09.725,(16 25 34 12 1 2 4 10)
1969/12/31/18:00:09.740,(4 11 2 5 7 5 4 12)
1969/12/31/18:00:09.740,(12 7 11 -2 -6 -3 -2 -2)
1969/12/31/18:00:09.753,(-7 -25 -17 -6 -2 -3 -2 -6)
1969/12/31/18:00:09.753,(2 -15 -11 -9 -4 -3 0 4)
1969/12/31/18:00:09.771,(-2 11 6 2 -1 2 1 4)
1969/12/31/18:00:09.771,(4 8 15 9 -3 -4 -5 -8)
1969/12/31/18:00:09.773,(0 -5 -6 -3 -3 -6 -2 -5)
1969/12/31/18:00:09.773,(6 -32 -36 -7 1 -1 -5 2)
1969/12/31/18:00:09.801,(2 36 39 9 4 -2 -5 3)
1969/12/31/18:00:09.801,(6 -2 -12 -7 -2 6 9 2)
1969/12/31/18:00:09.802,(1 10 10 7 2 3 1 5)
1969/12/31/18:00:09.802,(3 -9 -17 -10 -9 -7 -3 0)
1969/12/31/18:00:09.818,(-9 -39 -23 -14 -5 -1 -2 -3)
1969/12/31/18:00:09.818,(1 9 -1 -3 -2 -6 -12 -2)
1969/12/31/18:00:09.839,(-3 -25 -30 -11 -5 -1 1 -3)
1969/12/31/18:00:09.839,(18 96 78 25 7 4 5 4)
1969/12/31/18:00:09.847,(-4 -28 -21 -4 1 1 0 0)
1969/12/31/18:00:09.847,(2 -3 0 -2 3 3 4 4)
1969/12/31/18:00:09.856,(-1 1 9 -3 -5 -5 -4 -6)
1969/12/31/18:00:09.856,(0 -22 -18 -4 1 4 4 7)
1969/12/31/18:00:09.877,(-3 15 15 4 1 1 -1 -5)
1969/12/31/18:00:09.877,(9 2 -5 -3 -6 -3 -1 0)
1969/12/31/18:00:09.879,(-2 15 12 7 5 -2 -4 -4)
1969/12/31/18:00:09.879,(2 -8 -1 -1 1 0 0 1)
1969/12/31/18:00:09.896,(-5 -14 -5 -4 -2 2 4 3)
1969/12/31/18:00:09.896,(1 -29 -40 -16 -3 0 6 6)
1969/12/31/18:00:09.906,(3 16 17 8 3 -1 -2 -1)
1969/12/31/18:00:09.906,(0 19 3 6 2 4 3 2)
1969/12/31/18:00:09.926,(-1 -30 -5 0 0 -3 -6 -4)
1969/12/31/18:00:09.926,(-2 20 9 3 0 -2 0 -4)
1969/12/31/18:00:09.928,(-6 -15 -21 -14 -8 -5 -7 -6)
1969/12/31/18:00:09.928,(2 -18 -20 -8 -3 -3 -3 -3)
1969/12/31/18:00:09.954,(0 28 21 18 6 2 -3 1)
1969/12/31/18:00:09.954,(-2 -26 -16 -4 -3 2 1 0)
1969/12/31/18:00:09.957,(-5 0 7 -5 -6 -6 -6 -3)
1969/12/31/18:00:09.957,(-6 -6 -12 -9 -4 -4 -6 -8)
1969/12/31/18:00:09.984,(-4 -6 -9 -1 0 1 2 0)
1969/12/31/18:00:09.984,(-5 -10 11 2 3 1 -4 -5)
1969/12/31/18:00:09.986,(9 21 4 9 4 3 1 2)
1969/12/31/18:00:09.986,(-2 -3 17 0 -4 -3 -5 -2)
1969/12/31/18:00:10.002,(-1 5 -15 -12 -6 -1 3 3)
1969/12/31/18:00:10.002,(-1 -1 -1 -13 -5 -1 -3 -5)
1969/12/31/18:00:10.011,(6 -12 -7 22 7 1 0 0)
1969/12/31/18:00:10.011,(-6 -14 -2 11 5 0 -1 -7)
1969/12/31/18:00:10.031,(5 14 20 6 0 -1 0 2)
1969/12/31/18:00:10.033,(-14 14 3 -22 -11 -5 -4 -6)
1969/12/31/18:00:10.034,(0 -12 -11 -17 -8 -8 -6 -1)
1969/12/31/18:00:10.034,(10 1 7 29 10 5 5 9)
1969/12/31/18:00:10.049,(-7 -1 4 0 -1 -3 -3 -10)
1969/12/31/18:00:10.049,(-1 -13 -10 -5 -7 -6 3 3)
1969/12/31/18:00:10.071,(-4 13 2 -9 -2 1 -5 -1)
1969/12/31/18:00:10.071,(1 -1 -10 -17 -3 -8 -1 -3)
1969/12/31/18:00:10.079,(-2 -16 -23 -6 -2 -5 0 3)
1969/12/31/18:00:10.079,(7 5 17 18 9 1 0 4)
1969/12/31/18:00:10.079,(-1 -3 -1 2 -1 -2 -2 -2)
1969/12/31/18:00:10.079,(-2 -3 -5 -7 -4 -3 -3 0)
1969/12/31/18:00:10.100,(-1 0 -2 -1 -2 -3 0 -2)
1969/12/31/18:00:10.100,(-3 1 6 5 2 0 -1 -1)
1969/12/31/18:00:10.102,(0 1 -2 -2 -1 -1 0 0)
1969/12/31/18:00:10.102,(0 -2 0 0 -1 -1 -1 -1)
1969/12/31/18:00:10.129,(1 -3 0 0 2 1 0 0)
1969/12/31/18:00:10.129,(0 -1 -2 -2 -2 -3 -2 -2)
1969/12/31/18:00:10.131,(-1 0 1 1 1 -2 0 0)
1969/12/31/18:00:10.131,(-2 -3 -5 -3 -1 0 0 -1)
1969/12/31/18:00:10.147,(0 1 -4 -7 -4 -1 -1 1)
1969/12/31/18:00:10.147,(0 -3 -3 1 0 -1 0 -1)
1969/12/31/18:00:10.156,(-3 0 -1 -3 -2 0 0 -1)
1969/12/31/18:00:10.156,(2 2 -1 -7 -2 0 -2 0)
1969/12/31/18:00:10.177,(-1 -2 1 9 1 0 -2 -1)
1969/12/31/18:00:10.177,(-2 -3 -3 -2 0 -1 0 0)
1969/12/31/18:00:10.180,(2 3 5 4 1 0 -2 -1)
1969/12/31/18:00:10.180,(-2 -4 -4 -1 -1 -2 0 2)
1969/12/31/18:00:10.207,(-3 -3 -3 -6 -3 -2 -2 -1)
1969/12/31/18:00:10.207,(-4 -6 -8 -7 -3 -1 -1 -1)
1969/12/31/18:00:10.208,(-1 1 -1 -1 0 3 -1 -3)
1969/12/31/18:00:10.208,(0 2 5 0 -2 -5 -1 -2)
1969/12/31/18:00:10.223,(1 2 1 0 0 -1 -2 -1)
1969/12/31/18:00:10.223,(2 0 0 3 -1 -7 2 0)
1969/12/31/18:00:10.235,(-4 -5 -6 -5 -3 8 1 -4)
1969/12/31/18:00:10.235,(0 3 4 5 3 0 -10 -1)
1969/12/31/18:00:10.254,(-1 -3 -6 -6 -3 -6 8 2)
1969/12/31/18:00:10.254,(0 0 -5 -6 0 -5 -5 -3)
1969/12/31/18:00:10.257,(3 2 0 -1 -3 -7 13 0)
1969/12/31/18:00:10.257,(-4 -3 4 -1 -1 0 -46 -13)
1969/12/31/18:00:10.284,(3 5 2 5 -3 -14 -8 -1)
1969/12/31/18:00:10.284,(0 -1 4 8 4 16 34 11)
1969/12/31/18:00:10.285,(-2 0 -1 -2 0 -2 -42 -7)
1969/12/31/18:00:10.285,(-1 -1 4 7 -2 -8 9 0)
1969/12/31/18:00:10.301,(-4 -4 -8 -11 -1 7 -7 -5)
1969/12/31/18:00:10.301,(-3 -3 -7 -11 -7 -8 -8 -4)
1969/12/31/18:00:10.312,(1 -3 -2 1 1 -1 7 5)
1969/12/31/18:00:10.312,(-3 -2 -15 -8 -3 1 4 -5)
1969/12/31/18:00:10.332,(-1 -4 5 -1 -3 -4 -5 -1)
1969/12/31/18:00:10.332,(1 3 1 3 1 2 2 3)
1969/12/31/18:00:10.334,(-1 -7 -7 -4 -2 -3 7 3)
1969/12/31/18:00:10.334,(2 2 -12 3 2 -4 1 1)
1969/12/31/18:00:10.360,(3 5 23 12 4 1 10 2)
1969/12/31/18:00:10.360,(1 2 1 3 -1 -5 -9 -3)
1969/12/31/18:00:10.362,(-2 -1 -1 -4 -1 -6 0 1)
1969/12/31/18:00:10.362,(-2 -9 -11 -6 0 -2 9 2)
1969/12/31/18:00:10.378,(-5 -7 -24 -15 -3 -1 -4 -4)
1969/12/31/18:00:10.378,(-1 -2 14 -3 -3 -4 -13 -8)
1969/12/31/18:00:10.389,(-1 4 10 23 5 1 0 0)
1969/12/31/18:00:10.389,(2 4 10 15 5 11 13 8)
1969/12/31/18:00:10.409,(0 -1 -3 1 1 10 1 1)
1969/12/31/18:00:10.409,(-6 -7 -10 -8 -4 7 -5 -1)
1969/12/31/18:00:10.411,(0 -5 -21 -19 -9 0 -2 -2)
1969/12/31/18:00:10.411,(-1 -2 8 -3 -2 1 7 7)
1969/12/31/18:00:10.447,(1 6 1 8 2 1 2 4)
1969/12/31/18:00:10.447,(1 -6 -8 -5 -2 -5 -3 -2)
1969/12/31/18:00:10.450,(2 5 5 2 -1 -10 -3 -6)
1969/12/31/18:00:10.450,(1 -3 -10 -10 -5 -7 3 1)
1969/12/31/18:00:10.455,(1 1 6 -1 1 -7 -4 -4)
1969/12/31/18:00:10.455,(-3 4 0 2 1 -1 -1 -7)
1969/12/31/18:00:10.467,(-4 -1 5 0 -1 0 0 -6)
1969/12/31/18:00:10.467,(-6 -4 2 -2 -4 -3 -8 -10)
1969/12/31/18:00:10.486,(-1 5 3 3 0 0 -5 -11)
1969/12/31/18:00:10.486,(-3 -6 -3 0 0 8 8 6)
1969/12/31/18:00:10.489,(-1 -5 0 -2 -2 2 -3 -5)
1969/12/31/18:00:10.489,(-2 -2 -1 -2 -4 0 -3 -7)
1969/12/31/18:00:10.516,(0 -4 -3 -2 -2 3 2 4)
1969/12/31/18:00:10.516,(2 3 5 4 2 0 -5 -5)
1969/12/31/18:00:10.517,(-2 1 1 -1 -1 0 0 4)
1969/12/31/18:00:10.517,(0 1 2 3 -1 1 1 1)
1969/12/31/18:00:10.532,(-2 -5 -5 -2 -2 0 1 1)
1969/12/31/18:00:10.532,(4 0 -2 -1 -1 -2 0 4)
1969/12/31/18:00:10.544,(2 0 -2 -3 0 -4 0 -2)
1969/12/31/18:00:10.544,(-2 -3 -3 -1 1 -4 1 4)
1969/12/31/18:00:10.563,(-2 -2 -4 -4 -1 -3 0 3)
1969/12/31/18:00:10.563,(2 3 -1 -3 -2 -7 -11 -13)
1969/12/31/18:00:10.566,(-3 -4 -3 -2 0 1 4 4)
1969/12/31/18:00:10.566,(1 2 0 0 1 -2 -1 -2)
1969/12/31/18:00:10.592,(1 0 -4 -2 -2 -1 -1 -1)
1969/12/31/18:00:10.592,(-1 1 0 0 1 -3 1 4)
1969/12/31/18:00:10.594,(-1 -1 0 0 0 -2 -3 2)
1969/12/31/18:00:10.594,(0 -2 -2 -2 -1 1 4 0)
1969/12/31/18:00:10.610,(-2 -1 -2 -3 -1 -1 -1 -1)
1969/12/31/18:00:10.610,(-2 -4 -5 -3 1 -2 1 0)
1969/12/31/18:00:10.632,(0 7 3 -2 -2 0 -1 -1)
1969/12/31/18:00:10.632,(-3 -2 4 0 -1 4 5 4)
1969/12/31/18:00:10.641,(5 11 7 5 4 1 -12 -9)
1969/12/31/18:00:10.641,(4 0 -1 1 -2 -1 -3 3)
1969/12/31/18:00:10.642,(-8 -7 -4 -1 -2 1 -1 -2)
1969/12/31/18:00:10.642,(2 2 -3 1 -1 -3 -6 -4)
1969/12/31/18:00:10.670,(-10 -14 -9 -8 -5 -5 1 1)
1969/12/31/18:00:10.670,(-4 -4 0 -1 0 0 2 -1)
1969/12/31/18:00:10.672,(-8 -2 0 -2 1 1 4 3)
1969/12/31/18:00:10.672,(1 3 0 -3 0 -3 4 9)
1969/12/31/18:00:10.687,(18 1 -2 -2 -5 9 12 5)
1969/12/31/18:00:10.687,(-26 -9 1 0 -3 -1 -17 -13)
1969/12/31/18:00:10.699,(-19 -11 -4 -2 3 8 -2 1)
1969/12/31/18:00:10.699,(-8 -4 6 4 -1 -1 18 -10)
1969/12/31/18:00:10.718,(22 14 2 3 2 1 2 14)
1969/12/31/18:00:10.718,(17 8 2 1 -5 -7 4 19)
1969/12/31/18:00:10.721,(-59 -31 -11 -7 -5 -7 -22 -19)
1969/12/31/18:00:10.721,(24 9 2 2 2 5 -8 -10)
1969/12/31/18:00:10.748,(-10 -6 -1 1 11 47 -10 -14)
1969/12/31/18:00:10.748,(18 4 1 -1 -14 -60 -41 -15)
1969/12/31/18:00:10.749,(20 17 10 6 1 -10 24 31)
1969/12/31/18:00:10.749,(-33 -21 -13 -10 -5 7 -57 -65)
1969/12/31/18:00:10.764,(14 9 7 5 1 3 13 22)
1969/12/31/18:00:10.764,(6 6 -8 -4 0 17 -1 -12)
1969/12/31/18:00:10.776,(64 14 7 3 3 10 20 43)
1969/12/31/18:00:10.776,(-47 -17 -11 -6 -4 15 35 22)
1969/12/31/18:00:10.795,(-20 -1 0 -3 -5 -12 -42 -53)
1969/12/31/18:00:10.795,(1 -20 0 4 8 5 11 30)
1969/12/31/18:00:10.798,(0 15 -1 1 -2 -7 -13 -37)
1969/12/31/18:00:10.798,(45 33 7 1 -1 -17 -11 15)
1969/12/31/18:00:10.824,(-28 -11 -2 1 5 6 -28 -28)
1969/12/31/18:00:10.824,(-18 -7 -3 -5 -11 -38 20 36)
1969/12/31/18:00:10.826,(-11 -19 -10 -2 1 14 14 42)
1969/12/31/18:00:10.826,(-10 3 0 -1 -8 -34 -16 -59)
1969/12/31/18:00:10.842,(-3 -5 -7 -5 -9 -10 9 5)
1969/12/31/18:00:10.842,(-2 -10 -1 1 5 9 6 28)
1969/12/31/18:00:10.853,(-41 -36 -13 -10 -5 13 -5 -43)
1969/12/31/18:00:10.853,(9 15 7 2 0 -16 -12 12)
1969/12/31/18:00:10.873,(-15 -21 -9 -7 -3 15 40 30)
1969/12/31/18:00:10.873,(12 18 6 2 5 38 17 -7)
1969/12/31/18:00:10.875,(33 31 13 8 10 51 13 -14)
1969/12/31/18:00:10.875,(-18 -55 -25 -14 -15 -50 12 -11)
1969/12/31/18:00:10.901,(-7 7 -1 -3 7 20 39 45)
1969/12/31/18:00:10.901,(7 9 5 3 0 -8 -5 9)
1969/12/31/18:00:10.902,(-10 -20 -11 -7 -4 0 15 -16)
1969/12/31/18:00:10.902,(32 38 20 12 4 49 49 64)
1969/12/31/18:00:10.929,(-42 -24 -4 -2 -7 -51 -67 -37)
1969/12/31/18:00:10.929,(-6 -7 -13 -11 -9 -16 -44 -49)
1969/12/31/18:00:10.930,(20 15 9 3 -6 -37 -12 1)
1969/12/31/18:00:10.930,(-22 -15 -6 -4 -3 -27 12 29)
1969/12/31/18:00:10.949,(16 6 -4 -3 -4 -7 12 13)
1969/12/31/18:00:10.949,(32 24 14 7 8 36 -3 -26)
1969/12/31/18:00:10.959,(-5 -10 -5 -1 -6 -43 -12 34)
1969/12/31/18:00:10.959,(-32 -23 -16 -10 6 69 -11 -70)
1969/12/31/18:00:10.978,(-2 17 11 3 -10 -76 8 -5)
1969/12/31/18:00:10.978,(9 1 -4 -2 2 8 57 56)
1969/12/31/18:00:10.979,(-3 12 12 7 7 -1 -50 -28)
1969/12/31/18:00:10.979,(36 -6 -7 -2 0 0 -18 5)
1969/12/31/18:00:11.006,(36 12 2 0 6 32 30 1)
1969/12/31/18:00:11.006,(-14 6 9 11 9 8 10 26)
1969/12/31/18:00:11.008,(14 -7 -10 -5 -4 11 3 -35)
1969/12/31/18:00:11.008,(2 8 7 1 -9 -77 -43 -35)
1969/12/31/18:00:11.026,(10 6 4 3 2 -3 -8 -7)
1969/12/31/18:00:11.026,(-11 -6 -1 0 -1 15 10 -5)
1969/12/31/18:00:11.027,(-9 -2 -5 -3 -1 -10 17 15)
1969/12/31/18:00:11.027,(-16 3 -2 1 5 26 -15 -30)
1969/12/31/18:00:11.055,(3 -21 -10 -9 -12 -2 -9 3)
1969/12/31/18:00:11.055,(5 15 5 2 3 6 21 50)
1969/12/31/18:00:11.055,(8 6 -4 -5 -11 -44 -15 -36)
1969/12/31/18:00:11.055,(-42 -6 1 3 2 13 11 -11)
1969/12/31/18:00:11.084,(20 -5 2 5 8 2 -7 0)
1969/12/31/18:00:11.084,(-20 -12 1 2 -1 4 -21 -39)
1969/12/31/18:00:11.085,(16 -2 -6 -4 1 26 48 43)
1969/12/31/18:00:11.085,(13 5 1 1 -1 -38 -46 38)
1969/12/31/18:00:11.103,(-1 14 8 7 3 7 20 7)
1969/12/31/18:00:11.103,(-65 -39 -24 -18 -17 -32 -58 -115)
1969/12/31/18:00:11.104,(22 24 17 11 11 22 22 25)
1969/12/31/18:00:11.104,(-24 -17 -7 -9 -9 -19 32 -1)
1969/12/31/18:00:11.133,(-1 4 -3 -2 4 31 -40 11)
1969/12/31/18:00:11.133,(23 -4 0 2 0 2 28 -4)
1969/12/31/18:00:11.134,(1 3 -7 -8 -9 16 3 8)
1969/12/31/18:00:11.134,(27 5 12 11 9 -2 4 22)
1969/12/31/18:00:11.161,(-5 -9 -6 -3 -1 30 35 10)
1969/12/31/18:00:11.161,(-10 0 1 0 4 -6 -44 -34)
1969/12/31/18:00:11.162,(-28 3 -5 -5 -8 -17 -16 -41)
1969/12/31/18:00:11.162,(-20 -24 -11 -10 -7 -2 -10 -8)
1969/12/31/18:00:11.180,(19 14 4 0 -8 -22 3 1)
1969/12/31/18:00:11.180,(16 -5 -13 -10 4 74 47 36)
1969/12/31/18:00:11.182,(-12 -8 -2 -2 0 -41 -29 -36)
1969/12/31/18:00:11.182,(48 21 9 5 -1 -2 -23 42)
1969/12/31/18:00:11.210,(-37 -13 -8 -8 -5 21 -35 -45)
1969/12/31/18:00:11.210,(-4 -3 -7 -4 -4 6 5 23)
1969/12/31/18:00:11.211,(-62 -61 -20 -14 -11 -15 -15 -41)
1969/12/31/18:00:11.211,(2 21 6 5 22 40 30 65)
1969/12/31/18:00:11.238,(15 -5 0 2 0 44 19 5)
1969/12/31/18:00:11.238,(21 15 3 -6 -26 -128 -27 -29)
1969/12/31/18:00:11.240,(29 18 10 24 95 108 26 44)
1969/12/31/18:00:11.240,(-17 -7 1 7 -10 37 5 -29)
1969/12/31/18:00:11.258,(21 18 3 -25 -88 -102 20 38)
1969/12/31/18:00:11.258,(-21 -19 -13 -18 -8 -1 -46 25)
1969/12/31/18:00:11.259,(12 4 -3 -3 3 -1 -4 62)
1969/12/31/18:00:11.259,(4 -2 4 8 52 27 16 -19)
1969/12/31/18:00:11.287,(-35 -16 -7 16 42 13 3 -17)
1969/12/31/18:00:11.287,(-2 9 6 3 -27 44 -10 -29)
1969/12/31/18:00:11.289,(-3 4 -10 -25 -37 -81 12 -13)
1969/12/31/18:00:11.289,(9 4 -2 -12 -45 -37 -5 -8)
1969/12/31/18:00:11.316,(-6 -11 -2 4 15 10 3 6)
1969/12/31/18:00:11.316,(29 14 7 9 28 41 31 40)
1969/12/31/18:00:11.317,(-5 3 4 14 21 -8 -28 -10)
1969/12/31/18:00:11.317,(20 3 2 1 -14 17 20 20)
1969/12/31/18:00:11.335,(-4 3 -6 -12 4 -21 -15 -1)
1969/12/31/18:00:11.335,(-21 -15 4 17 56 33 26 7)
1969/12/31/18:00:11.336,(28 24 15 15 -3 12 -6 9)
1969/12/31/18:00:11.336,(-8 -13 -12 -23 -68 -40 -2 -5)
1969/12/31/18:00:11.365,(18 19 4 -8 -11 -2 4 2)
1969/12/31/18:00:11.365,(40 16 -2 -15 -54 -58 -1 -19)
1969/12/31/18:00:11.366,(32 15 9 3 3 2 19 27)
1969/12/31/18:00:11.366,(-60 -26 -4 16 69 90 10 -25)
1969/12/31/18:00:11.393,(-29 -26 -3 13 24 11 -5 -11)
1969/12/31/18:00:11.394,(-8 -9 -7 -13 -20 -29 -15 -7)
1969/12/31/18:00:11.394,(14 7 3 10 51 16 -14 -14)
1969/12/31/18:00:11.394,(42 42 -8 -8 -72 -48 15 37)
1969/12/31/18:00:11.412,(28 14 11 -18 -20 -22 -10 -7)
1969/12/31/18:00:11.412,(-17 -39 9 15 26 19 19 20)
1969/12/31/18:00:11.423,(1 -4 -16 -19 -33 4 -5 -5)
1969/12/31/18:00:11.423,(-25 -20 21 16 64 19 -35 -51)
1969/12/31/18:00:11.442,(-15 26 -10 4 -2 14 27 31)
1969/12/31/18:00:11.442,(1 -18 -11 1 -19 -21 -25 -24)
1969/12/31/18:00:11.443,(43 43 -27 -23 -24 0 -1 17)
1969/12/31/18:00:11.443,(-5 -50 -12 -16 6 17 25 22)
1969/12/31/18:00:11.470,(-14 2 25 16 16 -14 7 -39)
1969/12/31/18:00:11.470,(32 -11 -23 7 22 26 -22 19)
1969/12/31/18:00:11.471,(-44 -14 -10 -9 -28 -30 -24 -29)
1969/12/31/18:00:11.471,(67 106 33 2 -37 -50 -6 11)
1969/12/31/18:00:11.490,(-21 -36 -3 -16 -45 -24 -24 -15)
1969/12/31/18:00:11.491,(-18 -20 2 25 76 94 45 -30)
1969/12/31/18:00:11.491,(35 9 -40 -31 -80 -51 1 12)
1969/12/31/18:00:11.491,(-55 -8 40 11 18 -11 -37 -52)
1969/12/31/18:00:11.519,(-8 -4 -1 18 37 12 7 -4)
1969/12/31/18:00:11.519,(24 30 -33 -14 71 62 39 54)
1969/12/31/18:00:11.520,(-41 -12 40 16 -24 -24 -5 3)
1969/12/31/18:00:11.520,(-37 -66 -42 -34 -74 -45 -19 -12)
1969/12/31/18:00:11.559,(1 3 -9 0 37 15 -23 -47)
1969/12/31/18:00:11.559,(18 -9 -16 -15 -3 -9 25 80)
1969/12/31/18:00:11.559,(-67 -77 -39 -7 34 61 35 -18)
1969/12/31/18:00:11.559,(-1 46 50 22 14 -30 -30 15)
1969/12/31/18:00:11.567,(25 -32 -28 -3 23 30 7 41)
1969/12/31/18:00:11.567,(0 -4 5 6 -37 -40 -7 -12)
1969/12/31/18:00:11.568,(23 90 115 34 -27 8 10 12)
1969/12/31/18:00:11.568,(15 -40 -106 -46 -43 -55 -13 -27)
1969/12/31/18:00:11.596,(-34 32 68 14 17 18 -16 -18)
1969/12/31/18:00:11.596,(-57 20 -13 -3 -13 -39 -21 -88)
1969/12/31/18:00:11.598,(-15 4 49 31 34 17 -48 17)
1969/12/31/18:00:11.598,(78 9 19 16 47 70 61 91)
1969/12/31/18:00:11.625,(-68 -102 -110 -26 64 38 -24 -69)
1969/12/31/18:00:11.625,(44 12 -50 -68 -128 -117 -22 33)
1969/12/31/18:00:11.626,(-1 11 57 16 -5 -39 -4 31)
1969/12/31/18:00:11.626,(34 70 -38 -20 34 24 -18 -17)
1969/12/31/18:00:11.644,(-82 14 82 29 17 4 -14 -57)
1969/12/31/18:00:11.644,(7 47 16 38 89 85 59 64)
1969/12/31/18:00:11.645,(3 -76 -80 -32 -42 -36 -23 -35)
1969/12/31/18:00:11.645,(-15 -66 0 1 1 -6 13 11)
1969/12/31/18:00:11.674,(57 87 23 22 16 27 17 2)
1969/12/31/18:00:11.674,(-15 27 18 -25 -60 -69 -71 -102)
1969/12/31/18:00:11.675,(-56 3 43 15 -28 -26 -10 18)
1969/12/31/18:00:11.675,(15 11 -9 19 46 21 9 28)
1969/12/31/18:00:11.703,(101 -2 -9 -3 -13 3 12 67)
1969/12/31/18:00:11.703,(-70 -22 -11 -3 -30 -16 -6 -57)
1969/12/31/18:00:11.703,(16 -83 -79 -34 2 29 -10 -40)
1969/12/31/18:00:11.703,(-31 25 27 15 31 15 -8 -22)
1969/12/31/18:00:11.721,(28 -8 -8 3 -8 1 -6 30)
1969/12/31/18:00:11.721,(35 37 41 5 -4 -18 20 36)
1969/12/31/18:00:11.732,(2 -45 -77 -29 -1 -27 -14 -3)
1969/12/31/18:00:11.732,(-82 -106 -14 -6 -30 -13 0 -45)
1969/12/31/18:00:11.751,(-44 64 -3 -19 18 8 -16 -69)
1969/12/31/18:00:11.751,(-19 25 33 31 2 -21 -19 -30)
1969/12/31/18:00:11.752,(-5 73 83 27 7 20 5 -61)
1969/12/31/18:00:11.752,(13 6 6 17 33 27 7 -5)
1969/12/31/18:00:11.779,(26 -55 -48 -23 -16 -18 -2 30)
1969/12/31/18:00:11.779,(-23 -53 -21 -27 -65 -36 -20 -23)
1969/12/31/18:00:11.781,(46 19 -37 -6 33 23 22 49)
1969/12/31/18:00:11.781,(-32 -13 16 21 29 28 21 15)
1969/12/31/18:00:11.799,(20 7 18 0 -7 5 9 33)
1969/12/31/18:00:11.799,(48 26 6 1 16 17 18 75)
1969/12/31/18:00:11.809,(-5 -29 -23 -18 -23 -6 -32 -45)
1969/12/31/18:00:11.809,(20 -22 -84 -25 78 74 14 5)
1969/12/31/18:00:11.828,(-56 67 87 48 -92 -111 20 11)
1969/12/31/18:00:11.828,(59 74 58 30 46 33 -45 20)
1969/12/31/18:00:11.837,(9 -11 -28 -26 -54 0 32 69)
1969/12/31/18:00:11.839,(11 -10 4 -12 -10 -10 -13 -12)
1969/12/31/18:00:11.857,(24 -56 -55 -8 40 39 23 46)
1969/12/31/18:00:11.857,(-46 -82 -73 -17 16 11 5 17)
1969/12/31/18:00:11.858,(-18 106 97 43 40 -1 -10 -59)
1969/12/31/18:00:11.858,(-5 42 30 24 -16 -10 14 22)
1969/12/31/18:00:11.877,(-9 -15 1 0 4 -13 -20 -13)
1969/12/31/18:00:11.877,(6 -22 27 4 -26 5 8 -18)
1969/12/31/18:00:11.886,(-31 -89 -121 -27 67 37 33 44)
1969/12/31/18:00:11.886,(37 17 28 -30 -82 -33 -32 11)
1969/12/31/18:00:11.907,(78 55 52 22 -25 -23 11 74)
1969/12/31/18:00:11.907,(-69 -37 -18 -10 8 -10 -9 -32)
1969/12/31/18:00:11.908,(-1 -20 -34 -20 -2 -4 -13 -16)
1969/12/31/18:00:11.908,(58 99 38 20 17 17 21 19)
1969/12/31/18:00:11.934,(26 -41 -16 14 34 16 13 23)
1969/12/31/18:00:11.934,(-14 -87 -61 -47 -51 -5 -1 -16)
1969/12/31/18:00:11.935,(3 92 91 21 4 -1 4 -10)
1969/12/31/18:00:11.935,(23 66 61 53 21 -6 1 10)
1969/12/31/18:00:11.953,(25 -36 -58 -48 -29 6 4 1)
1969/12/31/18:00:11.953,(9 3 -7 9 27 9 -24 -68)
1969/12/31/18:00:11.964,(10 -19 -16 -1 6 12 0 27)
1969/12/31/18:00:11.964,(-42 -38 -22 -19 20 17 -17 -75)
1969/12/31/18:00:11.983,(49 -24 -37 8 34 14 15 49)
1969/12/31/18:00:11.983,(-62 39 59 -7 -86 -83 -38 -57)
1969/12/31/18:00:11.983,(39 43 41 46 76 45 28 66)
1969/12/31/18:00:11.983,(15 -21 -13 -24 -66 -18 10 40)
1969/12/31/18:00:12.011,(-16 -45 -73 -20 32 24 5 -7)
1969/12/31/18:00:12.011,(-24 49 75 25 21 32 25 21)
1969/12/31/18:00:12.012,(14 -22 -61 -29 -15 21 6 -10)
1969/12/31/18:00:12.012,(-49 -36 -8 2 5 -30 3 -1)
1969/12/31/18:00:12.030,(43 71 81 63 20 11 -7 30)
1969/12/31/18:00:12.030,(35 -30 -56 -6 13 24 25 61)
1969/12/31/18:00:12.041,(-51 -23 21 15 0 -10 -22 -91)
1969/12/31/18:00:12.041,(-4 -72 -70 -14 40 31 4 5)
1969/12/31/18:00:12.060,(30 -64 -65 -59 -108 -62 -10 34)
1969/12/31/18:00:12.060,(48 65 30 20 54 44 27 28)
1969/12/31/18:00:12.061,(-23 0 46 26 6 -16 -8 -3)
1969/12/31/18:00:12.061,(24 -8 -42 -31 -28 3 -5 4)
1969/12/31/18:00:12.088,(-76 25 52 2 -13 -29 -27 -46)
1969/12/31/18:00:12.088,(60 -5 -31 -12 -16 24 35 68)
1969/12/31/18:00:12.090,(-9 -107 -84 -30 35 7 4 -19)
1969/12/31/18:00:12.090,(11 -33 -82 -29 -53 -44 -2 10)
1969/12/31/18:00:12.108,(-5 127 104 91 87 55 20 13)
1969/12/31/18:00:12.108,(-47 -13 12 -21 -78 -49 -58 -105)
1969/12/31/18:00:12.118,(3 -21 -33 -14 -10 2 13 5)
1969/12/31/18:00:12.118,(36 12 36 19 16 -5 2 47)
1969/12/31/18:00:12.137,(15 -81 -77 -37 -6 8 21 53)
1969/12/31/18:00:12.137,(10 39 -7 29 55 -2 -30 -52)
1969/12/31/18:00:12.137,(12 93 103 30 -10 -2 -11 -13)
1969/12/31/18:00:12.139,(37 27 36 23 -5 -4 -2 -11)
1969/12/31/18:00:12.166,(-75 -41 -31 -46 -26 -3 -43 -61)
1969/12/31/18:00:12.166,(-5 -41 1 10 56 10 20 37)
1969/12/31/18:00:12.167,(-2 4 -37 26 79 67 30 -28)
1969/12/31/18:00:12.167,(-16 -27 -48 -49 -84 -95 -40 -35)
1969/12/31/18:00:12.198,(-57 -64 -35 -71 -39 -29 11 -30)
1969/12/31/18:00:12.198,(5 21 -4 19 42 13 -11 0)
1969/12/31/18:00:12.198,(68 32 25 37 86 50 23 32)
1969/12/31/18:00:12.198,(29 122 86 56 74 52 18 17)
1969/12/31/18:00:12.215,(-47 78 98 27 -89 -58 -5 -77)
1969/12/31/18:00:12.215,(47 -15 -38 -42 -48 -25 8 55)
1969/12/31/18:00:12.215,(-50 -99 -64 -37 -44 -28 -14 23)
1969/12/31/18:00:12.216,(-66 -43 -37 -10 6 17 6 -39)
1969/12/31/18:00:12.243,(-12 -28 -57 -16 24 34 -2 -59)
1969/12/31/18:00:12.243,(28 24 24 11 25 12 26 42)
1969/12/31/18:00:12.244,(-3 -9 21 -4 -37 -28 -18 -5)
1969/12/31/18:00:12.244,(-29 -79 -97 -50 -26 1 4 6)
1969/12/31/18:00:12.273,(23 0 21 5 22 13 2 12)
1969/12/31/18:00:12.273,(11 37 51 37 -9 0 -10 -15)
1969/12/31/18:00:12.274,(-25 19 22 0 -12 -18 -1 -15)
1969/12/31/18:00:12.274,(43 14 8 13 8 13 17 20)
1969/12/31/18:00:12.292,(-51 13 31 35 -3 -4 13 -6)
1969/12/31/18:00:12.292,(-3 88 78 22 41 29 -1 -38)
1969/12/31/18:00:12.293,(-38 -79 -53 -42 -28 -4 2 -28)
1969/12/31/18:00:12.293,(14 -24 -26 25 54 37 -18 -33)
1969/12/31/18:00:12.320,(18 60 47 -18 -87 -61 20 36)
1969/12/31/18:00:12.320,(-43 29 27 3 2 2 19 -23)
1969/12/31/18:00:12.322,(56 63 36 18 5 -7 2 42)
1969/12/31/18:00:12.322,(-53 -44 21 -11 0 18 19 -31)
1969/12/31/18:00:12.351,(38 -94 -126 -30 28 17 -23 18)
1969/12/31/18:00:12.351,(-39 -82 -35 -16 4 0 1 -9)
1969/12/31/18:00:12.351,(28 29 -28 -29 -29 -10 2 29)
1969/12/31/18:00:12.353,(-4 11 19 3 -35 -9 5 55)
1969/12/31/18:00:12.369,(38 9 4 -22 -43 -34 3 -3)
1969/12/31/18:00:12.369,(-15 -37 -67 37 49 10 -20 10)
1969/12/31/18:00:12.371,(13 -13 8 12 17 4 10 -2)
1969/12/31/18:00:12.371,(-14 92 114 48 -7 -2 -12 -5)
1969/12/31/18:00:12.398,(9 6 32 -5 -9 -14 -12 -11)
1969/12/31/18:00:12.398,(-7 10 -5 -8 -4 0 10 29)
1969/12/31/18:00:12.399,(-9 -39 -33 -17 -40 -24 -10 -11)
1969/12/31/18:00:12.399,(-20 19 -5 -16 0 -14 -3 -50)
1969/12/31/18:00:12.429,(-49 -55 -18 4 58 44 -14 -54)
1969/12/31/18:00:12.429,(56 -18 -45 -29 -29 -13 21 26)
1969/12/31/18:00:12.429,(-9 -8 19 32 63 19 10 42)
1969/12/31/18:00:12.429,(-77 -18 18 -17 -68 -49 -5 -25)
1969/12/31/18:00:12.447,(-4 15 -17 -7 -5 -34 -69 -40)
1969/12/31/18:00:12.447,(-35 -117 -70 -38 -18 20 13 -25)
1969/12/31/18:00:12.448,(-41 49 31 -4 -5 -11 1 -43)
1969/12/31/18:00:12.448,(57 72 57 39 35 26 8 43)
1969/12/31/18:00:12.475,(68 72 8 29 47 33 27 58)
1969/12/31/18:00:12.475,(-51 -40 42 9 -20 -15 -23 -27)
1969/12/31/18:00:12.476,(21 -31 -29 -26 -38 -8 -5 -2)
1969/12/31/18:00:12.476,(13 -64 -56 -20 17 0 -13 17)
1969/12/31/18:00:12.506,(95 85 30 35 43 35 18 60)
1969/12/31/18:00:12.506,(-24 61 89 27 -19 -23 -28 -90)
1969/12/31/18:00:12.506,(4 13 14 -24 -101 -104 -58 -17)
1969/12/31/18:00:12.506,(18 -18 -19 -6 -45 1 28 35)
1969/12/31/18:00:12.525,(-39 -62 -54 -18 43 -2 -23 -21)
1969/12/31/18:00:12.525,(-33 -52 -70 -23 26 39 28 2)
1969/12/31/18:00:12.525,(9 -21 -31 9 52 47 5 30)
1969/12/31/18:00:12.526,(23 67 74 7 -107 -99 -43 -14)
1969/12/31/18:00:12.555,(-54 -5 14 2 47 19 -6 -26)
1969/12/31/18:00:12.555,(21 -32 -29 -7 46 67 35 55)
1969/12/31/18:00:12.555,(14 25 13 -13 -92 -97 -20 21)
1969/12/31/18:00:12.555,(-39 -19 -30 -10 22 19 -7 -56)
1969/12/31/18:00:12.582,(7 -17 15 5 42 17 15 8)
1969/12/31/18:00:12.582,(-21 -14 39 34 -22 10 29 33)
1969/12/31/18:00:12.583,(57 67 17 8 36 26 12 8)
1969/12/31/18:00:12.583,(-3 -25 -17 -3 31 13 -2 -2)
1969/12/31/18:00:12.601,(-31 35 28 11 -39 20 21 6)
1969/12/31/18:00:12.601,(23 -15 -2 -11 -10 -75 -37 -15)
1969/12/31/18:00:12.602,(16 -19 -43 0 20 42 16 15)
1969/12/31/18:00:12.602,(-33 -44 -13 -11 10 -12 -18 -9)
1969/12/31/18:00:12.629,(-58 -108 -71 -56 -51 -28 -20 -58)
1969/12/31/18:00:12.629,(41 28 -69 2 72 62 12 25)
1969/12/31/18:00:12.631,(79 112 86 40 -70 -24 35 59)
1969/12/31/18:00:12.631,(26 93 99 66 36 -1 -40 6)
1969/12/31/18:00:12.660,(-8 27 13 -13 -73 -18 20 2)
1969/12/31/18:00:12.660,(-8 -41 -44 -53 -68 -42 -23 21)
1969/12/31/18:00:12.660,(-56 -109 -78 -4 67 42 23 -24)
1969/12/31/18:00:12.660,(1 -45 -86 -36 52 37 1 11)
1969/12/31/18:00:12.678,(2 35 45 28 -12 -37 1 13)
1969/12/31/18:00:12.678,(36 80 1 8 1 6 6 26)
1969/12/31/18:00:12.680,(-51 2 94 28 20 3 -16 -53)
1969/12/31/18:00:12.680,(8 -13 -35 -14 35 36 14 -14)
1969/12/31/18:00:12.707,(-5 -28 -26 -7 -53 -32 17 3)
1969/12/31/18:00:12.707,(16 28 -24 -5 39 24 -2 -4)
1969/12/31/18:00:12.708,(-81 -41 -6 -8 23 1 -4 -41)
1969/12/31/18:00:12.708,(-8 6 14 -26 -85 -49 -35 -15)
1969/12/31/18:00:12.738,(29 1 -45 -48 19 10 -2 -2)
1969/12/31/18:00:12.738,(-49 -49 19 60 35 5 -10 -26)
1969/12/31/18:00:12.738,(24 0 -17 32 65 56 36 32)
1969/12/31/18:00:12.738,(13 41 35 46 63 15 17 6)
1969/12/31/18:00:12.756,(-28 36 56 23 -11 -22 -13 10)
1969/12/31/18:00:12.756,(7 -47 -31 -50 -66 -50 -32 -3)
1969/12/31/18:00:12.757,(-30 -18 -27 -21 -8 8 -17 -42)
1969/12/31/18:00:12.757,(3 -8 -14 -24 -12 14 29 16)
1969/12/31/18:00:12.784,(-10 -15 -34 2 11 6 -7 2)
1969/12/31/18:00:12.784,(14 59 67 26 21 16 4 5)
1969/12/31/18:00:12.785,(25 7 -12 -32 -75 -49 -14 -8)
1969/12/31/18:00:12.785,(24 -16 -17 -8 20 9 2 28)
1969/12/31/18:00:12.815,(-19 15 25 28 20 14 -1 -26)
1969/12/31/18:00:12.815,(-18 -27 5 -7 -84 -27 -11 -21)
1969/12/31/18:00:12.815,(21 5 -6 -2 83 11 -23 13)
1969/12/31/18:00:12.815,(-23 -20 -27 0 1 12 14 -6)
1969/12/31/18:00:12.833,(-2 -21 -16 -2 -24 1 3 1)
1969/12/31/18:00:12.833,(6 -37 -20 -5 56 25 6 0)
1969/12/31/18:00:12.834,(-2 52 -31 -30 -42 6 -5 -19)
1969/12/31/18:00:12.834,(-20 -21 52 30 -10 -38 16 7)
1969/12/31/18:00:12.861,(-43 -42 -62 -34 -33 -12 -31 -38)
1969/12/31/18:00:12.861,(65 32 41 20 15 5 22 27)
1969/12/31/18:00:12.863,(66 72 83 54 41 52 36 89)
1969/12/31/18:00:12.863,(-95 -22 -4 -21 -36 -19 -4 -41)
1969/12/31/18:00:12.892,(55 27 5 -6 5 10 1 3)
1969/12/31/18:00:12.892,(-48 -67 -53 -36 0 -23 -13 -20)
1969/12/31/18:00:12.892,(21 -25 -45 -28 -39 -18 -7 1)
1969/12/31/18:00:12.892,(27 6 5 -12 35 37 13 24)
1969/12/31/18:00:12.912,(-5 -12 -12 12 -30 -6 1 -8)
1969/12/31/18:00:12.912,(-7 15 7 18 60 15 -10 -11)
1969/12/31/18:00:12.913,(2 3 6 27 -4 -10 -3 -6)
1969/12/31/18:00:12.913,(27 2 -14 -14 -22 -19 -11 1)
1969/12/31/18:00:12.939,(5 6 -13 -32 -34 -7 1 3)
1969/12/31/18:00:12.939,(14 12 15 8 1 0 -9 -5)
1969/12/31/18:00:12.940,(-83 -30 9 -11 -36 -18 -10 -23)
1969/12/31/18:00:12.940,(-6 -4 2 1 23 25 -2 -25)
1969/12/31/18:00:12.969,(20 13 14 26 18 -15 0 14)
1969/12/31/18:00:12.969,(13 8 -7 -21 -74 -47 -5 4)
1969/12/31/18:00:12.969,(39 13 5 -8 -2 -7 -11 -2)
1969/12/31/18:00:12.969,(-25 -35 -47 -73 -99 -39 -12 -23)
1969/12/31/18:00:12.986,(-42 -22 -1 14 41 29 -2 -2)
1969/12/31/18:00:12.986,(-30 7 17 46 42 19 4 -6)
1969/12/31/18:00:12.997,(18 1 1 24 24 35 14 21)
1969/12/31/18:00:12.997,(23 25 -2 9 -20 -52 -26 -6)
1969/12/31/18:00:13.017,(25 -29 -10 -28 -7 -26 17 38)
1969/12/31/18:00:13.017,(-35 -8 -5 -16 -43 22 18 -23)
1969/12/31/18:00:13.018,(-40 -39 -23 -15 -16 14 2 -5)
1969/12/31/18:00:13.018,(59 31 14 24 33 14 -10 25)
1969/12/31/18:00:13.047,(14 22 10 0 22 13 2 11)
1969/12/31/18:00:13.047,(62 55 23 -2 -1 -2 24 70)
1969/12/31/18:00:13.048,(-55 -75 -28 -13 -8 -25 -31 -61)
1969/12/31/18:00:13.048,(-17 -3 -9 -2 16 28 9 -35)
1969/12/31/18:00:13.064,(13 -3 10 11 7 -5 14 8)
1969/12/31/18:00:13.064,(22 19 0 -6 8 11 3 28)
1969/12/31/18:00:13.074,(-15 30 18 2 -20 -16 -15 -24)
1969/12/31/18:00:13.075,(0 -28 -18 1 9 -7 12 30)
1969/12/31/18:00:13.094,(-23 -3 0 13 14 14 -16 -35)
1969/12/31/18:00:13.094,(12 11 9 -1 -4 -4 -3 -7)
1969/12/31/18:00:13.096,(4 -1 -8 -14 -5 -10 0 7)
1969/12/31/18:00:13.096,(-6 -11 -2 11 16 10 9 18)
1969/12/31/18:00:13.124,(-13 -16 -10 1 14 7 8 48)
1969/12/31/18:00:13.124,(10 12 1 -9 -13 -8 -10 -10)
1969/12/31/18:00:13.124,(-3 7 4 -4 -5 -9 2 10)
1969/12/31/18:00:13.124,(96 46 12 21 18 22 33 47)
1969/12/31/18:00:13.141,(-58 -42 -11 -3 1 5 -16 -45)
1969/12/31/18:00:13.141,(-21 -16 -11 -16 -14 -19 -4 5)
1969/12/31/18:00:13.151,(-24 -13 -7 -3 -5 -9 -8 -3)
1969/12/31/18:00:13.151,(21 26 11 13 16 21 3 -4)
1969/12/31/18:00:13.172,(12 10 4 2 2 5 -6 -47)
1969/12/31/18:00:13.172,(-54 -39 -17 -13 -7 -16 -52 -67)
1969/12/31/18:00:13.173,(-64 -21 0 1 -1 -5 21 -4)
1969/12/31/18:00:13.173,(57 58 10 6 3 -6 1 41)
1969/12/31/18:00:13.201,(0 6 2 0 3 12 2 18)
1969/12/31/18:00:13.201,(24 9 -1 -9 -23 -11 8 16)
1969/12/31/18:00:13.201,(4 -17 -18 -33 -18 -7 -13 22)
1969/12/31/18:00:13.201,(-59 -11 2 37 28 41 6 -43)
1969/12/31/18:00:13.218,(-69 -56 -16 -7 -8 -13 -22 -48)
1969/12/31/18:00:13.218,(7 1 8 6 5 -2 4 -2)
1969/12/31/18:00:13.230,(100 41 3 -9 -5 3 8 35)
1969/12/31/18:00:13.230,(-34 -22 -1 -9 -11 -16 -7 -32)
1969/12/31/18:00:13.248,(69 75 20 18 6 2 2 24)
1969/12/31/18:00:13.248,(-63 -66 -20 -12 -2 -8 -4 -18)
1969/12/31/18:00:13.258,(35 21 10 10 10 12 19 56)
1969/12/31/18:00:13.258,(6 -13 -3 -2 2 0 -2 -8)
1969/12/31/18:00:13.277,(-48 -9 1 1 0 -4 -7 -25)
1969/12/31/18:00:13.279,(20 24 19 8 0 -1 -2 0)
1969/12/31/18:00:13.280,(17 -3 -14 -2 0 2 -3 -13)
1969/12/31/18:00:13.280,(-29 -31 -10 -6 -6 -10 -4 3)
1969/12/31/18:00:13.295,(51 15 -9 -19 -7 -2 2 22)
1969/12/31/18:00:13.295,(23 17 -3 -3 0 5 13 30)
1969/12/31/18:00:13.307,(1 -1 14 19 8 0 -4 -1)
1969/12/31/18:00:13.307,(-31 -13 -8 -9 -8 -9 -8 -29)
1969/12/31/18:00:13.324,(-8 9 15 7 4 4 2 -11)
1969/12/31/18:00:13.325,(-26 -6 -4 4 6 3 2 -10)
1969/12/31/18:00:13.335,(-4 -7 -12 -8 -8 -8 -12 -18)
1969/12/31/18:00:13.337,(-27 -27 -9 -8 -4 -7 -10 -16)
1969/12/31/18:00:13.365,(0 -7 -2 -1 -4 4 6 22)
1969/12/31/18:00:13.365,(40 30 0 -1 2 -2 -3 -6)
1969/12/31/18:00:13.368,(-49 -34 -13 -7 -4 -6 -11 -28)
1969/12/31/18:00:13.368,(3 0 -5 -6 -8 -2 1 14)
1969/12/31/18:00:13.373,(11 -8 -6 1 3 -1 0 8)
1969/12/31/18:00:13.373,(2 31 24 12 3 1 2 -1)
1969/12/31/18:00:13.384,(-3 -16 -7 -2 -1 0 1 -9)
1969/12/31/18:00:13.384,(-21 -9 -18 -14 -6 -8 -7 -2)
1969/12/31/18:00:13.402,(25 11 8 2 4 4 4 11)
1969/12/31/18:00:13.402,(-6 -7 -3 -8 1 6 2 -8)
1969/12/31/18:00:13.411,(11 16 11 15 3 -1 -5 -19)
1969/12/31/18:00:13.411,(-20 -30 -16 -8 -6 -6 -4 -4)
1969/12/31/18:00:13.433,(16 8 6 4 -1 -2 -1 9)
1969/12/31/18:00:13.433,(-19 -21 -26 -12 -4 -1 -1 -5)
1969/12/31/18:00:13.434,(0 6 0 -7 -5 -3 1 -13)
1969/12/31/18:00:13.434,(-12 7 23 19 5 1 -4 -4)
1969/12/31/18:00:13.463,(13 -12 -29 -14 -7 -3 -8 0)
1969/12/31/18:00:13.463,(-22 -16 2 3 1 0 0 -2)
1969/12/31/18:00:13.464,(-2 32 25 7 2 -1 0 -16)
1969/12/31/18:00:13.464,(18 -9 -18 -11 -5 -4 -4 10)
1969/12/31/18:00:13.480,(2 -26 2 1 -1 -3 -2 2)
1969/12/31/18:00:13.480,(-5 15 -1 8 2 0 0 -4)
1969/12/31/18:00:13.489,(7 17 10 6 2 4 3 2)
1969/12/31/18:00:13.489,(-9 6 11 6 4 0 1 1)
1969/12/31/18:00:13.510,(12 0 -9 -11 -7 -5 -5 -2)
1969/12/31/18:00:13.510,(-22 -29 -3 1 -2 -1 -3 -3)
1969/12/31/18:00:13.512,(-7 -9 -21 -11 1 -1 -1 -4)
1969/12/31/18:00:13.512,(-12 19 43 17 3 0 1 -4)
1969/12/31/18:00:13.539,(19 -13 -16 -7 -3 -1 1 3)
1969/12/31/18:00:13.539,(0 7 -1 3 4 4 8 8)
1969/12/31/18:00:13.541,(-17 -30 -34 -21 -7 -5 -8 -5)
1969/12/31/18:00:13.541,(6 -18 -27 -1 0 1 1 -1)
1969/12/31/18:00:13.558,(30 62 45 15 8 5 12 20)
1969/12/31/18:00:13.558,(-4 -8 4 7 1 -1 -3 -4)
1969/12/31/18:00:13.566,(-13 -15 -6 -3 -6 -6 -13 -8)
1969/12/31/18:00:13.566,(-1 -28 -47 -31 -13 -7 -2 -9)
1969/12/31/18:00:13.588,(-10 3 4 10 7 3 -2 -3)
1969/12/31/18:00:13.588,(9 -26 -9 -5 0 6 13 10)
1969/12/31/18:00:13.589,(2 9 -4 -6 2 5 25 14)
1969/12/31/18:00:13.589,(1 15 21 3 -4 -9 -34 -24)
1969/12/31/18:00:13.616,(-11 -13 -22 -12 -4 -5 -5 -6)
1969/12/31/18:00:13.616,(7 23 17 18 5 -1 -4 1)
1969/12/31/18:00:13.619,(-21 -31 0 1 -3 -4 -5 -12)
1969/12/31/18:00:13.619,(10 -14 -23 -15 -5 3 12 13)
1969/12/31/18:00:13.634,(-6 43 28 20 8 7 4 -1)
1969/12/31/18:00:13.634,(4 -34 -49 -29 -10 -5 -2 1)
1969/12/31/18:00:13.665,(14 1 27 16 4 3 -2 0)
1969/12/31/18:00:13.665,(-21 5 -1 -1 -5 -6 -11 -5)
1969/12/31/18:00:13.666,(-13 -32 -32 0 1 -6 -14 -19)
1969/12/31/18:00:13.666,(12 28 19 7 0 1 6 6)
1969/12/31/18:00:13.669,(2 20 2 -5 -3 0 0 -4)
1969/12/31/18:00:13.669,(17 -18 -9 -10 -5 -4 0 11)
1969/12/31/18:00:13.693,(-18 -20 -2 -10 -6 -1 0 -2)
1969/12/31/18:00:13.693,(-2 13 16 15 6 0 -4 -2)
1969/12/31/18:00:13.696,(-1 -4 -14 4 2 -1 -6 -5)
1969/12/31/18:00:13.696,(-2 -11 -7 -4 0 -1 14 6)
1969/12/31/18:00:13.711,(-8 1 0 -8 -7 -7 -13 -1)
1969/12/31/18:00:13.711,(16 34 30 1 -2 -5 -5 -1)
1969/12/31/18:00:13.720,(-3 -34 -32 -9 -3 -4 -6 2)
1969/12/31/18:00:13.720,(12 48 54 23 9 4 22 9)
1969/12/31/18:00:13.742,(-3 -14 5 12 4 0 -17 -2)
1969/12/31/18:00:13.742,(-25 -106 -39 -39 -18 -6 0 -7)
1969/12/31/18:00:13.744,(16 101 86 42 16 2 -2 -6)
1969/12/31/18:00:13.744,(-2 12 25 17 7 4 3 5)
1969/12/31/18:00:13.771,(11 -7 -17 -13 -7 -5 6 -2)
1969/12/31/18:00:13.771,(-13 -22 -9 -13 -6 -3 -9 -2)
1969/12/31/18:00:13.772,(5 17 16 12 1 -4 -6 -8)
1969/12/31/18:00:13.772,(-7 -18 -13 -3 -2 7 7 5)
1969/12/31/18:00:13.787,(3 16 19 8 1 3 6 4)
1969/12/31/18:00:13.787,(-3 6 -14 -7 -4 0 -4 0)
1969/12/31/18:00:13.800,(-7 -10 -7 -13 -7 -1 -2 -6)
1969/12/31/18:00:13.800,(4 12 2 0 1 2 -8 -4)
1969/12/31/18:00:13.820,(-4 -4 -2 0 1 3 9 2)
1969/12/31/18:00:13.820,(2 18 9 6 2 -1 -6 -8)
1969/12/31/18:00:13.821,(-11 -56 -9 -8 -7 -1 -4 1)
1969/12/31/18:00:13.821,(8 11 6 11 4 5 0 -5)
1969/12/31/18:00:13.848,(-6 -7 -7 -5 -3 1 -4 -2)
1969/12/31/18:00:13.848,(2 21 8 10 3 4 5 1)
1969/12/31/18:00:13.851,(-5 -20 -13 -7 -4 1 -2 -5)
1969/12/31/18:00:13.851,(-8 -22 -18 -18 -11 -5 -12 -5)
1969/12/31/18:00:13.866,(5 34 36 16 5 3 8 1)
1969/12/31/18:00:13.866,(1 12 6 11 5 2 -2 0)
1969/12/31/18:00:13.878,(-8 -11 -16 -4 0 0 0 2)
1969/12/31/18:00:13.878,(5 4 -6 -8 -5 -8 -2 -1)
1969/12/31/18:00:13.897,(4 -4 -23 -9 -3 -5 3 8)
1969/12/31/18:00:13.897,(4 5 -9 1 3 -10 -1 7)
1969/12/31/18:00:13.898,(1 3 -12 -7 4 -10 9 11)
1969/12/31/18:00:13.898,(-3 9 -15 -8 3 -12 5 7)
1969/12/31/18:00:13.925,(-10 -22 0 -2 4 -8 -1 -5)
1969/12/31/18:00:13.925,(2 8 3 -2 1 -6 2 3)
1969/12/31/18:00:13.928,(2 24 -2 -3 2 -5 -6 -3)
1969/12/31/18:00:13.928,(-4 -11 -2 -1 2 1 -1 -2)
1969/12/31/18:00:13.943,(-2 -4 0 -5 -2 3 4 0)
1969/12/31/18:00:13.943,(-5 4 4 0 -5 -2 -4 -7)
1969/12/31/18:00:13.955,(0 -8 -1 1 -4 2 -5 -1)
1969/12/31/18:00:13.955,(4 1 9 7 1 0 -3 2)
1969/12/31/18:00:13.973,(-3 -4 0 -1 -1 3 7 -4)
1969/12/31/18:00:13.973,(-3 0 0 0 -2 1 -3 -3)
1969/12/31/18:00:13.982,(-1 -9 -3 -2 -2 3 -4 -4)
1969/12/31/18:00:13.982,(-4 -1 -2 -2 -5 0 -4 -5)
1969/12/31/18:00:14.004,(3 8 2 -1 -1 4 0 2)
1969/12/31/18:00:14.004,(4 5 6 2 3 8 2 4)
1969/12/31/18:00:14.005,(1 5 3 4 -2 1 -1 -2)
1969/12/31/18:00:14.005,(-3 -6 -16 -9 -1 8 4 2)
1969/12/31/18:00:14.021,(-1 -3 16 4 -2 1 -7 -10)
1969/12/31/18:00:14.021,(-3 -3 -8 0 -1 3 1 -4)
1969/12/31/18:00:14.032,(-14 -17 -19 -13 -5 -3 -6 -8)
1969/12/31/18:00:14.032,(10 10 16 11 2 -1 -3 3)
1969/12/31/18:00:14.050,(-13 -12 -12 -5 0 0 7 0)
1969/12/31/18:00:14.050,(5 11 1 -4 -2 -4 -2 0)
1969/12/31/18:00:14.059,(13 13 10 1 -1 -1 2 7)
1969/12/31/18:00:14.059,(-15 -17 -4 2 3 -1 -3 -8)
1969/12/31/18:00:14.080,(4 2 -4 -2 -2 -3 -4 -4)
1969/12/31/18:00:14.080,(-1 1 3 4 -1 -1 -5 -5)
1969/12/31/18:00:14.082,(-3 -3 -9 -4 -3 0 -1 -2)
1969/12/31/18:00:14.082,(3 1 -7 -14 -6 -3 -2 -3)
1969/12/31/18:00:14.098,(4 2 4 11 1 0 -1 2)
1969/12/31/18:00:14.098,(-1 -2 -7 -7 0 2 1 -1)
1969/12/31/18:00:14.109,(0 0 2 2 3 -2 0 -1)
1969/12/31/18:00:14.109,(-1 1 8 8 2 -1 -3 -3)
1969/12/31/18:00:14.129,(-2 -6 -19 -17 -5 -2 -2 -1)
1969/12/31/18:00:14.129,(-2 -1 -1 1 0 -3 -2 -1)
1969/12/31/18:00:14.130,(-1 -8 -8 0 -3 -2 0 -1)
1969/12/31/18:00:14.130,(-6 -4 0 -4 -4 -2 -3 -7)
1969/12/31/18:00:14.157,(-2 -2 -9 -5 -3 -1 1 2)
1969/12/31/18:00:14.157,(7 9 10 4 1 -1 -2 1)
1969/12/31/18:00:14.160,(-3 -3 -3 -4 -4 -3 -3 -4)
1969/12/31/18:00:14.160,(-2 2 -3 -3 -1 -1 0 -1)
1969/12/31/18:00:14.175,(3 2 4 4 2 0 2 4)
1969/12/31/18:00:14.175,(-6 -7 -8 -12 -6 -2 -3 -2)
1969/12/31/18:00:14.206,(0 4 9 8 0 0 -2 -3)
1969/12/31/18:00:14.206,(-4 -6 -2 -2 -2 0 -4 -4)
1969/12/31/18:00:14.207,(0 0 2 1 -1 -2 -3 -1)
1969/12/31/18:00:14.207,(1 -1 2 3 1 -2 0 -2)
1969/12/31/18:00:14.210,(-4 -6 -7 -4 -2 -2 1 -2)
1969/12/31/18:00:14.210,(2 5 2 1 -2 -2 -1 1)
1969/12/31/18:00:14.237,(-2 -3 -4 -2 0 -2 -2 0)
1969/12/31/18:00:14.237,(-3 -3 -3 2 -1 0 1 -3)
1969/12/31/18:00:14.240,(-3 -5 -2 -4 -1 -1 -1 1)
1969/12/31/18:00:14.240,(2 3 -3 -2 -4 -3 -1 1)
1969/12/31/18:00:14.252,(-3 -9 -2 -1 -3 -2 -2 0)
1969/12/31/18:00:14.252,(0 4 2 1 -2 -2 -1 -2)
1969/12/31/18:00:14.264,(0 0 -2 -3 -1 -1 0 3)
1969/12/31/18:00:14.264,(-6 -12 2 -1 -1 -2 -4 -6)
1969/12/31/18:00:14.283,(0 2 -4 0 0 -2 1 -1)
1969/12/31/18:00:14.283,(0 -1 0 2 0 -1 -1 0)
1969/12/31/18:00:14.285,(-2 -1 2 4 1 -1 0 -1)
1969/12/31/18:00:14.285,(-1 0 -4 -8 -2 -3 1 -2)
1969/12/31/18:00:14.312,(-2 -3 -2 0 -3 -1 0 2)
1969/12/31/18:00:14.312,(-2 -4 -6 -5 -3 0 2 -1)
1969/12/31/18:00:14.314,(1 1 -2 -5 -3 -2 -1 -2)
1969/12/31/18:00:14.314,(2 6 3 4 0 0 0 1)
1969/12/31/18:00:14.330,(0 -5 -6 -4 -1 -1 0 -2)
1969/12/31/18:00:14.330,(-1 8 3 1 1 -1 -2 0)
1969/12/31/18:00:14.341,(0 -1 -4 -5 -2 -1 -1 -2)
1969/12/31/18:00:14.341,(-3 -6 -4 -2 -1 -1 -1 2)
1969/12/31/18:00:14.359,(-1 1 -5 0 0 1 -2 -2)
1969/12/31/18:00:14.359,(0 -6 3 6 2 1 0 2)
1969/12/31/18:00:14.370,(-2 0 0 2 2 0 0 -1)
1969/12/31/18:00:14.370,(0 -1 2 4 2 0 1 0)
1969/12/31/18:00:14.389,(1 4 2 -1 -1 -1 1 1)
1969/12/31/18:00:14.389,(-3 -4 0 2 0 -2 -1 -2)
1969/12/31/18:00:14.390,(-2 2 4 4 0 -2 -2 -3)
1969/12/31/18:00:14.390,(-4 -9 -10 -3 -2 -2 -2 -3)
1969/12/31/18:00:14.428,(-2 1 2 -1 -2 -1 -1 1)
1969/12/31/18:00:14.428,(1 0 1 1 1 1 1 0)
1969/12/31/18:00:14.430,(0 2 2 0 1 0 1 2)
1969/12/31/18:00:14.430,(0 2 0 -1 -2 -2 -1 1)
1969/12/31/18:00:14.438,(-3 -4 -2 -1 0 -2 -3 -3)
1969/12/31/18:00:14.438,(-1 0 1 -3 -2 0 -1 -1)
1969/12/31/18:00:14.439,(0 -6 -6 -2 -1 1 -1 1)
1969/12/31/18:00:14.439,(0 4 9 6 2 0 -2 0)
1969/12/31/18:00:14.466,(0 3 6 5 2 0 -2 -2)
1969/12/31/18:00:14.466,(0 0 -6 -5 -3 -3 -2 0)
1969/12/31/18:00:14.468,(-3 -5 -1 -2 -1 0 -1 -3)
1969/12/31/18:00:14.468,(-1 -2 -3 -3 -1 0 0 -1)
1969/12/31/18:00:14.484,(-2 1 1 -2 -1 -2 -2 0)
1969/12/31/18:00:14.484,(-2 -2 3 0 0 1 -1 -2)
1969/12/31/18:00:14.496,(0 -2 -12 -6 -2 -1 0 -1)
1969/12/31/18:00:14.496,(1 7 8 7 4 1 0 1)
1969/12/31/18:00:14.514,(-5 -7 -4 -2 -3 -1 -2 -3)
1969/12/31/18:00:14.514,(-1 -1 -4 -1 -1 0 -1 -2)
1969/12/31/18:00:14.516,(-1 -4 -3 -4 -2 -2 -2 -1)
1969/12/31/18:00:14.516,(1 0 -5 -3 -2 -3 -2 0)
1969/12/31/18:00:14.516,(-2 1 11 11 0 1 2 -2)
1969/12/31/18:00:14.516,(14 6 -1 7 3 3 4 21)
1969/12/31/18:00:14.534,(0 -5 -2 -11 -4 -3 0 -6)
1969/12/31/18:00:14.534,(-16 -33 -48 -35 -10 -5 1 5)
1969/12/31/18:00:14.537,(-1 62 47 20 3 -8 -6 -13)
1969/12/31/18:00:14.537,(11 -22 23 26 6 2 1 7)
1969/12/31/18:00:14.564,(-3 19 0 -1 4 -1 1 -5)
1969/12/31/18:00:14.564,(12 12 11 9 5 4 8 12)
1969/12/31/18:00:14.567,(-18 -72 -50 -21 -11 -4 -4 -11)
1969/12/31/18:00:14.567,(-2 12 -41 -12 -4 -2 -1 -5)
1969/12/31/18:00:14.594,(13 28 58 78 27 8 3 5)
1969/12/31/18:00:14.594,(-1 14 35 -5 1 6 2 -6)
1969/12/31/18:00:14.601,(3 4 -5 -13 -7 -1 0 1)
1969/12/31/18:00:14.601,(-7 -16 2 -17 -2 1 -1 -7)
1969/12/31/18:00:14.613,(-15 -45 -60 -46 -18 -9 -19 -12)
1969/12/31/18:00:14.613,(-5 5 0 18 -1 0 -3 -13)
1969/12/31/18:00:14.614,(-6 -1 6 -3 0 3 -6 -5)
1969/12/31/18:00:14.614,(7 2 -2 -2 -1 4 6 10)
1969/12/31/18:00:14.641,(-7 3 -8 -14 -9 -1 -3 -13)
1969/12/31/18:00:14.641,(-8 -4 24 13 -2 -2 -7 -14)
1969/12/31/18:00:14.643,(9 -1 -38 -21 -7 -3 -5 -5)
1969/12/31/18:00:14.643,(6 21 47 27 6 3 1 4)
1969/12/31/18:00:14.659,(-3 2 7 4 1 -3 -1 -2)
1969/12/31/18:00:14.659,(0 -2 -12 1 -2 -2 -2 -1)
1969/12/31/18:00:14.671,(0 -25 -24 -5 0 -1 7 12)
1969/12/31/18:00:14.671,(-4 -2 -9 -8 -1 0 -4 0)
1969/12/31/18:00:14.689,(10 30 18 -4 -2 -5 3 4)
1969/12/31/18:00:14.689,(4 13 15 21 9 0 4 5)
1969/12/31/18:00:14.698,(3 9 4 2 1 -1 3 3)
1969/12/31/18:00:14.698,(-8 -9 -6 -4 -2 -5 -3 -5)
1969/12/31/18:00:14.719,(-7 -31 -27 -17 -6 -7 1 3)
1969/12/31/18:00:14.719,(-1 -4 -19 -9 -1 -7 0 1)
1969/12/31/18:00:14.721,(1 8 14 6 3 -2 1 1)
1969/12/31/18:00:14.721,(-4 -7 -12 -13 -7 -8 -4 -4)
1969/12/31/18:00:14.748,(18 6 -1 0 1 -1 5 12)
1969/12/31/18:00:14.748,(-1 11 7 1 3 0 0 -10)
1969/12/31/18:00:14.756,(-23 -21 -2 -3 -2 -3 -1 17)
1969/12/31/18:00:14.756,(-16 -6 -4 -1 -3 -3 0 -5)
1969/12/31/18:00:14.766,(4 -2 0 -4 -2 -3 -6 -4)
1969/12/31/18:00:14.766,(29 9 -2 -1 1 0 6 18)
1969/12/31/18:00:14.775,(-22 -11 0 -4 -3 -1 2 -10)
1969/12/31/18:00:14.775,(-20 6 6 4 5 -1 -19 -18)
1969/12/31/18:00:14.796,(-19 0 13 5 2 6 2 -6)
1969/12/31/18:00:14.796,(5 -4 -1 -2 -4 3 -6 -6)
1969/12/31/18:00:14.797,(-5 -1 5 5 -1 -1 -1 -5)
1969/12/31/18:00:14.797,(22 10 1 0 -3 10 11 22)
1969/12/31/18:00:14.824,(-8 -8 -5 1 1 -2 -9 -14)
1969/12/31/18:00:14.826,(2 -3 -8 -3 -2 -4 0 -5)
1969/12/31/18:00:14.827,(23 21 11 6 6 -1 0 3)
1969/12/31/18:00:14.827,(-37 -10 -1 0 -1 11 -11 -12)
1969/12/31/18:00:14.844,(25 -1 -7 -7 -3 -2 16 13)
1969/12/31/18:00:14.844,(-29 -5 -3 1 -5 -11 7 -15)
1969/12/31/18:00:14.853,(-6 -15 -6 -6 -1 4 -19 -13)
1969/12/31/18:00:14.853,(10 1 -4 -6 -1 -3 4 5)
1969/12/31/18:00:14.873,(9 0 0 -1 1 7 0 17)
1969/12/31/18:00:14.873,(-35 -13 -12 -6 -4 -16 -20 -17)
1969/12/31/18:00:14.876,(29 12 3 -3 -5 -18 -3 1)
1969/12/31/18:00:14.876,(-20 -10 -15 -10 -1 11 12 1)
1969/12/31/18:00:14.902,(15 7 4 7 6 3 11 13)
1969/12/31/18:00:14.902,(43 18 18 12 7 -8 -11 7)
1969/12/31/18:00:14.904,(-69 -11 12 2 -3 7 10 -31)
1969/12/31/18:00:14.904,(16 3 5 1 -3 3 -11 0)
1969/12/31/18:00:14.921,(-29 -13 -10 -11 -11 -9 11 -23)
1969/12/31/18:00:14.921,(24 6 -1 -3 -7 -27 12 55)
1969/12/31/18:00:14.930,(-15 -29 -17 -11 -6 36 -8 -31)
1969/12/31/18:00:14.930,(2 8 4 -1 2 52 13 -5)
1969/12/31/18:00:14.949,(-7 -1 5 5 -11 -62 -34 -2)
1969/12/31/18:00:14.949,(-29 -20 -12 -4 -3 12 -11 -48)
1969/12/31/18:00:14.961,(27 22 13 11 8 -14 7 27)
1969/12/31/18:00:14.961,(23 3 1 3 -1 1 -3 7)
1969/12/31/18:00:14.980,(-2 12 10 9 5 28 23 9)
1969/12/31/18:00:14.980,(12 0 -6 -3 -7 -3 -20 -5)
1969/12/31/18:00:14.981,(-28 -18 -9 -5 -2 9 23 -8)
1969/12/31/18:00:14.981,(8 8 -2 -3 -6 -22 -1 -4)
1969/12/31/18:00:14.998,(-21 -4 -4 -2 2 -6 -12 -6)
1969/12/31/18:00:14.998,(-7 -13 -5 -3 -1 10 5 8)
1969/12/31/18:00:15.007,(21 15 4 3 1 10 1 13)
1969/12/31/18:00:15.007,(60 15 7 11 21 76 52 61)
1969/12/31/18:00:15.028,(-24 -10 -10 -9 -15 -76 -41 -19)
1969/12/31/18:00:15.028,(-19 -7 1 2 3 13 8 -21)
1969/12/31/18:00:15.030,(29 20 0 1 2 11 -19 -12)
1969/12/31/18:00:15.030,(-6 11 6 6 0 -35 -1 12)
1969/12/31/18:00:15.056,(8 -26 -19 -14 5 74 -32 -38)
1969/12/31/18:00:15.056,(-4 8 11 5 -12 -37 28 64)
1969/12/31/18:00:15.059,(-7 4 4 7 11 40 18 6)
1969/12/31/18:00:15.059,(1 15 15 8 2 -33 -30 17)
1969/12/31/18:00:15.086,(-22 -10 -3 0 6 46 17 -30)
1969/12/31/18:00:15.086,(10 0 -6 -7 -8 -50 -15 -7)
1969/12/31/18:00:15.088,(-8 -11 -10 -9 -13 -30 -24 -34)
1969/12/31/18:00:15.088,(-11 1 -2 -3 1 7 6 -10)
1969/12/31/18:00:15.105,(22 -1 7 7 1 -4 10 37)
1969/12/31/18:00:15.105,(6 8 2 4 4 4 2 -13)
1969/12/31/18:00:15.106,(9 9 1 0 -1 -1 12 31)
1969/12/31/18:00:15.106,(-30 -25 -9 -6 -9 -57 -38 -46)
1969/12/31/18:00:15.133,(1 2 -2 -2 -5 1 -6 -10)
1969/12/31/18:00:15.133,(-8 -3 -8 -7 9 92 21 -13)
1969/12/31/18:00:15.136,(7 -12 -2 -2 -14 -66 -27 -41)
1969/12/31/18:00:15.136,(-27 -10 -4 -5 -8 -16 -39 -86)
1969/12/31/18:00:15.153,(-18 3 -3 -7 -3 0 23 0)
1969/12/31/18:00:15.153,(19 4 10 9 9 -6 -45 17)
1969/12/31/18:00:15.184,(57 48 12 8 11 33 77 7)
1969/12/31/18:00:15.184,(-59 -48 -23 -16 -16 -19 -54 -40)
1969/12/31/18:00:15.185,(-2 3 9 5 0 -8 9 -21)
1969/12/31/18:00:15.185,(-34 -8 1 0 -3 0 -22 -28)
1969/12/31/18:00:15.186,(8 7 3 4 9 19 7 20)
1969/12/31/18:00:15.186,(11 -12 -8 -7 -7 -7 3 -11)
1969/12/31/18:00:15.212,(15 16 9 8 8 2 17 39)
1969/12/31/18:00:15.212,(-21 -27 -21 -12 -15 -54 -6 -33)
1969/12/31/18:00:15.213,(-26 -12 -4 -3 -7 -12 -25 4)
1969/12/31/18:00:15.213,(-17 -16 -10 -10 5 12 33 12)
1969/12/31/18:00:15.229,(23 12 7 3 -1 -16 -29 23)
1969/12/31/18:00:15.229,(9 6 5 4 5 38 44 28)
1969/12/31/18:00:15.240,(-18 6 -5 -6 -9 -28 -21 -1)
1969/12/31/18:00:15.240,(25 1 1 -1 -3 31 30 14)
1969/12/31/18:00:15.260,(7 7 4 2 2 5 34 49)
1969/12/31/18:00:15.260,(-22 -6 -7 -8 0 10 -31 -52)
1969/12/31/18:00:15.261,(0 -13 -6 -3 -11 -44 18 59)
1969/12/31/18:00:15.261,(16 22 9 4 8 52 -5 -21)
1969/12/31/18:00:15.288,(-27 -14 -8 -6 -5 14 -2 -3)
1969/12/31/18:00:15.288,(18 5 3 1 3 25 33 37)
1969/12/31/18:00:15.297,(7 -1 5 3 9 18 -14 10)
1969/12/31/18:00:15.297,(-1 -1 0 -1 -10 -42 -15 -24)
1969/12/31/18:00:15.306,(31 7 1 2 -2 -14 21 35)
1969/12/31/18:00:15.306,(-7 10 5 8 12 34 11 -8)
1969/12/31/18:00:15.318,(2 -3 3 2 5 -6 -19 -51)
1969/12/31/18:00:15.318,(6 6 4 6 8 -44 16 57)
1969/12/31/18:00:15.337,(3 3 -1 -1 13 79 -8 -19)
1969/12/31/18:00:15.337,(0 -10 -10 -8 -22 -96 -28 -27)
1969/12/31/18:00:15.340,(15 4 -2 -3 11 -1 -5 30)
1969/12/31/18:00:15.340,(-7 1 3 4 -11 3 8 49)
1969/12/31/18:00:15.367,(-12 -2 0 1 -10 -36 -8 -40)
1969/12/31/18:00:15.367,(8 2 -1 2 11 46 -16 -31)
1969/12/31/18:00:15.368,(-13 -3 -2 -2 -17 -5 -8 30)
1969/12/31/18:00:15.368,(-16 -5 -3 -7 6 1 26 17)
1969/12/31/18:00:15.395,(12 -2 -7 -5 16 4 -15 -15)
1969/12/31/18:00:15.395,(7 8 3 7 17 29 13 30)
1969/12/31/18:00:15.397,(-6 -21 -15 -12 -25 -24 -8 -14)
1969/12/31/18:00:15.397,(7 8 0 3 23 59 18 28)
1969/12/31/18:00:15.414,(0 9 18 35 65 -57 4 16)
1969/12/31/18:00:15.414,(-30 -12 -4 -11 -86 -95 -10 -45)
1969/12/31/18:00:15.417,(27 16 9 5 22 -21 -10 18)
1969/12/31/18:00:15.417,(-10 -22 -19 -23 -37 0 -62 -67)
1969/12/31/18:00:15.444,(-20 -6 -10 -19 -26 6 -2 -18)
1969/12/31/18:00:15.444,(-7 4 0 4 8 -1 -26 -14)
1969/12/31/18:00:15.445,(-21 -18 -3 4 -16 -62 -4 -7)
1969/12/31/18:00:15.445,(-6 -1 5 37 90 68 25 9)
1969/12/31/18:00:15.461,(27 12 1 0 -13 67 50 88)
1969/12/31/18:00:15.461,(-18 -22 -22 -59 -70 -72 -9 6)
1969/12/31/18:00:15.472,(15 14 5 -11 -19 -3 -14 -2)
1969/12/31/18:00:15.472,(-3 12 2 2 27 5 27 -4)
1969/12/31/18:00:15.492,(-6 -2 7 27 57 33 7 7)
1969/12/31/18:00:15.492,(13 6 14 39 62 27 44 47)
1969/12/31/18:00:15.494,(-3 -12 -9 -12 -72 -44 -13 -7)
1969/12/31/18:00:15.494,(10 7 -8 -19 -19 -10 7 7)
1969/12/31/18:00:15.540,(31 24 11 -2 -54 -29 -14 -4)
1969/12/31/18:00:15.540,(-8 -2 -2 -17 -10 20 4 -12)
1969/12/31/18:00:15.543,(-13 -13 -7 8 82 105 10 -22)
1969/12/31/18:00:15.543,(5 10 7 4 -55 -96 -15 3)
1969/12/31/18:00:15.544,(-11 -4 -10 -9 -1 22 -15 -26)
1969/12/31/18:00:15.544,(40 7 2 9 41 41 37 51)
1969/12/31/18:00:15.549,(3 3 4 9 9 2 -38 -10)
1969/12/31/18:00:15.549,(11 5 6 11 36 -14 -17 -2)
1969/12/31/18:00:15.569,(-23 -32 -22 -23 -88 -64 -26 -63)
1969/12/31/18:00:15.569,(-4 -13 -9 -13 9 37 -4 23)
1969/12/31/18:00:15.571,(9 14 5 8 37 58 46 16)
1969/12/31/18:00:15.571,(4 5 2 -14 -64 -35 -17 -20)
1969/12/31/18:00:15.598,(37 24 -5 5 35 -15 -10 34)
1969/12/31/18:00:15.598,(57 8 24 30 26 22 8 75)
1969/12/31/18:00:15.600,(-46 -2 -8 -18 -26 -12 -1 -42)
1969/12/31/18:00:15.600,(-2 -17 -28 -22 -16 -8 -11 7)
1969/12/31/18:00:15.615,(6 -17 14 7 13 -4 8 17)
1969/12/31/18:00:15.615,(8 28 54 27 4 -9 1 32)
1969/12/31/18:00:15.627,(-58 -30 -30 0 33 67 3 -42)
1969/12/31/18:00:15.627,(-9 10 7 4 -22 -37 16 12)
1969/12/31/18:00:15.646,(4 -4 -35 -31 -2 10 0 -10)
1969/12/31/18:00:15.646,(-18 26 35 17 36 47 -22 -41)
1969/12/31/18:00:15.665,(48 22 76 20 -67 -72 5 58)
1969/12/31/18:00:15.665,(-8 21 -41 -9 10 -20 -25 -52)
1969/12/31/18:00:15.676,(-57 -86 -41 -21 -25 3 17 47)
1969/12/31/18:00:15.676,(-1 -25 -45 -11 30 17 0 -19)
1969/12/31/18:00:15.677,(22 0 -14 -1 -6 -6 22 59)
1969/12/31/18:00:15.677,(38 65 91 32 -5 22 1 8)
1969/12/31/18:00:15.692,(20 8 0 6 49 13 6 67)
1969/12/31/18:00:15.692,(-32 -35 -33 -8 37 32 13 -90)
1969/12/31/18:00:15.704,(-7 -68 -58 -46 -95 -95 -48 -20)
1969/12/31/18:00:15.704,(-10 -66 -98 -76 -30 -5 -18 -36)
1969/12/31/18:00:15.723,(-25 74 107 55 50 23 13 7)
1969/12/31/18:00:15.723,(-1 25 15 10 5 22 17 44)
1969/12/31/18:00:15.726,(-7 19 37 43 66 36 6 -95)
1969/12/31/18:00:15.726,(17 -26 -27 21 59 45 9 26)
1969/12/31/18:00:15.752,(7 -50 -57 -48 -6 8 -1 -28)
1969/12/31/18:00:15.752,(0 -7 32 -13 -113 -60 3 -18)
1969/12/31/18:00:15.754,(-23 71 50 25 15 -11 -30 -23)
1969/12/31/18:00:15.754,(-18 -70 -23 -1 24 -5 -11 -41)
1969/12/31/18:00:15.770,(-23 52 7 26 24 23 -1 -45)
1969/12/31/18:00:15.770,(-5 54 56 24 -15 -27 13 64)
1969/12/31/18:00:15.783,(-58 -27 -9 -7 33 28 -16 -37)
1969/12/31/18:00:15.783,(-28 -6 59 26 4 -6 13 30)
1969/12/31/18:00:15.810,(42 -90 -112 -53 -57 -15 -2 55)
1969/12/31/18:00:15.810,(-5 46 11 -14 -2 -20 -20 26)
1969/12/31/18:00:15.812,(41 4 -5 5 30 14 18 52)
1969/12/31/18:00:15.812,(21 -42 -86 -36 5 17 16 75)
1969/12/31/18:00:15.829,(-40 9 111 37 -38 -23 -12 -61)
1969/12/31/18:00:15.829,(74 13 -76 -24 -35 -42 -5 38)
1969/12/31/18:00:15.832,(14 -8 -26 -3 58 57 38 20)
1969/12/31/18:00:15.832,(9 6 12 -7 -22 -14 -31 -67)
1969/12/31/18:00:15.847,(7 77 61 51 15 -14 4 17)
1969/12/31/18:00:15.847,(-62 -29 -53 -18 -12 -27 -25 -8)
1969/12/31/18:00:15.859,(-16 -2 55 3 -24 -7 -17 -9)
1969/12/31/18:00:15.859,(-11 -23 -46 16 104 106 38 -17)
1969/12/31/18:00:15.878,(15 -113 -113 -98 -123 -121 -29 -10)
1969/12/31/18:00:15.878,(-62 75 90 29 25 -4 -42 -64)
1969/12/31/18:00:15.881,(69 81 -23 14 28 -3 1 38)
1969/12/31/18:00:15.881,(-10 46 51 10 -39 -21 -15 -11)
1969/12/31/18:00:15.908,(-47 -55 -27 8 53 49 -4 -19)
1969/12/31/18:00:15.908,(5 -128 -128 -64 -22 -7 7 0)
1969/12/31/18:00:15.909,(-5 44 69 24 -6 0 14 29)
1969/12/31/18:00:15.909,(19 53 22 18 -26 -18 -16 -43)
1969/12/31/18:00:15.924,(-40 60 67 39 14 -9 -23 -40)
1969/12/31/18:00:15.924,(38 -27 -11 -18 -9 3 5 9)
1969/12/31/18:00:15.936,(-30 -56 -38 17 102 91 -5 -29)
1969/12/31/18:00:15.936,(-3 -54 -25 -53 -109 -95 37 48)
1969/12/31/18:00:15.954,(-9 72 33 4 21 -6 -22 5)
1969/12/31/18:00:15.954,(-34 0 32 13 23 -8 -45 -89)
1969/12/31/18:00:15.963,(24 11 -1 2 7 11 27 16)
1969/12/31/18:00:15.963,(-2 -54 -36 -4 20 21 1 3)
1969/12/31/18:00:15.986,(-33 -8 -27 -16 -2 1 -12 -33)
1969/12/31/18:00:15.986,(18 -18 -5 24 38 35 21 19)
1969/12/31/18:00:15.987,(13 94 -18 -38 -76 -39 5 30)
1969/12/31/18:00:15.987,(-25 -46 52 9 -18 -5 -17 49)
1969/12/31/18:00:16.002,(19 50 23 10 1 -4 -7 -28)
1969/12/31/18:00:16.002,(-8 0 -16 -3 16 23 5 -14)
1969/12/31/18:00:16.013,(21 -111 -60 -7 14 -7 15 47)
1969/12/31/18:00:16.013,(2 74 5 1 -4 2 -2 -8)
1969/12/31/18:00:16.031,(-13 -56 -43 -49 -50 -22 -7 -2)
1969/12/31/18:00:16.031,(10 56 19 -4 44 36 4 -34)
1969/12/31/18:00:16.040,(-12 -77 -60 -70 -82 -50 -9 -3)
1969/12/31/18:00:16.040,(-4 76 82 110 112 15 6 19)
1969/12/31/18:00:16.062,(84 -1 -36 15 -60 3 2 53)
1969/12/31/18:00:16.062,(-27 86 95 89 13 25 14 -29)
1969/12/31/18:00:16.063,(-42 -1 11 -12 -29 -10 2 -13)
1969/12/31/18:00:16.063,(68 36 -28 -14 0 -24 -24 20)
1969/12/31/18:00:16.090,(19 -12 -34 -15 76 41 10 -9)
1969/12/31/18:00:16.090,(7 66 57 19 -29 -26 -9 14)
1969/12/31/18:00:16.092,(-21 -41 -14 -9 0 -3 -4 18)
1969/12/31/18:00:16.093,(-28 -64 -34 -50 -94 -56 -9 -32)
1969/12/31/18:00:16.109,(5 -2 -33 25 78 73 40 0)
1969/12/31/18:00:16.109,(38 -60 -50 -40 -70 -34 -5 45)
1969/12/31/18:00:16.118,(-45 40 62 28 6 10 -37 -81)
1969/12/31/18:00:16.118,(16 -29 -24 -3 37 22 2 42)
1969/12/31/18:00:16.139,(5 -119 -90 -59 13 21 41 54)
1969/12/31/18:00:16.139,(-34 91 95 54 -75 -53 -12 -16)
1969/12/31/18:00:16.142,(13 -9 -44 1 12 3 -10 -15)
1969/12/31/18:00:16.142,(17 -70 -61 -47 -26 17 14 -8)
1969/12/31/18:00:16.168,(0 46 96 59 29 -24 1 21)
1969/12/31/18:00:16.168,(5 0 -41 -3 62 18 15 28)
1969/12/31/18:00:16.170,(39 7 -25 -33 -70 -38 -18 -28)
1969/12/31/18:00:16.170,(-31 12 40 28 38 32 3 -1)
1969/12/31/18:00:16.186,(-8 13 -3 -11 -46 -10 19 -25)
1969/12/31/18:00:16.186,(20 -128 -121 -39 102 36 3 26)
1969/12/31/18:00:16.195,(-60 43 47 6 -79 -78 -90 -95)
1969/12/31/18:00:16.195,(-51 40 36 -2 -42 -2 24 -7)
1969/12/31/18:00:16.215,(9 9 -3 3 2 -18 -29 -41)
1969/12/31/18:00:16.215,(-11 -45 -30 -7 8 24 25 -25)
1969/12/31/18:00:16.218,(31 -16 -52 -4 72 38 52 59)
1969/12/31/18:00:16.218,(-10 -37 -9 -24 -31 -8 -51 -40)
1969/12/31/18:00:16.255,(-43 -20 -57 -40 -60 -38 -1 -42)
1969/12/31/18:00:16.255,(-14 31 61 19 -11 -19 -32 -42)
1969/12/31/18:00:16.257,(49 79 74 63 72 37 5 -5)
1969/12/31/18:00:16.257,(38 16 -32 -11 -39 -44 13 55)
1969/12/31/18:00:16.263,(-8 7 0 -4 69 36 6 -29)
1969/12/31/18:00:16.263,(-3 43 -13 -24 -92 -26 -23 -30)
1969/12/31/18:00:16.272,(1 -57 -71 -14 13 0 7 31)
1969/12/31/18:00:16.272,(-36 15 63 37 36 17 16 -9)
1969/12/31/18:00:16.293,(85 5 -20 10 41 29 7 71)
1969/12/31/18:00:16.293,(-48 -99 -18 -7 -41 -28 11 -45)
1969/12/31/18:00:16.295,(19 33 -17 -7 -2 -15 -2 5)
1969/12/31/18:00:16.295,(-39 46 52 28 -13 5 -16 -31)
1969/12/31/18:00:16.322,(-56 -100 -60 -19 26 23 11 3)
1969/12/31/18:00:16.322,(35 21 -15 -15 4 0 13 113)
1969/12/31/18:00:16.330,(23 43 -15 -9 12 16 11 -11)
1969/12/31/18:00:16.330,(-22 -32 7 9 0 -8 4 -12)
1969/12/31/18:00:16.340,(4 76 61 19 -63 -46 -25 -28)
1969/12/31/18:00:16.340,(45 -12 1 -5 12 -11 6 67)
1969/12/31/18:00:16.349,(0 -117 -87 -32 -11 19 2 -6)
1969/12/31/18:00:16.349,(-15 43 26 29 99 44 20 19)
1969/12/31/18:00:16.379,(-13 94 127 31 -60 -19 -14 -29)
1969/12/31/18:00:16.379,(-8 -95 -96 -46 -22 -41 -27 -23)
1969/12/31/18:00:16.391,(7 -20 11 19 53 78 61 52)
1969/12/31/18:00:16.391,(-12 -24 -47 -29 -37 -45 -37 -73)
1969/12/31/18:00:16.400,(42 23 -4 0 -31 -21 11 21)
1969/12/31/18:00:16.400,(-60 -69 -60 -18 73 33 -3 -78)
1969/12/31/18:00:16.402,(-46 15 29 2 -45 -25 0 -5)
1969/12/31/18:00:16.402,(50 106 27 18 -26 27 29 70)
1969/12/31/18:00:16.418,(6 -67 -36 -5 12 -19 -31 -11)
1969/12/31/18:00:16.418,(55 14 2 3 36 30 38 65)
1969/12/31/18:00:16.429,(3 -58 -46 -10 -21 -21 9 24)
1969/12/31/18:00:16.429,(72 50 47 9 -2 16 18 57)
1969/12/31/18:00:16.449,(-57 56 43 15 7 -10 -19 -37)
1969/12/31/18:00:16.449,(33 -8 1 13 12 12 1 11)
1969/12/31/18:00:16.450,(21 -71 -58 -33 -48 -30 -4 21)
1969/12/31/18:00:16.450,(-15 23 33 12 20 3 -33 -21)
1969/12/31/18:00:16.477,(-13 -37 -14 -12 -25 -7 -15 -32)
1969/12/31/18:00:16.477,(35 11 -34 -1 -6 3 27 35)
1969/12/31/18:00:16.478,(-24 57 64 7 6 -7 -22 -17)
1969/12/31/18:00:16.478,(-17 -22 -17 -12 -11 -17 -5 -20)
1969/12/31/18:00:16.507,(9 -22 -34 -1 48 19 17 14)
1969/12/31/18:00:16.507,(11 -28 -26 -1 -67 -18 -3 22)
1969/12/31/18:00:16.508,(-27 30 -5 -19 -8 -14 -14 -13)
1969/12/31/18:00:16.508,(-24 32 41 0 -21 -25 -12 -16)
1969/12/31/18:00:16.526,(-48 -77 -24 19 35 25 5 -6)
1969/12/31/18:00:16.526,(43 24 -1 0 30 13 -2 -4)
1969/12/31/18:00:16.527,(-7 8 31 11 -4 -1 -11 -47)
1969/12/31/18:00:16.527,(50 -54 -66 -13 31 45 17 25)
1969/12/31/18:00:16.554,(2 62 24 -11 -37 -44 -20 -19)
1969/12/31/18:00:16.554,(-93 -6 24 9 28 33 -2 -38)
1969/12/31/18:00:16.557,(-42 -29 11 19 -25 -36 -27 -15)
1969/12/31/18:00:16.557,(28 -12 -37 0 51 71 46 2)
1969/12/31/18:00:16.583,(9 10 27 -16 -98 -60 -20 32)
1969/12/31/18:00:16.583,(-1 -20 -41 -22 46 36 27 -24)
1969/12/31/18:00:16.584,(-12 -11 -4 -15 -25 -26 -57 -23)
1969/12/31/18:00:16.584,(-34 34 25 11 -58 -49 -12 -27)
1969/12/31/18:00:16.602,(7 -19 -23 3 21 36 26 65)
1969/12/31/18:00:16.602,(70 81 56 51 79 20 -5 34)
1969/12/31/18:00:16.603,(-43 -19 -5 -19 -28 -16 1 -25)
1969/12/31/18:00:16.603,(-65 -92 -46 -38 -60 -17 -8 -23)
1969/12/31/18:00:16.631,(32 -41 -59 -18 13 -4 -17 1)
1969/12/31/18:00:16.631,(-23 9 20 -9 -57 -33 -9 19)
1969/12/31/18:00:16.631,(34 2 10 28 109 65 32 22)
1969/12/31/18:00:16.631,(18 68 -1 15 23 -19 -10 -1)
1969/12/31/18:00:16.660,(-39 56 93 43 33 22 4 3)
1969/12/31/18:00:16.660,(8 -25 -70 -40 -61 -44 -29 5)
1969/12/31/18:00:16.661,(-8 -57 -6 -3 30 40 19 15)
1969/12/31/18:00:16.661,(-25 -68 -69 -46 -47 -32 -5 -12)
1969/12/31/18:00:16.679,(50 48 -6 21 46 38 34 3)
1969/12/31/18:00:16.679,(-20 65 93 30 -30 -16 -52 -31)
1969/12/31/18:00:16.679,(27 57 37 -12 -32 -15 15 14)
1969/12/31/18:00:16.680,(31 -83 -61 -17 33 17 19 19)
1969/12/31/18:00:16.707,(-47 -71 -71 -16 -1 -4 -10 -24)
1969/12/31/18:00:16.707,(38 87 79 14 -26 -6 38 55)
1969/12/31/18:00:16.709,(-2 31 39 20 -33 -7 -1 1)
1969/12/31/18:00:16.709,(-57 -64 -39 -26 30 19 -14 -21)
1969/12/31/18:00:16.737,(19 -13 -81 -48 -21 -6 14 -8)
1969/12/31/18:00:16.737,(28 62 71 57 22 5 1 -2)
1969/12/31/18:00:16.738,(-11 20 65 27 3 -4 -4 -7)
1969/12/31/18:00:16.738,(71 45 52 27 6 4 32 96)
1969/12/31/18:00:16.756,(-50 -57 -15 1 16 14 -5 -20)
1969/12/31/18:00:16.756,(-54 -90 -98 -64 -33 -9 -18 -83)
1969/12/31/18:00:16.758,(55 -23 -46 -7 3 8 20 57)
1969/12/31/18:00:16.758,(-12 43 23 -1 -32 -12 -1 -42)
1969/12/31/18:00:16.786,(1 29 23 4 28 8 -12 -14)
1969/12/31/18:00:16.786,(4 2 25 7 -19 -14 24 18)
1969/12/31/18:00:16.786,(-23 7 -17 -17 -7 3 3 -9)
1969/12/31/18:00:16.786,(51 32 -19 14 18 6 18 40)
1969/12/31/18:00:16.814,(-76 -25 39 20 1 -7 -35 -97)
1969/12/31/18:00:16.814,(-9 0 12 3 6 0 -8 -33)
1969/12/31/18:00:16.816,(-5 -24 -28 -13 -5 -9 11 18)
1969/12/31/18:00:16.816,(12 -6 -42 -15 13 21 0 4)
1969/12/31/18:00:16.834,(97 2 -12 -16 -4 -7 15 46)
1969/12/31/18:00:16.834,(-93 -45 0 23 16 5 -18 -31)
1969/12/31/18:00:16.835,(20 65 59 25 -4 -9 -4 -14)
1969/12/31/18:00:16.835,(15 21 42 -27 -46 2 13 24)
1969/12/31/18:00:16.863,(-4 -23 -17 -8 -4 -45 -35 -6)
1969/12/31/18:00:16.863,(27 -22 -31 -16 57 76 17 31)
1969/12/31/18:00:16.865,(-32 -61 -75 -34 -9 -11 -3 -19)
1969/12/31/18:00:16.865,(3 -23 -19 4 1 9 -17 -31)
1969/12/31/18:00:16.892,(-1 39 39 83 33 -10 46 24)
1969/12/31/18:00:16.892,(29 19 22 -30 -35 12 -11 28)
1969/12/31/18:00:16.893,(1 9 12 71 61 20 -7 -18)
1969/12/31/18:00:16.893,(9 24 26 2 11 -34 -22 18)
1969/12/31/18:00:16.911,(7 -28 -26 -53 -69 -5 -26 -24)
1969/12/31/18:00:16.911,(-24 -10 -26 -5 17 -22 -2 -13)
1969/12/31/18:00:16.912,(6 -4 -5 -45 -45 18 18 12)
1969/12/31/18:00:16.912,(5 -32 -18 -2 -9 -20 -3 64)
1969/12/31/18:00:16.939,(34 53 43 24 35 40 35 51)
1969/12/31/18:00:16.939,(-5 9 16 7 -25 -23 -16 -59)
1969/12/31/18:00:16.941,(67 36 -10 -15 -3 -1 -16 -27)
1969/12/31/18:00:16.941,(-79 -79 -32 1 10 -2 -9 -12)
1969/12/31/18:00:16.969,(14 20 6 -1 -12 -9 -15 -13)
1969/12/31/18:00:16.969,(-19 -24 -9 -20 -4 23 15 1)
1969/12/31/18:00:16.970,(11 -2 -24 0 -9 -31 -14 13)
1969/12/31/18:00:16.970,(-27 25 40 45 38 8 -3 -39)
1969/12/31/18:00:16.988,(-27 17 35 -6 -21 13 3 1)
1969/12/31/18:00:16.988,(36 6 -8 1 -13 -35 -18 20)
1969/12/31/18:00:16.990,(-59 -37 -24 -3 4 7 -5 -30)
1969/12/31/18:00:16.990,(14 9 -1 -8 -18 44 30 -14)
1969/12/31/18:00:17.017,(-9 -12 -11 -11 -2 -79 -93 -41)
1969/12/31/18:00:17.017,(39 26 4 5 13 56 8 27)
1969/12/31/18:00:17.018,(-57 -27 1 21 6 -3 21 -8)
1969/12/31/18:00:17.018,(-19 -22 -4 -9 -12 -19 -28 -55)
1969/12/31/18:00:17.036,(10 15 6 1 -8 6 28 16)
1969/12/31/18:00:17.036,(-13 -24 -24 -12 4 -2 -9 -20)
1969/12/31/18:00:17.045,(102 64 30 6 0 0 3 58)
1969/12/31/18:00:17.045,(-83 -19 -5 -2 0 -8 -12 -36)
1969/12/31/18:00:17.066,(-1 -36 -23 -16 -6 13 2 -21)
1969/12/31/18:00:17.066,(8 26 8 6 -4 -21 2 3)
1969/12/31/18:00:17.067,(-30 -54 -21 -18 -6 5 3 1)
1969/12/31/18:00:17.067,(91 33 5 3 3 -18 3 35)
1969/12/31/18:00:17.105,(-64 -22 -9 -5 -3 11 -6 -23)
1969/12/31/18:00:17.105,(1 -10 4 1 -3 -12 4 4)
1969/12/31/18:00:17.107,(25 23 16 10 7 -6 8 16)
1969/12/31/18:00:17.107,(17 3 -22 -17 2 5 -13 -7)
1969/12/31/18:00:17.113,(-30 -2 -1 -7 -10 4 7 -2)
1969/12/31/18:00:17.113,(2 -11 1 -2 -5 -13 0 -24)
1969/12/31/18:00:17.122,(58 13 -39 -10 6 13 12 44)
1969/12/31/18:00:17.122,(25 2 77 36 9 -10 -10 10)
1969/12/31/18:00:17.143,(-75 -3 11 14 -2 13 12 -33)
1969/12/31/18:00:17.143,(23 -5 -33 -11 -8 -24 -14 -28)
1969/12/31/18:00:17.144,(-30 -30 -44 -37 -8 -3 -9 -12)
1969/12/31/18:00:17.144,(6 31 2 -16 1 1 -1 -12)
1969/12/31/18:00:17.171,(46 16 34 42 14 9 18 43)
1969/12/31/18:00:17.171,(-11 24 38 24 10 7 11 29)
1969/12/31/18:00:17.172,(-16 -33 -23 -6 -7 -10 -12 -18)
1969/12/31/18:00:17.172,(1 -11 -23 -20 -7 -3 -1 -1)
1969/12/31/18:00:17.190,(0 -18 -31 -39 -9 3 4 11)
1969/12/31/18:00:17.190,(-40 -29 -24 4 -5 -11 -6 -17)
1969/12/31/18:00:17.200,(8 26 76 30 -1 -3 -5 -7)
1969/12/31/18:00:17.200,(10 15 0 17 15 1 -2 -16)
1969/12/31/18:00:17.221,(-36 -26 -24 -13 -8 2 3 5)
1969/12/31/18:00:17.221,(21 7 -20 -20 -2 -6 -1 -5)
1969/12/31/18:00:17.223,(-44 -11 -2 -5 0 -5 -2 4)
1969/12/31/18:00:17.223,(21 -28 -14 -3 -2 5 4 12)
1969/12/31/18:00:17.248,(13 6 -36 -35 -15 -8 -7 1)
1969/12/31/18:00:17.248,(-1 2 17 8 4 1 7 10)
1969/12/31/18:00:17.250,(-1 -1 12 16 0 -3 -4 2)
1969/12/31/18:00:17.250,(-1 10 8 10 4 -1 -2 -5)
1969/12/31/18:00:17.278,(26 -14 -31 -23 -10 -4 2 14)
1969/12/31/18:00:17.278,(-37 -34 -14 -9 -5 -7 -1 -7)
1969/12/31/18:00:17.279,(21 28 8 11 13 15 8 1)
1969/12/31/18:00:17.279,(-19 7 9 8 -1 -3 -9 -19)
1969/12/31/18:00:17.297,(21 -7 -2 -9 -7 -6 -4 1)
1969/12/31/18:00:17.297,(-6 7 -4 -3 0 0 5 4)
1969/12/31/18:00:17.299,(-9 -1 12 9 1 -4 -7 -13)
1969/12/31/18:00:17.299,(-7 -36 -44 -16 -4 0 4 6)
1969/12/31/18:00:17.326,(16 65 77 32 9 6 9 8)
1969/12/31/18:00:17.326,(5 -48 -55 -29 -9 -2 20 11)
1969/12/31/18:00:17.327,(-7 19 -7 -5 -1 -6 -42 -19)
1969/12/31/18:00:17.327,(-22 29 45 25 8 3 0 -11)
1969/12/31/18:00:17.355,(5 -81 -69 -30 -13 -5 2 0)
1969/12/31/18:00:17.355,(10 90 89 43 13 6 0 -3)
1969/12/31/18:00:17.355,(-28 -47 -48 -27 -9 -3 13 -4)
1969/12/31/18:00:17.357,(6 -3 -13 -1 -4 -8 -8 -1)
1969/12/31/18:00:17.375,(18 34 27 15 6 6 8 15)
1969/12/31/18:00:17.375,(-18 -67 -35 -7 -1 1 -3 9)
1969/12/31/18:00:17.376,(3 18 -6 -4 0 -3 1 -9)
1969/12/31/18:00:17.376,(-19 11 32 8 2 3 3 -9)
1969/12/31/18:00:17.403,(8 -8 -21 -10 -4 0 -2 3)
1969/12/31/18:00:17.403,(-1 5 3 4 2 0 -3 0)
1969/12/31/18:00:17.404,(4 7 23 10 1 -1 0 -2)
1969/12/31/18:00:17.404,(-16 -29 -42 -17 -8 -6 -16 -11)
1969/12/31/18:00:17.434,(8 22 12 3 2 2 12 8)
1969/12/31/18:00:17.434,(-2 -3 2 2 0 -2 -21 -7)
1969/12/31/18:00:17.435,(-3 -33 -10 -4 -2 -2 0 -12)
1969/12/31/18:00:17.435,(2 33 -22 -19 -7 1 11 4)
1969/12/31/18:00:17.452,(-2 29 58 31 10 4 0 -2)
1969/12/31/18:00:17.452,(-2 -37 -23 -12 -7 -2 -3 1)
1969/12/31/18:00:17.452,(1 40 28 7 1 3 4 -1)
1969/12/31/18:00:17.452,(-5 -22 2 3 2 4 8 4)
1969/12/31/18:00:17.480,(4 -12 -20 -10 -3 -6 -12 4)
1969/12/31/18:00:17.482,(1 24 3 3 0 1 -8 -15)
1969/12/31/18:00:17.482,(-2 -22 9 12 1 3 3 1)
1969/12/31/18:00:17.482,(-9 -11 -14 -10 -4 -1 -3 -3)
1969/12/31/18:00:17.511,(5 15 3 -3 1 2 0 0)
1969/12/31/18:00:17.511,(1 -13 -12 -5 -4 -2 3 5)
1969/12/31/18:00:17.511,(-3 28 21 10 3 1 -2 -2)
1969/12/31/18:00:17.511,(-9 -10 0 -3 -2 -1 1 -4)
1969/12/31/18:00:17.529,(1 0 -1 1 0 0 2 0)
1969/12/31/18:00:17.529,(-21 -20 -20 -22 -10 -5 -4 -7)
1969/12/31/18:00:17.531,(11 -17 -43 -27 -7 -8 -1 2)
1969/12/31/18:00:17.531,(15 29 52 51 21 8 8 11)
1969/12/31/18:00:17.558,(-3 -18 -19 -29 -5 -4 -3 -1)
1969/12/31/18:00:17.558,(-21 -49 -38 -15 -4 -4 -2 2)
1969/12/31/18:00:17.559,(36 61 53 47 21 5 11 11)
1969/12/31/18:00:17.559,(6 24 31 22 8 -1 0 -2)
1969/12/31/18:00:17.589,(11 16 4 16 7 3 2 3)
1969/12/31/18:00:17.589,(-16 -16 -8 -18 -8 -5 -3 -3)
1969/12/31/18:00:17.589,(-14 -30 -44 -43 -16 -10 -6 -6)
