time,.data
1969/12/31/18:00:05.761,(-3 -4 -3 -3 -2 -1 -2 -1)
1969/12/31/18:00:05.761,(-1 0 -2 -2 1 -1 0 1)
1969/12/31/18:00:05.773,(0 0 -1 -1 0 1 0 -2)
1969/12/31/18:00:05.773,(-4 -4 -4 -4 -1 0 1 -1)
1969/12/31/18:00:05.790,(3 4 5 7 3 0 2 1)
1969/12/31/18:00:05.790,(-1 2 3 -2 -4 -1 -2 -2)
1969/12/31/18:00:05.797,(2 2 -6 -1 -2 0 2 1)
1969/12/31/18:00:05.797,(1 -6 -8 3 5 1 1 1)
1969/12/31/18:00:05.799,(-11 -5 4 -10 -5 -4 -5 -8)
1969/12/31/18:00:05.799,(-3 -4 -3 1 3 -3 -1 -2)
1969/12/31/18:00:05.819,(0 6 11 -6 -5 0 0 1)
1969/12/31/18:00:05.819,(10 5 -8 6 0 -2 -2 4)
1969/12/31/18:00:05.821,(-4 -7 8 -7 -5 0 -1 0)
1969/12/31/18:00:05.821,(-2 1 -8 3 0 -4 -6 -4)
1969/12/31/18:00:05.833,(-5 -5 0 -8 -1 -1 -3 -3)
1969/12/31/18:00:05.833,(-3 3 4 -1 -5 2 0 -5)
1969/12/31/18:00:05.850,(7 -3 -13 9 7 -2 1 8)
1969/12/31/18:00:05.850,(-8 -2 5 -6 -8 0 0 -4)
1969/12/31/18:00:05.857,(6 0 -3 8 8 4 4 7)
1969/12/31/18:00:05.857,(-9 -3 10 1 -4 -4 -5 -9)
1969/12/31/18:00:05.859,(-2 -7 -29 -6 -4 -5 -3 -1)
1969/12/31/18:00:05.859,(5 -2 -9 -24 -5 -5 0 4)
1969/12/31/18:00:05.879,(-3 -3 -13 -36 -15 1 2 -1)
1969/12/31/18:00:05.879,(-2 2 31 52 21 -4 -5 0)
1969/12/31/18:00:05.881,(-5 6 23 27 10 6 1 -9)
1969/12/31/18:00:05.881,(6 -4 -7 28 23 -1 0 3)
1969/12/31/18:00:05.893,(-8 -5 0 -30 -26 -4 -2 -6)
1969/12/31/18:00:05.893,(5 3 -15 -67 -9 -4 -5 -1)
1969/12/31/18:00:05.902,(6 0 -4 11 -1 9 7 9)
1969/12/31/18:00:05.902,(8 16 17 40 7 2 2 3)
1969/12/31/18:00:05.917,(5 -9 -3 11 25 0 3 7)
1969/12/31/18:00:05.917,(-16 -8 -20 -68 -40 -1 0 -10)
1969/12/31/18:00:05.919,(8 5 3 -4 11 -5 3 5)
1969/12/31/18:00:05.919,(-4 5 35 61 4 10 4 -1)
1969/12/31/18:00:05.940,(-2 -3 2 65 27 -9 -13 -9)
1969/12/31/18:00:05.940,(-7 -8 -9 -13 0 -5 -5 -4)
1969/12/31/18:00:05.941,(-1 0 -31 -93 -33 -2 0 1)
1969/12/31/18:00:05.941,(7 2 -12 -25 8 0 6 8)
1969/12/31/18:00:05.961,(10 23 53 71 -6 7 6 5)
1969/12/31/18:00:05.961,(-1 -8 -5 7 32 7 -2 -1)
1969/12/31/18:00:05.962,(-9 -10 -12 -34 -26 -12 -8 -8)
1969/12/31/18:00:05.962,(1 1 2 33 7 2 0 0)
1969/12/31/18:00:05.977,(-7 -2 3 16 -19 -5 -5 -5)
1969/12/31/18:00:05.977,(4 1 -5 -58 -31 -6 1 1)
1969/12/31/18:00:05.977,(3 -3 -12 38 45 6 1 1)
1969/12/31/18:00:05.977,(-2 -1 9 -41 11 1 -1 1)
1969/12/31/18:00:05.999,(-4 -5 -47 -59 -18 -7 -6 -5)
1969/12/31/18:00:05.999,(-1 1 18 34 -8 2 3 1)
1969/12/31/18:00:06.000,(-8 -6 17 42 10 -1 -5 -8)
1969/12/31/18:00:06.000,(-5 -2 -11 -27 -8 0 -1 -4)
1969/12/31/18:00:06.022,(5 1 2 28 -7 -2 2 4)
1969/12/31/18:00:06.022,(-5 -4 -33 -110 -83 -13 0 0)
1969/12/31/18:00:06.022,(14 23 64 108 93 21 7 10)
1969/12/31/18:00:06.022,(-8 1 24 -2 19 12 -2 -9)
1969/12/31/18:00:06.036,(-6 -13 -31 -98 -9 1 -1 -2)
1969/12/31/18:00:06.036,(5 6 17 114 11 1 5 6)
1969/12/31/18:00:06.045,(-7 -11 -26 -37 -51 -16 -8 -9)
1969/12/31/18:00:06.045,(3 -6 -25 -43 -28 -8 1 2)
1969/12/31/18:00:06.059,(0 1 8 -39 -13 -9 -4 -1)
1969/12/31/18:00:06.059,(3 -6 -23 4 8 -9 -3 0)
1969/12/31/18:00:06.060,(3 6 11 -42 -14 -3 0 1)
1969/12/31/18:00:06.060,(3 3 24 94 20 10 0 -2)
1969/12/31/18:00:06.082,(-2 -3 -13 -35 3 9 4 3)
1969/12/31/18:00:06.082,(2 9 14 40 30 10 0 2)
1969/12/31/18:00:06.082,(-1 0 -4 -7 -15 2 -2 -1)
1969/12/31/18:00:06.082,(-1 -6 -27 -92 -43 -8 -2 1)
1969/12/31/18:00:06.096,(-3 -1 11 40 13 2 0 -3)
1969/12/31/18:00:06.096,(6 6 16 17 21 6 1 3)
1969/12/31/18:00:06.097,(-3 -2 -7 -11 -12 -1 1 -1)
1969/12/31/18:00:06.097,(-6 -12 -14 -11 -12 -9 -5 -4)
1969/12/31/18:00:06.128,(2 1 10 27 12 2 1 0)
1969/12/31/18:00:06.128,(-1 0 1 2 15 0 0 -2)
1969/12/31/18:00:06.128,(0 -4 -10 -23 -16 -4 -2 -1)
1969/12/31/18:00:06.129,(-7 -4 3 16 2 -3 -4 -7)
1969/12/31/18:00:06.141,(3 4 8 16 9 -1 2 2)
1969/12/31/18:00:06.142,(5 -1 -8 -18 -7 -4 0 1)
1969/12/31/18:00:06.142,(-3 -3 2 11 -3 -3 -1 -3)
1969/12/31/18:00:06.142,(-1 -2 -2 2 0 -2 -1 2)
1969/12/31/18:00:06.156,(5 3 -1 -3 2 3 2 2)
1969/12/31/18:00:06.156,(-10 -4 2 8 5 0 -4 -6)
1969/12/31/18:00:06.157,(-3 2 2 7 -1 0 0 1)
1969/12/31/18:00:06.157,(12 6 -4 -10 -3 3 3 1)
1969/12/31/18:00:06.179,(5 0 -7 -7 -7 -5 -9 -6)
1969/12/31/18:00:06.179,(-6 -4 3 14 6 1 3 4)
1969/12/31/18:00:06.180,(-2 0 1 3 0 1 0 -2)
1969/12/31/18:00:06.180,(0 -6 -7 -12 -10 -4 1 4)
1969/12/31/18:00:06.201,(-2 0 -1 0 1 7 7 4)
1969/12/31/18:00:06.201,(11 5 4 7 5 1 -1 1)
1969/12/31/18:00:06.209,(10 1 1 -7 -1 6 6 4)
1969/12/31/18:00:06.209,(-13 -6 -2 -3 -4 -7 -8 -14)
1969/12/31/18:00:06.217,(-1 -2 1 9 2 -2 1 1)
1969/12/31/18:00:06.217,(-6 -1 1 0 0 0 -2 -2)
1969/12/31/18:00:06.217,(6 2 -5 -9 -5 3 5 7)
1969/12/31/18:00:06.217,(2 0 1 3 2 8 2 1)
1969/12/31/18:00:06.239,(2 7 5 -5 2 6 7 8)
1969/12/31/18:00:06.239,(-6 -7 -2 -10 -6 -2 -11 -11)
1969/12/31/18:00:06.240,(0 3 10 23 4 3 0 -2)
1969/12/31/18:00:06.240,(-8 -3 -4 -10 -1 5 5 -3)
1969/12/31/18:00:06.270,(2 -1 1 -1 -1 -4 -5 2)
1969/12/31/18:00:06.270,(0 0 -8 -15 -9 -17 -24 -12)
1969/12/31/18:00:06.270,(-5 -2 3 2 3 2 5 -3)
1969/12/31/18:00:06.270,(-16 -6 -4 -4 -5 -8 -2 -6)
1969/12/31/18:00:06.276,(13 -3 -26 -84 -32 -5 4 4)
1969/12/31/18:00:06.276,(7 6 19 70 34 12 10 5)
1969/12/31/18:00:06.284,(-1 7 21 54 43 8 -5 -3)
1969/12/31/18:00:06.284,(-7 -3 3 12 3 -2 -4 -3)
1969/12/31/18:00:06.299,(-8 -4 6 11 -2 1 -1 -2)
1969/12/31/18:00:06.299,(11 1 -21 -66 -27 2 9 12)
1969/12/31/18:00:06.300,(-7 -10 -30 -70 -45 -14 -6 -3)
1969/12/31/18:00:06.300,(5 3 28 88 24 2 2 2)
1969/12/31/18:00:06.323,(-1 4 18 53 31 5 0 -2)
1969/12/31/18:00:06.323,(-8 -3 0 -18 -6 -6 -4 -7)
1969/12/31/18:00:06.324,(-4 -5 -5 3 3 0 2 0)
1969/12/31/18:00:06.324,(7 2 -12 -39 -5 2 -1 2)
1969/12/31/18:00:06.337,(2 3 2 11 -2 -4 2 8)
1969/12/31/18:00:06.337,(-22 -18 -13 0 -3 -13 -14 -16)
1969/12/31/18:00:06.337,(13 2 -9 -36 -19 -2 6 10)
1969/12/31/18:00:06.337,(-9 -11 -23 -47 -26 -17 -19 -17)
1969/12/31/18:00:06.359,(-10 0 17 59 27 11 3 -9)
1969/12/31/18:00:06.359,(14 15 15 15 9 10 14 17)
1969/12/31/18:00:06.360,(-16 -15 -28 -32 -16 -11 -12 -12)
1969/12/31/18:00:06.360,(-1 -6 -11 -1 -18 -9 -6 -3)
1969/12/31/18:00:06.381,(5 7 32 84 23 6 7 6)
1969/12/31/18:00:06.381,(-2 5 25 48 20 8 0 -1)
1969/12/31/18:00:06.382,(-7 0 17 27 10 1 -4 -6)
1969/12/31/18:00:06.382,(12 4 -13 -36 -5 3 1 4)
1969/12/31/18:00:06.396,(-2 -4 -26 -58 -22 -7 -1 1)
1969/12/31/18:00:06.397,(-21 -14 -2 6 -4 0 -4 -19)
1969/12/31/18:00:06.397,(-5 0 -2 2 8 3 0 7)
1969/12/31/18:00:06.398,(27 11 -2 -22 -1 4 11 16)
1969/12/31/18:00:06.419,(-6 -3 -9 -17 -10 -1 -4 -11)
1969/12/31/18:00:06.419,(19 8 2 6 2 3 3 18)
1969/12/31/18:00:06.420,(-47 -13 -5 -9 -3 3 1 -18)
1969/12/31/18:00:06.420,(9 -5 11 17 2 -8 -5 5)
1969/12/31/18:00:06.441,(17 3 -5 4 -2 -9 -15 -16)
1969/12/31/18:00:06.441,(1 -2 -14 -51 -12 -4 2 3)
1969/12/31/18:00:06.449,(11 -1 -10 6 -22 -8 -2 0)
1969/12/31/18:00:06.449,(-18 3 7 33 16 -3 -2 -6)
1969/12/31/18:00:06.457,(-6 1 18 37 19 5 4 4)
1969/12/31/18:00:06.457,(2 1 3 1 5 2 0 -3)
1969/12/31/18:00:06.457,(5 2 4 3 -8 -5 -7 -4)
1969/12/31/18:00:06.457,(-1 2 2 0 0 6 4 5)
1969/12/31/18:00:06.479,(-8 -8 -11 -14 -8 -2 -3 -9)
1969/12/31/18:00:06.479,(-3 -2 -10 -16 -8 -1 4 7)
1969/12/31/18:00:06.480,(25 15 6 5 1 -3 -5 4)
1969/12/31/18:00:06.480,(-12 -8 -9 -11 -4 -4 -9 -13)
1969/12/31/18:00:06.501,(-8 -4 -7 -23 -13 -6 -4 -1)
1969/12/31/18:00:06.502,(-24 -17 -3 -4 0 3 -1 -9)
1969/12/31/18:00:06.502,(55 34 21 15 26 21 33 45)
1969/12/31/18:00:06.502,(-26 -21 -37 -43 -40 -21 -26 -34)
1969/12/31/18:00:06.516,(-11 -7 13 24 2 -4 -6 -8)
1969/12/31/18:00:06.516,(9 10 17 39 36 11 3 3)
1969/12/31/18:00:06.517,(-11 -5 17 46 32 17 8 2)
1969/12/31/18:00:06.517,(6 2 -14 -88 -11 9 11 12)
1969/12/31/18:00:06.547,(4 -2 -29 -77 -32 -30 -9 3)
1969/12/31/18:00:06.547,(-5 1 7 46 -34 2 2 -4)
1969/12/31/18:00:06.548,(5 6 18 51 43 13 -1 -1)
1969/12/31/18:00:06.548,(4 5 16 49 43 15 5 4)
1969/12/31/18:00:06.561,(-10 -10 -17 -25 -5 1 -4 -7)
1969/12/31/18:00:06.561,(11 2 -15 -35 -12 -10 1 9)
1969/12/31/18:00:06.562,(-20 -13 -12 -25 -31 -16 -15 -20)
1969/12/31/18:00:06.562,(11 13 10 14 -2 0 10 16)
1969/12/31/18:00:06.576,(-4 0 -2 -5 1 5 2 2)
1969/12/31/18:00:06.576,(-3 -8 0 -1 -3 -4 -4 -9)
1969/12/31/18:00:06.577,(28 9 2 -1 -10 -2 1 20)
1969/12/31/18:00:06.577,(-61 -30 -20 -23 -17 -24 -35 -62)
1969/12/31/18:00:06.599,(5 2 8 27 6 4 -3 4)
1969/12/31/18:00:06.599,(6 5 -2 -6 -15 -6 1 -1)
1969/12/31/18:00:06.600,(-24 -17 -17 -39 -5 -9 -3 -14)
1969/12/31/18:00:06.600,(19 8 0 -33 2 8 19 29)
1969/12/31/18:00:06.621,(8 7 18 66 36 20 9 7)
1969/12/31/18:00:06.621,(-8 2 6 -18 21 7 -8 -11)
1969/12/31/18:00:06.622,(-3 -1 0 29 -18 -9 -13 -9)
1969/12/31/18:00:06.622,(9 8 17 35 9 1 3 8)
1969/12/31/18:00:06.636,(-4 -10 -47 -127 -58 -18 -2 1)
1969/12/31/18:00:06.636,(12 3 5 103 13 4 7 11)
1969/12/31/18:00:06.637,(-7 2 28 53 33 11 -1 -9)
1969/12/31/18:00:06.637,(15 8 10 20 17 12 10 13)
1969/12/31/18:00:06.659,(-13 -10 7 5 3 -2 -12 -13)
1969/12/31/18:00:06.659,(8 6 -12 -53 -11 -7 5 7)
1969/12/31/18:00:06.660,(-20 -18 -44 -88 -36 -19 -14 -22)
1969/12/31/18:00:06.660,(-4 1 20 47 1 5 9 2)
1969/12/31/18:00:06.681,(20 10 6 2 8 7 13 17)
1969/12/31/18:00:06.681,(-2 -2 -5 -20 -10 -7 -7 -3)
1969/12/31/18:00:06.682,(-3 -3 -11 -43 -16 -11 -7 -5)
1969/12/31/18:00:06.682,(3 -6 -29 -56 -28 -3 4 6)
1969/12/31/18:00:06.696,(-6 -1 17 68 44 12 2 -2)
1969/12/31/18:00:06.696,(13 16 41 88 23 26 12 10)
1969/12/31/18:00:06.697,(4 6 22 20 8 7 2 -2)
1969/12/31/18:00:06.697,(0 -1 -1 7 6 -7 -8 -2)
1969/12/31/18:00:06.719,(-1 -3 -21 -52 -29 -9 5 0)
1969/12/31/18:00:06.719,(-4 -6 -15 -27 -3 -4 2 5)
1969/12/31/18:00:06.720,(-2 3 2 -1 -1 -1 2 3)
1969/12/31/18:00:06.720,(7 2 1 5 -7 -2 -1 2)
1969/12/31/18:00:06.742,(-3 2 4 19 7 0 -3 -4)
1969/12/31/18:00:06.742,(-8 -5 -10 -24 -5 -7 -7 -5)
1969/12/31/18:00:06.743,(2 -2 -3 -10 -7 4 6 3)
1969/12/31/18:00:06.743,(10 11 5 23 15 9 10 12)
1969/12/31/18:00:06.756,(-1 2 11 27 8 3 -3 -5)
1969/12/31/18:00:06.756,(-13 -10 0 -4 -3 -7 -9 -11)
1969/12/31/18:00:06.757,(10 5 -3 -4 -3 4 8 14)
1969/12/31/18:00:06.757,(7 2 0 18 3 -2 1 5)
1969/12/31/18:00:06.779,(-1 -1 -18 -17 -8 3 6 5)
1969/12/31/18:00:06.779,(3 3 11 41 10 2 1 1)
1969/12/31/18:00:06.780,(-3 -4 7 37 7 -3 -4 -3)
1969/12/31/18:00:06.780,(-3 -1 3 0 9 3 1 0)
1969/12/31/18:00:06.802,(1 -2 -14 -36 -15 -3 -1 -1)
1969/12/31/18:00:06.802,(-1 -3 -2 -17 -14 -5 -6 -5)
1969/12/31/18:00:06.802,(-2 2 -3 5 3 -1 -2 4)
1969/12/31/18:00:06.802,(-3 -4 9 10 0 -3 -2 -4)
1969/12/31/18:00:06.825,(-9 -7 -1 -3 -3 -8 -13 -16)
1969/12/31/18:00:06.825,(-11 -11 -22 -28 -2 -3 0 2)
1969/12/31/18:00:06.826,(51 36 14 7 10 19 27 29)
1969/12/31/18:00:06.826,(-11 -10 -8 -12 -13 -10 -17 -20)
1969/12/31/18:00:06.839,(-15 -12 3 9 2 3 5 4)
1969/12/31/18:00:06.839,(17 14 4 1 0 -4 -4 -7)
1969/12/31/18:00:06.840,(-10 -12 -14 -37 -15 -7 -5 -2)
1969/12/31/18:00:06.840,(10 6 3 7 9 7 9 11)
1969/12/31/18:00:06.862,(13 7 -5 -26 -4 3 1 3)
1969/12/31/18:00:06.862,(-13 -8 -2 24 12 -4 -2 -3)
1969/12/31/18:00:06.863,(-9 -3 21 46 0 -1 -6 -7)
1969/12/31/18:00:06.863,(32 22 21 43 13 0 -1 12)
1969/12/31/18:00:06.876,(-38 -14 -3 -18 0 0 -6 -17)
1969/12/31/18:00:06.876,(-21 -12 -14 -43 -7 5 2 -14)
1969/12/31/18:00:06.884,(26 19 -10 -21 -2 3 11 14)
1969/12/31/18:00:06.884,(-1 -10 -3 -7 -5 -4 -7 -8)
1969/12/31/18:00:06.899,(-17 -7 -2 5 -4 -9 -13 -17)
1969/12/31/18:00:06.899,(10 7 -4 -21 -2 10 23 32)
1969/12/31/18:00:06.900,(19 -6 -7 2 -5 -6 -5 8)
1969/12/31/18:00:06.900,(-9 2 2 4 -2 -3 -10 -18)
1969/12/31/18:00:06.922,(11 9 7 9 0 -2 0 0)
1969/12/31/18:00:06.922,(10 -7 -4 -1 4 6 7 12)
1969/12/31/18:00:06.923,(-39 -22 -4 8 -3 -7 -9 -23)
1969/12/31/18:00:06.923,(-7 -5 -6 -6 -2 4 9 11)
1969/12/31/18:00:06.936,(21 8 1 -11 -9 -4 2 9)
1969/12/31/18:00:06.936,(-4 6 -5 5 -7 -9 -9 -8)
1969/12/31/18:00:06.944,(-19 -21 -16 -62 -1 5 5 4)
1969/12/31/18:00:06.944,(2 -3 24 98 8 -12 -21 -16)
1969/12/31/18:00:06.959,(-61 -5 28 75 37 23 21 -2)
1969/12/31/18:00:06.959,(45 23 2 -13 -10 -13 -12 1)
1969/12/31/18:00:06.960,(1 -12 -25 -40 -19 -18 -15 -13)
1969/12/31/18:00:06.960,(14 12 -15 -54 -15 -4 -1 -1)
1969/12/31/18:00:06.982,(20 0 -2 -5 0 5 11 26)
1969/12/31/18:00:06.982,(1 4 9 6 7 6 7 4)
1969/12/31/18:00:06.983,(-62 -33 -3 6 5 -4 -8 -22)
1969/12/31/18:00:06.983,(30 17 -8 -43 3 5 14 17)
1969/12/31/18:00:06.996,(28 8 0 7 -28 -4 0 9)
1969/12/31/18:00:06.996,(3 1 -20 -43 -23 -6 -3 -3)
1969/12/31/18:00:07.004,(7 3 2 10 1 -4 -4 -7)
1969/12/31/18:00:07.004,(-24 -5 39 91 37 12 9 7)
1969/12/31/18:00:07.019,(34 21 25 56 34 6 2 5)
1969/12/31/18:00:07.019,(-44 -35 -16 -4 0 -14 -24 -27)
1969/12/31/18:00:07.020,(80 66 3 -78 -18 29 43 51)
1969/12/31/18:00:07.020,(-35 -26 -17 -6 -19 -10 -14 -23)
1969/12/31/18:00:07.042,(-34 -9 13 39 10 -8 -11 -14)
1969/12/31/18:00:07.042,(26 12 6 -1 0 1 3 13)
1969/12/31/18:00:07.043,(2 -8 -1 15 9 -1 4 13)
1969/12/31/18:00:07.043,(21 8 -25 -78 -18 3 10 14)
1969/12/31/18:00:07.056,(-15 -12 -22 -91 -9 -16 -17 -21)
1969/12/31/18:00:07.056,(3 4 9 56 -20 -2 1 5)
1969/12/31/18:00:07.064,(-5 6 7 5 5 2 1 -1)
1969/12/31/18:00:07.064,(-7 0 13 41 3 0 -3 -8)
1969/12/31/18:00:07.079,(-15 -23 13 39 12 7 4 10)
1969/12/31/18:00:07.079,(38 31 7 -12 26 17 17 10)
1969/12/31/18:00:07.080,(-4 -6 -20 -41 -18 -13 -15 -16)
1969/12/31/18:00:07.080,(-6 -8 -8 -4 -12 2 7 7)
1969/12/31/18:00:07.102,(-30 -6 -2 2 5 -2 -14 -34)
1969/12/31/18:00:07.102,(-1 -9 10 8 8 5 16 32)
1969/12/31/18:00:07.103,(-2 8 5 43 8 -3 -17 -28)
1969/12/31/18:00:07.103,(-37 -27 -13 -31 -3 -1 -1 -11)
1969/12/31/18:00:07.116,(44 16 -4 -13 -9 4 18 43)
1969/12/31/18:00:07.116,(-31 -27 -19 -12 -10 -17 -26 -45)
1969/12/31/18:00:07.124,(7 9 5 27 5 -1 4 18)
1969/12/31/18:00:07.124,(-18 -3 -3 -14 0 -4 -13 -20)
1969/12/31/18:00:07.139,(19 5 -5 -12 -9 0 4 8)
1969/12/31/18:00:07.139,(-33 -14 2 3 1 1 -3 -15)
1969/12/31/18:00:07.140,(14 4 5 17 7 0 0 4)
1969/12/31/18:00:07.140,(7 -1 -5 -31 -9 -2 3 9)
1969/12/31/18:00:07.162,(1 2 -2 20 -12 -12 -9 -4)
1969/12/31/18:00:07.162,(-11 -3 2 -8 3 -7 -4 -7)
1969/12/31/18:00:07.163,(6 -1 0 19 13 10 12 10)
1969/12/31/18:00:07.163,(14 14 8 4 3 9 13 25)
1969/12/31/18:00:07.185,(37 24 -7 -20 -12 -1 -6 -2)
1969/12/31/18:00:07.185,(-21 -14 -7 -15 -9 -14 -22 -25)
1969/12/31/18:00:07.186,(-42 -34 -4 12 -2 -10 -4 -5)
1969/12/31/18:00:07.186,(21 18 6 2 9 18 11 1)
1969/12/31/18:00:07.199,(54 25 -2 -9 1 -3 1 22)
1969/12/31/18:00:07.199,(-15 6 7 11 11 14 13 4)
1969/12/31/18:00:07.200,(-26 -24 2 6 -4 -10 -14 -14)
1969/12/31/18:00:07.200,(-2 4 -7 -4 -5 -6 -3 -3)
1969/12/31/18:00:07.222,(-14 1 -2 -23 1 7 11 -1)
1969/12/31/18:00:07.222,(15 4 -3 17 4 6 4 12)
1969/12/31/18:00:07.223,(-11 -3 9 13 6 6 -1 -7)
1969/12/31/18:00:07.223,(-5 6 13 19 8 0 -5 -6)
1969/12/31/18:00:07.244,(5 5 1 3 -1 4 2 0)
1969/12/31/18:00:07.245,(-22 -28 -7 -14 -7 -11 -12 -6)
1969/12/31/18:00:07.246,(13 10 -2 -5 5 14 19 16)
1969/12/31/18:00:07.246,(28 21 -1 -2 4 16 16 10)
1969/12/31/18:00:07.259,(-43 -54 -20 -17 -10 -11 -24 -17)
1969/12/31/18:00:07.259,(8 29 8 -11 -1 12 2 -25)
1969/12/31/18:00:07.260,(-27 3 5 6 -3 -20 -22 -19)
1969/12/31/18:00:07.260,(25 3 1 -3 -1 -16 -9 4)
1969/12/31/18:00:07.282,(-20 -17 -3 7 0 -12 -4 -15)
1969/12/31/18:00:07.282,(26 12 3 18 18 13 31 38)
1969/12/31/18:00:07.283,(-26 -23 -9 -9 -16 -26 -28 -37)
1969/12/31/18:00:07.283,(-9 -8 -10 -7 -3 -3 11 10)
1969/12/31/18:00:07.305,(-4 -2 2 27 24 3 7 7)
1969/12/31/18:00:07.305,(17 8 0 14 -4 1 6 11)
1969/12/31/18:00:07.306,(14 9 -1 17 14 0 -4 -1)
1969/12/31/18:00:07.306,(-7 7 7 4 -13 4 7 18)
1969/12/31/18:00:07.319,(-5 -7 -11 -16 -25 -28 -32 -29)
1969/12/31/18:00:07.319,(-38 -24 -11 -10 9 13 13 12)
1969/12/31/18:00:07.320,(-57 -25 -1 4 0 7 -12 -41)
1969/12/31/18:00:07.320,(38 37 5 -2 7 2 2 6)
1969/12/31/18:00:07.342,(-33 -21 -8 -12 -23 -19 -25 -40)
1969/12/31/18:00:07.342,(67 46 12 7 4 12 17 42)
1969/12/31/18:00:07.343,(13 -2 -9 -8 -11 -8 -8 6)
1969/12/31/18:00:07.343,(-9 -13 0 8 14 16 9 0)
1969/12/31/18:00:07.365,(-12 0 4 2 3 15 14 4)
1969/12/31/18:00:07.365,(-3 2 -3 -34 -23 -18 -10 -10)
1969/12/31/18:00:07.365,(11 1 -12 -7 -5 5 13 14)
1969/12/31/18:00:07.365,(18 6 10 17 16 11 5 14)
1969/12/31/18:00:07.387,(23 16 13 39 8 10 13 18)
1969/12/31/18:00:07.387,(22 7 8 23 15 9 0 5)
1969/12/31/18:00:07.388,(8 -2 -3 0 -4 -3 -4 -2)
1969/12/31/18:00:07.388,(-83 -37 -4 -16 -23 -27 -32 -55)
1969/12/31/18:00:07.402,(66 48 -1 -18 21 43 58 69)
1969/12/31/18:00:07.402,(-39 -47 -21 -21 -22 -29 -41 -47)
1969/12/31/18:00:07.404,(46 34 6 -8 5 14 23 32)
1969/12/31/18:00:07.404,(65 42 12 12 11 18 28 50)
1969/12/31/18:00:07.425,(3 -2 -5 -17 -13 -15 -21 -29)
1969/12/31/18:00:07.425,(5 -4 4 10 6 2 0 -1)
1969/12/31/18:00:07.426,(18 16 17 13 12 12 14 19)
1969/12/31/18:00:07.426,(-36 -39 -22 -23 -17 -16 -12 -14)
1969/12/31/18:00:07.438,(38 33 4 -11 7 12 21 34)
1969/12/31/18:00:07.438,(-25 -8 7 7 -4 -10 -13 -20)
1969/12/31/18:00:07.455,(-14 -18 -1 21 -14 -16 -14 -16)
1969/12/31/18:00:07.455,(-16 -7 -4 -8 2 -7 -9 -16)
1969/12/31/18:00:07.462,(8 16 -2 -5 -2 7 10 11)
1969/12/31/18:00:07.462,(-17 -7 -1 -12 -4 -10 -10 -15)
1969/12/31/18:00:07.464,(-14 -8 9 21 14 8 3 2)
1969/12/31/18:00:07.464,(4 -13 5 41 -5 -11 -16 -5)
1969/12/31/18:00:07.485,(-4 33 7 0 12 7 2 -11)
1969/12/31/18:00:07.485,(-45 -20 -23 -30 -19 -16 -29 -36)
1969/12/31/18:00:07.487,(-28 -21 -7 -14 -9 -7 -7 -12)
1969/12/31/18:00:07.487,(-11 -15 -13 -27 -12 -9 -5 -4)
1969/12/31/18:00:07.498,(-31 -34 -6 6 -5 -4 -7 -18)
1969/12/31/18:00:07.498,(44 24 6 7 6 3 10 23)
1969/12/31/18:00:07.515,(-12 -7 -5 -9 -2 1 -5 -9)
1969/12/31/18:00:07.515,(-19 -12 -1 -7 3 -2 -7 -16)
1969/12/31/18:00:07.522,(-36 -26 -1 1 -10 -12 -15 -17)
1969/12/31/18:00:07.523,(15 15 0 -1 -3 -2 7 20)
1969/12/31/18:00:07.524,(-38 -4 0 -5 1 -3 -10 -37)
1969/12/31/18:00:07.524,(-1 -7 -3 4 7 8 11 10)
1969/12/31/18:00:07.545,(-2 -4 7 11 0 -5 -7 -6)
1969/12/31/18:00:07.545,(22 16 1 -1 -5 -6 -3 7)
1969/12/31/18:00:07.546,(66 42 6 -15 -7 -2 8 30)
1969/12/31/18:00:07.546,(-74 -48 -11 -4 -5 -10 -15 -26)
1969/12/31/18:00:07.558,(-63 -54 -24 -21 -21 -25 -27 -36)
1969/12/31/18:00:07.558,(-9 20 6 18 25 21 -3 -40)
1969/12/31/18:00:07.567,(31 14 -5 -7 10 15 23 31)
1969/12/31/18:00:07.567,(1 0 7 7 7 7 1 -3)
1969/12/31/18:00:07.581,(0 -5 3 -1 -8 -14 -13 1)
1969/12/31/18:00:07.581,(3 -4 3 -2 -2 5 13 20)
1969/12/31/18:00:07.590,(-15 -11 -4 3 -5 -5 -9 -13)
1969/12/31/18:00:07.590,(5 9 -7 -28 -9 -3 -6 -8)
1969/12/31/18:00:07.605,(7 2 10 17 19 19 22 21)
1969/12/31/18:00:07.605,(-4 -3 7 34 -2 -5 1 3)
1969/12/31/18:00:07.606,(-3 3 12 22 5 -1 -5 -5)
1969/12/31/18:00:07.606,(20 10 -3 12 7 -5 -2 11)
1969/12/31/18:00:07.618,(-32 -18 -7 -14 -9 -6 -7 -14)
1969/12/31/18:00:07.618,(17 8 3 -12 7 15 24 25)
1969/12/31/18:00:07.628,(-2 -8 -15 -47 -16 -12 -7 1)
1969/12/31/18:00:07.628,(-1 1 3 22 -1 -2 0 -3)
1969/12/31/18:00:07.643,(-26 -17 -1 4 5 4 5 -4)
1969/12/31/18:00:07.643,(28 39 26 10 7 13 21 28)
1969/12/31/18:00:07.644,(-15 -34 -6 -3 2 3 4 7)
1969/12/31/18:00:07.645,(21 13 -2 -7 -1 3 7 13)
1969/12/31/18:00:07.665,(-3 -1 0 4 -1 -3 -5 -7)
1969/12/31/18:00:07.665,(-6 -17 -7 -4 -3 0 7 9)
1969/12/31/18:00:07.666,(-2 3 -8 -23 -35 -14 -4 -4)
1969/12/31/18:00:07.666,(9 -2 -16 -67 -45 -31 -10 0)
1969/12/31/18:00:07.678,(35 15 -1 7 12 14 16 27)
1969/12/31/18:00:07.678,(-10 -3 27 80 56 21 1 -8)
1969/12/31/18:00:07.687,(-1 8 29 70 55 20 0 -6)
1969/12/31/18:00:07.687,(-8 -5 5 23 10 5 -6 -11)
1969/12/31/18:00:07.702,(13 8 -10 -34 -22 -10 -1 2)
1969/12/31/18:00:07.702,(1 -8 -25 -60 -39 -23 -6 2)
1969/12/31/18:00:07.704,(-14 -9 -5 -9 -11 -4 0 -3)
1969/12/31/18:00:07.704,(-9 3 -4 -8 -3 1 2 -1)
1969/12/31/18:00:07.726,(31 18 0 -2 -12 -13 -17 -7)
1969/12/31/18:00:07.726,(-59 -27 -4 -6 -3 -1 -11 -34)
1969/12/31/18:00:07.731,(-2 3 -6 -3 -1 -2 -2 2)
1969/12/31/18:00:07.731,(-8 -7 -15 -46 -8 1 2 1)
1969/12/31/18:00:07.738,(-2 -3 8 51 12 3 -4 -3)
1969/12/31/18:00:07.738,(-26 -20 11 34 10 -4 -13 -17)
1969/12/31/18:00:07.747,(46 27 15 22 18 17 15 23)
1969/12/31/18:00:07.747,(3 3 2 -1 3 4 -1 -4)
1969/12/31/18:00:07.762,(-41 -18 -3 -24 -8 -5 -9 -19)
1969/12/31/18:00:07.762,(5 -5 -16 -21 -9 4 14 8)
1969/12/31/18:00:07.764,(26 9 -5 -18 -6 1 2 15)
1969/12/31/18:00:07.764,(19 14 3 14 6 -1 -4 4)
1969/12/31/18:00:07.785,(-5 1 2 2 4 7 5 0)
1969/12/31/18:00:07.785,(-1 -4 -6 -13 -13 -8 -8 -1)
1969/12/31/18:00:07.786,(-22 -15 -7 -10 -8 -5 -5 -13)
1969/12/31/18:00:07.786,(14 5 -2 10 7 3 4 5)
1969/12/31/18:00:07.798,(18 9 8 18 6 9 12 18)
1969/12/31/18:00:07.798,(4 3 -8 -30 -33 -12 -8 -3)
1969/12/31/18:00:07.807,(-5 1 7 27 3 -9 -4 -7)
1969/12/31/18:00:07.807,(-12 -6 19 47 40 9 -1 -2)
1969/12/31/18:00:07.822,(17 14 5 -2 34 20 12 13)
1969/12/31/18:00:07.822,(7 -4 -11 -26 -7 9 5 8)
1969/12/31/18:00:07.824,(-15 -13 -5 -1 -18 -11 -9 -13)
1969/12/31/18:00:07.824,(10 16 5 4 -16 -10 5 16)
1969/12/31/18:00:07.844,(2 1 -5 -11 0 -8 -10 -14)
1969/12/31/18:00:07.844,(9 -2 -7 -14 -4 -3 -3 1)
1969/12/31/18:00:07.846,(-2 -2 -9 -21 -6 2 0 -2)
1969/12/31/18:00:07.846,(-11 -9 -3 0 -2 -1 0 -5)
1969/12/31/18:00:07.858,(9 5 1 -1 -5 -4 1 9)
1969/12/31/18:00:07.858,(-13 -5 -3 2 3 0 0 1)
1969/12/31/18:00:07.867,(-5 -5 -1 3 2 3 4 10)
1969/12/31/18:00:07.867,(11 -7 -3 2 0 0 -2 2)
1969/12/31/18:00:07.882,(13 19 2 -2 -7 -3 -5 -5)
1969/12/31/18:00:07.882,(-18 -19 -7 -1 -6 -11 -9 -5)
1969/12/31/18:00:07.888,(-6 5 2 -3 8 6 7 -1)
1969/12/31/18:00:07.888,(0 -1 -7 -19 -4 -1 1 -1)
1969/12/31/18:00:07.905,(-1 -7 -1 5 -3 1 5 5)
1969/12/31/18:00:07.905,(-18 -11 4 20 -1 -10 -13 -16)
1969/12/31/18:00:07.906,(-11 0 17 39 12 0 -4 -10)
1969/12/31/18:00:07.906,(12 14 10 10 9 11 8 5)
1969/12/31/18:00:07.934,(-12 -11 -7 -10 -8 -10 -9 -13)
1969/12/31/18:00:07.934,(-7 -18 -14 -20 -3 -10 -8 -2)
1969/12/31/18:00:07.936,(18 30 8 -7 10 21 19 5)
1969/12/31/18:00:07.936,(-12 -8 -4 -1 -5 2 3 -2)
1969/12/31/18:00:07.941,(4 2 0 -3 2 2 4 10)
1969/12/31/18:00:07.941,(-6 -4 0 1 -1 -1 -5 -7)
1969/12/31/18:00:07.948,(0 -6 -7 -12 -13 -12 -12 -6)
1969/12/31/18:00:07.948,(14 13 1 1 -1 3 4 8)
1969/12/31/18:00:07.965,(10 10 0 -4 -4 -1 -3 2)
1969/12/31/18:00:07.965,(24 29 14 1 11 9 14 19)
1969/12/31/18:00:07.966,(-20 -16 -2 -2 -4 -5 -9 -10)
1969/12/31/18:00:07.966,(42 23 8 15 12 17 20 23)
1969/12/31/18:00:07.978,(-2 -9 -2 -3 -2 -2 -2 5)
1969/12/31/18:00:07.978,(0 3 2 1 2 2 2 -5)
1969/12/31/18:00:07.987,(-51 -44 -23 -22 -15 -20 -19 -13)
1969/12/31/18:00:07.987,(4 19 11 3 3 2 -13 -22)
1969/12/31/18:00:08.002,(-20 -18 -3 3 -2 0 1 -3)
1969/12/31/18:00:08.002,(52 25 3 7 10 11 15 26)
1969/12/31/18:00:08.004,(2 -2 -3 -3 -2 -4 -7 -6)
1969/12/31/18:00:08.004,(-34 -29 -5 -4 -6 -1 1 -5)
1969/12/31/18:00:08.025,(43 23 -2 2 4 6 13 15)
1969/12/31/18:00:08.025,(-10 -6 -7 -3 -1 -7 -13 -19)
1969/12/31/18:00:08.026,(19 9 -14 -57 -26 -8 3 11)
1969/12/31/18:00:08.026,(-8 -2 3 28 10 3 2 1)
1969/12/31/18:00:08.038,(-11 -1 20 45 11 6 0 -7)
1969/12/31/18:00:08.038,(-13 -3 8 18 6 -6 -9 -7)
1969/12/31/18:00:08.047,(15 12 -1 1 -1 -10 -12 -9)
1969/12/31/18:00:08.047,(0 -3 -8 -26 -7 -3 1 4)
1969/12/31/18:00:08.062,(-19 -16 -16 -23 -14 -6 -7 -10)
1969/12/31/18:00:08.062,(-3 1 5 7 3 4 6 0)
1969/12/31/18:00:08.064,(-1 1 3 4 2 7 5 0)
1969/12/31/18:00:08.064,(-1 0 1 6 -6 -5 -5 -5)
1969/12/31/18:00:08.085,(10 7 4 4 10 16 16 19)
1969/12/31/18:00:08.085,(2 1 -2 -10 -11 -17 -19 -9)
1969/12/31/18:00:08.086,(-3 -2 -1 1 1 -3 -2 -7)
1969/12/31/18:00:08.086,(-22 -23 -12 -3 -5 -12 -12 -17)
1969/12/31/18:00:08.107,(-24 -21 -7 -11 -5 -11 -13 -15)
1969/12/31/18:00:08.107,(20 19 2 -2 7 16 14 7)
1969/12/31/18:00:08.109,(5 4 1 9 4 2 -2 0)
1969/12/31/18:00:08.109,(-13 -11 -4 0 -4 -3 -1 -6)
1969/12/31/18:00:08.122,(-5 -5 -7 -10 -2 -3 -1 -3)
1969/12/31/18:00:08.122,(-8 -8 -7 -2 -6 -8 -6 -6)
1969/12/31/18:00:08.124,(-1 -2 2 10 1 -9 -6 1)
1969/12/31/18:00:08.124,(35 27 8 -8 2 10 12 19)
1969/12/31/18:00:08.145,(9 8 3 -3 -5 0 0 -1)
1969/12/31/18:00:08.145,(-14 -10 -4 -6 -10 -12 -14 -15)
1969/12/31/18:00:08.146,(-46 -13 4 15 9 13 13 -16)
1969/12/31/18:00:08.146,(52 27 -4 -4 -3 3 10 19)
1969/12/31/18:00:08.167,(58 44 11 2 5 2 1 15)
1969/12/31/18:00:08.167,(-6 -8 -9 -2 -5 -6 -8 -10)
1969/12/31/18:00:08.169,(-19 -14 -5 1 1 -4 -7 -15)
1969/12/31/18:00:08.169,(-32 -24 -8 -8 -6 -12 -9 -11)
1969/12/31/18:00:08.182,(-45 -26 1 6 7 9 12 2)
1969/12/31/18:00:08.182,(61 39 1 -3 3 11 16 27)
1969/12/31/18:00:08.184,(13 8 5 0 -3 -5 -5 3)
1969/12/31/18:00:08.184,(-39 -23 -4 1 -6 -13 -18 -27)
1969/12/31/18:00:08.212,(25 10 -8 0 10 9 12 20)
1969/12/31/18:00:08.212,(-104 -42 0 -1 -3 -8 -15 -51)
1969/12/31/18:00:08.214,(-33 -10 -7 -1 6 16 16 1)
1969/12/31/18:00:08.214,(-18 -10 -4 -4 -13 -34 -56 -48)
1969/12/31/18:00:08.227,(-36 -18 -1 -7 -9 -13 -14 -20)
1969/12/31/18:00:08.227,(-1 -4 1 3 -6 -7 -6 1)
1969/12/31/18:00:08.229,(23 13 3 -8 -2 5 9 13)
1969/12/31/18:00:08.229,(0 5 4 6 11 18 22 20)
1969/12/31/18:00:08.242,(-2 -4 -2 2 -2 -1 0 -1)
1969/12/31/18:00:08.242,(6 -1 -3 -8 2 6 13 15)
1969/12/31/18:00:08.248,(20 4 -12 -51 -37 -17 -6 5)
1969/12/31/18:00:08.248,(5 2 6 30 24 8 11 12)
1969/12/31/18:00:08.264,(5 7 15 27 -11 -2 -3 -2)
1969/12/31/18:00:08.264,(14 5 8 33 28 12 8 11)
1969/12/31/18:00:08.266,(-5 -5 7 22 -3 -8 -17 -15)
1969/12/31/18:00:08.266,(22 18 -2 -28 4 17 24 28)
1969/12/31/18:00:08.288,(-3 -3 -8 -23 19 11 6 -1)
1969/12/31/18:00:08.288,(4 2 -6 -29 -7 0 3 8)
1969/12/31/18:00:08.290,(15 15 28 -14 -50 -16 1 10)
1969/12/31/18:00:08.290,(-18 -10 -2 36 30 -7 -12 -15)
1969/12/31/18:00:08.301,(1 -13 -33 25 25 0 -2 0)
1969/12/31/18:00:08.301,(-7 -9 3 -8 1 6 0 -1)
1969/12/31/18:00:08.310,(8 0 -18 -3 4 5 0 4)
1969/12/31/18:00:08.310,(7 1 4 -13 -27 -9 3 5)
1969/12/31/18:00:08.325,(0 11 33 0 -5 3 3 -1)
1969/12/31/18:00:08.325,(3 -1 -23 -20 -5 -9 -3 1)
1969/12/31/18:00:08.326,(19 4 -20 -18 2 2 9 16)
1969/12/31/18:00:08.326,(-14 -3 5 -16 -27 -10 -6 -10)
1969/12/31/18:00:08.347,(0 4 9 15 17 2 -1 -2)
1969/12/31/18:00:08.347,(9 5 9 7 -6 9 12 10)
1969/12/31/18:00:08.349,(2 4 23 40 31 7 -2 -1)
1969/12/31/18:00:08.349,(6 2 -8 -9 4 14 8 7)
1969/12/31/18:00:08.361,(1 -5 -3 15 -12 -13 -8 -3)
1969/12/31/18:00:08.361,(-5 -4 9 31 3 -12 -7 -6)
1969/12/31/18:00:08.370,(0 -1 -10 -11 17 -1 -2 -2)
1969/12/31/18:00:08.370,(-2 -4 -12 -17 -10 -3 -3 0)
1969/12/31/18:00:08.385,(-1 1 -7 -38 -29 -1 1 0)
1969/12/31/18:00:08.385,(9 5 -15 -33 -13 1 6 10)
1969/12/31/18:00:08.386,(5 -2 5 29 19 1 -1 4)
1969/12/31/18:00:08.386,(-11 -3 22 26 8 2 -4 -8)
1969/12/31/18:00:08.407,(5 7 4 -28 -6 3 4 4)
1969/12/31/18:00:08.407,(9 -3 -10 17 2 5 5 8)
1969/12/31/18:00:08.408,(2 -4 -14 18 26 0 0 2)
1969/12/31/18:00:08.409,(-9 -9 -10 2 -27 -12 -10 -8)
1969/12/31/18:00:08.421,(-12 -13 -15 -44 -31 -21 -14 -11)
1969/12/31/18:00:08.421,(1 6 14 8 4 -1 -1 0)
1969/12/31/18:00:08.436,(4 7 7 4 7 11 7 5)
1969/12/31/18:00:08.436,(-1 -3 -9 -11 9 6 3 1)
1969/12/31/18:00:08.445,(0 1 -5 10 12 0 0 -1)
1969/12/31/18:00:08.445,(-1 3 19 0 -14 0 1 0)
1969/12/31/18:00:08.446,(7 10 17 1 -1 7 7 5)
1969/12/31/18:00:08.446,(7 4 -6 3 6 2 4 5)
1969/12/31/18:00:08.467,(0 -12 -36 -5 -7 -6 -3 1)
1969/12/31/18:00:08.467,(-7 -4 3 -3 2 -4 -5 -6)
1969/12/31/18:00:08.469,(0 4 12 21 8 4 -1 -3)
1969/12/31/18:00:08.469,(1 0 3 -62 -10 -2 0 1)
1969/12/31/18:00:08.481,(2 8 10 46 4 1 0 1)
1969/12/31/18:00:08.481,(0 -10 -13 41 14 1 1 2)
1969/12/31/18:00:08.490,(-14 -17 -21 -34 -15 -12 -8 -10)
1969/12/31/18:00:08.490,(-2 -4 -7 -9 -10 -6 -2 -3)
1969/12/31/18:00:08.512,(-1 7 20 50 20 2 -3 -2)
1969/12/31/18:00:08.512,(0 3 -1 -17 3 -3 -3 0)
1969/12/31/18:00:08.513,(2 3 18 14 -2 0 2 1)
1969/12/31/18:00:08.514,(5 5 -2 -14 -4 -1 3 4)
1969/12/31/18:00:08.535,(-2 -11 -42 -80 -19 -11 -1 -1)
1969/12/31/18:00:08.535,(3 6 21 37 -6 -9 -3 0)
1969/12/31/18:00:08.536,(1 4 6 28 3 -1 -1 0)
1969/12/31/18:00:08.536,(6 6 2 34 17 10 3 3)
1969/12/31/18:00:08.541,(0 -1 13 12 16 11 1 2)
1969/12/31/18:00:08.541,(-4 -4 -17 -38 -9 10 2 -2)
1969/12/31/18:00:08.550,(0 -1 -9 -15 -3 2 -2 0)
1969/12/31/18:00:08.550,(-4 0 9 10 -3 -3 -4 -4)
1969/12/31/18:00:08.565,(-1 1 5 -2 -16 -2 3 0)
1969/12/31/18:00:08.565,(7 6 -10 -81 -1 7 7 6)
1969/12/31/18:00:08.566,(0 -4 -1 45 2 5 2 2)
1969/12/31/18:00:08.566,(-7 -1 8 48 29 8 -1 -3)
1969/12/31/18:00:08.587,(-1 -1 5 -7 -8 -5 -6 -4)
1969/12/31/18:00:08.587,(-4 -2 3 -8 -16 -17 -8 -4)
1969/12/31/18:00:08.588,(0 -3 -15 -26 -23 -5 -3 -2)
1969/12/31/18:00:08.589,(7 2 7 -9 4 7 9 7)
1969/12/31/18:00:08.601,(2 -3 -4 16 29 10 3 -1)
1969/12/31/18:00:08.601,(-3 -4 -6 35 10 5 1 -1)
1969/12/31/18:00:08.610,(-4 -14 -18 -15 17 -14 -2 1)
1969/12/31/18:00:08.610,(-7 -4 2 -14 -21 -14 -11 -8)
1969/12/31/18:00:08.632,(2 2 7 -3 -10 -5 -5 3)
1969/12/31/18:00:08.632,(2 5 -2 -9 -7 8 1 1)
1969/12/31/18:00:08.634,(7 -1 -19 -47 -20 9 7 7)
1969/12/31/18:00:08.634,(5 8 16 66 6 6 2 5)
1969/12/31/18:00:08.647,(-2 4 12 -2 -2 8 0 -3)
1969/12/31/18:00:08.647,(-4 0 4 21 17 16 4 -1)
1969/12/31/18:00:08.649,(3 9 9 -20 0 7 6 2)
1969/12/31/18:00:08.649,(4 -1 -14 -38 -10 -16 -4 1)
1969/12/31/18:00:08.661,(3 3 3 9 0 11 2 -1)
1969/12/31/18:00:08.661,(-9 -1 5 8 0 7 -1 -6)
1969/12/31/18:00:08.670,(13 -3 -4 15 20 11 7 9)
1969/12/31/18:00:08.670,(-9 -2 8 -22 -4 -1 -1 -6)
1969/12/31/18:00:08.692,(-9 -3 2 1 -5 -7 -5 -9)
1969/12/31/18:00:08.692,(13 5 -4 -13 0 -6 0 7)
1969/12/31/18:00:08.694,(-8 4 7 0 1 -5 -3 -5)
1969/12/31/18:00:08.694,(-10 -2 3 12 5 -6 -5 -7)
1969/12/31/18:00:08.707,(1 -12 -18 -15 -10 -16 -2 1)
1969/12/31/18:00:08.707,(-5 -6 -4 -10 -9 -18 -5 -5)
1969/12/31/18:00:08.708,(-4 0 5 33 18 -8 -6 -3)
1969/12/31/18:00:08.708,(-2 -7 -10 -4 -3 -5 -3 -2)
1969/12/31/18:00:08.730,(1 3 5 3 -7 -5 -3 1)
1969/12/31/18:00:08.730,(2 -2 -8 -23 -7 2 0 0)
1969/12/31/18:00:08.731,(5 5 8 12 4 7 0 -1)
1969/12/31/18:00:08.731,(2 3 2 -1 -6 11 4 3)
1969/12/31/18:00:08.745,(4 5 6 33 30 12 4 4)
1969/12/31/18:00:08.745,(-1 -1 2 -15 -13 -5 -3 -2)
1969/12/31/18:00:08.746,(-5 -4 -3 -10 -18 -2 -2 -3)
1969/12/31/18:00:08.746,(-1 -7 -8 -5 11 7 3 1)
1969/12/31/18:00:08.767,(-3 -2 -10 -42 -19 -7 -3 -2)
1969/12/31/18:00:08.767,(1 0 6 30 4 -2 2 1)
1969/12/31/18:00:08.769,(-6 2 10 1 4 -2 -2 -7)
1969/12/31/18:00:08.769,(0 -2 -6 -1 0 -5 -1 -2)
1969/12/31/18:00:08.781,(-4 -6 -7 -6 -6 -5 -1 -2)
1969/12/31/18:00:08.781,(-4 -3 -11 -8 1 -11 -3 -3)
1969/12/31/18:00:08.790,(3 -1 -5 -16 -10 -9 0 1)
1969/12/31/18:00:08.790,(1 -2 3 9 7 -3 0 -1)
1969/12/31/18:00:08.804,(-1 4 17 37 17 0 -1 0)
1969/12/31/18:00:08.804,(-1 2 5 8 5 -2 -4 -3)
1969/12/31/18:00:08.811,(2 -1 6 34 4 4 -1 2)
1969/12/31/18:00:08.811,(2 -1 -8 5 -3 4 3 3)
1969/12/31/18:00:08.827,(7 3 -5 -13 0 3 4 6)
1969/12/31/18:00:08.827,(4 3 -7 -26 -16 -2 0 4)
1969/12/31/18:00:08.828,(1 -2 -22 -30 -28 -4 0 2)
1969/12/31/18:00:08.828,(-2 1 0 -77 -7 -1 -5 -6)
1969/12/31/18:00:08.841,(-2 8 42 92 29 10 3 -3)
1969/12/31/18:00:08.841,(-1 0 14 51 19 8 2 1)
1969/12/31/18:00:08.850,(0 -4 -17 2 -9 0 0 1)
1969/12/31/18:00:08.850,(-5 -4 -14 -64 -21 -8 -2 -3)
1969/12/31/18:00:08.863,(-1 1 9 50 12 4 0 -2)
1969/12/31/18:00:08.863,(-1 -4 -13 -42 -20 -6 -2 -1)
1969/12/31/18:00:08.872,(-4 -1 1 -11 26 -1 -1 -4)
1969/12/31/18:00:08.872,(1 -4 -12 -19 -54 -6 1 3)
1969/12/31/18:00:08.887,(1 0 -1 -20 30 5 4 0)
1969/12/31/18:00:08.887,(0 10 41 127 54 23 6 0)
1969/12/31/18:00:08.889,(-5 -1 2 -8 0 -3 -5 -6)
1969/12/31/18:00:08.889,(-3 -3 -8 6 -1 -4 -1 -2)
1969/12/31/18:00:08.911,(-4 -8 -30 -86 -49 -17 -7 -4)
1969/12/31/18:00:08.911,(1 -3 -4 -30 -13 -6 2 4)
1969/12/31/18:00:08.912,(-1 2 12 36 8 0 0 -1)
1969/12/31/18:00:08.912,(5 5 6 22 15 6 4 3)
1969/12/31/18:00:08.924,(-9 -4 -2 -11 -11 -4 -6 -5)
1969/12/31/18:00:08.924,(-1 -4 -14 -29 -6 -9 -10 -6)
1969/12/31/18:00:08.931,(0 1 1 -14 -6 0 2 1)
1969/12/31/18:00:08.931,(1 1 5 30 13 -1 -2 0)
1969/12/31/18:00:08.948,(-1 -2 -6 -15 -5 3 4 0)
1969/12/31/18:00:08.948,(0 -1 -2 -5 -3 -3 0 0)
1969/12/31/18:00:08.949,(-1 0 2 -5 -6 -1 0 -2)
1969/12/31/18:00:08.949,(1 -1 3 20 7 4 1 1)
1969/12/31/18:00:08.961,(0 -1 -3 -9 4 1 -2 3)
1969/12/31/18:00:08.961,(-2 -1 0 -2 -3 0 -3 -1)
1969/12/31/18:00:08.969,(-1 0 0 0 1 0 -2 -2)
1969/12/31/18:00:08.970,(-1 -2 1 11 4 1 -2 -2)
1969/12/31/18:00:08.984,(1 1 -2 -9 -12 -5 -2 -1)
1969/12/31/18:00:08.984,(-1 -2 -5 -8 -10 -1 1 -1)
1969/12/31/18:00:08.991,(-1 1 -2 -8 2 1 -1 2)
1969/12/31/18:00:08.991,(-1 1 4 19 16 2 0 0)
1969/12/31/18:00:09.007,(-1 -3 -3 -11 -6 -1 -3 -4)
1969/12/31/18:00:09.007,(0 2 3 1 1 -2 0 2)
1969/12/31/18:00:09.009,(2 0 1 8 -6 2 3 1)
1969/12/31/18:00:09.009,(1 0 2 13 3 1 0 1)
1969/12/31/18:00:09.021,(1 1 -3 -14 -2 -2 -1 -2)
1969/12/31/18:00:09.021,(-1 -3 -6 -5 -14 -2 2 -1)
1969/12/31/18:00:09.030,(1 0 3 -8 9 -1 -2 -2)
1969/12/31/18:00:09.030,(1 2 5 13 3 2 2 1)
1969/12/31/18:00:09.052,(-3 -1 0 11 -1 0 3 0)
1969/12/31/18:00:09.052,(-3 -2 -5 -10 -1 -1 -1 -2)
1969/12/31/18:00:09.054,(0 -1 -2 -9 -9 -3 0 0)
1969/12/31/18:00:09.054,(0 0 -5 -4 -1 -1 -1 0)
1969/12/31/18:00:09.067,(-2 -1 1 -4 -3 0 1 0)
1969/12/31/18:00:09.067,(2 4 0 0 -1 2 0 1)
1969/12/31/18:00:09.069,(-2 -1 -1 -1 -1 -2 0 -2)
1969/12/31/18:00:09.069,(-3 -2 -1 -4 1 0 -2 0)
1969/12/31/18:00:09.097,(3 0 2 4 -3 -2 1 1)
1969/12/31/18:00:09.097,(-2 -2 0 -3 5 -1 0 -1)
1969/12/31/18:00:09.099,(0 -1 -1 -2 -1 1 -2 -1)
1969/12/31/18:00:09.099,(1 0 0 0 -2 3 2 1)
1969/12/31/18:00:09.104,(-4 -2 2 0 -3 0 -2 -3)
1969/12/31/18:00:09.104,(-4 -6 -4 0 0 -3 -4 -3)
1969/12/31/18:00:09.111,(1 1 0 -4 -3 -2 -3 -4)
1969/12/31/18:00:09.111,(-1 0 1 2 0 -4 -2 0)
1969/12/31/18:00:09.127,(3 2 -1 2 -2 1 2 3)
1969/12/31/18:00:09.127,(1 1 -1 2 4 1 0 0)
1969/12/31/18:00:09.129,(-2 -2 -1 4 -2 0 0 1)
1969/12/31/18:00:09.129,(0 -2 -2 0 0 -1 -1 -1)
1969/12/31/18:00:09.150,(-1 2 -1 0 -3 0 1 1)
1969/12/31/18:00:09.150,(0 -1 -2 -2 0 -2 -2 -3)
1969/12/31/18:00:09.151,(-1 0 0 -2 -3 -1 0 1)
1969/12/31/18:00:09.151,(1 1 0 1 0 -1 1 1)
1969/12/31/18:00:09.163,(1 -2 -2 -2 0 -2 -1 -2)
1969/12/31/18:00:09.163,(0 -1 0 -1 1 0 2 0)
1969/12/31/18:00:09.172,(2 0 -1 -1 1 1 1 2)
1969/12/31/18:00:09.172,(-1 -1 -2 -2 0 -3 -1 -1)
1969/12/31/18:00:09.187,(0 -2 0 1 -3 -2 -2 -1)
1969/12/31/18:00:09.187,(0 -1 0 1 1 3 1 0)
1969/12/31/18:00:09.189,(-2 -1 -3 -1 -3 0 1 -3)
1969/12/31/18:00:09.189,(1 -1 0 -1 1 0 0 2)
1969/12/31/18:00:09.211,(-1 1 0 0 0 -2 -4 -1)
1969/12/31/18:00:09.211,(0 -2 1 -2 -1 1 0 1)
1969/12/31/18:00:09.212,(-1 -2 -1 -1 -2 0 -1 0)
1969/12/31/18:00:09.212,(0 -1 -3 0 -1 -1 -1 0)
1969/12/31/18:00:09.224,(1 0 -1 2 0 -1 -3 -3)
1969/12/31/18:00:09.224,(-2 0 0 -2 -1 1 -2 -2)
1969/12/31/18:00:09.232,(-3 0 1 -4 -2 -1 0 2)
1969/12/31/18:00:09.232,(-1 -1 -1 -3 -1 0 2 0)
1969/12/31/18:00:09.247,(0 0 0 -1 0 -2 1 2)
1969/12/31/18:00:09.247,(-3 0 0 0 0 -2 -3 -3)
1969/12/31/18:00:09.248,(-2 0 1 1 -1 1 -1 -1)
1969/12/31/18:00:09.249,(-1 -1 -2 -1 1 2 -1 -1)
1969/12/31/18:00:09.270,(-3 0 -3 0 0 0 0 -1)
1969/12/31/18:00:09.270,(1 -1 -1 -1 1 1 -1 0)
1969/12/31/18:00:09.271,(0 0 0 -1 -1 0 0 -1)
1969/12/31/18:00:09.271,(-1 0 1 2 -1 0 -1 -2)
1969/12/31/18:00:09.283,(0 -2 -2 -1 1 0 0 -2)
1969/12/31/18:00:09.283,(2 -1 1 0 1 -3 1 -1)
1969/12/31/18:00:09.292,(0 -1 -1 0 1 -2 -3 -2)
1969/12/31/18:00:09.292,(-2 1 -2 0 -2 -1 -1 1)
1969/12/31/18:00:09.307,(0 0 0 -2 -2 -1 0 2)
1969/12/31/18:00:09.307,(1 0 0 -3 -3 -1 2 1)
