time,.data
1969/12/31/18:00:05.774000,(0 0 0 1 -1 0 -1 0)
1969/12/31/18:00:05.774000,(-2 -3 -3 -2 -1 -1 -1 -1)
1969/12/31/18:00:05.776000,(-2 -1 2 -1 0 1 -2 -1)
1969/12/31/18:00:05.776000,(-1 0 0 0 1 0 -1 1)
1969/12/31/18:00:05.789000,(0 0 1 0 -2 -2 -1 0)
1969/12/31/18:00:05.789000,(0 0 -1 -1 0 -1 -1 0)
1969/12/31/18:00:05.803000,(-1 1 -1 1 -2 -1 2 2)
1969/12/31/18:00:05.803000,(-2 0 2 5 2 -1 -1 -1)
1969/12/31/18:00:05.812000,(-1 -2 -5 -5 -5 -3 -4 -6)
1969/12/31/18:00:05.812000,(2 3 5 -2 0 0 -2 -1)
1969/12/31/18:00:05.814000,(-1 -2 -4 -4 -4 -1 1 -1)
1969/12/31/18:00:05.814000,(0 -1 -3 -3 -1 -1 0 -1)
1969/12/31/18:00:05.835000,(0 -1 -2 0 -1 0 1 1)
1969/12/31/18:00:05.835000,(-3 -3 -4 -2 -1 -2 -1 -2)
1969/12/31/18:00:05.837000,(1 1 2 -2 -1 -2 -2 -3)
1969/12/31/18:00:05.837000,(-3 -6 -9 -9 -2 -2 0 0)
1969/12/31/18:00:05.857000,(0 1 2 0 -1 0 -2 1)
1969/12/31/18:00:05.857000,(-3 -2 0 0 1 -2 -4 -3)
1969/12/31/18:00:05.858000,(0 2 -5 -3 -1 -3 0 -1)
1969/12/31/18:00:05.858000,(-2 2 12 10 3 0 -1 -1)
1969/12/31/18:00:05.872000,(0 2 2 2 1 0 2 0)
1969/12/31/18:00:05.872000,(2 1 -3 -6 -1 -1 -2 -1)
1969/12/31/18:00:05.873000,(-5 -6 1 0 -5 -8 -2 -4)
1969/12/31/18:00:05.873000,(2 2 -2 3 4 1 2 2)
1969/12/31/18:00:05.894000,(-2 -5 -9 -6 -1 3 2 1)
1969/12/31/18:00:05.894000,(-1 1 3 -2 -6 -7 -8 -11)
1969/12/31/18:00:05.896000,(-2 -5 -9 2 1 1 3 1)
1969/12/31/18:00:05.896000,(-1 -1 4 3 -1 -2 1 1)
1969/12/31/18:00:05.908000,(1 3 6 3 -2 -2 -2 -3)
1969/12/31/18:00:05.908000,(-4 -9 -19 -15 -3 4 4 5)
1969/12/31/18:00:05.917000,(3 5 6 -2 -3 -3 -2 -2)
1969/12/31/18:00:05.917000,(-4 -1 5 3 -6 -4 -2 -4)
1969/12/31/18:00:05.932000,(-1 -1 -10 1 10 2 4 3)
1969/12/31/18:00:05.932000,(1 4 26 21 4 -2 -2 -5)
1969/12/31/18:00:05.934000,(-1 -3 -8 2 7 5 9 13)
1969/12/31/18:00:05.934000,(0 -8 -21 -25 -10 -8 -2 -2)
1969/12/31/18:00:05.953000,(-2 -3 -7 -3 -2 -6 5 3)
1969/12/31/18:00:05.954000,(2 3 -8 -2 0 -3 2 4)
1969/12/31/18:00:05.978000,(1 2 15 4 2 -2 0 1)
1969/12/31/18:00:05.978000,(1 4 -1 5 4 3 0 -2)
1969/12/31/18:00:05.979000,(0 -4 -11 -16 -6 1 -4 0)
1969/12/31/18:00:05.979000,(-4 -6 5 0 -3 6 1 0)
1969/12/31/18:00:05.980000,(3 3 8 7 -6 2 -14 -11)
1969/12/31/18:00:05.980000,(-3 -2 -7 -6 -4 6 -6 -4)
1969/12/31/18:00:05.991000,(0 3 21 9 -3 4 -4 -2)
1969/12/31/18:00:05.991000,(-2 0 4 5 -1 5 1 2)
1969/12/31/18:00:05.998000,(-1 -7 -7 -10 -5 2 1 4)
1969/12/31/18:00:05.998000,(0 -3 -8 -8 -3 -4 -5 -2)
1969/12/31/18:00:06.014000,(0 3 14 9 -4 -7 -5 -2)
1969/12/31/18:00:06.014000,(-1 -6 -8 -3 7 8 2 -1)
1969/12/31/18:00:06.016000,(-6 4 1 0 -1 -4 -2 -5)
1969/12/31/18:00:06.016000,(1 -1 9 2 0 0 -4 -7)
1969/12/31/18:00:06.028000,(-3 -1 -5 -5 -2 -3 -3 -5)
1969/12/31/18:00:06.028000,(-1 0 -6 -1 -3 -7 4 9)
1969/12/31/18:00:06.037000,(-1 -2 -15 -3 6 -3 -2 -3)
1969/12/31/18:00:06.037000,(-1 1 -7 -4 2 0 10 6)
1969/12/31/18:00:06.052000,(-6 -2 -7 -3 -2 -10 2 0)
1969/12/31/18:00:06.052000,(-1 -1 -5 -2 -1 -8 -1 -1)
1969/12/31/18:00:06.053000,(-3 -4 -4 -5 1 -2 2 0)
1969/12/31/18:00:06.053000,(-1 2 6 2 -3 -4 -5 -4)
1969/12/31/18:00:06.075000,(4 0 4 5 3 7 0 -1)
1969/12/31/18:00:06.075000,(-2 -2 -3 -6 -10 -7 -17 -13)
1969/12/31/18:00:06.076000,(-1 -3 5 -2 -5 4 -6 -6)
1969/12/31/18:00:06.076000,(-2 -1 3 2 -2 2 -4 -2)
1969/12/31/18:00:06.088000,(0 -3 -1 2 -1 1 -4 -3)
1969/12/31/18:00:06.088000,(0 -6 -4 -2 -2 3 3 3)
1969/12/31/18:00:06.097000,(-4 3 1 -2 -1 0 -1 -4)
1969/12/31/18:00:06.097000,(0 1 6 6 1 0 -1 -1)
1969/12/31/18:00:06.113000,(0 -2 -5 -4 -2 0 4 3)
1969/12/31/18:00:06.113000,(-1 0 -1 0 0 -1 0 -2)
1969/12/31/18:00:06.114000,(1 -6 -9 -4 -3 -6 -1 -2)
1969/12/31/18:00:06.114000,(7 -15 -23 -9 -1 -2 6 8)
1969/12/31/18:00:06.134000,(-11 5 6 -4 -3 -6 4 -1)
1969/12/31/18:00:06.134000,(13 14 3 4 8 -2 -10 -7)
1969/12/31/18:00:06.136000,(-11 10 24 9 3 1 0 -2)
1969/12/31/18:00:06.136000,(-8 -14 -4 -5 -6 -1 6 7)
1969/12/31/18:00:06.148000,(0 -9 -5 2 0 0 -8 -6)
1969/12/31/18:00:06.148000,(6 1 -3 -1 -2 1 3 12)
1969/12/31/18:00:06.157000,(-1 -12 -15 -8 -5 -1 -3 -3)
1969/12/31/18:00:06.157000,(7 12 0 3 1 -2 -9 -6)
1969/12/31/18:00:06.172000,(-2 -1 -3 -1 1 0 4 1)
1969/12/31/18:00:06.172000,(-4 -1 -1 -3 0 -6 4 7)
1969/12/31/18:00:06.174000,(9 4 -9 -4 1 -1 11 11)
1969/12/31/18:00:06.174000,(-3 -6 0 0 1 -2 5 -9)
1969/12/31/18:00:06.194000,(0 4 -4 -4 -2 -3 0 -3)
1969/12/31/18:00:06.194000,(-29 -8 -3 0 -1 -3 2 -14)
1969/12/31/18:00:06.196000,(-21 -11 -8 -4 -3 -12 -10 -8)
1969/12/31/18:00:06.196000,(41 17 -1 -2 3 -5 10 33)
1969/12/31/18:00:06.208000,(16 8 1 3 7 0 11 -4)
1969/12/31/18:00:06.208000,(-54 -24 -6 -7 -4 -4 -7 -12)
1969/12/31/18:00:06.217000,(22 13 13 3 -2 10 0 -5)
1969/12/31/18:00:06.217000,(-10 3 16 6 -3 10 -16 -1)
1969/12/31/18:00:06.232000,(6 -13 4 -3 -12 5 -21 -29)
1969/12/31/18:00:06.232000,(-5 0 10 4 -6 9 -5 3)
1969/12/31/18:00:06.234000,(-24 -13 2 1 -4 4 -9 -13)
1969/12/31/18:00:06.234000,(31 18 10 2 1 7 3 18)
1969/12/31/18:00:06.255000,(-24 -4 3 2 1 -1 -12 -25)
1969/12/31/18:00:06.255000,(8 -1 -5 -4 -2 -1 -1 -5)
1969/12/31/18:00:06.256000,(32 19 3 1 2 7 17 23)
1969/12/31/18:00:06.257000,(-18 -3 -3 0 0 -5 -2 -12)
1969/12/31/18:00:06.268000,(3 1 1 3 2 1 5 46)
1969/12/31/18:00:06.268000,(-49 -33 -14 -8 -1 5 -3 -36)
1969/12/31/18:00:06.277000,(45 17 4 4 4 -3 8 37)
1969/12/31/18:00:06.277000,(-10 11 1 1 -2 -27 -10 -29)
1969/12/31/18:00:06.292000,(-31 -13 -7 0 7 33 24 -17)
1969/12/31/18:00:06.292000,(6 -11 -12 -11 -4 4 -49 -25)
1969/12/31/18:00:06.294000,(-11 -5 0 -2 -2 -20 -3 8)
1969/12/31/18:00:06.294000,(-12 -1 -1 -1 -2 -24 -12 -23)
1969/12/31/18:00:06.314000,(12 -2 -1 1 12 48 11 40)
1969/12/31/18:00:06.314000,(40 20 2 1 -6 -63 6 29)
1969/12/31/18:00:06.316000,(-30 -28 -7 -3 -8 19 8 -23)
1969/12/31/18:00:06.316000,(-16 7 -4 -8 -9 -56 -32 -20)
1969/12/31/18:00:06.328000,(-26 -22 -4 -4 -5 -9 -1 -19)
1969/12/31/18:00:06.328000,(27 21 6 1 7 65 23 -11)
1969/12/31/18:00:06.337000,(32 16 7 10 10 15 18 37)
1969/12/31/18:00:06.337000,(-39 -33 -15 -11 -10 -4 17 6)
1969/12/31/18:00:06.352000,(20 4 -2 -3 -2 -18 -2 33)
1969/12/31/18:00:06.352000,(-8 8 6 2 -4 -29 -17 -41)
1969/12/31/18:00:06.354000,(10 -1 -2 2 4 19 19 13)
1969/12/31/18:00:06.354000,(59 34 16 13 16 57 27 41)
1969/12/31/18:00:06.375000,(-18 -22 -21 -14 -18 -69 -18 -28)
1969/12/31/18:00:06.375000,(8 14 10 6 2 -31 12 14)
1969/12/31/18:00:06.376000,(11 19 -3 0 6 39 5 10)
1969/12/31/18:00:06.376000,(-11 -22 -9 -9 -12 -9 -21 -22)
1969/12/31/18:00:06.388000,(-5 -5 -4 1 10 95 7 22)
1969/12/31/18:00:06.388000,(3 -2 3 5 -6 -74 8 -1)
1969/12/31/18:00:06.397000,(-13 3 -6 -8 -5 23 -10 -16)
1969/12/31/18:00:06.397000,(-47 -23 -10 -4 -9 -36 -49 -72)
1969/12/31/18:00:06.412000,(29 24 10 0 -7 -36 -16 28)
1969/12/31/18:00:06.412000,(-10 -10 -9 -6 -10 -2 7 -2)
1969/12/31/18:00:06.414000,(-19 -7 2 3 15 51 21 -28)
1969/12/31/18:00:06.414000,(53 24 15 12 0 -21 20 70)
1969/12/31/18:00:06.434000,(5 0 -6 -3 0 1 20 13)
1969/12/31/18:00:06.434000,(39 1 -1 -4 3 41 -12 -4)
1969/12/31/18:00:06.436000,(-15 -6 4 6 -1 -32 8 -5)
1969/12/31/18:00:06.436000,(-26 -17 -9 -6 -1 4 -14 -33)
1969/12/31/18:00:06.448000,(40 23 7 5 14 28 19 53)
1969/12/31/18:00:06.448000,(1 -7 -2 1 -4 -4 17 53)
1969/12/31/18:00:06.457000,(37 12 3 3 1 -29 -20 13)
1969/12/31/18:00:06.457000,(-53 -38 -8 -7 -3 54 23 -20)
1969/12/31/18:00:06.471000,(-20 17 -1 -3 0 16 -46 -60)
1969/12/31/18:00:06.471000,(-6 10 9 8 14 24 -6 -48)
1969/12/31/18:00:06.486000,(-65 -31 -20 -18 -26 -61 -42 -108)
1969/12/31/18:00:06.486000,(7 5 -1 -3 2 -7 -11 23)
1969/12/31/18:00:06.494000,(10 11 11 5 3 12 36 3)
1969/12/31/18:00:06.494000,(0 -1 -5 -8 -11 3 -56 -4)
1969/12/31/18:00:06.496000,(19 6 -2 3 0 -27 -31 -7)
1969/12/31/18:00:06.496000,(-10 2 1 -1 -2 5 1 -24)
1969/12/31/18:00:06.517000,(-30 -32 -14 -14 -16 -24 -2 -29)
1969/12/31/18:00:06.517000,(19 15 4 -3 -2 -69 -3 36)
1969/12/31/18:00:06.519000,(-11 -13 -3 5 17 76 3 4)
1969/12/31/18:00:06.519000,(-35 -18 -3 5 4 -8 11 9)
1969/12/31/18:00:06.531000,(40 36 6 4 -2 -31 7 6)
1969/12/31/18:00:06.531000,(-11 -12 -11 -9 -10 -13 -9 -12)
1969/12/31/18:00:06.538000,(14 11 6 0 8 37 -3 38)
1969/12/31/18:00:06.538000,(-8 0 3 1 2 28 29 6)
1969/12/31/18:00:06.556000,(-20 -12 1 2 3 43 1 -7)
1969/12/31/18:00:06.556000,(-9 -2 1 1 -2 -27 -18 -10)
1969/12/31/18:00:06.558000,(-13 9 -4 -5 -3 -8 14 47)
1969/12/31/18:00:06.558000,(24 -1 -1 -2 -1 -9 3 45)
1969/12/31/18:00:06.570000,(4 -5 2 1 -9 -39 -20 0)
1969/12/31/18:00:06.570000,(-39 -12 -17 -14 -7 89 33 -13)
1969/12/31/18:00:06.572000,(-12 -10 1 -1 -10 -69 -20 -2)
1969/12/31/18:00:06.572000,(11 5 0 0 7 15 -39 -13)
1969/12/31/18:00:06.583000,(-8 -9 -7 -8 -13 -32 -6 -26)
1969/12/31/18:00:06.583000,(7 5 2 4 14 35 1 -1)
1969/12/31/18:00:06.592000,(5 -3 1 -1 -9 -31 26 31)
1969/12/31/18:00:06.592000,(-13 -9 -7 -6 -7 -5 -18 -20)
1969/12/31/18:00:06.606000,(18 16 5 3 8 5 0 32)
1969/12/31/18:00:06.606000,(-2 -21 -1 1 11 29 59 13)
1969/12/31/18:00:06.615000,(-2 -12 -7 -7 -13 1 -21 -36)
1969/12/31/18:00:06.615000,(-9 -4 -6 -8 -2 27 37 0)
1969/12/31/18:00:06.630000,(23 9 8 7 -1 -11 -11 4)
1969/12/31/18:00:06.630000,(-2 -4 -1 -11 -3 30 3 12)
1969/12/31/18:00:06.631000,(-3 -1 1 7 14 16 15 1)
1969/12/31/18:00:06.631000,(-39 3 10 17 3 -82 -65 -67)
1969/12/31/18:00:06.643000,(-11 -18 -12 -7 -8 -43 63 32)
1969/12/31/18:00:06.643000,(21 16 -1 1 -28 -68 -59 -31)
1969/12/31/18:00:06.658000,(-39 -12 -6 -7 17 43 -14 -47)
1969/12/31/18:00:06.658000,(20 10 4 3 -6 14 9 6)
1969/12/31/18:00:06.666000,(-8 -5 -4 -5 -5 0 -25 -22)
1969/12/31/18:00:06.666000,(6 -1 7 18 49 -13 12 18)
1969/12/31/18:00:06.675000,(20 11 4 -1 -17 -7 38 25)
1969/12/31/18:00:06.675000,(10 6 -6 -11 -27 -27 -9 18)
1969/12/31/18:00:06.690000,(-24 -13 1 3 19 -4 -35 -24)
1969/12/31/18:00:06.690000,(-4 -9 -3 -3 -83 -31 6 10)
1969/12/31/18:00:06.691000,(3 2 -3 -9 -3 -19 -21 -11)
1969/12/31/18:00:06.691000,(18 7 -1 -12 -40 8 22 15)
1969/12/31/18:00:06.703000,(-9 1 -3 -6 8 18 -34 -48)
1969/12/31/18:00:06.703000,(3 11 3 12 62 42 -14 19)
1969/12/31/18:00:06.712000,(-11 -21 -9 4 25 -30 2 3)
1969/12/31/18:00:06.712000,(14 0 -3 4 39 38 23 7)
1969/12/31/18:00:06.726000,(1 6 5 17 26 -20 14 7)
1969/12/31/18:00:06.726000,(7 2 3 9 13 5 -18 -4)
1969/12/31/18:00:06.735000,(-7 -4 -6 -19 -101 -87 -16 -21)
1969/12/31/18:00:06.735000,(13 5 1 -12 -56 -60 -18 17)
1969/12/31/18:00:06.749000,(-9 -6 -5 -10 -10 13 -11 -21)
1969/12/31/18:00:06.749000,(-4 0 6 5 22 19 16 23)
1969/12/31/18:00:06.755000,(2 3 -1 -1 71 89 4 -3)
1969/12/31/18:00:06.756000,(8 4 2 11 -30 -4 18 10)
1969/12/31/18:00:06.763000,(0 -3 -3 -13 -46 -39 -15 7)
1969/12/31/18:00:06.763000,(-12 -9 -11 -16 4 16 8 -38)
1969/12/31/18:00:06.772000,(2 -7 7 10 42 42 15 24)
1969/12/31/18:00:06.772000,(-2 -7 1 26 72 25 15 4)
1969/12/31/18:00:06.785000,(1 -1 -2 4 3 13 1 15)
1969/12/31/18:00:06.785000,(36 15 -35 -38 -87 -50 2 25)
1969/12/31/18:00:06.794000,(-14 -16 12 -2 13 -4 -9 -10)
1969/12/31/18:00:06.794000,(-6 20 42 26 39 18 7 9)
1969/12/31/18:00:06.809000,(7 10 10 16 -7 9 -5 -15)
1969/12/31/18:00:06.809000,(7 -6 -13 -4 17 19 0 12)
1969/12/31/18:00:06.811000,(19 -7 -68 -18 -3 -11 8 2)
1969/12/31/18:00:06.811000,(1 35 81 26 3 31 15 22)
1969/12/31/18:00:06.823000,(-54 -3 32 -3 -26 -37 -8 -22)
1969/12/31/18:00:06.823000,(-5 10 14 2 -1 8 12 5)
1969/12/31/18:00:06.832000,(30 7 -23 0 -12 -28 -21 -20)
1969/12/31/18:00:06.832000,(14 -66 -91 -32 15 10 -1 -9)
1969/12/31/18:00:06.846000,(37 37 14 3 21 32 16 27)
1969/12/31/18:00:06.846000,(-20 60 74 28 -17 -4 5 16)
1969/12/31/18:00:06.854000,(-27 -2 27 3 -20 -35 -22 -45)
1969/12/31/18:00:06.855000,(-19 -6 0 -4 10 10 -8 4)
1969/12/31/18:00:06.869000,(37 -58 -105 -25 5 19 8 -12)
1969/12/31/18:00:06.869000,(-20 -64 10 5 36 7 32 28)
1969/12/31/18:00:06.871000,(8 43 9 -2 -46 -19 8 22)
1969/12/31/18:00:06.871000,(7 2 -8 -18 -38 -35 -58 -92)
1969/12/31/18:00:06.883000,(39 -30 -41 -8 1 1 19 84)
1969/12/31/18:00:06.883000,(-53 40 41 32 71 41 22 4)
1969/12/31/18:00:06.892000,(48 44 25 -2 -83 -56 -7 32)
1969/12/31/18:00:06.892000,(-14 6 -2 -25 -22 0 5 4)
1969/12/31/18:00:06.906000,(8 -22 -36 -4 36 11 -20 -33)
1969/12/31/18:00:06.906000,(7 -102 -95 -25 1 37 24 17)
1969/12/31/18:00:06.915000,(-68 32 46 4 -32 -46 -45 -26)
1969/12/31/18:00:06.915000,(28 9 -36 -14 -3 -16 -1 -49)
1969/12/31/18:00:06.930000,(-60 107 127 51 7 -3 -7 -21)
1969/12/31/18:00:06.930000,(50 30 29 24 36 30 -7 -10)
1969/12/31/18:00:06.931000,(-17 -117 -94 -22 10 25 25 5)
1969/12/31/18:00:06.931000,(-4 -53 -102 -63 -42 -26 24 9)
1969/12/31/18:00:06.944000,(-51 38 82 27 22 22 -42 -26)
1969/12/31/18:00:06.944000,(-15 26 18 8 -20 -34 -23 -34)
1969/12/31/18:00:06.952000,(-14 -47 -8 14 43 19 -2 -21)
1969/12/31/18:00:06.952000,(40 87 43 20 33 28 -9 5)
1969/12/31/18:00:06.965000,(-30 -48 -30 -15 -75 -61 27 -6)
1969/12/31/18:00:06.966000,(36 -64 -50 -39 -76 -67 -16 18)
1969/12/31/18:00:06.975000,(5 -14 -14 -3 62 49 -4 63)
1969/12/31/18:00:06.975000,(-50 -2 20 10 5 21 31 -2)
1969/12/31/18:00:06.990000,(19 86 18 15 37 14 -10 -47)
1969/12/31/18:00:06.990000,(10 20 11 -33 -93 -85 -21 -3)
1969/12/31/18:00:06.991000,(25 -44 -86 -33 28 20 19 -25)
1969/12/31/18:00:06.991000,(-65 80 107 64 32 -3 -22 -65)
1969/12/31/18:00:07.003000,(37 -12 -49 -2 28 33 5 -6)
1969/12/31/18:00:07.003000,(-18 -13 -31 -4 12 2 12 -20)
1969/12/31/18:00:07.012000,(-2 -98 -72 -17 3 32 28 19)
1969/12/31/18:00:07.012000,(-24 75 11 2 -7 7 52 127)
1969/12/31/18:00:07.026000,(72 87 80 33 36 26 -5 15)
1969/12/31/18:00:07.026000,(-40 -52 -43 -7 -9 -3 -31 -101)
1969/12/31/18:00:07.035000,(4 29 64 23 -6 -44 -15 0)
1969/12/31/18:00:07.035000,(59 -102 -82 -32 -20 30 -4 20)
1969/12/31/18:00:07.049000,(-55 -10 -29 -35 -51 -47 37 10)
1969/12/31/18:00:07.050000,(21 88 47 8 1 2 -61 -3)
1969/12/31/18:00:07.051000,(13 37 63 22 -5 32 0 -13)
1969/12/31/18:00:07.051000,(7 -87 -56 -11 35 -19 -20 -5)
1969/12/31/18:00:07.063000,(-22 -89 -12 -8 10 6 31 23)
1969/12/31/18:00:07.063000,(2 39 -27 -15 -3 37 42 41)
1969/12/31/18:00:07.072000,(-41 -11 49 14 -32 -36 -34 -27)
1969/12/31/18:00:07.072000,(-12 21 14 -1 -3 -18 -25 -32)
1969/12/31/18:00:07.086000,(12 22 -10 -9 32 43 -1 -10)
1969/12/31/18:00:07.086000,(32 4 -1 24 20 -24 8 27)
1969/12/31/18:00:07.095000,(23 -17 -18 -12 -17 11 25 52)
1969/12/31/18:00:07.095000,(6 -55 -46 -13 49 59 8 -3)
1969/12/31/18:00:07.109000,(-30 1 36 18 -39 -53 -11 20)
1969/12/31/18:00:07.109000,(29 10 25 16 3 23 19 42)
1969/12/31/18:00:07.111000,(-21 42 -31 -41 -26 -24 -38 -74)
1969/12/31/18:00:07.111000,(22 -65 -22 1 19 -28 0 1)
1969/12/31/18:00:07.123000,(-12 20 2 19 55 64 9 -19)
1969/12/31/18:00:07.124000,(-2 -40 -46 -33 -78 -76 -20 27)
1969/12/31/18:00:07.140000,(-4 91 84 13 -13 -14 -15 -16)
1969/12/31/18:00:07.140000,(24 56 29 13 24 37 0 10)
1969/12/31/18:00:07.146000,(32 -82 -103 -42 13 -5 24 49)
1969/12/31/18:00:07.146000,(-56 98 92 41 3 -5 -26 -62)
1969/12/31/18:00:07.153000,(12 -27 -59 2 36 26 22 23)
1969/12/31/18:00:07.153000,(-1 12 65 32 -44 -39 -7 20)
1969/12/31/18:00:07.169000,(18 -38 -21 -5 -6 18 30 12)
1969/12/31/18:00:07.169000,(-3 -73 -46 -3 81 58 -8 7)
1969/12/31/18:00:07.171000,(5 7 -50 -23 -69 -68 -40 -58)
1969/12/31/18:00:07.171000,(-36 71 92 12 -2 5 -16 -45)
1969/12/31/18:00:07.183000,(3 -41 -39 -15 -16 -3 -38 -13)
1969/12/31/18:00:07.183000,(9 -16 -17 -9 2 -8 15 -15)
1969/12/31/18:00:07.192000,(7 45 69 36 44 36 1 46)
1969/12/31/18:00:07.192000,(8 -71 -52 -29 -52 -29 47 47)
1969/12/31/18:00:07.206000,(-36 7 -9 -32 -75 -45 -36 -4)
1969/12/31/18:00:07.206000,(-5 97 44 11 39 14 1 -29)
1969/12/31/18:00:07.213000,(-19 -47 14 19 60 29 -12 -7)
1969/12/31/18:00:07.213000,(43 51 -38 8 30 32 25 59)
1969/12/31/18:00:07.229000,(-22 -26 27 -4 -36 -11 11 -18)
1969/12/31/18:00:07.229000,(-1 -33 -9 2 8 31 5 -15)
1969/12/31/18:00:07.244000,(-6 -61 -30 -3 -4 -21 1 0)
1969/12/31/18:00:07.244000,(-17 25 -17 -14 -18 -21 -25 -48)
1969/12/31/18:00:07.245000,(5 63 42 22 19 0 7 4)
1969/12/31/18:00:07.245000,(37 -35 -21 -3 10 -14 -18 -1)
1969/12/31/18:00:07.252000,(-7 -50 -21 10 30 23 27 30)
1969/12/31/18:00:07.252000,(3 -7 -11 -19 -32 -15 -14 -5)
1969/12/31/18:00:07.274000,(3 -11 -28 -26 -36 -10 27 2)
1969/12/31/18:00:07.274000,(-20 -28 6 14 32 15 -14 -11)
1969/12/31/18:00:07.276000,(13 61 -9 -7 -19 -6 5 4)
1969/12/31/18:00:07.276000,(13 27 20 25 72 77 44 19)
1969/12/31/18:00:07.289000,(-39 27 45 3 -82 -89 -72 -63)
1969/12/31/18:00:07.289000,(7 18 20 0 -9 10 9 7)
1969/12/31/18:00:07.296000,(35 -90 -55 0 69 28 0 14)
1969/12/31/18:00:07.296000,(-35 61 24 21 -17 -10 1 -28)
1969/12/31/18:00:07.312000,(47 72 60 -1 -37 -27 -28 13)
1969/12/31/18:00:07.312000,(-6 -23 -33 -2 20 18 27 26)
1969/12/31/18:00:07.313000,(-38 -37 -10 -16 -28 -18 -2 -20)
1969/12/31/18:00:07.313000,(25 -49 -30 -27 -29 -23 -13 42)
1969/12/31/18:00:07.326000,(-41 -67 -57 6 74 45 16 -24)
1969/12/31/18:00:07.326000,(-8 -6 6 -9 -25 -18 4 22)
1969/12/31/18:00:07.340000,(21 80 29 22 26 32 33 12)
1969/12/31/18:00:07.341000,(-17 -118 -87 -62 -99 -85 -3 21)
1969/12/31/18:00:07.349000,(15 82 79 51 59 19 -16 -26)
1969/12/31/18:00:07.349000,(-13 71 36 14 15 13 -9 -36)
1969/12/31/18:00:07.356000,(-29 -1 -1 2 9 17 5 -8)
1969/12/31/18:00:07.356000,(-10 22 67 24 5 4 47 47)
1969/12/31/18:00:07.373000,(-6 -34 -49 -18 -24 -55 -30 -16)
1969/12/31/18:00:07.373000,(18 -41 -31 -21 -27 17 3 28)
1969/12/31/18:00:07.375000,(-19 68 46 5 -41 -35 -25 -29)
1969/12/31/18:00:07.375000,(-6 -21 17 30 45 27 -11 -22)
1969/12/31/18:00:07.386000,(34 -27 -30 -12 9 18 20 40)
1969/12/31/18:00:07.386000,(-13 57 53 15 -6 -21 -22 19)
1969/12/31/18:00:07.400000,(26 -46 -46 -31 -46 -23 26 70)
1969/12/31/18:00:07.400000,(-9 -9 -10 -6 28 9 -63 -80)
1969/12/31/18:00:07.409000,(-17 -30 -15 9 38 29 20 -13)
1969/12/31/18:00:07.409000,(16 -84 -94 -37 -20 17 17 20)
1969/12/31/18:00:07.416000,(-7 35 45 5 -7 -13 12 9)
1969/12/31/18:00:07.416000,(10 76 52 34 2 -11 17 33)
1969/12/31/18:00:07.432000,(17 -57 -38 -14 -7 -9 -17 -19)
1969/12/31/18:00:07.432000,(31 38 28 5 12 32 14 25)
1969/12/31/18:00:07.434000,(-47 80 96 55 42 38 25 11)
1969/12/31/18:00:07.434000,(-12 -49 -31 -13 -13 -36 -60 -45)
1969/12/31/18:00:07.454000,(-9 -4 4 -13 -39 -13 23 -5)
1969/12/31/18:00:07.454000,(9 -47 -37 -18 -11 -15 -24 -3)
1969/12/31/18:00:07.461000,(28 -8 -53 -7 57 59 33 -3)
1969/12/31/18:00:07.461000,(-22 12 46 35 56 30 29 32)
1969/12/31/18:00:07.477000,(-34 -6 -6 -13 -51 -33 -42 -23)
1969/12/31/18:00:07.477000,(-4 -8 -4 -3 -9 -42 7 7)
1969/12/31/18:00:07.479000,(-6 -13 -14 -25 -40 -1 -17 4)
1969/12/31/18:00:07.479000,(15 -36 -58 -21 -37 -31 2 -19)
1969/12/31/18:00:07.499000,(1 -34 -12 -2 55 62 20 46)
1969/12/31/18:00:07.499000,(-57 42 72 35 -1 -17 -4 -45)
1969/12/31/18:00:07.501000,(15 5 22 4 -13 -26 -40 -18)
1969/12/31/18:00:07.501000,(20 -19 -68 -33 0 22 11 4)
1969/12/31/18:00:07.514000,(47 51 25 15 27 -3 -11 60)
1969/12/31/18:00:07.514000,(-23 -6 12 19 -7 0 20 31)
1969/12/31/18:00:07.520000,(16 20 16 -8 -22 -19 0 -15)
1969/12/31/18:00:07.521000,(-46 17 67 0 -11 -4 -20 -37)
1969/12/31/18:00:07.537000,(8 -70 -81 -27 35 50 50 35)
1969/12/31/18:00:07.537000,(32 38 -21 10 26 24 7 20)
1969/12/31/18:00:07.539000,(16 -10 -13 -15 -33 -26 -14 16)
1969/12/31/18:00:07.539000,(19 23 20 8 -21 -57 9 32)
1969/12/31/18:00:07.559000,(8 71 95 77 16 18 32 74)
1969/12/31/18:00:07.559000,(-13 -40 -41 -46 -64 -39 -20 -19)
1969/12/31/18:00:07.561000,(-30 -43 -54 -19 28 45 21 -13)
1969/12/31/18:00:07.561000,(25 12 -20 -15 -11 -18 -39 -11)
1969/12/31/18:00:07.574000,(-16 -57 -38 -14 12 12 40 14)
1969/12/31/18:00:07.574000,(16 -5 -15 -4 2 -6 -18 -22)
1969/12/31/18:00:07.576000,(-4 7 19 -9 -42 -33 -20 -51)
1969/12/31/18:00:07.576000,(-42 -25 -6 5 40 59 30 6)
1969/12/31/18:00:07.597000,(16 1 -23 -17 -27 -32 8 -7)
1969/12/31/18:00:07.597000,(-14 -28 -41 -26 -31 1 21 -9)
1969/12/31/18:00:07.599000,(13 -3 6 27 78 -6 -37 9)
1969/12/31/18:00:07.599000,(7 39 54 28 4 21 17 2)
1969/12/31/18:00:07.619000,(24 74 57 32 33 36 -8 -14)
1969/12/31/18:00:07.619000,(11 -47 -56 -26 -29 -24 44 1)
1969/12/31/18:00:07.621000,(-46 -12 28 -6 -34 -14 -22 -36)
1969/12/31/18:00:07.621000,(-30 -89 -108 -34 39 39 -12 -36)
1969/12/31/18:00:07.642000,(-48 47 58 10 -86 -74 -39 -38)
1969/12/31/18:00:07.642000,(-20 15 28 0 -1 -6 -34 -47)
1969/12/31/18:00:07.644000,(31 27 -12 0 -9 -17 27 27)
1969/12/31/18:00:07.644000,(8 -62 -27 7 68 73 4 4)
1969/12/31/18:00:07.657000,(10 8 -31 -37 -35 -29 5 -23)
1969/12/31/18:00:07.657000,(-11 46 65 20 -4 -7 -6 14)
1969/12/31/18:00:07.658000,(-22 -28 -13 2 9 11 12 -2)
1969/12/31/18:00:07.658000,(42 30 7 -7 -37 -9 0 6)
1969/12/31/18:00:07.680000,(23 3 -3 -5 31 30 14 38)
1969/12/31/18:00:07.680000,(33 29 38 40 47 8 -20 -34)
1969/12/31/18:00:07.682000,(-28 -25 -32 -25 -23 0 37 -30)
1969/12/31/18:00:07.682000,(-3 1 2 -20 -94 -73 -55 -1)
1969/12/31/18:00:07.694000,(-2 -4 2 45 89 19 -8 -14)
1969/12/31/18:00:07.694000,(26 -31 -54 -25 -9 -2 -43 -5)
1969/12/31/18:00:07.700000,(6 11 28 51 83 76 17 5)
1969/12/31/18:00:07.700000,(5 108 84 2 -102 -112 -14 -12)
1969/12/31/18:00:07.717000,(46 -18 -10 -18 -27 8 15 48)
1969/12/31/18:00:07.717000,(-37 -7 4 -14 10 9 5 2)
1969/12/31/18:00:07.718000,(-5 -19 -30 -12 1 -5 -36 -31)
1969/12/31/18:00:07.718000,(-23 -57 -35 -4 30 26 8 -11)
1969/12/31/18:00:07.739000,(4 19 13 -6 -35 -21 -27 -7)
1969/12/31/18:00:07.739000,(22 -12 -6 14 37 45 70 90)
1969/12/31/18:00:07.741000,(45 31 8 6 12 11 24 56)
1969/12/31/18:00:07.741000,(-19 -10 -4 1 -17 -25 -36 -3)
1969/12/31/18:00:07.762000,(-74 -73 -52 -52 -52 -65 -70 -76)
1969/12/31/18:00:07.762000,(4 -21 -23 -27 8 0 -3 -9)
1969/12/31/18:00:07.763000,(5 6 -5 -26 -69 -49 -3 6)
1969/12/31/18:00:07.764000,(35 20 6 15 19 40 37 27)
1969/12/31/18:00:07.777000,(-3 2 -10 18 26 29 20 12)
1969/12/31/18:00:07.777000,(-10 11 20 16 10 -7 -21 -21)
1969/12/31/18:00:07.778000,(-2 -3 15 20 10 7 6 31)
1969/12/31/18:00:07.779000,(24 45 28 10 25 19 23 16)
1969/12/31/18:00:07.799000,(-30 -36 -14 -14 -15 -2 -32 -40)
1969/12/31/18:00:07.799000,(4 10 -3 -6 -13 -17 8 -5)
1969/12/31/18:00:07.801000,(5 -22 -21 -24 -15 -5 -13 -18)
1969/12/31/18:00:07.801000,(-31 -39 -40 -6 71 75 42 38)
1969/12/31/18:00:07.814000,(46 21 1 6 -50 -48 -9 44)
1969/12/31/18:00:07.814000,(8 32 35 -1 -9 -16 -39 24)
1969/12/31/18:00:07.820000,(-32 -28 -3 4 22 -8 -9 -18)
1969/12/31/18:00:07.820000,(45 18 4 3 -8 -21 -10 -1)
1969/12/31/18:00:07.837000,(-10 -12 -24 -34 6 43 33 17)
1969/12/31/18:00:07.837000,(24 4 -14 -4 9 10 19 14)
1969/12/31/18:00:07.838000,(-25 -3 31 19 -24 -18 -12 -5)
1969/12/31/18:00:07.838000,(5 9 11 16 22 12 -2 -19)
1969/12/31/18:00:07.859000,(-28 12 10 20 25 13 -7 -47)
1969/12/31/18:00:07.859000,(-30 -19 11 8 -24 -24 2 -22)
1969/12/31/18:00:07.861000,(38 43 8 -10 -1 -7 -24 -10)
1969/12/31/18:00:07.861000,(-29 -93 -49 -26 -16 -14 -42 -31)
1969/12/31/18:00:07.874000,(44 48 6 -7 -7 -14 -2 -8)
1969/12/31/18:00:07.874000,(-26 -6 11 21 75 56 21 20)
1969/12/31/18:00:07.881000,(29 22 21 13 -45 -13 11 14)
1969/12/31/18:00:07.881000,(-7 -16 -22 -33 -46 -47 -19 -26)
1969/12/31/18:00:07.897000,(-21 -29 -12 14 6 -17 -19 -29)
1969/12/31/18:00:07.897000,(-24 -7 2 8 2 -22 -15 -25)
1969/12/31/18:00:07.898000,(3 15 -1 -6 -10 -21 -13 -7)
1969/12/31/18:00:07.898000,(4 7 -3 -8 -32 -5 13 16)
1969/12/31/18:00:07.919000,(-26 14 22 -6 -1 -4 10 0)
1969/12/31/18:00:07.919000,(40 -22 -36 -35 -22 2 -15 -8)
1969/12/31/18:00:07.921000,(-39 -33 -6 5 12 6 -1 -1)
1969/12/31/18:00:07.921000,(8 30 17 11 7 6 6 -7)
1969/12/31/18:00:07.933000,(-13 -20 2 16 45 33 24 20)
1969/12/31/18:00:07.933000,(-49 -37 -13 16 -1 2 8 -13)
1969/12/31/18:00:07.942000,(2 9 -5 -3 -18 -4 -3 6)
1969/12/31/18:00:07.942000,(0 70 63 17 10 4 -5 -5)
1969/12/31/18:00:07.957000,(3 -2 0 0 7 18 17 32)
1969/12/31/18:00:07.957000,(40 -10 -19 -16 -22 -14 -11 -3)
1969/12/31/18:00:07.959000,(-13 -30 -38 -26 -8 0 4 20)
1969/12/31/18:00:07.959000,(-10 -15 -10 4 35 15 -8 -22)
1969/12/31/18:00:07.979000,(1 4 3 15 47 42 42 8)
1969/12/31/18:00:07.979000,(-19 4 -1 -13 -96 -97 -60 -26)
1969/12/31/18:00:07.981000,(-25 -7 3 -17 -13 -9 2 -13)
1969/12/31/18:00:07.981000,(11 1 -4 0 -6 -10 7 19)
1969/12/31/18:00:07.993000,(15 -6 -8 -23 1 23 -7 2)
1969/12/31/18:00:07.993000,(-49 -20 -1 19 65 54 26 -9)
1969/12/31/18:00:08.002000,(30 26 13 35 17 5 8 14)
1969/12/31/18:00:08.002000,(43 28 15 6 -5 -4 -4 2)
1969/12/31/18:00:08.017000,(-78 -29 -5 -10 -20 -15 -20 -30)
1969/12/31/18:00:08.017000,(-8 -2 11 11 5 10 18 9)
1969/12/31/18:00:08.018000,(19 9 -12 -6 -5 -2 -6 8)
1969/12/31/18:00:08.018000,(16 15 4 -4 16 9 13 17)
1969/12/31/18:00:08.039000,(-2 -3 4 -5 -25 -22 14 -28)
1969/12/31/18:00:08.039000,(0 11 0 -6 -16 -10 -23 -19)
1969/12/31/18:00:08.041000,(-1 9 -3 -5 32 26 16 -32)
1969/12/31/18:00:08.041000,(-35 -39 -12 7 -5 -6 -23 1)
1969/12/31/18:00:08.053000,(42 24 -5 -7 -17 -1 2 8)
1969/12/31/18:00:08.053000,(-14 -7 6 11 4 -14 29 17)
1969/12/31/18:00:08.062000,(24 -19 0 -21 -79 -71 -77 -28)
1969/12/31/18:00:08.062000,(-27 11 3 -1 10 15 29 -2)
1969/12/31/18:00:08.077000,(21 14 -9 -7 -13 -13 -20 -6)
1969/12/31/18:00:08.077000,(-50 -63 -14 -3 27 37 -2 -12)
1969/12/31/18:00:08.079000,(15 47 15 -15 0 13 18 23)
1969/12/31/18:00:08.079000,(-22 -41 -5 30 11 -7 9 8)
1969/12/31/18:00:08.099000,(18 5 5 7 5 4 -23 -9)
1969/12/31/18:00:08.099000,(52 44 13 7 26 22 36 44)
1969/12/31/18:00:08.101000,(37 15 -1 16 4 10 15 15)
1969/12/31/18:00:08.101000,(-91 -53 -29 -37 -31 -28 -51 -70)
1969/12/31/18:00:08.113000,(-2 -14 -9 -1 1 -6 7 -2)
1969/12/31/18:00:08.113000,(26 23 11 -3 -8 -11 -6 3)
1969/12/31/18:00:08.122000,(44 17 9 -9 -16 25 8 48)
1969/12/31/18:00:08.122000,(-22 11 6 21 24 -4 32 -14)
1969/12/31/18:00:08.137000,(21 -12 -5 -22 -29 -11 -19 -1)
1969/12/31/18:00:08.137000,(-38 -11 -9 -22 -14 11 35 10)
1969/12/31/18:00:08.139000,(10 6 2 38 49 -18 -39 -23)
1969/12/31/18:00:08.139000,(-28 -5 -1 11 10 -3 -2 -13)
1969/12/31/18:00:08.159000,(-47 -13 1 -11 0 -5 -2 2)
1969/12/31/18:00:08.159000,(15 8 12 8 -18 3 6 7)
1969/12/31/18:00:08.161000,(-98 -34 -22 -18 -10 -29 32 -48)
1969/12/31/18:00:08.161000,(16 3 1 26 30 58 -46 -3)
1969/12/31/18:00:08.173000,(-42 -10 3 1 -9 -29 -9 -31)
1969/12/31/18:00:08.173000,(50 55 4 -4 2 14 -8 17)
1969/12/31/18:00:08.182000,(-102 -63 -4 -3 14 15 -4 -42)
1969/12/31/18:00:08.182000,(74 5 -14 -24 -35 -25 0 -3)
1969/12/31/18:00:08.197000,(67 42 22 20 24 38 54 72)
1969/12/31/18:00:08.197000,(-63 -36 -22 -11 -9 -15 -54 -89)
1969/12/31/18:00:08.198000,(38 11 2 -1 5 15 34 60)
1969/12/31/18:00:08.198000,(-54 -27 -4 -17 -14 -15 10 -18)
1969/12/31/18:00:08.219000,(84 45 -1 8 10 10 5 32)
1969/12/31/18:00:08.219000,(-20 -17 7 13 11 -3 15 17)
1969/12/31/18:00:08.221000,(10 11 0 -2 -6 -10 -16 -29)
1969/12/31/18:00:08.221000,(-35 -23 -14 -16 -8 3 6 -3)
1969/12/31/18:00:08.233000,(20 -3 3 8 4 -2 -3 22)
1969/12/31/18:00:08.233000,(-49 -23 -18 -14 -21 -25 -32 -81)
1969/12/31/18:00:08.242000,(16 2 2 -7 1 3 -12 10)
1969/12/31/18:00:08.242000,(90 51 23 12 11 22 35 78)
1969/12/31/18:00:08.257000,(-78 -39 -18 -8 -10 -21 -40 -115)
1969/12/31/18:00:08.257000,(12 10 5 0 4 1 -6 -14)
1969/12/31/18:00:08.258000,(10 -1 3 1 2 4 4 4)
1969/12/31/18:00:08.258000,(5 10 3 -2 -5 -7 3 -3)
1969/12/31/18:00:08.279000,(14 2 4 1 0 -1 2 22)
1969/12/31/18:00:08.279000,(-2 -8 -6 -2 -2 0 -1 22)
1969/12/31/18:00:08.281000,(10 8 -5 -8 -1 0 1 3)
1969/12/31/18:00:08.281000,(19 18 7 -5 -7 -7 2 16)
1969/12/31/18:00:08.293000,(-38 -27 2 9 6 3 -7 -3)
1969/12/31/18:00:08.293000,(23 5 1 2 3 5 19 34)
1969/12/31/18:00:08.302000,(5 10 5 6 7 2 -14 0)
1969/12/31/18:00:08.302000,(-4 8 -5 -7 -5 -6 -5 -1)
1969/12/31/18:00:08.317000,(28 0 -10 -7 -3 -1 2 21)
1969/12/31/18:00:08.317000,(-15 -10 5 3 2 5 12 18)
1969/12/31/18:00:08.319000,(-9 1 3 7 -1 -2 2 -6)
1969/12/31/18:00:08.319000,(10 -4 -4 -5 -4 -2 0 11)
1969/12/31/18:00:08.339000,(-10 -5 -5 0 0 -1 -5 0)
1969/12/31/18:00:08.339000,(24 11 1 -1 1 1 16 27)
1969/12/31/18:00:08.341000,(-12 -10 -3 -4 -4 -3 -5 1)
1969/12/31/18:00:08.341000,(-6 2 2 2 0 1 -2 -15)
1969/12/31/18:00:08.353000,(-5 -9 -8 -7 -3 -3 4 8)
1969/12/31/18:00:08.353000,(16 16 6 3 4 7 15 6)
1969/12/31/18:00:08.362000,(-5 -12 -6 -6 -5 -5 -13 6)
1969/12/31/18:00:08.362000,(5 12 1 2 0 -4 0 -12)
1969/12/31/18:00:08.376000,(-10 -5 -1 -3 -5 -6 -14 -12)
1969/12/31/18:00:08.376000,(9 -7 0 3 1 6 1 -2)
1969/12/31/18:00:08.383000,(-3 5 0 1 3 1 1 -4)
1969/12/31/18:00:08.383000,(-2 -9 -12 -11 -9 -10 -17 -2)
1969/12/31/18:00:08.399000,(-21 -16 0 -1 2 2 -1 -25)
1969/12/31/18:00:08.399000,(-7 14 3 -2 1 0 -1 -1)
1969/12/31/18:00:08.401000,(17 11 3 7 7 1 -3 0)
1969/12/31/18:00:08.401000,(4 -7 1 2 -2 0 2 -9)
1969/12/31/18:00:08.422000,(-13 2 -2 4 3 0 2 6)
1969/12/31/18:00:08.422000,(12 11 16 7 1 0 -4 -1)
1969/12/31/18:00:08.423000,(-4 -7 -10 -8 -5 -3 7 5)
1969/12/31/18:00:08.423000,(-1 -1 0 -7 -2 2 -2 6)
1969/12/31/18:00:08.436000,(1 -5 -10 -8 -6 -3 8 2)
1969/12/31/18:00:08.436000,(9 0 -12 -4 0 0 -12 6)
1969/12/31/18:00:08.443000,(-16 1 14 6 2 -1 0 -5)
1969/12/31/18:00:08.443000,(6 3 -2 0 0 5 14 12)
1969/12/31/18:00:08.459000,(4 -16 -12 -2 -3 -5 -9 1)
1969/12/31/18:00:08.459000,(-8 26 36 14 3 -2 1 -14)
1969/12/31/18:00:08.461000,(2 -20 -24 -9 -3 1 15 10)
1969/12/31/18:00:08.461000,(1 24 33 10 4 3 -4 1)
1969/12/31/18:00:08.482000,(-3 -7 -13 -9 -5 -6 3 6)
1969/12/31/18:00:08.482000,(6 -19 -25 -9 -3 0 4 8)
1969/12/31/18:00:08.484000,(-6 0 6 3 -1 -6 -15 -15)
1969/12/31/18:00:08.484000,(3 0 -15 -4 0 -1 15 10)
1969/12/31/18:00:08.496000,(-12 2 24 10 4 7 -11 -7)
1969/12/31/18:00:08.496000,(1 0 -10 -5 -2 -2 -4 -2)
1969/12/31/18:00:08.510000,(6 -9 -3 -2 1 10 23 17)
1969/12/31/18:00:08.510000,(-2 -29 -34 -13 -6 -3 -6 -2)
1969/12/31/18:00:08.519000,(-7 41 41 8 -1 -9 -4 -10)
1969/12/31/18:00:08.519000,(13 -8 -11 1 0 -4 -7 -1)
1969/12/31/18:00:08.521000,(-8 14 0 -4 0 3 -14 -11)
1969/12/31/18:00:08.521000,(-5 -41 -29 -5 -1 -2 6 4)
1969/12/31/18:00:08.543000,(-4 33 46 14 5 -2 -22 -9)
1969/12/31/18:00:08.543000,(6 1 -1 3 -3 -4 10 5)
1969/12/31/18:00:08.545000,(12 -5 -20 -10 -7 -7 -4 -1)
1969/12/31/18:00:08.545000,(-6 4 9 4 1 4 -5 -1)
1969/12/31/18:00:08.556000,(-4 -21 -20 -11 -4 -2 10 7)
1969/12/31/18:00:08.556000,(7 3 -4 -5 1 6 -2 4)
1969/12/31/18:00:08.563000,(0 24 27 16 3 -4 -3 -3)
1969/12/31/18:00:08.563000,(0 11 -4 -2 1 -1 1 -3)
1969/12/31/18:00:08.579000,(-2 -16 -12 -3 -2 0 -4 -1)
1969/12/31/18:00:08.579000,(-19 -18 -6 -6 -2 -4 -4 -9)
1969/12/31/18:00:08.581000,(11 -14 -38 -20 -4 2 -2 4)
1969/12/31/18:00:08.581000,(-11 7 37 20 7 5 3 -2)
1969/12/31/18:00:08.602000,(-4 -49 -33 -11 -7 2 6 4)
1969/12/31/18:00:08.602000,(-2 3 -35 -19 -7 -6 4 1)
1969/12/31/18:00:08.603000,(-17 36 21 15 5 0 -11 -12)
1969/12/31/18:00:08.604000,(6 -17 -11 -3 -2 3 4 1)
1969/12/31/18:00:08.615000,(25 36 12 -3 -1 -2 -9 5)
1969/12/31/18:00:08.615000,(-22 -10 31 33 12 14 23 4)
1969/12/31/18:00:08.623000,(-13 -22 6 -5 -2 0 -1 -3)
1969/12/31/18:00:08.623000,(-2 15 3 -3 -2 -5 -9 -4)
1969/12/31/18:00:08.639000,(-5 -41 -41 -15 -7 -5 -6 -5)
1969/12/31/18:00:08.639000,(3 -22 -41 -38 -15 -5 -9 -6)
1969/12/31/18:00:08.640000,(-2 58 62 23 6 1 3 -4)
1969/12/31/18:00:08.640000,(10 -1 -1 11 4 2 -10 2)
1969/12/31/18:00:08.661000,(6 12 1 -2 -1 6 6 2)
1969/12/31/18:00:08.661000,(-16 -39 -34 -17 -9 -5 -21 -12)
1969/12/31/18:00:08.669000,(36 35 25 21 7 8 2 7)
1969/12/31/18:00:08.669000,(7 -16 7 2 -1 1 -1 0)
1969/12/31/18:00:08.675000,(13 21 -42 -26 -13 -1 -9 -2)
1969/12/31/18:00:08.675000,(4 40 61 44 16 9 -7 -6)
1969/12/31/18:00:08.683000,(-12 -61 -26 -15 -6 -1 6 1)
1969/12/31/18:00:08.683000,(-1 -8 -48 -24 -8 -14 2 0)
1969/12/31/18:00:08.698000,(-5 9 5 19 9 -2 19 9)
1969/12/31/18:00:08.698000,(-8 -1 -11 -14 -6 -20 9 14)
1969/12/31/18:00:08.699000,(-4 -23 -47 -21 -3 -21 7 6)
1969/12/31/18:00:08.699000,(0 2 -3 -1 0 -15 5 7)
1969/12/31/18:00:08.721000,(-13 -9 -3 -3 2 -4 2 -2)
1969/12/31/18:00:08.721000,(1 -22 -7 -8 -5 -3 -1 1)
1969/12/31/18:00:08.722000,(-2 36 13 -5 -4 1 -5 -6)
1969/12/31/18:00:08.722000,(-2 -13 9 -4 -3 1 -15 -10)
1969/12/31/18:00:08.735000,(-11 -17 4 5 -1 5 -9 -8)
1969/12/31/18:00:08.735000,(0 -14 -18 -6 -3 4 -5 1)
1969/12/31/18:00:08.743000,(0 -31 -10 1 -2 2 -1 -1)
1969/12/31/18:00:08.743000,(-9 7 8 -2 -4 2 -3 -4)
1969/12/31/18:00:08.760000,(11 31 24 14 4 2 0 -1)
1969/12/31/18:00:08.760000,(-1 -22 -4 0 -1 -2 1 0)
1969/12/31/18:00:08.761000,(-9 -14 -8 -10 -2 -2 0 0)
1969/12/31/18:00:08.761000,(3 23 10 0 -2 -3 -1 1)
1969/12/31/18:00:08.781000,(-8 -22 -4 -2 4 0 4 1)
1969/12/31/18:00:08.781000,(9 25 8 0 -1 -3 -2 2)
1969/12/31/18:00:08.782000,(-1 -4 -3 0 0 -1 0 0)
1969/12/31/18:00:08.782000,(-5 8 14 8 1 -1 -2 -3)
1969/12/31/18:00:08.795000,(-3 -11 -14 -14 -5 -1 -5 -3)
1969/12/31/18:00:08.795000,(7 30 20 7 -2 2 -4 -3)
1969/12/31/18:00:08.803000,(8 13 5 12 3 3 1 0)
1969/12/31/18:00:08.803000,(-5 -19 -12 -5 -3 3 2 0)
1969/12/31/18:00:08.819000,(-1 -2 12 -1 -2 0 1 -3)
1969/12/31/18:00:08.819000,(8 19 4 2 2 2 -6 -3)
1969/12/31/18:00:08.820000,(-8 -5 15 4 -3 1 -5 -7)
1969/12/31/18:00:08.820000,(-2 -3 -4 -1 -2 2 -4 -3)
1969/12/31/18:00:08.841000,(-1 4 1 -4 -5 -1 -6 -5)
1969/12/31/18:00:08.841000,(5 10 20 12 4 4 -2 -2)
1969/12/31/18:00:08.842000,(0 -14 -13 -10 -6 0 -3 -1)
1969/12/31/18:00:08.842000,(-2 2 -3 -5 -2 1 -4 -5)
1969/12/31/18:00:08.855000,(-3 -19 8 9 3 3 -4 -3)
1969/12/31/18:00:08.855000,(3 7 4 -1 -3 0 -2 1)
1969/12/31/18:00:08.863000,(-7 -13 -16 -10 -2 -2 0 -3)
1969/12/31/18:00:08.863000,(5 25 9 9 4 0 6 6)
1969/12/31/18:00:08.886000,(-2 -1 -12 -1 -1 -5 6 3)
1969/12/31/18:00:08.886000,(-3 -11 -11 -5 1 -7 3 1)
1969/12/31/18:00:08.894000,(-4 0 -6 -5 0 -8 5 2)
1969/12/31/18:00:08.894000,(-1 5 4 -4 0 -8 4 3)
1969/12/31/18:00:08.901000,(-3 -13 -5 -3 1 -6 -2 0)
1969/12/31/18:00:08.901000,(2 15 15 4 1 0 -3 -1)
1969/12/31/18:00:08.902000,(1 3 7 3 -2 5 0 -1)
1969/12/31/18:00:08.902000,(-5 -10 -3 -5 -3 3 -10 -9)
1969/12/31/18:00:08.915000,(4 18 11 5 0 5 -2 -1)
1969/12/31/18:00:08.915000,(-9 -26 -17 -6 -2 0 -1 -3)
1969/12/31/18:00:08.924000,(4 17 8 4 -1 -2 -2 -4)
1969/12/31/18:00:08.924000,(-3 -4 -7 -1 -2 -3 -2 -4)
1969/12/31/18:00:08.939000,(-2 -23 -6 -5 -5 -2 -2 -3)
1969/12/31/18:00:08.939000,(6 59 30 13 3 -1 -2 -2)
1969/12/31/18:00:08.939000,(0 -2 -5 0 1 3 0 4)
1969/12/31/18:00:08.940000,(-3 -7 -8 -8 -3 -1 1 1)
1969/12/31/18:00:08.961000,(-2 3 3 1 -1 -1 -1 -2)
1969/12/31/18:00:08.961000,(-4 -24 -9 -6 -1 -2 0 0)
1969/12/31/18:00:08.962000,(-4 -6 0 1 0 -1 0 0)
1969/12/31/18:00:08.962000,(3 17 10 6 0 -1 0 0)
1969/12/31/18:00:08.985000,(0 -5 -7 -3 0 0 0 1)
1969/12/31/18:00:08.985000,(-1 -4 5 2 1 -2 1 0)
1969/12/31/18:00:08.986000,(0 1 1 1 1 -2 -1 1)
1969/12/31/18:00:08.986000,(-3 -13 -4 -6 -5 -2 -3 -1)
1969/12/31/18:00:08.999000,(2 10 2 -1 -2 -3 -2 0)
1969/12/31/18:00:08.999000,(0 -4 -1 1 0 -2 -1 -2)
1969/12/31/18:00:09.000000,(-6 -9 -7 -5 -1 0 0 -2)
1969/12/31/18:00:09.000000,(-3 -5 -3 -4 1 1 2 0)
1969/12/31/18:00:09.021000,(1 9 9 5 2 0 0 0)
1969/12/31/18:00:09.021000,(1 2 -3 0 -2 -1 -1 0)
1969/12/31/18:00:09.022000,(-4 -11 -3 -2 -1 -1 -2 -2)
1969/12/31/18:00:09.022000,(-2 -5 -13 -12 -8 -3 -2 0)
1969/12/31/18:00:09.036000,(2 15 14 6 1 0 0 -2)
1969/12/31/18:00:09.036000,(-4 -4 3 -2 -1 -1 0 0)
1969/12/31/18:00:09.044000,(1 1 -2 1 0 -1 0 0)
1969/12/31/18:00:09.044000,(-3 -7 -2 2 3 0 -2 0)
1969/12/31/18:00:09.058000,(0 0 -6 -5 -3 -1 -1 -1)
1969/12/31/18:00:09.059000,(-2 -7 -6 -3 -1 0 0 0)
1969/12/31/18:00:09.059000,(-1 -3 5 5 0 -1 -1 0)
1969/12/31/18:00:09.059000,(-1 5 8 3 1 -2 -2 -4)
1969/12/31/18:00:09.082000,(-2 -5 -6 -4 -2 -2 -2 -2)
1969/12/31/18:00:09.082000,(-2 -3 -1 -2 0 -1 -3 -3)
1969/12/31/18:00:09.083000,(-3 -6 -6 -4 -3 -2 -1 0)
1969/12/31/18:00:09.083000,(0 -3 -1 0 0 3 4 4)
1969/12/31/18:00:09.105000,(2 1 2 3 2 -1 -2 -2)
1969/12/31/18:00:09.105000,(-2 -7 -8 -4 -3 -1 -1 -4)
1969/12/31/18:00:09.106000,(0 1 -1 -2 -2 -1 -1 -2)
1969/12/31/18:00:09.106000,(-3 -5 -7 -7 -3 -4 -1 -4)
1969/12/31/18:00:09.113000,(-1 0 2 5 3 2 2 0)
1969/12/31/18:00:09.113000,(-3 -4 -7 -3 0 3 -1 0)
1969/12/31/18:00:09.118000,(0 -1 -2 0 -1 0 -1 0)
1969/12/31/18:00:09.118000,(1 3 2 3 -1 -3 -1 -2)
1969/12/31/18:00:09.133000,(-3 1 -2 -2 -2 -1 -1 -1)
1969/12/31/18:00:09.133000,(1 -3 -2 -1 0 -4 -1 -2)
1969/12/31/18:00:09.141000,(0 -3 -2 0 1 0 -1 1)
1969/12/31/18:00:09.141000,(-3 -5 -1 0 -1 -1 0 -2)
1969/12/31/18:00:09.158000,(0 -1 -9 -8 -3 -4 -1 1)
1969/12/31/18:00:09.158000,(-1 1 10 9 3 0 3 -2)
1969/12/31/18:00:09.159000,(-1 -7 -1 -3 -2 1 1 -2)
1969/12/31/18:00:09.159000,(0 9 6 5 1 0 -2 1)
1969/12/31/18:00:09.170000,(-4 -5 -4 -2 -3 0 0 -1)
1969/12/31/18:00:09.170000,(-1 0 -5 -3 -2 -3 -1 -1)
1969/12/31/18:00:09.178000,(-1 -1 -2 -2 -3 -4 -2 -2)
1969/12/31/18:00:09.178000,(2 -2 3 5 4 3 1 0)
1969/12/31/18:00:09.193000,(-2 -1 -6 -3 -2 -5 0 1)
1969/12/31/18:00:09.193000,(-1 -3 -2 -5 -1 -2 -3 0)
1969/12/31/18:00:09.209000,(-2 0 0 2 0 -2 -1 -1)
1969/12/31/18:00:09.209000,(-2 -4 -4 -3 0 0 1 -1)
1969/12/31/18:00:09.211000,(0 0 1 4 2 1 -1 0)
1969/12/31/18:00:09.211000,(-1 -2 -3 -2 -1 0 -3 -3)
1969/12/31/18:00:09.216000,(-1 -1 -4 -6 -2 -2 -2 -2)
1969/12/31/18:00:09.216000,(1 3 5 2 1 -1 -2 -1)
1969/12/31/18:00:09.230000,(-1 -1 0 -2 -2 0 -2 -3)
1969/12/31/18:00:09.231000,(-2 -4 -1 -1 -4 -3 -4 -2)
1969/12/31/18:00:09.238000,(0 2 0 1 0 2 -2 0)
1969/12/31/18:00:09.238000,(-1 -2 1 0 -3 0 0 0)
1969/12/31/18:00:09.253000,(-3 -3 -5 -1 1 -5 -3 -4)
1969/12/31/18:00:09.253000,(0 -1 -4 -3 -2 -2 -1 1)
1969/12/31/18:00:09.260000,(-2 1 -5 -5 -5 -2 0 0)
1969/12/31/18:00:09.260000,(1 -1 6 7 1 2 1 2)
1969/12/31/18:00:09.284000,(-2 5 0 -2 -2 2 -1 -3)
1969/12/31/18:00:09.284000,(-3 -5 -3 -2 -3 0 -1 -2)
1969/12/31/18:00:09.285000,(-2 -1 -1 -1 -1 -2 -1 -1)
1969/12/31/18:00:09.285000,(-1 0 1 -1 -4 -4 -2 0)
1969/12/31/18:00:09.290000,(0 -1 1 -2 -1 0 1 1)
1969/12/31/18:00:09.290000,(1 1 1 -1 0 -2 0 -1)
1969/12/31/18:00:09.298000,(2 3 0 -2 -1 0 -1 -3)
1969/12/31/18:00:09.298000,(-2 -5 -5 -2 -2 -2 -1 -1)
1969/12/31/18:00:09.298000,(-1 -1 -3 -2 0 -1 -1 -2)
1969/12/31/18:00:09.298000,(-2 -2 -4 -3 -3 -2 0 -1)
1969/12/31/18:00:09.299000,(-2 -3 -4 -7 -2 -2 -1 -3)
1969/12/31/18:00:09.299000,(-1 1 1 3 -1 -1 1 0)
1969/12/31/18:00:09.329000,(0 0 -1 -1 -1 -1 0 -2)
1969/12/31/18:00:09.329000,(0 1 1 -1 -2 -2 -1 0)
1969/12/31/18:00:09.329000,(-1 -1 0 2 0 0 1 -1)
1969/12/31/18:00:09.329000,(1 -2 -2 -3 -1 0 -2 -1)
1969/12/31/18:00:09.344000,(-3 -2 -4 -5 -2 -1 -3 -2)
1969/12/31/18:00:09.344000,(-3 -1 -2 -2 0 0 -2 -2)
1969/12/31/18:00:09.345000,(0 -2 -2 -4 -2 -1 -1 -1)
1969/12/31/18:00:09.345000,(-2 -3 -1 1 -1 -3 -1 -2)
1969/12/31/18:00:09.358000,(2 4 1 1 0 0 1 3)
1969/12/31/18:00:09.359000,(-1 -2 1 -1 -2 0 -4 -2)
1969/12/31/18:00:09.359000,(-3 0 -2 2 -1 -1 0 -1)
1969/12/31/18:00:09.359000,(-1 -4 -3 -6 -3 -2 -1 -3)
1969/12/31/18:00:09.381000,(0 0 1 4 -1 0 0 -2)
1969/12/31/18:00:09.381000,(-2 -3 -3 -2 -1 -2 0 1)
1969/12/31/18:00:09.382000,(-1 1 -1 0 -1 0 -2 -2)
1969/12/31/18:00:09.382000,(-2 -5 -14 -12 -4 -1 -2 -2)
1969/12/31/18:00:09.404000,(1 2 11 4 -2 0 -2 -1)
1969/12/31/18:00:09.404000,(2 0 6 11 6 3 -1 -2)
1969/12/31/18:00:09.405000,(-3 -4 -5 -8 -2 -1 -1 0)
1969/12/31/18:00:09.405000,(-1 1 -5 3 0 -1 -1 1)
1969/12/31/18:00:09.418000,(-1 0 10 -1 -3 -1 -2 0)
1969/12/31/18:00:09.418000,(1 2 0 1 -3 -7 -2 -1)
1969/12/31/18:00:09.419000,(-1 -5 -8 -5 -1 9 -1 -4)
1969/12/31/18:00:09.419000,(-1 -2 -3 -3 2 -1 -1 -2)
1969/12/31/18:00:09.441000,(-2 -2 -11 -5 0 5 1 2)
1969/12/31/18:00:09.441000,(-2 -6 -5 -6 -4 -7 5 -2)
1969/12/31/18:00:09.442000,(4 7 10 5 1 -4 -7 1)
1969/12/31/18:00:09.442000,(-2 -2 -1 -3 -1 -7 -2 -1)
1969/12/31/18:00:09.464000,(-5 -7 -9 -1 0 -6 -11 -11)
1969/12/31/18:00:09.464000,(2 7 8 -1 1 -1 3 1)
1969/12/31/18:00:09.465000,(0 -3 -7 -3 -1 0 3 3)
1969/12/31/18:00:09.465000,(-8 -2 5 4 -2 2 -1 -6)
1969/12/31/18:00:09.494000,(4 2 4 5 2 0 8 19)
1969/12/31/18:00:09.494000,(1 -4 -16 -9 -5 -2 -9 -14)
1969/12/31/18:00:09.495000,(-2 0 7 0 -4 -6 -6 -8)
1969/12/31/18:00:09.495000,(0 1 3 1 1 1 4 16)
1969/12/31/18:00:09.501000,(-6 -3 -6 -7 -3 -5 -6 -31)
1969/12/31/18:00:09.501000,(4 -1 1 1 3 5 6 17)
1969/12/31/18:00:09.502000,(-8 -3 -5 -4 -3 -2 -7 -16)
1969/12/31/18:00:09.502000,(3 -23 -28 -17 -5 0 1 5)
1969/12/31/18:00:09.524000,(6 25 24 11 2 -1 1 10)
1969/12/31/18:00:09.524000,(0 8 20 16 5 8 2 3)
1969/12/31/18:00:09.525000,(2 -3 -4 2 -1 -7 -10 -19)
1969/12/31/18:00:09.525000,(-5 -20 -16 -5 -1 3 -1 -6)
1969/12/31/18:00:09.537000,(-6 -13 -23 -16 -8 -3 -2 4)
1969/12/31/18:00:09.537000,(-6 -8 -7 -3 -3 0 -5 -5)
1969/12/31/18:00:09.545000,(7 22 24 10 7 4 7 9)
1969/12/31/18:00:09.545000,(4 2 6 5 2 -1 -3 0)
1969/12/31/18:00:09.561000,(-3 -15 -20 -7 -3 -1 -3 -1)
1969/12/31/18:00:09.561000,(-4 4 7 0 -3 -5 -5 -6)
1969/12/31/18:00:09.562000,(-4 -7 5 3 -2 -1 5 6)
1969/12/31/18:00:09.562000,(0 4 3 3 2 0 -1 -3)
1969/12/31/18:00:09.591000,(-5 -9 -8 -2 0 4 3 -4)
1969/12/31/18:00:09.591000,(3 -2 -6 -5 -3 -1 3 7)
1969/12/31/18:00:09.592000,(0 -3 -17 -10 -3 -6 -1 -1)
1969/12/31/18:00:09.592000,(5 7 9 4 1 -2 1 1)
1969/12/31/18:00:09.597000,(-5 -7 -1 2 1 -5 1 -1)
1969/12/31/18:00:09.597000,(1 0 -17 -9 0 -2 3 5)
1969/12/31/18:00:09.606000,(-2 0 -3 -1 0 -4 4 7)
1969/12/31/18:00:09.606000,(-1 7 16 4 1 -3 1 -1)
1969/12/31/18:00:09.620000,(2 8 -6 -2 1 -4 2 4)
1969/12/31/18:00:09.620000,(-2 -5 -10 -3 -5 -5 0 -3)
1969/12/31/18:00:09.621000,(-2 5 6 4 2 -1 4 6)
1969/12/31/18:00:09.621000,(-1 4 3 -1 0 -2 -4 -6)
1969/12/31/18:00:09.644000,(-3 -17 -7 -4 -1 1 -2 1)
1969/12/31/18:00:09.644000,(-1 -1 -2 -2 -2 0 -5 -5)
1969/12/31/18:00:09.645000,(2 2 -8 -2 -3 2 -2 5)
1969/12/31/18:00:09.645000,(-6 2 5 2 -2 3 -5 -7)
1969/12/31/18:00:09.658000,(-5 -11 -1 -1 -2 2 -2 -1)
1969/12/31/18:00:09.658000,(2 20 17 6 1 1 -13 -14)
1969/12/31/18:00:09.666000,(-1 -13 6 2 -2 3 2 12)
1969/12/31/18:00:09.666000,(0 13 8 0 -4 0 3 6)
1969/12/31/18:00:09.681000,(6 2 -7 -3 2 -1 -3 -8)
1969/12/31/18:00:09.681000,(-9 -8 16 3 0 1 3 5)
1969/12/31/18:00:09.682000,(1 -3 -10 -4 -1 -1 -5 -13)
1969/12/31/18:00:09.682000,(8 4 -1 -1 -3 -3 4 12)
1969/12/31/18:00:09.704000,(-26 -6 3 0 -3 -3 -6 -18)
1969/12/31/18:00:09.704000,(-5 -9 -7 -5 -2 0 0 -3)
1969/12/31/18:00:09.705000,(-21 -7 -2 -2 -2 -2 -4 -12)
1969/12/31/18:00:09.705000,(4 2 -1 0 -1 1 0 0)
1969/12/31/18:00:09.718000,(27 14 8 4 1 3 6 18)
1969/12/31/18:00:09.718000,(31 9 -3 -1 1 -1 3 15)
1969/12/31/18:00:09.726000,(-70 -34 -12 -7 -4 -8 -14 -39)
1969/12/31/18:00:09.726000,(4 1 -2 -2 2 0 1 -2)
1969/12/31/18:00:09.741000,(11 10 4 0 -3 -8 -4 -3)
1969/12/31/18:00:09.741000,(4 6 -1 0 0 2 8 12)
1969/12/31/18:00:09.741000,(23 1 -8 -3 0 -15 0 6)
1969/12/31/18:00:09.741000,(-19 -3 -4 -4 -1 3 1 3)
1969/12/31/18:00:09.763000,(11 9 5 2 2 -2 2 7)
1969/12/31/18:00:09.763000,(-70 -19 -4 -2 -2 -1 -2 -40)
1969/12/31/18:00:09.779000,(43 5 -5 -5 -3 -10 -6 16)
1969/12/31/18:00:09.779000,(17 3 -4 -2 -1 -7 2 5)
1969/12/31/18:00:09.780000,(5 8 0 0 5 29 2 -13)
1969/12/31/18:00:09.780000,(3 -4 -6 -7 -10 -19 -13 1)
1969/12/31/18:00:09.786000,(5 8 12 5 3 -2 -6 -4)
1969/12/31/18:00:09.786000,(-6 -10 0 -3 -1 34 -8 15)
1969/12/31/18:00:09.801000,(30 9 9 2 -11 -38 8 -2)
1969/12/31/18:00:09.801000,(9 -3 -3 0 1 18 12 13)
1969/12/31/18:00:09.801000,(-27 -16 4 5 4 27 12 -6)
1969/12/31/18:00:09.802000,(-1 5 0 1 -2 2 9 1)
1969/12/31/18:00:09.824000,(-43 -17 -4 -3 -2 0 -14 -18)
1969/12/31/18:00:09.824000,(4 12 6 3 5 12 19 2)
1969/12/31/18:00:09.825000,(15 11 3 1 0 -35 -28 -16)
1969/12/31/18:00:09.825000,(-1 -12 -10 -4 -6 24 -10 -51)
1969/12/31/18:00:09.846000,(32 14 -4 -7 -3 -21 17 67)
1969/12/31/18:00:09.846000,(-47 -14 -3 -4 -4 -15 -19 -51)
1969/12/31/18:00:09.847000,(19 -3 -3 2 9 56 32 15)
1969/12/31/18:00:09.847000,(-1 2 6 1 -4 -92 -35 -11)
1969/12/31/18:00:09.861000,(-8 -8 -4 -3 1 59 2 10)
1969/12/31/18:00:09.861000,(60 39 8 10 6 5 12 35)
1969/12/31/18:00:09.861000,(-63 -28 -22 -14 -1 32 -43 -56)
1969/12/31/18:00:09.861000,(-8 0 3 0 -14 -59 28 14)
1969/12/31/18:00:09.884000,(21 9 2 0 2 -38 -41 1)
1969/12/31/18:00:09.884000,(48 11 2 0 5 59 47 49)
1969/12/31/18:00:09.885000,(-7 -15 -12 -9 -14 -37 -26 -15)
1969/12/31/18:00:09.885000,(-12 -2 -2 2 9 34 -5 -6)
1969/12/31/18:00:09.906000,(11 5 -2 -1 0 19 33 21)
1969/12/31/18:00:09.906000,(-32 -9 0 -3 -6 -15 -34 -64)
1969/12/31/18:00:09.907000,(23 0 3 4 7 83 68 58)
1969/12/31/18:00:09.907000,(-20 -12 -8 -7 -11 -66 -52 -43)
1969/12/31/18:00:09.921000,(-19 2 9 3 -1 -1 7 -24)
1969/12/31/18:00:09.921000,(-59 -40 -19 -12 -10 -28 -12 -1)
1969/12/31/18:00:09.922000,(8 2 -5 -5 -3 -2 1 -9)
1969/12/31/18:00:09.922000,(22 14 9 8 15 32 49 55)
1969/12/31/18:00:09.944000,(15 -2 -3 -3 -3 29 -9 17)
1969/12/31/18:00:09.944000,(-14 6 3 1 -10 -52 -31 -25)
1969/12/31/18:00:09.945000,(-34 -26 -11 -10 -17 -55 3 -17)
1969/12/31/18:00:09.945000,(40 20 9 9 12 57 -28 -26)
1969/12/31/18:00:09.967000,(-16 -7 -8 -6 -10 -27 -10 -37)
1969/12/31/18:00:09.967000,(-22 -23 -11 -5 1 1 -20 -1)
1969/12/31/18:00:09.967000,(47 25 10 6 1 -21 11 37)
1969/12/31/18:00:09.967000,(-12 -1 -4 -3 5 25 7 -2)
1969/12/31/18:00:09.981000,(-1 0 8 4 1 -25 3 -3)
1969/12/31/18:00:09.981000,(10 -8 -6 -1 13 78 0 -7)
1969/12/31/18:00:09.982000,(-6 10 6 3 -7 -33 10 24)
1969/12/31/18:00:09.982000,(-34 -17 -11 -5 2 42 -13 -29)
1969/12/31/18:00:10.004000,(-2 -1 1 -3 -5 17 -8 -39)
1969/12/31/18:00:10.004000,(45 26 4 2 -3 -33 13 57)
1969/12/31/18:00:10.005000,(2 14 6 5 10 8 -7 17)
1969/12/31/18:00:10.005000,(-8 -13 -10 -10 -13 36 15 3)
1969/12/31/18:00:10.026000,(-6 -7 -6 -6 -11 -81 -17 30)
1969/12/31/18:00:10.026000,(0 -6 1 1 -3 -36 -16 -40)
1969/12/31/18:00:10.027000,(6 21 9 6 4 11 4 -58)
1969/12/31/18:00:10.027000,(2 -16 3 6 -1 -23 4 31)
1969/12/31/18:00:10.041000,(-51 -14 -12 -12 -6 17 -45 -36)
1969/12/31/18:00:10.041000,(6 -5 -4 -4 12 25 44 20)
1969/12/31/18:00:10.042000,(8 20 12 15 9 -13 -4 22)
1969/12/31/18:00:10.042000,(-36 -12 -12 -11 -15 -33 -9 -68)
1969/12/31/18:00:10.064000,(-18 -19 -6 1 5 17 -8 -23)
1969/12/31/18:00:10.064000,(21 11 7 1 -3 -15 8 5)
1969/12/31/18:00:10.065000,(-31 -23 -17 -18 -18 -38 -40 -50)
1969/12/31/18:00:10.065000,(39 12 4 4 8 -1 53 91)
1969/12/31/18:00:10.086000,(12 -2 2 3 10 38 37 11)
1969/12/31/18:00:10.086000,(16 2 -1 -1 -12 -54 -25 -5)
1969/12/31/18:00:10.087000,(-4 7 7 6 14 37 -7 17)
1969/12/31/18:00:10.087000,(44 14 4 1 -1 40 0 61)
1969/12/31/18:00:10.100000,(-10 -10 -4 -2 -1 -40 -13 -19)
1969/12/31/18:00:10.100000,(18 9 5 2 1 21 6 24)
1969/12/31/18:00:10.109000,(24 21 8 3 9 47 49 52)
1969/12/31/18:00:10.109000,(-1 -16 -5 -4 -12 -75 -33 -27)
1969/12/31/18:00:10.124000,(-21 -13 -3 1 -7 -39 -31 -17)
1969/12/31/18:00:10.124000,(-32 -20 -7 -3 0 33 7 -55)
1969/12/31/18:00:10.126000,(-6 -5 -10 -9 -19 -94 -76 -27)
1969/12/31/18:00:10.126000,(-9 8 4 -2 2 -4 6 -13)
1969/12/31/18:00:10.147000,(-15 -10 0 2 5 26 13 13)
1969/12/31/18:00:10.147000,(-23 -12 -3 -1 -7 -19 25 7)
1969/12/31/18:00:10.148000,(21 12 2 0 -3 14 6 -8)
1969/12/31/18:00:10.148000,(-4 1 -1 0 3 8 -10 -14)
1969/12/31/18:00:10.160000,(8 15 7 3 11 7 19 -25)
1969/12/31/18:00:10.160000,(7 2 0 0 22 70 -4 48)
1969/12/31/18:00:10.169000,(1 -19 -4 -2 -5 -6 17 -32)
1969/12/31/18:00:10.169000,(-4 2 4 5 13 32 8 8)
1969/12/31/18:00:10.184000,(24 16 3 -1 -35 -57 -7 2)
1969/12/31/18:00:10.184000,(26 13 -1 1 1 -6 1 28)
1969/12/31/18:00:10.185000,(-10 -8 -1 2 -12 8 3 -11)
1969/12/31/18:00:10.185000,(-29 -2 3 14 33 16 10 0)
1969/12/31/18:00:10.206000,(-17 -17 -8 -18 -34 20 24 -20)
1969/12/31/18:00:10.206000,(-17 -17 -10 -11 -11 -9 -61 -56)
1969/12/31/18:00:10.208000,(11 -2 -3 -6 51 21 7 28)
1969/12/31/18:00:10.208000,(-21 1 -2 4 -30 -17 16 12)
1969/12/31/18:00:10.220000,(-18 0 2 -1 -21 -15 -25 -27)
1969/12/31/18:00:10.220000,(-14 -2 1 1 0 -9 2 1)
1969/12/31/18:00:10.229000,(1 3 2 10 20 16 15 11)
1969/12/31/18:00:10.229000,(16 11 9 24 70 39 10 3)
1969/12/31/18:00:10.244000,(15 9 -6 -33 -84 -97 -43 13)
1969/12/31/18:00:10.244000,(1 3 0 -9 0 25 23 5)
1969/12/31/18:00:10.245000,(6 2 6 4 -2 -30 -26 -1)
1969/12/31/18:00:10.245000,(8 -3 0 0 27 13 -9 0)
1969/12/31/18:00:10.266000,(10 -3 0 22 37 54 48 41)
1969/12/31/18:00:10.266000,(-2 -1 2 14 17 -28 25 21)
1969/12/31/18:00:10.268000,(5 6 -1 -1 -24 -2 -7 4)
1969/12/31/18:00:10.268000,(27 6 -1 -10 -32 -47 -22 8)
1969/12/31/18:00:10.280000,(15 5 -1 -6 31 74 34 25)
1969/12/31/18:00:10.280000,(16 4 3 8 15 0 15 16)
1969/12/31/18:00:10.289000,(-7 12 3 6 -45 -62 -8 -12)
1969/12/31/18:00:10.289000,(5 -9 -2 -11 -21 -4 1 -4)
1969/12/31/18:00:10.304000,(-3 -8 -8 -24 -43 -6 2 23)
1969/12/31/18:00:10.304000,(-5 3 1 9 55 63 -14 0)
1969/12/31/18:00:10.306000,(0 -11 -5 -2 -16 -56 3 5)
1969/12/31/18:00:10.306000,(-10 -2 -7 -5 6 21 -5 -50)
1969/12/31/18:00:10.326000,(17 6 -1 18 24 -11 -7 13)
1969/12/31/18:00:10.326000,(-9 3 6 -3 -32 -15 -3 14)
1969/12/31/18:00:10.328000,(-1 -3 -3 6 61 74 28 6)
1969/12/31/18:00:10.328000,(-16 0 4 -19 -78 -35 -18 0)
1969/12/31/18:00:10.340000,(-8 -4 0 6 23 -34 -18 -11)
1969/12/31/18:00:10.340000,(11 15 8 -7 -51 -57 -12 -12)
1969/12/31/18:00:10.349000,(-6 -4 8 1 19 35 8 9)
1969/12/31/18:00:10.349000,(25 11 -14 4 29 10 0 24)
1969/12/31/18:00:10.364000,(17 4 -35 16 108 97 32 13)
1969/12/31/18:00:10.364000,(-27 -11 39 -7 -92 -71 -37 -22)
1969/12/31/18:00:10.366000,(25 1 -38 -26 -35 -2 0 30)
1969/12/31/18:00:10.366000,(-34 1 47 -7 -8 -1 -6 -26)
1969/12/31/18:00:10.386000,(-9 2 9 12 18 -6 -8 10)
1969/12/31/18:00:10.387000,(19 -11 -54 -14 41 34 24 39)
1969/12/31/18:00:10.388000,(3 17 33 9 -36 -19 3 35)
1969/12/31/18:00:10.388000,(54 14 -56 -9 9 -2 4 24)
1969/12/31/18:00:10.400000,(6 -73 -34 -14 11 -4 9 33)
1969/12/31/18:00:10.400000,(-25 77 94 38 17 22 -5 -56)
1969/12/31/18:00:10.409000,(28 52 12 30 47 36 -15 4)
1969/12/31/18:00:10.409000,(-52 -89 -52 -38 -81 -90 -23 -3)
1969/12/31/18:00:10.424000,(-12 15 -20 -15 -40 -20 -10 -36)
1969/12/31/18:00:10.424000,(59 -105 -87 -44 -30 2 22 57)
1969/12/31/18:00:10.425000,(1 25 5 -2 36 37 -13 -28)
1969/12/31/18:00:10.425000,(-23 93 96 32 8 2 -3 -46)
1969/12/31/18:00:10.446000,(-13 -54 -93 -28 9 7 -16 -55)
1969/12/31/18:00:10.447000,(-37 91 105 28 10 -4 -2 -37)
1969/12/31/18:00:10.448000,(-46 -42 -23 -3 8 -3 -10 -25)
1969/12/31/18:00:10.448000,(14 -66 -96 -14 81 92 38 -38)
1969/12/31/18:00:10.460000,(-4 96 127 32 -89 -82 -44 26)
1969/12/31/18:00:10.460000,(11 -10 -67 -12 21 -9 -7 59)
1969/12/31/18:00:10.469000,(-12 -80 -69 -10 1 17 39 -25)
1969/12/31/18:00:10.469000,(15 92 61 20 -3 2 -24 62)
1969/12/31/18:00:10.484000,(39 -81 -75 -8 30 29 28 -2)
1969/12/31/18:00:10.484000,(-24 -58 -48 -40 -62 -7 14 11)
1969/12/31/18:00:10.486000,(-31 91 108 19 -36 -44 -20 -38)
1969/12/31/18:00:10.486000,(36 -108 -98 -33 -15 -8 4 45)
1969/12/31/18:00:10.505000,(-1 32 31 17 40 32 -15 -19)
1969/12/31/18:00:10.506000,(-30 -30 -26 11 45 1 -5 -29)
1969/12/31/18:00:10.514000,(-1 -128 -128 -53 -48 -28 -43 -69)
1969/12/31/18:00:10.514000,(10 119 111 37 -23 -31 10 53)
1969/12/31/18:00:10.520000,(-6 34 37 21 65 48 21 -23)
1969/12/31/18:00:10.520000,(-4 -29 -28 1 4 2 3 -9)
1969/12/31/18:00:10.529000,(-34 24 46 1 -54 -22 -7 -26)
1969/12/31/18:00:10.529000,(0 -128 -122 -46 -15 -2 -10 -8)
1969/12/31/18:00:10.543000,(-15 102 95 23 -15 -15 -7 -8)
1969/12/31/18:00:10.543000,(69 -58 -98 -27 24 32 12 15)
1969/12/31/18:00:10.552000,(6 -40 -47 -12 73 49 7 23)
1969/12/31/18:00:10.552000,(-36 52 105 59 -2 -29 -15 -33)
1969/12/31/18:00:10.567000,(-24 -22 -8 3 11 -5 15 16)
1969/12/31/18:00:10.567000,(51 14 36 12 -50 -23 15 42)
1969/12/31/18:00:10.568000,(52 47 27 0 -42 -53 -24 6)
1969/12/31/18:00:10.568000,(-46 -25 4 -8 9 11 -15 9)
1969/12/31/18:00:10.580000,(-12 -113 -109 -35 6 30 -7 -25)
1969/12/31/18:00:10.580000,(-7 119 108 29 19 15 -38 -8)
1969/12/31/18:00:10.590000,(33 -25 -32 1 -12 -48 14 10)
1969/12/31/18:00:10.590000,(2 -19 -27 -11 -5 -4 20 4)
1969/12/31/18:00:10.603000,(40 -68 -59 -25 17 14 -2 29)
1969/12/31/18:00:10.603000,(-51 38 -8 16 52 28 19 -8)
1969/12/31/18:00:10.611000,(-76 61 52 34 -8 45 29 5)
1969/12/31/18:00:10.611000,(89 31 -8 17 3 -13 -8 -31)
1969/12/31/18:00:10.626000,(-26 -69 -88 -64 -41 -2 10 31)
1969/12/31/18:00:10.627000,(-44 33 43 -6 -77 -59 -46 -69)
1969/12/31/18:00:10.628000,(-29 31 15 6 53 32 28 38)
1969/12/31/18:00:10.628000,(-15 -64 -57 1 9 -12 12 12)
1969/12/31/18:00:10.640000,(2 2 -1 0 -41 1 11 12)
1969/12/31/18:00:10.640000,(9 -27 -40 7 49 14 7 -17)
1969/12/31/18:00:10.649000,(-20 -4 13 -12 -22 -3 -33 -50)
1969/12/31/18:00:10.649000,(-3 -33 -17 -20 21 -2 3 7)
1969/12/31/18:00:10.663000,(14 -47 -14 2 -16 -16 24 27)
1969/12/31/18:00:10.663000,(-27 -16 6 -32 -95 -45 -46 -30)
1969/12/31/18:00:10.670000,(43 14 -21 -13 10 5 -6 22)
1969/12/31/18:00:10.670000,(-12 51 39 14 42 30 -17 -57)
1969/12/31/18:00:10.686000,(5 -40 5 23 -9 -27 -16 -9)
1969/12/31/18:00:10.686000,(-37 17 16 20 28 6 14 -32)
1969/12/31/18:00:10.688000,(38 21 13 45 98 105 49 87)
1969/12/31/18:00:10.688000,(-28 -33 -24 -47 -111 -92 -56 -68)
1969/12/31/18:00:10.710000,(-8 83 48 2 -4 2 9 -25)
1969/12/31/18:00:10.711000,(5 -74 -50 -19 21 -6 -14 -21)
1969/12/31/18:00:10.712000,(8 -46 -18 -12 39 17 47 45)
1969/12/31/18:00:10.712000,(19 15 -14 22 51 47 -8 -16)
1969/12/31/18:00:10.723000,(2 46 50 36 20 -3 3 37)
1969/12/31/18:00:10.723000,(13 -36 -51 -27 -53 2 52 3)
1969/12/31/18:00:10.730000,(20 11 -16 -24 -55 -23 -22 8)
1969/12/31/18:00:10.730000,(-23 40 58 25 -6 -43 0 -17)
1969/12/31/18:00:10.747000,(-14 25 22 1 41 21 -22 -25)
1969/12/31/18:00:10.747000,(25 -69 -63 29 40 5 19 46)
1969/12/31/18:00:10.748000,(-28 103 90 -13 -56 -50 3 -11)
1969/12/31/18:00:10.748000,(11 -5 12 2 -7 6 16 35)
1969/12/31/18:00:10.769000,(41 -26 -50 0 31 15 -29 -17)
1969/12/31/18:00:10.769000,(-37 44 47 -10 3 0 -26 -6)
1969/12/31/18:00:10.775000,(-7 -128 -72 -13 10 -3 -17 -74)
1969/12/31/18:00:10.775000,(13 -30 -51 -26 -42 -5 15 23)
1969/12/31/18:00:10.783000,(-9 118 101 38 24 8 9 -10)
1969/12/31/18:00:10.784000,(45 34 17 36 81 48 12 29)
1969/12/31/18:00:10.790000,(29 -53 -73 -33 -80 -61 -16 8)
1969/12/31/18:00:10.790000,(-41 38 48 -1 -24 2 2 -6)
1969/12/31/18:00:10.806000,(-5 -53 -55 -21 -45 -21 11 15)
1969/12/31/18:00:10.806000,(7 -60 -65 -38 -28 -18 -7 -18)
1969/12/31/18:00:10.814000,(6 104 109 75 103 60 12 -6)
1969/12/31/18:00:10.814000,(-23 -23 -38 11 -20 -13 2 -31)
1969/12/31/18:00:10.829000,(-4 -57 -55 -20 -28 -13 10 19)
1969/12/31/18:00:10.829000,(-19 45 -9 -28 -31 -20 -4 4)
1969/12/31/18:00:10.830000,(35 14 -24 11 81 20 -10 22)
1969/12/31/18:00:10.830000,(-3 -29 -11 -25 -66 -33 -8 15)
1969/12/31/18:00:10.843000,(-29 -36 29 -1 5 -13 -3 -11)
1969/12/31/18:00:10.843000,(-22 -104 -81 -31 -19 42 -15 -56)
1969/12/31/18:00:10.850000,(-2 1 2 4 -7 -1 8 7)
1969/12/31/18:00:10.850000,(35 121 108 18 20 -4 2 -5)
1969/12/31/18:00:10.867000,(13 -67 -64 -22 -65 -48 -3 12)
1969/12/31/18:00:10.867000,(-21 3 61 13 -33 -77 -68 4)
1969/12/31/18:00:10.869000,(-14 -63 -69 -27 22 65 38 25)
1969/12/31/18:00:10.869000,(-27 10 11 24 68 50 8 -30)
1969/12/31/18:00:10.889000,(62 67 59 38 32 5 4 30)
1969/12/31/18:00:10.889000,(-32 -49 -26 0 24 26 31 -12)
1969/12/31/18:00:10.891000,(-2 5 -13 -32 -88 -82 -79 -74)
1969/12/31/18:00:10.891000,(-49 -70 -32 -8 44 58 12 25)
1969/12/31/18:00:10.903000,(-34 12 -26 -34 -46 -19 9 -4)
1969/12/31/18:00:10.903000,(-9 97 107 48 0 -51 14 32)
1969/12/31/18:00:10.910000,(87 1 -13 7 66 95 38 62)
1969/12/31/18:00:10.910000,(25 24 -17 14 -52 -90 2 36)
1969/12/31/18:00:10.926000,(-79 4 29 13 43 25 -52 -92)
1969/12/31/18:00:10.926000,(66 -54 -42 -33 -33 6 27 8)
1969/12/31/18:00:10.928000,(-55 1 23 1 3 21 11 19)
1969/12/31/18:00:10.928000,(-44 -21 -31 -14 30 34 15 -31)
1969/12/31/18:00:10.949000,(35 -14 -13 1 -21 -14 17 41)
1969/12/31/18:00:10.949000,(10 -7 -1 12 62 44 17 37)
1969/12/31/18:00:10.950000,(-46 -85 -77 -53 -112 -111 -40 -43)
1969/12/31/18:00:10.950000,(43 63 60 19 7 8 -11 -5)
1969/12/31/18:00:10.963000,(-12 -17 14 2 18 15 -7 -8)
1969/12/31/18:00:10.963000,(-6 -14 2 -5 8 12 -32 -17)
1969/12/31/18:00:10.987000,(-4 -10 -38 24 52 34 13 -6)
1969/12/31/18:00:10.987000,(20 -74 -65 -34 -59 -29 7 66)
1969/12/31/18:00:10.988000,(8 127 127 46 39 28 -1 17)
1969/12/31/18:00:10.988000,(-28 -26 -40 -18 -27 -12 14 -3)
1969/12/31/18:00:10.992000,(-32 -59 -6 -4 4 11 -1 24)
1969/12/31/18:00:10.992000,(-12 -54 -51 -25 7 -25 -11 -25)
1969/12/31/18:00:11.009000,(19 3 -72 -9 38 12 -23 -24)
1969/12/31/18:00:11.009000,(8 127 114 58 -19 3 39 31)
1969/12/31/18:00:11.010000,(11 39 15 -2 -59 -40 -14 -36)
1969/12/31/18:00:11.010000,(-3 -64 -44 -10 62 72 0 -4)
1969/12/31/18:00:11.022000,(0 -44 -43 -9 -29 -18 24 19)
1969/12/31/18:00:11.022000,(18 -18 -22 -11 6 -21 -23 -41)
1969/12/31/18:00:11.031000,(12 63 83 43 32 -6 -13 -7)
1969/12/31/18:00:11.031000,(62 51 44 18 4 29 -4 36)
1969/12/31/18:00:11.046000,(-24 -87 -13 -10 4 1 0 -7)
1969/12/31/18:00:11.046000,(-21 -21 -36 -6 39 32 -34 -46)
1969/12/31/18:00:11.048000,(-30 -84 -94 -42 -35 -26 35 15)
1969/12/31/18:00:11.048000,(45 87 82 54 15 -4 12 56)
1969/12/31/18:00:11.069000,(-16 -51 -15 -12 -18 10 4 -56)
1969/12/31/18:00:11.069000,(11 -61 -44 -11 -24 -37 -7 23)
1969/12/31/18:00:11.070000,(-11 -16 8 -20 2 18 3 34)
1969/12/31/18:00:11.070000,(-27 -51 -50 -12 65 47 19 -9)
1969/12/31/18:00:11.091000,(-3 34 3 7 -40 -38 -17 -13)
1969/12/31/18:00:11.091000,(8 26 46 19 -7 15 4 -9)
1969/12/31/18:00:11.093000,(67 83 31 14 3 5 -8 -5)
1969/12/31/18:00:11.093000,(-56 -58 -29 -21 -53 -65 -1 0)
1969/12/31/18:00:11.107000,(-24 23 33 10 44 24 -31 -28)
1969/12/31/18:00:11.107000,(13 -42 -47 -15 13 -8 10 56)
1969/12/31/18:00:11.108000,(-3 -27 8 -7 -35 -15 -9 -3)
1969/12/31/18:00:11.108000,(0 -18 -30 -21 6 27 4 -13)
1969/12/31/18:00:11.129000,(-10 -6 -41 -2 47 18 -11 -22)
1969/12/31/18:00:11.129000,(27 99 100 30 -27 -16 12 50)
1969/12/31/18:00:11.131000,(-51 -10 9 29 24 -6 9 -20)
1969/12/31/18:00:11.131000,(18 -35 -16 -24 -15 19 -15 -11)
1969/12/31/18:00:11.151000,(40 16 -31 -24 -50 -42 1 39)
1969/12/31/18:00:11.151000,(-12 5 21 6 5 14 -3 -31)
1969/12/31/18:00:11.153000,(-17 61 89 15 -45 -55 -1 19)
1969/12/31/18:00:11.153000,(33 -29 -32 -9 11 0 2 -10)
1969/12/31/18:00:11.166000,(-30 -47 -42 -26 -17 -5 -9 3)
1969/12/31/18:00:11.166000,(17 0 -37 -15 46 30 -23 -6)
1969/12/31/18:00:11.168000,(16 -94 -78 14 38 53 52 63)
1969/12/31/18:00:11.168000,(10 102 102 12 -70 -41 8 31)
1969/12/31/18:00:11.189000,(50 94 37 -3 -4 6 -8 -13)
1969/12/31/18:00:11.189000,(-52 3 35 15 -12 -36 -23 -57)
1969/12/31/18:00:11.190000,(-38 -72 -39 -21 17 16 -22 -22)
1969/12/31/18:00:11.190000,(4 -40 -77 -15 12 9 19 8)
1969/12/31/18:00:11.203000,(-2 -37 -17 13 23 10 34 52)
1969/12/31/18:00:11.203000,(5 -10 0 16 60 41 -29 -28)
1969/12/31/18:00:11.212000,(-36 111 114 8 -106 -106 -68 -77)
1969/12/31/18:00:11.212000,(-29 -8 -9 -12 42 18 -4 7)
1969/12/31/18:00:11.227000,(-30 -55 -31 -3 -6 -11 3 -14)
1969/12/31/18:00:11.227000,(2 -53 -75 -31 10 21 9 0)
1969/12/31/18:00:11.228000,(43 41 40 33 71 64 33 37)
1969/12/31/18:00:11.228000,(3 5 -1 -8 -60 -55 -24 -57)
1969/12/31/18:00:11.249000,(-14 -34 -9 -4 -8 14 12 3)
1969/12/31/18:00:11.249000,(52 59 -15 0 17 16 35 53)
1969/12/31/18:00:11.250000,(0 18 21 14 2 6 5 5)
1969/12/31/18:00:11.250000,(21 20 18 13 20 14 10 23)
1969/12/31/18:00:11.271000,(-45 -17 -4 -13 -26 -20 -15 -54)
1969/12/31/18:00:11.271000,(22 -23 -52 -17 -16 -13 -11 -26)
1969/12/31/18:00:11.273000,(-17 30 54 8 12 11 4 4)
1969/12/31/18:00:11.273000,(-8 1 -2 8 57 51 1 -23)
1969/12/31/18:00:11.286000,(37 42 10 -3 -66 -53 11 41)
1969/12/31/18:00:11.286000,(29 -22 -31 14 54 39 21 9)
1969/12/31/18:00:11.288000,(-56 4 40 -12 -89 -83 -56 -94)
1969/12/31/18:00:11.288000,(9 27 26 -12 -71 -56 -5 19)
1969/12/31/18:00:11.309000,(1 16 21 9 40 38 -18 2)
1969/12/31/18:00:11.309000,(-13 -16 -21 -32 -39 -14 16 19)
1969/12/31/18:00:11.311000,(55 -85 -110 -24 52 32 -2 38)
1969/12/31/18:00:11.311000,(41 69 61 43 31 20 18 25)
1969/12/31/18:00:11.323000,(-6 7 34 10 2 7 -4 -20)
1969/12/31/18:00:11.323000,(-20 10 11 4 -3 -19 -27 -3)
1969/12/31/18:00:11.332000,(-10 -47 -58 -58 -21 -3 13 15)
1969/12/31/18:00:11.332000,(-24 -59 -89 -13 -5 -4 -27 -24)
1969/12/31/18:00:11.347000,(-8 -49 -3 8 19 15 39 20)
1969/12/31/18:00:11.347000,(15 82 95 51 21 46 5 7)
1969/12/31/18:00:11.348000,(29 58 39 53 67 14 33 56)
1969/12/31/18:00:11.348000,(31 77 58 -15 -58 -62 -33 23)
1969/12/31/18:00:11.369000,(-13 -2 5 -13 -36 56 28 -17)
1969/12/31/18:00:11.369000,(-38 -83 -50 -36 -35 -72 -33 -23)
1969/12/31/18:00:11.371000,(34 -40 -88 -29 19 22 7 16)
1969/12/31/18:00:11.371000,(-41 -41 -1 21 114 83 -6 -19)
1969/12/31/18:00:11.383000,(-17 13 -16 -24 -97 -110 -30 -11)
1969/12/31/18:00:11.383000,(10 -26 -11 -29 -39 -13 9 18)
1969/12/31/18:00:11.392000,(-22 6 -11 1 14 14 -18 -33)
1969/12/31/18:00:11.392000,(5 -10 -25 8 44 52 32 8)
1969/12/31/18:00:11.406000,(7 21 27 21 50 -6 -7 18)
1969/12/31/18:00:11.406000,(-20 8 4 -32 -79 -34 -18 -29)
1969/12/31/18:00:11.408000,(14 -27 -35 -36 -36 -40 -17 21)
1969/12/31/18:00:11.408000,(-54 -36 -13 -27 -31 -25 -18 -60)
1969/12/31/18:00:11.429000,(11 45 49 71 83 79 18 2)
1969/12/31/18:00:11.429000,(-15 9 8 37 33 -12 -1 -11)
1969/12/31/18:00:11.430000,(3 -7 3 6 -15 16 -4 -22)
1969/12/31/18:00:11.430000,(-2 4 -5 -17 -16 -2 -2 15)
1969/12/31/18:00:11.443000,(69 25 11 10 22 20 14 57)
1969/12/31/18:00:11.443000,(-63 -23 -6 -16 -15 -22 -28 -68)
1969/12/31/18:00:11.451000,(-1 7 15 -1 -7 13 16 7)
1969/12/31/18:00:11.451000,(-10 -7 -3 7 -6 -5 -2 -17)
1969/12/31/18:00:11.467000,(38 34 -13 -12 0 -11 6 31)
1969/12/31/18:00:11.467000,(-44 -26 15 13 10 18 37 19)
1969/12/31/18:00:11.468000,(-11 4 14 0 4 -1 -4 3)
1969/12/31/18:00:11.468000,(-33 -29 -21 -3 -13 -34 -20 -45)
1969/12/31/18:00:11.489000,(9 14 -1 -4 10 31 -9 -16)
1969/12/31/18:00:11.489000,(16 0 -8 -15 -4 14 33 40)
1969/12/31/18:00:11.491000,(10 3 2 5 10 -9 20 37)
1969/12/31/18:00:11.491000,(-3 -8 5 7 -11 30 1 10)
1969/12/31/18:00:11.503000,(-46 -28 -4 -14 -17 -20 7 0)
1969/12/31/18:00:11.503000,(48 28 -4 -7 2 -2 -28 -19)
1969/12/31/18:00:11.511000,(8 -18 -23 -42 -8 29 33 19)
1969/12/31/18:00:11.511000,(-37 -17 4 50 20 -13 -8 -25)
1969/12/31/18:00:11.527000,(-60 -25 -2 1 1 27 -5 -45)
1969/12/31/18:00:11.527000,(24 25 19 35 20 -76 -43 2)
1969/12/31/18:00:11.528000,(58 23 5 3 -12 2 -3 25)
1969/12/31/18:00:11.528000,(-3 -7 -5 -26 -15 37 31 5)
1969/12/31/18:00:11.549000,(12 5 -2 -22 -15 1 -29 -12)
1969/12/31/18:00:11.549000,(-39 -4 14 34 44 51 59 51)
1969/12/31/18:00:11.551000,(-7 -17 -10 -8 -15 -48 -34 63)
1969/12/31/18:00:11.551000,(-18 11 6 -7 -11 -40 -60 -84)
1969/12/31/18:00:11.563000,(63 25 1 4 3 4 7 19)
1969/12/31/18:00:11.563000,(-59 -59 -22 -29 -26 -31 -9 -37)
1969/12/31/18:00:11.572000,(-7 0 3 12 12 18 25 29)
1969/12/31/18:00:11.572000,(58 18 2 3 7 12 40 55)
1969/12/31/18:00:11.587000,(2 5 -2 -8 -9 -34 -12 -29)
1969/12/31/18:00:11.587000,(1 6 2 -4 0 22 -7 -21)
1969/12/31/18:00:11.588000,(-28 9 16 23 13 8 -28 -31)
1969/12/31/18:00:11.588000,(11 -15 -23 -17 -22 -36 8 -3)
1969/12/31/18:00:11.608000,(15 -7 2 -1 10 31 16 34)
1969/12/31/18:00:11.608000,(14 11 1 -3 -9 -32 -24 -17)
1969/12/31/18:00:11.616000,(-96 -27 -13 -2 -8 -20 -34 -98)
1969/12/31/18:00:11.616000,(65 48 35 19 17 26 37 72)
1969/12/31/18:00:11.623000,(-48 -42 -20 -8 0 -1 8 38)
1969/12/31/18:00:11.623000,(51 6 -8 -9 -6 9 -5 25)
1969/12/31/18:00:11.631000,(-44 4 7 6 2 0 3 -41)
1969/12/31/18:00:11.632000,(14 3 -3 -3 1 0 -6 40)
1969/12/31/18:00:11.654000,(-8 2 8 4 4 -7 12 14)
1969/12/31/18:00:11.654000,(66 31 7 2 0 14 6 11)
1969/12/31/18:00:11.655000,(4 -10 -1 1 -1 -6 -11 -39)
1969/12/31/18:00:11.655000,(-1 -2 -4 -2 -1 5 7 26)
1969/12/31/18:00:11.669000,(-23 -7 -2 4 0 -13 -17 -46)
1969/12/31/18:00:11.669000,(-2 26 10 6 6 22 19 9)
1969/12/31/18:00:11.670000,(5 -18 -11 -6 -8 -1 -4 -8)
1969/12/31/18:00:11.670000,(-45 -16 -10 -5 -5 -12 -24 -31)
1969/12/31/18:00:11.691000,(41 7 0 -4 -3 -8 1 41)
1969/12/31/18:00:11.691000,(-29 -12 -2 0 4 12 3 21)
1969/12/31/18:00:11.693000,(29 10 0 -2 -3 -3 7 -8)
1969/12/31/18:00:11.693000,(-56 -30 -11 -6 -7 -10 -14 -28)
1969/12/31/18:00:11.706000,(-23 3 -1 -4 -5 -13 -18 -31)
1969/12/31/18:00:11.706000,(-5 -8 -3 -3 1 10 5 13)
1969/12/31/18:00:11.712000,(15 0 3 1 0 1 2 6)
1969/12/31/18:00:11.712000,(-17 1 -5 -5 -6 -8 -14 -36)
1969/12/31/18:00:11.729000,(6 4 1 1 1 -2 -1 -1)
1969/12/31/18:00:11.729000,(-38 -23 -11 -5 -1 0 -1 -10)
1969/12/31/18:00:11.731000,(31 13 1 0 -1 -2 0 -2)
1969/12/31/18:00:11.731000,(26 14 10 1 -1 -2 1 6)
1969/12/31/18:00:11.751000,(-22 -28 -11 -4 -2 -5 -1 -5)
1969/12/31/18:00:11.751000,(-17 -10 -6 -6 -5 -2 -7 -43)
1969/12/31/18:00:11.753000,(-2 11 12 8 2 1 6 22)
1969/12/31/18:00:11.753000,(30 10 -12 -5 -3 1 -1 -18)
1969/12/31/18:00:11.766000,(13 8 16 6 0 -2 -4 7)
1969/12/31/18:00:11.766000,(-4 -7 -7 -3 2 4 4 19)
1969/12/31/18:00:11.773000,(18 16 1 -1 2 2 5 14)
1969/12/31/18:00:11.773000,(-11 -20 7 2 0 -1 0 5)
1969/12/31/18:00:11.789000,(-7 4 -9 -4 -2 -7 -10 -21)
1969/12/31/18:00:11.789000,(-1 -3 -4 -4 -3 -1 -4 0)
1969/12/31/18:00:11.790000,(-18 -21 -17 -5 -3 -3 3 -4)
1969/12/31/18:00:11.790000,(20 17 -1 2 3 0 -5 16)
1969/12/31/18:00:11.814000,(6 14 14 2 0 1 5 3)
1969/12/31/18:00:11.814000,(-6 -11 -6 0 -2 -1 -6 -7)
1969/12/31/18:00:11.816000,(-10 -21 -10 -7 -6 -6 -7 -6)
1969/12/31/18:00:11.816000,(1 9 16 6 0 1 6 -6)
1969/12/31/18:00:11.826000,(-6 8 4 0 -5 -5 -10 10)
1969/12/31/18:00:11.826000,(43 25 8 3 1 1 3 2)
1969/12/31/18:00:11.834000,(-27 -22 -19 -9 -7 -6 -15 -44)
1969/12/31/18:00:11.834000,(-14 -27 -16 -7 -2 1 0 -6)
1969/12/31/18:00:11.849000,(11 4 -13 -7 -2 0 4 0)
1969/12/31/18:00:11.849000,(-8 23 46 19 9 5 11 5)
1969/12/31/18:00:11.850000,(14 10 -5 -2 -1 -2 -17 0)
1969/12/31/18:00:11.850000,(-4 -5 0 -1 -1 2 5 8)
1969/12/31/18:00:11.871000,(-21 -3 5 1 -1 -8 -13 -17)
1969/12/31/18:00:11.871000,(23 -9 -32 -13 -4 0 5 14)
1969/12/31/18:00:11.873000,(-9 22 39 16 7 3 7 -3)
1969/12/31/18:00:11.873000,(-2 8 0 -4 -2 2 0 1)
1969/12/31/18:00:11.886000,(1 -28 -25 -8 -2 -2 -3 -2)
1969/12/31/18:00:11.886000,(-8 6 -5 -9 -6 1 3 -4)
1969/12/31/18:00:11.892000,(3 15 17 9 2 0 10 4)
1969/12/31/18:00:11.892000,(-2 -12 -9 -1 -3 -3 -8 -1)
1969/12/31/18:00:11.909000,(2 4 2 2 3 2 4 10)
1969/12/31/18:00:11.909000,(3 -3 -11 -8 -6 -4 -8 -4)
1969/12/31/18:00:11.910000,(-3 -15 -8 -4 -1 0 2 -5)
1969/12/31/18:00:11.910000,(-4 -4 -1 2 2 2 1 7)
1969/12/31/18:00:11.932000,(8 26 18 6 0 0 14 0)
1969/12/31/18:00:11.932000,(-9 -2 5 7 4 0 -13 1)
1969/12/31/18:00:11.933000,(10 -33 -23 -13 -4 -1 1 7)
1969/12/31/18:00:11.933000,(5 36 19 3 -2 -6 -7 10)
1969/12/31/18:00:11.946000,(-18 -22 -6 1 0 -4 -10 -22)
1969/12/31/18:00:11.946000,(2 -23 -28 -12 -5 -2 11 4)
1969/12/31/18:00:11.952000,(5 56 57 18 7 3 -1 0)
1969/12/31/18:00:11.952000,(0 -19 -22 -9 0 3 3 8)
1969/12/31/18:00:11.969000,(-3 3 10 6 2 2 -9 -2)
1969/12/31/18:00:11.969000,(0 -8 -15 -10 -7 -5 -2 2)
1969/12/31/18:00:11.971000,(-8 -3 14 12 4 2 -2 -1)
1969/12/31/18:00:11.971000,(2 -11 -10 -2 -1 0 4 0)
1969/12/31/18:00:11.992000,(7 13 8 6 2 2 0 0)
1969/12/31/18:00:11.992000,(-14 -11 -2 -2 -1 0 -3 -10)
1969/12/31/18:00:11.993000,(3 -18 -25 -10 -3 -1 8 7)
1969/12/31/18:00:11.993000,(-5 -3 1 -3 -1 -1 -7 -3)
1969/12/31/18:00:12.006000,(7 25 9 0 -1 0 1 -1)
1969/12/31/18:00:12.006000,(2 13 20 16 8 5 0 4)
1969/12/31/18:00:12.013000,(5 -10 -23 -7 -4 0 -2 0)
1969/12/31/18:00:12.013000,(-9 -11 8 2 0 -1 -1 -5)
1969/12/31/18:00:12.029000,(-4 -72 -43 -24 -11 -5 -3 0)
1969/12/31/18:00:12.029000,(0 46 52 16 6 1 -2 -4)
1969/12/31/18:00:12.030000,(7 37 9 0 -1 3 1 0)
1969/12/31/18:00:12.030000,(-7 -1 16 5 2 1 1 -8)
1969/12/31/18:00:12.052000,(-4 -18 -17 -5 -6 -2 -2 -3)
1969/12/31/18:00:12.052000,(-8 -12 7 -5 -2 1 -3 -4)
1969/12/31/18:00:12.053000,(25 15 -18 0 2 1 -2 6)
1969/12/31/18:00:12.053000,(6 -12 -2 1 -2 -3 -2 0)
1969/12/31/18:00:12.066000,(6 47 8 -3 -2 -3 -1 0)
1969/12/31/18:00:12.066000,(-5 -31 -7 6 3 -2 1 1)
1969/12/31/18:00:12.073000,(0 11 -1 3 3 1 1 3)
1969/12/31/18:00:12.073000,(-16 -30 -29 -19 -9 -4 -3 -4)
1969/12/31/18:00:12.089000,(18 60 30 10 0 -1 0 -1)
1969/12/31/18:00:12.089000,(-22 -25 -24 -13 -7 -3 -5 -6)
1969/12/31/18:00:12.097000,(-10 -25 -34 -32 -13 -3 0 0)
1969/12/31/18:00:12.097000,(27 63 47 37 14 4 -2 5)
1969/12/31/18:00:12.111000,(-23 -43 3 12 6 0 6 1)
1969/12/31/18:00:12.111000,(8 19 6 -3 -1 -6 5 7)
1969/12/31/18:00:12.113000,(-10 5 18 6 2 -5 2 -3)
1969/12/31/18:00:12.113000,(-1 4 -17 -14 -4 -4 4 4)
1969/12/31/18:00:12.135000,(-3 -21 -37 -22 -4 -2 0 2)
1969/12/31/18:00:12.135000,(-3 -19 -4 6 -2 -2 -3 -3)
1969/12/31/18:00:12.137000,(-24 -40 -59 -45 -18 -10 -11 -8)
1969/12/31/18:00:12.137000,(21 24 41 36 16 9 2 2)
1969/12/31/18:00:12.141000,(3 18 32 28 10 8 1 -1)
1969/12/31/18:00:12.141000,(0 -16 -17 -8 -4 0 -2 2)
1969/12/31/18:00:12.148000,(4 12 7 11 0 1 -2 -4)
1969/12/31/18:00:12.148000,(-11 -26 -25 -21 -11 -6 -3 -3)
1969/12/31/18:00:12.164000,(-1 -15 -22 -14 -5 -4 1 4)
1969/12/31/18:00:12.164000,(1 8 6 2 2 0 3 2)
1969/12/31/18:00:12.165000,(2 4 17 7 1 -1 -3 -3)
1969/12/31/18:00:12.165000,(-6 6 0 -4 -3 -2 -3 -5)
1969/12/31/18:00:12.178000,(10 13 21 6 -1 3 -3 -2)
1969/12/31/18:00:12.178000,(1 3 0 -1 0 4 -7 -4)
1969/12/31/18:00:12.187000,(0 -1 13 10 3 4 -7 -4)
1969/12/31/18:00:12.187000,(-3 -11 -4 -1 0 4 -5 -5)
1969/12/31/18:00:12.201000,(-7 -11 -12 -12 -5 2 -5 -2)
1969/12/31/18:00:12.201000,(2 8 -2 -2 -1 2 -4 -4)
1969/12/31/18:00:12.208000,(-5 -10 9 8 3 5 -4 -8)
1969/12/31/18:00:12.208000,(-6 -8 -1 -6 -4 3 -3 3)
1969/12/31/18:00:12.224000,(0 -3 -1 -3 -2 5 -1 4)
1969/12/31/18:00:12.224000,(1 11 3 0 -2 -5 1 -8)
1969/12/31/18:00:12.225000,(-1 -5 1 6 2 -16 7 6)
1969/12/31/18:00:12.225000,(-7 -3 -18 -9 -3 -23 9 1)
1969/12/31/18:00:12.237000,(-1 0 -12 -4 2 -22 11 10)
1969/12/31/18:00:12.237000,(0 0 -19 -10 1 -18 9 10)
1969/12/31/18:00:12.247000,(-6 -20 -19 -8 1 -13 11 9)
1969/12/31/18:00:12.247000,(2 27 1 -1 1 -6 6 5)
1969/12/31/18:00:12.261000,(-2 -5 -7 -4 0 0 2 1)
1969/12/31/18:00:12.261000,(-1 -3 -8 -8 -7 7 -1 0)
1969/12/31/18:00:12.267000,(-1 -6 2 2 0 13 -3 -1)
1969/12/31/18:00:12.267000,(-3 -6 -6 -8 -3 15 -7 -4)
1969/12/31/18:00:12.284000,(5 6 16 4 0 16 -6 -6)
1969/12/31/18:00:12.285000,(1 -3 -1 0 1 12 -10 -7)
1969/12/31/18:00:12.286000,(1 2 13 5 2 8 -7 -5)
1969/12/31/18:00:12.286000,(-1 -11 6 4 -1 0 -7 -7)
1969/12/31/18:00:12.298000,(-1 -2 -2 -3 -4 -3 -7 -8)
1969/12/31/18:00:12.298000,(-3 -8 0 0 -2 -1 -4 -4)
1969/12/31/18:00:12.314000,(3 7 17 6 -3 3 -7 -3)
1969/12/31/18:00:12.314000,(-2 -9 -4 -4 0 4 -4 -5)
1969/12/31/18:00:12.321000,(-2 -3 -1 0 -4 -1 -2 -4)
1969/12/31/18:00:12.321000,(2 11 10 9 1 -2 2 1)
1969/12/31/18:00:12.327000,(1 1 3 3 -1 -3 2 -1)
1969/12/31/18:00:12.327000,(-1 -3 -4 -4 -2 -2 1 1)
1969/12/31/18:00:12.343000,(-3 -2 -5 -6 -1 -3 2 0)
1969/12/31/18:00:12.343000,(2 2 2 2 4 -1 2 4)
1969/12/31/18:00:12.350000,(-1 2 -2 -2 -1 -3 0 1)
1969/12/31/18:00:12.350000,(-5 -5 -4 -1 2 -2 -1 1)
1969/12/31/18:00:12.366000,(-2 -5 -3 -3 0 0 -1 -2)
1969/12/31/18:00:12.367000,(1 3 2 0 -2 -1 -1 0)
1969/12/31/18:00:12.368000,(0 -3 -9 -8 -4 -2 -3 -2)
1969/12/31/18:00:12.368000,(0 -6 2 5 1 -1 1 -1)
1969/12/31/18:00:12.381000,(-2 1 -4 0 -1 -3 -2 -2)
1969/12/31/18:00:12.381000,(0 7 6 7 1 -1 2 3)
1969/12/31/18:00:12.388000,(2 8 6 4 2 -5 -2 -4)
1969/12/31/18:00:12.388000,(-4 -6 -6 1 -2 -3 1 1)
1969/12/31/18:00:12.403000,(-1 -5 -7 -4 -2 -5 2 3)
1969/12/31/18:00:12.403000,(-4 -11 -8 -6 -5 -4 6 6)
1969/12/31/18:00:12.410000,(0 8 1 1 -1 0 0 -1)
1969/12/31/18:00:12.410000,(-4 -5 -6 -2 -3 -1 1 -3)
1969/12/31/18:00:12.417000,(-2 -1 3 1 -2 -3 -1 -2)
1969/12/31/18:00:12.418000,(1 0 -4 -11 -50 -32 -7 0)
1969/12/31/18:00:12.426000,(-2 -7 -3 3 51 35 3 2)
1969/12/31/18:00:12.426000,(-6 -3 -3 -5 -4 0 2 3)
1969/12/31/18:00:12.441000,(-2 -1 -2 2 8 8 0 -1)
1969/12/31/18:00:12.441000,(0 3 1 2 3 2 -1 -4)
1969/12/31/18:00:12.455000,(-1 -6 -4 -4 -25 -19 0 0)
1969/12/31/18:00:12.455000,(0 3 2 2 2 1 -3 -2)
1969/12/31/18:00:12.463000,(1 -1 -1 1 -2 -1 -1 -1)
1969/12/31/18:00:12.463000,(-1 -2 1 -1 -1 0 -3 -3)
1969/12/31/18:00:12.470000,(-2 -1 -1 -1 -7 -3 -1 -3)
1969/12/31/18:00:12.470000,(-1 -1 -1 0 4 4 0 -2)
1969/12/31/18:00:12.477000,(0 -2 2 0 -8 -5 -3 -1)
1969/12/31/18:00:12.477000,(3 4 5 4 12 8 -1 -3)
1969/12/31/18:00:12.486000,(-2 -7 -3 -4 -5 -2 -3 -3)
1969/12/31/18:00:12.486000,(-1 0 -3 -5 -3 -2 -5 -3)
1969/12/31/18:00:12.501000,(-1 -3 2 0 -2 -2 -1 -3)
1969/12/31/18:00:12.501000,(-1 -1 1 1 11 6 -1 -2)
1969/12/31/18:00:12.508000,(-3 -4 -6 -5 -6 -3 -3 -1)
1969/12/31/18:00:12.508000,(-1 -1 0 -1 -6 -6 -4 -3)
1969/12/31/18:00:12.525000,(-3 1 -4 -3 2 2 -1 -1)
1969/12/31/18:00:12.525000,(-2 -1 -3 2 9 6 -1 -1)
1969/12/31/18:00:12.538000,(-1 0 -2 1 -9 -5 1 -1)
1969/12/31/18:00:12.538000,(0 1 -2 -1 -2 -4 0 1)
1969/12/31/18:00:12.554000,(-2 -3 1 -1 2 0 0 2)
1969/12/31/18:00:12.554000,(-1 1 0 1 1 0 1 0)
1969/12/31/18:00:12.555000,(-1 0 1 -2 -5 -3 0 1)
1969/12/31/18:00:12.555000,(-1 0 0 1 0 1 1 0)
1969/12/31/18:00:12.569000,(-3 0 -1 0 1 -1 -1 0)
1969/12/31/18:00:12.569000,(-1 -2 -2 2 0 0 -1 -1)
1969/12/31/18:00:12.571000,(-2 -3 -1 -2 -2 -1 -2 -3)
1969/12/31/18:00:12.571000,(1 1 2 4 0 -1 -2 0)
1969/12/31/18:00:12.583000,(-1 0 -1 1 -6 -3 -1 -3)
1969/12/31/18:00:12.583000,(0 1 -1 1 3 1 -2 -1)
1969/12/31/18:00:12.590000,(-1 0 -2 1 1 -2 0 2)
1969/12/31/18:00:12.590000,(-1 -2 0 0 -1 0 1 -2)
1969/12/31/18:00:12.614000,(-1 -1 -2 -5 -4 -3 -2 0)
1969/12/31/18:00:12.614000,(-2 -1 0 -3 1 0 -2 0)
1969/12/31/18:00:12.615000,(-1 -2 1 0 0 -2 0 -1)
1969/12/31/18:00:12.616000,(-2 -1 -1 -3 -2 -1 -1 -2)
1969/12/31/18:00:12.621000,(-1 2 4 3 4 0 0 -1)
1969/12/31/18:00:12.621000,(-1 0 -1 -3 3 0 -1 -1)
1969/12/31/18:00:12.628000,(0 0 0 0 -1 -3 -1 1)
1969/12/31/18:00:12.628000,(-2 0 -1 -5 -2 -2 -1 -2)
1969/12/31/18:00:12.643000,(0 -2 -2 -4 -2 0 -2 0)
1969/12/31/18:00:12.643000,(-2 -1 0 -4 -1 0 1 -2)
1969/12/31/18:00:12.650000,(-2 -1 -1 -2 1 -1 -2 -1)
1969/12/31/18:00:12.650000,(-1 -1 -1 -2 0 1 1 0)
1969/12/31/18:00:12.667000,(-1 -1 -1 3 2 1 0 -1)
1969/12/31/18:00:12.667000,(-1 -2 -1 -1 0 -2 -2 0)
1969/12/31/18:00:12.673000,(-1 0 -1 0 0 -1 0 -1)
1969/12/31/18:00:12.673000,(1 0 -1 -2 -1 -1 0 -2)
1969/12/31/18:00:12.681000,(-1 -1 0 -1 -2 0 0 -1)
1969/12/31/18:00:12.681000,(-2 -4 -5 0 -1 -2 -2 -3)
1969/12/31/18:00:12.688000,(-1 -2 -2 -2 0 1 0 0)
1969/12/31/18:00:12.688000,(-1 2 4 3 1 -2 -1 2)
1969/12/31/18:00:12.703000,(-2 -1 -3 -2 -1 -3 -1 -1)
1969/12/31/18:00:12.703000,(-1 -1 -3 -4 0 1 -2 -1)
1969/12/31/18:00:12.710000,(1 0 1 -1 -2 0 -2 -2)
1969/12/31/18:00:12.710000,(-2 -1 -1 -2 0 1 -2 -2)
1969/12/31/18:00:12.726000,(-1 -1 -2 -3 -2 0 0 -1)
1969/12/31/18:00:12.726000,(-2 1 1 0 0 -1 -1 0)
1969/12/31/18:00:12.728000,(-1 -2 -3 -1 -1 -2 -1 0)
1969/12/31/18:00:12.728000,(-2 -2 -4 -1 -3 -4 -1 -1)
1969/12/31/18:00:12.741000,(-1 -2 -1 0 -1 -1 0 -1)
1969/12/31/18:00:12.741000,(-1 -1 -2 -2 -3 0 1 -2)
1969/12/31/18:00:12.748000,(-2 -1 -1 -4 -4 -1 0 -1)
1969/12/31/18:00:12.748000,(0 0 -2 -2 -1 0 -1 -1)
1969/12/31/18:00:12.748000,(-3 -3 1 -1 -3 -4 -2 -2)
1969/12/31/18:00:12.748000,(-13 -6 -12 -7 -4 -1 -5 -28)
1969/12/31/18:00:12.749000,(12 3 2 -6 -2 -2 2 14)
1969/12/31/18:00:12.749000,(-1 6 6 4 2 0 -1 -1)
1969/12/31/18:00:12.770000,(-2 -4 1 -1 -1 2 -4 -7)
1969/12/31/18:00:12.770000,(-7 -8 -11 -2 0 -1 -4 -18)
1969/12/31/18:00:12.771000,(-4 -1 -11 -7 -3 -2 -1 -1)
1969/12/31/18:00:12.771000,(-3 5 20 11 -2 -3 -9 -20)
1969/12/31/18:00:12.785000,(1 3 7 9 2 4 4 13)
1969/12/31/18:00:12.785000,(5 -2 2 -2 -4 -2 -2 6)
1969/12/31/18:00:12.786000,(-1 -5 -7 -2 -1 -1 -6 -8)
1969/12/31/18:00:12.786000,(-4 -11 -21 -22 -6 1 2 4)
1969/12/31/18:00:12.808000,(-5 -7 -8 -10 -3 -3 1 -2)
1969/12/31/18:00:12.808000,(10 18 21 22 7 0 0 8)
1969/12/31/18:00:12.809000,(-3 0 9 -6 -1 3 2 4)
1969/12/31/18:00:12.809000,(4 4 0 -5 -2 0 0 0)
1969/12/31/18:00:12.831000,(-4 -2 4 22 5 -2 -6 -6)
1969/12/31/18:00:12.831000,(-1 -6 -9 -8 -1 1 -1 1)
1969/12/31/18:00:12.832000,(-1 -4 -3 6 -1 0 1 2)
1969/12/31/18:00:12.832000,(-4 2 -6 -6 -6 -8 -10 -15)
1969/12/31/18:00:12.847000,(-3 1 -7 -14 -4 -1 10 9)
1969/12/31/18:00:12.847000,(6 4 -3 1 -1 -5 2 11)
1969/12/31/18:00:12.848000,(-8 -8 -11 -6 -6 -6 1 -2)
1969/12/31/18:00:12.848000,(-2 -5 -5 -8 -5 -5 -4 -2)
1969/12/31/18:00:12.868000,(-3 -2 -4 0 1 -5 -3 -2)
1969/12/31/18:00:12.868000,(-1 -3 0 -3 -3 -8 -10 -2)
1969/12/31/18:00:12.869000,(4 6 2 -2 0 -3 -1 2)
1969/12/31/18:00:12.869000,(-1 -4 -2 4 1 6 11 7)
1969/12/31/18:00:12.890000,(5 6 11 2 -1 2 2 2)
1969/12/31/18:00:12.890000,(-6 -4 2 -3 -4 6 1 -3)
1969/12/31/18:00:12.891000,(-4 -2 4 -1 -4 0 -18 -27)
1969/12/31/18:00:12.891000,(3 -1 4 6 1 4 -4 1)
1969/12/31/18:00:12.905000,(2 1 6 2 0 1 -4 -4)
1969/12/31/18:00:12.905000,(-1 -2 -1 -4 -2 1 -3 -2)
1969/12/31/18:00:12.906000,(-1 -2 -4 0 0 3 5 5)
1969/12/31/18:00:12.906000,(-2 -5 0 3 1 1 -3 -6)
1969/12/31/18:00:12.928000,(1 4 0 -2 -1 -1 -4 -3)
1969/12/31/18:00:12.928000,(2 -4 -4 -4 -2 -2 -1 1)
1969/12/31/18:00:12.929000,(-3 -3 -11 -4 0 -4 0 0)
1969/12/31/18:00:12.929000,(-1 1 8 5 1 -5 4 3)
1969/12/31/18:00:12.958000,(-2 -4 -4 -4 -1 -5 0 4)
1969/12/31/18:00:12.959000,(7 -11 -27 -9 -3 -3 3 7)
1969/12/31/18:00:12.959000,(-2 37 47 12 5 1 8 4)
1969/12/31/18:00:12.959000,(-4 -4 -8 -1 2 0 -8 -1)
1969/12/31/18:00:12.965000,(-3 -6 -4 -2 -2 0 1 1)
1969/12/31/18:00:12.965000,(0 -1 2 1 0 1 4 4)
1969/12/31/18:00:12.966000,(3 -6 -13 -4 -4 -1 2 -3)
1969/12/31/18:00:12.966000,(-5 -15 -11 -2 2 -2 -9 -4)
1969/12/31/18:00:12.988000,(-2 10 7 1 -1 -2 0 -8)
1969/12/31/18:00:12.988000,(-7 -12 -11 -5 -1 -2 -4 2)
1969/12/31/18:00:12.989000,(7 -7 -9 2 5 -1 -9 -9)
1969/12/31/18:00:12.989000,(4 8 -1 -3 -5 -4 7 17)
1969/12/31/18:00:13.010000,(-4 -14 -16 -6 -3 -1 -1 -4)
1969/12/31/18:00:13.010000,(10 12 12 7 2 5 6 -2)
1969/12/31/18:00:13.011000,(-14 -18 -11 -4 -4 -7 -8 -7)
1969/12/31/18:00:13.011000,(-3 24 17 5 4 -1 2 -5)
1969/12/31/18:00:13.024000,(3 3 0 -4 -1 -1 6 5)
1969/12/31/18:00:13.024000,(4 -1 2 -3 -2 -3 12 20)
1969/12/31/18:00:13.033000,(-18 -17 -10 -3 -3 -1 -3 1)
1969/12/31/18:00:13.033000,(5 -3 -6 -1 -3 3 -8 -11)
1969/12/31/18:00:13.048000,(-5 -1 -3 -2 -2 -4 -11 4)
1969/12/31/18:00:13.048000,(-13 -2 0 1 -2 -2 4 5)
1969/12/31/18:00:13.049000,(10 3 -3 0 3 3 12 18)
1969/12/31/18:00:13.049000,(-2 2 -1 -3 -3 -1 -7 -15)
1969/12/31/18:00:13.070000,(-14 1 11 3 2 8 -5 -23)
1969/12/31/18:00:13.070000,(17 0 1 -2 -1 -12 -21 -4)
1969/12/31/18:00:13.071000,(-18 -11 -9 -3 1 -5 -11 -14)
1969/12/31/18:00:13.071000,(-18 1 -9 -2 6 -12 13 7)
1969/12/31/18:00:13.084000,(41 20 -1 6 15 35 1 -13)
1969/12/31/18:00:13.084000,(-7 0 -1 -3 -14 -44 -3 21)
1969/12/31/18:00:13.093000,(-10 -16 6 -7 -18 9 -8 -13)
1969/12/31/18:00:13.093000,(22 7 19 6 -3 6 -41 -31)
1969/12/31/18:00:13.109000,(-1 -2 18 6 -5 11 2 -15)
1969/12/31/18:00:13.109000,(-11 0 7 1 0 20 -6 -26)
1969/12/31/18:00:13.110000,(27 16 11 6 3 10 7 14)
1969/12/31/18:00:13.110000,(-6 -14 -1 0 -1 -2 4 4)
1969/12/31/18:00:13.130000,(-8 -8 -13 -9 -9 -14 -4 13)
1969/12/31/18:00:13.130000,(23 7 8 6 8 11 9 2)
1969/12/31/18:00:13.131000,(-4 -1 2 4 8 -3 2 13)
1969/12/31/18:00:13.131000,(25 6 -13 -10 1 17 5 -3)
1969/12/31/18:00:13.144000,(-89 -51 -17 -10 -10 -28 -6 -20)
1969/12/31/18:00:13.144000,(20 8 -6 -5 -2 0 3 14)
1969/12/31/18:00:13.153000,(9 3 -5 1 2 1 -2 11)
1969/12/31/18:00:13.153000,(15 9 2 0 1 -7 17 39)
1969/12/31/18:00:13.168000,(29 11 5 5 -2 -2 -6 -15)
1969/12/31/18:00:13.168000,(-18 -10 -5 -3 -1 -1 -3 -10)
1969/12/31/18:00:13.169000,(-17 -2 -6 -3 -4 4 11 -20)
1969/12/31/18:00:13.169000,(-4 -8 -2 2 -2 -7 1 12)
1969/12/31/18:00:13.190000,(48 22 6 10 3 -1 17 73)
1969/12/31/18:00:13.190000,(-73 -22 -5 4 0 -7 -20 -58)
1969/12/31/18:00:13.191000,(28 21 5 7 6 1 -15 -5)
1969/12/31/18:00:13.191000,(9 4 -7 -9 -8 -16 15 21)
1969/12/31/18:00:13.205000,(-24 -18 -3 -6 2 29 15 -18)
1969/12/31/18:00:13.205000,(26 4 -3 -5 -2 12 8 11)
1969/12/31/18:00:13.213000,(-13 -8 -5 -7 -1 10 23 19)
1969/12/31/18:00:13.213000,(-13 4 4 2 9 24 -9 -3)
1969/12/31/18:00:13.228000,(28 15 5 1 -4 -43 41 65)
1969/12/31/18:00:13.228000,(-18 -5 2 -5 1 11 8 -4)
1969/12/31/18:00:13.228000,(-9 -7 -12 -13 -8 -4 -48 -67)
1969/12/31/18:00:13.228000,(-29 -11 1 0 -5 -23 7 -27)
1969/12/31/18:00:13.250000,(12 14 2 -2 -2 -15 -20 -7)
1969/12/31/18:00:13.250000,(-14 -17 -3 -2 0 14 11 3)
1969/12/31/18:00:13.251000,(8 -4 8 8 0 -11 3 12)
1969/12/31/18:00:13.251000,(-1 -1 -6 -5 -7 -10 -16 -18)
1969/12/31/18:00:13.264000,(-4 9 2 1 8 22 -9 -57)
1969/12/31/18:00:13.265000,(-12 -20 -13 -11 -13 -39 -11 -33)
1969/12/31/18:00:13.273000,(3 11 9 6 17 60 22 34)
1969/12/31/18:00:13.273000,(5 4 1 2 -6 -11 -9 -8)
1969/12/31/18:00:13.296000,(9 -7 -7 -8 1 38 15 9)
1969/12/31/18:00:13.296000,(42 24 12 15 11 3 -32 27)
1969/12/31/18:00:13.297000,(-17 -10 -7 -6 -11 -46 -8 -23)
1969/12/31/18:00:13.297000,(-30 -11 1 3 0 -10 7 21)
1969/12/31/18:00:13.310000,(-9 -2 -3 -5 -10 -3 -28 -68)
1969/12/31/18:00:13.310000,(71 33 11 4 0 -13 29 70)
1969/12/31/18:00:13.311000,(-39 -43 -23 -9 -8 11 -2 -10)
1969/12/31/18:00:13.311000,(-13 -14 -3 -4 -2 21 -4 0)
1969/12/31/18:00:13.324000,(20 12 1 2 -2 -31 -36 37)
1969/12/31/18:00:13.325000,(-7 -7 -5 -3 -4 5 10 -2)
1969/12/31/18:00:13.333000,(0 14 8 8 4 10 27 23)
1969/12/31/18:00:13.333000,(-27 -24 -13 -9 -9 -33 -33 -47)
1969/12/31/18:00:13.348000,(10 6 6 6 9 10 11 35)
1969/12/31/18:00:13.348000,(-4 1 3 -2 -4 14 -12 -21)
1969/12/31/18:00:13.348000,(18 25 14 12 15 -20 -5 39)
1969/12/31/18:00:13.348000,(-7 -11 -8 -3 -3 32 31 -9)
1969/12/31/18:00:13.370000,(-34 -16 -8 -9 -10 -50 17 12)
1969/12/31/18:00:13.370000,(23 8 4 5 10 40 -29 4)
1969/12/31/18:00:13.371000,(-13 -6 -1 -2 -8 -37 -12 -25)
1969/12/31/18:00:13.371000,(33 19 9 8 8 32 26 6)
1969/12/31/18:00:13.393000,(-3 -2 -6 -5 -5 -11 -30 -20)
1969/12/31/18:00:13.393000,(-7 2 1 1 4 -7 5 9)
1969/12/31/18:00:13.400000,(16 -3 0 -2 2 -1 18 42)
1969/12/31/18:00:13.400000,(37 9 -3 -3 -4 -18 -1 39)
1969/12/31/18:00:13.408000,(31 13 5 2 -2 -7 10 20)
1969/12/31/18:00:13.408000,(-43 -16 -5 -2 -2 7 -16 -33)
1969/12/31/18:00:13.408000,(40 20 11 8 -1 -36 17 69)
1969/12/31/18:00:13.408000,(-37 -11 -8 -6 2 54 29 -42)
1969/12/31/18:00:13.430000,(-11 -7 3 7 9 26 10 35)
1969/12/31/18:00:13.430000,(3 8 0 -2 3 -14 -5 -15)
1969/12/31/18:00:13.431000,(-19 -4 -4 -6 -22 -16 5 -61)
1969/12/31/18:00:13.431000,(1 -6 -6 -7 -13 -29 -32 -3)
1969/12/31/18:00:13.453000,(-15 -7 4 1 0 18 25 5)
1969/12/31/18:00:13.453000,(-39 -24 -7 -7 -4 10 -12 -37)
1969/12/31/18:00:13.454000,(4 5 3 0 6 -66 -21 -6)
1969/12/31/18:00:13.454000,(14 6 2 -1 -7 6 -2 10)
1969/12/31/18:00:13.468000,(-24 -2 -3 -2 -10 -36 -15 -35)
1969/12/31/18:00:13.468000,(46 6 -4 0 -4 -30 16 54)
1969/12/31/18:00:13.468000,(-23 -10 -15 -27 -5 34 -20 -32)
1969/12/31/18:00:13.469000,(0 3 2 -2 -1 21 7 -3)
1969/12/31/18:00:13.490000,(9 9 6 24 -6 -91 14 -38)
1969/12/31/18:00:13.490000,(4 4 5 14 34 28 9 4)
1969/12/31/18:00:13.491000,(-11 -12 -3 9 2 65 -14 -20)
1969/12/31/18:00:13.491000,(26 7 -5 -15 6 4 -15 3)
1969/12/31/18:00:13.513000,(-61 -29 -16 -18 -21 -17 -16 -56)
1969/12/31/18:00:13.514000,(10 2 12 24 25 38 73 43)
1969/12/31/18:00:13.514000,(-21 1 -3 -16 -36 -41 -57 -66)
1969/12/31/18:00:13.514000,(-13 2 8 15 8 -4 27 3)
1969/12/31/18:00:13.528000,(42 25 11 8 17 61 -22 16)
1969/12/31/18:00:13.528000,(-21 -21 -11 -16 -22 -46 -3 0)
1969/12/31/18:00:13.528000,(16 8 -8 -17 -9 1 25 0)
1969/12/31/18:00:13.528000,(1 -5 -10 -13 -11 19 -19 1)
1969/12/31/18:00:13.550000,(-17 -4 10 26 33 22 -18 -18)
1969/12/31/18:00:13.550000,(-32 -4 -5 -4 -9 32 25 -16)
1969/12/31/18:00:13.551000,(24 6 3 12 13 25 15 25)
1969/12/31/18:00:13.551000,(7 5 0 -15 -5 33 -3 5)
1969/12/31/18:00:13.575000,(22 13 3 2 -11 -53 2 18)
1969/12/31/18:00:13.575000,(-4 -2 -3 -19 -24 -66 24 18)
1969/12/31/18:00:13.576000,(-7 -22 -7 26 39 79 -49 -33)
1969/12/31/18:00:13.576000,(-21 0 5 12 4 -23 8 -7)
1969/12/31/18:00:13.588000,(3 -4 -4 -15 -23 -17 7 23)
1969/12/31/18:00:13.588000,(-7 -13 -7 -14 -4 11 -37 -42)
1969/12/31/18:00:13.588000,(-12 -4 -6 -3 13 11 11 13)
1969/12/31/18:00:13.588000,(11 2 4 3 -13 -63 3 -8)
1969/12/31/18:00:13.610000,(-3 -4 -12 -44 -30 36 -57 -25)
1969/12/31/18:00:13.610000,(0 10 4 21 13 7 7 -17)
1969/12/31/18:00:13.611000,(8 2 6 20 20 10 40 37)
1969/12/31/18:00:13.611000,(-6 -8 4 20 38 12 -12 -7)
1969/12/31/18:00:13.633000,(-5 -9 -6 2 16 20 10 13)
1969/12/31/18:00:13.633000,(-5 6 -3 -17 -25 5 20 -9)
1969/12/31/18:00:13.640000,(-2 0 0 -5 -24 -29 -24 2)
1969/12/31/18:00:13.640000,(-7 -2 -5 -7 -5 -21 -1 17)
1969/12/31/18:00:13.648000,(-1 -11 -10 -6 -11 4 19 -7)
1969/12/31/18:00:13.648000,(-5 7 6 9 5 -37 -42 -22)
1969/12/31/18:00:13.648000,(11 9 9 12 21 -39 12 15)
1969/12/31/18:00:13.648000,(-7 -7 -6 -14 -37 20 13 4)
1969/12/31/18:00:13.672000,(-8 -11 -10 -14 -6 13 19 1)
1969/12/31/18:00:13.672000,(2 5 5 12 54 93 10 14)
1969/12/31/18:00:13.672000,(-21 -18 -2 8 19 18 -8 -45)
1969/12/31/18:00:13.672000,(13 1 -5 -18 -80 -86 -21 -1)
1969/12/31/18:00:13.693000,(-12 -10 -6 -4 -13 -39 -50 -11)
1969/12/31/18:00:13.693000,(10 5 5 19 8 -13 2 31)
1969/12/31/18:00:13.694000,(9 7 -1 -11 41 60 32 23)
1969/12/31/18:00:13.694000,(-1 1 4 25 60 37 7 12)
1969/12/31/18:00:13.708000,(-1 -1 -2 -7 -76 -54 -3 -7)
1969/12/31/18:00:13.708000,(13 2 -7 -22 -45 -41 -18 7)
1969/12/31/18:00:13.708000,(6 0 -3 -9 -8 27 38 19)
1969/12/31/18:00:13.708000,(-12 -7 -3 -9 -31 -61 -37 -22)
1969/12/31/18:00:13.730000,(4 8 14 29 77 50 11 4)
1969/12/31/18:00:13.730000,(1 5 -13 -12 -29 -30 -25 -28)
1969/12/31/18:00:13.731000,(5 -13 -8 -27 -54 -19 16 41)
1969/12/31/18:00:13.731000,(3 21 18 18 24 39 9 5)
1969/12/31/18:00:13.753000,(8 -21 -19 -11 5 1 5 -13)
1969/12/31/18:00:13.753000,(17 33 62 41 50 46 13 30)
1969/12/31/18:00:13.754000,(-12 -48 -67 -15 -10 -18 -19 -54)
1969/12/31/18:00:13.754000,(-15 11 27 1 0 5 12 8)
1969/12/31/18:00:13.776000,(45 49 28 22 11 10 -21 30)
1969/12/31/18:00:13.776000,(-11 -48 -40 -32 -13 -18 -32 -67)
1969/12/31/18:00:13.777000,(-8 27 69 35 8 -1 14 31)
1969/12/31/18:00:13.777000,(16 -2 0 17 51 28 17 32)
1969/12/31/18:00:13.790000,(4 -36 -30 -8 -4 25 23 7)
1969/12/31/18:00:13.790000,(-29 -1 -47 -24 -29 -43 -18 -36)
1969/12/31/18:00:13.791000,(-41 -18 0 -13 -4 -29 -32 -33)
1969/12/31/18:00:13.791000,(-17 17 36 16 -28 -33 -17 -32)
1969/12/31/18:00:13.813000,(0 21 23 -3 5 38 28 18)
1969/12/31/18:00:13.813000,(-4 -16 -1 5 15 -4 -20 11)
1969/12/31/18:00:13.814000,(27 -40 -73 -18 -24 -4 28 14)
1969/12/31/18:00:13.814000,(11 62 72 25 40 28 8 -22)
1969/12/31/18:00:13.828000,(-3 -83 -77 -25 -15 -7 6 24)
1969/12/31/18:00:13.828000,(-52 34 41 4 0 4 9 -67)
1969/12/31/18:00:13.828000,(14 45 20 4 9 -4 -32 0)
1969/12/31/18:00:13.828000,(-6 23 53 17 3 11 3 29)
1969/12/31/18:00:13.850000,(25 28 -15 -8 9 6 -19 -19)
1969/12/31/18:00:13.850000,(44 -70 -67 -16 44 37 36 61)
1969/12/31/18:00:13.858000,(15 -16 -22 0 -46 -60 -4 63)
1969/12/31/18:00:13.858000,(32 -52 -62 -1 19 24 5 14)
1969/12/31/18:00:13.881000,(-74 92 113 -2 -86 -50 -27 -43)
1969/12/31/18:00:13.881000,(5 -33 -38 -18 -22 -15 -7 -32)
1969/12/31/18:00:13.882000,(32 30 29 -1 -1 21 14 27)
1969/12/31/18:00:13.882000,(17 63 49 45 55 11 -13 -9)
1969/12/31/18:00:13.888000,(109 -57 -55 18 53 46 33 90)
1969/12/31/18:00:13.888000,(7 -3 -9 -7 17 14 -1 47)
1969/12/31/18:00:13.888000,(-31 5 28 37 66 43 -9 -7)
1969/12/31/18:00:13.888000,(-52 -66 -39 -58 -116 -103 -54 -84)
1969/12/31/18:00:13.911000,(33 23 -35 -32 32 17 -1 19)
1969/12/31/18:00:13.911000,(-27 57 67 25 1 -11 25 -9)
1969/12/31/18:00:13.912000,(-7 1 2 5 42 30 -16 0)
1969/12/31/18:00:13.912000,(-18 -30 -45 -9 -1 9 -5 -56)
1969/12/31/18:00:13.933000,(-29 -112 -90 -23 -21 -10 16 45)
1969/12/31/18:00:13.933000,(7 81 35 -3 -3 10 -27 -70)
1969/12/31/18:00:13.934000,(0 72 51 34 -6 -1 36 23)
1969/12/31/18:00:13.934000,(6 -8 -15 21 90 52 -2 15)
1969/12/31/18:00:13.947000,(-9 -29 -7 -4 -51 1 5 -30)
1969/12/31/18:00:13.947000,(31 -101 -61 -6 -1 6 31 54)
1969/12/31/18:00:13.955000,(-19 -28 -11 -13 -34 -82 -50 -66)
1969/12/31/18:00:13.955000,(56 -64 -128 -94 -93 -32 9 55)
1969/12/31/18:00:13.971000,(-95 116 110 61 34 22 14 -79)
1969/12/31/18:00:13.971000,(56 10 -4 25 54 46 -1 51)
1969/12/31/18:00:13.971000,(-12 5 -18 -30 -73 -35 -3 -40)
1969/12/31/18:00:13.971000,(-28 -21 -17 1 14 -3 3 -21)
1969/12/31/18:00:13.994000,(67 -43 -28 -7 37 16 4 9)
1969/12/31/18:00:13.994000,(-23 -17 -23 19 11 12 20 41)
1969/12/31/18:00:13.994000,(-2 40 29 -25 -22 20 7 -24)
1969/12/31/18:00:13.994000,(-13 -56 -49 -26 -3 -13 4 20)
1969/12/31/18:00:14.007000,(-28 41 41 14 -31 -44 -16 -5)
1969/12/31/18:00:14.007000,(2 -2 -7 -8 -22 -33 -43 -30)
1969/12/31/18:00:14.015000,(35 13 29 35 51 43 2 16)
1969/12/31/18:00:14.015000,(6 17 -22 -30 -92 -67 4 -6)
1969/12/31/18:00:14.031000,(-67 -30 32 4 31 16 -7 21)
1969/12/31/18:00:14.031000,(-21 25 -8 -6 2 -20 -8 -34)
1969/12/31/18:00:14.032000,(-17 -17 -37 -17 -13 17 5 3)
1969/12/31/18:00:14.032000,(19 91 108 43 20 52 16 -12)
1969/12/31/18:00:14.055000,(0 -82 -58 -10 16 -36 1 -8)
1969/12/31/18:00:14.055000,(-11 -111 -105 -56 -53 -28 -40 -12)
1969/12/31/18:00:14.056000,(-19 60 58 24 41 17 10 0)
1969/12/31/18:00:14.056000,(-27 28 30 19 0 -8 -7 -6)
1969/12/31/18:00:14.067000,(18 2 -51 -22 -26 -15 -21 -3)
1969/12/31/18:00:14.067000,(-56 91 127 72 64 38 31 -28)
1969/12/31/18:00:14.076000,(54 -100 -94 -24 -30 -14 -19 21)
1969/12/31/18:00:14.076000,(26 -73 -89 -31 49 23 -7 36)
1969/12/31/18:00:14.090000,(-59 61 56 9 -18 17 7 -45)
1969/12/31/18:00:14.090000,(26 60 40 12 -49 -38 -15 -7)
1969/12/31/18:00:14.099000,(41 -56 -69 -15 69 58 50 63)
1969/12/31/18:00:14.099000,(-48 11 72 22 -47 -61 -38 -22)
1969/12/31/18:00:14.113000,(21 42 19 2 -4 -5 5 -14)
1969/12/31/18:00:14.113000,(8 -92 -60 -12 17 32 10 55)
1969/12/31/18:00:14.115000,(32 53 40 5 -14 -33 10 1)
1969/12/31/18:00:14.115000,(52 -71 -92 -31 4 35 -1 26)
1969/12/31/18:00:14.127000,(-12 -49 -30 8 48 17 6 -1)
1969/12/31/18:00:14.127000,(18 117 92 27 -24 -2 11 41)
1969/12/31/18:00:14.136000,(-10 30 18 3 -7 -13 -19 -42)
1969/12/31/18:00:14.136000,(-37 -48 -21 -8 0 1 27 -1)
1969/12/31/18:00:14.149000,(11 1 7 -20 -39 -9 -32 4)
1969/12/31/18:00:14.149000,(4 -34 -26 20 86 28 8 -11)
1969/12/31/18:00:14.159000,(-4 -24 -29 -28 -113 -113 -46 -10)
1969/12/31/18:00:14.159000,(-10 0 -20 -34 -37 -15 -18 8)
1969/12/31/18:00:14.173000,(10 5 21 12 14 9 44 17)
1969/12/31/18:00:14.173000,(-3 69 47 1 2 14 -10 -25)
1969/12/31/18:00:14.175000,(2 34 22 7 30 48 33 28)
1969/12/31/18:00:14.175000,(-43 -40 -9 20 37 8 -8 -42)
1969/12/31/18:00:14.187000,(43 91 71 35 4 -19 -13 1)
1969/12/31/18:00:14.187000,(-44 -99 -72 -40 -50 -9 13 -5)
1969/12/31/18:00:14.196000,(47 -55 -28 -4 5 4 -4 -11)
1969/12/31/18:00:14.196000,(28 99 21 9 27 21 24 0)
1969/12/31/18:00:14.219000,(-23 -2 -1 4 15 33 9 -26)
1969/12/31/18:00:14.219000,(-39 -11 29 11 -5 -12 -69 -40)
1969/12/31/18:00:14.220000,(-15 -128 -107 -5 107 74 31 -4)
1969/12/31/18:00:14.220000,(-28 27 -2 -30 -82 -72 -57 -56)
1969/12/31/18:00:14.234000,(-42 50 30 0 -4 12 -21 -29)
1969/12/31/18:00:14.234000,(33 -1 -37 -4 33 18 33 42)
1969/12/31/18:00:14.235000,(35 -103 -90 -23 59 21 -24 23)
1969/12/31/18:00:14.235000,(-13 99 101 62 -7 25 11 -25)
1969/12/31/18:00:14.247000,(9 -12 -42 -26 -59 -66 -23 -25)
1969/12/31/18:00:14.247000,(11 -5 26 1 -6 21 23 -2)
1969/12/31/18:00:14.256000,(-26 -53 -15 15 17 -27 2 -5)
1969/12/31/18:00:14.256000,(19 -42 -29 -22 -19 -33 -16 48)
1969/12/31/18:00:14.270000,(-13 -59 -49 -21 20 17 11 1)
1969/12/31/18:00:14.270000,(-23 -15 -19 -14 -21 -14 19 -17)
1969/12/31/18:00:14.277000,(-20 113 80 15 13 31 -8 -3)
1969/12/31/18:00:14.277000,(-10 17 38 27 34 16 -2 13)
1969/12/31/18:00:14.293000,(-21 -55 -24 -27 -41 -13 13 -22)
1969/12/31/18:00:14.294000,(43 40 -8 3 15 10 -25 52)
1969/12/31/18:00:14.295000,(-17 17 28 7 25 11 -20 -22)
1969/12/31/18:00:14.295000,(-10 -33 -14 -22 -82 -47 29 49)
1969/12/31/18:00:14.316000,(20 -51 -66 -4 80 94 49 33)
1969/12/31/18:00:14.316000,(-3 -55 -22 4 -35 -53 -7 0)
1969/12/31/18:00:14.318000,(-7 69 19 -26 -95 -82 -26 -2)
1969/12/31/18:00:14.318000,(2 78 84 60 115 105 24 -30)
1969/12/31/18:00:14.330000,(24 -68 -69 -41 -44 -44 -17 14)
1969/12/31/18:00:14.330000,(-27 -12 -13 -19 -25 -11 16 14)
1969/12/31/18:00:14.337000,(-42 63 65 51 73 74 20 -21)
1969/12/31/18:00:14.337000,(44 -38 -84 -33 -75 -76 -16 0)
1969/12/31/18:00:14.353000,(-20 51 84 36 27 12 19 24)
1969/12/31/18:00:14.353000,(-9 -33 -45 -48 -31 -8 -29 -86)
1969/12/31/18:00:14.355000,(26 -51 -37 -20 -39 -35 10 36)
1969/12/31/18:00:14.355000,(3 -31 -29 0 77 68 33 47)
1969/12/31/18:00:14.376000,(13 2 -44 10 18 -12 -18 -9)
1969/12/31/18:00:14.376000,(14 37 73 12 -54 -14 -19 8)
1969/12/31/18:00:14.377000,(-8 58 53 22 64 56 39 28)
1969/12/31/18:00:14.377000,(50 32 4 16 -50 -43 15 38)
1969/12/31/18:00:14.390000,(-39 49 82 7 -53 -63 -42 -23)
1969/12/31/18:00:14.390000,(7 -37 -38 3 40 14 61 69)
1969/12/31/18:00:14.397000,(49 20 -27 -13 -2 3 -70 -37)
1969/12/31/18:00:14.397000,(-49 -128 -44 -20 -12 4 50 14)
1969/12/31/18:00:14.413000,(-26 43 15 -12 -20 -1 -41 -44)
1969/12/31/18:00:14.413000,(51 66 4 2 -6 5 18 30)
1969/12/31/18:00:14.415000,(-18 -77 -22 -13 -45 -40 11 4)
1969/12/31/18:00:14.415000,(-14 9 1 13 66 30 -9 -6)
1969/12/31/18:00:14.436000,(16 -7 -4 21 71 76 33 66)
1969/12/31/18:00:14.436000,(-40 -2 25 -1 -54 -45 -29 -58)
1969/12/31/18:00:14.438000,(26 19 -10 -8 -23 -21 -5 -40)
1969/12/31/18:00:14.438000,(-11 -25 -2 -8 -4 -2 -28 -22)
1969/12/31/18:00:14.450000,(4 -38 -22 5 44 67 13 5)
1969/12/31/18:00:14.450000,(-1 89 50 14 11 -4 16 -7)
1969/12/31/18:00:14.457000,(-49 -38 -24 -22 -80 -69 -22 16)
1969/12/31/18:00:14.457000,(31 16 -2 4 71 45 -17 -26)
1969/12/31/18:00:14.474000,(54 0 1 29 46 12 54 65)
1969/12/31/18:00:14.474000,(-8 -38 11 -4 -59 -72 -77 -8)
1969/12/31/18:00:14.475000,(-77 -13 -17 -56 -87 -52 -21 -59)
1969/12/31/18:00:14.475000,(34 43 1 -3 36 30 29 -6)
1969/12/31/18:00:14.496000,(-16 -22 -28 6 33 14 -21 10)
1969/12/31/18:00:14.496000,(-4 17 13 16 24 47 42 19)
1969/12/31/18:00:14.497000,(0 25 32 23 -2 -11 -7 -17)
1969/12/31/18:00:14.497000,(-1 -24 -16 -19 -40 -26 -27 -9)
1969/12/31/18:00:14.510000,(-8 -88 -73 -26 7 -16 -5 -8)
1969/12/31/18:00:14.510000,(-5 9 14 12 3 2 1 -14)
1969/12/31/18:00:14.517000,(29 101 50 17 14 53 55 88)
1969/12/31/18:00:14.517000,(-19 25 33 36 81 47 -6 -28)
1969/12/31/18:00:14.534000,(-12 -49 -22 -36 -118 -83 -6 -33)
1969/12/31/18:00:14.534000,(10 -12 -45 -8 39 23 -7 11)
1969/12/31/18:00:14.535000,(-2 -57 -49 -15 -3 -3 -19 -54)
1969/12/31/18:00:14.535000,(-8 90 96 57 8 6 22 70)
1969/12/31/18:00:14.556000,(11 11 -28 9 23 -13 -29 -14)
1969/12/31/18:00:14.556000,(-23 31 36 -23 -57 -59 -50 -50)
1969/12/31/18:00:14.557000,(1 -49 -36 -3 29 19 10 0)
1969/12/31/18:00:14.557000,(-41 -87 -64 -36 -46 -27 23 -1)
1969/12/31/18:00:14.571000,(35 77 26 22 50 30 -38 -28)
1969/12/31/18:00:14.571000,(-63 -51 20 16 0 -3 1 -8)
1969/12/31/18:00:14.577000,(64 83 15 8 0 -3 4 0)
1969/12/31/18:00:14.577000,(-27 -49 -3 2 0 -4 -19 11)
1969/12/31/18:00:14.593000,(16 17 -3 -4 17 19 20 -17)
1969/12/31/18:00:14.594000,(-8 -25 -31 -8 1 -6 -15 -12)
1969/12/31/18:00:14.595000,(9 9 17 1 -12 0 13 37)
1969/12/31/18:00:14.595000,(50 11 -36 -12 -5 -11 2 29)
1969/12/31/18:00:14.616000,(-27 -24 24 17 49 50 29 16)
1969/12/31/18:00:14.616000,(4 -23 -37 -23 -50 -39 -31 -25)
1969/12/31/18:00:14.617000,(-57 -8 18 0 -33 -22 16 -13)
1969/12/31/18:00:14.617000,(58 58 9 -2 12 -3 -49 -39)
1969/12/31/18:00:14.630000,(-6 11 14 1 -4 2 2 16)
1969/12/31/18:00:14.630000,(-23 -4 -7 9 76 48 -1 -15)
1969/12/31/18:00:14.638000,(5 -82 -63 -20 -52 -35 -2 1)
1969/12/31/18:00:14.638000,(-10 12 -13 -22 -15 0 9 3)
1969/12/31/18:00:14.653000,(-11 -32 -33 -34 -42 -30 -14 -13)
1969/12/31/18:00:14.653000,(9 12 44 35 40 24 34 15)
1969/12/31/18:00:14.655000,(-1 41 37 15 8 -9 -48 -12)
1969/12/31/18:00:14.655000,(-6 -31 -22 -27 -34 -2 6 6)
1969/12/31/18:00:14.676000,(13 -23 -25 -7 -29 -31 -1 -19)
1969/12/31/18:00:14.676000,(14 27 20 -13 20 41 46 34)
1969/12/31/18:00:14.677000,(30 15 8 17 29 -1 -9 11)
1969/12/31/18:00:14.677000,(31 19 12 -1 -64 -42 -15 5)
1969/12/31/18:00:14.690000,(-49 -49 -11 15 74 42 -3 -6)
1969/12/31/18:00:14.690000,(16 -19 -63 -28 -62 -61 -5 -12)
1969/12/31/18:00:14.699000,(15 -28 -26 -21 -20 9 -12 9)
1969/12/31/18:00:14.699000,(-17 24 67 11 8 2 -6 -1)
1969/12/31/18:00:14.714000,(43 23 -17 -16 -44 -33 6 33)
1969/12/31/18:00:14.714000,(33 45 44 40 67 50 17 36)
1969/12/31/18:00:14.715000,(-24 -18 -1 -28 24 26 15 -1)
1969/12/31/18:00:14.715000,(-16 -31 -25 39 19 -1 15 10)
1969/12/31/18:00:14.736000,(-7 29 16 8 -3 -2 -16 -30)
1969/12/31/18:00:14.736000,(4 -39 -43 -8 5 4 -3 -12)
1969/12/31/18:00:14.737000,(-36 -4 19 6 -3 -5 -1 -13)
1969/12/31/18:00:14.737000,(15 18 5 -7 10 8 2 -21)
1969/12/31/18:00:14.750000,(-27 39 52 23 5 12 5 8)
1969/12/31/18:00:14.750000,(-3 -30 -32 -18 -16 6 20 35)
1969/12/31/18:00:14.759000,(-25 -17 -6 -7 -27 -37 -29 -25)
1969/12/31/18:00:14.759000,(76 25 -12 -1 29 15 6 16)
1969/12/31/18:00:14.774000,(-13 -2 15 -6 -28 -16 -4 3)
1969/12/31/18:00:14.774000,(20 -9 -31 -37 -30 -4 3 11)
1969/12/31/18:00:14.775000,(-29 -1 10 16 46 49 -11 -42)
1969/12/31/18:00:14.775000,(-32 2 14 42 35 -27 -11 -7)
1969/12/31/18:00:14.796000,(48 23 5 -25 -53 -24 -5 5)
1969/12/31/18:00:14.796000,(-68 -41 -17 49 43 8 -7 -30)
1969/12/31/18:00:14.797000,(15 16 14 10 9 12 13 8)
1969/12/31/18:00:14.797000,(1 -2 -13 -17 -6 5 -11 -17)
1969/12/31/18:00:14.810000,(7 -23 2 -10 -16 -11 6 29)
1969/12/31/18:00:14.810000,(-18 6 -3 -17 -4 6 -6 -13)
1969/12/31/18:00:14.819000,(13 1 5 8 0 -6 32 21)
1969/12/31/18:00:14.819000,(-20 -10 -10 -14 -1 6 4 -21)
1969/12/31/18:00:14.834000,(47 20 2 -6 -11 -24 7 71)
1969/12/31/18:00:14.834000,(47 11 5 -2 -2 38 29 22)
1969/12/31/18:00:14.835000,(-58 -36 -21 -7 -4 -33 -25 4)
1969/12/31/18:00:14.835000,(11 1 2 -7 6 41 38 22)
1969/12/31/18:00:14.856000,(45 43 24 15 7 -16 -20 15)
1969/12/31/18:00:14.856000,(-83 -41 -20 -17 -13 -43 10 -55)
1969/12/31/18:00:14.857000,(18 0 -9 -23 -4 32 -15 -39)
1969/12/31/18:00:14.858000,(-25 -13 4 45 32 -8 0 -2)
1969/12/31/18:00:14.870000,(5 14 7 0 0 12 -7 -19)
1969/12/31/18:00:14.870000,(70 39 10 -4 -19 21 13 60)
1969/12/31/18:00:14.879000,(-22 -23 -7 9 7 -29 -6 -22)
1969/12/31/18:00:14.879000,(-108 -54 -15 -11 0 13 -17 -27)
1969/12/31/18:00:14.893000,(-11 -2 -4 -6 2 6 -2 -53)
1969/12/31/18:00:14.894000,(23 8 -1 1 -8 -24 -14 16)
1969/12/31/18:00:14.895000,(56 30 18 13 6 -3 23 37)
1969/12/31/18:00:14.895000,(29 14 -1 -12 -10 -1 9 22)
1969/12/31/18:00:14.916000,(-35 -12 -9 1 -2 -9 1 -14)
1969/12/31/18:00:14.916000,(18 18 1 -9 -2 -3 4 47)
1969/12/31/18:00:14.917000,(-30 -1 2 7 3 7 -17 -35)
1969/12/31/18:00:14.917000,(-34 -37 -16 -17 -12 3 -3 -28)
1969/12/31/18:00:14.930000,(-40 -15 9 5 -4 -15 1 -10)
1969/12/31/18:00:14.930000,(30 43 11 6 13 14 -7 6)
1969/12/31/18:00:14.939000,(24 -4 -5 2 -3 11 15 37)
1969/12/31/18:00:14.939000,(80 31 10 -1 -2 -9 6 49)
1969/12/31/18:00:14.954000,(-90 -22 -16 -15 -18 -11 -26 -88)
1969/12/31/18:00:14.954000,(-38 -27 -6 2 7 3 -12 -19)
1969/12/31/18:00:14.955000,(0 7 9 10 5 6 14 11)
1969/12/31/18:00:14.955000,(48 30 -6 -19 -12 -9 -9 4)
1969/12/31/18:00:14.976000,(27 3 12 12 10 15 18 31)
1969/12/31/18:00:14.976000,(-32 -22 -6 -2 -1 -5 -13 -30)
1969/12/31/18:00:14.977000,(0 0 1 -3 -2 -5 5 0)
1969/12/31/18:00:14.977000,(8 -11 -15 -14 -6 2 -1 5)
1969/12/31/18:00:14.990000,(38 43 29 17 9 11 12 28)
1969/12/31/18:00:14.990000,(-24 -19 -12 -8 -3 -12 -17 -27)
1969/12/31/18:00:14.999000,(13 8 -2 -1 -1 5 4 13)
1969/12/31/18:00:14.999000,(10 12 7 2 0 4 2 -4)
1969/12/31/18:00:15.014000,(-14 -27 -16 -5 -6 -8 -4 -8)
1969/12/31/18:00:15.014000,(-1 -6 -2 -3 -3 -6 -6 -7)
1969/12/31/18:00:15.015000,(1 -4 4 7 5 6 3 12)
1969/12/31/18:00:15.015000,(4 3 -10 -10 -8 -3 -2 3)
1969/12/31/18:00:15.036000,(-15 -8 -6 -5 -7 -8 -4 -12)
1969/12/31/18:00:15.036000,(16 5 6 6 7 6 2 2)
1969/12/31/18:00:15.037000,(-14 -4 -4 -2 -1 3 -1 -6)
1969/12/31/18:00:15.037000,(-13 -5 1 -3 -4 -4 -6 -7)
1969/12/31/18:00:15.059000,(-7 -6 0 -2 1 2 7 5)
1969/12/31/18:00:15.059000,(11 3 -7 -3 1 -2 -8 -9)
1969/12/31/18:00:15.060000,(5 8 1 1 -1 -5 -7 6)
1969/12/31/18:00:15.060000,(-28 -17 -4 -5 -8 -10 -14 -26)
1969/12/31/18:00:15.073000,(32 13 5 4 2 5 11 33)
1969/12/31/18:00:15.074000,(0 3 -4 -2 -2 -2 -6 -31)
1969/12/31/18:00:15.075000,(-31 -20 -5 -2 -1 -1 -7 -35)
1969/12/31/18:00:15.075000,(8 6 7 1 3 3 0 13)
1969/12/31/18:00:15.103000,(-4 -6 -3 -6 -1 -1 4 9)
1969/12/31/18:00:15.104000,(21 11 4 1 1 1 6 19)
1969/12/31/18:00:15.105000,(0 2 3 0 -1 -2 -3 0)
1969/12/31/18:00:15.105000,(-21 -17 -11 -4 -2 -5 -5 -17)
1969/12/31/18:00:15.126000,(8 6 -8 -5 0 0 0 -9)
1969/12/31/18:00:15.126000,(6 5 14 5 0 4 2 14)
1969/12/31/18:00:15.128000,(17 9 -10 -8 -3 0 5 0)
1969/12/31/18:00:15.128000,(-19 2 22 7 5 3 3 -3)
1969/12/31/18:00:15.133000,(1 5 0 -2 -1 -1 0 -5)
1969/12/31/18:00:15.133000,(-9 -29 -32 -17 -7 -3 -20 -8)
1969/12/31/18:00:15.140000,(10 11 12 3 2 -3 5 14)
1969/12/31/18:00:15.140000,(-8 -12 -22 -9 -5 -8 -18 -15)
1969/12/31/18:00:15.156000,(-11 28 45 20 0 0 5 -10)
1969/12/31/18:00:15.156000,(7 -35 -44 -18 -9 -6 -4 3)
1969/12/31/18:00:15.157000,(1 43 53 24 6 3 11 -3)
1969/12/31/18:00:15.158000,(-8 -12 -19 -11 -4 4 -2 -4)
1969/12/31/18:00:15.170000,(-10 -19 -12 -2 -1 -1 -7 -14)
1969/12/31/18:00:15.170000,(1 -25 -21 -9 -4 -7 0 5)
1969/12/31/18:00:15.179000,(-2 0 -29 -16 -6 -6 -11 -1)
1969/12/31/18:00:15.179000,(-6 29 34 11 3 2 15 0)
1969/12/31/18:00:15.193000,(0 -32 -29 -8 0 -1 -4 2)
1969/12/31/18:00:15.193000,(-6 39 54 21 5 1 0 -12)
1969/12/31/18:00:15.200000,(5 -43 -52 -18 -4 1 4 10)
1969/12/31/18:00:15.200000,(-6 8 9 5 -2 -7 -16 -7)
1969/12/31/18:00:15.216000,(7 3 -13 -9 -2 3 -3 2)
1969/12/31/18:00:15.216000,(-1 1 -5 -3 -2 -2 7 2)
1969/12/31/18:00:15.218000,(-12 34 68 29 11 4 0 -5)
1969/12/31/18:00:15.218000,(5 -5 -13 -5 -4 -1 -8 -3)
1969/12/31/18:00:15.238000,(-1 -16 -13 -2 -3 -5 -3 -1)
1969/12/31/18:00:15.239000,(7 4 -8 -7 -3 -2 1 2)
1969/12/31/18:00:15.240000,(-2 2 2 6 2 2 -2 -3)
1969/12/31/18:00:15.240000,(3 29 36 15 5 2 9 8)
1969/12/31/18:00:15.253000,(3 -5 -15 -8 -4 -4 -11 -6)
1969/12/31/18:00:15.253000,(-6 -17 -12 -9 -1 1 7 4)
1969/12/31/18:00:15.259000,(-7 -11 8 9 7 9 21 7)
1969/12/31/18:00:15.260000,(2 -13 -21 -11 -5 -8 -28 -5)
1969/12/31/18:00:15.276000,(-3 2 7 3 1 1 -5 -4)
1969/12/31/18:00:15.276000,(-16 -12 1 -4 -5 1 7 -3)
1969/12/31/18:00:15.277000,(9 -22 -37 -23 -12 -6 -15 -2)
1969/12/31/18:00:15.277000,(-1 35 15 7 2 1 11 -4)
1969/12/31/18:00:15.298000,(0 -29 -15 -5 -3 4 8 8)
1969/12/31/18:00:15.298000,(11 22 -4 -3 -3 -6 -14 -4)
1969/12/31/18:00:15.300000,(-2 12 34 27 10 6 5 3)
1969/12/31/18:00:15.300000,(-12 -20 -5 -4 -2 1 -1 -3)
1969/12/31/18:00:15.313000,(-1 -15 -25 -23 -7 -1 -5 -3)
1969/12/31/18:00:15.313000,(18 23 28 19 7 3 2 1)
1969/12/31/18:00:15.327000,(4 -1 -20 -5 -4 -4 -5 0)
1969/12/31/18:00:15.327000,(9 -3 -3 3 1 2 0 -1)
1969/12/31/18:00:15.343000,(-9 -20 0 -1 1 0 6 3)
1969/12/31/18:00:15.343000,(-10 -17 -18 -10 -4 -3 -5 -4)
1969/12/31/18:00:15.345000,(3 7 -11 -12 -8 -4 -9 -9)
1969/12/31/18:00:15.345000,(-24 -67 -38 -12 -7 -2 -1 -5)
1969/12/31/18:00:15.358000,(4 29 19 7 2 -4 0 -4)
1969/12/31/18:00:15.359000,(0 -19 -12 -6 3 2 -1 3)
1969/12/31/18:00:15.360000,(-21 10 15 -3 -6 -6 -7 -11)
1969/12/31/18:00:15.360000,(40 5 -22 1 0 -3 10 12)
1969/12/31/18:00:15.373000,(-7 5 3 3 -1 -5 -3 -4)
1969/12/31/18:00:15.373000,(-5 18 9 3 3 -4 6 6)
1969/12/31/18:00:15.379000,(-2 -36 -65 -27 -3 -11 -3 2)
1969/12/31/18:00:15.379000,(-9 8 -4 -5 3 -7 10 5)
1969/12/31/18:00:15.396000,(-4 2 -3 -8 -1 -10 7 8)
1969/12/31/18:00:15.396000,(12 58 22 10 1 -5 4 5)
1969/12/31/18:00:15.397000,(7 -10 -1 -1 0 -3 1 5)
1969/12/31/18:00:15.397000,(-6 -6 6 0 -3 -3 -1 1)
1969/12/31/18:00:15.418000,(0 34 10 -9 -7 -3 -10 -7)
1969/12/31/18:00:15.418000,(-12 -27 -19 -8 -2 5 -4 -5)
1969/12/31/18:00:15.420000,(-2 -12 -9 -15 -8 1 -3 -1)
1969/12/31/18:00:15.420000,(8 37 45 32 10 6 -3 -4)
1969/12/31/18:00:15.432000,(-9 -13 -3 13 5 4 -1 -2)
1969/12/31/18:00:15.432000,(-2 -5 9 0 -3 -2 0 -2)
1969/12/31/18:00:15.432000,(-6 -5 -9 3 -4 -3 -4 -4)
1969/12/31/18:00:15.432000,(0 -11 -43 6 -4 0 1 5)
1969/12/31/18:00:15.433000,(5 23 65 64 20 3 -1 -5)
1969/12/31/18:00:15.433000,(10 24 69 33 10 6 1 3)
1969/12/31/18:00:15.436000,(-4 -10 -33 -17 -7 1 0 -2)
1969/12/31/18:00:15.436000,(-4 -3 -11 -14 -5 0 -2 -4)
1969/12/31/18:00:15.445000,(-4 -10 -21 -23 -12 -3 -3 -1)
1969/12/31/18:00:15.445000,(-4 -2 21 10 11 6 5 4)
1969/12/31/18:00:15.446000,(4 2 -10 -16 -7 -5 -5 -5)
1969/12/31/18:00:15.446000,(-4 -5 -10 -11 -4 0 -2 -5)
1969/12/31/18:00:15.468000,(0 -4 -10 -14 -5 -2 1 0)
1969/12/31/18:00:15.468000,(-1 -10 -39 -12 -12 -5 -6 -5)
1969/12/31/18:00:15.469000,(1 8 46 2 3 3 2 2)
1969/12/31/18:00:15.469000,(4 9 25 40 14 7 4 5)
1969/12/31/18:00:15.481000,(3 -3 -12 -12 -1 0 -6 -5)
1969/12/31/18:00:15.481000,(-4 -10 -9 3 -2 3 0 -1)
1969/12/31/18:00:15.490000,(-4 -12 -33 -33 -17 -3 -2 -3)
1969/12/31/18:00:15.490000,(-2 4 27 -18 -30 -13 -7 -9)
1969/12/31/18:00:15.505000,(0 1 4 27 21 1 8 8)
1969/12/31/18:00:15.505000,(-5 -1 -24 22 24 -3 9 5)
1969/12/31/18:00:15.506000,(-3 -6 -18 5 12 -12 -4 -8)
1969/12/31/18:00:15.506000,(-2 -1 5 -11 -2 -9 5 4)
1969/12/31/18:00:15.527000,(-6 -9 -30 -35 -21 -11 2 4)
1969/12/31/18:00:15.527000,(-2 -1 -11 -8 -3 -5 -4 -3)
1969/12/31/18:00:15.535000,(-1 5 11 13 -1 4 4 4)
1969/12/31/18:00:15.535000,(1 2 10 0 4 3 -1 3)
1969/12/31/18:00:15.541000,(-2 -7 -14 -8 -7 -1 -6 -7)
1969/12/31/18:00:15.541000,(3 6 1 3 -1 0 -2 -1)
1969/12/31/18:00:15.550000,(2 3 14 -3 -3 3 -3 -1)
1969/12/31/18:00:15.550000,(-1 -10 -9 2 -3 1 -5 -5)
1969/12/31/18:00:15.565000,(1 15 20 15 4 3 -1 -4)
1969/12/31/18:00:15.565000,(1 -5 -3 -10 -10 -2 -4 -2)
1969/12/31/18:00:15.566000,(-6 -7 8 6 2 0 -1 -1)
1969/12/31/18:00:15.566000,(2 10 -6 2 4 2 -1 -3)
1969/12/31/18:00:15.587000,(-2 -7 -14 -10 -5 -2 -3 -1)
1969/12/31/18:00:15.587000,(-2 12 27 4 -2 0 -3 -5)
1969/12/31/18:00:15.589000,(0 1 -8 0 -2 2 0 0)
1969/12/31/18:00:15.589000,(9 -2 -5 1 0 -3 1 3)
1969/12/31/18:00:15.601000,(-15 6 20 0 -1 -2 -4 -6)
1969/12/31/18:00:15.601000,(2 -5 -15 -10 -5 -2 0 1)
1969/12/31/18:00:15.610000,(-11 -8 -1 2 1 1 3 1)
1969/12/31/18:00:15.610000,(5 1 8 6 4 1 1 1)
1969/12/31/18:00:15.625000,(4 -3 -16 -11 -6 -3 5 5)
1969/12/31/18:00:15.625000,(2 0 -7 -4 -3 -4 -2 -3)
1969/12/31/18:00:15.626000,(12 0 -3 -2 -3 -1 15 15)
1969/12/31/18:00:15.626000,(18 9 6 5 6 -2 -10 1)
1969/12/31/18:00:15.648000,(-53 -21 -11 -7 -2 -5 -7 -14)
1969/12/31/18:00:15.648000,(2 0 -2 -3 -2 -4 -5 -3)
1969/12/31/18:00:15.649000,(2 -3 -6 -4 0 -3 2 5)
1969/12/31/18:00:15.649000,(21 9 2 -1 0 -1 9 10)
1969/12/31/18:00:15.661000,(-29 -14 -13 -4 1 -1 8 2)
1969/12/31/18:00:15.661000,(-24 -14 -11 -9 -8 -8 -7 -13)
1969/12/31/18:00:15.670000,(-28 1 -1 0 -1 1 -10 -27)
1969/12/31/18:00:15.670000,(4 -10 1 -1 -2 1 6 19)
1969/12/31/18:00:15.685000,(44 16 7 6 4 9 0 -4)
1969/12/31/18:00:15.685000,(3 -1 -6 -5 -2 -2 0 -1)
1969/12/31/18:00:15.686000,(17 7 -10 -3 4 3 3 19)
1969/12/31/18:00:15.686000,(-64 -20 -4 -1 -1 -23 2 -35)
1969/12/31/18:00:15.707000,(35 1 1 -1 8 -2 -11 39)
1969/12/31/18:00:15.707000,(-22 -14 6 -4 -12 18 7 -25)
1969/12/31/18:00:15.709000,(44 23 21 7 -2 8 0 3)
1969/12/31/18:00:15.709000,(-12 4 20 9 -1 44 7 -8)
1969/12/31/18:00:15.721000,(-20 -11 0 0 0 -7 -25 -31)
1969/12/31/18:00:15.721000,(-1 6 0 -1 -2 -16 -30 -4)
1969/12/31/18:00:15.738000,(-5 -14 0 -2 -5 -6 6 4)
1969/12/31/18:00:15.738000,(21 20 8 5 5 13 -1 -9)
1969/12/31/18:00:15.745000,(1 -16 -7 -1 -1 -47 -5 24)
1969/12/31/18:00:15.745000,(-57 -25 -9 -3 -1 27 23 -32)
1969/12/31/18:00:15.746000,(25 20 -2 -3 -4 -23 -53 -25)
1969/12/31/18:00:15.746000,(-31 -22 -9 -8 -2 -14 6 -13)
1969/12/31/18:00:15.767000,(22 12 4 3 5 27 8 -5)
1969/12/31/18:00:15.767000,(41 20 -3 2 10 21 3 11)
1969/12/31/18:00:15.769000,(-19 -40 -20 -15 -13 -48 -7 -16)
1969/12/31/18:00:15.769000,(-4 11 5 2 9 55 3 8)
1969/12/31/18:00:15.781000,(-26 -7 -3 -1 -7 -34 38 24)
1969/12/31/18:00:15.781000,(-19 -20 -8 -4 -1 -22 -27 -22)
1969/12/31/18:00:15.790000,(-26 13 7 4 10 14 0 -27)
1969/12/31/18:00:15.790000,(61 7 -3 -2 -5 -22 -15 58)
1969/12/31/18:00:15.805000,(18 24 2 3 12 63 20 -7)
1969/12/31/18:00:15.805000,(-2 3 2 -1 -10 -53 -8 -10)
1969/12/31/18:00:15.807000,(5 -3 -4 4 10 40 11 22)
1969/12/31/18:00:15.807000,(-15 0 -1 2 -5 -33 -4 -18)
1969/12/31/18:00:15.827000,(25 0 -3 -6 -6 19 34 17)
1969/12/31/18:00:15.828000,(42 23 10 8 6 -9 10 58)
1969/12/31/18:00:15.829000,(-21 18 11 7 9 67 31 -31)
1969/12/31/18:00:15.829000,(-52 -26 -16 -12 -5 -45 -61 -86)
1969/12/31/18:00:15.841000,(18 -11 -10 -8 -11 -7 -6 45)
1969/12/31/18:00:15.841000,(21 29 11 9 13 8 -33 15)
1969/12/31/18:00:15.850000,(4 -17 -6 -7 -16 -37 6 30)
1969/12/31/18:00:15.850000,(10 13 6 6 -2 -21 -29 -10)
1969/12/31/18:00:15.865000,(-6 5 -2 -3 -5 15 12 -42)
1969/12/31/18:00:15.865000,(-18 -19 -4 0 7 34 -13 0)
1969/12/31/18:00:15.867000,(19 16 4 2 1 0 -17 16)
1969/12/31/18:00:15.867000,(-6 1 4 2 2 12 31 1)
1969/12/31/18:00:15.887000,(-19 2 -7 -7 -10 -43 -38 -64)
1969/12/31/18:00:15.888000,(21 -13 -9 -3 2 27 28 37)
1969/12/31/18:00:15.889000,(5 9 -3 -4 -6 17 16 11)
1969/12/31/18:00:15.889000,(31 -1 -4 -12 -14 -35 14 6)
1969/12/31/18:00:15.901000,(-24 -20 5 22 13 25 -17 12)
1969/12/31/18:00:15.901000,(14 17 4 4 2 25 35 -4)
1969/12/31/18:00:15.910000,(-13 0 -5 -3 -3 -23 -5 15)
1969/12/31/18:00:15.910000,(12 1 3 -1 8 59 30 32)
1969/12/31/18:00:15.925000,(20 14 3 -11 -4 -2 5 9)
1969/12/31/18:00:15.925000,(-9 -16 -4 1 -6 -41 -8 -10)
1969/12/31/18:00:15.927000,(-11 -3 5 13 14 23 1 7)
1969/12/31/18:00:15.927000,(4 11 2 4 -3 6 0 0)
1969/12/31/18:00:15.947000,(15 8 1 9 4 -43 5 43)
1969/12/31/18:00:15.947000,(2 -2 -5 -5 -3 4 5 10)
1969/12/31/18:00:15.949000,(-8 -10 -6 -5 -2 -28 -50 -9)
1969/12/31/18:00:15.949000,(7 -2 -7 -5 -3 18 25 40)
1969/12/31/18:00:15.961000,(-3 -12 3 5 -12 -83 -49 -15)
1969/12/31/18:00:15.961000,(16 15 -2 -4 4 72 34 23)
1969/12/31/18:00:15.976000,(-39 -9 3 2 -2 -47 -33 -75)
1969/12/31/18:00:15.976000,(2 -7 -5 -6 -1 15 -1 2)
1969/12/31/18:00:15.985000,(13 9 -1 -7 -1 0 -44 -7)
1969/12/31/18:00:15.985000,(-23 -16 -8 -6 -3 -16 -12 46)
1969/12/31/18:00:15.987000,(23 -11 -3 -4 0 11 26 7)
1969/12/31/18:00:15.987000,(17 6 0 2 6 -2 13 4)
1969/12/31/18:00:16.007000,(-10 22 4 -1 -16 2 22 -48)
1969/12/31/18:00:16.007000,(9 -11 -3 -11 -10 7 -42 -31)
1969/12/31/18:00:16.013000,(-4 -1 2 16 6 -27 50 49)
1969/12/31/18:00:16.013000,(-10 -8 -3 -1 -6 -34 -26 -21)
1969/12/31/18:00:16.021000,(1 -6 2 5 17 52 28 25)
1969/12/31/18:00:16.021000,(-14 10 2 -6 -18 -62 23 0)
1969/12/31/18:00:16.030000,(9 4 0 -6 -4 11 -3 29)
1969/12/31/18:00:16.030000,(-19 0 -12 -11 -7 -43 -63 -93)
1969/12/31/18:00:16.045000,(-17 -11 -6 -13 -7 -21 14 3)
1969/12/31/18:00:16.045000,(-28 -16 -1 3 19 74 -50 -26)
1969/12/31/18:00:16.047000,(19 10 0 -5 -11 -27 67 14)
1969/12/31/18:00:16.047000,(9 20 13 15 14 27 37 45)
1969/12/31/18:00:16.068000,(3 -3 -7 -15 3 51 -48 -9)
1969/12/31/18:00:16.068000,(-29 -30 -6 2 4 -17 -3 -34)
1969/12/31/18:00:16.069000,(23 11 7 8 11 56 -27 -3)
1969/12/31/18:00:16.069000,(-39 -12 1 4 -1 -4 3 -32)
1969/12/31/18:00:16.081000,(23 17 3 3 1 7 5 -16)
1969/12/31/18:00:16.081000,(5 15 -2 -3 -8 24 10 -4)
1969/12/31/18:00:16.090000,(-22 -4 0 -2 3 20 -1 -2)
1969/12/31/18:00:16.090000,(16 -16 -9 -6 -5 -10 28 56)
1969/12/31/18:00:16.104000,(-10 4 2 -3 -6 -17 -10 -25)
1969/12/31/18:00:16.104000,(-2 -16 -7 -4 6 -8 18 39)
1969/12/31/18:00:16.111000,(-23 -4 1 -2 -1 10 -4 -31)
1969/12/31/18:00:16.111000,(16 13 1 -4 -3 34 -15 4)
1969/12/31/18:00:16.127000,(-13 -14 -6 1 -10 -7 24 12)
1969/12/31/18:00:16.127000,(33 19 7 6 0 -32 -20 12)
1969/12/31/18:00:16.129000,(-15 -10 -7 -7 3 -29 -17 -15)
1969/12/31/18:00:16.129000,(12 10 6 8 11 36 61 59)
1969/12/31/18:00:16.150000,(-12 -12 -1 -4 -7 -23 -40 -36)
1969/12/31/18:00:16.150000,(33 12 9 13 10 -15 39 49)
1969/12/31/18:00:16.152000,(-59 -33 -20 -16 3 -44 -60 -82)
1969/12/31/18:00:16.152000,(3 4 5 13 17 27 -37 -13)
1969/12/31/18:00:16.165000,(13 5 -5 -28 -43 -2 35 54)
1969/12/31/18:00:16.165000,(16 9 6 11 -2 -38 26 9)
1969/12/31/18:00:16.171000,(16 6 1 -12 -47 -31 12 11)
1969/12/31/18:00:16.171000,(-9 -15 -4 3 25 -3 -44 -4)
1969/12/31/18:00:16.187000,(1 4 8 25 32 36 33 3)
1969/12/31/18:00:16.187000,(-10 0 -1 -15 -24 -18 -46 -13)
1969/12/31/18:00:16.189000,(-1 -13 -10 -14 6 17 46 21)
1969/12/31/18:00:16.189000,(-18 5 6 13 49 12 -36 -31)
1969/12/31/18:00:16.210000,(-10 -14 -5 -3 -10 -12 0 -11)
1969/12/31/18:00:16.210000,(-31 7 -4 -14 -31 -34 -24 -26)
1969/12/31/18:00:16.211000,(11 -11 0 20 -17 -36 -8 11)
1969/12/31/18:00:16.211000,(0 1 -6 -29 -41 25 15 2)
1969/12/31/18:00:16.224000,(-5 9 -3 -11 -1 -7 -7 -29)
1969/12/31/18:00:16.224000,(-3 -9 -6 1 10 -10 11 -8)
1969/12/31/18:00:16.231000,(-7 -2 1 3 10 -29 -62 -34)
1969/12/31/18:00:16.231000,(4 0 3 5 6 4 67 26)
1969/12/31/18:00:16.248000,(2 11 6 6 21 51 -40 -22)
1969/12/31/18:00:16.248000,(-13 -12 -2 -3 -17 -18 -11 -27)
1969/12/31/18:00:16.249000,(14 8 1 -2 10 -1 5 11)
1969/12/31/18:00:16.249000,(-6 -8 -5 -4 -9 3 -11 -4)
1969/12/31/18:00:16.270000,(-3 -9 -4 11 23 -37 7 20)
1969/12/31/18:00:16.270000,(3 -5 -7 -28 -96 -75 16 4)
1969/12/31/18:00:16.272000,(5 -1 -3 -8 18 9 -40 -3)
1969/12/31/18:00:16.272000,(2 9 1 -4 6 -17 -10 -13)
1969/12/31/18:00:16.284000,(-14 -18 -2 12 37 22 16 8)
1969/12/31/18:00:16.284000,(19 -3 4 14 34 67 24 46)
1969/12/31/18:00:16.291000,(-4 -5 -8 -18 -78 -32 -5 -17)
1969/12/31/18:00:16.291000,(8 19 3 -6 -2 -19 -9 -12)
1969/12/31/18:00:16.308000,(32 18 11 8 27 38 -4 9)
1969/12/31/18:00:16.308000,(-14 -34 -11 4 12 -9 0 -17)
1969/12/31/18:00:16.309000,(-36 -7 -6 4 29 89 14 -13)
1969/12/31/18:00:16.309000,(-12 -25 -8 -11 -18 -39 7 10)
1969/12/31/18:00:16.331000,(-3 44 36 12 -9 3 0 -9)
1969/12/31/18:00:16.331000,(21 23 -2 -3 -36 -20 -19 5)
1969/12/31/18:00:16.333000,(-8 -34 -3 -16 -9 36 17 11)
1969/12/31/18:00:16.333000,(7 2 -8 11 2 -45 -3 20)
1969/12/31/18:00:16.344000,(-7 -6 -13 -9 26 22 5 -22)
1969/12/31/18:00:16.344000,(18 15 -18 -6 -4 9 14 44)
1969/12/31/18:00:16.351000,(-66 -30 4 15 37 4 2 -40)
1969/12/31/18:00:16.351000,(-5 21 1 5 -23 8 -18 -17)
1969/12/31/18:00:16.367000,(31 -51 -45 -24 -22 -29 -1 46)
1969/12/31/18:00:16.367000,(-21 52 45 32 86 52 6 -19)
1969/12/31/18:00:16.383000,(46 35 8 14 8 -4 -1 20)
1969/12/31/18:00:16.383000,(-25 -17 -12 -19 -83 -43 2 0)
1969/12/31/18:00:16.390000,(-14 -7 17 -11 -25 -16 -5 -3)
1969/12/31/18:00:16.390000,(28 -56 -91 -23 36 10 -8 -2)
1969/12/31/18:00:16.392000,(16 -34 10 8 40 14 -4 1)
1969/12/31/18:00:16.392000,(-18 73 85 41 -2 17 4 -6)
1969/12/31/18:00:16.404000,(15 84 92 50 40 23 1 22)
1969/12/31/18:00:16.404000,(-18 -2 29 -3 -39 -14 17 -1)
1969/12/31/18:00:16.413000,(26 -46 -65 -27 -5 -8 -9 9)
1969/12/31/18:00:16.413000,(31 -86 -122 -32 18 -3 9 16)
1969/12/31/18:00:16.427000,(-38 22 29 -13 -48 -7 42 18)
1969/12/31/18:00:16.427000,(3 -13 -23 -3 25 -1 -35 -37)
1969/12/31/18:00:16.429000,(64 63 32 27 74 43 -4 37)
1969/12/31/18:00:16.429000,(-36 -49 27 -11 -64 -36 11 -28)
1969/12/31/18:00:16.451000,(-7 -96 -115 -54 -66 -46 -36 33)
1969/12/31/18:00:16.451000,(2 88 90 42 20 -2 -54 -71)
1969/12/31/18:00:16.451000,(10 51 24 18 42 49 72 34)
1969/12/31/18:00:16.451000,(66 36 27 11 43 51 13 46)
1969/12/31/18:00:16.472000,(-19 9 13 17 -35 -11 -1 -79)
1969/12/31/18:00:16.472000,(10 -94 -63 -44 -32 -19 30 -22)
1969/12/31/18:00:16.473000,(-27 -87 -48 -8 -30 -46 -65 -61)
1969/12/31/18:00:16.473000,(-34 104 82 6 -31 -11 -1 14)
1969/12/31/18:00:16.487000,(-11 36 1 27 41 32 28 12)
1969/12/31/18:00:16.487000,(-42 -21 -2 9 86 54 -41 -86)
1969/12/31/18:00:16.488000,(39 43 29 -12 -102 -53 21 56)
1969/12/31/18:00:16.488000,(-85 -91 -23 -13 -11 -38 -42 -106)
1969/12/31/18:00:16.509000,(8 -69 -90 -20 14 6 -10 -5)
1969/12/31/18:00:16.509000,(-31 19 11 -15 -6 1 -4 -14)
1969/12/31/18:00:16.510000,(-19 7 8 0 3 11 14 7)
1969/12/31/18:00:16.510000,(53 0 -13 -2 11 11 23 86)
1969/12/31/18:00:16.532000,(-1 -60 -38 -4 97 67 9 3)
1969/12/31/18:00:16.533000,(70 74 8 5 -81 -36 30 33)
1969/12/31/18:00:16.533000,(-94 -94 -21 -5 0 -32 0 -4)
1969/12/31/18:00:16.533000,(-23 74 42 -9 -56 -38 -44 -42)
1969/12/31/18:00:16.555000,(3 -10 11 -6 17 26 9 11)
1969/12/31/18:00:16.555000,(28 -73 -58 -18 29 32 25 36)
1969/12/31/18:00:16.556000,(41 -42 -72 -39 -81 -42 6 33)
1969/12/31/18:00:16.556000,(-16 69 62 45 81 41 16 28)
1969/12/31/18:00:16.569000,(43 83 80 33 -14 -32 -3 27)
1969/12/31/18:00:16.569000,(-73 -16 29 -5 -22 -15 -31 -83)
1969/12/31/18:00:16.570000,(28 -14 -53 -13 -12 -5 -22 -28)
1969/12/31/18:00:16.570000,(-21 -128 -106 11 126 69 27 37)
1969/12/31/18:00:16.592000,(-9 108 98 6 -106 -52 -16 -60)
1969/12/31/18:00:16.592000,(60 29 9 -17 -27 -18 16 88)
1969/12/31/18:00:16.593000,(-23 -3 0 4 -1 -5 0 -21)
1969/12/31/18:00:16.593000,(13 -10 -12 -7 32 36 18 -57)
1969/12/31/18:00:16.607000,(-50 -87 -67 -45 -47 -44 -55 -47)
1969/12/31/18:00:16.607000,(-19 -2 5 17 15 -1 20 13)
1969/12/31/18:00:16.608000,(34 3 -45 -24 -8 29 29 32)
1969/12/31/18:00:16.608000,(-5 88 87 20 -34 -12 9 9)
1969/12/31/18:00:16.629000,(-80 -61 -7 -6 -8 -23 -12 -63)
1969/12/31/18:00:16.629000,(20 -35 -15 -4 9 -15 -31 -7)
1969/12/31/18:00:16.630000,(-8 67 17 0 31 13 0 -31)
1969/12/31/18:00:16.630000,(10 15 3 17 -9 -16 -5 16)
1969/12/31/18:00:16.644000,(22 -41 -65 -22 2 6 0 -20)
1969/12/31/18:00:16.644000,(-14 -93 -49 -5 -19 -31 -8 -26)
1969/12/31/18:00:16.651000,(-6 93 124 56 48 30 -1 27)
1969/12/31/18:00:16.651000,(31 -104 -70 -26 -2 15 0 79)
1969/12/31/18:00:16.667000,(-21 -4 -46 -13 -21 -27 -4 -26)
1969/12/31/18:00:16.667000,(2 6 -15 -14 -46 -9 20 44)
1969/12/31/18:00:16.668000,(5 29 89 45 64 44 4 -16)
1969/12/31/18:00:16.668000,(3 12 -14 -30 -90 -63 -41 -70)
1969/12/31/18:00:16.691000,(45 -68 -41 -6 62 30 14 79)
1969/12/31/18:00:16.691000,(-9 92 31 7 -4 -2 6 -13)
1969/12/31/18:00:16.691000,(13 26 24 5 11 9 -1 27)
1969/12/31/18:00:16.691000,(-19 -23 -69 -30 -6 -41 -21 -31)
1969/12/31/18:00:16.704000,(-1 -15 29 8 -20 -8 9 -1)
1969/12/31/18:00:16.704000,(2 10 21 15 15 13 1 3)
1969/12/31/18:00:16.711000,(3 -65 -65 -31 -16 10 1 34)
1969/12/31/18:00:16.711000,(-24 -28 11 33 83 41 -9 -12)
1969/12/31/18:00:16.728000,(19 120 94 19 -91 -62 -4 -9)
1969/12/31/18:00:16.728000,(-11 -30 -26 -11 22 38 11 36)
1969/12/31/18:00:16.729000,(-32 69 105 34 -3 -45 -24 -62)
1969/12/31/18:00:16.729000,(38 -85 -68 -22 -7 8 12 19)
1969/12/31/18:00:16.749000,(7 -11 -8 29 100 51 -3 7)
1969/12/31/18:00:16.749000,(-1 -1 18 -17 -76 -53 -25 -34)
1969/12/31/18:00:16.750000,(-17 -84 -80 -13 28 10 0 -17)
1969/12/31/18:00:16.750000,(15 58 7 -30 -51 -18 19 1)
1969/12/31/18:00:16.764000,(-15 38 54 5 4 31 23 19)
1969/12/31/18:00:16.764000,(2 -25 -57 -8 20 16 -24 -17)
1969/12/31/18:00:16.771000,(-16 13 1 -4 -22 -13 21 -13)
1969/12/31/18:00:16.771000,(-33 -16 58 20 3 -25 -11 -16)
1969/12/31/18:00:16.787000,(30 16 -37 -6 9 -3 1 14)
1969/12/31/18:00:16.787000,(-1 15 11 -5 -28 -19 16 -2)
1969/12/31/18:00:16.788000,(-23 -28 5 -8 -24 -16 -39 -57)
1969/12/31/18:00:16.788000,(27 16 -1 13 33 43 25 27)
1969/12/31/18:00:16.818000,(25 -63 -78 -22 20 0 1 -6)
1969/12/31/18:00:16.818000,(12 61 94 39 14 6 5 39)
1969/12/31/18:00:16.818000,(11 59 22 6 8 8 -2 11)
1969/12/31/18:00:16.818000,(-59 -36 -37 -18 -1 9 9 -41)
1969/12/31/18:00:16.824000,(40 26 40 18 5 -19 -6 28)
1969/12/31/18:00:16.824000,(0 -51 -57 -23 -15 20 11 -18)
1969/12/31/18:00:16.831000,(29 14 41 39 34 -18 3 42)
1969/12/31/18:00:16.831000,(-19 84 47 -32 -82 -44 -30 -46)
1969/12/31/18:00:16.847000,(2 -42 -27 -4 34 18 21 32)
1969/12/31/18:00:16.847000,(-3 1 -11 -4 9 -3 -22 11)
1969/12/31/18:00:16.848000,(4 -41 -60 -14 55 34 -1 -15)
1969/12/31/18:00:16.848000,(21 -34 -9 -7 -66 -38 -24 -7)
1969/12/31/18:00:16.869000,(-11 -44 -63 -32 -49 -20 -15 -29)
1969/12/31/18:00:16.869000,(-11 26 40 15 49 29 36 40)
1969/12/31/18:00:16.870000,(8 45 -8 10 -2 16 0 16)
1969/12/31/18:00:16.870000,(8 -12 -7 6 11 3 -22 -6)
1969/12/31/18:00:16.884000,(21 77 81 16 -21 -6 9 17)
1969/12/31/18:00:16.884000,(-24 -59 -82 -11 45 34 14 16)
1969/12/31/18:00:16.892000,(-50 -102 -24 -15 -56 -53 -36 -29)
1969/12/31/18:00:16.892000,(17 107 56 16 25 19 9 10)
1969/12/31/18:00:16.907000,(-12 -48 -35 -2 1 3 -26 -13)
1969/12/31/18:00:16.907000,(-16 27 28 30 69 33 13 -16)
1969/12/31/18:00:16.908000,(47 -31 -33 -36 -88 -22 -7 34)
1969/12/31/18:00:16.908000,(37 73 41 24 84 60 48 49)
1969/12/31/18:00:16.929000,(-41 -73 -25 -7 -27 -39 -19 39)
1969/12/31/18:00:16.929000,(-36 1 27 -17 -80 -62 -42 -57)
1969/12/31/18:00:16.930000,(-4 -36 -62 -30 -9 -18 -17 -31)
1969/12/31/18:00:16.930000,(30 -28 -30 -8 -24 -34 -14 17)
1969/12/31/18:00:16.944000,(-24 101 95 27 49 44 9 -27)
1969/12/31/18:00:16.944000,(24 -78 -46 13 17 15 19 21)
1969/12/31/18:00:16.952000,(43 110 42 0 -23 -24 18 63)
1969/12/31/18:00:16.952000,(-36 -61 -36 -2 56 19 -31 -86)
1969/12/31/18:00:16.967000,(-5 59 37 29 17 11 12 3)
1969/12/31/18:00:16.967000,(-43 -55 -12 -26 -58 -29 -5 -15)
1969/12/31/18:00:16.968000,(27 -64 -46 -9 16 36 21 1)
1969/12/31/18:00:16.968000,(-9 79 69 40 65 31 -4 -33)
1969/12/31/18:00:16.989000,(-33 -16 -8 -21 -63 -66 -16 -40)
1969/12/31/18:00:16.989000,(-14 -59 -50 -34 -19 10 -24 -4)
1969/12/31/18:00:16.990000,(-2 19 10 -5 2 -9 31 0)
1969/12/31/18:00:16.990000,(2 -26 -24 0 -61 -65 -23 25)
1969/12/31/18:00:17.004000,(14 -22 -4 -3 20 -10 -10 2)
1969/12/31/18:00:17.004000,(14 17 17 -4 7 28 24 -2)
1969/12/31/18:00:17.012000,(-63 8 6 10 22 8 0 -42)
1969/12/31/18:00:17.012000,(-10 -8 -15 -4 3 3 5 41)
1969/12/31/18:00:17.027000,(-1 -42 8 5 -8 3 -21 -9)
1969/12/31/18:00:17.027000,(28 72 -4 -2 -8 -18 5 5)
