time,.data
1969/12/31/18:00:05.828000,(0 3 4 -2 -5 0 2 1)
1969/12/31/18:00:05.828000,(4 3 -2 1 3 3 0 2)
1969/12/31/18:00:05.843000,(0 -4 -6 3 -3 -2 -2 -2)
1969/12/31/18:00:05.843000,(-7 -4 -8 -12 -3 0 -2 -5)
1969/12/31/18:00:05.852000,(1 0 6 5 11 -3 1 3)
1969/12/31/18:00:05.852000,(-1 3 4 6 -1 5 2 0)
1969/12/31/18:00:05.853000,(-1 2 7 7 22 4 -1 -1)
1969/12/31/18:00:05.853000,(-4 -4 -8 -12 -22 -4 0 -2)
1969/12/31/18:00:05.865000,(1 -1 -3 2 -3 -1 -3 -2)
1969/12/31/18:00:05.865000,(-1 2 12 15 22 5 4 2)
1969/12/31/18:00:05.874000,(5 6 -10 -6 -1 -4 -3 0)
1969/12/31/18:00:05.874000,(0 1 20 29 16 7 3 4)
1969/12/31/18:00:05.889000,(-4 -2 -7 -12 -10 -1 1 0)
1969/12/31/18:00:05.889000,(-2 -6 -10 -20 -22 -11 -6 -5)
1969/12/31/18:00:05.895000,(-3 -1 2 -11 -14 -11 -7 -3)
1969/12/31/18:00:05.895000,(7 4 -21 -38 -10 -1 5 4)
1969/12/31/18:00:05.912000,(2 -2 0 33 8 -3 -5 3)
1969/12/31/18:00:05.912000,(-9 -5 16 38 -10 -1 2 -5)
1969/12/31/18:00:05.913000,(-1 -5 -7 -36 34 4 1 0)
1969/12/31/18:00:05.913000,(-6 -6 7 19 -21 -6 -9 -6)
1969/12/31/18:00:05.925000,(4 6 -13 -18 7 8 7 5)
1969/12/31/18:00:05.925000,(-6 -16 -24 -12 -9 -2 -1 -4)
1969/12/31/18:00:05.934000,(-6 0 29 25 -11 -3 -3 -4)
1969/12/31/18:00:05.934000,(5 8 8 -21 8 3 6 7)
1969/12/31/18:00:05.949000,(8 9 10 6 -9 -4 0 4)
1969/12/31/18:00:05.949000,(8 5 -8 -3 6 12 7 6)
1969/12/31/18:00:05.955000,(-1 -7 -15 -2 11 -3 -2 0)
1969/12/31/18:00:05.955000,(-4 -8 -13 -51 -16 -5 -4 -5)
1969/12/31/18:00:05.972000,(1 -2 -15 -8 -1 0 1 0)
1969/12/31/18:00:05.972000,(-2 -3 5 -3 8 1 -7 0)
1969/12/31/18:00:05.973000,(-8 -3 18 55 16 9 4 -5)
1969/12/31/18:00:05.973000,(1 5 13 49 -4 -1 1 1)
1969/12/31/18:00:05.986000,(-4 2 15 13 34 5 -1 -2)
1969/12/31/18:00:05.986000,(3 6 -5 18 2 -5 2 0)
1969/12/31/18:00:05.994000,(-1 -6 -27 -78 -81 -18 -3 0)
1969/12/31/18:00:05.994000,(-3 -7 -19 -68 -34 -28 -16 -5)
1969/12/31/18:00:06.009000,(-8 -9 13 47 25 8 0 -3)
1969/12/31/18:00:06.009000,(7 15 14 24 44 22 5 5)
1969/12/31/18:00:06.015000,(1 4 34 54 51 24 2 1)
1969/12/31/18:00:06.015000,(-6 -6 -12 -24 -18 -9 0 -7)
1969/12/31/18:00:06.032000,(4 -4 -18 -50 -41 -19 -6 2)
1969/12/31/18:00:06.032000,(-3 -7 -12 -22 -41 -29 -14 -6)
1969/12/31/18:00:06.033000,(-3 -6 -20 -20 -26 -9 1 -1)
1969/12/31/18:00:06.033000,(2 4 -1 -34 33 16 3 3)
1969/12/31/18:00:06.045000,(-4 -1 32 112 56 23 7 0)
1969/12/31/18:00:06.045000,(-7 -9 -14 -32 -30 -16 -9 -7)
1969/12/31/18:00:06.054000,(6 -2 -37 -96 -43 -15 -5 1)
1969/12/31/18:00:06.054000,(5 8 24 73 15 -4 0 3)
1969/12/31/18:00:06.068000,(-5 -6 15 47 22 5 -2 -1)
1969/12/31/18:00:06.068000,(4 10 26 12 18 14 7 4)
1969/12/31/18:00:06.075000,(-2 -4 3 4 -9 -2 -3 -1)
1969/12/31/18:00:06.075000,(-10 -5 -12 6 4 -5 -7 -7)
1969/12/31/18:00:06.092000,(3 1 -25 -117 -42 -8 1 1)
1969/12/31/18:00:06.092000,(4 0 10 77 18 2 3 2)
1969/12/31/18:00:06.093000,(-6 -6 -7 9 13 2 -1 -4)
1969/12/31/18:00:06.093000,(7 2 -3 -31 -6 4 4 7)
1969/12/31/18:00:06.105000,(1 4 3 31 -9 -2 1 0)
1969/12/31/18:00:06.105000,(-6 -10 -23 -76 -14 -10 -8 -4)
1969/12/31/18:00:06.114000,(1 7 12 -3 -14 1 3 4)
1969/12/31/18:00:06.114000,(-1 -1 16 88 58 18 4 2)
1969/12/31/18:00:06.129000,(3 1 -9 -42 -22 -1 0 2)
1969/12/31/18:00:06.129000,(0 -1 -2 -14 1 -5 -1 0)
1969/12/31/18:00:06.135000,(-1 0 -1 13 -1 -1 0 -2)
1969/12/31/18:00:06.135000,(-1 -3 -3 -3 -9 -1 -1 -1)
1969/12/31/18:00:06.152000,(-1 -1 -4 -19 -3 -3 -3 -2)
1969/12/31/18:00:06.152000,(-1 1 4 12 5 4 0 1)
1969/12/31/18:00:06.153000,(3 3 5 16 8 3 1 1)
1969/12/31/18:00:06.153000,(-2 -2 -1 1 0 0 -1 -2)
1969/12/31/18:00:06.174000,(0 -2 -5 -5 -4 -5 0 0)
1969/12/31/18:00:06.174000,(0 3 0 -12 -6 0 2 0)
1969/12/31/18:00:06.176000,(-2 4 2 13 10 4 0 1)
1969/12/31/18:00:06.176000,(4 0 2 9 6 2 2 2)
1969/12/31/18:00:06.188000,(0 2 -1 -12 -10 -5 1 -1)
1969/12/31/18:00:06.188000,(-3 -10 -1 -5 -2 -3 -4 1)
1969/12/31/18:00:06.197000,(-1 1 -1 11 10 -1 -4 -5)
1969/12/31/18:00:06.197000,(-1 1 1 5 -3 0 1 -2)
1969/12/31/18:00:06.211000,(-7 -5 -3 -5 -5 -1 -3 -6)
1969/12/31/18:00:06.211000,(4 4 -1 -10 0 3 3 5)
1969/12/31/18:00:06.218000,(1 2 0 13 6 1 1 3)
1969/12/31/18:00:06.218000,(3 0 -6 -8 -5 -1 1 3)
1969/12/31/18:00:06.234000,(0 1 2 3 2 3 5 2)
1969/12/31/18:00:06.234000,(-8 -3 -4 -4 -1 -4 -6 -7)
1969/12/31/18:00:06.236000,(-3 -4 -1 2 -2 -1 0 -1)
1969/12/31/18:00:06.236000,(11 12 6 5 4 6 6 5)
1969/12/31/18:00:06.248000,(0 -6 -4 -1 0 -2 -1 1)
1969/12/31/18:00:06.248000,(-7 -1 3 5 2 2 -1 -7)
1969/12/31/18:00:06.257000,(-10 -5 1 3 0 0 -3 -5)
1969/12/31/18:00:06.257000,(12 -2 -3 -8 -4 -2 0 4)
1969/12/31/18:00:06.272000,(4 8 -2 -2 0 3 -1 -1)
1969/12/31/18:00:06.272000,(-7 -6 1 -1 -2 -4 -2 -4)
1969/12/31/18:00:06.273000,(7 6 0 -2 2 -1 -1 -1)
1969/12/31/18:00:06.273000,(-9 -4 0 3 -4 -3 -4 -3)
1969/12/31/18:00:06.294000,(-3 -3 -1 -18 -8 -1 -2 0)
1969/12/31/18:00:06.294000,(7 3 0 12 9 -2 2 5)
1969/12/31/18:00:06.296000,(0 2 4 6 1 1 3 0)
1969/12/31/18:00:06.296000,(0 -3 -4 2 6 1 -1 2)
1969/12/31/18:00:06.308000,(4 3 -3 -21 -10 -4 -4 -1)
1969/12/31/18:00:06.308000,(-5 -1 3 2 -4 3 0 -6)
1969/12/31/18:00:06.323000,(3 -3 -2 4 2 -1 1 4)
1969/12/31/18:00:06.323000,(-8 -3 0 1 0 0 3 -2)
1969/12/31/18:00:06.332000,(20 15 3 6 0 -3 -2 6)
1969/12/31/18:00:06.332000,(-16 -2 -3 -11 -7 -5 -7 -14)
1969/12/31/18:00:06.333000,(1 -7 -6 -3 -2 3 3 -3)
1969/12/31/18:00:06.333000,(-5 1 0 -6 -6 -1 -3 -3)
1969/12/31/18:00:06.354000,(1 -3 2 11 -5 2 5 4)
1969/12/31/18:00:06.354000,(-4 -4 -4 -7 11 -2 0 6)
1969/12/31/18:00:06.356000,(14 10 -8 -28 -22 -1 5 8)
1969/12/31/18:00:06.356000,(-5 -5 -3 -1 6 -3 -4 0)
1969/12/31/18:00:06.368000,(-9 -3 20 62 30 14 9 -1)
1969/12/31/18:00:06.368000,(4 8 -1 -31 -3 -5 -5 -4)
1969/12/31/18:00:06.377000,(-5 -13 -2 25 3 1 -2 0)
1969/12/31/18:00:06.377000,(-7 -6 -5 -16 -11 -6 -1 3)
1969/12/31/18:00:06.392000,(23 25 9 10 2 7 7 4)
1969/12/31/18:00:06.392000,(-8 -15 -10 -2 -11 -9 -8 -6)
1969/12/31/18:00:06.393000,(-1 13 11 -8 10 10 8 -3)
1969/12/31/18:00:06.393000,(-18 -15 -14 -20 -22 -16 -19 -21)
1969/12/31/18:00:06.414000,(-28 -20 -6 -10 -1 9 22 8)
1969/12/31/18:00:06.414000,(22 -4 -2 3 1 -7 -13 8)
1969/12/31/18:00:06.416000,(1 2 -8 -41 -28 -3 1 4)
1969/12/31/18:00:06.416000,(15 4 -26 -60 -6 -3 -3 -2)
1969/12/31/18:00:06.428000,(-12 -6 1 15 -13 -5 -4 -4)
1969/12/31/18:00:06.428000,(16 14 30 87 30 16 17 11)
1969/12/31/18:00:06.437000,(-8 -2 28 85 49 12 8 1)
1969/12/31/18:00:06.437000,(-13 -7 9 19 7 0 -6 -10)
1969/12/31/18:00:06.452000,(-13 -17 -29 -91 -34 -16 -13 -14)
1969/12/31/18:00:06.452000,(-8 -4 -17 -36 -26 -8 -1 -1)
1969/12/31/18:00:06.453000,(16 7 0 7 6 -4 -2 4)
1969/12/31/18:00:06.453000,(-22 -3 5 13 9 8 9 -6)
1969/12/31/18:00:06.474000,(5 15 3 -7 0 -2 -5 -8)
1969/12/31/18:00:06.474000,(18 -8 -2 -6 -8 -3 -3 8)
1969/12/31/18:00:06.476000,(1 -8 -5 -15 -8 -11 -7 1)
1969/12/31/18:00:06.476000,(11 5 8 13 5 10 14 5)
1969/12/31/18:00:06.488000,(-8 2 -7 2 -2 -16 -19 -7)
1969/12/31/18:00:06.488000,(2 -1 -19 -60 -12 -3 0 2)
1969/12/31/18:00:06.497000,(-9 -13 -15 -18 -15 -5 -7 -1)
1969/12/31/18:00:06.497000,(10 4 15 42 -11 7 14 17)
1969/12/31/18:00:06.512000,(-6 -9 -3 8 21 -4 -5 -10)
1969/12/31/18:00:06.512000,(-10 6 22 55 22 7 -2 -12)
1969/12/31/18:00:06.513000,(-4 1 -19 -95 -36 -5 3 0)
1969/12/31/18:00:06.513000,(-7 2 14 97 35 0 -5 -5)
1969/12/31/18:00:06.534000,(17 4 31 71 46 20 10 16)
1969/12/31/18:00:06.534000,(-19 -12 0 11 20 5 0 -8)
1969/12/31/18:00:06.536000,(17 23 -10 -44 -14 -3 6 9)
1969/12/31/18:00:06.536000,(0 7 -13 -66 -40 -28 -40 -46)
1969/12/31/18:00:06.548000,(-37 -26 -28 -56 -28 -19 -18 -25)
1969/12/31/18:00:06.548000,(30 7 -2 -17 -8 1 8 32)
1969/12/31/18:00:06.557000,(5 2 8 23 4 5 7 15)
1969/12/31/18:00:06.557000,(9 1 -2 -12 1 2 7 14)
1969/12/31/18:00:06.579000,(28 20 3 0 4 2 8 14)
1969/12/31/18:00:06.579000,(-43 -29 -39 -101 -57 -15 -16 -33)
1969/12/31/18:00:06.580000,(-6 2 27 124 30 3 -3 -9)
1969/12/31/18:00:06.580000,(-13 -12 27 55 42 11 7 4)
1969/12/31/18:00:06.594000,(17 22 12 3 9 11 4 1)
1969/12/31/18:00:06.594000,(13 7 -7 -14 -1 -6 3 13)
1969/12/31/18:00:06.596000,(-5 -12 -28 -98 -45 -17 -15 -11)
1969/12/31/18:00:06.596000,(-17 -21 -3 26 14 5 4 -1)
1969/12/31/18:00:06.608000,(-26 -25 0 2 4 6 0 -12)
1969/12/31/18:00:06.608000,(8 37 16 56 30 16 13 5)
1969/12/31/18:00:06.617000,(28 11 5 23 17 -4 -13 -2)
1969/12/31/18:00:06.617000,(-10 -12 -18 -41 -21 -10 -11 -11)
1969/12/31/18:00:06.632000,(6 -7 -10 -41 -19 -4 4 11)
1969/12/31/18:00:06.632000,(-19 -10 2 11 -21 -5 1 -2)
1969/12/31/18:00:06.633000,(-39 -36 5 18 11 4 1 -22)
1969/12/31/18:00:06.633000,(25 35 -3 -44 -8 6 8 21)
1969/12/31/18:00:06.655000,(10 -4 -12 -13 -15 -2 3 10)
1969/12/31/18:00:06.655000,(6 7 1 12 25 3 -1 -1)
1969/12/31/18:00:06.662000,(-20 -12 -2 22 0 -4 -6 -14)
1969/12/31/18:00:06.662000,(12 4 16 33 9 7 9 11)
1969/12/31/18:00:06.668000,(-17 -3 8 39 16 -1 -9 -15)
1969/12/31/18:00:06.668000,(-1 -5 3 -18 2 -3 3 0)
1969/12/31/18:00:06.677000,(15 18 4 -18 -16 11 16 19)
1969/12/31/18:00:06.677000,(-4 -2 -5 7 7 3 -3 -5)
1969/12/31/18:00:06.692000,(3 7 12 37 17 1 0 8)
1969/12/31/18:00:06.692000,(-10 -12 -2 -4 -5 -2 -7 -19)
1969/12/31/18:00:06.693000,(30 31 8 -5 18 11 22 34)
1969/12/31/18:00:06.693000,(1 6 -8 -31 -22 -3 3 8)
1969/12/31/18:00:06.714000,(-6 -17 -9 -14 -16 -5 -5 -12)
1969/12/31/18:00:06.714000,(-12 -16 1 12 4 2 0 -1)
1969/12/31/18:00:06.716000,(39 54 -4 -2 -4 -13 -11 4)
1969/12/31/18:00:06.716000,(-31 -26 -11 -25 -13 -13 -18 -21)
1969/12/31/18:00:06.728000,(15 10 1 8 4 0 5 13)
1969/12/31/18:00:06.728000,(9 8 2 -22 -11 1 3 6)
1969/12/31/18:00:06.737000,(-21 -25 0 37 14 4 -4 -11)
1969/12/31/18:00:06.737000,(16 11 6 14 13 6 8 8)
1969/12/31/18:00:06.752000,(-5 -2 -8 -25 -9 -8 -6 -6)
1969/12/31/18:00:06.752000,(5 0 -9 -15 -27 -6 -3 1)
1969/12/31/18:00:06.753000,(-14 -14 -4 -16 -6 -4 -4 -10)
1969/12/31/18:00:06.753000,(-1 0 9 56 12 0 1 2)
1969/12/31/18:00:06.774000,(2 -13 9 28 10 6 -2 -1)
1969/12/31/18:00:06.774000,(24 39 28 44 32 26 31 25)
1969/12/31/18:00:06.776000,(-8 -9 -9 -21 -3 -5 -17 -17)
1969/12/31/18:00:06.776000,(-4 -8 -19 -35 -17 -4 3 -1)
1969/12/31/18:00:06.788000,(-2 -3 -10 -26 -12 -8 -6 -1)
1969/12/31/18:00:06.788000,(-16 -24 -12 -23 -15 -13 -15 -12)
1969/12/31/18:00:06.797000,(8 3 4 17 9 5 11 10)
1969/12/31/18:00:06.797000,(11 11 0 -1 1 -3 -7 -6)
1969/12/31/18:00:06.811000,(-1 5 -2 -34 -17 2 5 0)
1969/12/31/18:00:06.811000,(2 -5 -8 -2 1 -2 2 4)
1969/12/31/18:00:06.818000,(-11 -13 1 8 4 -3 -12 -10)
1969/12/31/18:00:06.818000,(-35 -32 2 6 -9 -4 -6 -15)
1969/12/31/18:00:06.834000,(65 43 16 -53 4 31 51 74)
1969/12/31/18:00:06.834000,(-10 3 9 76 17 -9 -21 -25)
1969/12/31/18:00:06.836000,(-12 -5 9 18 19 6 1 -5)
1969/12/31/18:00:06.836000,(12 -2 -2 -13 0 5 6 12)
1969/12/31/18:00:06.848000,(11 26 -11 -13 -17 -15 -16 -13)
1969/12/31/18:00:06.848000,(-14 -15 -15 -37 -18 -5 -2 -4)
1969/12/31/18:00:06.857000,(11 8 6 25 11 -4 -3 6)
1969/12/31/18:00:06.857000,(-22 -13 0 -7 -9 -10 -14 -22)
1969/12/31/18:00:06.871000,(-19 -19 -11 -10 -9 -5 -8 -14)
1969/12/31/18:00:06.871000,(26 23 -2 -12 2 6 7 15)
1969/12/31/18:00:06.879000,(-13 -2 4 37 5 0 0 -7)
1969/12/31/18:00:06.879000,(10 3 9 18 15 1 -2 7)
1969/12/31/18:00:06.894000,(-45 -38 -15 -3 -2 -11 -19 -30)
1969/12/31/18:00:06.894000,(-10 -2 -4 -26 -19 -12 -18 -20)
1969/12/31/18:00:06.896000,(-4 -9 -12 -69 -17 3 6 3)
1969/12/31/18:00:06.896000,(10 8 4 34 -4 -4 -2 4)
1969/12/31/18:00:06.908000,(-15 5 20 48 28 -4 -5 -8)
1969/12/31/18:00:06.908000,(18 9 0 8 4 8 6 10)
1969/12/31/18:00:06.917000,(-14 -17 -8 -46 -7 -3 -1 -7)
1969/12/31/18:00:06.917000,(-6 -7 -22 -56 -29 -8 -4 -6)
1969/12/31/18:00:06.931000,(4 -11 -13 14 -9 -1 0 6)
1969/12/31/18:00:06.931000,(-7 3 26 78 25 1 1 0)
1969/12/31/18:00:06.938000,(12 19 17 28 21 9 6 8)
1969/12/31/18:00:06.938000,(19 11 -12 -74 8 2 5 11)
1969/12/31/18:00:06.954000,(-10 -10 -5 31 -29 -8 -7 -11)
1969/12/31/18:00:06.954000,(7 1 5 35 35 5 9 10)
1969/12/31/18:00:06.956000,(-11 -10 -7 -14 -26 -13 -9 -8)
1969/12/31/18:00:06.956000,(5 4 -15 -86 2 -5 4 8)
1969/12/31/18:00:06.968000,(-1 -6 -4 9 -17 2 1 -3)
1969/12/31/18:00:06.968000,(1 -2 15 48 33 23 6 2)
1969/12/31/18:00:06.977000,(-10 0 24 64 36 17 0 -10)
1969/12/31/18:00:06.977000,(-5 -2 6 8 -5 -2 -1 -4)
1969/12/31/18:00:06.991000,(48 51 -8 -89 -36 -10 6 22)
1969/12/31/18:00:06.991000,(0 -4 -6 -10 -13 -7 -1 -4)
1969/12/31/18:00:06.998000,(0 -12 -12 1 -10 -11 -10 4)
1969/12/31/18:00:06.998000,(-1 4 10 22 4 15 13 1)
1969/12/31/18:00:07.014000,(-2 -7 -2 -6 -4 -6 -5 -5)
1969/12/31/18:00:07.014000,(-11 -9 -17 -76 -39 -15 -11 -8)
1969/12/31/18:00:07.016000,(-2 -1 1 38 12 -1 -1 -3)
1969/12/31/18:00:07.016000,(6 7 19 74 41 12 4 6)
1969/12/31/18:00:07.028000,(-3 -4 5 -17 12 7 7 4)
1969/12/31/18:00:07.028000,(-5 -6 -16 -35 3 -6 -3 -2)
1969/12/31/18:00:07.037000,(1 -2 7 31 -21 1 4 5)
1969/12/31/18:00:07.037000,(-5 1 8 41 15 0 -2 -3)
1969/12/31/18:00:07.051000,(-14 -10 9 31 24 5 -5 -10)
1969/12/31/18:00:07.051000,(12 2 -27 -128 -50 -4 7 8)
1969/12/31/18:00:07.058000,(12 4 -8 23 5 -9 -2 4)
1969/12/31/18:00:07.058000,(-14 -3 12 39 3 -1 -12 -19)
1969/12/31/18:00:07.074000,(6 0 2 -3 13 -2 -3 5)
1969/12/31/18:00:07.074000,(-22 -21 -2 18 -3 -4 -5 -4)
1969/12/31/18:00:07.076000,(19 15 -4 -18 3 1 5 17)
1969/12/31/18:00:07.076000,(-20 -31 -12 -25 -16 3 3 -4)
1969/12/31/18:00:07.088000,(23 30 9 14 12 1 1 3)
1969/12/31/18:00:07.088000,(-7 -10 -2 5 -11 -7 -5 -5)
1969/12/31/18:00:07.097000,(-4 -5 -9 -36 -24 -1 5 1)
1969/12/31/18:00:07.097000,(10 11 5 32 16 2 -5 2)
1969/12/31/18:00:07.110000,(-20 -19 -15 -81 -29 -3 0 -6)
1969/12/31/18:00:07.110000,(14 16 21 104 37 9 6 9)
1969/12/31/18:00:07.119000,(-1 5 18 25 14 3 -3 -11)
1969/12/31/18:00:07.119000,(3 4 -1 -16 -1 4 7 15)
1969/12/31/18:00:07.134000,(-17 -15 -4 26 7 -2 -7 -12)
1969/12/31/18:00:07.134000,(7 9 -5 -41 -14 1 6 8)
1969/12/31/18:00:07.136000,(19 3 -19 -55 -14 -5 -1 3)
1969/12/31/18:00:07.136000,(9 19 -4 -15 -24 -12 -4 0)
1969/12/31/18:00:07.157000,(27 27 18 52 28 13 15 16)
1969/12/31/18:00:07.157000,(-21 -20 -6 -21 -8 -15 -25 -27)
1969/12/31/18:00:07.158000,(-4 -2 -3 -2 -3 -2 0 3)
1969/12/31/18:00:07.158000,(-14 -12 -5 -8 -8 2 2 -13)
1969/12/31/18:00:07.170000,(-10 -12 -2 7 0 -8 -15 -11)
1969/12/31/18:00:07.170000,(-3 -6 1 7 15 9 10 10)
1969/12/31/18:00:07.179000,(17 26 -5 -10 -2 5 7 5)
1969/12/31/18:00:07.179000,(-1 1 10 37 9 0 -3 -3)
1969/12/31/18:00:07.194000,(-31 -27 3 26 13 -1 -7 -16)
1969/12/31/18:00:07.194000,(-4 -7 9 3 3 17 20 12)
1969/12/31/18:00:07.196000,(-12 -12 -9 -18 13 0 -5 -4)
1969/12/31/18:00:07.196000,(3 3 -6 -20 -28 -8 -1 7)
1969/12/31/18:00:07.217000,(35 29 11 23 12 9 18 29)
1969/12/31/18:00:07.217000,(-8 -5 0 -4 -6 -7 -14 -11)
1969/12/31/18:00:07.218000,(11 22 -7 -15 -6 1 8 10)
1969/12/31/18:00:07.218000,(22 24 -3 -3 1 -3 -4 3)
1969/12/31/18:00:07.230000,(-26 -33 3 3 -3 -1 -3 -12)
1969/12/31/18:00:07.230000,(7 14 0 3 -1 2 12 10)
1969/12/31/18:00:07.239000,(20 5 10 7 8 13 15 25)
1969/12/31/18:00:07.239000,(-28 -29 -18 -22 -17 -19 -29 -33)
1969/12/31/18:00:07.254000,(-10 -5 -5 -2 -3 -5 -4 -8)
1969/12/31/18:00:07.254000,(20 14 4 11 5 -1 2 8)
1969/12/31/18:00:07.256000,(-35 -25 -1 2 -2 2 -1 -15)
1969/12/31/18:00:07.256000,(44 48 17 18 12 8 19 30)
1969/12/31/18:00:07.277000,(-15 -13 -4 -5 4 2 -5 -12)
1969/12/31/18:00:07.277000,(-11 -6 -2 -10 -1 -3 -4 -8)
1969/12/31/18:00:07.278000,(-10 -6 -6 -26 -30 -12 -10 -12)
1969/12/31/18:00:07.278000,(-8 -7 1 13 9 -4 -3 -2)
1969/12/31/18:00:07.290000,(12 13 6 6 3 2 7 7)
1969/12/31/18:00:07.290000,(10 3 0 16 9 8 10 16)
1969/12/31/18:00:07.305000,(-28 -20 -9 -20 -9 -13 -22 -22)
1969/12/31/18:00:07.305000,(4 -7 -9 -26 -13 0 0 2)
1969/12/31/18:00:07.322000,(-9 -3 -6 4 -2 -3 0 -3)
1969/12/31/18:00:07.322000,(9 7 5 8 2 2 1 2)
1969/12/31/18:00:07.323000,(-28 -35 -4 -14 -10 0 -2 -9)
1969/12/31/18:00:07.323000,(68 65 13 20 11 7 17 34)
1969/12/31/18:00:07.337000,(5 9 2 13 6 -5 -12 -7)
1969/12/31/18:00:07.337000,(-19 -19 -2 -7 -7 -6 -11 -15)
1969/12/31/18:00:07.338000,(2 9 2 6 3 3 3 -6)
1969/12/31/18:00:07.338000,(26 14 2 -9 -1 5 9 23)
1969/12/31/18:00:07.350000,(-34 -27 -8 -12 -10 -9 -16 -27)
1969/12/31/18:00:07.350000,(28 22 -6 -43 -13 2 10 17)
1969/12/31/18:00:07.359000,(-7 -7 9 54 6 -1 -3 -3)
1969/12/31/18:00:07.359000,(-26 -43 0 16 13 0 -3 -10)
1969/12/31/18:00:07.374000,(24 55 5 5 4 11 15 11)
1969/12/31/18:00:07.374000,(-15 -31 -8 -5 -8 -10 -9 -12)
1969/12/31/18:00:07.376000,(-72 -45 -12 -22 0 -5 -15 -33)
1969/12/31/18:00:07.376000,(31 8 -3 -16 -6 6 6 4)
1969/12/31/18:00:07.397000,(-11 -17 -5 -4 -8 -8 -8 -6)
1969/12/31/18:00:07.397000,(2 2 -3 10 -1 -6 -9 -8)
1969/12/31/18:00:07.398000,(6 0 1 -4 4 4 10 3)
1969/12/31/18:00:07.398000,(-40 -30 1 8 3 3 7 -1)
1969/12/31/18:00:07.410000,(15 10 -5 -15 -6 2 2 9)
1969/12/31/18:00:07.410000,(6 7 -5 -21 -23 -4 0 3)
1969/12/31/18:00:07.419000,(20 -1 8 36 21 3 7 15)
1969/12/31/18:00:07.419000,(-28 2 -2 4 8 0 -9 -23)
1969/12/31/18:00:07.434000,(24 7 5 8 14 10 13 18)
1969/12/31/18:00:07.434000,(-9 -4 0 4 -1 -1 -2 -4)
1969/12/31/18:00:07.436000,(21 -5 -2 -18 -14 -11 -7 8)
1969/12/31/18:00:07.436000,(-3 23 6 8 12 12 18 7)
1969/12/31/18:00:07.458000,(-56 -38 -11 -7 4 -11 -27 -44)
1969/12/31/18:00:07.458000,(8 15 2 6 -13 -3 -2 -1)
1969/12/31/18:00:07.459000,(-8 -4 -1 -5 7 2 -2 -9)
1969/12/31/18:00:07.459000,(-10 -29 -14 -6 -7 -3 -4 -1)
1969/12/31/18:00:07.470000,(19 21 4 2 -1 2 5 6)
1969/12/31/18:00:07.470000,(-3 -10 11 15 13 6 5 -5)
1969/12/31/18:00:07.479000,(13 26 -8 -15 -7 -6 -11 -5)
1969/12/31/18:00:07.479000,(1 -7 -6 -15 -9 -1 -3 -5)
1969/12/31/18:00:07.494000,(6 -1 4 -1 -20 -16 -7 6)
1969/12/31/18:00:07.494000,(-15 -9 -7 -17 -37 -19 -11 -12)
1969/12/31/18:00:07.496000,(40 34 12 17 27 5 17 30)
1969/12/31/18:00:07.496000,(1 0 3 -3 19 17 5 2)
1969/12/31/18:00:07.517000,(-15 -18 -9 9 12 7 -19 -15)
1969/12/31/18:00:07.517000,(-4 8 10 33 28 27 14 4)
1969/12/31/18:00:07.518000,(-3 2 1 -4 14 22 11 2)
1969/12/31/18:00:07.518000,(-3 -5 -12 -17 -18 -13 -7 10)
1969/12/31/18:00:07.530000,(-23 -9 -1 -2 -13 -15 -5 -20)
1969/12/31/18:00:07.530000,(-20 -11 -11 -8 -14 -31 -35 -25)
1969/12/31/18:00:07.539000,(-24 -22 -6 -11 -28 -20 -13 -13)
1969/12/31/18:00:07.539000,(-7 -11 -18 -36 -30 -22 -16 -15)
1969/12/31/18:00:07.554000,(41 16 4 -1 -9 11 26 42)
1969/12/31/18:00:07.554000,(14 11 -1 -2 13 0 3 5)
1969/12/31/18:00:07.556000,(13 11 -1 14 17 4 5 3)
1969/12/31/18:00:07.556000,(-35 -22 7 4 -18 -7 -17 -24)
1969/12/31/18:00:07.577000,(-17 -23 -6 13 6 -1 -1 -2)
1969/12/31/18:00:07.577000,(5 5 6 22 24 15 11 5)
1969/12/31/18:00:07.578000,(7 3 3 8 4 -1 -1 1)
1969/12/31/18:00:07.578000,(2 10 -2 -5 -2 -1 4 3)
1969/12/31/18:00:07.607000,(24 16 -1 -37 -41 -9 11 15)
1969/12/31/18:00:07.607000,(6 -5 -11 -19 22 0 -3 5)
1969/12/31/18:00:07.608000,(-23 -20 5 21 4 10 6 -8)
1969/12/31/18:00:07.608000,(-7 -6 17 39 25 7 -4 15)
1969/12/31/18:00:07.613000,(3 -7 -3 -3 14 11 1 -7)
1969/12/31/18:00:07.613000,(-10 -12 -4 -4 -5 3 5 -4)
1969/12/31/18:00:07.614000,(2 3 -8 -36 -33 -17 -9 -8)
1969/12/31/18:00:07.614000,(-33 -42 -6 2 -3 -3 0 -10)
1969/12/31/18:00:07.636000,(34 46 2 -8 4 8 12 22)
1969/12/31/18:00:07.636000,(7 7 2 8 1 0 1 6)
1969/12/31/18:00:07.637000,(0 -3 2 5 -3 -2 1 1)
1969/12/31/18:00:07.637000,(19 9 2 -16 -5 5 10 7)
1969/12/31/18:00:07.658000,(-10 -12 -7 -4 9 -2 -5 -4)
1969/12/31/18:00:07.658000,(0 6 1 1 -18 -3 0 -3)
1969/12/31/18:00:07.659000,(25 6 16 39 19 4 0 18)
1969/12/31/18:00:07.659000,(-6 13 5 18 9 1 -7 -22)
1969/12/31/18:00:07.673000,(-29 -18 -6 -1 2 0 -6 -14)
1969/12/31/18:00:07.673000,(26 12 -1 -13 -7 -3 -2 4)
1969/12/31/18:00:07.674000,(-9 -13 -12 -28 -15 -12 -4 -5)
1969/12/31/18:00:07.674000,(-6 -35 -11 -14 -14 -3 5 7)
1969/12/31/18:00:07.696000,(40 55 12 14 13 7 7 13)
1969/12/31/18:00:07.696000,(-16 -25 -14 -48 -48 -29 -12 -7)
1969/12/31/18:00:07.697000,(16 17 2 10 28 17 10 13)
1969/12/31/18:00:07.697000,(2 3 9 31 41 25 7 -4)
1969/12/31/18:00:07.719000,(-11 -14 9 43 30 20 10 2)
1969/12/31/18:00:07.719000,(5 7 1 -15 6 4 8 11)
1969/12/31/18:00:07.719000,(5 9 -9 -17 -32 -15 -8 -5)
1969/12/31/18:00:07.719000,(8 18 2 4 -12 -8 -1 3)
1969/12/31/18:00:07.734000,(-23 -26 3 14 1 -12 -12 -14)
1969/12/31/18:00:07.734000,(0 6 1 14 5 5 3 1)
1969/12/31/18:00:07.734000,(-22 -18 -8 -26 -15 -6 -3 -10)
1969/12/31/18:00:07.734000,(77 68 17 -2 10 10 21 55)
1969/12/31/18:00:07.756000,(-39 -61 -9 -3 -10 -9 -20 -33)
1969/12/31/18:00:07.756000,(20 54 10 14 15 8 8 16)
1969/12/31/18:00:07.757000,(-9 -4 -8 -18 -11 1 0 -5)
1969/12/31/18:00:07.757000,(-5 -8 -4 -18 -40 -28 -11 -6)
1969/12/31/18:00:07.787000,(10 1 -5 -31 8 3 7 12)
1969/12/31/18:00:07.787000,(2 -3 8 44 30 23 7 5)
1969/12/31/18:00:07.788000,(-15 -12 6 -2 14 10 -6 -15)
1969/12/31/18:00:07.788000,(3 10 -8 -6 -26 -28 -6 -6)
1969/12/31/18:00:07.794000,(6 1 -8 -25 -36 -1 4 10)
1969/12/31/18:00:07.794000,(-14 -19 0 -9 16 11 1 -9)
1969/12/31/18:00:07.794000,(3 12 12 49 40 27 5 3)
1969/12/31/18:00:07.794000,(-24 -25 4 33 31 7 -7 -18)
1969/12/31/18:00:07.816000,(24 32 17 4 -8 -12 -2 12)
1969/12/31/18:00:07.816000,(1 7 -7 -4 -11 -10 -6 -4)
1969/12/31/18:00:07.817000,(-37 -40 -8 -17 -9 -13 -11 -18)
1969/12/31/18:00:07.817000,(13 6 -9 -32 -14 -7 -9 -8)
1969/12/31/18:00:07.839000,(0 10 1 12 -3 -1 3 -2)
1969/12/31/18:00:07.839000,(-31 -42 -10 0 -11 -8 -11 -24)
1969/12/31/18:00:07.839000,(5 1 1 -8 -9 -8 -4 5)
1969/12/31/18:00:07.839000,(-13 -7 -7 -7 1 3 -2 -10)
1969/12/31/18:00:07.854000,(-13 -19 -4 -6 -7 -5 -3 -1)
1969/12/31/18:00:07.854000,(-4 -14 0 -14 -6 -3 -2 -2)
1969/12/31/18:00:07.854000,(23 21 -4 -22 -40 -31 -1 12)
1969/12/31/18:00:07.854000,(-18 -22 -18 -42 -17 2 -4 -10)
1969/12/31/18:00:07.892000,(6 7 10 59 69 30 11 8)
1969/12/31/18:00:07.892000,(4 12 29 62 52 38 15 8)
1969/12/31/18:00:07.893000,(1 2 6 23 31 20 1 -5)
1969/12/31/18:00:07.893000,(-2 -9 4 -9 1 8 11 11)
1969/12/31/18:00:07.898000,(-6 3 -12 -45 -43 -28 -12 -7)
1969/12/31/18:00:07.898000,(18 14 1 2 -16 -15 -5 3)
1969/12/31/18:00:07.899000,(6 21 4 -5 -13 -6 -6 -9)
1969/12/31/18:00:07.899000,(13 -12 -3 -5 -7 -3 4 11)
1969/12/31/18:00:07.913000,(0 -5 -9 -13 -4 -1 1 1)
1969/12/31/18:00:07.913000,(-27 -30 -5 1 -1 -5 -11 -11)
1969/12/31/18:00:07.914000,(26 22 6 -1 0 11 22 26)
1969/12/31/18:00:07.914000,(8 14 -1 6 9 5 0 0)
1969/12/31/18:00:07.936000,(-4 -5 -1 -13 -4 -3 -2 -2)
1969/12/31/18:00:07.936000,(-1 4 -2 1 -11 -7 -1 2)
1969/12/31/18:00:07.937000,(-2 13 -5 -8 -18 -9 -7 -1)
1969/12/31/18:00:07.937000,(-12 2 5 31 29 18 7 -2)
1969/12/31/18:00:07.958000,(1 7 11 21 32 12 0 -2)
1969/12/31/18:00:07.958000,(-4 -13 -9 -10 -12 -10 -13 -8)
1969/12/31/18:00:07.959000,(-37 -32 -16 -11 2 3 1 -22)
1969/12/31/18:00:07.959000,(23 22 8 -14 -15 -5 -1 13)
1969/12/31/18:00:07.974000,(-6 -10 -7 -2 -21 -11 -4 -1)
1969/12/31/18:00:07.974000,(-11 -25 -7 -18 2 -7 -4 -2)
1969/12/31/18:00:07.974000,(27 21 7 28 6 3 6 24)
1969/12/31/18:00:07.974000,(-16 -9 0 10 9 -4 -9 -12)
1969/12/31/18:00:07.996000,(-1 8 -4 -4 -6 2 1 -6)
1969/12/31/18:00:07.996000,(31 28 7 -1 7 7 15 21)
1969/12/31/18:00:07.997000,(21 5 1 -8 -3 -5 -8 9)
1969/12/31/18:00:07.997000,(-19 -5 1 1 -1 5 4 -7)
1969/12/31/18:00:08.019000,(13 6 1 2 6 3 7 12)
1969/12/31/18:00:08.019000,(-19 -10 -13 -10 -14 -6 -5 -11)
1969/12/31/18:00:08.019000,(6 2 10 11 9 3 -4 -5)
1969/12/31/18:00:08.019000,(9 17 8 13 21 16 19 18)
1969/12/31/18:00:08.034000,(-16 -21 -12 -22 1 -9 -16 -12)
1969/12/31/18:00:08.034000,(11 10 5 3 -23 0 6 7)
1969/12/31/18:00:08.034000,(-12 -15 -8 -39 -25 -13 -10 -11)
1969/12/31/18:00:08.034000,(11 4 -1 24 11 -7 -3 0)
1969/12/31/18:00:08.056000,(-11 -11 8 34 24 18 5 0)
1969/12/31/18:00:08.056000,(2 28 5 19 29 16 7 3)
1969/12/31/18:00:08.057000,(9 20 4 -3 7 2 2 0)
1969/12/31/18:00:08.057000,(-7 -9 -8 -23 -25 -14 -11 -9)
1969/12/31/18:00:08.079000,(3 3 -7 -32 -31 -13 -2 -1)
1969/12/31/18:00:08.079000,(-8 -16 -6 4 -7 -10 -7 -10)
1969/12/31/18:00:08.079000,(-3 -11 -4 12 3 4 4 5)
1969/12/31/18:00:08.079000,(5 6 0 -6 8 5 2 3)
1969/12/31/18:00:08.095000,(-7 -4 2 10 -3 -3 -7 -8)
1969/12/31/18:00:08.095000,(1 -3 -1 -18 -9 -4 -4 2)
1969/12/31/18:00:08.096000,(-8 -6 2 12 21 2 -2 -2)
1969/12/31/18:00:08.096000,(3 0 -2 -11 -31 1 0 -1)
1969/12/31/18:00:08.116000,(3 1 4 19 11 0 1 1)
1969/12/31/18:00:08.116000,(-4 -3 -2 -18 -25 -12 -6 -6)
1969/12/31/18:00:08.117000,(-4 -2 3 16 30 11 5 0)
1969/12/31/18:00:08.117000,(-1 1 9 19 46 25 6 2)
1969/12/31/18:00:08.139000,(8 9 8 4 -23 1 6 5)
1969/12/31/18:00:08.139000,(4 -4 -30 -25 -18 -28 -9 2)
1969/12/31/18:00:08.140000,(-20 -25 -24 -34 -50 -27 -21 -19)
1969/12/31/18:00:08.140000,(-3 0 3 -7 12 8 3 0)
1969/12/31/18:00:08.154000,(-1 2 9 11 33 18 4 -2)
1969/12/31/18:00:08.154000,(4 7 17 32 29 21 11 6)
1969/12/31/18:00:08.154000,(0 -8 -24 -15 -26 -14 -2 3)
1969/12/31/18:00:08.154000,(-4 -3 10 -11 -28 -22 -11 -7)
1969/12/31/18:00:08.176000,(4 10 -2 -5 0 -3 -2 1)
1969/12/31/18:00:08.176000,(8 -1 1 1 10 4 6 5)
1969/12/31/18:00:08.177000,(-5 -5 -2 6 8 6 0 -2)
1969/12/31/18:00:08.177000,(-6 -8 -18 -2 7 -2 -5 -6)
1969/12/31/18:00:08.199000,(-2 -3 12 5 -1 3 2 -3)
1969/12/31/18:00:08.199000,(-1 4 2 2 2 -1 -4 -2)
1969/12/31/18:00:08.200000,(6 7 12 4 1 4 7 6)
1969/12/31/18:00:08.200000,(0 2 4 0 -22 -15 -5 -2)
1969/12/31/18:00:08.214000,(4 4 5 -15 -18 -11 -7 -1)
1969/12/31/18:00:08.214000,(-1 0 -3 6 13 11 3 0)
1969/12/31/18:00:08.214000,(0 -4 -10 7 23 13 3 1)
1969/12/31/18:00:08.214000,(-9 -9 -8 -1 5 4 0 -4)
1969/12/31/18:00:08.236000,(-5 -3 -10 -10 -7 -5 -4 -2)
1969/12/31/18:00:08.236000,(-3 -2 1 -12 -29 -15 -4 0)
1969/12/31/18:00:08.237000,(-2 7 31 -3 -25 -8 -3 -5)
1969/12/31/18:00:08.237000,(8 2 -23 12 20 1 0 4)
1969/12/31/18:00:08.259000,(-4 -12 -17 -9 18 14 7 2)
1969/12/31/18:00:08.259000,(-8 -1 9 8 21 16 2 -5)
1969/12/31/18:00:08.260000,(-1 -3 -6 -17 -25 -24 -11 -2)
1969/12/31/18:00:08.260000,(-2 1 14 -17 -35 -18 -7 -4)
1969/12/31/18:00:08.273000,(12 14 5 4 -4 2 2 8)
1969/12/31/18:00:08.273000,(6 -3 -17 34 58 24 13 9)
1969/12/31/18:00:08.274000,(-13 -4 19 -3 -2 4 -1 -7)
1969/12/31/18:00:08.274000,(-3 -1 -16 -34 -37 -13 -6 -4)
1969/12/31/18:00:08.296000,(0 -5 -6 8 5 -8 -5 -1)
1969/12/31/18:00:08.296000,(-4 4 32 60 8 -1 0 -4)
1969/12/31/18:00:08.297000,(11 9 11 22 43 28 13 8)
1969/12/31/18:00:08.297000,(3 -6 -16 3 1 2 1 3)
1969/12/31/18:00:08.327000,(-4 -10 -15 -49 -43 -29 -13 -5)
1969/12/31/18:00:08.327000,(-8 -3 -2 -31 -17 -7 -6 -9)
1969/12/31/18:00:08.327000,(5 5 6 16 1 0 3 4)
1969/12/31/18:00:08.327000,(2 2 -4 -16 -13 -6 -3 -1)
1969/12/31/18:00:08.334000,(4 0 -11 8 17 20 9 7)
1969/12/31/18:00:08.334000,(-3 -9 1 -6 4 -3 -4 -2)
1969/12/31/18:00:08.334000,(-10 -5 -9 -15 -3 4 0 -6)
1969/12/31/18:00:08.334000,(-1 -1 2 -12 -29 -18 -6 -2)
1969/12/31/18:00:08.356000,(1 4 5 21 9 -11 -1 0)
1969/12/31/18:00:08.356000,(6 5 -1 4 -12 11 4 5)
1969/12/31/18:00:08.357000,(5 0 -9 -2 57 21 8 3)
1969/12/31/18:00:08.357000,(-4 -6 3 21 3 7 -3 -3)
1969/12/31/18:00:08.379000,(-10 -6 2 3 -7 -12 -7 -10)
1969/12/31/18:00:08.379000,(-4 -2 -4 -15 -16 -7 -7 -6)
1969/12/31/18:00:08.380000,(4 1 -1 27 -2 -5 2 5)
1969/12/31/18:00:08.380000,(1 7 6 -13 15 5 3 -2)
1969/12/31/18:00:08.402000,(-3 -8 -3 3 -7 3 -1 -1)
1969/12/31/18:00:08.402000,(-3 2 8 -17 -7 -6 -3 -2)
1969/12/31/18:00:08.402000,(4 -1 -15 -12 -16 -5 -3 0)
1969/12/31/18:00:08.402000,(-2 -2 -1 1 6 3 0 -3)
1969/12/31/18:00:08.416000,(0 2 2 8 -9 -3 -3 0)
1969/12/31/18:00:08.416000,(4 4 1 -3 8 3 3 4)
1969/12/31/18:00:08.417000,(-6 -5 1 4 -1 1 -1 -4)
1969/12/31/18:00:08.417000,(2 2 -1 3 -1 0 -1 -1)
1969/12/31/18:00:08.439000,(5 3 -1 -7 0 2 7 5)
1969/12/31/18:00:08.439000,(-3 -6 -4 0 6 3 -1 -4)
1969/12/31/18:00:08.440000,(-3 1 3 7 1 -2 -3 -5)
1969/12/31/18:00:08.440000,(-3 -3 -11 -23 -20 -2 -4 -3)
1969/12/31/18:00:08.454000,(2 1 -1 -6 11 -2 0 1)
1969/12/31/18:00:08.454000,(2 5 15 38 11 2 2 0)
1969/12/31/18:00:08.454000,(-11 -11 0 5 -6 -2 -4 -7)
1969/12/31/18:00:08.454000,(8 7 9 28 29 13 7 6)
1969/12/31/18:00:08.476000,(-1 -1 -10 -30 -26 -10 -5 -1)
1969/12/31/18:00:08.476000,(1 -3 -15 -33 -15 -8 -4 0)
1969/12/31/18:00:08.477000,(1 -1 -9 -16 -17 -9 1 2)
1969/12/31/18:00:08.477000,(-2 -5 -1 4 14 3 2 1)
1969/12/31/18:00:08.499000,(-6 -3 2 -4 1 1 -4 -5)
1969/12/31/18:00:08.499000,(4 7 7 16 13 4 5 5)
1969/12/31/18:00:08.500000,(4 1 4 9 1 2 1 2)
1969/12/31/18:00:08.500000,(-6 -3 7 4 4 2 -1 -2)
1969/12/31/18:00:08.513000,(0 0 2 1 2 2 2 -1)
1969/12/31/18:00:08.513000,(-4 -7 -13 -19 -13 -14 -8 -4)
1969/12/31/18:00:08.514000,(-2 -3 -17 -42 -37 -21 -9 -4)
1969/12/31/18:00:08.514000,(3 5 17 26 9 9 6 5)
1969/12/31/18:00:08.536000,(0 0 9 32 33 21 5 1)
1969/12/31/18:00:08.536000,(3 -1 -2 -5 -9 -1 1 2)
1969/12/31/18:00:08.544000,(1 1 -1 4 15 1 -4 -2)
1969/12/31/18:00:08.544000,(-5 -6 -8 -22 -22 -11 -4 -4)
1969/12/31/18:00:08.559000,(-1 0 -6 -6 -19 -11 -8 -3)
1969/12/31/18:00:08.559000,(1 -1 -1 1 3 0 4 2)
1969/12/31/18:00:08.560000,(4 3 4 0 3 5 1 3)
1969/12/31/18:00:08.560000,(-2 -2 0 7 -3 2 2 1)
1969/12/31/18:00:08.574000,(-3 0 3 6 21 2 0 -3)
1969/12/31/18:00:08.574000,(-4 -4 -5 -10 -12 -6 -4 -3)
1969/12/31/18:00:08.574000,(2 0 -4 -7 -2 0 4 3)
1969/12/31/18:00:08.574000,(-1 -5 -7 -15 -52 -25 -10 -5)
1969/12/31/18:00:08.596000,(7 7 -1 4 11 5 9 8)
1969/12/31/18:00:08.596000,(2 3 4 11 33 19 4 2)
1969/12/31/18:00:08.597000,(-9 -3 14 24 23 10 -6 -6)
1969/12/31/18:00:08.597000,(-8 -3 8 10 24 3 -5 -7)
1969/12/31/18:00:08.619000,(-5 -5 -8 -21 -30 -13 -7 -5)
1969/12/31/18:00:08.619000,(10 2 -8 -10 -17 -11 3 5)
1969/12/31/18:00:08.620000,(3 1 -9 -10 -16 -4 1 3)
1969/12/31/18:00:08.620000,(-1 -1 -3 4 3 0 -4 -4)
1969/12/31/18:00:08.634000,(0 -4 4 11 14 5 1 0)
1969/12/31/18:00:08.634000,(-2 0 3 6 9 0 -2 -3)
1969/12/31/18:00:08.634000,(-1 0 0 2 -3 -3 -2 -1)
1969/12/31/18:00:08.634000,(0 2 -2 -7 2 -3 0 -1)
1969/12/31/18:00:08.656000,(-3 -2 -2 -4 -6 0 2 2)
1969/12/31/18:00:08.656000,(-3 -3 -1 -4 -4 1 6 1)
1969/12/31/18:00:08.657000,(0 3 2 0 0 -3 -2 -3)
1969/12/31/18:00:08.657000,(-3 -1 -5 -4 5 2 3 1)
1969/12/31/18:00:08.679000,(0 1 2 1 -7 2 0 0)
1969/12/31/18:00:08.679000,(-5 -2 3 2 3 -1 -4 -4)
1969/12/31/18:00:08.680000,(-3 -3 -5 -5 -21 -7 0 -1)
1969/12/31/18:00:08.680000,(2 1 -3 -1 26 3 1 2)
1969/12/31/18:00:08.702000,(2 2 0 -5 -14 -1 2 1)
1969/12/31/18:00:08.702000,(-2 1 3 12 11 6 1 -1)
1969/12/31/18:00:08.703000,(1 0 0 6 10 1 1 1)
1969/12/31/18:00:08.703000,(1 1 2 12 15 6 2 2)
1969/12/31/18:00:08.716000,(-2 -1 -5 -13 -12 -8 -7 -6)
1969/12/31/18:00:08.716000,(-6 -3 -5 -20 -21 -11 -4 -6)
1969/12/31/18:00:08.717000,(2 1 -1 -2 -15 1 5 2)
1969/12/31/18:00:08.717000,(4 2 2 9 19 5 3 4)
1969/12/31/18:00:08.739000,(-3 0 0 4 1 -2 -2 -4)
1969/12/31/18:00:08.739000,(2 0 -1 -1 -9 -1 -2 0)
1969/12/31/18:00:08.740000,(0 1 2 1 13 4 1 2)
1969/12/31/18:00:08.740000,(-2 -1 2 -1 -2 1 0 -3)
1969/12/31/18:00:08.753000,(-1 -2 -1 -1 1 0 -1 0)
1969/12/31/18:00:08.753000,(-2 -2 -5 -4 -15 -7 -6 -2)
1969/12/31/18:00:08.761000,(2 -2 -6 -8 13 2 6 6)
1969/12/31/18:00:08.761000,(2 0 0 4 -1 3 -1 2)
1969/12/31/18:00:08.776000,(-1 0 2 8 15 3 -1 -1)
1969/12/31/18:00:08.776000,(2 0 0 2 -3 -2 -2 -1)
1969/12/31/18:00:08.776000,(-3 -1 1 -2 -6 -3 -3 -4)
1969/12/31/18:00:08.777000,(0 -2 -1 0 -3 -1 0 1)
1969/12/31/18:00:08.799000,(2 0 -2 0 0 0 0 0)
1969/12/31/18:00:08.799000,(-2 -1 -2 -5 -4 -3 -5 -5)
1969/12/31/18:00:08.800000,(-1 0 0 1 1 -2 -2 -1)
1969/12/31/18:00:08.800000,(0 0 -3 -5 -9 -3 1 -1)
1969/12/31/18:00:08.813000,(0 -1 1 -3 -3 0 0 1)
1969/12/31/18:00:08.813000,(-3 0 2 8 10 5 2 0)
1969/12/31/18:00:08.821000,(1 0 1 4 8 1 -2 -2)
1969/12/31/18:00:08.821000,(-2 -2 -2 -4 -5 0 -2 -1)
1969/12/31/18:00:08.836000,(-1 -2 -2 -2 -7 -2 0 0)
1969/12/31/18:00:08.836000,(0 0 -1 -5 3 -1 2 0)
1969/12/31/18:00:08.837000,(-2 -1 0 1 0 1 -5 -4)
1969/12/31/18:00:08.837000,(2 1 -1 1 -1 0 1 2)
1969/12/31/18:00:08.860000,(3 -1 0 -1 -2 0 5 5)
1969/12/31/18:00:08.860000,(0 0 -2 -5 -3 -2 0 1)
1969/12/31/18:00:08.860000,(-3 -3 -4 -1 -8 -1 1 -1)
1969/12/31/18:00:08.860000,(2 2 2 5 7 1 2 2)
1969/12/31/18:00:08.873000,(-1 1 1 -4 -11 -5 -2 -1)
1969/12/31/18:00:08.873000,(-3 -3 -1 0 15 -1 -2 -3)
1969/12/31/18:00:08.881000,(0 -1 1 0 -7 -1 -1 -1)
1969/12/31/18:00:08.881000,(-3 -3 -3 -1 1 -1 -3 -4)
1969/12/31/18:00:08.896000,(-1 0 0 3 3 0 1 -1)
1969/12/31/18:00:08.896000,(1 0 -1 -2 -8 -1 0 1)
1969/12/31/18:00:08.897000,(1 1 -1 -2 -1 -3 0 -1)
1969/12/31/18:00:08.897000,(-2 -1 -2 0 4 0 -2 -2)
1969/12/31/18:00:08.919000,(-1 -3 -2 -3 -3 -2 -5 -3)
1969/12/31/18:00:08.919000,(1 0 -2 2 -1 -1 6 4)
1969/12/31/18:00:08.920000,(0 0 1 2 6 0 -2 -2)
1969/12/31/18:00:08.920000,(-1 0 0 -1 -3 1 0 1)
1969/12/31/18:00:08.933000,(-2 -1 -2 -1 3 -1 -2 -1)
1969/12/31/18:00:08.933000,(1 -2 0 -3 -4 -1 -3 -1)
1969/12/31/18:00:08.941000,(0 0 -1 1 -2 -1 0 1)
1969/12/31/18:00:08.941000,(0 -1 1 -1 3 -1 0 -1)
1969/12/31/18:00:08.956000,(-1 1 -1 0 1 0 -2 -2)
1969/12/31/18:00:08.956000,(0 0 1 -1 1 0 -2 0)
1969/12/31/18:00:08.957000,(0 2 0 -1 -6 -1 2 2)
1969/12/31/18:00:08.957000,(-2 -1 -1 -2 -2 2 -2 -3)
1969/12/31/18:00:08.979000,(1 -3 0 1 2 0 -1 0)
1969/12/31/18:00:08.979000,(-3 -2 -2 -1 -3 -1 -4 -3)
1969/12/31/18:00:08.980000,(1 1 0 -4 -6 -3 1 0)
1969/12/31/18:00:08.980000,(1 1 1 3 3 1 1 1)
1969/12/31/18:00:08.993000,(0 -1 2 6 8 2 1 0)
1969/12/31/18:00:08.993000,(-2 0 1 -1 -4 -2 -1 -1)
1969/12/31/18:00:09.002000,(-2 -2 -1 0 1 0 -3 -3)
1969/12/31/18:00:09.002000,(1 -1 -1 -4 -5 -2 -1 1)
1969/12/31/18:00:09.015000,(0 1 0 -1 -4 1 -1 -1)
1969/12/31/18:00:09.015000,(1 -2 0 -2 1 -1 0 1)
1969/12/31/18:00:09.024000,(-1 -2 0 0 2 0 -1 -2)
1969/12/31/18:00:09.024000,(-1 -3 -2 0 -1 -2 -1 -1)
1969/12/31/18:00:09.039000,(-2 0 0 0 1 0 -2 -2)
1969/12/31/18:00:09.039000,(-1 0 0 0 -2 2 -2 -2)
1969/12/31/18:00:09.041000,(1 0 -2 -2 0 0 2 2)
1969/12/31/18:00:09.041000,(1 0 -1 -1 -3 -1 0 1)
1969/12/31/18:00:09.062000,(-1 -2 0 0 0 -1 0 -2)
1969/12/31/18:00:09.062000,(-1 -1 0 -3 -1 -2 -2 0)
1969/12/31/18:00:09.063000,(-2 -1 0 1 1 -1 -2 -1)
1969/12/31/18:00:09.063000,(-1 1 -2 0 -1 0 -1 0)
1969/12/31/18:00:09.075000,(1 -1 -2 -2 -2 -2 1 1)
1969/12/31/18:00:09.075000,(-1 0 -1 0 -3 -1 0 -1)
1969/12/31/18:00:09.084000,(1 -1 0 0 0 0 -2 0)
1969/12/31/18:00:09.084000,(-1 -2 -2 -1 -1 0 -2 0)
1969/12/31/18:00:09.099000,(0 1 1 -2 -1 1 -2 0)
1969/12/31/18:00:09.099000,(-2 -1 -2 -1 0 -1 -1 1)
1969/12/31/18:00:09.101000,(-1 -2 0 -1 -1 0 -2 0)
1969/12/31/18:00:09.101000,(-1 0 -1 -2 -3 -1 0 0)
1969/12/31/18:00:09.122000,(0 -1 -2 -2 -1 -1 0 1)
1969/12/31/18:00:09.122000,(0 -1 0 0 1 -1 0 0)
1969/12/31/18:00:09.123000,(0 1 -2 -1 2 0 -1 -1)
1969/12/31/18:00:09.123000,(-1 -1 -1 0 1 -1 -2 -1)
1969/12/31/18:00:09.135000,(-2 -1 0 -1 -1 1 -1 -1)
1969/12/31/18:00:09.135000,(0 -1 -2 -3 -6 -1 3 1)
1969/12/31/18:00:09.144000,(0 0 0 3 8 0 -1 -3)
1969/12/31/18:00:09.144000,(0 0 -2 0 -1 -1 1 0)
1969/12/31/18:00:09.159000,(-2 -1 -1 -3 -3 -2 -3 -1)
1969/12/31/18:00:09.159000,(-1 0 0 3 -1 -1 -4 -3)
1969/12/31/18:00:09.161000,(1 1 0 2 1 1 2 1)
1969/12/31/18:00:09.161000,(0 0 1 -2 1 -3 -2 -3)
1969/12/31/18:00:09.182000,(-1 0 -1 -2 -2 -3 1 0)
1969/12/31/18:00:09.182000,(-1 -2 0 -2 1 -1 -1 0)
1969/12/31/18:00:09.183000,(0 -2 0 1 3 4 -1 0)
1969/12/31/18:00:09.183000,(0 1 -1 3 0 1 -1 1)
1969/12/31/18:00:09.195000,(-2 -2 -4 -2 -1 -2 -1 0)
1969/12/31/18:00:09.195000,(-1 0 -2 -2 -4 0 -1 -2)
1969/12/31/18:00:09.204000,(-1 -1 -1 1 3 0 -1 -1)
1969/12/31/18:00:09.204000,(-3 -2 -1 -1 -4 -1 1 0)
1969/12/31/18:00:09.219000,(0 -1 0 1 0 -1 -2 0)
1969/12/31/18:00:09.219000,(-2 0 0 -2 -1 -1 -1 0)
1969/12/31/18:00:09.221000,(-2 0 -2 -3 -5 -1 2 2)
1969/12/31/18:00:09.221000,(-1 1 -2 -1 0 1 -1 -2)
1969/12/31/18:00:09.242000,(1 -1 -2 -1 -2 0 1 0)
1969/12/31/18:00:09.242000,(1 -2 -1 0 2 -1 1 0)
1969/12/31/18:00:09.243000,(0 1 0 -1 -5 -1 -1 0)
1969/12/31/18:00:09.243000,(1 0 1 -1 -1 -1 0 0)
1969/12/31/18:00:09.255000,(0 0 -1 2 2 1 0 0)
1969/12/31/18:00:09.255000,(-2 1 0 -2 -1 -1 0 -1)
1969/12/31/18:00:09.264000,(-1 0 0 -2 -3 -1 -3 -1)
1969/12/31/18:00:09.264000,(-2 -1 -2 0 0 0 2 -1)
1969/12/31/18:00:09.279000,(0 0 1 -3 -5 0 1 -1)
1969/12/31/18:00:09.279000,(0 0 -1 1 2 0 1 0)
1969/12/31/18:00:09.281000,(-2 0 -1 2 5 1 1 -1)
1969/12/31/18:00:09.281000,(1 0 1 -1 3 2 -2 -1)
1969/12/31/18:00:09.302000,(0 0 -2 -1 2 0 -2 0)
1969/12/31/18:00:09.302000,(1 -1 0 -2 -4 0 3 1)
1969/12/31/18:00:09.303000,(-2 -3 -1 0 -3 -2 -3 -2)
1969/12/31/18:00:09.303000,(0 -1 -2 -1 -1 -1 0 1)
1969/12/31/18:00:09.315000,(0 0 0 -2 -4 -1 0 1)
1969/12/31/18:00:09.315000,(0 0 0 0 2 1 0 2)
1969/12/31/18:00:09.315000,(-2 -1 -2 0 1 1 1 -2)
1969/12/31/18:00:09.315000,(-2 -2 0 0 0 -1 1 0)
1969/12/31/18:00:09.324000,(-1 -2 -1 0 -4 -2 -1 0)
1969/12/31/18:00:09.324000,(0 0 -1 -1 -1 0 0 0)
1969/12/31/18:00:09.339000,(2 0 -2 0 0 -1 -2 0)
1969/12/31/18:00:09.339000,(-1 -1 1 1 0 1 -1 1)
1969/12/31/18:00:09.340000,(1 -1 0 0 1 -1 -1 -2)
1969/12/31/18:00:09.340000,(-2 -2 -1 -1 -3 -2 -1 -2)
1969/12/31/18:00:09.352000,(-1 0 -2 1 1 2 -1 1)
1969/12/31/18:00:09.352000,(-1 0 -1 -2 -4 -1 -2 0)
1969/12/31/18:00:09.369000,(0 -1 -1 2 1 0 -2 -3)
1969/12/31/18:00:09.369000,(-2 -4 -1 -1 0 0 -1 -2)
1969/12/31/18:00:09.375000,(-2 -1 1 -1 0 1 2 0)
1969/12/31/18:00:09.375000,(0 -1 0 -1 2 0 -2 -1)
1969/12/31/18:00:09.382000,(0 0 -2 -1 0 0 1 0)
1969/12/31/18:00:09.382000,(1 2 0 0 -2 2 3 2)
1969/12/31/18:00:09.399000,(1 0 1 1 -1 -2 -1 0)
1969/12/31/18:00:09.399000,(0 1 1 0 -1 0 0 0)
1969/12/31/18:00:09.400000,(-1 -1 -2 -1 -1 -1 -1 0)
1969/12/31/18:00:09.400000,(2 0 -2 -3 -3 3 1 0)
1969/12/31/18:00:09.412000,(4 5 2 5 0 -3 -2 1)
1969/12/31/18:00:09.412000,(-5 -4 0 -1 0 3 -1 -2)
1969/12/31/18:00:09.421000,(0 0 1 -2 -1 -2 -1 1)
1969/12/31/18:00:09.421000,(-2 -1 -1 1 0 -1 -3 -1)
1969/12/31/18:00:09.435000,(0 -1 -1 -2 -3 0 1 1)
1969/12/31/18:00:09.435000,(1 0 0 -2 -1 -2 -1 -1)
1969/12/31/18:00:09.442000,(-1 -1 -2 -3 -4 -1 -2 0)
1969/12/31/18:00:09.442000,(-2 -2 -2 0 -1 -3 -1 -1)
1969/12/31/18:00:09.459000,(-1 -1 0 -1 -2 -2 -1 -3)
1969/12/31/18:00:09.459000,(-1 -1 -1 -1 -2 1 0 2)
1969/12/31/18:00:09.460000,(-3 -2 -1 -1 0 1 0 -1)
1969/12/31/18:00:09.460000,(1 2 2 1 -1 -2 -1 1)
1969/12/31/18:00:09.472000,(-2 -2 -3 -2 -3 -2 -2 -4)
1969/12/31/18:00:09.472000,(0 -4 -1 2 1 1 0 0)
1969/12/31/18:00:09.481000,(2 1 0 1 2 4 3 1)
1969/12/31/18:00:09.481000,(1 1 1 1 1 1 0 -1)
1969/12/31/18:00:09.504000,(-2 0 -3 -4 -3 -1 -1 -2)
1969/12/31/18:00:09.504000,(-1 0 -2 5 5 -1 0 -1)
1969/12/31/18:00:09.505000,(-2 -1 2 0 -2 0 -2 -1)
1969/12/31/18:00:09.505000,(0 -1 2 0 -2 -2 -2 -4)
1969/12/31/18:00:09.519000,(-1 0 -1 -1 -2 -1 0 0)
1969/12/31/18:00:09.519000,(0 1 -4 -4 -6 -6 -2 1)
1969/12/31/18:00:09.520000,(0 0 0 0 2 0 0 0)
1969/12/31/18:00:09.520000,(0 -1 -2 -2 0 0 0 0)
1969/12/31/18:00:09.532000,(-1 -2 -1 -2 0 1 -1 1)
1969/12/31/18:00:09.532000,(-1 1 -1 -2 -1 -1 -1 0)
1969/12/31/18:00:09.541000,(3 0 0 2 0 -1 0 1)
1969/12/31/18:00:09.541000,(-2 -1 1 1 0 -2 -1 0)
1969/12/31/18:00:09.564000,(0 -1 1 -2 1 0 0 -1)
1969/12/31/18:00:09.564000,(-2 0 1 -1 -1 -1 0 -2)
1969/12/31/18:00:09.565000,(-2 -2 -2 -4 -3 -1 -1 -3)
1969/12/31/18:00:09.565000,(0 -2 -4 0 1 0 0 1)
1969/12/31/18:00:09.579000,(3 1 -2 1 1 1 1 1)
1969/12/31/18:00:09.579000,(-1 0 1 0 2 2 -2 -2)
1969/12/31/18:00:09.580000,(1 0 0 0 1 1 -1 0)
1969/12/31/18:00:09.580000,(-1 -1 1 -2 0 2 2 2)
1969/12/31/18:00:09.609000,(1 -2 -2 0 -2 -2 1 0)
1969/12/31/18:00:09.609000,(1 -3 0 -1 -2 -1 -1 -2)
1969/12/31/18:00:09.610000,(0 -2 0 1 3 2 2 1)
1969/12/31/18:00:09.610000,(1 2 3 -1 0 -2 -1 0)
1969/12/31/18:00:09.616000,(-2 0 0 -2 0 1 1 -2)
1969/12/31/18:00:09.616000,(0 0 -3 -1 -2 0 1 -1)
1969/12/31/18:00:09.618000,(0 1 -1 0 -1 -4 -4 0)
1969/12/31/18:00:09.618000,(1 0 0 2 1 0 1 0)
1969/12/31/18:00:09.639000,(-1 0 0 -2 -2 0 0 -1)
1969/12/31/18:00:09.639000,(-1 -1 -5 -4 -5 -3 -1 -2)
1969/12/31/18:00:09.640000,(1 1 4 4 2 2 -1 0)
1969/12/31/18:00:09.640000,(2 2 2 2 4 5 3 1)
1969/12/31/18:00:09.661000,(-2 0 -1 -1 -1 -1 -2 -2)
1969/12/31/18:00:09.661000,(1 -1 -2 -5 -3 0 -2 1)
1969/12/31/18:00:09.663000,(1 -1 -5 0 -7 -5 0 -1)
1969/12/31/18:00:09.663000,(1 -3 0 -2 1 0 -2 0)
1969/12/31/18:00:09.676000,(-1 0 5 2 3 4 3 0)
1969/12/31/18:00:09.676000,(-1 1 0 2 3 0 -1 0)
1969/12/31/18:00:09.682000,(0 1 0 -2 -1 1 -1 1)
1969/12/31/18:00:09.682000,(-3 -1 -5 -6 -9 -5 -2 0)
1969/12/31/18:00:09.699000,(2 2 1 5 3 0 -1 1)
1969/12/31/18:00:09.699000,(-3 -2 -1 -4 -2 -1 -2 -2)
1969/12/31/18:00:09.700000,(3 2 0 -3 -6 -2 1 1)
1969/12/31/18:00:09.700000,(-9 -7 0 5 8 2 -4 -4)
1969/12/31/18:00:09.721000,(0 -2 -3 -14 -11 -4 0 -1)
1969/12/31/18:00:09.721000,(4 -1 -18 -23 -16 -5 -2 2)
1969/12/31/18:00:09.723000,(3 1 11 11 14 3 1 1)
1969/12/31/18:00:09.723000,(-6 5 13 40 7 1 -3 -7)
1969/12/31/18:00:09.735000,(-2 -8 1 16 20 8 0 0)
1969/12/31/18:00:09.735000,(-2 2 6 -4 -9 -1 -1 -5)
1969/12/31/18:00:09.742000,(-1 -7 -21 -41 -13 -3 1 2)
1969/12/31/18:00:09.742000,(2 -5 -8 -34 -17 -7 -3 0)
1969/12/31/18:00:09.759000,(-2 -1 2 40 10 3 1 1)
1969/12/31/18:00:09.759000,(3 4 6 26 28 6 2 3)
1969/12/31/18:00:09.760000,(3 2 3 5 -5 0 0 2)
1969/12/31/18:00:09.760000,(-8 -8 -5 -7 -21 -12 -7 -9)
1969/12/31/18:00:09.781000,(-1 -3 -15 -40 -22 -8 -1 1)
1969/12/31/18:00:09.781000,(-2 -3 0 -10 6 1 1 -2)
1969/12/31/18:00:09.783000,(-6 -5 -9 9 14 8 4 -3)
1969/12/31/18:00:09.783000,(-2 -7 14 14 14 3 -1 1)
1969/12/31/18:00:09.795000,(-9 7 14 23 -1 -7 -7 -7)
1969/12/31/18:00:09.795000,(13 11 5 -23 -2 6 7 8)
1969/12/31/18:00:09.804000,(3 1 -9 7 -11 -4 -2 -3)
1969/12/31/18:00:09.804000,(3 1 -4 -9 -7 -4 0 2)
1969/12/31/18:00:09.819000,(4 0 -7 -9 -5 -4 -5 -3)
1969/12/31/18:00:09.819000,(-9 -17 -7 -24 -18 -7 -3 -5)
1969/12/31/18:00:09.821000,(10 17 12 -7 -17 -8 3 7)
1969/12/31/18:00:09.821000,(7 6 0 47 53 12 -2 2)
1969/12/31/18:00:09.841000,(-13 -12 20 10 7 9 2 -4)
1969/12/31/18:00:09.841000,(-10 -4 2 14 -3 -9 -3 -7)
1969/12/31/18:00:09.843000,(-9 -15 -36 -61 -36 -20 -14 -8)
1969/12/31/18:00:09.843000,(3 11 0 -59 -32 3 9 4)
1969/12/31/18:00:09.855000,(7 8 15 82 39 15 6 2)
1969/12/31/18:00:09.855000,(7 9 27 46 39 8 -3 4)
1969/12/31/18:00:09.864000,(-13 -3 7 -48 -57 -19 -8 -11)
1969/12/31/18:00:09.864000,(4 -5 -32 -30 -4 1 6 4)
1969/12/31/18:00:09.878000,(6 -8 -16 53 26 11 8 9)
1969/12/31/18:00:09.878000,(-3 -1 -5 -19 -27 -10 -1 0)
1969/12/31/18:00:09.880000,(2 8 13 0 1 -4 2 1)
1969/12/31/18:00:09.880000,(1 -3 2 -8 14 5 -4 1)
1969/12/31/18:00:09.901000,(-2 14 21 -29 -12 5 5 -2)
1969/12/31/18:00:09.901000,(-1 -11 -43 10 -5 -12 -6 -3)
1969/12/31/18:00:09.903000,(-2 -3 27 8 20 8 -2 0)
1969/12/31/18:00:09.903000,(-1 3 17 43 -5 -1 1 -2)
1969/12/31/18:00:09.915000,(-4 -5 -4 -19 5 -7 -4 -4)
1969/12/31/18:00:09.915000,(8 9 -6 -22 -17 -3 2 4)
1969/12/31/18:00:09.924000,(-6 -13 -39 -77 -40 -8 -3 -4)
1969/12/31/18:00:09.924000,(-4 0 25 92 50 7 -2 -1)
1969/12/31/18:00:09.939000,(2 13 24 4 19 6 -2 0)
1969/12/31/18:00:09.939000,(-2 2 -3 -13 -10 -2 -1 -4)
1969/12/31/18:00:09.940000,(10 6 -21 -24 -8 0 7 4)
1969/12/31/18:00:09.940000,(0 -16 -17 2 -14 -7 -5 1)
1969/12/31/18:00:09.961000,(-11 -9 0 -28 -1 -5 -4 -6)
1969/12/31/18:00:09.961000,(2 4 15 18 9 8 2 2)
1969/12/31/18:00:09.963000,(-5 -1 20 83 42 14 1 1)
1969/12/31/18:00:09.963000,(0 4 -9 -38 -6 0 2 -1)
1969/12/31/18:00:09.975000,(5 -3 -24 -28 -33 -12 -3 3)
1969/12/31/18:00:09.975000,(-4 -4 4 -3 6 6 1 1)
1969/12/31/18:00:09.984000,(-1 -2 3 34 20 3 1 -2)
1969/12/31/18:00:09.984000,(-2 0 -10 -35 -11 -6 -2 -4)
1969/12/31/18:00:09.999000,(1 -1 -5 -42 -31 -7 -3 2)
1969/12/31/18:00:09.999000,(-1 -1 7 40 19 2 2 0)
1969/12/31/18:00:10.000000,(-4 0 7 26 19 5 1 -1)
1969/12/31/18:00:10.000000,(1 3 -2 -26 -19 -4 0 1)
1969/12/31/18:00:10.021000,(0 -3 -11 0 -3 -5 -2 -5)
1969/12/31/18:00:10.021000,(2 1 2 -19 -6 1 0 1)
1969/12/31/18:00:10.029000,(-3 -2 7 35 21 4 -2 0)
1969/12/31/18:00:10.029000,(3 5 3 -21 -7 -3 1 1)
1969/12/31/18:00:10.035000,(1 0 -5 7 -7 -4 -1 0)
1969/12/31/18:00:10.035000,(-6 -5 -3 -2 -3 -2 -3 -5)
1969/12/31/18:00:10.044000,(3 0 -4 -16 -1 1 3 3)
1969/12/31/18:00:10.044000,(-3 2 6 21 0 3 2 -2)
1969/12/31/18:00:10.059000,(-2 0 3 27 9 -1 -2 -4)
1969/12/31/18:00:10.059000,(3 2 1 0 2 4 3 3)
1969/12/31/18:00:10.060000,(-5 -2 2 4 2 -4 -5 -6)
1969/12/31/18:00:10.060000,(2 1 -1 -7 -16 -3 -1 1)
1969/12/31/18:00:10.089000,(1 0 -5 -2 1 0 0 0)
1969/12/31/18:00:10.089000,(-3 -2 2 5 8 3 0 -3)
1969/12/31/18:00:10.090000,(1 0 1 5 -1 0 -2 0)
1969/12/31/18:00:10.090000,(-5 -5 -9 -35 -17 -6 -2 -3)
1969/12/31/18:00:10.095000,(4 4 5 27 2 0 2 4)
1969/12/31/18:00:10.095000,(-1 -2 -2 -4 -2 -2 -2 -1)
1969/12/31/18:00:10.104000,(-1 1 1 -3 1 2 3 0)
1969/12/31/18:00:10.104000,(2 0 4 24 7 1 -2 0)
1969/12/31/18:00:10.118000,(-1 -3 -8 -27 -4 -2 1 0)
1969/12/31/18:00:10.118000,(-8 -5 2 1 -1 2 -1 -4)
1969/12/31/18:00:10.125000,(10 6 1 7 -1 -3 2 7)
1969/12/31/18:00:10.125000,(-1 -2 -1 -9 0 4 5 -2)
1969/12/31/18:00:10.142000,(-8 -4 -4 -12 -6 -5 -9 -8)
1969/12/31/18:00:10.142000,(4 0 -3 -2 -1 -1 -1 2)
1969/12/31/18:00:10.143000,(-10 -3 5 7 8 5 -2 -7)
1969/12/31/18:00:10.143000,(-2 -4 -2 1 -1 -4 0 9)
1969/12/31/18:00:10.155000,(35 25 6 -3 7 13 17 17)
1969/12/31/18:00:10.155000,(-24 -16 0 7 -3 -8 -16 -26)
1969/12/31/18:00:10.164000,(8 2 -1 -2 -3 -2 0 5)
1969/12/31/18:00:10.164000,(-5 3 1 6 3 4 4 -4)
1969/12/31/18:00:10.178000,(-10 -14 -11 -15 -7 -4 -5 1)
1969/12/31/18:00:10.178000,(13 9 0 -5 -4 -1 3 9)
1969/12/31/18:00:10.185000,(-1 -3 -3 7 4 0 0 -1)
1969/12/31/18:00:10.185000,(-12 -6 1 1 3 -2 -6 -11)
1969/12/31/18:00:10.201000,(1 1 1 -11 -7 0 1 2)
1969/12/31/18:00:10.201000,(1 3 2 6 1 1 0 0)
1969/12/31/18:00:10.203000,(-4 -2 3 13 8 3 -4 -3)
1969/12/31/18:00:10.203000,(4 2 -1 4 4 0 0 3)
1969/12/31/18:00:10.215000,(-7 -5 -6 -13 -3 -5 -7 -6)
1969/12/31/18:00:10.215000,(1 0 -3 -1 6 0 2 3)
1969/12/31/18:00:10.224000,(-3 -2 2 -10 -11 -2 -1 -3)
1969/12/31/18:00:10.224000,(-18 -2 10 35 17 3 2 -1)
1969/12/31/18:00:10.238000,(19 2 0 -8 -4 -2 -1 0)
1969/12/31/18:00:10.238000,(-13 -13 -3 -5 -10 -8 -11 -10)
1969/12/31/18:00:10.252000,(0 0 -7 -14 -2 -1 4 8)
1969/12/31/18:00:10.252000,(30 18 7 -8 -6 3 2 5)
1969/12/31/18:00:10.261000,(-33 -19 -10 -8 -11 -17 -21 -27)
1969/12/31/18:00:10.261000,(1 4 2 0 2 2 5 4)
1969/12/31/18:00:10.262000,(-5 -7 -7 -9 -13 -5 -1 -2)
1969/12/31/18:00:10.262000,(1 -3 -8 -16 -5 -2 0 5)
1969/12/31/18:00:10.275000,(4 5 4 19 11 10 11 9)
1969/12/31/18:00:10.275000,(12 7 9 33 18 9 5 6)
1969/12/31/18:00:10.284000,(-12 -1 11 27 13 3 -3 -9)
1969/12/31/18:00:10.284000,(3 2 -5 -9 -7 -2 -1 1)
1969/12/31/18:00:10.298000,(0 -2 -7 -19 -9 -1 -1 1)
1969/12/31/18:00:10.298000,(-2 0 -6 -21 -8 -1 3 2)
1969/12/31/18:00:10.305000,(4 1 -2 -2 0 -2 -1 -2)
1969/12/31/18:00:10.305000,(-1 -2 -3 0 -2 -4 -9 -6)
1969/12/31/18:00:10.329000,(0 1 1 -17 0 0 7 6)
1969/12/31/18:00:10.329000,(6 2 1 7 0 -3 -6 5)
1969/12/31/18:00:10.330000,(-19 -7 1 0 3 2 2 -3)
1969/12/31/18:00:10.330000,(6 5 -5 -3 -6 -4 -7 -11)
1969/12/31/18:00:10.335000,(23 15 8 32 16 10 10 12)
1969/12/31/18:00:10.335000,(8 6 3 -3 3 1 2 6)
1969/12/31/18:00:10.344000,(4 -1 -19 -60 -24 -11 -8 -3)
1969/12/31/18:00:10.344000,(-10 -10 -8 8 -16 -8 -5 -5)
1969/12/31/18:00:10.358000,(-6 -2 0 -33 -14 -4 -2 -1)
1969/12/31/18:00:10.358000,(-4 1 12 72 15 4 1 -7)
1969/12/31/18:00:10.365000,(11 9 28 82 44 16 5 5)
1969/12/31/18:00:10.365000,(-7 -4 2 -16 11 7 3 0)
1969/12/31/18:00:10.381000,(2 -5 -13 -15 -13 -8 -9 1)
1969/12/31/18:00:10.381000,(-7 -3 -18 -85 -21 0 -1 -7)
1969/12/31/18:00:10.383000,(0 -3 -7 -2 -18 -5 0 0)
1969/12/31/18:00:10.383000,(-9 -5 6 27 2 -9 -2 1)
1969/12/31/18:00:10.395000,(-2 -2 4 15 6 3 -7 -21)
1969/12/31/18:00:10.395000,(-6 -6 -6 -23 -12 -6 -7 0)
1969/12/31/18:00:10.404000,(10 1 -10 -30 -9 -4 -1 4)
1969/12/31/18:00:10.404000,(-2 -1 -6 -3 1 0 -4 -4)
1969/12/31/18:00:10.418000,(-6 -2 -2 -1 1 -2 -2 7)
1969/12/31/18:00:10.418000,(7 0 -14 -38 -23 -6 6 7)
1969/12/31/18:00:10.425000,(3 8 24 78 22 4 -2 0)
1969/12/31/18:00:10.425000,(-3 0 13 -1 24 11 7 -2)
1969/12/31/18:00:10.441000,(-12 1 9 39 5 9 13 12)
1969/12/31/18:00:10.441000,(12 1 -1 11 7 -7 -16 -9)
1969/12/31/18:00:10.443000,(-1 1 -5 -24 -6 -2 -1 2)
1969/12/31/18:00:10.443000,(5 0 -11 -48 -33 -14 -6 1)
1969/12/31/18:00:10.455000,(-16 -16 -25 -87 -28 -11 -2 -8)
1969/12/31/18:00:10.455000,(-5 -2 2 41 5 4 3 0)
1969/12/31/18:00:10.464000,(1 4 7 47 29 10 7 1)
1969/12/31/18:00:10.464000,(-1 1 16 47 19 9 5 3)
1969/12/31/18:00:10.478000,(0 1 4 -6 -3 -3 -7 -5)
1969/12/31/18:00:10.478000,(3 2 6 -20 -17 -5 2 5)
1969/12/31/18:00:10.485000,(-4 -4 -8 -10 -5 0 -2 -4)
1969/12/31/18:00:10.485000,(-14 -9 -11 -11 -3 -7 -11 -11)
1969/12/31/18:00:10.501000,(27 13 -6 -9 -4 7 14 11)
1969/12/31/18:00:10.501000,(-6 -3 3 -7 2 4 4 -2)
1969/12/31/18:00:10.503000,(2 0 -4 -3 -5 -2 2 2)
1969/12/31/18:00:10.503000,(-8 -8 -3 13 6 -1 -2 1)
1969/12/31/18:00:10.524000,(4 6 15 41 12 4 8 14)
1969/12/31/18:00:10.524000,(-22 -16 -6 7 5 -6 -11 -18)
1969/12/31/18:00:10.525000,(2 4 1 -29 -6 4 2 0)
1969/12/31/18:00:10.525000,(29 14 -6 -12 -10 0 9 20)
1969/12/31/18:00:10.537000,(-12 -12 -8 4 3 -5 -8 -10)
1969/12/31/18:00:10.537000,(-15 -3 -3 -1 0 -1 0 -1)
1969/12/31/18:00:10.546000,(10 1 5 10 8 12 17 15)
1969/12/31/18:00:10.546000,(-9 -6 3 16 2 0 -4 -10)
1969/12/31/18:00:10.561000,(-3 1 3 16 20 0 -1 -1)
1969/12/31/18:00:10.561000,(4 4 -5 -25 -14 0 1 0)
1969/12/31/18:00:10.563000,(-16 -7 -3 -5 -16 -11 -9 -10)
1969/12/31/18:00:10.563000,(20 11 3 5 4 2 6 11)
1969/12/31/18:00:10.584000,(-3 -1 2 0 5 0 -3 -7)
1969/12/31/18:00:10.584000,(0 -2 -5 0 -1 -9 -6 4)
1969/12/31/18:00:10.585000,(-15 -14 -9 -17 -5 -12 -21 -24)
1969/12/31/18:00:10.585000,(0 -3 -3 -11 -6 1 1 3)
1969/12/31/18:00:10.606000,(1 1 -1 -3 -11 -2 1 6)
1969/12/31/18:00:10.606000,(-7 -5 3 9 8 4 6 4)
1969/12/31/18:00:10.608000,(54 38 2 -3 2 5 11 27)
1969/12/31/18:00:10.608000,(-20 -16 -7 -9 -7 -7 -12 -17)
1969/12/31/18:00:10.621000,(-9 -8 -4 0 -3 -6 -11 -12)
1969/12/31/18:00:10.621000,(5 2 6 13 2 4 6 8)
1969/12/31/18:00:10.623000,(-19 -16 -3 -6 -1 -7 -12 -22)
1969/12/31/18:00:10.623000,(0 4 3 -5 3 11 15 14)
1969/12/31/18:00:10.643000,(31 14 3 5 0 4 6 10)
1969/12/31/18:00:10.644000,(-3 0 2 7 5 0 -4 -10)
1969/12/31/18:00:10.645000,(-7 -13 -5 -10 -6 -6 -5 0)
1969/12/31/18:00:10.645000,(-3 0 -3 -3 -5 -6 -7 -6)
1969/12/31/18:00:10.657000,(-19 -11 -1 2 -2 -5 -10 -12)
1969/12/31/18:00:10.657000,(6 2 1 3 5 4 4 1)
1969/12/31/18:00:10.666000,(-2 -3 1 -1 -1 5 4 -2)
1969/12/31/18:00:10.666000,(0 3 1 1 0 9 19 4)
1969/12/31/18:00:10.681000,(19 10 6 0 -4 -15 -14 18)
1969/12/31/18:00:10.681000,(-7 -6 -11 -13 -9 -8 -12 -13)
1969/12/31/18:00:10.683000,(7 8 2 0 3 9 12 13)
1969/12/31/18:00:10.683000,(-2 -2 -3 -4 10 3 3 0)
1969/12/31/18:00:10.704000,(-1 0 0 9 -11 5 12 2)
1969/12/31/18:00:10.704000,(4 3 5 14 12 0 -1 -1)
1969/12/31/18:00:10.705000,(5 3 -2 -6 -2 -1 0 1)
1969/12/31/18:00:10.705000,(2 4 5 5 6 7 7 6)
1969/12/31/18:00:10.717000,(-15 -5 -4 -12 -8 -6 -7 -13)
1969/12/31/18:00:10.717000,(13 9 1 14 -7 1 4 14)
1969/12/31/18:00:10.726000,(-10 -7 -3 4 6 -3 -2 -7)
1969/12/31/18:00:10.726000,(17 10 -1 -9 -4 -8 -8 5)
1969/12/31/18:00:10.741000,(-18 -11 -4 4 -4 -5 -8 -15)
1969/12/31/18:00:10.741000,(6 4 -1 -11 6 4 7 5)
1969/12/31/18:00:10.743000,(-4 0 7 11 -1 4 4 3)
1969/12/31/18:00:10.743000,(1 -1 0 5 -1 -6 -11 -6)
1969/12/31/18:00:10.764000,(-7 -5 -2 -6 3 -1 -4 -5)
1969/12/31/18:00:10.764000,(-1 1 -2 -9 0 2 0 -1)
1969/12/31/18:00:10.765000,(1 2 -5 -10 -6 -7 -6 -2)
1969/12/31/18:00:10.765000,(8 1 -1 -7 -7 1 6 2)
1969/12/31/18:00:10.777000,(-6 -4 0 6 7 6 3 2)
1969/12/31/18:00:10.777000,(-6 -5 1 7 1 -3 -7 -8)
1969/12/31/18:00:10.786000,(-10 -10 -11 -23 -11 -8 -12 -9)
1969/12/31/18:00:10.786000,(5 8 7 9 -1 7 9 5)
1969/12/31/18:00:10.801000,(-5 0 5 9 9 -1 -4 -3)
1969/12/31/18:00:10.801000,(27 18 5 2 -2 8 16 25)
1969/12/31/18:00:10.803000,(-21 -13 -13 -52 -18 -11 -16 -18)
1969/12/31/18:00:10.803000,(0 -2 -6 6 -4 -3 -3 -5)
1969/12/31/18:00:10.824000,(-3 -4 -2 12 -3 0 -3 -6)
1969/12/31/18:00:10.824000,(-7 -3 10 30 10 2 -4 -5)
1969/12/31/18:00:10.825000,(-3 -3 9 38 16 13 14 6)
1969/12/31/18:00:10.825000,(-14 -8 -16 -71 -25 -22 -24 -15)
1969/12/31/18:00:10.837000,(14 11 1 18 -2 6 16 12)
1969/12/31/18:00:10.837000,(9 6 -1 -15 4 1 2 4)
1969/12/31/18:00:10.846000,(-13 -12 -18 -30 -3 -15 -18 -14)
1969/12/31/18:00:10.846000,(-3 -7 15 99 -19 16 9 2)
1969/12/31/18:00:10.861000,(-8 4 29 73 30 -6 -8 -5)
1969/12/31/18:00:10.861000,(-6 4 19 34 21 13 11 -3)
1969/12/31/18:00:10.863000,(10 3 -3 -13 -1 1 9 10)
1969/12/31/18:00:10.863000,(-7 -5 -24 -81 -5 -13 -10 -5)
1969/12/31/18:00:10.884000,(4 -6 -31 -82 -39 -9 0 1)
1969/12/31/18:00:10.884000,(-8 -12 -16 -53 -36 -10 -3 -3)
1969/12/31/18:00:10.886000,(3 3 7 45 10 1 0 2)
1969/12/31/18:00:10.886000,(4 3 19 67 23 4 -1 0)
1969/12/31/18:00:10.898000,(0 5 7 5 23 14 8 3)
1969/12/31/18:00:10.898000,(-18 -12 -30 -74 -51 -26 -21 -20)
1969/12/31/18:00:10.906000,(20 11 10 75 10 8 11 18)
1969/12/31/18:00:10.906000,(-3 1 14 7 25 11 4 -1)
1969/12/31/18:00:10.921000,(0 -1 8 62 38 11 3 0)
1969/12/31/18:00:10.921000,(-2 -3 -1 -9 -4 -5 -2 -4)
1969/12/31/18:00:10.923000,(-14 -12 -12 -62 -39 -10 -5 -11)
1969/12/31/18:00:10.923000,(-4 -8 -22 -23 -25 -7 -4 -1)
1969/12/31/18:00:10.944000,(8 11 18 41 -22 -1 2 5)
1969/12/31/18:00:10.944000,(11 18 27 57 52 14 9 9)
1969/12/31/18:00:10.946000,(0 1 3 7 9 6 1 -3)
1969/12/31/18:00:10.946000,(-6 -9 -15 -34 26 4 5 2)
1969/12/31/18:00:10.957000,(-2 -10 -36 -128 -55 -13 -5 -4)
1969/12/31/18:00:10.957000,(2 -5 -12 19 -28 -6 0 5)
1969/12/31/18:00:10.966000,(0 3 14 20 21 0 -2 -1)
1969/12/31/18:00:10.966000,(-8 -2 12 45 14 -5 -8 -9)
1969/12/31/18:00:10.981000,(-2 -2 -1 9 5 2 2 0)
1969/12/31/18:00:10.981000,(-3 4 10 36 14 8 5 -1)
1969/12/31/18:00:10.983000,(8 0 -8 -41 3 0 -3 4)
1969/12/31/18:00:10.983000,(-4 0 -1 2 -6 -2 -2 1)
1969/12/31/18:00:11.004000,(-16 -13 -1 17 -1 1 -4 -16)
1969/12/31/18:00:11.004000,(-7 -11 -9 -38 4 -5 -9 -5)
1969/12/31/18:00:11.006000,(-1 -3 -16 -40 -28 -4 4 2)
1969/12/31/18:00:11.006000,(-2 -2 -2 11 -18 -11 -9 -6)
1969/12/31/18:00:11.026000,(15 14 19 44 31 8 9 10)
1969/12/31/18:00:11.026000,(4 3 -11 -60 -7 3 1 3)
1969/12/31/18:00:11.028000,(-3 -5 -8 44 -18 -10 -8 -7)
1969/12/31/18:00:11.028000,(2 4 28 94 35 7 2 1)
1969/12/31/18:00:11.041000,(-6 0 0 -9 -9 2 -3 -2)
1969/12/31/18:00:11.041000,(-1 -1 13 53 3 3 4 -2)
1969/12/31/18:00:11.043000,(9 12 10 -14 10 6 10 5)
1969/12/31/18:00:11.043000,(-13 -15 -25 -59 -20 -18 -23 -22)
1969/12/31/18:00:11.064000,(25 15 -1 -20 11 7 15 29)
1969/12/31/18:00:11.064000,(-21 -21 -18 -17 -25 -8 -11 -14)
1969/12/31/18:00:11.065000,(21 14 5 8 -3 1 11 13)
1969/12/31/18:00:11.065000,(15 9 1 -15 5 3 11 16)
1969/12/31/18:00:11.077000,(-14 -7 -8 -28 -8 -7 -11 -13)
1969/12/31/18:00:11.077000,(5 4 5 -2 -8 -3 1 5)
1969/12/31/18:00:11.086000,(1 3 6 15 12 6 6 7)
1969/12/31/18:00:11.086000,(7 6 2 1 5 4 3 3)
1969/12/31/18:00:11.100000,(1 -2 4 14 7 0 0 0)
1969/12/31/18:00:11.100000,(-4 -2 2 11 10 3 2 -2)
1969/12/31/18:00:11.107000,(-11 -2 5 5 2 -8 -15 -11)
1969/12/31/18:00:11.107000,(-1 2 -6 -30 -14 2 5 -7)
1969/12/31/18:00:11.124000,(-9 -9 -10 -7 -9 -6 -4 -4)
1969/12/31/18:00:11.124000,(9 0 -2 1 7 -2 0 6)
1969/12/31/18:00:11.125000,(6 6 0 -22 -11 -4 -8 2)
1969/12/31/18:00:11.125000,(-11 -8 -2 4 -3 -1 1 -6)
1969/12/31/18:00:11.137000,(-25 -19 -1 11 6 -1 -5 -13)
1969/12/31/18:00:11.137000,(44 34 15 21 14 10 16 31)
1969/12/31/18:00:11.146000,(12 3 -7 -9 -5 -6 -7 -8)
1969/12/31/18:00:11.146000,(1 -2 -4 -29 -13 -1 0 4)
1969/12/31/18:00:11.161000,(16 7 -5 -4 -2 -4 -1 0)
1969/12/31/18:00:11.161000,(-23 -15 -5 4 6 -3 -4 -11)
1969/12/31/18:00:11.169000,(-7 -3 8 21 1 3 6 11)
1969/12/31/18:00:11.169000,(12 12 4 4 9 0 -3 -1)
1969/12/31/18:00:11.184000,(-19 -13 -1 -5 -5 3 2 -3)
1969/12/31/18:00:11.184000,(-6 -3 -5 -10 -1 -4 -6 -9)
1969/12/31/18:00:11.185000,(2 -1 -5 -4 4 0 -1 -1)
1969/12/31/18:00:11.185000,(-8 -5 -4 -1 -9 -2 3 -3)
1969/12/31/18:00:11.197000,(-15 -15 -4 -6 -3 -10 -11 -3)
1969/12/31/18:00:11.197000,(49 41 0 4 2 4 9 23)
1969/12/31/18:00:11.206000,(-18 -19 -5 0 0 2 -2 -14)
1969/12/31/18:00:11.206000,(-4 -5 1 -5 -6 -9 -10 1)
1969/12/31/18:00:11.221000,(-4 -1 -4 -4 3 2 -1 -5)
1969/12/31/18:00:11.221000,(-7 -8 1 1 -3 0 0 2)
1969/12/31/18:00:11.227000,(-14 -9 -2 3 6 -3 -1 -6)
1969/12/31/18:00:11.227000,(6 7 4 1 -3 2 5 6)
1969/12/31/18:00:11.244000,(4 1 -3 -22 -16 -4 1 0)
1969/12/31/18:00:11.244000,(-9 -10 -12 -37 -3 -7 -7 -7)
1969/12/31/18:00:11.245000,(9 7 3 28 5 9 10 12)
1969/12/31/18:00:11.245000,(-17 -10 8 42 21 3 -5 -12)
1969/12/31/18:00:11.257000,(14 15 18 41 20 15 20 14)
1969/12/31/18:00:11.257000,(-34 -30 1 -1 -3 -3 -12 -22)
1969/12/31/18:00:11.266000,(-11 -5 -14 -41 -15 -9 -14 -22)
1969/12/31/18:00:11.266000,(3 -1 -14 -45 -24 -5 -2 -1)
1969/12/31/18:00:11.280000,(4 -1 -10 -4 -1 -3 1 4)
1969/12/31/18:00:11.280000,(-13 -7 16 15 -6 12 12 -2)
1969/12/31/18:00:11.287000,(-23 -28 12 60 32 -8 -13 0)
1969/12/31/18:00:11.287000,(-2 7 -8 -3 -3 -7 -19 -23)
1969/12/31/18:00:11.304000,(8 -1 -41 -112 -60 -18 -14 -9)
1969/12/31/18:00:11.304000,(9 6 7 72 16 3 8 9)
1969/12/31/18:00:11.305000,(2 11 28 62 52 23 14 1)
1969/12/31/18:00:11.305000,(-14 -13 -3 1 -8 -13 -17 -8)
1969/12/31/18:00:11.318000,(11 7 4 10 5 3 8 12)
1969/12/31/18:00:11.318000,(4 1 -10 -34 -22 -11 -16 -8)
1969/12/31/18:00:11.326000,(1 4 -7 -35 0 3 10 4)
1969/12/31/18:00:11.326000,(8 -12 12 31 10 16 19 20)
1969/12/31/18:00:11.341000,(23 31 -4 -24 -35 -11 -8 -3)
1969/12/31/18:00:11.341000,(-3 -10 -13 -5 -1 -10 -6 -7)
1969/12/31/18:00:11.348000,(-14 4 14 28 12 9 12 8)
1969/12/31/18:00:11.348000,(-19 -13 -2 -12 22 9 2 -13)
1969/12/31/18:00:11.364000,(-12 -14 0 22 15 -11 -19 -7)
1969/12/31/18:00:11.364000,(27 19 11 -5 -13 9 14 22)
1969/12/31/18:00:11.365000,(-4 -5 -22 -75 -35 -13 -10 -8)
1969/12/31/18:00:11.365000,(8 5 -6 7 -11 -1 5 9)
1969/12/31/18:00:11.377000,(26 18 25 52 26 19 19 20)
1969/12/31/18:00:11.377000,(-18 -10 -17 -68 -12 -6 -2 -14)
1969/12/31/18:00:11.386000,(-5 -12 -3 1 -16 -10 -13 -2)
1969/12/31/18:00:11.386000,(21 19 21 37 28 19 27 24)
1969/12/31/18:00:11.400000,(-11 -11 12 28 21 2 -9 -9)
1969/12/31/18:00:11.400000,(-11 1 4 7 11 7 2 -4)
1969/12/31/18:00:11.409000,(26 16 -5 -19 -8 0 3 7)
1969/12/31/18:00:11.409000,(-15 -9 -14 -28 -33 -10 -3 -11)
1969/12/31/18:00:11.424000,(16 12 7 10 15 4 9 20)
1969/12/31/18:00:11.424000,(-6 -11 -6 2 2 -6 -11 -9)
1969/12/31/18:00:11.425000,(-22 -7 3 13 0 3 0 -8)
1969/12/31/18:00:11.425000,(22 17 8 5 8 7 2 3)
1969/12/31/18:00:11.437000,(-7 -7 -7 -16 -9 1 -1 -7)
1969/12/31/18:00:11.437000,(10 6 -12 -47 -4 -5 0 5)
1969/12/31/18:00:11.446000,(1 -2 -1 40 -19 -14 -12 -7)
1969/12/31/18:00:11.446000,(-6 -3 21 48 28 10 14 14)
1969/12/31/18:00:11.460000,(-17 -7 -1 -4 -2 -4 -9 -15)
1969/12/31/18:00:11.460000,(0 -3 0 3 -5 0 1 2)
1969/12/31/18:00:11.469000,(-4 -9 -15 -21 8 -2 -2 -4)
1969/12/31/18:00:11.469000,(0 4 4 16 2 -1 -1 2)
1969/12/31/18:00:11.484000,(-3 -2 9 35 25 8 5 1)
1969/12/31/18:00:11.484000,(-5 -2 0 14 12 -2 -8 -6)
1969/12/31/18:00:11.485000,(-16 -14 -10 -54 -35 -4 -1 -12)
1969/12/31/18:00:11.485000,(28 20 -9 -29 -19 -2 15 36)
1969/12/31/18:00:11.506000,(-21 -11 -1 21 2 -8 -18 -32)
1969/12/31/18:00:11.506000,(-18 -17 8 26 21 10 0 -6)
1969/12/31/18:00:11.508000,(12 24 -5 -67 -18 7 11 8)
1969/12/31/18:00:11.508000,(-1 -9 -10 26 -11 -8 -6 -3)
1969/12/31/18:00:11.520000,(0 2 7 11 -11 -7 -1 -5)
1969/12/31/18:00:11.520000,(-7 -5 5 21 9 4 3 2)
1969/12/31/18:00:11.529000,(10 5 10 32 17 1 -2 2)
1969/12/31/18:00:11.529000,(-1 7 3 -19 9 -1 -6 -8)
1969/12/31/18:00:11.544000,(-2 -10 -8 -15 -2 3 9 13)
1969/12/31/18:00:11.544000,(13 23 3 12 -15 -8 -8 -5)
1969/12/31/18:00:11.545000,(-5 -10 -4 -3 7 1 -1 -4)
1969/12/31/18:00:11.545000,(-4 -7 -16 -42 -19 -5 -5 -6)
1969/12/31/18:00:11.566000,(-12 -10 -5 -1 -8 -5 -3 -5)
1969/12/31/18:00:11.566000,(4 3 -2 -57 -43 -7 4 9)
1969/12/31/18:00:11.568000,(10 6 0 42 24 3 4 6)
1969/12/31/18:00:11.568000,(-6 -5 4 14 25 3 -5 -8)
1969/12/31/18:00:11.580000,(-3 -3 1 17 5 3 -1 -2)
1969/12/31/18:00:11.580000,(13 11 6 15 7 3 3 4)
1969/12/31/18:00:11.589000,(-7 -7 0 -11 -15 -4 -3 -7)
1969/12/31/18:00:11.589000,(4 -1 -25 -87 -35 -13 -10 -6)
1969/12/31/18:00:11.604000,(3 -3 1 21 11 4 5 6)
1969/12/31/18:00:11.604000,(0 -2 7 34 9 -1 -2 -1)
1969/12/31/18:00:11.605000,(-3 -4 3 -2 0 4 9 5)
1969/12/31/18:00:11.605000,(1 7 2 23 9 -6 -9 -7)
1969/12/31/18:00:11.626000,(-22 -19 -8 -38 -10 -9 -12 -15)
1969/12/31/18:00:11.626000,(9 -2 -8 -2 -6 2 5 3)
1969/12/31/18:00:11.628000,(6 -1 -15 -81 -64 -21 -8 0)
1969/12/31/18:00:11.628000,(-5 -6 -10 25 -4 -13 -3 2)
1969/12/31/18:00:11.640000,(-4 5 26 83 56 15 4 -1)
1969/12/31/18:00:11.640000,(-1 4 21 61 78 42 18 9)
1969/12/31/18:00:11.649000,(5 5 6 21 33 23 8 4)
1969/12/31/18:00:11.649000,(-7 -9 -9 -52 -34 -9 -8 -10)
1969/12/31/18:00:11.664000,(16 7 -25 -78 -58 -18 0 9)
1969/12/31/18:00:11.664000,(-8 -7 -1 20 -4 -15 -8 -5)
1969/12/31/18:00:11.665000,(-3 2 4 9 5 -7 -5 -4)
1969/12/31/18:00:11.665000,(-6 -7 0 -7 -6 -3 -6 -6)
1969/12/31/18:00:11.686000,(16 21 9 7 9 15 21 14)
1969/12/31/18:00:11.686000,(8 4 -5 -24 -9 -5 -5 2)
1969/12/31/18:00:11.688000,(-3 -6 -1 7 5 1 1 2)
1969/12/31/18:00:11.688000,(-5 -2 6 17 -1 0 0 -5)
1969/12/31/18:00:11.700000,(1 3 -3 -10 2 1 0 4)
1969/12/31/18:00:11.700000,(10 -4 -5 -37 -22 -7 -2 9)
1969/12/31/18:00:11.709000,(-6 -5 -9 0 8 -5 -4 -9)
1969/12/31/18:00:11.709000,(3 3 14 53 25 12 7 8)
1969/12/31/18:00:11.724000,(-4 0 5 7 12 2 -5 -9)
1969/12/31/18:00:11.724000,(-6 -2 0 4 -4 1 1 -4)
1969/12/31/18:00:11.725000,(0 -3 1 5 1 0 1 4)
1969/12/31/18:00:11.725000,(1 2 -5 -33 -8 -1 -1 -4)
1969/12/31/18:00:11.746000,(-3 -8 -12 -17 -13 -7 -4 -3)
1969/12/31/18:00:11.746000,(-32 -24 -9 -2 -6 -7 -10 -20)
1969/12/31/18:00:11.748000,(3 2 1 6 0 3 2 1)
1969/12/31/18:00:11.748000,(0 2 1 -4 4 3 2 1)
1969/12/31/18:00:11.760000,(6 3 -3 -3 -5 -3 -2 2)
1969/12/31/18:00:11.760000,(-10 -6 -6 0 1 -5 -1 -6)
1969/12/31/18:00:11.769000,(-9 -3 3 7 -2 -1 -2 -3)
1969/12/31/18:00:11.769000,(24 11 8 7 8 6 7 15)
1969/12/31/18:00:11.784000,(-7 -6 -5 -13 -7 -6 -11 -10)
1969/12/31/18:00:11.784000,(5 4 -3 -11 -8 0 3 3)
1969/12/31/18:00:11.785000,(-12 -16 -2 7 -3 0 -1 0)
1969/12/31/18:00:11.785000,(16 22 9 10 9 12 17 16)
1969/12/31/18:00:11.806000,(16 7 10 10 13 8 6 12)
1969/12/31/18:00:11.806000,(-10 4 -6 -9 -7 -4 -3 -8)
1969/12/31/18:00:11.808000,(14 4 -3 -6 -9 -7 -12 -9)
1969/12/31/18:00:11.808000,(-12 -12 -9 -16 -11 -3 -4 -5)
1969/12/31/18:00:11.820000,(-1 -3 -8 -13 -6 1 5 2)
1969/12/31/18:00:11.820000,(2 0 7 42 21 4 2 1)
1969/12/31/18:00:11.829000,(2 2 9 16 -2 0 -4 0)
1969/12/31/18:00:11.829000,(-4 -1 -2 -14 1 1 0 -4)
1969/12/31/18:00:11.844000,(-2 -3 -12 -47 -20 -8 -7 -4)
1969/12/31/18:00:11.844000,(-1 0 -3 4 -3 -6 -2 -2)
1969/12/31/18:00:11.845000,(1 3 5 18 15 5 6 2)
1969/12/31/18:00:11.845000,(-16 -13 1 9 1 -1 -10 -13)
1969/12/31/18:00:11.866000,(-3 -3 -3 -9 -2 2 6 4)
1969/12/31/18:00:11.866000,(24 19 0 -11 -4 -1 0 6)
1969/12/31/18:00:11.868000,(1 3 0 -5 -3 -4 -1 1)
1969/12/31/18:00:11.868000,(-14 -12 -6 2 -2 -5 -6 -9)
1969/12/31/18:00:11.880000,(-3 -2 -1 2 -1 -1 -2 -4)
1969/12/31/18:00:11.880000,(-5 -7 -3 -6 0 1 0 0)
1969/12/31/18:00:11.889000,(18 14 -1 5 3 6 10 15)
1969/12/31/18:00:11.889000,(-7 -7 -8 -40 -2 -3 -3 -5)
1969/12/31/18:00:11.903000,(-5 -5 -8 -5 -21 -8 -7 -6)
1969/12/31/18:00:11.903000,(-3 -2 7 15 -9 -5 -2 0)
1969/12/31/18:00:11.910000,(-7 -2 11 50 41 7 0 -2)
1969/12/31/18:00:11.910000,(4 2 7 15 15 9 7 5)
1969/12/31/18:00:11.926000,(4 5 1 -6 0 2 -2 1)
1969/12/31/18:00:11.926000,(-4 -7 -14 -42 -12 -2 0 -1)
1969/12/31/18:00:11.928000,(5 2 -7 -30 -48 -7 3 5)
1969/12/31/18:00:11.928000,(2 4 6 43 17 0 1 4)
1969/12/31/18:00:11.940000,(0 0 5 19 31 5 -1 -3)
1969/12/31/18:00:11.940000,(-3 2 15 36 17 5 -1 -4)
1969/12/31/18:00:11.949000,(-1 4 14 -6 -2 -1 0 -1)
1969/12/31/18:00:11.949000,(1 -6 -39 -21 -17 -17 -11 -3)
1969/12/31/18:00:11.964000,(-7 -12 13 -21 -44 -6 2 -1)
1969/12/31/18:00:11.964000,(-11 -7 -12 7 39 8 -4 -6)
1969/12/31/18:00:11.965000,(3 -7 -26 -19 22 15 7 3)
1969/12/31/18:00:11.965000,(-16 -9 1 -18 -4 -1 -3 -9)
1969/12/31/18:00:11.986000,(8 17 32 33 -10 0 4 4)
1969/12/31/18:00:11.986000,(17 22 28 10 -6 0 9 12)
1969/12/31/18:00:11.988000,(1 0 -7 5 4 -4 -6 1)
1969/12/31/18:00:11.988000,(-2 -16 -53 -68 -32 -26 -13 -6)
1969/12/31/18:00:12.000000,(-21 -22 -23 -11 -23 -17 -15 -17)
1969/12/31/18:00:12.000000,(-3 -2 3 38 29 7 4 1)
1969/12/31/18:00:12.009000,(-2 11 39 50 40 13 2 -5)
1969/12/31/18:00:12.009000,(8 10 9 26 10 28 16 9)
1969/12/31/18:00:12.024000,(8 3 0 -24 -5 2 6 6)
1969/12/31/18:00:12.024000,(3 -2 -17 -35 -36 -21 -8 3)
1969/12/31/18:00:12.025000,(-3 -7 -2 -11 -11 -13 -8 -4)
1969/12/31/18:00:12.025000,(-8 4 24 -6 -2 6 2 -5)
1969/12/31/18:00:12.046000,(9 8 -21 -1 4 8 6 7)
1969/12/31/18:00:12.046000,(-2 -11 -15 33 15 -6 -4 -1)
1969/12/31/18:00:12.048000,(-9 -4 17 4 -3 -2 -1 -2)
1969/12/31/18:00:12.048000,(-2 5 17 30 1 -1 -4 -4)
1969/12/31/18:00:12.060000,(3 -2 -16 -23 12 -2 -2 1)
1969/12/31/18:00:12.060000,(-9 -7 0 -40 -39 -6 -4 -8)
1969/12/31/18:00:12.069000,(5 11 17 28 -3 6 8 5)
1969/12/31/18:00:12.069000,(11 3 -2 10 14 11 6 5)
1969/12/31/18:00:12.085000,(-5 -14 -38 -53 -7 -13 -5 -1)
1969/12/31/18:00:12.085000,(-11 -9 -8 -40 -40 -22 -9 -11)
1969/12/31/18:00:12.090000,(0 3 2 41 4 -13 -7 -2)
1969/12/31/18:00:12.090000,(-1 5 16 -2 19 23 8 1)
1969/12/31/18:00:12.106000,(10 10 15 111 78 26 11 9)
1969/12/31/18:00:12.106000,(-4 -1 23 12 7 6 -2 -3)
1969/12/31/18:00:12.108000,(-4 -4 -11 -45 -32 -6 1 -1)
1969/12/31/18:00:12.108000,(1 1 -5 -26 -28 -23 -8 1)
1969/12/31/18:00:12.120000,(-6 -5 -13 -38 -16 -7 -7 -7)
1969/12/31/18:00:12.120000,(5 3 3 11 -2 8 9 7)
1969/12/31/18:00:12.129000,(-1 3 6 -16 -17 -1 -4 -4)
1969/12/31/18:00:12.129000,(4 -2 -19 24 18 -4 -1 3)
1969/12/31/18:00:12.143000,(-9 -8 15 13 6 1 -2 -8)
1969/12/31/18:00:12.143000,(1 5 5 1 4 9 2 2)
1969/12/31/18:00:12.150000,(-4 -8 -20 -26 -5 -11 -5 -3)
1969/12/31/18:00:12.150000,(-2 -5 -4 -40 -27 -9 -2 -4)
1969/12/31/18:00:12.166000,(-2 3 -4 -47 -40 -7 0 -1)
1969/12/31/18:00:12.166000,(1 2 9 64 40 3 -1 1)
1969/12/31/18:00:12.168000,(4 -2 3 52 46 21 11 7)
1969/12/31/18:00:12.168000,(-6 -3 9 20 27 6 -1 -3)
1969/12/31/18:00:12.180000,(5 8 9 -19 -12 2 3 4)
1969/12/31/18:00:12.180000,(-7 -11 -15 -39 -31 -10 -4 -6)
1969/12/31/18:00:12.196000,(5 4 -14 -35 -19 -6 3 2)
1969/12/31/18:00:12.196000,(2 -3 11 41 19 -1 -2 1)
1969/12/31/18:00:12.203000,(0 4 7 -15 -6 3 0 1)
1969/12/31/18:00:12.203000,(-1 -5 -18 -25 -15 -5 -3 -1)
1969/12/31/18:00:12.210000,(-2 -1 3 14 7 3 -1 -1)
1969/12/31/18:00:12.210000,(0 0 -5 -18 -15 -6 -3 -1)
1969/12/31/18:00:12.226000,(-4 -4 5 23 -7 -8 -3 -5)
1969/12/31/18:00:12.226000,(-3 1 9 -5 35 10 0 -4)
1969/12/31/18:00:12.228000,(-2 -2 -22 -18 -12 -5 -4 -4)
1969/12/31/18:00:12.228000,(14 7 17 12 -4 4 11 13)
1969/12/31/18:00:12.240000,(-14 -2 19 45 24 -9 -15 -14)
1969/12/31/18:00:12.240000,(1 5 13 8 8 6 5 2)
1969/12/31/18:00:12.249000,(7 -4 -29 -46 -17 -5 0 5)
1969/12/31/18:00:12.249000,(2 -4 -25 -62 -36 -6 1 -1)
1969/12/31/18:00:12.262000,(2 2 7 11 -45 -16 -6 0)
1969/12/31/18:00:12.262000,(-8 -3 13 81 93 25 2 -5)
1969/12/31/18:00:12.270000,(2 3 13 13 34 9 -3 -3)
1969/12/31/18:00:12.270000,(-9 -3 11 32 6 2 -3 -6)
1969/12/31/18:00:12.285000,(2 -1 -13 -33 -11 -4 1 3)
1969/12/31/18:00:12.285000,(7 1 -20 -55 -49 -11 -2 4)
1969/12/31/18:00:12.286000,(-8 -3 1 -25 -31 -12 -5 -7)
1969/12/31/18:00:12.286000,(14 8 0 17 18 6 7 9)
1969/12/31/18:00:12.308000,(-13 -9 9 32 35 11 -5 -9)
1969/12/31/18:00:12.308000,(3 4 -5 -7 -14 -3 3 2)
1969/12/31/18:00:12.309000,(5 2 3 12 7 2 -1 4)
1969/12/31/18:00:12.309000,(-6 -7 -16 -41 -30 -14 -7 -6)
1969/12/31/18:00:12.322000,(7 9 9 7 5 8 9 6)
1969/12/31/18:00:12.322000,(7 1 -6 3 -6 1 7 5)
1969/12/31/18:00:12.331000,(-8 -6 2 -4 -3 -2 -5 -7)
1969/12/31/18:00:12.331000,(-2 -1 -2 -17 -6 -2 -2 -2)
1969/12/31/18:00:12.345000,(6 2 -2 15 8 8 3 2)
1969/12/31/18:00:12.345000,(-2 0 3 11 14 1 -1 -3)
1969/12/31/18:00:12.346000,(-4 -2 -1 -13 -13 -6 -2 -3)
1969/12/31/18:00:12.346000,(-4 -4 2 24 9 2 -2 -2)
1969/12/31/18:00:12.368000,(8 7 -7 -6 9 3 3 5)
1969/12/31/18:00:12.368000,(-2 -4 -15 -56 -50 -18 -6 -4)
1969/12/31/18:00:12.369000,(3 1 9 33 15 9 7 7)
1969/12/31/18:00:12.369000,(-4 -1 3 18 19 3 -3 -3)
1969/12/31/18:00:12.391000,(-2 2 3 4 11 4 2 0)
1969/12/31/18:00:12.391000,(5 5 3 4 -8 0 0 2)
1969/12/31/18:00:12.392000,(1 -3 -9 -3 -3 -2 -1 0)
1969/12/31/18:00:12.392000,(-6 -2 6 -7 -9 -5 -3 -4)
1969/12/31/18:00:12.405000,(0 0 -7 -1 3 1 1 -2)
1969/12/31/18:00:12.405000,(2 -4 -13 -30 -26 -6 -1 -1)
1969/12/31/18:00:12.406000,(-3 -2 0 -10 5 0 -2 -3)
1969/12/31/18:00:12.406000,(0 6 23 43 20 5 0 -1)
1969/12/31/18:00:12.428000,(1 -4 -6 0 6 1 2 1)
1969/12/31/18:00:12.428000,(-2 -1 0 -1 2 -2 -6 -4)
1969/12/31/18:00:12.429000,(-4 -4 -4 -8 -7 -4 -8 -4)
1969/12/31/18:00:12.429000,(3 2 -5 -12 -11 -2 4 4)
1969/12/31/18:00:12.442000,(0 -3 -4 -1 -5 -3 -1 1)
1969/12/31/18:00:12.442000,(0 1 -1 2 -2 2 1 2)
1969/12/31/18:00:12.451000,(-1 0 -2 -4 7 1 3 1)
1969/12/31/18:00:12.451000,(-3 -1 5 13 10 4 -1 -2)
1969/12/31/18:00:12.465000,(-4 -2 -1 8 -1 -5 -4 -2)
1969/12/31/18:00:12.466000,(0 -1 -4 -15 -4 1 2 2)
1969/12/31/18:00:12.466000,(2 1 4 14 -5 -2 3 3)
1969/12/31/18:00:12.466000,(-5 -2 0 -3 -3 -1 -2 -3)
1969/12/31/18:00:12.488000,(-1 -1 -2 1 5 0 0 -1)
1969/12/31/18:00:12.488000,(1 -1 -3 -10 3 -1 -3 0)
1969/12/31/18:00:12.489000,(-1 -2 -4 -7 -10 -4 -1 0)
1969/12/31/18:00:12.489000,(-5 -4 -6 -13 -6 -1 -5 -5)
1969/12/31/18:00:12.504000,(-6 -6 -1 -4 -17 -4 -2 -1)
1969/12/31/18:00:12.504000,(6 9 13 31 32 8 3 3)
1969/12/31/18:00:12.511000,(0 3 10 8 8 6 0 -2)
1969/12/31/18:00:12.511000,(0 -2 -2 2 -4 -1 -2 -3)
1969/12/31/18:00:12.525000,(0 1 -6 -20 -6 -4 -4 -2)
1969/12/31/18:00:12.526000,(-3 -1 9 -8 -14 -6 -1 0)
1969/12/31/18:00:12.526000,(3 5 -14 -9 -4 -2 1 3)
1969/12/31/18:00:12.526000,(7 -1 -8 -10 -7 -6 -2 4)
1969/12/31/18:00:12.548000,(-8 -1 0 0 7 3 1 -7)
1969/12/31/18:00:12.548000,(-10 -14 -4 6 0 -2 -4 -4)
1969/12/31/18:00:12.555000,(14 14 11 8 7 9 7 10)
1969/12/31/18:00:12.555000,(-16 -12 -5 -6 -9 -6 -12 -19)
1969/12/31/18:00:12.562000,(6 5 3 2 3 0 -1 5)
1969/12/31/18:00:12.562000,(-4 -2 2 10 5 4 2 -1)
1969/12/31/18:00:12.571000,(-9 -10 -5 -8 -6 -6 -6 -5)
1969/12/31/18:00:12.571000,(4 3 2 0 4 3 5 6)
1969/12/31/18:00:12.586000,(4 2 3 5 2 0 2 1)
1969/12/31/18:00:12.586000,(2 1 -3 -3 -2 -1 0 0)
1969/12/31/18:00:12.586000,(0 -4 -3 -5 -6 -3 -2 -3)
1969/12/31/18:00:12.586000,(3 4 4 4 3 1 1 0)
1969/12/31/18:00:12.608000,(-1 -1 1 3 1 1 3 3)
1969/12/31/18:00:12.608000,(1 1 -2 -2 -3 -1 -1 0)
1969/12/31/18:00:12.609000,(-3 -4 -3 -6 -2 0 0 -2)
1969/12/31/18:00:12.609000,(2 3 4 5 2 0 1 -1)
1969/12/31/18:00:12.623000,(-2 -1 -2 -2 0 0 -6 -2)
1969/12/31/18:00:12.623000,(-4 -2 -5 -2 0 1 -2 -4)
1969/12/31/18:00:12.624000,(-2 -1 -1 -1 -5 -6 -9 -9)
1969/12/31/18:00:12.624000,(-2 -1 1 3 2 3 9 4)
1969/12/31/18:00:12.645000,(4 1 0 0 4 5 6 9)
1969/12/31/18:00:12.645000,(3 2 0 0 0 -1 -1 0)
1969/12/31/18:00:12.646000,(-4 -3 -2 -1 0 1 -2 -1)
1969/12/31/18:00:12.646000,(0 -1 -1 -1 0 -1 -4 -3)
1969/12/31/18:00:12.668000,(0 0 -2 1 -1 -3 -2 -3)
1969/12/31/18:00:12.668000,(-1 0 -1 0 -1 -1 -2 -2)
1969/12/31/18:00:12.669000,(0 0 -2 -4 -2 -2 2 1)
1969/12/31/18:00:12.669000,(-1 -1 1 1 0 -1 -1 1)
1969/12/31/18:00:12.682000,(-1 -1 0 0 0 1 3 0)
1969/12/31/18:00:12.682000,(0 0 -1 0 0 -1 -4 -1)
1969/12/31/18:00:12.691000,(-2 -1 0 -1 0 0 -4 -2)
1969/12/31/18:00:12.691000,(0 1 1 -1 0 0 2 3)
1969/12/31/18:00:12.706000,(-3 -2 -1 0 0 -3 -3 -4)
1969/12/31/18:00:12.706000,(1 0 -2 -1 -2 -2 -2 0)
1969/12/31/18:00:12.706000,(0 -3 0 0 -1 0 1 0)
1969/12/31/18:00:12.706000,(1 0 0 0 1 -1 -1 -1)
1969/12/31/18:00:12.728000,(-1 0 -2 0 -1 -2 -1 0)
1969/12/31/18:00:12.728000,(-1 -1 -1 0 0 -1 -1 -1)
1969/12/31/18:00:12.729000,(-1 0 0 -1 -2 0 -1 -2)
1969/12/31/18:00:12.729000,(0 -1 0 0 -1 0 2 -1)
1969/12/31/18:00:12.751000,(0 0 -1 0 0 -1 1 -1)
1969/12/31/18:00:12.751000,(0 -1 -1 -2 1 -1 3 1)
1969/12/31/18:00:12.752000,(-1 0 -1 -1 -1 -2 2 -1)
1969/12/31/18:00:12.752000,(-1 0 0 -3 -3 0 1 1)
1969/12/31/18:00:12.765000,(-2 -1 0 1 2 -1 -1 -3)
1969/12/31/18:00:12.765000,(-1 0 0 -1 -2 0 0 0)
1969/12/31/18:00:12.766000,(-2 -2 -2 -1 0 -1 2 -1)
1969/12/31/18:00:12.766000,(1 0 0 -1 -1 -2 -2 0)
1969/12/31/18:00:12.788000,(-1 -1 -1 1 -1 0 -1 -2)
1969/12/31/18:00:12.788000,(2 0 0 -1 -1 0 1 2)
1969/12/31/18:00:12.789000,(-2 -2 -2 -1 0 1 -1 0)
1969/12/31/18:00:12.789000,(-2 -1 -1 1 -2 -1 -3 -2)
1969/12/31/18:00:12.803000,(0 -1 1 -1 0 -1 -3 -2)
1969/12/31/18:00:12.803000,(1 0 -2 -1 0 1 -2 -1)
1969/12/31/18:00:12.804000,(0 1 0 0 -1 -2 0 -1)
1969/12/31/18:00:12.804000,(-1 -1 0 -2 -1 -1 0 0)
1969/12/31/18:00:12.826000,(-1 0 0 0 0 -1 -3 -3)
1969/12/31/18:00:12.826000,(1 0 -1 -1 -4 0 5 2)
1969/12/31/18:00:12.827000,(2 -1 0 1 0 1 2 2)
1969/12/31/18:00:12.827000,(-2 0 -1 1 0 -1 -4 -2)
1969/12/31/18:00:12.848000,(1 -2 -2 -1 0 -1 1 1)
1969/12/31/18:00:12.848000,(0 0 0 0 -1 1 3 1)
1969/12/31/18:00:12.849000,(0 -1 1 -1 -1 0 -2 2)
1969/12/31/18:00:12.849000,(-1 -1 -2 0 0 0 -1 0)
1969/12/31/18:00:12.863000,(1 -1 -1 2 0 1 1 -1)
1969/12/31/18:00:12.863000,(-1 -1 0 -1 1 -1 -4 -1)
1969/12/31/18:00:12.870000,(0 1 -1 -2 -1 -1 -1 -1)
1969/12/31/18:00:12.871000,(-4 -2 -1 1 4 -3 -8 -9)
1969/12/31/18:00:12.886000,(1 2 0 -2 -1 0 4 4)
1969/12/31/18:00:12.886000,(-1 -2 -1 0 1 0 0 -1)
1969/12/31/18:00:12.886000,(-1 -1 0 0 -3 -1 0 0)
1969/12/31/18:00:12.886000,(-1 -1 -1 -1 0 -1 -2 -1)
1969/12/31/18:00:12.886000,(-3 -3 -3 -6 -29 -6 -4 -2)
1969/12/31/18:00:12.886000,(3 2 -8 -10 20 5 3 0)
1969/12/31/18:00:12.888000,(2 1 -4 -8 6 -1 -3 0)
1969/12/31/18:00:12.888000,(-4 -3 6 18 -16 -4 -2 -2)
1969/12/31/18:00:12.909000,(-2 -2 3 -8 10 -2 -1 -3)
1969/12/31/18:00:12.909000,(3 3 -2 4 -7 1 3 3)
1969/12/31/18:00:12.910000,(-2 -4 0 16 8 -2 -3 -4)
1969/12/31/18:00:12.910000,(2 -1 -8 -16 -7 -3 0 1)
1969/12/31/18:00:12.924000,(-7 -3 0 -13 -4 1 -2 -3)
1969/12/31/18:00:12.924000,(4 2 -2 18 2 1 1 1)
1969/12/31/18:00:12.931000,(1 0 6 10 3 -3 -3 -4)
1969/12/31/18:00:12.931000,(-7 -1 1 -4 -2 0 -1 -6)
1969/12/31/18:00:12.947000,(-5 1 0 -2 -7 -4 -3 -1)
1969/12/31/18:00:12.947000,(12 5 -4 -5 -3 -2 3 8)
1969/12/31/18:00:12.949000,(-11 -11 0 -1 0 1 -2 -7)
1969/12/31/18:00:12.949000,(-15 -6 -1 5 -1 -2 -5 -9)
1969/12/31/18:00:12.969000,(10 -3 -3 -7 -3 -4 -4 2)
1969/12/31/18:00:12.969000,(-6 5 2 6 3 6 5 -1)
1969/12/31/18:00:12.970000,(2 -1 -3 -1 -4 -3 -1 5)
1969/12/31/18:00:12.970000,(2 0 -1 9 4 0 2 1)
1969/12/31/18:00:12.984000,(0 0 -2 -9 0 2 3 1)
1969/12/31/18:00:12.984000,(4 1 -3 -6 -10 -6 -3 6)
1969/12/31/18:00:12.991000,(-5 -8 4 16 8 7 3 -7)
1969/12/31/18:00:12.991000,(-8 -3 -4 -4 -2 -4 -5 -4)
1969/12/31/18:00:13.006000,(-17 -4 1 -6 -6 -3 -3 -3)
1969/12/31/18:00:13.006000,(21 1 -1 -4 0 -2 1 8)
1969/12/31/18:00:13.014000,(8 13 5 5 5 7 10 9)
1969/12/31/18:00:13.014000,(-5 -7 -5 -6 -7 -9 -8 -6)
1969/12/31/18:00:13.029000,(-2 -8 -8 -8 -6 -5 -2 2)
1969/12/31/18:00:13.029000,(-1 21 5 4 1 2 1 -6)
1969/12/31/18:00:13.030000,(-17 -12 -4 -13 -12 -9 -8 2)
1969/12/31/18:00:13.030000,(71 30 11 22 19 14 12 12)
1969/12/31/18:00:13.042000,(-48 -26 -1 -9 -8 -4 -14 -32)
1969/12/31/18:00:13.042000,(5 -3 -2 19 17 2 0 3)
1969/12/31/18:00:13.051000,(11 6 -8 -11 -9 -5 4 15)
1969/12/31/18:00:13.051000,(-17 -9 -4 -2 -4 -2 0 4)
1969/12/31/18:00:13.065000,(-4 1 -3 -6 5 3 1 -8)
1969/12/31/18:00:13.065000,(50 35 3 -4 -3 9 13 19)
1969/12/31/18:00:13.072000,(-8 0 5 10 2 -7 -13 -12)
1969/12/31/18:00:13.072000,(2 -3 -1 -1 -4 -2 -2 6)
1969/12/31/18:00:13.089000,(-11 -6 -1 1 7 6 4 4)
1969/12/31/18:00:13.089000,(-25 -19 -7 -30 -22 -5 -2 -8)
1969/12/31/18:00:13.090000,(19 4 -4 12 3 -1 -2 8)
1969/12/31/18:00:13.090000,(-10 4 4 16 19 9 10 3)
1969/12/31/18:00:13.102000,(-16 -14 -1 -2 -6 -5 -3 2)
1969/12/31/18:00:13.102000,(12 32 8 -3 -4 4 -1 -11)
1969/12/31/18:00:13.111000,(15 8 2 3 9 -2 -8 -3)
1969/12/31/18:00:13.111000,(3 -7 0 -1 0 7 10 12)
1969/12/31/18:00:13.125000,(-2 3 3 7 9 1 -11 -12)
1969/12/31/18:00:13.125000,(-25 -27 -7 -10 -18 -12 -10 -3)
1969/12/31/18:00:13.132000,(6 18 10 2 1 10 14 3)
1969/12/31/18:00:13.132000,(-13 -19 -8 -2 1 -4 -10 -4)
1969/12/31/18:00:13.149000,(33 9 -6 -34 -23 -6 7 14)
1969/12/31/18:00:13.149000,(-19 -13 -5 12 9 -1 -5 -7)
1969/12/31/18:00:13.150000,(-7 -8 4 18 -3 0 -1 -3)
1969/12/31/18:00:13.150000,(-24 -19 -1 -2 6 4 9 6)
1969/12/31/18:00:13.162000,(42 33 5 4 9 4 2 1)
1969/12/31/18:00:13.162000,(-25 -11 0 -1 3 -6 -9 -14)
1969/12/31/18:00:13.171000,(9 -14 -9 -22 -3 -1 3 5)
1969/12/31/18:00:13.171000,(-29 -7 4 23 -6 -6 -13 -29)
1969/12/31/18:00:13.186000,(-32 -4 2 10 5 0 -3 -11)
1969/12/31/18:00:13.186000,(47 0 5 6 10 11 14 24)
1969/12/31/18:00:13.192000,(-4 -5 -4 6 -3 -4 -5 -4)
1969/12/31/18:00:13.192000,(-34 -21 -4 -15 -14 -14 -13 -11)
1969/12/31/18:00:13.209000,(62 34 -4 -9 0 11 24 35)
1969/12/31/18:00:13.209000,(-30 -18 -3 8 -8 -10 -18 -31)
1969/12/31/18:00:13.210000,(33 25 9 -6 9 7 8 17)
1969/12/31/18:00:13.210000,(-11 -16 -9 -20 -9 -6 -14 -24)
1969/12/31/18:00:13.222000,(-52 -27 9 20 1 -7 -11 -17)
1969/12/31/18:00:13.222000,(56 36 -9 -28 -4 0 10 22)
1969/12/31/18:00:13.231000,(13 18 -3 -16 -11 0 3 4)
1969/12/31/18:00:13.231000,(4 10 6 14 3 -4 -3 0)
1969/12/31/18:00:13.245000,(-34 -44 -6 12 3 -4 -9 -12)
1969/12/31/18:00:13.245000,(45 42 8 2 0 9 18 19)
1969/12/31/18:00:13.261000,(-40 -25 -4 19 6 -9 -13 -22)
1969/12/31/18:00:13.261000,(38 28 8 6 15 10 8 16)
1969/12/31/18:00:13.269000,(-48 -20 -2 -19 -13 1 -4 -16)
1969/12/31/18:00:13.269000,(4 -11 3 14 6 6 7 12)
1969/12/31/18:00:13.270000,(19 6 -6 -2 -10 -12 -6 6)
1969/12/31/18:00:13.270000,(54 36 12 5 12 13 18 23)
1969/12/31/18:00:13.282000,(-6 -22 -4 -14 -3 -5 -12 -14)
1969/12/31/18:00:13.282000,(-6 -4 -8 -8 -1 2 3 -1)
1969/12/31/18:00:13.291000,(23 29 5 -1 0 1 7 13)
1969/12/31/18:00:13.291000,(-8 -5 -9 -14 -12 -7 -6 -6)
1969/12/31/18:00:13.306000,(39 23 -14 -39 14 2 11 22)
1969/12/31/18:00:13.306000,(-39 -26 -2 19 -28 -9 -9 -15)
1969/12/31/18:00:13.312000,(-18 -10 14 28 20 11 6 -4)
1969/12/31/18:00:13.312000,(-2 4 10 24 23 5 -2 -5)
1969/12/31/18:00:13.329000,(-13 -16 -1 -7 -4 0 -3 -1)
1969/12/31/18:00:13.329000,(40 39 4 3 7 1 12 25)
1969/12/31/18:00:13.330000,(-27 -21 -12 -15 -16 -10 -10 -17)
1969/12/31/18:00:13.330000,(18 33 2 -10 -7 -4 -1 3)
1969/12/31/18:00:13.342000,(4 -14 6 17 11 12 11 6)
1969/12/31/18:00:13.342000,(-40 -33 -10 -23 -5 -13 -22 -19)
1969/12/31/18:00:13.351000,(2 9 -8 -25 -13 0 2 0)
1969/12/31/18:00:13.351000,(33 20 4 -2 -3 4 12 22)
1969/12/31/18:00:13.366000,(-16 -4 -5 12 -6 -9 -6 -14)
1969/12/31/18:00:13.366000,(-16 -12 1 9 7 -1 -3 -6)
1969/12/31/18:00:13.372000,(8 6 3 -14 3 9 11 11)
1969/12/31/18:00:13.372000,(-30 -30 -11 0 -11 -8 -8 -10)
1969/12/31/18:00:13.389000,(17 18 8 15 0 -3 -1 3)
1969/12/31/18:00:13.389000,(-8 -11 -7 -8 3 4 1 -4)
1969/12/31/18:00:13.390000,(-19 -18 -12 -21 -33 -19 -15 -17)
1969/12/31/18:00:13.390000,(-4 -4 3 19 17 8 4 1)
1969/12/31/18:00:13.402000,(28 21 12 -19 24 18 8 13)
1969/12/31/18:00:13.402000,(-35 -18 -6 11 26 7 -11 -27)
1969/12/31/18:00:13.411000,(6 0 2 19 -10 2 8 10)
1969/12/31/18:00:13.411000,(-3 -7 -12 -44 -33 -20 -7 -5)
1969/12/31/18:00:13.425000,(20 20 12 51 2 -4 -2 10)
1969/12/31/18:00:13.425000,(-30 -17 12 21 23 5 -6 -15)
1969/12/31/18:00:13.434000,(-35 -42 -6 -4 22 9 -4 -12)
1969/12/31/18:00:13.434000,(-10 0 7 -1 5 15 16 -3)
1969/12/31/18:00:13.449000,(-53 -19 -17 -29 -32 -18 -16 -25)
1969/12/31/18:00:13.449000,(88 75 18 -14 -11 5 27 54)
1969/12/31/18:00:13.450000,(-15 -22 -9 1 -2 -10 -11 -7)
1969/12/31/18:00:13.450000,(0 -2 -5 -5 -3 -1 -6 1)
1969/12/31/18:00:13.471000,(19 9 -5 -3 -3 -1 -2 5)
1969/12/31/18:00:13.471000,(-41 -29 -3 6 -7 -1 -4 -17)
1969/12/31/18:00:13.473000,(2 15 6 1 11 3 3 1)
1969/12/31/18:00:13.473000,(11 4 -5 -31 -14 -2 -1 5)
1969/12/31/18:00:13.485000,(12 12 6 29 14 3 5 7)
1969/12/31/18:00:13.485000,(-20 -19 2 26 -6 -8 -12 -12)
1969/12/31/18:00:13.494000,(-2 -16 4 4 8 3 4 5)
1969/12/31/18:00:13.494000,(12 14 -14 -20 -7 -4 -4 -4)
1969/12/31/18:00:13.509000,(2 -5 -5 -10 -8 -5 -5 -6)
1969/12/31/18:00:13.509000,(-24 -16 -5 -7 -3 -5 -6 -12)
1969/12/31/18:00:13.511000,(0 5 -1 -5 2 4 4 2)
1969/12/31/18:00:13.511000,(-18 -30 -5 -5 -14 -7 -3 -3)
1969/12/31/18:00:13.531000,(19 -5 -1 9 1 4 12 18)
1969/12/31/18:00:13.531000,(27 18 5 3 15 7 2 1)
1969/12/31/18:00:13.533000,(-16 -2 1 8 1 -1 -6 -15)
1969/12/31/18:00:13.533000,(18 27 2 1 -2 -3 4 18)
1969/12/31/18:00:13.545000,(12 15 2 -6 -11 -4 -2 -2)
1969/12/31/18:00:13.545000,(-39 -32 4 3 7 8 1 -16)
1969/12/31/18:00:13.554000,(1 -10 0 -1 9 8 4 8)
1969/12/31/18:00:13.554000,(-13 -3 7 17 12 8 2 -12)
1969/12/31/18:00:13.576000,(-7 -3 -3 -9 -11 -7 -6 -7)
1969/12/31/18:00:13.576000,(11 8 -10 -17 -20 -12 -4 4)
1969/12/31/18:00:13.578000,(0 3 0 0 0 -7 0 3)
1969/12/31/18:00:13.578000,(-10 -11 0 5 2 2 0 -4)
1969/12/31/18:00:13.591000,(14 11 -4 -6 -4 1 0 8)
1969/12/31/18:00:13.591000,(-31 -25 -4 0 4 1 -4 -12)
1969/12/31/18:00:13.593000,(2 7 1 2 -3 1 1 1)
1969/12/31/18:00:13.593000,(-11 -20 -7 -6 -12 -8 -10 -11)
1969/12/31/18:00:13.605000,(31 48 0 2 1 -3 1 12)
1969/12/31/18:00:13.605000,(-25 -28 -7 -8 -3 -4 -12 -15)
1969/12/31/18:00:13.614000,(33 34 7 5 4 5 6 14)
1969/12/31/18:00:13.614000,(-28 -11 0 11 3 -4 -10 -19)
1969/12/31/18:00:13.636000,(26 9 4 3 3 2 9 19)
1969/12/31/18:00:13.636000,(-20 -20 -3 -4 -6 -5 -5 -6)
1969/12/31/18:00:13.638000,(2 8 -5 -11 -7 -2 -1 -1)
1969/12/31/18:00:13.638000,(1 -5 -1 0 2 -1 -1 4)
1969/12/31/18:00:13.651000,(-3 -4 2 9 4 3 1 -2)
1969/12/31/18:00:13.651000,(16 10 1 0 0 3 9 14)
1969/12/31/18:00:13.653000,(-1 -2 0 -2 -1 -2 -5 -8)
1969/12/31/18:00:13.653000,(9 7 0 -1 2 -1 0 5)
1969/12/31/18:00:13.665000,(-33 -30 -5 -2 10 -1 -3 -13)
1969/12/31/18:00:13.665000,(41 43 1 -8 -9 -1 5 23)
1969/12/31/18:00:13.674000,(-14 -12 3 5 -4 3 0 -9)
1969/12/31/18:00:13.674000,(-21 -26 -2 6 7 -2 -6 -8)
1969/12/31/18:00:13.689000,(25 19 8 7 14 19 25 17)
1969/12/31/18:00:13.689000,(-9 -3 -6 -4 -7 -13 -15 -13)
1969/12/31/18:00:13.690000,(24 13 -5 -2 3 2 6 15)
1969/12/31/18:00:13.690000,(-9 -2 4 0 -3 2 -2 -7)
1969/12/31/18:00:13.711000,(-13 -14 -1 -2 -5 -1 -4 -9)
1969/12/31/18:00:13.711000,(4 1 -2 0 -1 -2 -1 -1)
1969/12/31/18:00:13.713000,(-10 -8 -1 -3 -7 -8 -7 -10)
1969/12/31/18:00:13.713000,(11 6 -2 -1 2 1 4 8)
1969/12/31/18:00:13.725000,(1 1 -3 -16 -7 -4 -4 1)
1969/12/31/18:00:13.725000,(-6 -2 -2 -4 -8 -5 -6 -12)
1969/12/31/18:00:13.734000,(1 3 2 9 6 1 1 -3)
1969/12/31/18:00:13.734000,(-15 -28 0 13 7 3 -1 -3)
1969/12/31/18:00:13.749000,(24 30 6 6 6 0 -2 6)
1969/12/31/18:00:13.749000,(0 -7 -9 -18 -7 1 4 4)
1969/12/31/18:00:13.750000,(-7 -12 0 1 -2 -1 1 5)
1969/12/31/18:00:13.750000,(1 -6 -7 -5 -10 -11 -12 -9)
1969/12/31/18:00:13.771000,(-13 -22 -3 5 3 4 5 -3)
1969/12/31/18:00:13.771000,(34 28 3 3 7 12 18 20)
1969/12/31/18:00:13.773000,(-11 -4 -6 -8 -6 -10 -13 -16)
1969/12/31/18:00:13.773000,(7 11 0 -8 -5 -1 2 5)
1969/12/31/18:00:13.794000,(-12 -14 -3 -1 7 -3 -7 -6)
1969/12/31/18:00:13.794000,(-1 -5 -3 -2 -18 -4 -1 0)
1969/12/31/18:00:13.795000,(3 17 2 2 -3 -1 0 -3)
1969/12/31/18:00:13.795000,(4 3 -6 -32 -18 -9 -7 -5)
1969/12/31/18:00:13.809000,(-17 -15 0 13 6 6 6 -5)
1969/12/31/18:00:13.809000,(-7 -5 12 33 26 8 0 0)
1969/12/31/18:00:13.810000,(-10 -1 8 14 12 7 2 -7)
1969/12/31/18:00:13.810000,(-11 -3 -2 -7 -11 -8 -9 -12)
1969/12/31/18:00:13.831000,(26 19 -2 -18 -13 -4 4 16)
1969/12/31/18:00:13.831000,(-7 4 -1 -4 3 4 2 -5)
1969/12/31/18:00:13.833000,(-5 -9 2 1 -4 -3 -7 -6)
1969/12/31/18:00:13.833000,(-6 0 -3 3 7 3 0 -5)
1969/12/31/18:00:13.845000,(-27 -30 -1 -2 -9 -4 -5 -14)
1969/12/31/18:00:13.845000,(37 28 2 1 3 -2 -2 10)
1969/12/31/18:00:13.854000,(-2 5 -2 -4 -1 -1 4 4)
1969/12/31/18:00:13.854000,(19 19 -4 -8 -6 -2 3 9)
1969/12/31/18:00:13.869000,(-18 -13 -1 0 -6 -3 -6 -7)
1969/12/31/18:00:13.869000,(-28 -25 -6 -5 -4 -4 -10 -17)
1969/12/31/18:00:13.870000,(25 9 -4 -3 -3 -3 1 13)
1969/12/31/18:00:13.870000,(-12 -12 2 1 12 6 3 2)
1969/12/31/18:00:13.892000,(-4 3 -3 1 -20 -4 -6 -3)
1969/12/31/18:00:13.892000,(-8 -21 2 2 7 3 8 8)
1969/12/31/18:00:13.893000,(17 36 -5 -16 -7 -7 -13 -13)
1969/12/31/18:00:13.893000,(8 1 1 19 12 9 16 15)
1969/12/31/18:00:13.905000,(-1 -1 -3 3 7 -2 -5 -2)
1969/12/31/18:00:13.905000,(-9 -6 -3 -4 -6 -1 -6 -7)
1969/12/31/18:00:13.914000,(-16 -41 6 8 7 16 24 18)
1969/12/31/18:00:13.914000,(-7 -16 -1 -3 -2 -2 -3 -2)
1969/12/31/18:00:13.929000,(53 54 -3 -12 -4 0 6 18)
1969/12/31/18:00:13.929000,(-65 -56 -10 -2 -4 -12 -18 -27)
1969/12/31/18:00:13.930000,(69 55 15 3 6 10 15 15)
1969/12/31/18:00:13.930000,(-24 -37 -5 1 -2 -6 -13 -19)
1969/12/31/18:00:13.951000,(-18 1 -3 1 6 9 7 -7)
1969/12/31/18:00:13.951000,(7 8 -1 3 0 1 0 2)
1969/12/31/18:00:13.953000,(-33 -16 -8 -2 -2 -3 -6 -8)
1969/12/31/18:00:13.953000,(-2 2 3 4 -4 -6 -9 -7)
1969/12/31/18:00:13.965000,(-26 -49 -5 0 2 -1 -1 -15)
1969/12/31/18:00:13.965000,(27 26 -1 -7 -1 -2 -2 -3)
1969/12/31/18:00:13.974000,(-32 -24 -1 6 -4 -7 -12 -14)
1969/12/31/18:00:13.974000,(45 47 12 6 12 21 29 39)
1969/12/31/18:00:13.989000,(-26 -20 -11 -48 -21 -13 -9 -7)
1969/12/31/18:00:13.989000,(-3 -4 -1 20 7 0 1 3)
1969/12/31/18:00:13.990000,(12 19 5 3 12 3 2 6)
1969/12/31/18:00:13.990000,(0 -4 4 27 -2 0 -2 -3)
1969/12/31/18:00:14.011000,(2 -8 10 23 13 -4 -10 -2)
1969/12/31/18:00:14.011000,(-23 -14 5 -5 -1 8 7 -13)
1969/12/31/18:00:14.013000,(12 3 -11 -17 -6 -6 -2 6)
1969/12/31/18:00:14.013000,(3 13 -11 -32 -11 -4 -3 -1)
1969/12/31/18:00:14.025000,(9 11 5 22 5 1 0 2)
1969/12/31/18:00:14.025000,(10 14 13 13 6 2 1 5)
1969/12/31/18:00:14.034000,(-14 -24 -4 10 0 -4 -4 4)
1969/12/31/18:00:14.034000,(-19 -13 -7 -8 1 0 -1 -10)
1969/12/31/18:00:14.049000,(0 0 -4 -10 -9 -4 -2 -1)
1969/12/31/18:00:14.049000,(6 2 -6 -12 -6 -5 -4 6)
1969/12/31/18:00:14.050000,(2 -3 -6 -25 -19 0 4 3)
1969/12/31/18:00:14.050000,(16 14 5 -3 3 -1 3 7)
1969/12/31/18:00:14.071000,(5 8 -5 -24 -6 -4 -5 -4)
1969/12/31/18:00:14.071000,(23 22 1 -9 -13 4 12 18)
1969/12/31/18:00:14.073000,(-29 -19 12 65 30 -3 -13 -23)
1969/12/31/18:00:14.073000,(3 5 11 36 18 10 5 2)
1969/12/31/18:00:14.085000,(-13 -12 6 14 13 4 -2 -2)
1969/12/31/18:00:14.085000,(3 -16 -15 -45 -20 -14 -11 -2)
1969/12/31/18:00:14.094000,(5 22 -9 -30 -18 -3 -5 -12)
1969/12/31/18:00:14.094000,(11 10 -6 -12 -10 -7 -1 7)
1969/12/31/18:00:14.108000,(-2 -1 -1 -2 -6 -5 -7 -12)
1969/12/31/18:00:14.108000,(-1 -6 -4 0 -2 -5 -5 -2)
1969/12/31/18:00:14.115000,(5 0 4 1 1 5 13 15)
1969/12/31/18:00:14.115000,(-9 -8 -5 -5 -4 -6 -8 -11)
1969/12/31/18:00:14.139000,(8 9 0 -3 -10 1 4 7)
1969/12/31/18:00:14.139000,(-6 3 0 13 11 0 2 -4)
1969/12/31/18:00:14.140000,(-12 -14 2 11 9 1 -6 -10)
1969/12/31/18:00:14.140000,(7 6 4 2 -1 1 3 3)
1969/12/31/18:00:14.145000,(17 17 -1 3 -4 3 12 17)
1969/12/31/18:00:14.145000,(-6 -3 0 3 9 0 -4 -5)
1969/12/31/18:00:14.154000,(0 -5 -6 -16 1 -2 -4 -2)
1969/12/31/18:00:14.154000,(-11 -9 -8 -36 -21 -11 -13 -9)
1969/12/31/18:00:14.176000,(-10 -5 4 17 -2 10 13 -1)
1969/12/31/18:00:14.176000,(10 4 7 29 16 6 5 9)
1969/12/31/18:00:14.178000,(3 6 1 1 6 0 -1 1)
1969/12/31/18:00:14.178000,(-14 -12 -2 -13 -21 -9 -11 -15)
1969/12/31/18:00:14.192000,(-5 -12 -1 17 16 -5 -9 -5)
1969/12/31/18:00:14.192000,(74 82 18 22 21 19 29 47)
1969/12/31/18:00:14.197000,(-14 -20 -6 -9 -6 -2 -5 -11)
1969/12/31/18:00:14.197000,(7 4 -4 -7 -6 -4 0 3)
1969/12/31/18:00:14.214000,(6 6 0 -20 -5 1 6 8)
1969/12/31/18:00:14.214000,(-16 -16 -4 -1 -9 -8 -8 -9)
1969/12/31/18:00:14.215000,(18 9 -3 0 5 -1 1 9)
1969/12/31/18:00:14.215000,(-15 -18 3 16 0 -1 -2 -8)
1969/12/31/18:00:14.228000,(39 44 -7 -1 -2 -7 -4 12)
1969/12/31/18:00:14.228000,(-42 -29 -3 0 -3 -6 -15 -30)
1969/12/31/18:00:14.236000,(16 14 5 -24 -16 -1 7 7)
1969/12/31/18:00:14.236000,(-7 -8 -4 1 19 7 4 0)
1969/12/31/18:00:14.251000,(-24 -36 6 13 -2 -6 -4 -5)
1969/12/31/18:00:14.251000,(-13 -21 -7 -10 -8 -11 -10 -7)
1969/12/31/18:00:14.253000,(-3 7 -12 -32 -28 -15 -9 -15)
1969/12/31/18:00:14.253000,(-9 1 -3 13 -18 -10 -6 -8)
1969/12/31/18:00:14.265000,(7 2 8 12 53 21 6 7)
1969/12/31/18:00:14.265000,(8 13 17 38 32 25 12 6)
1969/12/31/18:00:14.274000,(-51 -28 4 22 20 2 -9 -16)
1969/12/31/18:00:14.274000,(61 38 4 -8 6 12 18 30)
1969/12/31/18:00:14.289000,(-11 -3 -11 -12 -29 -19 -14 -18)
1969/12/31/18:00:14.289000,(-3 -10 -11 -26 -28 -17 -5 -3)
1969/12/31/18:00:14.296000,(17 8 1 -2 -5 4 8 9)
1969/12/31/18:00:14.296000,(-1 4 -2 -2 -5 -5 -2 1)
1969/12/31/18:00:14.311000,(-13 -7 -1 -3 -8 1 0 -7)
1969/12/31/18:00:14.311000,(6 3 -9 -17 3 2 -3 -1)
1969/12/31/18:00:14.313000,(-6 -13 3 21 -7 -2 0 0)
1969/12/31/18:00:14.313000,(-8 -1 8 24 31 8 1 -2)
1969/12/31/18:00:14.325000,(-5 -9 -2 -9 14 5 -1 -2)
1969/12/31/18:00:14.325000,(13 19 4 -1 -1 -1 1 7)
1969/12/31/18:00:14.341000,(-33 -34 -6 11 4 -2 -12 -25)
1969/12/31/18:00:14.341000,(19 36 15 4 -4 11 17 14)
1969/12/31/18:00:14.348000,(29 10 4 -35 -8 9 29 35)
1969/12/31/18:00:14.348000,(-25 -20 -15 4 -14 -17 -16 -20)
1969/12/31/18:00:14.355000,(13 2 0 16 13 5 5 10)
1969/12/31/18:00:14.355000,(17 10 5 1 8 4 2 6)
1969/12/31/18:00:14.371000,(-16 -15 -4 0 -41 -20 -3 0)
1969/12/31/18:00:14.371000,(-7 -8 -1 -19 13 11 2 -2)
1969/12/31/18:00:14.373000,(32 23 4 15 30 21 13 15)
1969/12/31/18:00:14.373000,(-31 -41 -5 10 17 5 -6 -5)
1969/12/31/18:00:14.394000,(-4 12 8 6 -2 3 -5 -16)
1969/12/31/18:00:14.394000,(-15 -19 -5 -22 -28 -15 -12 -14)
1969/12/31/18:00:14.400000,(1 3 -13 -17 -14 -17 -11 -7)
1969/12/31/18:00:14.400000,(-11 -8 -6 1 -8 -5 -5 -8)
1969/12/31/18:00:14.408000,(15 23 10 28 17 5 1 6)
1969/12/31/18:00:14.408000,(-28 -45 2 13 6 1 1 -4)
1969/12/31/18:00:14.415000,(9 8 -6 -18 -11 -4 -4 -7)
1969/12/31/18:00:14.415000,(-5 -4 -8 -17 -7 -8 -6 -4)
1969/12/31/18:00:14.431000,(38 46 -9 -11 -16 -12 -4 17)
1969/12/31/18:00:14.431000,(-41 -30 1 11 11 0 -11 -25)
1969/12/31/18:00:14.433000,(21 34 15 8 4 9 12 15)
1969/12/31/18:00:14.433000,(6 4 -4 -1 0 0 2 0)
1969/12/31/18:00:14.454000,(-10 -15 -4 -5 -1 -2 -6 -7)
1969/12/31/18:00:14.454000,(28 20 -4 -14 -3 4 15 23)
1969/12/31/18:00:14.455000,(-8 -6 -7 -6 -22 -8 -6 -4)
1969/12/31/18:00:14.455000,(1 -6 4 10 4 -7 -10 0)
1969/12/31/18:00:14.467000,(-11 0 6 7 16 8 3 -12)
1969/12/31/18:00:14.467000,(18 15 2 -2 -4 1 5 13)
1969/12/31/18:00:14.476000,(-3 -14 1 -11 3 4 5 6)
1969/12/31/18:00:14.476000,(27 28 -10 -18 -27 -8 5 18)
1969/12/31/18:00:14.491000,(-14 -19 -1 17 4 -11 -20 -16)
1969/12/31/18:00:14.491000,(-19 -10 9 17 16 9 1 -1)
1969/12/31/18:00:14.493000,(34 37 2 9 10 7 8 1)
1969/12/31/18:00:14.493000,(-32 -38 -4 -10 -5 -2 -4 -7)
1969/12/31/18:00:14.514000,(33 13 2 -7 -3 8 14 13)
1969/12/31/18:00:14.514000,(-3 10 -5 -8 -12 -11 -15 -14)
1969/12/31/18:00:14.515000,(-3 -8 -3 -6 -5 -5 -1 9)
1969/12/31/18:00:14.515000,(-41 -38 -6 0 2 -1 -7 -16)
1969/12/31/18:00:14.527000,(-15 -2 13 10 7 1 -7 -18)
1969/12/31/18:00:14.527000,(-3 -4 -2 3 -3 -1 3 3)
1969/12/31/18:00:14.536000,(-12 -12 -3 -10 -7 1 4 -1)
1969/12/31/18:00:14.536000,(3 6 -1 2 -2 -3 -2 -4)
1969/12/31/18:00:14.551000,(-18 -6 -3 5 12 2 -3 -3)
1969/12/31/18:00:14.551000,(32 15 -1 3 2 5 9 15)
1969/12/31/18:00:14.553000,(-7 0 3 5 2 -1 -3 -5)
1969/12/31/18:00:14.553000,(3 3 -2 0 4 6 7 2)
1969/12/31/18:00:14.574000,(3 -1 1 -1 -1 1 0 3)
1969/12/31/18:00:14.574000,(-2 2 -8 -13 -11 -6 -1 8)
1969/12/31/18:00:14.575000,(-39 -28 1 1 -3 -4 -10 -26)
1969/12/31/18:00:14.575000,(15 11 3 7 7 4 4 2)
1969/12/31/18:00:14.587000,(12 12 -2 -4 1 9 14 19)
1969/12/31/18:00:14.587000,(-6 -3 -9 -9 -6 -9 -8 -11)
1969/12/31/18:00:14.596000,(0 -10 3 6 -9 1 5 10)
1969/12/31/18:00:14.596000,(18 33 2 -14 2 1 6 7)
1969/12/31/18:00:14.611000,(-26 -32 -5 8 -7 -10 -16 -18)
1969/12/31/18:00:14.611000,(-2 -1 8 7 20 12 13 2)
1969/12/31/18:00:14.613000,(-3 -9 0 0 -9 -4 -2 4)
1969/12/31/18:00:14.613000,(-4 8 -5 -10 -4 -3 -1 -4)
1969/12/31/18:00:14.634000,(51 47 -4 -8 -3 -2 1 16)
1969/12/31/18:00:14.634000,(-21 -20 10 16 9 8 12 8)
1969/12/31/18:00:14.635000,(-8 -12 -6 -3 4 -9 -14 -11)
1969/12/31/18:00:14.635000,(29 24 2 3 -2 3 4 9)
1969/12/31/18:00:14.647000,(-18 -12 -8 -4 -4 -5 -6 -12)
1969/12/31/18:00:14.647000,(23 18 0 -13 -16 -2 1 11)
1969/12/31/18:00:14.662000,(-11 -15 -5 -4 7 1 1 -3)
1969/12/31/18:00:14.662000,(-27 -35 2 7 -1 -3 -6 -9)
1969/12/31/18:00:14.671000,(-6 -3 -1 -5 -1 1 2 -1)
1969/12/31/18:00:14.671000,(19 17 -5 -1 -4 -3 -5 -6)
1969/12/31/18:00:14.673000,(21 16 5 4 0 6 12 24)
1969/12/31/18:00:14.673000,(-16 -17 -6 0 4 -7 -14 -19)
1969/12/31/18:00:14.694000,(-4 -10 -6 -11 2 -4 -5 -2)
1969/12/31/18:00:14.694000,(-25 -22 0 -6 -26 -4 1 -6)
1969/12/31/18:00:14.695000,(32 54 8 7 14 4 -3 -3)
1969/12/31/18:00:14.695000,(-10 -8 6 14 16 11 5 0)
1969/12/31/18:00:14.707000,(0 -4 3 2 9 8 5 2)
1969/12/31/18:00:14.707000,(-1 -16 -5 -8 -7 -8 -8 -4)
1969/12/31/18:00:14.716000,(39 35 -12 -16 -16 -14 -4 14)
1969/12/31/18:00:14.716000,(-43 -55 -2 0 -2 -2 -5 -11)
1969/12/31/18:00:14.731000,(4 10 -8 -4 -9 -8 -15 -16)
1969/12/31/18:00:14.731000,(13 13 9 5 12 14 11 -1)
1969/12/31/18:00:14.733000,(-7 -13 -3 0 -4 -2 1 -2)
1969/12/31/18:00:14.733000,(-8 -2 -3 -2 -3 -6 -8 -5)
1969/12/31/18:00:14.754000,(-15 -20 -4 -1 -2 -3 -2 2)
1969/12/31/18:00:14.754000,(9 13 1 0 -3 -5 -3 4)
1969/12/31/18:00:14.755000,(-36 -37 1 1 2 3 -1 -11)
1969/12/31/18:00:14.755000,(19 12 -6 -10 -12 -5 0 5)
1969/12/31/18:00:14.767000,(-29 -24 5 5 9 7 6 -8)
1969/12/31/18:00:14.767000,(-34 -26 -3 3 5 -5 -10 -18)
1969/12/31/18:00:14.776000,(20 48 0 0 2 3 2 5)
1969/12/31/18:00:14.776000,(11 13 6 4 4 7 5 -1)
1969/12/31/18:00:14.791000,(3 -2 -2 -6 -11 -5 -1 2)
1969/12/31/18:00:14.791000,(-15 -13 -11 -16 -9 -8 -5 -9)
1969/12/31/18:00:14.793000,(-15 -28 -2 10 6 -3 -6 -7)
1969/12/31/18:00:14.793000,(44 50 7 0 -6 -3 10 32)
1969/12/31/18:00:14.814000,(-39 -24 -5 -4 -2 -5 -15 -30)
1969/12/31/18:00:14.814000,(15 3 -5 1 1 4 4 9)
1969/12/31/18:00:14.815000,(-7 -17 -1 -8 -5 -3 0 2)
1969/12/31/18:00:14.815000,(-2 -5 -7 -8 7 -2 -4 -7)
1969/12/31/18:00:14.827000,(66 64 25 15 6 13 32 51)
1969/12/31/18:00:14.827000,(-28 -52 -5 1 -9 -3 1 0)
1969/12/31/18:00:14.836000,(76 88 6 -1 4 8 12 19)
1969/12/31/18:00:14.836000,(-22 -6 4 5 7 2 -4 -18)
1969/12/31/18:00:14.851000,(18 -18 -11 -4 -11 -9 -3 16)
1969/12/31/18:00:14.851000,(3 7 -4 -35 -4 1 -8 -15)
1969/12/31/18:00:14.853000,(-37 -51 -4 11 -4 -1 -3 -10)
1969/12/31/18:00:14.853000,(28 50 17 40 31 8 10 31)
1969/12/31/18:00:14.874000,(-42 -34 -8 9 1 -9 -19 -33)
1969/12/31/18:00:14.874000,(21 29 9 4 3 7 12 26)
1969/12/31/18:00:14.875000,(-27 -39 -11 -30 -10 -11 -13 -17)
1969/12/31/18:00:14.875000,(-7 -10 -5 1 -30 -11 -6 -6)
1969/12/31/18:00:14.887000,(-17 -12 4 15 25 -1 -5 -9)
1969/12/31/18:00:14.887000,(27 32 4 -3 -15 -6 -3 4)
1969/12/31/18:00:14.896000,(-18 -14 -5 -9 2 0 3 -2)
1969/12/31/18:00:14.896000,(-3 -16 -13 -49 -15 6 3 -2)
1969/12/31/18:00:14.911000,(8 16 1 4 0 8 5 4)
1969/12/31/18:00:14.911000,(8 2 8 46 36 6 2 5)
1969/12/31/18:00:14.913000,(19 8 4 11 -1 2 3 14)
1969/12/31/18:00:14.913000,(-25 -25 -6 -5 -12 -14 -16 -22)
1969/12/31/18:00:14.934000,(-8 1 -6 -21 -14 -3 0 -5)
1969/12/31/18:00:14.934000,(-5 2 -8 -22 -18 -14 -13 -7)
1969/12/31/18:00:14.935000,(38 45 12 4 2 5 15 32)
1969/12/31/18:00:14.935000,(-31 -38 -10 9 3 -8 -13 -30)
1969/12/31/18:00:14.947000,(26 -5 1 -19 -13 -1 6 21)
1969/12/31/18:00:14.947000,(-7 10 -1 9 6 5 2 -13)
1969/12/31/18:00:14.956000,(-22 -19 -2 15 4 -5 -4 -9)
1969/12/31/18:00:14.956000,(2 -12 7 8 15 5 6 14)
1969/12/31/18:00:14.971000,(38 56 15 12 13 27 30 19)
1969/12/31/18:00:14.971000,(-3 -6 -8 -5 -2 -10 -7 -6)
1969/12/31/18:00:14.977000,(-17 -21 -13 -39 -17 -3 -6 -15)
1969/12/31/18:00:14.977000,(3 1 2 17 7 -2 -2 -5)
1969/12/31/18:00:14.994000,(-13 -19 -2 -1 -12 -6 -1 1)
1969/12/31/18:00:14.994000,(39 34 5 -10 -9 -4 5 21)
1969/12/31/18:00:14.995000,(-58 -66 -6 17 15 0 -9 -21)
1969/12/31/18:00:14.995000,(57 76 7 3 11 9 10 12)
1969/12/31/18:00:15.007000,(-28 -10 3 6 8 5 9 0)
1969/12/31/18:00:15.007000,(24 12 3 -14 -1 4 8 23)
1969/12/31/18:00:15.016000,(-2 -9 -3 -2 -20 -5 -3 0)
1969/12/31/18:00:15.016000,(-28 -22 -5 -26 -42 -15 -7 -10)
1969/12/31/18:00:15.030000,(-17 -44 -8 10 38 -4 -9 -6)
1969/12/31/18:00:15.031000,(20 24 10 27 15 23 19 5)
1969/12/31/18:00:15.037000,(-9 6 6 13 26 12 2 -9)
1969/12/31/18:00:15.037000,(11 3 -6 -23 -10 5 5 9)
1969/12/31/18:00:15.055000,(-8 -12 -12 -13 -31 -13 -11 -13)
1969/12/31/18:00:15.055000,(-19 -13 2 16 11 -9 -7 -6)
1969/12/31/18:00:15.057000,(16 15 5 14 1 -8 -11 1)
1969/12/31/18:00:15.057000,(-16 0 22 20 14 18 19 7)
1969/12/31/18:00:15.067000,(-11 -6 -11 -24 -14 -8 -7 -11)
1969/12/31/18:00:15.067000,(-6 -13 -6 -11 -6 -4 -5 -4)
1969/12/31/18:00:15.076000,(-3 -7 -7 -8 -15 -9 -8 -6)
1969/12/31/18:00:15.076000,(-30 -36 -11 -4 1 -6 -9 -9)
1969/12/31/18:00:15.091000,(9 28 13 12 16 8 8 3)
1969/12/31/18:00:15.091000,(-3 -8 -4 -35 -28 1 4 9)
1969/12/31/18:00:15.097000,(11 10 0 3 -10 -10 -1 6)
1969/12/31/18:00:15.097000,(-8 -16 -1 11 13 4 2 0)
1969/12/31/18:00:15.114000,(-6 -7 -1 18 23 3 -6 -6)
1969/12/31/18:00:15.114000,(-11 -6 -2 7 -11 -2 -7 -17)
1969/12/31/18:00:15.115000,(-23 -28 -3 -7 -5 -4 -5 -11)
1969/12/31/18:00:15.115000,(3 5 0 3 8 1 -5 -10)
1969/12/31/18:00:15.127000,(3 3 -2 -12 -18 -5 -5 -2)
1969/12/31/18:00:15.127000,(-7 -12 -4 -3 0 -6 -4 0)
1969/12/31/18:00:15.136000,(25 30 -7 -10 6 3 10 17)
1969/12/31/18:00:15.136000,(-16 -13 -9 -17 -8 -12 -22 -24)
1969/12/31/18:00:15.151000,(-13 -12 -4 -6 -18 -5 -10 -10)
1969/12/31/18:00:15.151000,(-9 -6 3 14 6 2 1 -5)
1969/12/31/18:00:15.157000,(3 -4 6 20 20 7 5 5)
1969/12/31/18:00:15.157000,(34 32 5 -11 -9 5 12 19)
1969/12/31/18:00:15.174000,(-1 -4 -9 -6 0 -5 -5 -4)
1969/12/31/18:00:15.174000,(-18 -10 -2 -1 -3 -9 -14 -18)
1969/12/31/18:00:15.175000,(1 6 7 -15 0 5 4 0)
1969/12/31/18:00:15.175000,(15 5 -4 10 -9 -2 7 12)
1969/12/31/18:00:15.187000,(-13 -8 -2 -4 -2 -3 -4 -10)
1969/12/31/18:00:15.187000,(8 8 -1 4 7 6 8 8)
1969/12/31/18:00:15.204000,(-6 -1 2 15 26 7 0 -7)
1969/12/31/18:00:15.204000,(-8 -9 -3 -6 -15 -5 -6 -5)
1969/12/31/18:00:15.211000,(10 4 1 7 -10 -6 4 8)
1969/12/31/18:00:15.211000,(-7 -4 -1 0 12 2 0 -8)
1969/12/31/18:00:15.217000,(-7 -4 -2 -8 2 2 0 -4)
1969/12/31/18:00:15.217000,(0 -8 1 3 1 -3 -1 3)
1969/12/31/18:00:15.234000,(32 40 13 12 6 9 12 18)
1969/12/31/18:00:15.234000,(-3 -1 -3 -7 -3 -3 -5 -5)
1969/12/31/18:00:15.235000,(-8 -9 -6 -11 -17 -4 -3 -6)
1969/12/31/18:00:15.235000,(-5 -8 -1 8 5 2 0 -1)
1969/12/31/18:00:15.247000,(-21 6 -2 -2 1 -1 -1 6)
1969/12/31/18:00:15.247000,(21 15 3 0 -2 -1 4 9)
1969/12/31/18:00:15.256000,(-31 -40 -11 2 -10 -7 -14 -22)
1969/12/31/18:00:15.256000,(12 5 11 10 15 12 16 21)
1969/12/31/18:00:15.271000,(-2 -8 -2 -6 -4 -1 -4 -7)
1969/12/31/18:00:15.271000,(-3 -3 -1 6 2 -1 -1 3)
1969/12/31/18:00:15.277000,(28 40 2 0 -5 1 8 14)
1969/12/31/18:00:15.277000,(-13 -13 -6 -7 -1 -2 -3 -8)
1969/12/31/18:00:15.301000,(-11 -22 -9 -4 -5 -3 -6 -8)
1969/12/31/18:00:15.301000,(-13 -34 1 9 3 2 -2 -4)
1969/12/31/18:00:15.303000,(45 76 9 -2 1 9 16 26)
1969/12/31/18:00:15.303000,(1 3 -7 -6 -4 -5 -2 -2)
1969/12/31/18:00:15.318000,(7 -6 -2 0 0 -1 0 1)
1969/12/31/18:00:15.318000,(-10 -1 0 4 5 5 -1 -10)
1969/12/31/18:00:15.319000,(3 6 11 -1 -3 5 12 29)
1969/12/31/18:00:15.319000,(19 5 1 2 2 -2 -3 -1)
1969/12/31/18:00:15.330000,(-4 4 -1 1 -2 -1 -5 -6)
1969/12/31/18:00:15.330000,(-13 -11 -5 -5 -3 -4 -3 -5)
1969/12/31/18:00:15.345000,(-39 -66 -8 2 -4 -7 -9 -22)
1969/12/31/18:00:15.345000,(53 61 -2 -4 2 6 15 24)
1969/12/31/18:00:15.354000,(8 10 1 -5 -4 -4 -9 -7)
1969/12/31/18:00:15.354000,(-6 -6 -4 -5 -2 -1 -4 -2)
1969/12/31/18:00:15.355000,(-10 -10 -2 0 -5 -5 -6 -9)
1969/12/31/18:00:15.355000,(-17 -17 -3 6 4 -4 -8 -9)
1969/12/31/18:00:15.376000,(-3 -12 0 -3 -2 1 1 2)
1969/12/31/18:00:15.376000,(27 31 4 3 7 7 10 17)
1969/12/31/18:00:15.378000,(3 0 -4 -6 -4 -2 -4 -8)
1969/12/31/18:00:15.378000,(-13 -16 -7 -20 -6 -3 -3 -1)
1969/12/31/18:00:15.390000,(-3 -1 -2 3 -1 -3 -1 -1)
1969/12/31/18:00:15.390000,(-9 -6 -5 -22 -17 -5 -3 -4)
1969/12/31/18:00:15.405000,(0 -4 9 39 6 0 -1 -1)
1969/12/31/18:00:15.405000,(-22 -13 9 32 21 1 -8 -14)
1969/12/31/18:00:15.414000,(-1 -4 -6 -32 -29 -11 0 4)
1969/12/31/18:00:15.414000,(6 1 0 30 35 7 1 1)
1969/12/31/18:00:15.415000,(2 0 6 7 16 16 3 2)
1969/12/31/18:00:15.415000,(5 16 38 20 21 24 14 5)
1969/12/31/18:00:15.436000,(3 5 -12 1 2 -3 -4 1)
1969/12/31/18:00:15.436000,(2 -14 -37 -37 -37 -28 -13 -1)
1969/12/31/18:00:15.438000,(-14 -4 26 2 -17 -11 -10 -15)
1969/12/31/18:00:15.438000,(-9 -7 -17 -11 1 0 0 -3)
1969/12/31/18:00:15.450000,(3 -11 -22 -22 -3 -1 3 4)
1969/12/31/18:00:15.450000,(-20 -13 3 -9 -21 -16 -14 -17)
1969/12/31/18:00:15.459000,(6 6 4 4 9 11 11 9)
1969/12/31/18:00:15.459000,(2 4 -13 -11 16 1 -5 -1)
1969/12/31/18:00:15.474000,(5 2 9 9 -14 2 3 2)
1969/12/31/18:00:15.474000,(4 8 0 0 3 7 5 0)
1969/12/31/18:00:15.475000,(7 4 4 -9 -1 -6 1 4)
1969/12/31/18:00:15.475000,(-7 -13 -3 -14 -13 -8 -6 -3)
1969/12/31/18:00:15.496000,(-3 -4 -1 49 19 3 1 -1)
1969/12/31/18:00:15.496000,(-11 -3 -7 4 11 0 -8 -11)
1969/12/31/18:00:15.498000,(-7 -10 -11 -30 -14 -1 1 -5)
1969/12/31/18:00:15.498000,(3 4 8 -15 -50 -18 -1 2)
1969/12/31/18:00:15.510000,(-6 -4 7 18 48 9 -5 -7)
1969/12/31/18:00:15.510000,(3 6 38 36 39 30 15 7)
1969/12/31/18:00:15.519000,(2 5 -19 -7 11 18 6 5)
1969/12/31/18:00:15.519000,(7 0 -16 -14 -16 -8 1 4)
1969/12/31/18:00:15.534000,(3 5 10 -16 -29 -3 4 0)
1969/12/31/18:00:15.534000,(6 8 12 11 2 0 0 3)
1969/12/31/18:00:15.535000,(1 5 32 -1 -5 -4 0 1)
1969/12/31/18:00:15.535000,(-8 -5 -32 -6 -13 -12 -10 -7)
1969/12/31/18:00:15.556000,(-9 -22 -48 -29 -9 -16 -12 -6)
1969/12/31/18:00:15.556000,(-8 -11 -19 -29 -11 -8 -7 -5)
1969/12/31/18:00:15.558000,(-7 -11 -11 -8 -1 -8 -8 -9)
1969/12/31/18:00:15.558000,(2 19 70 76 30 23 12 2)
1969/12/31/18:00:15.578000,(3 10 13 34 31 26 12 6)
1969/12/31/18:00:15.578000,(-3 -14 -33 -29 -16 -17 -10 -2)
1969/12/31/18:00:15.579000,(-7 -9 -8 -17 -16 -11 -5 -5)
1969/12/31/18:00:15.579000,(1 5 7 -12 -3 7 6 3)
1969/12/31/18:00:15.593000,(3 10 11 -13 -8 -1 0 -1)
1969/12/31/18:00:15.593000,(9 3 -8 16 0 2 6 9)
1969/12/31/18:00:15.594000,(-5 -10 -16 1 14 -4 -10 -6)
1969/12/31/18:00:15.594000,(-8 -9 -14 -20 -2 -9 -7 -5)
1969/12/31/18:00:15.616000,(-2 -2 0 -3 -6 0 -1 -3)
1969/12/31/18:00:15.616000,(0 4 22 0 -3 4 0 -3)
1969/12/31/18:00:15.616000,(7 4 -3 4 -8 -8 -1 3)
1969/12/31/18:00:15.616000,(-2 -7 5 12 11 3 -1 -2)
1969/12/31/18:00:15.638000,(-11 -9 2 6 5 5 -3 -7)
1969/12/31/18:00:15.638000,(9 9 2 -9 -7 -1 9 13)
1969/12/31/18:00:15.639000,(9 9 -9 -8 -6 -2 0 2)
1969/12/31/18:00:15.639000,(-5 -13 -11 -16 -9 -6 -6 -2)
1969/12/31/18:00:15.653000,(-10 -4 13 -8 -19 -15 -8 -6)
1969/12/31/18:00:15.653000,(2 4 6 43 22 10 3 0)
1969/12/31/18:00:15.654000,(-4 -6 -9 -3 1 -1 -1 -3)
1969/12/31/18:00:15.654000,(12 10 -14 -22 -11 -1 3 7)
1969/12/31/18:00:15.675000,(0 2 15 18 21 7 3 0)
1969/12/31/18:00:15.675000,(3 3 -2 -7 0 2 2 2)
1969/12/31/18:00:15.676000,(0 4 11 3 -24 -7 -2 1)
1969/12/31/18:00:15.676000,(-6 -8 -18 6 0 0 -3 -5)
1969/12/31/18:00:15.699000,(5 0 4 -4 32 10 5 5)
1969/12/31/18:00:15.699000,(-2 5 14 11 4 1 -1 -3)
1969/12/31/18:00:15.699000,(-1 0 -5 -4 2 1 -2 -1)
1969/12/31/18:00:15.699000,(-5 -4 -7 -10 -15 -6 -3 -3)
1969/12/31/18:00:15.713000,(6 4 -4 -3 -19 -4 2 3)
1969/12/31/18:00:15.713000,(-7 -5 -5 -11 -11 -4 0 -5)
1969/12/31/18:00:15.714000,(3 5 5 5 8 2 -4 0)
1969/12/31/18:00:15.714000,(-7 -5 4 12 9 3 -1 -4)
1969/12/31/18:00:15.735000,(2 -4 -15 -12 -6 -5 -5 -1)
1969/12/31/18:00:15.735000,(4 3 9 4 7 4 4 5)
1969/12/31/18:00:15.736000,(-5 -2 -5 -15 -15 -4 -2 -5)
1969/12/31/18:00:15.736000,(7 4 1 24 24 6 1 4)
1969/12/31/18:00:15.758000,(-5 -5 -3 -21 -11 -5 -4 -4)
1969/12/31/18:00:15.758000,(0 2 -6 4 -9 -3 -2 -1)
1969/12/31/18:00:15.759000,(-1 -3 8 12 12 5 1 0)
1969/12/31/18:00:15.759000,(-1 -2 1 -10 0 -3 -2 -4)
1969/12/31/18:00:15.773000,(-2 2 4 -9 -9 -2 2 1)
1969/12/31/18:00:15.773000,(-3 -3 -10 -1 -19 -11 -6 -4)
1969/12/31/18:00:15.774000,(-3 0 -4 -2 5 7 3 0)
1969/12/31/18:00:15.774000,(2 2 7 28 28 6 3 1)
1969/12/31/18:00:15.796000,(1 -4 -4 2 1 0 -1 -2)
1969/12/31/18:00:15.796000,(-1 -1 2 -8 -3 -1 -2 -1)
1969/12/31/18:00:15.796000,(-1 -1 -3 -4 -10 -4 -3 -2)
1969/12/31/18:00:15.796000,(-2 -3 -5 -14 -5 0 -2 0)
1969/12/31/18:00:15.819000,(0 0 -3 1 -3 0 0 1)
1969/12/31/18:00:15.819000,(1 1 4 -9 0 1 0 -1)
1969/12/31/18:00:15.819000,(1 0 1 16 6 2 2 2)
1969/12/31/18:00:15.819000,(-1 -1 -1 -2 -5 -2 -2 -1)
1969/12/31/18:00:15.833000,(-5 -5 7 8 6 2 0 -3)
1969/12/31/18:00:15.833000,(1 2 -11 -13 -9 -7 -4 0)
1969/12/31/18:00:15.834000,(2 -5 -15 -17 -9 -3 1 3)
1969/12/31/18:00:15.834000,(-8 -4 15 12 2 -2 -4 -4)
1969/12/31/18:00:15.856000,(-3 0 4 8 1 -1 -1 -2)
1969/12/31/18:00:15.856000,(0 0 5 1 3 3 1 0)
1969/12/31/18:00:15.856000,(-1 0 -8 -6 -1 -1 0 0)
1969/12/31/18:00:15.856000,(-3 -5 -12 -14 -11 -7 -3 -2)
1969/12/31/18:00:15.879000,(-4 2 8 0 -9 -1 -1 -2)
1969/12/31/18:00:15.879000,(6 2 -7 -1 3 5 5 6)
1969/12/31/18:00:15.879000,(1 2 1 10 13 2 0 2)
1969/12/31/18:00:15.879000,(1 -2 -2 -14 -15 1 4 1)
1969/12/31/18:00:15.893000,(-3 2 -1 -5 -14 -12 -6 -3)
1969/12/31/18:00:15.893000,(-1 0 9 9 26 11 5 1)
1969/12/31/18:00:15.894000,(-3 -3 6 15 9 1 -1 -2)
1969/12/31/18:00:15.894000,(2 3 -4 -4 0 -1 2 2)
1969/12/31/18:00:15.924000,(4 -2 -11 -13 -11 -4 1 3)
1969/12/31/18:00:15.924000,(0 -1 6 15 3 5 1 -1)
1969/12/31/18:00:15.924000,(0 0 2 -2 1 -4 -3 -2)
1969/12/31/18:00:15.924000,(-1 0 -2 -6 -5 -3 -1 -1)
1969/12/31/18:00:15.939000,(-2 -3 -4 -4 -3 0 -1 0)
1969/12/31/18:00:15.939000,(-4 -1 -2 -3 -6 -5 -4 -2)
1969/12/31/18:00:15.939000,(0 -1 -3 -2 1 2 2 1)
1969/12/31/18:00:15.939000,(2 1 -4 -1 -2 -2 0 -1)
1969/12/31/18:00:15.953000,(7 5 7 10 10 5 2 4)
1969/12/31/18:00:15.953000,(-7 -3 1 -2 -2 -5 -6 -7)
1969/12/31/18:00:15.954000,(-2 0 -2 -5 -5 0 2 0)
1969/12/31/18:00:15.954000,(0 -2 -2 -6 -3 -3 -3 -2)
1969/12/31/18:00:15.975000,(-1 -1 -1 7 8 5 0 0)
1969/12/31/18:00:15.975000,(2 1 -2 -6 -7 0 2 2)
1969/12/31/18:00:15.976000,(6 5 1 2 2 2 1 3)
1969/12/31/18:00:15.976000,(-5 -4 3 -1 0 -4 -4 -2)
1969/12/31/18:00:15.999000,(0 -1 0 1 5 0 1 -2)
1969/12/31/18:00:15.999000,(-2 -1 0 -3 -1 -4 -2 -2)
1969/12/31/18:00:15.999000,(0 0 -2 -3 -3 -1 -1 -3)
1969/12/31/18:00:15.999000,(-1 1 1 2 3 4 2 1)
1969/12/31/18:00:16.013000,(-2 -1 1 3 -1 0 0 -1)
1969/12/31/18:00:16.013000,(-1 -1 0 -2 -3 -1 1 0)
1969/12/31/18:00:16.014000,(-1 -2 -3 0 2 1 0 4)
1969/12/31/18:00:16.014000,(-1 -1 -1 1 0 2 -2 0)
1969/12/31/18:00:16.035000,(0 -1 -2 -3 -3 -1 -1 -1)
1969/12/31/18:00:16.035000,(1 -1 1 0 1 -1 -1 -1)
1969/12/31/18:00:16.036000,(-3 -1 1 2 0 -1 0 -1)
1969/12/31/18:00:16.036000,(1 0 -2 -3 1 -1 0 0)
1969/12/31/18:00:16.059000,(0 1 -1 -1 -1 -1 1 0)
1969/12/31/18:00:16.059000,(-2 -2 -3 1 1 -1 -3 -3)
1969/12/31/18:00:16.059000,(-2 -2 0 -2 -2 -2 -1 -2)
1969/12/31/18:00:16.059000,(-1 -1 -4 -2 0 0 0 1)
1969/12/31/18:00:16.072000,(1 0 2 1 1 2 2 1)
1969/12/31/18:00:16.072000,(-1 -2 -3 -7 -8 -5 -2 -2)
1969/12/31/18:00:16.081000,(1 -1 -3 0 0 2 1 1)
1969/12/31/18:00:16.081000,(3 2 5 9 10 5 4 2)
1969/12/31/18:00:16.095000,(-1 -1 1 -5 -3 1 1 -2)
1969/12/31/18:00:16.095000,(-5 -5 -3 2 1 -5 -5 -3)
1969/12/31/18:00:16.096000,(-2 -4 -1 -3 -4 -2 1 -3)
1969/12/31/18:00:16.096000,(-1 0 -5 -5 -8 -5 -1 -2)
1969/12/31/18:00:16.119000,(-1 0 1 5 3 1 0 1)
1969/12/31/18:00:16.119000,(-2 -1 3 -4 -2 0 0 -1)
1969/12/31/18:00:16.120000,(1 0 -3 -1 -3 -1 -1 0)
1969/12/31/18:00:16.120000,(-1 -1 0 -3 -1 0 0 -1)
1969/12/31/18:00:16.120000,(-1 0 1 3 2 2 -1 -1)
1969/12/31/18:00:16.120000,(1 -2 -3 -3 -4 0 0 0)
1969/12/31/18:00:16.121000,(-1 0 -3 -3 -3 1 2 1)
1969/12/31/18:00:16.121000,(-1 -1 -3 0 -2 -1 -2 -1)
1969/12/31/18:00:16.133000,(-2 -4 -1 0 -1 -4 -2 0)
1969/12/31/18:00:16.133000,(-3 -2 3 0 0 1 0 -1)
1969/12/31/18:00:16.142000,(1 -2 -1 -2 -3 -1 -1 -1)
1969/12/31/18:00:16.142000,(1 0 -3 -4 0 1 0 1)
1969/12/31/18:00:16.157000,(0 1 -3 4 0 -1 1 0)
1969/12/31/18:00:16.157000,(-1 -3 -1 0 2 3 3 2)
1969/12/31/18:00:16.157000,(0 -1 3 2 0 -4 -3 -2)
1969/12/31/18:00:16.157000,(-5 -4 3 -3 0 1 -1 -4)
1969/12/31/18:00:16.179000,(2 3 -1 -5 -5 0 2 0)
1969/12/31/18:00:16.180000,(-3 0 -7 4 -1 -1 -4 -3)
1969/12/31/18:00:16.186000,(4 0 0 -3 5 2 3 5)
1969/12/31/18:00:16.187000,(1 0 1 -9 -10 -4 -2 1)
1969/12/31/18:00:16.193000,(-1 -1 2 12 7 1 -2 0)
1969/12/31/18:00:16.193000,(-3 -3 5 -6 0 2 1 0)
1969/12/31/18:00:16.202000,(-2 -3 -8 0 -1 3 2 -1)
1969/12/31/18:00:16.202000,(2 -2 -11 -3 -4 0 0 1)
1969/12/31/18:00:16.216000,(4 -1 0 -11 -5 2 0 3)
1969/12/31/18:00:16.216000,(3 4 2 19 11 0 0 -1)
1969/12/31/18:00:16.217000,(-6 -6 7 8 14 2 -5 -6)
1969/12/31/18:00:16.217000,(-6 -2 1 -7 -7 -2 2 -5)
1969/12/31/18:00:16.239000,(4 -4 -14 -20 -9 -4 0 3)
1969/12/31/18:00:16.239000,(6 9 -2 0 -12 -3 0 2)
1969/12/31/18:00:16.246000,(6 1 -10 -4 3 2 6 3)
1969/12/31/18:00:16.246000,(3 4 13 31 14 2 -1 0)
1969/12/31/18:00:16.263000,(-9 -5 17 26 9 4 -3 -4)
1969/12/31/18:00:16.263000,(-9 -9 -4 -23 -2 -2 -3 -6)
1969/12/31/18:00:16.264000,(-2 0 -10 -10 -8 -7 -1 -2)
1969/12/31/18:00:16.264000,(7 3 -10 -11 -12 -2 -3 5)
1969/12/31/18:00:16.276000,(2 5 -3 -15 4 -2 -1 -1)
1969/12/31/18:00:16.276000,(-3 -12 -9 17 -4 2 1 -2)
1969/12/31/18:00:16.277000,(-8 1 19 3 14 2 -5 -6)
1969/12/31/18:00:16.277000,(9 5 3 6 10 3 5 8)
1969/12/31/18:00:16.300000,(-2 -8 -29 -61 -43 -14 -1 -5)
1969/12/31/18:00:16.300000,(6 10 13 8 -4 -2 -3 4)
1969/12/31/18:00:16.300000,(-4 1 15 63 32 6 3 -1)
1969/12/31/18:00:16.300000,(-5 -6 -3 5 7 6 0 -4)
1969/12/31/18:00:16.322000,(0 0 -13 -50 -19 -10 -2 -2)
1969/12/31/18:00:16.322000,(6 -2 0 13 17 6 4 3)
1969/12/31/18:00:16.323000,(-9 -8 -11 -17 -43 -11 -7 -5)
1969/12/31/18:00:16.323000,(-4 -6 6 -9 31 5 -3 1)
1969/12/31/18:00:16.336000,(0 13 30 73 21 10 4 1)
1969/12/31/18:00:16.336000,(-5 -6 -17 5 -5 -6 -6 -7)
1969/12/31/18:00:16.337000,(0 1 4 -13 5 -4 -4 0)
1969/12/31/18:00:16.337000,(2 2 -16 -47 -38 -4 3 -2)
1969/12/31/18:00:16.360000,(0 -5 1 -1 0 7 6 5)
1969/12/31/18:00:16.360000,(3 10 15 14 23 -3 -5 3)
1969/12/31/18:00:16.360000,(4 2 -6 20 -29 -10 -3 -2)
1969/12/31/18:00:16.360000,(0 -5 -1 -14 2 -4 -3 0)
1969/12/31/18:00:16.382000,(-3 1 8 13 1 8 3 -1)
1969/12/31/18:00:16.382000,(-1 5 5 12 37 11 5 2)
1969/12/31/18:00:16.383000,(8 2 -27 -83 -51 -5 5 3)
1969/12/31/18:00:16.383000,(5 2 -16 20 15 -6 -3 0)
1969/12/31/18:00:16.397000,(-7 -9 14 24 25 3 -2 -2)
1969/12/31/18:00:16.397000,(-9 -4 8 -12 -58 -19 -9 -8)
1969/12/31/18:00:16.397000,(13 15 -4 27 58 23 12 9)
1969/12/31/18:00:16.397000,(-7 -9 8 -18 -13 -9 -10 -5)
1969/12/31/18:00:16.420000,(3 10 41 91 53 21 7 3)
1969/12/31/18:00:16.420000,(1 2 0 -14 3 -2 1 -1)
1969/12/31/18:00:16.421000,(-7 -11 -3 -4 -17 -13 -7 -6)
1969/12/31/18:00:16.421000,(-3 -5 -28 -23 -50 -12 -3 -2)
1969/12/31/18:00:16.442000,(7 4 -16 -36 15 0 1 4)
1969/12/31/18:00:16.442000,(0 -1 -4 -18 -21 -3 0 0)
1969/12/31/18:00:16.444000,(-2 0 4 8 2 3 0 -2)
1969/12/31/18:00:16.444000,(-2 1 8 25 16 1 1 -1)
1969/12/31/18:00:16.457000,(-3 -7 -16 -28 -30 -12 -7 -5)
1969/12/31/18:00:16.457000,(2 -2 -6 -25 -2 4 5 1)
1969/12/31/18:00:16.457000,(0 2 3 -4 3 0 -3 0)
1969/12/31/18:00:16.457000,(-6 0 7 35 9 4 -1 -5)
1969/12/31/18:00:16.480000,(-1 -2 -7 -8 -12 -6 -3 -1)
1969/12/31/18:00:16.480000,(-4 1 4 2 9 1 -2 -2)
1969/12/31/18:00:16.480000,(0 -1 2 -23 -11 -2 0 2)
1969/12/31/18:00:16.480000,(1 2 14 9 1 4 0 1)
1969/12/31/18:00:16.502000,(0 1 -9 9 -4 -2 -2 -1)
1969/12/31/18:00:16.502000,(1 -3 -12 -12 -3 -1 0 -1)
1969/12/31/18:00:16.503000,(-5 -7 -2 -3 1 -4 -5 -3)
1969/12/31/18:00:16.503000,(2 6 4 -8 -2 3 4 2)
1969/12/31/18:00:16.517000,(0 0 -4 -6 -6 -3 -1 0)
1969/12/31/18:00:16.517000,(-5 -6 -8 1 -3 -1 -2 -4)
1969/12/31/18:00:16.517000,(0 -1 7 3 1 1 0 0)
1969/12/31/18:00:16.517000,(1 2 -1 7 7 0 3 2)
1969/12/31/18:00:16.541000,(1 -2 -5 -7 -1 -1 -1 1)
1969/12/31/18:00:16.541000,(-2 0 0 -6 -4 -2 -2 -2)
1969/12/31/18:00:16.542000,(-1 1 1 15 7 2 2 1)
1969/12/31/18:00:16.542000,(-3 -2 1 3 1 0 -2 -1)
1969/12/31/18:00:16.562000,(1 0 -6 -19 -10 -4 -2 3)
1969/12/31/18:00:16.562000,(0 1 0 5 -3 -1 1 2)
1969/12/31/18:00:16.563000,(0 2 1 2 3 2 0 0)
1969/12/31/18:00:16.563000,(-3 0 -2 1 3 -1 -3 -3)
1969/12/31/18:00:16.577000,(-3 -4 -1 0 -4 -5 -5 -3)
1969/12/31/18:00:16.577000,(7 4 -4 -3 -1 2 3 6)
1969/12/31/18:00:16.577000,(-7 -4 4 8 4 4 3 -4)
1969/12/31/18:00:16.577000,(-3 -4 -2 -5 -1 -2 -5 -6)
1969/12/31/18:00:16.600000,(-4 -2 -2 3 1 2 -1 -5)
1969/12/31/18:00:16.600000,(-1 -3 -2 1 -1 -3 -2 1)
1969/12/31/18:00:16.600000,(7 5 1 1 1 1 3 4)
1969/12/31/18:00:16.601000,(0 2 1 -1 1 3 5 3)
1969/12/31/18:00:16.622000,(0 -1 -2 -4 0 -1 -1 -3)
1969/12/31/18:00:16.622000,(-2 -2 -2 -1 -1 -1 -2 -1)
1969/12/31/18:00:16.623000,(1 0 -2 -6 0 0 -4 1)
1969/12/31/18:00:16.623000,(0 0 3 5 0 -1 0 -1)
1969/12/31/18:00:16.636000,(1 0 -1 -1 2 1 2 0)
1969/12/31/18:00:16.637000,(-6 -5 -2 1 -1 -1 -3 -4)
1969/12/31/18:00:16.637000,(3 3 1 -4 -3 -1 -1 1)
1969/12/31/18:00:16.637000,(0 -1 -2 0 1 -2 -1 -1)
1969/12/31/18:00:16.660000,(-2 -2 1 -2 -5 -3 -3 -2)
1969/12/31/18:00:16.660000,(0 -1 0 -1 1 1 0 -1)
1969/12/31/18:00:16.661000,(-6 -5 -1 4 2 -3 -3 -2)
1969/12/31/18:00:16.661000,(4 1 -2 -1 2 4 2 3)
1969/12/31/18:00:16.682000,(6 0 -5 -1 -3 -4 0 2)
1969/12/31/18:00:16.682000,(1 1 0 -9 -1 0 1 -3)
1969/12/31/18:00:16.684000,(-7 -5 3 15 3 0 -4 -9)
1969/12/31/18:00:16.684000,(-4 -4 1 1 -5 -4 -2 -4)
1969/12/31/18:00:16.696000,(-2 -3 -6 -9 6 3 1 1)
1969/12/31/18:00:16.696000,(3 1 -1 0 -13 -6 -1 2)
1969/12/31/18:00:16.705000,(1 2 3 4 7 1 0 1)
1969/12/31/18:00:16.705000,(-2 -1 0 -6 -3 1 1 1)
1969/12/31/18:00:16.719000,(0 0 2 -6 -9 -1 0 -1)
1969/12/31/18:00:16.719000,(-2 -1 4 40 31 8 -1 -3)
1969/12/31/18:00:16.726000,(2 2 5 -1 -1 0 2 1)
1969/12/31/18:00:16.726000,(-1 0 -4 -4 -5 -2 -3 0)
1969/12/31/18:00:16.742000,(-4 -1 -1 -13 -10 -4 -3 -3)
1969/12/31/18:00:16.742000,(7 4 0 -10 -7 -1 3 5)
1969/12/31/18:00:16.744000,(-7 0 2 1 1 0 0 -6)
1969/12/31/18:00:16.744000,(-4 -5 -1 -2 1 -2 -3 -4)
1969/12/31/18:00:16.756000,(4 4 -3 -4 -2 1 1 3)
1969/12/31/18:00:16.756000,(0 -2 -9 -30 -16 -5 -1 1)
1969/12/31/18:00:16.765000,(1 2 5 26 10 3 2 0)
1969/12/31/18:00:16.765000,(6 6 12 23 17 8 10 9)
1969/12/31/18:00:16.780000,(-10 -4 4 11 2 -3 -11 -10)
1969/12/31/18:00:16.780000,(-4 -5 -4 -1 -1 0 1 3)
1969/12/31/18:00:16.786000,(6 1 -23 -91 -22 -9 -5 2)
1969/12/31/18:00:16.786000,(16 11 4 34 6 6 9 12)
1969/12/31/18:00:16.802000,(-1 1 17 46 22 1 -5 -2)
1969/12/31/18:00:16.802000,(-19 -10 1 5 3 -2 -8 -12)
1969/12/31/18:00:16.804000,(18 7 -4 -8 -7 0 5 16)
1969/12/31/18:00:16.804000,(-16 -8 -7 -14 -10 -8 -13 -20)
1969/12/31/18:00:16.816000,(-11 -4 -7 -33 -2 -1 2 -1)
1969/12/31/18:00:16.816000,(18 1 3 14 -3 1 4 8)
1969/12/31/18:00:16.831000,(-19 -10 5 15 2 -5 -12 -15)
1969/12/31/18:00:16.831000,(-2 -2 -6 -17 -3 -4 -2 0)
1969/12/31/18:00:16.840000,(20 12 1 4 -2 5 13 19)
1969/12/31/18:00:16.840000,(-28 -15 -8 -19 -8 -10 -9 -16)
1969/12/31/18:00:16.841000,(12 1 2 13 5 5 9 9)
1969/12/31/18:00:16.841000,(-12 -11 2 2 2 -5 -12 -14)
1969/12/31/18:00:16.862000,(12 1 -8 -32 -20 -11 -7 1)
1969/12/31/18:00:16.862000,(7 6 -8 -32 -19 -2 5 5)
1969/12/31/18:00:16.864000,(-7 -6 -1 39 0 -7 -5 -4)
1969/12/31/18:00:16.864000,(8 14 24 77 40 15 9 8)
1969/12/31/18:00:16.876000,(-23 -14 7 35 23 3 -10 -14)
1969/12/31/18:00:16.876000,(23 19 18 16 22 24 26 21)
1969/12/31/18:00:16.885000,(4 -2 -25 -89 -28 -8 -6 -6)
1969/12/31/18:00:16.885000,(-2 -7 -11 -7 -19 -7 2 3)
1969/12/31/18:00:16.899000,(6 4 12 47 3 -2 1 1)
1969/12/31/18:00:16.899000,(-2 4 8 9 10 1 -1 -1)
1969/12/31/18:00:16.906000,(-15 -6 0 1 -1 0 -2 -8)
1969/12/31/18:00:16.906000,(13 2 -10 -43 -11 -1 1 6)
1969/12/31/18:00:16.922000,(-1 -5 -10 -18 -12 -7 -2 -3)
1969/12/31/18:00:16.922000,(-4 -4 -5 -1 -3 -5 -8 -8)
1969/12/31/18:00:16.924000,(2 1 7 10 1 2 1 -1)
1969/12/31/18:00:16.924000,(-3 -4 -5 -22 -11 -4 -4 -2)
1969/12/31/18:00:16.936000,(4 3 -15 -26 -9 2 6 2)
1969/12/31/18:00:16.936000,(-5 -7 -3 10 11 -4 -7 -4)
1969/12/31/18:00:16.945000,(-3 0 13 36 12 2 1 -3)
1969/12/31/18:00:16.945000,(-6 -1 11 34 6 -1 -3 -5)
1969/12/31/18:00:16.959000,(7 5 0 -5 9 0 0 4)
1969/12/31/18:00:16.959000,(-6 -5 -4 11 -7 -7 -10 -13)
1969/12/31/18:00:16.966000,(6 3 0 8 18 7 4 8)
1969/12/31/18:00:16.966000,(3 3 -6 -39 -16 0 4 3)
1969/12/31/18:00:16.982000,(-14 -11 -9 -9 -13 -6 -7 -11)
1969/12/31/18:00:16.982000,(6 0 -2 -5 -1 0 2 7)
1969/12/31/18:00:16.984000,(2 3 3 16 0 -1 -1 -1)
1969/12/31/18:00:16.984000,(-14 -9 -4 -12 1 -4 -4 -5)
1969/12/31/18:00:16.996000,(9 4 0 -11 9 6 7 5)
1969/12/31/18:00:16.996000,(1 1 0 4 -6 -1 -1 0)
1969/12/31/18:00:17.005000,(-7 -2 3 13 -1 1 1 -4)
1969/12/31/18:00:17.005000,(-3 -2 -1 -6 5 4 0 -5)
1969/12/31/18:00:17.019000,(-6 -2 -6 -16 -7 -3 -4 -5)
1969/12/31/18:00:17.019000,(4 2 -2 -20 -7 -4 0 3)
1969/12/31/18:00:17.026000,(-5 -7 0 18 2 -5 -3 0)
1969/12/31/18:00:17.026000,(13 8 -1 4 4 1 -1 -2)
1969/12/31/18:00:17.042000,(11 14 13 16 5 4 12 23)
1969/12/31/18:00:17.042000,(-23 -20 -9 -4 -2 -5 -11 -19)
1969/12/31/18:00:17.044000,(-1 -1 -5 -17 -10 0 2 2)
1969/12/31/18:00:17.044000,(-4 -2 -2 -4 -8 -2 -2 0)
1969/12/31/18:00:17.056000,(10 7 3 6 2 5 4 6)
1969/12/31/18:00:17.056000,(4 2 1 5 9 7 4 6)
1969/12/31/18:00:17.072000,(9 4 -3 -9 -2 0 1 4)
1969/12/31/18:00:17.072000,(-15 -8 -1 5 3 0 -5 -11)
1969/12/31/18:00:17.079000,(-6 -3 0 1 -10 -3 -1 -6)
1969/12/31/18:00:17.079000,(8 3 1 -4 -10 -5 0 9)
1969/12/31/18:00:17.094000,(-5 -4 -3 1 5 -3 -7 -7)
1969/12/31/18:00:17.094000,(-6 -3 0 2 9 3 1 2)
1969/12/31/18:00:17.102000,(10 8 -1 0 4 5 3 -1)
1969/12/31/18:00:17.102000,(-2 3 7 3 -1 2 4 1)
1969/12/31/18:00:17.104000,(4 0 0 -7 -10 -4 -2 8)
1969/12/31/18:00:17.104000,(-8 -6 -2 -4 -5 -1 0 -7)
1969/12/31/18:00:17.116000,(-16 -7 2 7 2 -2 -4 -4)
1969/12/31/18:00:17.116000,(1 -1 -5 0 -2 -5 -6 -2)
1969/12/31/18:00:17.125000,(-1 -2 -6 -5 -5 -3 -4 -6)
1969/12/31/18:00:17.125000,(-24 -17 -1 -2 -2 -6 -8 -11)
1969/12/31/18:00:17.140000,(8 13 -1 -8 -6 -2 2 2)
1969/12/31/18:00:17.140000,(1 1 -3 0 0 -2 -6 -7)
1969/12/31/18:00:17.142000,(-8 -10 -1 -1 1 -1 1 -3)
1969/12/31/18:00:17.142000,(17 9 -2 -4 0 -3 -2 6)
1969/12/31/18:00:17.162000,(-20 -15 -3 2 -2 -4 -5 -8)
1969/12/31/18:00:17.162000,(0 4 3 3 2 0 0 0)
1969/12/31/18:00:17.164000,(6 6 -1 -5 0 4 4 4)
1969/12/31/18:00:17.164000,(-3 -4 -3 2 -3 -2 1 1)
1969/12/31/18:00:17.176000,(-7 -12 -1 3 -2 -5 -3 -6)
1969/12/31/18:00:17.176000,(4 4 -1 -5 5 6 6 3)
1969/12/31/18:00:17.185000,(-8 -5 5 4 5 0 -2 -7)
1969/12/31/18:00:17.185000,(14 10 3 5 1 2 5 9)
1969/12/31/18:00:17.207000,(-11 -9 -1 1 -4 -2 -4 -5)
1969/12/31/18:00:17.207000,(7 2 -4 0 0 -4 -7 -4)
1969/12/31/18:00:17.209000,(-9 -1 0 -4 -1 1 3 -5)
1969/12/31/18:00:17.209000,(8 5 -3 -15 -7 -1 2 1)
1969/12/31/18:00:17.222000,(23 11 0 2 -1 2 7 21)
1969/12/31/18:00:17.222000,(-37 -29 -10 3 -1 -11 -19 -28)
1969/12/31/18:00:17.224000,(-6 0 0 3 -1 -5 -10 -9)
1969/12/31/18:00:17.224000,(0 0 0 -8 -7 0 -2 1)
1969/12/31/18:00:17.245000,(-8 -6 -6 5 20 -4 -12 -17)
1969/12/31/18:00:17.245000,(9 3 1 -2 -11 5 12 15)
1969/12/31/18:00:17.246000,(-2 -5 1 2 2 0 -1 0)
1969/12/31/18:00:17.246000,(0 -1 -4 2 -1 -2 -1 -1)
1969/12/31/18:00:17.258000,(-4 -4 2 -1 -1 2 -1 -3)
1969/12/31/18:00:17.258000,(1 4 3 2 4 -2 -1 -2)
1969/12/31/18:00:17.267000,(-2 -1 -3 2 -2 -2 -2 -1)
1969/12/31/18:00:17.267000,(9 8 1 -14 -5 -1 3 3)
1969/12/31/18:00:17.282000,(-17 -9 0 3 -7 -2 -3 -9)
1969/12/31/18:00:17.282000,(3 4 5 4 7 6 4 4)
1969/12/31/18:00:17.284000,(29 16 9 20 11 13 24 37)
1969/12/31/18:00:17.284000,(-12 -12 1 11 5 -6 -13 -19)
1969/12/31/18:00:17.305000,(-11 -7 -2 -3 -2 -2 -5 -8)
1969/12/31/18:00:17.305000,(-11 -6 -6 -8 -5 -2 -1 -4)
1969/12/31/18:00:17.306000,(7 -3 -5 -14 -4 2 2 7)
1969/12/31/18:00:17.306000,(7 3 -5 -19 -10 0 2 5)
1969/12/31/18:00:17.318000,(7 3 3 4 -1 4 10 9)
1969/12/31/18:00:17.318000,(-3 -3 5 7 4 -5 -5 -4)
1969/12/31/18:00:17.327000,(-6 1 1 5 21 -2 -5 -12)
1969/12/31/18:00:17.327000,(13 7 2 -16 -19 4 9 11)
1969/12/31/18:00:17.342000,(4 1 1 5 7 0 -1 -1)
1969/12/31/18:00:17.342000,(4 -1 0 5 -12 3 9 12)
1969/12/31/18:00:17.344000,(14 12 4 5 -4 0 0 -1)
1969/12/31/18:00:17.344000,(-20 -17 -7 -5 9 2 -2 -2)
1969/12/31/18:00:17.365000,(26 13 7 0 5 10 11 14)
1969/12/31/18:00:17.365000,(18 17 5 1 6 5 8 11)
1969/12/31/18:00:17.366000,(-1 5 -6 -14 -11 -1 -5 -9)
1969/12/31/18:00:17.366000,(-8 -4 8 15 1 -4 1 1)
1969/12/31/18:00:17.378000,(31 26 2 -10 -3 5 10 18)
1969/12/31/18:00:17.378000,(10 11 2 6 7 -1 3 8)
1969/12/31/18:00:17.387000,(-8 -17 -11 -17 -11 0 -3 -7)
1969/12/31/18:00:17.387000,(-4 -2 -14 -57 -14 -6 -3 -6)
1969/12/31/18:00:17.402000,(-27 -19 -10 -16 -21 -14 -14 -17)
1969/12/31/18:00:17.402000,(5 -1 15 83 32 15 12 6)
1969/12/31/18:00:17.404000,(-11 2 20 47 28 4 -3 -6)
1969/12/31/18:00:17.404000,(4 -3 -7 -17 4 2 1 3)
1969/12/31/18:00:17.425000,(-4 -5 -10 -14 -16 -8 -5 -4)
1969/12/31/18:00:17.425000,(-10 -7 -11 -31 -26 -15 -12 -12)
1969/12/31/18:00:17.426000,(16 10 13 31 14 5 9 14)
1969/12/31/18:00:17.426000,(-6 0 7 31 18 4 -1 -6)
1969/12/31/18:00:17.438000,(-5 -6 -5 -29 -7 1 0 -2)
1969/12/31/18:00:17.438000,(0 -2 -16 -69 -37 -6 -3 -1)
1969/12/31/18:00:17.447000,(1 -5 -27 -60 -24 -9 3 7)
1969/12/31/18:00:17.447000,(5 6 15 77 15 1 0 1)
1969/12/31/18:00:17.470000,(-1 7 9 5 10 -1 -7 -5)
1969/12/31/18:00:17.470000,(-8 -7 7 48 20 -3 -7 -8)
1969/12/31/18:00:17.471000,(10 8 12 21 4 10 7 7)
1969/12/31/18:00:17.471000,(1 -4 -16 -101 -51 -10 -5 -4)
1969/12/31/18:00:17.485000,(9 4 -2 48 13 0 6 8)
1969/12/31/18:00:17.485000,(-12 -8 -1 17 33 3 -5 -6)
1969/12/31/18:00:17.486000,(-15 -6 4 -9 -3 2 -3 -13)
1969/12/31/18:00:17.486000,(18 13 1 11 4 5 12 16)
1969/12/31/18:00:17.499000,(-4 -4 -5 -23 -15 -3 -4 -7)
