time,.data
1969/12/31/18:00:15.254,(1 0 -1 -2 -2 2 -2 1)
1969/12/31/18:00:15.254,(-4 -1 0 -2 -2 -5 -8 -7)
1969/12/31/18:00:15.268,(-2 -1 0 -1 0 2 4 -1)
1969/12/31/18:00:15.268,(1 1 1 -1 -2 -1 -1 2)
1969/12/31/18:00:15.268,(0 0 -2 -2 -1 0 1 -2)
1969/12/31/18:00:15.269,(-2 -2 0 1 1 -2 -2 -4)
1969/12/31/18:00:15.274,(3 1 -1 -1 0 -1 -1 -1)
1969/12/31/18:00:15.274,(-2 -1 -2 0 0 -1 -1 -2)
1969/12/31/18:00:15.290,(0 -1 0 0 0 1 2 2)
1969/12/31/18:00:15.290,(0 0 0 -1 0 -3 -2 -3)
1969/12/31/18:00:15.292,(0 0 -1 0 0 -2 -1 -1)
1969/12/31/18:00:15.292,(-1 -1 -2 0 0 0 4 4)
1969/12/31/18:00:15.313,(2 0 0 -1 2 2 2 2)
1969/12/31/18:00:15.313,(-3 -4 -2 1 2 -1 -7 -7)
1969/12/31/18:00:15.314,(-2 0 0 0 0 -3 1 0)
1969/12/31/18:00:15.314,(0 -1 -1 -1 0 2 4 1)
1969/12/31/18:00:15.327,(-2 -2 1 1 -1 -2 -1 -1)
1969/12/31/18:00:15.327,(0 -1 -2 -2 0 -2 -7 -4)
1969/12/31/18:00:15.334,(0 -2 -1 -2 -3 -1 2 0)
1969/12/31/18:00:15.334,(0 0 0 -1 -1 1 0 2)
1969/12/31/18:00:15.351,(-1 1 -1 -1 1 -1 -3 0)
1969/12/31/18:00:15.351,(-1 0 1 0 1 2 1 -1)
1969/12/31/18:00:15.353,(-1 0 -1 -1 -1 2 0 0)
1969/12/31/18:00:15.353,(0 0 1 -2 -1 0 0 2)
1969/12/31/18:00:15.373,(-1 -1 -2 0 0 -4 -4 -1)
1969/12/31/18:00:15.373,(-1 0 -1 -1 -2 -2 -2 -3)
1969/12/31/18:00:15.375,(1 -1 1 -1 -1 1 0 0)
1969/12/31/18:00:15.375,(1 0 1 0 -1 -1 0 -1)
1969/12/31/18:00:15.395,(0 -1 0 0 0 -1 0 -1)
1969/12/31/18:00:15.395,(0 0 0 -1 1 0 2 2)
1969/12/31/18:00:15.397,(3 1 0 1 1 1 2 3)
1969/12/31/18:00:15.397,(-1 -1 -3 -2 1 -2 -2 -2)
1969/12/31/18:00:15.410,(-1 0 0 -2 0 -3 1 1)
1969/12/31/18:00:15.410,(-1 -2 -1 1 0 -2 -4 -2)
1969/12/31/18:00:15.412,(-3 -2 -2 0 0 0 1 1)
1969/12/31/18:00:15.412,(1 0 -1 0 -1 -2 0 -1)
1969/12/31/18:00:15.433,(0 -1 -3 -4 -3 2 2 2)
1969/12/31/18:00:15.433,(0 0 -1 -3 -3 -2 -1 -1)
1969/12/31/18:00:15.434,(-2 0 0 -1 -3 -2 -1 -1)
1969/12/31/18:00:15.434,(-2 -1 1 4 2 3 2 -2)
1969/12/31/18:00:15.448,(3 2 1 4 3 2 2 3)
1969/12/31/18:00:15.448,(-5 -5 -6 -7 -5 -5 -4 -3)
1969/12/31/18:00:15.463,(-2 -4 -3 -4 -4 0 -2 -3)
1969/12/31/18:00:15.463,(0 -1 -1 -1 -2 1 0 -1)
1969/12/31/18:00:15.470,(-1 1 3 0 -1 -1 2 2)
1969/12/31/18:00:15.470,(2 1 1 3 -1 0 1 0)
1969/12/31/18:00:15.472,(0 0 -1 0 2 2 1 2)
1969/12/31/18:00:15.472,(-2 -1 0 0 -1 -2 -1 0)
1969/12/31/18:00:15.493,(1 0 -2 -3 -1 0 1 -1)
1969/12/31/18:00:15.493,(-1 0 2 -1 -1 -1 -2 -1)
1969/12/31/18:00:15.494,(-1 3 15 0 0 -1 -1 0)
1969/12/31/18:00:15.494,(0 -2 -9 3 2 3 3 -1)
1969/12/31/18:00:15.506,(-2 -4 -5 -1 2 -2 -2 0)
1969/12/31/18:00:15.506,(-3 -1 2 -1 -4 -8 -3 -2)
1969/12/31/18:00:15.515,(-3 -1 -5 -5 0 -4 -6 -6)
1969/12/31/18:00:15.515,(2 1 4 -6 -3 2 5 4)
1969/12/31/18:00:15.538,(1 3 -1 2 -1 2 1 0)
1969/12/31/18:00:15.538,(9 12 22 -5 -3 7 6 4)
1969/12/31/18:00:15.540,(3 -4 -24 16 7 -2 -2 1)
1969/12/31/18:00:15.540,(-13 -15 -6 -13 -6 -11 -9 -10)
1969/12/31/18:00:15.553,(-6 -1 5 -24 -26 -1 1 -1)
1969/12/31/18:00:15.553,(6 8 0 1 5 0 2 5)
1969/12/31/18:00:15.554,(1 -3 -11 18 13 4 3 3)
1969/12/31/18:00:15.554,(3 4 11 6 10 0 -2 2)
1969/12/31/18:00:15.566,(-4 -1 -1 15 -11 -3 -5 -6)
1969/12/31/18:00:15.567,(-1 -3 -11 3 16 7 4 1)
1969/12/31/18:00:15.576,(-3 5 15 -5 -19 -2 1 -1)
1969/12/31/18:00:15.576,(8 2 -10 -1 16 8 5 4)
1969/12/31/18:00:15.590,(-7 -3 23 1 -9 -9 -4 -4)
1969/12/31/18:00:15.590,(3 10 -8 3 1 1 -2 -1)
1969/12/31/18:00:15.592,(-2 -9 -17 -56 -19 0 -2 -4)
1969/12/31/18:00:15.592,(6 1 -23 -33 -25 -9 -1 5)
1969/12/31/18:00:15.613,(-2 -6 13 -2 -12 -8 -7 -3)
1969/12/31/18:00:15.613,(-17 -12 -7 33 10 6 1 -6)
1969/12/31/18:00:15.615,(11 11 7 66 30 0 2 7)
1969/12/31/18:00:15.615,(-15 4 34 -8 2 -4 -10 -15)
1969/12/31/18:00:15.626,(11 7 15 -1 17 18 13 11)
1969/12/31/18:00:15.626,(1 2 -7 -10 -17 -9 -3 2)
1969/12/31/18:00:15.636,(2 8 8 -12 -4 7 3 1)
1969/12/31/18:00:15.636,(8 -8 -57 -14 -37 -3 2 4)
1969/12/31/18:00:15.658,(11 -3 3 -19 25 -4 -1 2)
1969/12/31/18:00:15.658,(-12 -7 26 49 -6 -5 -5 -6)
1969/12/31/18:00:15.660,(-11 -16 -27 -21 12 0 1 -6)
1969/12/31/18:00:15.660,(-1 -4 14 -26 -1 -8 1 1)
1969/12/31/18:00:15.673,(-14 -7 -12 25 -39 0 -4 -9)
1969/12/31/18:00:15.673,(18 14 7 6 58 11 11 15)
1969/12/31/18:00:15.674,(-1 5 8 -57 -29 -12 -7 -6)
1969/12/31/18:00:15.674,(7 7 8 58 -7 3 4 6)
1969/12/31/18:00:15.686,(-2 -11 -45 -53 3 -8 -4 -4)
1969/12/31/18:00:15.686,(-3 -6 13 -21 7 1 -5 -6)
1969/12/31/18:00:15.695,(10 18 45 127 35 27 12 9)
1969/12/31/18:00:15.695,(-2 -11 -8 2 41 10 1 1)
1969/12/31/18:00:15.710,(-20 -9 32 18 -40 -11 -11 -11)
1969/12/31/18:00:15.710,(-7 0 -25 -69 -25 -10 -9 -7)
1969/12/31/18:00:15.712,(7 -3 -33 -68 29 -2 -8 1)
1969/12/31/18:00:15.712,(7 4 -5 10 -36 3 0 3)
1969/12/31/18:00:15.733,(9 13 -4 0 23 10 7 8)
1969/12/31/18:00:15.733,(4 -2 13 24 -25 -9 8 4)
1969/12/31/18:00:15.734,(-12 -10 4 -45 -10 -17 -2 -8)
1969/12/31/18:00:15.734,(-4 1 20 47 29 -3 2 -5)
1969/12/31/18:00:15.746,(-1 -5 -4 53 23 -12 -2 -2)
1969/12/31/18:00:15.746,(-11 -18 -23 -74 -65 -22 -6 -9)
1969/12/31/18:00:15.761,(-1 -1 -3 1 22 -2 4 1)
1969/12/31/18:00:15.761,(-5 -3 2 35 16 1 2 0)
1969/12/31/18:00:15.770,(3 3 11 -36 12 7 2 -1)
1969/12/31/18:00:15.770,(6 7 9 64 5 16 3 6)
1969/12/31/18:00:15.776,(3 1 -1 26 -25 7 -3 3)
1969/12/31/18:00:15.776,(1 4 -1 -76 -16 9 -7 1)
1969/12/31/18:00:15.793,(4 6 -9 28 4 14 -2 3)
1969/12/31/18:00:15.793,(2 -3 -17 -45 -6 5 -5 0)
1969/12/31/18:00:15.794,(-2 -1 10 26 -19 0 -3 -1)
1969/12/31/18:00:15.794,(1 8 13 8 21 3 1 0)
1969/12/31/18:00:15.816,(2 2 -15 -14 -7 -8 -1 0)
1969/12/31/18:00:15.816,(-7 -11 -9 -9 13 -11 -2 -6)
1969/12/31/18:00:15.817,(-6 -6 4 -3 -7 -14 -2 -3)
1969/12/31/18:00:15.817,(-1 1 3 -1 -7 -1 0 0)
1969/12/31/18:00:15.830,(3 1 -7 4 8 10 1 3)
1969/12/31/18:00:15.830,(2 4 4 9 3 8 -3 0)
1969/12/31/18:00:15.837,(2 2 2 0 -5 3 -1 2)
1969/12/31/18:00:15.837,(-2 -3 -4 -6 -3 -4 0 -5)
1969/12/31/18:00:15.852,(-3 -5 -5 -8 3 -9 2 -2)
1969/12/31/18:00:15.852,(3 0 6 19 15 -8 4 -4)
1969/12/31/18:00:15.853,(-9 -8 -6 -5 -9 -13 -5 -11)
1969/12/31/18:00:15.853,(-5 -6 -2 -6 1 -5 0 0)
1969/12/31/18:00:15.874,(-4 -2 0 5 6 -5 1 -1)
1969/12/31/18:00:15.874,(0 -5 -5 5 1 -2 5 7)
1969/12/31/18:00:15.875,(14 5 -3 -14 -7 -6 3 6)
1969/12/31/18:00:15.875,(-23 -5 0 -1 -5 -6 -7 -15)
1969/12/31/18:00:15.890,(0 -1 -7 -28 -5 -9 2 -1)
1969/12/31/18:00:15.890,(-3 -2 11 56 16 -3 0 -2)
1969/12/31/18:00:15.897,(1 -5 -8 -12 4 -7 0 1)
1969/12/31/18:00:15.897,(10 2 -5 -1 -10 -1 -1 7)
1969/12/31/18:00:15.912,(-4 -4 -14 -43 -1 0 -3 -1)
1969/12/31/18:00:15.912,(4 5 8 23 -1 7 -2 2)
1969/12/31/18:00:15.913,(-3 4 20 39 18 15 -2 3)
1969/12/31/18:00:15.913,(5 6 11 34 15 5 3 2)
1969/12/31/18:00:15.934,(-1 0 -8 11 -6 4 0 -1)
1969/12/31/18:00:15.935,(1 0 -11 -44 -18 6 -1 0)
1969/12/31/18:00:15.935,(-4 1 -2 -6 -8 5 -1 -3)
1969/12/31/18:00:15.935,(0 -2 -7 -24 -15 3 -5 -2)
1969/12/31/18:00:15.951,(8 7 6 3 -1 11 3 5)
1969/12/31/18:00:15.951,(-4 -2 -2 -6 0 5 -6 -3)
1969/12/31/18:00:15.957,(0 1 -2 -10 -11 4 0 3)
1969/12/31/18:00:15.957,(3 1 3 -3 2 3 0 1)
1969/12/31/18:00:15.972,(4 1 -4 -24 -10 2 2 4)
1969/12/31/18:00:15.972,(0 3 4 16 -1 2 -1 1)
1969/12/31/18:00:15.973,(-3 -3 0 6 1 -2 -1 -3)
1969/12/31/18:00:15.973,(-2 -8 -29 -69 -19 -10 -2 -1)
1969/12/31/18:00:15.995,(-2 2 30 90 22 -2 -1 -2)
1969/12/31/18:00:15.995,(-8 1 14 34 14 -3 -10 -13)
1969/12/31/18:00:15.995,(-6 -5 -6 -3 -11 -2 1 -3)
1969/12/31/18:00:15.995,(11 3 -3 -15 6 2 5 8)
1969/12/31/18:00:16.010,(2 -2 -22 -65 -19 -2 0 3)
1969/12/31/18:00:16.010,(0 -5 -30 -90 -13 -2 -2 0)
1969/12/31/18:00:16.011,(0 3 9 55 10 5 -2 -3)
1969/12/31/18:00:16.011,(-1 7 33 78 22 5 0 1)
1969/12/31/18:00:16.032,(5 4 18 42 23 5 2 2)
1969/12/31/18:00:16.032,(-2 0 4 9 4 -1 4 2)
1969/12/31/18:00:16.033,(7 4 -10 -51 -8 1 14 15)
1969/12/31/18:00:16.033,(-16 -16 -24 -40 -27 -18 -11 -18)
1969/12/31/18:00:16.055,(-2 -5 -7 6 -1 -6 -1 -2)
1969/12/31/18:00:16.055,(-14 -5 -2 -9 -1 -2 0 -7)
1969/12/31/18:00:16.055,(23 3 -5 -19 -2 -2 7 13)
1969/12/31/18:00:16.055,(5 8 10 24 11 3 11 8)
1969/12/31/18:00:16.070,(5 -4 -1 1 -1 -13 -8 -6)
1969/12/31/18:00:16.070,(4 -2 -3 -1 2 -5 4 0)
1969/12/31/18:00:16.070,(-18 -7 -1 0 0 -8 -3 -9)
1969/12/31/18:00:16.070,(5 2 -1 -25 2 0 3 5)
1969/12/31/18:00:16.092,(-4 -2 -11 -4 -3 -3 1 1)
1969/12/31/18:00:16.092,(11 5 10 33 2 -4 -2 6)
1969/12/31/18:00:16.093,(-11 -2 15 35 12 -3 -11 -13)
1969/12/31/18:00:16.093,(-2 -5 -7 -17 -2 -4 -5 -5)
1969/12/31/18:00:16.114,(-2 0 -7 -16 -6 7 6 6)
1969/12/31/18:00:16.115,(8 2 -7 -8 -9 -2 1 4)
1969/12/31/18:00:16.115,(-9 4 13 29 10 0 -1 1)
1969/12/31/18:00:16.115,(-12 -6 8 22 5 -5 -20 -28)
1969/12/31/18:00:16.130,(25 10 2 -3 5 13 23 30)
1969/12/31/18:00:16.130,(-6 -13 -16 -22 -11 -9 -13 -8)
1969/12/31/18:00:16.130,(11 -1 -15 -31 -13 -2 0 5)
1969/12/31/18:00:16.130,(-12 -3 -4 -1 -3 5 1 -2)
1969/12/31/18:00:16.152,(-5 -2 -17 -51 -8 -3 -6 -5)
1969/12/31/18:00:16.152,(13 9 18 41 2 6 6 9)
1969/12/31/18:00:16.153,(-11 -3 -5 -78 -14 -4 -2 -6)
1969/12/31/18:00:16.153,(11 3 -1 49 1 0 6 13)
1969/12/31/18:00:16.175,(-13 -2 26 77 24 1 -7 -14)
1969/12/31/18:00:16.175,(-4 1 10 27 24 6 0 -2)
1969/12/31/18:00:16.175,(-3 -6 -7 -5 -5 -1 -1 -2)
1969/12/31/18:00:16.175,(-4 6 2 -30 -8 -3 -6 -9)
1969/12/31/18:00:16.189,(-5 -10 -20 -38 -20 -9 -9 -8)
1969/12/31/18:00:16.190,(-10 -1 -11 -23 -9 0 3 1)
1969/12/31/18:00:16.190,(19 3 3 9 3 7 10 17)
1969/12/31/18:00:16.190,(-6 -9 -5 -6 10 -2 -5 -6)
1969/12/31/18:00:16.212,(-45 -17 3 14 -16 -6 -11 -21)
1969/12/31/18:00:16.212,(83 43 17 4 13 18 28 45)
1969/12/31/18:00:16.213,(-25 -17 -7 3 2 -10 -15 -19)
1969/12/31/18:00:16.213,(2 0 0 -3 -7 0 5 6)
1969/12/31/18:00:16.236,(3 3 3 -3 7 3 1 0)
1969/12/31/18:00:16.236,(-24 -17 -23 -49 -12 -2 -5 -11)
1969/12/31/18:00:16.237,(9 3 -8 -24 -6 2 2 4)
1969/12/31/18:00:16.237,(8 4 21 72 12 5 3 3)
1969/12/31/18:00:16.249,(-2 6 29 37 -3 -6 -2 -4)
1969/12/31/18:00:16.250,(-15 -8 5 25 9 -6 -6 -9)
1969/12/31/18:00:16.250,(-2 -1 -2 9 16 2 -5 -7)
1969/12/31/18:00:16.250,(-11 -7 -13 -28 1 4 3 6)
1969/12/31/18:00:16.272,(24 10 -11 -33 -6 3 2 6)
1969/12/31/18:00:16.272,(-16 -8 -8 -23 -36 -17 -10 -14)
1969/12/31/18:00:16.273,(-4 -1 -5 -3 -12 -6 -6 -5)
1969/12/31/18:00:16.273,(6 1 -3 -4 12 7 8 7)
1969/12/31/18:00:16.295,(10 5 1 8 29 7 1 5)
1969/12/31/18:00:16.295,(8 9 9 4 0 21 23 26)
1969/12/31/18:00:16.295,(-20 -13 -4 6 -14 -17 -15 -13)
1969/12/31/18:00:16.295,(3 6 2 -5 -6 2 6 0)
1969/12/31/18:00:16.310,(-5 -6 -7 -8 -16 -14 -9 -8)
1969/12/31/18:00:16.310,(-7 -12 -37 -103 -33 -17 -7 -5)
1969/12/31/18:00:16.310,(9 5 8 71 9 7 9 9)
1969/12/31/18:00:16.310,(1 8 27 43 46 20 6 3)
1969/12/31/18:00:16.332,(-3 0 36 101 61 20 0 -5)
1969/12/31/18:00:16.332,(-13 -4 9 22 15 1 -8 -12)
1969/12/31/18:00:16.333,(4 -1 -14 -47 -30 -5 4 7)
1969/12/31/18:00:16.333,(3 -7 -37 -85 -50 -22 -9 -2)
1969/12/31/18:00:16.355,(-3 -2 -2 1 -12 -4 0 1)
1969/12/31/18:00:16.355,(-9 -6 1 3 1 -6 -10 -10)
1969/12/31/18:00:16.355,(-15 -10 -5 -4 0 -3 -8 -15)
1969/12/31/18:00:16.355,(37 20 9 18 11 16 21 39)
1969/12/31/18:00:16.371,(-19 -20 -25 -50 -21 -11 -12 -17)
1969/12/31/18:00:16.371,(-25 -11 7 22 3 3 -4 -14)
1969/12/31/18:00:16.372,(23 8 5 5 4 3 9 23)
1969/12/31/18:00:16.372,(-31 -24 -7 -2 -11 -25 -36 -45)
1969/12/31/18:00:16.392,(5 6 -3 -14 -13 -2 1 4)
1969/12/31/18:00:16.392,(14 3 0 10 10 1 -2 3)
1969/12/31/18:00:16.393,(-15 -4 5 9 11 -2 -12 -12)
1969/12/31/18:00:16.393,(-14 -7 -2 -7 -10 -1 9 -5)
1969/12/31/18:00:16.415,(16 9 -2 -5 1 13 22 21)
1969/12/31/18:00:16.415,(-12 -7 -2 8 -1 -8 -11 -15)
1969/12/31/18:00:16.415,(11 9 1 -32 -26 -4 1 9)
1969/12/31/18:00:16.415,(-5 -6 -17 -29 -27 -13 -14 -4)
1969/12/31/18:00:16.429,(-8 -2 0 8 41 8 -1 -7)
1969/12/31/18:00:16.429,(13 8 27 89 59 25 13 12)
1969/12/31/18:00:16.430,(-14 3 21 54 39 13 2 -8)
1969/12/31/18:00:16.430,(2 -1 1 -19 -36 -8 -7 3)
1969/12/31/18:00:16.452,(-12 -3 -8 -39 -40 -18 0 -3)
1969/12/31/18:00:16.452,(2 -9 -20 -38 -22 -8 3 7)
1969/12/31/18:00:16.453,(16 9 -1 -11 8 14 23 17)
1969/12/31/18:00:16.453,(-9 -9 -4 5 4 -7 -12 -10)
1969/12/31/18:00:16.475,(24 13 1 -12 -3 4 2 7)
1969/12/31/18:00:16.475,(-16 -4 3 4 -1 -5 -9 -14)
1969/12/31/18:00:16.475,(9 1 0 7 2 -3 -3 -2)
1969/12/31/18:00:16.475,(3 5 -10 -49 6 10 13 11)
1969/12/31/18:00:16.489,(-5 -16 -43 -95 -68 -25 -4 3)
1969/12/31/18:00:16.489,(15 13 44 82 10 12 9 12)
1969/12/31/18:00:16.490,(0 11 53 97 86 26 3 -10)
1969/12/31/18:00:16.490,(0 6 40 102 81 20 1 -1)
1969/12/31/18:00:16.512,(4 4 -4 -32 -13 -3 -1 -1)
1969/12/31/18:00:16.512,(-15 -17 -43 -91 -50 -23 -9 -12)
1969/12/31/18:00:16.513,(-7 -5 -28 -69 -48 -12 1 6)
1969/12/31/18:00:16.513,(5 -1 -8 -20 -11 -8 1 1)
1969/12/31/18:00:16.535,(-6 -2 3 19 12 1 -8 -8)
1969/12/31/18:00:16.535,(-7 2 0 -5 4 11 20 15)
1969/12/31/18:00:16.535,(9 1 0 8 -1 -5 -8 0)
1969/12/31/18:00:16.535,(1 1 0 -1 -1 0 3 3)
1969/12/31/18:00:16.550,(10 3 6 19 4 7 10 18)
1969/12/31/18:00:16.550,(-3 -3 2 3 2 1 -10 -12)
1969/12/31/18:00:16.550,(-18 -11 -9 -19 -2 -6 -11 -15)
1969/12/31/18:00:16.550,(-2 -2 -8 -33 -16 -2 7 3)
1969/12/31/18:00:16.572,(15 9 6 31 4 -2 -4 6)
1969/12/31/18:00:16.572,(-5 3 20 50 16 3 -2 -2)
1969/12/31/18:00:16.573,(-3 -4 -7 -30 -7 -7 1 -2)
1969/12/31/18:00:16.573,(1 -4 1 21 13 -1 -1 -2)
1969/12/31/18:00:16.595,(-14 0 22 40 4 8 -2 -8)
1969/12/31/18:00:16.595,(5 1 -11 -34 -7 -7 -7 1)
1969/12/31/18:00:16.595,(6 -4 -18 -40 -16 -6 0 -1)
1969/12/31/18:00:16.595,(-4 -1 -4 23 -7 -1 -2 -1)
1969/12/31/18:00:16.609,(4 -1 2 8 22 4 2 2)
1969/12/31/18:00:16.609,(7 7 3 6 6 2 2 3)
1969/12/31/18:00:16.617,(3 1 -7 -22 -20 -3 -3 -2)
1969/12/31/18:00:16.617,(-9 -1 -1 -14 8 4 3 -1)
1969/12/31/18:00:16.632,(-17 -7 -3 -25 -3 -5 -6 -8)
1969/12/31/18:00:16.632,(-5 -3 -3 11 -8 -5 -4 1)
1969/12/31/18:00:16.633,(-16 -11 1 3 6 6 8 4)
1969/12/31/18:00:16.633,(32 18 2 -12 -12 0 5 11)
1969/12/31/18:00:16.655,(7 2 4 32 1 -1 -2 -2)
1969/12/31/18:00:16.655,(-9 -2 -9 -36 -3 -4 -3 -6)
1969/12/31/18:00:16.655,(-1 -7 -24 -38 -10 -6 -2 1)
1969/12/31/18:00:16.655,(2 7 32 81 14 9 8 8)
1969/12/31/18:00:16.669,(-14 -4 10 12 8 0 -4 -11)
1969/12/31/18:00:16.669,(16 5 -6 -11 -2 -5 -2 4)
1969/12/31/18:00:16.677,(6 1 -7 12 1 -1 -1 -1)
1969/12/31/18:00:16.677,(-1 -2 -5 -32 -16 -5 -8 -11)
1969/12/31/18:00:16.692,(25 12 -1 2 0 1 7 17)
1969/12/31/18:00:16.692,(-20 -17 -19 -30 -6 -5 -10 -21)
1969/12/31/18:00:16.693,(20 14 12 14 -3 -1 -1 9)
1969/12/31/18:00:16.693,(-41 -26 -1 26 5 -3 -8 -20)
1969/12/31/18:00:16.714,(-4 -4 -3 -20 1 -4 0 2)
1969/12/31/18:00:16.714,(29 12 1 10 4 4 6 13)
1969/12/31/18:00:16.715,(-32 -27 4 3 -4 -3 -10 -18)
1969/12/31/18:00:16.715,(75 45 1 -5 6 2 14 42)
1969/12/31/18:00:16.738,(-21 -13 -10 -11 -13 -2 -1 -6)
1969/12/31/18:00:16.738,(-14 -12 -7 -17 -7 -6 -4 -8)
1969/12/31/18:00:16.739,(13 10 0 1 0 2 5 6)
1969/12/31/18:00:16.739,(-18 -12 -1 -1 0 1 -5 -5)
1969/12/31/18:00:16.752,(3 0 2 11 4 0 -4 -7)
1969/12/31/18:00:16.752,(-7 3 7 5 1 -1 -5 -6)
1969/12/31/18:00:16.753,(-23 -6 11 31 5 2 -2 -12)
1969/12/31/18:00:16.753,(-15 -12 -18 -28 -8 0 1 -3)
1969/12/31/18:00:16.775,(5 3 -2 -5 -1 -2 -6 -2)
1969/12/31/18:00:16.775,(-38 -24 -3 -4 -2 -7 -10 -23)
1969/12/31/18:00:16.776,(14 14 2 -9 -2 -3 2 7)
1969/12/31/18:00:16.776,(-3 6 2 5 -3 -8 -9 -10)
1969/12/31/18:00:16.789,(-41 -26 0 7 3 0 -7 -27)
1969/12/31/18:00:16.789,(12 4 6 7 5 7 10 16)
1969/12/31/18:00:16.797,(27 6 -1 0 1 0 4 16)
1969/12/31/18:00:16.797,(15 4 -7 -29 -15 -9 -6 -3)
1969/12/31/18:00:16.812,(-38 -28 -14 3 -3 -4 -13 -20)
1969/12/31/18:00:16.812,(30 32 10 11 9 1 -1 2)
1969/12/31/18:00:16.813,(-15 -7 10 10 4 10 15 18)
1969/12/31/18:00:16.813,(-7 -16 -9 -10 -5 -1 -1 -5)
1969/12/31/18:00:16.835,(40 22 3 -2 4 6 14 26)
1969/12/31/18:00:16.835,(-1 2 -1 -6 -1 -4 -5 -4)
1969/12/31/18:00:16.836,(-19 -14 -21 -47 -17 -14 -17 -24)
1969/12/31/18:00:16.836,(6 1 2 -20 -9 2 5 7)
1969/12/31/18:00:16.849,(19 18 27 90 12 4 9 12)
1969/12/31/18:00:16.849,(-17 -4 19 53 25 7 2 -5)
1969/12/31/18:00:16.857,(51 38 6 18 4 1 9 18)
1969/12/31/18:00:16.857,(11 8 -4 -28 0 5 6 8)
1969/12/31/18:00:16.872,(-2 -2 -30 -80 -17 -2 -3 -3)
1969/12/31/18:00:16.872,(-19 -40 -9 5 -4 4 7 7)
1969/12/31/18:00:16.873,(26 11 -3 4 -2 -4 -3 1)
1969/12/31/18:00:16.873,(-67 -36 7 5 5 1 -3 -12)
1969/12/31/18:00:16.895,(17 15 0 -3 4 3 3 2)
1969/12/31/18:00:16.895,(3 0 -2 -6 -4 -3 -2 0)
1969/12/31/18:00:16.896,(-7 -3 -6 -6 -4 -6 -8 -9)
1969/12/31/18:00:16.896,(4 -7 -4 5 -1 0 -1 3)
1969/12/31/18:00:16.909,(9 1 -4 -21 1 8 8 8)
1969/12/31/18:00:16.909,(-16 -5 8 14 0 -6 -9 -9)
1969/12/31/18:00:16.917,(-12 -6 9 20 3 3 3 -2)
1969/12/31/18:00:16.917,(8 8 -2 2 -1 -1 0 -1)
1969/12/31/18:00:16.932,(-15 -9 4 17 4 -4 -4 -6)
1969/12/31/18:00:16.932,(23 17 -10 -31 -10 -2 2 10)
1969/12/31/18:00:16.933,(-41 -31 -10 -5 -5 -4 -7 -20)
1969/12/31/18:00:16.933,(48 36 11 14 2 -1 -1 6)
1969/12/31/18:00:16.955,(3 -2 -7 -39 -11 -6 -10 -12)
1969/12/31/18:00:16.955,(-7 -4 -4 0 -2 -1 1 0)
1969/12/31/18:00:16.956,(-1 1 10 39 11 6 4 3)
1969/12/31/18:00:16.956,(-38 -25 -1 15 13 -1 0 -9)
1969/12/31/18:00:16.978,(40 24 8 12 -4 -3 -3 6)
1969/12/31/18:00:16.978,(-28 -7 4 -4 -7 -14 -17 -28)
1969/12/31/18:00:16.979,(-8 -6 -12 -30 -5 3 4 2)
1969/12/31/18:00:16.979,(19 5 -12 -1 21 16 17 22)
1969/12/31/18:00:16.992,(-10 -3 2 3 -13 -2 -3 -3)
1969/12/31/18:00:16.992,(9 6 1 -8 -4 2 1 6)
1969/12/31/18:00:16.993,(-11 -7 2 2 1 -6 -7 -10)
1969/12/31/18:00:16.993,(-3 -3 -5 -34 -15 -8 -3 -1)
1969/12/31/18:00:17.015,(-9 -7 9 55 18 -4 -4 -8)
1969/12/31/18:00:17.015,(15 15 -1 -5 5 10 11 10)
1969/12/31/18:00:17.016,(4 3 0 0 -2 3 2 3)
1969/12/31/18:00:17.016,(1 -3 1 6 -8 -2 -6 -8)
1969/12/31/18:00:17.038,(-4 1 -2 -14 -3 -2 -2 -3)
1969/12/31/18:00:17.038,(20 7 -8 -7 -4 -4 -1 3)
1969/12/31/18:00:17.039,(-1 1 0 3 2 0 -2 -1)
1969/12/31/18:00:17.039,(-2 2 0 -3 -7 -2 -2 -2)
1969/12/31/18:00:17.052,(9 0 -6 -29 -5 3 1 5)
1969/12/31/18:00:17.052,(4 -3 0 15 6 6 8 14)
1969/12/31/18:00:17.053,(-6 -10 4 6 2 0 2 3)
1969/12/31/18:00:17.053,(26 20 1 18 2 -2 -4 3)
1969/12/31/18:00:17.075,(2 9 13 3 2 -8 -5 -7)
1969/12/31/18:00:17.075,(-18 -4 -5 -13 2 8 13 12)
1969/12/31/18:00:17.076,(-10 -8 -18 -30 -14 -7 -7 -8)
1969/12/31/18:00:17.076,(-24 -15 0 13 -1 0 2 -11)
1969/12/31/18:00:17.098,(7 -2 -11 -18 6 1 3 13)
1969/12/31/18:00:17.098,(41 31 20 36 -10 -3 5 11)
1969/12/31/18:00:17.098,(-6 -2 14 27 9 -6 -10 -9)
1969/12/31/18:00:17.099,(-7 4 6 10 4 -4 -4 -12)
1969/12/31/18:00:17.112,(-11 -10 -3 -18 2 5 7 9)
1969/12/31/18:00:17.112,(-23 -23 -12 -21 1 4 2 -6)
1969/12/31/18:00:17.113,(54 34 -1 -4 -1 4 4 21)
1969/12/31/18:00:17.113,(-27 -20 -7 -9 -10 -12 -14 -22)
1969/12/31/18:00:17.135,(-21 -10 -2 9 4 1 -1 -3)
1969/12/31/18:00:17.135,(36 17 -4 -10 -5 -7 -9 -2)
1969/12/31/18:00:17.136,(-41 -12 11 10 3 0 -5 -23)
1969/12/31/18:00:17.136,(35 20 5 -4 1 5 14 34)
1969/12/31/18:00:17.158,(-11 -13 -13 -3 -12 -13 -12 -16)
1969/12/31/18:00:17.158,(-2 -7 -6 -7 -4 0 1 1)
1969/12/31/18:00:17.159,(-1 -4 -5 -2 3 -1 -2 -2)
1969/12/31/18:00:17.159,(-3 -2 10 35 8 -1 -2 -5)
1969/12/31/18:00:17.172,(-8 -2 -2 -24 9 7 6 1)
1969/12/31/18:00:17.172,(-9 -12 3 20 -11 -7 -7 -3)
1969/12/31/18:00:17.173,(8 4 6 16 6 2 8 11)
1969/12/31/18:00:17.173,(13 4 -8 -20 -8 1 5 8)
1969/12/31/18:00:17.195,(7 0 -8 -3 -3 0 1 3)
1969/12/31/18:00:17.195,(-34 -21 -8 -31 -3 -2 -7 -16)
1969/12/31/18:00:17.196,(1 -4 -1 -3 -5 0 0 5)
1969/12/31/18:00:17.196,(13 3 2 8 -3 -3 -4 4)
1969/12/31/18:00:17.218,(5 7 5 13 4 8 7 1)
1969/12/31/18:00:17.218,(-19 -10 -10 -17 -4 -4 -6 -14)
1969/12/31/18:00:17.218,(15 -1 0 -4 -3 3 2 12)
1969/12/31/18:00:17.218,(1 -5 -7 -15 -5 -7 -9 -10)
1969/12/31/18:00:17.232,(-7 -3 -7 -33 -4 -2 -1 0)
1969/12/31/18:00:17.232,(13 14 11 35 5 6 5 9)
1969/12/31/18:00:17.233,(4 9 12 20 7 4 2 -2)
1969/12/31/18:00:17.233,(-23 -7 1 -2 -1 -2 -5 -10)
1969/12/31/18:00:17.255,(-9 -14 -2 2 -2 0 1 0)
1969/12/31/18:00:17.255,(18 12 -5 -16 3 6 9 15)
1969/12/31/18:00:17.256,(-25 -2 -2 -13 -4 0 -5 -18)
1969/12/31/18:00:17.256,(-12 -8 0 6 0 -3 -2 -6)
1969/12/31/18:00:17.278,(3 7 10 19 0 -2 1 0)
1969/12/31/18:00:17.278,(-1 -8 -8 -10 -2 -7 -5 -1)
1969/12/31/18:00:17.279,(9 12 -6 -17 -7 1 7 8)
1969/12/31/18:00:17.279,(-7 -5 5 14 3 1 3 6)
1969/12/31/18:00:17.291,(-7 -4 6 33 17 -3 -9 -9)
1969/12/31/18:00:17.291,(-4 2 8 4 -3 4 0 -5)
1969/12/31/18:00:17.300,(-10 -15 -9 -20 -17 -2 2 -2)
1969/12/31/18:00:17.301,(67 36 -2 -12 7 9 21 42)
1969/12/31/18:00:17.315,(4 6 -3 1 -1 3 -3 -15)
1969/12/31/18:00:17.315,(-4 -1 -1 -2 10 0 2 0)
1969/12/31/18:00:17.317,(-8 -10 -4 -3 2 -2 -5 -10)
1969/12/31/18:00:17.317,(-25 -10 1 -3 -8 -2 -1 -1)
1969/12/31/18:00:17.338,(7 4 2 8 3 4 10 13)
1969/12/31/18:00:17.338,(5 0 -4 -7 0 -1 -1 0)
1969/12/31/18:00:17.339,(-12 -8 -4 8 3 -5 -6 -9)
1969/12/31/18:00:17.339,(-1 2 4 1 -1 1 1 -4)
1969/12/31/18:00:17.351,(16 11 1 3 -5 -3 3 12)
1969/12/31/18:00:17.351,(-26 -9 3 4 5 3 -4 -18)
1969/12/31/18:00:17.361,(-10 -15 -5 -3 -1 -4 -4 2)
1969/12/31/18:00:17.361,(-18 -4 -3 -4 0 0 -3 -5)
1969/12/31/18:00:17.375,(-28 -15 -4 -5 -5 -2 -9 -16)
1969/12/31/18:00:17.375,(-2 -9 -7 -3 -5 -6 -6 -6)
1969/12/31/18:00:17.377,(7 2 -3 -18 -1 1 3 8)
1969/12/31/18:00:17.377,(-8 -8 -1 13 4 0 -1 -5)
1969/12/31/18:00:17.405,(-1 3 9 6 -1 1 0 3)
1969/12/31/18:00:17.405,(26 17 3 3 4 1 9 18)
1969/12/31/18:00:17.407,(-14 -2 -1 2 3 -4 -7 -13)
1969/12/31/18:00:17.407,(8 -3 -6 -11 -3 2 4 3)
1969/12/31/18:00:17.411,(2 2 1 2 -4 -6 -3 2)
1969/12/31/18:00:17.411,(4 -2 -3 -5 -1 0 3 1)
1969/12/31/18:00:17.420,(4 3 4 -2 -3 -2 3 5)
1969/12/31/18:00:17.420,(29 19 -3 -2 -4 -4 -2 6)
1969/12/31/18:00:17.435,(-11 -4 0 2 0 -1 -4 -11)
1969/12/31/18:00:17.435,(-4 0 3 0 -1 -3 -5 -4)
1969/12/31/18:00:17.437,(-5 -3 -4 2 0 1 1 -2)
1969/12/31/18:00:17.437,(3 0 0 1 -1 -2 -8 -4)
1969/12/31/18:00:17.458,(-21 -8 -1 -10 -2 6 9 1)
1969/12/31/18:00:17.458,(30 11 -6 -8 -3 3 5 15)
1969/12/31/18:00:17.460,(7 1 0 13 3 -1 -4 -4)
1969/12/31/18:00:17.460,(-26 -12 13 20 7 2 -3 -12)
1969/12/31/18:00:17.471,(6 6 -2 4 1 1 1 6)
1969/12/31/18:00:17.471,(-12 -6 -2 -21 -9 -7 -7 -10)
1969/12/31/18:00:17.480,(-2 -4 -3 -4 -5 -2 1 2)
1969/12/31/18:00:17.480,(-41 -24 -1 7 5 2 2 -12)
1969/12/31/18:00:17.495,(18 2 2 8 3 -3 -6 -2)
1969/12/31/18:00:17.495,(-10 1 5 4 2 -6 -8 -12)
1969/12/31/18:00:17.497,(8 1 -6 -10 -2 -1 1 5)
1969/12/31/18:00:17.497,(-12 -9 -8 -21 -11 -10 -9 -10)
1969/12/31/18:00:17.518,(-24 -18 -1 2 -2 -7 -2 -2)
1969/12/31/18:00:17.518,(9 5 -1 3 3 4 7 8)
1969/12/31/18:00:17.519,(-1 -1 -5 -34 -13 -1 -3 -2)
1969/12/31/18:00:17.519,(8 5 -1 22 18 2 0 0)
1969/12/31/18:00:17.531,(-1 -9 -14 -39 -17 3 2 6)
1969/12/31/18:00:17.531,(22 20 15 24 -6 2 0 5)
1969/12/31/18:00:17.540,(-6 4 21 62 18 0 1 6)
1969/12/31/18:00:17.540,(-18 -12 2 13 4 -2 -13 -22)
1969/12/31/18:00:17.556,(32 14 1 -6 2 7 16 24)
1969/12/31/18:00:17.556,(-5 -10 -14 -21 0 1 -1 -3)
1969/12/31/18:00:17.561,(1 -5 -15 -27 -13 0 2 7)
1969/12/31/18:00:17.561,(6 6 -2 -10 -4 -1 0 2)
1969/12/31/18:00:17.578,(11 5 -1 -5 -3 -3 -2 1)
1969/12/31/18:00:17.578,(-2 0 -2 4 1 -3 -2 3)
1969/12/31/18:00:17.579,(3 12 9 14 9 5 7 -1)
1969/12/31/18:00:17.579,(13 4 -5 -44 -11 4 3 7)
1969/12/31/18:00:17.591,(-7 -7 -3 16 2 -1 2 -1)
1969/12/31/18:00:17.591,(3 4 6 23 0 1 7 8)
1969/12/31/18:00:17.600,(3 4 -4 -5 8 0 -5 -6)
1969/12/31/18:00:17.600,(-6 -3 0 1 -9 1 1 -1)
1969/12/31/18:00:17.615,(2 4 -4 -27 -4 4 1 0)
1969/12/31/18:00:17.615,(-5 -2 13 33 9 4 3 1)
1969/12/31/18:00:17.617,(9 5 1 13 5 -9 -10 -4)
1969/12/31/18:00:17.617,(-3 -5 -10 -12 -10 -8 -3 -3)
1969/12/31/18:00:17.638,(-5 -4 -1 9 -2 -1 -3 -3)
1969/12/31/18:00:17.638,(7 13 6 -2 5 12 12 7)
1969/12/31/18:00:17.639,(-31 -24 -14 -18 -13 -12 -22 -30)
1969/12/31/18:00:17.639,(19 7 -1 -12 -1 1 4 8)
1969/12/31/18:00:17.651,(-2 -3 1 5 6 3 1 1)
1969/12/31/18:00:17.651,(-1 -4 -10 -62 -22 -8 -3 1)
1969/12/31/18:00:17.660,(27 20 5 34 15 8 13 17)
1969/12/31/18:00:17.660,(-8 -4 7 11 2 1 -4 -6)
1969/12/31/18:00:17.674,(-7 -5 -4 -8 -7 -8 -8 -9)
1969/12/31/18:00:17.675,(-7 -4 2 14 11 1 -3 -3)
1969/12/31/18:00:17.681,(-3 -2 4 2 -7 4 6 6)
1969/12/31/18:00:17.681,(-14 -16 -15 -18 -6 -4 -5 -8)
1969/12/31/18:00:17.698,(28 20 13 25 4 -1 3 11)
1969/12/31/18:00:17.698,(-3 0 -3 -6 5 -2 -2 -4)
1969/12/31/18:00:17.699,(-29 -14 -4 -6 -6 -6 -10 -20)
1969/12/31/18:00:17.699,(59 44 17 23 12 19 31 51)
1969/12/31/18:00:17.711,(-20 -7 -7 -15 -6 -5 -13 -23)
1969/12/31/18:00:17.711,(-10 -14 -6 -3 -5 -4 -4 -5)
1969/12/31/18:00:17.720,(4 -3 -8 -3 -1 1 0 -1)
1969/12/31/18:00:17.720,(-22 -17 -3 -1 1 0 2 -3)
1969/12/31/18:00:17.734,(2 1 -1 -10 -23 -14 -4 2)
1969/12/31/18:00:17.734,(2 -1 -2 6 -8 -3 -5 -2)
1969/12/31/18:00:17.741,(2 -2 3 -19 16 13 12 14)
1969/12/31/18:00:17.741,(-3 2 2 15 29 16 1 -5)
1969/12/31/18:00:17.758,(9 8 12 45 11 8 5 6)
1969/12/31/18:00:17.758,(-8 -6 5 18 2 -6 -8 -11)
1969/12/31/18:00:17.759,(10 4 -2 -12 -25 -12 -2 2)
1969/12/31/18:00:17.759,(-11 -6 -8 -20 -14 -12 -6 -8)
1969/12/31/18:00:17.771,(1 -1 -5 -10 1 0 -2 -2)
1969/12/31/18:00:17.771,(-8 -9 -7 -13 -6 -1 2 3)
1969/12/31/18:00:17.780,(4 1 -3 -22 2 0 -1 2)
1969/12/31/18:00:17.780,(-7 -10 -3 10 -7 -7 -9 -10)
1969/12/31/18:00:17.795,(8 11 10 16 2 5 7 9)
1969/12/31/18:00:17.795,(-22 -14 -2 4 2 -7 -16 -28)
1969/12/31/18:00:17.797,(20 10 5 9 5 1 -3 3)
1969/12/31/18:00:17.797,(-6 -2 -2 -4 -4 -3 -5 -7)
1969/12/31/18:00:17.818,(-17 -21 -21 -32 -4 -6 -7 -7)
1969/12/31/18:00:17.818,(16 9 2 5 -9 5 11 16)
1969/12/31/18:00:17.819,(-11 8 8 17 6 0 -1 -3)
1969/12/31/18:00:17.819,(3 4 0 -21 -15 -9 -6 -4)
1969/12/31/18:00:17.831,(0 -1 1 9 9 2 1 -1)
1969/12/31/18:00:17.831,(-4 0 -11 -26 -1 -1 -5 -2)
1969/12/31/18:00:17.840,(5 2 2 9 4 5 8 12)
1969/12/31/18:00:17.840,(-2 2 7 13 5 4 1 2)
1969/12/31/18:00:17.855,(8 4 2 7 5 1 -3 1)
1969/12/31/18:00:17.855,(-15 -16 -5 -5 -3 -3 -7 -10)
1969/12/31/18:00:17.857,(-9 -8 -7 -7 -11 -4 -8 -12)
1969/12/31/18:00:17.857,(4 9 -3 -12 -5 -6 -6 -3)
1969/12/31/18:00:17.878,(-2 -3 -3 -7 -4 -3 -4 -2)
1969/12/31/18:00:17.878,(-25 -21 -1 13 5 3 4 0)
1969/12/31/18:00:17.879,(24 17 -3 3 2 1 -1 2)
1969/12/31/18:00:17.879,(8 3 3 9 2 2 2 3)
1969/12/31/18:00:17.900,(12 3 3 3 3 -4 -5 -6)
1969/12/31/18:00:17.900,(5 3 -1 -7 -3 -8 -4 0)
1969/12/31/18:00:17.902,(-8 -7 -8 -20 -4 2 5 6)
1969/12/31/18:00:17.902,(-14 -13 -12 -13 -10 -2 -3 -4)
1969/12/31/18:00:17.914,(-7 4 19 62 4 3 3 4)
1969/12/31/18:00:17.914,(19 14 16 27 15 4 6 6)
1969/12/31/18:00:17.921,(-4 -2 9 18 4 -3 -2 -6)
1969/12/31/18:00:17.921,(-1 -2 -8 -22 -2 -2 1 -3)
1969/12/31/18:00:17.938,(-7 -5 -11 -35 -6 -4 -1 0)
1969/12/31/18:00:17.938,(7 0 -7 -3 -4 -1 2 4)
1969/12/31/18:00:17.939,(-2 4 7 -3 5 15 23 22)
1969/12/31/18:00:17.939,(-13 -11 -2 6 -1 -2 -9 -14)
1969/12/31/18:00:17.960,(18 18 -4 -5 1 -3 -5 -5)
1969/12/31/18:00:17.960,(10 2 1 -3 0 -3 -7 3)
1969/12/31/18:00:17.962,(0 -6 -4 -4 -7 -6 -4 0)
1969/12/31/18:00:17.962,(7 1 0 8 7 6 11 15)
1969/12/31/18:00:17.974,(-14 -6 2 3 5 6 5 0)
1969/12/31/18:00:17.974,(5 5 -4 -6 2 2 4 3)
1969/12/31/18:00:17.981,(2 -3 -3 -10 -10 -9 -8 -8)
1969/12/31/18:00:17.981,(-5 0 2 -1 -14 -8 -4 -6)
1969/12/31/18:00:17.998,(0 -6 -13 -21 12 4 3 6)
1969/12/31/18:00:17.998,(1 6 22 61 15 9 5 1)
1969/12/31/18:00:17.999,(-4 2 15 35 18 5 1 -2)
1969/12/31/18:00:17.999,(-5 -6 -7 -21 -39 -20 -8 -9)
1969/12/31/18:00:18.021,(-4 -10 -15 -30 -10 -4 0 -1)
1969/12/31/18:00:18.021,(4 5 1 16 25 11 7 8)
1969/12/31/18:00:18.022,(-2 0 8 25 27 11 -1 -4)
1969/12/31/18:00:18.022,(5 7 9 21 14 7 2 2)
1969/12/31/18:00:18.034,(-2 3 15 -6 -17 -5 -3 -2)
1969/12/31/18:00:18.034,(-5 -6 -29 -42 -38 -22 -6 -3)
1969/12/31/18:00:18.043,(1 -3 11 -5 -11 -3 -5 -2)
1969/12/31/18:00:18.043,(-1 -4 -31 -17 10 -4 -3 -3)
1969/12/31/18:00:18.057,(-5 -11 3 4 27 14 7 2)
1969/12/31/18:00:18.057,(-10 -8 -31 -39 -36 -16 -9 -12)
1969/12/31/18:00:18.059,(10 2 -8 -5 0 4 6 7)
1969/12/31/18:00:18.059,(-2 15 40 23 30 18 6 0)
1969/12/31/18:00:18.080,(9 1 -22 15 6 -9 -3 5)
1969/12/31/18:00:18.080,(-10 -18 14 21 -8 -6 -1 -5)
1969/12/31/18:00:18.082,(-11 -8 -32 -27 -24 -25 -15 -12)
1969/12/31/18:00:18.082,(6 5 28 4 -2 1 4 6)
1969/12/31/18:00:18.094,(-1 15 17 6 16 12 6 -2)
1969/12/31/18:00:18.094,(9 -4 -48 -59 -13 2 4 7)
1969/12/31/18:00:18.103,(-11 -19 -15 -24 -23 -8 -1 -3)
1969/12/31/18:00:18.103,(-5 2 22 47 16 3 0 -3)
1969/12/31/18:00:18.125,(5 14 43 37 6 5 3 4)
1969/12/31/18:00:18.125,(2 14 28 33 35 6 -2 -2)
1969/12/31/18:00:18.127,(8 8 6 9 9 13 12 7)
1969/12/31/18:00:18.127,(-4 -9 -24 -16 -30 -8 -7 -3)
1969/12/31/18:00:18.140,(-8 -15 -18 -23 -32 -22 -7 -5)
1969/12/31/18:00:18.140,(-4 5 13 -9 3 2 -3 -5)
1969/12/31/18:00:18.142,(1 1 -19 -9 22 5 -3 -1)
1969/12/31/18:00:18.142,(4 -19 -59 -23 2 -1 -1 3)
1969/12/31/18:00:18.154,(-20 -22 -7 -14 -21 -5 -7 -11)
1969/12/31/18:00:18.154,(-5 3 19 19 13 9 1 -4)
1969/12/31/18:00:18.163,(10 19 42 15 -2 5 6 6)
1969/12/31/18:00:18.163,(9 17 26 3 3 8 6 6)
1969/12/31/18:00:18.178,(7 5 -7 7 5 -2 2 5)
1969/12/31/18:00:18.178,(0 -2 7 -4 0 -8 -1 -1)
1969/12/31/18:00:18.179,(-3 -7 -27 -12 -5 -13 -5 -2)
1969/12/31/18:00:18.179,(-6 -11 -19 -3 -7 -15 -8 -5)
1969/12/31/18:00:18.200,(-11 -5 4 -7 0 -2 -2 -8)
1969/12/31/18:00:18.200,(-1 2 8 7 10 6 6 3)
1969/12/31/18:00:18.202,(5 8 8 0 -1 4 4 4)
1969/12/31/18:00:18.202,(-2 -8 -22 0 3 -6 -1 0)
1969/12/31/18:00:18.214,(-2 -4 10 1 -1 -9 -3 -1)
1969/12/31/18:00:18.214,(2 3 -6 -6 -2 5 2 2)
1969/12/31/18:00:18.223,(1 -6 -6 5 -1 4 1 2)
1969/12/31/18:00:18.223,(-1 5 12 -10 -5 4 -1 -3)
1969/12/31/18:00:18.238,(4 6 -1 -2 1 12 0 2)
1969/12/31/18:00:18.238,(0 -3 2 0 -7 -1 -4 -1)
1969/12/31/18:00:18.239,(4 9 12 1 -4 10 1 1)
1969/12/31/18:00:18.239,(-2 -9 -11 -2 1 0 -5 -1)
1969/12/31/18:00:18.260,(0 9 13 -5 -15 11 2 1)
1969/12/31/18:00:18.260,(10 9 -3 3 9 9 -1 8)
1969/12/31/18:00:18.262,(-5 -10 -25 -4 -3 0 -10 -6)
1969/12/31/18:00:18.262,(-3 -1 7 -11 0 7 1 -1)
1969/12/31/18:00:18.274,(9 13 -1 5 3 2 4 2)
1969/12/31/18:00:18.274,(-4 -10 -14 -15 -5 -9 0 -2)
1969/12/31/18:00:18.283,(-1 5 15 -4 -4 -16 -3 -7)
1969/12/31/18:00:18.283,(3 0 4 14 6 -11 0 0)
1969/12/31/18:00:18.298,(-10 -8 -7 -3 1 0 -1 -6)
1969/12/31/18:00:18.298,(6 -5 -10 -1 6 2 7 4)
1969/12/31/18:00:18.299,(-11 -1 6 -8 -9 -5 -2 -5)
1969/12/31/18:00:18.299,(4 12 16 49 27 1 5 0)
1969/12/31/18:00:18.328,(17 -6 -19 -20 -2 -3 2 13)
1969/12/31/18:00:18.328,(-10 -5 -2 16 -7 -2 -10 -6)
1969/12/31/18:00:18.329,(-2 1 15 4 4 9 -3 1)
1969/12/31/18:00:18.329,(-5 5 9 -23 -15 10 -1 -2)
1969/12/31/18:00:18.334,(2 5 -5 0 1 0 -3 0)
1969/12/31/18:00:18.334,(-7 0 4 -18 -4 4 -4 -6)
1969/12/31/18:00:18.343,(16 -5 -18 -5 -9 -1 5 12)
1969/12/31/18:00:18.343,(-9 1 9 2 1 1 -4 -6)
1969/12/31/18:00:18.358,(0 2 -2 7 6 3 3 0)
1969/12/31/18:00:18.358,(6 -8 -8 2 5 0 5 4)
1969/12/31/18:00:18.359,(-12 -8 -2 -18 -9 -7 -2 -6)
1969/12/31/18:00:18.359,(3 2 2 20 5 -7 -2 -2)
1969/12/31/18:00:18.380,(-1 -2 4 0 2 -1 0 -1)
1969/12/31/18:00:18.380,(-9 3 10 0 -3 1 -3 -7)
1969/12/31/18:00:18.382,(-10 1 16 20 10 -4 -2 -6)
1969/12/31/18:00:18.382,(9 -2 -15 -21 -5 -9 15 12)
1969/12/31/18:00:18.394,(-9 -15 -17 -3 -7 -21 1 -5)
1969/12/31/18:00:18.394,(-1 -2 -1 4 13 -20 3 -1)
1969/12/31/18:00:18.403,(-1 -7 -15 -10 -8 -16 -2 -2)
1969/12/31/18:00:18.403,(-6 1 10 -14 4 0 -7 -7)
1969/12/31/18:00:18.418,(-3 5 20 47 10 8 -2 -3)
1969/12/31/18:00:18.418,(7 3 2 2 5 14 2 6)
1969/12/31/18:00:18.419,(-2 2 0 9 3 7 -4 -4)
1969/12/31/18:00:18.419,(3 -2 -5 -7 -5 5 -1 2)
1969/12/31/18:00:18.440,(-1 0 -6 -18 -10 4 -2 0)
1969/12/31/18:00:18.440,(-3 2 3 -6 -8 6 -5 -3)
1969/12/31/18:00:18.442,(6 9 2 3 -7 13 0 6)
1969/12/31/18:00:18.442,(2 -1 -1 -2 -3 10 -5 0)
1969/12/31/18:00:18.454,(5 2 -8 -8 0 6 -1 2)
1969/12/31/18:00:18.454,(-1 6 6 2 -4 -3 -1 1)
1969/12/31/18:00:18.463,(-4 -4 1 -3 2 -5 -1 -4)
1969/12/31/18:00:18.463,(-4 -8 -13 -6 -6 -3 4 -1)
1969/12/31/18:00:18.478,(0 1 5 11 12 -19 -6 -3)
1969/12/31/18:00:18.478,(-3 -5 -2 -16 -32 -16 0 -3)
1969/12/31/18:00:18.479,(1 -4 -1 4 24 -3 1 1)
1969/12/31/18:00:18.479,(0 2 4 7 5 5 -3 -2)
1969/12/31/18:00:18.500,(-9 -3 1 1 9 12 -2 -5)
1969/12/31/18:00:18.500,(4 3 -6 -4 -3 9 2 6)
1969/12/31/18:00:18.502,(1 3 3 -3 -14 5 -3 0)
1969/12/31/18:00:18.502,(1 1 -2 -4 -8 5 3 -2)
1969/12/31/18:00:18.514,(-5 -3 -1 3 10 -1 -2 -3)
1969/12/31/18:00:18.514,(14 4 -5 1 1 -9 0 5)
1969/12/31/18:00:18.523,(-5 -9 -3 -1 2 -7 0 -6)
1969/12/31/18:00:18.523,(-2 -3 0 4 1 -12 -1 -2)
1969/12/31/18:00:18.537,(-6 -6 -4 -7 -8 -7 -2 -6)
1969/12/31/18:00:18.537,(-7 -3 1 1 8 0 -1 -5)
1969/12/31/18:00:18.544,(3 1 -1 -6 -2 -7 -18 -8)
1969/12/31/18:00:18.544,(-1 -4 -3 12 4 -4 7 0)
1969/12/31/18:00:18.560,(10 4 2 1 0 9 22 24)
1969/12/31/18:00:18.560,(-4 -3 -2 2 4 -4 -8 -7)
1969/12/31/18:00:18.562,(-3 -5 -5 -3 -2 1 0 -1)
1969/12/31/18:00:18.562,(2 1 1 -2 1 1 0 1)
1969/12/31/18:00:18.574,(-5 -1 -2 -6 -6 -11 -13 -11)
1969/12/31/18:00:18.574,(-5 0 1 2 3 4 8 2)
1969/12/31/18:00:18.583,(-6 -4 -5 0 -2 -2 -4 -8)
1969/12/31/18:00:18.583,(14 3 5 1 2 7 14 16)
1969/12/31/18:00:18.597,(11 10 -3 -4 -4 8 10 17)
1969/12/31/18:00:18.597,(-17 -14 -8 -7 -8 -10 -20 -25)
1969/12/31/18:00:18.611,(-1 -4 -3 1 2 -2 2 0)
1969/12/31/18:00:18.611,(-11 -6 -2 1 -2 -7 -11 -13)
1969/12/31/18:00:18.620,(3 -2 1 -3 1 1 7 8)
1969/12/31/18:00:18.620,(3 3 3 3 4 1 4 6)
1969/12/31/18:00:18.622,(0 2 2 4 3 6 9 4)
1969/12/31/18:00:18.622,(1 1 0 3 1 -8 -11 -1)
1969/12/31/18:00:18.643,(-12 -9 -4 -9 -11 -10 -14 -17)
1969/12/31/18:00:18.643,(6 4 -1 -2 4 11 7 11)
1969/12/31/18:00:18.644,(1 3 3 3 -2 5 -1 0)
1969/12/31/18:00:18.644,(-1 0 -2 0 -1 8 6 3)
1969/12/31/18:00:18.657,(-2 -3 -4 -1 -1 1 -6 -6)
1969/12/31/18:00:18.657,(1 0 2 2 -1 1 2 -3)
1969/12/31/18:00:18.664,(6 3 0 0 -2 1 6 12)
1969/12/31/18:00:18.664,(-3 0 -1 -8 -7 -4 -11 -10)
1969/12/31/18:00:18.680,(-7 -6 -3 -4 -2 -5 -20 -17)
1969/12/31/18:00:18.680,(-7 0 2 3 1 1 7 5)
1969/12/31/18:00:18.682,(27 11 2 1 4 18 23 32)
1969/12/31/18:00:18.682,(-7 -2 -2 -4 -4 -3 -12 -9)
1969/12/31/18:00:18.703,(-1 -1 1 1 -1 6 3 -2)
1969/12/31/18:00:18.703,(-3 3 1 -1 -4 -5 -16 -14)
1969/12/31/18:00:18.704,(-7 -3 1 -1 -2 -2 10 13)
1969/12/31/18:00:18.704,(0 -1 -1 -2 0 -1 1 1)
1969/12/31/18:00:18.717,(-1 2 1 -1 1 3 3 2)
1969/12/31/18:00:18.717,(5 0 -1 1 1 -3 -6 1)
1969/12/31/18:00:18.724,(-13 -4 -1 1 0 -8 -7 -18)
1969/12/31/18:00:18.724,(4 1 2 -1 2 -1 1 2)
1969/12/31/18:00:18.740,(-1 -5 -6 -5 -2 -5 -2 1)
1969/12/31/18:00:18.740,(2 6 3 3 3 -5 -2 -2)
1969/12/31/18:00:18.742,(-5 -8 -2 2 3 2 5 -4)
1969/12/31/18:00:18.742,(-1 -1 0 1 1 2 6 8)
1969/12/31/18:00:18.754,(-6 -1 1 0 0 -7 -12 -12)
1969/12/31/18:00:18.754,(3 -1 -3 -1 0 0 9 14)
1969/12/31/18:00:18.763,(3 1 -1 -1 0 -4 -5 -1)
1969/12/31/18:00:18.763,(-4 -1 -1 -2 -1 -3 -5 -6)
1969/12/31/18:00:18.777,(0 -1 1 1 1 -1 3 -1)
1969/12/31/18:00:18.777,(1 -2 -1 -1 2 2 3 0)
1969/12/31/18:00:18.784,(-5 -1 -1 -1 -3 -7 -8 -8)
1969/12/31/18:00:18.784,(-1 0 0 0 -1 -1 -2 0)
1969/12/31/18:00:18.800,(1 2 0 -1 0 1 2 5)
1969/12/31/18:00:18.800,(-1 -5 -3 -3 -3 1 2 1)
1969/12/31/18:00:18.802,(-7 -3 -2 1 2 -1 -7 -6)
1969/12/31/18:00:18.802,(-3 -1 0 -2 -3 -1 2 0)
1969/12/31/18:00:18.814,(5 1 -1 0 -2 0 2 4)
1969/12/31/18:00:18.814,(2 0 -1 1 -1 0 -2 -2)
1969/12/31/18:00:18.823,(2 0 -1 -1 -1 0 0 -2)
1969/12/31/18:00:18.823,(1 -1 -1 -1 -1 -1 3 3)
1969/12/31/18:00:18.838,(-2 0 2 0 1 1 3 0)
1969/12/31/18:00:18.838,(2 0 1 1 0 0 -1 -1)
1969/12/31/18:00:18.868,(-2 -2 -1 -3 -1 -2 -8 -7)
1969/12/31/18:00:18.868,(-1 -1 -1 1 -1 -5 -2 -4)
1969/12/31/18:00:18.869,(4 -1 -2 -1 0 4 12 9)
1969/12/31/18:00:18.869,(-1 0 -1 2 0 1 -2 0)
1969/12/31/18:00:18.875,(2 0 0 -1 -2 -1 -2 1)
1969/12/31/18:00:18.875,(-4 1 -1 0 -3 1 -3 -4)
1969/12/31/18:00:18.883,(-2 -1 -2 1 0 -3 -4 -1)
1969/12/31/18:00:18.883,(-2 -2 0 -2 0 -2 -1 -2)
1969/12/31/18:00:18.884,(0 0 -1 0 0 -1 0 -2)
1969/12/31/18:00:18.884,(1 -1 1 -1 -1 -2 -3 1)
1969/12/31/18:00:18.896,(-2 -2 -2 0 1 -1 -1 -5)
1969/12/31/18:00:18.896,(1 1 -1 1 2 5 6 8)
1969/12/31/18:00:18.905,(1 0 -1 -2 -3 -3 4 3)
1969/12/31/18:00:18.905,(3 1 1 0 1 1 -1 0)
1969/12/31/18:00:18.920,(-1 -3 0 0 -2 -2 -3 -3)
1969/12/31/18:00:18.920,(-2 1 -2 1 -1 -5 -6 -6)
1969/12/31/18:00:18.922,(-1 -3 -2 -1 -1 -3 -3 -3)
1969/12/31/18:00:18.922,(2 0 -1 0 -1 1 3 4)
1969/12/31/18:00:18.943,(0 1 1 -2 -1 -1 -1 -1)
1969/12/31/18:00:18.943,(2 -1 1 -1 0 2 5 8)
1969/12/31/18:00:18.944,(1 1 -2 0 1 1 1 0)
1969/12/31/18:00:18.944,(-1 -1 -1 -2 -2 -3 -4 -3)
1969/12/31/18:00:18.956,(-3 -2 0 -1 0 -2 -8 -8)
1969/12/31/18:00:18.956,(-5 -2 1 0 -2 -4 0 -2)
1969/12/31/18:00:18.966,(5 1 2 0 0 1 6 7)
1969/12/31/18:00:18.966,(1 0 0 0 2 1 1 1)
1969/12/31/18:00:18.980,(-1 1 0 1 0 1 5 1)
1969/12/31/18:00:18.980,(-5 -3 0 0 -1 -3 -5 -5)
1969/12/31/18:00:18.986,(-1 -1 0 -1 0 -5 -6 -5)
1969/12/31/18:00:18.986,(-4 -1 -2 0 0 -1 0 0)
1969/12/31/18:00:19.003,(6 0 -1 2 -1 2 5 5)
1969/12/31/18:00:19.003,(-1 0 -1 0 -2 0 -1 -3)
1969/12/31/18:00:19.004,(-1 -1 0 0 -1 -1 0 -1)
1969/12/31/18:00:19.004,(2 0 -1 -1 -1 3 2 3)
1969/12/31/18:00:19.016,(-1 0 -1 -2 0 -2 -1 1)
1969/12/31/18:00:19.016,(3 1 0 0 -1 0 1 0)
1969/12/31/18:00:19.025,(-1 -2 -1 -2 -3 -1 -6 -3)
1969/12/31/18:00:19.025,(-3 -2 -2 -2 -3 -3 -1 -2)
1969/12/31/18:00:19.040,(-1 1 -1 -1 0 3 2 2)
1969/12/31/18:00:19.040,(1 -2 -1 -2 0 6 8 6)
1969/12/31/18:00:19.042,(3 2 2 -1 0 1 0 1)
1969/12/31/18:00:19.042,(-4 -2 -1 -3 -1 -5 -13 -11)
1969/12/31/18:00:19.063,(-2 -2 -1 -1 -2 -5 -5 -6)
1969/12/31/18:00:19.063,(2 1 1 1 2 3 4 3)
1969/12/31/18:00:19.064,(0 0 -2 1 0 3 -1 1)
1969/12/31/18:00:19.064,(-1 -2 0 1 -2 -4 -4 0)
1969/12/31/18:00:19.077,(-4 -3 -3 -2 -1 -5 -8 -9)
1969/12/31/18:00:19.077,(1 -1 -1 0 0 2 9 6)
1969/12/31/18:00:19.084,(-1 -1 -2 -1 -1 -2 0 -3)
1969/12/31/18:00:19.084,(0 -3 -1 3 1 4 5 -1)
1969/12/31/18:00:19.100,(0 2 1 1 0 -3 -5 -1)
1969/12/31/18:00:19.100,(-3 -2 1 0 -2 -3 -4 -7)
1969/12/31/18:00:19.102,(-1 -2 -1 0 -1 -4 1 -1)
1969/12/31/18:00:19.102,(3 1 -1 0 3 2 7 9)
1969/12/31/18:00:19.123,(0 -1 0 0 -1 1 -1 -2)
1969/12/31/18:00:19.123,(-1 0 -1 -1 -1 -2 -3 -2)
1969/12/31/18:00:19.124,(-1 0 -1 1 -1 -1 -2 -3)
1969/12/31/18:00:19.124,(-3 -2 -2 1 -1 -2 -2 -4)
1969/12/31/18:00:19.136,(1 -2 0 0 1 1 6 4)
1969/12/31/18:00:19.136,(-2 0 -3 0 -1 -5 -8 -4)
1969/12/31/18:00:19.146,(-2 -1 0 0 -1 0 2 0)
1969/12/31/18:00:19.146,(0 1 2 0 0 3 4 6)
1969/12/31/18:00:19.160,(-2 -1 -2 2 -1 -2 -1 -4)
1969/12/31/18:00:19.160,(-1 -1 -3 0 -1 -3 -2 -3)
1969/12/31/18:00:19.162,(2 0 -1 1 -1 0 -1 -1)
1969/12/31/18:00:19.162,(0 1 -1 -2 -3 0 0 -1)
1969/12/31/18:00:19.183,(0 0 0 -2 1 1 2 1)
1969/12/31/18:00:19.183,(1 -1 0 1 -2 0 -2 -3)
1969/12/31/18:00:19.184,(-2 0 -2 -1 -2 -1 -1 2)
1969/12/31/18:00:19.184,(0 0 0 1 0 -1 -7 -4)
1969/12/31/18:00:19.196,(-2 -1 -2 -1 -2 -1 6 5)
1969/12/31/18:00:19.196,(1 1 1 1 1 2 0 1)
1969/12/31/18:00:19.205,(-1 -3 -3 -1 -1 -2 -4 -3)
1969/12/31/18:00:19.205,(-1 0 0 1 0 -2 0 -4)
1969/12/31/18:00:19.220,(0 0 0 1 -1 0 -4 0)
1969/12/31/18:00:19.220,(-3 0 -1 -1 0 0 -1 0)
1969/12/31/18:00:19.222,(-1 2 -1 1 0 0 2 0)
1969/12/31/18:00:19.222,(-1 0 0 -2 -2 -1 -1 0)
