time,.data
1969/12/31/18:00:06.014000,(0 -1 -1 -1 -1 -1 -2 -3)
1969/12/31/18:00:06.014000,(1 0 -3 -2 -3 -1 -1 -3)
1969/12/31/18:00:06.015000,(0 0 1 2 2 -2 0 1)
1969/12/31/18:00:06.015000,(-2 -3 -1 -1 -2 -1 -2 -2)
1969/12/31/18:00:06.037000,(-1 -2 -1 -3 -2 -2 -2 -2)
1969/12/31/18:00:06.037000,(0 0 -2 -4 -4 -1 -1 0)
1969/12/31/18:00:06.038000,(0 -5 -3 -2 1 1 -1 0)
1969/12/31/18:00:06.038000,(-1 0 0 -2 0 0 0 -1)
1969/12/31/18:00:06.052000,(0 0 -3 -2 -1 -2 -1 0)
1969/12/31/18:00:06.052000,(1 -2 -1 1 0 -2 1 1)
1969/12/31/18:00:06.052000,(1 0 0 -2 -4 -2 -1 -1)
1969/12/31/18:00:06.052000,(-1 2 2 0 1 0 0 0)
1969/12/31/18:00:06.074000,(1 1 -1 -2 0 0 0 -1)
1969/12/31/18:00:06.074000,(-2 -3 -3 -2 -1 -2 0 -1)
1969/12/31/18:00:06.075000,(-2 0 -4 -3 1 -1 -3 -2)
1969/12/31/18:00:06.075000,(-1 -3 -1 2 1 -1 -2 -1)
1969/12/31/18:00:06.097000,(0 -1 -2 -2 -3 -1 -1 -1)
1969/12/31/18:00:06.097000,(1 0 3 2 2 -1 -1 0)
1969/12/31/18:00:06.097000,(0 -1 -2 -3 -2 -1 0 -2)
1969/12/31/18:00:06.097000,(0 -1 -2 -1 0 1 0 -1)
1969/12/31/18:00:06.112000,(-2 -3 -2 -1 -2 -2 0 0)
1969/12/31/18:00:06.112000,(-2 -2 -1 -2 -1 -1 -1 0)
1969/12/31/18:00:06.112000,(-4 -5 0 1 -2 0 -1 0)
1969/12/31/18:00:06.112000,(-2 -3 -2 -2 -3 -2 0 -1)
1969/12/31/18:00:06.134000,(1 2 -3 -3 -3 -2 -2 -1)
1969/12/31/18:00:06.134000,(6 9 5 3 -2 -3 -1 -3)
1969/12/31/18:00:06.135000,(0 0 1 -1 -1 -1 -1 -2)
1969/12/31/18:00:06.135000,(1 5 1 2 -1 -2 -1 0)
1969/12/31/18:00:06.157000,(-5 -7 -3 -1 -2 -1 -1 -1)
1969/12/31/18:00:06.157000,(-3 -4 -3 -3 0 0 -2 -1)
1969/12/31/18:00:06.157000,(-4 -7 -6 -8 -5 -1 -1 -3)
1969/12/31/18:00:06.157000,(-1 -7 -5 -2 -5 -1 -1 -1)
1969/12/31/18:00:06.172000,(4 15 17 15 1 -2 -2 -1)
1969/12/31/18:00:06.172000,(1 2 0 5 2 2 0 -1)
1969/12/31/18:00:06.172000,(-4 -3 -4 0 -3 -1 -3 -1)
1969/12/31/18:00:06.172000,(-3 -6 -12 -23 -4 -1 -2 -2)
1969/12/31/18:00:06.202000,(-2 -3 1 3 1 -1 -1 0)
1969/12/31/18:00:06.203000,(-2 0 2 -11 -4 -2 0 -1)
1969/12/31/18:00:06.203000,(-3 -3 -7 -13 -4 -3 -2 -2)
1969/12/31/18:00:06.203000,(-2 2 9 26 2 -1 -1 -1)
1969/12/31/18:00:06.217000,(5 4 2 7 4 3 0 1)
1969/12/31/18:00:06.217000,(-2 -5 -16 -43 -10 -3 -4 -2)
1969/12/31/18:00:06.218000,(3 9 -2 25 9 3 -3 0)
1969/12/31/18:00:06.218000,(4 6 33 28 10 7 13 4)
1969/12/31/18:00:06.232000,(-3 -7 -9 -8 -5 -2 -3 -3)
1969/12/31/18:00:06.232000,(-5 -9 -11 0 -5 -2 0 -2)
1969/12/31/18:00:06.232000,(0 -7 -38 -55 -21 -7 -5 -3)
1969/12/31/18:00:06.232000,(4 8 31 28 10 2 -1 0)
1969/12/31/18:00:06.254000,(1 2 6 12 3 0 1 1)
1969/12/31/18:00:06.254000,(-2 -4 1 7 0 -2 -1 -2)
1969/12/31/18:00:06.255000,(-2 -4 -5 8 2 -1 0 -2)
1969/12/31/18:00:06.255000,(-5 -7 -32 -40 -10 -5 -4 -3)
1969/12/31/18:00:06.277000,(-3 -5 -5 -15 -5 -2 -3 -2)
1969/12/31/18:00:06.277000,(5 5 -19 4 6 3 1 1)
1969/12/31/18:00:06.277000,(6 16 70 66 14 4 6 4)
1969/12/31/18:00:06.277000,(1 2 0 -22 -4 -2 -2 1)
1969/12/31/18:00:06.292000,(-5 -8 5 -7 -8 -2 0 1)
1969/12/31/18:00:06.292000,(-3 -1 -32 -1 -3 -6 -7 -9)
1969/12/31/18:00:06.292000,(-6 -6 37 11 -2 1 0 -2)
1969/12/31/18:00:06.292000,(-5 -8 -62 -48 -15 -7 -7 -9)
1969/12/31/18:00:06.314000,(3 5 9 16 8 4 4 5)
1969/12/31/18:00:06.314000,(7 22 57 64 18 3 -4 -5)
1969/12/31/18:00:06.315000,(0 -3 -6 -9 1 3 4 4)
1969/12/31/18:00:06.315000,(-5 -13 -1 3 -4 -3 -3 -3)
1969/12/31/18:00:06.337000,(-7 -18 -38 -34 -11 -3 -3 -1)
1969/12/31/18:00:06.337000,(-3 -4 -9 -15 -6 -1 -3 -3)
1969/12/31/18:00:06.337000,(-1 -3 -15 -13 -4 -2 -3 -3)
1969/12/31/18:00:06.337000,(-3 -3 2 2 -2 -3 -2 -2)
1969/12/31/18:00:06.352000,(1 2 4 5 5 -1 1 0)
1969/12/31/18:00:06.352000,(-5 -14 4 -2 -4 1 2 1)
1969/12/31/18:00:06.352000,(-2 -14 -25 -17 -1 -1 -1 -1)
1969/12/31/18:00:06.352000,(0 -5 -12 2 0 -2 -2 -1)
1969/12/31/18:00:06.374000,(4 26 35 16 7 3 4 1)
1969/12/31/18:00:06.374000,(11 53 57 18 4 3 6 9)
1969/12/31/18:00:06.381000,(-2 -8 -27 -13 -7 -5 -7 -7)
1969/12/31/18:00:06.382000,(-5 -22 -12 -5 -3 -4 -5 -9)
1969/12/31/18:00:06.397000,(-4 11 21 15 0 -3 -4 -8)
1969/12/31/18:00:06.397000,(-11 -38 -50 -26 -7 0 3 3)
1969/12/31/18:00:06.397000,(8 71 65 14 5 2 2 3)
1969/12/31/18:00:06.397000,(10 48 35 27 9 5 4 6)
1969/12/31/18:00:06.411000,(9 0 -16 -17 -6 -4 -5 -3)
1969/12/31/18:00:06.411000,(-11 -31 -7 -3 -4 -2 0 2)
1969/12/31/18:00:06.419000,(43 56 33 15 7 2 3 6)
1969/12/31/18:00:06.419000,(-54 -74 -40 -15 -7 -4 -6 -11)
1969/12/31/18:00:06.434000,(6 23 2 -3 -5 0 3 2)
1969/12/31/18:00:06.434000,(22 -7 -16 -9 -5 -3 -5 3)
1969/12/31/18:00:06.435000,(-40 -95 -57 -18 -6 -2 -2 -4)
1969/12/31/18:00:06.435000,(30 45 19 11 2 -1 1 -1)
1969/12/31/18:00:06.465000,(1 -12 -10 2 0 -3 -7 -9)
1969/12/31/18:00:06.465000,(-12 -12 -7 -6 -4 1 7 6)
1969/12/31/18:00:06.466000,(9 13 -2 -1 -2 -4 -12 -10)
1969/12/31/18:00:06.466000,(-9 -26 -8 -5 -5 3 6 3)
1969/12/31/18:00:06.471000,(-41 -53 -28 -10 -2 -1 -6 -8)
1969/12/31/18:00:06.471000,(36 41 15 1 0 -3 2 6)
1969/12/31/18:00:06.479000,(-11 -16 -15 0 2 3 6 9)
1969/12/31/18:00:06.479000,(-10 -13 -4 -4 -5 -3 -2 -4)
1969/12/31/18:00:06.494000,(43 36 2 -5 -4 -1 -1 6)
1969/12/31/18:00:06.494000,(-23 -28 -8 -5 -3 -4 -8 -18)
1969/12/31/18:00:06.495000,(-75 -28 -2 0 -1 2 3 -23)
1969/12/31/18:00:06.495000,(74 64 22 13 5 -1 5 40)
1969/12/31/18:00:06.517000,(-24 -44 -17 -8 -2 5 -5 -21)
1969/12/31/18:00:06.517000,(-38 -2 -5 -9 -13 -35 -34 -49)
1969/12/31/18:00:06.517000,(10 -8 -9 -6 2 23 6 15)
1969/12/31/18:00:06.517000,(-92 -31 1 -1 2 0 -20 -65)
1969/12/31/18:00:06.531000,(41 6 -4 -4 -3 2 27 68)
1969/12/31/18:00:06.531000,(-36 -18 2 2 0 -21 -25 -26)
1969/12/31/18:00:06.539000,(61 43 6 1 4 9 30 18)
1969/12/31/18:00:06.539000,(-3 -4 -5 -7 -10 -13 -17 9)
1969/12/31/18:00:06.554000,(-4 -4 2 3 1 1 -15 -31)
1969/12/31/18:00:06.554000,(3 11 7 7 11 27 16 6)
1969/12/31/18:00:06.555000,(-22 -21 -12 -8 -13 -38 -29 -5)
1969/12/31/18:00:06.555000,(109 32 2 2 5 22 15 59)
1969/12/31/18:00:06.576000,(-104 -58 -18 -5 -4 2 4 -44)
1969/12/31/18:00:06.576000,(71 17 1 -1 -2 6 12 37)
1969/12/31/18:00:06.577000,(38 29 0 2 2 6 6 12)
1969/12/31/18:00:06.577000,(39 64 38 12 5 -4 -2 -10)
1969/12/31/18:00:06.591000,(-76 -25 -6 -8 -7 -17 -31 -14)
1969/12/31/18:00:06.591000,(46 25 7 5 1 6 28 35)
1969/12/31/18:00:06.599000,(10 -28 -19 -6 2 4 -5 23)
1969/12/31/18:00:06.599000,(-80 -46 -11 -4 0 8 10 -45)
1969/12/31/18:00:06.614000,(-19 7 -2 0 -9 -44 -35 -43)
1969/12/31/18:00:06.614000,(-14 10 3 -4 1 0 7 -31)
1969/12/31/18:00:06.615000,(-23 -36 -16 -9 -10 13 17 8)
1969/12/31/18:00:06.615000,(-44 -20 -7 -5 -1 -16 -30 -25)
1969/12/31/18:00:06.637000,(35 35 18 13 7 20 15 -13)
1969/12/31/18:00:06.637000,(-59 -59 -34 -23 -17 -32 -37 -39)
1969/12/31/18:00:06.637000,(47 28 14 2 -4 -10 0 49)
1969/12/31/18:00:06.637000,(-11 0 -5 0 9 38 48 23)
1969/12/31/18:00:06.660000,(41 -16 -20 -15 -8 -13 -26 -19)
1969/12/31/18:00:06.660000,(50 34 23 14 7 3 16 13)
1969/12/31/18:00:06.661000,(-2 12 3 0 3 27 8 13)
1969/12/31/18:00:06.661000,(52 43 19 11 -2 -41 -44 20)
1969/12/31/18:00:06.682000,(-69 -37 -14 -2 11 43 0 -50)
1969/12/31/18:00:06.682000,(-13 -16 -9 -4 -12 -31 25 42)
1969/12/31/18:00:06.683000,(1 29 15 1 -1 -10 -3 -25)
1969/12/31/18:00:06.683000,(3 -23 -2 0 -2 -5 22 27)
1969/12/31/18:00:06.697000,(28 16 -10 -8 -3 14 12 42)
1969/12/31/18:00:06.697000,(-89 -41 -2 4 6 17 -30 -41)
1969/12/31/18:00:06.697000,(-4 7 12 12 10 -7 -13 -13)
1969/12/31/18:00:06.697000,(-35 -19 -16 -10 -15 -10 -7 -26)
1969/12/31/18:00:06.711000,(105 57 27 17 13 11 34 127)
1969/12/31/18:00:06.711000,(-29 -26 -16 -14 -1 33 -1 -11)
1969/12/31/18:00:06.719000,(16 -6 4 8 2 -5 -14 -10)
1969/12/31/18:00:06.719000,(17 2 -1 -2 2 -2 -15 -4)
1969/12/31/18:00:06.734000,(-37 -9 5 4 0 1 35 41)
1969/12/31/18:00:06.734000,(31 12 6 4 2 -2 12 32)
1969/12/31/18:00:06.735000,(-30 -3 10 12 15 31 4 -70)
1969/12/31/18:00:06.735000,(63 20 -5 -2 1 0 23 58)
1969/12/31/18:00:06.757000,(-31 -41 -18 -10 -12 -22 -5 -38)
1969/12/31/18:00:06.757000,(24 22 20 15 13 -13 -29 33)
1969/12/31/18:00:06.758000,(17 10 -4 -11 -9 4 35 -26)
1969/12/31/18:00:06.758000,(-95 -47 -2 4 2 5 -16 -63)
1969/12/31/18:00:06.780000,(0 13 -1 -2 -3 -2 2 13)
1969/12/31/18:00:06.780000,(66 44 13 3 0 18 24 39)
1969/12/31/18:00:06.780000,(-39 -5 -10 -11 -11 -25 -17 4)
1969/12/31/18:00:06.780000,(-24 -49 -25 -13 -11 -7 -7 10)
1969/12/31/18:00:06.794000,(57 20 9 2 6 12 -5 29)
1969/12/31/18:00:06.794000,(-27 -10 2 6 8 -5 -3 -5)
1969/12/31/18:00:06.795000,(-25 -10 -9 -4 -4 10 -20 -1)
1969/12/31/18:00:06.795000,(52 29 0 -3 4 44 46 15)
1969/12/31/18:00:06.816000,(16 -2 4 3 0 -20 -30 16)
1969/12/31/18:00:06.816000,(-27 10 5 0 -2 -3 -25 -78)
1969/12/31/18:00:06.824000,(3 -4 -6 -2 0 -16 4 28)
1969/12/31/18:00:06.824000,(7 -5 6 8 10 20 10 -12)
1969/12/31/18:00:06.840000,(-2 -17 -13 -9 -9 -6 -36 -77)
1969/12/31/18:00:06.840000,(11 2 -11 -11 -10 -1 4 29)
1969/12/31/18:00:06.841000,(4 3 5 5 3 -13 -11 -24)
1969/12/31/18:00:06.841000,(-51 -8 1 2 1 -2 -13 -50)
1969/12/31/18:00:06.854000,(-28 5 4 0 -1 -10 11 -9)
1969/12/31/18:00:06.854000,(-9 11 -8 -9 -10 -13 -13 -19)
1969/12/31/18:00:06.855000,(13 -18 -5 -2 2 10 15 47)
1969/12/31/18:00:06.855000,(-13 -1 1 0 -3 -17 -2 -49)
1969/12/31/18:00:06.877000,(-3 -3 -5 -6 -7 -8 13 53)
1969/12/31/18:00:06.877000,(9 -17 -6 0 5 10 -1 4)
1969/12/31/18:00:06.877000,(-9 4 4 2 3 31 14 -7)
1969/12/31/18:00:06.877000,(32 14 -1 -3 -9 -35 -8 49)
1969/12/31/18:00:06.900000,(-5 17 14 8 5 3 1 -6)
1969/12/31/18:00:06.900000,(48 -2 -20 -20 -18 -4 -18 -42)
1969/12/31/18:00:06.901000,(-33 -5 4 1 0 -24 5 -4)
1969/12/31/18:00:06.901000,(-6 2 4 7 7 14 0 26)
1969/12/31/18:00:06.914000,(13 6 -4 -6 -9 -14 -23 -53)
1969/12/31/18:00:06.914000,(-71 -25 2 9 13 21 30 44)
1969/12/31/18:00:06.915000,(49 -13 -10 -3 0 -9 -19 13)
1969/12/31/18:00:06.915000,(-32 10 -4 -8 -26 -40 -11 -18)
1969/12/31/18:00:06.945000,(-61 -36 -4 -1 4 8 4 28)
1969/12/31/18:00:06.945000,(61 30 12 7 4 13 42 13)
1969/12/31/18:00:06.946000,(27 12 -9 -7 -3 0 68 67)
1969/12/31/18:00:06.946000,(7 -2 -6 -5 1 -8 -36 -36)
1969/12/31/18:00:06.960000,(6 15 7 1 -5 -6 -18 -37)
1969/12/31/18:00:06.960000,(-60 -45 -8 -3 3 10 -14 -22)
1969/12/31/18:00:06.961000,(-35 3 0 -4 -4 -1 -13 -35)
1969/12/31/18:00:06.961000,(32 -21 -12 -7 -4 -3 1 30)
1969/12/31/18:00:06.974000,(-21 16 1 0 2 12 13 -26)
1969/12/31/18:00:06.974000,(17 0 10 8 15 7 -24 16)
1969/12/31/18:00:06.975000,(-7 -2 0 -1 -21 -49 -20 -15)
1969/12/31/18:00:06.975000,(-25 -7 0 -1 -5 -5 -7 -8)
1969/12/31/18:00:06.997000,(37 8 5 3 -5 -6 -23 12)
1969/12/31/18:00:06.997000,(28 45 4 -4 -10 1 -15 -16)
1969/12/31/18:00:06.997000,(-19 -46 -21 -12 -6 11 -8 -39)
1969/12/31/18:00:06.997000,(12 6 3 3 4 6 -23 33)
1969/12/31/18:00:07.020000,(-39 -26 -7 2 13 3 41 -23)
1969/12/31/18:00:07.020000,(9 1 -6 -9 -11 -3 8 17)
1969/12/31/18:00:07.021000,(12 21 10 8 28 -5 -33 -6)
1969/12/31/18:00:07.021000,(48 -1 6 12 0 -21 38 72)
1969/12/31/18:00:07.034000,(25 23 1 -9 -23 -2 4 -26)
1969/12/31/18:00:07.034000,(13 6 0 4 9 47 9 6)
1969/12/31/18:00:07.035000,(-19 -25 -9 -18 -15 27 18 -7)
1969/12/31/18:00:07.035000,(-4 5 2 5 27 31 20 6)
1969/12/31/18:00:07.056000,(20 10 3 3 30 -7 12 27)
1969/12/31/18:00:07.057000,(11 5 4 -5 -67 -64 -29 -5)
1969/12/31/18:00:07.057000,(-13 4 0 -6 -13 -12 -5 7)
1969/12/31/18:00:07.057000,(41 19 7 6 30 21 -2 -9)
1969/12/31/18:00:07.080000,(26 15 5 9 11 21 5 8)
1969/12/31/18:00:07.080000,(-71 -44 -14 -5 4 -17 10 -47)
1969/12/31/18:00:07.081000,(39 9 1 3 -6 7 -9 19)
1969/12/31/18:00:07.081000,(-14 0 0 -4 -19 -4 1 -13)
1969/12/31/18:00:07.102000,(13 16 -2 -6 9 -17 8 20)
1969/12/31/18:00:07.102000,(19 -19 -3 4 18 -2 1 4)
1969/12/31/18:00:07.103000,(2 1 -4 3 -1 14 -12 0)
1969/12/31/18:00:07.103000,(60 11 -18 -19 -28 -9 -2 6)
1969/12/31/18:00:07.116000,(-55 -5 12 -5 -27 -7 -5 -24)
1969/12/31/18:00:07.116000,(12 21 12 2 19 13 13 19)
1969/12/31/18:00:07.117000,(-14 -7 4 9 2 -42 -16 -23)
1969/12/31/18:00:07.117000,(-17 -10 -1 7 17 17 9 -15)
1969/12/31/18:00:07.140000,(-50 -21 -31 -9 -1 12 -18 -27)
1969/12/31/18:00:07.140000,(27 51 51 32 18 -8 20 12)
1969/12/31/18:00:07.141000,(-31 -17 -2 -22 -22 24 -16 -24)
1969/12/31/18:00:07.141000,(-51 -21 -9 -6 -4 0 -2 -29)
1969/12/31/18:00:07.154000,(38 -19 -31 -13 -22 -43 -5 -9)
1969/12/31/18:00:07.154000,(-21 -27 -39 -3 35 24 -5 -7)
1969/12/31/18:00:07.155000,(10 62 45 17 3 21 25 16)
1969/12/31/18:00:07.155000,(-56 -42 9 -6 -27 -15 -11 -20)
1969/12/31/18:00:07.177000,(23 30 -18 -13 -4 26 12 10)
1969/12/31/18:00:07.177000,(16 27 58 24 16 -9 6 42)
1969/12/31/18:00:07.178000,(-12 -102 -128 -25 7 -26 -23 -13)
1969/12/31/18:00:07.178000,(66 110 96 42 19 21 16 58)
1969/12/31/18:00:07.200000,(73 22 19 16 -1 -6 -7 25)
1969/12/31/18:00:07.200000,(11 25 11 -7 -15 -13 0 -1)
1969/12/31/18:00:07.201000,(-5 -72 -62 -22 -4 12 -9 3)
1969/12/31/18:00:07.201000,(-14 58 53 27 20 10 -17 -7)
1969/12/31/18:00:07.214000,(-22 -64 -23 10 -1 -23 16 -21)
1969/12/31/18:00:07.214000,(-39 -27 -41 -30 -26 13 -24 -39)
1969/12/31/18:00:07.215000,(-2 49 58 17 8 -7 16 16)
1969/12/31/18:00:07.215000,(-69 -128 -113 -28 6 -25 -4 -42)
1969/12/31/18:00:07.237000,(-8 76 -15 -17 -8 -17 -30 -49)
1969/12/31/18:00:07.237000,(-54 23 81 31 -12 -16 -32 -72)
1969/12/31/18:00:07.238000,(0 -75 -75 -23 -8 10 6 -4)
1969/12/31/18:00:07.238000,(23 -3 -32 -7 -8 2 -4 4)
1969/12/31/18:00:07.260000,(87 75 17 6 27 15 28 74)
1969/12/31/18:00:07.260000,(-37 16 31 14 -1 -3 -6 -25)
1969/12/31/18:00:07.261000,(10 90 92 36 16 15 21 42)
1969/12/31/18:00:07.261000,(-26 -85 -76 -22 -12 -15 2 16)
1969/12/31/18:00:07.274000,(72 59 59 35 20 37 2 48)
1969/12/31/18:00:07.274000,(-31 -128 -128 -53 -14 -39 -24 -5)
1969/12/31/18:00:07.275000,(46 127 85 40 23 30 14 25)
1969/12/31/18:00:07.275000,(-28 12 46 0 -16 16 16 -31)
1969/12/31/18:00:07.298000,(-28 -112 -82 -30 -25 -42 -26 -9)
1969/12/31/18:00:07.299000,(102 57 9 2 11 17 25 33)
1969/12/31/18:00:07.299000,(-26 -98 -35 -5 6 -16 -34 -53)
1969/12/31/18:00:07.299000,(26 -2 -104 -58 -33 -16 -17 -33)
1969/12/31/18:00:07.320000,(-36 106 127 57 27 27 27 5)
1969/12/31/18:00:07.320000,(-3 -124 -121 -58 0 -43 -17 54)
1969/12/31/18:00:07.321000,(-5 114 59 22 -8 32 14 -13)
1969/12/31/18:00:07.321000,(37 25 49 56 7 14 44 50)
1969/12/31/18:00:07.333000,(36 -128 -113 -57 -23 13 -31 -32)
1969/12/31/18:00:07.333000,(-28 37 -10 12 18 33 39 32)
1969/12/31/18:00:07.342000,(-53 16 32 -1 15 -46 -25 -70)
1969/12/31/18:00:07.342000,(-43 -1 -35 -30 -34 -17 -36 -18)
1969/12/31/18:00:07.357000,(-65 -21 88 47 4 -13 35 2)
1969/12/31/18:00:07.357000,(-64 -120 -62 -28 -22 -4 -11 -28)
1969/12/31/18:00:07.358000,(91 75 23 -13 7 23 13 50)
1969/12/31/18:00:07.358000,(40 24 7 3 4 -42 -41 -23)
1969/12/31/18:00:07.380000,(-28 -90 -85 -34 -15 18 20 -7)
1969/12/31/18:00:07.380000,(37 99 71 22 5 32 25 14)
1969/12/31/18:00:07.381000,(-45 -73 -28 2 -15 -39 6 35)
1969/12/31/18:00:07.381000,(-2 -65 -63 -26 21 30 -7 -24)
1969/12/31/18:00:07.393000,(-6 84 75 29 14 8 -9 -3)
1969/12/31/18:00:07.393000,(5 -36 -6 16 4 -1 7 25)
1969/12/31/18:00:07.402000,(20 -79 -83 -18 7 25 7 -9)
1969/12/31/18:00:07.403000,(-14 -100 -59 -26 -23 -55 -11 6)
1969/12/31/18:00:07.416000,(6 66 41 15 6 29 -8 -2)
1969/12/31/18:00:07.416000,(-40 -57 -53 -12 -23 -28 -6 -26)
1969/12/31/18:00:07.425000,(31 95 95 21 -9 11 12 22)
1969/12/31/18:00:07.425000,(-8 34 61 15 8 -25 -8 -6)
1969/12/31/18:00:07.440000,(-13 -54 -42 -1 43 63 2 -3)
1969/12/31/18:00:07.440000,(-8 -11 13 -7 -42 -45 -18 -33)
1969/12/31/18:00:07.442000,(8 -118 -105 -40 -19 -17 -16 -8)
1969/12/31/18:00:07.442000,(-8 69 47 17 36 69 26 2)
1969/12/31/18:00:07.453000,(-8 21 35 9 -10 -27 -5 22)
1969/12/31/18:00:07.453000,(-16 -86 -104 -33 19 8 9 18)
1969/12/31/18:00:07.462000,(24 65 65 59 33 18 19 6)
1969/12/31/18:00:07.462000,(5 31 38 11 -19 6 0 7)
1969/12/31/18:00:07.478000,(6 -106 -127 -39 -14 -27 -17 -2)
1969/12/31/18:00:07.478000,(11 87 64 33 11 6 6 -49)
1969/12/31/18:00:07.483000,(-81 -24 -38 -15 -10 -44 -43 -74)
1969/12/31/18:00:07.484000,(30 22 30 12 6 -11 12 20)
1969/12/31/18:00:07.500000,(-31 -57 -28 -18 -21 9 -15 -25)
1969/12/31/18:00:07.500000,(-8 -100 -62 -27 -24 0 22 25)
1969/12/31/18:00:07.501000,(-24 84 -19 -28 -10 -15 -15 8)
1969/12/31/18:00:07.501000,(7 -2 22 29 16 4 7 -2)
1969/12/31/18:00:07.513000,(-16 -12 -22 -15 -21 -15 9 -18)
1969/12/31/18:00:07.513000,(-13 -24 3 -1 5 3 -24 -23)
1969/12/31/18:00:07.522000,(7 -36 -17 -7 -17 -13 8 -2)
1969/12/31/18:00:07.522000,(-41 -14 -20 -7 7 -8 -11 10)
1969/12/31/18:00:07.537000,(-12 1 4 -11 -21 -27 -19 -21)
1969/12/31/18:00:07.537000,(25 -22 -16 -5 19 46 4 20)
1969/12/31/18:00:07.543000,(-54 -24 -6 0 -6 11 14 -6)
1969/12/31/18:00:07.543000,(3 33 35 8 12 1 -8 -6)
1969/12/31/18:00:07.560000,(19 69 54 20 0 -22 11 36)
1969/12/31/18:00:07.560000,(-1 34 20 7 -10 -22 -24 -14)
1969/12/31/18:00:07.561000,(-101 -128 -128 -42 11 7 -24 -62)
1969/12/31/18:00:07.561000,(49 106 65 17 -16 0 9 -11)
1969/12/31/18:00:07.573000,(-25 -38 -27 -5 19 18 5 4)
1969/12/31/18:00:07.573000,(-74 -58 -18 -1 16 19 -2 -62)
1969/12/31/18:00:07.582000,(29 11 28 3 -37 -36 -22 -3)
1969/12/31/18:00:07.582000,(-26 -58 -62 -24 0 11 26 20)
1969/12/31/18:00:07.597000,(15 10 -6 -7 -3 -50 -7 15)
1969/12/31/18:00:07.597000,(23 24 7 11 12 39 -7 28)
1969/12/31/18:00:07.603000,(30 -29 -9 5 12 -10 12 44)
1969/12/31/18:00:07.603000,(-21 -41 -10 1 2 20 25 -7)
1969/12/31/18:00:07.620000,(-26 -52 -88 -32 -23 -24 -13 -22)
1969/12/31/18:00:07.620000,(71 127 127 70 23 -1 19 38)
1969/12/31/18:00:07.621000,(45 -61 -46 3 22 22 -2 25)
1969/12/31/18:00:07.621000,(-16 -74 -50 -25 -36 -20 -11 -3)
1969/12/31/18:00:07.633000,(-2 -74 -46 -8 7 21 8 -1)
1969/12/31/18:00:07.633000,(25 29 -4 1 -6 -35 -13 3)
1969/12/31/18:00:07.642000,(-53 -5 -19 -27 -9 5 13 7)
1969/12/31/18:00:07.642000,(46 73 84 28 21 22 -12 13)
1969/12/31/18:00:07.657000,(-7 18 17 15 5 -6 -15 -19)
1969/12/31/18:00:07.657000,(-10 -50 -50 -16 20 4 -9 -15)
1969/12/31/18:00:07.663000,(25 91 83 7 -50 -41 9 8)
1969/12/31/18:00:07.663000,(-21 -41 -44 -20 -6 12 20 43)
1969/12/31/18:00:07.680000,(19 44 59 34 20 2 -12 -1)
1969/12/31/18:00:07.680000,(-15 -36 -73 -32 -27 -16 -27 -32)
1969/12/31/18:00:07.681000,(-23 62 81 46 22 -3 15 -8)
1969/12/31/18:00:07.681000,(25 96 66 6 2 -5 -7 14)
1969/12/31/18:00:07.702000,(5 20 37 16 -3 21 16 -9)
1969/12/31/18:00:07.702000,(-17 -93 -32 -11 -3 -24 -10 -12)
1969/12/31/18:00:07.704000,(5 -65 -92 -29 -18 -28 -13 8)
1969/12/31/18:00:07.704000,(-29 -56 -68 -15 -1 42 0 -2)
1969/12/31/18:00:07.717000,(23 26 27 7 2 3 12 39)
1969/12/31/18:00:07.717000,(19 58 65 21 7 5 14 30)
1969/12/31/18:00:07.723000,(36 -89 -67 -17 7 -4 -26 36)
1969/12/31/18:00:07.723000,(-24 11 26 7 -11 -30 -26 -47)
1969/12/31/18:00:07.740000,(-15 -72 -65 -24 -18 5 24 -19)
1969/12/31/18:00:07.740000,(17 25 -6 -14 -21 1 8 28)
1969/12/31/18:00:07.742000,(10 7 45 17 0 1 -31 -30)
1969/12/31/18:00:07.742000,(-18 -87 -101 -28 14 15 -9 -19)
1969/12/31/18:00:07.761000,(9 86 87 21 10 17 3 30)
1969/12/31/18:00:07.761000,(-10 39 22 1 -18 0 3 -37)
1969/12/31/18:00:07.770000,(-7 -62 -44 -23 -19 -7 9 6)
1969/12/31/18:00:07.770000,(8 30 19 17 24 7 6 17)
1969/12/31/18:00:07.777000,(-47 -33 -30 -13 -27 -27 -16 -38)
1969/12/31/18:00:07.777000,(10 -31 -46 -17 -14 -30 -5 5)
1969/12/31/18:00:07.783000,(37 97 81 22 13 41 6 26)
1969/12/31/18:00:07.783000,(-53 -61 -16 -5 -10 -14 11 -45)
1969/12/31/18:00:07.800000,(6 6 -23 -11 8 4 2 11)
1969/12/31/18:00:07.800000,(0 24 17 9 7 -2 -6 -4)
1969/12/31/18:00:07.802000,(-30 -43 -34 -8 -10 -16 14 -7)
1969/12/31/18:00:07.802000,(-17 -23 -36 -17 -1 -4 -18 -32)
1969/12/31/18:00:07.822000,(4 8 22 1 -11 10 3 11)
1969/12/31/18:00:07.822000,(0 -46 -25 -14 7 13 20 35)
1969/12/31/18:00:07.824000,(17 110 74 24 22 30 -13 -41)
1969/12/31/18:00:07.824000,(31 37 21 4 -16 -31 -8 11)
1969/12/31/18:00:07.836000,(-22 -47 -20 -3 0 -12 4 -6)
1969/12/31/18:00:07.836000,(24 21 5 -3 -8 0 3 58)
1969/12/31/18:00:07.851000,(-43 -97 -67 -21 27 68 25 5)
1969/12/31/18:00:07.851000,(-11 59 43 23 -2 -5 -8 -31)
1969/12/31/18:00:07.860000,(5 -82 -88 -36 -15 -20 -19 -8)
1969/12/31/18:00:07.860000,(2 11 -20 -22 -19 -18 -13 -19)
1969/12/31/18:00:07.861000,(32 106 122 66 29 -11 -4 -19)
1969/12/31/18:00:07.861000,(1 -59 -59 -5 -5 5 15 59)
1969/12/31/18:00:07.882000,(-34 -40 -41 -17 -5 -10 -28 -55)
1969/12/31/18:00:07.882000,(-47 -74 -13 -5 19 9 3 -37)
1969/12/31/18:00:07.884000,(26 -15 -34 -15 -12 -19 -15 15)
1969/12/31/18:00:07.884000,(-37 21 -2 -4 -4 33 22 -30)
1969/12/31/18:00:07.897000,(25 56 50 12 -8 -22 -8 3)
1969/12/31/18:00:07.897000,(-16 0 3 18 15 -18 2 16)
1969/12/31/18:00:07.903000,(-38 -63 -48 -26 -16 -8 11 -33)
1969/12/31/18:00:07.903000,(38 18 13 -2 -17 -16 -9 14)
1969/12/31/18:00:07.920000,(11 -55 -31 -17 1 -7 10 16)
1969/12/31/18:00:07.920000,(-1 53 43 24 12 32 6 -17)
1969/12/31/18:00:07.921000,(-21 -93 -84 -26 -17 -22 4 2)
1969/12/31/18:00:07.921000,(21 44 16 8 20 4 -5 -10)
1969/12/31/18:00:07.942000,(26 27 11 -9 -2 25 4 17)
1969/12/31/18:00:07.942000,(27 90 68 47 19 -11 7 13)
1969/12/31/18:00:07.944000,(-9 -13 -21 -11 -4 21 4 -8)
1969/12/31/18:00:07.944000,(20 -74 -10 0 1 -11 -7 -10)
1969/12/31/18:00:07.956000,(8 -6 -23 -6 5 6 -3 9)
1969/12/31/18:00:07.956000,(-18 10 14 1 -10 4 5 3)
1969/12/31/18:00:07.965000,(55 64 29 3 -14 -40 -20 20)
1969/12/31/18:00:07.965000,(-52 -49 -25 -16 -11 -6 -18 -13)
1969/12/31/18:00:07.980000,(-7 -16 -24 0 29 40 21 12)
1969/12/31/18:00:07.980000,(5 -57 -20 -21 -31 11 28 7)
1969/12/31/18:00:07.981000,(56 71 28 14 20 17 -10 19)
1969/12/31/18:00:07.981000,(-13 -6 10 13 6 -24 2 0)
1969/12/31/18:00:08.002000,(-10 -35 -3 9 16 13 -15 -4)
1969/12/31/18:00:08.002000,(-4 -7 -18 -8 -10 17 6 9)
1969/12/31/18:00:08.004000,(-33 -33 -26 -9 13 -38 -26 -24)
1969/12/31/18:00:08.004000,(33 -40 -12 -7 -14 -46 -2 29)
1969/12/31/18:00:08.016000,(2 38 -20 -13 -20 67 15 22)
1969/12/31/18:00:08.016000,(-2 1 5 -18 -17 -13 1 -1)
1969/12/31/18:00:08.025000,(-41 -84 -28 -14 -21 -15 -17 -29)
1969/12/31/18:00:08.025000,(17 28 3 3 14 -5 -4 3)
1969/12/31/18:00:08.047000,(-23 48 83 39 17 -25 9 11)
1969/12/31/18:00:08.047000,(56 -5 -33 -3 13 33 21 67)
1969/12/31/18:00:08.049000,(0 31 25 8 11 11 11 8)
1969/12/31/18:00:08.049000,(-42 -112 -87 -28 -14 -2 -15 -18)
1969/12/31/18:00:08.062000,(33 97 81 18 0 -12 -7 4)
1969/12/31/18:00:08.062000,(-20 -31 -2 3 2 -22 2 -4)
1969/12/31/18:00:08.064000,(-24 25 8 8 3 -6 2 -14)
1969/12/31/18:00:08.064000,(0 15 -12 -28 -13 24 -8 -18)
1969/12/31/18:00:08.076000,(22 44 51 23 -1 -2 27 30)
1969/12/31/18:00:08.076000,(19 18 -3 14 9 -20 -9 -7)
1969/12/31/18:00:08.085000,(-14 -53 -17 -23 -6 38 -4 -13)
1969/12/31/18:00:08.085000,(23 9 -1 -1 8 12 9 -8)
1969/12/31/18:00:08.100000,(-52 -37 -26 -8 -2 -23 -32 -25)
1969/12/31/18:00:08.100000,(8 26 21 10 6 8 -2 -8)
1969/12/31/18:00:08.101000,(3 44 39 20 -2 -6 1 -70)
1969/12/31/18:00:08.101000,(-11 29 27 12 4 19 26 30)
1969/12/31/18:00:08.130000,(21 -39 -43 -23 -13 -23 -15 18)
1969/12/31/18:00:08.130000,(-17 15 19 10 6 1 8 -3)
1969/12/31/18:00:08.131000,(-35 -46 -30 -16 -16 -19 -18 -4)
1969/12/31/18:00:08.131000,(12 59 13 13 9 13 2 -23)
1969/12/31/18:00:08.136000,(-13 22 43 8 -11 -35 6 -47)
1969/12/31/18:00:08.136000,(10 -12 -19 -2 -1 17 -30 -31)
1969/12/31/18:00:08.145000,(8 -17 -9 -4 -4 13 38 53)
1969/12/31/18:00:08.145000,(-24 -10 16 -4 -6 -24 -27 -35)
1969/12/31/18:00:08.160000,(-38 -83 -74 -5 5 -14 4 7)
1969/12/31/18:00:08.160000,(29 108 74 17 20 8 -20 -71)
1969/12/31/18:00:08.161000,(17 -65 -33 -30 -35 29 31 83)
1969/12/31/18:00:08.161000,(1 -12 -44 -16 -9 -12 -3 9)
1969/12/31/18:00:08.182000,(-19 31 48 20 11 2 -7 -7)
1969/12/31/18:00:08.182000,(3 59 50 19 8 -13 -4 10)
1969/12/31/18:00:08.184000,(-23 -37 -29 16 26 4 28 76)
1969/12/31/18:00:08.184000,(96 67 48 11 -10 -3 -6 42)
1969/12/31/18:00:08.196000,(1 -64 -48 -20 -14 -4 -8 26)
1969/12/31/18:00:08.196000,(-39 -68 -43 -23 -13 -9 -4 -15)
1969/12/31/18:00:08.205000,(10 15 -22 -15 0 -1 -11 -20)
1969/12/31/18:00:08.205000,(-35 57 81 38 15 12 19 -2)
1969/12/31/18:00:08.220000,(12 17 8 17 15 5 -11 -82)
1969/12/31/18:00:08.220000,(1 -58 -30 -17 -7 9 5 33)
1969/12/31/18:00:08.221000,(-5 0 -34 -23 -17 -16 -16 -24)
1969/12/31/18:00:08.221000,(-20 53 69 28 41 32 -13 -35)
1969/12/31/18:00:08.242000,(49 -8 -42 -9 -35 -9 12 31)
1969/12/31/18:00:08.242000,(-28 8 15 13 25 8 19 47)
1969/12/31/18:00:08.244000,(35 -1 13 6 10 6 4 25)
1969/12/31/18:00:08.244000,(-9 -19 -21 -13 -18 -17 0 -16)
1969/12/31/18:00:08.256000,(18 19 40 6 8 6 3 82)
1969/12/31/18:00:08.256000,(-19 -53 -53 -17 -25 -21 -6 -34)
1969/12/31/18:00:08.265000,(-9 13 15 8 12 4 -3 -8)
1969/12/31/18:00:08.265000,(-3 64 61 27 15 0 1 8)
1969/12/31/18:00:08.280000,(-8 -83 -78 -27 3 14 6 -14)
1969/12/31/18:00:08.280000,(-1 12 10 2 -7 -9 -1 6)
1969/12/31/18:00:08.281000,(20 127 120 44 19 1 -14 -64)
1969/12/31/18:00:08.282000,(-39 -67 -38 -17 -24 -29 0 -23)
1969/12/31/18:00:08.302000,(-9 -24 -25 -18 10 26 -11 -33)
1969/12/31/18:00:08.302000,(-5 -10 0 -3 -9 -16 -7 4)
1969/12/31/18:00:08.304000,(-4 -4 1 3 -3 -7 -7 -22)
1969/12/31/18:00:08.304000,(23 0 -17 -7 -3 2 14 26)
1969/12/31/18:00:08.325000,(9 34 23 4 4 -11 -14 -41)
1969/12/31/18:00:08.325000,(58 -13 -24 1 -16 -14 -22 -22)
1969/12/31/18:00:08.326000,(-24 -22 -8 -18 30 79 38 45)
1969/12/31/18:00:08.326000,(-4 -44 -34 -34 -24 14 34 5)
1969/12/31/18:00:08.340000,(10 -4 -4 13 12 -13 -43 -16)
1969/12/31/18:00:08.340000,(-5 15 18 15 5 -10 -7 -8)
1969/12/31/18:00:08.341000,(20 -23 -23 5 -7 -37 -18 -8)
1969/12/31/18:00:08.341000,(33 11 -10 -5 5 22 5 20)
1969/12/31/18:00:08.362000,(-42 61 60 22 4 -2 15 15)
1969/12/31/18:00:08.362000,(15 -4 -11 -12 3 14 17 49)
1969/12/31/18:00:08.364000,(36 26 26 9 -10 -18 0 22)
1969/12/31/18:00:08.364000,(-36 -82 -66 -20 10 20 7 -4)
1969/12/31/18:00:08.376000,(3 16 9 0 -22 -29 0 0)
1969/12/31/18:00:08.376000,(-33 -23 0 -7 -3 2 -6 -23)
1969/12/31/18:00:08.385000,(14 -7 -20 -8 -6 -4 -3 -19)
1969/12/31/18:00:08.385000,(-13 11 34 19 2 -19 -38 -25)
1969/12/31/18:00:08.407000,(35 29 5 7 18 57 86 11)
1969/12/31/18:00:08.407000,(-22 -29 -14 -12 -3 0 -50 -7)
1969/12/31/18:00:08.409000,(-7 14 11 8 -2 -9 16 -15)
1969/12/31/18:00:08.409000,(23 -29 -22 -26 -25 -34 -56 -4)
1969/12/31/18:00:08.422000,(-59 5 15 32 30 24 5 -28)
1969/12/31/18:00:08.422000,(-25 -8 -24 -18 -12 -4 -12 -3)
1969/12/31/18:00:08.424000,(0 -6 14 13 7 13 -6 23)
1969/12/31/18:00:08.424000,(64 8 -5 2 0 -13 40 37)
1969/12/31/18:00:08.436000,(34 -6 3 -2 -3 -20 -8 27)
1969/12/31/18:00:08.436000,(56 10 3 -7 -2 3 -13 -1)
1969/12/31/18:00:08.445000,(-1 23 2 0 -11 -28 -20 16)
1969/12/31/18:00:08.445000,(-86 -40 -16 1 13 9 -4 -78)
1969/12/31/18:00:08.460000,(12 -8 -17 -20 -28 -18 -15 -7)
1969/12/31/18:00:08.460000,(23 -17 -7 -5 -2 6 34 44)
1969/12/31/18:00:08.462000,(-21 38 22 7 4 11 -2 -56)
1969/12/31/18:00:08.462000,(66 -12 -20 -7 -5 1 24 78)
1969/12/31/18:00:08.481000,(-8 -23 -11 -14 -8 -21 -23 -8)
1969/12/31/18:00:08.481000,(-41 16 13 10 8 -2 9 -3)
1969/12/31/18:00:08.490000,(14 -11 -11 -14 -12 27 -15 -6)
1969/12/31/18:00:08.490000,(20 17 4 6 0 5 41 33)
1969/12/31/18:00:08.496000,(-3 4 0 -4 1 -11 -38 -16)
1969/12/31/18:00:08.496000,(-23 1 12 15 10 34 93 35)
1969/12/31/18:00:08.505000,(-45 -15 -8 -4 8 2 -49 -13)
1969/12/31/18:00:08.505000,(-29 -27 -13 -3 -13 -9 -18 -49)
1969/12/31/18:00:08.520000,(4 -10 -6 -10 -7 -14 -8 -4)
1969/12/31/18:00:08.520000,(-72 -11 2 5 0 5 -7 -91)
1969/12/31/18:00:08.521000,(83 40 10 1 -1 2 33 9)
1969/12/31/18:00:08.521000,(20 8 -3 -4 -6 -22 -70 -60)
1969/12/31/18:00:08.542000,(8 -6 -5 -6 2 24 25 26)
1969/12/31/18:00:08.542000,(-20 -3 -8 -5 -4 -7 -15 18)
1969/12/31/18:00:08.544000,(-88 -52 -23 -15 -14 -29 -19 -56)
1969/12/31/18:00:08.544000,(86 40 10 7 5 0 15 37)
1969/12/31/18:00:08.556000,(-63 -45 -19 -10 -4 16 36 -22)
1969/12/31/18:00:08.556000,(54 56 12 -2 -5 -22 -19 -7)
1969/12/31/18:00:08.565000,(11 -17 -7 -5 -11 -20 26 68)
1969/12/31/18:00:08.565000,(-8 -16 0 5 9 22 22 14)
1969/12/31/18:00:08.579000,(-56 -33 -14 -12 -8 -4 -7 -75)
1969/12/31/18:00:08.579000,(-17 -27 -2 1 4 8 5 9)
1969/12/31/18:00:08.586000,(44 39 13 9 3 -2 3 -6)
1969/12/31/18:00:08.586000,(-26 35 5 1 1 1 26 -32)
1969/12/31/18:00:08.603000,(-30 -5 7 7 6 1 -30 3)
1969/12/31/18:00:08.603000,(-20 -10 -7 -10 -7 -4 -1 -20)
1969/12/31/18:00:08.605000,(18 -48 -15 -8 -4 -7 -15 -9)
1969/12/31/18:00:08.605000,(-2 19 9 7 5 8 -2 7)
1969/12/31/18:00:08.625000,(-51 -6 -2 -1 -1 -1 4 35)
1969/12/31/18:00:08.625000,(79 36 -6 -15 -12 -7 -19 11)
1969/12/31/18:00:08.626000,(-74 -21 -13 -18 -15 -14 6 -23)
1969/12/31/18:00:08.626000,(0 -20 0 10 5 3 -4 24)
1969/12/31/18:00:08.639000,(21 15 4 -6 -1 2 -1 -3)
1969/12/31/18:00:08.639000,(-13 -9 -7 3 0 -6 -11 -14)
1969/12/31/18:00:08.646000,(36 15 4 8 10 1 3 1)
1969/12/31/18:00:08.646000,(-15 -9 19 16 2 -2 -7 20)
1969/12/31/18:00:08.662000,(22 18 1 4 -4 -6 -9 16)
1969/12/31/18:00:08.662000,(23 -1 3 -3 6 8 7 -4)
1969/12/31/18:00:08.664000,(3 -2 -17 -13 -13 -11 -5 -11)
1969/12/31/18:00:08.664000,(-47 -20 -3 -7 -2 1 -8 -8)
1969/12/31/18:00:08.685000,(33 7 0 12 6 4 11 13)
1969/12/31/18:00:08.685000,(5 -9 -9 -7 -7 -6 -6 4)
1969/12/31/18:00:08.687000,(-18 0 -2 -1 6 3 7 9)
1969/12/31/18:00:08.687000,(-5 -4 -11 -7 -1 -3 -5 5)
1969/12/31/18:00:08.699000,(32 28 44 19 4 -4 -11 9)
1969/12/31/18:00:08.699000,(-7 6 -2 -4 2 7 20 15)
1969/12/31/18:00:08.706000,(-12 -2 1 7 2 -6 -9 -19)
1969/12/31/18:00:08.706000,(-6 -28 -21 -14 -8 -4 -8 -4)
1969/12/31/18:00:08.722000,(9 -39 -45 -21 -9 -8 -4 -30)
1969/12/31/18:00:08.722000,(-6 5 7 2 4 8 10 8)
1969/12/31/18:00:08.724000,(-3 4 1 4 -3 -3 7 8)
1969/12/31/18:00:08.724000,(-6 28 25 10 3 1 -3 -3)
1969/12/31/18:00:08.745000,(-6 3 -2 -3 -3 -4 -11 -32)
1969/12/31/18:00:08.745000,(0 -12 -16 -4 -6 -9 -13 -16)
1969/12/31/18:00:08.746000,(14 16 23 8 2 0 3 9)
1969/12/31/18:00:08.747000,(-9 -39 -32 -14 -5 -3 -2 -3)
1969/12/31/18:00:08.759000,(-1 9 -13 -12 -6 -1 5 8)
1969/12/31/18:00:08.759000,(7 -15 18 18 9 10 16 6)
1969/12/31/18:00:08.766000,(-4 -21 -40 -15 -7 -8 -20 -19)
1969/12/31/18:00:08.766000,(-6 32 21 8 4 2 -4 4)
1969/12/31/18:00:08.782000,(6 -2 2 -2 -4 0 4 10)
1969/12/31/18:00:08.782000,(5 7 -31 -15 -7 -1 13 14)
1969/12/31/18:00:08.784000,(-1 3 19 11 0 1 -3 7)
1969/12/31/18:00:08.784000,(-14 -38 -37 -13 -5 -2 -2 -12)
1969/12/31/18:00:08.805000,(9 -9 -23 -14 -5 -3 -2 6)
1969/12/31/18:00:08.805000,(0 33 51 26 9 -2 -11 -19)
1969/12/31/18:00:08.806000,(-3 -6 -7 -8 0 0 -6 -4)
1969/12/31/18:00:08.806000,(0 14 2 -2 -1 -4 -1 2)
1969/12/31/18:00:08.818000,(7 -11 -1 2 -1 0 -7 0)
1969/12/31/18:00:08.818000,(-6 -5 -25 -4 -2 0 6 0)
1969/12/31/18:00:08.827000,(3 5 17 7 5 5 -1 0)
1969/12/31/18:00:08.827000,(-3 6 2 -8 -8 -5 -2 3)
1969/12/31/18:00:08.842000,(8 15 12 4 4 3 1 4)
1969/12/31/18:00:08.842000,(-10 -36 -24 -13 -10 -11 -18 -15)
1969/12/31/18:00:08.844000,(4 2 -7 0 2 3 7 2)
1969/12/31/18:00:08.844000,(3 16 30 14 7 2 5 6)
1969/12/31/18:00:08.864000,(-4 -11 -15 -8 -6 -4 -1 5)
1969/12/31/18:00:08.864000,(5 18 17 0 -1 -3 -13 -16)
1969/12/31/18:00:08.879000,(-3 -7 -6 -1 -1 2 8 4)
1969/12/31/18:00:08.879000,(1 -7 -2 -3 -2 -1 -1 2)
1969/12/31/18:00:08.879000,(7 19 6 5 1 1 7 8)
1969/12/31/18:00:08.879000,(-13 -37 -28 -16 -8 -3 -12 -12)
1969/12/31/18:00:08.887000,(6 32 42 20 8 4 9 7)
1969/12/31/18:00:08.887000,(-3 -17 -22 -13 -10 -5 -5 -3)
1969/12/31/18:00:08.902000,(2 0 30 5 4 3 0 1)
1969/12/31/18:00:08.902000,(3 5 -27 0 2 -1 -5 -1)
1969/12/31/18:00:08.904000,(-12 -14 -20 -5 -6 -9 -19 -15)
1969/12/31/18:00:08.904000,(-2 -1 22 5 2 2 0 -2)
1969/12/31/18:00:08.925000,(6 23 10 2 2 5 12 9)
1969/12/31/18:00:08.925000,(-3 -5 -2 -16 -10 -7 -9 -2)
1969/12/31/18:00:08.926000,(5 5 16 9 4 2 13 14)
1969/12/31/18:00:08.926000,(0 -10 -2 2 2 -1 -6 -5)
1969/12/31/18:00:08.938000,(-2 -7 -3 3 -1 -2 -5 -2)
1969/12/31/18:00:08.938000,(9 29 15 4 0 -2 -1 3)
1969/12/31/18:00:08.947000,(-14 -33 -27 -16 -9 -4 0 -2)
1969/12/31/18:00:08.947000,(-7 -11 23 10 5 1 -2 -3)
1969/12/31/18:00:08.963000,(14 13 -13 -9 -2 1 1 -2)
1969/12/31/18:00:08.963000,(9 30 45 36 16 7 6 7)
1969/12/31/18:00:08.964000,(-1 -3 13 12 3 -3 -2 0)
1969/12/31/18:00:08.964000,(-4 5 -7 -6 -7 -2 -1 -3)
1969/12/31/18:00:08.985000,(-21 -33 -38 -30 -14 -7 -5 -4)
1969/12/31/18:00:08.985000,(-2 -8 18 7 6 4 5 3)
1969/12/31/18:00:08.987000,(7 24 19 5 3 0 -1 -3)
1969/12/31/18:00:08.987000,(2 -18 -24 -9 -1 2 3 2)
1969/12/31/18:00:08.999000,(11 45 39 26 8 -1 1 1)
1969/12/31/18:00:08.999000,(-9 -29 -3 3 -4 -1 -2 -3)
1969/12/31/18:00:09.008000,(3 43 18 -7 -5 -2 0 3)
1969/12/31/18:00:09.008000,(1 4 9 6 1 3 2 -1)
1969/12/31/18:00:09.024000,(-2 -12 -9 -4 -1 -1 -3 -1)
1969/12/31/18:00:09.024000,(1 8 -2 -4 -1 0 -4 -3)
1969/12/31/18:00:09.025000,(-5 -27 -8 -7 -3 0 4 4)
1969/12/31/18:00:09.025000,(0 -6 -12 -11 -3 -2 -3 -4)
1969/12/31/18:00:09.045000,(1 10 -15 -2 4 2 0 -2)
1969/12/31/18:00:09.045000,(-4 -9 2 -3 -2 -2 -4 -2)
1969/12/31/18:00:09.047000,(4 -10 -5 -1 -1 -2 -2 1)
1969/12/31/18:00:09.047000,(-2 2 -10 -2 3 2 0 0)
1969/12/31/18:00:09.059000,(-4 -10 3 6 0 -1 -2 -3)
1969/12/31/18:00:09.059000,(-4 -8 -10 -8 -6 -2 -3 -1)
1969/12/31/18:00:09.068000,(-1 -6 -16 -10 -4 -5 -4 -3)
1969/12/31/18:00:09.068000,(2 5 5 4 1 -1 -2 0)
1969/12/31/18:00:09.082000,(-6 3 -2 -5 -1 -2 -2 -4)
1969/12/31/18:00:09.082000,(4 6 -4 -5 -3 -4 -1 1)
1969/12/31/18:00:09.084000,(-1 8 3 -1 -3 -1 -2 -3)
1969/12/31/18:00:09.084000,(-8 -26 -25 -5 -4 -2 -3 -5)
1969/12/31/18:00:09.084000,(-1 -1 0 0 1 1 -1 0)
1969/12/31/18:00:09.085000,(-2 0 2 -3 -5 -1 -1 -1)
1969/12/31/18:00:09.086000,(-1 -1 1 0 1 1 1 0)
1969/12/31/18:00:09.086000,(2 0 2 1 2 0 0 -1)
1969/12/31/18:00:09.098000,(-1 -1 -1 1 -1 0 0 -3)
1969/12/31/18:00:09.098000,(0 -1 -1 0 0 -1 -1 -1)
1969/12/31/18:00:09.107000,(-2 -2 0 -2 -1 2 0 -1)
1969/12/31/18:00:09.107000,(0 -2 -2 -3 -2 0 1 1)
1969/12/31/18:00:09.121000,(-2 -1 -3 -3 -2 -2 -1 -1)
1969/12/31/18:00:09.121000,(-1 -1 -1 -2 0 -1 -2 -1)
1969/12/31/18:00:09.128000,(0 0 -1 -3 -2 -1 0 0)
1969/12/31/18:00:09.128000,(-1 -1 1 4 1 1 0 1)
1969/12/31/18:00:09.144000,(-3 -2 -5 -4 -2 -1 -2 -1)
1969/12/31/18:00:09.144000,(1 1 -2 0 -1 1 0 -2)
1969/12/31/18:00:09.146000,(-4 -2 0 1 -1 0 -3 -2)
1969/12/31/18:00:09.146000,(-2 -3 -2 -3 -3 -1 -2 -2)
1969/12/31/18:00:09.167000,(-2 -8 -12 -8 -4 -2 -2 -2)
1969/12/31/18:00:09.167000,(-1 6 16 7 1 1 2 0)
1969/12/31/18:00:09.168000,(-1 1 0 3 0 0 0 -3)
1969/12/31/18:00:09.168000,(-2 -2 1 -3 -3 -3 -2 -2)
1969/12/31/18:00:09.181000,(1 0 1 2 -1 -1 0 0)
1969/12/31/18:00:09.181000,(-2 -3 -8 -6 -4 -3 -2 -1)
1969/12/31/18:00:09.188000,(2 0 -2 1 0 1 0 0)
1969/12/31/18:00:09.188000,(-1 -1 -7 -5 -3 -1 -1 -2)
1969/12/31/18:00:09.204000,(0 -2 0 2 5 1 -1 2)
1969/12/31/18:00:09.204000,(-2 -2 -6 -8 -4 -2 -1 -2)
1969/12/31/18:00:09.206000,(1 1 5 2 0 0 -1 -2)
1969/12/31/18:00:09.206000,(0 2 1 8 4 1 0 -2)
1969/12/31/18:00:09.227000,(-2 1 2 0 -1 0 -1 -2)
1969/12/31/18:00:09.227000,(-2 -3 -7 -4 -3 -1 0 0)
1969/12/31/18:00:09.228000,(-1 1 0 3 4 -1 1 2)
1969/12/31/18:00:09.228000,(0 1 -2 -2 0 0 -1 -1)
1969/12/31/18:00:09.240000,(0 1 6 3 1 -1 0 -1)
1969/12/31/18:00:09.240000,(-2 -4 -4 -4 -3 0 0 -2)
1969/12/31/18:00:09.250000,(-3 -6 -7 -8 -6 -3 -2 0)
1969/12/31/18:00:09.250000,(-3 -2 -4 -17 -6 -2 -1 -2)
1969/12/31/18:00:09.264000,(-4 -4 -5 4 -4 -2 -2 -3)
1969/12/31/18:00:09.264000,(1 5 -1 3 7 0 -1 -1)
1969/12/31/18:00:09.266000,(1 7 22 22 4 2 1 2)
1969/12/31/18:00:09.266000,(1 4 6 15 9 4 2 0)
1969/12/31/18:00:09.287000,(-2 -5 -6 -12 -7 -2 -1 -3)
1969/12/31/18:00:09.287000,(-5 -8 -12 -27 -12 -6 -3 -5)
1969/12/31/18:00:09.289000,(-3 -6 -24 -16 -10 -4 -4 -4)
1969/12/31/18:00:09.289000,(0 2 14 12 5 2 2 1)
1969/12/31/18:00:09.300000,(2 8 14 18 9 0 -5 0)
1969/12/31/18:00:09.301000,(0 3 12 23 6 3 5 1)
1969/12/31/18:00:09.309000,(-3 -3 -5 -11 -5 -3 -2 -1)
1969/12/31/18:00:09.309000,(-3 -8 -12 -6 -7 -4 -2 0)
1969/12/31/18:00:09.324000,(-3 -6 -18 -25 -6 -2 -1 -1)
1969/12/31/18:00:09.324000,(-1 -2 -12 -18 -7 -5 -5 -4)
1969/12/31/18:00:09.326000,(-2 -2 -1 -2 0 -1 -1 -4)
1969/12/31/18:00:09.326000,(5 5 17 13 5 3 -1 2)
1969/12/31/18:00:09.347000,(-4 3 17 42 11 2 2 -1)
1969/12/31/18:00:09.347000,(8 3 -1 -8 -1 1 1 3)
1969/12/31/18:00:09.348000,(-11 -8 -21 -17 -5 -2 -3 -2)
1969/12/31/18:00:09.349000,(-5 -3 -7 -20 -10 -3 -3 -3)
1969/12/31/18:00:09.360000,(-10 2 16 -5 1 1 -1 -21)
1969/12/31/18:00:09.360000,(14 -4 -20 2 4 0 12 28)
1969/12/31/18:00:09.370000,(2 4 11 11 -1 -12 -9 -8)
1969/12/31/18:00:09.370000,(-1 -1 3 23 2 5 -26 0)
1969/12/31/18:00:09.384000,(6 7 19 11 10 17 1 -5)
1969/12/31/18:00:09.384000,(-15 -15 -37 -31 -15 -15 -9 -13)
1969/12/31/18:00:09.386000,(-3 -2 -12 -40 -21 -3 4 -2)
1969/12/31/18:00:09.386000,(5 5 28 4 18 -1 8 8)
1969/12/31/18:00:09.407000,(1 1 -24 16 11 -1 4 2)
1969/12/31/18:00:09.407000,(1 13 59 78 17 8 -1 -6)
1969/12/31/18:00:09.409000,(4 2 14 18 5 3 3 6)
1969/12/31/18:00:09.409000,(-10 -16 -45 -65 -25 -13 -7 -12)
1969/12/31/18:00:09.421000,(0 -4 -1 -2 -6 -2 -2 7)
1969/12/31/18:00:09.421000,(-3 -2 -16 -5 2 -1 -1 -4)
1969/12/31/18:00:09.430000,(-1 -4 -5 -36 -9 -2 -4 -1)
1969/12/31/18:00:09.430000,(3 9 24 38 9 5 9 1)
1969/12/31/18:00:09.452000,(0 -11 -31 -34 -7 -3 -2 3)
1969/12/31/18:00:09.452000,(-2 4 21 6 -3 -1 -2 -1)
1969/12/31/18:00:09.453000,(5 8 9 55 19 8 4 1)
1969/12/31/18:00:09.453000,(1 6 41 27 2 0 -1 -1)
1969/12/31/18:00:09.467000,(0 -1 -3 -6 -11 -8 -1 5)
1969/12/31/18:00:09.467000,(-3 -8 -37 -31 -3 2 -2 -4)
1969/12/31/18:00:09.468000,(-5 -8 -24 -63 -9 -1 -1 -2)
1969/12/31/18:00:09.468000,(-2 -7 -36 13 -5 -12 -2 -6)
1969/12/31/18:00:09.480000,(6 14 43 14 6 4 3 6)
1969/12/31/18:00:09.480000,(1 8 25 23 5 7 1 -1)
1969/12/31/18:00:09.490000,(-2 -4 -1 1 -1 2 -2 -2)
1969/12/31/18:00:09.490000,(-4 -13 -22 -26 -8 2 4 1)
1969/12/31/18:00:09.504000,(-11 -23 -56 -21 -23 -12 -8 -9)
1969/12/31/18:00:09.504000,(4 13 40 20 10 3 -1 -1)
1969/12/31/18:00:09.506000,(3 6 17 16 6 -1 -1 -1)
1969/12/31/18:00:09.506000,(-6 -10 -24 -8 0 -2 1 -3)
1969/12/31/18:00:09.527000,(-7 -18 -91 -94 -24 -7 0 2)
1969/12/31/18:00:09.527000,(3 18 92 57 11 -1 -2 -5)
1969/12/31/18:00:09.528000,(5 11 19 45 13 5 4 7)
1969/12/31/18:00:09.528000,(1 6 -3 -2 0 2 2 1)
1969/12/31/18:00:09.540000,(-1 0 18 0 0 -2 0 0)
1969/12/31/18:00:09.540000,(-11 -23 -69 -67 -24 -11 -7 -4)
1969/12/31/18:00:09.549000,(0 -3 -6 -16 -5 -3 -2 -5)
1969/12/31/18:00:09.549000,(5 12 16 20 11 5 0 0)
1969/12/31/18:00:09.564000,(-1 1 16 10 2 -3 -2 -1)
1969/12/31/18:00:09.564000,(-3 -4 -13 -3 1 1 0 1)
1969/12/31/18:00:09.566000,(-4 -7 0 1 -2 -3 -1 -3)
1969/12/31/18:00:09.566000,(-3 -4 -14 -22 -6 -2 -1 -1)
1969/12/31/18:00:09.586000,(2 0 19 20 3 -1 -2 0)
1969/12/31/18:00:09.586000,(-4 -3 -5 -4 -1 -2 -3 -3)
1969/12/31/18:00:09.595000,(0 0 -11 -5 3 1 -2 3)
1969/12/31/18:00:09.595000,(-1 5 -3 -9 -4 -2 -2 -1)
1969/12/31/18:00:09.601000,(2 13 22 22 5 0 0 0)
1969/12/31/18:00:09.601000,(0 -5 -20 -11 -4 0 1 -1)
1969/12/31/18:00:09.610000,(-15 -10 -12 -2 -1 0 -4 -17)
1969/12/31/18:00:09.610000,(12 16 25 18 4 4 9 12)
1969/12/31/18:00:09.624000,(-18 -23 1 8 -1 -6 -11 -34)
1969/12/31/18:00:09.624000,(-28 -10 -19 -9 -4 -1 -13 -22)
1969/12/31/18:00:09.626000,(36 10 2 3 -5 -1 12 43)
1969/12/31/18:00:09.626000,(-11 -21 -16 -11 -7 -5 -9 -13)
1969/12/31/18:00:09.647000,(-4 -6 1 5 5 7 12 23)
1969/12/31/18:00:09.647000,(-34 -7 -14 -11 -6 -8 -29 -90)
1969/12/31/18:00:09.649000,(56 13 6 12 3 3 24 94)
1969/12/31/18:00:09.649000,(-20 -20 -20 -14 -5 -2 -3 -8)
1969/12/31/18:00:09.660000,(6 25 29 10 4 -2 -10 -16)
1969/12/31/18:00:09.660000,(-19 -31 -18 -3 1 3 4 -22)
1969/12/31/18:00:09.670000,(6 6 2 -2 -1 0 1 30)
1969/12/31/18:00:09.670000,(18 2 -1 -7 -2 -2 -5 -7)
1969/12/31/18:00:09.684000,(30 -1 -12 -3 -3 3 25 84)
1969/12/31/18:00:09.684000,(-13 15 14 5 2 0 -3 -8)
1969/12/31/18:00:09.686000,(-26 -18 -5 -4 -2 -4 -17 -53)
1969/12/31/18:00:09.686000,(29 15 0 -4 -2 2 13 46)
1969/12/31/18:00:09.707000,(-7 10 9 1 2 -3 -14 -49)
1969/12/31/18:00:09.707000,(48 7 -2 -7 -3 -1 16 67)
1969/12/31/18:00:09.709000,(-18 -4 1 3 4 1 -2 -13)
1969/12/31/18:00:09.709000,(-23 -7 -3 1 -3 -1 1 2)
1969/12/31/18:00:09.720000,(60 27 9 5 3 4 4 21)
1969/12/31/18:00:09.720000,(-30 -11 -1 -3 -2 -5 -10 -17)
1969/12/31/18:00:09.730000,(-12 -8 -9 -5 -4 -6 -11 -40)
1969/12/31/18:00:09.730000,(0 0 3 1 1 0 -2 -6)
1969/12/31/18:00:09.744000,(25 12 10 4 4 5 9 8)
1969/12/31/18:00:09.744000,(-2 -6 -6 -4 -4 -5 0 23)
1969/12/31/18:00:09.746000,(60 21 8 3 4 11 34 51)
1969/12/31/18:00:09.746000,(-22 -7 -1 -2 0 -4 -10 -25)
1969/12/31/18:00:09.774000,(-38 -18 -10 -5 0 3 -16 -44)
1969/12/31/18:00:09.774000,(-11 -5 2 1 0 -9 -15 -18)
1969/12/31/18:00:09.776000,(-20 11 4 0 1 19 23 25)
1969/12/31/18:00:09.776000,(-40 -10 -2 -4 -7 -25 11 -58)
1969/12/31/18:00:09.780000,(-5 -15 -4 -1 1 9 -37 -18)
1969/12/31/18:00:09.780000,(56 13 -6 -6 1 -8 0 73)
1969/12/31/18:00:09.790000,(-50 -6 13 8 7 10 49 -6)
1969/12/31/18:00:09.790000,(11 -3 -8 -4 2 11 -18 6)
1969/12/31/18:00:09.804000,(-40 -20 -15 -12 -16 -25 10 -9)
1969/12/31/18:00:09.804000,(-30 -2 1 -1 1 6 17 -15)
1969/12/31/18:00:09.810000,(41 26 -2 -7 -13 -23 -53 -46)
1969/12/31/18:00:09.810000,(22 14 17 13 11 22 28 72)
1969/12/31/18:00:09.827000,(-14 -17 -11 -6 -6 -28 -13 -27)
1969/12/31/18:00:09.827000,(49 -5 -21 -14 -14 5 29 63)
1969/12/31/18:00:09.834000,(-62 -38 -19 -8 -4 -7 -13 -14)
1969/12/31/18:00:09.834000,(0 21 9 1 -1 8 -7 -20)
1969/12/31/18:00:09.840000,(-11 6 7 5 3 -6 9 13)
1969/12/31/18:00:09.840000,(-75 -21 -3 1 1 5 8 -51)
1969/12/31/18:00:09.850000,(44 5 2 2 -1 -9 -14 36)
1969/12/31/18:00:09.850000,(-71 -6 4 2 2 -8 -9 -80)
1969/12/31/18:00:09.864000,(69 4 -14 -12 -11 -18 34 111)
1969/12/31/18:00:09.864000,(-1 -28 -6 -6 -2 5 -84 -65)
1969/12/31/18:00:09.866000,(-30 16 8 5 3 12 34 -19)
1969/12/31/18:00:09.866000,(43 24 10 6 -1 -23 -45 -13)
1969/12/31/18:00:09.887000,(-2 -1 2 2 1 -4 32 29)
1969/12/31/18:00:09.887000,(-25 -2 7 2 -5 -11 -19 -24)
1969/12/31/18:00:09.888000,(-1 -12 -15 -12 -9 -16 -30 -27)
1969/12/31/18:00:09.888000,(5 -23 -7 -4 -3 -7 5 -32)
1969/12/31/18:00:09.901000,(2 26 11 3 4 26 19 -21)
1969/12/31/18:00:09.901000,(21 8 8 9 6 -3 7 22)
1969/12/31/18:00:09.909000,(-45 -9 1 2 3 -10 -44 -60)
1969/12/31/18:00:09.909000,(-2 9 2 4 6 18 25 48)
1969/12/31/18:00:09.924000,(-2 -21 -13 -12 -10 0 -13 -22)
1969/12/31/18:00:09.924000,(1 4 3 2 1 2 17 -5)
1969/12/31/18:00:09.931000,(-32 -6 3 5 7 24 25 -41)
1969/12/31/18:00:09.931000,(56 5 -6 -7 -9 -20 3 103)
1969/12/31/18:00:09.947000,(43 32 17 10 5 12 -35 -9)
1969/12/31/18:00:09.947000,(-5 -6 -7 -5 -5 -7 22 32)
1969/12/31/18:00:09.953000,(-6 -7 -9 -8 -5 7 1 -17)
1969/12/31/18:00:09.953000,(8 -11 -5 -4 -3 8 -1 -23)
1969/12/31/18:00:09.961000,(-53 -33 -15 -5 -1 12 -15 -40)
1969/12/31/18:00:09.961000,(54 50 21 9 7 16 43 32)
1969/12/31/18:00:09.970000,(-80 -48 -19 -10 -7 -14 -46 -83)
1969/12/31/18:00:09.970000,(76 31 -6 -11 -6 -5 -53 33)
1969/12/31/18:00:09.984000,(-25 -20 -1 3 2 -23 -10 -28)
1969/12/31/18:00:09.984000,(6 5 -7 -8 -8 15 12 -8)
1969/12/31/18:00:09.990000,(11 10 9 6 -2 -12 1 9)
1969/12/31/18:00:09.990000,(66 45 23 17 19 32 32 49)
1969/12/31/18:00:10.007000,(-80 -29 -3 1 2 5 -19 -109)
1969/12/31/18:00:10.007000,(13 26 9 4 4 -12 -4 12)
1969/12/31/18:00:10.008000,(26 -1 3 6 7 2 27 40)
1969/12/31/18:00:10.008000,(-36 -25 -22 -18 -24 -54 -21 -19)
1969/12/31/18:00:10.021000,(13 10 1 1 7 22 -13 -13)
1969/12/31/18:00:10.021000,(-2 -11 3 4 3 -2 8 7)
1969/12/31/18:00:10.030000,(3 -6 3 3 1 -7 -17 -8)
1969/12/31/18:00:10.030000,(-44 -6 -1 -5 -2 37 26 -32)
1969/12/31/18:00:10.044000,(12 5 2 1 -3 -14 11 42)
1969/12/31/18:00:10.044000,(-37 -5 0 -1 -3 -12 -17 -58)
1969/12/31/18:00:10.050000,(23 -18 -17 -14 -12 -8 -24 8)
1969/12/31/18:00:10.050000,(-68 -54 -27 -17 -9 -14 -6 -94)
1969/12/31/18:00:10.074000,(-8 31 7 1 0 -4 -2 -9)
1969/12/31/18:00:10.074000,(-47 -3 22 20 25 37 60 56)
1969/12/31/18:00:10.076000,(-1 5 -8 -11 -16 -11 12 -3)
1969/12/31/18:00:10.076000,(-59 -26 -4 2 2 -5 -21 -16)
1969/12/31/18:00:10.080000,(3 3 -2 -1 -1 3 9 25)
1969/12/31/18:00:10.080000,(-30 -16 -5 -1 -1 -8 -19 -10)
1969/12/31/18:00:10.090000,(13 18 6 4 4 5 3 1)
1969/12/31/18:00:10.090000,(52 13 8 3 4 5 27 65)
1969/12/31/18:00:10.104000,(52 21 6 3 0 16 41 77)
1969/12/31/18:00:10.104000,(-16 -43 -29 -18 -17 -20 -33 -26)
1969/12/31/18:00:10.111000,(85 19 4 2 0 1 24 46)
1969/12/31/18:00:10.111000,(28 1 7 2 -1 -10 -10 13)
1969/12/31/18:00:10.127000,(-15 15 14 12 8 5 -11 1)
1969/12/31/18:00:10.127000,(72 24 -2 -3 -2 1 12 36)
1969/12/31/18:00:10.129000,(-37 -19 0 9 10 15 36 47)
1969/12/31/18:00:10.129000,(-58 -1 1 1 1 12 -41 -77)
1969/12/31/18:00:10.149000,(12 -12 -13 -15 -11 -9 -3 26)
1969/12/31/18:00:10.149000,(-11 4 1 -1 -1 8 -7 -29)
1969/12/31/18:00:10.151000,(2 18 11 3 -2 -28 -45 -19)
1969/12/31/18:00:10.151000,(50 -5 -6 2 -1 8 24 99)
1969/12/31/18:00:10.172000,(-31 -36 -12 -3 0 -1 -18 -21)
1969/12/31/18:00:10.172000,(26 8 -5 -7 -9 -13 -9 7)
1969/12/31/18:00:10.173000,(74 13 -4 -6 -3 7 21 47)
1969/12/31/18:00:10.173000,(-9 6 4 1 -5 -11 5 -21)
1969/12/31/18:00:10.187000,(-33 1 1 3 5 10 -17 -74)
1969/12/31/18:00:10.187000,(-17 1 0 4 6 -2 11 10)
1969/12/31/18:00:10.188000,(-76 -17 4 7 -7 -13 50 41)
1969/12/31/18:00:10.188000,(-5 1 -6 -4 3 28 26 -39)
1969/12/31/18:00:10.209000,(37 -10 -5 -8 -18 -67 1 28)
1969/12/31/18:00:10.209000,(-44 -7 3 5 9 13 -17 -24)
1969/12/31/18:00:10.211000,(-5 32 8 3 8 3 -48 -73)
1969/12/31/18:00:10.211000,(-5 -26 -17 -10 -12 -24 -12 18)
1969/12/31/18:00:10.224000,(2 7 7 5 21 30 28 21)
1969/12/31/18:00:10.224000,(26 -1 1 -1 -6 26 1 6)
1969/12/31/18:00:10.230000,(1 4 0 -3 -8 -40 -28 -26)
1969/12/31/18:00:10.230000,(1 10 1 0 7 34 29 -10)
1969/12/31/18:00:10.247000,(21 8 4 2 2 -24 -1 59)
1969/12/31/18:00:10.247000,(10 18 1 1 -5 -29 -34 -11)
1969/12/31/18:00:10.249000,(-9 -9 -1 -1 -9 44 -48 -22)
1969/12/31/18:00:10.249000,(-32 -4 9 9 6 -3 23 11)
1969/12/31/18:00:10.269000,(-27 -21 -14 -12 -25 -11 11 12)
1969/12/31/18:00:10.270000,(-32 -14 -10 -7 1 -5 -13 -37)
1969/12/31/18:00:10.271000,(22 0 -7 -6 18 12 2 25)
1969/12/31/18:00:10.271000,(24 9 6 3 -10 7 78 21)
1969/12/31/18:00:10.283000,(-35 -15 -1 24 43 -9 -83 -84)
1969/12/31/18:00:10.283000,(-3 -9 -6 13 14 11 24 29)
1969/12/31/18:00:10.292000,(9 -17 -20 -43 -57 11 14 -18)
1969/12/31/18:00:10.292000,(-61 -5 -3 -21 44 -5 -38 -93)
1969/12/31/18:00:10.307000,(14 5 -4 -20 -93 -50 4 -1)
1969/12/31/18:00:10.307000,(1 9 9 8 17 21 3 -13)
1969/12/31/18:00:10.308000,(-42 -15 1 2 -5 10 17 5)
1969/12/31/18:00:10.308000,(-64 -31 -14 -17 -21 -25 -44 -21)
1969/12/31/18:00:10.329000,(8 -7 -9 -10 23 41 8 -16)
1969/12/31/18:00:10.329000,(-5 -15 1 17 30 -7 -9 -12)
1969/12/31/18:00:10.331000,(-43 -13 -7 8 -1 -20 -26 -85)
1969/12/31/18:00:10.331000,(-25 16 7 8 -8 -6 -25 -75)
1969/12/31/18:00:10.343000,(-41 16 8 10 21 11 -5 -24)
1969/12/31/18:00:10.343000,(14 -32 -7 -7 -25 -3 10 -2)
1969/12/31/18:00:10.352000,(47 8 3 8 21 8 20 63)
1969/12/31/18:00:10.352000,(53 13 4 7 10 16 6 109)
1969/12/31/18:00:10.367000,(-16 0 0 1 -8 -31 15 -14)
1969/12/31/18:00:10.367000,(7 16 4 -10 -13 -23 0 -7)
1969/12/31/18:00:10.368000,(11 6 4 2 9 28 -9 -9)
1969/12/31/18:00:10.368000,(54 12 1 7 8 -11 -17 10)
1969/12/31/18:00:10.389000,(-17 -11 -6 -7 -15 15 10 -31)
1969/12/31/18:00:10.389000,(20 5 -11 -16 -7 -1 -4 37)
1969/12/31/18:00:10.391000,(-18 -21 -2 -1 0 -11 -2 -28)
1969/12/31/18:00:10.391000,(-15 -22 -9 7 18 12 -7 12)
1969/12/31/18:00:10.403000,(75 24 4 -3 7 10 10 36)
1969/12/31/18:00:10.403000,(15 0 -2 -10 -10 -9 7 6)
1969/12/31/18:00:10.412000,(-7 10 1 2 -3 -38 1 -23)
1969/12/31/18:00:10.412000,(1 -1 2 0 -13 -31 -11 -24)
1969/12/31/18:00:10.426000,(-3 -13 -6 4 28 50 10 -1)
1969/12/31/18:00:10.426000,(21 11 -4 0 9 18 -5 2)
1969/12/31/18:00:10.427000,(-10 29 37 12 0 -18 -2 -2)
1969/12/31/18:00:10.427000,(14 -8 -6 -4 -19 -9 2 -8)
1969/12/31/18:00:10.449000,(8 -41 -39 -5 -5 -32 1 5)
1969/12/31/18:00:10.449000,(-57 -11 -42 -25 -12 8 -15 -67)
1969/12/31/18:00:10.449000,(-36 84 83 60 22 5 11 -2)
1969/12/31/18:00:10.449000,(-9 -36 -15 12 15 -12 -2 26)
1969/12/31/18:00:10.471000,(-47 -14 -4 -8 -40 17 -11 -18)
1969/12/31/18:00:10.471000,(16 -49 -38 -18 -26 -23 7 2)
1969/12/31/18:00:10.472000,(30 -67 -75 -27 2 -1 -9 34)
1969/12/31/18:00:10.472000,(-33 43 22 -2 -10 4 -20 -65)
1969/12/31/18:00:10.486000,(-11 -1 -12 0 15 -17 -5 -14)
1969/12/31/18:00:10.486000,(38 83 69 24 17 -6 -3 -9)
1969/12/31/18:00:10.487000,(15 -23 15 1 -17 9 12 50)
1969/12/31/18:00:10.487000,(2 -15 -10 -4 -1 -18 -10 -2)
1969/12/31/18:00:10.509000,(-19 -17 -1 -8 -2 33 21 -15)
1969/12/31/18:00:10.509000,(22 -4 -11 -6 -27 -43 -38 9)
1969/12/31/18:00:10.509000,(-19 -23 -44 -12 1 -11 -2 -18)
1969/12/31/18:00:10.509000,(18 13 -10 -21 -7 40 15 -5)
1969/12/31/18:00:10.531000,(-8 17 22 4 23 35 1 17)
1969/12/31/18:00:10.531000,(-51 24 47 9 -19 -21 -7 3)
1969/12/31/18:00:10.532000,(11 23 16 11 7 15 20 -3)
1969/12/31/18:00:10.532000,(-10 9 25 21 -14 -29 -11 -11)
1969/12/31/18:00:10.546000,(18 -76 -58 -18 -15 -14 12 60)
1969/12/31/18:00:10.546000,(-4 15 -46 -14 3 14 -4 -25)
1969/12/31/18:00:10.547000,(33 56 63 31 35 16 -2 15)
1969/12/31/18:00:10.547000,(-7 7 -13 -4 -11 -11 11 7)
1969/12/31/18:00:10.569000,(11 15 -13 -2 -6 -16 -5 -13)
1969/12/31/18:00:10.569000,(-11 46 75 41 27 25 3 -12)
1969/12/31/18:00:10.570000,(-12 -63 -56 -21 -22 -19 -7 7)
1969/12/31/18:00:10.570000,(18 -9 -6 1 12 53 31 44)
1969/12/31/18:00:10.592000,(-18 -64 -67 -27 -20 -29 -19 -41)
1969/12/31/18:00:10.592000,(-24 7 44 20 -1 -30 -8 -4)
1969/12/31/18:00:10.593000,(10 22 5 -10 0 4 25 40)
1969/12/31/18:00:10.593000,(14 31 39 21 20 -7 2 45)
1969/12/31/18:00:10.606000,(-7 -22 -10 -9 -7 40 16 -17)
1969/12/31/18:00:10.606000,(5 -98 -104 -48 -23 -9 -6 -2)
1969/12/31/18:00:10.607000,(-9 101 86 26 4 -1 -9 -24)
1969/12/31/18:00:10.607000,(-20 -128 -84 -21 4 -15 -1 -7)
1969/12/31/18:00:10.629000,(49 119 65 21 22 25 3 47)
1969/12/31/18:00:10.629000,(19 73 60 17 6 18 16 8)
1969/12/31/18:00:10.629000,(-2 -68 -38 -10 11 23 4 23)
1969/12/31/18:00:10.630000,(4 -36 -53 -18 -8 -17 -17 -39)
1969/12/31/18:00:10.643000,(38 111 93 28 20 -25 -13 11)
1969/12/31/18:00:10.643000,(4 -76 -42 -14 -29 22 3 0)
1969/12/31/18:00:10.651000,(-36 -52 -40 -30 -24 -37 -14 -11)
1969/12/31/18:00:10.651000,(26 108 75 35 25 25 3 20)
1969/12/31/18:00:10.666000,(16 -7 -12 -7 -4 -9 -2 32)
1969/12/31/18:00:10.666000,(-66 -24 -27 -7 -26 -33 -13 -43)
1969/12/31/18:00:10.667000,(-12 -101 -59 -33 -23 8 5 -11)
1969/12/31/18:00:10.667000,(-26 -26 -26 -15 -11 17 1 -2)
1969/12/31/18:00:10.689000,(-34 -66 -34 -8 -6 -45 -24 -47)
1969/12/31/18:00:10.689000,(34 109 74 25 32 19 19 57)
1969/12/31/18:00:10.690000,(-30 -107 -92 -29 -7 -9 -18 -29)
1969/12/31/18:00:10.690000,(31 122 95 24 -10 -25 -21 -30)
1969/12/31/18:00:10.705000,(-4 -22 15 15 0 -1 10 4)
1969/12/31/18:00:10.705000,(1 -123 -128 -41 11 34 16 34)
1969/12/31/18:00:10.711000,(3 73 82 31 10 0 -13 -23)
1969/12/31/18:00:10.711000,(-5 6 -57 -17 -12 -15 -10 -8)
1969/12/31/18:00:10.726000,(-20 4 51 14 20 21 23 47)
1969/12/31/18:00:10.726000,(29 -42 -51 -21 -25 -19 -25 6)
1969/12/31/18:00:10.727000,(-26 53 21 16 18 7 8 -22)
1969/12/31/18:00:10.727000,(21 -72 -42 -22 -14 7 -20 -25)
1969/12/31/18:00:10.749000,(-11 -15 -12 -9 -27 -9 9 -37)
1969/12/31/18:00:10.749000,(-75 -91 -86 -37 -4 11 13 0)
1969/12/31/18:00:10.750000,(0 92 87 58 28 12 -1 -19)
1969/12/31/18:00:10.750000,(3 -84 -56 -13 0 5 18 19)
1969/12/31/18:00:10.763000,(38 -1 -9 3 0 -17 11 60)
1969/12/31/18:00:10.763000,(-30 -31 55 34 30 -5 -12 -50)
1969/12/31/18:00:10.771000,(48 46 -12 -13 -20 -9 -20 23)
1969/12/31/18:00:10.771000,(-6 67 70 11 -5 22 18 -10)
1969/12/31/18:00:10.788000,(24 10 -14 -7 -5 -12 2 29)
1969/12/31/18:00:10.788000,(6 -95 -106 -52 -20 4 5 9)
1969/12/31/18:00:10.788000,(-18 32 20 -9 -2 -19 -5 -14)
1969/12/31/18:00:10.788000,(73 67 49 49 18 -5 -3 80)
1969/12/31/18:00:10.809000,(-28 -55 -58 -14 -3 0 -20 -47)
1969/12/31/18:00:10.809000,(38 85 83 40 21 -2 19 105)
1969/12/31/18:00:10.810000,(-39 -117 -74 -25 -18 -26 -28 -67)
1969/12/31/18:00:10.810000,(-72 -63 -33 -31 -11 26 22 -2)
1969/12/31/18:00:10.823000,(-21 -73 -50 -12 -11 -7 -23 -38)
1969/12/31/18:00:10.823000,(-6 107 20 8 20 1 -1 -11)
1969/12/31/18:00:10.831000,(22 11 23 11 23 68 39 39)
1969/12/31/18:00:10.831000,(-43 -25 -40 -14 -7 -29 -15 -98)
1969/12/31/18:00:10.846000,(-1 36 -3 2 -9 -7 -17 -14)
1969/12/31/18:00:10.846000,(-25 -39 39 25 8 -15 -5 -16)
1969/12/31/18:00:10.847000,(11 -62 -118 -56 -24 19 17 14)
1969/12/31/18:00:10.847000,(29 109 118 54 27 -28 -33 3)
1969/12/31/18:00:10.869000,(10 -30 -43 -8 2 18 2 11)
1969/12/31/18:00:10.869000,(4 -32 -2 -2 -16 -13 8 -24)
1969/12/31/18:00:10.870000,(-17 -49 -40 -9 -2 -2 5 63)
1969/12/31/18:00:10.870000,(-6 -37 -20 -14 -2 21 30 17)
1969/12/31/18:00:10.883000,(-11 -14 -2 2 43 1 -17 -1)
1969/12/31/18:00:10.883000,(2 67 42 9 -42 8 36 27)
1969/12/31/18:00:10.891000,(18 41 48 28 -5 -8 -2 11)
1969/12/31/18:00:10.891000,(-43 -68 -63 -29 -18 -24 -21 -16)
1969/12/31/18:00:10.906000,(4 44 48 18 12 4 1 -12)
1969/12/31/18:00:10.906000,(-28 -112 -75 -23 19 19 -15 -38)
1969/12/31/18:00:10.907000,(0 -22 -64 -26 -10 -32 -11 -38)
1969/12/31/18:00:10.907000,(36 78 69 21 -7 20 19 43)
1969/12/31/18:00:10.929000,(-28 -27 -10 -9 -21 -26 -2 -3)
1969/12/31/18:00:10.929000,(-4 -92 -38 7 25 23 5 9)
1969/12/31/18:00:10.929000,(52 100 90 24 22 49 12 -4)
1969/12/31/18:00:10.930000,(-24 -117 -24 17 2 -67 -23 -24)
1969/12/31/18:00:10.943000,(-33 -71 -42 -15 -29 32 4 -26)
1969/12/31/18:00:10.943000,(35 -31 -42 -12 -12 -30 4 2)
1969/12/31/18:00:10.950000,(13 -20 -17 -1 12 -6 -10 18)
1969/12/31/18:00:10.950000,(4 52 0 -31 -17 12 -9 -61)
1969/12/31/18:00:10.966000,(-1 -49 -30 -11 19 -22 1 2)
1969/12/31/18:00:10.966000,(55 127 127 54 8 21 -17 -22)
1969/12/31/18:00:10.967000,(-10 -83 -58 -14 -20 -34 0 -15)
1969/12/31/18:00:10.967000,(1 -15 -15 -1 -1 -16 1 20)
1969/12/31/18:00:10.989000,(10 -4 -11 -12 -12 10 -14 -19)
1969/12/31/18:00:10.989000,(-42 -18 -1 10 26 12 -22 -62)
1969/12/31/18:00:10.989000,(-1 -68 -82 -25 4 -10 0 4)
1969/12/31/18:00:10.989000,(-4 37 63 37 -8 19 20 0)
1969/12/31/18:00:11.003000,(20 8 -32 -23 -45 -20 -18 -31)
1969/12/31/18:00:11.003000,(8 76 76 31 14 -6 -2 0)
1969/12/31/18:00:11.011000,(-43 -109 -37 -23 -26 -19 -10 0)
1969/12/31/18:00:11.011000,(5 -93 -92 -35 9 30 11 69)
1969/12/31/18:00:11.026000,(-2 112 100 49 40 27 26 -30)
1969/12/31/18:00:11.026000,(31 -31 -28 -16 -29 -29 -15 29)
1969/12/31/18:00:11.027000,(-2 7 -17 -4 1 -12 -20 -13)
1969/12/31/18:00:11.027000,(-5 4 24 -7 -11 -7 -3 -12)
1969/12/31/18:00:11.049000,(-9 -27 -15 2 17 -9 -12 18)
1969/12/31/18:00:11.049000,(-6 35 28 -4 19 54 43 15)
1969/12/31/18:00:11.050000,(-21 -26 -38 -8 1 -6 6 -8)
1969/12/31/18:00:11.050000,(14 15 1 4 -13 -1 -12 -18)
1969/12/31/18:00:11.071000,(34 -9 4 -5 -20 -16 -18 16)
1969/12/31/18:00:11.071000,(14 -73 -93 -34 3 7 4 22)
1969/12/31/18:00:11.072000,(47 93 112 68 27 25 9 9)
1969/12/31/18:00:11.072000,(-27 -99 -72 -14 2 -14 -11 -25)
1969/12/31/18:00:11.086000,(-39 -23 -67 -25 4 14 8 29)
1969/12/31/18:00:11.086000,(47 53 73 59 1 -28 -6 5)
1969/12/31/18:00:11.087000,(1 -16 -32 -20 -20 -4 -15 -12)
1969/12/31/18:00:11.087000,(16 -34 -21 -1 27 39 6 40)
1969/12/31/18:00:11.109000,(-21 -96 -62 -18 -24 -11 -8 -9)
1969/12/31/18:00:11.109000,(-14 31 -15 -31 -30 -24 -11 -9)
1969/12/31/18:00:11.109000,(41 32 48 24 31 28 32 22)
1969/12/31/18:00:11.109000,(3 5 8 7 -6 -24 -20 -37)
1969/12/31/18:00:11.131000,(0 -87 -102 -41 26 25 11 -3)
1969/12/31/18:00:11.131000,(7 110 102 61 16 20 -9 -6)
1969/12/31/18:00:11.132000,(-21 -41 -34 -8 -20 -45 -23 -62)
1969/12/31/18:00:11.132000,(4 -28 -45 -21 28 43 5 2)
1969/12/31/18:00:11.146000,(-5 -48 -38 -9 -31 -13 19 16)
1969/12/31/18:00:11.146000,(-2 29 24 5 12 7 14 -3)
1969/12/31/18:00:11.147000,(-14 72 41 3 -16 -26 -32 20)
1969/12/31/18:00:11.147000,(-34 -57 -9 7 -1 -24 -13 -32)
1969/12/31/18:00:11.169000,(35 76 34 22 15 22 28 34)
1969/12/31/18:00:11.169000,(-18 -43 -14 -34 -6 34 11 14)
1969/12/31/18:00:11.169000,(-30 -69 -93 -34 -15 -10 1 -44)
1969/12/31/18:00:11.169000,(-6 53 33 -7 -21 -10 -12 1)
1969/12/31/18:00:11.192000,(-22 16 23 12 -7 -55 -35 -14)
1969/12/31/18:00:11.192000,(-19 -128 -82 -14 3 -6 15 26)
1969/12/31/18:00:11.193000,(-6 56 46 12 14 49 10 -1)
1969/12/31/18:00:11.193000,(-24 22 14 9 4 -2 10 28)
1969/12/31/18:00:11.206000,(-12 -44 -28 -8 -8 -27 -20 -61)
1969/12/31/18:00:11.206000,(20 75 58 30 17 6 -17 -32)
1969/12/31/18:00:11.207000,(14 -89 -31 7 23 -19 24 67)
1969/12/31/18:00:11.207000,(-4 -36 -96 -46 -35 4 4 -10)
1969/12/31/18:00:11.230000,(43 127 127 90 -2 45 37 46)
1969/12/31/18:00:11.230000,(-7 -128 -128 -57 -55 -63 -14 33)
1969/12/31/18:00:11.231000,(4 -46 -28 7 16 16 -35 -15)
1969/12/31/18:00:11.231000,(-8 -122 -85 -15 2 -26 10 34)
1969/12/31/18:00:11.251000,(1 -12 -32 -19 11 30 6 9)
1969/12/31/18:00:11.251000,(41 112 74 43 11 10 21 52)
1969/12/31/18:00:11.259000,(-13 -95 -79 -48 -38 -29 -26 -42)
1969/12/31/18:00:11.259000,(-12 81 31 18 15 13 -4 -14)
1969/12/31/18:00:11.266000,(6 2 4 -13 1 18 5 -13)
1969/12/31/18:00:11.266000,(4 -18 -17 -4 6 -16 -8 -9)
1969/12/31/18:00:11.267000,(-34 -83 -56 -33 -13 18 10 -7)
1969/12/31/18:00:11.267000,(4 52 38 27 8 -11 -6 -8)
1969/12/31/18:00:11.289000,(16 54 29 7 8 18 0 13)
1969/12/31/18:00:11.289000,(-58 -46 -25 -19 -16 -25 -13 -53)
1969/12/31/18:00:11.290000,(31 94 56 25 19 4 11 21)
1969/12/31/18:00:11.290000,(11 -38 -5 7 -10 -16 -12 -24)
1969/12/31/18:00:11.312000,(-33 -75 -81 -41 -18 18 16 24)
1969/12/31/18:00:11.312000,(-6 66 76 55 36 -2 -24 -39)
1969/12/31/18:00:11.313000,(5 48 -19 -10 -34 -30 -2 -9)
1969/12/31/18:00:11.313000,(3 -62 -51 -12 -5 16 23 10)
1969/12/31/18:00:11.326000,(9 58 53 25 -2 -29 1 -3)
1969/12/31/18:00:11.326000,(-44 -78 -55 -24 0 24 -4 -33)
1969/12/31/18:00:11.327000,(26 22 27 12 6 -27 -25 -48)
1969/12/31/18:00:11.327000,(8 -60 -35 -12 6 14 -5 18)
1969/12/31/18:00:11.349000,(1 53 21 9 14 12 7 -11)
1969/12/31/18:00:11.349000,(15 -45 -32 -20 -23 -7 7 30)
1969/12/31/18:00:11.349000,(12 25 30 20 6 12 14 28)
1969/12/31/18:00:11.349000,(1 -19 -1 -7 -13 -17 4 11)
1969/12/31/18:00:11.371000,(-25 -77 -46 -13 23 8 -23 -35)
1969/12/31/18:00:11.371000,(13 33 -3 -11 -13 -12 -2 16)
1969/12/31/18:00:11.372000,(-13 4 35 14 1 10 11 32)
1969/12/31/18:00:11.372000,(25 0 -49 -27 -32 -8 4 43)
1969/12/31/18:00:11.386000,(-25 31 64 19 -7 -31 -16 -37)
1969/12/31/18:00:11.386000,(27 43 -14 3 31 24 3 -27)
1969/12/31/18:00:11.387000,(-8 28 40 -4 -22 -13 -36 -15)
1969/12/31/18:00:11.387000,(21 21 33 26 20 24 19 -3)
1969/12/31/18:00:11.408000,(-3 -47 -15 -6 -10 -33 -16 -4)
1969/12/31/18:00:11.408000,(-9 -84 -75 -37 -17 -9 -1 -5)
1969/12/31/18:00:11.409000,(3 0 3 6 26 22 24 38)
1969/12/31/18:00:11.409000,(20 34 22 4 7 -7 -6 18)
1969/12/31/18:00:11.432000,(24 -37 -52 -17 -14 5 -3 18)
1969/12/31/18:00:11.432000,(-11 53 66 34 8 -6 -2 3)
1969/12/31/18:00:11.433000,(-34 -70 -61 -31 -15 8 18 15)
1969/12/31/18:00:11.433000,(-22 1 -13 -7 5 6 -17 -26)
1969/12/31/18:00:11.446000,(43 23 -6 9 14 14 31 36)
1969/12/31/18:00:11.446000,(-1 -25 -9 -17 -15 -8 -1 8)
1969/12/31/18:00:11.447000,(7 -8 -5 12 13 5 12 45)
1969/12/31/18:00:11.447000,(-16 37 1 -14 -1 -7 -14 -40)
1969/12/31/18:00:11.469000,(3 -7 32 30 -19 -43 -2 2)
1969/12/31/18:00:11.469000,(30 14 -70 -55 -42 10 -9 -6)
1969/12/31/18:00:11.470000,(27 88 99 67 27 42 23 18)
1969/12/31/18:00:11.470000,(11 -97 -61 -22 -20 -39 -7 29)
1969/12/31/18:00:11.492000,(11 4 9 14 41 40 4 1)
1969/12/31/18:00:11.492000,(-57 -65 -27 -13 -29 -45 1 -32)
1969/12/31/18:00:11.493000,(-38 -53 -45 -31 -26 -25 -19 -50)
1969/12/31/18:00:11.493000,(-18 -62 -54 -26 6 -3 5 -7)
1969/12/31/18:00:11.506000,(37 117 93 31 -1 24 3 33)
1969/12/31/18:00:11.506000,(-2 -81 -36 25 13 -15 -4 11)
1969/12/31/18:00:11.507000,(-18 -100 -100 -38 -8 15 -23 -35)
1969/12/31/18:00:11.507000,(-22 8 37 33 16 8 26 33)
1969/12/31/18:00:11.537000,(-43 -128 -128 -63 -15 -20 -23 -35)
1969/12/31/18:00:11.537000,(1 31 -59 -39 -1 11 10 9)
1969/12/31/18:00:11.538000,(66 127 112 76 16 13 6 -4)
1969/12/31/18:00:11.538000,(-9 -68 -38 -7 -13 -18 -11 24)
1969/12/31/18:00:11.552000,(-11 -78 -29 7 25 -1 19 -1)
1969/12/31/18:00:11.552000,(-14 -62 -72 -49 -55 3 -37 -43)
1969/12/31/18:00:11.553000,(-23 30 32 9 5 -4 5 -1)
1969/12/31/18:00:11.553000,(20 0 -8 -3 -2 0 -3 -7)
1969/12/31/18:00:11.566000,(-30 49 55 9 -6 -8 -5 -24)
1969/12/31/18:00:11.566000,(31 22 7 17 51 3 -4 -8)
1969/12/31/18:00:11.567000,(-29 -18 -11 -26 -40 2 11 -11)
1969/12/31/18:00:11.567000,(-8 36 21 4 -10 -13 -4 -14)
1969/12/31/18:00:11.589000,(-40 28 26 -1 -15 5 -15 -77)
1969/12/31/18:00:11.589000,(5 -100 -64 -25 -1 -3 -11 0)
1969/12/31/18:00:11.590000,(13 6 34 6 4 -18 -5 20)
1969/12/31/18:00:11.590000,(17 57 19 14 22 37 -4 0)
1969/12/31/18:00:11.612000,(-14 -31 -28 -5 -4 -18 5 34)
1969/12/31/18:00:11.612000,(-3 12 -8 10 -2 6 13 21)
1969/12/31/18:00:11.612000,(-41 37 23 -3 10 -6 0 -24)
1969/12/31/18:00:11.612000,(-22 2 24 25 5 -7 -10 -27)
1969/12/31/18:00:11.626000,(-12 -38 -68 -22 24 22 -16 -48)
1969/12/31/18:00:11.626000,(-12 101 127 54 17 34 22 21)
1969/12/31/18:00:11.627000,(28 -128 -128 -52 -15 -39 -15 23)
1969/12/31/18:00:11.627000,(2 127 98 29 -5 -4 13 -21)
1969/12/31/18:00:11.649000,(18 -38 -31 -15 -8 24 8 68)
1969/12/31/18:00:11.649000,(44 -15 -25 0 17 3 24 51)
1969/12/31/18:00:11.649000,(-54 -81 -84 -20 6 -1 -11 -40)
1969/12/31/18:00:11.649000,(38 38 57 17 -1 12 25 36)
1969/12/31/18:00:11.672000,(9 55 18 11 -2 -13 -9 -17)
1969/12/31/18:00:11.672000,(28 16 39 32 31 -2 7 19)
1969/12/31/18:00:11.673000,(51 85 84 7 -14 4 -3 52)
1969/12/31/18:00:11.673000,(8 -50 -66 -28 -19 -19 -5 -19)
1969/12/31/18:00:11.686000,(-25 -81 -92 -43 -1 -9 -4 11)
1969/12/31/18:00:11.686000,(-29 84 102 32 1 35 -4 -66)
1969/12/31/18:00:11.694000,(17 78 27 35 25 10 -1 -27)
1969/12/31/18:00:11.694000,(-19 -21 -3 6 34 18 -3 -4)
1969/12/31/18:00:11.709000,(-16 -37 8 -19 -78 -54 -25 -21)
1969/12/31/18:00:11.709000,(-38 -128 -119 -59 -43 -38 1 1)
1969/12/31/18:00:11.710000,(-26 -37 -44 -10 17 0 5 1)
1969/12/31/18:00:11.710000,(9 31 27 3 -30 -13 -17 -24)
1969/12/31/18:00:11.732000,(5 -64 -38 3 10 7 7 35)
1969/12/31/18:00:11.732000,(19 -73 -82 -36 -22 2 7 51)
1969/12/31/18:00:11.733000,(16 81 86 28 19 17 -5 -24)
1969/12/31/18:00:11.733000,(-9 -93 -100 -24 29 -8 -11 5)
1969/12/31/18:00:11.745000,(34 127 127 53 -8 -2 -4 -6)
1969/12/31/18:00:11.745000,(30 26 30 -10 -23 -11 -3 9)
1969/12/31/18:00:11.754000,(-25 -83 -56 -8 8 14 4 -5)
1969/12/31/18:00:11.754000,(-37 -60 -39 5 9 -39 -2 4)
1969/12/31/18:00:11.769000,(-5 83 49 12 21 40 0 -27)
1969/12/31/18:00:11.769000,(-43 3 -4 -25 -44 -5 -4 -40)
1969/12/31/18:00:11.770000,(0 55 51 6 -22 6 -3 -17)
1969/12/31/18:00:11.770000,(7 -59 -29 -8 6 2 23 50)
1969/12/31/18:00:11.792000,(-45 -128 -108 -22 4 17 -20 -72)
1969/12/31/18:00:11.792000,(-2 104 58 27 0 -37 1 18)
1969/12/31/18:00:11.793000,(12 -32 -49 -15 15 -1 -1 11)
1969/12/31/18:00:11.793000,(19 107 72 4 -11 12 6 -2)
1969/12/31/18:00:11.814000,(57 67 127 71 15 -11 26 60)
1969/12/31/18:00:11.814000,(-10 16 -33 -12 5 1 -33 -52)
1969/12/31/18:00:11.815000,(-16 -24 -3 -1 -22 -11 22 24)
1969/12/31/18:00:11.815000,(23 -9 -25 -24 -13 20 -5 -7)
1969/12/31/18:00:11.829000,(10 -3 -21 -6 32 0 11 -13)
1969/12/31/18:00:11.829000,(7 1 29 22 10 2 -10 -9)
1969/12/31/18:00:11.829000,(19 -25 -31 0 2 0 -16 26)
1969/12/31/18:00:11.829000,(-31 -101 -69 -38 -29 -13 -9 -9)
1969/12/31/18:00:11.852000,(49 103 99 38 11 -1 17 56)
1969/12/31/18:00:11.852000,(-12 -128 -87 -29 -6 4 -2 25)
1969/12/31/18:00:11.853000,(-13 -3 -41 -25 -16 -18 4 -14)
1969/12/31/18:00:11.853000,(16 84 39 23 10 23 -9 -29)
1969/12/31/18:00:11.866000,(4 -13 -26 -3 2 -11 -2 23)
1969/12/31/18:00:11.866000,(-11 -22 -33 3 28 12 7 26)
1969/12/31/18:00:11.874000,(31 74 81 24 -8 6 7 12)
1969/12/31/18:00:11.874000,(-41 -119 -38 -22 -29 -25 -16 -14)
1969/12/31/18:00:11.889000,(-8 65 21 3 0 -15 -2 -21)
1969/12/31/18:00:11.889000,(-4 -19 6 6 -2 11 -25 -70)
1969/12/31/18:00:11.896000,(-15 -105 -72 -24 14 -10 0 4)
1969/12/31/18:00:11.896000,(-5 34 18 3 -5 4 -13 -34)
1969/12/31/18:00:11.912000,(-48 17 -12 -11 -3 17 9 -10)
1969/12/31/18:00:11.912000,(44 71 76 30 0 -6 -4 -10)
1969/12/31/18:00:11.913000,(8 -20 -29 -12 23 -3 -28 -51)
1969/12/31/18:00:11.913000,(-17 -49 -60 -31 -29 -3 16 23)
1969/12/31/18:00:11.925000,(18 17 37 16 4 19 19 42)
1969/12/31/18:00:11.925000,(40 115 73 31 21 22 15 41)
1969/12/31/18:00:11.934000,(-17 -9 31 24 7 -3 -6 6)
1969/12/31/18:00:11.934000,(8 -54 -29 19 39 18 5 -13)
1969/12/31/18:00:11.949000,(-19 -106 -76 -40 -14 8 -25 -21)
1969/12/31/18:00:11.949000,(-28 -53 -51 -25 -29 -35 -28 -46)
1969/12/31/18:00:11.950000,(8 -25 -38 -25 2 -3 3 -16)
1969/12/31/18:00:11.950000,(13 105 105 91 27 24 23 52)
1969/12/31/18:00:11.972000,(10 -70 -94 -34 -30 -13 -7 -33)
1969/12/31/18:00:11.972000,(31 -9 -29 -2 7 7 22 64)
1969/12/31/18:00:11.973000,(-18 -39 -36 -18 -14 -29 -17 -7)
1969/12/31/18:00:11.973000,(6 32 3 -16 11 37 43 48)
1969/12/31/18:00:11.986000,(-12 -54 -35 -10 -20 -25 -19 4)
1969/12/31/18:00:11.986000,(-21 -1 21 13 22 14 19 24)
1969/12/31/18:00:11.994000,(-11 38 6 3 6 -19 -9 -3)
1969/12/31/18:00:11.994000,(9 -56 -38 -19 -24 -40 -22 -18)
1969/12/31/18:00:12.009000,(10 86 79 13 -29 9 -1 2)
1969/12/31/18:00:12.009000,(-7 -117 -99 -40 8 -10 12 26)
1969/12/31/18:00:12.009000,(-26 -13 22 19 -10 11 -7 -24)
1969/12/31/18:00:12.009000,(-6 19 -3 -6 12 12 13 -7)
1969/12/31/18:00:12.032000,(27 35 5 9 8 -12 -3 15)
1969/12/31/18:00:12.032000,(29 51 47 27 18 -7 1 4)
1969/12/31/18:00:12.033000,(65 45 17 1 -17 -1 5 -13)
1969/12/31/18:00:12.033000,(-28 -98 -69 -43 -19 20 -8 -4)
1969/12/31/18:00:12.054000,(-2 -82 -57 -47 -19 -20 -2 20)
1969/12/31/18:00:12.054000,(12 86 53 30 21 7 -3 -19)
1969/12/31/18:00:12.055000,(14 54 34 40 7 -10 0 -3)
1969/12/31/18:00:12.055000,(-21 -100 -74 -36 -21 6 2 11)
1969/12/31/18:00:12.069000,(-19 -20 -38 -5 20 -1 -3 -6)
1969/12/31/18:00:12.069000,(-30 26 26 -4 -21 -22 -17 -19)
1969/12/31/18:00:12.070000,(-8 -57 -42 2 61 53 27 8)
1969/12/31/18:00:12.070000,(69 63 45 12 -34 -11 -5 4)
1969/12/31/18:00:12.092000,(-5 -18 -15 -16 -19 -20 -6 -28)
1969/12/31/18:00:12.092000,(-33 -90 -97 -19 11 -15 -19 -21)
1969/12/31/18:00:12.093000,(46 52 63 19 -32 0 16 23)
1969/12/31/18:00:12.093000,(-1 3 17 20 23 3 1 -8)
1969/12/31/18:00:12.114000,(-3 -23 -71 8 33 19 24 21)
1969/12/31/18:00:12.114000,(50 7 14 13 51 5 18 55)
1969/12/31/18:00:12.115000,(-14 -83 -69 -30 -62 15 -7 11)
1969/12/31/18:00:12.115000,(-17 68 52 1 -25 -24 -10 -20)
1969/12/31/18:00:12.129000,(-40 -128 -64 -37 -17 -17 -16 -32)
1969/12/31/18:00:12.129000,(4 40 36 26 17 7 14 7)
1969/12/31/18:00:12.130000,(9 67 23 20 24 15 11 58)
1969/12/31/18:00:12.130000,(4 -37 -1 13 20 -29 -13 -3)
1969/12/31/18:00:12.152000,(-6 -40 -2 -5 -24 10 -17 -6)
1969/12/31/18:00:12.152000,(-39 -128 -127 -67 -54 3 16 0)
1969/12/31/18:00:12.153000,(13 65 60 41 47 7 -14 -26)
1969/12/31/18:00:12.153000,(39 22 -12 12 -9 -7 4 30)
1969/12/31/18:00:12.175000,(-15 -48 -69 -32 13 -14 -15 12)
1969/12/31/18:00:12.175000,(50 85 112 86 32 83 58 5)
1969/12/31/18:00:12.176000,(-53 -128 -128 -83 -66 -39 -41 -52)
1969/12/31/18:00:12.176000,(-45 93 47 19 37 -6 -12 -55)
1969/12/31/18:00:12.189000,(61 127 127 75 51 -2 11 19)
1969/12/31/18:00:12.189000,(72 -7 -29 -25 -46 -11 -27 38)
1969/12/31/18:00:12.190000,(-28 -16 22 32 39 19 6 -19)
1969/12/31/18:00:12.190000,(-21 -57 -38 -45 -57 -6 7 -13)
1969/12/31/18:00:12.212000,(24 -95 -56 -31 -34 -17 -9 -11)
1969/12/31/18:00:12.212000,(-28 83 47 8 -7 -32 -7 5)
1969/12/31/18:00:12.213000,(-11 -4 12 40 42 7 -4 3)
1969/12/31/18:00:12.213000,(6 -84 -82 -20 -4 14 17 58)
1969/12/31/18:00:12.234000,(-46 -8 23 9 -2 -3 -8 -44)
1969/12/31/18:00:12.234000,(-36 -66 -55 -38 -14 -5 -41 -43)
1969/12/31/18:00:12.235000,(10 -21 -38 -35 -17 -28 -19 6)
1969/12/31/18:00:12.235000,(-19 57 67 35 42 22 23 2)
1969/12/31/18:00:12.248000,(-47 11 4 20 41 11 15 19)
1969/12/31/18:00:12.248000,(16 -25 -13 2 14 25 -5 -47)
1969/12/31/18:00:12.257000,(-16 -2 -9 -37 -60 -5 26 15)
1969/12/31/18:00:12.257000,(-9 68 28 5 9 -20 -28 -29)
1969/12/31/18:00:12.272000,(2 51 54 36 19 20 6 1)
1969/12/31/18:00:12.272000,(-48 -23 -16 1 13 -12 -17 -8)
1969/12/31/18:00:12.274000,(89 85 91 41 11 -2 24 48)
1969/12/31/18:00:12.274000,(23 -47 -45 -22 -5 12 16 30)
1969/12/31/18:00:12.294000,(-15 -27 -21 -5 -3 15 -9 6)
1969/12/31/18:00:12.294000,(-23 3 -19 -15 -7 -10 -6 -22)
1969/12/31/18:00:12.296000,(-17 -22 4 -12 -14 -1 11 25)
1969/12/31/18:00:12.296000,(7 -14 -1 10 9 -23 -12 9)
1969/12/31/18:00:12.308000,(11 -4 -11 -6 -19 -16 -15 -11)
1969/12/31/18:00:12.308000,(8 -13 18 10 -3 -3 20 -14)
1969/12/31/18:00:12.317000,(-38 -7 -22 -6 -11 -19 -24 -39)
1969/12/31/18:00:12.317000,(1 -16 0 -6 0 29 -2 -30)
1969/12/31/18:00:12.332000,(6 -37 -33 -6 14 -18 8 -32)
1969/12/31/18:00:12.332000,(-24 -35 -17 -9 -4 23 -14 -25)
1969/12/31/18:00:12.333000,(-16 -4 -20 -15 -41 -44 -17 -34)
1969/12/31/18:00:12.334000,(6 48 23 1 -8 -10 -10 -6)
1969/12/31/18:00:12.354000,(49 115 79 39 16 23 23 44)
1969/12/31/18:00:12.354000,(-36 -11 29 18 9 -26 -6 -8)
1969/12/31/18:00:12.356000,(14 -74 -74 -23 9 11 -1 7)
1969/12/31/18:00:12.356000,(24 -30 -33 -10 -7 1 -12 -2)
1969/12/31/18:00:12.368000,(-40 -10 -6 1 -5 7 16 23)
1969/12/31/18:00:12.368000,(35 -7 -13 0 28 -31 -5 25)
1969/12/31/18:00:12.377000,(-23 -36 -32 -41 -56 25 -9 18)
1969/12/31/18:00:12.377000,(1 2 -5 -10 -25 -19 4 -12)
1969/12/31/18:00:12.392000,(3 16 14 5 14 35 1 -1)
1969/12/31/18:00:12.392000,(-13 15 12 10 -5 -49 10 1)
1969/12/31/18:00:12.393000,(13 -12 -5 2 13 31 2 16)
1969/12/31/18:00:12.393000,(-50 0 14 7 -7 -18 -4 -6)
1969/12/31/18:00:12.414000,(14 15 -4 -7 -10 13 7 -9)
1969/12/31/18:00:12.414000,(-26 -43 -25 -17 -20 -2 -14 -9)
1969/12/31/18:00:12.416000,(-8 -57 -33 -2 12 -29 5 -1)
1969/12/31/18:00:12.416000,(28 88 72 28 8 -1 -10 -4)
1969/12/31/18:00:12.428000,(6 -9 -8 -10 -3 8 11 17)
1969/12/31/18:00:12.428000,(0 12 -3 5 -3 10 5 -1)
1969/12/31/18:00:12.437000,(-8 19 14 12 21 10 22 10)
1969/12/31/18:00:12.437000,(-17 -52 -5 2 10 16 -13 -11)
1969/12/31/18:00:12.452000,(-7 -9 -13 -15 -16 -23 -6 -19)
1969/12/31/18:00:12.452000,(21 0 0 -4 -1 7 -4 16)
1969/12/31/18:00:12.454000,(-19 3 4 -4 -10 -29 -26 -10)
1969/12/31/18:00:12.454000,(26 -8 -19 -6 14 42 54 14)
1969/12/31/18:00:12.474000,(-12 -5 1 11 -8 -49 -37 32)
1969/12/31/18:00:12.474000,(-24 -21 -16 -22 -14 16 -17 -18)
1969/12/31/18:00:12.476000,(2 15 16 6 19 17 16 23)
1969/12/31/18:00:12.476000,(35 19 3 7 4 -13 -3 24)
1969/12/31/18:00:12.488000,(30 -1 -13 -11 2 21 27 19)
1969/12/31/18:00:12.488000,(-1 -2 6 8 0 7 -41 -1)
1969/12/31/18:00:12.497000,(6 22 5 -9 -10 -15 25 8)
1969/12/31/18:00:12.497000,(-23 -15 -12 -2 4 -15 7 -2)
1969/12/31/18:00:12.512000,(-8 -18 -14 -12 -12 2 65 12)
1969/12/31/18:00:12.512000,(-24 -4 6 6 7 18 -50 -28)
1969/12/31/18:00:12.513000,(2 15 7 0 0 -20 -16 -39)
1969/12/31/18:00:12.513000,(44 -5 -10 -2 2 31 -12 -37)
1969/12/31/18:00:12.535000,(34 11 9 3 -5 -30 -13 7)
1969/12/31/18:00:12.535000,(18 11 -5 -3 -4 21 70 33)
1969/12/31/18:00:12.537000,(-3 20 0 -1 2 -5 -65 -34)
1969/12/31/18:00:12.537000,(37 -15 -13 -9 -11 -40 -10 23)
1969/12/31/18:00:12.548000,(-41 -14 -16 -14 -9 36 -31 -13)
1969/12/31/18:00:12.548000,(-63 -49 11 14 7 -16 21 -10)
1969/12/31/18:00:12.557000,(42 49 17 10 13 22 40 17)
1969/12/31/18:00:12.557000,(13 36 -7 -7 -6 -24 -55 0)
1969/12/31/18:00:12.571000,(-64 0 -5 -8 -9 19 -10 -36)
1969/12/31/18:00:12.571000,(17 -47 1 9 5 8 17 31)
1969/12/31/18:00:12.578000,(34 33 -8 -12 -12 -8 4 -20)
1969/12/31/18:00:12.578000,(-101 -61 -9 -1 0 -6 2 -29)
1969/12/31/18:00:12.594000,(56 88 31 17 14 1 -12 8)
1969/12/31/18:00:12.594000,(-56 -70 -40 -30 -31 -37 -22 -16)
1969/12/31/18:00:12.596000,(82 53 22 13 15 28 31 37)
1969/12/31/18:00:12.596000,(24 1 2 10 9 3 -10 19)
1969/12/31/18:00:12.608000,(-29 -25 -19 -16 -11 -16 -34 5)
1969/12/31/18:00:12.608000,(-43 -45 4 8 16 23 25 -36)
1969/12/31/18:00:12.617000,(-4 -4 -6 -5 -11 -14 -34 -70)
1969/12/31/18:00:12.617000,(-55 1 -16 -27 -13 -7 6 -1)
1969/12/31/18:00:12.632000,(26 -17 -21 -26 -4 6 3 -3)
1969/12/31/18:00:12.632000,(-14 78 4 -10 -13 -11 1 -13)
1969/12/31/18:00:12.633000,(1 -78 3 35 11 2 7 44)
1969/12/31/18:00:12.633000,(25 64 60 49 28 23 9 3)
1969/12/31/18:00:12.654000,(59 16 11 13 6 -9 3 16)
1969/12/31/18:00:12.654000,(-45 -8 -54 -62 -8 5 2 -7)
1969/12/31/18:00:12.656000,(-128 -92 -13 -36 -37 -35 -52 -89)
1969/12/31/18:00:12.656000,(-14 -70 -39 14 1 2 4 -39)
1969/12/31/18:00:12.668000,(89 42 22 30 18 10 24 29)
1969/12/31/18:00:12.668000,(15 40 66 81 26 7 10 21)
1969/12/31/18:00:12.677000,(-15 21 -25 -6 7 15 23 51)
1969/12/31/18:00:12.677000,(-13 37 34 -43 -14 -7 -10 -5)
1969/12/31/18:00:12.692000,(-39 -48 -2 14 -11 -16 -9 -19)
1969/12/31/18:00:12.692000,(32 11 4 3 0 3 2 7)
1969/12/31/18:00:12.693000,(-11 -31 -17 0 6 1 4 12)
1969/12/31/18:00:12.693000,(-25 -41 -45 -21 -11 -9 -12 -17)
1969/12/31/18:00:12.714000,(-25 -23 -35 -32 -9 -5 2 -11)
1969/12/31/18:00:12.714000,(42 38 3 -31 -9 -5 -3 9)
1969/12/31/18:00:12.716000,(-14 -17 13 29 10 6 7 14)
1969/12/31/18:00:12.716000,(37 31 10 7 8 9 11 27)
1969/12/31/18:00:12.728000,(-27 -17 28 11 0 1 5 0)
1969/12/31/18:00:12.728000,(10 5 -20 -6 -11 -8 -10 -7)
1969/12/31/18:00:12.737000,(9 10 -2 -15 3 4 5 6)
1969/12/31/18:00:12.737000,(-14 -17 -13 5 0 4 2 1)
1969/12/31/18:00:12.751000,(-13 -3 -7 -6 -9 -13 -12 -15)
1969/12/31/18:00:12.751000,(9 -47 -46 -18 -12 -2 -4 -8)
1969/12/31/18:00:12.758000,(16 60 23 13 17 14 17 15)
1969/12/31/18:00:12.758000,(-9 -5 0 -6 -9 -6 -2 -8)
1969/12/31/18:00:12.774000,(-18 -9 -14 5 3 -4 -3 -4)
1969/12/31/18:00:12.774000,(40 50 46 14 -2 -2 6 23)
1969/12/31/18:00:12.776000,(-18 -45 -36 -26 -10 -7 -17 -10)
1969/12/31/18:00:12.776000,(2 7 12 24 12 10 10 13)
1969/12/31/18:00:12.788000,(5 7 1 3 3 9 13 8)
1969/12/31/18:00:12.788000,(-5 -2 -2 -5 -8 -7 -7 -17)
1969/12/31/18:00:12.797000,(-7 -31 -36 -26 -5 -1 5 7)
1969/12/31/18:00:12.797000,(-11 -2 12 -7 -12 -12 -18 -15)
1969/12/31/18:00:12.812000,(-14 -61 -46 -20 -4 -3 3 2)
1969/12/31/18:00:12.812000,(35 74 29 44 24 20 20 22)
1969/12/31/18:00:12.818000,(3 -3 4 23 5 3 8 11)
1969/12/31/18:00:12.818000,(-4 -37 -60 -30 -15 -11 -18 -10)
1969/12/31/18:00:12.834000,(-7 22 39 7 -4 -5 -6 -11)
1969/12/31/18:00:12.834000,(-10 -35 -27 -18 -10 -10 -11 -8)
1969/12/31/18:00:12.836000,(4 11 -4 -19 -10 -3 3 3)
1969/12/31/18:00:12.836000,(3 -6 9 -3 7 9 10 15)
1969/12/31/18:00:12.848000,(-7 -2 -21 0 -1 -3 -9 -14)
1969/12/31/18:00:12.848000,(2 0 11 -13 -4 -2 0 -5)
1969/12/31/18:00:12.857000,(1 23 19 -10 -1 -3 0 1)
1969/12/31/18:00:12.857000,(-5 -27 15 51 13 3 0 4)
1969/12/31/18:00:12.871000,(0 32 17 -38 -11 -7 -8 -10)
1969/12/31/18:00:12.871000,(4 -16 -31 -5 -8 -1 5 8)
1969/12/31/18:00:12.878000,(7 17 52 41 17 7 7 7)
1969/12/31/18:00:12.878000,(-13 -35 -69 -63 -24 -14 -10 -10)
1969/12/31/18:00:12.894000,(23 33 19 66 28 14 10 16)
1969/12/31/18:00:12.894000,(12 14 68 66 23 14 7 5)
1969/12/31/18:00:12.896000,(3 1 24 59 13 7 -3 5)
1969/12/31/18:00:12.896000,(0 14 13 2 4 -2 1 -3)
1969/12/31/18:00:12.917000,(-14 -15 3 -17 -13 -8 -1 -7)
1969/12/31/18:00:12.917000,(0 -6 -39 -65 -28 -17 -8 -1)
1969/12/31/18:00:12.918000,(-21 -35 -44 -47 -16 -9 -21 -23)
1969/12/31/18:00:12.918000,(6 11 -2 -17 2 3 7 8)
1969/12/31/18:00:12.931000,(-5 -11 -25 -14 -9 -2 -2 -2)
1969/12/31/18:00:12.931000,(-8 -10 -7 -33 -9 -9 -12 -9)
1969/12/31/18:00:12.938000,(7 12 10 35 16 5 10 7)
1969/12/31/18:00:12.938000,(5 15 44 49 15 10 10 9)
1969/12/31/18:00:12.954000,(-5 -4 -19 -35 -11 -6 -4 -6)
1969/12/31/18:00:12.954000,(2 -2 -15 33 5 2 -3 -1)
1969/12/31/18:00:12.956000,(-3 4 11 -42 -8 -3 0 1)
1969/12/31/18:00:12.956000,(4 10 -34 8 -5 -6 -7 -9)
1969/12/31/18:00:12.977000,(-1 -8 26 5 5 4 7 8)
1969/12/31/18:00:12.977000,(-4 -14 -5 44 20 7 1 1)
1969/12/31/18:00:12.978000,(-1 3 -23 -20 -9 -5 -7 -3)
1969/12/31/18:00:12.978000,(-6 -17 3 -2 -8 -2 1 -5)
1969/12/31/18:00:12.991000,(-5 -13 -32 -38 -15 -7 -4 -5)
1969/12/31/18:00:12.991000,(1 6 -3 13 -3 -2 -3 -3)
1969/12/31/18:00:12.998000,(-10 -50 -19 0 3 -2 2 0)
1969/12/31/18:00:12.998000,(20 68 82 40 14 3 5 9)
1969/12/31/18:00:13.014000,(-9 -21 -23 11 -1 -3 -7 -7)
1969/12/31/18:00:13.014000,(-3 5 -17 -41 -13 -4 -2 -3)
1969/12/31/18:00:13.016000,(5 12 35 22 7 5 3 3)
1969/12/31/18:00:13.016000,(-8 -27 -29 -18 -7 -2 -4 -3)
1969/12/31/18:00:13.037000,(7 22 15 8 5 3 4 2)
1969/12/31/18:00:13.037000,(-1 -10 3 -2 -1 -3 -3 4)
1969/12/31/18:00:13.038000,(-3 2 -12 -10 -6 -3 -1 -3)
1969/12/31/18:00:13.038000,(3 4 -5 -8 -1 0 -3 -4)
1969/12/31/18:00:13.051000,(-9 -13 3 -1 -2 -2 -2 -3)
1969/12/31/18:00:13.051000,(-4 -12 -23 -25 -7 -2 -4 -4)
1969/12/31/18:00:13.058000,(-1 9 -3 12 3 -1 2 0)
1969/12/31/18:00:13.058000,(2 0 3 -8 -5 1 2 4)
1969/12/31/18:00:13.074000,(3 -2 11 38 19 7 4 5)
1969/12/31/18:00:13.074000,(3 12 33 8 0 -1 0 1)
1969/12/31/18:00:13.076000,(3 9 -16 -22 -9 -8 -4 -4)
1969/12/31/18:00:13.076000,(-8 -23 -10 -2 -3 0 0 -3)
1969/12/31/18:00:13.097000,(-2 3 -2 -6 -6 -2 1 1)
1969/12/31/18:00:13.097000,(-9 -11 -30 -55 -13 -5 -7 -8)
1969/12/31/18:00:13.098000,(0 6 17 37 13 3 1 1)
1969/12/31/18:00:13.098000,(1 4 7 -3 3 1 -1 2)
1969/12/31/18:00:13.110000,(4 6 17 17 2 -1 -2 -1)
1969/12/31/18:00:13.111000,(3 10 14 11 5 4 11 7)
1969/12/31/18:00:13.119000,(-10 -12 -18 -23 -13 -8 -13 -14)
1969/12/31/18:00:13.119000,(-6 -8 -17 -20 -6 -5 -5 -10)
1969/12/31/18:00:13.142000,(4 12 17 14 6 5 3 5)
1969/12/31/18:00:13.142000,(0 -2 0 7 -3 -1 0 -1)
1969/12/31/18:00:13.143000,(-4 -3 -9 -11 -4 0 1 -1)
1969/12/31/18:00:13.143000,(1 1 4 9 4 1 2 4)
1969/12/31/18:00:13.157000,(1 -8 -12 -8 -2 1 -2 -3)
1969/12/31/18:00:13.157000,(1 8 12 9 3 1 -2 1)
1969/12/31/18:00:13.158000,(4 3 3 3 1 1 3 5)
1969/12/31/18:00:13.158000,(-1 -2 -6 -6 -2 -2 -1 -4)
1969/12/31/18:00:13.171000,(-4 -10 -8 -8 -8 -4 -3 -3)
1969/12/31/18:00:13.171000,(1 -1 -2 6 4 2 0 1)
1969/12/31/18:00:13.179000,(-1 2 -1 -5 -1 2 4 2)
1969/12/31/18:00:13.179000,(2 1 7 11 2 0 0 0)
1969/12/31/18:00:13.202000,(-3 6 7 2 -2 -3 -2 -3)
1969/12/31/18:00:13.202000,(-1 1 6 4 0 -2 -5 -4)
1969/12/31/18:00:13.203000,(-3 -2 -5 -1 -1 -2 -1 -2)
1969/12/31/18:00:13.203000,(-1 -3 -9 -10 -8 -3 -1 3)
1969/12/31/18:00:13.217000,(-3 -4 -4 -1 -1 -3 -3 -5)
1969/12/31/18:00:13.217000,(-1 -3 -5 -1 0 -1 -5 -4)
1969/12/31/18:00:13.219000,(-1 -4 1 -4 -3 0 1 3)
1969/12/31/18:00:13.219000,(-3 -4 -4 -1 1 -1 0 -1)
1969/12/31/18:00:13.230000,(3 6 5 -5 -4 -2 -2 1)
1969/12/31/18:00:13.230000,(0 -3 1 4 1 -2 0 0)
1969/12/31/18:00:13.239000,(-1 0 -3 -5 0 -1 -2 -1)
1969/12/31/18:00:13.239000,(-2 -1 -6 1 0 -1 0 -1)
1969/12/31/18:00:13.255000,(-3 4 0 -3 0 -2 -2 -1)
1969/12/31/18:00:13.255000,(1 -4 8 11 5 4 2 3)
1969/12/31/18:00:13.256000,(0 -2 -3 -4 -5 -4 -2 -1)
1969/12/31/18:00:13.256000,(0 3 0 -1 -1 -1 -1 -2)
1969/12/31/18:00:13.277000,(-4 -7 -3 -3 0 -3 0 -1)
1969/12/31/18:00:13.277000,(-1 -2 -7 -8 -3 -4 -1 -2)
1969/12/31/18:00:13.279000,(-3 -1 0 -6 -4 -4 -3 -3)
1969/12/31/18:00:13.279000,(1 0 1 3 4 1 0 1)
1969/12/31/18:00:13.291000,(-1 -2 -4 -1 -4 -2 -2 -2)
1969/12/31/18:00:13.291000,(0 2 0 2 1 0 0 1)
1969/12/31/18:00:13.299000,(0 -2 -2 -2 -4 -1 -1 0)
1969/12/31/18:00:13.299000,(-4 -3 -5 -8 -8 -5 -4 -5)
1969/12/31/18:00:13.314000,(0 0 -1 -2 -4 -1 1 2)
1969/12/31/18:00:13.314000,(1 1 -1 0 1 -1 0 1)
1969/12/31/18:00:13.316000,(-1 -2 -2 -3 -2 -3 -2 -2)
1969/12/31/18:00:13.316000,(-2 -3 -3 -3 -2 -1 -2 -3)
1969/12/31/18:00:13.337000,(1 2 -1 -3 -3 -1 -1 -1)
1969/12/31/18:00:13.337000,(-2 -2 -5 -6 -4 -3 -2 -5)
1969/12/31/18:00:13.338000,(0 2 2 0 2 1 1 -1)
1969/12/31/18:00:13.338000,(2 4 6 3 1 3 -1 2)
1969/12/31/18:00:13.351000,(-5 -9 -7 -4 -1 -1 -2 -3)
1969/12/31/18:00:13.351000,(1 3 1 2 2 0 0 2)
1969/12/31/18:00:13.360000,(3 4 1 1 1 0 -1 4)
1969/12/31/18:00:13.360000,(-7 -6 -3 0 -1 -1 -1 -5)
1969/12/31/18:00:13.374000,(-1 2 3 1 0 3 0 2)
1969/12/31/18:00:13.374000,(-2 -4 -3 1 1 1 -1 0)
1969/12/31/18:00:13.376000,(-2 -5 -6 -3 -1 1 -2 -2)
1969/12/31/18:00:13.376000,(0 2 2 2 1 1 1 1)
1969/12/31/18:00:13.397000,(-2 -3 -2 -8 -2 -2 -1 -2)
1969/12/31/18:00:13.397000,(-3 -1 -3 -1 -1 -3 -3 -4)
1969/12/31/18:00:13.398000,(-2 3 3 2 1 -1 0 1)
1969/12/31/18:00:13.398000,(-1 -3 -1 -2 0 0 -3 1)
1969/12/31/18:00:13.411000,(-1 -5 -5 -4 -2 -2 -3 -2)
1969/12/31/18:00:13.411000,(-1 0 -4 -3 -6 -2 -3 -2)
1969/12/31/18:00:13.419000,(-1 -5 -2 1 4 2 1 0)
1969/12/31/18:00:13.419000,(0 2 6 3 1 -1 -1 -1)
1969/12/31/18:00:13.434000,(1 3 2 3 3 0 1 0)
1969/12/31/18:00:13.434000,(-1 0 1 -1 -2 -3 0 0)
1969/12/31/18:00:13.436000,(-2 0 -4 -3 -5 -2 -3 -2)
1969/12/31/18:00:13.436000,(-2 -1 -2 0 0 -1 -1 -1)
1969/12/31/18:00:13.457000,(0 -2 -1 4 3 2 -1 -1)
1969/12/31/18:00:13.457000,(-1 -1 0 -1 0 -1 0 0)
1969/12/31/18:00:13.458000,(-4 -1 0 -5 -5 -2 -3 -3)
1969/12/31/18:00:13.458000,(0 -3 -1 2 -1 0 0 -1)
1969/12/31/18:00:13.480000,(-3 0 -1 -5 -5 -3 -1 -1)
1969/12/31/18:00:13.480000,(1 2 3 3 2 1 0 1)
1969/12/31/18:00:13.486000,(0 -2 -2 -2 -2 0 1 -1)
1969/12/31/18:00:13.486000,(1 0 -2 -2 -1 -1 -2 -1)
1969/12/31/18:00:13.494000,(-1 -2 -1 0 -2 0 1 1)
1969/12/31/18:00:13.494000,(-1 -1 -3 -2 0 -2 -1 -1)
1969/12/31/18:00:13.501000,(-1 0 -1 -3 -2 0 0 1)
1969/12/31/18:00:13.501000,(-2 1 1 -2 -1 -1 -1 0)
1969/12/31/18:00:13.517000,(1 1 2 3 -1 1 -1 -2)
1969/12/31/18:00:13.517000,(0 -3 -1 0 -1 1 -1 0)
1969/12/31/18:00:13.518000,(1 1 1 2 1 0 0 0)
1969/12/31/18:00:13.518000,(-2 -5 -5 -1 -1 -2 -2 -3)
1969/12/31/18:00:13.531000,(0 1 2 -1 1 -1 -3 0)
1969/12/31/18:00:13.531000,(0 0 3 -1 -1 0 2 -1)
1969/12/31/18:00:13.540000,(-2 -4 -5 0 -1 0 -1 -2)
1969/12/31/18:00:13.540000,(0 1 -1 1 1 -3 1 2)
1969/12/31/18:00:13.554000,(-1 2 4 2 1 -1 -1 0)
1969/12/31/18:00:13.554000,(-2 1 1 0 -1 -2 -1 -2)
1969/12/31/18:00:13.561000,(-1 -1 1 4 1 0 0 -1)
1969/12/31/18:00:13.561000,(1 1 -1 -2 0 -1 0 0)
1969/12/31/18:00:13.577000,(-2 -2 -2 -1 -1 -1 -1 -2)
1969/12/31/18:00:13.577000,(0 -3 -1 0 -1 0 -2 -3)
1969/12/31/18:00:13.578000,(2 5 8 6 3 1 1 1)
1969/12/31/18:00:13.578000,(-3 -3 -4 -2 -1 -2 -1 -2)
1969/12/31/18:00:13.590000,(-2 -4 -5 -1 -2 -2 -1 -1)
1969/12/31/18:00:13.590000,(-1 0 -1 -3 -2 -2 -2 1)
1969/12/31/18:00:13.599000,(-1 -4 -5 -2 -2 -4 -3 0)
1969/12/31/18:00:13.599000,(-1 1 1 -2 0 0 0 0)
1969/12/31/18:00:13.614000,(-2 -3 -4 -2 -2 -2 -2 0)
1969/12/31/18:00:13.614000,(-2 -4 -6 -7 -5 -1 -2 -3)
1969/12/31/18:00:13.616000,(-1 2 -1 -2 -3 1 -1 0)
1969/12/31/18:00:13.616000,(3 4 8 6 7 4 3 2)
1969/12/31/18:00:13.637000,(1 1 1 1 0 1 0 -2)
1969/12/31/18:00:13.637000,(-2 -2 -3 -2 -1 -2 -1 0)
1969/12/31/18:00:13.638000,(-2 -1 0 -2 0 -4 -1 -2)
1969/12/31/18:00:13.638000,(0 -3 -4 -2 -4 -1 -2 -2)
1969/12/31/18:00:13.650000,(0 0 0 -2 -1 -2 -3 -2)
1969/12/31/18:00:13.650000,(-1 -1 2 1 -2 -1 0 -3)
1969/12/31/18:00:13.659000,(-2 -1 -1 3 6 0 -1 -1)
1969/12/31/18:00:13.659000,(-1 0 -3 -5 -1 -1 1 -1)
1969/12/31/18:00:13.674000,(1 0 4 4 1 0 0 -1)
1969/12/31/18:00:13.674000,(-2 -2 -1 1 0 0 0 2)
1969/12/31/18:00:13.676000,(3 2 3 -2 -1 0 1 2)
1969/12/31/18:00:13.676000,(-5 -7 -9 -5 -3 0 -4 -4)
1969/12/31/18:00:13.697000,(-3 -2 -3 -4 -4 -2 -2 -2)
1969/12/31/18:00:13.697000,(-2 -1 -2 -1 -2 -2 -2 -2)
1969/12/31/18:00:13.698000,(2 1 0 -1 -1 -1 0 2)
1969/12/31/18:00:13.698000,(2 0 2 -1 -2 -2 0 -1)
1969/12/31/18:00:13.710000,(-4 -2 -4 -5 -4 -4 -3 -2)
1969/12/31/18:00:13.710000,(0 -1 -2 -1 0 1 0 -2)
1969/12/31/18:00:13.710000,(-3 -4 -2 -1 -2 -3 -1 -3)
1969/12/31/18:00:13.710000,(-1 -3 -3 -2 -2 0 -1 0)
1969/12/31/18:00:13.711000,(-2 -3 -2 -3 -1 0 -1 -3)
1969/12/31/18:00:13.712000,(0 2 0 -2 -1 -4 -3 -1)
1969/12/31/18:00:13.724000,(-2 1 1 -1 -2 0 0 -1)
1969/12/31/18:00:13.724000,(-1 0 -2 0 1 -1 0 0)
1969/12/31/18:00:13.747000,(0 1 1 0 -2 0 0 -2)
1969/12/31/18:00:13.747000,(-1 -2 -2 -1 0 -2 -2 0)
1969/12/31/18:00:13.748000,(-2 -3 -3 -3 -3 -2 -2 -2)
1969/12/31/18:00:13.748000,(-2 -1 -5 -6 -4 -1 0 1)
1969/12/31/18:00:13.754000,(-1 -1 0 3 1 1 0 0)
1969/12/31/18:00:13.754000,(-1 0 0 2 1 -1 0 -1)
1969/12/31/18:00:13.770000,(0 0 3 3 1 0 -1 0)
1969/12/31/18:00:13.770000,(-2 -3 -4 -2 -3 -2 -1 -3)
1969/12/31/18:00:13.772000,(-1 -3 -2 -4 -4 -1 -2 -1)
1969/12/31/18:00:13.772000,(-2 -4 -4 -2 -2 -2 -2 -4)
1969/12/31/18:00:13.783000,(1 0 -2 0 -2 1 0 -1)
1969/12/31/18:00:13.783000,(0 1 1 -4 -3 -2 0 -1)
1969/12/31/18:00:13.793000,(-1 -1 -1 1 -1 -2 0 0)
1969/12/31/18:00:13.793000,(2 3 4 0 1 1 1 1)
1969/12/31/18:00:13.807000,(-2 -1 1 9 5 2 -1 -1)
1969/12/31/18:00:13.807000,(-3 -4 -5 -3 -2 0 -1 -1)
1969/12/31/18:00:13.814000,(-2 1 -1 -5 -3 -2 -4 0)
1969/12/31/18:00:13.814000,(-2 -5 -12 -11 -5 -1 -4 -2)
1969/12/31/18:00:13.830000,(0 4 -4 -4 1 9 1 -2)
1969/12/31/18:00:13.830000,(2 6 22 26 9 -18 -1 2)
1969/12/31/18:00:13.831000,(0 -5 -4 0 -1 -2 4 -1)
1969/12/31/18:00:13.831000,(-3 -4 -9 -22 -6 -4 -2 1)
1969/12/31/18:00:13.843000,(-4 -3 -6 6 -3 -15 -18 -8)
1969/12/31/18:00:13.843000,(-1 1 -3 10 5 7 -2 -3)
1969/12/31/18:00:13.852000,(-3 -3 14 -4 -4 4 14 1)
1969/12/31/18:00:13.852000,(-2 -6 -5 -9 -4 -1 -2 0)
1969/12/31/18:00:13.866000,(-9 -18 -42 -78 -28 -7 -1 -4)
1969/12/31/18:00:13.866000,(6 12 4 20 7 4 0 2)
1969/12/31/18:00:13.875000,(11 23 77 96 39 9 5 10)
1969/12/31/18:00:13.875000,(-2 -2 13 5 -3 5 5 2)
1969/12/31/18:00:13.890000,(-2 -6 -34 -11 -6 -4 2 0)
1969/12/31/18:00:13.890000,(-2 -1 27 -19 -7 -3 -5 -6)
1969/12/31/18:00:13.891000,(-4 -6 -32 -7 -2 -1 0 -5)
1969/12/31/18:00:13.891000,(-1 -4 -12 22 2 -3 0 6)
1969/12/31/18:00:13.903000,(6 3 23 -18 -8 -5 -4 0)
1969/12/31/18:00:13.903000,(0 -7 -22 -15 -4 1 2 1)
1969/12/31/18:00:13.913000,(-5 2 -14 -18 -7 -6 -9 -9)
1969/12/31/18:00:13.913000,(-4 -5 -4 0 3 -2 -1 -1)
1969/12/31/18:00:13.927000,(-14 -21 -20 -35 -15 -9 -5 -6)
1969/12/31/18:00:13.927000,(-2 -11 -88 -42 -9 3 4 5)
1969/12/31/18:00:13.933000,(17 39 107 94 29 15 0 7)
1969/12/31/18:00:13.933000,(3 1 -14 11 3 6 3 5)
1969/12/31/18:00:13.950000,(3 12 8 14 9 7 1 -2)
1969/12/31/18:00:13.950000,(-6 -14 -8 -3 -6 -7 -3 -6)
1969/12/31/18:00:13.951000,(-10 -20 -59 -71 -28 -15 -9 -5)
1969/12/31/18:00:13.951000,(-2 1 -21 -39 -4 -6 -2 -3)
1969/12/31/18:00:13.972000,(4 11 40 61 14 1 3 1)
1969/12/31/18:00:13.972000,(-3 -1 18 11 5 4 2 3)
1969/12/31/18:00:13.974000,(-9 -19 -49 -31 -13 -7 -8 -7)
1969/12/31/18:00:13.974000,(3 10 9 -29 -7 -5 -12 -11)
1969/12/31/18:00:13.987000,(2 -2 -2 11 2 2 2 4)
1969/12/31/18:00:13.987000,(-2 0 14 16 3 1 -3 -3)
1969/12/31/18:00:13.993000,(-1 -5 -23 -35 -9 -4 0 0)
1969/12/31/18:00:13.993000,(1 3 16 24 8 4 2 -1)
1969/12/31/18:00:14.017000,(2 -4 -1 -1 3 2 3 5)
1969/12/31/18:00:14.017000,(-2 2 14 9 0 -1 -3 -5)
1969/12/31/18:00:14.025000,(-4 -10 -24 -33 -22 -9 -1 2)
1969/12/31/18:00:14.025000,(2 6 6 16 19 8 -1 -5)
1969/12/31/18:00:14.032000,(-1 3 2 14 7 1 1 2)
1969/12/31/18:00:14.032000,(0 0 7 -2 0 1 2 4)
1969/12/31/18:00:14.034000,(0 -1 -6 -9 -2 -1 -2 -2)
1969/12/31/18:00:14.034000,(-3 -3 -1 2 -6 -4 1 2)
1969/12/31/18:00:14.047000,(1 3 12 11 3 0 1 -1)
1969/12/31/18:00:14.047000,(-1 -3 -7 -13 -4 -3 -6 -4)
1969/12/31/18:00:14.053000,(0 0 -5 -3 -1 0 -2 -1)
1969/12/31/18:00:14.053000,(1 4 7 10 -2 -2 -1 0)
1969/12/31/18:00:14.070000,(-5 2 -3 1 5 2 0 1)
1969/12/31/18:00:14.070000,(-1 -1 -2 -6 -6 -3 -1 -1)
1969/12/31/18:00:14.071000,(-1 -4 -1 8 4 1 0 0)
1969/12/31/18:00:14.071000,(-4 -15 -4 3 -2 -1 1 -2)
1969/12/31/18:00:14.093000,(-5 -10 -12 -6 -3 -1 1 -3)
1969/12/31/18:00:14.093000,(2 21 29 11 2 0 0 -1)
1969/12/31/18:00:14.107000,(-4 -7 1 2 1 1 -2 0)
1969/12/31/18:00:14.107000,(25 14 5 -2 -3 -1 1 6)
1969/12/31/18:00:14.108000,(-10 -9 1 0 -4 0 6 5)
1969/12/31/18:00:14.108000,(-15 -13 -5 3 0 -3 -8 -11)
1969/12/31/18:00:14.113000,(-17 -23 -7 -4 3 2 -4 -2)
1969/12/31/18:00:14.113000,(-12 10 3 0 -1 0 2 -5)
1969/12/31/18:00:14.130000,(37 11 2 6 2 0 0 4)
1969/12/31/18:00:14.130000,(-12 4 2 -1 1 2 3 1)
1969/12/31/18:00:14.131000,(6 -1 -3 -3 0 -2 -2 -8)
1969/12/31/18:00:14.131000,(8 -4 1 -1 1 2 6 16)
1969/12/31/18:00:14.152000,(-34 -3 10 6 5 -4 -17 -24)
1969/12/31/18:00:14.152000,(63 14 -10 -9 -6 -5 -1 16)
1969/12/31/18:00:14.159000,(-50 -11 -8 -3 -2 -5 -16 -35)
1969/12/31/18:00:14.159000,(9 12 13 9 4 5 9 13)
1969/12/31/18:00:14.166000,(-49 -24 -11 -10 -7 -5 -8 -21)
1969/12/31/18:00:14.166000,(21 15 4 4 2 4 10 17)
1969/12/31/18:00:14.175000,(20 1 0 -4 -4 -1 4 19)
1969/12/31/18:00:14.175000,(24 14 5 2 -2 -8 -8 -1)
1969/12/31/18:00:14.190000,(-13 -13 -7 -4 1 8 6 -2)
1969/12/31/18:00:14.190000,(3 3 -4 -4 -2 4 1 15)
1969/12/31/18:00:14.192000,(10 -2 -1 1 1 -1 -6 -29)
1969/12/31/18:00:14.192000,(9 8 4 0 2 10 5 34)
1969/12/31/18:00:14.212000,(-70 -46 -17 -11 -9 -13 -6 -23)
1969/12/31/18:00:14.212000,(74 32 12 6 4 -3 13 15)
1969/12/31/18:00:14.214000,(7 47 7 -2 0 11 -16 10)
1969/12/31/18:00:14.214000,(-25 -21 -8 -7 -6 -4 8 -7)
1969/12/31/18:00:14.235000,(-26 -19 -8 0 0 -17 -24 -37)
1969/12/31/18:00:14.235000,(-6 -13 -3 -1 0 4 12 6)
1969/12/31/18:00:14.237000,(16 4 10 6 -1 -29 -16 -4)
1969/12/31/18:00:14.237000,(26 14 -5 -5 -3 23 2 18)
1969/12/31/18:00:14.250000,(-16 12 1 2 1 3 15 16)
1969/12/31/18:00:14.250000,(-93 -84 -32 -15 -16 -43 -13 -89)
1969/12/31/18:00:14.251000,(-56 -12 -4 -1 0 20 -21 1)
1969/12/31/18:00:14.251000,(9 4 -10 -8 -13 -30 -1 -31)
1969/12/31/18:00:14.273000,(57 35 12 1 3 21 20 23)
1969/12/31/18:00:14.273000,(-41 20 20 9 9 11 13 16)
1969/12/31/18:00:14.274000,(-10 -37 -26 -11 -7 -8 -4 -56)
1969/12/31/18:00:14.274000,(-52 -52 -16 -8 -4 -2 -16 14)
1969/12/31/18:00:14.286000,(35 35 15 6 3 -5 4 11)
1969/12/31/18:00:14.286000,(-25 5 -3 -2 -3 6 2 -5)
1969/12/31/18:00:14.295000,(41 -6 5 1 2 9 38 72)
1969/12/31/18:00:14.295000,(3 47 8 6 -2 -29 -29 -52)
1969/12/31/18:00:14.310000,(52 -12 -8 -5 6 46 56 39)
1969/12/31/18:00:14.310000,(1 1 1 -1 -2 -17 -26 16)
1969/12/31/18:00:14.312000,(2 18 14 12 10 10 27 -1)
1969/12/31/18:00:14.312000,(1 -21 -14 -7 -5 -19 3 10)
1969/12/31/18:00:14.332000,(65 43 16 7 8 14 -17 -13)
1969/12/31/18:00:14.332000,(-6 -31 -7 -1 1 7 19 -10)
1969/12/31/18:00:14.334000,(-37 -9 -3 -4 -7 -3 -8 -6)
1969/12/31/18:00:14.334000,(43 -6 -11 -7 -7 -9 -15 -11)
1969/12/31/18:00:14.346000,(17 24 9 2 -3 -23 17 9)
1969/12/31/18:00:14.346000,(6 -7 -2 -2 -1 20 3 22)
1969/12/31/18:00:14.355000,(-12 -9 0 3 1 -8 -3 -29)
1969/12/31/18:00:14.355000,(-16 -9 2 1 0 -3 24 41)
1969/12/31/18:00:14.370000,(34 20 17 11 10 17 -13 43)
1969/12/31/18:00:14.370000,(18 9 -10 -14 -15 -30 3 -11)
1969/12/31/18:00:14.371000,(20 12 1 2 6 9 8 44)
1969/12/31/18:00:14.371000,(-12 -8 8 7 1 14 4 -15)
1969/12/31/18:00:14.392000,(-53 -18 -3 6 6 -22 -12 -36)
1969/12/31/18:00:14.392000,(1 24 2 0 5 37 -23 -49)
1969/12/31/18:00:14.394000,(-57 -16 0 0 -5 -26 -5 -56)
1969/12/31/18:00:14.394000,(33 -7 -14 -11 -3 12 -3 -34)
1969/12/31/18:00:14.406000,(-36 -22 -12 -12 -20 -38 -60 -70)
1969/12/31/18:00:14.406000,(-37 -16 -5 -2 6 26 7 -4)
1969/12/31/18:00:14.415000,(0 25 12 4 1 -1 32 24)
1969/12/31/18:00:14.415000,(16 0 10 9 9 -9 -45 -31)
1969/12/31/18:00:14.430000,(-3 -13 -16 -10 -12 -5 22 4)
1969/12/31/18:00:14.430000,(20 3 5 5 4 -2 4 36)
1969/12/31/18:00:14.431000,(40 9 -5 -7 -4 7 -19 -12)
1969/12/31/18:00:14.431000,(-34 -1 8 1 -2 -9 17 17)
1969/12/31/18:00:14.452000,(76 31 9 5 4 12 11 63)
1969/12/31/18:00:14.452000,(-68 -21 -6 -2 -4 -19 -20 -3)
1969/12/31/18:00:14.454000,(61 10 -2 -4 -2 -3 -17 -47)
1969/12/31/18:00:14.454000,(-19 0 -2 -1 -1 -9 -6 -18)
1969/12/31/18:00:14.466000,(2 -1 1 1 10 49 34 2)
1969/12/31/18:00:14.466000,(-37 -10 -4 -2 0 -9 -13 4)
1969/12/31/18:00:14.475000,(-30 -30 -10 -5 -6 20 -10 29)
1969/12/31/18:00:14.475000,(-32 5 7 7 7 -25 -41 10)
1969/12/31/18:00:14.489000,(6 21 11 6 5 12 40 -16)
1969/12/31/18:00:14.489000,(5 -1 2 2 2 -5 24 38)
1969/12/31/18:00:14.497000,(40 0 -8 -7 -4 -7 -19 -2)
1969/12/31/18:00:14.497000,(-62 16 16 12 12 25 27 2)
1969/12/31/18:00:14.513000,(-93 -72 -31 -18 -18 -27 -36 -61)
1969/12/31/18:00:14.513000,(3 3 1 -1 1 9 -6 -27)
1969/12/31/18:00:14.514000,(2 -4 -4 -2 -2 -12 13 39)
1969/12/31/18:00:14.514000,(45 11 4 6 6 25 27 23)
1969/12/31/18:00:14.526000,(43 15 9 8 3 -21 7 66)
1969/12/31/18:00:14.526000,(48 18 -2 -4 -6 -21 -15 -13)
1969/12/31/18:00:14.535000,(-4 -8 -3 1 2 6 -44 -20)
1969/12/31/18:00:14.535000,(-1 -9 -4 -4 -5 3 17 27)
1969/12/31/18:00:14.550000,(4 15 5 2 2 4 3 -3)
1969/12/31/18:00:14.550000,(46 21 11 4 0 -19 -12 4)
1969/12/31/18:00:14.551000,(-64 -20 -2 2 6 23 44 5)
1969/12/31/18:00:14.551000,(-11 -21 -17 -13 -10 -18 -31 -48)
1969/12/31/18:00:14.573000,(-24 -3 -2 -4 -5 8 -36 -11)
1969/12/31/18:00:14.573000,(6 -1 4 0 -3 5 19 25)
1969/12/31/18:00:14.574000,(-31 0 -3 -5 -3 -16 -1 -33)
1969/12/31/18:00:14.574000,(-24 1 6 6 1 -14 -1 8)
1969/12/31/18:00:14.586000,(-3 -2 -2 -1 4 26 4 12)
1969/12/31/18:00:14.586000,(28 21 0 -8 -11 -11 -18 -31)
1969/12/31/18:00:14.595000,(-14 1 6 6 9 28 18 18)
1969/12/31/18:00:14.595000,(-14 -5 -8 -6 -12 -27 -11 -64)
1969/12/31/18:00:14.610000,(75 2 -1 0 -1 -32 6 71)
1969/12/31/18:00:14.610000,(-16 9 7 6 17 51 58 52)
1969/12/31/18:00:14.611000,(-1 -14 2 3 -8 -25 -17 -24)
1969/12/31/18:00:14.611000,(-40 -10 -7 -5 -3 18 5 -33)
1969/12/31/18:00:14.633000,(46 20 -1 -3 -11 -17 15 58)
1969/12/31/18:00:14.633000,(-25 -30 -6 1 10 -9 17 -21)
1969/12/31/18:00:14.634000,(31 21 2 -3 12 30 13 35)
1969/12/31/18:00:14.634000,(25 16 1 9 9 -14 -17 10)
1969/12/31/18:00:14.646000,(-53 -27 0 -6 -15 -7 18 -42)
1969/12/31/18:00:14.646000,(2 4 -8 -23 -13 5 -15 3)
1969/12/31/18:00:14.655000,(2 -3 -2 -5 -20 -34 -12 -5)
1969/12/31/18:00:14.655000,(7 4 2 -3 15 44 3 9)
1969/12/31/18:00:14.669000,(-48 -21 -13 -3 4 -2 -11 -25)
1969/12/31/18:00:14.669000,(34 22 14 15 14 8 0 11)
1969/12/31/18:00:14.676000,(-16 5 3 -2 -13 -10 -2 0)
1969/12/31/18:00:14.676000,(-2 -17 -7 -1 -5 -17 22 -3)
1969/12/31/18:00:14.692000,(-22 20 9 12 19 18 -6 -23)
1969/12/31/18:00:14.693000,(6 -26 -6 -3 -19 0 15 59)
1969/12/31/18:00:14.694000,(35 -1 -15 -8 8 3 -2 43)
1969/12/31/18:00:14.694000,(19 9 5 -2 -7 21 12 16)
1969/12/31/18:00:14.706000,(-35 7 7 10 17 -16 -9 -41)
1969/12/31/18:00:14.706000,(-4 -21 -16 -9 -16 9 -20 -12)
1969/12/31/18:00:14.715000,(-25 -2 2 3 -14 -35 -8 -20)
1969/12/31/18:00:14.715000,(27 3 -11 -24 -6 14 2 16)
1969/12/31/18:00:14.730000,(8 14 8 -2 -7 -6 -18 -4)
1969/12/31/18:00:14.730000,(1 -7 1 7 3 -18 8 10)
1969/12/31/18:00:14.731000,(-7 -36 -15 -3 11 15 12 9)
1969/12/31/18:00:14.731000,(-4 0 -1 2 7 4 -10 0)
1969/12/31/18:00:14.752000,(-27 1 6 0 -10 -17 -19 -59)
1969/12/31/18:00:14.752000,(25 -16 -14 4 10 -1 -22 -22)
1969/12/31/18:00:14.753000,(11 18 -8 -7 -9 -2 12 -2)
1969/12/31/18:00:14.753000,(-1 8 26 6 -3 12 2 12)
1969/12/31/18:00:14.774000,(-2 15 22 11 10 2 -3 8)
1969/12/31/18:00:14.774000,(6 34 23 9 1 -3 -1 -14)
1969/12/31/18:00:14.775000,(-10 -92 -65 -23 -7 -3 -10 5)
1969/12/31/18:00:14.775000,(4 -6 -42 -8 10 4 24 42)
1969/12/31/18:00:14.789000,(23 87 80 46 -2 -6 -7 -1)
1969/12/31/18:00:14.789000,(-26 -59 -40 -8 4 16 -1 -18)
1969/12/31/18:00:14.790000,(-17 10 -11 -3 9 3 -14 -32)
1969/12/31/18:00:14.790000,(5 -3 -27 -26 -28 0 25 38)
1969/12/31/18:00:14.812000,(-42 -3 13 0 23 21 -30 -38)
1969/12/31/18:00:14.812000,(-38 -4 -4 -5 -8 -11 -11 -2)
1969/12/31/18:00:14.812000,(3 -3 26 17 29 23 21 -18)
1969/12/31/18:00:14.812000,(4 14 -22 -16 -20 -20 -10 -11)
1969/12/31/18:00:14.834000,(24 41 17 -5 0 -1 -6 7)
1969/12/31/18:00:14.834000,(-40 57 50 17 -7 -10 -17 -55)
1969/12/31/18:00:14.835000,(34 -43 -24 -12 -11 -13 -2 45)
1969/12/31/18:00:14.835000,(7 -29 -13 7 15 18 -14 -49)
1969/12/31/18:00:14.857000,(7 -128 -121 -47 -37 -45 7 41)
1969/12/31/18:00:14.858000,(23 -84 -115 -51 -3 26 -29 -30)
1969/12/31/18:00:14.858000,(9 112 80 24 -7 -19 -2 -17)
1969/12/31/18:00:14.858000,(-31 -9 48 28 34 27 7 13)
1969/12/31/18:00:14.871000,(-13 58 35 3 -22 -29 -15 -22)
1969/12/31/18:00:14.872000,(-14 4 56 23 -2 -41 -40 -54)
1969/12/31/18:00:14.872000,(-30 -78 -94 -25 -15 20 15 31)
1969/12/31/18:00:14.872000,(-15 43 17 7 -5 -8 -22 -49)
1969/12/31/18:00:14.894000,(4 -13 -46 -18 -10 -27 1 -14)
1969/12/31/18:00:14.894000,(-62 29 36 27 29 35 36 0)
1969/12/31/18:00:14.895000,(44 51 59 12 4 10 -7 -8)
1969/12/31/18:00:14.895000,(28 52 66 17 3 -1 0 6)
1969/12/31/18:00:14.909000,(9 -51 -62 -13 8 20 -3 -33)
1969/12/31/18:00:14.909000,(0 -51 -83 -40 -37 -28 -5 -9)
1969/12/31/18:00:14.910000,(-23 97 65 26 10 -7 1 4)
1969/12/31/18:00:14.910000,(15 10 24 4 -9 -3 3 -9)
1969/12/31/18:00:14.932000,(23 -11 -4 9 28 17 23 26)
1969/12/31/18:00:14.932000,(27 -48 -11 -2 2 5 6 52)
1969/12/31/18:00:14.932000,(-35 -60 -42 -22 -10 -16 -27 -28)
1969/12/31/18:00:14.932000,(-2 -107 -128 -55 -21 -11 -10 13)
1969/12/31/18:00:14.954000,(29 109 125 60 26 6 -9 -2)
1969/12/31/18:00:14.954000,(13 -78 -18 -6 -14 3 30 29)
1969/12/31/18:00:14.955000,(-10 58 8 -1 -3 15 22 41)
1969/12/31/18:00:14.955000,(-20 -20 5 25 25 10 11 3)
1969/12/31/18:00:14.969000,(-19 -73 -41 -20 -27 4 12 29)
1969/12/31/18:00:14.969000,(-45 -12 -32 -25 -19 -26 -36 -90)
1969/12/31/18:00:14.970000,(9 -1 -7 -10 6 6 17 6)
1969/12/31/18:00:14.970000,(-32 -24 18 17 10 -5 -14 -18)
1969/12/31/18:00:14.992000,(9 -53 -102 -51 -19 -11 5 92)
1969/12/31/18:00:14.992000,(44 127 127 68 28 28 21 46)
1969/12/31/18:00:14.993000,(8 36 31 13 -3 -3 -6 4)
1969/12/31/18:00:14.993000,(8 -9 -19 10 10 -12 23 56)
1969/12/31/18:00:15.014000,(-24 -69 -52 -34 -31 -5 -39 -63)
1969/12/31/18:00:15.014000,(-10 29 37 9 15 0 -1 13)
1969/12/31/18:00:15.015000,(20 -80 -65 -17 -9 -7 -4 2)
1969/12/31/18:00:15.015000,(-23 -37 -54 -23 -16 -18 -5 -7)
1969/12/31/18:00:15.029000,(54 102 86 57 8 21 23 68)
1969/12/31/18:00:15.029000,(3 -107 -111 -14 17 5 -7 33)
1969/12/31/18:00:15.030000,(-9 -54 -51 -1 -17 10 34 45)
1969/12/31/18:00:15.030000,(19 76 24 -6 -29 -35 -38 -59)
1969/12/31/18:00:15.052000,(-8 -5 -6 -11 8 26 24 16)
1969/12/31/18:00:15.052000,(-8 -32 -40 -18 -3 -5 0 -40)
1969/12/31/18:00:15.052000,(37 36 -15 -9 1 -24 -45 3)
1969/12/31/18:00:15.052000,(20 32 44 36 7 -8 8 45)
1969/12/31/18:00:15.074000,(-18 -49 -59 -17 -2 9 7 0)
1969/12/31/18:00:15.074000,(28 101 82 41 13 6 20 30)
1969/12/31/18:00:15.075000,(-15 -121 -89 -42 -13 3 -24 -54)
1969/12/31/18:00:15.075000,(23 86 63 10 8 16 21 29)
1969/12/31/18:00:15.089000,(-41 -12 13 -6 -11 -24 -20 -47)
1969/12/31/18:00:15.089000,(2 -55 -46 -15 4 14 9 -10)
1969/12/31/18:00:15.090000,(-11 -28 2 19 25 -2 2 0)
1969/12/31/18:00:15.090000,(-11 54 15 -8 -27 6 -31 -74)
1969/12/31/18:00:15.112000,(17 -52 -11 2 29 21 24 45)
1969/12/31/18:00:15.112000,(9 98 47 -11 -33 -17 0 -6)
1969/12/31/18:00:15.113000,(23 14 41 18 1 -18 -7 1)
1969/12/31/18:00:15.113000,(-12 58 66 41 26 11 -9 -19)
1969/12/31/18:00:15.134000,(15 -96 -96 -32 -31 -44 -23 -55)
1969/12/31/18:00:15.134000,(-6 -59 -113 -49 0 24 -2 16)
1969/12/31/18:00:15.135000,(3 105 102 43 23 25 16 -37)
1969/12/31/18:00:15.135000,(-22 -105 -62 -9 2 -2 -2 31)
1969/12/31/18:00:15.148000,(-17 -52 -37 -33 -37 -30 -33 -64)
1969/12/31/18:00:15.148000,(-27 -4 17 11 11 -23 0 0)
1969/12/31/18:00:15.157000,(-23 -10 -35 -27 -44 -20 -9 -36)
1969/12/31/18:00:15.157000,(-18 -128 -118 -41 8 9 12 15)
1969/12/31/18:00:15.172000,(18 127 127 91 68 42 15 17)
1969/12/31/18:00:15.172000,(-12 -50 -19 -1 -35 -25 -20 -21)
1969/12/31/18:00:15.173000,(-18 -83 -80 -15 5 -5 -5 -27)
1969/12/31/18:00:15.173000,(42 75 75 9 -12 9 22 44)
1969/12/31/18:00:15.194000,(-12 -4 5 -6 13 24 19 12)
1969/12/31/18:00:15.194000,(17 -54 -35 -3 12 -6 -12 19)
1969/12/31/18:00:15.195000,(41 100 44 12 -6 1 3 43)
1969/12/31/18:00:15.195000,(-40 -23 -9 12 9 -31 -17 -36)
1969/12/31/18:00:15.209000,(-13 4 -5 -27 -24 40 0 -20)
1969/12/31/18:00:15.209000,(13 -7 22 3 6 1 21 21)
1969/12/31/18:00:15.210000,(-57 -80 -63 -27 -14 -38 -36 -4)
1969/12/31/18:00:15.210000,(1 -53 -49 -25 -14 -9 -11 -39)
1969/12/31/18:00:15.232000,(-1 30 8 5 11 4 6 35)
1969/12/31/18:00:15.232000,(-5 34 17 15 12 2 -4 -4)
1969/12/31/18:00:15.232000,(29 13 10 -9 -25 0 10 -2)
1969/12/31/18:00:15.232000,(-18 18 12 5 -4 -7 -8 -7)
1969/12/31/18:00:15.256000,(-3 -94 -62 -19 -26 -40 -19 7)
1969/12/31/18:00:15.256000,(6 22 -19 -17 -14 3 6 5)
1969/12/31/18:00:15.256000,(6 81 93 31 14 4 11 -20)
1969/12/31/18:00:15.256000,(37 15 -18 -9 -10 2 -14 -1)
1969/12/31/18:00:15.269000,(-7 69 72 20 7 -28 -23 -3)
1969/12/31/18:00:15.269000,(-5 -10 -7 4 16 40 9 6)
1969/12/31/18:00:15.270000,(-11 -49 -24 1 7 -3 -1 16)
1969/12/31/18:00:15.270000,(-6 -51 -20 -7 -25 -4 8 6)
1969/12/31/18:00:15.292000,(0 -12 -22 -2 7 0 -5 -8)
1969/12/31/18:00:15.292000,(-12 66 86 26 2 -25 -8 -21)
1969/12/31/18:00:15.293000,(38 14 5 -1 19 13 1 -5)
1969/12/31/18:00:15.293000,(-8 -81 -60 -25 3 31 22 49)
1969/12/31/18:00:15.314000,(-15 82 64 14 -4 -6 4 -3)
1969/12/31/18:00:15.314000,(-11 -21 -2 -3 -5 -8 -6 6)
1969/12/31/18:00:15.315000,(-13 -32 -50 -16 -11 -5 -4 -8)
1969/12/31/18:00:15.315000,(-19 -29 -1 14 21 -10 3 11)
1969/12/31/18:00:15.329000,(-5 -48 -58 -35 -32 -5 -23 -80)
1969/12/31/18:00:15.329000,(38 92 79 21 0 -1 23 23)
1969/12/31/18:00:15.330000,(-10 -46 7 14 4 5 8 22)
1969/12/31/18:00:15.330000,(12 -46 -60 -28 -13 -31 -16 21)
1969/12/31/18:00:15.352000,(-25 58 70 48 36 34 6 -28)
1969/12/31/18:00:15.352000,(-56 -76 -70 -33 -28 -18 -5 -21)
1969/12/31/18:00:15.352000,(42 12 -4 2 18 18 7 7)
1969/12/31/18:00:15.352000,(40 44 45 9 17 10 21 33)
1969/12/31/18:00:15.374000,(-21 -128 -105 -34 -14 -3 0 21)
1969/12/31/18:00:15.374000,(20 77 7 8 4 -10 -7 -14)
1969/12/31/18:00:15.375000,(-5 47 72 21 6 3 -4 0)
1969/12/31/18:00:15.375000,(38 27 5 2 7 25 11 25)
1969/12/31/18:00:15.389000,(-12 -34 -33 -19 -8 7 28 32)
1969/12/31/18:00:15.389000,(65 -38 -26 -1 4 9 -4 24)
1969/12/31/18:00:15.390000,(-49 -34 -32 -18 -5 -15 -3 -46)
1969/12/31/18:00:15.390000,(-30 -21 -44 -18 -19 -21 -13 -31)
1969/12/31/18:00:15.412000,(34 67 86 30 16 9 0 -10)
1969/12/31/18:00:15.412000,(-39 4 -3 2 6 23 11 20)
1969/12/31/18:00:15.413000,(18 27 18 4 -4 -11 -12 -33)
1969/12/31/18:00:15.413000,(-49 -102 -54 -22 -23 -22 -7 -38)
1969/12/31/18:00:15.434000,(12 5 -31 -14 4 6 8 33)
1969/12/31/18:00:15.434000,(-5 -10 -10 1 7 -2 -12 -7)
1969/12/31/18:00:15.435000,(-15 3 8 10 1 -4 -1 -9)
1969/12/31/18:00:15.435000,(11 42 2 -8 -7 12 1 -3)
1969/12/31/18:00:15.449000,(-16 43 59 37 36 22 8 7)
1969/12/31/18:00:15.449000,(8 -5 0 1 -25 -40 -34 -76)
1969/12/31/18:00:15.450000,(11 -16 -13 -3 11 16 -7 -7)
1969/12/31/18:00:15.450000,(-27 -34 -5 1 5 13 -5 -21)
1969/12/31/18:00:15.472000,(-14 -52 -52 -20 -20 -36 -10 -9)
1969/12/31/18:00:15.472000,(26 29 34 3 8 0 -7 36)
1969/12/31/18:00:15.472000,(-21 3 -4 -8 -7 2 2 3)
1969/12/31/18:00:15.472000,(6 21 24 12 14 -5 2 -28)
1969/12/31/18:00:15.494000,(-16 25 14 -2 -16 5 -10 -46)
1969/12/31/18:00:15.494000,(-4 -25 -2 2 12 18 16 -8)
1969/12/31/18:00:15.495000,(-6 -116 -100 -34 -17 -10 -8 21)
1969/12/31/18:00:15.495000,(43 127 116 39 23 24 14 50)
1969/12/31/18:00:15.509000,(-16 -41 -28 -4 -3 -19 -1 22)
1969/12/31/18:00:15.509000,(-15 -29 -30 -11 -6 -9 -17 -25)
1969/12/31/18:00:15.517000,(10 18 17 4 11 36 34 73)
1969/12/31/18:00:15.517000,(-1 -67 -46 0 14 -16 -19 -21)
1969/12/31/18:00:15.532000,(6 -23 -24 -24 -25 4 14 37)
1969/12/31/18:00:15.532000,(15 52 31 5 -8 -14 0 -8)
1969/12/31/18:00:15.532000,(-40 -57 -56 -11 25 2 8 8)
1969/12/31/18:00:15.532000,(12 124 109 26 -23 4 31 50)
1969/12/31/18:00:15.554000,(52 28 2 1 -8 -6 -22 -2)
1969/12/31/18:00:15.554000,(-38 -98 -55 -16 -7 -12 -10 -18)
1969/12/31/18:00:15.555000,(-10 30 -16 -14 -8 2 0 15)
1969/12/31/18:00:15.555000,(32 15 38 27 23 4 6 33)
1969/12/31/18:00:15.577000,(-11 -63 -42 -11 -5 -13 -12 -62)
1969/12/31/18:00:15.577000,(-3 -68 -47 -19 -14 15 7 10)
1969/12/31/18:00:15.578000,(29 103 45 13 -3 -25 -5 11)
1969/12/31/18:00:15.578000,(-65 24 17 1 -13 -13 -9 -44)
1969/12/31/18:00:15.592000,(18 35 20 6 4 14 15 10)
1969/12/31/18:00:15.592000,(5 -75 -45 -7 12 3 -38 -22)
1969/12/31/18:00:15.593000,(53 24 37 13 -2 -5 2 25)
1969/12/31/18:00:15.593000,(-50 -106 -86 -43 -26 -7 -1 -15)
1969/12/31/18:00:15.614000,(6 83 60 22 -3 -7 16 13)
1969/12/31/18:00:15.614000,(-9 27 9 8 16 6 7 15)
1969/12/31/18:00:15.615000,(58 0 -7 -6 -15 -2 -23 -35)
1969/12/31/18:00:15.615000,(21 52 32 5 4 0 16 46)
1969/12/31/18:00:15.628000,(-3 -17 3 10 23 -3 -6 8)
1969/12/31/18:00:15.628000,(29 2 -7 -9 -44 -24 4 44)
1969/12/31/18:00:15.637000,(-18 -6 8 -9 -10 -12 -13 -2)
1969/12/31/18:00:15.637000,(-34 -75 -56 -19 5 20 -6 -29)
1969/12/31/18:00:15.652000,(-14 -51 -48 -23 -13 -24 -9 -8)
1969/12/31/18:00:15.652000,(13 84 72 20 8 9 12 26)
1969/12/31/18:00:15.652000,(-20 37 43 26 1 -7 10 -4)
1969/12/31/18:00:15.652000,(6 -27 -20 -6 -2 -6 -27 -73)
1969/12/31/18:00:15.674000,(-16 -75 -58 -17 23 14 -3 17)
1969/12/31/18:00:15.674000,(8 61 39 0 -22 -5 0 9)
1969/12/31/18:00:15.675000,(14 66 67 26 12 13 10 -8)
1969/12/31/18:00:15.675000,(-11 -60 -43 -10 -10 9 -1 2)
1969/12/31/18:00:15.689000,(6 68 61 19 9 -4 -2 -18)
1969/12/31/18:00:15.689000,(-10 -47 -45 -7 10 0 3 2)
1969/12/31/18:00:15.697000,(38 -35 -33 -12 -4 0 7 44)
1969/12/31/18:00:15.697000,(-8 -20 -4 2 -1 -9 -3 9)
1969/12/31/18:00:15.712000,(-19 20 3 0 -1 -1 -5 -14)
1969/12/31/18:00:15.712000,(12 -14 -47 -11 8 13 2 -10)
1969/12/31/18:00:15.713000,(-9 78 108 45 11 10 12 9)
1969/12/31/18:00:15.713000,(-33 -7 -34 -20 -17 -11 -35 -103)
1969/12/31/18:00:15.734000,(-15 -16 3 6 0 2 -8 8)
1969/12/31/18:00:15.734000,(38 -24 -7 -2 2 -19 15 38)
1969/12/31/18:00:15.735000,(-5 -37 -42 -10 15 23 -7 -19)
1969/12/31/18:00:15.735000,(17 -42 -20 -7 -4 -12 -1 36)
1969/12/31/18:00:15.748000,(21 -43 -54 -23 -18 27 34 93)
1969/12/31/18:00:15.749000,(-3 111 68 25 4 4 25 21)
1969/12/31/18:00:15.757000,(22 -20 -20 -3 -8 -22 -12 -9)
1969/12/31/18:00:15.757000,(2 6 9 7 10 8 1 10)
1969/12/31/18:00:15.772000,(3 -45 -48 -15 -3 -28 -1 -14)
1969/12/31/18:00:15.772000,(-70 -81 -34 -10 -9 5 -16 -65)
1969/12/31/18:00:15.772000,(11 34 11 1 -7 -8 25 67)
1969/12/31/18:00:15.772000,(12 26 39 12 3 -2 -11 -27)
1969/12/31/18:00:15.794000,(-23 0 -6 -1 13 26 13 10)
1969/12/31/18:00:15.794000,(16 -24 -31 -14 3 -31 -18 -6)
1969/12/31/18:00:15.795000,(-57 -42 -21 -18 -30 6 -1 -37)
1969/12/31/18:00:15.795000,(43 80 45 14 25 10 42 97)
1969/12/31/18:00:15.808000,(-20 14 38 11 -5 10 3 -68)
1969/12/31/18:00:15.808000,(-58 -22 -5 -10 -7 -30 -20 -46)
1969/12/31/18:00:15.817000,(6 -56 -66 -23 -4 0 -2 8)
1969/12/31/18:00:15.817000,(-34 7 34 24 13 18 22 24)
1969/12/31/18:00:15.832000,(45 -18 -30 -18 -16 -6 9 57)
1969/12/31/18:00:15.832000,(-34 42 50 16 5 7 -1 -9)
1969/12/31/18:00:15.832000,(-9 -68 -55 -21 -6 -20 -10 -22)
1969/12/31/18:00:15.832000,(-25 -99 -90 -35 -16 17 0 -6)
1969/12/31/18:00:15.854000,(45 122 115 42 10 -20 -36 -6)
1969/12/31/18:00:15.854000,(39 -35 6 1 13 31 16 22)
1969/12/31/18:00:15.855000,(-3 -29 -10 -2 -18 -41 -32 -5)
1969/12/31/18:00:15.855000,(-61 -9 3 10 22 15 7 -56)
1969/12/31/18:00:15.877000,(-68 -43 -51 -17 -30 0 -6 -36)
1969/12/31/18:00:15.878000,(38 47 35 9 2 3 -4 -3)
1969/12/31/18:00:15.878000,(-9 6 22 17 39 35 18 17)
1969/12/31/18:00:15.878000,(25 3 -30 -25 -13 26 4 -10)
1969/12/31/18:00:15.892000,(-15 -22 -22 4 11 4 1 -16)
1969/12/31/18:00:15.892000,(27 70 50 8 -3 -5 -5 20)
1969/12/31/18:00:15.892000,(67 14 -11 -6 -6 -5 13 60)
1969/12/31/18:00:15.892000,(13 29 19 12 2 -20 -25 -30)
1969/12/31/18:00:15.914000,(3 -47 -27 -12 -6 -6 -2 -2)
1969/12/31/18:00:15.914000,(-12 -57 -58 -15 -2 6 8 -3)
1969/12/31/18:00:15.915000,(-16 60 48 10 7 5 -10 -26)
1969/12/31/18:00:15.915000,(24 27 27 12 -3 -13 6 49)
1969/12/31/18:00:15.937000,(-7 49 30 14 4 0 -2 -2)
1969/12/31/18:00:15.937000,(9 -51 -29 -8 -11 -18 -11 -9)
1969/12/31/18:00:15.938000,(-50 -38 -24 -8 -2 17 -2 -40)
1969/12/31/18:00:15.938000,(10 -1 -20 -15 -15 -6 -3 -2)
1969/12/31/18:00:15.952000,(-29 -90 -45 -11 0 -8 -9 -32)
1969/12/31/18:00:15.952000,(-2 76 21 4 -2 -16 -10 7)
1969/12/31/18:00:15.952000,(-1 -3 8 9 6 19 4 2)
1969/12/31/18:00:15.952000,(6 -14 -9 -3 -16 -58 2 0)
1969/12/31/18:00:15.974000,(32 24 16 8 15 25 -17 27)
1969/12/31/18:00:15.974000,(-3 -53 -37 -15 -3 29 -20 -4)
1969/12/31/18:00:15.975000,(-32 -13 -14 -14 -4 8 -8 -37)
1969/12/31/18:00:15.975000,(21 16 7 1 -13 -10 -41 -36)
1969/12/31/18:00:15.998000,(7 20 1 -7 -12 -24 -10 19)
1969/12/31/18:00:15.998000,(-10 -19 -6 2 6 25 37 -13)
1969/12/31/18:00:15.999000,(-14 11 14 4 4 6 5 -8)
1969/12/31/18:00:15.999000,(22 21 10 2 2 -9 -26 7)
1969/12/31/18:00:16.012000,(12 1 2 -2 -7 -3 23 1)
1969/12/31/18:00:16.012000,(-69 -18 -8 -2 1 -7 -46 -58)
1969/12/31/18:00:16.012000,(-15 -12 -2 7 6 21 93 11)
1969/12/31/18:00:16.012000,(-7 -3 -9 -5 -5 -56 -77 -40)
1969/12/31/18:00:16.034000,(-8 25 19 7 10 52 54 -4)
1969/12/31/18:00:16.034000,(45 9 7 1 -12 -15 66 64)
1969/12/31/18:00:16.035000,(6 -14 -10 1 5 27 -35 2)
1969/12/31/18:00:16.035000,(-15 16 4 -5 -14 -12 -3 -19)
1969/12/31/18:00:16.057000,(22 -15 -6 -4 2 -8 -12 13)
1969/12/31/18:00:16.057000,(-42 -19 -4 3 3 8 6 -50)
1969/12/31/18:00:16.058000,(-10 -35 -27 -18 -16 -29 -4 20)
1969/12/31/18:00:16.058000,(31 2 3 -2 4 36 46 38)
1969/12/31/18:00:16.072000,(5 10 7 -4 -3 -8 -22 -7)
1969/12/31/18:00:16.072000,(23 7 -9 -8 -5 -13 3 7)
1969/12/31/18:00:16.072000,(-31 -14 -5 0 -3 -12 -6 0)
1969/12/31/18:00:16.073000,(-1 -3 7 5 5 -4 1 12)
1969/12/31/18:00:16.095000,(29 34 7 2 -2 -17 15 5)
1969/12/31/18:00:16.095000,(3 -28 -11 -10 -11 -37 -33 -8)
1969/12/31/18:00:16.096000,(-31 9 4 1 3 12 46 -19)
1969/12/31/18:00:16.096000,(-44 -20 -8 -1 11 45 -54 -50)
1969/12/31/18:00:16.118000,(59 10 -3 0 -11 -36 29 27)
1969/12/31/18:00:16.118000,(-47 15 3 -1 2 17 11 -27)
1969/12/31/18:00:16.118000,(10 -15 6 4 -4 -27 -49 -37)
1969/12/31/18:00:16.118000,(26 40 15 7 5 21 46 9)
1969/12/31/18:00:16.132000,(-27 -30 -13 -12 -9 -10 -32 -38)
1969/12/31/18:00:16.132000,(73 13 5 8 5 7 -7 54)
1969/12/31/18:00:16.132000,(32 41 16 9 3 -7 17 6)
1969/12/31/18:00:16.132000,(36 0 -15 -7 -6 -5 9 18)
1969/12/31/18:00:16.154000,(-93 -30 -8 -11 -6 -17 -35 -61)
1969/12/31/18:00:16.154000,(-12 0 10 10 11 8 20 41)
1969/12/31/18:00:16.162000,(-26 -17 -6 -4 -5 -3 -21 -22)
1969/12/31/18:00:16.162000,(17 31 16 9 6 5 33 33)
1969/12/31/18:00:16.176000,(68 3 -11 -10 -11 -4 7 61)
1969/12/31/18:00:16.177000,(-54 -27 -11 -6 -6 -15 -30 -14)
1969/12/31/18:00:16.184000,(4 -5 -2 1 -2 6 6 14)
1969/12/31/18:00:16.184000,(-10 1 5 4 1 3 6 7)
1969/12/31/18:00:16.192000,(-88 -38 -1 6 8 13 -3 -38)
1969/12/31/18:00:16.192000,(-22 0 -19 -17 -16 -17 -36 -69)
1969/12/31/18:00:16.192000,(-22 13 11 9 8 4 5 64)
1969/12/31/18:00:16.192000,(-13 -39 -22 -12 -9 -14 -10 -43)
1969/12/31/18:00:16.214000,(1 -1 -9 -10 -9 -1 2 32)
1969/12/31/18:00:16.214000,(56 3 11 9 8 10 17 29)
1969/12/31/18:00:16.215000,(3 4 2 0 1 -5 -12 -31)
1969/12/31/18:00:16.215000,(9 -7 -2 -1 -2 2 2 -12)
1969/12/31/18:00:16.245000,(-13 18 2 -1 -3 -8 -23 -31)
1969/12/31/18:00:16.245000,(-3 -7 1 -1 -2 -4 -4 -85)
1969/12/31/18:00:16.246000,(31 -22 -6 -4 -2 -5 -11 20)
1969/12/31/18:00:16.246000,(37 57 15 6 5 8 33 13)
1969/12/31/18:00:16.252000,(-1 -1 2 1 -1 0 10 12)
1969/12/31/18:00:16.252000,(9 0 -1 0 -2 -14 -49 36)
1969/12/31/18:00:16.253000,(-16 -31 -15 -9 -6 3 -27 -59)
1969/12/31/18:00:16.253000,(-11 -24 -15 -10 -11 -14 6 61)
1969/12/31/18:00:16.274000,(58 32 14 11 10 21 36 66)
1969/12/31/18:00:16.274000,(-27 10 -8 -8 -1 14 24 1)
1969/12/31/18:00:16.275000,(-24 -41 -5 0 -4 -14 -15 -7)
1969/12/31/18:00:16.275000,(68 36 12 7 3 6 24 90)
1969/12/31/18:00:16.298000,(-40 10 3 1 -2 -3 -21 -64)
1969/12/31/18:00:16.298000,(-22 -11 4 7 5 8 16 41)
1969/12/31/18:00:16.298000,(22 20 -5 -9 -6 -10 -21 -32)
1969/12/31/18:00:16.298000,(-32 -22 -4 2 3 3 2 -31)
1969/12/31/18:00:16.312000,(5 -9 5 6 4 5 6 19)
1969/12/31/18:00:16.312000,(24 15 2 1 2 -1 2 1)
1969/12/31/18:00:16.313000,(-8 9 1 -3 -2 -2 4 -5)
1969/12/31/18:00:16.313000,(-23 -15 -2 -1 -2 -1 -10 -18)
1969/12/31/18:00:16.334000,(10 -4 -4 -4 0 -4 -7 -2)
1969/12/31/18:00:16.334000,(0 0 0 -4 -1 4 7 19)
1969/12/31/18:00:16.335000,(3 14 -1 -3 -3 -1 2 1)
1969/12/31/18:00:16.335000,(-24 -24 -7 0 1 -3 -12 -22)
1969/12/31/18:00:16.358000,(6 -6 -15 -7 -4 1 -1 2)
1969/12/31/18:00:16.358000,(5 29 43 25 11 8 13 1)
1969/12/31/18:00:16.358000,(9 6 -10 -4 -2 -2 3 13)
1969/12/31/18:00:16.358000,(-20 -33 -38 -16 -6 -8 -11 -22)
1969/12/31/18:00:16.372000,(11 65 73 20 7 4 2 -4)
1969/12/31/18:00:16.372000,(-10 -62 -56 -17 -7 1 1 3)
1969/12/31/18:00:16.372000,(9 38 12 -4 -1 -8 -8 0)
1969/12/31/18:00:16.372000,(-6 31 54 16 5 1 0 3)
1969/12/31/18:00:16.395000,(1 4 8 1 -1 -2 -4 -8)
1969/12/31/18:00:16.395000,(-5 -26 -33 -20 -8 -3 -2 -2)
1969/12/31/18:00:16.395000,(12 70 76 56 19 8 3 3)
1969/12/31/18:00:16.396000,(-13 -64 -77 -19 -6 1 14 1)
1969/12/31/18:00:16.417000,(5 4 -79 -28 -6 -2 -5 2)
1969/12/31/18:00:16.417000,(12 47 74 26 9 4 0 3)
1969/12/31/18:00:16.418000,(-5 -40 -45 -19 -10 -4 -1 0)
1969/12/31/18:00:16.418000,(-13 -3 -6 -10 -7 -8 -22 -27)
1969/12/31/18:00:16.440000,(-1 -9 15 8 4 1 -2 -3)
1969/12/31/18:00:16.440000,(-14 -52 -75 -34 -13 -8 -2 0)
1969/12/31/18:00:16.441000,(3 -20 -18 -17 -1 5 9 10)
1969/12/31/18:00:16.441000,(-2 17 34 14 2 1 0 -2)
1969/12/31/18:00:16.455000,(0 -33 -22 -5 0 1 5 6)
1969/12/31/18:00:16.455000,(16 78 44 15 6 3 -1 -1)
1969/12/31/18:00:16.456000,(-2 -38 1 11 5 -2 -1 2)
1969/12/31/18:00:16.456000,(1 27 -6 -4 0 -3 -4 0)
1969/12/31/18:00:16.477000,(-4 -7 22 5 0 1 7 -5)
1969/12/31/18:00:16.477000,(3 4 1 8 3 3 1 4)
1969/12/31/18:00:16.478000,(0 -5 -23 -19 -8 -3 -4 -2)
1969/12/31/18:00:16.478000,(-14 -45 -46 -20 -6 1 4 -1)
1969/12/31/18:00:16.491000,(-5 -10 52 23 5 -3 -5 -9)
1969/12/31/18:00:16.491000,(19 57 15 8 1 -1 -7 -2)
1969/12/31/18:00:16.499000,(-10 -23 -25 -10 -5 -3 1 0)
1969/12/31/18:00:16.499000,(-8 -15 -6 -4 -2 -1 -9 -10)
1969/12/31/18:00:16.515000,(-3 14 0 -4 -2 -2 6 4)
1969/12/31/18:00:16.515000,(-9 -37 -15 -4 -2 -6 1 -5)
1969/12/31/18:00:16.516000,(5 4 1 -1 -2 -1 -9 -10)
1969/12/31/18:00:16.516000,(4 17 28 7 -1 -4 -1 5)
1969/12/31/18:00:16.538000,(-8 -15 -11 -5 -3 -4 -11 -7)
1969/12/31/18:00:16.538000,(3 -5 -17 -13 -1 5 8 3)
1969/12/31/18:00:16.538000,(1 -18 -40 -3 2 -1 5 11)
1969/12/31/18:00:16.538000,(-7 29 45 15 6 0 -12 -15)
1969/12/31/18:00:16.551000,(5 -15 -25 -3 -2 -1 1 3)
1969/12/31/18:00:16.551000,(-13 -5 -2 -3 -3 -2 -8 -11)
1969/12/31/18:00:16.559000,(-8 -28 -3 -5 -3 -2 3 2)
1969/12/31/18:00:16.559000,(0 -10 5 -3 -2 1 2 1)
1969/12/31/18:00:16.574000,(8 23 13 6 3 0 -2 -1)
1969/12/31/18:00:16.574000,(-5 -21 -26 -12 -5 -3 5 3)
1969/12/31/18:00:16.583000,(9 48 49 22 6 0 -3 1)
1969/12/31/18:00:16.583000,(1 -26 -20 -7 -3 -1 2 7)
1969/12/31/18:00:16.605000,(-12 4 -6 -7 -4 -5 -10 -15)
1969/12/31/18:00:16.605000,(5 9 10 8 5 3 4 3)
1969/12/31/18:00:16.606000,(-17 -39 -39 -24 -9 -5 -8 -13)
1969/12/31/18:00:16.606000,(17 49 51 27 9 1 0 3)
1969/12/31/18:00:16.611000,(-4 -24 -4 -4 -2 2 10 13)
1969/12/31/18:00:16.611000,(-4 0 -44 -16 -7 -8 -15 -14)
1969/12/31/18:00:16.620000,(11 50 59 22 7 1 -3 -4)
1969/12/31/18:00:16.620000,(-2 -4 -11 0 1 2 2 1)
1969/12/31/18:00:16.634000,(1 -15 -13 -3 -3 -2 -4 0)
1969/12/31/18:00:16.634000,(-7 -3 34 6 0 -1 2 1)
1969/12/31/18:00:16.643000,(18 19 -1 -6 -2 0 3 10)
1969/12/31/18:00:16.643000,(-26 -24 -26 -10 -4 -6 -8 -16)
1969/12/31/18:00:16.658000,(4 7 4 0 -1 1 0 2)
1969/12/31/18:00:16.658000,(-4 -28 -21 -14 -7 -4 -2 -2)
1969/12/31/18:00:16.659000,(-1 28 27 14 8 5 4 1)
1969/12/31/18:00:16.659000,(12 11 9 0 0 -1 1 10)
1969/12/31/18:00:16.671000,(2 -10 -31 -10 -1 0 2 0)
1969/12/31/18:00:16.671000,(-1 6 16 8 3 0 4 1)
1969/12/31/18:00:16.688000,(-6 -4 -15 -9 -8 -4 -7 -9)
1969/12/31/18:00:16.688000,(2 -10 -9 -13 -2 3 4 6)
1969/12/31/18:00:16.694000,(-4 0 -9 -5 -1 1 -4 -7)
1969/12/31/18:00:16.694000,(6 6 13 12 3 3 -1 2)
1969/12/31/18:00:16.709000,(-2 -9 7 2 0 0 4 5)
1969/12/31/18:00:16.709000,(-2 -14 -40 -20 -5 -5 -3 -6)
1969/12/31/18:00:16.709000,(-1 -2 1 1 3 0 -1 -1)
1969/12/31/18:00:16.709000,(-4 -2 -5 -6 -9 -6 -2 -3)
1969/12/31/18:00:16.716000,(-2 -2 -1 -1 2 -1 -2 0)
1969/12/31/18:00:16.716000,(0 -1 1 3 -1 0 -1 0)
1969/12/31/18:00:16.732000,(1 -1 -4 -4 -3 -1 2 -1)
1969/12/31/18:00:16.732000,(0 1 0 -5 -8 -3 -3 -2)
1969/12/31/18:00:16.734000,(0 -1 -2 -2 3 -1 2 2)
1969/12/31/18:00:16.734000,(2 1 4 9 11 2 -1 0)
1969/12/31/18:00:16.755000,(-2 -1 0 -3 -3 -3 -5 -3)
1969/12/31/18:00:16.755000,(-2 -4 -4 -5 -4 1 1 -1)
1969/12/31/18:00:16.756000,(0 -1 0 1 -1 1 -1 -1)
1969/12/31/18:00:16.756000,(-2 -1 1 -3 -6 -3 1 0)
1969/12/31/18:00:16.768000,(-1 0 0 1 3 2 1 0)
1969/12/31/18:00:16.768000,(-2 2 2 0 -4 -2 -3 -1)
1969/12/31/18:00:16.777000,(-2 1 -1 0 2 1 -1 0)
1969/12/31/18:00:16.777000,(-2 -2 -3 -3 -2 0 0 0)
1969/12/31/18:00:16.792000,(-2 -2 -3 -1 -1 -2 -3 -2)
1969/12/31/18:00:16.792000,(2 -3 -2 -1 -1 -2 -1 1)
1969/12/31/18:00:16.794000,(-1 0 -2 1 0 -2 -3 -3)
1969/12/31/18:00:16.794000,(0 -1 0 -2 -2 -1 -3 0)
1969/12/31/18:00:16.815000,(-3 -2 -4 -4 -1 0 -2 0)
1969/12/31/18:00:16.815000,(1 0 2 2 1 -2 0 0)
1969/12/31/18:00:16.816000,(-2 -2 -2 -2 -1 -2 -2 -3)
1969/12/31/18:00:16.816000,(0 0 3 3 -2 -1 1 -2)
1969/12/31/18:00:16.828000,(1 0 -1 -3 -1 1 -1 -1)
1969/12/31/18:00:16.828000,(-2 -1 -1 -1 -1 -1 -1 -1)
1969/12/31/18:00:16.837000,(-1 -1 0 0 2 -3 -9 -1)
1969/12/31/18:00:16.837000,(0 0 -2 0 0 4 13 2)
1969/12/31/18:00:16.852000,(-1 -2 -2 0 1 1 0 -2)
1969/12/31/18:00:16.852000,(-1 -2 1 0 -2 -1 -3 -1)
1969/12/31/18:00:16.854000,(-2 -2 -1 -3 -3 -3 -2 0)
1969/12/31/18:00:16.854000,(-1 -2 -3 -6 -3 -2 -5 -1)
1969/12/31/18:00:16.874000,(-2 -4 -3 1 0 1 2 -1)
1969/12/31/18:00:16.874000,(-2 0 0 2 2 0 -1 -1)
1969/12/31/18:00:16.876000,(0 1 2 0 -3 -1 3 -1)
1969/12/31/18:00:16.876000,(-1 -5 -6 -3 -1 -1 0 -1)
1969/12/31/18:00:16.888000,(-4 -5 -10 -17 -9 -5 -8 -7)
1969/12/31/18:00:16.888000,(-3 -6 -12 -12 -7 -2 -2 -1)
1969/12/31/18:00:16.898000,(2 5 14 9 4 -4 -6 0)
1969/12/31/18:00:16.898000,(-1 0 -4 8 0 -3 7 1)
1969/12/31/18:00:16.912000,(-1 -2 -5 -23 -5 19 13 2)
1969/12/31/18:00:16.912000,(0 6 8 19 2 1 -14 -9)
1969/12/31/18:00:16.914000,(1 1 6 3 -2 -7 5 4)
1969/12/31/18:00:16.914000,(2 4 -10 -6 -2 -9 -9 -1)
1969/12/31/18:00:16.934000,(1 1 21 28 7 -5 -9 4)
1969/12/31/18:00:16.934000,(2 5 -14 -9 -1 8 10 3)
1969/12/31/18:00:16.936000,(5 9 55 71 24 13 3 1)
1969/12/31/18:00:16.936000,(-2 -3 -5 -14 -9 -4 -6 -7)
1969/12/31/18:00:16.948000,(-6 -7 -28 -32 -14 -17 -8 -8)
1969/12/31/18:00:16.948000,(-8 -19 -17 -39 -15 7 10 -3)
1969/12/31/18:00:16.957000,(-11 -24 -59 -52 -18 -10 -8 -9)
1969/12/31/18:00:16.957000,(6 10 -10 24 12 9 6 5)
1969/12/31/18:00:16.972000,(6 21 78 41 16 6 6 8)
1969/12/31/18:00:16.972000,(-7 -14 -36 -12 -10 -14 -8 -1)
1969/12/31/18:00:16.974000,(-5 0 -11 -42 -14 -5 -2 -3)
1969/12/31/18:00:16.974000,(-7 -17 -27 12 3 6 -4 -2)
1969/12/31/18:00:16.994000,(2 10 6 -21 -2 -1 -5 -3)
1969/12/31/18:00:16.994000,(8 10 33 29 11 3 7 9)
1969/12/31/18:00:16.996000,(2 6 20 37 11 9 8 7)
1969/12/31/18:00:16.996000,(7 12 61 32 4 -7 -1 7)
1969/12/31/18:00:17.008000,(-6 -10 -14 -10 -6 -6 -2 -4)
1969/12/31/18:00:17.008000,(-2 -9 -7 -1 -1 -4 -3 -4)
1969/12/31/18:00:17.017000,(-13 -30 -60 -71 -25 -8 -6 -8)
1969/12/31/18:00:17.017000,(-1 -4 -16 -3 -5 -3 -6 -7)
1969/12/31/18:00:17.032000,(13 20 62 92 35 12 10 10)
1969/12/31/18:00:17.032000,(0 -2 -1 -17 1 -3 2 3)
1969/12/31/18:00:17.034000,(-1 4 6 16 3 -2 -2 -2)
1969/12/31/18:00:17.034000,(-11 -14 -24 -38 -8 5 -7 -9)
1969/12/31/18:00:17.054000,(-4 -15 -40 -29 -17 -3 -2 -5)
1969/12/31/18:00:17.054000,(2 13 3 18 13 4 0 -2)
1969/12/31/18:00:17.056000,(1 4 20 2 3 2 3 2)
1969/12/31/18:00:17.056000,(-6 -8 -27 -39 -13 -4 0 1)
1969/12/31/18:00:17.068000,(4 12 26 38 9 -4 -9 -6)
1969/12/31/18:00:17.068000,(2 8 25 15 3 -1 -2 0)
1969/12/31/18:00:17.093000,(-2 1 2 1 -4 -5 -6 -6)
1969/12/31/18:00:17.093000,(-3 -15 -2 -12 -3 0 1 1)
1969/12/31/18:00:17.094000,(-8 -14 -37 -19 -7 -2 0 0)
1969/12/31/18:00:17.094000,(-3 6 -2 1 0 -4 -1 -1)
1969/12/31/18:00:17.098000,(3 15 -1 -2 0 0 -1 -4)
1969/12/31/18:00:17.098000,(3 12 8 5 2 0 1 2)
1969/12/31/18:00:17.114000,(1 3 -17 -15 -1 -1 -2 0)
1969/12/31/18:00:17.114000,(1 -2 5 -3 -3 -1 0 -3)
1969/12/31/18:00:17.116000,(2 -2 -7 -2 0 5 2 2)
1969/12/31/18:00:17.116000,(1 0 8 7 2 -2 -2 -2)
1969/12/31/18:00:17.128000,(-6 -25 -22 -16 -9 -3 9 6)
1969/12/31/18:00:17.128000,(-3 -8 -12 -7 -8 -7 -15 -11)
1969/12/31/18:00:17.137000,(5 9 13 13 3 -1 0 0)
1969/12/31/18:00:17.137000,(-4 -15 1 2 -1 -1 -1 -4)
1969/12/31/18:00:17.151000,(-7 -17 -17 -13 -8 -3 -2 -3)
1969/12/31/18:00:17.151000,(1 -2 -3 6 4 3 2 2)
1969/12/31/18:00:17.158000,(-5 -4 6 8 2 1 -4 -13)
1969/12/31/18:00:17.158000,(3 11 10 5 -1 0 2 10)
1969/12/31/18:00:17.175000,(-8 -21 -25 -14 -6 -2 -2 -3)
1969/12/31/18:00:17.175000,(-26 -31 -5 0 -1 0 -2 -17)
1969/12/31/18:00:17.176000,(25 15 6 -2 -4 -1 17 47)
1969/12/31/18:00:17.176000,(26 9 3 -2 1 0 0 -3)
1969/12/31/18:00:17.197000,(-34 -8 -4 -6 -5 -4 -9 -23)
1969/12/31/18:00:17.197000,(-14 -1 -1 -3 -2 -1 3 15)
1969/12/31/18:00:17.198000,(14 -1 -11 -6 -3 -2 -1 2)
1969/12/31/18:00:17.198000,(-13 -6 -1 -4 -4 0 1 -8)
1969/12/31/18:00:17.211000,(6 -9 -13 -6 -1 -1 4 21)
1969/12/31/18:00:17.211000,(-13 5 4 -2 -3 -4 -5 -50)
1969/12/31/18:00:17.218000,(-11 -4 0 4 0 1 11 31)
1969/12/31/18:00:17.218000,(-17 -5 -4 -6 -3 2 -10 -4)
1969/12/31/18:00:17.234000,(35 24 11 1 1 1 7 15)
1969/12/31/18:00:17.234000,(-21 -1 -4 -6 0 7 -1 -22)
1969/12/31/18:00:17.236000,(25 11 3 0 -5 -21 -14 -5)
1969/12/31/18:00:17.236000,(-9 6 11 10 8 0 12 -31)
1969/12/31/18:00:17.257000,(-51 -24 -10 -9 -3 23 -14 -23)
1969/12/31/18:00:17.257000,(48 34 18 9 4 -8 18 50)
1969/12/31/18:00:17.258000,(-17 -30 -15 -7 -3 -18 2 -19)
1969/12/31/18:00:17.258000,(8 -1 -3 -1 1 37 27 16)
