time,.data
1969-12-31 18:00:06.779000000,(0 -8 -46 -13 -1 4 -8 -1)
1969-12-31 18:00:06.779000000,(-6 -7 13 -1 -11 -1 15 1)
1969-12-31 18:00:06.779784709,(-11 -15 -55 -54 2 15 0 -8)
1969-12-31 18:00:06.779784709,(22 39 90 99 33 23 19 20)
1969-12-31 18:00:06.790770641,(5 18 75 72 17 -11 -36 -9)
1969-12-31 18:00:06.790770641,(-4 -5 -17 -5 -1 -22 -34 -14)
1969-12-31 18:00:06.790770641,(-1 -10 -24 -29 -8 15 35 7)
1969-12-31 18:00:06.790770641,(-23 -43 -96 -126 -61 -59 -24 -20)
1969-12-31 18:00:06.808034247,(-7 -9 -13 -1 21 25 18 0)
1969-12-31 18:00:06.808034247,(15 27 28 38 26 35 15 12)
1969-12-31 18:00:06.808818956,(6 0 7 -2 8 37 28 10)
1969-12-31 18:00:06.808818956,(-5 -5 -21 7 -3 -18 -44 -14)
1969-12-31 18:00:06.826082563,(-3 0 32 -5 -22 -64 -43 -15)
1969-12-31 18:00:06.826082563,(-7 -3 -12 -18 -6 -29 -18 -13)
1969-12-31 18:00:06.826082563,(4 7 24 33 14 58 40 14)
1969-12-31 18:00:06.826082563,(0 -7 0 -2 5 12 10 18)
1969-12-31 18:00:06.837853203,(-1 -6 -43 -3 -16 -1 11 -3)
1969-12-31 18:00:06.837853203,(-3 3 -14 -8 -3 8 -7 3)
1969-12-31 18:00:06.838637913,(-2 8 60 11 6 -30 -31 -15)
1969-12-31 18:00:06.838637913,(3 -4 -22 4 1 -2 13 -6)
1969-12-31 18:00:06.855116810,(-1 0 -14 -27 -1 -22 -29 -12)
1969-12-31 18:00:06.855116810,(-1 -11 -28 -21 -16 -12 42 10)
1969-12-31 18:00:06.855901519,(1 -1 19 7 -6 13 -8 3)
1969-12-31 18:00:06.855901519,(-5 0 -8 -29 -6 -8 -37 -18)
1969-12-31 18:00:06.873165125,(1 4 28 19 11 27 40 8)
1969-12-31 18:00:06.873165125,(3 4 8 33 3 1 -18 1)
1969-12-31 18:00:06.873165125,(-1 -3 3 -2 -1 -19 -8 -5)
1969-12-31 18:00:06.873165125,(-4 -7 -12 -13 -2 -1 9 0)
1969-12-31 18:00:06.884935766,(-7 -18 -36 -42 -19 3 8 5)
1969-12-31 18:00:06.884935766,(-2 6 3 -24 -4 -9 -17 -17)
1969-12-31 18:00:06.884935766,(0 4 0 23 -1 -19 -16 -3)
1969-12-31 18:00:06.884935766,(6 6 18 8 6 16 15 10)
1969-12-31 18:00:06.902984082,(-3 -9 -17 -17 -5 11 16 8)
1969-12-31 18:00:06.902984082,(-2 -2 -3 -2 5 4 -11 -9)
1969-12-31 18:00:06.908477047,(-7 -14 -17 -2 -4 -23 -7 -5)
1969-12-31 18:00:06.908477047,(2 10 10 9 6 18 30 -2)
1969-12-31 18:00:06.920247688,(6 4 6 1 4 -11 9 19)
1969-12-31 18:00:06.920247688,(2 -1 11 9 2 -1 8 8)
1969-12-31 18:00:06.925740654,(-2 0 -10 -3 -6 -6 -4 -3)
1969-12-31 18:00:06.925740654,(-11 -15 -6 -6 -4 -2 5 -7)
1969-12-31 18:00:06.931233619,(1 4 -8 0 -1 3 -1 -7)
1969-12-31 18:00:06.932018329,(-2 -8 -1 -21 -7 4 -3 2)
1969-12-31 18:00:06.932018329,(5 9 -12 15 1 -6 0 3)
1969-12-31 18:00:06.932018329,(5 6 21 12 6 3 -8 1)
1969-12-31 18:00:06.949281935,(0 6 4 4 3 7 3 0)
1969-12-31 18:00:06.949281935,(-4 -9 -3 -4 -1 -1 -4 -2)
1969-12-31 18:00:06.950066644,(-1 -3 -8 -7 -2 0 -4 -3)
1969-12-31 18:00:06.950066644,(-1 -4 -8 -2 -1 -1 5 1)
1969-12-31 18:00:06.967330251,(-5 -2 6 4 5 7 5 1)
1969-12-31 18:00:06.967330251,(3 3 -1 -2 -2 -1 3 2)
1969-12-31 18:00:06.967330251,(-4 -2 3 0 -2 -6 -5 -7)
1969-12-31 18:00:06.967330251,(-2 0 2 4 1 3 -2 -4)
1969-12-31 18:00:06.979100891,(-3 -8 -6 -6 0 3 7 4)
1969-12-31 18:00:06.979100891,(6 7 3 6 0 -1 -3 2)
1969-12-31 18:00:06.979885601,(-1 1 5 3 -1 -3 -1 1)
1969-12-31 18:00:06.979885601,(-2 -3 -5 -3 -3 -4 -5 -3)
1969-12-31 18:00:06.996364498,(-1 -3 -9 -5 -1 1 -5 -5)
1969-12-31 18:00:06.996364498,(-3 -4 0 5 0 -1 3 0)
1969-12-31 18:00:06.997149207,(0 0 2 -1 -2 -1 -1 -2)
1969-12-31 18:00:06.997149207,(0 -3 -4 -3 -1 -2 1 -1)
1969-12-31 18:00:07.015197523,(0 3 0 0 -1 -2 -3 -3)
1969-12-31 18:00:07.015197523,(-2 -3 0 5 0 -1 -2 -1)
1969-12-31 18:00:07.015982232,(-1 1 -4 -2 -3 -2 0 0)
1969-12-31 18:00:07.015982232,(-1 -1 -1 0 1 0 -1 -2)
1969-12-31 18:00:07.032461129,(-8 -14 -7 -1 0 2 -2 -10)
1969-12-31 18:00:07.032461129,(11 40 36 14 4 0 5 16)
1969-12-31 18:00:07.033245838,(0 2 1 -2 -2 -1 0 1)
1969-12-31 18:00:07.033245838,(1 -10 -11 -5 -3 -3 1 11)
1969-12-31 18:00:07.043447060,(1 4 -2 -3 -4 -3 -6 -13)
1969-12-31 18:00:07.043447060,(-19 -29 -20 0 0 5 4 -23)
1969-12-31 18:00:07.044231769,(3 9 0 -4 -6 -9 -9 12)
1969-12-31 18:00:07.044231769,(-5 1 7 0 0 0 -5 -9)
1969-12-31 18:00:07.061495376,(-13 -8 -8 -4 -2 -1 -5 -10)
1969-12-31 18:00:07.061495376,(17 -4 -4 -2 3 2 9 25)
1969-12-31 18:00:07.061495376,(8 0 2 2 0 -3 -3 -3)
1969-12-31 18:00:07.061495376,(0 -12 -10 -5 -2 0 6 6)
1969-12-31 18:00:07.073266016,(-22 -4 2 -2 -1 -2 -8 -20)
1969-12-31 18:00:07.073266016,(12 9 -3 -2 -3 -2 1 4)
1969-12-31 18:00:07.073266016,(-20 -4 4 3 2 -1 -7 -29)
1969-12-31 18:00:07.073266016,(-30 -27 -9 -2 -1 -2 -3 -4)
1969-12-31 18:00:07.090529623,(8 43 23 7 5 5 15 14)
1969-12-31 18:00:07.090529623,(35 -5 -9 -5 -8 -6 -1 29)
1969-12-31 18:00:07.091314332,(-14 -11 -7 -5 -4 -2 -6 -18)
1969-12-31 18:00:07.091314332,(-4 5 3 2 0 -2 -5 -20)
1969-12-31 18:00:07.108577938,(1 -16 -11 -3 -4 -8 -6 -28)
1969-12-31 18:00:07.108577938,(-59 -11 7 8 11 18 9 11)
1969-12-31 18:00:07.109362648,(61 9 0 -2 -5 -12 11 32)
1969-12-31 18:00:07.109362648,(-47 -27 -19 -14 -11 -16 -56 -57)
1969-12-31 18:00:07.120348579,(22 19 8 4 0 -2 39 29)
1969-12-31 18:00:07.120348579,(-18 3 2 -2 -1 -7 6 -55)
1969-12-31 18:00:07.120348579,(23 -3 2 4 2 12 -5 15)
1969-12-31 18:00:07.120348579,(79 35 13 7 1 1 22 73)
1969-12-31 18:00:07.137612185,(-71 -40 -25 -20 -17 -20 -31 -36)
1969-12-31 18:00:07.137612185,(12 6 0 -2 0 5 -10 5)
1969-12-31 18:00:07.138396895,(-59 -17 -6 -4 -3 -12 8 -60)
1969-12-31 18:00:07.138396895,(-23 -1 11 9 7 3 1 -33)
1969-12-31 18:00:07.155660501,(60 46 13 10 5 15 12 50)
1969-12-31 18:00:07.155660501,(22 -14 -15 -9 -10 -29 -6 14)
1969-12-31 18:00:07.156445210,(32 11 1 -2 1 14 -23 6)
1969-12-31 18:00:07.156445210,(13 10 1 -3 -3 33 31 21)
1969-12-31 18:00:07.166646432,(-2 -30 -6 1 9 10 3 34)
1969-12-31 18:00:07.166646432,(-97 -32 -2 4 -4 -17 -36 -75)
1969-12-31 18:00:07.172924107,(90 0 -1 1 2 8 19 70)
1969-12-31 18:00:07.172924107,(6 21 6 -1 0 -8 12 18)
1969-12-31 18:00:07.184694748,(48 14 5 3 5 9 26 48)
1969-12-31 18:00:07.184694748,(5 3 -10 -11 -13 -13 -10 -31)
1969-12-31 18:00:07.185479457,(-22 -11 0 1 2 -2 2 2)
1969-12-31 18:00:07.185479457,(0 8 1 7 3 -1 -9 -38)
1969-12-31 18:00:07.202743064,(40 23 18 2 1 1 0 26)
1969-12-31 18:00:07.202743064,(-73 -49 -25 -12 -2 -3 -22 -66)
1969-12-31 18:00:07.203527773,(16 2 4 4 0 0 13 32)
1969-12-31 18:00:07.203527773,(12 33 1 -1 1 -13 -18 -24)
1969-12-31 18:00:07.213728995,(-7 6 26 11 4 10 -8 -11)
1969-12-31 18:00:07.213728995,(-4 5 1 0 -2 6 12 -10)
1969-12-31 18:00:07.220006670,(-28 -5 1 0 -3 -19 -25 -31)
1969-12-31 18:00:07.220006670,(0 -37 -34 -10 -1 -2 1 27)
1969-12-31 18:00:07.231777311,(0 4 -3 -8 -10 -10 -12 -18)
1969-12-31 18:00:07.231777311,(60 7 3 -1 -2 9 47 103)
1969-12-31 18:00:07.232562020,(19 12 -2 -2 0 -1 6 33)
1969-12-31 18:00:07.232562020,(-10 -7 4 -2 -1 6 -5 -16)
1969-12-31 18:00:07.249825626,(-40 -19 -13 -1 2 -4 -12 -22)
1969-12-31 18:00:07.249825626,(43 20 15 10 5 19 14 10)
1969-12-31 18:00:07.255318592,(-15 18 6 -1 -2 1 6 -24)
1969-12-31 18:00:07.255318592,(-16 -12 -3 -2 -3 -8 4 0)
1969-12-31 18:00:07.267873942,(-23 -15 -7 -4 -5 -6 -21 -55)
1969-12-31 18:00:07.267873942,(74 10 -6 -2 -2 0 -4 76)
1969-12-31 18:00:07.268658651,(-46 -14 -4 -1 1 4 20 -39)
1969-12-31 18:00:07.268658651,(-4 15 17 1 0 -1 -27 -16)
1969-12-31 18:00:07.278859873,(-59 -36 -15 -3 0 -3 -6 -46)
1969-12-31 18:00:07.278859873,(49 20 6 7 7 -3 -14 25)
1969-12-31 18:00:07.279644583,(-77 -15 2 2 3 4 -11 -59)
1969-12-31 18:00:07.279644583,(79 1 -7 -7 -5 -2 14 37)
1969-12-31 18:00:07.296908189,(-35 -6 -10 -6 -3 -5 -7 -47)
1969-12-31 18:00:07.296908189,(-16 10 10 0 -1 -1 -3 -21)
1969-12-31 18:00:07.296908189,(6 17 8 7 6 2 -13 -11)
1969-12-31 18:00:07.296908189,(-12 34 24 14 10 -16 -25 -58)
1969-12-31 18:00:07.307894120,(17 -56 -27 -10 -5 11 64 91)
1969-12-31 18:00:07.307894120,(-38 -11 -8 -6 2 7 -5 -51)
1969-12-31 18:00:07.314171795,(18 10 0 -3 0 15 -8 9)
1969-12-31 18:00:07.314171795,(-36 -9 0 1 -4 -21 2 -2)
1969-12-31 18:00:07.332220111,(20 29 9 6 2 -7 -1 10)
1969-12-31 18:00:07.332220111,(-25 -17 -5 -5 -2 1 11 9)
1969-12-31 18:00:07.333004820,(-8 -7 3 1 -1 -6 -10 -10)
1969-12-31 18:00:07.333004820,(-26 -4 -3 -1 -1 13 9 -32)
1969-12-31 18:00:07.343990752,(50 25 3 0 -1 7 7 64)
1969-12-31 18:00:07.343990752,(-21 6 3 -1 -2 -5 -2 -33)
1969-12-31 18:00:07.343990752,(27 4 -4 -6 -6 2 4 21)
1969-12-31 18:00:07.343990752,(-27 -12 -6 1 0 6 0 0)
1969-12-31 18:00:07.354976683,(-1 -14 -2 3 0 3 17 55)
1969-12-31 18:00:07.354976683,(-4 -2 1 1 -4 -16 -9 -5)
1969-12-31 18:00:07.361254358,(8 -38 -15 -7 -6 -13 -3 51)
1969-12-31 18:00:07.361254358,(15 0 0 -1 1 -3 8 12)
1969-12-31 18:00:07.373024999,(-69 2 7 3 3 -1 -4 -49)
1969-12-31 18:00:07.373024999,(-1 -5 -11 -6 -6 -5 41 43)
1969-12-31 18:00:07.373809708,(9 2 -2 0 -1 10 -45 -67)
1969-12-31 18:00:07.373809708,(-27 -18 -3 -3 -4 -2 -1 -12)
1969-12-31 18:00:07.391073314,(-14 -28 -13 -5 -4 -27 -13 28)
1969-12-31 18:00:07.391073314,(-46 0 6 6 5 1 -3 -45)
1969-12-31 18:00:07.391073314,(-10 -3 2 3 3 0 21 25)
1969-12-31 18:00:07.391073314,(46 14 -5 -9 -8 3 7 14)
1969-12-31 18:00:07.402059246,(8 17 -1 -2 -4 -4 -20 -30)
1969-12-31 18:00:07.402059246,(-3 -4 0 2 7 17 -23 -2)
1969-12-31 18:00:07.408336921,(10 2 -1 -4 -5 -16 15 3)
1969-12-31 18:00:07.408336921,(18 15 12 7 3 1 -10 17)
1969-12-31 18:00:07.421676980,(14 -1 5 0 -1 -2 -20 -42)
1969-12-31 18:00:07.421676980,(20 17 0 -1 -2 -5 -17 -40)
1969-12-31 18:00:07.422461689,(-52 -24 -13 -4 3 16 16 -22)
1969-12-31 18:00:07.422461689,(-27 -26 -16 -9 -5 -2 2 -17)
1969-12-31 18:00:07.438155877,(19 26 12 2 0 0 -7 -5)
1969-12-31 18:00:07.438155877,(-15 35 9 4 3 2 -22 -4)
1969-12-31 18:00:07.438155877,(-3 -40 -21 -19 -20 -21 -17 12)
1969-12-31 18:00:07.438155877,(0 -3 -4 -5 -2 -18 -8 14)
1969-12-31 18:00:07.456204193,(-24 -3 -3 -4 -3 27 15 -2)
1969-12-31 18:00:07.456204193,(76 5 8 7 4 -2 -41 65)
1969-12-31 18:00:07.456988902,(-37 28 15 9 5 4 55 -48)
1969-12-31 18:00:07.456988902,(-14 -42 -29 -19 -21 -22 -39 -32)
1969-12-31 18:00:07.467190124,(-3 4 -5 -6 4 10 -13 -53)
1969-12-31 18:00:07.467190124,(-20 -1 1 0 1 26 32 9)
1969-12-31 18:00:07.467974833,(30 29 13 6 -2 -27 3 6)
1969-12-31 18:00:07.467974833,(50 8 7 5 -3 5 28 91)
1969-12-31 18:00:07.491516115,(-18 -11 -4 4 -9 -58 -10 -75)
1969-12-31 18:00:07.491516115,(16 -17 -6 17 9 8 21 17)
1969-12-31 18:00:07.491516115,(-26 -16 -8 -13 14 19 -5 8)
1969-12-31 18:00:07.492300824,(33 23 3 -24 -25 12 10 57)
1969-12-31 18:00:07.503286755,(-12 -2 -2 -15 -14 -10 -3 6)
1969-12-31 18:00:07.503286755,(35 -1 -13 -18 -2 -9 24 76)
1969-12-31 18:00:07.503286755,(-2 7 3 12 13 5 -15 -3)
1969-12-31 18:00:07.503286755,(-104 -4 11 21 10 -2 -2 -57)
1969-12-31 18:00:07.514272687,(69 5 -1 9 19 5 16 75)
1969-12-31 18:00:07.514272687,(-18 -10 -7 -21 -21 3 -9 -40)
1969-12-31 18:00:07.515057396,(-2 7 0 -6 -8 4 -13 -2)
1969-12-31 18:00:07.515057396,(-28 -12 -4 0 9 13 13 -36)
1969-12-31 18:00:07.532321002,(7 9 -5 8 11 7 9 16)
1969-12-31 18:00:07.532321002,(-35 -25 1 1 -8 2 4 -9)
1969-12-31 18:00:07.532321002,(-11 -12 -8 -4 -27 -45 -12 19)
1969-12-31 18:00:07.532321002,(-11 -8 3 15 43 26 -15 -23)
1969-12-31 18:00:07.550369318,(-2 11 6 4 3 12 0 -29)
1969-12-31 18:00:07.550369318,(-12 -5 2 6 10 -12 -31 -2)
1969-12-31 18:00:07.551154027,(19 10 -3 -23 -17 22 -6 -18)
1969-12-31 18:00:07.551154027,(34 6 -6 -17 -33 -28 30 19)
1969-12-31 18:00:07.561355249,(1 -18 -6 -12 -23 -9 0 23)
1969-12-31 18:00:07.561355249,(-6 8 4 6 27 -13 -14 -25)
1969-12-31 18:00:07.562139959,(34 1 0 13 3 17 10 35)
1969-12-31 18:00:07.562139959,(-14 -22 -17 9 19 10 6 -3)
1969-12-31 18:00:07.579403565,(7 10 -13 -3 29 15 -24 -13)
1969-12-31 18:00:07.579403565,(-10 5 23 -5 -33 -19 6 -16)
1969-12-31 18:00:07.579403565,(-15 -14 -7 -4 -9 -2 11 20)
1969-12-31 18:00:07.579403565,(-9 11 10 2 -12 -23 -16 -4)
1969-12-31 18:00:07.597451880,(-47 -8 6 34 43 37 8 -35)
1969-12-31 18:00:07.597451880,(-43 -24 -28 -36 -22 2 -18 -31)
1969-12-31 18:00:07.598236590,(-7 6 9 6 7 14 6 -1)
1969-12-31 18:00:07.598236590,(21 -48 -46 -22 -10 4 4 14)
1969-12-31 18:00:07.608437812,(9 89 79 19 -9 -42 -10 2)
1969-12-31 18:00:07.608437812,(32 -4 -8 11 9 19 23 50)
1969-12-31 18:00:07.609222521,(-2 18 14 3 10 -2 -22 -29)
1969-12-31 18:00:07.609222521,(-5 15 14 7 12 16 -8 -56)
1969-12-31 18:00:07.632763802,(57 -69 -52 -24 -33 -3 18 69)
1969-12-31 18:00:07.632763802,(43 29 -4 1 0 -17 -2 10)
1969-12-31 18:00:07.633548512,(57 2 1 6 11 -13 3 25)
1969-12-31 18:00:07.633548512,(13 -90 -70 -17 -13 -6 -1 28)
1969-12-31 18:00:07.644534443,(3 72 38 2 -10 -1 -12 -4)
1969-12-31 18:00:07.644534443,(-93 11 21 -5 -8 10 -3 -89)
1969-12-31 18:00:07.645319153,(40 3 -2 14 23 -5 1 46)
1969-12-31 18:00:07.645319153,(-27 33 41 25 -2 -41 -17 -37)
1969-12-31 18:00:07.655520374,(-20 -57 -55 -32 -4 41 5 -22)
1969-12-31 18:00:07.655520374,(3 -18 -14 -7 -2 7 1 -4)
1969-12-31 18:00:07.656305084,(-45 8 7 4 -13 -7 -1 -13)
1969-12-31 18:00:07.656305084,(21 0 -7 -2 8 1 2 9)
1969-12-31 18:00:07.673568690,(-22 -49 -62 -22 -29 -24 -17 -23)
1969-12-31 18:00:07.673568690,(6 69 93 29 24 7 -3 22)
1969-12-31 18:00:07.674353399,(-31 6 14 13 12 11 -10 -56)
1969-12-31 18:00:07.674353399,(-1 -35 -30 -9 5 -11 -5 31)
1969-12-31 18:00:07.691617006,(10 51 23 4 -11 11 2 17)
1969-12-31 18:00:07.691617006,(12 -49 -40 -2 8 -21 -11 -17)
1969-12-31 18:00:07.692401715,(13 -38 -38 -27 -34 0 1 10)
1969-12-31 18:00:07.692401715,(16 65 28 -6 -11 8 6 27)
1969-12-31 18:00:07.702602937,(-6 52 83 35 15 5 15 33)
1969-12-31 18:00:07.702602937,(19 -12 -34 -5 13 -8 -3 -30)
1969-12-31 18:00:07.703387646,(-52 -80 -76 -4 16 7 5 17)
1969-12-31 18:00:07.703387646,(30 90 49 10 -1 13 12 13)
1969-12-31 18:00:07.720651253,(28 10 26 -1 -14 -22 -14 23)
1969-12-31 18:00:07.720651253,(20 -28 -59 -25 -22 -2 -2 -2)
1969-12-31 18:00:07.720651253,(-33 -7 68 26 3 -20 -5 -26)
1969-12-31 18:00:07.720651253,(-40 -36 -17 -2 15 19 0 -26)
1969-12-31 18:00:07.738699568,(-16 -57 -69 -28 -25 -9 4 -50)
1969-12-31 18:00:07.738699568,(-13 1 48 37 51 41 -1 4)
1969-12-31 18:00:07.739484278,(-22 -80 -96 -37 -33 -5 2 -19)
1969-12-31 18:00:07.739484278,(0 35 -28 -25 11 53 5 -11)
1969-12-31 18:00:07.749685500,(48 90 84 17 -10 -37 -12 10)
1969-12-31 18:00:07.750470209,(-36 -67 -14 -8 -8 -9 9 18)
1969-12-31 18:00:07.750470209,(38 54 25 3 -13 -19 1 28)
1969-12-31 18:00:07.750470209,(6 -85 -43 9 21 2 3 3)
1969-12-31 18:00:07.767733815,(-21 -15 -21 -5 -3 1 -14 -11)
1969-12-31 18:00:07.767733815,(21 56 52 3 -2 -9 -14 -22)
1969-12-31 18:00:07.768518525,(-1 18 12 11 15 41 5 28)
1969-12-31 18:00:07.768518525,(-22 20 7 -8 -20 -43 5 -14)
1969-12-31 18:00:07.785782131,(-34 -106 -66 -24 20 32 -2 -10)
1969-12-31 18:00:07.785782131,(-4 -30 -11 3 -35 -44 10 19)
1969-12-31 18:00:07.786566840,(-59 68 34 0 24 36 1 -55)
1969-12-31 18:00:07.786566840,(36 60 85 31 -1 -6 -25 4)
1969-12-31 18:00:07.796768062,(-12 -55 -49 -3 -4 -22 6 19)
1969-12-31 18:00:07.796768062,(-4 -77 -68 -20 -4 19 12 12)
1969-12-31 18:00:07.797552772,(2 -14 -28 -4 -1 -51 -14 0)
1969-12-31 18:00:07.797552772,(18 62 52 8 4 48 2 -5)
1969-12-31 18:00:07.815601087,(-6 44 35 10 3 4 -2 -16)
1969-12-31 18:00:07.815601087,(63 17 15 7 -34 -27 -8 19)
1969-12-31 18:00:07.815601087,(-15 -89 -51 -31 -16 5 15 -5)
1969-12-31 18:00:07.815601087,(15 -16 -29 -7 -11 -28 -1 48)
1969-12-31 18:00:07.832864694,(-14 63 31 13 8 -14 -5 -35)
1969-12-31 18:00:07.832864694,(-8 -46 -8 14 26 -9 -11 -8)
1969-12-31 18:00:07.833649403,(58 75 2 -11 -9 33 3 13)
1969-12-31 18:00:07.833649403,(-12 38 56 11 -7 1 11 -6)
1969-12-31 18:00:07.843850624,(-11 -128 -118 -39 -17 6 9 36)
1969-12-31 18:00:07.843850624,(-62 -22 -79 -24 -7 -33 -22 -66)
1969-12-31 18:00:07.844635334,(39 102 113 57 17 -29 -10 6)
1969-12-31 18:00:07.844635334,(13 -96 -47 -6 14 2 -12 6)
1969-12-31 18:00:07.863468359,(23 -4 -54 -20 -56 -10 -8 8)
1969-12-31 18:00:07.863468359,(-12 47 71 26 9 10 16 -2)
1969-12-31 18:00:07.864253069,(-6 -77 -51 -27 -6 -1 4 30)
1969-12-31 18:00:07.864253069,(-38 -47 -72 -23 4 3 -3 -27)
1969-12-31 18:00:07.879947256,(26 -7 57 25 20 13 11 14)
1969-12-31 18:00:07.879947256,(5 113 48 14 -3 -25 -7 3)
1969-12-31 18:00:07.880731966,(17 27 43 8 1 41 9 -10)
1969-12-31 18:00:07.880731966,(-16 -39 -11 7 -18 -29 -7 -6)
1969-12-31 18:00:07.890933188,(24 -60 -46 -8 22 -4 -2 21)
1969-12-31 18:00:07.890933188,(-2 -7 -33 -8 23 29 22 14)
1969-12-31 18:00:07.891717897,(25 -43 -36 -27 -76 -41 -18 -13)
1969-12-31 18:00:07.891717897,(1 13 -2 5 15 0 15 7)
1969-12-31 18:00:07.909766212,(-13 -58 -21 -22 29 43 -9 -37)
1969-12-31 18:00:07.909766212,(36 118 101 40 12 16 18 34)
1969-12-31 18:00:07.909766212,(-17 -52 -45 4 30 6 -3 -32)
1969-12-31 18:00:07.909766212,(-48 -71 -33 -19 -34 -24 -22 -34)
1969-12-31 18:00:07.927029819,(-21 -27 -56 -10 -25 -71 -12 -4)
1969-12-31 18:00:07.927029819,(47 69 47 0 18 62 9 15)
1969-12-31 18:00:07.927814528,(-48 -60 -5 7 8 -9 -2 -34)
1969-12-31 18:00:07.927814528,(50 -10 -45 -5 18 -13 -1 28)
1969-12-31 18:00:07.938015750,(-47 63 52 18 11 28 -12 -37)
1969-12-31 18:00:07.938015750,(-29 -84 -67 -40 -42 -10 -11 -6)
1969-12-31 18:00:07.944293425,(33 31 5 -2 7 -7 0 8)
1969-12-31 18:00:07.944293425,(19 -80 -41 -13 6 24 17 50)
1969-12-31 18:00:07.956848775,(-39 67 36 19 24 -10 -10 -74)
1969-12-31 18:00:07.956848775,(-6 -26 -33 -29 -21 1 -14 5)
1969-12-31 18:00:07.956848775,(10 77 50 6 3 10 5 12)
1969-12-31 18:00:07.956848775,(-19 -80 -18 9 -9 -10 -3 -5)
1969-12-31 18:00:07.974112382,(13 -24 -79 -20 -1 -10 31 10)
1969-12-31 18:00:07.974112382,(44 72 79 100 77 32 -9 38)
1969-12-31 18:00:07.974897091,(-2 -112 -108 -38 -65 -35 -29 -27)
1969-12-31 18:00:07.974897091,(-55 -39 -67 -25 -26 -17 5 -31)
1969-12-31 18:00:07.985098313,(-62 27 47 7 26 33 -34 -44)
1969-12-31 18:00:07.985098313,(7 -128 -125 -53 -23 -16 11 -30)
1969-12-31 18:00:07.992160697,(26 127 118 52 22 -21 1 49)
1969-12-31 18:00:07.992160697,(-11 38 83 46 21 34 19 -17)
1969-12-31 18:00:08.003931338,(-7 -107 -55 -25 -40 -25 3 27)
1969-12-31 18:00:08.003931338,(23 21 -21 -11 -6 -2 8 35)
1969-12-31 18:00:08.004716047,(-36 -8 26 18 35 15 3 -6)
1969-12-31 18:00:08.004716047,(53 33 -4 -24 -39 -20 -18 -1)
1969-12-31 18:00:08.021194944,(-8 19 11 8 13 7 -11 -1)
1969-12-31 18:00:08.021194944,(-28 40 39 10 -3 1 7 14)
1969-12-31 18:00:08.021979654,(47 3 -28 -8 8 5 14 65)
1969-12-31 18:00:08.021979654,(67 53 27 3 -4 -10 -13 -11)
1969-12-31 18:00:08.031396165,(-38 -105 -45 -4 16 22 8 9)
1969-12-31 18:00:08.031396165,(-27 -96 -73 -26 -34 -45 -11 21)
1969-12-31 18:00:08.039243259,(-62 98 79 27 32 33 -36 -86)
1969-12-31 18:00:08.039243259,(-16 -3 11 -7 -10 -3 35 -7)
1969-12-31 18:00:08.050229191,(91 75 39 10 1 19 33 59)
1969-12-31 18:00:08.050229191,(-57 -103 -51 -18 14 -17 -28 -73)
1969-12-31 18:00:08.051798610,(-30 -110 -102 -10 51 79 53 59)
1969-12-31 18:00:08.051798610,(13 86 93 12 -42 -7 4 -27)
1969-12-31 18:00:08.074555182,(13 97 49 9 -26 -21 -28 -16)
1969-12-31 18:00:08.074555182,(-11 -6 28 9 0 -11 27 52)
1969-12-31 18:00:08.075339891,(42 -66 -68 -33 -12 -32 -19 6)
1969-12-31 18:00:08.075339891,(-18 27 8 15 24 10 -16 -8)
1969-12-31 18:00:08.079263438,(0 -39 1 -2 0 6 26 38)
1969-12-31 18:00:08.079263438,(-47 58 7 4 -12 -8 -26 -50)
1969-12-31 18:00:08.086325823,(13 -59 -15 -1 -5 -17 -18 -41)
1969-12-31 18:00:08.086325823,(-7 -56 -128 -47 0 11 9 19)
1969-12-31 18:00:08.098096463,(-30 111 115 53 11 -14 -8 -33)
1969-12-31 18:00:08.098096463,(51 -20 -45 -9 -14 -14 -24 17)
1969-12-31 18:00:08.098881173,(80 -26 -52 -19 -1 23 45 93)
1969-12-31 18:00:08.098881173,(-4 113 103 26 39 17 1 5)
1969-12-31 18:00:08.115360070,(-22 -128 -75 -6 6 -22 -35 -19)
1969-12-31 18:00:08.115360070,(-17 -15 4 -32 -57 46 46 -3)
1969-12-31 18:00:08.116144779,(12 34 -7 -19 -50 -72 -18 -13)
1969-12-31 18:00:08.116144779,(-46 -116 -53 5 18 -13 2 32)
1969-12-31 18:00:08.132623676,(14 48 -5 -20 -15 -24 -42 -15)
1969-12-31 18:00:08.132623676,(4 26 44 25 41 61 31 71)
1969-12-31 18:00:08.138901351,(-65 35 66 7 -22 -34 -22 -39)
1969-12-31 18:00:08.138901351,(15 -66 -53 -20 -16 -16 -13 3)
1969-12-31 18:00:08.144394316,(37 96 59 16 0 -4 23 8)
1969-12-31 18:00:08.144394316,(-29 -108 -80 -24 -5 -19 -17 -13)
1969-12-31 18:00:08.149102573,(-39 -82 -95 -40 -5 15 9 -9)
1969-12-31 18:00:08.149887282,(64 127 127 75 34 5 -3 14)
1969-12-31 18:00:08.162442632,(37 -102 -32 3 -5 -7 10 18)
1969-12-31 18:00:08.162442632,(9 -52 -41 -2 13 14 -3 -42)
1969-12-31 18:00:08.163227342,(-48 44 20 6 17 6 -7 -36)
1969-12-31 18:00:08.163227342,(15 -19 -32 -37 -64 -72 -31 -5)
1969-12-31 18:00:08.179706238,(-21 -78 -107 -43 25 70 5 -8)
1969-12-31 18:00:08.179706238,(54 127 127 63 29 8 17 1)
1969-12-31 18:00:08.181275657,(-16 -105 -58 -20 -22 -35 -22 -21)
1969-12-31 18:00:08.181275657,(-68 -78 -99 -27 -6 2 -14 -34)
1969-12-31 18:00:08.191476879,(-15 90 122 42 9 28 18 -7)
1969-12-31 18:00:08.191476879,(11 -59 -76 -29 -14 -32 -16 -16)
1969-12-31 18:00:08.202462810,(-1 5 15 13 11 -3 1 20)
1969-12-31 18:00:08.202462810,(16 0 -40 -24 -3 24 8 9)
1969-12-31 18:00:08.209525195,(-64 -33 7 8 -18 -34 -3 -25)
1969-12-31 18:00:08.209525195,(-55 -91 -89 -30 -4 9 -24 -58)
1969-12-31 18:00:08.210309904,(-3 127 90 23 -1 1 3 -3)
1969-12-31 18:00:08.210309904,(-43 -18 7 -3 -8 -3 -10 -28)
1969-12-31 18:00:08.226788801,(47 -99 -112 -28 6 3 15 52)
1969-12-31 18:00:08.226788801,(14 104 117 25 -12 -23 -9 0)
1969-12-31 18:00:08.228358220,(-50 -128 -114 -30 -22 -20 -15 -22)
1969-12-31 18:00:08.228358220,(-47 48 4 -7 14 -21 1 -18)
1969-12-31 18:00:08.237774732,(71 127 118 76 61 90 46 29)
1969-12-31 18:00:08.237774732,(-43 -73 -50 -29 -45 -21 -11 -25)
1969-12-31 18:00:08.244837117,(27 -26 19 28 30 11 5 -4)
1969-12-31 18:00:08.244837117,(28 56 31 7 0 25 15 12)
1969-12-31 18:00:08.256607757,(1 -39 -55 -41 -35 -49 -28 -13)
1969-12-31 18:00:08.256607757,(18 -52 -96 -28 -10 -27 -5 18)
1969-12-31 18:00:08.258177176,(6 99 97 56 19 32 20 -5)
1969-12-31 18:00:08.258177176,(37 -37 1 16 10 1 -7 9)
1969-12-31 18:00:08.273871364,(29 -77 -61 -18 -16 -18 -3 17)
1969-12-31 18:00:08.273871364,(-33 85 76 34 62 64 27 -6)
1969-12-31 18:00:08.275440782,(-52 -61 -70 -63 -76 -52 -55 -41)
1969-12-31 18:00:08.275440782,(3 -54 -15 -2 -10 -3 26 28)
1969-12-31 18:00:08.285642004,(14 45 27 -1 -2 -4 -2 -8)
1969-12-31 18:00:08.285642004,(16 -43 -23 -14 -13 -27 -4 20)
1969-12-31 18:00:08.291134969,(25 -45 -37 3 26 30 40 64)
1969-12-31 18:00:08.291134969,(42 127 112 19 6 11 -3 -6)
1969-12-31 18:00:08.303690320,(-45 -128 -76 -27 -27 -30 -20 -27)
1969-12-31 18:00:08.303690320,(-7 -68 -99 -16 9 0 -2 37)
1969-12-31 18:00:08.305259739,(46 127 110 19 1 39 41 15)
1969-12-31 18:00:08.305259739,(18 -46 10 14 14 21 3 21)
1969-12-31 18:00:08.320953926,(-11 -46 -50 -14 10 -21 -7 11)
1969-12-31 18:00:08.320953926,(72 68 40 13 -2 -1 11 28)
1969-12-31 18:00:08.322523345,(-11 -62 -45 -11 -26 -31 -19 4)
1969-12-31 18:00:08.322523345,(-74 -74 -72 -25 -11 39 12 -38)
1969-12-31 18:00:08.331939858,(-34 127 116 30 13 -28 -25 -21)
1969-12-31 18:00:08.331939858,(-9 -65 -27 -9 2 9 0 2)
1969-12-31 18:00:08.339002242,(-16 -65 -88 -25 3 -1 -6 -14)
1969-12-31 18:00:08.339002242,(36 101 102 58 27 -5 0 7)
1969-12-31 18:00:08.357050558,(0 -56 -47 8 -7 -1 4 -4)
1969-12-31 18:00:08.357050558,(-5 21 -20 -7 7 27 25 13)
1969-12-31 18:00:08.357835267,(-21 84 122 23 -7 -18 -27 -29)
1969-12-31 18:00:08.357835267,(-44 -128 -123 -46 -13 -14 -1 8)
1969-12-31 18:00:08.368036489,(1 111 50 -5 -14 18 -3 -22)
1969-12-31 18:00:08.368036489,(31 17 80 48 29 -11 3 37)
1969-12-31 18:00:08.373529455,(14 -69 -82 -30 8 28 -1 5)
1969-12-31 18:00:08.373529455,(13 49 35 15 3 -13 -7 13)
1969-12-31 18:00:08.379022420,(-34 -71 -40 -19 1 37 7 6)
1969-12-31 18:00:08.379022420,(-41 -59 -62 -30 -27 -20 -13 -33)
1969-12-31 18:00:08.386084805,(54 69 43 21 16 -7 2 21)
1969-12-31 18:00:08.386084805,(-29 -37 -32 5 25 10 -8 -38)
1969-12-31 18:00:08.397855445,(70 -11 -41 -11 -14 -11 22 43)
1969-12-31 18:00:08.397855445,(-4 127 127 18 -40 -16 -25 -49)
1969-12-31 18:00:08.398640155,(2 -128 -93 -26 12 16 -2 4)
1969-12-31 18:00:08.398640155,(-50 -77 -62 -33 -22 -19 -28 -45)
1969-12-31 18:00:08.421396727,(-2 65 40 12 12 12 17 13)
1969-12-31 18:00:08.421396727,(34 43 21 16 20 6 4 8)
1969-12-31 18:00:08.422966145,(-26 -31 -38 -6 -8 -13 1 -33)
1969-12-31 18:00:08.422966145,(-8 60 57 31 24 4 -7 18)
1969-12-31 18:00:08.426104983,(8 -73 -81 -18 17 27 -6 -18)
1969-12-31 18:00:08.426104983,(-5 -14 21 -2 -39 -37 -16 -10)
1969-12-31 18:00:08.438660333,(8 34 16 -2 0 3 23 26)
1969-12-31 18:00:08.439445042,(-35 -128 -112 -35 -2 -7 -13 -16)
1969-12-31 18:00:08.444938008,(-3 57 22 12 -15 -24 -23 -45)
1969-12-31 18:00:08.444938008,(6 12 -12 7 29 41 17 -6)
1969-12-31 18:00:08.445722717,(32 -61 -26 9 1 -23 -18 0)
1969-12-31 18:00:08.445722717,(31 24 27 14 3 13 30 36)
1969-12-31 18:00:08.462201614,(-6 -82 -51 -30 -9 -1 6 43)
1969-12-31 18:00:08.462201614,(50 66 44 5 1 -4 13 18)
1969-12-31 18:00:08.463771033,(21 29 15 10 15 3 -2 14)
1969-12-31 18:00:08.463771033,(27 -40 -82 -43 -21 9 13 59)
1969-12-31 18:00:08.473972255,(14 84 105 63 17 -3 12 13)
1969-12-31 18:00:08.473972255,(-27 -110 -79 -14 -1 1 -14 -22)
1969-12-31 18:00:08.479465221,(27 87 16 -9 -32 -8 1 0)
1969-12-31 18:00:08.479465221,(11 -11 30 3 -7 0 0 -3)
1969-12-31 18:00:08.492020571,(-29 -112 -73 -39 -23 -36 -8 -18)
1969-12-31 18:00:08.492020571,(5 27 12 9 4 5 -2 6)
1969-12-31 18:00:08.492805280,(-16 -34 -20 6 30 31 19 13)
1969-12-31 18:00:08.492805280,(-32 58 61 15 14 18 -10 -37)
1969-12-31 18:00:08.515561852,(-19 89 67 6 -32 -13 -7 -37)
1969-12-31 18:00:08.515561852,(-30 -108 -96 -26 14 -11 -13 -21)
1969-12-31 18:00:08.516346561,(0 -8 -6 0 1 -3 4 5)
1969-12-31 18:00:08.517131271,(24 33 1 5 -10 -3 3 23)
1969-12-31 18:00:08.521054818,(-20 -70 -48 -22 -4 4 -19 -47)
1969-12-31 18:00:08.521054818,(-4 51 63 31 12 -40 -19 -7)
1969-12-31 18:00:08.526547783,(-44 -53 -25 -17 -20 19 -13 -29)
1969-12-31 18:00:08.526547783,(-16 -16 -33 5 9 5 19 -2)
1969-12-31 18:00:08.539103133,(32 100 55 2 0 -4 5 18)
1969-12-31 18:00:08.539103133,(22 27 25 11 8 13 8 22)
1969-12-31 18:00:08.539887843,(-8 -65 -65 -24 -14 -12 16 50)
1969-12-31 18:00:08.539887843,(23 76 79 47 12 4 -12 -21)
1969-12-31 18:00:08.557151449,(2 -90 -67 -3 -2 -32 -3 12)
1969-12-31 18:00:08.557151449,(-26 -101 -99 -39 -21 22 -7 -21)
1969-12-31 18:00:08.557936158,(-11 60 47 20 4 21 28 1)
1969-12-31 18:00:08.557936158,(13 -11 -31 -11 -1 7 -4 -12)
1969-12-31 18:00:08.567352671,(-11 -63 -36 -10 -1 1 4 1)
1969-12-31 18:00:08.567352671,(-6 80 90 22 2 -32 -7 -1)
1969-12-31 18:00:08.574415055,(9 10 5 12 10 -5 2 10)
1969-12-31 18:00:08.574415055,(-10 -84 -73 -35 -19 16 -3 2)
1969-12-31 18:00:08.586185696,(15 107 36 14 -9 -7 -2 13)
1969-12-31 18:00:08.586185696,(1 -68 -74 -21 -19 -26 2 -10)
1969-12-31 18:00:08.586970405,(-34 -61 -70 -22 12 36 -10 -20)
1969-12-31 18:00:08.586970405,(48 127 127 70 22 -2 3 15)
1969-12-31 18:00:08.603449302,(54 -38 -31 -9 7 4 13 48)
1969-12-31 18:00:08.603449302,(-34 -86 -82 -34 -17 10 -5 -19)
1969-12-31 18:00:08.605018721,(50 110 48 11 -10 -30 -3 40)
1969-12-31 18:00:08.605018721,(13 -7 12 16 6 -26 -7 -11)
1969-12-31 18:00:08.614435233,(-31 -6 10 1 11 34 -9 -18)
1969-12-31 18:00:08.614435233,(16 -24 -11 -8 -15 13 -6 -1)
1969-12-31 18:00:08.621497618,(-14 3 34 13 -17 -18 2 -12)
1969-12-31 18:00:08.621497618,(-18 -109 -108 -40 3 6 9 -1)
1969-12-31 18:00:08.633268259,(31 82 72 9 -4 16 -3 -13)
1969-12-31 18:00:08.633268259,(6 107 84 28 20 14 4 -10)
1969-12-31 18:00:08.634052968,(-27 -109 -56 -9 3 -18 -23 -30)
1969-12-31 18:00:08.634052968,(5 15 -21 -21 -13 -16 -22 3)
1969-12-31 18:00:08.650531865,(-25 -55 -15 10 -3 -19 -2 -13)
1969-12-31 18:00:08.650531865,(8 22 18 -2 1 2 14 18)
1969-12-31 18:00:08.652101284,(-11 -15 -17 -16 -13 1 -14 -28)
1969-12-31 18:00:08.652101284,(15 67 34 9 -6 -29 6 18)
1969-12-31 18:00:08.661517796,(5 -67 -47 3 32 36 -22 -10)
1969-12-31 18:00:08.661517796,(-21 -38 -52 -29 -11 -5 -9 -18)
1969-12-31 18:00:08.668580180,(-15 90 93 42 18 4 3 -25)
1969-12-31 18:00:08.668580180,(-25 -47 -44 -17 10 20 0 -28)
1969-12-31 18:00:08.680350821,(-29 -38 -15 -23 -53 -38 -12 -24)
1969-12-31 18:00:08.680350821,(20 66 57 28 21 0 12 18)
1969-12-31 18:00:08.681135531,(45 106 60 9 -7 17 -8 2)
1969-12-31 18:00:08.681135531,(-24 -72 -49 -5 2 10 22 6)
1969-12-31 18:00:08.697614427,(-36 -76 -65 -16 12 -2 -18 -30)
1969-12-31 18:00:08.697614427,(-6 49 12 3 0 -7 -3 -7)
1969-12-31 18:00:08.699183846,(-11 -33 -10 3 8 -18 -17 -6)
1969-12-31 18:00:08.699183846,(13 -19 12 0 12 21 11 19)
1969-12-31 18:00:08.708600359,(19 67 15 16 8 16 49 77)
1969-12-31 18:00:08.708600359,(11 2 27 19 9 -6 -14 -8)
1969-12-31 18:00:08.715662743,(-12 -63 -76 -36 -8 -2 0 11)
1969-12-31 18:00:08.715662743,(10 54 49 2 -12 -17 -24 -18)
1969-12-31 18:00:08.727433384,(1 -6 -25 -8 5 13 17 7)
1969-12-31 18:00:08.727433384,(6 -65 -43 -10 -8 -7 7 1)
1969-12-31 18:00:08.729002803,(0 37 47 23 24 8 2 2)
1969-12-31 18:00:08.729002803,(-6 -82 -64 -39 -53 -43 -22 5)
1969-12-31 18:00:08.744696990,(-16 92 80 38 67 47 5 -13)
1969-12-31 18:00:08.744696990,(-7 -13 -7 -25 -50 -26 7 4)
1969-12-31 18:00:08.746266409,(-18 -86 -87 -50 -27 -10 -13 -21)
1969-12-31 18:00:08.746266409,(-7 38 17 21 8 -9 6 5)
1969-12-31 18:00:08.755682921,(-26 -67 -67 -17 -5 -2 -10 -30)
1969-12-31 18:00:08.755682921,(-17 31 -3 4 1 2 -22 -21)
1969-12-31 18:00:08.762745306,(11 21 34 18 19 14 13 16)
1969-12-31 18:00:08.762745306,(-11 -94 -83 -31 -5 -24 -19 -25)
1969-12-31 18:00:08.774515946,(-6 41 18 0 -24 -7 9 2)
1969-12-31 18:00:08.774515946,(-23 -15 27 7 13 12 -14 -20)
1969-12-31 18:00:08.775300656,(16 -2 -31 -10 -15 -31 -3 11)
1969-12-31 18:00:08.775300656,(-12 -3 19 8 1 5 8 0)
1969-12-31 18:00:08.792564262,(18 50 26 9 -12 0 -7 1)
1969-12-31 18:00:08.792564262,(15 -54 -49 -24 -15 6 8 14)
1969-12-31 18:00:08.797272518,(18 -8 8 14 20 6 9 14)
1969-12-31 18:00:08.797272518,(9 9 -25 -9 -2 16 5 0)
1969-12-31 18:00:08.802765484,(11 2 28 19 2 -29 -21 7)
1969-12-31 18:00:08.802765484,(51 -26 -31 2 23 14 14 34)
1969-12-31 18:00:08.809827868,(26 17 41 15 -8 -12 -6 0)
1969-12-31 18:00:08.809827868,(-34 -109 -92 -32 -13 -5 -7 -12)
1969-12-31 18:00:08.821598509,(14 38 51 -2 1 34 30 22)
1969-12-31 18:00:08.821598509,(10 -17 -36 -3 5 -15 -2 18)
1969-12-31 18:00:08.822383218,(4 82 88 59 52 62 22 10)
1969-12-31 18:00:08.822383218,(12 -23 -8 1 -10 -14 -3 5)
1969-12-31 18:00:08.839646825,(10 -24 -22 -5 -2 -10 5 11)
1969-12-31 18:00:08.839646825,(-20 -92 -49 -2 27 -3 -7 -4)
1969-12-31 18:00:08.841216243,(-39 -128 -121 -60 -34 -30 -34 -34)
1969-12-31 18:00:08.841216243,(2 76 37 18 -2 18 20 14)
1969-12-31 18:00:08.856910431,(4 59 70 39 26 15 -3 -21)
1969-12-31 18:00:08.856910431,(13 -23 -45 -18 -32 -14 7 28)
1969-12-31 18:00:08.857695140,(-13 -53 -31 -7 -9 -25 -13 -3)
1969-12-31 18:00:08.857695140,(-3 26 22 2 8 -14 -8 -12)
1969-12-31 18:00:08.867896362,(-24 -128 -94 -37 -12 -5 1 -6)
1969-12-31 18:00:08.867896362,(-7 -56 -49 -31 -17 9 12 6)
1969-12-31 18:00:08.873389328,(-2 113 67 39 16 1 8 -8)
1969-12-31 18:00:08.873389328,(24 -23 26 30 20 0 -8 4)
1969-12-31 18:00:08.885944678,(6 -61 -62 -7 -9 -19 -7 -1)
1969-12-31 18:00:08.886729387,(-47 -49 -16 15 -10 -15 7 -23)
1969-12-31 18:00:08.887514097,(-30 -18 -16 -36 -10 39 -13 -43)
1969-12-31 18:00:08.887514097,(-29 -37 -55 -31 -11 0 -7 -20)
1969-12-31 18:00:08.896930609,(5 76 68 23 19 -6 -10 -8)
1969-12-31 18:00:08.896930609,(19 127 80 26 17 19 -22 -4)
1969-12-31 18:00:08.903992994,(-2 -73 -71 -24 -2 -12 11 15)
1969-12-31 18:00:08.903992994,(33 88 77 14 -13 6 -2 15)
1969-12-31 18:00:08.914978925,(-7 -26 15 1 7 5 6 -2)
1969-12-31 18:00:08.914978925,(6 73 42 22 25 -7 -18 -22)
1969-12-31 18:00:08.926749566,(4 -62 1 13 3 -3 2 -8)
1969-12-31 18:00:08.926749566,(20 30 -31 -21 -28 29 16 10)
1969-12-31 18:00:08.933027241,(-8 -49 -31 -26 -23 -27 -21 -7)
1969-12-31 18:00:08.933027241,(-2 26 29 4 7 11 -3 1)
1969-12-31 18:00:08.934596659,(4 -34 -37 1 13 -5 4 -4)
1969-12-31 18:00:08.934596659,(-23 -33 -12 -12 -16 -6 9 15)
1969-12-31 18:00:08.951075556,(25 49 30 11 -6 -8 -3 9)
1969-12-31 18:00:08.951075556,(23 74 40 22 13 15 20 20)
1969-12-31 18:00:08.952644975,(-15 4 -4 -2 10 -9 -7 17)
1969-12-31 18:00:08.952644975,(-27 -84 -27 -5 -1 -32 -19 -18)
1969-12-31 18:00:08.962846197,(-23 -39 -82 -29 -20 -2 -12 -10)
1969-12-31 18:00:08.962846197,(48 72 91 20 -7 51 58 43)
1969-12-31 18:00:08.963630906,(-2 -65 -49 -17 -18 -19 -4 9)
1969-12-31 18:00:08.963630906,(12 -22 -16 5 18 11 5 10)
1969-12-31 18:00:08.980894513,(30 56 53 29 27 -14 -26 -11)
1969-12-31 18:00:08.980894513,(-5 -18 -10 -5 6 3 2 1)
1969-12-31 18:00:08.981679222,(-4 72 58 7 -11 4 -11 -20)
1969-12-31 18:00:08.981679222,(-15 -45 -17 6 18 12 -13 -21)
1969-12-31 18:00:08.998158119,(-17 -82 -58 -26 -18 -2 22 15)
1969-12-31 18:00:08.998158119,(-15 -60 -42 -18 -6 -16 -6 -5)
1969-12-31 18:00:09.002866375,(32 116 88 37 5 13 17 20)
1969-12-31 18:00:09.002866375,(17 38 45 25 7 -6 -3 13)
1969-12-31 18:00:09.009928760,(13 56 7 -3 -9 0 -1 -2)
1969-12-31 18:00:09.009928760,(-18 -59 -33 -20 -6 -2 -19 -27)
1969-12-31 18:00:09.011498178,(-29 -101 -74 -25 -9 4 4 -6)
1969-12-31 18:00:09.011498178,(-5 -67 -53 -13 -3 -13 1 3)
1969-12-31 18:00:09.027192366,(39 76 12 8 9 24 -4 -7)
1969-12-31 18:00:09.027192366,(-19 -13 7 12 15 -18 -12 -9)
1969-12-31 18:00:09.028761785,(36 110 77 13 -20 -24 -21 1)
1969-12-31 18:00:09.028761785,(-17 -41 -18 17 21 31 31 21)
1969-12-31 18:00:09.051518357,(-71 -128 -102 -66 -44 -23 -9 -15)
1969-12-31 18:00:09.051518357,(-29 -109 -62 -19 -11 -6 1 -13)
1969-12-31 18:00:09.053087775,(23 90 68 20 12 -2 -4 4)
1969-12-31 18:00:09.053087775,(36 127 95 30 18 -9 -24 -42)
1969-12-31 18:00:09.056226613,(-35 -101 -39 7 0 7 9 -5)
1969-12-31 18:00:09.056226613,(-20 5 -31 -13 -21 -9 4 -5)
1969-12-31 18:00:09.061719578,(-8 -38 -20 5 17 -15 2 2)
1969-12-31 18:00:09.061719578,(-6 -50 -43 -39 -34 26 -13 -14)
1969-12-31 18:00:09.075059638,(14 68 62 26 6 -8 17 12)
1969-12-31 18:00:09.075059638,(11 -47 -35 -1 9 5 -8 1)
1969-12-31 18:00:09.075844347,(9 -27 -29 -8 8 19 17 -2)
1969-12-31 18:00:09.075844347,(-17 -6 -17 -12 -13 -27 -17 -14)
1969-12-31 18:00:09.092323244,(19 48 66 22 0 -4 6 16)
1969-12-31 18:00:09.092323244,(-14 -56 -36 -15 -18 -12 -10 -7)
1969-12-31 18:00:09.093107954,(-5 10 26 25 27 -13 8 5)
1969-12-31 18:00:09.093107954,(11 53 33 -7 -4 31 6 -2)
1969-12-31 18:00:09.103309175,(-22 -82 -86 -36 -12 -7 -9 -12)
1969-12-31 18:00:09.103309175,(40 77 73 31 0 -7 14 31)
1969-12-31 18:00:09.108802141,(-41 -77 -59 -14 3 -3 -25 -29)
1969-12-31 18:00:09.108802141,(-3 0 17 -3 -11 -15 6 16)
1969-12-31 18:00:09.121357491,(-2 -29 -48 -16 -8 -4 -12 22)
1969-12-31 18:00:09.121357491,(38 32 31 2 15 0 -11 -10)
1969-12-31 18:00:09.122926910,(25 -37 -24 -1 -3 -21 3 21)
1969-12-31 18:00:09.122926910,(-4 23 24 21 22 31 16 4)
1969-12-31 18:00:09.139405807,(-33 -78 -27 -19 -16 -20 -8 -13)
1969-12-31 18:00:09.139405807,(-29 -14 -51 -28 -11 5 -8 -12)
1969-12-31 18:00:09.140190516,(19 45 30 5 -5 5 13 16)
1969-12-31 18:00:09.140975226,(-21 -47 -65 -11 0 -29 -6 2)
1969-12-31 18:00:09.150391738,(23 67 114 54 40 25 -3 0)
1969-12-31 18:00:09.150391738,(-13 -9 -54 -12 -7 -1 14 -6)
1969-12-31 18:00:09.162162379,(-10 -27 -2 -13 -12 22 7 1)
1969-12-31 18:00:09.162162379,(-10 -22 -7 -6 -6 -16 -18 -18)
1969-12-31 18:00:09.168440054,(22 -35 -33 -10 -5 -4 4 3)
1969-12-31 18:00:09.168440054,(-42 -46 -14 -8 -6 -17 -9 -10)
1969-12-31 18:00:09.170009473,(-7 18 -7 -5 -2 22 3 -2)
1969-12-31 18:00:09.170009473,(7 18 22 5 2 -4 -1 2)
1969-12-31 18:00:09.186488369,(33 68 27 10 13 11 16 12)
1969-12-31 18:00:09.186488369,(-28 -46 8 3 -2 0 -10 -9)
1969-12-31 18:00:09.187273079,(22 14 0 0 -11 -13 -12 0)
1969-12-31 18:00:09.187273079,(30 43 33 12 -4 -16 -9 -4)
1969-12-31 18:00:09.197474301,(-10 0 -8 -1 8 28 26 8)
1969-12-31 18:00:09.197474301,(-12 -11 14 3 5 24 16 14)
1969-12-31 18:00:09.202967266,(-3 -46 -27 -13 -17 -9 -6 -6)
1969-12-31 18:00:09.202967266,(20 6 -19 -12 0 2 8 23)
1969-12-31 18:00:09.215522616,(11 54 43 14 -1 -10 -3 -1)
1969-12-31 18:00:09.215522616,(-2 -4 0 1 -4 -7 -10 -2)
1969-12-31 18:00:09.217092035,(-8 12 11 2 12 20 14 10)
1969-12-31 18:00:09.217092035,(-24 -9 0 10 5 -2 3 -11)
1969-12-31 18:00:09.233570932,(-35 -53 -24 -19 -19 -18 -19 -7)
1969-12-31 18:00:09.233570932,(20 23 8 2 10 23 19 5)
1969-12-31 18:00:09.234355641,(-18 -26 -5 -4 -15 -19 -14 -10)
1969-12-31 18:00:09.234355641,(36 24 7 3 2 0 5 17)
1969-12-31 18:00:09.243772154,(12 21 5 7 5 -5 3 -7)
1969-12-31 18:00:09.243772154,(11 -8 -4 -2 -2 4 -28 0)
1969-12-31 18:00:09.250834538,(-36 -29 -16 -13 -15 -9 24 -2)
1969-12-31 18:00:09.250834538,(-19 0 3 -2 0 -8 -5 -2)
1969-12-31 18:00:09.262605179,(-3 -13 -10 -6 0 18 -37 -18)
1969-12-31 18:00:09.262605179,(4 4 5 -2 -12 -37 43 18)
1969-12-31 18:00:09.264174598,(-11 11 -4 -2 4 22 -11 -13)
1969-12-31 18:00:09.264174598,(25 9 7 0 -2 -3 14 8)
1969-12-31 18:00:09.280653495,(-15 -13 -3 -5 0 9 -19 -6)
1969-12-31 18:00:09.280653495,(39 20 0 0 -11 -34 -12 13)
1969-12-31 18:00:09.281438204,(-18 6 -1 1 5 20 0 -23)
1969-12-31 18:00:09.281438204,(-26 -28 -3 -4 -4 -10 15 -3)
1969-12-31 18:00:09.291639426,(9 -4 -2 2 4 8 -25 -3)
1969-12-31 18:00:09.291639426,(36 35 12 7 13 12 30 11)
1969-12-31 18:00:09.297917101,(20 -3 1 4 -16 -40 -28 9)
1969-12-31 18:00:09.297917101,(-25 -9 -4 -6 2 13 -39 -20)
1969-12-31 18:00:09.310472450,(-11 -4 0 1 0 -8 23 -1)
1969-12-31 18:00:09.310472450,(-13 13 11 12 6 -1 -36 -28)
1969-12-31 18:00:09.311257160,(6 7 0 0 4 14 1 -14)
1969-12-31 18:00:09.311257160,(11 1 -2 -3 -7 -14 13 1)
1969-12-31 18:00:09.327736057,(-9 -10 -11 -8 -15 -30 -45 -20)
1969-12-31 18:00:09.327736057,(-17 -7 1 3 13 67 43 24)
1969-12-31 18:00:09.328520767,(60 37 12 3 -3 -15 31 34)
1969-12-31 18:00:09.328520767,(-22 -14 -10 -7 -12 -13 -24 -29)
1969-12-31 18:00:09.338721989,(28 2 1 2 5 11 24 18)
1969-12-31 18:00:09.338721989,(9 -6 -9 -9 -5 8 -29 -4)
1969-12-31 18:00:09.344999664,(-24 -11 -1 -3 -5 -18 16 7)
1969-12-31 18:00:09.345784373,(-16 1 10 5 11 21 -22 6)
1969-12-31 18:00:09.356770304,(-25 -15 -7 -3 -6 -11 20 -12)
1969-12-31 18:00:09.357555014,(-26 10 1 -5 -4 0 8 -26)
1969-12-31 18:00:09.358339723,(-16 -22 -10 -2 0 -13 -58 -35)
1969-12-31 18:00:09.358339723,(-27 -14 -10 -6 -8 -5 24 20)
1969-12-31 18:00:09.374818620,(-26 -9 -6 -4 2 17 0 -26)
1969-12-31 18:00:09.374818620,(-41 -52 -3 5 3 0 -8 4)
1969-12-31 18:00:09.375603329,(96 79 20 7 6 11 15 33)
1969-12-31 18:00:09.375603329,(-19 24 -1 -4 -4 -7 -1 14)
1969-12-31 18:00:09.385804551,(1 -13 -8 -5 -1 -2 3 -17)
1969-12-31 18:00:09.385804551,(-6 -4 3 2 -2 -14 -3 35)
1969-12-31 18:00:09.392082226,(19 -14 -5 0 2 3 -7 -25)
1969-12-31 18:00:09.392082226,(18 0 7 6 9 10 5 -4)
1969-12-31 18:00:09.403852867,(24 11 5 7 4 0 23 27)
1969-12-31 18:00:09.403852867,(17 27 -1 -8 -11 -19 -27 -16)
1969-12-31 18:00:09.405422286,(-22 -14 -2 0 -1 3 3 0)
1969-12-31 18:00:09.405422286,(7 14 15 12 8 9 9 10)
1969-12-31 18:00:09.421901183,(55 15 -2 -3 -4 -4 7 23)
1969-12-31 18:00:09.421901183,(11 -6 1 1 -1 -1 -2 8)
1969-12-31 18:00:09.422685892,(-15 -11 -8 -3 -1 -3 -22 -20)
1969-12-31 18:00:09.422685892,(-75 -17 -6 -7 -6 -5 -4 -72)
1969-12-31 18:00:09.432887114,(-17 -44 -8 2 1 -4 2 28)
1969-12-31 18:00:09.432887114,(-35 -26 1 4 6 2 -8 -66)
1969-12-31 18:00:09.444657755,(17 54 -10 -18 -17 -9 -4 -7)
1969-12-31 18:00:09.444657755,(-62 -27 5 6 5 -2 -10 -14)
1969-12-31 18:00:09.450935430,(-5 23 3 -2 -3 -5 -3 -7)
1969-12-31 18:00:09.450935430,(43 -2 -7 -5 -7 -4 10 76)
1969-12-31 18:00:09.455643686,(-35 -35 -2 6 8 10 5 -17)
1969-12-31 18:00:09.455643686,(73 16 -4 -2 -1 2 9 38)
1969-12-31 18:00:09.468983745,(-11 4 -10 -20 -12 -7 -1 -6)
1969-12-31 18:00:09.468983745,(11 6 11 23 11 1 0 4)
1969-12-31 18:00:09.470553164,(-18 -11 4 2 4 3 6 11)
1969-12-31 18:00:09.470553164,(27 13 7 13 2 0 1 19)
1969-12-31 18:00:09.479969677,(-12 -12 -10 -4 0 0 4 3)
1969-12-31 18:00:09.479969677,(-21 -2 -17 -22 -10 -9 -12 -21)
1969-12-31 18:00:09.487032061,(2 9 25 17 6 3 4 5)
1969-12-31 18:00:09.487032061,(5 -4 -3 -3 -3 -1 -5 -20)
1969-12-31 18:00:09.498802702,(-4 -9 2 3 1 -1 1 7)
1969-12-31 18:00:09.498802702,(-9 -3 -31 -25 -14 -11 -12 -39)
1969-12-31 18:00:09.499587411,(26 4 0 -6 -3 2 5 13)
1969-12-31 18:00:09.499587411,(-15 -18 -26 -8 -3 -3 0 2)
1969-12-31 18:00:09.516066308,(-13 67 92 31 11 1 -2 -10)
1969-12-31 18:00:09.516066308,(-8 13 2 8 0 1 1 2)
1969-12-31 18:00:09.516851017,(-31 -70 -61 -25 -9 -5 -3 -4)
1969-12-31 18:00:09.516851017,(39 79 91 43 14 8 7 14)
1969-12-31 18:00:09.527052239,(-14 -5 -13 -1 2 6 1 -22)
1969-12-31 18:00:09.527052239,(-14 -14 -14 -10 -8 -9 -8 -7)
1969-12-31 18:00:09.533329914,(-5 -32 -24 -9 -3 -2 4 10)
1969-12-31 18:00:09.533329914,(10 -5 -8 -8 1 2 2 5)
1969-12-31 18:00:09.545100555,(-9 -13 -28 -12 -8 -5 -4 -8)
1969-12-31 18:00:09.545100555,(13 24 48 13 2 1 2 4)
1969-12-31 18:00:09.550593521,(-21 -35 -29 -12 -6 -4 -3 -3)
1969-12-31 18:00:09.550593521,(7 -18 -34 -6 5 11 19 18)
1969-12-31 18:00:09.563148871,(0 20 8 3 -3 -7 -15 -8)
1969-12-31 18:00:09.563148871,(9 36 28 6 2 2 -4 -7)
1969-12-31 18:00:09.563933580,(-14 -4 18 11 -2 -2 0 1)
1969-12-31 18:00:09.563933580,(-1 -13 -26 -7 -2 -4 -8 -6)
1969-12-31 18:00:09.574134802,(5 -60 -25 2 5 10 27 24)
1969-12-31 18:00:09.574134802,(-5 29 1 -5 -4 -10 -21 -19)
1969-12-31 18:00:09.581197186,(-8 15 9 6 4 3 1 -3)
1969-12-31 18:00:09.581197186,(-2 -83 -70 -31 -14 -6 -2 3)
1969-12-31 18:00:09.592183118,(16 93 79 35 6 -3 -1 1)
1969-12-31 18:00:09.592183118,(-8 -20 -13 -5 1 2 -1 1)
1969-12-31 18:00:09.597676083,(-4 -14 1 4 3 2 6 11)
1969-12-31 18:00:09.597676083,(7 35 21 0 3 7 9 6)
1969-12-31 18:00:09.610231433,(-8 -31 -40 -19 -7 -6 -1 2)
1969-12-31 18:00:09.610231433,(-8 2 12 10 2 -4 -11 -21)
1969-12-31 18:00:09.611016143,(-5 -11 3 -2 0 3 8 3)
1969-12-31 18:00:09.611016143,(0 1 -20 -8 -3 -4 -3 1)
1969-12-31 18:00:09.621217364,(4 21 29 3 -1 -3 -2 1)
1969-12-31 18:00:09.621217364,(-1 -10 -10 -6 -3 -1 2 4)
1969-12-31 18:00:09.628279749,(-10 -13 -14 1 0 0 -8 -11)
1969-12-31 18:00:09.628279749,(3 -6 10 -7 -7 -5 -4 -6)
1969-12-31 18:00:09.639265680,(-7 6 -6 5 4 0 1 -2)
1969-12-31 18:00:09.639265680,(2 -13 -22 -1 -2 0 3 6)
1969-12-31 18:00:09.644758646,(-11 -3 23 6 -1 -4 -2 -2)
1969-12-31 18:00:09.644758646,(11 46 6 3 1 -3 -15 -9)
1969-12-31 18:00:09.656529286,(-19 -61 -57 -25 -12 -7 -8 -11)
1969-12-31 18:00:09.656529286,(8 46 32 10 5 3 2 4)
1969-12-31 18:00:09.663591671,(-19 -47 -30 -7 -3 1 3 2)
1969-12-31 18:00:09.663591671,(10 44 62 16 3 -4 -3 -5)
1969-12-31 18:00:09.674577602,(3 -25 -22 -10 2 5 2 3)
1969-12-31 18:00:09.674577602,(-5 -1 -13 -6 -3 -1 3 -1)
1969-12-31 18:00:09.676147021,(17 26 -7 1 10 8 7 7)
1969-12-31 18:00:09.676147021,(-4 -1 24 6 -10 -6 -3 2)
1969-12-31 18:00:09.686348243,(0 0 -9 -2 6 0 -8 -3)
1969-12-31 18:00:09.686348243,(-7 -29 -9 -7 2 1 5 0)
1969-12-31 18:00:09.691841208,(1 13 7 -3 -3 -2 -4 -2)
1969-12-31 18:00:09.691841208,(-11 -36 -5 -8 -3 -3 -1 -4)
1969-12-31 18:00:09.705181268,(16 33 -5 9 4 1 3 5)
1969-12-31 18:00:09.705181268,(-3 -3 -8 2 -2 -3 -3 -6)
1969-12-31 18:00:09.705965977,(5 28 27 7 4 2 0 1)
1969-12-31 18:00:09.705965977,(-25 -87 -65 -34 -11 -2 3 4)
1969-12-31 18:00:09.727937840,(23 66 72 29 5 -1 -6 -5)
1969-12-31 18:00:09.727937840,(2 -17 -12 3 4 2 2 4)
1969-12-31 18:00:09.729507259,(9 16 -14 -7 -5 -3 0 3)
1969-12-31 18:00:09.729507259,(-1 3 6 7 2 3 4 4)
1969-12-31 18:00:09.733430805,(-31 -86 -53 -31 -15 -8 -8 -11)
1969-12-31 18:00:09.733430805,(5 21 36 17 6 2 3 0)
1969-12-31 18:00:09.751479121,(18 45 35 10 1 1 1 6)
1969-12-31 18:00:09.751479121,(8 26 4 3 1 0 -1 -1)
1969-12-31 18:00:09.752263831,(-11 -18 -1 -4 -5 -4 -2 0)
1969-12-31 18:00:09.752263831,(4 12 -2 -1 -3 -1 -3 -3)
1969-12-31 18:00:09.753833249,(-6 -9 -23 -16 -8 -4 -3 -6)
1969-12-31 18:00:09.753833249,(-7 -14 -1 2 0 0 -7 -7)
1969-12-31 18:00:09.769527437,(11 38 58 20 7 4 4 7)
1969-12-31 18:00:09.769527437,(-15 -46 -37 -14 -4 -3 -1 1)
1969-12-31 18:00:09.770312146,(-3 -16 -7 -4 -1 -1 -3 -1)
1969-12-31 18:00:09.770312146,(5 11 -2 7 3 -2 -2 -1)
1969-12-31 18:00:09.780513368,(7 0 -19 -10 -7 -4 -1 3)
1969-12-31 18:00:09.780513368,(-12 -26 -8 -10 -6 -3 -4 -6)
1969-12-31 18:00:09.786006334,(-4 -5 -3 -3 0 -1 -1 -2)
1969-12-31 18:00:09.786006334,(-4 5 -1 2 1 -1 -5 -6)
1969-12-31 18:00:09.798561684,(-4 -28 -28 -14 -3 -2 -2 2)
1969-12-31 18:00:09.798561684,(4 17 4 -4 -1 -1 1 3)
1969-12-31 18:00:09.799346393,(-10 -41 -11 -6 -5 -3 -2 -4)
1969-12-31 18:00:09.799346393,(7 25 8 5 6 2 1 -2)
1969-12-31 18:00:09.815825290,(-3 -2 9 6 0 1 1 0)
1969-12-31 18:00:09.815825290,(4 -9 -36 -12 -5 -1 1 2)
1969-12-31 18:00:09.817394709,(-5 -9 4 3 2 2 -1 -4)
1969-12-31 18:00:09.817394709,(-7 -10 -7 -6 -4 -2 -3 -4)
1969-12-31 18:00:09.827595931,(1 2 -22 -11 -3 -1 1 1)
1969-12-31 18:00:09.827595931,(-5 5 39 11 1 1 1 -1)
1969-12-31 18:00:09.832304187,(2 17 5 5 -1 0 1 0)
1969-12-31 18:00:09.833088896,(9 15 11 4 0 2 1 2)
1969-12-31 18:00:09.845644246,(-6 1 0 0 -3 -1 -3 -6)
1969-12-31 18:00:09.845644246,(-2 -9 -12 -6 0 -3 1 1)
1969-12-31 18:00:09.847213665,(7 30 13 4 3 1 3 2)
1969-12-31 18:00:09.847213665,(-2 -18 -4 2 0 -1 0 -2)
1969-12-31 18:00:09.863692562,(-3 -12 -4 -5 -3 -1 -1 0)
1969-12-31 18:00:09.863692562,(2 11 6 4 2 2 2 2)
1969-12-31 18:00:09.864477271,(8 36 11 2 1 1 0 0)
1969-12-31 18:00:09.864477271,(-4 -11 7 3 2 0 1 1)
1969-12-31 18:00:09.881740878,(-7 -21 -5 -1 -2 -2 -4 -4)
1969-12-31 18:00:09.881740878,(11 37 24 14 5 2 0 0)
1969-12-31 18:00:09.882525587,(-5 -8 -4 -5 -3 -4 -5 -5)
1969-12-31 18:00:09.882525587,(-3 -10 -9 -7 -3 -1 0 0)
1969-12-31 18:00:09.892726809,(0 2 0 1 1 1 0 -2)
1969-12-31 18:00:09.892726809,(-9 -15 -14 -12 -5 -2 -2 -4)
1969-12-31 18:00:09.894296228,(5 7 6 4 1 -1 -2 -1)
1969-12-31 18:00:09.894296228,(-2 0 -5 -5 -3 -1 -1 -1)
1969-12-31 18:00:09.910775125,(3 2 -7 -2 -1 3 3 5)
1969-12-31 18:00:09.910775125,(-5 -11 -6 -6 -2 -3 -4 -4)
1969-12-31 18:00:09.911559833,(-3 1 0 2 -1 -2 -1 -4)
1969-12-31 18:00:09.911559833,(3 3 0 -5 -5 0 2 4)
1969-12-31 18:00:09.920976347,(2 6 -3 1 2 2 -1 -1)
1969-12-31 18:00:09.920976347,(-3 -12 -6 -4 -5 -1 0 2)
1969-12-31 18:00:09.932746987,(-3 -4 6 -1 0 1 1 3)
1969-12-31 18:00:09.932746987,(0 7 1 -1 1 -3 -11 -11)
1969-12-31 18:00:09.945302337,(3 3 -2 -2 -5 -6 -4 -2)
1969-12-31 18:00:09.946087047,(-2 -5 5 8 5 7 4 0)
1969-12-31 18:00:09.946871756,(1 7 2 1 2 0 -3 -1)
1969-12-31 18:00:09.946871756,(-2 -3 -3 2 1 0 -3 -5)
1969-12-31 18:00:09.963350653,(1 2 -8 -4 2 3 9 8)
1969-12-31 18:00:09.963350653,(-3 0 -1 1 -1 -4 -7 -9)
1969-12-31 18:00:09.964135362,(-4 -7 -11 -6 -2 -4 -1 -1)
1969-12-31 18:00:09.964135362,(-2 -10 -6 -4 -3 -2 -2 0)
1969-12-31 18:00:09.968058909,(-3 4 -1 -1 -3 -4 -6 -3)
1969-12-31 18:00:09.968058909,(-1 -9 -4 -2 -2 1 0 2)
1969-12-31 18:00:09.975121294,(1 -5 -6 -3 1 2 1 1)
1969-12-31 18:00:09.975121294,(-1 7 4 1 0 0 0 0)
1969-12-31 18:00:09.987676644,(1 1 2 0 2 -2 -2 -2)
1969-12-31 18:00:09.987676644,(-2 -10 -13 -8 -6 -3 -1 -1)
1969-12-31 18:00:09.989246062,(-3 -5 -1 -1 -2 -3 -6 -3)
1969-12-31 18:00:09.989246062,(-3 -1 -2 1 0 -2 1 -1)
1969-12-31 18:00:10.004940250,(-2 -1 0 1 0 -1 -1 -2)
1969-12-31 18:00:10.004940250,(-1 -2 -2 -2 1 0 -1 0)
1969-12-31 18:00:10.005724959,(0 0 2 1 -2 0 -1 -1)
1969-12-31 18:00:10.005724959,(-1 1 1 -1 -2 -3 -1 0)
1969-12-31 18:00:10.015141472,(0 1 0 2 -1 1 2 0)
1969-12-31 18:00:10.015141472,(1 0 -3 -1 -2 0 -2 1)
1969-12-31 18:00:10.022203856,(-1 -1 1 -1 -1 -2 0 -1)
1969-12-31 18:00:10.022203856,(-1 4 7 6 6 3 -4 -6)
1969-12-31 18:00:10.033974497,(-3 -4 -10 -6 -6 -4 -4 -3)
1969-12-31 18:00:10.034759206,(2 0 -2 -7 -5 -4 1 3)
1969-12-31 18:00:10.035543915,(-3 -6 -5 -2 -4 -1 -1 -3)
1969-12-31 18:00:10.035543915,(0 3 2 2 2 -1 0 0)
1969-12-31 18:00:10.052022813,(1 1 2 4 3 4 1 -1)
1969-12-31 18:00:10.052022813,(-2 -1 -2 2 3 -1 -1 -1)
1969-12-31 18:00:10.052807522,(-2 -3 -7 -4 -5 -2 -2 -3)
1969-12-31 18:00:10.052807522,(-2 -3 -1 -2 0 -1 0 1)
1969-12-31 18:00:10.069286419,(-1 -2 -1 -4 -3 -2 0 -2)
1969-12-31 18:00:10.069286419,(-3 -5 -3 -3 -2 -5 -3 -1)
1969-12-31 18:00:10.070071128,(0 2 9 6 4 1 1 0)
1969-12-31 18:00:10.070855838,(-2 -3 -4 -4 -3 -1 -1 -1)
1969-12-31 18:00:10.081057060,(1 2 3 4 5 2 1 0)
1969-12-31 18:00:10.081057060,(-1 -1 1 1 0 0 0 0)
1969-12-31 18:00:10.081841769,(-2 -1 0 -1 -2 -1 -1 -1)
1969-12-31 18:00:10.081841769,(-1 -5 -8 -5 -6 -1 -1 1)
1969-12-31 18:00:10.081841769,(-1 1 -1 0 -3 -2 -1 -2)
1969-12-31 18:00:10.081841769,(-1 -2 -3 -3 -2 -1 -1 -2)
1969-12-31 18:00:10.088119444,(0 -1 0 -3 0 1 -1 1)
1969-12-31 18:00:10.088119444,(1 -3 -3 -3 -1 0 0 -1)
1969-12-31 18:00:10.092827700,(-2 0 -2 -1 -4 -2 -4 1)
1969-12-31 18:00:10.092827700,(0 -1 0 0 0 0 -1 -2)
1969-12-31 18:00:10.099890085,(-2 -1 -1 1 0 0 0 -1)
1969-12-31 18:00:10.099890085,(0 0 -2 -1 -1 -1 -1 0)
1969-12-31 18:00:10.111660725,(2 1 3 3 2 2 2 1)
1969-12-31 18:00:10.111660725,(-1 1 1 -1 -3 -2 -2 0)
1969-12-31 18:00:10.113230144,(-3 -4 -5 -1 0 -1 -1 -2)
1969-12-31 18:00:10.113230144,(-2 -1 -2 -1 1 -1 -2 0)
1969-12-31 18:00:10.129709041,(1 -2 0 1 0 -1 1 0)
1969-12-31 18:00:10.129709041,(-2 -2 -2 -2 -1 -2 -1 -1)
1969-12-31 18:00:10.130493750,(0 3 2 1 1 0 1 0)
1969-12-31 18:00:10.130493750,(0 2 4 4 4 0 0 1)
1969-12-31 18:00:10.139910263,(-3 -3 -4 -6 -3 -1 -2 -1)
1969-12-31 18:00:10.139910263,(0 1 1 6 1 0 -2 0)
1969-12-31 18:00:10.146972647,(-2 0 -1 -1 -2 -1 -1 -2)
1969-12-31 18:00:10.146972647,(-2 -4 -5 -1 -3 -3 0 -2)
1969-12-31 18:00:10.158743288,(2 0 -2 -4 -3 -1 -3 -1)
1969-12-31 18:00:10.158743288,(-3 -5 -6 -5 -3 0 -2 -3)
1969-12-31 18:00:10.160312707,(0 1 1 -4 -4 -6 7 1)
1969-12-31 18:00:10.160312707,(1 3 7 10 4 -4 -13 -1)
1969-12-31 18:00:10.176791604,(-1 -3 -6 2 5 -2 -4 -1)
1969-12-31 18:00:10.176791604,(-5 -8 -15 -26 -30 -5 -7 -5)
1969-12-31 18:00:10.177576313,(0 -2 -5 11 29 16 28 7)
1969-12-31 18:00:10.177576313,(-5 -4 -9 -27 -4 -2 6 0)
1969-12-31 18:00:10.186992826,(-1 3 11 23 -1 -9 -21 -6)
1969-12-31 18:00:10.186992826,(10 10 3 17 2 6 -1 1)
1969-12-31 18:00:10.194055210,(3 5 31 29 5 -9 -24 0)
1969-12-31 18:00:10.194055210,(-6 -10 -19 -60 -17 5 10 -4)
1969-12-31 18:00:10.205041141,(-4 -13 -35 -3 -12 -13 -13 -3)
1969-12-31 18:00:10.205041141,(-4 9 34 41 20 10 8 -2)
1969-12-31 18:00:10.216811782,(0 1 4 -6 -6 12 7 1)
1969-12-31 18:00:10.216811782,(-3 4 -13 -4 -26 -2 11 4)
1969-12-31 18:00:10.223874166,(-6 -3 16 -8 17 -16 -36 -1)
1969-12-31 18:00:10.223874166,(4 -10 -22 -32 -12 4 24 11)
1969-12-31 18:00:10.224658876,(8 -3 3 29 8 -1 3 3)
1969-12-31 18:00:10.224658876,(-2 4 -6 -12 11 -5 -23 -18)
1969-12-31 18:00:10.234075388,(-6 -4 0 -28 -23 3 -13 -18)
1969-12-31 18:00:10.234075388,(-10 -9 -24 -3 -2 -16 -16 -20)
1969-12-31 18:00:10.241137773,(-10 -13 -33 -43 -2 0 -2 -10)
1969-12-31 18:00:10.241137773,(6 6 32 50 -2 0 15 7)
1969-12-31 18:00:10.252123704,(0 -1 2 16 1 10 18 2)
1969-12-31 18:00:10.252123704,(6 13 -12 -23 11 1 -4 3)
1969-12-31 18:00:10.259186088,(-1 2 43 13 -12 -2 1 2)
1969-12-31 18:00:10.259186088,(-6 -3 -23 -35 -14 -15 -19 -10)
1969-12-31 18:00:10.270956729,(-1 -1 28 56 19 11 17 7)
1969-12-31 18:00:10.270956729,(-3 -11 -11 -16 0 -1 -1 5)
1969-12-31 18:00:10.271741438,(3 8 -9 10 -5 -7 -6 3)
1969-12-31 18:00:10.271741438,(5 5 25 25 16 10 0 6)
1969-12-31 18:00:10.288220334,(0 2 10 8 10 6 13 4)
1969-12-31 18:00:10.288220334,(-9 -22 -38 -72 -26 -10 -3 -1)
1969-12-31 18:00:10.289789754,(-5 0 -22 18 0 -5 -11 -7)
1969-12-31 18:00:10.289789754,(8 19 55 40 22 11 4 5)
1969-12-31 18:00:10.306268651,(-4 -4 -17 -25 -11 -1 7 -2)
1969-12-31 18:00:10.306268651,(0 -1 14 23 10 6 -1 2)
1969-12-31 18:00:10.307053360,(-14 -33 -27 -42 -15 -6 -10 -10)
1969-12-31 18:00:10.307053360,(-1 -20 -11 1 2 1 7 1)
1969-12-31 18:00:10.318039292,(2 5 -11 -12 -6 -3 6 0)
1969-12-31 18:00:10.318039292,(2 14 15 18 4 -4 -5 -4)
1969-12-31 18:00:10.318824001,(0 24 6 -2 2 -2 -1 0)
1969-12-31 18:00:10.318824001,(6 10 -16 2 0 -1 1 3)
1969-12-31 18:00:10.335302898,(11 13 4 -5 -3 0 4 3)
1969-12-31 18:00:10.335302898,(10 11 6 9 4 1 -1 -1)
1969-12-31 18:00:10.336872317,(8 9 4 -3 3 5 4 4)
1969-12-31 18:00:10.336872317,(-3 -12 -15 -6 -1 -2 -3 -2)
1969-12-31 18:00:10.347073538,(-5 -10 -20 -18 -4 2 4 1)
1969-12-31 18:00:10.347073538,(-10 -20 23 23 5 2 -1 -2)
1969-12-31 18:00:10.353351213,(-2 -3 -10 -6 -6 -3 -3 -2)
1969-12-31 18:00:10.353351213,(-15 0 1 9 2 0 -4 -11)
1969-12-31 18:00:10.371399529,(12 0 -5 -5 -3 2 9 8)
1969-12-31 18:00:10.371399529,(-15 -15 -3 8 0 -4 -6 -2)
1969-12-31 18:00:10.372184239,(-4 -22 -6 -5 -4 0 0 3)
1969-12-31 18:00:10.372184239,(1 -9 -8 -3 -3 -6 -6 4)
1969-12-31 18:00:10.382385460,(-9 1 7 -1 1 1 -3 -13)
1969-12-31 18:00:10.382385460,(1 -4 5 8 -1 0 5 7)
1969-12-31 18:00:10.383170170,(-12 -2 0 -7 -5 -2 -13 -27)
1969-12-31 18:00:10.383170170,(40 17 4 4 3 4 20 63)
1969-12-31 18:00:10.393371392,(-2 -10 -6 -6 -3 0 2 6)
1969-12-31 18:00:10.393371392,(-18 0 1 2 0 -5 -8 -8)
1969-12-31 18:00:10.398864357,(2 9 0 0 1 2 8 1)
1969-12-31 18:00:10.398864357,(-6 1 1 2 0 -3 -3 -1)
1969-12-31 18:00:10.412204417,(-5 3 0 -3 -3 -6 -14 -26)
1969-12-31 18:00:10.412204417,(21 15 1 0 1 1 4 15)
1969-12-31 18:00:10.412989126,(-1 -23 -11 -9 -8 -5 -8 -19)
1969-12-31 18:00:10.412989126,(-9 3 0 1 1 2 13 19)
1969-12-31 18:00:10.429468023,(-6 2 -2 -3 -2 1 2 -35)
1969-12-31 18:00:10.429468023,(22 18 8 5 2 -1 -47 14)
1969-12-31 18:00:10.430252732,(-82 -33 -13 -9 -9 -18 -9 -25)
1969-12-31 18:00:10.430252732,(23 31 11 5 4 4 11 -1)
1969-12-31 18:00:10.440453954,(12 -8 -10 -6 -2 1 -10 -4)
1969-12-31 18:00:10.440453954,(-19 -14 -6 -6 -3 -1 27 16)
1969-12-31 18:00:10.445946920,(9 20 9 0 0 -1 -9 -18)
1969-12-31 18:00:10.445946920,(-22 -12 -4 -2 -1 -9 -14 -14)
1969-12-31 18:00:10.459286979,(-29 -21 -1 -1 3 10 18 6)
1969-12-31 18:00:10.459286979,(30 23 4 2 1 4 -1 -17)
1969-12-31 18:00:10.460071689,(-6 -10 -3 1 1 -2 -9 -20)
1969-12-31 18:00:10.460071689,(-52 -24 -2 -3 -1 -6 -28 -74)
1969-12-31 18:00:10.476550586,(71 51 18 9 5 11 2 49)
1969-12-31 18:00:10.476550586,(-53 -28 -16 -7 -8 -1 28 1)
1969-12-31 18:00:10.477335295,(33 3 5 0 -1 -5 20 29)
1969-12-31 18:00:10.477335295,(-73 -14 -23 -14 -12 -15 -49 -80)
1969-12-31 18:00:10.487536517,(-30 -42 -14 -3 2 21 17 -19)
1969-12-31 18:00:10.487536517,(19 12 -3 -5 -15 -31 -11 5)
1969-12-31 18:00:10.493814192,(6 3 8 5 1 -28 -24 -2)
1969-12-31 18:00:10.493814192,(3 -18 2 3 10 39 14 14)
1969-12-31 18:00:10.511862508,(30 9 -1 -3 -8 -20 -9 42)
1969-12-31 18:00:10.511862508,(36 17 5 1 7 26 2 26)
1969-12-31 18:00:10.513431926,(-1 20 2 -3 -9 -14 25 -7)
1969-12-31 18:00:10.513431926,(-25 -24 -9 -2 -1 5 -3 -37)
1969-12-31 18:00:10.523633148,(-47 -19 -6 -1 0 -9 7 -1)
1969-12-31 18:00:10.523633148,(-14 -11 3 4 3 -5 6 16)
1969-12-31 18:00:10.525202567,(119 47 8 0 2 21 2 27)
1969-12-31 18:00:10.525202567,(-9 -2 0 1 5 25 35 34)
1969-12-31 18:00:10.534619080,(-3 22 8 -1 -12 -63 -75 -24)
1969-12-31 18:00:10.534619080,(-28 -3 1 2 3 -25 -3 -37)
1969-12-31 18:00:10.541681464,(-59 -31 -3 2 10 46 -6 -17)
1969-12-31 18:00:10.541681464,(4 -12 -2 0 -8 -26 28 57)
1969-12-31 18:00:10.553452105,(32 7 -1 1 6 32 12 -2)
1969-12-31 18:00:10.553452105,(-65 -16 -1 1 4 17 -9 -80)
1969-12-31 18:00:10.554236814,(32 14 4 2 -1 -34 -8 52)
1969-12-31 18:00:10.554236814,(19 18 6 -1 -1 0 -13 15)
1969-12-31 18:00:10.570715711,(15 -5 -3 2 2 -16 5 3)
1969-12-31 18:00:10.570715711,(6 1 2 0 -6 -9 -14 -17)
1969-12-31 18:00:10.571500420,(-36 -14 -17 -8 -3 22 10 -14)
1969-12-31 18:00:10.571500420,(-2 25 16 5 -4 -23 6 -29)
1969-12-31 18:00:10.581701642,(-6 -34 -19 -14 -5 16 -11 -18)
1969-12-31 18:00:10.581701642,(26 27 7 3 6 8 -6 5)
1969-12-31 18:00:10.587979317,(-26 -19 0 2 0 -13 -13 -8)
1969-12-31 18:00:10.587979317,(4 11 -4 -3 -2 -10 -7 -10)
1969-12-31 18:00:10.600534667,(68 31 9 2 0 -9 19 57)
1969-12-31 18:00:10.600534667,(-31 -30 -20 -11 -1 34 30 41)
1969-12-31 18:00:10.601319377,(56 23 3 -3 -10 -15 -29 -31)
1969-12-31 18:00:10.601319377,(14 4 0 1 1 -5 30 5)
1969-12-31 18:00:10.617798274,(-31 -2 6 5 4 10 19 -29)
1969-12-31 18:00:10.617798274,(-38 -3 12 11 9 -13 -52 -43)
1969-12-31 18:00:10.618582983,(84 33 7 0 -1 21 31 80)
1969-12-31 18:00:10.619367692,(-65 -51 -28 -21 -21 -38 -23 -20)
1969-12-31 18:00:10.628784205,(9 1 1 0 1 5 17 9)
1969-12-31 18:00:10.628784205,(-42 15 13 7 4 6 35 4)
1969-12-31 18:00:10.635846589,(-67 -44 -14 -7 -2 -4 -24 -59)
1969-12-31 18:00:10.635846589,(127 48 1 -3 -1 6 -1 32)
1969-12-31 18:00:10.646832521,(-101 -28 -6 0 0 4 -5 -43)
1969-12-31 18:00:10.646832521,(60 -4 -14 -13 -12 -20 -6 61)
1969-12-31 18:00:10.648401939,(-28 0 10 8 14 16 20 32)
1969-12-31 18:00:10.648401939,(50 11 -1 -1 0 18 15 23)
1969-12-31 18:00:10.671158511,(-73 -23 -5 -4 -8 -16 1 -21)
1969-12-31 18:00:10.671158511,(9 31 18 13 10 18 2 -35)
1969-12-31 18:00:10.671943221,(5 -14 -7 -4 -2 -11 3 23)
1969-12-31 18:00:10.671943221,(32 -14 -16 -13 -2 27 30 12)
1969-12-31 18:00:10.675866768,(-43 1 8 6 -3 -27 5 -46)
1969-12-31 18:00:10.675866768,(36 -3 -4 -8 -3 13 -26 -58)
1969-12-31 18:00:10.694699793,(8 3 -9 -10 -10 1 15 63)
1969-12-31 18:00:10.694699793,(-8 11 7 4 3 -3 -22 2)
1969-12-31 18:00:10.695484502,(17 30 18 7 8 16 -7 -1)
1969-12-31 18:00:10.695484502,(-23 -45 -13 -1 -1 -7 28 44)
1969-12-31 18:00:10.696269211,(-74 -17 -8 -6 -4 -9 -15 -87)
1969-12-31 18:00:10.696269211,(92 19 4 3 4 6 -7 40)
1969-12-31 18:00:10.711963399,(-2 5 -4 -4 -2 3 2 1)
1969-12-31 18:00:10.711963399,(13 15 -1 -4 -11 -23 -15 7)
1969-12-31 18:00:10.712748108,(22 14 10 6 3 5 -4 -1)
1969-12-31 18:00:10.712748108,(-95 -44 -6 3 3 7 1 -8)
1969-12-31 18:00:10.722949330,(15 2 -2 -6 -4 -6 -3 17)
1969-12-31 18:00:10.722949330,(11 -5 -1 -1 1 9 -9 -7)
1969-12-31 18:00:10.729227005,(-32 11 10 7 8 34 22 -13)
1969-12-31 18:00:10.730011715,(0 -13 -7 -7 -13 -50 -82 -38)
1969-12-31 18:00:10.741782355,(-14 11 4 4 -1 -11 -20 -9)
1969-12-31 18:00:10.741782355,(20 -4 -13 -7 -4 5 32 22)
1969-12-31 18:00:10.743351774,(-22 -7 -3 -4 -4 -24 -13 1)
1969-12-31 18:00:10.743351774,(9 19 12 7 10 35 46 31)
1969-12-31 18:00:10.759045962,(22 -14 -2 -1 2 21 -25 18)
1969-12-31 18:00:10.759045962,(-10 22 18 14 9 -12 -8 -27)
1969-12-31 18:00:10.760615380,(22 8 -4 -5 -4 1 5 -5)
1969-12-31 18:00:10.760615380,(35 -12 -7 -3 -7 -31 -8 35)
1969-12-31 18:00:10.770031893,(15 -1 -7 -5 -4 1 8 27)
1969-12-31 18:00:10.770031893,(-18 16 5 2 -3 1 10 5)
1969-12-31 18:00:10.777094277,(-4 -20 0 6 5 -10 -9 -3)
1969-12-31 18:00:10.777094277,(-16 0 1 -1 6 27 52 5)
1969-12-31 18:00:10.788864918,(53 -3 -9 -4 -2 -5 -12 -14)
1969-12-31 18:00:10.788864918,(-8 -12 -4 0 -3 -14 -29 -51)
1969-12-31 18:00:10.789649627,(-12 -3 -5 -5 -7 -20 -5 -14)
1969-12-31 18:00:10.789649627,(-41 -16 -1 2 3 27 21 -22)
1969-12-31 18:00:10.806128524,(-5 15 8 7 5 -6 4 -11)
1969-12-31 18:00:10.806128524,(17 21 -7 -9 -9 2 -21 -32)
1969-12-31 18:00:10.807697943,(-32 -55 -18 -10 -4 -1 6 -16)
1969-12-31 18:00:10.807697943,(-46 -8 -4 -4 -8 -17 -54 -18)
1969-12-31 18:00:10.817114455,(26 13 3 0 13 22 29 37)
1969-12-31 18:00:10.817114455,(16 17 14 10 -13 -25 12 4)
1969-12-31 18:00:10.824176840,(-63 -17 -2 4 9 10 -13 -6)
1969-12-31 18:00:10.824176840,(-14 -35 -29 -28 -27 10 -20 -19)
1969-12-31 18:00:10.835947481,(-36 -18 -14 -19 -23 -10 -19 -52)
1969-12-31 18:00:10.835947481,(19 -26 -12 -13 4 7 -2 35)
1969-12-31 18:00:10.836732190,(19 35 23 35 34 14 14 -5)
1969-12-31 18:00:10.836732190,(16 44 12 0 -20 -3 8 5)
1969-12-31 18:00:10.853211087,(2 -26 -10 -11 13 32 13 16)
1969-12-31 18:00:10.853211087,(-60 -18 -7 -14 -27 -34 -2 -5)
1969-12-31 18:00:10.853995796,(18 9 -5 -8 -10 -13 -16 -19)
1969-12-31 18:00:10.853995796,(26 12 6 10 22 26 -4 -20)
1969-12-31 18:00:10.864197018,(-40 2 -2 3 1 31 -56 -39)
1969-12-31 18:00:10.864197018,(10 -19 -5 5 18 -8 7 30)
1969-12-31 18:00:10.870474693,(30 26 10 8 -9 -25 -10 -35)
1969-12-31 18:00:10.871259402,(-37 -10 -5 -9 0 5 -26 -40)
1969-12-31 18:00:10.882245334,(4 11 1 -5 0 -10 -1 24)
1969-12-31 18:00:10.882245334,(-5 -12 -3 2 7 43 23 30)
1969-12-31 18:00:10.887738299,(25 1 -13 -19 -31 -33 4 24)
1969-12-31 18:00:10.887738299,(26 43 24 15 8 -27 -5 -6)
1969-12-31 18:00:10.900293649,(-11 -37 -12 3 1 3 26 9)
1969-12-31 18:00:10.900293649,(-23 -9 -3 -5 -27 -30 17 -1)
1969-12-31 18:00:10.901863068,(18 10 5 1 9 25 32 65)
1969-12-31 18:00:10.901863068,(1 -3 5 13 35 -5 17 -11)
1969-12-31 18:00:10.911279581,(-85 -9 -3 -5 -34 -36 -11 -49)
1969-12-31 18:00:10.911279581,(5 -10 -1 11 41 29 -10 -14)
1969-12-31 18:00:10.918341965,(20 -1 -6 -15 15 38 -18 26)
1969-12-31 18:00:10.918341965,(45 -13 -5 5 -22 -40 28 48)
1969-12-31 18:00:10.929327896,(11 14 7 -4 -26 -13 7 7)
1969-12-31 18:00:10.929327896,(27 1 -2 -8 -3 12 5 12)
1969-12-31 18:00:10.934820862,(5 30 13 5 1 -3 -4 6)
1969-12-31 18:00:10.934820862,(-61 -36 -13 -6 17 4 -9 -17)
1969-12-31 18:00:10.947376212,(-3 11 6 9 10 -8 5 -7)
1969-12-31 18:00:10.947376212,(-20 -5 -10 -11 -20 -2 3 15)
1969-12-31 18:00:10.948945631,(-21 -3 5 3 8 -4 -10 -2)
1969-12-31 18:00:10.948945631,(-29 7 5 10 -5 -16 -15 -30)
1969-12-31 18:00:10.958362143,(23 12 2 6 12 18 0 13)
1969-12-31 18:00:10.958362143,(33 -8 -16 -24 -12 21 -8 -40)
1969-12-31 18:00:10.965424528,(30 -1 2 0 -15 -34 -13 35)
1969-12-31 18:00:10.965424528,(-12 -12 -3 2 -3 12 17 21)
1969-12-31 18:00:10.975625750,(31 7 3 4 27 11 8 6)
1969-12-31 18:00:10.975625750,(37 23 -4 -14 -17 -38 -17 -7)
1969-12-31 18:00:10.982688134,(-9 -21 -7 -3 -9 15 4 -26)
1969-12-31 18:00:10.982688134,(-1 -11 -11 -13 -17 -19 -17 -7)
1969-12-31 18:00:10.994458775,(1 -13 -13 8 29 -10 -12 3)
1969-12-31 18:00:10.994458775,(6 33 18 11 38 48 4 9)
1969-12-31 18:00:10.996028193,(-42 -7 9 2 -16 -13 10 -19)
1969-12-31 18:00:10.996028193,(-11 -52 -26 0 18 -3 -14 -19)
1969-12-31 18:00:11.005444706,(-4 -12 -39 -27 -41 -19 15 18)
1969-12-31 18:00:11.005444706,(-11 73 54 24 15 -5 -19 -44)
1969-12-31 18:00:11.011722381,(-28 -37 -24 -28 -35 4 -10 -24)
1969-12-31 18:00:11.011722381,(64 -42 -19 15 25 7 26 46)
1969-12-31 18:00:11.023493022,(-7 -22 -58 -25 -5 -2 -17 3)
1969-12-31 18:00:11.023493022,(50 63 80 21 11 13 -9 11)
1969-12-31 18:00:11.028985987,(-18 5 -32 -8 -3 0 -1 -23)
1969-12-31 18:00:11.028985987,(12 76 78 37 22 -14 -11 -4)
1969-12-31 18:00:11.041541337,(-7 -54 -25 -3 8 3 6 -1)
1969-12-31 18:00:11.041541337,(-3 -9 -25 -10 -20 -5 10 9)
1969-12-31 18:00:11.042326047,(52 -9 6 8 2 -13 4 17)
1969-12-31 18:00:11.043110756,(-42 -50 -43 -45 -37 -2 -10 -24)
1969-12-31 18:00:11.059589653,(0 35 21 14 7 0 -7 6)
1969-12-31 18:00:11.059589653,(-45 -44 -6 10 -9 -33 2 7)
1969-12-31 18:00:11.060374362,(8 23 -4 -6 8 24 -2 -4)
1969-12-31 18:00:11.060374362,(32 75 64 29 7 -11 23 19)
1969-12-31 18:00:11.076853259,(-11 -24 -21 -22 -17 29 -10 -8)
1969-12-31 18:00:11.076853259,(1 20 23 2 -20 -22 -11 0)
1969-12-31 18:00:11.078422678,(-12 -21 -12 7 11 -2 5 4)
1969-12-31 18:00:11.078422678,(-12 -90 -95 -33 -15 -11 -6 -17)
1969-12-31 18:00:11.088623900,(33 121 79 27 26 37 12 8)
1969-12-31 18:00:11.088623900,(1 -25 -14 19 27 24 18 17)
1969-12-31 18:00:11.090193319,(-46 -9 -11 -2 -28 -20 -23 -44)
1969-12-31 18:00:11.090193319,(2 9 12 -6 2 59 5 7)
1969-12-31 18:00:11.105887506,(-29 -108 -77 -40 -35 -51 -7 -28)
1969-12-31 18:00:11.105887506,(29 -46 -66 -15 6 3 1 10)
1969-12-31 18:00:11.107456925,(-13 103 124 62 63 49 33 53)
1969-12-31 18:00:11.107456925,(-24 -1 -32 -28 -31 -17 -26 -40)
1969-12-31 18:00:11.117658147,(90 5 6 14 4 1 -12 41)
1969-12-31 18:00:11.117658147,(-75 -60 -50 -21 -16 -36 -24 -59)
1969-12-31 18:00:11.123151113,(-41 -106 -79 -34 -28 -15 19 12)
1969-12-31 18:00:11.123151113,(54 94 26 4 15 27 7 32)
1969-12-31 18:00:11.135706463,(-8 47 101 24 -10 0 18 3)
1969-12-31 18:00:11.135706463,(-8 -55 -38 -9 11 6 7 30)
1969-12-31 18:00:11.136491172,(6 -7 -43 -21 -8 3 -19 -18)
1969-12-31 18:00:11.136491172,(-34 26 84 42 2 -35 -18 -46)
1969-12-31 18:00:11.153754778,(-15 -86 -104 -39 8 0 -32 -47)
1969-12-31 18:00:11.153754778,(9 111 82 31 10 19 50 88)
1969-12-31 18:00:11.154539488,(14 30 51 10 -3 -16 -21 -5)
1969-12-31 18:00:11.154539488,(-7 -37 -25 -5 -9 -25 -7 34)
1969-12-31 18:00:11.163956000,(32 13 20 19 10 4 16 11)
1969-12-31 18:00:11.163956000,(-51 -90 -83 -39 -23 -2 -26 -52)
1969-12-31 18:00:11.175726641,(62 40 28 24 44 10 21 13)
1969-12-31 18:00:11.175726641,(42 -34 7 -5 -48 -7 8 17)
1969-12-31 18:00:11.182789025,(-76 29 5 2 22 -8 -7 -21)
1969-12-31 18:00:11.182789025,(-1 4 12 2 12 15 10 10)
1969-12-31 18:00:11.183573735,(37 -72 -47 -10 -16 -1 1 15)
1969-12-31 18:00:11.183573735,(-15 -46 -62 3 54 15 14 22)
1969-12-31 18:00:11.200837341,(7 44 33 16 -29 29 15 29)
1969-12-31 18:00:11.200837341,(-7 -85 -51 -23 -34 -20 -13 -76)
1969-12-31 18:00:11.201622050,(15 109 77 17 3 -6 2 25)
1969-12-31 18:00:11.201622050,(-46 -36 4 3 -3 -7 -7 -29)
1969-12-31 18:00:11.211038563,(23 -83 -88 -22 10 7 10 -1)
1969-12-31 18:00:11.211038563,(-15 43 25 14 12 -16 -24 -56)
1969-12-31 18:00:11.218100947,(0 -90 -25 -11 -20 -13 -12 -14)
1969-12-31 18:00:11.218100947,(-21 66 -31 -17 12 -4 -17 -8)
1969-12-31 18:00:11.235364554,(-57 38 96 34 23 51 36 -47)
1969-12-31 18:00:11.235364554,(-70 20 11 7 1 -36 -49 -61)
1969-12-31 18:00:11.236933972,(24 -65 -57 -24 12 50 0 29)
1969-12-31 18:00:11.236933972,(11 37 13 13 18 -3 21 4)
1969-12-31 18:00:11.247919904,(20 -71 -11 5 -25 -8 1 16)
1969-12-31 18:00:11.247919904,(26 35 3 -6 -17 -5 7 32)
1969-12-31 18:00:11.248704613,(-46 -44 -78 -29 -13 -38 -22 -8)
1969-12-31 18:00:11.248704613,(33 43 88 33 21 -21 -19 9)
1969-12-31 18:00:11.258121125,(49 45 87 43 26 43 35 54)
1969-12-31 18:00:11.258121125,(-16 76 66 13 -19 2 15 -5)
1969-12-31 18:00:11.270676476,(88 55 28 29 21 -11 11 64)
1969-12-31 18:00:11.270676476,(-96 -126 -128 -75 -49 0 -10 -38)
1969-12-31 18:00:11.276954151,(-34 93 66 16 15 3 4 -1)
1969-12-31 18:00:11.276954151,(96 42 59 56 38 16 30 53)
1969-12-31 18:00:11.277738860,(-36 -64 -58 -17 7 -23 33 28)
1969-12-31 18:00:11.277738860,(-8 -19 -50 1 -9 38 -29 -45)
1969-12-31 18:00:11.294217757,(-6 -33 -29 -23 -16 -36 -7 -7)
1969-12-31 18:00:11.294217757,(-22 -111 -93 -36 -13 -36 -38 -20)
1969-12-31 18:00:11.295787176,(13 111 51 15 31 53 15 -23)
1969-12-31 18:00:11.295787176,(-12 -42 -29 -29 -30 6 32 18)
1969-12-31 18:00:11.305988397,(-55 -82 -69 -19 -17 -39 -16 -8)
1969-12-31 18:00:11.305988397,(24 9 -14 17 44 29 8 13)
1969-12-31 18:00:11.311481363,(7 19 58 11 -41 -54 -34 -47)
1969-12-31 18:00:11.311481363,(26 -63 -58 -21 8 8 5 54)
1969-12-31 18:00:11.324036713,(24 90 112 43 23 51 22 48)
1969-12-31 18:00:11.324036713,(-44 -72 -59 -15 -8 -35 -2 -19)
1969-12-31 18:00:11.325606132,(-78 -125 -75 -13 19 19 -15 -43)
1969-12-31 18:00:11.325606132,(57 127 126 24 4 8 3 35)
1969-12-31 18:00:11.342085029,(41 -74 -69 -5 -5 -54 -5 7)
1969-12-31 18:00:11.342085029,(-51 -128 -122 -35 -29 -23 -21 -10)
1969-12-31 18:00:11.342869738,(-29 56 -19 -12 -16 45 30 -7)
1969-12-31 18:00:11.342869738,(0 14 23 15 6 -39 -9 -23)
1969-12-31 18:00:11.352286251,(-18 -81 -68 -12 30 19 -6 13)
1969-12-31 18:00:11.352286251,(5 -21 -38 -25 -42 -36 -28 -61)
1969-12-31 18:00:11.359348635,(15 66 83 24 9 20 -9 -9)
1969-12-31 18:00:11.359348635,(-13 -84 -57 -15 -33 -22 11 -3)
1969-12-31 18:00:11.371119276,(-7 -36 -5 4 4 -39 -43 -46)
1969-12-31 18:00:11.371119276,(26 -2 -5 11 33 76 43 67)
1969-12-31 18:00:11.372688695,(-28 30 26 -11 -27 -16 4 -12)
1969-12-31 18:00:11.372688695,(13 16 29 19 24 25 10 -3)
1969-12-31 18:00:11.388382882,(-30 -10 -33 -13 -11 -33 -25 -27)
1969-12-31 18:00:11.388382882,(-2 72 64 14 4 22 15 0)
1969-12-31 18:00:11.394660557,(-65 -128 -98 -34 -15 -28 -21 -39)
1969-12-31 18:00:11.394660557,(42 127 127 64 22 13 -3 -36)
1969-12-31 18:00:11.399368813,(11 -128 -128 -41 -25 1 21 52)
1969-12-31 18:00:11.399368813,(13 34 45 5 -11 -21 -19 -9)
1969-12-31 18:00:11.406431198,(30 127 95 31 10 -4 -2 -18)
1969-12-31 18:00:11.406431198,(-87 -128 -128 -43 -19 14 -6 -12)
1969-12-31 18:00:11.418201838,(-22 127 117 43 31 13 54 -9)
1969-12-31 18:00:11.418201838,(-3 -48 -39 -10 10 29 -31 -21)
1969-12-31 18:00:11.418986548,(84 -56 -28 5 24 15 19 85)
1969-12-31 18:00:11.418986548,(-17 -93 -50 -36 -59 -62 -34 6)
1969-12-31 18:00:11.435465445,(5 -21 -41 -19 7 39 -2 -12)
1969-12-31 18:00:11.435465445,(22 54 52 3 11 43 29 35)
1969-12-31 18:00:11.437034864,(-59 -74 -67 -7 9 -26 -33 -94)
1969-12-31 18:00:11.437034864,(20 1 -3 -6 2 -7 0 -10)
1969-12-31 18:00:11.446451376,(23 108 110 38 0 -5 -25 -12)
1969-12-31 18:00:11.446451376,(19 -37 -11 2 13 -13 17 16)
1969-12-31 18:00:11.453513760,(-14 -12 -9 12 10 18 -6 -8)
1969-12-31 18:00:11.453513760,(-34 -113 -95 -34 -1 14 12 9)
1969-12-31 18:00:11.465284401,(20 113 52 -15 -30 -39 -15 -36)
1969-12-31 18:00:11.465284401,(-13 25 43 37 20 38 2 10)
1969-12-31 18:00:11.466853820,(-1 -8 28 7 -17 -34 -14 26)
1969-12-31 18:00:11.466853820,(4 -39 -24 6 -7 19 28 19)
1969-12-31 18:00:11.482548007,(-24 -97 -80 -44 -27 -20 -17 -27)
1969-12-31 18:00:11.482548007,(-11 -69 -46 -32 -32 -39 -6 10)
1969-12-31 18:00:11.484117426,(1 -62 -55 -9 22 31 13 39)
1969-12-31 18:00:11.484117426,(-3 49 69 25 7 -12 -11 -16)
1969-12-31 18:00:11.493533939,(76 25 -46 6 7 -15 -7 12)
1969-12-31 18:00:11.493533939,(8 28 50 16 -19 20 -6 -15)
1969-12-31 18:00:11.506873998,(-14 -73 -67 -15 -34 -26 -6 -19)
1969-12-31 18:00:11.506873998,(-26 -87 -70 -1 26 6 -19 -24)
1969-12-31 18:00:11.512366964,(-17 16 39 2 2 1 19 -11)
1969-12-31 18:00:11.512366964,(-20 -67 -80 -34 -8 -23 -22 -13)
1969-12-31 18:00:11.513151673,(37 127 125 41 6 -1 7 13)
1969-12-31 18:00:11.513151673,(-21 -29 -36 -8 9 -13 -9 -4)
1969-12-31 18:00:11.529630570,(55 -33 -17 -10 -2 56 18 55)
1969-12-31 18:00:11.529630570,(-1 14 21 -3 -8 -18 7 10)
1969-12-31 18:00:11.531199989,(5 -14 1 4 8 6 10 10)
1969-12-31 18:00:11.531199989,(-19 -33 -46 -6 12 17 18 8)
1969-12-31 18:00:11.540616501,(28 40 74 33 19 16 -13 -17)
1969-12-31 18:00:11.540616501,(-17 -34 15 -1 -12 5 8 41)
1969-12-31 18:00:11.553956561,(48 -110 -118 -33 -11 -20 -9 -1)
1969-12-31 18:00:11.553956561,(23 113 127 45 28 17 9 7)
1969-12-31 18:00:11.559449526,(-47 -128 -107 -22 4 -4 -14 -17)
1969-12-31 18:00:11.559449526,(25 -13 -100 -37 -13 -26 1 13)
1969-12-31 18:00:11.561018945,(7 105 89 34 12 28 -5 10)
1969-12-31 18:00:11.561018945,(46 48 1 10 14 5 -9 -7)
1969-12-31 18:00:11.576713133,(-38 -52 -18 -5 -18 -3 22 10)
1969-12-31 18:00:11.576713133,(13 6 -23 3 -5 19 21 43)
1969-12-31 18:00:11.578282551,(-17 -29 19 -14 -29 -20 -12 -31)
1969-12-31 18:00:11.578282551,(7 21 -58 -46 -40 -14 -22 -8)
1969-12-31 18:00:11.587699064,(8 104 89 34 10 -15 -7 -18)
1969-12-31 18:00:11.587699064,(25 -28 -6 11 14 -19 -23 -9)
1969-12-31 18:00:11.594761448,(-36 -74 -64 -25 -15 6 17 -7)
1969-12-31 18:00:11.594761448,(19 -37 -10 0 14 11 8 46)
1969-12-31 18:00:11.612809764,(28 35 44 17 1 -25 2 21)
1969-12-31 18:00:11.612809764,(-46 -41 -35 -22 -21 5 -13 -35)
1969-12-31 18:00:11.613594473,(52 118 107 78 69 -12 3 16)
1969-12-31 18:00:11.613594473,(-11 -63 -44 -28 -46 16 -10 -36)
1969-12-31 18:00:11.623795695,(-45 -128 -128 -66 -39 -8 8 11)
1969-12-31 18:00:11.624580405,(-14 73 63 42 33 29 18 28)
1969-12-31 18:00:11.625365114,(-20 -128 -128 -52 -13 -34 -18 -25)
1969-12-31 18:00:11.625365114,(10 127 127 66 25 -5 6 6)
1969-12-31 18:00:11.634781627,(-9 -33 -23 0 -4 15 -16 -3)
1969-12-31 18:00:11.634781627,(-2 -92 -41 1 30 -41 -20 -31)
1969-12-31 18:00:11.641844011,(-66 -72 -109 -45 -44 29 10 -23)
1969-12-31 18:00:11.641844011,(34 99 88 24 -27 10 28 17)
1969-12-31 18:00:11.653614652,(-7 -71 -49 -6 4 -11 3 40)
1969-12-31 18:00:11.653614652,(26 -54 -28 -1 24 2 -3 0)
1969-12-31 18:00:11.655184070,(-4 28 -8 -16 -3 -29 -22 -18)
1969-12-31 18:00:11.655184070,(22 44 44 13 4 9 2 13)
1969-12-31 18:00:11.677155933,(9 -41 -64 -15 -11 -23 0 15)
1969-12-31 18:00:11.677155933,(11 78 76 18 -36 -19 11 10)
1969-12-31 18:00:11.678725352,(-62 -43 23 8 23 63 27 14)
1969-12-31 18:00:11.678725352,(21 41 -21 -18 0 -2 -5 -26)
1969-12-31 18:00:11.681864189,(-60 -40 -13 0 -3 -17 -36 -77)
1969-12-31 18:00:11.681864189,(27 50 21 23 23 13 19 32)
1969-12-31 18:00:11.688926574,(-22 -82 -42 -24 -16 3 -8 -31)
1969-12-31 18:00:11.688926574,(8 57 76 29 6 -13 -1 16)
1969-12-31 18:00:11.700697214,(-22 20 -19 -1 15 -8 -11 -21)
1969-12-31 18:00:11.700697214,(32 -12 -1 0 -2 10 9 33)
1969-12-31 18:00:11.702266633,(64 55 18 3 -2 30 27 47)
1969-12-31 18:00:11.702266633,(-64 -128 -93 -12 6 -40 -34 -51)
1969-12-31 18:00:11.717960821,(56 99 52 1 7 21 3 37)
1969-12-31 18:00:11.717960821,(-36 -57 -27 -25 -38 7 23 9)
1969-12-31 18:00:11.719530239,(7 110 56 15 14 -9 -19 -14)
1969-12-31 18:00:11.719530239,(5 -58 -23 2 23 41 24 34)
1969-12-31 18:00:11.728946752,(-16 -46 -46 -20 -23 -25 -23 -27)
1969-12-31 18:00:11.728946752,(-29 47 32 15 21 -2 -18 -48)
1969-12-31 18:00:11.742286811,(2 -65 -57 -39 -62 -16 6 20)
1969-12-31 18:00:11.742286811,(-10 -73 -42 -17 -10 -30 -26 -48)
1969-12-31 18:00:11.747779777,(-43 29 -15 -8 -19 -11 -9 -62)
1969-12-31 18:00:11.747779777,(-10 -32 -12 1 22 4 -3 -26)
1969-12-31 18:00:11.749349196,(26 -54 -75 -11 -2 20 20 34)
1969-12-31 18:00:11.749349196,(20 127 119 29 1 -10 13 14)
1969-12-31 18:00:11.765828093,(24 -37 -10 5 9 4 3 25)
1969-12-31 18:00:11.765828093,(16 -30 -26 -2 9 -5 5 -3)
1969-12-31 18:00:11.766612802,(-19 -35 -19 6 3 -52 -38 -10)
1969-12-31 18:00:11.766612802,(-12 66 52 -16 -21 58 41 20)
1969-12-31 18:00:11.776029315,(21 25 13 -3 1 0 0 12)
1969-12-31 18:00:11.776029315,(-30 -57 -48 -18 -1 -8 -3 -36)
1969-12-31 18:00:11.783091699,(46 49 65 33 20 -24 -5 65)
1969-12-31 18:00:11.783091699,(-7 -89 -85 -11 3 -5 0 8)
1969-12-31 18:00:11.801140015,(-15 5 44 12 15 4 11 1)
1969-12-31 18:00:11.801140015,(10 -1 -47 -21 -23 2 -26 -12)
1969-12-31 18:00:11.801924724,(7 23 58 1 -29 0 13 -11)
1969-12-31 18:00:11.801924724,(-58 -74 -89 -18 11 -17 -21 -43)
1969-12-31 18:00:11.812125946,(36 60 41 19 0 1 20 44)
1969-12-31 18:00:11.812125946,(-31 -99 -60 -13 -6 1 -7 -4)
1969-12-31 18:00:11.813695365,(-30 22 -18 -1 6 10 2 -44)
1969-12-31 18:00:11.813695365,(46 15 -61 -43 -57 -88 -37 13)
1969-12-31 18:00:11.830174262,(27 64 86 103 72 95 53 11)
1969-12-31 18:00:11.830174262,(42 -22 -70 -19 -22 -29 0 5)
1969-12-31 18:00:11.831743680,(-11 9 29 -6 5 29 -6 -11)
1969-12-31 18:00:11.831743680,(-23 -90 -55 -23 11 3 -8 2)
1969-12-31 18:00:11.841944902,(-9 7 -7 -15 -15 -29 -21 -15)
1969-12-31 18:00:11.841944902,(-1 -70 -11 -15 -13 15 4 9)
1969-12-31 18:00:11.843514321,(11 99 65 42 27 12 9 -19)
1969-12-31 18:00:11.843514321,(-18 -71 -46 -26 -33 -14 -2 -9)
1969-12-31 18:00:11.859993218,(13 11 -38 -35 6 24 0 45)
1969-12-31 18:00:11.859993218,(-1 127 127 54 2 6 8 -21)
1969-12-31 18:00:11.860777927,(-28 -117 -84 -25 -7 -13 -22 -28)
1969-12-31 18:00:11.860777927,(13 -51 -51 -1 14 0 12 34)
1969-12-31 18:00:11.877256824,(13 41 46 41 3 -18 -16 -17)
1969-12-31 18:00:11.877256824,(-21 -100 -121 -30 21 4 8 17)
1969-12-31 18:00:11.878826243,(3 127 127 28 -36 -19 -36 -71)
1969-12-31 18:00:11.878826243,(-36 -111 -55 -15 3 44 16 13)
1969-12-31 18:00:11.889027465,(-5 -10 -41 -23 -25 -25 -1 19)
1969-12-31 18:00:11.889027465,(25 126 122 44 50 16 -4 -13)
1969-12-31 18:00:11.889812174,(7 -72 -55 -14 -14 -31 4 26)
1969-12-31 18:00:11.889812174,(10 -51 -1 22 47 38 -9 5)
1969-12-31 18:00:11.906291071,(-37 -58 -54 -58 -63 5 1 -35)
1969-12-31 18:00:11.906291071,(30 117 102 29 4 17 22 33)
1969-12-31 18:00:11.907860490,(-22 -97 -52 -16 -10 -15 -12 -19)
1969-12-31 18:00:11.907860490,(17 61 22 9 12 10 8 -12)
1969-12-31 18:00:11.924339387,(-26 -82 -47 -6 0 -23 -17 -18)
1969-12-31 18:00:11.924339387,(-40 -128 -128 -31 -7 7 6 6)
1969-12-31 18:00:11.925908806,(67 106 67 0 21 30 18 36)
1969-12-31 18:00:11.925908806,(11 46 39 12 -14 -8 1 14)
1969-12-31 18:00:11.935325318,(-22 -96 -45 -5 8 -2 -1 -2)
1969-12-31 18:00:11.935325318,(-32 -73 -34 -21 -31 -21 -19 -20)
1969-12-31 18:00:11.940818284,(-44 -128 -128 -47 6 -7 -9 5)
1969-12-31 18:00:11.940818284,(51 116 107 49 6 3 12 11)
1969-12-31 18:00:11.953373634,(-6 -45 0 -2 -8 -33 -5 4)
1969-12-31 18:00:11.953373634,(32 9 -19 2 27 39 10 26)
1969-12-31 18:00:11.959651309,(6 65 72 24 -10 12 7 5)
1969-12-31 18:00:11.959651309,(-16 -76 -47 -24 -3 2 10 1)
1969-12-31 18:00:11.971421949,(18 -65 -39 -18 -6 -12 -6 -4)
1969-12-31 18:00:11.971421949,(-65 7 -20 -5 -3 -15 -11 -55)
1969-12-31 18:00:11.972206659,(16 -5 -18 2 12 -2 13 24)
1969-12-31 18:00:11.972206659,(-1 106 62 34 12 5 -8 -20)
1969-12-31 18:00:11.982407881,(9 -22 -27 -26 -39 -21 -8 -15)
1969-12-31 18:00:11.982407881,(-17 32 59 -9 -24 -37 -24 -7)
1969-12-31 18:00:11.988685556,(-20 -87 -84 -8 29 21 17 11)
1969-12-31 18:00:11.988685556,(15 122 74 11 11 22 -2 -14)
1969-12-31 18:00:12.000456196,(-22 -80 -63 -8 7 5 6 -7)
1969-12-31 18:00:12.000456196,(34 50 22 14 -6 1 15 16)
1969-12-31 18:00:12.002025615,(8 -52 -20 5 -2 -9 -11 -18)
1969-12-31 18:00:12.002025615,(11 -103 -27 4 -2 -24 -16 -4)
1969-12-31 18:00:12.024782187,(-14 22 -21 0 20 15 12 6)
1969-12-31 18:00:12.024782187,(37 60 50 -13 -47 -27 2 35)
1969-12-31 18:00:12.025566896,(14 65 47 -11 10 23 9 4)
1969-12-31 18:00:12.025566896,(-37 -81 -97 0 24 -18 -15 -31)
1969-12-31 18:00:12.029490443,(-16 -49 -22 -34 -57 11 -19 -38)
1969-12-31 18:00:12.029490443,(-14 39 67 33 37 39 12 -33)
1969-12-31 18:00:12.048323468,(30 -2 -9 -2 -5 -1 -5 11)
1969-12-31 18:00:12.048323468,(-48 29 41 7 -14 -19 -4 -6)
1969-12-31 18:00:12.049108178,(49 1 -18 4 23 -18 -10 31)
1969-12-31 18:00:12.049108178,(30 38 47 50 27 13 16 12)
1969-12-31 18:00:12.050677597,(-11 -23 -3 -10 -18 5 19 23)
1969-12-31 18:00:12.050677597,(2 -35 -21 -24 -15 -11 -15 -35)
1969-12-31 18:00:12.065587075,(-16 29 4 -11 -2 -2 -1 -25)
1969-12-31 18:00:12.065587075,(-18 -128 -76 -19 9 1 -15 -3)
1969-12-31 18:00:12.067156493,(18 65 -25 -3 7 -5 11 5)
1969-12-31 18:00:12.067156493,(-26 -37 4 -8 -16 4 -7 9)
1969-12-31 18:00:12.075788297,(10 66 92 50 33 1 -4 6)
1969-12-31 18:00:12.076573006,(-6 -84 -67 -37 -28 -5 -6 -5)
1969-12-31 18:00:12.082850681,(-12 66 36 14 4 -20 -14 -9)
1969-12-31 18:00:12.083635390,(3 -115 -111 -37 -28 -9 -3 -20)
1969-12-31 18:00:12.094621322,(-13 -33 -10 -7 13 -5 3 8)
1969-12-31 18:00:12.094621322,(14 10 -5 -18 -25 -5 2 31)
1969-12-31 18:00:12.096190740,(28 3 42 21 12 -18 -6 28)
1969-12-31 18:00:12.096190740,(-5 -24 -27 -11 2 5 6 16)
1969-12-31 18:00:12.112669637,(50 127 127 51 13 23 12 41)
1969-12-31 18:00:12.112669637,(-5 -67 -45 -16 -4 -26 -10 -17)
1969-12-31 18:00:12.117377894,(-63 -119 -110 -24 -3 0 -15 -45)
1969-12-31 18:00:12.117377894,(48 127 127 36 1 26 25 44)
1969-12-31 18:00:12.123655569,(-25 -81 -64 -10 -18 -24 -12 -24)
1969-12-31 18:00:12.123655569,(7 -58 -53 -13 9 6 -3 19)
1969-12-31 18:00:12.129148534,(-19 19 39 18 14 19 14 3)
1969-12-31 18:00:12.129148534,(11 -57 -28 -5 -23 -17 -11 8)
1969-12-31 18:00:12.142488594,(33 75 54 -5 3 21 11 4)
1969-12-31 18:00:12.142488594,(-36 26 46 27 16 16 8 -19)
1969-12-31 18:00:12.147196850,(42 -26 -25 -2 -13 -32 -9 52)
1969-12-31 18:00:12.147196850,(-60 -125 -76 -14 3 0 -4 -19)
1969-12-31 18:00:12.159752200,(4 43 -23 -27 -44 5 20 23)
1969-12-31 18:00:12.159752200,(44 73 84 29 12 2 4 15)
1969-12-31 18:00:12.160536909,(-23 -69 -59 -24 -17 -5 -4 -6)
1969-12-31 18:00:12.160536909,(21 105 79 31 28 25 13 13)
1969-12-31 18:00:12.170738131,(0 25 13 23 32 -13 -16 -15)
1969-12-31 18:00:12.170738131,(-1 111 73 25 -12 -7 8 16)
1969-12-31 18:00:12.176231097,(1 -91 -66 -27 -37 -14 0 24)
1969-12-31 18:00:12.176231097,(41 28 24 7 13 9 8 11)
1969-12-31 18:00:12.188786447,(-40 -8 4 -6 6 15 10 -13)
1969-12-31 18:00:12.188786447,(0 -64 -63 -28 -17 9 9 6)
1969-12-31 18:00:12.195064122,(-12 32 52 19 20 4 -10 -13)
1969-12-31 18:00:12.195064122,(24 -24 -49 -18 -4 8 6 16)
1969-12-31 18:00:12.206834763,(-1 12 24 12 -4 -23 -17 -23)
1969-12-31 18:00:12.206834763,(-4 -48 -33 -4 10 -9 -8 -12)
1969-12-31 18:00:12.207619472,(-15 -26 -26 -8 -14 -28 -12 -26)
1969-12-31 18:00:12.207619472,(-28 -72 -54 -2 2 13 15 1)
1969-12-31 18:00:12.217820694,(28 85 81 14 -7 19 10 3)
1969-12-31 18:00:12.217820694,(83 -60 -37 -7 -12 -17 -16 33)
1969-12-31 18:00:12.224098369,(-36 36 69 24 38 31 3 -35)
1969-12-31 18:00:12.224098369,(-23 -81 -93 -51 -42 -35 -20 -12)
1969-12-31 18:00:12.235869010,(-15 40 35 30 12 -6 0 -1)
1969-12-31 18:00:12.235869010,(-31 -76 -57 -8 -3 4 5 -7)
1969-12-31 18:00:12.237438428,(47 127 108 34 17 4 1 6)
1969-12-31 18:00:12.237438428,(3 54 15 5 7 -14 -7 -15)
1969-12-31 18:00:12.253917325,(-22 -119 -75 -9 5 5 3 21)
1969-12-31 18:00:12.253917325,(-38 -42 -54 -15 -4 9 -16 -21)
1969-12-31 18:00:12.255486744,(-4 12 32 -22 -20 28 7 -13)
1969-12-31 18:00:12.255486744,(-19 -4 1 -7 -6 -19 7 -2)
1969-12-31 18:00:12.271180932,(-23 47 38 19 5 -8 -30 -70)
1969-12-31 18:00:12.271180932,(-33 -37 -31 11 42 -2 5 13)
1969-12-31 18:00:12.271180932,(63 55 -16 -27 -42 -7 -23 -15)
1969-12-31 18:00:12.271965641,(-14 13 40 18 1 14 7 -14)
1969-12-31 18:00:12.282951571,(-4 -119 -84 -20 -2 -18 -14 3)
1969-12-31 18:00:12.282951571,(-33 -96 -82 -37 -21 -20 0 24)
1969-12-31 18:00:12.282951571,(-3 39 52 40 21 21 18 3)
1969-12-31 18:00:12.282951571,(12 123 59 6 -16 -32 -29 -48)
1969-12-31 18:00:12.300215179,(2 -38 8 8 7 41 40 27)
1969-12-31 18:00:12.300215179,(-14 50 -19 -26 -13 5 -10 -44)
1969-12-31 18:00:12.300999887,(15 -36 -42 -8 0 -8 3 30)
1969-12-31 18:00:12.300999887,(-3 -39 0 19 27 8 1 15)
1969-12-31 18:00:12.318263494,(-42 -94 -78 -33 -11 -22 -4 -7)
1969-12-31 18:00:12.318263494,(3 37 34 -5 -13 -9 -10 -21)
1969-12-31 18:00:12.319048204,(17 63 55 29 4 14 16 18)
1969-12-31 18:00:12.319048204,(-15 -32 -10 12 19 3 -8 -6)
1969-12-31 18:00:12.330034135,(-20 -103 -79 -30 -10 -12 -15 -10)
1969-12-31 18:00:12.330034135,(-7 51 35 5 -21 0 7 2)
1969-12-31 18:00:12.330818844,(-26 -39 -28 15 33 -2 3 -14)
1969-12-31 18:00:12.330818844,(30 -32 -25 -22 -41 10 -4 -4)
1969-12-31 18:00:12.347297741,(-12 49 20 -9 -19 -20 -23 -31)
1969-12-31 18:00:12.347297741,(15 41 67 30 15 5 14 20)
1969-12-31 18:00:12.348082451,(-22 -36 -27 -7 21 10 13 -4)
1969-12-31 18:00:12.348082451,(4 -73 -58 -22 -16 6 -6 8)
1969-12-31 18:00:12.371623732,(56 96 51 27 10 35 36 50)
1969-12-31 18:00:12.371623732,(25 41 50 23 20 -3 8 1)
1969-12-31 18:00:12.372408441,(-61 -128 -126 -53 -30 -23 -33 -48)
1969-12-31 18:00:12.372408441,(-16 40 46 27 32 14 6 7)
1969-12-31 18:00:12.377116697,(13 14 -10 -14 -3 -2 4 20)
1969-12-31 18:00:12.377116697,(-15 -64 -47 -18 -12 -4 -3 6)
1969-12-31 18:00:12.377116697,(21 16 14 -3 -7 -13 0 -20)
1969-12-31 18:00:12.377901407,(-10 40 3 -8 -17 -8 -13 -18)
1969-12-31 18:00:12.394380304,(7 -59 -21 1 12 -11 -6 2)
1969-12-31 18:00:12.394380304,(15 18 29 12 2 -7 -18 -19)
1969-12-31 18:00:12.395165013,(14 34 52 43 39 14 -4 18)
1969-12-31 18:00:12.395165013,(-11 7 3 -14 5 31 28 3)
1969-12-31 18:00:12.412428619,(11 -16 -14 -4 6 3 -19 -37)
1969-12-31 18:00:12.412428619,(1 -29 -16 -11 -18 -17 1 23)
1969-12-31 18:00:12.412428619,(-18 -39 -21 -9 -13 -11 8 14)
1969-12-31 18:00:12.412428619,(-9 49 36 9 6 -18 -8 -15)
1969-12-31 18:00:12.424199260,(5 -16 -1 18 27 12 -7 2)
1969-12-31 18:00:12.424199260,(7 41 17 -15 -12 39 18 2)
1969-12-31 18:00:12.424199260,(4 -59 -32 -9 -12 -16 -4 -2)
1969-12-31 18:00:12.424983970,(-23 -50 -48 7 27 6 -6 -18)
1969-12-31 18:00:12.441462866,(-9 59 53 -6 -42 -17 -10 -26)
1969-12-31 18:00:12.441462866,(20 -26 5 20 13 -6 2 44)
1969-12-31 18:00:12.442247576,(-31 -45 -68 -36 -23 -3 -5 -2)
1969-12-31 18:00:12.442247576,(35 40 60 12 -6 -13 3 22)
1969-12-31 18:00:12.459511182,(8 -33 -29 11 31 18 7 21)
1969-12-31 18:00:12.459511182,(-3 -26 -17 -6 -1 0 -14 -29)
1969-12-31 18:00:12.459511182,(-4 32 30 -3 -26 -11 3 -9)
1969-12-31 18:00:12.459511182,(-31 -117 -79 -25 -13 -20 -11 -14)
1969-12-31 18:00:12.471281823,(-18 62 15 9 -2 5 7 26)
1969-12-31 18:00:12.471281823,(6 26 28 18 -21 -35 -7 -13)
1969-12-31 18:00:12.472066532,(-10 -100 -86 -50 -25 23 1 -23)
1969-12-31 18:00:12.472066532,(-11 31 25 2 -10 -24 -8 0)
1969-12-31 18:00:12.488545429,(-8 10 9 -1 -13 -15 -6 -27)
1969-12-31 18:00:12.488545429,(-3 -35 -40 -32 2 23 3 -2)
1969-12-31 18:00:12.489330138,(11 35 17 24 9 -8 -1 -1)
1969-12-31 18:00:12.489330138,(21 78 49 28 18 8 3 0)
1969-12-31 18:00:12.506593745,(-27 -116 -66 -32 -3 21 1 3)
1969-12-31 18:00:12.506593745,(-36 47 22 17 3 -28 -21 -18)
1969-12-31 18:00:12.506593745,(-38 -79 -20 20 49 0 -27 -75)
1969-12-31 18:00:12.506593745,(-2 -21 -48 -28 -4 48 15 11)
1969-12-31 18:00:12.524642060,(22 -53 -53 -21 -11 -9 23 48)
1969-12-31 18:00:12.524642060,(-18 1 -12 -8 8 5 -6 -13)
1969-12-31 18:00:12.525426770,(34 50 42 43 14 -22 9 55)
1969-12-31 18:00:12.525426770,(-4 -42 -21 -23 -23 10 16 42)
1969-12-31 18:00:12.535627992,(-18 -33 -12 -21 -23 -11 -9 -40)
1969-12-31 18:00:12.535627992,(-15 -41 -34 -9 -1 -5 -5 -15)
1969-12-31 18:00:12.536412701,(8 85 70 30 33 -4 -21 -26)
1969-12-31 18:00:12.536412701,(22 -22 -7 9 17 37 11 28)
1969-12-31 18:00:12.553676307,(12 3 -8 -9 -21 -21 1 34)
1969-12-31 18:00:12.553676307,(19 43 16 2 -16 6 -11 -23)
1969-12-31 18:00:12.553676307,(42 92 71 23 0 -6 21 21)
1969-12-31 18:00:12.553676307,(29 22 8 -2 -9 -7 -4 10)
1969-12-31 18:00:12.565446948,(-32 -68 -25 -1 2 -12 22 -18)
1969-12-31 18:00:12.565446948,(-8 -33 -20 -3 1 -2 -27 -27)
1969-12-31 18:00:12.566231657,(-22 -20 -30 -8 -6 20 9 -19)
1969-12-31 18:00:12.566231657,(66 89 36 0 -4 -24 0 80)
1969-12-31 18:00:12.582710554,(3 -38 -32 -1 -16 -18 -19 -18)
1969-12-31 18:00:12.582710554,(-3 -5 -2 -11 -25 -43 13 39)
1969-12-31 18:00:12.583495264,(-61 -54 -65 -28 -10 10 -12 -42)
1969-12-31 18:00:12.583495264,(20 26 37 8 25 39 32 -1)
1969-12-31 18:00:12.601543579,(-4 -1 -1 -6 -9 -11 -10 -3)
1969-12-31 18:00:12.601543579,(14 -53 -23 -2 9 9 -9 8)
1969-12-31 18:00:12.602328289,(8 -33 -30 -11 -18 -8 5 27)
1969-12-31 18:00:12.602328289,(-47 -17 -31 -15 -5 -31 -27 -59)
1969-12-31 18:00:12.613314220,(22 40 25 27 25 16 -12 -26)
1969-12-31 18:00:12.613314220,(42 119 72 -15 -32 15 19 0)
1969-12-31 18:00:12.614098929,(27 -35 -9 -17 -25 0 10 47)
1969-12-31 18:00:12.614098929,(-55 -84 -81 -10 8 -9 -11 -32)
1969-12-31 18:00:12.631362536,(7 80 104 42 21 2 -11 -32)
1969-12-31 18:00:12.631362536,(10 -10 -65 -5 11 -4 12 33)
1969-12-31 18:00:12.631362536,(0 11 44 9 -17 -3 -5 10)
1969-12-31 18:00:12.631362536,(-1 10 15 -7 -4 0 14 16)
1969-12-31 18:00:12.647841433,(-16 -35 -30 -7 8 11 6 13)
1969-12-31 18:00:12.647841433,(-33 -37 -4 10 7 -22 -20 -71)
1969-12-31 18:00:12.647841433,(1 -7 -11 -3 -2 31 -6 -10)
1969-12-31 18:00:12.647841433,(-17 -14 0 -5 -7 3 8 -7)
1969-12-31 18:00:12.660396783,(10 110 90 35 9 -11 -7 1)
1969-12-31 18:00:12.660396783,(-14 -53 -21 -31 -9 21 6 12)
1969-12-31 18:00:12.661181492,(8 -18 -23 9 34 -9 33 35)
1969-12-31 18:00:12.661181492,(-12 -61 -37 -13 -22 -18 -51 -39)
1969-12-31 18:00:12.676875680,(21 94 46 17 15 14 6 9)
1969-12-31 18:00:12.676875680,(-8 -85 -63 -8 -10 0 5 7)
1969-12-31 18:00:12.677660389,(6 95 73 22 11 -9 -26 -69)
1969-12-31 18:00:12.677660389,(25 -45 0 22 0 5 7 -19)
1969-12-31 18:00:12.694923995,(-22 -94 -86 -22 -9 -30 7 15)
1969-12-31 18:00:12.694923995,(8 46 71 18 4 27 -14 -9)
1969-12-31 18:00:12.694923995,(-3 -128 -128 -58 -21 -3 0 -2)
1969-12-31 18:00:12.694923995,(9 127 122 43 9 -10 -9 -44)
1969-12-31 18:00:12.706694636,(20 -22 -23 -32 -11 -5 -20 14)
1969-12-31 18:00:12.706694636,(-48 -105 -68 -7 26 7 8 -24)
1969-12-31 18:00:12.707479345,(24 81 15 -20 -35 6 2 14)
1969-12-31 18:00:12.707479345,(-7 -33 -3 34 13 -12 7 11)
1969-12-31 18:00:12.723958242,(-30 -54 -64 1 27 2 -17 -11)
1969-12-31 18:00:12.723958242,(-6 -34 7 -31 -5 38 26 14)
1969-12-31 18:00:12.724742952,(10 45 25 11 -2 -12 2 34)
1969-12-31 18:00:12.724742952,(-12 -115 -91 -46 -30 -25 12 30)
1969-12-31 18:00:12.742006558,(-39 34 22 17 27 28 -8 -10)
1969-12-31 18:00:12.742006558,(44 124 84 36 8 -10 -2 -8)
1969-12-31 18:00:12.742791267,(2 11 7 1 3 6 -3 -22)
1969-12-31 18:00:12.742791267,(-49 -51 -8 8 18 -12 -8 -43)
1969-12-31 18:00:12.760054874,(-16 -35 -49 -30 -55 -15 -7 -24)
1969-12-31 18:00:12.760054874,(53 46 41 13 -1 -7 19 51)
1969-12-31 18:00:12.760839583,(-1 -30 11 26 15 0 1 35)
1969-12-31 18:00:12.760839583,(13 -23 -35 -23 -14 13 -13 -9)
1969-12-31 18:00:12.771040805,(-16 -128 -105 -63 -35 -2 7 5)
1969-12-31 18:00:12.771040805,(19 124 81 41 26 6 0 1)
1969-12-31 18:00:12.771825514,(14 10 29 5 -13 -28 5 19)
1969-12-31 18:00:12.771825514,(-2 -43 -60 -21 -5 3 1 25)
1969-12-31 18:00:12.789089121,(-21 -54 -18 6 12 25 5 -8)
1969-12-31 18:00:12.789089121,(24 67 57 21 -6 -2 21 42)
1969-12-31 18:00:12.789873830,(-13 -73 -39 -1 -14 -40 -33 -62)
1969-12-31 18:00:12.789873830,(-7 -9 -12 -4 1 10 2 9)
1969-12-31 18:00:12.800859761,(47 25 1 -13 -15 -8 3 11)
1969-12-31 18:00:12.800859761,(-32 -59 -48 0 8 -4 -5 -2)
1969-12-31 18:00:12.800859761,(-33 -11 -8 -10 5 -1 -2 0)
1969-12-31 18:00:12.800859761,(24 34 25 17 21 0 1 9)
1969-12-31 18:00:12.818123368,(-8 17 28 -16 -32 13 1 -16)
1969-12-31 18:00:12.818123368,(0 -11 -31 -12 0 -4 -15 -12)
1969-12-31 18:00:12.818908077,(0 -37 -29 -18 -15 -12 -19 -9)
1969-12-31 18:00:12.818908077,(-11 19 -14 1 1 0 5 -14)
1969-12-31 18:00:12.836171683,(34 49 57 35 31 8 14 17)
1969-12-31 18:00:12.836171683,(-15 -20 -22 1 4 -19 -18 -33)
1969-12-31 18:00:12.836956393,(-26 -75 -38 -28 -10 31 -11 -40)
1969-12-31 18:00:12.836956393,(16 53 44 24 14 -20 -9 15)
1969-12-31 18:00:12.847942324,(-10 -49 -26 -11 -16 -12 1 15)
1969-12-31 18:00:12.847942324,(9 42 -1 -15 -13 -6 -13 -9)
1969-12-31 18:00:12.847942324,(-7 -11 6 10 15 9 20 28)
1969-12-31 18:00:12.847942324,(42 106 67 16 5 0 -1 2)
1969-12-31 18:00:12.865205930,(-3 -32 -3 6 6 5 6 4)
1969-12-31 18:00:12.865205930,(-14 -24 -21 -4 -3 -3 -6 -15)
1969-12-31 18:00:12.865990640,(0 -3 -2 11 12 9 9 20)
1969-12-31 18:00:12.865990640,(-28 -38 -18 -41 -29 -8 -15 -10)
1969-12-31 18:00:12.883254246,(0 28 7 -2 7 15 24 7)
1969-12-31 18:00:12.883254246,(-20 -73 -45 -18 -16 -8 -7 -3)
1969-12-31 18:00:12.883254246,(1 47 28 16 13 -2 15 10)
1969-12-31 18:00:12.884038955,(-42 -24 -4 25 18 -7 -42 -36)
1969-12-31 18:00:12.896594305,(12 22 5 10 14 -2 21 27)
1969-12-31 18:00:12.896594305,(-37 -33 -14 -10 0 26 -14 37)
1969-12-31 18:00:12.897379015,(-18 30 27 0 -9 2 7 -8)
1969-12-31 18:00:12.897379015,(11 -16 -19 -13 -8 7 3 5)
1969-12-31 18:00:12.912288493,(-3 18 10 -3 -7 -13 -4 -8)
1969-12-31 18:00:12.912288493,(-14 -3 5 9 0 -11 -5 -18)
1969-12-31 18:00:12.913073202,(15 -7 -7 -9 -6 4 5 12)
1969-12-31 18:00:12.913073202,(6 -6 -3 2 -4 0 30 38)
1969-12-31 18:00:12.930336808,(14 57 22 10 4 8 -1 -3)
1969-12-31 18:00:12.930336808,(17 -4 3 4 2 -3 -3 -10)
1969-12-31 18:00:12.931121518,(-9 -9 -8 -6 1 12 12 8)
1969-12-31 18:00:12.931121518,(31 -7 -1 0 -5 -19 -9 -7)
1969-12-31 18:00:12.942107449,(22 10 18 11 9 11 5 3)
1969-12-31 18:00:12.942107449,(-18 -7 -9 -3 -1 -5 21 -18)
1969-12-31 18:00:12.942892159,(34 34 5 -1 1 6 10 26)
1969-12-31 18:00:12.942892159,(-12 -27 -6 -9 -13 4 19 16)
1969-12-31 18:00:12.959371055,(-25 -14 -14 -8 -1 -19 -31 -28)
1969-12-31 18:00:12.959371055,(-35 -53 -8 6 2 -5 6 -1)
1969-12-31 18:00:12.960155765,(54 61 6 -4 -5 14 11 -3)
1969-12-31 18:00:12.960155765,(-1 12 7 4 0 7 28 7)
1969-12-31 18:00:12.977419371,(19 11 12 4 -7 -37 6 34)
1969-12-31 18:00:12.977419371,(-44 -28 -18 -8 12 88 13 -30)
1969-12-31 18:00:12.978204080,(17 8 10 5 -5 -40 -54 -23)
1969-12-31 18:00:12.978204080,(-1 5 -8 -3 1 4 -9 -11)
1969-12-31 18:00:12.988405302,(-57 -17 1 1 0 3 9 -25)
1969-12-31 18:00:12.988405302,(56 35 25 21 14 2 32 56)
1969-12-31 18:00:13.000960652,(53 26 1 -2 -4 2 -19 -29)
1969-12-31 18:00:13.000960652,(-11 -2 -16 -10 -9 -10 -13 18)
1969-12-31 18:00:13.006453618,(6 10 0 -3 -2 0 4 6)
1969-12-31 18:00:13.006453618,(17 12 7 2 -2 0 8 -2)
1969-12-31 18:00:13.007238327,(-10 3 14 15 18 30 25 28)
1969-12-31 18:00:13.007238327,(98 43 27 20 18 1 15 76)
1969-12-31 18:00:13.026071353,(-48 -25 -16 -10 -10 -24 -61 -96)
1969-12-31 18:00:13.026071353,(-27 -15 -11 -15 -16 -14 32 -10)
1969-12-31 18:00:13.026856062,(-26 -30 -2 0 5 -7 14 39)
1969-12-31 18:00:13.026856062,(-4 -9 7 9 4 -1 -6 -10)
1969-12-31 18:00:13.035487864,(-24 0 0 -3 -3 20 -10 12)
1969-12-31 18:00:13.035487864,(62 47 14 10 7 -13 -23 14)
1969-12-31 18:00:13.041765540,(-124 -78 -35 -22 -18 -20 -19 -94)
1969-12-31 18:00:13.041765540,(-13 -7 -11 -12 -11 1 20 -23)
1969-12-31 18:00:13.054320890,(66 15 7 9 5 5 0 44)
1969-12-31 18:00:13.054320890,(34 14 -5 -9 -7 -20 -9 44)
1969-12-31 18:00:13.055105599,(-22 -36 -12 -2 0 5 7 5)
1969-12-31 18:00:13.055105599,(-4 21 -1 -5 0 2 -18 -13)
1969-12-31 18:00:13.071584496,(-49 -23 1 -1 0 3 9 -8)
1969-12-31 18:00:13.071584496,(-7 -4 0 3 2 -3 -10 -46)
1969-12-31 18:00:13.072369206,(12 0 1 3 -2 -3 -14 -19)
1969-12-31 18:00:13.072369206,(-46 -59 -37 -16 -7 -8 -22 -48)
1969-12-31 18:00:13.082570428,(32 60 32 11 2 2 13 42)
1969-12-31 18:00:13.082570428,(-19 -1 2 -10 -2 -6 -7 -15)
1969-12-31 18:00:13.088848103,(-16 -7 -5 14 2 -4 -8 1)
1969-12-31 18:00:13.088848103,(-20 -57 -30 -10 -6 -4 -2 -13)
1969-12-31 18:00:13.100618743,(35 15 -16 -12 -2 3 9 7)
1969-12-31 18:00:13.100618743,(-5 43 51 19 3 -6 -24 -13)
1969-12-31 18:00:13.101403453,(27 10 -15 -7 -2 -3 11 40)
1969-12-31 18:00:13.101403453,(0 24 38 19 4 5 4 4)
1969-12-31 18:00:13.118667059,(37 -59 -34 -8 -3 5 9 38)
1969-12-31 18:00:13.118667059,(-1 9 -10 -17 -11 -12 -15 -6)
1969-12-31 18:00:13.119451768,(-10 -6 -9 -9 3 4 5 -6)
1969-12-31 18:00:13.119451768,(-1 3 9 16 3 5 8 3)
1969-12-31 18:00:13.136715375,(5 0 -2 -2 -3 -2 8 27)
1969-12-31 18:00:13.136715375,(3 -34 -30 -10 -8 -9 -9 14)
1969-12-31 18:00:13.137500084,(14 7 -5 -10 -8 -6 -1 10)
1969-12-31 18:00:13.137500084,(-7 14 8 1 8 10 1 -8)
1969-12-31 18:00:13.147701306,(-20 -2 4 0 -3 2 6 -17)
1969-12-31 18:00:13.147701306,(-4 -8 -12 8 6 1 -10 -11)
1969-12-31 18:00:13.148486015,(2 3 2 -11 -5 2 25 29)
1969-12-31 18:00:13.148486015,(-16 -7 -5 -9 -9 -13 -25 -8)
1969-12-31 18:00:13.165749622,(-3 13 6 4 1 -6 -7 -14)
1969-12-31 18:00:13.165749622,(7 -11 -9 0 -1 -4 6 10)
1969-12-31 18:00:13.166534331,(-1 6 11 7 0 11 5 0)
1969-12-31 18:00:13.166534331,(0 4 -3 -5 0 -2 -3 -5)
1969-12-31 18:00:13.176735553,(5 5 6 4 3 4 3 2)
1969-12-31 18:00:13.176735553,(-9 -8 -4 -3 -7 -12 -9 -22)
1969-12-31 18:00:13.183013228,(7 -1 7 7 5 7 -4 6)
1969-12-31 18:00:13.183013228,(-2 2 -2 -3 -3 3 2 -2)
1969-12-31 18:00:13.194783869,(0 2 -1 2 -1 0 -4 -5)
1969-12-31 18:00:13.194783869,(0 -6 -5 -7 -1 3 15 15)
1969-12-31 18:00:13.195568578,(3 7 9 9 5 -2 -1 3)
1969-12-31 18:00:13.195568578,(-8 3 -3 -5 -10 -16 -24 -25)
1969-12-31 18:00:13.213616894,(-5 -5 -7 -6 1 4 4 -10)
1969-12-31 18:00:13.213616894,(-1 5 18 9 4 6 3 0)
1969-12-31 18:00:13.213616894,(1 -5 -7 -9 -7 -8 -8 -4)
1969-12-31 18:00:13.213616894,(2 -3 -7 -7 -5 -2 11 16)
1969-12-31 18:00:13.223818116,(-4 0 -2 1 7 -1 -31 -35)
1969-12-31 18:00:13.223818116,(-10 -8 -13 -8 -16 -14 -13 -16)
1969-12-31 18:00:13.230095791,(3 5 5 4 11 9 4 2)
1969-12-31 18:00:13.230095791,(-6 -16 -3 -1 -2 1 6 6)
1969-12-31 18:00:13.241866431,(4 17 2 3 0 -3 4 3)
1969-12-31 18:00:13.241866431,(6 1 3 5 6 5 9 12)
1969-12-31 18:00:13.242651141,(-10 -8 -10 -12 -8 -13 -17 -17)
1969-12-31 18:00:13.242651141,(0 -10 -12 -6 -4 -3 4 9)
1969-12-31 18:00:13.259914747,(3 14 14 10 8 8 7 1)
1969-12-31 18:00:13.259914747,(-4 -6 -5 -3 1 4 -4 -8)
1969-12-31 18:00:13.265407713,(-3 -4 -3 -4 -7 -7 0 -1)
1969-12-31 18:00:13.265407713,(-5 -42 -3 1 2 4 2 1)
1969-12-31 18:00:13.277963063,(4 47 4 0 -2 -5 -1 -3)
1969-12-31 18:00:13.277963063,(5 -7 -13 -6 2 -1 5 9)
1969-12-31 18:00:13.278747772,(-5 -1 2 3 2 -1 -1 -3)
1969-12-31 18:00:13.278747772,(5 8 3 -4 -1 1 4 5)
1969-12-31 18:00:13.288948994,(-3 -12 12 5 0 -2 -9 -9)
1969-12-31 18:00:13.288948994,(-15 -18 -9 -5 -5 -3 1 -3)
1969-12-31 18:00:13.289733703,(6 7 6 5 2 3 1 2)
1969-12-31 18:00:13.289733703,(-12 -9 -4 0 2 -2 -6 -11)
1969-12-31 18:00:13.307782019,(-2 -11 -8 -9 -7 -4 1 0)
1969-12-31 18:00:13.307782019,(5 9 5 0 2 2 2 5)
1969-12-31 18:00:13.307782019,(-3 -10 -3 5 0 -8 -6 -4)
1969-12-31 18:00:13.307782019,(9 34 27 9 2 8 8 6)
1969-12-31 18:00:13.325045625,(-4 -28 -24 -7 -2 3 -1 5)
1969-12-31 18:00:13.325045625,(-2 6 5 0 -1 1 3 0)
1969-12-31 18:00:13.325830335,(-2 -12 -9 -10 -3 -3 -4 -2)
1969-12-31 18:00:13.325830335,(6 6 -24 -11 1 -4 1 5)
1969-12-31 18:00:13.336031557,(5 4 8 8 -1 -4 0 1)
1969-12-31 18:00:13.336031557,(0 -2 -11 5 3 5 1 -1)
1969-12-31 18:00:13.336816266,(-5 -8 -1 -1 -3 1 7 5)
1969-12-31 18:00:13.336816266,(-10 -26 -13 -8 -5 -5 -2 -8)
1969-12-31 18:00:13.354864582,(3 28 14 -5 -3 0 0 1)
1969-12-31 18:00:13.354864582,(-1 -12 -7 1 3 -4 -4 -3)
1969-12-31 18:00:13.354864582,(1 -1 1 -3 -5 3 6 3)
1969-12-31 18:00:13.354864582,(-3 -7 -6 -6 -4 -3 -2 0)
1969-12-31 18:00:13.372128188,(0 2 16 9 5 2 6 3)
1969-12-31 18:00:13.372128188,(0 6 7 5 3 1 -3 0)
1969-12-31 18:00:13.372912897,(-2 -4 -12 -7 -3 1 2 1)
1969-12-31 18:00:13.372912897,(2 41 41 5 2 2 -1 0)
1969-12-31 18:00:13.383114119,(-4 -22 -11 -3 -2 -2 0 5)
1969-12-31 18:00:13.383114119,(2 16 -29 -20 -4 -7 -6 -8)
1969-12-31 18:00:13.383898829,(4 14 6 10 3 -3 -8 -6)
1969-12-31 18:00:13.383898829,(3 5 5 5 2 3 4 1)
1969-12-31 18:00:13.402731854,(-3 -4 1 2 -2 -3 -2 -2)
1969-12-31 18:00:13.402731854,(-4 -12 -14 -11 -6 -3 0 0)
1969-12-31 18:00:13.403516563,(-7 -4 2 -5 -2 -2 -7 -5)
1969-12-31 18:00:13.403516563,(3 7 -30 -7 0 -2 -4 -4)
1969-12-31 18:00:13.419210751,(-1 -4 -6 -2 -1 0 4 1)
1969-12-31 18:00:13.419210751,(-4 -16 9 3 -1 -3 -3 0)
1969-12-31 18:00:13.419995460,(7 10 -3 -4 0 1 0 2)
1969-12-31 18:00:13.419995460,(-8 -42 -8 -1 -2 1 0 0)
1969-12-31 18:00:13.430196682,(9 69 64 14 2 -3 -3 -5)
1969-12-31 18:00:13.430196682,(-9 -20 -13 -5 -3 -3 -11 -11)
1969-12-31 18:00:13.430981391,(8 28 29 17 5 1 4 3)
1969-12-31 18:00:13.430981391,(-8 -31 -6 -6 -5 -2 0 -1)
1969-12-31 18:00:13.448244997,(-1 -8 -10 -1 -1 -2 -5 -8)
1969-12-31 18:00:13.448244997,(2 0 5 4 3 3 4 4)
1969-12-31 18:00:13.449029707,(-11 -17 13 -3 -6 -1 -2 -1)
1969-12-31 18:00:13.449029707,(12 31 10 9 4 1 0 -2)
1969-12-31 18:00:13.466293313,(-5 -18 -17 -1 -1 -1 0 2)
1969-12-31 18:00:13.466293313,(4 11 9 7 2 2 1 1)
1969-12-31 18:00:13.467078023,(-7 -28 -23 -10 -6 -3 -1 -2)
1969-12-31 18:00:13.467078023,(-4 4 -3 -7 -4 -4 -2 -2)
1969-12-31 18:00:13.484341629,(-7 -8 2 0 1 -3 -2 -5)
1969-12-31 18:00:13.484341629,(4 -2 13 10 2 2 6 6)
1969-12-31 18:00:13.484341629,(2 11 1 1 -1 -5 -4 -2)
1969-12-31 18:00:13.484341629,(-1 5 1 1 -1 -2 -1 -1)
1969-12-31 18:00:13.496112269,(-6 -15 -21 -15 -6 -3 -4 -4)
1969-12-31 18:00:13.496112269,(-2 -4 -2 -1 -2 -2 -1 1)
1969-12-31 18:00:13.496112269,(2 8 -1 -3 0 0 0 0)
1969-12-31 18:00:13.496112269,(-2 0 -18 -7 -4 -2 1 -2)
1969-12-31 18:00:13.513375876,(0 -15 -2 -1 -2 0 -1 0)
1969-12-31 18:00:13.513375876,(-2 -6 -1 -8 -7 0 0 0)
1969-12-31 18:00:13.514160585,(3 12 -7 3 3 0 -3 -4)
1969-12-31 18:00:13.514160585,(-4 -15 -3 -2 0 -1 -1 -1)
1969-12-31 18:00:13.524361807,(-6 -14 -5 -2 -1 -2 -4 -2)
1969-12-31 18:00:13.524361807,(-3 -6 -9 -7 -4 -3 -2 -3)
1969-12-31 18:00:13.525146516,(-1 4 2 -2 2 1 -2 -2)
1969-12-31 18:00:13.525146516,(2 11 -4 4 0 -3 -4 -2)
1969-12-31 18:00:13.542410123,(-1 -9 -12 -4 -2 -1 -3 -2)
1969-12-31 18:00:13.542410123,(8 11 17 13 8 4 4 4)
1969-12-31 18:00:13.543194832,(-11 -10 -10 -6 -3 -1 -2 -4)
1969-12-31 18:00:13.543194832,(0 9 5 1 -1 0 1 -1)
1969-12-31 18:00:13.565166695,(-2 -7 -8 -6 -1 0 -1 -3)
1969-12-31 18:00:13.565951404,(-2 3 -1 -3 -1 0 -2 1)
1969-12-31 18:00:13.573013788,(1 -1 -3 -1 1 0 2 1)
1969-12-31 18:00:13.573013788,(2 9 9 1 1 1 0 0)
1969-12-31 18:00:13.573798498,(0 1 -1 2 -3 -4 1 -1)
1969-12-31 18:00:13.573798498,(-1 -3 -9 -4 -3 -2 -2 -2)
1969-12-31 18:00:13.574583207,(4 6 15 11 3 1 2 2)
1969-12-31 18:00:13.574583207,(1 2 0 -2 -1 -1 -2 -3)
1969-12-31 18:00:13.590277395,(-7 -29 -39 -20 -11 -6 -5 -6)
1969-12-31 18:00:13.590277395,(1 8 24 11 3 1 -1 -1)
1969-12-31 18:00:13.590277395,(-1 7 6 1 -2 -1 -2 -2)
1969-12-31 18:00:13.590277395,(1 4 3 5 4 2 0 1)
1969-12-31 18:00:13.607541001,(-1 -7 -11 -11 -7 -1 1 -3)
1969-12-31 18:00:13.607541001,(-5 -1 -7 -2 -2 -2 -1 -1)
1969-12-31 18:00:13.608325710,(1 1 2 1 0 0 -1 1)
1969-12-31 18:00:13.608325710,(1 -4 2 3 0 1 0 1)
1969-12-31 18:00:13.618526932,(-2 6 8 6 1 -2 -1 0)
1969-12-31 18:00:13.618526932,(0 5 -4 -6 -2 -2 -2 1)
1969-12-31 18:00:13.619311642,(-2 -2 -1 3 1 1 0 0)
1969-12-31 18:00:13.619311642,(0 0 0 2 0 0 -1 -1)
1969-12-31 18:00:13.642852923,(-1 -1 2 -1 -2 1 0 2)
1969-12-31 18:00:13.642852923,(-3 2 -4 -3 -4 -2 -3 -3)
1969-12-31 18:00:13.643637632,(0 -6 -9 -5 -3 -1 -1 1)
1969-12-31 18:00:13.643637632,(-5 -5 -1 -2 -2 -3 -2 -3)
1969-12-31 18:00:13.654623564,(-3 3 2 -1 -2 -2 1 1)
1969-12-31 18:00:13.654623564,(3 2 -3 4 4 2 0 1)
1969-12-31 18:00:13.655408273,(-3 -2 2 -4 -2 -1 -1 -4)
1969-12-31 18:00:13.655408273,(-1 -1 -2 -5 -5 -1 -2 -1)
1969-12-31 18:00:13.672671879,(5 17 14 12 8 2 1 0)
1969-12-31 18:00:13.672671879,(-4 -4 -5 -3 -2 -3 0 -1)
1969-12-31 18:00:13.672671879,(0 -2 -8 -7 -3 -1 -1 0)
1969-12-31 18:00:13.672671879,(3 2 5 5 2 2 0 1)
1969-12-31 18:00:13.683657811,(-4 -9 -5 -9 -9 -4 -3 -2)
1969-12-31 18:00:13.683657811,(-2 -3 -5 -19 -28 -5 -3 -1)
1969-12-31 18:00:13.689150776,(0 0 -2 10 24 0 -1 -1)
1969-12-31 18:00:13.689150776,(-4 -3 -7 -20 -27 -6 -2 -2)
1969-12-31 18:00:13.701706126,(6 4 10 28 41 12 3 3)
1969-12-31 18:00:13.701706126,(0 5 5 19 14 6 -1 0)
1969-12-31 18:00:13.702490836,(-1 -5 -2 5 3 0 -1 1)
1969-12-31 18:00:13.702490836,(-2 -1 -3 -7 -18 -6 -2 -3)
1969-12-31 18:00:13.712692058,(3 6 9 3 1 0 0 1)
1969-12-31 18:00:13.712692058,(-10 -15 -17 -21 -21 -9 -6 -11)
1969-12-31 18:00:13.719754442,(0 -1 -1 -4 -8 -1 1 -1)
1969-12-31 18:00:13.719754442,(0 0 4 6 13 1 1 -2)
1969-12-31 18:00:13.731525083,(-1 -2 -7 -13 -17 -4 -1 -1)
1969-12-31 18:00:13.731525083,(3 1 4 4 7 1 2 0)
1969-12-31 18:00:13.732309792,(-3 -3 -2 -5 -7 -2 -2 -3)
1969-12-31 18:00:13.732309792,(-2 -3 0 4 7 1 2 0)
1969-12-31 18:00:13.748788689,(7 13 3 -1 -7 0 2 1)
1969-12-31 18:00:13.748788689,(2 3 2 3 8 1 1 1)
1969-12-31 18:00:13.749573398,(1 0 -1 1 -1 -2 1 2)
1969-12-31 18:00:13.749573398,(-6 -6 -5 -4 -3 -2 -4 -5)
1969-12-31 18:00:13.759774620,(-5 -8 -4 -1 -4 -2 -3 -3)
1969-12-31 18:00:13.759774620,(-2 1 1 2 5 0 0 0)
1969-12-31 18:00:13.766837005,(0 -2 -4 -6 -10 -2 0 0)
1969-12-31 18:00:13.766837005,(0 2 3 4 8 2 0 1)
1969-12-31 18:00:13.777822936,(-3 -4 -6 -5 -2 -2 -1 0)
1969-12-31 18:00:13.777822936,(0 2 1 -3 0 -1 0 1)
1969-12-31 18:00:13.779392355,(-3 -3 -4 -1 -7 -3 -3 -4)
1969-12-31 18:00:13.779392355,(2 -1 -1 1 11 1 -1 -3)
1969-12-31 18:00:13.795871252,(0 -4 -2 -1 -8 -1 -2 -3)
1969-12-31 18:00:13.795871252,(0 -2 -6 -4 -4 -2 0 0)
1969-12-31 18:00:13.797440670,(-2 0 4 2 2 0 0 -1)
1969-12-31 18:00:13.797440670,(1 2 0 1 0 1 -1 2)
1969-12-31 18:00:13.806857183,(-3 -1 0 -4 -11 -3 -2 -1)
1969-12-31 18:00:13.806857183,(1 -2 1 6 18 4 0 1)
1969-12-31 18:00:13.813134858,(2 0 1 1 -3 -1 -1 -1)
1969-12-31 18:00:13.813134858,(-7 -10 -10 -5 -4 -4 -3 -5)
1969-12-31 18:00:13.825690208,(-2 2 3 2 3 -1 0 -3)
1969-12-31 18:00:13.825690208,(-4 -5 -8 -14 -16 -6 -1 -3)
1969-12-31 18:00:13.826474917,(-1 2 1 6 10 1 0 0)
1969-12-31 18:00:13.826474917,(2 3 4 1 -5 -2 0 2)
1969-12-31 18:00:13.842953814,(0 -1 -1 2 6 2 0 1)
1969-12-31 18:00:13.842953814,(0 1 3 0 -4 -1 -2 -1)
1969-12-31 18:00:13.843738524,(0 -1 -4 -5 -4 0 -1 -1)
1969-12-31 18:00:13.843738524,(0 -2 -1 1 1 1 -1 0)
1969-12-31 18:00:13.853939746,(-4 -6 -4 -5 -6 -5 -4 -3)
1969-12-31 18:00:13.853939746,(0 -1 0 -1 -1 0 0 -1)
1969-12-31 18:00:13.861002130,(-1 0 -1 -3 -2 0 -1 -1)
1969-12-31 18:00:13.861002130,(0 2 1 -3 -4 -4 0 1)
1969-12-31 18:00:13.871988061,(-2 -3 -1 -2 1 -1 -2 0)
1969-12-31 18:00:13.871988061,(-2 -2 -1 3 2 0 0 -1)
1969-12-31 18:00:13.882973992,(-2 -5 -2 -4 -3 -2 -4 -3)
1969-12-31 18:00:13.882973992,(0 1 1 -3 -4 -1 -1 -2)
1969-12-31 18:00:13.890036377,(0 -1 -3 1 4 2 2 2)
1969-12-31 18:00:13.890036377,(-1 0 -2 1 -2 -3 -1 0)
1969-12-31 18:00:13.890821086,(-3 -4 -5 -3 -6 -3 -1 -2)
1969-12-31 18:00:13.890821086,(1 7 -1 -2 3 2 2 0)
1969-12-31 18:00:13.901022308,(-3 -10 0 3 -1 -1 -1 -2)
1969-12-31 18:00:13.901022308,(-1 -1 -1 -1 -1 -1 -1 -2)
1969-12-31 18:00:13.920640043,(0 -2 -4 -3 -2 0 -1 0)
1969-12-31 18:00:13.920640043,(-1 -1 0 0 2 0 0 1)
1969-12-31 18:00:13.921424752,(-2 0 -6 -8 -4 -3 -1 -2)
1969-12-31 18:00:13.921424752,(-2 -3 -7 -11 -11 -6 -5 -3)
1969-12-31 18:00:13.930056555,(-1 2 3 0 -6 -3 -1 -2)
1969-12-31 18:00:13.930056555,(1 1 5 11 8 3 0 1)
1969-12-31 18:00:13.937118940,(-2 -3 -3 -3 -4 2 -1 0)
1969-12-31 18:00:13.937118940,(-1 -2 0 4 8 2 -2 -4)
1969-12-31 18:00:13.938688358,(0 1 -3 -5 -2 -3 -1 0)
1969-12-31 18:00:13.938688358,(-1 -1 0 -2 -2 0 0 -3)
1969-12-31 18:00:13.948104871,(-1 1 -2 -4 -3 -2 -1 -2)
1969-12-31 18:00:13.948104871,(1 0 3 2 -1 1 1 1)
1969-12-31 18:00:13.960660221,(-1 -2 -1 -1 2 1 -1 -1)
1969-12-31 18:00:13.960660221,(-1 -2 -2 -1 -3 -2 0 -1)
1969-12-31 18:00:13.966153186,(-1 1 0 1 -3 -1 -1 -1)
1969-12-31 18:00:13.966153186,(-1 -1 -1 0 1 -2 0 0)
1969-12-31 18:00:13.971646152,(0 -3 0 1 2 -1 -1 -2)
1969-12-31 18:00:13.971646152,(-1 -4 -6 -5 -5 -2 -2 0)
1969-12-31 18:00:13.984201502,(-1 -1 -2 -2 -1 -1 -2 -2)
1969-12-31 18:00:13.984201502,(0 1 2 2 0 1 0 2)
1969-12-31 18:00:13.984986212,(0 -2 -2 -2 -3 -1 1 -1)
1969-12-31 18:00:13.984986212,(0 -1 -1 0 -1 -1 -1 0)
1969-12-31 18:00:14.002249818,(0 1 -1 -2 -2 -2 0 1)
1969-12-31 18:00:14.002249818,(0 -1 0 1 -2 1 -2 -2)
1969-12-31 18:00:14.003034527,(0 1 0 2 5 3 2 2)
1969-12-31 18:00:14.003034527,(-3 -3 -4 -5 -1 0 -2 -2)
1969-12-31 18:00:14.013235749,(0 -2 -1 1 4 -1 -1 -1)
1969-12-31 18:00:14.013235749,(0 3 5 4 1 1 1 0)
1969-12-31 18:00:14.014805168,(-1 -1 -1 -3 -3 -2 -1 -2)
1969-12-31 18:00:14.014805168,(-1 0 -1 -2 0 -1 -1 -1)
1969-12-31 18:00:14.031284065,(-4 -4 -4 -1 -2 -2 0 -1)
1969-12-31 18:00:14.031284065,(-2 -4 -3 -2 -3 -3 -2 -2)
1969-12-31 18:00:14.032853484,(-1 -2 -3 -4 -2 -2 -1 -2)
1969-12-31 18:00:14.032853484,(-1 1 3 2 0 0 -2 -2)
1969-12-31 18:00:14.048547671,(-1 0 -1 -2 -1 -1 -2 -1)
1969-12-31 18:00:14.048547671,(-1 -1 -1 1 1 0 -2 0)
1969-12-31 18:00:14.050117090,(-2 -1 -1 0 -1 -2 -1 -1)
1969-12-31 18:00:14.050117090,(-1 -2 -3 -4 -4 -2 -2 0)
1969-12-31 18:00:14.060318312,(1 0 0 -1 3 1 2 0)
1969-12-31 18:00:14.060318312,(-1 -1 -1 1 1 0 -1 -1)
1969-12-31 18:00:14.061887731,(0 0 1 2 1 0 -1 -2)
1969-12-31 18:00:14.061887731,(0 -2 0 -2 -3 -2 -1 -1)
1969-12-31 18:00:14.078366627,(-2 -2 -2 -1 -2 -1 -2 -2)
1969-12-31 18:00:14.078366627,(-2 -1 -2 -4 -2 -1 -1 -1)
1969-12-31 18:00:14.079151337,(-2 -3 -3 -5 -4 -4 -2 -3)
1969-12-31 18:00:14.079151337,(0 -1 0 -2 -3 0 -1 0)
1969-12-31 18:00:14.095630234,(1 1 1 -3 -4 -1 1 0)
1969-12-31 18:00:14.095630234,(0 -2 -1 1 2 0 1 0)
1969-12-31 18:00:14.097199652,(-2 -3 -1 -2 -2 -1 -1 0)
1969-12-31 18:00:14.097199652,(0 2 0 2 -1 -1 -1 1)
1969-12-31 18:00:14.107400874,(-4 -7 -8 -5 -4 -2 -4 -5)
1969-12-31 18:00:14.107400874,(-2 -2 -4 -5 -3 -3 -1 -1)
1969-12-31 18:00:14.108970293,(-1 0 1 3 2 1 0 0)
1969-12-31 18:00:14.108970293,(-1 -2 -5 -1 2 0 0 0)
1969-12-31 18:00:14.125449190,(1 3 9 3 0 0 -1 0)
1969-12-31 18:00:14.125449190,(0 -2 -2 -1 -3 -2 -2 -2)
1969-12-31 18:00:14.130157446,(-1 -1 0 0 6 1 0 0)
1969-12-31 18:00:14.130157446,(-1 0 1 2 1 0 0 0)
1969-12-31 18:00:14.142712796,(-3 -3 -3 1 2 -1 -3 -2)
1969-12-31 18:00:14.143497506,(-2 -1 1 0 0 0 1 0)
1969-12-31 18:00:14.144282215,(0 -2 -2 -4 -3 -1 -1 0)
1969-12-31 18:00:14.144282215,(-2 -3 -4 -3 -2 -2 -1 -2)
1969-12-31 18:00:14.154483437,(0 1 3 3 2 1 -1 2)
1969-12-31 18:00:14.154483437,(-1 -1 -1 -2 -3 -2 -1 -1)
1969-12-31 18:00:14.159191693,(0 1 2 2 0 -1 0 0)
1969-12-31 18:00:14.159191693,(-1 -1 1 3 2 -2 -2 -2)
1969-12-31 18:00:14.172531753,(-1 1 -2 -4 -3 -2 -1 -1)
1969-12-31 18:00:14.172531753,(0 -1 1 -1 1 -2 -1 0)
1969-12-31 18:00:14.174101171,(-2 -1 -1 0 -1 0 0 -1)
1969-12-31 18:00:14.174101171,(-2 -2 -3 -2 -2 -2 0 -3)
1969-12-31 18:00:14.190580068,(0 1 1 2 3 0 1 -1)
1969-12-31 18:00:14.190580068,(0 0 0 0 0 0 0 -1)
1969-12-31 18:00:14.191364778,(-1 -1 -3 -4 -3 -1 -3 -3)
1969-12-31 18:00:14.191364778,(-2 -2 -2 -4 -4 1 -3 0)
1969-12-31 18:00:14.207843675,(-1 -4 -7 -8 -3 0 -1 -1)
1969-12-31 18:00:14.207843675,(0 -1 0 3 5 0 3 0)
1969-12-31 18:00:14.208628384,(1 1 2 1 1 0 2 0)
1969-12-31 18:00:14.208628384,(-4 -5 -4 -4 0 -2 -1 -3)
1969-12-31 18:00:14.225107281,(-1 -1 -2 -3 -4 -2 -1 1)
1969-12-31 18:00:14.225107281,(-1 -1 -2 -5 -4 0 -2 -3)
1969-12-31 18:00:14.225107281,(2 27 12 6 4 -2 0 0)
1969-12-31 18:00:14.225107281,(-3 -8 -11 -9 -1 1 -5 -4)
1969-12-31 18:00:14.225107281,(0 4 4 1 -5 -2 3 -1)
1969-12-31 18:00:14.225107281,(1 -3 6 8 6 5 3 2)
1969-12-31 18:00:14.234523794,(-1 4 3 -1 0 -1 -2 -1)
1969-12-31 18:00:14.234523794,(1 -2 -4 -6 -5 -2 -2 1)
1969-12-31 18:00:14.235308503,(-4 -6 -3 2 -2 -4 -4 -5)
1969-12-31 18:00:14.235308503,(-3 -14 -13 -2 0 0 -1 0)
1969-12-31 18:00:14.247079144,(-2 0 3 1 1 -2 -1 -1)
1969-12-31 18:00:14.247079144,(-6 -7 -14 -7 -1 -1 -4 -5)
1969-12-31 18:00:14.251787400,(8 6 7 1 -1 1 4 5)
1969-12-31 18:00:14.251787400,(9 9 4 5 5 -2 -11 -16)
1969-12-31 18:00:14.263558040,(9 -9 -15 -9 -3 -1 4 15)
1969-12-31 18:00:14.263558040,(-15 17 13 1 -1 -2 -7 -13)
1969-12-31 18:00:14.264342750,(-9 -8 4 3 4 2 -1 -2)
1969-12-31 18:00:14.264342750,(14 14 6 5 4 4 10 16)
1969-12-31 18:00:14.281606356,(-19 -13 -9 -6 -3 -3 -7 -22)
1969-12-31 18:00:14.281606356,(10 -8 -4 -3 -1 -1 1 14)
1969-12-31 18:00:14.287099321,(2 3 -1 -4 -4 -1 3 0)
1969-12-31 18:00:14.287099321,(-25 -3 -1 0 -1 -1 -3 -16)
1969-12-31 18:00:14.292592287,(24 -2 -1 0 1 5 8 26)
1969-12-31 18:00:14.292592287,(8 3 -5 -8 -4 -4 -7 -5)
1969-12-31 18:00:14.298869962,(-14 -10 -4 -5 -5 -5 -7 -20)
1969-12-31 18:00:14.298869962,(18 -4 -4 1 0 -1 -2 13)
1969-12-31 18:00:14.312210022,(3 7 -2 -4 -2 -2 1 7)
1969-12-31 18:00:14.312210022,(-22 -15 -1 1 2 0 2 -10)
1969-12-31 18:00:14.312210022,(9 5 0 -1 -2 0 1 4)
1969-12-31 18:00:14.312210022,(-6 12 5 2 4 0 3 1)
1969-12-31 18:00:14.328688919,(11 6 5 4 3 0 -14 -36)
1969-12-31 18:00:14.328688919,(-9 -3 3 1 -1 1 4 14)
1969-12-31 18:00:14.329473628,(-23 -9 -7 -5 -6 -5 0 8)
1969-12-31 18:00:14.329473628,(-5 -11 -9 -6 1 6 -1 7)
1969-12-31 18:00:14.339674850,(1 9 8 7 3 3 21 18)
1969-12-31 18:00:14.339674850,(21 2 -3 -5 -6 -15 -30 -24)
1969-12-31 18:00:14.345952525,(-29 -16 0 3 1 0 -5 -30)
1969-12-31 18:00:14.345952525,(28 28 8 5 2 4 -4 14)
1969-12-31 18:00:14.358507875,(-37 -12 -2 -1 0 0 -7 -42)
1969-12-31 18:00:14.358507875,(45 24 0 0 3 6 33 78)
1969-12-31 18:00:14.358507875,(-2 16 0 -6 -3 16 6 -14)
1969-12-31 18:00:14.358507875,(-22 -34 -8 0 -4 -18 -2 -16)
1969-12-31 18:00:14.375771481,(21 3 -3 -1 -3 -8 -12 27)
1969-12-31 18:00:14.375771481,(-9 2 5 2 1 2 -1 -7)
1969-12-31 18:00:14.376556191,(20 9 4 2 -1 -5 -5 14)
1969-12-31 18:00:14.376556191,(-8 -4 -6 -5 -4 0 3 -4)
1969-12-31 18:00:14.386757413,(-25 10 4 1 2 4 2 -24)
1969-12-31 18:00:14.386757413,(25 -3 -7 -3 -6 1 -2 20)
1969-12-31 18:00:14.393819797,(-21 4 -2 -4 -5 -12 -15 -22)
1969-12-31 18:00:14.393819797,(49 -8 -1 0 1 9 12 12)
1969-12-31 18:00:14.405590438,(-86 -52 -14 -3 -3 -7 -14 -32)
1969-12-31 18:00:14.405590438,(-1 17 -6 -8 -8 -1 5 -21)
1969-12-31 18:00:14.405590438,(32 6 3 0 -1 -13 -2 4)
1969-12-31 18:00:14.405590438,(-39 -1 18 16 14 22 10 -21)
1969-12-31 18:00:14.422854044,(-2 -12 -9 -7 -7 -14 -19 -30)
1969-12-31 18:00:14.422854044,(-3 -16 -3 -2 1 12 0 -31)
1969-12-31 18:00:14.423638753,(18 17 2 1 5 12 10 29)
1969-12-31 18:00:14.423638753,(-33 -13 -9 -11 -17 -38 -13 -33)
1969-12-31 18:00:14.435409394,(21 12 2 1 6 20 26 43)
1969-12-31 18:00:14.435409394,(-23 -15 -4 -4 -5 -18 -19 -28)
1969-12-31 18:00:14.440117650,(5 18 7 4 4 7 -1 -4)
1969-12-31 18:00:14.440117650,(-4 -27 -7 -3 3 5 -4 7)
1969-12-31 18:00:14.451888291,(6 1 -3 0 -2 5 40 26)
1969-12-31 18:00:14.451888291,(-9 -8 -4 -3 -3 -18 -23 -17)
1969-12-31 18:00:14.452673000,(3 -4 4 3 -1 9 11 16)
1969-12-31 18:00:14.452673000,(24 16 -2 -5 -4 -14 -10 -9)
1969-12-31 18:00:14.469936607,(30 -9 -5 0 4 2 -2 35)
1969-12-31 18:00:14.469936607,(-37 -4 -3 -7 0 -4 10 -35)
1969-12-31 18:00:14.470721316,(46 -11 -10 -2 1 6 5 42)
1969-12-31 18:00:14.470721316,(2 26 18 13 3 30 -6 -16)
1969-12-31 18:00:14.480922538,(19 -8 -14 -14 -20 -41 -19 0)
1969-12-31 18:00:14.480922538,(-55 -13 0 -1 -3 3 22 -10)
1969-12-31 18:00:14.487200213,(40 0 -9 -8 -7 -11 -20 3)
1969-12-31 18:00:14.487200213,(-10 -5 -1 -2 9 14 -1 -49)
1969-12-31 18:00:14.499755563,(-49 -31 -16 -9 -1 4 -15 5)
1969-12-31 18:00:14.499755563,(49 31 0 -1 -9 -23 -4 6)
1969-12-31 18:00:14.500540272,(-32 -2 11 5 5 6 -3 2)
1969-12-31 18:00:14.500540272,(-22 -1 -13 -4 -8 -17 3 16)
1969-12-31 18:00:14.517019169,(26 2 3 -2 0 10 -5 15)
1969-12-31 18:00:14.517019169,(-15 -14 -4 -3 3 11 2 -1)
1969-12-31 18:00:14.517019169,(-43 -23 -8 -3 -2 -4 -5 -40)
1969-12-31 18:00:14.517019169,(61 35 11 1 2 -4 1 48)
1969-12-31 18:00:14.535067485,(6 15 14 11 6 -2 15 25)
1969-12-31 18:00:14.535067485,(15 -2 -4 -3 1 48 2 -27)
1969-12-31 18:00:14.535852194,(-32 -18 -10 -7 -6 -26 -37 -31)
1969-12-31 18:00:14.535852194,(7 12 6 0 -5 -3 5 2)
1969-12-31 18:00:14.553115801,(-17 -16 -6 0 -4 -14 -24 -8)
1969-12-31 18:00:14.553115801,(-3 -4 -3 -5 -6 -6 -2 -7)
1969-12-31 18:00:14.553115801,(12 15 11 9 10 14 23 -6)
1969-12-31 18:00:14.553115801,(22 12 -4 -6 -4 8 19 58)
1969-12-31 18:00:14.564101732,(-35 -25 -8 -6 -6 3 -1 -35)
1969-12-31 18:00:14.564101732,(-52 22 10 8 7 -10 -26 -16)
1969-12-31 18:00:14.564886441,(-16 -92 -41 -21 -12 -13 6 12)
1969-12-31 18:00:14.564886441,(25 30 8 3 2 -8 6 35)
1969-12-31 18:00:14.582150048,(30 32 18 10 10 14 13 9)
1969-12-31 18:00:14.582150048,(-17 5 4 2 -2 -7 -9 -6)
1969-12-31 18:00:14.582150048,(-4 22 15 6 3 7 26 36)
1969-12-31 18:00:14.582150048,(-17 -23 -10 -3 -2 -2 -9 -44)
1969-12-31 18:00:14.593135979,(26 11 3 2 6 4 -12 1)
1969-12-31 18:00:14.593135979,(-6 -23 -8 -4 -4 -4 9 7)
1969-12-31 18:00:14.593920688,(-23 31 14 9 4 -9 -7 -74)
1969-12-31 18:00:14.593920688,(20 -29 -15 -10 -9 -14 -26 -19)
1969-12-31 18:00:14.611184295,(43 11 -2 -2 -1 13 43 72)
1969-12-31 18:00:14.611184295,(24 0 4 3 -2 -6 1 43)
1969-12-31 18:00:14.611969004,(-23 -15 -12 -6 -4 -10 -7 11)
1969-12-31 18:00:14.611969004,(-39 -4 -15 -10 -11 -6 -13 -63)
1969-12-31 18:00:14.629232610,(-46 -29 -16 -9 -7 -8 -14 -39)
1969-12-31 18:00:14.629232610,(34 27 27 20 14 11 12 5)
1969-12-31 18:00:14.630017320,(22 2 -8 -11 -9 -20 -33 28)
1969-12-31 18:00:14.630017320,(-1 -16 -12 -10 -12 13 -26 -70)
1969-12-31 18:00:14.640218542,(-40 1 -2 -6 -4 -6 10 -22)
1969-12-31 18:00:14.640218542,(12 -2 5 4 3 -10 -16 -29)
1969-12-31 18:00:14.641003251,(-30 6 9 9 9 24 27 -20)
1969-12-31 18:00:14.641003251,(-35 20 15 11 13 3 -4 4)
1969-12-31 18:00:14.658266857,(63 29 1 -7 -8 -2 -2 -25)
1969-12-31 18:00:14.658266857,(-3 -36 -18 -12 -6 13 -24 -7)
1969-12-31 18:00:14.659051567,(48 26 11 8 5 -4 25 51)
1969-12-31 18:00:14.659051567,(-7 -11 -8 -3 -2 -6 -5 -6)
1969-12-31 18:00:14.676315173,(30 17 4 1 -4 -6 6 4)
1969-12-31 18:00:14.676315173,(-38 -4 0 -1 5 9 -20 -22)
1969-12-31 18:00:14.677099882,(50 0 1 1 0 9 19 83)
1969-12-31 18:00:14.677099882,(30 1 11 8 10 11 30 54)
1969-12-31 18:00:14.688085814,(-51 -10 -5 -2 -1 -1 -13 -57)
1969-12-31 18:00:14.688085814,(56 20 -5 -10 -11 -19 3 46)
1969-12-31 18:00:14.688085814,(-29 -24 -19 -11 -9 -7 -17 -40)
1969-12-31 18:00:14.688870523,(-58 -25 -6 -2 1 -4 11 -5)
1969-12-31 18:00:14.705349420,(-14 -13 -1 2 1 -16 -11 9)
1969-12-31 18:00:14.705349420,(22 1 0 0 6 40 16 14)
1969-12-31 18:00:14.706134129,(-6 26 8 1 -9 -26 -10 -23)
1969-12-31 18:00:14.706134129,(62 5 -5 -4 -6 -12 -42 47)
1969-12-31 18:00:14.723397736,(-26 -32 -5 2 1 18 10 13)
1969-12-31 18:00:14.723397736,(33 -14 -20 -14 -11 -3 -12 28)
1969-12-31 18:00:14.724182445,(-25 -8 -2 -6 -7 0 -8 -67)
1969-12-31 18:00:14.724182445,(-13 -1 0 -4 -1 9 17 12)
1969-12-31 18:00:14.735953086,(111 47 15 9 3 6 16 36)
1969-12-31 18:00:14.735953086,(-9 10 4 3 -3 -33 -9 -10)
1969-12-31 18:00:14.736737795,(16 -19 -11 -4 5 28 -6 54)
1969-12-31 18:00:14.736737795,(-62 -6 2 5 7 19 40 -27)
1969-12-31 18:00:14.752431983,(-3 7 4 2 3 4 -22 1)
1969-12-31 18:00:14.752431983,(-26 0 -2 -2 -3 -10 7 1)
1969-12-31 18:00:14.752431983,(-1 -1 5 4 1 0 -12 -10)
1969-12-31 18:00:14.753216692,(44 -4 -2 1 -2 -7 36 58)
1969-12-31 18:00:14.770480298,(12 13 -3 -1 -1 -4 -21 -75)
1969-12-31 18:00:14.770480298,(-46 2 6 3 2 5 32 -1)
1969-12-31 18:00:14.771265008,(-1 -32 -30 -24 -15 -31 -11 -5)
1969-12-31 18:00:14.771265008,(10 17 11 4 2 -8 -21 7)
1969-12-31 18:00:14.782250939,(-40 -15 0 -1 -3 -7 1 -18)
1969-12-31 18:00:14.782250939,(-39 -2 0 3 4 2 2 -30)
1969-12-31 18:00:14.783035648,(-6 -5 0 -2 -5 -4 -2 -34)
1969-12-31 18:00:14.783035648,(-17 32 16 13 18 33 14 4)
1969-12-31 18:00:14.799514545,(17 -37 -18 -10 -15 -23 15 87)
1969-12-31 18:00:14.799514545,(82 2 4 11 -2 -2 24 82)
1969-12-31 18:00:14.800299255,(-2 18 4 3 17 8 -8 26)
1969-12-31 18:00:14.800299255,(3 -28 -24 -25 -47 -68 -53 -89)
1969-12-31 18:00:14.817562861,(-7 11 6 5 15 53 1 35)
1969-12-31 18:00:14.817562861,(31 17 18 7 -14 -2 11 19)
1969-12-31 18:00:14.818347570,(53 5 -6 -8 -15 -11 20 38)
1969-12-31 18:00:14.818347570,(11 18 0 -4 1 1 37 35)
1969-12-31 18:00:14.828548792,(-36 -29 0 13 20 4 -71 -49)
1969-12-31 18:00:14.828548792,(-19 0 1 9 16 18 2 -57)
1969-12-31 18:00:14.829333501,(1 10 4 2 -4 -14 1 3)
1969-12-31 18:00:14.829333501,(-33 0 12 13 14 15 -12 -55)
1969-12-31 18:00:14.847381817,(-47 -17 -13 -13 -24 -6 10 -79)
1969-12-31 18:00:14.847381817,(21 -19 -17 -13 6 -11 -38 28)
1969-12-31 18:00:14.847381817,(47 16 9 6 19 48 25 30)
1969-12-31 18:00:14.847381817,(-21 -1 -2 -7 -6 -8 20 13)
1969-12-31 18:00:14.864645423,(-2 -3 -2 6 9 -19 -36 -1)
1969-12-31 18:00:14.864645423,(-36 -15 -10 -11 -10 -12 6 20)
1969-12-31 18:00:14.865430133,(-22 6 5 5 8 12 -4 -26)
1969-12-31 18:00:14.865430133,(13 -6 0 15 20 9 -7 5)
1969-12-31 18:00:14.875631355,(0 25 12 1 -28 -12 19 9)
1969-12-31 18:00:14.875631355,(-11 -16 -13 -20 1 -2 0 -9)
1969-12-31 18:00:14.876416064,(4 5 9 12 -2 -23 -5 -2)
1969-12-31 18:00:14.876416064,(38 -8 -15 -24 -15 38 15 83)
1969-12-31 18:00:14.893679670,(-20 -11 -9 -10 6 -2 13 -18)
1969-12-31 18:00:14.893679670,(6 14 8 5 -2 -5 -6 -14)
1969-12-31 18:00:14.894464380,(-13 4 4 3 -7 -16 14 -10)
1969-12-31 18:00:14.894464380,(-22 -2 -1 1 -2 -1 -14 -75)
1969-12-31 18:00:14.918005661,(64 6 -7 -5 -9 -6 12 58)
1969-12-31 18:00:14.918005661,(-28 -5 -6 2 7 4 5 -60)
1969-12-31 18:00:14.918005661,(-71 -20 4 18 26 14 9 -17)
1969-12-31 18:00:14.918005661,(42 -13 -17 -29 -58 -36 -7 55)
1969-12-31 18:00:14.922713917,(9 26 11 0 12 -19 3 5)
1969-12-31 18:00:14.922713917,(-13 -19 -9 -13 34 65 9 11)
1969-12-31 18:00:14.923498627,(-15 -6 -6 -8 -23 -21 -20 -26)
1969-12-31 18:00:14.923498627,(-31 2 10 17 23 -1 -1 11)
1969-12-31 18:00:14.940762233,(-17 2 -2 -6 5 9 -3 -22)
1969-12-31 18:00:14.940762233,(27 8 1 7 -18 -28 -9 15)
1969-12-31 18:00:14.941546942,(-11 -5 -2 -6 -3 12 2 -12)
1969-12-31 18:00:14.941546942,(-1 -3 2 12 18 -8 -7 12)
1969-12-31 18:00:14.958810549,(-5 -5 1 4 -20 -10 -5 -12)
1969-12-31 18:00:14.958810549,(-15 7 9 9 -21 -11 11 8)
1969-12-31 18:00:14.959595258,(42 22 -8 -17 3 -6 2 52)
1969-12-31 18:00:14.959595258,(-22 -45 -11 -5 9 45 8 -14)
1969-12-31 18:00:14.969796480,(50 13 -3 -1 1 -11 4 43)
1969-12-31 18:00:14.969796480,(-11 0 8 7 -1 -25 -3 0)
1969-12-31 18:00:14.970581189,(-9 2 1 -1 -14 16 -7 -35)
1969-12-31 18:00:14.970581189,(7 33 19 23 44 18 -2 -20)
1969-12-31 18:00:14.987844796,(-19 -36 -17 -14 -15 -13 -2 -10)
1969-12-31 18:00:14.987844796,(23 -6 -27 -24 -8 20 -1 -22)
1969-12-31 18:00:14.988629505,(25 65 56 34 16 13 12 34)
1969-12-31 18:00:14.988629505,(-42 -102 -73 -31 -3 -20 -4 -25)
1969-12-31 18:00:15.005893111,(-26 23 -52 -27 -8 26 -14 -39)
1969-12-31 18:00:15.005893111,(19 97 97 74 13 -18 1 -12)
1969-12-31 18:00:15.006677821,(15 -22 -44 -13 -10 -25 -15 6)
1969-12-31 18:00:15.006677821,(2 19 22 23 17 22 -6 -13)
1969-12-31 18:00:15.029434392,(2 -51 -34 2 5 -8 6 17)
1969-12-31 18:00:15.029434392,(-33 -62 -50 -36 -15 -10 -9 -16)
1969-12-31 18:00:15.030219102,(34 -22 4 15 27 34 11 22)
1969-12-31 18:00:15.030219102,(-39 8 10 4 -30 -70 -30 -25)
1969-12-31 18:00:15.034927358,(5 -20 -1 -11 3 31 -8 -28)
1969-12-31 18:00:15.034927358,(-1 1 -2 -19 -57 -34 7 -27)
1969-12-31 18:00:15.035712068,(5 -20 3 -5 29 49 15 11)
1969-12-31 18:00:15.035712068,(48 -4 -44 -32 -38 -34 -19 -6)
1969-12-31 18:00:15.052975674,(-1 25 34 19 13 -14 16 14)
1969-12-31 18:00:15.052975674,(-27 -4 6 16 15 7 -30 -20)
1969-12-31 18:00:15.053760383,(13 54 55 16 -10 -39 9 16)
1969-12-31 18:00:15.053760383,(2 -9 -11 7 23 38 -10 -15)
1969-12-31 18:00:15.063961605,(-28 -42 -46 -32 -24 27 23 16)
1969-12-31 18:00:15.063961605,(15 54 58 27 15 -3 5 -5)
1969-12-31 18:00:15.070239280,(-37 -50 -19 -5 -15 -19 -18 -21)
1969-12-31 18:00:15.070239280,(2 4 -27 20 24 -9 0 3)
1969-12-31 18:00:15.088287596,(47 36 29 8 -9 -6 4 45)
1969-12-31 18:00:15.088287596,(-64 -54 -42 -30 0 16 1 -15)
1969-12-31 18:00:15.089072305,(-30 -41 -41 -18 -24 -37 -8 -25)
1969-12-31 18:00:15.089072305,(-2 -14 18 5 -12 -4 5 17)
1969-12-31 18:00:15.106335912,(-9 -29 -12 4 37 39 -2 -5)
1969-12-31 18:00:15.106335912,(36 -4 -26 -16 -21 -45 9 48)
1969-12-31 18:00:15.106335912,(77 17 -18 -5 1 17 -4 3)
1969-12-31 18:00:15.106335912,(16 44 53 4 -17 -3 11 12)
1969-12-31 18:00:15.111044168,(-14 -71 -16 4 41 60 8 3)
1969-12-31 18:00:15.111044168,(9 113 65 23 -3 -31 -15 -18)
1969-12-31 18:00:15.117321843,(-8 -23 50 22 -12 -8 -10 -14)
1969-12-31 18:00:15.117321843,(-33 -58 -108 -48 -19 -21 1 27)
1969-12-31 18:00:15.135370159,(14 80 51 15 -24 -74 -1 -25)
1969-12-31 18:00:15.135370159,(3 42 63 59 89 102 12 10)
