time,.data
1969/12/31/18:00:07.709,(-2 -2 -4 -5 -2 1 0 -3)
1969/12/31/18:00:07.709,(7 7 4 3 0 3 3 5)
1969/12/31/18:00:07.709,(-1 0 1 -3 -6 -5 -4 -1)
1969/12/31/18:00:07.709,(-3 -4 -7 -6 -2 -3 -3 -4)
1969/12/31/18:00:07.731,(-1 -5 -4 -1 -3 -2 1 1)
1969/12/31/18:00:07.731,(0 0 4 11 9 6 1 0)
1969/12/31/18:00:07.732,(-4 1 5 -3 -2 4 -1 -1)
1969/12/31/18:00:07.732,(0 -2 -12 -21 -15 -7 -2 -3)
1969/12/31/18:00:07.754,(6 2 -9 -13 -4 -4 -2 3)
1969/12/31/18:00:07.754,(-5 -9 6 21 6 0 -2 -3)
1969/12/31/18:00:07.755,(-5 1 11 13 0 -1 0 -3)
1969/12/31/18:00:07.755,(2 4 1 7 4 -1 0 1)
1969/12/31/18:00:07.769,(-3 -3 -3 -15 3 0 1 0)
1969/12/31/18:00:07.769,(2 0 -18 -22 -16 -5 0 1)
1969/12/31/18:00:07.769,(8 0 1 18 18 7 3 6)
1969/12/31/18:00:07.769,(-12 -6 2 -21 -20 -5 -4 -8)
1969/12/31/18:00:07.782,(2 -3 -11 6 -12 0 2 1)
1969/12/31/18:00:07.782,(-2 1 10 -13 17 -6 -6 -4)
1969/12/31/18:00:07.790,(3 2 -6 14 -1 6 5 2)
1969/12/31/18:00:07.790,(12 8 15 21 22 10 5 7)
1969/12/31/18:00:07.805,(-11 -1 6 -14 -6 -5 -12 -13)
1969/12/31/18:00:07.805,(-3 -8 -3 12 -9 6 9 1)
1969/12/31/18:00:07.813,(1 2 -10 -17 -2 -12 -11 0)
1969/12/31/18:00:07.813,(-13 -15 -3 -9 -11 -8 -6 -10)
1969/12/31/18:00:07.836,(6 3 1 -15 -25 -7 1 4)
1969/12/31/18:00:07.836,(1 8 -5 -10 -18 -7 -4 -2)
1969/12/31/18:00:07.837,(6 2 -12 12 48 6 0 3)
1969/12/31/18:00:07.837,(-8 -14 1 -14 -1 8 0 -1)
1969/12/31/18:00:07.842,(1 9 16 32 26 10 6 3)
1969/12/31/18:00:07.842,(5 12 5 -6 -36 -4 4 2)
1969/12/31/18:00:07.859,(8 0 -9 -34 -43 -12 -1 3)
1969/12/31/18:00:07.859,(-8 -11 0 17 48 -7 -10 -4)
1969/12/31/18:00:07.865,(-2 0 -6 33 47 19 3 0)
1969/12/31/18:00:07.865,(-4 -4 32 57 27 9 -1 -1)
1969/12/31/18:00:07.874,(-6 -1 -6 -62 -19 2 5 -4)
1969/12/31/18:00:07.874,(9 12 0 55 -31 -4 1 4)
1969/12/31/18:00:07.887,(-7 -12 3 16 38 0 -2 -3)
1969/12/31/18:00:07.887,(-7 -9 -35 -34 -15 -2 0 -6)
1969/12/31/18:00:07.896,(10 10 -3 -30 -17 -11 -3 6)
1969/12/31/18:00:07.896,(3 4 7 -48 -27 -8 -7 0)
1969/12/31/18:00:07.902,(-4 2 10 -5 -14 -6 -2 -3)
1969/12/31/18:00:07.902,(5 4 6 11 8 3 1 1)
1969/12/31/18:00:07.911,(-15 -20 -20 -19 -43 -5 -3 -8)
1969/12/31/18:00:07.911,(1 -1 -6 44 42 8 3 1)
1969/12/31/18:00:07.926,(-5 -1 19 -15 11 10 2 -1)
1969/12/31/18:00:07.926,(-3 -3 -16 -7 -1 -9 -6 -3)
1969/12/31/18:00:07.934,(-2 -8 -33 -83 -55 -17 -1 -1)
1969/12/31/18:00:07.934,(-2 7 24 34 22 11 -1 -2)
1969/12/31/18:00:07.947,(5 4 27 64 14 9 5 4)
1969/12/31/18:00:07.947,(-5 -4 -11 -18 19 4 0 -5)
1969/12/31/18:00:07.956,(8 9 2 14 -6 -8 -3 4)
1969/12/31/18:00:07.956,(4 5 7 50 12 6 7 2)
1969/12/31/18:00:07.962,(-1 -13 -27 -92 -73 -27 -8 -3)
1969/12/31/18:00:07.962,(-10 -1 25 33 11 3 -3 -5)
1969/12/31/18:00:07.971,(-1 3 12 85 54 19 5 1)
1969/12/31/18:00:07.971,(0 -4 -24 -88 -34 -5 -1 1)
1969/12/31/18:00:07.985,(10 12 7 44 3 5 4 6)
1969/12/31/18:00:07.985,(1 -5 -13 -48 -39 -12 -5 1)
1969/12/31/18:00:07.994,(-5 -2 17 36 27 6 1 -3)
1969/12/31/18:00:07.994,(0 4 -5 -17 -1 -1 1 1)
1969/12/31/18:00:08.007,(-4 -6 -22 -24 -26 -12 -6 -6)
1969/12/31/18:00:08.007,(9 7 4 8 7 4 4 7)
1969/12/31/18:00:08.016,(-9 -3 26 22 1 9 1 -6)
1969/12/31/18:00:08.016,(5 6 1 27 13 1 4 4)
1969/12/31/18:00:08.022,(6 2 -8 5 -10 0 1 3)
1969/12/31/18:00:08.022,(-4 -5 1 0 16 4 0 -2)
1969/12/31/18:00:08.031,(-5 0 9 15 6 -2 -3 -4)
1969/12/31/18:00:08.031,(2 5 -4 -4 -14 -4 2 2)
1969/12/31/18:00:08.045,(0 -1 -10 -22 0 -1 -1 1)
1969/12/31/18:00:08.045,(2 -1 -5 -6 -2 -1 0 2)
1969/12/31/18:00:08.054,(-1 -3 -2 -16 -14 -1 -1 -3)
1969/12/31/18:00:08.054,(0 0 -2 -2 -7 -2 -2 -4)
1969/12/31/18:00:08.067,(-3 -1 1 9 11 2 -1 -2)
1969/12/31/18:00:08.067,(-1 -2 -3 -1 -4 -2 -2 -2)
1969/12/31/18:00:08.076,(-2 -2 -6 -7 7 1 -1 0)
1969/12/31/18:00:08.076,(-1 -4 -2 -13 -14 0 3 5)
1969/12/31/18:00:08.082,(-2 1 9 23 29 6 0 -1)
1969/12/31/18:00:08.082,(3 8 5 -6 -9 -2 -3 -2)
1969/12/31/18:00:08.091,(7 5 -1 2 4 1 0 3)
1969/12/31/18:00:08.091,(-5 -3 -7 -3 1 0 -1 -5)
1969/12/31/18:00:08.105,(-8 -8 -5 -14 -13 -3 0 0)
1969/12/31/18:00:08.105,(-12 -12 -2 10 7 0 -9 -8)
1969/12/31/18:00:08.114,(0 -3 -1 -8 -4 -5 0 3)
1969/12/31/18:00:08.114,(20 15 5 4 6 4 7 15)
1969/12/31/18:00:08.127,(-10 -7 -7 -13 -8 -1 0 -4)
1969/12/31/18:00:08.127,(-12 -4 5 -8 1 6 5 1)
1969/12/31/18:00:08.136,(25 13 8 30 13 1 -2 2)
1969/12/31/18:00:08.136,(-2 -6 -4 -12 -8 -7 -5 0)
1969/12/31/18:00:08.151,(3 3 -2 -7 0 5 7 2)
1969/12/31/18:00:08.151,(2 1 -2 -12 -8 -6 2 4)
1969/12/31/18:00:08.152,(-25 -7 1 7 4 -10 -23 -17)
1969/12/31/18:00:08.152,(-12 -11 -8 -12 -14 -12 -11 -15)
1969/12/31/18:00:08.165,(-4 -2 -1 -8 -2 -1 -1 -1)
1969/12/31/18:00:08.165,(4 -2 2 23 8 3 6 3)
1969/12/31/18:00:08.174,(22 9 1 3 5 5 13 23)
1969/12/31/18:00:08.174,(-22 -5 0 -2 5 10 9 -10)
1969/12/31/18:00:08.187,(39 19 4 4 -2 -5 -2 21)
1969/12/31/18:00:08.187,(-11 -2 -7 -10 -5 -9 -12 -21)
1969/12/31/18:00:08.213,(-31 -24 2 5 12 12 3 -10)
1969/12/31/18:00:08.213,(17 9 -2 -3 -4 -6 -11 0)
1969/12/31/18:00:08.214,(-23 -20 -13 -24 -32 -20 -15 -20)
1969/12/31/18:00:08.214,(18 16 4 17 22 7 5 13)
1969/12/31/18:00:08.217,(-6 0 3 4 10 9 15 6)
1969/12/31/18:00:08.217,(3 -9 -1 -9 -5 3 8 5)
1969/12/31/18:00:08.225,(-4 4 3 9 6 -1 -5 -6)
1969/12/31/18:00:08.225,(-2 -11 0 -6 -8 -2 3 1)
1969/12/31/18:00:08.234,(-4 0 -6 -1 -1 3 8 2)
1969/12/31/18:00:08.234,(-4 -5 -10 -58 -17 -2 -5 -4)
1969/12/31/18:00:08.247,(8 8 12 74 19 2 -2 3)
1969/12/31/18:00:08.247,(-7 -5 8 12 15 -1 -5 -3)
1969/12/31/18:00:08.256,(-5 -7 8 17 8 3 -2 -1)
1969/12/31/18:00:08.256,(27 27 3 -21 -3 -4 -3 2)
1969/12/31/18:00:08.262,(-5 7 3 -1 4 20 24 6)
1969/12/31/18:00:08.262,(-31 -31 -19 -34 -16 -5 2 -7)
1969/12/31/18:00:08.271,(-17 -24 -10 -11 -14 -7 -6 -3)
1969/12/31/18:00:08.271,(8 10 5 27 2 -20 -27 -8)
1969/12/31/18:00:08.285,(-13 -6 -8 1 11 8 -4 -13)
1969/12/31/18:00:08.285,(19 15 -7 -42 -14 -4 10 15)
1969/12/31/18:00:08.293,(-6 -4 -5 7 0 -3 -3 -10)
1969/12/31/18:00:08.294,(-17 -13 19 35 9 10 3 -1)
1969/12/31/18:00:08.316,(20 7 -4 -20 -4 0 9 19)
1969/12/31/18:00:08.316,(-6 4 2 22 7 4 -6 -11)
1969/12/31/18:00:08.318,(-21 -7 -5 -27 -5 -12 -17 -26)
1969/12/31/18:00:08.318,(-31 -13 -8 -1 -8 8 -1 -18)
1969/12/31/18:00:08.322,(67 36 3 -39 18 10 28 54)
1969/12/31/18:00:08.322,(-5 -9 -23 -28 -41 -19 -14 -6)
1969/12/31/18:00:08.331,(35 24 21 44 11 15 19 31)
1969/12/31/18:00:08.331,(-16 -4 23 71 31 5 0 -12)
1969/12/31/18:00:08.345,(-18 -15 10 30 13 5 0 -2)
1969/12/31/18:00:08.345,(43 33 10 -10 4 5 3 12)
1969/12/31/18:00:08.354,(-15 -6 -10 -38 -14 -6 -4 -21)
1969/12/31/18:00:08.354,(13 -2 -22 -31 -16 -1 2 8)
1969/12/31/18:00:08.367,(-33 -27 -10 -12 -14 -3 -7 -22)
1969/12/31/18:00:08.367,(0 5 12 27 15 5 5 13)
1969/12/31/18:00:08.384,(35 22 2 -2 -2 -2 -2 -1)
1969/12/31/18:00:08.384,(-1 -2 -10 -47 -13 -4 7 8)
1969/12/31/18:00:08.385,(-12 -7 -3 9 -8 -5 -1 -11)
1969/12/31/18:00:08.385,(-3 3 -1 5 3 -13 -20 -9)
1969/12/31/18:00:08.391,(-19 -9 0 10 -4 4 0 -13)
1969/12/31/18:00:08.391,(18 -2 -16 -68 -15 1 17 24)
1969/12/31/18:00:08.413,(-21 -8 1 29 -11 -14 -25 -31)
1969/12/31/18:00:08.413,(6 0 5 -2 0 3 -1 0)
1969/12/31/18:00:08.415,(2 4 20 83 49 11 1 6)
1969/12/31/18:00:08.415,(4 13 13 41 33 7 -1 -5)
1969/12/31/18:00:08.436,(0 3 2 -9 -4 5 3 2)
1969/12/31/18:00:08.437,(-6 -7 0 -33 -14 4 13 9)
1969/12/31/18:00:08.442,(-5 -6 -23 -46 -38 -30 -31 -21)
1969/12/31/18:00:08.442,(23 10 -5 4 -9 -1 9 25)
1969/12/31/18:00:08.458,(-10 -5 -1 -20 3 5 4 -8)
1969/12/31/18:00:08.458,(-3 -4 -14 -47 -17 -4 -7 -8)
1969/12/31/18:00:08.460,(-55 -36 -3 31 3 -4 -7 -18)
1969/12/31/18:00:08.460,(57 30 38 59 36 31 42 50)
1969/12/31/18:00:08.489,(9 5 -4 0 -2 -6 -9 2)
1969/12/31/18:00:08.489,(-11 -14 -1 11 6 -1 0 1)
1969/12/31/18:00:08.490,(-2 -6 -9 -37 -14 2 2 2)
1969/12/31/18:00:08.490,(-12 -7 -12 -22 0 -1 -2 -3)
1969/12/31/18:00:08.496,(11 11 7 1 -15 1 1 8)
1969/12/31/18:00:08.496,(-4 -3 11 34 7 6 5 -1)
1969/12/31/18:00:08.498,(33 22 -2 -36 -4 -1 8 21)
1969/12/31/18:00:08.498,(-27 -14 -1 26 0 -10 -20 -26)
1969/12/31/18:00:08.519,(-3 -5 -3 -10 6 3 4 -2)
1969/12/31/18:00:08.519,(-19 -16 3 19 7 -4 -4 -10)
1969/12/31/18:00:08.520,(-9 0 -6 -16 -17 -18 -21 -16)
1969/12/31/18:00:08.520,(-16 -8 -9 -18 -6 -1 -3 -8)
1969/12/31/18:00:08.532,(-17 -25 -9 -8 -1 -1 0 -1)
1969/12/31/18:00:08.532,(15 18 -1 9 5 15 22 3)
1969/12/31/18:00:08.541,(40 21 4 -34 -3 3 5 35)
1969/12/31/18:00:08.541,(-13 -15 -16 -19 -34 -19 -17 -18)
1969/12/31/18:00:08.556,(-19 -13 6 39 9 -5 -9 -13)
1969/12/31/18:00:08.556,(-7 4 18 54 40 14 3 -3)
1969/12/31/18:00:08.558,(22 11 12 22 21 18 22 17)
1969/12/31/18:00:08.558,(-12 -8 -9 -26 -28 -15 -14 -13)
1969/12/31/18:00:08.578,(15 11 -14 -65 -27 -10 -2 8)
1969/12/31/18:00:08.579,(2 -4 -16 -33 -9 -5 -6 -7)
1969/12/31/18:00:08.580,(-4 1 0 37 22 8 2 -2)
1969/12/31/18:00:08.580,(-5 1 25 53 14 9 4 2)
1969/12/31/18:00:08.592,(-5 3 9 32 12 -3 -5 -9)
1969/12/31/18:00:08.592,(9 6 1 -3 -4 -1 4 8)
1969/12/31/18:00:08.601,(-23 -24 -12 -28 -14 -16 -14 -17)
1969/12/31/18:00:08.601,(-12 3 -5 -14 0 7 7 -14)
1969/12/31/18:00:08.616,(9 7 -2 -7 -7 -9 -11 -2)
1969/12/31/18:00:08.616,(-3 -6 -8 -12 -8 -8 -11 -4)
1969/12/31/18:00:08.618,(-7 -6 -8 -15 -14 -4 -2 -4)
1969/12/31/18:00:08.618,(-2 -5 -5 -1 2 -2 -1 -1)
1969/12/31/18:00:08.638,(2 5 6 13 18 0 0 1)
1969/12/31/18:00:08.639,(5 9 10 18 1 10 9 10)
1969/12/31/18:00:08.640,(5 14 12 15 4 2 5 7)
1969/12/31/18:00:08.640,(-13 -18 -3 -4 3 -3 -5 -4)
1969/12/31/18:00:08.661,(1 5 -11 -41 -11 -5 -7 -8)
1969/12/31/18:00:08.661,(3 -5 -5 13 0 -5 -3 2)
1969/12/31/18:00:08.662,(-1 0 1 0 -2 4 3 1)
1969/12/31/18:00:08.662,(4 6 0 -13 2 -1 -1 3)
1969/12/31/18:00:08.676,(-11 -11 -6 7 4 -3 -3 -5)
1969/12/31/18:00:08.676,(1 1 -1 -14 3 -4 -5 -3)
1969/12/31/18:00:08.677,(7 7 -2 -2 -36 -7 2 4)
1969/12/31/18:00:08.677,(-11 -8 1 14 27 -1 -12 -13)
1969/12/31/18:00:08.699,(10 9 16 28 26 25 25 22)
1969/12/31/18:00:08.699,(18 13 12 9 9 7 -1 2)
1969/12/31/18:00:08.700,(8 3 -3 -12 3 2 5 6)
1969/12/31/18:00:08.700,(-22 -16 -5 -10 -19 -13 -8 -7)
1969/12/31/18:00:08.713,(-14 -20 -12 -14 -11 -5 -4 -11)
1969/12/31/18:00:08.713,(11 7 -12 -25 -11 -5 1 6)
1969/12/31/18:00:08.720,(4 1 2 12 -6 -3 -4 -2)
1969/12/31/18:00:08.720,(-5 -5 9 44 19 5 1 -3)
1969/12/31/18:00:08.736,(0 7 15 43 18 2 -1 2)
1969/12/31/18:00:08.736,(-8 -4 5 6 7 3 2 -2)
1969/12/31/18:00:08.738,(1 -3 -6 -18 2 2 1 -1)
1969/12/31/18:00:08.738,(12 9 -5 -23 -8 -2 1 7)
1969/12/31/18:00:08.766,(-3 -2 -11 -25 -23 -9 -7 -6)
1969/12/31/18:00:08.766,(4 3 -1 4 -13 -2 2 2)
1969/12/31/18:00:08.768,(7 -5 0 2 9 0 4 15)
1969/12/31/18:00:08.768,(10 16 7 6 6 8 3 2)
1969/12/31/18:00:08.772,(-1 0 -6 -23 -9 -4 1 -3)
1969/12/31/18:00:08.772,(-15 -1 0 4 -5 -7 -7 -7)
1969/12/31/18:00:08.781,(0 -2 -11 -18 -5 0 -2 -4)
1969/12/31/18:00:08.781,(-10 -7 0 10 4 3 5 1)
1969/12/31/18:00:08.796,(15 8 8 13 -3 -1 -4 4)
1969/12/31/18:00:08.796,(10 0 3 9 9 2 1 4)
1969/12/31/18:00:08.797,(-1 5 0 -2 0 -2 0 -1)
1969/12/31/18:00:08.797,(6 9 -4 -11 -7 -6 -7 -1)
1969/12/31/18:00:08.818,(-6 -11 -1 -1 2 5 2 3)
1969/12/31/18:00:08.818,(-10 -8 -3 -1 -5 -4 -6 -5)
1969/12/31/18:00:08.826,(-6 -7 1 3 2 -2 -6 -9)
1969/12/31/18:00:08.826,(19 13 -1 -9 -5 0 3 10)
1969/12/31/18:00:08.832,(6 4 3 1 1 -1 4 5)
1969/12/31/18:00:08.832,(15 10 -2 -5 1 6 17 30)
1969/12/31/18:00:08.841,(7 21 -5 -3 0 -6 -14 -23)
1969/12/31/18:00:08.841,(3 -1 0 -1 -3 -1 -1 1)
1969/12/31/18:00:08.856,(3 5 -4 -6 -1 -5 -6 -3)
1969/12/31/18:00:08.856,(-9 -13 -4 -2 -19 -6 -5 -10)
1969/12/31/18:00:08.857,(-5 -4 -2 0 -2 -1 3 4)
1969/12/31/18:00:08.857,(8 6 1 -12 7 1 1 2)
1969/12/31/18:00:08.879,(-20 -14 -3 12 -7 -8 -16 -17)
1969/12/31/18:00:08.879,(-11 -12 -8 -24 -7 -3 0 -8)
1969/12/31/18:00:08.880,(-2 -5 6 32 17 6 10 9)
1969/12/31/18:00:08.880,(-2 -2 1 11 13 7 -3 -10)
1969/12/31/18:00:08.892,(7 4 -3 -25 4 6 5 7)
1969/12/31/18:00:08.892,(-20 -11 -1 18 2 -1 -11 -20)
1969/12/31/18:00:08.901,(-2 -3 -7 -33 -13 -6 -4 -3)
1969/12/31/18:00:08.901,(-5 -12 -14 -3 -16 -12 -4 6)
1969/12/31/18:00:08.916,(26 41 8 11 -18 -10 3 13)
1969/12/31/18:00:08.916,(-7 -9 13 22 9 0 -6 -6)
1969/12/31/18:00:08.918,(-8 -3 3 18 24 7 2 -1)
1969/12/31/18:00:08.918,(21 15 3 -9 2 2 3 8)
1969/12/31/18:00:08.939,(-3 -5 -7 -14 -5 4 11 1)
1969/12/31/18:00:08.939,(7 2 -12 -35 -20 -11 -5 3)
1969/12/31/18:00:08.940,(8 10 9 27 7 -1 -3 -3)
1969/12/31/18:00:08.940,(-10 -7 6 17 7 1 -3 -6)
1969/12/31/18:00:08.952,(-3 -2 -3 -11 1 3 3 -1)
1969/12/31/18:00:08.952,(-7 -3 -4 -4 -1 0 0 -3)
1969/12/31/18:00:08.961,(-6 -11 -6 -14 -7 0 -2 -2)
1969/12/31/18:00:08.961,(-1 0 -1 10 1 4 4 3)
1969/12/31/18:00:08.976,(8 1 -8 -38 -10 -5 -3 1)
1969/12/31/18:00:08.976,(-12 -6 2 29 -1 -3 -6 -13)
1969/12/31/18:00:08.978,(6 9 21 40 10 5 4 8)
1969/12/31/18:00:08.978,(-10 -9 11 40 8 0 0 -6)
1969/12/31/18:00:08.999,(15 28 0 -6 -3 -3 -2 3)
1969/12/31/18:00:08.999,(-17 -15 -15 -70 -6 -8 -14 -21)
1969/12/31/18:00:09.000,(-33 -30 -34 -13 -3 -16 -24 -26)
1969/12/31/18:00:09.000,(-7 -8 -18 -57 -40 -9 -3 -2)
1969/12/31/18:00:09.021,(-7 -19 15 83 3 -1 -1 -1)
1969/12/31/18:00:09.021,(26 38 37 73 42 22 22 21)
1969/12/31/18:00:09.022,(5 8 9 11 13 1 -7 -6)
1969/12/31/18:00:09.022,(-12 1 -6 -62 -3 -2 -7 -10)
1969/12/31/18:00:09.044,(-42 -44 -29 -26 -9 -4 -8 -19)
1969/12/31/18:00:09.044,(19 16 -11 -25 -11 1 9 19)
1969/12/31/18:00:09.045,(28 14 0 -43 -28 -1 15 27)
1969/12/31/18:00:09.045,(0 1 7 53 12 -3 -6 -5)
1969/12/31/18:00:09.058,(5 -1 3 -8 47 2 4 15)
1969/12/31/18:00:09.059,(-25 -17 7 53 -30 -3 -13 -22)
1969/12/31/18:00:09.060,(-21 -20 -13 -57 -25 -4 -1 -9)
1969/12/31/18:00:09.060,(46 23 3 28 2 9 22 37)
1969/12/31/18:00:09.072,(-45 -30 19 48 20 -9 -20 -19)
1969/12/31/18:00:09.072,(40 13 -20 -75 10 5 2 5)
1969/12/31/18:00:09.081,(-16 -21 5 43 4 4 3 -3)
1969/12/31/18:00:09.081,(-19 -5 15 2 -17 -5 0 -8)
1969/12/31/18:00:09.095,(15 1 11 9 15 17 15 13)
1969/12/31/18:00:09.095,(-32 -12 -8 -8 6 3 3 -8)
1969/12/31/18:00:09.102,(75 33 3 -12 -12 -3 5 41)
1969/12/31/18:00:09.102,(-8 -13 -16 -29 4 5 4 -7)
1969/12/31/18:00:09.119,(8 14 9 17 -7 0 -3 -5)
1969/12/31/18:00:09.119,(-4 0 1 -23 -14 -9 -7 -4)
1969/12/31/18:00:09.120,(-11 -12 0 11 4 -1 6 -1)
1969/12/31/18:00:09.120,(40 62 5 27 22 7 3 14)
1969/12/31/18:00:09.132,(12 19 -11 -40 -19 -6 -6 -3)
1969/12/31/18:00:09.132,(-27 -47 -29 -18 -8 -3 -5 -14)
1969/12/31/18:00:09.141,(-23 -15 11 80 30 4 -2 -11)
1969/12/31/18:00:09.141,(-15 -14 31 79 -4 0 2 -5)
1969/12/31/18:00:09.155,(-14 -18 15 21 4 -2 -10 -12)
1969/12/31/18:00:09.155,(20 17 -12 -14 4 -2 1 5)
1969/12/31/18:00:09.162,(1 9 -1 -26 16 8 9 5)
1969/12/31/18:00:09.162,(-31 -37 -31 -84 -30 -12 -14 -20)
1969/12/31/18:00:09.179,(6 -3 -10 23 1 5 10 8)
1969/12/31/18:00:09.179,(1 6 22 17 9 -1 -2 3)
1969/12/31/18:00:09.180,(1 2 -7 -32 -8 7 5 1)
1969/12/31/18:00:09.180,(6 -4 -14 -17 -2 -2 -1 3)
1969/12/31/18:00:09.192,(-8 -4 -8 -47 -15 -5 -3 -8)
1969/12/31/18:00:09.192,(16 12 10 45 -7 -2 4 13)
1969/12/31/18:00:09.201,(-4 7 23 64 21 2 -4 -6)
1969/12/31/18:00:09.201,(24 56 11 -15 16 -3 -5 1)
1969/12/31/18:00:09.215,(17 7 -11 -48 -20 9 16 19)
1969/12/31/18:00:09.215,(-13 -22 -8 1 -4 -5 -5 -8)
1969/12/31/18:00:09.222,(-13 -2 -1 -45 -4 3 2 -5)
1969/12/31/18:00:09.222,(-11 -21 1 46 -5 -3 -4 -2)
1969/12/31/18:00:09.238,(-6 1 1 6 8 -5 -4 -6)
1969/12/31/18:00:09.238,(5 2 -7 -39 -15 -3 1 2)
1969/12/31/18:00:09.240,(-11 -10 -4 9 34 0 1 -1)
1969/12/31/18:00:09.240,(24 13 11 14 -32 10 13 21)
1969/12/31/18:00:09.261,(-7 -17 -2 -19 -27 -6 -4 -9)
1969/12/31/18:00:09.261,(17 36 14 40 26 7 5 7)
1969/12/31/18:00:09.262,(-16 -21 -16 -31 -1 -2 -8 -11)
1969/12/31/18:00:09.262,(-30 -34 -13 -18 6 -1 -2 -11)
1969/12/31/18:00:09.275,(21 24 6 16 -3 -3 2 5)
1969/12/31/18:00:09.275,(3 5 7 4 -2 -1 -4 -1)
1969/12/31/18:00:09.282,(5 7 -2 -32 -24 -4 2 6)
1969/12/31/18:00:09.282,(4 6 -1 20 16 0 -2 3)
1969/12/31/18:00:09.299,(-26 -28 -6 1 1 -1 -9 -15)
1969/12/31/18:00:09.299,(6 14 1 -4 9 1 0 -5)
1969/12/31/18:00:09.300,(21 26 -8 -10 -33 -3 4 10)
1969/12/31/18:00:09.300,(1 2 14 10 7 0 1 0)
1969/12/31/18:00:09.321,(-3 -4 -2 8 10 -6 -10 -2)
1969/12/31/18:00:09.321,(-4 -15 -6 -14 -7 1 6 11)
1969/12/31/18:00:09.323,(-13 -2 0 24 3 -5 -10 -18)
1969/12/31/18:00:09.323,(27 5 -4 -21 8 16 23 30)
1969/12/31/18:00:09.335,(12 14 -4 -16 -10 -6 -2 2)
1969/12/31/18:00:09.335,(-18 -16 0 6 0 -8 -9 -6)
1969/12/31/18:00:09.342,(-10 -8 -4 -27 -19 -11 -14 -18)
1969/12/31/18:00:09.342,(-38 -51 -11 -9 -6 -11 -13 -20)
1969/12/31/18:00:09.359,(25 34 9 36 29 14 18 25)
1969/12/31/18:00:09.359,(-12 -6 8 15 10 9 2 -9)
1969/12/31/18:00:09.360,(-18 -16 1 -4 -1 4 3 0)
1969/12/31/18:00:09.360,(3 -3 -12 -31 -7 -3 -1 -1)
1969/12/31/18:00:09.381,(-20 -25 -6 6 -8 -5 -5 -10)
1969/12/31/18:00:09.381,(-1 2 -2 -3 -11 -11 -13 -7)
1969/12/31/18:00:09.383,(-16 3 7 19 6 5 5 -5)
1969/12/31/18:00:09.383,(23 37 7 -4 6 3 -1 7)
1969/12/31/18:00:09.395,(17 25 -7 -16 -7 3 8 11)
1969/12/31/18:00:09.395,(3 -1 3 7 5 3 5 7)
1969/12/31/18:00:09.404,(12 12 -2 -4 -11 -15 -13 -7)
1969/12/31/18:00:09.404,(-27 -21 -1 3 2 -3 -5 -15)
1969/12/31/18:00:09.419,(-1 -1 -1 -32 -2 -1 1 0)
1969/12/31/18:00:09.419,(11 4 -4 30 4 1 4 7)
1969/12/31/18:00:09.420,(8 9 17 36 5 5 8 10)
1969/12/31/18:00:09.420,(16 7 5 -2 2 3 1 5)
1969/12/31/18:00:09.442,(-5 -5 2 19 14 -3 -7 -13)
1969/12/31/18:00:09.442,(-23 -22 -6 -14 -2 -5 -7 -11)
1969/12/31/18:00:09.443,(18 7 -8 -15 -4 4 11 15)
1969/12/31/18:00:09.443,(28 22 -8 -6 -10 -18 -15 3)
1969/12/31/18:00:09.455,(-33 -30 0 -7 -6 6 1 -22)
1969/12/31/18:00:09.455,(-2 3 -3 -3 1 4 6 6)
1969/12/31/18:00:09.463,(29 1 -1 8 1 -2 -1 13)
1969/12/31/18:00:09.463,(-12 3 10 9 7 -1 -6 -16)
1969/12/31/18:00:09.479,(-8 -14 -5 -11 -9 -7 -9 -4)
1969/12/31/18:00:09.479,(83 83 19 11 20 30 51 67)
1969/12/31/18:00:09.480,(-36 -25 -15 -10 -13 -23 -33 -37)
1969/12/31/18:00:09.480,(9 10 -2 -9 -3 0 3 2)
1969/12/31/18:00:09.501,(-4 -12 -3 1 4 2 1 -5)
1969/12/31/18:00:09.501,(4 -4 -1 -3 -12 -1 5 12)
1969/12/31/18:00:09.503,(-4 -2 8 17 20 9 9 5)
1969/12/31/18:00:09.503,(-15 -8 0 16 0 -4 -7 -5)
1969/12/31/18:00:09.515,(14 22 5 12 6 6 6 10)
1969/12/31/18:00:09.515,(-30 -34 -15 -35 -18 -22 -28 -34)
1969/12/31/18:00:09.523,(25 41 4 -6 -6 5 10 14)
1969/12/31/18:00:09.523,(-27 -47 -13 12 10 -1 -1 -11)
1969/12/31/18:00:09.538,(2 8 19 26 13 5 6 10)
1969/12/31/18:00:09.538,(13 6 -1 -8 -3 3 1 5)
1969/12/31/18:00:09.540,(5 -4 -4 -20 -12 -2 0 6)
1969/12/31/18:00:09.540,(-22 -20 -7 -13 -5 -2 -2 -11)
1969/12/31/18:00:09.561,(5 1 -2 3 -4 0 9 17)
1969/12/31/18:00:09.561,(1 5 11 12 7 3 1 -5)
1969/12/31/18:00:09.563,(-26 -42 -5 -2 -4 -7 -10 -11)
1969/12/31/18:00:09.563,(86 104 8 -2 4 7 16 46)
1969/12/31/18:00:09.575,(-24 -26 -13 -11 -9 -9 -15 -22)
1969/12/31/18:00:09.575,(-26 -24 -6 -1 -8 -6 -12 -17)
1969/12/31/18:00:09.599,(7 -3 0 6 10 8 11 9)
1969/12/31/18:00:09.599,(-17 -19 -3 -13 -9 -10 -16 -14)
1969/12/31/18:00:09.600,(8 16 -1 -1 3 9 2 -5)
1969/12/31/18:00:09.600,(-2 3 -3 2 -3 -7 -9 -8)
1969/12/31/18:00:09.602,(-3 -5 0 -2 -2 4 6 4)
1969/12/31/18:00:09.602,(-16 -21 -10 -11 -9 -3 -4 -8)
1969/12/31/18:00:09.621,(-19 -40 -5 8 0 -13 -12 -5)
1969/12/31/18:00:09.621,(1 -1 6 16 15 12 8 1)
1969/12/31/18:00:09.623,(-14 -2 -6 -2 -3 -9 -14 -21)
1969/12/31/18:00:09.623,(-8 -9 3 -11 -3 3 5 2)
1969/12/31/18:00:09.635,(3 -5 -12 -36 -6 -8 -8 -7)
1969/12/31/18:00:09.635,(-14 -13 0 -1 -33 1 10 9)
1969/12/31/18:00:09.644,(-3 15 6 25 16 2 2 1)
1969/12/31/18:00:09.644,(1 0 6 14 24 9 5 5)
1969/12/31/18:00:09.659,(7 8 -3 -2 -14 -1 -1 1)
1969/12/31/18:00:09.659,(-11 -10 -1 0 16 -8 -14 -15)
1969/12/31/18:00:09.660,(-1 5 0 -2 4 12 12 5)
1969/12/31/18:00:09.660,(-6 9 2 3 -3 2 -2 -12)
1969/12/31/18:00:09.681,(20 31 -7 -6 2 5 7 8)
1969/12/31/18:00:09.681,(-17 -27 -4 -11 -8 -6 -1 -1)
1969/12/31/18:00:09.683,(0 -4 -3 -13 -24 -7 0 -1)
1969/12/31/18:00:09.683,(-24 -21 -3 4 8 -9 -9 -11)
1969/12/31/18:00:09.695,(-9 -6 8 7 10 13 16 10)
1969/12/31/18:00:09.695,(72 59 4 3 6 5 11 29)
1969/12/31/18:00:09.704,(-6 -9 -4 2 6 0 -4 -6)
1969/12/31/18:00:09.704,(-14 -27 -7 -11 -11 -2 -1 -4)
1969/12/31/18:00:09.719,(-1 11 -1 -5 -16 -14 -12 -9)
1969/12/31/18:00:09.719,(-4 -15 -2 0 1 4 7 10)
1969/12/31/18:00:09.720,(-5 -10 2 22 6 2 -1 -2)
1969/12/31/18:00:09.720,(19 22 11 12 10 6 9 11)
1969/12/31/18:00:09.741,(3 0 2 11 -4 -2 0 -1)
1969/12/31/18:00:09.741,(4 9 4 -12 6 -2 -4 2)
1969/12/31/18:00:09.743,(16 18 -2 -15 -6 2 -3 -1)
1969/12/31/18:00:09.743,(-14 -19 -9 -7 -12 -6 -9 -6)
1969/12/31/18:00:09.755,(-21 -13 -1 3 5 0 -2 -11)
1969/12/31/18:00:09.755,(-1 7 5 8 7 4 1 -2)
1969/12/31/18:00:09.771,(-1 -3 -2 -8 -10 -8 -5 -1)
1969/12/31/18:00:09.771,(-10 -15 -6 0 4 6 8 4)
1969/12/31/18:00:09.779,(32 21 2 -9 -2 1 -2 8)
1969/12/31/18:00:09.779,(-12 -14 -5 1 -3 -4 -9 -16)
1969/12/31/18:00:09.780,(1 -1 2 4 0 -2 0 1)
1969/12/31/18:00:09.780,(-2 -7 -2 -20 -10 -6 -5 3)
1969/12/31/18:00:09.801,(-17 -21 -6 12 12 6 7 0)
1969/12/31/18:00:09.801,(-13 -19 0 11 3 1 -1 -4)
1969/12/31/18:00:09.802,(4 3 6 -3 5 10 12 7)
1969/12/31/18:00:09.803,(-6 -13 -11 -31 -34 -15 -10 -7)
1969/12/31/18:00:09.815,(3 -1 2 2 12 -6 -2 6)
1969/12/31/18:00:09.815,(1 11 5 15 4 4 1 -1)
1969/12/31/18:00:09.824,(-8 4 2 23 13 1 -7 -8)
1969/12/31/18:00:09.824,(34 41 21 10 18 18 22 28)
1969/12/31/18:00:09.838,(-9 -10 -7 -11 -15 -11 -17 -19)
1969/12/31/18:00:09.838,(-16 -15 -10 -15 -7 -10 -11 -13)
1969/12/31/18:00:09.840,(12 9 -5 -21 -10 -2 4 9)
1969/12/31/18:00:09.840,(-3 1 4 8 0 1 3 1)
1969/12/31/18:00:09.861,(3 -12 -1 -8 -9 -4 -3 2)
1969/12/31/18:00:09.861,(-1 19 5 13 13 -2 -4 -8)
1969/12/31/18:00:09.875,(11 28 5 0 2 7 9 11)
1969/12/31/18:00:09.875,(-13 -15 -4 7 4 -2 -5 -12)
1969/12/31/18:00:09.876,(11 12 5 2 1 5 9 11)
1969/12/31/18:00:09.876,(-10 -14 -8 -12 -11 -12 -16 -18)
1969/12/31/18:00:09.884,(-4 -10 -4 -12 -19 -14 -8 -4)
1969/12/31/18:00:09.884,(-5 -3 -3 4 2 -9 -12 -11)
1969/12/31/18:00:09.899,(18 32 9 4 6 17 18 20)
1969/12/31/18:00:09.899,(32 47 5 4 18 17 15 14)
1969/12/31/18:00:09.900,(2 -1 -1 0 6 -1 -3 2)
1969/12/31/18:00:09.900,(-11 -33 -13 -3 -11 -13 -13 -13)
1969/12/31/18:00:09.921,(-40 -16 -8 0 -12 -10 -18 -33)
1969/12/31/18:00:09.921,(-8 -12 9 6 14 22 26 24)
1969/12/31/18:00:09.923,(-33 -27 -11 -10 -2 -13 -20 -28)
1969/12/31/18:00:09.923,(-5 16 -3 -1 0 -4 -2 -3)
1969/12/31/18:00:09.935,(-23 -20 -4 2 -5 -7 -11 -16)
1969/12/31/18:00:09.935,(-19 -27 -7 -4 -9 -6 0 -1)
1969/12/31/18:00:09.944,(5 -7 -3 -6 -2 3 3 0)
1969/12/31/18:00:09.944,(-15 -3 -1 -1 -11 -7 -4 -10)
1969/12/31/18:00:09.958,(24 17 3 3 17 3 6 18)
1969/12/31/18:00:09.958,(-6 -3 0 -2 -7 -7 -13 -11)
1969/12/31/18:00:09.965,(-3 -18 0 3 7 9 10 9)
1969/12/31/18:00:09.965,(10 5 2 2 -2 3 2 3)
1969/12/31/18:00:09.981,(17 10 4 -12 -19 -9 7 15)
1969/12/31/18:00:09.981,(2 -9 -9 -10 -23 -10 -11 -5)
1969/12/31/18:00:09.983,(15 16 3 4 11 2 -2 4)
1969/12/31/18:00:09.983,(-17 -8 14 34 50 31 21 5)
1969/12/31/18:00:09.995,(12 -9 -4 3 2 0 2 2)
1969/12/31/18:00:09.995,(-10 -18 3 1 -3 -14 -25 -14)
1969/12/31/18:00:10.003,(-29 -20 -4 -12 -24 -18 -16 -24)
1969/12/31/18:00:10.003,(57 27 -1 -6 -4 10 19 30)
1969/12/31/18:00:10.018,(-10 -17 -6 -6 -5 0 0 0)
1969/12/31/18:00:10.018,(10 9 0 -5 -3 -2 5 6)
1969/12/31/18:00:10.025,(-13 -15 1 1 -2 -1 -6 -5)
1969/12/31/18:00:10.025,(-1 -3 -1 -6 -9 -12 -11 -6)
1969/12/31/18:00:10.041,(5 11 0 -4 -7 -3 0 4)
1969/12/31/18:00:10.041,(0 -1 -5 -12 -2 5 6 5)
1969/12/31/18:00:10.043,(27 31 10 11 12 14 12 16)
1969/12/31/18:00:10.043,(-21 -17 1 17 20 -2 -9 -12)
1969/12/31/18:00:10.055,(32 61 17 22 8 12 17 22)
1969/12/31/18:00:10.055,(-15 -4 -5 -12 -25 -19 -12 -16)
1969/12/31/18:00:10.063,(-8 -20 -18 -59 -24 -15 -7 -4)
1969/12/31/18:00:10.063,(1 2 -1 13 -2 0 1 3)
1969/12/31/18:00:10.078,(-7 -11 4 22 32 10 -4 -5)
1969/12/31/18:00:10.078,(-19 -14 6 34 34 14 2 -2)
1969/12/31/18:00:10.086,(69 66 22 16 15 16 17 29)
1969/12/31/18:00:10.086,(-22 -19 -10 -26 -28 -15 -18 -22)
1969/12/31/18:00:10.100,(-9 -7 -8 -19 -20 -11 -4 -5)
1969/12/31/18:00:10.100,(-2 -5 -8 -10 -7 -5 -1 -4)
1969/12/31/18:00:10.101,(-6 -7 3 5 -3 -5 -4 -4)
1969/12/31/18:00:10.101,(-16 -21 1 -5 -4 4 5 -5)
1969/12/31/18:00:10.123,(-5 -13 -3 3 1 2 1 2)
1969/12/31/18:00:10.123,(-13 -5 -5 -8 1 1 -2 -6)
1969/12/31/18:00:10.124,(2 1 1 11 4 3 3 6)
1969/12/31/18:00:10.124,(-4 -14 -1 5 1 -2 -9 -12)
1969/12/31/18:00:10.137,(-18 -6 8 5 13 14 15 8)
1969/12/31/18:00:10.137,(35 56 4 -2 -4 1 7 7)
1969/12/31/18:00:10.153,(-15 -12 -5 4 7 4 4 -2)
1969/12/31/18:00:10.153,(4 13 -1 -7 -6 -5 -5 0)
1969/12/31/18:00:10.160,(-2 -7 -10 -33 -16 -16 -14 -11)
1969/12/31/18:00:10.160,(-5 -9 -1 8 -13 0 0 2)
1969/12/31/18:00:10.161,(-15 -13 3 26 27 9 0 -5)
1969/12/31/18:00:10.161,(20 14 15 8 20 20 24 26)
1969/12/31/18:00:10.183,(36 33 6 5 8 6 8 20)
1969/12/31/18:00:10.183,(-10 -19 -10 -13 -9 -5 0 -2)
1969/12/31/18:00:10.184,(-17 -23 -10 -17 -17 -18 -15 -14)
1969/12/31/18:00:10.184,(24 14 4 0 -4 -3 6 14)
1969/12/31/18:00:10.197,(-29 -29 -11 -4 -12 -11 -19 -26)
1969/12/31/18:00:10.197,(-1 -6 -3 -2 3 1 -2 -1)
1969/12/31/18:00:10.205,(0 -3 -7 -48 -37 -15 -5 -1)
1969/12/31/18:00:10.205,(2 14 -5 17 5 -2 -3 0)
1969/12/31/18:00:10.220,(6 -2 10 33 26 14 8 5)
1969/12/31/18:00:10.220,(4 9 13 27 44 19 3 2)
1969/12/31/18:00:10.221,(-7 -2 4 23 -4 1 -6 -6)
1969/12/31/18:00:10.221,(-2 -2 -4 -26 -26 -12 -2 2)
1969/12/31/18:00:10.243,(6 4 -5 -17 -19 -12 -2 3)
1969/12/31/18:00:10.243,(-9 -20 -4 5 3 1 1 -1)
1969/12/31/18:00:10.244,(-1 -17 2 0 4 1 -1 4)
1969/12/31/18:00:10.244,(16 32 -7 -16 -11 -2 1 3)
1969/12/31/18:00:10.258,(-30 -46 -13 1 -11 -5 -8 -15)
1969/12/31/18:00:10.258,(20 35 18 3 15 20 32 20)
1969/12/31/18:00:10.259,(30 9 -3 3 0 -1 -3 11)
1969/12/31/18:00:10.259,(6 12 8 9 7 3 -2 -6)
1969/12/31/18:00:10.280,(-16 -12 5 0 6 2 -4 -9)
1969/12/31/18:00:10.280,(-9 -10 -7 -10 -10 -7 -6 -4)
1969/12/31/18:00:10.281,(0 11 2 7 3 2 3 0)
1969/12/31/18:00:10.281,(-8 -11 0 4 6 5 0 -1)
1969/12/31/18:00:10.303,(17 20 -1 -9 -8 -2 1 6)
1969/12/31/18:00:10.303,(2 -5 -2 -3 -2 -6 -5 -3)
1969/12/31/18:00:10.304,(2 10 2 13 9 3 4 2)
1969/12/31/18:00:10.304,(-17 -17 -6 -6 0 -1 -6 -9)
1969/12/31/18:00:10.318,(0 -20 -2 -5 -5 -5 -3 -1)
1969/12/31/18:00:10.318,(4 -2 -10 -10 -16 -16 -15 -9)
1969/12/31/18:00:10.325,(9 49 10 0 7 10 12 4)
1969/12/31/18:00:10.325,(-14 -41 -10 -2 0 -4 -4 -6)
1969/12/31/18:00:10.340,(-27 -28 -6 0 -6 -10 -19 -22)
1969/12/31/18:00:10.340,(23 26 3 1 -2 1 1 4)
1969/12/31/18:00:10.341,(11 7 -1 -4 -1 -5 2 16)
1969/12/31/18:00:10.341,(-30 -30 -4 -1 -3 -6 -9 -15)
1969/12/31/18:00:10.363,(89 96 31 13 17 31 52 69)
1969/12/31/18:00:10.363,(-14 -12 -7 -9 -9 -9 -11 -9)
1969/12/31/18:00:10.364,(-15 -17 -4 1 -2 -2 0 -5)
1969/12/31/18:00:10.364,(-6 3 1 3 1 0 1 -4)
1969/12/31/18:00:10.377,(-12 -14 -8 -3 -1 -8 -16 -14)
1969/12/31/18:00:10.377,(3 -2 4 -2 2 6 14 19)
1969/12/31/18:00:10.385,(0 -5 1 2 -1 0 0 1)
1969/12/31/18:00:10.385,(7 29 4 -2 -2 -2 -3 6)
1969/12/31/18:00:10.400,(-10 -17 -1 5 5 9 12 5)
1969/12/31/18:00:10.400,(-41 -68 -2 2 -4 -5 -8 -15)
1969/12/31/18:00:10.401,(16 21 -2 4 4 6 7 1)
1969/12/31/18:00:10.401,(-5 11 3 -1 -3 -8 -12 -15)
1969/12/31/18:00:10.431,(-11 1 -2 -5 -8 -11 -12 -11)
1969/12/31/18:00:10.431,(4 -6 -6 -7 1 6 4 3)
1969/12/31/18:00:10.432,(-21 -28 -4 6 5 1 2 -7)
1969/12/31/18:00:10.432,(10 4 0 0 -1 5 7 11)
1969/12/31/18:00:10.438,(0 3 -1 5 1 0 -4 -8)
1969/12/31/18:00:10.438,(-3 1 -5 -34 -12 -20 -11 -5)
1969/12/31/18:00:10.439,(-3 -4 -3 -37 -46 -16 -8 -3)
1969/12/31/18:00:10.439,(6 12 -1 30 24 10 6 3)
1969/12/31/18:00:10.460,(-3 -5 -2 32 39 13 2 -3)
1969/12/31/18:00:10.460,(5 16 2 10 5 2 -2 -2)
1969/12/31/18:00:10.461,(-6 -7 6 15 12 7 0 -3)
1969/12/31/18:00:10.461,(-4 -10 9 -13 -13 0 2 0)
1969/12/31/18:00:10.483,(-7 0 1 -6 7 -1 -4 -5)
1969/12/31/18:00:10.483,(2 6 2 7 1 0 1 -1)
1969/12/31/18:00:10.484,(-7 -8 -17 -46 -26 -12 -10 -7)
1969/12/31/18:00:10.484,(9 0 -9 0 -16 -22 -5 5)
1969/12/31/18:00:10.498,(3 0 1 9 -38 -26 -8 -2)
1969/12/31/18:00:10.498,(-4 3 6 22 43 31 7 0)
1969/12/31/18:00:10.499,(-7 -13 -21 -7 29 13 1 -2)
1969/12/31/18:00:10.499,(-6 2 32 13 10 18 3 -4)
1969/12/31/18:00:10.520,(-8 2 -13 -6 3 5 -1 -4)
1969/12/31/18:00:10.520,(12 7 -25 -14 -37 -21 -1 10)
1969/12/31/18:00:10.521,(-17 -20 -11 4 9 -24 -20 -16)
1969/12/31/18:00:10.521,(1 1 -1 2 -20 -9 -5 -3)
1969/12/31/18:00:10.543,(4 15 46 2 -8 7 7 1)
1969/12/31/18:00:10.543,(8 16 15 19 8 10 5 3)
1969/12/31/18:00:10.544,(5 -3 -16 3 32 10 5 6)
1969/12/31/18:00:10.544,(0 -7 -12 -13 -6 -11 -4 1)
1969/12/31/18:00:10.558,(-15 -19 -31 -67 -34 -25 -21 -15)
1969/12/31/18:00:10.558,(-7 -1 8 27 0 0 1 -3)
1969/12/31/18:00:10.559,(7 15 24 31 7 -2 2 4)
1969/12/31/18:00:10.559,(1 1 1 22 23 15 8 3)
1969/12/31/18:00:10.580,(4 2 11 11 15 16 10 6)
1969/12/31/18:00:10.580,(-2 -2 -4 -16 -4 -10 -6 -2)
1969/12/31/18:00:10.581,(2 9 36 -8 -19 5 10 4)
1969/12/31/18:00:10.581,(6 1 -26 -25 -3 4 6 6)
1969/12/31/18:00:10.603,(9 -3 -43 -1 1 -7 -2 6)
1969/12/31/18:00:10.603,(-16 -19 -10 -25 -19 -25 -19 -16)
1969/12/31/18:00:10.604,(-6 -3 7 29 -2 0 -1 -4)
1969/12/31/18:00:10.604,(-5 5 35 10 23 13 4 -4)
1969/12/31/18:00:10.618,(0 3 -9 -5 11 14 6 1)
1969/12/31/18:00:10.618,(8 -1 -18 -20 -5 -7 -3 5)
1969/12/31/18:00:10.618,(-6 -5 6 3 -30 -5 -1 -2)
1969/12/31/18:00:10.618,(4 1 -14 -13 -4 -7 -2 1)
1969/12/31/18:00:10.640,(3 2 18 18 11 10 4 1)
1969/12/31/18:00:10.640,(-3 0 -2 -8 3 8 1 0)
1969/12/31/18:00:10.641,(-1 -10 -24 -6 0 -4 -3 -2)
1969/12/31/18:00:10.641,(-6 -4 0 -7 -6 -2 -3 -4)
1969/12/31/18:00:10.663,(2 8 14 25 6 0 1 0)
1969/12/31/18:00:10.663,(2 4 7 13 13 11 5 3)
1969/12/31/18:00:10.664,(1 -1 5 -3 -2 6 1 -1)
1969/12/31/18:00:10.664,(-2 -3 -2 10 -3 0 -2 -1)
1969/12/31/18:00:10.678,(6 4 0 -9 -3 -4 -2 2)
1969/12/31/18:00:10.678,(-6 -7 -16 -42 -30 -15 -6 -6)
1969/12/31/18:00:10.678,(-6 -12 -18 15 -5 -14 -10 -5)
1969/12/31/18:00:10.679,(0 3 6 -8 19 6 3 0)
1969/12/31/18:00:10.700,(-2 4 4 -13 1 1 -2 -4)
1969/12/31/18:00:10.700,(11 10 3 44 14 13 6 5)
1969/12/31/18:00:10.701,(4 4 -1 -4 3 2 3 5)
1969/12/31/18:00:10.701,(-3 -4 0 -11 -21 -10 -6 -4)
1969/12/31/18:00:10.723,(-2 -9 -9 5 -2 -11 -3 -3)
1969/12/31/18:00:10.723,(-10 -4 5 -2 -9 -3 -5 -7)
1969/12/31/18:00:10.724,(4 5 3 10 29 18 7 2)
1969/12/31/18:00:10.724,(6 7 9 -9 -22 0 4 4)
1969/12/31/18:00:10.738,(2 -4 -14 23 10 -14 -8 -2)
1969/12/31/18:00:10.738,(-18 -10 2 -34 -13 0 -6 -11)
1969/12/31/18:00:10.739,(-2 -1 -4 -15 11 12 6 2)
1969/12/31/18:00:10.739,(-1 -4 -14 -16 -12 -1 1 0)
1969/12/31/18:00:10.769,(2 0 -6 3 3 1 0 1)
1969/12/31/18:00:10.769,(6 7 15 21 18 -3 1 3)
1969/12/31/18:00:10.769,(2 3 -6 -15 -7 -1 1 1)
1969/12/31/18:00:10.769,(0 -7 -9 13 -6 -7 -4 0)
1969/12/31/18:00:10.783,(-15 -7 3 -24 -18 -13 -7 -10)
1969/12/31/18:00:10.783,(2 0 -1 15 -3 10 5 1)
1969/12/31/18:00:10.784,(6 7 3 9 27 12 3 3)
1969/12/31/18:00:10.784,(1 0 3 -1 4 -3 -3 1)
1969/12/31/18:00:10.798,(-8 -4 -5 -29 -25 -7 -6 -6)
1969/12/31/18:00:10.798,(2 0 2 -4 6 1 2 3)
1969/12/31/18:00:10.799,(1 1 -1 26 -16 -10 -2 0)
1969/12/31/18:00:10.799,(0 -2 -8 -1 7 -2 -4 -2)
1969/12/31/18:00:10.820,(1 2 13 17 17 12 7 3)
1969/12/31/18:00:10.820,(5 3 2 -2 10 6 1 2)
1969/12/31/18:00:10.821,(2 2 -5 -20 -11 -1 1 0)
1969/12/31/18:00:10.821,(-13 -11 -7 13 1 -7 -8 -8)
1969/12/31/18:00:10.843,(1 2 2 -12 -18 -1 1 0)
1969/12/31/18:00:10.843,(4 -2 -10 3 24 12 7 2)
1969/12/31/18:00:10.843,(-6 -5 -1 -2 0 -5 -4 -2)
1969/12/31/18:00:10.843,(4 4 0 5 3 -2 -1 -1)
1969/12/31/18:00:10.857,(-8 -9 -7 -16 -18 -6 -4 -7)
1969/12/31/18:00:10.857,(-2 1 17 30 1 -11 -6 -3)
1969/12/31/18:00:10.865,(7 10 12 7 2 -1 1 6)
1969/12/31/18:00:10.865,(4 -2 -18 -33 -15 -4 1 2)
1969/12/31/18:00:10.880,(0 -3 -11 0 9 2 -1 -3)
1969/12/31/18:00:10.880,(3 4 -4 -7 1 1 3 4)
1969/12/31/18:00:10.881,(-8 -9 -1 8 0 -1 -4 -9)
1969/12/31/18:00:10.881,(2 4 9 2 3 3 2 0)
1969/12/31/18:00:10.903,(6 7 5 10 4 2 4 7)
1969/12/31/18:00:10.903,(-8 -9 2 -7 -11 -8 -3 -5)
1969/12/31/18:00:10.904,(0 4 6 -4 -10 -8 -3 1)
1969/12/31/18:00:10.904,(-3 -5 -2 -5 0 5 2 0)
1969/12/31/18:00:10.917,(1 -1 -4 0 11 7 0 0)
1969/12/31/18:00:10.917,(6 8 8 15 1 -1 3 3)
1969/12/31/18:00:10.925,(-10 -6 4 2 -12 -7 -8 -9)
1969/12/31/18:00:10.925,(8 -4 -14 -4 18 9 8 11)
1969/12/31/18:00:10.940,(2 3 4 -8 -12 -2 -1 0)
1969/12/31/18:00:10.940,(4 2 -7 -3 3 0 0 3)
1969/12/31/18:00:10.941,(3 4 -5 -8 -6 1 2 1)
1969/12/31/18:00:10.941,(-10 -3 7 1 -1 -7 -8 -10)
1969/12/31/18:00:10.963,(3 -3 -4 3 -1 -2 2 4)
1969/12/31/18:00:10.963,(2 0 -1 -4 -19 -2 0 1)
1969/12/31/18:00:10.963,(-5 -3 0 -11 12 0 -1 -4)
1969/12/31/18:00:10.963,(-4 1 4 8 4 3 -3 -4)
1969/12/31/18:00:10.977,(0 1 4 17 11 2 0 0)
1969/12/31/18:00:10.977,(-7 -7 -5 -9 -16 -13 -8 -6)
1969/12/31/18:00:10.985,(2 5 2 -11 -8 1 4 5)
1969/12/31/18:00:10.985,(5 7 6 5 2 6 6 5)
1969/12/31/18:00:11.000,(4 0 -4 15 21 13 6 4)
1969/12/31/18:00:11.000,(-3 -4 -1 0 4 -1 -3 -2)
1969/12/31/18:00:11.001,(-1 -2 -7 -7 -15 -12 -9 -4)
1969/12/31/18:00:11.001,(1 2 -5 -20 -11 -6 2 3)
1969/12/31/18:00:11.023,(-4 0 5 11 4 7 4 1)
1969/12/31/18:00:11.023,(0 -1 -2 2 4 3 0 0)
1969/12/31/18:00:11.024,(-1 -5 -1 0 4 1 -2 -1)
1969/12/31/18:00:11.024,(2 2 -3 1 -5 -4 -2 -2)
1969/12/31/18:00:11.037,(-4 -3 1 -7 -5 -7 -6 -3)
1969/12/31/18:00:11.037,(-4 -8 -7 -8 -5 -1 -1 1)
1969/12/31/18:00:11.045,(10 10 -2 3 4 4 3 4)
1969/12/31/18:00:11.046,(0 -2 1 0 -1 -4 -4 -2)
1969/12/31/18:00:11.060,(-3 -1 -2 -5 -3 2 4 4)
1969/12/31/18:00:11.060,(2 4 3 2 2 -2 -5 -5)
1969/12/31/18:00:11.061,(-18 -11 -3 8 4 -1 -9 -16)
1969/12/31/18:00:11.061,(-1 -1 -3 1 2 2 2 2)
1969/12/31/18:00:11.084,(7 6 4 -6 -7 -5 1 2)
1969/12/31/18:00:11.084,(1 1 -1 -7 -7 -4 2 5)
1969/12/31/18:00:11.085,(1 1 0 -1 2 2 2 3)
1969/12/31/18:00:11.085,(-1 -2 2 3 -8 -4 -2 0)
1969/12/31/18:00:11.097,(-4 -5 -2 -3 -1 1 -3 -4)
1969/12/31/18:00:11.097,(2 2 0 2 28 8 3 0)
1969/12/31/18:00:11.105,(3 0 1 -3 -7 -4 2 4)
1969/12/31/18:00:11.105,(-1 0 1 2 -2 3 0 -2)
1969/12/31/18:00:11.120,(-7 -5 1 3 -4 -8 -8 -10)
1969/12/31/18:00:11.120,(3 2 1 1 -6 0 3 2)
1969/12/31/18:00:11.121,(3 -1 -2 3 5 2 0 2)
1969/12/31/18:00:11.121,(1 -2 -3 -4 -1 -3 1 5)
1969/12/31/18:00:11.144,(-2 -3 -6 -3 -2 1 -3 -4)
1969/12/31/18:00:11.144,(-9 -4 -1 -2 -7 -2 -1 -6)
1969/12/31/18:00:11.145,(1 -1 -4 -2 1 0 0 0)
1969/12/31/18:00:11.145,(1 1 -1 0 0 -2 -2 -2)
1969/12/31/18:00:11.159,(0 3 1 -1 0 -1 -1 0)
1969/12/31/18:00:11.159,(0 -1 -2 -3 -4 1 4 2)
1969/12/31/18:00:11.165,(0 -4 2 4 0 3 5 4)
1969/12/31/18:00:11.165,(-2 -1 2 5 10 1 -1 -3)
1969/12/31/18:00:11.180,(-4 -4 -2 -10 -8 -6 -2 -3)
1969/12/31/18:00:11.180,(1 1 0 0 -4 -4 -4 -1)
1969/12/31/18:00:11.181,(1 1 1 -3 -2 1 2 3)
1969/12/31/18:00:11.181,(-3 1 -1 3 4 3 -2 -4)
1969/12/31/18:00:11.203,(0 -2 0 1 1 1 1 0)
1969/12/31/18:00:11.203,(0 1 -1 0 -3 -1 -4 -2)
1969/12/31/18:00:11.204,(1 -1 -1 3 3 -2 -1 2)
1969/12/31/18:00:11.204,(-6 -7 4 0 3 1 -3 -4)
1969/12/31/18:00:11.226,(4 4 -4 -5 -7 -3 1 4)
1969/12/31/18:00:11.226,(1 0 0 -3 -4 -1 0 -2)
1969/12/31/18:00:11.227,(0 0 -1 1 1 0 -1 -2)
1969/12/31/18:00:11.227,(0 0 -2 -1 -3 -5 -1 0)
1969/12/31/18:00:11.240,(-3 -6 -2 -1 3 2 1 1)
1969/12/31/18:00:11.240,(0 -1 -1 1 0 0 1 0)
1969/12/31/18:00:11.241,(1 0 -2 -1 0 0 -1 0)
1969/12/31/18:00:11.241,(-1 -1 -2 -1 -3 -2 1 0)
1969/12/31/18:00:11.263,(0 0 1 0 -1 -1 -3 -1)
1969/12/31/18:00:11.263,(0 0 0 -1 0 1 1 1)
1969/12/31/18:00:11.264,(-1 -1 0 0 -1 1 0 1)
1969/12/31/18:00:11.264,(0 1 0 -1 2 2 0 -3)
1969/12/31/18:00:11.286,(0 0 0 2 0 1 1 1)
1969/12/31/18:00:11.286,(1 -1 0 0 -1 0 0 -1)
1969/12/31/18:00:11.287,(0 0 -3 -4 -2 0 2 1)
1969/12/31/18:00:11.287,(-1 0 0 2 2 0 -1 -2)
1969/12/31/18:00:11.300,(0 0 1 0 0 -3 0 0)
1969/12/31/18:00:11.300,(-3 -2 -1 -1 -2 -2 -2 -1)
1969/12/31/18:00:11.301,(0 2 0 1 2 -1 -1 0)
1969/12/31/18:00:11.301,(4 2 -2 -2 -1 1 3 3)
1969/12/31/18:00:11.323,(3 0 -1 -2 -3 -1 4 3)
1969/12/31/18:00:11.323,(-2 0 1 0 0 -1 -3 -3)
1969/12/31/18:00:11.324,(0 0 0 2 0 2 -2 -2)
1969/12/31/18:00:11.324,(1 0 -3 -2 0 2 3 2)
1969/12/31/18:00:11.346,(-3 -1 -1 -2 -1 -3 -3 -3)
1969/12/31/18:00:11.346,(-1 -2 -3 -2 -2 0 -1 0)
1969/12/31/18:00:11.347,(-2 -1 1 1 1 -3 -3 -4)
1969/12/31/18:00:11.347,(1 0 -2 -2 -4 0 4 2)
1969/12/31/18:00:11.360,(0 0 -1 1 0 -1 1 1)
1969/12/31/18:00:11.360,(1 3 1 0 1 2 1 1)
1969/12/31/18:00:11.361,(-2 -1 1 -4 -2 -3 -1 -3)
1969/12/31/18:00:11.361,(-3 -1 1 1 1 -1 -3 -2)
1969/12/31/18:00:11.384,(0 -1 -1 -3 -1 -2 -1 0)
1969/12/31/18:00:11.384,(-1 -2 -2 -3 -3 -2 -2 -3)
1969/12/31/18:00:11.384,(2 0 2 2 1 1 3 4)
1969/12/31/18:00:11.384,(-2 0 1 1 1 -2 -1 -2)
1969/12/31/18:00:11.406,(-1 1 0 0 -1 1 -3 -3)
1969/12/31/18:00:11.406,(-2 -1 -1 -1 0 -1 0 -2)
1969/12/31/18:00:11.407,(-1 -1 -2 -3 -4 -1 3 -2)
1969/12/31/18:00:11.407,(0 0 0 1 -1 -1 -3 -2)
1969/12/31/18:00:11.420,(0 1 0 1 -1 1 3 3)
1969/12/31/18:00:11.420,(-1 -1 0 0 0 1 -3 1)
1969/12/31/18:00:11.421,(-1 -1 -1 0 1 -1 -3 -1)
1969/12/31/18:00:11.421,(3 3 0 -1 -1 0 5 4)
1969/12/31/18:00:11.444,(0 -1 0 0 0 0 -2 -3)
1969/12/31/18:00:11.444,(0 -1 -2 1 0 -1 1 -1)
1969/12/31/18:00:11.444,(-2 0 0 0 -1 0 -1 -1)
1969/12/31/18:00:11.444,(0 -3 -1 -2 0 0 -2 0)
1969/12/31/18:00:11.466,(-1 -1 0 -3 -3 -1 -2 0)
1969/12/31/18:00:11.466,(-1 0 0 1 0 -2 -3 -2)
1969/12/31/18:00:11.467,(1 1 0 0 0 2 3 2)
1969/12/31/18:00:11.467,(0 -2 -1 0 1 -1 0 -2)
1969/12/31/18:00:11.480,(-1 -2 -1 0 0 -1 -2 -2)
1969/12/31/18:00:11.480,(1 0 0 -1 -1 -2 0 2)
1969/12/31/18:00:11.481,(-4 -3 -2 -1 0 -1 -2 -2)
1969/12/31/18:00:11.481,(1 1 -1 -2 -3 -1 1 2)
1969/12/31/18:00:11.504,(-1 2 1 -1 0 0 -3 -3)
1969/12/31/18:00:11.504,(0 -1 -1 -1 -1 -1 0 -1)
1969/12/31/18:00:11.504,(-2 -3 1 1 2 -2 -6 -6)
1969/12/31/18:00:11.504,(1 0 -1 0 0 1 2 1)
1969/12/31/18:00:11.533,(0 0 -3 -1 1 -1 -1 -2)
1969/12/31/18:00:11.534,(-2 -2 0 1 0 0 -3 -2)
1969/12/31/18:00:11.535,(0 0 -2 -1 0 0 2 3)
1969/12/31/18:00:11.535,(-2 -2 -3 0 -2 -1 -3 -4)
1969/12/31/18:00:11.540,(0 -1 -2 0 -3 1 3 3)
1969/12/31/18:00:11.540,(0 -2 -2 -1 -2 1 3 -2)
1969/12/31/18:00:11.548,(2 1 1 2 1 -2 0 2)
1969/12/31/18:00:11.548,(-4 -3 0 -1 -2 -4 -3 -2)
1969/12/31/18:00:11.563,(-3 1 -1 3 1 0 0 -2)
1969/12/31/18:00:11.563,(0 -1 -1 -1 0 1 -1 1)
1969/12/31/18:00:11.565,(0 -3 -5 -3 -2 0 -2 -1)
1969/12/31/18:00:11.565,(0 3 3 1 0 1 -2 -1)
