time,.data
1969/12/31/18:00:05.504000,(-2 2 11 1 -2 4 2 -2)
1969/12/31/18:00:05.504000,(5 1 -13 9 8 -3 -3 3)
1969/12/31/18:00:05.506000,(-17 -18 -10 -17 -13 -14 -15 -14)
1969/12/31/18:00:05.506000,(-4 -2 2 0 0 2 0 -1)
1969/12/31/18:00:05.519000,(2 4 3 2 5 2 1 -1)
1969/12/31/18:00:05.519000,(-7 -2 4 -3 -4 2 3 -2)
1969/12/31/18:00:05.520000,(15 13 -2 6 5 0 5 13)
1969/12/31/18:00:05.520000,(-3 -5 -2 -7 -7 -1 -1 -2)
1969/12/31/18:00:05.534000,(-3 -7 -12 3 -1 -8 -5 -6)
1969/12/31/18:00:05.534000,(1 0 8 -9 -2 5 5 6)
1969/12/31/18:00:05.536000,(6 2 -12 15 13 9 8 6)
1969/12/31/18:00:05.536000,(-6 -12 -12 -26 -8 -6 -7 -6)
1969/12/31/18:00:05.557000,(3 2 15 6 1 -3 -2 0)
1969/12/31/18:00:05.557000,(-13 -4 -2 -4 -11 -4 -5 -12)
1969/12/31/18:00:05.558000,(8 4 5 25 21 4 3 6)
1969/12/31/18:00:05.559000,(-5 1 13 7 1 -1 -3 -3)
1969/12/31/18:00:05.570000,(-9 -9 -15 -21 -15 2 0 -4)
1969/12/31/18:00:05.570000,(21 8 -18 -39 -11 -2 7 15)
1969/12/31/18:00:05.587000,(-7 -2 -2 -25 -12 -14 -8 -9)
1969/12/31/18:00:05.587000,(2 2 -17 5 12 3 1 0)
1969/12/31/18:00:05.594000,(8 0 18 74 37 6 0 4)
1969/12/31/18:00:05.594000,(-13 -4 18 21 -18 3 -3 -7)
1969/12/31/18:00:05.596000,(15 4 -11 13 24 15 13 14)
1969/12/31/18:00:05.596000,(-19 -9 21 9 16 -2 -10 -15)
1969/12/31/18:00:05.616000,(1 6 -2 -24 -30 -4 1 -1)
1969/12/31/18:00:05.616000,(-1 1 -3 10 -8 -9 -6 -3)
1969/12/31/18:00:05.618000,(-1 -5 -14 -50 -25 -1 0 0)
1969/12/31/18:00:05.618000,(3 1 -5 -9 7 1 2 5)
1969/12/31/18:00:05.639000,(-11 -5 5 47 14 0 -3 -6)
1969/12/31/18:00:05.639000,(7 9 13 5 18 5 4 5)
1969/12/31/18:00:05.641000,(-2 6 14 0 -66 -8 0 -3)
1969/12/31/18:00:05.641000,(13 1 -22 -18 4 0 6 8)
1969/12/31/18:00:05.653000,(-6 -12 -33 -78 -9 -10 -7 -3)
1969/12/31/18:00:05.653000,(-10 -16 -24 -60 -3 -9 -9 -9)
1969/12/31/18:00:05.662000,(1 10 39 77 25 5 -1 0)
1969/12/31/18:00:05.662000,(6 10 24 54 26 15 8 4)
1969/12/31/18:00:05.684000,(3 8 20 74 -3 9 5 2)
1969/12/31/18:00:05.684000,(-3 -6 -21 -19 -34 -12 -5 -3)
1969/12/31/18:00:05.686000,(-11 -18 -32 -69 28 -7 -9 -5)
1969/12/31/18:00:05.686000,(0 7 1 -65 -15 2 1 0)
1969/12/31/18:00:05.690000,(-4 -4 0 -12 0 -7 -7 -4)
1969/12/31/18:00:05.690000,(3 8 29 108 41 11 6 5)
1969/12/31/18:00:05.699000,(-1 3 10 42 -3 0 0 -4)
1969/12/31/18:00:05.699000,(3 -2 -14 -4 -13 -3 3 4)
1969/12/31/18:00:05.713000,(0 -5 -23 -94 -28 -5 -3 -2)
1969/12/31/18:00:05.713000,(3 2 16 24 -5 3 3 2)
1969/12/31/18:00:05.720000,(-6 -2 4 33 7 0 -2 -3)
1969/12/31/18:00:05.720000,(-2 -9 -25 -66 -35 -9 -4 0)
1969/12/31/18:00:05.736000,(-1 -4 -35 -109 -38 -15 -1 2)
1969/12/31/18:00:05.736000,(11 10 26 39 14 5 2 5)
1969/12/31/18:00:05.738000,(-13 -3 31 89 45 10 -4 -12)
1969/12/31/18:00:05.738000,(4 9 13 13 11 9 8 7)
1969/12/31/18:00:05.750000,(15 8 13 60 39 18 9 12)
1969/12/31/18:00:05.750000,(-10 3 -17 -101 -23 -10 -9 -10)
1969/12/31/18:00:05.775000,(4 0 -4 20 -2 0 -1 2)
1969/12/31/18:00:05.775000,(-28 -31 -11 -18 -36 -25 -19 -19)
1969/12/31/18:00:05.781000,(4 3 -23 -52 -36 -7 2 2)
1969/12/31/18:00:05.781000,(6 0 -2 -8 12 3 5 5)
1969/12/31/18:00:05.783000,(-9 -7 -4 -33 -17 -7 -7 -8)
1969/12/31/18:00:05.783000,(16 16 5 51 24 10 9 12)
1969/12/31/18:00:05.797000,(-2 1 17 32 5 3 -1 -2)
1969/12/31/18:00:05.797000,(-8 -11 -28 -91 -16 -5 -5 -7)
1969/12/31/18:00:05.798000,(2 6 25 39 -8 -1 1 2)
1969/12/31/18:00:05.798000,(-1 -7 -8 -31 18 -1 -4 -3)
1969/12/31/18:00:05.810000,(2 10 30 60 26 7 4 1)
1969/12/31/18:00:05.810000,(-1 -3 -20 -18 -9 3 1 -1)
1969/12/31/18:00:05.819000,(3 5 2 -22 2 3 3 2)
1969/12/31/18:00:05.819000,(-2 -4 0 -7 -4 -3 -3 -3)
1969/12/31/18:00:05.833000,(-1 1 -1 10 -5 -1 -2 -1)
1969/12/31/18:00:05.833000,(-3 -1 17 94 18 1 -2 -1)
1969/12/31/18:00:05.840000,(-1 -10 -31 -96 -14 -6 -1 1)
1969/12/31/18:00:05.840000,(2 8 21 69 -2 1 0 -1)
1969/12/31/18:00:05.856000,(-3 -6 -8 -14 3 0 0 -2)
1969/12/31/18:00:05.856000,(1 -4 1 12 23 4 4 1)
1969/12/31/18:00:05.858000,(3 4 -1 -14 -12 -1 1 3)
1969/12/31/18:00:05.858000,(-2 -2 -14 -23 -16 -7 -1 -2)
1969/12/31/18:00:05.878000,(-2 -2 2 -25 1 1 0 -2)
1969/12/31/18:00:05.878000,(1 2 10 24 4 1 0 0)
1969/12/31/18:00:05.879000,(-2 -4 -11 -34 -7 -1 -4 -3)
1969/12/31/18:00:05.879000,(1 1 8 48 8 1 -1 0)
1969/12/31/18:00:05.893000,(-2 -3 -3 -18 -9 -3 0 0)
1969/12/31/18:00:05.893000,(2 1 4 8 -2 0 2 2)
1969/12/31/18:00:05.901000,(-3 -3 -11 -12 -9 -3 -2 -4)
1969/12/31/18:00:05.901000,(1 -2 -6 -31 -5 0 1 -1)
1969/12/31/18:00:05.917000,(1 3 12 53 20 4 1 1)
1969/12/31/18:00:05.917000,(-2 -3 -7 -6 0 -1 -2 -1)
1969/12/31/18:00:05.918000,(-3 -2 -2 -9 3 -2 1 -2)
1969/12/31/18:00:05.918000,(1 1 5 -4 -8 -2 -1 -3)
1969/12/31/18:00:05.938000,(-1 -2 0 1 2 -2 0 0)
1969/12/31/18:00:05.938000,(0 0 -6 -13 2 -1 0 1)
1969/12/31/18:00:05.939000,(-1 -2 0 -3 -4 0 -1 -2)
1969/12/31/18:00:05.939000,(1 1 2 3 0 1 0 -1)
1969/12/31/18:00:05.953000,(-2 -3 -3 2 3 -1 -3 -2)
1969/12/31/18:00:05.953000,(3 3 -1 -8 -3 2 3 3)
1969/12/31/18:00:05.961000,(-2 -2 0 0 0 1 -1 -3)
1969/12/31/18:00:05.961000,(1 4 2 4 1 1 1 0)
1969/12/31/18:00:05.976000,(-4 -5 -4 -1 2 -3 -3 -4)
1969/12/31/18:00:05.976000,(-1 -3 -2 -5 -5 -3 -1 -1)
1969/12/31/18:00:05.977000,(-1 -1 0 2 1 -2 1 0)
1969/12/31/18:00:05.977000,(-2 -3 -2 2 0 -3 -2 -1)
1969/12/31/18:00:05.998000,(1 -2 -6 -13 -6 -2 -1 0)
1969/12/31/18:00:05.998000,(-5 -5 1 8 -2 -5 -2 -5)
1969/12/31/18:00:05.999000,(5 2 0 -4 -3 -2 1 3)
1969/12/31/18:00:05.999000,(1 -1 -5 -10 -4 1 2 3)
1969/12/31/18:00:06.013000,(-1 1 4 4 0 2 1 0)
1969/12/31/18:00:06.013000,(2 3 3 3 -5 3 0 1)
1969/12/31/18:00:06.021000,(-1 -1 1 3 17 3 -4 -3)
1969/12/31/18:00:06.021000,(3 1 2 1 1 4 1 1)
1969/12/31/18:00:06.036000,(0 -1 -4 -12 -2 2 0 -2)
1969/12/31/18:00:06.036000,(1 -1 -3 -12 -6 1 2 1)
1969/12/31/18:00:06.037000,(-3 -3 1 0 -9 -3 -2 0)
1969/12/31/18:00:06.037000,(-3 -1 0 -4 -2 -2 -1 -2)
1969/12/31/18:00:06.058000,(-4 -3 -1 7 5 0 0 -3)
1969/12/31/18:00:06.058000,(0 2 0 0 0 -1 -3 1)
1969/12/31/18:00:06.059000,(-2 -1 -1 2 0 -2 1 -2)
1969/12/31/18:00:06.059000,(-3 -3 -1 0 -1 -4 -3 -2)
1969/12/31/18:00:06.081000,(1 -2 -1 -3 -3 -1 0 1)
1969/12/31/18:00:06.082000,(-2 -4 1 8 5 0 -2 -1)
1969/12/31/18:00:06.083000,(8 10 1 2 9 7 10 8)
1969/12/31/18:00:06.083000,(-6 -4 -11 -28 -15 -7 -5 -4)
1969/12/31/18:00:06.096000,(-2 1 9 28 4 1 -2 0)
1969/12/31/18:00:06.096000,(2 2 4 18 16 5 4 2)
1969/12/31/18:00:06.097000,(-5 -6 -5 -5 -6 -2 0 2)
1969/12/31/18:00:06.097000,(5 1 2 2 -1 2 4 2)
1969/12/31/18:00:06.118000,(0 5 -2 -12 -6 -6 -11 -13)
1969/12/31/18:00:06.118000,(3 3 -2 -15 -8 -4 1 3)
1969/12/31/18:00:06.119000,(7 4 0 -1 -6 -4 -2 -1)
1969/12/31/18:00:06.119000,(-12 -10 2 7 2 -3 -2 -1)
1969/12/31/18:00:06.133000,(0 -3 -8 -14 0 11 14 11)
1969/12/31/18:00:06.133000,(-15 -4 0 4 -1 -4 -8 -10)
1969/12/31/18:00:06.141000,(11 0 -6 -15 -7 -5 -4 1)
1969/12/31/18:00:06.141000,(4 1 -2 -7 0 -1 -3 -2)
1969/12/31/18:00:06.156000,(-1 -4 -26 -72 -30 -6 -2 0)
1969/12/31/18:00:06.156000,(-3 0 20 68 30 5 1 -1)
1969/12/31/18:00:06.157000,(-6 5 30 84 59 14 3 -1)
1969/12/31/18:00:06.157000,(1 0 4 8 -5 2 1 1)
1969/12/31/18:00:06.178000,(3 -2 -11 -48 -12 -8 -6 -3)
1969/12/31/18:00:06.178000,(-4 -4 -15 -27 -25 -7 -4 -2)
1969/12/31/18:00:06.179000,(-8 -5 -2 -9 -20 -10 -11 -10)
1969/12/31/18:00:06.179000,(4 8 4 21 16 6 4 5)
1969/12/31/18:00:06.194000,(-21 -14 -2 6 2 1 0 -3)
1969/12/31/18:00:06.194000,(8 -11 -9 -30 -15 -2 5 8)
1969/12/31/18:00:06.201000,(1 4 1 -2 -5 -4 -11 -20)
1969/12/31/18:00:06.201000,(21 -1 -12 -16 -7 -4 1 6)
1969/12/31/18:00:06.216000,(32 32 11 28 18 14 9 14)
1969/12/31/18:00:06.216000,(-14 -7 -4 -5 -1 -3 -4 -5)
1969/12/31/18:00:06.217000,(-13 -9 -3 -6 -4 1 2 0)
1969/12/31/18:00:06.217000,(-12 -2 -3 -11 -4 -2 -1 -4)
1969/12/31/18:00:06.239000,(-6 -5 3 19 2 -5 -2 -3)
1969/12/31/18:00:06.239000,(9 4 1 -21 6 4 3 5)
1969/12/31/18:00:06.239000,(-2 -1 -11 -18 -16 -3 2 4)
1969/12/31/18:00:06.239000,(-6 -1 12 49 22 4 -1 -3)
1969/12/31/18:00:06.253000,(7 6 16 38 20 5 7 9)
1969/12/31/18:00:06.253000,(8 5 -2 -9 -10 -4 -5 -6)
1969/12/31/18:00:06.254000,(-1 -10 -19 -62 -25 -6 -1 2)
1969/12/31/18:00:06.254000,(-4 -2 -3 10 -1 -2 -1 -1)
1969/12/31/18:00:06.276000,(-9 -20 9 50 18 -4 -3 -4)
1969/12/31/18:00:06.276000,(11 16 2 -7 4 11 1 -7)
1969/12/31/18:00:06.276000,(12 9 -3 -12 -5 0 3 9)
1969/12/31/18:00:06.276000,(10 1 -6 -34 -14 -2 2 5)
1969/12/31/18:00:06.298000,(-16 -6 1 -12 -14 -9 -8 -8)
1969/12/31/18:00:06.298000,(-14 -3 4 38 12 -2 -3 -3)
1969/12/31/18:00:06.299000,(3 -12 -23 -84 -20 4 10 11)
1969/12/31/18:00:06.299000,(-1 7 23 101 28 3 0 1)
1969/12/31/18:00:06.313000,(-1 6 18 33 14 3 -2 -8)
1969/12/31/18:00:06.313000,(0 -9 -42 -92 -43 -8 -2 2)
1969/12/31/18:00:06.314000,(-4 4 28 113 18 0 -3 -7)
1969/12/31/18:00:06.314000,(-5 -1 14 29 28 8 0 -3)
1969/12/31/18:00:06.336000,(4 4 0 8 11 7 4 5)
1969/12/31/18:00:06.336000,(15 7 8 -2 1 -2 -2 1)
1969/12/31/18:00:06.336000,(-17 -11 -25 -57 -23 -12 -9 -10)
1969/12/31/18:00:06.336000,(0 -5 -24 -88 -39 -8 -2 0)
1969/12/31/18:00:06.360000,(2 3 5 48 16 -1 2 2)
1969/12/31/18:00:06.360000,(4 3 6 7 11 5 5 4)
1969/12/31/18:00:06.361000,(-4 -2 0 1 -1 -5 -8 -8)
1969/12/31/18:00:06.361000,(11 4 -5 -31 -14 -6 -3 -3)
1969/12/31/18:00:06.373000,(-2 -5 -18 -56 -29 -2 2 1)
1969/12/31/18:00:06.373000,(-2 -2 19 62 22 -3 -4 -1)
1969/12/31/18:00:06.374000,(-8 -1 14 37 16 5 4 6)
1969/12/31/18:00:06.374000,(13 18 20 37 21 9 1 -9)
1969/12/31/18:00:06.396000,(-5 -12 -28 -56 -15 0 -2 -1)
1969/12/31/18:00:06.396000,(-9 -12 -23 -57 -26 -6 -3 -1)
1969/12/31/18:00:06.396000,(-3 4 28 96 12 0 -2 -1)
1969/12/31/18:00:06.396000,(-9 -4 -2 7 9 -1 -2 0)
1969/12/31/18:00:06.418000,(4 1 5 16 1 0 3 2)
1969/12/31/18:00:06.418000,(-4 0 4 16 14 3 1 -2)
1969/12/31/18:00:06.419000,(1 -4 -17 -80 -22 -4 -3 -4)
1969/12/31/18:00:06.419000,(-1 -2 -10 -18 -12 2 6 8)
1969/12/31/18:00:06.433000,(-3 0 1 -1 -1 -4 -7 -7)
1969/12/31/18:00:06.433000,(5 5 14 47 12 1 1 2)
1969/12/31/18:00:06.434000,(4 2 -2 -5 7 1 1 2)
1969/12/31/18:00:06.434000,(-19 -11 -9 -12 -23 -8 -10 -16)
1969/12/31/18:00:06.456000,(3 -8 -16 -43 -6 -3 0 0)
1969/12/31/18:00:06.456000,(2 3 4 4 -2 0 1 6)
1969/12/31/18:00:06.457000,(9 8 17 51 19 10 7 5)
1969/12/31/18:00:06.457000,(-23 -14 -6 -39 -4 -1 -3 -8)
1969/12/31/18:00:06.479000,(2 4 4 35 2 -4 -5 0)
1969/12/31/18:00:06.479000,(-28 -12 0 -1 -6 -3 -5 -14)
1969/12/31/18:00:06.479000,(30 13 -7 -23 -1 3 11 11)
1969/12/31/18:00:06.479000,(-5 -4 -8 -14 -17 -10 -10 -8)
1969/12/31/18:00:06.493000,(-2 1 -2 -27 -10 -8 -5 -5)
1969/12/31/18:00:06.493000,(13 6 2 29 15 10 9 13)
1969/12/31/18:00:06.501000,(-13 -4 -3 -28 -1 2 -2 -3)
1969/12/31/18:00:06.501000,(4 -3 -20 -67 -30 -8 0 5)
1969/12/31/18:00:06.524000,(7 8 29 86 23 8 4 2)
1969/12/31/18:00:06.524000,(-6 5 24 71 44 11 -1 -3)
1969/12/31/18:00:06.525000,(2 -10 -36 -69 -29 -6 -1 4)
1969/12/31/18:00:06.525000,(8 1 -17 64 -55 -17 -1 7)
1969/12/31/18:00:06.547000,(-5 5 47 83 63 15 1 -5)
1969/12/31/18:00:06.547000,(-7 -1 15 19 65 20 2 -6)
1969/12/31/18:00:06.547000,(4 11 12 -11 19 14 6 3)
1969/12/31/18:00:06.547000,(17 4 -13 -60 -9 -1 1 8)
1969/12/31/18:00:06.553000,(-9 -12 -34 -90 -69 -22 -7 -4)
1969/12/31/18:00:06.553000,(2 0 -5 -26 -30 -11 -3 -3)
1969/12/31/18:00:06.561000,(-15 -10 -3 -11 -1 -7 -6 -7)
1969/12/31/18:00:06.561000,(-1 -8 -6 -14 -2 4 3 3)
1969/12/31/18:00:06.576000,(18 20 21 36 19 12 15 18)
1969/12/31/18:00:06.576000,(26 8 -11 -41 -10 -3 -3 3)
1969/12/31/18:00:06.583000,(-14 -9 6 34 -17 -9 -13 -13)
1969/12/31/18:00:06.583000,(-2 -3 8 -34 9 4 4 3)
1969/12/31/18:00:06.607000,(1 3 3 77 23 8 4 3)
1969/12/31/18:00:06.607000,(-6 -5 -4 -14 -10 -1 2 -2)
1969/12/31/18:00:06.608000,(0 2 1 14 -15 -7 -3 -1)
1969/12/31/18:00:06.608000,(1 6 23 41 37 6 -1 -4)
1969/12/31/18:00:06.613000,(-5 -7 -10 -48 -8 -3 -6 -7)
1969/12/31/18:00:06.613000,(-4 -5 -20 -24 -28 -8 2 4)
1969/12/31/18:00:06.621000,(9 5 3 4 8 3 3 6)
1969/12/31/18:00:06.621000,(-7 -3 -11 -37 -2 -1 -1 -2)
1969/12/31/18:00:06.636000,(-6 -6 -1 11 -12 -9 -9 -10)
1969/12/31/18:00:06.636000,(3 3 7 10 -3 -3 1 1)
1969/12/31/18:00:06.637000,(-1 -2 -4 -16 -3 3 4 3)
1969/12/31/18:00:06.637000,(8 5 17 79 24 6 3 8)
1969/12/31/18:00:06.658000,(3 5 -3 -8 15 4 0 -5)
1969/12/31/18:00:06.658000,(-16 -9 -5 -19 -13 -4 -4 -4)
1969/12/31/18:00:06.659000,(25 11 12 17 14 5 6 9)
1969/12/31/18:00:06.659000,(-14 -3 -5 -18 -3 -6 -10 -15)
1969/12/31/18:00:06.673000,(-7 -6 -9 -28 -21 -6 -7 -4)
1969/12/31/18:00:06.673000,(-8 -12 -9 -4 -9 -4 -4 -3)
1969/12/31/18:00:06.681000,(11 9 -6 -23 1 1 3 8)
1969/12/31/18:00:06.681000,(0 0 12 52 6 -2 -5 -4)
1969/12/31/18:00:06.704000,(-10 -10 -7 -7 2 6 4 -4)
1969/12/31/18:00:06.704000,(-8 -5 -7 -27 -13 -7 -6 -7)
1969/12/31/18:00:06.705000,(16 11 2 15 2 5 11 15)
1969/12/31/18:00:06.705000,(-40 -21 1 -8 10 3 -1 -16)
1969/12/31/18:00:06.727000,(28 8 4 4 -1 -5 -6 -1)
1969/12/31/18:00:06.727000,(11 5 0 -14 -7 -3 -7 0)
1969/12/31/18:00:06.727000,(-27 -16 -6 19 -2 -9 -12 -15)
1969/12/31/18:00:06.727000,(-11 -1 12 20 17 9 14 11)
1969/12/31/18:00:06.749000,(8 -5 -22 -49 -21 -12 -12 -8)
1969/12/31/18:00:06.749000,(8 5 6 17 -2 0 2 7)
1969/12/31/18:00:06.750000,(-18 -12 -1 -21 -4 -3 -6 -7)
1969/12/31/18:00:06.750000,(25 17 0 11 2 2 6 13)
1969/12/31/18:00:06.756000,(1 2 -5 -27 -13 -3 -1 0)
1969/12/31/18:00:06.756000,(18 10 1 -2 4 -2 1 3)
1969/12/31/18:00:06.757000,(-56 -32 -4 17 4 -8 -16 -34)
1969/12/31/18:00:06.757000,(45 26 24 15 6 7 9 30)
1969/12/31/18:00:06.778000,(-27 -9 -3 9 6 5 8 11)
1969/12/31/18:00:06.778000,(29 25 5 -1 1 5 -1 -11)
1969/12/31/18:00:06.779000,(-46 -19 -20 -22 -14 -10 -5 -2)
1969/12/31/18:00:06.779000,(-14 -9 -9 -21 -4 -6 -16 -26)
1969/12/31/18:00:06.793000,(108 67 22 10 5 17 31 59)
1969/12/31/18:00:06.793000,(-55 -29 -21 -6 -11 -12 -15 -25)
1969/12/31/18:00:06.801000,(-2 -9 -5 6 11 1 -2 -5)
1969/12/31/18:00:06.801000,(-18 -3 12 20 1 1 -3 -8)
1969/12/31/18:00:06.824000,(-28 -17 -3 -13 -1 -3 -2 -3)
1969/12/31/18:00:06.824000,(-12 -6 -5 -10 -12 -4 1 2)
1969/12/31/18:00:06.825000,(1 3 7 -6 6 9 6 2)
1969/12/31/18:00:06.825000,(42 17 -41 -113 -40 -8 4 11)
1969/12/31/18:00:06.838000,(-37 -14 9 29 -10 -3 -9 -22)
1969/12/31/18:00:06.838000,(-31 -6 51 100 83 17 6 1)
1969/12/31/18:00:06.839000,(44 48 30 17 18 8 1 8)
1969/12/31/18:00:06.839000,(-101 -98 -25 -21 5 3 0 -15)
1969/12/31/18:00:06.862000,(68 35 -28 -69 -31 -16 -18 -9)
1969/12/31/18:00:06.862000,(33 19 -28 -67 -50 -17 -3 18)
1969/12/31/18:00:06.862000,(43 17 -11 7 9 12 17 20)
1969/12/31/18:00:06.862000,(18 27 16 14 6 2 4 2)
1969/12/31/18:00:06.884000,(-81 -50 -2 7 -10 -15 -25 -43)
1969/12/31/18:00:06.884000,(-40 -30 -3 10 -3 -1 0 -4)
1969/12/31/18:00:06.885000,(8 4 -5 -65 -8 5 8 6)
1969/12/31/18:00:06.885000,(23 21 2 57 15 4 7 12)
1969/12/31/18:00:06.898000,(-66 -39 11 30 11 -2 -11 -20)
1969/12/31/18:00:06.898000,(79 40 -4 -31 -12 2 6 20)
1969/12/31/18:00:06.899000,(-45 -34 -4 25 -2 -11 -13 -13)
1969/12/31/18:00:06.899000,(-7 28 19 31 18 6 3 -10)
1969/12/31/18:00:06.929000,(76 30 13 14 17 11 11 18)
1969/12/31/18:00:06.929000,(-84 -50 -3 -11 -10 0 12 7)
1969/12/31/18:00:06.930000,(69 37 -17 -32 -19 -7 -3 1)
1969/12/31/18:00:06.930000,(-113 -76 -10 -8 -3 -7 -16 -36)
1969/12/31/18:00:06.936000,(99 87 9 4 10 10 16 39)
1969/12/31/18:00:06.936000,(0 10 -8 -19 -13 -9 -14 -14)
1969/12/31/18:00:06.937000,(-27 -18 2 21 8 3 6 11)
1969/12/31/18:00:06.937000,(31 16 11 17 2 2 4 11)
1969/12/31/18:00:06.959000,(-67 -44 -6 -12 0 1 -1 -16)
1969/12/31/18:00:06.959000,(-6 -1 -5 -7 -4 -1 1 6)
1969/12/31/18:00:06.960000,(-49 -29 11 18 6 4 0 -4)
1969/12/31/18:00:06.960000,(112 50 -2 2 3 4 4 18)
1969/12/31/18:00:06.982000,(-15 -8 -12 -32 -20 -9 -9 -19)
1969/12/31/18:00:06.982000,(-54 -24 -3 8 8 1 -5 -26)
1969/12/31/18:00:06.982000,(59 35 42 88 30 10 19 44)
1969/12/31/18:00:06.982000,(-39 -17 -11 -32 -14 -14 -20 -21)
1969/12/31/18:00:06.996000,(-5 -21 -9 6 -7 -12 -11 -1)
1969/12/31/18:00:06.996000,(-3 5 -3 -16 -1 7 6 0)
1969/12/31/18:00:06.997000,(7 -3 -12 -17 -4 5 6 0)
1969/12/31/18:00:06.997000,(4 2 -7 -5 -8 -11 -10 -7)
1969/12/31/18:00:07.034000,(4 37 23 3 21 30 38 39)
1969/12/31/18:00:07.034000,(-1 -27 -7 9 -2 -1 1 2)
1969/12/31/18:00:07.035000,(68 42 11 -2 2 7 9 23)
1969/12/31/18:00:07.035000,(-31 -17 -4 -4 -9 -10 -20 -24)
1969/12/31/18:00:07.042000,(-16 -24 -14 -10 -4 -15 -9 2)
1969/12/31/18:00:07.042000,(43 34 12 9 5 15 18 9)
1969/12/31/18:00:07.042000,(-60 -30 -12 -27 -23 -14 -19 -34)
1969/12/31/18:00:07.042000,(-14 9 10 24 17 8 8 2)
1969/12/31/18:00:07.056000,(-9 -33 -8 8 7 3 5 10)
1969/12/31/18:00:07.056000,(-43 -13 5 -1 -1 0 -10 -20)
1969/12/31/18:00:07.056000,(68 44 -2 -10 -5 -6 1 17)
1969/12/31/18:00:07.056000,(10 -1 -7 -11 -10 -2 -4 -9)
1969/12/31/18:00:07.079000,(-56 -13 -9 -10 -7 -8 -14 -33)
1969/12/31/18:00:07.079000,(93 40 9 3 4 5 13 56)
1969/12/31/18:00:07.080000,(-101 -63 -5 8 4 2 -10 -45)
1969/12/31/18:00:07.080000,(91 49 8 -3 -2 -3 6 41)
1969/12/31/18:00:07.101000,(-30 -17 -8 -8 -5 -1 -2 -12)
1969/12/31/18:00:07.101000,(4 -7 -9 -14 -2 -7 -7 -4)
1969/12/31/18:00:07.102000,(-16 0 -3 0 -10 -1 -2 -9)
1969/12/31/18:00:07.102000,(-26 -13 8 17 10 1 4 5)
1969/12/31/18:00:07.116000,(59 33 17 8 14 12 20 37)
1969/12/31/18:00:07.116000,(-20 -19 -14 -8 -10 -13 -20 -32)
1969/12/31/18:00:07.117000,(5 1 -15 -14 -5 -9 -12 -15)
1969/12/31/18:00:07.117000,(-20 -20 -9 -7 -6 -2 -2 -7)
1969/12/31/18:00:07.139000,(8 25 13 4 -2 -5 -6 -2)
1969/12/31/18:00:07.139000,(-19 -19 6 7 6 4 -2 -21)
1969/12/31/18:00:07.140000,(-89 -69 -6 -1 -2 -2 5 -9)
1969/12/31/18:00:07.140000,(84 65 0 -2 5 10 7 23)
1969/12/31/18:00:07.162000,(9 -21 -11 -16 -12 -13 -12 5)
1969/12/31/18:00:07.162000,(13 14 5 9 5 3 2 10)
1969/12/31/18:00:07.163000,(-8 -5 -7 -12 -4 -6 -10 -10)
1969/12/31/18:00:07.163000,(-109 -92 0 16 11 13 13 -8)
1969/12/31/18:00:07.176000,(83 73 8 -3 2 12 22 24)
1969/12/31/18:00:07.176000,(-15 -4 -7 1 -10 -20 -31 -28)
1969/12/31/18:00:07.177000,(10 1 -16 -40 -16 -11 -7 -4)
1969/12/31/18:00:07.177000,(-66 -31 10 19 5 5 -7 -25)
1969/12/31/18:00:07.199000,(0 24 12 32 18 13 23 24)
1969/12/31/18:00:07.199000,(-36 -23 -3 8 -8 -26 -29 -32)
1969/12/31/18:00:07.200000,(59 68 26 13 14 16 33 63)
1969/12/31/18:00:07.200000,(20 15 -15 -30 -19 -21 -32 -40)
1969/12/31/18:00:07.221000,(-87 -80 -22 -13 -7 -6 -13 -33)
1969/12/31/18:00:07.221000,(96 102 23 16 10 19 37 66)
1969/12/31/18:00:07.222000,(-44 -33 -18 -4 -11 -19 -30 -37)
1969/12/31/18:00:07.222000,(34 27 14 6 10 18 27 35)
1969/12/31/18:00:07.236000,(31 -1 -7 -7 -3 -3 -4 1)
1969/12/31/18:00:07.236000,(-32 -34 -3 -2 -1 5 4 -9)
1969/12/31/18:00:07.237000,(-8 7 6 7 -11 -18 -27 -29)
1969/12/31/18:00:07.237000,(104 77 5 0 36 62 86 99)
1969/12/31/18:00:07.259000,(-78 -56 -6 -1 -6 -9 -20 -36)
1969/12/31/18:00:07.259000,(-60 -39 -11 -9 -6 -11 -24 -37)
1969/12/31/18:00:07.260000,(32 66 7 9 1 1 -3 1)
1969/12/31/18:00:07.260000,(-16 -9 12 -2 -11 -7 -2 -17)
1969/12/31/18:00:07.282000,(2 6 -8 -4 9 5 3 4)
1969/12/31/18:00:07.282000,(25 10 10 7 4 9 19 27)
1969/12/31/18:00:07.282000,(-35 -36 -18 -9 -15 -25 -31 -42)
1969/12/31/18:00:07.282000,(-5 5 -4 -1 -5 -17 -17 -2)
1969/12/31/18:00:07.304000,(-23 -20 -10 -6 -4 12 13 -8)
1969/12/31/18:00:07.304000,(-20 -10 0 -1 9 8 3 -6)
1969/12/31/18:00:07.305000,(-57 -52 -12 -1 -13 -24 -40 -58)
1969/12/31/18:00:07.305000,(27 26 7 5 10 19 35 49)
1969/12/31/18:00:07.318000,(-8 12 5 -2 -5 -6 -12 -19)
1969/12/31/18:00:07.318000,(14 0 -5 0 -5 -8 -4 7)
1969/12/31/18:00:07.325000,(33 13 12 17 14 18 25 31)
1969/12/31/18:00:07.325000,(-95 -38 -26 -18 -21 -24 -24 -51)
1969/12/31/18:00:07.342000,(26 -6 11 11 11 9 8 39)
1969/12/31/18:00:07.342000,(56 58 5 -7 -10 -4 -4 -3)
1969/12/31/18:00:07.343000,(-32 -16 1 -1 2 -4 -5 -19)
1969/12/31/18:00:07.343000,(22 -10 0 3 2 -1 -3 21)
1969/12/31/18:00:07.355000,(-84 -48 -20 -16 -26 -37 -58 -88)
1969/12/31/18:00:07.355000,(48 18 3 4 10 24 31 32)
1969/12/31/18:00:07.364000,(-21 -26 -6 -2 -1 -2 -8 -3)
1969/12/31/18:00:07.364000,(-15 -7 3 -3 -9 -12 -27 -29)
1969/12/31/18:00:07.380000,(-6 6 3 -7 0 9 6 4)
1969/12/31/18:00:07.380000,(10 1 5 4 13 18 24 26)
1969/12/31/18:00:07.381000,(26 13 3 -4 4 6 11 19)
1969/12/31/18:00:07.381000,(-41 -43 -10 4 -8 -23 -22 -25)
1969/12/31/18:00:07.402000,(7 14 8 2 5 9 16 2)
1969/12/31/18:00:07.402000,(-43 -21 -16 -9 -23 -35 -32 -24)
1969/12/31/18:00:07.403000,(-16 -38 5 19 24 30 54 62)
1969/12/31/18:00:07.403000,(-28 -44 -15 -5 -2 -9 -24 -52)
1969/12/31/18:00:07.415000,(37 47 -12 -14 -20 -41 -52 -38)
1969/12/31/18:00:07.415000,(-23 -13 1 1 -7 -9 -6 -10)
1969/12/31/18:00:07.424000,(8 6 0 -18 0 14 17 18)
1969/12/31/18:00:07.424000,(2 -12 -15 -25 -11 -6 -10 -12)
1969/12/31/18:00:07.440000,(-10 -18 9 32 10 15 24 23)
1969/12/31/18:00:07.440000,(46 28 15 31 18 5 4 13)
1969/12/31/18:00:07.441000,(24 17 -3 3 -4 -8 -20 -21)
1969/12/31/18:00:07.441000,(27 18 7 5 9 16 24 31)
1969/12/31/18:00:07.469000,(19 10 -2 -24 -11 0 9 17)
1969/12/31/18:00:07.469000,(-31 -30 -14 -11 -7 -3 -1 -19)
1969/12/31/18:00:07.471000,(-16 -21 -4 11 10 14 17 20)
1969/12/31/18:00:07.471000,(87 52 2 -1 -2 0 5 26)
1969/12/31/18:00:07.475000,(-50 -31 -5 -6 -7 -18 -27 -36)
1969/12/31/18:00:07.475000,(-116 -119 -24 -12 -21 -26 -38 -74)
1969/12/31/18:00:07.484000,(121 118 41 17 30 49 73 105)
1969/12/31/18:00:07.484000,(-71 -51 -15 -3 -13 -25 -39 -50)
1969/12/31/18:00:07.499000,(22 14 6 5 4 7 11 19)
1969/12/31/18:00:07.499000,(-16 -9 1 -3 -2 2 0 -9)
1969/12/31/18:00:07.500000,(39 6 -5 -6 0 1 -1 9)
1969/12/31/18:00:07.501000,(16 18 5 0 -1 2 5 16)
1969/12/31/18:00:07.521000,(20 10 4 -8 -2 8 13 19)
1969/12/31/18:00:07.521000,(-4 6 -3 -27 -18 -2 1 4)
1969/12/31/18:00:07.523000,(-4 -6 -8 14 7 0 -4 -13)
1969/12/31/18:00:07.523000,(-3 12 13 27 9 3 7 6)
1969/12/31/18:00:07.535000,(21 1 3 14 14 11 12 22)
1969/12/31/18:00:07.535000,(-9 -16 -13 -10 -1 3 7 15)
1969/12/31/18:00:07.544000,(-99 -41 -10 -14 -19 -25 -43 -69)
1969/12/31/18:00:07.544000,(76 30 -2 -13 -12 -8 -9 0)
1969/12/31/18:00:07.558000,(-9 2 -11 -11 3 13 19 8)
1969/12/31/18:00:07.558000,(9 11 8 6 11 8 7 11)
1969/12/31/18:00:07.565000,(-32 -21 0 -1 -16 -16 -20 -28)
1969/12/31/18:00:07.565000,(5 35 1 -1 0 11 20 28)
1969/12/31/18:00:07.581000,(-28 -18 -7 -9 -13 -20 -24 -29)
1969/12/31/18:00:07.582000,(-7 -7 1 -1 -2 -4 -11 -15)
1969/12/31/18:00:07.583000,(91 58 10 19 25 25 37 53)
1969/12/31/18:00:07.583000,(-92 -55 -3 -1 -7 -14 -24 -46)
1969/12/31/18:00:07.595000,(29 10 -4 -2 -5 -4 -1 7)
1969/12/31/18:00:07.595000,(-15 6 0 2 9 5 -4 -7)
1969/12/31/18:00:07.604000,(-15 -15 -7 -9 -18 -21 -28 -32)
1969/12/31/18:00:07.604000,(-55 -60 -1 0 1 -2 2 0)
1969/12/31/18:00:07.618000,(100 98 45 17 13 28 57 94)
1969/12/31/18:00:07.618000,(-11 -1 0 3 18 14 18 19)
1969/12/31/18:00:07.625000,(-53 -35 -9 -3 -6 -8 -15 -40)
1969/12/31/18:00:07.625000,(14 -5 2 1 -1 1 1 11)
1969/12/31/18:00:07.641000,(-33 -22 1 3 2 -3 -9 -17)
1969/12/31/18:00:07.641000,(35 20 -6 -29 -7 7 18 27)
1969/12/31/18:00:07.643000,(20 13 5 13 -7 -3 -4 4)
1969/12/31/18:00:07.643000,(7 18 8 9 9 7 3 1)
1969/12/31/18:00:07.655000,(-47 -45 -14 17 1 -16 -29 -45)
1969/12/31/18:00:07.655000,(61 50 13 -7 4 19 29 42)
1969/12/31/18:00:07.664000,(-15 -24 -10 1 -5 -9 -13 -18)
1969/12/31/18:00:07.664000,(9 15 8 7 11 11 8 5)
1969/12/31/18:00:07.678000,(-32 -31 -8 5 -2 -6 -13 -20)
1969/12/31/18:00:07.678000,(-3 11 -8 -1 -7 -9 -16 -20)
1969/12/31/18:00:07.685000,(-88 -72 -23 -30 -20 -24 -26 -34)
1969/12/31/18:00:07.685000,(2 28 8 -4 1 5 4 -11)
1969/12/31/18:00:07.709000,(-50 -53 -26 -9 -15 -26 -38 -55)
1969/12/31/18:00:07.709000,(-57 -31 -5 7 16 9 -15 -66)
1969/12/31/18:00:07.711000,(-42 -34 -6 -5 -5 -9 -18 -33)
1969/12/31/18:00:07.711000,(2 6 0 -3 -6 -6 -3 4)
1969/12/31/18:00:07.715000,(-80 -77 -27 -19 -18 -22 -28 -40)
1969/12/31/18:00:07.715000,(119 81 9 19 17 21 38 74)
1969/12/31/18:00:07.724000,(-32 1 10 2 -1 -8 -17 -31)
1969/12/31/18:00:07.724000,(-22 -25 -13 -7 -2 -6 -15 -24)
1969/12/31/18:00:07.754000,(31 35 12 1 4 11 16 17)
1969/12/31/18:00:07.754000,(-13 -18 -3 -1 -13 -16 -11 -2)
1969/12/31/18:00:07.756000,(53 38 7 1 8 17 25 38)
1969/12/31/18:00:07.756000,(2 0 0 -5 -6 -6 -1 3)
1969/12/31/18:00:07.762000,(6 14 11 3 8 10 12 12)
1969/12/31/18:00:07.762000,(-3 2 6 4 -2 -3 2 8)
1969/12/31/18:00:07.763000,(11 -5 -22 -59 -18 -8 -4 3)
1969/12/31/18:00:07.763000,(-24 -21 5 31 6 -3 -8 -16)
1969/12/31/18:00:07.784000,(47 40 20 24 9 19 27 40)
1969/12/31/18:00:07.784000,(-58 -46 -3 27 2 -27 -47 -65)
1969/12/31/18:00:07.786000,(55 36 15 19 10 28 34 33)
1969/12/31/18:00:07.786000,(-10 -13 -17 -26 -9 -11 -12 -15)
1969/12/31/18:00:07.798000,(6 8 -5 -18 1 6 10 7)
1969/12/31/18:00:07.798000,(-56 -40 -10 -18 -23 -17 -16 -25)
1969/12/31/18:00:07.805000,(59 31 14 11 13 6 11 31)
1969/12/31/18:00:07.805000,(22 21 4 -1 6 12 18 21)
1969/12/31/18:00:07.822000,(-5 -3 3 6 2 0 -4 -6)
1969/12/31/18:00:07.822000,(1 -1 0 -7 -3 0 5 4)
1969/12/31/18:00:07.823000,(-48 -28 -12 10 1 0 -1 -17)
1969/12/31/18:00:07.823000,(77 82 27 8 19 27 43 72)
1969/12/31/18:00:07.844000,(-78 -40 -13 -17 -18 -29 -49 -81)
1969/12/31/18:00:07.844000,(8 6 -1 1 -2 2 6 9)
1969/12/31/18:00:07.846000,(2 3 0 5 3 1 3 4)
1969/12/31/18:00:07.846000,(-23 -24 -8 -4 -12 -19 -23 -27)
1969/12/31/18:00:07.866000,(20 13 1 -4 9 14 21 31)
1969/12/31/18:00:07.866000,(21 20 12 5 6 10 15 22)
1969/12/31/18:00:07.868000,(-21 -16 -3 0 -8 -18 -23 -27)
1969/12/31/18:00:07.868000,(-25 -24 -6 -3 -8 -9 -12 -18)
1969/12/31/18:00:07.882000,(54 33 7 4 19 26 36 48)
1969/12/31/18:00:07.882000,(-9 -11 -2 1 0 1 -1 -4)
1969/12/31/18:00:07.883000,(14 11 6 4 3 2 7 13)
1969/12/31/18:00:07.883000,(-3 -5 -3 -5 -4 -1 -2 -3)
1969/12/31/18:00:07.904000,(12 9 -1 -4 -4 0 5 10)
1969/12/31/18:00:07.904000,(-2 -1 -2 0 -2 -3 -5 -7)
1969/12/31/18:00:07.906000,(-4 2 3 2 3 1 2 1)
1969/12/31/18:00:07.906000,(-15 -10 0 2 -1 0 0 -9)
1969/12/31/18:00:07.918000,(-8 -12 -9 -5 -10 -22 -30 -24)
1969/12/31/18:00:07.918000,(22 12 1 -4 6 12 17 20)
1969/12/31/18:00:07.933000,(-7 -3 -1 -6 -6 -5 -6 -5)
1969/12/31/18:00:07.933000,(-16 -15 -5 5 2 2 0 -8)
1969/12/31/18:00:07.941000,(3 1 8 11 9 13 16 17)
1969/12/31/18:00:07.941000,(-8 9 1 -3 -6 -10 -17 -18)
1969/12/31/18:00:07.943000,(-4 0 -2 -4 -3 0 -3 -6)
1969/12/31/18:00:07.943000,(2 1 -1 -4 -5 -4 -7 -2)
1969/12/31/18:00:07.964000,(-9 -3 3 -1 0 1 7 0)
1969/12/31/18:00:07.964000,(-4 -5 -2 0 -6 -6 -5 -4)
1969/12/31/18:00:07.965000,(23 14 4 -8 2 12 19 25)
1969/12/31/18:00:07.965000,(-8 -12 -7 -3 -1 0 -2 -4)
1969/12/31/18:00:07.986000,(2 2 2 4 -6 -6 -7 -6)
1969/12/31/18:00:07.986000,(6 -1 -2 -7 5 12 17 16)
1969/12/31/18:00:07.988000,(-2 -5 -14 -46 -5 -8 -4 -1)
1969/12/31/18:00:07.988000,(10 8 5 26 -3 3 7 10)
1969/12/31/18:00:08.002000,(-2 0 5 24 5 5 2 0)
1969/12/31/18:00:08.002000,(-3 2 13 28 17 1 -8 -5)
1969/12/31/18:00:08.003000,(-4 -1 -7 -31 -10 0 1 -1)
1969/12/31/18:00:08.003000,(3 -4 -13 -14 -5 -4 -3 0)
1969/12/31/18:00:08.024000,(-6 -3 5 16 7 -6 -6 -5)
1969/12/31/18:00:08.024000,(-17 -9 5 20 -1 -5 -7 -10)
1969/12/31/18:00:08.026000,(29 14 9 18 8 5 9 18)
1969/12/31/18:00:08.026000,(12 11 2 -16 -2 9 19 18)
1969/12/31/18:00:08.037000,(18 4 -12 -23 -13 -3 4 21)
1969/12/31/18:00:08.037000,(3 1 -3 -3 1 -1 3 4)
1969/12/31/18:00:08.047000,(-11 -6 0 12 -1 -2 -7 -12)
1969/12/31/18:00:08.047000,(13 8 -3 -2 5 5 6 13)
1969/12/31/18:00:08.061000,(-14 -12 -5 -4 1 0 -2 -8)
1969/12/31/18:00:08.061000,(20 13 -2 -29 -3 12 17 18)
1969/12/31/18:00:08.063000,(-8 -6 0 27 2 -10 -13 -4)
1969/12/31/18:00:08.063000,(-4 2 7 15 3 -4 -10 -12)
1969/12/31/18:00:08.084000,(-13 -6 0 7 8 3 -1 -11)
1969/12/31/18:00:08.084000,(-7 -18 -12 -14 -8 0 0 -3)
1969/12/31/18:00:08.086000,(14 16 -3 -4 -12 -3 1 4)
1969/12/31/18:00:08.086000,(-46 -22 -1 1 -3 -20 -36 -43)
1969/12/31/18:00:08.098000,(18 15 11 2 13 18 22 17)
1969/12/31/18:00:08.098000,(-44 -44 -5 -4 -9 -8 -10 -10)
1969/12/31/18:00:08.105000,(3 13 2 13 5 3 -2 -10)
1969/12/31/18:00:08.105000,(-25 -35 -7 -11 -9 -12 -13 -12)
1969/12/31/18:00:08.121000,(1 10 1 -2 6 11 12 9)
1969/12/31/18:00:08.121000,(-12 -8 1 -4 -7 -10 -10 -4)
1969/12/31/18:00:08.123000,(44 22 14 13 17 22 29 38)
1969/12/31/18:00:08.123000,(0 5 5 -8 -13 -14 -15 -9)
1969/12/31/18:00:08.144000,(11 2 -6 -9 -1 1 5 11)
1969/12/31/18:00:08.144000,(10 10 2 6 6 9 8 7)
1969/12/31/18:00:08.146000,(-24 -12 2 -3 -1 0 -4 -14)
1969/12/31/18:00:08.146000,(46 29 5 2 15 26 34 37)
1969/12/31/18:00:08.158000,(-20 -14 -7 -6 -12 -15 -16 -16)
1969/12/31/18:00:08.158000,(4 13 3 2 -5 -11 -12 -12)
1969/12/31/18:00:08.167000,(-2 -7 -5 6 6 4 4 3)
1969/12/31/18:00:08.167000,(6 -1 -8 -6 -3 -8 -8 -1)
1969/12/31/18:00:08.181000,(-3 -5 -6 -5 -6 -11 -12 -16)
1969/12/31/18:00:08.181000,(-4 -1 0 2 0 -3 -7 -7)
1969/12/31/18:00:08.183000,(8 7 4 2 0 3 5 7)
1969/12/31/18:00:08.183000,(-4 -4 0 2 -2 -1 0 -3)
1969/12/31/18:00:08.203000,(3 2 -2 -4 -4 -3 -5 -1)
1969/12/31/18:00:08.203000,(12 11 0 -1 -1 3 4 5)
1969/12/31/18:00:08.212000,(-19 -14 0 0 -4 -7 -10 -11)
1969/12/31/18:00:08.212000,(-3 4 4 5 6 7 7 2)
1969/12/31/18:00:08.218000,(10 12 9 4 1 3 5 8)
1969/12/31/18:00:08.218000,(-9 -9 -7 -4 -8 -12 -9 -11)
1969/12/31/18:00:08.227000,(-1 5 16 13 7 7 6 4)
1969/12/31/18:00:08.227000,(2 1 -1 -2 5 7 4 3)
1969/12/31/18:00:08.242000,(-1 -1 10 6 -2 -2 -2 0)
1969/12/31/18:00:08.242000,(12 -1 -36 -17 -5 -3 2 5)
1969/12/31/18:00:08.243000,(-19 -32 -53 -25 -22 -31 -26 -21)
1969/12/31/18:00:08.243000,(-7 -8 -7 -13 -5 -4 0 -4)
1969/12/31/18:00:08.264000,(-6 3 11 6 3 7 2 -2)
1969/12/31/18:00:08.264000,(12 22 38 25 20 23 19 15)
1969/12/31/18:00:08.266000,(8 11 12 11 8 7 5 6)
1969/12/31/18:00:08.266000,(-2 -1 -3 -6 -12 -11 -8 -6)
1969/12/31/18:00:08.278000,(9 2 -7 -7 3 8 11 11)
1969/12/31/18:00:08.278000,(13 9 8 2 2 7 9 10)
1969/12/31/18:00:08.287000,(-12 -10 -4 3 0 -3 -8 -10)
1969/12/31/18:00:08.287000,(12 9 5 3 4 6 8 11)
1969/12/31/18:00:08.301000,(-8 -9 -15 -9 -8 -9 -9 -7)
1969/12/31/18:00:08.301000,(-5 -7 -5 -1 -5 -6 -6 -7)
1969/12/31/18:00:08.307000,(-1 3 7 0 1 2 2 1)
1969/12/31/18:00:08.307000,(-4 -2 -1 0 -2 -1 -2 -3)
1969/12/31/18:00:08.324000,(5 5 4 -1 -2 -1 2 3)
1969/12/31/18:00:08.324000,(2 1 -2 3 2 0 1 1)
1969/12/31/18:00:08.325000,(-5 -1 3 -2 -4 -2 -3 -2)
1969/12/31/18:00:08.325000,(-2 1 5 5 3 3 3 0)
1969/12/31/18:00:08.338000,(1 2 0 -1 -3 -3 -5 -3)
1969/12/31/18:00:08.338000,(-1 -10 -15 -12 -8 -7 0 4)
1969/12/31/18:00:08.347000,(-8 -5 -3 -4 -6 -8 -6 -9)
1969/12/31/18:00:08.347000,(0 1 5 5 6 9 7 2)
1969/12/31/18:00:08.361000,(1 6 18 10 2 0 -3 -3)
1969/12/31/18:00:08.361000,(9 2 -24 -13 -3 -2 4 6)
1969/12/31/18:00:08.368000,(-6 -11 -13 -11 -10 -10 -6 -5)
1969/12/31/18:00:08.368000,(-8 -6 -1 -2 -5 -7 -6 -5)
1969/12/31/18:00:08.384000,(0 5 17 5 3 2 3 1)
1969/12/31/18:00:08.384000,(2 7 14 9 6 8 1 -3)
1969/12/31/18:00:08.386000,(2 -5 -7 7 4 3 1 2)
1969/12/31/18:00:08.386000,(-3 -6 -17 -12 -7 -6 -5 -1)
1969/12/31/18:00:08.398000,(-7 -6 3 -2 -5 -6 -5 -5)
1969/12/31/18:00:08.398000,(0 1 1 1 2 -2 -2 0)
1969/12/31/18:00:08.414000,(2 6 12 5 6 7 6 3)
1969/12/31/18:00:08.414000,(5 2 10 -6 1 5 2 2)
1969/12/31/18:00:08.422000,(1 -1 -17 2 1 2 2 2)
1969/12/31/18:00:08.422000,(-3 -7 -3 -4 -3 -5 -5 -4)
1969/12/31/18:00:08.423000,(-3 2 7 2 0 -1 -2 -1)
1969/12/31/18:00:08.423000,(4 2 4 3 1 3 3 1)
1969/12/31/18:00:08.444000,(-3 -4 -7 -21 -16 -8 -4 -5)
1969/12/31/18:00:08.444000,(-3 -8 -21 -16 -12 -3 -2 -2)
1969/12/31/18:00:08.446000,(-6 -6 3 20 11 -3 -6 -5)
1969/12/31/18:00:08.446000,(-2 3 12 -3 14 4 1 0)
1969/12/31/18:00:08.474000,(5 2 6 22 6 8 4 6)
1969/12/31/18:00:08.474000,(-1 1 1 10 1 0 1 -2)
1969/12/31/18:00:08.476000,(-3 -1 -5 -54 -25 -4 2 -1)
1969/12/31/18:00:08.476000,(2 4 -3 1 -8 -1 -1 0)
1969/12/31/18:00:08.482000,(1 -5 -19 35 26 -5 -5 -1)
1969/12/31/18:00:08.482000,(-10 -4 12 4 5 -1 -4 -5)
1969/12/31/18:00:08.484000,(-2 -1 -2 14 6 4 1 -4)
1969/12/31/18:00:08.484000,(0 2 -1 -16 -9 0 0 -1)
1969/12/31/18:00:08.504000,(5 5 9 -23 -13 -4 0 2)
1969/12/31/18:00:08.504000,(3 0 -10 10 4 1 -1 1)
1969/12/31/18:00:08.506000,(-4 -2 7 -3 -2 -1 0 0)
1969/12/31/18:00:08.506000,(1 3 3 6 -3 -1 2 3)
1969/12/31/18:00:08.518000,(5 -1 -6 -1 1 0 1 2)
1969/12/31/18:00:08.518000,(-9 -3 -4 -6 -2 -3 -4 -5)
1969/12/31/18:00:08.527000,(3 3 5 -11 -2 5 3 3)
1969/12/31/18:00:08.527000,(-5 -5 -18 -2 -6 -11 -8 -4)
1969/12/31/18:00:08.549000,(-10 -12 -6 -20 -25 -12 -7 -7)
1969/12/31/18:00:08.549000,(0 3 11 29 21 6 4 3)
1969/12/31/18:00:08.551000,(0 -1 -4 11 6 -1 -1 1)
1969/12/31/18:00:08.551000,(-2 3 13 21 4 0 0 -2)
1969/12/31/18:00:08.564000,(3 6 -2 -9 5 8 3 2)
1969/12/31/18:00:08.564000,(2 -6 -3 -9 -11 -4 -2 0)
1969/12/31/18:00:08.566000,(-5 1 4 -7 -5 -1 -3 -4)
1969/12/31/18:00:08.566000,(5 1 -8 17 12 3 1 2)
1969/12/31/18:00:08.586000,(-9 -11 -12 -25 -15 -8 -4 -6)
1969/12/31/18:00:08.586000,(3 7 14 0 -1 1 1 1)
1969/12/31/18:00:08.588000,(2 2 -3 8 6 2 2 1)
1969/12/31/18:00:08.588000,(-1 -3 -4 -31 -15 -2 0 0)
1969/12/31/18:00:08.588000,(-2 -2 -4 -2 1 0 1 0)
1969/12/31/18:00:08.588000,(-4 -3 1 -4 -4 -2 1 -2)
1969/12/31/18:00:08.603000,(5 7 4 1 1 4 3 5)
1969/12/31/18:00:08.603000,(-1 -1 0 1 1 0 -1 -2)
1969/12/31/18:00:08.611000,(1 -4 -7 -1 1 2 -1 0)
1969/12/31/18:00:08.611000,(-4 -2 -2 -2 0 -4 -4 -2)
1969/12/31/18:00:08.611000,(0 -1 -1 -8 -7 3 3 0)
1969/12/31/18:00:08.611000,(4 3 -5 4 0 -4 -1 2)
1969/12/31/18:00:08.626000,(-8 -10 -10 -26 -2 -6 -3 -4)
1969/12/31/18:00:08.626000,(1 6 11 17 7 0 -3 -3)
1969/12/31/18:00:08.626000,(2 8 30 24 5 2 1 2)
1969/12/31/18:00:08.626000,(1 -4 -27 -33 -16 -2 -1 -4)
1969/12/31/18:00:08.634000,(2 -8 -12 6 6 5 4 3)
1969/12/31/18:00:08.634000,(1 6 15 16 4 4 3 1)
1969/12/31/18:00:08.640000,(-2 -1 1 22 20 5 0 0)
1969/12/31/18:00:08.640000,(-6 -3 19 21 1 4 1 0)
1969/12/31/18:00:08.656000,(-2 2 -8 -15 -9 -8 -7 -3)
1969/12/31/18:00:08.656000,(-6 -9 -9 -37 -16 -6 -4 -3)
1969/12/31/18:00:08.656000,(1 2 -11 -19 -22 -4 -1 0)
1969/12/31/18:00:08.656000,(3 -1 -8 -8 11 3 2 3)
1969/12/31/18:00:08.686000,(1 -1 8 10 3 -3 -3 1)
1969/12/31/18:00:08.686000,(3 6 6 10 6 6 5 2)
1969/12/31/18:00:08.687000,(-4 -15 -41 -61 -41 -11 -5 -4)
1969/12/31/18:00:08.687000,(-1 -2 -3 -9 25 -3 -2 -1)
1969/12/31/18:00:08.693000,(-4 4 29 84 17 8 1 -2)
1969/12/31/18:00:08.693000,(4 7 17 27 15 4 2 2)
1969/12/31/18:00:08.693000,(-1 0 -3 -29 -10 -4 -3 -3)
1969/12/31/18:00:08.693000,(3 3 10 -16 -15 -1 2 3)
1969/12/31/18:00:08.731000,(-7 -11 -38 -21 -50 -14 -9 -6)
1969/12/31/18:00:08.731000,(-9 -28 -46 -40 26 -12 -7 -4)
1969/12/31/18:00:08.731000,(-18 -14 -7 -40 -27 -6 -6 -10)
1969/12/31/18:00:08.731000,(19 34 66 86 31 16 12 14)
1969/12/31/18:00:08.746000,(14 23 54 92 42 17 7 4)
1969/12/31/18:00:08.746000,(7 0 -6 81 56 17 6 8)
1969/12/31/18:00:08.746000,(-9 -17 -35 -76 -81 -22 -7 -6)
1969/12/31/18:00:08.747000,(-13 -13 -39 -57 -6 -13 -9 -11)
1969/12/31/18:00:08.752000,(-1 -5 7 69 6 7 3 1)
1969/12/31/18:00:08.753000,(-10 -2 13 -13 -26 -10 -8 -8)
1969/12/31/18:00:08.753000,(3 0 -38 -24 14 -4 0 3)
1969/12/31/18:00:08.753000,(8 5 -10 -95 -94 -5 4 5)
1969/12/31/18:00:08.776000,(5 14 34 48 70 -4 -2 3)
1969/12/31/18:00:08.776000,(-4 -3 7 25 8 9 -1 -5)
1969/12/31/18:00:08.777000,(2 5 21 -11 42 5 2 3)
1969/12/31/18:00:08.777000,(-2 -4 -33 -58 -54 0 4 0)
1969/12/31/18:00:08.799000,(15 -5 -29 -49 17 5 5 12)
1969/12/31/18:00:08.799000,(-23 -5 41 35 -18 -14 -15 -20)
1969/12/31/18:00:08.799000,(-1 14 43 37 5 0 -4 -5)
1969/12/31/18:00:08.799000,(2 -5 -26 -35 0 0 0 1)
1969/12/31/18:00:08.813000,(14 9 7 64 8 13 10 10)
1969/12/31/18:00:08.813000,(-8 -3 -3 -23 14 -4 -6 -6)
1969/12/31/18:00:08.813000,(-3 -12 -36 -36 -58 -11 -2 -1)
1969/12/31/18:00:08.813000,(-7 -14 -28 -62 11 -16 -7 -5)
1969/12/31/18:00:08.835000,(5 19 49 32 63 28 10 3)
1969/12/31/18:00:08.835000,(14 16 25 76 20 14 7 9)
1969/12/31/18:00:08.836000,(-3 -9 -13 0 10 3 -3 -5)
1969/12/31/18:00:08.836000,(-5 -15 -37 -47 -42 -6 -1 0)
1969/12/31/18:00:08.858000,(-3 -10 -23 -88 -40 -11 -2 -3)
1969/12/31/18:00:08.858000,(0 7 6 -10 -27 -6 -4 -3)
1969/12/31/18:00:08.859000,(7 8 38 63 27 14 5 4)
1969/12/31/18:00:08.859000,(-2 3 11 83 48 5 -1 0)
1969/12/31/18:00:08.872000,(-3 -9 -41 -109 -41 -5 -1 -1)
1969/12/31/18:00:08.872000,(-8 -7 31 78 44 4 -4 -3)
1969/12/31/18:00:08.873000,(-8 -5 -10 4 -18 -9 -4 -5)
1969/12/31/18:00:08.873000,(1 3 4 -52 -28 -6 -3 0)
1969/12/31/18:00:08.895000,(-4 5 18 73 54 4 1 -3)
1969/12/31/18:00:08.895000,(10 -4 -33 -47 -15 -2 5 5)
1969/12/31/18:00:08.903000,(1 -5 -3 -23 11 -1 -2 -2)
1969/12/31/18:00:08.903000,(-2 0 18 74 26 4 1 -1)
1969/12/31/18:00:08.918000,(-6 -9 -26 -61 -49 -16 -5 -5)
1969/12/31/18:00:08.918000,(4 -4 -33 -81 -44 -10 3 5)
1969/12/31/18:00:08.919000,(6 11 31 72 50 12 6 7)
1969/12/31/18:00:08.919000,(-1 5 26 59 30 9 -3 -2)
1969/12/31/18:00:08.932000,(-10 -7 -8 -30 -22 -7 -5 -5)
1969/12/31/18:00:08.932000,(5 4 -7 -14 -9 1 2 5)
1969/12/31/18:00:08.933000,(1 -2 -16 -13 0 -3 0 2)
1969/12/31/18:00:08.933000,(2 0 6 1 1 1 -1 -2)
1969/12/31/18:00:08.955000,(-5 -1 11 26 -8 -5 -6 -5)
1969/12/31/18:00:08.955000,(0 -2 -15 -31 -15 -2 2 1)
1969/12/31/18:00:08.956000,(1 0 0 13 5 3 0 2)
1969/12/31/18:00:08.956000,(-4 -2 15 40 17 1 -3 -5)
1969/12/31/18:00:08.978000,(-3 -4 -14 -27 -18 -5 -4 -2)
1969/12/31/18:00:08.978000,(4 3 -11 -40 -17 0 3 3)
1969/12/31/18:00:08.979000,(1 3 12 19 11 3 -1 1)
1969/12/31/18:00:08.979000,(0 1 14 41 25 6 0 0)
1969/12/31/18:00:09.001000,(-3 -1 -9 -37 -19 -5 -1 -3)
1969/12/31/18:00:09.001000,(2 -1 -5 -12 -8 0 1 1)
1969/12/31/18:00:09.001000,(-1 0 2 13 11 0 1 -1)
1969/12/31/18:00:09.001000,(-4 -4 -6 -4 -4 -5 -3 -6)
1969/12/31/18:00:09.015000,(-1 1 5 -19 -16 -3 -1 0)
1969/12/31/18:00:09.015000,(4 3 -1 2 4 0 1 3)
1969/12/31/18:00:09.016000,(2 1 2 15 8 3 0 0)
1969/12/31/18:00:09.016000,(-1 0 1 2 1 -1 -1 -3)
1969/12/31/18:00:09.039000,(-2 -1 -6 -14 -10 -3 -3 -1)
1969/12/31/18:00:09.040000,(2 -1 -6 -30 -5 1 2 1)
1969/12/31/18:00:09.040000,(0 2 5 24 8 4 1 0)
1969/12/31/18:00:09.040000,(1 3 6 10 6 5 3 1)
1969/12/31/18:00:09.052000,(-2 -1 2 -9 -5 1 -2 -2)
1969/12/31/18:00:09.052000,(-1 0 -2 -6 -4 0 1 0)
1969/12/31/18:00:09.060000,(0 -3 -5 -7 1 -1 1 0)
1969/12/31/18:00:09.060000,(-4 -4 2 5 4 -3 -4 -5)
1969/12/31/18:00:09.075000,(1 0 -2 -3 -4 -4 -1 2)
1969/12/31/18:00:09.075000,(-2 -1 -2 -6 -3 -2 -2 -1)
1969/12/31/18:00:09.076000,(-1 1 2 6 2 2 -1 -1)
1969/12/31/18:00:09.076000,(-1 1 2 6 4 1 1 0)
1969/12/31/18:00:09.098000,(-3 -4 -4 -8 -5 -4 0 -3)
1969/12/31/18:00:09.098000,(-1 -2 -1 -3 -6 -6 -2 -2)
1969/12/31/18:00:09.099000,(-4 -3 -2 7 2 -5 -1 -1)
1969/12/31/18:00:09.099000,(-1 -5 -2 0 -2 -4 1 -1)
1969/12/31/18:00:09.112000,(-4 -6 -8 -13 -5 -6 -3 -3)
1969/12/31/18:00:09.112000,(-3 -5 -9 -22 -17 -6 -3 -4)
1969/12/31/18:00:09.120000,(6 4 4 13 -10 -2 1 3)
1969/12/31/18:00:09.120000,(-1 4 22 57 30 4 -3 -3)
1969/12/31/18:00:09.135000,(2 1 -3 -10 -2 4 3 3)
1969/12/31/18:00:09.135000,(-1 0 4 35 29 7 -1 -3)
1969/12/31/18:00:09.136000,(-2 -6 -9 -27 -10 -2 -4 -3)
1969/12/31/18:00:09.136000,(1 0 -9 -28 -17 -3 3 3)
1969/12/31/18:00:09.158000,(2 1 4 3 -6 -3 -1 -1)
1969/12/31/18:00:09.158000,(-3 -1 -3 -19 -13 -4 -4 -4)
1969/12/31/18:00:09.159000,(-2 0 2 3 2 -1 -2 -3)
1969/12/31/18:00:09.159000,(-1 -1 0 -3 -3 2 -1 -1)
1969/12/31/18:00:09.172000,(7 6 0 1 5 5 5 9)
1969/12/31/18:00:09.172000,(0 -2 -6 -7 -7 -1 -1 0)
1969/12/31/18:00:09.180000,(9 9 8 16 13 8 6 8)
1969/12/31/18:00:09.180000,(-6 -7 -5 -6 -8 -6 -8 -9)
1969/12/31/18:00:09.195000,(-4 -3 -6 -9 -4 -4 -5 -2)
1969/12/31/18:00:09.195000,(-1 0 -9 -36 -13 -2 2 1)
1969/12/31/18:00:09.196000,(-2 -1 7 29 2 0 -1 -1)
1969/12/31/18:00:09.196000,(0 1 4 6 21 4 1 2)
1969/12/31/18:00:09.219000,(0 -2 0 -8 -9 -3 -1 -2)
1969/12/31/18:00:09.219000,(1 5 13 57 18 1 0 1)
1969/12/31/18:00:09.220000,(-4 -4 -2 -6 16 -1 -3 -4)
1969/12/31/18:00:09.220000,(3 0 0 4 -9 0 1 2)
1969/12/31/18:00:09.232000,(-14 -11 -7 -8 1 -5 -8 -10)
1969/12/31/18:00:09.232000,(17 9 -1 -19 -6 5 8 11)
1969/12/31/18:00:09.240000,(-11 -7 -11 -14 -17 -8 -9 -10)
1969/12/31/18:00:09.240000,(9 4 -4 -6 -5 -8 -5 1)
1969/12/31/18:00:09.255000,(3 1 -2 0 -1 -8 -9 -8)
1969/12/31/18:00:09.255000,(4 -10 -6 -1 -5 0 2 11)
1969/12/31/18:00:09.256000,(-18 -1 1 1 5 2 -1 -10)
1969/12/31/18:00:09.256000,(0 -1 -2 -6 -3 2 3 0)
1969/12/31/18:00:09.278000,(4 3 -1 -1 -2 -1 0 2)
1969/12/31/18:00:09.278000,(-4 -1 0 5 0 -3 -3 -4)
1969/12/31/18:00:09.279000,(6 1 1 -6 0 1 1 3)
1969/12/31/18:00:09.279000,(-7 -4 -4 -7 -3 -2 0 -4)
1969/12/31/18:00:09.301000,(-2 1 4 -3 -2 4 2 2)
1969/12/31/18:00:09.301000,(2 4 6 26 11 -1 -1 -1)
1969/12/31/18:00:09.302000,(3 0 3 5 2 -1 3 2)
1969/12/31/18:00:09.302000,(-1 0 -2 -1 -7 -1 1 2)
1969/12/31/18:00:09.314000,(2 -1 -3 -2 3 5 3 3)
1969/12/31/18:00:09.314000,(-7 -3 -10 -41 -18 -2 -4 -5)
1969/12/31/18:00:09.323000,(3 1 1 18 3 1 0 0)
1969/12/31/18:00:09.323000,(-5 -2 14 41 14 -4 -4 -4)
1969/12/31/18:00:09.338000,(-6 -4 -4 -15 -3 2 2 0)
1969/12/31/18:00:09.338000,(-11 1 5 22 13 5 3 -2)
1969/12/31/18:00:09.340000,(30 9 -2 -14 -3 1 9 18)
1969/12/31/18:00:09.340000,(6 -2 -5 -11 -7 -3 -5 0)
1969/12/31/18:00:09.352000,(-10 -7 -4 0 -3 -10 -12 -18)
1969/12/31/18:00:09.352000,(-2 -1 -4 -13 -8 -2 0 -3)
1969/12/31/18:00:09.361000,(4 2 -5 -10 -4 1 3 4)
1969/12/31/18:00:09.361000,(-5 -2 -4 -3 4 7 6 3)
1969/12/31/18:00:09.374000,(4 0 0 -5 -2 -1 -1 2)
1969/12/31/18:00:09.374000,(-8 -4 -4 -21 -7 -6 -5 -8)
1969/12/31/18:00:09.383000,(-1 3 7 28 4 0 1 -1)
1969/12/31/18:00:09.383000,(4 1 -11 -47 -3 1 2 1)
1969/12/31/18:00:09.398000,(0 3 3 24 2 9 8 5)
1969/12/31/18:00:09.398000,(5 5 23 58 21 2 -1 0)
1969/12/31/18:00:09.400000,(-6 -4 0 -1 0 -4 -7 -6)
1969/12/31/18:00:09.400000,(-1 -2 -10 -14 -11 -3 -2 -3)
1969/12/31/18:00:09.421000,(-3 -7 -18 -62 -18 -6 -2 -2)
1969/12/31/18:00:09.421000,(3 2 3 19 0 3 3 4)
1969/12/31/18:00:09.422000,(-27 -8 11 28 14 1 -7 -15)
1969/12/31/18:00:09.422000,(15 12 9 21 7 6 12 25)
1969/12/31/18:00:09.434000,(12 1 -6 -9 -6 -5 -9 -12)
1969/12/31/18:00:09.434000,(3 -1 -6 -22 -7 -1 0 1)
1969/12/31/18:00:09.451000,(-3 -2 -8 -21 -7 -3 -1 -3)
1969/12/31/18:00:09.451000,(-20 -6 0 2 0 -2 -1 -7)
1969/12/31/18:00:09.458000,(1 1 3 -6 0 -1 6 6)
1969/12/31/18:00:09.458000,(2 -4 -13 -15 -17 -8 -5 -4)
1969/12/31/18:00:09.460000,(5 0 -21 -49 -1 6 6 6)
1969/12/31/18:00:09.460000,(6 11 40 95 28 9 4 1)
1969/12/31/18:00:09.482000,(8 11 24 64 30 5 1 6)
1969/12/31/18:00:09.482000,(-13 -19 -25 -35 -15 -10 -13 -13)
1969/12/31/18:00:09.484000,(-3 -7 -10 3 -1 -5 -2 -2)
1969/12/31/18:00:09.484000,(-3 -5 -12 -33 -16 -4 -4 -6)
1969/12/31/18:00:09.503000,(11 7 7 12 3 3 4 9)
1969/12/31/18:00:09.503000,(-6 3 3 -14 0 5 2 2)
1969/12/31/18:00:09.504000,(6 3 -6 -24 -15 -1 2 6)
1969/12/31/18:00:09.504000,(6 1 -3 -8 -5 -3 -4 -1)
1969/12/31/18:00:09.518000,(-14 -7 2 -1 -4 0 -1 -6)
1969/12/31/18:00:09.518000,(7 -1 -10 -29 -8 -1 3 5)
1969/12/31/18:00:09.520000,(1 -1 6 14 6 2 -2 0)
1969/12/31/18:00:09.520000,(-4 3 12 38 16 6 -1 -6)
1969/12/31/18:00:09.540000,(-44 -25 -7 5 3 -5 -8 -22)
1969/12/31/18:00:09.541000,(52 25 11 7 7 6 9 21)
1969/12/31/18:00:09.542000,(2 -2 -7 -30 -25 -13 -16 -18)
1969/12/31/18:00:09.542000,(-7 -13 -49 -87 -37 -13 -4 -4)
1969/12/31/18:00:09.554000,(8 5 16 59 16 8 9 10)
1969/12/31/18:00:09.554000,(-18 -2 36 87 42 7 -4 -8)
1969/12/31/18:00:09.563000,(-2 -1 10 31 15 4 2 1)
1969/12/31/18:00:09.563000,(4 -2 -6 -31 -10 -2 2 2)
1969/12/31/18:00:09.586000,(6 0 -22 -56 -29 -9 -4 -2)
1969/12/31/18:00:09.586000,(-13 -7 -10 -19 -12 -7 -3 -9)
1969/12/31/18:00:09.587000,(3 3 -8 -27 -6 4 5 5)
1969/12/31/18:00:09.587000,(-8 -4 10 37 11 0 -3 -6)
1969/12/31/18:00:09.601000,(-15 10 18 38 20 6 4 0)
1969/12/31/18:00:09.601000,(8 -6 0 3 2 7 9 10)
1969/12/31/18:00:09.602000,(44 20 -1 -23 -3 2 8 21)
1969/12/31/18:00:09.602000,(-8 -12 -17 -47 -32 -14 -15 -14)
1969/12/31/18:00:09.614000,(-4 1 -1 21 7 -1 2 3)
1969/12/31/18:00:09.614000,(6 4 5 16 16 4 0 2)
1969/12/31/18:00:09.623000,(-6 2 5 9 5 9 10 2)
1969/12/31/18:00:09.623000,(-9 -4 5 13 4 1 -3 -7)
1969/12/31/18:00:09.638000,(18 2 -11 -49 -23 -3 1 7)
1969/12/31/18:00:09.638000,(-21 -9 -4 17 1 -6 -8 -13)
1969/12/31/18:00:09.640000,(-8 -6 14 49 17 1 -1 -1)
1969/12/31/18:00:09.640000,(12 9 9 18 8 3 2 4)
1969/12/31/18:00:09.660000,(-1 4 -9 -28 -12 -6 -5 -6)
1969/12/31/18:00:09.660000,(-2 -9 -8 -26 -12 -3 3 6)
1969/12/31/18:00:09.662000,(-11 -5 2 10 -1 -4 -4 -6)
1969/12/31/18:00:09.662000,(-1 2 2 -5 7 5 3 3)
1969/12/31/18:00:09.674000,(0 -5 -13 -41 -12 -3 -3 0)
1969/12/31/18:00:09.674000,(-5 4 -1 4 -9 -2 0 -2)
1969/12/31/18:00:09.691000,(-2 1 6 20 6 -2 0 0)
1969/12/31/18:00:09.691000,(-14 -12 2 22 14 -2 -8 -8)
1969/12/31/18:00:09.698000,(-3 -2 4 18 7 1 1 2)
1969/12/31/18:00:09.698000,(0 8 4 -3 4 7 6 2)
1969/12/31/18:00:09.700000,(-17 -11 -12 -32 -18 -12 -14 -15)
1969/12/31/18:00:09.700000,(12 4 -5 -11 -6 -2 2 5)
1969/12/31/18:00:09.721000,(-7 -6 1 9 0 -5 -7 -9)
1969/12/31/18:00:09.721000,(-21 -11 -8 -39 -17 -2 -2 -6)
1969/12/31/18:00:09.722000,(12 6 -10 -25 -7 0 4 4)
1969/12/31/18:00:09.722000,(5 4 4 34 19 6 3 3)
1969/12/31/18:00:09.734000,(-4 -5 5 0 6 -1 -3 -6)
1969/12/31/18:00:09.734000,(9 7 3 29 -10 -3 2 7)
1969/12/31/18:00:09.743000,(-3 2 20 48 26 6 0 0)
1969/12/31/18:00:09.743000,(1 4 7 -2 8 6 3 3)
1969/12/31/18:00:09.758000,(2 -2 0 25 9 1 2 2)
1969/12/31/18:00:09.758000,(13 5 -5 -36 -9 -1 -2 1)
1969/12/31/18:00:09.759000,(-4 -7 -21 -63 -25 -6 -4 -3)
1969/12/31/18:00:09.759000,(-4 7 2 36 -1 -5 -2 -6)
1969/12/31/18:00:09.781000,(6 -6 8 24 11 6 4 8)
1969/12/31/18:00:09.781000,(-6 -3 -5 -17 -6 -7 -8 -12)
1969/12/31/18:00:09.782000,(-7 -7 -6 0 -10 -3 -1 -3)
1969/12/31/18:00:09.782000,(-24 -18 -9 -29 -3 -2 -2 -4)
1969/12/31/18:00:09.794000,(69 40 10 10 9 7 9 27)
1969/12/31/18:00:09.794000,(-5 1 10 18 14 6 2 -6)
1969/12/31/18:00:09.803000,(-13 -10 -5 12 -6 -7 -7 -9)
1969/12/31/18:00:09.803000,(-7 -6 -13 -67 -18 -6 -4 -5)
1969/12/31/18:00:09.818000,(-12 -8 -5 17 -7 -3 1 -1)
1969/12/31/18:00:09.818000,(10 6 7 19 12 6 6 9)
1969/12/31/18:00:09.832000,(6 6 7 8 8 2 3 1)
1969/12/31/18:00:09.832000,(3 1 0 -10 -5 1 3 4)
1969/12/31/18:00:09.841000,(-12 -8 -2 1 3 -3 -5 -8)
1969/12/31/18:00:09.841000,(1 2 -4 -5 -3 -3 -4 -2)
1969/12/31/18:00:09.842000,(-13 -11 -6 -6 -2 0 3 0)
1969/12/31/18:00:09.842000,(13 9 0 -6 -8 -2 0 -3)
1969/12/31/18:00:09.863000,(2 -4 -6 -23 -14 -2 -1 0)
1969/12/31/18:00:09.863000,(-14 -8 -4 10 5 0 -4 -8)
1969/12/31/18:00:09.865000,(-1 6 12 33 19 5 0 4)
1969/12/31/18:00:09.865000,(19 12 10 17 11 10 11 13)
1969/12/31/18:00:09.878000,(-12 -5 -1 -3 -3 0 0 -4)
1969/12/31/18:00:09.878000,(-3 -1 1 -9 -5 -5 -7 -2)
1969/12/31/18:00:09.880000,(17 7 -3 -5 -9 -3 -2 2)
1969/12/31/18:00:09.880000,(3 7 -1 -8 -2 2 5 10)
1969/12/31/18:00:09.901000,(4 -4 -7 -31 -5 -3 -4 -4)
1969/12/31/18:00:09.901000,(-9 -12 -4 28 -5 -9 -10 -9)
1969/12/31/18:00:09.902000,(-7 -3 2 -8 6 0 -1 -4)
1969/12/31/18:00:09.902000,(2 0 -2 28 1 -2 -1 -1)
1969/12/31/18:00:09.923000,(-3 4 13 33 13 5 4 4)
1969/12/31/18:00:09.923000,(-5 -3 1 -3 4 -2 2 1)
1969/12/31/18:00:09.925000,(11 1 -3 -6 -5 -2 -3 1)
1969/12/31/18:00:09.925000,(-9 -9 -8 -19 -8 -8 -13 -13)
1969/12/31/18:00:09.938000,(-63 -38 -13 -18 -9 -7 -8 -16)
1969/12/31/18:00:09.938000,(94 89 14 -8 4 23 34 59)
1969/12/31/18:00:09.940000,(-36 -28 -11 -4 -5 -8 -10 -12)
1969/12/31/18:00:09.940000,(1 5 5 12 8 0 1 4)
1969/12/31/18:00:09.968000,(-4 -3 1 7 -5 -6 -7 -10)
1969/12/31/18:00:09.968000,(-12 -15 -7 -20 -4 0 2 1)
1969/12/31/18:00:09.970000,(17 13 6 -1 -3 3 4 6)
1969/12/31/18:00:09.970000,(-4 -5 2 8 0 -1 -3 -3)
1969/12/31/18:00:09.974000,(21 16 3 0 6 10 6 10)
1969/12/31/18:00:09.975000,(-23 -22 -5 -7 -5 -9 -11 -18)
1969/12/31/18:00:09.983000,(8 9 1 -1 -4 3 6 7)
1969/12/31/18:00:09.983000,(-9 -11 0 9 0 0 -1 -1)
1969/12/31/18:00:10.006000,(10 7 -3 -2 3 2 3 8)
1969/12/31/18:00:10.006000,(-12 -4 2 -5 4 5 1 -6)
1969/12/31/18:00:10.007000,(-6 -4 1 5 -2 -2 -5 -12)
1969/12/31/18:00:10.007000,(-38 -16 -3 -14 -7 -5 -4 -9)
1969/12/31/18:00:10.020000,(40 22 -2 -6 -1 0 2 5)
1969/12/31/18:00:10.021000,(20 10 -5 0 1 -1 -5 7)
1969/12/31/18:00:10.022000,(50 42 34 15 16 24 34 39)
1969/12/31/18:00:10.022000,(-10 -9 -8 -6 1 3 0 -15)
1969/12/31/18:00:10.034000,(-19 -6 -1 1 -3 -7 -9 -11)
1969/12/31/18:00:10.034000,(-34 -20 -2 8 2 -4 -3 -12)
1969/12/31/18:00:10.043000,(9 -2 -14 -5 3 3 7 11)
1969/12/31/18:00:10.043000,(31 13 0 -1 -1 3 5 17)
1969/12/31/18:00:10.058000,(-10 3 6 0 -2 1 1 -5)
1969/12/31/18:00:10.058000,(-7 -11 0 2 -4 -8 -8 -9)
1969/12/31/18:00:10.059000,(-17 -10 -5 -12 -7 -7 -9 -10)
1969/12/31/18:00:10.059000,(-6 -3 -4 -23 -9 -6 -6 -9)
1969/12/31/18:00:10.081000,(-3 -6 -3 22 5 -2 -1 0)
1969/12/31/18:00:10.081000,(-14 -6 4 5 3 -1 -3 -4)
1969/12/31/18:00:10.082000,(10 13 -6 -8 -10 -6 -4 -4)
1969/12/31/18:00:10.082000,(-7 -21 -2 0 0 1 -3 -4)
1969/12/31/18:00:10.094000,(-26 -5 5 -9 -6 -3 -5 -11)
1969/12/31/18:00:10.094000,(8 -1 -8 -32 -8 2 6 6)
1969/12/31/18:00:10.111000,(-33 -26 -10 23 6 -4 -9 -18)
1969/12/31/18:00:10.111000,(39 26 4 -3 -7 -4 3 18)
1969/12/31/18:00:10.117000,(-16 -4 -1 -1 0 -1 0 -5)
1969/12/31/18:00:10.117000,(-5 -6 5 25 13 5 3 9)
1969/12/31/18:00:10.126000,(-9 -9 1 -10 -10 -9 -9 -6)
1969/12/31/18:00:10.126000,(23 13 -1 0 -3 -1 -1 7)
1969/12/31/18:00:10.148000,(-26 -25 -18 -34 -13 -14 -21 -27)
1969/12/31/18:00:10.148000,(20 19 14 41 13 14 17 10)
1969/12/31/18:00:10.150000,(-9 4 7 22 11 3 0 3)
1969/12/31/18:00:10.150000,(14 0 5 22 7 5 3 4)
1969/12/31/18:00:10.171000,(12 3 -6 -20 -7 5 15 22)
1969/12/31/18:00:10.171000,(-18 -15 -10 -23 -10 -10 -17 -27)
1969/12/31/18:00:10.172000,(-14 -4 3 -4 -10 -10 -12 -16)
1969/12/31/18:00:10.172000,(-14 -3 -9 -3 -1 6 13 8)
1969/12/31/18:00:10.193000,(12 7 2 15 11 3 1 6)
1969/12/31/18:00:10.193000,(16 2 0 -1 0 5 8 16)
1969/12/31/18:00:10.195000,(-18 -22 2 24 7 -1 -7 -13)
1969/12/31/18:00:10.195000,(34 27 3 -14 2 1 4 13)
1969/12/31/18:00:10.200000,(-10 -2 -1 -8 -1 6 5 -2)
1969/12/31/18:00:10.200000,(-37 -2 -6 0 -9 -19 -21 -24)
1969/12/31/18:00:10.202000,(64 34 14 -8 9 20 21 24)
1969/12/31/18:00:10.202000,(-35 -29 -8 -4 -8 -11 -13 -17)
1969/12/31/18:00:10.223000,(28 16 0 -6 0 12 26 39)
1969/12/31/18:00:10.223000,(-28 -20 0 16 8 -4 -13 -26)
1969/12/31/18:00:10.225000,(-26 -6 -4 -6 -3 2 7 4)
1969/12/31/18:00:10.225000,(1 -7 -2 2 -1 -7 -8 0)
1969/12/31/18:00:10.237000,(-2 -6 -3 11 -9 -12 -15 -15)
1969/12/31/18:00:10.237000,(-1 9 4 -34 -8 10 15 14)
1969/12/31/18:00:10.244000,(36 19 -1 16 10 3 1 0)
1969/12/31/18:00:10.244000,(-13 -5 4 24 8 6 6 0)
1969/12/31/18:00:10.260000,(-12 -10 -4 -8 -4 -8 -9 -10)
1969/12/31/18:00:10.260000,(13 -1 2 -1 2 2 0 -1)
1969/12/31/18:00:10.262000,(-28 -1 -4 -12 -10 -8 -11 -23)
1969/12/31/18:00:10.262000,(-26 -10 7 -2 3 2 2 -9)
1969/12/31/18:00:10.274000,(-4 -9 -6 -12 -2 0 5 11)
1969/12/31/18:00:10.274000,(-14 -25 -8 -2 -4 -11 -10 -13)
1969/12/31/18:00:10.283000,(28 17 3 -13 5 12 18 28)
1969/12/31/18:00:10.283000,(15 11 -6 9 -1 -5 -6 -5)
1969/12/31/18:00:10.297000,(-25 -19 -3 6 -4 -17 -28 -37)
1969/12/31/18:00:10.297000,(8 3 1 6 7 -1 3 14)
1969/12/31/18:00:10.304000,(-29 -29 -20 -15 -18 -23 -35 -40)
1969/12/31/18:00:10.304000,(-14 -3 -5 -22 -6 4 10 6)
1969/12/31/18:00:10.321000,(21 11 9 11 9 15 16 23)
1969/12/31/18:00:10.321000,(25 6 4 8 -4 -11 -13 -8)
1969/12/31/18:00:10.322000,(-58 -35 -14 -20 -14 -21 -22 -28)
1969/12/31/18:00:10.322000,(7 7 1 1 1 0 -2 -1)
1969/12/31/18:00:10.345000,(0 11 7 10 10 11 12 2)
1969/12/31/18:00:10.345000,(55 26 9 6 4 9 13 31)
1969/12/31/18:00:10.346000,(-4 6 -6 -8 -4 -5 -1 3)
1969/12/31/18:00:10.346000,(-16 -13 3 1 -7 -15 -21 -25)
1969/12/31/18:00:10.357000,(-1 -6 -3 2 1 3 4 4)
1969/12/31/18:00:10.357000,(39 21 -4 -9 -2 9 18 24)
1969/12/31/18:00:10.364000,(-12 2 8 6 7 11 5 -10)
1969/12/31/18:00:10.364000,(-8 8 8 7 2 0 3 12)
1969/12/31/18:00:10.389000,(-3 -1 1 -4 -10 -15 -20 -21)
1969/12/31/18:00:10.389000,(-12 -11 -16 -6 10 21 20 16)
1969/12/31/18:00:10.390000,(-15 -3 -2 4 -1 -3 -7 -9)
1969/12/31/18:00:10.390000,(53 18 16 6 9 14 22 41)
1969/12/31/18:00:10.403000,(-27 -12 -2 -4 -9 -14 -18 -25)
1969/12/31/18:00:10.403000,(-21 -14 2 -2 -8 -13 -15 -16)
1969/12/31/18:00:10.404000,(-3 1 -13 -1 6 9 15 22)
1969/12/31/18:00:10.405000,(64 35 14 8 6 6 0 5)
1969/12/31/18:00:10.417000,(-9 -11 -11 -5 6 5 0 -2)
1969/12/31/18:00:10.418000,(19 10 3 -1 -4 -6 -8 -10)
1969/12/31/18:00:10.424000,(-18 -18 -3 -23 -13 -4 -1 -3)
1969/12/31/18:00:10.424000,(-20 -13 -7 8 2 -8 -10 -11)
1969/12/31/18:00:10.440000,(4 18 13 9 4 1 2 0)
1969/12/31/18:00:10.440000,(-19 -7 -4 -2 -2 -2 -6 -11)
1969/12/31/18:00:10.442000,(-18 -1 5 0 4 7 10 1)
1969/12/31/18:00:10.442000,(19 11 0 1 2 5 10 24)
1969/12/31/18:00:10.463000,(46 20 1 0 1 6 7 16)
1969/12/31/18:00:10.463000,(-46 -23 -6 -6 -7 -11 -14 -23)
1969/12/31/18:00:10.465000,(24 5 -1 -2 -1 -2 0 15)
1969/12/31/18:00:10.465000,(-13 7 9 7 5 10 13 -6)
1969/12/31/18:00:10.477000,(-30 -20 -5 -2 -3 -14 -22 -21)
1969/12/31/18:00:10.477000,(14 15 4 -5 -3 2 6 14)
1969/12/31/18:00:10.486000,(12 -6 2 -1 -4 -7 -4 3)
1969/12/31/18:00:10.486000,(-21 -14 -5 -4 2 2 -2 -15)
1969/12/31/18:00:10.501000,(43 21 13 9 12 18 26 41)
1969/12/31/18:00:10.501000,(-51 -31 -10 -1 -5 -11 -23 -42)
1969/12/31/18:00:10.502000,(39 16 3 1 0 1 2 10)
1969/12/31/18:00:10.502000,(-16 -9 -10 -14 -6 -6 -6 -4)
1969/12/31/18:00:10.523000,(7 10 3 2 -1 2 9 11)
1969/12/31/18:00:10.523000,(9 0 4 2 3 0 2 18)
1969/12/31/18:00:10.525000,(49 19 7 9 16 20 31 40)
1969/12/31/18:00:10.525000,(-38 -24 -10 -10 -12 -16 -21 -33)
1969/12/31/18:00:10.536000,(-3 -4 -4 -5 -5 -4 -3 -2)
1969/12/31/18:00:10.536000,(-1 3 0 1 5 11 19 15)
1969/12/31/18:00:10.546000,(-4 8 5 4 -4 -8 -12 -9)
1969/12/31/18:00:10.546000,(-1 -13 -4 1 -5 -10 -3 1)
1969/12/31/18:00:10.560000,(-18 -6 -2 2 15 19 24 15)
1969/12/31/18:00:10.560000,(19 13 -1 -2 -4 -5 5 11)
1969/12/31/18:00:10.562000,(-31 -31 -9 -2 -14 -26 -31 -35)
1969/12/31/18:00:10.562000,(-29 -3 8 14 10 10 12 -3)
1969/12/31/18:00:10.583000,(12 -9 -14 -3 -7 -15 -21 -16)
1969/12/31/18:00:10.583000,(1 7 4 -1 1 3 7 18)
1969/12/31/18:00:10.585000,(-6 -11 -3 7 3 0 -5 -3)
1969/12/31/18:00:10.585000,(3 3 -3 -8 -7 -5 -5 3)
1969/12/31/18:00:10.597000,(-16 -5 3 2 0 4 1 -19)
1969/12/31/18:00:10.597000,(19 3 2 3 -4 -6 -8 -9)
1969/12/31/18:00:10.606000,(-1 2 1 -3 4 7 6 9)
1969/12/31/18:00:10.606000,(7 10 1 0 6 11 16 20)
1969/12/31/18:00:10.620000,(12 4 2 -3 -5 -4 -4 3)
1969/12/31/18:00:10.620000,(-8 -1 0 -2 -1 -2 -7 -12)
1969/12/31/18:00:10.622000,(-19 -4 4 -1 3 8 8 -4)
1969/12/31/18:00:10.622000,(62 20 -10 -3 10 19 24 41)
1969/12/31/18:00:10.643000,(-29 -21 -11 -6 -12 -17 -30 -43)
1969/12/31/18:00:10.643000,(-11 0 4 0 3 4 5 5)
1969/12/31/18:00:10.645000,(-27 -28 -22 -11 -18 -28 -27 -29)
1969/12/31/18:00:10.645000,(-79 -24 -6 -13 -16 -20 -30 -58)
1969/12/31/18:00:10.665000,(18 6 14 9 10 1 3 12)
1969/12/31/18:00:10.666000,(-17 -4 -8 -4 -9 -13 -18 -23)
1969/12/31/18:00:10.672000,(-3 5 6 5 10 17 12 5)
1969/12/31/18:00:10.672000,(-45 -35 -8 2 -10 -15 -28 -36)
1969/12/31/18:00:10.681000,(34 31 14 -7 2 13 21 31)
1969/12/31/18:00:10.681000,(-19 -16 -12 -4 2 8 4 -10)
1969/12/31/18:00:10.682000,(27 17 3 0 3 0 9 23)
1969/12/31/18:00:10.682000,(-1 -5 0 4 -3 -7 -8 -8)
1969/12/31/18:00:10.703000,(-34 -20 -2 0 -13 -20 -15 -21)
1969/12/31/18:00:10.703000,(50 17 -2 8 24 28 36 44)
1969/12/31/18:00:10.705000,(-60 -49 -12 5 -3 -5 -5 -21)
1969/12/31/18:00:10.705000,(94 79 15 -1 13 20 35 63)
1969/12/31/18:00:10.716000,(11 0 -9 -11 -30 -43 -54 -48)
1969/12/31/18:00:10.717000,(-11 3 2 14 15 16 19 9)
1969/12/31/18:00:10.726000,(38 12 2 -3 -1 -1 5 26)
1969/12/31/18:00:10.726000,(-60 -40 -10 -13 -6 -6 -13 -35)
1969/12/31/18:00:10.741000,(18 21 5 -2 4 11 8 11)
1969/12/31/18:00:10.741000,(-6 -7 -2 -9 -18 -21 -25 -25)
1969/12/31/18:00:10.743000,(20 29 12 2 2 8 6 8)
1969/12/31/18:00:10.743000,(-7 -10 -2 -1 0 1 0 1)
1969/12/31/18:00:10.763000,(17 13 0 0 12 23 24 30)
1969/12/31/18:00:10.763000,(8 -2 -1 -2 4 5 4 8)
1969/12/31/18:00:10.765000,(-13 -13 -5 -3 -3 -8 -8 -15)
1969/12/31/18:00:10.765000,(0 -2 4 1 -12 -19 -12 -10)
1969/12/31/18:00:10.777000,(8 0 -8 5 17 20 34 29)
1969/12/31/18:00:10.777000,(2 2 4 5 -9 -12 -8 -9)
1969/12/31/18:00:10.786000,(2 6 4 4 -5 -8 -2 1)
1969/12/31/18:00:10.786000,(14 -1 -12 -14 -4 -1 -1 4)
1969/12/31/18:00:10.800000,(-16 0 7 12 6 4 8 1)
1969/12/31/18:00:10.800000,(14 1 1 7 -3 -4 -4 0)
1969/12/31/18:00:10.808000,(72 54 11 12 10 9 9 25)
1969/12/31/18:00:10.808000,(-22 -17 -3 4 0 -3 -12 -21)
1969/12/31/18:00:10.823000,(1 -6 -8 -9 -2 3 5 11)
1969/12/31/18:00:10.823000,(22 19 5 -41 -18 -5 5 19)
1969/12/31/18:00:10.824000,(-3 -15 -15 -1 7 14 13 8)
1969/12/31/18:00:10.824000,(-7 1 17 25 0 -4 -5 -7)
1969/12/31/18:00:10.837000,(23 11 5 23 21 18 19 25)
1969/12/31/18:00:10.837000,(7 11 5 13 -3 -12 -16 -21)
1969/12/31/18:00:10.846000,(3 0 -7 -18 -1 4 2 4)
1969/12/31/18:00:10.846000,(10 4 -5 -7 6 10 8 17)
1969/12/31/18:00:10.861000,(34 14 -10 -12 -17 -11 -10 -4)
1969/12/31/18:00:10.861000,(-41 -19 -6 -11 -8 -9 -14 -24)
1969/12/31/18:00:10.862000,(-35 -25 -9 -6 -14 -18 -22 -33)
1969/12/31/18:00:10.862000,(-10 -9 1 6 10 11 10 4)
1969/12/31/18:00:10.883000,(-7 -5 -4 -3 -6 -6 -5 -3)
1969/12/31/18:00:10.883000,(-4 -7 -3 0 -3 -5 -4 -1)
1969/12/31/18:00:10.885000,(6 12 4 3 0 -1 -2 -4)
1969/12/31/18:00:10.885000,(-18 -7 2 -2 -6 -8 -7 -11)
1969/12/31/18:00:10.897000,(19 15 6 8 15 22 30 30)
1969/12/31/18:00:10.897000,(-32 -52 -9 7 -2 -10 -19 -2)
1969/12/31/18:00:10.905000,(46 44 7 1 -1 3 11 9)
1969/12/31/18:00:10.905000,(-27 -9 -2 -8 -6 -7 -17 -29)
1969/12/31/18:00:10.921000,(-29 -17 -5 -1 -1 -6 -11 -15)
1969/12/31/18:00:10.921000,(16 16 3 1 13 21 21 14)
1969/12/31/18:00:10.922000,(45 19 2 1 0 4 13 29)
1969/12/31/18:00:10.922000,(2 -3 -5 -4 -7 -8 -10 -2)
1969/12/31/18:00:10.943000,(51 27 8 1 -4 -4 3 12)
1969/12/31/18:00:10.943000,(-48 -28 -18 -1 -7 -19 -25 -26)
1969/12/31/18:00:10.944000,(-5 6 9 3 11 15 13 10)
1969/12/31/18:00:10.944000,(54 23 7 3 7 10 17 31)
1969/12/31/18:00:10.957000,(-51 -33 -12 -22 -19 -15 -17 -29)
1969/12/31/18:00:10.957000,(12 9 3 1 -4 -3 3 5)
1969/12/31/18:00:10.966000,(34 31 9 24 20 17 23 31)
1969/12/31/18:00:10.966000,(-19 -5 2 13 4 2 -2 -14)
1969/12/31/18:00:10.981000,(-41 -27 -7 3 -10 -20 -27 -33)
1969/12/31/18:00:10.981000,(13 10 3 -9 -1 4 9 9)
1969/12/31/18:00:10.983000,(-63 -42 -15 -17 -20 -23 -31 -44)
1969/12/31/18:00:10.983000,(29 20 -2 0 11 15 29 34)
1969/12/31/18:00:11.003000,(10 1 0 -4 0 3 6 18)
1969/12/31/18:00:11.003000,(-55 -16 4 -1 -3 -2 -12 -42)
1969/12/31/18:00:11.005000,(-48 -42 -11 4 2 6 10 7)
1969/12/31/18:00:11.005000,(26 23 6 3 4 2 0 5)
1969/12/31/18:00:11.017000,(-31 -20 -6 -11 -12 -13 -22 -24)
1969/12/31/18:00:11.017000,(7 -1 -6 -6 -1 6 12 15)
1969/12/31/18:00:11.026000,(-3 -5 5 9 -3 -8 -13 -13)
1969/12/31/18:00:11.026000,(45 33 2 -11 -4 6 23 36)
1969/12/31/18:00:11.040000,(-1 15 12 16 9 -3 -4 -3)
1969/12/31/18:00:11.040000,(7 3 2 17 5 0 -2 -1)
1969/12/31/18:00:11.042000,(23 15 5 -1 8 10 13 15)
1969/12/31/18:00:11.042000,(-40 -37 -16 -18 -13 -13 -18 -28)
1969/12/31/18:00:11.063000,(98 69 12 -2 2 11 26 65)
1969/12/31/18:00:11.063000,(-13 9 1 1 6 6 6 -6)
1969/12/31/18:00:11.065000,(-26 -17 1 -9 -11 -12 -16 -22)
1969/12/31/18:00:11.065000,(-22 -22 -9 4 -3 -7 -14 -14)
1969/12/31/18:00:11.077000,(-29 -17 3 -6 -6 0 1 -7)
1969/12/31/18:00:11.077000,(8 12 5 10 4 -1 -1 -3)
1969/12/31/18:00:11.086000,(79 56 6 0 9 16 27 52)
1969/12/31/18:00:11.086000,(-21 6 -1 7 0 -7 -10 -18)
1969/12/31/18:00:11.100000,(-25 -19 -10 -14 -11 -13 -22 -33)
1969/12/31/18:00:11.100000,(-9 -10 -8 -5 4 -1 -4 -9)
1969/12/31/18:00:11.107000,(34 10 3 5 -5 5 11 26)
1969/12/31/18:00:11.107000,(-6 -3 -16 -47 -25 -18 -21 -13)
1969/12/31/18:00:11.123000,(-17 -10 0 20 9 8 6 0)
1969/12/31/18:00:11.123000,(22 10 2 -13 -15 -3 4 13)
1969/12/31/18:00:11.125000,(-43 -22 7 48 33 -2 -14 -31)
1969/12/31/18:00:11.125000,(1 -1 10 30 6 5 3 4)
1969/12/31/18:00:11.136000,(-1 -3 -3 -21 -7 3 5 0)
1969/12/31/18:00:11.137000,(13 -1 -3 1 9 12 13 18)
1969/12/31/18:00:11.145000,(-29 -16 -1 -10 -15 -11 -15 -24)
1969/12/31/18:00:11.145000,(15 6 -1 1 7 8 10 12)
1969/12/31/18:00:11.160000,(-6 -6 -4 2 9 8 6 3)
1969/12/31/18:00:11.160000,(-16 -18 -8 -5 -14 -12 -13 -19)
1969/12/31/18:00:11.166000,(20 27 0 -17 -4 3 4 5)
1969/12/31/18:00:11.166000,(-59 -38 -10 2 1 -6 -9 -21)
1969/12/31/18:00:11.191000,(-35 -9 3 -4 -3 -7 -22 -46)
1969/12/31/18:00:11.191000,(-8 -7 -6 1 -1 -1 -3 -2)
1969/12/31/18:00:11.192000,(-17 -15 -8 -10 -9 -10 -13 -12)
1969/12/31/18:00:11.192000,(-16 -15 -2 -6 -6 -5 -6 -12)
1969/12/31/18:00:11.197000,(-16 -13 0 13 5 10 13 2)
1969/12/31/18:00:11.197000,(52 30 5 9 11 3 13 40)
1969/12/31/18:00:11.206000,(-20 -15 -3 -17 -7 -6 -9 -21)
1969/12/31/18:00:11.206000,(28 12 -14 -43 -6 0 9 17)
1969/12/31/18:00:11.220000,(2 1 6 13 -16 -3 1 7)
1969/12/31/18:00:11.220000,(-8 -14 17 41 20 3 -1 -2)
1969/12/31/18:00:11.222000,(4 11 15 34 31 27 29 30)
1969/12/31/18:00:11.222000,(36 22 13 9 8 3 0 -4)
1969/12/31/18:00:11.243000,(4 -3 -16 -29 -5 0 5 7)
1969/12/31/18:00:11.243000,(-20 -11 -10 -28 -19 -10 -11 -16)
1969/12/31/18:00:11.245000,(-18 -19 -10 -13 -14 -8 -6 -7)
1969/12/31/18:00:11.245000,(-8 -7 -3 9 -5 -8 -9 -9)
1969/12/31/18:00:11.257000,(9 -2 3 3 17 22 27 29)
1969/12/31/18:00:11.257000,(9 21 9 5 -2 1 -3 -5)
1969/12/31/18:00:11.266000,(-23 -18 -8 -11 -8 -11 -13 -23)
1969/12/31/18:00:11.266000,(15 12 5 6 1 1 3 11)
1969/12/31/18:00:11.288000,(-9 -7 -4 -1 -6 -12 -12 -11)
1969/12/31/18:00:11.288000,(-8 -5 -4 -13 1 -2 -2 -1)
1969/12/31/18:00:11.296000,(2 -1 -7 -1 -1 1 0 0)
1969/12/31/18:00:11.296000,(-11 -9 1 5 0 2 1 -1)
1969/12/31/18:00:11.303000,(16 8 2 17 16 -1 -4 3)
1969/12/31/18:00:11.303000,(-37 -16 -2 -1 -15 -1 -5 -26)
1969/12/31/18:00:11.304000,(10 9 3 -8 -1 -2 1 7)
1969/12/31/18:00:11.304000,(2 0 1 2 -3 -1 3 4)
1969/12/31/18:00:11.326000,(-4 -2 -4 0 5 -1 -1 -4)
1969/12/31/18:00:11.326000,(-32 -16 -10 -11 -4 -1 -1 -2)
1969/12/31/18:00:11.327000,(-51 -38 -14 -16 -20 -17 -22 -39)
1969/12/31/18:00:11.327000,(2 -4 -1 4 2 -1 4 18)
1969/12/31/18:00:11.340000,(-9 -10 -3 2 5 4 7 -3)
1969/12/31/18:00:11.340000,(78 73 8 0 7 13 27 61)
1969/12/31/18:00:11.346000,(-1 -1 2 0 -5 -4 -1 3)
1969/12/31/18:00:11.347000,(-20 -13 7 8 11 12 13 4)
1969/12/31/18:00:11.363000,(-12 -6 0 -1 -7 -2 -6 -11)
1969/12/31/18:00:11.363000,(20 0 -1 3 4 3 5 11)
1969/12/31/18:00:11.365000,(6 7 -2 -11 -8 -2 -2 1)
1969/12/31/18:00:11.365000,(-5 -1 1 9 5 0 -4 -11)
1969/12/31/18:00:11.393000,(17 20 8 -3 -4 -2 3 16)
1969/12/31/18:00:11.393000,(-12 -16 -16 -27 -3 -8 -7 -15)
1969/12/31/18:00:11.395000,(12 12 19 60 8 5 -1 6)
1969/12/31/18:00:11.395000,(-43 -34 3 21 4 -9 -18 -27)
1969/12/31/18:00:11.399000,(23 35 25 28 30 30 36 36)
1969/12/31/18:00:11.399000,(-43 -35 -15 -23 -11 -15 -16 -17)
1969/12/31/18:00:11.408000,(-36 -21 -21 -41 -15 -14 -25 -42)
1969/12/31/18:00:11.408000,(1 15 -8 -11 -12 -6 -4 -5)
1969/12/31/18:00:11.423000,(15 -1 -4 -13 -8 -2 -2 7)
1969/12/31/18:00:11.423000,(7 -2 1 -1 -7 -15 -15 -9)
1969/12/31/18:00:11.425000,(6 -4 -1 -5 4 9 17 19)
1969/12/31/18:00:11.425000,(31 26 6 7 5 11 12 23)
1969/12/31/18:00:11.445000,(-31 -27 -14 -13 -13 -20 -30 -37)
1969/12/31/18:00:11.446000,(0 -1 3 14 10 13 10 0)
1969/12/31/18:00:11.447000,(0 0 0 -5 -6 -4 -5 1)
1969/12/31/18:00:11.447000,(17 12 4 -6 1 1 3 5)
1969/12/31/18:00:11.459000,(17 5 -10 -3 -9 -12 -16 -13)
1969/12/31/18:00:11.459000,(-13 -9 8 11 6 11 14 12)
1969/12/31/18:00:11.468000,(20 16 -4 -7 4 -1 -3 -3)
1969/12/31/18:00:11.468000,(51 22 -3 0 -6 -11 -7 11)
1969/12/31/18:00:11.483000,(-57 -32 1 -4 -4 -1 -4 -19)
1969/12/31/18:00:11.483000,(-15 6 1 14 13 1 -2 -13)
1969/12/31/18:00:11.485000,(17 -6 3 1 0 2 3 1)
1969/12/31/18:00:11.485000,(-19 -19 -2 -1 -6 4 4 -1)
1969/12/31/18:00:11.505000,(11 7 -5 -20 5 5 8 11)
1969/12/31/18:00:11.505000,(-26 -40 -7 3 -16 -10 -14 -19)
1969/12/31/18:00:11.507000,(55 73 22 14 21 21 28 32)
1969/12/31/18:00:11.507000,(-19 -9 5 12 1 -7 -14 -20)
1969/12/31/18:00:11.520000,(20 15 5 3 4 3 10 16)
1969/12/31/18:00:11.520000,(34 15 1 -9 9 16 26 33)
1969/12/31/18:00:11.527000,(-31 -25 -8 -11 -10 -10 -9 -4)
1969/12/31/18:00:11.527000,(38 22 6 9 13 20 24 22)
1969/12/31/18:00:11.544000,(2 9 -8 -3 -6 -6 -6 -6)
1969/12/31/18:00:11.544000,(-10 -4 -1 1 -5 -7 -10 -9)
1969/12/31/18:00:11.545000,(-50 -34 -5 3 -6 -10 -15 -24)
1969/12/31/18:00:11.545000,(-21 -11 0 -9 0 1 0 2)
1969/12/31/18:00:11.565000,(-5 -6 0 3 2 0 2 -4)
1969/12/31/18:00:11.565000,(41 20 2 8 4 2 3 6)
1969/12/31/18:00:11.567000,(-2 -7 1 -5 -3 -3 3 13)
1969/12/31/18:00:11.567000,(-32 -16 -5 -13 -7 -5 -7 -18)
1969/12/31/18:00:11.596000,(6 -2 -3 -2 -12 -5 -4 1)
1969/12/31/18:00:11.596000,(-7 -1 -3 -11 -13 -11 -11 -5)
1969/12/31/18:00:11.597000,(14 7 1 8 13 12 11 9)
1969/12/31/18:00:11.597000,(8 6 1 5 5 0 -1 4)
1969/12/31/18:00:11.603000,(-12 -5 3 19 6 -3 -6 -9)
1969/12/31/18:00:11.603000,(20 21 7 -11 -2 5 4 5)
1969/12/31/18:00:11.605000,(-2 -5 -11 -14 -2 4 3 5)
1969/12/31/18:00:11.605000,(2 6 8 17 -8 -6 -4 -3)
1969/12/31/18:00:11.625000,(-5 -3 6 16 -4 -7 -4 -1)
1969/12/31/18:00:11.625000,(-16 -10 -3 -4 -5 -10 -9 -13)
1969/12/31/18:00:11.627000,(3 -5 -8 -15 -1 -1 -1 0)
1969/12/31/18:00:11.627000,(-8 -6 -5 -17 -4 -3 -3 -3)
1969/12/31/18:00:11.639000,(15 13 5 0 3 10 11 15)
1969/12/31/18:00:11.639000,(11 5 -3 4 4 6 6 7)
1969/12/31/18:00:11.654000,(-11 -8 -4 -3 -8 -10 -12 -14)
1969/12/31/18:00:11.654000,(15 13 -1 -7 0 2 9 10)
1969/12/31/18:00:11.663000,(-10 -11 -5 -4 -2 -5 -4 -4)
1969/12/31/18:00:11.663000,(3 6 6 2 2 -1 -1 -2)
1969/12/31/18:00:11.664000,(-5 -6 -3 -3 -2 -5 -3 -3)
1969/12/31/18:00:11.664000,(1 1 2 12 7 7 7 6)
1969/12/31/18:00:11.686000,(1 0 0 -8 -3 -3 -2 -1)
1969/12/31/18:00:11.686000,(-3 0 1 7 1 -2 -2 -1)
1969/12/31/18:00:11.687000,(0 0 -3 -2 -3 -3 -3 -2)
1969/12/31/18:00:11.687000,(13 5 -9 -25 -7 2 8 12)
1969/12/31/18:00:11.699000,(-3 -4 1 15 3 2 -2 -2)
1969/12/31/18:00:11.699000,(0 2 -2 -11 -5 -1 0 -1)
1969/12/31/18:00:11.708000,(-3 -1 5 12 5 -1 -3 -2)
1969/12/31/18:00:11.708000,(-10 -7 -1 13 4 -2 -4 -10)
1969/12/31/18:00:11.723000,(4 2 -6 -14 -6 0 1 3)
1969/12/31/18:00:11.723000,(-3 -3 -1 -10 -15 -3 -5 -4)
1969/12/31/18:00:11.725000,(-3 -4 2 3 -1 0 -1 -3)
1969/12/31/18:00:11.725000,(5 6 0 -8 3 2 3 6)
1969/12/31/18:00:11.746000,(-4 -3 -4 15 5 -2 0 -3)
1969/12/31/18:00:11.746000,(-4 -3 5 15 5 -3 -4 -5)
1969/12/31/18:00:11.747000,(2 1 -7 -19 -11 -4 -1 0)
1969/12/31/18:00:11.747000,(-9 -6 0 -7 -8 -4 -7 -11)
1969/12/31/18:00:11.759000,(-1 0 1 1 -1 -1 -1 -1)
1969/12/31/18:00:11.759000,(4 2 -2 11 9 6 7 7)
1969/12/31/18:00:11.776000,(8 6 4 -7 0 4 5 6)
1969/12/31/18:00:11.776000,(-5 -1 -4 5 -1 -3 -2 -3)
1969/12/31/18:00:11.783000,(-4 -3 -5 -17 -10 -8 -6 -5)
1969/12/31/18:00:11.783000,(-2 0 4 18 11 1 -2 -2)
1969/12/31/18:00:11.785000,(-1 0 7 16 4 3 0 -1)
1969/12/31/18:00:11.785000,(-3 -5 -9 -36 -9 0 0 -1)
1969/12/31/18:00:11.805000,(3 0 -1 2 0 2 4 2)
1969/12/31/18:00:11.805000,(3 0 -1 4 -8 -2 1 2)
1969/12/31/18:00:11.807000,(-3 -3 -4 -6 -2 -1 -1 -2)
1969/12/31/18:00:11.807000,(5 2 -1 -4 3 7 7 7)
1969/12/31/18:00:11.819000,(-12 -9 2 8 0 -6 -8 -10)
1969/12/31/18:00:11.819000,(-5 1 5 21 4 -5 -4 -4)
1969/12/31/18:00:11.828000,(-2 -4 -5 -18 -5 -2 0 -2)
1969/12/31/18:00:11.828000,(-2 -3 -4 2 -1 -4 1 1)
1969/12/31/18:00:11.842000,(1 4 4 1 4 4 3 1)
1969/12/31/18:00:11.842000,(2 -3 -10 -19 -6 -1 1 1)
1969/12/31/18:00:11.851000,(-2 2 2 9 -2 -4 -5 -2)
1969/12/31/18:00:11.851000,(-3 -1 -4 -2 -4 -3 -6 -5)
1969/12/31/18:00:11.865000,(-3 -2 1 3 0 -5 -4 -4)
1969/12/31/18:00:11.866000,(1 3 -5 0 2 0 -1 -2)
1969/12/31/18:00:11.867000,(-1 -5 -16 -53 -11 -2 -2 0)
1969/12/31/18:00:11.867000,(1 2 8 30 -1 6 3 2)
1969/12/31/18:00:11.888000,(8 9 17 38 15 9 4 9)
1969/12/31/18:00:11.888000,(-9 -1 5 -4 3 0 -6 -8)
1969/12/31/18:00:11.890000,(-3 -1 -4 -7 8 2 2 0)
1969/12/31/18:00:11.890000,(6 6 -8 13 3 1 4 7)
1969/12/31/18:00:11.910000,(-7 -15 -8 -12 -9 -8 -5 -4)
1969/12/31/18:00:11.910000,(-3 -1 5 2 -2 -3 -2 -1)
1969/12/31/18:00:11.912000,(2 1 -4 15 1 -1 -2 -1)
1969/12/31/18:00:11.912000,(-1 -7 -12 13 16 0 -3 -3)
1969/12/31/18:00:11.926000,(-4 5 6 1 -6 -1 -3 -3)
1969/12/31/18:00:11.926000,(4 3 -6 -20 -4 1 2 4)
1969/12/31/18:00:11.927000,(4 7 13 -2 -2 5 2 2)
1969/12/31/18:00:11.927000,(1 1 2 -17 -8 1 1 1)
1969/12/31/18:00:11.939000,(0 -4 -17 -74 -33 -10 -3 1)
1969/12/31/18:00:11.939000,(-5 -9 -17 -3 -11 -3 0 -3)
1969/12/31/18:00:11.948000,(5 13 47 114 45 13 4 3)
1969/12/31/18:00:11.948000,(-3 3 14 54 36 5 -3 -4)
1969/12/31/18:00:11.964000,(-6 -8 -10 -11 11 -4 -5 -6)
1969/12/31/18:00:11.964000,(-2 -1 -2 -40 -14 -3 0 -2)
1969/12/31/18:00:11.969000,(2 -2 -14 -29 -25 -10 1 2)
1969/12/31/18:00:11.969000,(-3 -2 3 -16 -8 -3 -1 -3)
1969/12/31/18:00:11.985000,(2 1 -2 -66 -14 -3 3 2)
1969/12/31/18:00:11.986000,(4 -3 -20 36 0 -2 1 4)
1969/12/31/18:00:11.987000,(-6 -4 27 88 36 3 -3 -4)
1969/12/31/18:00:11.987000,(0 2 -1 -6 -5 0 -3 -2)
1969/12/31/18:00:11.999000,(-2 1 -12 -31 -8 3 0 -2)
1969/12/31/18:00:11.999000,(2 2 9 11 1 2 -1 1)
1969/12/31/18:00:12.008000,(3 1 -17 -57 -17 -3 3 4)
1969/12/31/18:00:12.008000,(-2 -1 -13 -82 -37 -6 -1 0)
1969/12/31/18:00:12.022000,(6 3 4 43 25 10 2 2)
1969/12/31/18:00:12.022000,(4 11 46 99 69 18 4 2)
1969/12/31/18:00:12.029000,(-3 -5 -6 -23 -15 -5 -5 -5)
1969/12/31/18:00:12.029000,(-4 -5 -3 -23 -24 -10 -3 -3)
1969/12/31/18:00:12.053000,(0 -5 -29 -54 -26 -5 1 1)
1969/12/31/18:00:12.053000,(2 5 7 -27 -14 3 2 1)
1969/12/31/18:00:12.055000,(5 4 -5 25 20 4 2 4)
1969/12/31/18:00:12.055000,(-14 -8 -5 -16 -9 -9 -7 -9)
1969/12/31/18:00:12.059000,(0 2 15 43 10 0 0 -1)
1969/12/31/18:00:12.059000,(-6 -4 -10 -53 -17 -1 -1 -4)
1969/12/31/18:00:12.068000,(5 5 -5 -12 -4 2 1 4)
1969/12/31/18:00:12.068000,(-3 -7 6 14 2 -4 -4 -3)
1969/12/31/18:00:12.083000,(0 8 19 37 28 9 2 0)
1969/12/31/18:00:12.083000,(4 1 -7 -22 -17 -5 -1 1)
1969/12/31/18:00:12.089000,(-5 -2 -15 -47 -25 -2 0 -3)
1969/12/31/18:00:12.089000,(8 5 12 -19 12 11 7 7)
1969/12/31/18:00:12.113000,(-2 3 16 83 25 -6 -6 -3)
1969/12/31/18:00:12.113000,(-7 -11 -15 -71 -1 -5 -2 -4)
1969/12/31/18:00:12.115000,(-6 -9 3 37 5 -5 -4 -5)
1969/12/31/18:00:12.115000,(-4 -4 -3 27 7 -4 -2 -4)
1969/12/31/18:00:12.119000,(0 -1 -6 -11 -13 2 3 1)
1969/12/31/18:00:12.119000,(3 1 -7 -10 -5 -4 -1 0)
1969/12/31/18:00:12.128000,(1 0 -4 -33 -13 -3 0 1)
1969/12/31/18:00:12.128000,(-2 -3 1 12 2 -1 -3 -3)
1969/12/31/18:00:12.142000,(-4 -3 -3 -23 -10 -3 -1 -1)
1969/12/31/18:00:12.142000,(-1 -1 -2 12 -2 3 2 2)
1969/12/31/18:00:12.149000,(2 4 3 -6 -6 -1 0 3)
1969/12/31/18:00:12.149000,(-1 -5 -15 9 3 0 -2 -2)
1969/12/31/18:00:12.165000,(-3 -5 3 0 -14 -2 -2 -3)
1969/12/31/18:00:12.165000,(0 9 46 79 48 12 3 2)
1969/12/31/18:00:12.172000,(-10 -7 -11 -16 -21 -16 -7 -9)
1969/12/31/18:00:12.172000,(-1 -4 -9 -55 -20 -5 -1 1)
1969/12/31/18:00:12.188000,(-2 -1 -11 22 12 -1 0 -3)
1969/12/31/18:00:12.188000,(0 -10 -17 -4 -3 7 6 0)
1969/12/31/18:00:12.190000,(2 7 16 35 16 -4 -4 0)
1969/12/31/18:00:12.190000,(-5 -4 -7 -9 -8 -7 -5 -2)
1969/12/31/18:00:12.202000,(1 0 -5 -31 -12 0 2 2)
1969/12/31/18:00:12.202000,(4 5 -1 1 -6 -3 0 5)
1969/12/31/18:00:12.209000,(-2 -3 -10 -10 -2 2 0 0)
1969/12/31/18:00:12.209000,(-4 -1 2 2 2 2 0 -2)
1969/12/31/18:00:12.226000,(2 4 2 -1 -2 0 1 2)
1969/12/31/18:00:12.226000,(-2 -10 -32 -27 -27 -12 -6 -2)
1969/12/31/18:00:12.228000,(8 11 39 50 29 15 10 7)
1969/12/31/18:00:12.228000,(-8 -1 13 14 5 -6 -5 -6)
1969/12/31/18:00:12.239000,(-1 -2 2 -4 4 1 -1 -3)
1969/12/31/18:00:12.239000,(0 -1 -12 -19 -15 -7 -3 -3)
1969/12/31/18:00:12.248000,(2 -6 -20 -28 -12 0 1 -1)
1969/12/31/18:00:12.248000,(6 2 7 23 6 2 2 2)
1969/12/31/18:00:12.262000,(1 -1 1 -1 -1 4 4 3)
1969/12/31/18:00:12.262000,(-1 0 0 -8 -2 -3 -2 -1)
1969/12/31/18:00:12.270000,(-3 -5 -7 10 3 0 -2 -4)
1969/12/31/18:00:12.270000,(2 4 8 22 9 1 1 1)
1969/12/31/18:00:12.285000,(-3 -2 -7 -19 -13 -5 -4 -1)
1969/12/31/18:00:12.285000,(0 3 9 13 7 3 0 -1)
1969/12/31/18:00:12.286000,(-4 -2 -1 -7 -5 -2 -2 -3)
1969/12/31/18:00:12.286000,(1 -2 -11 -20 -8 1 1 3)
1969/12/31/18:00:12.286000,(1 -1 -1 0 2 0 0 1)
1969/12/31/18:00:12.286000,(1 0 1 1 1 -1 -1 0)
1969/12/31/18:00:12.287000,(0 -1 -1 1 -1 1 0 1)
1969/12/31/18:00:12.287000,(2 -1 -3 -1 -4 -6 -2 0)
1969/12/31/18:00:12.308000,(-4 -4 0 -1 -2 -2 -1 -3)
1969/12/31/18:00:12.308000,(0 -1 -1 0 1 -1 0 -3)
1969/12/31/18:00:12.315000,(0 0 -1 -4 0 0 -1 -1)
1969/12/31/18:00:12.315000,(0 0 1 -1 -1 1 0 -1)
1969/12/31/18:00:12.323000,(0 0 -1 -1 0 0 1 0)
1969/12/31/18:00:12.323000,(-2 0 -1 0 -1 -1 0 -2)
1969/12/31/18:00:12.330000,(2 3 1 0 2 1 3 2)
1969/12/31/18:00:12.330000,(-1 0 0 1 1 0 -2 0)
1969/12/31/18:00:12.347000,(0 0 0 -1 -1 -1 -2 -2)
1969/12/31/18:00:12.347000,(-1 0 0 1 0 2 0 -1)
1969/12/31/18:00:12.348000,(2 0 0 3 -1 -2 0 1)
1969/12/31/18:00:12.348000,(-1 0 0 0 0 1 0 -1)
1969/12/31/18:00:12.369000,(1 0 1 -2 -1 -1 -1 2)
1969/12/31/18:00:12.369000,(1 0 -3 0 0 3 0 2)
1969/12/31/18:00:12.371000,(-1 -1 0 -1 0 0 0 1)
1969/12/31/18:00:12.371000,(-1 1 2 -1 -2 -1 0 0)
1969/12/31/18:00:12.383000,(1 0 -1 1 2 1 -1 -1)
1969/12/31/18:00:12.383000,(-3 -4 -3 -5 -3 -3 -7 -6)
1969/12/31/18:00:12.390000,(-2 -2 -1 0 -1 -1 -2 -3)
1969/12/31/18:00:12.390000,(1 -1 -1 -4 0 1 1 3)
1969/12/31/18:00:12.414000,(0 1 1 0 0 3 2 0)
1969/12/31/18:00:12.414000,(-1 1 1 1 2 0 0 0)
1969/12/31/18:00:12.415000,(-1 -1 -2 -4 -5 -5 -3 -2)
1969/12/31/18:00:12.415000,(0 -2 -1 -2 0 0 -1 0)
1969/12/31/18:00:12.429000,(0 0 0 0 2 0 0 0)
1969/12/31/18:00:12.429000,(2 1 1 0 -1 0 0 1)
1969/12/31/18:00:12.430000,(-1 0 0 -1 0 0 -1 -4)
1969/12/31/18:00:12.430000,(1 0 1 -1 0 0 0 -1)
1969/12/31/18:00:12.442000,(0 -1 -4 0 -2 0 1 2)
1969/12/31/18:00:12.442000,(1 1 1 0 -2 0 0 1)
1969/12/31/18:00:12.451000,(-1 -1 -1 -1 0 -1 -1 2)
1969/12/31/18:00:12.451000,(-3 -1 -1 1 0 1 0 -3)
1969/12/31/18:00:12.466000,(0 -1 1 1 2 3 0 0)
1969/12/31/18:00:12.466000,(1 2 3 0 0 -1 -1 0)
1969/12/31/18:00:12.467000,(4 1 0 1 -1 1 2 1)
1969/12/31/18:00:12.467000,(-2 -5 -7 -2 -3 -6 -4 -4)
1969/12/31/18:00:12.489000,(-2 1 8 -1 -5 -4 -1 -2)
1969/12/31/18:00:12.489000,(0 1 -5 3 0 1 1 0)
1969/12/31/18:00:12.490000,(0 -8 -11 -2 5 3 2 0)
1969/12/31/18:00:12.490000,(-6 -1 8 -5 -4 -4 -4 -4)
1969/12/31/18:00:12.512000,(-1 2 1 0 -4 -3 -2 0)
1969/12/31/18:00:12.512000,(-2 -5 -10 -9 -3 0 -3 -2)
1969/12/31/18:00:12.513000,(-2 1 3 -2 2 4 1 0)
1969/12/31/18:00:12.513000,(11 5 -12 -10 -16 7 10 10)
1969/12/31/18:00:12.526000,(-7 -7 6 2 18 -9 -8 -5)
1969/12/31/18:00:12.526000,(4 7 16 27 4 1 3 4)
1969/12/31/18:00:12.528000,(-1 2 1 6 11 2 -1 -2)
1969/12/31/18:00:12.528000,(0 2 -8 -23 -6 1 0 -1)
1969/12/31/18:00:12.549000,(-2 -5 -15 7 -5 3 4 1)
1969/12/31/18:00:12.549000,(-1 -1 0 -13 1 2 3 1)
1969/12/31/18:00:12.550000,(-4 0 5 20 -6 -4 -6 -6)
1969/12/31/18:00:12.550000,(-1 0 -1 -48 -16 -9 -3 -1)
1969/12/31/18:00:12.562000,(-3 -1 -2 20 15 -1 -3 -5)
1969/12/31/18:00:12.562000,(1 -2 1 43 2 3 1 3)
1969/12/31/18:00:12.596000,(8 12 18 6 21 10 7 9)
1969/12/31/18:00:12.596000,(-2 -5 -11 -11 -7 -1 -1 -3)
1969/12/31/18:00:12.597000,(0 0 -17 -69 -22 1 3 2)
1969/12/31/18:00:12.597000,(-8 -15 -12 -3 -9 -15 -12 -10)
1969/12/31/18:00:12.600000,(1 6 27 50 1 -2 -1 0)
1969/12/31/18:00:12.600000,(0 4 10 21 9 6 3 2)
1969/12/31/18:00:12.609000,(3 1 -4 -4 -3 -2 -4 -1)
1969/12/31/18:00:12.609000,(2 5 16 22 10 5 3 1)
1969/12/31/18:00:12.611000,(-11 -16 -25 -38 -12 -10 -11 -10)
1969/12/31/18:00:12.611000,(-2 -4 -16 -47 -9 -3 -1 -1)
1969/12/31/18:00:12.622000,(0 0 -1 -18 2 -4 -1 1)
1969/12/31/18:00:12.622000,(0 2 5 -12 -4 -4 -2 1)
1969/12/31/18:00:12.631000,(7 9 8 57 9 7 5 5)
1969/12/31/18:00:12.631000,(6 6 26 88 45 17 11 5)
1969/12/31/18:00:12.645000,(-7 -7 15 29 -11 -2 -5 -7)
1969/12/31/18:00:12.645000,(-18 -21 -49 -72 -72 -23 -14 -15)
1969/12/31/18:00:12.652000,(5 0 -14 -116 36 -1 5 5)
1969/12/31/18:00:12.652000,(0 -3 25 101 38 5 -3 -2)
1969/12/31/18:00:12.669000,(-7 0 7 -22 29 7 2 -3)
1969/12/31/18:00:12.669000,(3 9 8 -62 -32 2 6 3)
1969/12/31/18:00:12.670000,(0 -9 -9 73 -29 -9 -5 0)
1969/12/31/18:00:12.670000,(0 -2 -34 -115 -95 -15 0 3)
1969/12/31/18:00:12.691000,(1 -3 3 67 63 1 -1 -1)
1969/12/31/18:00:12.691000,(-5 1 35 105 92 20 0 -4)
1969/12/31/18:00:12.693000,(-4 12 21 -32 -34 -9 -3 -4)
1969/12/31/18:00:12.693000,(7 3 -8 -53 -6 1 -1 2)
1969/12/31/18:00:12.705000,(5 -2 -13 40 -35 0 -1 1)
1969/12/31/18:00:12.705000,(-13 -7 -18 -83 -28 -8 -9 -8)
1969/12/31/18:00:12.720000,(8 4 -8 14 31 16 5 4)
1969/12/31/18:00:12.720000,(-7 -4 15 1 -21 -3 -2 -4)
1969/12/31/18:00:12.736000,(8 12 -17 -120 -53 -8 7 8)
1969/12/31/18:00:12.736000,(11 -10 -67 -87 -21 -4 -2 6)
1969/12/31/18:00:12.738000,(-4 5 63 71 34 8 4 1)
1969/12/31/18:00:12.738000,(-14 5 34 69 27 5 -3 -14)
1969/12/31/18:00:12.742000,(0 -5 -5 -18 0 -1 -3 -1)
1969/12/31/18:00:12.742000,(7 17 44 38 55 14 8 5)
1969/12/31/18:00:12.751000,(-5 -9 -48 -21 -66 -15 -3 -1)
1969/12/31/18:00:12.751000,(0 -4 -6 14 46 8 2 3)
1969/12/31/18:00:12.765000,(3 8 14 24 34 12 5 3)
1969/12/31/18:00:12.765000,(-2 -5 -11 -63 -29 -5 1 0)
1969/12/31/18:00:12.772000,(-3 0 14 48 -7 -11 -4 -5)
1969/12/31/18:00:12.772000,(5 9 25 58 36 1 -1 2)
1969/12/31/18:00:12.788000,(-5 -10 -13 -12 -29 -11 -5 -4)
1969/12/31/18:00:12.788000,(1 -7 -20 -46 -8 -6 0 1)
1969/12/31/18:00:12.790000,(-2 -11 -46 -121 -46 -12 -6 -1)
1969/12/31/18:00:12.790000,(-2 -8 -32 -28 -18 -10 -8 -5)
1969/12/31/18:00:12.802000,(3 5 31 44 7 6 2 5)
1969/12/31/18:00:12.802000,(0 6 7 20 15 3 2 1)
1969/12/31/18:00:12.811000,(1 -5 -3 -27 -11 3 0 0)
1969/12/31/18:00:12.811000,(-6 -5 0 23 28 0 -5 -4)
1969/12/31/18:00:12.826000,(-2 -4 -21 -37 -20 2 0 2)
1969/12/31/18:00:12.826000,(7 11 28 67 8 8 5 7)
1969/12/31/18:00:12.840000,(-8 -9 0 16 13 -3 -7 -8)
1969/12/31/18:00:12.840000,(5 0 -8 -31 2 2 4 4)
1969/12/31/18:00:12.848000,(1 5 21 67 16 1 -1 -4)
1969/12/31/18:00:12.848000,(-3 -5 -6 2 -2 -5 -3 -2)
1969/12/31/18:00:12.850000,(-3 -6 -23 -75 -18 -4 0 0)
1969/12/31/18:00:12.850000,(-3 -2 -11 -24 -35 -9 -5 -2)
1969/12/31/18:00:12.871000,(0 -2 -3 -13 1 -4 1 -2)
1969/12/31/18:00:12.871000,(-2 -1 5 17 -4 -5 -3 -3)
1969/12/31/18:00:12.873000,(-1 1 0 -6 7 3 2 0)
1969/12/31/18:00:12.873000,(2 2 2 9 4 0 0 3)
1969/12/31/18:00:12.893000,(0 1 1 -3 -3 0 0 0)
1969/12/31/18:00:12.893000,(-1 -1 0 9 2 -1 -1 -2)
1969/12/31/18:00:12.901000,(1 4 5 12 10 4 0 0)
1969/12/31/18:00:12.901000,(1 -1 -1 -5 4 1 1 3)
1969/12/31/18:00:12.909000,(-2 0 -5 -15 -7 -1 -1 -1)
1969/12/31/18:00:12.909000,(-1 0 2 8 -5 -1 -1 -1)
1969/12/31/18:00:12.910000,(-1 3 3 4 10 3 2 4)
1969/12/31/18:00:12.910000,(10 4 -1 -4 -5 0 3 -1)
1969/12/31/18:00:12.931000,(-16 -10 -2 -5 -5 -2 -5 -9)
1969/12/31/18:00:12.931000,(0 -1 0 17 5 -3 -5 -5)
1969/12/31/18:00:12.933000,(-9 -5 1 3 2 -2 -2 -2)
1969/12/31/18:00:12.933000,(-1 -5 -5 -16 -8 -5 -2 3)
1969/12/31/18:00:12.945000,(17 15 1 2 4 8 5 3)
1969/12/31/18:00:12.945000,(-3 0 1 8 2 -1 -3 -1)
1969/12/31/18:00:12.961000,(3 0 -1 -3 3 0 0 -2)
1969/12/31/18:00:12.961000,(-10 -4 -1 -5 -6 -4 -4 -6)
1969/12/31/18:00:12.969000,(-2 -1 -2 -4 -1 -2 0 5)
1969/12/31/18:00:12.969000,(4 1 2 0 -1 2 2 4)
1969/12/31/18:00:12.970000,(2 0 1 -1 3 1 0 0)
1969/12/31/18:00:12.970000,(-2 -2 1 5 1 -2 -3 -4)
1969/12/31/18:00:12.998000,(-2 -2 -4 -5 -3 -2 0 1)
1969/12/31/18:00:12.999000,(2 3 -1 3 1 1 2 2)
1969/12/31/18:00:13.000000,(4 2 -1 -2 2 2 2 2)
1969/12/31/18:00:13.000000,(1 4 1 -2 0 1 1 3)
1969/12/31/18:00:13.006000,(-4 -4 -2 -8 -5 -4 -1 -3)
1969/12/31/18:00:13.006000,(-4 0 1 5 -6 -3 1 1)
1969/12/31/18:00:13.014000,(17 5 8 10 13 13 11 12)
1969/12/31/18:00:13.014000,(-13 -12 -11 -12 -10 -14 -19 -18)
1969/12/31/18:00:13.029000,(3 -2 -9 -34 -25 -6 3 7)
1969/12/31/18:00:13.029000,(-1 2 5 9 10 1 4 1)
1969/12/31/18:00:13.030000,(-9 -3 9 37 18 4 -3 -7)
1969/12/31/18:00:13.030000,(9 7 4 2 8 5 7 7)
1969/12/31/18:00:13.051000,(-8 -5 0 5 1 0 -4 -3)
1969/12/31/18:00:13.051000,(10 3 -4 -16 -10 -1 2 4)
1969/12/31/18:00:13.053000,(1 -2 -8 -19 -17 -6 -4 -2)
1969/12/31/18:00:13.053000,(-2 0 -1 4 4 2 1 -2)
1969/12/31/18:00:13.065000,(-5 -2 -1 0 1 -2 -2 -6)
1969/12/31/18:00:13.065000,(-1 1 4 -5 -5 -1 1 0)
1969/12/31/18:00:13.074000,(-1 -3 -2 0 1 -1 -2 -4)
1969/12/31/18:00:13.074000,(1 2 5 8 5 2 4 3)
1969/12/31/18:00:13.089000,(-2 -2 4 13 3 -1 0 -1)
1969/12/31/18:00:13.089000,(3 -10 -10 -2 -2 -1 3 9)
1969/12/31/18:00:13.090000,(-9 15 20 10 11 13 5 -10)
1969/12/31/18:00:13.090000,(-1 -6 -12 -22 -15 -8 -7 -7)
1969/12/31/18:00:13.111000,(1 -8 -21 -86 -37 -12 -9 -4)
1969/12/31/18:00:13.111000,(1 2 9 65 25 0 1 0)
1969/12/31/18:00:13.113000,(-1 -1 4 31 25 6 3 6)
1969/12/31/18:00:13.113000,(3 8 22 45 16 10 6 3)
1969/12/31/18:00:13.124000,(-1 2 7 32 23 5 1 -3)
1969/12/31/18:00:13.124000,(-5 -5 -11 -41 -22 -4 0 -1)
1969/12/31/18:00:13.133000,(-6 -7 -18 -35 -23 -14 -10 -5)
1969/12/31/18:00:13.133000,(2 2 -4 -15 -5 2 3 1)
1969/12/31/18:00:13.148000,(-4 5 0 5 0 1 0 -4)
1969/12/31/18:00:13.148000,(19 -1 -3 -11 -3 2 6 21)
1969/12/31/18:00:13.150000,(-31 -7 0 2 0 0 -2 -6)
1969/12/31/18:00:13.150000,(7 -22 -15 -18 -13 -10 -17 -24)
1969/12/31/18:00:13.171000,(-5 12 13 20 12 8 10 1)
1969/12/31/18:00:13.171000,(-10 -1 1 2 -1 -11 -25 -23)
1969/12/31/18:00:13.173000,(3 -5 -11 -16 -12 -10 -4 5)
1969/12/31/18:00:13.173000,(-11 -1 0 -3 1 2 4 2)
1969/12/31/18:00:13.185000,(2 -1 -2 -4 -1 6 10 6)
1969/12/31/18:00:13.185000,(-5 -5 -16 -57 -20 -1 0 -4)
1969/12/31/18:00:13.194000,(3 3 22 78 23 0 -5 -4)
1969/12/31/18:00:13.194000,(-5 8 25 50 23 9 6 4)
1969/12/31/18:00:13.208000,(11 1 6 32 18 0 -3 -1)
1969/12/31/18:00:13.208000,(-10 -3 -2 -18 -11 -5 -3 -5)
1969/12/31/18:00:13.210000,(4 2 -16 -58 -23 -2 3 0)
1969/12/31/18:00:13.210000,(-15 -13 -10 -22 -9 -1 12 18)
1969/12/31/18:00:13.231000,(42 23 8 15 13 13 10 19)
1969/12/31/18:00:13.231000,(-27 -20 -12 -4 -7 -8 -15 -29)
1969/12/31/18:00:13.233000,(3 -5 -6 -17 -10 -5 -4 -5)
1969/12/31/18:00:13.233000,(2 5 -4 -7 -7 -7 -5 -4)
1969/12/31/18:00:13.245000,(-27 -15 4 34 9 -4 -8 -9)
1969/12/31/18:00:13.245000,(-9 3 11 30 22 10 9 2)
1969/12/31/18:00:13.254000,(29 13 5 10 4 0 -1 1)
1969/12/31/18:00:13.254000,(-13 -10 -19 -81 -44 -18 -11 -4)
1969/12/31/18:00:13.269000,(0 -8 -15 -7 -41 -16 -7 -1)
1969/12/31/18:00:13.269000,(10 13 23 69 55 17 13 12)
1969/12/31/18:00:13.270000,(-9 -8 9 10 33 24 8 3)
1969/12/31/18:00:13.270000,(12 13 13 34 17 11 6 5)
1969/12/31/18:00:13.291000,(-3 -3 4 -4 -1 0 -1 -3)
1969/12/31/18:00:13.291000,(8 2 -24 -91 -66 -17 -2 6)
1969/12/31/18:00:13.293000,(2 -1 -4 84 0 -8 0 4)
1969/12/31/18:00:13.293000,(2 4 19 70 42 5 -2 -5)
1969/12/31/18:00:13.305000,(-3 -2 -2 -16 1 -5 -4 -4)
1969/12/31/18:00:13.305000,(-15 -11 -6 3 6 -2 -4 -6)
1969/12/31/18:00:13.314000,(14 11 -3 -59 -16 3 6 3)
1969/12/31/18:00:13.314000,(-12 -13 -21 -21 -22 -11 -13 -16)
1969/12/31/18:00:13.329000,(10 20 8 -2 7 4 7 4)
1969/12/31/18:00:13.329000,(7 -4 -5 -8 -4 -7 -8 -3)
1969/12/31/18:00:13.330000,(-15 -11 -10 -23 -15 -1 2 -3)
1969/12/31/18:00:13.330000,(-3 -2 -2 8 1 -1 -2 1)
1969/12/31/18:00:13.351000,(-1 -6 -11 -26 -1 1 2 6)
1969/12/31/18:00:13.351000,(-9 -3 6 -5 -14 4 2 -2)
1969/12/31/18:00:13.353000,(11 11 19 59 26 1 -1 -1)
1969/12/31/18:00:13.353000,(14 7 -2 -25 -14 1 8 13)
1969/12/31/18:00:13.365000,(-16 -15 -24 -43 -12 -10 -12 -13)
1969/12/31/18:00:13.365000,(15 13 17 54 38 19 15 13)
1969/12/31/18:00:13.381000,(-9 -8 3 -15 -4 -3 -2 -3)
1969/12/31/18:00:13.381000,(3 7 11 34 9 6 1 1)
1969/12/31/18:00:13.388000,(-8 -9 -6 -25 -12 -2 -4 -2)
1969/12/31/18:00:13.388000,(14 11 9 41 10 2 1 0)
1969/12/31/18:00:13.395000,(0 -3 -10 -34 -7 -4 -2 3)
1969/12/31/18:00:13.395000,(-1 0 -6 -16 -11 -3 0 0)
1969/12/31/18:00:13.411000,(-7 -7 -5 -2 -4 -6 -7 -4)
1969/12/31/18:00:13.411000,(-4 -2 -8 -24 -5 -3 -1 -2)
1969/12/31/18:00:13.413000,(-3 -2 -13 -35 -10 -4 -1 2)
1969/12/31/18:00:13.413000,(6 4 6 24 -2 -1 3 3)
1969/12/31/18:00:13.425000,(-5 -1 18 65 27 2 -1 -4)
1969/12/31/18:00:13.425000,(-11 6 9 10 8 0 -2 -4)
1969/12/31/18:00:13.434000,(8 -7 -11 -20 -6 -10 -13 -13)
1969/12/31/18:00:13.434000,(-5 -9 -22 -77 -33 0 4 3)
1969/12/31/18:00:13.448000,(7 5 7 22 -3 -3 -1 -1)
1969/12/31/18:00:13.448000,(-12 -8 -5 -5 -1 -5 -5 -9)
1969/12/31/18:00:13.450000,(-6 -3 -7 -11 -19 -8 -4 2)
1969/12/31/18:00:13.450000,(4 9 34 95 69 18 7 3)
1969/12/31/18:00:13.471000,(0 -5 -7 -65 -9 4 0 0)
1969/12/31/18:00:13.471000,(9 5 15 83 0 1 2 3)
1969/12/31/18:00:13.472000,(-9 -2 5 3 14 -1 -6 -6)
1969/12/31/18:00:13.472000,(3 -3 -16 -33 -36 -4 -1 1)
1969/12/31/18:00:13.484000,(1 2 3 -2 13 -1 3 2)
1969/12/31/18:00:13.485000,(6 0 -12 -50 1 -2 -3 -3)
1969/12/31/18:00:13.494000,(2 3 -8 -15 -15 1 7 9)
1969/12/31/18:00:13.494000,(-8 2 5 -3 6 3 9 6)
1969/12/31/18:00:13.516000,(1 -3 -5 4 -14 -9 -11 -7)
1969/12/31/18:00:13.516000,(-7 -5 -3 -25 -16 -6 -3 -5)
1969/12/31/18:00:13.518000,(-11 -8 0 19 2 -4 -4 -9)
1969/12/31/18:00:13.518000,(19 8 -17 -83 -6 6 12 21)
1969/12/31/18:00:13.531000,(-2 -6 -16 57 -1 2 2 2)
1969/12/31/18:00:13.531000,(7 9 33 39 10 11 8 9)
1969/12/31/18:00:13.533000,(1 4 15 37 29 4 1 0)
1969/12/31/18:00:13.533000,(-7 -5 3 9 -13 -9 -9 -12)
1969/12/31/18:00:13.545000,(2 3 7 21 19 6 1 1)
1969/12/31/18:00:13.545000,(1 0 -3 16 7 -1 -5 0)
1969/12/31/18:00:13.554000,(-2 -1 -4 -11 -11 -1 2 2)
1969/12/31/18:00:13.554000,(-8 -9 -14 -25 -10 -7 -4 -3)
1969/12/31/18:00:13.568000,(0 4 -1 -24 -8 2 3 -1)
1969/12/31/18:00:13.568000,(-9 -10 -9 -14 -7 -5 -6 -6)
1969/12/31/18:00:13.575000,(14 3 -6 -15 -11 -3 1 10)
1969/12/31/18:00:13.575000,(18 6 5 13 10 2 2 -1)
1969/12/31/18:00:13.591000,(-8 0 1 1 -3 -3 -3 -4)
1969/12/31/18:00:13.591000,(-1 0 -5 -16 -3 -5 -3 -6)
1969/12/31/18:00:13.592000,(-20 -14 -7 -5 -6 -2 -4 -9)
1969/12/31/18:00:13.593000,(15 6 -7 -32 -1 2 3 10)
1969/12/31/18:00:13.605000,(-5 -8 -10 13 -10 -11 -8 -4)
1969/12/31/18:00:13.605000,(10 7 14 39 8 6 4 5)
1969/12/31/18:00:13.613000,(4 15 27 47 29 12 9 7)
1969/12/31/18:00:13.613000,(-31 -21 -2 21 -5 -11 -16 -17)
1969/12/31/18:00:13.628000,(-2 11 5 -28 4 9 11 2)
1969/12/31/18:00:13.628000,(0 -6 -30 -67 -28 -14 -11 -8)
1969/12/31/18:00:13.635000,(-2 -7 -10 -6 -3 -1 0 -1)
1969/12/31/18:00:13.635000,(-32 -4 8 25 8 5 0 -14)
1969/12/31/18:00:13.659000,(-11 -22 0 1 -3 -4 -4 -3)
1969/12/31/18:00:13.659000,(68 37 3 -10 6 10 24 48)
1969/12/31/18:00:13.660000,(-5 5 7 0 -2 -2 -11 -25)
1969/12/31/18:00:13.660000,(-2 -3 -3 0 1 -5 -1 2)
1969/12/31/18:00:13.665000,(10 4 -2 -27 -10 -1 5 10)
1969/12/31/18:00:13.665000,(-54 -23 6 49 14 -2 -8 -25)
1969/12/31/18:00:13.674000,(55 27 -4 -28 -4 7 16 35)
1969/12/31/18:00:13.674000,(-13 -7 -7 -12 -4 -4 -7 -8)
1969/12/31/18:00:13.688000,(-13 -12 7 35 -3 2 2 -4)
1969/12/31/18:00:13.688000,(30 11 2 -4 11 1 1 7)
1969/12/31/18:00:13.695000,(6 3 -11 -11 -8 4 10 8)
1969/12/31/18:00:13.695000,(25 8 12 15 18 19 19 16)
1969/12/31/18:00:13.719000,(24 14 -3 -15 1 -3 -6 -1)
1969/12/31/18:00:13.719000,(-8 7 -2 -14 -7 -1 0 -6)
1969/12/31/18:00:13.720000,(-52 -42 -7 -1 -8 -9 -14 -16)
1969/12/31/18:00:13.720000,(106 56 14 28 15 16 23 59)
1969/12/31/18:00:13.725000,(-7 -14 -8 -6 -11 -17 -24 -24)
1969/12/31/18:00:13.725000,(-14 -7 -21 -27 -8 -4 -3 -5)
1969/12/31/18:00:13.734000,(-32 -19 6 5 -4 3 8 5)
1969/12/31/18:00:13.734000,(34 21 4 5 1 -1 -2 -2)
1969/12/31/18:00:13.748000,(2 13 9 6 3 4 3 7)
1969/12/31/18:00:13.748000,(-11 -10 -13 -76 -20 -7 -11 -15)
1969/12/31/18:00:13.755000,(-13 -11 -5 13 -10 -11 -7 -7)
1969/12/31/18:00:13.755000,(-47 -28 -12 -47 -16 -12 -13 -24)
1969/12/31/18:00:13.771000,(-4 1 24 87 27 12 11 10)
1969/12/31/18:00:13.771000,(32 31 20 61 39 17 10 17)
1969/12/31/18:00:13.773000,(-47 -37 -13 -18 -6 -9 -17 -25)
1969/12/31/18:00:13.773000,(61 49 -11 -57 -17 6 18 24)
1969/12/31/18:00:13.794000,(-25 -17 -10 -28 -23 -26 -29 -34)
1969/12/31/18:00:13.794000,(-46 -33 14 12 11 26 34 26)
1969/12/31/18:00:13.795000,(43 44 1 6 10 11 13 6)
1969/12/31/18:00:13.795000,(-20 -20 -5 0 -9 -23 -26 -12)
1969/12/31/18:00:13.808000,(6 -6 -23 -54 -11 -9 -8 -2)
1969/12/31/18:00:13.808000,(25 31 -6 -25 -13 -8 -7 -2)
1969/12/31/18:00:13.815000,(-26 -20 6 46 8 -12 -20 -22)
1969/12/31/18:00:13.815000,(-52 -30 9 37 8 4 -1 -22)
1969/12/31/18:00:13.831000,(17 19 19 25 20 19 23 24)
1969/12/31/18:00:13.831000,(-22 -18 -12 8 3 -3 -9 -8)
1969/12/31/18:00:13.833000,(4 -18 -9 -46 -13 8 18 22)
1969/12/31/18:00:13.833000,(20 47 15 13 -1 2 3 1)
1969/12/31/18:00:13.854000,(-23 -14 -8 -25 -4 -3 -2 -9)
1969/12/31/18:00:13.854000,(12 2 0 9 -3 -5 1 5)
1969/12/31/18:00:13.855000,(-39 -32 -2 1 -4 -6 -16 -22)
1969/12/31/18:00:13.855000,(4 -5 0 27 12 6 10 7)
1969/12/31/18:00:13.868000,(-6 24 2 -4 0 -1 -11 -6)
1969/12/31/18:00:13.868000,(-21 -16 -13 -31 -21 -22 -21 -13)
1969/12/31/18:00:13.875000,(4 7 -12 -16 -10 -9 -3 3)
1969/12/31/18:00:13.875000,(-65 -56 -2 15 5 0 -9 -17)
1969/12/31/18:00:13.891000,(-27 -8 -12 -26 -2 7 5 -14)
1969/12/31/18:00:13.891000,(9 -4 0 31 2 -1 -4 0)
1969/12/31/18:00:13.893000,(45 53 20 -19 3 17 25 28)
1969/12/31/18:00:13.893000,(-23 -18 -11 24 0 -6 -6 -11)
1969/12/31/18:00:13.914000,(7 -11 22 31 8 7 7 7)
1969/12/31/18:00:13.914000,(-2 -1 4 4 -3 -4 -4 -5)
1969/12/31/18:00:13.915000,(18 9 -2 -14 -1 5 9 14)
1969/12/31/18:00:13.915000,(-5 -13 -7 0 4 0 0 0)
1969/12/31/18:00:13.936000,(73 38 13 5 13 17 23 43)
1969/12/31/18:00:13.936000,(26 5 -8 -13 -18 -16 -17 -16)
1969/12/31/18:00:13.938000,(-9 -4 -7 -7 -1 -3 -4 -6)
1969/12/31/18:00:13.938000,(-6 -5 -8 -19 -8 -9 -15 -19)
1969/12/31/18:00:13.951000,(-9 -8 2 22 6 -4 -4 2)
1969/12/31/18:00:13.951000,(-19 -2 8 2 6 15 18 -1)
1969/12/31/18:00:13.953000,(61 39 3 -4 -1 0 1 23)
1969/12/31/18:00:13.953000,(-59 -33 1 9 1 2 -7 -29)
1969/12/31/18:00:13.974000,(-8 4 -3 -2 -7 -3 3 5)
1969/12/31/18:00:13.974000,(8 -6 -5 -8 1 1 -6 -1)
1969/12/31/18:00:13.975000,(-6 -5 -8 -22 -14 -13 -23 -20)
1969/12/31/18:00:13.975000,(6 9 4 24 16 6 1 -3)
1969/12/31/18:00:13.987000,(-14 -17 -6 -9 -4 -1 0 -13)
1969/12/31/18:00:13.987000,(-18 10 5 -4 3 10 13 2)
1969/12/31/18:00:13.996000,(-15 -11 0 17 -6 -16 -14 -8)
1969/12/31/18:00:13.996000,(-46 -53 -4 2 0 7 4 -9)
1969/12/31/18:00:14.011000,(45 47 8 6 7 4 2 22)
1969/12/31/18:00:14.011000,(60 33 1 -1 -2 3 23 46)
1969/12/31/18:00:14.012000,(-38 16 6 8 3 -1 -6 -25)
1969/12/31/18:00:14.013000,(40 3 -8 -20 -12 -9 -5 14)
1969/12/31/18:00:14.034000,(-2 -16 -13 -31 -12 -7 -2 -1)
1969/12/31/18:00:14.034000,(-29 -20 6 29 11 0 -9 -9)
1969/12/31/18:00:14.035000,(-28 -17 0 1 0 2 1 -5)
1969/12/31/18:00:14.035000,(14 18 0 14 -2 -6 -2 -1)
1969/12/31/18:00:14.047000,(-43 -29 0 0 4 3 -3 -8)
1969/12/31/18:00:14.047000,(15 3 -9 -13 -7 -12 -22 -16)
1969/12/31/18:00:14.056000,(8 -4 -3 4 3 5 11 10)
1969/12/31/18:00:14.056000,(-11 -2 -4 -9 -4 -6 -9 -13)
1969/12/31/18:00:14.071000,(23 20 8 6 3 9 15 12)
1969/12/31/18:00:14.071000,(-126 -95 -11 -17 -12 -10 -15 -45)
1969/12/31/18:00:14.073000,(104 77 14 13 5 2 13 50)
1969/12/31/18:00:14.073000,(93 78 10 -8 3 7 9 26)
1969/12/31/18:00:14.094000,(-32 -24 -15 -3 -9 -10 -13 -23)
1969/12/31/18:00:14.094000,(20 10 8 7 7 9 13 9)
1969/12/31/18:00:14.095000,(-15 -30 -6 -2 -6 -10 -18 -22)
1969/12/31/18:00:14.095000,(-26 -17 -7 -19 -11 -8 -5 -1)
1969/12/31/18:00:14.107000,(29 20 5 6 4 10 12 15)
1969/12/31/18:00:14.107000,(-6 3 0 3 -1 -8 -13 -16)
1969/12/31/18:00:14.116000,(-39 -26 -5 3 2 -2 -8 -20)
1969/12/31/18:00:14.116000,(5 10 -13 -44 -7 -14 -9 3)
1969/12/31/18:00:14.131000,(-30 -24 1 15 -6 7 8 -9)
1969/12/31/18:00:14.131000,(-17 -3 6 14 1 3 4 -1)
1969/12/31/18:00:14.133000,(20 14 5 18 9 3 1 15)
1969/12/31/18:00:14.133000,(-22 -35 9 8 15 23 22 8)
1969/12/31/18:00:14.154000,(80 76 -13 -23 -14 -28 -35 -4)
1969/12/31/18:00:14.154000,(37 27 -1 -6 -7 -10 -5 5)
1969/12/31/18:00:14.155000,(-13 -29 -3 5 11 19 13 2)
1969/12/31/18:00:14.155000,(-5 22 1 -1 -3 -10 -9 4)
1969/12/31/18:00:14.167000,(-21 -22 -3 2 7 12 12 7)
1969/12/31/18:00:14.167000,(-2 -4 2 -1 -5 -6 -10 -2)
1969/12/31/18:00:14.176000,(-52 -29 -10 -10 -9 -6 -11 -47)
1969/12/31/18:00:14.176000,(-67 -27 -7 -8 -16 -19 -19 -14)
1969/12/31/18:00:14.192000,(12 -3 -5 -2 3 1 -1 -4)
1969/12/31/18:00:14.192000,(10 17 -10 -10 -5 -1 0 7)
1969/12/31/18:00:14.193000,(-85 -65 -9 -20 -12 -5 -9 -44)
1969/12/31/18:00:14.193000,(99 88 10 15 11 10 23 54)
1969/12/31/18:00:14.213000,(-69 -27 0 9 -6 -18 -25 -36)
1969/12/31/18:00:14.213000,(-18 -29 -7 -12 -4 1 4 -1)
1969/12/31/18:00:14.214000,(63 49 6 8 9 2 4 16)
1969/12/31/18:00:14.214000,(-63 -49 -3 4 -11 -11 -13 -30)
1969/12/31/18:00:14.235000,(44 10 -5 -5 10 4 10 30)
1969/12/31/18:00:14.235000,(-52 -33 -3 9 0 -8 -14 -21)
1969/12/31/18:00:14.236000,(49 43 20 11 13 21 30 40)
1969/12/31/18:00:14.236000,(17 -1 2 -2 0 0 -1 7)
1969/12/31/18:00:14.250000,(-16 -12 4 8 2 12 12 -8)
1969/12/31/18:00:14.250000,(-8 -17 0 -13 -13 -17 -11 4)
1969/12/31/18:00:14.251000,(22 17 0 -1 5 7 16 23)
1969/12/31/18:00:14.251000,(18 7 12 35 17 15 19 16)
1969/12/31/18:00:14.273000,(5 -26 -2 -1 -6 -6 -3 0)
1969/12/31/18:00:14.273000,(59 68 29 21 17 16 19 45)
1969/12/31/18:00:14.274000,(-91 -65 -21 -6 -10 -17 -32 -56)
1969/12/31/18:00:14.274000,(60 63 -8 -15 8 29 39 42)
1969/12/31/18:00:14.295000,(-41 -7 5 -2 -9 -26 -40 -33)
1969/12/31/18:00:14.295000,(-52 -59 -5 -5 -7 0 -2 -17)
1969/12/31/18:00:14.296000,(73 85 10 3 3 0 1 25)
1969/12/31/18:00:14.296000,(-91 -77 -13 -14 -14 -5 -14 -45)
1969/12/31/18:00:14.310000,(84 61 21 9 4 4 15 43)
1969/12/31/18:00:14.310000,(0 -5 -10 4 2 0 -7 -16)
1969/12/31/18:00:14.311000,(-17 -16 9 -4 -4 -1 -8 3)
1969/12/31/18:00:14.311000,(2 3 3 -1 7 12 2 -3)
1969/12/31/18:00:14.333000,(2 -1 -18 -26 -5 12 14 15)
1969/12/31/18:00:14.333000,(32 35 4 -28 10 21 30 31)
1969/12/31/18:00:14.334000,(-68 -67 -8 18 -16 -22 -21 -42)
1969/12/31/18:00:14.334000,(-14 -46 9 29 -7 -22 -4 19)
1969/12/31/18:00:14.356000,(19 31 -3 12 9 -18 -26 -45)
1969/12/31/18:00:14.356000,(-8 -20 0 26 8 3 6 -3)
1969/12/31/18:00:14.356000,(-20 7 -18 -20 -12 -23 -22 -3)
1969/12/31/18:00:14.356000,(44 -18 -5 -8 1 15 25 24)
1969/12/31/18:00:14.370000,(24 34 17 5 5 5 17 42)
1969/12/31/18:00:14.370000,(7 5 -8 1 3 2 3 -11)
1969/12/31/18:00:14.371000,(21 8 5 7 -6 -10 -10 -2)
1969/12/31/18:00:14.371000,(1 13 7 6 11 15 17 11)
1969/12/31/18:00:14.393000,(-46 -43 -13 8 -1 3 -1 -15)
1969/12/31/18:00:14.393000,(30 24 6 -3 -2 6 7 10)
1969/12/31/18:00:14.394000,(17 1 -6 -22 -5 5 13 27)
1969/12/31/18:00:14.394000,(2 18 3 17 -5 -15 -26 -28)
1969/12/31/18:00:14.415000,(-18 -32 -1 -27 6 15 19 14)
1969/12/31/18:00:14.415000,(-19 17 4 47 -7 -24 -28 -26)
1969/12/31/18:00:14.416000,(5 12 13 12 19 24 22 4)
1969/12/31/18:00:14.416000,(-81 -81 -29 -24 -26 -37 -51 -56)
1969/12/31/18:00:14.430000,(47 18 3 -11 -7 4 -2 -11)
1969/12/31/18:00:14.430000,(-83 -55 -19 -18 -3 12 9 -31)
1969/12/31/18:00:14.431000,(-26 8 8 -12 -8 -18 -19 -21)
1969/12/31/18:00:14.431000,(-10 0 -1 5 9 5 -6 -16)
1969/12/31/18:00:14.453000,(-46 -21 4 -2 -3 6 5 1)
1969/12/31/18:00:14.453000,(-21 -29 -40 -79 -30 -15 -17 -18)
1969/12/31/18:00:14.453000,(31 0 0 23 17 6 9 14)
1969/12/31/18:00:14.453000,(25 41 37 61 7 10 12 14)
1969/12/31/18:00:14.476000,(-40 -31 11 52 12 -5 -7 -16)
1969/12/31/18:00:14.476000,(62 52 25 18 26 20 20 39)
1969/12/31/18:00:14.477000,(28 4 -12 -28 1 12 18 26)
1969/12/31/18:00:14.477000,(-10 -9 -21 -49 -23 -23 -18 -14)
1969/12/31/18:00:14.490000,(-9 -1 -12 -7 -5 1 0 0)
1969/12/31/18:00:14.490000,(-65 -96 -19 5 -3 -5 -16 -38)
1969/12/31/18:00:14.491000,(84 90 24 -7 4 16 24 33)
1969/12/31/18:00:14.491000,(-70 -49 -21 -13 -15 -35 -51 -64)
1969/12/31/18:00:14.513000,(-21 -20 5 -6 -6 6 14 6)
1969/12/31/18:00:14.513000,(69 38 20 0 9 1 6 44)
1969/12/31/18:00:14.513000,(-51 -36 -10 11 -1 2 -6 -34)
1969/12/31/18:00:14.513000,(8 8 3 2 5 8 11 7)
1969/12/31/18:00:14.543000,(-18 -10 -10 -12 -7 -8 -11 -13)
1969/12/31/18:00:14.543000,(-2 8 -2 -14 -10 -8 -5 2)
1969/12/31/18:00:14.544000,(10 -7 -5 8 5 9 15 20)
1969/12/31/18:00:14.544000,(4 10 11 11 -3 -8 -11 -6)
1969/12/31/18:00:14.550000,(23 15 9 21 31 28 36 41)
1969/12/31/18:00:14.550000,(-2 10 -3 6 0 1 -3 -11)
1969/12/31/18:00:14.551000,(-37 -57 -12 -8 -19 -20 -19 -25)
1969/12/31/18:00:14.551000,(110 109 55 9 44 73 80 89)
1969/12/31/18:00:14.573000,(-62 -48 -19 -10 -26 -47 -63 -83)
1969/12/31/18:00:14.573000,(-8 -15 10 9 4 7 10 -3)
1969/12/31/18:00:14.574000,(18 1 -4 -1 -1 -4 -10 -2)
1969/12/31/18:00:14.574000,(-61 -31 -22 -18 3 10 9 -18)
1969/12/31/18:00:14.596000,(32 -16 3 -1 0 0 12 38)
1969/12/31/18:00:14.596000,(0 8 -7 -9 -9 -15 -27 -14)
1969/12/31/18:00:14.597000,(-36 -35 -21 -57 -23 -21 -22 -18)
1969/12/31/18:00:14.597000,(25 22 21 57 -3 4 12 18)
1969/12/31/18:00:14.610000,(0 18 21 43 17 1 -1 -6)
1969/12/31/18:00:14.610000,(-7 -6 -10 -4 7 -3 -5 -11)
1969/12/31/18:00:14.611000,(9 7 9 27 12 8 10 14)
1969/12/31/18:00:14.611000,(-18 -31 -21 -35 -17 -22 -24 -25)
1969/12/31/18:00:14.633000,(-62 -28 -9 -18 -15 -5 -8 -36)
1969/12/31/18:00:14.633000,(58 63 11 6 5 6 19 59)
1969/12/31/18:00:14.634000,(-108 -41 -10 -10 1 -3 -20 -75)
1969/12/31/18:00:14.634000,(-16 -3 -10 -17 -7 -10 -15 -23)
1969/12/31/18:00:14.647000,(33 28 -1 0 -5 -2 -4 14)
1969/12/31/18:00:14.647000,(-89 -96 -24 -6 -12 -22 -40 -72)
1969/12/31/18:00:14.656000,(70 56 31 16 17 25 32 47)
1969/12/31/18:00:14.656000,(-7 -7 -9 -20 -18 -22 -24 -25)
1969/12/31/18:00:14.670000,(-7 -11 -13 -6 5 4 8 1)
1969/12/31/18:00:14.670000,(0 2 14 28 12 9 11 5)
1969/12/31/18:00:14.671000,(25 10 -5 -4 -5 1 6 15)
1969/12/31/18:00:14.671000,(-12 -19 -15 -36 -10 -9 -7 -10)
1969/12/31/18:00:14.693000,(0 -1 -16 -44 -10 0 1 2)
1969/12/31/18:00:14.693000,(-10 0 23 58 -7 -6 -1 -8)
1969/12/31/18:00:14.694000,(82 72 45 74 60 67 88 99)
1969/12/31/18:00:14.694000,(6 11 -12 -8 -1 -19 -42 -42)
1969/12/31/18:00:14.707000,(-2 -3 -22 -35 -11 3 11 19)
1969/12/31/18:00:14.707000,(6 9 -11 -25 -14 -15 -18 -18)
1969/12/31/18:00:14.715000,(-28 -23 -6 -18 -16 -10 -6 -13)
1969/12/31/18:00:14.715000,(-26 -33 4 4 16 26 38 34)
1969/12/31/18:00:14.730000,(12 18 9 11 3 -2 -5 -1)
1969/12/31/18:00:14.730000,(10 2 -5 -11 -2 0 4 9)
1969/12/31/18:00:14.731000,(-48 -38 -21 -10 -23 -34 -42 -47)
1969/12/31/18:00:14.731000,(23 16 9 8 11 11 19 26)
1969/12/31/18:00:14.753000,(28 25 15 10 7 13 20 19)
1969/12/31/18:00:14.753000,(20 24 9 6 8 9 11 24)
1969/12/31/18:00:14.754000,(-31 -29 -18 -16 -18 -26 -34 -37)
1969/12/31/18:00:14.754000,(-30 -20 -17 -18 -12 -9 -14 -21)
1969/12/31/18:00:14.776000,(-25 -37 21 27 20 27 37 25)
1969/12/31/18:00:14.776000,(-33 7 4 6 3 -8 -21 -38)
1969/12/31/18:00:14.777000,(-15 -13 -6 -5 -13 -18 -23 -25)
1969/12/31/18:00:14.777000,(13 9 -1 2 2 5 8 12)
1969/12/31/18:00:14.790000,(-13 -5 -12 -13 -8 -9 -14 -20)
1969/12/31/18:00:14.790000,(25 11 -13 -60 3 15 25 34)
1969/12/31/18:00:14.791000,(-6 -12 -1 8 -22 -10 -8 -5)
1969/12/31/18:00:14.791000,(-15 -11 11 58 1 -15 -16 -19)
1969/12/31/18:00:14.813000,(22 24 22 35 26 20 16 19)
1969/12/31/18:00:14.813000,(5 1 3 14 8 2 -1 0)
1969/12/31/18:00:14.814000,(42 27 -5 -27 1 5 12 22)
1969/12/31/18:00:14.814000,(-20 -26 -13 -31 -13 -12 -15 -20)
1969/12/31/18:00:14.836000,(22 13 -4 -6 -17 -20 -21 2)
1969/12/31/18:00:14.836000,(67 58 11 0 1 15 28 44)
1969/12/31/18:00:14.837000,(66 66 18 11 18 22 30 66)
1969/12/31/18:00:14.837000,(-28 -16 -8 -1 -1 -5 -8 -16)
1969/12/31/18:00:14.850000,(-36 -25 -8 -4 -13 -20 -26 -38)
1969/12/31/18:00:14.850000,(30 19 8 5 4 8 13 21)
1969/12/31/18:00:14.851000,(-21 -23 -2 -4 -1 4 5 -4)
1969/12/31/18:00:14.851000,(38 28 6 -9 6 9 14 23)
1969/12/31/18:00:14.873000,(-3 4 -3 3 -6 -12 -15 -10)
1969/12/31/18:00:14.873000,(-9 -9 2 12 -1 -3 -2 -8)
1969/12/31/18:00:14.874000,(-14 -12 -1 14 5 0 -6 -13)
1969/12/31/18:00:14.874000,(4 11 6 -14 -6 -4 -5 -3)
1969/12/31/18:00:14.896000,(-11 -14 -16 -4 3 7 7 -1)
1969/12/31/18:00:14.896000,(-34 -26 -8 -6 -12 -11 -11 -21)
1969/12/31/18:00:14.897000,(0 -15 -1 7 11 8 6 7)
1969/12/31/18:00:14.897000,(25 28 -5 -3 -4 -9 -18 -11)
1969/12/31/18:00:14.911000,(52 32 0 -11 -4 3 17 35)
1969/12/31/18:00:14.911000,(-72 -42 -5 6 1 3 -3 -29)
1969/12/31/18:00:14.911000,(31 9 -3 -4 -9 -8 -8 13)
1969/12/31/18:00:14.911000,(-65 -25 3 4 9 19 27 -8)
1969/12/31/18:00:14.941000,(12 6 -9 -9 -13 -22 -28 -14)
1969/12/31/18:00:14.941000,(-3 -6 -11 -10 -8 -16 -23 -15)
1969/12/31/18:00:14.942000,(-32 -19 -8 -3 -2 -5 -8 -23)
1969/12/31/18:00:14.942000,(-5 -14 1 6 3 4 6 6)
1969/12/31/18:00:14.956000,(2 8 8 4 5 8 7 2)
1969/12/31/18:00:14.956000,(17 8 5 -5 -3 2 5 15)
1969/12/31/18:00:14.957000,(-21 -16 -4 -2 -1 -5 -7 -18)
1969/12/31/18:00:14.957000,(43 24 5 11 9 5 8 23)
1969/12/31/18:00:14.970000,(-27 -15 -2 -5 -1 -2 -4 -15)
1969/12/31/18:00:14.970000,(9 2 -2 -3 -3 -4 -3 0)
1969/12/31/18:00:14.971000,(-11 -1 2 4 -2 -3 -4 -8)
1969/12/31/18:00:14.971000,(3 4 3 0 3 0 -1 3)
1969/12/31/18:00:14.993000,(-8 -3 0 5 6 7 5 2)
1969/12/31/18:00:14.993000,(-3 -4 3 -1 0 4 5 -3)
1969/12/31/18:00:14.994000,(-5 1 -1 2 1 -2 -4 -10)
1969/12/31/18:00:14.994000,(-18 -28 -16 -7 -9 -12 -21 -24)
1969/12/31/18:00:15.016000,(11 25 20 -1 12 26 39 32)
1969/12/31/18:00:15.016000,(-13 6 3 2 0 -1 -4 -9)
1969/12/31/18:00:15.017000,(-47 -30 -8 -5 -4 -10 -13 -19)
1969/12/31/18:00:15.017000,(19 14 1 -1 -2 -5 -2 4)
1969/12/31/18:00:15.030000,(-13 -20 -9 -3 -2 -1 -5 -11)
1969/12/31/18:00:15.030000,(4 1 -2 0 -1 3 5 10)
1969/12/31/18:00:15.046000,(25 18 3 0 5 12 18 20)
1969/12/31/18:00:15.046000,(-8 -10 2 -1 -4 -4 -1 1)
1969/12/31/18:00:15.053000,(-12 -8 -4 -1 -3 -6 -9 -9)
1969/12/31/18:00:15.053000,(10 4 1 0 4 3 7 10)
1969/12/31/18:00:15.054000,(5 -5 -8 -4 -6 -14 -18 -14)
1969/12/31/18:00:15.054000,(-20 0 12 -1 7 22 33 37)
1969/12/31/18:00:15.076000,(5 24 9 7 4 3 -5 -13)
1969/12/31/18:00:15.076000,(43 36 8 4 4 4 10 16)
1969/12/31/18:00:15.077000,(5 -2 -2 0 3 -2 -6 0)
1969/12/31/18:00:15.077000,(-19 -16 -12 -4 -10 -17 -16 -19)
1969/12/31/18:00:15.090000,(48 1 7 -8 0 2 14 50)
1969/12/31/18:00:15.090000,(-51 -28 -6 -2 -3 -4 -16 -34)
1969/12/31/18:00:15.091000,(-22 -9 0 1 -4 -6 -5 -9)
1969/12/31/18:00:15.091000,(65 48 2 4 7 8 10 21)
1969/12/31/18:00:15.113000,(-79 -47 -11 -3 -2 -2 -1 -27)
1969/12/31/18:00:15.113000,(19 5 -8 -8 -9 -14 -15 -4)
1969/12/31/18:00:15.114000,(15 7 6 2 5 8 11 14)
1969/12/31/18:00:15.114000,(-12 -9 -4 1 -4 -7 -14 -17)
1969/12/31/18:00:15.136000,(-2 4 -3 -3 -8 -9 -12 -17)
1969/12/31/18:00:15.136000,(-14 -11 -1 -1 -3 -3 1 -2)
1969/12/31/18:00:15.137000,(21 26 8 4 9 9 14 14)
1969/12/31/18:00:15.137000,(14 7 6 4 2 5 9 16)
1969/12/31/18:00:15.150000,(3 1 -3 4 2 -1 -3 -5)
1969/12/31/18:00:15.150000,(35 30 0 -1 1 8 18 27)
1969/12/31/18:00:15.151000,(-28 -22 -6 -7 -14 -22 -31 -31)
1969/12/31/18:00:15.151000,(-2 -5 -3 1 1 0 -2 -4)
1969/12/31/18:00:15.173000,(10 12 6 -1 -7 -8 -10 -6)
1969/12/31/18:00:15.173000,(-2 -3 -3 -4 0 1 3 6)
1969/12/31/18:00:15.174000,(1 2 0 -1 2 8 10 8)
1969/12/31/18:00:15.174000,(9 8 4 -1 -2 1 3 4)
1969/12/31/18:00:15.196000,(-29 -20 -12 -3 -7 -13 -19 -23)
1969/12/31/18:00:15.196000,(-8 -6 6 8 0 -3 -6 -8)
1969/12/31/18:00:15.197000,(-2 7 10 7 8 11 13 8)
1969/12/31/18:00:15.197000,(71 47 1 -4 1 2 14 48)
1969/12/31/18:00:15.210000,(-41 -19 -2 -6 -4 -4 -5 -12)
1969/12/31/18:00:15.210000,(-4 -6 -4 -1 -3 -3 -3 -6)
1969/12/31/18:00:15.218000,(-21 -17 -9 0 -7 -10 -15 -21)
1969/12/31/18:00:15.218000,(15 7 3 0 6 6 9 13)
1969/12/31/18:00:15.233000,(-19 -13 -7 -6 -11 -13 -13 -18)
1969/12/31/18:00:15.233000,(17 8 3 9 16 16 17 16)
1969/12/31/18:00:15.234000,(2 -9 -6 2 6 7 11 12)
1969/12/31/18:00:15.234000,(-31 -22 -2 -1 -4 -4 -7 -16)
1969/12/31/18:00:15.256000,(15 10 1 -2 -4 -6 -7 -2)
1969/12/31/18:00:15.256000,(-24 -18 -2 1 0 -2 -5 -9)
1969/12/31/18:00:15.257000,(-3 -1 -2 -10 -12 -12 -10 -8)
1969/12/31/18:00:15.257000,(-31 -22 -6 8 0 -6 -12 -22)
1969/12/31/18:00:15.270000,(70 49 14 9 34 46 53 63)
1969/12/31/18:00:15.270000,(0 -5 -3 -5 -9 -7 -9 -4)
1969/12/31/18:00:15.278000,(1 1 -1 -3 0 1 2 3)
1969/12/31/18:00:15.278000,(-10 -3 -1 -4 -5 -6 -7 -12)
1969/12/31/18:00:15.293000,(-12 -8 -2 -1 -9 -12 -14 -17)
1969/12/31/18:00:15.293000,(3 1 -1 -5 -3 0 5 5)
1969/12/31/18:00:15.294000,(-7 -4 0 5 1 -1 -1 -3)
1969/12/31/18:00:15.294000,(-10 -8 -1 5 2 2 -2 -5)
1969/12/31/18:00:15.324000,(10 9 5 9 4 3 2 6)
1969/12/31/18:00:15.324000,(-4 -7 -5 -2 -1 2 2 2)
1969/12/31/18:00:15.324000,(8 9 3 -11 -5 1 1 4)
1969/12/31/18:00:15.324000,(-9 -9 -5 -3 -3 -6 -6 -9)
1969/12/31/18:00:15.339000,(-8 -7 -3 4 -2 -5 -7 -7)
1969/12/31/18:00:15.339000,(-4 0 3 2 -2 -3 -4 -3)
1969/12/31/18:00:15.340000,(-8 -7 -1 2 -5 -7 -8 -10)
1969/12/31/18:00:15.340000,(22 22 8 -2 11 14 18 24)
1969/12/31/18:00:15.353000,(-10 -9 -5 -20 -14 -11 -9 -12)
1969/12/31/18:00:15.353000,(6 2 1 17 11 9 9 10)
1969/12/31/18:00:15.354000,(1 -1 3 14 4 2 2 1)
1969/12/31/18:00:15.354000,(-9 -6 2 5 2 -4 -7 -8)
1969/12/31/18:00:15.376000,(0 -1 -2 -1 -9 0 0 0)
1969/12/31/18:00:15.376000,(-4 -5 -8 -18 -9 -5 -4 -4)
1969/12/31/18:00:15.377000,(-2 -3 -12 -36 -12 -6 -3 -2)
1969/12/31/18:00:15.377000,(8 4 6 19 10 7 8 6)
1969/12/31/18:00:15.377000,(-8 -13 -17 -5 -10 -10 -7 -1)
1969/12/31/18:00:15.377000,(-20 -13 -5 -66 -33 -9 -9 -15)
1969/12/31/18:00:15.390000,(9 -2 -39 -104 -3 -8 -1 2)
1969/12/31/18:00:15.390000,(-1 -1 21 64 -31 -12 -4 -3)
1969/12/31/18:00:15.398000,(-2 0 11 -57 -18 -5 -4 -3)
1969/12/31/18:00:15.398000,(19 24 40 98 84 33 16 17)
1969/12/31/18:00:15.413000,(-5 -16 -26 -59 -37 -7 -3 -2)
1969/12/31/18:00:15.413000,(-6 -9 -60 -102 -39 -14 -10 -9)
1969/12/31/18:00:15.414000,(2 -2 33 101 39 2 -2 2)
1969/12/31/18:00:15.414000,(-5 4 5 -72 -21 3 0 -3)
1969/12/31/18:00:15.436000,(-1 7 75 127 100 22 3 -1)
1969/12/31/18:00:15.436000,(-5 -2 -17 -128 -35 -14 -4 -6)
1969/12/31/18:00:15.436000,(12 5 -14 56 7 9 12 12)
1969/12/31/18:00:15.436000,(-12 -15 2 -58 -18 -12 -9 -8)
1969/12/31/18:00:15.460000,(-7 -1 -41 -82 -50 -13 -7 -6)
1969/12/31/18:00:15.460000,(15 8 3 7 27 13 7 9)
1969/12/31/18:00:15.461000,(1 16 6 -38 -66 -11 -2 -4)
1969/12/31/18:00:15.461000,(13 6 -3 81 29 8 4 7)
1969/12/31/18:00:15.475000,(-14 -15 -16 -104 17 -3 -7 -10)
1969/12/31/18:00:15.475000,(0 5 31 89 31 4 4 3)
1969/12/31/18:00:15.476000,(2 5 22 79 19 10 5 1)
1969/12/31/18:00:15.476000,(-3 -2 -4 18 59 14 3 -1)
1969/12/31/18:00:15.496000,(2 4 6 -29 -34 -6 1 4)
1969/12/31/18:00:15.496000,(-2 -6 -32 -26 0 -5 0 0)
1969/12/31/18:00:15.497000,(-4 -9 -10 -63 -46 -13 -5 -3)
1969/12/31/18:00:15.497000,(-9 -7 3 7 -1 -13 -10 -7)
1969/12/31/18:00:15.511000,(-2 0 11 62 0 2 0 -2)
1969/12/31/18:00:15.511000,(5 6 5 8 -5 1 3 8)
1969/12/31/18:00:15.512000,(-1 -5 -22 -45 -8 -2 -1 0)
1969/12/31/18:00:15.512000,(-2 1 6 1 -10 -5 -3 -4)
1969/12/31/18:00:15.533000,(3 5 5 21 7 6 4 4)
1969/12/31/18:00:15.533000,(1 1 0 -26 -9 4 -2 -1)
1969/12/31/18:00:15.534000,(-4 -4 -1 31 14 2 -3 -2)
1969/12/31/18:00:15.534000,(0 1 -1 -15 3 0 0 -1)
1969/12/31/18:00:15.556000,(3 -1 -6 -13 -12 0 3 1)
1969/12/31/18:00:15.556000,(0 0 9 5 -4 1 -1 0)
1969/12/31/18:00:15.557000,(-4 -2 8 30 19 2 -2 -4)
1969/12/31/18:00:15.557000,(0 0 -3 -16 -6 -3 -1 1)
1969/12/31/18:00:15.571000,(-3 -5 -5 4 -11 -5 -2 -1)
1969/12/31/18:00:15.571000,(0 -2 0 -11 -7 -4 0 -1)
1969/12/31/18:00:15.572000,(0 -1 -2 15 8 -1 -1 0)
1969/12/31/18:00:15.572000,(-1 -2 -5 -16 -8 -4 -1 -1)
1969/12/31/18:00:15.595000,(0 -2 -1 7 -3 -1 -1 0)
1969/12/31/18:00:15.595000,(0 0 4 5 7 2 -1 -1)
1969/12/31/18:00:15.596000,(0 -1 -6 -12 -6 -1 -1 -3)
1969/12/31/18:00:15.596000,(3 2 -1 -8 -3 -1 1 2)
1969/12/31/18:00:15.616000,(-1 2 4 4 0 2 -1 -3)
1969/12/31/18:00:15.616000,(0 1 1 6 2 4 -1 1)
1969/12/31/18:00:15.617000,(0 -1 -4 -4 -3 2 0 -1)
1969/12/31/18:00:15.617000,(-6 -2 0 -8 0 2 1 -1)
1969/12/31/18:00:15.631000,(-1 -1 5 10 0 -1 0 -2)
1969/12/31/18:00:15.631000,(2 3 1 4 1 -2 -1 -4)
1969/12/31/18:00:15.631000,(-2 -3 -6 2 -1 -4 0 1)
1969/12/31/18:00:15.632000,(2 0 -3 -5 -2 -2 -1 0)
1969/12/31/18:00:15.653000,(-6 -3 -2 -2 -3 -3 -1 1)
1969/12/31/18:00:15.653000,(-1 -3 0 -1 -3 -1 -1 0)
1969/12/31/18:00:15.654000,(0 0 1 8 6 5 0 -1)
1969/12/31/18:00:15.654000,(0 3 3 1 4 3 1 -2)
1969/12/31/18:00:15.676000,(2 2 3 5 1 3 2 0)
1969/12/31/18:00:15.676000,(-1 -1 0 -3 -2 -1 -2 -1)
1969/12/31/18:00:15.677000,(3 0 -5 -13 -4 -2 1 2)
1969/12/31/18:00:15.677000,(2 -1 1 3 0 0 2 3)
1969/12/31/18:00:15.691000,(-4 -2 0 3 -1 -6 -3 -2)
1969/12/31/18:00:15.691000,(-17 -7 2 6 0 -5 -4 -11)
1969/12/31/18:00:15.692000,(-12 -11 -7 -10 -5 -5 -1 -3)
1969/12/31/18:00:15.692000,(37 26 11 8 9 9 9 17)
1969/12/31/18:00:15.713000,(-6 -7 -7 -7 -10 -8 -7 -7)
1969/12/31/18:00:15.713000,(6 2 -1 -1 0 2 1 4)
1969/12/31/18:00:15.714000,(-8 -2 -4 -12 -7 -3 -3 -4)
1969/12/31/18:00:15.714000,(-10 -8 -6 -12 -19 -2 -1 -1)
1969/12/31/18:00:15.737000,(8 6 9 33 40 14 7 5)
1969/12/31/18:00:15.737000,(-4 0 2 1 1 0 -1 0)
1969/12/31/18:00:15.737000,(7 5 2 3 4 1 -2 -3)
1969/12/31/18:00:15.737000,(-9 -8 -6 -16 -9 -3 -2 0)
1969/12/31/18:00:15.751000,(-1 -3 -13 -50 -28 -7 -1 0)
1969/12/31/18:00:15.751000,(-3 -2 4 26 7 3 0 -1)
1969/12/31/18:00:15.751000,(6 4 13 39 30 7 3 2)
1969/12/31/18:00:15.751000,(-3 -4 -5 -9 -10 -10 -8 -7)
1969/12/31/18:00:15.773000,(-9 -3 0 3 -1 4 5 1)
1969/12/31/18:00:15.773000,(7 1 1 -1 4 -2 3 4)
1969/12/31/18:00:15.774000,(-10 1 -3 -14 -13 0 -4 -10)
1969/12/31/18:00:15.774000,(-6 -5 -1 4 4 -4 -6 -6)
1969/12/31/18:00:15.804000,(11 6 1 -2 -4 -6 -5 -2)
1969/12/31/18:00:15.804000,(-6 -6 -5 -14 -8 -5 -5 -4)
1969/12/31/18:00:15.805000,(8 3 -2 3 -2 -2 -1 5)
1969/12/31/18:00:15.805000,(3 -3 -2 2 5 2 4 2)
1969/12/31/18:00:15.811000,(-6 -2 -2 -11 -16 -2 -2 -1)
1969/12/31/18:00:15.811000,(-5 0 1 9 3 -3 -4 -9)
1969/12/31/18:00:15.811000,(-2 -1 -8 -23 -11 0 5 5)
1969/12/31/18:00:15.811000,(-10 -9 -35 -104 -24 -7 -5 -8)
1969/12/31/18:00:15.835000,(7 4 22 96 23 2 0 3)
1969/12/31/18:00:15.835000,(0 8 37 86 48 14 6 2)
1969/12/31/18:00:15.836000,(-11 -8 -1 -4 0 -2 -3 -7)
1969/12/31/18:00:15.836000,(-22 1 4 -3 -5 3 3 -4)
1969/12/31/18:00:15.856000,(35 11 -13 -49 -14 3 12 18)
1969/12/31/18:00:15.856000,(12 -5 -27 -57 -30 -18 -18 -8)
1969/12/31/18:00:15.856000,(-24 -5 0 3 -3 -4 -4 -3)
1969/12/31/18:00:15.856000,(32 -18 5 17 6 1 -1 -2)
1969/12/31/18:00:15.879000,(-13 0 -3 -14 -5 -2 -5 -1)
1969/12/31/18:00:15.879000,(-1 5 3 4 0 5 10 9)
1969/12/31/18:00:15.880000,(12 3 -3 -5 -2 0 1 5)
1969/12/31/18:00:15.880000,(-22 -7 -2 0 -5 -7 -6 -8)
1969/12/31/18:00:15.901000,(-10 -5 6 19 9 -1 -3 -8)
1969/12/31/18:00:15.901000,(15 5 0 -7 -5 1 2 1)
1969/12/31/18:00:15.902000,(-8 -9 -6 -9 -3 -1 0 2)
1969/12/31/18:00:15.902000,(-6 10 15 36 12 -2 -4 -7)
1969/12/31/18:00:15.916000,(14 -4 -4 -34 -13 -1 -1 1)
1969/12/31/18:00:15.916000,(-3 -1 -15 -42 -22 -8 -9 -5)
1969/12/31/18:00:15.917000,(9 -4 -4 32 10 -3 0 0)
1969/12/31/18:00:15.917000,(-22 -5 10 51 27 6 3 4)
1969/12/31/18:00:15.931000,(-4 4 4 -1 2 4 -6 -19)
1969/12/31/18:00:15.931000,(51 22 0 -12 -9 -7 0 18)
1969/12/31/18:00:15.931000,(-4 -6 -3 -29 -15 -5 -7 -10)
1969/12/31/18:00:15.931000,(-24 -15 -5 -8 -6 -5 -11 -9)
1969/12/31/18:00:15.953000,(-20 -5 -2 6 6 1 0 -3)
1969/12/31/18:00:15.953000,(-1 -3 -9 -45 -9 5 10 11)
1969/12/31/18:00:15.954000,(7 6 4 26 -4 -2 2 5)
1969/12/31/18:00:15.954000,(10 16 15 29 10 7 6 2)
1969/12/31/18:00:15.976000,(-2 -3 2 11 20 10 7 3)
1969/12/31/18:00:15.976000,(-11 -10 -17 -43 -6 0 -4 -8)
1969/12/31/18:00:15.977000,(7 2 -1 -10 -11 -5 1 4)
1969/12/31/18:00:15.977000,(-3 -1 17 57 15 -2 -4 -6)
1969/12/31/18:00:15.991000,(-6 2 6 16 4 1 -1 -3)
1969/12/31/18:00:15.991000,(-11 -9 -2 1 0 -3 -5 -4)
1969/12/31/18:00:15.991000,(-10 -6 -13 -41 -14 -1 -2 -8)
1969/12/31/18:00:15.992000,(12 3 -11 -39 -21 -4 2 4)
1969/12/31/18:00:16.013000,(-7 -5 0 33 17 -4 -2 -1)
1969/12/31/18:00:16.013000,(-3 0 6 28 16 8 7 5)
1969/12/31/18:00:16.014000,(-3 0 -1 -12 -2 0 0 -3)
1969/12/31/18:00:16.014000,(-3 -11 -19 -65 -25 -12 -2 5)
1969/12/31/18:00:16.036000,(24 21 -11 -37 -19 2 3 3)
1969/12/31/18:00:16.036000,(-18 -8 15 46 -5 -3 -3 -12)
1969/12/31/18:00:16.037000,(13 5 15 13 13 9 5 8)
1969/12/31/18:00:16.037000,(3 0 -9 19 25 6 1 1)
1969/12/31/18:00:16.059000,(-4 -4 8 28 8 -3 -1 4)
1969/12/31/18:00:16.059000,(-1 3 8 14 10 7 4 1)
1969/12/31/18:00:16.060000,(-2 -2 -8 -17 -10 -1 -1 -2)
1969/12/31/18:00:16.060000,(9 4 0 2 1 1 2 6)
1969/12/31/18:00:16.082000,(-5 -8 -14 -56 -16 -6 -4 -3)
1969/12/31/18:00:16.082000,(-11 -3 -4 4 -7 -3 -2 -6)
1969/12/31/18:00:16.082000,(-2 5 12 27 13 4 2 8)
1969/12/31/18:00:16.082000,(31 5 -3 -19 -6 4 3 4)
1969/12/31/18:00:16.096000,(-3 -4 -1 10 -9 -9 -9 -11)
1969/12/31/18:00:16.096000,(-25 -17 -5 -32 -7 -4 2 8)
1969/12/31/18:00:16.096000,(-8 0 -2 9 3 4 2 -3)
1969/12/31/18:00:16.097000,(42 23 9 32 12 7 5 6)
1969/12/31/18:00:16.111000,(-5 -7 0 -7 0 -3 -4 2)
1969/12/31/18:00:16.111000,(-13 -3 3 13 -7 1 -1 -13)
1969/12/31/18:00:16.112000,(1 -4 -11 -27 -1 -3 0 7)
1969/12/31/18:00:16.112000,(-13 -6 -25 -90 -30 0 5 2)
1969/12/31/18:00:16.133000,(-4 -10 -19 -8 -42 -14 -3 -3)
1969/12/31/18:00:16.133000,(11 8 35 88 40 14 4 4)
1969/12/31/18:00:16.134000,(-2 11 46 122 101 25 2 -5)
1969/12/31/18:00:16.134000,(-7 1 7 -3 6 7 -4 -6)
1969/12/31/18:00:16.157000,(1 -2 -5 -17 -1 -1 -2 3)
1969/12/31/18:00:16.157000,(1 -4 -27 -75 -42 -16 -7 -3)
1969/12/31/18:00:16.158000,(6 -1 -10 -6 -29 -13 -5 -2)
1969/12/31/18:00:16.158000,(-11 -5 1 0 5 -6 -3 -3)
1969/12/31/18:00:16.171000,(-5 -6 -6 -19 -11 -3 -1 0)
1969/12/31/18:00:16.171000,(10 4 -9 -3 -7 -3 1 3)
1969/12/31/18:00:16.172000,(0 -4 -6 -49 -15 0 3 -1)
1969/12/31/18:00:16.172000,(-3 -2 -8 3 -1 -4 -1 1)
1969/12/31/18:00:16.193000,(0 4 12 7 -5 2 3 3)
1969/12/31/18:00:16.193000,(-3 2 3 23 10 -1 -3 -8)
1969/12/31/18:00:16.194000,(3 -2 -8 -16 5 -1 -1 0)
1969/12/31/18:00:16.194000,(-3 -2 4 8 -10 1 2 1)
1969/12/31/18:00:16.217000,(1 2 12 27 16 8 4 2)
1969/12/31/18:00:16.217000,(0 4 13 20 20 4 -1 -1)
1969/12/31/18:00:16.217000,(0 -1 -2 8 -13 -8 -6 -3)
1969/12/31/18:00:16.217000,(-8 -3 -2 9 -8 -3 -3 -4)
1969/12/31/18:00:16.230000,(-4 -4 0 6 8 1 -2 -2)
1969/12/31/18:00:16.230000,(6 1 -10 -38 -2 4 6 7)
1969/12/31/18:00:16.238000,(-3 -8 -15 -14 -23 -15 -15 -15)
1969/12/31/18:00:16.238000,(-1 -2 5 11 1 -3 -4 -2)
1969/12/31/18:00:16.254000,(-9 -2 2 0 11 4 -2 -5)
1969/12/31/18:00:16.254000,(3 -3 -11 -6 -3 -1 5 9)
1969/12/31/18:00:16.255000,(-5 -4 -6 -26 -9 0 -3 -9)
1969/12/31/18:00:16.255000,(6 1 -17 -51 -16 -3 3 7)
1969/12/31/18:00:16.284000,(1 5 19 74 14 2 0 0)
1969/12/31/18:00:16.284000,(-5 2 17 38 11 4 -5 -9)
1969/12/31/18:00:16.285000,(0 0 3 8 0 2 3 2)
1969/12/31/18:00:16.285000,(3 0 1 -2 1 -2 1 2)
1969/12/31/18:00:16.290000,(-7 1 -15 -40 -4 -1 0 -4)
1969/12/31/18:00:16.290000,(4 -4 6 5 6 4 1 3)
1969/12/31/18:00:16.298000,(-4 -1 2 3 -2 0 4 3)
1969/12/31/18:00:16.298000,(-10 -2 3 16 -4 -10 -12 -11)
1969/12/31/18:00:16.313000,(7 -6 -5 -21 0 7 15 22)
1969/12/31/18:00:16.313000,(-16 12 -2 -16 3 4 -3 -13)
1969/12/31/18:00:16.314000,(-37 -25 -17 -21 -17 -13 -12 -18)
1969/12/31/18:00:16.314000,(34 11 5 25 13 11 12 22)
1969/12/31/18:00:16.337000,(-24 -12 -3 3 -3 -9 -16 -19)
1969/12/31/18:00:16.337000,(31 16 0 -13 -6 0 6 11)
1969/12/31/18:00:16.337000,(-13 -14 -4 -24 -1 5 6 4)
1969/12/31/18:00:16.337000,(-18 -8 -1 36 5 -4 -3 -12)
1969/12/31/18:00:16.350000,(3 6 4 -10 2 3 5 3)
1969/12/31/18:00:16.350000,(4 -3 -2 8 -2 -1 1 4)
1969/12/31/18:00:16.358000,(9 16 22 23 3 -1 -1 3)
1969/12/31/18:00:16.358000,(-56 -23 15 23 4 -1 -10 -25)
1969/12/31/18:00:16.373000,(97 53 12 20 12 18 27 49)
1969/12/31/18:00:16.373000,(-36 -33 -21 -18 -16 -25 -32 -31)
1969/12/31/18:00:16.374000,(74 30 -4 -16 -1 5 12 25)
1969/12/31/18:00:16.374000,(-109 -48 -16 -22 -12 -13 -20 -37)
1969/12/31/18:00:16.397000,(65 31 5 -1 3 8 10 16)
1969/12/31/18:00:16.397000,(32 11 1 -19 -8 -1 3 22)
1969/12/31/18:00:16.397000,(18 1 4 24 11 9 13 14)
1969/12/31/18:00:16.397000,(-1 -5 7 5 0 3 3 3)
1969/12/31/18:00:16.419000,(3 10 -12 -15 0 -6 -3 3)
1969/12/31/18:00:16.419000,(-1 -8 -22 -37 -9 4 6 5)
1969/12/31/18:00:16.420000,(-3 10 17 23 -6 -1 0 0)
1969/12/31/18:00:16.420000,(27 17 16 28 21 13 12 12)
1969/12/31/18:00:16.434000,(-69 -41 10 35 8 -6 -11 -12)
1969/12/31/18:00:16.434000,(44 39 11 21 3 -3 1 -2)
1969/12/31/18:00:16.434000,(-84 -51 -29 -24 -8 1 -5 -24)
1969/12/31/18:00:16.434000,(110 73 -4 -37 -8 0 9 32)
1969/12/31/18:00:16.456000,(-82 -46 -19 -24 -16 -19 -25 -40)
1969/12/31/18:00:16.456000,(-21 10 13 21 -1 -2 6 6)
1969/12/31/18:00:16.457000,(-28 -48 -15 5 4 3 2 -15)
1969/12/31/18:00:16.457000,(33 20 4 -11 -4 -5 1 22)
1969/12/31/18:00:16.479000,(46 45 -3 -22 -5 -5 -11 -9)
1969/12/31/18:00:16.479000,(-37 -15 1 -17 -10 -1 -1 -6)
1969/12/31/18:00:16.480000,(7 -3 -1 7 -6 -15 -20 -10)
1969/12/31/18:00:16.480000,(-54 -30 -8 -18 3 10 10 -7)
1969/12/31/18:00:16.493000,(25 5 -2 11 -2 2 12 24)
1969/12/31/18:00:16.493000,(-25 -22 -5 7 2 0 -4 -17)
1969/12/31/18:00:16.494000,(18 23 6 -2 9 10 9 13)
1969/12/31/18:00:16.494000,(-14 -4 25 79 20 -4 -11 -14)
1969/12/31/18:00:16.517000,(-12 0 19 70 27 4 1 -6)
1969/12/31/18:00:16.517000,(8 1 8 5 -3 2 4 2)
1969/12/31/18:00:16.517000,(-39 -8 -6 -49 -22 -11 -8 -8)
1969/12/31/18:00:16.517000,(-5 -5 -22 -23 -5 2 -1 -9)
1969/12/31/18:00:16.530000,(38 28 3 -41 -7 10 16 16)
1969/12/31/18:00:16.530000,(41 -10 -5 -5 7 9 13 16)
1969/12/31/18:00:16.538000,(9 38 -2 -15 -11 -11 -12 2)
1969/12/31/18:00:16.538000,(-18 -21 -14 -16 -16 -14 -13 -22)
1969/12/31/18:00:16.563000,(-31 -25 -5 -2 1 1 -2 -9)
1969/12/31/18:00:16.563000,(-18 -6 -3 -19 1 7 8 6)
1969/12/31/18:00:16.564000,(28 20 12 23 9 7 9 11)
1969/12/31/18:00:16.564000,(6 -4 0 0 1 6 7 6)
1969/12/31/18:00:16.577000,(-32 -20 -1 6 3 -3 -7 -15)
1969/12/31/18:00:16.577000,(5 12 15 26 6 1 -3 2)
1969/12/31/18:00:16.577000,(-13 -17 -5 18 2 -6 -7 -9)
1969/12/31/18:00:16.577000,(7 -4 -4 -25 -11 4 10 14)
1969/12/31/18:00:16.599000,(-10 5 -5 -9 7 17 15 4)
1969/12/31/18:00:16.599000,(-17 -16 1 6 3 -5 -3 8)
1969/12/31/18:00:16.600000,(75 53 11 0 2 -3 -9 -3)
1969/12/31/18:00:16.600000,(-45 -38 -10 -21 -7 -2 3 -3)
1969/12/31/18:00:16.621000,(36 28 -2 -9 -13 -6 -5 4)
1969/12/31/18:00:16.621000,(14 2 0 3 8 9 12 18)
1969/12/31/18:00:16.622000,(-9 -4 4 2 4 3 4 2)
1969/12/31/18:00:16.622000,(40 25 3 2 -2 -10 -9 2)
1969/12/31/18:00:16.637000,(-45 -32 3 -2 -3 -5 -1 -14)
1969/12/31/18:00:16.637000,(-5 2 -5 0 1 0 0 -7)
1969/12/31/18:00:16.638000,(20 9 1 -2 0 4 10 21)
1969/12/31/18:00:16.638000,(-18 -4 4 16 4 2 -11 -24)
1969/12/31/18:00:16.659000,(-40 -24 2 -4 -4 -4 -4 -10)
1969/12/31/18:00:16.659000,(47 27 -15 -18 -6 -1 9 14)
1969/12/31/18:00:16.660000,(4 -12 -4 3 -2 -11 -12 -3)
1969/12/31/18:00:16.660000,(-27 -13 0 8 9 8 13 2)
1969/12/31/18:00:16.673000,(25 22 1 -5 -5 -6 -11 -3)
1969/12/31/18:00:16.673000,(-85 -63 -17 -8 -15 -22 -33 -46)
1969/12/31/18:00:16.674000,(-38 27 6 -2 7 18 22 0)
1969/12/31/18:00:16.674000,(119 61 2 -1 -2 -5 6 43)
1969/12/31/18:00:16.697000,(-34 -17 -9 -13 -10 -10 -11 -14)
1969/12/31/18:00:16.697000,(-14 -4 5 8 4 -1 -1 -8)
1969/12/31/18:00:16.697000,(-26 -22 4 5 2 -1 -5 -5)
1969/12/31/18:00:16.697000,(-4 3 5 -2 -3 -2 -1 0)
1969/12/31/18:00:16.719000,(-23 -20 -8 -5 -7 -8 -10 -15)
1969/12/31/18:00:16.719000,(0 7 5 4 4 7 7 6)
1969/12/31/18:00:16.720000,(16 -6 -12 -8 0 6 11 16)
1969/12/31/18:00:16.720000,(1 11 2 5 7 8 4 1)
1969/12/31/18:00:16.733000,(0 -21 -4 -2 0 5 12 17)
1969/12/31/18:00:16.733000,(14 6 5 1 -6 -11 -16 -8)
1969/12/31/18:00:16.734000,(-77 -56 -20 -2 3 0 4 -13)
1969/12/31/18:00:16.734000,(38 34 9 -1 -3 -10 -22 3)
1969/12/31/18:00:16.757000,(-27 -7 -3 -2 1 0 0 -8)
1969/12/31/18:00:16.757000,(7 23 -4 -4 -5 -1 4 21)
1969/12/31/18:00:16.757000,(-96 -48 -5 -6 -13 -28 -45 -81)
1969/12/31/18:00:16.757000,(74 34 14 13 23 42 73 92)
1969/12/31/18:00:16.779000,(-85 -82 -20 -13 -15 -25 -48 -77)
1969/12/31/18:00:16.779000,(91 73 13 3 11 22 34 73)
1969/12/31/18:00:16.780000,(50 26 8 9 10 8 10 17)
1969/12/31/18:00:16.780000,(-44 -12 0 1 -2 -2 -7 -23)
1969/12/31/18:00:16.793000,(23 14 5 -2 -4 0 8 14)
1969/12/31/18:00:16.793000,(-53 -38 0 8 5 1 -3 -25)
1969/12/31/18:00:16.794000,(21 14 5 4 2 2 2 11)
1969/12/31/18:00:16.794000,(-31 -24 -10 -6 -8 -8 -6 -6)
1969/12/31/18:00:16.817000,(9 4 9 8 14 20 25 19)
1969/12/31/18:00:16.817000,(49 9 -5 -2 -10 -19 -16 18)
1969/12/31/18:00:16.818000,(23 28 0 -3 -5 -13 -17 -12)
1969/12/31/18:00:16.818000,(-97 -67 -7 3 -3 -10 -24 -52)
1969/12/31/18:00:16.839000,(83 79 4 2 13 23 33 59)
1969/12/31/18:00:16.839000,(-32 -14 -9 -9 -5 -4 -14 -22)
1969/12/31/18:00:16.841000,(24 -6 0 -1 -4 1 6 22)
1969/12/31/18:00:16.841000,(0 3 3 3 1 -3 0 3)
1969/12/31/18:00:16.853000,(-47 -27 -1 0 -10 -11 -23 -30)
1969/12/31/18:00:16.853000,(22 10 -2 -13 10 20 24 26)
1969/12/31/18:00:16.862000,(67 48 7 -5 -1 7 9 37)
1969/12/31/18:00:16.862000,(-83 -51 5 8 -3 -8 -22 -50)
1969/12/31/18:00:16.877000,(91 68 14 1 3 10 22 42)
1969/12/31/18:00:16.877000,(-49 -15 6 13 -3 -15 -12 -35)
1969/12/31/18:00:16.878000,(-1 -13 -2 1 8 5 10 11)
1969/12/31/18:00:16.878000,(15 -8 -15 -7 -8 -9 -1 6)
1969/12/31/18:00:16.899000,(-13 -8 -4 -10 -13 -27 -31 -21)
1969/12/31/18:00:16.899000,(-8 -3 -6 3 6 7 2 -19)
1969/12/31/18:00:16.901000,(-51 -41 -6 -1 -9 -10 -9 -23)
1969/12/31/18:00:16.901000,(-9 -2 -1 4 1 -1 -1 3)
1969/12/31/18:00:16.929000,(27 -9 -8 -3 -7 -7 -4 10)
1969/12/31/18:00:16.929000,(-45 -33 -20 -11 -13 -16 -18 -28)
1969/12/31/18:00:16.931000,(-66 -39 -3 2 4 5 -3 -18)
1969/12/31/18:00:16.931000,(23 10 3 -1 -17 -24 -35 -33)
1969/12/31/18:00:16.937000,(23 8 -3 -1 19 32 36 32)
1969/12/31/18:00:16.937000,(-53 -22 -4 -5 -9 -12 -30 -62)
1969/12/31/18:00:16.938000,(0 13 5 4 5 7 -6 -12)
1969/12/31/18:00:16.938000,(-13 0 8 -5 -8 -8 -10 -5)
1969/12/31/18:00:16.959000,(-21 -6 -1 -4 -6 -8 -11 -14)
1969/12/31/18:00:16.959000,(-8 -1 -7 -12 0 7 7 1)
1969/12/31/18:00:16.960000,(-16 -38 -14 -7 -12 -12 -15 -11)
1969/12/31/18:00:16.960000,(12 49 -8 -22 -4 2 -6 -17)
1969/12/31/18:00:16.973000,(-63 -31 9 10 -10 -18 -21 -40)
1969/12/31/18:00:16.973000,(-6 -28 1 1 9 12 16 30)
1969/12/31/18:00:16.982000,(-3 2 -4 -4 -1 6 13 3)
