time,.data
1969/12/31/18:00:06.690,(2 11 0 0 -4 -2 4 -5)
1969/12/31/18:00:06.690,(1 7 5 22 18 3 -3 -4)
1969/12/31/18:00:06.691,(-1 -13 -6 -3 -2 0 2 1)
1969/12/31/18:00:06.691,(-5 -5 -15 -19 -10 -6 -2 -2)
1969/12/31/18:00:06.699,(-4 -4 -7 -8 -6 -1 1 1)
1969/12/31/18:00:06.699,(1 9 15 0 -7 -4 -6 -9)
1969/12/31/18:00:06.701,(5 3 -2 1 4 -7 -4 3)
1969/12/31/18:00:06.701,(1 7 9 -2 -1 -3 0 3)
1969/12/31/18:00:06.730,(-4 -4 -2 5 8 1 1 1)
1969/12/31/18:00:06.730,(-4 -16 -29 -21 -7 -6 -2 -4)
1969/12/31/18:00:06.731,(-1 -1 3 1 0 -2 1 1)
1969/12/31/18:00:06.731,(0 4 -2 -2 1 -2 6 7)
1969/12/31/18:00:06.774,(2 4 2 7 9 -4 -3 1)
1969/12/31/18:00:06.774,(-1 0 -7 -11 -9 -10 -3 -1)
1969/12/31/18:00:06.774,(0 0 2 1 2 1 6 7)
1969/12/31/18:00:06.774,(-2 -16 -9 -3 -2 -1 -2 -3)
1969/12/31/18:00:06.804,(-1 1 5 4 5 -1 -2 2)
1969/12/31/18:00:06.804,(-3 15 15 5 -1 0 -1 -5)
1969/12/31/18:00:06.805,(-1 -8 -6 -3 -3 1 -2 1)
1969/12/31/18:00:06.805,(-3 12 16 5 3 1 -4 -9)
1969/12/31/18:00:06.813,(2 -6 -18 -5 -2 1 2 8)
1969/12/31/18:00:06.813,(-2 -1 -1 -5 -8 -6 -10 -11)
1969/12/31/18:00:06.815,(-13 -18 -8 -3 1 4 8 9)
1969/12/31/18:00:06.815,(4 4 2 2 2 -1 -8 -8)
1969/12/31/18:00:06.845,(-7 -9 1 1 -1 1 4 1)
1969/12/31/18:00:06.845,(2 -13 -20 -13 -7 -1 2 4)
1969/12/31/18:00:06.847,(3 6 2 1 -1 -1 -3 -1)
1969/12/31/18:00:06.847,(-7 15 12 -3 -4 -5 0 1)
1969/12/31/18:00:06.866,(4 3 2 5 3 -2 -1 1)
1969/12/31/18:00:06.866,(-5 -7 -9 -6 0 -1 -5 -7)
1969/12/31/18:00:06.868,(3 -2 1 2 -2 -3 -11 -12)
1969/12/31/18:00:06.868,(-10 -20 -13 -8 -5 0 10 0)
1969/12/31/18:00:06.897,(10 17 14 7 4 1 -7 8)
1969/12/31/18:00:06.897,(5 4 0 2 1 -3 -9 -1)
1969/12/31/18:00:06.898,(-4 -3 -2 -2 -1 -3 -9 -16)
1969/12/31/18:00:06.898,(20 1 -4 -2 -1 -1 4 13)
1969/12/31/18:00:06.929,(-17 -1 1 -1 0 1 3 -4)
1969/12/31/18:00:06.929,(4 -7 -7 -6 -6 -1 3 0)
1969/12/31/18:00:06.930,(-21 6 8 8 6 0 -11 -13)
1969/12/31/18:00:06.930,(16 6 -4 0 -1 -3 -3 0)
1969/12/31/18:00:06.950,(-11 -6 -3 -3 -2 -5 0 -4)
1969/12/31/18:00:06.950,(-12 -9 -5 -3 -1 -6 -3 3)
1969/12/31/18:00:06.951,(9 3 -1 -3 0 -2 9 13)
1969/12/31/18:00:06.951,(-6 -7 -10 -5 0 0 -1 -1)
1969/12/31/18:00:06.983,(-2 9 10 9 2 -20 -9 -12)
1969/12/31/18:00:06.984,(18 8 -2 -4 -2 1 10 23)
1969/12/31/18:00:06.984,(22 13 10 1 2 -2 6 8)
1969/12/31/18:00:06.984,(4 -6 3 -1 -2 2 -17 -10)
1969/12/31/18:00:07.012,(-52 -21 0 -1 -2 9 -28 -37)
1969/12/31/18:00:07.012,(5 -1 4 -2 -7 12 21 9)
1969/12/31/18:00:07.014,(24 12 12 9 1 7 -3 9)
1969/12/31/18:00:07.014,(48 18 10 9 4 10 10 18)
1969/12/31/18:00:07.033,(-45 -25 -8 -6 -8 7 -4 -34)
1969/12/31/18:00:07.033,(7 -5 -8 -6 -8 -19 -11 21)
1969/12/31/18:00:07.034,(5 -3 -2 -2 -4 3 11 -9)
1969/12/31/18:00:07.034,(-47 -20 -12 -7 -5 -6 0 -7)
1969/12/31/18:00:07.064,(44 12 4 3 6 0 12 22)
1969/12/31/18:00:07.064,(1 4 -1 0 6 24 15 9)
1969/12/31/18:00:07.065,(5 0 -14 -13 -15 -28 -15 -14)
1969/12/31/18:00:07.065,(10 0 5 8 9 14 -20 1)
1969/12/31/18:00:07.096,(-31 -15 -11 -5 -1 12 -2 -18)
1969/12/31/18:00:07.096,(18 15 12 2 -6 -21 7 10)
1969/12/31/18:00:07.097,(-5 -2 -2 1 3 10 10 12)
1969/12/31/18:00:07.097,(-41 -12 -5 -5 -5 -7 21 29)
1969/12/31/18:00:07.116,(2 4 2 6 5 4 -1 8)
1969/12/31/18:00:07.116,(6 1 -8 -6 2 29 -35 -68)
1969/12/31/18:00:07.118,(-57 -32 -10 -5 -14 -57 -18 -25)
1969/12/31/18:00:07.118,(78 38 8 0 4 -2 35 64)
1969/12/31/18:00:07.148,(-41 -24 -4 -4 -3 17 -19 -44)
1969/12/31/18:00:07.148,(-22 7 -2 -3 0 -11 -6 -22)
1969/12/31/18:00:07.150,(23 20 6 3 8 42 30 20)
1969/12/31/18:00:07.150,(-37 -51 -19 -10 -10 -46 -40 -29)
1969/12/31/18:00:07.180,(30 16 1 0 -3 -8 9 23)
1969/12/31/18:00:07.180,(-12 -10 -3 2 7 8 -3 -18)
1969/12/31/18:00:07.182,(-2 -1 6 3 0 -7 -29 8)
1969/12/31/18:00:07.182,(-7 15 10 10 11 20 10 -23)
1969/12/31/18:00:07.200,(61 18 6 4 1 -19 -10 40)
1969/12/31/18:00:07.200,(-22 -6 2 2 -3 13 10 -2)
1969/12/31/18:00:07.201,(21 9 -2 -1 7 29 30 73)
1969/12/31/18:00:07.201,(-39 -15 -9 -5 -10 0 -13 -66)
1969/12/31/18:00:07.230,(33 21 2 2 7 11 -5 33)
1969/12/31/18:00:07.230,(-40 -26 -9 -5 -12 -33 5 -22)
1969/12/31/18:00:07.232,(36 12 3 0 2 12 20 25)
1969/12/31/18:00:07.232,(-6 15 14 11 14 43 1 -19)
1969/12/31/18:00:07.262,(-24 -23 -12 -8 -8 -41 1 15)
1969/12/31/18:00:07.262,(13 6 -2 -3 1 22 -9 2)
1969/12/31/18:00:07.264,(-41 -33 -12 -3 -3 -5 -11 -26)
1969/12/31/18:00:07.264,(33 21 7 4 -9 1 20 29)
1969/12/31/18:00:07.283,(9 -4 -4 -1 9 0 6 -2)
1969/12/31/18:00:07.283,(-14 -23 -12 -5 -1 -9 -2 11)
1969/12/31/18:00:07.285,(2 11 6 5 9 32 -10 -27)
1969/12/31/18:00:07.285,(30 22 9 7 1 -23 -54 16)
1969/12/31/18:00:07.314,(3 6 -1 -3 -9 -5 27 29)
1969/12/31/18:00:07.314,(16 -1 7 5 6 3 -3 14)
1969/12/31/18:00:07.315,(2 -5 -9 -10 -5 12 16 4)
1969/12/31/18:00:07.315,(10 1 -3 -3 -1 -4 6 14)
1969/12/31/18:00:07.346,(7 7 8 7 4 -3 -12 -28)
1969/12/31/18:00:07.346,(22 18 6 8 9 -15 -3 -59)
1969/12/31/18:00:07.347,(-11 -9 -11 -12 -8 -8 20 5)
1969/12/31/18:00:07.347,(-20 -8 -2 -1 4 2 -2 -13)
1969/12/31/18:00:07.368,(19 -2 -2 -2 -14 -64 -8 9)
1969/12/31/18:00:07.368,(-25 -7 -4 -3 -2 -6 12 5)
1969/12/31/18:00:07.376,(3 -2 -3 -2 -1 3 -17 25)
1969/12/31/18:00:07.376,(-13 -9 -4 -8 -7 -19 -12 -43)
1969/12/31/18:00:07.397,(-14 10 6 5 7 39 14 -27)
1969/12/31/18:00:07.397,(47 22 11 8 4 3 -29 47)
1969/12/31/18:00:07.399,(-25 -25 -6 -2 -8 -19 -15 -34)
1969/12/31/18:00:07.399,(8 6 1 1 5 15 7 18)
1969/12/31/18:00:07.429,(-4 6 -6 -10 -9 9 25 17)
1969/12/31/18:00:07.429,(-23 -13 2 -2 -3 -1 -8 -8)
1969/12/31/18:00:07.431,(-2 4 3 3 2 -11 -20 -48)
1969/12/31/18:00:07.431,(11 -9 -9 -8 -6 -15 -12 3)
1969/12/31/18:00:07.450,(-25 -2 1 -2 -2 -1 -11 -27)
1969/12/31/18:00:07.450,(18 12 -2 -5 -6 -9 9 19)
1969/12/31/18:00:07.452,(9 -1 4 3 1 4 8 -3)
1969/12/31/18:00:07.452,(-63 -22 -8 -3 -3 -18 10 -57)
1969/12/31/18:00:07.481,(6 -7 -6 -4 -4 -16 -20 1)
1969/12/31/18:00:07.481,(11 9 3 2 5 24 2 -9)
1969/12/31/18:00:07.482,(33 24 17 13 10 5 15 48)
1969/12/31/18:00:07.482,(10 3 -2 -1 1 4 5 9)
1969/12/31/18:00:07.513,(-9 -17 -13 -11 -9 -5 -31 -24)
1969/12/31/18:00:07.513,(-29 -1 3 2 2 6 0 0)
1969/12/31/18:00:07.514,(-8 -6 -7 -7 -12 -50 6 -13)
1969/12/31/18:00:07.514,(6 0 4 4 1 -1 -4 10)
1969/12/31/18:00:07.534,(4 12 1 -3 -1 23 10 5)
1969/12/31/18:00:07.534,(1 -8 1 1 1 2 14 27)
1969/12/31/18:00:07.535,(-12 0 -2 0 -2 4 -15 -9)
1969/12/31/18:00:07.535,(-21 -19 -11 -9 -7 -5 -5 -8)
1969/12/31/18:00:07.567,(22 5 -1 -5 -1 10 17 10)
1969/12/31/18:00:07.567,(5 -3 -4 -5 -13 -1 17 28)
1969/12/31/18:00:07.567,(7 -4 0 1 8 14 -13 43)
1969/12/31/18:00:07.567,(-71 -10 -1 0 0 -10 3 -62)
1969/12/31/18:00:07.596,(29 1 1 2 8 63 14 -16)
1969/12/31/18:00:07.596,(-28 -11 -6 -6 7 -102 -68 -44)
1969/12/31/18:00:07.598,(-16 -1 1 14 24 65 43 -11)
1969/12/31/18:00:07.598,(24 5 -6 -21 -60 -34 1 13)
1969/12/31/18:00:07.616,(-33 -17 -13 -18 -34 2 -18 -30)
1969/12/31/18:00:07.616,(0 7 1 -1 -3 19 7 3)
1969/12/31/18:00:07.627,(-32 -7 -5 2 46 -3 -36 -94)
1969/12/31/18:00:07.627,(21 -7 -1 12 32 27 31 63)
1969/12/31/18:00:07.648,(-16 12 9 -6 -41 -34 7 -6)
1969/12/31/18:00:07.648,(13 -16 -12 -19 -40 -15 -10 3)
1969/12/31/18:00:07.649,(21 9 -1 -11 2 6 2 45)
1969/12/31/18:00:07.649,(15 -10 -3 8 13 16 9 -1)
1969/12/31/18:00:07.680,(-24 -3 2 11 62 35 -16 -17)
1969/12/31/18:00:07.680,(10 6 0 1 -16 -6 14 16)
1969/12/31/18:00:07.681,(-13 -12 -4 -12 -40 -45 -36 -16)
1969/12/31/18:00:07.681,(4 0 2 5 46 22 3 21)
1969/12/31/18:00:07.699,(6 -10 -3 4 -46 -47 4 37)
1969/12/31/18:00:07.699,(24 21 7 17 79 95 27 18)
1969/12/31/18:00:07.710,(13 -2 -2 10 13 -7 4 7)
1969/12/31/18:00:07.710,(-20 4 -8 -24 -102 -80 -39 5)
1969/12/31/18:00:07.733,(24 10 6 -18 -52 -29 -1 7)
1969/12/31/18:00:07.733,(11 -10 4 9 27 22 26 15)
1969/12/31/18:00:07.734,(0 -12 -5 -16 -39 -11 -19 2)
1969/12/31/18:00:07.734,(24 7 7 10 54 50 8 4)
1969/12/31/18:00:07.766,(28 -14 -47 -3 27 -3 3 25)
1969/12/31/18:00:07.766,(11 14 -18 0 44 10 -9 -13)
1969/12/31/18:00:07.767,(-41 48 67 22 -38 -4 9 -32)
1969/12/31/18:00:07.767,(-45 -55 -45 -25 -22 -12 -26 -52)
1969/12/31/18:00:07.783,(-6 16 -7 -5 -19 -52 -22 -47)
1969/12/31/18:00:07.783,(-71 -41 -3 -7 -17 2 6 -5)
1969/12/31/18:00:07.794,(-8 -33 -21 -7 25 -1 -24 -51)
1969/12/31/18:00:07.794,(32 87 75 37 1 12 -7 -14)
1969/12/31/18:00:07.815,(35 21 -24 -4 53 50 25 28)
1969/12/31/18:00:07.815,(27 -1 37 28 -10 -7 -37 -15)
1969/12/31/18:00:07.816,(16 19 3 0 -9 2 33 11)
1969/12/31/18:00:07.816,(-48 -100 -69 -24 -5 -5 20 24)
1969/12/31/18:00:07.847,(11 18 16 18 53 30 -5 16)
1969/12/31/18:00:07.847,(12 5 -53 -21 -58 -53 -21 -16)
1969/12/31/18:00:07.848,(-36 0 39 -15 -56 -49 -24 -10)
1969/12/31/18:00:07.848,(69 65 51 12 9 26 14 15)
1969/12/31/18:00:07.866,(-24 -13 -20 -6 18 4 12 -49)
1969/12/31/18:00:07.866,(-24 39 56 18 30 30 46 60)
1969/12/31/18:00:07.888,(38 -28 -30 8 13 2 -1 55)
1969/12/31/18:00:07.888,(-34 27 -56 -27 21 -2 -41 -66)
1969/12/31/18:00:07.898,(2 104 127 65 29 8 1 -14)
1969/12/31/18:00:07.898,(48 4 -21 6 11 50 76 95)
1969/12/31/18:00:07.899,(-46 -51 -58 -19 -35 -64 -62 -58)
1969/12/31/18:00:07.899,(0 -80 -50 -2 23 14 29 34)
1969/12/31/18:00:07.931,(22 -87 -66 -46 -104 -26 12 65)
1969/12/31/18:00:07.931,(4 61 58 12 8 2 -16 -36)
1969/12/31/18:00:07.933,(13 62 0 0 59 46 24 36)
1969/12/31/18:00:07.933,(-36 -35 15 1 -20 -21 -15 -56)
1969/12/31/18:00:07.949,(18 7 21 9 -3 6 22 69)
1969/12/31/18:00:07.949,(40 -75 -111 -60 -30 -4 3 69)
1969/12/31/18:00:07.961,(-47 106 101 56 50 22 1 -44)
1969/12/31/18:00:07.961,(-4 -3 -2 4 -15 -34 -32 -42)
1969/12/31/18:00:07.981,(5 73 64 29 10 11 11 6)
1969/12/31/18:00:07.981,(19 -39 -4 -2 -4 -1 11 50)
1969/12/31/18:00:07.983,(22 -86 -80 -23 -8 8 7 -3)
1969/12/31/18:00:07.983,(-16 -12 -8 -10 18 2 9 25)
1969/12/31/18:00:08.013,(-18 -27 -4 1 -12 -5 7 9)
1969/12/31/18:00:08.013,(-20 11 12 3 10 -12 -12 -63)
1969/12/31/18:00:08.015,(-35 -15 -32 -17 27 8 -33 -51)
1969/12/31/18:00:08.015,(39 23 -6 -16 -72 -8 47 27)
1969/12/31/18:00:08.045,(23 51 44 17 45 9 -3 -3)
1969/12/31/18:00:08.045,(-89 -59 -24 -6 -5 1 -19 -79)
1969/12/31/18:00:08.047,(54 77 45 15 -6 14 33 38)
1969/12/31/18:00:08.047,(13 -20 -13 -14 -18 -20 -7 22)
1969/12/31/18:00:08.065,(4 -85 -71 -13 25 4 -42 -10)
1969/12/31/18:00:08.065,(16 47 46 11 -2 27 31 28)
1969/12/31/18:00:08.066,(-30 -75 -61 -25 -42 -39 39 -36)
1969/12/31/18:00:08.066,(2 -19 12 12 67 7 -85 -20)
1969/12/31/18:00:08.097,(-22 52 10 -20 -107 -64 -17 0)
1969/12/31/18:00:08.097,(-14 73 75 62 105 46 -18 -29)
1969/12/31/18:00:08.098,(56 -56 -104 -50 -74 -34 17 45)
1969/12/31/18:00:08.098,(-32 106 122 41 -56 -15 -6 -20)
1969/12/31/18:00:08.130,(17 -15 -58 -9 54 23 2 -26)
1969/12/31/18:00:08.130,(2 -24 -13 -3 -33 -22 -6 -18)
1969/12/31/18:00:08.132,(-41 -55 -23 -13 6 5 -58 -68)
1969/12/31/18:00:08.132,(63 -28 -106 -30 53 26 38 58)
1969/12/31/18:00:08.159,(-51 76 108 61 26 20 -14 -43)
1969/12/31/18:00:08.161,(-1 6 -20 4 -23 -17 23 8)
1969/12/31/18:00:08.161,(9 -9 27 19 17 14 32 40)
1969/12/31/18:00:08.161,(23 13 -15 24 109 92 22 35)
1969/12/31/18:00:08.180,(5 -57 -37 -49 -113 -100 -18 -26)
1969/12/31/18:00:08.180,(0 -24 -38 -23 40 -10 -6 -5)
1969/12/31/18:00:08.182,(-12 -17 -51 -28 -17 -1 -27 -48)
1969/12/31/18:00:08.182,(-42 -12 79 15 -26 -12 10 8)
1969/12/31/18:00:08.212,(13 26 -30 19 79 105 83 33)
1969/12/31/18:00:08.212,(-63 -45 10 -36 -128 -128 -117 -128)
1969/12/31/18:00:08.214,(43 -18 -37 -25 -16 -1 1 42)
1969/12/31/18:00:08.214,(16 12 7 8 30 22 31 38)
1969/12/31/18:00:08.233,(-10 -18 2 3 26 51 58 72)
1969/12/31/18:00:08.233,(-39 30 50 28 19 4 -7 -5)
1969/12/31/18:00:08.233,(61 64 65 37 18 21 30 61)
1969/12/31/18:00:08.233,(20 -75 -90 -40 -39 -28 -21 -33)
1969/12/31/18:00:08.264,(-69 -57 -9 -8 11 -15 -18 -31)
1969/12/31/18:00:08.264,(31 -26 -55 -24 -7 12 -18 24)
1969/12/31/18:00:08.265,(-21 55 79 31 17 11 20 26)
1969/12/31/18:00:08.265,(-12 9 -13 -6 -8 -2 -5 -27)
1969/12/31/18:00:08.296,(11 -41 -43 -17 9 -32 -74 -26)
1969/12/31/18:00:08.296,(43 -46 -96 -41 -22 15 21 4)
1969/12/31/18:00:08.297,(-15 96 113 69 60 55 57 58)
1969/12/31/18:00:08.297,(7 -29 -28 0 -17 -15 -17 -10)
1969/12/31/18:00:08.317,(-16 -52 -35 -32 -30 -18 -16 -23)
1969/12/31/18:00:08.317,(-1 84 74 0 -63 -44 -34 -8)
1969/12/31/18:00:08.318,(71 19 -50 -10 30 2 28 40)
1969/12/31/18:00:08.318,(-6 49 78 29 9 21 43 38)
1969/12/31/18:00:08.349,(-24 -63 -35 -3 -11 1 -75 -91)
1969/12/31/18:00:08.349,(-10 7 -1 -3 32 20 47 -19)
1969/12/31/18:00:08.349,(4 15 62 24 20 3 -37 5)
1969/12/31/18:00:08.349,(34 62 14 -7 -74 -32 6 5)
1969/12/31/18:00:08.379,(-39 -57 -33 -18 23 10 25 -28)
1969/12/31/18:00:08.379,(19 -36 -17 5 14 18 25 43)
1969/12/31/18:00:08.381,(-74 -62 -51 -32 -19 -36 -80 -103)
1969/12/31/18:00:08.381,(2 -10 -20 8 58 35 20 8)
1969/12/31/18:00:08.399,(29 13 28 18 -2 2 21 34)
1969/12/31/18:00:08.399,(-10 72 66 30 62 45 12 18)
1969/12/31/18:00:08.400,(-18 27 16 -10 -95 -51 19 7)
1969/12/31/18:00:08.400,(40 -59 -103 -52 6 14 -2 30)
1969/12/31/18:00:08.431,(-54 63 111 32 -32 -23 -14 -22)
1969/12/31/18:00:08.431,(25 -21 -52 -9 -9 -4 23 64)
1969/12/31/18:00:08.432,(26 -40 -38 6 36 36 6 -12)
1969/12/31/18:00:08.432,(-50 -45 -26 6 29 19 -17 -28)
1969/12/31/18:00:08.463,(32 52 -7 -37 -72 -45 -7 29)
1969/12/31/18:00:08.463,(-49 -20 16 17 42 -19 -29 -23)
1969/12/31/18:00:08.464,(-23 -26 -10 -13 -18 6 12 -39)
1969/12/31/18:00:08.464,(-26 49 42 11 -29 -13 -38 -29)
1969/12/31/18:00:08.482,(34 -46 -28 6 71 33 -6 -40)
1969/12/31/18:00:08.482,(-1 7 -27 -26 -89 -54 0 -21)
1969/12/31/18:00:08.483,(2 -27 -20 -5 11 12 2 2)
1969/12/31/18:00:08.483,(-30 44 78 38 35 5 -31 -16)
1969/12/31/18:00:08.527,(-1 -1 -8 -6 -36 -28 25 22)
1969/12/31/18:00:08.527,(13 -33 -40 -18 23 34 -32 -25)
1969/12/31/18:00:08.528,(-7 -48 -36 -19 5 4 2 -13)
1969/12/31/18:00:08.528,(-7 38 21 3 -25 -40 22 -2)
1969/12/31/18:00:08.547,(52 85 65 42 33 -2 -26 -12)
1969/12/31/18:00:08.547,(49 -3 -2 28 68 41 26 55)
1969/12/31/18:00:08.550,(-21 -41 -24 -36 -66 -45 -38 9)
1969/12/31/18:00:08.550,(32 -10 -16 -12 -11 -11 16 19)
1969/12/31/18:00:08.566,(-34 -19 -21 -2 23 32 26 36)
1969/12/31/18:00:08.566,(26 0 -22 -13 -38 -29 -10 -8)
1969/12/31/18:00:08.567,(-6 29 54 35 57 29 -28 -22)
1969/12/31/18:00:08.567,(10 10 11 8 8 13 24 27)
1969/12/31/18:00:08.598,(32 -7 -33 -22 -35 -23 -9 22)
1969/12/31/18:00:08.598,(-21 3 -19 -17 -26 2 17 -3)
1969/12/31/18:00:08.599,(-14 -15 21 12 22 11 18 21)
1969/12/31/18:00:08.599,(-11 -40 -41 -26 -62 -40 -16 -8)
1969/12/31/18:00:08.630,(-2 36 71 46 64 60 45 24)
1969/12/31/18:00:08.630,(6 9 8 11 3 24 -2 24)
1969/12/31/18:00:08.631,(-16 -29 -46 -19 -45 -44 -7 -8)
1969/12/31/18:00:08.631,(-17 4 20 12 79 43 7 -11)
1969/12/31/18:00:08.649,(-22 -20 -28 -25 -60 -60 -56 -76)
1969/12/31/18:00:08.649,(-33 -47 -24 -29 -44 -18 -1 -38)
1969/12/31/18:00:08.650,(8 43 16 4 21 3 18 0)
1969/12/31/18:00:08.650,(11 14 29 12 -2 17 11 11)
1969/12/31/18:00:08.682,(-1 -17 -16 9 31 9 -1 27)
1969/12/31/18:00:08.682,(3 -8 23 13 14 -6 -22 -38)
1969/12/31/18:00:08.682,(-15 6 -39 -22 -21 -7 -10 -24)
1969/12/31/18:00:08.682,(19 27 26 1 -12 -11 2 4)
1969/12/31/18:00:08.714,(-59 -81 -53 -17 23 18 9 -18)
1969/12/31/18:00:08.714,(45 14 -3 -7 -21 -22 0 14)
1969/12/31/18:00:08.716,(19 78 42 10 13 6 2 20)
1969/12/31/18:00:08.716,(-20 -13 12 4 -29 25 34 0)
1969/12/31/18:00:08.732,(26 1 -16 3 37 -24 -30 34)
1969/12/31/18:00:08.732,(-54 -23 -5 14 7 32 11 -2)
1969/12/31/18:00:08.745,(-15 -32 -26 -47 -25 -38 0 32)
1969/12/31/18:00:08.745,(-20 -6 -1 -1 -96 -50 -39 -28)
1969/12/31/18:00:08.766,(1 -31 -34 22 61 48 6 -17)
1969/12/31/18:00:08.766,(-22 -17 3 0 4 -5 20 20)
1969/12/31/18:00:08.767,(8 28 26 23 1 3 -11 -14)
1969/12/31/18:00:08.767,(6 40 63 35 20 21 -11 -8)
1969/12/31/18:00:08.796,(49 25 0 -28 -51 -13 23 89)
1969/12/31/18:00:08.796,(-36 -46 -26 -13 -12 -26 7 24)
1969/12/31/18:00:08.799,(54 38 7 -1 11 21 7 23)
1969/12/31/18:00:08.799,(-4 -31 -26 -16 5 -21 -17 7)
1969/12/31/18:00:08.816,(-1 24 6 -5 -17 -2 9 -20)
1969/12/31/18:00:08.816,(0 14 13 3 13 28 16 2)
1969/12/31/18:00:08.828,(-19 -50 -34 4 62 8 -2 -7)
1969/12/31/18:00:08.828,(34 4 -10 -1 8 -4 5 23)
1969/12/31/18:00:08.849,(9 32 21 -2 -3 2 0 8)
1969/12/31/18:00:08.849,(10 2 6 -24 -24 -22 -11 -8)
1969/12/31/18:00:08.851,(-12 -17 7 37 1 21 4 -6)
1969/12/31/18:00:08.851,(24 -15 -36 -9 28 11 1 17)
1969/12/31/18:00:08.880,(-29 -5 4 -1 -5 8 13 24)
1969/12/31/18:00:08.880,(21 22 14 5 -4 -9 12 -22)
1969/12/31/18:00:08.883,(1 5 -4 -11 -25 -11 -12 -3)
1969/12/31/18:00:08.883,(-15 -35 -24 -11 8 -5 10 4)
1969/12/31/18:00:08.912,(27 7 -24 -19 -20 -6 -2 -5)
1969/12/31/18:00:08.912,(-29 27 46 27 26 17 12 5)
1969/12/31/18:00:08.915,(2 -1 11 7 0 1 -2 -9)
1969/12/31/18:00:08.915,(-5 -6 -26 -30 -11 -12 -9 -19)
1969/12/31/18:00:08.933,(-11 -10 -4 -33 -36 -17 5 -12)
1969/12/31/18:00:08.933,(-51 -36 -4 46 45 11 -22 -22)
1969/12/31/18:00:08.934,(-53 -23 -4 17 38 16 -4 -24)
1969/12/31/18:00:08.934,(-3 -15 -7 4 -4 -12 -7 -16)
1969/12/31/18:00:08.963,(2 12 7 -20 -45 23 -5 -14)
1969/12/31/18:00:08.963,(54 31 6 -5 9 -72 -2 4)
1969/12/31/18:00:08.966,(-72 -31 -10 -2 3 40 12 -36)
1969/12/31/18:00:08.966,(18 -5 -17 -16 -9 -12 -5 27)
1969/12/31/18:00:08.981,(-33 -12 4 12 27 10 -5 -26)
1969/12/31/18:00:08.981,(32 17 2 -13 -32 -8 -28 -55)
1969/12/31/18:00:08.995,(-8 -3 -6 -15 -17 -7 10 -37)
1969/12/31/18:00:08.995,(68 38 17 7 9 1 8 -6)
1969/12/31/18:00:09.016,(-82 -53 -20 -4 -10 -16 16 -64)
1969/12/31/18:00:09.016,(-73 -45 -26 -22 -16 -7 -80 -77)
1969/12/31/18:00:09.018,(85 26 18 7 7 15 40 89)
1969/12/31/18:00:09.018,(-28 23 7 1 -4 0 -4 -10)
1969/12/31/18:00:09.047,(77 30 2 9 5 -13 -8 14)
1969/12/31/18:00:09.047,(-1 4 -6 -4 -1 5 0 13)
1969/12/31/18:00:09.049,(7 0 14 9 8 9 19 63)
1969/12/31/18:00:09.049,(-20 -22 -18 -8 -16 -22 -14 -16)
1969/12/31/18:00:09.090,(-13 -20 -3 7 14 11 -1 -24)
1969/12/31/18:00:09.090,(99 63 22 10 10 0 14 97)
1969/12/31/18:00:09.091,(12 8 -13 -15 -32 -35 -41 -38)
1969/12/31/18:00:09.091,(10 4 19 14 18 18 22 46)
1969/12/31/18:00:09.100,(39 13 -2 -2 2 -11 -22 -28)
1969/12/31/18:00:09.100,(20 -14 -16 -11 -8 9 4 12)
1969/12/31/18:00:09.102,(49 21 18 11 8 8 18 46)
1969/12/31/18:00:09.102,(-25 14 10 6 2 1 -9 -38)
1969/12/31/18:00:09.130,(-42 -33 -28 -16 -9 -13 -24 -15)
1969/12/31/18:00:09.130,(20 17 15 6 3 19 25 47)
1969/12/31/18:00:09.133,(-9 9 -2 -4 -11 -19 -21 -44)
1969/12/31/18:00:09.133,(-84 -51 -24 -17 -8 -4 -17 -50)
1969/12/31/18:00:09.150,(79 57 41 33 24 21 36 87)
1969/12/31/18:00:09.150,(-74 -43 -19 -11 -8 -6 -11 -46)
1969/12/31/18:00:09.170,(-23 -28 -19 -13 -11 -10 -14 -38)
1969/12/31/18:00:09.170,(68 40 21 13 8 12 18 33)
1969/12/31/18:00:09.182,(-41 -21 -18 -13 -12 -16 -17 -8)
1969/12/31/18:00:09.182,(14 4 4 3 4 9 13 12)
1969/12/31/18:00:09.184,(22 1 -5 -2 -4 -4 0 13)
1969/12/31/18:00:09.184,(-21 -16 -2 1 1 1 -3 -10)
1969/12/31/18:00:09.214,(9 28 13 7 7 7 11 16)
1969/12/31/18:00:09.214,(3 -7 2 1 -2 4 3 -12)
1969/12/31/18:00:09.216,(-10 -5 -1 -5 -9 -8 -8 -4)
1969/12/31/18:00:09.216,(-14 -3 -3 -2 0 -1 2 13)
1969/12/31/18:00:09.233,(-10 -22 -10 -4 -1 -1 -1 -2)
1969/12/31/18:00:09.233,(11 12 -13 -7 -3 0 2 3)
1969/12/31/18:00:09.255,(-4 6 23 5 -3 -7 -10 -13)
1969/12/31/18:00:09.255,(-6 1 -10 -9 -3 3 2 1)
1969/12/31/18:00:09.265,(22 16 11 10 14 11 11 18)
1969/12/31/18:00:09.265,(7 9 19 11 -2 -3 -3 -12)
1969/12/31/18:00:09.298,(-8 -19 -25 -16 -6 -3 0 10)
1969/12/31/18:00:09.298,(-9 -3 0 1 -1 -2 -5 -17)
1969/12/31/18:00:09.300,(12 -8 -4 0 1 2 8 8)
1969/12/31/18:00:09.300,(-11 2 8 0 -1 -3 -4 -8)
1969/12/31/18:00:09.316,(13 26 9 2 3 6 2 3)
1969/12/31/18:00:09.316,(-3 -45 -45 -23 -11 -5 17 -4)
1969/12/31/18:00:09.318,(-3 47 47 18 8 0 -18 0)
1969/12/31/18:00:09.318,(-3 17 28 16 10 9 6 0)
1969/12/31/18:00:09.329,(1 -33 -31 -6 -9 -14 -14 -5)
1969/12/31/18:00:09.329,(-2 23 11 1 1 5 -1 -2)
1969/12/31/18:00:09.348,(-10 -33 -23 -3 3 5 -10 -7)
1969/12/31/18:00:09.348,(-9 -20 -31 -22 -11 -9 3 -9)
1969/12/31/18:00:09.358,(-4 -1 10 3 3 5 1 1)
1969/12/31/18:00:09.358,(9 -8 -25 0 2 2 16 15)
1969/12/31/18:00:09.380,(-4 22 25 7 1 4 9 1)
1969/12/31/18:00:09.380,(-2 27 22 8 4 5 12 7)
1969/12/31/18:00:09.383,(-8 -43 -37 -14 -7 -14 -48 -24)
1969/12/31/18:00:09.383,(5 3 -22 -14 -3 -1 16 13)
1969/12/31/18:00:09.411,(-2 25 42 17 4 -1 4 3)
1969/12/31/18:00:09.411,(1 -27 -23 -10 -5 -2 -19 -9)
1969/12/31/18:00:09.414,(-9 21 32 19 7 5 15 -5)
1969/12/31/18:00:09.414,(-12 -10 -1 -3 0 1 -5 -9)
1969/12/31/18:00:09.432,(5 -15 -29 -12 -6 -5 4 3)
1969/12/31/18:00:09.432,(-11 -4 -3 -9 -6 -4 -3 -9)
1969/12/31/18:00:09.451,(9 -3 -9 -6 -3 0 9 14)
1969/12/31/18:00:09.451,(-14 -45 -1 6 -1 -4 -26 -17)
1969/12/31/18:00:09.465,(12 72 48 10 2 1 10 3)
1969/12/31/18:00:09.465,(10 -36 -29 -6 2 6 18 13)
1969/12/31/18:00:09.467,(-2 54 47 15 4 4 -3 -5)
1969/12/31/18:00:09.467,(-15 -65 -39 -26 -13 -7 -10 -9)
1969/12/31/18:00:09.495,(6 11 -4 2 1 -4 -16 -8)
1969/12/31/18:00:09.495,(-1 49 44 24 9 5 -1 -8)
1969/12/31/18:00:09.497,(5 -13 -6 3 4 6 19 13)
1969/12/31/18:00:09.497,(1 32 29 10 0 -2 -1 3)
1969/12/31/18:00:09.515,(-17 -63 -49 -27 -10 -7 -16 -12)
1969/12/31/18:00:09.515,(-6 8 16 9 2 -1 -12 -10)
1969/12/31/18:00:09.549,(-10 -27 -22 -12 -5 0 1 -7)
1969/12/31/18:00:09.549,(-1 27 26 7 2 4 1 -4)
1969/12/31/18:00:09.550,(-3 -59 -49 -23 -11 -1 -3 -2)
1969/12/31/18:00:09.550,(8 41 24 13 1 5 -4 -4)
1969/12/31/18:00:09.552,(7 -21 -33 -19 -10 0 2 4)
1969/12/31/18:00:09.553,(-11 16 -10 -16 -7 -2 -9 -12)
1969/12/31/18:00:09.578,(18 20 37 21 7 0 -1 0)
1969/12/31/18:00:09.578,(2 -14 -13 27 13 7 8 13)
1969/12/31/18:00:09.581,(5 -38 -28 -9 -1 -8 2 8)
1969/12/31/18:00:09.581,(-4 27 30 24 5 -4 -2 3)
1969/12/31/18:00:09.599,(-16 -34 -42 -27 -9 -10 4 5)
1969/12/31/18:00:09.599,(1 -4 -2 -10 -2 -12 -6 2)
1969/12/31/18:00:09.609,(-3 -4 -10 0 5 -6 5 6)
1969/12/31/18:00:09.609,(-2 -2 -16 -13 0 -10 0 6)
1969/12/31/18:00:09.631,(-6 10 4 4 3 -7 9 3)
1969/12/31/18:00:09.631,(-2 -36 -49 -30 -6 -8 3 7)
1969/12/31/18:00:09.634,(5 27 26 4 4 -2 3 3)
1969/12/31/18:00:09.634,(9 5 9 7 4 -3 -7 -2)
1969/12/31/18:00:09.663,(3 21 11 3 -3 -2 3 1)
1969/12/31/18:00:09.663,(-14 -83 -37 -28 -13 -1 -2 0)
1969/12/31/18:00:09.666,(22 75 59 22 6 2 -7 -7)
1969/12/31/18:00:09.666,(7 -3 8 24 9 7 3 -1)
1969/12/31/18:00:09.682,(-7 -1 14 14 4 5 4 -1)
1969/12/31/18:00:09.684,(-2 -6 -16 -7 -4 3 -7 -6)
1969/12/31/18:00:09.692,(-13 -10 21 0 -7 1 -6 -11)
1969/12/31/18:00:09.692,(9 13 -4 -12 -3 5 -1 -1)
1969/12/31/18:00:09.714,(0 -23 -2 7 -3 5 -5 -5)
1969/12/31/18:00:09.714,(-2 0 -8 -9 -6 0 -5 -9)
1969/12/31/18:00:09.717,(-9 5 -25 -14 -5 -1 -1 -1)
1969/12/31/18:00:09.717,(7 18 24 11 3 4 -4 -2)
1969/12/31/18:00:09.745,(-16 -41 -14 -9 -2 1 -4 -5)
1969/12/31/18:00:09.745,(4 2 8 3 -3 1 -4 -6)
1969/12/31/18:00:09.748,(-8 -14 -5 -2 -5 0 -1 -5)
1969/12/31/18:00:09.748,(-3 -3 2 5 -1 2 -4 -4)
1969/12/31/18:00:09.764,(0 3 -7 -7 -3 0 -1 0)
1969/12/31/18:00:09.764,(2 28 9 1 -1 -1 3 4)
1969/12/31/18:00:09.777,(-5 -16 0 6 2 -2 0 1)
1969/12/31/18:00:09.777,(-9 -15 -21 -15 -5 -9 1 6)
1969/12/31/18:00:09.819,(10 31 2 1 3 -9 6 11)
1969/12/31/18:00:09.819,(-7 -11 -22 -14 -4 -19 3 9)
1969/12/31/18:00:09.821,(2 37 18 12 8 -10 8 10)
1969/12/31/18:00:09.821,(3 4 -4 -2 6 -7 3 9)
1969/12/31/18:00:09.862,(-8 -20 -16 -16 0 -3 0 2)
1969/12/31/18:00:09.862,(-3 -3 14 8 5 5 3 0)
1969/12/31/18:00:09.864,(8 51 -5 -12 -4 1 -2 -4)
1969/12/31/18:00:09.864,(2 6 15 9 0 5 -6 -9)
1969/12/31/18:00:09.866,(0 -2 -3 -2 -3 5 -3 -7)
1969/12/31/18:00:09.866,(2 13 8 -4 -3 1 -4 -8)
1969/12/31/18:00:09.871,(-5 -40 -16 -7 -5 0 -2 -2)
1969/12/31/18:00:09.871,(1 0 6 4 -1 -2 -2 -3)
1969/12/31/18:00:09.883,(2 9 0 2 -2 2 -2 -7)
1969/12/31/18:00:09.883,(1 4 4 6 1 4 -8 -7)
1969/12/31/18:00:09.884,(-2 -13 -1 2 -3 6 -2 -2)
1969/12/31/18:00:09.884,(0 1 7 4 -3 4 -2 -4)
1969/12/31/18:00:09.924,(-8 -14 -6 -7 -7 -7 9 7)
1969/12/31/18:00:09.924,(2 -2 10 17 4 -8 -10 -11)
1969/12/31/18:00:09.926,(1 -5 -1 0 -2 -2 0 0)
1969/12/31/18:00:09.926,(-3 1 -14 -14 -4 -1 -6 -7)
1969/12/31/18:00:09.931,(-1 5 5 3 -2 3 0 -1)
1969/12/31/18:00:09.931,(-1 -1 2 1 0 4 -1 -1)
1969/12/31/18:00:09.967,(2 4 -3 -3 -3 3 -2 -1)
1969/12/31/18:00:09.967,(-5 -23 -8 -1 -3 2 0 0)
1969/12/31/18:00:09.969,(-1 8 3 5 2 2 -7 -7)
1969/12/31/18:00:09.969,(-2 8 6 -5 -2 2 4 1)
1969/12/31/18:00:10.008,(-1 -16 -5 1 0 0 -1 -3)
1969/12/31/18:00:10.008,(1 8 4 -1 0 1 -1 -1)
1969/12/31/18:00:10.009,(-1 -4 -4 -5 -3 -1 -3 -4)
1969/12/31/18:00:10.009,(0 4 0 -5 -3 -4 -2 -1)
1969/12/31/18:00:10.049,(-3 -9 -6 -2 2 -1 1 3)
1969/12/31/18:00:10.049,(-1 1 0 -4 -1 -2 0 2)
1969/12/31/18:00:10.051,(-2 -2 -7 -5 -1 -6 -5 -1)
1969/12/31/18:00:10.051,(0 -1 -4 -7 -3 0 2 4)
1969/12/31/18:00:10.054,(-2 -4 -3 -1 -2 -3 0 1)
1969/12/31/18:00:10.054,(1 0 2 1 0 -3 0 2)
1969/12/31/18:00:10.091,(4 6 8 2 0 -2 -3 -1)
1969/12/31/18:00:10.091,(-6 1 2 3 -1 -2 -1 -6)
1969/12/31/18:00:10.094,(-7 -17 -14 -12 -4 -2 0 -1)
1969/12/31/18:00:10.094,(0 -4 9 9 1 1 -1 -2)
1969/12/31/18:00:10.095,(-2 -3 -3 1 1 1 -1 -3)
1969/12/31/18:00:10.095,(4 7 6 6 1 2 0 2)
1969/12/31/18:00:10.102,(-1 -3 -4 -2 -2 -3 -3 0)
1969/12/31/18:00:10.102,(-2 -6 -5 -1 0 -3 -1 0)
1969/12/31/18:00:10.104,(-1 -1 -1 -2 1 -2 0 0)
1969/12/31/18:00:10.104,(-1 1 -2 -4 -3 -3 0 3)
1969/12/31/18:00:10.112,(0 -2 -2 -5 -2 -1 -2 -1)
1969/12/31/18:00:10.112,(0 3 -2 -4 -3 -3 -1 1)
1969/12/31/18:00:10.131,(1 -1 -1 2 1 -3 -3 -3)
1969/12/31/18:00:10.131,(-3 -1 -6 -8 -4 -4 -4 -2)
1969/12/31/18:00:10.133,(0 -1 0 3 -1 0 1 1)
1969/12/31/18:00:10.133,(-2 3 -1 -2 -1 -1 -3 -4)
1969/12/31/18:00:10.173,(2 0 -4 -2 -2 0 3 4)
1969/12/31/18:00:10.173,(-9 -11 -9 -5 -2 -3 -2 -5)
1969/12/31/18:00:10.176,(1 3 1 -3 -2 -1 0 1)
1969/12/31/18:00:10.176,(-1 1 0 0 2 -1 -1 -1)
1969/12/31/18:00:10.204,(0 -2 0 2 4 1 0 2)
1969/12/31/18:00:10.204,(2 4 1 0 -1 0 0 1)
1969/12/31/18:00:10.207,(1 4 4 3 3 0 1 1)
1969/12/31/18:00:10.207,(1 2 -1 0 1 -1 0 0)
1969/12/31/18:00:10.216,(-6 -11 -5 -3 -2 -2 -1 -3)
1969/12/31/18:00:10.216,(0 2 -1 5 2 0 2 0)
1969/12/31/18:00:10.218,(-2 -2 1 0 0 -1 -2 -2)
1969/12/31/18:00:10.218,(0 -3 1 -1 0 -3 0 -2)
1969/12/31/18:00:10.247,(-1 -2 -2 -3 -4 -2 -3 -3)
1969/12/31/18:00:10.247,(-1 5 0 -5 0 0 -1 -2)
1969/12/31/18:00:10.250,(1 2 1 4 1 0 -1 -1)
1969/12/31/18:00:10.250,(-2 1 -1 -4 -6 -2 -2 -2)
1969/12/31/18:00:10.277,(-3 -4 -5 -5 -3 -1 -3 -4)
1969/12/31/18:00:10.277,(0 0 2 -1 -1 1 0 0)
1969/12/31/18:00:10.280,(-2 -3 -5 -2 -1 -1 0 -1)
1969/12/31/18:00:10.280,(-1 2 1 -1 -3 0 0 1)
1969/12/31/18:00:10.300,(-3 -2 -2 3 2 1 1 -1)
1969/12/31/18:00:10.300,(-1 0 -2 1 0 1 -1 -1)
1969/12/31/18:00:10.301,(-1 -3 3 0 -2 0 -2 -1)
1969/12/31/18:00:10.301,(-1 -3 -3 -2 -3 -2 -2 -1)
1969/12/31/18:00:10.301,(-4 -23 -1 3 -1 3 -1 0)
1969/12/31/18:00:10.301,(2 7 2 0 -3 -2 -5 -6)
1969/12/31/18:00:10.304,(9 -7 -24 -14 -7 1 0 5)
1969/12/31/18:00:10.304,(-8 -12 -1 -4 -6 -1 9 10)
1969/12/31/18:00:10.344,(2 0 0 3 0 -7 -13 -9)
1969/12/31/18:00:10.344,(9 35 23 11 7 -2 -8 -10)
1969/12/31/18:00:10.347,(-9 -18 -11 -7 -3 -4 1 1)
1969/12/31/18:00:10.347,(-2 2 -8 -7 -3 -2 16 11)
1969/12/31/18:00:10.347,(5 5 10 10 7 -6 -14 -13)
1969/12/31/18:00:10.347,(-4 -9 -18 -8 -2 -6 -2 -5)
1969/12/31/18:00:10.353,(-1 12 5 -2 -3 -1 7 7)
1969/12/31/18:00:10.353,(6 -3 0 5 5 -3 -17 -13)
1969/12/31/18:00:10.373,(-1 -4 -9 0 -2 0 5 10)
1969/12/31/18:00:10.373,(-6 2 4 0 -3 -5 -3 -2)
1969/12/31/18:00:10.376,(3 8 11 0 1 2 -1 -4)
1969/12/31/18:00:10.376,(4 -12 -8 -1 -4 4 -2 5)
1969/12/31/18:00:10.393,(5 16 11 3 0 6 4 -7)
1969/12/31/18:00:10.393,(1 -1 4 0 -4 0 -1 -1)
1969/12/31/18:00:10.405,(-38 -18 -6 -6 -2 0 2 -5)
1969/12/31/18:00:10.405,(25 1 -6 -4 -4 -6 -10 -2)
1969/12/31/18:00:10.426,(-26 -9 -5 -5 -3 -3 5 10)
1969/12/31/18:00:10.426,(22 0 -5 -3 -1 -6 6 6)
1969/12/31/18:00:10.428,(-3 -6 -14 -5 3 -11 5 10)
1969/12/31/18:00:10.428,(-10 6 -4 -4 3 -23 -4 -16)
1969/12/31/18:00:10.457,(17 11 10 0 5 9 13 22)
1969/12/31/18:00:10.457,(-59 -26 -2 -3 2 29 12 -13)
1969/12/31/18:00:10.460,(19 6 11 4 -9 -22 -24 -5)
1969/12/31/18:00:10.460,(-8 5 16 8 3 44 0 -28)
1969/12/31/18:00:10.476,(14 2 5 1 -10 -3 2 7)
1969/12/31/18:00:10.476,(7 9 6 6 2 19 9 16)
1969/12/31/18:00:10.489,(-12 -1 -2 -2 -3 34 -19 -42)
1969/12/31/18:00:10.489,(-1 -14 -2 4 -8 -31 16 24)
1969/12/31/18:00:10.511,(-32 -14 0 5 8 17 -6 -20)
1969/12/31/18:00:10.511,(45 14 -3 -5 -3 1 13 14)
1969/12/31/18:00:10.512,(-25 -1 -1 -2 0 -29 -34 -22)
1969/12/31/18:00:10.512,(2 0 -1 1 0 -17 -19 7)
1969/12/31/18:00:10.540,(28 4 -7 -8 -2 12 28 17)
1969/12/31/18:00:10.540,(-17 -11 -9 -5 -6 -13 -10 -26)
1969/12/31/18:00:10.543,(6 2 4 1 2 3 3 1)
1969/12/31/18:00:10.543,(35 12 -5 -2 2 11 -1 17)
1969/12/31/18:00:10.560,(-96 -31 -7 -4 -2 -10 -16 -28)
1969/12/31/18:00:10.560,(15 3 -7 -4 2 1 -10 6)
1969/12/31/18:00:10.572,(12 -8 -1 -1 -2 -19 21 9)
1969/12/31/18:00:10.572,(-23 -7 -1 -2 -7 -33 -9 -15)
1969/12/31/18:00:10.593,(20 10 0 0 5 12 -1 12)
1969/12/31/18:00:10.593,(-10 -14 -11 -12 -5 33 22 -9)
1969/12/31/18:00:10.596,(33 17 10 10 5 -7 7 47)
1969/12/31/18:00:10.596,(-32 -7 -4 0 0 -16 -15 -26)
1969/12/31/18:00:10.624,(26 3 4 1 -4 -26 -11 9)
1969/12/31/18:00:10.624,(-23 -10 -7 -4 -8 -41 -11 -12)
1969/12/31/18:00:10.627,(18 12 0 -1 5 44 30 25)
1969/12/31/18:00:10.627,(-13 -12 -2 -1 6 37 8 4)
1969/12/31/18:00:10.643,(-1 2 -6 -7 -13 -38 -21 -21)
1969/12/31/18:00:10.643,(9 0 3 2 4 39 9 15)
1969/12/31/18:00:10.656,(-6 7 1 -1 -1 -16 -5 -21)
1969/12/31/18:00:10.656,(24 4 -2 0 5 10 9 7)
1969/12/31/18:00:10.699,(-7 2 5 3 5 13 18 -2)
1969/12/31/18:00:10.699,(31 18 4 5 -3 -47 -57 -13)
1969/12/31/18:00:10.700,(4 2 -3 -3 -2 14 7 8)
1969/12/31/18:00:10.700,(-14 -25 -3 0 -4 1 22 6)
1969/12/31/18:00:10.709,(-6 -15 -11 -7 -6 1 -21 -18)
1969/12/31/18:00:10.709,(-7 15 10 8 5 -6 3 -55)
1969/12/31/18:00:10.711,(-32 -16 -12 -4 -1 19 -25 28)
1969/12/31/18:00:10.711,(68 36 16 9 3 6 20 47)
1969/12/31/18:00:10.727,(11 1 -16 -14 -20 -57 -12 -17)
1969/12/31/18:00:10.727,(-36 -15 0 0 -1 2 3 12)
1969/12/31/18:00:10.739,(2 4 -1 -4 1 5 -7 -24)
1969/12/31/18:00:10.739,(-16 -13 -5 -4 -6 -4 34 41)
1969/12/31/18:00:10.760,(11 12 5 5 11 50 12 6)
1969/12/31/18:00:10.760,(27 4 -5 -7 -8 -34 4 42)
1969/12/31/18:00:10.770,(3 -5 0 0 -1 -16 19 -2)
1969/12/31/18:00:10.770,(6 -5 -8 -11 -5 15 19 23)
1969/12/31/18:00:10.791,(20 23 15 12 17 47 -26 12)
1969/12/31/18:00:10.791,(-32 -32 -13 -8 -9 -16 -5 -53)
1969/12/31/18:00:10.793,(-21 -9 -4 -7 -13 -2 0 -42)
1969/12/31/18:00:10.793,(-9 4 -4 -1 2 -6 -40 -8)
1969/12/31/18:00:10.823,(-8 11 10 8 -1 -21 -19 -40)
1969/12/31/18:00:10.823,(7 -3 0 1 2 8 12 -16)
1969/12/31/18:00:10.824,(-38 -14 -12 -10 -7 -8 -22 -67)
1969/12/31/18:00:10.824,(15 6 5 1 0 17 7 18)
1969/12/31/18:00:10.842,(-11 6 -5 -7 -7 -9 16 -5)
1969/12/31/18:00:10.842,(37 7 7 6 9 10 12 61)
1969/12/31/18:00:10.852,(-1 16 9 6 7 6 17 5)
1969/12/31/18:00:10.852,(-49 -30 -3 -2 -4 -30 -50 -98)
1969/12/31/18:00:10.874,(17 12 -2 -3 -6 12 17 8)
1969/12/31/18:00:10.874,(-18 -5 0 1 5 6 -32 -28)
1969/12/31/18:00:10.877,(39 -1 -5 -3 -3 -1 13 48)
1969/12/31/18:00:10.877,(-3 3 -4 -5 18 7 -15 -5)
1969/12/31/18:00:10.928,(-9 -14 -3 5 10 59 41 17)
1969/12/31/18:00:10.928,(-25 5 3 3 11 -64 -16 -12)
1969/12/31/18:00:10.931,(11 -5 -5 -7 -44 1 -10 -9)
1969/12/31/18:00:10.931,(8 4 0 -1 -10 11 12 28)
1969/12/31/18:00:10.932,(-27 -12 -1 2 43 15 -12 -36)
1969/12/31/18:00:10.932,(31 9 1 16 84 67 39 59)
1969/12/31/18:00:10.938,(33 6 6 8 6 4 3 -16)
1969/12/31/18:00:10.938,(-22 6 -6 -28 -105 -101 -58 -57)
1969/12/31/18:00:10.958,(-21 -10 -6 -18 -15 -37 -16 11)
1969/12/31/18:00:10.959,(-2 1 -1 -11 -31 17 6 -12)
1969/12/31/18:00:10.960,(0 5 5 14 92 52 1 -1)
1969/12/31/18:00:10.960,(-7 -9 -5 14 42 51 36 -14)
1969/12/31/18:00:10.989,(-4 -17 -3 -1 -33 -69 -40 8)
1969/12/31/18:00:10.989,(26 8 -2 0 -11 -11 10 47)
1969/12/31/18:00:10.991,(-7 -5 1 -6 -34 -25 16 74)
1969/12/31/18:00:10.991,(-5 19 11 20 70 46 23 17)
1969/12/31/18:00:11.009,(14 -4 4 28 40 34 5 -6)
1969/12/31/18:00:11.009,(11 -3 -15 -39 -110 -53 -19 2)
1969/12/31/18:00:11.019,(-31 -17 -26 -32 -28 -41 -25 -36)
1969/12/31/18:00:11.019,(-27 -7 30 19 65 54 3 -14)
1969/12/31/18:00:11.041,(32 11 -15 2 6 23 15 12)
1969/12/31/18:00:11.041,(-25 -21 10 -8 -80 -72 -38 -26)
1969/12/31/18:00:11.044,(11 14 -9 -2 11 18 9 38)
1969/12/31/18:00:11.044,(-20 23 36 -10 -55 -55 -29 -28)
1969/12/31/18:00:11.073,(-39 -24 6 5 36 17 -2 -38)
1969/12/31/18:00:11.074,(20 16 -16 18 73 58 41 77)
1969/12/31/18:00:11.076,(-50 -13 13 3 -15 -20 -24 -78)
1969/12/31/18:00:11.076,(18 2 -26 1 17 22 5 39)
1969/12/31/18:00:11.094,(15 -10 -24 -18 28 19 24 25)
1969/12/31/18:00:11.094,(-33 -9 -5 -1 -58 -24 -2 -26)
1969/12/31/18:00:11.102,(32 11 42 27 87 76 0 87)
1969/12/31/18:00:11.102,(27 -9 -20 -6 -75 -68 -11 6)
1969/12/31/18:00:11.124,(20 59 68 3 -86 -84 -7 -12)
1969/12/31/18:00:11.124,(-15 -48 -43 -10 34 2 -28 -46)
1969/12/31/18:00:11.127,(52 -63 -81 -23 0 21 58 54)
1969/12/31/18:00:11.127,(27 79 82 35 44 40 -10 48)
1969/12/31/18:00:11.156,(-7 -56 -59 -22 -15 -16 -1 21)
1969/12/31/18:00:11.156,(-8 36 55 38 44 30 -13 -46)
1969/12/31/18:00:11.159,(-43 19 42 20 28 -9 -15 -47)
1969/12/31/18:00:11.159,(-11 -67 -62 -44 -50 -27 -8 -19)
1969/12/31/18:00:11.176,(-9 -56 -23 -11 -23 -10 -9 -75)
1969/12/31/18:00:11.176,(-83 -5 -48 -48 -37 -49 -28 -61)
1969/12/31/18:00:11.186,(33 95 91 90 32 19 24 39)
1969/12/31/18:00:11.186,(-24 -93 -116 -36 33 50 17 54)
1969/12/31/18:00:11.208,(-22 47 16 -3 -60 -47 -12 -20)
1969/12/31/18:00:11.208,(-8 2 37 5 15 22 2 57)
1969/12/31/18:00:11.211,(15 -28 -54 -32 -27 -23 51 66)
1969/12/31/18:00:11.211,(-1 83 65 14 8 -12 -10 -75)
1969/12/31/18:00:11.240,(48 13 13 31 77 71 51 119)
1969/12/31/18:00:11.240,(0 -45 -4 -7 -13 1 -16 -68)
1969/12/31/18:00:11.241,(10 -32 -55 -37 -40 -35 -20 22)
1969/12/31/18:00:11.241,(-56 -15 -22 8 16 18 -1 -90)
1969/12/31/18:00:11.259,(-2 14 37 -8 -23 -30 -10 2)
1969/12/31/18:00:11.259,(-23 -53 -45 2 89 86 56 6)
1969/12/31/18:00:11.294,(-41 102 104 25 -25 -16 -8 -93)
1969/12/31/18:00:11.294,(23 -5 -9 -17 -70 -56 -11 -2)
1969/12/31/18:00:11.295,(-13 -82 -102 -53 -37 -32 -66 -72)
1969/12/31/18:00:11.295,(-7 104 82 28 37 31 65 58)
1969/12/31/18:00:11.297,(38 -19 -30 -11 -30 -4 -19 49)
1969/12/31/18:00:11.297,(74 13 7 19 77 45 26 43)
1969/12/31/18:00:11.323,(-53 -29 -11 5 9 18 33 -15)
1969/12/31/18:00:11.323,(34 -38 -39 -39 -98 -89 -49 60)
1969/12/31/18:00:11.325,(-46 -31 -55 -41 -33 -22 -23 -83)
1969/12/31/18:00:11.326,(59 29 26 21 -3 -4 45 87)
1969/12/31/18:00:11.341,(-32 37 90 45 57 35 -16 -5)
1969/12/31/18:00:11.341,(44 -18 -51 -1 52 48 29 16)
1969/12/31/18:00:11.355,(-11 72 86 38 -14 -34 -53 -63)
1969/12/31/18:00:11.355,(2 15 2 2 12 10 -17 -3)
1969/12/31/18:00:11.375,(-10 -44 -39 -11 7 23 17 -9)
1969/12/31/18:00:11.375,(6 -24 -33 -16 -33 -32 -43 -20)
1969/12/31/18:00:11.377,(-17 -43 9 20 69 44 9 -9)
1969/12/31/18:00:11.377,(14 -31 -29 19 54 41 15 29)
1969/12/31/18:00:11.407,(55 33 -2 -10 -80 -53 37 113)
1969/12/31/18:00:11.407,(-1 111 74 -25 -94 -55 4 -38)
1969/12/31/18:00:11.408,(15 -128 -128 -44 33 24 -38 -3)
1969/12/31/18:00:11.408,(-44 22 15 -16 11 9 32 34)
1969/12/31/18:00:11.426,(-19 97 57 52 53 11 -23 -3)
1969/12/31/18:00:11.426,(5 -89 -51 22 52 40 10 -5)
1969/12/31/18:00:11.439,(41 29 -14 -6 15 0 -1 -6)
1969/12/31/18:00:11.439,(-28 45 43 4 -82 -50 0 16)
1969/12/31/18:00:11.460,(31 -45 -49 -15 0 -9 -30 -55)
1969/12/31/18:00:11.460,(-16 40 63 33 18 29 15 6)
1969/12/31/18:00:11.462,(-16 -20 -27 -27 -52 -64 -10 21)
1969/12/31/18:00:11.462,(4 -51 -52 -24 -9 8 -1 -40)
1969/12/31/18:00:11.490,(17 -3 7 8 31 32 16 21)
1969/12/31/18:00:11.490,(-42 -25 18 11 47 30 -27 -68)
1969/12/31/18:00:11.493,(12 4 -26 -13 -85 -45 42 25)
1969/12/31/18:00:11.493,(-33 85 110 27 39 22 -12 -53)
1969/12/31/18:00:11.510,(36 3 -24 -14 -33 -50 -52 10)
1969/12/31/18:00:11.510,(7 -40 -49 20 107 77 16 -2)
1969/12/31/18:00:11.522,(15 -55 -64 -43 -97 -77 -13 1)
1969/12/31/18:00:11.522,(-36 38 48 4 -18 -20 6 -5)
1969/12/31/18:00:11.542,(-15 56 41 0 1 10 2 -14)
1969/12/31/18:00:11.542,(21 6 -4 8 9 4 -10 14)
1969/12/31/18:00:11.544,(13 12 12 28 71 43 32 45)
1969/12/31/18:00:11.544,(30 -124 -128 -43 -9 4 7 -26)
1969/12/31/18:00:11.574,(-34 37 60 17 13 18 5 3)
1969/12/31/18:00:11.574,(9 72 34 19 -14 -16 -13 14)
1969/12/31/18:00:11.576,(-3 -11 15 -1 -7 -9 11 11)
1969/12/31/18:00:11.576,(9 -8 -17 -18 -84 -76 -46 22)
1969/12/31/18:00:11.592,(2 -28 -15 6 25 38 11 -21)
1969/12/31/18:00:11.592,(51 -22 -58 -3 19 31 35 47)
1969/12/31/18:00:11.606,(-35 43 42 -29 -69 -58 -28 -8)
1969/12/31/18:00:11.606,(-26 -32 -25 -34 -36 -71 -26 -45)
1969/12/31/18:00:11.626,(0 -118 -73 -55 -42 -32 -6 22)
1969/12/31/18:00:11.626,(-24 50 21 9 70 70 60 18)
1969/12/31/18:00:11.628,(37 108 17 48 76 55 16 51)
1969/12/31/18:00:11.628,(-31 -1 63 10 -53 -25 -15 14)
1969/12/31/18:00:11.658,(2 105 80 30 41 1 -4 -25)
1969/12/31/18:00:11.658,(1 -100 -65 -32 -41 -5 0 26)
1969/12/31/18:00:11.660,(-10 21 12 -3 15 22 11 -21)
1969/12/31/18:00:11.660,(-12 -26 -40 3 21 17 12 4)
1969/12/31/18:00:11.689,(9 -34 -60 -11 -2 10 16 12)
1969/12/31/18:00:11.689,(17 15 57 23 3 2 -22 -9)
1969/12/31/18:00:11.690,(-13 -26 -15 -6 1 -31 -2 -6)
1969/12/31/18:00:11.690,(1 69 49 12 -42 9 -23 12)
1969/12/31/18:00:11.708,(18 1 -6 12 90 74 49 18)
1969/12/31/18:00:11.710,(-10 -38 -34 -38 -120 -110 -44 -34)
1969/12/31/18:00:11.711,(5 -99 -69 -26 50 34 -2 14)
1969/12/31/18:00:11.711,(11 45 42 43 75 87 41 82)
1969/12/31/18:00:11.740,(-12 92 55 24 -79 -77 -23 -25)
1969/12/31/18:00:11.740,(43 -70 -56 -16 -20 5 74 80)
1969/12/31/18:00:11.743,(-7 73 59 11 -11 -17 -64 -73)
1969/12/31/18:00:11.743,(-31 -22 -24 6 50 21 -10 -41)
1969/12/31/18:00:11.760,(-4 -100 -68 -16 27 47 -2 -6)
1969/12/31/18:00:11.760,(-37 0 -47 -7 21 -5 6 -27)
1969/12/31/18:00:11.772,(-17 35 21 -21 -96 -72 -34 -57)
1969/12/31/18:00:11.772,(-3 2 -37 -3 34 22 -11 -33)
1969/12/31/18:00:11.792,(-14 -25 -9 -15 1 -7 -20 -26)
1969/12/31/18:00:11.792,(-8 -25 -5 -4 -61 -38 -15 -23)
1969/12/31/18:00:11.795,(9 -58 -58 -24 -35 3 26 41)
1969/12/31/18:00:11.795,(57 -31 -57 -17 34 22 10 -49)
1969/12/31/18:00:11.824,(-29 93 97 89 -1 -15 -27 -29)
1969/12/31/18:00:11.824,(-21 -35 -50 -24 1 -18 -57 -46)
1969/12/31/18:00:11.827,(-9 12 39 22 21 26 13 -15)
1969/12/31/18:00:11.827,(25 -86 -53 -19 4 1 20 44)
1969/12/31/18:00:11.843,(20 -25 -82 -50 -25 -20 10 4)
1969/12/31/18:00:11.843,(75 125 75 55 103 77 57 88)
1969/12/31/18:00:11.856,(-65 4 56 21 -73 -86 -75 -71)
1969/12/31/18:00:11.856,(-36 -61 -42 -29 -33 -32 -43 -80)
1969/12/31/18:00:11.877,(-10 -73 -63 -33 -2 17 37 16)
1969/12/31/18:00:11.877,(-17 66 62 3 -60 -55 -66 -25)
1969/12/31/18:00:11.878,(58 -29 -35 19 120 99 57 49)
1969/12/31/18:00:11.878,(12 -10 23 6 -39 -45 -10 18)
1969/12/31/18:00:11.907,(46 98 31 1 20 5 -5 0)
1969/12/31/18:00:11.907,(-47 -29 0 -11 -44 -27 -25 -34)
1969/12/31/18:00:11.910,(5 -35 -35 -5 13 35 28 29)
1969/12/31/18:00:11.910,(-3 -6 -6 40 105 75 32 -12)
1969/12/31/18:00:11.925,(20 -32 -18 6 5 -19 -5 53)
1969/12/31/18:00:11.925,(2 5 8 -50 -73 -51 -6 -36)
1969/12/31/18:00:11.938,(0 19 -29 -3 28 -10 -18 -1)
1969/12/31/18:00:11.938,(-17 2 4 33 33 23 18 18)
1969/12/31/18:00:11.959,(-12 100 103 33 -19 19 36 22)
1969/12/31/18:00:11.959,(-30 -50 -24 2 33 0 -1 -21)
1969/12/31/18:00:11.962,(-3 -46 -18 -12 -37 -13 -24 7)
1969/12/31/18:00:11.962,(18 -22 -65 -32 -7 -10 -13 -13)
1969/12/31/18:00:11.991,(4 -13 -9 7 75 79 28 16)
1969/12/31/18:00:11.991,(-79 -30 31 3 -83 -88 -35 -50)
1969/12/31/18:00:11.992,(34 61 36 12 -7 18 21 -9)
1969/12/31/18:00:11.992,(1 -19 -16 -2 36 22 -4 27)
1969/12/31/18:00:12.021,(-2 -12 -27 -26 -79 -39 -4 11)
1969/12/31/18:00:12.021,(30 15 -3 10 57 29 -4 16)
1969/12/31/18:00:12.024,(-22 -23 6 5 16 6 28 -18)
1969/12/31/18:00:12.024,(-44 -9 18 -20 -52 -33 -18 -14)
1969/12/31/18:00:12.044,(-22 -1 8 -2 3 5 -18 -34)
1969/12/31/18:00:12.044,(5 23 -15 -9 17 17 -5 5)
1969/12/31/18:00:12.046,(27 -47 -54 -25 -46 -41 4 10)
1969/12/31/18:00:12.046,(76 97 59 35 -12 9 18 45)
1969/12/31/18:00:12.074,(-62 -41 23 -1 43 15 -4 -40)
1969/12/31/18:00:12.074,(37 27 48 37 28 40 9 33)
1969/12/31/18:00:12.083,(-12 -3 -3 -18 -43 -46 -5 21)
1969/12/31/18:00:12.083,(2 -15 -28 -26 -40 -37 -9 -12)
1969/12/31/18:00:12.094,(-1 -60 -54 -23 -22 -17 -21 -19)
1969/12/31/18:00:12.094,(6 15 -46 -9 45 28 -22 0)
1969/12/31/18:00:12.106,(1 26 39 20 20 35 28 10)
1969/12/31/18:00:12.106,(-46 -38 20 3 -8 -12 2 -10)
1969/12/31/18:00:12.126,(48 51 28 20 27 24 30 88)
1969/12/31/18:00:12.126,(16 9 -4 -4 -37 -32 -12 -13)
1969/12/31/18:00:12.134,(-47 -36 -10 -2 22 14 -44 -69)
1969/12/31/18:00:12.135,(-3 -33 -53 -40 -52 -35 4 -10)
1969/12/31/18:00:12.158,(31 49 10 0 -2 -5 -3 12)
1969/12/31/18:00:12.158,(-24 -27 8 7 -5 9 9 -19)
1969/12/31/18:00:12.159,(1 38 31 30 75 55 10 29)
1969/12/31/18:00:12.159,(-27 -25 -4 -25 -29 -39 -34 -30)
1969/12/31/18:00:12.176,(-10 -102 -84 -41 -70 -57 -9 -31)
1969/12/31/18:00:12.177,(43 34 -52 -9 0 -4 2 23)
1969/12/31/18:00:12.199,(-52 3 75 45 100 96 8 -53)
1969/12/31/18:00:12.199,(35 109 63 29 -72 -74 8 5)
1969/12/31/18:00:12.209,(-34 -70 -36 -22 10 12 -12 -32)
1969/12/31/18:00:12.209,(31 -4 -4 -18 -40 -50 -8 10)
1969/12/31/18:00:12.217,(17 0 -10 4 37 41 18 44)
1969/12/31/18:00:12.217,(-10 -11 0 8 36 25 7 4)
1969/12/31/18:00:12.241,(-7 -27 -43 -43 -36 -28 -7 -3)
1969/12/31/18:00:12.241,(14 7 28 4 -8 22 14 23)
1969/12/31/18:00:12.244,(30 61 6 22 12 -4 23 27)
1969/12/31/18:00:12.244,(-6 -15 28 25 17 8 -11 8)
1969/12/31/18:00:12.272,(28 30 -2 -2 -16 -9 -6 16)
1969/12/31/18:00:12.272,(-19 -12 9 -26 25 26 6 -18)
1969/12/31/18:00:12.274,(-11 -5 3 10 -44 -69 -45 -7)
1969/12/31/18:00:12.274,(-42 -68 -48 5 -2 -8 -20 -57)
1969/12/31/18:00:12.293,(18 -1 -9 8 21 16 5 6)
1969/12/31/18:00:12.293,(-18 27 29 31 84 67 14 -6)
1969/12/31/18:00:12.301,(-26 12 24 -14 -87 -71 -3 8)
1969/12/31/18:00:12.302,(39 11 -6 -38 -1 7 2 59)
1969/12/31/18:00:12.325,(3 -13 -5 -11 -20 -13 0 -12)
1969/12/31/18:00:12.325,(-31 -2 5 1 13 4 27 6)
1969/12/31/18:00:12.327,(19 -26 -7 42 53 44 29 14)
1969/12/31/18:00:12.327,(-8 37 13 4 16 14 -23 11)
1969/12/31/18:00:12.355,(-9 1 30 15 -13 -14 9 18)
1969/12/31/18:00:12.355,(-1 -12 -41 -21 -15 -13 -1 -9)
1969/12/31/18:00:12.358,(22 -44 -45 -33 1 3 -7 -2)
1969/12/31/18:00:12.358,(27 42 13 2 -23 0 12 9)
1969/12/31/18:00:12.375,(-21 22 37 10 19 2 10 22)
1969/12/31/18:00:12.375,(13 47 67 42 -7 -3 -7 -1)
1969/12/31/18:00:12.384,(0 -8 -23 -89 -104 -42 -24 -26)
1969/12/31/18:00:12.384,(-1 -32 -14 81 114 47 27 35)
1969/12/31/18:00:12.407,(41 33 1 19 5 25 0 -8)
1969/12/31/18:00:12.407,(-57 -51 -21 0 13 36 9 -4)
1969/12/31/18:00:12.408,(-16 -15 -24 -38 -63 -59 -29 -29)
1969/12/31/18:00:12.408,(17 23 14 -41 -43 -40 -46 -15)
1969/12/31/18:00:12.439,(20 5 13 71 21 -11 27 57)
1969/12/31/18:00:12.439,(-7 -19 -4 18 13 -10 -3 -3)
1969/12/31/18:00:12.440,(17 10 -6 -13 12 39 15 -2)
1969/12/31/18:00:12.440,(-18 -8 4 -14 14 12 -3 -13)
1969/12/31/18:00:12.461,(-65 -28 -3 -9 6 -2 -17 -41)
1969/12/31/18:00:12.461,(-13 -7 -14 -26 -45 -36 -36 -55)
1969/12/31/18:00:12.469,(95 11 -23 2 43 25 19 61)
1969/12/31/18:00:12.469,(-100 -5 59 17 -9 -13 -18 -66)
1969/12/31/18:00:12.490,(-24 4 0 -10 -18 -10 -15 -18)
1969/12/31/18:00:12.490,(2 3 4 1 -3 4 26 19)
1969/12/31/18:00:12.491,(-67 -27 -14 9 13 -2 -21 -71)
1969/12/31/18:00:12.491,(49 3 -25 -14 -1 9 22 9)
1969/12/31/18:00:12.522,(-3 -13 -10 -27 -25 -6 -9 -29)
1969/12/31/18:00:12.522,(0 8 21 16 23 -5 -9 9)
1969/12/31/18:00:12.522,(-30 -16 -12 -17 -15 2 -1 10)
1969/12/31/18:00:12.522,(1 2 -19 -43 -57 -12 4 5)
1969/12/31/18:00:12.541,(-11 -12 0 14 -14 -20 -10 -7)
1969/12/31/18:00:12.541,(24 4 -13 40 54 20 3 12)
1969/12/31/18:00:12.553,(16 24 33 41 9 13 16 12)
1969/12/31/18:00:12.553,(32 21 4 -8 1 -3 9 24)
1969/12/31/18:00:12.573,(-13 -16 -8 -23 -25 0 -8 -12)
1969/12/31/18:00:12.573,(20 -7 -15 -24 -32 -19 1 20)
1969/12/31/18:00:12.575,(-70 -49 -4 -4 14 8 -4 -27)
1969/12/31/18:00:12.575,(21 39 -6 -9 -3 0 -5 -53)
1969/12/31/18:00:12.617,(-8 -6 -3 -11 7 -10 -28 -47)
1969/12/31/18:00:12.617,(-43 -24 -13 -17 -22 -13 0 -14)
1969/12/31/18:00:12.618,(-28 17 17 15 22 16 9 -21)
1969/12/31/18:00:12.618,(27 -6 -8 2 9 5 1 41)
1969/12/31/18:00:12.639,(-5 -25 -27 -36 -15 51 28 -10)
1969/12/31/18:00:12.639,(48 29 15 -20 -22 -62 -18 5)
1969/12/31/18:00:12.639,(79 43 26 66 45 4 15 47)
1969/12/31/18:00:12.639,(-26 -40 -12 33 16 1 -17 -34)
1969/12/31/18:00:12.657,(17 -11 -1 6 10 -7 -19 4)
1969/12/31/18:00:12.657,(31 13 5 -13 -23 6 1 6)
1969/12/31/18:00:12.658,(21 11 4 -24 -10 7 11 37)
1969/12/31/18:00:12.658,(39 13 -2 2 9 3 4 26)
1969/12/31/18:00:12.689,(-37 -18 -14 -7 0 -11 -7 -16)
1969/12/31/18:00:12.689,(17 15 15 -1 -2 13 14 14)
1969/12/31/18:00:12.690,(46 32 20 14 13 4 8 32)
1969/12/31/18:00:12.690,(-1 6 10 10 11 18 14 19)
1969/12/31/18:00:12.708,(-15 -33 -21 -19 -18 -30 -21 13)
1969/12/31/18:00:12.708,(-14 -13 -1 3 1 6 5 13)
1969/12/31/18:00:12.719,(-41 -28 -16 -8 -3 0 -11 -21)
1969/12/31/18:00:12.719,(30 3 -5 -5 6 12 23 48)
1969/12/31/18:00:12.740,(35 48 22 13 7 -1 5 1)
1969/12/31/18:00:12.740,(24 20 12 15 8 6 5 19)
1969/12/31/18:00:12.742,(-122 -72 -32 -25 -23 -24 -40 -79)
1969/12/31/18:00:12.742,(12 15 -2 -8 -4 6 13 -1)
1969/12/31/18:00:12.783,(-8 9 11 14 12 0 12 22)
1969/12/31/18:00:12.783,(14 2 -1 1 1 4 -2 -2)
1969/12/31/18:00:12.783,(24 22 3 -4 -5 2 4 5)
1969/12/31/18:00:12.785,(-32 -21 -6 -4 -3 -2 4 -7)
1969/12/31/18:00:12.792,(30 11 2 -1 3 -1 1 11)
1969/12/31/18:00:12.792,(-21 -16 -4 0 -3 -2 -8 -16)
1969/12/31/18:00:12.803,(15 9 0 -3 2 4 7 15)
1969/12/31/18:00:12.803,(0 -6 1 3 5 -1 -6 0)
1969/12/31/18:00:12.825,(-2 0 -1 -4 -4 -5 -2 -1)
1969/12/31/18:00:12.825,(1 -4 -7 -6 -4 0 -1 -3)
1969/12/31/18:00:12.827,(-1 -12 -15 -8 -3 -6 -5 3)
1969/12/31/18:00:12.827,(-14 -1 0 -4 -2 -1 -1 -10)
1969/12/31/18:00:12.856,(5 12 21 16 10 4 4 2)
1969/12/31/18:00:12.856,(-16 -8 -5 1 -2 1 -1 -12)
1969/12/31/18:00:12.857,(10 2 -5 -5 -5 -2 -3 12)
1969/12/31/18:00:12.857,(-25 -8 -8 -5 -3 -2 0 -12)
1969/12/31/18:00:12.875,(23 25 16 6 5 4 10 26)
1969/12/31/18:00:12.875,(-11 -18 -2 1 2 1 -11 -16)
1969/12/31/18:00:12.886,(11 4 2 -2 -3 -5 -4 -5)
1969/12/31/18:00:12.886,(-18 -12 -10 -7 -4 -2 2 -1)
1969/12/31/18:00:12.907,(-2 0 -11 -6 -1 -5 -1 -1)
1969/12/31/18:00:12.907,(5 13 5 1 0 0 -6 -21)
1969/12/31/18:00:12.909,(-10 -9 6 3 3 5 6 -3)
1969/12/31/18:00:12.909,(-14 10 14 7 1 -3 6 -7)
1969/12/31/18:00:12.939,(1 -15 -12 -2 -2 -3 -7 -8)
1969/12/31/18:00:12.939,(2 -7 -12 -6 -5 -3 0 3)
1969/12/31/18:00:12.941,(4 2 -6 -5 -3 -3 -13 -9)
1969/12/31/18:00:12.941,(16 8 7 4 1 1 5 3)
1969/12/31/18:00:12.959,(-8 -11 -3 7 3 2 9 10)
1969/12/31/18:00:12.959,(6 -24 -41 -20 -5 -3 -6 2)
1969/12/31/18:00:12.970,(-11 80 93 32 8 2 7 -6)
1969/12/31/18:00:12.970,(11 -15 -18 -7 -6 -3 -9 0)
1969/12/31/18:00:12.991,(-9 13 24 11 4 0 -3 -8)
1969/12/31/18:00:12.991,(-14 -33 -27 -13 -6 -3 -9 -4)
1969/12/31/18:00:12.992,(6 -30 -31 -11 -2 4 8 1)
1969/12/31/18:00:12.992,(-3 24 23 7 3 4 8 1)
1969/12/31/18:00:13.035,(8 6 12 1 -5 -10 -12 8)
1969/12/31/18:00:13.035,(-6 15 15 4 1 -3 5 -5)
1969/12/31/18:00:13.037,(9 -26 -28 -12 -5 -2 0 0)
1969/12/31/18:00:13.037,(-7 -12 -12 -3 2 -2 -14 -4)
1969/12/31/18:00:13.042,(6 4 -26 -15 -5 -1 8 6)
1969/12/31/18:00:13.042,(-11 5 33 15 8 2 6 2)
1969/12/31/18:00:13.053,(3 15 12 8 -1 -3 -12 -1)
1969/12/31/18:00:13.053,(0 -11 -2 3 1 1 10 -4)
1969/12/31/18:00:13.074,(-2 -16 -19 -11 -4 -1 1 -4)
1969/12/31/18:00:13.074,(-6 -34 -39 -18 -9 -4 -3 -3)
1969/12/31/18:00:13.076,(0 22 35 10 0 -2 -4 0)
1969/12/31/18:00:13.076,(6 -4 -9 -1 1 0 -1 -1)
1969/12/31/18:00:13.106,(1 27 26 5 -1 -3 -3 4)
1969/12/31/18:00:13.106,(3 10 14 10 3 6 1 3)
1969/12/31/18:00:13.106,(-9 -32 -28 -11 -4 -1 4 -1)
1969/12/31/18:00:13.106,(-4 -50 -48 -28 -14 -6 -11 -7)
1969/12/31/18:00:13.126,(3 35 26 13 6 5 2 -7)
1969/12/31/18:00:13.126,(11 12 11 10 4 5 9 7)
1969/12/31/18:00:13.137,(5 -9 -32 -10 -7 -8 -32 -8)
1969/12/31/18:00:13.137,(-19 20 22 8 1 0 -3 -5)
1969/12/31/18:00:13.158,(-7 -40 -22 -5 0 2 -8 -8)
1969/12/31/18:00:13.158,(-4 8 1 -3 -1 2 -3 -3)
1969/12/31/18:00:13.159,(6 -9 -13 -9 -1 2 5 6)
1969/12/31/18:00:13.159,(-1 -9 -12 -11 -7 -4 -5 -3)
1969/12/31/18:00:13.190,(11 23 22 11 6 3 7 6)
1969/12/31/18:00:13.190,(-17 -33 -10 -1 -2 -5 -3 -6)
1969/12/31/18:00:13.190,(17 24 -9 -7 -2 0 2 1)
1969/12/31/18:00:13.190,(-15 2 20 16 6 4 2 -2)
1969/12/31/18:00:13.212,(-2 -11 5 0 -2 7 5 -3)
1969/12/31/18:00:13.212,(-8 -25 -31 -21 -11 -6 -12 -5)
1969/12/31/18:00:13.222,(-3 27 33 13 3 3 1 -6)
1969/12/31/18:00:13.222,(2 -2 0 -3 -2 -1 -2 0)
1969/12/31/18:00:13.242,(10 40 20 15 7 3 -6 -4)
1969/12/31/18:00:13.242,(6 8 2 -2 -3 -1 -4 -1)
1969/12/31/18:00:13.244,(-11 -26 -2 1 1 6 9 1)
1969/12/31/18:00:13.244,(-6 -8 -11 -11 -7 -5 -8 -3)
1969/12/31/18:00:13.273,(-17 -33 -23 -20 -12 -7 -9 -11)
1969/12/31/18:00:13.273,(19 52 24 11 4 3 0 3)
1969/12/31/18:00:13.273,(-13 -50 -57 -20 -2 -3 9 7)
1969/12/31/18:00:13.273,(10 37 69 38 15 -5 0 0)
1969/12/31/18:00:13.292,(0 -5 -10 2 4 -5 7 10)
1969/12/31/18:00:13.292,(-8 8 4 -2 -2 -8 6 4)
1969/12/31/18:00:13.304,(2 6 -6 -3 -2 -12 -1 2)
1969/12/31/18:00:13.304,(-3 -13 -23 -16 -5 -6 5 5)
1969/12/31/18:00:13.324,(-1 -10 -27 -22 -9 -14 -5 -1)
1969/12/31/18:00:13.324,(-1 1 6 9 5 -3 5 4)
1969/12/31/18:00:13.326,(-21 -21 -7 -14 -5 -4 1 -2)
1969/12/31/18:00:13.326,(33 47 31 17 5 0 0 3)
1969/12/31/18:00:13.356,(-9 -53 -14 6 4 5 6 4)
1969/12/31/18:00:13.356,(-11 -8 12 -2 -3 1 0 -4)
1969/12/31/18:00:13.358,(5 21 14 9 0 4 3 3)
1969/12/31/18:00:13.358,(-13 -6 -21 -14 -7 -5 -6 -11)
1969/12/31/18:00:13.376,(3 -10 -14 -5 0 0 -1 -2)
1969/12/31/18:00:13.376,(-8 -23 -31 -23 -8 -3 2 1)
1969/12/31/18:00:13.398,(11 23 24 14 3 -4 0 2)
1969/12/31/18:00:13.398,(7 -6 5 2 2 2 2 8)
1969/12/31/18:00:13.420,(-3 16 -10 -7 -5 0 -2 -5)
1969/12/31/18:00:13.420,(-9 -9 19 11 2 3 -3 -6)
1969/12/31/18:00:13.422,(0 5 8 6 -1 4 -6 -7)
1969/12/31/18:00:13.422,(-7 -18 -17 -6 -4 4 -4 -6)
1969/12/31/18:00:13.452,(-2 -6 4 -1 -2 5 -2 -2)
1969/12/31/18:00:13.452,(8 22 6 3 -1 4 -2 -3)
1969/12/31/18:00:13.454,(4 -11 -10 -7 -4 3 -3 -3)
1969/12/31/18:00:13.454,(-5 -4 7 6 0 4 1 1)
1969/12/31/18:00:13.459,(4 20 0 -4 -1 2 -4 -3)
1969/12/31/18:00:13.459,(3 -16 14 10 4 4 -1 -3)
1969/12/31/18:00:13.470,(5 -2 -11 -5 -3 4 -5 -4)
1969/12/31/18:00:13.470,(-5 2 1 2 -2 6 -4 -8)
1969/12/31/18:00:13.504,(2 -5 2 0 -5 6 -6 -8)
1969/12/31/18:00:13.504,(6 -1 -9 -4 -3 1 0 -1)
1969/12/31/18:00:13.505,(-7 -9 -6 -3 -2 -2 1 1)
1969/12/31/18:00:13.505,(-4 -8 -23 -15 -4 -9 2 6)
1969/12/31/18:00:13.523,(1 4 -10 -8 1 -9 6 13)
1969/12/31/18:00:13.523,(-4 7 -9 -2 5 -18 9 12)
1969/12/31/18:00:13.544,(-4 6 -7 -12 1 -23 7 10)
1969/12/31/18:00:13.544,(0 1 -13 -2 4 -18 4 10)
1969/12/31/18:00:13.547,(1 5 4 0 3 -16 5 11)
1969/12/31/18:00:13.547,(-4 -1 -10 -7 -2 -12 -1 2)
1969/12/31/18:00:13.555,(1 9 2 -3 1 -4 2 0)
1969/12/31/18:00:13.555,(-2 -1 3 1 1 0 1 1)
1969/12/31/18:00:13.576,(-1 -4 -1 -2 -3 3 0 -4)
1969/12/31/18:00:13.576,(7 12 9 3 -3 3 -2 -4)
1969/12/31/18:00:13.578,(-2 -7 9 5 -3 -1 -5 -8)
1969/12/31/18:00:13.578,(-3 -5 8 4 -4 4 -8 -11)
1969/12/31/18:00:13.629,(-2 -5 21 11 1 8 -7 -12)
1969/12/31/18:00:13.629,(1 2 5 3 -2 15 -9 -8)
1969/12/31/18:00:13.630,(0 -12 8 4 -2 17 -4 -3)
1969/12/31/18:00:13.630,(3 15 15 1 -3 16 -5 -7)
1969/12/31/18:00:13.653,(-5 -2 -2 0 -3 9 -5 -6)
1969/12/31/18:00:13.653,(-2 -7 0 3 0 9 -2 -5)
1969/12/31/18:00:13.653,(0 -4 0 -2 -3 5 -3 -2)
1969/12/31/18:00:13.653,(-2 -9 -8 -4 -2 2 -4 -6)
1969/12/31/18:00:13.660,(4 7 6 5 -1 -1 0 -1)
1969/12/31/18:00:13.660,(-8 -4 0 0 -3 -1 -3 -7)
1969/12/31/18:00:13.661,(-6 -8 -9 -4 -5 -6 -4 -5)
1969/12/31/18:00:13.661,(-5 -5 -5 -6 -3 -2 -4 -6)
1969/12/31/18:00:13.690,(-1 0 -3 -6 -2 -3 -3 -3)
1969/12/31/18:00:13.690,(5 9 6 7 1 2 0 2)
1969/12/31/18:00:13.692,(1 0 -1 0 0 0 -1 -2)
1969/12/31/18:00:13.692,(0 -4 -4 0 0 -5 0 3)
1969/12/31/18:00:13.732,(-4 -9 -9 -4 -2 -5 -1 0)
1969/12/31/18:00:13.732,(-2 0 -8 -6 -1 -3 -2 1)
1969/12/31/18:00:13.733,(-1 1 0 0 2 -3 0 0)
1969/12/31/18:00:13.733,(-2 -3 -3 -2 2 -2 4 4)
1969/12/31/18:00:13.776,(-2 -1 -5 -3 0 -5 1 3)
1969/12/31/18:00:13.776,(0 5 -2 -2 1 -5 1 4)
1969/12/31/18:00:13.778,(1 1 -3 0 0 -3 2 3)
1969/12/31/18:00:13.778,(1 2 0 -2 0 -2 1 0)
1969/12/31/18:00:13.779,(-2 -2 -8 -2 0 -4 1 0)
1969/12/31/18:00:13.779,(2 2 -1 -5 -1 0 1 3)
1969/12/31/18:00:13.785,(-2 5 6 8 5 3 -1 -1)
1969/12/31/18:00:13.785,(-2 -6 -4 -1 -2 -1 0 0)
1969/12/31/18:00:13.806,(-2 -5 -1 2 2 0 -2 -2)
1969/12/31/18:00:13.806,(2 7 3 -1 1 -3 -1 -1)
1969/12/31/18:00:13.807,(2 2 3 1 -1 2 0 1)
1969/12/31/18:00:13.807,(0 -4 -1 -4 -3 1 -2 -3)
1969/12/31/18:00:13.825,(2 5 8 7 0 4 -2 -2)
1969/12/31/18:00:13.825,(-7 -13 -5 -3 -5 -1 -6 -7)
1969/12/31/18:00:13.826,(-3 -4 -4 -5 -4 0 -1 -4)
1969/12/31/18:00:13.826,(-2 -2 -2 2 2 1 0 -4)
1969/12/31/18:00:13.860,(2 -2 0 -1 -3 -2 -1 -1)
1969/12/31/18:00:13.860,(-1 0 1 -2 -2 -3 -2 0)
1969/12/31/18:00:13.861,(-1 0 1 2 1 -2 -2 0)
1969/12/31/18:00:13.861,(-1 0 -3 -4 -2 -2 1 2)
1969/12/31/18:00:13.889,(1 2 1 -1 1 -1 -1 -1)
1969/12/31/18:00:13.889,(-1 2 1 3 1 1 1 -1)
1969/12/31/18:00:13.890,(0 2 2 6 0 -1 -1 -1)
1969/12/31/18:00:13.890,(-2 -1 0 -4 -2 -4 -3 -1)
1969/12/31/18:00:13.909,(-3 -4 -10 -8 -4 -4 -2 -3)
1969/12/31/18:00:13.909,(-2 -6 7 9 3 2 -1 -1)
1969/12/31/18:00:13.910,(-2 -1 -1 -1 0 -1 3 0)
1969/12/31/18:00:13.910,(-1 -1 1 2 -2 -2 0 -1)
1969/12/31/18:00:13.941,(-3 0 -4 -6 -3 1 -1 -3)
1969/12/31/18:00:13.941,(1 0 -2 -2 -1 -3 0 0)
1969/12/31/18:00:13.942,(3 1 0 -2 0 0 -1 2)
1969/12/31/18:00:13.942,(-5 -7 -5 0 0 -1 -1 -2)
1969/12/31/18:00:13.942,(-2 -4 -6 -7 -4 -1 -2 -2)
1969/12/31/18:00:13.942,(2 2 2 -2 1 1 -1 0)
1969/12/31/18:00:13.943,(0 1 1 -1 2 -1 0 0)
1969/12/31/18:00:13.943,(0 2 1 -1 -2 -1 -1 0)
1969/12/31/18:00:13.974,(1 1 -1 1 0 1 -1 -2)
1969/12/31/18:00:13.974,(-3 -1 -2 0 -1 -1 -2 -2)
1969/12/31/18:00:13.975,(1 -1 0 -2 0 -1 0 1)
1969/12/31/18:00:13.975,(-4 -3 -4 -4 -3 -2 -2 -3)
1969/12/31/18:00:13.984,(1 0 3 1 0 -3 3 3)
1969/12/31/18:00:13.984,(-2 -4 -2 -3 -3 -3 -1 -2)
1969/12/31/18:00:13.986,(0 1 0 0 0 -1 -3 -1)
1969/12/31/18:00:13.986,(1 1 1 4 2 2 1 0)
1969/12/31/18:00:14.016,(-2 0 -2 0 -1 -1 0 -1)
1969/12/31/18:00:14.016,(4 4 5 4 0 0 1 1)
1969/12/31/18:00:14.017,(-2 -1 -4 -2 -1 -2 -2 -1)
1969/12/31/18:00:14.017,(-2 -3 0 3 1 -1 -1 -2)
1969/12/31/18:00:14.045,(-2 -1 -2 -3 -2 0 -1 0)
1969/12/31/18:00:14.045,(-1 0 -2 -2 0 -1 0 1)
1969/12/31/18:00:14.048,(0 3 2 2 0 -1 -2 2)
1969/12/31/18:00:14.048,(0 0 1 -2 0 0 -1 1)
1969/12/31/18:00:14.066,(-1 -2 0 2 0 1 -3 -2)
1969/12/31/18:00:14.066,(-3 -5 -3 -1 -2 -1 -1 -4)
1969/12/31/18:00:14.068,(-2 -2 -3 -3 -2 1 1 -1)
1969/12/31/18:00:14.068,(0 0 -2 0 -1 -1 -2 -2)
1969/12/31/18:00:14.120,(-1 -1 -1 -2 -1 0 -1 1)
1969/12/31/18:00:14.120,(0 2 2 3 1 1 -1 2)
1969/12/31/18:00:14.123,(-1 -2 0 -2 -3 -1 -1 -3)
1969/12/31/18:00:14.123,(-1 -3 -2 -1 -3 -2 -1 -1)
1969/12/31/18:00:14.124,(-2 0 -1 0 -2 0 -2 -2)
1969/12/31/18:00:14.124,(-2 -1 -5 -4 -4 -2 0 -3)
1969/12/31/18:00:14.152,(-1 0 -1 1 -3 -3 -1 -1)
1969/12/31/18:00:14.152,(1 3 2 -3 1 1 0 0)
1969/12/31/18:00:14.155,(1 1 2 3 0 -3 0 -1)
1969/12/31/18:00:14.155,(-2 -1 -3 -2 1 -1 -2 -1)
1969/12/31/18:00:14.182,(-1 -3 -1 -2 0 0 0 -2)
1969/12/31/18:00:14.182,(-2 -2 -2 3 1 0 0 -3)
1969/12/31/18:00:14.184,(-2 -5 -7 -9 -4 -2 -1 -2)
1969/12/31/18:00:14.184,(-1 1 -3 -4 -4 -2 -1 -1)
1969/12/31/18:00:14.187,(-1 -1 8 8 3 0 0 -1)
1969/12/31/18:00:14.187,(0 3 2 1 -2 -1 1 2)
1969/12/31/18:00:14.212,(-3 -3 -8 -7 0 0 -1 -2)
1969/12/31/18:00:14.212,(1 0 2 1 1 -1 0 -1)
1969/12/31/18:00:14.214,(0 -3 -5 0 0 -2 0 4)
1969/12/31/18:00:14.214,(-2 -2 1 -2 -4 1 -3 -2)
1969/12/31/18:00:14.234,(2 1 0 5 -1 -1 0 1)
1969/12/31/18:00:14.234,(-4 -8 -17 -16 -6 -2 -4 -1)
1969/12/31/18:00:14.237,(-2 0 -3 -4 -1 -2 -2 -2)
1969/12/31/18:00:14.237,(1 2 7 10 2 -3 0 2)
1969/12/31/18:00:14.276,(1 3 7 6 2 -1 1 -1)
1969/12/31/18:00:14.276,(-3 -6 -9 -5 1 1 2 2)
1969/12/31/18:00:14.278,(2 2 8 -2 -3 -3 -5 -7)
1969/12/31/18:00:14.278,(-6 -12 -34 -33 -8 -2 -4 -6)
1969/12/31/18:00:14.297,(1 6 8 9 0 1 3 4)
1969/12/31/18:00:14.297,(5 12 35 30 6 2 0 0)
1969/12/31/18:00:14.298,(0 -3 -7 -3 -2 -1 -3 -3)
1969/12/31/18:00:14.298,(0 -6 -8 1 -4 0 4 4)
1969/12/31/18:00:14.317,(0 -1 3 -1 0 0 -4 -4)
1969/12/31/18:00:14.317,(-1 -7 -17 -14 -4 -1 -3 -2)
1969/12/31/18:00:14.319,(-4 -9 -20 -26 -8 1 1 2)
1969/12/31/18:00:14.319,(-2 -3 29 22 0 -2 -7 -11)
1969/12/31/18:00:14.348,(-9 -12 -39 -27 -5 2 2 5)
1969/12/31/18:00:14.348,(10 24 55 34 5 -3 -7 -6)
1969/12/31/18:00:14.351,(1 7 -1 17 6 3 -4 -9)
1969/12/31/18:00:14.351,(-4 -3 4 -10 -2 3 0 -3)
1969/12/31/18:00:14.390,(0 -1 7 -6 -4 0 1 4)
1969/12/31/18:00:14.390,(-2 -8 -13 2 -3 -3 0 4)
1969/12/31/18:00:14.401,(0 3 -7 1 3 1 -1 -3)
1969/12/31/18:00:14.401,(1 3 20 19 5 7 7 11)
1969/12/31/18:00:14.402,(-2 -1 -6 -10 -5 -4 -9 -13)
1969/12/31/18:00:14.402,(-4 -6 -9 -14 -4 4 3 0)
1969/12/31/18:00:14.405,(-4 -7 4 0 -1 2 -1 0)
1969/12/31/18:00:14.405,(-4 -1 -12 -6 -1 3 1 0)
1969/12/31/18:00:14.452,(3 2 12 6 -2 1 -2 3)
1969/12/31/18:00:14.452,(-4 -6 -12 -8 -2 -4 -3 -3)
1969/12/31/18:00:14.455,(0 -3 3 6 1 -5 1 2)
1969/12/31/18:00:14.455,(0 -1 -19 -24 -4 -14 -9 -12)
1969/12/31/18:00:14.456,(-5 2 12 24 5 -3 -1 0)
1969/12/31/18:00:14.456,(2 2 10 7 5 -4 1 1)
1969/12/31/18:00:14.463,(-4 -2 -7 -7 -2 -2 8 13)
1969/12/31/18:00:14.463,(2 8 2 4 4 -4 3 8)
1969/12/31/18:00:14.484,(2 -5 -15 -10 -4 -8 -1 -4)
1969/12/31/18:00:14.484,(-4 -4 -15 -10 -5 -8 -4 -4)
1969/12/31/18:00:14.486,(-2 -3 0 -2 -1 -9 2 3)
1969/12/31/18:00:14.486,(-1 0 -12 -6 0 -9 3 7)
1969/12/31/18:00:14.515,(-7 -8 -8 -5 1 -8 2 4)
1969/12/31/18:00:14.515,(-7 -3 -6 -3 0 -6 0 -2)
1969/12/31/18:00:14.516,(1 1 -2 -4 -2 -3 1 2)
1969/12/31/18:00:14.516,(0 -1 2 2 -1 2 0 -1)
1969/12/31/18:00:14.534,(2 8 14 4 -2 2 -10 -16)
1969/12/31/18:00:14.534,(-4 -6 1 -3 -2 8 -3 -9)
1969/12/31/18:00:14.558,(0 0 8 2 -4 10 -6 -7)
1969/12/31/18:00:14.558,(-3 -4 6 6 -2 6 -12 -20)
1969/12/31/18:00:14.568,(0 -2 2 3 -1 8 1 1)
1969/12/31/18:00:14.568,(1 1 -5 -5 -4 1 0 6)
1969/12/31/18:00:14.569,(-2 -2 1 2 1 3 -1 2)
1969/12/31/18:00:14.569,(1 6 3 2 0 -1 0 -5)
1969/12/31/18:00:14.598,(-3 -12 -8 -5 -4 -5 0 -5)
1969/12/31/18:00:14.598,(0 0 -9 -8 -3 -2 -3 -1)
1969/12/31/18:00:14.601,(2 -5 3 4 1 -2 -3 0)
1969/12/31/18:00:14.601,(-6 -17 -14 -8 -4 -5 2 3)
1969/12/31/18:00:14.618,(1 36 30 13 6 2 2 -2)
1969/12/31/18:00:14.618,(-1 -16 -12 -4 -2 -1 -1 -1)
1969/12/31/18:00:14.630,(0 -6 -8 -5 -3 -3 -2 -2)
1969/12/31/18:00:14.630,(1 10 -2 0 0 1 1 2)
1969/12/31/18:00:14.651,(1 -6 -2 0 -1 -1 1 1)
1969/12/31/18:00:14.651,(3 0 -2 -2 0 -1 -1 0)
1969/12/31/18:00:14.654,(-3 -4 3 -1 -1 1 3 2)
1969/12/31/18:00:14.654,(-2 0 -2 -3 -3 -5 -5 1)
1969/12/31/18:00:14.682,(-3 -2 -9 -3 1 1 0 1)
1969/12/31/18:00:14.682,(-6 -3 -3 -6 -6 0 18 14)
1969/12/31/18:00:14.685,(6 3 -2 2 0 -4 -12 -9)
1969/12/31/18:00:14.685,(0 -4 -2 -3 -3 -3 3 4)
1969/12/31/18:00:14.701,(4 3 2 2 3 -1 -6 -4)
1969/12/31/18:00:14.701,(0 -1 -3 -1 3 -1 -2 -1)
1969/12/31/18:00:14.714,(0 6 0 -2 0 -5 -6 -8)
1969/12/31/18:00:14.714,(-1 2 6 0 -1 -1 4 1)
1969/12/31/18:00:14.735,(0 -7 -5 -3 -2 0 1 0)
1969/12/31/18:00:14.735,(-4 -3 1 -2 -3 2 0 0)
1969/12/31/18:00:14.736,(6 13 11 5 2 -1 -8 -9)
1969/12/31/18:00:14.736,(10 5 2 2 -1 2 -2 3)
1969/12/31/18:00:14.767,(-9 -12 -9 -6 -4 -1 3 -1)
1969/12/31/18:00:14.767,(-3 2 1 -2 -2 0 -3 -1)
1969/12/31/18:00:14.768,(2 -1 -1 -3 -4 -2 5 4)
1969/12/31/18:00:14.768,(5 -5 -6 -2 -2 -1 2 1)
1969/12/31/18:00:14.785,(-8 -5 -6 0 1 -3 0 4)
1969/12/31/18:00:14.785,(2 12 3 3 2 -2 4 0)
1969/12/31/18:00:14.797,(-18 -20 -23 -13 -9 -18 2 16)
1969/12/31/18:00:14.797,(-6 -1 -6 -3 4 -11 -5 -5)
1969/12/31/18:00:14.828,(22 12 2 -2 1 -3 3 14)
1969/12/31/18:00:14.828,(-18 3 15 6 1 9 -13 -29)
1969/12/31/18:00:14.829,(-18 -6 9 2 -4 7 -11 -17)
1969/12/31/18:00:14.831,(32 -1 8 3 -2 13 -12 -7)
1969/12/31/18:00:14.850,(-20 -8 6 3 -3 21 3 -12)
1969/12/31/18:00:14.850,(2 -10 -5 -6 -9 -14 -2 5)
1969/12/31/18:00:14.851,(32 15 5 5 6 39 -10 -17)
1969/12/31/18:00:14.851,(-21 -1 4 1 -7 -28 9 -1)
1969/12/31/18:00:14.868,(37 15 -1 -2 -4 -8 0 4)
1969/12/31/18:00:14.868,(4 4 -2 -1 -3 -25 -10 4)
1969/12/31/18:00:14.881,(-30 -9 -3 -2 0 15 7 -5)
1969/12/31/18:00:14.881,(31 -3 -1 3 4 14 2 19)
1969/12/31/18:00:14.900,(-8 -17 -1 3 3 0 -2 -1)
1969/12/31/18:00:14.900,(-42 -31 -8 -2 4 8 2 -5)
1969/12/31/18:00:14.910,(18 16 -5 -7 -7 -23 8 26)
1969/12/31/18:00:14.910,(-5 9 -3 -7 -3 -27 -20 -20)
1969/12/31/18:00:14.932,(-11 -6 -7 -5 2 35 16 8)
1969/12/31/18:00:14.932,(50 29 5 1 -1 18 17 15)
1969/12/31/18:00:14.933,(-32 -21 -1 5 1 -38 -19 -3)
1969/12/31/18:00:14.933,(1 -1 -4 -2 0 7 -2 1)
1969/12/31/18:00:14.964,(2 -5 -5 -2 -5 -24 5 -9)
1969/12/31/18:00:14.964,(-4 -12 -5 -3 1 11 1 -6)
1969/12/31/18:00:14.967,(-5 16 8 5 5 10 8 -10)
1969/12/31/18:00:14.967,(-11 9 5 2 0 3 10 19)
1969/12/31/18:00:14.984,(-11 -25 -9 -6 -3 -10 -4 15)
1969/12/31/18:00:14.984,(1 -7 -9 -6 -3 -4 -15 -16)
1969/12/31/18:00:14.993,(59 44 6 -1 -6 -8 9 11)
1969/12/31/18:00:14.993,(23 -4 -1 -1 -2 5 0 29)
1969/12/31/18:00:15.016,(-74 -26 -9 -5 0 4 2 -42)
1969/12/31/18:00:15.016,(10 7 4 -2 -5 -22 -15 3)
1969/12/31/18:00:15.018,(-4 -6 -4 -3 -1 -11 3 30)
1969/12/31/18:00:15.018,(-4 -2 -2 -3 0 18 1 -55)
1969/12/31/18:00:15.048,(18 10 -2 -1 -4 -26 -6 34)
1969/12/31/18:00:15.048,(-19 -15 -4 -3 -8 6 -5 -20)
1969/12/31/18:00:15.049,(-9 7 1 1 5 -1 0 -5)
1969/12/31/18:00:15.049,(-13 4 1 3 0 -18 -10 11)
1969/12/31/18:00:15.067,(-6 -5 3 2 1 11 -8 -20)
1969/12/31/18:00:15.067,(39 8 0 -1 7 30 8 36)
1969/12/31/18:00:15.075,(-47 -25 -11 -8 -8 -12 -9 6)
1969/12/31/18:00:15.077,(-19 -11 -3 -1 4 26 -7 -63)
1969/12/31/18:00:15.099,(32 11 1 -2 -4 -12 -2 34)
1969/12/31/18:00:15.099,(4 6 -1 -1 -5 -57 -18 -14)
1969/12/31/18:00:15.102,(-1 -16 4 5 9 47 36 40)
1969/12/31/18:00:15.102,(-24 5 -3 -4 -1 -18 -13 -29)
1969/12/31/18:00:15.141,(-27 -21 -20 -20 -20 -18 -22 -49)
1969/12/31/18:00:15.141,(27 0 4 4 7 15 23 30)
1969/12/31/18:00:15.143,(-19 -20 -5 -5 -11 -45 -6 -33)
1969/12/31/18:00:15.143,(1 -1 -9 -7 -5 35 17 39)
1969/12/31/18:00:15.150,(34 16 9 7 4 -2 21 33)
1969/12/31/18:00:15.150,(-16 1 2 3 4 -7 -14 -25)
1969/12/31/18:00:15.159,(-7 -2 -2 -4 -5 3 -13 -42)
1969/12/31/18:00:15.159,(11 6 -1 -1 -2 -26 17 44)
1969/12/31/18:00:15.182,(10 10 1 -3 -5 5 23 -1)
1969/12/31/18:00:15.182,(5 3 0 1 -5 -10 -16 45)
1969/12/31/18:00:15.184,(3 -2 1 2 1 16 25 1)
1969/12/31/18:00:15.184,(-19 -13 -5 -1 1 -12 -15 -26)
1969/12/31/18:00:15.213,(-7 -9 1 1 2 -1 -22 -27)
1969/12/31/18:00:15.213,(-5 12 6 3 -5 -9 8 -27)
1969/12/31/18:00:15.216,(22 7 -10 -10 -1 15 8 44)
1969/12/31/18:00:15.216,(30 5 2 -8 -1 0 -3 11)
1969/12/31/18:00:15.234,(-17 -25 -3 10 3 0 -22 -31)
1969/12/31/18:00:15.234,(-27 7 -2 3 0 -7 -39 -41)
1969/12/31/18:00:15.244,(23 2 5 1 -1 -1 2 -5)
1969/12/31/18:00:15.244,(-18 -6 -8 -10 -3 50 -6 -12)
1969/12/31/18:00:15.266,(-2 -6 -11 -15 -6 -46 -15 10)
1969/12/31/18:00:15.266,(-10 -15 8 11 9 59 46 14)
1969/12/31/18:00:15.267,(-10 2 14 17 3 -36 -40 -30)
1969/12/31/18:00:15.267,(10 7 16 16 12 -5 2 6)
1969/12/31/18:00:15.298,(-2 8 0 0 -5 5 0 -11)
1969/12/31/18:00:15.298,(-10 -11 -17 -11 -2 6 10 38)
1969/12/31/18:00:15.299,(-31 -13 -12 -8 -5 7 4 -36)
1969/12/31/18:00:15.299,(13 -2 0 0 -4 -35 -11 0)
1969/12/31/18:00:15.316,(-3 3 2 3 10 46 11 5)
1969/12/31/18:00:15.316,(8 6 0 0 4 -3 -15 -12)
1969/12/31/18:00:15.330,(17 17 5 4 22 23 -1 16)
1969/12/31/18:00:15.330,(-15 -6 2 0 -25 -44 -3 3)
1969/12/31/18:00:15.351,(-10 1 0 3 19 8 -4 4)
1969/12/31/18:00:15.351,(-3 6 5 3 -3 -12 10 -14)
1969/12/31/18:00:15.352,(-17 -16 -1 10 49 65 13 27)
1969/12/31/18:00:15.352,(0 -3 -11 -21 -58 -41 -24 -15)
1969/12/31/18:00:15.380,(7 16 8 -4 -13 -42 -12 11)
1969/12/31/18:00:15.380,(-22 -8 -5 -10 -15 6 -1 -24)
1969/12/31/18:00:15.383,(5 -1 -8 -21 -26 -15 14 2)
1969/12/31/18:00:15.383,(-25 -20 -6 23 81 16 -3 -6)
1969/12/31/18:00:15.399,(7 5 8 11 -8 -35 -7 11)
1969/12/31/18:00:15.399,(12 4 -7 -16 -54 -74 -13 -4)
1969/12/31/18:00:15.412,(-22 -18 -10 -16 -61 -66 -20 26)
1969/12/31/18:00:15.412,(3 -7 -6 -16 -7 31 3 -16)
1969/12/31/18:00:15.433,(5 7 2 3 20 28 35 38)
1969/12/31/18:00:15.433,(-14 -25 -3 8 40 19 -31 -37)
1969/12/31/18:00:15.436,(35 7 -10 -8 -33 -2 6 16)
1969/12/31/18:00:15.436,(5 13 6 -1 -16 -18 11 20)
1969/12/31/18:00:15.465,(-15 -12 8 22 60 54 2 5)
1969/12/31/18:00:15.465,(5 23 11 48 110 96 54 26)
1969/12/31/18:00:15.466,(-90 -81 -45 -50 -93 -101 -54 -68)
1969/12/31/18:00:15.466,(24 8 13 -19 -14 -3 -6 13)
1969/12/31/18:00:15.483,(-1 -28 -29 -20 -10 -1 -2 -18)
1969/12/31/18:00:15.483,(-43 0 14 8 50 13 -30 -17)
1969/12/31/18:00:15.495,(15 47 69 56 54 41 15 -23)
1969/12/31/18:00:15.495,(2 -1 -13 -6 -19 -2 -12 -6)
1969/12/31/18:00:15.518,(16 9 -14 -4 -4 25 33 14)
1969/12/31/18:00:15.518,(6 -60 -88 -25 23 6 -11 -31)
1969/12/31/18:00:15.519,(37 24 0 3 4 -1 19 6)
1969/12/31/18:00:15.519,(-92 39 81 33 -36 -24 8 -49)
1969/12/31/18:00:15.547,(5 -3 -10 4 -28 -34 -40 -37)
1969/12/31/18:00:15.547,(34 -35 -63 -33 -49 -35 3 87)
1969/12/31/18:00:15.550,(19 -17 -66 -17 94 67 2 35)
1969/12/31/18:00:15.550,(-40 29 36 8 -31 -3 1 -33)
1969/12/31/18:00:15.566,(-7 21 36 7 -10 -6 -7 -14)
1969/12/31/18:00:15.566,(-3 -58 -28 -2 36 -17 4 -21)
1969/12/31/18:00:15.579,(57 57 12 8 -44 -14 -8 -24)
1969/12/31/18:00:15.579,(53 -77 -93 -13 54 59 40 24)
1969/12/31/18:00:15.609,(-38 49 88 19 3 7 -26 23)
1969/12/31/18:00:15.609,(-9 116 92 0 -39 -24 -26 -70)
1969/12/31/18:00:15.612,(22 -103 -71 -24 -22 14 49 79)
1969/12/31/18:00:15.612,(11 50 76 44 29 9 48 73)
1969/12/31/18:00:15.630,(80 -48 -128 -62 -27 -19 -19 12)
1969/12/31/18:00:15.630,(-11 54 91 38 65 49 -13 -15)
1969/12/31/18:00:15.633,(18 -4 19 15 -19 -2 38 81)
1969/12/31/18:00:15.633,(-1 16 -20 -21 -14 -18 -37 -50)
1969/12/31/18:00:15.650,(43 66 40 34 7 -5 24 54)
1969/12/31/18:00:15.650,(20 -87 -84 -43 6 17 18 9)
1969/12/31/18:00:15.662,(-86 83 127 47 6 -17 -36 -70)
1969/12/31/18:00:15.662,(31 -128 -128 -54 -16 -4 -22 -17)
1969/12/31/18:00:15.683,(-24 96 89 11 -7 -31 7 -19)
1969/12/31/18:00:15.683,(23 37 10 28 6 4 -9 -41)
1969/12/31/18:00:15.686,(-3 -15 -26 -8 -33 -29 -15 -15)
1969/12/31/18:00:15.686,(-41 -47 9 28 97 53 26 -63)
1969/12/31/18:00:15.715,(65 -128 -128 -85 -85 -14 -48 5)
1969/12/31/18:00:15.715,(-28 107 110 39 -23 -7 14 8)
1969/12/31/18:00:15.718,(-96 -34 -32 1 19 -30 -47 -95)
1969/12/31/18:00:15.718,(56 -2 -6 5 -38 -43 -27 45)
1969/12/31/18:00:15.746,(-19 -20 19 9 20 35 46 28)
1969/12/31/18:00:15.746,(2 -87 -87 -34 -27 -25 0 18)
1969/12/31/18:00:15.748,(39 16 -45 -10 40 60 29 8)
1969/12/31/18:00:15.748,(-32 50 16 1 2 -13 -2 2)
1969/12/31/18:00:15.766,(-15 61 38 5 -19 0 27 9)
1969/12/31/18:00:15.766,(-18 -11 51 21 5 24 30 1)
1969/12/31/18:00:15.769,(5 -35 -82 -46 -59 -64 -51 -14)
1969/12/31/18:00:15.769,(-9 81 71 28 21 23 46 65)
1969/12/31/18:00:15.797,(-19 -29 -35 20 28 0 -3 10)
1969/12/31/18:00:15.797,(-31 -61 -55 -40 -15 10 -10 7)
1969/12/31/18:00:15.800,(33 -64 -12 18 29 1 -1 -8)
1969/12/31/18:00:15.800,(47 -50 -79 -52 -81 -23 -11 29)
1969/12/31/18:00:15.817,(-53 -17 15 -4 37 -8 -33 -98)
1969/12/31/18:00:15.817,(19 105 66 34 40 22 25 16)
1969/12/31/18:00:15.829,(-17 13 9 -20 -67 -25 -37 -60)
1969/12/31/18:00:15.829,(-11 -7 0 0 6 -3 -2 -15)
1969/12/31/18:00:15.851,(-15 -56 -48 -18 5 10 15 -11)
1969/12/31/18:00:15.851,(26 -42 -43 -14 -30 -28 -33 9)
1969/12/31/18:00:15.858,(41 2 6 -9 20 21 23 34)
1969/12/31/18:00:15.858,(-6 92 77 42 57 23 17 6)
1969/12/31/18:00:15.904,(-14 -50 -51 -8 -13 -1 -7 -26)
1969/12/31/18:00:15.904,(-20 54 32 13 0 -13 9 13)
1969/12/31/18:00:15.906,(17 19 25 -6 -60 -40 -29 -18)
1969/12/31/18:00:15.906,(28 2 -40 -10 2 2 -12 -20)
1969/12/31/18:00:15.907,(-5 49 69 27 47 44 28 11)
1969/12/31/18:00:15.907,(16 -42 -32 -28 -85 -54 -56 -42)
1969/12/31/18:00:15.914,(-36 -20 14 16 68 49 43 38)
1969/12/31/18:00:15.914,(-40 -19 -4 3 -14 -12 -10 -9)
1969/12/31/18:00:15.932,(3 -42 -37 -3 4 5 -12 -37)
1969/12/31/18:00:15.932,(46 -55 -77 -27 -5 -5 30 28)
1969/12/31/18:00:15.942,(-14 94 91 33 13 8 4 1)
1969/12/31/18:00:15.942,(8 -21 -27 -5 17 22 11 -28)
1969/12/31/18:00:15.964,(-37 -34 -29 -5 -39 -29 -40 -22)
1969/12/31/18:00:15.964,(14 63 9 -5 -8 -4 7 30)
1969/12/31/18:00:15.967,(28 9 31 25 43 36 35 29)
1969/12/31/18:00:15.967,(18 78 82 19 -12 -11 -38 -14)
1969/12/31/18:00:15.996,(-13 127 115 41 -8 -9 26 -5)
1969/12/31/18:00:15.996,(-42 -128 -110 -22 -18 6 -14 -75)
1969/12/31/18:00:15.997,(20 -62 -88 -47 -62 -59 -30 14)
1969/12/31/18:00:15.997,(-3 9 42 22 80 59 -2 6)
1969/12/31/18:00:16.017,(28 -116 -128 -33 7 -3 -7 31)
1969/12/31/18:00:16.017,(-11 127 127 51 13 42 16 3)
1969/12/31/18:00:16.020,(-23 31 21 7 12 -14 36 -5)
1969/12/31/18:00:16.020,(5 -43 -38 -1 -49 -59 -47 -15)
1969/12/31/18:00:16.047,(19 -16 10 -19 -30 -13 -12 20)
1969/12/31/18:00:16.047,(27 -54 -84 -25 8 35 62 41)
1969/12/31/18:00:16.050,(-13 -3 46 14 39 36 -10 -17)
1969/12/31/18:00:16.050,(33 50 20 -1 -15 -1 -11 52)
1969/12/31/18:00:16.079,(-19 85 95 54 34 7 10 -22)
1969/12/31/18:00:16.079,(20 -45 -99 -2 14 8 -21 -9)
1969/12/31/18:00:16.081,(-2 -71 -40 -39 -70 -71 0 53)
1969/12/31/18:00:16.081,(-5 30 49 -2 32 13 24 29)
1969/12/31/18:00:16.100,(8 45 25 11 29 0 -30 -22)
1969/12/31/18:00:16.100,(-2 -58 -6 -6 -1 12 29 29)
1969/12/31/18:00:16.132,(-15 -32 -50 7 54 41 12 1)
1969/12/31/18:00:16.132,(-28 13 -21 -19 -65 -53 -25 -48)
1969/12/31/18:00:16.134,(21 -28 -38 -24 -11 13 -17 33)
1969/12/31/18:00:16.134,(3 3 21 -2 -28 -42 -12 17)
1969/12/31/18:00:16.136,(23 -21 -34 -1 44 52 5 -35)
1969/12/31/18:00:16.136,(-55 6 18 7 -27 -29 16 -55)
1969/12/31/18:00:16.150,(-16 11 20 -2 4 -8 -12 -34)
1969/12/31/18:00:16.150,(8 -46 -60 -15 -21 -28 0 27)
1969/12/31/18:00:16.163,(8 35 16 7 -31 -5 2 15)
1969/12/31/18:00:16.163,(-30 2 42 12 26 13 -4 0)
1969/12/31/18:00:16.182,(0 -69 -85 -29 0 9 54 45)
1969/12/31/18:00:16.182,(-10 115 127 50 70 19 -38 -13)
1969/12/31/18:00:16.192,(-2 -89 -72 -34 -40 -19 -16 -19)
1969/12/31/18:00:16.192,(65 -23 -68 -17 -52 -15 14 70)
1969/12/31/18:00:16.216,(-12 69 49 21 17 -4 1 -16)
1969/12/31/18:00:16.216,(5 -27 17 0 -15 -9 8 -5)
1969/12/31/18:00:16.224,(0 7 -24 -17 45 14 -66 -25)
1969/12/31/18:00:16.224,(-10 -82 -48 -6 -2 27 25 16)
1969/12/31/18:00:16.256,(51 10 -30 -18 -51 -54 -33 13)
1969/12/31/18:00:16.256,(-71 -36 34 9 6 3 32 0)
1969/12/31/18:00:16.259,(89 96 25 16 32 36 18 47)
1969/12/31/18:00:16.259,(1 -74 -101 -16 23 6 -28 -68)
1969/12/31/18:00:16.266,(-13 84 96 56 17 14 17 7)
1969/12/31/18:00:16.266,(-14 -2 -23 -3 5 4 1 2)
1969/12/31/18:00:16.275,(-7 15 -9 -19 -43 -15 -21 -27)
1969/12/31/18:00:16.275,(26 -62 -46 -15 2 -15 21 55)
1969/12/31/18:00:16.299,(-49 -86 -84 -55 -53 20 12 -33)
1969/12/31/18:00:16.299,(11 97 76 25 20 -13 -11 -9)
1969/12/31/18:00:16.301,(-18 23 28 28 40 17 23 35)
1969/12/31/18:00:16.302,(13 -38 -58 -49 -65 -48 -16 -30)
1969/12/31/18:00:16.330,(1 39 51 14 0 -11 -30 -44)
1969/12/31/18:00:16.330,(-7 -35 -10 -8 2 11 7 14)
1969/12/31/18:00:16.332,(44 40 -15 0 21 35 50 24)
1969/12/31/18:00:16.332,(-53 104 116 65 46 8 -10 -42)
1969/12/31/18:00:16.349,(55 -34 -33 13 16 -4 -9 64)
1969/12/31/18:00:16.349,(-11 -15 -21 -26 -51 -15 3 -34)
1969/12/31/18:00:16.359,(-36 40 41 6 6 -7 -7 -61)
1969/12/31/18:00:16.359,(-37 -99 -94 -39 -2 17 6 -15)
1969/12/31/18:00:16.383,(18 13 30 5 0 -5 19 20)
1969/12/31/18:00:16.383,(35 -10 -15 -5 -11 -12 -11 58)
1969/12/31/18:00:16.384,(17 22 14 9 -19 12 -5 17)
1969/12/31/18:00:16.384,(-8 7 -3 -20 46 27 -3 -2)
1969/12/31/18:00:16.413,(1 -57 -54 -10 -24 -14 11 3)
1969/12/31/18:00:16.413,(16 -35 -81 -68 -68 -80 -38 6)
1969/12/31/18:00:16.416,(-16 30 56 23 30 15 -2 10)
1969/12/31/18:00:16.416,(10 25 25 18 -5 6 29 23)
1969/12/31/18:00:16.433,(10 47 30 27 36 25 -35 -38)
1969/12/31/18:00:16.434,(-9 -27 -35 -13 -13 6 12 -10)
1969/12/31/18:00:16.442,(-38 -6 70 22 -23 -30 -8 -57)
1969/12/31/18:00:16.442,(13 24 -24 -18 12 19 1 27)
1969/12/31/18:00:16.466,(28 -29 -33 2 34 28 48 76)
1969/12/31/18:00:16.466,(17 62 52 26 -5 -26 -24 10)
1969/12/31/18:00:16.467,(-50 -39 -25 -12 20 16 12 3)
1969/12/31/18:00:16.467,(-19 -45 -9 -9 -26 -4 -26 -23)
1969/12/31/18:00:16.498,(35 -58 -45 -34 -79 -39 -9 15)
1969/12/31/18:00:16.498,(4 113 81 27 92 61 21 9)
1969/12/31/18:00:16.499,(0 -22 -28 -8 -15 -14 8 4)
1969/12/31/18:00:16.499,(-14 -80 -77 0 56 -1 -33 -28)
1969/12/31/18:00:16.516,(10 101 82 62 29 10 18 -1)
1969/12/31/18:00:16.516,(0 -7 -23 -12 -51 -19 -23 -36)
1969/12/31/18:00:16.526,(19 -41 25 -7 -52 -54 -18 -4)
1969/12/31/18:00:16.526,(-7 -3 -18 -19 -9 -9 -2 -27)
1969/12/31/18:00:16.548,(-6 -23 -1 -7 22 18 7 -11)
1969/12/31/18:00:16.548,(-1 -20 -28 -5 27 23 -14 -4)
1969/12/31/18:00:16.551,(-22 -3 -30 0 -5 5 14 6)
1969/12/31/18:00:16.551,(22 20 33 4 -33 -13 21 38)
1969/12/31/18:00:16.580,(18 -7 11 9 51 19 3 14)
1969/12/31/18:00:16.580,(31 28 25 10 -38 -33 -8 3)
1969/12/31/18:00:16.583,(-16 -51 -59 -20 20 30 -10 3)
1969/12/31/18:00:16.583,(-6 -2 6 6 39 18 -13 -34)
1969/12/31/18:00:16.600,(-45 -27 -21 -7 -29 -7 -8 -16)
1969/12/31/18:00:16.600,(-43 -40 -13 4 0 -8 22 -32)
1969/12/31/18:00:16.612,(2 4 -24 -5 -27 -24 -63 -55)
1969/12/31/18:00:16.612,(42 111 62 18 -2 0 40 38)
1969/12/31/18:00:16.633,(-36 -32 4 -14 -1 -3 0 -6)
1969/12/31/18:00:16.633,(18 -20 -33 -8 -26 -7 9 23)
1969/12/31/18:00:16.636,(-29 -33 -12 7 47 15 -1 14)
1969/12/31/18:00:16.636,(44 87 66 26 -20 6 -5 17)
1969/12/31/18:00:16.663,(-25 -2 -21 -48 -75 -37 -14 -21)
1969/12/31/18:00:16.663,(24 -17 3 -4 1 16 10 53)
1969/12/31/18:00:16.665,(7 4 -6 35 28 26 13 22)
1969/12/31/18:00:16.665,(1 -35 -25 -50 -87 -30 -5 23)
1969/12/31/18:00:16.695,(-40 -34 -17 47 72 14 -19 -24)
1969/12/31/18:00:16.695,(9 16 8 -1 -15 -3 20 31)
1969/12/31/18:00:16.698,(-29 -7 -8 -12 5 -24 -31 -72)
1969/12/31/18:00:16.698,(1 1 11 23 2 13 -1 -20)
1969/12/31/18:00:16.716,(69 49 9 -20 -21 -3 13 34)
1969/12/31/18:00:16.716,(-39 -12 -1 -11 4 6 -16 -41)
1969/12/31/18:00:16.718,(-59 -47 -39 -29 -16 -20 -1 -7)
1969/12/31/18:00:16.718,(9 -13 -8 4 8 0 0 9)
1969/12/31/18:00:16.747,(-53 -26 -26 -23 -11 -10 -12 -46)
1969/12/31/18:00:16.747,(43 57 55 40 41 26 12 9)
1969/12/31/18:00:16.748,(15 0 -5 -17 -35 -22 -28 -54)
1969/12/31/18:00:16.748,(70 0 -13 -3 7 -2 -5 46)
1969/12/31/18:00:16.766,(-29 6 10 10 25 28 38 11)
1969/12/31/18:00:16.766,(-97 -73 -42 -24 -21 -29 -73 -108)
1969/12/31/18:00:16.779,(39 31 16 -47 -62 1 26 37)
1969/12/31/18:00:16.779,(-39 -13 4 43 32 39 21 1)
1969/12/31/18:00:16.800,(53 6 -5 -11 -13 -14 -27 -36)
1969/12/31/18:00:16.800,(9 22 18 50 48 15 5 -17)
1969/12/31/18:00:16.801,(-60 -15 15 37 28 -32 -31 5)
1969/12/31/18:00:16.801,(-27 -20 -15 -12 -16 19 12 0)
1969/12/31/18:00:16.830,(-4 5 -3 -20 -24 -4 -51 -14)
1969/12/31/18:00:16.830,(27 10 -10 -21 -31 -21 25 20)
1969/12/31/18:00:16.833,(59 29 16 12 25 30 31 16)
1969/12/31/18:00:16.833,(10 -3 10 1 -1 -12 7 76)
1969/12/31/18:00:16.850,(-33 -18 -14 -7 2 -12 -5 -31)
1969/12/31/18:00:16.850,(12 -11 -14 -25 -11 6 3 11)
1969/12/31/18:00:16.862,(1 27 10 11 5 4 8 -23)
1969/12/31/18:00:16.862,(17 0 12 9 14 6 16 28)
1969/12/31/18:00:16.883,(-35 4 -4 -5 -4 -3 2 -62)
1969/12/31/18:00:16.883,(-24 -42 -27 -14 -11 -12 -25 -16)
1969/12/31/18:00:16.886,(40 24 16 8 -1 19 35 97)
1969/12/31/18:00:16.886,(-3 -5 0 -1 8 -13 -19 -27)
1969/12/31/18:00:16.914,(29 11 7 7 8 2 4 5)
1969/12/31/18:00:16.914,(0 7 7 10 2 15 35 50)
1969/12/31/18:00:16.915,(13 -13 -6 0 0 -13 -23 -28)
1969/12/31/18:00:16.915,(24 5 -7 -9 -4 -12 -12 -19)
1969/12/31/18:00:16.933,(46 7 11 11 7 5 7 57)
1969/12/31/18:00:16.933,(98 41 1 5 7 8 -10 36)
1969/12/31/18:00:16.946,(-52 14 21 10 6 4 5 -9)
1969/12/31/18:00:16.946,(4 21 -2 -4 -1 -12 -17 -43)
1969/12/31/18:00:16.967,(-15 -21 13 6 -5 4 10 20)
1969/12/31/18:00:16.967,(-46 -6 -3 -12 -13 -13 -15 -34)
1969/12/31/18:00:16.968,(18 -19 -20 -5 0 2 1 2)
1969/12/31/18:00:16.968,(-44 2 3 3 4 1 -2 -8)
1969/12/31/18:00:16.997,(-105 -52 -24 -12 -8 -9 -11 -23)
1969/12/31/18:00:16.997,(61 20 -3 -5 -4 -5 1 33)
1969/12/31/18:00:16.999,(34 8 6 5 5 8 15 30)
1969/12/31/18:00:16.999,(-48 -22 -3 -2 -1 -4 4 -17)
1969/12/31/18:00:17.017,(29 19 1 -2 1 1 8 12)
1969/12/31/18:00:17.017,(-33 -15 -3 -1 -1 2 5 -1)
1969/12/31/18:00:17.029,(-8 7 1 0 -2 -3 -8 -48)
1969/12/31/18:00:17.029,(30 -1 4 3 5 3 10 30)
1969/12/31/18:00:17.050,(16 -3 -10 -5 -2 -7 -7 3)
1969/12/31/18:00:17.050,(-38 -13 1 2 -1 -1 -7 -44)
1969/12/31/18:00:17.051,(39 16 5 1 1 0 2 15)
1969/12/31/18:00:17.051,(-26 -13 -4 -4 1 -1 -2 -7)
1969/12/31/18:00:17.082,(47 12 -2 -4 -1 2 15 32)
1969/12/31/18:00:17.082,(-78 -41 -11 -5 -8 -2 -3 -19)
1969/12/31/18:00:17.083,(-3 6 -3 -3 -2 -1 0 5)
1969/12/31/18:00:17.083,(0 -18 -6 -5 -6 -5 -1 25)
1969/12/31/18:00:17.100,(9 11 4 8 3 1 3 -13)
1969/12/31/18:00:17.100,(2 -8 -4 -3 -3 -3 0 9)
1969/12/31/18:00:17.113,(12 -6 -10 -6 -3 -3 3 11)
1969/12/31/18:00:17.113,(4 -5 -12 -8 -4 -6 -11 -19)
1969/12/31/18:00:17.134,(-28 -1 19 8 2 3 4 5)
1969/12/31/18:00:17.134,(25 4 -5 0 0 1 4 6)
1969/12/31/18:00:17.135,(-15 -6 0 -2 -1 -2 -11 -19)
1969/12/31/18:00:17.135,(18 10 0 0 1 1 4 -3)
1969/12/31/18:00:17.164,(-25 -28 -29 -17 -10 -11 -12 -2)
1969/12/31/18:00:17.164,(-24 -26 -18 -5 2 4 -5 -27)
1969/12/31/18:00:17.166,(36 38 8 0 0 3 23 34)
1969/12/31/18:00:17.167,(-28 8 37 16 1 -6 -26 -9)
1969/12/31/18:00:17.184,(-7 -26 -23 -8 -2 0 2 -7)
1969/12/31/18:00:17.184,(10 37 24 7 4 2 1 -3)
1969/12/31/18:00:17.196,(-34 -85 -44 -18 -6 -5 -5 -17)
1969/12/31/18:00:17.196,(-11 52 33 9 3 -2 -11 -20)
1969/12/31/18:00:17.217,(6 15 20 13 2 1 5 -6)
1969/12/31/18:00:17.217,(-1 0 0 0 -3 -1 -4 -5)
1969/12/31/18:00:17.218,(4 -3 4 0 -2 -1 3 5)
1969/12/31/18:00:17.218,(14 -20 -30 -12 -5 -2 7 1)
1969/12/31/18:00:17.248,(-21 -11 3 0 -3 -4 -17 0)
1969/12/31/18:00:17.248,(-3 6 -4 -3 -3 -4 0 3)
1969/12/31/18:00:17.249,(4 -9 -15 -6 -3 -2 -4 2)
1969/12/31/18:00:17.249,(-11 -21 -17 -9 -2 1 8 -6)
1969/12/31/18:00:17.280,(12 34 9 -4 -4 -1 -2 8)
1969/12/31/18:00:17.280,(-8 0 22 11 6 2 17 13)
1969/12/31/18:00:17.282,(-2 13 9 1 -1 -4 -18 -1)
1969/12/31/18:00:17.282,(-3 4 14 7 1 -1 -2 -17)
1969/12/31/18:00:17.299,(5 -31 -20 -4 1 1 -2 4)
1969/12/31/18:00:17.299,(8 18 -10 -3 -1 2 2 5)
1969/12/31/18:00:17.302,(-6 18 26 11 0 -8 -23 -22)
1969/12/31/18:00:17.302,(-9 -32 -22 -12 -9 -3 14 -5)
1969/12/31/18:00:17.331,(8 -17 -43 -16 -2 4 7 11)
1969/12/31/18:00:17.331,(-2 60 74 22 5 -2 4 -1)
1969/12/31/18:00:17.334,(2 -26 -19 -6 3 5 8 14)
1969/12/31/18:00:17.334,(4 10 -9 -9 -6 -5 -12 -3)
1969/12/31/18:00:17.350,(1 -12 18 11 6 2 7 7)
1969/12/31/18:00:17.350,(-6 -58 -54 -27 -11 -3 -6 1)
1969/12/31/18:00:17.363,(-5 48 16 4 -2 0 9 -1)
1969/12/31/18:00:17.363,(-4 -20 -12 1 1 -2 0 4)
1969/12/31/18:00:17.382,(13 14 5 -1 -2 -4 -8 -10)
1969/12/31/18:00:17.382,(7 -5 -1 5 6 7 9 8)
1969/12/31/18:00:17.385,(-16 -24 -3 0 0 5 20 4)
1969/12/31/18:00:17.385,(-1 -22 -30 -15 -9 -11 -31 -10)
1969/12/31/18:00:17.414,(5 56 43 12 4 4 0 3)
1969/12/31/18:00:17.414,(2 -23 -26 -8 -5 -5 -16 -10)
1969/12/31/18:00:17.417,(5 14 4 5 0 0 14 3)
1969/12/31/18:00:17.417,(-3 -3 8 2 2 9 11 5)
1969/12/31/18:00:17.458,(8 14 1 -1 -1 3 8 5)
1969/12/31/18:00:17.458,(-15 -58 -31 -14 -6 -3 -7 -8)
1969/12/31/18:00:17.459,(0 18 1 -11 -6 -3 -12 -6)
1969/12/31/18:00:17.459,(6 43 56 40 17 9 3 -5)
1969/12/31/18:00:17.487,(3 2 -2 -3 -5 -1 -2 0)
1969/12/31/18:00:17.487,(3 2 5 3 0 4 3 -3)
1969/12/31/18:00:17.490,(-1 -20 -9 -3 -4 1 -6 -3)
1969/12/31/18:00:17.490,(4 -3 -8 -11 -6 -2 -5 -3)
1969/12/31/18:00:17.498,(-6 -17 -22 -11 -4 1 4 0)
1969/12/31/18:00:17.498,(12 20 28 14 5 3 -4 0)
1969/12/31/18:00:17.499,(-11 -17 30 19 3 2 -12 -13)
1969/12/31/18:00:17.499,(-7 30 17 4 2 6 3 -3)
1969/12/31/18:00:17.540,(3 -26 -11 -2 -1 3 5 1)
1969/12/31/18:00:17.540,(10 19 9 -3 -5 -5 -4 0)
1969/12/31/18:00:17.541,(3 18 10 9 5 -7 -3 5)
1969/12/31/18:00:17.542,(7 -5 -9 -5 0 -10 9 10)
1969/12/31/18:00:17.549,(-22 -13 -19 -9 0 -17 -10 -2)
1969/12/31/18:00:17.549,(-6 6 -19 -1 1 -11 2 8)
1969/12/31/18:00:17.559,(-1 -1 -9 -20 -5 -11 7 9)
1969/12/31/18:00:17.559,(1 -10 -6 4 3 -13 -1 6)
1969/12/31/18:00:17.559,(-9 -5 8 3 -2 7 -27 -16)
1969/12/31/18:00:17.559,(-23 -4 11 6 0 23 17 -22)
1969/12/31/18:00:17.560,(-1 -6 4 1 -3 9 -15 -14)
1969/12/31/18:00:17.560,(-9 1 8 5 -1 8 6 -1)
1969/12/31/18:00:17.580,(31 7 1 -1 -4 -30 -18 8)
1969/12/31/18:00:17.580,(18 15 8 7 2 19 -3 -3)
1969/12/31/18:00:17.580,(-4 -13 -11 -10 -9 -11 -9 -9)
1969/12/31/18:00:17.580,(-4 5 1 3 2 -5 -2 5)
1969/12/31/18:00:17.612,(7 2 -1 4 5 12 6 -5)
1969/12/31/18:00:17.612,(8 -2 -2 -4 -7 -37 -8 -9)
1969/12/31/18:00:17.613,(28 14 5 5 17 69 12 37)
1969/12/31/18:00:17.613,(-25 -9 -7 -4 -14 -43 -11 -24)
1969/12/31/18:00:17.643,(-2 -11 -4 -1 -1 3 18 13)
1969/12/31/18:00:17.643,(3 6 3 1 2 -6 -5 0)
1969/12/31/18:00:17.644,(6 -1 0 0 -3 8 19 9)
1969/12/31/18:00:17.644,(0 -6 -7 -6 -1 -12 -15 -3)
1969/12/31/18:00:17.662,(19 9 -5 -3 -1 7 14 18)
1969/12/31/18:00:17.662,(-52 -21 -6 -5 -2 -4 -21 -20)
1969/12/31/18:00:17.663,(-7 11 9 6 -2 -33 -4 -15)
1969/12/31/18:00:17.663,(-23 -8 -3 -1 1 4 -5 -16)
1969/12/31/18:00:17.695,(19 6 1 -1 3 4 0 19)
1969/12/31/18:00:17.695,(-2 5 -2 -2 3 22 4 -19)
1969/12/31/18:00:17.695,(10 7 3 1 -1 -29 12 19)
1969/12/31/18:00:17.695,(4 -8 -4 0 6 37 6 22)
1969/12/31/18:00:17.726,(-24 -7 -2 -3 -2 6 0 -27)
1969/12/31/18:00:17.726,(5 -6 -4 -1 -2 -8 6 5)
1969/12/31/18:00:17.727,(2 0 -4 -5 -4 -3 -9 -2)
1969/12/31/18:00:17.727,(-27 -11 -3 -3 -5 -10 -5 -27)
1969/12/31/18:00:17.745,(55 18 5 3 5 3 -1 41)
1969/12/31/18:00:17.745,(-45 -16 -7 -4 -8 -24 13 -4)
1969/12/31/18:00:17.757,(-32 -8 -5 -2 1 4 -17 -57)
1969/12/31/18:00:17.757,(19 0 1 3 13 64 23 28)
1969/12/31/18:00:17.777,(-47 1 -2 -3 -6 -8 -53 -38)
1969/12/31/18:00:17.777,(62 12 -4 -3 -1 -20 36 56)
1969/12/31/18:00:17.779,(2 -5 1 1 -7 -62 -42 -8)
1969/12/31/18:00:17.779,(-23 -13 0 0 0 -5 -8 0)
1969/12/31/18:00:17.811,(-4 -2 -4 -7 -4 44 50 11)
1969/12/31/18:00:17.811,(0 -7 -6 -1 -3 -21 -29 -32)
1969/12/31/18:00:17.812,(3 10 5 0 7 55 9 3)
1969/12/31/18:00:17.812,(-4 5 1 -1 -8 -52 -14 -30)
1969/12/31/18:00:17.851,(-20 -21 -8 -3 2 23 10 17)
1969/12/31/18:00:17.851,(-10 0 2 1 2 6 1 7)
1969/12/31/18:00:17.853,(-4 -9 -5 -4 -6 -11 1 -15)
1969/12/31/18:00:17.853,(27 15 -2 -6 -3 -19 -14 14)
1969/12/31/18:00:17.859,(-6 -4 8 7 -1 -27 -9 -9)
1969/12/31/18:00:17.859,(10 7 -1 -2 -9 -51 -9 -5)
1969/12/31/18:00:17.872,(-1 -1 -2 -1 10 86 13 -2)
1969/12/31/18:00:17.872,(-51 -11 -4 -2 -8 -46 -31 -47)
1969/12/31/18:00:17.893,(0 0 -4 -1 6 37 5 24)
1969/12/31/18:00:17.893,(26 1 7 4 4 -14 -3 64)
1969/12/31/18:00:17.894,(-14 14 8 4 0 0 8 7)
1969/12/31/18:00:17.894,(36 6 -3 -5 -8 -42 23 9)
1969/12/31/18:00:17.912,(2 -14 -2 1 8 37 -16 -11)
1969/12/31/18:00:17.912,(-17 2 2 -3 -12 -55 -27 -28)
1969/12/31/18:00:17.923,(15 -7 -7 -3 4 29 23 50)
1969/12/31/18:00:17.925,(-19 4 1 0 3 24 -6 13)
1969/12/31/18:00:17.943,(4 4 1 0 -4 -40 -25 -3)
1969/12/31/18:00:17.943,(22 1 -1 -1 8 48 11 23)
1969/12/31/18:00:17.955,(6 10 5 3 1 -24 12 19)
1969/12/31/18:00:17.955,(-34 -15 -11 -6 -6 13 -19 -77)
1969/12/31/18:00:17.976,(-8 -5 -3 -3 -9 -39 -5 3)
1969/12/31/18:00:17.976,(11 11 0 -1 8 76 14 8)
1969/12/31/18:00:17.978,(-57 -24 -11 -7 -11 -40 17 -18)
1969/12/31/18:00:17.978,(32 -2 -7 -5 -5 17 7 43)
1969/12/31/18:00:18.008,(-7 9 -1 -1 -4 -20 10 -8)
1969/12/31/18:00:18.008,(6 -4 -2 1 4 33 -2 -11)
1969/12/31/18:00:18.019,(-21 -9 -3 -4 -5 -20 -11 -51)
1969/12/31/18:00:18.019,(0 2 3 4 3 8 -21 -12)
1969/12/31/18:00:18.028,(25 -1 -7 -5 -5 -3 -17 -47)
1969/12/31/18:00:18.028,(-2 -3 -3 -2 -2 -12 11 24)
1969/12/31/18:00:18.037,(6 -1 2 1 0 -31 -24 3)
1969/12/31/18:00:18.037,(21 11 8 4 4 9 33 16)
1969/12/31/18:00:18.060,(12 18 11 14 23 81 23 64)
1969/12/31/18:00:18.060,(-3 -9 -6 -2 -4 -4 -12 -40)
1969/12/31/18:00:18.063,(-37 -8 -4 -3 4 -5 -15 -36)
1969/12/31/18:00:18.063,(-2 4 3 -1 -11 14 4 -13)
1969/12/31/18:00:18.079,(4 3 2 2 -4 -29 -16 15)
1969/12/31/18:00:18.079,(8 2 1 0 8 53 17 40)
1969/12/31/18:00:18.092,(33 3 2 0 8 -7 -8 18)
1969/12/31/18:00:18.092,(-19 -13 -3 1 20 35 23 3)
1969/12/31/18:00:18.111,(30 21 11 11 39 13 51 13)
1969/12/31/18:00:18.111,(-11 13 2 -5 -48 -59 -43 -73)
1969/12/31/18:00:18.120,(-4 -15 -10 -15 -41 -56 -12 6)
1969/12/31/18:00:18.121,(36 8 0 -2 3 48 -9 44)
1969/12/31/18:00:18.143,(-32 -16 -8 -3 22 8 36 -26)
1969/12/31/18:00:18.143,(33 39 12 12 16 18 10 33)
1969/12/31/18:00:18.146,(-36 -45 -6 16 36 45 21 -5)
1969/12/31/18:00:18.146,(29 -17 -6 9 59 -12 6 30)
1969/12/31/18:00:18.163,(-8 1 -1 -25 -110 -115 -34 5)
1969/12/31/18:00:18.163,(-9 -10 -12 -26 52 54 -17 -8)
1969/12/31/18:00:18.175,(-8 15 2 -9 -58 -36 4 -11)
1969/12/31/18:00:18.175,(15 2 3 4 -7 14 -19 9)
1969/12/31/18:00:18.196,(14 1 -1 14 68 49 3 -2)
1969/12/31/18:00:18.196,(-2 0 3 17 1 -25 7 -7)
1969/12/31/18:00:18.225,(56 23 8 -6 -52 -18 5 20)
1969/12/31/18:00:18.225,(-15 -5 -10 -15 -4 -12 13 -9)
1969/12/31/18:00:18.238,(-50 -21 -7 -8 -28 -40 -39 -95)
1969/12/31/18:00:18.238,(-12 -8 -4 -1 18 12 -1 4)
1969/12/31/18:00:18.239,(40 30 -1 28 127 86 22 36)
1969/12/31/18:00:18.239,(-20 0 8 -6 -73 -41 10 -17)
1969/12/31/18:00:18.259,(-28 -23 22 -9 -80 -50 -23 4)
1969/12/31/18:00:18.259,(-7 -19 -22 0 -19 -36 -22 -25)
1969/12/31/18:00:18.260,(-31 -36 -22 -11 29 23 -20 -5)
1969/12/31/18:00:18.260,(-8 57 53 42 102 47 32 26)
1969/12/31/18:00:18.278,(4 -4 -21 1 -4 23 24 -11)
1969/12/31/18:00:18.278,(-19 4 22 -30 -78 -62 -17 10)
1969/12/31/18:00:18.288,(-1 -23 -18 -11 -21 -23 5 3)
1969/12/31/18:00:18.288,(19 0 -29 -18 -3 11 -21 17)
1969/12/31/18:00:18.310,(-37 -64 -26 6 68 50 27 -27)
1969/12/31/18:00:18.310,(10 14 8 15 -48 -65 -37 -27)
1969/12/31/18:00:18.313,(-9 0 -54 -32 -29 -21 -23 -15)
1969/12/31/18:00:18.313,(-27 1 58 18 1 -9 -24 -5)
1969/12/31/18:00:18.342,(13 34 27 20 24 23 23 30)
1969/12/31/18:00:18.342,(-17 -18 2 4 18 30 34 -21)
1969/12/31/18:00:18.345,(21 15 6 14 36 5 -39 -11)
1969/12/31/18:00:18.345,(28 -47 -101 -43 -58 -10 9 -13)
1969/12/31/18:00:18.361,(-76 41 102 26 13 -19 -54 -87)
1969/12/31/18:00:18.361,(14 51 16 -3 -16 5 30 44)
1969/12/31/18:00:18.371,(16 -42 -64 -4 45 33 -22 -40)
1969/12/31/18:00:18.371,(2 -5 26 2 -42 -53 8 -32)
1969/12/31/18:00:18.395,(-4 34 22 -2 -22 8 20 13)
1969/12/31/18:00:18.395,(24 -14 -1 8 1 20 16 47)
1969/12/31/18:00:18.396,(-24 7 27 8 9 1 32 -4)
1969/12/31/18:00:18.396,(21 -62 -95 -24 34 23 -7 4)
1969/12/31/18:00:18.425,(75 -52 -106 -47 -28 -45 -5 52)
1969/12/31/18:00:18.425,(-69 68 103 48 20 20 -6 -36)
1969/12/31/18:00:18.427,(72 10 -29 1 1 27 30 53)
1969/12/31/18:00:18.427,(-14 -55 -53 0 28 -2 -8 -57)
1969/12/31/18:00:18.445,(-8 70 38 1 -11 15 39 41)
1969/12/31/18:00:18.445,(77 -3 -33 -3 23 6 -43 18)
1969/12/31/18:00:18.456,(2 85 80 35 -11 2 38 -47)
1969/12/31/18:00:18.456,(-83 -19 25 -15 -24 -26 -54 -32)
1969/12/31/18:00:18.477,(18 -128 -128 -53 -1 0 -7 -6)
1969/12/31/18:00:18.477,(-3 -24 -43 -22 -3 -18 -16 0)
1969/12/31/18:00:18.478,(-51 52 92 3 -16 -21 -27 -33)
1969/12/31/18:00:18.478,(46 41 -45 -4 -31 -18 25 2)
1969/12/31/18:00:18.509,(8 57 92 48 36 23 20 51)
1969/12/31/18:00:18.509,(-49 -69 -30 -16 47 49 7 -36)
1969/12/31/18:00:18.510,(-9 27 39 -3 -68 -24 -4 0)
1969/12/31/18:00:18.510,(-26 -5 -18 -25 -24 -7 26 11)
1969/12/31/18:00:18.527,(-4 -24 -31 -4 -3 -16 -27 -7)
1969/12/31/18:00:18.527,(-17 46 30 43 80 28 16 -29)
1969/12/31/18:00:18.540,(10 -115 -58 -26 22 50 15 17)
1969/12/31/18:00:18.540,(21 92 27 -27 -107 -70 -14 79)
1969/12/31/18:00:18.560,(-44 66 58 22 11 -6 -30 -65)
1969/12/31/18:00:18.560,(-10 -60 -33 -5 3 5 24 -30)
1969/12/31/18:00:18.563,(55 -49 -70 -13 -18 -18 5 87)
1969/12/31/18:00:18.563,(-46 -23 37 19 59 48 10 -45)
1969/12/31/18:00:18.592,(12 -2 -36 -28 -18 -23 -42 -30)
1969/12/31/18:00:18.592,(8 75 38 37 10 1 29 41)
1969/12/31/18:00:18.595,(0 -14 2 2 27 -20 -50 -23)
1969/12/31/18:00:18.595,(20 -25 16 13 -34 28 41 27)
1969/12/31/18:00:18.623,(-6 -74 -82 -44 -16 -24 -9 -19)
1969/12/31/18:00:18.623,(5 43 19 -10 -10 4 2 9)
1969/12/31/18:00:18.626,(-38 31 53 9 -3 -25 23 19)
1969/12/31/18:00:18.626,(1 -17 -19 -1 -12 -15 -52 -14)
1969/12/31/18:00:18.644,(15 -7 8 11 9 19 16 18)
1969/12/31/18:00:18.644,(36 -22 -42 -22 -16 3 47 89)
1969/12/31/18:00:18.647,(44 41 9 29 53 34 1 -8)
1969/12/31/18:00:18.647,(-62 98 127 40 14 -14 -29 -54)
1969/12/31/18:00:18.676,(44 7 -20 -13 -16 0 -4 19)
1969/12/31/18:00:18.676,(-13 -57 -34 -16 -5 -9 -4 -26)
1969/12/31/18:00:18.677,(36 -21 -64 -27 -5 -7 40 70)
1969/12/31/18:00:18.677,(-29 16 69 40 9 6 -3 -10)
1969/12/31/18:00:18.706,(-27 -12 -5 12 -2 -3 -24 -5)
1969/12/31/18:00:18.706,(23 0 24 3 11 11 5 -7)
1969/12/31/18:00:18.709,(0 18 -10 -14 -15 -5 -31 -11)
1969/12/31/18:00:18.709,(22 -37 -56 -10 35 20 18 -1)
1969/12/31/18:00:18.727,(-2 -2 1 -9 -44 -21 30 0)
1969/12/31/18:00:18.727,(-1 -10 -33 -35 -26 -10 -59 -17)
1969/12/31/18:00:18.730,(-52 -18 22 20 22 9 13 -35)
1969/12/31/18:00:18.730,(31 -46 -105 -42 -36 -42 -16 14)
1969/12/31/18:00:18.759,(28 113 124 52 35 21 19 15)
1969/12/31/18:00:18.759,(-7 13 47 39 26 39 18 21)
1969/12/31/18:00:18.761,(2 -35 -6 -11 -47 -28 0 -6)
1969/12/31/18:00:18.761,(-46 5 -10 -27 23 14 -11 -28)
1969/12/31/18:00:18.791,(-19 -67 -71 -18 -15 -15 23 17)
1969/12/31/18:00:18.791,(57 -22 -87 -67 -87 -37 -33 12)
1969/12/31/18:00:18.793,(-65 50 114 55 48 17 0 -9)
1969/12/31/18:00:18.793,(22 -57 -73 -22 -4 -13 -37 -41)
1969/12/31/18:00:18.811,(-29 42 42 18 21 9 -1 -1)
1969/12/31/18:00:18.811,(15 51 47 23 61 41 23 16)
1969/12/31/18:00:18.813,(-1 21 -10 -19 -88 -57 0 -24)
1969/12/31/18:00:18.813,(9 -39 -2 8 12 -1 4 27)
1969/12/31/18:00:18.843,(42 -41 -60 -18 32 11 9 29)
1969/12/31/18:00:18.843,(-35 -5 7 14 -4 -9 -26 -36)
1969/12/31/18:00:18.845,(-1 43 37 6 -7 15 27 26)
1969/12/31/18:00:18.845,(21 -17 -14 -15 -15 1 32 37)
1969/12/31/18:00:18.861,(-7 -14 12 10 57 46 16 12)
1969/12/31/18:00:18.861,(-52 15 8 8 -19 -11 -4 -76)
1969/12/31/18:00:18.873,(48 46 2 3 -11 -31 -47 -4)
1969/12/31/18:00:18.873,(-7 -19 29 33 52 35 28 29)
1969/12/31/18:00:18.894,(-13 -30 -31 -42 -71 -36 -32 -18)
1969/12/31/18:00:18.894,(1 -60 -59 -36 -19 -14 17 25)
1969/12/31/18:00:18.897,(-54 -73 -54 -13 37 31 -24 -32)
1969/12/31/18:00:18.897,(22 -6 -9 10 20 12 22 2)
1969/12/31/18:00:18.925,(42 59 45 32 13 7 -16 42)
1969/12/31/18:00:18.925,(2 -16 1 -17 -27 -23 -32 43)
1969/12/31/18:00:18.928,(9 -55 -52 -17 -34 -9 13 1)
1969/12/31/18:00:18.928,(13 -7 19 3 -1 -12 -41 -7)
1969/12/31/18:00:18.957,(-31 -58 -74 -46 -61 -66 -41 -40)
1969/12/31/18:00:18.957,(23 54 61 33 27 5 8 27)
1969/12/31/18:00:18.968,(19 105 81 38 49 36 15 -24)
1969/12/31/18:00:18.968,(22 29 24 -18 -80 -32 26 51)
1969/12/31/18:00:18.979,(-1 -56 -6 9 43 44 36 26)
1969/12/31/18:00:18.979,(-49 -52 -32 -10 -32 -56 -49 -69)
1969/12/31/18:00:18.980,(-1 -46 -51 -11 27 10 -35 11)
1969/12/31/18:00:18.980,(-15 -46 -48 -11 42 42 18 -6)
1969/12/31/18:00:19.010,(71 123 113 50 1 -11 17 60)
1969/12/31/18:00:19.010,(-8 -6 -24 -11 -22 1 6 -41)
1969/12/31/18:00:19.011,(-18 -48 0 2 37 45 37 20)
1969/12/31/18:00:19.011,(-23 -19 -32 -21 -63 -80 -56 -23)
1969/12/31/18:00:19.040,(-51 -25 10 -7 -16 16 31 -9)
1969/12/31/18:00:19.040,(42 -95 -87 -16 60 25 11 39)
1969/12/31/18:00:19.042,(16 111 100 27 -37 -10 -11 -22)
1969/12/31/18:00:19.043,(29 47 -2 22 -3 -15 15 18)
1969/12/31/18:00:19.061,(-42 -38 12 0 -2 0 -4 -49)
1969/12/31/18:00:19.061,(-14 -20 -20 -11 7 16 8 -15)
1969/12/31/18:00:19.064,(-7 -4 -47 -38 -21 -7 -70 -26)
1969/12/31/18:00:19.064,(7 15 52 18 31 25 44 74)
1969/12/31/18:00:19.092,(38 13 -5 14 22 13 5 8)
1969/12/31/18:00:19.092,(24 64 73 26 -10 1 36 8)
1969/12/31/18:00:19.094,(-55 -115 -75 -37 -51 -48 -26 -52)
1969/12/31/18:00:19.094,(-24 41 18 -2 14 34 4 -31)
1969/12/31/18:00:19.111,(7 -21 -62 7 27 -11 -37 -41)
1969/12/31/18:00:19.111,(-15 -2 1 -18 -34 -12 8 7)
1969/12/31/18:00:19.124,(3 -105 -56 -40 -48 -19 19 42)
1969/12/31/18:00:19.124,(3 127 127 54 18 -5 -6 -27)
1969/12/31/18:00:19.143,(34 -18 -29 10 44 37 22 40)
1969/12/31/18:00:19.143,(20 -13 -10 -12 -8 -22 -11 12)
1969/12/31/18:00:19.178,(-5 -12 -22 14 26 24 1 5)
1969/12/31/18:00:19.178,(46 -36 -20 -31 -74 -68 -32 7)
1969/12/31/18:00:19.179,(-73 7 3 -11 50 46 -16 -50)
1969/12/31/18:00:19.179,(7 -42 -34 1 -17 -32 -18 -17)
1969/12/31/18:00:19.181,(-36 -72 -50 -35 -63 -48 -5 2)
1969/12/31/18:00:19.181,(2 71 43 17 45 63 38 11)
1969/12/31/18:00:19.208,(14 -40 -62 -13 -21 -22 -13 -4)
1969/12/31/18:00:19.208,(-10 -31 24 12 13 19 39 35)
1969/12/31/18:00:19.211,(44 100 82 57 51 20 -5 -11)
1969/12/31/18:00:19.211,(7 -44 -15 -2 11 -9 -41 -74)
1969/12/31/18:00:19.228,(-10 13 -10 -36 -27 -2 -6 -20)
1969/12/31/18:00:19.228,(-22 -82 -64 -28 -8 -5 -7 9)
1969/12/31/18:00:19.231,(-9 2 -28 -6 -40 -47 10 2)
1969/12/31/18:00:19.231,(-9 30 51 35 20 17 29 10)
1969/12/31/18:00:19.260,(63 87 67 18 5 -16 -41 -29)
1969/12/31/18:00:19.260,(15 1 -8 0 4 42 23 18)
1969/12/31/18:00:19.268,(-34 -19 5 -1 21 -3 -11 -17)
1969/12/31/18:00:19.268,(-16 -18 -34 -24 -22 -12 14 27)
1969/12/31/18:00:19.278,(-11 12 27 8 -35 -6 15 13)
1969/12/31/18:00:19.278,(8 -1 8 1 22 0 13 48)
1969/12/31/18:00:19.290,(18 36 9 0 -5 -2 -27 -31)
1969/12/31/18:00:19.290,(-52 -80 -62 -36 -14 16 23 5)
1969/12/31/18:00:19.311,(17 -54 -36 15 12 -13 -27 -1)
1969/12/31/18:00:19.311,(23 123 60 30 10 8 14 0)
1969/12/31/18:00:19.314,(12 6 23 39 117 108 57 83)
1969/12/31/18:00:19.314,(9 9 -21 -9 -49 -78 -36 -35)
1969/12/31/18:00:19.343,(-4 -28 23 -43 -98 -24 0 -12)
1969/12/31/18:00:19.343,(-77 -50 -23 -15 -23 -48 -106 -82)
1969/12/31/18:00:19.345,(59 61 -1 -3 17 25 36 16)
1969/12/31/18:00:19.345,(9 -38 -16 12 64 54 26 46)
1969/12/31/18:00:19.375,(-12 -32 -43 -4 -10 -14 -22 -14)
1969/12/31/18:00:19.375,(-22 57 65 25 -10 -14 9 -11)
1969/12/31/18:00:19.377,(22 -21 -28 -13 -16 -6 -12 7)
1969/12/31/18:00:19.377,(26 65 73 29 34 15 -15 -10)
1969/12/31/18:00:19.393,(-31 -32 -46 -32 -33 -36 -11 -18)
1969/12/31/18:00:19.393,(19 4 -3 6 17 36 36 23)
1969/12/31/18:00:19.403,(-34 -62 -34 -11 6 3 10 -3)
1969/12/31/18:00:19.403,(22 49 51 33 8 11 15 -8)
1969/12/31/18:00:19.425,(-13 93 80 27 -1 1 21 39)
1969/12/31/18:00:19.425,(22 -41 -62 -42 -50 -34 -52 -5)
1969/12/31/18:00:19.428,(-14 12 70 16 1 -12 21 -3)
1969/12/31/18:00:19.428,(-1 -38 -98 -38 23 43 -9 -34)
1969/12/31/18:00:19.445,(-31 -7 40 43 50 24 52 35)
1969/12/31/18:00:19.445,(1 93 109 29 -16 1 -23 -31)
1969/12/31/18:00:19.457,(-14 -28 -29 -57 -82 -48 -9 -35)
1969/12/31/18:00:19.457,(-29 -56 -51 -2 16 -2 -15 10)
1969/12/31/18:00:19.477,(21 -30 -59 -7 25 15 -16 -15)
1969/12/31/18:00:19.477,(-21 -38 -41 -1 25 0 24 -5)
1969/12/31/18:00:19.487,(14 54 65 25 5 -7 22 27)
1969/12/31/18:00:19.487,(29 49 16 -5 -24 11 -17 -15)
1969/12/31/18:00:19.509,(-40 -77 -65 -37 -26 -39 -27 -16)
1969/12/31/18:00:19.509,(-1 30 42 8 -13 -5 -5 -14)
1969/12/31/18:00:19.512,(-24 -37 -3 -1 19 4 -23 -20)
1969/12/31/18:00:19.512,(86 83 -9 -6 1 -19 18 61)
1969/12/31/18:00:19.552,(-24 49 68 41 -6 6 -5 -7)
1969/12/31/18:00:19.552,(2 -38 -15 -7 3 10 11 2)
1969/12/31/18:00:19.555,(28 50 1 13 -15 -23 1 12)
1969/12/31/18:00:19.555,(-15 -31 42 -2 -2 22 14 -17)
1969/12/31/18:00:19.562,(-11 -11 -26 -83 -62 -31 -35 -16)
1969/12/31/18:00:19.562,(37 3 -11 53 83 51 33 47)
1969/12/31/18:00:19.570,(-31 -49 -39 5 -30 -42 -37 -42)
1969/12/31/18:00:19.570,(-22 -43 -23 6 -15 3 32 62)
1969/12/31/18:00:19.594,(33 19 -13 5 18 12 14 -36)
1969/12/31/18:00:19.594,(-68 -22 5 -38 -26 -14 -12 -41)
1969/12/31/18:00:19.595,(1 -42 -70 -30 -5 7 -4 -2)
1969/12/31/18:00:19.595,(-1 12 5 24 29 8 -3 5)
1969/12/31/18:00:19.623,(20 102 102 44 16 19 44 54)
1969/12/31/18:00:19.623,(-18 24 9 -5 6 8 -18 -31)
1969/12/31/18:00:19.635,(29 12 -9 9 3 -3 6 22)
1969/12/31/18:00:19.635,(-42 -74 -59 -48 -62 -59 -24 -41)
1969/12/31/18:00:19.644,(-21 -95 -91 -63 -52 -20 -32 -23)
1969/12/31/18:00:19.644,(5 -55 -48 -19 37 -4 3 -10)
1969/12/31/18:00:19.653,(19 61 28 -11 -60 9 2 9)
1969/12/31/18:00:19.653,(43 45 44 94 80 25 9 8)
1969/12/31/18:00:19.677,(7 24 43 30 16 37 37 48)
1969/12/31/18:00:19.677,(-33 -50 -48 -14 -14 -23 2 -1)
1969/12/31/18:00:19.678,(73 28 4 -23 -11 0 6 12)
1969/12/31/18:00:19.678,(-31 -32 -36 -59 -42 -18 -13 -12)
1969/12/31/18:00:19.708,(-17 -23 -9 31 49 20 2 -8)
1969/12/31/18:00:19.708,(-17 14 7 -13 -48 5 10 7)
1969/12/31/18:00:19.710,(5 16 9 18 38 3 -5 -4)
1969/12/31/18:00:19.710,(-12 -1 15 12 -8 -2 -8 -1)
1969/12/31/18:00:19.727,(27 3 -5 -2 16 -6 -10 -24)
1969/12/31/18:00:19.727,(22 3 -21 -17 -19 -5 4 16)
1969/12/31/18:00:19.770,(-5 -10 -17 -28 -18 -24 -10 8)
1969/12/31/18:00:19.770,(-23 12 27 27 35 47 9 -8)
1969/12/31/18:00:19.772,(-12 -17 -24 -12 -16 -16 -10 -15)
1969/12/31/18:00:19.772,(91 -37 -50 -11 -1 -5 9 18)
1969/12/31/18:00:19.779,(-70 54 46 19 4 4 -17 -36)
1969/12/31/18:00:19.779,(-51 -16 19 -12 0 -15 -20 -12)
1969/12/31/18:00:19.791,(6 20 6 -6 -4 10 20 15)
1969/12/31/18:00:19.791,(-9 -8 0 43 20 0 -13 -18)
1969/12/31/18:00:19.794,(-8 -55 -36 -17 5 4 -6 -4)
1969/12/31/18:00:19.794,(-39 -28 -25 -7 -10 -13 -17 -29)
1969/12/31/18:00:19.811,(27 2 -10 -9 -1 -2 16 16)
1969/12/31/18:00:19.811,(5 33 24 -3 2 -7 -4 6)
1969/12/31/18:00:19.820,(-14 -20 -2 -13 -12 17 30 17)
1969/12/31/18:00:19.820,(-44 -9 -9 -32 -18 -30 -40 -49)
1969/12/31/18:00:19.844,(-41 -33 -8 21 -2 4 -4 -31)
1969/12/31/18:00:19.844,(-17 6 12 15 11 14 35 29)
1969/12/31/18:00:19.845,(13 8 14 22 18 -9 2 7)
1969/12/31/18:00:19.845,(112 41 0 -11 -7 12 19 47)
1969/12/31/18:00:19.875,(-30 -9 -12 -38 -15 -32 -17 -16)
1969/12/31/18:00:19.875,(-53 -10 8 24 9 3 -13 -26)
1969/12/31/18:00:19.876,(-2 -12 -8 -3 -5 22 31 36)
1969/12/31/18:00:19.877,(-4 -11 -6 6 16 12 5 -10)
1969/12/31/18:00:19.894,(51 22 15 11 -15 -21 -10 35)
1969/12/31/18:00:19.894,(13 21 -4 -15 -14 -9 -9 -9)
1969/12/31/18:00:19.918,(-28 -23 -1 -6 -2 -7 -19 -24)
1969/12/31/18:00:19.918,(31 8 -1 3 6 0 -11 -5)
1969/12/31/18:00:19.939,(-30 -10 1 10 19 20 9 -7)
1969/12/31/18:00:19.939,(18 14 11 -5 -10 2 2 8)
1969/12/31/18:00:19.940,(102 53 27 26 21 3 -4 32)
1969/12/31/18:00:19.940,(-105 -73 -48 -34 -31 -29 -35 -74)
1969/12/31/18:00:19.968,(20 4 -5 0 5 8 2 -3)
1969/12/31/18:00:19.968,(26 11 8 -7 -13 -10 -2 13)
1969/12/31/18:00:19.971,(49 21 15 13 11 11 15 33)
1969/12/31/18:00:19.971,(-20 -9 -1 0 -7 -9 -9 -12)
1969/12/31/18:00:19.976,(21 1 1 1 3 2 -3 -7)
1969/12/31/18:00:19.976,(-128 -41 -16 -16 -11 -12 -24 -53)
1969/12/31/18:00:19.989,(50 27 9 4 7 6 5 12)
1969/12/31/18:00:19.989,(-53 -21 -10 -9 -11 -4 -4 -19)
1969/12/31/18:00:20.009,(27 11 -2 1 2 -2 -3 4)
1969/12/31/18:00:20.009,(26 38 20 9 5 11 14 24)
1969/12/31/18:00:20.021,(-50 -46 -21 -8 -5 -7 -17 -36)
1969/12/31/18:00:20.021,(17 23 8 2 0 -2 11 24)
1969/12/31/18:00:20.041,(-5 -13 -6 -2 0 1 -1 11)
1969/12/31/18:00:20.041,(19 19 13 9 3 4 1 -2)
1969/12/31/18:00:20.043,(18 9 9 4 1 1 8 22)
1969/12/31/18:00:20.043,(31 1 -6 -3 -1 -3 1 17)
1969/12/31/18:00:20.061,(4 16 -8 -3 2 5 6 9)
1969/12/31/18:00:20.061,(-42 -11 15 3 1 2 -1 0)
1969/12/31/18:00:20.073,(5 -17 -15 -8 -8 -12 -17 -32)
1969/12/31/18:00:20.073,(38 44 35 15 10 16 25 53)
1969/12/31/18:00:20.104,(-2 -9 -8 -1 0 -2 -4 -12)
1969/12/31/18:00:20.104,(36 -6 -17 -11 -7 -6 -3 9)
1969/12/31/18:00:20.107,(-88 -29 -15 -8 -7 -7 -10 -41)
1969/12/31/18:00:20.107,(16 -2 -1 -2 -1 3 4 3)
1969/12/31/18:00:20.126,(1 13 10 7 4 2 3 6)
1969/12/31/18:00:20.126,(18 -1 -6 -8 -4 -4 -6 -2)
1969/12/31/18:00:20.128,(-18 -6 -2 -2 1 1 -2 -3)
1969/12/31/18:00:20.128,(22 8 5 5 1 -2 1 11)
1969/12/31/18:00:20.157,(-5 4 5 5 2 -1 -1 -5)
1969/12/31/18:00:20.157,(-1 -18 -3 -3 -4 -4 -5 -2)
1969/12/31/18:00:20.158,(-9 -9 -10 -4 -3 -3 -3 -7)
1969/12/31/18:00:20.158,(-12 -13 -8 -5 -2 -2 -4 -8)
1969/12/31/18:00:20.176,(-8 0 -2 -5 -3 -3 -2 -4)
1969/12/31/18:00:20.176,(9 4 -4 -2 0 -1 2 2)
1969/12/31/18:00:20.179,(-2 0 2 -2 0 0 3 -1)
1969/12/31/18:00:20.179,(-14 -3 -2 0 -1 -1 -5 -8)
1969/12/31/18:00:20.208,(10 9 13 11 6 3 3 5)
1969/12/31/18:00:20.208,(12 0 0 -1 -3 -1 1 5)
1969/12/31/18:00:20.211,(-12 -13 -16 -7 -2 -2 -4 -10)
1969/12/31/18:00:20.211,(16 -8 -10 -4 -1 -2 1 8)
1969/12/31/18:00:20.229,(-8 -2 4 0 2 1 -4 -5)
1969/12/31/18:00:20.229,(2 15 5 2 1 3 2 0)
1969/12/31/18:00:20.240,(-9 -6 1 2 1 1 -5 -5)
1969/12/31/18:00:20.240,(-3 -31 -25 -9 -4 0 -1 -6)
1969/12/31/18:00:20.261,(4 9 2 -6 -6 -7 -3 2)
1969/12/31/18:00:20.261,(9 5 -8 -3 -2 -3 4 2)
1969/12/31/18:00:20.263,(-12 4 6 3 2 0 -4 -5)
1969/12/31/18:00:20.263,(11 5 7 7 2 2 4 9)
1969/12/31/18:00:20.292,(0 -34 -32 -7 -1 3 2 3)
1969/12/31/18:00:20.292,(10 42 43 13 3 0 1 2)
1969/12/31/18:00:20.295,(-1 -12 -7 -5 -2 -4 -11 -5)
1969/12/31/18:00:20.295,(7 -18 -21 -11 -3 2 3 0)
1969/12/31/18:00:20.324,(-10 27 11 2 -1 -2 0 0)
1969/12/31/18:00:20.324,(1 -6 -19 -6 0 1 0 -1)
1969/12/31/18:00:20.327,(-6 6 -2 1 1 2 5 -1)
1969/12/31/18:00:20.327,(0 0 20 7 2 -1 -2 -1)
1969/12/31/18:00:20.345,(0 -32 -27 -9 -1 0 1 3)
1969/12/31/18:00:20.345,(-7 -18 -13 -5 0 2 0 2)
1969/12/31/18:00:20.346,(-3 2 2 -3 -1 1 -2 0)
1969/12/31/18:00:20.346,(1 15 1 -1 -3 -8 -16 -10)
1969/12/31/18:00:20.375,(-9 -9 -4 -6 -4 0 7 0)
1969/12/31/18:00:20.375,(-4 -31 -10 -4 -5 -8 -9 -1)
1969/12/31/18:00:20.378,(13 48 12 6 5 2 -4 -8)
1969/12/31/18:00:20.378,(2 58 55 24 9 7 12 9)
1969/12/31/18:00:20.395,(-3 -13 1 3 0 -1 -12 -8)
1969/12/31/18:00:20.395,(-11 -20 -8 -9 -7 -4 3 1)
1969/12/31/18:00:20.407,(-2 -18 -9 -3 -1 4 11 13)
1969/12/31/18:00:20.407,(2 -1 -4 -1 0 1 -10 -4)
1969/12/31/18:00:20.428,(-7 12 9 1 -2 1 10 -2)
1969/12/31/18:00:20.428,(8 -7 -4 -2 0 0 -4 -3)
1969/12/31/18:00:20.429,(-13 -8 -1 -3 -2 -6 -8 -7)
1969/12/31/18:00:20.429,(3 -4 -18 -10 0 -1 4 2)
1969/12/31/18:00:20.459,(-5 -20 11 1 -6 -3 -10 -7)
1969/12/31/18:00:20.459,(7 30 -3 -9 -1 -2 -5 -4)
1969/12/31/18:00:20.460,(-4 0 15 10 4 6 6 2)
1969/12/31/18:00:20.460,(-1 30 16 2 -1 -4 -11 -10)
1969/12/31/18:00:20.491,(4 -7 -3 4 2 2 6 1)
1969/12/31/18:00:20.491,(-27 -35 -17 -5 -3 1 4 -2)
1969/12/31/18:00:20.493,(-3 -19 -7 -7 -6 -5 -4 -5)
1969/12/31/18:00:20.493,(-10 -25 -12 -7 -4 -2 3 -1)
1969/12/31/18:00:20.511,(7 20 16 7 5 1 -3 0)
1969/12/31/18:00:20.511,(8 23 5 5 -1 1 -10 -8)
1969/12/31/18:00:20.514,(-7 -13 -11 -8 -3 5 0 -7)
1969/12/31/18:00:20.514,(2 -25 -20 -13 -7 6 -4 -4)
1969/12/31/18:00:20.542,(2 6 3 -4 -3 5 -2 -4)
1969/12/31/18:00:20.542,(2 12 28 19 4 8 -1 -5)
1969/12/31/18:00:20.543,(0 -9 5 11 1 5 -4 -5)
1969/12/31/18:00:20.543,(10 8 13 5 0 9 4 -2)
1969/12/31/18:00:20.562,(-5 2 3 0 -3 3 -2 -4)
1969/12/31/18:00:20.562,(-4 -16 -19 -7 -1 -4 -3 1)
1969/12/31/18:00:20.574,(-6 -13 -14 -5 0 -11 0 4)
1969/12/31/18:00:20.574,(-3 15 -5 -4 0 -16 5 11)
1969/12/31/18:00:20.595,(-4 -3 -16 -7 4 -14 5 12)
1969/12/31/18:00:20.595,(-2 -6 -13 -7 3 -11 4 8)
1969/12/31/18:00:20.596,(3 8 -14 -8 1 -14 4 9)
1969/12/31/18:00:20.596,(1 -14 -12 -2 0 -10 5 8)
1969/12/31/18:00:20.626,(-8 -10 -25 -7 2 -10 2 3)
1969/12/31/18:00:20.626,(11 -1 10 6 1 -6 1 2)
1969/12/31/18:00:20.628,(-1 14 6 3 1 1 7 7)
1969/12/31/18:00:20.628,(-19 -32 -17 -13 -9 -9 -4 -8)
1969/12/31/18:00:20.645,(5 22 16 8 -2 -4 -5 -5)
1969/12/31/18:00:20.645,(-8 -12 -8 -5 -1 4 0 -5)
1969/12/31/18:00:20.658,(-2 -21 -2 -8 -3 0 -1 1)
1969/12/31/18:00:20.658,(16 44 30 13 2 2 -4 -3)
1969/12/31/18:00:20.678,(-2 0 3 -4 -5 3 -1 -2)
1969/12/31/18:00:20.678,(-6 -24 -56 -36 -13 -4 -3 -1)
1969/12/31/18:00:20.690,(8 21 66 45 14 11 -1 -3)
