time,.data
1969/12/31/18:00:17.601,(4 10 0 0 -1 2 0 0)
1969/12/31/18:00:17.601,(-13 12 20 5 0 1 2 1)
1969/12/31/18:00:17.610,(-2 -5 0 5 3 0 -2 -4)
1969/12/31/18:00:17.610,(-9 -3 -4 -2 -4 -4 -3 0)
1969/12/31/18:00:17.625,(13 -4 -6 -10 -4 -2 1 3)
1969/12/31/18:00:17.625,(16 7 -1 0 -1 -1 2 4)
1969/12/31/18:00:17.626,(-34 -16 -3 1 0 -1 -1 -3)
1969/12/31/18:00:17.626,(-8 -1 -1 -2 2 0 -1 0)
1969/12/31/18:00:17.647,(10 1 2 -2 -1 -1 -2 0)
1969/12/31/18:00:17.647,(26 15 0 0 -1 -2 2 3)
1969/12/31/18:00:17.649,(-13 -3 -2 -2 -3 -2 0 -2)
1969/12/31/18:00:17.649,(0 -7 -3 -4 -3 -2 -3 -3)
1969/12/31/18:00:17.661,(-26 -8 4 1 0 -1 -3 -6)
1969/12/31/18:00:17.661,(7 -3 -5 -1 2 3 5 5)
1969/12/31/18:00:17.670,(9 12 7 1 0 0 0 4)
1969/12/31/18:00:17.670,(29 7 0 4 2 2 3 9)
1969/12/31/18:00:17.700,(-20 -14 -9 -6 -6 -4 -5 -9)
1969/12/31/18:00:17.700,(-21 -24 -21 -16 -9 -10 -16 -26)
1969/12/31/18:00:17.701,(2 -9 -5 -4 -2 0 2 6)
1969/12/31/18:00:17.701,(-13 6 6 4 1 0 -1 -7)
1969/12/31/18:00:17.707,(-27 -26 7 7 4 7 5 -3)
1969/12/31/18:00:17.707,(16 30 -2 -1 -4 -2 4 12)
1969/12/31/18:00:17.709,(10 -2 -6 -7 -4 0 -1 -5)
1969/12/31/18:00:17.709,(-25 -9 -7 -6 -6 -9 -14 -13)
1969/12/31/18:00:17.721,(7 9 6 4 3 2 6 0)
1969/12/31/18:00:17.721,(-34 -20 -1 3 0 1 -5 -8)
1969/12/31/18:00:17.730,(10 1 1 6 5 5 11 19)
1969/12/31/18:00:17.730,(24 16 -4 -7 -9 -3 -3 0)
1969/12/31/18:00:17.744,(-19 0 0 0 2 0 -2 -1)
1969/12/31/18:00:17.744,(-24 -4 9 8 6 -10 -17 -51)
1969/12/31/18:00:17.751,(82 17 -1 2 -1 16 33 81)
1969/12/31/18:00:17.751,(-48 -18 -3 -3 -1 -1 -10 -28)
1969/12/31/18:00:17.767,(4 10 9 7 1 2 -1 -2)
1969/12/31/18:00:17.767,(14 1 -21 -15 -9 3 -3 12)
1969/12/31/18:00:17.769,(-20 -26 -14 -11 -13 -45 -12 -45)
1969/12/31/18:00:17.769,(41 4 7 3 6 7 4 37)
1969/12/31/18:00:17.781,(2 -11 -9 -8 -5 -6 -1 -2)
1969/12/31/18:00:17.781,(-20 9 14 10 7 6 5 21)
1969/12/31/18:00:17.790,(-7 9 -2 -1 -3 -5 -20 -32)
1969/12/31/18:00:17.790,(-16 -11 -2 3 0 -10 2 6)
1969/12/31/18:00:17.804,(26 18 -3 -3 -3 2 29 24)
1969/12/31/18:00:17.804,(17 -8 0 0 -1 -2 2 9)
1969/12/31/18:00:17.811,(-10 20 6 2 0 6 -5 -17)
1969/12/31/18:00:17.811,(-51 -7 4 1 -3 -6 -26 -67)
1969/12/31/18:00:17.827,(62 -5 -11 -6 -5 2 9 71)
1969/12/31/18:00:17.827,(-26 -3 -5 -5 -6 -7 0 -13)
1969/12/31/18:00:17.829,(-25 -28 -5 0 3 5 -9 -15)
1969/12/31/18:00:17.829,(1 -2 -6 -6 -2 0 -3 -21)
1969/12/31/18:00:17.850,(-34 -13 9 6 6 -8 -15 -27)
1969/12/31/18:00:17.850,(65 20 1 2 4 27 17 36)
1969/12/31/18:00:17.851,(-65 -22 -2 0 -3 -14 -34 -21)
1969/12/31/18:00:17.851,(11 13 11 10 10 6 10 9)
1969/12/31/18:00:17.864,(-8 -9 -16 -16 -12 1 -15 -20)
1969/12/31/18:00:17.864,(7 25 13 4 -6 6 32 15)
1969/12/31/18:00:17.871,(-19 -48 -22 -8 1 12 1 -14)
1969/12/31/18:00:17.871,(-8 -7 -3 -3 -7 -23 -12 -5)
1969/12/31/18:00:17.887,(5 19 8 3 -1 -5 -17 -15)
1969/12/31/18:00:17.887,(48 6 -4 -2 2 8 25 56)
1969/12/31/18:00:17.889,(3 18 7 1 -3 -6 -7 -12)
1969/12/31/18:00:17.889,(55 53 8 1 1 13 22 21)
1969/12/31/18:00:17.910,(-77 -38 8 8 6 9 -12 -27)
1969/12/31/18:00:17.910,(-14 -23 -20 -13 -13 -40 -30 -22)
1969/12/31/18:00:17.911,(80 16 7 5 4 12 25 29)
1969/12/31/18:00:17.911,(30 54 17 8 8 0 -14 19)
1969/12/31/18:00:17.924,(26 -12 -3 -1 4 34 16 8)
1969/12/31/18:00:17.924,(-30 -16 -8 -2 2 11 11 4)
1969/12/31/18:00:17.931,(24 8 7 5 1 -16 -19 26)
1969/12/31/18:00:17.931,(-32 -24 -9 -6 -6 -2 19 -7)
1969/12/31/18:00:17.947,(62 37 5 0 -4 -26 1 9)
1969/12/31/18:00:17.947,(-40 -9 7 8 15 59 32 -14)
1969/12/31/18:00:17.947,(30 12 -6 -11 -13 -36 -38 -40)
1969/12/31/18:00:17.947,(-7 -33 -15 -8 -5 -5 10 10)
1969/12/31/18:00:17.977,(-18 10 3 2 -3 -45 -10 -28)
1969/12/31/18:00:17.977,(-14 -18 -6 3 14 45 -31 -21)
1969/12/31/18:00:17.978,(-43 2 4 1 -3 -5 -15 -2)
1969/12/31/18:00:17.978,(19 -25 -9 -1 3 19 6 12)
1969/12/31/18:00:17.983,(-32 8 -1 -5 -7 -28 -13 -4)
1969/12/31/18:00:17.983,(-14 8 7 0 -4 -33 -9 -52)
1969/12/31/18:00:17.991,(-14 -4 3 4 11 40 20 21)
1969/12/31/18:00:17.991,(52 -1 -14 -7 -9 -25 -21 16)
1969/12/31/18:00:18.007,(14 10 8 2 1 27 4 41)
1969/12/31/18:00:18.007,(4 -13 -7 -5 -8 -29 -23 -57)
1969/12/31/18:00:18.007,(-7 -18 -1 -1 -2 -7 -4 7)
1969/12/31/18:00:18.007,(-29 -1 6 8 11 21 7 -24)
1969/12/31/18:00:18.029,(-13 6 -8 -9 -5 4 -5 -29)
1969/12/31/18:00:18.029,(-12 -17 -3 -5 -6 -18 -12 8)
1969/12/31/18:00:18.030,(-1 10 3 2 -3 -26 26 6)
1969/12/31/18:00:18.030,(47 14 12 7 9 43 38 37)
1969/12/31/18:00:18.043,(-30 -6 -10 -5 -4 0 -44 -47)
1969/12/31/18:00:18.043,(6 23 4 -3 -7 -32 -28 2)
1969/12/31/18:00:18.059,(-27 0 0 -2 0 11 -7 -26)
1969/12/31/18:00:18.059,(-26 -9 -2 -1 -4 -24 -8 -6)
1969/12/31/18:00:18.067,(43 -27 -3 4 7 16 21 43)
1969/12/31/18:00:18.067,(-63 1 9 9 6 6 -5 -73)
1969/12/31/18:00:18.067,(41 -10 -20 -11 -9 2 11 27)
1969/12/31/18:00:18.067,(3 22 5 -8 -7 6 4 1)
1969/12/31/18:00:18.089,(30 25 3 2 0 -4 6 48)
1969/12/31/18:00:18.089,(-9 -9 4 3 2 4 -6 -10)
1969/12/31/18:00:18.090,(30 -2 -4 -2 -2 0 5 26)
1969/12/31/18:00:18.090,(-5 -17 -8 -4 -2 0 9 6)
1969/12/31/18:00:18.103,(-16 -6 -4 -1 -2 -28 -19 -17)
1969/12/31/18:00:18.103,(2 -12 -7 -5 3 23 57 44)
1969/12/31/18:00:18.111,(-77 -18 -6 -3 -1 3 -17 -56)
1969/12/31/18:00:18.111,(-11 -18 -9 -3 -5 -10 -10 0)
1969/12/31/18:00:18.127,(-9 9 13 9 6 4 18 -12)
1969/12/31/18:00:18.127,(66 19 3 3 0 -11 -4 76)
1969/12/31/18:00:18.127,(27 19 -2 -6 -2 16 14 9)
1969/12/31/18:00:18.127,(-5 3 6 5 -1 -32 -57 -47)
1969/12/31/18:00:18.149,(-29 5 1 2 4 10 22 -25)
1969/12/31/18:00:18.149,(42 -4 -8 -8 -7 -5 -31 36)
1969/12/31/18:00:18.150,(-1 8 9 3 7 17 8 29)
1969/12/31/18:00:18.150,(-17 -4 -4 0 -5 -35 -23 -47)
1969/12/31/18:00:18.163,(45 -14 -17 -14 -7 30 52 52)
1969/12/31/18:00:18.163,(-17 15 19 12 2 -20 -36 -22)
1969/12/31/18:00:18.171,(-51 -27 -9 -4 -4 -11 -8 -24)
1969/12/31/18:00:18.171,(42 31 12 8 6 17 21 55)
1969/12/31/18:00:18.195,(-25 -15 -2 -1 0 1 9 17)
1969/12/31/18:00:18.195,(62 -5 -6 -7 -7 4 30 77)
1969/12/31/18:00:18.195,(-1 4 -2 2 -3 -21 -33 -34)
1969/12/31/18:00:18.196,(-46 -24 -7 -5 -1 22 41 -7)
1969/12/31/18:00:18.209,(36 20 1 -1 -4 -5 -16 2)
1969/12/31/18:00:18.209,(15 3 -3 -3 -2 -2 13 32)
1969/12/31/18:00:18.210,(-6 33 20 12 8 4 -29 -23)
1969/12/31/18:00:18.210,(20 -25 -16 -7 -5 0 22 39)
1969/12/31/18:00:18.223,(13 5 -8 -8 -6 3 -11 15)
1969/12/31/18:00:18.223,(-66 -20 5 4 -2 -13 -4 -68)
1969/12/31/18:00:18.231,(45 7 -2 -6 -5 2 21 13)
1969/12/31/18:00:18.231,(-49 7 11 6 7 14 -8 -54)
1969/12/31/18:00:18.255,(6 -25 -20 -10 -12 -25 -5 6)
1969/12/31/18:00:18.255,(-6 1 1 3 3 -13 -4 -20)
1969/12/31/18:00:18.256,(-10 7 6 4 5 23 13 16)
1969/12/31/18:00:18.256,(10 -22 -14 -9 -9 11 -12 36)
1969/12/31/18:00:18.269,(-47 16 7 5 2 -11 -23 -52)
1969/12/31/18:00:18.269,(3 -28 -11 -8 -7 -5 11 21)
1969/12/31/18:00:18.270,(-12 -15 -3 1 2 -3 0 -24)
1969/12/31/18:00:18.270,(-6 16 5 -2 -5 -7 -18 -5)
1969/12/31/18:00:18.283,(-39 -6 0 0 2 2 -15 -87)
1969/12/31/18:00:18.283,(-5 19 3 3 -4 9 17 13)
1969/12/31/18:00:18.292,(-13 -7 -1 -3 -4 -4 -13 -23)
1969/12/31/18:00:18.292,(-14 -15 -10 -8 -5 -6 -39 7)
1969/12/31/18:00:18.307,(-14 -6 8 12 21 4 13 3)
1969/12/31/18:00:18.307,(-23 -4 -7 -7 -20 -16 -30 -41)
1969/12/31/18:00:18.307,(44 20 1 -1 6 3 17 5)
1969/12/31/18:00:18.307,(-30 -7 8 5 -11 2 1 6)
1969/12/31/18:00:18.329,(-13 -18 -19 -28 -27 -17 -19 -18)
1969/12/31/18:00:18.329,(24 23 10 9 17 -7 -13 -17)
1969/12/31/18:00:18.330,(-7 0 1 7 15 27 20 20)
1969/12/31/18:00:18.330,(27 17 -4 -8 -3 -17 -16 -6)
1969/12/31/18:00:18.343,(7 0 9 -1 -4 4 -23 2)
1969/12/31/18:00:18.343,(-13 -15 -8 -8 -1 9 72 50)
1969/12/31/18:00:18.351,(28 12 -2 -6 -10 29 103 53)
1969/12/31/18:00:18.351,(-32 7 3 15 26 4 -53 -57)
1969/12/31/18:00:18.366,(-30 -35 -3 14 0 -21 -10 17)
1969/12/31/18:00:18.366,(18 14 -6 -21 -23 -14 -12 11)
1969/12/31/18:00:18.367,(17 -24 -7 -3 -3 -12 -27 -2)
1969/12/31/18:00:18.367,(10 8 -5 -8 -9 -3 31 10)
1969/12/31/18:00:18.389,(16 4 5 7 14 19 -3 10)
1969/12/31/18:00:18.389,(-45 -11 11 22 31 43 42 23)
1969/12/31/18:00:18.390,(-7 0 -6 -13 -30 -41 -51 -36)
1969/12/31/18:00:18.390,(-6 -4 4 6 17 -9 -14 -26)
1969/12/31/18:00:18.403,(25 12 1 -10 -10 12 -2 -4)
1969/12/31/18:00:18.403,(-29 -27 -8 -1 4 -7 -19 -59)
1969/12/31/18:00:18.419,(11 12 6 10 11 -5 -14 19)
1969/12/31/18:00:18.419,(18 11 5 -1 -29 13 49 36)
1969/12/31/18:00:18.427,(10 -3 -1 -18 -21 -20 -9 2)
1969/12/31/18:00:18.427,(-8 7 -1 -2 9 28 -4 -26)
1969/12/31/18:00:18.427,(-28 -23 -11 -2 4 5 17 -22)
1969/12/31/18:00:18.427,(6 1 1 7 11 -11 -34 -29)
1969/12/31/18:00:18.449,(0 26 10 12 -1 -9 32 19)
1969/12/31/18:00:18.449,(60 -19 -25 -24 -23 -10 -17 49)
1969/12/31/18:00:18.450,(-10 -6 8 25 29 -11 4 51)
1969/12/31/18:00:18.450,(14 5 -4 -19 -13 23 33 43)
1969/12/31/18:00:18.463,(25 16 7 -5 -10 16 6 13)
1969/12/31/18:00:18.463,(-24 -11 -5 -4 -4 -15 -9 -21)
1969/12/31/18:00:18.472,(-14 -9 -2 9 5 -19 -13 -28)
1969/12/31/18:00:18.472,(11 16 4 -3 4 -14 5 -2)
1969/12/31/18:00:18.487,(7 -18 2 4 1 6 15 33)
1969/12/31/18:00:18.487,(-17 2 -4 1 -8 -14 -17 -11)
1969/12/31/18:00:18.487,(-1 19 8 0 10 0 -9 -19)
1969/12/31/18:00:18.487,(16 2 -4 4 4 2 -6 -8)
1969/12/31/18:00:18.509,(-32 -12 -15 -17 -5 4 21 -9)
1969/12/31/18:00:18.509,(16 20 8 -1 -1 1 -17 3)
1969/12/31/18:00:18.510,(60 43 20 21 8 -17 7 44)
1969/12/31/18:00:18.510,(-53 -65 -20 -3 -18 -28 -5 -4)
1969/12/31/18:00:18.523,(3 7 -11 -29 -22 15 1 -3)
1969/12/31/18:00:18.523,(14 -1 7 11 5 8 6 -2)
1969/12/31/18:00:18.531,(-38 2 -6 -17 2 32 -3 -16)
1969/12/31/18:00:18.532,(11 16 11 8 22 -16 -8 -19)
1969/12/31/18:00:18.546,(28 10 7 26 7 0 18 23)
1969/12/31/18:00:18.546,(9 -20 -1 12 10 -18 -25 4)
1969/12/31/18:00:18.547,(2 -11 -14 -31 -18 28 -8 5)
1969/12/31/18:00:18.547,(-10 -3 2 8 25 17 26 18)
1969/12/31/18:00:18.569,(-2 6 -3 -9 -7 2 -7 -36)
1969/12/31/18:00:18.569,(-1 1 -6 -13 -18 -21 -23 -8)
1969/12/31/18:00:18.570,(-31 -30 -8 8 6 -14 8 -1)
1969/12/31/18:00:18.570,(-26 -9 -4 -5 -12 3 -5 -43)
1969/12/31/18:00:18.583,(28 25 4 -3 -10 -15 -2 36)
1969/12/31/18:00:18.583,(-43 -27 -2 2 1 8 -11 -18)
1969/12/31/18:00:18.591,(32 -12 -10 -3 3 -3 18 25)
1969/12/31/18:00:18.591,(-17 6 1 -3 -18 -3 -17 -8)
1969/12/31/18:00:18.615,(20 -34 -18 8 31 21 17 37)
1969/12/31/18:00:18.615,(29 5 -37 -16 -14 -42 -22 -33)
1969/12/31/18:00:18.616,(14 60 84 28 15 12 -16 -5)
1969/12/31/18:00:18.616,(44 36 19 4 3 32 30 39)
1969/12/31/18:00:18.629,(-3 15 13 10 0 -29 -31 -30)
1969/12/31/18:00:18.629,(-23 -39 -30 -34 -24 19 19 7)
1969/12/31/18:00:18.630,(-14 -17 -33 -12 -21 -21 -7 -17)
1969/12/31/18:00:18.630,(5 -33 -15 -8 2 -29 -10 7)
1969/12/31/18:00:18.643,(-36 -19 1 16 37 33 -9 -11)
1969/12/31/18:00:18.643,(24 6 -15 17 15 -14 -1 -15)
1969/12/31/18:00:18.652,(44 45 46 -5 -22 3 1 17)
1969/12/31/18:00:18.652,(-11 -34 -28 -22 -23 -3 2 -4)
1969/12/31/18:00:18.666,(-46 -22 -23 -8 4 -11 -20 -46)
1969/12/31/18:00:18.667,(17 53 73 35 26 19 19 14)
1969/12/31/18:00:18.667,(-27 -48 -71 -24 -19 -17 -21 -47)
1969/12/31/18:00:18.667,(28 86 86 34 19 -6 -19 -44)
1969/12/31/18:00:18.689,(9 2 3 14 1 -12 -13 -16)
1969/12/31/18:00:18.689,(-22 -11 -18 -23 -33 23 16 -11)
1969/12/31/18:00:18.690,(-7 -38 -45 -21 2 8 14 0)
1969/12/31/18:00:18.690,(-56 7 28 30 45 12 -5 -21)
1969/12/31/18:00:18.703,(65 28 -4 -25 -65 -38 -22 -16)
1969/12/31/18:00:18.703,(0 5 22 6 12 11 11 7)
1969/12/31/18:00:18.712,(-46 -63 -40 -11 -11 -15 -14 -33)
1969/12/31/18:00:18.712,(-17 -46 -70 -18 10 22 12 20)
1969/12/31/18:00:18.727,(-3 14 35 12 4 9 -8 -15)
1969/12/31/18:00:18.727,(48 85 79 18 -1 -2 0 26)
1969/12/31/18:00:18.727,(-6 -13 -4 -3 -3 -1 -1 -8)
1969/12/31/18:00:18.727,(36 30 -1 6 -7 -8 9 37)
1969/12/31/18:00:18.749,(-18 -41 -6 4 32 10 14 31)
1969/12/31/18:00:18.749,(-24 -7 -33 -18 -30 -7 7 23)
1969/12/31/18:00:18.750,(-46 -90 -64 12 15 -10 1 22)
1969/12/31/18:00:18.750,(55 91 -29 -37 -42 10 -17 -35)
1969/12/31/18:00:18.772,(12 73 67 31 6 -2 25 9)
1969/12/31/18:00:18.772,(-25 -45 -40 -7 1 9 -14 -29)
1969/12/31/18:00:18.773,(19 10 30 13 23 -2 -1 19)
1969/12/31/18:00:18.773,(-52 -107 -59 -20 -25 -21 -7 1)
1969/12/31/18:00:18.787,(-13 -70 -67 -19 -3 -4 13 8)
1969/12/31/18:00:18.787,(-19 -53 -47 -4 47 13 -8 -14)
1969/12/31/18:00:18.787,(-45 87 56 3 -22 16 1 -56)
1969/12/31/18:00:18.787,(40 8 16 2 12 9 -3 -9)
1969/12/31/18:00:18.809,(17 -18 -21 5 8 4 -9 2)
1969/12/31/18:00:18.809,(-25 0 29 0 -27 -23 1 31)
1969/12/31/18:00:18.810,(-13 -9 -42 -28 -8 1 -8 -28)
1969/12/31/18:00:18.810,(15 23 49 5 -21 -4 18 24)
1969/12/31/18:00:18.832,(-37 43 33 15 -5 -8 -11 -21)
1969/12/31/18:00:18.832,(38 2 -8 26 37 14 11 21)
1969/12/31/18:00:18.833,(2 -43 -30 -28 -3 13 3 -9)
1969/12/31/18:00:18.833,(26 47 33 -2 -16 -6 -12 13)
1969/12/31/18:00:18.847,(30 -29 -27 -1 -1 -5 16 41)
1969/12/31/18:00:18.847,(-22 -45 -34 -17 -15 -12 -31 -42)
1969/12/31/18:00:18.847,(4 40 35 24 1 -24 -19 -48)
1969/12/31/18:00:18.847,(-17 -123 -91 -6 22 11 19 4)
1969/12/31/18:00:18.869,(16 19 -30 -33 -28 -13 -8 6)
1969/12/31/18:00:18.869,(-14 44 31 -4 -26 1 3 -19)
1969/12/31/18:00:18.870,(5 27 35 9 16 20 14 40)
1969/12/31/18:00:18.870,(-41 -85 -33 6 6 -2 -3 -8)
1969/12/31/18:00:18.892,(4 7 -21 -3 4 -12 -8 -9)
1969/12/31/18:00:18.892,(-23 -91 -97 -15 7 3 3 -30)
1969/12/31/18:00:18.893,(-18 104 92 42 29 28 -3 -7)
1969/12/31/18:00:18.893,(22 -6 -5 -6 18 36 30 14)
1969/12/31/18:00:18.906,(-24 109 104 45 4 -3 -11 -17)
1969/12/31/18:00:18.906,(-2 -22 10 -12 -18 -29 18 83)
1969/12/31/18:00:18.907,(-61 -78 -65 -8 8 -23 -28 -65)
1969/12/31/18:00:18.907,(38 -1 10 -11 -33 -14 -19 24)
1969/12/31/18:00:18.929,(25 -48 -45 -19 -1 14 22 23)
1969/12/31/18:00:18.929,(-36 -19 -22 -12 6 1 -8 -19)
1969/12/31/18:00:18.930,(53 -78 -56 -10 -6 -10 12 82)
1969/12/31/18:00:18.930,(-9 110 75 25 22 -8 -10 -15)
1969/12/31/18:00:18.954,(-46 -71 -6 -21 -30 -6 -4 -38)
1969/12/31/18:00:18.954,(11 -33 -25 -15 -20 7 -19 -23)
1969/12/31/18:00:18.955,(33 61 -10 -20 -19 6 12 23)
1969/12/31/18:00:18.955,(-14 -26 30 40 36 9 -4 -45)
1969/12/31/18:00:18.966,(-20 -19 -72 -7 25 0 -15 -28)
1969/12/31/18:00:18.966,(16 127 127 54 -1 -9 -9 -26)
1969/12/31/18:00:18.967,(19 -62 -68 -31 -4 10 -11 1)
1969/12/31/18:00:18.967,(-33 -14 -25 -8 -9 -57 -5 -15)
1969/12/31/18:00:18.989,(-41 24 61 5 -52 18 -8 -20)
1969/12/31/18:00:18.989,(65 91 78 19 25 24 17 20)
1969/12/31/18:00:18.990,(-22 -26 16 29 12 2 24 39)
1969/12/31/18:00:18.990,(75 -47 -60 -29 -34 -35 -5 61)
1969/12/31/18:00:19.012,(-14 -95 -67 -24 19 -2 -22 -25)
1969/12/31/18:00:19.012,(-18 -128 -128 -44 10 1 6 -21)
1969/12/31/18:00:19.013,(45 127 127 45 1 29 -5 -7)
1969/12/31/18:00:19.013,(-112 -81 -59 5 -14 12 8 -20)
1969/12/31/18:00:19.027,(35 8 1 24 31 -42 -13 -46)
1969/12/31/18:00:19.027,(-6 -8 -9 3 -4 13 3 -1)
1969/12/31/18:00:19.028,(-61 -110 -108 -60 -59 -40 -19 -30)
1969/12/31/18:00:19.028,(-10 49 -77 -64 -32 1 -32 -57)
1969/12/31/18:00:19.049,(34 43 58 66 28 0 7 25)
1969/12/31/18:00:19.049,(21 -29 -34 1 2 -3 17 53)
1969/12/31/18:00:19.050,(-39 -85 -36 6 -8 -29 -8 -31)
1969/12/31/18:00:19.050,(-36 -128 -97 -59 -19 16 -3 0)
1969/12/31/18:00:19.072,(7 62 46 -7 -15 8 20 51)
1969/12/31/18:00:19.072,(32 25 -7 34 72 9 -11 -42)
1969/12/31/18:00:19.073,(50 99 96 13 -54 -21 5 20)
1969/12/31/18:00:19.073,(-31 -77 -33 -5 -1 -8 -2 -19)
1969/12/31/18:00:19.087,(-61 -115 -128 -69 4 22 2 -46)
1969/12/31/18:00:19.087,(-36 59 76 68 14 -7 10 30)
1969/12/31/18:00:19.088,(14 -65 -36 48 61 8 3 -22)
1969/12/31/18:00:19.088,(23 -23 -19 -9 -50 -32 -4 2)
1969/12/31/18:00:19.109,(-2 -128 -79 -27 -14 41 -7 -4)
1969/12/31/18:00:19.109,(-8 -83 -85 -64 -62 -30 -14 -21)
1969/12/31/18:00:19.110,(15 9 -82 -43 -2 22 28 62)
1969/12/31/18:00:19.110,(57 121 127 108 67 28 35 52)
1969/12/31/18:00:19.132,(14 -108 -88 -9 16 -19 -12 11)
1969/12/31/18:00:19.132,(28 -94 -86 -62 -28 -13 2 90)
1969/12/31/18:00:19.133,(36 77 63 20 -25 -8 -9 -12)
1969/12/31/18:00:19.133,(-15 20 40 7 18 12 19 -6)
1969/12/31/18:00:19.146,(49 109 97 21 -7 -1 4 36)
1969/12/31/18:00:19.147,(15 -7 15 8 10 16 19 27)
1969/12/31/18:00:19.147,(-31 -116 -80 -18 8 -22 -27 -31)
1969/12/31/18:00:19.147,(-24 13 -8 -24 -1 17 -2 -19)
1969/12/31/18:00:19.169,(-31 -47 -76 -13 -11 -35 9 10)
1969/12/31/18:00:19.169,(4 93 101 102 33 11 -23 -68)
1969/12/31/18:00:19.170,(64 -91 -60 -37 2 44 9 56)
1969/12/31/18:00:19.170,(-27 -37 -23 7 -21 -6 -21 -38)
1969/12/31/18:00:19.192,(14 -117 -90 -31 4 -6 -2 16)
1969/12/31/18:00:19.192,(-38 -37 -53 -19 -13 -23 9 13)
1969/12/31/18:00:19.193,(-27 87 30 1 8 -3 -20 -15)
1969/12/31/18:00:19.193,(44 81 79 9 -13 6 -14 -15)
1969/12/31/18:00:19.206,(1 -23 2 0 -7 1 24 27)
1969/12/31/18:00:19.206,(-14 -42 -29 -16 0 9 -13 -17)
1969/12/31/18:00:19.207,(-53 -59 -29 0 2 -5 19 3)
1969/12/31/18:00:19.207,(-8 -88 -60 -10 16 -10 -21 -14)
1969/12/31/18:00:19.229,(-62 60 -24 -42 -66 -32 -11 -63)
1969/12/31/18:00:19.229,(62 90 112 75 38 28 17 38)
1969/12/31/18:00:19.230,(-7 -71 -93 -42 -30 -10 16 -14)
1969/12/31/18:00:19.230,(-3 68 58 20 8 10 10 1)
1969/12/31/18:00:19.252,(-23 -85 -50 6 5 -21 -25 -24)
1969/12/31/18:00:19.252,(26 48 11 -10 -7 8 4 18)
1969/12/31/18:00:19.253,(24 99 121 46 24 7 -6 -24)
1969/12/31/18:00:19.253,(6 -52 -77 -17 -13 -19 -4 25)
1969/12/31/18:00:19.275,(23 48 56 29 24 17 34 44)
1969/12/31/18:00:19.275,(-55 -128 -68 -38 -41 -20 -34 -65)
1969/12/31/18:00:19.276,(-23 -100 -125 -49 -16 -10 -4 11)
1969/12/31/18:00:19.276,(-5 94 98 56 31 13 12 7)
1969/12/31/18:00:19.289,(20 14 31 20 25 25 9 20)
1969/12/31/18:00:19.289,(-21 -51 -61 -20 -17 -32 -25 -65)
1969/12/31/18:00:19.290,(9 -62 34 48 46 -22 -24 -12)
1969/12/31/18:00:19.290,(22 23 -58 -49 -29 42 41 45)
1969/12/31/18:00:19.313,(53 -33 -8 16 -1 1 -11 10)
1969/12/31/18:00:19.313,(-34 -33 -75 -31 6 11 10 14)
1969/12/31/18:00:19.313,(-20 15 59 23 -9 -6 5 -5)
1969/12/31/18:00:19.313,(0 -128 -113 -26 8 -27 -9 11)
1969/12/31/18:00:19.335,(28 117 89 35 18 20 -11 -19)
1969/12/31/18:00:19.335,(-27 -68 -16 -9 8 -4 -5 -37)
1969/12/31/18:00:19.335,(-10 -32 -65 -38 -24 -7 7 8)
1969/12/31/18:00:19.335,(42 90 106 47 70 39 5 -1)
1969/12/31/18:00:19.349,(-28 -66 -69 -36 -52 0 -7 8)
1969/12/31/18:00:19.349,(-3 28 79 21 -7 -18 -5 -11)
1969/12/31/18:00:19.350,(4 104 -1 13 29 -4 -4 -1)
1969/12/31/18:00:19.350,(-10 -21 50 -13 -14 22 13 -12)
1969/12/31/18:00:19.372,(-8 47 7 -4 -9 -12 5 -1)
1969/12/31/18:00:19.372,(38 94 68 6 0 4 7 22)
1969/12/31/18:00:19.373,(-15 -128 -72 -16 -15 -12 -11 -6)
1969/12/31/18:00:19.373,(13 6 -10 12 22 -14 -2 18)
1969/12/31/18:00:19.386,(-27 -13 -10 -1 1 16 2 21)
1969/12/31/18:00:19.386,(-65 -73 -68 -34 -43 -36 -13 -58)
1969/12/31/18:00:19.394,(31 57 61 27 51 61 18 21)
1969/12/31/18:00:19.394,(14 -81 -68 -23 -18 -26 -12 16)
1969/12/31/18:00:19.409,(15 69 70 38 22 -10 11 46)
1969/12/31/18:00:19.409,(2 -48 -55 -19 23 54 29 10)
1969/12/31/18:00:19.410,(-11 32 20 18 24 0 -10 -7)
1969/12/31/18:00:19.410,(-17 -80 -36 -23 -70 -16 -7 -24)
1969/12/31/18:00:19.432,(16 77 50 5 -4 -19 9 6)
1969/12/31/18:00:19.432,(28 17 -6 12 12 -8 -21 -4)
1969/12/31/18:00:19.433,(-8 -90 -46 -5 4 23 11 -10)
1969/12/31/18:00:19.433,(-68 -27 -58 -19 -12 -18 -23 3)
1969/12/31/18:00:19.446,(-36 -42 -19 0 19 -21 -11 -47)
1969/12/31/18:00:19.446,(2 34 25 -7 -8 33 6 -13)
1969/12/31/18:00:19.454,(25 68 43 23 0 -24 -2 29)
1969/12/31/18:00:19.454,(-12 -50 -57 -21 -14 2 0 0)
1969/12/31/18:00:19.469,(-34 -72 -34 -11 -1 4 -3 -17)
1969/12/31/18:00:19.469,(11 36 1 -6 25 26 -6 1)
1969/12/31/18:00:19.470,(-11 31 55 25 4 2 5 3)
1969/12/31/18:00:19.470,(2 20 53 24 30 7 -1 -21)
1969/12/31/18:00:19.492,(28 14 -15 9 22 8 -9 1)
1969/12/31/18:00:19.492,(-52 -102 -43 -22 -48 -50 -6 16)
1969/12/31/18:00:19.493,(22 84 22 -9 -16 18 -4 -12)
1969/12/31/18:00:19.493,(6 -16 6 13 35 -20 4 -1)
1969/12/31/18:00:19.506,(5 38 47 16 11 24 1 6)
1969/12/31/18:00:19.506,(-12 -92 -70 -11 20 -9 -11 4)
1969/12/31/18:00:19.514,(-15 -37 -17 -49 -69 -20 -1 -9)
1969/12/31/18:00:19.514,(29 51 -9 -4 -20 -27 -3 11)
1969/12/31/18:00:19.529,(39 -68 -45 -6 31 16 9 38)
1969/12/31/18:00:19.529,(-16 95 89 26 -27 -29 -18 -17)
1969/12/31/18:00:19.530,(-15 -56 -57 -13 27 28 6 6)
1969/12/31/18:00:19.530,(-18 7 4 -22 -8 8 6 -6)
1969/12/31/18:00:19.552,(0 -9 -32 -9 -8 2 1 -14)
1969/12/31/18:00:19.552,(-27 -41 -22 1 12 -4 11 5)
1969/12/31/18:00:19.553,(-4 -13 48 19 -3 -12 -28 -79)
1969/12/31/18:00:19.553,(-19 69 45 31 -8 -29 -9 -14)
1969/12/31/18:00:19.566,(11 6 -9 -21 -25 36 0 13)
1969/12/31/18:00:19.566,(-37 -41 -20 -16 1 14 23 3)
1969/12/31/18:00:19.574,(-9 11 12 15 18 -14 -15 -4)
1969/12/31/18:00:19.574,(33 -31 -37 -17 -5 21 5 19)
1969/12/31/18:00:19.589,(-3 -29 -20 -3 0 -28 -1 -14)
1969/12/31/18:00:19.589,(57 98 55 23 0 1 -10 5)
1969/12/31/18:00:19.590,(29 46 50 19 8 15 13 16)
1969/12/31/18:00:19.590,(-67 -64 -52 -20 0 9 -11 -20)
1969/12/31/18:00:19.612,(36 69 27 5 2 8 8 11)
1969/12/31/18:00:19.612,(30 -50 -32 -9 -2 6 9 24)
1969/12/31/18:00:19.613,(3 -21 -48 -14 -8 -19 -2 19)
1969/12/31/18:00:19.613,(-12 -43 0 34 37 -1 2 -8)
1969/12/31/18:00:19.626,(15 48 75 16 -7 16 -13 0)
1969/12/31/18:00:19.626,(-6 -54 -58 -44 -33 -14 -5 2)
1969/12/31/18:00:19.642,(34 9 29 5 -8 -16 -17 12)
1969/12/31/18:00:19.642,(-10 -104 -60 -11 -11 -1 -11 -21)
1969/12/31/18:00:19.649,(-25 -128 -112 -27 14 -2 5 18)
1969/12/31/18:00:19.649,(57 127 119 59 48 16 -16 -28)
1969/12/31/18:00:19.650,(-29 -84 -53 -19 -49 -34 -20 -18)
1969/12/31/18:00:19.650,(10 -97 -105 -32 -2 9 15 31)
1969/12/31/18:00:19.672,(-32 86 31 3 -17 -13 -10 -32)
1969/12/31/18:00:19.672,(1 -14 -8 0 0 -10 5 0)
1969/12/31/18:00:19.673,(-42 -107 -105 -38 4 10 -11 -16)
1969/12/31/18:00:19.673,(-6 89 12 -8 -10 -3 12 8)
1969/12/31/18:00:19.695,(-23 28 49 37 14 -16 -19 -41)
1969/12/31/18:00:19.695,(8 -79 -68 -16 -23 -32 2 39)
1969/12/31/18:00:19.695,(17 -34 -17 9 32 25 -9 -1)
1969/12/31/18:00:19.696,(7 73 50 35 -13 -42 -5 -7)
1969/12/31/18:00:19.709,(-49 -88 -68 -53 -9 17 -22 -64)
1969/12/31/18:00:19.709,(0 85 -10 -20 -25 -15 -11 -12)
1969/12/31/18:00:19.710,(35 76 85 48 9 0 10 15)
1969/12/31/18:00:19.710,(6 -62 -36 -4 14 14 5 20)
1969/12/31/18:00:19.732,(7 -30 -7 4 -29 -23 6 5)
1969/12/31/18:00:19.732,(-29 -95 -29 -14 2 -6 -7 -13)
1969/12/31/18:00:19.733,(-58 -35 -63 -36 -19 11 -2 -22)
1969/12/31/18:00:19.733,(-9 -44 -25 -28 -22 -3 -6 -22)
1969/12/31/18:00:19.755,(24 70 88 68 44 17 16 30)
1969/12/31/18:00:19.755,(14 -20 -100 -23 -10 2 8 19)
1969/12/31/18:00:19.756,(81 127 127 42 23 17 27 39)
1969/12/31/18:00:19.756,(-31 -39 6 15 13 5 -27 -31)
1969/12/31/18:00:19.768,(11 -107 -97 -42 -9 5 26 64)
1969/12/31/18:00:19.768,(3 58 76 45 38 15 -17 -48)
1969/12/31/18:00:19.777,(-15 17 11 9 12 -10 0 -16)
1969/12/31/18:00:19.777,(20 -32 -19 -22 -42 -4 6 20)
1969/12/31/18:00:19.792,(-10 -16 -25 -7 7 -32 -38 -59)
1969/12/31/18:00:19.792,(-7 23 65 8 -17 14 11 13)
1969/12/31/18:00:19.794,(-15 -46 -65 -36 -28 -7 0 8)
1969/12/31/18:00:19.794,(24 -59 -10 24 58 35 23 28)
1969/12/31/18:00:19.815,(29 67 19 6 9 -18 -2 33)
1969/12/31/18:00:19.815,(-2 -33 18 12 -22 -16 -1 0)
1969/12/31/18:00:19.816,(-12 -94 -95 -45 -23 14 6 5)
1969/12/31/18:00:19.816,(26 127 97 25 -22 26 16 -20)
1969/12/31/18:00:19.828,(-20 -46 -13 3 -9 -5 8 -14)
1969/12/31/18:00:19.828,(38 -60 -59 -10 9 -2 -1 38)
1969/12/31/18:00:19.837,(19 -32 -47 -20 -15 -30 -6 -4)
1969/12/31/18:00:19.837,(-57 -53 -27 -12 -15 -16 -19 -29)
1969/12/31/18:00:19.852,(22 106 40 -8 -7 18 -6 -29)
1969/12/31/18:00:19.852,(-28 5 51 38 45 12 -12 -13)
1969/12/31/18:00:19.854,(10 -37 -49 -23 -22 5 15 2)
1969/12/31/18:00:19.854,(28 41 34 -2 0 -3 0 -5)
1969/12/31/18:00:19.875,(-18 -86 -46 -18 -6 -6 -2 -4)
1969/12/31/18:00:19.875,(-22 -47 -48 -3 3 -20 0 -3)
1969/12/31/18:00:19.876,(5 102 84 51 39 10 -7 3)
1969/12/31/18:00:19.876,(46 -37 -44 -16 -7 25 23 29)
1969/12/31/18:00:19.888,(-11 82 97 -9 -40 -17 -13 -31)
1969/12/31/18:00:19.888,(31 -53 -19 3 18 30 21 46)
1969/12/31/18:00:19.897,(-22 -61 -39 -19 -20 -23 1 11)
1969/12/31/18:00:19.897,(36 88 27 50 47 4 4 47)
1969/12/31/18:00:19.920,(-54 -10 -5 -13 1 2 -14 -43)
1969/12/31/18:00:19.920,(-4 -88 -94 -31 -25 2 1 5)
1969/12/31/18:00:19.921,(-15 127 127 73 35 7 5 -37)
1969/12/31/18:00:19.921,(21 -25 -20 -15 -2 -14 11 49)
1969/12/31/18:00:19.935,(-57 -115 -87 -3 10 0 -13 -21)
1969/12/31/18:00:19.935,(35 122 92 27 15 -4 13 2)
1969/12/31/18:00:19.936,(-67 -128 -128 -57 -65 -11 6 13)
1969/12/31/18:00:19.936,(13 39 21 16 9 -2 -1 -5)
1969/12/31/18:00:19.948,(30 36 26 20 39 33 24 40)
1969/12/31/18:00:19.948,(-51 -32 -18 -32 -16 15 2 -38)
1969/12/31/18:00:19.957,(30 8 -5 -2 -5 -8 6 19)
1969/12/31/18:00:19.957,(-40 -101 -57 -21 -15 -35 -23 -27)
1969/12/31/18:00:19.972,(0 25 12 -9 -12 -10 3 5)
1969/12/31/18:00:19.972,(52 109 103 56 43 17 -5 -8)
1969/12/31/18:00:19.978,(24 28 49 15 -15 -10 -4 17)
1969/12/31/18:00:19.978,(-61 -80 -85 -91 -55 -38 -15 -23)
1969/12/31/18:00:19.994,(14 48 28 23 12 57 27 17)
1969/12/31/18:00:19.994,(-15 -114 -91 14 28 -11 -6 0)
1969/12/31/18:00:20.002,(-6 -73 -56 -15 -14 -31 -12 -11)
1969/12/31/18:00:20.002,(-15 -38 -19 18 12 12 -10 -14)
1969/12/31/18:00:20.008,(-12 -78 -89 -27 -8 -9 -1 1)
1969/12/31/18:00:20.008,(1 109 81 6 -25 0 16 52)
1969/12/31/18:00:20.017,(10 19 19 14 29 7 7 -5)
1969/12/31/18:00:20.017,(-37 -67 -38 -12 17 17 -8 7)
1969/12/31/18:00:20.033,(47 63 58 -1 -17 -10 11 19)
1969/12/31/18:00:20.033,(-7 -51 -40 -28 -16 -4 -13 -22)
1969/12/31/18:00:20.038,(4 88 68 11 3 -20 -13 -14)
1969/12/31/18:00:20.038,(10 31 20 38 51 26 10 -12)
1969/12/31/18:00:20.055,(-41 -16 -5 -5 -27 11 -18 -32)
1969/12/31/18:00:20.055,(-7 41 28 16 -11 -20 3 -1)
1969/12/31/18:00:20.061,(28 -37 -25 -14 -1 5 -10 13)
1969/12/31/18:00:20.061,(15 -12 -5 -1 -10 14 21 2)
1969/12/31/18:00:20.068,(-2 -80 -82 -4 26 -15 4 23)
1969/12/31/18:00:20.068,(10 -11 -17 -48 -46 -20 -9 -2)
1969/12/31/18:00:20.077,(-3 -17 -38 0 29 27 -3 -4)
1969/12/31/18:00:20.077,(27 84 87 39 21 -3 -1 15)
1969/12/31/18:00:20.092,(6 -90 -67 -19 -37 -13 -7 10)
1969/12/31/18:00:20.092,(-21 -16 15 -3 23 18 23 3)
1969/12/31/18:00:20.094,(-58 -6 -28 -9 -6 -8 -12 -59)
1969/12/31/18:00:20.094,(49 66 70 17 5 -2 -12 -3)
1969/12/31/18:00:20.115,(-45 -128 -78 -12 9 -7 7 16)
1969/12/31/18:00:20.115,(15 99 2 -18 -35 -25 -30 -54)
1969/12/31/18:00:20.121,(2 82 100 72 31 25 19 9)
1969/12/31/18:00:20.121,(-6 -73 -87 -29 -15 -5 -7 -4)
1969/12/31/18:00:20.137,(29 -26 -57 -12 0 -3 -1 14)
1969/12/31/18:00:20.137,(13 7 39 8 -11 12 8 13)
1969/12/31/18:00:20.139,(-24 -118 -100 -33 -14 -23 -9 -1)
1969/12/31/18:00:20.139,(3 127 127 32 11 15 2 -12)
1969/12/31/18:00:20.152,(15 -22 -10 -19 -28 -17 -6 7)
1969/12/31/18:00:20.152,(-7 -46 -53 4 19 -9 -9 -14)
1969/12/31/18:00:20.154,(-40 -101 -62 -31 -21 8 9 -11)
1969/12/31/18:00:20.154,(46 103 73 22 3 -6 14 50)
1969/12/31/18:00:20.175,(-5 45 62 29 33 21 -2 -14)
1969/12/31/18:00:20.175,(8 -32 -28 -2 12 6 -3 27)
1969/12/31/18:00:20.176,(-16 -36 -44 -33 -17 -11 -21 -26)
1969/12/31/18:00:20.176,(-36 -128 -93 -33 -26 -14 2 -2)
1969/12/31/18:00:20.198,(-7 23 25 8 13 -20 -2 -7)
1969/12/31/18:00:20.198,(6 87 75 23 -22 23 3 -12)
1969/12/31/18:00:20.199,(51 -28 -28 -7 8 7 11 47)
1969/12/31/18:00:20.199,(-23 22 4 4 -4 -8 4 -4)
1969/12/31/18:00:20.212,(-20 -28 1 7 1 -9 -18 -63)
1969/12/31/18:00:20.212,(-17 -61 -57 -17 -3 -18 -10 -28)
1969/12/31/18:00:20.214,(5 14 23 -6 -17 0 -2 15)
1969/12/31/18:00:20.214,(-9 -40 -40 -23 -19 -4 -14 -35)
1969/12/31/18:00:20.235,(-9 -13 -9 -5 -15 -12 13 37)
1969/12/31/18:00:20.235,(-17 -71 -45 -11 14 4 -3 6)
1969/12/31/18:00:20.236,(27 90 42 8 2 3 9 -3)
1969/12/31/18:00:20.236,(14 71 61 26 21 9 2 0)
1969/12/31/18:00:20.248,(38 -10 1 14 -12 -18 -5 25)
1969/12/31/18:00:20.248,(55 -38 -21 -26 -4 28 15 45)
1969/12/31/18:00:20.257,(5 84 74 22 2 -2 10 15)
1969/12/31/18:00:20.257,(-24 4 22 18 25 21 -8 -12)
1969/12/31/18:00:20.272,(24 11 -10 -21 -18 -12 -15 -44)
1969/12/31/18:00:20.272,(-39 -58 -39 -1 -18 -23 -15 -16)
1969/12/31/18:00:20.274,(-10 -50 -12 -1 14 6 -1 -2)
1969/12/31/18:00:20.274,(-31 -35 -26 -5 -7 -5 -27 -38)
1969/12/31/18:00:20.295,(0 29 16 -1 30 18 17 11)
1969/12/31/18:00:20.295,(16 36 29 -8 -43 -19 -6 -3)
1969/12/31/18:00:20.296,(3 43 9 -11 7 6 -17 -18)
1969/12/31/18:00:20.297,(-19 -90 -60 -8 -14 -17 -4 -14)
1969/12/31/18:00:20.308,(-28 20 -23 12 23 7 -6 -14)
1969/12/31/18:00:20.308,(30 78 66 30 16 12 7 8)
1969/12/31/18:00:20.317,(4 33 17 3 -4 -2 10 14)
1969/12/31/18:00:20.317,(-31 -81 -58 -30 -24 -9 -1 11)
1969/12/31/18:00:20.332,(83 104 106 34 -4 -2 6 54)
1969/12/31/18:00:20.332,(-35 -90 -74 -13 17 -3 16 10)
1969/12/31/18:00:20.334,(4 -2 0 11 -3 -3 -11 10)
1969/12/31/18:00:20.334,(39 -30 -51 -28 3 22 8 6)
1969/12/31/18:00:20.362,(-40 32 54 6 -8 2 3 -11)
1969/12/31/18:00:20.362,(-22 -55 -81 -18 12 -1 1 -5)
1969/12/31/18:00:20.364,(40 41 75 33 13 -6 0 28)
1969/12/31/18:00:20.364,(28 74 42 43 15 -24 -10 18)
1969/12/31/18:00:20.368,(-7 -29 -15 -18 -26 19 16 50)
1969/12/31/18:00:20.368,(15 -69 -54 -27 -8 -2 2 2)
1969/12/31/18:00:20.377,(17 35 36 11 5 4 -1 22)
1969/12/31/18:00:20.377,(-25 -22 -34 -21 -18 -16 -9 -18)
1969/12/31/18:00:20.392,(-18 -78 -45 -25 -19 -30 -14 -8)
1969/12/31/18:00:20.392,(2 60 23 32 40 24 13 -1)
1969/12/31/18:00:20.398,(16 -20 -32 -7 -10 3 6 0)
1969/12/31/18:00:20.398,(14 30 28 -4 -12 6 15 14)
1969/12/31/18:00:20.416,(1 -58 -33 -8 -7 -15 -2 0)
1969/12/31/18:00:20.416,(-29 -24 12 1 7 4 -7 -20)
1969/12/31/18:00:20.421,(21 -27 -44 -5 16 9 -4 -6)
1969/12/31/18:00:20.421,(17 45 45 7 -14 -13 -15 -26)
1969/12/31/18:00:20.428,(-68 -60 -69 -15 2 -8 -17 -68)
1969/12/31/18:00:20.428,(0 -6 8 -6 -17 -7 -10 2)
1969/12/31/18:00:20.437,(-37 -105 -76 -35 -13 5 6 -9)
1969/12/31/18:00:20.437,(13 73 43 5 -5 -1 8 20)
1969/12/31/18:00:20.452,(51 106 77 36 22 15 4 8)
1969/12/31/18:00:20.452,(14 126 99 37 6 -5 -1 -1)
1969/12/31/18:00:20.454,(4 15 15 8 4 -5 4 8)
1969/12/31/18:00:20.454,(-24 -120 -79 -29 -9 1 -3 -6)
1969/12/31/18:00:20.475,(-41 -41 -55 -17 -2 6 8 4)
1969/12/31/18:00:20.475,(-56 -17 19 8 7 -3 -20 -30)
1969/12/31/18:00:20.476,(38 -22 -46 -14 -1 -3 15 30)
1969/12/31/18:00:20.476,(-2 93 71 19 -19 -7 -1 -10)
1969/12/31/18:00:20.488,(46 14 3 0 0 20 13 20)
1969/12/31/18:00:20.488,(7 -53 -52 -18 2 -5 -2 13)
1969/12/31/18:00:20.497,(-41 -53 -32 -23 -22 -16 -22 -39)
1969/12/31/18:00:20.497,(-24 -16 -14 9 26 -3 -1 -13)
1969/12/31/18:00:20.512,(-5 -60 -56 -29 -21 2 2 9)
1969/12/31/18:00:20.512,(35 86 86 46 22 22 16 8)
1969/12/31/18:00:20.514,(-10 -38 -22 1 -22 -18 -8 -13)
1969/12/31/18:00:20.514,(-5 -25 -21 -14 21 26 12 6)
1969/12/31/18:00:20.535,(-11 -57 -4 -4 1 -10 -10 -9)
1969/12/31/18:00:20.535,(46 56 29 21 9 9 10 24)
1969/12/31/18:00:20.536,(1 17 -2 -25 -36 -17 -6 -5)
1969/12/31/18:00:20.536,(-22 -41 -28 16 32 4 -3 -5)
1969/12/31/18:00:20.548,(15 17 19 -1 -8 4 5 6)
1969/12/31/18:00:20.548,(-30 -59 -36 -21 -2 -13 -13 -20)
1969/12/31/18:00:20.557,(-6 19 7 -13 -17 3 -2 -10)
1969/12/31/18:00:20.557,(-4 11 -12 -4 -15 -16 -10 -2)
1969/12/31/18:00:20.572,(-11 -2 13 10 6 -2 -16 -28)
1969/12/31/18:00:20.572,(-7 -2 2 12 13 -11 -5 -20)
1969/12/31/18:00:20.574,(-8 -14 -5 13 15 23 10 -9)
1969/12/31/18:00:20.574,(19 -9 -7 -5 -11 -15 -43 44)
1969/12/31/18:00:20.595,(-17 37 19 -7 -6 -6 10 -25)
1969/12/31/18:00:20.595,(-6 -26 -32 -26 -25 -1 0 5)
1969/12/31/18:00:20.596,(-50 -17 3 9 22 19 13 -18)
1969/12/31/18:00:20.596,(88 35 8 -1 -3 0 8 21)
1969/12/31/18:00:20.608,(28 38 26 8 -2 -7 -11 15)
1969/12/31/18:00:20.608,(-11 -46 -36 -23 -7 5 -2 12)
1969/12/31/18:00:20.617,(-42 -7 -6 6 11 -3 8 -20)
1969/12/31/18:00:20.617,(-22 6 14 -9 -25 -14 -8 -20)
1969/12/31/18:00:20.631,(11 0 1 -3 15 18 8 -9)
1969/12/31/18:00:20.631,(-11 -53 -27 9 10 4 0 -6)
1969/12/31/18:00:20.640,(66 52 20 11 6 1 3 43)
1969/12/31/18:00:20.640,(-2 24 18 5 2 4 0 -17)
1969/12/31/18:00:20.655,(-37 -26 -19 -12 -11 -2 16 -26)
1969/12/31/18:00:20.655,(-39 -18 -13 -16 -14 -14 -6 2)
1969/12/31/18:00:20.656,(-18 -8 0 1 8 -2 -24 -26)
1969/12/31/18:00:20.656,(-4 -4 11 1 -4 8 10 9)
1969/12/31/18:00:20.677,(-27 17 12 16 10 -1 -14 -10)
1969/12/31/18:00:20.677,(35 -10 -6 -4 -2 5 20 20)
1969/12/31/18:00:20.683,(7 22 -2 0 1 -4 -15 -10)
1969/12/31/18:00:20.683,(54 24 14 7 7 0 0 -15)
1969/12/31/18:00:20.692,(-23 47 21 7 4 -9 -21 -30)
1969/12/31/18:00:20.692,(16 -21 -24 -16 -14 -9 -17 -18)
1969/12/31/18:00:20.694,(-16 -17 5 1 1 -3 1 -8)
1969/12/31/18:00:20.694,(27 -25 -2 10 8 9 22 29)
1969/12/31/18:00:20.714,(-42 -23 4 10 8 1 3 17)
1969/12/31/18:00:20.715,(2 33 -1 -8 -12 -2 -10 -10)
1969/12/31/18:00:20.716,(29 8 -5 -4 1 1 13 18)
1969/12/31/18:00:20.716,(66 61 12 4 4 4 15 32)
1969/12/31/18:00:20.737,(-5 -67 -21 -8 -12 -4 -4 12)
1969/12/31/18:00:20.737,(3 7 -2 -4 5 1 4 1)
1969/12/31/18:00:20.739,(-3 -2 5 5 3 -1 2 6)
1969/12/31/18:00:20.739,(-33 -38 -11 -7 -4 -5 -7 -15)
1969/12/31/18:00:20.752,(14 40 9 5 0 0 -4 1)
1969/12/31/18:00:20.752,(20 -20 -20 -9 -4 4 8 28)
1969/12/31/18:00:20.758,(-18 36 24 8 2 -10 -17 -26)
1969/12/31/18:00:20.758,(-57 -28 0 -3 -1 0 3 5)
1969/12/31/18:00:20.775,(34 -6 1 6 5 5 12 41)
1969/12/31/18:00:20.775,(-5 25 1 -8 -9 -4 -2 0)
1969/12/31/18:00:20.776,(37 6 0 5 5 0 4 18)
1969/12/31/18:00:20.776,(-24 -7 -8 -5 -6 -3 8 10)
1969/12/31/18:00:20.797,(3 0 4 4 3 0 -4 -11)
1969/12/31/18:00:20.797,(3 -8 -3 4 2 3 2 4)
1969/12/31/18:00:20.799,(-2 -23 -4 1 -2 0 5 5)
1969/12/31/18:00:20.799,(-4 8 -13 -26 -11 -6 -8 -10)
1969/12/31/18:00:20.812,(12 0 -3 2 -1 -3 -4 -4)
1969/12/31/18:00:20.812,(3 10 16 16 8 3 2 1)
1969/12/31/18:00:20.818,(-1 7 9 18 7 3 1 3)
1969/12/31/18:00:20.818,(-21 -18 -5 -7 -5 -2 -5 -17)
1969/12/31/18:00:20.835,(0 -2 -19 -22 -7 -4 -3 1)
1969/12/31/18:00:20.835,(-11 2 8 6 4 0 0 -7)
1969/12/31/18:00:20.836,(1 -7 -8 -8 -3 -1 1 4)
1969/12/31/18:00:20.836,(0 4 23 29 16 6 0 -16)
1969/12/31/18:00:20.857,(9 0 -3 -5 -5 -1 -6 -5)
1969/12/31/18:00:20.857,(-3 4 -5 -1 -7 -3 -2 4)
1969/12/31/18:00:20.859,(-6 -16 -19 -35 -11 -3 -3 -2)
1969/12/31/18:00:20.859,(-13 -24 -21 -1 -6 -3 -4 -11)
1969/12/31/18:00:20.872,(1 4 -6 3 4 -1 -2 0)
1969/12/31/18:00:20.872,(-6 -1 17 15 6 5 0 -7)
1969/12/31/18:00:20.878,(-6 -10 -5 3 -2 -2 -1 -1)
1969/12/31/18:00:20.878,(-16 -10 -8 -14 -8 -6 -4 -11)
1969/12/31/18:00:20.895,(2 -16 -1 -10 -6 -8 -1 2)
1969/12/31/18:00:20.895,(-1 23 10 -2 -2 -3 -10 -11)
1969/12/31/18:00:20.896,(-2 -2 -6 -2 4 11 21 11)
1969/12/31/18:00:20.896,(-5 -18 -25 -6 -4 -6 -10 0)
1969/12/31/18:00:20.917,(-4 -59 -22 8 -3 -2 -3 -1)
1969/12/31/18:00:20.917,(1 46 28 9 5 -1 -3 -3)
1969/12/31/18:00:20.919,(2 11 16 11 3 0 1 5)
1969/12/31/18:00:20.919,(-5 -13 -36 -15 -6 -4 -11 -11)
1969/12/31/18:00:20.931,(16 79 99 32 15 9 5 7)
1969/12/31/18:00:20.931,(-18 -53 -50 -23 -12 -5 -6 -14)
1969/12/31/18:00:20.940,(-5 -12 -5 -4 -5 -5 -4 0)
1969/12/31/18:00:20.940,(4 10 4 0 1 1 -2 -3)
1969/12/31/18:00:20.955,(-7 -7 -32 -15 -7 -5 4 2)
1969/12/31/18:00:20.955,(2 -9 -3 -5 -2 1 2 6)
1969/12/31/18:00:20.956,(-5 -17 -7 -11 -3 -7 -10 -5)
1969/12/31/18:00:20.956,(-2 -7 -14 1 -2 -2 5 3)
1969/12/31/18:00:20.977,(10 48 40 22 12 7 7 4)
1969/12/31/18:00:20.977,(-8 -22 -25 -8 -4 -4 -1 -2)
1969/12/31/18:00:20.979,(3 27 31 9 4 2 1 4)
1969/12/31/18:00:20.979,(-10 -29 -17 -15 -10 -7 -3 -10)
1969/12/31/18:00:20.991,(4 22 2 -5 1 2 1 3)
1969/12/31/18:00:20.991,(-8 -47 -36 -12 -9 -4 -3 -2)
1969/12/31/18:00:21.000,(14 68 42 12 6 -1 -1 4)
1969/12/31/18:00:21.000,(0 1 28 13 11 11 5 -1)
1969/12/31/18:00:21.015,(-7 -11 -19 -7 -8 -9 -2 -9)
1969/12/31/18:00:21.015,(-3 -10 -1 -5 -7 -3 -12 -7)
1969/12/31/18:00:21.016,(-9 -24 -28 -6 -6 -4 0 -4)
1969/12/31/18:00:21.016,(1 11 15 -1 0 1 7 8)
1969/12/31/18:00:21.037,(6 10 -6 -3 -2 -1 2 5)
1969/12/31/18:00:21.037,(-2 -1 4 -2 -1 -1 -4 -1)
1969/12/31/18:00:21.039,(-7 -20 -15 2 1 0 0 -2)
1969/12/31/18:00:21.039,(-1 13 10 7 5 4 3 1)
1969/12/31/18:00:21.051,(-6 -23 -22 -12 -5 -2 -6 -6)
1969/12/31/18:00:21.051,(1 13 0 -3 -2 -2 2 2)
1969/12/31/18:00:21.060,(-1 -18 -11 -6 -4 0 -4 -1)
1969/12/31/18:00:21.060,(5 6 9 3 -3 -2 4 7)
1969/12/31/18:00:21.075,(-3 -2 -1 2 2 0 -4 -6)
1969/12/31/18:00:21.075,(-4 2 9 6 6 5 8 4)
1969/12/31/18:00:21.076,(-7 -11 -17 -8 -3 -3 -2 -5)
1969/12/31/18:00:21.076,(-2 -1 -5 -4 -4 -4 -5 -6)
1969/12/31/18:00:21.097,(6 9 -1 -3 0 0 -4 1)
1969/12/31/18:00:21.097,(-9 -28 -12 -9 -5 -3 3 3)
1969/12/31/18:00:21.099,(-12 -17 13 11 2 -5 -13 -16)
1969/12/31/18:00:21.099,(-6 20 10 -4 -3 -2 -3 -4)
1969/12/31/18:00:21.111,(19 29 2 -1 0 4 1 8)
1969/12/31/18:00:21.111,(-14 -24 -3 0 -2 -5 -7 -16)
1969/12/31/18:00:21.120,(5 25 -2 -4 -3 0 0 2)
1969/12/31/18:00:21.120,(2 -7 2 4 2 -1 0 1)
1969/12/31/18:00:21.135,(-13 -32 9 2 0 -1 -3 -5)
1969/12/31/18:00:21.135,(20 42 7 -1 0 1 3 9)
1969/12/31/18:00:21.137,(-14 -26 -18 -3 -2 -2 -6 -9)
1969/12/31/18:00:21.137,(5 31 18 0 -1 -2 -1 -1)
1969/12/31/18:00:21.165,(-8 -29 4 13 7 5 4 2)
1969/12/31/18:00:21.165,(7 28 8 -1 -3 -2 -3 -1)
1969/12/31/18:00:21.166,(-1 -6 -25 -21 -12 -7 -5 -3)
1969/12/31/18:00:21.166,(-4 -25 -5 21 7 3 3 -2)
1969/12/31/18:00:21.180,(-21 -23 12 -1 -5 -4 -5 -10)
1969/12/31/18:00:21.180,(14 63 18 0 -1 -3 -3 1)
1969/12/31/18:00:21.186,(10 8 -5 9 7 1 0 -1)
1969/12/31/18:00:21.186,(-29 -80 6 -14 -6 -1 0 2)
1969/12/31/18:00:21.195,(28 106 46 24 11 1 -2 -4)
1969/12/31/18:00:21.195,(-4 -18 -49 -22 -3 -2 -1 -6)
1969/12/31/18:00:21.196,(-11 -17 19 -5 -8 -2 -1 -1)
1969/12/31/18:00:21.196,(14 36 -54 -31 -12 -11 -6 -3)
1969/12/31/18:00:21.217,(-7 -45 -20 23 15 8 5 1)
1969/12/31/18:00:21.217,(-14 -44 25 18 3 4 2 4)
1969/12/31/18:00:21.219,(49 105 0 14 11 3 2 6)
1969/12/31/18:00:21.219,(-14 -38 -38 -26 -9 -7 -11 -13)
1969/12/31/18:00:21.231,(-15 -55 -47 -37 -19 -9 -1 2)
1969/12/31/18:00:21.231,(7 38 33 19 6 -2 -1 -1)
1969/12/31/18:00:21.240,(-21 -50 -7 -7 -3 2 3 -1)
1969/12/31/18:00:21.240,(-28 -88 -51 -34 -17 -9 -6 -3)
1969/12/31/18:00:21.255,(36 79 61 25 10 5 4 9)
1969/12/31/18:00:21.255,(-9 -14 44 36 14 5 3 -2)
1969/12/31/18:00:21.261,(1 -10 -4 -10 -3 -3 -1 3)
1969/12/31/18:00:21.261,(2 22 8 15 6 0 -4 -6)
1969/12/31/18:00:21.277,(-12 -29 -10 -10 -8 -3 1 4)
1969/12/31/18:00:21.277,(0 17 -35 -24 -10 -5 -6 -10)
1969/12/31/18:00:21.279,(-8 -22 -12 -32 -12 -7 -2 -4)
1969/12/31/18:00:21.279,(14 10 -1 -9 -5 4 7 9)
1969/12/31/18:00:21.291,(22 64 16 38 16 5 0 -5)
1969/12/31/18:00:21.291,(-3 -16 -14 44 15 4 3 0)
1969/12/31/18:00:21.307,(7 -4 6 15 5 5 3 5)
1969/12/31/18:00:21.307,(4 21 47 27 8 2 -2 -1)
1969/12/31/18:00:21.315,(-13 -33 -37 -43 -19 -9 -7 -7)
1969/12/31/18:00:21.315,(-7 -28 -33 -34 -14 -7 -3 -2)
1969/12/31/18:00:21.316,(-1 6 10 0 0 -1 0 0)
1969/12/31/18:00:21.316,(0 -17 -18 -14 -3 0 0 2)
1969/12/31/18:00:21.337,(-16 -24 -14 -13 -5 -3 -4 -7)
1969/12/31/18:00:21.337,(6 -1 14 -7 -6 -2 0 4)
1969/12/31/18:00:21.343,(-1 -19 -21 -3 -1 -2 -1 1)
1969/12/31/18:00:21.343,(11 47 46 26 11 4 3 2)
1969/12/31/18:00:21.351,(-5 -23 -25 -10 -4 -3 -3 0)
1969/12/31/18:00:21.351,(3 6 12 -1 -2 3 1 2)
1969/12/31/18:00:21.360,(-5 -23 -5 1 0 -2 1 1)
1969/12/31/18:00:21.360,(10 30 23 15 8 3 4 5)
1969/12/31/18:00:21.375,(-5 9 13 -2 -5 -4 -7 -13)
1969/12/31/18:00:21.375,(-3 -17 0 -15 -7 -2 1 2)
1969/12/31/18:00:21.376,(-1 -1 -24 -3 -1 2 -2 -2)
1969/12/31/18:00:21.376,(5 20 32 31 14 6 4 1)
1969/12/31/18:00:21.397,(-4 -19 -16 -10 -4 -1 2 2)
1969/12/31/18:00:21.397,(-1 -11 -14 -7 -3 -3 0 1)
1969/12/31/18:00:21.399,(-9 -20 7 -2 -5 -5 -3 -4)
1969/12/31/18:00:21.399,(5 31 29 -3 1 -2 -1 -1)
1969/12/31/18:00:21.411,(7 7 12 27 10 3 3 5)
1969/12/31/18:00:21.411,(1 1 3 4 3 2 1 1)
1969/12/31/18:00:21.420,(-8 -10 -6 -3 -4 -2 -4 -3)
1969/12/31/18:00:21.420,(-4 -7 -18 -11 -4 -4 -4 -8)
1969/12/31/18:00:21.434,(-4 -13 -16 -16 -8 -3 -1 0)
1969/12/31/18:00:21.434,(5 7 -6 -2 1 -1 -1 0)
1969/12/31/18:00:21.441,(-2 -2 -2 4 5 3 2 1)
1969/12/31/18:00:21.441,(9 16 12 4 -1 -1 2 4)
1969/12/31/18:00:21.457,(-17 -28 -29 -9 -1 -3 -5 -8)
1969/12/31/18:00:21.457,(-6 -14 -12 -3 -2 -1 -4 -5)
1969/12/31/18:00:21.472,(4 7 10 -4 0 0 2 4)
1969/12/31/18:00:21.472,(0 5 15 19 6 -1 0 2)
1969/12/31/18:00:21.472,(2 -9 0 -1 -3 0 1 5)
1969/12/31/18:00:21.472,(-7 -13 -8 -9 -4 -5 -2 -5)
1969/12/31/18:00:21.480,(-1 8 4 4 -1 0 -3 -4)
1969/12/31/18:00:21.480,(-3 -14 -24 -13 -4 -2 -2 -3)
1969/12/31/18:00:21.494,(-3 -10 -6 -10 -4 -3 0 0)
1969/12/31/18:00:21.494,(1 6 15 5 3 2 1 1)
1969/12/31/18:00:21.501,(1 6 17 6 2 0 -1 -2)
1969/12/31/18:00:21.501,(-1 -4 -12 -3 -2 0 0 0)
1969/12/31/18:00:21.517,(-4 -10 -11 -11 -7 -4 -5 -6)
1969/12/31/18:00:21.517,(1 6 -4 0 2 1 -2 0)
1969/12/31/18:00:21.519,(-3 -1 -10 -4 -2 -1 -1 -2)
1969/12/31/18:00:21.519,(-1 -8 -9 -1 0 2 0 1)
1969/12/31/18:00:21.541,(0 8 2 -2 -1 -1 1 -1)
1969/12/31/18:00:21.541,(-2 -3 2 -3 -4 -1 0 0)
1969/12/31/18:00:21.542,(-2 1 1 3 -2 0 -2 -1)
1969/12/31/18:00:21.542,(-4 -12 -18 -7 -7 -3 -1 -1)
1969/12/31/18:00:21.554,(2 13 13 5 1 -1 -1 -1)
1969/12/31/18:00:21.554,(0 3 -1 -3 1 0 -2 0)
1969/12/31/18:00:21.561,(0 -1 -1 -1 -2 -2 1 0)
1969/12/31/18:00:21.561,(-4 -8 -6 1 0 1 -1 -4)
1969/12/31/18:00:21.576,(-2 -7 -9 -4 -1 -2 -1 -1)
1969/12/31/18:00:21.576,(-6 -7 -8 -6 -4 -5 -5 -6)
1969/12/31/18:00:21.585,(2 5 7 4 1 -1 -1 0)
1969/12/31/18:00:21.585,(-1 -2 -3 -6 -6 -5 -3 -2)
1969/12/31/18:00:21.600,(-3 -3 -2 -2 -4 -3 -3 -1)
1969/12/31/18:00:21.600,(3 4 3 0 -2 1 1 2)
1969/12/31/18:00:21.601,(0 1 -5 -2 2 1 0 1)
1969/12/31/18:00:21.601,(-2 -8 -3 4 5 2 0 -1)
1969/12/31/18:00:21.614,(2 -2 -3 1 0 1 1 1)
1969/12/31/18:00:21.614,(0 1 3 -1 0 -3 -1 0)
1969/12/31/18:00:21.621,(0 3 8 10 2 2 0 -1)
1969/12/31/18:00:21.621,(0 2 -4 -4 -3 -2 -4 -1)
1969/12/31/18:00:21.637,(0 0 3 3 6 4 2 -1)
1969/12/31/18:00:21.637,(-2 -4 -2 -3 1 0 -2 -2)
1969/12/31/18:00:21.639,(-1 -1 2 5 5 0 1 0)
1969/12/31/18:00:21.639,(2 3 2 0 -1 0 2 1)
1969/12/31/18:00:21.667,(-3 -5 -6 -4 -2 -1 -2 -3)
1969/12/31/18:00:21.667,(-1 -2 -2 -1 -2 -2 0 0)
1969/12/31/18:00:21.669,(-1 -1 -2 -2 1 -1 -3 0)
1969/12/31/18:00:21.669,(-1 -4 -5 -5 -6 -3 -3 -2)
1969/12/31/18:00:21.673,(-1 0 1 -2 -3 -2 -2 -2)
1969/12/31/18:00:21.673,(-1 1 -1 -3 -3 -2 -3 -3)
1969/12/31/18:00:21.682,(-3 -4 -2 -1 -2 -2 -2 -2)
1969/12/31/18:00:21.682,(1 4 -3 0 3 1 0 0)
1969/12/31/18:00:21.697,(-4 -8 -1 0 0 -2 -3 -2)
1969/12/31/18:00:21.697,(0 5 -1 0 1 0 0 0)
1969/12/31/18:00:21.699,(-4 -6 1 1 0 -1 -2 -2)
1969/12/31/18:00:21.699,(1 1 -1 1 1 1 -1 -1)
1969/12/31/18:00:21.720,(3 3 4 7 5 2 2 2)
1969/12/31/18:00:21.720,(0 -1 2 2 -1 -1 -2 -1)
1969/12/31/18:00:21.721,(-1 0 -1 -1 -3 -2 0 -1)
1969/12/31/18:00:21.721,(-4 -4 -3 -6 -5 -3 -4 -1)
1969/12/31/18:00:21.734,(0 1 2 1 2 -1 0 1)
1969/12/31/18:00:21.734,(-1 -3 2 2 -1 -1 0 -1)
1969/12/31/18:00:21.748,(1 1 1 -2 -1 2 1 0)
1969/12/31/18:00:21.748,(-2 -2 1 -1 -1 0 1 0)
1969/12/31/18:00:21.757,(-2 -1 0 -3 -2 -2 -3 -2)
1969/12/31/18:00:21.757,(0 -1 -2 0 0 1 3 0)
1969/12/31/18:00:21.758,(-1 -5 -8 -10 -5 -4 -3 -4)
1969/12/31/18:00:21.758,(-2 -2 -2 -1 1 0 1 -3)
1969/12/31/18:00:21.780,(-1 0 0 -4 -3 -1 -2 -3)
1969/12/31/18:00:21.780,(0 -2 0 -1 0 -1 0 -1)
1969/12/31/18:00:21.781,(-3 -4 -8 -4 -4 -3 0 -2)
1969/12/31/18:00:21.781,(2 -1 1 1 2 -1 -2 -1)
1969/12/31/18:00:21.794,(-1 1 -5 -3 -2 -1 -1 0)
1969/12/31/18:00:21.794,(-1 -3 -4 -4 -5 -3 -1 -1)
1969/12/31/18:00:21.801,(0 0 -5 -1 -1 -1 0 -2)
1969/12/31/18:00:21.801,(1 5 10 3 -2 -2 -2 -2)
1969/12/31/18:00:21.817,(-2 -1 -2 -3 -1 0 -2 -2)
1969/12/31/18:00:21.817,(-2 0 -2 -3 0 0 -1 1)
1969/12/31/18:00:21.819,(-3 -3 -2 -3 -5 -2 -1 -3)
1969/12/31/18:00:21.819,(-1 -2 -4 1 2 0 0 -1)
1969/12/31/18:00:21.840,(0 -2 0 -2 -4 -1 -1 -2)
1969/12/31/18:00:21.840,(-1 0 1 0 -3 -1 -1 0)
1969/12/31/18:00:21.841,(0 3 3 3 3 2 0 3)
1969/12/31/18:00:21.841,(-4 -4 -1 1 0 -1 -1 -4)
