time,.data
1969/12/31/18:00:07.709000,(-2 -2 -4 -5 -2 1 0 -3)
1969/12/31/18:00:07.709000,(7 7 4 3 0 3 3 5)
1969/12/31/18:00:07.709000,(-1 0 1 -3 -6 -5 -4 -1)
1969/12/31/18:00:07.709000,(-3 -4 -7 -6 -2 -3 -3 -4)
1969/12/31/18:00:07.731000,(-1 -5 -4 -1 -3 -2 1 1)
1969/12/31/18:00:07.731000,(0 0 4 11 9 6 1 0)
1969/12/31/18:00:07.732000,(-4 1 5 -3 -2 4 -1 -1)
1969/12/31/18:00:07.732000,(0 -2 -12 -21 -15 -7 -2 -3)
1969/12/31/18:00:07.754000,(6 2 -9 -13 -4 -4 -2 3)
1969/12/31/18:00:07.754000,(-5 -9 6 21 6 0 -2 -3)
1969/12/31/18:00:07.755000,(-5 1 11 13 0 -1 0 -3)
1969/12/31/18:00:07.755000,(2 4 1 7 4 -1 0 1)
1969/12/31/18:00:07.769000,(-3 -3 -3 -15 3 0 1 0)
1969/12/31/18:00:07.769000,(2 0 -18 -22 -16 -5 0 1)
1969/12/31/18:00:07.769000,(8 0 1 18 18 7 3 6)
1969/12/31/18:00:07.769000,(-12 -6 2 -21 -20 -5 -4 -8)
1969/12/31/18:00:07.782000,(2 -3 -11 6 -12 0 2 1)
1969/12/31/18:00:07.782000,(-2 1 10 -13 17 -6 -6 -4)
1969/12/31/18:00:07.790000,(3 2 -6 14 -1 6 5 2)
1969/12/31/18:00:07.790000,(12 8 15 21 22 10 5 7)
1969/12/31/18:00:07.805000,(-11 -1 6 -14 -6 -5 -12 -13)
1969/12/31/18:00:07.805000,(-3 -8 -3 12 -9 6 9 1)
1969/12/31/18:00:07.813000,(1 2 -10 -17 -2 -12 -11 0)
1969/12/31/18:00:07.813000,(-13 -15 -3 -9 -11 -8 -6 -10)
1969/12/31/18:00:07.836000,(6 3 1 -15 -25 -7 1 4)
1969/12/31/18:00:07.836000,(1 8 -5 -10 -18 -7 -4 -2)
1969/12/31/18:00:07.837000,(6 2 -12 12 48 6 0 3)
1969/12/31/18:00:07.837000,(-8 -14 1 -14 -1 8 0 -1)
1969/12/31/18:00:07.842000,(1 9 16 32 26 10 6 3)
1969/12/31/18:00:07.842000,(5 12 5 -6 -36 -4 4 2)
1969/12/31/18:00:07.859000,(8 0 -9 -34 -43 -12 -1 3)
1969/12/31/18:00:07.859000,(-8 -11 0 17 48 -7 -10 -4)
1969/12/31/18:00:07.865000,(-2 0 -6 33 47 19 3 0)
1969/12/31/18:00:07.865000,(-4 -4 32 57 27 9 -1 -1)
1969/12/31/18:00:07.874000,(-6 -1 -6 -62 -19 2 5 -4)
1969/12/31/18:00:07.874000,(9 12 0 55 -31 -4 1 4)
1969/12/31/18:00:07.887000,(-7 -12 3 16 38 0 -2 -3)
1969/12/31/18:00:07.887000,(-7 -9 -35 -34 -15 -2 0 -6)
1969/12/31/18:00:07.896000,(10 10 -3 -30 -17 -11 -3 6)
1969/12/31/18:00:07.896000,(3 4 7 -48 -27 -8 -7 0)
1969/12/31/18:00:07.902000,(-4 2 10 -5 -14 -6 -2 -3)
1969/12/31/18:00:07.902000,(5 4 6 11 8 3 1 1)
1969/12/31/18:00:07.911000,(-15 -20 -20 -19 -43 -5 -3 -8)
1969/12/31/18:00:07.911000,(1 -1 -6 44 42 8 3 1)
1969/12/31/18:00:07.926000,(-5 -1 19 -15 11 10 2 -1)
1969/12/31/18:00:07.926000,(-3 -3 -16 -7 -1 -9 -6 -3)
1969/12/31/18:00:07.934000,(-2 -8 -33 -83 -55 -17 -1 -1)
1969/12/31/18:00:07.934000,(-2 7 24 34 22 11 -1 -2)
1969/12/31/18:00:07.947000,(5 4 27 64 14 9 5 4)
1969/12/31/18:00:07.947000,(-5 -4 -11 -18 19 4 0 -5)
1969/12/31/18:00:07.956000,(8 9 2 14 -6 -8 -3 4)
1969/12/31/18:00:07.956000,(4 5 7 50 12 6 7 2)
1969/12/31/18:00:07.962000,(-1 -13 -27 -92 -73 -27 -8 -3)
1969/12/31/18:00:07.962000,(-10 -1 25 33 11 3 -3 -5)
1969/12/31/18:00:07.971000,(-1 3 12 85 54 19 5 1)
1969/12/31/18:00:07.971000,(0 -4 -24 -88 -34 -5 -1 1)
1969/12/31/18:00:07.985000,(10 12 7 44 3 5 4 6)
1969/12/31/18:00:07.985000,(1 -5 -13 -48 -39 -12 -5 1)
1969/12/31/18:00:07.994000,(-5 -2 17 36 27 6 1 -3)
1969/12/31/18:00:07.994000,(0 4 -5 -17 -1 -1 1 1)
1969/12/31/18:00:08.007000,(-4 -6 -22 -24 -26 -12 -6 -6)
1969/12/31/18:00:08.007000,(9 7 4 8 7 4 4 7)
1969/12/31/18:00:08.016000,(-9 -3 26 22 1 9 1 -6)
1969/12/31/18:00:08.016000,(5 6 1 27 13 1 4 4)
1969/12/31/18:00:08.022000,(6 2 -8 5 -10 0 1 3)
1969/12/31/18:00:08.022000,(-4 -5 1 0 16 4 0 -2)
1969/12/31/18:00:08.031000,(-5 0 9 15 6 -2 -3 -4)
1969/12/31/18:00:08.031000,(2 5 -4 -4 -14 -4 2 2)
1969/12/31/18:00:08.045000,(0 -1 -10 -22 0 -1 -1 1)
1969/12/31/18:00:08.045000,(2 -1 -5 -6 -2 -1 0 2)
1969/12/31/18:00:08.054000,(-1 -3 -2 -16 -14 -1 -1 -3)
1969/12/31/18:00:08.054000,(0 0 -2 -2 -7 -2 -2 -4)
1969/12/31/18:00:08.067000,(-3 -1 1 9 11 2 -1 -2)
1969/12/31/18:00:08.067000,(-1 -2 -3 -1 -4 -2 -2 -2)
1969/12/31/18:00:08.076000,(-2 -2 -6 -7 7 1 -1 0)
1969/12/31/18:00:08.076000,(-1 -4 -2 -13 -14 0 3 5)
1969/12/31/18:00:08.082000,(-2 1 9 23 29 6 0 -1)
1969/12/31/18:00:08.082000,(3 8 5 -6 -9 -2 -3 -2)
1969/12/31/18:00:08.091000,(7 5 -1 2 4 1 0 3)
1969/12/31/18:00:08.091000,(-5 -3 -7 -3 1 0 -1 -5)
1969/12/31/18:00:08.105000,(-8 -8 -5 -14 -13 -3 0 0)
1969/12/31/18:00:08.105000,(-12 -12 -2 10 7 0 -9 -8)
1969/12/31/18:00:08.114000,(0 -3 -1 -8 -4 -5 0 3)
1969/12/31/18:00:08.114000,(20 15 5 4 6 4 7 15)
1969/12/31/18:00:08.127000,(-10 -7 -7 -13 -8 -1 0 -4)
1969/12/31/18:00:08.127000,(-12 -4 5 -8 1 6 5 1)
1969/12/31/18:00:08.136000,(25 13 8 30 13 1 -2 2)
1969/12/31/18:00:08.136000,(-2 -6 -4 -12 -8 -7 -5 0)
1969/12/31/18:00:08.151000,(3 3 -2 -7 0 5 7 2)
1969/12/31/18:00:08.151000,(2 1 -2 -12 -8 -6 2 4)
1969/12/31/18:00:08.152000,(-25 -7 1 7 4 -10 -23 -17)
1969/12/31/18:00:08.152000,(-12 -11 -8 -12 -14 -12 -11 -15)
1969/12/31/18:00:08.165000,(-4 -2 -1 -8 -2 -1 -1 -1)
1969/12/31/18:00:08.165000,(4 -2 2 23 8 3 6 3)
1969/12/31/18:00:08.174000,(22 9 1 3 5 5 13 23)
1969/12/31/18:00:08.174000,(-22 -5 0 -2 5 10 9 -10)
1969/12/31/18:00:08.187000,(39 19 4 4 -2 -5 -2 21)
1969/12/31/18:00:08.187000,(-11 -2 -7 -10 -5 -9 -12 -21)
1969/12/31/18:00:08.213000,(-31 -24 2 5 12 12 3 -10)
1969/12/31/18:00:08.213000,(17 9 -2 -3 -4 -6 -11 0)
1969/12/31/18:00:08.214000,(-23 -20 -13 -24 -32 -20 -15 -20)
1969/12/31/18:00:08.214000,(18 16 4 17 22 7 5 13)
1969/12/31/18:00:08.217000,(-6 0 3 4 10 9 15 6)
1969/12/31/18:00:08.217000,(3 -9 -1 -9 -5 3 8 5)
1969/12/31/18:00:08.225000,(-4 4 3 9 6 -1 -5 -6)
1969/12/31/18:00:08.225000,(-2 -11 0 -6 -8 -2 3 1)
1969/12/31/18:00:08.234000,(-4 0 -6 -1 -1 3 8 2)
1969/12/31/18:00:08.234000,(-4 -5 -10 -58 -17 -2 -5 -4)
1969/12/31/18:00:08.247000,(8 8 12 74 19 2 -2 3)
1969/12/31/18:00:08.247000,(-7 -5 8 12 15 -1 -5 -3)
1969/12/31/18:00:08.256000,(-5 -7 8 17 8 3 -2 -1)
1969/12/31/18:00:08.256000,(27 27 3 -21 -3 -4 -3 2)
1969/12/31/18:00:08.262000,(-5 7 3 -1 4 20 24 6)
1969/12/31/18:00:08.262000,(-31 -31 -19 -34 -16 -5 2 -7)
1969/12/31/18:00:08.271000,(-17 -24 -10 -11 -14 -7 -6 -3)
1969/12/31/18:00:08.271000,(8 10 5 27 2 -20 -27 -8)
1969/12/31/18:00:08.285000,(-13 -6 -8 1 11 8 -4 -13)
1969/12/31/18:00:08.285000,(19 15 -7 -42 -14 -4 10 15)
1969/12/31/18:00:08.293000,(-6 -4 -5 7 0 -3 -3 -10)
1969/12/31/18:00:08.294000,(-17 -13 19 35 9 10 3 -1)
1969/12/31/18:00:08.316000,(20 7 -4 -20 -4 0 9 19)
1969/12/31/18:00:08.316000,(-6 4 2 22 7 4 -6 -11)
1969/12/31/18:00:08.318000,(-21 -7 -5 -27 -5 -12 -17 -26)
1969/12/31/18:00:08.318000,(-31 -13 -8 -1 -8 8 -1 -18)
1969/12/31/18:00:08.322000,(67 36 3 -39 18 10 28 54)
1969/12/31/18:00:08.322000,(-5 -9 -23 -28 -41 -19 -14 -6)
1969/12/31/18:00:08.331000,(35 24 21 44 11 15 19 31)
1969/12/31/18:00:08.331000,(-16 -4 23 71 31 5 0 -12)
1969/12/31/18:00:08.345000,(-18 -15 10 30 13 5 0 -2)
1969/12/31/18:00:08.345000,(43 33 10 -10 4 5 3 12)
1969/12/31/18:00:08.354000,(-15 -6 -10 -38 -14 -6 -4 -21)
1969/12/31/18:00:08.354000,(13 -2 -22 -31 -16 -1 2 8)
1969/12/31/18:00:08.367000,(-33 -27 -10 -12 -14 -3 -7 -22)
1969/12/31/18:00:08.367000,(0 5 12 27 15 5 5 13)
1969/12/31/18:00:08.384000,(35 22 2 -2 -2 -2 -2 -1)
1969/12/31/18:00:08.384000,(-1 -2 -10 -47 -13 -4 7 8)
1969/12/31/18:00:08.385000,(-12 -7 -3 9 -8 -5 -1 -11)
1969/12/31/18:00:08.385000,(-3 3 -1 5 3 -13 -20 -9)
1969/12/31/18:00:08.391000,(-19 -9 0 10 -4 4 0 -13)
1969/12/31/18:00:08.391000,(18 -2 -16 -68 -15 1 17 24)
1969/12/31/18:00:08.413000,(-21 -8 1 29 -11 -14 -25 -31)
1969/12/31/18:00:08.413000,(6 0 5 -2 0 3 -1 0)
1969/12/31/18:00:08.415000,(2 4 20 83 49 11 1 6)
1969/12/31/18:00:08.415000,(4 13 13 41 33 7 -1 -5)
1969/12/31/18:00:08.436000,(0 3 2 -9 -4 5 3 2)
1969/12/31/18:00:08.437000,(-6 -7 0 -33 -14 4 13 9)
1969/12/31/18:00:08.442000,(-5 -6 -23 -46 -38 -30 -31 -21)
1969/12/31/18:00:08.442000,(23 10 -5 4 -9 -1 9 25)
1969/12/31/18:00:08.458000,(-10 -5 -1 -20 3 5 4 -8)
1969/12/31/18:00:08.458000,(-3 -4 -14 -47 -17 -4 -7 -8)
1969/12/31/18:00:08.460000,(-55 -36 -3 31 3 -4 -7 -18)
1969/12/31/18:00:08.460000,(57 30 38 59 36 31 42 50)
1969/12/31/18:00:08.489000,(9 5 -4 0 -2 -6 -9 2)
1969/12/31/18:00:08.489000,(-11 -14 -1 11 6 -1 0 1)
1969/12/31/18:00:08.490000,(-2 -6 -9 -37 -14 2 2 2)
1969/12/31/18:00:08.490000,(-12 -7 -12 -22 0 -1 -2 -3)
1969/12/31/18:00:08.496000,(11 11 7 1 -15 1 1 8)
1969/12/31/18:00:08.496000,(-4 -3 11 34 7 6 5 -1)
1969/12/31/18:00:08.498000,(33 22 -2 -36 -4 -1 8 21)
1969/12/31/18:00:08.498000,(-27 -14 -1 26 0 -10 -20 -26)
1969/12/31/18:00:08.519000,(-3 -5 -3 -10 6 3 4 -2)
1969/12/31/18:00:08.519000,(-19 -16 3 19 7 -4 -4 -10)
1969/12/31/18:00:08.520000,(-9 0 -6 -16 -17 -18 -21 -16)
1969/12/31/18:00:08.520000,(-16 -8 -9 -18 -6 -1 -3 -8)
1969/12/31/18:00:08.532000,(-17 -25 -9 -8 -1 -1 0 -1)
1969/12/31/18:00:08.532000,(15 18 -1 9 5 15 22 3)
1969/12/31/18:00:08.541000,(40 21 4 -34 -3 3 5 35)
1969/12/31/18:00:08.541000,(-13 -15 -16 -19 -34 -19 -17 -18)
1969/12/31/18:00:08.556000,(-19 -13 6 39 9 -5 -9 -13)
1969/12/31/18:00:08.556000,(-7 4 18 54 40 14 3 -3)
1969/12/31/18:00:08.558000,(22 11 12 22 21 18 22 17)
1969/12/31/18:00:08.558000,(-12 -8 -9 -26 -28 -15 -14 -13)
1969/12/31/18:00:08.578000,(15 11 -14 -65 -27 -10 -2 8)
1969/12/31/18:00:08.579000,(2 -4 -16 -33 -9 -5 -6 -7)
1969/12/31/18:00:08.580000,(-4 1 0 37 22 8 2 -2)
1969/12/31/18:00:08.580000,(-5 1 25 53 14 9 4 2)
1969/12/31/18:00:08.592000,(-5 3 9 32 12 -3 -5 -9)
1969/12/31/18:00:08.592000,(9 6 1 -3 -4 -1 4 8)
1969/12/31/18:00:08.601000,(-23 -24 -12 -28 -14 -16 -14 -17)
1969/12/31/18:00:08.601000,(-12 3 -5 -14 0 7 7 -14)
1969/12/31/18:00:08.616000,(9 7 -2 -7 -7 -9 -11 -2)
1969/12/31/18:00:08.616000,(-3 -6 -8 -12 -8 -8 -11 -4)
1969/12/31/18:00:08.618000,(-7 -6 -8 -15 -14 -4 -2 -4)
1969/12/31/18:00:08.618000,(-2 -5 -5 -1 2 -2 -1 -1)
1969/12/31/18:00:08.638000,(2 5 6 13 18 0 0 1)
1969/12/31/18:00:08.639000,(5 9 10 18 1 10 9 10)
1969/12/31/18:00:08.640000,(5 14 12 15 4 2 5 7)
1969/12/31/18:00:08.640000,(-13 -18 -3 -4 3 -3 -5 -4)
1969/12/31/18:00:08.661000,(1 5 -11 -41 -11 -5 -7 -8)
1969/12/31/18:00:08.661000,(3 -5 -5 13 0 -5 -3 2)
1969/12/31/18:00:08.662000,(-1 0 1 0 -2 4 3 1)
1969/12/31/18:00:08.662000,(4 6 0 -13 2 -1 -1 3)
1969/12/31/18:00:08.676000,(-11 -11 -6 7 4 -3 -3 -5)
1969/12/31/18:00:08.676000,(1 1 -1 -14 3 -4 -5 -3)
1969/12/31/18:00:08.677000,(7 7 -2 -2 -36 -7 2 4)
1969/12/31/18:00:08.677000,(-11 -8 1 14 27 -1 -12 -13)
1969/12/31/18:00:08.699000,(10 9 16 28 26 25 25 22)
1969/12/31/18:00:08.699000,(18 13 12 9 9 7 -1 2)
1969/12/31/18:00:08.700000,(8 3 -3 -12 3 2 5 6)
1969/12/31/18:00:08.700000,(-22 -16 -5 -10 -19 -13 -8 -7)
1969/12/31/18:00:08.713000,(-14 -20 -12 -14 -11 -5 -4 -11)
1969/12/31/18:00:08.713000,(11 7 -12 -25 -11 -5 1 6)
1969/12/31/18:00:08.720000,(4 1 2 12 -6 -3 -4 -2)
1969/12/31/18:00:08.720000,(-5 -5 9 44 19 5 1 -3)
1969/12/31/18:00:08.736000,(0 7 15 43 18 2 -1 2)
1969/12/31/18:00:08.736000,(-8 -4 5 6 7 3 2 -2)
1969/12/31/18:00:08.738000,(1 -3 -6 -18 2 2 1 -1)
1969/12/31/18:00:08.738000,(12 9 -5 -23 -8 -2 1 7)
1969/12/31/18:00:08.766000,(-3 -2 -11 -25 -23 -9 -7 -6)
1969/12/31/18:00:08.766000,(4 3 -1 4 -13 -2 2 2)
1969/12/31/18:00:08.768000,(7 -5 0 2 9 0 4 15)
1969/12/31/18:00:08.768000,(10 16 7 6 6 8 3 2)
1969/12/31/18:00:08.772000,(-1 0 -6 -23 -9 -4 1 -3)
1969/12/31/18:00:08.772000,(-15 -1 0 4 -5 -7 -7 -7)
1969/12/31/18:00:08.781000,(0 -2 -11 -18 -5 0 -2 -4)
1969/12/31/18:00:08.781000,(-10 -7 0 10 4 3 5 1)
1969/12/31/18:00:08.796000,(15 8 8 13 -3 -1 -4 4)
1969/12/31/18:00:08.796000,(10 0 3 9 9 2 1 4)
1969/12/31/18:00:08.797000,(-1 5 0 -2 0 -2 0 -1)
1969/12/31/18:00:08.797000,(6 9 -4 -11 -7 -6 -7 -1)
1969/12/31/18:00:08.818000,(-6 -11 -1 -1 2 5 2 3)
1969/12/31/18:00:08.818000,(-10 -8 -3 -1 -5 -4 -6 -5)
1969/12/31/18:00:08.826000,(-6 -7 1 3 2 -2 -6 -9)
1969/12/31/18:00:08.826000,(19 13 -1 -9 -5 0 3 10)
1969/12/31/18:00:08.832000,(6 4 3 1 1 -1 4 5)
1969/12/31/18:00:08.832000,(15 10 -2 -5 1 6 17 30)
1969/12/31/18:00:08.841000,(7 21 -5 -3 0 -6 -14 -23)
1969/12/31/18:00:08.841000,(3 -1 0 -1 -3 -1 -1 1)
1969/12/31/18:00:08.856000,(3 5 -4 -6 -1 -5 -6 -3)
1969/12/31/18:00:08.856000,(-9 -13 -4 -2 -19 -6 -5 -10)
1969/12/31/18:00:08.857000,(-5 -4 -2 0 -2 -1 3 4)
1969/12/31/18:00:08.857000,(8 6 1 -12 7 1 1 2)
1969/12/31/18:00:08.879000,(-20 -14 -3 12 -7 -8 -16 -17)
1969/12/31/18:00:08.879000,(-11 -12 -8 -24 -7 -3 0 -8)
1969/12/31/18:00:08.880000,(-2 -5 6 32 17 6 10 9)
1969/12/31/18:00:08.880000,(-2 -2 1 11 13 7 -3 -10)
1969/12/31/18:00:08.892000,(7 4 -3 -25 4 6 5 7)
1969/12/31/18:00:08.892000,(-20 -11 -1 18 2 -1 -11 -20)
1969/12/31/18:00:08.901000,(-2 -3 -7 -33 -13 -6 -4 -3)
1969/12/31/18:00:08.901000,(-5 -12 -14 -3 -16 -12 -4 6)
1969/12/31/18:00:08.916000,(26 41 8 11 -18 -10 3 13)
1969/12/31/18:00:08.916000,(-7 -9 13 22 9 0 -6 -6)
1969/12/31/18:00:08.918000,(-8 -3 3 18 24 7 2 -1)
1969/12/31/18:00:08.918000,(21 15 3 -9 2 2 3 8)
1969/12/31/18:00:08.939000,(-3 -5 -7 -14 -5 4 11 1)
1969/12/31/18:00:08.939000,(7 2 -12 -35 -20 -11 -5 3)
1969/12/31/18:00:08.940000,(8 10 9 27 7 -1 -3 -3)
1969/12/31/18:00:08.940000,(-10 -7 6 17 7 1 -3 -6)
1969/12/31/18:00:08.952000,(-3 -2 -3 -11 1 3 3 -1)
1969/12/31/18:00:08.952000,(-7 -3 -4 -4 -1 0 0 -3)
1969/12/31/18:00:08.961000,(-6 -11 -6 -14 -7 0 -2 -2)
1969/12/31/18:00:08.961000,(-1 0 -1 10 1 4 4 3)
1969/12/31/18:00:08.976000,(8 1 -8 -38 -10 -5 -3 1)
1969/12/31/18:00:08.976000,(-12 -6 2 29 -1 -3 -6 -13)
1969/12/31/18:00:08.978000,(6 9 21 40 10 5 4 8)
1969/12/31/18:00:08.978000,(-10 -9 11 40 8 0 0 -6)
1969/12/31/18:00:08.999000,(15 28 0 -6 -3 -3 -2 3)
1969/12/31/18:00:08.999000,(-17 -15 -15 -70 -6 -8 -14 -21)
1969/12/31/18:00:09.000000,(-33 -30 -34 -13 -3 -16 -24 -26)
1969/12/31/18:00:09.000000,(-7 -8 -18 -57 -40 -9 -3 -2)
1969/12/31/18:00:09.021000,(-7 -19 15 83 3 -1 -1 -1)
1969/12/31/18:00:09.021000,(26 38 37 73 42 22 22 21)
1969/12/31/18:00:09.022000,(5 8 9 11 13 1 -7 -6)
1969/12/31/18:00:09.022000,(-12 1 -6 -62 -3 -2 -7 -10)
1969/12/31/18:00:09.044000,(-42 -44 -29 -26 -9 -4 -8 -19)
1969/12/31/18:00:09.044000,(19 16 -11 -25 -11 1 9 19)
1969/12/31/18:00:09.045000,(28 14 0 -43 -28 -1 15 27)
1969/12/31/18:00:09.045000,(0 1 7 53 12 -3 -6 -5)
1969/12/31/18:00:09.058000,(5 -1 3 -8 47 2 4 15)
1969/12/31/18:00:09.059000,(-25 -17 7 53 -30 -3 -13 -22)
1969/12/31/18:00:09.060000,(-21 -20 -13 -57 -25 -4 -1 -9)
1969/12/31/18:00:09.060000,(46 23 3 28 2 9 22 37)
1969/12/31/18:00:09.072000,(-45 -30 19 48 20 -9 -20 -19)
1969/12/31/18:00:09.072000,(40 13 -20 -75 10 5 2 5)
1969/12/31/18:00:09.081000,(-16 -21 5 43 4 4 3 -3)
1969/12/31/18:00:09.081000,(-19 -5 15 2 -17 -5 0 -8)
1969/12/31/18:00:09.095000,(15 1 11 9 15 17 15 13)
1969/12/31/18:00:09.095000,(-32 -12 -8 -8 6 3 3 -8)
1969/12/31/18:00:09.102000,(75 33 3 -12 -12 -3 5 41)
1969/12/31/18:00:09.102000,(-8 -13 -16 -29 4 5 4 -7)
1969/12/31/18:00:09.119000,(8 14 9 17 -7 0 -3 -5)
1969/12/31/18:00:09.119000,(-4 0 1 -23 -14 -9 -7 -4)
1969/12/31/18:00:09.120000,(-11 -12 0 11 4 -1 6 -1)
1969/12/31/18:00:09.120000,(40 62 5 27 22 7 3 14)
1969/12/31/18:00:09.132000,(12 19 -11 -40 -19 -6 -6 -3)
1969/12/31/18:00:09.132000,(-27 -47 -29 -18 -8 -3 -5 -14)
1969/12/31/18:00:09.141000,(-23 -15 11 80 30 4 -2 -11)
1969/12/31/18:00:09.141000,(-15 -14 31 79 -4 0 2 -5)
1969/12/31/18:00:09.155000,(-14 -18 15 21 4 -2 -10 -12)
1969/12/31/18:00:09.155000,(20 17 -12 -14 4 -2 1 5)
1969/12/31/18:00:09.162000,(1 9 -1 -26 16 8 9 5)
1969/12/31/18:00:09.162000,(-31 -37 -31 -84 -30 -12 -14 -20)
1969/12/31/18:00:09.179000,(6 -3 -10 23 1 5 10 8)
1969/12/31/18:00:09.179000,(1 6 22 17 9 -1 -2 3)
1969/12/31/18:00:09.180000,(1 2 -7 -32 -8 7 5 1)
1969/12/31/18:00:09.180000,(6 -4 -14 -17 -2 -2 -1 3)
1969/12/31/18:00:09.192000,(-8 -4 -8 -47 -15 -5 -3 -8)
1969/12/31/18:00:09.192000,(16 12 10 45 -7 -2 4 13)
1969/12/31/18:00:09.201000,(-4 7 23 64 21 2 -4 -6)
1969/12/31/18:00:09.201000,(24 56 11 -15 16 -3 -5 1)
1969/12/31/18:00:09.215000,(17 7 -11 -48 -20 9 16 19)
1969/12/31/18:00:09.215000,(-13 -22 -8 1 -4 -5 -5 -8)
1969/12/31/18:00:09.222000,(-13 -2 -1 -45 -4 3 2 -5)
1969/12/31/18:00:09.222000,(-11 -21 1 46 -5 -3 -4 -2)
1969/12/31/18:00:09.238000,(-6 1 1 6 8 -5 -4 -6)
1969/12/31/18:00:09.238000,(5 2 -7 -39 -15 -3 1 2)
1969/12/31/18:00:09.240000,(-11 -10 -4 9 34 0 1 -1)
1969/12/31/18:00:09.240000,(24 13 11 14 -32 10 13 21)
1969/12/31/18:00:09.261000,(-7 -17 -2 -19 -27 -6 -4 -9)
1969/12/31/18:00:09.261000,(17 36 14 40 26 7 5 7)
1969/12/31/18:00:09.262000,(-16 -21 -16 -31 -1 -2 -8 -11)
1969/12/31/18:00:09.262000,(-30 -34 -13 -18 6 -1 -2 -11)
1969/12/31/18:00:09.275000,(21 24 6 16 -3 -3 2 5)
1969/12/31/18:00:09.275000,(3 5 7 4 -2 -1 -4 -1)
1969/12/31/18:00:09.282000,(5 7 -2 -32 -24 -4 2 6)
1969/12/31/18:00:09.282000,(4 6 -1 20 16 0 -2 3)
1969/12/31/18:00:09.299000,(-26 -28 -6 1 1 -1 -9 -15)
1969/12/31/18:00:09.299000,(6 14 1 -4 9 1 0 -5)
1969/12/31/18:00:09.300000,(21 26 -8 -10 -33 -3 4 10)
1969/12/31/18:00:09.300000,(1 2 14 10 7 0 1 0)
1969/12/31/18:00:09.321000,(-3 -4 -2 8 10 -6 -10 -2)
1969/12/31/18:00:09.321000,(-4 -15 -6 -14 -7 1 6 11)
1969/12/31/18:00:09.323000,(-13 -2 0 24 3 -5 -10 -18)
1969/12/31/18:00:09.323000,(27 5 -4 -21 8 16 23 30)
1969/12/31/18:00:09.335000,(12 14 -4 -16 -10 -6 -2 2)
1969/12/31/18:00:09.335000,(-18 -16 0 6 0 -8 -9 -6)
1969/12/31/18:00:09.342000,(-10 -8 -4 -27 -19 -11 -14 -18)
1969/12/31/18:00:09.342000,(-38 -51 -11 -9 -6 -11 -13 -20)
1969/12/31/18:00:09.359000,(25 34 9 36 29 14 18 25)
1969/12/31/18:00:09.359000,(-12 -6 8 15 10 9 2 -9)
1969/12/31/18:00:09.360000,(-18 -16 1 -4 -1 4 3 0)
1969/12/31/18:00:09.360000,(3 -3 -12 -31 -7 -3 -1 -1)
1969/12/31/18:00:09.381000,(-20 -25 -6 6 -8 -5 -5 -10)
1969/12/31/18:00:09.381000,(-1 2 -2 -3 -11 -11 -13 -7)
1969/12/31/18:00:09.383000,(-16 3 7 19 6 5 5 -5)
1969/12/31/18:00:09.383000,(23 37 7 -4 6 3 -1 7)
1969/12/31/18:00:09.395000,(17 25 -7 -16 -7 3 8 11)
1969/12/31/18:00:09.395000,(3 -1 3 7 5 3 5 7)
1969/12/31/18:00:09.404000,(12 12 -2 -4 -11 -15 -13 -7)
1969/12/31/18:00:09.404000,(-27 -21 -1 3 2 -3 -5 -15)
1969/12/31/18:00:09.419000,(-1 -1 -1 -32 -2 -1 1 0)
1969/12/31/18:00:09.419000,(11 4 -4 30 4 1 4 7)
1969/12/31/18:00:09.420000,(8 9 17 36 5 5 8 10)
1969/12/31/18:00:09.420000,(16 7 5 -2 2 3 1 5)
1969/12/31/18:00:09.442000,(-5 -5 2 19 14 -3 -7 -13)
1969/12/31/18:00:09.442000,(-23 -22 -6 -14 -2 -5 -7 -11)
1969/12/31/18:00:09.443000,(18 7 -8 -15 -4 4 11 15)
1969/12/31/18:00:09.443000,(28 22 -8 -6 -10 -18 -15 3)
1969/12/31/18:00:09.455000,(-33 -30 0 -7 -6 6 1 -22)
1969/12/31/18:00:09.455000,(-2 3 -3 -3 1 4 6 6)
1969/12/31/18:00:09.463000,(29 1 -1 8 1 -2 -1 13)
1969/12/31/18:00:09.463000,(-12 3 10 9 7 -1 -6 -16)
1969/12/31/18:00:09.479000,(-8 -14 -5 -11 -9 -7 -9 -4)
1969/12/31/18:00:09.479000,(83 83 19 11 20 30 51 67)
1969/12/31/18:00:09.480000,(-36 -25 -15 -10 -13 -23 -33 -37)
1969/12/31/18:00:09.480000,(9 10 -2 -9 -3 0 3 2)
1969/12/31/18:00:09.501000,(-4 -12 -3 1 4 2 1 -5)
1969/12/31/18:00:09.501000,(4 -4 -1 -3 -12 -1 5 12)
1969/12/31/18:00:09.503000,(-4 -2 8 17 20 9 9 5)
1969/12/31/18:00:09.503000,(-15 -8 0 16 0 -4 -7 -5)
1969/12/31/18:00:09.515000,(14 22 5 12 6 6 6 10)
1969/12/31/18:00:09.515000,(-30 -34 -15 -35 -18 -22 -28 -34)
1969/12/31/18:00:09.523000,(25 41 4 -6 -6 5 10 14)
1969/12/31/18:00:09.523000,(-27 -47 -13 12 10 -1 -1 -11)
1969/12/31/18:00:09.538000,(2 8 19 26 13 5 6 10)
1969/12/31/18:00:09.538000,(13 6 -1 -8 -3 3 1 5)
1969/12/31/18:00:09.540000,(5 -4 -4 -20 -12 -2 0 6)
1969/12/31/18:00:09.540000,(-22 -20 -7 -13 -5 -2 -2 -11)
1969/12/31/18:00:09.561000,(5 1 -2 3 -4 0 9 17)
1969/12/31/18:00:09.561000,(1 5 11 12 7 3 1 -5)
1969/12/31/18:00:09.563000,(-26 -42 -5 -2 -4 -7 -10 -11)
1969/12/31/18:00:09.563000,(86 104 8 -2 4 7 16 46)
1969/12/31/18:00:09.575000,(-24 -26 -13 -11 -9 -9 -15 -22)
1969/12/31/18:00:09.575000,(-26 -24 -6 -1 -8 -6 -12 -17)
1969/12/31/18:00:09.599000,(7 -3 0 6 10 8 11 9)
1969/12/31/18:00:09.599000,(-17 -19 -3 -13 -9 -10 -16 -14)
1969/12/31/18:00:09.600000,(8 16 -1 -1 3 9 2 -5)
1969/12/31/18:00:09.600000,(-2 3 -3 2 -3 -7 -9 -8)
1969/12/31/18:00:09.602000,(-3 -5 0 -2 -2 4 6 4)
1969/12/31/18:00:09.602000,(-16 -21 -10 -11 -9 -3 -4 -8)
1969/12/31/18:00:09.621000,(-19 -40 -5 8 0 -13 -12 -5)
1969/12/31/18:00:09.621000,(1 -1 6 16 15 12 8 1)
1969/12/31/18:00:09.623000,(-14 -2 -6 -2 -3 -9 -14 -21)
1969/12/31/18:00:09.623000,(-8 -9 3 -11 -3 3 5 2)
1969/12/31/18:00:09.635000,(3 -5 -12 -36 -6 -8 -8 -7)
1969/12/31/18:00:09.635000,(-14 -13 0 -1 -33 1 10 9)
1969/12/31/18:00:09.644000,(-3 15 6 25 16 2 2 1)
1969/12/31/18:00:09.644000,(1 0 6 14 24 9 5 5)
1969/12/31/18:00:09.659000,(7 8 -3 -2 -14 -1 -1 1)
1969/12/31/18:00:09.659000,(-11 -10 -1 0 16 -8 -14 -15)
1969/12/31/18:00:09.660000,(-1 5 0 -2 4 12 12 5)
1969/12/31/18:00:09.660000,(-6 9 2 3 -3 2 -2 -12)
1969/12/31/18:00:09.681000,(20 31 -7 -6 2 5 7 8)
1969/12/31/18:00:09.681000,(-17 -27 -4 -11 -8 -6 -1 -1)
1969/12/31/18:00:09.683000,(0 -4 -3 -13 -24 -7 0 -1)
1969/12/31/18:00:09.683000,(-24 -21 -3 4 8 -9 -9 -11)
1969/12/31/18:00:09.695000,(-9 -6 8 7 10 13 16 10)
1969/12/31/18:00:09.695000,(72 59 4 3 6 5 11 29)
1969/12/31/18:00:09.704000,(-6 -9 -4 2 6 0 -4 -6)
1969/12/31/18:00:09.704000,(-14 -27 -7 -11 -11 -2 -1 -4)
1969/12/31/18:00:09.719000,(-1 11 -1 -5 -16 -14 -12 -9)
1969/12/31/18:00:09.719000,(-4 -15 -2 0 1 4 7 10)
1969/12/31/18:00:09.720000,(-5 -10 2 22 6 2 -1 -2)
1969/12/31/18:00:09.720000,(19 22 11 12 10 6 9 11)
1969/12/31/18:00:09.741000,(3 0 2 11 -4 -2 0 -1)
1969/12/31/18:00:09.741000,(4 9 4 -12 6 -2 -4 2)
1969/12/31/18:00:09.743000,(16 18 -2 -15 -6 2 -3 -1)
1969/12/31/18:00:09.743000,(-14 -19 -9 -7 -12 -6 -9 -6)
1969/12/31/18:00:09.755000,(-21 -13 -1 3 5 0 -2 -11)
1969/12/31/18:00:09.755000,(-1 7 5 8 7 4 1 -2)
1969/12/31/18:00:09.771000,(-1 -3 -2 -8 -10 -8 -5 -1)
1969/12/31/18:00:09.771000,(-10 -15 -6 0 4 6 8 4)
1969/12/31/18:00:09.779000,(32 21 2 -9 -2 1 -2 8)
1969/12/31/18:00:09.779000,(-12 -14 -5 1 -3 -4 -9 -16)
1969/12/31/18:00:09.780000,(1 -1 2 4 0 -2 0 1)
1969/12/31/18:00:09.780000,(-2 -7 -2 -20 -10 -6 -5 3)
1969/12/31/18:00:09.801000,(-17 -21 -6 12 12 6 7 0)
1969/12/31/18:00:09.801000,(-13 -19 0 11 3 1 -1 -4)
1969/12/31/18:00:09.802000,(4 3 6 -3 5 10 12 7)
1969/12/31/18:00:09.803000,(-6 -13 -11 -31 -34 -15 -10 -7)
1969/12/31/18:00:09.815000,(3 -1 2 2 12 -6 -2 6)
1969/12/31/18:00:09.815000,(1 11 5 15 4 4 1 -1)
1969/12/31/18:00:09.824000,(-8 4 2 23 13 1 -7 -8)
1969/12/31/18:00:09.824000,(34 41 21 10 18 18 22 28)
1969/12/31/18:00:09.838000,(-9 -10 -7 -11 -15 -11 -17 -19)
1969/12/31/18:00:09.838000,(-16 -15 -10 -15 -7 -10 -11 -13)
1969/12/31/18:00:09.840000,(12 9 -5 -21 -10 -2 4 9)
1969/12/31/18:00:09.840000,(-3 1 4 8 0 1 3 1)
1969/12/31/18:00:09.861000,(3 -12 -1 -8 -9 -4 -3 2)
1969/12/31/18:00:09.861000,(-1 19 5 13 13 -2 -4 -8)
1969/12/31/18:00:09.875000,(11 28 5 0 2 7 9 11)
1969/12/31/18:00:09.875000,(-13 -15 -4 7 4 -2 -5 -12)
1969/12/31/18:00:09.876000,(11 12 5 2 1 5 9 11)
1969/12/31/18:00:09.876000,(-10 -14 -8 -12 -11 -12 -16 -18)
1969/12/31/18:00:09.884000,(-4 -10 -4 -12 -19 -14 -8 -4)
1969/12/31/18:00:09.884000,(-5 -3 -3 4 2 -9 -12 -11)
1969/12/31/18:00:09.899000,(18 32 9 4 6 17 18 20)
1969/12/31/18:00:09.899000,(32 47 5 4 18 17 15 14)
1969/12/31/18:00:09.900000,(2 -1 -1 0 6 -1 -3 2)
1969/12/31/18:00:09.900000,(-11 -33 -13 -3 -11 -13 -13 -13)
1969/12/31/18:00:09.921000,(-40 -16 -8 0 -12 -10 -18 -33)
1969/12/31/18:00:09.921000,(-8 -12 9 6 14 22 26 24)
1969/12/31/18:00:09.923000,(-33 -27 -11 -10 -2 -13 -20 -28)
1969/12/31/18:00:09.923000,(-5 16 -3 -1 0 -4 -2 -3)
1969/12/31/18:00:09.935000,(-23 -20 -4 2 -5 -7 -11 -16)
1969/12/31/18:00:09.935000,(-19 -27 -7 -4 -9 -6 0 -1)
1969/12/31/18:00:09.944000,(5 -7 -3 -6 -2 3 3 0)
1969/12/31/18:00:09.944000,(-15 -3 -1 -1 -11 -7 -4 -10)
1969/12/31/18:00:09.958000,(24 17 3 3 17 3 6 18)
1969/12/31/18:00:09.958000,(-6 -3 0 -2 -7 -7 -13 -11)
1969/12/31/18:00:09.965000,(-3 -18 0 3 7 9 10 9)
1969/12/31/18:00:09.965000,(10 5 2 2 -2 3 2 3)
1969/12/31/18:00:09.981000,(17 10 4 -12 -19 -9 7 15)
1969/12/31/18:00:09.981000,(2 -9 -9 -10 -23 -10 -11 -5)
1969/12/31/18:00:09.983000,(15 16 3 4 11 2 -2 4)
1969/12/31/18:00:09.983000,(-17 -8 14 34 50 31 21 5)
1969/12/31/18:00:09.995000,(12 -9 -4 3 2 0 2 2)
1969/12/31/18:00:09.995000,(-10 -18 3 1 -3 -14 -25 -14)
1969/12/31/18:00:10.003000,(-29 -20 -4 -12 -24 -18 -16 -24)
1969/12/31/18:00:10.003000,(57 27 -1 -6 -4 10 19 30)
1969/12/31/18:00:10.018000,(-10 -17 -6 -6 -5 0 0 0)
1969/12/31/18:00:10.018000,(10 9 0 -5 -3 -2 5 6)
1969/12/31/18:00:10.025000,(-13 -15 1 1 -2 -1 -6 -5)
1969/12/31/18:00:10.025000,(-1 -3 -1 -6 -9 -12 -11 -6)
1969/12/31/18:00:10.041000,(5 11 0 -4 -7 -3 0 4)
1969/12/31/18:00:10.041000,(0 -1 -5 -12 -2 5 6 5)
1969/12/31/18:00:10.043000,(27 31 10 11 12 14 12 16)
1969/12/31/18:00:10.043000,(-21 -17 1 17 20 -2 -9 -12)
1969/12/31/18:00:10.055000,(32 61 17 22 8 12 17 22)
1969/12/31/18:00:10.055000,(-15 -4 -5 -12 -25 -19 -12 -16)
1969/12/31/18:00:10.063000,(-8 -20 -18 -59 -24 -15 -7 -4)
1969/12/31/18:00:10.063000,(1 2 -1 13 -2 0 1 3)
1969/12/31/18:00:10.078000,(-7 -11 4 22 32 10 -4 -5)
1969/12/31/18:00:10.078000,(-19 -14 6 34 34 14 2 -2)
1969/12/31/18:00:10.086000,(69 66 22 16 15 16 17 29)
1969/12/31/18:00:10.086000,(-22 -19 -10 -26 -28 -15 -18 -22)
1969/12/31/18:00:10.100000,(-9 -7 -8 -19 -20 -11 -4 -5)
1969/12/31/18:00:10.100000,(-2 -5 -8 -10 -7 -5 -1 -4)
1969/12/31/18:00:10.101000,(-6 -7 3 5 -3 -5 -4 -4)
1969/12/31/18:00:10.101000,(-16 -21 1 -5 -4 4 5 -5)
1969/12/31/18:00:10.123000,(-5 -13 -3 3 1 2 1 2)
1969/12/31/18:00:10.123000,(-13 -5 -5 -8 1 1 -2 -6)
1969/12/31/18:00:10.124000,(2 1 1 11 4 3 3 6)
1969/12/31/18:00:10.124000,(-4 -14 -1 5 1 -2 -9 -12)
1969/12/31/18:00:10.137000,(-18 -6 8 5 13 14 15 8)
1969/12/31/18:00:10.137000,(35 56 4 -2 -4 1 7 7)
1969/12/31/18:00:10.153000,(-15 -12 -5 4 7 4 4 -2)
1969/12/31/18:00:10.153000,(4 13 -1 -7 -6 -5 -5 0)
1969/12/31/18:00:10.160000,(-2 -7 -10 -33 -16 -16 -14 -11)
1969/12/31/18:00:10.160000,(-5 -9 -1 8 -13 0 0 2)
1969/12/31/18:00:10.161000,(-15 -13 3 26 27 9 0 -5)
1969/12/31/18:00:10.161000,(20 14 15 8 20 20 24 26)
1969/12/31/18:00:10.183000,(36 33 6 5 8 6 8 20)
1969/12/31/18:00:10.183000,(-10 -19 -10 -13 -9 -5 0 -2)
1969/12/31/18:00:10.184000,(-17 -23 -10 -17 -17 -18 -15 -14)
1969/12/31/18:00:10.184000,(24 14 4 0 -4 -3 6 14)
1969/12/31/18:00:10.197000,(-29 -29 -11 -4 -12 -11 -19 -26)
1969/12/31/18:00:10.197000,(-1 -6 -3 -2 3 1 -2 -1)
1969/12/31/18:00:10.205000,(0 -3 -7 -48 -37 -15 -5 -1)
1969/12/31/18:00:10.205000,(2 14 -5 17 5 -2 -3 0)
1969/12/31/18:00:10.220000,(6 -2 10 33 26 14 8 5)
1969/12/31/18:00:10.220000,(4 9 13 27 44 19 3 2)
1969/12/31/18:00:10.221000,(-7 -2 4 23 -4 1 -6 -6)
1969/12/31/18:00:10.221000,(-2 -2 -4 -26 -26 -12 -2 2)
1969/12/31/18:00:10.243000,(6 4 -5 -17 -19 -12 -2 3)
1969/12/31/18:00:10.243000,(-9 -20 -4 5 3 1 1 -1)
1969/12/31/18:00:10.244000,(-1 -17 2 0 4 1 -1 4)
1969/12/31/18:00:10.244000,(16 32 -7 -16 -11 -2 1 3)
1969/12/31/18:00:10.258000,(-30 -46 -13 1 -11 -5 -8 -15)
1969/12/31/18:00:10.258000,(20 35 18 3 15 20 32 20)
1969/12/31/18:00:10.259000,(30 9 -3 3 0 -1 -3 11)
1969/12/31/18:00:10.259000,(6 12 8 9 7 3 -2 -6)
1969/12/31/18:00:10.280000,(-16 -12 5 0 6 2 -4 -9)
1969/12/31/18:00:10.280000,(-9 -10 -7 -10 -10 -7 -6 -4)
1969/12/31/18:00:10.281000,(0 11 2 7 3 2 3 0)
1969/12/31/18:00:10.281000,(-8 -11 0 4 6 5 0 -1)
1969/12/31/18:00:10.303000,(17 20 -1 -9 -8 -2 1 6)
1969/12/31/18:00:10.303000,(2 -5 -2 -3 -2 -6 -5 -3)
1969/12/31/18:00:10.304000,(2 10 2 13 9 3 4 2)
1969/12/31/18:00:10.304000,(-17 -17 -6 -6 0 -1 -6 -9)
1969/12/31/18:00:10.318000,(0 -20 -2 -5 -5 -5 -3 -1)
1969/12/31/18:00:10.318000,(4 -2 -10 -10 -16 -16 -15 -9)
1969/12/31/18:00:10.325000,(9 49 10 0 7 10 12 4)
1969/12/31/18:00:10.325000,(-14 -41 -10 -2 0 -4 -4 -6)
1969/12/31/18:00:10.340000,(-27 -28 -6 0 -6 -10 -19 -22)
1969/12/31/18:00:10.340000,(23 26 3 1 -2 1 1 4)
1969/12/31/18:00:10.341000,(11 7 -1 -4 -1 -5 2 16)
1969/12/31/18:00:10.341000,(-30 -30 -4 -1 -3 -6 -9 -15)
1969/12/31/18:00:10.363000,(89 96 31 13 17 31 52 69)
1969/12/31/18:00:10.363000,(-14 -12 -7 -9 -9 -9 -11 -9)
1969/12/31/18:00:10.364000,(-15 -17 -4 1 -2 -2 0 -5)
1969/12/31/18:00:10.364000,(-6 3 1 3 1 0 1 -4)
1969/12/31/18:00:10.377000,(-12 -14 -8 -3 -1 -8 -16 -14)
1969/12/31/18:00:10.377000,(3 -2 4 -2 2 6 14 19)
1969/12/31/18:00:10.385000,(0 -5 1 2 -1 0 0 1)
1969/12/31/18:00:10.385000,(7 29 4 -2 -2 -2 -3 6)
1969/12/31/18:00:10.400000,(-10 -17 -1 5 5 9 12 5)
1969/12/31/18:00:10.400000,(-41 -68 -2 2 -4 -5 -8 -15)
1969/12/31/18:00:10.401000,(16 21 -2 4 4 6 7 1)
1969/12/31/18:00:10.401000,(-5 11 3 -1 -3 -8 -12 -15)
1969/12/31/18:00:10.431000,(-11 1 -2 -5 -8 -11 -12 -11)
1969/12/31/18:00:10.431000,(4 -6 -6 -7 1 6 4 3)
1969/12/31/18:00:10.432000,(-21 -28 -4 6 5 1 2 -7)
1969/12/31/18:00:10.432000,(10 4 0 0 -1 5 7 11)
1969/12/31/18:00:10.438000,(0 3 -1 5 1 0 -4 -8)
1969/12/31/18:00:10.438000,(-3 1 -5 -34 -12 -20 -11 -5)
1969/12/31/18:00:10.439000,(-3 -4 -3 -37 -46 -16 -8 -3)
1969/12/31/18:00:10.439000,(6 12 -1 30 24 10 6 3)
1969/12/31/18:00:10.460000,(-3 -5 -2 32 39 13 2 -3)
1969/12/31/18:00:10.460000,(5 16 2 10 5 2 -2 -2)
1969/12/31/18:00:10.461000,(-6 -7 6 15 12 7 0 -3)
1969/12/31/18:00:10.461000,(-4 -10 9 -13 -13 0 2 0)
1969/12/31/18:00:10.483000,(-7 0 1 -6 7 -1 -4 -5)
1969/12/31/18:00:10.483000,(2 6 2 7 1 0 1 -1)
1969/12/31/18:00:10.484000,(-7 -8 -17 -46 -26 -12 -10 -7)
1969/12/31/18:00:10.484000,(9 0 -9 0 -16 -22 -5 5)
1969/12/31/18:00:10.498000,(3 0 1 9 -38 -26 -8 -2)
1969/12/31/18:00:10.498000,(-4 3 6 22 43 31 7 0)
1969/12/31/18:00:10.499000,(-7 -13 -21 -7 29 13 1 -2)
1969/12/31/18:00:10.499000,(-6 2 32 13 10 18 3 -4)
1969/12/31/18:00:10.520000,(-8 2 -13 -6 3 5 -1 -4)
1969/12/31/18:00:10.520000,(12 7 -25 -14 -37 -21 -1 10)
1969/12/31/18:00:10.521000,(-17 -20 -11 4 9 -24 -20 -16)
1969/12/31/18:00:10.521000,(1 1 -1 2 -20 -9 -5 -3)
1969/12/31/18:00:10.543000,(4 15 46 2 -8 7 7 1)
1969/12/31/18:00:10.543000,(8 16 15 19 8 10 5 3)
1969/12/31/18:00:10.544000,(5 -3 -16 3 32 10 5 6)
1969/12/31/18:00:10.544000,(0 -7 -12 -13 -6 -11 -4 1)
1969/12/31/18:00:10.558000,(-15 -19 -31 -67 -34 -25 -21 -15)
1969/12/31/18:00:10.558000,(-7 -1 8 27 0 0 1 -3)
1969/12/31/18:00:10.559000,(7 15 24 31 7 -2 2 4)
1969/12/31/18:00:10.559000,(1 1 1 22 23 15 8 3)
1969/12/31/18:00:10.580000,(4 2 11 11 15 16 10 6)
1969/12/31/18:00:10.580000,(-2 -2 -4 -16 -4 -10 -6 -2)
1969/12/31/18:00:10.581000,(2 9 36 -8 -19 5 10 4)
1969/12/31/18:00:10.581000,(6 1 -26 -25 -3 4 6 6)
1969/12/31/18:00:10.603000,(9 -3 -43 -1 1 -7 -2 6)
1969/12/31/18:00:10.603000,(-16 -19 -10 -25 -19 -25 -19 -16)
1969/12/31/18:00:10.604000,(-6 -3 7 29 -2 0 -1 -4)
1969/12/31/18:00:10.604000,(-5 5 35 10 23 13 4 -4)
1969/12/31/18:00:10.618000,(0 3 -9 -5 11 14 6 1)
1969/12/31/18:00:10.618000,(8 -1 -18 -20 -5 -7 -3 5)
1969/12/31/18:00:10.618000,(-6 -5 6 3 -30 -5 -1 -2)
1969/12/31/18:00:10.618000,(4 1 -14 -13 -4 -7 -2 1)
1969/12/31/18:00:10.640000,(3 2 18 18 11 10 4 1)
1969/12/31/18:00:10.640000,(-3 0 -2 -8 3 8 1 0)
1969/12/31/18:00:10.641000,(-1 -10 -24 -6 0 -4 -3 -2)
1969/12/31/18:00:10.641000,(-6 -4 0 -7 -6 -2 -3 -4)
1969/12/31/18:00:10.663000,(2 8 14 25 6 0 1 0)
1969/12/31/18:00:10.663000,(2 4 7 13 13 11 5 3)
1969/12/31/18:00:10.664000,(1 -1 5 -3 -2 6 1 -1)
1969/12/31/18:00:10.664000,(-2 -3 -2 10 -3 0 -2 -1)
1969/12/31/18:00:10.678000,(6 4 0 -9 -3 -4 -2 2)
1969/12/31/18:00:10.678000,(-6 -7 -16 -42 -30 -15 -6 -6)
1969/12/31/18:00:10.678000,(-6 -12 -18 15 -5 -14 -10 -5)
1969/12/31/18:00:10.679000,(0 3 6 -8 19 6 3 0)
1969/12/31/18:00:10.700000,(-2 4 4 -13 1 1 -2 -4)
1969/12/31/18:00:10.700000,(11 10 3 44 14 13 6 5)
1969/12/31/18:00:10.701000,(4 4 -1 -4 3 2 3 5)
1969/12/31/18:00:10.701000,(-3 -4 0 -11 -21 -10 -6 -4)
1969/12/31/18:00:10.723000,(-2 -9 -9 5 -2 -11 -3 -3)
1969/12/31/18:00:10.723000,(-10 -4 5 -2 -9 -3 -5 -7)
1969/12/31/18:00:10.724000,(4 5 3 10 29 18 7 2)
1969/12/31/18:00:10.724000,(6 7 9 -9 -22 0 4 4)
1969/12/31/18:00:10.738000,(2 -4 -14 23 10 -14 -8 -2)
1969/12/31/18:00:10.738000,(-18 -10 2 -34 -13 0 -6 -11)
1969/12/31/18:00:10.739000,(-2 -1 -4 -15 11 12 6 2)
1969/12/31/18:00:10.739000,(-1 -4 -14 -16 -12 -1 1 0)
1969/12/31/18:00:10.769000,(2 0 -6 3 3 1 0 1)
1969/12/31/18:00:10.769000,(6 7 15 21 18 -3 1 3)
1969/12/31/18:00:10.769000,(2 3 -6 -15 -7 -1 1 1)
1969/12/31/18:00:10.769000,(0 -7 -9 13 -6 -7 -4 0)
1969/12/31/18:00:10.783000,(-15 -7 3 -24 -18 -13 -7 -10)
1969/12/31/18:00:10.783000,(2 0 -1 15 -3 10 5 1)
1969/12/31/18:00:10.784000,(6 7 3 9 27 12 3 3)
1969/12/31/18:00:10.784000,(1 0 3 -1 4 -3 -3 1)
1969/12/31/18:00:10.798000,(-8 -4 -5 -29 -25 -7 -6 -6)
1969/12/31/18:00:10.798000,(2 0 2 -4 6 1 2 3)
1969/12/31/18:00:10.799000,(1 1 -1 26 -16 -10 -2 0)
1969/12/31/18:00:10.799000,(0 -2 -8 -1 7 -2 -4 -2)
1969/12/31/18:00:10.820000,(1 2 13 17 17 12 7 3)
1969/12/31/18:00:10.820000,(5 3 2 -2 10 6 1 2)
1969/12/31/18:00:10.821000,(2 2 -5 -20 -11 -1 1 0)
1969/12/31/18:00:10.821000,(-13 -11 -7 13 1 -7 -8 -8)
1969/12/31/18:00:10.843000,(1 2 2 -12 -18 -1 1 0)
1969/12/31/18:00:10.843000,(4 -2 -10 3 24 12 7 2)
1969/12/31/18:00:10.843000,(-6 -5 -1 -2 0 -5 -4 -2)
1969/12/31/18:00:10.843000,(4 4 0 5 3 -2 -1 -1)
1969/12/31/18:00:10.857000,(-8 -9 -7 -16 -18 -6 -4 -7)
1969/12/31/18:00:10.857000,(-2 1 17 30 1 -11 -6 -3)
1969/12/31/18:00:10.865000,(7 10 12 7 2 -1 1 6)
1969/12/31/18:00:10.865000,(4 -2 -18 -33 -15 -4 1 2)
1969/12/31/18:00:10.880000,(0 -3 -11 0 9 2 -1 -3)
1969/12/31/18:00:10.880000,(3 4 -4 -7 1 1 3 4)
1969/12/31/18:00:10.881000,(-8 -9 -1 8 0 -1 -4 -9)
1969/12/31/18:00:10.881000,(2 4 9 2 3 3 2 0)
1969/12/31/18:00:10.903000,(6 7 5 10 4 2 4 7)
1969/12/31/18:00:10.903000,(-8 -9 2 -7 -11 -8 -3 -5)
1969/12/31/18:00:10.904000,(0 4 6 -4 -10 -8 -3 1)
1969/12/31/18:00:10.904000,(-3 -5 -2 -5 0 5 2 0)
1969/12/31/18:00:10.917000,(1 -1 -4 0 11 7 0 0)
1969/12/31/18:00:10.917000,(6 8 8 15 1 -1 3 3)
1969/12/31/18:00:10.925000,(-10 -6 4 2 -12 -7 -8 -9)
1969/12/31/18:00:10.925000,(8 -4 -14 -4 18 9 8 11)
1969/12/31/18:00:10.940000,(2 3 4 -8 -12 -2 -1 0)
1969/12/31/18:00:10.940000,(4 2 -7 -3 3 0 0 3)
1969/12/31/18:00:10.941000,(3 4 -5 -8 -6 1 2 1)
1969/12/31/18:00:10.941000,(-10 -3 7 1 -1 -7 -8 -10)
1969/12/31/18:00:10.963000,(3 -3 -4 3 -1 -2 2 4)
1969/12/31/18:00:10.963000,(2 0 -1 -4 -19 -2 0 1)
1969/12/31/18:00:10.963000,(-5 -3 0 -11 12 0 -1 -4)
1969/12/31/18:00:10.963000,(-4 1 4 8 4 3 -3 -4)
1969/12/31/18:00:10.977000,(0 1 4 17 11 2 0 0)
1969/12/31/18:00:10.977000,(-7 -7 -5 -9 -16 -13 -8 -6)
1969/12/31/18:00:10.985000,(2 5 2 -11 -8 1 4 5)
1969/12/31/18:00:10.985000,(5 7 6 5 2 6 6 5)
1969/12/31/18:00:11.000000,(4 0 -4 15 21 13 6 4)
1969/12/31/18:00:11.000000,(-3 -4 -1 0 4 -1 -3 -2)
1969/12/31/18:00:11.001000,(-1 -2 -7 -7 -15 -12 -9 -4)
1969/12/31/18:00:11.001000,(1 2 -5 -20 -11 -6 2 3)
1969/12/31/18:00:11.023000,(-4 0 5 11 4 7 4 1)
1969/12/31/18:00:11.023000,(0 -1 -2 2 4 3 0 0)
1969/12/31/18:00:11.024000,(-1 -5 -1 0 4 1 -2 -1)
1969/12/31/18:00:11.024000,(2 2 -3 1 -5 -4 -2 -2)
1969/12/31/18:00:11.037000,(-4 -3 1 -7 -5 -7 -6 -3)
1969/12/31/18:00:11.037000,(-4 -8 -7 -8 -5 -1 -1 1)
1969/12/31/18:00:11.045000,(10 10 -2 3 4 4 3 4)
1969/12/31/18:00:11.046000,(0 -2 1 0 -1 -4 -4 -2)
1969/12/31/18:00:11.060000,(-3 -1 -2 -5 -3 2 4 4)
1969/12/31/18:00:11.060000,(2 4 3 2 2 -2 -5 -5)
1969/12/31/18:00:11.061000,(-18 -11 -3 8 4 -1 -9 -16)
1969/12/31/18:00:11.061000,(-1 -1 -3 1 2 2 2 2)
1969/12/31/18:00:11.084000,(7 6 4 -6 -7 -5 1 2)
1969/12/31/18:00:11.084000,(1 1 -1 -7 -7 -4 2 5)
1969/12/31/18:00:11.085000,(1 1 0 -1 2 2 2 3)
1969/12/31/18:00:11.085000,(-1 -2 2 3 -8 -4 -2 0)
1969/12/31/18:00:11.097000,(-4 -5 -2 -3 -1 1 -3 -4)
1969/12/31/18:00:11.097000,(2 2 0 2 28 8 3 0)
1969/12/31/18:00:11.105000,(3 0 1 -3 -7 -4 2 4)
1969/12/31/18:00:11.105000,(-1 0 1 2 -2 3 0 -2)
1969/12/31/18:00:11.120000,(-7 -5 1 3 -4 -8 -8 -10)
1969/12/31/18:00:11.120000,(3 2 1 1 -6 0 3 2)
1969/12/31/18:00:11.121000,(3 -1 -2 3 5 2 0 2)
1969/12/31/18:00:11.121000,(1 -2 -3 -4 -1 -3 1 5)
1969/12/31/18:00:11.144000,(-2 -3 -6 -3 -2 1 -3 -4)
1969/12/31/18:00:11.144000,(-9 -4 -1 -2 -7 -2 -1 -6)
1969/12/31/18:00:11.145000,(1 -1 -4 -2 1 0 0 0)
1969/12/31/18:00:11.145000,(1 1 -1 0 0 -2 -2 -2)
1969/12/31/18:00:11.159000,(0 3 1 -1 0 -1 -1 0)
1969/12/31/18:00:11.159000,(0 -1 -2 -3 -4 1 4 2)
1969/12/31/18:00:11.165000,(0 -4 2 4 0 3 5 4)
1969/12/31/18:00:11.165000,(-2 -1 2 5 10 1 -1 -3)
1969/12/31/18:00:11.180000,(-4 -4 -2 -10 -8 -6 -2 -3)
1969/12/31/18:00:11.180000,(1 1 0 0 -4 -4 -4 -1)
1969/12/31/18:00:11.181000,(1 1 1 -3 -2 1 2 3)
1969/12/31/18:00:11.181000,(-3 1 -1 3 4 3 -2 -4)
1969/12/31/18:00:11.203000,(0 -2 0 1 1 1 1 0)
1969/12/31/18:00:11.203000,(0 1 -1 0 -3 -1 -4 -2)
1969/12/31/18:00:11.204000,(1 -1 -1 3 3 -2 -1 2)
1969/12/31/18:00:11.204000,(-6 -7 4 0 3 1 -3 -4)
1969/12/31/18:00:11.226000,(4 4 -4 -5 -7 -3 1 4)
1969/12/31/18:00:11.226000,(1 0 0 -3 -4 -1 0 -2)
1969/12/31/18:00:11.227000,(0 0 -1 1 1 0 -1 -2)
1969/12/31/18:00:11.227000,(0 0 -2 -1 -3 -5 -1 0)
1969/12/31/18:00:11.240000,(-3 -6 -2 -1 3 2 1 1)
1969/12/31/18:00:11.240000,(0 -1 -1 1 0 0 1 0)
1969/12/31/18:00:11.241000,(1 0 -2 -1 0 0 -1 0)
1969/12/31/18:00:11.241000,(-1 -1 -2 -1 -3 -2 1 0)
1969/12/31/18:00:11.263000,(0 0 1 0 -1 -1 -3 -1)
1969/12/31/18:00:11.263000,(0 0 0 -1 0 1 1 1)
1969/12/31/18:00:11.264000,(-1 -1 0 0 -1 1 0 1)
1969/12/31/18:00:11.264000,(0 1 0 -1 2 2 0 -3)
1969/12/31/18:00:11.286000,(0 0 0 2 0 1 1 1)
1969/12/31/18:00:11.286000,(1 -1 0 0 -1 0 0 -1)
1969/12/31/18:00:11.287000,(0 0 -3 -4 -2 0 2 1)
1969/12/31/18:00:11.287000,(-1 0 0 2 2 0 -1 -2)
1969/12/31/18:00:11.300000,(0 0 1 0 0 -3 0 0)
1969/12/31/18:00:11.300000,(-3 -2 -1 -1 -2 -2 -2 -1)
1969/12/31/18:00:11.301000,(0 2 0 1 2 -1 -1 0)
1969/12/31/18:00:11.301000,(4 2 -2 -2 -1 1 3 3)
1969/12/31/18:00:11.323000,(3 0 -1 -2 -3 -1 4 3)
1969/12/31/18:00:11.323000,(-2 0 1 0 0 -1 -3 -3)
1969/12/31/18:00:11.324000,(0 0 0 2 0 2 -2 -2)
1969/12/31/18:00:11.324000,(1 0 -3 -2 0 2 3 2)
1969/12/31/18:00:11.346000,(-3 -1 -1 -2 -1 -3 -3 -3)
1969/12/31/18:00:11.346000,(-1 -2 -3 -2 -2 0 -1 0)
1969/12/31/18:00:11.347000,(-2 -1 1 1 1 -3 -3 -4)
1969/12/31/18:00:11.347000,(1 0 -2 -2 -4 0 4 2)
1969/12/31/18:00:11.360000,(0 0 -1 1 0 -1 1 1)
1969/12/31/18:00:11.360000,(1 3 1 0 1 2 1 1)
1969/12/31/18:00:11.361000,(-2 -1 1 -4 -2 -3 -1 -3)
1969/12/31/18:00:11.361000,(-3 -1 1 1 1 -1 -3 -2)
1969/12/31/18:00:11.384000,(0 -1 -1 -3 -1 -2 -1 0)
1969/12/31/18:00:11.384000,(-1 -2 -2 -3 -3 -2 -2 -3)
1969/12/31/18:00:11.384000,(2 0 2 2 1 1 3 4)
1969/12/31/18:00:11.384000,(-2 0 1 1 1 -2 -1 -2)
1969/12/31/18:00:11.406000,(-1 1 0 0 -1 1 -3 -3)
1969/12/31/18:00:11.406000,(-2 -1 -1 -1 0 -1 0 -2)
1969/12/31/18:00:11.407000,(-1 -1 -2 -3 -4 -1 3 -2)
1969/12/31/18:00:11.407000,(0 0 0 1 -1 -1 -3 -2)
1969/12/31/18:00:11.420000,(0 1 0 1 -1 1 3 3)
1969/12/31/18:00:11.420000,(-1 -1 0 0 0 1 -3 1)
1969/12/31/18:00:11.421000,(-1 -1 -1 0 1 -1 -3 -1)
1969/12/31/18:00:11.421000,(3 3 0 -1 -1 0 5 4)
1969/12/31/18:00:11.444000,(0 -1 0 0 0 0 -2 -3)
1969/12/31/18:00:11.444000,(0 -1 -2 1 0 -1 1 -1)
1969/12/31/18:00:11.444000,(-2 0 0 0 -1 0 -1 -1)
1969/12/31/18:00:11.444000,(0 -3 -1 -2 0 0 -2 0)
1969/12/31/18:00:11.466000,(-1 -1 0 -3 -3 -1 -2 0)
1969/12/31/18:00:11.466000,(-1 0 0 1 0 -2 -3 -2)
1969/12/31/18:00:11.467000,(1 1 0 0 0 2 3 2)
1969/12/31/18:00:11.467000,(0 -2 -1 0 1 -1 0 -2)
1969/12/31/18:00:11.480000,(-1 -2 -1 0 0 -1 -2 -2)
1969/12/31/18:00:11.480000,(1 0 0 -1 -1 -2 0 2)
1969/12/31/18:00:11.481000,(-4 -3 -2 -1 0 -1 -2 -2)
1969/12/31/18:00:11.481000,(1 1 -1 -2 -3 -1 1 2)
1969/12/31/18:00:11.504000,(-1 2 1 -1 0 0 -3 -3)
1969/12/31/18:00:11.504000,(0 -1 -1 -1 -1 -1 0 -1)
1969/12/31/18:00:11.504000,(-2 -3 1 1 2 -2 -6 -6)
1969/12/31/18:00:11.504000,(1 0 -1 0 0 1 2 1)
1969/12/31/18:00:11.533000,(0 0 -3 -1 1 -1 -1 -2)
1969/12/31/18:00:11.534000,(-2 -2 0 1 0 0 -3 -2)
1969/12/31/18:00:11.535000,(0 0 -2 -1 0 0 2 3)
1969/12/31/18:00:11.535000,(-2 -2 -3 0 -2 -1 -3 -4)
1969/12/31/18:00:11.540000,(0 -1 -2 0 -3 1 3 3)
1969/12/31/18:00:11.540000,(0 -2 -2 -1 -2 1 3 -2)
1969/12/31/18:00:11.548000,(2 1 1 2 1 -2 0 2)
1969/12/31/18:00:11.548000,(-4 -3 0 -1 -2 -4 -3 -2)
1969/12/31/18:00:11.563000,(-3 1 -1 3 1 0 0 -2)
1969/12/31/18:00:11.563000,(0 -1 -1 -1 0 1 -1 1)
1969/12/31/18:00:11.565000,(0 -3 -5 -3 -2 0 -2 -1)
1969/12/31/18:00:11.565000,(0 3 3 1 0 1 -2 -1)
1969/12/31/18:00:11.565000,(-3 1 3 1 -6 1 -2 -2)
1969/12/31/18:00:11.565000,(-3 -4 14 32 16 5 -1 -3)
1969/12/31/18:00:11.566000,(-2 -1 -12 -4 -1 -2 1 -1)
1969/12/31/18:00:11.566000,(2 -2 -21 -69 -19 -3 1 1)
1969/12/31/18:00:11.578000,(0 3 16 32 13 4 -2 -2)
1969/12/31/18:00:11.578000,(-2 1 21 55 23 7 0 0)
1969/12/31/18:00:11.587000,(-1 -3 -12 -17 0 -1 -1 1)
1969/12/31/18:00:11.587000,(1 0 -7 -23 -11 -2 0 1)
1969/12/31/18:00:11.603000,(-1 -1 0 7 0 1 0 1)
1969/12/31/18:00:11.603000,(-6 -3 3 15 12 2 0 -4)
1969/12/31/18:00:11.608000,(2 -1 -7 -16 -14 -7 -1 2)
1969/12/31/18:00:11.608000,(1 1 -3 -12 -5 -3 -1 0)
1969/12/31/18:00:11.625000,(0 1 5 15 5 1 0 -3)
1969/12/31/18:00:11.625000,(2 2 4 3 5 1 0 0)
1969/12/31/18:00:11.626000,(1 -3 -7 -6 -5 -5 -2 0)
1969/12/31/18:00:11.626000,(-7 -4 2 6 2 3 3 -2)
1969/12/31/18:00:11.638000,(0 -1 2 5 3 -1 -2 -2)
1969/12/31/18:00:11.638000,(0 2 -1 3 -3 -1 -3 -3)
1969/12/31/18:00:11.654000,(0 -1 -2 -9 -4 -1 -2 0)
1969/12/31/18:00:11.654000,(-1 1 1 0 3 1 1 -4)
1969/12/31/18:00:11.661000,(-6 -9 -6 4 0 -3 -5 -2)
1969/12/31/18:00:11.661000,(0 -1 0 -6 -2 0 3 5)
1969/12/31/18:00:11.668000,(-3 1 -1 0 0 3 -1 -3)
1969/12/31/18:00:11.668000,(3 1 -4 -2 -6 -2 -1 2)
1969/12/31/18:00:11.686000,(0 1 -3 -2 2 1 1 2)
1969/12/31/18:00:11.686000,(3 -1 1 -4 -2 1 3 4)
1969/12/31/18:00:11.687000,(-3 0 7 21 6 -2 -3 -2)
1969/12/31/18:00:11.687000,(11 7 -3 -6 -8 -4 0 4)
1969/12/31/18:00:11.698000,(6 -2 -1 1 0 0 2 7)
1969/12/31/18:00:11.698000,(2 2 6 10 13 5 3 -4)
1969/12/31/18:00:11.707000,(-21 -16 -7 -15 -4 -7 -12 -15)
1969/12/31/18:00:11.707000,(15 9 -1 -3 -3 -3 -4 3)
1969/12/31/18:00:11.721000,(-14 -10 -1 7 -1 -1 -2 -6)
1969/12/31/18:00:11.721000,(-2 -3 -2 -7 -7 -6 -3 -2)
1969/12/31/18:00:11.728000,(-7 3 4 5 5 5 2 -6)
1969/12/31/18:00:11.728000,(2 -8 -4 -2 -2 -1 2 4)
1969/12/31/18:00:11.745000,(1 10 2 3 8 3 0 -6)
1969/12/31/18:00:11.745000,(-18 -17 -3 4 -5 -3 -1 -1)
1969/12/31/18:00:11.746000,(22 5 -7 -5 -3 -1 -3 5)
1969/12/31/18:00:11.746000,(3 6 -7 -18 -9 -6 3 7)
1969/12/31/18:00:11.758000,(-7 -7 -11 -59 -32 -7 -5 -8)
1969/12/31/18:00:11.758000,(4 4 21 93 44 8 2 2)
1969/12/31/18:00:11.767000,(5 3 5 -4 5 3 2 -2)
1969/12/31/18:00:11.767000,(-13 -3 7 30 12 7 -1 -8)
1969/12/31/18:00:11.781000,(-5 -6 1 11 2 -4 -7 -6)
1969/12/31/18:00:11.781000,(-3 5 -10 -37 -21 -3 1 -2)
1969/12/31/18:00:11.788000,(15 4 -6 -14 -6 0 5 17)
1969/12/31/18:00:11.788000,(-1 -4 -4 -5 -3 -3 -2 3)
1969/12/31/18:00:11.805000,(7 20 5 0 4 1 -4 -4)
1969/12/31/18:00:11.805000,(-12 -9 -2 -7 -6 -4 1 -7)
1969/12/31/18:00:11.806000,(12 12 1 -3 -4 0 1 2)
1969/12/31/18:00:11.806000,(-2 -14 -10 -18 -9 -4 -8 -9)
1969/12/31/18:00:11.827000,(-22 1 5 17 7 0 -1 -7)
1969/12/31/18:00:11.827000,(23 -2 -4 -11 -3 2 7 25)
1969/12/31/18:00:11.828000,(-13 5 -3 -3 -3 -1 -2 -13)
1969/12/31/18:00:11.828000,(-13 -22 -37 -111 -63 -13 -6 -5)
1969/12/31/18:00:11.841000,(24 9 7 84 27 0 9 19)
1969/12/31/18:00:11.841000,(-11 10 51 94 59 15 -4 -13)
1969/12/31/18:00:11.850000,(0 4 21 35 42 17 10 8)
1969/12/31/18:00:11.850000,(1 5 9 1 17 2 -1 -1)
1969/12/31/18:00:11.865000,(-1 -9 -25 -87 -46 -6 2 -1)
1969/12/31/18:00:11.865000,(-10 -14 -31 -81 -43 -20 -12 -9)
1969/12/31/18:00:11.866000,(-7 -9 3 28 2 -3 -3 -8)
1969/12/31/18:00:11.866000,(-9 3 5 26 18 12 12 10)
1969/12/31/18:00:11.887000,(30 8 0 -16 -3 1 0 3)
1969/12/31/18:00:11.887000,(1 7 -4 -6 -9 -8 -4 4)
1969/12/31/18:00:11.889000,(-1 -21 -15 -31 -13 3 6 -4)
1969/12/31/18:00:11.889000,(-5 10 23 27 17 8 11 16)
1969/12/31/18:00:11.901000,(-11 -9 -4 8 3 -4 -12 -22)
1969/12/31/18:00:11.901000,(29 21 7 2 8 9 11 19)
1969/12/31/18:00:11.910000,(-7 -5 -15 -24 -18 -11 -13 -8)
1969/12/31/18:00:11.910000,(-4 -4 -8 -37 -15 -3 1 -5)
1969/12/31/18:00:11.924000,(-1 3 17 48 21 11 11 12)
1969/12/31/18:00:11.924000,(-6 0 3 4 6 4 -1 -5)
1969/12/31/18:00:11.926000,(0 3 3 12 3 -3 -1 1)
1969/12/31/18:00:11.926000,(0 -4 -1 -12 6 -3 -5 -11)
1969/12/31/18:00:11.947000,(3 1 -3 -4 -16 -5 1 7)
1969/12/31/18:00:11.947000,(-6 -8 -8 8 0 2 2 -3)
1969/12/31/18:00:11.948000,(17 15 7 13 9 6 8 11)
1969/12/31/18:00:11.948000,(-2 0 4 26 5 -14 -20 -2)
1969/12/31/18:00:11.961000,(-30 -4 -1 -16 -1 -10 -26 -38)
1969/12/31/18:00:11.961000,(-15 -24 -13 -25 -19 0 8 6)
1969/12/31/18:00:11.970000,(-1 -1 -6 -3 -6 -6 -7 1)
1969/12/31/18:00:11.970000,(-3 -7 -7 -1 -9 -8 -8 -9)
1969/12/31/18:00:11.985000,(11 -2 -7 -28 -11 -1 3 8)
1969/12/31/18:00:11.985000,(5 -1 -28 -88 -20 -5 0 0)
1969/12/31/18:00:11.986000,(-14 -7 13 47 14 -2 -2 -4)
1969/12/31/18:00:11.986000,(-3 5 22 65 15 8 2 -5)
1969/12/31/18:00:12.007000,(0 -3 16 36 27 6 5 7)
1969/12/31/18:00:12.007000,(-3 2 -5 -10 -5 -4 -9 -12)
1969/12/31/18:00:12.008000,(-3 -6 -19 -75 -31 -11 -1 0)
1969/12/31/18:00:12.009000,(15 5 -27 -78 -72 -19 -3 4)
1969/12/31/18:00:12.021000,(2 3 12 86 20 3 5 5)
1969/12/31/18:00:12.021000,(7 10 26 78 88 25 7 5)
1969/12/31/18:00:12.030000,(-5 5 20 43 48 28 8 1)
1969/12/31/18:00:12.030000,(-2 -4 10 29 25 14 5 2)
1969/12/31/18:00:12.044000,(-10 -10 -24 -80 -42 -12 -3 -9)
1969/12/31/18:00:12.044000,(20 1 -4 -28 -43 -13 4 16)
1969/12/31/18:00:12.046000,(33 29 -7 -12 -21 -19 -11 6)
1969/12/31/18:00:12.046000,(-27 -14 -8 -2 5 -7 -12 -20)
1969/12/31/18:00:12.067000,(10 7 -6 -22 -10 -6 -9 -4)
1969/12/31/18:00:12.067000,(-6 -6 -6 -2 -9 -7 -6 -4)
1969/12/31/18:00:12.069000,(6 0 -1 -16 -6 7 8 6)
1969/12/31/18:00:12.069000,(8 7 6 24 15 3 4 6)
1969/12/31/18:00:12.081000,(-6 -6 7 22 20 6 6 8)
1969/12/31/18:00:12.081000,(-9 2 6 16 -3 -4 -8 -12)
1969/12/31/18:00:12.090000,(-13 -13 -4 -19 -13 -4 -3 -6)
1969/12/31/18:00:12.090000,(1 2 -4 -1 3 1 2 -3)
1969/12/31/18:00:12.105000,(-2 -5 1 1 2 4 5 4)
1969/12/31/18:00:12.105000,(4 5 -6 -35 -19 -4 -4 -3)
1969/12/31/18:00:12.106000,(-9 -9 -10 10 3 -3 -4 -4)
1969/12/31/18:00:12.106000,(27 23 11 33 12 4 6 16)
1969/12/31/18:00:12.127000,(-32 -20 3 14 14 -3 -15 -24)
1969/12/31/18:00:12.127000,(-33 -15 -11 -10 -16 -13 -18 -28)
1969/12/31/18:00:12.129000,(40 30 12 -9 2 15 28 42)
1969/12/31/18:00:12.129000,(-16 -4 -7 -5 -2 -14 -35 -35)
1969/12/31/18:00:12.141000,(5 1 -4 -11 -5 1 13 8)
1969/12/31/18:00:12.141000,(-19 -23 -9 -3 -4 7 23 14)
1969/12/31/18:00:12.150000,(10 3 1 -1 -1 5 10 11)
1969/12/31/18:00:12.150000,(4 1 7 7 10 6 6 7)
1969/12/31/18:00:12.165000,(6 4 0 -13 -8 -2 -5 1)
1969/12/31/18:00:12.165000,(7 8 6 11 0 -2 -7 -7)
1969/12/31/18:00:12.166000,(-16 -5 -2 0 -2 -6 -6 -12)
1969/12/31/18:00:12.166000,(-1 -1 2 -2 3 0 1 0)
1969/12/31/18:00:12.187000,(5 4 -1 -4 -2 2 7 9)
1969/12/31/18:00:12.187000,(11 12 3 10 4 7 8 11)
1969/12/31/18:00:12.189000,(-11 -10 -2 5 -12 -6 -9 -8)
1969/12/31/18:00:12.189000,(-7 -7 -6 -16 5 2 3 -5)
1969/12/31/18:00:12.201000,(-9 -8 -1 9 6 1 -3 -4)
1969/12/31/18:00:12.201000,(22 22 11 24 11 4 8 15)
1969/12/31/18:00:12.210000,(-9 -4 0 3 5 -9 -21 -19)
1969/12/31/18:00:12.210000,(-3 0 2 -6 -7 1 9 3)
1969/12/31/18:00:12.225000,(-12 -17 -2 5 5 8 11 6)
1969/12/31/18:00:12.225000,(3 9 -2 -15 -5 2 -1 -4)
1969/12/31/18:00:12.226000,(20 9 1 1 2 -1 2 8)
1969/12/31/18:00:12.226000,(-14 -7 -2 -2 4 -1 -1 -7)
1969/12/31/18:00:12.247000,(6 3 -1 -9 -6 -2 4 6)
1969/12/31/18:00:12.247000,(21 20 -2 -3 0 1 2 14)
1969/12/31/18:00:12.249000,(-13 -13 -5 -7 -6 -4 -5 -9)
1969/12/31/18:00:12.249000,(11 7 2 3 -1 2 6 11)
1969/12/31/18:00:12.261000,(3 3 -7 -26 -16 -3 -4 -2)
1969/12/31/18:00:12.261000,(-5 -5 1 9 1 -5 -5 -3)
1969/12/31/18:00:12.270000,(-9 -4 5 6 -2 1 -1 -4)
1969/12/31/18:00:12.270000,(3 1 8 27 19 12 4 7)
1969/12/31/18:00:12.285000,(-4 -3 4 -5 19 4 0 -4)
1969/12/31/18:00:12.285000,(-5 -13 2 11 -7 0 0 -2)
1969/12/31/18:00:12.286000,(-24 -16 -6 -6 -3 -3 -7 -19)
1969/12/31/18:00:12.286000,(1 -3 -5 -10 -8 0 9 11)
1969/12/31/18:00:12.308000,(3 5 0 -5 -1 -2 -1 7)
1969/12/31/18:00:12.308000,(-8 -14 -11 -35 -16 -7 -8 -9)
1969/12/31/18:00:12.309000,(-2 -3 -9 -6 -12 -8 -4 -6)
1969/12/31/18:00:12.309000,(22 26 13 51 12 8 16 24)
1969/12/31/18:00:12.321000,(15 -6 8 21 20 11 8 13)
1969/12/31/18:00:12.321000,(-10 -4 -2 7 1 -3 -7 -11)
1969/12/31/18:00:12.330000,(-16 -10 -3 -8 -9 0 -1 -6)
1969/12/31/18:00:12.330000,(-13 -16 -11 -36 -5 -5 -5 -7)
1969/12/31/18:00:12.344000,(14 16 -4 1 -3 -2 -1 3)
1969/12/31/18:00:12.344000,(-10 -7 4 16 -2 -7 -7 -10)
1969/12/31/18:00:12.351000,(32 16 1 -8 -5 -2 6 18)
1969/12/31/18:00:12.351000,(-28 -17 2 8 10 0 -10 -21)
1969/12/31/18:00:12.367000,(7 10 -2 -19 -10 -3 -2 0)
1969/12/31/18:00:12.367000,(-7 -8 -3 -2 -8 -1 -1 -6)
1969/12/31/18:00:12.369000,(-6 -5 -1 7 -2 -8 -8 -3)
1969/12/31/18:00:12.369000,(-2 -1 9 13 13 7 1 -6)
1969/12/31/18:00:12.381000,(-2 9 1 2 -2 -2 -9 -11)
1969/12/31/18:00:12.381000,(3 4 -2 -11 3 2 2 4)
1969/12/31/18:00:12.390000,(-9 -12 -3 -3 -2 1 3 0)
1969/12/31/18:00:12.390000,(0 -5 -8 -41 -31 -11 -9 -6)
1969/12/31/18:00:12.405000,(-2 -1 -1 19 12 0 2 2)
1969/12/31/18:00:12.405000,(5 1 5 13 8 4 4 7)
1969/12/31/18:00:12.406000,(-3 -2 -2 12 12 8 6 1)
1969/12/31/18:00:12.406000,(0 -2 -5 -15 -4 -3 -2 1)
1969/12/31/18:00:12.427000,(-2 -1 -6 -13 -22 -13 -8 -8)
1969/12/31/18:00:12.427000,(2 2 -5 -27 1 3 3 3)
1969/12/31/18:00:12.429000,(-1 4 8 15 6 7 8 5)
1969/12/31/18:00:12.429000,(-3 -4 10 37 15 13 19 6)
1969/12/31/18:00:12.441000,(17 19 13 26 15 1 -6 9)
1969/12/31/18:00:12.441000,(3 -2 -5 2 0 -1 0 2)
1969/12/31/18:00:12.450000,(0 -3 -11 -54 -21 -7 -3 -3)
1969/12/31/18:00:12.450000,(-2 -8 -17 -25 -16 -6 -2 -1)
1969/12/31/18:00:12.464000,(11 7 5 21 13 5 12 14)
1969/12/31/18:00:12.464000,(-20 -13 7 11 0 0 -5 -15)
1969/12/31/18:00:12.471000,(-2 1 1 5 8 1 1 1)
1969/12/31/18:00:12.471000,(19 13 -2 6 -1 0 -2 5)
1969/12/31/18:00:12.487000,(-6 2 -1 -25 -3 11 18 20)
1969/12/31/18:00:12.487000,(13 7 -4 5 9 -1 -3 1)
1969/12/31/18:00:12.489000,(-13 -13 -6 4 -4 -8 -9 -13)
1969/12/31/18:00:12.489000,(18 20 4 -7 -4 -5 -4 6)
1969/12/31/18:00:12.501000,(-38 -27 -1 -7 -9 -8 -16 -31)
1969/12/31/18:00:12.501000,(6 6 -3 -8 -6 3 6 4)
1969/12/31/18:00:12.510000,(2 3 -3 -10 2 2 4 4)
1969/12/31/18:00:12.510000,(-14 -20 -12 -23 -10 -15 -12 -13)
1969/12/31/18:00:12.524000,(10 4 6 29 1 1 2 10)
1969/12/31/18:00:12.524000,(24 18 20 44 18 6 0 6)
1969/12/31/18:00:12.531000,(-18 -24 5 24 7 -2 -5 -11)
1969/12/31/18:00:12.531000,(-11 -3 -2 -9 5 4 -5 -11)
1969/12/31/18:00:12.547000,(-12 -15 -20 -46 -26 -6 -3 -9)
1969/12/31/18:00:12.547000,(1 10 -8 -15 -6 -7 -3 -1)
1969/12/31/18:00:12.549000,(7 0 3 20 11 1 3 11)
1969/12/31/18:00:12.549000,(-8 -17 17 21 13 10 14 17)
1969/12/31/18:00:12.561000,(35 31 -3 -7 -2 -4 -10 7)
1969/12/31/18:00:12.561000,(-27 -43 -6 -7 -4 -6 -9 -8)
1969/12/31/18:00:12.570000,(14 31 -2 -15 -9 -1 0 0)
1969/12/31/18:00:12.570000,(-3 -2 -8 -4 -7 0 4 0)
1969/12/31/18:00:12.584000,(-22 -1 2 5 -2 1 2 -11)
1969/12/31/18:00:12.584000,(25 6 1 3 2 5 12 19)
1969/12/31/18:00:12.591000,(-9 -9 -1 3 3 -2 -8 -11)
1969/12/31/18:00:12.591000,(8 8 -1 -8 -12 -3 0 -2)
1969/12/31/18:00:12.607000,(-23 -22 -5 -14 -1 -2 -4 -17)
1969/12/31/18:00:12.607000,(-3 11 -2 3 1 -7 -9 -7)
1969/12/31/18:00:12.609000,(1 6 11 40 10 -1 -3 -2)
1969/12/31/18:00:12.609000,(-21 -31 -5 13 13 2 -3 -4)
1969/12/31/18:00:12.621000,(25 7 11 -11 7 20 30 38)
1969/12/31/18:00:12.621000,(-13 -14 -12 -24 -11 -5 -3 -7)
1969/12/31/18:00:12.630000,(48 58 5 -6 -9 -2 9 28)
1969/12/31/18:00:12.630000,(-18 -12 -5 -6 -1 -5 -9 -11)
1969/12/31/18:00:12.644000,(-6 -14 -10 -8 -9 -9 -14 -11)
1969/12/31/18:00:12.644000,(-12 -5 -14 -44 -22 -9 -12 -19)
1969/12/31/18:00:12.651000,(-19 -22 -14 -13 -23 -7 -6 -11)
1969/12/31/18:00:12.651000,(34 28 16 56 48 10 12 20)
1969/12/31/18:00:12.667000,(-24 -12 2 18 -15 -4 -8 -20)
1969/12/31/18:00:12.667000,(11 15 19 51 21 2 4 9)
1969/12/31/18:00:12.669000,(-7 -10 -7 -47 4 3 2 -4)
1969/12/31/18:00:12.669000,(7 10 -13 -25 -13 -2 -1 1)
1969/12/31/18:00:12.681000,(-4 -11 -4 15 5 0 -1 -1)
1969/12/31/18:00:12.681000,(-14 -11 1 4 -4 0 -5 -10)
1969/12/31/18:00:12.690000,(-2 -2 21 64 32 9 4 0)
1969/12/31/18:00:12.690000,(15 15 7 -17 -4 7 6 8)
1969/12/31/18:00:12.704000,(28 7 -12 -15 -3 -8 -6 12)
1969/12/31/18:00:12.704000,(-30 -15 -20 -60 -30 -4 -4 -19)
1969/12/31/18:00:12.711000,(1 0 -4 -25 -10 -8 -5 -1)
1969/12/31/18:00:12.711000,(-24 -20 -6 16 -15 -14 -17 -22)
1969/12/31/18:00:12.727000,(50 47 2 -36 11 8 18 36)
1969/12/31/18:00:12.727000,(-23 9 -2 38 -5 -10 -16 -29)
1969/12/31/18:00:12.729000,(23 1 2 -32 3 11 18 29)
1969/12/31/18:00:12.729000,(-15 -13 -14 -32 -31 -14 -15 -16)
1969/12/31/18:00:12.741000,(-15 -19 0 33 8 -1 -1 -8)
1969/12/31/18:00:12.741000,(-20 -13 19 60 54 10 0 -6)
1969/12/31/18:00:12.750000,(-8 1 2 -8 -7 1 -4 -11)
1969/12/31/18:00:12.750000,(28 20 1 -20 -10 4 13 23)
1969/12/31/18:00:12.764000,(-23 -13 -3 8 -12 -12 -10 -16)
1969/12/31/18:00:12.764000,(21 10 3 -14 -3 18 24 31)
1969/12/31/18:00:12.771000,(-17 -18 -8 21 2 -7 -9 -13)
1969/12/31/18:00:12.771000,(13 13 5 2 2 0 -4 5)
1969/12/31/18:00:12.787000,(-33 -44 -12 -30 -3 -10 -13 -23)
1969/12/31/18:00:12.787000,(16 38 5 20 1 -1 5 2)
1969/12/31/18:00:12.789000,(-21 -21 0 3 2 -3 -13 -14)
1969/12/31/18:00:12.789000,(17 25 3 1 -1 3 7 6)
1969/12/31/18:00:12.810000,(9 2 2 8 8 11 10 13)
1969/12/31/18:00:12.810000,(5 0 -8 -37 -18 -11 -5 5)
1969/12/31/18:00:12.811000,(-28 -28 -20 -53 -18 -11 -6 -13)
1969/12/31/18:00:12.811000,(0 1 6 44 5 2 -3 -8)
1969/12/31/18:00:12.823000,(-17 -1 15 37 13 -3 -12 -20)
1969/12/31/18:00:12.823000,(0 -13 -8 -36 -23 1 5 6)
1969/12/31/18:00:12.832000,(20 16 10 53 21 10 9 14)
1969/12/31/18:00:12.832000,(-24 -28 11 23 37 4 -1 -4)
1969/12/31/18:00:12.847000,(51 79 10 10 7 7 9 18)
1969/12/31/18:00:12.847000,(-2 -13 -2 -11 -1 5 2 1)
1969/12/31/18:00:12.849000,(5 -4 -11 -31 -23 -7 -3 1)
1969/12/31/18:00:12.849000,(-14 -13 -14 -39 -25 -8 -4 -7)
1969/12/31/18:00:12.877000,(3 5 1 15 10 -3 -3 -2)
1969/12/31/18:00:12.877000,(-4 -5 2 8 6 5 5 5)
1969/12/31/18:00:12.879000,(27 29 3 2 -1 -1 1 13)
1969/12/31/18:00:12.879000,(-9 -5 -3 3 -1 -9 -15 -16)
1969/12/31/18:00:12.883000,(-16 -12 -4 -33 -10 1 4 -1)
1969/12/31/18:00:12.883000,(4 -11 -3 2 9 6 9 11)
1969/12/31/18:00:12.892000,(-20 -14 6 16 0 9 7 -3)
1969/12/31/18:00:12.892000,(13 7 11 23 17 7 16 22)
1969/12/31/18:00:12.907000,(5 1 -3 -8 -5 1 4 9)
1969/12/31/18:00:12.907000,(-2 -13 -9 -25 -19 -10 -12 -5)
1969/12/31/18:00:12.909000,(-8 -2 6 22 12 -3 -6 -11)
1969/12/31/18:00:12.909000,(-1 12 5 -6 -5 0 4 5)
1969/12/31/18:00:12.930000,(4 -2 -1 -3 -1 4 6 7)
1969/12/31/18:00:12.930000,(-16 -16 -4 9 3 -10 -15 -14)
1969/12/31/18:00:12.931000,(-19 -39 -11 -14 -10 -4 -1 -9)
1969/12/31/18:00:12.931000,(31 30 1 -9 0 10 7 7)
1969/12/31/18:00:12.943000,(5 -7 -3 2 -3 -6 -6 2)
1969/12/31/18:00:12.943000,(-17 -8 7 9 5 0 -3 -9)
1969/12/31/18:00:12.952000,(7 12 -3 -13 0 -5 -8 -9)
1969/12/31/18:00:12.952000,(-5 -14 -11 -16 -21 -3 0 1)
1969/12/31/18:00:12.967000,(-8 -10 1 8 -2 -5 -4 -10)
1969/12/31/18:00:12.967000,(27 19 15 29 23 9 12 21)
1969/12/31/18:00:12.969000,(-5 10 7 11 4 -5 -8 -5)
1969/12/31/18:00:12.969000,(13 9 -5 -10 3 5 14 18)
1969/12/31/18:00:12.990000,(-12 -5 -4 -12 -10 0 -1 -9)
1969/12/31/18:00:12.990000,(2 5 -7 -6 -6 -9 -7 -4)
1969/12/31/18:00:12.991000,(6 7 -9 -59 -23 0 9 7)
1969/12/31/18:00:12.991000,(-7 -20 0 42 11 -1 -9 -8)
1969/12/31/18:00:13.003000,(-20 -16 10 32 29 17 9 -9)
1969/12/31/18:00:13.003000,(15 17 6 12 5 -3 -5 5)
1969/12/31/18:00:13.012000,(-29 -3 1 -8 -9 -8 -9 -18)
1969/12/31/18:00:13.012000,(-33 -43 -17 -25 -14 -9 -10 -23)
1969/12/31/18:00:13.027000,(26 8 4 0 -3 10 15 15)
1969/12/31/18:00:13.027000,(22 17 -6 -2 4 2 3 14)
1969/12/31/18:00:13.029000,(4 4 -1 0 -9 -1 1 2)
1969/12/31/18:00:13.029000,(-23 -6 0 -6 0 -4 -6 -10)
1969/12/31/18:00:13.049000,(-3 1 6 11 8 3 2 -1)
1969/12/31/18:00:13.049000,(12 0 -2 -11 -5 1 3 9)
1969/12/31/18:00:13.051000,(5 5 -1 13 4 3 0 -4)
1969/12/31/18:00:13.051000,(-1 10 -3 2 -4 -3 -4 -5)
1969/12/31/18:00:13.063000,(-22 -17 2 -10 2 -2 -8 -12)
1969/12/31/18:00:13.063000,(19 14 -1 -4 -14 -7 -7 -2)
1969/12/31/18:00:13.072000,(2 1 3 16 8 6 8 7)
1969/12/31/18:00:13.072000,(11 9 6 6 10 3 2 5)
1969/12/31/18:00:13.087000,(4 30 -6 -20 -10 -2 0 -2)
1969/12/31/18:00:13.087000,(-12 -10 -4 -5 -4 -2 -4 0)
1969/12/31/18:00:13.088000,(-13 -13 -7 1 -12 -17 -19 -15)
1969/12/31/18:00:13.088000,(0 -1 4 7 18 22 21 10)
1969/12/31/18:00:13.110000,(11 -1 -1 -13 -42 -17 -3 9)
1969/12/31/18:00:13.110000,(-20 -19 -4 1 9 -3 -14 -19)
1969/12/31/18:00:13.111000,(-14 -19 5 22 34 17 3 7)
1969/12/31/18:00:13.111000,(1 16 2 -4 8 1 -7 -19)
1969/12/31/18:00:13.123000,(-1 22 -2 -13 -2 1 10 6)
1969/12/31/18:00:13.123000,(25 -27 -4 -6 -23 -6 0 10)
1969/12/31/18:00:13.132000,(5 -2 -7 8 -11 -17 -18 -6)
1969/12/31/18:00:13.132000,(-4 1 1 -18 -5 -7 -11 -9)
1969/12/31/18:00:13.147000,(5 -14 -5 23 10 8 8 13)
1969/12/31/18:00:13.147000,(-8 8 2 -14 -7 -3 2 -2)
1969/12/31/18:00:13.149000,(7 9 -3 -2 18 -2 -4 -2)
1969/12/31/18:00:13.149000,(7 -3 8 11 -16 4 14 19)
1969/12/31/18:00:13.169000,(-20 -47 -10 -8 -4 -11 -15 -15)
1969/12/31/18:00:13.170000,(52 83 13 7 19 12 16 20)
1969/12/31/18:00:13.171000,(10 4 1 -7 -4 3 -1 2)
1969/12/31/18:00:13.171000,(-16 -9 -4 -1 -3 -10 -11 -13)
1969/12/31/18:00:13.183000,(11 -5 3 -2 4 3 7 19)
1969/12/31/18:00:13.183000,(-21 -12 -7 3 2 6 4 -10)
1969/12/31/18:00:13.192000,(-9 5 5 3 -3 2 6 -2)
1969/12/31/18:00:13.192000,(44 2 1 -8 -2 7 21 34)
1969/12/31/18:00:13.207000,(7 14 -1 -5 -7 -13 -22 -9)
1969/12/31/18:00:13.207000,(-21 -22 -3 10 10 7 6 -8)
1969/12/31/18:00:13.209000,(-4 6 0 -12 -14 4 12 6)
1969/12/31/18:00:13.209000,(-50 -42 -9 7 -2 -20 -29 -27)
1969/12/31/18:00:13.229000,(-5 6 15 23 20 18 14 1)
1969/12/31/18:00:13.229000,(20 13 4 -2 1 -1 0 5)
1969/12/31/18:00:13.231000,(2 -8 -9 -5 -8 -7 -8 -5)
1969/12/31/18:00:13.231000,(-23 -16 -2 -6 -6 -6 -8 -13)
1969/12/31/18:00:13.243000,(-6 -3 -10 -24 -8 0 1 -1)
1969/12/31/18:00:13.243000,(8 12 5 4 -6 -2 0 3)
1969/12/31/18:00:13.252000,(0 0 6 17 23 10 12 6)
1969/12/31/18:00:13.252000,(-11 2 0 10 -6 -5 -11 -12)
1969/12/31/18:00:13.267000,(-9 16 -1 -1 -3 -9 -17 -22)
1969/12/31/18:00:13.267000,(4 7 -5 -12 6 9 9 -4)
1969/12/31/18:00:13.268000,(-6 -15 -3 -4 -5 -2 -3 -5)
1969/12/31/18:00:13.268000,(17 20 -5 -28 -14 0 5 6)
1969/12/31/18:00:13.290000,(-38 -36 -4 15 4 -13 -17 -20)
1969/12/31/18:00:13.290000,(-14 -14 0 9 2 -4 -4 -2)
1969/12/31/18:00:13.291000,(7 8 -3 -15 -11 -2 -2 -4)
1969/12/31/18:00:13.291000,(21 10 6 23 9 7 7 14)
1969/12/31/18:00:13.303000,(-23 -3 10 18 9 3 -3 -17)
1969/12/31/18:00:13.303000,(8 -8 -14 -1 9 6 2 7)
1969/12/31/18:00:13.312000,(-3 -27 2 2 1 1 -1 -1)
1969/12/31/18:00:13.312000,(26 19 3 -10 1 12 17 23)
1969/12/31/18:00:13.327000,(14 2 -8 -24 -22 -11 -1 3)
1969/12/31/18:00:13.327000,(-12 -4 -8 -53 -56 -35 -12 -10)
1969/12/31/18:00:13.328000,(9 4 6 31 12 6 4 7)
1969/12/31/18:00:13.328000,(-33 -22 2 34 39 9 -8 -19)
1969/12/31/18:00:13.350000,(23 25 16 37 55 37 17 22)
1969/12/31/18:00:13.350000,(-16 -24 1 5 15 11 0 -6)
1969/12/31/18:00:13.351000,(7 13 -4 -29 -31 -12 0 6)
1969/12/31/18:00:13.351000,(32 25 -3 -22 -29 -17 4 22)
1969/12/31/18:00:13.363000,(-17 -19 -17 -9 -11 -16 -17 -17)
1969/12/31/18:00:13.363000,(-14 4 4 0 -4 3 2 -15)
1969/12/31/18:00:13.372000,(1 2 -1 0 2 3 4 7)
1969/12/31/18:00:13.372000,(-21 -21 -6 -1 -2 -10 -16 -17)
1969/12/31/18:00:13.386000,(-14 -17 -5 -16 -12 0 1 -7)
1969/12/31/18:00:13.386000,(-8 -3 2 27 3 -2 -4 0)
1969/12/31/18:00:13.393000,(-11 -6 1 13 16 -1 -8 -14)
1969/12/31/18:00:13.393000,(4 4 -5 -17 -13 -1 3 2)
1969/12/31/18:00:13.410000,(14 0 -4 -17 -22 -4 2 13)
1969/12/31/18:00:13.410000,(-3 -4 -3 9 23 6 -1 4)
1969/12/31/18:00:13.411000,(0 18 -6 -42 -15 4 5 -1)
1969/12/31/18:00:13.411000,(20 9 9 45 19 2 2 10)
1969/12/31/18:00:13.423000,(3 -6 16 37 21 7 4 2)
1969/12/31/18:00:13.423000,(-1 34 8 17 3 -9 -14 -13)
1969/12/31/18:00:13.432000,(-39 -28 -14 -16 -11 -14 -21 -33)
1969/12/31/18:00:13.432000,(-7 -9 -15 -40 -23 -7 -3 -9)
1969/12/31/18:00:13.446000,(6 -2 -7 -19 -15 -5 12 29)
1969/12/31/18:00:13.446000,(8 16 -5 -10 -6 -9 -11 -10)
1969/12/31/18:00:13.453000,(16 12 4 6 -3 2 8 13)
1969/12/31/18:00:13.453000,(-8 -3 4 -8 -10 -9 -9 -13)
1969/12/31/18:00:13.469000,(-10 -28 -8 -20 7 1 8 2)
1969/12/31/18:00:13.469000,(-3 -18 -6 -5 -3 8 7 10)
1969/12/31/18:00:13.471000,(2 -6 -7 3 8 5 9 11)
1969/12/31/18:00:13.471000,(23 32 15 44 30 15 6 14)
1969/12/31/18:00:13.483000,(-2 4 -3 -14 -9 -5 -8 -14)
1969/12/31/18:00:13.483000,(-3 -11 0 -22 -19 -2 3 4)
1969/12/31/18:00:13.492000,(29 34 11 39 9 -2 4 15)
1969/12/31/18:00:13.492000,(-51 -55 0 16 21 3 -4 -19)
1969/12/31/18:00:13.506000,(42 54 2 0 1 8 8 3)
1969/12/31/18:00:13.506000,(18 2 0 -18 -6 -1 3 15)
1969/12/31/18:00:13.513000,(-16 -12 -7 -12 -21 -15 -18 -19)
1969/12/31/18:00:13.513000,(-5 -11 -9 -19 -13 -6 -5 -2)
1969/12/31/18:00:13.529000,(-7 -2 -2 -1 3 0 1 2)
1969/12/31/18:00:13.529000,(21 4 12 23 14 14 14 9)
1969/12/31/18:00:13.531000,(-5 -34 -3 7 8 2 -2 5)
1969/12/31/18:00:13.531000,(5 20 0 -12 -6 -3 2 5)
1969/12/31/18:00:13.543000,(-19 -15 -9 -15 -19 -17 -21 -23)
1969/12/31/18:00:13.543000,(-13 -9 -7 -37 -25 -21 -12 -12)
1969/12/31/18:00:13.552000,(8 1 4 23 -4 1 11 15)
1969/12/31/18:00:13.552000,(19 18 0 2 26 19 9 8)
1969/12/31/18:00:13.567000,(-2 3 12 44 39 16 2 5)
1969/12/31/18:00:13.567000,(-16 -17 1 -6 -18 -13 -5 -5)
1969/12/31/18:00:13.569000,(9 17 6 2 -22 -4 0 2)
1969/12/31/18:00:13.569000,(-12 -9 2 4 26 4 0 -4)
1969/12/31/18:00:13.590000,(4 31 14 21 23 20 28 18)
1969/12/31/18:00:13.590000,(-22 -29 -17 -3 8 -2 -14 -17)
1969/12/31/18:00:13.591000,(1 5 -6 -28 -19 -6 -4 -9)
1969/12/31/18:00:13.591000,(21 1 3 -9 -26 -5 11 27)
1969/12/31/18:00:13.603000,(-20 -20 -8 -8 2 6 5 -6)
1969/12/31/18:00:13.603000,(0 8 0 11 2 1 2 3)
1969/12/31/18:00:13.612000,(3 -1 2 -11 14 7 7 8)
1969/12/31/18:00:13.612000,(-17 -6 1 6 1 -8 -14 -19)
1969/12/31/18:00:13.627000,(11 1 -3 -13 -31 -17 -16 -4)
1969/12/31/18:00:13.627000,(8 10 4 9 7 8 9 11)
1969/12/31/18:00:13.628000,(6 1 -4 -28 -24 -18 -1 0)
1969/12/31/18:00:13.628000,(7 8 -3 8 7 1 -4 -3)
1969/12/31/18:00:13.649000,(11 4 1 4 14 5 3 4)
1969/12/31/18:00:13.649000,(-3 -1 5 24 18 22 13 1)
1969/12/31/18:00:13.651000,(-24 -35 1 12 35 15 -11 -14)
1969/12/31/18:00:13.651000,(53 55 11 -14 -21 -7 9 30)
1969/12/31/18:00:13.663000,(-18 -24 -12 -12 -28 -22 -21 -20)
1969/12/31/18:00:13.663000,(-16 -10 -1 5 7 -6 -8 -13)
1969/12/31/18:00:13.672000,(5 4 -2 1 -5 2 8 8)
1969/12/31/18:00:13.672000,(-10 -10 -9 -22 -52 -32 -11 -9)
1969/12/31/18:00:13.686000,(6 2 0 1 -4 -5 -9 -3)
1969/12/31/18:00:13.686000,(6 1 1 4 21 17 9 9)
1969/12/31/18:00:13.693000,(2 11 2 10 36 17 3 -3)
1969/12/31/18:00:13.693000,(-6 -5 0 3 4 12 2 -5)
1969/12/31/18:00:13.709000,(3 2 -1 -7 -50 -20 2 7)
1969/12/31/18:00:13.709000,(-7 -6 -1 -1 -1 -7 -6 -6)
1969/12/31/18:00:13.711000,(5 8 5 25 64 36 13 6)
1969/12/31/18:00:13.711000,(-12 -3 0 12 42 21 7 -2)
1969/12/31/18:00:13.732000,(5 -4 -3 -2 4 -10 -15 -6)
1969/12/31/18:00:13.732000,(-10 -5 5 -1 -29 -2 17 3)
1969/12/31/18:00:13.733000,(52 54 10 -6 -29 -24 -10 17)
1969/12/31/18:00:13.734000,(-12 -12 -6 -11 -11 -13 -13 -15)
1969/12/31/18:00:13.746000,(-3 -13 -6 -11 -10 -5 5 6)
1969/12/31/18:00:13.746000,(23 13 5 3 -4 -1 6 12)
1969/12/31/18:00:13.755000,(-18 -11 -8 -9 -6 -4 -1 -7)
1969/12/31/18:00:13.755000,(-11 -19 -6 -4 2 0 -6 -16)
1969/12/31/18:00:13.770000,(8 3 3 1 8 10 3 6)
1969/12/31/18:00:13.770000,(-5 -5 -1 3 8 -3 -8 -5)
1969/12/31/18:00:13.771000,(-21 -16 -5 1 -10 -7 -7 -13)
1969/12/31/18:00:13.771000,(12 5 1 -7 -8 4 7 10)
1969/12/31/18:00:13.792000,(9 9 3 7 16 7 7 0)
1969/12/31/18:00:13.792000,(19 -8 -4 -5 -1 -5 -7 15)
1969/12/31/18:00:13.794000,(49 82 14 3 -8 -7 2 18)
1969/12/31/18:00:13.794000,(-18 -5 -5 -6 -11 -6 -11 -15)
1969/12/31/18:00:13.805000,(22 -10 11 14 31 30 40 39)
1969/12/31/18:00:13.805000,(-5 3 -9 -6 -7 -13 -18 -15)
1969/12/31/18:00:13.815000,(-16 -29 -1 -2 -7 -1 4 -1)
1969/12/31/18:00:13.815000,(6 3 3 0 4 7 9 7)
1969/12/31/18:00:13.829000,(-2 14 -1 -1 -7 -13 -16 -10)
1969/12/31/18:00:13.829000,(4 4 0 -9 11 3 4 3)
1969/12/31/18:00:13.836000,(-20 -31 -13 -15 -29 -7 -3 -7)
1969/12/31/18:00:13.836000,(1 5 -1 15 13 3 4 4)
1969/12/31/18:00:13.852000,(-5 -1 10 22 12 1 -9 -9)
1969/12/31/18:00:13.852000,(-13 -7 4 10 7 3 -4 -9)
1969/12/31/18:00:13.853000,(-11 -8 -5 -7 1 2 1 -5)
1969/12/31/18:00:13.853000,(-7 -10 -8 -17 -18 -9 -5 -4)
1969/12/31/18:00:13.866000,(36 49 -3 -11 -5 3 8 19)
1969/12/31/18:00:13.866000,(-2 -4 1 -9 -1 -3 -5 -5)
1969/12/31/18:00:13.875000,(-2 -7 -7 -3 -3 -2 1 -1)
1969/12/31/18:00:13.875000,(1 4 -3 -14 -20 -5 -2 -3)
1969/12/31/18:00:13.890000,(-10 -15 -8 -4 -12 -11 -8 -6)
1969/12/31/18:00:13.890000,(-10 2 1 -1 16 -9 -11 -11)
1969/12/31/18:00:13.891000,(2 1 5 -9 -11 1 4 2)
1969/12/31/18:00:13.891000,(5 1 21 55 17 36 18 9)
1969/12/31/18:00:13.912000,(-9 0 10 39 58 30 8 -3)
1969/12/31/18:00:13.912000,(-1 -1 2 12 12 -3 -3 1)
1969/12/31/18:00:13.914000,(-18 -16 8 -2 -40 -28 -20 -18)
1969/12/31/18:00:13.914000,(7 12 13 -26 -16 4 9 8)
1969/12/31/18:00:13.934000,(3 -15 -78 -101 -122 -76 -22 -2)
1969/12/31/18:00:13.934000,(-18 -28 -35 11 30 4 -15 -15)
1969/12/31/18:00:13.935000,(6 17 41 25 103 50 26 16)
1969/12/31/18:00:13.935000,(0 7 4 61 65 38 5 0)
1969/12/31/18:00:13.949000,(3 2 7 -1 0 14 4 1)
1969/12/31/18:00:13.949000,(-8 -11 -5 -24 -68 -34 -4 -5)
1969/12/31/18:00:13.950000,(-4 -7 -10 -76 -103 -41 -15 -7)
1969/12/31/18:00:13.950000,(10 12 11 43 40 -4 -2 5)
1969/12/31/18:00:13.972000,(-10 1 18 18 62 26 0 -8)
1969/12/31/18:00:13.972000,(4 0 -12 5 2 9 7 6)
1969/12/31/18:00:13.973000,(-6 -12 3 12 7 13 3 -2)
1969/12/31/18:00:13.973000,(-9 -8 -27 -54 -88 -43 -13 -8)
1969/12/31/18:00:13.994000,(-3 -11 -16 -57 -91 -54 -17 -3)
1969/12/31/18:00:13.994000,(0 8 28 52 52 29 5 -1)
1969/12/31/18:00:13.994000,(3 1 -17 67 109 51 14 6)
1969/12/31/18:00:13.994000,(2 -5 -16 -45 52 23 6 3)
1969/12/31/18:00:14.009000,(-11 -5 10 21 -1 7 -1 -10)
1969/12/31/18:00:14.009000,(7 16 40 13 -39 -5 5 3)
1969/12/31/18:00:14.010000,(10 8 4 27 -22 -20 -1 6)
1969/12/31/18:00:14.010000,(-3 -10 -12 -20 -32 -26 -12 -6)
1969/12/31/18:00:14.032000,(-4 -1 8 -20 1 1 -2 -5)
1969/12/31/18:00:14.032000,(17 21 4 -24 -9 9 11 12)
1969/12/31/18:00:14.032000,(1 -7 -25 15 9 2 -5 -4)
1969/12/31/18:00:14.032000,(-2 -3 16 -19 -14 -6 2 1)
1969/12/31/18:00:14.054000,(-19 -21 -41 -2 5 -3 -11 -13)
1969/12/31/18:00:14.054000,(-8 -13 -12 -8 11 -4 -6 -3)
1969/12/31/18:00:14.055000,(-8 3 21 -7 -14 -7 -5 -10)
1969/12/31/18:00:14.055000,(5 7 8 6 0 0 1 3)
1969/12/31/18:00:14.069000,(5 6 20 20 16 15 6 1)
1969/12/31/18:00:14.069000,(0 1 -14 -20 -13 -2 3 2)
1969/12/31/18:00:14.070000,(3 -2 -9 -16 -16 -7 -1 2)
1969/12/31/18:00:14.070000,(-4 3 14 28 16 0 -4 -2)
1969/12/31/18:00:14.091000,(0 3 14 28 31 15 6 3)
1969/12/31/18:00:14.091000,(-2 -4 -13 -11 -4 -2 -2 -2)
1969/12/31/18:00:14.092000,(-2 -1 3 -27 -18 -4 3 0)
1969/12/31/18:00:14.092000,(1 -2 -8 -1 -12 -7 -3 -2)
1969/12/31/18:00:14.115000,(0 -5 -14 11 -7 -3 1 1)
1969/12/31/18:00:14.115000,(1 -3 5 -2 15 3 -1 -1)
1969/12/31/18:00:14.115000,(-5 1 7 0 16 10 0 -3)
1969/12/31/18:00:14.115000,(0 -4 -16 10 -2 -3 -1 0)
1969/12/31/18:00:14.129000,(0 3 13 -9 3 5 2 1)
1969/12/31/18:00:14.129000,(3 3 -10 1 -17 -6 0 1)
1969/12/31/18:00:14.130000,(-1 -8 -11 4 1 -7 -2 0)
1969/12/31/18:00:14.130000,(-8 -6 1 -4 -3 -4 -4 -8)
1969/12/31/18:00:14.153000,(4 3 8 3 4 7 7 8)
1969/12/31/18:00:14.153000,(-1 3 3 -6 -4 0 -1 -1)
1969/12/31/18:00:14.154000,(4 -1 -5 7 9 0 -4 1)
1969/12/31/18:00:14.154000,(-3 -2 -14 -24 -14 -5 -2 -4)
1969/12/31/18:00:14.175000,(8 4 3 14 -6 4 5 5)
1969/12/31/18:00:14.175000,(-15 -9 -2 3 24 -5 -12 -12)
1969/12/31/18:00:14.175000,(7 7 2 -2 -1 4 7 8)
1969/12/31/18:00:14.175000,(2 -1 2 0 -10 2 1 1)
1969/12/31/18:00:14.189000,(-1 2 9 15 19 8 0 -1)
1969/12/31/18:00:14.189000,(-1 0 0 1 -4 2 3 2)
1969/12/31/18:00:14.190000,(-2 -1 3 4 -5 -11 -8 -4)
1969/12/31/18:00:14.190000,(0 2 5 7 5 1 0 0)
1969/12/31/18:00:14.211000,(2 -2 -13 -17 -8 4 4 1)
1969/12/31/18:00:14.211000,(11 14 14 -5 -3 17 14 11)
1969/12/31/18:00:14.212000,(-5 -2 12 32 30 -5 -13 -7)
1969/12/31/18:00:14.212000,(-7 -12 -13 -10 -8 -4 -1 -3)
1969/12/31/18:00:14.235000,(0 8 10 6 7 0 -3 -4)
1969/12/31/18:00:14.235000,(1 0 -13 -7 -11 -3 3 -1)
1969/12/31/18:00:14.235000,(0 -6 -19 -39 -26 -7 2 0)
1969/12/31/18:00:14.235000,(10 5 6 7 12 4 -1 7)
1969/12/31/18:00:14.249000,(-13 -7 9 -13 -17 -14 -10 -13)
1969/12/31/18:00:14.249000,(1 2 4 38 16 6 3 2)
1969/12/31/18:00:14.250000,(-1 1 -4 -23 -5 -2 -1 -1)
1969/12/31/18:00:14.250000,(-3 0 10 30 25 10 3 1)
1969/12/31/18:00:14.271000,(-12 -3 7 -23 0 -3 -6 -9)
1969/12/31/18:00:14.271000,(13 3 -9 30 9 0 1 7)
1969/12/31/18:00:14.272000,(-7 -7 -1 -1 -21 -3 -1 -4)
1969/12/31/18:00:14.272000,(0 -2 -12 -25 -12 -2 2 0)
1969/12/31/18:00:14.286000,(-5 -8 -14 -12 -3 -7 -6 -5)
1969/12/31/18:00:14.286000,(0 6 13 2 -9 -6 -3 -1)
1969/12/31/18:00:14.294000,(1 -2 -3 11 19 15 6 2)
1969/12/31/18:00:14.294000,(-2 1 4 -5 -3 -3 -4 -5)
1969/12/31/18:00:14.317000,(3 -3 -3 16 12 5 3 4)
1969/12/31/18:00:14.317000,(-6 -3 -7 -27 -18 -12 -8 -7)
1969/12/31/18:00:14.318000,(2 -2 -12 -20 -20 -4 1 0)
1969/12/31/18:00:14.318000,(-3 0 11 22 22 5 2 -2)
1969/12/31/18:00:14.331000,(3 5 3 15 -1 2 4 5)
1969/12/31/18:00:14.331000,(2 -2 -2 -4 6 4 4 3)
1969/12/31/18:00:14.332000,(-3 1 9 14 1 0 -5 -6)
1969/12/31/18:00:14.332000,(3 -6 -23 -32 -18 -9 -1 3)
1969/12/31/18:00:14.346000,(-3 -6 -12 -12 -5 -10 -6 -3)
1969/12/31/18:00:14.346000,(-10 -6 2 0 -21 -8 -2 -5)
1969/12/31/18:00:14.354000,(7 9 12 -3 24 11 7 8)
1969/12/31/18:00:14.354000,(1 7 7 26 0 -1 -3 -2)
1969/12/31/18:00:14.369000,(1 0 0 -1 12 3 -3 -2)
1969/12/31/18:00:14.369000,(-3 -5 2 6 5 1 -1 0)
1969/12/31/18:00:14.370000,(0 -2 -14 -11 -17 -10 -4 0)
1969/12/31/18:00:14.370000,(-3 -8 -20 -49 -26 -9 -3 0)
1969/12/31/18:00:14.391000,(3 3 -2 -23 -1 2 4 3)
1969/12/31/18:00:14.391000,(-6 -2 14 18 1 4 -2 -7)
1969/12/31/18:00:14.392000,(1 5 10 53 33 7 7 4)
1969/12/31/18:00:14.392000,(-1 -4 -7 -16 -24 -11 -8 -7)
1969/12/31/18:00:14.406000,(2 2 0 -9 -20 -3 0 1)
1969/12/31/18:00:14.406000,(-3 -3 -3 -4 7 -3 0 -1)
1969/12/31/18:00:14.414000,(10 3 -8 -19 -11 1 5 8)
1969/12/31/18:00:14.414000,(7 8 15 57 64 19 9 9)
1969/12/31/18:00:14.429000,(-3 -3 2 11 14 2 0 -1)
1969/12/31/18:00:14.429000,(-7 -2 -5 -20 -6 -1 -8 -8)
1969/12/31/18:00:14.430000,(-12 -8 -5 -5 -28 -12 -10 -8)
1969/12/31/18:00:14.430000,(5 0 -2 -16 -13 1 8 7)
1969/12/31/18:00:14.451000,(1 4 1 1 5 2 2 -2)
1969/12/31/18:00:14.451000,(12 4 -1 3 3 6 9 15)
1969/12/31/18:00:14.452000,(-9 -7 -11 -15 -11 -10 -10 -9)
1969/12/31/18:00:14.452000,(-9 -6 1 -11 -10 -6 -8 -9)
1969/12/31/18:00:14.475000,(-1 1 3 19 5 1 0 1)
1969/12/31/18:00:14.475000,(-4 -4 -5 -8 -12 -3 7 5)
1969/12/31/18:00:14.475000,(2 1 4 -3 19 5 3 2)
1969/12/31/18:00:14.475000,(-1 -1 0 1 -1 1 2 0)
1969/12/31/18:00:14.489000,(-1 0 3 8 2 1 -3 -5)
1969/12/31/18:00:14.489000,(1 2 -3 -1 -2 -2 -5 -5)
1969/12/31/18:00:14.496000,(3 1 0 -17 -5 0 4 2)
1969/12/31/18:00:14.496000,(-2 -1 6 27 -6 3 0 0)
1969/12/31/18:00:14.511000,(-2 -1 4 11 14 0 -1 -1)
1969/12/31/18:00:14.511000,(4 2 -3 -11 0 -2 -3 -1)
1969/12/31/18:00:14.512000,(-2 0 0 8 1 3 2 1)
1969/12/31/18:00:14.512000,(1 0 -4 -13 0 -1 -2 0)
1969/12/31/18:00:14.535000,(-1 -5 -2 -5 -10 -2 -2 -2)
1969/12/31/18:00:14.535000,(2 0 -3 -6 -2 -1 3 6)
1969/12/31/18:00:14.535000,(1 0 -1 5 -1 -1 -2 -4)
1969/12/31/18:00:14.535000,(-6 0 1 -8 -13 -9 -6 -4)
1969/12/31/18:00:14.549000,(1 1 1 1 3 2 3 5)
1969/12/31/18:00:14.549000,(0 1 1 5 10 3 1 0)
1969/12/31/18:00:14.550000,(-2 -3 -4 -5 -19 -5 -5 -4)
1969/12/31/18:00:14.550000,(-3 -2 -2 -10 21 1 -2 -3)
1969/12/31/18:00:14.550000,(2 -1 -2 1 2 -1 0 -1)
1969/12/31/18:00:14.550000,(-4 0 1 1 1 -3 -2 -1)
1969/12/31/18:00:14.566000,(2 3 3 0 0 -1 1 0)
1969/12/31/18:00:14.566000,(-3 -2 -3 -3 -6 -2 -2 -2)
1969/12/31/18:00:14.574000,(-1 -1 0 1 4 1 -2 -1)
1969/12/31/18:00:14.574000,(1 0 1 2 2 0 0 0)
1969/12/31/18:00:14.580000,(-3 -5 -4 0 -3 -1 1 1)
1969/12/31/18:00:14.580000,(3 2 0 -2 -1 -1 0 2)
1969/12/31/18:00:14.611000,(-1 0 0 1 -3 1 -2 -2)
1969/12/31/18:00:14.611000,(0 1 -1 -1 1 -2 -1 -1)
1969/12/31/18:00:14.612000,(-1 2 2 0 -2 -2 -4 -3)
1969/12/31/18:00:14.612000,(0 -2 -4 -2 -3 -5 -3 -3)
1969/12/31/18:00:14.618000,(-3 -1 -3 -3 -3 0 -1 0)
1969/12/31/18:00:14.618000,(-1 0 -2 -3 -4 -2 -2 -2)
1969/12/31/18:00:14.620000,(3 -1 1 2 5 4 2 2)
1969/12/31/18:00:14.620000,(1 1 3 3 1 -2 -2 1)
1969/12/31/18:00:14.633000,(-4 1 4 5 4 -2 -4 -5)
1969/12/31/18:00:14.633000,(1 -1 -1 -4 -1 0 3 4)
1969/12/31/18:00:14.635000,(-4 -5 -20 -9 -15 -7 -2 -2)
1969/12/31/18:00:14.635000,(15 11 5 -6 8 8 6 9)
1969/12/31/18:00:14.656000,(3 3 14 6 2 4 4 2)
1969/12/31/18:00:14.656000,(1 1 1 26 18 5 0 0)
1969/12/31/18:00:14.658000,(-11 -7 -1 -27 -1 -7 -5 -10)
1969/12/31/18:00:14.658000,(-7 -9 -14 -6 -8 -5 -3 -4)
1969/12/31/18:00:14.678000,(4 0 -1 0 -8 -4 2 4)
1969/12/31/18:00:14.678000,(-6 -3 -1 -34 -34 -7 -3 -6)
1969/12/31/18:00:14.680000,(16 18 14 28 29 10 9 9)
1969/12/31/18:00:14.680000,(-8 -2 16 38 2 3 -4 -5)
1969/12/31/18:00:14.692000,(-2 -9 -19 0 19 6 -2 0)
1969/12/31/18:00:14.692000,(4 -4 -6 9 5 -2 -5 2)
1969/12/31/18:00:14.701000,(-13 -6 5 -51 -29 -11 -6 -8)
1969/12/31/18:00:14.701000,(0 1 -13 -45 -15 -12 0 -3)
1969/12/31/18:00:14.716000,(0 2 -2 28 -6 -4 -6 0)
1969/12/31/18:00:14.716000,(-2 -5 -2 15 21 11 7 1)
1969/12/31/18:00:14.717000,(15 10 6 -67 -31 -5 4 10)
1969/12/31/18:00:14.717000,(6 7 4 76 8 -3 -3 3)
1969/12/31/18:00:14.738000,(-4 -2 2 -59 26 12 8 0)
1969/12/31/18:00:14.738000,(-11 -7 -8 11 -43 -17 -12 -12)
1969/12/31/18:00:14.740000,(3 1 40 127 121 36 10 8)
1969/12/31/18:00:14.740000,(-18 -4 6 -66 -55 -6 1 -9)
1969/12/31/18:00:14.752000,(5 -5 -40 -81 -7 -21 -9 -2)
1969/12/31/18:00:14.752000,(0 1 18 45 -82 -16 2 3)
1969/12/31/18:00:14.761000,(2 4 -10 20 34 6 2 2)
1969/12/31/18:00:14.761000,(15 18 37 89 54 29 7 12)
1969/12/31/18:00:14.776000,(-13 -13 -13 -8 19 13 0 -8)
1969/12/31/18:00:14.776000,(-1 -9 -60 -128 -92 -45 -14 -5)
1969/12/31/18:00:14.777000,(-13 -19 9 15 37 -7 -15 -9)
1969/12/31/18:00:14.777000,(1 18 56 85 65 23 9 5)
1969/12/31/18:00:14.798000,(3 6 -12 -68 -34 -15 -3 0)
1969/12/31/18:00:14.798000,(0 -4 -9 -30 -1 8 0 1)
1969/12/31/18:00:14.800000,(-3 -4 -21 -66 -69 -14 -3 -7)
1969/12/31/18:00:14.800000,(8 -4 -13 54 80 11 5 5)
1969/12/31/18:00:14.812000,(-10 -9 -1 9 -56 -19 -10 -8)
1969/12/31/18:00:14.812000,(-5 -3 3 -49 -2 10 3 -1)
1969/12/31/18:00:14.821000,(-3 2 17 79 48 8 -2 -1)
1969/12/31/18:00:14.821000,(-3 -12 -37 -110 -42 -7 0 -2)
1969/12/31/18:00:14.843000,(1 4 22 63 18 3 -3 1)
1969/12/31/18:00:14.843000,(-8 -6 3 4 15 0 -4 -7)
1969/12/31/18:00:14.845000,(3 3 -2 -17 -34 -4 0 1)
1969/12/31/18:00:14.845000,(0 -5 -12 -21 -19 -9 -4 -4)
1969/12/31/18:00:14.858000,(-1 -5 -18 -17 -26 -11 -4 -1)
1969/12/31/18:00:14.858000,(5 5 16 -29 31 16 6 5)
1969/12/31/18:00:14.860000,(0 4 6 79 13 2 0 -1)
1969/12/31/18:00:14.860000,(-3 -7 -25 -105 -78 -19 -6 -4)
1969/12/31/18:00:14.872000,(2 2 14 86 60 19 6 4)
1969/12/31/18:00:14.872000,(4 11 29 37 63 17 7 4)
1969/12/31/18:00:14.888000,(-1 -2 -12 -5 -16 -2 2 1)
1969/12/31/18:00:14.888000,(-9 -12 -26 -52 -27 -14 -9 -9)
1969/12/31/18:00:14.897000,(6 4 10 -40 -16 0 4 5)
1969/12/31/18:00:14.897000,(7 10 14 69 37 13 6 4)
1969/12/31/18:00:14.899000,(-2 -6 -17 -28 -21 -7 -3 -2)
1969/12/31/18:00:14.899000,(-4 -5 -4 -10 -5 -6 -5 -4)
1969/12/31/18:00:14.919000,(-1 0 6 12 4 3 3 -2)
1969/12/31/18:00:14.919000,(1 2 0 34 23 2 1 0)
1969/12/31/18:00:14.920000,(3 -4 -12 -43 -30 -6 1 5)
1969/12/31/18:00:14.920000,(-1 3 5 7 5 3 1 -2)
1969/12/31/18:00:14.932000,(0 6 9 26 0 -2 -4 -3)
1969/12/31/18:00:14.932000,(-20 -18 -5 6 14 4 4 -1)
1969/12/31/18:00:14.941000,(5 -2 -7 -31 -19 -9 -11 -11)
1969/12/31/18:00:14.941000,(0 4 4 15 2 0 2 1)
1969/12/31/18:00:14.956000,(6 4 -2 2 -3 -3 2 7)
1969/12/31/18:00:14.956000,(-2 5 1 0 6 3 1 -4)
1969/12/31/18:00:14.957000,(-12 -9 -2 -12 -9 -2 -1 -2)
1969/12/31/18:00:14.958000,(-1 1 0 19 9 0 1 2)
1969/12/31/18:00:14.978000,(-2 -3 1 -2 -8 -3 -3 0)
1969/12/31/18:00:14.978000,(7 6 -1 1 5 0 2 2)
1969/12/31/18:00:14.980000,(-3 0 0 0 -5 -1 -2 -3)
1969/12/31/18:00:14.980000,(4 -2 -6 -2 1 -4 -4 -1)
1969/12/31/18:00:14.992000,(-2 -1 -2 -15 -5 2 2 1)
1969/12/31/18:00:14.992000,(3 -1 -1 9 7 -4 -3 1)
1969/12/31/18:00:15.001000,(0 5 0 -17 -16 -1 1 1)
1969/12/31/18:00:15.001000,(2 -1 6 34 20 5 4 6)
1969/12/31/18:00:15.023000,(-6 -5 5 11 9 2 -1 -5)
1969/12/31/18:00:15.023000,(-1 -2 -6 -5 -1 -4 -4 -4)
1969/12/31/18:00:15.031000,(-12 -8 -7 -18 -14 -5 -4 -5)
1969/12/31/18:00:15.031000,(25 10 -3 -10 -4 -1 0 11)
1969/12/31/18:00:15.038000,(-16 -4 4 11 3 5 1 -16)
1969/12/31/18:00:15.038000,(4 3 -2 -5 -3 -2 -3 0)
1969/12/31/18:00:15.040000,(-19 -10 3 3 7 2 5 4)
1969/12/31/18:00:15.040000,(8 2 -1 -4 -4 -1 0 3)
1969/12/31/18:00:15.054000,(1 -1 -7 -1 -4 -7 -9 -4)
1969/12/31/18:00:15.054000,(10 8 3 -6 -7 -4 -1 2)
1969/12/31/18:00:15.061000,(1 1 0 14 15 2 -1 -4)
1969/12/31/18:00:15.061000,(-14 -12 -5 -25 -7 -1 3 -1)
1969/12/31/18:00:15.076000,(0 0 4 -7 -14 -2 2 0)
1969/12/31/18:00:15.076000,(-15 -8 8 55 25 5 1 -2)
1969/12/31/18:00:15.078000,(24 17 1 -1 7 5 8 12)
1969/12/31/18:00:15.078000,(-22 -8 -2 -5 -9 -4 -8 -13)
1969/12/31/18:00:15.098000,(29 8 -14 -33 -5 -1 5 14)
1969/12/31/18:00:15.098000,(-20 -13 5 20 -5 -4 -4 -8)
1969/12/31/18:00:15.100000,(0 4 3 0 8 3 -3 -5)
1969/12/31/18:00:15.100000,(-2 5 1 6 5 4 2 -4)
1969/12/31/18:00:15.112000,(-1 -5 1 -14 -13 -1 1 6)
1969/12/31/18:00:15.112000,(-13 -9 -7 -2 4 -3 -6 -4)
1969/12/31/18:00:15.121000,(16 6 -2 -3 -9 -2 2 5)
1969/12/31/18:00:15.121000,(-33 -22 -13 -15 -12 -7 -8 -19)
1969/12/31/18:00:15.143000,(36 30 15 19 13 4 8 17)
1969/12/31/18:00:15.143000,(15 1 -19 -38 -23 -7 -5 1)
1969/12/31/18:00:15.145000,(-6 -10 -15 -38 -17 -6 -1 1)
1969/12/31/18:00:15.145000,(-2 3 16 28 -5 -1 -3 -2)
1969/12/31/18:00:15.166000,(-19 -8 19 96 52 10 0 -8)
1969/12/31/18:00:15.166000,(16 17 2 -35 7 3 1 2)
1969/12/31/18:00:15.168000,(-12 -3 2 29 -5 1 -1 -5)
1969/12/31/18:00:15.168000,(1 0 7 12 15 0 -3 0)
1969/12/31/18:00:15.172000,(-11 -4 -8 -21 -14 -4 2 0)
1969/12/31/18:00:15.172000,(-35 -29 6 -2 -6 3 5 -9)
1969/12/31/18:00:15.188000,(29 28 -8 -25 0 4 9 12)
1969/12/31/18:00:15.189000,(21 -2 -8 -15 -9 -1 -1 4)
1969/12/31/18:00:15.196000,(-2 -10 -9 -5 -10 -15 -18 1)
1969/12/31/18:00:15.196000,(12 36 -2 -10 -3 3 4 -4)
1969/12/31/18:00:15.197000,(16 -12 7 3 -2 0 14 29)
1969/12/31/18:00:15.197000,(-42 -30 -10 8 3 -5 -12 -32)
1969/12/31/18:00:15.219000,(17 12 2 -9 1 7 13 17)
1969/12/31/18:00:15.219000,(-14 -7 -4 -10 -8 -5 -10 -11)
1969/12/31/18:00:15.220000,(-16 -12 -4 -12 -15 -3 0 -7)
1969/12/31/18:00:15.220000,(19 18 11 54 32 8 7 10)
1969/12/31/18:00:15.232000,(-4 0 13 20 20 10 4 -3)
1969/12/31/18:00:15.232000,(19 7 -4 5 -3 -2 3 10)
1969/12/31/18:00:15.241000,(-16 -2 7 5 9 5 3 -11)
1969/12/31/18:00:15.241000,(-23 3 -9 -35 -20 -14 -15 -16)
1969/12/31/18:00:15.255000,(-48 -54 -11 -8 -7 10 26 5)
1969/12/31/18:00:15.255000,(65 49 12 7 6 -9 -17 10)
1969/12/31/18:00:15.262000,(-9 -9 -12 -10 -7 -9 -16 -20)
1969/12/31/18:00:15.262000,(27 24 2 -13 -2 8 14 22)
1969/12/31/18:00:15.277000,(-30 -26 -10 -19 -17 -20 -30 -31)
1969/12/31/18:00:15.277000,(-5 -3 -1 6 4 6 13 12)
1969/12/31/18:00:15.286000,(-16 -12 -31 -89 -41 -19 -18 -16)
1969/12/31/18:00:15.286000,(7 -3 14 104 7 -1 1 1)
1969/12/31/18:00:15.292000,(3 21 35 79 47 19 11 2)
1969/12/31/18:00:15.292000,(-4 -8 18 35 28 6 6 8)
1969/12/31/18:00:15.307000,(10 14 -1 -23 -7 -11 -16 -10)
1969/12/31/18:00:15.307000,(-54 -65 -27 -95 -40 -8 2 -10)
1969/12/31/18:00:15.315000,(62 84 -4 -10 -3 6 31 60)
1969/12/31/18:00:15.315000,(-72 -25 -6 1 -1 -16 -48 -76)
1969/12/31/18:00:15.322000,(23 -9 6 26 20 14 7 3)
1969/12/31/18:00:15.322000,(84 62 -1 -51 -18 -6 8 42)
1969/12/31/18:00:15.338000,(-95 -109 -33 -28 -34 -22 -30 -55)
1969/12/31/18:00:15.338000,(94 80 30 73 23 4 16 50)
1969/12/31/18:00:15.340000,(-57 -20 -7 -69 -21 -1 -5 -30)
1969/12/31/18:00:15.340000,(-11 -19 -16 51 36 -8 -12 -8)
1969/12/31/18:00:15.352000,(7 6 20 10 -40 4 0 -3)
1969/12/31/18:00:15.352000,(-15 -19 6 14 37 5 0 -4)
1969/12/31/18:00:15.361000,(5 -2 17 58 19 14 8 11)
1969/12/31/18:00:15.361000,(4 5 1 -63 2 5 9 10)
1969/12/31/18:00:15.375000,(0 4 -9 -44 -21 -11 -18 -18)
1969/12/31/18:00:15.375000,(0 -14 -17 -5 -19 4 17 14)
1969/12/31/18:00:15.382000,(8 5 2 36 15 -5 2 17)
1969/12/31/18:00:15.382000,(-64 -57 -8 -12 -4 -5 -13 -32)
1969/12/31/18:00:15.399000,(49 43 0 -10 6 0 8 32)
1969/12/31/18:00:15.399000,(-19 -76 -23 -40 -39 -18 -16 -7)
1969/12/31/18:00:15.400000,(-35 17 10 19 16 3 -5 -29)
1969/12/31/18:00:15.400000,(21 22 -1 -11 -16 -7 -7 1)
1969/12/31/18:00:15.412000,(-21 -22 2 10 1 0 -6 -21)
1969/12/31/18:00:15.412000,(33 6 6 6 14 10 15 20)
1969/12/31/18:00:15.421000,(26 54 -2 15 4 -9 -13 -6)
1969/12/31/18:00:15.421000,(0 5 8 15 0 -3 -13 -9)
1969/12/31/18:00:15.444000,(2 0 -3 -25 -9 -7 -5 -4)
1969/12/31/18:00:15.444000,(-20 -13 -15 -44 -13 1 1 -5)
1969/12/31/18:00:15.445000,(23 3 6 41 5 -2 5 21)
1969/12/31/18:00:15.445000,(-25 -19 13 32 25 16 16 6)
1969/12/31/18:00:15.466000,(15 17 0 0 7 -4 -16 -13)
1969/12/31/18:00:15.466000,(0 17 -5 -21 -15 -9 -9 -6)
1969/12/31/18:00:15.468000,(13 2 -3 -10 -14 -4 8 15)
1969/12/31/18:00:15.468000,(-45 -33 -12 -3 -5 -3 -10 -30)
1969/12/31/18:00:15.472000,(-9 -23 -8 -7 7 5 10 6)
1969/12/31/18:00:15.472000,(8 12 5 -1 -8 -1 -2 5)
1969/12/31/18:00:15.481000,(-18 -34 -3 3 -2 -6 -14 -12)
1969/12/31/18:00:15.481000,(27 28 2 1 1 2 5 11)
1969/12/31/18:00:15.495000,(12 17 0 -6 -7 -5 5 5)
1969/12/31/18:00:15.495000,(-24 -10 -11 -16 -5 -1 2 -11)
1969/12/31/18:00:15.504000,(-18 -24 4 32 13 0 -3 -6)
1969/12/31/18:00:15.504000,(24 34 28 29 29 34 30 24)
1969/12/31/18:00:15.519000,(11 14 3 8 12 5 -4 -2)
1969/12/31/18:00:15.519000,(-10 -16 -9 -35 -13 -2 5 4)
1969/12/31/18:00:15.520000,(-2 -17 -19 -35 -36 -8 0 1)
1969/12/31/18:00:15.520000,(32 7 6 34 -3 -9 0 24)
1969/12/31/18:00:15.541000,(52 59 38 49 42 25 23 35)
1969/12/31/18:00:15.541000,(-15 0 3 18 8 1 -3 -14)
1969/12/31/18:00:15.543000,(4 5 6 -14 1 5 4 5)
1969/12/31/18:00:15.543000,(13 0 -15 -39 -27 -18 -17 -5)
1969/12/31/18:00:15.555000,(-9 -9 -14 -20 -20 -9 -3 -2)
1969/12/31/18:00:15.555000,(-18 -27 -6 -21 -8 2 9 2)
1969/12/31/18:00:15.564000,(7 2 10 34 22 15 18 17)
1969/12/31/18:00:15.564000,(7 11 6 13 17 10 12 11)
1969/12/31/18:00:15.579000,(-11 -12 -4 -5 -2 -3 -6 -7)
1969/12/31/18:00:15.579000,(-9 6 5 3 -4 1 0 -8)
1969/12/31/18:00:15.580000,(-6 -18 -7 -17 -11 -8 -8 -9)
1969/12/31/18:00:15.580000,(-25 -50 -10 1 3 7 8 0)
1969/12/31/18:00:15.600000,(14 51 3 12 12 0 -15 -18)
1969/12/31/18:00:15.600000,(-15 -21 -7 2 -8 -8 -9 -17)
1969/12/31/18:00:15.609000,(-12 -2 2 7 3 -3 -7 -12)
1969/12/31/18:00:15.609000,(28 31 -4 -47 -9 -7 -2 7)
1969/12/31/18:00:15.615000,(-8 -31 -22 -7 -27 -11 -3 -2)
1969/12/31/18:00:15.615000,(-3 -7 11 56 32 9 8 8)
1969/12/31/18:00:15.631000,(9 14 13 26 24 12 3 0)
1969/12/31/18:00:15.631000,(-26 -6 6 9 8 3 -5 -23)
1969/12/31/18:00:15.639000,(2 -9 -7 -39 -20 -10 -5 3)
1969/12/31/18:00:15.639000,(13 38 -1 -11 -5 1 4 4)
1969/12/31/18:00:15.640000,(49 33 6 4 -3 -1 12 36)
1969/12/31/18:00:15.640000,(-3 -1 -1 -12 -9 -2 -7 -6)
1969/12/31/18:00:15.661000,(11 26 -7 -17 15 1 0 3)
1969/12/31/18:00:15.661000,(-28 -27 1 13 -12 2 -2 -11)
1969/12/31/18:00:15.663000,(-1 3 4 -1 4 2 4 0)
1969/12/31/18:00:15.663000,(-6 -3 -3 9 -8 -11 -10 -5)
1969/12/31/18:00:15.675000,(12 9 2 -2 0 0 3 8)
1969/12/31/18:00:15.675000,(2 -3 -4 -13 1 -3 -7 -4)
1969/12/31/18:00:15.684000,(-19 -16 -16 -58 -18 -9 -11 -11)
1969/12/31/18:00:15.684000,(-16 -6 -1 28 -5 1 8 -1)
1969/12/31/18:00:15.698000,(-31 -51 -1 19 21 4 2 -9)
1969/12/31/18:00:15.698000,(34 34 12 19 5 2 0 15)
1969/12/31/18:00:15.700000,(-11 -6 -2 -33 -16 -2 -4 -11)
1969/12/31/18:00:15.700000,(-1 -1 -5 -27 -18 -8 -5 -1)
1969/12/31/18:00:15.722000,(37 34 1 11 -4 -4 1 16)
1969/12/31/18:00:15.722000,(17 35 8 19 18 8 10 12)
1969/12/31/18:00:15.723000,(5 21 8 31 12 2 1 2)
1969/12/31/18:00:15.723000,(-12 -3 1 -3 6 -1 -10 -18)
1969/12/31/18:00:15.744000,(-21 -25 -6 -21 -15 0 -3 -6)
1969/12/31/18:00:15.744000,(24 12 7 -5 2 12 22 23)
1969/12/31/18:00:15.745000,(-10 -10 -10 -13 -7 -5 -5 -6)
1969/12/31/18:00:15.745000,(24 13 -8 -27 -16 -3 3 14)
1969/12/31/18:00:15.758000,(-19 -20 1 24 6 -3 -9 -15)
1969/12/31/18:00:15.758000,(-24 -19 -5 -4 14 -1 -6 -14)
1969/12/31/18:00:15.760000,(-29 -64 2 18 -12 -1 0 0)
1969/12/31/18:00:15.760000,(28 46 18 29 19 7 9 14)
1969/12/31/18:00:15.781000,(4 9 1 -25 2 -2 -5 3)
1969/12/31/18:00:15.781000,(7 4 -11 -32 -28 -11 -4 -1)
1969/12/31/18:00:15.782000,(-15 -21 -9 15 12 3 1 -8)
1969/12/31/18:00:15.782000,(-6 -13 -1 4 -6 -6 -5 2)
1969/12/31/18:00:15.795000,(-20 -9 10 16 19 16 10 -11)
1969/12/31/18:00:15.795000,(19 0 3 4 -2 2 0 11)
1969/12/31/18:00:15.802000,(18 7 -6 -37 -26 -14 -9 8)
1969/12/31/18:00:15.802000,(-37 -7 -5 16 6 -4 -17 -37)
1969/12/31/18:00:15.818000,(-9 -13 10 25 12 5 7 4)
1969/12/31/18:00:15.818000,(-22 -29 0 -12 -8 1 1 -5)
1969/12/31/18:00:15.820000,(11 8 -8 -5 12 5 0 2)
1969/12/31/18:00:15.820000,(-9 -20 -14 -44 -29 -6 -4 -5)
1969/12/31/18:00:15.841000,(8 7 15 59 13 1 7 8)
1969/12/31/18:00:15.841000,(-16 -8 3 13 3 -10 -12 -17)
1969/12/31/18:00:15.843000,(10 11 2 20 22 16 15 13)
1969/12/31/18:00:15.843000,(8 -15 1 -16 -3 -7 -9 2)
1969/12/31/18:00:15.854000,(-26 -23 -20 -29 -25 -5 -6 -20)
1969/12/31/18:00:15.854000,(5 6 4 2 -13 -9 -3 2)
1969/12/31/18:00:15.864000,(-35 -29 0 13 8 -10 -17 -30)
1969/12/31/18:00:15.864000,(41 44 5 -20 31 24 29 32)
1969/12/31/18:00:15.878000,(-26 -22 -7 58 -19 -24 -31 -20)
1969/12/31/18:00:15.878000,(26 7 0 -12 21 8 2 -2)
1969/12/31/18:00:15.880000,(12 44 10 -1 -9 13 16 6)
1969/12/31/18:00:15.880000,(-17 -10 -2 -9 -31 -15 -10 -12)
1969/12/31/18:00:15.901000,(4 -5 -2 -24 2 -3 -2 5)
1969/12/31/18:00:15.901000,(-18 -11 -9 -1 -6 -2 -3 -5)
1969/12/31/18:00:15.902000,(-1 -4 -17 -62 -9 -1 0 1)
1969/12/31/18:00:15.902000,(-10 -19 -24 -55 -34 -12 -5 -3)
1969/12/31/18:00:15.914000,(29 34 36 68 40 15 14 16)
1969/12/31/18:00:15.915000,(-13 -1 14 5 28 5 -6 -8)
1969/12/31/18:00:15.923000,(2 9 21 46 26 5 -1 0)
1969/12/31/18:00:15.924000,(-4 -4 -1 1 12 2 -4 -4)
1969/12/31/18:00:15.938000,(-13 -25 -27 -65 3 4 11 3)
1969/12/31/18:00:15.938000,(13 10 -8 -15 -41 -2 8 14)
1969/12/31/18:00:15.940000,(7 -24 4 11 12 4 12 25)
1969/12/31/18:00:15.940000,(-3 12 -6 -12 -15 -18 -23 -24)
1969/12/31/18:00:15.961000,(-3 -11 6 -21 1 16 24 12)
1969/12/31/18:00:15.961000,(6 17 -5 -28 -22 -13 -11 -9)
1969/12/31/18:00:15.962000,(14 3 -5 29 -7 0 5 11)
1969/12/31/18:00:15.962000,(-24 -8 9 28 25 5 -6 -17)
1969/12/31/18:00:15.975000,(27 14 0 2 5 2 2 15)
1969/12/31/18:00:15.975000,(-15 -22 -3 2 -6 4 5 2)
1969/12/31/18:00:15.984000,(-11 -1 5 10 1 -3 -9 -13)
1969/12/31/18:00:15.984000,(4 -4 -6 -46 -6 -4 0 6)
1969/12/31/18:00:15.999000,(2 6 -13 -17 -35 -7 -5 -4)
1969/12/31/18:00:15.999000,(-29 -39 9 73 28 -5 -13 -18)
1969/12/31/18:00:16.000000,(15 50 22 18 29 18 15 9)
1969/12/31/18:00:16.001000,(10 27 4 33 12 10 9 15)
1969/12/31/18:00:16.021000,(-3 1 -8 -57 -29 -4 -5 -11)
1969/12/31/18:00:16.021000,(-14 -19 -18 -34 -22 -16 -14 -12)
1969/12/31/18:00:16.023000,(29 19 -7 -14 -15 -4 5 13)
1969/12/31/18:00:16.023000,(-15 -14 13 26 7 6 9 5)
1969/12/31/18:00:16.035000,(12 39 9 3 1 -3 -9 -14)
1969/12/31/18:00:16.035000,(-36 -27 -14 -2 4 -2 -11 -27)
1969/12/31/18:00:16.044000,(25 40 -17 -57 -9 2 6 6)
1969/12/31/18:00:16.044000,(13 2 8 50 -5 1 5 9)
1969/12/31/18:00:16.058000,(-8 -10 -1 7 10 -15 -17 -7)
1969/12/31/18:00:16.058000,(10 15 4 -2 9 8 9 7)
1969/12/31/18:00:16.065000,(-18 -17 1 5 -9 -6 -9 -11)
1969/12/31/18:00:16.065000,(-16 -28 -5 -3 -4 1 1 -5)
1969/12/31/18:00:16.081000,(11 9 6 11 19 21 25 27)
1969/12/31/18:00:16.081000,(31 45 0 -15 5 -3 0 16)
1969/12/31/18:00:16.082000,(-27 -32 2 32 -12 -5 -7 -16)
1969/12/31/18:00:16.082000,(30 16 3 14 1 -16 -14 16)
1969/12/31/18:00:16.094000,(-63 -45 3 0 6 7 -2 -33)
1969/12/31/18:00:16.095000,(-8 -12 -4 -27 -9 1 6 5)
1969/12/31/18:00:16.104000,(29 19 -9 -23 -17 -15 -13 -1)
1969/12/31/18:00:16.104000,(21 10 8 28 15 15 19 20)
1969/12/31/18:00:16.119000,(-18 -7 -8 -18 -17 -19 -23 -19)
1969/12/31/18:00:16.119000,(3 -11 2 4 5 17 27 29)
1969/12/31/18:00:16.125000,(-25 -21 3 4 -3 -15 -21 -22)
1969/12/31/18:00:16.125000,(-9 -6 -3 -5 -9 5 6 -6)
1969/12/31/18:00:16.141000,(-15 -39 -9 -20 -21 -14 -7 5)
1969/12/31/18:00:16.141000,(16 17 3 10 13 7 9 6)
1969/12/31/18:00:16.143000,(-24 -29 1 15 12 0 -9 -15)
1969/12/31/18:00:16.143000,(30 39 5 -6 7 -1 3 5)
1969/12/31/18:00:16.155000,(-23 -13 2 1 0 4 3 -3)
1969/12/31/18:00:16.155000,(12 5 0 7 -4 3 5 9)
1969/12/31/18:00:16.163000,(-5 6 -7 -10 2 3 8 7)
1969/12/31/18:00:16.163000,(-45 -50 -13 -12 -5 -10 -17 -27)
1969/12/31/18:00:16.178000,(23 21 0 2 -4 -5 -10 -4)
1969/12/31/18:00:16.178000,(2 1 1 7 4 -4 -3 -4)
1969/12/31/18:00:16.184000,(-35 -41 1 -14 -7 1 2 -5)
1969/12/31/18:00:16.185000,(-22 -25 -5 13 6 -8 -11 -20)
1969/12/31/18:00:16.201000,(80 77 18 12 19 25 34 47)
1969/12/31/18:00:16.201000,(-6 3 -16 -30 -22 -14 -15 -10)
1969/12/31/18:00:16.203000,(9 -10 3 21 11 3 -1 3)
1969/12/31/18:00:16.203000,(0 13 15 12 -3 -4 -1 5)
1969/12/31/18:00:16.215000,(-27 -31 -9 -17 -6 -8 -13 -16)
1969/12/31/18:00:16.215000,(16 -5 -4 3 4 2 1 12)
1969/12/31/18:00:16.224000,(-30 -25 -3 -8 -8 -3 -7 -24)
1969/12/31/18:00:16.224000,(31 38 3 1 2 8 17 25)
1969/12/31/18:00:16.238000,(18 2 -3 8 4 0 2 10)
1969/12/31/18:00:16.238000,(-6 -9 13 6 6 3 2 3)
1969/12/31/18:00:16.245000,(12 9 -4 -5 -8 -1 -1 5)
1969/12/31/18:00:16.245000,(-2 -14 -5 -2 -2 15 19 11)
1969/12/31/18:00:16.260000,(-8 -8 -5 -16 -15 -10 -8 -9)
1969/12/31/18:00:16.260000,(-5 -11 -2 6 -6 0 4 -2)
1969/12/31/18:00:16.277000,(41 38 8 3 11 1 4 20)
1969/12/31/18:00:16.277000,(0 15 -6 -9 0 -2 -9 -9)
1969/12/31/18:00:16.277000,(-13 -34 -5 11 -3 -1 0 -4)
1969/12/31/18:00:16.277000,(51 53 7 11 7 2 6 20)
1969/12/31/18:00:16.284000,(-9 -2 0 6 4 0 -4 -10)
1969/12/31/18:00:16.284000,(-54 -67 -11 -17 -10 -10 -18 -26)
1969/12/31/18:00:16.298000,(37 49 12 -4 1 12 18 3)
1969/12/31/18:00:16.298000,(20 21 -2 -14 -12 -13 -11 6)
1969/12/31/18:00:16.304000,(-7 -11 -7 -3 -9 -4 -3 0)
1969/12/31/18:00:16.304000,(0 -9 -2 8 0 2 -3 -6)
1969/12/31/18:00:16.321000,(-11 -16 -5 -1 16 5 7 10)
1969/12/31/18:00:16.321000,(-10 -12 1 10 4 7 1 -11)
1969/12/31/18:00:16.322000,(5 9 -5 -23 3 0 3 1)
1969/12/31/18:00:16.322000,(37 27 14 24 3 9 12 29)
1969/12/31/18:00:16.335000,(-14 -15 4 26 10 0 4 6)
1969/12/31/18:00:16.335000,(7 10 3 -3 7 7 13 15)
1969/12/31/18:00:16.344000,(-71 -92 -17 -13 -21 -20 -27 -29)
1969/12/31/18:00:16.344000,(18 38 7 -11 8 11 16 1)
1969/12/31/18:00:16.358000,(17 6 -7 -15 -6 -5 -6 5)
1969/12/31/18:00:16.358000,(-27 -57 0 6 -3 2 1 -6)
1969/12/31/18:00:16.365000,(-18 1 -8 1 0 -4 -12 -23)
1969/12/31/18:00:16.365000,(13 7 -4 -12 -6 -7 3 13)
1969/12/31/18:00:16.381000,(-10 4 -14 -25 -20 -14 -15 -15)
1969/12/31/18:00:16.381000,(-34 -29 -2 2 4 -1 -6 -18)
1969/12/31/18:00:16.382000,(62 65 23 41 11 11 13 20)
1969/12/31/18:00:16.382000,(5 0 10 15 18 15 13 13)
1969/12/31/18:00:16.394000,(3 4 3 1 9 8 11 11)
1969/12/31/18:00:16.395000,(0 2 -6 -18 -16 -18 -23 -13)
1969/12/31/18:00:16.403000,(-17 -4 3 -6 -2 3 9 3)
1969/12/31/18:00:16.403000,(25 13 -2 1 4 7 7 10)
1969/12/31/18:00:16.418000,(-12 -14 -4 2 2 -1 -9 -12)
1969/12/31/18:00:16.418000,(-34 -35 -10 -10 -7 -7 -9 -13)
1969/12/31/18:00:16.425000,(66 83 9 9 -10 -6 -2 12)
1969/12/31/18:00:16.425000,(-23 -19 -2 3 -4 -12 -15 -22)
1969/12/31/18:00:16.441000,(-8 -15 -3 -2 2 0 2 2)
1969/12/31/18:00:16.441000,(-13 9 -1 13 8 7 6 -12)
1969/12/31/18:00:16.447000,(0 -26 2 2 17 10 8 14)
1969/12/31/18:00:16.447000,(15 3 -3 -10 -3 0 2 21)
1969/12/31/18:00:16.454000,(-1 4 -3 -3 -11 -8 -13 -13)
1969/12/31/18:00:16.454000,(-20 -9 -2 -3 -4 -6 -9 -15)
1969/12/31/18:00:16.464000,(1 -2 -2 -17 -8 0 11 14)
1969/12/31/18:00:16.464000,(-18 -18 -4 0 -9 -7 -9 -10)
1969/12/31/18:00:16.478000,(-3 -19 9 5 5 6 11 17)
1969/12/31/18:00:16.478000,(25 33 -1 -23 -39 -26 -10 3)
1969/12/31/18:00:16.485000,(-16 -11 -8 -8 -9 -15 -12 -15)
1969/12/31/18:00:16.485000,(-8 -14 5 20 41 18 1 -7)
1969/12/31/18:00:16.501000,(1 -2 -2 16 15 13 -3 -5)
1969/12/31/18:00:16.501000,(70 85 36 26 31 29 14 16)
1969/12/31/18:00:16.503000,(-21 -25 -3 -7 -10 3 4 -5)
1969/12/31/18:00:16.503000,(-19 -16 -13 -19 -20 -17 -8 -12)
1969/12/31/18:00:16.523000,(6 4 -6 -18 -5 -16 -8 -8)
1969/12/31/18:00:16.523000,(-8 -15 -11 -8 -19 -4 1 4)
1969/12/31/18:00:16.525000,(19 31 7 -2 4 -1 4 12)
1969/12/31/18:00:16.525000,(-28 -24 2 6 2 -5 -14 -25)
1969/12/31/18:00:16.537000,(29 36 6 6 3 1 9 19)
1969/12/31/18:00:16.537000,(-1 -7 -4 0 3 -1 -3 -4)
1969/12/31/18:00:16.554000,(-2 7 0 -4 -2 3 1 1)
1969/12/31/18:00:16.554000,(17 9 -7 -11 -9 0 10 13)
1969/12/31/18:00:16.561000,(-13 -14 -2 -5 -12 -13 -23 -19)
1969/12/31/18:00:16.561000,(-31 -24 2 10 14 9 5 -12)
1969/12/31/18:00:16.563000,(26 27 11 10 5 12 21 33)
1969/12/31/18:00:16.563000,(12 16 -4 -7 -3 -2 -2 -2)
1969/12/31/18:00:16.584000,(-20 -13 -2 -7 -15 -11 -12 -10)
1969/12/31/18:00:16.584000,(27 44 -6 -16 -4 9 11 6)
1969/12/31/18:00:16.585000,(-25 -33 -19 -9 -1 -16 -22 -29)
1969/12/31/18:00:16.585000,(30 30 19 24 18 17 28 41)
1969/12/31/18:00:16.597000,(-17 -7 4 18 -2 1 -4 -19)
1969/12/31/18:00:16.597000,(-43 -45 -9 -7 -12 -8 -11 -14)
1969/12/31/18:00:16.606000,(-15 -20 -5 -7 12 5 2 -6)
1969/12/31/18:00:16.606000,(-5 -23 -8 4 -8 -7 -9 1)
1969/12/31/18:00:16.621000,(1 0 2 9 9 9 4 -5)
1969/12/31/18:00:16.621000,(-17 -28 1 5 0 -2 1 2)
1969/12/31/18:00:16.623000,(28 49 2 5 -7 -8 -8 -3)
1969/12/31/18:00:16.623000,(-33 -13 1 -13 -2 1 -2 -7)
1969/12/31/18:00:16.643000,(6 -3 -8 -7 0 7 14 16)
1969/12/31/18:00:16.643000,(16 8 1 1 2 -3 -1 6)
1969/12/31/18:00:16.645000,(-13 -16 -5 -8 -8 -4 -4 -6)
1969/12/31/18:00:16.645000,(18 18 -1 -10 6 1 2 7)
1969/12/31/18:00:16.657000,(-13 -1 -1 -14 -23 1 2 -6)
1969/12/31/18:00:16.657000,(-3 4 5 30 19 2 3 2)
1969/12/31/18:00:16.666000,(-9 -50 3 30 18 4 -4 -4)
1969/12/31/18:00:16.666000,(1 36 4 7 -1 -3 -14 -28)
1969/12/31/18:00:16.681000,(-1 -6 -9 -27 -10 -6 -2 5)
1969/12/31/18:00:16.681000,(6 -1 -8 -30 -15 -7 -1 2)
1969/12/31/18:00:16.683000,(-48 -67 -12 13 -2 -5 -10 -15)
1969/12/31/18:00:16.683000,(62 60 11 18 4 -9 -13 -13)
1969/12/31/18:00:16.704000,(-92 -51 -10 0 5 -2 -21 -58)
1969/12/31/18:00:16.704000,(-16 -17 -5 -3 1 0 -3 -8)
1969/12/31/18:00:16.705000,(-8 -5 3 -12 6 4 5 2)
1969/12/31/18:00:16.705000,(-8 -22 -13 -31 -37 -12 -2 3)
1969/12/31/18:00:16.717000,(51 44 10 6 5 -1 6 25)
1969/12/31/18:00:16.717000,(-9 -4 -1 16 3 -2 3 0)
1969/12/31/18:00:16.726000,(31 28 11 15 6 3 3 11)
1969/12/31/18:00:16.726000,(-38 -22 -2 -1 5 4 2 -3)
1969/12/31/18:00:16.741000,(19 7 -4 -10 4 4 5 10)
1969/12/31/18:00:16.741000,(4 -5 -1 8 6 1 1 7)
1969/12/31/18:00:16.743000,(-9 6 6 10 5 6 8 5)
1969/12/31/18:00:16.743000,(47 33 16 16 12 15 21 31)
1969/12/31/18:00:16.764000,(-24 -11 1 0 -11 -8 -6 -13)
1969/12/31/18:00:16.764000,(12 19 -13 -27 -11 -10 -16 -12)
1969/12/31/18:00:16.765000,(-9 -2 0 -12 -6 6 7 -4)
1969/12/31/18:00:16.765000,(-16 -22 -10 -15 -16 -13 -16 -11)
1969/12/31/18:00:16.777000,(4 -3 -7 -3 39 3 3 5)
1969/12/31/18:00:16.777000,(5 6 8 20 -31 -1 0 0)
1969/12/31/18:00:16.786000,(5 8 -6 -29 -19 -7 1 3)
1969/12/31/18:00:16.786000,(-16 -18 1 25 13 6 6 -1)
1969/12/31/18:00:16.801000,(31 33 20 35 37 11 7 17)
1969/12/31/18:00:16.801000,(-8 -8 5 9 21 8 2 2)
1969/12/31/18:00:16.803000,(10 10 -6 -26 -18 -4 0 4)
1969/12/31/18:00:16.803000,(-21 -21 -10 -2 -10 -7 -7 -14)
1969/12/31/18:00:16.831000,(3 -10 1 7 -6 3 6 5)
1969/12/31/18:00:16.831000,(-29 2 7 6 17 10 6 -10)
1969/12/31/18:00:16.833000,(69 66 19 6 10 32 53 72)
1969/12/31/18:00:16.833000,(-16 -13 -12 -28 -15 -13 -16 -19)
1969/12/31/18:00:16.837000,(-1 1 -2 2 -14 -12 -7 -1)
1969/12/31/18:00:16.837000,(1 2 2 1 3 -3 -4 -5)
1969/12/31/18:00:16.854000,(-4 -20 -9 -4 0 -3 -4 -5)
1969/12/31/18:00:16.854000,(-7 -2 4 5 6 8 7 4)
1969/12/31/18:00:16.861000,(19 15 2 3 -7 1 4 10)
1969/12/31/18:00:16.861000,(-7 -11 -8 -18 -10 -10 -8 0)
1969/12/31/18:00:16.863000,(-11 -8 -3 7 2 -4 -9 -13)
1969/12/31/18:00:16.863000,(13 8 -1 -22 -16 -7 -5 3)
1969/12/31/18:00:16.884000,(-10 -15 -18 -32 -15 -15 -9 -10)
1969/12/31/18:00:16.884000,(11 4 3 32 13 6 2 5)
1969/12/31/18:00:16.886000,(-16 -1 14 53 34 8 -8 -16)
1969/12/31/18:00:16.886000,(-12 -12 7 25 21 8 -1 -7)
1969/12/31/18:00:16.897000,(23 32 -2 -24 -24 -10 -2 14)
1969/12/31/18:00:16.897000,(-17 -6 -19 -38 -19 -15 -16 -24)
1969/12/31/18:00:16.906000,(-19 -2 9 9 6 8 10 4)
1969/12/31/18:00:16.906000,(-28 -30 -9 -3 -4 -5 -9 -16)
1969/12/31/18:00:16.921000,(-10 -10 -5 -2 -10 -6 -8 -12)
1969/12/31/18:00:16.921000,(4 -8 -6 -18 -15 -13 -9 1)
1969/12/31/18:00:16.923000,(3 -1 -17 -48 -50 -17 -7 -4)
1969/12/31/18:00:16.923000,(5 -1 -5 19 30 7 5 4)
1969/12/31/18:00:16.944000,(-1 4 16 45 36 24 12 3)
1969/12/31/18:00:16.944000,(-4 -2 12 25 28 19 9 6)
1969/12/31/18:00:16.945000,(3 -1 -5 -3 3 -5 -6 -6)
1969/12/31/18:00:16.945000,(-10 -28 -3 -28 -31 -15 -6 -6)
1969/12/31/18:00:16.957000,(25 27 -1 -1 0 10 20 19)
1969/12/31/18:00:16.957000,(33 35 4 -5 -11 -18 -15 1)
1969/12/31/18:00:16.966000,(0 -6 -4 -9 -6 -2 0 5)
1969/12/31/18:00:16.966000,(1 0 -3 -3 -7 -11 -13 -10)
1969/12/31/18:00:16.981000,(-17 -21 -9 -28 -37 -12 -6 -8)
1969/12/31/18:00:16.981000,(8 -4 -3 -1 9 6 5 6)
1969/12/31/18:00:16.982000,(4 17 7 23 25 7 0 6)
1969/12/31/18:00:16.982000,(-27 -14 7 29 25 9 -2 -16)
1969/12/31/18:00:17.003000,(11 11 6 6 4 2 0 0)
1969/12/31/18:00:17.003000,(6 -4 -7 -25 -16 -1 8 11)
1969/12/31/18:00:17.005000,(-6 -8 -11 -30 -29 -23 -19 -15)
1969/12/31/18:00:17.005000,(8 12 -1 -11 11 6 9 14)
1969/12/31/18:00:17.017000,(10 -1 1 15 -6 6 9 12)
1969/12/31/18:00:17.017000,(-10 -16 -1 3 3 1 3 -2)
1969/12/31/18:00:17.026000,(-15 -6 4 30 9 2 -7 -16)
1969/12/31/18:00:17.026000,(9 10 6 3 8 3 7 10)
1969/12/31/18:00:17.041000,(-5 -5 -2 -3 12 7 1 1)
1969/12/31/18:00:17.041000,(7 5 -1 -5 2 1 5 6)
1969/12/31/18:00:17.043000,(2 -7 -2 -6 -11 0 5 8)
1969/12/31/18:00:17.043000,(7 11 -4 -13 -17 -6 -1 5)
1969/12/31/18:00:17.064000,(-4 -3 -1 -1 9 -6 -7 -8)
1969/12/31/18:00:17.064000,(-20 -19 1 5 -10 -2 -3 -11)
1969/12/31/18:00:17.065000,(1 0 -9 -12 -2 -6 -7 -12)
1969/12/31/18:00:17.065000,(4 1 -5 -26 -22 -2 -2 -3)
1969/12/31/18:00:17.085000,(-27 -33 -8 -9 0 1 -2 -7)
1969/12/31/18:00:17.085000,(41 64 9 36 16 4 7 17)
1969/12/31/18:00:17.086000,(-38 -33 5 27 29 12 -4 -28)
1969/12/31/18:00:17.086000,(5 15 4 10 11 3 -1 2)
1969/12/31/18:00:17.110000,(-30 -25 -2 -8 -12 -3 -4 -14)
1969/12/31/18:00:17.110000,(0 -10 -4 -26 -18 -5 3 9)
1969/12/31/18:00:17.111000,(8 -2 -4 -6 -6 -2 1 7)
1969/12/31/18:00:17.111000,(17 23 0 1 -4 -3 3 8)
1969/12/31/18:00:17.131000,(-12 -9 -8 -26 -21 -9 -5 -5)
1969/12/31/18:00:17.131000,(-4 -12 -1 19 12 7 9 4)
1969/12/31/18:00:17.132000,(23 10 10 16 25 2 -2 16)
1969/12/31/18:00:17.132000,(-44 -23 -6 10 4 13 4 -30)
1969/12/31/18:00:17.145000,(7 8 0 1 -11 -8 -10 -5)
1969/12/31/18:00:17.145000,(-1 0 1 -12 -5 -3 0 2)
1969/12/31/18:00:17.146000,(-37 -34 -14 -13 -20 -17 -17 -23)
1969/12/31/18:00:17.146000,(70 24 16 6 11 20 30 43)
1969/12/31/18:00:17.160000,(27 25 8 14 9 -1 1 20)
1969/12/31/18:00:17.160000,(-18 -19 -3 -2 14 2 -5 -15)
1969/12/31/18:00:17.161000,(-11 -4 -8 -22 -26 -9 -7 -6)
1969/12/31/18:00:17.161000,(2 4 -6 -12 -16 -5 2 9)
1969/12/31/18:00:17.183000,(1 -6 6 29 18 6 4 -1)
1969/12/31/18:00:17.183000,(41 64 6 -13 4 -1 1 12)
1969/12/31/18:00:17.183000,(22 37 0 -21 -5 1 6 12)
1969/12/31/18:00:17.184000,(-11 -7 -10 -21 -25 -13 -10 -6)
1969/12/31/18:00:17.205000,(9 1 9 47 16 5 4 4)
1969/12/31/18:00:17.205000,(-26 -24 9 24 25 9 -2 -9)
1969/12/31/18:00:17.206000,(9 -1 3 18 14 11 6 5)
1969/12/31/18:00:17.206000,(-10 1 -5 -21 -13 -8 -12 -12)
1969/12/31/18:00:17.220000,(-10 -10 -29 -86 -8 -10 -2 -6)
1969/12/31/18:00:17.220000,(10 -7 -8 -3 -59 -7 5 10)
1969/12/31/18:00:17.221000,(10 18 23 63 29 -3 1 3)
1969/12/31/18:00:17.221000,(-19 -18 10 9 30 4 -7 -12)
1969/12/31/18:00:17.243000,(8 9 26 20 6 25 16 11)
1969/12/31/18:00:17.243000,(-6 -11 -2 31 29 13 3 -1)
1969/12/31/18:00:17.244000,(5 -2 -7 -19 -5 -12 -4 1)
1969/12/31/18:00:17.244000,(-25 -20 -13 -1 -9 -17 -18 -18)
1969/12/31/18:00:17.265000,(-4 -7 -43 -43 -30 -20 -14 -7)
1969/12/31/18:00:17.265000,(-9 -14 -8 -42 -6 9 3 -4)
1969/12/31/18:00:17.266000,(-1 8 19 15 17 9 5 3)
1969/12/31/18:00:17.266000,(10 12 14 25 -8 6 4 4)
1969/12/31/18:00:17.280000,(10 10 3 -86 -60 -25 2 6)
1969/12/31/18:00:17.280000,(-8 -21 -12 69 -7 -17 -14 -9)
1969/12/31/18:00:17.281000,(6 6 20 50 21 10 11 10)
1969/12/31/18:00:17.281000,(-10 -3 10 29 84 39 8 -2)
1969/12/31/18:00:17.303000,(0 1 -12 41 32 22 1 -2)
1969/12/31/18:00:17.303000,(-13 -5 12 -33 -15 -3 -4 -10)
1969/12/31/18:00:17.304000,(-4 -12 -28 -33 -32 -25 -10 -5)
1969/12/31/18:00:17.304000,(5 -3 -15 -32 -48 -24 -3 4)
1969/12/31/18:00:17.325000,(-5 -6 0 -1 -22 -9 0 -4)
1969/12/31/18:00:17.325000,(-5 -1 -5 -99 -35 -33 -10 -4)
1969/12/31/18:00:17.326000,(10 14 19 36 -16 11 -1 2)
1969/12/31/18:00:17.326000,(19 12 -4 24 31 12 10 17)
1969/12/31/18:00:17.341000,(-5 -6 28 73 59 23 3 -5)
1969/12/31/18:00:17.341000,(-1 -4 -9 18 30 20 9 3)
1969/12/31/18:00:17.341000,(-3 -3 6 -46 -16 0 0 -5)
1969/12/31/18:00:17.341000,(-2 -1 -25 -21 -31 -16 -11 -4)
1969/12/31/18:00:17.363000,(2 -3 -5 -10 -11 -8 0 2)
1969/12/31/18:00:17.363000,(-6 -3 5 12 6 0 1 -4)
1969/12/31/18:00:17.363000,(0 -3 -7 -9 -3 -2 -2 -1)
1969/12/31/18:00:17.363000,(-1 2 9 5 -11 -1 -1 -3)
1969/12/31/18:00:17.387000,(1 7 14 10 2 -3 -1 -2)
1969/12/31/18:00:17.387000,(0 -3 -6 2 5 6 1 1)
1969/12/31/18:00:17.387000,(3 -4 -20 -23 1 -2 -3 1)
1969/12/31/18:00:17.387000,(-4 -6 3 0 -6 -4 -1 -2)
1969/12/31/18:00:17.400000,(-2 0 6 -10 1 0 -2 -3)
1969/12/31/18:00:17.400000,(5 2 -1 35 12 6 4 4)
1969/12/31/18:00:17.401000,(-5 -6 -14 -8 1 -1 -6 -4)
1969/12/31/18:00:17.401000,(-5 -5 0 -20 -8 -2 0 -3)
1969/12/31/18:00:17.423000,(-6 0 7 15 1 -2 -6 -4)
1969/12/31/18:00:17.423000,(6 7 6 6 3 1 4 4)
1969/12/31/18:00:17.424000,(4 1 -11 1 7 2 -1 2)
1969/12/31/18:00:17.424000,(-5 -12 -7 -11 -8 -7 -4 -3)
1969/12/31/18:00:17.445000,(-7 -2 -3 -3 -7 2 0 -3)
1969/12/31/18:00:17.445000,(8 4 6 6 4 -3 -2 4)
1969/12/31/18:00:17.446000,(-3 -4 -8 -12 -2 -2 -1 -3)
1969/12/31/18:00:17.446000,(1 1 2 5 -1 -3 1 1)
1969/12/31/18:00:17.460000,(-1 4 14 5 4 2 -1 -3)
1969/12/31/18:00:17.460000,(4 1 -10 7 6 3 0 1)
1969/12/31/18:00:17.461000,(-1 -4 -2 -14 0 5 1 1)
1969/12/31/18:00:17.461000,(1 4 -3 -6 -7 -4 0 0)
1969/12/31/18:00:17.483000,(0 -1 2 10 -3 -9 -6 -3)
1969/12/31/18:00:17.483000,(-7 -2 8 -6 -11 -5 -3 -4)
1969/12/31/18:00:17.484000,(1 3 3 9 18 11 7 3)
1969/12/31/18:00:17.484000,(2 3 -1 -15 -19 -7 -1 0)
1969/12/31/18:00:17.505000,(8 2 -15 -8 4 3 6 7)
1969/12/31/18:00:17.505000,(-2 -3 1 38 27 20 1 -1)
1969/12/31/18:00:17.506000,(-12 -12 4 -6 16 5 0 -6)
1969/12/31/18:00:17.506000,(-3 3 7 26 10 0 -2 -4)
1969/12/31/18:00:17.520000,(-2 -3 -24 -24 -22 -16 -8 -6)
1969/12/31/18:00:17.520000,(8 3 14 -3 -12 -11 1 6)
1969/12/31/18:00:17.521000,(-5 3 -1 -6 -5 4 -2 -6)
1969/12/31/18:00:17.521000,(1 -3 0 14 16 3 -2 2)
1969/12/31/18:00:17.543000,(-7 -4 -10 -33 -21 -5 -3 -5)
1969/12/31/18:00:17.543000,(1 -2 -3 14 3 -2 -2 0)
1969/12/31/18:00:17.543000,(-8 -4 -3 -6 -14 -8 -5 -6)
1969/12/31/18:00:17.544000,(12 11 15 9 9 3 5 6)
1969/12/31/18:00:17.544000,(0 -2 -3 -2 -1 2 -1 0)
1969/12/31/18:00:17.544000,(0 0 0 3 0 1 0 -1)
1969/12/31/18:00:17.544000,(-3 -4 -3 -3 -4 -2 -1 0)
1969/12/31/18:00:17.544000,(-1 1 -2 -1 -3 -4 -3 -3)
1969/12/31/18:00:17.557000,(1 2 2 0 4 3 4 4)
1969/12/31/18:00:17.557000,(1 1 -2 0 0 1 -1 1)
1969/12/31/18:00:17.566000,(1 1 0 1 -1 0 2 -2)
1969/12/31/18:00:17.566000,(0 -2 -3 1 3 0 2 0)
1969/12/31/18:00:17.581000,(-9 -11 -8 -7 -7 -7 -8 -9)
1969/12/31/18:00:17.581000,(-1 1 5 -8 -8 -4 -1 -2)
1969/12/31/18:00:17.581000,(-4 -1 2 3 2 -1 -6 -4)
1969/12/31/18:00:17.581000,(-5 -4 -6 -11 -10 -3 -1 -5)
1969/12/31/18:00:17.604000,(9 5 -7 7 5 5 6 10)
1969/12/31/18:00:17.604000,(-1 -3 9 9 13 2 -4 -2)
1969/12/31/18:00:17.604000,(-6 -1 5 1 -3 4 2 -5)
1969/12/31/18:00:17.604000,(4 2 -6 1 0 -10 -9 0)
1969/12/31/18:00:17.617000,(-13 -9 -1 -32 -26 -12 -9 -8)
1969/12/31/18:00:17.617000,(-1 -2 -15 6 5 2 5 1)
1969/12/31/18:00:17.625000,(10 7 8 30 17 0 -2 5)
1969/12/31/18:00:17.625000,(-9 2 15 -23 -24 -2 -2 -7)
1969/12/31/18:00:17.640000,(7 1 -22 -4 1 -4 -2 2)
1969/12/31/18:00:17.640000,(-7 -6 13 19 20 9 4 -1)
1969/12/31/18:00:17.641000,(4 2 0 22 15 11 11 7)
1969/12/31/18:00:17.641000,(9 5 -3 4 12 15 10 9)
1969/12/31/18:00:17.663000,(-17 -21 -28 -26 -16 -15 -14 -15)
1969/12/31/18:00:17.663000,(-1 -2 -2 -36 -33 -21 -9 -4)
1969/12/31/18:00:17.665000,(-8 -1 -4 19 6 -3 -6 -7)
1969/12/31/18:00:17.665000,(5 1 0 10 8 1 0 6)
1969/12/31/18:00:17.687000,(-2 0 10 -46 -34 1 10 1)
1969/12/31/18:00:17.687000,(23 14 -8 -10 2 14 15 17)
1969/12/31/18:00:17.692000,(-19 -22 6 53 35 -5 -18 -20)
1969/12/31/18:00:17.692000,(-9 3 21 51 33 22 11 -4)
1969/12/31/18:00:17.700000,(17 12 -11 -20 4 -5 -3 9)
1969/12/31/18:00:17.700000,(-15 -25 -37 -98 -71 -34 -17 -13)
1969/12/31/18:00:17.709000,(20 19 -12 -53 -23 0 10 13)
1969/12/31/18:00:17.709000,(7 9 56 105 58 24 6 2)
1969/12/31/18:00:17.723000,(-14 -2 31 56 -7 -4 0 -9)
1969/12/31/18:00:17.723000,(7 7 -15 -59 -6 -4 -5 1)
1969/12/31/18:00:17.731000,(-10 -18 -18 -2 36 -1 -7 -6)
1969/12/31/18:00:17.731000,(0 2 -5 -16 -4 3 5 1)
1969/12/31/18:00:17.737000,(9 8 -5 -17 16 11 7 8)
1969/12/31/18:00:17.737000,(-2 5 26 76 -13 -3 -5 -2)
1969/12/31/18:00:17.746000,(-5 3 3 -67 -35 -13 0 -2)
1969/12/31/18:00:17.746000,(0 -7 -30 1 -12 -12 -3 0)
1969/12/31/18:00:17.760000,(2 6 11 -21 6 1 -1 1)
1969/12/31/18:00:17.760000,(5 4 -6 32 5 7 7 5)
1969/12/31/18:00:17.769000,(-1 -5 -37 -99 -51 -6 -1 0)
1969/12/31/18:00:17.769000,(4 6 23 63 64 11 0 3)
1969/12/31/18:00:17.784000,(-2 4 30 58 63 21 9 0)
1969/12/31/18:00:17.784000,(-5 -1 15 102 54 13 2 -3)
1969/12/31/18:00:17.785000,(-1 -10 -8 -31 -46 -17 -7 -2)
1969/12/31/18:00:17.785000,(-13 -9 -35 -128 -109 -35 -11 -10)
1969/12/31/18:00:17.797000,(13 8 15 86 57 15 4 11)
1969/12/31/18:00:17.797000,(-15 -5 30 39 28 8 -2 -7)
1969/12/31/18:00:17.814000,(7 7 -5 -12 -10 -1 5 3)
1969/12/31/18:00:17.814000,(2 -10 -58 -107 -56 -22 -10 -4)
1969/12/31/18:00:17.820000,(1 -3 -20 -84 -42 -12 -4 0)
1969/12/31/18:00:17.820000,(3 4 -5 44 -21 -7 -5 -2)
1969/12/31/18:00:17.827000,(-9 1 57 89 46 20 5 -3)
1969/12/31/18:00:17.827000,(-1 -1 -5 -12 28 8 0 0)
1969/12/31/18:00:17.844000,(4 6 10 53 37 10 5 6)
1969/12/31/18:00:17.844000,(-8 -7 -6 -55 -2 -1 -5 -7)
1969/12/31/18:00:17.846000,(0 0 -5 -6 -21 -4 -3 0)
1969/12/31/18:00:17.846000,(0 -2 7 30 5 -3 -3 -1)
1969/12/31/18:00:17.866000,(-2 -3 -13 -28 -37 -11 -3 -4)
1969/12/31/18:00:17.866000,(4 0 -18 -50 -10 -1 5 4)
1969/12/31/18:00:17.868000,(-2 0 3 15 7 -2 -2 -1)
1969/12/31/18:00:17.868000,(-3 -2 5 3 -1 1 1 -2)
1969/12/31/18:00:17.880000,(0 -2 -8 15 -8 -1 -1 -1)
1969/12/31/18:00:17.881000,(3 1 6 -12 4 4 2 3)
1969/12/31/18:00:17.887000,(2 4 4 11 7 1 3 2)
1969/12/31/18:00:17.887000,(-2 -3 -2 10 -2 -3 -3 -2)
1969/12/31/18:00:17.904000,(-5 -5 -6 -10 -11 -2 -2 -3)
1969/12/31/18:00:17.904000,(4 5 8 -9 10 5 3 3)
1969/12/31/18:00:17.905000,(-3 -2 -8 6 -2 -4 -3 -3)
1969/12/31/18:00:17.905000,(3 1 1 -11 -7 -4 0 3)
1969/12/31/18:00:17.926000,(0 -3 2 3 -5 -1 -1 0)
1969/12/31/18:00:17.926000,(-4 -2 0 -8 -4 1 -2 -4)
1969/12/31/18:00:17.927000,(2 2 -2 9 15 4 2 1)
1969/12/31/18:00:17.928000,(-1 -2 2 2 0 -2 -2 -2)
1969/12/31/18:00:17.940000,(-7 -6 0 7 1 -1 -4 -2)
1969/12/31/18:00:17.940000,(-1 -3 -11 -11 -6 -4 -3 0)
1969/12/31/18:00:17.949000,(4 3 -2 -16 -8 1 1 2)
1969/12/31/18:00:17.949000,(-1 1 5 -1 0 1 0 1)
1969/12/31/18:00:17.964000,(-2 0 8 34 4 1 1 -5)
1969/12/31/18:00:17.964000,(-2 -3 -5 2 20 5 2 -2)
1969/12/31/18:00:17.965000,(1 1 -1 -4 -4 -1 -3 1)
1969/12/31/18:00:17.965000,(-1 -3 -2 3 0 1 -2 0)
1969/12/31/18:00:17.986000,(-2 -1 -8 -21 -12 -5 -3 -3)
1969/12/31/18:00:17.986000,(3 1 1 -7 -11 -3 1 4)
1969/12/31/18:00:17.988000,(-5 -4 2 8 2 1 0 -3)
1969/12/31/18:00:17.988000,(3 2 0 4 1 1 1 2)
1969/12/31/18:00:18.000000,(-4 -5 -3 -3 0 -1 -1 -3)
1969/12/31/18:00:18.000000,(0 0 0 2 0 -3 0 -1)
1969/12/31/18:00:18.009000,(3 2 -2 -16 -8 -2 1 2)
1969/12/31/18:00:18.009000,(-3 -2 -4 2 -3 0 -3 -1)
1969/12/31/18:00:18.023000,(0 1 2 4 1 3 1 -2)
1969/12/31/18:00:18.023000,(-1 2 2 1 1 -1 1 -2)
1969/12/31/18:00:18.025000,(0 -3 -2 4 1 1 -1 -1)
1969/12/31/18:00:18.025000,(-3 -2 -4 8 1 -3 -1 0)
1969/12/31/18:00:18.046000,(4 3 -2 -19 -6 -1 3 2)
1969/12/31/18:00:18.046000,(-4 -4 -1 7 3 0 -3 -3)
1969/12/31/18:00:18.048000,(4 5 0 -7 0 1 5 7)
1969/12/31/18:00:18.048000,(-6 -5 1 11 -2 -2 -3 -8)
1969/12/31/18:00:18.060000,(-3 -2 -4 -13 -6 -3 -2 1)
1969/12/31/18:00:18.060000,(2 6 5 21 -3 -3 -4 -7)
1969/12/31/18:00:18.069000,(3 -2 -5 -18 -9 -1 2 3)
1969/12/31/18:00:18.069000,(3 4 10 28 27 8 4 4)
1969/12/31/18:00:18.084000,(-1 -3 2 3 2 1 0 -1)
1969/12/31/18:00:18.084000,(-4 -5 -7 -15 1 1 -1 -1)
1969/12/31/18:00:18.085000,(-8 -6 -3 -1 -10 -6 -5 -7)
1969/12/31/18:00:18.085000,(3 0 -4 -12 -20 -6 -1 6)
1969/12/31/18:00:18.106000,(1 2 4 2 9 5 4 2)
1969/12/31/18:00:18.106000,(-3 -1 -2 -11 -8 -2 -2 0)
1969/12/31/18:00:18.108000,(4 0 3 13 7 1 -2 0)
1969/12/31/18:00:18.108000,(1 -5 -4 -4 1 2 9 10)
1969/12/31/18:00:18.120000,(-7 0 -6 -17 -7 -3 -9 -15)
1969/12/31/18:00:18.120000,(-4 -7 -8 -23 -1 -4 -3 -3)
1969/12/31/18:00:18.129000,(-4 0 8 37 12 2 0 -2)
1969/12/31/18:00:18.129000,(4 1 -8 -45 -14 -8 -2 1)
1969/12/31/18:00:18.143000,(1 5 18 78 13 5 4 4)
1969/12/31/18:00:18.143000,(-2 2 5 -7 12 5 2 0)
1969/12/31/18:00:18.145000,(-3 0 5 27 10 0 -5 -5)
1969/12/31/18:00:18.145000,(-12 -9 -5 -5 -5 -4 -4 -3)
1969/12/31/18:00:18.166000,(29 19 2 -32 -3 10 23 23)
1969/12/31/18:00:18.166000,(-14 -13 -14 -16 -20 -14 -16 -19)
1969/12/31/18:00:18.168000,(-4 -8 -4 -8 -1 -1 0 1)
1969/12/31/18:00:18.168000,(0 2 3 8 3 3 0 0)
1969/12/31/18:00:18.180000,(-14 -14 -18 -52 -21 -8 -7 -7)
1969/12/31/18:00:18.180000,(-6 -8 -15 -46 -24 -7 -3 -2)
1969/12/31/18:00:18.189000,(10 13 21 71 23 8 11 10)
1969/12/31/18:00:18.189000,(2 9 17 53 31 4 -8 -12)
1969/12/31/18:00:18.203000,(-8 -9 -17 -61 1 -3 -8 -7)
1969/12/31/18:00:18.203000,(25 10 -11 -72 -36 -4 7 16)
1969/12/31/18:00:18.205000,(-17 -9 -11 14 -26 -13 -13 -16)
1969/12/31/18:00:18.205000,(10 10 35 104 56 19 11 11)
1969/12/31/18:00:18.226000,(-4 2 18 31 29 8 0 -2)
1969/12/31/18:00:18.226000,(-9 0 3 9 12 3 1 -4)
1969/12/31/18:00:18.227000,(-19 -18 -23 -80 -34 -9 -9 -17)
1969/12/31/18:00:18.227000,(39 15 -22 -49 -34 -7 8 16)
1969/12/31/18:00:18.240000,(-22 -3 3 13 -3 -6 -11 -17)
1969/12/31/18:00:18.240000,(1 -3 -5 9 -5 -6 -5 1)
1969/12/31/18:00:18.249000,(18 21 10 7 21 19 18 8)
1969/12/31/18:00:18.249000,(-28 -18 -14 -23 -16 -10 -17 -24)
1969/12/31/18:00:18.263000,(-4 -4 -5 -7 -7 0 1 2)
1969/12/31/18:00:18.263000,(14 10 5 17 -1 -1 3 11)
1969/12/31/18:00:18.265000,(7 7 5 -2 5 2 6 9)
1969/12/31/18:00:18.265000,(-8 -3 -1 -33 -13 2 4 -2)
1969/12/31/18:00:18.286000,(4 0 1 64 10 1 3 3)
1969/12/31/18:00:18.286000,(-2 5 34 95 52 21 17 3)
1969/12/31/18:00:18.288000,(2 -2 9 19 14 -2 -6 6)
1969/12/31/18:00:18.288000,(-6 -7 -3 -15 -11 3 0 -5)
1969/12/31/18:00:18.300000,(0 -2 -9 -31 -17 -9 -9 4)
1969/12/31/18:00:18.300000,(-1 -3 -16 -32 -14 -12 -17 -10)
1969/12/31/18:00:18.309000,(2 -3 -5 -18 -6 -1 4 4)
1969/12/31/18:00:18.309000,(-34 -21 -15 -27 -12 -5 -7 -17)
1969/12/31/18:00:18.323000,(44 22 2 -20 -8 6 15 23)
1969/12/31/18:00:18.323000,(-4 -3 -10 -24 15 6 8 3)
1969/12/31/18:00:18.325000,(-1 -4 -12 -40 -56 -15 -10 -5)
1969/12/31/18:00:18.325000,(-8 0 11 45 10 -2 -2 0)
1969/12/31/18:00:18.346000,(-2 0 9 44 38 13 7 -1)
1969/12/31/18:00:18.346000,(8 12 37 79 31 16 11 11)
1969/12/31/18:00:18.348000,(-7 -5 0 -2 23 0 -7 -9)
1969/12/31/18:00:18.348000,(8 2 -10 -44 -19 -3 2 4)
1969/12/31/18:00:18.368000,(-8 -8 -12 -19 -21 -13 -8 -8)
1969/12/31/18:00:18.368000,(-2 -5 -17 -28 -16 -7 -6 -2)
1969/12/31/18:00:18.370000,(-3 -2 -6 -12 -1 1 1 2)
1969/12/31/18:00:18.370000,(5 3 1 4 2 3 5 2)
1969/12/31/18:00:18.383000,(2 -1 3 4 -4 -9 -9 -1)
1969/12/31/18:00:18.383000,(-9 -7 -8 -14 -8 -3 -2 -7)
1969/12/31/18:00:18.385000,(-2 -2 1 1 -1 0 -1 -7)
1969/12/31/18:00:18.385000,(8 9 13 42 21 5 3 4)
1969/12/31/18:00:18.406000,(-17 -14 0 1 0 0 -6 -10)
1969/12/31/18:00:18.406000,(23 15 7 7 -3 6 10 20)
1969/12/31/18:00:18.407000,(-24 -14 -12 -15 -4 -11 -17 -23)
1969/12/31/18:00:18.407000,(29 13 -9 -28 -14 -12 -12 9)
1969/12/31/18:00:18.420000,(-13 -5 -1 1 -3 1 1 -4)
1969/12/31/18:00:18.420000,(-11 -8 -1 5 -2 -4 -10 -7)
1969/12/31/18:00:18.428000,(17 6 -1 -3 10 13 20 13)
1969/12/31/18:00:18.428000,(5 5 3 1 -4 -7 -4 5)
1969/12/31/18:00:18.443000,(0 -3 -3 -10 -11 -6 -5 -4)
1969/12/31/18:00:18.443000,(-9 -2 1 7 -5 -4 -13 -10)
1969/12/31/18:00:18.450000,(-1 0 -1 -4 -7 1 9 4)
1969/12/31/18:00:18.450000,(-2 -4 1 17 25 18 23 12)
1969/12/31/18:00:18.466000,(-3 -1 2 8 0 -4 -6 -4)
1969/12/31/18:00:18.466000,(-4 -1 1 9 2 -3 -3 -9)
1969/12/31/18:00:18.467000,(-10 -8 -1 0 4 -9 -22 -15)
1969/12/31/18:00:18.467000,(-2 -2 -2 -16 -16 -8 -3 -5)
1969/12/31/18:00:18.480000,(-3 -7 -9 -16 -8 2 6 4)
1969/12/31/18:00:18.480000,(-8 -5 -1 4 2 3 9 2)
1969/12/31/18:00:18.488000,(14 11 5 0 1 6 5 5)
1969/12/31/18:00:18.488000,(-5 -5 -4 -7 -9 -10 -10 -3)
1969/12/31/18:00:18.503000,(-8 -6 -2 -1 -4 -9 -21 -23)
1969/12/31/18:00:18.503000,(-6 -5 -1 0 -6 -6 -6 -8)
1969/12/31/18:00:18.517000,(2 2 2 5 10 4 7 9)
1969/12/31/18:00:18.517000,(-14 -7 -1 -1 2 -3 -10 -14)
1969/12/31/18:00:18.533000,(12 12 5 -1 -3 -5 -9 2)
1969/12/31/18:00:18.533000,(-2 -4 -3 -3 -3 6 19 7)
1969/12/31/18:00:18.535000,(6 2 0 0 6 8 15 20)
1969/12/31/18:00:18.535000,(1 -1 0 -1 -1 2 3 0)
1969/12/31/18:00:18.540000,(0 2 -2 -2 -4 -10 -20 -12)
1969/12/31/18:00:18.540000,(3 6 6 14 25 1 0 -4)
1969/12/31/18:00:18.548000,(12 3 3 10 -3 11 24 24)
1969/12/31/18:00:18.548000,(-1 0 1 -6 -2 4 7 9)
1969/12/31/18:00:18.563000,(-5 -3 0 -4 -2 1 0 -3)
1969/12/31/18:00:18.563000,(8 0 -1 -4 -1 -5 -6 1)
1969/12/31/18:00:18.569000,(0 4 -1 1 -3 -6 -3 1)
1969/12/31/18:00:18.569000,(-11 -8 -6 -10 -2 1 2 -6)
1969/12/31/18:00:18.586000,(5 1 2 8 5 5 12 13)
1969/12/31/18:00:18.586000,(-4 -1 -1 5 -5 -1 -2 -2)
1969/12/31/18:00:18.587000,(1 2 1 6 1 -5 -10 -6)
1969/12/31/18:00:18.587000,(-2 -1 2 8 5 2 -3 -5)
1969/12/31/18:00:18.599000,(5 5 3 1 4 5 9 5)
1969/12/31/18:00:18.599000,(2 -1 -2 -6 -3 0 0 -1)
1969/12/31/18:00:18.608000,(-2 -5 -6 -6 -12 -8 -11 -10)
1969/12/31/18:00:18.608000,(-14 -8 -5 -7 -3 -5 -7 -18)
1969/12/31/18:00:18.623000,(-1 -1 -4 -9 -3 -3 5 6)
1969/12/31/18:00:18.623000,(6 2 -7 -17 -5 2 3 8)
1969/12/31/18:00:18.630000,(-9 -3 -3 -3 -5 -7 -9 -9)
1969/12/31/18:00:18.630000,(13 9 7 19 20 4 3 8)
1969/12/31/18:00:18.646000,(-2 4 13 28 9 10 11 7)
1969/12/31/18:00:18.646000,(-24 -18 -6 1 -1 -6 -8 -15)
1969/12/31/18:00:18.647000,(2 2 -9 -51 -15 -3 -6 -6)
1969/12/31/18:00:18.648000,(-14 -11 -7 12 -1 -9 -14 -15)
1969/12/31/18:00:18.660000,(11 7 1 -10 -8 1 9 7)
1969/12/31/18:00:18.660000,(4 5 2 -9 3 5 3 4)
1969/12/31/18:00:18.668000,(-4 -5 2 18 5 1 0 2)
1969/12/31/18:00:18.668000,(-10 -2 5 11 -2 -2 -8 -7)
1969/12/31/18:00:18.683000,(6 2 -1 -8 8 5 5 4)
1969/12/31/18:00:18.683000,(4 4 2 2 0 3 4 3)
1969/12/31/18:00:18.685000,(-5 -5 -10 -25 -8 -5 -4 -3)
1969/12/31/18:00:18.685000,(11 1 -12 -39 -24 -7 0 3)
1969/12/31/18:00:18.706000,(-3 -4 -1 26 18 5 3 2)
1969/12/31/18:00:18.706000,(5 5 11 19 -8 1 1 5)
1969/12/31/18:00:18.707000,(6 5 12 30 20 6 6 6)
1969/12/31/18:00:18.707000,(0 1 0 -1 -2 1 -2 0)
1969/12/31/18:00:18.720000,(-22 -17 -16 -51 -8 -5 -6 -19)
1969/12/31/18:00:18.720000,(46 26 8 23 10 5 12 40)
1969/12/31/18:00:18.728000,(-9 -6 3 14 5 5 6 -6)
1969/12/31/18:00:18.729000,(-10 -6 -5 -4 -1 -1 1 -4)
1969/12/31/18:00:18.743000,(6 0 -3 -5 -8 -5 -4 3)
1969/12/31/18:00:18.743000,(-17 -10 -6 -11 -4 -3 -8 -20)
1969/12/31/18:00:18.750000,(7 7 2 2 -2 1 4 8)
1969/12/31/18:00:18.750000,(11 7 5 7 8 6 9 13)
1969/12/31/18:00:18.766000,(0 0 0 1 -7 -8 -7 -5)
1969/12/31/18:00:18.766000,(-15 -10 -6 0 -4 -1 -1 -8)
1969/12/31/18:00:18.767000,(-5 -5 -2 -2 2 -4 -7 -6)
1969/12/31/18:00:18.767000,(-8 -9 -6 -14 -8 -1 -5 -9)
1969/12/31/18:00:18.780000,(1 1 -2 -18 -19 -3 -1 2)
1969/12/31/18:00:18.780000,(-4 -2 1 17 11 -2 -2 -3)
1969/12/31/18:00:18.789000,(8 6 0 -12 0 2 2 5)
1969/12/31/18:00:18.789000,(6 4 -3 -21 2 1 1 4)
1969/12/31/18:00:18.802000,(1 0 9 12 -13 3 12 14)
1969/12/31/18:00:18.802000,(-9 -10 -13 -30 8 -4 -3 -5)
1969/12/31/18:00:18.811000,(2 1 10 65 11 7 3 -1)
1969/12/31/18:00:18.811000,(-9 -3 11 37 28 6 0 -6)
1969/12/31/18:00:18.826000,(33 17 -8 -74 -24 6 9 19)
1969/12/31/18:00:18.826000,(-8 -2 -3 18 7 -4 -2 -8)
1969/12/31/18:00:18.827000,(-7 -11 -17 -45 -15 -14 -17 -10)
1969/12/31/18:00:18.827000,(-4 -11 3 24 -11 -2 2 4)
1969/12/31/18:00:18.849000,(11 19 11 32 25 8 5 0)
1969/12/31/18:00:18.849000,(-1 -1 1 -9 -12 -4 -5 -1)
1969/12/31/18:00:18.850000,(2 3 -2 -12 -4 -1 2 0)
1969/12/31/18:00:18.850000,(-3 -4 -16 -54 -23 -8 -4 -4)
1969/12/31/18:00:18.862000,(-6 -8 -6 16 -9 -5 -2 -2)
1969/12/31/18:00:18.862000,(15 17 25 52 18 6 7 8)
1969/12/31/18:00:18.871000,(-4 -3 7 27 20 2 -5 -5)
1969/12/31/18:00:18.871000,(-7 -5 -7 -35 -16 0 4 -2)
1969/12/31/18:00:18.886000,(-9 -5 -10 -29 2 -11 -10 -9)
1969/12/31/18:00:18.886000,(6 -2 -15 -28 -27 -1 3 6)
1969/12/31/18:00:18.887000,(-2 -1 4 27 12 -1 -2 -3)
1969/12/31/18:00:18.887000,(8 11 21 72 21 8 6 5)
1969/12/31/18:00:18.909000,(-23 -20 8 23 22 2 -5 -15)
1969/12/31/18:00:18.909000,(26 27 -11 -64 -27 -4 -1 7)
1969/12/31/18:00:18.910000,(-17 -18 -21 -39 -15 -14 -15 -16)
1969/12/31/18:00:18.910000,(7 3 1 8 -15 -3 0 5)
1969/12/31/18:00:18.922000,(-15 -10 2 24 11 -1 -5 -9)
1969/12/31/18:00:18.922000,(10 5 11 13 13 6 6 10)
1969/12/31/18:00:18.938000,(-1 2 6 15 6 5 2 1)
1969/12/31/18:00:18.938000,(3 5 -5 -22 -3 -4 -3 -2)
1969/12/31/18:00:18.946000,(-1 -8 -14 -47 -29 -5 0 2)
1969/12/31/18:00:18.946000,(-1 -5 -7 17 15 2 -1 -1)
1969/12/31/18:00:18.947000,(10 10 7 -4 -4 4 6 8)
1969/12/31/18:00:18.947000,(-1 2 12 24 6 0 0 -1)
1969/12/31/18:00:18.968000,(-1 2 3 -3 -7 -2 -3 -3)
1969/12/31/18:00:18.968000,(-23 -23 -24 -56 -17 -8 -8 -15)
1969/12/31/18:00:18.970000,(12 9 10 62 12 4 7 13)
1969/12/31/18:00:18.970000,(16 20 28 55 38 14 12 18)
1969/12/31/18:00:18.982000,(-9 -4 0 15 0 -2 1 -2)
1969/12/31/18:00:18.982000,(-8 -4 -6 -43 -15 -4 -3 -4)
1969/12/31/18:00:18.991000,(9 2 -10 -35 -15 -6 1 4)
1969/12/31/18:00:18.991000,(-2 0 -10 -13 -6 -1 2 4)
1969/12/31/18:00:19.006000,(1 -1 2 22 17 6 5 6)
1969/12/31/18:00:19.006000,(1 0 20 48 20 10 5 4)
1969/12/31/18:00:19.007000,(-11 -4 -5 -31 -14 -6 -7 -9)
1969/12/31/18:00:19.007000,(2 -5 -16 -37 -21 -4 -1 1)
1969/12/31/18:00:19.028000,(-8 -7 -5 1 -5 2 2 -5)
1969/12/31/18:00:19.029000,(-3 -4 4 28 10 -2 -5 -7)
1969/12/31/18:00:19.030000,(20 29 4 -25 -10 1 6 9)
1969/12/31/18:00:19.030000,(9 -1 5 21 15 5 3 1)
1969/12/31/18:00:19.042000,(11 0 -1 14 9 -4 -10 -6)
1969/12/31/18:00:19.042000,(-6 2 4 -1 -9 -4 -3 -5)
1969/12/31/18:00:19.051000,(-18 -21 -7 -7 3 9 9 0)
1969/12/31/18:00:19.051000,(0 -1 -3 0 -2 -6 -6 -3)
1969/12/31/18:00:19.067000,(1 7 -1 -11 -1 -3 0 1)
1969/12/31/18:00:19.067000,(8 4 8 20 -1 -5 -6 -1)
1969/12/31/18:00:19.068000,(-5 -5 -2 -12 6 -1 -4 -4)
1969/12/31/18:00:19.068000,(2 1 -9 -23 -20 -3 -2 -2)
1969/12/31/18:00:19.088000,(-3 -4 -1 7 0 -4 -1 -1)
1969/12/31/18:00:19.088000,(1 0 -4 -3 -1 0 -2 0)
1969/12/31/18:00:19.090000,(-25 -26 -2 12 4 -8 -14 -15)
1969/12/31/18:00:19.090000,(18 11 -2 -26 -9 1 -2 -2)
1969/12/31/18:00:19.102000,(5 3 -2 14 8 0 2 4)
1969/12/31/18:00:19.102000,(-15 -16 -6 -1 -1 -5 -9 -15)
1969/12/31/18:00:19.111000,(3 1 -4 -27 -10 1 2 1)
1969/12/31/18:00:19.111000,(-25 -19 0 16 0 -5 -8 -18)
1969/12/31/18:00:19.126000,(14 14 14 14 5 8 14 16)
1969/12/31/18:00:19.126000,(0 -1 -1 -4 11 -2 -4 -2)
1969/12/31/18:00:19.132000,(6 10 6 4 -9 3 8 7)
1969/12/31/18:00:19.132000,(-14 -8 -4 -3 -2 -4 -2 -3)
1969/12/31/18:00:19.148000,(-6 -6 -7 -6 -3 1 1 -4)
1969/12/31/18:00:19.148000,(9 10 3 5 0 2 6 7)
1969/12/31/18:00:19.150000,(-1 -10 -1 9 14 9 11 13)
1969/12/31/18:00:19.150000,(-21 -22 -9 -7 1 -6 -13 -14)
1969/12/31/18:00:19.162000,(20 19 9 8 8 18 26 29)
1969/12/31/18:00:19.162000,(-12 -15 -10 -11 -12 -6 -10 -12)
1969/12/31/18:00:19.171000,(2 3 -5 -6 -9 -5 -4 -2)
1969/12/31/18:00:19.171000,(13 7 5 -6 1 2 8 15)
1969/12/31/18:00:19.186000,(-6 -8 -8 -14 -4 -7 -13 -10)
1969/12/31/18:00:19.186000,(1 5 9 22 -11 -2 -1 -3)
1969/12/31/18:00:19.187000,(13 11 4 21 21 7 6 5)
1969/12/31/18:00:19.187000,(12 10 -2 5 4 2 3 7)
1969/12/31/18:00:19.209000,(-13 -12 -6 -18 -5 -7 -12 -13)
1969/12/31/18:00:19.209000,(-1 -2 -6 -16 -8 2 5 5)
1969/12/31/18:00:19.210000,(-11 -8 -2 5 -10 -13 -17 -17)
1969/12/31/18:00:19.210000,(9 4 -3 -7 9 8 15 14)
1969/12/31/18:00:19.222000,(-5 4 6 7 -4 4 6 4)
1969/12/31/18:00:19.222000,(4 3 4 2 5 8 8 13)
1969/12/31/18:00:19.231000,(2 -2 4 3 -1 -3 1 4)
1969/12/31/18:00:19.231000,(10 17 -2 -10 -5 -4 -2 0)
1969/12/31/18:00:19.245000,(-11 -20 -7 0 -2 -6 -8 -9)
1969/12/31/18:00:19.245000,(-7 2 4 10 4 2 1 -5)
1969/12/31/18:00:19.252000,(12 22 1 -5 -1 0 2 3)
