time,.data
1969/12/31/18:00:14.271,(-17 -12 -25 -19 -5 -5 -6 -6)
1969/12/31/18:00:14.271,(-2 -11 -8 -4 -2 -1 -2 -1)
1969/12/31/18:00:14.280,(-3 -1 -1 -5 -1 -2 -1 -2)
1969/12/31/18:00:14.280,(1 4 -10 -5 -3 -3 0 0)
1969/12/31/18:00:14.294,(2 11 23 12 3 -1 -2 -1)
1969/12/31/18:00:14.294,(-2 -6 -7 -2 0 -2 -1 1)
1969/12/31/18:00:14.296,(-4 0 2 2 1 -3 -1 -1)
1969/12/31/18:00:14.296,(2 4 -7 -2 -1 -4 0 3)
1969/12/31/18:00:14.318,(-2 1 5 6 2 -5 1 4)
1969/12/31/18:00:14.318,(-6 -12 -15 -9 -3 1 9 4)
1969/12/31/18:00:14.319,(-4 -1 -9 -6 0 -14 -7 2)
1969/12/31/18:00:14.319,(16 10 3 1 -6 -9 1 7)
1969/12/31/18:00:14.331,(-7 -1 -1 0 0 -14 -2 -1)
1969/12/31/18:00:14.331,(-9 -8 -13 -7 1 15 7 1)
1969/12/31/18:00:14.339,(-9 5 9 11 27 8 9 -3)
1969/12/31/18:00:14.340,(5 1 -3 -3 -16 2 -6 -5)
1969/12/31/18:00:14.355,(-38 -12 2 2 8 -4 -6 -9)
1969/12/31/18:00:14.355,(-5 -9 -5 -5 -15 -26 -9 -7)
1969/12/31/18:00:14.356,(11 0 5 -1 -5 20 1 5)
1969/12/31/18:00:14.356,(20 12 2 0 3 -9 10 1)
1969/12/31/18:00:14.377,(-4 6 0 -4 -8 6 1 -5)
1969/12/31/18:00:14.377,(-7 -6 1 -3 6 42 11 9)
1969/12/31/18:00:14.379,(1 -4 -10 -7 -14 -73 -9 -11)
1969/12/31/18:00:14.379,(-26 -14 -2 15 9 -2 -44 2)
1969/12/31/18:00:14.391,(36 9 2 2 1 8 6 8)
1969/12/31/18:00:14.391,(-4 6 2 4 3 -24 -1 -16)
1969/12/31/18:00:14.400,(-5 -2 1 -7 -4 25 6 -1)
1969/12/31/18:00:14.400,(13 3 2 -2 2 20 -3 10)
1969/12/31/18:00:14.415,(-1 8 12 7 -5 -46 8 -3)
1969/12/31/18:00:14.415,(22 -1 -7 -7 7 51 -16 22)
1969/12/31/18:00:14.416,(1 -3 -2 -7 -15 -37 -17 -22)
1969/12/31/18:00:14.416,(-13 -6 2 -2 -6 -20 -14 -20)
1969/12/31/18:00:14.438,(22 10 7 2 2 14 5 28)
1969/12/31/18:00:14.438,(-43 -19 -16 -9 -13 -26 -6 -19)
1969/12/31/18:00:14.439,(36 17 -1 0 -2 33 -6 -3)
1969/12/31/18:00:14.439,(-37 -18 -4 -3 3 -8 8 -8)
1969/12/31/18:00:14.451,(-8 -11 -4 -4 -9 -5 6 2)
1969/12/31/18:00:14.451,(9 9 4 -9 -19 -24 -9 -12)
1969/12/31/18:00:14.460,(11 -10 3 4 11 22 -1 12)
1969/12/31/18:00:14.460,(-4 8 7 0 -7 -1 18 -21)
1969/12/31/18:00:14.475,(16 0 -1 1 6 30 5 10)
1969/12/31/18:00:14.475,(25 5 -2 2 -4 -40 4 22)
1969/12/31/18:00:14.476,(17 16 14 12 10 44 19 25)
1969/12/31/18:00:14.476,(-67 -31 -18 -17 -21 2 8 -46)
1969/12/31/18:00:14.497,(-27 -17 -11 -9 0 12 -32 -36)
1969/12/31/18:00:14.497,(4 26 12 10 4 -9 3 18)
1969/12/31/18:00:14.499,(26 -9 -4 -4 -5 -25 -1 9)
1969/12/31/18:00:14.499,(25 -7 -3 -1 4 -7 -1 -29)
1969/12/31/18:00:14.511,(-16 -5 -5 -2 0 11 20 50)
1969/12/31/18:00:14.511,(-18 -17 -8 -6 -2 3 -34 -47)
1969/12/31/18:00:14.520,(1 18 7 6 13 14 22 20)
1969/12/31/18:00:14.520,(0 10 4 3 8 -7 -24 -9)
1969/12/31/18:00:14.534,(-3 -4 -5 -1 9 22 9 -21)
1969/12/31/18:00:14.534,(34 25 6 1 -14 -48 -15 -5)
1969/12/31/18:00:14.536,(-32 -3 0 3 0 15 11 10)
1969/12/31/18:00:14.536,(10 -35 -13 -3 1 -15 -1 29)
1969/12/31/18:00:14.557,(-8 7 -1 -4 -8 -9 -8 -38)
1969/12/31/18:00:14.557,(-3 12 8 9 15 52 25 11)
1969/12/31/18:00:14.559,(-19 16 -2 -3 -10 -34 -21 -24)
1969/12/31/18:00:14.559,(19 -8 1 3 4 -7 10 52)
1969/12/31/18:00:14.571,(38 3 -1 1 -2 4 7 6)
1969/12/31/18:00:14.571,(-26 -31 -12 -6 2 24 8 -16)
1969/12/31/18:00:14.588,(11 -6 -7 -10 -16 -26 -13 -3)
1969/12/31/18:00:14.588,(-20 8 4 -2 -13 28 12 -3)
1969/12/31/18:00:14.594,(-7 1 4 8 26 1 9 0)
1969/12/31/18:00:14.594,(4 -7 -11 -6 -12 -10 25 8)
1969/12/31/18:00:14.596,(6 7 5 8 17 -3 -4 -5)
1969/12/31/18:00:14.596,(34 20 6 1 3 60 53 42)
1969/12/31/18:00:14.617,(1 7 1 -2 -13 -53 -40 -30)
1969/12/31/18:00:14.617,(-20 -18 -6 -4 10 77 -8 -23)
1969/12/31/18:00:14.618,(-21 -22 -5 -7 -28 -83 -5 17)
1969/12/31/18:00:14.618,(4 12 1 2 13 8 17 -10)
1969/12/31/18:00:14.631,(58 15 5 1 -3 30 -5 71)
1969/12/31/18:00:14.631,(-9 11 6 6 8 -13 -4 15)
1969/12/31/18:00:14.640,(15 -27 -9 -5 0 46 8 -31)
1969/12/31/18:00:14.640,(24 12 0 -2 5 -8 -8 25)
1969/12/31/18:00:14.655,(-56 -22 -12 -8 -15 -28 -11 -30)
1969/12/31/18:00:14.655,(13 8 1 -1 -4 -20 -15 -4)
1969/12/31/18:00:14.656,(1 14 1 1 4 29 -53 -23)
1969/12/31/18:00:14.656,(11 -2 -2 1 -5 -70 7 39)
1969/12/31/18:00:14.677,(-5 3 4 6 3 72 -7 -25)
1969/12/31/18:00:14.677,(15 7 6 5 9 -17 -5 15)
1969/12/31/18:00:14.679,(-41 -3 3 3 0 10 6 -51)
1969/12/31/18:00:14.679,(9 13 4 5 4 36 26 35)
1969/12/31/18:00:14.691,(15 -1 -3 -4 7 23 14 -20)
1969/12/31/18:00:14.691,(-23 -4 -3 -8 -25 -80 -67 -41)
1969/12/31/18:00:14.700,(6 -12 -4 -1 4 28 19 21)
1969/12/31/18:00:14.700,(-43 -17 -6 -5 -5 -9 10 18)
1969/12/31/18:00:14.714,(1 15 8 5 -6 -43 -19 11)
1969/12/31/18:00:14.714,(-11 -7 -1 -1 5 41 22 -28)
1969/12/31/18:00:14.721,(-25 -1 1 1 -1 -25 -36 -40)
1969/12/31/18:00:14.721,(1 -1 -8 -7 -9 -15 25 15)
1969/12/31/18:00:14.737,(-9 4 0 2 8 0 31 69)
1969/12/31/18:00:14.737,(18 -48 -11 -3 0 -6 -12 17)
1969/12/31/18:00:14.739,(5 9 -3 -5 -6 -15 19 25)
1969/12/31/18:00:14.739,(4 16 5 0 10 58 -41 -74)
1969/12/31/18:00:14.751,(5 -12 -7 -4 -5 -25 28 49)
1969/12/31/18:00:14.751,(50 36 24 17 15 27 19 27)
1969/12/31/18:00:14.760,(-17 -24 -15 -12 -17 -23 -5 -40)
1969/12/31/18:00:14.760,(-9 -4 -4 0 0 -11 -20 -19)
1969/12/31/18:00:14.774,(-4 13 3 -2 -4 -8 -6 -6)
1969/12/31/18:00:14.774,(-33 -24 -15 -13 -11 -5 -3 -39)
1969/12/31/18:00:14.782,(-23 -9 -1 -3 0 -17 3 -50)
1969/12/31/18:00:14.782,(24 28 11 5 10 27 7 -7)
1969/12/31/18:00:14.797,(-9 -16 -1 -2 -4 -5 -18 -10)
1969/12/31/18:00:14.797,(-3 8 -1 -3 -5 -2 26 -3)
1969/12/31/18:00:14.799,(18 8 0 3 6 6 4 106)
1969/12/31/18:00:14.799,(2 -6 0 -1 -4 -19 -24 -15)
1969/12/31/18:00:14.820,(-18 -10 -4 -1 -2 -16 -18 -75)
1969/12/31/18:00:14.820,(36 9 -2 -2 -1 4 8 53)
1969/12/31/18:00:14.821,(-28 -12 -7 -7 -3 53 25 -10)
1969/12/31/18:00:14.821,(-4 3 5 2 2 21 12 -54)
1969/12/31/18:00:14.834,(21 0 -6 -6 -6 41 -56 3)
1969/12/31/18:00:14.834,(4 14 9 6 -1 -43 -8 -12)
1969/12/31/18:00:14.841,(0 -1 2 1 -3 0 14 -28)
1969/12/31/18:00:14.841,(-36 -17 -3 0 -2 -25 -7 -9)
1969/12/31/18:00:14.857,(42 16 2 3 5 18 26 21)
1969/12/31/18:00:14.857,(-50 -4 -9 -7 -1 3 -4 -35)
1969/12/31/18:00:14.859,(-54 -56 -23 -15 -12 -16 3 -8)
1969/12/31/18:00:14.859,(3 15 3 -2 -5 -27 -22 8)
1969/12/31/18:00:14.880,(-4 -11 3 3 2 -10 12 -11)
1969/12/31/18:00:14.880,(42 22 2 2 2 5 1 11)
1969/12/31/18:00:14.881,(44 28 12 11 7 2 25 97)
1969/12/31/18:00:14.881,(-17 3 0 0 1 4 -12 -29)
1969/12/31/18:00:14.894,(-44 -14 -9 -8 -10 -20 -18 -45)
1969/12/31/18:00:14.894,(-4 -20 1 4 2 -7 12 23)
1969/12/31/18:00:14.901,(3 7 4 4 7 23 -11 -6)
1969/12/31/18:00:14.901,(94 18 7 7 8 3 17 105)
1969/12/31/18:00:14.917,(2 6 1 -3 -3 -18 4 -4)
1969/12/31/18:00:14.918,(-6 -6 -3 -3 0 21 -10 16)
1969/12/31/18:00:14.919,(24 25 9 6 4 1 4 21)
1969/12/31/18:00:14.919,(13 -6 -10 -8 -4 -17 -1 25)
1969/12/31/18:00:14.940,(-80 -29 -8 -8 -21 -31 -44 -76)
1969/12/31/18:00:14.940,(-8 4 -4 -6 -5 -2 -8 -35)
1969/12/31/18:00:14.941,(16 -40 -2 0 4 2 -13 6)
1969/12/31/18:00:14.941,(-27 -8 -5 -3 1 23 9 -42)
1969/12/31/18:00:14.954,(-12 0 -1 0 -4 -46 1 50)
1969/12/31/18:00:14.954,(-1 1 1 1 0 8 9 3)
1969/12/31/18:00:14.961,(4 18 3 2 5 -8 -7 -1)
1969/12/31/18:00:14.961,(-16 -7 1 3 1 7 7 -6)
1969/12/31/18:00:14.976,(31 25 18 13 14 30 37 39)
1969/12/31/18:00:14.976,(-41 -13 -15 -7 4 -17 -34 -72)
1969/12/31/18:00:14.991,(24 12 4 5 41 31 11 5)
1969/12/31/18:00:14.991,(-10 3 5 8 -35 -39 -14 -5)
1969/12/31/18:00:15.000,(35 -11 -5 -18 -44 5 0 48)
1969/12/31/18:00:15.000,(-16 0 -1 -15 -42 -46 0 -16)
1969/12/31/18:00:15.002,(3 7 -3 -10 -12 10 7 -2)
1969/12/31/18:00:15.002,(2 12 3 6 34 -4 -32 -31)
1969/12/31/18:00:15.014,(8 -18 -1 7 20 17 24 -14)
1969/12/31/18:00:15.014,(13 -7 -1 5 22 73 1 -13)
1969/12/31/18:00:15.021,(12 9 2 5 9 -18 11 43)
1969/12/31/18:00:15.021,(-29 -18 -10 -12 -36 -39 1 -24)
1969/12/31/18:00:15.037,(15 24 5 5 22 24 3 -27)
1969/12/31/18:00:15.037,(16 -23 -6 -1 5 4 11 58)
1969/12/31/18:00:15.039,(9 13 10 25 68 46 -6 8)
1969/12/31/18:00:15.039,(1 -4 -10 -23 -88 -50 -9 -26)
1969/12/31/18:00:15.060,(10 0 -8 -23 -41 -21 -8 28)
1969/12/31/18:00:15.060,(-23 -1 3 12 81 34 20 -8)
1969/12/31/18:00:15.061,(-15 -8 -3 0 -53 -56 -11 -6)
1969/12/31/18:00:15.061,(24 36 22 18 58 34 42 89)
1969/12/31/18:00:15.073,(-52 -52 -22 -4 5 -5 -21 -37)
1969/12/31/18:00:15.073,(41 19 -2 -14 -41 -10 10 36)
1969/12/31/18:00:15.082,(-47 3 23 22 53 43 1 -63)
1969/12/31/18:00:15.082,(-14 -27 -9 -25 -78 -48 -34 -10)
1969/12/31/18:00:15.097,(70 47 2 3 19 17 33 68)
1969/12/31/18:00:15.097,(-17 -16 -7 11 23 9 -8 -18)
1969/12/31/18:00:15.099,(8 10 -7 -21 -33 -22 -7 -1)
1969/12/31/18:00:15.099,(-8 -12 -1 9 43 25 3 2)
1969/12/31/18:00:15.120,(34 10 -35 0 10 14 -8 4)
1969/12/31/18:00:15.120,(-1 20 62 29 -7 -37 27 67)
1969/12/31/18:00:15.121,(-1 -25 -13 -13 -20 -7 -35 -19)
1969/12/31/18:00:15.121,(-4 7 -13 -16 10 22 -6 -9)
1969/12/31/18:00:15.133,(-14 -6 16 12 58 22 -3 -13)
1969/12/31/18:00:15.133,(-12 -27 -49 -18 -75 -58 -10 -33)
1969/12/31/18:00:15.143,(54 40 23 -16 -68 -46 -20 17)
1969/12/31/18:00:15.143,(-40 -34 -5 -2 16 6 -22 -31)
1969/12/31/18:00:15.157,(18 27 26 15 17 15 22 19)
1969/12/31/18:00:15.157,(-1 17 -2 1 31 15 -12 -12)
1969/12/31/18:00:15.163,(15 13 31 24 15 -1 1 17)
1969/12/31/18:00:15.163,(-46 -82 -22 -7 -26 -9 -3 -5)
1969/12/31/18:00:15.180,(-25 16 7 -2 0 -21 -40 -45)
1969/12/31/18:00:15.180,(4 -19 18 7 -8 -6 10 20)
1969/12/31/18:00:15.181,(-25 13 -13 -12 -1 1 1 -47)
1969/12/31/18:00:15.181,(46 21 32 28 47 48 19 43)
1969/12/31/18:00:15.193,(-71 -16 2 9 50 28 22 -64)
1969/12/31/18:00:15.193,(49 49 14 -13 -77 -48 -41 -4)
1969/12/31/18:00:15.202,(-19 -69 -51 -9 45 43 15 -53)
1969/12/31/18:00:15.202,(33 5 -84 -38 -63 -41 28 7)
1969/12/31/18:00:15.217,(-24 -9 77 11 -42 -23 -28 -32)
1969/12/31/18:00:15.217,(-35 -29 -31 5 36 4 -5 -27)
1969/12/31/18:00:15.219,(-3 42 40 -14 -50 -42 -32 -48)
1969/12/31/18:00:15.219,(20 32 17 3 34 8 -36 -33)
1969/12/31/18:00:15.240,(93 -111 -128 -59 -25 -3 13 64)
1969/12/31/18:00:15.240,(-82 46 100 33 39 28 5 -62)
1969/12/31/18:00:15.241,(-2 36 -33 -6 -9 -9 -7 22)
1969/12/31/18:00:15.241,(-5 99 113 62 51 27 5 31)
1969/12/31/18:00:15.253,(17 29 32 10 -14 4 -16 45)
1969/12/31/18:00:15.253,(54 -11 -19 -4 -35 -50 3 74)
1969/12/31/18:00:15.262,(-47 -65 -45 -15 -17 -1 -40 -51)
1969/12/31/18:00:15.262,(64 -80 -71 -31 6 29 22 29)
1969/12/31/18:00:15.277,(1 -73 -76 -29 -23 -13 34 37)
1969/12/31/18:00:15.277,(62 45 -70 -30 56 67 53 62)
1969/12/31/18:00:15.279,(-72 105 108 66 -28 -59 -35 -34)
1969/12/31/18:00:15.279,(58 20 -2 31 38 47 -11 33)
1969/12/31/18:00:15.299,(24 -39 -4 7 4 -20 -4 -93)
1969/12/31/18:00:15.299,(20 -91 -91 -54 -22 23 12 -12)
1969/12/31/18:00:15.301,(-1 8 3 -4 10 5 20 18)
1969/12/31/18:00:15.301,(-26 66 71 -4 -31 -21 0 -35)
1969/12/31/18:00:15.313,(-95 -18 -39 -5 21 -22 -58 -92)
1969/12/31/18:00:15.313,(-13 37 52 32 -28 -12 -6 10)
1969/12/31/18:00:15.322,(73 -24 -32 -9 36 31 64 106)
1969/12/31/18:00:15.322,(-51 -81 -46 -29 -24 -13 -12 -94)
1969/12/31/18:00:15.337,(-18 127 92 17 -32 -18 -43 -33)
1969/12/31/18:00:15.337,(-53 -29 23 25 48 19 -1 -34)
1969/12/31/18:00:15.339,(15 -35 -32 -4 2 -1 3 27)
1969/12/31/18:00:15.339,(3 -48 -29 -8 12 -8 29 69)
1969/12/31/18:00:15.360,(-79 -87 -67 -62 -91 -39 -19 -51)
1969/12/31/18:00:15.360,(-11 -44 -74 -32 7 -2 -8 -33)
1969/12/31/18:00:15.361,(-18 71 88 36 -4 -1 10 -2)
1969/12/31/18:00:15.361,(21 4 -57 -16 25 13 14 35)
1969/12/31/18:00:15.375,(0 -25 -7 17 16 17 4 -11)
1969/12/31/18:00:15.375,(16 99 102 63 56 31 5 34)
1969/12/31/18:00:15.382,(-7 -72 -63 -25 -10 -10 4 -12)
1969/12/31/18:00:15.382,(-1 -23 -8 -12 -47 -33 -40 -7)
1969/12/31/18:00:15.397,(61 2 15 39 74 47 17 45)
1969/12/31/18:00:15.397,(1 25 40 -32 -95 -39 -1 20)
1969/12/31/18:00:15.399,(-31 -65 -71 -47 -37 -45 -14 -65)
1969/12/31/18:00:15.399,(-31 58 80 37 17 18 -4 -21)
1969/12/31/18:00:15.419,(56 1 -9 20 71 48 64 70)
1969/12/31/18:00:15.419,(2 -70 -82 -25 -18 -30 -34 -40)
1969/12/31/18:00:15.428,(-7 70 -7 -30 -17 8 -5 -12)
1969/12/31/18:00:15.428,(-4 44 36 23 -10 -18 -9 17)
1969/12/31/18:00:15.433,(21 -26 -37 -17 -9 27 54 73)
1969/12/31/18:00:15.433,(-11 19 40 27 56 0 -21 -47)
1969/12/31/18:00:15.442,(-5 -15 -20 -1 -19 -7 -4 8)
1969/12/31/18:00:15.442,(-38 -84 -65 -24 -10 -8 -34 -46)
1969/12/31/18:00:15.457,(-29 67 72 48 53 43 10 -14)
1969/12/31/18:00:15.457,(-12 -128 -128 -95 -124 -98 -13 30)
1969/12/31/18:00:15.459,(10 67 84 18 11 18 7 17)
1969/12/31/18:00:15.459,(14 54 9 20 45 9 -1 -13)
1969/12/31/18:00:15.480,(-3 -45 -30 5 10 19 -2 -21)
1969/12/31/18:00:15.480,(-39 -30 -36 -4 18 33 -25 -28)
1969/12/31/18:00:15.481,(23 -82 -43 4 64 23 27 44)
1969/12/31/18:00:15.481,(4 56 17 -14 -81 -63 -8 -26)
1969/12/31/18:00:15.493,(7 8 -16 -23 -49 -50 -30 12)
1969/12/31/18:00:15.493,(-44 86 105 57 63 55 -8 -50)
1969/12/31/18:00:15.502,(-5 -8 -10 -17 -25 -20 6 -18)
1969/12/31/18:00:15.502,(-17 -128 -78 -33 8 17 10 9)
1969/12/31/18:00:15.517,(25 101 48 28 27 11 4 14)
1969/12/31/18:00:15.517,(-19 -64 -27 -8 -38 -21 12 -13)
1969/12/31/18:00:15.519,(-32 101 116 50 35 18 -13 -17)
1969/12/31/18:00:15.519,(37 22 31 30 63 43 19 17)
1969/12/31/18:00:15.540,(-38 -67 -70 -41 -68 -66 -50 -48)
1969/12/31/18:00:15.540,(22 4 32 3 -38 19 28 50)
1969/12/31/18:00:15.541,(39 -95 -86 -7 39 22 0 57)
1969/12/31/18:00:15.541,(44 20 18 -14 -54 -30 -2 23)
1969/12/31/18:00:15.553,(-41 2 -5 -12 7 -10 -3 -19)
1969/12/31/18:00:15.553,(-6 42 15 21 20 2 -6 -15)
1969/12/31/18:00:15.563,(40 -52 -54 -26 -9 -2 4 26)
1969/12/31/18:00:15.563,(-39 31 48 32 37 29 27 -5)
1969/12/31/18:00:15.577,(-21 25 10 -4 36 38 -14 -48)
1969/12/31/18:00:15.577,(14 -47 -49 -18 -25 -50 6 19)
1969/12/31/18:00:15.579,(20 -37 -10 -16 -8 17 20 35)
1969/12/31/18:00:15.579,(-37 36 28 28 45 8 -19 -17)
1969/12/31/18:00:15.599,(23 23 -22 -23 -91 -56 12 13)
1969/12/31/18:00:15.599,(28 9 34 -12 -21 -27 -21 6)
1969/12/31/18:00:15.601,(-22 -2 6 18 32 27 -23 -19)
1969/12/31/18:00:15.601,(-14 25 3 12 39 32 18 6)
1969/12/31/18:00:15.613,(10 -18 39 18 -1 -5 14 19)
1969/12/31/18:00:15.613,(3 -4 -34 -9 19 26 25 29)
1969/12/31/18:00:15.622,(13 7 -21 -14 9 -28 -8 -29)
1969/12/31/18:00:15.622,(-91 -86 -40 -11 -23 24 -52 -82)
1969/12/31/18:00:15.637,(53 27 -8 -24 -51 -66 4 33)
1969/12/31/18:00:15.637,(31 1 0 6 93 80 15 20)
1969/12/31/18:00:15.639,(-12 -30 -22 6 -46 -37 -9 -6)
1969/12/31/18:00:15.639,(-42 65 39 -20 -46 -10 36 2)
1969/12/31/18:00:15.660,(73 19 9 18 62 46 -5 68)
1969/12/31/18:00:15.660,(39 29 -34 -7 -39 -48 -31 7)
1969/12/31/18:00:15.661,(-28 -26 64 32 37 45 17 -22)
1969/12/31/18:00:15.661,(43 -47 -82 -29 -46 -45 -10 20)
1969/12/31/18:00:15.673,(-107 82 121 14 -23 -4 10 -43)
1969/12/31/18:00:15.673,(-1 -49 -29 -2 2 5 1 24)
1969/12/31/18:00:15.682,(12 -7 -47 -17 13 12 -14 -19)
1969/12/31/18:00:15.682,(38 -59 -37 -15 48 50 39 49)
1969/12/31/18:00:15.697,(12 -19 -25 -1 -10 -31 1 13)
1969/12/31/18:00:15.697,(-74 34 21 2 -30 -52 -64 -108)
1969/12/31/18:00:15.703,(-14 39 35 0 -42 3 32 25)
1969/12/31/18:00:15.703,(51 -28 -39 -31 -26 -31 -4 19)
1969/12/31/18:00:15.720,(-88 -76 -5 19 54 35 -26 -60)
1969/12/31/18:00:15.720,(40 112 117 41 1 12 20 -1)
1969/12/31/18:00:15.721,(14 -58 -96 -37 -12 -6 2 23)
1969/12/31/18:00:15.721,(-62 47 77 36 8 -13 -25 -48)
1969/12/31/18:00:15.742,(20 -4 -19 -2 9 38 15 6)
1969/12/31/18:00:15.742,(-12 -42 -26 3 27 -13 3 -3)
1969/12/31/18:00:15.744,(17 30 38 0 -86 -44 -2 -12)
1969/12/31/18:00:15.744,(1 -11 4 6 17 24 19 14)
1969/12/31/18:00:15.757,(15 6 -20 -1 15 0 1 8)
1969/12/31/18:00:15.757,(-6 2 0 -9 -9 38 34 24)
1969/12/31/18:00:15.759,(-4 -9 -9 -3 5 -20 -8 -11)
1969/12/31/18:00:15.759,(23 -36 -35 -5 2 -24 -17 17)
1969/12/31/18:00:15.779,(68 17 4 2 -9 0 14 57)
1969/12/31/18:00:15.779,(-32 -49 -62 -39 -2 -14 -64 -53)
1969/12/31/18:00:15.781,(-35 5 13 18 47 30 1 -52)
1969/12/31/18:00:15.781,(-23 59 59 4 -53 -54 -26 -37)
1969/12/31/18:00:15.802,(-42 -21 11 14 46 42 10 -19)
1969/12/31/18:00:15.802,(11 -55 -80 -24 -25 -11 18 11)
1969/12/31/18:00:15.803,(11 41 50 -14 -73 -59 6 24)
1969/12/31/18:00:15.803,(44 62 -9 3 42 32 -25 30)
1969/12/31/18:00:15.816,(4 -54 -27 -5 14 2 -25 -17)
1969/12/31/18:00:15.816,(-51 -25 -11 3 17 7 -11 -2)
1969/12/31/18:00:15.823,(23 34 6 4 -2 0 -5 -15)
1969/12/31/18:00:15.823,(-2 -27 -1 -15 -76 -20 41 28)
1969/12/31/18:00:15.840,(19 -9 -27 -3 28 1 4 14)
1969/12/31/18:00:15.840,(23 48 62 16 29 22 10 17)
1969/12/31/18:00:15.842,(-16 -75 -58 -10 28 18 -23 -8)
1969/12/31/18:00:15.842,(41 87 48 29 29 25 4 -10)
1969/12/31/18:00:15.862,(-21 -25 -13 2 -26 -15 11 -31)
1969/12/31/18:00:15.862,(14 7 32 9 -13 -3 -25 -19)
1969/12/31/18:00:15.864,(-20 8 -2 -3 20 -9 -9 -17)
1969/12/31/18:00:15.864,(37 -1 -12 2 40 49 13 43)
1969/12/31/18:00:15.876,(-49 -96 -60 -37 -83 -72 -32 -49)
1969/12/31/18:00:15.876,(40 66 30 -9 13 27 27 36)
1969/12/31/18:00:15.891,(-30 -28 -20 -6 -17 -10 13 18)
1969/12/31/18:00:15.891,(20 -18 -40 -13 28 10 -9 -4)
1969/12/31/18:00:15.900,(79 64 54 34 -23 -22 22 114)
1969/12/31/18:00:15.900,(-73 -48 -35 -24 -6 -3 -1 -73)
1969/12/31/18:00:15.901,(3 -23 16 17 32 26 1 14)
1969/12/31/18:00:15.901,(-21 -8 0 -3 -2 -10 -15 -41)
1969/12/31/18:00:15.922,(41 60 -15 -12 13 25 39 41)
1969/12/31/18:00:15.922,(27 -21 44 19 -23 -15 10 30)
1969/12/31/18:00:15.924,(78 24 -16 13 54 27 -3 70)
1969/12/31/18:00:15.924,(-25 -51 -33 -26 -47 -40 -2 -16)
1969/12/31/18:00:15.936,(-88 79 76 3 -34 -14 -50 -85)
1969/12/31/18:00:15.937,(78 -13 -72 -12 31 31 44 78)
1969/12/31/18:00:15.943,(-19 26 73 35 23 2 13 0)
1969/12/31/18:00:15.943,(-48 -41 -16 -9 -54 -27 11 -3)
1969/12/31/18:00:15.960,(11 -13 -18 -19 13 23 21 -14)
1969/12/31/18:00:15.960,(-2 -11 -1 -1 -2 7 -45 -10)
1969/12/31/18:00:15.961,(10 2 -27 -5 -15 -20 -10 -16)
1969/12/31/18:00:15.961,(59 35 21 2 20 25 8 38)
1969/12/31/18:00:15.983,(-21 -9 20 16 7 -40 -35 -83)
1969/12/31/18:00:15.983,(-45 1 -13 -5 -31 -14 -10 -4)
1969/12/31/18:00:15.984,(16 -62 -67 -26 12 38 24 6)
1969/12/31/18:00:15.984,(9 59 80 46 26 -14 2 18)
1969/12/31/18:00:15.997,(-11 30 12 -5 -29 -1 -21 -23)
1969/12/31/18:00:15.997,(2 2 27 22 44 12 32 19)
1969/12/31/18:00:16.003,(5 -26 -34 -5 -21 11 -7 21)
1969/12/31/18:00:16.003,(-80 -52 -43 -57 -67 -62 -54 -104)
1969/12/31/18:00:16.020,(26 5 -13 -6 19 15 -9 42)
1969/12/31/18:00:16.020,(-3 -30 -6 6 5 -7 15 18)
1969/12/31/18:00:16.021,(12 76 58 25 37 32 -12 4)
1969/12/31/18:00:16.021,(8 -17 -26 -1 25 14 41 28)
1969/12/31/18:00:16.042,(6 -4 17 4 -50 -33 3 -5)
1969/12/31/18:00:16.042,(3 7 -9 -19 -23 -31 -31 -30)
1969/12/31/18:00:16.043,(10 -25 -32 -11 1 12 17 -10)
1969/12/31/18:00:16.043,(-18 -32 -14 -7 33 20 -15 -37)
1969/12/31/18:00:16.056,(4 18 -8 -13 -12 -4 -11 -16)
1969/12/31/18:00:16.056,(22 17 10 35 52 42 46 54)
1969/12/31/18:00:16.065,(-62 -8 37 -21 -88 -76 -39 -65)
1969/12/31/18:00:16.065,(14 15 11 5 12 15 0 -3)
1969/12/31/18:00:16.080,(-72 -67 -33 -13 32 23 10 -12)
1969/12/31/18:00:16.080,(43 40 -19 -14 -44 -19 1 14)
1969/12/31/18:00:16.081,(44 62 30 21 29 26 27 14)
1969/12/31/18:00:16.081,(-45 -45 14 11 -8 -18 -13 -27)
1969/12/31/18:00:16.103,(27 -39 -27 -6 30 27 6 31)
1969/12/31/18:00:16.103,(-43 -44 -47 -21 -14 -28 -24 -35)
1969/12/31/18:00:16.105,(-36 55 59 18 -17 -26 -10 7)
1969/12/31/18:00:16.105,(24 59 29 19 6 -2 -5 21)
1969/12/31/18:00:16.117,(28 -19 2 11 24 33 12 9)
1969/12/31/18:00:16.117,(44 19 9 12 40 24 23 61)
1969/12/31/18:00:16.123,(12 -12 -22 -15 -21 0 -6 -13)
1969/12/31/18:00:16.123,(53 -86 -95 -11 36 38 31 37)
1969/12/31/18:00:16.139,(-103 43 62 -14 -112 -96 -33 -37)
1969/12/31/18:00:16.140,(31 69 48 11 15 10 6 -3)
1969/12/31/18:00:16.141,(43 -11 -15 8 8 19 26 56)
1969/12/31/18:00:16.141,(-80 -15 7 8 99 69 -16 -54)
1969/12/31/18:00:16.162,(13 -85 -65 -20 -71 -63 -11 24)
1969/12/31/18:00:16.162,(8 -7 -24 -17 -37 -14 2 -13)
1969/12/31/18:00:16.164,(-2 91 92 47 58 32 18 -11)
1969/12/31/18:00:16.164,(94 -24 -60 -23 -25 -2 22 75)
1969/12/31/18:00:16.176,(-28 33 76 33 32 10 12 18)
1969/12/31/18:00:16.177,(-41 7 18 7 14 13 -28 -75)
1969/12/31/18:00:16.183,(21 -47 -69 -27 -11 1 3 36)
1969/12/31/18:00:16.183,(-3 -30 -20 -9 -35 -42 1 7)
1969/12/31/18:00:16.200,(44 31 -8 -9 5 22 16 25)
1969/12/31/18:00:16.200,(16 -32 6 4 -12 -18 -3 16)
1969/12/31/18:00:16.201,(8 8 -29 4 43 47 9 31)
1969/12/31/18:00:16.201,(-31 29 70 24 -23 -48 18 -22)
1969/12/31/18:00:16.222,(-14 -13 -22 -26 -34 -40 -58 -41)
1969/12/31/18:00:16.222,(5 -10 -11 -5 21 59 49 13)
1969/12/31/18:00:16.224,(-13 -41 -38 -36 -79 -91 -74 -25)
1969/12/31/18:00:16.224,(-31 -40 -40 -2 32 38 0 -18)
1969/12/31/18:00:16.237,(-7 60 54 40 50 22 18 4)
1969/12/31/18:00:16.237,(22 45 19 -7 -26 -19 -10 9)
1969/12/31/18:00:16.243,(-49 -57 -37 -20 7 4 -7 -46)
1969/12/31/18:00:16.243,(-10 34 66 21 -10 -10 -2 19)
1969/12/31/18:00:16.260,(60 2 -33 -4 15 23 12 27)
1969/12/31/18:00:16.260,(-52 -29 -20 -6 -3 -9 -22 -42)
1969/12/31/18:00:16.261,(-4 16 9 2 0 3 10 10)
1969/12/31/18:00:16.261,(26 4 -11 -3 -13 -14 -32 -24)
1969/12/31/18:00:16.282,(-42 -8 -13 8 106 90 14 -50)
1969/12/31/18:00:16.282,(-25 2 20 1 -71 -75 -15 -16)
1969/12/31/18:00:16.284,(2 -29 -25 -39 -29 -36 -27 -17)
1969/12/31/18:00:16.284,(28 17 6 7 12 13 19 34)
1969/12/31/18:00:16.296,(-30 -20 -22 -6 13 19 8 -18)
1969/12/31/18:00:16.296,(-22 -13 1 6 37 14 -12 -10)
1969/12/31/18:00:16.305,(-17 -20 -4 -1 -6 1 14 -21)
1969/12/31/18:00:16.305,(16 48 22 -1 -29 -24 -18 3)
1969/12/31/18:00:16.320,(34 22 16 20 17 12 -4 12)
1969/12/31/18:00:16.320,(61 -12 -41 -10 7 12 20 56)
1969/12/31/18:00:16.321,(-83 17 74 19 -19 -23 -12 -73)
1969/12/31/18:00:16.321,(-44 -51 -49 -24 -2 6 -3 -15)
1969/12/31/18:00:16.342,(49 -9 -10 1 -12 -5 20 43)
1969/12/31/18:00:16.342,(-10 -36 -14 -7 -4 -3 -8 14)
1969/12/31/18:00:16.344,(25 54 9 10 19 15 16 30)
1969/12/31/18:00:16.344,(-29 13 3 2 25 22 17 -66)
1969/12/31/18:00:16.356,(-13 -15 -13 -14 -61 -42 -65 -21)
1969/12/31/18:00:16.356,(0 -14 -10 -12 8 -4 -9 -8)
1969/12/31/18:00:16.365,(56 27 20 37 37 39 32 50)
1969/12/31/18:00:16.365,(-64 -34 -17 -42 -87 -64 -40 -47)
1969/12/31/18:00:16.380,(25 12 0 -12 6 -1 11 44)
1969/12/31/18:00:16.380,(-13 2 1 0 3 12 4 -11)
1969/12/31/18:00:16.381,(17 -16 -12 -2 24 18 -10 17)
1969/12/31/18:00:16.381,(16 27 11 10 12 2 6 16)
1969/12/31/18:00:16.402,(42 12 6 7 -7 -9 21 20)
1969/12/31/18:00:16.402,(-12 1 14 7 16 11 -1 -8)
1969/12/31/18:00:16.404,(-47 -26 -14 -12 -10 -8 5 -30)
1969/12/31/18:00:16.404,(9 6 0 6 -4 1 4 27)
1969/12/31/18:00:16.416,(15 -61 -40 -17 -2 -2 10 10)
1969/12/31/18:00:16.416,(0 56 52 23 13 11 14 18)
1969/12/31/18:00:16.425,(-9 -24 -13 -12 -18 -16 -15 -20)
1969/12/31/18:00:16.425,(1 27 4 11 0 -3 -24 -20)
1969/12/31/18:00:16.447,(3 15 18 9 21 11 11 28)
1969/12/31/18:00:16.447,(15 -1 -7 -1 -8 -4 1 -5)
1969/12/31/18:00:16.449,(-5 -17 -33 -23 -30 -22 1 -10)
1969/12/31/18:00:16.449,(-8 -16 11 14 77 66 9 77)
1969/12/31/18:00:16.462,(-23 5 7 3 -59 -52 -3 -34)
1969/12/31/18:00:16.462,(-19 -24 -15 -28 -46 -40 -20 -25)
1969/12/31/18:00:16.464,(-20 7 5 2 18 5 -9 -28)
1969/12/31/18:00:16.464,(26 2 -6 -2 -5 -4 8 23)
1969/12/31/18:00:16.476,(10 13 4 9 36 35 16 5)
1969/12/31/18:00:16.476,(-42 -11 3 5 15 8 0 -7)
1969/12/31/18:00:16.485,(18 3 4 3 -15 -9 0 24)
1969/12/31/18:00:16.485,(24 0 -4 -6 -4 -5 -4 -11)
1969/12/31/18:00:16.500,(-5 -9 -5 -2 11 5 -2 -5)
1969/12/31/18:00:16.500,(-10 -12 -13 -2 -3 -9 -17 -34)
1969/12/31/18:00:16.501,(11 12 6 3 13 16 13 27)
1969/12/31/18:00:16.501,(1 -6 16 7 -6 -7 -2 1)
1969/12/31/18:00:16.522,(-8 28 8 -33 -89 -39 21 -30)
1969/12/31/18:00:16.522,(-15 -20 -10 0 10 -10 -52 -5)
1969/12/31/18:00:16.524,(3 -4 -8 1 7 3 -15 -18)
1969/12/31/18:00:16.524,(-9 -54 -49 -16 18 15 31 0)
1969/12/31/18:00:16.536,(-7 18 14 12 3 -8 -9 1)
1969/12/31/18:00:16.536,(48 79 45 21 35 67 57 67)
1969/12/31/18:00:16.545,(-81 -65 -31 -18 -32 -75 -65 -94)
1969/12/31/18:00:16.545,(19 13 3 -3 -27 -25 -3 -8)
1969/12/31/18:00:16.559,(20 -34 -32 -9 21 13 -8 12)
1969/12/31/18:00:16.559,(-5 2 -1 0 1 7 12 4)
1969/12/31/18:00:16.561,(16 18 20 11 30 36 21 32)
1969/12/31/18:00:16.561,(-17 -9 -14 -5 3 5 18 -6)
1969/12/31/18:00:16.582,(2 4 6 -9 -30 -25 -25 1)
1969/12/31/18:00:16.582,(26 1 10 17 40 23 -3 -4)
1969/12/31/18:00:16.584,(35 26 8 -6 -29 6 45 39)
1969/12/31/18:00:16.584,(12 -12 -24 -22 -41 -53 -47 -21)
1969/12/31/18:00:16.596,(11 7 6 10 46 33 18 24)
1969/12/31/18:00:16.596,(-45 -7 15 4 -12 -14 3 -7)
1969/12/31/18:00:16.605,(-10 -12 -14 -2 15 5 -23 -63)
1969/12/31/18:00:16.605,(-19 4 14 8 1 8 0 -19)
1969/12/31/18:00:16.620,(-16 -1 -15 -4 6 -2 -15 -21)
1969/12/31/18:00:16.620,(50 -17 -17 3 24 14 18 29)
1969/12/31/18:00:16.621,(-14 4 6 -19 -61 -43 -30 -23)
1969/12/31/18:00:16.621,(25 13 1 4 20 18 19 28)
1969/12/31/18:00:16.642,(-36 -26 -4 -8 -16 -12 -28 -34)
1969/12/31/18:00:16.642,(-1 11 1 8 29 8 10 -15)
1969/12/31/18:00:16.644,(6 0 1 8 35 72 34 40)
1969/12/31/18:00:16.644,(10 6 4 -5 -63 -76 -37 -18)
1969/12/31/18:00:16.656,(3 -3 -1 -5 9 14 42 28)
1969/12/31/18:00:16.656,(-15 -2 -19 -12 -23 -21 -27 -29)
1969/12/31/18:00:16.666,(26 -2 2 1 12 4 4 21)
1969/12/31/18:00:16.666,(-69 -3 14 25 70 58 -5 -27)
1969/12/31/18:00:16.680,(13 -4 4 -6 -40 -36 3 -6)
1969/12/31/18:00:16.680,(-4 13 9 -4 -21 -14 -3 -1)
1969/12/31/18:00:16.681,(-7 -27 -27 -12 -4 -10 -7 -17)
1969/12/31/18:00:16.681,(2 4 -1 -7 -3 8 3 10)
1969/12/31/18:00:16.702,(-21 -2 7 12 19 12 -11 -8)
1969/12/31/18:00:16.702,(-6 -5 -11 -7 -8 -5 -2 -13)
1969/12/31/18:00:16.703,(51 24 10 7 5 0 27 55)
1969/12/31/18:00:16.703,(11 -5 8 1 -4 -2 -23 11)
1969/12/31/18:00:16.725,(17 18 3 4 24 40 13 41)
1969/12/31/18:00:16.725,(44 1 6 9 20 10 23 50)
1969/12/31/18:00:16.727,(-13 10 12 7 -26 -28 -24 -27)
1969/12/31/18:00:16.727,(32 17 1 -13 -19 -9 32 31)
1969/12/31/18:00:16.739,(-21 -5 -10 -5 5 -4 -31 -34)
1969/12/31/18:00:16.739,(-33 -14 -5 -5 5 6 -1 -17)
1969/12/31/18:00:16.741,(12 1 18 21 44 28 17 30)
1969/12/31/18:00:16.741,(-38 -21 -19 -19 -27 -24 -39 -61)
1969/12/31/18:00:16.762,(-1 4 5 5 6 -5 6 -1)
1969/12/31/18:00:16.762,(36 13 -4 -2 -7 -9 -12 -4)
1969/12/31/18:00:16.764,(3 -1 -5 -7 -12 -10 -6 -8)
1969/12/31/18:00:16.764,(-14 -17 -11 -5 -6 -3 3 -1)
1969/12/31/18:00:16.785,(5 16 18 9 15 16 19 21)
1969/12/31/18:00:16.785,(-25 -1 3 -1 -17 -17 -12 -20)
1969/12/31/18:00:16.786,(-5 -6 -9 -10 -7 -6 -3 16)
1969/12/31/18:00:16.786,(22 8 6 7 13 17 10 24)
1969/12/31/18:00:16.800,(20 12 -8 -1 1 -12 9 -1)
1969/12/31/18:00:16.800,(11 -6 -3 -6 -22 -6 -7 13)
1969/12/31/18:00:16.801,(-23 -7 -2 -6 -3 -6 -7 -3)
1969/12/31/18:00:16.801,(-14 7 0 -2 6 5 3 -10)
1969/12/31/18:00:16.823,(22 9 3 7 -4 -4 -1 2)
1969/12/31/18:00:16.823,(12 -15 -6 1 41 56 30 31)
1969/12/31/18:00:16.829,(-29 -12 -4 -8 -68 -60 -13 -24)
1969/12/31/18:00:16.829,(1 13 8 3 -3 -16 -16 -13)
1969/12/31/18:00:16.844,(-3 -4 -7 -3 0 10 21 0)
1969/12/31/18:00:16.844,(16 16 10 4 -4 -21 -46 -5)
1969/12/31/18:00:16.845,(-24 -5 -3 -5 28 38 5 -2)
1969/12/31/18:00:16.845,(18 -2 5 14 -2 -15 55 30)
1969/12/31/18:00:16.860,(-36 -31 -12 -7 -8 -8 -12 -17)
1969/12/31/18:00:16.860,(-5 7 1 -7 -7 18 16 -8)
1969/12/31/18:00:16.861,(0 -8 -3 2 9 -37 -14 -10)
1969/12/31/18:00:16.861,(-3 4 1 -2 -12 0 -18 1)
1969/12/31/18:00:16.890,(-15 2 2 3 15 18 18 2)
1969/12/31/18:00:16.890,(-16 -14 -2 1 -11 -29 -1 -5)
1969/12/31/18:00:16.890,(39 24 9 4 7 17 3 33)
1969/12/31/18:00:16.890,(19 10 5 0 3 15 11 47)
1969/12/31/18:00:16.904,(6 -10 -5 -1 1 -17 -8 1)
1969/12/31/18:00:16.904,(1 3 3 -3 -10 4 0 -12)
1969/12/31/18:00:16.905,(13 24 6 0 1 5 -2 -35)
1969/12/31/18:00:16.905,(-63 -60 -23 -11 1 -13 -28 -35)
1969/12/31/18:00:16.918,(25 10 0 -3 -1 -2 -18 2)
1969/12/31/18:00:16.918,(-22 -8 -1 -5 -11 -1 2 -19)
1969/12/31/18:00:16.926,(36 15 8 6 14 27 23 53)
1969/12/31/18:00:16.926,(46 37 15 14 15 37 17 36)
1969/12/31/18:00:16.944,(-115 -61 -31 -24 -28 -40 -47 -44)
1969/12/31/18:00:16.944,(5 -5 -4 -3 -8 -8 -1 -10)
1969/12/31/18:00:16.945,(-3 7 -1 0 2 -17 -22 -16)
1969/12/31/18:00:16.945,(59 20 6 1 3 27 18 26)
1969/12/31/18:00:16.964,(-12 0 5 5 6 11 5 -2)
1969/12/31/18:00:16.964,(-67 -19 -7 3 0 -17 -6 -28)
1969/12/31/18:00:16.965,(-33 -40 -14 -8 -3 13 2 -11)
1969/12/31/18:00:16.965,(28 12 0 -4 -7 -20 -12 -15)
1969/12/31/18:00:16.978,(2 5 3 2 5 10 8 20)
1969/12/31/18:00:16.978,(85 45 19 14 7 8 25 57)
1969/12/31/18:00:16.994,(-58 -46 -26 -16 -13 -13 -26 -38)
1969/12/31/18:00:16.994,(-31 -17 -4 -5 -4 -6 -7 -24)
1969/12/31/18:00:17.001,(69 43 11 4 3 -5 0 26)
1969/12/31/18:00:17.001,(-96 -49 -17 -8 -5 4 -2 -27)
1969/12/31/18:00:17.002,(93 25 8 7 7 9 12 26)
1969/12/31/18:00:17.002,(-71 -8 6 3 0 -11 -16 -31)
1969/12/31/18:00:17.024,(6 -18 -16 -7 -2 11 7 5)
1969/12/31/18:00:17.024,(27 35 23 5 -2 -8 -5 4)
1969/12/31/18:00:17.025,(-11 -2 -4 -1 1 2 3 -2)
1969/12/31/18:00:17.025,(0 -25 -25 -13 -10 -11 -10 -12)
1969/12/31/18:00:17.038,(3 9 18 11 7 9 6 -3)
1969/12/31/18:00:17.038,(4 10 -2 -8 -10 -12 -8 -12)
1969/12/31/18:00:17.046,(-36 -20 2 2 1 -2 -2 -6)
1969/12/31/18:00:17.046,(21 29 13 11 8 9 8 10)
1969/12/31/18:00:17.061,(3 -23 -22 -9 -6 -2 -3 -3)
1969/12/31/18:00:17.061,(22 -9 -11 -7 -5 -6 -2 10)
1969/12/31/18:00:17.062,(-12 1 -1 -1 1 2 0 -2)
1969/12/31/18:00:17.062,(5 -6 0 2 -1 0 1 5)
1969/12/31/18:00:17.084,(15 5 15 6 4 1 0 -3)
1969/12/31/18:00:17.084,(-16 4 -1 -4 -4 -9 -8 -15)
1969/12/31/18:00:17.099,(-11 2 5 4 4 1 2 -3)
1969/12/31/18:00:17.099,(-6 -24 -21 -12 -6 -1 4 5)
1969/12/31/18:00:17.107,(6 16 4 0 0 -6 -9 -13)
1969/12/31/18:00:17.107,(25 -2 -20 -3 -3 0 0 3)
1969/12/31/18:00:17.108,(-10 8 17 5 1 2 2 3)
1969/12/31/18:00:17.108,(2 1 -12 -9 -8 -10 -5 -2)
1969/12/31/18:00:17.122,(-31 10 28 12 2 2 -4 -15)
1969/12/31/18:00:17.122,(-3 -18 -13 -3 -2 -1 0 4)
1969/12/31/18:00:17.122,(11 -6 -9 2 0 -1 1 3)
1969/12/31/18:00:17.122,(14 24 12 6 3 -1 -2 -2)
1969/12/31/18:00:17.144,(3 -14 -2 1 1 3 8 5)
1969/12/31/18:00:17.144,(-19 -11 -4 -4 -3 0 -14 -16)
1969/12/31/18:00:17.145,(15 11 -3 -1 0 0 1 5)
1969/12/31/18:00:17.145,(-1 3 5 -6 -1 -1 1 2)
1969/12/31/18:00:17.158,(1 5 -6 -2 -1 0 5 4)
1969/12/31/18:00:17.158,(7 -8 -2 -1 0 -2 -2 4)
1969/12/31/18:00:17.166,(6 1 -4 -4 2 3 -4 -3)
1969/12/31/18:00:17.166,(-9 0 17 8 0 -1 -1 -12)
1969/12/31/18:00:17.181,(-7 -5 -36 -17 -7 -5 -2 -4)
1969/12/31/18:00:17.181,(-5 -52 -21 -4 1 2 11 8)
1969/12/31/18:00:17.182,(5 97 87 24 5 1 -16 -6)
1969/12/31/18:00:17.183,(0 5 1 1 0 0 -3 -5)
1969/12/31/18:00:17.204,(7 -31 -24 -9 -5 0 -1 2)
1969/12/31/18:00:17.204,(2 -2 -2 1 -1 -3 -8 -5)
1969/12/31/18:00:17.205,(1 -8 -23 -13 -2 0 7 3)
1969/12/31/18:00:17.205,(-4 -16 5 1 -2 3 4 -2)
1969/12/31/18:00:17.221,(2 15 16 5 3 0 -12 3)
1969/12/31/18:00:17.221,(-2 -1 1 1 -4 -2 13 0)
1969/12/31/18:00:17.227,(-1 -10 -6 0 -1 -4 -14 1)
1969/12/31/18:00:17.227,(0 -15 -21 -4 -2 1 8 1)
1969/12/31/18:00:17.241,(0 8 -4 -3 -2 4 0 -2)
1969/12/31/18:00:17.241,(-10 -1 -4 -5 0 -4 -6 -3)
1969/12/31/18:00:17.242,(-3 -14 -7 -3 -3 -1 20 8)
1969/12/31/18:00:17.242,(8 19 -15 -9 -4 -5 -8 4)
1969/12/31/18:00:17.264,(-9 -33 -8 2 1 -3 -5 -8)
1969/12/31/18:00:17.264,(-5 23 8 -3 -9 -11 -27 -16)
1969/12/31/18:00:17.265,(1 4 10 10 3 6 8 5)
1969/12/31/18:00:17.265,(2 -37 -28 -11 -2 -1 -2 4)
1969/12/31/18:00:17.280,(7 -2 -36 -14 -2 -1 6 1)
1969/12/31/18:00:17.280,(3 31 31 13 3 0 -2 -4)
1969/12/31/18:00:17.287,(-9 -50 -18 -2 -1 2 8 5)
1969/12/31/18:00:17.287,(-15 37 37 13 2 -1 -7 -7)
1969/12/31/18:00:17.301,(1 -20 -25 -16 -7 -5 -1 -5)
1969/12/31/18:00:17.301,(-2 -2 -2 -8 -4 -1 3 -1)
1969/12/31/18:00:17.302,(14 7 -20 -10 -3 0 -2 4)
1969/12/31/18:00:17.302,(2 -6 12 6 3 0 2 -4)
1969/12/31/18:00:17.324,(-9 -14 10 0 -1 -2 0 -2)
1969/12/31/18:00:17.324,(8 -11 -33 -10 -3 3 6 7)
1969/12/31/18:00:17.325,(-3 -2 19 12 0 -5 -5 -8)
1969/12/31/18:00:17.325,(12 64 42 11 4 1 -1 -2)
1969/12/31/18:00:17.338,(8 26 15 5 1 0 -3 -1)
1969/12/31/18:00:17.338,(-2 -18 -21 -7 -2 -3 2 5)
1969/12/31/18:00:17.347,(-16 -24 4 -6 -8 -7 -9 -11)
1969/12/31/18:00:17.347,(-4 -17 -10 -4 -3 -3 1 -2)
1969/12/31/18:00:17.362,(7 -9 6 5 1 2 5 8)
1969/12/31/18:00:17.362,(-4 70 51 14 7 5 3 -5)
1969/12/31/18:00:17.363,(6 9 -22 -8 -4 -3 -6 -8)
1969/12/31/18:00:17.363,(-15 -86 -84 -38 -10 -1 2 8)
1969/12/31/18:00:17.384,(7 97 103 50 10 -3 -9 -12)
1969/12/31/18:00:17.384,(5 -18 0 8 3 2 0 2)
1969/12/31/18:00:17.385,(-16 -10 -11 -8 -3 5 5 -1)
1969/12/31/18:00:17.385,(-12 -13 -2 1 -3 2 -9 -10)
1969/12/31/18:00:17.398,(-1 -45 -48 -32 -13 -6 -2 0)
1969/12/31/18:00:17.398,(10 27 4 4 5 7 3 2)
1969/12/31/18:00:17.407,(4 -16 2 2 -4 -1 3 0)
1969/12/31/18:00:17.407,(3 -28 -65 -52 -19 -7 -9 -5)
1969/12/31/18:00:17.422,(0 31 29 40 18 7 5 5)
1969/12/31/18:00:17.422,(3 -11 19 20 5 -4 2 8)
1969/12/31/18:00:17.422,(-2 -3 -18 -5 1 -6 5 7)
1969/12/31/18:00:17.422,(-3 14 1 0 -1 -10 0 6)
1969/12/31/18:00:17.444,(-6 -9 -13 -12 -4 -2 -4 0)
1969/12/31/18:00:17.444,(-3 -7 -10 -8 -3 -4 -1 0)
1969/12/31/18:00:17.445,(5 -14 -18 -4 2 -1 -1 4)
1969/12/31/18:00:17.445,(0 24 25 5 2 -1 3 2)
1969/12/31/18:00:17.458,(-3 0 -19 -18 -7 -7 -4 -3)
1969/12/31/18:00:17.458,(-6 -19 22 14 7 1 1 -4)
1969/12/31/18:00:17.467,(10 23 -1 -9 -4 -6 -4 0)
1969/12/31/18:00:17.467,(-3 1 -13 -4 -2 -4 0 1)
1969/12/31/18:00:17.481,(6 6 -10 -5 2 2 0 2)
1969/12/31/18:00:17.482,(-11 -31 -21 -7 -3 -2 0 -1)
1969/12/31/18:00:17.482,(-4 -2 4 1 -2 -1 -3 -4)
1969/12/31/18:00:17.482,(9 7 14 8 2 2 0 -1)
1969/12/31/18:00:17.514,(-7 -20 -20 -10 -2 1 -2 -1)
1969/12/31/18:00:17.514,(1 7 -10 -15 -7 -5 -2 0)
1969/12/31/18:00:17.515,(-4 -2 -2 1 1 2 -2 -3)
1969/12/31/18:00:17.515,(2 13 21 18 8 2 2 -1)
1969/12/31/18:00:17.527,(-7 -17 -5 -8 -3 0 1 2)
1969/12/31/18:00:17.527,(-4 -7 28 7 2 -2 0 -3)
1969/12/31/18:00:17.528,(6 72 15 11 6 2 1 1)
1969/12/31/18:00:17.528,(4 7 4 -1 -1 -3 -2 -3)
1969/12/31/18:00:17.543,(-7 -11 6 5 0 0 2 1)
1969/12/31/18:00:17.543,(0 -17 -9 -7 -4 -1 -2 -2)
1969/12/31/18:00:17.544,(-2 1 -10 -6 -5 0 -2 -2)
1969/12/31/18:00:17.544,(-4 -2 14 12 2 3 -4 -7)
1969/12/31/18:00:17.564,(1 6 0 1 -2 2 -3 -6)
1969/12/31/18:00:17.565,(-2 -1 -9 -9 -5 5 -3 -4)
1969/12/31/18:00:17.565,(-4 -17 -8 -3 -2 4 -3 -5)
1969/12/31/18:00:17.565,(4 9 14 15 4 4 -1 -4)
1969/12/31/18:00:17.578,(-5 -12 7 1 -1 3 -2 -5)
1969/12/31/18:00:17.578,(0 5 -13 -8 -5 0 -5 -7)
1969/12/31/18:00:17.587,(-1 -9 7 0 2 4 -2 0)
1969/12/31/18:00:17.587,(1 2 -5 -4 -1 3 -1 -2)
1969/12/31/18:00:17.601,(1 -3 0 9 3 0 1 2)
1969/12/31/18:00:17.601,(1 5 -4 1 2 -7 3 7)
1969/12/31/18:00:17.602,(-1 0 -5 -1 1 -10 0 4)
1969/12/31/18:00:17.602,(-1 -16 -17 -6 0 -10 4 10)
1969/12/31/18:00:17.624,(-9 -1 -13 -7 1 -8 3 4)
1969/12/31/18:00:17.624,(5 12 -2 3 2 -2 2 4)
1969/12/31/18:00:17.625,(-7 -21 -5 -6 -1 -7 -1 -1)
1969/12/31/18:00:17.625,(1 0 8 2 -1 -6 0 0)
1969/12/31/18:00:17.649,(1 -1 -1 -6 -2 -8 -1 -1)
1969/12/31/18:00:17.649,(-7 -7 -3 -7 -3 0 0 -2)
1969/12/31/18:00:17.650,(-4 -32 -6 -4 -3 3 0 -2)
1969/12/31/18:00:17.650,(4 24 17 7 3 9 1 0)
1969/12/31/18:00:17.662,(0 9 3 -1 -1 4 -2 -5)
1969/12/31/18:00:17.662,(3 3 9 9 1 4 0 2)
1969/12/31/18:00:17.662,(0 -5 -3 -3 -4 0 -2 -2)
1969/12/31/18:00:17.662,(-4 -5 4 4 -2 2 -1 -4)
1969/12/31/18:00:17.684,(2 -5 -1 -1 -3 3 0 1)
1969/12/31/18:00:17.684,(0 -6 -18 -11 -6 -1 -4 -2)
1969/12/31/18:00:17.685,(0 4 8 8 0 0 -1 -5)
1969/12/31/18:00:17.685,(-5 -21 -1 3 1 2 0 -1)
1969/12/31/18:00:17.707,(3 8 8 4 -3 0 -2 -1)
1969/12/31/18:00:17.707,(-4 -1 -8 -4 -2 -2 -2 -4)
1969/12/31/18:00:17.708,(-2 6 2 0 1 1 -1 -2)
1969/12/31/18:00:17.708,(1 3 1 -3 -2 -1 -2 -1)
1969/12/31/18:00:17.722,(-4 -12 -2 0 -1 -1 -2 -1)
1969/12/31/18:00:17.722,(-3 -2 -3 -3 -2 -2 -1 -3)
1969/12/31/18:00:17.723,(-1 0 -2 -2 -3 -3 -3 -2)
1969/12/31/18:00:17.723,(1 6 6 4 1 0 -1 -1)
1969/12/31/18:00:17.744,(-2 -4 -8 -6 -4 -4 -5 -3)
1969/12/31/18:00:17.744,(-1 -3 2 -6 -1 -1 0 0)
1969/12/31/18:00:17.745,(0 7 7 1 2 -1 -1 0)
1969/12/31/18:00:17.745,(0 -1 -1 0 -1 -2 0 0)
1969/12/31/18:00:17.767,(-5 -9 6 -2 -1 -1 -1 -5)
1969/12/31/18:00:17.767,(1 10 6 5 2 -1 -1 0)
1969/12/31/18:00:17.768,(-3 -31 -14 -6 -5 0 -2 -2)
1969/12/31/18:00:17.768,(2 34 24 9 6 0 1 0)
1969/12/31/18:00:17.782,(1 2 -5 -4 -2 -1 -1 0)
1969/12/31/18:00:17.782,(-2 -6 0 0 0 -1 -2 -2)
1969/12/31/18:00:17.783,(-3 -4 -3 -3 2 0 1 2)
1969/12/31/18:00:17.783,(-1 -11 -12 -8 -4 -2 -1 1)
1969/12/31/18:00:17.804,(-1 2 -1 -1 -1 -2 1 -2)
1969/12/31/18:00:17.804,(4 12 9 5 1 -3 -4 0)
1969/12/31/18:00:17.805,(-12 -6 -9 -3 -3 -3 -5 -9)
1969/12/31/18:00:17.805,(-1 -9 -9 -8 -4 -3 -3 -1)
1969/12/31/18:00:17.827,(1 2 -3 3 1 1 0 1)
1969/12/31/18:00:17.827,(0 -8 -4 -1 -1 1 2 2)
1969/12/31/18:00:17.828,(3 11 4 0 0 1 1 3)
1969/12/31/18:00:17.828,(-3 -7 -3 -2 0 -2 -3 -3)
1969/12/31/18:00:17.841,(-1 -3 1 -1 0 1 -1 -1)
1969/12/31/18:00:17.842,(-1 5 0 0 -1 -1 -2 -2)
1969/12/31/18:00:17.842,(1 6 -2 -3 -2 -2 -1 0)
1969/12/31/18:00:17.842,(-3 -6 -3 0 -1 0 2 0)
1969/12/31/18:00:17.864,(1 6 4 -1 -1 -1 1 1)
1969/12/31/18:00:17.864,(-1 3 2 1 2 1 -2 -2)
1969/12/31/18:00:17.865,(2 10 7 4 0 1 2 2)
1969/12/31/18:00:17.865,(-2 -5 -2 -1 -2 -1 -2 -3)
1969/12/31/18:00:17.887,(0 -1 -2 -5 -3 -2 -1 0)
1969/12/31/18:00:17.887,(-3 -6 0 -4 -3 -1 0 -2)
1969/12/31/18:00:17.888,(1 3 1 2 0 0 -1 0)
1969/12/31/18:00:17.888,(-1 1 2 -2 -2 -3 -4 -3)
1969/12/31/18:00:17.902,(-2 -3 -4 -1 -2 -2 -2 -1)
1969/12/31/18:00:17.902,(-1 -5 -6 -4 -2 1 -1 -2)
1969/12/31/18:00:17.903,(2 0 -4 -6 -3 -2 -2 -2)
1969/12/31/18:00:17.903,(2 5 2 3 3 2 1 0)
1969/12/31/18:00:17.941,(-2 1 4 0 -1 -2 -1 -1)
1969/12/31/18:00:17.941,(-1 -5 -8 0 -1 0 0 -1)
1969/12/31/18:00:17.942,(-1 -1 0 1 0 -1 -2 -1)
1969/12/31/18:00:17.942,(-2 1 -5 -4 0 -2 -1 -1)
1969/12/31/18:00:17.947,(0 -8 -3 0 0 0 -1 0)
1969/12/31/18:00:17.947,(-2 -5 -10 -5 -2 -1 -3 0)
1969/12/31/18:00:17.948,(-1 -4 0 -4 -2 -2 -1 0)
1969/12/31/18:00:17.948,(-1 -3 1 6 1 1 0 -2)
1969/12/31/18:00:17.962,(2 3 3 2 1 2 0 2)
1969/12/31/18:00:17.962,(-5 -6 -14 -28 -9 -5 -3 -4)
1969/12/31/18:00:17.962,(-2 -5 -6 -1 -5 -2 -3 0)
1969/12/31/18:00:17.962,(0 -3 2 13 4 0 -1 1)
1969/12/31/18:00:17.984,(6 15 15 14 8 4 4 4)
1969/12/31/18:00:17.984,(0 0 4 3 0 0 0 1)
1969/12/31/18:00:17.985,(0 2 3 -1 0 -2 0 -1)
1969/12/31/18:00:17.985,(-2 -3 -7 -5 -6 -2 -1 -2)
1969/12/31/18:00:18.007,(-1 -5 -5 -1 0 1 0 0)
1969/12/31/18:00:18.007,(-3 -2 -3 -1 -2 -1 0 -2)
1969/12/31/18:00:18.008,(-1 -4 -8 -8 -1 -1 1 1)
1969/12/31/18:00:18.008,(0 1 1 -4 -3 -2 -2 -1)
1969/12/31/18:00:18.022,(-6 -11 -8 -6 -2 -4 -1 -4)
1969/12/31/18:00:18.022,(1 0 12 5 -1 -2 -2 -1)
1969/12/31/18:00:18.022,(1 11 6 4 3 1 0 1)
1969/12/31/18:00:18.022,(-3 -4 -4 -2 -3 -2 -1 -2)
1969/12/31/18:00:18.044,(-1 -2 -10 -8 -2 -1 -1 -1)
1969/12/31/18:00:18.044,(0 1 4 8 2 0 0 0)
1969/12/31/18:00:18.045,(2 -6 5 8 2 0 -1 -1)
1969/12/31/18:00:18.045,(-4 -2 -5 -4 -2 0 0 0)
1969/12/31/18:00:18.076,(2 11 10 1 -2 0 -1 -1)
1969/12/31/18:00:18.076,(1 2 -4 -1 -2 0 1 0)
1969/12/31/18:00:18.077,(0 -1 1 2 1 -1 0 0)
1969/12/31/18:00:18.077,(-2 -3 -3 -1 0 -3 -2 -1)
1969/12/31/18:00:18.090,(-5 -7 -8 2 -3 -2 -3 -1)
1969/12/31/18:00:18.090,(-1 -4 5 9 6 1 1 -1)
1969/12/31/18:00:18.090,(-1 5 8 6 -1 0 -1 0)
1969/12/31/18:00:18.091,(-3 -10 -9 -18 -6 -2 -4 -3)
1969/12/31/18:00:18.104,(-3 -2 -10 -5 -6 -3 -3 -5)
1969/12/31/18:00:18.104,(2 8 7 1 1 0 0 0)
1969/12/31/18:00:18.105,(-2 -7 -7 -2 -1 -1 2 0)
1969/12/31/18:00:18.105,(3 7 12 6 3 2 1 1)
1969/12/31/18:00:18.127,(-2 -8 -7 -6 -1 -2 -3 0)
1969/12/31/18:00:18.127,(-3 -5 -9 -5 -2 -3 -3 -1)
1969/12/31/18:00:18.128,(-1 -2 -2 -3 -1 -1 -1 -3)
1969/12/31/18:00:18.128,(-2 -4 -3 -4 -2 -1 -1 -1)
