time,.data
1969/12/31/18:00:17.347,(0 -1 -7 -2 -1 -9 -1 0)
1969/12/31/18:00:17.347,(-1 -7 -8 -12 -2 -6 -1 -3)
1969/12/31/18:00:17.349,(0 -3 -26 1 3 -1 -1 -1)
1969/12/31/18:00:17.349,(-5 5 48 16 4 2 -3 -6)
1969/12/31/18:00:17.370,(2 4 -4 -2 -1 4 -1 1)
1969/12/31/18:00:17.370,(-2 1 0 -7 -4 2 -4 -6)
1969/12/31/18:00:17.371,(-4 -13 -40 -33 -10 2 -6 -5)
1969/12/31/18:00:17.371,(-8 -15 -33 -27 -13 3 -2 3)
1969/12/31/18:00:17.384,(11 32 83 45 8 8 -6 -5)
1969/12/31/18:00:17.384,(5 14 21 32 8 16 10 16)
1969/12/31/18:00:17.391,(-1 -1 10 14 0 4 -2 0)
1969/12/31/18:00:17.391,(-1 -3 -14 -5 -8 -9 -13 -16)
1969/12/31/18:00:17.407,(-8 -15 -30 -22 -9 -5 -5 -6)
1969/12/31/18:00:17.407,(-2 -6 -1 -2 -3 -2 -1 4)
1969/12/31/18:00:17.409,(0 -2 6 -2 -2 0 -2 -3)
1969/12/31/18:00:17.409,(-4 -4 -6 -4 -3 1 0 -1)
1969/12/31/18:00:17.430,(0 -5 -11 -3 -4 0 0 2)
1969/12/31/18:00:17.430,(-1 1 11 4 1 -4 -1 -2)
1969/12/31/18:00:17.431,(1 -3 -10 -4 0 -4 -4 -8)
1969/12/31/18:00:17.431,(0 -2 4 5 2 0 5 5)
1969/12/31/18:00:17.444,(-2 -2 -11 -4 -1 -2 -2 -7)
1969/12/31/18:00:17.444,(0 -1 -4 -6 -3 0 0 2)
1969/12/31/18:00:17.451,(-1 -1 8 -1 0 2 1 2)
1969/12/31/18:00:17.451,(-1 5 10 14 4 6 1 2)
1969/12/31/18:00:17.467,(-5 -3 -4 -2 -2 6 -7 -7)
1969/12/31/18:00:17.467,(-6 -8 -3 -8 -5 6 -7 -6)
1969/12/31/18:00:17.469,(-1 0 -2 -1 -4 5 -2 3)
1969/12/31/18:00:17.469,(-1 0 4 3 -3 0 -5 -4)
1969/12/31/18:00:17.490,(-1 -6 -9 -2 -1 0 3 6)
1969/12/31/18:00:17.490,(0 -1 -1 -2 -1 -1 -2 -4)
1969/12/31/18:00:17.491,(-1 2 2 1 -1 -2 -2 0)
1969/12/31/18:00:17.491,(0 -2 -2 0 -1 1 1 4)
1969/12/31/18:00:17.504,(0 -4 -14 -8 -3 -3 0 -1)
1969/12/31/18:00:17.504,(-2 3 4 0 -1 -3 0 -1)
1969/12/31/18:00:17.518,(-1 1 4 2 3 -3 4 2)
1969/12/31/18:00:17.518,(-2 -3 -6 -4 -1 -4 2 2)
1969/12/31/18:00:17.527,(2 4 -8 -2 2 -6 1 1)
1969/12/31/18:00:17.527,(3 11 9 0 -1 -6 -3 -6)
1969/12/31/18:00:17.529,(3 4 0 -3 -3 -5 -2 0)
1969/12/31/18:00:17.529,(-8 -14 -3 2 4 1 1 -1)
1969/12/31/18:00:17.549,(-1 -6 -5 -3 0 -1 -1 -1)
1969/12/31/18:00:17.549,(-3 -15 -6 -3 -2 -2 -6 -5)
1969/12/31/18:00:17.556,(4 -3 -13 -9 -2 -3 -2 -1)
1969/12/31/18:00:17.556,(1 13 7 3 0 -2 1 0)
1969/12/31/18:00:17.564,(0 5 11 6 1 -6 -1 0)
1969/12/31/18:00:17.564,(0 3 -4 -3 1 -5 5 7)
1969/12/31/18:00:17.571,(-8 -9 1 0 1 -3 -3 -12)
1969/12/31/18:00:17.571,(3 -10 -12 -5 -1 -2 -9 -8)
1969/12/31/18:00:17.587,(5 -1 -2 -1 -2 4 2 7)
1969/12/31/18:00:17.587,(-14 -6 2 1 -1 1 2 -3)
1969/12/31/18:00:17.589,(-7 -1 -2 -2 -2 2 2 7)
1969/12/31/18:00:17.589,(16 8 4 -1 1 3 5 12)
1969/12/31/18:00:17.610,(-40 -13 -5 -3 -1 -2 -4 -21)
1969/12/31/18:00:17.610,(19 -4 -5 -2 -1 -6 1 4)
1969/12/31/18:00:17.611,(-15 -2 -2 -2 2 -6 6 5)
1969/12/31/18:00:17.611,(11 5 -1 -5 -1 -8 1 11)
1969/12/31/18:00:17.623,(1 6 4 0 0 1 1 9)
1969/12/31/18:00:17.623,(0 4 1 0 -2 7 -4 -14)
1969/12/31/18:00:17.632,(-14 -15 2 3 -3 8 -5 2)
1969/12/31/18:00:17.632,(4 2 2 1 -4 6 -3 1)
1969/12/31/18:00:17.647,(-18 -13 -3 -1 -3 3 -5 -15)
1969/12/31/18:00:17.647,(-1 0 -2 -2 -6 2 -3 0)
1969/12/31/18:00:17.649,(18 14 7 3 -1 2 -5 -13)
1969/12/31/18:00:17.649,(1 6 1 2 -1 2 3 2)
1969/12/31/18:00:17.670,(40 18 5 0 -1 0 1 3)
1969/12/31/18:00:17.670,(-2 -8 -2 0 1 -2 1 -1)
1969/12/31/18:00:17.671,(-75 -30 -13 -4 -3 -5 -3 -6)
1969/12/31/18:00:17.671,(-13 -9 -7 -5 -5 -8 -6 -12)
1969/12/31/18:00:17.683,(25 12 4 3 2 2 4 6)
1969/12/31/18:00:17.683,(-30 -18 -8 -5 -3 -9 -14 -13)
1969/12/31/18:00:17.692,(51 18 2 0 -1 1 4 14)
1969/12/31/18:00:17.692,(-30 -11 3 2 4 -6 0 8)
1969/12/31/18:00:17.707,(-25 -28 -15 -8 -7 -10 -12 -12)
1969/12/31/18:00:17.707,(26 21 9 7 6 4 14 15)
1969/12/31/18:00:17.709,(48 15 7 5 7 -2 -13 37)
1969/12/31/18:00:17.709,(-26 -6 -9 -8 -11 2 7 -17)
1969/12/31/18:00:17.730,(23 17 5 3 10 46 61 7)
1969/12/31/18:00:17.730,(2 2 0 -3 -1 2 -5 -19)
1969/12/31/18:00:17.731,(-62 -35 -15 -8 -1 -15 -57 -32)
1969/12/31/18:00:17.731,(16 18 13 6 1 -12 27 41)
1969/12/31/18:00:17.743,(-8 -36 -7 0 -4 -30 -51 -56)
1969/12/31/18:00:17.743,(35 23 12 7 4 0 16 44)
1969/12/31/18:00:17.752,(12 -8 -13 -12 -7 4 23 3)
1969/12/31/18:00:17.752,(-34 -3 0 -1 3 9 -15 -64)
1969/12/31/18:00:17.767,(-5 4 0 -5 0 11 2 -31)
1969/12/31/18:00:17.767,(41 13 4 -1 -7 -12 18 79)
1969/12/31/18:00:17.769,(-11 8 1 1 0 -7 -14 -80)
1969/12/31/18:00:17.769,(17 -3 5 8 5 -7 -4 19)
1969/12/31/18:00:17.790,(10 21 -3 -1 4 48 21 29)
1969/12/31/18:00:17.790,(-7 -2 3 0 -8 -47 -24 -28)
1969/12/31/18:00:17.791,(-29 -35 -8 -2 1 1 6 12)
1969/12/31/18:00:17.791,(5 0 -11 -12 3 47 69 70)
1969/12/31/18:00:17.803,(-43 -7 2 1 -11 -43 -34 -56)
1969/12/31/18:00:17.803,(-5 -15 -6 -5 -6 -20 11 23)
1969/12/31/18:00:17.812,(-6 26 6 -4 -11 16 1 -12)
1969/12/31/18:00:17.812,(36 13 -6 -5 0 11 -23 -29)
1969/12/31/18:00:17.827,(2 12 7 4 5 -26 -7 25)
1969/12/31/18:00:17.827,(-15 -3 1 5 14 64 29 18)
1969/12/31/18:00:17.829,(-1 -12 -3 2 -4 -1 15 -12)
1969/12/31/18:00:17.829,(-69 -29 -9 -6 -11 -57 -89 -82)
1969/12/31/18:00:17.850,(-7 -2 -6 -7 -5 13 18 64)
1969/12/31/18:00:17.850,(2 11 3 3 2 -13 -26 -62)
1969/12/31/18:00:17.851,(-3 11 3 2 -2 -37 7 -13)
1969/12/31/18:00:17.851,(6 -9 -6 -6 -6 -4 26 24)
1969/12/31/18:00:17.863,(6 -4 -2 2 11 54 -16 -68)
1969/12/31/18:00:17.863,(4 -3 -2 -1 -9 -27 -34 10)
1969/12/31/18:00:17.872,(24 17 5 5 8 12 42 52)
1969/12/31/18:00:17.872,(-14 8 6 5 5 5 4 -17)
1969/12/31/18:00:17.887,(20 4 -2 -1 -6 -34 -10 3)
1969/12/31/18:00:17.887,(-55 -35 -9 -3 12 61 5 2)
1969/12/31/18:00:17.889,(5 3 0 -5 -10 -26 3 -13)
1969/12/31/18:00:17.889,(26 10 5 0 -2 -5 4 24)
1969/12/31/18:00:17.910,(26 22 10 5 1 -9 18 70)
1969/12/31/18:00:17.910,(-4 -12 -11 -5 -2 -28 -50 -33)
1969/12/31/18:00:17.911,(-14 -2 -1 4 2 -9 -11 -25)
1969/12/31/18:00:17.911,(-13 -9 -4 -1 1 -9 10 -25)
1969/12/31/18:00:17.923,(18 3 4 3 1 27 29 79)
1969/12/31/18:00:17.923,(8 13 -3 -6 -6 -36 -12 -52)
1969/12/31/18:00:17.932,(-9 -4 -1 -1 9 86 14 13)
1969/12/31/18:00:17.932,(33 -5 -2 -1 -9 -34 -28 -26)
1969/12/31/18:00:17.947,(13 17 6 4 2 -21 -1 36)
1969/12/31/18:00:17.947,(21 -12 2 5 7 38 55 102)
1969/12/31/18:00:17.949,(-15 -8 -10 -9 -2 33 -16 -80)
1969/12/31/18:00:17.949,(-2 23 10 2 1 12 -20 1)
1969/12/31/18:00:17.970,(-7 -22 -11 -8 -10 -29 20 -11)
1969/12/31/18:00:17.970,(11 27 12 9 12 4 10 -29)
1969/12/31/18:00:17.971,(39 11 7 5 5 1 5 53)
1969/12/31/18:00:17.971,(-5 -14 1 4 5 22 11 16)
1969/12/31/18:00:17.983,(12 0 -6 -5 -10 -8 -2 -30)
1969/12/31/18:00:17.983,(-36 -5 -3 1 8 62 23 28)
1969/12/31/18:00:17.998,(-7 -24 -9 -7 -11 -41 -4 -58)
1969/12/31/18:00:17.998,(20 21 3 1 4 15 29 65)
1969/12/31/18:00:18.015,(1 9 9 9 3 -28 13 29)
1969/12/31/18:00:18.015,(-6 -12 -2 1 6 45 6 -30)
1969/12/31/18:00:18.016,(-35 -5 -6 -5 -6 -18 -22 10)
1969/12/31/18:00:18.016,(35 22 -1 -1 -2 2 43 68)
1969/12/31/18:00:18.029,(-48 -50 -5 2 17 55 -33 -24)
1969/12/31/18:00:18.030,(13 -4 -11 -13 -23 -75 42 18)
1969/12/31/18:00:18.031,(7 5 5 2 3 -8 -8 0)
1969/12/31/18:00:18.031,(18 17 7 6 2 -15 -25 -28)
1969/12/31/18:00:18.043,(-11 18 6 5 4 22 2 -12)
1969/12/31/18:00:18.043,(18 25 8 8 8 4 24 53)
1969/12/31/18:00:18.052,(8 -28 -10 -5 -4 -2 -19 -47)
1969/12/31/18:00:18.052,(5 17 4 -1 -1 27 7 -2)
1969/12/31/18:00:18.067,(59 6 6 11 14 4 19 55)
1969/12/31/18:00:18.067,(-66 -38 -19 -17 -12 -25 -61 -113)
1969/12/31/18:00:18.069,(7 10 -1 -4 7 9 -11 -36)
1969/12/31/18:00:18.069,(77 13 5 1 -12 1 22 78)
1969/12/31/18:00:18.089,(-9 12 -3 -15 -21 -46 -22 -116)
1969/12/31/18:00:18.089,(61 19 12 9 4 7 -13 13)
1969/12/31/18:00:18.091,(-34 -22 -13 -8 -3 -1 17 -20)
1969/12/31/18:00:18.091,(-15 -1 -7 -5 2 -19 -34 -67)
1969/12/31/18:00:18.103,(-29 -42 -10 -4 0 24 20 49)
1969/12/31/18:00:18.103,(20 14 0 -8 -10 6 11 11)
1969/12/31/18:00:18.112,(-8 -1 0 -1 -6 -16 -23 14)
1969/12/31/18:00:18.112,(-29 -9 3 4 3 -16 -20 -34)
1969/12/31/18:00:18.127,(-19 -4 -8 -10 -2 10 10 -21)
1969/12/31/18:00:18.127,(38 11 8 8 11 3 14 70)
1969/12/31/18:00:18.129,(62 17 0 -1 -5 0 -5 127)
1969/12/31/18:00:18.129,(-40 -37 -6 -1 17 25 30 38)
1969/12/31/18:00:18.149,(-19 26 13 7 -20 -62 -37 -86)
1969/12/31/18:00:18.149,(-69 -47 -19 -15 -10 10 -26 -19)
1969/12/31/18:00:18.150,(32 18 7 6 19 7 29 65)
1969/12/31/18:00:18.150,(-39 -12 -1 11 21 -20 -33 -70)
1969/12/31/18:00:18.172,(23 41 7 -4 -44 -9 -26 31)
1969/12/31/18:00:18.172,(12 -18 -3 -9 -30 -13 8 18)
1969/12/31/18:00:18.172,(-1 -4 -1 -2 -13 -33 0 -42)
1969/12/31/18:00:18.172,(-15 -17 -7 0 47 60 -25 -53)
1969/12/31/18:00:18.186,(-12 -11 -5 2 12 41 7 8)
1969/12/31/18:00:18.187,(4 15 -1 -8 -26 -69 -11 -37)
1969/12/31/18:00:18.187,(-3 29 9 9 26 77 14 -13)
1969/12/31/18:00:18.187,(10 -50 -8 2 -6 -9 75 79)
1969/12/31/18:00:18.209,(-12 -4 -2 -10 -23 -90 -78 6)
1969/12/31/18:00:18.209,(-40 -12 -10 -3 24 56 -24 -19)
1969/12/31/18:00:18.210,(29 10 4 9 40 -10 -11 17)
1969/12/31/18:00:18.210,(39 19 -5 -9 -84 -30 20 77)
1969/12/31/18:00:18.231,(13 2 1 -10 -45 -48 -16 5)
1969/12/31/18:00:18.231,(-31 -17 -5 -8 7 16 -16 -46)
1969/12/31/18:00:18.232,(4 6 9 15 57 4 17 7)
1969/12/31/18:00:18.232,(-5 20 -1 -10 -66 -37 -28 -40)
1969/12/31/18:00:18.246,(-3 -57 -19 -21 -12 10 18 26)
1969/12/31/18:00:18.246,(31 26 11 26 80 41 6 14)
1969/12/31/18:00:18.247,(-65 -24 -13 -13 -81 -33 -2 -62)
1969/12/31/18:00:18.247,(-22 -11 -12 -22 15 -29 -21 -61)
1969/12/31/18:00:18.269,(-20 -2 -6 4 9 17 -3 -34)
1969/12/31/18:00:18.269,(16 10 8 11 36 14 7 0)
1969/12/31/18:00:18.276,(2 -14 -2 13 82 53 12 11)
1969/12/31/18:00:18.277,(23 22 -1 -27 -113 -97 -24 11)
1969/12/31/18:00:18.291,(-35 -38 -19 -24 2 20 10 -27)
1969/12/31/18:00:18.291,(9 1 -6 -9 -17 -43 -33 -12)
1969/12/31/18:00:18.292,(43 13 7 6 14 5 4 60)
1969/12/31/18:00:18.292,(-6 -10 1 10 51 27 -16 -51)
1969/12/31/18:00:18.306,(25 24 11 19 39 40 44 79)
1969/12/31/18:00:18.306,(-53 -15 -14 -9 -43 -19 -4 -50)
1969/12/31/18:00:18.307,(28 22 -7 -14 -35 -23 -6 13)
1969/12/31/18:00:18.307,(-15 -16 9 11 61 60 7 12)
1969/12/31/18:00:18.329,(13 11 36 43 42 9 21 65)
1969/12/31/18:00:18.329,(-47 -29 -8 -11 -40 -30 -4 -28)
1969/12/31/18:00:18.330,(60 49 21 13 24 38 25 48)
1969/12/31/18:00:18.330,(-51 -9 -19 -19 -48 -24 -11 -77)
1969/12/31/18:00:18.352,(16 6 -20 -17 12 5 -2 9)
1969/12/31/18:00:18.352,(14 6 14 7 -15 -33 0 18)
1969/12/31/18:00:18.352,(-17 -8 2 3 -32 -12 0 12)
1969/12/31/18:00:18.352,(23 21 -7 -3 9 13 0 42)
1969/12/31/18:00:18.366,(-15 -67 -45 -8 48 41 11 -37)
1969/12/31/18:00:18.367,(55 51 -6 -7 -43 -33 1 20)
1969/12/31/18:00:18.367,(-30 -20 27 -4 -20 -9 3 22)
1969/12/31/18:00:18.368,(2 60 52 33 41 18 -22 -45)
1969/12/31/18:00:18.389,(-53 -49 -35 -32 -44 -50 -45 -32)
1969/12/31/18:00:18.389,(1 33 -9 5 59 72 42 30)
1969/12/31/18:00:18.390,(-9 -58 -8 -2 -1 -10 -8 -31)
1969/12/31/18:00:18.390,(26 41 15 25 38 12 25 25)
1969/12/31/18:00:18.412,(-61 -41 -17 -13 -64 -46 -24 -70)
1969/12/31/18:00:18.412,(77 20 13 7 16 14 -1 73)
1969/12/31/18:00:18.412,(-31 43 -42 -24 -21 -23 -41 -49)
1969/12/31/18:00:18.413,(-1 -15 78 18 -36 5 25 40)
1969/12/31/18:00:18.426,(75 46 -16 -2 9 30 25 56)
1969/12/31/18:00:18.426,(-76 -85 -24 -15 -4 -12 -19 -128)
1969/12/31/18:00:18.434,(-15 68 52 22 37 64 27 47)
1969/12/31/18:00:18.434,(-58 -80 -76 -6 30 -21 -42 -66)
1969/12/31/18:00:18.449,(12 36 25 2 15 1 0 13)
1969/12/31/18:00:18.449,(37 -16 -11 -13 -65 -37 10 63)
1969/12/31/18:00:18.450,(-11 -49 -63 -29 -25 -41 -38 -128)
1969/12/31/18:00:18.450,(-29 88 93 37 32 51 30 65)
1969/12/31/18:00:18.472,(37 -2 13 13 5 7 11 12)
1969/12/31/18:00:18.472,(-42 -46 -58 -4 92 37 4 -48)
1969/12/31/18:00:18.472,(-3 -30 20 0 -78 -17 -20 18)
1969/12/31/18:00:18.472,(-29 -41 -56 -33 -37 -37 26 7)
1969/12/31/18:00:18.486,(9 28 14 6 -3 -7 -11 -83)
1969/12/31/18:00:18.486,(22 38 26 3 6 9 -16 -33)
1969/12/31/18:00:18.487,(-25 -18 4 16 27 -2 38 28)
1969/12/31/18:00:18.487,(62 -29 -17 -18 -35 -50 -62 -13)
1969/12/31/18:00:18.509,(6 11 -13 -11 -7 12 23 47)
1969/12/31/18:00:18.509,(9 -27 -13 -3 -30 -2 7 0)
1969/12/31/18:00:18.510,(-54 5 -24 -15 -2 -27 -24 1)
1969/12/31/18:00:18.510,(-57 -16 -14 -12 12 13 -31 -100)
1969/12/31/18:00:18.531,(-65 46 57 13 -9 -23 6 23)
1969/12/31/18:00:18.531,(-26 -16 -9 3 26 42 13 -3)
1969/12/31/18:00:18.532,(68 -7 2 6 3 -6 13 52)
1969/12/31/18:00:18.532,(28 4 -32 -9 2 -16 -35 -45)
1969/12/31/18:00:18.546,(-2 5 -21 -13 -25 -20 4 -38)
1969/12/31/18:00:18.546,(-4 5 50 20 -11 -21 -36 50)
1969/12/31/18:00:18.554,(66 -37 -46 -14 37 15 16 50)
1969/12/31/18:00:18.554,(19 11 48 34 50 90 52 71)
1969/12/31/18:00:18.570,(-13 -10 -42 -29 -51 -34 2 -93)
1969/12/31/18:00:18.570,(-22 -44 -8 0 1 -13 -16 -13)
1969/12/31/18:00:18.570,(-18 21 -9 -21 -31 -24 -33 -62)
1969/12/31/18:00:18.570,(-13 -31 -15 -11 -4 11 0 -3)
1969/12/31/18:00:18.591,(42 -18 -61 3 60 50 6 23)
1969/12/31/18:00:18.591,(-55 94 109 54 78 45 28 -20)
1969/12/31/18:00:18.592,(32 58 -22 12 -56 -20 21 26)
1969/12/31/18:00:18.592,(-36 14 30 -2 -20 -13 12 17)
1969/12/31/18:00:18.606,(31 -19 23 2 -34 -19 -9 37)
1969/12/31/18:00:18.606,(30 -65 -61 -29 25 25 -2 57)
1969/12/31/18:00:18.607,(29 2 6 2 -7 -23 -1 -6)
1969/12/31/18:00:18.607,(-34 -88 -92 -29 -12 1 -26 -22)
1969/12/31/18:00:18.629,(22 73 21 4 25 16 32 71)
1969/12/31/18:00:18.629,(7 50 66 16 -25 -13 18 0)
1969/12/31/18:00:18.630,(60 67 50 30 80 88 47 69)
1969/12/31/18:00:18.630,(3 8 9 9 29 -24 22 61)
1969/12/31/18:00:18.651,(-31 -39 11 12 -42 -44 -48 -30)
1969/12/31/18:00:18.651,(-49 -79 -105 -89 -103 -57 -24 -51)
1969/12/31/18:00:18.652,(-28 -44 20 -1 11 0 4 16)
1969/12/31/18:00:18.652,(43 -18 -77 -8 17 14 19 19)
1969/12/31/18:00:18.675,(29 112 111 70 90 59 11 54)
1969/12/31/18:00:18.675,(7 60 32 37 7 -12 3 -1)
1969/12/31/18:00:18.675,(-70 -103 -51 -15 -6 8 -9 1)
1969/12/31/18:00:18.675,(42 -75 -96 -22 0 -27 -49 -33)
1969/12/31/18:00:18.689,(-52 -23 26 -29 -88 -53 -22 -37)
1969/12/31/18:00:18.689,(11 3 -22 -31 -64 -21 9 77)
1969/12/31/18:00:18.690,(32 19 7 -2 24 -7 21 36)
1969/12/31/18:00:18.690,(-47 -5 8 16 51 56 7 -63)
1969/12/31/18:00:18.712,(57 30 19 -3 23 14 32 31)
1969/12/31/18:00:18.712,(-20 29 -1 17 33 25 -63 -80)
1969/12/31/18:00:18.712,(48 -29 -55 -1 5 -16 30 34)
1969/12/31/18:00:18.712,(-44 64 113 22 -53 -48 -58 -24)
1969/12/31/18:00:18.726,(-3 -49 -21 -22 -42 -32 -35 -5)
1969/12/31/18:00:18.726,(62 46 1 -5 22 20 33 55)
1969/12/31/18:00:18.727,(-57 -4 23 9 3 1 -15 -18)
1969/12/31/18:00:18.727,(58 3 -26 0 41 16 19 47)
1969/12/31/18:00:18.750,(-39 -98 -105 -44 -27 7 2 -27)
1969/12/31/18:00:18.750,(-27 21 50 12 -21 -39 -38 -61)
1969/12/31/18:00:18.751,(29 -3 -35 -5 11 -4 -29 30)
1969/12/31/18:00:18.751,(-14 72 37 -16 -51 -6 55 4)
1969/12/31/18:00:18.772,(-42 -23 28 30 14 -14 -50 -24)
1969/12/31/18:00:18.772,(88 -73 -102 -19 29 26 48 112)
1969/12/31/18:00:18.772,(-98 40 71 0 -55 -47 -35 -108)
1969/12/31/18:00:18.772,(72 47 -7 -15 -17 -4 -9 57)
1969/12/31/18:00:18.787,(16 24 -7 23 124 81 46 -2)
1969/12/31/18:00:18.787,(-40 -43 -6 4 -61 -43 4 13)
1969/12/31/18:00:18.788,(16 -68 -60 -45 -61 -29 -22 -36)
1969/12/31/18:00:18.788,(23 12 -10 5 -8 -9 4 15)
1969/12/31/18:00:18.809,(29 -1 22 7 9 39 64 73)
1969/12/31/18:00:18.809,(37 120 110 58 23 -8 20 -27)
1969/12/31/18:00:18.810,(-53 -2 9 -18 -57 -41 -92 -75)
1969/12/31/18:00:18.810,(57 -8 -61 -9 79 79 47 87)
1969/12/31/18:00:18.831,(22 -11 20 8 -90 -90 -45 -28)
1969/12/31/18:00:18.832,(-35 0 11 18 77 49 38 -25)
1969/12/31/18:00:18.832,(48 52 41 7 -61 -13 19 12)
1969/12/31/18:00:18.832,(-61 -41 -8 -25 -14 6 -30 -45)
1969/12/31/18:00:18.847,(-15 -51 -71 -36 -31 -56 -35 -26)
1969/12/31/18:00:18.847,(5 -45 -57 -19 -2 16 3 -6)
1969/12/31/18:00:18.848,(23 46 50 37 57 10 7 8)
1969/12/31/18:00:18.848,(6 -25 -14 7 51 57 7 17)
1969/12/31/18:00:18.869,(-20 26 22 -11 -20 -3 11 -32)
1969/12/31/18:00:18.869,(-15 12 -28 -14 11 -28 -71 -24)
1969/12/31/18:00:18.870,(-44 -46 -2 6 -63 -43 15 -23)
1969/12/31/18:00:18.870,(15 15 6 -17 -45 -15 35 31)
1969/12/31/18:00:18.891,(45 83 69 38 51 16 14 41)
1969/12/31/18:00:18.892,(-25 -99 -113 -43 -13 -21 -14 -49)
1969/12/31/18:00:18.892,(17 110 115 83 49 51 42 73)
1969/12/31/18:00:18.892,(-7 -24 -50 -23 -59 -52 -39 -44)
1969/12/31/18:00:18.906,(19 -32 -20 -7 7 4 -13 18)
1969/12/31/18:00:18.906,(89 -41 -78 -22 78 80 42 64)
1969/12/31/18:00:18.914,(-53 -51 22 -9 -44 -27 -13 -81)
1969/12/31/18:00:18.914,(1 55 65 24 -37 -43 0 -3)
1969/12/31/18:00:18.929,(-17 23 1 20 52 59 -2 -26)
1969/12/31/18:00:18.929,(44 -53 -33 12 37 33 22 44)
1969/12/31/18:00:18.930,(0 -37 -70 -81 -58 -56 -2 -8)
1969/12/31/18:00:18.930,(-33 100 93 46 -11 -19 -28 -43)
1969/12/31/18:00:18.951,(43 29 -19 13 35 33 16 3)
1969/12/31/18:00:18.951,(-72 -81 -10 1 10 -4 -18 -51)
1969/12/31/18:00:18.953,(18 43 17 -4 -20 -25 0 38)
1969/12/31/18:00:18.953,(27 -36 -39 -13 19 -13 -45 -27)
1969/12/31/18:00:18.966,(-6 -4 -58 -26 -4 28 19 -34)
1969/12/31/18:00:18.966,(-30 7 82 34 -3 11 2 -5)
1969/12/31/18:00:18.974,(-8 -51 -51 -25 21 31 -3 17)
1969/12/31/18:00:18.974,(16 17 3 7 -27 -34 29 8)
1969/12/31/18:00:18.989,(59 61 52 37 48 54 22 67)
1969/12/31/18:00:18.989,(-32 -54 -57 -59 -94 -84 -30 -41)
1969/12/31/18:00:18.990,(79 89 1 0 23 12 32 36)
1969/12/31/18:00:18.990,(-49 0 83 51 59 35 11 1)
1969/12/31/18:00:19.011,(-5 -15 -15 11 35 25 -4 4)
1969/12/31/18:00:19.012,(6 56 47 7 -27 -20 7 8)
1969/12/31/18:00:19.012,(-64 -109 -87 -31 8 -8 -45 -2)
1969/12/31/18:00:19.012,(64 -10 -50 -10 -9 8 82 77)
1969/12/31/18:00:19.026,(-59 -5 10 -5 11 -15 -31 -53)
1969/12/31/18:00:19.026,(2 11 30 6 -37 13 0 30)
1969/12/31/18:00:19.034,(7 44 67 31 10 0 0 10)
1969/12/31/18:00:19.034,(-8 -61 -69 -31 -37 -24 3 -13)
1969/12/31/18:00:19.058,(24 -15 -38 -10 20 5 3 34)
1969/12/31/18:00:19.058,(-77 -48 -6 -27 -85 -54 -29 -93)
1969/12/31/18:00:19.058,(-46 36 0 -14 18 19 -55 -72)
1969/12/31/18:00:19.058,(14 -34 -15 -8 17 42 31 33)
1969/12/31/18:00:19.071,(6 -19 -26 15 69 11 10 -2)
1969/12/31/18:00:19.071,(51 61 29 24 19 27 -20 19)
1969/12/31/18:00:19.072,(28 29 -6 -15 -76 -68 37 8)
1969/12/31/18:00:19.072,(-44 17 93 9 0 -4 -28 -25)
1969/12/31/18:00:19.086,(-50 -84 -78 -38 -36 -29 -43 -13)
1969/12/31/18:00:19.086,(21 23 -3 7 56 35 34 25)
1969/12/31/18:00:19.094,(-42 -72 -55 -7 67 46 -4 -48)
1969/12/31/18:00:19.094,(-63 7 -30 -11 -8 -20 -22 -59)
1969/12/31/18:00:19.109,(19 19 23 3 -28 3 7 38)
1969/12/31/18:00:19.109,(-2 37 93 40 26 3 6 29)
1969/12/31/18:00:19.110,(22 15 1 13 35 85 12 23)
1969/12/31/18:00:19.110,(-34 -80 -62 -38 -95 -112 -15 -48)
1969/12/31/18:00:19.131,(2 0 19 14 7 42 5 34)
1969/12/31/18:00:19.131,(-10 108 93 3 -46 -52 -14 -27)
1969/12/31/18:00:19.132,(63 8 -54 -12 -6 -26 -37 2)
1969/12/31/18:00:19.132,(-54 -64 8 2 5 43 -13 -30)
1969/12/31/18:00:19.146,(6 0 -13 -1 -5 -4 11 -4)
1969/12/31/18:00:19.146,(19 -5 -36 -24 -17 -5 13 15)
1969/12/31/18:00:19.154,(0 -24 1 14 45 31 25 -7)
1969/12/31/18:00:19.154,(-3 -8 -22 -14 -15 -28 -57 -45)
1969/12/31/18:00:19.169,(-39 -36 -1 -13 -35 -38 -11 -38)
1969/12/31/18:00:19.169,(30 -67 -110 -35 11 14 0 24)
1969/12/31/18:00:19.170,(21 88 108 61 35 14 24 24)
1969/12/31/18:00:19.170,(15 93 60 19 -36 -22 -4 24)
1969/12/31/18:00:19.192,(5 -54 -34 -29 -25 -21 -11 -16)
1969/12/31/18:00:19.192,(-46 8 36 28 24 32 27 -21)
1969/12/31/18:00:19.192,(39 -35 -70 -21 -9 -6 -4 33)
1969/12/31/18:00:19.192,(53 19 58 17 24 -6 9 42)
1969/12/31/18:00:19.206,(-91 9 8 12 53 9 -43 -95)
1969/12/31/18:00:19.206,(62 -8 -18 -26 -127 -99 -21 31)
1969/12/31/18:00:19.214,(-32 -3 -23 -15 15 35 36 -1)
1969/12/31/18:00:19.214,(15 -21 -46 -7 39 28 -22 8)
1969/12/31/18:00:19.229,(-83 -68 30 -4 -37 -12 16 -22)
1969/12/31/18:00:19.229,(19 20 -40 -3 52 22 9 55)
1969/12/31/18:00:19.230,(5 3 44 41 51 40 21 23)
1969/12/31/18:00:19.230,(14 23 -1 -7 -40 -20 18 41)
1969/12/31/18:00:19.251,(53 11 -26 -13 -18 -20 -1 27)
1969/12/31/18:00:19.251,(-22 14 23 -5 -9 6 0 -8)
1969/12/31/18:00:19.252,(-11 -7 10 11 60 53 24 4)
1969/12/31/18:00:19.252,(38 24 11 -4 -66 -51 14 28)
1969/12/31/18:00:19.275,(0 56 29 8 8 0 -19 -34)
1969/12/31/18:00:19.275,(42 53 72 44 15 11 2 30)
1969/12/31/18:00:19.276,(-16 -16 -12 -8 -18 -25 -27 -26)
1969/12/31/18:00:19.276,(-13 -42 -24 2 62 55 12 -18)
1969/12/31/18:00:19.289,(55 -40 -64 -19 -29 0 56 66)
1969/12/31/18:00:19.289,(-33 61 9 -8 -15 -27 -70 -45)
1969/12/31/18:00:19.290,(-22 26 44 9 -13 -12 8 -30)
1969/12/31/18:00:19.290,(-9 -1 -23 8 58 49 6 26)
1969/12/31/18:00:19.311,(-9 -28 19 12 -9 -3 11 2)
1969/12/31/18:00:19.311,(7 -46 -90 -53 -65 -33 30 46)
1969/12/31/18:00:19.312,(23 -55 -54 -31 -35 -27 -9 4)
1969/12/31/18:00:19.312,(0 75 83 38 28 10 0 -5)
1969/12/31/18:00:19.335,(17 21 -6 -18 -28 -17 5 14)
1969/12/31/18:00:19.335,(41 53 35 40 38 9 -19 -13)
1969/12/31/18:00:19.335,(-52 -8 33 3 9 13 28 11)
1969/12/31/18:00:19.335,(-5 -74 -47 -32 20 32 -19 -2)
1969/12/31/18:00:19.349,(5 -39 -52 -22 -27 -43 -20 -16)
1969/12/31/18:00:19.349,(46 15 -14 27 37 27 -7 -18)
1969/12/31/18:00:19.350,(7 -5 18 30 -22 -32 -37 -72)
1969/12/31/18:00:19.350,(-14 17 29 5 70 48 13 -9)
1969/12/31/18:00:19.371,(-10 55 72 7 -76 -45 -17 9)
1969/12/31/18:00:19.372,(-48 -86 -67 -54 -50 -22 -7 -44)
1969/12/31/18:00:19.372,(-22 -73 -89 -36 6 2 -1 29)
1969/12/31/18:00:19.372,(-6 -14 -25 -1 -8 -18 -19 -9)
1969/12/31/18:00:19.394,(-27 65 51 14 26 11 -3 -24)
1969/12/31/18:00:19.394,(-8 -8 9 6 14 25 -3 2)
1969/12/31/18:00:19.395,(-1 -28 -9 -3 7 0 14 22)
1969/12/31/18:00:19.395,(5 -39 -52 -25 -44 -34 -38 -19)
1969/12/31/18:00:19.409,(29 20 -10 10 10 0 -6 10)
1969/12/31/18:00:19.409,(-32 43 68 31 64 29 15 5)
1969/12/31/18:00:19.410,(57 -3 -2 -7 -35 -10 4 35)
1969/12/31/18:00:19.410,(14 4 -36 -13 -64 -28 12 2)
1969/12/31/18:00:19.431,(29 70 79 20 34 6 14 48)
1969/12/31/18:00:19.431,(46 43 33 22 45 19 -10 5)
1969/12/31/18:00:19.432,(-18 -37 -61 -30 -6 -10 -10 18)
1969/12/31/18:00:19.432,(-3 9 46 17 16 23 26 -1)
1969/12/31/18:00:19.455,(-30 -60 -71 -16 -21 -5 -17 -23)
1969/12/31/18:00:19.455,(18 4 -2 -15 -36 -30 4 2)
1969/12/31/18:00:19.456,(-13 44 67 29 5 7 -15 1)
1969/12/31/18:00:19.456,(3 -44 -57 -29 7 16 22 -5)
1969/12/31/18:00:19.469,(38 16 -36 -17 -26 -14 -9 16)
1969/12/31/18:00:19.469,(-111 57 79 40 17 4 35 -40)
1969/12/31/18:00:19.470,(-7 2 -3 -3 -25 -34 -61 -97)
1969/12/31/18:00:19.470,(-14 -14 9 -1 7 13 11 22)
1969/12/31/18:00:19.492,(11 -50 -24 -7 26 17 13 20)
1969/12/31/18:00:19.492,(7 -86 -83 -30 -33 -13 -2 -2)
1969/12/31/18:00:19.493,(54 92 47 16 10 5 26 60)
1969/12/31/18:00:19.493,(-21 39 73 34 54 22 -22 -45)
1969/12/31/18:00:19.515,(-12 -26 -29 -24 -47 -37 -20 -53)
1969/12/31/18:00:19.515,(61 -44 -29 5 23 -7 -15 46)
1969/12/31/18:00:19.515,(-28 7 2 -13 -25 2 -10 -30)
1969/12/31/18:00:19.515,(41 -27 -54 -35 3 2 22 41)
1969/12/31/18:00:19.529,(-67 -12 8 12 49 10 -63 -90)
1969/12/31/18:00:19.529,(-10 17 17 -1 -19 8 12 -5)
1969/12/31/18:00:19.530,(-25 -78 -45 -4 28 -6 -4 7)
1969/12/31/18:00:19.530,(-14 -72 -48 -22 -64 -37 35 22)
1969/12/31/18:00:19.552,(17 101 57 18 -16 -2 -47 -12)
1969/12/31/18:00:19.552,(9 0 54 17 28 16 -2 1)
1969/12/31/18:00:19.553,(-32 56 60 25 22 14 5 -17)
1969/12/31/18:00:19.553,(43 4 -57 -7 -13 -8 -5 13)
1969/12/31/18:00:19.575,(-56 -42 25 17 39 29 23 -14)
1969/12/31/18:00:19.575,(-21 6 -20 -15 -21 -17 -6 -42)
1969/12/31/18:00:19.575,(52 -23 -37 -20 -11 10 17 84)
1969/12/31/18:00:19.575,(7 1 12 6 13 -2 -26 -30)
1969/12/31/18:00:19.589,(27 18 -8 -17 -23 -13 37 43)
1969/12/31/18:00:19.589,(-52 -30 -34 -40 -29 -16 -27 -29)
1969/12/31/18:00:19.590,(4 5 14 49 83 33 6 -3)
1969/12/31/18:00:19.590,(-37 11 1 12 40 31 4 -8)
1969/12/31/18:00:19.612,(39 -57 -53 -15 -19 -6 2 34)
1969/12/31/18:00:19.612,(-57 17 65 9 -13 -12 -8 -34)
1969/12/31/18:00:19.613,(-25 -20 -12 -23 -43 -27 -7 -9)
1969/12/31/18:00:19.613,(10 -63 -61 -24 -12 -20 -25 -11)
1969/12/31/18:00:19.635,(25 107 104 65 29 27 33 25)
1969/12/31/18:00:19.635,(39 13 19 11 3 15 23 40)
1969/12/31/18:00:19.635,(-31 -13 9 0 -28 -13 -12 -55)
1969/12/31/18:00:19.635,(19 2 -1 8 12 5 9 24)
1969/12/31/18:00:19.649,(-10 -81 -75 -49 -68 -19 12 8)
1969/12/31/18:00:19.649,(0 -35 -52 0 40 38 13 15)
1969/12/31/18:00:19.650,(57 47 15 -8 -87 -46 8 50)
1969/12/31/18:00:19.650,(22 32 30 3 -6 27 25 34)
1969/12/31/18:00:19.680,(19 25 2 -13 -15 -20 -6 10)
1969/12/31/18:00:19.680,(29 25 11 12 13 -9 -15 -6)
1969/12/31/18:00:19.681,(49 -48 -84 -33 13 7 6 2)
1969/12/31/18:00:19.681,(-57 59 106 38 -8 -15 -6 -10)
1969/12/31/18:00:19.695,(1 30 36 17 31 22 6 16)
1969/12/31/18:00:19.695,(-16 -55 -31 -8 -2 3 23 13)
1969/12/31/18:00:19.695,(11 2 -32 -14 5 6 -10 -14)
1969/12/31/18:00:19.696,(-12 -7 -21 -16 -19 -28 -34 -24)
1969/12/31/18:00:19.708,(-19 1 12 8 24 27 14 3)
1969/12/31/18:00:19.708,(-18 17 17 6 -29 -31 -12 -36)
1969/12/31/18:00:19.716,(-32 -37 -8 0 32 16 20 0)
1969/12/31/18:00:19.717,(-1 20 16 24 -32 -13 -29 -19)
1969/12/31/18:00:19.732,(-13 -20 -11 -2 26 26 3 -2)
1969/12/31/18:00:19.732,(24 -2 -26 0 -15 6 74 75)
1969/12/31/18:00:19.733,(-56 -23 1 -17 -19 -7 -31 -73)
1969/12/31/18:00:19.733,(-12 13 10 -3 26 33 9 -28)
1969/12/31/18:00:19.755,(33 -4 -13 -8 -39 -58 -17 22)
1969/12/31/18:00:19.755,(-29 -24 -23 -23 -16 -2 -31 -40)
1969/12/31/18:00:19.755,(-22 9 16 -1 -5 -4 4 0)
1969/12/31/18:00:19.755,(9 15 4 5 24 11 32 42)
1969/12/31/18:00:19.777,(-54 -47 -42 -20 -9 -1 -25 -85)
1969/12/31/18:00:19.777,(30 -5 -11 -2 12 -2 1 15)
1969/12/31/18:00:19.778,(-3 87 100 39 12 7 1 11)
1969/12/31/18:00:19.778,(5 -6 -10 -4 -8 -14 -15 -5)
1969/12/31/18:00:19.792,(32 28 8 12 21 27 36 45)
1969/12/31/18:00:19.792,(7 -35 -33 -19 -24 -19 -23 -1)
1969/12/31/18:00:19.793,(9 -9 -14 -5 12 1 -3 3)
1969/12/31/18:00:19.793,(31 16 9 3 -2 -1 6 22)
1969/12/31/18:00:19.815,(-59 -28 1 -6 -14 -4 0 -43)
1969/12/31/18:00:19.815,(9 15 0 -16 9 27 -61 -27)
1969/12/31/18:00:19.815,(40 4 -2 31 10 -11 35 21)
1969/12/31/18:00:19.815,(27 18 11 6 2 -12 -14 14)
1969/12/31/18:00:19.828,(23 -10 -6 4 4 13 18 32)
1969/12/31/18:00:19.828,(-27 2 1 -12 -31 -42 -3 -6)
1969/12/31/18:00:19.836,(4 4 -6 -8 35 44 -24 21)
1969/12/31/18:00:19.836,(-16 -15 -12 -9 -15 -24 -4 -24)
1969/12/31/18:00:19.852,(-25 -12 -6 -9 -3 -13 -25 -41)
1969/12/31/18:00:19.852,(4 2 4 6 7 2 13 12)
1969/12/31/18:00:19.853,(44 8 4 0 -8 -1 5 31)
1969/12/31/18:00:19.853,(-46 -31 -16 -7 -2 -8 -6 -19)
1969/12/31/18:00:19.875,(-3 -8 -6 -6 2 -3 -6 3)
1969/12/31/18:00:19.875,(0 6 2 3 5 9 13 3)
1969/12/31/18:00:19.875,(26 13 -5 0 -3 -1 12 13)
1969/12/31/18:00:19.875,(56 24 7 -2 -1 6 -5 17)
1969/12/31/18:00:19.888,(-46 -37 -15 -7 -2 -4 -6 -31)
1969/12/31/18:00:19.888,(-23 12 19 17 13 7 3 -12)
1969/12/31/18:00:19.896,(26 -32 -15 -6 -6 4 22 65)
1969/12/31/18:00:19.896,(-15 10 -3 -6 -7 -8 -14 -10)
1969/12/31/18:00:19.912,(58 13 5 4 6 5 7 27)
1969/12/31/18:00:19.912,(-4 -10 -6 4 6 2 13 23)
1969/12/31/18:00:19.913,(13 9 -5 -7 -11 -11 -14 -21)
1969/12/31/18:00:19.913,(-14 3 10 8 6 12 18 4)
1969/12/31/18:00:19.934,(-8 -13 -15 -8 -5 -3 -19 -22)
1969/12/31/18:00:19.934,(-26 -12 -9 -8 -6 -6 1 -18)
1969/12/31/18:00:19.942,(-21 9 5 -2 -9 -7 -6 -27)
1969/12/31/18:00:19.942,(5 -1 -2 1 1 -4 6 4)
1969/12/31/18:00:19.948,(-8 -5 11 10 13 21 19 35)
1969/12/31/18:00:19.948,(16 33 10 6 5 5 6 6)
1969/12/31/18:00:19.957,(-72 -49 -26 -19 -17 -21 -32 -63)
1969/12/31/18:00:19.957,(29 23 11 8 8 12 5 10)
1969/12/31/18:00:19.972,(65 34 7 0 2 0 16 52)
1969/12/31/18:00:19.972,(-40 -42 -14 -6 -4 -9 -19 -46)
1969/12/31/18:00:19.978,(10 -7 2 2 2 1 3 13)
1969/12/31/18:00:19.978,(-71 -12 -8 -8 -8 -10 -21 -54)
1969/12/31/18:00:19.995,(1 -1 0 -4 -3 -8 -16 -51)
1969/12/31/18:00:19.995,(16 6 -5 1 3 1 10 20)
1969/12/31/18:00:19.996,(36 -3 -13 -5 -4 0 -1 11)
1969/12/31/18:00:19.996,(34 2 28 13 9 11 18 44)
1969/12/31/18:00:20.008,(-64 -18 -23 -17 -14 -18 -23 -45)
1969/12/31/18:00:20.008,(-10 -5 4 3 0 2 -10 -16)
1969/12/31/18:00:20.017,(-7 14 5 2 1 1 3 -2)
1969/12/31/18:00:20.017,(17 -19 -18 -6 -1 1 7 22)
1969/12/31/18:00:20.031,(8 14 4 4 2 0 7 15)
1969/12/31/18:00:20.031,(17 0 4 5 6 7 8 28)
1969/12/31/18:00:20.040,(13 7 -6 -8 -10 -6 0 0)
1969/12/31/18:00:20.040,(-21 -15 -14 -8 -3 -9 -10 -24)
1969/12/31/18:00:20.055,(18 7 11 8 6 7 5 15)
1969/12/31/18:00:20.055,(7 6 -6 -1 -1 0 -2 -1)
1969/12/31/18:00:20.056,(0 6 8 2 1 4 3 0)
1969/12/31/18:00:20.056,(20 1 -16 -12 -8 -3 -5 -3)
1969/12/31/18:00:20.068,(-32 -37 19 14 9 4 3 4)
1969/12/31/18:00:20.068,(15 39 5 -3 -3 -1 2 14)
1969/12/31/18:00:20.077,(-30 -17 -8 -3 1 -1 -1 -14)
1969/12/31/18:00:20.077,(68 33 14 6 5 7 12 35)
1969/12/31/18:00:20.091,(-59 -27 -10 -10 -11 -17 -17 -40)
1969/12/31/18:00:20.091,(32 -11 -12 -1 -1 3 2 10)
1969/12/31/18:00:20.098,(-12 -1 5 -3 -4 -4 -6 -6)
1969/12/31/18:00:20.098,(-6 -11 -17 -8 -1 -1 -2 -1)
1969/12/31/18:00:20.114,(34 27 18 8 9 4 8 24)
1969/12/31/18:00:20.114,(-10 -21 -10 -7 -3 -4 -2 -6)
1969/12/31/18:00:20.116,(-5 -4 -34 -19 -8 -4 -4 -4)
1969/12/31/18:00:20.116,(-20 47 92 39 16 5 1 -12)
1969/12/31/18:00:20.129,(11 5 -14 -2 -1 0 2 9)
1969/12/31/18:00:20.129,(-10 -10 -5 -2 1 -1 -1 -2)
1969/12/31/18:00:20.137,(7 22 12 2 1 3 3 5)
1969/12/31/18:00:20.137,(-14 -36 -41 -18 -9 -6 -9 -11)
1969/12/31/18:00:20.151,(11 15 2 -2 -1 4 0 9)
1969/12/31/18:00:20.151,(4 -6 6 7 10 13 12 10)
1969/12/31/18:00:20.158,(3 -26 -26 -11 -15 -15 -20 -11)
1969/12/31/18:00:20.158,(-27 24 11 1 -1 -3 0 -14)
1969/12/31/18:00:20.174,(2 -7 1 8 4 3 -6 5)
1969/12/31/18:00:20.174,(10 -12 -32 -19 -8 -7 -4 -2)
1969/12/31/18:00:20.176,(-9 17 17 11 7 4 18 1)
1969/12/31/18:00:20.176,(-15 -25 -19 -12 -7 -6 -7 -6)
1969/12/31/18:00:20.197,(17 -31 -28 -9 -2 3 11 12)
1969/12/31/18:00:20.197,(1 44 32 12 7 4 6 10)
1969/12/31/18:00:20.198,(-16 -31 -21 -18 -13 -10 -9 -7)
1969/12/31/18:00:20.199,(-6 0 3 4 1 3 0 -11)
1969/12/31/18:00:20.211,(17 36 14 3 5 7 25 10)
1969/12/31/18:00:20.211,(-17 -42 -10 0 -7 -12 -52 -33)
1969/12/31/18:00:20.218,(-2 24 41 25 9 5 9 6)
1969/12/31/18:00:20.218,(1 -20 -17 -8 -6 -6 -7 4)
1969/12/31/18:00:20.235,(-3 -34 -33 -33 -9 2 9 6)
1969/12/31/18:00:20.235,(7 51 17 7 4 5 11 4)
1969/12/31/18:00:20.236,(9 18 46 43 13 3 -3 9)
1969/12/31/18:00:20.236,(0 -7 2 14 3 2 3 -5)
1969/12/31/18:00:20.265,(-15 -16 -6 -12 -5 -4 -10 -8)
1969/12/31/18:00:20.265,(-1 5 -31 -35 -12 -14 1 0)
1969/12/31/18:00:20.266,(-2 2 43 26 5 5 -1 -5)
1969/12/31/18:00:20.266,(7 7 -3 3 4 4 0 5)
1969/12/31/18:00:20.271,(8 13 7 5 -3 1 5 9)
1969/12/31/18:00:20.271,(-11 -14 -7 -1 -1 2 -2 -9)
1969/12/31/18:00:20.278,(-4 2 -25 -25 -7 -3 -3 -6)
1969/12/31/18:00:20.278,(-22 -29 -14 -6 -5 1 -12 -13)
1969/12/31/18:00:20.294,(1 7 4 4 -3 -1 -7 -2)
1969/12/31/18:00:20.294,(10 11 20 7 0 3 1 5)
1969/12/31/18:00:20.296,(5 -7 -12 -4 1 2 0 -1)
1969/12/31/18:00:20.296,(-12 -30 -25 -21 -9 -1 0 0)
1969/12/31/18:00:20.317,(23 81 16 0 0 -4 -11 -3)
1969/12/31/18:00:20.317,(-3 0 16 36 12 7 5 5)
1969/12/31/18:00:20.319,(-13 -11 -2 0 0 4 -6 -10)
1969/12/31/18:00:20.319,(2 1 1 -1 -4 4 4 -4)
1969/12/31/18:00:20.331,(-16 -42 -30 -23 -12 -5 -2 -1)
1969/12/31/18:00:20.331,(-3 -24 -22 -21 -7 -8 -4 -4)
1969/12/31/18:00:20.340,(12 24 6 11 8 -3 7 8)
1969/12/31/18:00:20.340,(16 1 2 15 10 0 -3 8)
