time,.data
1969/12/31/18:00:14.878,(-1 -1 -1 -1 -2 -1 1 0)
1969/12/31/18:00:14.878,(0 -2 -1 -3 0 -1 -3 -3)
1969/12/31/18:00:14.879,(0 1 -1 -1 -5 0 2 -2)
1969/12/31/18:00:14.879,(0 -1 0 2 1 1 -1 -2)
1969/12/31/18:00:14.890,(0 1 -1 -4 -2 -1 -1 -1)
1969/12/31/18:00:14.890,(-1 -1 0 0 0 -2 -2 -2)
1969/12/31/18:00:14.899,(0 -2 -1 -1 0 2 4 2)
1969/12/31/18:00:14.899,(-1 1 0 -1 2 3 0 1)
1969/12/31/18:00:14.914,(-3 -1 0 -3 -2 -2 -3 -1)
1969/12/31/18:00:14.914,(-2 -1 0 -1 -1 -1 -2 -3)
1969/12/31/18:00:14.916,(-1 -1 -1 -2 -1 -1 0 -1)
1969/12/31/18:00:14.916,(0 -3 0 1 1 0 -2 -2)
1969/12/31/18:00:14.944,(0 -1 0 1 -2 1 3 1)
1969/12/31/18:00:14.944,(0 -1 -3 0 1 1 -1 0)
1969/12/31/18:00:14.946,(-2 0 0 1 1 -2 -2 -1)
1969/12/31/18:00:14.946,(-1 0 -1 -1 1 -1 -3 -1)
1969/12/31/18:00:14.950,(0 0 0 -1 -2 0 2 1)
1969/12/31/18:00:14.950,(0 0 -2 0 1 0 -2 -1)
1969/12/31/18:00:14.959,(0 -1 0 -1 -1 0 -2 -2)
1969/12/31/18:00:14.959,(-1 0 -2 0 -2 -1 -1 -2)
1969/12/31/18:00:14.974,(-1 -1 -2 0 1 -1 1 -1)
1969/12/31/18:00:14.974,(0 0 -1 -1 1 -1 -1 -1)
1969/12/31/18:00:14.976,(1 1 -1 -2 -1 1 2 0)
1969/12/31/18:00:14.976,(-2 -4 -4 -1 0 -1 -2 -1)
1969/12/31/18:00:14.997,(2 4 3 5 2 1 -1 -1)
1969/12/31/18:00:14.997,(-2 -3 -1 -4 -5 -4 -2 -1)
1969/12/31/18:00:14.998,(1 -1 -5 0 3 2 0 1)
1969/12/31/18:00:14.998,(-3 -4 -1 -1 -1 -5 -3 -2)
1969/12/31/18:00:15.010,(0 -3 -1 -4 -5 1 2 0)
1969/12/31/18:00:15.010,(-2 0 2 3 1 0 -5 -3)
1969/12/31/18:00:15.019,(-7 -5 -7 1 0 3 1 -5)
1969/12/31/18:00:15.019,(6 7 -6 2 5 -1 3 5)
1969/12/31/18:00:15.034,(-12 -13 -6 -8 -3 -2 -4 -7)
1969/12/31/18:00:15.034,(4 4 -1 0 -1 0 3 2)
1969/12/31/18:00:15.036,(-7 -8 4 -9 -10 -6 -5 -6)
1969/12/31/18:00:15.036,(0 0 5 -1 -10 -1 2 0)
1969/12/31/18:00:15.057,(4 5 -6 6 14 0 -2 2)
1969/12/31/18:00:15.057,(0 -3 1 3 5 1 -1 1)
1969/12/31/18:00:15.058,(7 9 4 -1 -1 -1 2 4)
1969/12/31/18:00:15.058,(-1 -3 -5 -6 -8 0 1 -3)
1969/12/31/18:00:15.070,(0 -3 8 11 -5 -4 -1 1)
1969/12/31/18:00:15.070,(-8 -4 -10 -2 7 1 -1 -4)
1969/12/31/18:00:15.080,(2 5 12 2 -17 -7 -4 0)
1969/12/31/18:00:15.080,(1 0 -16 -6 16 0 0 1)
1969/12/31/18:00:15.094,(-4 -10 9 14 -5 2 0 -4)
1969/12/31/18:00:15.094,(-4 1 6 4 10 4 -2 -4)
1969/12/31/18:00:15.096,(6 -1 -17 -12 -4 4 6 6)
1969/12/31/18:00:15.096,(-2 4 17 -29 -28 -9 -3 -1)
1969/12/31/18:00:15.117,(-4 -4 -26 -34 -18 -11 -7 -5)
1969/12/31/18:00:15.117,(15 11 5 22 14 1 3 10)
1969/12/31/18:00:15.118,(0 -2 1 24 23 11 3 1)
1969/12/31/18:00:15.118,(0 0 30 -2 2 1 -2 -4)
1969/12/31/18:00:15.139,(-12 -18 -14 19 6 4 0 -6)
1969/12/31/18:00:15.139,(4 5 3 -52 -25 2 7 5)
1969/12/31/18:00:15.141,(3 17 3 33 -14 -12 -2 2)
1969/12/31/18:00:15.141,(11 1 -19 10 42 8 3 7)
1969/12/31/18:00:15.155,(-6 -13 8 -29 -48 -21 -12 -9)
1969/12/31/18:00:15.155,(-7 -4 -12 -70 -31 -17 -6 -5)
1969/12/31/18:00:15.156,(-6 -13 -1 4 8 5 1 -3)
1969/12/31/18:00:15.156,(-7 3 43 88 1 18 8 -3)
1969/12/31/18:00:15.177,(12 26 6 56 83 27 10 10)
1969/12/31/18:00:15.177,(2 -2 3 16 15 -1 -2 1)
1969/12/31/18:00:15.178,(-5 -16 -52 -128 -99 -39 -14 -8)
1969/12/31/18:00:15.178,(3 -13 -28 -8 -52 -28 -7 2)
1969/12/31/18:00:15.190,(-4 8 51 87 86 27 7 2)
1969/12/31/18:00:15.190,(-1 11 49 125 72 35 11 1)
1969/12/31/18:00:15.199,(-6 -1 25 45 55 15 -1 -4)
1969/12/31/18:00:15.199,(2 -1 -24 -64 -64 -17 -3 0)
1969/12/31/18:00:15.214,(7 -12 -73 -128 -103 -25 -3 3)
1969/12/31/18:00:15.214,(-7 -17 21 24 23 -6 -5 -5)
1969/12/31/18:00:15.220,(1 13 5 46 23 9 1 2)
1969/12/31/18:00:15.220,(-3 0 -6 -27 -24 -9 -4 -4)
1969/12/31/18:00:15.237,(6 7 -11 -18 -10 -12 -2 3)
1969/12/31/18:00:15.237,(7 3 3 29 10 20 14 8)
1969/12/31/18:00:15.238,(-7 -12 10 -10 26 10 0 -5)
1969/12/31/18:00:15.238,(-9 0 26 36 50 19 -1 -3)
1969/12/31/18:00:15.250,(2 -1 -20 -52 -66 -15 -2 -2)
1969/12/31/18:00:15.250,(-5 -10 -33 -96 -56 -21 -7 -5)
1969/12/31/18:00:15.259,(13 19 28 116 74 12 5 8)
1969/12/31/18:00:15.259,(-9 -8 -1 -45 -15 -4 -6 -5)
1969/12/31/18:00:15.282,(3 10 10 3 30 9 5 2)
1969/12/31/18:00:15.282,(2 -7 -42 -36 -49 -16 -7 -2)
1969/12/31/18:00:15.283,(-7 -12 1 -14 -30 -7 -1 -4)
1969/12/31/18:00:15.283,(7 9 19 54 51 15 7 8)
1969/12/31/18:00:15.297,(-8 -5 14 39 9 -1 -4 -5)
1969/12/31/18:00:15.297,(-1 4 -26 -99 -31 -8 -1 -2)
1969/12/31/18:00:15.298,(17 9 3 12 17 16 9 13)
1969/12/31/18:00:15.298,(-9 -8 11 50 23 4 -2 -6)
1969/12/31/18:00:15.310,(-3 -2 9 5 -2 -3 -3 -3)
1969/12/31/18:00:15.310,(-3 -2 -3 28 -3 -6 -3 -2)
1969/12/31/18:00:15.319,(-5 -8 -33 -98 -55 -25 -9 -6)
1969/12/31/18:00:15.319,(3 2 -2 3 -4 4 1 4)
1969/12/31/18:00:15.334,(2 6 21 15 27 12 5 3)
1969/12/31/18:00:15.334,(0 2 5 29 54 12 0 -2)
1969/12/31/18:00:15.340,(-8 -9 1 13 2 0 -4 -4)
1969/12/31/18:00:15.341,(-1 -3 -15 -27 -18 -9 -1 -1)
1969/12/31/18:00:15.357,(3 2 -7 -17 -20 -4 0 4)
1969/12/31/18:00:15.357,(-2 -2 2 12 -7 -6 -4 -2)
1969/12/31/18:00:15.358,(-6 -5 0 -22 -11 -2 -1 -4)
1969/12/31/18:00:15.358,(5 2 -13 16 9 1 3 4)
1969/12/31/18:00:15.370,(3 2 -2 -32 -9 -3 -2 1)
1969/12/31/18:00:15.370,(-3 -1 17 60 1 -1 -1 -3)
1969/12/31/18:00:15.379,(-1 1 7 0 3 2 0 -1)
1969/12/31/18:00:15.379,(-4 -2 -6 -20 0 -3 -4 -4)
1969/12/31/18:00:15.394,(2 -1 7 44 24 6 1 1)
1969/12/31/18:00:15.394,(-1 -4 -10 -28 -15 -7 -2 0)
1969/12/31/18:00:15.402,(1 1 1 -18 -21 -4 -1 0)
1969/12/31/18:00:15.402,(-1 -2 -4 9 21 4 0 0)
1969/12/31/18:00:15.417,(-2 -2 -1 -4 -9 -1 -1 -3)
1969/12/31/18:00:15.417,(0 0 0 -1 -4 2 2 0)
1969/12/31/18:00:15.419,(2 0 -4 -11 -6 -3 -2 1)
1969/12/31/18:00:15.419,(-2 -3 -4 -5 2 0 -3 -3)
1969/12/31/18:00:15.430,(-1 -1 4 17 7 2 0 -2)
1969/12/31/18:00:15.431,(6 10 3 -3 -10 -1 -2 3)
1969/12/31/18:00:15.439,(-8 -8 -3 3 10 5 1 -2)
1969/12/31/18:00:15.439,(-3 -5 -5 -13 -5 -2 0 1)
1969/12/31/18:00:15.454,(5 7 3 7 -2 3 0 0)
1969/12/31/18:00:15.454,(-7 -4 -3 9 8 -3 -9 -11)
1969/12/31/18:00:15.460,(8 5 -4 -14 -8 -1 3 8)
1969/12/31/18:00:15.460,(2 3 1 1 4 2 2 2)
1969/12/31/18:00:15.477,(-8 -4 2 6 -2 -6 -2 -2)
1969/12/31/18:00:15.477,(2 -4 -14 -11 -2 1 3 4)
1969/12/31/18:00:15.478,(-1 1 0 -24 8 0 -4 -3)
1969/12/31/18:00:15.478,(-8 -3 7 2 -24 -7 -2 -2)
1969/12/31/18:00:15.490,(-4 -1 6 29 19 0 -4 -1)
1969/12/31/18:00:15.490,(24 9 9 5 2 9 14 16)
1969/12/31/18:00:15.499,(-5 -1 -7 -4 -1 -2 -6 -12)
1969/12/31/18:00:15.499,(5 0 -14 -29 -7 -6 -9 -9)
1969/12/31/18:00:15.513,(3 0 -8 -20 -23 -6 -3 3)
1969/12/31/18:00:15.513,(-20 -2 9 24 7 2 1 -6)
1969/12/31/18:00:15.520,(-4 -1 8 27 26 7 7 18)
1969/12/31/18:00:15.520,(11 -8 -4 -8 -5 -12 -16 -11)
1969/12/31/18:00:15.537,(47 51 18 15 21 29 40 42)
1969/12/31/18:00:15.537,(-15 -28 -21 -30 -29 -21 -28 -29)
1969/12/31/18:00:15.538,(0 2 -1 5 -8 0 4 2)
1969/12/31/18:00:15.538,(-14 -3 1 6 7 2 -1 -6)
1969/12/31/18:00:15.559,(-7 -17 -18 -49 -24 -14 -10 -2)
1969/12/31/18:00:15.559,(17 15 11 -4 -7 6 11 16)
1969/12/31/18:00:15.561,(-11 -8 -1 46 30 4 -1 -8)
1969/12/31/18:00:15.561,(-28 -10 -4 -1 -4 0 -1 -7)
1969/12/31/18:00:15.573,(41 15 11 29 13 0 -2 11)
1969/12/31/18:00:15.573,(9 13 2 -35 -20 -3 0 0)
1969/12/31/18:00:15.582,(-15 -17 -7 -18 -28 -11 -9 -21)
1969/12/31/18:00:15.582,(6 12 15 60 61 18 14 22)
1969/12/31/18:00:15.597,(-12 -7 4 9 -1 2 1 -10)
1969/12/31/18:00:15.597,(-36 -18 -1 11 7 1 -11 -22)
1969/12/31/18:00:15.598,(38 22 3 -27 -17 0 11 26)
1969/12/31/18:00:15.598,(9 19 -9 -32 -29 -12 -4 -7)
1969/12/31/18:00:15.627,(-84 -71 -16 -12 -4 -10 -20 -39)
1969/12/31/18:00:15.627,(38 29 6 23 12 3 4 18)
1969/12/31/18:00:15.628,(30 6 3 -5 -9 -3 -4 2)
1969/12/31/18:00:15.628,(15 0 -1 -6 -2 2 7 11)
1969/12/31/18:00:15.633,(6 3 -2 3 4 -1 -7 -2)
1969/12/31/18:00:15.633,(-34 -20 0 4 3 5 10 -3)
1969/12/31/18:00:15.642,(26 30 8 6 0 -4 1 13)
1969/12/31/18:00:15.642,(-8 -11 -2 -11 -17 -1 -2 -7)
1969/12/31/18:00:15.657,(6 1 -6 -17 1 -7 -5 -8)
1969/12/31/18:00:15.657,(7 5 4 9 -6 3 3 4)
1969/12/31/18:00:15.658,(-27 -15 -1 30 20 -1 -11 -18)
1969/12/31/18:00:15.658,(12 3 3 1 8 5 8 22)
1969/12/31/18:00:15.679,(-1 0 -7 -20 -13 0 4 -1)
1969/12/31/18:00:15.679,(-40 -29 -8 -2 0 -11 -17 -27)
1969/12/31/18:00:15.681,(-17 -3 6 3 4 8 11 8)
1969/12/31/18:00:15.681,(73 38 3 9 5 2 8 30)
1969/12/31/18:00:15.693,(-1 1 -2 -14 -13 -7 -4 -3)
1969/12/31/18:00:15.693,(26 16 -12 -41 -11 -4 6 15)
1969/12/31/18:00:15.702,(-39 -33 -1 30 6 0 -4 -17)
1969/12/31/18:00:15.702,(-4 20 15 31 16 6 -3 -12)
1969/12/31/18:00:15.717,(-3 -4 5 14 6 4 3 -1)
1969/12/31/18:00:15.717,(1 -4 -3 -25 -11 -5 -6 -1)
1969/12/31/18:00:15.718,(-10 -12 -14 -26 -18 -7 -2 -4)
1969/12/31/18:00:15.718,(-17 -8 -5 -7 -4 -3 0 -6)
1969/12/31/18:00:15.739,(2 8 5 20 8 1 3 5)
1969/12/31/18:00:15.739,(1 -4 6 8 10 6 3 2)
1969/12/31/18:00:15.741,(12 11 -2 -11 -10 -3 -5 -3)
1969/12/31/18:00:15.741,(-15 -7 -7 -15 -6 -5 -6 -12)
1969/12/31/18:00:15.753,(1 -1 2 0 -1 2 1 5)
1969/12/31/18:00:15.753,(4 4 -6 -20 -17 -6 -2 0)
1969/12/31/18:00:15.762,(9 9 -2 4 9 -1 0 5)
1969/12/31/18:00:15.762,(7 -9 -16 -51 -16 1 2 1)
1969/12/31/18:00:15.778,(-24 -15 25 107 39 10 6 -2)
1969/12/31/18:00:15.778,(-7 6 21 69 48 11 0 -5)
1969/12/31/18:00:15.780,(8 7 5 5 4 8 9 6)
1969/12/31/18:00:15.780,(-10 -14 -16 -48 -25 -17 -15 -9)
1969/12/31/18:00:15.807,(3 2 -22 -70 -35 -12 -11 -6)
1969/12/31/18:00:15.807,(4 -12 -2 8 -3 2 10 18)
1969/12/31/18:00:15.808,(-24 -13 -6 -20 -5 -2 -5 -17)
1969/12/31/18:00:15.808,(-17 -17 -2 4 0 4 8 4)
1969/12/31/18:00:15.813,(23 18 -1 -13 -8 -1 2 9)
1969/12/31/18:00:15.813,(7 6 -12 -61 -35 -8 -4 -2)
1969/12/31/18:00:15.822,(0 -4 -1 14 -5 -2 0 1)
1969/12/31/18:00:15.822,(1 6 25 87 67 16 7 2)
1969/12/31/18:00:15.837,(-8 1 0 -19 -10 0 -6 -9)
1969/12/31/18:00:15.837,(-20 -18 -1 27 16 -1 -5 -11)
1969/12/31/18:00:15.838,(51 43 11 -33 -1 17 18 28)
1969/12/31/18:00:15.838,(-14 -13 -12 -4 -34 -16 -10 -8)
1969/12/31/18:00:15.859,(9 9 12 47 14 1 1 2)
1969/12/31/18:00:15.859,(-16 -12 3 2 26 11 0 -8)
1969/12/31/18:00:15.861,(-6 -7 -7 -19 -11 -5 -8 -7)
1969/12/31/18:00:15.861,(2 15 12 2 8 16 21 13)
1969/12/31/18:00:15.873,(-10 -19 -21 -45 -28 -15 -11 -4)
1969/12/31/18:00:15.873,(8 -3 -3 -1 -18 -5 9 11)
1969/12/31/18:00:15.882,(-7 1 15 36 29 5 -2 -2)
1969/12/31/18:00:15.882,(10 14 -2 -10 -2 2 2 0)
1969/12/31/18:00:15.896,(-28 -34 -13 -18 -9 -3 -4 -10)
1969/12/31/18:00:15.896,(29 31 2 -1 -6 -4 -3 3)
1969/12/31/18:00:15.905,(-2 -7 -20 -95 -72 -16 -4 0)
1969/12/31/18:00:15.905,(-4 -12 -4 57 34 0 -2 -1)
1969/12/31/18:00:15.919,(-4 3 31 77 58 23 7 1)
1969/12/31/18:00:15.919,(8 12 5 35 35 9 1 1)
1969/12/31/18:00:15.921,(-13 -15 -4 -6 -15 -3 -5 -7)
1969/12/31/18:00:15.921,(6 8 -3 -35 -36 -9 -5 3)
1969/12/31/18:00:15.933,(4 2 -11 -8 -3 -7 -7 -8)
1969/12/31/18:00:15.933,(-14 -8 1 13 -3 -2 -1 -5)
1969/12/31/18:00:15.942,(-3 -2 -1 -2 6 -5 -5 -3)
1969/12/31/18:00:15.942,(-12 -10 -6 -12 -2 -2 -5 -11)
1969/12/31/18:00:15.957,(6 11 4 6 11 2 5 10)
1969/12/31/18:00:15.957,(8 2 -3 -23 -9 -3 -2 7)
1969/12/31/18:00:15.958,(-4 -4 -3 9 -2 -3 -3 -8)
1969/12/31/18:00:15.958,(1 -7 -8 -32 -20 -6 -6 -3)
1969/12/31/18:00:15.979,(9 10 -15 -59 -21 -3 3 5)
1969/12/31/18:00:15.979,(-5 -8 -1 -7 -23 -10 -5 -6)
1969/12/31/18:00:15.981,(5 5 22 105 72 15 5 4)
1969/12/31/18:00:15.981,(-15 -7 21 64 47 13 -3 -9)
1969/12/31/18:00:15.993,(4 6 -7 -32 -20 0 2 3)
1969/12/31/18:00:15.993,(5 -3 -30 -119 -60 -17 -3 3)
1969/12/31/18:00:16.002,(-4 -5 -5 50 -18 -7 -1 -2)
1969/12/31/18:00:16.002,(-12 -7 10 39 28 4 -3 -6)
1969/12/31/18:00:16.017,(8 5 6 7 11 4 1 0)
1969/12/31/18:00:16.017,(8 10 11 32 20 6 5 13)
1969/12/31/18:00:16.018,(-7 -3 -5 -30 -5 1 -3 -19)
1969/12/31/18:00:16.018,(30 20 -8 -61 -42 -3 13 22)
1969/12/31/18:00:16.040,(-5 -6 -9 -11 -15 -9 -7 -9)
1969/12/31/18:00:16.040,(-4 -2 14 60 49 10 2 -2)
1969/12/31/18:00:16.041,(-5 -7 -12 -30 -21 -7 -1 3)
1969/12/31/18:00:16.041,(-5 -3 8 39 13 1 1 1)
1969/12/31/18:00:16.053,(-4 3 6 12 17 5 2 -3)
1969/12/31/18:00:16.053,(7 3 0 -10 -10 1 5 3)
1969/12/31/18:00:16.062,(3 -1 -7 -6 -9 -7 -4 3)
1969/12/31/18:00:16.062,(-2 -3 -4 -36 -23 -4 -5 -6)
1969/12/31/18:00:16.077,(3 3 3 29 9 5 7 10)
1969/12/31/18:00:16.077,(-8 -4 -3 9 5 0 -4 -8)
1969/12/31/18:00:16.079,(-2 3 6 -3 19 7 2 2)
1969/12/31/18:00:16.079,(-11 -12 -10 -16 -17 -8 -7 -7)
1969/12/31/18:00:16.099,(4 5 3 9 -4 -3 -1 -1)
1969/12/31/18:00:16.099,(-1 0 -3 -6 -9 -1 1 1)
1969/12/31/18:00:16.101,(1 -3 -7 -24 -5 -6 -2 2)
1969/12/31/18:00:16.101,(-9 -11 -10 -48 -27 -9 -6 -6)
1969/12/31/18:00:16.113,(-8 -9 5 34 16 2 0 -4)
1969/12/31/18:00:16.113,(57 58 22 56 43 15 10 26)
1969/12/31/18:00:16.122,(-12 -13 -5 -4 -5 -8 -15 -14)
1969/12/31/18:00:16.122,(-8 -3 -1 -5 0 3 3 -3)
1969/12/31/18:00:16.137,(-1 -8 -15 -55 -34 -12 -7 -3)
1969/12/31/18:00:16.137,(-21 -16 -18 -46 -22 -10 -7 -14)
1969/12/31/18:00:16.139,(2 6 16 71 25 7 6 5)
1969/12/31/18:00:16.139,(10 6 8 12 13 7 8 5)
1969/12/31/18:00:16.159,(-2 -1 1 -2 -1 -3 -2 0)
1969/12/31/18:00:16.159,(-15 -8 -6 -23 -16 -8 -6 -11)
1969/12/31/18:00:16.161,(1 2 -8 -28 -17 -3 -1 3)
1969/12/31/18:00:16.161,(-3 -6 1 32 22 8 4 2)
1969/12/31/18:00:16.173,(11 10 5 -4 -2 5 7 9)
1969/12/31/18:00:16.173,(-15 -12 0 28 6 0 -7 -7)
1969/12/31/18:00:16.182,(-5 -2 2 -9 -1 -2 0 -2)
1969/12/31/18:00:16.182,(-1 0 -5 -26 -15 -6 -3 -3)
1969/12/31/18:00:16.196,(2 1 -2 23 21 2 0 -1)
1969/12/31/18:00:16.196,(-5 -7 -1 -1 -2 3 0 -3)
1969/12/31/18:00:16.203,(-7 -7 -3 -9 -4 -2 -3 -2)
1969/12/31/18:00:16.203,(-4 3 2 5 -1 -3 -2 -6)
1969/12/31/18:00:16.219,(-11 -10 -8 -36 -23 -7 -8 -7)
1969/12/31/18:00:16.219,(30 25 9 9 2 10 19 31)
1969/12/31/18:00:16.221,(1 0 4 18 16 5 0 0)
1969/12/31/18:00:16.221,(-2 -8 -8 -28 -5 -4 -7 -7)
1969/12/31/18:00:16.233,(-17 -3 -3 20 -8 -2 -3 -5)
1969/12/31/18:00:16.233,(4 -11 1 9 4 1 -1 -7)
1969/12/31/18:00:16.242,(6 2 -2 -12 -5 -3 -2 4)
1969/12/31/18:00:16.242,(-1 2 1 -1 -3 -3 -6 -4)
1969/12/31/18:00:16.256,(-4 -5 -5 -29 -12 -5 -2 -2)
1969/12/31/18:00:16.256,(-16 -9 -6 4 4 -3 -4 -8)
1969/12/31/18:00:16.263,(4 6 6 13 -1 3 2 4)
1969/12/31/18:00:16.263,(1 -6 9 53 34 7 2 1)
1969/12/31/18:00:16.279,(-6 -4 11 20 19 8 1 -3)
1969/12/31/18:00:16.279,(11 14 2 8 -6 1 2 4)
1969/12/31/18:00:16.281,(8 1 -5 -47 -18 -8 -1 4)
1969/12/31/18:00:16.281,(-41 -37 -8 -21 -25 -10 -6 -12)
1969/12/31/18:00:16.293,(47 30 -6 4 7 6 12 24)
1969/12/31/18:00:16.293,(-5 0 -6 -18 -6 -2 -5 -4)
1969/12/31/18:00:16.302,(-17 -19 -7 13 0 -1 -2 -11)
1969/12/31/18:00:16.302,(6 9 -1 -8 -10 -6 -7 -2)
1969/12/31/18:00:16.316,(2 11 7 5 -7 -9 -10 -6)
1969/12/31/18:00:16.316,(-14 -17 -6 -11 -3 -13 -12 -5)
1969/12/31/18:00:16.331,(-28 -29 -5 -3 1 1 -8 -22)
1969/12/31/18:00:16.331,(45 39 8 18 14 13 21 31)
1969/12/31/18:00:16.339,(-39 -33 -11 -25 -12 -3 -14 -27)
1969/12/31/18:00:16.339,(2 -2 -5 -9 -18 -10 -6 -2)
1969/12/31/18:00:16.341,(-9 9 8 32 26 5 4 0)
1969/12/31/18:00:16.341,(25 -3 10 16 18 11 10 19)
1969/12/31/18:00:16.362,(-15 9 -12 -11 -7 -15 -26 -22)
1969/12/31/18:00:16.362,(9 -7 10 6 12 24 34 26)
1969/12/31/18:00:16.364,(14 11 -12 -24 -18 -14 -19 -16)
1969/12/31/18:00:16.364,(-22 -19 -12 -33 -19 -7 -12 -12)
1969/12/31/18:00:16.376,(15 4 -1 5 9 9 19 21)
1969/12/31/18:00:16.376,(-13 -7 3 25 1 -10 -14 -11)
1969/12/31/18:00:16.383,(-15 -2 16 13 9 5 8 -6)
1969/12/31/18:00:16.383,(50 49 10 -2 12 20 26 31)
1969/12/31/18:00:16.399,(0 -9 -3 -13 -23 -4 1 0)
1969/12/31/18:00:16.399,(-31 -45 -10 15 2 -11 -17 -22)
1969/12/31/18:00:16.401,(-24 -57 -5 20 13 3 12 19)
1969/12/31/18:00:16.401,(9 88 13 -2 2 -7 -15 -13)
1969/12/31/18:00:16.413,(-14 -29 -4 -25 -14 -4 -4 -8)
1969/12/31/18:00:16.413,(89 101 21 19 10 12 18 29)
1969/12/31/18:00:16.422,(-14 -54 1 6 1 -3 -12 -8)
1969/12/31/18:00:16.422,(8 17 -8 -54 -38 -4 12 25)
1969/12/31/18:00:16.436,(-55 -64 -1 78 37 6 0 -19)
1969/12/31/18:00:16.436,(34 62 -3 -48 -21 -1 -3 -4)
1969/12/31/18:00:16.443,(10 9 0 20 26 6 7 8)
1969/12/31/18:00:16.443,(-16 -30 3 36 8 -2 -11 -13)
1969/12/31/18:00:16.459,(23 5 0 -18 10 6 11 19)
1969/12/31/18:00:16.459,(-15 -37 -3 14 6 1 3 9)
1969/12/31/18:00:16.461,(-27 -24 -3 -22 -15 5 6 -6)
1969/12/31/18:00:16.461,(-63 -29 -5 -9 -21 -21 -28 -52)
1969/12/31/18:00:16.482,(10 -38 -1 -6 3 17 24 29)
1969/12/31/18:00:16.482,(6 31 8 7 10 3 3 10)
1969/12/31/18:00:16.483,(69 96 -5 -37 -17 -1 -4 -6)
1969/12/31/18:00:16.483,(-24 -64 -12 7 1 -6 -6 -15)
1969/12/31/18:00:16.496,(19 13 18 20 1 1 2 9)
1969/12/31/18:00:16.496,(-38 -54 -19 -51 -20 -8 -9 -11)
1969/12/31/18:00:16.503,(-18 -30 -3 2 -10 3 6 6)
1969/12/31/18:00:16.503,(10 22 31 69 25 0 -2 2)
1969/12/31/18:00:16.519,(2 34 -6 25 36 -1 -8 -7)
1969/12/31/18:00:16.519,(-2 -15 1 16 14 11 11 9)
1969/12/31/18:00:16.521,(1 16 -5 -18 -4 -5 -6 6)
1969/12/31/18:00:16.521,(1 -4 -12 -37 -17 4 8 0)
1969/12/31/18:00:16.542,(1 -13 -2 -27 -37 -29 -24 -10)
1969/12/31/18:00:16.542,(-15 45 -14 -9 -2 -3 1 -5)
1969/12/31/18:00:16.543,(6 -21 1 -1 -3 -9 -18 -15)
1969/12/31/18:00:16.543,(-44 -70 -11 -5 1 -3 -9 -15)
1969/12/31/18:00:16.556,(20 43 11 3 4 9 13 15)
1969/12/31/18:00:16.556,(-56 -118 -7 7 -8 -13 -16 -25)
1969/12/31/18:00:16.565,(79 107 23 3 5 7 16 40)
1969/12/31/18:00:16.565,(5 -44 -16 -3 4 8 13 15)
1969/12/31/18:00:16.579,(16 41 4 -8 -5 -1 -5 -1)
1969/12/31/18:00:16.579,(-20 -35 -5 -16 -7 -5 -10 -15)
1969/12/31/18:00:16.581,(19 15 8 41 4 6 20 29)
1969/12/31/18:00:16.581,(-27 -22 -5 11 12 -6 -13 -20)
1969/12/31/18:00:16.602,(-19 -6 10 31 10 3 2 -7)
1969/12/31/18:00:16.602,(52 52 9 -1 6 6 9 26)
1969/12/31/18:00:16.604,(-20 -5 -2 -33 3 16 17 5)
1969/12/31/18:00:16.604,(29 22 -9 -6 -14 -11 -6 1)
1969/12/31/18:00:16.615,(-19 -21 -7 -17 -15 -14 -17 -12)
1969/12/31/18:00:16.616,(-78 -65 0 13 5 -5 -14 -50)
1969/12/31/18:00:16.625,(19 38 -10 -29 -16 -2 2 10)
1969/12/31/18:00:16.625,(-29 -38 -9 1 1 -1 -3 -13)
1969/12/31/18:00:16.640,(46 27 5 -8 1 11 28 51)
1969/12/31/18:00:16.640,(-6 7 8 3 -9 -13 -23 -33)
1969/12/31/18:00:16.641,(-29 -35 -18 -36 -19 -10 -14 -14)
1969/12/31/18:00:16.641,(3 -5 -17 -48 -16 7 15 13)
1969/12/31/18:00:16.664,(16 23 30 90 40 5 1 0)
1969/12/31/18:00:16.664,(-7 -20 4 13 11 12 9 7)
1969/12/31/18:00:16.665,(-17 -5 -2 46 24 -8 -14 -17)
1969/12/31/18:00:16.665,(15 41 13 -2 2 -3 -5 2)
1969/12/31/18:00:16.675,(-11 -27 -18 -45 -20 3 4 -2)
1969/12/31/18:00:16.675,(1 -30 -15 -4 -7 -1 3 11)
1969/12/31/18:00:16.685,(9 48 14 -3 -1 -6 -7 -10)
1969/12/31/18:00:16.685,(22 11 -4 -8 0 -1 -3 8)
1969/12/31/18:00:16.699,(16 -10 5 -13 -7 3 2 1)
1969/12/31/18:00:16.699,(26 56 2 1 -1 4 18 22)
1969/12/31/18:00:16.701,(-22 -64 -16 -3 -5 -7 -12 -3)
1969/12/31/18:00:16.701,(21 23 -1 11 4 -1 1 10)
1969/12/31/18:00:16.722,(-16 -20 -7 -2 2 3 -3 -13)
1969/12/31/18:00:16.722,(-12 -13 -8 -11 -2 -3 -4 -4)
1969/12/31/18:00:16.723,(-6 -15 -1 5 8 0 -1 -4)
1969/12/31/18:00:16.723,(10 22 11 -1 -12 1 9 11)
1969/12/31/18:00:16.735,(-6 5 -4 -10 2 -12 -17 -15)
1969/12/31/18:00:16.735,(7 -2 -12 -23 -9 -2 0 9)
1969/12/31/18:00:16.745,(-24 -45 3 21 5 2 -3 -12)
1969/12/31/18:00:16.745,(-20 -6 7 27 11 -7 -14 -26)
1969/12/31/18:00:16.759,(0 5 5 -4 -4 5 8 7)
1969/12/31/18:00:16.759,(41 72 10 22 15 4 2 13)
1969/12/31/18:00:16.761,(-21 -24 -10 -21 -9 -5 -5 -15)
1969/12/31/18:00:16.761,(-13 -27 -10 -15 -7 2 4 5)
1969/12/31/18:00:16.782,(-21 -11 -10 -16 -15 -12 -14 -23)
1969/12/31/18:00:16.782,(-10 -13 -3 -3 -8 -8 -5 -6)
1969/12/31/18:00:16.784,(10 9 -1 4 3 4 7 11)
1969/12/31/18:00:16.784,(14 10 12 33 16 4 4 13)
1969/12/31/18:00:16.796,(0 2 -1 6 10 6 9 11)
1969/12/31/18:00:16.796,(-17 -15 4 7 4 4 2 -5)
1969/12/31/18:00:16.804,(-5 -46 -9 -14 -9 1 2 8)
1969/12/31/18:00:16.804,(9 36 0 -12 -5 -1 0 -6)
1969/12/31/18:00:16.819,(22 23 1 -3 -6 -3 -2 7)
1969/12/31/18:00:16.819,(23 10 8 -1 4 8 11 14)
1969/12/31/18:00:16.821,(-13 -14 9 15 9 10 16 9)
1969/12/31/18:00:16.821,(28 49 -3 -13 -3 4 10 15)
1969/12/31/18:00:16.842,(-27 -7 6 3 6 -2 -9 -20)
1969/12/31/18:00:16.842,(-9 -29 0 7 3 0 -4 -10)
1969/12/31/18:00:16.843,(36 66 9 5 -3 -2 3 12)
1969/12/31/18:00:16.843,(-36 -49 -10 -6 -9 -11 -18 -19)
1969/12/31/18:00:16.855,(-14 -11 -16 -44 -13 -2 1 -11)
1969/12/31/18:00:16.856,(12 18 1 -8 5 -1 -2 6)
1969/12/31/18:00:16.865,(-16 -5 17 62 -1 -7 -8 -10)
1969/12/31/18:00:16.865,(10 0 7 17 22 12 8 11)
1969/12/31/18:00:16.879,(13 9 -3 3 1 1 3 16)
1969/12/31/18:00:16.880,(-37 -48 -15 -16 -4 -3 -7 -19)
1969/12/31/18:00:16.881,(19 1 -12 -30 -11 -9 -11 -7)
1969/12/31/18:00:16.881,(4 -15 -1 -7 -12 -8 -2 9)
1969/12/31/18:00:16.902,(15 32 -7 -8 -13 -8 -8 -13)
1969/12/31/18:00:16.902,(-14 -54 -2 8 3 4 2 7)
1969/12/31/18:00:16.903,(58 105 5 -15 -3 1 5 18)
1969/12/31/18:00:16.903,(-31 -23 5 6 3 4 3 -14)
1969/12/31/18:00:16.924,(0 -17 1 8 9 8 10 11)
1969/12/31/18:00:16.924,(-6 -4 3 6 -11 -9 -5 -10)
1969/12/31/18:00:16.925,(40 29 16 5 17 20 23 26)
1969/12/31/18:00:16.925,(-8 -13 -12 -7 -6 -9 -13 -10)
1969/12/31/18:00:16.939,(-1 6 -7 -20 -19 -6 -7 -6)
1969/12/31/18:00:16.939,(-28 -18 -3 18 5 -6 -11 -18)
1969/12/31/18:00:16.939,(-18 -24 7 29 24 4 3 -2)
1969/12/31/18:00:16.939,(24 30 15 29 21 12 9 11)
1969/12/31/18:00:16.961,(-15 -52 -7 -5 -4 3 11 16)
1969/12/31/18:00:16.961,(18 38 2 -9 -14 0 -2 -7)
1969/12/31/18:00:16.962,(-47 -44 -17 -22 -10 -18 -26 -39)
1969/12/31/18:00:16.962,(8 11 0 -18 -15 -8 -1 1)
1969/12/31/18:00:16.976,(-34 -48 -4 3 7 11 9 2)
1969/12/31/18:00:16.976,(33 40 0 -3 -2 -4 -7 0)
1969/12/31/18:00:16.984,(-37 -33 -9 -13 -14 -10 -14 -19)
1969/12/31/18:00:16.984,(19 25 6 -6 1 3 8 9)
1969/12/31/18:00:16.999,(-18 -69 -7 11 5 2 7 8)
1969/12/31/18:00:16.999,(18 34 3 -1 2 -3 -5 2)
1969/12/31/18:00:16.999,(-7 -19 -3 0 1 0 -2 -4)
1969/12/31/18:00:16.999,(-6 -13 -1 1 -1 4 7 11)
1969/12/31/18:00:17.021,(25 25 2 -5 4 6 12 18)
1969/12/31/18:00:17.021,(-9 5 -1 1 5 1 -1 -5)
1969/12/31/18:00:17.022,(-26 -19 -14 -20 -18 -12 -15 -23)
1969/12/31/18:00:17.022,(-2 -24 5 40 2 1 3 4)
1969/12/31/18:00:17.044,(25 78 17 24 18 -2 -9 -6)
1969/12/31/18:00:17.044,(-30 -15 -4 1 2 7 6 -13)
1969/12/31/18:00:17.044,(4 -3 -8 -16 -4 -7 -12 -3)
1969/12/31/18:00:17.044,(0 0 -10 -37 -17 -6 -2 -2)
1969/12/31/18:00:17.059,(-9 2 -3 1 -9 -9 -14 -19)
1969/12/31/18:00:17.059,(44 9 12 13 12 12 27 49)
1969/12/31/18:00:17.059,(-31 -43 -9 4 -2 -6 -12 -16)
1969/12/31/18:00:17.059,(8 28 -13 -13 -2 -2 -4 -10)
1969/12/31/18:00:17.081,(-27 -43 -5 0 -4 -3 -8 -16)
1969/12/31/18:00:17.081,(2 -30 -2 -8 -3 -1 5 18)
1969/12/31/18:00:17.082,(24 40 5 -3 -6 2 4 1)
1969/12/31/18:00:17.082,(-8 -9 -1 -1 -2 -4 -6 -8)
1969/12/31/18:00:17.104,(5 2 -9 -30 -17 -5 -2 1)
1969/12/31/18:00:17.104,(-30 -19 -5 11 -2 -11 -17 -25)
1969/12/31/18:00:17.104,(28 18 17 29 28 17 22 27)
1969/12/31/18:00:17.105,(-14 -10 5 8 8 1 -7 -10)
1969/12/31/18:00:17.119,(13 26 -2 0 -1 0 0 2)
1969/12/31/18:00:17.119,(-35 -28 0 -12 -17 -8 -8 -13)
1969/12/31/18:00:17.119,(18 -10 -4 -7 -4 4 5 11)
1969/12/31/18:00:17.119,(12 15 7 2 11 10 12 5)
1969/12/31/18:00:17.141,(-21 3 -1 3 -7 -7 -7 -15)
1969/12/31/18:00:17.141,(16 8 1 -4 -2 -4 -6 8)
1969/12/31/18:00:17.142,(-3 -12 -7 -5 0 4 6 4)
1969/12/31/18:00:17.142,(-24 -24 -5 -4 -5 -5 -9 -12)
1969/12/31/18:00:17.164,(11 6 1 -1 -2 -1 0 -5)
1969/12/31/18:00:17.164,(1 -8 -4 -2 3 8 10 9)
1969/12/31/18:00:17.164,(-10 11 -2 -8 3 -1 3 -2)
1969/12/31/18:00:17.165,(-1 -3 3 18 4 -2 -4 0)
1969/12/31/18:00:17.179,(-17 -1 8 17 1 -9 -10 -14)
1969/12/31/18:00:17.179,(34 22 3 7 19 18 20 25)
1969/12/31/18:00:17.179,(-17 1 4 0 0 11 11 -5)
1969/12/31/18:00:17.179,(-29 -46 -12 -16 -11 -7 -8 -11)
1969/12/31/18:00:17.201,(17 38 -1 -14 -8 -3 7 14)
1969/12/31/18:00:17.201,(24 15 14 13 6 8 10 11)
1969/12/31/18:00:17.202,(-8 -14 -16 -4 -5 -5 -10 -4)
1969/12/31/18:00:17.202,(-19 -33 -7 -1 1 2 -1 -3)
1969/12/31/18:00:17.224,(4 13 3 10 6 -8 -19 -14)
1969/12/31/18:00:17.224,(-19 -40 -1 -8 2 11 14 3)
1969/12/31/18:00:17.224,(56 96 9 6 9 11 21 26)
1969/12/31/18:00:17.224,(-15 -19 -8 -10 -5 -6 -8 -8)
1969/12/31/18:00:17.239,(3 -3 2 3 -4 -1 -1 -1)
1969/12/31/18:00:17.239,(-5 15 -3 -1 -13 -15 -12 -12)
1969/12/31/18:00:17.239,(-5 -22 3 0 -3 -5 -5 2)
1969/12/31/18:00:17.239,(19 20 2 -6 2 7 10 11)
1969/12/31/18:00:17.261,(-8 -4 1 -3 0 -5 -5 -3)
1969/12/31/18:00:17.261,(-12 2 -6 -12 -10 -15 -17 -12)
1969/12/31/18:00:17.262,(-9 -19 5 8 0 4 10 11)
1969/12/31/18:00:17.262,(-5 -8 -4 3 0 -6 -7 -1)
1969/12/31/18:00:17.284,(7 -28 -17 -40 -9 1 1 6)
1969/12/31/18:00:17.284,(-49 -23 -6 -6 -20 -5 -12 -34)
1969/12/31/18:00:17.285,(-6 -7 9 37 16 -3 -2 -1)
1969/12/31/18:00:17.285,(26 37 17 27 23 9 10 12)
1969/12/31/18:00:17.299,(-24 -25 14 34 18 7 2 -6)
1969/12/31/18:00:17.299,(4 20 -6 -19 -8 -4 -2 2)
1969/12/31/18:00:17.299,(-6 -8 -12 -29 -13 0 1 2)
1969/12/31/18:00:17.299,(-30 -49 -13 -9 -12 -5 -8 -21)
1969/12/31/18:00:17.321,(5 9 -5 -10 -2 -1 -5 -6)
1969/12/31/18:00:17.321,(11 16 -5 -3 -2 -7 -2 3)
1969/12/31/18:00:17.322,(-5 0 -1 3 -1 -5 -12 -14)
1969/12/31/18:00:17.322,(5 -3 7 -4 1 7 15 21)
1969/12/31/18:00:17.344,(2 6 0 1 1 2 3 2)
1969/12/31/18:00:17.344,(-22 -13 0 9 2 -6 -9 -16)
1969/12/31/18:00:17.344,(-21 -42 -2 0 -4 -9 -15 -17)
1969/12/31/18:00:17.344,(9 10 13 4 9 13 14 11)
1969/12/31/18:00:17.359,(63 51 2 -1 1 9 18 27)
1969/12/31/18:00:17.359,(29 36 8 14 10 2 -6 2)
1969/12/31/18:00:17.359,(-6 -16 4 -6 -4 0 7 10)
1969/12/31/18:00:17.359,(-3 1 -7 -8 -5 -4 -8 -7)
1969/12/31/18:00:17.381,(-9 -3 2 5 2 2 5 2)
1969/12/31/18:00:17.381,(1 -5 -4 0 -3 -7 -6 -1)
1969/12/31/18:00:17.382,(7 8 5 -1 5 8 11 8)
1969/12/31/18:00:17.382,(15 30 -3 -9 -9 -9 -7 -1)
1969/12/31/18:00:17.404,(-21 -21 3 8 2 -1 -4 -6)
1969/12/31/18:00:17.404,(-25 -21 -4 0 -5 -9 -15 -20)
1969/12/31/18:00:17.404,(71 66 5 -1 15 28 52 77)
1969/12/31/18:00:17.404,(7 3 2 1 -2 -3 -6 2)
1969/12/31/18:00:17.420,(-16 -13 -10 -4 -5 -6 -10 -17)
1969/12/31/18:00:17.420,(1 4 5 1 -2 0 2 0)
1969/12/31/18:00:17.421,(-38 -35 -6 -10 -17 -19 -21 -23)
1969/12/31/18:00:17.421,(62 51 -6 -4 10 14 25 37)
1969/12/31/18:00:17.441,(-4 3 9 0 2 12 11 8)
1969/12/31/18:00:17.441,(-9 -15 -15 -37 -24 -10 -9 -6)
1969/12/31/18:00:17.442,(-13 -9 6 21 7 -11 -19 -22)
1969/12/31/18:00:17.442,(-16 -10 3 21 9 0 -5 -8)
1969/12/31/18:00:17.464,(-7 -9 2 16 11 4 -1 -4)
1969/12/31/18:00:17.464,(27 22 2 0 6 5 8 17)
1969/12/31/18:00:17.465,(-31 -50 -13 -19 -10 -5 -16 -25)
1969/12/31/18:00:17.465,(2 47 0 -16 -15 -9 -4 -6)
1969/12/31/18:00:17.479,(47 23 2 0 4 5 19 49)
1969/12/31/18:00:17.479,(-13 -18 -6 2 1 -7 -17 -18)
1969/12/31/18:00:17.479,(-22 -20 -7 -9 -10 -3 -2 -11)
1969/12/31/18:00:17.479,(67 70 31 17 11 13 26 63)
1969/12/31/18:00:17.501,(-36 -45 -14 -11 -11 -12 -22 -30)
1969/12/31/18:00:17.501,(1 3 2 11 15 12 9 4)
1969/12/31/18:00:17.502,(19 14 5 4 4 8 5 7)
1969/12/31/18:00:17.502,(-26 -27 -14 -41 -19 -13 -14 -21)
1969/12/31/18:00:17.524,(1 11 -1 -6 -16 -7 0 -3)
1969/12/31/18:00:17.524,(19 14 17 46 35 7 11 15)
1969/12/31/18:00:17.525,(-8 7 5 10 -10 -7 -10 -16)
1969/12/31/18:00:17.525,(-31 -43 -11 11 16 -5 -14 -26)
1969/12/31/18:00:17.539,(8 -2 6 -2 0 3 1 5)
1969/12/31/18:00:17.539,(-4 7 -2 -6 -2 5 12 7)
1969/12/31/18:00:17.539,(0 5 -6 -12 -12 -19 -20 -11)
1969/12/31/18:00:17.539,(-11 -6 -13 -19 -13 1 3 -2)
1969/12/31/18:00:17.561,(-14 2 -7 -4 -3 -6 -11 -20)
1969/12/31/18:00:17.561,(7 2 6 8 9 14 17 16)
1969/12/31/18:00:17.562,(-10 -11 -6 -3 -4 -5 -8 -11)
1969/12/31/18:00:17.562,(10 9 6 -4 -8 -1 1 3)
1969/12/31/18:00:17.584,(-14 16 -3 4 4 -4 -7 -12)
1969/12/31/18:00:17.584,(5 0 -4 -10 -9 -4 -2 0)
1969/12/31/18:00:17.585,(-21 -36 -8 -7 -1 -1 -2 -6)
1969/12/31/18:00:17.585,(-2 -1 -3 -4 -16 -7 -7 -13)
1969/12/31/18:00:17.599,(3 -7 2 14 26 11 10 9)
1969/12/31/18:00:17.599,(-5 -1 4 19 14 5 -2 -7)
1969/12/31/18:00:17.600,(5 2 5 1 -1 1 2 9)
1969/12/31/18:00:17.600,(-24 -25 -7 4 -2 -4 -6 -17)
1969/12/31/18:00:17.621,(-26 -21 -5 -17 -20 -8 -8 -16)
1969/12/31/18:00:17.621,(17 15 -9 -16 -9 -3 2 7)
1969/12/31/18:00:17.622,(-1 1 -2 -1 1 -4 -8 -10)
1969/12/31/18:00:17.622,(-44 -34 -7 -5 -3 -3 1 -11)
1969/12/31/18:00:17.644,(-7 -5 -12 -6 2 2 -2 -6)
1969/12/31/18:00:17.644,(-43 -35 -6 -3 -6 -7 -15 -25)
1969/12/31/18:00:17.645,(14 11 4 5 3 7 5 15)
1969/12/31/18:00:17.645,(-28 -21 -9 -8 -8 -7 -16 -33)
1969/12/31/18:00:17.659,(0 -2 4 3 -3 -3 6 9)
1969/12/31/18:00:17.659,(35 28 12 2 0 1 8 21)
1969/12/31/18:00:17.659,(20 27 11 16 13 13 18 18)
1969/12/31/18:00:17.660,(-1 -8 0 7 9 3 -1 1)
1969/12/31/18:00:17.681,(2 -6 -3 -16 -8 2 1 1)
1969/12/31/18:00:17.681,(-11 -9 0 4 -9 -12 -13 -13)
1969/12/31/18:00:17.682,(27 29 -6 -28 -12 1 8 16)
1969/12/31/18:00:17.682,(-14 -37 2 25 6 -3 -5 -5)
1969/12/31/18:00:17.711,(47 60 18 11 12 15 22 26)
1969/12/31/18:00:17.711,(24 17 11 5 10 11 14 24)
1969/12/31/18:00:17.721,(-37 -26 -8 -4 -6 -12 -19 -30)
1969/12/31/18:00:17.721,(1 -33 -6 -5 -1 5 4 10)
1969/12/31/18:00:17.723,(28 32 13 9 6 16 29 23)
1969/12/31/18:00:17.723,(-19 -21 -13 -6 4 2 -9 -17)
1969/12/31/18:00:17.726,(0 -1 1 0 -1 -1 0 -3)
1969/12/31/18:00:17.726,(5 5 -2 -24 -16 -1 -1 1)
1969/12/31/18:00:17.741,(-19 -24 -6 4 -2 -14 -18 -15)
1969/12/31/18:00:17.741,(17 22 12 17 5 2 10 13)
1969/12/31/18:00:17.742,(6 20 11 25 15 3 3 0)
1969/12/31/18:00:17.742,(1 9 -1 7 5 -5 -9 -7)
1969/12/31/18:00:17.764,(-7 -10 -4 -16 -9 -2 -3 -1)
1969/12/31/18:00:17.764,(-15 -14 -10 -16 -12 -6 -5 -9)
1969/12/31/18:00:17.765,(1 -11 -5 -2 2 4 3 4)
1969/12/31/18:00:17.765,(36 69 17 5 4 5 8 19)
1969/12/31/18:00:17.779,(-16 -21 -8 -2 -5 -9 -17 -23)
1969/12/31/18:00:17.779,(-23 -24 4 2 5 14 15 3)
1969/12/31/18:00:17.779,(-32 -29 -5 -2 -3 -3 -7 -15)
1969/12/31/18:00:17.779,(39 31 2 3 4 5 9 20)
1969/12/31/18:00:17.801,(13 16 2 -4 -12 -14 -13 3)
1969/12/31/18:00:17.801,(11 0 -6 -8 -5 -10 -15 -7)
1969/12/31/18:00:17.802,(-16 -11 -8 -9 3 2 -3 -14)
1969/12/31/18:00:17.802,(-12 -8 1 6 -12 0 1 -3)
1969/12/31/18:00:17.824,(-15 -13 3 14 4 -11 -15 -12)
1969/12/31/18:00:17.824,(29 11 -2 -2 10 13 19 25)
1969/12/31/18:00:17.825,(20 20 3 -6 -1 2 5 13)
1969/12/31/18:00:17.825,(-14 -15 -10 -26 -8 -9 -14 -16)
1969/12/31/18:00:17.839,(-12 -8 2 22 -4 -4 -6 -8)
1969/12/31/18:00:17.839,(-11 -3 3 22 10 -2 -2 -4)
1969/12/31/18:00:17.839,(28 27 7 -1 15 4 5 14)
1969/12/31/18:00:17.839,(-20 -27 -4 7 1 2 2 -7)
1969/12/31/18:00:17.861,(37 58 12 -14 -1 9 16 23)
1969/12/31/18:00:17.861,(-19 -8 -9 -18 -16 -13 -13 -15)
1969/12/31/18:00:17.862,(-5 -39 -11 11 13 16 14 13)
1969/12/31/18:00:17.862,(59 60 8 4 4 -1 5 21)
1969/12/31/18:00:17.884,(-13 -21 -7 -4 1 -1 -6 -4)
1969/12/31/18:00:17.884,(-18 -12 -6 -8 -15 -14 -18 -21)
1969/12/31/18:00:17.885,(-4 6 2 1 -8 -6 -3 -8)
1969/12/31/18:00:17.885,(-19 -15 1 -1 -3 -7 -7 -11)
1969/12/31/18:00:17.899,(3 -11 -8 -2 4 7 10 9)
1969/12/31/18:00:17.899,(21 18 4 -1 -2 3 7 11)
1969/12/31/18:00:17.900,(-13 -10 -5 -13 -14 -10 -9 -9)
1969/12/31/18:00:17.900,(-7 -1 2 7 1 -3 -2 -2)
1969/12/31/18:00:17.921,(-4 -4 -1 8 9 -2 -4 -6)
1969/12/31/18:00:17.921,(0 -4 3 0 3 8 7 6)
1969/12/31/18:00:17.922,(9 11 -1 -2 -1 0 1 5)
1969/12/31/18:00:17.922,(-16 -14 -4 -2 -10 -6 -10 -13)
1969/12/31/18:00:17.944,(-10 -9 2 -8 -6 -3 -3 -9)
1969/12/31/18:00:17.944,(3 -6 -8 -12 0 8 7 4)
1969/12/31/18:00:17.945,(0 6 6 13 8 1 -2 -3)
1969/12/31/18:00:17.945,(4 5 3 4 8 2 3 3)
1969/12/31/18:00:17.959,(-5 -11 -6 -6 -5 -1 -2 -1)
1969/12/31/18:00:17.959,(4 1 -1 -4 -6 -6 0 3)
1969/12/31/18:00:17.959,(0 4 1 -5 -9 -5 -4 -2)
1969/12/31/18:00:17.959,(-14 -16 -5 0 5 1 -2 -6)
1969/12/31/18:00:17.981,(1 -2 0 0 3 3 3 1)
1969/12/31/18:00:17.981,(4 7 1 -5 -7 -6 -4 -1)
1969/12/31/18:00:17.982,(1 3 2 0 0 -3 -4 -3)
1969/12/31/18:00:17.982,(-7 -8 -4 4 5 0 -1 -3)
1969/12/31/18:00:18.004,(2 -20 -7 -9 -6 -7 1 13)
1969/12/31/18:00:18.004,(1 1 7 9 12 12 9 -2)
1969/12/31/18:00:18.005,(5 12 -3 -6 -8 -3 -4 -3)
1969/12/31/18:00:18.005,(-1 -3 -2 0 3 5 4 3)
1969/12/31/18:00:18.018,(-12 -11 -6 -4 -10 -11 -13 -14)
1969/12/31/18:00:18.018,(-4 -5 1 2 -6 -6 -3 0)
1969/12/31/18:00:18.026,(9 5 0 -1 8 5 9 11)
1969/12/31/18:00:18.026,(-8 -10 -5 -18 -4 -5 -7 -8)
1969/12/31/18:00:18.041,(9 9 1 9 0 6 7 5)
1969/12/31/18:00:18.041,(-6 -1 1 -11 -14 -5 -4 -5)
1969/12/31/18:00:18.042,(1 3 -6 -19 -4 -2 -2 -2)
1969/12/31/18:00:18.042,(4 5 3 15 7 0 -3 1)
1969/12/31/18:00:18.064,(-13 -14 14 55 28 8 0 -4)
1969/12/31/18:00:18.064,(21 28 8 11 11 10 4 3)
1969/12/31/18:00:18.065,(24 28 1 -5 3 4 0 8)
1969/12/31/18:00:18.065,(-36 -14 -5 -12 0 8 7 -17)
1969/12/31/18:00:18.078,(36 9 -9 -30 -7 12 20 31)
1969/12/31/18:00:18.078,(-17 -17 -6 0 -15 -18 -14 -11)
1969/12/31/18:00:18.086,(-10 -22 -11 -2 -7 -6 -4 -7)
1969/12/31/18:00:18.086,(-10 -36 -5 -7 -3 0 5 6)
1969/12/31/18:00:18.101,(60 63 16 11 7 9 10 20)
1969/12/31/18:00:18.101,(-13 -14 -5 -5 4 1 -1 -4)
1969/12/31/18:00:18.102,(-6 -3 -1 -14 -17 -3 -1 1)
1969/12/31/18:00:18.102,(-1 6 -2 17 9 -3 -2 -3)
1969/12/31/18:00:18.124,(-24 -21 -4 5 6 1 -4 -13)
1969/12/31/18:00:18.124,(10 4 5 13 14 6 2 5)
1969/12/31/18:00:18.125,(-2 0 5 10 -2 -1 -3 -5)
1969/12/31/18:00:18.125,(11 18 8 2 -7 -7 -6 -2)
1969/12/31/18:00:18.138,(-13 -11 -8 -20 -7 0 2 0)
1969/12/31/18:00:18.138,(-15 -7 -14 -16 -6 -5 -7 -14)
1969/12/31/18:00:18.146,(-4 -3 5 8 -3 -1 2 2)
1969/12/31/18:00:18.146,(9 3 -2 -4 0 2 3 6)
1969/12/31/18:00:18.161,(-1 0 -5 -3 -8 -4 -6 -4)
1969/12/31/18:00:18.161,(-2 -9 -2 4 1 -1 2 3)
1969/12/31/18:00:18.162,(-3 -4 -1 -14 4 2 1 0)
1969/12/31/18:00:18.162,(11 9 -3 -4 -17 -7 -6 2)
1969/12/31/18:00:18.184,(-11 -2 3 -4 -4 -7 -8 -11)
1969/12/31/18:00:18.184,(-7 -4 0 9 -2 0 0 -2)
1969/12/31/18:00:18.185,(-6 -2 0 -9 6 -7 -5 -7)
1969/12/31/18:00:18.185,(8 9 13 56 17 6 3 4)
1969/12/31/18:00:18.198,(-18 -9 4 9 -4 -3 -3 -11)
1969/12/31/18:00:18.198,(3 5 20 14 10 15 10 6)
1969/12/31/18:00:18.206,(9 8 -4 -11 21 12 3 6)
1969/12/31/18:00:18.206,(4 -7 -13 -7 19 15 6 5)
1969/12/31/18:00:18.221,(-23 -24 -28 -35 4 -11 -14 -17)
1969/12/31/18:00:18.221,(3 -2 -1 0 -40 -17 -3 1)
1969/12/31/18:00:18.222,(-6 -2 9 5 -12 -3 0 -5)
1969/12/31/18:00:18.222,(7 4 -15 -7 6 -1 4 6)
1969/12/31/18:00:18.244,(-4 -5 -7 -13 -14 -12 -6 -5)
1969/12/31/18:00:18.244,(1 3 -17 -72 -21 -8 -5 1)
1969/12/31/18:00:18.245,(2 9 26 18 -34 -13 -2 1)
1969/12/31/18:00:18.245,(7 8 11 -3 -18 0 2 5)
1969/12/31/18:00:18.258,(5 -5 -24 45 60 19 5 3)
1969/12/31/18:00:18.258,(-13 -11 5 57 56 13 0 -6)
1969/12/31/18:00:18.266,(-9 -3 15 27 15 8 4 -4)
1969/12/31/18:00:18.266,(-1 8 19 -20 -16 -4 0 -2)
1969/12/31/18:00:18.281,(11 25 48 -8 -28 7 8 5)
1969/12/31/18:00:18.281,(15 2 -47 -78 -23 -3 3 9)
1969/12/31/18:00:18.282,(-10 -30 -51 -5 -15 -21 -15 -7)
1969/12/31/18:00:18.282,(-10 -5 14 6 7 -3 -3 -9)
1969/12/31/18:00:18.304,(-3 7 13 12 -14 -1 -3 -1)
1969/12/31/18:00:18.304,(2 9 21 41 15 -1 -2 -1)
1969/12/31/18:00:18.305,(2 4 9 -5 15 19 9 4)
1969/12/31/18:00:18.305,(4 -1 -23 -40 -2 -1 1 4)
1969/12/31/18:00:18.318,(-4 -12 -34 -27 -3 -7 -5 -5)
1969/12/31/18:00:18.318,(-6 -6 15 54 0 -8 -6 -5)
1969/12/31/18:00:18.326,(-3 2 8 2 -2 -6 2 -1)
1969/12/31/18:00:18.326,(-2 6 17 6 -1 2 -3 -2)
1969/12/31/18:00:18.341,(4 5 -1 -19 -12 2 2 1)
1969/12/31/18:00:18.341,(6 -4 -24 -24 -7 4 4 5)
1969/12/31/18:00:18.350,(3 -2 2 32 22 6 3 2)
1969/12/31/18:00:18.350,(-9 -6 0 7 4 -6 -8 -8)
1969/12/31/18:00:18.364,(1 -5 -8 -13 -7 -7 -4 -3)
1969/12/31/18:00:18.364,(-7 -2 -3 -30 -18 -10 -6 -6)
1969/12/31/18:00:18.366,(3 2 4 7 -8 5 3 1)
1969/12/31/18:00:18.366,(9 6 -1 18 16 2 1 6)
1969/12/31/18:00:18.388,(-1 2 4 -1 -5 0 -3 0)
1969/12/31/18:00:18.388,(-4 -4 -2 -40 -10 -8 -6 -4)
1969/12/31/18:00:18.390,(5 4 -10 30 9 -1 1 6)
1969/12/31/18:00:18.390,(-1 2 22 25 22 11 4 1)
1969/12/31/18:00:18.401,(-6 -4 -12 21 3 0 -5 -6)
1969/12/31/18:00:18.401,(-1 -4 4 -2 11 4 3 1)
1969/12/31/18:00:18.409,(-5 -2 -5 -39 -27 -6 -3 -3)
1969/12/31/18:00:18.409,(1 -5 -21 -22 -12 -5 -1 0)
1969/12/31/18:00:18.424,(-5 -4 7 14 8 -3 -4 -3)
1969/12/31/18:00:18.424,(1 11 21 27 15 7 4 2)
1969/12/31/18:00:18.426,(6 2 -15 -3 4 4 0 1)
1969/12/31/18:00:18.426,(-2 -7 -10 12 -2 -7 -4 -1)
1969/12/31/18:00:18.447,(-4 -1 9 -25 -8 -1 1 -4)
1969/12/31/18:00:18.447,(1 0 -13 -7 -10 -1 -2 -2)
1969/12/31/18:00:18.448,(2 1 11 1 3 5 1 0)
1969/12/31/18:00:18.448,(-3 -6 -7 -23 -18 -13 -6 -5)
1969/12/31/18:00:18.461,(0 2 8 36 11 3 0 -2)
1969/12/31/18:00:18.461,(4 0 -1 19 21 5 9 6)
1969/12/31/18:00:18.469,(-4 0 2 -13 -5 -1 -1 -3)
1969/12/31/18:00:18.469,(0 -1 -8 -8 -7 5 2 0)
1969/12/31/18:00:18.484,(2 -1 -1 -4 6 1 5 4)
1969/12/31/18:00:18.484,(-9 -7 6 23 2 -1 -5 -8)
1969/12/31/18:00:18.486,(0 0 -10 -28 -10 -5 -5 0)
1969/12/31/18:00:18.486,(9 11 4 6 5 10 12 9)
1969/12/31/18:00:18.507,(0 -3 -4 -3 -4 -7 -4 1)
1969/12/31/18:00:18.507,(-6 0 6 7 -16 -9 -4 -2)
1969/12/31/18:00:18.509,(-1 0 4 -17 14 12 7 1)
1969/12/31/18:00:18.509,(-5 -7 1 18 1 -6 -10 -4)
1969/12/31/18:00:18.520,(-10 -2 9 -2 -3 0 1 -4)
1969/12/31/18:00:18.520,(8 2 -23 -44 -20 -1 -1 0)
1969/12/31/18:00:18.530,(3 3 6 16 8 -4 -2 0)
1969/12/31/18:00:18.530,(-15 -8 -7 -16 -4 -2 -6 -14)
1969/12/31/18:00:18.545,(15 16 14 42 24 6 5 10)
1969/12/31/18:00:18.545,(1 -11 -11 5 5 -1 -6 0)
1969/12/31/18:00:18.551,(-4 -4 3 -8 -19 -10 -1 -3)
1969/12/31/18:00:18.551,(8 3 -10 -18 -6 -5 -3 1)
1969/12/31/18:00:18.567,(-12 -9 -4 -40 -30 -10 -6 -11)
1969/12/31/18:00:18.567,(-1 1 23 52 22 0 -2 -3)
1969/12/31/18:00:18.569,(-2 3 1 3 4 -2 -2 -3)
1969/12/31/18:00:18.569,(-6 -6 2 3 -2 -1 0 -6)
1969/12/31/18:00:18.581,(5 4 -14 -25 -14 -3 2 3)
1969/12/31/18:00:18.581,(5 6 -3 -9 -7 2 2 2)
1969/12/31/18:00:18.590,(-2 -12 -15 9 10 1 -3 0)
1969/12/31/18:00:18.590,(3 0 3 -2 -5 0 -1 2)
1969/12/31/18:00:18.604,(1 0 -1 0 -2 0 1 2)
1969/12/31/18:00:18.604,(-4 1 4 -9 3 2 1 -3)
1969/12/31/18:00:18.606,(-2 1 -1 -5 -18 -8 -3 0)
1969/12/31/18:00:18.606,(1 3 7 26 30 12 4 2)
1969/12/31/18:00:18.627,(-3 -9 -25 -35 -9 -3 -2 -2)
1969/12/31/18:00:18.627,(9 12 31 58 46 19 8 9)
1969/12/31/18:00:18.629,(-6 -2 6 8 -3 -5 -5 -5)
1969/12/31/18:00:18.629,(-3 -2 -2 -11 -20 -8 -2 -2)
1969/12/31/18:00:18.640,(-3 -4 1 3 1 2 0 -2)
1969/12/31/18:00:18.640,(2 -1 -20 -26 -14 -4 1 1)
1969/12/31/18:00:18.649,(4 1 -4 -3 -3 -1 1 1)
1969/12/31/18:00:18.649,(0 0 5 6 1 4 3 2)
1969/12/31/18:00:18.664,(-4 -2 3 14 8 2 -1 -3)
1969/12/31/18:00:18.664,(-3 0 -5 -15 -13 -5 -6 -3)
1969/12/31/18:00:18.666,(3 0 -2 5 3 3 0 1)
1969/12/31/18:00:18.666,(1 -2 -6 -8 -8 -3 0 2)
1969/12/31/18:00:18.687,(-12 -1 6 4 1 -2 -8 -13)
1969/12/31/18:00:18.687,(3 -3 -8 -6 -6 -1 4 4)
1969/12/31/18:00:18.688,(3 2 -2 3 9 8 5 2)
1969/12/31/18:00:18.688,(2 -1 -17 -22 -18 -7 -2 0)
1969/12/31/18:00:18.700,(8 4 8 5 2 -3 0 5)
1969/12/31/18:00:18.700,(-5 5 19 19 11 4 0 -3)
1969/12/31/18:00:18.710,(-3 -5 -7 -2 -16 -7 -5 -6)
1969/12/31/18:00:18.710,(5 5 13 30 39 12 5 5)
1969/12/31/18:00:18.724,(-6 -5 -4 -6 -11 -4 -1 -2)
1969/12/31/18:00:18.724,(-1 -2 -19 -30 -21 -9 -6 -4)
1969/12/31/18:00:18.726,(2 -3 -2 5 5 4 5 5)
1969/12/31/18:00:18.726,(-4 -1 5 -15 -16 -7 -5 -4)
1969/12/31/18:00:18.747,(1 2 6 13 11 4 2 1)
1969/12/31/18:00:18.747,(-7 -5 -1 -1 1 1 4 -6)
1969/12/31/18:00:18.748,(3 2 -3 -2 -1 -1 1 5)
1969/12/31/18:00:18.748,(-1 -4 -11 -9 -11 -9 -12 -5)
1969/12/31/18:00:18.760,(2 -1 -2 1 4 2 0 2)
1969/12/31/18:00:18.760,(-3 -2 -3 -7 -8 -2 -2 -2)
1969/12/31/18:00:18.777,(-7 -2 -1 -2 3 -1 -1 -6)
1969/12/31/18:00:18.777,(3 4 3 3 2 3 5 4)
1969/12/31/18:00:18.783,(0 0 0 1 3 2 0 1)
1969/12/31/18:00:18.783,(-1 -1 -5 -1 -2 -3 -1 -1)
1969/12/31/18:00:18.799,(2 0 2 -2 3 2 2 3)
1969/12/31/18:00:18.799,(-1 -1 1 3 1 2 -1 0)
1969/12/31/18:00:18.814,(4 1 1 1 2 -1 2 4)
1969/12/31/18:00:18.814,(0 0 3 -3 2 2 0 1)
1969/12/31/18:00:18.816,(2 -1 2 0 3 1 1 3)
1969/12/31/18:00:18.816,(-1 -2 -2 -2 -7 -4 1 -2)
1969/12/31/18:00:18.829,(1 1 -2 1 -2 -1 -1 -1)
1969/12/31/18:00:18.829,(2 -1 2 1 2 -1 -3 0)
1969/12/31/18:00:18.831,(-3 -1 0 -3 0 -2 -3 -3)
1969/12/31/18:00:18.831,(-3 -3 -2 2 -2 0 0 -2)
1969/12/31/18:00:18.844,(-2 -1 -2 -1 0 1 0 1)
1969/12/31/18:00:18.844,(0 -1 -1 0 -3 -1 -3 1)
1969/12/31/18:00:18.850,(-1 1 -5 -7 -7 0 3 0)
1969/12/31/18:00:18.851,(4 -1 -7 -5 -7 -1 0 1)
1969/12/31/18:00:18.867,(2 3 5 3 -6 -8 -3 2)
1969/12/31/18:00:18.867,(-4 -3 5 5 20 8 0 -2)
1969/12/31/18:00:18.868,(-2 -3 0 2 -8 -2 -2 -2)
1969/12/31/18:00:18.868,(-3 -5 0 -2 14 2 1 -1)
1969/12/31/18:00:18.880,(0 1 -4 -4 -12 -5 -2 -2)
1969/12/31/18:00:18.880,(1 0 -5 -6 -7 -7 -2 0)
1969/12/31/18:00:18.889,(-4 -1 2 5 2 -4 -2 -2)
1969/12/31/18:00:18.889,(1 -2 -1 -2 -2 1 1 4)
1969/12/31/18:00:18.904,(1 1 0 -3 2 -1 1 -2)
1969/12/31/18:00:18.904,(-2 -4 1 -1 -7 -2 -3 -2)
1969/12/31/18:00:18.911,(3 1 0 1 5 4 1 2)
1969/12/31/18:00:18.911,(-2 3 -1 2 -4 -1 -2 -2)
1969/12/31/18:00:18.927,(-2 -4 -2 2 6 1 -2 -1)
1969/12/31/18:00:18.927,(-2 0 1 -4 -6 -3 -1 -1)
1969/12/31/18:00:18.928,(-3 -1 0 -1 0 -2 0 1)
1969/12/31/18:00:18.928,(-1 -2 0 1 1 0 -1 -3)
1969/12/31/18:00:18.940,(-1 -2 2 2 1 3 0 -1)
1969/12/31/18:00:18.940,(0 0 -1 1 -1 0 -1 -1)
1969/12/31/18:00:18.949,(0 -1 -2 -2 0 -1 -3 -2)
1969/12/31/18:00:18.950,(-2 0 1 1 -2 -2 -4 -4)
1969/12/31/18:00:18.963,(2 -1 -1 3 5 4 6 4)
1969/12/31/18:00:18.963,(-1 1 -2 0 -3 -1 -1 -1)
1969/12/31/18:00:18.972,(-3 0 1 0 1 -2 -2 -3)
1969/12/31/18:00:18.972,(1 0 -1 0 0 1 2 2)
1969/12/31/18:00:18.988,(0 0 -1 -3 -1 1 -1 -1)
1969/12/31/18:00:18.988,(-1 1 -4 1 0 -1 1 2)
1969/12/31/18:00:18.990,(-2 -1 -1 -1 2 0 -2 -1)
1969/12/31/18:00:18.990,(-1 -3 1 -1 -2 -1 -1 -2)
1969/12/31/18:00:18.993,(1 0 -1 1 1 1 0 -2)
1969/12/31/18:00:18.993,(1 1 1 -3 -4 -3 0 0)
1969/12/31/18:00:19.001,(0 -1 0 1 3 1 2 0)
1969/12/31/18:00:19.001,(1 2 0 0 -1 -2 0 1)
1969/12/31/18:00:19.016,(0 -1 -2 -1 -1 0 1 0)
1969/12/31/18:00:19.016,(1 0 0 -2 -4 -3 0 -1)
1969/12/31/18:00:19.024,(-1 -1 0 -1 -4 -1 -3 -5)
1969/12/31/18:00:19.024,(0 -1 -1 3 3 2 2 1)
1969/12/31/18:00:19.039,(-2 -2 -3 -4 -5 -1 -1 0)
1969/12/31/18:00:19.039,(2 3 1 1 1 1 -2 -1)
1969/12/31/18:00:19.039,(-2 -1 2 1 3 4 1 1)
1969/12/31/18:00:19.039,(-1 2 1 -1 -2 -2 -1 1)
1969/12/31/18:00:19.053,(-1 -1 1 1 2 0 -2 -2)
1969/12/31/18:00:19.053,(-4 -5 -3 -2 0 1 -1 -3)
1969/12/31/18:00:19.061,(-1 -1 -1 1 -3 -3 -2 -1)
1969/12/31/18:00:19.061,(-1 -1 -2 -2 0 0 0 -3)
1969/12/31/18:00:19.092,(1 2 1 0 0 0 1 1)
1969/12/31/18:00:19.092,(1 -1 -1 1 1 2 0 1)
1969/12/31/18:00:19.093,(-1 1 -1 1 1 0 -2 -1)
1969/12/31/18:00:19.093,(-1 1 -1 -2 -2 0 1 0)
1969/12/31/18:00:19.099,(0 1 -1 -1 0 -2 0 0)
1969/12/31/18:00:19.099,(-1 -1 -1 0 0 -1 -1 -2)
1969/12/31/18:00:19.099,(-2 -2 -3 0 1 -1 -1 -1)
1969/12/31/18:00:19.099,(1 -1 0 -1 -1 -1 -1 1)
1969/12/31/18:00:19.113,(-1 -2 -1 -1 1 -1 -1 -2)
1969/12/31/18:00:19.113,(1 1 0 0 0 0 -2 -1)
1969/12/31/18:00:19.122,(1 1 1 -2 -1 -2 -1 -2)
1969/12/31/18:00:19.122,(-2 0 0 -1 -2 -2 -2 -1)
1969/12/31/18:00:19.136,(-2 -3 0 -1 0 -1 -1 -1)
1969/12/31/18:00:19.136,(0 -3 -1 3 -1 0 1 2)
1969/12/31/18:00:19.145,(0 -1 0 0 0 0 -2 0)
1969/12/31/18:00:19.145,(1 0 2 1 -1 0 -1 -2)
1969/12/31/18:00:19.158,(-3 -1 -1 -1 -1 -2 -4 -3)
1969/12/31/18:00:19.158,(0 1 0 -1 -2 -1 1 -2)
1969/12/31/18:00:19.167,(0 -1 -1 -1 -1 -2 -1 -2)
1969/12/31/18:00:19.167,(0 0 -1 1 0 2 1 0)
1969/12/31/18:00:19.173,(1 1 -2 -2 1 1 1 2)
1969/12/31/18:00:19.173,(0 -1 -1 -3 -3 -3 -1 -1)
1969/12/31/18:00:19.182,(2 1 0 0 -1 -1 1 1)
1969/12/31/18:00:19.182,(-2 -2 0 -2 -2 -3 0 -1)
1969/12/31/18:00:19.195,(0 1 3 3 2 1 0 0)
1969/12/31/18:00:19.195,(-2 -1 0 0 0 2 -2 -1)
1969/12/31/18:00:19.204,(-1 -1 0 -2 -2 0 -1 1)
1969/12/31/18:00:19.204,(0 1 -1 2 -1 -1 -1 -1)
1969/12/31/18:00:19.218,(0 0 0 -2 -2 -3 -1 0)
1969/12/31/18:00:19.218,(-2 -2 -3 -2 1 0 2 -1)
1969/12/31/18:00:19.227,(-1 -1 -2 -1 0 -1 0 -2)
1969/12/31/18:00:19.227,(-1 -1 -2 -1 0 -2 -3 0)
1969/12/31/18:00:19.233,(1 -1 -1 2 0 0 3 -1)
1969/12/31/18:00:19.233,(0 -2 -1 0 -1 -2 -3 -1)
1969/12/31/18:00:19.242,(1 1 0 0 -1 0 1 0)
1969/12/31/18:00:19.242,(-2 -1 -2 0 1 0 0 -1)
1969/12/31/18:00:19.265,(-4 -2 -2 -1 0 0 -3 -3)
1969/12/31/18:00:19.265,(1 2 0 -1 1 -1 4 3)
1969/12/31/18:00:19.267,(2 -1 -2 -2 -2 -1 0 -2)
1969/12/31/18:00:19.267,(0 -2 0 -3 -4 -3 -2 -1)
1969/12/31/18:00:19.278,(-1 -1 0 0 0 -1 -2 1)
1969/12/31/18:00:19.278,(-2 -2 0 -1 0 -1 -1 0)
1969/12/31/18:00:19.287,(-1 0 -1 0 0 1 0 0)
1969/12/31/18:00:19.287,(-2 -1 0 -1 0 -1 0 0)
1969/12/31/18:00:19.293,(-1 -1 -1 -1 0 0 1 -2)
1969/12/31/18:00:19.293,(0 -1 -3 0 -1 0 -3 -1)
1969/12/31/18:00:19.302,(1 3 1 -1 -1 -2 0 1)
1969/12/31/18:00:19.302,(2 2 1 -1 -1 2 2 1)
1969/12/31/18:00:19.315,(0 0 1 1 0 -2 -2 2)
1969/12/31/18:00:19.315,(-3 -2 0 -2 -3 -1 -1 0)
1969/12/31/18:00:19.325,(-3 -3 0 -1 1 0 -1 -3)
1969/12/31/18:00:19.325,(-2 1 -1 -3 -2 -1 -3 -1)
1969/12/31/18:00:19.338,(1 0 -1 -3 -1 0 1 1)
1969/12/31/18:00:19.338,(0 0 -1 0 0 -1 -3 -1)
1969/12/31/18:00:19.347,(0 -1 -2 -1 -1 -1 0 1)
1969/12/31/18:00:19.347,(-1 -1 -2 1 -2 0 0 0)
1969/12/31/18:00:19.353,(1 -1 -1 1 1 -2 1 1)
1969/12/31/18:00:19.353,(0 2 -1 -1 -2 -2 0 0)
1969/12/31/18:00:19.362,(-1 -2 -1 -3 -4 -3 -3 0)
1969/12/31/18:00:19.362,(-1 -2 -1 1 -2 -2 0 1)
1969/12/31/18:00:19.377,(-1 -3 -1 1 -2 0 -1 -1)
1969/12/31/18:00:19.377,(0 2 0 -1 0 -2 -1 0)
1969/12/31/18:00:19.385,(0 -2 -1 3 0 1 0 1)
1969/12/31/18:00:19.385,(2 0 0 0 -1 3 2 0)
1969/12/31/18:00:19.407,(0 1 -2 -2 -1 -1 -2 -1)
1969/12/31/18:00:19.407,(-2 -1 -1 1 3 1 1 1)
1969/12/31/18:00:19.409,(0 0 0 -1 0 0 0 -1)
1969/12/31/18:00:19.409,(-3 -3 -1 -1 -2 0 0 -2)
1969/12/31/18:00:19.413,(-1 -1 -1 -2 -1 0 -1 0)
1969/12/31/18:00:19.413,(1 -1 -1 0 0 1 0 -1)
1969/12/31/18:00:19.422,(-2 -1 -1 0 1 0 -1 0)
1969/12/31/18:00:19.422,(-1 1 -4 -1 -2 -4 -5 -1)
1969/12/31/18:00:19.435,(0 -2 0 0 -1 1 -1 -1)
1969/12/31/18:00:19.436,(0 -1 1 1 0 -2 -1 -2)
1969/12/31/18:00:19.444,(-1 1 2 1 -1 0 1 1)
1969/12/31/18:00:19.444,(-1 -1 0 0 -1 0 -1 0)
1969/12/31/18:00:19.458,(-2 -1 -3 -3 -1 1 1 1)
1969/12/31/18:00:19.458,(0 -1 -1 -2 -3 -1 -2 0)
1969/12/31/18:00:19.467,(2 -1 0 1 2 -1 0 0)
1969/12/31/18:00:19.467,(-1 -2 0 -2 2 -1 0 -1)
1969/12/31/18:00:19.473,(1 1 0 0 0 -1 -1 -2)
1969/12/31/18:00:19.473,(-2 -1 1 0 2 1 0 -1)
1969/12/31/18:00:19.482,(-1 0 -2 -3 -2 0 2 1)
1969/12/31/18:00:19.482,(0 -1 0 0 1 0 -1 0)
1969/12/31/18:00:19.496,(-1 1 -1 2 -1 -2 -1 -1)
1969/12/31/18:00:19.496,(-1 -1 0 0 -1 -1 -1 -1)
1969/12/31/18:00:19.504,(0 -2 -1 -1 0 -2 -2 -2)
1969/12/31/18:00:19.504,(0 -2 0 0 1 0 0 1)
1969/12/31/18:00:19.519,(-1 -1 0 0 -2 0 0 0)
1969/12/31/18:00:19.519,(-1 -2 -1 0 0 -2 -1 -1)
1969/12/31/18:00:19.526,(-1 -1 -1 0 -2 0 0 0)
1969/12/31/18:00:19.526,(-3 -2 -1 -1 -2 1 1 -1)
1969/12/31/18:00:19.542,(0 0 0 0 0 -1 -2 -1)
1969/12/31/18:00:19.542,(0 0 0 0 -2 -1 0 -2)
1969/12/31/18:00:19.543,(-1 0 1 -2 0 -3 0 -2)
1969/12/31/18:00:19.543,(3 -2 0 0 -1 0 -1 0)
1969/12/31/18:00:19.555,(-1 -1 1 -1 -1 -1 1 -1)
1969/12/31/18:00:19.556,(0 0 -1 -1 -2 0 0 1)
1969/12/31/18:00:19.565,(-3 -1 -1 1 3 0 -4 -2)
1969/12/31/18:00:19.565,(-1 0 0 1 -1 -2 1 1)
1969/12/31/18:00:19.579,(-2 -2 -1 -2 -1 0 0 1)
1969/12/31/18:00:19.579,(1 0 -1 -2 -2 -2 -1 0)
1969/12/31/18:00:19.585,(1 -1 0 0 -3 -2 1 -2)
1969/12/31/18:00:19.585,(-1 0 -3 -1 -1 -3 -2 -2)
