time,.data
1969/12/31/18:00:03.844,(-1 -1 0 -1 1 -1 0 0)
1969/12/31/18:00:03.844,(0 0 -3 0 1 1 -1 0)
1969/12/31/18:00:03.845,(1 1 0 -1 0 -3 0 1)
1969/12/31/18:00:03.845,(-1 0 -1 0 0 0 -2 0)
1969/12/31/18:00:03.866,(-2 -3 -1 -1 -2 0 0 0)
1969/12/31/18:00:03.866,(0 0 -1 0 2 -1 -1 -4)
1969/12/31/18:00:03.867,(0 -1 0 -1 -1 -1 1 -2)
1969/12/31/18:00:03.867,(1 -1 -1 -1 -2 -1 1 -2)
1969/12/31/18:00:03.889,(0 -1 -2 -1 -1 -1 0 2)
1969/12/31/18:00:03.889,(-4 -1 1 0 -1 -3 -3 -3)
1969/12/31/18:00:03.890,(-1 0 0 0 -2 0 -1 0)
1969/12/31/18:00:03.890,(0 1 -2 0 -1 0 0 -1)
1969/12/31/18:00:03.904,(1 1 1 -1 -2 -1 0 0)
1969/12/31/18:00:03.904,(-3 -2 -1 1 -1 1 -1 -3)
1969/12/31/18:00:03.904,(-1 0 -2 0 -2 -1 -1 -2)
1969/12/31/18:00:03.904,(1 -1 -1 -1 -1 1 -1 -1)
1969/12/31/18:00:03.926,(0 -2 0 -1 0 0 -1 0)
1969/12/31/18:00:03.926,(1 0 1 -1 0 0 0 1)
1969/12/31/18:00:03.927,(0 -1 0 -1 0 -1 0 0)
1969/12/31/18:00:03.927,(-3 -2 -2 -1 0 -1 -1 0)
1969/12/31/18:00:03.949,(0 0 -1 -1 -2 -1 1 0)
1969/12/31/18:00:03.949,(0 0 0 -1 -1 -2 0 1)
1969/12/31/18:00:03.950,(1 0 1 -2 -1 -1 -1 -2)
1969/12/31/18:00:03.950,(-2 -1 0 -1 -1 -1 0 -1)
1969/12/31/18:00:03.964,(2 1 1 0 -2 -1 0 0)
1969/12/31/18:00:03.964,(-1 -1 -1 -1 1 2 1 3)
1969/12/31/18:00:03.965,(-1 -2 -2 1 -1 -1 -1 1)
1969/12/31/18:00:03.965,(0 -1 0 0 -1 -1 0 0)
1969/12/31/18:00:03.986,(-2 1 1 -1 0 -1 0 -2)
1969/12/31/18:00:03.986,(0 0 2 -1 0 1 -1 -3)
1969/12/31/18:00:03.987,(0 -1 -3 1 1 0 -2 -1)
1969/12/31/18:00:03.987,(0 0 0 -1 -1 -3 -3 1)
1969/12/31/18:00:04.009,(0 -3 -2 -5 -15 -6 -4 -2)
1969/12/31/18:00:04.009,(-2 -1 -2 -5 3 -7 -3 -1)
1969/12/31/18:00:04.010,(-3 0 1 0 -16 -1 0 -2)
1969/12/31/18:00:04.010,(-1 1 4 9 23 15 5 1)
1969/12/31/18:00:04.024,(0 -3 1 6 3 4 0 2)
1969/12/31/18:00:04.024,(9 5 -5 -8 -3 -13 -3 6)
1969/12/31/18:00:04.024,(-7 -3 1 -2 -17 -8 -3 -7)
1969/12/31/18:00:04.024,(-1 1 2 4 9 12 5 0)
1969/12/31/18:00:04.046,(0 0 4 18 38 22 5 -2)
1969/12/31/18:00:04.046,(-2 -3 1 4 11 7 2 -2)
1969/12/31/18:00:04.047,(4 -1 -6 -8 -10 -11 -2 2)
1969/12/31/18:00:04.047,(-4 -1 -4 -11 -31 -19 -8 -4)
1969/12/31/18:00:04.069,(-1 -3 -5 -11 -14 -7 -3 -1)
1969/12/31/18:00:04.069,(6 4 1 2 1 2 4 4)
1969/12/31/18:00:04.070,(-3 -2 -3 -1 0 1 1 1)
1969/12/31/18:00:04.070,(4 3 -5 2 3 -1 -2 2)
1969/12/31/18:00:04.084,(0 -2 2 -3 -2 2 -1 0)
1969/12/31/18:00:04.084,(-1 1 -11 -9 -23 -2 -1 -1)
1969/12/31/18:00:04.085,(-5 -5 -4 -31 18 -2 -6 -3)
1969/12/31/18:00:04.085,(-3 2 13 23 -7 -2 0 -2)
1969/12/31/18:00:04.106,(6 4 -8 31 29 2 5 5)
1969/12/31/18:00:04.106,(-8 -7 7 -21 -27 -8 -6 -5)
1969/12/31/18:00:04.107,(-1 -1 -2 8 7 10 7 1)
1969/12/31/18:00:04.107,(3 4 5 28 24 12 2 3)
1969/12/31/18:00:04.129,(-6 6 20 3 24 3 -2 -6)
1969/12/31/18:00:04.129,(4 5 -12 -61 -52 -8 3 1)
1969/12/31/18:00:04.130,(13 -3 -32 -10 -1 -10 -5 5)
1969/12/31/18:00:04.130,(-13 -16 10 37 5 -11 -10 -8)
1969/12/31/18:00:04.144,(-11 4 16 23 11 5 -4 -9)
1969/12/31/18:00:04.144,(0 2 24 28 21 7 0 4)
1969/12/31/18:00:04.144,(-10 -2 -5 -40 -53 -18 -4 -8)
1969/12/31/18:00:04.144,(12 0 -28 -37 1 2 6 8)
1969/12/31/18:00:04.166,(2 0 -8 7 26 7 1 1)
1969/12/31/18:00:04.166,(-12 -5 6 -15 3 -3 -3 -9)
1969/12/31/18:00:04.167,(-1 -5 -11 -18 -28 -5 0 -1)
1969/12/31/18:00:04.167,(5 0 6 45 -36 -5 -2 4)
1969/12/31/18:00:04.189,(-3 2 15 -14 11 4 3 2)
1969/12/31/18:00:04.189,(-3 -2 11 52 65 20 6 -1)
1969/12/31/18:00:04.190,(10 21 44 62 -25 8 8 6)
1969/12/31/18:00:04.190,(-2 1 -26 -52 38 -5 -6 -4)
1969/12/31/18:00:04.204,(7 -6 -5 -5 -36 -8 0 5)
1969/12/31/18:00:04.204,(-1 -5 -28 -33 8 -2 -5 -3)
1969/12/31/18:00:04.204,(3 -3 -6 -18 12 4 2 3)
1969/12/31/18:00:04.205,(4 6 18 61 4 1 -2 2)
1969/12/31/18:00:04.226,(-12 -13 -9 -4 1 -16 -7 -8)
1969/12/31/18:00:04.226,(-15 -13 20 24 -27 -15 -10 -9)
1969/12/31/18:00:04.227,(-4 7 -1 -43 14 20 4 -1)
1969/12/31/18:00:04.227,(10 8 -14 -40 -28 0 2 5)
1969/12/31/18:00:04.249,(-3 -9 -32 -54 -16 -19 -11 -5)
1969/12/31/18:00:04.249,(7 0 -15 -68 -50 -20 0 5)
1969/12/31/18:00:04.250,(7 3 16 105 -3 15 8 7)
1969/12/31/18:00:04.250,(-14 -9 26 -37 56 7 -5 -8)
1969/12/31/18:00:04.264,(7 13 27 104 28 10 6 5)
1969/12/31/18:00:04.264,(-7 -16 -35 -9 -35 -7 -4 -6)
1969/12/31/18:00:04.264,(-2 -1 -2 -6 64 -8 -7 1)
1969/12/31/18:00:04.264,(-7 -10 -24 -18 -26 0 1 -5)
1969/12/31/18:00:04.287,(8 4 10 6 18 11 8 8)
1969/12/31/18:00:04.287,(5 21 40 62 -8 2 3 2)
1969/12/31/18:00:04.294,(5 5 -10 -37 -3 7 2 1)
1969/12/31/18:00:04.294,(-6 -7 -1 9 -15 -11 -5 -3)
1969/12/31/18:00:04.309,(-2 -6 -40 -128 -104 -36 -9 -6)
1969/12/31/18:00:04.309,(10 1 10 69 50 17 7 9)
1969/12/31/18:00:04.310,(-12 -6 9 29 42 5 -5 -8)
1969/12/31/18:00:04.310,(-1 -1 -17 -74 -47 -6 3 0)
1969/12/31/18:00:04.323,(2 3 12 38 26 13 6 2)
1969/12/31/18:00:04.324,(2 8 21 96 90 32 10 4)
1969/12/31/18:00:04.325,(0 -1 6 12 6 -1 -1 -1)
1969/12/31/18:00:04.325,(-3 -1 -1 -26 -16 -9 -4 -5)
1969/12/31/18:00:04.346,(1 -2 -18 -47 -38 -13 -5 -1)
1969/12/31/18:00:04.346,(-4 -4 -14 -45 -29 -12 -5 -3)
1969/12/31/18:00:04.347,(-6 -5 1 4 9 -2 -2 -2)
1969/12/31/18:00:04.347,(0 2 3 9 7 3 -1 2)
1969/12/31/18:00:04.369,(-2 1 0 -4 -14 -2 -2 0)
1969/12/31/18:00:04.369,(4 8 2 7 13 6 4 2)
1969/12/31/18:00:04.370,(-5 -10 -3 -7 -10 -4 -5 -5)
1969/12/31/18:00:04.370,(-1 1 0 1 -4 0 3 0)
1969/12/31/18:00:04.383,(2 0 4 17 7 7 4 6)
1969/12/31/18:00:04.383,(-12 -2 -4 -17 0 -1 -1 -2)
1969/12/31/18:00:04.384,(12 -3 -10 -11 -12 -12 -5 2)
1969/12/31/18:00:04.384,(12 4 12 19 7 3 -1 -3)
1969/12/31/18:00:04.406,(-9 5 9 17 12 7 -5 -12)
1969/12/31/18:00:04.406,(2 -6 -14 -24 -10 -2 -3 1)
1969/12/31/18:00:04.407,(-13 -2 3 -3 -5 -1 1 -6)
1969/12/31/18:00:04.407,(-11 -8 2 20 9 -2 -4 -5)
1969/12/31/18:00:04.429,(11 5 -5 -14 -12 -1 8 14)
1969/12/31/18:00:04.429,(1 -5 -7 -14 -7 -1 -2 -3)
1969/12/31/18:00:04.430,(-11 -2 1 8 3 -1 -4 -6)
1969/12/31/18:00:04.430,(40 26 7 0 3 4 8 21)
1969/12/31/18:00:04.443,(-14 -11 -2 3 -2 -4 -5 -8)
1969/12/31/18:00:04.443,(1 2 -2 -7 -6 -4 -4 -1)
1969/12/31/18:00:04.444,(3 1 1 2 7 6 4 4)
1969/12/31/18:00:04.444,(-18 -9 1 11 5 -2 -3 -11)
1969/12/31/18:00:04.466,(8 4 -5 -9 -7 -1 1 4)
1969/12/31/18:00:04.466,(5 0 -2 -3 6 4 3 5)
1969/12/31/18:00:04.467,(3 -3 -3 -5 -6 -4 -1 0)
1969/12/31/18:00:04.467,(-8 -2 -3 -7 -5 -4 -3 -2)
1969/12/31/18:00:04.489,(0 1 6 15 2 1 1 -3)
1969/12/31/18:00:04.489,(-5 -8 -5 -9 -3 -4 -2 -5)
1969/12/31/18:00:04.490,(1 2 -5 -12 -4 -2 -2 -2)
1969/12/31/18:00:04.490,(-5 -4 1 1 -2 2 2 2)
1969/12/31/18:00:04.504,(3 6 3 16 8 4 3 0)
1969/12/31/18:00:04.504,(-1 -4 4 1 0 2 1 -1)
1969/12/31/18:00:04.504,(-5 -1 0 -1 -8 -9 -10 -8)
1969/12/31/18:00:04.504,(-27 -19 -5 -8 -5 -4 -2 -5)
1969/12/31/18:00:04.526,(57 37 3 2 11 14 17 23)
1969/12/31/18:00:04.526,(-17 -12 -10 -11 -10 -14 -19 -21)
1969/12/31/18:00:04.527,(19 9 -1 -4 -6 0 4 12)
1969/12/31/18:00:04.527,(-6 -4 -5 -22 -22 -6 0 -2)
1969/12/31/18:00:04.550,(-20 -17 -6 -11 5 2 -5 -7)
1969/12/31/18:00:04.550,(12 11 17 53 22 10 8 8)
1969/12/31/18:00:04.551,(-11 -5 1 1 1 -1 -3 -4)
1969/12/31/18:00:04.551,(-2 3 3 18 4 -2 0 0)
1969/12/31/18:00:04.563,(-5 -8 -4 0 2 -6 -8 -7)
1969/12/31/18:00:04.564,(-17 -1 -2 -26 -16 -6 -5 -17)
1969/12/31/18:00:04.564,(2 -2 1 -2 -1 -1 -5 2)
1969/12/31/18:00:04.564,(6 1 -8 -27 -14 -3 3 3)
1969/12/31/18:00:04.586,(-7 -5 0 14 -11 -5 -1 0)
1969/12/31/18:00:04.586,(-14 -8 -3 -8 11 5 -4 -7)
1969/12/31/18:00:04.587,(-8 -15 6 17 6 3 1 -9)
1969/12/31/18:00:04.587,(44 34 9 17 24 19 17 17)
1969/12/31/18:00:04.609,(-17 -12 -3 -6 -8 -8 -7 -5)
1969/12/31/18:00:04.609,(8 5 -8 -21 -32 -13 -8 1)
1969/12/31/18:00:04.610,(7 -8 -7 -16 5 4 7 6)
1969/12/31/18:00:04.610,(-15 -9 -1 2 1 -2 -5 -8)
1969/12/31/18:00:04.624,(-31 -8 4 31 6 -3 -5 -15)
1969/12/31/18:00:04.624,(47 30 23 19 21 26 39 49)
1969/12/31/18:00:04.624,(7 -5 -18 -20 -23 -22 -29 -20)
1969/12/31/18:00:04.624,(-20 5 -4 -10 -7 -8 -9 -9)
1969/12/31/18:00:04.646,(5 -13 -4 -7 -1 2 1 0)
1969/12/31/18:00:04.646,(-7 -3 -4 -3 2 -4 -2 3)
1969/12/31/18:00:04.647,(-6 4 1 -18 -8 2 7 1)
1969/12/31/18:00:04.647,(9 -3 -8 -1 6 0 -1 0)
1969/12/31/18:00:04.669,(-11 -4 -5 -22 -19 -9 -3 -4)
1969/12/31/18:00:04.669,(5 3 4 28 7 5 3 1)
1969/12/31/18:00:04.670,(-5 0 8 11 19 7 5 5)
1969/12/31/18:00:04.670,(-18 -12 -1 23 5 -2 -8 -7)
1969/12/31/18:00:04.683,(-11 -5 10 4 17 11 2 -18)
1969/12/31/18:00:04.683,(-8 -17 -22 -38 -31 -24 -30 -21)
1969/12/31/18:00:04.684,(-13 -3 -3 -11 -11 -2 5 5)
1969/12/31/18:00:04.684,(3 2 -3 -1 -4 -5 3 0)
1969/12/31/18:00:04.706,(40 17 0 -2 3 3 10 26)
1969/12/31/18:00:04.706,(27 10 6 2 11 16 16 8)
1969/12/31/18:00:04.707,(-5 -12 -8 2 0 1 -2 -4)
1969/12/31/18:00:04.707,(-5 -3 -5 -24 -29 -8 -4 1)
1969/12/31/18:00:04.729,(-6 0 4 21 16 4 3 2)
1969/12/31/18:00:04.729,(-20 -11 7 24 29 6 -6 -13)
1969/12/31/18:00:04.730,(25 29 12 10 6 11 13 15)
1969/12/31/18:00:04.730,(-4 -11 -1 3 2 -1 -3 -2)
1969/12/31/18:00:04.744,(7 10 -5 -21 -22 -6 -3 2)
1969/12/31/18:00:04.744,(-15 -11 -14 -21 -16 -16 -10 -9)
1969/12/31/18:00:04.744,(-12 -9 2 -5 0 1 4 -4)
1969/12/31/18:00:04.744,(12 4 2 10 -4 -5 2 5)
1969/12/31/18:00:04.766,(-16 -21 -6 -6 -4 -4 -11 -9)
1969/12/31/18:00:04.766,(12 16 10 29 25 11 6 5)
1969/12/31/18:00:04.767,(-10 3 6 23 15 13 10 -8)
1969/12/31/18:00:04.767,(9 3 4 -9 -14 -16 -11 -2)
1969/12/31/18:00:04.789,(-8 -7 -11 -24 -26 -10 -5 -3)
1969/12/31/18:00:04.789,(-6 -9 -8 0 10 5 6 5)
1969/12/31/18:00:04.790,(-3 -7 -4 0 6 1 3 5)
1969/12/31/18:00:04.790,(24 24 8 8 6 5 1 8)
1969/12/31/18:00:04.803,(-23 -12 0 -20 8 4 -2 -22)
1969/12/31/18:00:04.803,(-8 -4 -3 9 -8 -6 -4 -2)
1969/12/31/18:00:04.811,(8 2 0 11 4 0 -2 3)
1969/12/31/18:00:04.811,(-16 -13 -5 -16 -3 -1 -3 -9)
1969/12/31/18:00:04.826,(-2 2 -3 -2 -13 -10 -1 7)
1969/12/31/18:00:04.826,(13 14 3 -21 -17 -2 2 6)
1969/12/31/18:00:04.827,(-11 -7 -3 6 6 -3 -10 -14)
1969/12/31/18:00:04.827,(4 0 -2 -32 6 10 5 3)
1969/12/31/18:00:04.849,(7 0 -5 34 1 4 0 5)
1969/12/31/18:00:04.849,(-8 -7 8 46 15 -1 -3 -3)
1969/12/31/18:00:04.850,(7 11 15 39 12 0 0 7)
1969/12/31/18:00:04.850,(-7 -7 9 29 11 4 0 -1)
1969/12/31/18:00:04.863,(0 -1 -5 -34 -4 -3 -3 -4)
1969/12/31/18:00:04.863,(-9 -7 -15 -41 -22 -8 -4 -10)
1969/12/31/18:00:04.871,(8 5 -5 -13 -16 -7 -2 3)
1969/12/31/18:00:04.871,(-3 -6 -7 -25 2 1 1 -2)
1969/12/31/18:00:04.886,(9 7 2 6 0 2 1 5)
1969/12/31/18:00:04.886,(9 14 24 -11 -17 7 10 6)
1969/12/31/18:00:04.887,(7 6 -4 25 14 4 2 6)
1969/12/31/18:00:04.887,(-12 -15 -25 27 19 -7 -10 -8)
1969/12/31/18:00:04.909,(-17 -19 -6 -13 -10 -19 -16 -15)
1969/12/31/18:00:04.909,(-32 -23 -10 -35 -16 -5 -4 -16)
1969/12/31/18:00:04.910,(28 27 13 -3 -5 8 10 25)
1969/12/31/18:00:04.910,(-4 0 5 11 5 5 -2 -11)
1969/12/31/18:00:04.923,(-12 -12 -1 17 6 5 0 -3)
1969/12/31/18:00:04.923,(32 37 4 -11 -1 -1 4 16)
1969/12/31/18:00:04.931,(-25 -31 -8 -18 -16 -10 -15 -27)
1969/12/31/18:00:04.931,(-8 -5 -5 4 -1 -7 -14 -15)
1969/12/31/18:00:04.946,(23 18 7 4 9 4 5 12)
1969/12/31/18:00:04.946,(-37 -33 -13 -6 -7 -10 -15 -21)
1969/12/31/18:00:04.947,(2 2 -3 -1 -1 -2 1 4)
1969/12/31/18:00:04.947,(20 13 6 6 1 7 12 18)
1969/12/31/18:00:04.969,(-11 -6 2 -3 -2 -1 -4 -9)
1969/12/31/18:00:04.969,(5 2 -2 3 -1 -1 1 3)
1969/12/31/18:00:04.970,(2 -2 -13 -19 1 0 4 7)
1969/12/31/18:00:04.970,(-7 1 12 21 5 5 3 -5)
1969/12/31/18:00:04.983,(21 16 15 23 10 7 8 20)
1969/12/31/18:00:04.983,(5 3 -3 2 2 -4 0 1)
1969/12/31/18:00:04.991,(-7 -3 -4 -18 -15 -7 -9 -8)
1969/12/31/18:00:04.991,(-10 -12 -5 -8 3 8 10 3)
1969/12/31/18:00:05.006,(3 1 -2 2 4 4 5 7)
1969/12/31/18:00:05.006,(6 -1 -6 3 0 -2 -5 0)
1969/12/31/18:00:05.007,(-10 -8 1 -9 -12 -5 -5 -9)
1969/12/31/18:00:05.007,(-1 -3 1 1 1 0 4 6)
1969/12/31/18:00:05.029,(0 7 -3 5 2 -5 -6 -4)
1969/12/31/18:00:05.029,(0 -6 -8 -25 -12 -12 -15 -22)
1969/12/31/18:00:05.031,(-2 -3 -10 -20 -33 -15 -4 -3)
1969/12/31/18:00:05.031,(6 7 7 20 1 4 4 5)
1969/12/31/18:00:05.043,(-4 -8 8 34 54 18 3 -2)
1969/12/31/18:00:05.043,(-3 -3 5 3 11 12 7 8)
1969/12/31/18:00:05.052,(10 9 -9 -63 -35 -18 -6 2)
1969/12/31/18:00:05.052,(-4 -10 -13 4 -35 -19 -8 -4)
1969/12/31/18:00:05.065,(3 5 15 50 29 18 9 4)
1969/12/31/18:00:05.065,(1 3 9 34 51 22 9 5)
1969/12/31/18:00:05.074,(-2 -1 5 2 9 12 4 1)
1969/12/31/18:00:05.074,(-2 1 3 12 -1 -6 -2 1)
1969/12/31/18:00:05.089,(-2 3 -8 -22 -26 -13 -6 -5)
1969/12/31/18:00:05.089,(3 0 -2 3 -9 -6 0 5)
1969/12/31/18:00:05.091,(-7 -6 -9 -35 -19 -9 -5 -5)
1969/12/31/18:00:05.091,(3 2 -2 -22 -8 2 4 2)
1969/12/31/18:00:05.112,(4 11 3 14 7 1 2 0)
1969/12/31/18:00:05.112,(-1 -7 -1 -3 -1 0 -3 -3)
1969/12/31/18:00:05.113,(12 8 5 18 13 4 -4 2)
1969/12/31/18:00:05.113,(1 2 -2 -15 1 1 -1 -4)
1969/12/31/18:00:05.125,(3 -1 -21 -105 -58 -15 -1 2)
1969/12/31/18:00:05.125,(-16 -12 1 61 5 -9 -8 -8)
1969/12/31/18:00:05.134,(-3 1 21 89 56 23 11 5)
1969/12/31/18:00:05.134,(4 3 4 12 38 17 8 7)
1969/12/31/18:00:05.149,(-6 -11 -11 -39 -24 -9 -8 -7)
1969/12/31/18:00:05.149,(8 4 -12 -63 -53 -13 2 7)
1969/12/31/18:00:05.151,(-1 2 12 79 32 -1 1 0)
1969/12/31/18:00:05.151,(-13 -2 22 52 39 8 -3 -9)
1969/12/31/18:00:05.172,(3 1 1 2 8 6 4 1)
1969/12/31/18:00:05.172,(5 1 -10 -42 -15 -5 1 5)
1969/12/31/18:00:05.173,(1 0 -10 -37 -25 -6 2 1)
1969/12/31/18:00:05.173,(-1 -1 -8 -26 -21 -7 -2 -1)
1969/12/31/18:00:05.185,(-15 -4 0 10 10 -2 -4 -8)
1969/12/31/18:00:05.185,(-23 -10 5 29 14 7 6 -1)
1969/12/31/18:00:05.194,(18 -5 -13 -24 -8 -10 -14 -6)
1969/12/31/18:00:05.194,(-2 -4 -6 -17 -11 -4 -5 -3)
1969/12/31/18:00:05.209,(13 8 -3 -8 -17 -4 0 8)
1969/12/31/18:00:05.209,(-18 -14 -2 10 6 0 0 -3)
1969/12/31/18:00:05.211,(-11 3 12 11 11 8 7 0)
1969/12/31/18:00:05.211,(19 12 0 -22 -1 -2 1 10)
1969/12/31/18:00:05.232,(-11 -14 -6 11 -9 -7 -7 -7)
1969/12/31/18:00:05.232,(10 7 -1 -11 -9 1 2 5)
1969/12/31/18:00:05.233,(-4 -2 8 30 30 7 6 2)
1969/12/31/18:00:05.233,(0 3 -2 -14 -6 0 -3 -2)
1969/12/31/18:00:05.245,(-1 -2 7 31 0 1 4 2)
1969/12/31/18:00:05.245,(8 7 7 4 5 -1 -1 3)
1969/12/31/18:00:05.262,(-2 2 4 16 2 0 -1 -1)
1969/12/31/18:00:05.262,(-6 -9 -8 -24 -1 1 2 -1)
1969/12/31/18:00:05.269,(4 1 -8 -15 -8 -6 0 4)
1969/12/31/18:00:05.269,(3 6 0 5 -13 -6 -6 -7)
1969/12/31/18:00:05.271,(-11 -12 -15 -47 -21 -5 -1 -4)
1969/12/31/18:00:05.271,(4 0 -5 -24 -8 1 4 4)
1969/12/31/18:00:05.292,(7 5 6 46 30 13 6 4)
1969/12/31/18:00:05.292,(5 2 10 44 32 9 0 0)
1969/12/31/18:00:05.293,(-9 1 9 4 15 5 -2 -3)
1969/12/31/18:00:05.293,(-2 -2 -3 -26 -26 -6 -1 -1)
1969/12/31/18:00:05.306,(3 -2 -12 -61 -49 -12 -3 1)
1969/12/31/18:00:05.306,(3 0 -5 16 7 -5 1 2)
1969/12/31/18:00:05.313,(-9 -4 2 9 7 -4 -6 -7)
1969/12/31/18:00:05.313,(0 -3 -9 -5 1 3 2 1)
1969/12/31/18:00:05.329,(7 7 13 18 -1 -3 1 4)
1969/12/31/18:00:05.329,(6 2 0 -20 -12 1 3 5)
1969/12/31/18:00:05.331,(6 -1 -4 9 -6 2 5 5)
1969/12/31/18:00:05.331,(-6 -2 -6 -41 0 -2 -5 -6)
1969/12/31/18:00:05.351,(-10 -5 -7 31 7 -3 -5 -10)
1969/12/31/18:00:05.351,(2 3 10 22 14 5 1 0)
1969/12/31/18:00:05.359,(-2 0 2 17 8 -1 -1 -2)
1969/12/31/18:00:05.359,(-3 -3 2 17 2 1 -2 -2)
1969/12/31/18:00:05.366,(-3 -5 -4 -19 0 0 0 -2)
1969/12/31/18:00:05.366,(2 1 -9 -27 -16 -7 -3 1)
1969/12/31/18:00:05.373,(17 14 1 -6 -7 -2 -1 0)
1969/12/31/18:00:05.373,(3 -1 1 13 0 -3 -4 -6)
1969/12/31/18:00:05.389,(-10 -8 -3 -19 -3 0 -3 -2)
1969/12/31/18:00:05.389,(10 6 -2 8 6 0 1 5)
1969/12/31/18:00:05.391,(6 2 -2 -20 -6 2 4 8)
1969/12/31/18:00:05.391,(-3 2 -1 -13 -12 -3 -1 0)
1969/12/31/18:00:05.412,(9 2 0 8 6 1 4 6)
1969/12/31/18:00:05.412,(-11 -9 -4 -11 -15 -3 -4 -5)
1969/12/31/18:00:05.413,(3 3 4 58 47 8 3 2)
1969/12/31/18:00:05.413,(-8 -3 17 44 25 11 2 -3)
1969/12/31/18:00:05.425,(-8 -6 -14 -32 -18 -4 -5 -7)
1969/12/31/18:00:05.425,(0 -1 -3 -18 -7 0 3 4)
1969/12/31/18:00:05.434,(-7 -3 -6 -30 -23 -10 -5 -7)
1969/12/31/18:00:05.434,(5 1 2 40 6 -5 -3 3)
1969/12/31/18:00:05.449,(3 5 15 23 26 10 7 2)
1969/12/31/18:00:05.449,(-1 -2 -9 -33 -10 -3 -2 -4)
1969/12/31/18:00:05.451,(1 -5 -10 -39 -28 -5 -1 3)
1969/12/31/18:00:05.451,(-9 -3 1 12 -4 -10 -10 -11)
1969/12/31/18:00:05.472,(3 5 1 -3 8 7 10 8)
1969/12/31/18:00:05.472,(-6 -5 -2 -2 2 -1 -1 -2)
1969/12/31/18:00:05.473,(10 5 2 7 -1 3 2 0)
1969/12/31/18:00:05.473,(0 0 2 -29 -9 2 10 13)
1969/12/31/18:00:05.485,(-5 -4 -6 8 -1 -7 -12 -13)
1969/12/31/18:00:05.485,(-2 -7 5 33 16 4 3 3)
1969/12/31/18:00:05.494,(-3 3 -2 -15 -8 -3 -2 -4)
1969/12/31/18:00:05.494,(1 2 0 -24 -4 1 2 1)
1969/12/31/18:00:05.509,(9 4 2 19 -5 -5 -4 0)
1969/12/31/18:00:05.509,(1 3 2 4 9 6 4 0)
1969/12/31/18:00:05.511,(-15 -10 -3 9 2 -2 -6 -7)
1969/12/31/18:00:05.511,(25 14 5 11 -2 2 7 20)
1969/12/31/18:00:05.532,(-29 -19 0 1 4 -3 -8 -20)
1969/12/31/18:00:05.532,(-6 -8 -5 -24 -10 -5 -6 -6)
1969/12/31/18:00:05.533,(24 21 1 -12 -10 3 16 22)
1969/12/31/18:00:05.533,(-16 -8 -2 22 10 4 0 -13)
1969/12/31/18:00:05.546,(18 23 11 -5 9 10 15 18)
1969/12/31/18:00:05.546,(24 1 -1 -18 -11 4 9 23)
1969/12/31/18:00:05.553,(11 13 3 7 5 -1 -2 3)
1969/12/31/18:00:05.553,(-22 -15 -10 -17 -11 -9 -10 -16)
1969/12/31/18:00:05.569,(6 -7 -4 6 -2 0 1 4)
1969/12/31/18:00:05.569,(-2 4 -1 -13 -14 -3 -3 -2)
1969/12/31/18:00:05.571,(-6 -1 17 75 27 7 -1 0)
1969/12/31/18:00:05.571,(2 1 9 33 25 7 3 3)
1969/12/31/18:00:05.592,(-2 -3 1 0 -1 -3 -8 -7)
1969/12/31/18:00:05.592,(6 23 4 -9 -3 -2 -1 -1)
1969/12/31/18:00:05.593,(-46 -51 -12 -39 -22 -12 -11 -26)
1969/12/31/18:00:05.593,(30 24 2 20 3 2 3 13)
1969/12/31/18:00:05.605,(4 -9 -14 -31 -1 2 1 4)
1969/12/31/18:00:05.605,(-21 2 -10 -8 0 -2 -6 -9)
1969/12/31/18:00:05.614,(40 25 3 -12 -8 4 9 6)
1969/12/31/18:00:05.614,(-13 -10 -2 -7 -10 -8 -9 -10)
1969/12/31/18:00:05.628,(-3 3 -1 -2 -5 -7 -4 -4)
1969/12/31/18:00:05.628,(3 -7 -5 -21 8 3 6 8)
1969/12/31/18:00:05.637,(-10 -8 -6 12 -8 -3 -5 -2)
1969/12/31/18:00:05.637,(-4 -2 -5 -49 -21 -5 -2 -1)
1969/12/31/18:00:05.652,(5 4 13 71 28 10 6 5)
1969/12/31/18:00:05.652,(-6 -4 2 14 26 2 -9 -11)
1969/12/31/18:00:05.653,(-21 -16 4 15 0 3 4 -3)
1969/12/31/18:00:05.653,(20 20 -1 -20 -9 -6 -4 2)
1969/12/31/18:00:05.665,(-28 -33 -14 -32 -21 -13 -12 -18)
1969/12/31/18:00:05.665,(-10 1 -4 1 -10 -8 -10 -15)
1969/12/31/18:00:05.674,(6 1 -14 -44 -9 -5 -4 2)
1969/12/31/18:00:05.674,(-11 -18 -4 22 -2 -3 1 0)
1969/12/31/18:00:05.689,(1 31 15 -2 -5 -3 -6 -12)
1969/12/31/18:00:05.689,(-4 -11 -11 -2 -3 1 1 -1)
1969/12/31/18:00:05.691,(-4 -12 -21 -37 -15 0 -2 1)
1969/12/31/18:00:05.691,(-11 -18 12 73 32 1 -3 -2)
1969/12/31/18:00:05.712,(20 32 18 18 27 9 5 5)
1969/12/31/18:00:05.712,(-12 -19 1 0 -10 -4 -4 -8)
1969/12/31/18:00:05.713,(7 8 -9 -45 -26 -6 1 8)
1969/12/31/18:00:05.713,(-1 -7 -8 -7 -1 5 6 4)
1969/12/31/18:00:05.725,(-18 -22 3 30 11 -4 -9 -5)
1969/12/31/18:00:05.725,(21 16 8 17 10 6 5 4)
1969/12/31/18:00:05.734,(-35 -36 -7 -13 -6 -9 -15 -24)
1969/12/31/18:00:05.734,(10 27 -23 -71 -19 -9 -4 5)
1969/12/31/18:00:05.749,(-2 -3 11 27 -5 2 3 1)
1969/12/31/18:00:05.749,(28 9 10 42 22 11 15 14)
1969/12/31/18:00:05.751,(-13 -3 -2 3 3 -7 -9 -5)
1969/12/31/18:00:05.751,(-5 -9 -12 -63 -27 -6 -3 -7)
1969/12/31/18:00:05.772,(18 15 -10 -27 -8 3 10 17)
1969/12/31/18:00:05.772,(-13 -1 17 64 24 2 -5 -3)
1969/12/31/18:00:05.773,(3 7 15 47 42 16 9 2)
1969/12/31/18:00:05.773,(0 0 2 -6 -11 -2 -6 -4)
1969/12/31/18:00:05.786,(-4 -12 -18 -48 -21 -3 6 5)
1969/12/31/18:00:05.786,(9 16 -5 -16 -21 -7 2 4)
1969/12/31/18:00:05.794,(26 24 21 50 26 -3 -18 -9)
1969/12/31/18:00:05.794,(-19 -13 8 16 10 -1 -8 -18)
1969/12/31/18:00:05.809,(15 2 7 -2 1 7 9 15)
1969/12/31/18:00:05.809,(-16 -24 -17 -51 -34 -15 -13 -9)
1969/12/31/18:00:05.811,(-10 -29 -15 -22 -10 -6 -3 2)
1969/12/31/18:00:05.811,(9 30 5 20 10 8 12 8)
1969/12/31/18:00:05.832,(3 10 8 21 5 5 15 35)
1969/12/31/18:00:05.832,(4 -10 -1 -32 -8 3 6 -2)
1969/12/31/18:00:05.833,(0 33 -3 -23 -3 -4 -13 -19)
1969/12/31/18:00:05.833,(-4 -18 12 66 17 7 4 -1)
1969/12/31/18:00:05.845,(-12 -13 -2 -14 0 -7 -12 -14)
1969/12/31/18:00:05.845,(17 11 0 13 16 14 13 20)
1969/12/31/18:00:05.854,(-13 -16 -9 -13 -11 -1 3 3)
1969/12/31/18:00:05.854,(0 -2 0 1 -9 -2 -1 -2)
1969/12/31/18:00:05.869,(8 15 2 -9 -2 -3 -2 -4)
1969/12/31/18:00:05.869,(-19 -21 -8 -3 -7 -8 -7 -8)
1969/12/31/18:00:05.871,(-12 -11 5 19 11 0 -2 -5)
1969/12/31/18:00:05.871,(-2 -10 7 9 10 -2 -6 6)
1969/12/31/18:00:05.892,(26 35 -4 -6 -5 5 5 -9)
1969/12/31/18:00:05.892,(9 -6 -8 -25 -10 -2 -1 3)
1969/12/31/18:00:05.894,(12 17 1 -23 -14 -1 7 13)
1969/12/31/18:00:05.894,(-58 -48 -11 20 -10 -17 -26 -37)
1969/12/31/18:00:05.914,(13 11 13 28 20 6 7 12)
1969/12/31/18:00:05.914,(3 -2 0 2 13 4 1 3)
1969/12/31/18:00:05.916,(29 28 0 -18 -13 -3 1 9)
1969/12/31/18:00:05.916,(12 -4 -22 -63 -34 5 14 12)
1969/12/31/18:00:05.929,(-8 -7 -5 43 7 -13 -12 -11)
1969/12/31/18:00:05.929,(1 15 8 -12 -5 0 -2 -3)
1969/12/31/18:00:05.935,(-11 -14 21 70 33 10 4 3)
1969/12/31/18:00:05.935,(11 32 22 27 32 9 7 2)
1969/12/31/18:00:05.952,(-21 -29 -21 -35 -17 -5 -8 -13)
1969/12/31/18:00:05.952,(-3 -7 -8 -9 -17 -7 3 5)
1969/12/31/18:00:05.953,(0 2 -9 -40 -19 -6 -6 -10)
1969/12/31/18:00:05.953,(-3 -22 -8 -5 -3 -3 2 3)
1969/12/31/18:00:05.965,(-4 -20 2 -3 1 0 -2 4)
1969/12/31/18:00:05.965,(-6 26 2 12 6 -3 -9 -15)
1969/12/31/18:00:05.982,(1 -5 -14 -24 -17 -6 1 2)
1969/12/31/18:00:05.982,(24 32 11 12 6 3 5 4)
1969/12/31/18:00:05.989,(-20 -27 -5 -9 -6 -6 -10 -12)
1969/12/31/18:00:05.989,(1 -10 -9 -30 0 6 7 9)
1969/12/31/18:00:05.995,(9 7 0 28 4 5 7 5)
1969/12/31/18:00:05.995,(-10 -11 9 28 11 -2 -4 -6)
1969/12/31/18:00:06.012,(-24 -17 -19 -88 -42 -14 -11 -15)
1969/12/31/18:00:06.012,(-3 4 11 67 33 7 5 -4)
1969/12/31/18:00:06.013,(43 55 37 55 43 21 22 33)
1969/12/31/18:00:06.013,(-23 -50 -2 18 12 6 0 -3)
1969/12/31/18:00:06.025,(40 40 1 -9 1 4 6 9)
1969/12/31/18:00:06.025,(-23 -31 -22 -55 -31 -15 -12 -11)
1969/12/31/18:00:06.034,(-8 -24 -13 -21 -15 -4 0 0)
1969/12/31/18:00:06.034,(30 26 5 12 9 9 12 18)
1969/12/31/18:00:06.048,(13 26 6 6 4 2 4 9)
1969/12/31/18:00:06.048,(-15 -23 2 6 -2 -4 -5 -6)
1969/12/31/18:00:06.055,(5 14 -4 -8 -11 -8 -5 -6)
1969/12/31/18:00:06.055,(15 17 -4 -19 -9 -1 -1 5)
1969/12/31/18:00:06.072,(-32 -33 -8 -8 -3 -10 -16 -21)
1969/12/31/18:00:06.072,(14 16 11 38 21 16 15 12)
1969/12/31/18:00:06.073,(-34 -38 0 3 0 -1 1 -5)
1969/12/31/18:00:06.073,(41 59 -9 -36 -6 -8 -15 -4)
1969/12/31/18:00:06.094,(-21 -1 5 16 -10 -4 -8 -18)
1969/12/31/18:00:06.094,(-12 -19 -3 -1 -4 -1 4 5)
1969/12/31/18:00:06.096,(4 1 -2 9 6 0 -2 0)
1969/12/31/18:00:06.096,(-24 -25 4 25 8 2 9 0)
1969/12/31/18:00:06.108,(33 31 16 22 27 18 18 23)
1969/12/31/18:00:06.108,(-14 -3 -11 -23 -21 -19 -27 -24)
1969/12/31/18:00:06.117,(-2 -7 -7 -27 -18 1 6 5)
1969/12/31/18:00:06.117,(-29 -30 -8 -8 -3 -3 0 -8)
1969/12/31/18:00:06.132,(30 9 3 9 6 5 7 20)
1969/12/31/18:00:06.132,(32 54 4 -14 6 13 19 23)
1969/12/31/18:00:06.133,(1 -3 -1 -18 -21 -11 -13 -11)
1969/12/31/18:00:06.133,(-9 -7 1 21 1 -5 -6 -6)
1969/12/31/18:00:06.154,(-13 -19 -2 7 -7 -2 1 -4)
1969/12/31/18:00:06.154,(-17 -13 8 42 23 -6 -13 -17)
1969/12/31/18:00:06.156,(5 7 2 12 27 12 6 5)
1969/12/31/18:00:06.156,(-16 -8 -4 -12 -17 -8 -15 -19)
1969/12/31/18:00:06.168,(19 11 -20 -92 -30 -3 8 13)
1969/12/31/18:00:06.168,(-4 -2 2 47 4 -2 -4 -5)
1969/12/31/18:00:06.177,(-25 -36 0 7 8 0 -1 -8)
1969/12/31/18:00:06.177,(45 57 3 0 8 10 15 23)
1969/12/31/18:00:06.199,(-19 -14 7 14 6 -4 -4 -6)
1969/12/31/18:00:06.199,(9 9 -1 -26 -12 -8 -11 -11)
1969/12/31/18:00:06.201,(4 -1 -9 -22 -12 -2 5 1)
1969/12/31/18:00:06.201,(15 -5 -2 -20 -7 4 3 15)
1969/12/31/18:00:06.214,(-26 -14 2 43 15 -6 -13 -23)
1969/12/31/18:00:06.214,(-1 -1 5 7 8 7 14 17)
1969/12/31/18:00:06.216,(-5 1 6 10 1 6 8 9)
1969/12/31/18:00:06.216,(-10 -8 -9 -31 -12 -7 -7 -14)
1969/12/31/18:00:06.228,(11 0 -2 13 3 7 11 14)
1969/12/31/18:00:06.228,(-16 -19 6 23 6 -7 -15 -21)
1969/12/31/18:00:06.237,(7 27 3 -7 0 -6 -5 -1)
1969/12/31/18:00:06.237,(-22 -32 -5 4 -5 1 3 -8)
1969/12/31/18:00:06.252,(-6 -4 -5 -12 -1 -5 -8 -10)
1969/12/31/18:00:06.252,(14 8 1 18 11 7 12 13)
1969/12/31/18:00:06.253,(-43 -48 -3 3 -9 -9 -14 -26)
1969/12/31/18:00:06.253,(46 49 4 -1 9 2 11 27)
1969/12/31/18:00:06.274,(0 7 -6 -1 -3 -2 -6 -10)
1969/12/31/18:00:06.274,(-12 -20 -7 -24 -13 -6 -8 -9)
1969/12/31/18:00:06.276,(-10 -3 -10 -11 -10 -9 -8 -17)
1969/12/31/18:00:06.276,(-25 -32 4 0 0 -5 -7 -5)
1969/12/31/18:00:06.288,(17 41 -7 8 8 9 17 20)
1969/12/31/18:00:06.288,(7 -6 -8 -24 -3 -5 -14 -6)
1969/12/31/18:00:06.297,(6 -1 5 28 -1 -4 -3 2)
1969/12/31/18:00:06.297,(-18 -6 7 14 9 8 8 -6)
1969/12/31/18:00:06.312,(-37 -23 3 24 -5 -16 -22 -30)
1969/12/31/18:00:06.312,(23 22 3 -8 14 19 27 28)
1969/12/31/18:00:06.313,(40 30 -3 -3 3 3 -2 6)
1969/12/31/18:00:06.313,(-11 -16 -14 -18 -15 -15 -20 -17)
1969/12/31/18:00:06.334,(-31 -43 -2 -6 -6 -5 -7 -10)
1969/12/31/18:00:06.334,(26 47 -1 -9 -11 -2 2 8)
1969/12/31/18:00:06.336,(-19 -18 -4 -9 2 1 2 -7)
1969/12/31/18:00:06.336,(21 21 2 0 -4 -2 -1 10)
1969/12/31/18:00:06.348,(-10 -15 -1 -5 0 0 0 -2)
1969/12/31/18:00:06.348,(-22 -15 3 6 -9 -16 -20 -22)
1969/12/31/18:00:06.357,(30 26 -5 -13 4 15 30 36)
1969/12/31/18:00:06.357,(36 21 1 3 10 10 10 20)
1969/12/31/18:00:06.372,(-4 -5 -3 -18 -25 -7 -8 -4)
1969/12/31/18:00:06.372,(-8 -10 5 24 18 0 -1 -5)
1969/12/31/18:00:06.373,(-6 4 8 13 7 2 -2 -5)
1969/12/31/18:00:06.373,(14 28 7 17 4 -1 8 26)
1969/12/31/18:00:06.394,(6 -5 -6 -5 10 2 -7 -11)
1969/12/31/18:00:06.394,(-9 -8 -3 -17 -21 -6 -8 -9)
1969/12/31/18:00:06.396,(-19 -10 -2 -9 -8 -9 -13 -13)
1969/12/31/18:00:06.396,(-6 -6 -2 -15 -3 2 5 2)
1969/12/31/18:00:06.408,(57 24 8 11 9 7 11 32)
1969/12/31/18:00:06.408,(-23 -20 -6 -6 -5 -1 -2 -6)
1969/12/31/18:00:06.417,(19 20 -2 -3 -2 -5 -8 2)
1969/12/31/18:00:06.417,(-35 -39 -1 -3 -5 -7 -15 -35)
1969/12/31/18:00:06.432,(27 32 8 9 9 12 26 37)
1969/12/31/18:00:06.432,(-10 -22 -7 1 -3 -7 -13 -15)
1969/12/31/18:00:06.434,(12 1 -4 -7 1 6 10 18)
1969/12/31/18:00:06.434,(1 -1 2 -2 1 4 3 0)
1969/12/31/18:00:06.454,(-3 3 1 1 -5 -3 1 -1)
1969/12/31/18:00:06.454,(-1 -4 1 5 1 -5 -3 2)
1969/12/31/18:00:06.456,(-20 -13 -6 -37 -26 -3 -1 -14)
1969/12/31/18:00:06.456,(1 1 -9 -5 11 -4 -3 -4)
1969/12/31/18:00:06.468,(-15 -18 -5 23 8 3 -2 -9)
1969/12/31/18:00:06.469,(-3 -3 20 53 17 14 19 19)
1969/12/31/18:00:06.477,(3 29 13 14 3 -6 -10 -19)
1969/12/31/18:00:06.477,(27 10 3 1 4 12 15 23)
1969/12/31/18:00:06.492,(-18 -15 -19 -36 -14 -5 -12 -20)
1969/12/31/18:00:06.492,(6 -1 -8 -30 -14 -4 1 6)
1969/12/31/18:00:06.493,(-12 -16 -6 6 -3 -5 -5 -2)
1969/12/31/18:00:06.493,(-10 -9 -6 -12 -7 -2 0 -6)
1969/12/31/18:00:06.514,(-3 -3 5 7 3 -5 0 1)
1969/12/31/18:00:06.514,(0 11 -1 -9 -4 -3 -7 -8)
1969/12/31/18:00:06.516,(-10 -19 1 7 7 3 0 0)
1969/12/31/18:00:06.516,(15 3 0 9 6 7 11 13)
1969/12/31/18:00:06.537,(-7 -11 -6 1 -1 -2 -8 -9)
1969/12/31/18:00:06.537,(-10 15 -7 -24 -6 -12 -16 -19)
1969/12/31/18:00:06.538,(-8 -9 -6 -9 -14 -4 -2 -2)
1969/12/31/18:00:06.538,(-2 -2 -7 18 3 -13 -10 -3)
1969/12/31/18:00:06.552,(-1 16 25 29 19 10 8 -3)
1969/12/31/18:00:06.552,(16 4 -1 -8 2 -1 -3 -1)
1969/12/31/18:00:06.553,(13 7 -4 -17 -2 1 0 8)
1969/12/31/18:00:06.553,(-26 -12 -10 -11 -17 -12 -13 -20)
1969/12/31/18:00:06.574,(-18 -19 -2 5 5 4 0 2)
1969/12/31/18:00:06.574,(11 10 0 -5 -1 6 11 11)
1969/12/31/18:00:06.576,(-12 -9 -2 8 3 -5 -9 -10)
1969/12/31/18:00:06.576,(-4 7 7 -4 -10 -2 -3 -5)
1969/12/31/18:00:06.588,(12 11 -1 -10 -3 3 3 8)
1969/12/31/18:00:06.588,(-6 -19 -5 -4 -2 4 5 4)
1969/12/31/18:00:06.597,(-7 -33 -3 13 4 -4 -5 -2)
1969/12/31/18:00:06.597,(-12 39 10 10 11 7 10 1)
1969/12/31/18:00:06.612,(-35 -35 -10 -10 -7 -11 -19 -36)
1969/12/31/18:00:06.612,(9 -9 -9 -14 -15 -11 -13 -5)
1969/12/31/18:00:06.613,(39 54 13 2 6 14 26 32)
1969/12/31/18:00:06.613,(-18 -22 -6 -10 -11 -10 -14 -12)
1969/12/31/18:00:06.634,(-17 -13 -4 -2 -7 -5 -1 -5)
1969/12/31/18:00:06.634,(74 57 11 7 8 9 20 39)
1969/12/31/18:00:06.636,(-42 -25 3 14 10 3 -9 -21)
1969/12/31/18:00:06.636,(14 -1 5 3 4 5 2 3)
1969/12/31/18:00:06.648,(18 23 -1 -8 -6 7 11 13)
1969/12/31/18:00:06.648,(-21 -20 -2 9 0 1 1 -5)
1969/12/31/18:00:06.657,(28 17 2 2 4 3 12 27)
1969/12/31/18:00:06.657,(-2 4 1 -5 -3 -1 -6 -9)
1969/12/31/18:00:06.672,(-24 -33 -2 9 6 -9 -10 -11)
1969/12/31/18:00:06.672,(3 38 10 13 17 20 24 11)
1969/12/31/18:00:06.673,(-8 -23 -13 -18 -14 -15 -21 -19)
1969/12/31/18:00:06.673,(-18 -31 -6 -9 9 -1 -4 -10)
1969/12/31/18:00:06.694,(12 17 -5 -1 -17 -11 -7 1)
1969/12/31/18:00:06.694,(-55 -44 -4 10 3 0 -5 -16)
1969/12/31/18:00:06.696,(14 13 -6 -10 -6 -7 0 0)
1969/12/31/18:00:06.696,(-22 -27 -10 2 3 -1 -16 -26)
1969/12/31/18:00:06.708,(9 16 -1 -11 -4 -10 -11 -4)
1969/12/31/18:00:06.708,(6 -4 1 -2 7 15 24 29)
1969/12/31/18:00:06.717,(-6 -21 -3 4 0 0 -3 1)
1969/12/31/18:00:06.717,(11 25 1 -1 -5 -3 1 2)
1969/12/31/18:00:06.731,(8 4 -2 -21 -2 6 8 8)
1969/12/31/18:00:06.731,(-6 -7 -18 -82 -37 -18 -18 -19)
1969/12/31/18:00:06.746,(-10 -2 9 81 20 -4 -4 -7)
1969/12/31/18:00:06.746,(23 16 19 49 40 25 23 25)
1969/12/31/18:00:06.754,(6 8 14 22 11 8 7 11)
1969/12/31/18:00:06.754,(-2 0 -5 -15 -7 -7 -9 -14)
1969/12/31/18:00:06.756,(-6 -1 -10 -42 -17 -4 -1 -5)
1969/12/31/18:00:06.756,(-6 -5 -19 -23 -29 -25 -16 -5)
1969/12/31/18:00:06.768,(-28 -33 1 11 22 17 2 -21)
1969/12/31/18:00:06.768,(3 -1 1 5 -4 -8 -10 -6)
1969/12/31/18:00:06.777,(4 3 -2 -6 -1 4 3 1)
1969/12/31/18:00:06.777,(-2 -6 2 7 -5 -1 1 0)
1969/12/31/18:00:06.792,(23 22 6 -7 0 3 17 31)
1969/12/31/18:00:06.792,(13 27 -2 -11 4 5 4 8)
1969/12/31/18:00:06.793,(-11 -24 -5 12 -2 -1 -5 -9)
1969/12/31/18:00:06.793,(12 33 7 2 -5 -10 -1 5)
1969/12/31/18:00:06.814,(-50 -38 -20 -34 -9 -7 -30 -44)
1969/12/31/18:00:06.814,(-2 -12 -28 -79 -32 -7 3 3)
1969/12/31/18:00:06.816,(16 19 15 71 12 9 15 12)
1969/12/31/18:00:06.816,(-18 -20 9 7 -3 -13 -17 -10)
1969/12/31/18:00:06.828,(18 15 -3 -63 -19 -2 4 15)
1969/12/31/18:00:06.828,(-16 -10 20 127 39 0 -14 -19)
1969/12/31/18:00:06.837,(7 9 21 18 45 17 12 5)
1969/12/31/18:00:06.837,(9 1 11 34 34 17 11 8)
1969/12/31/18:00:06.852,(-5 0 -2 -14 -8 -1 8 -2)
1969/12/31/18:00:06.852,(22 1 -15 -79 -33 -10 -5 17)
1969/12/31/18:00:06.858,(-27 -22 -30 -71 -48 -19 -16 -26)
1969/12/31/18:00:06.858,(-14 -20 -5 -5 -7 9 13 -5)
1969/12/31/18:00:06.874,(63 70 17 5 14 18 41 72)
1969/12/31/18:00:06.874,(-53 -55 -33 -84 -30 -22 -39 -54)
1969/12/31/18:00:06.876,(13 9 5 30 2 5 9 16)
1969/12/31/18:00:06.876,(16 15 17 26 12 5 2 6)
1969/12/31/18:00:06.898,(-27 -27 -4 10 8 -5 -13 -26)
1969/12/31/18:00:06.898,(-2 2 21 90 38 9 14 10)
1969/12/31/18:00:06.900,(21 25 8 -26 1 4 1 14)
1969/12/31/18:00:06.900,(-8 -18 -16 -50 -25 -4 -3 -7)
1969/12/31/18:00:06.912,(25 10 3 38 9 4 7 14)
1969/12/31/18:00:06.912,(-1 7 8 1 5 4 5 0)
1969/12/31/18:00:06.918,(-32 -59 -11 -25 -10 -16 -20 -14)
1969/12/31/18:00:06.918,(31 48 -3 -2 -2 2 6 8)
1969/12/31/18:00:06.934,(15 11 7 26 11 9 12 5)
1969/12/31/18:00:06.934,(5 3 1 -8 4 -7 -14 -4)
1969/12/31/18:00:06.936,(-16 -14 -11 -25 -19 -2 2 -8)
1969/12/31/18:00:06.936,(-2 -20 5 12 0 5 12 14)
1969/12/31/18:00:06.948,(-12 -14 -29 -100 -49 -27 -30 -18)
1969/12/31/18:00:06.948,(15 7 -11 11 -18 4 15 13)
1969/12/31/18:00:06.957,(8 14 21 95 38 5 4 5)
1969/12/31/18:00:06.957,(-25 -9 27 80 46 7 -6 -11)
1969/12/31/18:00:06.971,(3 10 18 47 44 13 4 -4)
1969/12/31/18:00:06.971,(-2 -4 8 -10 5 12 7 7)
1969/12/31/18:00:06.978,(27 23 -16 -82 -34 0 15 29)
1969/12/31/18:00:06.978,(-19 -33 -24 -56 -35 -14 -9 -12)
1969/12/31/18:00:06.994,(-2 -24 -11 -2 -17 -14 -2 5)
1969/12/31/18:00:06.994,(9 31 6 6 -1 -8 -10 -7)
1969/12/31/18:00:06.996,(-2 4 1 -1 6 2 -5 -13)
1969/12/31/18:00:06.996,(1 10 -2 -12 3 10 8 1)
1969/12/31/18:00:07.017,(-7 -24 1 14 -5 -11 -8 -1)
1969/12/31/18:00:07.017,(43 32 8 -8 -2 4 10 20)
1969/12/31/18:00:07.018,(6 9 -17 -53 -30 -7 -5 -4)
1969/12/31/18:00:07.018,(-9 -11 6 67 16 -2 -5 -6)
1969/12/31/18:00:07.032,(-20 -5 6 -2 18 2 -4 -9)
1969/12/31/18:00:07.032,(-5 0 7 41 15 3 2 -1)
1969/12/31/18:00:07.033,(-13 -5 23 59 25 5 -4 -10)
1969/12/31/18:00:07.033,(14 6 9 1 12 9 9 13)
1969/12/31/18:00:07.054,(10 15 3 14 -7 -3 -5 -3)
1969/12/31/18:00:07.054,(-15 -18 -11 -58 -21 -5 0 -3)
1969/12/31/18:00:07.056,(9 4 -14 -41 -13 -2 6 9)
1969/12/31/18:00:07.056,(-26 -40 -19 -23 -15 -10 -7 -11)
1969/12/31/18:00:07.077,(48 78 15 13 5 11 14 29)
1969/12/31/18:00:07.077,(-37 -36 -17 -39 -21 -15 -19 -33)
1969/12/31/18:00:07.078,(-3 -12 -59 -95 -71 -25 -12 -6)
1969/12/31/18:00:07.078,(11 11 21 89 5 2 3 5)
1969/12/31/18:00:07.093,(-9 -8 47 104 96 35 15 -2)
1969/12/31/18:00:07.093,(17 14 42 62 60 27 15 21)
1969/12/31/18:00:07.098,(0 18 15 -38 9 1 -3 -6)
1969/12/31/18:00:07.098,(-8 -21 -54 -112 -67 -26 -17 -10)
1969/12/31/18:00:07.114,(-11 -19 -26 -30 -38 -16 -6 -7)
1969/12/31/18:00:07.114,(0 9 12 33 19 5 4 1)
1969/12/31/18:00:07.116,(-7 -5 20 51 41 17 6 -1)
1969/12/31/18:00:07.116,(7 9 -7 -56 -20 -2 -3 3)
1969/12/31/18:00:07.137,(-2 -9 -17 -43 -9 -11 -10 -7)
1969/12/31/18:00:07.137,(-16 -15 -12 -5 -44 -13 -7 -3)
1969/12/31/18:00:07.138,(3 6 13 54 7 -2 3 7)
1969/12/31/18:00:07.139,(3 12 11 -23 23 20 14 1)
1969/12/31/18:00:07.150,(-1 2 -8 -11 -20 -2 -1 -8)
1969/12/31/18:00:07.150,(-20 -16 1 53 -1 -7 -5 -9)
1969/12/31/18:00:07.159,(5 7 17 37 45 11 6 10)
1969/12/31/18:00:07.159,(38 22 0 13 4 4 11 30)
1969/12/31/18:00:07.174,(-12 -14 10 92 11 -7 -13 -15)
1969/12/31/18:00:07.174,(0 -5 -4 -60 -3 7 8 1)
1969/12/31/18:00:07.176,(5 6 -11 -25 5 2 -1 1)
1969/12/31/18:00:07.176,(-26 -26 8 21 -19 -5 -3 -14)
1969/12/31/18:00:07.204,(8 6 1 8 22 -1 4 13)
1969/12/31/18:00:07.204,(39 48 18 73 32 10 0 5)
1969/12/31/18:00:07.206,(-24 -14 -2 -37 17 4 -4 -20)
1969/12/31/18:00:07.206,(-32 -17 -22 -78 -33 -15 -16 -28)
1969/12/31/18:00:07.210,(-44 -65 -31 -49 -69 -28 -28 -22)
1969/12/31/18:00:07.210,(9 -26 0 6 10 2 16 22)
1969/12/31/18:00:07.219,(14 25 0 -22 -11 -4 -2 -3)
1969/12/31/18:00:07.219,(0 -3 -10 -11 -7 -6 -6 -4)
1969/12/31/18:00:07.234,(7 8 0 -12 -23 0 9 5)
1969/12/31/18:00:07.234,(-13 -15 -5 3 -1 -7 -9 -8)
1969/12/31/18:00:07.236,(7 -12 -9 -23 9 8 12 13)
1969/12/31/18:00:07.236,(-6 7 36 123 43 5 -5 -3)
1969/12/31/18:00:07.257,(-2 11 16 -16 32 18 10 1)
1969/12/31/18:00:07.257,(-4 7 6 -14 -19 -5 -6 -7)
1969/12/31/18:00:07.258,(10 8 6 42 3 3 6 8)
1969/12/31/18:00:07.258,(7 16 -14 -29 13 -7 -6 -1)
1969/12/31/18:00:07.270,(-4 -4 -22 -88 -43 -10 -10 -9)
1969/12/31/18:00:07.270,(-4 -6 -6 -1 -43 -8 2 -1)
1969/12/31/18:00:07.279,(-13 -12 9 40 7 -3 -4 -5)
1969/12/31/18:00:07.279,(-2 -4 8 17 18 3 1 -2)
1969/12/31/18:00:07.293,(11 2 -13 -23 15 13 14 13)
1969/12/31/18:00:07.294,(4 2 -12 -74 -32 -8 -4 1)
1969/12/31/18:00:07.302,(-12 -11 -8 24 -14 -10 -10 -11)
1969/12/31/18:00:07.302,(16 14 2 -59 -8 4 4 9)
1969/12/31/18:00:07.317,(1 6 20 93 29 7 3 -1)
1969/12/31/18:00:07.317,(2 5 -2 -16 19 4 1 2)
1969/12/31/18:00:07.318,(2 -1 4 31 -13 -6 -3 1)
1969/12/31/18:00:07.318,(1 0 -10 -77 -28 0 4 3)
1969/12/31/18:00:07.330,(-4 -3 -20 -38 -52 -7 -3 -1)
1969/12/31/18:00:07.330,(-6 -2 25 122 72 10 -1 -4)
1969/12/31/18:00:07.339,(-3 2 20 17 35 5 -3 -5)
1969/12/31/18:00:07.339,(6 -1 -11 -38 -12 0 2 5)
1969/12/31/18:00:07.354,(-2 1 4 -15 -30 0 4 1)
1969/12/31/18:00:07.354,(8 4 -21 -46 -28 -11 -1 5)
1969/12/31/18:00:07.356,(0 -7 -25 -25 -15 -13 -6 -2)
1969/12/31/18:00:07.356,(-12 -12 -15 -14 4 -14 -14 -12)
1969/12/31/18:00:07.377,(-5 3 18 45 19 1 -4 -7)
1969/12/31/18:00:07.377,(-3 -2 3 -37 10 10 8 2)
1969/12/31/18:00:07.379,(5 6 14 3 -26 9 8 6)
1969/12/31/18:00:07.379,(3 6 15 68 40 11 3 1)
1969/12/31/18:00:07.390,(7 -4 -22 -29 7 -2 1 3)
1969/12/31/18:00:07.390,(-6 -7 -8 -14 -23 -7 -3 -4)
1969/12/31/18:00:07.399,(-2 1 17 32 8 -2 -3 -3)
1969/12/31/18:00:07.399,(5 4 2 -23 -5 8 10 8)
1969/12/31/18:00:07.414,(2 6 7 30 11 -2 0 1)
1969/12/31/18:00:07.414,(5 3 -1 40 10 -4 -2 1)
1969/12/31/18:00:07.416,(-11 -16 -15 -27 -8 -11 -11 -7)
1969/12/31/18:00:07.416,(0 2 3 -2 -12 2 2 -1)
1969/12/31/18:00:07.437,(5 5 -6 -53 -26 -4 4 4)
1969/12/31/18:00:07.437,(4 1 -2 -3 -31 -7 -2 0)
1969/12/31/18:00:07.438,(-4 -2 7 16 30 8 2 -1)
1969/12/31/18:00:07.438,(3 -4 -12 88 47 12 5 3)
1969/12/31/18:00:07.450,(-18 -18 -2 -5 -8 -4 -9 -11)
1969/12/31/18:00:07.450,(-9 -3 -9 -42 9 0 0 -4)
1969/12/31/18:00:07.459,(5 6 6 -30 -40 -4 3 5)
1969/12/31/18:00:07.459,(0 5 1 -25 -30 -13 -6 -3)
1969/12/31/18:00:07.474,(6 2 3 22 19 5 1 0)
1969/12/31/18:00:07.474,(-1 -2 9 24 11 4 3 0)
1969/12/31/18:00:07.476,(-1 2 -10 -1 -15 2 1 1)
1969/12/31/18:00:07.476,(5 0 -2 -15 20 0 2 4)
1969/12/31/18:00:07.497,(-1 3 11 21 -2 -3 -2 0)
1969/12/31/18:00:07.497,(2 7 12 3 5 6 5 1)
1969/12/31/18:00:07.498,(3 -5 -22 -30 -4 -2 1 1)
1969/12/31/18:00:07.498,(-6 -7 -3 21 -16 -8 -6 -3)
1969/12/31/18:00:07.510,(-5 -2 3 -15 -16 -9 -4 -5)
1969/12/31/18:00:07.510,(3 6 -1 -5 34 7 1 2)
1969/12/31/18:00:07.519,(-3 0 7 41 11 5 -3 -4)
1969/12/31/18:00:07.519,(3 0 -6 0 0 -2 -2 1)
1969/12/31/18:00:07.534,(-8 -4 11 6 6 -5 -8 -6)
1969/12/31/18:00:07.534,(-2 -1 -14 -30 -24 -2 2 -2)
1969/12/31/18:00:07.536,(4 3 -5 -19 -4 0 2 2)
1969/12/31/18:00:07.536,(0 1 8 22 9 1 -1 -2)
1969/12/31/18:00:07.557,(-1 -2 -13 -17 4 -1 -1 -2)
1969/12/31/18:00:07.557,(-1 -1 5 -3 -8 0 -3 -2)
1969/12/31/18:00:07.559,(-1 -1 5 33 18 1 1 1)
1969/12/31/18:00:07.559,(-2 -2 -1 -20 -13 -3 -1 -1)
1969/12/31/18:00:07.579,(1 2 -8 -47 -4 3 3 1)
1969/12/31/18:00:07.579,(-1 -6 -6 54 3 -7 -6 -2)
1969/12/31/18:00:07.581,(-3 0 11 10 15 6 3 -2)
1969/12/31/18:00:07.581,(-3 -4 -4 -12 -12 2 0 1)
1969/12/31/18:00:07.594,(3 2 0 1 11 3 4 6)
1969/12/31/18:00:07.594,(-8 -5 -1 9 6 -2 -6 -6)
1969/12/31/18:00:07.596,(4 -2 -2 -12 5 9 7 4)
1969/12/31/18:00:07.596,(-6 -3 -4 -21 -19 -12 -7 -5)
1969/12/31/18:00:07.617,(1 1 -14 -13 -13 -2 1 -2)
1969/12/31/18:00:07.617,(4 0 -5 -1 -12 -3 -3 0)
1969/12/31/18:00:07.619,(-2 2 16 12 21 5 1 1)
1969/12/31/18:00:07.619,(0 4 10 25 15 2 1 0)
1969/12/31/18:00:07.631,(4 0 -2 13 6 5 5 6)
1969/12/31/18:00:07.631,(-8 -8 -6 -7 -13 -10 -6 -8)
1969/12/31/18:00:07.639,(1 4 -4 -35 -20 1 5 3)
1969/12/31/18:00:07.639,(3 -2 -8 -17 3 4 6 3)
1969/12/31/18:00:07.654,(-5 -4 16 55 17 2 -2 -3)
1969/12/31/18:00:07.654,(0 6 3 -14 2 1 2 1)
1969/12/31/18:00:07.661,(-1 -1 10 16 5 -1 -3 0)
1969/12/31/18:00:07.661,(4 7 2 -15 -3 -1 0 2)
