time,.data
1969/12/31/18:00:03.589,(1 1 1 0 -1 -1 0 0)
1969/12/31/18:00:03.589,(1 -1 -2 -3 -3 -1 1 0)
1969/12/31/18:00:03.590,(-1 -1 2 1 1 -1 0 0)
1969/12/31/18:00:03.590,(-2 0 -2 0 -3 0 -2 -2)
1969/12/31/18:00:03.602,(0 -1 -3 -4 -3 -2 -1 -5)
1969/12/31/18:00:03.602,(-1 0 -1 -1 -2 -1 0 0)
1969/12/31/18:00:03.611,(0 -2 -2 1 -1 -1 -1 -3)
1969/12/31/18:00:03.611,(1 2 3 3 -1 -2 -1 -2)
1969/12/31/18:00:03.626,(-8 -13 -10 -5 -4 -3 -1 0)
1969/12/31/18:00:03.626,(-4 -7 -10 -11 -5 -2 -4 -4)
1969/12/31/18:00:03.628,(1 1 3 -7 -4 -2 -3 1)
1969/12/31/18:00:03.628,(2 5 -1 3 2 1 1 3)
1969/12/31/18:00:03.649,(0 4 2 5 0 -1 -1 3)
1969/12/31/18:00:03.649,(1 6 5 12 5 1 0 -1)
1969/12/31/18:00:03.651,(-1 -1 9 6 0 0 0 2)
1969/12/31/18:00:03.651,(-4 -5 -11 -13 -6 -3 -4 -2)
1969/12/31/18:00:03.662,(-5 -6 -4 -9 -5 -1 3 0)
1969/12/31/18:00:03.662,(-4 -13 -34 -29 -11 -9 -11 -7)
1969/12/31/18:00:03.671,(-1 -5 -26 -26 -8 5 2 -3)
1969/12/31/18:00:03.671,(5 15 61 61 16 9 6 4)
1969/12/31/18:00:03.686,(6 13 -7 -23 -2 -4 3 0)
1969/12/31/18:00:03.686,(-18 -27 3 21 0 -3 -3 -11)
1969/12/31/18:00:03.688,(6 8 2 30 16 5 6 5)
1969/12/31/18:00:03.688,(0 2 -35 -50 -9 0 -3 1)
1969/12/31/18:00:03.709,(10 20 55 31 1 -4 -2 3)
1969/12/31/18:00:03.709,(-17 -45 -89 -62 -19 -3 6 -3)
1969/12/31/18:00:03.710,(0 -5 14 -18 -9 -6 -7 -4)
1969/12/31/18:00:03.710,(2 12 10 39 16 9 7 6)
1969/12/31/18:00:03.722,(-18 -33 -15 -32 -1 -2 -7 -14)
1969/12/31/18:00:03.722,(24 41 17 46 13 6 9 18)
1969/12/31/18:00:03.731,(-13 -11 51 11 -7 -5 -8 -12)
1969/12/31/18:00:03.732,(3 3 -42 -92 -21 -3 -3 1)
1969/12/31/18:00:03.746,(4 8 54 85 12 4 -2 5)
1969/12/31/18:00:03.746,(4 6 18 42 21 11 5 5)
1969/12/31/18:00:03.748,(-7 -18 -72 -35 -5 0 -1 2)
1969/12/31/18:00:03.748,(1 2 10 17 -2 -9 -5 -2)
1969/12/31/18:00:03.769,(2 -2 -1 -23 -9 -6 2 5)
1969/12/31/18:00:03.769,(-4 -4 -15 -25 -6 -9 2 5)
1969/12/31/18:00:03.770,(-4 -18 -59 -28 -13 -19 -13 -9)
1969/12/31/18:00:03.770,(-10 -5 -4 -31 0 -10 -5 -10)
1969/12/31/18:00:03.783,(4 8 21 12 0 -3 6 10)
1969/12/31/18:00:03.783,(7 23 25 16 6 -1 -5 -7)
1969/12/31/18:00:03.792,(9 13 22 28 16 6 12 17)
1969/12/31/18:00:03.792,(-9 -33 -82 -40 -21 -13 -10 -12)
1969/12/31/18:00:03.807,(-6 -14 -49 -28 -6 6 -1 0)
1969/12/31/18:00:03.807,(-4 8 106 38 4 2 -2 -5)
1969/12/31/18:00:03.808,(11 35 56 88 31 14 -1 -5)
1969/12/31/18:00:03.809,(2 1 -9 -2 2 6 2 1)
1969/12/31/18:00:03.829,(-2 7 12 11 -6 -2 -6 -7)
1969/12/31/18:00:03.829,(-4 -12 -31 -63 -20 0 -1 -2)
1969/12/31/18:00:03.831,(-8 -17 -34 -31 -12 0 -3 -8)
1969/12/31/18:00:03.831,(8 11 40 62 17 8 5 4)
1969/12/31/18:00:03.843,(0 -4 -29 -30 -6 0 -5 -6)
1969/12/31/18:00:03.843,(-8 -12 -17 -13 -8 -3 -5 -6)
1969/12/31/18:00:03.852,(-2 0 9 -2 -5 -2 -1 0)
1969/12/31/18:00:03.852,(-4 -2 12 4 -1 -3 -4 -2)
1969/12/31/18:00:03.867,(-1 -6 -29 -14 -2 1 -2 -2)
1969/12/31/18:00:03.867,(1 5 13 11 4 1 -2 -3)
1969/12/31/18:00:03.868,(3 8 8 4 -1 0 2 2)
1969/12/31/18:00:03.868,(-4 -10 -6 -5 -4 0 0 0)
1969/12/31/18:00:03.889,(-2 0 -1 6 2 -1 -4 -6)
1969/12/31/18:00:03.889,(8 5 0 9 3 1 4 8)
1969/12/31/18:00:03.891,(15 8 -4 -17 -6 -1 2 4)
1969/12/31/18:00:03.891,(-17 -7 2 4 -2 -1 6 6)
1969/12/31/18:00:03.902,(5 -14 -12 -1 1 -7 -3 -3)
1969/12/31/18:00:03.902,(18 18 3 3 7 -6 -7 -1)
1969/12/31/18:00:03.911,(-22 -19 -20 -15 -4 -2 9 2)
1969/12/31/18:00:03.911,(29 -1 4 1 -4 -15 -13 10)
1969/12/31/18:00:03.926,(12 32 6 7 12 4 12 9)
1969/12/31/18:00:03.926,(-35 -38 -29 -27 -16 -24 -17 -1)
1969/12/31/18:00:03.933,(14 12 13 1 3 1 -7 -1)
1969/12/31/18:00:03.933,(-26 -4 11 13 9 17 7 6)
1969/12/31/18:00:03.949,(1 -5 -6 -9 -4 31 32 8)
1969/12/31/18:00:03.949,(25 21 9 0 -6 -13 -3 4)
1969/12/31/18:00:03.950,(-4 -8 -1 -2 -3 1 -3 4)
1969/12/31/18:00:03.950,(-32 -3 10 8 4 -12 -11 -8)
1969/12/31/18:00:03.962,(37 6 -11 -5 -5 5 22 23)
1969/12/31/18:00:03.962,(0 11 5 6 7 19 -2 -8)
1969/12/31/18:00:03.972,(-24 -35 -16 -12 -21 -61 -8 -22)
1969/12/31/18:00:03.972,(-2 -5 0 -1 2 29 1 -16)
1969/12/31/18:00:03.986,(-10 -1 3 3 3 16 -25 -7)
1969/12/31/18:00:03.986,(-13 0 1 2 -8 -14 16 12)
1969/12/31/18:00:03.988,(59 40 10 1 9 25 -2 9)
1969/12/31/18:00:03.988,(-7 -3 5 8 8 19 1 6)
1969/12/31/18:00:04.009,(-21 -23 -14 -9 -9 -10 -17 -8)
1969/12/31/18:00:04.009,(19 10 9 8 -2 -44 52 -10)
1969/12/31/18:00:04.011,(18 0 -4 -2 -1 23 -35 29)
1969/12/31/18:00:04.011,(7 16 11 6 6 -2 24 38)
1969/12/31/18:00:04.023,(5 0 -3 -3 -10 13 2 -10)
1969/12/31/18:00:04.023,(-46 -20 -9 -3 2 30 -25 -32)
1969/12/31/18:00:04.032,(-11 -3 -4 -4 -17 -23 26 1)
1969/12/31/18:00:04.032,(30 20 5 4 13 8 -8 -8)
1969/12/31/18:00:04.046,(-14 -23 -3 2 6 -21 -6 30)
1969/12/31/18:00:04.046,(-8 -17 -17 -11 -8 39 24 -29)
1969/12/31/18:00:04.053,(-12 6 11 9 7 -52 -61 -35)
1969/12/31/18:00:04.053,(5 1 -10 -7 -20 -64 -23 7)
1969/12/31/18:00:04.069,(0 8 0 -5 -8 10 -17 -26)
1969/12/31/18:00:04.069,(12 -13 -9 -5 8 70 25 44)
1969/12/31/18:00:04.070,(-22 -3 3 3 10 13 15 0)
1969/12/31/18:00:04.070,(-20 -13 -10 -11 -11 -5 -3 -50)
1969/12/31/18:00:04.092,(30 14 9 6 3 -17 -8 23)
1969/12/31/18:00:04.092,(43 57 22 8 2 -19 -13 4)
1969/12/31/18:00:04.093,(23 -20 -10 -4 -19 -47 2 38)
1969/12/31/18:00:04.093,(-39 -30 -10 -7 -1 -14 -20 -37)
1969/12/31/18:00:04.106,(-7 3 1 0 2 44 12 -5)
1969/12/31/18:00:04.106,(-21 -18 -6 -7 -14 -67 -59 -8)
1969/12/31/18:00:04.113,(59 41 8 6 11 21 55 78)
1969/12/31/18:00:04.113,(19 -2 -6 -15 -26 -26 -36 -11)
1969/12/31/18:00:04.129,(0 3 1 0 2 -28 1 34)
1969/12/31/18:00:04.129,(-18 -11 -14 -9 3 71 -11 -22)
1969/12/31/18:00:04.130,(-46 -30 -10 -5 2 -8 -2 -29)
1969/12/31/18:00:04.130,(30 26 10 6 6 37 74 47)
1969/12/31/18:00:04.151,(28 -1 -5 1 -1 -16 24 63)
1969/12/31/18:00:04.151,(-50 -23 -2 0 -2 -36 -45 -67)
1969/12/31/18:00:04.153,(-26 -6 -2 -8 -6 52 9 -24)
1969/12/31/18:00:04.153,(8 1 -4 -4 -5 -15 -20 5)
1969/12/31/18:00:04.166,(-32 -8 2 2 4 0 -4 -45)
1969/12/31/18:00:04.166,(8 6 -1 4 3 -24 -5 21)
1969/12/31/18:00:04.173,(1 -6 -7 -7 1 28 27 1)
1969/12/31/18:00:04.173,(10 3 21 17 10 13 -22 30)
1969/12/31/18:00:04.189,(-3 5 -5 -5 1 1 -3 -35)
1969/12/31/18:00:04.189,(-34 -15 -1 0 -1 30 17 -12)
1969/12/31/18:00:04.190,(-46 -14 -12 -11 -7 -14 -27 -115)
1969/12/31/18:00:04.190,(6 -16 -15 -9 -9 -19 34 -28)
1969/12/31/18:00:04.211,(-17 -3 3 -1 -8 -31 -59 -42)
1969/12/31/18:00:04.211,(-5 0 0 2 4 -2 -5 -5)
1969/12/31/18:00:04.213,(24 11 3 0 2 21 39 54)
1969/12/31/18:00:04.213,(-7 0 1 6 6 21 11 -4)
1969/12/31/18:00:04.225,(-6 -8 3 5 10 55 15 1)
1969/12/31/18:00:04.225,(9 -4 -6 -6 -12 -37 7 18)
1969/12/31/18:00:04.234,(67 26 11 7 5 5 -4 17)
1969/12/31/18:00:04.234,(-39 -35 -7 -5 -5 -5 10 11)
1969/12/31/18:00:04.249,(-12 18 -4 -5 0 0 -29 -43)
1969/12/31/18:00:04.249,(25 -2 4 4 14 49 8 22)
1969/12/31/18:00:04.251,(-31 2 1 2 -5 -29 -22 -35)
1969/12/31/18:00:04.251,(12 -2 -11 -6 -5 3 -5 8)
1969/12/31/18:00:04.271,(-26 2 9 7 -1 -22 15 7)
1969/12/31/18:00:04.271,(16 7 1 3 5 -5 6 38)
1969/12/31/18:00:04.273,(-24 -1 1 1 0 4 -28 -49)
1969/12/31/18:00:04.273,(87 22 6 2 6 10 22 58)
1969/12/31/18:00:04.286,(-38 -28 -13 -7 -4 10 -15 25)
1969/12/31/18:00:04.286,(0 -19 -9 -7 -13 -35 6 -3)
1969/12/31/18:00:04.292,(-21 3 5 0 2 15 17 25)
1969/12/31/18:00:04.293,(4 5 2 2 2 -3 -19 0)
1969/12/31/18:00:04.309,(32 11 3 6 8 -6 22 33)
1969/12/31/18:00:04.309,(-15 1 -4 -5 -6 1 11 -60)
1969/12/31/18:00:04.310,(-20 -4 -4 -5 -8 -15 -26 -32)
1969/12/31/18:00:04.310,(-20 1 -5 -2 0 -5 14 -26)
1969/12/31/18:00:04.332,(25 -2 -3 -5 -2 -11 2 -4)
1969/12/31/18:00:04.332,(22 9 2 -1 -11 -34 -21 23)
1969/12/31/18:00:04.333,(9 5 4 5 14 32 17 37)
1969/12/31/18:00:04.333,(-41 -16 -8 -7 -7 -9 -51 -82)
1969/12/31/18:00:04.345,(10 14 8 4 -1 -12 14 3)
1969/12/31/18:00:04.345,(-9 1 0 -1 -2 -19 -8 12)
1969/12/31/18:00:04.360,(-5 -15 -12 -7 0 46 -23 -35)
1969/12/31/18:00:04.360,(-4 12 6 5 8 49 38 70)
1969/12/31/18:00:04.369,(-24 -13 -8 -7 -8 -40 -32 -78)
1969/12/31/18:00:04.369,(25 10 7 9 9 -2 -12 5)
1969/12/31/18:00:04.370,(-3 -2 -5 -8 0 28 27 3)
1969/12/31/18:00:04.370,(-11 5 2 12 46 23 -8 -17)
1969/12/31/18:00:04.392,(20 5 0 -4 -51 -51 -7 -7)
1969/12/31/18:00:04.392,(-24 -9 -9 -20 -34 19 -3 -25)
1969/12/31/18:00:04.393,(-28 -1 7 3 0 -35 -4 -19)
1969/12/31/18:00:04.393,(2 -5 -6 -7 -13 -67 0 52)
1969/12/31/18:00:04.405,(-30 -37 -9 10 72 81 27 -39)
1969/12/31/18:00:04.405,(21 21 6 6 10 32 25 41)
1969/12/31/18:00:04.414,(-24 -13 -11 -23 -86 -97 -40 -20)
1969/12/31/18:00:04.414,(45 25 17 15 29 64 11 11)
1969/12/31/18:00:04.429,(-23 -5 -4 8 39 7 -21 -1)
1969/12/31/18:00:04.429,(26 23 3 3 -30 -9 16 18)
1969/12/31/18:00:04.430,(4 -25 -3 -3 -43 -42 4 44)
1969/12/31/18:00:04.430,(-44 -24 -18 -23 -43 -41 -18 -30)
1969/12/31/18:00:04.452,(22 20 10 2 9 33 15 -17)
1969/12/31/18:00:04.452,(-2 -16 2 7 42 29 0 -3)
1969/12/31/18:00:04.453,(10 5 4 21 66 41 31 26)
1969/12/31/18:00:04.453,(15 16 3 3 -11 -30 -16 -18)
1969/12/31/18:00:04.465,(-14 -33 -22 -21 -6 12 6 20)
1969/12/31/18:00:04.465,(-20 9 0 14 114 92 5 -17)
1969/12/31/18:00:04.474,(9 22 7 -10 -83 -67 -5 -2)
1969/12/31/18:00:04.474,(11 -4 -19 -34 -60 -62 -35 -16)
1969/12/31/18:00:04.489,(-13 -16 -4 -18 -6 -19 -13 -16)
1969/12/31/18:00:04.489,(3 6 17 1 -29 -23 6 8)
1969/12/31/18:00:04.491,(26 12 12 21 71 54 29 57)
1969/12/31/18:00:04.491,(-32 9 7 34 66 60 3 -34)
1969/12/31/18:00:04.512,(26 31 -5 -7 -46 -22 42 102)
1969/12/31/18:00:04.512,(-21 -16 21 13 -4 -27 -28 -42)
1969/12/31/18:00:04.513,(18 -10 -24 -1 63 61 2 -23)
1969/12/31/18:00:04.513,(65 17 -20 -31 -112 -90 -7 34)
1969/12/31/18:00:04.525,(-41 -29 22 28 27 41 9 3)
1969/12/31/18:00:04.525,(49 28 -53 -24 -1 -31 5 -1)
1969/12/31/18:00:04.534,(19 -36 19 13 66 39 6 86)
1969/12/31/18:00:04.534,(-53 -55 -26 -13 -37 -1 -2 -24)
1969/12/31/18:00:04.549,(-68 72 92 26 -31 -33 -17 -106)
1969/12/31/18:00:04.549,(-27 18 47 21 -17 2 -25 -31)
1969/12/31/18:00:04.550,(0 -74 -87 -54 -20 -10 -15 -37)
1969/12/31/18:00:04.551,(-9 -53 -48 -2 87 83 38 59)
1969/12/31/18:00:04.571,(71 12 -64 -28 4 10 -8 -3)
1969/12/31/18:00:04.571,(-24 -55 3 -28 -95 -103 -15 -25)
1969/12/31/18:00:04.573,(-60 19 91 39 -24 -32 -45 -78)
1969/12/31/18:00:04.573,(-12 19 11 10 2 24 -2 -26)
1969/12/31/18:00:04.585,(51 -50 -70 -8 94 73 23 3)
1969/12/31/18:00:04.585,(37 -21 -76 -25 -19 2 42 78)
1969/12/31/18:00:04.594,(-55 16 37 -35 -96 -89 -44 -28)
1969/12/31/18:00:04.594,(56 24 13 17 36 18 9 16)
1969/12/31/18:00:04.609,(51 113 127 52 11 -11 4 59)
1969/12/31/18:00:04.609,(15 -44 -96 -34 65 41 2 5)
1969/12/31/18:00:04.611,(87 15 -13 11 -38 -1 24 68)
1969/12/31/18:00:04.611,(-30 27 -9 -5 1 -6 -9 -35)
1969/12/31/18:00:04.631,(-19 -45 16 28 5 -9 -7 -45)
1969/12/31/18:00:04.631,(69 79 26 42 60 41 38 96)
1969/12/31/18:00:04.638,(37 91 78 32 -16 6 13 52)
1969/12/31/18:00:04.638,(-65 -21 36 1 34 -5 3 -38)
1969/12/31/18:00:04.645,(-4 -113 -108 -68 -53 -9 -8 41)
1969/12/31/18:00:04.645,(-20 13 57 7 -31 -37 -5 13)
1969/12/31/18:00:04.654,(-110 -29 -80 -52 -74 -75 -91 -128)
1969/12/31/18:00:04.654,(15 -10 -23 -3 21 20 27 24)
1969/12/31/18:00:04.669,(4 -20 -24 -8 0 -9 -17 60)
1969/12/31/18:00:04.669,(-19 -22 -36 -10 20 8 -34 -21)
1969/12/31/18:00:04.670,(46 39 23 12 63 40 32 44)
1969/12/31/18:00:04.670,(-73 -3 53 28 -8 -3 -13 -109)
1969/12/31/18:00:04.691,(-29 -22 -45 -25 -14 -16 1 -23)
1969/12/31/18:00:04.691,(15 47 93 31 5 4 3 22)
1969/12/31/18:00:04.693,(75 19 -17 2 18 24 30 24)
1969/12/31/18:00:04.693,(56 60 5 -9 5 18 13 75)
1969/12/31/18:00:04.705,(19 28 76 55 60 9 -14 -5)
1969/12/31/18:00:04.705,(-15 -15 -12 -5 -64 -29 -1 -23)
1969/12/31/18:00:04.714,(-26 -29 -36 -20 -10 12 13 0)
1969/12/31/18:00:04.714,(-45 -41 17 13 28 -4 -56 -66)
1969/12/31/18:00:04.729,(-9 -26 -55 -36 -30 -1 -9 -38)
1969/12/31/18:00:04.729,(-17 -28 -37 -11 -7 -31 -3 -32)
1969/12/31/18:00:04.730,(-41 -9 47 12 25 35 -3 -23)
1969/12/31/18:00:04.731,(-25 -73 -60 -28 -24 -18 12 14)
1969/12/31/18:00:04.752,(72 59 16 4 3 6 25 94)
1969/12/31/18:00:04.752,(-55 79 88 23 17 36 14 -40)
1969/12/31/18:00:04.753,(57 5 -48 -2 48 20 12 8)
1969/12/31/18:00:04.753,(11 -4 22 -8 -112 -68 -41 -5)
1969/12/31/18:00:04.765,(25 -66 -36 -4 2 15 21 37)
1969/12/31/18:00:04.765,(24 -23 -2 11 27 -19 -21 2)
1969/12/31/18:00:04.774,(-39 90 35 9 13 12 24 -7)
1969/12/31/18:00:04.774,(-41 7 26 13 41 16 -19 -48)
1969/12/31/18:00:04.790,(-25 -51 -38 -41 -121 -55 3 -9)
1969/12/31/18:00:04.790,(-24 -44 -47 -33 4 -12 -60 -83)
1969/12/31/18:00:04.812,(0 -34 -25 8 68 59 25 -1)
1969/12/31/18:00:04.812,(63 35 2 -5 -9 1 38 74)
1969/12/31/18:00:04.813,(-30 14 15 12 2 -24 -32 -53)
1969/12/31/18:00:04.813,(33 -57 -84 -23 -20 -5 27 40)
1969/12/31/18:00:04.815,(-100 -37 21 20 57 27 -18 -40)
1969/12/31/18:00:04.815,(15 58 47 1 -77 -54 -17 -12)
1969/12/31/18:00:04.825,(16 106 52 -4 -33 -31 -16 -7)
1969/12/31/18:00:04.825,(31 -68 -78 -22 14 13 27 69)
1969/12/31/18:00:04.834,(37 59 60 27 26 -4 -4 52)
1969/12/31/18:00:04.834,(-48 43 39 35 40 47 23 -4)
1969/12/31/18:00:04.849,(-40 -52 0 4 15 -13 4 -6)
1969/12/31/18:00:04.849,(-7 20 16 -8 -18 3 -28 -10)
1969/12/31/18:00:04.851,(36 -20 -33 7 60 25 33 8)
1969/12/31/18:00:04.851,(-13 -7 -21 -24 -44 3 -9 -49)
1969/12/31/18:00:04.871,(-77 1 11 -25 9 -43 6 -25)
1969/12/31/18:00:04.871,(-31 -30 -6 13 -4 -13 -8 -21)
1969/12/31/18:00:04.873,(38 -64 -71 -13 42 28 -23 -2)
1969/12/31/18:00:04.873,(-51 21 91 34 11 -13 5 -4)
1969/12/31/18:00:04.885,(15 8 -57 -3 44 73 41 24)
1969/12/31/18:00:04.885,(-12 16 -11 -13 -39 -1 20 -33)
1969/12/31/18:00:04.900,(-14 90 108 16 -100 -97 -49 -35)
1969/12/31/18:00:04.900,(51 -103 -128 -8 127 49 -6 33)
1969/12/31/18:00:04.909,(26 19 -31 -50 -50 -64 -38 -37)
1969/12/31/18:00:04.909,(-91 24 97 48 -36 -38 -23 -62)
1969/12/31/18:00:04.915,(44 -35 -71 -3 -2 24 24 33)
1969/12/31/18:00:04.915,(118 49 19 -1 -31 -3 36 74)
1969/12/31/18:00:04.931,(-8 -50 -18 -7 -3 16 -13 26)
1969/12/31/18:00:04.931,(1 -79 -72 -17 101 84 16 3)
1969/12/31/18:00:04.933,(-69 -3 21 12 -33 -17 11 -6)
1969/12/31/18:00:04.933,(-23 -50 -30 -10 -9 -41 -18 -33)
1969/12/31/18:00:04.945,(1 35 30 -5 -19 6 34 25)
1969/12/31/18:00:04.945,(48 41 -10 -5 -2 14 -7 22)
1969/12/31/18:00:04.954,(14 -43 4 6 -29 -22 -2 18)
1969/12/31/18:00:04.954,(22 70 51 2 6 37 12 21)
1969/12/31/18:00:04.968,(-44 -71 -12 12 24 19 -31 -52)
1969/12/31/18:00:04.968,(14 74 43 6 -73 -90 -25 24)
1969/12/31/18:00:04.975,(-13 -22 -7 -36 19 21 -10 -72)
1969/12/31/18:00:04.975,(-26 -3 -71 -10 6 -5 -8 -33)
1969/12/31/18:00:04.992,(59 7 33 39 15 10 16 -13)
1969/12/31/18:00:04.992,(-38 -72 -14 -15 26 36 22 -10)
1969/12/31/18:00:04.993,(-26 -23 -23 -38 -66 -70 -60 -51)
1969/12/31/18:00:04.993,(19 99 62 23 4 1 -19 5)
1969/12/31/18:00:05.005,(-39 19 -3 0 -69 -41 -29 -49)
1969/12/31/18:00:05.005,(56 11 -5 13 94 46 23 42)
1969/12/31/18:00:05.020,(-12 -77 -49 -33 -40 -10 33 37)
1969/12/31/18:00:05.020,(-18 -89 -68 -33 -11 1 -24 23)
1969/12/31/18:00:05.028,(0 -4 -24 -12 -22 -5 8 36)
1969/12/31/18:00:05.028,(66 56 38 36 24 14 14 29)
1969/12/31/18:00:05.035,(2 22 7 3 17 34 53 50)
1969/12/31/18:00:05.035,(4 65 78 22 -28 -16 1 9)
1969/12/31/18:00:05.051,(20 7 8 3 7 -20 -38 -75)
1969/12/31/18:00:05.051,(-19 -86 -70 -45 -44 0 29 39)
1969/12/31/18:00:05.053,(32 127 92 59 15 -1 4 17)
1969/12/31/18:00:05.053,(22 -117 -94 -18 41 30 17 -6)
1969/12/31/18:00:05.074,(-23 -2 9 6 6 13 9 23)
1969/12/31/18:00:05.074,(27 23 9 18 10 0 6 20)
1969/12/31/18:00:05.075,(-19 -112 -128 -48 30 49 7 -62)
1969/12/31/18:00:05.075,(-58 28 104 1 -91 -70 -57 -37)
1969/12/31/18:00:05.088,(42 38 -45 -15 3 -19 -1 -2)
1969/12/31/18:00:05.088,(-2 62 89 36 13 36 25 15)
1969/12/31/18:00:05.095,(32 0 7 33 61 20 -21 21)
1969/12/31/18:00:05.095,(-29 -49 -46 -63 -26 -6 24 -17)
1969/12/31/18:00:05.112,(-3 -86 -71 8 60 54 9 25)
1969/12/31/18:00:05.112,(-37 2 7 -5 -18 -4 17 13)
1969/12/31/18:00:05.113,(-9 42 -14 -9 -16 -30 -12 3)
1969/12/31/18:00:05.113,(40 -29 -85 -16 -12 3 11 40)
1969/12/31/18:00:05.134,(11 127 127 57 24 20 8 7)
1969/12/31/18:00:05.134,(-2 39 48 27 10 6 1 -18)
1969/12/31/18:00:05.136,(1 -91 -34 -7 -47 -26 -9 51)
1969/12/31/18:00:05.136,(-10 15 22 14 43 1 -15 -23)
1969/12/31/18:00:05.148,(-15 -120 -128 -53 -1 0 -11 4)
1969/12/31/18:00:05.148,(-26 16 8 -32 -54 -28 -3 -39)
1969/12/31/18:00:05.155,(-22 -7 -1 -11 -30 -27 -14 3)
1969/12/31/18:00:05.155,(45 -20 -30 34 86 51 8 3)
1969/12/31/18:00:05.172,(95 70 45 25 -7 14 45 75)
1969/12/31/18:00:05.172,(-41 20 56 -15 -101 -98 -77 -90)
1969/12/31/18:00:05.178,(-41 -69 -75 -31 2 29 14 -8)
1969/12/31/18:00:05.178,(-45 -15 -17 -7 64 15 27 -20)
1969/12/31/18:00:05.194,(5 13 -37 -3 10 10 -4 -5)
1969/12/31/18:00:05.194,(36 -20 -27 9 53 41 6 42)
1969/12/31/18:00:05.196,(-22 95 98 17 -31 -41 -23 -91)
1969/12/31/18:00:05.196,(74 -10 -35 13 -12 7 30 80)
1969/12/31/18:00:05.208,(-121 22 76 6 -19 -4 -10 -63)
1969/12/31/18:00:05.208,(38 77 61 4 -18 -38 -49 -40)
1969/12/31/18:00:05.215,(-48 -50 -16 0 -11 -3 -3 10)
1969/12/31/18:00:05.215,(8 -3 -12 -9 -23 5 -23 -46)
1969/12/31/18:00:05.231,(-12 -63 -39 -15 -64 -29 3 13)
1969/12/31/18:00:05.231,(19 -83 -84 -15 96 68 36 43)
1969/12/31/18:00:05.232,(21 54 31 12 18 -1 22 14)
1969/12/31/18:00:05.232,(-39 52 22 -11 -36 -57 -86 -71)
1969/12/31/18:00:05.262,(-42 -69 14 17 27 5 7 -17)
1969/12/31/18:00:05.262,(-26 25 -10 14 15 1 -4 21)
1969/12/31/18:00:05.262,(78 90 81 35 79 97 59 31)
1969/12/31/18:00:05.262,(-9 -10 -23 -54 -118 -104 -53 -14)
1969/12/31/18:00:05.268,(-6 87 82 24 13 -1 -20 -8)
1969/12/31/18:00:05.268,(12 -124 -117 -47 -5 8 10 22)
1969/12/31/18:00:05.275,(47 80 82 58 35 18 8 30)
1969/12/31/18:00:05.275,(19 -43 11 29 36 43 27 25)
1969/12/31/18:00:05.291,(-31 6 17 6 5 -6 -3 -11)
1969/12/31/18:00:05.291,(-11 -93 -58 -24 -19 -2 10 4)
1969/12/31/18:00:05.291,(8 -32 -74 -40 -64 -33 -18 -8)
1969/12/31/18:00:05.292,(13 30 7 -18 4 5 30 6)
1969/12/31/18:00:05.322,(76 47 -9 38 103 52 44 97)
1969/12/31/18:00:05.322,(-34 14 88 44 4 5 -14 4)
1969/12/31/18:00:05.322,(-69 -128 -128 -77 -31 -34 -41 -47)
1969/12/31/18:00:05.322,(42 60 18 20 -14 -19 15 17)
1969/12/31/18:00:05.328,(10 88 87 46 -7 -6 1 -7)
1969/12/31/18:00:05.328,(60 115 56 25 34 29 20 29)
1969/12/31/18:00:05.335,(-43 -59 -39 -39 -83 -58 -18 -28)
1969/12/31/18:00:05.335,(-16 -69 -52 -13 35 44 14 52)
1969/12/31/18:00:05.351,(-36 -8 1 -22 -20 -34 -35 -72)
1969/12/31/18:00:05.351,(44 63 -10 12 24 27 18 34)
1969/12/31/18:00:05.352,(8 77 127 64 54 46 -32 45)
1969/12/31/18:00:05.352,(21 -56 -51 -23 -57 -50 0 24)
1969/12/31/18:00:05.373,(-11 -29 -40 -49 -20 5 -5 -2)
1969/12/31/18:00:05.373,(-10 -49 -47 -23 -17 -18 -25 -54)
1969/12/31/18:00:05.374,(27 -51 -23 31 51 27 43 62)
1969/12/31/18:00:05.374,(-37 46 41 17 -19 21 10 -21)
1969/12/31/18:00:05.387,(5 -25 -16 -1 34 13 2 21)
1969/12/31/18:00:05.387,(5 7 20 -5 -80 -38 10 14)
1969/12/31/18:00:05.395,(8 -32 -77 -49 -6 -26 -20 -24)
1969/12/31/18:00:05.395,(-53 42 67 34 38 32 -4 -40)
1969/12/31/18:00:05.411,(-8 -66 -85 -40 -20 -20 5 -12)
1969/12/31/18:00:05.411,(8 77 74 41 4 13 3 20)
1969/12/31/18:00:05.412,(37 35 41 12 8 22 24 -36)
1969/12/31/18:00:05.412,(-38 -37 -7 -7 1 -5 -6 -19)
1969/12/31/18:00:05.433,(13 6 5 -14 -18 -38 -36 -10)
1969/12/31/18:00:05.433,(-36 -43 -55 -18 -19 -34 -22 -37)
1969/12/31/18:00:05.434,(22 54 39 18 34 9 -13 23)
1969/12/31/18:00:05.434,(-22 -54 -44 -22 94 54 49 17)
1969/12/31/18:00:05.448,(20 -22 -21 3 -10 21 19 3)
1969/12/31/18:00:05.448,(-12 -19 -14 -9 -20 -24 -25 -37)
1969/12/31/18:00:05.455,(19 19 -6 4 -21 -24 -2 -1)
1969/12/31/18:00:05.455,(19 8 -2 -10 -1 -14 -8 -8)
1969/12/31/18:00:05.472,(22 0 5 11 18 1 -2 24)
1969/12/31/18:00:05.472,(-55 -34 -38 -8 -2 -3 -7 -20)
1969/12/31/18:00:05.473,(-56 -72 -17 -18 -21 -9 0 -19)
1969/12/31/18:00:05.473,(98 110 95 57 36 28 21 59)
1969/12/31/18:00:05.493,(-6 39 72 22 -37 -11 14 4)
1969/12/31/18:00:05.493,(3 -47 -34 -41 -32 -11 -23 -17)
1969/12/31/18:00:05.494,(-113 -98 -86 -34 10 -16 -30 -56)
1969/12/31/18:00:05.494,(74 6 -23 -5 -30 -34 -4 8)
1969/12/31/18:00:05.508,(16 57 54 19 4 5 -3 0)
1969/12/31/18:00:05.508,(13 6 6 -15 -38 -12 7 4)
1969/12/31/18:00:05.515,(32 7 -12 10 53 18 17 46)
1969/12/31/18:00:05.515,(-42 -9 2 6 15 4 -20 -23)
1969/12/31/18:00:05.531,(-25 -44 -52 -34 25 13 6 -22)
1969/12/31/18:00:05.531,(-6 -7 -4 -10 9 20 -3 0)
1969/12/31/18:00:05.532,(-6 38 33 51 2 -24 -10 -9)
1969/12/31/18:00:05.532,(6 1 -10 -7 -35 15 22 3)
1969/12/31/18:00:05.553,(19 -13 -14 6 47 4 0 18)
1969/12/31/18:00:05.553,(6 9 9 -6 0 9 7 7)
1969/12/31/18:00:05.554,(41 26 8 -13 2 16 21 49)
1969/12/31/18:00:05.554,(34 -5 -4 -15 -7 -10 -5 26)
1969/12/31/18:00:05.576,(-85 -34 -17 2 -9 -21 -39 -80)
1969/12/31/18:00:05.577,(-30 -24 -5 -4 5 10 -28 -31)
1969/12/31/18:00:05.577,(26 31 15 4 -11 -7 13 39)
1969/12/31/18:00:05.577,(6 -22 -22 -12 -17 -32 -37 -40)
1969/12/31/18:00:05.599,(48 24 3 -10 -22 5 -4 54)
1969/12/31/18:00:05.599,(45 33 15 19 27 0 23 18)
1969/12/31/18:00:05.600,(-53 -22 -8 -6 -20 -18 -19 -49)
1969/12/31/18:00:05.600,(-10 -21 -1 1 1 16 9 8)
1969/12/31/18:00:05.613,(-50 6 5 4 -11 -5 -2 -44)
1969/12/31/18:00:05.613,(39 27 7 10 21 3 6 13)
1969/12/31/18:00:05.614,(-40 -23 -27 -27 -29 -6 -22 -42)
1969/12/31/18:00:05.614,(12 -13 9 6 -3 2 18 28)
1969/12/31/18:00:05.628,(-31 -42 -32 -18 -19 -11 -18 -15)
1969/12/31/18:00:05.628,(-58 -17 -6 -2 12 -2 4 -14)
1969/12/31/18:00:05.636,(46 51 36 15 2 14 26 37)
1969/12/31/18:00:05.636,(-63 -35 -25 -9 -5 18 -14 -55)
1969/12/31/18:00:05.651,(105 40 1 -3 -12 -33 14 37)
1969/12/31/18:00:05.651,(-116 -47 -8 -6 -3 -12 -19 -55)
1969/12/31/18:00:05.651,(4 -11 -18 -15 -19 -12 -10 -12)
1969/12/31/18:00:05.651,(13 29 27 22 15 12 17 43)
1969/12/31/18:00:05.673,(-54 -13 5 7 2 8 -24 -44)
1969/12/31/18:00:05.673,(94 55 21 14 10 9 31 48)
1969/12/31/18:00:05.674,(-42 -32 -29 -20 -18 -21 -28 -44)
1969/12/31/18:00:05.674,(14 8 6 7 7 10 5 12)
1969/12/31/18:00:05.688,(6 -8 -8 -14 -11 7 7 13)
1969/12/31/18:00:05.688,(6 3 -5 -5 1 -2 2 13)
1969/12/31/18:00:05.696,(44 30 18 19 7 8 -2 6)
1969/12/31/18:00:05.696,(-20 -4 1 7 1 -3 0 -9)
1969/12/31/18:00:05.711,(15 6 2 3 0 6 4 16)
1969/12/31/18:00:05.711,(-24 -23 -17 -19 -5 -7 -10 -14)
1969/12/31/18:00:05.712,(30 11 33 4 -3 6 13 39)
1969/12/31/18:00:05.712,(-17 2 -2 30 0 -10 -1 30)
1969/12/31/18:00:05.733,(24 13 17 13 11 7 8 1)
1969/12/31/18:00:05.733,(-28 -23 -29 -11 -1 -3 -7 -10)
1969/12/31/18:00:05.734,(24 5 -10 -15 -4 0 4 7)
1969/12/31/18:00:05.734,(-41 -25 -10 -25 -10 -8 -5 -11)
1969/12/31/18:00:05.749,(9 2 1 4 -4 -1 -1 5)
1969/12/31/18:00:05.749,(-31 -24 -19 -3 -2 -2 -2 -4)
1969/12/31/18:00:05.756,(33 34 28 4 0 -4 0 -2)
1969/12/31/18:00:05.756,(-44 -17 -6 -11 -4 -8 -10 -35)
1969/12/31/18:00:05.771,(23 9 -2 0 -2 4 5 19)
1969/12/31/18:00:05.771,(2 7 30 12 1 -3 -4 -16)
1969/12/31/18:00:05.771,(6 -16 -10 11 -2 -2 3 7)
1969/12/31/18:00:05.772,(-5 5 -2 -5 0 2 -2 -15)
1969/12/31/18:00:05.793,(-11 -26 -34 -28 -10 -7 -3 6)
1969/12/31/18:00:05.793,(-1 -3 -2 0 3 8 6 9)
1969/12/31/18:00:05.794,(-21 31 12 5 -1 -6 -10 -21)
1969/12/31/18:00:05.794,(6 -2 -19 -19 -12 -7 -12 -11)
1969/12/31/18:00:05.809,(-7 31 46 27 5 2 6 -2)
1969/12/31/18:00:05.809,(6 -28 -9 -3 2 0 2 0)
1969/12/31/18:00:05.816,(-3 -8 -5 -2 3 7 10 9)
1969/12/31/18:00:05.816,(-5 1 -8 -1 0 -6 2 -7)
1969/12/31/18:00:05.831,(25 11 -10 -13 -8 -8 -18 4)
1969/12/31/18:00:05.831,(15 41 31 20 8 -1 -7 1)
1969/12/31/18:00:05.832,(-7 -19 -11 -1 0 9 22 6)
1969/12/31/18:00:05.832,(-9 -45 -31 -17 -9 -6 -18 -21)
1969/12/31/18:00:05.854,(-3 47 63 20 6 4 13 14)
1969/12/31/18:00:05.854,(18 45 43 21 11 7 -5 -5)
1969/12/31/18:00:05.855,(6 -19 -13 4 -6 -8 11 1)
1969/12/31/18:00:05.855,(-4 26 28 16 9 8 -20 -6)
1969/12/31/18:00:05.877,(-8 -37 -30 -12 -8 -1 3 -2)
1969/12/31/18:00:05.877,(-5 -26 -40 -20 -10 -6 -1 -1)
1969/12/31/18:00:05.877,(-11 -37 -22 -19 -3 4 -2 -1)
1969/12/31/18:00:05.877,(11 24 -7 -14 -4 -1 10 10)
1969/12/31/18:00:05.891,(-16 -24 -10 -1 1 -1 -2 -8)
1969/12/31/18:00:05.891,(9 30 40 23 1 -5 0 -1)
1969/12/31/18:00:05.892,(2 14 0 8 9 6 -14 -8)
1969/12/31/18:00:05.892,(0 -32 -1 9 3 2 24 14)
1969/12/31/18:00:05.913,(2 9 -19 -14 -2 0 -9 6)
1969/12/31/18:00:05.913,(-16 -31 -29 -8 1 6 -3 -14)
1969/12/31/18:00:05.914,(-5 13 8 -7 -6 -4 2 -1)
1969/12/31/18:00:05.914,(5 17 7 -1 -4 -7 -18 -7)
1969/12/31/18:00:05.928,(-8 -21 -5 0 4 7 17 7)
1969/12/31/18:00:05.928,(6 -19 -36 -19 -8 -2 4 4)
1969/12/31/18:00:05.936,(3 29 29 16 2 -6 -24 -13)
1969/12/31/18:00:05.936,(-17 0 11 1 -1 0 10 -3)
1969/12/31/18:00:05.951,(-3 -13 -5 2 -4 3 2 -4)
1969/12/31/18:00:05.951,(-2 -24 -24 -16 -5 -2 0 5)
1969/12/31/18:00:05.951,(9 28 11 7 2 3 -2 -5)
1969/12/31/18:00:05.952,(3 7 10 11 0 -2 1 4)
1969/12/31/18:00:05.973,(-13 -24 -26 -16 -6 -4 -7 -5)
1969/12/31/18:00:05.973,(0 8 -6 0 -2 -3 -1 0)
1969/12/31/18:00:05.974,(-10 -14 -4 -16 -8 -3 7 1)
1969/12/31/18:00:05.974,(-6 10 -4 3 4 -3 -18 -7)
1969/12/31/18:00:05.997,(14 -18 -13 2 4 2 -3 2)
1969/12/31/18:00:05.997,(-2 -11 -3 7 1 1 5 0)
1969/12/31/18:00:05.997,(-12 10 22 1 -1 -4 -6 -5)
1969/12/31/18:00:05.997,(7 0 -5 -4 -2 2 6 5)
1969/12/31/18:00:06.011,(-11 -14 -4 -3 -4 -5 -6 -9)
1969/12/31/18:00:06.011,(3 18 -27 -24 -8 -6 1 3)
1969/12/31/18:00:06.011,(4 -12 22 14 4 0 3 5)
1969/12/31/18:00:06.011,(-13 -36 -8 -9 -5 0 4 1)
1969/12/31/18:00:06.033,(13 61 65 36 13 0 0 -3)
1969/12/31/18:00:06.033,(-17 -41 -28 -18 -10 -7 -16 -5)
1969/12/31/18:00:06.034,(-2 0 -38 -20 -8 -4 -4 -2)
1969/12/31/18:00:06.034,(12 22 -33 -15 -7 -3 5 10)
1969/12/31/18:00:06.057,(16 2 43 35 10 0 1 3)
1969/12/31/18:00:06.057,(-10 -9 25 12 5 0 3 -2)
1969/12/31/18:00:06.058,(8 1 3 4 2 -2 0 5)
1969/12/31/18:00:06.058,(-10 -3 10 0 1 -2 3 -1)
1969/12/31/18:00:06.071,(4 26 -7 -19 -6 -8 -1 2)
1969/12/31/18:00:06.071,(-1 4 6 -1 2 -1 0 -1)
1969/12/31/18:00:06.071,(4 -7 -18 -9 -1 -4 -5 2)
1969/12/31/18:00:06.072,(10 10 -7 -5 1 0 -1 -4)
1969/12/31/18:00:06.093,(-20 -35 -26 -7 -2 1 0 -5)
1969/12/31/18:00:06.093,(7 21 33 13 5 4 -12 -10)
1969/12/31/18:00:06.094,(1 22 16 9 1 0 -6 -7)
1969/12/31/18:00:06.094,(2 3 7 4 0 3 0 -5)
1969/12/31/18:00:06.117,(-6 -17 -18 -14 -5 2 -1 -3)
1969/12/31/18:00:06.117,(4 22 5 2 -3 1 -4 -6)
1969/12/31/18:00:06.117,(-9 -18 -16 -3 -3 4 2 -4)
1969/12/31/18:00:06.117,(7 0 14 12 3 1 -18 -18)
