time,.data
1969/12/31/18:00:05.513,(-2 -4 -9 -9 -5 -2 1 -2)
1969/12/31/18:00:05.513,(-1 -2 3 0 -3 -1 -2 -1)
1969/12/31/18:00:05.513,(-3 -2 -4 0 -2 -1 0 0)
1969/12/31/18:00:05.513,(0 1 -1 -4 -1 -1 -4 -1)
1969/12/31/18:00:05.515,(-1 0 -8 2 -2 -9 -1 -1)
1969/12/31/18:00:05.515,(-3 -2 1 -7 0 9 6 0)
1969/12/31/18:00:05.519,(0 1 2 -1 -1 -3 -1 0)
1969/12/31/18:00:05.519,(-2 -4 -4 -4 -2 7 -9 -4)
1969/12/31/18:00:05.521,(2 4 8 7 1 -5 -5 0)
1969/12/31/18:00:05.521,(0 0 1 0 0 3 4 1)
1969/12/31/18:00:05.554,(-1 -1 -3 -1 0 -1 -1 0)
1969/12/31/18:00:05.554,(-2 -5 -9 -6 -1 -2 4 -1)
1969/12/31/18:00:05.555,(0 -3 7 5 0 2 -2 -3)
1969/12/31/18:00:05.555,(2 3 -4 -2 3 -1 -3 0)
1969/12/31/18:00:05.562,(4 8 37 28 3 -1 -2 1)
1969/12/31/18:00:05.562,(0 -3 -22 -5 -1 -1 -1 0)
1969/12/31/18:00:05.563,(-2 -2 -4 -12 -4 0 -1 -3)
1969/12/31/18:00:05.563,(1 -3 -4 7 0 -2 2 0)
1969/12/31/18:00:05.576,(-7 -11 -23 -31 -9 -1 -1 -5)
1969/12/31/18:00:05.576,(-2 -1 -4 2 -2 -5 1 -1)
1969/12/31/18:00:05.587,(2 4 5 2 1 -2 3 3)
1969/12/31/18:00:05.587,(-3 -1 -12 -19 -2 3 -14 -5)
1969/12/31/18:00:05.612,(7 17 42 52 16 2 0 4)
1969/12/31/18:00:05.612,(-1 -5 0 8 2 -2 2 1)
1969/12/31/18:00:05.613,(-3 -4 -26 -24 -8 -4 -2 -2)
1969/12/31/18:00:05.613,(2 8 40 28 4 -4 -3 0)
1969/12/31/18:00:05.672,(-3 -6 -24 -21 -5 -2 0 -1)
1969/12/31/18:00:05.672,(-2 -4 -1 -7 -3 -2 1 -2)
1969/12/31/18:00:05.674,(-4 -8 -20 -6 -2 4 4 0)
1969/12/31/18:00:05.674,(-1 2 9 -10 -4 -8 -6 0)
1969/12/31/18:00:05.674,(1 5 11 16 3 5 2 -2)
1969/12/31/18:00:05.674,(1 4 11 7 3 2 4 4)
1969/12/31/18:00:05.679,(-3 -6 -4 -10 -3 1 -4 -6)
1969/12/31/18:00:05.679,(-1 -4 -10 5 -1 -3 2 2)
1969/12/31/18:00:05.680,(-3 -4 -9 -8 -3 -4 -8 -11)
1969/12/31/18:00:05.680,(-1 1 5 -2 -3 0 -1 -3)
1969/12/31/18:00:05.696,(-1 -7 -14 -11 -1 0 1 2)
1969/12/31/18:00:05.696,(-3 -3 -5 -6 -4 -1 -3 -5)
1969/12/31/18:00:05.698,(1 1 4 4 0 1 -1 -1)
1969/12/31/18:00:05.698,(1 2 9 8 1 0 4 2)
1969/12/31/18:00:05.710,(-2 0 -4 -3 -1 0 1 2)
1969/12/31/18:00:05.710,(-1 -4 -3 -1 0 -1 -1 -1)
1969/12/31/18:00:05.720,(0 2 4 3 0 -4 -5 0)
1969/12/31/18:00:05.720,(-2 -6 -16 -7 -2 -1 0 -3)
1969/12/31/18:00:05.737,(1 -8 -8 -8 -2 0 7 13)
1969/12/31/18:00:05.737,(0 4 3 -4 -2 -6 -7 -10)
1969/12/31/18:00:05.739,(2 3 5 4 0 0 -2 -1)
1969/12/31/18:00:05.739,(-1 -3 -8 0 -1 1 4 5)
1969/12/31/18:00:05.763,(0 -7 -11 -14 -6 -3 -3 0)
1969/12/31/18:00:05.763,(1 5 9 6 3 1 2 4)
1969/12/31/18:00:05.764,(1 3 8 6 0 -5 -4 -2)
1969/12/31/18:00:05.764,(-2 -7 -11 -5 -2 3 -5 -11)
1969/12/31/18:00:05.814,(-2 5 -2 -8 -9 -4 -5 -6)
1969/12/31/18:00:05.814,(0 1 2 10 5 0 -3 0)
1969/12/31/18:00:05.816,(-1 -1 1 3 2 -1 0 -1)
1969/12/31/18:00:05.816,(0 0 3 7 5 4 10 13)
1969/12/31/18:00:05.816,(-3 -6 -17 -16 -10 -5 -7 -12)
1969/12/31/18:00:05.816,(0 4 15 -6 -5 -2 -1 2)
1969/12/31/18:00:05.838,(0 1 3 23 23 5 4 6)
1969/12/31/18:00:05.838,(-2 0 -2 8 4 -1 -3 -5)
1969/12/31/18:00:05.838,(-1 -2 1 3 4 2 0 -2)
1969/12/31/18:00:05.838,(-2 -8 -11 -12 -13 -4 -2 -2)
1969/12/31/18:00:05.841,(1 1 4 -14 -10 -1 1 -1)
1969/12/31/18:00:05.841,(2 2 2 3 4 -4 -2 -1)
1969/12/31/18:00:05.854,(2 0 -4 1 -1 0 -2 -3)
1969/12/31/18:00:05.854,(-1 -2 -2 -1 -1 -1 0 0)
1969/12/31/18:00:05.861,(-4 -3 0 -4 -5 0 1 4)
1969/12/31/18:00:05.861,(0 3 -1 -3 -4 -5 -8 -14)
1969/12/31/18:00:05.870,(0 -1 1 -3 -2 -5 -6 -6)
1969/12/31/18:00:05.870,(0 1 0 5 3 1 0 1)
1969/12/31/18:00:05.877,(0 2 2 2 -2 2 -1 -1)
1969/12/31/18:00:05.877,(-4 -3 -5 -6 -6 -3 -3 -2)
1969/12/31/18:00:05.895,(0 -3 1 0 2 -1 -1 1)
1969/12/31/18:00:05.896,(-2 0 -2 -1 1 0 2 -1)
1969/12/31/18:00:05.898,(1 2 3 3 -2 -1 -3 -4)
1969/12/31/18:00:05.898,(-5 0 -1 -3 -2 2 3 2)
1969/12/31/18:00:05.921,(-2 -1 -2 -2 0 0 1 1)
1969/12/31/18:00:05.921,(4 3 -1 2 -2 -2 -2 0)
1969/12/31/18:00:05.923,(-2 -6 -2 -3 -4 0 4 7)
1969/12/31/18:00:05.923,(0 -2 -3 -4 -1 -1 -2 -1)
1969/12/31/18:00:05.938,(-1 3 2 1 2 1 2 3)
1969/12/31/18:00:05.938,(-2 -4 -1 -2 -1 1 0 0)
1969/12/31/18:00:05.971,(-3 -4 -3 -2 -4 -2 -2 -4)
1969/12/31/18:00:05.971,(1 2 1 -3 -2 -1 0 2)
1969/12/31/18:00:05.972,(-2 -2 -1 0 0 -1 0 1)
1969/12/31/18:00:05.972,(0 -8 -6 -1 -1 -1 -2 0)
1969/12/31/18:00:05.989,(0 0 -3 -3 -1 -1 -1 -4)
1969/12/31/18:00:05.989,(0 5 3 -2 -1 -1 2 4)
1969/12/31/18:00:05.989,(-6 -15 -1 2 -3 -1 0 -3)
1969/12/31/18:00:05.989,(2 6 -3 0 0 0 0 0)
1969/12/31/18:00:05.991,(-5 -6 -2 -3 -2 -1 -3 -4)
1969/12/31/18:00:05.991,(2 16 6 0 -2 -1 1 0)
1969/12/31/18:00:06.014,(-3 -21 -10 -6 -3 -1 2 2)
1969/12/31/18:00:06.014,(9 21 17 7 4 0 -11 -13)
1969/12/31/18:00:06.015,(-4 -2 -4 -2 -1 0 1 4)
1969/12/31/18:00:06.015,(4 -4 -5 -2 -1 2 3 15)
1969/12/31/18:00:06.030,(-1 1 -3 -1 -2 -3 -3 -5)
1969/12/31/18:00:06.030,(-3 -10 -9 -2 0 1 6 5)
1969/12/31/18:00:06.031,(16 8 0 0 1 2 6 31)
1969/12/31/18:00:06.031,(-5 -9 -4 -3 -2 -2 -2 -7)
1969/12/31/18:00:06.055,(2 4 0 1 2 1 5 10)
1969/12/31/18:00:06.055,(-5 -5 -4 -3 -2 -5 -4 -10)
1969/12/31/18:00:06.057,(2 6 6 0 -1 -2 -2 2)
1969/12/31/18:00:06.057,(-3 -5 -8 -4 -4 -2 2 -3)
1969/12/31/18:00:06.071,(11 8 3 1 1 0 -2 -1)
1969/12/31/18:00:06.071,(-17 -4 1 -1 -1 -2 -4 -6)
1969/12/31/18:00:06.081,(-3 0 6 1 -1 0 -7 -21)
1969/12/31/18:00:06.081,(1 -1 6 3 -1 4 5 16)
1969/12/31/18:00:06.123,(-30 -12 -3 -6 -8 -8 -23 -45)
1969/12/31/18:00:06.123,(23 6 6 3 1 7 16 32)
1969/12/31/18:00:06.125,(-11 -9 -3 -4 -6 -7 -19 -35)
1969/12/31/18:00:06.125,(20 -2 -2 -1 -1 0 8 36)
1969/12/31/18:00:06.126,(-15 4 3 1 -2 -6 -5 -25)
1969/12/31/18:00:06.126,(36 3 -8 -3 -1 7 0 34)
1969/12/31/18:00:06.131,(-7 -2 1 1 0 1 1 -11)
1969/12/31/18:00:06.131,(-36 -12 -6 -1 -1 -3 0 -7)
1969/12/31/18:00:06.138,(54 25 8 5 7 14 18 63)
1969/12/31/18:00:06.138,(-6 7 -5 -6 -6 -5 19 -14)
1969/12/31/18:00:06.148,(-58 -19 -6 -1 0 0 4 -32)
1969/12/31/18:00:06.148,(-33 -23 -10 -8 -7 -15 -45 -51)
1969/12/31/18:00:06.164,(2 -8 -4 -3 -3 -11 10 20)
1969/12/31/18:00:06.164,(30 14 11 8 17 40 8 -2)
1969/12/31/18:00:06.165,(-58 -20 -13 -11 -15 -29 -17 -8)
1969/12/31/18:00:06.165,(-7 -13 -4 -3 -2 -7 -10 -37)
1969/12/31/18:00:06.189,(-14 2 -4 -5 -3 -7 1 -1)
1969/12/31/18:00:06.189,(31 15 -2 -2 -3 0 -4 -8)
1969/12/31/18:00:06.191,(33 9 4 1 8 28 3 1)
1969/12/31/18:00:06.191,(-27 -13 -8 -5 -7 -40 0 -2)
1969/12/31/18:00:06.204,(22 -1 -2 -2 1 34 8 14)
1969/12/31/18:00:06.204,(-109 -45 -14 -13 -15 -30 -36 -78)
1969/12/31/18:00:06.215,(-1 1 -1 -3 -3 -18 -4 -1)
1969/12/31/18:00:06.215,(16 9 4 3 4 26 14 23)
1969/12/31/18:00:06.231,(38 27 11 8 7 6 6 19)
1969/12/31/18:00:06.231,(-9 11 6 6 3 -7 9 -13)
1969/12/31/18:00:06.232,(30 8 -3 -4 -1 -1 -3 2)
1969/12/31/18:00:06.232,(20 -8 -3 -1 3 7 -4 -2)
1969/12/31/18:00:06.280,(-39 -22 4 6 5 2 12 2)
1969/12/31/18:00:06.280,(52 28 17 9 6 7 -2 65)
1969/12/31/18:00:06.299,(-28 -27 -16 -8 -6 -15 -16 -45)
1969/12/31/18:00:06.299,(-39 -7 -5 -4 -5 0 9 -13)
1969/12/31/18:00:06.300,(22 8 5 2 2 -4 -7 6)
1969/12/31/18:00:06.300,(-3 13 10 8 7 -12 -23 -3)
1969/12/31/18:00:06.302,(71 7 0 1 5 28 7 92)
1969/12/31/18:00:06.302,(-70 -22 -9 -10 -15 -24 25 -21)
1969/12/31/18:00:06.306,(-31 -21 -11 -7 -4 -4 -33 -34)
1969/12/31/18:00:06.306,(19 13 0 -1 -3 -9 12 20)
1969/12/31/18:00:06.308,(52 40 17 16 17 52 31 63)
1969/12/31/18:00:06.308,(39 4 0 -1 3 -9 -16 -15)
1969/12/31/18:00:06.323,(-14 -6 -7 -8 -14 -38 -18 -14)
1969/12/31/18:00:06.323,(-50 -40 -18 -12 -11 -14 4 -25)
1969/12/31/18:00:06.325,(-6 9 5 1 -3 -22 15 28)
1969/12/31/18:00:06.325,(33 10 8 11 17 53 40 56)
1969/12/31/18:00:06.338,(-9 -6 -11 -12 -12 -7 3 5)
1969/12/31/18:00:06.338,(29 11 1 0 3 -3 -2 -3)
1969/12/31/18:00:06.348,(-7 8 1 0 1 8 13 18)
1969/12/31/18:00:06.348,(28 38 22 12 13 22 -2 -11)
1969/12/31/18:00:06.364,(22 -7 -6 -2 0 -13 20 12)
1969/12/31/18:00:06.364,(-8 -10 -7 -4 -5 -8 -37 -12)
1969/12/31/18:00:06.366,(-24 -12 -3 -5 -6 -12 1 -25)
1969/12/31/18:00:06.366,(30 28 8 6 5 -1 -4 8)
1969/12/31/18:00:06.390,(-6 -6 -2 1 0 -1 -2 -6)
1969/12/31/18:00:06.390,(15 1 -6 -4 5 49 19 10)
1969/12/31/18:00:06.391,(21 8 12 10 -6 -88 -10 13)
1969/12/31/18:00:06.391,(-34 -33 -20 -17 -18 -28 -27 -70)
1969/12/31/18:00:06.433,(-17 -4 -9 -10 -9 -14 -33 -87)
1969/12/31/18:00:06.433,(-32 -14 0 -2 -6 0 26 3)
1969/12/31/18:00:06.435,(3 15 9 5 12 43 2 -11)
1969/12/31/18:00:06.435,(47 -3 -1 4 6 10 41 87)
1969/12/31/18:00:06.435,(-54 -18 -12 -10 -7 -3 -5 30)
1969/12/31/18:00:06.435,(-1 -7 -2 -2 -1 11 -20 -35)
1969/12/31/18:00:06.440,(-12 -7 -8 -8 -11 -29 -32 -49)
1969/12/31/18:00:06.440,(-22 -12 0 1 -2 -15 -16 13)
1969/12/31/18:00:06.457,(29 19 9 10 9 29 38 14)
1969/12/31/18:00:06.457,(-2 -8 -2 0 -2 -18 -9 -13)
1969/12/31/18:00:06.459,(-14 -10 -8 -7 -7 0 5 -3)
1969/12/31/18:00:06.459,(24 14 2 1 2 5 -8 32)
1969/12/31/18:00:06.472,(26 23 14 9 7 0 -10 -8)
1969/12/31/18:00:06.472,(1 7 4 2 7 28 40 28)
1969/12/31/18:00:06.482,(14 -20 -10 -3 -3 -6 -30 37)
1969/12/31/18:00:06.482,(0 -4 -10 -13 -14 -6 0 -10)
1969/12/31/18:00:06.498,(10 14 8 5 5 11 4 -25)
1969/12/31/18:00:06.498,(-14 -2 1 -1 1 -4 -3 4)
1969/12/31/18:00:06.500,(26 26 6 4 4 10 26 12)
1969/12/31/18:00:06.500,(-27 -2 3 5 5 9 2 23)
1969/12/31/18:00:06.524,(11 17 4 3 1 -4 -6 -16)
1969/12/31/18:00:06.524,(-29 -31 -11 -5 -10 -52 -29 1)
1969/12/31/18:00:06.526,(8 -9 -8 -4 -1 38 15 -35)
1969/12/31/18:00:06.526,(-2 10 3 0 -4 -43 -6 -20)
1969/12/31/18:00:06.539,(46 11 3 4 9 51 44 68)
1969/12/31/18:00:06.539,(-48 -5 1 3 -3 -35 -16 -39)
1969/12/31/18:00:06.549,(-4 -8 -2 -1 -2 2 0 -22)
1969/12/31/18:00:06.549,(50 25 11 11 9 7 12 64)
1969/12/31/18:00:06.591,(-28 -19 -6 -5 0 18 -7 -24)
1969/12/31/18:00:06.591,(9 -9 -4 -5 -2 4 5 38)
1969/12/31/18:00:06.610,(10 -1 -7 -9 0 11 -2 -1)
1969/12/31/18:00:06.610,(-13 -5 -5 -6 -11 -13 -37 -84)
1969/12/31/18:00:06.610,(3 -13 -4 -4 -4 -16 -12 -23)
1969/12/31/18:00:06.610,(75 9 -1 4 6 4 -4 12)
1969/12/31/18:00:06.612,(-70 -13 -4 -1 -8 -10 -48 -46)
1969/12/31/18:00:06.612,(29 26 16 17 18 -12 39 57)
1969/12/31/18:00:06.615,(-95 -49 -20 -21 -34 -38 -57 -122)
1969/12/31/18:00:06.615,(12 17 4 -9 2 71 -7 -10)
1969/12/31/18:00:06.617,(17 16 5 10 20 35 71 57)
1969/12/31/18:00:06.617,(-10 -7 -4 -6 -9 -37 -14 17)
1969/12/31/18:00:06.633,(-58 -12 -1 -6 -19 -6 -7 -15)
1969/12/31/18:00:06.633,(9 3 -2 -5 -5 -7 10 64)
1969/12/31/18:00:06.635,(15 8 15 16 63 49 -2 1)
1969/12/31/18:00:06.635,(-25 -2 2 14 -10 13 -6 -16)
1969/12/31/18:00:06.658,(42 27 13 5 -18 -22 43 126)
1969/12/31/18:00:06.658,(-49 -41 -30 -26 -32 -38 -37 -63)
1969/12/31/18:00:06.659,(-40 -6 4 2 5 -15 1 33)
1969/12/31/18:00:06.659,(15 6 -2 -4 10 17 -6 -48)
1969/12/31/18:00:06.673,(15 8 7 28 70 24 -5 10)
1969/12/31/18:00:06.673,(-5 -8 -2 -7 -38 -13 5 -20)
1969/12/31/18:00:06.683,(25 -4 -13 -29 -44 -16 7 26)
1969/12/31/18:00:06.683,(-22 -5 1 1 -2 -12 -15 -54)
1969/12/31/18:00:06.700,(-17 14 3 11 23 25 -27 -73)
1969/12/31/18:00:06.700,(-11 -5 8 21 55 5 9 -8)
1969/12/31/18:00:06.701,(-6 -18 -6 6 -10 18 5 -25)
1969/12/31/18:00:06.701,(8 0 -7 -32 -109 -84 -24 -2)
1969/12/31/18:00:06.742,(23 20 3 -12 -12 -17 -1 14)
1969/12/31/18:00:06.742,(-14 -15 3 16 21 7 -1 -8)
1969/12/31/18:00:06.745,(62 23 7 12 39 9 0 16)
1969/12/31/18:00:06.745,(12 7 2 3 45 48 10 12)
1969/12/31/18:00:06.746,(28 19 0 -3 -3 5 6 34)
1969/12/31/18:00:06.746,(-43 -50 -15 -13 -7 -7 0 -33)
1969/12/31/18:00:06.750,(30 16 3 17 -3 -3 11 23)
1969/12/31/18:00:06.750,(-22 -21 -34 -5 7 -8 -27 -53)
1969/12/31/18:00:06.767,(-13 -4 24 -23 -66 -20 -2 -11)
1969/12/31/18:00:06.767,(40 30 -11 -16 -16 3 18 39)
1969/12/31/18:00:06.768,(-30 -23 -34 -29 -20 -36 -32 -32)
1969/12/31/18:00:06.768,(-44 33 78 23 24 31 -9 -22)
1969/12/31/18:00:06.792,(5 -44 -43 13 36 4 -3 -9)
1969/12/31/18:00:06.792,(-2 31 37 16 -19 -4 20 25)
1969/12/31/18:00:06.794,(-40 -22 -2 -6 -21 -31 -17 -28)
1969/12/31/18:00:06.794,(7 -35 -56 -27 8 15 -12 -40)
1969/12/31/18:00:06.807,(4 -11 -21 0 6 7 11 21)
1969/12/31/18:00:06.807,(10 -3 4 -6 -18 -20 8 21)
1969/12/31/18:00:06.817,(-6 23 8 34 90 31 -14 -67)
1969/12/31/18:00:06.817,(40 -14 -43 -34 -93 -15 43 60)
1969/12/31/18:00:06.833,(-54 73 94 6 16 5 -30 2)
1969/12/31/18:00:06.833,(-23 -9 -24 5 15 2 2 -70)
1969/12/31/18:00:06.841,(-23 -18 -11 -33 -45 -34 -21 4)
1969/12/31/18:00:06.841,(28 -73 -33 38 69 35 24 56)
1969/12/31/18:00:06.858,(56 -16 -96 -51 -57 -49 -82 -55)
1969/12/31/18:00:06.858,(-41 74 110 20 -2 14 26 43)
1969/12/31/18:00:06.861,(29 -48 -17 -6 0 10 19 32)
1969/12/31/18:00:06.861,(-37 2 -45 -18 12 11 -2 12)
1969/12/31/18:00:06.900,(-8 77 86 69 35 9 29 35)
1969/12/31/18:00:06.900,(59 -82 -96 -8 32 13 12 41)
1969/12/31/18:00:06.920,(-16 101 58 20 -8 -3 13 20)
1969/12/31/18:00:06.920,(13 -44 -35 -14 -25 -3 14 81)
1969/12/31/18:00:06.921,(-35 -125 -46 -21 -10 4 23 -33)
1969/12/31/18:00:06.921,(11 94 26 -4 -13 -17 -27 26)
1969/12/31/18:00:06.927,(-6 -38 -39 -11 2 -21 -2 -5)
1969/12/31/18:00:06.927,(-4 8 -4 -3 -1 6 -20 0)
1969/12/31/18:00:06.928,(-16 20 13 -26 -35 3 26 -42)
1969/12/31/18:00:06.928,(-8 -77 -49 -10 21 21 4 -13)
1969/12/31/18:00:06.929,(40 5 -5 -6 -30 -3 -2 -16)
1969/12/31/18:00:06.929,(-11 -52 -46 6 52 -11 -34 -34)
1969/12/31/18:00:06.951,(10 86 99 34 -33 -46 -33 -16)
1969/12/31/18:00:06.951,(43 -57 -84 -33 -41 -23 -7 25)
1969/12/31/18:00:06.952,(46 109 66 11 13 9 -1 30)
1969/12/31/18:00:06.952,(-92 -70 -18 -3 15 20 -2 -87)
1969/12/31/18:00:06.967,(-30 77 57 20 19 11 -4 -42)
1969/12/31/18:00:06.967,(30 -42 -11 3 6 -12 -10 -10)
1969/12/31/18:00:06.975,(3 -15 -89 -24 -5 -10 14 59)
1969/12/31/18:00:06.975,(14 114 108 62 49 34 -2 -44)
1969/12/31/18:00:06.992,(40 -119 -98 -4 -8 8 30 83)
1969/12/31/18:00:06.992,(-68 60 43 -5 -45 -18 -13 -76)
1969/12/31/18:00:06.994,(-40 -128 -95 -64 -85 -66 -21 -54)
1969/12/31/18:00:06.995,(57 -16 -37 -21 1 5 5 93)
1969/12/31/18:00:07.018,(-20 85 47 21 44 -3 -5 -45)
1969/12/31/18:00:07.018,(-8 26 72 48 81 53 -6 3)
1969/12/31/18:00:07.019,(-5 -79 -24 16 17 3 -18 -32)
1969/12/31/18:00:07.019,(32 18 -35 -33 -67 3 50 15)
1969/12/31/18:00:07.052,(-15 -20 -7 -22 -38 -50 -26 -2)
1969/12/31/18:00:07.052,(18 114 82 30 38 18 11 -8)
1969/12/31/18:00:07.053,(-2 -27 20 35 52 31 15 18)
1969/12/31/18:00:07.053,(-26 -62 -52 -27 -11 -14 -49 -55)
1969/12/31/18:00:07.059,(2 -118 -99 -42 -14 24 -5 35)
1969/12/31/18:00:07.059,(0 -35 -36 -6 4 -19 -4 -48)
1969/12/31/18:00:07.062,(-55 90 91 32 37 3 -7 -53)
1969/12/31/18:00:07.062,(64 38 38 4 -32 -6 30 74)
1969/12/31/18:00:07.085,(-37 51 22 8 -13 3 -15 -31)
1969/12/31/18:00:07.085,(-8 -42 -25 -25 -9 3 9 9)
1969/12/31/18:00:07.092,(28 -42 -41 -6 22 37 5 -9)
1969/12/31/18:00:07.092,(21 -61 -37 1 -13 -48 5 20)
1969/12/31/18:00:07.101,(-25 57 33 3 6 0 -25 -29)
1969/12/31/18:00:07.101,(-19 55 50 41 51 17 2 64)
1969/12/31/18:00:07.108,(29 44 -24 -21 -48 -5 20 38)
1969/12/31/18:00:07.108,(-5 27 41 9 33 25 -14 -3)
1969/12/31/18:00:07.127,(17 -101 -62 -9 29 31 16 20)
1969/12/31/18:00:07.127,(22 80 77 20 -59 -51 -26 -5)
1969/12/31/18:00:07.129,(-56 -75 -29 -23 -54 -28 -6 -37)
1969/12/31/18:00:07.129,(-6 -52 -31 8 75 33 10 -3)
1969/12/31/18:00:07.152,(-3 12 -3 -6 -16 3 27 33)
1969/12/31/18:00:07.152,(22 -12 -42 -24 7 30 54 73)
1969/12/31/18:00:07.153,(-21 14 33 -4 -47 -44 -52 -48)
1969/12/31/18:00:07.153,(-3 -12 -1 6 62 33 -3 -35)
1969/12/31/18:00:07.167,(41 -100 -93 -14 0 4 43 79)
1969/12/31/18:00:07.167,(8 86 28 -14 -67 -57 -55 -22)
1969/12/31/18:00:07.178,(-48 57 76 24 19 12 1 -41)
1969/12/31/18:00:07.178,(11 -3 -12 -14 -22 -24 -19 -14)
1969/12/31/18:00:07.211,(22 48 25 21 44 18 -31 2)
1969/12/31/18:00:07.211,(-35 -128 -85 -21 -8 5 14 -22)
1969/12/31/18:00:07.228,(106 90 1 34 77 39 32 101)
1969/12/31/18:00:07.228,(-73 127 127 6 -84 -27 -10 -38)
1969/12/31/18:00:07.229,(-19 -42 -7 -30 -30 -20 3 -20)
1969/12/31/18:00:07.229,(31 -81 -61 -35 -61 -47 -42 -17)
1969/12/31/18:00:07.230,(-42 -61 -50 1 17 32 31 55)
1969/12/31/18:00:07.230,(-9 20 25 -9 -42 -24 -12 8)
1969/12/31/18:00:07.233,(10 -52 -26 -10 21 15 20 19)
1969/12/31/18:00:07.233,(25 49 -2 0 24 1 -14 3)
1969/12/31/18:00:07.252,(-13 -48 -16 17 46 33 -19 -26)
1969/12/31/18:00:07.252,(19 60 18 12 19 8 -20 -15)
1969/12/31/18:00:07.260,(-15 -9 8 -9 -55 -33 34 18)
1969/12/31/18:00:07.260,(-14 -85 -65 -17 39 23 -10 -10)
1969/12/31/18:00:07.263,(7 68 76 9 -78 -24 28 7)
1969/12/31/18:00:07.263,(-21 -46 -35 13 75 20 -17 -41)
1969/12/31/18:00:07.286,(72 3 -12 -11 -41 -41 -22 25)
1969/12/31/18:00:07.286,(-3 -6 -33 5 27 48 39 -2)
1969/12/31/18:00:07.287,(-29 72 87 -5 -30 -36 -30 -28)
1969/12/31/18:00:07.287,(21 -52 -10 14 8 28 52 73)
1969/12/31/18:00:07.300,(52 57 36 19 12 -9 24 48)
1969/12/31/18:00:07.300,(33 -18 -7 28 88 63 15 21)
1969/12/31/18:00:07.310,(6 -63 -43 -46 -106 -48 -40 -19)
1969/12/31/18:00:07.310,(40 4 31 13 35 7 16 52)
1969/12/31/18:00:07.363,(-43 110 63 13 -14 -15 -19 -62)
1969/12/31/18:00:07.363,(-58 -63 -20 6 -20 -28 -52 -80)
1969/12/31/18:00:07.364,(44 -31 -26 -9 -10 -7 43 87)
1969/12/31/18:00:07.364,(-26 -4 -2 2 -2 61 24 -58)
1969/12/31/18:00:07.365,(36 -21 -28 -35 -22 -39 -43 16)
1969/12/31/18:00:07.365,(-75 46 57 13 -12 -10 -5 -49)
1969/12/31/18:00:07.370,(-11 -127 -95 -1 95 28 22 -16)
1969/12/31/18:00:07.370,(41 57 -8 -21 -44 -12 -2 45)
1969/12/31/18:00:07.371,(-44 28 62 29 6 31 18 -1)
1969/12/31/18:00:07.371,(52 -27 -42 -31 -27 -17 17 29)
1969/12/31/18:00:07.377,(-26 -37 1 -14 -72 -39 -16 -22)
1969/12/31/18:00:07.377,(62 25 35 10 8 0 35 76)
1969/12/31/18:00:07.394,(-87 -7 -27 7 0 -25 -33 -86)
1969/12/31/18:00:07.394,(-8 10 26 -2 -20 -5 -6 27)
1969/12/31/18:00:07.396,(-33 -51 -31 1 29 11 12 12)
1969/12/31/18:00:07.396,(12 -11 -25 -18 -16 -13 -9 -20)
1969/12/31/18:00:07.420,(11 -26 -34 -6 28 27 -15 -9)
1969/12/31/18:00:07.420,(51 8 6 4 -73 -24 7 68)
1969/12/31/18:00:07.421,(-22 -2 -23 0 58 19 -5 -29)
1969/12/31/18:00:07.421,(-96 0 29 33 86 53 -12 -80)
1969/12/31/18:00:07.444,(24 -58 -42 -40 -67 -65 -5 17)
1969/12/31/18:00:07.444,(-19 -51 -45 -43 -46 -15 10 -10)
1969/12/31/18:00:07.447,(57 62 34 8 5 2 19 16)
1969/12/31/18:00:07.447,(-53 9 -19 -6 -14 -5 -80 -55)
1969/12/31/18:00:07.462,(-28 80 77 49 51 28 23 2)
1969/12/31/18:00:07.462,(66 13 -10 0 6 12 25 44)
1969/12/31/18:00:07.463,(-86 -85 -11 -1 -12 -18 -55 -97)
1969/12/31/18:00:07.463,(37 -14 -30 -18 -14 -23 8 7)
1969/12/31/18:00:07.488,(85 -38 -20 -4 -12 12 16 56)
1969/12/31/18:00:07.488,(-2 18 1 -7 -19 -31 -23 -9)
1969/12/31/18:00:07.490,(-54 72 47 8 68 51 -27 -59)
1969/12/31/18:00:07.490,(21 -68 -41 -17 -53 -32 15 16)
1969/12/31/18:00:07.520,(17 22 -7 12 88 49 -8 -17)
1969/12/31/18:00:07.520,(-8 -11 9 -5 -66 -53 17 28)
1969/12/31/18:00:07.523,(-4 -82 -74 -17 12 43 12 20)
1969/12/31/18:00:07.523,(-54 124 120 17 -41 -74 -22 -80)
1969/12/31/18:00:07.537,(-22 -105 -61 -13 9 20 -16 -22)
1969/12/31/18:00:07.537,(30 -13 -20 19 88 45 3 -8)
1969/12/31/18:00:07.538,(20 13 50 1 -113 -64 5 27)
1969/12/31/18:00:07.538,(6 22 -31 -49 -76 -20 -3 21)
1969/12/31/18:00:07.562,(25 -14 -26 0 21 15 22 60)
1969/12/31/18:00:07.562,(-61 19 30 9 0 2 -22 -62)
1969/12/31/18:00:07.564,(-54 -44 -37 -15 -5 -1 -17 -58)
1969/12/31/18:00:07.564,(41 -39 -14 16 61 20 19 55)
1969/12/31/18:00:07.568,(-14 45 26 10 -33 -10 14 3)
1969/12/31/18:00:07.568,(-35 -29 -15 4 74 36 -13 -47)
1969/12/31/18:00:07.578,(51 -12 -32 -10 8 67 27 33)
1969/12/31/18:00:07.578,(-20 86 101 55 21 -43 14 3)
1969/12/31/18:00:07.595,(6 -59 -75 -55 -84 -38 -24 -27)
1969/12/31/18:00:07.595,(-23 -43 28 4 -15 24 6 40)
1969/12/31/18:00:07.597,(39 67 20 -2 -4 -33 -11 7)
1969/12/31/18:00:07.597,(-22 5 -11 -10 -18 25 7 -25)
1969/12/31/18:00:07.621,(11 -2 15 45 127 68 20 5)
1969/12/31/18:00:07.621,(-34 37 35 -3 -107 -51 -19 -42)
1969/12/31/18:00:07.622,(38 6 0 2 2 -25 7 34)
1969/12/31/18:00:07.622,(-32 -89 -66 -33 -79 -41 -20 -19)
1969/12/31/18:00:07.635,(22 22 21 13 80 15 4 20)
1969/12/31/18:00:07.635,(19 -12 -24 -9 -5 55 45 48)
1969/12/31/18:00:07.673,(18 75 73 22 -37 -82 -58 1)
1969/12/31/18:00:07.673,(-31 -3 -22 -6 4 13 1 -21)
1969/12/31/18:00:07.674,(29 5 26 27 3 23 26 25)
1969/12/31/18:00:07.674,(-2 -1 -38 -24 17 -7 -9 -29)
1969/12/31/18:00:07.678,(22 23 43 39 81 78 29 37)
1969/12/31/18:00:07.678,(11 -39 -31 -38 -103 -82 8 49)
1969/12/31/18:00:07.688,(-57 -57 -9 -15 -13 10 -23 -61)
1969/12/31/18:00:07.688,(65 117 99 74 82 35 -11 45)
1969/12/31/18:00:07.689,(4 18 -40 -38 -96 -45 20 -7)
1969/12/31/18:00:07.689,(-16 -76 -31 -7 61 14 -33 -22)
1969/12/31/18:00:07.702,(-12 -33 -41 -28 -56 -17 5 1)
1969/12/31/18:00:07.702,(14 -103 -95 -20 69 62 33 27)
1969/12/31/18:00:07.712,(-16 108 101 47 7 -34 1 -16)
1969/12/31/18:00:07.712,(-9 21 31 4 -12 4 -23 -28)
1969/12/31/18:00:07.729,(-48 -33 -13 -31 -45 -31 -5 -16)
1969/12/31/18:00:07.729,(21 2 3 28 45 8 -2 1)
1969/12/31/18:00:07.731,(2 -48 -52 -13 2 7 5 20)
1969/12/31/18:00:07.731,(16 -58 -49 5 49 41 31 4)
1969/12/31/18:00:07.755,(-25 88 98 22 -1 -2 -12 -19)
1969/12/31/18:00:07.755,(13 29 -1 -20 -57 -60 2 10)
1969/12/31/18:00:07.756,(-6 -9 -34 -28 10 30 -6 10)
1969/12/31/18:00:07.756,(71 48 62 47 52 48 31 63)
1969/12/31/18:00:07.769,(-42 -24 -26 -17 -65 -63 -17 -71)
1969/12/31/18:00:07.769,(-31 -76 -18 -19 9 14 -7 -34)
1969/12/31/18:00:07.779,(-4 19 22 4 -40 -60 -10 -2)
1969/12/31/18:00:07.779,(-41 16 -23 -29 -28 -6 -48 -74)
1969/12/31/18:00:07.796,(37 -54 -50 -8 55 30 37 80)
1969/12/31/18:00:07.796,(-35 -57 -8 -14 -17 7 8 -16)
1969/12/31/18:00:07.828,(34 38 -39 1 16 2 10 0)
1969/12/31/18:00:07.828,(31 5 8 26 47 25 15 42)
1969/12/31/18:00:07.848,(36 48 17 37 116 78 43 22)
1969/12/31/18:00:07.848,(-21 47 55 -27 -128 -121 -31 12)
1969/12/31/18:00:07.850,(59 -1 38 11 51 44 12 58)
1969/12/31/18:00:07.850,(7 18 -15 -10 22 8 -2 26)
1969/12/31/18:00:07.851,(23 -28 -62 -15 -78 -87 -34 13)
1969/12/31/18:00:07.851,(6 -34 -48 -42 -8 28 41 41)
1969/12/31/18:00:07.855,(-9 36 91 49 60 22 -43 -41)
1969/12/31/18:00:07.855,(13 38 19 9 -38 -32 13 11)
1969/12/31/18:00:07.872,(-4 -12 -3 -1 32 22 -7 -13)
1969/12/31/18:00:07.872,(29 12 -15 11 28 10 3 2)
1969/12/31/18:00:07.873,(42 -68 -57 -25 -22 4 21 40)
1969/12/31/18:00:07.873,(-51 -13 7 -10 -17 4 -9 -47)
1969/12/31/18:00:07.889,(29 54 59 40 10 15 15 33)
1969/12/31/18:00:07.889,(3 18 12 -18 -61 -63 -34 -10)
1969/12/31/18:00:07.890,(-24 -34 -58 -22 15 4 -12 -17)
1969/12/31/18:00:07.890,(-6 -63 -21 -3 17 20 5 -20)
1969/12/31/18:00:07.903,(1 51 68 20 17 14 4 19)
1969/12/31/18:00:07.903,(-29 41 -12 21 -6 -44 -11 -57)
1969/12/31/18:00:07.913,(-5 -13 1 -36 -68 -43 -29 -25)
1969/12/31/18:00:07.913,(-39 -43 -25 -6 18 7 9 6)
1969/12/31/18:00:07.929,(-40 -35 -14 -17 13 47 13 -44)
1969/12/31/18:00:07.930,(-2 12 11 11 -7 3 -41 -36)
1969/12/31/18:00:07.938,(-28 -13 -11 1 -20 -10 9 1)
1969/12/31/18:00:07.938,(66 36 1 -5 -26 -17 32 52)
1969/12/31/18:00:07.982,(-94 -71 -47 -19 -11 -1 -27 -39)
1969/12/31/18:00:07.982,(7 42 51 32 33 7 6 8)
1969/12/31/18:00:07.983,(1 3 -5 3 11 17 17 15)
1969/12/31/18:00:07.983,(-14 -75 -40 -21 -16 -11 -15 -9)
1969/12/31/18:00:07.985,(88 51 -8 -10 -13 7 21 48)
1969/12/31/18:00:07.985,(-14 -5 6 1 17 -12 -19 -5)
1969/12/31/18:00:07.988,(-31 34 30 14 2 -4 -5 -13)
1969/12/31/18:00:07.988,(4 22 5 6 21 25 -29 -45)
1969/12/31/18:00:07.996,(14 -34 -13 22 18 -39 28 22)
1969/12/31/18:00:07.996,(-19 -34 -48 -44 -57 -14 -18 -11)
1969/12/31/18:00:08.005,(-19 -26 -16 -41 -20 -18 -12 -32)
1969/12/31/18:00:08.005,(-23 -21 -15 -5 -13 -18 16 -10)
1969/12/31/18:00:08.021,(-8 29 21 4 21 20 -15 -7)
1969/12/31/18:00:08.021,(22 64 48 33 19 5 -1 8)
1969/12/31/18:00:08.023,(10 -21 -18 -3 60 22 10 21)
1969/12/31/18:00:08.023,(57 -26 -15 16 0 13 8 37)
1969/12/31/18:00:08.046,(-14 -8 -30 -3 -29 -26 -15 -12)
1969/12/31/18:00:08.046,(1 96 96 56 83 45 12 -32)
1969/12/31/18:00:08.047,(-55 2 37 2 -56 -38 -45 -54)
1969/12/31/18:00:08.047,(13 13 4 -3 4 -19 6 20)
1969/12/31/18:00:08.063,(11 -36 -23 -53 -80 -30 -17 2)
1969/12/31/18:00:08.063,(-2 -48 -60 -18 37 31 -15 12)
1969/12/31/18:00:08.072,(63 31 -5 6 -9 8 33 71)
1969/12/31/18:00:08.072,(-80 6 17 15 55 32 -12 -63)
1969/12/31/18:00:08.088,(-48 -37 -12 16 56 49 4 -31)
1969/12/31/18:00:08.088,(26 -9 -6 -17 -93 -86 24 52)
1969/12/31/18:00:08.090,(2 -9 -13 -19 -10 12 -20 -44)
1969/12/31/18:00:08.090,(-11 -57 -55 -19 -18 -24 -27 -39)
1969/12/31/18:00:08.140,(0 91 90 21 5 6 -1 3)
1969/12/31/18:00:08.140,(10 2 -3 3 46 47 15 11)
1969/12/31/18:00:08.141,(70 21 8 30 37 27 35 56)
1969/12/31/18:00:08.141,(-16 -11 17 4 -23 -21 2 20)
1969/12/31/18:00:08.158,(11 -22 -10 -6 -25 -9 -7 1)
1969/12/31/18:00:08.158,(0 0 16 10 27 13 10 4)
1969/12/31/18:00:08.159,(-64 -45 -38 -21 -29 -29 -47 -49)
1969/12/31/18:00:08.159,(41 17 -11 -29 2 4 3 31)
1969/12/31/18:00:08.160,(18 30 21 15 -10 2 16 11)
1969/12/31/18:00:08.160,(-7 -25 -20 -35 -66 -36 -19 -3)
1969/12/31/18:00:08.163,(17 7 2 38 90 49 31 27)
1969/12/31/18:00:08.163,(-14 13 25 39 -28 -15 12 6)
1969/12/31/18:00:08.181,(1 -6 -14 3 -6 -20 -14 0)
1969/12/31/18:00:08.181,(31 -4 -15 -22 -9 15 8 18)
1969/12/31/18:00:08.182,(2 -31 -23 -33 -6 19 25 8)
1969/12/31/18:00:08.182,(-30 24 28 26 30 -14 -34 -30)
1969/12/31/18:00:08.197,(24 7 -7 4 -21 -16 -5 2)
1969/12/31/18:00:08.197,(6 11 16 10 29 29 24 28)
1969/12/31/18:00:08.198,(-39 -29 -25 -10 -7 -4 -16 -44)
1969/12/31/18:00:08.198,(63 35 18 3 51 60 39 48)
1969/12/31/18:00:08.222,(-36 -14 -15 -15 -63 -67 -19 -30)
1969/12/31/18:00:08.222,(-51 -24 -19 -18 -15 -22 -41 -46)
1969/12/31/18:00:08.223,(-2 2 -6 7 8 7 15 6)
1969/12/31/18:00:08.223,(23 9 2 -12 -13 10 8 28)
1969/12/31/18:00:08.247,(17 -4 3 5 35 31 13 5)
1969/12/31/18:00:08.247,(-6 -10 -13 -4 5 -6 1 -11)
1969/12/31/18:00:08.248,(-22 11 1 -52 -43 -33 -24 -22)
1969/12/31/18:00:08.248,(-35 -28 1 43 8 -5 -11 -26)
1969/12/31/18:00:08.292,(10 -8 -8 2 18 12 2 22)
1969/12/31/18:00:08.292,(-15 -10 -4 10 -36 3 14 -2)
1969/12/31/18:00:08.293,(15 10 19 65 53 -2 -10 13)
1969/12/31/18:00:08.293,(-35 8 0 -14 28 11 -1 -26)
1969/12/31/18:00:08.294,(-4 2 -1 -7 -5 -8 -6 -9)
1969/12/31/18:00:08.294,(18 -6 -2 9 -1 4 2 7)
1969/12/31/18:00:08.297,(-14 -16 -15 -34 -34 -14 2 -3)
1969/12/31/18:00:08.297,(-13 -2 -1 -26 -36 -16 -10 -19)
1969/12/31/18:00:08.314,(36 11 -12 -9 -8 -5 6 15)
1969/12/31/18:00:08.314,(-23 7 13 2 35 18 -2 -11)
1969/12/31/18:00:08.315,(-13 4 5 7 8 19 -2 -28)
1969/12/31/18:00:08.315,(1 -11 3 -1 -25 -36 -4 22)
1969/12/31/18:00:08.331,(-33 2 -3 -16 -23 -24 -21 -19)
1969/12/31/18:00:08.331,(62 16 -7 9 32 15 7 7)
1969/12/31/18:00:08.332,(14 0 0 9 0 3 7 23)
1969/12/31/18:00:08.332,(-47 -13 -9 -21 -32 -11 -14 -36)
1969/12/31/18:00:08.356,(47 15 5 4 22 24 20 52)
1969/12/31/18:00:08.356,(-52 -15 -11 7 21 -11 -22 -55)
1969/12/31/18:00:08.357,(-1 8 14 6 -9 2 26 32)
1969/12/31/18:00:08.357,(-22 -9 -22 -56 -58 -15 -9 -47)
1969/12/31/18:00:08.381,(-56 -28 -7 14 55 -10 -42 -64)
1969/12/31/18:00:08.381,(9 0 10 47 47 68 37 49)
1969/12/31/18:00:08.382,(25 13 3 3 -16 -37 -10 14)
1969/12/31/18:00:08.382,(45 28 11 7 -6 2 12 21)
1969/12/31/18:00:08.399,(-2 1 14 -1 -1 6 7 7)
1969/12/31/18:00:08.399,(50 4 -17 -32 -19 -10 -12 26)
1969/12/31/18:00:08.399,(20 8 14 15 13 19 26 48)
1969/12/31/18:00:08.399,(46 24 -3 -4 0 -1 4 50)
1969/12/31/18:00:08.450,(-18 -11 -8 -12 -18 -3 -4 -2)
1969/12/31/18:00:08.450,(50 8 3 3 11 -4 -1 -4)
1969/12/31/18:00:08.451,(-2 21 10 6 -10 8 2 -18)
1969/12/31/18:00:08.451,(-26 -7 14 14 13 -8 -3 5)
1969/12/31/18:00:08.453,(86 21 -18 -13 -12 4 2 21)
1969/12/31/18:00:08.453,(-50 -42 -8 -3 -16 -11 -6 -16)
1969/12/31/18:00:08.467,(-71 -51 -28 -27 -22 -25 -40 -90)
1969/12/31/18:00:08.467,(12 27 21 22 24 18 15 31)
1969/12/31/18:00:08.468,(-43 -20 -7 -2 -9 -5 -12 -29)
1969/12/31/18:00:08.468,(-1 10 2 -6 -3 -12 -4 -11)
1969/12/31/18:00:08.469,(51 16 6 7 6 12 15 41)
1969/12/31/18:00:08.469,(20 0 -1 3 5 0 1 6)
1969/12/31/18:00:08.490,(-70 -33 -9 -6 -10 5 16 -10)
1969/12/31/18:00:08.490,(-18 -10 -15 -16 -9 -18 -16 -32)
1969/12/31/18:00:08.491,(21 17 5 3 6 13 10 19)
1969/12/31/18:00:08.491,(17 -17 -19 -4 -2 -1 1 6)
1969/12/31/18:00:08.515,(9 3 10 4 2 3 4 7)
1969/12/31/18:00:08.515,(31 34 20 10 5 7 13 44)
1969/12/31/18:00:08.516,(-29 -4 -3 -2 -4 -7 -11 -17)
1969/12/31/18:00:08.516,(49 23 3 -1 -3 1 5 17)
1969/12/31/18:00:08.531,(-18 -2 -5 3 -1 3 5 5)
1969/12/31/18:00:08.531,(-34 -26 -12 -8 -4 -9 -22 -79)
1969/12/31/18:00:08.533,(17 6 1 -1 0 0 -1 5)
1969/12/31/18:00:08.533,(22 11 0 -1 0 -3 0 10)
1969/12/31/18:00:08.557,(-34 -19 -2 -2 -2 2 -4 -19)
1969/12/31/18:00:08.557,(0 23 8 2 -1 -2 2 3)
1969/12/31/18:00:08.558,(-9 -10 -1 -1 -1 -4 0 -1)
1969/12/31/18:00:08.558,(-33 -15 4 4 2 1 -9 -28)
1969/12/31/18:00:08.602,(17 6 -9 -3 -5 -5 -5 5)
1969/12/31/18:00:08.602,(-27 -23 -5 -4 1 0 7 5)
1969/12/31/18:00:08.603,(58 33 8 3 3 7 10 25)
1969/12/31/18:00:08.603,(-29 -33 -7 -4 -4 -7 -7 2)
1969/12/31/18:00:08.604,(55 32 10 3 -2 1 4 19)
1969/12/31/18:00:08.604,(-26 -1 3 0 1 -4 -6 -13)
1969/12/31/18:00:08.607,(17 4 -2 1 2 3 1 -2)
1969/12/31/18:00:08.607,(10 21 10 2 -1 -2 -1 4)
1969/12/31/18:00:08.624,(-17 -24 -2 2 4 3 6 27)
1969/12/31/18:00:08.624,(34 35 3 -1 -2 -1 0 2)
1969/12/31/18:00:08.625,(-12 -19 -4 -2 -1 2 3 -2)
1969/12/31/18:00:08.625,(1 -1 -5 0 -1 0 -3 -11)
1969/12/31/18:00:08.649,(-14 -2 -2 -3 -4 -1 -2 0)
1969/12/31/18:00:08.649,(9 0 -4 0 1 5 9 28)
1969/12/31/18:00:08.650,(-7 11 -10 -3 -4 -8 -14 -22)
1969/12/31/18:00:08.650,(-7 4 36 8 0 -1 1 -1)
1969/12/31/18:00:08.665,(0 -14 -5 0 1 2 6 7)
1969/12/31/18:00:08.665,(-9 -16 -5 -1 -6 -5 -6 -5)
1969/12/31/18:00:08.674,(15 7 -19 -15 -6 -7 -9 -7)
1969/12/31/18:00:08.674,(-20 8 2 2 2 -1 -3 -13)
1969/12/31/18:00:08.691,(0 -34 -11 -7 -5 -5 -6 -14)
1969/12/31/18:00:08.691,(-4 -14 0 -1 4 1 1 -3)
1969/12/31/18:00:08.692,(-10 -4 -9 0 -1 -2 -4 4)
1969/12/31/18:00:08.692,(-3 12 7 1 1 5 17 6)
1969/12/31/18:00:08.716,(12 10 1 -3 -5 -5 -8 -6)
1969/12/31/18:00:08.716,(-18 -19 -20 -9 -3 0 5 1)
1969/12/31/18:00:08.717,(-14 -15 1 2 1 0 3 -6)
1969/12/31/18:00:08.717,(-2 -5 -13 -5 -4 -9 -22 -14)
1969/12/31/18:00:08.777,(12 18 4 0 1 2 6 -3)
1969/12/31/18:00:08.777,(-11 -29 -13 -2 -4 -4 -6 -3)
1969/12/31/18:00:08.778,(0 16 11 0 -2 1 9 -8)
1969/12/31/18:00:08.778,(11 -33 -24 -2 5 6 14 15)
1969/12/31/18:00:08.779,(2 8 -19 -9 -5 -8 -24 -15)
1969/12/31/18:00:08.779,(-13 44 76 30 10 3 -12 -11)
1969/12/31/18:00:08.802,(-10 -10 -4 -6 -7 -7 0 9)
1969/12/31/18:00:08.802,(-4 -13 -14 -5 -3 3 3 -3)
1969/12/31/18:00:08.804,(9 -14 -18 -7 -4 -3 10 3)
1969/12/31/18:00:08.804,(5 5 0 2 2 1 -20 5)
1969/12/31/18:00:08.805,(-17 -23 2 2 4 6 9 -13)
1969/12/31/18:00:08.805,(-2 22 0 -8 -8 -12 -18 -9)
1969/12/31/18:00:08.812,(-1 -2 1 2 3 5 12 11)
1969/12/31/18:00:08.812,(7 6 -6 -2 -1 0 -2 -9)
1969/12/31/18:00:08.812,(-9 -10 -3 1 -1 -3 -4 -5)
1969/12/31/18:00:08.812,(1 -9 -42 -19 -9 -4 -15 -7)
1969/12/31/18:00:08.825,(-3 54 65 24 8 6 25 2)
1969/12/31/18:00:08.825,(6 -6 -13 -7 -5 -10 -9 6)
1969/12/31/18:00:08.826,(-10 -22 -2 2 7 11 7 3)
1969/12/31/18:00:08.826,(-2 -2 -15 -6 -5 -10 -10 -8)
1969/12/31/18:00:08.850,(1 16 7 1 -2 -1 -6 -5)
1969/12/31/18:00:08.850,(-6 -29 -20 -6 -1 3 12 6)
1969/12/31/18:00:08.851,(-3 -3 3 4 0 -5 -11 -5)
1969/12/31/18:00:08.851,(1 9 15 3 1 7 14 11)
1969/12/31/18:00:08.866,(1 -10 -2 0 0 -2 -5 -1)
1969/12/31/18:00:08.866,(0 -8 -7 -4 -3 0 7 2)
1969/12/31/18:00:08.875,(2 9 0 -6 -4 -1 0 3)
1969/12/31/18:00:08.875,(-1 9 6 -1 -2 -3 -10 -7)
1969/12/31/18:00:08.910,(2 22 27 13 2 -3 -5 -12)
1969/12/31/18:00:08.910,(-26 -14 -12 -8 -5 -5 -10 -5)
1969/12/31/18:00:08.911,(-4 13 8 2 -2 -4 -8 -8)
1969/12/31/18:00:08.911,(0 -24 -10 -3 1 0 13 8)
1969/12/31/18:00:08.917,(4 -35 -26 -11 -2 3 -3 2)
1969/12/31/18:00:08.917,(2 30 15 7 4 3 11 2)
1969/12/31/18:00:08.918,(-4 -12 -4 -1 -2 -3 -11 -6)
1969/12/31/18:00:08.918,(-1 6 11 1 -1 -4 -2 -1)
1969/12/31/18:00:08.951,(1 -13 -18 -5 0 -1 -3 0)
1969/12/31/18:00:08.951,(-2 1 -1 0 -5 -3 -9 -2)
1969/12/31/18:00:08.951,(1 -2 -2 1 2 4 10 4)
1969/12/31/18:00:08.952,(-3 -2 -1 0 0 9 3 -2)
1969/12/31/18:00:08.952,(-1 -1 0 0 0 -8 2 0)
1969/12/31/18:00:08.953,(2 2 2 1 3 13 -3 2)
1969/12/31/18:00:08.953,(-3 -4 -4 -4 -6 -17 5 -2)
1969/12/31/18:00:08.958,(-2 -3 -3 1 1 0 -3 -2)
1969/12/31/18:00:08.958,(0 1 0 -2 -4 2 14 4)
1969/12/31/18:00:08.959,(1 2 0 1 -1 3 0 -1)
1969/12/31/18:00:08.959,(-2 0 2 -3 -3 -1 -5 -2)
1969/12/31/18:00:08.992,(0 0 1 0 2 -1 7 -1)
1969/12/31/18:00:08.992,(-2 -1 0 -1 -5 -3 -9 -5)
1969/12/31/18:00:08.995,(3 2 2 6 4 2 2 1)
1969/12/31/18:00:08.995,(-3 -5 -3 -2 2 7 -3 -5)
1969/12/31/18:00:08.995,(0 2 1 3 3 8 -15 0)
1969/12/31/18:00:08.995,(1 -1 -5 -7 -2 33 54 12)
1969/12/31/18:00:09.007,(1 1 -2 -4 2 -6 -8 4)
1969/12/31/18:00:09.007,(-2 -3 -1 -2 -15 -53 -10 -4)
1969/12/31/18:00:09.015,(0 1 2 5 10 38 -2 -3)
1969/12/31/18:00:09.015,(-3 -2 -1 -3 -12 -46 -4 -4)
1969/12/31/18:00:09.025,(-1 -1 0 -4 -1 2 16 4)
1969/12/31/18:00:09.025,(-5 -5 -5 -11 -9 -22 -56 -18)
1969/12/31/18:00:09.040,(0 -1 1 1 0 6 -5 2)
1969/12/31/18:00:09.040,(1 -1 0 4 4 12 9 3)
1969/12/31/18:00:09.043,(-2 -2 -4 -7 -5 -11 -7 -1)
1969/12/31/18:00:09.043,(1 2 2 4 5 18 14 3)
1969/12/31/18:00:09.065,(-1 -3 -9 -9 -7 -20 -6 -5)
1969/12/31/18:00:09.065,(-3 -4 5 2 4 9 -9 3)
1969/12/31/18:00:09.110,(-3 -3 -6 -1 -3 7 4 -4)
1969/12/31/18:00:09.110,(1 3 2 2 9 7 -5 5)
1969/12/31/18:00:09.111,(0 2 -3 -1 -2 -9 22 1)
1969/12/31/18:00:09.111,(-1 6 13 11 6 4 -77 -20)
1969/12/31/18:00:09.116,(0 -1 -2 4 -5 -41 -2 2)
1969/12/31/18:00:09.116,(-2 -4 -4 -3 -3 11 -7 -1)
1969/12/31/18:00:09.117,(-2 -6 -2 -8 -3 -9 3 -1)
1969/12/31/18:00:09.117,(-2 -2 -6 -5 -2 -2 6 -2)
1969/12/31/18:00:09.124,(2 7 4 2 -2 -23 5 1)
1969/12/31/18:00:09.124,(2 2 2 -2 0 9 -3 -3)
1969/12/31/18:00:09.141,(-1 -3 -4 -3 0 10 2 -2)
1969/12/31/18:00:09.142,(-3 -5 0 -6 -4 3 -22 -6)
1969/12/31/18:00:09.158,(1 1 2 10 3 -16 0 6)
1969/12/31/18:00:09.158,(1 1 3 3 -6 -22 4 -2)
1969/12/31/18:00:09.164,(-2 0 5 4 -1 -5 -6 -1)
1969/12/31/18:00:09.164,(-5 -11 -14 -5 -2 8 -4 -8)
1969/12/31/18:00:09.174,(-3 -2 -4 -11 -8 8 -3 0)
1969/12/31/18:00:09.174,(-2 2 -1 5 5 -4 -4 -4)
1969/12/31/18:00:09.177,(1 -3 -9 -6 0 1 13 1)
1969/12/31/18:00:09.177,(-2 -5 1 1 3 5 3 3)
1969/12/31/18:00:09.190,(-2 0 -1 -5 -2 -4 -3 1)
1969/12/31/18:00:09.190,(3 3 -6 1 -2 -5 8 -1)
1969/12/31/18:00:09.200,(-1 -1 6 0 1 11 -2 -1)
1969/12/31/18:00:09.200,(0 5 3 5 2 -1 15 -3)
1969/12/31/18:00:09.217,(-3 -6 -6 -7 -5 -6 -6 -12)
1969/12/31/18:00:09.217,(-3 -6 -4 -9 -1 7 -8 2)
1969/12/31/18:00:09.218,(-4 -3 1 -1 -3 -4 -7 -6)
1969/12/31/18:00:09.218,(0 2 0 1 -1 0 6 1)
1969/12/31/18:00:09.268,(0 5 10 5 -1 -5 -4 -4)
1969/12/31/18:00:09.268,(-2 0 -1 0 -2 5 6 -1)
1969/12/31/18:00:09.270,(-1 -1 0 -1 -3 -2 -6 -6)
1969/12/31/18:00:09.270,(0 -1 0 0 -1 1 13 4)
1969/12/31/18:00:09.271,(-4 -8 -3 -4 0 10 3 4)
1969/12/31/18:00:09.271,(0 5 4 5 0 -3 -4 -1)
1969/12/31/18:00:09.275,(2 -1 -3 -4 -3 -3 0 1)
1969/12/31/18:00:09.275,(1 2 1 0 -2 -3 -3 -1)
1969/12/31/18:00:09.284,(-1 -5 -9 -3 -3 -3 1 0)
1969/12/31/18:00:09.284,(-2 -4 -10 -5 0 0 3 7)
1969/12/31/18:00:09.285,(-1 2 -2 -2 -1 -2 -4 -2)
1969/12/31/18:00:09.285,(1 5 1 0 2 1 9 6)
1969/12/31/18:00:09.308,(0 -1 -2 1 1 -1 -2 -6)
1969/12/31/18:00:09.308,(-1 -4 -3 -5 -1 -1 2 1)
1969/12/31/18:00:09.310,(-1 0 1 2 -1 0 -2 -2)
1969/12/31/18:00:09.310,(1 0 0 0 -1 1 4 0)
1969/12/31/18:00:09.342,(2 1 1 0 -1 -4 0 3)
1969/12/31/18:00:09.342,(0 -6 -5 -3 -1 -1 -4 -4)
1969/12/31/18:00:09.344,(-2 2 -4 -2 -2 0 -3 -2)
1969/12/31/18:00:09.344,(0 4 7 2 0 0 2 1)
1969/12/31/18:00:09.358,(-2 -4 1 2 1 1 2 6)
1969/12/31/18:00:09.358,(3 2 -7 -4 -3 1 2 -2)
1969/12/31/18:00:09.361,(-3 3 8 2 1 1 -1 0)
1969/12/31/18:00:09.361,(-1 -3 -3 -2 -3 0 2 -1)
1969/12/31/18:00:09.419,(1 3 1 1 0 1 -3 -2)
1969/12/31/18:00:09.419,(-2 0 0 -3 -2 -2 -1 -1)
1969/12/31/18:00:09.421,(1 -1 -1 -2 -1 -1 -4 -3)
1969/12/31/18:00:09.421,(0 4 3 0 -2 -1 3 8)
1969/12/31/18:00:09.421,(-7 -10 -2 -1 -2 -2 -9 -20)
1969/12/31/18:00:09.421,(0 0 -1 1 0 2 10 5)
1969/12/31/18:00:09.427,(-4 -2 -2 0 -1 -3 -14 -6)
1969/12/31/18:00:09.427,(1 -3 -1 -2 0 2 9 4)
1969/12/31/18:00:09.428,(0 0 -3 0 1 -1 4 8)
1969/12/31/18:00:09.428,(-6 -2 -2 -3 -4 -3 -13 -12)
1969/12/31/18:00:09.451,(0 3 0 -2 -1 -2 2 -2)
1969/12/31/18:00:09.451,(1 3 1 -2 1 0 4 3)
1969/12/31/18:00:09.452,(1 0 -2 -1 0 -2 6 10)
1969/12/31/18:00:09.452,(0 -1 -3 -3 -3 -4 -5 -4)
1969/12/31/18:00:09.458,(4 2 0 -1 -2 -2 1 4)
1969/12/31/18:00:09.458,(-4 -4 -1 -1 0 -1 -3 -3)
1969/12/31/18:00:09.468,(-6 -1 0 -1 -1 -1 -2 -16)
1969/12/31/18:00:09.468,(4 -1 -2 -1 0 -5 2 6)
1969/12/31/18:00:09.485,(9 5 8 3 -1 9 7 26)
1969/12/31/18:00:09.485,(12 0 4 1 0 1 -2 -2)
1969/12/31/18:00:09.486,(-22 -6 0 -1 -2 -5 -5 -21)
1969/12/31/18:00:09.486,(-2 -3 -1 0 -2 9 6 -11)
1969/12/31/18:00:09.509,(5 4 3 2 -1 -5 -11 0)
1969/12/31/18:00:09.509,(9 2 2 2 -1 2 2 13)
1969/12/31/18:00:09.511,(1 -11 -4 -3 -3 1 -3 -6)
1969/12/31/18:00:09.511,(-3 3 2 3 2 6 -8 -9)
1969/12/31/18:00:09.525,(-10 -2 -2 -1 -6 -4 14 8)
1969/12/31/18:00:09.525,(23 8 -1 -1 -2 0 -1 1)
1969/12/31/18:00:09.562,(-17 -19 -6 -1 -1 -1 -1 -1)
1969/12/31/18:00:09.562,(-16 3 5 4 1 1 -3 2)
1969/12/31/18:00:09.563,(-22 -6 -5 -2 -3 -3 -16 -45)
1969/12/31/18:00:09.563,(23 11 3 2 3 -3 4 16)
1969/12/31/18:00:09.566,(-8 -9 -4 -4 -4 7 2 -4)
1969/12/31/18:00:09.566,(-1 -3 0 0 1 17 19 22)
1969/12/31/18:00:09.576,(62 29 6 0 -1 -17 -17 6)
1969/12/31/18:00:09.576,(-23 0 -4 -1 -4 -3 -18 -13)
1969/12/31/18:00:09.578,(-30 -28 -9 -3 -4 -31 -13 9)
1969/12/31/18:00:09.578,(31 20 9 3 10 26 -15 -11)
1969/12/31/18:00:09.592,(-36 -14 -5 -3 -9 -19 -17 -27)
1969/12/31/18:00:09.592,(14 4 3 2 2 -18 3 0)
1969/12/31/18:00:09.602,(14 13 3 3 1 18 2 12)
1969/12/31/18:00:09.602,(-50 -19 -6 -3 1 -3 -6 -14)
1969/12/31/18:00:09.619,(37 22 1 -1 -5 5 28 8)
1969/12/31/18:00:09.619,(13 -13 -3 -1 3 7 9 42)
1969/12/31/18:00:09.621,(-28 -16 -5 -5 -8 -9 -13 -49)
1969/12/31/18:00:09.621,(14 10 -2 0 -4 -8 11 -13)
1969/12/31/18:00:09.643,(49 23 6 5 8 14 11 34)
1969/12/31/18:00:09.643,(-16 -8 -8 -8 -7 -2 3 -8)
1969/12/31/18:00:09.645,(40 37 13 6 8 11 10 28)
1969/12/31/18:00:09.645,(3 -14 -4 -3 -7 -11 7 3)
1969/12/31/18:00:09.659,(-89 -49 -21 -13 -7 -11 -26 -38)
1969/12/31/18:00:09.659,(-16 -1 5 5 1 0 -7 -20)
1969/12/31/18:00:09.669,(16 4 -7 -4 -4 -2 -26 -38)
1969/12/31/18:00:09.669,(8 7 0 -1 -3 -11 7 23)
1969/12/31/18:00:09.684,(-24 -14 -1 2 8 32 8 3)
1969/12/31/18:00:09.684,(-17 -9 -5 -4 -2 6 -13 -42)
1969/12/31/18:00:09.720,(0 9 2 -3 -9 -7 44 19)
1969/12/31/18:00:09.720,(32 16 7 5 7 19 12 16)
1969/12/31/18:00:09.721,(8 -12 -11 -11 -6 4 -22 -41)
1969/12/31/18:00:09.721,(-29 -4 -4 -3 -3 -13 -3 -2)
1969/12/31/18:00:09.727,(39 11 5 3 -3 -12 -22 0)
1969/12/31/18:00:09.727,(19 5 3 4 6 5 -3 18)
1969/12/31/18:00:09.727,(6 3 6 6 8 16 35 53)
1969/12/31/18:00:09.727,(-20 -15 -9 -7 -8 -18 -9 -47)
1969/12/31/18:00:09.736,(4 2 -1 -1 -1 -5 5 7)
1969/12/31/18:00:09.736,(-8 -18 -5 -4 -3 -10 -23 -38)
1969/12/31/18:00:09.751,(2 -7 -7 -5 -9 -16 -13 18)
1969/12/31/18:00:09.751,(1 10 2 1 2 7 14 14)
1969/12/31/18:00:09.759,(-3 2 2 4 7 21 15 27)
1969/12/31/18:00:09.759,(-19 -2 -5 -4 -8 -23 -14 -30)
1969/12/31/18:00:09.777,(14 10 6 3 4 6 7 9)
1969/12/31/18:00:09.777,(31 4 4 2 -8 -37 17 26)
1969/12/31/18:00:09.779,(-11 0 -1 -2 5 6 -26 -28)
1969/12/31/18:00:09.779,(-7 -4 -2 -4 -9 -15 -14 12)
1969/12/31/18:00:09.803,(13 2 2 3 0 -2 45 59)
1969/12/31/18:00:09.803,(40 11 6 6 6 27 16 42)
1969/12/31/18:00:09.804,(-7 -4 -8 -5 -5 -35 -6 -24)
1969/12/31/18:00:09.804,(-58 -18 -3 -2 -3 -14 11 -15)
1969/12/31/18:00:09.817,(-7 2 8 9 11 15 -11 27)
1969/12/31/18:00:09.817,(6 13 -2 -4 -2 -7 -13 -6)
1969/12/31/18:00:09.827,(-21 -24 -11 -5 0 32 32 1)
1969/12/31/18:00:09.827,(-8 -5 -9 -10 -5 5 -36 -7)
1969/12/31/18:00:09.871,(-45 -16 -8 -6 -11 -15 34 -10)
1969/12/31/18:00:09.871,(-62 -23 -5 -2 -3 -1 -22 -43)
1969/12/31/18:00:09.872,(11 -3 3 2 0 1 16 37)
1969/12/31/18:00:09.873,(-14 -1 -5 -4 -3 -9 -34 -85)
1969/12/31/18:00:09.874,(16 8 2 -1 5 19 -6 -34)
1969/12/31/18:00:09.874,(17 5 -2 -2 -4 -11 -1 16)
1969/12/31/18:00:09.877,(-40 -14 -9 -9 -10 -11 -7 -29)
1969/12/31/18:00:09.877,(5 7 8 9 13 41 62 121)
1969/12/31/18:00:09.885,(9 -3 -2 -2 -12 -89 -76 -34)
1969/12/31/18:00:09.885,(-85 -34 -16 -15 -11 35 26 -74)
1969/12/31/18:00:09.893,(23 12 -1 -2 -5 -31 -22 -4)
1969/12/31/18:00:09.893,(-1 -23 -9 -6 -7 -2 4 10)
1969/12/31/18:00:09.911,(-8 11 7 3 7 14 2 2)
1969/12/31/18:00:09.911,(42 9 6 6 7 4 0 46)
1969/12/31/18:00:09.913,(-22 2 5 2 4 15 -9 -35)
1969/12/31/18:00:09.913,(21 11 2 -1 -1 -9 -13 -21)
1969/12/31/18:00:09.937,(-1 -2 -2 -1 -1 20 6 -44)
1969/12/31/18:00:09.937,(39 10 3 4 4 -6 -11 12)
1969/12/31/18:00:09.938,(31 12 1 -2 -1 3 -25 13)
1969/12/31/18:00:09.938,(26 12 4 2 3 1 18 37)
1969/12/31/18:00:09.952,(-20 -14 2 1 -1 -12 -22 -23)
1969/12/31/18:00:09.952,(-3 11 3 2 3 14 13 24)
1969/12/31/18:00:09.960,(0 -17 -8 -4 -4 -1 17 7)
1969/12/31/18:00:09.960,(-3 2 0 1 1 5 -10 -11)
1969/12/31/18:00:09.978,(-1 -6 -6 -5 -10 -40 -9 -27)
1969/12/31/18:00:09.978,(-6 6 2 0 -2 0 -2 -25)
1969/12/31/18:00:09.980,(29 8 7 7 8 14 15 110)
1969/12/31/18:00:09.980,(9 -7 -10 -6 -10 -17 8 11)
1969/12/31/18:00:10.038,(37 11 4 3 4 13 18 66)
1969/12/31/18:00:10.038,(36 15 6 4 9 17 -16 -2)
1969/12/31/18:00:10.040,(-52 -25 -8 -8 -12 -18 4 -68)
1969/12/31/18:00:10.040,(5 -8 -4 -1 1 -1 7 8)
1969/12/31/18:00:10.040,(-10 -12 -6 -4 -1 17 -1 6)
1969/12/31/18:00:10.040,(0 1 -2 -4 -5 -22 -13 -3)
1969/12/31/18:00:10.048,(85 52 21 16 19 31 29 102)
1969/12/31/18:00:10.048,(-61 -22 -14 -11 -17 -44 -49 -90)
1969/12/31/18:00:10.048,(-20 -1 -3 -1 7 27 1 -41)
1969/12/31/18:00:10.048,(3 -9 -3 -2 7 67 18 22)
1969/12/31/18:00:10.052,(29 20 8 7 0 -45 -6 22)
1969/12/31/18:00:10.052,(-5 -12 -4 -8 -16 -35 -16 -26)
1969/12/31/18:00:10.071,(34 19 2 0 2 5 23 44)
1969/12/31/18:00:10.071,(-33 -29 -6 -4 -4 -8 -15 -39)
1969/12/31/18:00:10.072,(26 13 10 13 11 7 3 12)
1969/12/31/18:00:10.072,(-12 12 5 5 10 35 18 -7)
1969/12/31/18:00:10.085,(-24 -14 -10 -10 -13 -11 -16 -5)
1969/12/31/18:00:10.085,(16 2 1 0 1 -1 8 25)
1969/12/31/18:00:10.095,(8 -9 -8 -5 -4 33 10 32)
1969/12/31/18:00:10.095,(23 18 9 9 3 -53 18 69)
1969/12/31/18:00:10.112,(-4 4 5 3 6 23 -21 -29)
1969/12/31/18:00:10.112,(-50 -12 -4 0 0 13 -10 -32)
1969/12/31/18:00:10.114,(-82 -34 -17 -11 -6 1 -34 -63)
1969/12/31/18:00:10.114,(37 3 8 7 5 3 19 27)
1969/12/31/18:00:10.138,(-5 9 4 2 -1 -4 26 -11)
1969/12/31/18:00:10.138,(29 3 -2 -1 -2 -20 -17 40)
1969/12/31/18:00:10.139,(-15 -9 -3 -4 -3 -8 -16 -36)
1969/12/31/18:00:10.139,(21 10 -2 -2 3 41 2 25)
1969/12/31/18:00:10.181,(-15 -19 -10 -6 -9 -7 5 -4)
1969/12/31/18:00:10.181,(34 11 10 7 8 5 3 4)
1969/12/31/18:00:10.183,(46 17 6 5 2 -25 26 49)
1969/12/31/18:00:10.183,(44 30 21 18 22 52 46 73)
1969/12/31/18:00:10.183,(-27 -15 -10 -10 -5 4 -38 -61)
1969/12/31/18:00:10.183,(8 -1 2 1 3 2 -5 25)
1969/12/31/18:00:10.188,(6 5 4 3 10 23 -4 21)
1969/12/31/18:00:10.188,(-26 -15 -10 -10 -13 -5 13 -40)
1969/12/31/18:00:10.204,(-24 2 -1 3 7 -4 -20 -37)
1969/12/31/18:00:10.204,(-25 -16 -4 -4 -15 -8 14 6)
1969/12/31/18:00:10.206,(-18 -3 1 0 4 5 -26 -72)
1969/12/31/18:00:10.206,(10 5 -2 2 9 15 15 24)
1969/12/31/18:00:10.220,(9 -4 1 -2 -11 -23 21 28)
1969/12/31/18:00:10.220,(-35 -3 -8 -8 -6 3 -25 -35)
1969/12/31/18:00:10.230,(11 2 0 5 16 -8 29 76)
1969/12/31/18:00:10.230,(-19 5 10 15 15 -2 -23 -20)
1969/12/31/18:00:10.246,(37 3 -4 -13 -19 -12 6 20)
1969/12/31/18:00:10.246,(3 7 1 -10 -40 -36 -4 -6)
1969/12/31/18:00:10.248,(11 1 4 -3 15 22 10 20)
1969/12/31/18:00:10.248,(-1 -1 0 -3 -4 -2 -19 2)
1969/12/31/18:00:10.281,(0 -13 -6 7 20 27 -14 10)
1969/12/31/18:00:10.281,(0 -3 3 16 17 -19 14 17)
1969/12/31/18:00:10.284,(-21 10 0 -10 -38 -8 2 30)
1969/12/31/18:00:10.284,(-23 -38 -27 -30 -18 -11 -14 -33)
1969/12/31/18:00:10.288,(18 15 6 5 36 33 10 48)
1969/12/31/18:00:10.288,(2 25 9 12 1 -26 17 5)
1969/12/31/18:00:10.289,(-27 -55 -17 -5 -10 -15 -28 -3)
1969/12/31/18:00:10.289,(1 1 2 0 9 17 -4 4)
1969/12/31/18:00:10.304,(4 7 8 13 27 28 23 3)
1969/12/31/18:00:10.304,(-22 -15 -17 -17 -29 -39 -15 -21)
1969/12/31/18:00:10.348,(-43 -1 -10 -9 -22 -17 -18 -59)
1969/12/31/18:00:10.348,(22 29 12 -1 -26 -18 -11 -36)
1969/12/31/18:00:10.348,(-34 -26 -10 -8 23 8 -7 -34)
1969/12/31/18:00:10.348,(-7 -18 -3 4 19 8 7 6)
1969/12/31/18:00:10.351,(2 6 0 -3 -15 21 11 -18)
1969/12/31/18:00:10.351,(3 -6 -7 -6 -10 -13 -14 -15)
1969/12/31/18:00:10.355,(6 20 7 4 -3 -36 6 75)
1969/12/31/18:00:10.355,(24 6 2 3 7 -6 0 38)
1969/12/31/18:00:10.356,(-33 -26 -20 -14 -18 -15 -5 -50)
1969/12/31/18:00:10.356,(11 17 16 9 -17 -15 -20 -2)
1969/12/31/18:00:10.371,(32 14 -12 -5 -13 2 12 10)
1969/12/31/18:00:10.371,(-27 -19 18 10 61 61 20 45)
1969/12/31/18:00:10.379,(15 46 15 5 -18 -33 -19 -5)
1969/12/31/18:00:10.379,(-47 -61 -19 -7 -9 -3 19 1)
1969/12/31/18:00:10.396,(36 19 16 10 -6 -9 -8 43)
1969/12/31/18:00:10.396,(16 -16 -59 -18 3 11 3 0)
1969/12/31/18:00:10.399,(-8 3 32 3 26 48 26 -10)
1969/12/31/18:00:10.399,(6 16 7 9 -22 -46 -31 29)
1969/12/31/18:00:10.412,(-15 -19 -1 -9 -32 -19 28 -12)
1969/12/31/18:00:10.412,(1 6 -27 -23 -13 -10 -29 -9)
1969/12/31/18:00:10.422,(12 21 15 10 33 20 12 21)
1969/12/31/18:00:10.422,(-11 6 22 9 23 33 27 -11)
1969/12/31/18:00:10.438,(-20 -17 -7 -5 -34 -31 -2 -19)
1969/12/31/18:00:10.438,(-6 -34 -18 -6 -9 3 -7 6)
1969/12/31/18:00:10.446,(-24 -17 -18 -10 -2 -12 -23 -31)
1969/12/31/18:00:10.446,(-7 -3 -9 -4 13 19 -1 -6)
1969/12/31/18:00:10.490,(-28 -10 -10 -2 -2 -27 -24 -17)
1969/12/31/18:00:10.490,(-2 7 32 5 -9 30 34 26)
1969/12/31/18:00:10.492,(34 15 -25 -9 20 8 -3 -34)
1969/12/31/18:00:10.492,(16 -28 -44 -6 36 12 -3 -17)
1969/12/31/18:00:10.494,(-5 -10 -3 -18 -68 -48 -38 -30)
1969/12/31/18:00:10.494,(-25 18 20 -2 -31 -24 -16 -53)
1969/12/31/18:00:10.497,(-27 57 89 39 31 31 22 22)
1969/12/31/18:00:10.497,(2 42 23 8 8 1 -20 -51)
1969/12/31/18:00:10.505,(14 -85 -92 -19 25 13 4 53)
1969/12/31/18:00:10.505,(-16 -3 -3 -17 -48 -37 -13 -106)
1969/12/31/18:00:10.513,(14 -69 -53 -20 -18 -22 -15 41)
1969/12/31/18:00:10.513,(20 71 54 20 37 36 34 30)
1969/12/31/18:00:10.529,(-47 -40 -13 -8 -7 -8 -38 -61)
1969/12/31/18:00:10.530,(5 15 -8 8 27 39 30 53)
1969/12/31/18:00:10.537,(-34 102 95 34 -14 -31 -2 -12)
1969/12/31/18:00:10.537,(26 -34 -29 -5 -16 -12 15 85)
1969/12/31/18:00:10.546,(16 5 -8 -3 -2 -7 -31 -74)
1969/12/31/18:00:10.546,(24 -58 -94 -25 62 55 11 31)
1969/12/31/18:00:10.556,(-8 52 53 29 -25 -39 30 26)
1969/12/31/18:00:10.556,(-10 -30 -11 0 -50 -35 -16 2)
1969/12/31/18:00:10.573,(-21 -37 -9 4 63 47 -1 -36)
1969/12/31/18:00:10.573,(23 33 17 -9 -86 -58 -22 26)
1969/12/31/18:00:10.579,(24 -92 -78 -38 12 43 9 -8)
1969/12/31/18:00:10.579,(3 5 -8 -16 3 -6 6 -13)
1969/12/31/18:00:10.596,(9 4 41 29 41 9 10 32)
1969/12/31/18:00:10.596,(-4 53 -16 9 48 39 14 -20)
1969/12/31/18:00:10.604,(-62 60 69 39 -60 -45 -34 -61)
1969/12/31/18:00:10.604,(89 -22 -56 1 23 12 -3 49)
1969/12/31/18:00:10.613,(-41 31 5 -3 -6 3 28 -46)
1969/12/31/18:00:10.613,(13 70 66 10 -8 -14 -13 -33)
1969/12/31/18:00:10.650,(22 -70 -96 -41 1 -1 -14 31)
1969/12/31/18:00:10.650,(-111 -33 3 11 11 3 -16 -128)
1969/12/31/18:00:10.651,(69 -77 -17 3 20 23 11 92)
1969/12/31/18:00:10.651,(-14 43 -4 5 10 -15 -7 -11)
1969/12/31/18:00:10.654,(13 62 57 14 -31 -20 16 -12)
1969/12/31/18:00:10.654,(-13 -74 -43 -16 1 3 -15 39)
1969/12/31/18:00:10.664,(25 -36 -66 -32 -32 -6 -1 34)
1969/12/31/18:00:10.664,(-22 2 66 24 16 -4 22 -11)
1969/12/31/18:00:10.671,(2 -46 -56 -23 7 24 -35 -39)
1969/12/31/18:00:10.671,(-12 30 9 -1 -31 -36 15 9)
1969/12/31/18:00:10.690,(-33 -7 -3 -11 -41 -9 -3 -34)
1969/12/31/18:00:10.690,(-14 -90 -38 14 85 28 20 6)
1969/12/31/18:00:10.691,(-13 56 -36 -28 -40 -18 -26 -29)
1969/12/31/18:00:10.691,(0 100 95 18 0 17 6 4)
1969/12/31/18:00:10.708,(21 2 -15 5 0 7 41 66)
1969/12/31/18:00:10.708,(9 -109 -29 1 1 1 -1 72)
1969/12/31/18:00:10.713,(-7 -34 -46 -2 59 7 -17 -22)
1969/12/31/18:00:10.713,(-35 32 38 11 -24 12 29 -11)
1969/12/31/18:00:10.731,(5 8 -29 -29 -13 -26 -47 -46)
1969/12/31/18:00:10.731,(15 55 59 26 -16 -15 -4 51)
1969/12/31/18:00:10.738,(9 -30 -39 -20 -2 0 1 -56)
1969/12/31/18:00:10.738,(17 -61 -42 -14 -8 -6 -16 8)
1969/12/31/18:00:10.757,(-9 109 119 49 38 30 35 48)
1969/12/31/18:00:10.757,(27 -90 -34 20 88 63 23 45)
1969/12/31/18:00:10.758,(-10 -18 -39 -40 -66 -43 -21 10)
1969/12/31/18:00:10.758,(-3 29 7 -35 -68 -71 -65 -16)
1969/12/31/18:00:10.800,(14 -4 -5 5 25 28 20 28)
1969/12/31/18:00:10.800,(5 -30 -24 -15 -37 -37 -34 -45)
1969/12/31/18:00:10.802,(-19 -51 -38 -11 41 28 -22 -30)
1969/12/31/18:00:10.802,(-14 31 25 21 37 19 -11 -1)
1969/12/31/18:00:10.804,(-3 16 1 -7 -33 -31 -31 -24)
1969/12/31/18:00:10.804,(-5 -22 -38 -25 -33 -18 30 10)
1969/12/31/18:00:10.807,(14 -3 19 20 27 24 28 69)
1969/12/31/18:00:10.807,(-13 -12 -34 -19 -22 -20 -54 -63)
1969/12/31/18:00:10.824,(24 -1 25 26 13 10 8 14)
1969/12/31/18:00:10.824,(-4 83 48 11 -9 5 2 -51)
1969/12/31/18:00:10.825,(44 -41 -36 -19 -18 -39 -16 -15)
1969/12/31/18:00:10.825,(-33 46 73 40 28 -6 -41 -70)
1969/12/31/18:00:10.840,(0 -62 -52 -5 36 17 45 2)
1969/12/31/18:00:10.840,(19 58 -39 -41 -95 -37 -56 -51)
1969/12/31/18:00:10.847,(-7 5 43 30 42 21 17 23)
1969/12/31/18:00:10.847,(18 -27 -33 -4 5 8 27 -32)
1969/12/31/18:00:10.865,(-37 -49 -27 -12 58 58 5 -36)
1969/12/31/18:00:10.865,(15 -24 -6 -11 -94 -106 -92 -38)
1969/12/31/18:00:10.873,(7 -50 -22 -3 55 65 50 28)
1969/12/31/18:00:10.873,(12 49 40 27 -13 -1 45 65)
1969/12/31/18:00:10.891,(-32 43 14 -24 -68 -56 -88 -60)
1969/12/31/18:00:10.891,(-22 -62 -41 -14 37 25 21 -16)
1969/12/31/18:00:10.892,(7 -16 15 4 -17 -4 21 55)
1969/12/31/18:00:10.892,(37 0 -31 3 67 41 45 38)
1969/12/31/18:00:10.906,(13 54 17 14 -16 1 25 76)
1969/12/31/18:00:10.906,(-1 -30 -24 -9 -16 -2 5 7)
1969/12/31/18:00:10.922,(-33 76 70 32 31 22 31 -16)
1969/12/31/18:00:10.922,(-28 -37 -53 -30 -38 -25 -1 10)
1969/12/31/18:00:10.957,(-16 -22 -41 12 33 12 -31 -46)
1969/12/31/18:00:10.957,(-14 102 91 15 -27 -23 6 26)
1969/12/31/18:00:10.967,(23 -87 -64 0 13 21 60 74)
1969/12/31/18:00:10.967,(35 -73 -75 -44 -26 -15 -37 14)
1969/12/31/18:00:10.968,(29 127 127 40 -14 -3 41 36)
1969/12/31/18:00:10.968,(-17 -121 -80 -9 62 49 29 28)
1969/12/31/18:00:10.969,(-11 2 22 12 -28 -9 -8 -22)
1969/12/31/18:00:10.969,(0 -73 -39 -8 10 -9 18 24)
1969/12/31/18:00:10.972,(22 53 11 -8 -31 -29 -4 28)
1969/12/31/18:00:10.972,(-28 16 20 8 35 26 -18 -21)
1969/12/31/18:00:11.001,(-3 -23 -12 -5 1 -10 -5 8)
1969/12/31/18:00:11.001,(48 -39 -37 6 38 22 23 60)
1969/12/31/18:00:11.001,(-69 -16 -1 -33 -65 -59 -65 -76)
1969/12/31/18:00:11.001,(40 40 29 18 22 35 34 38)
1969/12/31/18:00:11.006,(-14 -42 -39 -22 -49 -57 -61 -52)
1969/12/31/18:00:11.006,(24 53 39 -14 -45 16 17 24)
1969/12/31/18:00:11.025,(0 -54 -20 5 32 28 14 5)
1969/12/31/18:00:11.025,(45 -1 -33 -11 -13 -23 27 55)
1969/12/31/18:00:11.026,(-18 76 73 39 51 11 -46 -68)
1969/12/31/18:00:11.026,(12 -21 -32 1 20 23 -23 -16)
1969/12/31/18:00:11.039,(-27 -32 -31 -9 -45 -47 -1 13)
1969/12/31/18:00:11.039,(5 63 71 32 28 12 -18 -42)
1969/12/31/18:00:11.049,(17 -30 -52 -13 19 32 62 52)
1969/12/31/18:00:11.049,(-5 49 61 7 -27 -23 -46 -32)
1969/12/31/18:00:11.066,(-19 -44 -19 -17 -35 -19 -2 -21)
1969/12/31/18:00:11.066,(-15 -44 -37 -16 26 28 -8 -26)
1969/12/31/18:00:11.073,(8 6 -15 -6 -3 -25 6 11)
1969/12/31/18:00:11.073,(-54 -2 33 11 10 22 28 -18)
1969/12/31/18:00:11.110,(25 -51 -65 -9 57 45 28 -1)
1969/12/31/18:00:11.110,(-15 -44 -39 -26 -35 -32 15 8)
1969/12/31/18:00:11.111,(-45 127 94 -4 -62 -47 -70 -88)
1969/12/31/18:00:11.111,(11 -27 -35 -6 27 4 18 10)
1969/12/31/18:00:11.112,(-3 62 51 36 69 57 6 -15)
1969/12/31/18:00:11.112,(15 26 -26 -3 -44 -39 -12 -12)
1969/12/31/18:00:11.116,(1 -53 43 4 -38 -33 20 33)
1969/12/31/18:00:11.116,(10 -57 -56 -6 34 20 1 5)
1969/12/31/18:00:11.132,(5 85 50 -1 -5 -19 -54 -45)
1969/12/31/18:00:11.132,(-23 -15 -10 3 -3 12 -3 -15)
1969/12/31/18:00:11.140,(13 -5 -15 -8 -22 -16 -4 -12)
1969/12/31/18:00:11.140,(-24 -64 -34 -33 -36 -25 13 14)
1969/12/31/18:00:11.159,(31 67 81 41 54 57 74 80)
1969/12/31/18:00:11.159,(19 18 36 19 -10 -5 5 22)
1969/12/31/18:00:11.160,(17 -72 -102 -35 27 5 -21 26)
1969/12/31/18:00:11.160,(-20 127 123 44 -31 -12 -3 11)
1969/12/31/18:00:11.173,(13 -67 -83 -35 -9 2 28 7)
1969/12/31/18:00:11.173,(-52 -82 -18 -2 -3 -4 -17 -25)
1969/12/31/18:00:11.183,(4 37 18 7 0 -5 -10 -18)
1969/12/31/18:00:11.183,(30 14 -5 22 100 96 43 47)
1969/12/31/18:00:11.199,(0 22 6 3 -49 -78 -73 -52)
1969/12/31/18:00:11.199,(-11 -63 1 -18 -53 -17 44 54)
1969/12/31/18:00:11.207,(27 -39 -56 -6 30 18 -12 5)
1969/12/31/18:00:11.207,(-52 -16 -3 -25 -52 -57 5 -56)
1969/12/31/18:00:11.226,(-9 -36 -19 -17 -19 -25 -40 -2)
1969/12/31/18:00:11.226,(10 20 -17 -8 29 31 23 3)
1969/12/31/18:00:11.227,(-18 51 38 6 -26 7 -26 -4)
1969/12/31/18:00:11.227,(43 17 -33 -4 48 61 25 26)
1969/12/31/18:00:11.266,(-2 -67 -17 -2 -63 -61 51 62)
1969/12/31/18:00:11.266,(-44 50 81 29 40 -7 -61 -73)
1969/12/31/18:00:11.278,(-18 -48 -52 -17 16 27 34 13)
1969/12/31/18:00:11.278,(13 -33 -26 -15 -10 -2 1 3)
1969/12/31/18:00:11.279,(81 29 3 19 26 30 20 88)
1969/12/31/18:00:11.279,(-8 48 21 3 -9 -15 -36 -17)
1969/12/31/18:00:11.283,(-1 49 50 4 -35 -29 22 -23)
1969/12/31/18:00:11.284,(-18 6 41 19 13 -1 -11 -24)
1969/12/31/18:00:11.300,(-47 -101 -71 -23 18 48 -7 -24)
1969/12/31/18:00:11.300,(9 11 -43 -23 -43 -37 -27 -15)
1969/12/31/18:00:11.300,(82 52 54 42 79 60 10 43)
1969/12/31/18:00:11.300,(-13 -31 -10 -13 -63 -77 -4 -20)
1969/12/31/18:00:11.325,(-13 32 18 -12 -47 -51 -62 -41)
1969/12/31/18:00:11.325,(-19 -36 -5 3 42 38 11 -4)
1969/12/31/18:00:11.326,(-12 -30 -45 -14 -7 5 5 -7)
1969/12/31/18:00:11.326,(15 -27 -56 -12 62 75 18 16)
1969/12/31/18:00:11.342,(-21 79 104 42 -40 -49 -1 -36)
1969/12/31/18:00:11.342,(12 4 -11 -13 -15 -18 -12 -15)
1969/12/31/18:00:11.343,(18 5 -11 -4 3 10 11 30)
1969/12/31/18:00:11.343,(-15 -1 7 11 11 9 -11 -6)
1969/12/31/18:00:11.367,(19 -13 -45 -16 0 -2 21 7)
1969/12/31/18:00:11.367,(-26 1 15 3 11 4 -1 15)
1969/12/31/18:00:11.367,(6 -17 -5 4 -2 10 3 13)
1969/12/31/18:00:11.367,(-40 -14 -6 -13 -8 -33 -55 -78)
1969/12/31/18:00:11.420,(-17 -36 -58 -25 8 27 8 -8)
1969/12/31/18:00:11.420,(51 65 66 20 -45 -51 6 23)
1969/12/31/18:00:11.420,(-11 19 11 6 -14 -36 -26 -20)
1969/12/31/18:00:11.420,(0 -55 -48 -4 24 2 11 37)
1969/12/31/18:00:11.422,(-5 33 16 -14 -40 -3 8 11)
1969/12/31/18:00:11.422,(25 21 -12 -7 31 34 19 22)
1969/12/31/18:00:11.425,(-49 -71 -34 -23 -37 -43 -37 -28)
1969/12/31/18:00:11.425,(2 6 -15 -8 7 7 -24 2)
1969/12/31/18:00:11.434,(14 3 4 17 30 9 17 5)
1969/12/31/18:00:11.434,(-11 -18 -12 -10 -37 -53 -27 -28)
1969/12/31/18:00:11.434,(8 50 44 25 21 34 25 8)
1969/12/31/18:00:11.434,(-40 -71 -52 -28 -30 -26 -28 -13)
1969/12/31/18:00:11.459,(40 46 43 24 63 65 58 52)
1969/12/31/18:00:11.459,(-38 6 1 -16 -41 -48 -16 -51)
1969/12/31/18:00:11.460,(3 -97 -70 -25 -2 -10 -25 -23)
1969/12/31/18:00:11.460,(26 58 59 18 -8 7 20 13)
1969/12/31/18:00:11.478,(-55 -2 10 5 2 -4 -9 -61)
1969/12/31/18:00:11.478,(9 -2 -10 2 27 35 11 36)
1969/12/31/18:00:11.479,(3 -63 -39 -4 65 59 2 8)
1969/12/31/18:00:11.479,(-40 29 29 -17 -116 -112 -15 -13)
1969/12/31/18:00:11.501,(12 -6 -31 -21 14 17 -19 -12)
1969/12/31/18:00:11.501,(13 12 0 3 2 -1 10 16)
1969/12/31/18:00:11.501,(-13 -41 -27 3 50 62 19 7)
1969/12/31/18:00:11.502,(33 32 15 14 9 -8 37 49)
1969/12/31/18:00:11.526,(-12 -10 -14 -6 -29 -51 -31 -40)
1969/12/31/18:00:11.526,(-59 74 75 -2 -81 -31 -31 -107)
1969/12/31/18:00:11.527,(-15 -3 -9 -15 -30 -29 -9 -17)
1969/12/31/18:00:11.527,(5 -2 -3 7 15 24 -5 -1)
1969/12/31/18:00:11.543,(29 -119 -109 -26 50 46 23 28)
1969/12/31/18:00:11.543,(-2 48 60 45 25 24 6 31)
1969/12/31/18:00:11.544,(19 77 28 2 -22 -21 -3 -4)
1969/12/31/18:00:11.544,(-5 -7 2 11 16 18 26 -1)
1969/12/31/18:00:11.587,(-17 -16 -4 -2 -5 -7 -41 -15)
1969/12/31/18:00:11.587,(-21 -70 -70 -24 40 36 24 -18)
1969/12/31/18:00:11.588,(7 37 38 17 -4 4 -9 11)
1969/12/31/18:00:11.588,(17 -18 -38 -20 -24 -20 14 9)
1969/12/31/18:00:11.593,(-9 66 73 25 3 -20 -7 10)
1969/12/31/18:00:11.593,(-24 -31 -15 -7 -8 12 3 -15)
1969/12/31/18:00:11.594,(23 44 35 5 -19 -26 30 31)
1969/12/31/18:00:11.594,(-26 -25 -20 7 55 58 -39 -78)
1969/12/31/18:00:11.610,(26 -27 -59 -36 -32 -38 21 35)
1969/12/31/18:00:11.610,(-19 10 71 28 17 8 7 16)
1969/12/31/18:00:11.611,(-6 -18 -21 -5 14 15 10 -16)
1969/12/31/18:00:11.611,(29 -14 -18 0 -8 -8 14 33)
1969/12/31/18:00:11.635,(9 58 55 30 48 43 -12 -39)
1969/12/31/18:00:11.635,(-7 -92 -86 -27 -19 -34 7 27)
1969/12/31/18:00:11.635,(2 65 63 11 -25 -3 14 14)
1969/12/31/18:00:11.635,(-37 3 20 3 2 -15 -21 -64)
1969/12/31/18:00:11.651,(7 -34 -43 -13 -4 13 5 26)
1969/12/31/18:00:11.651,(48 -53 -57 -21 24 11 10 40)
1969/12/31/18:00:11.660,(-40 3 7 -21 -49 -55 -44 -60)
1969/12/31/18:00:11.660,(1 32 28 12 9 6 24 48)
1969/12/31/18:00:11.677,(-5 24 31 32 97 96 27 8)
1969/12/31/18:00:11.677,(36 40 13 20 -42 -52 4 27)
1969/12/31/18:00:11.678,(11 -21 -34 -56 -80 -92 -62 11)
1969/12/31/18:00:11.678,(-14 -7 21 -2 25 10 -18 -35)
1969/12/31/18:00:11.729,(28 -32 -41 -22 -15 -3 9 38)
1969/12/31/18:00:11.729,(6 -1 10 33 84 75 34 26)
1969/12/31/18:00:11.730,(34 23 -13 8 10 16 11 25)
1969/12/31/18:00:11.730,(13 18 41 6 -31 -21 3 44)
1969/12/31/18:00:11.732,(-29 -48 -6 -1 -13 5 1 -19)
1969/12/31/18:00:11.732,(28 47 7 -1 4 -5 -10 -8)
1969/12/31/18:00:11.736,(-2 1 1 4 -5 -2 -14 -36)
1969/12/31/18:00:11.736,(11 -34 -37 -17 -11 -21 -21 -40)
1969/12/31/18:00:11.744,(-16 86 83 28 1 5 2 -20)
1969/12/31/18:00:11.744,(6 -19 -17 0 45 50 11 18)
1969/12/31/18:00:11.745,(-13 -49 -49 -14 -37 -24 12 2)
1969/12/31/18:00:11.745,(5 -26 -37 -16 -21 -15 -40 4)
1969/12/31/18:00:11.778,(-21 50 91 23 -49 -30 0 -8)
1969/12/31/18:00:11.778,(2 -25 -28 -25 -8 -1 -11 -13)
1969/12/31/18:00:11.779,(-14 18 3 21 64 49 24 -17)
1969/12/31/18:00:11.779,(29 32 17 25 37 57 52 49)
1969/12/31/18:00:11.785,(10 42 20 3 -30 -57 -23 0)
1969/12/31/18:00:11.785,(11 -25 -38 -14 24 47 0 19)
1969/12/31/18:00:11.793,(-7 -31 30 22 35 10 50 40)
1969/12/31/18:00:11.793,(1 22 -10 -10 -12 -19 -44 -18)
1969/12/31/18:00:11.810,(6 -12 -21 -29 -72 -47 15 16)
1969/12/31/18:00:11.810,(-28 17 12 5 -7 -4 1 -16)
1969/12/31/18:00:11.812,(27 -15 -18 1 11 17 12 35)
1969/12/31/18:00:11.812,(-9 5 -6 -1 19 22 12 -3)
1969/12/31/18:00:11.835,(-17 -35 -25 5 29 14 8 10)
1969/12/31/18:00:11.835,(30 18 23 2 -9 -11 16 62)
1969/12/31/18:00:11.836,(-29 -10 -10 -8 -10 -7 -42 -72)
1969/12/31/18:00:11.836,(15 -6 -1 -1 11 22 28 38)
1969/12/31/18:00:11.888,(-23 20 21 13 16 -21 -50 -36)
1969/12/31/18:00:11.888,(17 -6 -19 -27 -55 -32 0 3)
1969/12/31/18:00:11.888,(-1 -17 -14 -8 8 2 -1 9)
1969/12/31/18:00:11.888,(3 40 20 4 -10 -25 -22 -10)
1969/12/31/18:00:11.895,(11 -44 -37 -5 29 31 22 13)
1969/12/31/18:00:11.895,(13 53 28 14 17 12 61 48)
1969/12/31/18:00:11.896,(-12 9 21 5 -28 -25 -57 -72)
1969/12/31/18:00:11.896,(-19 -30 -19 -20 -19 -35 -31 -41)
1969/12/31/18:00:11.903,(-4 -29 -27 -14 -8 -3 4 8)
1969/12/31/18:00:11.903,(-12 -23 -13 -5 22 17 -1 -8)
1969/12/31/18:00:11.903,(12 9 2 5 4 17 29 36)
1969/12/31/18:00:11.903,(-3 5 10 0 4 -5 -9 0)
1969/12/31/18:00:11.928,(9 5 -6 2 1 9 14 14)
1969/12/31/18:00:11.928,(-19 -18 -6 1 -3 -22 -43 -62)
1969/12/31/18:00:11.929,(-5 0 0 -4 -26 -19 9 13)
1969/12/31/18:00:11.929,(3 16 13 4 17 11 3 3)
1969/12/31/18:00:11.944,(-7 -48 -42 -27 -25 -4 7 -2)
1969/12/31/18:00:11.944,(-16 -8 -16 -5 -1 -4 -24 -28)
1969/12/31/18:00:11.946,(-12 28 39 21 24 29 7 -8)
1969/12/31/18:00:11.946,(37 77 49 28 20 7 36 37)
1969/12/31/18:00:11.969,(16 -2 -8 -17 -32 -22 -13 14)
1969/12/31/18:00:11.969,(-14 -35 -30 -12 -2 19 -5 -69)
1969/12/31/18:00:11.970,(-4 -13 -11 -4 -5 -50 -33 4)
1969/12/31/18:00:11.970,(1 -3 0 -1 -3 17 -7 -11)
1969/12/31/18:00:11.995,(10 0 -7 -1 7 9 22 44)
1969/12/31/18:00:11.995,(-28 5 12 5 8 6 2 15)
1969/12/31/18:00:11.996,(10 9 4 2 24 32 13 -8)
1969/12/31/18:00:11.996,(8 -11 -8 -3 -18 -13 -10 -12)
1969/12/31/18:00:12.038,(6 4 0 3 -4 -18 -27 -23)
1969/12/31/18:00:12.039,(8 3 6 -2 -2 -5 -8 10)
1969/12/31/18:00:12.039,(3 12 2 2 5 9 8 12)
1969/12/31/18:00:12.039,(-15 -27 -11 -8 -23 -17 -4 9)
1969/12/31/18:00:12.042,(-3 9 6 -4 5 9 -16 -46)
1969/12/31/18:00:12.042,(-10 -1 -1 3 -5 -23 -4 -6)
1969/12/31/18:00:12.045,(-27 -20 -12 -3 -2 7 -5 -2)
1969/12/31/18:00:12.045,(-24 -12 -3 1 -2 12 -3 -29)
1969/12/31/18:00:12.063,(16 2 1 4 6 -2 4 11)
1969/12/31/18:00:12.063,(-2 6 2 -8 -8 -6 -6 4)
1969/12/31/18:00:12.063,(12 0 -3 -2 6 10 16 20)
1969/12/31/18:00:12.063,(-8 -6 -5 -2 -5 -5 7 27)
1969/12/31/18:00:12.078,(31 11 5 4 4 8 17 53)
1969/12/31/18:00:12.078,(-24 -24 -11 -12 -12 -13 2 -6)
1969/12/31/18:00:12.078,(-10 -5 -5 -2 1 2 -4 -13)
1969/12/31/18:00:12.078,(13 5 4 3 3 10 3 2)
1969/12/31/18:00:12.103,(-9 4 2 3 0 -1 6 -9)
1969/12/31/18:00:12.103,(27 15 6 5 -2 -12 -13 1)
1969/12/31/18:00:12.104,(25 12 6 5 11 15 14 20)
1969/12/31/18:00:12.104,(-7 -9 -4 -5 -6 -9 -5 -3)
1969/12/31/18:00:12.130,(-55 -28 -14 -17 -12 -16 12 -21)
1969/12/31/18:00:12.130,(6 -1 -1 -28 -24 31 4 -2)
1969/12/31/18:00:12.131,(-32 -13 -4 10 8 -22 -33 -36)
1969/12/31/18:00:12.131,(21 18 15 51 40 14 33 20)
1969/12/31/18:00:12.145,(-4 -22 -5 6 2 -12 -22 -7)
1969/12/31/18:00:12.145,(-58 -21 -9 -4 -3 31 -16 -68)
1969/12/31/18:00:12.146,(40 10 -4 -25 -27 -60 0 44)
1969/12/31/18:00:12.146,(-25 -17 -9 -18 -7 6 -5 -9)
1969/12/31/18:00:12.196,(-1 19 16 15 11 9 0 -20)
1969/12/31/18:00:12.196,(32 8 -3 -3 -2 -18 -18 -31)
1969/12/31/18:00:12.197,(-38 -11 -4 -5 2 21 13 -10)
1969/12/31/18:00:12.197,(-43 -19 -6 -9 -11 -15 -16 -38)
1969/12/31/18:00:12.207,(-33 -6 -2 -4 0 9 10 5)
1969/12/31/18:00:12.207,(-6 6 2 7 3 -13 -22 -22)
1969/12/31/18:00:12.207,(49 26 12 12 8 13 5 28)
1969/12/31/18:00:12.207,(22 3 6 1 -4 -2 9 44)
1969/12/31/18:00:12.212,(7 18 6 2 3 18 2 -22)
1969/12/31/18:00:12.212,(54 10 1 7 7 -12 -6 22)
1969/12/31/18:00:12.213,(-44 -15 -16 -9 -5 1 -6 -30)
1969/12/31/18:00:12.213,(9 0 -1 -7 -11 -10 -21 -34)
1969/12/31/18:00:12.237,(32 -3 0 1 5 8 19 65)
1969/12/31/18:00:12.237,(-67 -31 -2 5 3 -15 -6 -13)
1969/12/31/18:00:12.238,(-14 -4 2 1 2 12 17 7)
1969/12/31/18:00:12.238,(54 17 -2 -5 -3 4 20 71)
1969/12/31/18:00:12.264,(-62 -22 -16 -10 -12 -21 -42 -91)
1969/12/31/18:00:12.264,(54 39 17 13 7 4 22 59)
1969/12/31/18:00:12.264,(-9 -43 -16 -10 -6 7 4 37)
1969/12/31/18:00:12.264,(-41 -12 -12 -15 -14 -21 -29 -62)
1969/12/31/18:00:12.279,(16 -19 -5 -3 -1 -3 -2 20)
1969/12/31/18:00:12.279,(-52 -13 -9 -8 -3 -7 -6 -21)
1969/12/31/18:00:12.280,(62 40 26 19 13 12 13 30)
1969/12/31/18:00:12.280,(-23 -7 -3 -3 -4 -3 -6 -18)
1969/12/31/18:00:12.304,(48 16 1 0 0 6 20 62)
1969/12/31/18:00:12.304,(18 8 5 2 -2 -3 2 -3)
1969/12/31/18:00:12.305,(-13 -11 -13 -8 -5 -5 -15 -33)
1969/12/31/18:00:12.305,(-3 -9 -6 -7 -5 -4 -4 -8)
1969/12/31/18:00:12.350,(12 20 10 4 1 2 -5 -11)
1969/12/31/18:00:12.350,(6 -5 -1 1 0 -5 -2 26)
1969/12/31/18:00:12.351,(47 20 6 8 7 11 18 53)
1969/12/31/18:00:12.351,(3 21 11 6 7 11 18 5)
1969/12/31/18:00:12.355,(-68 -31 -9 -6 -3 -7 -13 -49)
1969/12/31/18:00:12.355,(34 7 -3 -1 1 -1 6 18)
1969/12/31/18:00:12.356,(-11 10 1 -1 -3 -1 -10 -21)
1969/12/31/18:00:12.356,(10 -2 3 3 0 2 9 26)
1969/12/31/18:00:12.371,(30 10 -1 -1 1 1 5 11)
1969/12/31/18:00:12.371,(-4 9 2 -1 -1 -4 -2 -4)
1969/12/31/18:00:12.372,(-5 -11 -2 -1 0 2 2 -3)
1969/12/31/18:00:12.372,(-23 -6 -2 -1 -3 -3 -6 -8)
1969/12/31/18:00:12.398,(-8 0 -3 -1 -4 -4 -12 -39)
1969/12/31/18:00:12.398,(1 -11 0 1 3 1 1 5)
1969/12/31/18:00:12.399,(-7 -5 -5 -7 -4 -2 -8 -15)
1969/12/31/18:00:12.399,(-13 -11 -4 -4 -2 -3 -8 1)
1969/12/31/18:00:12.413,(23 13 4 1 1 4 5 9)
1969/12/31/18:00:12.413,(7 -1 1 0 -1 1 6 6)
1969/12/31/18:00:12.414,(-2 -1 0 2 -1 1 -1 -12)
1969/12/31/18:00:12.414,(5 -1 0 1 -1 -3 -5 -5)
1969/12/31/18:00:12.439,(15 0 -1 -3 -2 1 -1 1)
1969/12/31/18:00:12.439,(-12 -2 -2 0 -1 0 -2 2)
1969/12/31/18:00:12.439,(-25 -10 -2 -3 -2 -3 -9 -18)
1969/12/31/18:00:12.439,(0 -4 -3 -2 -3 -1 -3 -1)
1969/12/31/18:00:12.465,(6 8 0 -2 -2 -3 -1 3)
1969/12/31/18:00:12.465,(-2 0 1 4 1 1 2 8)
1969/12/31/18:00:12.465,(-18 -19 -9 -5 -4 -4 -5 -10)
1969/12/31/18:00:12.465,(6 3 -2 -3 -2 0 -1 -2)
1969/12/31/18:00:12.517,(-1 -5 -1 -1 0 0 -2 3)
1969/12/31/18:00:12.517,(-12 -7 -3 -3 -1 -2 -3 -7)
1969/12/31/18:00:12.518,(-1 13 11 3 1 1 1 -4)
1969/12/31/18:00:12.518,(-1 -7 -5 -2 -2 -1 -4 -22)
1969/12/31/18:00:12.523,(-8 3 0 1 -2 -2 -2 6)
1969/12/31/18:00:12.523,(2 1 -5 -3 0 -3 -5 -3)
1969/12/31/18:00:12.524,(1 -2 3 3 0 -1 -3 -4)
1969/12/31/18:00:12.524,(-14 0 2 -3 -2 -4 -3 -5)
1969/12/31/18:00:12.531,(-5 -4 -5 -2 -1 -1 -3 -6)
1969/12/31/18:00:12.531,(3 2 -2 0 -2 2 2 -2)
1969/12/31/18:00:12.531,(1 -3 -2 -1 0 -3 0 -1)
1969/12/31/18:00:12.531,(8 4 -7 -7 -2 -1 1 8)
1969/12/31/18:00:12.546,(-18 -11 10 12 5 5 9 -1)
1969/12/31/18:00:12.546,(8 3 1 -1 -1 -4 -12 4)
1969/12/31/18:00:12.555,(-8 -7 -10 -6 -5 -5 -9 -12)
1969/12/31/18:00:12.555,(1 -3 -2 -1 -2 -2 -2 1)
1969/12/31/18:00:12.572,(3 -9 -18 -10 -4 -2 0 -1)
1969/12/31/18:00:12.572,(1 13 19 8 3 6 7 2)
1969/12/31/18:00:12.573,(0 5 2 0 3 4 11 4)
1969/12/31/18:00:12.573,(-3 -1 -1 0 -5 -7 -26 -10)
1969/12/31/18:00:12.598,(2 7 -3 -9 -5 -4 -4 -4)
1969/12/31/18:00:12.598,(-10 -15 -8 -3 -3 -2 -2 -8)
1969/12/31/18:00:12.600,(3 -9 -3 -2 -3 -1 -1 0)
1969/12/31/18:00:12.600,(17 -10 -11 -3 1 3 14 12)
1969/12/31/18:00:12.613,(3 28 34 11 7 4 2 21)
1969/12/31/18:00:12.613,(-8 -7 -17 -11 -8 -10 -10 -9)
1969/12/31/18:00:12.623,(-5 3 1 -2 -2 -1 4 -6)
1969/12/31/18:00:12.623,(0 -12 -11 -2 2 6 7 1)
1969/12/31/18:00:12.656,(4 -19 -13 -3 -3 -2 15 6)
1969/12/31/18:00:12.656,(5 16 15 3 1 -6 -27 -5)
1969/12/31/18:00:12.658,(1 -2 1 3 2 5 6 5)
1969/12/31/18:00:12.658,(0 7 8 2 -3 -3 14 10)
1969/12/31/18:00:12.665,(-6 -4 -10 -2 0 1 -16 -16)
1969/12/31/18:00:12.665,(3 -5 -3 -1 0 5 24 9)
1969/12/31/18:00:12.665,(-5 -3 -5 -4 -3 -7 -22 -11)
1969/12/31/18:00:12.665,(-2 -1 3 -1 -1 0 7 6)
1969/12/31/18:00:12.690,(-3 -2 -2 -2 -3 -3 -5 -5)
1969/12/31/18:00:12.690,(4 0 2 4 4 0 3 0)
1969/12/31/18:00:12.691,(4 6 2 -2 0 1 -5 0)
1969/12/31/18:00:12.691,(-3 -3 -1 -4 -3 -2 1 -3)
1969/12/31/18:00:12.707,(-6 -9 -6 1 -1 -3 -4 -9)
1969/12/31/18:00:12.707,(1 7 7 4 0 3 0 0)
1969/12/31/18:00:12.708,(-1 -1 -4 -4 -5 -7 -11 -5)
1969/12/31/18:00:12.708,(0 7 4 4 3 3 -3 -2)
1969/12/31/18:00:12.732,(-3 -6 -7 -2 -1 2 5 -1)
1969/12/31/18:00:12.732,(-5 -7 -8 -7 -6 -3 -15 -3)
1969/12/31/18:00:12.733,(0 4 3 0 1 2 10 -3)
1969/12/31/18:00:12.733,(-2 0 1 -2 -2 -4 -9 -1)
1969/12/31/18:00:12.747,(2 0 -2 -5 -4 -3 -2 -6)
1969/12/31/18:00:12.747,(2 -1 -1 3 5 0 -2 4)
1969/12/31/18:00:12.756,(-9 -1 0 1 -2 -2 -5 -11)
1969/12/31/18:00:12.756,(-2 -4 -2 0 -1 1 -3 0)
1969/12/31/18:00:12.774,(-4 2 3 0 1 0 8 0)
1969/12/31/18:00:12.774,(4 1 0 -1 1 0 0 4)
1969/12/31/18:00:12.781,(-1 -8 -7 -3 -4 -3 2 1)
1969/12/31/18:00:12.781,(0 -1 -5 1 1 1 5 -2)
1969/12/31/18:00:12.826,(-2 8 7 1 -3 -2 -11 -2)
1969/12/31/18:00:12.826,(-3 -8 -10 -6 -3 0 6 -1)
1969/12/31/18:00:12.827,(0 3 7 5 0 0 2 4)
1969/12/31/18:00:12.827,(-3 -5 -2 -1 0 0 2 0)
1969/12/31/18:00:12.828,(2 0 2 0 -1 -6 -12 -4)
1969/12/31/18:00:12.828,(-2 -2 -2 -2 1 2 0 -2)
1969/12/31/18:00:12.832,(1 -6 -3 0 2 6 13 6)
1969/12/31/18:00:12.832,(-1 0 2 -3 -4 -6 -4 -1)
1969/12/31/18:00:12.842,(-4 -4 -5 -7 -4 -3 -6 -4)
1969/12/31/18:00:12.842,(-3 -6 -1 0 -1 -3 0 -3)
1969/12/31/18:00:12.843,(-4 -9 -9 -5 -1 1 -4 2)
1969/12/31/18:00:12.843,(1 3 7 7 2 0 -1 1)
1969/12/31/18:00:12.866,(5 9 2 4 1 1 2 0)
1969/12/31/18:00:12.866,(-8 -5 -3 -1 -2 0 -1 -8)
1969/12/31/18:00:12.866,(-7 -2 -1 0 -1 -2 -4 -6)
1969/12/31/18:00:12.867,(-6 -4 -4 -4 -1 -3 -9 -7)
1969/12/31/18:00:12.881,(0 -5 -7 -6 -2 0 0 3)
1969/12/31/18:00:12.881,(8 4 0 0 0 2 4 6)
1969/12/31/18:00:12.891,(-3 -1 -1 -2 -3 -4 0 -2)
1969/12/31/18:00:12.891,(0 1 1 -1 -1 -2 -6 -7)
1969/12/31/18:00:12.906,(-2 -3 -3 -1 -1 -1 -3 0)
1969/12/31/18:00:12.906,(0 -2 -3 -7 -6 -2 3 -2)
1969/12/31/18:00:12.908,(9 10 8 9 8 3 0 10)
1969/12/31/18:00:12.908,(1 -1 -4 -4 -4 0 -3 -2)
1969/12/31/18:00:12.932,(-6 -4 -1 0 -1 -4 -9 -8)
1969/12/31/18:00:12.932,(2 5 3 2 3 -3 -2 0)
1969/12/31/18:00:12.985,(-3 0 -4 -2 -1 3 -4 -3)
1969/12/31/18:00:12.985,(2 0 -2 -3 1 1 5 3)
1969/12/31/18:00:12.986,(-3 -6 -8 -3 -1 -1 -1 0)
1969/12/31/18:00:12.986,(2 0 -2 -4 1 3 7 4)
1969/12/31/18:00:12.987,(3 5 4 5 4 2 -2 1)
1969/12/31/18:00:12.988,(-4 -4 -4 -2 -7 -14 1 -6)
1969/12/31/18:00:12.992,(0 2 1 0 8 26 2 1)
1969/12/31/18:00:12.992,(-4 -4 -3 -8 -11 -43 11 0)
1969/12/31/18:00:12.994,(0 -3 -3 0 -9 -4 14 4)
1969/12/31/18:00:12.994,(-7 -3 -3 -6 -3 4 -28 -11)
1969/12/31/18:00:13.000,(0 -3 0 12 16 0 4 0)
1969/12/31/18:00:13.000,(0 0 -6 -24 -3 -20 -16 -4)
1969/12/31/18:00:13.000,(2 7 6 25 -3 58 13 -3)
1969/12/31/18:00:13.000,(-2 -1 -2 -6 -4 -40 6 -4)
1969/12/31/18:00:13.026,(-5 -2 -3 -4 -8 -2 -20 -5)
1969/12/31/18:00:13.026,(1 -3 -1 7 5 9 1 1)
1969/12/31/18:00:13.027,(-4 -7 -10 -20 -9 -27 -12 -5)
1969/12/31/18:00:13.027,(2 3 6 6 5 16 -3 -1)
1969/12/31/18:00:13.040,(0 0 0 -4 -4 -2 7 3)
1969/12/31/18:00:13.040,(-3 -5 -3 -1 -1 5 5 -1)
1969/12/31/18:00:13.042,(3 2 3 3 8 -6 -6 -2)
1969/12/31/18:00:13.042,(1 1 3 4 2 12 4 1)
1969/12/31/18:00:13.067,(-5 -5 -1 -5 -3 -14 7 2)
1969/12/31/18:00:13.067,(-1 -1 1 6 0 11 -9 -7)
1969/12/31/18:00:13.067,(-2 -3 -2 -6 2 -3 4 1)
1969/12/31/18:00:13.067,(1 -4 -3 -4 -1 5 9 9)
1969/12/31/18:00:13.067,(-3 -3 -2 -4 -2 -1 -2 -3)
1969/12/31/18:00:13.067,(0 1 -1 0 0 -1 -2 -2)
1969/12/31/18:00:13.068,(1 1 4 1 -1 0 -1 1)
1969/12/31/18:00:13.068,(-1 -3 1 -2 1 0 -2 0)
1969/12/31/18:00:13.069,(0 -2 -6 -4 -4 -2 0 -1)
1969/12/31/18:00:13.069,(1 0 -5 -2 -1 0 -2 -1)
1969/12/31/18:00:13.074,(-2 -2 -4 0 0 -1 -2 -2)
1969/12/31/18:00:13.074,(-2 -2 -2 -1 -1 -1 -2 -2)
1969/12/31/18:00:13.075,(1 0 2 -1 -2 -1 -1 0)
1969/12/31/18:00:13.075,(2 2 -2 -3 -3 -2 0 1)
1969/12/31/18:00:13.098,(-2 1 1 3 1 0 0 0)
1969/12/31/18:00:13.098,(0 0 0 1 -1 0 0 -2)
1969/12/31/18:00:13.101,(2 0 -1 -2 -1 -1 2 1)
1969/12/31/18:00:13.101,(1 1 2 2 0 0 -1 0)
1969/12/31/18:00:13.105,(-1 -2 0 -2 0 -2 -1 -2)
1969/12/31/18:00:13.105,(0 -2 -3 -3 -2 -1 0 0)
1969/12/31/18:00:13.124,(0 3 5 5 3 1 1 1)
1969/12/31/18:00:13.124,(-1 -1 1 -1 -1 -1 -2 0)
1969/12/31/18:00:13.132,(0 -1 -2 -1 -2 -2 -2 1)
1969/12/31/18:00:13.132,(-1 -3 -2 1 0 -1 -2 -3)
1969/12/31/18:00:13.139,(0 1 1 1 -1 -1 0 -1)
1969/12/31/18:00:13.139,(0 -1 3 2 0 0 2 0)
1969/12/31/18:00:13.158,(-1 -1 -2 -2 -3 -1 -1 0)
1969/12/31/18:00:13.158,(-2 -2 0 0 0 -1 -1 0)
1969/12/31/18:00:13.159,(-1 -1 1 -2 -2 0 -3 0)
1969/12/31/18:00:13.159,(-1 -2 -3 -3 0 -1 0 -1)
1969/12/31/18:00:13.217,(0 -2 -1 -4 -1 -2 -1 -1)
1969/12/31/18:00:13.217,(-3 -3 -5 -4 -2 -1 -1 -3)
1969/12/31/18:00:13.219,(0 4 5 2 -1 -1 0 -1)
1969/12/31/18:00:13.219,(-2 1 -2 0 0 1 -2 2)
1969/12/31/18:00:13.220,(-2 -2 1 0 0 0 -1 -3)
1969/12/31/18:00:13.220,(-2 -1 -3 -5 -1 -1 -1 -1)
1969/12/31/18:00:13.227,(0 2 1 0 -1 0 -1 2)
1969/12/31/18:00:13.227,(0 -1 -1 1 -1 -2 0 -1)
1969/12/31/18:00:13.228,(-1 0 -2 -1 -2 -1 -1 -1)
1969/12/31/18:00:13.228,(-1 -1 -1 -2 -1 1 -1 0)
1969/12/31/18:00:13.231,(0 -1 -4 -1 -2 -2 -1 -1)
1969/12/31/18:00:13.231,(0 -1 -2 -1 -1 -2 -1 -2)
1969/12/31/18:00:13.239,(1 -2 0 0 0 -2 -1 1)
1969/12/31/18:00:13.239,(-1 0 -1 -3 -2 -3 -2 -1)
1969/12/31/18:00:13.276,(-1 0 -1 -3 -2 -2 -1 -3)
1969/12/31/18:00:13.276,(-3 -1 -4 -3 -1 -2 -1 -1)
1969/12/31/18:00:13.300,(-2 -1 -2 -2 -3 -1 -1 -1)
1969/12/31/18:00:13.300,(-1 -3 -2 1 -1 -2 0 -2)
1969/12/31/18:00:13.303,(0 -2 0 -1 -1 -1 -1 0)
1969/12/31/18:00:13.303,(0 -1 -3 -4 -2 -1 -1 -1)
1969/12/31/18:00:13.304,(-3 0 1 3 -1 0 -2 -2)
1969/12/31/18:00:13.304,(-1 -3 -3 -12 -13 -4 -2 -2)
1969/12/31/18:00:13.309,(-2 0 -1 1 1 1 -2 0)
1969/12/31/18:00:13.309,(2 0 3 11 11 3 -1 0)
1969/12/31/18:00:13.309,(0 0 1 7 -2 1 1 -1)
1969/12/31/18:00:13.309,(0 1 -1 2 2 3 1 -3)
1969/12/31/18:00:13.316,(-1 -4 -5 -10 -4 -7 -1 -2)
1969/12/31/18:00:13.316,(-5 -6 -11 -30 -29 -8 -1 -2)
1969/12/31/18:00:13.385,(1 6 6 0 2 -4 -1 2)
1969/12/31/18:00:13.385,(-1 -1 2 10 21 5 -4 -3)
1969/12/31/18:00:13.388,(-2 -3 -3 0 -12 -4 1 0)
1969/12/31/18:00:13.388,(2 0 2 13 21 21 7 2)
1969/12/31/18:00:13.388,(-1 0 1 10 1 1 -4 -2)
1969/12/31/18:00:13.388,(-3 -2 -4 -7 -9 -6 1 1)
1969/12/31/18:00:13.392,(-1 -3 -3 -10 -11 -9 -5 -2)
1969/12/31/18:00:13.392,(1 2 -2 -25 -26 -4 8 0)
1969/12/31/18:00:13.393,(-1 -5 -4 -3 25 -7 -13 -6)
1969/12/31/18:00:13.393,(0 1 2 14 7 9 26 5)
1969/12/31/18:00:13.401,(-2 -2 -3 -9 -10 -1 3 2)
1969/12/31/18:00:13.401,(0 1 -1 -14 -13 -6 -3 -2)
1969/12/31/18:00:13.403,(0 0 -1 -10 -15 -15 2 0)
1969/12/31/18:00:13.403,(-6 -5 -10 -7 6 14 1 -3)
1969/12/31/18:00:13.424,(-1 -1 5 17 5 -1 -1 -4)
1969/12/31/18:00:13.424,(0 1 -3 2 8 -7 -7 -1)
1969/12/31/18:00:13.427,(1 -3 -1 -1 -4 3 2 0)
1969/12/31/18:00:13.427,(-4 -3 -8 -15 -18 -15 -12 -4)
1969/12/31/18:00:13.440,(0 0 -1 -9 -4 13 7 1)
1969/12/31/18:00:13.440,(-1 -3 3 4 -4 -9 -9 -2)
1969/12/31/18:00:13.460,(-4 -4 -9 -16 -4 -2 -4 -2)
1969/12/31/18:00:13.460,(1 1 -6 1 0 -9 -2 -2)
1969/12/31/18:00:13.466,(-1 1 6 1 -5 4 -4 -1)
1969/12/31/18:00:13.466,(1 4 12 3 -2 3 1 0)
1969/12/31/18:00:13.528,(0 1 4 17 13 3 2 1)
1969/12/31/18:00:13.528,(0 -1 0 3 1 -3 -5 0)
1969/12/31/18:00:13.528,(1 -1 -6 0 -1 5 10 5)
1969/12/31/18:00:13.528,(-5 -8 -11 -12 -8 -5 -12 -2)
1969/12/31/18:00:13.535,(1 5 10 7 7 3 7 -1)
1969/12/31/18:00:13.535,(1 -6 -5 3 -2 -3 -6 -6)
1969/12/31/18:00:13.536,(-5 -7 -14 -19 -14 -3 5 1)
1969/12/31/18:00:13.536,(0 2 10 3 -6 -2 -2 -5)
1969/12/31/18:00:13.538,(1 0 -1 -13 -15 -8 -6 -5)
1969/12/31/18:00:13.538,(-1 -2 -8 12 17 5 0 1)
1969/12/31/18:00:13.543,(-2 -2 -1 -14 -13 -4 -3 -4)
1969/12/31/18:00:13.543,(0 1 7 6 -5 -1 1 1)
1969/12/31/18:00:13.559,(-7 -10 -16 -25 -6 -10 -7 -7)
1969/12/31/18:00:13.559,(-5 -3 -7 0 -10 -2 -1 -1)
1969/12/31/18:00:13.560,(4 7 5 11 9 5 0 -1)
1969/12/31/18:00:13.560,(3 3 16 9 7 -1 6 10)
1969/12/31/18:00:13.584,(0 3 4 0 -8 -5 -8 -10)
1969/12/31/18:00:13.584,(1 -1 -3 -2 -3 1 1 1)
1969/12/31/18:00:13.586,(-5 -6 -2 2 5 -1 0 -1)
1969/12/31/18:00:13.586,(-1 -2 -11 -14 -9 -2 -2 2)
1969/12/31/18:00:13.610,(-1 -2 -3 7 4 -3 -5 -5)
1969/12/31/18:00:13.610,(1 -2 -2 -8 -1 2 5 8)
1969/12/31/18:00:13.611,(1 -2 -3 -2 -4 -5 -7 -8)
1969/12/31/18:00:13.611,(-3 -2 -2 -1 3 -1 -1 -3)
1969/12/31/18:00:13.694,(0 -2 5 1 1 -1 2 3)
1969/12/31/18:00:13.694,(1 -3 -2 -4 -5 0 1 0)
1969/12/31/18:00:13.696,(0 1 1 4 7 1 1 0)
1969/12/31/18:00:13.696,(-3 -6 -4 -8 -8 -2 -2 -2)
1969/12/31/18:00:13.697,(4 9 12 9 18 3 0 1)
1969/12/31/18:00:13.697,(-8 -6 -5 -5 -9 -2 -7 -6)
1969/12/31/18:00:13.702,(1 -2 3 1 -4 2 4 6)
1969/12/31/18:00:13.702,(-3 -2 -5 -8 -6 -1 1 -1)
1969/12/31/18:00:13.703,(2 -1 -7 -5 -6 -4 -2 -2)
1969/12/31/18:00:13.703,(5 4 2 -1 -2 -3 -3 -8)
1969/12/31/18:00:13.719,(-3 0 1 8 5 2 3 5)
1969/12/31/18:00:13.719,(-5 -2 3 0 0 0 -1 -3)
1969/12/31/18:00:13.720,(2 1 -2 -5 0 0 3 3)
1969/12/31/18:00:13.720,(-4 5 8 6 1 0 -1 0)
1969/12/31/18:00:13.733,(-1 -3 -6 -4 -2 1 2 1)
1969/12/31/18:00:13.733,(7 -18 -19 -7 0 -3 -1 4)
1969/12/31/18:00:13.750,(-4 7 1 -6 -6 -3 -4 -5)
1969/12/31/18:00:13.750,(-3 4 7 5 3 2 1 -2)
1969/12/31/18:00:13.760,(-1 0 -1 3 -1 -1 -2 0)
1969/12/31/18:00:13.760,(-2 2 3 -1 1 -2 -1 -3)
1969/12/31/18:00:13.763,(7 -19 -17 -3 0 0 -4 -2)
1969/12/31/18:00:13.763,(-1 -4 -10 -5 -4 -4 -2 -5)
1969/12/31/18:00:13.785,(3 18 21 6 2 -1 7 14)
1969/12/31/18:00:13.785,(-4 -6 -5 0 -2 -1 -8 -17)
1969/12/31/18:00:13.786,(-2 14 7 1 1 0 -4 -6)
1969/12/31/18:00:13.786,(-9 -28 -10 -5 -4 3 7 -1)
1969/12/31/18:00:13.828,(5 -7 -3 -1 -2 -2 -4 10)
1969/12/31/18:00:13.828,(20 12 6 -1 0 0 0 9)
1969/12/31/18:00:13.829,(-10 2 2 0 0 1 4 3)
1969/12/31/18:00:13.829,(-22 -7 -1 0 -3 -6 -13 -22)
1969/12/31/18:00:13.831,(-6 -6 -8 -1 0 -1 1 4)
1969/12/31/18:00:13.831,(3 10 8 5 3 2 -7 -39)
1969/12/31/18:00:13.835,(7 11 4 -1 -3 -1 4 0)
1969/12/31/18:00:13.835,(42 22 4 5 3 3 8 16)
1969/12/31/18:00:13.852,(-32 -31 -11 -8 -8 -10 -7 25)
1969/12/31/18:00:13.852,(-41 -10 -2 0 -1 0 -14 -33)
1969/12/31/18:00:13.854,(44 16 6 4 15 56 26 65)
1969/12/31/18:00:13.854,(-1 3 -3 -10 -22 -63 -8 -50)
1969/12/31/18:00:13.867,(-41 -9 -5 0 -2 -6 -5 -28)
1969/12/31/18:00:13.867,(29 -12 -10 -13 -16 -38 20 47)
1969/12/31/18:00:13.877,(-19 -1 2 3 2 39 6 -20)
1969/12/31/18:00:13.877,(-2 -1 -1 3 10 39 -9 17)
1969/12/31/18:00:13.894,(2 -19 -10 -7 -6 -30 -9 -3)
1969/12/31/18:00:13.894,(-77 -9 -2 1 5 22 7 -2)
1969/12/31/18:00:13.895,(77 23 1 -2 -12 -49 -2 59)
1969/12/31/18:00:13.895,(-24 -2 1 -2 0 15 0 -32)
1969/12/31/18:00:13.919,(15 11 3 3 0 -4 7 -3)
1969/12/31/18:00:13.919,(22 -4 -7 -14 0 16 -13 4)
1969/12/31/18:00:13.921,(10 -1 5 10 8 0 27 44)
1969/12/31/18:00:13.921,(36 16 4 -4 -19 -23 9 58)
1969/12/31/18:00:13.934,(-65 10 1 15 28 45 -24 -80)
1969/12/31/18:00:13.934,(-54 -57 -10 -11 -25 -63 -65 -61)
1969/12/31/18:00:13.944,(1 2 -5 5 9 14 38 27)
1969/12/31/18:00:13.944,(-6 -45 -18 -10 -7 -7 -8 -12)
1969/12/31/18:00:13.987,(7 10 4 -4 -4 15 7 19)
1969/12/31/18:00:13.987,(26 39 10 7 8 22 43 60)
1969/12/31/18:00:13.989,(-113 -31 -8 -5 -8 -37 -64 -121)
1969/12/31/18:00:13.989,(13 -1 1 1 4 6 9 22)
1969/12/31/18:00:13.990,(13 -13 -10 -9 -8 -7 4 5)
1969/12/31/18:00:13.990,(-19 -2 2 4 7 12 5 6)
1969/12/31/18:00:13.995,(8 1 -4 -15 -23 -40 -14 -15)
1969/12/31/18:00:13.995,(-18 2 -3 -16 12 80 47 -10)
1969/12/31/18:00:14.001,(95 44 23 37 26 3 -2 56)
1969/12/31/18:00:14.001,(38 8 3 6 3 19 22 42)
1969/12/31/18:00:14.011,(-47 -13 -4 -5 -12 -55 2 -35)
1969/12/31/18:00:14.011,(14 26 6 4 -9 -27 -52 -9)
1969/12/31/18:00:14.028,(-54 -42 -13 -21 -11 11 11 -68)
1969/12/31/18:00:14.028,(7 11 5 19 24 40 -6 -6)
1969/12/31/18:00:14.029,(60 19 -2 -8 -6 21 2 31)
1969/12/31/18:00:14.029,(-14 -33 2 7 6 -13 12 11)
1969/12/31/18:00:14.054,(1 39 9 -1 -10 -42 -3 -19)
1969/12/31/18:00:14.054,(2 2 -5 -6 -8 -6 -6 -39)
1969/12/31/18:00:14.055,(16 -1 5 2 10 34 -12 -2)
1969/12/31/18:00:14.055,(-5 1 -5 0 -2 -31 -10 -17)
1969/12/31/18:00:14.068,(-8 -10 2 1 6 23 11 31)
1969/12/31/18:00:14.068,(-11 1 3 -7 -7 18 19 35)
1969/12/31/18:00:14.086,(-26 2 4 0 -6 -68 -14 -44)
1969/12/31/18:00:14.086,(21 10 -4 2 1 12 8 19)
1969/12/31/18:00:14.094,(46 16 6 1 -4 5 24 68)
1969/12/31/18:00:14.095,(13 -21 -10 -10 -5 -5 6 11)
1969/12/31/18:00:14.096,(-6 6 1 2 -12 -94 0 15)
1969/12/31/18:00:14.096,(-31 4 12 26 41 75 -28 -8)
1969/12/31/18:00:14.138,(-13 -9 1 5 2 -13 -25 -59)
1969/12/31/18:00:14.138,(-5 -11 -21 -24 -26 -26 -8 -81)
1969/12/31/18:00:14.140,(-5 -14 3 6 11 14 -5 16)
1969/12/31/18:00:14.140,(28 18 -2 -9 -13 -32 -33 -44)
1969/12/31/18:00:14.141,(-4 7 -5 -12 -18 -31 6 5)
1969/12/31/18:00:14.141,(-3 15 19 22 17 -33 9 51)
1969/12/31/18:00:14.145,(19 -31 -21 -15 -8 32 -8 -31)
1969/12/31/18:00:14.145,(-10 4 2 2 -2 6 26 62)
1969/12/31/18:00:14.162,(-36 -29 -12 -11 -9 -15 46 6)
1969/12/31/18:00:14.162,(33 35 12 7 5 8 -89 -7)
1969/12/31/18:00:14.163,(-14 -2 2 4 10 38 39 14)
1969/12/31/18:00:14.163,(-26 -17 -3 -1 -1 -26 -13 -36)
1969/12/31/18:00:14.187,(-13 -2 -3 -4 -4 21 -3 -41)
1969/12/31/18:00:14.187,(1 8 4 1 -1 -6 21 15)
1969/12/31/18:00:14.189,(14 10 -2 0 4 36 -6 16)
1969/12/31/18:00:14.189,(11 -33 -12 -9 -2 16 -6 4)
1969/12/31/18:00:14.202,(44 6 -2 -2 -7 -44 7 51)
1969/12/31/18:00:14.202,(-22 -24 -3 7 16 36 38 60)
1969/12/31/18:00:14.212,(-1 12 9 5 1 -16 -30 -92)
1969/12/31/18:00:14.212,(13 22 1 -3 -4 -4 15 -3)
1969/12/31/18:00:14.229,(18 -6 -7 -6 -10 -40 -28 4)
1969/12/31/18:00:14.229,(47 32 9 6 10 59 5 17)
1969/12/31/18:00:14.230,(-40 -46 -13 -7 -4 -7 -35 -19)
1969/12/31/18:00:14.230,(21 4 4 3 -2 -19 -3 43)
1969/12/31/18:00:14.254,(-25 -6 -1 -5 -4 9 -28 -73)
1969/12/31/18:00:14.254,(-12 16 7 4 -1 -34 7 -29)
1969/12/31/18:00:14.256,(-10 -14 -7 -3 5 24 -4 -3)
1969/12/31/18:00:14.256,(-26 2 -1 -6 -11 -13 -14 -27)
1969/12/31/18:00:14.297,(-7 -13 2 5 22 34 11 2)
1969/12/31/18:00:14.297,(-57 -23 -17 -17 -33 -62 -13 -112)
1969/12/31/18:00:14.299,(-12 15 3 0 -5 -1 -3 -10)
1969/12/31/18:00:14.299,(-1 -17 1 3 4 16 38 61)
1969/12/31/18:00:14.299,(32 37 14 9 6 9 16 26)
1969/12/31/18:00:14.299,(35 -3 -4 2 6 18 20 -1)
1969/12/31/18:00:14.304,(-39 -64 -23 -14 -13 -14 -21 3)
1969/12/31/18:00:14.304,(-7 22 11 4 9 7 1 -32)
1969/12/31/18:00:14.321,(5 -21 -11 -5 3 22 -20 -28)
1969/12/31/18:00:14.321,(11 13 -1 -7 -24 -52 -14 0)
1969/12/31/18:00:14.323,(51 37 11 5 1 33 40 66)
1969/12/31/18:00:14.323,(-41 -19 -8 -1 1 -44 -12 -9)
1969/12/31/18:00:14.336,(-39 -16 -3 1 18 102 4 -20)
1969/12/31/18:00:14.336,(11 -1 5 7 7 -45 -19 20)
1969/12/31/18:00:14.346,(75 54 15 6 0 1 24 53)
1969/12/31/18:00:14.346,(-12 -37 -8 2 44 29 9 10)
1969/12/31/18:00:14.363,(11 16 10 18 19 11 8 10)
1969/12/31/18:00:14.363,(-3 -7 -5 -7 -38 -25 -7 10)
1969/12/31/18:00:14.364,(-4 7 0 -8 5 34 21 10)
1969/12/31/18:00:14.364,(36 25 5 7 45 93 -5 0)
1969/12/31/18:00:14.388,(-3 1 0 -15 -107 -111 -18 2)
1969/12/31/18:00:14.388,(-27 -25 -16 -24 -20 29 -13 8)
1969/12/31/18:00:14.390,(-9 22 9 13 7 1 -9 -28)
1969/12/31/18:00:14.390,(-56 -38 -12 4 68 27 13 -36)
1969/12/31/18:00:14.403,(20 1 3 29 75 68 35 51)
1969/12/31/18:00:14.403,(-10 -12 -5 -26 -94 -52 5 7)
1969/12/31/18:00:14.413,(-27 -15 -23 -48 -73 -67 -66 -74)
1969/12/31/18:00:14.413,(8 8 -3 -13 -37 -21 10 -19)
1969/12/31/18:00:14.447,(4 -7 -3 2 28 0 -6 16)
1969/12/31/18:00:14.447,(46 39 19 37 93 55 37 60)
1969/12/31/18:00:14.449,(-51 -45 -11 11 41 26 4 -13)
1969/12/31/18:00:14.449,(47 29 9 -3 -69 -59 -13 19)
1969/12/31/18:00:14.454,(3 -3 -2 -5 -16 -8 -13 6)
1969/12/31/18:00:14.454,(17 22 12 14 39 44 22 10)
1969/12/31/18:00:14.457,(-14 -14 -3 9 41 6 15 -12)
1969/12/31/18:00:14.457,(18 11 -2 -8 -52 -66 -52 -2)
1969/12/31/18:00:14.470,(0 14 -3 -15 3 18 -4 -27)
1969/12/31/18:00:14.470,(-7 -3 -2 -3 5 3 -5 -4)
1969/12/31/18:00:14.480,(0 -26 -8 2 -11 12 7 18)
1969/12/31/18:00:14.480,(17 3 9 8 -11 -3 43 66)
1969/12/31/18:00:14.496,(10 10 2 -2 -15 -24 -26 -3)
1969/12/31/18:00:14.496,(-12 0 1 -1 19 21 -7 -49)
1969/12/31/18:00:14.504,(0 7 -17 8 43 30 23 25)
1969/12/31/18:00:14.504,(-3 -31 -2 -7 10 25 6 34)
1969/12/31/18:00:14.521,(20 -15 -29 -19 -29 -38 7 37)
1969/12/31/18:00:14.521,(-41 13 26 -4 -30 -35 -40 -62)
1969/12/31/18:00:14.524,(87 35 -27 -9 19 21 59 92)
1969/12/31/18:00:14.524,(-44 53 88 30 -36 -33 -61 -118)
1969/12/31/18:00:14.546,(6 -37 -35 -5 24 10 -1 13)
1969/12/31/18:00:14.546,(38 -47 -104 -24 12 28 41 53)
1969/12/31/18:00:14.547,(10 86 104 48 12 10 -3 0)
1969/12/31/18:00:14.547,(6 -36 -43 9 35 37 51 10)
1969/12/31/18:00:14.562,(-69 -1 -9 -21 -33 -67 -70 -96)
1969/12/31/18:00:14.562,(46 69 56 27 -4 17 70 95)
1969/12/31/18:00:14.571,(-16 -100 -101 -56 -37 -26 -96 -91)
1969/12/31/18:00:14.571,(-16 14 20 2 42 23 52 38)
1969/12/31/18:00:14.606,(63 30 13 21 -27 -3 13 42)
1969/12/31/18:00:14.606,(-27 -79 -55 -17 -13 -24 -57 -77)
1969/12/31/18:00:14.607,(-36 15 52 14 46 18 22 -12)
1969/12/31/18:00:14.607,(61 -53 -57 -26 -71 -31 25 59)
1969/12/31/18:00:14.615,(1 13 -57 -45 -34 -25 -35 -62)
1969/12/31/18:00:14.615,(-3 88 106 48 63 42 34 88)
1969/12/31/18:00:14.615,(-19 89 83 26 5 -8 -47 -101)
1969/12/31/18:00:14.615,(-32 15 -18 -17 -22 -18 -30 -60)
1969/12/31/18:00:14.629,(-10 -9 52 24 24 16 36 34)
1969/12/31/18:00:14.629,(-17 -128 -116 -36 -1 -3 11 -2)
1969/12/31/18:00:14.638,(-40 -58 -31 -11 18 18 17 15)
1969/12/31/18:00:14.638,(36 104 66 29 -29 -30 -26 -24)
1969/12/31/18:00:14.654,(-31 76 68 20 6 7 -25 -90)
1969/12/31/18:00:14.654,(36 -24 -25 -9 4 6 -18 8)
1969/12/31/18:00:14.655,(3 -113 -83 -12 26 8 3 51)
1969/12/31/18:00:14.655,(-56 25 9 1 17 -31 -28 -45)
1969/12/31/18:00:14.680,(-53 43 46 -4 -84 -36 -14 31)
1969/12/31/18:00:14.680,(16 5 14 1 -18 -24 -41 -9)
1969/12/31/18:00:14.681,(-32 -68 -63 -27 -44 -23 -5 -7)
1969/12/31/18:00:14.681,(35 -124 -87 -9 55 50 40 52)
1969/12/31/18:00:14.697,(20 -28 -44 -5 77 52 33 -6)
1969/12/31/18:00:14.697,(8 79 45 -8 -60 -31 20 37)
1969/12/31/18:00:14.698,(-50 86 86 12 -29 -24 -40 -31)
1969/12/31/18:00:14.698,(-10 57 6 -1 3 -15 -3 2)
1969/12/31/18:00:14.722,(-17 -40 21 26 30 35 29 35)
1969/12/31/18:00:14.722,(68 -22 -55 -18 -30 -27 -27 -3)
1969/12/31/18:00:14.722,(-30 36 25 -5 -18 4 53 60)
1969/12/31/18:00:14.722,(-18 5 13 4 -1 -7 -30 -34)
1969/12/31/18:00:14.757,(-28 -125 -103 -40 -1 7 13 2)
1969/12/31/18:00:14.758,(14 44 -12 6 68 36 9 22)
1969/12/31/18:00:14.758,(32 66 30 14 -74 -35 2 39)
1969/12/31/18:00:14.758,(-50 -93 -56 -28 -25 -10 -33 -76)
1969/12/31/18:00:14.764,(56 -37 -48 -9 4 1 9 2)
1969/12/31/18:00:14.764,(-63 -128 -40 -12 7 30 -8 -44)
1969/12/31/18:00:14.765,(53 11 -55 11 98 24 37 35)
1969/12/31/18:00:14.765,(-21 101 105 23 -60 -33 10 31)
1969/12/31/18:00:14.789,(0 -69 -52 -35 -65 -37 -21 -34)
1969/12/31/18:00:14.789,(-46 114 113 34 23 14 -1 -12)
1969/12/31/18:00:14.790,(63 -36 -47 -25 -33 -24 -18 -3)
1969/12/31/18:00:14.790,(16 -75 -49 5 77 66 36 33)
1969/12/31/18:00:14.814,(-31 32 13 -27 -34 -10 -25 -35)
1969/12/31/18:00:14.814,(55 64 27 11 -14 -20 -28 10)
1969/12/31/18:00:14.815,(-54 -17 21 10 13 33 32 -8)
1969/12/31/18:00:14.815,(92 -40 -96 -22 25 -6 25 58)
1969/12/31/18:00:14.831,(-44 96 102 86 -9 -18 -57 -31)
1969/12/31/18:00:14.831,(-56 -85 -64 -13 -5 0 -7 -74)
1969/12/31/18:00:14.832,(26 -72 -67 -21 -30 -17 -22 -13)
1969/12/31/18:00:14.832,(-24 35 4 -15 2 15 5 -4)
1969/12/31/18:00:14.855,(46 -108 -93 -19 44 32 32 88)
1969/12/31/18:00:14.855,(21 116 86 40 71 39 31 32)
1969/12/31/18:00:14.856,(9 27 56 45 -48 -35 -8 11)
1969/12/31/18:00:14.857,(-49 -114 -111 -52 -43 -9 -8 -28)
1969/12/31/18:00:14.881,(6 117 77 14 21 1 36 31)
1969/12/31/18:00:14.881,(8 34 -6 -11 -36 -36 -16 -28)
1969/12/31/18:00:14.882,(2 -93 -52 -11 53 48 -10 29)
1969/12/31/18:00:14.882,(-12 -24 24 9 -20 -14 -8 -16)
1969/12/31/18:00:14.917,(-3 87 87 42 2 -24 -36 -44)
1969/12/31/18:00:14.917,(-5 -101 -71 -32 -24 -1 36 13)
1969/12/31/18:00:14.918,(8 -13 -3 -2 2 1 -7 -7)
1969/12/31/18:00:14.918,(20 -19 -28 8 36 19 9 4)
1969/12/31/18:00:14.924,(11 -102 -80 -20 -1 5 36 52)
1969/12/31/18:00:14.924,(-38 74 64 -3 -38 -44 -63 -52)
1969/12/31/18:00:14.925,(-30 -72 -33 -11 36 36 14 -25)
1969/12/31/18:00:14.925,(19 13 -33 -13 -3 -16 -11 7)
1969/12/31/18:00:14.948,(27 92 76 21 -22 -9 16 25)
1969/12/31/18:00:14.948,(49 -83 -58 -6 9 6 35 36)
1969/12/31/18:00:14.949,(-53 77 116 43 -5 -20 -67 -94)
1969/12/31/18:00:14.949,(21 -104 -43 -20 16 35 31 48)
1969/12/31/18:00:14.966,(-9 -78 -95 -45 -6 -23 -42 -41)
1969/12/31/18:00:14.966,(-25 58 13 29 -12 -8 -5 -28)
1969/12/31/18:00:14.973,(32 16 3 8 16 14 39 36)
1969/12/31/18:00:14.973,(45 -18 31 25 50 39 1 32)
1969/12/31/18:00:14.990,(3 45 44 9 -23 3 44 67)
1969/12/31/18:00:14.990,(-55 -20 -6 -8 -4 -9 -28 -52)
1969/12/31/18:00:14.990,(-40 -81 -124 -49 -26 -43 -46 -64)
1969/12/31/18:00:14.990,(-12 127 127 32 -38 -21 -20 -28)
1969/12/31/18:00:15.015,(47 -88 -82 -15 75 64 3 21)
1969/12/31/18:00:15.015,(-20 -86 -36 7 69 25 10 3)
1969/12/31/18:00:15.016,(28 127 82 3 -98 -57 45 57)
1969/12/31/18:00:15.016,(-8 -66 -40 7 36 13 -7 -9)
1969/12/31/18:00:15.031,(-4 9 19 -4 13 36 43 3)
1969/12/31/18:00:15.031,(-22 -117 -46 -38 -16 -26 -50 -27)
1969/12/31/18:00:15.033,(12 95 58 20 35 36 27 14)
1969/12/31/18:00:15.033,(5 -39 -54 -15 -53 -38 30 -15)
1969/12/31/18:00:15.067,(16 -12 16 42 61 25 -42 -6)
1969/12/31/18:00:15.067,(-52 74 67 -6 -35 -24 3 -22)
1969/12/31/18:00:15.068,(58 -9 -19 -3 11 8 14 61)
1969/12/31/18:00:15.068,(-9 70 40 8 -29 -5 20 -32)
1969/12/31/18:00:15.082,(-30 -14 -6 -3 34 8 -32 -43)
1969/12/31/18:00:15.082,(38 -52 -47 -21 -76 -36 12 18)
1969/12/31/18:00:15.083,(-19 -23 -30 -26 21 11 -59 -26)
1969/12/31/18:00:15.083,(-31 -45 -9 11 29 3 -2 -22)
1969/12/31/18:00:15.098,(33 19 -30 -7 21 15 27 40)
1969/12/31/18:00:15.098,(-16 70 69 31 39 17 -2 -9)
1969/12/31/18:00:15.100,(-24 7 38 22 -4 -22 7 -34)
1969/12/31/18:00:15.100,(20 52 10 -19 -80 -36 -45 18)
1969/12/31/18:00:15.123,(-15 -87 -45 -35 -49 -45 42 28)
1969/12/31/18:00:15.123,(-16 -1 -28 -19 -47 -39 -21 11)
1969/12/31/18:00:15.124,(-16 -54 -31 6 59 43 -1 -46)
1969/12/31/18:00:15.124,(14 -35 7 25 40 -12 -31 24)
1969/12/31/18:00:15.149,(-2 51 -12 -28 -61 -12 10 3)
1969/12/31/18:00:15.149,(37 -68 -48 -8 12 41 26 59)
1969/12/31/18:00:15.150,(-41 -5 2 8 -16 -23 42 -9)
1969/12/31/18:00:15.150,(-68 81 76 15 6 8 11 -60)
1969/12/31/18:00:15.165,(-12 -69 -42 -13 21 5 -83 -46)
1969/12/31/18:00:15.165,(8 -67 -69 -18 -4 -19 5 -29)
1969/12/31/18:00:15.167,(11 63 33 -5 -26 -24 -40 32)
1969/12/31/18:00:15.167,(9 8 4 19 7 23 23 0)
1969/12/31/18:00:15.191,(7 -18 21 21 94 76 -12 -6)
1969/12/31/18:00:15.191,(-10 16 40 37 4 -11 32 2)
1969/12/31/18:00:15.192,(17 27 36 -18 -47 -9 2 36)
1969/12/31/18:00:15.192,(-21 -46 -38 -15 52 30 -42 -16)
1969/12/31/18:00:15.226,(2 125 110 28 -87 -85 -17 -32)
1969/12/31/18:00:15.226,(13 -74 -61 -26 49 96 34 47)
1969/12/31/18:00:15.233,(23 -40 -49 -11 8 -7 85 39)
1969/12/31/18:00:15.233,(-3 -17 -7 0 -24 -29 -57 0)
1969/12/31/18:00:15.236,(-4 -39 -26 -13 7 3 26 3)
1969/12/31/18:00:15.236,(3 55 33 4 15 14 -55 -63)
1969/12/31/18:00:15.237,(3 5 -13 2 24 15 28 -9)
1969/12/31/18:00:15.237,(-28 -71 -44 -34 -92 -60 -2 5)
1969/12/31/18:00:15.257,(1 35 28 18 15 8 0 -17)
1969/12/31/18:00:15.257,(18 52 22 19 11 -7 12 19)
1969/12/31/18:00:15.258,(-27 -39 -45 -27 6 27 -30 -47)
1969/12/31/18:00:15.258,(34 98 68 29 51 18 32 42)
1969/12/31/18:00:15.283,(-9 -34 -34 -7 -33 -22 11 26)
1969/12/31/18:00:15.283,(16 48 36 3 -11 -23 -68 -41)
1969/12/31/18:00:15.284,(9 -60 -42 7 18 25 3 -19)
1969/12/31/18:00:15.284,(33 37 -4 -15 11 27 -30 -4)
1969/12/31/18:00:15.298,(-38 -8 23 -7 -54 -45 -2 -13)
1969/12/31/18:00:15.298,(-11 -53 -49 -1 48 15 5 -14)
1969/12/31/18:00:15.308,(0 -11 7 -24 -97 -92 -34 -8)
1969/12/31/18:00:15.308,(-35 2 -1 -20 6 23 11 -39)
1969/12/31/18:00:15.325,(41 10 -23 -14 -51 -1 23 38)
1969/12/31/18:00:15.325,(-17 -102 -45 -10 37 3 24 43)
1969/12/31/18:00:15.325,(37 26 33 25 37 29 -14 34)
1969/12/31/18:00:15.325,(32 101 60 40 46 26 53 20)
1969/12/31/18:00:15.377,(-51 22 28 1 -26 -34 -17 -82)
1969/12/31/18:00:15.377,(-5 -55 -31 -22 -70 -38 -55 -46)
1969/12/31/18:00:15.377,(-41 75 33 1 -12 -5 3 13)
1969/12/31/18:00:15.377,(28 -75 -51 -20 5 4 29 70)
1969/12/31/18:00:15.380,(-34 15 11 24 67 41 -22 -85)
1969/12/31/18:00:15.380,(-44 -30 -11 -7 -15 5 93 14)
1969/12/31/18:00:15.383,(13 -37 -41 -16 1 1 -88 -16)
1969/12/31/18:00:15.383,(-27 -33 -10 -14 -48 -64 -73 -68)
1969/12/31/18:00:15.392,(-11 -28 -16 -18 -11 -12 -8 9)
1969/12/31/18:00:15.392,(26 -4 -32 -13 41 42 26 44)
1969/12/31/18:00:15.392,(-10 3 20 40 26 22 58 -10)
1969/12/31/18:00:15.392,(-24 -22 -34 -24 -36 -8 1 -17)
1969/12/31/18:00:15.417,(4 45 28 -16 -59 -62 -56 -13)
1969/12/31/18:00:15.417,(41 65 14 7 21 3 -20 -15)
1969/12/31/18:00:15.418,(19 -16 6 17 41 21 37 49)
1969/12/31/18:00:15.418,(-49 -43 -24 1 33 40 -36 -89)
1969/12/31/18:00:15.432,(-32 -28 3 26 48 7 -4 -15)
1969/12/31/18:00:15.432,(-1 38 8 -27 -76 -39 -28 15)
1969/12/31/18:00:15.442,(14 54 65 14 -1 -10 -41 -80)
1969/12/31/18:00:15.442,(4 -26 -41 -12 -20 -26 34 46)
1969/12/31/18:00:15.459,(32 -37 -20 -9 -12 22 48 76)
1969/12/31/18:00:15.459,(-28 51 35 0 -20 -31 -58 -36)
1969/12/31/18:00:15.459,(-4 -70 -52 -19 -4 -1 -20 9)
1969/12/31/18:00:15.459,(34 -21 -10 12 27 13 16 58)
1969/12/31/18:00:15.483,(-12 -25 -50 -13 37 46 56 54)
1969/12/31/18:00:15.483,(-14 82 96 17 -51 -44 -65 -40)
1969/12/31/18:00:15.485,(-16 -40 -35 -24 -29 -35 14 13)
1969/12/31/18:00:15.485,(38 30 32 22 39 36 6 11)
1969/12/31/18:00:15.499,(56 43 -3 18 18 -10 18 26)
1969/12/31/18:00:15.499,(47 6 9 13 30 42 63 72)
1969/12/31/18:00:15.545,(-24 -28 3 -4 -17 -15 -65 -26)
1969/12/31/18:00:15.545,(-26 42 46 16 -1 4 46 41)
1969/12/31/18:00:15.546,(-8 -22 -32 -38 -66 -23 -27 -57)
1969/12/31/18:00:15.546,(-66 -35 -4 8 40 9 19 -30)
1969/12/31/18:00:15.547,(73 -3 -32 16 48 68 17 53)
1969/12/31/18:00:15.547,(-45 -70 -57 -42 -40 -53 -4 -40)
1969/12/31/18:00:15.552,(18 65 71 22 3 -2 -7 4)
1969/12/31/18:00:15.552,(5 8 5 21 44 29 1 -9)
1969/12/31/18:00:15.553,(-29 -72 -46 -29 -27 -6 54 23)
1969/12/31/18:00:15.553,(18 56 32 2 -2 17 24 5)
1969/12/31/18:00:15.576,(-15 60 70 41 48 19 -37 -34)
1969/12/31/18:00:15.576,(15 -29 -23 2 -33 -27 -7 4)
1969/12/31/18:00:15.577,(3 28 4 5 45 39 30 13)
1969/12/31/18:00:15.577,(11 -76 -16 -20 -71 -33 -45 -9)
1969/12/31/18:00:15.592,(-7 13 -30 -11 16 11 60 45)
1969/12/31/18:00:15.592,(-5 -47 -6 14 47 36 -7 -7)
1969/12/31/18:00:15.593,(-14 83 46 1 -55 -76 -71 -58)
1969/12/31/18:00:15.593,(73 75 49 12 -2 -1 -9 25)
1969/12/31/18:00:15.617,(-40 -70 -48 -24 -6 -15 -5 -22)
1969/12/31/18:00:15.617,(9 -34 -19 4 22 41 31 59)
1969/12/31/18:00:15.619,(-14 -82 -70 -33 -15 18 12 -2)
1969/12/31/18:00:15.619,(-10 86 53 22 12 -27 8 -20)
1969/12/31/18:00:15.643,(20 -32 -11 6 -6 -20 -64 -9)
1969/12/31/18:00:15.643,(-23 10 -25 -26 -26 1 27 6)
1969/12/31/18:00:15.644,(-12 -82 -35 -9 13 -11 -3 8)
1969/12/31/18:00:15.644,(-4 58 25 13 -39 -31 -34 -28)
1969/12/31/18:00:15.687,(-3 -46 3 4 6 32 53 42)
1969/12/31/18:00:15.687,(11 98 58 10 1 -10 42 10)
1969/12/31/18:00:15.688,(25 93 56 8 -17 -9 -53 5)
1969/12/31/18:00:15.688,(-23 -119 -89 -44 49 48 -6 -18)
1969/12/31/18:00:15.689,(-5 -2 10 27 -26 -56 -30 -48)
1969/12/31/18:00:15.689,(-12 -42 -41 -20 -75 -23 22 6)
1969/12/31/18:00:15.692,(0 25 44 18 52 9 1 20)
1969/12/31/18:00:15.692,(-11 18 4 14 39 29 19 9)
1969/12/31/18:00:15.710,(2 -31 -26 -24 -5 13 -7 10)
1969/12/31/18:00:15.710,(5 -31 -19 3 15 -5 4 45)
1969/12/31/18:00:15.711,(10 56 17 3 -14 6 5 -26)
1969/12/31/18:00:15.711,(-10 -35 -33 -9 -15 -11 -2 -1)
1969/12/31/18:00:15.736,(22 41 39 2 10 13 35 50)
1969/12/31/18:00:15.736,(-29 14 18 8 0 -22 -91 -78)
1969/12/31/18:00:15.736,(-1 7 17 9 5 12 34 1)
1969/12/31/18:00:15.736,(-28 -80 -61 -36 -10 -7 -38 -42)
1969/12/31/18:00:15.751,(8 9 -35 -9 -13 -7 -7 -1)
1969/12/31/18:00:15.751,(10 25 48 23 35 34 74 63)
1969/12/31/18:00:15.752,(45 37 30 38 52 36 2 26)
1969/12/31/18:00:15.752,(3 25 39 5 -62 -57 -11 -19)
1969/12/31/18:00:15.777,(-17 -26 -36 -43 -22 -6 -7 -10)
1969/12/31/18:00:15.777,(-4 -29 -28 -15 -9 -19 -26 -19)
1969/12/31/18:00:15.778,(-44 -50 -64 -18 7 13 19 -17)
1969/12/31/18:00:15.778,(-15 -45 3 19 37 45 39 46)
1969/12/31/18:00:15.794,(22 71 48 19 17 12 -11 5)
1969/12/31/18:00:15.794,(19 27 9 3 3 -14 -17 -14)
1969/12/31/18:00:15.794,(27 -10 -33 -25 -22 11 42 25)
1969/12/31/18:00:15.794,(18 -13 -20 20 6 -17 -20 -5)
1969/12/31/18:00:15.844,(10 19 64 21 7 2 1 12)
1969/12/31/18:00:15.844,(13 6 -6 -8 -1 -5 -6 -20)
1969/12/31/18:00:15.845,(-19 -4 -6 3 -5 9 7 7)
1969/12/31/18:00:15.845,(-15 -13 -12 -25 -3 -14 -50 -29)
1969/12/31/18:00:15.854,(9 -33 -58 -18 -12 0 3 40)
1969/12/31/18:00:15.854,(-1 9 53 16 10 12 28 41)
1969/12/31/18:00:15.855,(-10 11 -3 -6 -17 -27 -17 -35)
1969/12/31/18:00:15.855,(4 6 6 19 40 42 68 50)
1969/12/31/18:00:15.860,(14 13 3 4 -9 -9 -15 -16)
1969/12/31/18:00:15.860,(-28 -84 -50 -33 -50 -29 -9 5)
1969/12/31/18:00:15.861,(-28 45 11 -21 -42 -32 -15 -27)
1969/12/31/18:00:15.861,(31 40 38 21 33 17 -9 -16)
1969/12/31/18:00:15.886,(-25 -50 -44 -12 20 11 11 -7)
1969/12/31/18:00:15.886,(25 0 -8 4 12 10 0 0)
1969/12/31/18:00:15.888,(27 15 15 11 1 -5 17 30)
1969/12/31/18:00:15.888,(-36 29 37 12 -7 0 -31 -32)
1969/12/31/18:00:15.920,(-1 16 19 10 15 0 -22 -19)
1969/12/31/18:00:15.920,(-29 -24 -27 -11 7 23 -7 -10)
1969/12/31/18:00:15.921,(36 -12 -16 -8 -28 -36 16 49)
1969/12/31/18:00:15.921,(-6 -3 2 -6 -7 -4 16 40)
1969/12/31/18:00:15.927,(6 -38 -44 -15 -18 -13 -23 -64)
1969/12/31/18:00:15.927,(-26 25 56 36 71 69 10 -10)
1969/12/31/18:00:15.928,(37 42 38 23 -10 -17 31 25)
1969/12/31/18:00:15.928,(-12 -28 -52 -47 -60 -33 -2 5)
1969/12/31/18:00:15.953,(-3 4 20 16 31 25 12 2)
1969/12/31/18:00:15.953,(36 26 0 7 1 -3 12 0)
1969/12/31/18:00:15.954,(-39 -17 12 -16 -8 0 -26 -32)
1969/12/31/18:00:15.954,(22 16 4 2 -15 -11 -11 -13)
1969/12/31/18:00:15.997,(3 -15 -13 16 56 27 31 69)
1969/12/31/18:00:15.997,(-11 1 -13 -4 -1 -7 -16 -44)
1969/12/31/18:00:15.998,(-14 0 3 2 -6 -2 2 10)
1969/12/31/18:00:15.998,(22 -3 -8 -23 -23 -26 -34 -15)
1969/12/31/18:00:16.000,(-26 -14 -3 -13 -16 -1 15 0)
1969/12/31/18:00:16.000,(12 11 2 0 -12 -15 -4 11)
1969/12/31/18:00:16.002,(7 -11 -9 -5 0 6 7 9)
1969/12/31/18:00:16.002,(4 23 16 12 10 10 3 3)
1969/12/31/18:00:16.020,(3 -7 5 2 1 -1 3 -10)
1969/12/31/18:00:16.020,(6 12 3 -6 -13 -13 -7 8)
1969/12/31/18:00:16.020,(-23 -35 -22 -17 -14 -16 -29 -51)
1969/12/31/18:00:16.020,(8 10 2 10 16 12 7 8)
1969/12/31/18:00:16.045,(-20 -4 14 5 -1 4 4 2)
1969/12/31/18:00:16.045,(15 26 -10 -6 -12 -15 -4 -16)
1969/12/31/18:00:16.046,(25 2 3 7 8 7 -11 -4)
1969/12/31/18:00:16.046,(-29 -22 11 14 9 10 28 24)
1969/12/31/18:00:16.062,(17 26 2 -10 -11 -14 -22 1)
1969/12/31/18:00:16.062,(-21 -26 -16 -17 -18 -16 -18 -35)
1969/12/31/18:00:16.062,(-23 -14 -5 6 11 9 5 -4)
1969/12/31/18:00:16.062,(23 14 1 -1 3 5 8 10)
1969/12/31/18:00:16.087,(17 9 -5 -10 -9 8 11 9)
1969/12/31/18:00:16.087,(21 20 6 1 -4 -39 -24 -7)
1969/12/31/18:00:16.087,(-8 -10 -2 -3 2 40 19 -5)
1969/12/31/18:00:16.087,(-24 -2 -6 -6 5 17 34 -4)
1969/12/31/18:00:16.112,(-24 -24 -4 12 1 -28 -20 -4)
1969/12/31/18:00:16.112,(-17 10 10 10 2 -9 21 8)
1969/12/31/18:00:16.113,(-9 -14 -8 -6 -7 -6 -25 -18)
1969/12/31/18:00:16.113,(3 2 -10 -36 -38 -67 -28 -9)
1969/12/31/18:00:16.164,(3 4 -2 4 41 63 29 -7)
1969/12/31/18:00:16.164,(-2 -5 2 25 7 -10 -5 -5)
1969/12/31/18:00:16.164,(23 9 7 15 23 22 -23 24)
1969/12/31/18:00:16.164,(-47 -11 0 9 9 27 6 -33)
1969/12/31/18:00:16.167,(62 40 8 -16 -28 -11 -1 27)
1969/12/31/18:00:16.167,(-50 -28 -9 -17 -16 -8 -8 -19)
1969/12/31/18:00:16.170,(13 -12 -5 -3 3 -6 13 22)
1969/12/31/18:00:16.170,(-24 -7 -6 -6 -11 4 -10 -44)
1969/12/31/18:00:16.179,(-25 -2 -1 -4 -9 -23 -15 -28)
1969/12/31/18:00:16.179,(20 8 0 -5 1 17 6 6)
1969/12/31/18:00:16.180,(32 13 4 1 -6 -20 -6 15)
1969/12/31/18:00:16.180,(-7 -5 0 4 10 15 -2 5)
1969/12/31/18:00:16.194,(9 6 4 1 -7 -11 -2 -20)
1969/12/31/18:00:16.194,(-5 -10 -8 -12 -11 -28 -41 4)
1969/12/31/18:00:16.196,(-47 -11 -3 0 6 24 32 -24)
1969/12/31/18:00:16.196,(50 8 8 15 14 3 -1 40)
1969/12/31/18:00:16.220,(-52 -13 -3 4 2 3 24 14)
1969/12/31/18:00:16.220,(-17 -25 -15 -23 -20 16 -16 -30)
1969/12/31/18:00:16.221,(17 -1 -6 -7 -15 -84 -36 -2)
1969/12/31/18:00:16.221,(-37 2 12 14 11 0 8 12)
1969/12/31/18:00:16.247,(19 7 -8 -7 -5 1 3 21)
1969/12/31/18:00:16.247,(43 23 6 1 1 11 1 -6)
1969/12/31/18:00:16.247,(-75 -47 -15 -7 -8 -1 -5 -19)
1969/12/31/18:00:16.247,(12 3 -2 2 10 16 11 13)
1969/12/31/18:00:16.263,(13 3 4 1 -5 -19 -21 -16)
1969/12/31/18:00:16.263,(-18 -4 -1 -3 -1 0 -3 -9)
1969/12/31/18:00:16.263,(14 5 0 -2 -1 5 -6 -12)
1969/12/31/18:00:16.263,(14 2 3 5 1 -11 -9 18)
1969/12/31/18:00:16.306,(68 26 6 4 2 22 25 40)
1969/12/31/18:00:16.306,(-29 -10 -6 -1 -4 -9 -3 -26)
1969/12/31/18:00:16.307,(-27 -20 -11 -11 -10 -7 -6 -7)
1969/12/31/18:00:16.307,(-1 -2 1 -3 0 0 -12 -14)
1969/12/31/18:00:16.313,(4 1 6 7 6 10 25 45)
1969/12/31/18:00:16.313,(19 4 3 2 3 7 6 -8)
1969/12/31/18:00:16.314,(11 6 1 0 -2 -8 -2 6)
1969/12/31/18:00:16.314,(-2 -4 -7 -5 -4 -5 -6 -17)
1969/12/31/18:00:16.338,(-3 -19 -9 -6 -3 -3 -20 -40)
1969/12/31/18:00:16.338,(-19 -5 -2 -5 -7 -5 -1 -2)
1969/12/31/18:00:16.338,(-6 2 6 6 6 8 1 5)
1969/12/31/18:00:16.338,(1 1 -1 0 0 1 4 -11)
1969/12/31/18:00:16.355,(49 18 7 2 4 4 8 31)
1969/12/31/18:00:16.355,(-58 -32 -16 -9 -9 -7 -16 -22)
1969/12/31/18:00:16.355,(-23 -9 -4 -5 -5 -3 -11 -39)
1969/12/31/18:00:16.355,(14 25 13 9 8 8 5 2)
1969/12/31/18:00:16.380,(-68 -39 -15 -11 -14 -19 -27 -53)
1969/12/31/18:00:16.380,(39 21 8 5 8 11 18 37)
1969/12/31/18:00:16.381,(2 12 7 2 3 5 2 -7)
1969/12/31/18:00:16.381,(50 14 -1 1 -2 -1 7 20)
1969/12/31/18:00:16.395,(-76 -32 -17 -10 -9 -9 -19 -43)
1969/12/31/18:00:16.395,(24 15 11 5 -1 2 5 15)
1969/12/31/18:00:16.404,(-7 -13 -5 -3 -5 -8 -10 1)
1969/12/31/18:00:16.404,(13 1 -2 -2 -3 -4 0 1)
1969/12/31/18:00:16.421,(10 0 6 3 1 1 2 2)
1969/12/31/18:00:16.422,(-37 -11 -6 -5 1 2 4 7)
1969/12/31/18:00:16.422,(25 7 7 8 5 10 18 35)
1969/12/31/18:00:16.422,(-15 -19 -17 -14 -13 -16 -20 -29)
1969/12/31/18:00:16.465,(-15 -17 -10 -7 -3 -5 -7 -15)
1969/12/31/18:00:16.465,(17 28 19 11 7 6 10 18)
1969/12/31/18:00:16.467,(27 19 6 3 2 2 -2 -9)
1969/12/31/18:00:16.467,(27 -7 -21 -7 0 2 9 37)
1969/12/31/18:00:16.468,(-46 -29 12 -1 -5 -10 -21 -42)
1969/12/31/18:00:16.468,(36 6 -2 -1 0 0 3 17)
1969/12/31/18:00:16.471,(22 34 14 8 2 3 5 3)
1969/12/31/18:00:16.471,(-17 -7 2 2 1 1 -1 4)
1969/12/31/18:00:16.489,(0 7 -9 -5 -3 -1 1 4)
1969/12/31/18:00:16.489,(9 -4 -13 -6 -1 0 -2 -3)
1969/12/31/18:00:16.489,(-14 -26 -10 -7 -6 -5 -6 -8)
1969/12/31/18:00:16.489,(0 7 5 2 0 0 2 1)
1969/12/31/18:00:16.514,(1 8 0 2 -1 -1 0 1)
1969/12/31/18:00:16.514,(-3 -5 2 2 1 1 0 0)
1969/12/31/18:00:16.515,(-2 5 -2 -2 0 1 1 2)
1969/12/31/18:00:16.515,(-1 2 6 -1 -1 -3 -4 -3)
1969/12/31/18:00:16.515,(-4 -8 -10 13 3 2 1 0)
1969/12/31/18:00:16.515,(-2 -10 -18 -15 -7 -4 -4 -1)
1969/12/31/18:00:16.517,(-3 0 11 -2 -4 -3 -5 -7)
1969/12/31/18:00:16.517,(0 -7 -19 0 2 4 4 3)
1969/12/31/18:00:16.531,(4 12 25 17 1 -1 -8 -6)
1969/12/31/18:00:16.531,(1 10 45 26 5 1 -1 -3)
1969/12/31/18:00:16.534,(-4 -10 -44 -26 -4 -3 -3 -1)
1969/12/31/18:00:16.534,(-2 -5 7 -3 -10 0 -4 -3)
1969/12/31/18:00:16.557,(2 11 19 23 9 4 4 2)
1969/12/31/18:00:16.557,(1 -4 -41 -25 -4 2 4 10)
1969/12/31/18:00:16.559,(1 5 39 6 -4 -3 -7 -6)
1969/12/31/18:00:16.559,(-3 -4 -25 -6 -2 -3 -6 -10)
1969/12/31/18:00:16.617,(-1 -1 -7 2 -1 0 2 2)
1969/12/31/18:00:16.617,(-2 -8 -13 -10 -3 -3 1 3)
1969/12/31/18:00:16.619,(-4 -10 -27 -34 -7 -4 0 3)
1969/12/31/18:00:16.619,(2 7 -3 18 7 1 3 5)
1969/12/31/18:00:16.620,(-6 -7 4 4 -2 -5 -2 -3)
1969/12/31/18:00:16.620,(2 8 1 -4 2 -1 1 0)
1969/12/31/18:00:16.652,(2 2 10 18 6 3 1 0)
1969/12/31/18:00:16.652,(-2 -2 10 9 0 1 0 -4)
1969/12/31/18:00:16.652,(3 3 -8 -14 -1 4 10 16)
1969/12/31/18:00:16.652,(-2 -2 5 -9 -7 -8 -12 -17)
1969/12/31/18:00:16.658,(-3 -1 -2 10 1 -2 -2 -2)
1969/12/31/18:00:16.658,(-2 0 -4 -7 -2 0 1 4)
1969/12/31/18:00:16.659,(-2 -5 -7 -13 -3 -1 3 4)
1969/12/31/18:00:16.659,(-3 -7 -12 -2 -1 1 -1 1)
1969/12/31/18:00:16.674,(1 -8 -9 -6 -5 -3 -2 -5)
1969/12/31/18:00:16.674,(-2 -5 -4 0 -1 -1 -3 -3)
1969/12/31/18:00:16.677,(-1 23 33 12 4 3 -2 -5)
1969/12/31/18:00:16.677,(-1 -4 -1 -3 -3 -2 -3 -2)
1969/12/31/18:00:16.691,(-1 2 3 2 -2 -2 -5 -6)
1969/12/31/18:00:16.691,(0 -11 -7 -3 -3 2 -1 -2)
1969/12/31/18:00:16.693,(0 -18 -14 -5 -5 1 2 5)
1969/12/31/18:00:16.693,(-5 11 8 2 -1 0 -2 4)
1969/12/31/18:00:16.717,(-1 6 8 5 1 0 -7 -11)
1969/12/31/18:00:16.717,(-2 -2 -7 -5 0 -1 0 -2)
1969/12/31/18:00:16.718,(-3 -15 -14 -4 -2 -1 1 -1)
1969/12/31/18:00:16.718,(10 -7 -9 -3 -1 -3 -2 -5)
1969/12/31/18:00:16.760,(-14 -8 -2 -6 -1 0 6 9)
1969/12/31/18:00:16.760,(1 16 8 -2 -1 0 1 9)
1969/12/31/18:00:16.761,(-4 -5 -1 6 1 0 -2 -6)
1969/12/31/18:00:16.761,(0 -1 -4 -1 -1 -1 -1 2)
1969/12/31/18:00:16.763,(-1 -12 -12 -10 -5 -2 2 0)
1969/12/31/18:00:16.763,(3 2 -1 1 1 -1 -8 -12)
1969/12/31/18:00:16.767,(2 8 1 0 1 1 3 7)
1969/12/31/18:00:16.767,(0 -10 -2 -3 -3 -1 -4 -4)
1969/12/31/18:00:16.784,(2 8 1 1 -3 -2 -2 0)
1969/12/31/18:00:16.784,(-7 -8 1 0 -3 1 4 0)
1969/12/31/18:00:16.785,(3 8 1 1 1 -4 -14 -15)
1969/12/31/18:00:16.785,(-4 -1 1 -1 -2 -1 4 13)
1969/12/31/18:00:16.799,(-1 -2 1 2 2 -3 -9 -10)
1969/12/31/18:00:16.799,(4 1 0 0 0 -1 2 6)
1969/12/31/18:00:16.807,(0 -3 -3 -3 -2 -1 3 1)
1969/12/31/18:00:16.807,(-7 1 2 1 -3 -3 -3 -10)
1969/12/31/18:00:16.825,(-2 -2 -1 -3 -1 0 -1 -1)
1969/12/31/18:00:16.825,(-2 -1 0 -1 -2 -1 1 -8)
1969/12/31/18:00:16.827,(20 3 0 1 0 4 15 51)
1969/12/31/18:00:16.827,(-10 -6 -2 -2 -2 -5 -14 -31)
1969/12/31/18:00:16.851,(1 2 -2 -1 -1 -1 -1 5)
1969/12/31/18:00:16.851,(18 6 1 2 1 -4 -9 0)
1969/12/31/18:00:16.852,(-12 -10 -7 -3 -3 -2 0 -6)
1969/12/31/18:00:16.852,(14 5 0 -1 1 2 7 15)
1969/12/31/18:00:16.866,(-1 -7 -4 -3 -2 -3 1 -1)
1969/12/31/18:00:16.866,(-5 -4 0 -4 -4 -3 -14 -14)
1969/12/31/18:00:16.874,(36 13 7 4 5 25 20 25)
1969/12/31/18:00:16.874,(26 23 19 11 4 -25 -16 -7)
1969/12/31/18:00:16.917,(-19 -18 -11 -8 -7 -11 -23 -35)
1969/12/31/18:00:16.917,(-26 -9 2 5 5 39 31 16)
1969/12/31/18:00:16.928,(-1 5 -2 -4 -4 1 6 4)
1969/12/31/18:00:16.928,(-45 -11 -2 0 1 -9 -28 -15)
1969/12/31/18:00:16.929,(17 1 -3 -4 -4 -12 18 24)
1969/12/31/18:00:16.929,(31 -4 -1 0 -4 -25 -2 30)
1969/12/31/18:00:16.933,(-24 6 3 2 4 24 -3 -42)
1969/12/31/18:00:16.933,(4 5 -2 0 2 10 6 8)
1969/12/31/18:00:16.934,(-11 19 8 4 1 -6 -11 -16)
1969/12/31/18:00:16.934,(-35 -22 -10 -6 -5 -5 11 -3)
1969/12/31/18:00:16.941,(-21 -27 -6 0 -2 -33 -31 -24)
1969/12/31/18:00:16.941,(-11 -4 -10 -7 -12 -27 -13 -47)
1969/12/31/18:00:16.959,(10 -5 -3 -3 1 25 11 50)
1969/12/31/18:00:16.959,(38 30 7 -1 0 -1 23 30)
1969/12/31/18:00:16.961,(-15 2 -1 -2 5 20 -21 -18)
1969/12/31/18:00:16.961,(27 -3 -1 -1 -2 11 16 20)
1969/12/31/18:00:16.992,(-20 -8 -5 -3 -3 2 3 -43)
1969/12/31/18:00:16.992,(-34 3 -4 -6 -4 -13 -10 -4)
1969/12/31/18:00:16.995,(1 8 1 -2 -6 -27 -23 -24)
1969/12/31/18:00:16.995,(39 11 7 8 22 75 32 107)
1969/12/31/18:00:16.999,(57 15 6 0 -16 -33 29 43)
1969/12/31/18:00:16.999,(-88 -64 -19 -8 -8 -26 -51 -74)
1969/12/31/18:00:17.009,(37 24 4 -1 -4 -8 -2 12)
1969/12/31/18:00:17.009,(-6 -5 -3 -3 -1 4 8 -2)
1969/12/31/18:00:17.026,(35 27 12 4 6 3 -18 -20)
1969/12/31/18:00:17.026,(0 -1 -6 -3 3 -7 -5 12)
1969/12/31/18:00:17.028,(31 13 9 9 14 61 17 58)
1969/12/31/18:00:17.028,(-50 -24 -7 -7 -11 -30 -19 -80)
1969/12/31/18:00:17.069,(40 16 10 13 24 59 -11 5)
1969/12/31/18:00:17.069,(-7 -5 -2 -1 -27 -100 13 -5)
1969/12/31/18:00:17.071,(30 12 -2 -8 4 42 4 17)
1969/12/31/18:00:17.071,(-40 -9 -1 0 -11 -26 10 -3)
1969/12/31/18:00:17.075,(3 5 -1 -3 3 12 -2 -15)
1969/12/31/18:00:17.075,(-4 -11 -8 -5 1 11 -10 -22)
1969/12/31/18:00:17.076,(-3 -7 -2 -2 -7 -44 -18 -24)
1969/12/31/18:00:17.076,(4 4 -2 -4 -3 5 12 10)
1969/12/31/18:00:17.092,(-7 4 0 0 -5 -16 -16 -21)
1969/12/31/18:00:17.093,(-60 -26 -14 -12 -5 12 -3 -40)
1969/12/31/18:00:17.093,(-13 1 0 0 -7 -31 -25 -27)
1969/12/31/18:00:17.093,(59 9 -1 -4 -5 -8 20 60)
1969/12/31/18:00:17.117,(-2 6 7 8 9 14 7 13)
1969/12/31/18:00:17.117,(41 18 10 5 8 21 -4 27)
1969/12/31/18:00:17.119,(-74 -29 -11 -8 -9 -7 24 -66)
1969/12/31/18:00:17.119,(27 13 5 1 4 16 29 28)
1969/12/31/18:00:17.142,(5 3 6 9 8 21 12 67)
1969/12/31/18:00:17.142,(11 1 -5 -4 -2 -33 -25 -22)
1969/12/31/18:00:17.143,(69 13 4 5 8 38 33 98)
1969/12/31/18:00:17.143,(-72 -37 -12 -5 -8 -29 -43 -80)
1969/12/31/18:00:17.159,(-17 -12 -9 -11 -4 31 -4 -37)
1969/12/31/18:00:17.159,(61 43 20 13 7 0 22 16)
1969/12/31/18:00:17.160,(7 -6 4 6 5 -10 3 44)
1969/12/31/18:00:17.160,(17 22 3 2 2 -9 15 24)
1969/12/31/18:00:17.184,(-78 -64 -27 -15 -13 -21 -29 -76)
1969/12/31/18:00:17.184,(47 34 9 1 2 23 -4 23)
1969/12/31/18:00:17.185,(-17 -26 -6 0 0 -2 -1 -35)
1969/12/31/18:00:17.185,(14 36 13 3 2 14 -3 26)
1969/12/31/18:00:17.228,(-61 -30 -3 -1 -1 -19 -3 -31)
1969/12/31/18:00:17.228,(1 -4 -2 1 2 24 -6 -20)
1969/12/31/18:00:17.229,(48 29 9 8 11 32 10 39)
1969/12/31/18:00:17.229,(-22 -14 0 5 -3 -36 17 17)
1969/12/31/18:00:17.236,(19 9 -5 -7 -4 -10 -16 -3)
1969/12/31/18:00:17.236,(-1 2 -4 -6 -4 3 14 -17)
1969/12/31/18:00:17.236,(-51 -36 -13 -10 -7 18 -3 -18)
1969/12/31/18:00:17.236,(27 9 3 0 4 25 18 16)
1969/12/31/18:00:17.251,(16 18 3 -1 -4 -27 -6 33)
1969/12/31/18:00:17.251,(11 9 7 7 5 11 3 36)
1969/12/31/18:00:17.252,(11 9 -5 -6 -9 -26 9 37)
1969/12/31/18:00:17.252,(-39 -45 -18 -12 -8 10 -20 -43)
1969/12/31/18:00:17.276,(29 15 6 4 4 -7 16 53)
1969/12/31/18:00:17.276,(-26 -12 -1 3 3 10 21 -22)
1969/12/31/18:00:17.277,(-4 11 0 -2 3 20 -7 -62)
1969/12/31/18:00:17.277,(-9 8 9 14 17 24 13 -16)
1969/12/31/18:00:17.293,(-32 -11 -8 -8 -10 -35 -51 -70)
1969/12/31/18:00:17.293,(39 24 11 10 5 4 23 51)
1969/12/31/18:00:17.294,(-61 -52 -17 -9 -13 -17 5 -34)
1969/12/31/18:00:17.294,(50 27 16 13 13 32 2 27)
1969/12/31/18:00:17.318,(3 -2 3 5 13 60 11 14)
1969/12/31/18:00:17.318,(-38 -29 -23 -17 -16 -52 -67 -51)
1969/12/31/18:00:17.319,(-8 0 -1 -2 -12 -46 -7 10)
1969/12/31/18:00:17.319,(0 5 4 1 9 -8 -33 -33)
1969/12/31/18:00:17.343,(-9 -10 -9 -5 0 26 10 33)
1969/12/31/18:00:17.343,(3 7 16 35 95 89 14 6)
1969/12/31/18:00:17.344,(37 23 8 7 -53 -53 -3 16)
1969/12/31/18:00:17.344,(3 -12 -18 -47 -82 23 20 -11)
1969/12/31/18:00:17.380,(-67 -56 -21 -20 -25 -58 -78 -56)
1969/12/31/18:00:17.380,(11 8 0 -7 -6 -3 13 28)
1969/12/31/18:00:17.381,(-23 -21 -14 -7 41 82 -23 -58)
1969/12/31/18:00:17.381,(-4 2 4 14 12 -87 -26 -26)
1969/12/31/18:00:17.385,(20 31 15 17 27 29 49 12)
1969/12/31/18:00:17.385,(16 -8 3 5 -10 20 12 72)
1969/12/31/18:00:17.386,(-17 1 0 7 35 -7 -8 -1)
1969/12/31/18:00:17.386,(21 20 -3 -14 -45 -3 5 27)
1969/12/31/18:00:17.401,(-19 -45 -12 -11 2 -9 22 -2)
1969/12/31/18:00:17.401,(-6 1 1 9 1 -17 2 11)
1969/12/31/18:00:17.410,(15 13 -5 -31 -77 -39 10 27)
1969/12/31/18:00:17.410,(-1 -1 1 6 22 -15 -23 -14)
1969/12/31/18:00:17.427,(13 15 5 11 26 -3 19 -1)
1969/12/31/18:00:17.427,(6 0 5 27 85 71 20 0)
1969/12/31/18:00:17.428,(9 5 6 20 39 29 17 26)
1969/12/31/18:00:17.428,(-31 -16 -23 -46 -90 -79 -23 1)
1969/12/31/18:00:17.452,(13 14 -1 -21 -48 -47 -24 -11)
1969/12/31/18:00:17.452,(-33 -42 -19 -48 -96 -24 -1 -41)
1969/12/31/18:00:17.453,(-1 8 6 28 107 53 17 0)
1969/12/31/18:00:17.453,(6 -3 9 52 104 75 -5 7)
1969/12/31/18:00:17.468,(27 22 -7 -41 -98 -90 -33 20)
1969/12/31/18:00:17.468,(-14 -7 -2 -10 -4 -25 -37 -29)
1969/12/31/18:00:17.477,(-16 -11 -3 -10 -14 -19 11 -32)
1969/12/31/18:00:17.477,(-11 -20 -34 -5 40 30 -1 -21)
1969/12/31/18:00:17.494,(-7 13 45 35 62 54 19 -14)
1969/12/31/18:00:17.494,(2 41 15 1 -31 -18 -2 -17)
1969/12/31/18:00:17.495,(-1 -6 3 2 -37 -40 -24 6)
1969/12/31/18:00:17.495,(-2 -12 -8 -1 10 15 21 0)
1969/12/31/18:00:17.537,(37 21 -9 16 83 67 35 48)
1969/12/31/18:00:17.537,(-13 -63 -38 -30 -104 -69 -25 9)
1969/12/31/18:00:17.538,(2 13 -33 -30 -23 -9 13 19)
1969/12/31/18:00:17.538,(-29 57 92 76 77 41 1 15)
1969/12/31/18:00:17.546,(-6 -32 -43 -22 -65 -12 25 7)
1969/12/31/18:00:17.546,(-7 39 39 10 17 52 8 -41)
1969/12/31/18:00:17.547,(12 60 43 -10 -38 -36 -7 -22)
1969/12/31/18:00:17.547,(-20 -66 -47 -31 -23 -9 -24 6)
1969/12/31/18:00:17.560,(-16 -22 5 28 68 26 33 -13)
1969/12/31/18:00:17.562,(16 -9 -38 -9 -23 -35 -33 3)
1969/12/31/18:00:17.562,(-18 -34 5 -6 -43 -32 -49 -28)
1969/12/31/18:00:17.562,(14 -11 -30 -10 15 1 21 -6)
1969/12/31/18:00:17.586,(1 25 27 7 -24 -6 -7 -4)
1969/12/31/18:00:17.586,(-4 -23 -30 -4 21 12 -1 -40)
1969/12/31/18:00:17.587,(-18 -10 14 12 25 2 -2 -19)
1969/12/31/18:00:17.587,(-3 22 13 3 -10 -14 -6 -29)
1969/12/31/18:00:17.602,(10 22 6 15 57 40 -14 17)
1969/12/31/18:00:17.602,(7 29 20 -31 -96 -47 20 40)
1969/12/31/18:00:17.611,(-41 -40 -16 -13 -1 -5 -9 -46)
1969/12/31/18:00:17.611,(26 -3 -27 1 5 10 3 3)
1969/12/31/18:00:17.627,(8 -8 -15 3 32 12 -8 -54)
1969/12/31/18:00:17.627,(-38 7 9 2 27 -8 -5 -18)
1969/12/31/18:00:17.629,(13 101 90 22 -32 -17 -19 -28)
1969/12/31/18:00:17.629,(-20 -87 -64 -38 -28 -26 -28 9)
1969/12/31/18:00:17.689,(-4 -46 -17 -8 -37 -8 17 38)
1969/12/31/18:00:17.689,(4 40 6 16 106 56 4 -41)
1969/12/31/18:00:17.690,(51 13 -17 2 -7 -10 42 78)
1969/12/31/18:00:17.690,(-19 114 89 15 -79 -46 -51 -64)
1969/12/31/18:00:17.691,(4 -7 12 -9 -28 -22 -48 -27)
1969/12/31/18:00:17.691,(-44 -117 -33 4 10 15 21 2)
1969/12/31/18:00:17.697,(20 36 -49 -22 17 11 -5 -12)
1969/12/31/18:00:17.697,(57 -82 -91 -14 99 65 61 17)
1969/12/31/18:00:17.698,(0 118 97 66 -69 -33 9 43)
1969/12/31/18:00:17.698,(19 9 -35 -18 1 3 -13 -65)
1969/12/31/18:00:17.699,(-47 -106 -98 -14 30 22 -19 -33)
1969/12/31/18:00:17.699,(-41 91 75 9 -38 -30 41 30)
1969/12/31/18:00:17.721,(8 -37 -98 -58 -18 -10 -10 -57)
1969/12/31/18:00:17.721,(-43 23 83 16 -38 -68 -49 7)
1969/12/31/18:00:17.722,(10 -82 -29 10 50 40 -5 34)
1969/12/31/18:00:17.722,(46 -110 -94 -28 -2 10 25 36)
1969/12/31/18:00:17.745,(-9 93 93 23 21 3 6 -3)
1969/12/31/18:00:17.745,(19 3 11 8 -22 11 45 101)
1969/12/31/18:00:17.746,(-2 -99 -84 -28 34 4 2 -24)
1969/12/31/18:00:17.746,(-14 79 42 9 -71 -44 -54 -10)
1969/12/31/18:00:17.761,(-19 25 12 -4 -16 -9 -11 -62)
1969/12/31/18:00:17.761,(23 -92 -80 2 42 28 36 26)
1969/12/31/18:00:17.763,(-29 -62 -16 10 5 6 -15 -30)
1969/12/31/18:00:17.763,(24 -33 -46 -19 -6 -11 -4 23)
1969/12/31/18:00:17.787,(-30 6 -21 -9 10 -4 -13 -23)
1969/12/31/18:00:17.787,(8 90 80 13 -19 -16 5 16)
1969/12/31/18:00:17.795,(-15 -81 -55 -29 -31 2 44 59)
1969/12/31/18:00:17.795,(22 66 16 21 61 34 20 58)
1969/12/31/18:00:17.813,(-17 21 7 -29 -86 -51 26 69)
1969/12/31/18:00:17.813,(23 -44 -39 -8 0 -6 -65 17)
1969/12/31/18:00:17.814,(-23 47 43 6 -14 -10 16 -6)
1969/12/31/18:00:17.814,(18 -27 -5 -1 0 3 -31 -32)
1969/12/31/18:00:17.846,(-2 -68 -27 7 55 27 34 27)
1969/12/31/18:00:17.846,(37 -62 -84 -12 -1 18 40 43)
1969/12/31/18:00:17.855,(26 127 127 46 -9 -11 -12 7)
1969/12/31/18:00:17.856,(4 34 37 -1 -29 -25 -18 -14)
1969/12/31/18:00:17.857,(-24 -112 -114 -15 67 42 27 23)
1969/12/31/18:00:17.857,(-24 122 81 37 -7 3 10 7)
1969/12/31/18:00:17.858,(53 52 -9 -28 -2 14 -13 35)
1969/12/31/18:00:17.858,(-13 -72 -30 0 0 -3 15 -46)
1969/12/31/18:00:17.880,(-34 69 103 7 -71 -41 -4 -13)
1969/12/31/18:00:17.880,(15 -66 -66 -6 85 35 -24 2)
1969/12/31/18:00:17.881,(-1 -41 -19 1 -69 -48 7 -6)
1969/12/31/18:00:17.881,(-23 53 57 2 -15 18 -22 -18)
1969/12/31/18:00:17.895,(47 -88 -68 -7 19 9 -14 6)
1969/12/31/18:00:17.895,(-4 -36 -19 -9 1 12 16 9)
1969/12/31/18:00:17.896,(3 113 85 32 52 11 -30 -11)
1969/12/31/18:00:17.896,(-35 -39 -25 -1 -7 -15 -6 -34)
1969/12/31/18:00:17.921,(34 -36 -42 -14 -11 7 -24 -11)
1969/12/31/18:00:17.921,(-24 81 90 16 -8 9 55 -9)
1969/12/31/18:00:17.922,(36 6 -29 -3 36 14 -15 -2)
1969/12/31/18:00:17.922,(-14 -33 24 38 21 34 17 -11)
1969/12/31/18:00:17.947,(-20 16 -13 -19 0 -52 -43 -44)
1969/12/31/18:00:17.947,(50 -25 -51 -28 -38 -22 -16 15)
1969/12/31/18:00:17.948,(-35 64 84 25 -24 -8 4 -5)
1969/12/31/18:00:17.948,(5 7 -6 -21 -32 -23 8 24)
1969/12/31/18:00:18.006,(28 -73 -49 15 56 57 13 19)
1969/12/31/18:00:18.006,(-1 -24 2 9 19 10 63 54)
1969/12/31/18:00:18.006,(-34 4 -2 -11 -38 -34 -62 -38)
1969/12/31/18:00:18.006,(-9 17 1 -5 17 12 -13 -9)
1969/12/31/18:00:18.016,(-1 -4 16 -2 -13 -9 -11 10)
1969/12/31/18:00:18.016,(-2 -117 -111 -34 6 -3 17 -16)
1969/12/31/18:00:18.017,(2 94 77 48 47 49 61 30)
1969/12/31/18:00:18.017,(-50 -10 -1 -24 -55 -53 -78 -49)
1969/12/31/18:00:18.021,(23 -90 -95 -32 -16 -11 -10 5)
1969/12/31/18:00:18.021,(-10 127 127 35 -7 0 10 -5)
1969/12/31/18:00:18.023,(-27 -23 -40 -12 5 -4 -11 -17)
1969/12/31/18:00:18.023,(58 -84 -42 14 79 68 96 95)
1969/12/31/18:00:18.030,(-15 116 108 29 -49 -37 -30 -33)
1969/12/31/18:00:18.030,(-20 -48 -49 -36 -60 -53 -89 -107)
1969/12/31/18:00:18.030,(-33 -128 -100 -10 73 58 25 -44)
1969/12/31/18:00:18.030,(-4 119 75 6 -70 -60 -33 -23)
1969/12/31/18:00:18.055,(-25 -6 5 -8 -7 -5 23 -12)
1969/12/31/18:00:18.055,(5 16 12 16 63 55 20 18)
1969/12/31/18:00:18.056,(25 -36 -43 -24 -32 -33 -4 30)
1969/12/31/18:00:18.056,(25 -32 -25 13 45 43 28 20)
1969/12/31/18:00:18.081,(3 -17 -5 20 96 72 35 31)
1969/12/31/18:00:18.081,(16 40 12 -27 -128 -113 -38 -7)
1969/12/31/18:00:18.082,(-29 -48 -27 -23 -13 -20 13 13)
1969/12/31/18:00:18.082,(11 59 34 9 27 22 9 5)
1969/12/31/18:00:18.096,(7 8 3 0 -20 -23 -42 13)
1969/12/31/18:00:18.096,(24 27 1 30 85 60 23 52)
1969/12/31/18:00:18.105,(7 -58 -54 -27 -40 -30 -12 -5)
1969/12/31/18:00:18.105,(-24 81 67 19 -11 -5 7 -9)
1969/12/31/18:00:18.122,(-28 -79 -63 -8 27 47 21 -38)
1969/12/31/18:00:18.122,(12 54 25 13 12 -24 -33 -15)
1969/12/31/18:00:18.123,(-14 -10 -2 -9 -46 -40 -13 -2)
1969/12/31/18:00:18.123,(9 -42 -50 -38 -63 -24 -8 17)
1969/12/31/18:00:18.156,(26 -8 0 9 24 -7 -38 5)
1969/12/31/18:00:18.156,(1 -49 -31 -7 29 61 37 -8)
1969/12/31/18:00:18.165,(-23 100 85 -8 -70 -79 -80 -42)
1969/12/31/18:00:18.165,(10 -42 -34 -15 15 10 19 10)
1969/12/31/18:00:18.167,(30 -40 -21 2 3 17 62 73)
1969/12/31/18:00:18.167,(-14 24 11 4 5 4 -42 -48)
1969/12/31/18:00:18.168,(21 64 29 24 32 34 63 45)
1969/12/31/18:00:18.168,(5 -63 -48 -8 21 19 -11 -7)
1969/12/31/18:00:18.189,(-26 31 24 -11 -48 -60 -58 -25)
1969/12/31/18:00:18.189,(-28 -52 -11 8 52 43 -1 -37)
1969/12/31/18:00:18.190,(22 -12 14 15 -4 -10 10 36)
1969/12/31/18:00:18.190,(-12 54 21 6 -22 -15 -12 -34)
1969/12/31/18:00:18.215,(11 11 -21 -42 -18 44 43 13)
1969/12/31/18:00:18.215,(-11 60 55 45 67 28 -1 -39)
1969/12/31/18:00:18.216,(-14 -74 -37 -23 -59 -24 20 -7)
1969/12/31/18:00:18.216,(17 -12 -33 -15 -17 -32 -55 -56)
1969/12/31/18:00:18.231,(-32 -10 9 0 -18 -13 24 13)
1969/12/31/18:00:18.231,(-28 -54 -11 -11 -7 11 0 -11)
1969/12/31/18:00:18.231,(48 58 25 39 73 41 54 37)
1969/12/31/18:00:18.231,(-9 59 68 -2 -65 -47 -24 6)
1969/12/31/18:00:18.256,(7 16 17 14 7 4 -5 -11)
1969/12/31/18:00:18.256,(-21 -72 -57 -32 -17 1 26 71)
1969/12/31/18:00:18.257,(47 0 -44 -23 3 14 -20 -18)
1969/12/31/18:00:18.257,(-58 -51 2 7 19 -11 18 13)
1969/12/31/18:00:18.308,(41 127 96 34 2 -11 4 15)
1969/12/31/18:00:18.308,(36 4 -25 10 23 37 13 38)
1969/12/31/18:00:18.309,(-44 -72 -23 -23 -43 -38 -28 -43)
1969/12/31/18:00:18.309,(44 -16 -11 -5 7 -4 29 39)
1969/12/31/18:00:18.310,(-5 -8 -1 1 28 22 -14 14)
1969/12/31/18:00:18.310,(-27 -25 -30 -22 -55 -52 9 -25)
1969/12/31/18:00:18.314,(1 24 46 51 99 85 -12 -14)
1969/12/31/18:00:18.314,(9 58 42 -25 -90 -96 -54 -23)
1969/12/31/18:00:18.323,(-20 3 -6 -7 16 -10 21 17)
1969/12/31/18:00:18.323,(96 -4 -67 -14 11 8 -26 74)
1969/12/31/18:00:18.324,(4 -19 54 37 68 71 40 18)
1969/12/31/18:00:18.324,(-43 -21 -27 -8 11 4 -12 -26)
1969/12/31/18:00:18.348,(-16 6 31 19 -3 -19 -40 -86)
1969/12/31/18:00:18.348,(48 80 28 17 23 18 29 55)
1969/12/31/18:00:18.350,(-37 -44 -19 -15 -55 -53 -58 -79)
1969/12/31/18:00:18.350,(40 3 0 7 42 67 48 35)
1969/12/31/18:00:18.364,(-5 -53 -37 4 14 6 12 21)
1969/12/31/18:00:18.364,(-43 -18 14 -42 -91 -57 -12 -26)
1969/12/31/18:00:18.373,(25 25 -11 -9 35 29 20 47)
1969/12/31/18:00:18.373,(40 44 -7 15 17 -4 4 63)
1969/12/31/18:00:18.390,(-5 17 17 15 -2 -6 -17 -65)
1969/12/31/18:00:18.390,(-2 -2 51 26 22 11 19 -11)
1969/12/31/18:00:18.391,(-10 -14 -52 -33 -36 -32 -53 -35)
1969/12/31/18:00:18.391,(5 -54 -60 -10 38 52 25 -7)
1969/12/31/18:00:18.415,(1 -57 -17 -8 -19 -48 8 44)
1969/12/31/18:00:18.415,(-26 118 94 22 -37 -38 -48 -82)
1969/12/31/18:00:18.417,(74 -57 -40 -20 -22 -33 -14 102)
1969/12/31/18:00:18.417,(-55 -7 -9 4 -22 23 26 -78)
1969/12/31/18:00:18.431,(-10 9 12 -16 -2 4 -43 -8)
1969/12/31/18:00:18.431,(-21 -85 -62 -23 1 -4 -10 -50)
1969/12/31/18:00:18.468,(-6 44 53 5 12 6 -2 17)
1969/12/31/18:00:18.468,(6 -3 -27 6 33 9 -16 -27)
1969/12/31/18:00:18.469,(23 19 11 13 25 27 28 42)
1969/12/31/18:00:18.469,(-29 -55 -32 -20 -12 13 -8 2)
1969/12/31/18:00:18.470,(12 22 -13 11 -29 -37 11 -1)
1969/12/31/18:00:18.470,(-4 -23 5 -10 -14 -14 13 25)
1969/12/31/18:00:18.482,(-19 34 -8 -20 -32 2 -40 -36)
1969/12/31/18:00:18.482,(14 -8 13 8 4 -21 -23 16)
1969/12/31/18:00:18.483,(-28 27 11 11 34 32 21 -72)
1969/12/31/18:00:18.483,(35 -34 -26 -1 18 -13 -34 -32)
1969/12/31/18:00:18.498,(-31 11 25 3 -29 0 58 71)
1969/12/31/18:00:18.498,(4 -10 -28 -19 -10 -16 -6 -22)
1969/12/31/18:00:18.507,(-6 -10 -14 -7 -14 -3 -14 2)
1969/12/31/18:00:18.507,(-24 -29 -33 -18 19 10 12 14)
1969/12/31/18:00:18.524,(1 -42 3 14 15 8 20 8)
1969/12/31/18:00:18.524,(-50 -1 -12 -15 -23 -33 -80 -72)
1969/12/31/18:00:18.525,(7 14 -11 0 8 12 22 10)
1969/12/31/18:00:18.525,(-35 -21 11 5 17 24 -13 0)
1969/12/31/18:00:18.549,(42 18 -16 -8 -71 -64 32 39)
1969/12/31/18:00:18.549,(19 63 80 18 -13 3 0 42)
1969/12/31/18:00:18.550,(-9 -32 -36 -15 13 12 10 -7)
1969/12/31/18:00:18.550,(-49 -15 63 21 17 3 -30 -8)
1969/12/31/18:00:18.565,(52 28 -35 -8 18 24 0 -7)
1969/12/31/18:00:18.565,(-27 -16 -31 -14 -14 -27 12 13)
1969/12/31/18:00:18.574,(-82 -42 -7 -10 -13 -8 -36 -72)
1969/12/31/18:00:18.574,(4 -1 -9 7 20 15 -20 -5)
1969/12/31/18:00:18.619,(-24 -37 -2 -10 0 -6 -22 -36)
1969/12/31/18:00:18.619,(32 21 -13 9 14 6 22 30)
1969/12/31/18:00:18.620,(31 8 7 10 4 15 39 68)
1969/12/31/18:00:18.620,(-14 -12 -15 -12 -15 -11 8 -2)
1969/12/31/18:00:18.621,(-6 -18 -7 -4 14 9 -2 -14)
1969/12/31/18:00:18.621,(13 -10 -25 13 21 26 5 13)
1969/12/31/18:00:18.624,(22 65 50 37 38 24 18 18)
1969/12/31/18:00:18.624,(30 91 110 23 -43 -40 -2 15)
1969/12/31/18:00:18.632,(-12 -44 -59 -38 -18 6 3 8)
1969/12/31/18:00:18.632,(-25 -46 -26 -17 -7 -12 19 -34)
1969/12/31/18:00:18.641,(23 16 -19 -3 -4 2 -7 -10)
1969/12/31/18:00:18.641,(0 -21 -16 8 37 32 31 45)
1969/12/31/18:00:18.658,(-31 7 14 -2 -12 -22 -30 -86)
1969/12/31/18:00:18.658,(-37 -16 -12 -19 -27 -6 -1 -24)
1969/12/31/18:00:18.659,(23 15 12 5 5 15 11 20)
1969/12/31/18:00:18.659,(15 -14 -29 -17 -9 -11 5 -5)
1969/12/31/18:00:18.683,(10 16 0 9 11 3 -9 13)
1969/12/31/18:00:18.683,(25 36 51 27 21 10 -8 0)
1969/12/31/18:00:18.684,(-17 -21 -5 -13 -28 -31 -12 -15)
1969/12/31/18:00:18.684,(-12 -15 -4 8 8 24 20 11)
1969/12/31/18:00:18.699,(-11 3 -8 3 5 4 -3 -2)
1969/12/31/18:00:18.699,(47 -5 -18 -17 -4 -2 -4 24)
1969/12/31/18:00:18.708,(75 81 68 26 2 4 22 46)
1969/12/31/18:00:18.708,(-80 -72 -36 -19 -14 -21 -32 -62)
1969/12/31/18:00:18.725,(-19 -3 13 5 2 -6 -22 -28)
1969/12/31/18:00:18.725,(-13 -12 -4 9 24 10 15 4)
1969/12/31/18:00:18.726,(13 -6 -11 -22 -41 -9 4 15)
1969/12/31/18:00:18.726,(29 24 -4 -1 -1 -3 0 -1)
1969/12/31/18:00:18.777,(8 7 4 -2 -5 17 17 2)
1969/12/31/18:00:18.777,(-23 -9 8 -21 2 -2 -29 -6)
1969/12/31/18:00:18.778,(-30 -18 -7 37 13 -33 39 1)
1969/12/31/18:00:18.778,(-8 -4 -2 10 43 96 29 -19)
1969/12/31/18:00:18.779,(19 8 8 5 -34 -52 -26 18)
1969/12/31/18:00:18.779,(49 31 21 44 81 38 16 49)
1969/12/31/18:00:18.783,(11 11 2 -18 -12 -26 -47 -23)
1969/12/31/18:00:18.783,(39 9 1 1 -19 9 -18 50)
1969/12/31/18:00:18.792,(-24 -6 -4 -1 -11 -8 37 -23)
