time,.data
1969/12/31/18:00:06.599,(-5 -2 0 -5 -5 -3 -2 -2)
1969/12/31/18:00:06.599,(0 1 0 -3 -1 -4 -2 -1)
1969/12/31/18:00:06.605,(1 1 1 3 0 1 2 4)
1969/12/31/18:00:06.605,(4 1 -3 8 3 3 0 0)
1969/12/31/18:00:06.613,(4 5 4 0 0 -2 -2 0)
1969/12/31/18:00:06.613,(-3 -2 -1 -4 -3 -2 -2 -4)
1969/12/31/18:00:06.628,(-1 -4 -5 -6 -4 -1 1 1)
1969/12/31/18:00:06.628,(-1 -3 -6 1 2 -1 -1 0)
1969/12/31/18:00:06.634,(-4 -4 6 -2 -3 -2 -2 0)
1969/12/31/18:00:06.634,(-4 2 7 -5 -4 -1 -1 -4)
1969/12/31/18:00:06.641,(4 0 -6 11 12 3 0 -1)
1969/12/31/18:00:06.641,(0 -2 -8 -8 -4 -2 -2 -1)
1969/12/31/18:00:06.656,(-8 -3 0 -11 -5 -3 -2 -6)
1969/12/31/18:00:06.656,(4 3 -3 13 4 5 4 4)
1969/12/31/18:00:06.657,(2 4 8 -4 -5 1 2 0)
1969/12/31/18:00:06.657,(-2 -2 4 2 -1 -3 0 -1)
1969/12/31/18:00:06.676,(6 0 -5 13 6 2 0 2)
1969/12/31/18:00:06.676,(-2 2 -5 -13 2 0 -3 -1)
1969/12/31/18:00:06.678,(-3 0 -3 -7 -3 2 1 1)
1969/12/31/18:00:06.678,(-7 -9 -3 3 -7 -8 -4 -5)
1969/12/31/18:00:06.690,(-4 -2 13 8 2 10 10 1)
1969/12/31/18:00:06.690,(19 8 -14 10 15 1 1 13)
1969/12/31/18:00:06.703,(-7 -9 -2 -21 -11 -8 -8 -7)
1969/12/31/18:00:06.703,(3 14 -1 -15 -11 -3 -1 3)
1969/12/31/18:00:06.712,(-6 -11 -21 -7 -7 -4 -4 -4)
1969/12/31/18:00:06.712,(-4 -4 9 13 3 10 9 -3)
1969/12/31/18:00:06.714,(-1 2 15 19 14 -1 -6 -3)
1969/12/31/18:00:06.714,(1 4 10 0 -1 -1 -1 0)
1969/12/31/18:00:06.732,(3 4 3 -9 -2 1 2 3)
1969/12/31/18:00:06.732,(-9 -8 -6 1 -12 -8 -7 -8)
1969/12/31/18:00:06.734,(-2 2 23 9 9 7 6 -2)
1969/12/31/18:00:06.734,(-2 -3 -14 3 6 -3 -6 -1)
1969/12/31/18:00:06.746,(-6 -14 -19 -18 -8 -9 -9 -4)
1969/12/31/18:00:06.746,(3 -6 -14 -12 -7 -1 3 5)
1969/12/31/18:00:06.753,(-2 -1 15 -5 -14 -3 0 -2)
1969/12/31/18:00:06.753,(4 3 -12 25 9 8 4 -1)
1969/12/31/18:00:06.774,(17 4 -8 13 12 12 3 6)
1969/12/31/18:00:06.774,(-8 7 18 -30 -11 -8 -6 -5)
1969/12/31/18:00:06.776,(1 -3 -34 -4 -5 -13 -2 0)
1969/12/31/18:00:06.776,(0 -1 19 -1 -4 0 3 2)
1969/12/31/18:00:06.789,(6 8 -9 6 11 1 3 5)
1969/12/31/18:00:06.789,(-12 -19 13 -7 -20 -7 -7 -9)
1969/12/31/18:00:06.791,(-1 3 -17 9 11 3 -3 -2)
1969/12/31/18:00:06.791,(13 13 -8 -27 -5 10 8 6)
1969/12/31/18:00:06.802,(14 8 -8 6 2 0 0 7)
1969/12/31/18:00:06.802,(-15 -14 21 10 10 -3 -5 -6)
1969/12/31/18:00:06.809,(-2 -4 1 -1 -22 -13 -3 0)
1969/12/31/18:00:06.809,(-11 -10 6 18 16 -5 -5 -9)
1969/12/31/18:00:06.824,(-12 -6 8 7 -4 0 -4 -8)
1969/12/31/18:00:06.824,(12 17 -3 -20 -5 3 5 6)
1969/12/31/18:00:06.825,(15 13 -5 -1 -6 2 6 8)
1969/12/31/18:00:06.825,(0 2 3 3 24 7 0 3)
1969/12/31/18:00:06.845,(0 1 27 19 15 3 3 -1)
1969/12/31/18:00:06.845,(4 0 -16 40 12 6 -3 0)
1969/12/31/18:00:06.846,(-3 -5 -14 -40 -22 -5 -2 -1)
1969/12/31/18:00:06.846,(1 -1 1 -20 -17 -3 -2 -1)
1969/12/31/18:00:06.858,(-1 -1 7 39 22 -1 -1 -1)
1969/12/31/18:00:06.858,(-6 -5 -2 -9 -11 0 8 2)
1969/12/31/18:00:06.866,(6 -1 -7 -6 0 -2 1 3)
1969/12/31/18:00:06.866,(-11 -14 -25 -79 -48 -21 -11 -9)
1969/12/31/18:00:06.880,(1 8 13 -7 -2 2 3 1)
1969/12/31/18:00:06.880,(16 20 12 67 57 23 11 9)
1969/12/31/18:00:06.881,(1 -4 -4 15 21 12 3 -1)
1969/12/31/18:00:06.881,(-11 -12 11 39 21 -1 -2 -5)
1969/12/31/18:00:06.901,(-17 -11 0 -44 -40 -15 -6 -10)
1969/12/31/18:00:06.902,(8 3 -14 -37 -22 -10 -1 1)
1969/12/31/18:00:06.903,(1 4 3 0 -2 -3 0 1)
1969/12/31/18:00:06.903,(3 -1 -6 -30 -28 -4 -1 0)
1969/12/31/18:00:06.914,(1 2 -3 -21 11 8 3 -1)
1969/12/31/18:00:06.914,(-1 -2 3 11 -19 2 0 -1)
1969/12/31/18:00:06.922,(-8 -6 13 62 55 8 -5 -6)
1969/12/31/18:00:06.922,(-3 1 9 34 11 3 -1 1)
1969/12/31/18:00:06.936,(4 2 -12 -34 -10 -4 2 4)
1969/12/31/18:00:06.936,(-5 -4 -2 -6 -26 -7 -4 -5)
1969/12/31/18:00:06.937,(-1 1 13 16 -1 2 2 -1)
1969/12/31/18:00:06.937,(0 1 -3 0 7 0 2 2)
1969/12/31/18:00:06.957,(-4 -1 -2 -2 1 -2 -2 -3)
1969/12/31/18:00:06.957,(-6 -6 -8 -29 -7 -7 -6 -3)
1969/12/31/18:00:06.959,(-3 -3 -6 -20 -19 -4 -4 -2)
1969/12/31/18:00:06.959,(4 4 3 7 3 2 2 4)
1969/12/31/18:00:06.970,(-6 -4 -4 -11 -11 -5 -4 -3)
1969/12/31/18:00:06.970,(0 -1 -6 -7 7 1 1 2)
1969/12/31/18:00:06.978,(3 3 3 -5 0 2 3 3)
1969/12/31/18:00:06.978,(-1 1 5 10 2 0 -1 -1)
1969/12/31/18:00:06.992,(1 0 0 2 -2 0 0 0)
1969/12/31/18:00:06.992,(0 -1 0 16 14 2 -1 -2)
1969/12/31/18:00:06.993,(-2 -3 0 -11 -8 -3 -4 -3)
1969/12/31/18:00:06.993,(-4 -6 -5 -16 -8 -2 0 -1)
1969/12/31/18:00:07.013,(4 5 7 26 3 0 3 2)
1969/12/31/18:00:07.013,(2 0 0 13 19 4 1 2)
1969/12/31/18:00:07.015,(-2 -3 -5 -14 -7 -3 -2 -2)
1969/12/31/18:00:07.015,(-1 0 3 3 -1 -1 -4 -5)
1969/12/31/18:00:07.026,(-3 -2 0 12 1 0 -4 -4)
1969/12/31/18:00:07.026,(-2 0 1 -5 1 1 -1 -2)
1969/12/31/18:00:07.035,(0 0 -1 -3 -4 2 -1 0)
1969/12/31/18:00:07.035,(3 3 0 5 2 0 0 2)
1969/12/31/18:00:07.056,(-4 -6 -4 -4 -4 -6 -3 -3)
1969/12/31/18:00:07.056,(3 2 3 -3 2 -3 0 0)
1969/12/31/18:00:07.057,(-2 2 1 4 -2 -2 -1 0)
1969/12/31/18:00:07.057,(-2 -1 5 11 3 -2 0 -3)
1969/12/31/18:00:07.069,(1 -2 -5 -9 -5 0 -2 -2)
1969/12/31/18:00:07.069,(4 3 -4 -10 -3 0 2 4)
1969/12/31/18:00:07.071,(7 5 5 6 7 6 1 3)
1969/12/31/18:00:07.071,(-1 -1 1 1 0 2 -2 -1)
1969/12/31/18:00:07.082,(-5 -3 1 7 1 0 -2 -1)
1969/12/31/18:00:07.082,(-12 -8 -3 -2 -6 -8 -4 -8)
1969/12/31/18:00:07.091,(8 3 -9 -27 -7 3 7 7)
1969/12/31/18:00:07.091,(2 0 1 8 3 0 0 1)
1969/12/31/18:00:07.105,(5 1 -5 -4 -4 0 3 6)
1969/12/31/18:00:07.105,(2 1 -2 -11 -12 -4 -1 3)
1969/12/31/18:00:07.106,(-9 -7 -8 -40 5 -2 -5 -8)
1969/12/31/18:00:07.106,(-4 1 13 46 5 4 -2 -4)
1969/12/31/18:00:07.126,(-2 1 16 69 38 9 3 -2)
1969/12/31/18:00:07.126,(0 1 5 19 10 3 0 -1)
1969/12/31/18:00:07.127,(0 -1 -1 0 -10 -6 -2 -2)
1969/12/31/18:00:07.127,(-2 -3 -10 -44 -17 -6 0 3)
1969/12/31/18:00:07.138,(1 0 -13 -44 -21 -3 -1 1)
1969/12/31/18:00:07.138,(3 2 -1 -1 -2 -1 0 3)
1969/12/31/18:00:07.147,(2 0 -3 -1 -2 0 2 2)
1969/12/31/18:00:07.147,(-5 -3 -2 -2 3 -2 -5 -4)
1969/12/31/18:00:07.161,(-4 -2 4 5 -3 -2 -2 0)
1969/12/31/18:00:07.161,(4 1 -2 -6 2 0 1 4)
1969/12/31/18:00:07.162,(-3 -3 1 12 2 2 2 3)
1969/12/31/18:00:07.162,(1 4 5 7 4 5 0 -5)
1969/12/31/18:00:07.181,(-7 -4 -1 -2 -2 -3 -4 -8)
1969/12/31/18:00:07.181,(-5 -5 -7 -19 -5 -3 -6 -5)
1969/12/31/18:00:07.183,(7 2 -2 13 -4 1 5 6)
1969/12/31/18:00:07.183,(7 5 4 20 16 6 9 7)
1969/12/31/18:00:07.195,(11 6 2 -4 1 3 3 8)
1969/12/31/18:00:07.195,(-2 -3 -3 -5 -4 -2 -2 -3)
1969/12/31/18:00:07.203,(-5 -2 4 6 -3 -3 -5 -5)
1969/12/31/18:00:07.203,(-4 -5 -8 -13 -6 -2 -2 -2)
1969/12/31/18:00:07.217,(-4 -1 0 -5 -1 -2 -2 -4)
1969/12/31/18:00:07.217,(4 0 0 -1 -5 3 8 9)
1969/12/31/18:00:07.218,(-1 -1 2 9 2 -2 -1 -1)
1969/12/31/18:00:07.218,(-18 -2 2 -2 0 -6 -9 -11)
1969/12/31/18:00:07.238,(8 -1 2 -3 3 6 5 12)
1969/12/31/18:00:07.238,(7 -3 0 4 -3 -2 0 -1)
1969/12/31/18:00:07.239,(26 21 11 9 14 8 9 15)
1969/12/31/18:00:07.239,(-34 -18 -11 -7 -10 -13 -30 -44)
1969/12/31/18:00:07.251,(-2 1 -2 -6 -3 1 5 4)
1969/12/31/18:00:07.251,(-15 -9 0 1 -1 -3 -8 -14)
1969/12/31/18:00:07.259,(-28 -16 -2 -6 -7 -8 -6 -8)
1969/12/31/18:00:07.259,(49 29 7 9 9 9 16 33)
1969/12/31/18:00:07.273,(-7 -2 -2 -5 -8 -7 -8 -10)
1969/12/31/18:00:07.273,(-1 4 0 -3 -3 1 1 -3)
1969/12/31/18:00:07.275,(-6 -4 -2 4 -7 -2 -2 -2)
1969/12/31/18:00:07.275,(-3 -5 -1 0 7 0 3 1)
1969/12/31/18:00:07.294,(-8 -4 -4 6 4 0 -7 -11)
1969/12/31/18:00:07.294,(13 9 7 8 11 7 16 19)
1969/12/31/18:00:07.296,(-9 -10 -6 -10 -8 -2 -8 -14)
1969/12/31/18:00:07.296,(-2 -4 -1 -9 -9 -4 1 2)
1969/12/31/18:00:07.307,(6 0 -5 -4 -5 1 4 5)
1969/12/31/18:00:07.307,(14 4 -10 -87 -37 -7 1 5)
1969/12/31/18:00:07.322,(11 9 0 46 20 0 -7 -4)
1969/12/31/18:00:07.322,(1 0 6 36 14 4 3 0)
1969/12/31/18:00:07.329,(-12 -4 6 26 6 -1 -5 -7)
1969/12/31/18:00:07.329,(-7 -1 11 34 28 10 8 7)
1969/12/31/18:00:07.330,(0 -6 -9 -31 -20 -9 -11 -2)
1969/12/31/18:00:07.330,(-4 -7 -11 -33 -13 -4 -3 -4)
1969/12/31/18:00:07.350,(-7 -3 -2 -3 -4 -3 -2 -4)
1969/12/31/18:00:07.350,(-9 -9 -16 -25 -24 -14 -12 -12)
1969/12/31/18:00:07.352,(9 7 5 -9 -21 1 9 8)
1969/12/31/18:00:07.352,(3 0 0 19 36 9 4 6)
1969/12/31/18:00:07.363,(2 1 7 17 25 11 0 -1)
1969/12/31/18:00:07.363,(-8 -3 2 12 2 4 -3 -8)
1969/12/31/18:00:07.371,(0 1 -3 -4 0 -3 0 1)
1969/12/31/18:00:07.371,(3 1 -3 -13 -20 -6 0 4)
1969/12/31/18:00:07.384,(8 2 -2 -12 -9 -2 4 5)
1969/12/31/18:00:07.384,(-2 -1 -5 -8 8 -5 -6 -5)
1969/12/31/18:00:07.391,(-8 -5 1 16 6 2 1 -3)
1969/12/31/18:00:07.391,(5 4 3 7 -7 -5 -2 8)
1969/12/31/18:00:07.406,(-5 0 5 3 6 2 -3 -17)
1969/12/31/18:00:07.406,(-4 -2 0 12 -5 -1 -6 -4)
1969/12/31/18:00:07.408,(-19 -14 -7 -15 2 2 1 -7)
1969/12/31/18:00:07.408,(16 13 5 -3 2 3 8 15)
1969/12/31/18:00:07.419,(-7 -6 -6 -11 -12 -6 -5 -4)
1969/12/31/18:00:07.419,(4 2 1 12 6 4 1 5)
1969/12/31/18:00:07.428,(-4 -5 -6 -13 -6 -6 -4 -7)
1969/12/31/18:00:07.428,(-6 -4 -7 -19 -6 -1 3 2)
1969/12/31/18:00:07.441,(3 3 -6 -37 -10 -4 0 4)
1969/12/31/18:00:07.441,(13 9 8 31 -1 7 8 8)
1969/12/31/18:00:07.447,(-7 -3 9 55 31 5 -2 -2)
1969/12/31/18:00:07.447,(-7 -5 10 38 24 5 1 -8)
1969/12/31/18:00:07.462,(3 2 2 -3 -7 -1 1 0)
1969/12/31/18:00:07.462,(-6 -5 -7 -18 -7 -6 -6 -6)
1969/12/31/18:00:07.464,(3 3 -3 -27 -12 -2 -1 -3)
1969/12/31/18:00:07.464,(0 4 -3 -15 -14 1 8 10)
1969/12/31/18:00:07.475,(4 -4 -12 -11 -11 -9 -7 -1)
1969/12/31/18:00:07.475,(-22 -13 -2 7 5 0 -1 -10)
1969/12/31/18:00:07.484,(22 16 4 2 0 3 0 9)
1969/12/31/18:00:07.484,(-8 -4 -4 -10 -7 -3 -7 -9)
1969/12/31/18:00:07.497,(10 6 1 6 2 1 0 1)
1969/12/31/18:00:07.497,(6 4 1 8 2 1 3 4)
1969/12/31/18:00:07.503,(1 3 2 -1 5 2 4 1)
1969/12/31/18:00:07.503,(-5 -7 -5 -11 -6 -2 -3 -5)
1969/12/31/18:00:07.518,(4 3 1 2 -2 2 4 8)
1969/12/31/18:00:07.518,(-4 -2 2 12 7 -1 -3 -5)
1969/12/31/18:00:07.520,(-3 -5 2 -6 -2 -4 -1 -2)
1969/12/31/18:00:07.520,(4 0 -7 -35 -26 -3 0 3)
1969/12/31/18:00:07.531,(-10 -6 -8 2 0 -7 -3 -5)
1969/12/31/18:00:07.531,(8 4 2 0 -3 1 2 5)
1969/12/31/18:00:07.540,(-11 -6 4 34 29 8 -1 -7)
1969/12/31/18:00:07.540,(-5 -5 10 3 19 14 5 -5)
1969/12/31/18:00:07.553,(17 10 7 20 10 7 12 24)
1969/12/31/18:00:07.553,(-12 -10 -13 -21 -13 -13 -16 -18)
1969/12/31/18:00:07.559,(-8 -4 -8 -25 -25 -6 5 7)
1969/12/31/18:00:07.559,(24 11 -1 -1 -6 -8 -5 3)
1969/12/31/18:00:07.574,(-17 -11 -3 -9 -4 1 0 -15)
1969/12/31/18:00:07.574,(5 4 -1 -8 -1 -1 2 4)
1969/12/31/18:00:07.576,(1 -1 -4 -10 -20 -5 -2 1)
1969/12/31/18:00:07.576,(-12 -11 -11 1 6 1 -6 -9)
1969/12/31/18:00:07.596,(3 4 8 19 31 9 5 7)
1969/12/31/18:00:07.596,(4 4 12 32 14 6 3 6)
1969/12/31/18:00:07.598,(-8 -5 2 13 -6 -6 -6 -11)
1969/12/31/18:00:07.598,(-3 -1 0 -12 -12 -5 1 2)
1969/12/31/18:00:07.609,(4 0 -7 -22 -2 0 -2 0)
1969/12/31/18:00:07.609,(0 2 3 20 19 5 1 -2)
1969/12/31/18:00:07.616,(3 -1 5 2 10 3 2 4)
1969/12/31/18:00:07.616,(-8 -6 -1 9 -11 -7 -3 -6)
1969/12/31/18:00:07.631,(-8 -3 -6 -17 -16 -10 -9 -9)
1969/12/31/18:00:07.631,(20 15 1 -19 -4 3 12 16)
1969/12/31/18:00:07.632,(18 7 -4 -12 -4 1 1 9)
1969/12/31/18:00:07.632,(-3 -6 -2 8 3 3 3 6)
1969/12/31/18:00:07.652,(15 12 4 1 -2 1 2 2)
1969/12/31/18:00:07.652,(-5 -3 -2 -4 -3 2 5 5)
1969/12/31/18:00:07.653,(-4 1 1 2 -6 -5 -6 -7)
1969/12/31/18:00:07.653,(3 2 -5 -5 4 0 -2 -2)
1969/12/31/18:00:07.665,(-4 -4 6 32 14 6 7 6)
1969/12/31/18:00:07.665,(-3 -2 10 28 16 2 -3 -4)
1969/12/31/18:00:07.672,(-3 -2 -2 -1 3 4 1 0)
1969/12/31/18:00:07.672,(-25 -29 -6 -12 -9 -8 -11 -13)
1969/12/31/18:00:07.687,(22 31 5 -9 -10 2 8 10)
1969/12/31/18:00:07.688,(-17 -18 -9 -1 -8 -10 -16 -19)
1969/12/31/18:00:07.689,(18 18 4 -8 8 8 10 14)
1969/12/31/18:00:07.689,(0 1 -6 -3 -6 -7 -8 -9)
1969/12/31/18:00:07.708,(-13 -19 -4 4 3 1 -5 -8)
1969/12/31/18:00:07.708,(12 13 1 -20 -14 3 10 11)
1969/12/31/18:00:07.709,(-10 -4 -3 -18 -5 -2 -3 -2)
1969/12/31/18:00:07.709,(1 3 1 20 7 3 3 1)
1969/12/31/18:00:07.720,(-16 -35 11 35 16 7 7 7)
1969/12/31/18:00:07.720,(22 35 0 0 2 -8 -12 -2)
1969/12/31/18:00:07.734,(-22 -22 -13 -47 -15 1 4 -6)
1969/12/31/18:00:07.734,(20 14 2 17 1 1 9 12)
1969/12/31/18:00:07.744,(-26 -8 3 13 1 -4 -8 -16)
1969/12/31/18:00:07.744,(20 -8 7 7 15 10 14 17)
1969/12/31/18:00:07.745,(5 8 -6 1 -5 -3 -4 -5)
1969/12/31/18:00:07.745,(13 22 4 -19 -2 -2 4 6)
1969/12/31/18:00:07.764,(-16 -47 -24 -27 -20 -13 -19 -13)
1969/12/31/18:00:07.764,(-2 18 4 1 -7 -7 -7 -6)
1969/12/31/18:00:07.766,(14 -7 9 18 10 6 12 20)
1969/12/31/18:00:07.766,(0 13 3 10 6 3 -3 -11)
1969/12/31/18:00:07.777,(7 4 6 0 -5 -3 4 5)
1969/12/31/18:00:07.777,(1 8 2 -13 2 9 8 9)
1969/12/31/18:00:07.785,(8 25 -8 -8 -7 -6 -9 -11)
1969/12/31/18:00:07.785,(-22 -16 2 16 -7 -7 -8 -7)
1969/12/31/18:00:07.799,(19 37 15 -1 8 10 11 9)
1969/12/31/18:00:07.799,(-36 -70 -13 0 0 -9 -9 -5)
1969/12/31/18:00:07.801,(20 45 -2 -3 0 0 -1 -10)
1969/12/31/18:00:07.801,(-10 -17 -5 -3 5 5 -1 -5)
1969/12/31/18:00:07.821,(-27 -24 -12 -16 -12 -7 -12 -23)
1969/12/31/18:00:07.821,(23 15 9 1 0 3 8 20)
1969/12/31/18:00:07.822,(-19 -18 -10 5 -1 -13 -23 -19)
1969/12/31/18:00:07.822,(-13 -10 -1 -2 -1 1 3 2)
1969/12/31/18:00:07.834,(32 18 0 -11 -10 -6 2 12)
1969/12/31/18:00:07.834,(-4 15 -2 -3 2 5 -1 -12)
1969/12/31/18:00:07.849,(-4 -20 5 6 6 3 6 4)
1969/12/31/18:00:07.849,(11 10 8 18 1 -1 0 3)
1969/12/31/18:00:07.855,(-9 -1 1 16 11 -4 -5 -4)
1969/12/31/18:00:07.855,(13 11 -4 0 -1 5 6 7)
1969/12/31/18:00:07.857,(-10 -29 -6 -3 1 -1 0 6)
1969/12/31/18:00:07.857,(-7 6 -7 -16 -4 -3 -13 -20)
1969/12/31/18:00:07.877,(-8 1 -4 -11 -15 -3 -3 -4)
1969/12/31/18:00:07.877,(-60 -54 -7 -3 0 1 2 -25)
1969/12/31/18:00:07.878,(68 62 7 8 6 4 2 25)
1969/12/31/18:00:07.878,(6 -1 3 -4 0 4 8 11)
1969/12/31/18:00:07.889,(9 14 -1 -16 -4 0 0 2)
1969/12/31/18:00:07.890,(-17 -23 -7 15 -3 -11 -13 -18)
1969/12/31/18:00:07.897,(-17 -13 12 21 7 8 16 6)
1969/12/31/18:00:07.897,(15 6 -6 -26 -4 1 5 11)
1969/12/31/18:00:07.912,(9 3 -5 3 4 7 5 9)
1969/12/31/18:00:07.912,(1 3 5 13 4 0 -1 -1)
1969/12/31/18:00:07.913,(-31 -32 4 16 3 -7 -13 -18)
1969/12/31/18:00:07.913,(11 14 -1 -2 -5 -3 0 4)
1969/12/31/18:00:07.932,(-8 -9 -3 -17 -4 -2 -2 -3)
1969/12/31/18:00:07.932,(5 8 -6 -17 -6 -5 -5 -3)
1969/12/31/18:00:07.939,(-4 -4 -1 -3 -7 -1 3 1)
1969/12/31/18:00:07.940,(-1 -13 -5 -2 -3 -4 -1 2)
1969/12/31/18:00:07.945,(-12 -23 -7 2 1 1 0 -1)
1969/12/31/18:00:07.945,(9 27 9 8 5 2 -1 -3)
1969/12/31/18:00:07.953,(3 2 1 -3 0 3 1 1)
1969/12/31/18:00:07.953,(-6 -25 -6 -17 -4 0 0 4)
1969/12/31/18:00:07.967,(28 39 3 9 5 4 5 11)
1969/12/31/18:00:07.967,(-3 -1 3 5 -3 -2 -5 -5)
1969/12/31/18:00:07.974,(-25 -22 -5 -6 -2 -2 -4 -9)
1969/12/31/18:00:07.974,(-22 -16 -1 -1 0 -2 -9 -18)
1969/12/31/18:00:07.989,(20 11 4 2 1 0 4 19)
1969/12/31/18:00:07.989,(-2 6 -2 -21 -5 3 2 -4)
1969/12/31/18:00:07.990,(2 2 -5 15 8 1 1 2)
1969/12/31/18:00:07.990,(8 10 9 19 12 4 2 4)
1969/12/31/18:00:08.001,(-10 -10 -3 -9 -8 -5 -7 -7)
1969/12/31/18:00:08.002,(-6 -26 -2 -14 -16 -6 -5 3)
1969/12/31/18:00:08.010,(10 28 10 5 6 7 15 7)
1969/12/31/18:00:08.010,(2 9 -1 4 2 -3 -5 -4)
1969/12/31/18:00:08.024,(6 4 -14 -69 -8 3 7 6)
1969/12/31/18:00:08.024,(-1 -11 -8 31 -9 -3 -2 1)
1969/12/31/18:00:08.025,(7 3 9 13 4 5 1 5)
1969/12/31/18:00:08.025,(-26 -31 9 37 23 4 2 -5)
1969/12/31/18:00:08.045,(26 43 8 9 4 2 6 8)
1969/12/31/18:00:08.045,(-21 -15 -2 -24 -3 1 5 -3)
1969/12/31/18:00:08.046,(8 11 -19 -24 -11 -5 -8 -5)
1969/12/31/18:00:08.046,(24 27 13 1 1 6 9 11)
1969/12/31/18:00:08.057,(-33 -33 -6 7 -5 -5 -6 -11)
1969/12/31/18:00:08.057,(32 16 2 1 3 0 0 16)
1969/12/31/18:00:08.067,(3 -1 0 2 -3 -4 -2 0)
1969/12/31/18:00:08.067,(0 -6 -7 -14 -6 -1 1 3)
1969/12/31/18:00:08.080,(-29 -25 0 18 2 -2 -4 -16)
1969/12/31/18:00:08.081,(-5 2 -4 -4 -1 -3 -2 -1)
1969/12/31/18:00:08.082,(-3 -10 -1 -16 1 1 0 0)
1969/12/31/18:00:08.082,(16 15 1 1 -9 -4 -1 5)
1969/12/31/18:00:08.101,(3 -6 2 19 11 7 5 2)
1969/12/31/18:00:08.101,(1 8 -3 -19 -2 -1 -3 -4)
1969/12/31/18:00:08.103,(-32 -30 -5 7 -2 -5 -10 -20)
1969/12/31/18:00:08.103,(2 7 4 5 3 -2 0 7)
1969/12/31/18:00:08.113,(-2 2 2 6 -6 -1 1 -5)
1969/12/31/18:00:08.113,(4 7 2 2 7 3 4 6)
1969/12/31/18:00:08.122,(-13 -1 -1 -8 -6 -3 -4 -8)
1969/12/31/18:00:08.122,(-5 -15 -6 -9 -2 7 10 8)
1969/12/31/18:00:08.136,(3 -2 -6 -10 -4 -6 -9 -6)
1969/12/31/18:00:08.136,(10 4 -4 -6 -8 1 1 3)
1969/12/31/18:00:08.138,(-6 -10 10 30 13 -1 0 2)
1969/12/31/18:00:08.138,(1 6 -2 0 1 -2 1 0)
1969/12/31/18:00:08.157,(-6 -8 3 5 -3 -4 -6 -10)
1969/12/31/18:00:08.157,(15 25 1 -8 0 1 7 11)
1969/12/31/18:00:08.158,(-4 -8 -9 -14 -11 -4 -5 -5)
1969/12/31/18:00:08.158,(6 6 -10 -15 -10 -9 -10 -1)
1969/12/31/18:00:08.170,(-8 0 7 13 11 13 14 -2)
1969/12/31/18:00:08.170,(-14 -11 5 19 11 -4 -10 -12)
1969/12/31/18:00:08.178,(0 4 5 -3 -2 0 2 3)
1969/12/31/18:00:08.178,(8 3 -7 -10 -5 -5 -1 1)
1969/12/31/18:00:08.192,(-3 -12 -10 -8 -10 -5 -5 2)
1969/12/31/18:00:08.192,(12 19 10 17 8 3 4 -1)
1969/12/31/18:00:08.194,(-17 -12 2 1 -1 -3 -4 -10)
1969/12/31/18:00:08.194,(1 0 -3 -3 6 6 5 2)
1969/12/31/18:00:08.214,(-1 -3 -6 -14 -5 -4 -4 4)
1969/12/31/18:00:08.214,(2 -6 0 9 0 -1 3 2)
1969/12/31/18:00:08.214,(0 -18 0 -10 -4 -4 1 8)
1969/12/31/18:00:08.214,(8 44 -1 1 -9 -9 -12 -10)
1969/12/31/18:00:08.226,(-11 -7 11 15 10 3 3 -4)
1969/12/31/18:00:08.226,(-2 -10 -14 -10 -2 -1 -5 -1)
1969/12/31/18:00:08.234,(5 -5 -3 -9 -3 2 0 2)
1969/12/31/18:00:08.234,(-21 -14 4 9 -1 -1 0 -7)
1969/12/31/18:00:08.248,(16 29 6 7 1 -2 -5 1)
1969/12/31/18:00:08.248,(-14 -19 -7 -9 -1 0 0 -6)
1969/12/31/18:00:08.250,(-4 -3 -10 -12 -8 -4 -7 -7)
1969/12/31/18:00:08.250,(6 -8 -11 -44 -19 0 7 7)
1969/12/31/18:00:08.270,(-7 0 5 49 22 -4 -7 -9)
1969/12/31/18:00:08.270,(-10 -4 17 30 12 1 -2 -5)
1969/12/31/18:00:08.272,(13 6 6 12 9 10 14 17)
1969/12/31/18:00:08.272,(-16 -29 -3 -9 -6 -4 -8 -10)
1969/12/31/18:00:08.282,(9 12 -3 -25 -12 4 13 9)
1969/12/31/18:00:08.283,(1 1 -12 -12 -9 -6 -8 -7)
1969/12/31/18:00:08.290,(10 11 5 -1 2 5 6 14)
1969/12/31/18:00:08.290,(-23 -25 -4 5 3 -3 -7 -18)
1969/12/31/18:00:08.304,(5 4 -2 -9 -4 0 -1 1)
1969/12/31/18:00:08.304,(-11 -10 0 2 -2 -3 0 1)
1969/12/31/18:00:08.310,(20 1 -6 -12 -10 -4 1 9)
1969/12/31/18:00:08.310,(8 15 3 10 8 6 2 -3)
1969/12/31/18:00:08.332,(2 0 -2 8 4 1 -1 2)
1969/12/31/18:00:08.332,(6 -5 -4 -13 -2 4 6 7)
1969/12/31/18:00:08.334,(-6 0 -4 -29 -8 -5 -6 -7)
1969/12/31/18:00:08.334,(7 6 4 26 4 -4 0 9)
1969/12/31/18:00:08.338,(-19 -19 2 15 8 -5 -11 -18)
1969/12/31/18:00:08.338,(-3 3 0 -4 -2 0 0 1)
1969/12/31/18:00:08.347,(17 20 5 5 7 9 16 21)
1969/12/31/18:00:08.347,(-1 -9 -6 -6 4 -2 -9 -8)
1969/12/31/18:00:08.360,(7 16 -5 -22 -22 -7 -5 -1)
1969/12/31/18:00:08.360,(-8 -12 0 0 1 -3 -2 -2)
1969/12/31/18:00:08.367,(5 16 2 9 2 0 4 0)
1969/12/31/18:00:08.367,(-2 4 6 6 8 5 1 -5)
1969/12/31/18:00:08.382,(9 -4 -3 -5 -1 -3 -2 7)
1969/12/31/18:00:08.382,(0 0 -6 -11 -5 -1 -2 -2)
1969/12/31/18:00:08.383,(-14 -12 -2 7 -2 -5 -9 -12)
1969/12/31/18:00:08.383,(0 2 5 5 -1 -3 1 5)
1969/12/31/18:00:08.394,(-7 -2 2 -1 1 3 2 -3)
1969/12/31/18:00:08.394,(12 12 4 6 5 4 4 8)
1969/12/31/18:00:08.403,(-12 -11 -3 2 3 4 -1 -12)
1969/12/31/18:00:08.403,(11 7 3 -2 1 7 10 13)
1969/12/31/18:00:08.417,(0 -4 -5 -7 -3 -2 -5 0)
1969/12/31/18:00:08.417,(1 4 0 -6 -13 -7 -5 -3)
1969/12/31/18:00:08.422,(-10 -4 1 10 4 1 -1 -4)
1969/12/31/18:00:08.422,(-11 -23 1 3 4 1 -2 -2)
1969/12/31/18:00:08.438,(11 15 -5 -9 -6 0 4 9)
1969/12/31/18:00:08.438,(13 14 -3 -18 -8 -6 -2 4)
1969/12/31/18:00:08.439,(-26 -14 -2 -1 -3 -9 -23 -40)
1969/12/31/18:00:08.439,(1 -3 4 21 9 5 4 1)
1969/12/31/18:00:08.450,(-7 -10 1 -3 0 -2 0 1)
1969/12/31/18:00:08.450,(0 -7 -12 -30 -24 -6 -3 0)
1969/12/31/18:00:08.460,(7 7 2 35 19 -3 1 6)
1969/12/31/18:00:08.460,(-10 2 7 13 9 1 -2 -5)
1969/12/31/18:00:08.473,(6 -1 3 14 12 6 4 4)
1969/12/31/18:00:08.473,(-7 -1 0 -4 7 4 4 -4)
1969/12/31/18:00:08.475,(17 2 -10 -32 -29 -10 -6 8)
1969/12/31/18:00:08.475,(-42 -48 0 -5 -9 -1 1 -8)
1969/12/31/18:00:08.494,(24 39 -3 -4 1 3 7 9)
1969/12/31/18:00:08.494,(-21 -24 -6 1 2 -5 -13 -17)
1969/12/31/18:00:08.496,(2 10 1 3 0 -1 -6 -7)
1969/12/31/18:00:08.496,(1 -2 -5 -1 -3 -3 -2 0)
1969/12/31/18:00:08.515,(-4 -10 -1 -8 -8 -1 0 5)
1969/12/31/18:00:08.515,(25 19 7 10 9 7 6 14)
1969/12/31/18:00:08.517,(-6 -10 -3 -6 -4 2 2 2)
1969/12/31/18:00:08.517,(14 19 -3 -3 -1 -3 -3 2)
1969/12/31/18:00:08.529,(-23 -21 1 13 6 -1 -6 -14)
1969/12/31/18:00:08.529,(-14 -27 2 13 2 -5 -6 -5)
1969/12/31/18:00:08.535,(40 52 8 -1 8 15 29 32)
1969/12/31/18:00:08.535,(-12 -4 -5 -15 -13 -9 -14 -22)
1969/12/31/18:00:08.550,(1 -3 0 -4 -1 0 0 2)
1969/12/31/18:00:08.550,(-8 0 3 10 5 0 -1 -7)
1969/12/31/18:00:08.551,(5 -4 -2 -8 -8 -4 -1 5)
1969/12/31/18:00:08.551,(13 13 -2 -6 -2 2 5 10)
1969/12/31/18:00:08.571,(-8 -11 -2 2 -1 -4 -4 -5)
1969/12/31/18:00:08.571,(1 5 2 -1 -3 -2 1 -1)
1969/12/31/18:00:08.573,(-15 -15 -5 -15 -9 -1 -2 -7)
1969/12/31/18:00:08.573,(13 14 0 1 6 0 5 8)
1969/12/31/18:00:08.584,(0 2 -2 10 0 -2 -5 -5)
1969/12/31/18:00:08.584,(-6 -15 3 15 6 1 2 4)
1969/12/31/18:00:08.592,(19 30 7 20 5 0 -3 -2)
1969/12/31/18:00:08.592,(-18 -19 1 -4 -2 -3 -8 -18)
1969/12/31/18:00:08.607,(8 4 -5 -17 -8 0 -2 3)
1969/12/31/18:00:08.607,(-6 -7 -8 -9 -3 1 3 -2)
1969/12/31/18:00:08.607,(-18 -22 -5 1 -1 -5 -7 -10)
1969/12/31/18:00:08.607,(21 23 5 -3 -1 5 9 17)
1969/12/31/18:00:08.627,(-10 -7 -2 -3 0 -3 1 -6)
1969/12/31/18:00:08.627,(9 16 0 1 -2 -2 1 0)
1969/12/31/18:00:08.629,(-13 -15 -2 -2 0 -3 -4 -7)
1969/12/31/18:00:08.629,(9 8 0 -4 -7 1 2 6)
1969/12/31/18:00:08.640,(-2 -2 2 -9 6 5 4 1)
1969/12/31/18:00:08.640,(0 4 -2 -18 -11 0 1 2)
1969/12/31/18:00:08.649,(6 0 0 23 21 5 3 5)
1969/12/31/18:00:08.649,(-4 -5 8 32 12 4 1 -1)
1969/12/31/18:00:08.663,(1 -1 3 8 -10 -17 -8 -3)
1969/12/31/18:00:08.663,(1 7 -3 -14 -32 -12 -4 -2)
1969/12/31/18:00:08.665,(-14 -11 -2 -16 17 13 -2 -10)
1969/12/31/18:00:08.665,(9 5 -4 6 39 18 7 5)
1969/12/31/18:00:08.691,(-11 -15 1 9 13 18 6 0)
1969/12/31/18:00:08.691,(18 16 3 4 4 1 8 10)
1969/12/31/18:00:08.692,(-12 -21 -7 -17 -34 -20 -8 -5)
1969/12/31/18:00:08.692,(15 28 -4 -12 -22 -15 -6 2)
1969/12/31/18:00:08.696,(-4 -3 -2 -4 -1 -5 -2 -3)
1969/12/31/18:00:08.696,(-16 -11 -2 1 0 -2 -5 -11)
1969/12/31/18:00:08.705,(-2 -4 0 3 -2 -3 -2 1)
1969/12/31/18:00:08.705,(-9 -18 -7 -7 -1 -1 -3 -7)
1969/12/31/18:00:08.719,(16 20 2 -8 -4 2 6 9)
1969/12/31/18:00:08.719,(9 9 -2 4 4 -1 -4 3)
1969/12/31/18:00:08.720,(-6 -1 6 6 6 3 2 -2)
1969/12/31/18:00:08.720,(0 -5 -5 -7 -7 -3 -2 1)
1969/12/31/18:00:08.747,(-2 -4 -2 -5 -14 -5 -2 -2)
1969/12/31/18:00:08.747,(-4 -5 0 7 7 4 2 -1)
1969/12/31/18:00:08.749,(0 1 4 3 9 5 4 3)
1969/12/31/18:00:08.749,(-1 1 0 1 -4 1 2 2)
1969/12/31/18:00:08.752,(0 7 1 2 1 3 1 1)
1969/12/31/18:00:08.752,(5 3 2 7 7 2 -3 -1)
1969/12/31/18:00:08.761,(-3 -2 -4 -4 -2 -1 0 -1)
1969/12/31/18:00:08.761,(-4 -8 -2 -5 -9 -9 -6 -5)
1969/12/31/18:00:08.775,(-2 9 -2 -9 -3 -2 -3 -6)
1969/12/31/18:00:08.775,(2 2 2 6 8 4 3 2)
1969/12/31/18:00:08.776,(5 4 -3 -6 -7 -3 -1 4)
1969/12/31/18:00:08.776,(-8 -8 -3 5 1 -4 -4 -6)
1969/12/31/18:00:08.796,(8 0 4 12 6 5 4 6)
1969/12/31/18:00:08.796,(2 4 0 -15 -1 0 2 4)
1969/12/31/18:00:08.797,(5 5 -4 -9 -4 0 -1 -1)
1969/12/31/18:00:08.797,(-5 -5 5 18 4 0 2 0)
1969/12/31/18:00:08.809,(4 -3 5 35 9 -1 1 6)
1969/12/31/18:00:08.809,(-11 5 12 14 12 8 1 -9)
1969/12/31/18:00:08.817,(-3 -12 -4 -11 0 -7 -10 -5)
1969/12/31/18:00:08.817,(-3 11 6 -17 -3 17 26 10)
1969/12/31/18:00:08.831,(-16 -21 -17 -27 -18 -12 -12 -14)
1969/12/31/18:00:08.831,(-4 12 -3 3 1 3 6 5)
1969/12/31/18:00:08.833,(54 40 15 5 2 7 9 15)
1969/12/31/18:00:08.833,(6 0 -4 -5 -6 -5 -8 -2)
1969/12/31/18:00:08.852,(4 4 3 3 2 4 7 6)
1969/12/31/18:00:08.852,(-31 -28 -9 -1 -5 -7 -14 -20)
1969/12/31/18:00:08.854,(6 8 2 2 4 7 8 12)
1969/12/31/18:00:08.854,(9 7 -1 0 3 1 1 6)
1969/12/31/18:00:08.865,(-10 -8 1 -1 1 0 0 -3)
1969/12/31/18:00:08.865,(8 2 1 0 -1 -3 -1 3)
1969/12/31/18:00:08.873,(-19 -10 -6 -3 -7 -5 -6 -11)
1969/12/31/18:00:08.873,(10 1 -4 -9 -2 -2 0 6)
1969/12/31/18:00:08.887,(-4 -2 4 5 5 3 0 -3)
1969/12/31/18:00:08.887,(12 3 3 6 5 0 4 7)
1969/12/31/18:00:08.888,(-19 -27 -4 -14 -8 -3 -3 -7)
1969/12/31/18:00:08.888,(-12 7 -8 5 -4 -9 -10 -14)
1969/12/31/18:00:08.908,(0 -5 2 -1 9 9 9 11)
1969/12/31/18:00:08.908,(2 -1 -5 5 -1 -3 -6 -6)
1969/12/31/18:00:08.910,(-2 -5 0 5 1 1 0 -3)
1969/12/31/18:00:08.910,(0 -1 0 -12 -5 -3 -3 -1)
1969/12/31/18:00:08.921,(-3 -6 -8 -8 -4 -4 -3 -4)
1969/12/31/18:00:08.921,(15 7 -4 -24 -5 1 6 11)
1969/12/31/18:00:08.929,(-18 -10 -7 -4 -5 -6 -8 -12)
1969/12/31/18:00:08.929,(1 -2 6 21 3 2 1 1)
1969/12/31/18:00:08.943,(8 11 11 23 6 -2 -1 -3)
1969/12/31/18:00:08.943,(-13 -10 -3 -18 8 -2 -5 -6)
1969/12/31/18:00:08.944,(13 10 -1 6 -12 4 10 12)
1969/12/31/18:00:08.944,(1 -2 1 -10 -8 -5 -2 -2)
1969/12/31/18:00:08.964,(-4 -8 -6 -10 -5 -4 -7 -8)
1969/12/31/18:00:08.964,(0 0 1 10 3 5 2 1)
1969/12/31/18:00:08.966,(1 3 0 -11 10 4 1 1)
1969/12/31/18:00:08.966,(-3 -5 0 2 6 1 1 2)
1969/12/31/18:00:08.977,(-3 0 2 9 -7 -3 -5 -2)
1969/12/31/18:00:08.977,(2 -5 -5 -5 -1 -3 -1 0)
1969/12/31/18:00:08.992,(-9 -2 0 9 -1 -5 -5 -6)
1969/12/31/18:00:08.992,(2 -3 -1 -11 -4 3 3 5)
1969/12/31/18:00:08.999,(3 3 -2 -14 -3 -1 -2 0)
1969/12/31/18:00:08.999,(2 3 1 2 -3 1 3 1)
1969/12/31/18:00:09.005,(-1 5 22 22 2 7 4 2)
1969/12/31/18:00:09.005,(3 7 -5 -1 11 -2 -3 -1)
1969/12/31/18:00:09.019,(4 -2 -12 -21 -4 -8 -5 -1)
1969/12/31/18:00:09.019,(-6 -6 -4 3 -5 -2 -2 -4)
1969/12/31/18:00:09.028,(-4 -8 -17 -2 -3 -9 -5 -1)
1969/12/31/18:00:09.028,(-21 -15 3 -6 -5 -8 -10 -14)
1969/12/31/18:00:09.033,(12 9 4 7 5 15 10 13)
1969/12/31/18:00:09.033,(5 2 4 5 3 6 6 3)
1969/12/31/18:00:09.042,(3 11 21 11 5 4 3 2)
1969/12/31/18:00:09.042,(5 3 -10 -5 -2 -2 -3 2)
1969/12/31/18:00:09.062,(-3 -7 -11 -12 -2 -4 -2 -2)
1969/12/31/18:00:09.062,(-6 -4 -1 -1 -6 -5 -6 -4)
1969/12/31/18:00:09.064,(-2 1 -4 1 1 -1 1 0)
1969/12/31/18:00:09.064,(1 0 8 4 -1 0 0 -1)
1969/12/31/18:00:09.076,(-1 2 10 6 0 3 3 0)
1969/12/31/18:00:09.076,(7 8 9 11 4 2 2 6)
1969/12/31/18:00:09.078,(0 4 -4 1 3 -3 -4 -2)
1969/12/31/18:00:09.078,(-1 -9 -14 -6 -5 -1 -1 0)
1969/12/31/18:00:09.089,(-3 -8 -6 -7 -3 -7 -3 -3)
1969/12/31/18:00:09.089,(-6 -1 10 -9 -8 -4 -3 -5)
1969/12/31/18:00:09.098,(2 -1 -9 6 6 3 1 0)
1969/12/31/18:00:09.098,(2 -1 -2 1 1 2 3 2)
1969/12/31/18:00:09.112,(-2 3 14 12 1 1 -2 -1)
1969/12/31/18:00:09.112,(3 1 -19 -13 3 1 2 3)
1969/12/31/18:00:09.113,(-5 -11 -5 -14 -7 -4 -5 -4)
1969/12/31/18:00:09.113,(1 3 -3 8 -1 -3 -1 0)
1969/12/31/18:00:09.132,(-4 -4 2 -10 -8 -6 -5 -3)
1969/12/31/18:00:09.132,(-3 0 8 12 2 1 2 -1)
1969/12/31/18:00:09.134,(1 1 1 1 6 4 4 1)
1969/12/31/18:00:09.134,(2 1 3 2 1 1 1 2)
1969/12/31/18:00:09.145,(3 5 10 7 1 1 1 -1)
1969/12/31/18:00:09.145,(6 7 12 12 5 6 2 3)
1969/12/31/18:00:09.154,(5 -1 -15 -4 -2 -5 -3 0)
1969/12/31/18:00:09.154,(-6 -13 -10 -21 -17 -15 -7 -3)
1969/12/31/18:00:09.167,(-11 -7 -8 -27 -16 -8 -6 -8)
1969/12/31/18:00:09.167,(-3 -12 -31 14 9 -2 -1 -1)
1969/12/31/18:00:09.174,(-8 -1 20 9 8 7 2 -2)
1969/12/31/18:00:09.174,(5 16 30 20 10 7 5 3)
1969/12/31/18:00:09.189,(7 -4 -22 -5 2 4 1 3)
1969/12/31/18:00:09.189,(-5 -4 0 -15 -15 -10 -5 -1)
1969/12/31/18:00:09.190,(-10 -4 -8 -12 -10 -8 -5 -5)
1969/12/31/18:00:09.190,(1 0 -1 -24 -14 1 3 0)
1969/12/31/18:00:09.202,(3 0 -4 7 0 -5 -2 1)
1969/12/31/18:00:09.202,(-3 -5 9 38 22 4 -2 -2)
1969/12/31/18:00:09.210,(1 2 4 12 6 3 -2 0)
1969/12/31/18:00:09.210,(1 9 15 -14 -10 10 7 0)
1969/12/31/18:00:09.222,(11 6 -15 -9 -17 -5 -3 3)
1969/12/31/18:00:09.222,(-12 -18 -12 4 17 -4 -6 -8)
1969/12/31/18:00:09.231,(-3 5 21 -12 -6 -1 1 0)
1969/12/31/18:00:09.231,(1 4 -10 24 7 -1 -1 0)
1969/12/31/18:00:09.245,(-2 -8 -14 2 7 7 4 -2)
1969/12/31/18:00:09.245,(11 6 4 -21 -14 -4 1 6)
1969/12/31/18:00:09.245,(-11 -8 -5 -24 -15 -11 -6 -5)
1969/12/31/18:00:09.245,(2 6 24 3 0 5 1 -1)
1969/12/31/18:00:09.265,(10 7 -9 25 15 5 5 5)
1969/12/31/18:00:09.265,(-8 -8 -15 -20 2 -3 -3 -4)
1969/12/31/18:00:09.266,(0 2 -2 -13 -9 -3 -1 -1)
1969/12/31/18:00:09.266,(-2 -7 -9 17 -10 -5 -4 -1)
1969/12/31/18:00:09.287,(-8 -1 16 3 -3 -6 -4 -4)
1969/12/31/18:00:09.287,(7 17 33 19 25 19 7 3)
1969/12/31/18:00:09.288,(7 0 -17 21 13 2 -1 1)
1969/12/31/18:00:09.288,(-9 -13 -14 -63 -28 -12 -9 -7)
1969/12/31/18:00:09.301,(3 5 6 27 12 6 6 5)
1969/12/31/18:00:09.301,(-6 -7 0 9 -15 -6 -1 -3)
1969/12/31/18:00:09.301,(2 1 -3 -13 -2 -1 -1 -3)
1969/12/31/18:00:09.301,(2 -4 -7 30 11 6 3 1)
1969/12/31/18:00:09.321,(-13 -4 7 -17 10 0 -1 -5)
1969/12/31/18:00:09.321,(0 -2 -20 -32 -19 -4 -7 -3)
1969/12/31/18:00:09.322,(8 1 2 32 8 -5 -1 6)
1969/12/31/18:00:09.322,(-11 -7 -10 -20 -11 -11 -6 -8)
1969/12/31/18:00:09.335,(0 2 8 -10 3 8 1 0)
1969/12/31/18:00:09.335,(-3 -3 -8 -14 -14 -7 -5 -3)
1969/12/31/18:00:09.336,(1 3 6 9 -10 -1 -3 -2)
1969/12/31/18:00:09.336,(11 9 10 40 26 7 4 8)
1969/12/31/18:00:09.357,(-2 -1 8 12 14 1 2 0)
1969/12/31/18:00:09.357,(5 5 -3 -20 -10 -2 3 2)
1969/12/31/18:00:09.357,(6 -2 -14 -18 -1 2 2 2)
1969/12/31/18:00:09.357,(-9 -5 -2 -17 -21 -6 -2 -5)
1969/12/31/18:00:09.378,(1 2 16 32 22 3 -1 0)
1969/12/31/18:00:09.378,(-2 -2 6 8 10 3 4 3)
1969/12/31/18:00:09.385,(-10 -6 3 -3 7 4 -2 -7)
1969/12/31/18:00:09.385,(10 10 -5 -5 7 5 8 8)
1969/12/31/18:00:09.392,(0 -3 -13 9 -4 1 -2 0)
1969/12/31/18:00:09.392,(0 2 1 -22 -16 -5 1 0)
1969/12/31/18:00:09.393,(-2 -3 5 19 4 -4 -7 -5)
1969/12/31/18:00:09.393,(-16 -9 7 0 4 -6 -6 -11)
1969/12/31/18:00:09.421,(0 -5 -13 -22 -15 -2 3 4)
1969/12/31/18:00:09.421,(8 0 -10 -6 -1 5 0 1)
1969/12/31/18:00:09.421,(10 4 -4 14 13 9 13 12)
1969/12/31/18:00:09.421,(-2 0 2 -5 5 -2 -1 2)
1969/12/31/18:00:09.434,(-7 0 6 -9 -11 -6 -5 -7)
1969/12/31/18:00:09.434,(-6 1 -2 4 -2 -3 -4 -6)
1969/12/31/18:00:09.435,(-3 -1 2 -1 -2 -2 -3 -5)
1969/12/31/18:00:09.435,(0 -7 -9 10 7 2 1 3)
1969/12/31/18:00:09.450,(7 6 -5 -13 -5 1 1 3)
1969/12/31/18:00:09.450,(-1 -1 2 -2 -3 -1 1 -1)
1969/12/31/18:00:09.450,(-4 1 -1 -8 -13 -6 -5 -7)
1969/12/31/18:00:09.450,(5 4 0 24 19 8 4 5)
1969/12/31/18:00:09.469,(-8 -6 9 -5 -3 -2 -4 -4)
1969/12/31/18:00:09.469,(-2 0 5 9 -2 -2 -2 -1)
1969/12/31/18:00:09.470,(3 -1 0 -1 6 3 -1 1)
1969/12/31/18:00:09.470,(6 1 -11 -13 -5 -1 -2 1)
1969/12/31/18:00:09.490,(3 1 -9 -7 -6 -2 2 1)
1969/12/31/18:00:09.490,(-2 -1 6 10 1 -3 -2 -1)
1969/12/31/18:00:09.491,(-6 -5 -4 -9 -6 -1 1 -2)
1969/12/31/18:00:09.491,(3 -1 -6 -2 2 2 1 2)
1969/12/31/18:00:09.504,(-7 -2 3 0 -5 -6 -5 -7)
1969/12/31/18:00:09.504,(4 2 0 3 1 1 1 4)
1969/12/31/18:00:09.505,(-3 1 -1 -4 -4 -2 -3 -3)
1969/12/31/18:00:09.505,(-7 -6 0 4 3 -1 -4 -5)
1969/12/31/18:00:09.525,(3 1 3 1 0 0 1 2)
1969/12/31/18:00:09.525,(-3 -3 7 11 5 2 -3 -4)
1969/12/31/18:00:09.526,(2 -3 -17 -9 -2 0 3 2)
1969/12/31/18:00:09.526,(10 12 0 0 -2 -2 0 3)
1969/12/31/18:00:09.546,(-8 -4 3 -6 -4 -5 -4 -5)
1969/12/31/18:00:09.546,(0 -1 1 3 2 0 0 -2)
1969/12/31/18:00:09.553,(-3 -4 1 1 -2 0 1 1)
1969/12/31/18:00:09.553,(-5 -6 0 -6 -2 -3 -2 -4)
1969/12/31/18:00:09.567,(-1 -1 -4 -2 -1 0 -2 -1)
1969/12/31/18:00:09.567,(3 4 2 6 2 0 0 0)
1969/12/31/18:00:09.568,(-4 -2 2 -3 -3 -2 -3 -1)
1969/12/31/18:00:09.568,(4 0 -2 3 5 5 2 1)
1969/12/31/18:00:09.582,(-2 0 1 -3 -5 -1 -2 -2)
1969/12/31/18:00:09.582,(2 1 -1 0 1 2 4 3)
1969/12/31/18:00:09.582,(-3 0 -1 -3 -2 -3 -4 -3)
1969/12/31/18:00:09.582,(3 -2 -1 3 4 4 2 4)
1969/12/31/18:00:09.602,(0 0 -3 -3 -3 -3 -2 -2)
1969/12/31/18:00:09.602,(0 2 -2 -6 -7 -4 -1 -1)
1969/12/31/18:00:09.603,(1 -1 2 2 5 0 -3 -1)
1969/12/31/18:00:09.603,(-5 -5 5 1 -1 -1 0 -2)
1969/12/31/18:00:09.624,(2 0 -6 -8 -6 -3 -1 1)
1969/12/31/18:00:09.624,(2 1 0 2 3 1 3 2)
1969/12/31/18:00:09.625,(1 1 3 3 5 1 5 4)
1969/12/31/18:00:09.625,(-5 0 0 -4 -5 -2 -4 -6)
1969/12/31/18:00:09.638,(0 -3 -7 -5 -5 0 3 -1)
1969/12/31/18:00:09.638,(2 2 -4 -1 -4 -4 -3 -1)
1969/12/31/18:00:09.639,(-1 1 5 3 9 5 -1 0)
1969/12/31/18:00:09.639,(-4 -3 2 0 -2 -1 -1 -5)
1969/12/31/18:00:09.666,(0 -1 1 4 1 1 0 1)
1969/12/31/18:00:09.666,(-3 -4 -10 -8 -6 -3 -4 -5)
1969/12/31/18:00:09.667,(5 2 -1 2 0 1 1 1)
1969/12/31/18:00:09.667,(-5 -3 1 5 -1 -2 -4 -4)
1969/12/31/18:00:09.672,(-2 -1 1 1 11 -1 0 -2)
1969/12/31/18:00:09.672,(-5 -3 1 -1 -5 -3 1 -1)
1969/12/31/18:00:09.673,(-2 -3 -4 -4 -2 0 1 3)
1969/12/31/18:00:09.673,(3 2 -1 -1 -1 1 2 2)
1969/12/31/18:00:09.694,(0 1 2 0 -4 -4 -2 -2)
1969/12/31/18:00:09.694,(1 1 1 2 4 1 1 -1)
1969/12/31/18:00:09.694,(-3 -2 -3 -5 -7 -3 1 -2)
1969/12/31/18:00:09.694,(1 0 -1 -3 -1 -3 -1 -1)
1969/12/31/18:00:09.714,(1 -1 0 1 0 2 1 1)
1969/12/31/18:00:09.714,(-1 2 2 -2 -1 -3 -2 -3)
1969/12/31/18:00:09.715,(-2 -1 -3 -2 -4 -1 0 -2)
1969/12/31/18:00:09.715,(2 -2 -4 -2 2 1 0 2)
1969/12/31/18:00:09.736,(2 3 4 3 3 0 1 0)
1969/12/31/18:00:09.736,(-8 -7 -2 -1 -3 -2 -4 -5)
1969/12/31/18:00:09.737,(8 3 -1 3 2 3 1 5)
1969/12/31/18:00:09.737,(-4 -2 -1 -4 -2 -4 -3 -3)
1969/12/31/18:00:09.757,(-1 0 -1 -3 -4 1 -1 -3)
1969/12/31/18:00:09.757,(1 3 3 1 0 -2 -2 0)
1969/12/31/18:00:09.758,(-4 -2 0 -2 -1 -3 -1 -4)
1969/12/31/18:00:09.758,(0 1 -1 0 2 2 0 2)
1969/12/31/18:00:09.771,(0 0 -2 1 -2 -2 -1 0)
1969/12/31/18:00:09.771,(0 0 0 -1 0 2 2 1)
1969/12/31/18:00:09.771,(-2 1 2 0 -3 -4 -5 -5)
1969/12/31/18:00:09.771,(3 0 -2 2 1 3 3 3)
1969/12/31/18:00:09.785,(2 -1 1 2 1 -1 0 0)
1969/12/31/18:00:09.785,(0 -2 -4 0 1 2 0 2)
1969/12/31/18:00:09.786,(1 2 0 1 -2 -1 3 -1)
1969/12/31/18:00:09.786,(-3 0 0 -2 -2 -4 -4 -4)
1969/12/31/18:00:09.806,(-1 -1 1 -1 -3 -3 -2 -2)
1969/12/31/18:00:09.806,(3 -1 -2 -2 -2 1 1 4)
1969/12/31/18:00:09.806,(-3 -1 0 -1 -2 -2 -4 -3)
1969/12/31/18:00:09.806,(0 0 0 1 2 0 1 0)
1969/12/31/18:00:09.835,(0 0 -1 -1 1 1 -2 0)
1969/12/31/18:00:09.835,(2 0 0 1 2 2 3 3)
1969/12/31/18:00:09.835,(-3 -2 -1 0 -1 0 -1 -1)
1969/12/31/18:00:09.835,(-2 -1 0 -3 -1 -1 1 0)
1969/12/31/18:00:09.841,(1 -2 0 -1 -1 -1 -2 -1)
1969/12/31/18:00:09.841,(0 1 2 1 3 1 -3 0)
1969/12/31/18:00:09.848,(0 -2 -1 -1 0 1 1 -1)
1969/12/31/18:00:09.848,(0 -2 -2 -1 -3 -1 0 1)
1969/12/31/18:00:09.862,(-2 1 -2 2 2 1 0 -1)
1969/12/31/18:00:09.862,(-2 -2 0 0 2 -1 -4 -4)
1969/12/31/18:00:09.863,(-3 -2 -1 -1 -1 0 -1 0)
1969/12/31/18:00:09.863,(0 -1 2 -1 -1 -2 -3 -2)
1969/12/31/18:00:09.883,(-1 0 -3 -3 -3 0 0 0)
1969/12/31/18:00:09.883,(3 0 1 1 0 1 2 1)
1969/12/31/18:00:09.884,(-1 -2 -2 -1 1 -1 -2 -2)
1969/12/31/18:00:09.884,(0 0 1 0 -1 -1 0 -4)
1969/12/31/18:00:09.897,(-2 1 1 0 2 -2 0 0)
1969/12/31/18:00:09.897,(-1 -2 0 0 -1 -2 -4 -5)
1969/12/31/18:00:09.898,(2 -1 -2 -1 -4 0 0 0)
1969/12/31/18:00:09.898,(-1 0 -1 -1 -1 0 -3 -3)
1969/12/31/18:00:09.898,(3 3 1 0 -3 1 1 2)
1969/12/31/18:00:09.898,(-2 -5 -9 -9 -7 -6 -5 -3)
1969/12/31/18:00:09.900,(1 0 2 -3 -1 1 0 -1)
1969/12/31/18:00:09.900,(-1 -1 1 -8 -6 0 4 -2)
1969/12/31/18:00:09.910,(6 8 -7 14 6 0 -3 0)
1969/12/31/18:00:09.910,(-1 -4 10 -4 4 7 4 4)
1969/12/31/18:00:09.919,(-1 3 5 4 -5 -4 -2 -1)
1969/12/31/18:00:09.919,(-1 -3 3 -3 -3 -5 -5 -3)
1969/12/31/18:00:09.932,(0 -5 -21 -8 1 5 6 4)
1969/12/31/18:00:09.932,(-4 -3 18 -5 -8 -3 -1 -2)
1969/12/31/18:00:09.934,(0 5 -11 -3 2 -6 -4 -2)
1969/12/31/18:00:09.934,(6 7 -1 6 -7 6 8 5)
1969/12/31/18:00:09.954,(5 0 -13 2 9 -3 -2 4)
1969/12/31/18:00:09.954,(-11 -10 -2 -24 -15 -13 -10 -11)
1969/12/31/18:00:09.960,(2 -5 2 -13 3 8 3 4)
1969/12/31/18:00:09.960,(-3 1 13 67 31 3 -4 -1)
1969/12/31/18:00:09.966,(-8 -5 8 15 -3 8 6 -3)
1969/12/31/18:00:09.966,(-2 -3 -7 12 2 -5 -6 -4)
1969/12/31/18:00:09.975,(-5 -6 6 -34 -7 -7 -3 -2)
1969/12/31/18:00:09.975,(0 3 -32 -36 -19 -3 -2 -2)
1969/12/31/18:00:09.989,(1 0 7 -6 9 2 -2 -1)
1969/12/31/18:00:09.989,(-7 -13 -2 -13 -14 -1 0 1)
1969/12/31/18:00:09.990,(2 2 -24 -4 -14 -1 4 2)
1969/12/31/18:00:09.990,(8 0 6 -1 16 8 1 5)
1969/12/31/18:00:10.010,(-4 6 23 10 10 0 -2 0)
1969/12/31/18:00:10.010,(7 9 -7 25 -24 0 8 4)
1969/12/31/18:00:10.011,(0 -9 7 -12 -29 -14 -11 -3)
1969/12/31/18:00:10.011,(-4 2 3 8 52 14 5 -2)
1969/12/31/18:00:10.023,(-1 -4 10 45 21 -2 -4 -6)
1969/12/31/18:00:10.023,(3 9 6 0 39 17 3 4)
1969/12/31/18:00:10.032,(4 4 0 80 -22 6 15 7)
1969/12/31/18:00:10.032,(-6 -13 -7 -38 -29 -3 -1 -5)
1969/12/31/18:00:10.045,(-8 -3 7 -38 -3 -20 -9 -7)
1969/12/31/18:00:10.045,(-5 4 -6 -28 -64 -19 -7 -6)
1969/12/31/18:00:10.047,(5 -14 -25 11 36 4 -3 1)
1969/12/31/18:00:10.047,(-7 -3 20 -66 6 3 -1 -6)
1969/12/31/18:00:10.066,(2 6 -13 28 -29 -5 0 -2)
1969/12/31/18:00:10.066,(7 4 -1 -12 21 7 1 4)
1969/12/31/18:00:10.072,(-1 5 -2 -1 -19 -11 -8 -5)
1969/12/31/18:00:10.072,(-3 -9 -17 12 -21 -13 -5 -6)
1969/12/31/18:00:10.078,(11 8 -2 -110 17 10 10 7)
1969/12/31/18:00:10.078,(-3 6 5 37 -35 -8 0 -5)
1969/12/31/18:00:10.092,(2 -1 25 86 55 26 6 4)
1969/12/31/18:00:10.092,(-9 -4 12 55 -11 -8 -4 -3)
1969/12/31/18:00:10.101,(0 -1 -12 -29 14 1 -2 -2)
1969/12/31/18:00:10.101,(1 -3 0 4 18 10 6 2)
1969/12/31/18:00:10.103,(-2 2 -2 -19 -5 0 4 -1)
1969/12/31/18:00:10.103,(12 8 -16 -21 -26 -12 -3 8)
1969/12/31/18:00:10.122,(-2 -5 10 21 -19 -5 -6 1)
1969/12/31/18:00:10.122,(-3 -6 1 1 28 -1 0 1)
1969/12/31/18:00:10.123,(-5 -5 -25 -116 -45 -12 -3 -2)
1969/12/31/18:00:10.123,(10 12 11 10 -14 -1 1 7)
1969/12/31/18:00:10.135,(-4 -4 0 54 9 1 -3 -3)
1969/12/31/18:00:10.135,(1 -1 15 1 54 18 4 4)
1969/12/31/18:00:10.144,(-6 5 21 9 11 5 0 -1)
1969/12/31/18:00:10.144,(5 2 -5 20 5 3 3 2)
1969/12/31/18:00:10.157,(1 -4 -4 8 -14 -2 -1 1)
1969/12/31/18:00:10.157,(3 0 -3 -2 6 -3 0 1)
1969/12/31/18:00:10.159,(-2 -3 -11 -2 -5 -7 -2 -1)
1969/12/31/18:00:10.159,(-5 -7 -7 -38 2 -4 -4 -3)
1969/12/31/18:00:10.179,(-4 -6 3 8 -7 0 4 -1)
1969/12/31/18:00:10.179,(-1 -1 -10 -10 -12 -5 -2 -2)
1969/12/31/18:00:10.179,(-1 3 0 -22 0 0 0 -2)
1969/12/31/18:00:10.179,(-2 -3 7 24 15 2 0 -1)
1969/12/31/18:00:10.191,(1 1 5 23 0 1 0 2)
1969/12/31/18:00:10.191,(-4 -2 -10 -12 -6 -4 -3 -1)
1969/12/31/18:00:10.200,(-1 0 4 -1 -2 -4 -2 -3)
1969/12/31/18:00:10.200,(-1 1 5 37 12 1 1 0)
1969/12/31/18:00:10.213,(-3 -2 -11 -34 -15 -5 -2 -1)
1969/12/31/18:00:10.213,(3 2 -3 -14 -17 0 1 1)
1969/12/31/18:00:10.215,(-3 -1 10 27 19 2 -1 -4)
1969/12/31/18:00:10.215,(0 -2 -2 -3 -1 -2 -1 1)
1969/12/31/18:00:10.235,(-3 -5 -10 -23 -3 -2 -4 -2)
1969/12/31/18:00:10.235,(0 -1 2 4 -5 -4 -2 -2)
1969/12/31/18:00:10.236,(0 0 1 6 -1 0 2 3)
1969/12/31/18:00:10.236,(0 -1 -8 -17 -4 0 0 -2)
1969/12/31/18:00:10.248,(0 0 3 3 -3 0 -1 -3)
1969/12/31/18:00:10.248,(-2 -2 4 21 11 4 0 0)
1969/12/31/18:00:10.255,(2 -1 -3 0 0 3 2 2)
1969/12/31/18:00:10.255,(-3 0 -4 -16 -1 8 -3 -8)
1969/12/31/18:00:10.269,(-2 -2 -1 6 -3 4 -2 -2)
1969/12/31/18:00:10.269,(2 2 2 5 -2 1 -2 1)
1969/12/31/18:00:10.271,(-3 -2 -4 -13 -5 0 0 -2)
1969/12/31/18:00:10.271,(2 -1 1 2 0 1 3 5)
1969/12/31/18:00:10.297,(-3 1 3 7 3 1 3 1)
1969/12/31/18:00:10.297,(-7 -7 -5 0 0 -8 -6 -6)
1969/12/31/18:00:10.299,(7 3 2 -2 2 -5 1 3)
1969/12/31/18:00:10.299,(15 10 2 5 4 -10 0 4)
1969/12/31/18:00:10.303,(-7 -7 -4 -1 -5 -11 -2 -1)
1969/12/31/18:00:10.303,(1 -2 -6 -4 -2 -6 -1 2)
1969/12/31/18:00:10.312,(-10 -7 2 0 3 1 0 1)
1969/12/31/18:00:10.312,(25 19 7 9 4 7 7 8)
1969/12/31/18:00:10.326,(-21 -15 -5 -6 0 1 -3 -12)
1969/12/31/18:00:10.326,(-6 -5 0 -1 -4 -2 -8 -7)
1969/12/31/18:00:10.339,(5 -6 -4 -1 -4 -4 -4 -4)
1969/12/31/18:00:10.339,(-7 -1 -8 -17 -1 4 6 7)
1969/12/31/18:00:10.353,(-1 4 7 21 8 2 -2 -5)
1969/12/31/18:00:10.353,(-12 -12 -6 -4 -2 -3 -5 -6)
1969/12/31/18:00:10.355,(5 6 -3 1 0 -2 -4 -2)
1969/12/31/18:00:10.355,(1 -1 1 -5 3 2 3 4)
1969/12/31/18:00:10.359,(11 4 2 2 0 2 1 6)
1969/12/31/18:00:10.359,(-11 1 4 7 6 5 4 -4)
1969/12/31/18:00:10.368,(-45 -30 -7 -9 -9 -7 -14 -24)
1969/12/31/18:00:10.368,(32 13 7 4 -5 0 3 18)
1969/12/31/18:00:10.382,(-12 -1 -7 -9 -3 -8 -13 -19)
1969/12/31/18:00:10.382,(12 5 0 -1 0 0 2 5)
1969/12/31/18:00:10.388,(4 7 -3 -11 -12 -5 1 0)
1969/12/31/18:00:10.388,(-28 -21 -15 -46 -15 -8 -9 -15)
1969/12/31/18:00:10.403,(28 14 14 55 21 4 4 20)
1969/12/31/18:00:10.403,(-5 -2 5 13 13 -1 -5 -10)
1969/12/31/18:00:10.404,(11 11 9 13 4 14 18 16)
1969/12/31/18:00:10.404,(-19 -13 -14 -37 -17 -9 -8 -13)
1969/12/31/18:00:10.416,(6 3 -11 -35 -19 -3 3 8)
1969/12/31/18:00:10.416,(1 5 13 31 -2 3 7 0)
1969/12/31/18:00:10.425,(-2 4 13 34 27 0 -1 5)
1969/12/31/18:00:10.425,(-6 -14 -1 15 3 -6 -12 -5)
1969/12/31/18:00:10.438,(28 22 2 -26 0 12 21 17)
1969/12/31/18:00:10.438,(-25 -30 -18 -22 -13 1 -3 -13)
1969/12/31/18:00:10.440,(28 24 7 0 5 12 24 19)
1969/12/31/18:00:10.440,(-35 -20 -13 -6 -20 -35 -50 -43)
1969/12/31/18:00:10.459,(-1 -3 0 1 7 7 9 4)
1969/12/31/18:00:10.459,(1 -3 -13 -14 -10 -13 -18 -8)
1969/12/31/18:00:10.461,(5 -12 -2 -6 -5 0 0 13)
1969/12/31/18:00:10.461,(4 1 7 14 11 13 18 3)
1969/12/31/18:00:10.471,(-14 -10 -12 -19 -20 -5 -5 -12)
1969/12/31/18:00:10.471,(11 4 -5 -22 -23 2 7 11)
1969/12/31/18:00:10.481,(1 5 -6 -20 14 -3 -3 -4)
1969/12/31/18:00:10.481,(-8 1 15 65 11 4 2 -2)
1969/12/31/18:00:10.494,(-18 -9 19 58 42 11 1 -7)
1969/12/31/18:00:10.494,(17 19 11 7 20 18 15 17)
1969/12/31/18:00:10.499,(-52 -32 -18 -25 -27 -27 -36 -40)
1969/12/31/18:00:10.499,(75 40 1 -34 -17 3 21 53)
1969/12/31/18:00:10.515,(12 14 -8 -24 -20 -5 11 3)
1969/12/31/18:00:10.515,(24 16 4 9 4 -5 5 17)
1969/12/31/18:00:10.516,(4 3 9 12 2 -14 -32 -19)
1969/12/31/18:00:10.516,(-35 -26 -18 -7 -6 -15 -26 -33)
1969/12/31/18:00:10.536,(5 -4 -9 -12 -8 0 -7 -2)
1969/12/31/18:00:10.536,(9 13 3 -2 8 4 7 9)
1969/12/31/18:00:10.538,(22 8 5 3 1 14 25 26)
1969/12/31/18:00:10.538,(-19 -7 2 4 8 9 9 -5)
1969/12/31/18:00:10.550,(9 -3 -33 -113 -66 -18 -10 4)
1969/12/31/18:00:10.550,(-18 -11 0 86 9 -1 -3 -13)
1969/12/31/18:00:10.557,(-5 9 39 95 69 14 3 -5)
1969/12/31/18:00:10.557,(-9 -4 15 8 17 8 6 -2)
1969/12/31/18:00:10.571,(-4 5 2 -5 -4 -16 -9 -1)
1969/12/31/18:00:10.571,(-17 -17 -18 -87 -37 -19 -14 -15)
1969/12/31/18:00:10.572,(8 1 -15 -4 -13 5 8 5)
1969/12/31/18:00:10.572,(-66 -35 4 35 32 20 6 -26)
1969/12/31/18:00:10.584,(89 85 44 51 49 34 46 83)
1969/12/31/18:00:10.584,(-19 -34 -17 -34 -15 -12 -14 -17)
1969/12/31/18:00:10.592,(-2 -5 -17 -30 -25 -19 -18 -13)
1969/12/31/18:00:10.592,(-4 -4 -16 -38 -21 -5 -1 -3)
1969/12/31/18:00:10.606,(-25 -17 -1 9 -2 -5 -5 -15)
1969/12/31/18:00:10.606,(26 26 21 25 20 10 10 24)
1969/12/31/18:00:10.613,(1 -1 -14 -57 -24 -8 0 1)
1969/12/31/18:00:10.613,(14 2 -22 -86 -58 0 8 19)
1969/12/31/18:00:10.628,(-23 -20 11 101 61 12 -6 -23)
1969/12/31/18:00:10.628,(28 28 41 87 63 20 13 21)
1969/12/31/18:00:10.630,(-25 -20 0 12 6 -1 -5 -14)
1969/12/31/18:00:10.630,(11 9 -3 -29 -20 -9 -2 3)
1969/12/31/18:00:10.640,(-12 -16 -12 -43 -32 -13 -11 -11)
1969/12/31/18:00:10.640,(-41 -27 -24 -49 -27 -15 -19 -30)
1969/12/31/18:00:10.648,(37 29 11 -22 -9 16 28 27)
1969/12/31/18:00:10.648,(15 22 1 34 15 -5 -11 -2)
1969/12/31/18:00:10.662,(-12 -23 -6 -9 -1 -1 -6 -6)
1969/12/31/18:00:10.662,(-2 -10 -1 6 10 11 13 3)
1969/12/31/18:00:10.675,(-10 1 -6 -12 -14 -11 -15 -18)
1969/12/31/18:00:10.675,(-6 -13 5 20 5 4 7 4)
1969/12/31/18:00:10.684,(14 7 4 8 2 -3 3 9)
1969/12/31/18:00:10.684,(16 17 -5 -33 -9 -7 -7 7)
1969/12/31/18:00:10.685,(-11 -19 -12 -36 -32 -5 -4 -7)
1969/12/31/18:00:10.685,(13 11 10 23 27 18 15 11)
1969/12/31/18:00:10.704,(-19 -9 11 63 29 12 -1 -7)
1969/12/31/18:00:10.704,(2 4 14 24 24 8 7 2)
1969/12/31/18:00:10.706,(-6 -2 -2 -5 -4 -1 -5 -2)
1969/12/31/18:00:10.706,(1 -2 -7 -6 -4 -11 -6 1)
1969/12/31/18:00:10.718,(-20 -24 -6 -8 -18 -12 -9 -12)
1969/12/31/18:00:10.718,(23 30 2 -4 -7 3 7 5)
1969/12/31/18:00:10.725,(3 4 2 10 6 3 4 2)
1969/12/31/18:00:10.725,(7 2 -3 -12 -9 -7 -4 4)
1969/12/31/18:00:10.740,(-36 -20 -19 -35 -17 -6 -5 -25)
1969/12/31/18:00:10.740,(2 -28 -5 -16 -8 0 -4 13)
1969/12/31/18:00:10.741,(11 42 4 19 7 1 2 15)
1969/12/31/18:00:10.741,(-4 -19 6 25 16 8 6 -9)
1969/12/31/18:00:10.768,(-17 -9 -4 -11 -6 -10 -16 -20)
1969/12/31/18:00:10.768,(-2 4 0 -10 -11 1 6 2)
1969/12/31/18:00:10.770,(-2 -11 -10 -21 -4 0 -2 2)
1969/12/31/18:00:10.770,(0 -2 0 -9 1 0 1 5)
1969/12/31/18:00:10.775,(13 12 11 33 7 6 8 10)
1969/12/31/18:00:10.775,(-14 -8 -6 -22 -5 -5 -9 -13)
1969/12/31/18:00:10.781,(9 -3 0 16 4 -8 -3 1)
1969/12/31/18:00:10.781,(1 10 6 12 -11 -2 1 0)
1969/12/31/18:00:10.796,(2 -3 -8 -47 -13 0 -3 1)
1969/12/31/18:00:10.796,(-3 6 2 32 14 8 3 -7)
1969/12/31/18:00:10.797,(-8 -12 12 47 50 22 16 10)
1969/12/31/18:00:10.797,(45 34 14 13 6 2 5 25)
1969/12/31/18:00:10.817,(-1 0 -7 -29 -25 -11 -1 -1)
1969/12/31/18:00:10.817,(-25 -19 -24 -44 -32 -24 -24 -18)
1969/12/31/18:00:10.819,(-8 -30 5 36 5 4 5 -7)
1969/12/31/18:00:10.819,(51 48 18 11 17 16 26 48)
1969/12/31/18:00:10.830,(-2 -1 -3 1 1 -6 -12 -9)
1969/12/31/18:00:10.830,(2 6 -1 -15 -4 1 7 0)
1969/12/31/18:00:10.838,(-15 -12 -13 -43 -20 -7 -7 -7)
1969/12/31/18:00:10.838,(-11 -13 -10 -11 -9 -3 -4 -6)
1969/12/31/18:00:10.852,(6 5 10 41 18 10 6 6)
1969/12/31/18:00:10.852,(-2 1 5 20 23 5 3 1)
1969/12/31/18:00:10.853,(5 6 9 36 -2 -1 -6 -2)
1969/12/31/18:00:10.853,(-22 -15 2 -11 5 -3 -6 -16)
1969/12/31/18:00:10.874,(-1 4 -5 -25 -8 -4 -3 -1)
1969/12/31/18:00:10.874,(-10 -7 -6 6 -11 -5 -2 -3)
1969/12/31/18:00:10.875,(10 -1 -6 -20 -7 0 -3 3)
1969/12/31/18:00:10.875,(-16 0 -3 25 25 5 -1 -9)
1969/12/31/18:00:10.886,(-12 -14 7 -14 5 5 5 -2)
1969/12/31/18:00:10.886,(46 42 8 22 7 4 9 34)
1969/12/31/18:00:10.894,(11 9 -8 -36 -18 -10 -14 -13)
1969/12/31/18:00:10.894,(-17 -16 -8 -5 12 -4 -10 -14)
1969/12/31/18:00:10.908,(3 -11 -6 -3 -19 -3 0 1)
1969/12/31/18:00:10.908,(-1 3 0 -34 -13 -3 0 -5)
1969/12/31/18:00:10.916,(12 10 -16 -79 -41 -8 10 16)
1969/12/31/18:00:10.916,(-3 -6 -29 -63 12 -11 -9 -11)
1969/12/31/18:00:10.929,(2 6 28 96 31 13 0 2)
1969/12/31/18:00:10.929,(-8 -3 31 31 23 18 10 -1)
1969/12/31/18:00:10.931,(-12 -1 12 5 28 2 -2 -5)
1969/12/31/18:00:10.931,(-5 -11 -26 -91 -80 -14 -6 -4)
1969/12/31/18:00:10.942,(-6 0 0 68 2 -9 -3 -7)
1969/12/31/18:00:10.942,(4 3 2 -12 30 -4 -3 5)
1969/12/31/18:00:10.950,(-5 -4 -1 7 -14 6 1 -2)
1969/12/31/18:00:10.950,(-11 -17 13 23 23 0 -1 -7)
1969/12/31/18:00:10.964,(22 17 -18 -36 -40 -11 -8 6)
1969/12/31/18:00:10.964,(-11 -15 10 70 24 10 8 -6)
1969/12/31/18:00:10.966,(-23 -9 7 62 45 6 7 -9)
1969/12/31/18:00:10.966,(1 -7 -5 -3 -3 -4 -13 -12)
1969/12/31/18:00:10.985,(-13 -11 -39 -128 -64 -14 -10 -17)
1969/12/31/18:00:10.985,(5 -7 -28 -62 -42 -13 -8 -3)
1969/12/31/18:00:10.987,(10 8 28 90 41 -4 -7 3)
1969/12/31/18:00:10.987,(-47 -20 41 86 59 35 33 -1)
1969/12/31/18:00:10.998,(21 25 18 -12 25 7 6 12)
1969/12/31/18:00:10.998,(-2 -7 -42 -128 -68 -28 -23 -11)
1969/12/31/18:00:11.007,(-7 -10 -16 24 -14 -6 -5 -9)
1969/12/31/18:00:11.007,(14 20 12 -24 -15 1 1 10)
1969/12/31/18:00:11.021,(-10 -2 6 67 69 8 2 -1)
1969/12/31/18:00:11.021,(17 11 17 76 8 11 5 9)
1969/12/31/18:00:11.022,(23 15 -1 -80 -2 1 4 13)
1969/12/31/18:00:11.022,(-21 -19 -6 78 6 -15 -20 -25)
1969/12/31/18:00:11.041,(0 7 16 -16 2 2 3 4)
1969/12/31/18:00:11.041,(-63 -74 -46 -79 -46 -36 -47 -55)
1969/12/31/18:00:11.043,(39 41 11 66 13 13 22 17)
1969/12/31/18:00:11.043,(25 31 -15 -78 -25 -4 2 6)
1969/12/31/18:00:11.054,(-16 -17 -42 -87 -65 -17 -15 -16)
1969/12/31/18:00:11.054,(10 -2 8 70 30 4 8 4)
1969/12/31/18:00:11.063,(-28 -28 17 45 23 -3 -9 -9)
1969/12/31/18:00:11.063,(-2 19 51 104 68 22 14 10)
1969/12/31/18:00:11.077,(-8 -19 -11 -58 1 2 -5 -9)
1969/12/31/18:00:11.077,(15 16 -21 -80 -53 2 24 35)
1969/12/31/18:00:11.078,(-10 -10 -14 48 -18 -5 -4 -8)
1969/12/31/18:00:11.078,(4 -5 8 17 9 1 5 6)
1969/12/31/18:00:11.097,(12 48 21 51 34 -3 -10 -8)
1969/12/31/18:00:11.097,(-81 -93 -23 -47 -10 7 9 -22)
1969/12/31/18:00:11.099,(65 87 19 -41 -16 11 26 24)
1969/12/31/18:00:11.099,(13 -13 -17 -39 -39 -20 -24 2)
1969/12/31/18:00:11.110,(49 71 17 7 13 12 24 41)
1969/12/31/18:00:11.110,(-37 -13 -6 6 4 -10 -22 -36)
1969/12/31/18:00:11.119,(0 -52 -14 -15 -7 14 26 26)
1969/12/31/18:00:11.119,(38 60 -10 -41 -42 -9 -13 -12)
1969/12/31/18:00:11.133,(-40 -65 -6 11 18 6 16 -2)
1969/12/31/18:00:11.133,(57 65 38 78 17 10 15 37)
1969/12/31/18:00:11.135,(-36 -8 14 49 29 -7 -22 -33)
1969/12/31/18:00:11.135,(-5 -20 3 7 8 1 4 -1)
1969/12/31/18:00:11.161,(0 -15 -9 5 -21 -11 -19 1)
1969/12/31/18:00:11.161,(-9 -5 -1 15 25 10 2 -13)
1969/12/31/18:00:11.163,(-13 -37 -27 -96 -46 -20 -21 -19)
1969/12/31/18:00:11.163,(-53 -66 -31 -45 -31 -8 -10 -28)
1969/12/31/18:00:11.167,(38 38 19 30 6 7 21 32)
1969/12/31/18:00:11.167,(35 76 39 44 22 -4 -13 -6)
1969/12/31/18:00:11.175,(31 53 -5 -14 -7 0 4 15)
1969/12/31/18:00:11.175,(-27 -65 -18 1 -4 -1 -3 -15)
1969/12/31/18:00:11.190,(43 52 28 34 22 15 28 47)
1969/12/31/18:00:11.190,(-59 -71 -1 1 0 -5 -22 -42)
1969/12/31/18:00:11.195,(22 25 -5 -17 1 12 21 34)
1969/12/31/18:00:11.195,(18 27 -11 -53 -12 1 6 10)
1969/12/31/18:00:11.210,(-25 -50 -25 -27 -28 -11 -17 -23)
1969/12/31/18:00:11.210,(26 23 26 82 20 7 15 21)
1969/12/31/18:00:11.212,(-49 -29 0 -8 19 -8 -20 -32)
1969/12/31/18:00:11.212,(3 -3 -1 32 20 5 9 16)
1969/12/31/18:00:11.223,(0 -10 1 1 -25 -1 -5 -12)
1969/12/31/18:00:11.223,(18 17 -5 -97 -59 -11 6 15)
1969/12/31/18:00:11.231,(-45 -84 -9 80 31 -5 -15 -22)
1969/12/31/18:00:11.231,(37 84 32 59 59 24 14 14)
1969/12/31/18:00:11.245,(-3 24 -1 1 15 -1 -8 -13)
1969/12/31/18:00:11.245,(-9 -6 -10 -37 -12 2 5 -3)
1969/12/31/18:00:11.246,(-17 -26 -19 -73 -56 -14 -11 -8)
1969/12/31/18:00:11.246,(65 41 10 -9 -18 3 29 64)
1969/12/31/18:00:11.266,(-39 -44 -23 0 7 -4 -16 -40)
1969/12/31/18:00:11.266,(11 25 -7 5 5 -1 -10 -9)
1969/12/31/18:00:11.268,(-6 0 -13 -82 -25 -4 -1 -4)
1969/12/31/18:00:11.268,(1 5 12 64 6 -3 -7 -2)
1969/12/31/18:00:11.279,(-11 -18 6 -9 10 2 3 -4)
1969/12/31/18:00:11.279,(12 -1 -1 -16 10 0 8 15)
1969/12/31/18:00:11.287,(5 12 15 78 8 5 -1 0)
1969/12/31/18:00:11.287,(-24 -24 7 24 9 -1 -5 -20)
1969/12/31/18:00:11.300,(-4 -9 9 22 21 3 5 5)
1969/12/31/18:00:11.300,(-7 -6 -7 2 17 2 -3 -3)
1969/12/31/18:00:11.307,(3 5 2 -27 -7 0 -1 4)
1969/12/31/18:00:11.307,(-11 -7 -14 -31 -32 -16 -15 -11)
1969/12/31/18:00:11.323,(-21 -36 -15 -31 -21 2 6 -3)
1969/12/31/18:00:11.323,(46 35 3 18 13 5 8 27)
1969/12/31/18:00:11.324,(-81 -94 -4 1 5 6 -1 -36)
1969/12/31/18:00:11.324,(63 86 17 4 -3 8 19 33)
1969/12/31/18:00:11.335,(2 1 2 0 -1 -12 -18 -6)
1969/12/31/18:00:11.335,(-12 -24 -18 -49 -7 -6 -5 -9)
1969/12/31/18:00:11.351,(18 17 -10 -31 -30 -2 3 9)
1969/12/31/18:00:11.351,(-25 -43 -6 38 0 -4 -5 -11)
1969/12/31/18:00:11.357,(-1 0 13 36 30 5 2 4)
1969/12/31/18:00:11.357,(-3 8 19 41 9 7 4 5)
1969/12/31/18:00:11.363,(20 23 6 13 9 4 2 12)
1969/12/31/18:00:11.363,(-15 -21 -13 -62 -19 -1 -3 -9)
1969/12/31/18:00:11.378,(8 12 -5 -10 -37 -10 -5 -1)
1969/12/31/18:00:11.378,(-13 -11 7 41 15 -1 -2 -7)
1969/12/31/18:00:11.385,(14 12 -9 -24 9 1 1 7)
1969/12/31/18:00:11.385,(5 -8 -13 -26 -20 -9 -9 -4)
1969/12/31/18:00:11.391,(-37 -36 -4 -2 5 5 9 -8)
1969/12/31/18:00:11.391,(-21 -77 -6 -7 -3 -6 -15 -18)
1969/12/31/18:00:11.400,(73 108 11 -31 -9 6 14 24)
1969/12/31/18:00:11.400,(-6 -6 -1 20 10 -1 -3 0)
1969/12/31/18:00:11.414,(12 9 -8 -24 -5 1 0 7)
1969/12/31/18:00:11.414,(-4 -14 -15 -22 -8 3 8 6)
1969/12/31/18:00:11.427,(-2 -9 0 -4 -9 -8 -7 -2)
1969/12/31/18:00:11.427,(-6 -7 21 99 46 1 -7 -5)
1969/12/31/18:00:11.434,(-25 -10 19 17 17 6 3 -12)
1969/12/31/18:00:11.434,(8 22 0 -3 -8 3 6 6)
1969/12/31/18:00:11.436,(13 0 -8 -31 -7 -3 7 18)
1969/12/31/18:00:11.436,(-8 26 -17 -63 -24 -4 -1 -7)
1969/12/31/18:00:11.447,(-7 -20 -12 -1 -12 -6 -10 -14)
1969/12/31/18:00:11.447,(20 25 10 26 11 7 5 16)
1969/12/31/18:00:11.456,(-51 -58 -3 -1 -2 -4 -9 -23)
1969/12/31/18:00:11.456,(38 38 7 -6 -3 -3 3 10)
1969/12/31/18:00:11.469,(2 1 -2 23 7 -1 2 3)
1969/12/31/18:00:11.469,(27 34 9 19 9 5 7 14)
1969/12/31/18:00:11.475,(8 24 1 12 7 -2 -6 -5)
1969/12/31/18:00:11.475,(-48 -55 -29 -88 -32 -13 -21 -29)
1969/12/31/18:00:11.490,(14 8 -7 35 -8 -5 -4 1)
1969/12/31/18:00:11.490,(-8 11 15 48 13 0 3 -4)
1969/12/31/18:00:11.492,(13 11 21 81 50 16 9 16)
1969/12/31/18:00:11.492,(-10 -17 2 -8 -4 2 2 -2)
1969/12/31/18:00:11.512,(14 22 -9 -53 -24 -9 -7 4)
1969/12/31/18:00:11.512,(-18 -20 -14 -64 -36 -11 -9 -9)
1969/12/31/18:00:11.514,(-2 -12 -1 22 16 2 3 5)
1969/12/31/18:00:11.514,(-7 -11 2 11 3 0 -1 -2)
1969/12/31/18:00:11.525,(-13 -23 -1 -5 -1 2 9 9)
1969/12/31/18:00:11.525,(-1 -27 -4 7 -2 -9 -12 -3)
1969/12/31/18:00:11.532,(24 55 7 -25 -13 1 11 9)
1969/12/31/18:00:11.532,(-16 -27 -7 2 -2 -4 -13 -15)
1969/12/31/18:00:11.547,(-2 6 -2 -4 -2 -6 -8 -5)
1969/12/31/18:00:11.547,(2 -11 -19 -63 -9 7 9 9)
1969/12/31/18:00:11.548,(1 -4 6 57 9 -3 -3 -1)
1969/12/31/18:00:11.548,(-9 -11 5 8 9 6 11 7)
1969/12/31/18:00:11.568,(-9 -11 13 27 8 -4 -9 -11)
1969/12/31/18:00:11.568,(-2 13 0 -7 4 1 1 -5)
1969/12/31/18:00:11.569,(-10 -22 -19 -43 -26 -4 -6 -6)
1969/12/31/18:00:11.569,(-2 10 16 61 25 2 1 2)
1969/12/31/18:00:11.581,(-1 -9 -4 -16 -1 1 14 17)
1969/12/31/18:00:11.581,(-13 -5 -5 -14 -12 -6 -11 -11)
1969/12/31/18:00:11.588,(3 3 -5 -7 0 1 0 4)
1969/12/31/18:00:11.588,(-25 -42 -6 1 -4 0 -2 -15)
1969/12/31/18:00:11.603,(66 91 18 -5 12 23 35 55)
1969/12/31/18:00:11.603,(-14 -15 -8 18 3 -12 -20 -22)
1969/12/31/18:00:11.605,(-2 -10 -1 -8 -1 -2 1 -2)
1969/12/31/18:00:11.605,(-9 -18 -12 -23 -13 -7 -8 -6)
1969/12/31/18:00:11.624,(4 -4 5 16 0 5 6 3)
1969/12/31/18:00:11.624,(18 32 8 24 10 5 15 23)
1969/12/31/18:00:11.630,(-15 1 15 -3 10 4 -8 -23)
1969/12/31/18:00:11.630,(-27 -20 -29 -60 -29 -10 -6 -13)
1969/12/31/18:00:11.646,(31 8 -5 27 11 10 7 12)
1969/12/31/18:00:11.647,(7 11 29 85 43 10 6 4)
1969/12/31/18:00:11.651,(-10 -12 -1 -4 -9 -5 -3 1)
1969/12/31/18:00:11.651,(7 -3 6 19 9 -1 1 9)
1969/12/31/18:00:11.659,(-25 -13 -7 -42 -22 -11 -17 -25)
1969/12/31/18:00:11.659,(5 -4 -14 -30 -18 -3 -1 0)
1969/12/31/18:00:11.661,(-2 -23 -7 -20 -8 -2 2 3)
1969/12/31/18:00:11.661,(34 64 2 3 7 7 9 15)
1969/12/31/18:00:11.680,(-16 -9 -7 -2 -2 -14 -24 -27)
1969/12/31/18:00:11.680,(-14 -17 0 18 4 2 7 5)
1969/12/31/18:00:11.682,(30 27 4 -5 3 3 -5 1)
1969/12/31/18:00:11.682,(-11 -20 -6 -21 -22 -8 -6 -4)
1969/12/31/18:00:11.708,(10 -2 -5 -10 2 6 4 7)
1969/12/31/18:00:11.708,(10 18 -1 9 10 -3 1 7)
1969/12/31/18:00:11.709,(-27 -21 -3 -17 -16 -4 1 -5)
1969/12/31/18:00:11.710,(3 17 2 -6 4 1 -2 -6)
1969/12/31/18:00:11.715,(-2 -17 -10 -31 -4 -1 2 7)
1969/12/31/18:00:11.715,(-1 -7 20 85 27 6 3 4)
1969/12/31/18:00:11.717,(1 13 10 35 23 -4 -11 -12)
1969/12/31/18:00:11.717,(0 9 17 14 9 8 5 0)
1969/12/31/18:00:11.736,(-2 7 -9 -42 -21 -7 -2 -4)
1969/12/31/18:00:11.736,(-20 -20 -22 -66 -36 -9 -10 -15)
1969/12/31/18:00:11.738,(30 14 -1 2 -7 -2 7 24)
1969/12/31/18:00:11.738,(4 -14 -2 13 12 1 -5 0)
1969/12/31/18:00:11.749,(20 20 8 13 4 1 -2 2)
1969/12/31/18:00:11.749,(11 12 -2 -16 -9 -4 -4 -2)
1969/12/31/18:00:11.757,(-29 -18 -7 3 0 -4 -5 -16)
1969/12/31/18:00:11.758,(-14 -19 -3 -17 -14 -3 1 -1)
1969/12/31/18:00:11.772,(-11 -26 -6 -9 11 4 5 3)
1969/12/31/18:00:11.772,(-6 -4 2 6 2 5 2 -6)
1969/12/31/18:00:11.773,(6 9 -5 5 3 1 2 2)
1969/12/31/18:00:11.773,(8 1 8 4 -7 1 2 8)
1969/12/31/18:00:11.793,(-11 -9 3 34 5 -2 -6 -8)
1969/12/31/18:00:11.793,(-3 12 4 -22 1 4 6 -3)
1969/12/31/18:00:11.794,(-11 -28 -16 -24 -16 -8 -6 -1)
1969/12/31/18:00:11.794,(10 34 20 56 32 11 8 1)
1969/12/31/18:00:11.805,(3 7 6 3 0 -3 -4 -7)
1969/12/31/18:00:11.805,(-11 -12 -11 -30 -21 -4 -1 -7)
1969/12/31/18:00:11.813,(5 3 -3 -12 -6 -5 -6 -2)
1969/12/31/18:00:11.813,(0 1 -9 -57 -12 0 7 8)
1969/12/31/18:00:11.827,(-8 -5 12 79 30 12 6 -1)
1969/12/31/18:00:11.827,(6 -8 8 35 23 3 -1 3)
1969/12/31/18:00:11.829,(-27 -8 5 3 -4 -1 -5 -18)
1969/12/31/18:00:11.829,(4 8 -1 2 -1 4 9 8)
1969/12/31/18:00:11.849,(-11 -18 -21 -85 -35 -13 -15 -15)
1969/12/31/18:00:11.849,(14 4 -19 -31 -7 0 6 10)
1969/12/31/18:00:11.851,(-10 -7 5 32 2 -3 -6 -5)
1969/12/31/18:00:11.851,(3 -7 6 15 7 1 3 5)
1969/12/31/18:00:11.869,(7 10 7 11 -2 -1 3 3)
1969/12/31/18:00:11.869,(5 10 13 31 24 8 3 4)
1969/12/31/18:00:11.871,(6 9 -3 -31 -3 6 4 8)
1969/12/31/18:00:11.871,(-8 -13 -13 12 -2 -9 -8 -8)
1969/12/31/18:00:11.883,(0 -3 1 -8 -9 -3 -3 7)
1969/12/31/18:00:11.883,(-3 11 5 -11 -13 -3 7 2)
1969/12/31/18:00:11.885,(9 10 3 15 12 14 11 1)
1969/12/31/18:00:11.885,(4 -8 -6 -5 -7 -9 -14 -11)
1969/12/31/18:00:11.912,(-12 -6 -5 2 -3 -7 -9 -7)
1969/12/31/18:00:11.912,(-18 -19 -5 -12 -9 -6 -5 -10)
1969/12/31/18:00:11.913,(6 -1 -10 -12 -3 -1 5 11)
1969/12/31/18:00:11.913,(16 13 0 -1 -5 -1 1 4)
1969/12/31/18:00:11.917,(-1 3 -6 -32 -9 -1 0 -3)
1969/12/31/18:00:11.917,(-2 2 2 39 14 -2 -4 -4)
1969/12/31/18:00:11.926,(-2 0 7 -2 -4 -3 -2 -3)
1969/12/31/18:00:11.926,(-4 -1 6 49 16 1 -2 -3)
1969/12/31/18:00:11.939,(-15 -18 2 -13 -11 -5 -3 -6)
1969/12/31/18:00:11.939,(41 51 -2 0 -1 1 8 28)
1969/12/31/18:00:11.941,(-38 -20 17 34 28 5 -16 -44)
1969/12/31/18:00:11.941,(18 -5 -13 -32 -8 6 4 15)
1969/12/31/18:00:11.961,(17 22 -1 -2 0 0 -2 3)
1969/12/31/18:00:11.961,(-19 -29 -10 -20 -26 -13 -13 -10)
1969/12/31/18:00:11.962,(19 13 -9 -30 -17 -5 7 19)
1969/12/31/18:00:11.962,(-10 1 3 2 5 -1 2 -6)
1969/12/31/18:00:11.974,(10 7 12 25 17 7 5 9)
1969/12/31/18:00:11.974,(8 14 -2 -25 -5 2 4 2)
1969/12/31/18:00:11.983,(-1 -9 -14 -16 -13 -6 -9 -2)
1969/12/31/18:00:11.983,(-11 -3 5 9 7 -3 -6 -9)
1969/12/31/18:00:11.996,(13 15 18 48 16 8 11 12)
1969/12/31/18:00:11.996,(-12 -7 15 15 12 11 9 3)
1969/12/31/18:00:11.998,(36 39 1 -3 -1 3 9 13)
1969/12/31/18:00:11.998,(-9 -20 -25 -102 -46 -12 -8 -6)
1969/12/31/18:00:12.017,(-10 -14 -37 -32 -38 -16 -11 -10)
1969/12/31/18:00:12.017,(3 5 22 89 21 4 -2 -3)
1969/12/31/18:00:12.019,(-20 -8 30 73 65 18 3 -3)
1969/12/31/18:00:12.019,(6 7 16 41 40 26 14 11)
1969/12/31/18:00:12.030,(9 8 2 -36 -7 1 3 4)
1969/12/31/18:00:12.030,(-4 -9 -24 -69 -42 -11 -4 -6)
1969/12/31/18:00:12.039,(-5 -15 -18 -33 -39 -22 -8 2)
1969/12/31/18:00:12.039,(-7 -5 0 11 5 -2 -2 -6)
1969/12/31/18:00:12.052,(-17 -17 2 22 14 -1 -4 -11)
1969/12/31/18:00:12.052,(12 16 -8 -6 -3 -3 0 4)
1969/12/31/18:00:12.054,(-10 -2 16 12 13 8 4 -9)
1969/12/31/18:00:12.054,(-3 -6 -10 -15 -16 -16 -20 -18)
1969/12/31/18:00:12.073,(-13 -19 -6 0 0 0 1 -2)
1969/12/31/18:00:12.073,(-19 -13 1 1 5 -4 -9 -12)
1969/12/31/18:00:12.075,(32 22 -2 -19 -7 6 16 26)
1969/12/31/18:00:12.075,(9 8 -2 -3 -8 2 8 11)
1969/12/31/18:00:12.085,(-2 2 -5 -19 -13 -5 -5 -5)
1969/12/31/18:00:12.085,(-3 -5 2 28 29 8 4 -2)
1969/12/31/18:00:12.095,(-8 -4 13 49 9 0 -4 -4)
1969/12/31/18:00:12.095,(4 2 19 38 17 2 3 7)
1969/12/31/18:00:12.108,(10 16 0 -8 -9 -3 1 1)
1969/12/31/18:00:12.108,(-13 -18 -13 -45 -13 -1 -1 -2)
1969/12/31/18:00:12.110,(-11 -19 -27 -34 -22 -12 -15 -16)
1969/12/31/18:00:12.110,(-17 -5 2 -6 -13 -5 -2 -4)
1969/12/31/18:00:12.129,(13 0 0 23 24 12 12 9)
1969/12/31/18:00:12.129,(5 -1 3 6 4 3 -4 -1)
1969/12/31/18:00:12.130,(-8 -4 -7 0 -6 -3 0 -3)
1969/12/31/18:00:12.130,(-34 -37 1 5 -2 -4 -7 -11)
1969/12/31/18:00:12.143,(53 54 11 -3 3 4 6 18)
1969/12/31/18:00:12.143,(1 -5 -2 -3 -3 2 2 0)
1969/12/31/18:00:12.158,(13 2 -17 -41 -20 -4 0 9)
1969/12/31/18:00:12.158,(-8 -7 -13 -7 -12 -7 -1 -7)
1969/12/31/18:00:12.164,(-21 -13 19 56 33 11 3 -4)
1969/12/31/18:00:12.164,(7 14 15 24 16 10 2 5)
1969/12/31/18:00:12.166,(-5 -5 3 1 2 -1 -2 -1)
1969/12/31/18:00:12.166,(26 24 -1 -27 -1 5 9 15)
1969/12/31/18:00:12.192,(-17 -23 -7 5 -7 -9 -8 -12)
1969/12/31/18:00:12.192,(22 21 5 -8 -7 1 14 25)
1969/12/31/18:00:12.194,(-40 -27 -7 -21 -15 -15 -21 -31)
1969/12/31/18:00:12.194,(16 12 -4 3 -1 2 5 8)
1969/12/31/18:00:12.198,(-3 -1 3 14 14 5 1 -1)
1969/12/31/18:00:12.198,(1 -7 -4 -17 -7 -4 -3 -4)
1969/12/31/18:00:12.206,(10 9 -1 4 -2 0 5 12)
1969/12/31/18:00:12.206,(-1 4 -8 -21 -5 -6 -9 -13)
1969/12/31/18:00:12.220,(-13 -16 1 17 -5 -5 -4 -5)
1969/12/31/18:00:12.220,(-3 11 5 15 11 1 -1 1)
1969/12/31/18:00:12.222,(10 19 13 10 12 11 10 6)
1969/12/31/18:00:12.222,(8 -7 -24 -65 -41 -16 -12 0)
1969/12/31/18:00:12.242,(-4 -4 -7 22 -5 -6 -2 -1)
1969/12/31/18:00:12.242,(-10 -8 19 63 36 2 -3 -7)
1969/12/31/18:00:12.243,(5 9 19 44 36 15 10 8)
1969/12/31/18:00:12.243,(-8 2 7 2 8 3 -2 -5)
1969/12/31/18:00:12.254,(14 1 -14 -56 -21 6 10 14)
1969/12/31/18:00:12.254,(-1 -7 -14 -13 -20 -10 -7 -6)
1969/12/31/18:00:12.263,(-4 -19 -13 -24 -21 -12 -11 -4)
1969/12/31/18:00:12.263,(-17 -11 5 36 11 2 -2 -18)
1969/12/31/18:00:12.276,(13 40 8 -14 -5 -6 -4 9)
1969/12/31/18:00:12.276,(-15 -10 -2 -11 -7 -1 -5 -18)
1969/12/31/18:00:12.278,(-5 -12 -11 -8 -3 -1 -5 -8)
1969/12/31/18:00:12.278,(15 18 10 14 5 4 9 7)
1969/12/31/18:00:12.298,(-23 -22 0 6 6 0 -12 -17)
1969/12/31/18:00:12.298,(0 -4 -5 -17 -7 -2 -4 0)
1969/12/31/18:00:12.299,(8 6 -15 -46 -17 -5 1 4)
1969/12/31/18:00:12.300,(-13 -13 -1 9 -8 -5 -2 -4)
1969/12/31/18:00:12.310,(-7 -2 22 67 25 5 4 -3)
1969/12/31/18:00:12.310,(20 18 16 24 25 11 10 15)
1969/12/31/18:00:12.319,(-11 -18 -3 2 -5 -2 -1 -5)
1969/12/31/18:00:12.319,(0 -2 -11 -42 -9 1 1 2)
1969/12/31/18:00:12.332,(2 -5 -21 -46 -32 -9 -3 0)
1969/12/31/18:00:12.333,(-2 0 3 18 1 -7 -5 -3)
1969/12/31/18:00:12.334,(7 9 11 28 17 3 4 5)
1969/12/31/18:00:12.334,(1 4 6 21 11 4 0 2)
1969/12/31/18:00:12.354,(1 -13 -13 -39 -16 -8 -6 1)
1969/12/31/18:00:12.354,(-21 -4 -2 -20 -9 4 1 -17)
1969/12/31/18:00:12.356,(5 -1 -3 4 -2 -5 -1 1)
1969/12/31/18:00:12.356,(3 31 6 17 7 1 0 3)
1969/12/31/18:00:12.366,(-33 -41 0 2 4 -2 -5 -15)
1969/12/31/18:00:12.366,(45 29 0 -15 -3 6 14 24)
1969/12/31/18:00:12.376,(19 20 1 -4 -4 0 0 5)
1969/12/31/18:00:12.376,(-8 -13 -2 9 2 1 2 -1)
1969/12/31/18:00:12.389,(1 5 6 -2 5 0 3 4)
1969/12/31/18:00:12.389,(-10 -9 -11 -16 -14 -6 -6 -5)
1969/12/31/18:00:12.391,(-11 -7 7 18 7 2 -1 -3)
1969/12/31/18:00:12.391,(9 -1 -5 -4 -1 6 7 9)
1969/12/31/18:00:12.410,(4 8 6 28 -4 -3 2 1)
1969/12/31/18:00:12.410,(-5 -9 5 4 21 -1 -4 -2)
1969/12/31/18:00:12.412,(-4 -6 -7 -1 5 0 -4 -4)
1969/12/31/18:00:12.412,(-6 -9 -1 -1 0 -1 1 -1)
1969/12/31/18:00:12.423,(2 3 -9 -27 -18 -4 -3 -4)
1969/12/31/18:00:12.423,(-2 -2 -2 11 -14 -3 -2 -3)
1969/12/31/18:00:12.431,(0 -1 4 -10 17 6 5 3)
1969/12/31/18:00:12.432,(8 3 8 33 16 6 4 5)
1969/12/31/18:00:12.445,(-6 -5 0 -11 1 1 -1 -7)
1969/12/31/18:00:12.445,(5 -6 -10 -22 -20 -12 -5 2)
1969/12/31/18:00:12.450,(10 23 15 6 -1 7 17 14)
1969/12/31/18:00:12.451,(-10 -13 -5 -7 -8 -9 -11 -10)
1969/12/31/18:00:12.466,(5 4 -2 -5 8 5 1 0)
1969/12/31/18:00:12.466,(-7 -5 -1 -1 -2 -2 -2 -4)
1969/12/31/18:00:12.468,(8 -2 -9 -7 -5 2 5 8)
1969/12/31/18:00:12.468,(7 -1 3 6 3 3 3 6)
1969/12/31/18:00:12.487,(-7 0 1 1 4 -1 -3 -4)
1969/12/31/18:00:12.487,(0 -2 -10 -42 -16 -4 -7 -2)
1969/12/31/18:00:12.489,(-13 -12 -8 21 -1 -8 -4 -7)
1969/12/31/18:00:12.489,(4 0 17 35 16 4 3 5)
1969/12/31/18:00:12.501,(-6 5 8 16 13 10 12 -1)
1969/12/31/18:00:12.501,(8 5 1 -11 -3 -3 -9 0)
1969/12/31/18:00:12.507,(-7 -5 -14 -27 -20 -8 -6 -7)
1969/12/31/18:00:12.507,(-7 -13 -10 -18 -13 -7 -8 -10)
1969/12/31/18:00:12.522,(28 34 0 -32 -5 2 9 26)
1969/12/31/18:00:12.522,(-27 -17 5 42 12 -7 -11 -25)
1969/12/31/18:00:12.523,(-4 -3 9 18 2 0 -4 -5)
1969/12/31/18:00:12.523,(5 8 1 -2 1 2 2 3)
1969/12/31/18:00:12.543,(-6 -10 1 11 -1 0 -1 -3)
1969/12/31/18:00:12.543,(-24 -13 -8 -12 0 3 2 -4)
1969/12/31/18:00:12.545,(62 46 17 15 8 5 10 24)
1969/12/31/18:00:12.545,(-22 -19 -6 -10 -7 -9 -11 -13)
1969/12/31/18:00:12.556,(12 7 -4 -16 -3 2 3 4)
1969/12/31/18:00:12.556,(-9 -6 -12 -3 -10 -8 -8 -8)
1969/12/31/18:00:12.565,(-9 -16 -1 2 8 6 5 0)
1969/12/31/18:00:12.565,(13 18 1 -3 -3 -2 0 4)
1969/12/31/18:00:12.579,(-11 -11 0 6 -1 -5 -13 -15)
1969/12/31/18:00:12.579,(-1 -5 -1 6 -1 -3 -4 -2)
1969/12/31/18:00:12.580,(0 0 -1 -28 -6 7 11 10)
1969/12/31/18:00:12.580,(5 7 -1 17 4 -1 1 3)
1969/12/31/18:00:12.599,(-21 -20 -6 -1 2 -6 -11 -14)
1969/12/31/18:00:12.599,(14 10 -5 -45 -19 4 10 12)
1969/12/31/18:00:12.601,(-12 -6 0 27 6 -11 -12 -10)
1969/12/31/18:00:12.601,(2 7 21 58 15 2 5 2)
1969/12/31/18:00:12.621,(-8 -4 0 -24 6 3 -1 -8)
1969/12/31/18:00:12.621,(13 6 0 23 7 12 12 14)
1969/12/31/18:00:12.622,(-6 -4 -1 -9 2 1 -4 -3)
1969/12/31/18:00:12.622,(-4 4 9 3 -5 4 -1 -1)
1969/12/31/18:00:12.634,(-2 -2 -6 1 -13 -16 -10 -6)
1969/12/31/18:00:12.634,(10 9 11 -19 -18 -4 6 7)
1969/12/31/18:00:12.635,(-16 -14 -29 -9 -13 -20 -16 -15)
1969/12/31/18:00:12.635,(-2 -17 -39 -52 1 12 4 -1)
1969/12/31/18:00:12.655,(0 0 12 34 26 21 14 10)
1969/12/31/18:00:12.655,(1 12 43 35 36 19 8 2)
1969/12/31/18:00:12.655,(2 15 36 26 -9 -13 -9 -4)
1969/12/31/18:00:12.655,(4 -3 -56 -37 -43 -37 -16 -2)
1969/12/31/18:00:12.677,(-11 -32 -51 -41 0 -1 -4 -6)
1969/12/31/18:00:12.677,(-19 -18 -2 -5 6 3 1 -7)
1969/12/31/18:00:12.678,(-6 16 74 9 -2 8 -1 -5)
1969/12/31/18:00:12.678,(14 22 12 11 5 9 12 8)
1969/12/31/18:00:12.690,(17 5 -27 -8 -24 -15 -3 10)
1969/12/31/18:00:12.690,(-6 -15 -6 9 9 5 -5 -8)
1969/12/31/18:00:12.691,(-6 -16 -41 -19 25 6 1 -1)
1969/12/31/18:00:12.691,(-7 1 14 -56 -24 2 2 -2)
1969/12/31/18:00:12.711,(3 12 14 75 0 -5 -5 1)
1969/12/31/18:00:12.711,(-1 -5 8 4 8 -5 -3 0)
1969/12/31/18:00:12.711,(-6 -3 -1 12 -1 9 5 -1)
1969/12/31/18:00:12.711,(2 4 27 27 24 7 -1 -4)
1969/12/31/18:00:12.733,(10 12 -2 -13 9 10 12 6)
1969/12/31/18:00:12.733,(14 7 -4 -22 -23 -1 6 9)
1969/12/31/18:00:12.734,(-8 -11 -25 -20 -19 -17 -13 -8)
1969/12/31/18:00:12.734,(-9 -12 -15 0 2 -4 -4 -7)
1969/12/31/18:00:12.746,(-5 1 4 -31 -12 -11 -10 -6)
1969/12/31/18:00:12.746,(2 8 6 12 2 2 2 1)
1969/12/31/18:00:12.747,(6 7 -2 6 2 4 5 3)
1969/12/31/18:00:12.747,(-3 -16 -21 8 -7 -8 -5 -1)
1969/12/31/18:00:12.768,(-12 -8 27 11 11 -1 -2 -5)
1969/12/31/18:00:12.768,(3 4 -22 -8 7 -9 -3 2)
1969/12/31/18:00:12.768,(2 -2 -4 -10 -4 6 3 1)
1969/12/31/18:00:12.768,(-2 6 24 10 2 4 -1 -2)
1969/12/31/18:00:12.790,(10 8 5 2 4 10 7 6)
1969/12/31/18:00:12.790,(0 -1 -9 0 -5 -4 -3 -3)
1969/12/31/18:00:12.791,(-5 -8 -4 -4 -4 1 -3 -4)
1969/12/31/18:00:12.791,(2 3 -1 14 12 6 3 1)
1969/12/31/18:00:12.802,(-9 -7 5 -7 -6 -10 -7 -7)
1969/12/31/18:00:12.802,(2 6 -2 4 -5 -3 0 0)
1969/12/31/18:00:12.803,(3 -4 -10 -11 -7 -2 0 3)
1969/12/31/18:00:12.803,(-1 0 3 0 5 1 -1 0)
1969/12/31/18:00:12.824,(0 3 6 -1 -1 2 2 0)
1969/12/31/18:00:12.824,(2 2 -6 3 -1 2 1 0)
1969/12/31/18:00:12.825,(0 -3 -8 -4 1 0 1 2)
1969/12/31/18:00:12.825,(-2 2 6 -8 -6 -4 -3 0)
1969/12/31/18:00:12.837,(5 1 -3 20 15 9 6 4)
1969/12/31/18:00:12.837,(-12 -9 -1 -12 -9 -12 -9 -8)
1969/12/31/18:00:12.844,(-4 -1 1 -4 -3 2 4 1)
1969/12/31/18:00:12.844,(1 -2 -2 -1 4 2 1 2)
1969/12/31/18:00:12.858,(1 5 11 -8 -11 -3 0 0)
1969/12/31/18:00:12.858,(5 4 -2 13 5 4 2 3)
1969/12/31/18:00:12.859,(-4 -2 11 3 5 -2 -1 -3)
1969/12/31/18:00:12.859,(-1 1 0 -13 -5 5 2 -2)
1969/12/31/18:00:12.880,(5 1 -4 9 6 1 3 4)
1969/12/31/18:00:12.880,(-6 -5 -8 -6 -8 -7 -5 -4)
1969/12/31/18:00:12.880,(-2 -2 5 -1 -6 -5 -2 -2)
1969/12/31/18:00:12.880,(-4 -2 2 1 6 3 3 0)
1969/12/31/18:00:12.893,(-3 -6 -11 0 0 -3 -1 -3)
1969/12/31/18:00:12.893,(4 2 -4 -15 -11 -2 5 6)
1969/12/31/18:00:12.900,(3 -3 -10 8 4 4 4 2)
1969/12/31/18:00:12.900,(-12 -16 -20 -38 -12 -11 -10 -8)
1969/12/31/18:00:12.915,(1 7 15 41 3 1 -5 -2)
1969/12/31/18:00:12.915,(-7 6 33 24 9 2 -2 -5)
1969/12/31/18:00:12.915,(9 6 -7 -8 2 8 5 5)
1969/12/31/18:00:12.915,(14 -5 -20 -11 3 3 6 12)
1969/12/31/18:00:12.936,(-1 2 -1 -27 -16 -8 -6 -5)
1969/12/31/18:00:12.936,(0 4 0 -2 -3 -2 -3 -3)
1969/12/31/18:00:12.937,(3 10 12 29 19 6 1 1)
1969/12/31/18:00:12.937,(7 -3 -12 -12 2 6 7 6)
1969/12/31/18:00:12.949,(-1 6 7 3 -9 -11 -5 -3)
1969/12/31/18:00:12.949,(-3 -19 -33 -39 -21 -10 -3 -3)
1969/12/31/18:00:12.957,(1 7 25 26 8 -2 -3 -1)
1969/12/31/18:00:12.957,(-6 9 30 39 13 -4 -2 -3)
1969/12/31/18:00:12.971,(-6 -11 -10 -15 14 9 8 2)
1969/12/31/18:00:12.971,(-3 -6 -12 -6 0 0 5 0)
1969/12/31/18:00:12.972,(-14 -2 1 -18 -19 -16 -13 -14)
1969/12/31/18:00:12.972,(7 -9 -28 -8 -13 -6 1 5)
1969/12/31/18:00:12.991,(6 2 -6 1 3 6 4 5)
1969/12/31/18:00:12.991,(-6 5 18 9 1 -7 -14 -12)
1969/12/31/18:00:12.999,(4 -4 -24 -13 -3 3 2 4)
1969/12/31/18:00:12.999,(-4 6 19 22 6 3 0 -4)
1969/12/31/18:00:13.005,(-2 -4 2 -6 4 1 -5 -5)
1969/12/31/18:00:13.005,(5 -3 -8 -3 2 4 2 0)
1969/12/31/18:00:13.013,(-12 -1 18 -3 -14 -8 -10 -12)
1969/12/31/18:00:13.013,(4 7 5 12 14 7 3 5)
1969/12/31/18:00:13.027,(21 12 1 8 15 10 5 10)
1969/12/31/18:00:13.027,(6 6 11 14 8 5 -2 3)
1969/12/31/18:00:13.028,(5 2 -16 -18 -9 -5 0 2)
1969/12/31/18:00:13.028,(-6 -3 4 5 -3 -3 -5 -4)
1969/12/31/18:00:13.048,(-6 -3 2 -3 -4 -2 1 -2)
1969/12/31/18:00:13.048,(5 2 -5 -1 -1 5 -1 2)
1969/12/31/18:00:13.048,(-3 -7 -9 -15 0 -5 -2 -3)
1969/12/31/18:00:13.048,(2 1 1 5 -1 -2 4 4)
1969/12/31/18:00:13.061,(-9 -5 -3 -17 -14 -6 -3 -3)
1969/12/31/18:00:13.061,(-4 -1 8 13 21 7 5 5)
1969/12/31/18:00:13.069,(-8 -9 1 21 10 3 0 0)
1969/12/31/18:00:13.069,(-2 -1 0 -2 -1 -3 -1 -2)
1969/12/31/18:00:13.083,(-7 -5 -2 -4 -6 -8 -5 -8)
1969/12/31/18:00:13.083,(8 4 -15 -20 -20 -8 2 2)
1969/12/31/18:00:13.084,(10 -4 -11 -3 4 6 6 6)
1969/12/31/18:00:13.084,(-4 0 9 -3 -4 -5 -6 -8)
1969/12/31/18:00:13.104,(-4 0 0 6 -5 -2 -3 -4)
1969/12/31/18:00:13.104,(0 -5 -7 -4 2 2 6 8)
1969/12/31/18:00:13.104,(-3 1 8 2 2 0 5 3)
1969/12/31/18:00:13.104,(-6 2 3 0 -1 -7 -9 -7)
1969/12/31/18:00:13.118,(0 -6 -16 -15 -7 4 11 10)
1969/12/31/18:00:13.118,(-1 -4 -4 7 7 1 0 1)
1969/12/31/18:00:13.125,(-3 1 5 -2 -3 -6 -7 -6)
1969/12/31/18:00:13.125,(0 -1 -5 -6 -9 2 3 1)
1969/12/31/18:00:13.139,(-6 -3 5 7 8 -2 -7 -7)
1969/12/31/18:00:13.139,(-6 1 7 5 4 0 -3 -4)
1969/12/31/18:00:13.140,(-8 -5 -2 -8 -6 1 -1 -1)
1969/12/31/18:00:13.140,(14 6 -10 -6 -2 5 6 10)
1969/12/31/18:00:13.161,(-5 -2 3 6 6 -4 -21 -18)
1969/12/31/18:00:13.161,(-12 -5 0 -3 -6 -6 1 -11)
1969/12/31/18:00:13.161,(11 2 -4 -4 3 10 25 30)
1969/12/31/18:00:13.161,(-3 1 7 4 -1 -2 -3 -7)
1969/12/31/18:00:13.174,(9 4 0 5 2 3 12 18)
1969/12/31/18:00:13.174,(6 -1 -2 -2 -2 1 -3 3)
1969/12/31/18:00:13.181,(7 5 -2 -5 -3 -10 -19 -11)
1969/12/31/18:00:13.181,(-2 2 0 -1 0 0 -2 -4)
1969/12/31/18:00:13.195,(-1 -4 -2 -1 0 -2 -5 -8)
1969/12/31/18:00:13.195,(-9 -1 2 3 4 1 -3 -8)
1969/12/31/18:00:13.196,(6 1 -5 -3 -1 4 7 6)
1969/12/31/18:00:13.196,(-4 -3 1 3 3 -2 -4 -1)
1969/12/31/18:00:13.217,(-7 -1 4 -2 -4 -3 -2 -6)
1969/12/31/18:00:13.217,(3 5 3 -2 0 1 1 1)
1969/12/31/18:00:13.217,(1 1 -5 -1 -1 -2 1 -1)
1969/12/31/18:00:13.217,(1 0 3 3 3 1 2 4)
1969/12/31/18:00:13.238,(-6 -2 0 -5 -3 -2 -1 -4)
1969/12/31/18:00:13.238,(2 -1 -2 0 0 4 3 5)
1969/12/31/18:00:13.239,(3 0 -5 -5 -5 -2 0 -1)
1969/12/31/18:00:13.239,(2 0 3 2 2 1 0 1)
1969/12/31/18:00:13.251,(0 1 3 -1 0 2 5 7)
1969/12/31/18:00:13.251,(1 0 -4 0 0 -2 -2 -2)
1969/12/31/18:00:13.252,(-8 -5 -2 -2 -2 -5 -12 -11)
1969/12/31/18:00:13.252,(0 -1 -2 2 -3 -1 2 0)
1969/12/31/18:00:13.273,(5 3 -1 -5 -8 1 10 8)
1969/12/31/18:00:13.273,(5 1 -8 2 0 -4 -9 -5)
1969/12/31/18:00:13.274,(-9 -10 3 2 6 -1 -9 -9)
1969/12/31/18:00:13.274,(-5 -2 5 1 1 2 5 1)
1969/12/31/18:00:13.294,(-2 -1 2 0 1 -2 -6 -5)
1969/12/31/18:00:13.294,(-3 0 1 -5 -4 0 0 -2)
1969/12/31/18:00:13.295,(5 2 -7 -4 -2 0 5 7)
1969/12/31/18:00:13.295,(-5 -2 -1 1 1 -7 -18 -23)
1969/12/31/18:00:13.308,(-3 0 1 1 2 3 9 11)
1969/12/31/18:00:13.308,(12 4 1 1 0 7 16 21)
1969/12/31/18:00:13.315,(0 -1 -1 0 1 0 0 -2)
1969/12/31/18:00:13.315,(3 -2 1 3 3 1 -3 2)
1969/12/31/18:00:13.329,(-2 -3 -2 -1 0 -3 -7 -9)
1969/12/31/18:00:13.329,(-3 -2 0 0 -1 -4 -4 -4)
1969/12/31/18:00:13.329,(-3 2 1 -3 -3 -3 2 -2)
1969/12/31/18:00:13.329,(-4 0 1 0 -1 -3 1 -2)
1969/12/31/18:00:13.351,(2 -1 -3 -2 -1 1 2 2)
1969/12/31/18:00:13.351,(-1 -1 1 0 0 -2 0 2)
1969/12/31/18:00:13.351,(-3 -1 -1 -2 -1 -1 -4 -5)
1969/12/31/18:00:13.351,(2 1 0 0 0 4 7 8)
1969/12/31/18:00:13.364,(2 0 0 1 2 1 -1 2)
1969/12/31/18:00:13.364,(-2 -3 -1 -1 -1 -2 -4 -7)
1969/12/31/18:00:13.365,(-3 -1 -2 -1 -3 -4 -7 -9)
1969/12/31/18:00:13.365,(0 3 1 1 -1 -3 2 2)
1969/12/31/18:00:13.385,(4 0 0 -1 2 3 8 11)
1969/12/31/18:00:13.385,(0 -1 0 -2 -2 -3 -8 -6)
1969/12/31/18:00:13.386,(2 1 1 2 1 1 5 6)
1969/12/31/18:00:13.386,(3 -2 -2 0 1 2 -2 0)
1969/12/31/18:00:13.413,(-5 -2 -1 -3 -1 -1 -5 -9)
1969/12/31/18:00:13.413,(-3 -1 1 -1 -1 -2 0 -1)
1969/12/31/18:00:13.414,(3 1 1 0 -2 1 2 5)
1969/12/31/18:00:13.414,(-3 1 2 -2 -1 -4 -3 -1)
1969/12/31/18:00:13.420,(1 0 0 2 0 -4 -3 -3)
1969/12/31/18:00:13.420,(1 -2 -2 -2 0 2 3 2)
1969/12/31/18:00:13.421,(-2 0 -2 0 0 -1 -1 -3)
1969/12/31/18:00:13.421,(0 -2 -1 -1 -3 -1 0 2)
1969/12/31/18:00:13.441,(1 -1 2 1 -2 -2 -3 -3)
1969/12/31/18:00:13.441,(1 0 0 0 1 0 1 0)
1969/12/31/18:00:13.442,(-1 -3 -3 -2 0 0 0 -2)
1969/12/31/18:00:13.442,(0 0 -1 -2 -1 1 2 2)
1969/12/31/18:00:13.463,(-1 -1 -2 0 1 0 1 -3)
1969/12/31/18:00:13.463,(-1 0 -1 -2 -1 -2 1 -1)
1969/12/31/18:00:13.464,(-1 -2 -1 -1 -2 1 1 1)
1969/12/31/18:00:13.464,(-1 -2 -2 0 -1 -1 -1 0)
1969/12/31/18:00:13.476,(-2 -1 0 -1 -2 1 -1 1)
1969/12/31/18:00:13.476,(-3 0 0 1 -1 -2 -2 -2)
1969/12/31/18:00:13.477,(-1 -3 -3 -1 -2 -1 -4 -1)
1969/12/31/18:00:13.477,(-1 1 0 -4 -3 -2 -1 -2)
1969/12/31/18:00:13.498,(1 -1 -1 3 0 -1 -1 -1)
1969/12/31/18:00:13.498,(0 -1 1 0 2 0 -1 0)
1969/12/31/18:00:13.499,(-1 0 2 1 0 0 -3 -4)
1969/12/31/18:00:13.499,(0 -1 -3 -6 -4 -2 6 5)
1969/12/31/18:00:13.519,(1 3 -1 1 0 0 0 0)
1969/12/31/18:00:13.519,(0 -3 1 -1 3 1 0 -2)
1969/12/31/18:00:13.520,(-2 -1 1 -1 0 2 1 0)
1969/12/31/18:00:13.520,(-4 -2 0 1 1 -1 -4 -6)
1969/12/31/18:00:13.532,(-1 0 0 -3 -2 -2 -2 0)
1969/12/31/18:00:13.532,(1 0 1 0 -3 -1 2 2)
1969/12/31/18:00:13.533,(-1 1 -1 -1 -1 -3 -3 0)
1969/12/31/18:00:13.533,(0 -2 -1 0 1 2 0 0)
1969/12/31/18:00:13.561,(-1 -1 -3 0 -2 -1 0 0)
1969/12/31/18:00:13.561,(-2 0 -1 1 -1 -2 -1 -3)
1969/12/31/18:00:13.562,(-2 0 0 0 -2 -3 -3 0)
1969/12/31/18:00:13.562,(2 1 -1 2 0 -2 -3 -2)
1969/12/31/18:00:13.575,(0 -2 0 0 2 0 -1 -2)
1969/12/31/18:00:13.575,(0 2 0 -1 -2 -2 2 1)
1969/12/31/18:00:13.576,(2 -1 1 -1 0 1 3 0)
1969/12/31/18:00:13.576,(-2 0 0 -1 0 0 -2 -1)
1969/12/31/18:00:13.588,(-4 -2 0 0 0 -1 -4 -3)
1969/12/31/18:00:13.588,(1 -2 -2 0 0 1 1 1)
1969/12/31/18:00:13.588,(-11 -6 4 -6 -24 -13 -6 -6)
1969/12/31/18:00:13.588,(-5 -10 -35 -128 -74 -28 -11 -6)
1969/12/31/18:00:13.589,(-5 -4 12 43 38 8 0 -3)
1969/12/31/18:00:13.589,(12 16 15 82 24 10 8 7)
1969/12/31/18:00:13.609,(4 2 -11 -13 -28 -11 -5 0)
1969/12/31/18:00:13.609,(-1 -3 -6 -46 -11 2 0 0)
1969/12/31/18:00:13.615,(-6 -3 -16 -39 4 0 0 -2)
1969/12/31/18:00:13.615,(-1 -3 10 8 -20 -6 -2 -1)
1969/12/31/18:00:13.622,(7 12 4 24 20 7 7 4)
1969/12/31/18:00:13.622,(0 -4 -7 1 -7 1 -3 -3)
1969/12/31/18:00:13.630,(-2 -4 -7 -32 6 -3 -4 0)
1969/12/31/18:00:13.630,(1 2 10 58 -13 5 2 2)
1969/12/31/18:00:13.644,(6 5 13 58 69 14 7 4)
1969/12/31/18:00:13.644,(-4 -4 8 14 8 -1 -2 -1)
1969/12/31/18:00:13.645,(-9 -3 -3 -28 -51 -17 -5 -6)
1969/12/31/18:00:13.645,(1 0 -15 -35 34 2 0 -1)
1969/12/31/18:00:13.665,(1 -2 -6 -23 -43 -3 1 0)
1969/12/31/18:00:13.665,(3 1 17 28 62 17 4 1)
1969/12/31/18:00:13.667,(-4 0 -8 -17 -21 -9 -4 -5)
1969/12/31/18:00:13.667,(0 -1 -3 -31 2 0 1 -3)
1969/12/31/18:00:13.678,(0 0 -8 -25 -6 -1 -1 -1)
1969/12/31/18:00:13.678,(-1 -2 4 23 -15 -5 -3 -2)
1969/12/31/18:00:13.686,(0 3 9 41 0 8 1 -1)
1969/12/31/18:00:13.686,(-5 -3 1 41 40 6 0 -4)
1969/12/31/18:00:13.700,(3 1 -4 -51 -18 -1 3 3)
1969/12/31/18:00:13.700,(1 -1 -5 21 0 -5 -2 0)
1969/12/31/18:00:13.701,(-2 -4 -4 -33 -4 1 1 0)
1969/12/31/18:00:13.701,(-6 -4 3 5 -3 -3 -3 -4)
1969/12/31/18:00:13.721,(-2 0 -2 -10 -16 -5 -2 -2)
1969/12/31/18:00:13.721,(1 -2 -8 -19 -15 -3 -1 0)
1969/12/31/18:00:13.723,(-1 0 7 21 19 7 2 -1)
1969/12/31/18:00:13.723,(-3 -3 -4 -33 -19 -7 -4 -3)
1969/12/31/18:00:13.734,(2 2 -8 18 6 2 0 0)
1969/12/31/18:00:13.734,(-2 -2 -4 -8 -5 -1 -2 -2)
1969/12/31/18:00:13.743,(-1 -1 -2 -2 0 -2 -3 -1)
1969/12/31/18:00:13.743,(-1 1 3 -22 -17 -5 -3 -3)
1969/12/31/18:00:13.757,(-3 -3 -2 26 13 1 -2 -2)
1969/12/31/18:00:13.757,(1 -1 1 13 -1 -1 -1 0)
1969/12/31/18:00:13.758,(-1 -2 1 -28 -7 0 -1 0)
1969/12/31/18:00:13.758,(0 1 2 12 2 4 -1 0)
1969/12/31/18:00:13.777,(1 1 -1 1 -4 6 0 2)
1969/12/31/18:00:13.777,(-7 -4 -1 -6 3 0 -3 -3)
1969/12/31/18:00:13.779,(4 2 -4 -8 -4 1 1 3)
1969/12/31/18:00:13.779,(3 1 0 -5 -2 0 -1 1)
1969/12/31/18:00:13.790,(-3 -1 1 16 0 1 -2 -1)
1969/12/31/18:00:13.790,(6 3 1 -11 -3 0 2 3)
1969/12/31/18:00:13.799,(-5 -4 1 12 11 -3 -3 -5)
1969/12/31/18:00:13.799,(0 0 -3 -33 -14 -7 -2 0)
1969/12/31/18:00:13.813,(-2 -2 -2 32 6 -5 1 -2)
1969/12/31/18:00:13.813,(1 -1 -6 -24 0 -2 1 2)
1969/12/31/18:00:13.815,(-1 2 15 47 20 2 0 -1)
1969/12/31/18:00:13.815,(3 6 3 2 2 -3 3 4)
1969/12/31/18:00:13.834,(-2 0 -2 -8 -2 -1 -2 -2)
1969/12/31/18:00:13.834,(4 -1 -7 -13 -9 0 1 4)
1969/12/31/18:00:13.835,(-5 -1 0 17 14 3 -1 -4)
1969/12/31/18:00:13.835,(-10 -9 -4 -11 -9 -2 -7 -8)
1969/12/31/18:00:13.846,(5 5 -1 -2 3 2 2 4)
1969/12/31/18:00:13.846,(-2 -1 1 4 1 1 -2 -3)
1969/12/31/18:00:13.855,(0 -1 -2 -18 -16 -5 -1 2)
1969/12/31/18:00:13.855,(1 -2 0 13 5 1 2 3)
1969/12/31/18:00:13.869,(3 3 2 -4 3 2 5 1)
1969/12/31/18:00:13.869,(-4 -5 0 10 2 -1 -4 -5)
1969/12/31/18:00:13.875,(1 1 -3 -12 -9 0 4 6)
1969/12/31/18:00:13.875,(5 5 -4 -14 -5 -2 -1 -1)
1969/12/31/18:00:13.890,(0 -4 -8 -18 -10 -4 -5 -1)
1969/12/31/18:00:13.890,(-1 1 3 6 -5 4 4 2)
1969/12/31/18:00:13.895,(-5 -3 11 46 41 6 -2 -8)
1969/12/31/18:00:13.895,(-3 -1 0 3 -1 2 2 2)
1969/12/31/18:00:13.903,(3 3 1 8 -3 -1 0 2)
1969/12/31/18:00:13.903,(0 2 -3 -12 -8 -5 -5 -2)
1969/12/31/18:00:13.911,(-5 -9 -10 -30 -24 -10 -5 -2)
1969/12/31/18:00:13.911,(-7 -4 -6 -7 -4 2 8 3)
1969/12/31/18:00:13.925,(-13 -6 6 1 5 -1 -6 -12)
1969/12/31/18:00:13.925,(7 5 -5 5 1 -6 -12 -7)
1969/12/31/18:00:13.927,(2 7 -2 -4 -3 -3 -7 -7)
1969/12/31/18:00:13.927,(12 4 3 1 3 3 6 13)
1969/12/31/18:00:13.946,(-8 -7 -2 -1 -1 0 0 -3)
1969/12/31/18:00:13.946,(-8 -7 2 8 6 4 6 2)
1969/12/31/18:00:13.948,(4 2 -2 -4 0 1 5 4)
1969/12/31/18:00:13.948,(-8 -6 -6 -10 -9 -7 -11 -11)
1969/12/31/18:00:13.959,(7 2 -2 -6 -3 -1 1 4)
1969/12/31/18:00:13.959,(-2 1 5 26 19 5 2 -1)
1969/12/31/18:00:13.967,(5 -2 -9 -39 -26 -6 1 6)
1969/12/31/18:00:13.967,(-2 -4 2 15 6 0 -5 -10)
1969/12/31/18:00:13.981,(13 11 12 31 12 2 4 6)
1969/12/31/18:00:13.981,(-4 -6 -20 -80 -38 -6 -3 -3)
1969/12/31/18:00:13.982,(5 1 6 54 10 3 3 5)
1969/12/31/18:00:13.982,(-13 2 19 49 38 9 2 -2)
1969/12/31/18:00:14.002,(-7 -10 0 3 11 3 0 -7)
1969/12/31/18:00:14.003,(26 20 12 14 4 10 17 18)
1969/12/31/18:00:14.004,(-39 -19 -19 -52 -25 -14 -17 -22)
1969/12/31/18:00:14.004,(32 6 -7 -26 -20 -2 3 15)
1969/12/31/18:00:14.015,(8 11 -2 6 3 1 1 0)
1969/12/31/18:00:14.015,(-17 -9 1 6 5 -1 1 -5)
1969/12/31/18:00:14.023,(13 10 3 -4 1 4 3 6)
1969/12/31/18:00:14.023,(0 1 -4 4 0 -4 -6 -1)
1969/12/31/18:00:14.037,(-6 -2 -2 -5 -3 -1 -2 -3)
1969/12/31/18:00:14.037,(-3 -6 -2 -2 0 -3 -3 -3)
1969/12/31/18:00:14.038,(-7 -1 8 20 10 3 6 -1)
1969/12/31/18:00:14.038,(-15 -7 -2 6 1 -2 -4 -9)
1969/12/31/18:00:14.058,(20 4 -5 -19 -9 -3 2 10)
1969/12/31/18:00:14.058,(-11 -3 7 19 8 5 2 -4)
1969/12/31/18:00:14.064,(5 2 4 5 3 0 -3 0)
1969/12/31/18:00:14.064,(-2 0 -2 -18 -9 4 7 4)
1969/12/31/18:00:14.071,(-15 -9 -6 -9 -6 -7 -7 -8)
1969/12/31/18:00:14.071,(-11 -16 5 14 9 3 2 -1)
1969/12/31/18:00:14.079,(45 36 10 7 9 7 11 26)
1969/12/31/18:00:14.079,(4 4 -2 -8 -8 -3 -5 -9)
1969/12/31/18:00:14.093,(-4 -3 -3 1 1 -3 -7 -4)
1969/12/31/18:00:14.093,(-1 -1 -5 4 -4 -4 -5 0)
1969/12/31/18:00:14.101,(-15 -13 -8 -24 -18 -4 -3 -11)
1969/12/31/18:00:14.101,(1 -1 -2 10 14 6 5 4)
1969/12/31/18:00:14.114,(-1 1 9 16 4 4 4 3)
1969/12/31/18:00:14.114,(-6 -3 1 -2 0 -4 -3 -8)
1969/12/31/18:00:14.116,(-4 -3 -4 -14 0 2 -1 -2)
1969/12/31/18:00:14.116,(-3 -2 2 16 -4 -5 0 2)
1969/12/31/18:00:14.127,(4 2 1 -7 1 2 2 0)
1969/12/31/18:00:14.127,(2 1 -1 7 0 -3 -3 0)
1969/12/31/18:00:14.143,(-4 -3 -2 -2 -6 -2 -3 -4)
1969/12/31/18:00:14.143,(-1 0 -6 -19 -14 -5 -3 -2)
1969/12/31/18:00:14.149,(-6 -8 1 22 13 1 0 -1)
1969/12/31/18:00:14.149,(7 14 13 29 25 12 10 9)
1969/12/31/18:00:14.155,(-3 -3 -2 -2 0 -6 -8 -10)
1969/12/31/18:00:14.155,(-3 1 0 -14 -7 -4 -4 -3)
1969/12/31/18:00:14.170,(-28 -19 -3 -13 -11 -1 -3 -12)
1969/12/31/18:00:14.170,(16 13 -8 -13 -9 -7 -1 6)
1969/12/31/18:00:14.172,(5 2 2 7 9 7 7 5)
1969/12/31/18:00:14.172,(0 -1 -3 -19 -12 -4 -3 -3)
1969/12/31/18:00:14.183,(7 3 -4 -11 -21 -7 -2 1)
1969/12/31/18:00:14.183,(-3 -1 4 20 20 4 2 3)
1969/12/31/18:00:14.192,(-14 -9 3 13 6 -3 -9 -7)
1969/12/31/18:00:14.192,(1 4 1 -5 1 6 13 9)
1969/12/31/18:00:14.205,(7 4 -5 -13 -10 -5 -4 -2)
1969/12/31/18:00:14.205,(-8 -11 -11 -17 -7 -1 -3 -4)
1969/12/31/18:00:14.211,(10 5 2 10 4 5 4 2)
1969/12/31/18:00:14.211,(-3 0 12 36 10 4 -2 -2)
1969/12/31/18:00:14.226,(-7 -2 4 11 15 1 3 -3)
1969/12/31/18:00:14.227,(8 5 2 -1 -9 -4 -1 2)
1969/12/31/18:00:14.228,(-8 -11 -11 -23 -11 -8 -8 -4)
1969/12/31/18:00:14.228,(-10 -5 -7 -17 -12 -6 -6 -11)
1969/12/31/18:00:14.239,(5 7 -1 7 6 0 1 5)
1969/12/31/18:00:14.239,(-7 -8 -2 -7 -6 -7 -11 -10)
1969/12/31/18:00:14.253,(-26 -19 1 -2 2 4 9 5)
1969/12/31/18:00:14.253,(-1 -5 -15 -3 -7 -10 -14 -18)
1969/12/31/18:00:14.261,(-2 -4 -2 13 7 -1 -1 2)
1969/12/31/18:00:14.261,(12 11 5 0 -2 1 1 3)
1969/12/31/18:00:14.268,(-12 -12 -4 3 -3 -4 -2 -6)
1969/12/31/18:00:14.268,(6 6 -2 -24 -14 2 3 6)
1969/12/31/18:00:14.282,(5 0 -5 -14 0 2 1 5)
1969/12/31/18:00:14.282,(-8 -5 1 22 15 6 -1 -4)
1969/12/31/18:00:14.297,(8 8 12 16 10 6 2 3)
1969/12/31/18:00:14.297,(1 0 5 3 7 3 3 1)
1969/12/31/18:00:14.297,(2 5 -8 -21 -15 -7 -7 -3)
1969/12/31/18:00:14.297,(4 -2 -6 -11 -16 -5 3 7)
1969/12/31/18:00:14.304,(8 6 0 9 -1 0 -1 -1)
1969/12/31/18:00:14.304,(3 -3 -1 4 6 -3 -2 2)
1969/12/31/18:00:14.317,(-17 -12 0 -3 -2 3 4 -2)
1969/12/31/18:00:14.317,(3 7 -2 -7 -2 0 0 -4)
1969/12/31/18:00:14.324,(-23 -17 -5 -5 -3 -6 -14 -21)
1969/12/31/18:00:14.324,(7 2 -9 -8 -6 -1 2 9)
1969/12/31/18:00:14.339,(7 7 6 2 -2 2 4 3)
1969/12/31/18:00:14.339,(8 0 -9 -35 -12 -6 -6 -3)
1969/12/31/18:00:14.341,(12 8 -12 -43 -42 -6 2 3)
1969/12/31/18:00:14.341,(-5 -1 10 38 19 -4 -1 0)
1969/12/31/18:00:14.352,(0 3 11 36 27 13 3 1)
1969/12/31/18:00:14.352,(-9 -4 8 26 32 11 0 -4)
1969/12/31/18:00:14.368,(3 4 1 -7 2 -2 1 4)
1969/12/31/18:00:14.368,(-2 -2 -5 -24 -26 -5 -1 -1)
1969/12/31/18:00:14.372,(10 4 -5 -15 -8 2 0 6)
1969/12/31/18:00:14.372,(-3 -2 -2 -2 3 2 0 -1)
1969/12/31/18:00:14.381,(3 1 2 5 2 1 0 2)
1969/12/31/18:00:14.381,(-6 -2 4 9 7 -2 -4 -4)
1969/12/31/18:00:14.395,(7 5 -6 -36 -18 -8 3 6)
1969/12/31/18:00:14.395,(-8 -12 -16 -11 -27 -11 -7 -6)
1969/12/31/18:00:14.397,(-2 -3 6 33 28 7 3 1)
1969/12/31/18:00:14.397,(4 11 16 41 25 9 4 1)
1969/12/31/18:00:14.416,(-10 -10 1 11 10 5 -1 -10)
1969/12/31/18:00:14.416,(1 -3 -4 -16 -20 -7 -4 -5)
1969/12/31/18:00:14.417,(-15 -16 -11 -16 -9 -5 -1 -8)
1969/12/31/18:00:14.417,(0 2 -11 -12 -8 -3 -1 8)
1969/12/31/18:00:14.429,(-4 -1 -5 -9 -5 -10 -19 -26)
1969/12/31/18:00:14.429,(-5 0 0 1 -1 -3 -3 0)
1969/12/31/18:00:14.436,(14 8 1 3 1 -1 1 5)
1969/12/31/18:00:14.436,(-17 -15 -2 -9 0 2 -1 -5)
1969/12/31/18:00:14.451,(3 0 -3 0 -2 0 2 3)
1969/12/31/18:00:14.451,(8 6 4 8 0 1 2 4)
1969/12/31/18:00:14.453,(-8 -2 3 18 11 0 -2 -3)
1969/12/31/18:00:14.453,(2 2 2 -15 -7 1 1 -2)
1969/12/31/18:00:14.472,(8 4 -3 2 1 1 2 5)
1969/12/31/18:00:14.472,(-4 -4 -3 -35 -10 0 3 -1)
1969/12/31/18:00:14.473,(14 11 7 57 11 4 9 15)
1969/12/31/18:00:14.473,(-12 -4 12 31 22 6 2 -5)
1969/12/31/18:00:14.486,(9 5 7 22 10 0 -5 3)
1969/12/31/18:00:14.486,(-21 -20 -4 -8 -4 -6 -10 -12)
1969/12/31/18:00:14.494,(12 15 -7 -42 -16 -4 -1 3)
1969/12/31/18:00:14.494,(-5 -12 -13 -22 -19 -12 -12 -12)
1969/12/31/18:00:14.507,(-1 2 1 -4 -10 -1 3 5)
1969/12/31/18:00:14.507,(-2 -1 2 8 16 3 0 -1)
1969/12/31/18:00:14.509,(-5 -4 -2 -5 -2 -2 -3 -5)
1969/12/31/18:00:14.509,(4 2 1 0 -1 1 2 3)
1969/12/31/18:00:14.529,(1 2 1 -20 -7 0 5 7)
1969/12/31/18:00:14.529,(5 2 -5 -5 -10 -4 4 4)
1969/12/31/18:00:14.530,(4 0 3 24 15 0 -1 2)
1969/12/31/18:00:14.530,(6 4 -5 -12 -2 1 2 2)
1969/12/31/18:00:14.541,(-6 -3 7 29 18 2 -5 -6)
1969/12/31/18:00:14.541,(-6 3 19 35 10 4 2 2)
1969/12/31/18:00:14.549,(-2 -2 1 -2 4 3 -2 -6)
1969/12/31/18:00:14.549,(20 4 -13 -42 -21 -5 6 17)
1969/12/31/18:00:14.563,(0 -4 -27 -77 -50 -22 -4 1)
1969/12/31/18:00:14.563,(2 1 3 45 7 -2 -1 -2)
1969/12/31/18:00:14.565,(-2 2 18 51 44 22 7 1)
1969/12/31/18:00:14.565,(-9 -4 3 6 38 19 4 -4)
1969/12/31/18:00:14.585,(-9 -5 1 10 5 5 2 -3)
1969/12/31/18:00:14.585,(2 3 -7 -43 -30 -15 -7 2)
1969/12/31/18:00:14.586,(1 -6 -11 -21 -25 -15 -5 -6)
1969/12/31/18:00:14.586,(1 2 -4 -21 -28 -11 -3 -2)
1969/12/31/18:00:14.598,(-4 -3 2 15 7 3 2 0)
1969/12/31/18:00:14.598,(3 3 6 13 28 9 3 0)
1969/12/31/18:00:14.605,(2 2 5 13 5 5 1 4)
1969/12/31/18:00:14.605,(-1 0 -2 -13 -7 -4 -4 -3)
1969/12/31/18:00:14.619,(-7 -5 -4 1 -5 -4 -4 -5)
1969/12/31/18:00:14.619,(-1 0 2 2 -5 1 3 1)
1969/12/31/18:00:14.621,(-3 -7 -3 -19 10 4 0 -1)
1969/12/31/18:00:14.621,(37 34 13 21 3 7 19 34)
1969/12/31/18:00:14.647,(-31 -27 -12 -5 -8 -14 -22 -35)
1969/12/31/18:00:14.647,(-5 -4 -12 -29 -8 -3 -3 -7)
1969/12/31/18:00:14.654,(-7 4 1 5 -2 -3 0 -4)
1969/12/31/18:00:14.654,(-15 -19 -2 11 -2 -7 -11 -8)
1969/12/31/18:00:14.655,(20 15 9 15 12 5 9 14)
1969/12/31/18:00:14.655,(5 3 -1 4 5 2 3 5)
1969/12/31/18:00:14.669,(-22 -22 -25 -66 -32 -11 -12 -17)
1969/12/31/18:00:14.669,(-3 -3 -2 26 3 -2 -5 -7)
1969/12/31/18:00:14.675,(3 5 13 28 13 7 10 8)
1969/12/31/18:00:14.675,(-10 -8 0 12 -1 -2 -5 -10)
1969/12/31/18:00:14.677,(13 9 3 -4 -4 -1 7 11)
1969/12/31/18:00:14.677,(0 0 -6 -7 3 -3 -3 -2)
1969/12/31/18:00:14.697,(-7 -3 3 11 7 12 11 6)
1969/12/31/18:00:14.697,(0 2 1 -9 -1 7 9 4)
1969/12/31/18:00:14.703,(4 -22 -8 -21 -14 -6 -7 8)
1969/12/31/18:00:14.703,(8 26 10 26 16 9 3 -7)
1969/12/31/18:00:14.710,(-9 -11 -1 -16 -15 -10 -8 -12)
1969/12/31/18:00:14.710,(-14 -20 1 31 14 0 -1 4)
1969/12/31/18:00:14.719,(0 25 5 3 8 9 9 -4)
1969/12/31/18:00:14.719,(31 8 6 -16 1 8 8 21)
1969/12/31/18:00:14.731,(27 31 -9 -19 -10 1 8 26)
1969/12/31/18:00:14.731,(-35 -43 -17 -13 -12 -17 -28 -38)
1969/12/31/18:00:14.739,(-27 -17 -8 -7 -11 -10 -3 -12)
1969/12/31/18:00:14.739,(11 -1 -1 1 -7 -4 -6 5)
1969/12/31/18:00:14.760,(-6 -24 2 17 6 3 3 2)
1969/12/31/18:00:14.760,(55 73 20 7 12 9 15 29)
1969/12/31/18:00:14.762,(-10 -11 -23 -48 -26 -13 -22 -20)
1969/12/31/18:00:14.762,(-29 -18 -2 8 -11 -11 -16 -23)
1969/12/31/18:00:14.766,(0 -3 13 47 22 5 3 4)
1969/12/31/18:00:14.766,(-22 -15 16 44 20 17 20 5)
1969/12/31/18:00:14.775,(47 56 33 25 28 22 29 36)
1969/12/31/18:00:14.775,(-2 -13 -27 -45 -21 -17 -23 -14)
1969/12/31/18:00:14.789,(-28 -10 -16 -34 -18 -12 -17 -29)
1969/12/31/18:00:14.789,(21 15 -4 -19 -4 5 9 15)
1969/12/31/18:00:14.790,(-1 9 2 8 -3 0 4 3)
1969/12/31/18:00:14.790,(-10 -10 4 15 18 6 10 5)
1969/12/31/18:00:14.817,(22 13 7 7 6 1 0 10)
1969/12/31/18:00:14.817,(-31 -22 -15 -18 -11 -12 -19 -26)
1969/12/31/18:00:14.819,(9 -7 -9 -27 -13 -5 -1 5)
1969/12/31/18:00:14.819,(-6 6 -1 -19 -8 -4 -2 -10)
1969/12/31/18:00:14.830,(-10 -26 4 83 20 7 7 4)
1969/12/31/18:00:14.830,(14 24 27 38 37 23 25 15)
1969/12/31/18:00:14.830,(12 -7 0 9 8 -4 -14 -1)
1969/12/31/18:00:14.830,(7 11 -8 -20 -11 -7 -9 -2)
1969/12/31/18:00:14.844,(-34 -22 -24 -102 -43 -18 -18 -31)
1969/12/31/18:00:14.844,(-12 1 -12 12 -6 -5 -3 -8)
1969/12/31/18:00:14.844,(3 -13 1 22 3 -4 -3 3)
1969/12/31/18:00:14.844,(-6 4 -1 -1 3 1 8 5)
1969/12/31/18:00:14.865,(8 -37 -1 -10 1 4 5 16)
1969/12/31/18:00:14.865,(7 32 0 -11 -13 -6 -8 -9)
1969/12/31/18:00:14.865,(-12 -4 -2 -19 -7 -4 -5 -7)
1969/12/31/18:00:14.865,(7 -1 -2 5 -1 12 10 4)
1969/12/31/18:00:14.886,(9 3 -12 -17 8 3 3 6)
1969/12/31/18:00:14.886,(34 35 25 64 25 12 16 21)
1969/12/31/18:00:14.886,(-27 -36 13 26 7 -3 -11 -14)
1969/12/31/18:00:14.886,(-1 41 5 13 -6 0 7 -2)
1969/12/31/18:00:14.900,(-1 14 -2 4 2 -7 -11 -10)
1969/12/31/18:00:14.900,(30 -9 -14 -37 -2 9 12 28)
1969/12/31/18:00:14.900,(-18 2 -3 10 -6 -15 -25 -36)
1969/12/31/18:00:14.900,(0 -22 -6 -24 -2 11 13 11)
1969/12/31/18:00:14.928,(7 -3 -3 -6 -6 1 8 11)
1969/12/31/18:00:14.928,(2 0 -9 -22 -8 -13 -16 -4)
1969/12/31/18:00:14.929,(-5 -1 -1 16 0 1 5 2)
1969/12/31/18:00:14.929,(-16 -26 7 30 16 3 -1 -6)
1969/12/31/18:00:14.942,(13 28 4 -6 -2 3 3 2)
1969/12/31/18:00:14.942,(-14 -27 -16 -59 -44 -14 -11 -11)
1969/12/31/18:00:14.943,(6 2 4 33 20 7 14 11)
1969/12/31/18:00:14.943,(-24 -6 21 50 33 -1 -14 -22)
1969/12/31/18:00:14.956,(14 21 14 25 19 11 13 13)
1969/12/31/18:00:14.956,(-7 -18 -11 -20 -13 -5 -8 -3)
1969/12/31/18:00:14.956,(27 21 -3 -35 -19 3 15 27)
1969/12/31/18:00:14.956,(-7 8 -3 -12 -16 -12 -16 -12)
1969/12/31/18:00:14.978,(-22 -9 -9 -10 -1 -9 -16 -25)
1969/12/31/18:00:14.978,(-8 -24 -5 -14 -3 0 1 -2)
1969/12/31/18:00:14.978,(10 24 2 -4 1 8 10 8)
1969/12/31/18:00:14.979,(-5 -15 2 -15 -13 -9 -8 -6)
1969/12/31/18:00:14.998,(-32 -23 -3 18 5 -3 -2 -10)
1969/12/31/18:00:14.998,(49 36 7 37 33 22 21 28)
1969/12/31/18:00:14.999,(-12 -24 3 29 15 6 4 2)
1969/12/31/18:00:14.999,(14 20 -1 -19 -10 1 7 11)
1969/12/31/18:00:15.011,(2 20 -4 -27 -13 -1 3 0)
1969/12/31/18:00:15.012,(-21 -20 -11 -16 -13 -9 -9 -14)
1969/12/31/18:00:15.012,(32 25 4 -12 0 5 8 15)
1969/12/31/18:00:15.012,(-13 -20 -9 -9 -2 -2 -5 -8)
1969/12/31/18:00:15.033,(21 19 14 34 15 4 9 13)
1969/12/31/18:00:15.033,(-15 -4 10 23 8 -5 -7 -10)
1969/12/31/18:00:15.034,(-19 -24 -5 -5 -7 -2 -7 -13)
1969/12/31/18:00:15.034,(12 12 4 -14 1 7 12 11)
1969/12/31/18:00:15.054,(6 10 -7 -7 -8 -8 -8 -7)
1969/12/31/18:00:15.054,(-23 -20 -8 -7 -6 -3 -5 -13)
1969/12/31/18:00:15.055,(26 9 -5 -29 -13 1 -1 5)
1969/12/31/18:00:15.055,(1 1 2 13 11 10 14 1)
1969/12/31/18:00:15.068,(11 4 -2 6 5 1 1 6)
1969/12/31/18:00:15.068,(-22 -15 -1 -4 -10 -8 -14 -19)
1969/12/31/18:00:15.068,(-13 -3 -6 5 2 -4 -4 -4)
1969/12/31/18:00:15.068,(17 10 5 4 6 4 4 19)
1969/12/31/18:00:15.089,(-3 -8 3 -9 -6 -2 -5 -3)
1969/12/31/18:00:15.090,(8 8 -2 -23 2 5 10 10)
1969/12/31/18:00:15.090,(-11 -10 -16 -46 -22 -7 -6 -7)
1969/12/31/18:00:15.090,(-9 -10 0 27 0 -5 -4 -5)
1969/12/31/18:00:15.111,(-2 5 19 63 31 6 1 0)
1969/12/31/18:00:15.111,(-7 -16 7 3 -1 -5 -12 -3)
1969/12/31/18:00:15.112,(-7 7 -4 6 5 -4 -2 -6)
1969/12/31/18:00:15.112,(19 23 -2 -25 -8 0 -5 2)
1969/12/31/18:00:15.125,(-20 -31 -16 -33 -17 -1 -3 -10)
1969/12/31/18:00:15.125,(17 13 -2 -31 -21 -5 0 3)
1969/12/31/18:00:15.126,(8 0 -2 12 15 3 5 8)
1969/12/31/18:00:15.126,(-22 -19 1 28 2 -9 -14 -16)
1969/12/31/18:00:15.145,(11 11 6 7 3 2 3 7)
1969/12/31/18:00:15.145,(-12 -6 2 -6 3 5 6 5)
1969/12/31/18:00:15.146,(-19 -4 -6 0 -5 -6 -14 -19)
1969/12/31/18:00:15.146,(30 21 4 -3 -4 1 9 19)
1969/12/31/18:00:15.174,(-10 -8 -6 -21 -7 -3 -7 -9)
1969/12/31/18:00:15.174,(-10 -14 -2 16 2 -3 -4 -5)
1969/12/31/18:00:15.175,(-1 -6 -5 -10 -4 -1 2 4)
1969/12/31/18:00:15.175,(-2 -2 10 21 18 14 20 13)
1969/12/31/18:00:15.181,(-5 -2 2 6 -5 -10 -16 -12)
1969/12/31/18:00:15.181,(-38 -46 -13 -19 -13 -11 -9 -17)
1969/12/31/18:00:15.181,(61 66 17 21 20 20 25 32)
1969/12/31/18:00:15.181,(-25 -25 -13 0 -6 -7 -17 -24)
1969/12/31/18:00:15.202,(8 -1 -5 -15 -9 2 4 6)
1969/12/31/18:00:15.202,(19 30 2 7 3 0 6 12)
1969/12/31/18:00:15.202,(-27 -23 5 12 -5 -4 -4 -13)
1969/12/31/18:00:15.202,(-4 -14 -16 -41 -12 -2 2 3)
1969/12/31/18:00:15.224,(-2 -3 1 10 -1 0 3 1)
1969/12/31/18:00:15.224,(10 18 15 50 20 -1 -6 -2)
1969/12/31/18:00:15.224,(-8 -14 -6 -9 0 4 9 5)
1969/12/31/18:00:15.224,(-7 -13 -4 -12 -7 -8 -8 -6)
1969/12/31/18:00:15.237,(-19 -16 -14 -30 -22 -13 -19 -22)
1969/12/31/18:00:15.237,(13 36 6 6 5 10 15 10)
1969/12/31/18:00:15.238,(-18 -29 -1 3 -7 -10 -18 -19)
1969/12/31/18:00:15.238,(17 11 -6 -3 5 -3 -6 -5)
1969/12/31/18:00:15.258,(15 17 -6 -25 -7 3 10 13)
1969/12/31/18:00:15.258,(-10 -4 6 30 8 0 -8 -12)
1969/12/31/18:00:15.258,(-15 -4 8 20 11 2 -1 -7)
1969/12/31/18:00:15.258,(8 6 3 -2 -6 -3 -1 9)
1969/12/31/18:00:15.280,(-10 -15 -1 -16 0 4 0 -4)
1969/12/31/18:00:15.280,(-4 0 -7 -8 -4 -4 -8 -14)
1969/12/31/18:00:15.280,(13 8 0 -16 -10 0 1 9)
1969/12/31/18:00:15.280,(-13 -11 5 8 4 -4 -4 -15)
1969/12/31/18:00:15.293,(25 33 3 2 6 4 11 20)
1969/12/31/18:00:15.293,(0 -13 -2 9 7 3 -1 1)
1969/12/31/18:00:15.293,(-6 -1 0 0 5 -6 -12 -12)
1969/12/31/18:00:15.293,(-30 -36 -6 15 -9 -5 -7 -9)
1969/12/31/18:00:15.314,(39 48 13 7 7 13 24 27)
1969/12/31/18:00:15.314,(1 -11 -10 -6 4 -4 -10 -7)
1969/12/31/18:00:15.315,(13 9 1 -1 -10 -2 2 10)
1969/12/31/18:00:15.315,(0 -2 -5 -23 -2 2 1 -3)
1969/12/31/18:00:15.336,(-4 -8 1 -11 -6 -2 3 14)
1969/12/31/18:00:15.336,(-33 -37 -4 8 -3 -10 -14 -23)
1969/12/31/18:00:15.336,(32 45 5 12 21 13 18 20)
1969/12/31/18:00:15.336,(4 -1 -1 7 3 2 1 9)
1969/12/31/18:00:15.349,(-4 -5 -2 8 2 0 -4 -3)
1969/12/31/18:00:15.349,(-10 -8 -1 -24 -16 -6 -5 -3)
1969/12/31/18:00:15.350,(25 17 -1 -16 7 16 24 23)
1969/12/31/18:00:15.350,(-11 -9 -2 5 -1 -2 -5 -10)
1969/12/31/18:00:15.371,(0 -4 7 20 -4 -5 -7 -4)
1969/12/31/18:00:15.371,(11 8 2 -13 8 8 15 14)
1969/12/31/18:00:15.371,(-19 -23 -3 18 0 -3 -4 -5)
1969/12/31/18:00:15.371,(15 20 8 15 17 8 9 9)
1969/12/31/18:00:15.392,(-10 -14 -5 -13 -8 -6 -6 -4)
1969/12/31/18:00:15.392,(26 32 5 -3 -4 -1 5 10)
1969/12/31/18:00:15.392,(-26 -22 -4 -6 -14 -12 -14 -18)
1969/12/31/18:00:15.392,(-12 1 -4 -6 -3 -2 -5 -10)
1969/12/31/18:00:15.405,(7 -12 -1 1 5 1 10 20)
1969/12/31/18:00:15.405,(24 28 -1 0 1 6 2 1)
1969/12/31/18:00:15.405,(-10 -15 -8 -12 -9 -12 -10 -5)
1969/12/31/18:00:15.405,(12 19 5 -3 -2 1 -3 -4)
1969/12/31/18:00:15.427,(-2 -4 -2 0 9 -2 -1 -2)
1969/12/31/18:00:15.427,(0 -4 -2 -4 -11 -2 4 10)
1969/12/31/18:00:15.427,(-2 3 6 3 -2 -1 -2 -5)
1969/12/31/18:00:15.427,(-15 -10 -1 10 10 1 -1 -4)
1969/12/31/18:00:15.447,(-18 -12 -15 -37 -17 -2 -4 -13)
1969/12/31/18:00:15.447,(20 9 -5 -22 5 5 11 17)
1969/12/31/18:00:15.454,(-7 3 13 81 15 -6 -12 -15)
1969/12/31/18:00:15.454,(-1 -7 8 0 6 5 7 11)
1969/12/31/18:00:15.461,(-12 -4 2 14 6 -3 -8 -19)
1969/12/31/18:00:15.461,(-7 -3 -8 -28 -13 0 -1 -2)
1969/12/31/18:00:15.462,(-3 -13 -7 -26 -9 6 13 8)
1969/12/31/18:00:15.462,(3 5 -8 -4 -4 -7 -4 1)
1969/12/31/18:00:15.482,(-2 -5 -2 6 3 2 -1 -5)
1969/12/31/18:00:15.482,(0 1 1 0 -8 -4 -5 -1)
1969/12/31/18:00:15.483,(3 2 0 -9 -1 -3 -4 -1)
1969/12/31/18:00:15.483,(2 2 -1 2 -5 -2 1 2)
1969/12/31/18:00:15.505,(-6 1 -1 -1 -4 -2 3 -3)
1969/12/31/18:00:15.505,(2 0 2 -8 -3 -2 -8 -3)
1969/12/31/18:00:15.505,(-3 -6 -6 -6 -7 -2 -5 -5)
1969/12/31/18:00:15.505,(1 0 4 16 11 2 -1 1)
1969/12/31/18:00:15.518,(-10 -3 -4 -7 0 -2 -7 -10)
1969/12/31/18:00:15.518,(7 3 15 63 35 15 13 11)
1969/12/31/18:00:15.519,(4 8 3 -18 -5 -2 1 1)
1969/12/31/18:00:15.519,(-12 -12 -11 -17 -25 -11 -9 -9)
1969/12/31/18:00:15.538,(-8 -20 0 5 2 -6 -4 0)
1969/12/31/18:00:15.539,(-4 15 1 -1 4 9 17 8)
1969/12/31/18:00:15.539,(-13 -16 -7 -11 -1 -1 -6 -6)
1969/12/31/18:00:15.539,(-5 -7 -10 -12 -7 -1 6 5)
1969/12/31/18:00:15.561,(29 20 3 4 -3 -6 -10 -2)
1969/12/31/18:00:15.561,(-15 -26 -14 -13 -11 -8 -13 -10)
1969/12/31/18:00:15.562,(18 36 5 5 4 0 -1 -1)
1969/12/31/18:00:15.562,(-19 -22 -4 -13 -9 -5 -7 -14)
1969/12/31/18:00:15.574,(28 18 2 16 18 16 19 25)
1969/12/31/18:00:15.574,(-10 -1 3 5 -2 -2 -3 -8)
1969/12/31/18:00:15.575,(-7 -7 -2 -4 3 -2 -5 -2)
1969/12/31/18:00:15.575,(6 9 3 4 -7 -1 -1 1)
1969/12/31/18:00:15.594,(-11 2 0 -1 1 1 -1 -8)
1969/12/31/18:00:15.594,(10 0 1 8 2 3 3 6)
1969/12/31/18:00:15.595,(-7 -14 -3 -6 3 4 2 0)
1969/12/31/18:00:15.595,(9 6 5 6 8 2 7 9)
1969/12/31/18:00:15.617,(18 30 7 6 -3 -1 6 7)
1969/12/31/18:00:15.617,(-26 -24 -2 2 5 0 -9 -20)
1969/12/31/18:00:15.617,(-5 -5 -6 -9 -11 -5 -5 -6)
1969/12/31/18:00:15.617,(-12 -16 -8 -8 -4 -3 -7 -6)
1969/12/31/18:00:15.630,(10 32 12 6 1 0 4 -5)
1969/12/31/18:00:15.630,(55 44 6 -3 2 11 25 40)
1969/12/31/18:00:15.631,(-9 -30 -7 0 -3 -4 -5 5)
1969/12/31/18:00:15.631,(-1 8 7 5 5 2 -7 -16)
1969/12/31/18:00:15.650,(2 -5 -8 -23 -8 7 10 12)
1969/12/31/18:00:15.650,(-15 -9 -4 -3 -11 -10 -6 -7)
1969/12/31/18:00:15.651,(-12 -10 3 18 13 -1 -5 -8)
1969/12/31/18:00:15.651,(19 7 6 6 12 12 17 20)
1969/12/31/18:00:15.672,(-4 -4 -6 -13 -10 -6 -8 -3)
1969/12/31/18:00:15.672,(-9 -9 -6 -4 -4 -12 -9 -10)
1969/12/31/18:00:15.673,(8 7 15 53 17 11 6 6)
1969/12/31/18:00:15.673,(1 11 12 14 20 8 1 -1)
1969/12/31/18:00:15.686,(-17 -26 -4 2 5 0 -8 -11)
1969/12/31/18:00:15.686,(6 13 -3 -27 -19 -4 4 8)
1969/12/31/18:00:15.687,(-11 -5 -11 -28 -18 -12 -5 -10)
1969/12/31/18:00:15.687,(36 35 2 -2 -1 10 20 29)
1969/12/31/18:00:15.707,(-20 -28 -5 1 -5 -5 -11 -14)
1969/12/31/18:00:15.707,(-3 -9 -9 -4 -5 -10 -8 -4)
1969/12/31/18:00:15.714,(-24 -16 2 -3 -2 -1 -5 -14)
1969/12/31/18:00:15.714,(15 16 0 2 -2 6 17 14)
1969/12/31/18:00:15.729,(6 -12 -6 -7 0 -2 -4 4)
1969/12/31/18:00:15.729,(-12 -11 -16 -48 -22 -8 -12 -15)
1969/12/31/18:00:15.729,(9 8 4 43 20 0 2 6)
1969/12/31/18:00:15.729,(-3 5 14 43 17 0 -5 -5)
1969/12/31/18:00:15.742,(2 10 12 34 20 6 6 3)
1969/12/31/18:00:15.742,(-4 -6 3 0 -6 -2 -6 -9)
1969/12/31/18:00:15.743,(-13 -8 -15 -51 -26 -7 -7 -11)
1969/12/31/18:00:15.743,(15 -9 -16 -23 -8 -3 1 12)
1969/12/31/18:00:15.763,(-8 9 16 22 18 21 20 5)
1969/12/31/18:00:15.763,(-12 -5 -3 10 4 -3 -7 -12)
1969/12/31/18:00:15.764,(36 14 7 -11 -1 6 18 34)
1969/12/31/18:00:15.764,(-12 13 -4 -4 -13 -18 -27 -30)
1969/12/31/18:00:15.784,(1 -5 -10 -12 -11 -9 -7 -1)
1969/12/31/18:00:15.784,(3 -6 -2 -5 14 8 5 4)
1969/12/31/18:00:15.785,(-1 0 2 15 -2 2 3 -2)
1969/12/31/18:00:15.785,(-4 -10 0 -7 -8 -3 -1 2)
1969/12/31/18:00:15.798,(-7 -9 -13 -29 -19 -11 -10 -6)
1969/12/31/18:00:15.798,(0 1 2 2 -23 -19 -3 1)
1969/12/31/18:00:15.799,(2 8 5 16 0 7 1 -1)
1969/12/31/18:00:15.799,(-10 -12 6 35 55 23 8 -4)
1969/12/31/18:00:15.819,(-3 5 10 26 42 23 3 -3)
1969/12/31/18:00:15.819,(4 -1 0 3 11 4 3 3)
1969/12/31/18:00:15.820,(8 6 -11 -48 -42 -15 -4 0)
1969/12/31/18:00:15.820,(-16 -19 -10 -13 -36 -19 -9 -9)
1969/12/31/18:00:15.840,(7 7 2 13 3 -6 -4 0)
1969/12/31/18:00:15.840,(-9 -9 7 21 11 4 -1 -5)
1969/12/31/18:00:15.841,(-11 -26 -7 -19 -5 -8 -2 2)
1969/12/31/18:00:15.841,(7 44 -2 -21 -7 1 -1 -9)
1969/12/31/18:00:15.854,(-11 -16 -12 -11 -16 -16 -20 -25)
1969/12/31/18:00:15.854,(4 1 2 12 6 6 4 4)
1969/12/31/18:00:15.861,(0 -3 -2 1 5 1 -4 -1)
1969/12/31/18:00:15.861,(-4 -12 -6 -14 -7 -4 0 4)
1969/12/31/18:00:15.875,(7 8 3 1 -7 -2 4 9)
1969/12/31/18:00:15.875,(3 3 -2 -6 -3 3 2 0)
1969/12/31/18:00:15.876,(-12 -4 -11 -21 8 1 -4 -11)
1969/12/31/18:00:15.876,(1 -8 7 23 -4 -1 2 3)
1969/12/31/18:00:15.897,(-2 4 11 31 10 1 1 -1)
1969/12/31/18:00:15.897,(7 16 11 12 9 -1 -4 2)
1969/12/31/18:00:15.898,(1 0 -9 -10 8 6 6 3)
1969/12/31/18:00:15.898,(-4 -21 -12 -42 -22 -8 -7 -5)
1969/12/31/18:00:15.910,(23 35 -3 3 -8 -2 12 25)
1969/12/31/18:00:15.910,(-36 -25 4 31 15 0 -11 -24)
1969/12/31/18:00:15.917,(15 35 17 10 6 1 -3 -6)
1969/12/31/18:00:15.917,(0 -4 -6 -12 -6 -5 -3 -3)
1969/12/31/18:00:15.932,(6 -8 -11 -16 -11 -2 0 3)
1969/12/31/18:00:15.932,(-9 -17 -8 -9 -8 -5 -1 2)
1969/12/31/18:00:15.932,(53 54 20 18 17 18 22 36)
1969/12/31/18:00:15.932,(-15 -22 -8 -7 -6 -6 -6 -9)
1969/12/31/18:00:15.960,(-1 -6 0 -17 -19 -11 -1 1)
1969/12/31/18:00:15.960,(-3 -1 -17 -54 -55 -21 -6 -4)
1969/12/31/18:00:15.961,(-20 -23 -4 16 27 9 -3 -14)
1969/12/31/18:00:15.961,(4 7 23 68 58 36 15 10)
1969/12/31/18:00:15.966,(0 2 13 27 54 29 11 4)
1969/12/31/18:00:15.966,(5 8 6 4 1 3 2 2)
1969/12/31/18:00:15.973,(-9 -9 -7 -22 -39 -22 -10 -8)
1969/12/31/18:00:15.973,(2 -4 -10 -30 -32 -19 -5 0)
1969/12/31/18:00:15.995,(-11 -9 -8 -14 -19 -12 -5 -9)
1969/12/31/18:00:15.996,(7 1 -2 1 5 1 1 3)
1969/12/31/18:00:15.996,(2 -2 -5 -6 -5 -7 -3 1)
1969/12/31/18:00:15.996,(-20 -1 2 5 5 6 3 -10)
1969/12/31/18:00:16.009,(6 -2 -2 -14 -16 -6 -1 2)
1969/12/31/18:00:16.009,(-3 2 -2 11 14 8 1 -2)
1969/12/31/18:00:16.010,(-5 -5 2 15 11 -1 -13 -21)
1969/12/31/18:00:16.010,(-1 -3 -3 -5 -5 -4 -5 -2)
1969/12/31/18:00:16.022,(-5 -6 -6 -9 -9 -5 -4 -2)
1969/12/31/18:00:16.022,(0 -4 -11 -40 -16 -4 0 5)
1969/12/31/18:00:16.037,(-2 -5 -6 0 -9 -1 5 4)
1969/12/31/18:00:16.037,(0 -2 5 24 5 1 0 1)
1969/12/31/18:00:16.043,(3 5 12 26 35 15 3 -3)
1969/12/31/18:00:16.043,(10 11 13 25 21 9 5 8)
1969/12/31/18:00:16.044,(-11 -4 4 8 -9 -6 -3 -6)
1969/12/31/18:00:16.044,(-15 -10 -6 -20 -11 -12 -12 -15)
1969/12/31/18:00:16.066,(11 7 -5 -16 -18 -2 12 23)
1969/12/31/18:00:16.066,(-17 -18 -11 -3 -5 -6 -13 -11)
1969/12/31/18:00:16.066,(24 38 9 -3 12 17 19 13)
1969/12/31/18:00:16.066,(11 2 -7 -6 -6 -4 -2 3)
1969/12/31/18:00:16.078,(-3 -1 -6 -8 -7 -6 -7 -6)
1969/12/31/18:00:16.078,(-10 -13 4 6 0 -6 -7 -9)
1969/12/31/18:00:16.086,(-11 -13 0 4 4 5 6 6)
1969/12/31/18:00:16.086,(9 7 1 -2 1 0 -3 2)
1969/12/31/18:00:16.100,(-6 -10 -2 -4 -1 2 1 -1)
1969/12/31/18:00:16.100,(24 21 6 7 4 6 9 16)
1969/12/31/18:00:16.101,(-16 -13 -6 3 -1 -7 -12 -14)
1969/12/31/18:00:16.101,(5 5 -1 -16 -4 1 6 4)
1969/12/31/18:00:16.121,(-7 -6 -2 -18 -14 -7 -6 -8)
1969/12/31/18:00:16.121,(9 13 21 22 1 9 14 9)
1969/12/31/18:00:16.122,(8 6 -10 34 12 -7 -9 1)
1969/12/31/18:00:16.122,(-17 -35 -25 -20 8 -11 -14 -13)
1969/12/31/18:00:16.143,(-13 -12 -9 -75 -49 -21 -9 -12)
1969/12/31/18:00:16.143,(8 15 17 42 -4 9 7 2)
1969/12/31/18:00:16.144,(9 8 26 70 61 49 24 11)
1969/12/31/18:00:16.144,(9 11 -4 33 58 16 1 6)
1969/12/31/18:00:16.156,(-4 -11 -17 -5 -5 -20 -10 -6)
1969/12/31/18:00:16.156,(-20 -18 -12 -67 -40 -17 -12 -15)
1969/12/31/18:00:16.164,(3 3 8 -22 -36 -11 3 4)
1969/12/31/18:00:16.164,(4 12 28 14 -20 -8 2 1)
1969/12/31/18:00:16.177,(7 4 -24 -16 -2 6 4 5)
1969/12/31/18:00:16.177,(3 -7 -32 -11 10 1 -5 -2)
1969/12/31/18:00:16.179,(-15 -18 -12 2 21 7 -6 -6)
1969/12/31/18:00:16.179,(3 15 49 13 7 14 15 9)
1969/12/31/18:00:16.199,(-5 -5 -29 -28 -22 -29 -17 -8)
1969/12/31/18:00:16.199,(0 -9 -1 -8 -57 -22 -3 2)
1969/12/31/18:00:16.201,(-17 -8 1 37 45 9 -7 -9)
1969/12/31/18:00:16.201,(9 11 6 7 24 23 14 8)
1969/12/31/18:00:16.219,(8 18 48 53 23 25 14 7)
1969/12/31/18:00:16.219,(14 12 -18 -12 16 2 -2 5)
1969/12/31/18:00:16.221,(1 -13 -15 -29 -40 -21 -6 0)
1969/12/31/18:00:16.221,(-14 -12 3 -10 -23 -10 -7 -7)
1969/12/31/18:00:16.233,(-1 1 -11 13 17 12 2 -4)
1969/12/31/18:00:16.233,(1 5 12 4 23 13 6 1)
1969/12/31/18:00:16.235,(5 6 9 -19 -17 -8 -3 1)
1969/12/31/18:00:16.235,(7 0 -16 -21 -22 -13 -7 1)
1969/12/31/18:00:16.255,(-8 -18 -23 -2 -10 -5 -3 -3)
1969/12/31/18:00:16.255,(-4 -2 9 12 16 -1 1 -2)
1969/12/31/18:00:16.256,(-7 -10 -16 -14 -22 -13 -8 -7)
1969/12/31/18:00:16.256,(-3 -1 2 -11 8 2 2 1)
1969/12/31/18:00:16.268,(-4 4 14 18 10 10 1 -1)
1969/12/31/18:00:16.268,(-1 0 -3 10 18 9 1 -1)
1969/12/31/18:00:16.276,(-1 0 5 2 -3 0 3 1)
1969/12/31/18:00:16.276,(0 -2 -6 -18 -17 -2 1 0)
1969/12/31/18:00:16.291,(6 6 10 18 2 -1 -2 3)
1969/12/31/18:00:16.291,(5 3 3 6 10 -2 0 4)
1969/12/31/18:00:16.291,(-4 -3 -9 -27 -11 -5 -2 -3)
1969/12/31/18:00:16.291,(-1 -3 -13 -3 -6 -6 -5 -1)
1969/12/31/18:00:16.311,(-3 -2 17 9 4 6 2 -3)
1969/12/31/18:00:16.311,(6 3 -9 21 14 3 -1 2)
1969/12/31/18:00:16.312,(-1 -7 0 -18 -2 -1 -3 -1)
1969/12/31/18:00:16.313,(-10 -6 -2 0 -11 -8 -6 -5)
1969/12/31/18:00:16.324,(-2 -2 -1 1 1 2 0 -2)
1969/12/31/18:00:16.324,(-1 3 5 -1 0 0 0 -1)
1969/12/31/18:00:16.333,(8 9 6 -13 -4 4 6 5)
1969/12/31/18:00:16.333,(5 1 -17 23 4 -3 -5 2)
1969/12/31/18:00:16.347,(-13 -11 11 -19 -4 -2 -6 -7)
1969/12/31/18:00:16.347,(-4 -2 -2 5 -1 -2 -1 -1)
1969/12/31/18:00:16.348,(1 3 4 -2 4 0 1 2)
1969/12/31/18:00:16.348,(1 0 -6 -12 -11 0 2 1)
1969/12/31/18:00:16.367,(2 5 0 9 7 3 -1 -2)
1969/12/31/18:00:16.367,(0 -5 -3 0 -4 -7 -1 0)
1969/12/31/18:00:16.368,(-5 -3 -2 -6 -10 -9 -6 -5)
1969/12/31/18:00:16.368,(3 2 0 0 4 9 6 3)
1969/12/31/18:00:16.380,(2 3 8 15 -2 0 0 -1)
1969/12/31/18:00:16.380,(8 7 3 5 11 4 0 3)
1969/12/31/18:00:16.389,(1 4 3 -14 -2 0 0 1)
1969/12/31/18:00:16.389,(-2 -2 1 1 -7 -1 1 -2)
1969/12/31/18:00:16.402,(-3 -6 2 1 3 2 1 0)
1969/12/31/18:00:16.402,(-5 -2 2 -13 -4 3 -3 -5)
1969/12/31/18:00:16.404,(1 2 -2 20 -2 -9 -5 0)
1969/12/31/18:00:16.404,(2 1 7 0 7 -7 0 3)
1969/12/31/18:00:16.423,(-8 -7 -17 -21 -4 0 2 -6)
1969/12/31/18:00:16.423,(6 3 2 18 4 -1 9 9)
1969/12/31/18:00:16.424,(-10 -11 -7 -17 -23 -6 -3 -8)
1969/12/31/18:00:16.424,(4 -3 -17 1 16 1 5 6)
1969/12/31/18:00:16.436,(-9 -9 -4 -12 -13 -11 -8 -6)
1969/12/31/18:00:16.436,(2 15 36 39 21 14 1 0)
1969/12/31/18:00:16.445,(7 1 -18 -13 -1 4 -4 3)
1969/12/31/18:00:16.445,(3 0 -31 -40 -22 0 -5 -4)
1969/12/31/18:00:16.459,(15 15 31 46 18 -1 -2 5)
1969/12/31/18:00:16.459,(-6 -12 -7 -27 -12 -4 -2 -3)
1969/12/31/18:00:16.460,(-6 0 7 4 2 -2 0 -3)
1969/12/31/18:00:16.460,(-4 -2 7 12 10 -3 2 2)
1969/12/31/18:00:16.480,(-6 -6 -16 -22 -10 -7 0 -2)
1969/12/31/18:00:16.480,(-3 -4 -13 -18 -15 -9 -1 -4)
1969/12/31/18:00:16.480,(-5 -4 3 21 10 -3 5 -1)
1969/12/31/18:00:16.480,(-13 -14 -5 -19 -15 -4 -1 -9)
1969/12/31/18:00:16.493,(0 -4 -8 12 7 5 10 5)
1969/12/31/18:00:16.493,(-8 -6 2 5 3 1 -4 -8)
1969/12/31/18:00:16.501,(2 0 -15 -19 -4 1 -2 -1)
1969/12/31/18:00:16.501,(-5 2 13 8 -5 1 -13 -11)
1969/12/31/18:00:16.514,(23 16 -4 8 7 11 2 8)
1969/12/31/18:00:16.514,(1 -2 -8 -8 -4 -1 -3 -8)
1969/12/31/18:00:16.516,(4 4 4 -3 -1 1 -1 -7)
1969/12/31/18:00:16.516,(3 9 17 17 3 2 -3 -9)
1969/12/31/18:00:16.543,(-3 -1 4 1 4 2 -4 -8)
1969/12/31/18:00:16.543,(2 -2 -5 -9 -1 -2 -5 -5)
1969/12/31/18:00:16.544,(3 3 5 6 3 -1 1 2)
1969/12/31/18:00:16.545,(2 1 6 -1 -5 -5 -2 7)
1969/12/31/18:00:16.548,(3 1 0 -1 4 3 1 10)
1969/12/31/18:00:16.548,(6 5 -1 -2 -2 0 0 11)
1969/12/31/18:00:16.556,(-4 -3 4 4 2 1 -2 4)
1969/12/31/18:00:16.556,(1 -3 -3 0 1 -4 9 -9)
1969/12/31/18:00:16.571,(-6 -3 -1 -3 -2 -5 2 8)
1969/12/31/18:00:16.571,(-6 -4 -8 -2 -1 -1 3 10)
1969/12/31/18:00:16.572,(-6 -6 -1 -1 -12 -1 1 6)
1969/12/31/18:00:16.572,(-6 -6 -2 1 12 4 -2 10)
1969/12/31/18:00:16.592,(2 0 -1 -1 -5 1 -1 1)
1969/12/31/18:00:16.592,(5 1 -4 -5 -3 3 6 9)
1969/12/31/18:00:16.594,(0 -3 -1 -2 1 -4 -7 7)
1969/12/31/18:00:16.594,(-4 -4 0 4 -2 -1 1 6)
1969/12/31/18:00:16.605,(-13 -9 4 3 0 -5 -6 -5)
1969/12/31/18:00:16.605,(-7 -3 2 0 1 -3 -4 1)
1969/12/31/18:00:16.612,(-1 -2 -8 -7 -6 -2 3 0)
1969/12/31/18:00:16.612,(4 -1 -3 0 -10 0 1 1)
1969/12/31/18:00:16.626,(-2 0 -1 3 21 0 -1 -7)
1969/12/31/18:00:16.627,(-2 1 1 -1 -5 -4 1 -4)
1969/12/31/18:00:16.628,(-2 -3 1 7 6 1 -1 -9)
1969/12/31/18:00:16.628,(-2 0 -3 -2 -7 -2 -3 -7)
1969/12/31/18:00:16.648,(-3 0 -4 -7 -10 1 1 -2)
1969/12/31/18:00:16.648,(-4 -1 2 0 0 0 -1 -8)
1969/12/31/18:00:16.650,(11 3 0 6 11 5 6 4)
1969/12/31/18:00:16.650,(-3 -6 -15 -18 -12 -3 -3 -9)
1969/12/31/18:00:16.670,(5 4 0 0 -6 -11 -8 -1)
1969/12/31/18:00:16.670,(1 9 9 12 5 5 0 -1)
1969/12/31/18:00:16.671,(-12 -8 10 16 23 9 1 -6)
1969/12/31/18:00:16.672,(-4 -1 3 1 1 0 -1 1)
1969/12/31/18:00:16.675,(3 -5 -8 -7 -8 2 3 0)
1969/12/31/18:00:16.675,(-3 -5 -4 -7 -8 -6 -5 -6)
1969/12/31/18:00:16.683,(5 3 -3 -6 -8 -6 0 0)
1969/12/31/18:00:16.683,(6 6 0 4 2 2 1 1)
1969/12/31/18:00:16.704,(-8 -1 2 -4 -4 -3 -8 -13)
1969/12/31/18:00:16.704,(-8 -6 -3 2 3 2 6 -1)
1969/12/31/18:00:16.705,(16 9 3 -1 0 6 13 25)
1969/12/31/18:00:16.705,(-2 -3 -3 -2 -2 -7 -12 -7)
1969/12/31/18:00:16.710,(3 3 0 2 -3 5 4 6)
1969/12/31/18:00:16.710,(-1 -3 -2 -1 2 -1 -8 -6)
1969/12/31/18:00:16.718,(-6 2 1 -4 -7 -7 -2 -9)
1969/12/31/18:00:16.718,(2 0 2 1 0 2 7 6)
1969/12/31/18:00:16.731,(0 -2 -1 3 2 3 3 1)
1969/12/31/18:00:16.731,(5 3 0 4 5 1 0 3)
1969/12/31/18:00:16.739,(-4 -2 -3 -5 -4 -5 -3 -2)
1969/12/31/18:00:16.739,(6 5 5 5 1 -1 3 6)
1969/12/31/18:00:16.753,(-5 -3 0 -1 -3 -3 -2 -4)
1969/12/31/18:00:16.753,(0 -2 1 -2 0 0 1 2)
1969/12/31/18:00:16.754,(-3 -1 -5 -5 -5 -2 -3 -4)
1969/12/31/18:00:16.754,(-2 0 -3 0 0 -1 -2 -3)
1969/12/31/18:00:16.766,(0 0 0 4 4 2 -1 1)
1969/12/31/18:00:16.766,(3 1 4 0 -2 -1 5 3)
1969/12/31/18:00:16.773,(-1 1 1 1 0 -1 -6 -6)
1969/12/31/18:00:16.773,(-8 -6 1 -1 2 1 1 -3)
1969/12/31/18:00:16.787,(8 9 4 -10 -15 3 13 11)
1969/12/31/18:00:16.787,(5 -3 -14 0 5 -9 -13 -2)
1969/12/31/18:00:16.795,(-14 -11 5 -2 -6 -3 -8 -11)
1969/12/31/18:00:16.795,(-1 1 5 11 7 2 1 0)
1969/12/31/18:00:16.809,(-1 1 3 3 3 0 0 -1)
1969/12/31/18:00:16.809,(-2 0 1 -3 -5 -2 -2 -1)
1969/12/31/18:00:16.810,(1 1 -4 -5 -2 -2 -1 -3)
1969/12/31/18:00:16.810,(-5 -2 -2 -3 -3 -6 -10 -8)
1969/12/31/18:00:16.822,(3 0 -1 -2 -1 3 12 13)
1969/12/31/18:00:16.822,(3 0 0 -3 -2 4 6 6)
1969/12/31/18:00:16.829,(0 0 -2 0 0 -4 -3 -3)
1969/12/31/18:00:16.829,(1 -1 2 1 -2 0 -3 -3)
1969/12/31/18:00:16.844,(-4 -2 -1 3 6 1 -2 -6)
1969/12/31/18:00:16.844,(-3 -2 2 1 0 0 1 -1)
1969/12/31/18:00:16.851,(0 0 0 1 -1 2 2 2)
1969/12/31/18:00:16.851,(2 4 0 -5 -4 -3 0 0)
1969/12/31/18:00:16.864,(1 -4 -7 -8 -6 -4 -1 2)
1969/12/31/18:00:16.864,(5 7 5 9 3 -3 -4 -2)
1969/12/31/18:00:16.873,(-1 0 6 2 6 6 3 2)
1969/12/31/18:00:16.873,(-2 -3 -1 -1 1 1 0 -1)
1969/12/31/18:00:16.878,(-2 -1 0 0 0 -3 -4 -2)
1969/12/31/18:00:16.878,(-2 -2 1 -2 -2 0 1 -2)
1969/12/31/18:00:16.887,(1 -1 -8 -1 -2 -3 -3 -2)
1969/12/31/18:00:16.887,(5 -1 -2 1 2 3 6 8)
1969/12/31/18:00:16.900,(-2 0 1 0 1 -1 -1 -3)
1969/12/31/18:00:16.900,(-4 -3 -3 0 -2 -2 -2 -3)
1969/12/31/18:00:16.907,(0 1 0 -3 -3 -3 1 -1)
1969/12/31/18:00:16.908,(-2 -1 0 -1 0 0 1 1)
1969/12/31/18:00:16.920,(1 -1 1 1 1 0 -3 -5)
1969/12/31/18:00:16.920,(-1 -1 1 0 0 1 -3 -2)
1969/12/31/18:00:16.936,(3 2 -1 1 -1 0 1 4)
1969/12/31/18:00:16.936,(-1 -2 -4 -4 -3 -2 -1 1)
1969/12/31/18:00:16.937,(-4 -3 0 1 1 -2 -8 -6)
1969/12/31/18:00:16.937,(-3 -3 1 -1 3 3 1 1)
1969/12/31/18:00:16.943,(-1 -2 0 -2 -1 -1 -1 0)
1969/12/31/18:00:16.943,(1 1 0 -3 -3 -3 0 0)
1969/12/31/18:00:16.943,(-1 -1 -11 -32 -17 -8 -5 -3)
1969/12/31/18:00:16.943,(-5 -10 -25 -53 -36 -7 -3 -6)
1969/12/31/18:00:16.943,(6 2 -5 32 19 5 0 5)
1969/12/31/18:00:16.944,(1 9 30 15 16 3 2 2)
1969/12/31/18:00:16.956,(7 5 -11 9 15 -1 -2 2)
1969/12/31/18:00:16.956,(-4 -14 1 -12 -14 4 5 2)
1969/12/31/18:00:16.957,(-16 -9 16 -6 -1 -14 -10 -10)
1969/12/31/18:00:16.957,(5 4 -20 -13 19 5 0 4)
1969/12/31/18:00:16.977,(7 10 -1 -49 -55 -11 -3 1)
1969/12/31/18:00:16.977,(12 9 -12 31 26 2 5 7)
1969/12/31/18:00:16.978,(2 1 14 25 15 9 2 -1)
1969/12/31/18:00:16.978,(-15 -17 2 13 -2 -3 -6 -11)
1969/12/31/18:00:16.999,(-6 -4 10 4 -2 1 3 0)
1969/12/31/18:00:16.999,(0 6 -6 -12 -12 -8 -7 -4)
1969/12/31/18:00:16.999,(0 -5 -14 -18 -5 -4 -3 -3)
1969/12/31/18:00:16.999,(5 7 4 -30 -27 -8 -2 -1)
1969/12/31/18:00:17.012,(-1 1 -14 1 5 3 3 2)
1969/12/31/18:00:17.012,(-1 2 6 34 22 6 -1 -2)
1969/12/31/18:00:17.013,(-6 -11 -1 -18 -8 0 3 0)
1969/12/31/18:00:17.013,(7 12 11 0 -2 -5 -1 4)
1969/12/31/18:00:17.033,(1 1 36 76 35 10 0 1)
1969/12/31/18:00:17.033,(-8 -6 11 8 -1 1 5 -1)
1969/12/31/18:00:17.034,(1 -1 -13 7 18 6 -1 2)
1969/12/31/18:00:17.034,(-18 -20 -32 -41 -28 -10 -10 -10)
1969/12/31/18:00:17.054,(5 7 -10 -47 -28 -8 2 5)
1969/12/31/18:00:17.054,(5 3 -6 -25 -10 -3 2 4)
1969/12/31/18:00:17.055,(1 -1 -1 8 16 0 -4 -3)
1969/12/31/18:00:17.055,(7 7 9 1 -5 0 5 5)
1969/12/31/18:00:17.068,(-6 -5 16 30 13 7 2 -2)
1969/12/31/18:00:17.068,(2 3 1 8 -2 -9 -7 -3)
1969/12/31/18:00:17.068,(-2 -6 -28 -84 -48 -15 -1 0)
1969/12/31/18:00:17.068,(3 3 -5 -10 19 14 0 2)
1969/12/31/18:00:17.090,(-9 -9 25 96 19 2 -1 -5)
1969/12/31/18:00:17.090,(-4 1 14 5 22 5 -2 0)
1969/12/31/18:00:17.091,(-6 0 -9 22 0 -6 -6 -5)
1969/12/31/18:00:17.091,(3 -5 -17 -36 -18 -8 3 2)
1969/12/31/18:00:17.111,(2 0 -16 -41 -11 -2 -3 -3)
1969/12/31/18:00:17.111,(-9 -11 -9 -40 -17 -3 -6 -7)
1969/12/31/18:00:17.111,(2 10 18 5 -9 2 3 2)
1969/12/31/18:00:17.111,(8 9 10 72 34 11 9 6)
1969/12/31/18:00:17.124,(-8 -12 -21 -28 -11 -9 -3 -5)
1969/12/31/18:00:17.124,(6 1 -13 -61 -26 -8 -3 1)
1969/12/31/18:00:17.125,(3 3 8 39 9 2 0 2)
1969/12/31/18:00:17.125,(-3 -1 15 26 9 3 0 0)
1969/12/31/18:00:17.146,(-4 -1 2 26 24 6 1 -2)
1969/12/31/18:00:17.146,(-6 -5 -8 -14 0 -1 -1 -5)
1969/12/31/18:00:17.147,(4 2 -3 -35 -31 -3 -1 2)
1969/12/31/18:00:17.147,(3 2 6 18 7 3 1 0)
1969/12/31/18:00:17.167,(-5 -6 -20 -31 -8 -8 -5 -4)
1969/12/31/18:00:17.167,(4 4 -7 -32 -18 0 3 2)
1969/12/31/18:00:17.168,(6 7 13 40 -3 4 4 3)
1969/12/31/18:00:17.168,(-7 -7 -3 -17 18 3 -4 -4)
1969/12/31/18:00:17.180,(-2 2 11 34 5 -1 2 0)
1969/12/31/18:00:17.180,(-3 -3 2 16 4 -2 -3 -4)
1969/12/31/18:00:17.181,(2 -1 -1 -4 4 0 0 1)
1969/12/31/18:00:17.181,(-4 -4 -6 -13 -16 -5 -4 -3)
1969/12/31/18:00:17.202,(0 -1 -8 -24 -8 0 0 -1)
1969/12/31/18:00:17.202,(2 6 14 35 9 3 2 3)
1969/12/31/18:00:17.203,(-4 -3 -1 3 10 1 -1 -2)
1969/12/31/18:00:17.203,(-1 -1 -4 -17 -12 -4 0 2)
1969/12/31/18:00:17.223,(0 -1 -2 -9 3 2 -1 0)
1969/12/31/18:00:17.223,(2 0 2 20 12 -1 -1 1)
1969/12/31/18:00:17.223,(0 0 -1 -21 -3 0 -1 1)
1969/12/31/18:00:17.223,(-5 -5 -3 7 -1 1 -5 -3)
1969/12/31/18:00:17.236,(0 -1 -2 -8 2 -1 1 0)
1969/12/31/18:00:17.236,(-1 0 -1 5 0 1 -1 1)
1969/12/31/18:00:17.244,(0 0 -1 -15 -2 -3 1 1)
1969/12/31/18:00:17.244,(-3 0 2 19 1 1 -1 -3)
1969/12/31/18:00:17.256,(1 -1 1 -3 -2 -2 -4 -2)
1969/12/31/18:00:17.256,(-4 -5 -7 -5 0 1 -2 -2)
1969/12/31/18:00:17.266,(1 0 -1 -17 -21 -2 -1 -1)
1969/12/31/18:00:17.266,(1 2 5 18 24 5 2 2)
1969/12/31/18:00:17.280,(-2 -1 0 7 1 -2 -5 -3)
1969/12/31/18:00:17.280,(0 -2 -5 -17 -11 -4 1 3)
1969/12/31/18:00:17.280,(4 3 3 4 4 0 2 1)
1969/12/31/18:00:17.280,(-3 -1 0 13 0 -4 -3 -3)
1969/12/31/18:00:17.292,(2 2 -7 -28 -11 -3 3 0)
1969/12/31/18:00:17.292,(-3 1 1 5 -1 1 2 1)
1969/12/31/18:00:17.300,(-3 -1 2 15 12 4 -3 -1)
1969/12/31/18:00:17.300,(-1 -2 -4 -3 -5 -2 0 1)
1969/12/31/18:00:17.314,(0 -1 -2 -9 -2 1 0 -1)
1969/12/31/18:00:17.314,(2 2 2 10 0 -1 1 -2)
1969/12/31/18:00:17.315,(-7 -7 -3 3 11 3 2 2)
1969/12/31/18:00:17.315,(11 6 -3 -7 -7 -1 7 11)
1969/12/31/18:00:17.335,(0 5 4 -5 0 1 -9 -13)
1969/12/31/18:00:17.335,(-10 -5 0 16 4 -4 -10 -15)
1969/12/31/18:00:17.337,(-5 -2 -1 -2 3 -2 -3 -3)
1969/12/31/18:00:17.337,(-5 -9 -1 3 -4 0 3 3)
1969/12/31/18:00:17.348,(26 12 -7 -15 -4 -5 5 21)
1969/12/31/18:00:17.348,(1 6 -4 -7 3 0 1 -4)
1969/12/31/18:00:17.356,(-17 -14 -12 -51 -32 -10 -12 -20)
1969/12/31/18:00:17.356,(-7 1 15 76 33 9 1 -5)
1969/12/31/18:00:17.370,(-18 -8 10 38 32 13 1 -3)
1969/12/31/18:00:17.370,(23 9 4 -1 1 5 9 19)
1969/12/31/18:00:17.372,(3 -2 -7 -18 -5 -3 5 11)
1969/12/31/18:00:17.372,(3 -4 -9 -27 -38 -13 -2 0)
1969/12/31/18:00:17.393,(-28 -3 2 -2 7 9 -1 -26)
1969/12/31/18:00:17.393,(-16 -10 -5 5 2 -9 -17 -20)
1969/12/31/18:00:17.397,(5 2 -1 2 4 3 1 7)
1969/12/31/18:00:17.397,(-4 -12 -11 -25 -9 -5 -6 -3)
1969/12/31/18:00:17.404,(4 -3 1 5 -5 -1 5 15)
1969/12/31/18:00:17.404,(20 15 -8 -21 -9 1 6 12)
1969/12/31/18:00:17.412,(-13 -1 1 -2 -9 -5 -10 -14)
1969/12/31/18:00:17.412,(13 10 9 36 26 6 5 5)
1969/12/31/18:00:17.426,(-10 -5 6 10 5 -2 0 -3)
1969/12/31/18:00:17.426,(3 -5 1 -5 -7 0 4 10)
1969/12/31/18:00:17.432,(11 8 -4 -1 5 3 3 1)
1969/12/31/18:00:17.432,(-7 -1 4 -15 -7 -3 -5 -6)
1969/12/31/18:00:17.448,(-9 -7 -11 -26 -19 -12 -8 -4)
1969/12/31/18:00:17.448,(7 -16 0 11 3 3 10 12)
1969/12/31/18:00:17.449,(-2 9 9 21 10 -4 -14 -22)
1969/12/31/18:00:17.449,(-26 -15 -6 -14 -3 2 2 0)
1969/12/31/18:00:17.460,(51 25 8 0 0 0 -2 5)
1969/12/31/18:00:17.460,(1 0 -10 -12 -10 -10 -7 3)
1969/12/31/18:00:17.469,(-3 -1 3 16 12 7 7 5)
1969/12/31/18:00:17.469,(23 14 -3 -16 -14 -5 -3 -2)
1969/12/31/18:00:17.483,(-18 -9 -6 -18 -9 -7 -5 0)
1969/12/31/18:00:17.483,(-4 4 2 -10 -6 3 3 -1)
1969/12/31/18:00:17.484,(6 0 7 28 26 1 0 3)
1969/12/31/18:00:17.484,(-10 -1 8 27 3 3 -2 -3)
1969/12/31/18:00:17.503,(9 3 -1 -10 3 9 14 11)
1969/12/31/18:00:17.503,(-19 -7 6 16 10 -1 -10 -14)
1969/12/31/18:00:17.505,(-33 -28 -11 -14 -8 -4 -4 1)
1969/12/31/18:00:17.505,(45 47 10 -5 6 11 15 7)
1969/12/31/18:00:17.525,(2 -7 -18 -20 -19 -13 -13 -8)
1969/12/31/18:00:17.525,(14 24 -6 -8 -6 -3 1 0)
1969/12/31/18:00:17.527,(-19 -21 4 8 3 2 8 5)
1969/12/31/18:00:17.527,(-8 -24 -7 -26 -5 -7 -4 -3)
1969/12/31/18:00:17.539,(-5 -6 -6 24 -3 -1 -1 -1)
1969/12/31/18:00:17.539,(7 10 8 9 18 11 8 3)
1969/12/31/18:00:17.541,(11 3 -5 0 -2 1 6 12)
1969/12/31/18:00:17.541,(-25 -14 -4 -20 -20 -14 -11 -12)
1969/12/31/18:00:17.560,(26 19 -1 -10 -23 -3 5 6)
1969/12/31/18:00:17.560,(-16 -11 -1 3 12 -8 -6 -2)
1969/12/31/18:00:17.561,(25 21 1 3 16 20 10 7)
1969/12/31/18:00:17.561,(-8 -4 4 21 43 13 2 -2)
1969/12/31/18:00:17.572,(-15 -8 7 11 15 2 -3 -5)
1969/12/31/18:00:17.572,(-9 -7 -10 -5 -17 -3 0 -1)
1969/12/31/18:00:17.581,(26 12 -8 -47 -29 -13 6 17)
1969/12/31/18:00:17.581,(-41 -11 11 40 -12 -6 -13 -30)
1969/12/31/18:00:17.595,(13 -1 0 11 20 5 -1 7)
1969/12/31/18:00:17.595,(-8 2 13 13 13 19 18 -5)
1969/12/31/18:00:17.596,(16 5 -8 -13 -11 -12 -9 11)
1969/12/31/18:00:17.596,(19 3 -10 -22 -10 2 5 8)
1969/12/31/18:00:17.616,(-9 -2 -4 -10 -11 -9 -4 -5)
1969/12/31/18:00:17.616,(-5 -11 -1 -12 -7 -4 -4 -1)
1969/12/31/18:00:17.622,(-5 -6 -1 5 -3 3 5 -5)
1969/12/31/18:00:17.622,(2 6 -4 -22 -22 -11 -2 5)
1969/12/31/18:00:17.629,(-14 -11 2 6 4 1 -2 -5)
1969/12/31/18:00:17.629,(6 3 9 30 46 19 2 -1)
1969/12/31/18:00:17.637,(-1 5 11 33 11 10 6 1)
1969/12/31/18:00:17.637,(17 7 1 10 3 -7 -7 6)
1969/12/31/18:00:17.650,(-41 -20 -5 -23 -13 0 0 -15)
1969/12/31/18:00:17.650,(16 6 2 -18 -23 -9 3 6)
1969/12/31/18:00:17.657,(20 20 -8 -2 -7 -13 -15 -9)
1969/12/31/18:00:17.657,(-10 -7 -9 -26 -3 1 -1 -9)
1969/12/31/18:00:17.672,(10 -3 -3 13 0 1 4 8)
1969/12/31/18:00:17.672,(-7 3 9 11 1 0 -4 -4)
1969/12/31/18:00:17.673,(-24 -16 5 16 5 -3 -14 -16)
1969/12/31/18:00:17.673,(15 4 -10 -26 -7 -2 6 12)
1969/12/31/18:00:17.685,(-3 2 2 -3 -2 -3 0 -1)
1969/12/31/18:00:17.685,(-6 -6 -2 9 -15 -10 -6 -7)
1969/12/31/18:00:17.693,(1 1 5 0 12 8 7 0)
1969/12/31/18:00:17.693,(-2 -4 -4 -4 13 9 -2 1)
1969/12/31/18:00:17.706,(6 4 -2 9 6 -3 1 8)
1969/12/31/18:00:17.706,(-34 -46 -1 -6 -29 -13 -1 -6)
1969/12/31/18:00:17.713,(39 65 14 3 -24 4 16 18)
1969/12/31/18:00:17.713,(-13 -12 -10 8 51 5 -18 -20)
1969/12/31/18:00:17.729,(2 -3 5 13 39 19 9 8)
1969/12/31/18:00:17.729,(2 -2 -5 -8 -11 -3 -2 3)
1969/12/31/18:00:17.734,(-26 -29 -8 -7 -13 -10 -4 -5)
1969/12/31/18:00:17.734,(0 3 6 1 -22 -5 8 8)
1969/12/31/18:00:17.741,(11 11 3 -11 -12 -5 -4 -2)
1969/12/31/18:00:17.741,(-11 -6 -10 -8 -2 -9 -11 -7)
1969/12/31/18:00:17.749,(-13 -13 -9 -59 -20 -9 -6 -11)
1969/12/31/18:00:17.749,(10 8 7 49 0 4 -1 4)
1969/12/31/18:00:17.762,(2 -2 9 18 34 14 8 4)
1969/12/31/18:00:17.762,(14 13 2 -1 16 12 6 9)
1969/12/31/18:00:17.776,(1 -6 -4 8 6 -6 -5 -3)
1969/12/31/18:00:17.776,(-3 -8 -5 -27 -44 -17 -6 -3)
1969/12/31/18:00:17.784,(-10 -2 -5 -7 -5 -5 -4 -5)
1969/12/31/18:00:17.784,(-1 5 4 10 33 9 -1 -1)
1969/12/31/18:00:17.786,(5 0 4 18 28 17 7 2)
1969/12/31/18:00:17.786,(-13 -15 -4 -8 -16 -7 -2 -2)
1969/12/31/18:00:17.805,(-19 -23 -4 -7 -29 -11 -4 -10)
1969/12/31/18:00:17.805,(37 49 4 -10 -8 0 10 26)
1969/12/31/18:00:17.807,(-38 -33 -13 2 0 -13 -23 -31)
1969/12/31/18:00:17.807,(20 9 2 5 6 6 4 9)
1969/12/31/18:00:17.819,(0 6 -2 -13 -16 -6 -1 1)
1969/12/31/18:00:17.819,(-1 -14 -10 -7 -3 -7 -9 -9)
1969/12/31/18:00:17.825,(-6 -5 8 18 14 9 11 5)
1969/12/31/18:00:17.825,(3 6 1 -17 -9 -4 3 3)
1969/12/31/18:00:17.840,(7 3 -30 -118 -83 -47 -18 -6)
1969/12/31/18:00:17.840,(-8 -9 -3 73 -13 5 -4 -5)
1969/12/31/18:00:17.842,(12 17 38 96 100 52 23 14)
1969/12/31/18:00:17.842,(-4 -1 21 54 70 31 6 -6)
1969/12/31/18:00:17.862,(7 4 12 16 17 16 15 14)
1969/12/31/18:00:17.862,(-12 -9 -15 -57 -49 -30 -16 -15)
1969/12/31/18:00:17.863,(-14 -29 -19 -51 -65 -33 -10 -5)
1969/12/31/18:00:17.863,(6 25 -7 -9 -7 -5 1 7)
1969/12/31/18:00:17.875,(20 6 -5 -3 -7 -12 -16 -8)
1969/12/31/18:00:17.875,(-6 -9 -5 -15 -5 2 2 0)
1969/12/31/18:00:17.881,(1 7 2 16 19 6 1 -5)
1969/12/31/18:00:17.881,(-2 -10 -2 -12 0 1 5 11)
1969/12/31/18:00:17.897,(-3 -1 -1 16 0 3 1 -1)
1969/12/31/18:00:17.897,(-5 -1 1 -3 6 0 -4 -9)
1969/12/31/18:00:17.898,(-6 -3 -2 -14 -16 -9 -6 -6)
1969/12/31/18:00:17.898,(7 8 1 2 -1 2 1 4)
1969/12/31/18:00:17.918,(5 8 5 22 22 11 8 6)
1969/12/31/18:00:17.918,(-2 -4 6 7 13 3 1 -1)
1969/12/31/18:00:17.920,(-11 -8 -8 -14 -19 -7 -7 -8)
1969/12/31/18:00:17.920,(5 -2 -4 -13 -13 -5 2 5)
1969/12/31/18:00:17.931,(9 7 5 20 16 13 8 10)
1969/12/31/18:00:17.931,(6 0 -1 -4 8 0 -2 1)
1969/12/31/18:00:17.939,(7 9 -1 -9 -13 -5 0 4)
1969/12/31/18:00:17.939,(-2 0 -8 -9 -15 -11 -6 -5)
1969/12/31/18:00:17.952,(-25 -16 4 16 13 6 -7 -19)
1969/12/31/18:00:17.952,(-9 -10 9 8 13 6 2 -2)
1969/12/31/18:00:17.954,(0 3 -2 1 0 3 9 4)
1969/12/31/18:00:17.954,(-6 -10 -3 -5 -6 -4 -8 -13)
1969/12/31/18:00:17.974,(3 1 -7 -19 -25 -7 0 7)
1969/12/31/18:00:17.974,(2 2 -6 -7 4 2 0 -2)
1969/12/31/18:00:17.976,(-3 -9 -1 29 14 2 -9 0)
1969/12/31/18:00:17.976,(0 8 15 24 17 16 16 5)
1969/12/31/18:00:17.987,(10 9 -1 -15 -12 -6 1 2)
1969/12/31/18:00:17.987,(7 5 -1 -10 -19 -4 -2 2)
1969/12/31/18:00:17.995,(-1 -10 -24 -64 11 -1 -1 -3)
1969/12/31/18:00:17.995,(1 -1 2 23 1 -1 0 3)
1969/12/31/18:00:18.008,(4 7 25 56 8 9 4 1)
1969/12/31/18:00:18.008,(-5 1 6 19 20 4 2 0)
1969/12/31/18:00:18.010,(-3 -6 1 -1 -4 -2 -3 -2)
1969/12/31/18:00:18.010,(1 0 -8 -26 -6 -2 0 4)
1969/12/31/18:00:18.030,(-16 -22 -8 -14 -6 -6 -6 -12)
1969/12/31/18:00:18.030,(22 27 -6 -8 -14 -3 7 14)
1969/12/31/18:00:18.031,(-35 -35 6 5 -6 -5 -8 -16)
1969/12/31/18:00:18.031,(13 17 -9 -9 -4 -4 3 12)
1969/12/31/18:00:18.051,(1 -1 -2 5 1 -1 -6 -4)
1969/12/31/18:00:18.051,(2 -7 1 -7 2 3 5 3)
1969/12/31/18:00:18.052,(34 33 -1 -27 -7 1 6 10)
1969/12/31/18:00:18.052,(-36 -39 -2 11 -16 -10 -9 -12)
1969/12/31/18:00:18.065,(15 17 8 28 24 11 6 9)
1969/12/31/18:00:18.065,(0 1 2 -3 21 7 6 2)
1969/12/31/18:00:18.066,(22 28 4 1 -22 -8 -9 4)
1969/12/31/18:00:18.066,(-34 -42 12 20 9 12 12 -10)
1969/12/31/18:00:18.086,(-5 0 -9 -41 6 -1 -8 -12)
1969/12/31/18:00:18.086,(-8 -13 2 29 -3 -3 -3 1)
1969/12/31/18:00:18.088,(8 17 8 8 -1 1 3 -1)
1969/12/31/18:00:18.088,(-13 -20 -4 1 -3 -10 -12 0)
1969/12/31/18:00:18.098,(28 10 4 8 9 10 12 16)
1969/12/31/18:00:18.098,(6 18 -13 -26 -13 -7 -4 1)
1969/12/31/18:00:18.108,(25 19 17 11 10 16 25 23)
1969/12/31/18:00:18.108,(-18 -49 -18 -19 -11 -11 -13 -17)
1969/12/31/18:00:18.122,(33 63 11 -4 -2 3 10 22)
1969/12/31/18:00:18.122,(-20 -26 -2 19 9 1 2 -5)
1969/12/31/18:00:18.123,(14 16 14 5 3 5 8 15)
1969/12/31/18:00:18.123,(20 21 -8 8 8 2 -3 -2)
1969/12/31/18:00:18.142,(-63 -88 -12 -6 -7 -10 -15 -27)
1969/12/31/18:00:18.142,(56 82 28 7 8 16 27 43)
1969/12/31/18:00:18.143,(-46 -32 -14 3 -9 -11 -14 -27)
1969/12/31/18:00:18.143,(48 32 1 -17 0 4 10 27)
1969/12/31/18:00:18.154,(-36 -33 -8 -1 -3 -4 -10 -25)
1969/12/31/18:00:18.154,(2 -11 -8 -10 -3 1 0 0)
