time,.data
1969/12/31/18:00:33.839,(-6 -8 -17 -79 -57 -9 -6 -6)
1969/12/31/18:00:33.839,(-3 -9 -10 33 24 -3 -4 -1)
1969/12/31/18:00:33.841,(-6 -6 -3 -22 -22 -13 -9 -6)
1969/12/31/18:00:33.841,(3 5 9 2 -15 4 -1 2)
1969/12/31/18:00:33.853,(5 6 10 53 5 15 5 5)
1969/12/31/18:00:33.853,(-10 -7 -12 -96 -15 -1 -2 -3)
1969/12/31/18:00:33.862,(3 7 -7 -102 -86 -5 5 5)
1969/12/31/18:00:33.862,(9 3 -1 35 54 4 2 5)
1969/12/31/18:00:33.876,(-3 1 29 72 61 21 3 -3)
1969/12/31/18:00:33.876,(-3 0 3 -43 -23 -2 -2 -3)
1969/12/31/18:00:33.883,(2 3 4 73 30 9 4 2)
1969/12/31/18:00:33.883,(-3 -11 -19 -84 -35 -9 -3 -2)
1969/12/31/18:00:33.901,(-1 -2 -12 -2 -35 -17 -8 -5)
1969/12/31/18:00:33.901,(-4 -3 31 105 43 13 6 -5)
1969/12/31/18:00:33.902,(-9 -5 -41 -128 -59 -26 -8 -7)
1969/12/31/18:00:33.902,(9 4 4 50 23 10 8 9)
1969/12/31/18:00:33.913,(-1 -2 12 62 12 -2 0 1)
1969/12/31/18:00:33.913,(-2 -4 -23 -73 -34 -3 2 -2)
1969/12/31/18:00:33.922,(15 12 34 127 83 20 10 10)
1969/12/31/18:00:33.922,(-9 -5 -15 -59 -7 1 -2 -8)
1969/12/31/18:00:33.936,(12 12 13 43 38 5 4 5)
1969/12/31/18:00:33.936,(-11 -6 9 19 -32 -12 -9 -8)
1969/12/31/18:00:33.943,(-8 -10 -17 -39 -21 -12 -5 -5)
1969/12/31/18:00:33.943,(5 -2 -10 -20 -24 -11 0 2)
1969/12/31/18:00:33.959,(-5 0 -16 -53 -30 -6 -2 -1)
1969/12/31/18:00:33.959,(8 -3 -33 -92 -51 -12 -3 0)
1969/12/31/18:00:33.961,(2 0 37 108 92 25 7 3)
1969/12/31/18:00:33.961,(-8 4 19 13 23 3 -5 -7)
1969/12/31/18:00:33.973,(0 0 -2 -54 -34 -6 -3 -2)
1969/12/31/18:00:33.973,(-6 -3 -29 -13 -15 -4 -1 0)
1969/12/31/18:00:33.982,(4 -2 6 -2 6 1 -1 2)
1969/12/31/18:00:33.982,(-6 3 18 11 -19 0 -3 -6)
1969/12/31/18:00:33.996,(2 1 -5 18 10 6 3 0)
1969/12/31/18:00:33.996,(-3 -5 -17 -61 -7 -1 0 -2)
1969/12/31/18:00:34.003,(-2 0 2 11 -12 -11 -6 -4)
1969/12/31/18:00:34.003,(-2 -4 0 4 -13 -2 -1 1)
1969/12/31/18:00:34.019,(-6 0 8 9 14 -1 -4 -6)
1969/12/31/18:00:34.019,(1 0 -8 -19 -14 -7 -1 0)
1969/12/31/18:00:34.021,(0 1 -4 -12 -17 0 2 2)
1969/12/31/18:00:34.021,(1 1 13 51 49 9 1 0)
1969/12/31/18:00:34.033,(-4 -7 -14 -31 -14 -4 -4 -3)
1969/12/31/18:00:34.033,(3 5 15 39 18 2 1 3)
1969/12/31/18:00:34.042,(-4 -4 -12 -33 -18 -8 -4 -5)
1969/12/31/18:00:34.042,(3 1 -10 -36 -24 -4 1 3)
1969/12/31/18:00:34.056,(3 0 -1 -2 3 1 2 2)
1969/12/31/18:00:34.056,(1 1 15 55 26 4 1 0)
1969/12/31/18:00:34.063,(-9 -4 -5 -25 -7 -1 -3 -6)
1969/12/31/18:00:34.063,(4 1 -11 -25 -14 2 3 3)
1969/12/31/18:00:34.079,(3 -2 0 1 1 0 0 3)
1969/12/31/18:00:34.079,(-4 1 17 40 12 2 -3 -3)
1969/12/31/18:00:34.081,(-6 -3 -9 -20 -6 -5 -3 -3)
1969/12/31/18:00:34.081,(1 0 -10 -6 -4 -1 3 1)
1969/12/31/18:00:34.093,(-6 -4 3 7 2 -4 -7 -9)
1969/12/31/18:00:34.093,(4 3 8 23 7 0 -1 3)
1969/12/31/18:00:34.108,(-9 -6 -4 -7 1 0 -1 -4)
1969/12/31/18:00:34.108,(12 2 -7 -10 -4 2 3 5)
1969/12/31/18:00:34.116,(3 3 2 -8 -5 -1 2 2)
1969/12/31/18:00:34.116,(0 -1 5 19 8 5 0 0)
1969/12/31/18:00:34.123,(-1 0 -5 -11 -2 0 -3 -3)
1969/12/31/18:00:34.123,(4 1 -1 -5 -9 2 2 7)
1969/12/31/18:00:34.140,(-4 -1 0 -3 4 4 1 -1)
1969/12/31/18:00:34.140,(-11 -3 -1 12 3 -1 -4 -6)
1969/12/31/18:00:34.141,(-8 1 1 -4 -1 0 -1 -1)
1969/12/31/18:00:34.141,(22 9 -2 -9 -6 0 2 6)
1969/12/31/18:00:34.163,(-4 -7 -1 -3 0 -5 -1 1)
1969/12/31/18:00:34.163,(3 -1 4 17 6 1 1 -2)
1969/12/31/18:00:34.165,(-8 -8 -7 -13 -5 -4 -5 -6)
1969/12/31/18:00:34.165,(-9 -3 -2 -1 -3 -2 -4 -3)
1969/12/31/18:00:34.176,(4 1 0 1 -1 3 1 0)
1969/12/31/18:00:34.176,(4 4 4 5 0 3 3 3)
1969/12/31/18:00:34.183,(4 1 -1 -6 -1 2 1 2)
1969/12/31/18:00:34.183,(-13 -10 -7 -7 -4 -4 -3 -4)
1969/12/31/18:00:34.199,(11 8 7 5 5 4 4 4)
1969/12/31/18:00:34.199,(-15 -4 -2 -6 -2 -3 -4 -7)
1969/12/31/18:00:34.201,(10 0 -4 0 -3 -3 0 6)
1969/12/31/18:00:34.201,(8 9 1 -19 -14 2 6 -1)
1969/12/31/18:00:34.222,(-4 -5 -3 -3 3 -5 -4 -1)
1969/12/31/18:00:34.222,(-19 0 3 10 1 1 -2 -9)
1969/12/31/18:00:34.223,(35 6 4 18 11 6 6 13)
1969/12/31/18:00:34.223,(-13 0 7 44 42 4 -6 -11)
1969/12/31/18:00:34.236,(-3 -3 -4 -19 -19 -5 -4 0)
1969/12/31/18:00:34.236,(10 2 -4 -15 -9 -4 2 4)
1969/12/31/18:00:34.243,(-13 -9 -15 -37 -18 -7 -2 -2)
1969/12/31/18:00:34.243,(-11 -5 5 4 -7 -2 -2 -1)
1969/12/31/18:00:34.259,(33 15 10 15 8 5 8 11)
1969/12/31/18:00:34.260,(-1 -6 -4 5 0 -4 -4 0)
1969/12/31/18:00:34.261,(-7 1 1 -8 -7 -5 -2 -1)
1969/12/31/18:00:34.261,(5 1 -6 -9 5 4 5 6)
1969/12/31/18:00:34.282,(-26 -12 -7 4 4 -5 -11 -18)
1969/12/31/18:00:34.282,(-2 5 5 7 9 7 9 13)
1969/12/31/18:00:34.283,(23 -1 1 -8 -5 -2 0 1)
1969/12/31/18:00:34.284,(-5 -4 -12 -11 -16 -13 -9 -7)
1969/12/31/18:00:34.296,(-21 -10 8 20 9 5 6 1)
1969/12/31/18:00:34.296,(16 3 0 3 -2 -7 -6 1)
1969/12/31/18:00:34.305,(-8 0 1 2 5 2 2 0)
1969/12/31/18:00:34.305,(-13 -5 4 -1 -6 -1 -1 -4)
1969/12/31/18:00:34.319,(5 2 -7 -2 -4 -5 -2 -1)
1969/12/31/18:00:34.320,(-8 -11 -5 -5 -5 -9 -8 -6)
1969/12/31/18:00:34.321,(-5 6 0 -1 5 4 3 2)
1969/12/31/18:00:34.321,(17 2 -2 -6 -3 3 8 10)
1969/12/31/18:00:34.342,(-2 0 -6 -24 -7 2 -1 -2)
1969/12/31/18:00:34.342,(-3 -1 2 2 -3 0 -4 -3)
1969/12/31/18:00:34.344,(-7 0 4 23 5 1 -2 -2)
1969/12/31/18:00:34.344,(-14 -4 7 20 11 11 9 0)
1969/12/31/18:00:34.356,(15 5 -2 0 2 2 3 7)
1969/12/31/18:00:34.356,(39 31 4 -1 3 3 -1 6)
1969/12/31/18:00:34.364,(27 2 -7 -18 -12 -4 -1 4)
1969/12/31/18:00:34.364,(-2 -7 -5 -9 -4 -9 -3 3)
1969/12/31/18:00:34.379,(-24 -8 -1 -1 -2 -2 -2 -7)
1969/12/31/18:00:34.379,(-17 -10 -1 6 4 7 3 -9)
1969/12/31/18:00:34.381,(11 7 5 11 7 4 7 11)
1969/12/31/18:00:34.381,(-6 -1 -5 -15 -13 -17 -20 -18)
1969/12/31/18:00:34.402,(16 5 0 1 -3 0 3 9)
1969/12/31/18:00:34.402,(-14 -11 -3 -8 -3 -7 -5 -6)
1969/12/31/18:00:34.403,(-9 -1 2 17 13 7 5 3)
1969/12/31/18:00:34.403,(-3 -11 -31 -105 -45 -10 -7 -8)
1969/12/31/18:00:34.417,(4 2 -5 22 18 -3 -1 0)
1969/12/31/18:00:34.417,(-34 -10 34 100 25 7 0 -5)
1969/12/31/18:00:34.425,(75 31 12 39 26 11 18 33)
1969/12/31/18:00:34.425,(-40 -24 -7 -6 -6 -15 -28 -37)
1969/12/31/18:00:34.440,(-3 0 -10 -46 -22 -4 -2 2)
1969/12/31/18:00:34.440,(-2 -7 -13 -45 -15 -6 -3 -3)
1969/12/31/18:00:34.441,(-22 -11 -5 13 -4 -2 -4 -3)
1969/12/31/18:00:34.441,(2 4 6 20 8 10 12 14)
1969/12/31/18:00:34.462,(25 9 0 -11 -13 -6 -8 -3)
1969/12/31/18:00:34.462,(-5 -4 -6 -6 -3 -4 -5 -7)
1969/12/31/18:00:34.464,(-15 -5 -4 -85 -35 -8 -6 -11)
1969/12/31/18:00:34.464,(17 12 1 48 1 6 11 16)
1969/12/31/18:00:34.475,(-13 -5 5 70 34 3 -1 -3)
1969/12/31/18:00:34.475,(13 -1 -17 -62 1 5 5 6)
1969/12/31/18:00:34.485,(-21 -13 -21 10 14 5 -3 -14)
1969/12/31/18:00:34.485,(11 11 37 48 6 8 5 8)
1969/12/31/18:00:34.499,(-5 3 32 58 9 -1 -3 -4)
1969/12/31/18:00:34.499,(13 7 -4 17 -1 -3 1 6)
1969/12/31/18:00:34.501,(-19 -15 -15 -44 -15 -10 -9 -13)
1969/12/31/18:00:34.501,(-7 -8 -17 -30 -11 -7 -3 0)
1969/12/31/18:00:34.522,(10 0 0 -4 -9 0 1 2)
1969/12/31/18:00:34.522,(-48 -18 -3 -21 -5 -4 -4 -20)
1969/12/31/18:00:34.524,(44 21 1 -2 -7 -1 0 20)
1969/12/31/18:00:34.524,(-10 2 3 5 5 -2 -7 -11)
1969/12/31/18:00:34.536,(1 -6 -12 -48 -9 7 9 9)
1969/12/31/18:00:34.536,(-2 -4 2 28 -1 3 3 2)
1969/12/31/18:00:34.545,(-24 -4 11 22 5 -4 -6 -10)
1969/12/31/18:00:34.545,(9 5 -1 17 15 2 0 6)
1969/12/31/18:00:34.559,(-13 -2 0 -14 -18 -4 0 -9)
1969/12/31/18:00:34.559,(17 11 11 25 3 6 7 11)
1969/12/31/18:00:34.561,(-8 -6 5 41 27 -1 -5 -8)
1969/12/31/18:00:34.561,(1 -3 4 -10 -6 0 0 -2)
1969/12/31/18:00:34.582,(-6 12 36 -14 4 13 4 -2)
1969/12/31/18:00:34.582,(26 13 -22 12 23 10 15 15)
1969/12/31/18:00:34.583,(-36 -26 -22 9 -4 -12 -5 -7)
1969/12/31/18:00:34.583,(-4 -15 -15 -37 -14 -15 -14 -16)
1969/12/31/18:00:34.595,(24 9 -10 -25 -18 -5 2 18)
1969/12/31/18:00:34.595,(12 7 18 1 -11 -5 -9 1)
1969/12/31/18:00:34.604,(3 9 4 -37 -4 7 11 7)
1969/12/31/18:00:34.605,(-13 -11 -7 23 7 6 9 6)
1969/12/31/18:00:34.620,(-30 -11 -4 -20 -10 -10 -17 -23)
1969/12/31/18:00:34.620,(15 3 -1 5 0 1 1 4)
1969/12/31/18:00:34.621,(-18 -5 5 19 -1 -2 -3 -10)
1969/12/31/18:00:34.621,(10 2 -24 -103 -20 0 5 10)
1969/12/31/18:00:34.642,(6 2 10 89 20 8 3 2)
1969/12/31/18:00:34.642,(-10 1 35 83 51 2 -10 -11)
1969/12/31/18:00:34.644,(-14 -7 -4 -22 -13 -8 -7 -13)
1969/12/31/18:00:34.644,(12 5 -1 14 -1 3 9 11)
1969/12/31/18:00:34.656,(2 -3 -12 -18 2 4 11 9)
1969/12/31/18:00:34.656,(-7 -7 -17 -47 -31 -9 -10 -10)
1969/12/31/18:00:34.664,(1 6 8 -3 1 -3 -9 -4)
1969/12/31/18:00:34.664,(-1 11 11 39 13 -3 -13 -6)
1969/12/31/18:00:34.687,(-9 -16 -24 -42 -12 -3 15 5)
1969/12/31/18:00:34.687,(13 5 1 -9 -10 7 16 13)
1969/12/31/18:00:34.689,(41 18 5 -19 3 16 17 17)
1969/12/31/18:00:34.689,(-8 -6 -10 0 6 -4 -8 -6)
1969/12/31/18:00:34.702,(-12 -4 2 17 1 -11 -20 -13)
1969/12/31/18:00:34.702,(1 -1 4 -5 -6 -8 -5 -1)
1969/12/31/18:00:34.703,(-22 -7 2 2 -3 -5 -7 -9)
1969/12/31/18:00:34.703,(18 12 15 25 14 8 6 4)
1969/12/31/18:00:34.716,(3 -4 -36 -95 -47 -18 0 3)
1969/12/31/18:00:34.716,(12 4 -3 43 -40 0 7 10)
1969/12/31/18:00:34.725,(-16 -3 29 99 75 14 -6 -8)
1969/12/31/18:00:34.725,(-13 -8 16 48 57 19 2 -6)
1969/12/31/18:00:34.739,(6 7 5 6 15 5 -4 -2)
1969/12/31/18:00:34.739,(-16 -13 -25 -93 -28 -14 -16 -12)
1969/12/31/18:00:34.741,(-2 -5 -20 -63 -57 -19 -5 -2)
1969/12/31/18:00:34.741,(9 5 5 12 -14 -1 7 4)
1969/12/31/18:00:34.762,(13 13 11 6 20 22 23 25)
1969/12/31/18:00:34.762,(-17 -10 -10 -13 2 -10 -18 -17)
1969/12/31/18:00:34.763,(7 6 12 31 0 2 8 1)
1969/12/31/18:00:34.764,(-20 -7 -2 -14 -2 0 7 5)
1969/12/31/18:00:34.776,(10 4 -8 -10 -4 0 -2 0)
1969/12/31/18:00:34.776,(-11 0 2 -7 2 2 2 2)
1969/12/31/18:00:34.785,(25 4 10 18 4 -2 -8 -1)
1969/12/31/18:00:34.785,(-1 1 -7 -50 -13 -1 1 -2)
1969/12/31/18:00:34.799,(-13 -9 6 57 14 -3 -9 -11)
1969/12/31/18:00:34.799,(8 -2 -24 -58 4 1 2 1)
1969/12/31/18:00:34.801,(-6 0 7 29 -4 6 5 5)
1969/12/31/18:00:34.801,(7 7 20 28 1 -2 -2 1)
1969/12/31/18:00:34.822,(-8 -7 -6 5 0 -6 -8 -6)
1969/12/31/18:00:34.822,(4 -3 4 6 2 -4 -3 -3)
1969/12/31/18:00:34.824,(-5 -3 -14 -23 -2 3 1 3)
1969/12/31/18:00:34.824,(21 8 2 5 -3 7 9 5)
1969/12/31/18:00:34.836,(-19 -4 4 5 4 -2 -6 -9)
1969/12/31/18:00:34.836,(-21 -4 -3 -31 -5 -1 0 -12)
1969/12/31/18:00:34.845,(-13 -8 -13 -21 -11 -1 0 -7)
1969/12/31/18:00:34.845,(9 3 5 14 5 -2 -4 9)
1969/12/31/18:00:34.859,(-4 -8 1 6 0 -3 -5 -5)
1969/12/31/18:00:34.859,(21 12 3 0 4 0 3 7)
1969/12/31/18:00:34.866,(-7 -3 -1 2 -15 -5 -5 -6)
1969/12/31/18:00:34.866,(-12 -6 -6 -9 -3 -5 -2 -2)
1969/12/31/18:00:34.881,(23 5 8 -17 1 5 9 10)
1969/12/31/18:00:34.881,(-10 4 12 39 10 0 -2 0)
1969/12/31/18:00:34.882,(10 14 -3 -4 3 -2 -2 0)
1969/12/31/18:00:34.882,(-41 -29 -15 -12 -11 -13 -27 -50)
1969/12/31/18:00:34.904,(-23 -12 -7 -13 -12 -12 -13 -15)
1969/12/31/18:00:34.904,(15 3 -8 -19 1 6 13 18)
1969/12/31/18:00:34.904,(-28 -18 -1 11 -4 -5 -6 -12)
1969/12/31/18:00:34.904,(57 35 17 24 11 9 10 29)
1969/12/31/18:00:34.918,(-9 0 -2 -1 1 -3 -9 -13)
1969/12/31/18:00:34.918,(-6 -24 -4 27 8 -4 -8 -10)
1969/12/31/18:00:34.926,(6 2 -11 -40 -9 6 10 12)
1969/12/31/18:00:34.926,(-8 0 -4 -8 -2 3 7 2)
1969/12/31/18:00:34.941,(-8 -4 15 41 4 -4 -6 -8)
1969/12/31/18:00:34.941,(34 22 13 9 7 6 11 25)
1969/12/31/18:00:34.942,(-29 -18 -12 -14 1 -2 -9 -17)
1969/12/31/18:00:34.942,(36 19 -2 -30 -3 8 15 21)
1969/12/31/18:00:34.964,(9 -8 -12 -19 -10 -13 -11 -3)
1969/12/31/18:00:34.964,(-12 -8 -2 -3 -8 -7 -9 -6)
1969/12/31/18:00:34.965,(-38 -6 20 34 12 6 -4 -27)
1969/12/31/18:00:34.965,(6 -7 -3 -14 -8 -5 7 24)
1969/12/31/18:00:34.978,(61 36 -3 5 5 7 1 -4)
1969/12/31/18:00:34.978,(-34 -19 -5 4 2 1 0 -5)
1969/12/31/18:00:35.003,(52 20 -5 -37 -8 -3 0 14)
1969/12/31/18:00:35.003,(-32 -23 -23 -17 -10 -6 -6 -11)
1969/12/31/18:00:35.004,(-1 -3 -23 -98 -35 -2 12 16)
1969/12/31/18:00:35.004,(6 11 27 106 17 4 2 -1)
1969/12/31/18:00:35.005,(-6 2 33 55 42 3 -8 -8)
1969/12/31/18:00:35.005,(-2 -2 -6 7 4 8 5 4)
1969/12/31/18:00:35.024,(-7 1 20 43 26 7 2 5)
1969/12/31/18:00:35.024,(-1 4 -2 -27 5 5 2 -4)
1969/12/31/18:00:35.024,(2 7 -24 -33 -21 -7 4 10)
1969/12/31/18:00:35.025,(-15 -22 -12 -61 -29 -10 -8 -8)
1969/12/31/18:00:35.039,(-40 -21 -15 -3 -10 -9 -10 -21)
1969/12/31/18:00:35.039,(-11 3 17 33 13 2 -1 -6)
1969/12/31/18:00:35.040,(24 18 15 9 2 5 4 8)
1969/12/31/18:00:35.040,(-7 -11 -23 -46 -15 -11 -7 -3)
1969/12/31/18:00:35.069,(3 5 -13 -7 -4 2 6 7)
1969/12/31/18:00:35.070,(-25 -12 5 8 -1 -5 -11 -18)
1969/12/31/18:00:35.070,(-2 -13 5 8 6 5 11 23)
1969/12/31/18:00:35.070,(-26 -6 -17 -44 -24 -20 -34 -45)
1969/12/31/18:00:35.084,(17 -14 -30 -68 -35 -7 4 11)
1969/12/31/18:00:35.084,(35 22 21 72 35 11 12 16)
1969/12/31/18:00:35.085,(3 -1 28 69 46 17 7 5)
1969/12/31/18:00:35.085,(-6 11 27 54 18 9 5 -3)
1969/12/31/18:00:35.099,(4 -2 -13 -44 -7 -6 -3 7)
1969/12/31/18:00:35.099,(-46 -34 -21 -67 -31 -2 -6 -23)
1969/12/31/18:00:35.100,(21 15 -22 -42 -27 -11 -1 1)
1969/12/31/18:00:35.100,(-9 6 18 49 18 4 -3 -5)
1969/12/31/18:00:35.121,(2 3 7 12 8 4 3 7)
1969/12/31/18:00:35.121,(5 -3 -15 -45 -15 -2 -1 7)
1969/12/31/18:00:35.122,(-26 -17 -2 15 -5 -3 2 -3)
1969/12/31/18:00:35.122,(47 16 14 28 22 17 23 34)
1969/12/31/18:00:35.144,(-31 -13 -1 13 1 -10 -19 -30)
1969/12/31/18:00:35.144,(14 11 1 -4 1 4 11 23)
1969/12/31/18:00:35.144,(19 -1 -18 -42 -18 -6 0 -1)
1969/12/31/18:00:35.145,(-15 -4 -6 2 -8 -16 -21 -26)
1969/12/31/18:00:35.159,(18 3 20 46 19 8 11 20)
1969/12/31/18:00:35.159,(-33 -21 -11 -28 -4 -3 -10 -32)
1969/12/31/18:00:35.160,(-5 3 -6 -11 -7 -2 3 15)
1969/12/31/18:00:35.160,(-35 -38 -13 1 -1 5 12 9)
1969/12/31/18:00:35.181,(19 30 8 23 5 -7 -14 -22)
1969/12/31/18:00:35.181,(53 22 7 -12 -3 -3 -3 10)
1969/12/31/18:00:35.182,(11 -4 -21 -30 -22 -24 -27 -17)
1969/12/31/18:00:35.182,(-59 -22 8 18 1 -10 -24 -40)
1969/12/31/18:00:35.204,(-60 -26 8 13 12 7 9 -3)
1969/12/31/18:00:35.204,(69 36 -7 -12 -6 -3 -2 6)
1969/12/31/18:00:35.205,(-7 -6 -5 -8 -7 -3 6 10)
1969/12/31/18:00:35.205,(20 13 8 17 14 10 14 19)
1969/12/31/18:00:35.219,(-7 -8 0 -2 -5 -3 -3 -6)
1969/12/31/18:00:35.219,(-3 6 -1 -2 3 10 14 11)
1969/12/31/18:00:35.220,(20 11 0 1 5 10 11 10)
1969/12/31/18:00:35.220,(-24 -10 -2 -27 -20 -16 -20 -24)
1969/12/31/18:00:35.241,(17 13 13 30 17 9 10 12)
1969/12/31/18:00:35.241,(-35 -23 -11 -5 -7 -4 -2 -7)
1969/12/31/18:00:35.242,(7 12 17 8 17 36 45 34)
1969/12/31/18:00:35.242,(42 19 2 -2 -5 -12 -6 23)
1969/12/31/18:00:35.272,(-8 -19 -19 -14 -15 -27 -39 -35)
1969/12/31/18:00:35.272,(7 1 1 -6 -3 -5 0 11)
1969/12/31/18:00:35.273,(-70 -46 -5 -13 -15 -13 -19 -34)
1969/12/31/18:00:35.273,(20 32 4 17 13 21 25 12)
1969/12/31/18:00:35.279,(73 33 19 21 23 31 39 50)
1969/12/31/18:00:35.279,(-36 -21 -11 -9 -7 -14 -24 -23)
1969/12/31/18:00:35.280,(15 4 1 -7 -9 -4 -12 -15)
1969/12/31/18:00:35.280,(13 9 -2 -27 -7 4 10 18)
1969/12/31/18:00:35.301,(-106 -63 -2 18 -2 -5 -15 -43)
1969/12/31/18:00:35.301,(104 46 30 40 31 37 62 94)
1969/12/31/18:00:35.302,(18 33 -12 -3 -9 -31 -52 -57)
1969/12/31/18:00:35.302,(-64 -74 -2 7 -6 -19 -19 -30)
1969/12/31/18:00:35.324,(56 69 -9 -27 -9 -4 -1 -4)
1969/12/31/18:00:35.324,(21 -15 0 -8 -3 4 18 42)
1969/12/31/18:00:35.325,(-49 -36 12 5 2 1 5 1)
1969/12/31/18:00:35.325,(64 82 4 12 18 26 25 23)
1969/12/31/18:00:35.338,(-22 -24 -2 -11 1 9 14 26)
1969/12/31/18:00:35.338,(-33 -5 -2 1 -1 -4 -13 -30)
1969/12/31/18:00:35.346,(7 0 -1 -21 -7 2 -3 -5)
1969/12/31/18:00:35.346,(-15 -11 -2 -1 -11 -2 -3 -1)
1969/12/31/18:00:35.361,(-15 -15 4 16 3 8 6 -1)
1969/12/31/18:00:35.361,(15 27 9 10 15 7 4 -5)
1969/12/31/18:00:35.362,(0 -9 -7 6 6 8 15 29)
1969/12/31/18:00:35.362,(66 52 19 28 21 17 24 36)
1969/12/31/18:00:35.384,(-34 -12 6 6 -6 -17 -18 -23)
1969/12/31/18:00:35.384,(-32 -8 -13 -22 -16 -9 -12 -31)
1969/12/31/18:00:35.385,(-14 -14 9 -3 -4 -10 -5 -6)
1969/12/31/18:00:35.385,(-67 -51 -10 2 10 13 14 -2)
1969/12/31/18:00:35.399,(111 99 10 13 16 23 30 59)
1969/12/31/18:00:35.399,(-50 -27 -14 -31 -21 -21 -28 -39)
1969/12/31/18:00:35.400,(-3 -6 -14 3 1 0 5 -2)
1969/12/31/18:00:35.400,(50 31 15 8 9 -6 2 20)
1969/12/31/18:00:35.421,(-11 -20 17 34 1 3 1 6)
1969/12/31/18:00:35.421,(-22 -5 2 6 1 0 -5 -16)
1969/12/31/18:00:35.422,(42 13 -6 -7 -3 15 9 15)
1969/12/31/18:00:35.422,(-4 -23 -38 -107 -32 -15 -24 -20)
1969/12/31/18:00:35.444,(5 3 8 29 14 25 22 15)
1969/12/31/18:00:35.444,(98 48 29 48 7 7 12 44)
1969/12/31/18:00:35.445,(-97 -68 -9 24 12 -31 -44 -71)
1969/12/31/18:00:35.445,(-8 -8 -14 2 -6 -30 -37 -55)
1969/12/31/18:00:35.459,(-29 -31 -14 -36 -6 -11 0 -4)
1969/12/31/18:00:35.459,(8 12 -11 -27 -31 -29 -22 -21)
1969/12/31/18:00:35.460,(-2 -1 6 24 18 15 17 16)
1969/12/31/18:00:35.460,(15 -1 1 21 3 5 14 17)
1969/12/31/18:00:35.483,(-34 -12 -9 -27 -29 -35 -39 -44)
1969/12/31/18:00:35.483,(-53 -35 -12 15 12 9 6 -18)
1969/12/31/18:00:35.483,(101 98 19 13 16 26 41 90)
1969/12/31/18:00:35.483,(-25 -4 8 19 -7 -7 -13 -16)
1969/12/31/18:00:35.504,(-14 -23 -7 -5 3 3 4 7)
1969/12/31/18:00:35.504,(-38 -10 -10 -22 -12 -10 -19 -32)
1969/12/31/18:00:35.504,(27 4 -3 -16 -4 13 20 22)
1969/12/31/18:00:35.504,(-64 -28 5 21 -6 -2 -9 -34)
1969/12/31/18:00:35.519,(60 45 9 10 11 3 3 21)
1969/12/31/18:00:35.519,(36 55 -1 -8 4 13 19 11)
1969/12/31/18:00:35.520,(57 26 -3 -3 1 9 9 18)
1969/12/31/18:00:35.520,(-12 -17 -15 -30 -24 -18 -21 -19)
1969/12/31/18:00:35.549,(-42 -40 -29 -64 -13 5 6 -11)
1969/12/31/18:00:35.549,(-3 -8 12 16 6 1 0 12)
1969/12/31/18:00:35.550,(-40 -1 34 54 9 13 9 5)
1969/12/31/18:00:35.550,(60 58 16 43 19 0 -10 -3)
1969/12/31/18:00:35.564,(3 1 -5 -25 -9 -8 -6 -4)
1969/12/31/18:00:35.564,(2 -11 -15 -14 -1 3 3 8)
1969/12/31/18:00:35.564,(-30 -26 -16 -34 -32 -21 -20 -21)
1969/12/31/18:00:35.565,(-16 -3 -1 3 4 4 12 14)
1969/12/31/18:00:35.579,(-97 -21 -1 5 2 0 -8 -38)
1969/12/31/18:00:35.579,(-46 -36 -14 -16 -10 -20 -29 -31)
1969/12/31/18:00:35.580,(-61 -29 -5 -6 -16 -26 -35 -56)
1969/12/31/18:00:35.580,(50 20 7 1 16 24 33 51)
1969/12/31/18:00:35.601,(41 13 3 5 7 8 12 17)
1969/12/31/18:00:35.601,(-12 -6 4 2 -2 1 4 3)
1969/12/31/18:00:35.602,(-13 -15 -4 -9 -5 -8 -11 -9)
1969/12/31/18:00:35.602,(10 1 -6 -12 5 7 9 18)
1969/12/31/18:00:35.624,(-2 -4 11 23 4 2 0 -2)
1969/12/31/18:00:35.624,(-83 -78 -5 13 6 5 -7 -38)
1969/12/31/18:00:35.625,(11 40 5 -13 -2 -7 -2 15)
1969/12/31/18:00:35.625,(-37 -19 -5 -6 -5 -3 -2 -7)
1969/12/31/18:00:35.639,(-47 -38 -11 -4 -10 -15 -22 -25)
1969/12/31/18:00:35.639,(-7 -4 -5 -12 -3 -3 -9 -18)
1969/12/31/18:00:35.639,(25 9 1 1 7 8 7 5)
1969/12/31/18:00:35.639,(7 -2 4 -2 -5 3 7 9)
1969/12/31/18:00:35.661,(3 -9 -16 -22 -6 -6 -7 -9)
1969/12/31/18:00:35.661,(24 18 12 28 10 7 13 31)
1969/12/31/18:00:35.662,(7 -2 1 -12 2 -1 0 -2)
1969/12/31/18:00:35.662,(-14 -4 9 23 -9 -5 -4 -7)
1969/12/31/18:00:35.684,(29 17 27 40 21 14 13 10)
1969/12/31/18:00:35.685,(21 10 -4 -11 17 18 21 29)
1969/12/31/18:00:35.685,(37 30 -9 -10 1 5 -3 -13)
1969/12/31/18:00:35.685,(-54 -27 -12 -12 -11 -12 -14 -27)
1969/12/31/18:00:35.698,(-29 -7 -3 -9 -10 -9 -12 -23)
1969/12/31/18:00:35.698,(-3 0 -18 -50 -17 -16 -12 -4)
1969/12/31/18:00:35.706,(-38 -27 3 13 4 7 6 -15)
1969/12/31/18:00:35.706,(-1 -6 4 18 11 -3 -4 -3)
1969/12/31/18:00:35.721,(48 33 13 18 11 13 18 38)
1969/12/31/18:00:35.721,(-20 -17 0 7 -11 -18 -17 -7)
1969/12/31/18:00:35.722,(2 -3 -2 -4 15 24 20 1)
1969/12/31/18:00:35.722,(39 21 0 -10 -6 -6 -5 -2)
1969/12/31/18:00:35.745,(13 13 -8 -25 -13 -1 4 9)
1969/12/31/18:00:35.745,(-14 -16 -26 -86 -38 -17 -7 -6)
1969/12/31/18:00:35.745,(-23 -16 4 34 -3 -8 -3 -3)
1969/12/31/18:00:35.745,(5 10 29 78 39 15 -1 -7)
1969/12/31/18:00:35.758,(-24 -14 21 60 40 8 -11 -19)
1969/12/31/18:00:35.758,(8 11 6 27 4 4 3 5)
1969/12/31/18:00:35.766,(13 -3 -12 -57 -19 -10 -2 3)
1969/12/31/18:00:35.766,(17 7 -13 -37 -19 -2 7 12)
1969/12/31/18:00:35.781,(-19 -16 -6 -8 -20 -13 -7 -6)
1969/12/31/18:00:35.781,(106 80 14 14 25 35 54 89)
1969/12/31/18:00:35.782,(17 2 -4 -4 -6 -13 -12 11)
1969/12/31/18:00:35.782,(39 19 2 -4 1 5 14 32)
1969/12/31/18:00:35.804,(-19 -16 -6 -9 -7 -9 -11 -18)
1969/12/31/18:00:35.804,(-15 -16 1 15 5 3 -2 -17)
1969/12/31/18:00:35.805,(23 40 12 15 8 12 25 36)
1969/12/31/18:00:35.805,(80 80 18 -16 4 25 47 94)
1969/12/31/18:00:35.827,(0 5 -10 -9 0 -2 -5 4)
1969/12/31/18:00:35.827,(7 20 12 19 9 5 8 2)
1969/12/31/18:00:35.828,(-31 -34 -10 1 -4 -8 -11 -19)
1969/12/31/18:00:35.828,(-56 -47 -12 -11 -9 -12 -20 -43)
1969/12/31/18:00:35.841,(22 20 1 -1 -3 0 7 13)
1969/12/31/18:00:35.841,(-27 -26 0 8 -2 -10 -15 -20)
1969/12/31/18:00:35.842,(2 -5 -2 -1 1 -2 -4 -3)
1969/12/31/18:00:35.842,(-27 -25 -10 -7 -4 -4 -10 -21)
1969/12/31/18:00:35.864,(7 -1 0 -15 -4 2 -2 0)
1969/12/31/18:00:35.864,(-7 -10 -2 10 -9 -5 -7 -10)
1969/12/31/18:00:35.865,(16 18 -2 -17 0 -6 -9 -6)
1969/12/31/18:00:35.865,(-49 -30 -1 25 9 -5 -12 -30)
1969/12/31/18:00:35.887,(-31 -14 9 17 4 -2 -5 -15)
1969/12/31/18:00:35.887,(28 23 2 0 6 6 2 2)
1969/12/31/18:00:35.888,(41 50 9 -6 -1 14 26 40)
1969/12/31/18:00:35.888,(-87 -81 -24 -22 -10 -4 -9 -29)
1969/12/31/18:00:35.901,(-53 -65 -24 -14 -24 -40 -46 -53)
1969/12/31/18:00:35.901,(84 83 16 0 13 26 44 59)
1969/12/31/18:00:35.902,(-21 -14 -4 2 -6 -13 -18 -19)
1969/12/31/18:00:35.902,(-20 -12 -4 -7 -8 -9 -12 -25)
1969/12/31/18:00:35.924,(14 9 5 8 3 4 10 16)
1969/12/31/18:00:35.924,(-12 -15 0 -1 2 -1 -1 4)
1969/12/31/18:00:35.925,(-14 -19 -7 5 3 1 -6 -11)
1969/12/31/18:00:35.925,(24 17 4 2 -1 0 3 6)
1969/12/31/18:00:35.938,(19 13 0 -3 3 4 8 16)
1969/12/31/18:00:35.938,(-37 -26 -6 -9 -14 -20 -24 -30)
1969/12/31/18:00:35.946,(-8 3 4 5 -2 -4 -8 -10)
1969/12/31/18:00:35.946,(-39 -60 -9 -10 -3 -5 -5 -6)
1969/12/31/18:00:35.961,(109 107 14 8 13 27 40 61)
1969/12/31/18:00:35.961,(-12 -25 -9 0 -4 -8 -14 -8)
1969/12/31/18:00:35.962,(-48 -30 -1 0 6 6 -2 -22)
1969/12/31/18:00:35.962,(-17 -3 -1 -12 -26 -31 -36 -36)
1969/12/31/18:00:35.984,(36 13 3 10 25 36 44 51)
1969/12/31/18:00:35.984,(-19 -15 0 5 -2 -7 -13 -18)
1969/12/31/18:00:35.985,(4 -2 -4 -4 -8 -8 -10 -3)
1969/12/31/18:00:35.985,(15 15 1 -1 3 1 4 9)
1969/12/31/18:00:36.007,(-6 0 -1 -19 -4 -6 -5 -6)
1969/12/31/18:00:36.007,(-7 -1 6 20 12 17 13 3)
1969/12/31/18:00:36.008,(-19 -16 6 6 -5 -5 -9 -12)
1969/12/31/18:00:36.008,(24 26 0 -5 -1 6 13 18)
1969/12/31/18:00:36.021,(-26 -26 -14 -19 -22 -19 -14 -18)
1969/12/31/18:00:36.021,(-9 -10 -10 2 10 -1 -4 -6)
1969/12/31/18:00:36.022,(-12 -16 -3 18 19 3 -3 -7)
1969/12/31/18:00:36.022,(20 20 11 12 15 14 8 10)
1969/12/31/18:00:36.043,(-5 -1 5 -8 -7 -2 -4 -4)
1969/12/31/18:00:36.043,(-17 -8 -1 -9 -13 -9 -9 -8)
1969/12/31/18:00:36.051,(8 9 9 -14 -14 6 8 9)
1969/12/31/18:00:36.051,(13 16 10 14 13 7 6 4)
1969/12/31/18:00:36.067,(-11 -6 7 22 1 1 -2 -5)
1969/12/31/18:00:36.067,(-11 -13 -15 -9 -6 -1 -3 -6)
1969/12/31/18:00:36.068,(-19 -27 -30 -12 -6 -16 -15 -14)
1969/12/31/18:00:36.068,(6 1 -17 -25 2 2 5 6)
1969/12/31/18:00:36.081,(-6 -1 10 -26 -19 -2 -2 -3)
1969/12/31/18:00:36.081,(-8 5 25 51 19 3 -4 -10)
1969/12/31/18:00:36.082,(14 13 6 19 10 3 2 5)
1969/12/31/18:00:36.082,(0 -3 1 5 -5 -5 -4 -2)
1969/12/31/18:00:36.104,(-8 -4 4 5 13 0 -2 -6)
1969/12/31/18:00:36.105,(-9 -5 -2 -23 -16 -4 -8 -7)
1969/12/31/18:00:36.105,(2 1 -1 5 -2 0 7 6)
1969/12/31/18:00:36.105,(5 8 9 -6 2 7 4 3)
1969/12/31/18:00:36.127,(-3 -10 -16 -7 -11 -2 0 -1)
1969/12/31/18:00:36.127,(-3 -8 -14 -43 -6 -2 -1 0)
1969/12/31/18:00:36.128,(-2 1 1 16 -1 -2 -2 -1)
1969/12/31/18:00:36.128,(3 6 16 23 6 2 3 0)
1969/12/31/18:00:36.140,(-3 -4 -18 -7 4 -9 -6 -4)
1969/12/31/18:00:36.140,(-2 -3 -6 -18 6 5 2 0)
1969/12/31/18:00:36.150,(2 3 15 54 -1 5 2 2)
1969/12/31/18:00:36.150,(-7 1 26 44 20 2 -6 -8)
1969/12/31/18:00:36.165,(-10 -5 2 9 8 0 -5 -7)
1969/12/31/18:00:36.165,(0 -10 -27 -40 -14 -5 1 3)
1969/12/31/18:00:36.165,(-12 -11 -13 -44 -14 -8 -5 -8)
1969/12/31/18:00:36.165,(17 14 -8 0 -4 4 9 14)
1969/12/31/18:00:36.187,(2 5 14 -22 -18 0 2 1)
1969/12/31/18:00:36.187,(-4 3 9 37 15 5 2 -3)
1969/12/31/18:00:36.188,(7 1 -4 -5 5 3 3 6)
1969/12/31/18:00:36.188,(-12 -13 -13 -8 -10 -9 -8 -10)
1969/12/31/18:00:36.201,(-4 -5 -2 26 9 -5 -4 -1)
1969/12/31/18:00:36.201,(-8 -3 -2 -5 -6 -5 -6 -9)
1969/12/31/18:00:36.209,(-3 -2 -3 -45 -25 -6 -2 -2)
1969/12/31/18:00:36.209,(6 10 13 32 1 3 5 8)
1969/12/31/18:00:36.225,(1 0 -12 -6 18 7 4 3)
1969/12/31/18:00:36.225,(-1 2 15 3 -2 6 1 -2)
1969/12/31/18:00:36.226,(2 2 12 60 26 4 -3 -2)
1969/12/31/18:00:36.226,(-3 -13 -32 -72 -10 -5 -2 -3)
1969/12/31/18:00:36.247,(0 7 30 20 -25 -1 1 1)
1969/12/31/18:00:36.247,(5 0 -25 -23 -5 -5 2 6)
1969/12/31/18:00:36.249,(-4 -12 -23 1 4 1 0 -2)
1969/12/31/18:00:36.249,(0 1 6 20 8 5 0 0)
1969/12/31/18:00:36.261,(-6 0 21 15 10 1 -4 -7)
1969/12/31/18:00:36.261,(7 6 -5 -16 -5 1 2 3)
1969/12/31/18:00:36.270,(0 -4 -9 -41 -7 2 4 2)
1969/12/31/18:00:36.270,(1 4 0 13 0 0 -2 1)
1969/12/31/18:00:36.284,(-2 -3 4 8 1 -3 -1 0)
1969/12/31/18:00:36.284,(-3 -5 -2 12 0 -2 -2 -2)
1969/12/31/18:00:36.286,(1 3 15 -3 -3 0 0 -1)
1969/12/31/18:00:36.286,(-2 -4 -29 -34 -13 -6 -1 0)
