time,.data
1969/12/31/18:00:07.619000,(0 18 7 1 -7 -2 -6 3)
1969/12/31/18:00:07.619000,(20 -1 -1 4 10 10 14 5)
1969/12/31/18:00:07.619000,(-1 -3 -3 -5 -6 -3 -8 -3)
1969/12/31/18:00:07.619000,(-2 7 2 6 9 12 18 3)
1969/12/31/18:00:07.642000,(-5 -16 -8 -4 -5 -12 -28 -3)
1969/12/31/18:00:07.642000,(-6 11 7 3 2 -4 -10 -5)
1969/12/31/18:00:07.642000,(3 1 1 -2 -3 4 2 1)
1969/12/31/18:00:07.642000,(1 -7 -5 -7 -4 -4 6 -4)
1969/12/31/18:00:07.656000,(2 9 8 6 0 -16 -11 -11)
1969/12/31/18:00:07.656000,(-2 -2 -4 -7 -4 18 1 3)
1969/12/31/18:00:07.657000,(4 -15 -9 -3 -2 -6 11 13)
1969/12/31/18:00:07.657000,(-9 2 1 1 2 13 0 -10)
1969/12/31/18:00:07.678000,(5 -7 -4 -2 3 4 -8 7)
1969/12/31/18:00:07.679000,(2 4 0 -1 -6 -10 -3 -4)
1969/12/31/18:00:07.679000,(-20 -8 -2 -4 -5 -10 -7 -3)
1969/12/31/18:00:07.679000,(0 -6 -3 -2 -1 -1 -3 1)
1969/12/31/18:00:07.702000,(-7 -3 -2 -1 -1 2 3 -4)
1969/12/31/18:00:07.702000,(11 3 0 -2 -3 -7 -2 6)
1969/12/31/18:00:07.702000,(4 3 0 0 1 5 5 0)
1969/12/31/18:00:07.702000,(-13 -11 -6 -3 -3 -7 -16 -9)
1969/12/31/18:00:07.716000,(-9 -13 -4 0 0 3 8 -4)
1969/12/31/18:00:07.716000,(-9 0 0 -1 -1 0 -5 -1)
1969/12/31/18:00:07.717000,(19 20 10 6 2 3 33 7)
1969/12/31/18:00:07.717000,(-6 -20 -17 -13 -9 -18 -40 -23)
1969/12/31/18:00:07.739000,(7 14 3 -4 0 12 23 5)
1969/12/31/18:00:07.739000,(-13 -18 -7 -7 -2 -5 -4 -5)
1969/12/31/18:00:07.739000,(-8 3 3 4 1 -11 -21 -9)
1969/12/31/18:00:07.739000,(3 4 5 3 1 -2 7 11)
1969/12/31/18:00:07.762000,(0 -3 -2 0 -1 2 21 -5)
1969/12/31/18:00:07.762000,(-10 1 -1 -1 0 18 -8 -4)
1969/12/31/18:00:07.762000,(11 14 2 1 1 -6 -22 -5)
1969/12/31/18:00:07.762000,(-3 -4 0 -1 -2 -1 3 0)
1969/12/31/18:00:07.776000,(0 0 -2 -3 -2 2 6 7)
1969/12/31/18:00:07.776000,(12 9 5 4 3 -8 -2 -3)
1969/12/31/18:00:07.777000,(-22 -7 5 0 2 7 5 0)
1969/12/31/18:00:07.777000,(14 3 -2 -1 -2 -6 -8 -3)
1969/12/31/18:00:07.799000,(-6 -7 -5 -4 -3 4 -3 -3)
1969/12/31/18:00:07.799000,(3 7 1 0 -3 -11 6 4)
1969/12/31/18:00:07.799000,(-10 0 3 1 -1 9 26 9)
1969/12/31/18:00:07.799000,(11 18 4 3 4 -5 -52 -14)
1969/12/31/18:00:07.822000,(-10 -20 -8 -5 -4 4 -1 -3)
1969/12/31/18:00:07.822000,(4 -11 3 4 -1 -11 -6 8)
1969/12/31/18:00:07.822000,(-19 0 0 -1 0 1 -1 -8)
1969/12/31/18:00:07.822000,(33 33 4 -4 -5 1 16 18)
1969/12/31/18:00:07.836000,(-6 -11 0 1 -1 -2 4 3)
1969/12/31/18:00:07.836000,(27 45 8 1 5 20 1 7)
1969/12/31/18:00:07.837000,(1 -38 -16 -6 -6 -6 16 -1)
1969/12/31/18:00:07.837000,(-30 -10 0 1 5 27 23 3)
1969/12/31/18:00:07.859000,(8 -9 -7 -7 -14 -82 -79 -19)
1969/12/31/18:00:07.859000,(-36 -29 -8 -5 -5 0 10 -7)
1969/12/31/18:00:07.859000,(35 29 9 5 5 7 -17 15)
1969/12/31/18:00:07.859000,(-12 -20 -11 -4 -4 9 39 -5)
1969/12/31/18:00:07.882000,(-22 0 -1 3 9 19 -7 -10)
1969/12/31/18:00:07.882000,(7 -3 -3 -3 -5 -22 -18 -19)
1969/12/31/18:00:07.883000,(-30 -18 -4 -4 -4 -14 3 -10)
1969/12/31/18:00:07.883000,(16 27 13 5 3 43 33 26)
1969/12/31/18:00:07.896000,(3 3 -2 -2 2 -3 -26 -14)
1969/12/31/18:00:07.896000,(-38 -31 -8 -1 -3 -18 19 -3)
1969/12/31/18:00:07.897000,(10 6 -4 -4 -5 -39 -42 -6)
1969/12/31/18:00:07.897000,(9 24 12 6 1 -5 11 23)
1969/12/31/18:00:07.919000,(7 2 3 5 5 25 21 1)
1969/12/31/18:00:07.919000,(14 5 -4 -6 0 22 25 26)
1969/12/31/18:00:07.919000,(-20 -32 -16 -5 -4 -1 23 -14)
1969/12/31/18:00:07.919000,(-10 4 7 4 -3 -39 -41 -24)
1969/12/31/18:00:07.942000,(7 6 -2 0 3 32 42 29)
1969/12/31/18:00:07.942000,(-34 -12 8 7 1 -18 -45 -56)
1969/12/31/18:00:07.942000,(20 10 5 5 6 34 27 39)
1969/12/31/18:00:07.942000,(4 -10 -18 -16 -8 -21 -22 -42)
1969/12/31/18:00:07.956000,(4 1 3 1 0 1 -11 6)
1969/12/31/18:00:07.956000,(50 39 4 -2 0 -11 5 18)
1969/12/31/18:00:07.957000,(-53 -27 4 7 2 -9 -8 -17)
1969/12/31/18:00:07.957000,(-2 -6 -11 -6 6 29 39 2)
1969/12/31/18:00:07.979000,(-17 -17 9 7 -1 -2 5 21)
1969/12/31/18:00:07.979000,(26 41 -3 -8 -2 19 -7 -18)
1969/12/31/18:00:07.979000,(-4 -35 -11 -5 -1 -8 -13 10)
1969/12/31/18:00:07.979000,(21 20 6 1 -2 -20 -9 8)
1969/12/31/18:00:08.002000,(14 20 2 -4 -5 -6 -6 -19)
1969/12/31/18:00:08.002000,(-20 -25 0 2 3 12 14 6)
1969/12/31/18:00:08.002000,(18 29 10 2 2 17 -28 -6)
1969/12/31/18:00:08.002000,(-27 -68 -11 3 -1 -29 3 8)
1969/12/31/18:00:08.016000,(11 16 1 -2 1 9 -1 9)
1969/12/31/18:00:08.016000,(-25 -20 -8 -4 -8 -13 5 11)
1969/12/31/18:00:08.017000,(9 -2 -7 -3 -3 0 -3 -19)
1969/12/31/18:00:08.017000,(8 25 9 4 9 50 11 -5)
1969/12/31/18:00:08.039000,(-43 -31 -8 -1 2 -5 5 -17)
1969/12/31/18:00:08.039000,(-7 -25 -3 -2 -4 -2 -17 -16)
1969/12/31/18:00:08.039000,(29 46 5 -4 -1 18 34 -3)
1969/12/31/18:00:08.039000,(-11 -14 -5 -2 -6 -27 -18 7)
1969/12/31/18:00:08.062000,(-25 -6 0 -3 -4 -23 -56 -37)
1969/12/31/18:00:08.062000,(6 2 -3 0 3 25 38 24)
1969/12/31/18:00:08.062000,(12 28 16 6 5 0 -10 8)
1969/12/31/18:00:08.062000,(-48 -47 -17 -6 -5 -3 -12 -40)
1969/12/31/18:00:08.076000,(-3 31 9 2 1 6 24 1)
1969/12/31/18:00:08.076000,(5 -43 -14 -11 -8 -7 0 39)
1969/12/31/18:00:08.084000,(52 25 2 0 -3 -7 -12 19)
1969/12/31/18:00:08.084000,(4 4 1 1 0 -9 4 6)
1969/12/31/18:00:08.099000,(14 1 2 2 3 2 22 16)
1969/12/31/18:00:08.099000,(-14 2 0 0 -3 -5 -23 -28)
1969/12/31/18:00:08.100000,(3 -3 -10 -11 -11 -6 28 1)
1969/12/31/18:00:08.100000,(-5 -8 4 0 -2 3 -18 14)
1969/12/31/18:00:08.122000,(19 2 -6 -1 0 19 34 24)
1969/12/31/18:00:08.122000,(-2 9 -3 -4 0 -11 -36 -20)
1969/12/31/18:00:08.123000,(-23 -13 0 -2 -7 -9 21 -19)
1969/12/31/18:00:08.123000,(-23 -5 -1 1 3 0 -15 -12)
1969/12/31/18:00:08.135000,(2 -1 -6 -6 -5 -10 -8 -10)
1969/12/31/18:00:08.135000,(32 -4 -2 0 3 -2 21 39)
1969/12/31/18:00:08.143000,(-26 -6 3 2 1 10 -18 -42)
1969/12/31/18:00:08.144000,(19 23 1 -2 -3 5 19 31)
1969/12/31/18:00:08.159000,(-11 -22 -5 2 2 0 -2 11)
1969/12/31/18:00:08.160000,(43 28 -2 -9 -10 -4 -30 2)
1969/12/31/18:00:08.160000,(14 -7 -8 -7 -4 -23 -7 24)
1969/12/31/18:00:08.160000,(-7 3 5 1 1 19 8 -5)
1969/12/31/18:00:08.182000,(-51 -57 -2 8 9 3 0 -36)
1969/12/31/18:00:08.182000,(6 44 8 6 5 16 23 -6)
1969/12/31/18:00:08.182000,(10 2 -3 -3 -2 0 -21 19)
1969/12/31/18:00:08.182000,(9 4 2 -1 9 -15 -16 -3)
1969/12/31/18:00:08.195000,(26 35 1 -5 -23 -9 -3 -9)
1969/12/31/18:00:08.195000,(-56 -65 -11 -2 -8 -20 -14 -16)
1969/12/31/18:00:08.204000,(-7 1 -3 0 18 28 -21 -22)
1969/12/31/18:00:08.204000,(19 15 5 6 -6 13 48 31)
1969/12/31/18:00:08.219000,(-9 -5 4 0 -4 -22 -17 -10)
1969/12/31/18:00:08.219000,(-20 6 3 -1 -1 3 -2 -27)
1969/12/31/18:00:08.219000,(7 -16 -8 -2 -7 -32 -3 20)
1969/12/31/18:00:08.219000,(4 -40 -6 -4 -6 -20 -27 23)
1969/12/31/18:00:08.242000,(34 49 2 -1 4 14 15 -5)
1969/12/31/18:00:08.242000,(-1 2 -1 -6 3 6 -10 -28)
1969/12/31/18:00:08.242000,(-29 -7 -3 -3 1 10 -2 -2)
1969/12/31/18:00:08.242000,(-32 -33 -2 5 -2 3 10 -6)
1969/12/31/18:00:08.255000,(36 27 3 -1 15 67 54 25)
1969/12/31/18:00:08.255000,(17 17 2 0 4 -33 -16 10)
1969/12/31/18:00:08.264000,(-39 -29 -3 3 -8 -25 -29 -20)
1969/12/31/18:00:08.264000,(-4 13 -3 -11 -13 4 3 -14)
1969/12/31/18:00:08.278000,(12 -2 4 2 -6 -21 2 6)
1969/12/31/18:00:08.278000,(-28 -23 -4 6 25 37 24 1)
1969/12/31/18:00:08.293000,(-8 -35 -6 4 7 7 -8 1)
1969/12/31/18:00:08.293000,(-1 48 9 -3 -19 -39 -32 -32)
1969/12/31/18:00:08.302000,(34 18 -3 -3 19 18 19 22)
1969/12/31/18:00:08.302000,(3 -4 -11 -10 -24 -18 -16 9)
1969/12/31/18:00:08.303000,(-54 -49 -13 -1 36 64 37 -2)
1969/12/31/18:00:08.303000,(-79 -85 -6 11 -8 -14 9 -22)
1969/12/31/18:00:08.315000,(87 42 13 5 -8 -32 -31 18)
1969/12/31/18:00:08.315000,(-44 -13 -5 -9 -14 -17 19 -36)
1969/12/31/18:00:08.324000,(88 110 7 -14 0 -2 -7 5)
1969/12/31/18:00:08.324000,(-16 12 -1 -2 6 11 5 -6)
1969/12/31/18:00:08.338000,(-35 -44 -15 -2 2 9 -1 0)
1969/12/31/18:00:08.338000,(-33 -39 4 6 -13 -28 -2 -1)
1969/12/31/18:00:08.347000,(-25 -44 -8 2 1 16 2 -24)
1969/12/31/18:00:08.347000,(24 18 3 2 26 29 -10 6)
1969/12/31/18:00:08.362000,(-27 -11 -4 -1 -14 -18 0 -4)
1969/12/31/18:00:08.362000,(52 34 8 6 5 26 22 31)
1969/12/31/18:00:08.363000,(13 35 2 -8 -7 13 11 10)
1969/12/31/18:00:08.363000,(19 10 -1 0 -6 -60 -19 7)
1969/12/31/18:00:08.384000,(-38 -44 3 9 -37 -57 -18 24)
1969/12/31/18:00:08.384000,(-35 -22 -2 2 14 40 18 -22)
1969/12/31/18:00:08.386000,(66 70 6 -13 -21 -1 11 23)
1969/12/31/18:00:08.386000,(1 -46 -44 -25 10 25 -7 -15)
1969/12/31/18:00:08.398000,(-11 23 13 3 34 45 14 -11)
1969/12/31/18:00:08.398000,(-43 -35 29 20 -13 -74 -32 1)
1969/12/31/18:00:08.407000,(-2 9 25 25 10 -1 11 17)
1969/12/31/18:00:08.407000,(60 35 -5 -16 -22 -8 -5 13)
1969/12/31/18:00:08.422000,(-7 -22 -30 -14 9 22 4 -18)
1969/12/31/18:00:08.422000,(31 16 -10 -5 5 22 0 17)
1969/12/31/18:00:08.424000,(-49 -38 -1 4 -4 -22 -12 -23)
1969/12/31/18:00:08.424000,(-10 19 3 4 18 22 3 -10)
1969/12/31/18:00:08.444000,(6 0 -8 -8 -27 -18 0 9)
1969/12/31/18:00:08.444000,(52 40 7 0 29 38 2 14)
1969/12/31/18:00:08.446000,(13 -2 -2 -4 -24 -64 -29 -4)
1969/12/31/18:00:08.446000,(-18 -22 1 5 -11 20 17 1)
1969/12/31/18:00:08.459000,(-59 -36 -4 -2 2 -25 -51 -27)
1969/12/31/18:00:08.459000,(26 14 -7 -12 -8 -5 1 1)
1969/12/31/18:00:08.465000,(-71 -24 -19 -12 -24 -14 -24 -45)
1969/12/31/18:00:08.465000,(83 17 1 -3 2 8 16 75)
1969/12/31/18:00:08.482000,(27 35 14 1 -1 1 -2 5)
1969/12/31/18:00:08.482000,(-35 -47 -28 -12 -10 7 -2 0)
1969/12/31/18:00:08.483000,(28 5 7 15 36 14 15 24)
1969/12/31/18:00:08.483000,(-41 -34 -1 12 27 -9 -31 -40)
1969/12/31/18:00:08.504000,(-10 7 1 -19 -45 8 27 22)
1969/12/31/18:00:08.504000,(58 36 0 -7 -8 -4 1 5)
1969/12/31/18:00:08.506000,(8 -4 -7 1 4 10 16 16)
1969/12/31/18:00:08.506000,(-25 -27 -30 -10 -25 -44 -38 -23)
1969/12/31/18:00:08.519000,(38 32 20 14 31 34 37 68)
1969/12/31/18:00:08.519000,(-17 21 24 19 16 -27 -23 -1)
1969/12/31/18:00:08.525000,(12 -32 -10 -26 -44 11 16 -7)
1969/12/31/18:00:08.525000,(10 29 17 -3 -11 -4 -10 -6)
1969/12/31/18:00:08.542000,(-34 -33 -25 3 47 -2 -16 -33)
1969/12/31/18:00:08.542000,(-25 -3 -3 12 -41 -21 -9 -22)
1969/12/31/18:00:08.543000,(40 9 -2 -13 14 31 12 16)
1969/12/31/18:00:08.543000,(-16 -3 1 -4 3 2 -12 4)
1969/12/31/18:00:08.564000,(-12 5 -14 -28 -20 19 11 -32)
1969/12/31/18:00:08.564000,(-3 5 10 28 63 -6 -6 -3)
1969/12/31/18:00:08.566000,(15 -6 -1 10 -27 -22 18 38)
1969/12/31/18:00:08.566000,(-59 5 15 -6 -30 -1 -41 -88)
1969/12/31/18:00:08.578000,(29 -11 -6 -7 -5 -15 41 -10)
1969/12/31/18:00:08.578000,(-8 -10 -4 2 7 30 15 -27)
1969/12/31/18:00:08.587000,(17 13 2 3 9 -10 -12 27)
1969/12/31/18:00:08.587000,(24 19 14 5 37 15 21 14)
1969/12/31/18:00:08.602000,(-33 -1 6 14 -25 -21 -26 -21)
1969/12/31/18:00:08.602000,(-14 -3 -8 -2 -1 1 13 9)
1969/12/31/18:00:08.603000,(-40 -9 2 20 56 24 -12 -61)
1969/12/31/18:00:08.603000,(27 24 11 -36 -85 -6 21 33)
1969/12/31/18:00:08.624000,(-15 -8 5 2 -2 16 -5 -7)
1969/12/31/18:00:08.624000,(26 -25 -20 -20 -35 -25 -39 12)
1969/12/31/18:00:08.630000,(-71 -27 0 47 77 -13 -17 -22)
1969/12/31/18:00:08.630000,(2 -39 -32 -49 -55 5 15 13)
1969/12/31/18:00:08.638000,(15 -2 -29 -27 -18 -7 5 26)
1969/12/31/18:00:08.638000,(-9 66 94 26 -12 3 3 -9)
1969/12/31/18:00:08.653000,(-1 7 5 1 -17 -38 -13 -11)
1969/12/31/18:00:08.653000,(7 5 0 19 35 38 9 4)
1969/12/31/18:00:08.662000,(-9 -13 -11 -4 -15 -10 5 5)
1969/12/31/18:00:08.662000,(-6 -12 -24 -18 -5 -2 -4 -5)
1969/12/31/18:00:08.663000,(2 -13 -13 -7 -6 -11 2 -1)
1969/12/31/18:00:08.663000,(-7 -15 -24 7 14 -4 16 8)
1969/12/31/18:00:08.684000,(22 -25 -38 11 35 -21 -25 -3)
1969/12/31/18:00:08.684000,(50 77 83 27 14 36 23 80)
1969/12/31/18:00:08.686000,(22 83 110 21 -38 0 -6 11)
1969/12/31/18:00:08.686000,(-7 8 -5 8 24 8 17 -3)
1969/12/31/18:00:08.698000,(-11 -17 1 28 54 -17 -45 -87)
1969/12/31/18:00:08.698000,(-35 -55 -75 -42 -53 -16 -13 -19)
1969/12/31/18:00:08.707000,(-35 -19 -38 -31 -24 1 -5 -15)
1969/12/31/18:00:08.707000,(34 20 16 3 -6 -7 19 70)
1969/12/31/18:00:08.722000,(-6 -4 8 8 15 8 15 17)
1969/12/31/18:00:08.722000,(3 -24 -15 19 44 -3 19 -17)
1969/12/31/18:00:08.723000,(-6 -8 -15 -21 -17 23 -3 11)
1969/12/31/18:00:08.724000,(-2 16 11 19 23 11 14 15)
1969/12/31/18:00:08.744000,(-13 -4 6 -5 -16 -3 3 4)
1969/12/31/18:00:08.744000,(3 1 -7 -13 -4 -2 -3 2)
1969/12/31/18:00:08.746000,(4 -12 -2 13 8 5 14 16)
1969/12/31/18:00:08.746000,(-4 -50 -50 -1 13 -19 -15 -52)
1969/12/31/18:00:08.758000,(-1 24 -30 -37 -37 6 -13 -1)
1969/12/31/18:00:08.758000,(-16 48 85 56 24 14 -10 -31)
1969/12/31/18:00:08.767000,(0 -40 -87 -19 2 -22 2 -1)
1969/12/31/18:00:08.767000,(-27 62 49 17 3 -1 14 -23)
1969/12/31/18:00:08.782000,(36 24 44 14 -1 18 27 79)
1969/12/31/18:00:08.782000,(28 -62 -104 -45 -4 1 5 -10)
1969/12/31/18:00:08.784000,(5 74 103 40 12 2 -2 -10)
1969/12/31/18:00:08.784000,(23 -20 -11 -3 -3 -20 -27 7)
1969/12/31/18:00:08.804000,(-8 -30 -14 -13 -19 -1 -11 -16)
1969/12/31/18:00:08.804000,(-4 17 -15 -5 16 -10 22 15)
1969/12/31/18:00:08.806000,(0 -48 -38 -17 -16 -23 -35 -19)
1969/12/31/18:00:08.806000,(6 -19 -16 -7 3 41 4 21)
1969/12/31/18:00:08.819000,(13 31 12 1 2 -8 -3 -8)
1969/12/31/18:00:08.819000,(-25 -51 -36 -21 -37 -11 -10 -22)
1969/12/31/18:00:08.826000,(12 -65 -70 -33 -5 12 32 38)
1969/12/31/18:00:08.826000,(-20 -8 29 9 -17 -75 -31 -54)
1969/12/31/18:00:08.842000,(-9 46 18 29 54 54 7 -9)
1969/12/31/18:00:08.842000,(-16 -88 -75 -52 -49 -1 -24 -11)
1969/12/31/18:00:08.843000,(14 118 96 50 22 43 41 61)
1969/12/31/18:00:08.843000,(34 117 114 46 18 5 -5 2)
1969/12/31/18:00:08.864000,(8 -87 -31 5 13 1 15 25)
1969/12/31/18:00:08.864000,(-12 -63 -59 -17 -1 -20 -3 -5)
1969/12/31/18:00:08.866000,(-46 -115 -128 -96 -37 -12 -13 -63)
1969/12/31/18:00:08.866000,(59 42 47 80 44 36 17 53)
1969/12/31/18:00:08.879000,(-33 31 59 27 -11 -26 -16 -32)
1969/12/31/18:00:08.879000,(30 -56 -59 5 10 20 11 21)
1969/12/31/18:00:08.887000,(-84 -97 -79 -26 -10 0 -11 -53)
1969/12/31/18:00:08.887000,(34 -55 -79 -41 -4 1 14 37)
1969/12/31/18:00:08.902000,(7 -1 -11 -19 -26 -40 -4 30)
1969/12/31/18:00:08.902000,(-40 -76 -58 -6 16 25 11 25)
1969/12/31/18:00:08.903000,(37 73 16 15 10 56 10 22)
1969/12/31/18:00:08.903000,(-4 71 86 -1 -59 -41 3 13)
1969/12/31/18:00:08.932000,(34 28 6 -5 -11 -10 -11 17)
1969/12/31/18:00:08.932000,(-20 -12 41 18 26 -12 3 8)
1969/12/31/18:00:08.933000,(-9 -108 -102 -35 13 7 3 12)
1969/12/31/18:00:08.933000,(-24 55 26 39 17 26 10 -65)
1969/12/31/18:00:08.938000,(-41 -81 -6 21 14 42 -14 -8)
1969/12/31/18:00:08.938000,(47 76 -39 -23 -29 -48 -29 -60)
1969/12/31/18:00:08.947000,(0 55 103 47 -18 -34 -18 -22)
1969/12/31/18:00:08.947000,(-31 -128 -111 -28 27 -6 -12 -19)
1969/12/31/18:00:08.962000,(-31 -106 -106 -58 -47 -16 -3 -30)
1969/12/31/18:00:08.962000,(21 108 43 7 23 29 16 12)
1969/12/31/18:00:08.963000,(38 73 79 31 -2 -12 -21 28)
1969/12/31/18:00:08.963000,(-6 69 39 19 32 -17 7 14)
1969/12/31/18:00:08.984000,(5 -59 -71 -23 -32 -24 -4 -34)
1969/12/31/18:00:08.984000,(-9 108 115 69 -14 -44 -34 -25)
1969/12/31/18:00:08.986000,(60 -89 -88 -10 18 20 -6 11)
1969/12/31/18:00:08.986000,(-32 -66 -60 -20 -13 5 29 22)
1969/12/31/18:00:08.998000,(6 -3 -3 -7 -6 17 10 24)
1969/12/31/18:00:08.998000,(-47 -60 -45 -46 -38 -27 -7 -23)
1969/12/31/18:00:09.007000,(-17 127 112 38 8 -39 -22 -48)
1969/12/31/18:00:09.007000,(35 -89 -88 -24 -8 23 6 44)
1969/12/31/18:00:09.022000,(-14 40 34 1 15 -33 -6 -43)
1969/12/31/18:00:09.022000,(-42 -89 -86 -44 -9 15 -35 -40)
1969/12/31/18:00:09.023000,(58 91 94 63 11 -5 8 30)
1969/12/31/18:00:09.023000,(-36 -118 -92 -16 -1 1 -17 -33)
1969/12/31/18:00:09.044000,(-6 -1 -48 -8 -3 -28 -15 -19)
1969/12/31/18:00:09.044000,(24 17 49 30 28 63 61 79)
1969/12/31/18:00:09.046000,(-12 -128 -128 -47 -22 -13 17 27)
1969/12/31/18:00:09.046000,(23 108 54 13 12 10 -29 -69)
1969/12/31/18:00:09.058000,(17 49 80 29 31 8 -30 -35)
1969/12/31/18:00:09.058000,(-24 -45 -4 -8 -17 -33 -13 4)
1969/12/31/18:00:09.067000,(-39 -90 -77 -35 -35 7 -6 -39)
1969/12/31/18:00:09.067000,(-25 37 35 10 -1 13 30 26)
1969/12/31/18:00:09.081000,(-7 -101 -95 -17 -7 -9 -7 -8)
1969/12/31/18:00:09.081000,(5 17 -13 12 21 -2 -12 13)
1969/12/31/18:00:09.088000,(47 107 90 40 -8 -19 -6 7)
1969/12/31/18:00:09.088000,(-44 -83 -128 -86 -52 -48 -57 -56)
1969/12/31/18:00:09.104000,(9 71 110 50 27 41 56 42)
1969/12/31/18:00:09.104000,(7 -26 -61 -13 5 6 27 43)
1969/12/31/18:00:09.106000,(-28 40 43 61 19 -9 -19 -26)
1969/12/31/18:00:09.106000,(3 -75 -69 -15 3 9 -39 -55)
1969/12/31/18:00:09.118000,(6 5 1 -6 -19 1 4 -6)
1969/12/31/18:00:09.118000,(-53 -128 -103 -32 -10 0 3 -19)
1969/12/31/18:00:09.127000,(-59 -1 -70 -41 12 -1 -16 -31)
1969/12/31/18:00:09.127000,(56 114 78 26 -17 -3 48 95)
1969/12/31/18:00:09.149000,(-23 -101 -86 -17 9 -35 -25 -28)
1969/12/31/18:00:09.149000,(52 127 127 59 87 103 37 20)
1969/12/31/18:00:09.151000,(-33 -31 8 -39 -48 -8 29 2)
1969/12/31/18:00:09.151000,(59 94 64 20 9 22 30 79)
1969/12/31/18:00:09.164000,(-46 -98 -68 -31 -32 -61 -76 -61)
1969/12/31/18:00:09.164000,(31 -109 -96 -12 17 -8 9 72)
1969/12/31/18:00:09.166000,(-9 68 38 -7 12 36 -14 -57)
1969/12/31/18:00:09.166000,(5 -128 -119 -34 5 3 3 15)
1969/12/31/18:00:09.178000,(97 127 122 81 11 9 27 92)
1969/12/31/18:00:09.178000,(-29 -49 -13 -14 -34 -10 -18 -26)
1969/12/31/18:00:09.187000,(63 -33 -37 -7 7 -13 6 48)
1969/12/31/18:00:09.187000,(-28 -125 -94 -30 -15 -12 -9 -21)
1969/12/31/18:00:09.209000,(-93 -40 -101 -39 -5 10 1 -31)
1969/12/31/18:00:09.209000,(18 127 97 48 19 9 6 -28)
1969/12/31/18:00:09.211000,(37 -42 26 15 -5 -27 18 62)
1969/12/31/18:00:09.211000,(-8 36 11 8 36 41 -22 -26)
1969/12/31/18:00:09.224000,(42 56 53 11 21 52 55 76)
1969/12/31/18:00:09.224000,(-26 -89 -43 -45 -44 -25 1 -4)
1969/12/31/18:00:09.226000,(2 -29 -41 -3 45 7 7 4)
1969/12/31/18:00:09.226000,(-43 -38 6 -9 -50 -36 -24 -20)
1969/12/31/18:00:09.238000,(-1 10 -6 -6 -9 5 0 2)
1969/12/31/18:00:09.238000,(43 37 15 5 6 -2 11 26)
1969/12/31/18:00:09.247000,(-35 -64 -40 0 11 -6 5 -4)
1969/12/31/18:00:09.247000,(26 89 77 31 25 31 18 26)
1969/12/31/18:00:09.261000,(4 104 93 27 -2 -6 -2 -44)
1969/12/31/18:00:09.261000,(41 119 103 27 -12 -22 -8 -14)
1969/12/31/18:00:09.268000,(-56 -128 -128 -49 -5 -7 -20 6)
1969/12/31/18:00:09.268000,(8 58 48 15 -1 7 21 -2)
1969/12/31/18:00:09.284000,(32 62 60 38 27 25 2 3)
1969/12/31/18:00:09.284000,(17 -83 -51 7 1 -11 -3 -17)
1969/12/31/18:00:09.286000,(-14 -68 -76 -26 10 23 -7 -9)
1969/12/31/18:00:09.286000,(-15 47 64 16 5 0 27 45)
1969/12/31/18:00:09.298000,(-2 -41 -46 -28 -23 -8 7 11)
1969/12/31/18:00:09.298000,(3 9 1 14 -10 -35 -21 -27)
1969/12/31/18:00:09.307000,(32 -52 -29 -19 8 34 -8 6)
1969/12/31/18:00:09.307000,(-41 -111 -67 -6 0 -37 -31 -42)
1969/12/31/18:00:09.321000,(16 37 -21 -20 -3 32 31 63)
1969/12/31/18:00:09.321000,(-7 35 25 1 1 -4 -33 -40)
1969/12/31/18:00:09.328000,(-12 4 10 -2 -27 -13 -4 -12)
1969/12/31/18:00:09.328000,(2 37 -20 0 12 5 6 -54)
1969/12/31/18:00:09.344000,(-5 21 58 31 6 2 19 25)
1969/12/31/18:00:09.344000,(-39 -128 -120 -43 -18 -8 -9 -16)
1969/12/31/18:00:09.346000,(12 127 120 32 0 -7 -4 -28)
1969/12/31/18:00:09.346000,(-20 -101 -37 -13 -19 -26 -9 -17)
1969/12/31/18:00:09.367000,(-8 -41 -51 -29 -21 -17 -45 -66)
1969/12/31/18:00:09.367000,(-13 58 69 27 28 25 21 19)
1969/12/31/18:00:09.368000,(-31 -70 -29 16 20 16 26 46)
1969/12/31/18:00:09.368000,(28 -27 -23 -37 -44 -16 8 11)
1969/12/31/18:00:09.380000,(-22 -67 -61 -17 4 -3 -14 2)
1969/12/31/18:00:09.380000,(-41 -28 -14 -16 -17 -2 -2 0)
1969/12/31/18:00:09.389000,(13 89 50 12 1 -18 -13 -24)
1969/12/31/18:00:09.389000,(-26 -55 -42 13 41 9 3 12)
1969/12/31/18:00:09.404000,(7 -51 -22 -11 -42 -43 -42 32)
1969/12/31/18:00:09.404000,(46 101 66 21 33 30 1 -27)
1969/12/31/18:00:09.406000,(-14 -53 -40 -21 -14 17 8 -34)
1969/12/31/18:00:09.406000,(-3 -46 -49 -28 -32 -29 -3 25)
1969/12/31/18:00:09.427000,(6 -13 -15 4 3 9 -9 -7)
1969/12/31/18:00:09.427000,(4 74 2 -10 -3 -22 -7 15)
1969/12/31/18:00:09.428000,(14 -57 -18 3 -2 -14 -8 22)
1969/12/31/18:00:09.428000,(0 74 22 9 17 21 -1 -21)
1969/12/31/18:00:09.441000,(-10 -41 5 6 32 9 15 8)
1969/12/31/18:00:09.441000,(19 -91 -118 -52 -54 -40 -12 -28)
1969/12/31/18:00:09.448000,(4 127 120 41 4 13 22 -6)
1969/12/31/18:00:09.448000,(42 51 20 -4 -13 -13 0 19)
1969/12/31/18:00:09.464000,(14 -16 -36 -13 -2 -18 -5 -9)
1969/12/31/18:00:09.464000,(-46 -65 4 20 39 33 23 4)
1969/12/31/18:00:09.466000,(-23 -98 -96 -50 -57 -29 -37 -27)
1969/12/31/18:00:09.466000,(17 -7 -5 6 12 14 8 9)
1969/12/31/18:00:09.487000,(53 106 97 45 35 26 24 36)
1969/12/31/18:00:09.487000,(-22 -85 -35 -15 -19 -10 -13 -13)
1969/12/31/18:00:09.488000,(-6 -76 -43 14 12 -19 -7 10)
1969/12/31/18:00:09.488000,(9 89 73 4 -6 38 40 35)
1969/12/31/18:00:09.501000,(-31 -82 -67 -24 2 -9 1 -2)
1969/12/31/18:00:09.501000,(-5 -7 -68 -26 -24 5 -11 -5)
1969/12/31/18:00:09.508000,(13 23 75 27 10 12 13 34)
1969/12/31/18:00:09.508000,(24 41 -3 7 1 -24 -35 -23)
1969/12/31/18:00:09.524000,(-46 -60 -31 -14 -13 9 28 -10)
1969/12/31/18:00:09.524000,(19 -72 -45 1 3 -18 2 41)
1969/12/31/18:00:09.526000,(-51 -59 -30 -11 -2 3 0 -1)
1969/12/31/18:00:09.526000,(-26 27 -5 -1 -1 -7 -40 -87)
1969/12/31/18:00:09.547000,(20 31 42 17 5 -6 -9 -8)
1969/12/31/18:00:09.547000,(-39 -62 -30 -2 28 10 8 -9)
1969/12/31/18:00:09.548000,(23 15 -15 -14 -44 -4 -8 7)
1969/12/31/18:00:09.548000,(-23 21 50 14 -1 -18 3 14)
1969/12/31/18:00:09.561000,(-2 -89 -84 -32 -22 -2 5 33)
1969/12/31/18:00:09.561000,(8 92 64 41 51 44 -4 -5)
1969/12/31/18:00:09.568000,(14 -50 -44 -13 -10 -24 26 -19)
1969/12/31/18:00:09.568000,(1 58 57 -19 -44 -20 -27 -7)
1969/12/31/18:00:09.583000,(-82 -63 -28 -6 -23 -32 -26 -58)
1969/12/31/18:00:09.583000,(81 90 31 10 -4 14 28 57)
1969/12/31/18:00:09.592000,(14 -25 -19 -3 9 -16 2 17)
1969/12/31/18:00:09.592000,(-33 -128 -106 -23 13 10 -11 -9)
1969/12/31/18:00:09.607000,(-7 127 44 14 4 7 18 21)
1969/12/31/18:00:09.607000,(16 -5 1 4 -13 -9 -22 -17)
1969/12/31/18:00:09.608000,(-14 -38 -68 -5 29 7 -1 -14)
1969/12/31/18:00:09.608000,(21 60 47 32 8 27 17 -18)
1969/12/31/18:00:09.620000,(-13 -77 -32 -30 -20 1 -26 -25)
1969/12/31/18:00:09.620000,(-21 62 -58 -31 -36 -23 -11 -19)
1969/12/31/18:00:09.629000,(72 127 127 66 22 16 26 52)
1969/12/31/18:00:09.629000,(-17 -128 -96 6 15 -10 -1 7)
1969/12/31/18:00:09.644000,(16 -83 -70 -28 -3 6 -15 -38)
1969/12/31/18:00:09.644000,(7 88 77 27 36 1 10 6)
1969/12/31/18:00:09.646000,(-69 -109 -57 -44 -40 7 6 -31)
1969/12/31/18:00:09.646000,(46 22 -7 -2 0 -16 -5 6)
1969/12/31/18:00:09.667000,(40 115 103 60 82 31 -5 -20)
1969/12/31/18:00:09.667000,(-30 -96 -14 -42 -70 18 5 -3)
1969/12/31/18:00:09.673000,(-10 -21 -25 -14 15 24 9 -8)
1969/12/31/18:00:09.673000,(-19 4 32 9 2 -6 4 0)
1969/12/31/18:00:09.680000,(8 -42 -67 -21 -24 -26 -38 -42)
1969/12/31/18:00:09.680000,(-4 81 120 51 30 -3 -7 -14)
1969/12/31/18:00:09.689000,(34 39 -36 -28 -5 -4 7 25)
1969/12/31/18:00:09.689000,(-17 -7 -1 -9 -3 -1 -11 16)
1969/12/31/18:00:09.704000,(3 -23 -41 -3 3 -6 12 11)
1969/12/31/18:00:09.704000,(-48 -103 -18 -3 -7 -14 -18 -38)
1969/12/31/18:00:09.706000,(12 -1 -63 -9 -17 -21 -37 -65)
1969/12/31/18:00:09.706000,(24 31 59 34 41 34 -11 -3)
1969/12/31/18:00:09.727000,(-31 -5 -56 -26 -25 12 33 8)
1969/12/31/18:00:09.727000,(-23 -77 -33 -3 10 2 0 6)
1969/12/31/18:00:09.728000,(-33 -36 -32 -28 -23 -29 -38 -22)
1969/12/31/18:00:09.728000,(-11 -34 -2 7 -3 -16 -23 -19)
1969/12/31/18:00:09.740000,(31 37 -8 8 5 24 48 68)
1969/12/31/18:00:09.740000,(20 66 60 11 -16 -3 13 9)
1969/12/31/18:00:09.757000,(25 14 34 22 20 -27 -47 -4)
1969/12/31/18:00:09.757000,(-43 -122 -121 -46 -31 -9 2 9)
1969/12/31/18:00:09.764000,(41 40 40 26 23 24 1 32)
1969/12/31/18:00:09.764000,(16 -13 -21 -12 -13 -21 11 14)
1969/12/31/18:00:09.766000,(-3 17 28 22 28 8 25 17)
1969/12/31/18:00:09.766000,(7 -48 -26 -11 -12 21 8 14)
1969/12/31/18:00:09.787000,(-64 -128 -61 -22 -10 -11 -18 -51)
1969/12/31/18:00:09.787000,(-9 87 34 1 -1 -6 7 -36)
1969/12/31/18:00:09.788000,(-8 -64 -27 -8 7 3 -25 -45)
1969/12/31/18:00:09.788000,(39 79 34 23 21 2 21 34)
1969/12/31/18:00:09.800000,(-23 -63 -5 -12 -17 -15 -4 0)
1969/12/31/18:00:09.800000,(16 -40 -79 -17 0 -6 -29 12)
1969/12/31/18:00:09.809000,(6 80 91 27 12 4 46 39)
1969/12/31/18:00:09.809000,(-13 -89 -82 -18 -4 10 -16 -14)
1969/12/31/18:00:09.824000,(21 81 34 2 8 9 4 23)
1969/12/31/18:00:09.824000,(-11 -45 37 13 -22 -11 18 28)
1969/12/31/18:00:09.826000,(26 74 45 19 21 17 -1 12)
1969/12/31/18:00:09.826000,(-1 -55 -62 -33 -25 -31 -9 6)
1969/12/31/18:00:09.847000,(-27 76 74 33 31 14 0 -20)
1969/12/31/18:00:09.847000,(-10 -25 -16 1 10 6 -11 -17)
1969/12/31/18:00:09.848000,(-21 -66 -72 -21 -6 -7 20 0)
1969/12/31/18:00:09.848000,(2 99 100 44 13 26 5 12)
1969/12/31/18:00:09.869000,(0 -71 -52 -43 -64 -28 -10 -2)
1969/12/31/18:00:09.869000,(2 -13 -37 3 15 32 6 -2)
1969/12/31/18:00:09.871000,(20 78 32 -5 -14 3 4 -6)
1969/12/31/18:00:09.871000,(-35 -116 -49 -2 21 -9 13 41)
1969/12/31/18:00:09.884000,(-6 65 35 13 5 -24 -34 -65)
1969/12/31/18:00:09.884000,(39 31 32 13 -16 -3 -15 11)
1969/12/31/18:00:09.886000,(-40 -67 -39 -17 -21 -18 -29 -30)
1969/12/31/18:00:09.886000,(-19 -11 0 3 13 18 20 -19)
1969/12/31/18:00:09.907000,(3 -63 -33 -28 -33 -7 11 9)
1969/12/31/18:00:09.907000,(23 2 -47 -9 38 -6 8 39)
1969/12/31/18:00:09.908000,(-4 9 4 16 -19 2 -30 -31)
1969/12/31/18:00:09.908000,(-5 92 57 14 21 6 4 -15)
1969/12/31/18:00:09.921000,(50 -73 -20 -3 -11 -16 -4 15)
1969/12/31/18:00:09.921000,(-39 3 -41 -18 -6 4 -4 -47)
1969/12/31/18:00:09.929000,(-19 10 -14 -6 10 -1 9 7)
1969/12/31/18:00:09.929000,(71 103 81 18 -3 -16 6 48)
1969/12/31/18:00:09.944000,(1 -37 -47 3 9 11 26 38)
1969/12/31/18:00:09.944000,(-3 9 14 -6 -1 -1 -16 -27)
1969/12/31/18:00:09.946000,(-6 -40 -25 -16 -12 13 -7 -19)
1969/12/31/18:00:09.946000,(-26 -35 -9 -11 -13 1 11 -2)
1969/12/31/18:00:09.967000,(-19 -59 -31 16 39 11 -22 -30)
1969/12/31/18:00:09.967000,(-5 -17 -27 -18 -43 -25 7 21)
1969/12/31/18:00:09.968000,(19 31 47 15 15 9 16 26)
1969/12/31/18:00:09.968000,(-33 4 -4 27 26 2 -19 -61)
1969/12/31/18:00:09.981000,(42 72 43 16 -4 -16 20 39)
1969/12/31/18:00:09.981000,(1 0 4 -6 -13 16 -7 -24)
1969/12/31/18:00:09.990000,(-15 -67 -29 0 19 -8 -3 14)
1969/12/31/18:00:09.990000,(-70 -125 -128 -83 -57 -21 -18 -59)
1969/12/31/18:00:10.004000,(-9 107 102 43 19 18 10 -25)
1969/12/31/18:00:10.004000,(2 51 30 27 28 17 15 29)
1969/12/31/18:00:10.006000,(31 47 36 -1 -15 -20 -18 -28)
1969/12/31/18:00:10.006000,(7 -40 -6 14 -7 1 12 43)
1969/12/31/18:00:10.027000,(-31 -121 -105 -40 0 -22 0 38)
1969/12/31/18:00:10.027000,(4 34 26 -5 3 16 -15 -3)
1969/12/31/18:00:10.028000,(27 64 54 14 -5 0 14 53)
1969/12/31/18:00:10.028000,(-48 -88 -91 -36 -13 -16 -18 -41)
1969/12/31/18:00:10.040000,(45 110 91 28 16 22 8 13)
1969/12/31/18:00:10.040000,(12 48 56 34 17 -13 -8 -34)
1969/12/31/18:00:10.049000,(-22 -86 -91 -33 -1 11 -9 -21)
1969/12/31/18:00:10.049000,(23 85 97 54 32 11 12 15)
1969/12/31/18:00:10.064000,(-32 -105 -79 -7 -6 12 -5 -19)
1969/12/31/18:00:10.064000,(-39 -128 -116 -54 -30 -19 -11 -16)
1969/12/31/18:00:10.066000,(2 113 126 57 18 4 31 -1)
1969/12/31/18:00:10.066000,(5 -23 0 -4 -3 8 -17 -16)
1969/12/31/18:00:10.087000,(-4 8 -1 -2 0 -23 -15 -10)
1969/12/31/18:00:10.087000,(-29 -102 -45 -4 25 21 -2 -8)
1969/12/31/18:00:10.088000,(-11 1 -42 -59 -57 -13 -1 -26)
1969/12/31/18:00:10.088000,(22 35 21 -3 -12 -1 14 24)
1969/12/31/18:00:10.100000,(-7 -33 -45 -2 27 -17 -10 -8)
1969/12/31/18:00:10.100000,(-19 11 43 26 1 -1 15 2)
1969/12/31/18:00:10.109000,(40 8 3 13 26 21 -5 34)
1969/12/31/18:00:10.109000,(31 79 35 -3 -9 -21 8 26)
1969/12/31/18:00:10.124000,(-47 -13 9 6 -36 -15 -8 -34)
1969/12/31/18:00:10.124000,(23 66 87 24 5 -7 -1 25)
1969/12/31/18:00:10.130000,(-67 -107 -96 -29 3 0 -24 -50)
1969/12/31/18:00:10.130000,(29 102 75 28 4 -7 1 9)
1969/12/31/18:00:10.147000,(55 21 6 -8 1 15 2 39)
1969/12/31/18:00:10.147000,(-11 -111 -118 -26 -2 -15 12 37)
1969/12/31/18:00:10.148000,(2 43 29 22 -3 2 -9 2)
1969/12/31/18:00:10.148000,(-41 -87 -55 -13 7 1 -21 -23)
1969/12/31/18:00:10.160000,(-3 13 -27 -14 -15 21 25 6)
1969/12/31/18:00:10.160000,(-6 7 7 15 9 4 4 -2)
1969/12/31/18:00:10.177000,(14 -104 -46 -18 25 27 15 46)
1969/12/31/18:00:10.177000,(24 0 -43 -9 -24 -20 16 9)
1969/12/31/18:00:10.183000,(19 79 72 -9 3 17 5 17)
1969/12/31/18:00:10.183000,(-10 -100 -128 -58 -28 -22 -29 -29)
1969/12/31/18:00:10.190000,(46 125 127 77 30 4 18 25)
1969/12/31/18:00:10.190000,(8 -54 -19 19 36 7 -6 -1)
1969/12/31/18:00:10.207000,(10 -24 -10 -3 -42 6 -6 -8)
1969/12/31/18:00:10.207000,(-28 -63 -78 -41 -38 -18 15 51)
1969/12/31/18:00:10.208000,(12 -29 -6 6 13 16 6 2)
1969/12/31/18:00:10.208000,(6 95 57 13 2 -11 -14 -17)
1969/12/31/18:00:10.220000,(12 33 15 -7 2 -12 -27 -30)
1969/12/31/18:00:10.220000,(-7 -71 -13 -6 5 -1 0 2)
1969/12/31/18:00:10.229000,(-6 -76 -59 -20 -26 -19 -10 8)
1969/12/31/18:00:10.229000,(-7 -18 -6 10 45 32 -3 -17)
1969/12/31/18:00:10.243000,(-31 88 85 35 -23 -51 12 12)
1969/12/31/18:00:10.243000,(21 79 48 13 -16 -10 -21 -35)
1969/12/31/18:00:10.250000,(-3 -4 5 -18 -5 18 -2 20)
1969/12/31/18:00:10.250000,(5 15 5 -15 -10 -2 -9 0)
1969/12/31/18:00:10.267000,(13 -55 -83 -27 20 21 20 28)
1969/12/31/18:00:10.267000,(15 34 45 32 17 -19 2 -13)
1969/12/31/18:00:10.268000,(-43 -103 -61 -11 7 4 11 -7)
1969/12/31/18:00:10.268000,(-18 -3 14 -11 -31 -18 -34 -47)
1969/12/31/18:00:10.289000,(-27 -115 -59 -15 -18 -11 8 5)
1969/12/31/18:00:10.289000,(27 126 80 30 7 6 3 18)
1969/12/31/18:00:10.291000,(-9 -14 -20 -3 7 15 19 -16)
1969/12/31/18:00:10.291000,(-40 -121 -95 -37 -15 -4 -1 -26)
1969/12/31/18:00:10.304000,(-11 60 46 14 9 27 -14 -36)
1969/12/31/18:00:10.304000,(-23 -121 -95 -27 -4 7 4 28)
1969/12/31/18:00:10.306000,(-17 127 98 36 1 -6 -6 -57)
1969/12/31/18:00:10.306000,(1 8 23 11 3 -15 4 5)
1969/12/31/18:00:10.327000,(-31 -113 -97 -30 -2 -6 -4 6)
1969/12/31/18:00:10.327000,(42 118 82 23 28 13 12 1)
1969/12/31/18:00:10.328000,(42 -91 -60 -8 -20 -25 -21 45)
1969/12/31/18:00:10.328000,(18 4 12 4 -13 7 25 20)
1969/12/31/18:00:10.349000,(3 59 69 27 49 24 -17 -34)
1969/12/31/18:00:10.349000,(-30 -39 -8 -11 -23 3 15 -14)
1969/12/31/18:00:10.351000,(40 5 -32 -24 -18 -52 0 20)
1969/12/31/18:00:10.351000,(-9 -82 -48 -9 -8 3 -43 -20)
1969/12/31/18:00:10.364000,(13 -77 -70 -16 7 8 -2 -17)
1969/12/31/18:00:10.364000,(58 117 86 43 33 19 3 -16)
1969/12/31/18:00:10.366000,(-7 85 72 4 -20 -16 12 31)
1969/12/31/18:00:10.366000,(-38 -81 -60 -16 -13 -12 7 -11)
1969/12/31/18:00:10.386000,(-9 7 -31 -5 0 -9 -10 9)
1969/12/31/18:00:10.386000,(22 5 30 2 9 37 -2 17)
1969/12/31/18:00:10.395000,(7 -42 -64 -5 1 -16 5 34)
1969/12/31/18:00:10.395000,(-33 40 37 -14 -17 14 4 -43)
1969/12/31/18:00:10.409000,(38 72 65 21 -1 -8 -8 -1)
1969/12/31/18:00:10.409000,(-11 -9 2 7 -17 -24 -2 8)
1969/12/31/18:00:10.411000,(-46 -57 -38 -25 -4 13 -16 -39)
1969/12/31/18:00:10.411000,(13 -73 -34 3 23 14 1 16)
1969/12/31/18:00:10.424000,(-1 29 -32 -17 -5 -20 -4 -39)
1969/12/31/18:00:10.424000,(5 43 48 38 -3 2 4 -11)
1969/12/31/18:00:10.426000,(47 -32 -1 18 18 31 18 31)
1969/12/31/18:00:10.426000,(14 -55 -30 -10 -3 3 26 49)
1969/12/31/18:00:10.447000,(-47 -70 -53 -41 -37 -34 -31 2)
1969/12/31/18:00:10.447000,(0 -41 -44 -26 -4 -8 -17 -48)
1969/12/31/18:00:10.448000,(11 80 43 13 10 -1 -11 -12)
1969/12/31/18:00:10.448000,(3 -7 -7 19 34 19 22 36)
1969/12/31/18:00:10.469000,(15 29 30 7 -14 3 4 29)
1969/12/31/18:00:10.469000,(-14 -21 -51 -26 -3 0 11 -5)
1969/12/31/18:00:10.471000,(-13 18 -1 -2 -1 5 -9 -11)
1969/12/31/18:00:10.471000,(37 62 28 16 20 18 -10 -5)
1969/12/31/18:00:10.483000,(-14 -85 -41 6 11 -3 3 -2)
1969/12/31/18:00:10.483000,(-34 26 36 20 -2 5 -5 0)
1969/12/31/18:00:10.492000,(-10 -128 -127 -47 -29 -7 -3 -35)
1969/12/31/18:00:10.492000,(27 127 111 41 6 -3 8 -7)
1969/12/31/18:00:10.507000,(-7 -53 -2 7 -9 -43 -8 -39)
1969/12/31/18:00:10.507000,(-19 -105 -57 -32 -4 36 7 -7)
1969/12/31/18:00:10.513000,(-33 -14 -28 -20 1 -8 2 0)
1969/12/31/18:00:10.513000,(-10 17 15 14 -6 -14 -7 -1)
1969/12/31/18:00:10.529000,(19 10 -11 -2 13 18 18 31)
1969/12/31/18:00:10.529000,(33 -24 12 6 6 -16 -6 34)
1969/12/31/18:00:10.531000,(-36 -43 -56 -22 -20 -1 3 -7)
1969/12/31/18:00:10.531000,(8 66 66 35 15 4 9 -25)
1969/12/31/18:00:10.544000,(0 25 4 5 -9 -8 -6 1)
1969/12/31/18:00:10.544000,(24 -103 -112 -35 -20 -36 -2 34)
1969/12/31/18:00:10.550000,(-19 102 100 32 3 17 -32 -20)
1969/12/31/18:00:10.550000,(13 21 -15 -14 -8 -5 10 9)
1969/12/31/18:00:10.567000,(-60 -41 -19 -1 17 20 16 -9)
1969/12/31/18:00:10.567000,(1 36 33 22 13 10 4 -4)
1969/12/31/18:00:10.568000,(-7 -128 -123 -47 -18 -21 4 20)
1969/12/31/18:00:10.568000,(7 93 69 49 29 -16 -16 -28)
1969/12/31/18:00:10.589000,(25 74 93 24 -13 36 -2 3)
1969/12/31/18:00:10.589000,(-9 -65 -59 -38 -27 -13 8 37)
1969/12/31/18:00:10.591000,(7 -57 3 11 21 22 15 -2)
1969/12/31/18:00:10.591000,(-20 -70 -84 -44 -18 -10 6 9)
1969/12/31/18:00:10.604000,(43 78 55 40 32 -11 -13 1)
1969/12/31/18:00:10.604000,(-7 15 24 6 -1 19 15 -17)
1969/12/31/18:00:10.610000,(10 23 2 7 10 12 1 5)
1969/12/31/18:00:10.610000,(2 8 35 24 -3 14 15 16)
1969/12/31/18:00:10.627000,(-34 -63 -63 -34 -1 -3 -6 -22)
1969/12/31/18:00:10.627000,(12 -28 -61 -17 -11 -10 -20 6)
1969/12/31/18:00:10.628000,(48 105 102 35 14 3 25 5)
1969/12/31/18:00:10.628000,(-3 -82 -73 -29 -12 -15 -22 11)
1969/12/31/18:00:10.649000,(0 -19 24 19 10 31 15 1)
1969/12/31/18:00:10.649000,(-1 -35 -64 -26 2 9 12 5)
1969/12/31/18:00:10.651000,(-37 10 39 16 -5 12 -31 -77)
1969/12/31/18:00:10.651000,(-12 -70 -48 -28 -13 -25 -14 6)
1969/12/31/18:00:10.663000,(34 46 -42 -8 1 7 11 23)
1969/12/31/18:00:10.663000,(45 29 42 29 1 -14 20 42)
1969/12/31/18:00:10.672000,(-26 -89 -28 2 -2 -15 -5 14)
1969/12/31/18:00:10.672000,(13 3 3 -6 -10 8 3 -15)
1969/12/31/18:00:10.687000,(3 -96 -70 -26 -1 -21 -24 30)
1969/12/31/18:00:10.687000,(-12 32 16 -6 4 -2 -9 -20)
1969/12/31/18:00:10.689000,(12 8 2 -4 -11 -10 -1 0)
1969/12/31/18:00:10.689000,(-14 -22 -21 -35 -18 11 4 10)
1969/12/31/18:00:10.709000,(-20 -8 6 14 4 17 16 -16)
1969/12/31/18:00:10.709000,(12 45 -7 14 4 -30 -45 -22)
1969/12/31/18:00:10.711000,(39 127 106 26 20 30 25 17)
1969/12/31/18:00:10.711000,(-58 -128 -99 -40 -29 -17 -3 -11)
1969/12/31/18:00:10.724000,(16 -51 -69 -37 -25 -9 -9 -9)
1969/12/31/18:00:10.724000,(12 124 127 79 33 5 16 23)
1969/12/31/18:00:10.731000,(-14 -126 -104 -28 1 -15 -3 23)
1969/12/31/18:00:10.731000,(19 -70 -62 -16 -6 0 4 12)
1969/12/31/18:00:10.754000,(-4 35 36 3 -2 -4 2 4)
1969/12/31/18:00:10.754000,(-19 -58 -38 -10 -2 8 -9 -18)
1969/12/31/18:00:10.756000,(15 52 6 5 -1 -10 0 10)
1969/12/31/18:00:10.756000,(-11 23 38 11 -3 -8 8 3)
1969/12/31/18:00:10.769000,(-38 -51 -17 -3 -1 -2 -44 -38)
1969/12/31/18:00:10.769000,(8 -16 -19 -15 4 6 34 -2)
1969/12/31/18:00:10.771000,(-11 39 1 6 -3 -21 -24 -34)
1969/12/31/18:00:10.771000,(44 118 101 40 11 19 27 24)
1969/12/31/18:00:10.783000,(-39 -41 -16 4 -4 20 -13 -70)
1969/12/31/18:00:10.783000,(-28 -10 -1 -8 -1 -6 -8 -16)
1969/12/31/18:00:10.792000,(-10 -128 -105 -62 -32 -12 -16 -8)
1969/12/31/18:00:10.792000,(-5 -50 -24 2 -4 -10 3 -1)
1969/12/31/18:00:10.807000,(37 127 87 69 39 -7 15 14)
1969/12/31/18:00:10.807000,(19 -15 1 5 -17 -2 -2 -5)
1969/12/31/18:00:10.808000,(-49 -54 -21 10 11 15 8 -9)
1969/12/31/18:00:10.808000,(-15 -64 -37 -28 -8 -5 -16 1)
1969/12/31/18:00:10.829000,(23 -96 -81 -43 -17 3 13 16)
1969/12/31/18:00:10.829000,(-25 -39 -53 -24 -5 -8 -10 -12)
1969/12/31/18:00:10.831000,(33 105 112 65 26 -6 15 23)
1969/12/31/18:00:10.831000,(-11 -85 -40 -19 -4 -3 -22 -17)
1969/12/31/18:00:10.843000,(40 102 65 13 -5 -7 3 17)
1969/12/31/18:00:10.843000,(-43 -75 -51 -12 4 -4 0 -5)
1969/12/31/18:00:10.852000,(29 15 -2 -1 5 15 15 22)
1969/12/31/18:00:10.852000,(-19 -19 -21 4 -4 -5 -23 -10)
1969/12/31/18:00:10.867000,(-37 -59 -95 -33 20 29 -6 -26)
1969/12/31/18:00:10.867000,(-12 -29 14 -4 -13 17 17 -3)
1969/12/31/18:00:10.873000,(39 59 0 9 -8 -14 -4 13)
1969/12/31/18:00:10.873000,(10 -17 -8 20 11 -21 -11 -10)
1969/12/31/18:00:10.889000,(7 -128 -81 -34 -29 -5 2 1)
1969/12/31/18:00:10.889000,(15 2 -29 -17 -1 -1 -19 -5)
1969/12/31/18:00:10.891000,(-37 23 36 7 3 0 0 -12)
1969/12/31/18:00:10.891000,(-7 -91 -91 -39 0 1 11 -1)
1969/12/31/18:00:10.903000,(-22 102 39 11 -4 -8 11 4)
1969/12/31/18:00:10.903000,(53 77 81 41 13 5 -3 0)
1969/12/31/18:00:10.912000,(-1 -83 -4 1 7 8 25 6)
1969/12/31/18:00:10.912000,(-17 3 27 6 -4 2 -3 -11)
1969/12/31/18:00:10.927000,(23 -18 -5 -21 -6 3 13 17)
1969/12/31/18:00:10.927000,(4 0 -6 -4 -23 -11 -4 22)
1969/12/31/18:00:10.928000,(-10 -1 -24 -8 0 -23 -11 -21)
1969/12/31/18:00:10.928000,(-16 18 10 10 6 30 19 12)
1969/12/31/18:00:10.949000,(15 26 -7 -24 -19 -11 34 6)
1969/12/31/18:00:10.949000,(-25 -28 -20 30 53 2 -17 -15)
1969/12/31/18:00:10.951000,(-13 -46 -38 -18 -38 -5 -22 15)
1969/12/31/18:00:10.951000,(-5 51 26 21 22 8 -2 -3)
1969/12/31/18:00:10.963000,(-18 -10 7 -1 -8 -6 -11 8)
1969/12/31/18:00:10.963000,(41 83 82 12 4 -11 -2 12)
1969/12/31/18:00:10.972000,(-20 -55 -51 -20 0 14 10 -16)
1969/12/31/18:00:10.972000,(36 33 8 18 13 5 -8 13)
1969/12/31/18:00:10.987000,(-11 -70 -18 -9 -16 -18 -12 6)
1969/12/31/18:00:10.987000,(-8 -10 -7 -9 -2 7 -12 -20)
1969/12/31/18:00:10.988000,(43 20 1 7 9 30 63 27)
1969/12/31/18:00:10.988000,(-9 9 8 -11 -26 -25 -15 -16)
1969/12/31/18:00:11.009000,(17 34 37 21 27 50 -41 -1)
1969/12/31/18:00:11.009000,(-36 -53 -43 -22 -12 -33 2 -10)
1969/12/31/18:00:11.011000,(-4 24 13 -21 -15 38 -4 -26)
1969/12/31/18:00:11.011000,(22 16 -5 -4 -9 -42 -4 21)
1969/12/31/18:00:11.023000,(-1 -47 -15 16 11 6 5 5)
1969/12/31/18:00:11.023000,(-12 64 54 13 17 12 -16 -25)
1969/12/31/18:00:11.038000,(-3 32 46 12 -5 -14 -30 -4)
1969/12/31/18:00:11.038000,(15 -3 -15 -14 -4 3 -9 0)
1969/12/31/18:00:11.054000,(-33 10 20 12 -1 -28 -13 -6)
1969/12/31/18:00:11.054000,(-2 -37 -29 -11 -4 12 17 4)
1969/12/31/18:00:11.056000,(45 56 29 3 -1 -25 -14 -4)
1969/12/31/18:00:11.056000,(-14 -11 -13 -5 -4 2 13 8)
1969/12/31/18:00:11.070000,(-11 10 23 10 2 -9 0 5)
1969/12/31/18:00:11.070000,(-21 -61 -36 -13 -4 20 12 -24)
1969/12/31/18:00:11.071000,(-34 -22 -18 -4 0 -35 -47 3)
1969/12/31/18:00:11.071000,(51 63 5 -5 -4 -4 -14 4)
1969/12/31/18:00:11.092000,(-16 -13 -4 -4 5 12 46 -15)
1969/12/31/18:00:11.092000,(-3 2 2 -5 -7 18 -41 1)
1969/12/31/18:00:11.093000,(-31 -61 -32 -8 -10 0 -25 -16)
1969/12/31/18:00:11.093000,(3 26 22 3 9 17 -31 -16)
1969/12/31/18:00:11.107000,(4 8 8 10 0 -28 42 7)
1969/12/31/18:00:11.107000,(-16 -28 -10 -19 -42 -24 -20 1)
1969/12/31/18:00:11.108000,(26 6 -2 28 56 36 9 -9)
1969/12/31/18:00:11.108000,(-18 -15 -8 6 1 -12 17 10)
1969/12/31/18:00:11.129000,(43 54 35 7 -3 25 1 7)
1969/12/31/18:00:11.129000,(-55 -73 -43 -10 -4 -29 -5 -5)
1969/12/31/18:00:11.131000,(-10 1 -16 -20 -22 -16 0 -4)
1969/12/31/18:00:11.131000,(-9 17 11 -1 -2 7 -5 -19)
1969/12/31/18:00:11.143000,(50 -1 0 2 2 -18 -13 41)
1969/12/31/18:00:11.143000,(29 34 11 3 2 5 18 31)
1969/12/31/18:00:11.152000,(-4 -28 -13 -8 -7 -7 5 1)
1969/12/31/18:00:11.152000,(-20 -7 2 5 10 16 -1 -8)
1969/12/31/18:00:11.166000,(-12 7 9 3 -4 -5 -7 -3)
1969/12/31/18:00:11.166000,(11 -2 -4 0 5 2 -1 -2)
1969/12/31/18:00:11.173000,(-7 9 3 2 1 -8 -12 -22)
1969/12/31/18:00:11.173000,(2 -6 0 4 3 3 13 58)
1969/12/31/18:00:11.189000,(-27 -14 -9 -5 -6 -6 -20 -40)
1969/12/31/18:00:11.189000,(-18 -12 -7 -2 4 5 4 7)
1969/12/31/18:00:11.191000,(19 -9 -8 -2 0 -2 8 -1)
1969/12/31/18:00:11.191000,(4 9 -5 -6 -9 -5 -7 -30)
1969/12/31/18:00:11.203000,(1 -4 2 -1 -1 -2 -1 1)
1969/12/31/18:00:11.203000,(6 8 -4 -2 3 -1 2 -1)
1969/12/31/18:00:11.212000,(-27 1 6 2 -1 0 -2 1)
1969/12/31/18:00:11.212000,(14 0 0 2 1 8 14 2)
1969/12/31/18:00:11.234000,(-73 -69 -36 -16 -9 -10 -18 -26)
1969/12/31/18:00:11.235000,(66 25 7 9 7 8 16 23)
1969/12/31/18:00:11.236000,(5 63 48 14 4 1 11 22)
1969/12/31/18:00:11.236000,(-9 -17 -21 -11 -8 -5 -4 -15)
1969/12/31/18:00:11.249000,(8 16 20 6 1 0 -1 0)
1969/12/31/18:00:11.249000,(2 -18 -16 -3 2 3 7 12)
1969/12/31/18:00:11.251000,(2 -15 -11 -2 0 0 3 -7)
1969/12/31/18:00:11.251000,(19 12 17 10 9 12 23 80)
1969/12/31/18:00:11.272000,(22 7 -5 -5 -4 -3 -1 23)
1969/12/31/18:00:11.272000,(-12 -11 -10 -7 -4 -4 -5 -5)
1969/12/31/18:00:11.273000,(3 -7 -1 0 0 -1 4 8)
1969/12/31/18:00:11.273000,(9 -4 0 1 0 1 1 -13)
1969/12/31/18:00:11.286000,(-17 -2 2 4 0 0 -1 -9)
1969/12/31/18:00:11.286000,(8 15 9 1 0 0 3 0)
1969/12/31/18:00:11.293000,(-7 -14 -15 -8 -7 -8 -5 -5)
1969/12/31/18:00:11.293000,(-20 -15 -8 -4 -1 -3 -5 -24)
1969/12/31/18:00:11.309000,(18 15 4 0 0 0 0 13)
1969/12/31/18:00:11.309000,(-12 8 6 0 0 -4 -7 -25)
1969/12/31/18:00:11.311000,(0 -13 -10 -2 -3 0 -3 3)
1969/12/31/18:00:11.311000,(-12 -7 -4 -3 -2 -2 -3 -18)
1969/12/31/18:00:11.332000,(8 6 4 1 0 1 -3 -8)
1969/12/31/18:00:11.332000,(-2 1 -3 -4 0 -1 3 2)
1969/12/31/18:00:11.333000,(-10 -16 -11 -1 -1 0 -3 -6)
1969/12/31/18:00:11.333000,(-5 3 2 -2 -3 -2 -1 -14)
1969/12/31/18:00:11.346000,(-3 2 -1 4 -1 -3 -3 -1)
1969/12/31/18:00:11.346000,(-2 -4 -1 -1 -3 -2 -1 8)
1969/12/31/18:00:11.353000,(9 -3 -6 -6 0 2 4 4)
1969/12/31/18:00:11.353000,(-26 -2 -2 0 -5 -7 -16 -53)
1969/12/31/18:00:11.369000,(5 3 2 3 1 -1 -1 4)
1969/12/31/18:00:11.369000,(-8 -2 2 4 1 3 1 -8)
1969/12/31/18:00:11.371000,(-1 -6 -2 0 0 -1 1 1)
1969/12/31/18:00:11.371000,(9 0 -1 -2 2 6 12 10)
1969/12/31/18:00:11.392000,(-13 -8 -6 -7 -6 -4 -4 -7)
1969/12/31/18:00:11.392000,(1 5 -17 -11 -4 -6 -5 -12)
1969/12/31/18:00:11.393000,(9 -4 6 12 3 -4 -9 6)
1969/12/31/18:00:11.393000,(6 29 51 18 6 4 0 9)
1969/12/31/18:00:11.405000,(7 -1 -5 -3 -2 3 12 13)
1969/12/31/18:00:11.405000,(-7 -40 -23 -9 -6 -2 -7 -4)
1969/12/31/18:00:11.415000,(-8 22 -6 -13 -5 0 0 -15)
1969/12/31/18:00:11.415000,(-4 -7 -6 -4 -4 -8 -17 -11)
1969/12/31/18:00:11.430000,(4 3 1 4 2 -1 -2 3)
1969/12/31/18:00:11.430000,(6 4 10 3 -2 -1 6 14)
1969/12/31/18:00:11.431000,(-3 -24 -21 -4 2 3 0 -1)
1969/12/31/18:00:11.431000,(-2 -2 -8 -5 0 -1 -3 -6)
1969/12/31/18:00:11.451000,(0 11 3 -10 -6 -5 0 -6)
1969/12/31/18:00:11.451000,(-9 -8 -2 1 2 0 -15 -15)
1969/12/31/18:00:11.452000,(2 0 8 1 -2 -5 6 11)
1969/12/31/18:00:11.452000,(1 -10 -12 -5 -4 -4 -4 3)
1969/12/31/18:00:11.465000,(-2 4 1 -1 3 6 4 0)
1969/12/31/18:00:11.465000,(-7 5 5 -8 -4 -4 5 -3)
1969/12/31/18:00:11.473000,(3 12 11 8 0 -2 -2 0)
1969/12/31/18:00:11.473000,(-3 -23 -10 -1 1 7 5 5)
1969/12/31/18:00:11.489000,(-5 -23 -51 -12 -10 -9 -6 -2)
1969/12/31/18:00:11.489000,(4 47 56 18 5 3 3 -1)
1969/12/31/18:00:11.489000,(-3 -18 -28 -17 -4 -1 -3 -2)
1969/12/31/18:00:11.489000,(-6 12 17 2 -1 0 2 -7)
1969/12/31/18:00:11.511000,(1 -7 -8 -1 1 -3 6 10)
1969/12/31/18:00:11.511000,(-4 -6 -17 -5 -1 -6 -14 -18)
1969/12/31/18:00:11.512000,(0 -4 3 -1 -11 1 4 6)
1969/12/31/18:00:11.512000,(-9 -20 -28 -13 -5 -4 -12 -20)
1969/12/31/18:00:11.526000,(6 9 18 1 -4 -1 2 9)
1969/12/31/18:00:11.526000,(-1 5 8 8 2 -3 -5 -4)
1969/12/31/18:00:11.533000,(-4 -8 -17 -9 -1 3 7 -3)
1969/12/31/18:00:11.533000,(3 3 5 6 -1 -2 1 7)
1969/12/31/18:00:11.549000,(0 7 14 5 6 8 1 -3)
1969/12/31/18:00:11.549000,(-3 -11 -14 -5 -6 -7 -4 3)
1969/12/31/18:00:11.549000,(-4 -14 -8 -6 -6 -5 14 -2)
1969/12/31/18:00:11.549000,(5 2 1 -3 -1 0 -14 -4)
1969/12/31/18:00:11.571000,(-1 0 0 3 1 -4 -5 -1)
1969/12/31/18:00:11.571000,(-5 11 1 4 2 5 4 -3)
1969/12/31/18:00:11.572000,(0 -36 -8 1 2 2 2 5)
1969/12/31/18:00:11.572000,(5 47 27 5 4 4 8 7)
1969/12/31/18:00:11.585000,(5 4 12 5 1 -1 0 1)
1969/12/31/18:00:11.585000,(-1 -15 -19 -4 0 2 4 2)
1969/12/31/18:00:11.593000,(-10 8 5 0 -3 -5 -14 -15)
1969/12/31/18:00:11.593000,(0 -16 -16 -5 -2 -2 11 8)
1969/12/31/18:00:11.609000,(-7 -16 -10 -5 -2 -1 -14 -12)
1969/12/31/18:00:11.609000,(4 -2 1 -5 -4 -4 3 6)
1969/12/31/18:00:11.610000,(1 9 -2 -5 0 -4 -11 -4)
1969/12/31/18:00:11.610000,(0 -11 -8 0 0 -1 3 1)
1969/12/31/18:00:11.631000,(1 9 8 4 2 0 5 3)
1969/12/31/18:00:11.631000,(-10 -20 -3 3 2 1 -1 -3)
1969/12/31/18:00:11.632000,(9 36 19 6 5 0 -3 -3)
1969/12/31/18:00:11.632000,(-4 -6 -6 -5 -4 -2 2 1)
1969/12/31/18:00:11.645000,(0 -13 -10 -4 -1 1 4 2)
1969/12/31/18:00:11.645000,(-5 9 -12 -10 -3 -2 -8 -3)
1969/12/31/18:00:11.653000,(-3 -14 -4 -3 -1 0 -7 -10)
1969/12/31/18:00:11.653000,(2 27 18 -1 -3 -1 2 2)
1969/12/31/18:00:11.669000,(2 -2 23 10 4 1 -1 0)
1969/12/31/18:00:11.669000,(3 1 -9 3 2 2 6 9)
1969/12/31/18:00:11.669000,(-3 -7 -3 8 1 -1 1 0)
1969/12/31/18:00:11.669000,(3 3 -1 -2 -4 -2 0 1)
1969/12/31/18:00:11.698000,(-18 -29 -23 -18 -7 -3 -9 -15)
1969/12/31/18:00:11.698000,(5 3 7 1 0 0 0 -1)
1969/12/31/18:00:11.707000,(0 18 19 7 1 -1 -3 -1)
1969/12/31/18:00:11.707000,(5 -15 -15 -8 -4 -2 2 6)
1969/12/31/18:00:11.708000,(-3 5 -1 -4 1 -4 -3 -2)
1969/12/31/18:00:11.708000,(-14 -18 -8 0 -9 -1 0 -11)
1969/12/31/18:00:11.713000,(5 7 -3 -6 -5 -1 4 10)
1969/12/31/18:00:11.713000,(-18 -21 -12 -9 -3 -6 -17 -22)
1969/12/31/18:00:11.729000,(1 -23 27 13 4 1 2 4)
1969/12/31/18:00:11.729000,(20 74 19 15 10 4 4 8)
1969/12/31/18:00:11.729000,(0 -6 -3 0 2 -4 -1 -3)
1969/12/31/18:00:11.729000,(2 -4 -5 -9 -3 0 5 6)
1969/12/31/18:00:11.759000,(-8 -5 -14 -13 -10 -6 -6 -8)
1969/12/31/18:00:11.759000,(-6 -21 -14 -11 -3 -3 -3 -4)
1969/12/31/18:00:11.760000,(-2 -2 25 17 5 3 1 -1)
1969/12/31/18:00:11.760000,(6 46 20 17 5 1 1 1)
1969/12/31/18:00:11.765000,(-2 3 0 2 0 -1 -1 -4)
1969/12/31/18:00:11.765000,(1 -13 -13 -16 -9 -2 4 3)
1969/12/31/18:00:11.781000,(-11 -25 -34 -34 -15 -9 -7 -5)
1969/12/31/18:00:11.781000,(-1 -12 -2 16 7 0 -3 -8)
1969/12/31/18:00:11.789000,(14 46 2 20 15 10 7 8)
1969/12/31/18:00:11.789000,(-1 6 11 3 0 -3 -2 1)
1969/12/31/18:00:11.789000,(-9 -17 -9 -6 -1 -5 -6 -8)
1969/12/31/18:00:11.789000,(-12 -29 -13 -8 -6 -3 0 -3)
1969/12/31/18:00:11.811000,(2 20 -7 -30 -11 -4 -3 0)
1969/12/31/18:00:11.811000,(-2 -10 -15 8 1 -3 -5 -4)
1969/12/31/18:00:11.812000,(5 3 3 12 6 4 2 2)
1969/12/31/18:00:11.812000,(0 -3 -1 4 0 1 2 3)
1969/12/31/18:00:11.825000,(1 8 10 7 3 0 -1 -3)
1969/12/31/18:00:11.825000,(-9 -29 -11 -18 -7 -1 0 -1)
1969/12/31/18:00:11.833000,(4 22 18 0 -3 -1 -3 -1)
1969/12/31/18:00:11.833000,(0 -1 -9 -4 0 1 1 2)
1969/12/31/18:00:11.849000,(-2 -13 -1 -3 -2 -2 0 -1)
1969/12/31/18:00:11.849000,(2 5 14 6 5 2 -3 3)
1969/12/31/18:00:11.849000,(0 6 -1 1 -4 0 -1 -2)
1969/12/31/18:00:11.849000,(-3 -10 -2 -5 -6 -3 -1 -1)
1969/12/31/18:00:11.871000,(-8 -30 -23 -14 -8 -3 -4 -5)
1969/12/31/18:00:11.871000,(15 41 30 27 13 6 5 5)
1969/12/31/18:00:11.872000,(0 12 13 10 8 3 2 1)
1969/12/31/18:00:11.872000,(0 -9 -5 3 2 1 2 4)
1969/12/31/18:00:11.886000,(-3 3 4 1 -6 -4 -5 -8)
1969/12/31/18:00:11.886000,(-4 -17 -6 -10 -6 -4 -2 -5)
1969/12/31/18:00:11.894000,(-2 -2 -18 -15 -3 -1 -1 -1)
1969/12/31/18:00:11.894000,(3 7 -7 -4 1 4 3 6)
1969/12/31/18:00:11.909000,(-6 1 11 5 1 -1 -2 -5)
1969/12/31/18:00:11.909000,(3 -8 5 5 3 1 2 0)
1969/12/31/18:00:11.909000,(-5 -2 -9 -23 -8 -5 -3 -7)
1969/12/31/18:00:11.909000,(2 -6 -11 1 -2 0 2 4)
1969/12/31/18:00:11.931000,(5 15 6 11 3 -3 -3 -1)
1969/12/31/18:00:11.931000,(-1 -5 3 -2 -2 -2 -2 -2)
1969/12/31/18:00:11.932000,(-1 2 -9 -1 -3 -3 -4 -1)
1969/12/31/18:00:11.932000,(1 -6 13 2 5 2 2 1)
1969/12/31/18:00:11.946000,(2 -1 1 3 -1 2 0 2)
1969/12/31/18:00:11.946000,(-12 -11 -9 -3 -2 -4 -4 -10)
1969/12/31/18:00:11.954000,(3 0 2 6 0 -1 -3 -1)
1969/12/31/18:00:11.954000,(1 5 -3 -10 -5 -4 -3 -6)
1969/12/31/18:00:11.969000,(3 1 6 6 4 3 4 7)
1969/12/31/18:00:11.969000,(-7 -15 -9 -9 -5 -1 -2 -2)
1969/12/31/18:00:11.969000,(-2 -2 -5 0 1 0 -1 -1)
1969/12/31/18:00:11.969000,(-4 -4 -3 -3 -2 -1 -5 -5)
1969/12/31/18:00:11.991000,(1 -1 1 2 1 2 4 2)
1969/12/31/18:00:11.991000,(1 4 4 0 1 -1 0 3)
1969/12/31/18:00:11.992000,(-5 -5 -3 3 -1 -1 -1 -3)
1969/12/31/18:00:11.992000,(1 3 7 5 1 -1 0 -1)
1969/12/31/18:00:12.006000,(1 4 -4 -5 -6 -3 -3 0)
1969/12/31/18:00:12.006000,(-3 -4 -12 -11 -3 -1 -2 -4)
1969/12/31/18:00:12.014000,(5 9 5 6 3 1 3 4)
1969/12/31/18:00:12.014000,(-3 -3 6 4 1 -2 -1 -2)
1969/12/31/18:00:12.029000,(-2 -5 -7 -6 -2 -2 0 -1)
1969/12/31/18:00:12.029000,(-4 -7 -6 -5 -2 0 2 -1)
1969/12/31/18:00:12.029000,(4 10 13 8 2 0 -2 -1)
1969/12/31/18:00:12.029000,(0 5 -8 -2 -2 0 1 0)
1969/12/31/18:00:12.059000,(-7 -10 -15 -6 -4 -3 -5 -6)
1969/12/31/18:00:12.059000,(3 8 -1 0 0 1 -1 0)
1969/12/31/18:00:12.060000,(-2 -9 1 2 0 -1 -1 0)
1969/12/31/18:00:12.060000,(2 5 5 -1 -2 -2 -2 0)
1969/12/31/18:00:12.065000,(1 5 3 -1 2 1 -1 0)
1969/12/31/18:00:12.065000,(-1 -4 1 1 -1 -1 1 2)
1969/12/31/18:00:12.074000,(-5 -5 -5 -2 -3 -1 -2 -3)
1969/12/31/18:00:12.074000,(0 1 -1 0 -1 -1 -1 -1)
1969/12/31/18:00:12.089000,(0 2 -2 -2 -1 0 1 2)
1969/12/31/18:00:12.089000,(-3 -3 -2 -4 -5 -1 -1 1)
1969/12/31/18:00:12.089000,(0 0 6 7 3 1 0 -2)
1969/12/31/18:00:12.089000,(-3 -4 -15 -14 -5 -4 -1 2)
1969/12/31/18:00:12.119000,(-2 -4 13 13 2 -2 -2 -3)
1969/12/31/18:00:12.119000,(6 6 0 0 1 -2 -1 2)
1969/12/31/18:00:12.120000,(1 3 10 4 0 0 -1 -2)
1969/12/31/18:00:12.120000,(-2 -5 -3 -1 -3 -2 -2 -2)
1969/12/31/18:00:12.125000,(0 1 -3 -4 -2 -2 -1 -2)
1969/12/31/18:00:12.125000,(1 2 4 0 -1 0 0 0)
1969/12/31/18:00:12.134000,(-6 -9 -7 -5 -2 0 -1 -2)
1969/12/31/18:00:12.134000,(0 7 6 2 3 1 2 -2)
1969/12/31/18:00:12.149000,(0 1 -5 -3 -2 0 2 0)
1969/12/31/18:00:12.149000,(-1 -1 4 4 1 -1 -1 -4)
1969/12/31/18:00:12.149000,(-2 -2 -4 -5 -3 -4 -6 -6)
1969/12/31/18:00:12.149000,(-2 -5 -3 -4 -2 -1 -1 -3)
1969/12/31/18:00:12.179000,(1 1 -4 -5 -2 -1 -2 -3)
1969/12/31/18:00:12.179000,(-1 2 1 -1 -2 0 0 -2)
1969/12/31/18:00:12.180000,(-2 -5 -4 0 2 -2 -1 -1)
1969/12/31/18:00:12.180000,(-2 -1 -1 2 -2 -2 -2 -1)
1969/12/31/18:00:12.194000,(1 2 4 8 4 2 0 0)
1969/12/31/18:00:12.194000,(-2 -3 -3 -2 -3 -2 -1 1)
1969/12/31/18:00:12.195000,(-1 -4 -4 -4 -2 -2 -1 0)
1969/12/31/18:00:12.195000,(0 -1 3 2 1 -2 -1 1)
1969/12/31/18:00:12.209000,(-2 -3 -5 -6 -3 -3 -4 -3)
1969/12/31/18:00:12.209000,(-6 -9 -6 -6 -3 -1 -3 -3)
1969/12/31/18:00:12.209000,(-1 1 -1 -2 -2 -1 2 3)
1969/12/31/18:00:12.209000,(-4 -5 -9 -1 0 0 -2 -3)
1969/12/31/18:00:12.231000,(5 4 14 9 6 2 1 3)
1969/12/31/18:00:12.231000,(-2 0 0 -1 0 -2 -1 -1)
1969/12/31/18:00:12.232000,(-4 -7 -7 -4 -5 -2 -1 -1)
1969/12/31/18:00:12.232000,(1 -2 -3 -2 -2 -3 -3 -1)
1969/12/31/18:00:12.262000,(-2 0 -4 -4 -4 -1 -1 -1)
1969/12/31/18:00:12.262000,(1 5 6 1 0 0 -2 -1)
1969/12/31/18:00:12.263000,(1 -1 -1 1 1 0 2 2)
1969/12/31/18:00:12.263000,(-1 0 3 -3 -2 -2 -1 -4)
1969/12/31/18:00:12.268000,(0 -4 -2 1 0 1 3 -1)
1969/12/31/18:00:12.268000,(-3 -2 0 0 1 -1 -2 -4)
1969/12/31/18:00:12.269000,(-2 -2 -4 -5 -3 -1 -2 -2)
1969/12/31/18:00:12.269000,(0 -1 -1 1 1 0 -1 0)
1969/12/31/18:00:12.292000,(-3 -2 -4 -5 -4 -2 -2 -1)
1969/12/31/18:00:12.292000,(1 -2 -5 1 0 0 2 2)
1969/12/31/18:00:12.299000,(1 1 2 -4 -1 0 -1 -1)
1969/12/31/18:00:12.299000,(-2 -4 4 5 2 1 0 -1)
1969/12/31/18:00:12.314000,(-1 -1 -1 -3 0 0 0 1)
1969/12/31/18:00:12.314000,(2 3 5 1 -3 0 -1 3)
1969/12/31/18:00:12.315000,(-5 -5 -11 -8 -5 -4 -2 -6)
1969/12/31/18:00:12.315000,(1 -1 0 1 3 -1 1 0)
1969/12/31/18:00:12.329000,(2 1 -1 -2 -2 -2 0 -1)
1969/12/31/18:00:12.329000,(-3 -7 -7 -5 0 -1 -1 -2)
1969/12/31/18:00:12.329000,(3 5 -1 4 6 2 2 2)
1969/12/31/18:00:12.329000,(-4 -5 8 5 0 0 0 -3)
1969/12/31/18:00:12.351000,(1 5 0 3 1 0 0 -3)
1969/12/31/18:00:12.351000,(1 -2 1 -2 -1 0 0 0)
1969/12/31/18:00:12.352000,(1 1 5 4 0 0 0 1)
1969/12/31/18:00:12.352000,(-2 1 -7 -5 -3 -2 -2 -2)
1969/12/31/18:00:12.374000,(-2 -6 -4 -3 -4 -4 -1 -1)
1969/12/31/18:00:12.374000,(-3 -5 -7 -8 -6 -6 -4 -3)
1969/12/31/18:00:12.375000,(1 0 -2 -3 -5 -1 1 1)
1969/12/31/18:00:12.375000,(-4 1 -6 -6 -5 -2 -3 -4)
1969/12/31/18:00:12.389000,(1 2 9 6 0 1 -2 0)
1969/12/31/18:00:12.389000,(1 0 -6 1 2 2 2 0)
1969/12/31/18:00:12.389000,(-6 -3 2 -2 -1 -1 -3 -5)
1969/12/31/18:00:12.389000,(3 4 -1 -1 -1 -1 -1 2)
1969/12/31/18:00:12.411000,(-1 -1 -3 -3 0 -1 1 0)
1969/12/31/18:00:12.411000,(-2 -4 0 -3 -3 -1 -2 -2)
1969/12/31/18:00:12.412000,(1 2 0 2 0 3 -1 2)
1969/12/31/18:00:12.412000,(2 0 1 0 -3 1 1 0)
1969/12/31/18:00:12.434000,(-5 -7 -5 -1 0 -2 -5 -4)
1969/12/31/18:00:12.434000,(1 0 0 -2 -1 -2 -1 -1)
1969/12/31/18:00:12.435000,(0 1 4 1 1 -1 -2 0)
1969/12/31/18:00:12.435000,(-4 -1 1 1 0 -1 -3 -2)
1969/12/31/18:00:12.457000,(0 -2 -5 -5 -2 0 -1 -1)
1969/12/31/18:00:12.457000,(-1 1 0 0 -1 -1 1 -1)
1969/12/31/18:00:12.458000,(0 3 2 0 -1 0 -1 1)
1969/12/31/18:00:12.458000,(-3 -4 -1 -2 0 0 0 -2)
1969/12/31/18:00:12.473000,(1 1 -1 -1 1 0 2 3)
1969/12/31/18:00:12.473000,(-5 -4 -6 -5 -4 -3 -4 -6)
1969/12/31/18:00:12.473000,(-1 -3 -3 -1 -1 -2 0 -1)
1969/12/31/18:00:12.473000,(2 3 1 0 0 0 0 1)
1969/12/31/18:00:12.494000,(-4 -2 -3 -2 -4 -3 -2 0)
1969/12/31/18:00:12.494000,(2 2 5 3 3 0 1 3)
1969/12/31/18:00:12.495000,(-2 -4 -2 -4 -3 -2 -2 -3)
1969/12/31/18:00:12.495000,(1 0 -6 -5 -1 -1 0 0)
1969/12/31/18:00:12.508000,(-2 -2 3 -2 -3 -1 -2 -2)
1969/12/31/18:00:12.508000,(1 0 -2 -2 -4 -2 -1 -1)
1969/12/31/18:00:12.509000,(-2 -5 -5 4 0 -1 -1 -3)
1969/12/31/18:00:12.509000,(1 2 5 3 1 0 0 1)
1969/12/31/18:00:12.539000,(-3 -2 -5 -3 -2 -1 -2 -3)
1969/12/31/18:00:12.539000,(-4 -1 0 -3 -2 -2 -1 -2)
1969/12/31/18:00:12.540000,(2 5 3 3 0 2 1 1)
1969/12/31/18:00:12.540000,(0 -3 1 1 0 0 0 2)
1969/12/31/18:00:12.554000,(-4 -4 -5 -6 -1 -3 -3 -8)
1969/12/31/18:00:12.554000,(-5 -8 -11 -3 1 0 -2 -3)
1969/12/31/18:00:12.555000,(-2 -2 3 1 3 0 1 -1)
1969/12/31/18:00:12.555000,(-1 -3 1 2 -1 -2 -3 -1)
1969/12/31/18:00:12.569000,(3 5 4 1 -1 1 2 1)
1969/12/31/18:00:12.569000,(-2 -4 -3 -1 0 0 -1 -2)
1969/12/31/18:00:12.569000,(1 1 -3 -6 0 -1 0 -1)
1969/12/31/18:00:12.569000,(-3 -6 -8 -7 -2 -4 -5 -4)
1969/12/31/18:00:12.591000,(-1 -3 0 0 0 -1 0 1)
1969/12/31/18:00:12.591000,(2 5 2 5 1 -1 1 0)
1969/12/31/18:00:12.592000,(1 2 4 1 -2 -2 0 -1)
1969/12/31/18:00:12.592000,(-2 -6 -8 -3 2 -1 0 -2)
1969/12/31/18:00:12.622000,(-4 -2 1 1 0 1 -1 -1)
1969/12/31/18:00:12.622000,(-2 -3 -1 -4 -2 0 -1 0)
1969/12/31/18:00:12.623000,(3 8 4 0 -2 -3 -3 1)
1969/12/31/18:00:12.623000,(-2 1 0 0 2 0 -2 -2)
1969/12/31/18:00:12.629000,(-4 -3 -6 -6 -3 -2 -2 -1)
1969/12/31/18:00:12.629000,(-1 -2 1 3 3 2 1 0)
1969/12/31/18:00:12.629000,(-4 -4 -6 -7 -3 -1 -1 -4)
1969/12/31/18:00:12.629000,(-1 -3 -3 -3 -2 -2 0 -1)
1969/12/31/18:00:12.651000,(3 4 -1 1 2 0 -3 1)
1969/12/31/18:00:12.651000,(1 -4 6 2 -1 -1 -1 -1)
1969/12/31/18:00:12.652000,(-2 -4 -4 -3 -5 -1 -2 0)
1969/12/31/18:00:12.652000,(0 0 0 1 -1 1 -1 -1)
1969/12/31/18:00:12.674000,(0 0 0 1 -3 0 1 0)
1969/12/31/18:00:12.674000,(-1 3 2 1 0 0 -1 -1)
1969/12/31/18:00:12.675000,(-1 -2 0 3 1 1 -1 0)
1969/12/31/18:00:12.675000,(-4 -8 -3 -3 -2 -1 -1 -1)
1969/12/31/18:00:12.689000,(1 1 3 0 1 -1 0 0)
1969/12/31/18:00:12.689000,(-6 -2 -1 -1 -1 -2 -1 -1)
1969/12/31/18:00:12.689000,(1 1 1 0 -1 0 0 0)
1969/12/31/18:00:12.689000,(7 12 3 -1 -1 -2 -1 1)
1969/12/31/18:00:12.711000,(-3 -6 -5 -4 -1 0 -2 -1)
1969/12/31/18:00:12.711000,(1 0 -1 1 1 -2 0 -3)
1969/12/31/18:00:12.712000,(-4 -7 -2 -2 1 -2 -1 -3)
1969/12/31/18:00:12.712000,(-4 -5 -3 -3 -4 0 -1 -1)
1969/12/31/18:00:12.735000,(-1 -1 -1 -1 -1 -1 -3 -2)
1969/12/31/18:00:12.735000,(0 0 1 0 1 1 -2 0)
1969/12/31/18:00:12.736000,(0 -2 -1 0 1 -1 2 1)
1969/12/31/18:00:12.736000,(0 0 0 -1 -1 1 -1 -1)
1969/12/31/18:00:12.749000,(0 -1 0 0 -1 -1 0 0)
1969/12/31/18:00:12.749000,(0 1 -1 -2 -1 0 -3 -1)
1969/12/31/18:00:12.750000,(-2 -3 -4 -3 0 0 -2 -1)
1969/12/31/18:00:12.750000,(-1 -1 -1 -3 -1 0 0 -1)
1969/12/31/18:00:12.771000,(-1 3 4 3 -1 -1 -1 0)
1969/12/31/18:00:12.771000,(1 -2 -2 0 2 1 0 0)
1969/12/31/18:00:12.772000,(0 1 -1 -2 -3 0 -1 0)
1969/12/31/18:00:12.772000,(-4 -1 -3 -2 -4 -3 -1 -2)
1969/12/31/18:00:12.802000,(3 -3 3 1 3 0 1 0)
1969/12/31/18:00:12.802000,(1 1 6 -1 0 0 1 -1)
1969/12/31/18:00:12.803000,(0 2 2 1 -1 0 0 1)
1969/12/31/18:00:12.803000,(-7 -12 -11 -2 -1 -3 -5 -6)
1969/12/31/18:00:12.808000,(0 2 -3 -6 -2 -3 -2 -2)
1969/12/31/18:00:12.808000,(2 0 -1 -4 -4 -1 -2 1)
1969/12/31/18:00:12.816000,(-7 -10 -7 -3 0 -2 -4 -4)
1969/12/31/18:00:12.816000,(1 -1 -2 4 0 0 1 4)
1969/12/31/18:00:12.839000,(0 1 0 0 -1 -2 -2 -1)
1969/12/31/18:00:12.839000,(-2 -3 -1 -2 -1 -3 -2 -1)
1969/12/31/18:00:12.840000,(1 3 -1 -6 -4 1 -1 0)
1969/12/31/18:00:12.840000,(2 4 3 4 2 0 1 1)
1969/12/31/18:00:12.854000,(-6 -6 -3 -2 -2 1 -1 -1)
1969/12/31/18:00:12.854000,(0 1 2 2 0 0 1 1)
1969/12/31/18:00:12.855000,(0 -1 -3 -2 -1 -3 -3 -2)
1969/12/31/18:00:12.855000,(-1 2 5 1 0 -1 0 -1)
1969/12/31/18:00:12.868000,(0 -2 -4 -2 -2 0 0 -1)
1969/12/31/18:00:12.868000,(0 0 -1 4 1 0 0 2)
1969/12/31/18:00:12.876000,(-1 -1 -2 -3 -2 -1 -2 -1)
1969/12/31/18:00:12.876000,(-1 0 3 0 3 2 0 -1)
1969/12/31/18:00:12.892000,(-1 0 -2 -4 -5 -2 -1 -3)
1969/12/31/18:00:12.892000,(-1 -1 -3 1 1 1 -1 -1)
1969/12/31/18:00:12.892000,(0 1 1 0 -4 -1 0 0)
1969/12/31/18:00:12.892000,(0 -3 2 -1 -1 -3 -2 0)
1969/12/31/18:00:12.914000,(-1 -1 -3 -3 -3 -2 -2 0)
1969/12/31/18:00:12.914000,(-1 2 0 0 -2 -1 -2 1)
1969/12/31/18:00:12.915000,(1 0 2 2 0 2 -1 1)
1969/12/31/18:00:12.915000,(1 0 0 -2 -1 0 0 -1)
1969/12/31/18:00:12.928000,(0 -2 -2 1 3 0 0 -1)
1969/12/31/18:00:12.928000,(-4 -3 -3 -7 -4 -2 -3 -3)
1969/12/31/18:00:12.936000,(0 2 3 4 2 0 2 0)
1969/12/31/18:00:12.936000,(0 1 0 3 0 0 0 -1)
1969/12/31/18:00:12.936000,(-3 -8 -10 -12 -4 -4 -4 -4)
1969/12/31/18:00:12.936000,(-1 -3 -20 -25 -8 -5 -3 -3)
1969/12/31/18:00:12.937000,(3 4 9 4 -5 -3 -1 -1)
1969/12/31/18:00:12.937000,(-1 0 -14 5 9 3 2 -2)
1969/12/31/18:00:12.949000,(-2 -5 16 11 -1 -2 3 3)
1969/12/31/18:00:12.949000,(-3 0 -10 -25 -5 15 9 -2)
1969/12/31/18:00:12.958000,(-1 2 8 6 -5 -23 -17 -6)
1969/12/31/18:00:12.958000,(-3 -5 1 9 -2 0 3 3)
1969/12/31/18:00:12.973000,(-2 -5 -14 -7 -6 1 0 -3)
1969/12/31/18:00:12.973000,(-3 -5 -22 -14 1 -4 6 -1)
1969/12/31/18:00:12.974000,(3 5 21 14 11 20 -5 4)
1969/12/31/18:00:12.974000,(5 5 15 10 0 -6 4 12)
1969/12/31/18:00:12.996000,(-4 -1 -7 -9 -2 -3 -11 -15)
1969/12/31/18:00:12.996000,(-9 -5 -10 -12 -9 -8 -9 -13)
1969/12/31/18:00:13.002000,(-6 -10 -20 -19 -12 1 2 -3)
1969/12/31/18:00:13.002000,(0 -2 0 -9 -5 -10 0 3)
1969/12/31/18:00:13.009000,(-5 -12 -18 -83 -19 -2 -2 4)
1969/12/31/18:00:13.009000,(3 10 -10 72 -9 -9 -5 -4)
1969/12/31/18:00:13.018000,(17 25 73 68 58 28 27 28)
1969/12/31/18:00:13.018000,(1 -5 -9 -16 -11 17 6 -5)
1969/12/31/18:00:13.033000,(-12 -3 -8 -10 -1 -27 -24 -20)
1969/12/31/18:00:13.033000,(-3 -6 -9 -9 3 -3 -7 -8)
1969/12/31/18:00:13.034000,(-11 -11 -32 -12 -11 -9 1 -16)
1969/12/31/18:00:13.034000,(4 10 15 12 12 -5 -12 2)
1969/12/31/18:00:13.055000,(0 -7 -10 -9 -5 7 11 8)
1969/12/31/18:00:13.055000,(-4 -11 -12 -12 10 -3 -1 7)
1969/12/31/18:00:13.057000,(-6 1 10 -18 -30 -5 -5 -19)
1969/12/31/18:00:13.057000,(-5 -9 14 19 3 8 0 -4)
1969/12/31/18:00:13.069000,(2 -12 -3 12 3 1 5 5)
1969/12/31/18:00:13.069000,(3 -3 13 9 7 0 11 20)
1969/12/31/18:00:13.078000,(1 -3 -19 -18 -5 -6 -5 -1)
1969/12/31/18:00:13.078000,(-4 8 -8 -16 -10 -11 -20 -20)
1969/12/31/18:00:13.093000,(1 12 13 31 19 12 4 3)
1969/12/31/18:00:13.093000,(-2 -1 4 -9 -9 -2 0 -1)
1969/12/31/18:00:13.095000,(0 0 -17 -17 -3 2 4 6)
1969/12/31/18:00:13.095000,(0 2 1 2 1 -3 -3 -5)
1969/12/31/18:00:13.115000,(6 12 1 21 -3 1 8 6)
1969/12/31/18:00:13.115000,(8 11 3 -16 -1 4 -1 -2)
1969/12/31/18:00:13.117000,(0 5 -13 -3 1 -4 -5 -5)
1969/12/31/18:00:13.117000,(2 6 4 7 1 -3 -2 -1)
1969/12/31/18:00:13.129000,(1 7 4 4 3 4 1 1)
1969/12/31/18:00:13.129000,(-2 -3 0 -10 -5 -1 -7 -4)
1969/12/31/18:00:13.138000,(-1 -3 -1 3 3 -4 -5 -2)
1969/12/31/18:00:13.138000,(0 -4 -1 -4 -4 -1 9 6)
1969/12/31/18:00:13.153000,(-1 -3 -2 -3 -2 2 -1 -1)
1969/12/31/18:00:13.153000,(-4 -4 5 -2 -1 -1 -6 -4)
1969/12/31/18:00:13.155000,(-5 -5 -6 0 -4 -4 -3 0)
1969/12/31/18:00:13.155000,(-5 -4 -2 -7 2 2 2 1)
1969/12/31/18:00:13.176000,(-1 -1 -1 3 0 -1 -3 -3)
1969/12/31/18:00:13.176000,(-1 -2 4 3 1 -1 -3 -2)
1969/12/31/18:00:13.177000,(0 -6 -3 -2 0 1 2 2)
1969/12/31/18:00:13.177000,(-3 -5 -1 -4 -2 0 0 -1)
1969/12/31/18:00:13.189000,(-1 -3 3 11 2 0 -2 -2)
1969/12/31/18:00:13.189000,(-3 -7 1 1 -1 0 2 1)
1969/12/31/18:00:13.198000,(-2 -6 -5 -5 -3 -1 -1 -1)
1969/12/31/18:00:13.198000,(0 -3 0 0 -1 0 -1 -2)
1969/12/31/18:00:13.213000,(-2 -2 -1 5 0 -2 0 -1)
1969/12/31/18:00:13.213000,(-1 1 -1 -4 0 0 -1 -2)
1969/12/31/18:00:13.215000,(-2 -2 -5 -3 -1 -3 -4 -3)
1969/12/31/18:00:13.215000,(-2 0 0 0 -1 0 -3 0)
1969/12/31/18:00:13.235000,(0 2 2 2 0 0 1 1)
1969/12/31/18:00:13.235000,(-1 0 0 -2 -1 2 0 -1)
1969/12/31/18:00:13.237000,(1 0 -3 -1 0 0 1 2)
1969/12/31/18:00:13.237000,(-1 1 -6 -5 -5 -5 -2 0)
1969/12/31/18:00:13.249000,(1 3 1 2 1 1 0 -2)
1969/12/31/18:00:13.249000,(-5 -9 -8 -10 -5 2 12 10)
1969/12/31/18:00:13.266000,(3 4 0 2 -1 -3 -4 -3)
1969/12/31/18:00:13.266000,(-4 -3 -3 -5 -2 -1 3 2)
1969/12/31/18:00:13.272000,(-2 -2 -1 -4 -2 -1 -1 -1)
1969/12/31/18:00:13.272000,(2 3 1 1 -1 -2 -2 -1)
1969/12/31/18:00:13.279000,(-6 -2 -5 -1 1 1 4 2)
1969/12/31/18:00:13.279000,(6 5 3 4 1 -3 -4 -4)
1969/12/31/18:00:13.295000,(-2 -6 -4 -2 -3 -1 -2 -7)
1969/12/31/18:00:13.295000,(-9 -3 -1 -3 -2 -1 -2 -2)
1969/12/31/18:00:13.297000,(8 5 4 1 2 -2 -3 2)
1969/12/31/18:00:13.297000,(-4 1 0 -1 -1 4 4 -1)
1969/12/31/18:00:13.309000,(5 0 0 3 1 0 2 4)
1969/12/31/18:00:13.309000,(-8 5 6 6 6 -4 -15 -14)
1969/12/31/18:00:13.318000,(-13 0 -3 -1 -3 -1 -1 -3)
1969/12/31/18:00:13.318000,(10 2 -1 -1 -2 -1 9 2)
1969/12/31/18:00:13.332000,(4 -3 -4 -5 -4 -6 -18 -1)
1969/12/31/18:00:13.332000,(-17 -12 -3 -1 -1 2 -14 -19)
1969/12/31/18:00:13.339000,(5 2 2 0 -1 -3 -10 -6)
1969/12/31/18:00:13.339000,(-5 -9 -6 -5 -1 5 8 11)
1969/12/31/18:00:13.355000,(4 10 2 0 -1 4 5 -1)
1969/12/31/18:00:13.355000,(14 -3 5 5 2 3 1 14)
1969/12/31/18:00:13.357000,(-12 -3 -1 0 -2 -10 -2 -12)
1969/12/31/18:00:13.357000,(-3 -11 -9 -6 -2 5 9 8)
1969/12/31/18:00:13.369000,(8 7 1 1 -1 -3 -4 -5)
1969/12/31/18:00:13.369000,(-2 -4 -4 -3 -3 -8 -6 -9)
1969/12/31/18:00:13.378000,(-7 -7 -7 -7 -4 3 13 5)
1969/12/31/18:00:13.378000,(-25 10 16 9 4 -3 -7 -24)
1969/12/31/18:00:13.392000,(42 -4 -6 -4 -1 6 22 55)
1969/12/31/18:00:13.392000,(21 25 8 5 4 -7 -14 -8)
1969/12/31/18:00:13.399000,(-4 -10 1 -2 -2 -2 -7 -11)
1969/12/31/18:00:13.399000,(-16 -19 -12 -7 -4 3 0 17)
1969/12/31/18:00:13.415000,(-26 -16 4 3 3 -3 16 8)
1969/12/31/18:00:13.415000,(26 32 3 -3 -3 -6 -6 -20)
1969/12/31/18:00:13.421000,(-13 -16 -12 -5 -2 8 -2 11)
1969/12/31/18:00:13.421000,(0 -12 -6 0 2 2 2 -5)
1969/12/31/18:00:13.429000,(-15 10 3 -2 -7 -5 -11 -23)
1969/12/31/18:00:13.429000,(-25 -31 -10 -10 -8 -1 4 6)
1969/12/31/18:00:13.438000,(51 41 30 23 12 4 7 16)
1969/12/31/18:00:13.438000,(-42 -16 -16 -8 -3 0 -1 -29)
1969/12/31/18:00:13.452000,(-4 6 0 1 1 -3 -11 -9)
1969/12/31/18:00:13.453000,(-14 6 4 3 1 4 6 -10)
1969/12/31/18:00:13.459000,(0 -21 -5 -8 -10 -15 7 -11)
1969/12/31/18:00:13.459000,(53 18 5 3 7 18 12 38)
1969/12/31/18:00:13.483000,(-6 8 7 3 -4 -11 -8 3)
1969/12/31/18:00:13.483000,(-58 -42 -22 -12 -8 -17 -11 -29)
1969/12/31/18:00:13.484000,(3 34 16 6 8 13 3 -28)
1969/12/31/18:00:13.484000,(27 -5 -11 -5 -4 -11 -18 29)
1969/12/31/18:00:13.498000,(-4 22 1 -2 0 10 18 9)
1969/12/31/18:00:13.498000,(-9 -14 7 4 4 7 -6 -9)
1969/12/31/18:00:13.499000,(13 31 5 2 1 -3 -17 -2)
1969/12/31/18:00:13.499000,(-13 -20 2 2 -1 -11 -12 -25)
1969/12/31/18:00:13.512000,(-13 24 10 5 5 23 38 -49)
1969/12/31/18:00:13.512000,(31 6 -4 -7 -6 -18 -33 35)
1969/12/31/18:00:13.519000,(-17 -37 -18 -9 1 28 32 4)
1969/12/31/18:00:13.519000,(-41 -22 -9 -6 -6 -10 -30 -26)
1969/12/31/18:00:13.543000,(-2 -17 -6 -1 -6 -47 -32 -24)
1969/12/31/18:00:13.543000,(-14 0 7 11 10 31 31 6)
1969/12/31/18:00:13.544000,(8 -14 -26 -23 -20 -21 -37 -18)
1969/12/31/18:00:13.544000,(37 32 15 6 3 17 31 26)
1969/12/31/18:00:13.558000,(-29 -19 -2 2 1 -10 -43 -44)
1969/12/31/18:00:13.558000,(30 20 2 2 2 1 11 19)
1969/12/31/18:00:13.560000,(-33 -37 -9 2 4 5 5 18)
1969/12/31/18:00:13.560000,(6 21 7 3 -1 -5 7 -3)
1969/12/31/18:00:13.572000,(22 17 4 1 2 6 -3 5)
1969/12/31/18:00:13.572000,(-5 -16 -3 1 1 -8 -10 -27)
1969/12/31/18:00:13.579000,(12 12 3 -4 -3 5 9 16)
1969/12/31/18:00:13.579000,(-2 3 11 4 -2 -13 -5 -4)
1969/12/31/18:00:13.595000,(-8 -15 -6 2 5 14 2 5)
1969/12/31/18:00:13.595000,(15 -15 -16 -10 -7 16 17 46)
1969/12/31/18:00:13.597000,(-48 9 8 -2 -10 -32 -55 -73)
1969/12/31/18:00:13.597000,(-2 -11 -7 -3 3 -1 -17 -16)
1969/12/31/18:00:13.618000,(37 -2 -6 -9 -6 12 46 50)
1969/12/31/18:00:13.618000,(24 35 8 1 0 30 -31 10)
1969/12/31/18:00:13.620000,(-4 -7 -8 -3 -5 -15 -5 -2)
1969/12/31/18:00:13.620000,(-31 4 11 2 -2 -9 -1 -16)
1969/12/31/18:00:13.632000,(6 -1 -7 -1 3 13 8 36)
1969/12/31/18:00:13.632000,(-35 -50 -19 -10 -2 -7 15 -39)
1969/12/31/18:00:13.639000,(83 56 18 8 0 -4 9 55)
1969/12/31/18:00:13.639000,(5 -26 -14 -5 -2 7 1 6)
1969/12/31/18:00:13.655000,(-18 5 -2 -3 -5 -1 14 -3)
1969/12/31/18:00:13.655000,(48 18 11 5 1 -6 29 66)
1969/12/31/18:00:13.657000,(-29 -43 -11 1 4 4 3 24)
1969/12/31/18:00:13.657000,(-72 -9 -5 -6 -11 -23 -46 -78)
1969/12/31/18:00:13.678000,(41 17 4 -3 4 10 8 11)
1969/12/31/18:00:13.678000,(-21 22 9 1 -3 -3 19 7)
1969/12/31/18:00:13.679000,(-60 -18 -10 -6 -3 -2 -39 -54)
1969/12/31/18:00:13.679000,(22 -22 -9 -3 -4 -11 8 11)
1969/12/31/18:00:13.691000,(-61 -45 -8 3 2 0 -3 24)
1969/12/31/18:00:13.691000,(19 43 12 1 1 -3 -12 -78)
1969/12/31/18:00:13.700000,(17 -1 -5 -6 -5 4 30 43)
1969/12/31/18:00:13.700000,(32 23 8 3 3 5 9 26)
1969/12/31/18:00:13.715000,(-21 -2 -2 -3 -3 -8 -29 -25)
1969/12/31/18:00:13.715000,(27 1 3 3 2 -11 -1 39)
1969/12/31/18:00:13.717000,(24 -4 -8 -6 -2 2 -4 -11)
1969/12/31/18:00:13.717000,(-21 -9 0 3 5 8 19 51)
1969/12/31/18:00:13.738000,(88 -4 -11 -10 -10 -3 10 50)
1969/12/31/18:00:13.738000,(4 17 2 -5 -4 -9 -6 -7)
1969/12/31/18:00:13.739000,(-51 -31 -11 -6 -2 -1 4 -45)
1969/12/31/18:00:13.739000,(24 5 1 0 1 7 -3 18)
1969/12/31/18:00:13.751000,(-29 2 3 2 -2 -3 -5 -30)
1969/12/31/18:00:13.751000,(32 0 3 5 6 9 -6 19)
1969/12/31/18:00:13.760000,(44 28 4 -1 -2 -18 24 44)
1969/12/31/18:00:13.760000,(17 24 1 -2 0 24 38 13)
1969/12/31/18:00:13.775000,(1 -18 0 2 -1 -13 -45 -23)
1969/12/31/18:00:13.775000,(-30 0 -4 -7 -5 -3 5 -43)
1969/12/31/18:00:13.777000,(38 5 6 5 6 10 12 14)
1969/12/31/18:00:13.777000,(3 7 1 -2 -7 -15 -16 -15)
1969/12/31/18:00:13.798000,(-34 -9 -1 -2 -2 -3 -5 -35)
1969/12/31/18:00:13.798000,(-90 -33 -4 4 4 -1 -2 -29)
1969/12/31/18:00:13.800000,(44 29 13 9 5 13 -10 -21)
1969/12/31/18:00:13.800000,(28 10 -8 -11 -5 -1 -23 -48)
1969/12/31/18:00:13.812000,(-5 8 5 -2 -12 -50 47 19)
1969/12/31/18:00:13.812000,(37 -30 -14 -4 3 8 -77 21)
1969/12/31/18:00:13.820000,(-2 1 2 -1 0 9 -1 6)
1969/12/31/18:00:13.820000,(9 12 7 7 2 -5 2 20)
1969/12/31/18:00:13.835000,(-32 -29 -10 -4 -4 -15 -11 -13)
1969/12/31/18:00:13.835000,(31 23 1 -6 -11 3 31 34)
1969/12/31/18:00:13.837000,(-23 -15 -2 3 3 -4 1 7)
1969/12/31/18:00:13.837000,(6 -6 1 7 12 17 15 4)
1969/12/31/18:00:13.858000,(-8 -2 -6 -5 -2 4 5 -2)
1969/12/31/18:00:13.858000,(-33 -8 -4 -5 -14 -33 -8 -17)
1969/12/31/18:00:13.860000,(-32 -3 -1 -1 2 30 22 0)
1969/12/31/18:00:13.860000,(18 5 0 -3 -2 -1 10 30)
1969/12/31/18:00:13.871000,(-71 -3 2 2 3 7 -6 -54)
1969/12/31/18:00:13.872000,(6 -22 -12 -2 -1 -4 26 -28)
1969/12/31/18:00:13.881000,(-13 -5 -6 -8 -18 -47 -78 -30)
1969/12/31/18:00:13.881000,(-2 -2 7 13 22 15 -12 -12)
1969/12/31/18:00:13.895000,(30 14 5 2 -8 1 2 2)
1969/12/31/18:00:13.895000,(-24 -7 -8 -18 -33 -8 -8 -39)
1969/12/31/18:00:13.897000,(7 -12 -4 -1 -2 11 38 49)
1969/12/31/18:00:13.897000,(14 10 1 1 8 1 3 26)
1969/12/31/18:00:13.918000,(20 8 4 6 10 18 -29 -32)
1969/12/31/18:00:13.918000,(-2 -8 -2 -2 4 -16 18 72)
1969/12/31/18:00:13.919000,(53 30 10 3 1 7 59 40)
1969/12/31/18:00:13.920000,(-43 -47 -14 -5 -2 -23 -19 -41)
1969/12/31/18:00:13.931000,(10 0 -2 -1 -13 30 12 24)
1969/12/31/18:00:13.931000,(3 -2 5 12 20 -10 -3 -2)
1969/12/31/18:00:13.940000,(-52 -9 -1 0 2 2 -7 -42)
1969/12/31/18:00:13.940000,(44 20 4 18 29 -17 65 13)
1969/12/31/18:00:13.955000,(29 3 -2 -7 -22 45 -25 40)
1969/12/31/18:00:13.955000,(17 9 -11 -19 -26 -16 -12 -30)
1969/12/31/18:00:13.957000,(-23 -8 6 -2 1 -2 -49 -40)
1969/12/31/18:00:13.957000,(2 1 -1 -6 -15 7 -8 -22)
1969/12/31/18:00:13.978000,(78 0 -4 9 19 -14 5 28)
1969/12/31/18:00:13.978000,(-6 -7 1 8 30 2 19 52)
1969/12/31/18:00:13.979000,(-8 -4 2 0 -18 1 -1 -7)
1969/12/31/18:00:13.979000,(-28 0 5 17 30 -3 -22 6)
1969/12/31/18:00:13.991000,(-25 17 2 -26 -38 -11 -2 -27)
1969/12/31/18:00:13.991000,(-13 -34 -17 -15 -14 10 10 18)
1969/12/31/18:00:14.000000,(16 -14 1 6 12 -5 15 24)
1969/12/31/18:00:14.000000,(11 3 -5 -7 -2 0 -9 -15)
1969/12/31/18:00:14.015000,(-61 7 10 23 21 -9 -21 -56)
1969/12/31/18:00:14.015000,(14 25 11 4 3 4 10 -61)
1969/12/31/18:00:14.017000,(-6 -6 -1 0 16 -3 24 10)
1969/12/31/18:00:14.017000,(0 26 8 -3 -13 8 -19 -7)
1969/12/31/18:00:14.038000,(-15 -42 -18 -27 -55 -22 7 5)
1969/12/31/18:00:14.038000,(15 23 6 -3 -7 5 -10 -3)
1969/12/31/18:00:14.039000,(-47 -22 -10 2 18 -12 -46 -38)
1969/12/31/18:00:14.039000,(0 -3 -4 -6 -19 -11 -4 -5)
1969/12/31/18:00:14.052000,(23 15 -1 8 21 -8 -6 17)
1969/12/31/18:00:14.052000,(-43 -36 -10 9 23 21 19 13)
1969/12/31/18:00:14.060000,(34 13 2 9 -4 8 13 27)
1969/12/31/18:00:14.060000,(13 -17 -18 -25 -30 -22 -30 -4)
1969/12/31/18:00:14.075000,(-18 9 0 -5 3 4 10 7)
1969/12/31/18:00:14.075000,(-17 4 6 20 12 -3 -18 -64)
1969/12/31/18:00:14.077000,(38 -69 -78 -33 -19 -12 -19 0)
1969/12/31/18:00:14.077000,(-13 56 35 4 -9 16 14 38)
1969/12/31/18:00:14.097000,(44 58 43 35 49 -7 21 45)
1969/12/31/18:00:14.097000,(-32 -35 -41 -14 -16 15 -9 27)
1969/12/31/18:00:14.098000,(52 19 30 -9 -19 -15 3 53)
1969/12/31/18:00:14.098000,(-10 -33 -37 -8 -9 -11 9 -18)
1969/12/31/18:00:14.119000,(30 12 8 -18 1 5 -9 -25)
1969/12/31/18:00:14.119000,(-13 -42 -17 5 8 -1 9 9)
1969/12/31/18:00:14.120000,(-44 -22 -57 4 79 44 15 -21)
1969/12/31/18:00:14.120000,(-27 58 79 16 -53 -53 -26 -40)
1969/12/31/18:00:14.135000,(-14 -49 -18 3 2 40 32 38)
1969/12/31/18:00:14.135000,(23 72 28 -9 0 29 -13 -21)
1969/12/31/18:00:14.135000,(-27 12 45 12 -18 -19 21 24)
1969/12/31/18:00:14.135000,(13 -15 -30 -10 -3 -11 -40 -45)
1969/12/31/18:00:14.165000,(-9 -31 -59 -10 6 -22 -11 -17)
1969/12/31/18:00:14.166000,(-10 -23 48 12 -8 -17 5 17)
1969/12/31/18:00:14.166000,(22 46 -17 -6 -9 15 5 20)
1969/12/31/18:00:14.166000,(3 108 127 82 56 31 23 35)
1969/12/31/18:00:14.180000,(21 -115 -64 -11 -11 -5 -4 12)
1969/12/31/18:00:14.180000,(22 -20 -54 3 31 5 9 29)
1969/12/31/18:00:14.180000,(-37 60 52 -16 -60 -30 -18 -36)
1969/12/31/18:00:14.180000,(17 -90 -76 -20 24 10 21 58)
1969/12/31/18:00:14.194000,(-38 -3 -48 -27 -21 14 -29 -44)
1969/12/31/18:00:14.194000,(36 26 63 28 -1 41 44 79)
1969/12/31/18:00:14.202000,(26 -33 -38 -9 7 25 -2 -28)
1969/12/31/18:00:14.202000,(-3 11 -3 -31 -3 -13 -7 4)
1969/12/31/18:00:14.217000,(-93 -86 -66 -15 -10 -72 -35 -83)
1969/12/31/18:00:14.217000,(-47 73 -7 -2 -10 -13 -28 -92)
1969/12/31/18:00:14.218000,(22 105 111 62 20 42 7 -28)
1969/12/31/18:00:14.218000,(-17 -99 -92 -50 -29 11 7 -3)
1969/12/31/18:00:14.240000,(24 -11 -25 1 44 -7 -9 -6)
1969/12/31/18:00:14.240000,(-8 79 76 29 -43 -35 -8 -14)
1969/12/31/18:00:14.240000,(48 -83 -92 -22 -2 -13 2 21)
1969/12/31/18:00:14.240000,(-36 -21 52 21 7 28 -3 -37)
1969/12/31/18:00:14.263000,(-27 -71 -86 -28 -20 -32 -9 -18)
1969/12/31/18:00:14.263000,(58 51 40 11 10 9 2 41)
1969/12/31/18:00:14.263000,(-34 0 1 20 55 32 -15 4)
1969/12/31/18:00:14.264000,(18 -30 -16 -8 -40 -8 13 -7)
1969/12/31/18:00:14.277000,(-5 -76 -47 -40 -33 -6 -19 -29)
1969/12/31/18:00:14.277000,(-47 -128 -128 -47 0 -26 -6 9)
1969/12/31/18:00:14.278000,(-18 79 34 2 -36 -30 -12 -15)
1969/12/31/18:00:14.278000,(38 29 12 28 34 1 -2 -14)
1969/12/31/18:00:14.300000,(7 48 76 34 37 65 30 37)
1969/12/31/18:00:14.300000,(37 -125 -94 -41 -25 4 15 14)
1969/12/31/18:00:14.300000,(-58 -28 30 -2 -3 -10 -14 -42)
1969/12/31/18:00:14.301000,(-26 71 37 44 29 -10 -12 -9)
1969/12/31/18:00:14.314000,(114 61 61 13 -25 3 -26 -27)
1969/12/31/18:00:14.314000,(-45 -19 10 12 12 6 11 8)
1969/12/31/18:00:14.322000,(10 -128 -114 -8 20 -1 10 23)
1969/12/31/18:00:14.323000,(-16 21 -74 -66 -56 -65 -17 -12)
1969/12/31/18:00:14.337000,(3 126 103 38 13 57 36 108)
1969/12/31/18:00:14.337000,(-15 -103 -84 -24 6 -15 -26 -60)
1969/12/31/18:00:14.338000,(11 66 4 10 34 38 20 2)
1969/12/31/18:00:14.338000,(1 21 11 9 -24 11 -6 -10)
1969/12/31/18:00:14.360000,(-34 -5 21 2 -6 8 32 11)
1969/12/31/18:00:14.360000,(24 3 -17 -23 -26 -10 -19 -20)
1969/12/31/18:00:14.361000,(19 -90 -56 -27 -14 -26 1 37)
1969/12/31/18:00:14.361000,(29 -57 -39 -23 -3 -12 -10 10)
1969/12/31/18:00:14.375000,(-88 -38 -16 5 1 -27 -15 -75)
1969/12/31/18:00:14.375000,(35 48 -45 -30 -14 -9 -31 -38)
1969/12/31/18:00:14.376000,(-27 18 36 16 -6 0 -6 -47)
1969/12/31/18:00:14.376000,(24 -26 -14 12 27 35 46 92)
1969/12/31/18:00:14.399000,(30 -37 -73 -4 37 56 3 -18)
1969/12/31/18:00:14.399000,(-8 106 125 51 -11 -35 8 16)
1969/12/31/18:00:14.399000,(-36 -56 -43 -51 -53 -35 -7 -14)
1969/12/31/18:00:14.399000,(-72 -62 -44 -19 10 0 -16 -2)
1969/12/31/18:00:14.420000,(28 -17 -5 4 -39 -58 -12 23)
1969/12/31/18:00:14.420000,(5 70 77 45 62 71 58 53)
1969/12/31/18:00:14.420000,(55 74 41 16 -10 -28 -13 22)
1969/12/31/18:00:14.420000,(-74 -109 -70 -37 -17 23 20 -11)
1969/12/31/18:00:14.435000,(-16 -76 -108 -37 8 -19 -13 -9)
1969/12/31/18:00:14.435000,(18 61 60 65 22 -5 -7 -23)
1969/12/31/18:00:14.435000,(5 27 24 23 -2 19 17 27)
1969/12/31/18:00:14.435000,(-22 -59 -72 -25 -9 -3 -21 -59)
1969/12/31/18:00:14.457000,(-3 -46 -8 -7 8 4 2 20)
1969/12/31/18:00:14.457000,(1 -29 -20 -5 2 0 4 37)
1969/12/31/18:00:14.458000,(-19 -44 -30 -11 22 -3 1 -8)
1969/12/31/18:00:14.458000,(-18 -92 -90 -22 -35 -37 -35 -24)
1969/12/31/18:00:14.480000,(55 127 127 69 52 36 30 79)
1969/12/31/18:00:14.480000,(-32 -7 13 -14 -44 14 35 -9)
1969/12/31/18:00:14.480000,(4 -38 -5 3 -11 0 -22 9)
1969/12/31/18:00:14.480000,(-5 -53 -48 -15 18 23 -7 -43)
1969/12/31/18:00:14.495000,(-40 -19 7 -16 -33 -48 -31 26)
1969/12/31/18:00:14.495000,(28 -19 -56 -14 20 7 -1 3)
1969/12/31/18:00:14.495000,(3 80 74 39 18 13 33 31)
1969/12/31/18:00:14.495000,(20 -43 -30 -8 -4 -8 2 19)
1969/12/31/18:00:14.517000,(47 109 105 55 23 11 -1 18)
1969/12/31/18:00:14.517000,(-50 -113 -125 -52 -18 -27 -17 -17)
1969/12/31/18:00:14.518000,(-6 15 33 13 -22 5 19 0)
1969/12/31/18:00:14.518000,(14 -7 -4 28 22 0 -4 -17)
1969/12/31/18:00:14.540000,(-12 -10 -19 -27 -15 26 0 -26)
1969/12/31/18:00:14.540000,(-5 -28 1 -17 -30 -21 -15 -27)
1969/12/31/18:00:14.540000,(-19 5 -6 5 8 -1 -28 -73)
1969/12/31/18:00:14.540000,(-9 39 43 12 -5 16 7 15)
1969/12/31/18:00:14.555000,(-16 -128 -128 -50 -7 15 -11 -6)
1969/12/31/18:00:14.555000,(22 104 127 47 15 -11 -10 -14)
1969/12/31/18:00:14.555000,(-6 -128 -100 -2 28 -12 3 17)
1969/12/31/18:00:14.555000,(73 127 70 -3 -44 -21 -22 37)
1969/12/31/18:00:14.577000,(-22 62 74 34 13 28 55 -7)
1969/12/31/18:00:14.577000,(37 -107 -118 -43 6 21 3 92)
1969/12/31/18:00:14.578000,(33 96 89 74 22 -3 10 -21)
1969/12/31/18:00:14.578000,(-26 -128 -67 16 18 -2 -4 3)
1969/12/31/18:00:14.600000,(42 -68 -88 -17 -18 -36 -22 -16)
1969/12/31/18:00:14.600000,(-39 -84 -24 -13 -16 1 -5 -33)
1969/12/31/18:00:14.600000,(-16 -65 -67 -52 -8 0 -28 -19)
1969/12/31/18:00:14.600000,(-31 50 53 12 27 13 0 -55)
1969/12/31/18:00:14.615000,(-17 25 19 4 -1 -11 9 -11)
1969/12/31/18:00:14.615000,(-26 -9 -11 2 -8 -18 17 16)
1969/12/31/18:00:14.615000,(17 5 -36 -46 -32 17 -19 -14)
1969/12/31/18:00:14.615000,(1 12 44 11 20 56 54 46)
1969/12/31/18:00:14.637000,(-9 -79 -121 -43 -14 -29 -13 -7)
1969/12/31/18:00:14.637000,(69 76 79 77 90 61 9 28)
1969/12/31/18:00:14.638000,(-22 -103 -49 -13 -44 -38 1 7)
1969/12/31/18:00:14.638000,(60 125 58 31 3 1 16 31)
1969/12/31/18:00:14.660000,(-17 -106 -54 10 20 10 23 51)
1969/12/31/18:00:14.660000,(-33 -44 -104 -33 -18 -19 -34 -53)
1969/12/31/18:00:14.660000,(61 127 115 48 15 10 17 48)
1969/12/31/18:00:14.660000,(-5 -72 -58 -18 17 -8 -8 2)
1969/12/31/18:00:14.675000,(-8 -49 -32 -18 -21 -11 -35 -28)
1969/12/31/18:00:14.675000,(14 74 62 1 -20 -27 0 9)
1969/12/31/18:00:14.675000,(-25 -106 -84 -15 23 9 -17 -10)
1969/12/31/18:00:14.675000,(24 -15 -5 -3 -23 14 23 55)
1969/12/31/18:00:14.697000,(7 36 51 9 -7 -36 -14 -21)
1969/12/31/18:00:14.697000,(-51 -108 -74 -23 29 44 -17 -51)
1969/12/31/18:00:14.698000,(-44 17 -21 -23 -30 -30 15 -12)
1969/12/31/18:00:14.698000,(-3 0 3 -6 -15 -22 -12 -37)
1969/12/31/18:00:14.720000,(-19 94 55 11 8 4 14 -9)
1969/12/31/18:00:14.720000,(3 3 10 -11 -49 -19 -17 -7)
1969/12/31/18:00:14.720000,(13 29 34 8 10 16 26 40)
1969/12/31/18:00:14.720000,(0 -64 -64 -10 20 1 -24 -35)
1969/12/31/18:00:14.735000,(-19 22 -16 -16 -31 -15 -8 -4)
1969/12/31/18:00:14.735000,(22 49 36 25 18 -8 23 66)
1969/12/31/18:00:14.736000,(-23 38 -7 -4 6 3 -2 -21)
1969/12/31/18:00:14.736000,(-19 -36 3 4 -35 -26 -11 -4)
1969/12/31/18:00:14.757000,(18 -30 -59 -12 12 10 0 0)
1969/12/31/18:00:14.757000,(-30 -55 -10 7 1 -23 -11 -8)
1969/12/31/18:00:14.758000,(-31 -15 -1 8 32 39 5 -6)
1969/12/31/18:00:14.758000,(-13 -49 -34 -28 -23 -17 4 4)
1969/12/31/18:00:14.780000,(-3 -56 -28 -8 -6 -33 -12 16)
1969/12/31/18:00:14.780000,(26 77 76 30 9 48 13 -10)
1969/12/31/18:00:14.780000,(-4 -120 -102 -50 -34 -33 -21 -18)
1969/12/31/18:00:14.780000,(8 127 127 54 34 9 -6 -23)
1969/12/31/18:00:14.795000,(-20 25 50 25 4 1 4 -4)
1969/12/31/18:00:14.795000,(-9 -79 -106 -17 26 -20 -18 -30)
1969/12/31/18:00:14.795000,(68 83 84 27 -21 10 9 51)
1969/12/31/18:00:14.795000,(-4 51 35 -9 -36 -4 1 -3)
1969/12/31/18:00:14.817000,(31 0 14 8 0 12 20 34)
1969/12/31/18:00:14.817000,(-32 -51 -25 -43 -20 -9 -24 -44)
1969/12/31/18:00:14.818000,(25 -34 -72 -21 9 -12 -13 3)
1969/12/31/18:00:14.818000,(-52 26 52 22 21 -2 -18 -45)
1969/12/31/18:00:14.840000,(-11 -7 19 14 -7 20 8 -2)
1969/12/31/18:00:14.840000,(-9 -79 -74 -22 -3 20 28 1)
1969/12/31/18:00:14.840000,(-30 46 58 26 20 21 4 35)
1969/12/31/18:00:14.840000,(48 -48 -15 3 18 25 35 0)
1969/12/31/18:00:14.855000,(22 33 4 13 14 -51 -38 -14)
1969/12/31/18:00:14.855000,(-2 -29 28 -7 -31 -4 -3 13)
1969/12/31/18:00:14.855000,(-41 15 -19 -35 -35 -12 11 3)
1969/12/31/18:00:14.856000,(-8 31 15 11 8 -10 -16 -8)
1969/12/31/18:00:14.877000,(19 -75 -47 2 25 24 23 34)
1969/12/31/18:00:14.877000,(10 30 -1 4 21 -13 -30 -37)
1969/12/31/18:00:14.878000,(-7 72 79 36 -18 14 22 -33)
1969/12/31/18:00:14.878000,(-13 -88 -67 -39 -29 -20 -7 12)
1969/12/31/18:00:14.900000,(14 -43 -54 -31 -13 25 8 0)
1969/12/31/18:00:14.900000,(23 88 81 32 -2 -24 5 45)
1969/12/31/18:00:14.900000,(-33 -128 -112 -10 29 -6 -12 -26)
1969/12/31/18:00:14.900000,(26 79 -15 -12 -1 13 -11 2)
1969/12/31/18:00:14.915000,(-20 43 73 14 -30 -14 -5 -23)
1969/12/31/18:00:14.915000,(-19 -35 -47 -11 11 9 11 -11)
1969/12/31/18:00:14.915000,(38 -28 2 -9 4 -7 -10 6)
1969/12/31/18:00:14.915000,(-28 -70 -73 -25 -18 -5 10 22)
1969/12/31/18:00:14.937000,(-18 27 30 17 37 -1 -14 -41)
1969/12/31/18:00:14.937000,(32 65 30 12 -14 30 5 27)
1969/12/31/18:00:14.938000,(-15 -94 -79 -36 -30 -18 -8 -11)
1969/12/31/18:00:14.938000,(-6 29 33 13 0 -2 -10 18)
1969/12/31/18:00:14.960000,(41 127 47 12 -15 -8 16 12)
1969/12/31/18:00:14.960000,(-46 -66 -15 -6 -3 -6 3 -2)
1969/12/31/18:00:14.960000,(19 62 38 11 16 -8 -8 -21)
1969/12/31/18:00:14.961000,(-44 -78 -44 -17 -17 -9 -2 -7)
1969/12/31/18:00:14.974000,(3 -45 -36 -20 -7 10 -9 0)
1969/12/31/18:00:14.974000,(-11 2 26 7 8 -7 -3 -28)
1969/12/31/18:00:14.982000,(22 20 -27 -15 -26 -16 -13 38)
1969/12/31/18:00:14.982000,(20 36 42 19 19 2 3 15)
1969/12/31/18:00:14.997000,(-7 -39 -49 -7 11 31 11 7)
1969/12/31/18:00:14.997000,(-24 -80 -68 -42 -37 -16 5 -6)
1969/12/31/18:00:14.998000,(-16 41 50 30 37 -22 -13 -46)
1969/12/31/18:00:14.998000,(18 41 9 -9 -8 15 -6 -9)
1969/12/31/18:00:15.020000,(-31 -26 11 3 -33 -33 -28 -17)
1969/12/31/18:00:15.020000,(34 -26 -46 -19 11 14 6 27)
1969/12/31/18:00:15.021000,(-12 0 -5 -7 3 6 28 4)
1969/12/31/18:00:15.021000,(1 -66 -80 1 35 3 -5 0)
1969/12/31/18:00:15.034000,(-27 82 90 7 -35 -5 -11 -19)
1969/12/31/18:00:15.034000,(-2 -46 -29 -5 3 -27 -16 13)
1969/12/31/18:00:15.042000,(19 8 34 16 0 11 9 32)
1969/12/31/18:00:15.042000,(13 67 86 37 11 10 -5 -18)
1969/12/31/18:00:15.057000,(-10 -87 -59 -25 -15 -28 -9 2)
1969/12/31/18:00:15.057000,(13 17 8 13 0 8 5 7)
1969/12/31/18:00:15.058000,(22 -59 -76 -45 -7 10 20 50)
1969/12/31/18:00:15.058000,(-9 -49 -45 -6 -8 -19 -21 -25)
1969/12/31/18:00:15.080000,(-8 43 44 19 27 5 -20 -38)
1969/12/31/18:00:15.080000,(-32 -63 -16 -8 -25 -35 -16 -25)
1969/12/31/18:00:15.081000,(7 40 59 30 16 28 11 -17)
1969/12/31/18:00:15.081000,(41 18 23 -6 -6 -7 28 45)
1969/12/31/18:00:15.094000,(-10 11 9 20 19 12 0 9)
1969/12/31/18:00:15.094000,(21 -63 -52 -26 -37 -20 9 35)
1969/12/31/18:00:15.102000,(-16 -6 1 7 9 20 -6 -18)
1969/12/31/18:00:15.102000,(-4 38 15 -3 -1 24 3 -14)
1969/12/31/18:00:15.117000,(-12 -45 -21 -4 14 3 3 -3)
1969/12/31/18:00:15.117000,(22 -28 -91 -19 14 10 20 39)
1969/12/31/18:00:15.118000,(-10 92 89 51 -12 -15 -20 -32)
1969/12/31/18:00:15.118000,(-32 -108 -89 6 36 -13 -11 -8)
1969/12/31/18:00:15.140000,(45 47 -3 -20 -22 33 21 41)
1969/12/31/18:00:15.140000,(17 -15 58 32 7 0 -12 -24)
1969/12/31/18:00:15.140000,(-53 -27 -54 -27 -20 -18 -19 -23)
1969/12/31/18:00:15.140000,(6 -79 -19 2 20 5 22 10)
1969/12/31/18:00:15.154000,(7 9 -22 -13 -1 1 1 4)
1969/12/31/18:00:15.154000,(7 47 15 -5 2 3 -6 -15)
1969/12/31/18:00:15.162000,(-8 -29 -10 -13 15 -3 -12 -12)
1969/12/31/18:00:15.162000,(-16 -6 2 4 -13 10 17 1)
1969/12/31/18:00:15.177000,(2 35 4 4 19 17 -15 6)
1969/12/31/18:00:15.177000,(26 0 11 -2 -15 -2 9 21)
1969/12/31/18:00:15.178000,(8 23 24 18 20 -1 3 15)
1969/12/31/18:00:15.178000,(11 -1 -27 -8 17 -32 -28 -21)
1969/12/31/18:00:15.200000,(30 58 43 6 -28 25 27 17)
1969/12/31/18:00:15.200000,(-13 18 -7 -7 -17 -2 6 -3)
1969/12/31/18:00:15.200000,(-23 -118 -75 -30 -15 -14 -22 -22)
1969/12/31/18:00:15.200000,(42 118 124 74 36 20 9 8)
1969/12/31/18:00:15.214000,(-5 -111 -104 11 26 -17 -3 -38)
1969/12/31/18:00:15.214000,(35 21 7 1 -13 7 -7 16)
1969/12/31/18:00:15.222000,(-10 -47 -11 -11 -18 -4 4 -9)
1969/12/31/18:00:15.222000,(-5 -28 -23 -29 -25 2 -1 -8)
1969/12/31/18:00:15.237000,(-10 4 -8 -4 -6 -21 -3 49)
1969/12/31/18:00:15.237000,(-31 21 -12 6 21 1 -17 -51)
1969/12/31/18:00:15.238000,(4 70 80 11 -12 -1 -2 -30)
1969/12/31/18:00:15.238000,(36 19 -4 -3 0 -6 14 26)
1969/12/31/18:00:15.260000,(-8 -70 -30 -24 -2 2 1 1)
1969/12/31/18:00:15.260000,(-40 4 -20 -24 -10 -29 -26 -20)
1969/12/31/18:00:15.260000,(74 91 70 47 28 9 19 49)
1969/12/31/18:00:15.260000,(-27 -94 -59 -16 -21 13 -11 -20)
1969/12/31/18:00:15.283000,(-20 -8 -15 -10 1 -4 -2 -14)
1969/12/31/18:00:15.283000,(-4 92 83 26 9 8 -3 -25)
1969/12/31/18:00:15.284000,(1 -90 -82 -23 8 -9 -6 0)
1969/12/31/18:00:15.284000,(-12 -42 -32 -16 -23 -18 3 39)
1969/12/31/18:00:15.297000,(13 -14 1 -9 -4 13 18 2)
1969/12/31/18:00:15.297000,(-2 29 51 30 35 14 3 -10)
1969/12/31/18:00:15.298000,(-5 -84 -81 -21 -31 -23 -14 8)
1969/12/31/18:00:15.298000,(2 58 20 -10 -5 6 0 16)
1969/12/31/18:00:15.320000,(-6 50 47 32 29 7 -5 -50)
1969/12/31/18:00:15.320000,(31 -16 -24 -14 -30 -10 10 33)
1969/12/31/18:00:15.320000,(3 -35 -11 5 9 -10 10 42)
1969/12/31/18:00:15.320000,(-32 -61 -54 -27 -16 17 6 -5)
1969/12/31/18:00:15.334000,(16 25 29 -3 -24 -14 4 19)
1969/12/31/18:00:15.334000,(-15 -39 -7 17 20 5 17 -14)
1969/12/31/18:00:15.342000,(-1 44 1 -21 -3 6 -8 -9)
1969/12/31/18:00:15.342000,(-10 -83 -60 -8 -6 -5 -10 4)
1969/12/31/18:00:15.357000,(8 96 56 15 2 4 12 11)
1969/12/31/18:00:15.357000,(-8 53 70 29 33 16 3 11)
1969/12/31/18:00:15.358000,(-39 -85 -86 -32 -14 -7 -21 -41)
1969/12/31/18:00:15.358000,(-30 -40 -53 -33 -18 -25 -14 -28)
1969/12/31/18:00:15.380000,(-7 20 53 33 17 16 5 -18)
1969/12/31/18:00:15.380000,(-31 -60 -40 -5 -16 -32 -21 -21)
1969/12/31/18:00:15.381000,(5 -21 -21 -14 10 32 -3 8)
1969/12/31/18:00:15.381000,(14 29 2 -5 -10 -8 3 -1)
1969/12/31/18:00:15.403000,(-6 -15 -14 -7 -6 -8 5 -5)
1969/12/31/18:00:15.403000,(-18 13 32 7 -6 -2 -12 -4)
1969/12/31/18:00:15.404000,(-14 6 -6 6 2 9 34 17)
1969/12/31/18:00:15.404000,(25 -23 -2 19 14 -4 -4 7)
1969/12/31/18:00:15.425000,(-26 -48 -24 -14 -12 -19 2 -1)
1969/12/31/18:00:15.425000,(9 15 0 6 -4 4 -13 6)
1969/12/31/18:00:15.426000,(15 -61 -57 -32 -18 8 2 -16)
1969/12/31/18:00:15.426000,(3 115 103 30 13 -2 8 9)
1969/12/31/18:00:15.440000,(-17 -99 -55 2 19 11 2 10)
1969/12/31/18:00:15.440000,(6 -17 -20 -4 6 -13 0 7)
1969/12/31/18:00:15.441000,(21 30 6 -3 -20 12 9 12)
1969/12/31/18:00:15.441000,(32 127 95 33 19 1 -5 -16)
1969/12/31/18:00:15.463000,(0 -77 -39 -8 3 8 -14 36)
1969/12/31/18:00:15.463000,(-15 -107 -77 -39 -30 -13 14 -10)
1969/12/31/18:00:15.464000,(1 66 62 33 1 -17 -8 -22)
1969/12/31/18:00:15.464000,(11 21 47 3 -5 5 -9 -14)
1969/12/31/18:00:15.477000,(-15 -53 -31 -5 1 -8 -8 -12)
1969/12/31/18:00:15.477000,(3 -30 -37 -16 -5 -3 -4 -8)
1969/12/31/18:00:15.478000,(-3 -27 -27 -4 -24 -4 4 60)
1969/12/31/18:00:15.478000,(-19 -39 -1 -5 -13 -37 -17 -23)
1969/12/31/18:00:15.500000,(-4 -39 -23 -8 28 50 19 15)
1969/12/31/18:00:15.500000,(-3 39 15 -1 -13 2 -3 4)
1969/12/31/18:00:15.501000,(25 44 11 3 11 -10 6 5)
1969/12/31/18:00:15.501000,(-11 -15 11 15 8 -2 -5 0)
1969/12/31/18:00:15.523000,(-24 -96 -93 -45 -34 -28 -20 -18)
1969/12/31/18:00:15.523000,(66 127 115 40 12 19 27 38)
1969/12/31/18:00:15.524000,(-48 -81 -15 16 21 -2 -13 -23)
1969/12/31/18:00:15.524000,(0 -113 -109 -24 -1 12 10 11)
1969/12/31/18:00:15.537000,(69 115 97 29 2 -3 3 25)
1969/12/31/18:00:15.537000,(-3 -20 6 24 30 7 4 9)
1969/12/31/18:00:15.538000,(38 -27 -28 -8 -17 -5 -9 -25)
1969/12/31/18:00:15.538000,(-53 -96 -58 -38 -11 16 -2 -21)
1969/12/31/18:00:15.560000,(-3 -26 -33 -18 -27 -16 -14 2)
1969/12/31/18:00:15.561000,(0 35 4 -4 -3 -15 3 6)
1969/12/31/18:00:15.561000,(-21 -11 7 17 25 -25 -24 -24)
1969/12/31/18:00:15.561000,(4 22 -17 -22 -63 -11 3 4)
1969/12/31/18:00:15.583000,(3 58 39 5 28 43 23 -10)
1969/12/31/18:00:15.583000,(-26 -48 -21 -4 3 4 -13 -24)
1969/12/31/18:00:15.584000,(-42 -96 -94 -31 -4 8 5 -18)
1969/12/31/18:00:15.584000,(49 111 73 43 19 -11 3 28)
1969/12/31/18:00:15.597000,(3 67 67 36 9 -13 10 28)
1969/12/31/18:00:15.597000,(3 -48 -48 -28 -28 -7 -17 -17)
1969/12/31/18:00:15.598000,(16 -41 -16 -16 -5 0 5 16)
1969/12/31/18:00:15.598000,(-30 -49 -48 -14 16 9 -6 -7)
1969/12/31/18:00:15.620000,(-43 1 -12 4 -7 -8 -10 -48)
1969/12/31/18:00:15.620000,(54 19 0 2 9 11 13 33)
1969/12/31/18:00:15.621000,(0 15 20 -13 -12 -6 -11 -19)
1969/12/31/18:00:15.621000,(-15 17 17 -17 -22 5 0 -12)
1969/12/31/18:00:15.650000,(-1 -12 -16 -11 12 -21 5 1)
1969/12/31/18:00:15.650000,(23 24 13 45 21 31 7 9)
1969/12/31/18:00:15.651000,(-88 -25 1 -2 -5 -4 -5 -17)
1969/12/31/18:00:15.651000,(22 3 -1 4 4 -11 -30 -31)
1969/12/31/18:00:15.657000,(10 -13 -20 -19 -22 -3 9 8)
1969/12/31/18:00:15.657000,(-10 -41 -32 -26 -3 -4 -14 -2)
1969/12/31/18:00:15.658000,(24 36 25 12 6 7 4 20)
1969/12/31/18:00:15.658000,(-10 34 35 12 5 2 9 10)
1969/12/31/18:00:15.680000,(10 24 0 -10 -31 -17 -15 -12)
1969/12/31/18:00:15.680000,(42 25 -1 -54 -26 -4 15 30)
1969/12/31/18:00:15.681000,(-76 -31 9 81 81 24 -24 -60)
1969/12/31/18:00:15.681000,(-10 -56 -20 5 16 2 12 16)
1969/12/31/18:00:15.703000,(61 22 1 -7 -18 -10 11 16)
1969/12/31/18:00:15.703000,(-67 -3 17 26 9 -9 -23 -20)
1969/12/31/18:00:15.704000,(66 26 -14 -51 -38 16 28 23)
1969/12/31/18:00:15.704000,(5 9 5 9 1 18 22 41)
1969/12/31/18:00:15.717000,(0 -16 2 13 25 -1 21 17)
1969/12/31/18:00:15.717000,(-65 -20 -11 6 13 17 -30 -69)
1969/12/31/18:00:15.718000,(14 31 16 -11 -23 -37 -27 4)
1969/12/31/18:00:15.718000,(67 42 22 33 29 0 0 34)
1969/12/31/18:00:15.740000,(-44 -25 -24 -28 -25 7 -7 -30)
1969/12/31/18:00:15.740000,(-34 -20 -16 -13 -16 -32 2 -8)
1969/12/31/18:00:15.741000,(-18 14 23 16 17 11 12 2)
1969/12/31/18:00:15.741000,(62 21 -3 -17 -18 7 -3 -9)
1969/12/31/18:00:15.763000,(52 11 -7 4 -2 -23 -16 12)
1969/12/31/18:00:15.763000,(-46 -39 -10 4 10 8 -4 -3)
1969/12/31/18:00:15.763000,(6 31 30 12 -2 4 22 19)
1969/12/31/18:00:15.763000,(10 12 -19 -22 -11 -11 -5 -7)
1969/12/31/18:00:15.777000,(-53 -56 -15 -6 -3 -11 -27 -53)
1969/12/31/18:00:15.777000,(42 7 -9 4 4 2 9 -4)
1969/12/31/18:00:15.778000,(-47 -24 8 -3 -9 -1 -7 -12)
1969/12/31/18:00:15.778000,(-38 -13 -5 1 3 -6 -3 -11)
1969/12/31/18:00:15.800000,(76 38 24 29 27 20 12 15)
1969/12/31/18:00:15.800000,(-42 8 -9 -11 -11 -2 -3 -11)
1969/12/31/18:00:15.801000,(0 4 -4 -15 -15 -14 -14 1)
1969/12/31/18:00:15.801000,(-48 -33 -2 5 10 7 11 7)
1969/12/31/18:00:15.824000,(-16 -2 1 1 -1 2 -14 -18)
1969/12/31/18:00:15.824000,(64 13 12 9 6 4 9 2)
1969/12/31/18:00:15.824000,(-11 10 -2 -6 -8 -3 0 2)
1969/12/31/18:00:15.824000,(-91 7 -5 -13 -5 -9 -18 -54)
1969/12/31/18:00:15.845000,(-22 -38 -11 -4 -1 5 5 13)
1969/12/31/18:00:15.845000,(24 -8 -16 -3 -1 -1 7 23)
1969/12/31/18:00:15.846000,(11 -2 -3 -1 -1 -1 -4 -21)
1969/12/31/18:00:15.846000,(60 8 -1 -4 -4 -3 2 41)
1969/12/31/18:00:15.860000,(-43 -25 -26 -19 -15 -11 -14 -16)
1969/12/31/18:00:15.860000,(13 28 5 -15 -2 1 10 27)
1969/12/31/18:00:15.861000,(3 7 7 11 -1 0 -4 -17)
1969/12/31/18:00:15.861000,(-39 -17 5 -8 5 10 16 22)
1969/12/31/18:00:15.883000,(43 2 -14 -15 -10 -10 -10 26)
1969/12/31/18:00:15.883000,(8 5 9 19 5 4 3 3)
1969/12/31/18:00:15.883000,(59 21 5 4 -1 0 -6 -2)
1969/12/31/18:00:15.883000,(10 1 27 45 14 2 -5 -25)
1969/12/31/18:00:15.897000,(-19 6 -7 -1 4 2 0 -10)
1969/12/31/18:00:15.897000,(-11 -11 1 -8 -7 0 9 10)
1969/12/31/18:00:15.898000,(1 4 -17 -28 -7 -4 -5 9)
1969/12/31/18:00:15.898000,(-15 -13 -1 2 -5 -3 -5 -27)
1969/12/31/18:00:15.920000,(3 -2 -5 -9 1 2 0 9)
1969/12/31/18:00:15.920000,(-17 -17 -23 -16 -10 -10 -21 -66)
1969/12/31/18:00:15.926000,(11 14 10 9 3 0 9 16)
1969/12/31/18:00:15.926000,(-12 -16 -25 -25 -6 -3 0 -7)
1969/12/31/18:00:15.943000,(-9 10 37 35 10 7 -1 -9)
1969/12/31/18:00:15.943000,(7 19 -1 -11 0 4 22 46)
1969/12/31/18:00:15.944000,(-2 11 0 8 1 -4 -3 5)
1969/12/31/18:00:15.944000,(11 -6 24 15 7 7 1 21)
1969/12/31/18:00:15.956000,(-61 -34 -28 -8 -3 -7 -12 -62)
1969/12/31/18:00:15.956000,(22 22 16 1 -2 -3 -6 12)
1969/12/31/18:00:15.966000,(-5 -6 -12 -11 -3 2 1 -12)
1969/12/31/18:00:15.966000,(-39 -10 -19 -16 -11 -9 -12 -33)
1969/12/31/18:00:15.980000,(-5 -7 4 4 3 0 1 18)
1969/12/31/18:00:15.980000,(2 -10 -3 3 -2 -4 -1 15)
1969/12/31/18:00:15.982000,(5 -4 -9 -5 1 5 8 11)
1969/12/31/18:00:15.982000,(3 8 3 1 0 0 0 -9)
1969/12/31/18:00:16.003000,(1 -3 4 -4 -4 -3 -5 -4)
1969/12/31/18:00:16.003000,(-7 -2 -6 1 2 5 3 -4)
1969/12/31/18:00:16.005000,(4 -12 -11 -5 -8 -8 -3 8)
1969/12/31/18:00:16.005000,(14 -29 -38 -17 -4 1 16 25)
1969/12/31/18:00:16.017000,(10 53 27 11 3 -2 -10 3)
1969/12/31/18:00:16.017000,(0 0 20 14 6 3 -2 -7)
1969/12/31/18:00:16.025000,(2 -6 -7 -3 -1 2 1 18)
1969/12/31/18:00:16.025000,(0 17 18 4 -1 -1 3 -17)
1969/12/31/18:00:16.041000,(-1 -32 -32 -10 -5 1 5 9)
1969/12/31/18:00:16.041000,(-15 -27 -28 -8 -5 -5 -13 -13)
1969/12/31/18:00:16.042000,(5 32 41 10 -2 -7 1 0)
1969/12/31/18:00:16.042000,(10 -18 -33 -18 -6 -3 -9 4)
1969/12/31/18:00:16.063000,(9 32 35 12 7 7 4 11)
1969/12/31/18:00:16.063000,(-5 13 10 8 2 1 6 2)
1969/12/31/18:00:16.064000,(4 -24 -18 -7 0 0 3 2)
1969/12/31/18:00:16.065000,(8 7 -2 -3 -2 -3 -2 9)
1969/12/31/18:00:16.076000,(0 -10 -4 -4 -2 1 12 7)
1969/12/31/18:00:16.076000,(-13 -19 -11 -9 -7 -7 -17 -10)
1969/12/31/18:00:16.086000,(-5 -1 3 3 2 -1 -5 -12)
1969/12/31/18:00:16.086000,(6 20 15 8 5 2 -4 -1)
1969/12/31/18:00:16.100000,(2 -9 -9 -5 0 1 4 5)
1969/12/31/18:00:16.100000,(3 -1 -4 1 -1 -2 1 -1)
1969/12/31/18:00:16.102000,(-3 0 4 -3 -5 -3 -1 3)
1969/12/31/18:00:16.102000,(2 -8 5 0 1 -1 -5 0)
1969/12/31/18:00:16.123000,(7 6 -5 11 4 2 2 6)
1969/12/31/18:00:16.123000,(4 27 20 5 1 -2 -3 -4)
1969/12/31/18:00:16.125000,(-1 7 3 -1 1 3 1 -3)
1969/12/31/18:00:16.125000,(-2 -29 -16 -4 -2 -4 -2 1)
1969/12/31/18:00:16.145000,(-2 15 9 -4 -5 -4 -6 -3)
1969/12/31/18:00:16.145000,(-4 -27 2 3 3 1 2 2)
1969/12/31/18:00:16.147000,(4 16 -10 -5 -2 -1 -1 0)
1969/12/31/18:00:16.147000,(5 28 21 4 2 0 -3 -3)
1969/12/31/18:00:16.159000,(-2 -11 -7 3 -1 -1 1 2)
1969/12/31/18:00:16.159000,(1 -5 3 12 7 3 2 0)
1969/12/31/18:00:16.166000,(-4 -9 -4 -9 -8 -3 -1 -1)
1969/12/31/18:00:16.166000,(-11 -55 -33 -22 -10 -5 -3 -1)
1969/12/31/18:00:16.183000,(16 72 76 37 14 4 -2 -3)
1969/12/31/18:00:16.183000,(-6 -8 -5 -3 -4 -1 0 2)
1969/12/31/18:00:16.184000,(4 -2 -29 -7 6 -2 -6 -4)
1969/12/31/18:00:16.184000,(4 29 32 18 8 4 2 -2)
1969/12/31/18:00:16.196000,(-7 -5 -23 -10 -2 -1 2 -4)
1969/12/31/18:00:16.196000,(-18 -29 1 -12 -5 -4 -1 -4)
1969/12/31/18:00:16.205000,(10 12 14 17 5 1 2 4)
1969/12/31/18:00:16.206000,(-2 -1 -2 4 2 0 1 0)
1969/12/31/18:00:16.220000,(-19 -77 -55 -42 -20 -10 -7 -5)
1969/12/31/18:00:16.220000,(20 66 60 30 9 3 7 8)
1969/12/31/18:00:16.226000,(-16 -34 16 2 -2 -1 -4 -8)
1969/12/31/18:00:16.227000,(11 23 -6 2 3 2 0 4)
1969/12/31/18:00:16.243000,(1 -7 12 23 7 4 6 3)
1969/12/31/18:00:16.243000,(-24 -77 -59 -36 -16 -5 -3 -5)
1969/12/31/18:00:16.244000,(37 103 43 21 8 0 0 8)
1969/12/31/18:00:16.244000,(-17 -56 -45 -14 -8 -4 -6 -8)
1969/12/31/18:00:16.256000,(-5 -28 11 -1 2 1 4 5)
1969/12/31/18:00:16.256000,(7 27 -6 5 7 1 0 0)
1969/12/31/18:00:16.265000,(0 6 13 10 3 4 1 2)
1969/12/31/18:00:16.265000,(-5 -11 -15 -11 -7 -6 -4 -6)
1969/12/31/18:00:16.288000,(4 14 -9 -7 -1 0 1 3)
1969/12/31/18:00:16.288000,(-9 -23 -27 -18 -8 -4 -5 -5)
1969/12/31/18:00:16.289000,(-2 -3 -14 -7 0 0 -3 -1)
1969/12/31/18:00:16.289000,(3 25 20 14 6 3 -1 -2)
1969/12/31/18:00:16.303000,(-15 -46 -24 -16 -8 -3 -2 -1)
1969/12/31/18:00:16.303000,(8 52 51 24 5 -1 -1 -2)
1969/12/31/18:00:16.304000,(-9 -27 -24 -16 -7 -2 0 -1)
1969/12/31/18:00:16.304000,(-8 -10 -15 -9 -3 -1 -3 -4)
1969/12/31/18:00:16.326000,(10 24 18 6 4 1 3 6)
1969/12/31/18:00:16.326000,(-4 -21 -31 -15 -6 -2 -5 -5)
1969/12/31/18:00:16.331000,(-6 -6 0 4 1 -1 1 -3)
1969/12/31/18:00:16.331000,(-1 5 19 3 -1 -1 0 0)
1969/12/31/18:00:16.340000,(2 1 -12 -8 -3 -1 -3 -4)
1969/12/31/18:00:16.340000,(5 7 2 5 1 1 0 2)
1969/12/31/18:00:16.346000,(-4 -5 6 4 0 0 -1 -2)
1969/12/31/18:00:16.346000,(2 4 5 2 -2 -1 -1 2)
1969/12/31/18:00:16.363000,(4 -3 -50 -14 -3 -4 -5 -1)
1969/12/31/18:00:16.363000,(1 8 30 11 3 1 1 -1)
1969/12/31/18:00:16.364000,(-8 -24 -10 -12 -6 -2 0 -2)
1969/12/31/18:00:16.364000,(1 4 -3 0 -1 -2 -1 -2)
1969/12/31/18:00:16.387000,(-3 1 -7 -6 -3 -2 -4 -7)
1969/12/31/18:00:16.387000,(0 -10 -20 -10 -3 -3 -2 -1)
1969/12/31/18:00:16.389000,(-2 0 6 5 1 0 2 3)
1969/12/31/18:00:16.389000,(-9 4 1 -4 -3 -6 -8 -12)
1969/12/31/18:00:16.400000,(8 16 16 5 -1 1 3 4)
1969/12/31/18:00:16.400000,(-6 -9 -19 -8 -5 -4 -3 -4)
1969/12/31/18:00:16.424000,(-2 -5 3 1 3 2 3 1)
1969/12/31/18:00:16.424000,(2 5 0 3 2 0 3 6)
1969/12/31/18:00:16.424000,(-2 5 11 0 -1 0 -2 -2)
1969/12/31/18:00:16.424000,(4 7 -7 -8 -4 -2 -2 1)
1969/12/31/18:00:16.424000,(3 12 10 7 -14 -4 -2 -2)
1969/12/31/18:00:16.424000,(-3 -6 13 25 31 7 0 -3)
1969/12/31/18:00:16.447000,(4 8 -2 6 0 4 2 2)
1969/12/31/18:00:16.447000,(-3 4 3 -22 -9 -2 -5 -6)
1969/12/31/18:00:16.448000,(-3 0 -9 -5 12 -2 -3 -3)
1969/12/31/18:00:16.448000,(-3 -9 -9 4 -11 -2 1 3)
1969/12/31/18:00:16.461000,(5 10 14 14 -1 -2 1 4)
1969/12/31/18:00:16.461000,(-4 -9 -1 -3 3 2 2 1)
1969/12/31/18:00:16.462000,(1 -3 -6 7 10 2 1 -1)
1969/12/31/18:00:16.462000,(-3 -2 5 -12 -14 -6 -4 -2)
1969/12/31/18:00:16.484000,(1 4 8 -17 -4 -2 1 4)
1969/12/31/18:00:16.484000,(0 -5 -7 7 -9 -2 4 2)
1969/12/31/18:00:16.484000,(-1 3 8 1 -1 1 -8 -4)
1969/12/31/18:00:16.484000,(-5 -2 -16 -13 -10 -8 -4 -5)
1969/12/31/18:00:16.500000,(3 8 0 14 12 1 2 5)
1969/12/31/18:00:16.500000,(-1 -2 2 7 14 3 -3 -3)
1969/12/31/18:00:16.506000,(-3 -10 -12 -23 -4 2 9 4)
1969/12/31/18:00:16.506000,(2 1 7 29 3 1 -1 -1)
1969/12/31/18:00:16.521000,(1 5 9 -3 -9 -2 -5 -4)
1969/12/31/18:00:16.521000,(2 1 -3 13 9 -1 -2 -2)
1969/12/31/18:00:16.522000,(-3 -1 2 2 -2 -1 -2 -3)
1969/12/31/18:00:16.522000,(-6 -6 -21 -28 -12 -3 -5 -5)
1969/12/31/18:00:16.544000,(-6 -9 0 1 2 -2 -4 -6)
1969/12/31/18:00:16.544000,(-4 -6 -8 -8 -2 -2 -1 -2)
1969/12/31/18:00:16.544000,(-3 0 -13 -32 -6 -5 -3 -7)
1969/12/31/18:00:16.544000,(3 11 15 24 2 -3 -3 -3)
1969/12/31/18:00:16.558000,(2 -4 0 10 5 3 5 7)
1969/12/31/18:00:16.558000,(-1 -1 -6 -15 -13 -4 -5 -5)
1969/12/31/18:00:16.566000,(-3 8 15 16 4 0 -1 -2)
1969/12/31/18:00:16.566000,(0 -4 1 -5 2 4 3 2)
1969/12/31/18:00:16.581000,(-2 2 4 2 -4 -5 -5 -7)
1969/12/31/18:00:16.581000,(-3 -7 -17 -7 -1 -3 0 1)
1969/12/31/18:00:16.582000,(0 0 -2 1 4 -1 -1 -2)
1969/12/31/18:00:16.582000,(-5 -6 0 -3 -5 -4 -2 -3)
1969/12/31/18:00:16.604000,(3 1 -12 -4 -4 -2 0 -1)
1969/12/31/18:00:16.604000,(0 -1 1 -4 0 -1 -1 1)
1969/12/31/18:00:16.605000,(6 5 14 17 6 4 6 7)
1969/12/31/18:00:16.605000,(-1 -1 -5 -10 -7 -3 -2 0)
1969/12/31/18:00:16.618000,(-6 -5 -2 0 0 -1 -2 -5)
1969/12/31/18:00:16.618000,(-4 0 -4 -5 -2 -4 -7 -10)
1969/12/31/18:00:16.626000,(1 0 7 11 3 0 1 4)
1969/12/31/18:00:16.626000,(0 -1 -4 -7 -1 -2 0 4)
1969/12/31/18:00:16.642000,(-1 -1 -2 -5 -2 0 -2 -2)
1969/12/31/18:00:16.642000,(2 1 4 4 1 1 2 0)
1969/12/31/18:00:16.643000,(-1 2 -2 3 0 -3 -6 -5)
1969/12/31/18:00:16.643000,(-1 -4 -2 -8 -2 0 2 1)
1969/12/31/18:00:16.664000,(-1 -3 -3 -1 -3 -3 -1 -2)
1969/12/31/18:00:16.664000,(2 8 10 3 -1 -1 -3 -1)
1969/12/31/18:00:16.665000,(-1 -13 -4 0 2 4 5 4)
1969/12/31/18:00:16.665000,(-1 6 2 -5 -3 -4 -2 -3)
1969/12/31/18:00:16.678000,(-2 -4 0 3 0 -1 -3 -4)
1969/12/31/18:00:16.678000,(1 6 4 6 0 -2 -2 -2)
1969/12/31/18:00:16.686000,(-1 -5 -3 -2 -1 0 -2 -1)
1969/12/31/18:00:16.686000,(0 -16 -10 -6 -2 0 -2 -1)
1969/12/31/18:00:16.702000,(-6 6 0 -1 0 -1 -2 -6)
1969/12/31/18:00:16.702000,(3 -3 0 -2 0 1 1 3)
1969/12/31/18:00:16.702000,(-8 -9 -2 3 1 -1 -3 -4)
1969/12/31/18:00:16.702000,(-16 -9 -5 -4 -3 0 -4 -6)
1969/12/31/18:00:16.724000,(20 6 8 2 2 2 6 13)
1969/12/31/18:00:16.724000,(10 17 -4 -6 -4 -4 -1 2)
1969/12/31/18:00:16.725000,(15 -7 -7 -4 -4 -4 -1 3)
1969/12/31/18:00:16.725000,(-3 23 14 4 3 -2 -2 -6)
1969/12/31/18:00:16.747000,(-13 -6 0 1 2 1 0 -5)
1969/12/31/18:00:16.747000,(-21 -13 -5 0 -1 -1 -2 -3)
1969/12/31/18:00:16.748000,(7 9 7 4 1 1 -1 1)
1969/12/31/18:00:16.748000,(-1 -7 -9 -6 -2 -1 0 -2)
1969/12/31/18:00:16.761000,(6 -1 -3 -2 -2 0 -1 2)
1969/12/31/18:00:16.761000,(-2 -2 0 -1 -1 0 -1 -1)
1969/12/31/18:00:16.762000,(0 -3 -8 -3 -2 -1 0 -2)
1969/12/31/18:00:16.762000,(1 -1 -1 -3 -2 -1 0 1)
1969/12/31/18:00:16.784000,(-1 1 6 2 1 0 0 -1)
1969/12/31/18:00:16.784000,(-14 -15 -15 -9 -3 -4 -3 -5)
1969/12/31/18:00:16.785000,(-5 7 10 3 1 0 0 0)
1969/12/31/18:00:16.785000,(15 7 3 1 -1 -2 -1 3)
1969/12/31/18:00:16.798000,(-17 -9 -3 0 0 0 1 -1)
1969/12/31/18:00:16.798000,(14 -9 -5 -2 -2 -2 -3 -1)
1969/12/31/18:00:16.807000,(-14 0 3 2 2 -1 -2 -5)
1969/12/31/18:00:16.807000,(2 2 1 -1 0 -1 1 2)
1969/12/31/18:00:16.822000,(13 5 -7 -5 -1 0 1 3)
1969/12/31/18:00:16.822000,(-15 -5 3 0 -1 1 0 -1)
1969/12/31/18:00:16.822000,(-2 8 3 0 -1 -1 -1 3)
1969/12/31/18:00:16.822000,(-18 -20 -13 -8 -5 -4 -9 -12)
1969/12/31/18:00:16.844000,(13 15 8 3 3 4 8 13)
1969/12/31/18:00:16.844000,(-11 -17 -2 -1 -1 -6 -6 -12)
1969/12/31/18:00:16.845000,(-8 11 8 4 2 2 4 2)
1969/12/31/18:00:16.845000,(19 2 -7 -5 -3 -2 -2 4)
1969/12/31/18:00:16.867000,(-5 -11 -5 -4 -3 -4 -6 -7)
1969/12/31/18:00:16.867000,(-34 -15 -7 -7 -5 -2 -4 -12)
1969/12/31/18:00:16.868000,(8 4 4 2 1 4 5 4)
1969/12/31/18:00:16.868000,(-29 -14 -4 1 1 -4 -9 -11)
1969/12/31/18:00:16.881000,(15 2 -3 0 0 -2 -2 1)
1969/12/31/18:00:16.881000,(14 12 5 4 0 -6 0 14)
1969/12/31/18:00:16.882000,(11 10 -4 -7 -4 7 27 -2)
1969/12/31/18:00:16.882000,(-17 4 4 1 0 2 -17 -11)
1969/12/31/18:00:16.904000,(2 -8 1 1 -2 -3 -10 -4)
1969/12/31/18:00:16.904000,(-2 -5 -3 1 -1 1 2 3)
1969/12/31/18:00:16.905000,(-8 0 1 2 1 -1 -6 9)
1969/12/31/18:00:16.905000,(36 22 0 1 0 1 20 12)
1969/12/31/18:00:16.927000,(-5 -5 4 3 2 0 -16 0)
1969/12/31/18:00:16.927000,(22 13 -4 -8 -4 -2 -1 9)
1969/12/31/18:00:16.928000,(-44 -40 -5 -1 -1 -4 -6 -17)
1969/12/31/18:00:16.928000,(4 25 8 3 2 3 -5 -32)
1969/12/31/18:00:16.941000,(30 11 1 2 -1 1 16 42)
1969/12/31/18:00:16.941000,(-18 -4 -9 -3 -5 -18 -18 -13)
1969/12/31/18:00:16.942000,(28 2 2 3 2 27 15 27)
1969/12/31/18:00:16.942000,(-39 -29 -7 -2 -2 -8 -14 -12)
1969/12/31/18:00:16.964000,(-10 14 -1 -3 -4 -7 -10 -40)
1969/12/31/18:00:16.964000,(67 40 11 6 3 7 22 46)
1969/12/31/18:00:16.964000,(-84 -56 -20 -10 -7 -15 -32 -55)
1969/12/31/18:00:16.965000,(22 10 3 -3 -1 8 12 18)
1969/12/31/18:00:16.987000,(9 -1 2 2 1 0 29 41)
1969/12/31/18:00:16.987000,(-30 9 -11 -14 -11 -9 -45 -60)
1969/12/31/18:00:16.988000,(-7 -19 -5 -3 -2 -3 -7 -9)
1969/12/31/18:00:16.988000,(19 13 -2 1 5 27 17 0)
1969/12/31/18:00:17.002000,(-21 -4 -1 0 -3 -35 4 -2)
1969/12/31/18:00:17.002000,(-5 -14 -1 3 4 25 -1 5)
1969/12/31/18:00:17.002000,(7 3 1 1 -3 -22 -19 5)
1969/12/31/18:00:17.002000,(18 19 7 0 -7 -21 7 26)
1969/12/31/18:00:17.024000,(-6 -6 -4 -5 -1 27 33 -11)
1969/12/31/18:00:17.024000,(-19 0 -3 -6 -6 -1 -27 -21)
1969/12/31/18:00:17.025000,(4 16 -1 -1 0 0 3 12)
1969/12/31/18:00:17.025000,(17 -12 1 4 4 0 -2 -5)
1969/12/31/18:00:17.047000,(-16 -1 7 8 6 6 2 3)
1969/12/31/18:00:17.047000,(-71 -17 1 2 3 -7 -35 -56)
1969/12/31/18:00:17.048000,(78 8 -7 -4 -2 3 14 69)
1969/12/31/18:00:17.048000,(11 24 10 3 -4 -8 -42 -20)
1969/12/31/18:00:17.061000,(-24 -45 -20 -16 -14 -27 9 -10)
1969/12/31/18:00:17.061000,(10 6 4 3 10 29 45 11)
1969/12/31/18:00:17.062000,(7 11 6 3 2 -2 -12 0)
1969/12/31/18:00:17.062000,(-13 -25 -5 4 5 19 20 40)
1969/12/31/18:00:17.084000,(-12 -4 -15 -13 -17 -24 -31 -42)
1969/12/31/18:00:17.084000,(6 -25 -4 3 1 -7 14 10)
1969/12/31/18:00:17.085000,(36 40 7 -1 1 3 5 36)
1969/12/31/18:00:17.085000,(-26 -25 -8 -7 -3 -11 5 2)
1969/12/31/18:00:17.107000,(-42 16 13 11 12 7 -33 -33)
1969/12/31/18:00:17.107000,(85 2 -5 -6 -8 -2 27 64)
1969/12/31/18:00:17.108000,(-8 14 6 2 0 7 -3 -25)
1969/12/31/18:00:17.108000,(-32 -25 -11 -3 -1 0 -11 -39)
1969/12/31/18:00:17.122000,(12 9 2 1 -1 -1 20 19)
1969/12/31/18:00:17.122000,(-33 -3 8 11 7 -13 -3 1)
1969/12/31/18:00:17.123000,(-1 18 1 0 -4 -13 -38 -28)
1969/12/31/18:00:17.123000,(10 -37 -17 -11 -4 12 49 33)
1969/12/31/18:00:17.144000,(32 18 2 -5 -8 -5 -45 13)
1969/12/31/18:00:17.144000,(41 21 6 6 5 3 38 34)
1969/12/31/18:00:17.145000,(-36 -31 -11 -6 -7 -10 -8 -47)
1969/12/31/18:00:17.145000,(1 28 13 2 0 -11 -21 -4)
1969/12/31/18:00:17.167000,(-25 -19 0 1 4 5 -8 -7)
1969/12/31/18:00:17.167000,(8 5 -4 -5 -4 -2 -3 -17)
1969/12/31/18:00:17.167000,(22 9 9 12 8 12 24 63)
1969/12/31/18:00:17.167000,(25 -6 -4 -2 0 1 3 18)
1969/12/31/18:00:17.181000,(-41 -7 -4 -4 -3 2 -13 -67)
1969/12/31/18:00:17.181000,(-19 -2 6 1 0 1 -10 24)
1969/12/31/18:00:17.182000,(-29 -13 -8 -6 0 3 15 -50)
1969/12/31/18:00:17.182000,(18 10 5 5 4 4 6 -11)
1969/12/31/18:00:17.204000,(38 7 1 -2 -1 -9 15 43)
1969/12/31/18:00:17.204000,(-36 4 3 -1 -9 -12 7 -24)
1969/12/31/18:00:17.205000,(-7 -11 3 3 6 15 38 4)
1969/12/31/18:00:17.205000,(-19 26 3 -2 -6 -25 -17 -30)
1969/12/31/18:00:17.227000,(-26 -34 -10 -3 -3 10 -12 -34)
1969/12/31/18:00:17.227000,(-27 -13 5 4 4 -4 -19 -23)
1969/12/31/18:00:17.228000,(-10 -8 -10 -7 -5 -2 13 3)
1969/12/31/18:00:17.228000,(59 28 -1 -3 -2 -3 -2 14)
1969/12/31/18:00:17.241000,(21 19 5 2 -1 -3 5 24)
1969/12/31/18:00:17.241000,(9 -2 1 0 0 1 14 8)
1969/12/31/18:00:17.249000,(-33 6 7 5 3 -1 -11 -51)
1969/12/31/18:00:17.249000,(-5 10 6 4 6 5 0 41)
1969/12/31/18:00:17.264000,(32 -25 -11 -4 -4 -1 2 -4)
1969/12/31/18:00:17.264000,(-3 3 3 7 10 13 -6 -11)
1969/12/31/18:00:17.265000,(18 5 -7 -10 -9 -5 4 44)
1969/12/31/18:00:17.265000,(-23 -11 -5 -5 -5 -6 -12 -21)
1969/12/31/18:00:17.287000,(29 43 14 5 6 11 22 51)
1969/12/31/18:00:17.287000,(-47 -46 -11 -2 0 9 5 -31)
1969/12/31/18:00:17.288000,(8 3 2 3 3 -5 -24 -19)
1969/12/31/18:00:17.288000,(12 8 0 -1 -4 -5 7 28)
1969/12/31/18:00:17.301000,(20 -5 2 3 5 10 -4 9)
1969/12/31/18:00:17.301000,(16 17 4 4 3 1 16 72)
1969/12/31/18:00:17.302000,(-7 0 -10 -11 -13 -20 -26 -32)
1969/12/31/18:00:17.302000,(-81 -57 -17 -8 0 31 11 -48)
1969/12/31/18:00:17.324000,(28 12 2 1 0 -4 -2 44)
1969/12/31/18:00:17.324000,(31 11 -1 -3 -3 -3 -5 11)
1969/12/31/18:00:17.325000,(40 11 -1 -1 -5 -6 11 10)
1969/12/31/18:00:17.325000,(-6 -4 1 0 -1 -7 -3 -3)
1969/12/31/18:00:17.347000,(-66 -21 -10 -7 1 19 -2 -33)
1969/12/31/18:00:17.347000,(10 -4 -4 -6 -9 -8 -14 -15)
1969/12/31/18:00:17.348000,(-36 -4 1 3 1 -1 6 11)
1969/12/31/18:00:17.348000,(25 -6 -8 -9 -11 -27 -29 -40)
1969/12/31/18:00:17.362000,(-4 5 1 4 8 13 0 -13)
1969/12/31/18:00:17.362000,(24 0 -2 -5 -8 -12 3 27)
1969/12/31/18:00:17.362000,(-26 -5 3 -1 0 3 5 -11)
1969/12/31/18:00:17.362000,(-56 -23 -8 -2 -2 -5 -10 -24)
1969/12/31/18:00:17.384000,(44 43 18 7 5 2 11 8)
1969/12/31/18:00:17.384000,(-6 -35 -17 -12 -8 -5 -13 -1)
1969/12/31/18:00:17.385000,(111 34 7 5 1 1 12 66)
1969/12/31/18:00:17.385000,(5 -15 -6 -3 -3 -7 18 22)
1969/12/31/18:00:17.407000,(-14 29 9 1 2 0 -11 -14)
1969/12/31/18:00:17.407000,(-21 -4 0 0 5 11 21 4)
1969/12/31/18:00:17.408000,(0 2 15 9 6 0 -11 -30)
1969/12/31/18:00:17.408000,(2 5 -5 -4 -3 0 6 7)
1969/12/31/18:00:17.421000,(4 -32 -13 -5 -4 -11 -21 -14)
1969/12/31/18:00:17.421000,(-8 41 25 17 11 9 24 5)
1969/12/31/18:00:17.429000,(61 6 -4 -5 -4 -5 -26 -8)
1969/12/31/18:00:17.429000,(-40 4 8 3 1 -3 -1 -36)
1969/12/31/18:00:17.444000,(-16 8 5 4 7 1 7 -8)
1969/12/31/18:00:17.444000,(-19 -28 -18 -15 -14 -7 -18 -22)
1969/12/31/18:00:17.445000,(42 8 11 8 3 2 -2 28)
1969/12/31/18:00:17.445000,(-7 -27 -12 -3 -4 -6 -28 -30)
1969/12/31/18:00:17.467000,(56 32 1 1 -3 -7 11 17)
1969/12/31/18:00:17.467000,(-22 2 -5 -12 -11 -4 -10 -43)
1969/12/31/18:00:17.467000,(-63 -24 -7 -3 9 10 16 -2)
1969/12/31/18:00:17.467000,(-9 -19 -10 -10 -7 5 -20 -8)
1969/12/31/18:00:17.480000,(-47 -52 -11 9 24 -18 -26 -12)
1969/12/31/18:00:17.480000,(26 15 5 -2 -22 -14 7 -3)
1969/12/31/18:00:17.489000,(-46 -7 -4 -6 -4 9 1 -44)
1969/12/31/18:00:17.489000,(40 15 10 3 3 4 9 57)
1969/12/31/18:00:17.504000,(-56 -22 -7 -4 -4 0 8 -9)
1969/12/31/18:00:17.504000,(19 18 3 11 15 12 -20 -59)
1969/12/31/18:00:17.505000,(44 19 0 -2 4 -15 0 38)
1969/12/31/18:00:17.505000,(-55 -40 -10 -1 -4 2 2 -29)
1969/12/31/18:00:17.528000,(40 32 -1 -3 3 7 -20 -11)
1969/12/31/18:00:17.528000,(22 -22 -9 -10 -20 -15 -11 13)
1969/12/31/18:00:17.529000,(-7 -6 -7 -14 2 9 9 18)
1969/12/31/18:00:17.529000,(38 46 18 2 -17 -9 15 49)
1969/12/31/18:00:17.541000,(3 -39 -15 -13 -20 -22 3 -8)
1969/12/31/18:00:17.541000,(-39 -10 -3 4 3 11 -12 -34)
1969/12/31/18:00:17.549000,(-18 -16 -8 0 0 3 -3 35)
1969/12/31/18:00:17.549000,(13 45 18 12 18 1 6 25)
1969/12/31/18:00:17.564000,(-36 -55 -10 -1 -4 -16 3 -7)
1969/12/31/18:00:17.564000,(15 9 10 16 25 44 -18 60)
1969/12/31/18:00:17.564000,(-106 -29 -12 -11 -21 -38 -42 -111)
1969/12/31/18:00:17.564000,(19 -4 -11 -2 10 13 -12 -30)
1969/12/31/18:00:17.587000,(43 29 15 3 -14 -3 8 42)
1969/12/31/18:00:17.587000,(-43 0 -2 -1 10 1 7 -32)
1969/12/31/18:00:17.588000,(-16 -26 -7 -13 -27 -3 11 20)
1969/12/31/18:00:17.588000,(33 48 15 -8 -20 -8 10 33)
1969/12/31/18:00:17.601000,(-8 -19 -12 -7 -7 15 6 -27)
1969/12/31/18:00:17.601000,(-26 -22 -15 -5 3 -12 -6 11)
1969/12/31/18:00:17.609000,(28 23 14 22 25 17 6 9)
1969/12/31/18:00:17.609000,(-6 -28 -10 3 11 4 0 -9)
1969/12/31/18:00:17.624000,(-2 9 -2 -14 -23 -33 6 5)
1969/12/31/18:00:17.624000,(-1 23 17 36 82 46 26 10)
1969/12/31/18:00:17.625000,(42 9 -9 -43 -71 -5 -10 7)
1969/12/31/18:00:17.625000,(-18 33 21 6 -5 10 29 -18)
1969/12/31/18:00:17.647000,(-3 -44 -23 -12 -4 18 -26 30)
1969/12/31/18:00:17.647000,(-9 0 -6 -5 -4 -19 31 -7)
1969/12/31/18:00:17.648000,(12 -3 10 40 50 -3 10 11)
1969/12/31/18:00:17.648000,(-12 -14 -8 -6 1 1 -19 -3)
1969/12/31/18:00:17.661000,(-8 33 7 -6 -1 25 16 -4)
1969/12/31/18:00:17.661000,(42 13 2 -18 -39 -45 -14 8)
1969/12/31/18:00:17.669000,(-45 -19 1 30 50 -3 -3 -1)
1969/12/31/18:00:17.669000,(35 -9 -6 -16 -16 32 18 41)
1969/12/31/18:00:17.684000,(-9 29 4 -6 -5 10 7 -6)
1969/12/31/18:00:17.684000,(10 -58 -32 -28 -19 16 2 14)
1969/12/31/18:00:17.685000,(17 30 2 0 -2 -3 6 4)
1969/12/31/18:00:17.685000,(-35 5 31 40 13 -77 -31 -40)
1969/12/31/18:00:17.707000,(0 -27 -8 4 9 -9 -2 -8)
1969/12/31/18:00:17.707000,(-5 -3 -42 -37 -12 29 -14 -19)
1969/12/31/18:00:17.708000,(-27 61 52 6 -20 -12 5 0)
1969/12/31/18:00:17.708000,(5 -29 -4 6 -1 0 0 -21)
1969/12/31/18:00:17.721000,(18 7 -4 2 2 -13 -29 -76)
1969/12/31/18:00:17.721000,(-8 -1 17 19 -4 -44 -12 -5)
1969/12/31/18:00:17.729000,(-44 -78 -59 -16 30 6 -15 -47)
1969/12/31/18:00:17.729000,(-20 -4 -10 -21 -44 19 21 43)
1969/12/31/18:00:17.744000,(-58 -1 1 7 -6 -23 -6 -32)
1969/12/31/18:00:17.744000,(24 -38 -11 -20 -5 16 -21 -31)
1969/12/31/18:00:17.745000,(34 55 -6 5 31 37 21 13)
1969/12/31/18:00:17.745000,(13 10 26 17 27 4 1 25)
1969/12/31/18:00:17.775000,(-2 15 12 -12 -42 -18 -13 1)
1969/12/31/18:00:17.775000,(9 39 33 14 4 -15 18 14)
1969/12/31/18:00:17.775000,(-18 -85 -46 -27 -51 -70 -11 8)
1969/12/31/18:00:17.775000,(-10 -77 -108 -15 39 -29 -22 -22)
1969/12/31/18:00:17.790000,(16 100 99 37 -7 72 23 21)
1969/12/31/18:00:17.790000,(12 -44 3 4 -12 26 6 10)
1969/12/31/18:00:17.790000,(-36 11 -14 1 9 36 19 -8)
1969/12/31/18:00:17.790000,(53 51 32 -23 -25 -3 16 17)
1969/12/31/18:00:17.804000,(-7 -50 -39 6 14 -32 -4 15)
1969/12/31/18:00:17.804000,(-17 112 59 24 -11 -37 1 25)
1969/12/31/18:00:17.804000,(-17 -76 23 39 68 10 11 20)
1969/12/31/18:00:17.804000,(-10 -68 -91 -51 -22 94 3 -15)
1969/12/31/18:00:17.827000,(11 62 9 -17 0 -6 11 31)
1969/12/31/18:00:17.827000,(-2 84 82 10 -19 19 4 4)
1969/12/31/18:00:17.829000,(11 9 -2 -11 -26 -50 -6 5)
1969/12/31/18:00:17.829000,(-57 -53 -9 18 32 -50 -33 -44)
1969/12/31/18:00:17.850000,(9 -128 -103 -26 18 42 18 26)
1969/12/31/18:00:17.850000,(32 -100 -100 -44 -22 -14 10 25)
1969/12/31/18:00:17.851000,(-7 102 64 1 -34 11 -26 -38)
1969/12/31/18:00:17.851000,(15 44 23 5 1 -22 2 0)
1969/12/31/18:00:17.863000,(-10 62 81 52 68 47 25 53)
1969/12/31/18:00:17.863000,(-12 5 -10 -14 -67 -48 -13 -7)
1969/12/31/18:00:17.873000,(44 -86 -82 -31 -14 14 -9 -11)
1969/12/31/18:00:17.873000,(-25 -16 52 36 -25 -9 -2 5)
1969/12/31/18:00:17.887000,(20 79 -5 -39 -29 -33 -12 -33)
1969/12/31/18:00:17.887000,(-4 -80 -20 24 51 4 9 -7)
1969/12/31/18:00:17.888000,(17 87 36 1 1 25 -10 2)
1969/12/31/18:00:17.888000,(-21 67 57 34 29 5 10 -22)
1969/12/31/18:00:17.909000,(8 -97 -93 -69 -80 -11 -21 -31)
1969/12/31/18:00:17.909000,(22 65 30 24 14 8 3 36)
1969/12/31/18:00:17.911000,(23 44 47 -1 -24 -33 -7 -14)
1969/12/31/18:00:17.911000,(21 -60 -29 18 42 7 14 13)
1969/12/31/18:00:17.923000,(-45 -81 -53 -10 0 -18 -5 4)
1969/12/31/18:00:17.923000,(-11 -1 -28 -35 10 39 9 5)
1969/12/31/18:00:17.932000,(-62 -93 -55 -6 -31 -47 -19 -23)
1969/12/31/18:00:17.932000,(24 72 -45 -17 21 51 4 11)
1969/12/31/18:00:17.947000,(53 119 127 127 72 21 18 2)
1969/12/31/18:00:17.947000,(0 -128 -122 -21 -14 -28 5 58)
1969/12/31/18:00:17.948000,(-5 8 -57 -41 -11 17 -7 -19)
1969/12/31/18:00:17.948000,(6 72 104 59 26 4 34 50)
1969/12/31/18:00:17.969000,(-82 -128 -128 -128 -70 -65 -27 -11)
1969/12/31/18:00:17.969000,(110 127 127 127 98 60 21 31)
1969/12/31/18:00:17.971000,(-19 -128 -105 -5 -20 -2 -15 -24)
1969/12/31/18:00:17.971000,(-14 -128 -128 -53 -43 -2 -1 33)
1969/12/31/18:00:17.984000,(-25 -54 -35 -1 51 18 15 -4)
1969/12/31/18:00:17.984000,(-25 -4 -23 -34 -44 -60 -27 -38)
1969/12/31/18:00:17.991000,(12 -19 23 6 26 35 2 18)
1969/12/31/18:00:17.991000,(-4 -106 -85 -37 -31 -24 -18 -5)
1969/12/31/18:00:18.007000,(20 58 43 24 25 47 16 -12)
1969/12/31/18:00:18.007000,(24 55 54 59 45 -7 9 28)
1969/12/31/18:00:18.009000,(28 -19 9 -2 -27 13 28 57)
1969/12/31/18:00:18.009000,(-25 -53 -44 -23 -16 2 14 7)
1969/12/31/18:00:18.029000,(-49 -7 -52 -20 3 -3 -13 -1)
1969/12/31/18:00:18.030000,(-16 0 -2 -16 -19 -14 -23 -61)
1969/12/31/18:00:18.031000,(-5 -14 7 31 13 -23 -10 -8)
1969/12/31/18:00:18.031000,(34 74 86 38 24 -4 -2 0)
1969/12/31/18:00:18.044000,(42 -55 -23 0 -18 -31 -5 12)
1969/12/31/18:00:18.044000,(-20 -40 -44 -41 -54 -9 -8 -15)
1969/12/31/18:00:18.051000,(-4 -91 -61 -17 30 44 13 -12)
1969/12/31/18:00:18.051000,(-16 8 -44 -38 -15 -34 -18 -8)
1969/12/31/18:00:18.067000,(22 57 93 56 -4 28 8 -1)
1969/12/31/18:00:18.067000,(16 -98 -60 2 15 -16 -9 0)
1969/12/31/18:00:18.068000,(-17 -62 -36 -11 0 -12 -11 -19)
1969/12/31/18:00:18.068000,(-10 -17 -43 -39 -32 4 16 19)
1969/12/31/18:00:18.090000,(74 -98 -23 37 41 -40 -24 39)
1969/12/31/18:00:18.090000,(5 78 77 -14 -55 28 -1 2)
1969/12/31/18:00:18.091000,(18 -35 -25 -45 -56 -31 27 73)
1969/12/31/18:00:18.091000,(-7 -56 -22 14 37 20 -11 -37)
1969/12/31/18:00:18.112000,(4 112 106 48 -18 -32 -19 -52)
1969/12/31/18:00:18.112000,(-63 -128 -128 -21 10 -7 -8 -33)
1969/12/31/18:00:18.113000,(7 -7 -44 1 7 -6 -10 -35)
1969/12/31/18:00:18.114000,(-17 27 47 10 -2 19 17 -14)
1969/12/31/18:00:18.127000,(-6 -128 -128 -55 -28 -38 -23 -31)
1969/12/31/18:00:18.127000,(-7 51 32 -5 23 -3 17 8)
1969/12/31/18:00:18.129000,(21 127 127 42 11 11 -1 -1)
1969/12/31/18:00:18.129000,(-4 84 82 27 1 7 -19 -30)
1969/12/31/18:00:18.150000,(-30 -16 -5 -26 -6 47 5 -15)
1969/12/31/18:00:18.150000,(-33 -101 -77 -14 -12 -62 -30 -25)
1969/12/31/18:00:18.151000,(16 45 -18 -24 -11 26 10 -2)
1969/12/31/18:00:18.151000,(-26 -80 -14 22 12 -38 -14 -15)
1969/12/31/18:00:18.164000,(16 38 -30 -18 -27 13 8 34)
1969/12/31/18:00:18.164000,(-19 49 46 11 -4 -10 -12 -30)
1969/12/31/18:00:18.171000,(-73 -51 -19 -9 7 1 3 -36)
1969/12/31/18:00:18.171000,(61 -82 -91 -56 -41 -17 -10 10)
1969/12/31/18:00:18.187000,(-42 11 42 34 30 15 1 -22)
1969/12/31/18:00:18.187000,(-8 -40 -49 -7 19 7 -2 20)
1969/12/31/18:00:18.189000,(9 34 28 17 -5 -12 -21 -49)
1969/12/31/18:00:18.189000,(0 -58 -33 1 13 14 14 24)
1969/12/31/18:00:18.210000,(-20 37 4 16 32 -7 0 24)
1969/12/31/18:00:18.210000,(24 7 -7 -44 -44 -14 1 -32)
1969/12/31/18:00:18.211000,(12 17 13 28 56 40 8 40)
1969/12/31/18:00:18.211000,(-26 94 94 25 14 16 4 -6)
1969/12/31/18:00:18.223000,(73 -60 -30 -1 3 9 26 49)
1969/12/31/18:00:18.223000,(32 -47 -69 -32 -12 21 31 58)
1969/12/31/18:00:18.232000,(23 79 87 33 9 -35 -9 18)
1969/12/31/18:00:18.232000,(-4 -36 -27 5 1 -28 -15 -16)
1969/12/31/18:00:18.247000,(-25 -15 -10 -18 13 4 6 -8)
1969/12/31/18:00:18.247000,(-5 8 -4 0 -4 16 -2 -26)
1969/12/31/18:00:18.249000,(21 15 11 -10 -19 4 -7 17)
1969/12/31/18:00:18.249000,(41 -28 -34 -12 -11 10 28 61)
1969/12/31/18:00:18.270000,(-49 33 20 20 7 -7 -7 -24)
1969/12/31/18:00:18.270000,(12 -60 -51 -18 3 -10 -12 -3)
1969/12/31/18:00:18.271000,(-2 55 1 -11 -3 2 5 -23)
1969/12/31/18:00:18.271000,(-3 102 100 35 10 11 -25 -44)
1969/12/31/18:00:18.283000,(-24 -124 -90 -44 -36 -21 -1 4)
1969/12/31/18:00:18.283000,(-26 -79 -37 -10 7 0 -2 -16)
1969/12/31/18:00:18.292000,(39 94 93 70 27 -8 6 16)
1969/12/31/18:00:18.292000,(9 -48 -50 -29 -14 8 21 18)
1969/12/31/18:00:18.307000,(-6 2 2 -17 -33 -31 -30 -12)
1969/12/31/18:00:18.307000,(1 18 26 51 51 28 2 17)
1969/12/31/18:00:18.309000,(-43 -128 -111 -55 -13 8 13 6)
1969/12/31/18:00:18.309000,(1 49 -18 -17 -17 -20 -27 -16)
1969/12/31/18:00:18.330000,(7 42 27 -11 -5 41 3 -20)
1969/12/31/18:00:18.330000,(74 127 127 38 3 -10 -4 23)
1969/12/31/18:00:18.331000,(-44 -117 -75 -5 17 -7 -2 -8)
1969/12/31/18:00:18.331000,(25 -54 -72 -33 -31 -12 -20 -29)
1969/12/31/18:00:18.343000,(57 82 63 0 -13 -9 24 69)
1969/12/31/18:00:18.343000,(-1 3 18 12 12 22 4 -6)
1969/12/31/18:00:18.352000,(-60 -100 -95 -11 17 -6 12 3)
1969/12/31/18:00:18.352000,(-8 57 33 -21 -54 0 -3 -2)
1969/12/31/18:00:18.367000,(31 28 37 39 10 -5 6 -6)
1969/12/31/18:00:18.367000,(-25 -26 -34 -27 -15 12 5 -12)
1969/12/31/18:00:18.368000,(11 -42 -8 15 9 -28 -15 5)
1969/12/31/18:00:18.368000,(-72 -128 -90 -6 17 41 12 -33)
1969/12/31/18:00:18.389000,(41 61 -2 -20 -29 -12 -3 0)
1969/12/31/18:00:18.389000,(-17 87 88 16 0 1 20 7)
1969/12/31/18:00:18.397000,(-18 -85 -61 -35 -19 1 -7 -24)
1969/12/31/18:00:18.397000,(24 102 98 63 30 -16 7 25)
1969/12/31/18:00:18.403000,(-42 -115 -51 -10 13 12 -6 -29)
1969/12/31/18:00:18.403000,(-25 -46 -55 1 10 3 3 32)
1969/12/31/18:00:18.412000,(32 -2 -66 -27 -8 -8 3 23)
1969/12/31/18:00:18.412000,(96 59 79 62 4 15 9 21)
1969/12/31/18:00:18.427000,(-28 -120 -60 -3 2 -29 -7 -17)
1969/12/31/18:00:18.427000,(-29 -56 -62 -36 -29 26 -12 -20)
1969/12/31/18:00:18.429000,(-23 -50 -16 -4 -17 -10 -10 10)
1969/12/31/18:00:18.429000,(-22 -4 -6 -10 -1 -26 -10 -19)
1969/12/31/18:00:18.450000,(13 87 43 26 41 16 -5 -16)
1969/12/31/18:00:18.450000,(-54 -75 -34 -33 -34 -12 16 -54)
1969/12/31/18:00:18.451000,(39 119 48 3 -15 -5 -6 1)
1969/12/31/18:00:18.451000,(-17 8 24 12 39 13 -17 -19)
1969/12/31/18:00:18.463000,(19 -60 -38 -24 -49 -20 14 60)
1969/12/31/18:00:18.463000,(-3 -56 -49 0 20 2 -2 1)
1969/12/31/18:00:18.472000,(12 65 66 14 -6 -3 1 1)
1969/12/31/18:00:18.472000,(-18 -63 -88 -32 -6 -17 -4 9)
1969/12/31/18:00:18.495000,(-32 39 56 29 20 -16 -16 -29)
1969/12/31/18:00:18.495000,(-2 35 38 17 17 30 5 -25)
1969/12/31/18:00:18.496000,(28 -28 -48 -35 -41 -1 5 17)
1969/12/31/18:00:18.496000,(-39 -108 -33 12 18 -44 -5 -2)
1969/12/31/18:00:18.509000,(-9 37 -58 -42 -11 57 15 3)
1969/12/31/18:00:18.509000,(23 90 69 44 3 -33 -26 -28)
1969/12/31/18:00:18.511000,(19 -44 4 14 -5 30 10 26)
1969/12/31/18:00:18.511000,(-45 -84 -41 -19 5 7 5 -21)
1969/12/31/18:00:18.523000,(-37 -62 -57 -16 -18 -7 -7 -39)
1969/12/31/18:00:18.523000,(-13 -4 5 14 15 -10 19 40)
1969/12/31/18:00:18.532000,(-28 53 30 12 33 6 -23 -55)
1969/12/31/18:00:18.532000,(10 15 27 -13 -23 -7 -15 -20)
1969/12/31/18:00:18.546000,(-8 -83 -35 22 26 14 31 27)
1969/12/31/18:00:18.546000,(-5 -15 -42 -41 -21 9 -22 0)
1969/12/31/18:00:18.553000,(-11 84 62 35 21 10 -3 -19)
1969/12/31/18:00:18.553000,(15 -16 6 8 13 2 -2 -9)
1969/12/31/18:00:18.570000,(29 78 75 21 10 13 18 18)
1969/12/31/18:00:18.570000,(23 51 44 35 16 -24 -11 24)
1969/12/31/18:00:18.571000,(-43 -128 -128 -52 -6 13 -3 -16)
1969/12/31/18:00:18.571000,(42 126 92 2 -19 -7 12 10)
1969/12/31/18:00:18.583000,(39 35 21 16 9 2 3 64)
1969/12/31/18:00:18.583000,(-28 -38 -41 -24 -2 -4 -14 -63)
1969/12/31/18:00:18.592000,(-15 -10 39 17 -6 -10 2 3)
1969/12/31/18:00:18.592000,(26 9 -28 -12 -11 -15 -8 19)
1969/12/31/18:00:18.606000,(-21 -37 -12 15 28 0 0 -25)
1969/12/31/18:00:18.606000,(38 23 -1 -26 -9 13 -28 -5)
1969/12/31/18:00:18.613000,(37 32 41 18 3 8 29 48)
1969/12/31/18:00:18.613000,(-61 -115 -101 -27 -14 -1 -14 -38)
1969/12/31/18:00:18.630000,(26 95 49 -25 3 23 5 32)
1969/12/31/18:00:18.630000,(-36 -44 -5 31 34 11 38 18)
1969/12/31/18:00:18.631000,(18 3 1 -2 -6 -16 -11 -26)
1969/12/31/18:00:18.631000,(-4 -54 -11 -2 10 21 -9 -14)
1969/12/31/18:00:18.643000,(-58 -128 -128 -37 -20 -37 -31 -43)
1969/12/31/18:00:18.643000,(38 93 53 30 10 6 8 17)
1969/12/31/18:00:18.652000,(15 0 48 0 -15 -3 0 12)
1969/12/31/18:00:18.652000,(-45 -2 -30 -11 -18 -9 4 -6)
1969/12/31/18:00:18.666000,(-17 1 21 5 3 1 -11 -20)
1969/12/31/18:00:18.666000,(7 -128 -87 -22 -16 -19 -1 25)
1969/12/31/18:00:18.673000,(-9 99 73 18 8 -7 -13 -55)
1969/12/31/18:00:18.673000,(26 24 14 -5 -3 3 -4 11)
1969/12/31/18:00:18.690000,(-55 -86 -58 -12 -19 -6 0 -5)
1969/12/31/18:00:18.690000,(-22 0 18 3 -4 13 -6 -15)
1969/12/31/18:00:18.691000,(38 59 20 16 23 -4 13 38)
1969/12/31/18:00:18.691000,(-5 -47 -39 -21 -21 5 8 4)
1969/12/31/18:00:18.703000,(64 101 52 31 28 10 13 45)
1969/12/31/18:00:18.703000,(-32 -106 -55 -30 -27 -32 -11 13)
1969/12/31/18:00:18.712000,(3 39 30 26 5 3 -4 -2)
1969/12/31/18:00:18.712000,(46 29 -9 -12 7 -11 15 45)
1969/12/31/18:00:18.726000,(-35 -23 10 -12 -40 -22 -23 -30)
1969/12/31/18:00:18.726000,(12 -65 -71 -23 19 43 8 6)
1969/12/31/18:00:18.733000,(39 66 44 10 14 14 2 31)
1969/12/31/18:00:18.733000,(-36 -59 -39 14 12 8 19 28)
1969/12/31/18:00:18.750000,(13 79 63 -4 -16 -23 -24 -39)
1969/12/31/18:00:18.750000,(12 -17 -26 -26 -26 -20 -1 -13)
1969/12/31/18:00:18.751000,(11 44 40 17 -1 1 19 9)
1969/12/31/18:00:18.751000,(-29 -23 10 22 21 3 -8 14)
1969/12/31/18:00:18.772000,(-6 -13 -13 -7 -6 6 5 -1)
1969/12/31/18:00:18.772000,(-8 -41 -22 0 -13 -24 -7 -29)
1969/12/31/18:00:18.774000,(-50 -128 -118 -53 -31 3 2 28)
1969/12/31/18:00:18.774000,(33 47 -10 -28 -23 1 6 10)
1969/12/31/18:00:18.786000,(17 77 95 71 35 5 6 -19)
1969/12/31/18:00:18.787000,(-10 -31 -27 -14 -19 -18 2 21)
1969/12/31/18:00:18.793000,(1 -102 -99 -7 25 -16 -7 -16)
1969/12/31/18:00:18.793000,(33 107 87 24 -7 30 -20 6)
1969/12/31/18:00:18.810000,(6 -36 -41 -34 -17 5 11 -5)
1969/12/31/18:00:18.810000,(47 127 95 24 13 13 11 31)
1969/12/31/18:00:18.811000,(-19 -35 -18 20 32 2 8 10)
1969/12/31/18:00:18.811000,(-12 -31 -27 -4 -11 -20 -23 -50)
1969/12/31/18:00:18.832000,(12 -11 -22 -30 -19 14 3 4)
1969/12/31/18:00:18.832000,(-7 36 67 26 -7 -23 -19 2)
1969/12/31/18:00:18.833000,(-4 -96 -58 -22 30 39 9 6)
1969/12/31/18:00:18.833000,(-19 -39 -40 -13 -9 -33 -15 -32)
1969/12/31/18:00:18.846000,(38 72 39 26 14 5 21 60)
1969/12/31/18:00:18.846000,(-3 -5 6 7 15 4 -9 -35)
1969/12/31/18:00:18.853000,(0 -56 -32 -14 -29 -13 -2 19)
1969/12/31/18:00:18.853000,(-51 -11 7 -1 6 11 4 -4)
1969/12/31/18:00:18.870000,(-6 -10 1 -12 -11 0 7 21)
1969/12/31/18:00:18.870000,(-11 -61 -52 -4 4 1 -8 -20)
1969/12/31/18:00:18.871000,(15 120 67 7 -2 -1 1 -6)
1969/12/31/18:00:18.871000,(-4 -10 -25 -6 3 4 5 15)
1969/12/31/18:00:18.892000,(-29 -28 -21 14 21 -3 -34 -91)
