time,.data
1969/12/31/18:00:04.559000,(-2 -1 0 1 -1 -1 -1 1)
1969/12/31/18:00:04.559000,(-2 -1 -1 1 -1 1 -2 -1)
1969/12/31/18:00:04.561000,(0 0 2 -2 -1 0 -1 -1)
1969/12/31/18:00:04.561000,(-3 1 -1 0 1 -1 -1 -2)
1969/12/31/18:00:04.582000,(1 -1 0 0 -2 -1 1 2)
1969/12/31/18:00:04.582000,(0 -1 1 -2 -2 0 -2 -1)
1969/12/31/18:00:04.583000,(1 -1 0 0 0 -1 1 0)
1969/12/31/18:00:04.583000,(1 1 -2 -1 0 0 -2 -1)
1969/12/31/18:00:04.604000,(-1 -1 -1 1 -1 -2 -2 -2)
1969/12/31/18:00:04.604000,(0 0 -3 -2 -2 -1 1 2)
1969/12/31/18:00:04.606000,(0 -1 -1 -1 0 1 1 1)
1969/12/31/18:00:04.606000,(0 -1 0 -1 -1 0 -1 0)
1969/12/31/18:00:04.619000,(2 1 -1 -1 0 0 0 -1)
1969/12/31/18:00:04.619000,(-1 0 -1 -2 0 -2 -3 -2)
1969/12/31/18:00:04.621000,(0 0 -2 0 0 1 -1 0)
1969/12/31/18:00:04.621000,(0 1 0 -1 -1 -1 0 1)
1969/12/31/18:00:04.641000,(-1 -1 0 -1 -1 0 1 -1)
1969/12/31/18:00:04.641000,(1 0 0 -1 -2 -1 -1 -2)
1969/12/31/18:00:04.649000,(-2 -2 -2 0 0 -1 -2 -3)
1969/12/31/18:00:04.649000,(2 2 -1 0 1 1 0 3)
1969/12/31/18:00:04.664000,(1 0 -1 -1 0 -1 0 1)
1969/12/31/18:00:04.664000,(-3 -3 -1 -1 0 -1 -3 -2)
1969/12/31/18:00:04.666000,(-1 -1 2 1 -2 -1 -3 -1)
1969/12/31/18:00:04.666000,(-2 -3 -1 0 -1 -1 -3 -3)
1969/12/31/18:00:04.679000,(1 -2 -2 -1 0 1 2 0)
1969/12/31/18:00:04.679000,(2 2 -1 0 1 1 1 1)
1969/12/31/18:00:04.681000,(-1 0 -2 -2 -3 0 1 -1)
1969/12/31/18:00:04.681000,(-1 0 0 0 0 -1 -2 -2)
1969/12/31/18:00:04.701000,(-2 0 0 -2 -3 -2 -1 0)
1969/12/31/18:00:04.701000,(0 -1 0 -1 -1 0 -1 -1)
1969/12/31/18:00:04.703000,(0 -2 -1 1 0 -2 0 0)
1969/12/31/18:00:04.703000,(1 1 -1 0 2 3 5 3)
1969/12/31/18:00:04.724000,(1 3 10 -5 -5 0 1 0)
1969/12/31/18:00:04.724000,(1 3 -12 6 1 -2 -4 -2)
1969/12/31/18:00:04.726000,(0 -4 -1 -6 -1 -4 -3 0)
1969/12/31/18:00:04.726000,(-9 -6 2 -3 -1 -1 -4 -8)
1969/12/31/18:00:04.754000,(2 1 1 -1 6 3 1 3)
1969/12/31/18:00:04.754000,(-2 -5 -2 -11 -8 -1 2 0)
1969/12/31/18:00:04.756000,(8 6 -4 8 4 2 4 5)
1969/12/31/18:00:04.756000,(-2 -3 -6 -32 -15 -7 -5 -3)
1969/12/31/18:00:04.762000,(1 -1 0 8 -8 -3 1 0)
1969/12/31/18:00:04.762000,(-9 -1 19 64 33 -1 -9 -8)
1969/12/31/18:00:04.763000,(2 3 14 12 16 13 10 6)
1969/12/31/18:00:04.763000,(5 5 -19 -52 -54 -17 -4 -1)
1969/12/31/18:00:04.784000,(5 -3 -34 -41 12 0 -3 2)
1969/12/31/18:00:04.784000,(-6 -6 24 43 9 9 2 -3)
1969/12/31/18:00:04.786000,(-13 -2 20 57 46 14 -1 -8)
1969/12/31/18:00:04.786000,(-5 -7 8 19 12 -3 -2 1)
1969/12/31/18:00:04.798000,(-6 -7 -24 -105 -92 -30 -6 -7)
1969/12/31/18:00:04.798000,(19 9 -37 -86 -40 -10 6 11)
1969/12/31/18:00:04.807000,(3 4 14 49 43 15 1 2)
1969/12/31/18:00:04.807000,(0 5 31 76 28 15 3 -4)
1969/12/31/18:00:04.822000,(-4 7 23 42 65 15 4 -3)
1969/12/31/18:00:04.822000,(-1 -3 -31 -42 -43 -16 -6 -1)
1969/12/31/18:00:04.823000,(1 -13 -17 -47 -66 -17 -4 -3)
1969/12/31/18:00:04.823000,(-1 -3 -10 15 25 4 -2 -1)
1969/12/31/18:00:04.844000,(-13 -13 29 43 21 2 -4 -5)
1969/12/31/18:00:04.844000,(-13 -11 -35 -94 -71 -19 -4 -6)
1969/12/31/18:00:04.846000,(25 24 15 14 2 9 13 21)
1969/12/31/18:00:04.846000,(2 5 24 86 67 15 0 0)
1969/12/31/18:00:04.858000,(-6 -6 0 2 48 13 0 -4)
1969/12/31/18:00:04.858000,(-5 -8 -24 -64 -34 -12 -6 -5)
1969/12/31/18:00:04.867000,(-12 -11 -25 -67 -43 -21 -12 -10)
1969/12/31/18:00:04.867000,(7 8 9 62 8 0 5 5)
1969/12/31/18:00:04.881000,(6 13 24 34 10 -7 -3 2)
1969/12/31/18:00:04.882000,(10 7 18 53 1 10 12 10)
1969/12/31/18:00:04.883000,(-7 -12 -28 -78 0 12 4 -3)
1969/12/31/18:00:04.883000,(6 3 2 -12 44 29 11 9)
1969/12/31/18:00:04.905000,(1 0 -4 46 46 8 -2 0)
1969/12/31/18:00:04.905000,(-7 -9 8 -50 -11 -12 -10 -6)
1969/12/31/18:00:04.906000,(-8 3 14 10 -63 -20 -6 -7)
1969/12/31/18:00:04.906000,(6 10 -9 41 14 -3 2 3)
1969/12/31/18:00:04.918000,(4 -4 -19 -54 -45 3 5 5)
1969/12/31/18:00:04.918000,(-1 3 30 78 72 17 2 2)
1969/12/31/18:00:04.927000,(-2 -1 -20 -31 -2 -8 -6 -3)
1969/12/31/18:00:04.927000,(-8 -13 -29 -128 -121 -30 -12 -8)
1969/12/31/18:00:04.941000,(8 13 24 95 75 19 6 5)
1969/12/31/18:00:04.941000,(3 6 20 84 33 12 4 1)
1969/12/31/18:00:04.943000,(-5 -12 -27 -72 -12 3 -1 -3)
1969/12/31/18:00:04.943000,(1 1 19 34 -46 -10 -3 2)
1969/12/31/18:00:04.964000,(-7 -5 -2 3 -38 -13 -6 -7)
1969/12/31/18:00:04.964000,(-1 1 7 -69 0 6 1 1)
1969/12/31/18:00:04.966000,(1 3 6 55 30 -2 -2 0)
1969/12/31/18:00:04.966000,(-1 -6 -25 -78 -43 -13 -3 -1)
1969/12/31/18:00:04.979000,(1 2 9 30 17 12 6 5)
1969/12/31/18:00:04.979000,(-2 -1 8 40 31 7 2 -2)
1969/12/31/18:00:04.987000,(-1 -1 -11 -34 -21 -14 -6 -3)
1969/12/31/18:00:04.987000,(-5 -5 -13 -42 -1 -7 -4 -5)
1969/12/31/18:00:05.002000,(-1 -2 -11 -29 -52 -11 -3 -1)
1969/12/31/18:00:05.002000,(1 1 5 36 35 8 5 3)
1969/12/31/18:00:05.003000,(3 4 8 -44 -28 -5 -2 2)
1969/12/31/18:00:05.003000,(1 4 24 82 74 23 8 4)
1969/12/31/18:00:05.031000,(-1 -2 -7 -41 -14 -3 -3 -4)
1969/12/31/18:00:05.031000,(-2 -2 -5 10 -13 -5 -3 -2)
1969/12/31/18:00:05.040000,(-2 -2 -1 4 -5 -4 -3 -1)
1969/12/31/18:00:05.040000,(-2 -3 2 -3 -3 -2 -1 -4)
1969/12/31/18:00:05.041000,(-1 -2 -14 -37 -29 -8 -3 -2)
1969/12/31/18:00:05.041000,(-1 0 -3 -6 -3 -1 -3 -2)
1969/12/31/18:00:05.054000,(-1 3 9 45 27 4 1 1)
1969/12/31/18:00:05.054000,(3 -5 -11 -41 -12 -3 0 4)
1969/12/31/18:00:05.062000,(-4 -3 -3 3 -4 -3 1 0)
1969/12/31/18:00:05.062000,(-1 1 4 0 -2 -1 -1 -4)
1969/12/31/18:00:05.063000,(-3 4 5 26 19 2 -3 -7)
1969/12/31/18:00:05.063000,(1 1 -6 -21 -10 -6 -3 1)
1969/12/31/18:00:05.084000,(-10 -10 -1 -5 -2 1 0 -3)
1969/12/31/18:00:05.084000,(-3 -4 -5 2 3 -3 -3 -3)
1969/12/31/18:00:05.086000,(-1 -3 2 6 2 1 2 3)
1969/12/31/18:00:05.086000,(-2 -1 -5 -8 3 -3 -1 -3)
1969/12/31/18:00:05.098000,(11 4 -3 -4 -4 -1 2 7)
1969/12/31/18:00:05.098000,(-9 -2 0 -9 -2 1 -3 -8)
1969/12/31/18:00:05.107000,(-1 0 1 16 4 -4 -2 1)
1969/12/31/18:00:05.107000,(9 4 6 3 8 2 -3 -2)
1969/12/31/18:00:05.122000,(-5 -4 -8 -10 -3 2 2 -2)
1969/12/31/18:00:05.122000,(-14 -13 -9 -8 -6 -1 -2 -7)
1969/12/31/18:00:05.123000,(2 -2 1 10 4 0 -2 2)
1969/12/31/18:00:05.123000,(3 0 -2 -7 0 -1 4 6)
1969/12/31/18:00:05.144000,(-13 -6 -2 -4 -4 -1 -4 -4)
1969/12/31/18:00:05.144000,(25 19 10 1 4 3 3 9)
1969/12/31/18:00:05.146000,(-3 0 2 11 9 3 3 -1)
1969/12/31/18:00:05.146000,(-8 -7 -6 -12 -4 -3 -6 -8)
1969/12/31/18:00:05.158000,(5 1 -3 -15 -18 -8 -3 -3)
1969/12/31/18:00:05.158000,(-3 -2 0 9 6 4 3 4)
1969/12/31/18:00:05.167000,(-13 -8 4 8 1 0 -1 -2)
1969/12/31/18:00:05.167000,(19 15 7 14 12 6 3 5)
1969/12/31/18:00:05.182000,(-4 0 -3 -7 -5 -8 -7 -6)
1969/12/31/18:00:05.182000,(-1 -3 -6 -15 -15 -7 -2 2)
1969/12/31/18:00:05.183000,(13 14 2 -2 -3 -1 2 8)
1969/12/31/18:00:05.183000,(-42 -31 -2 -3 4 1 1 -8)
1969/12/31/18:00:05.204000,(24 5 -3 4 2 6 4 5)
1969/12/31/18:00:05.204000,(-3 -1 4 -5 -4 -7 -11 -13)
1969/12/31/18:00:05.206000,(-7 -8 -6 1 0 -6 -9 -7)
1969/12/31/18:00:05.206000,(1 4 2 0 2 6 8 9)
1969/12/31/18:00:05.218000,(-11 -11 -5 1 -1 -8 -10 -8)
1969/12/31/18:00:05.218000,(7 8 2 2 5 8 8 10)
1969/12/31/18:00:05.226000,(-4 -5 -5 -11 0 0 0 -6)
1969/12/31/18:00:05.226000,(0 -1 -2 -4 -16 -7 -6 -4)
1969/12/31/18:00:05.241000,(6 9 7 10 7 3 6 6)
1969/12/31/18:00:05.241000,(-2 -3 -1 -20 -10 -4 -2 -3)
1969/12/31/18:00:05.248000,(-11 0 9 68 25 10 10 -2)
1969/12/31/18:00:05.248000,(38 21 11 10 24 11 13 27)
1969/12/31/18:00:05.264000,(-6 -6 -14 -40 -32 -12 -10 -9)
1969/12/31/18:00:05.264000,(4 2 -8 -11 -7 1 3 4)
1969/12/31/18:00:05.266000,(-11 -10 -8 -15 -15 -8 -4 -5)
1969/12/31/18:00:05.266000,(-11 -2 1 17 21 9 6 -6)
1969/12/31/18:00:05.278000,(-35 -9 17 32 13 -1 -12 -17)
1969/12/31/18:00:05.278000,(63 24 -2 -18 1 10 13 26)
1969/12/31/18:00:05.287000,(-11 -3 7 5 -10 -10 -13 -10)
1969/12/31/18:00:05.287000,(-27 -2 -7 -13 -22 -20 -29 -27)
1969/12/31/18:00:05.317000,(23 5 -3 -13 -2 1 5 12)
1969/12/31/18:00:05.317000,(-17 -13 -14 -17 -3 -1 3 1)
1969/12/31/18:00:05.318000,(21 9 1 -1 5 5 7 8)
1969/12/31/18:00:05.318000,(1 4 11 7 -5 -1 3 1)
1969/12/31/18:00:05.324000,(-7 -4 -8 -10 -8 -4 -4 -3)
1969/12/31/18:00:05.324000,(-8 1 4 13 7 2 -2 -5)
1969/12/31/18:00:05.326000,(12 3 -11 -48 -9 1 4 8)
1969/12/31/18:00:05.326000,(-12 -9 -9 7 8 -6 -7 -16)
1969/12/31/18:00:05.338000,(21 21 28 89 29 18 12 13)
1969/12/31/18:00:05.338000,(-10 -10 -2 5 5 -3 -6 -8)
1969/12/31/18:00:05.347000,(-4 -5 6 13 2 -2 -6 -7)
1969/12/31/18:00:05.347000,(-17 -11 -5 -37 -5 10 10 -7)
1969/12/31/18:00:05.361000,(11 1 -19 -62 -16 -9 -6 -4)
1969/12/31/18:00:05.361000,(0 5 -3 15 -8 -8 0 2)
1969/12/31/18:00:05.368000,(-29 -21 7 25 3 -5 -7 -10)
1969/12/31/18:00:05.368000,(55 35 11 17 18 15 18 24)
1969/12/31/18:00:05.384000,(-2 1 2 4 9 4 -1 -3)
1969/12/31/18:00:05.384000,(-26 -18 -16 -54 -23 -6 -7 -13)
1969/12/31/18:00:05.386000,(-3 -2 -11 -8 -51 -14 0 -1)
1969/12/31/18:00:05.386000,(7 1 10 80 34 2 0 7)
1969/12/31/18:00:05.398000,(3 3 8 27 46 16 10 8)
1969/12/31/18:00:05.398000,(-1 0 10 6 9 9 1 -3)
1969/12/31/18:00:05.406000,(-6 -7 -11 -42 -17 -2 -2 -1)
1969/12/31/18:00:05.406000,(-3 0 -10 -26 -29 -16 -10 -5)
1969/12/31/18:00:05.421000,(2 16 11 35 9 -5 0 3)
1969/12/31/18:00:05.421000,(-7 -11 -2 -6 4 -7 -12 -11)
1969/12/31/18:00:05.428000,(14 8 7 -7 13 12 8 5)
1969/12/31/18:00:05.428000,(-5 -14 -19 -53 -49 -17 -10 -4)
1969/12/31/18:00:05.444000,(-36 -27 -10 2 -4 -6 -4 -11)
1969/12/31/18:00:05.444000,(12 12 14 48 41 13 7 10)
1969/12/31/18:00:05.446000,(11 12 7 10 24 16 12 9)
1969/12/31/18:00:05.446000,(-22 -24 -23 -98 -40 -15 -15 -16)
1969/12/31/18:00:05.458000,(12 6 1 13 -32 -6 6 6)
1969/12/31/18:00:05.458000,(5 9 20 74 29 5 6 10)
1969/12/31/18:00:05.474000,(-29 -29 -4 29 35 0 -5 -11)
1969/12/31/18:00:05.474000,(48 44 10 8 15 12 12 25)
1969/12/31/18:00:05.481000,(-22 -17 -22 -62 -38 -19 -21 -28)
1969/12/31/18:00:05.481000,(3 -6 -41 -119 -63 -20 -6 1)
1969/12/31/18:00:05.488000,(1 -1 9 74 0 -8 -5 -3)
1969/12/31/18:00:05.488000,(-16 -9 27 77 50 11 1 -8)
1969/12/31/18:00:05.504000,(6 6 4 11 26 22 12 12)
1969/12/31/18:00:05.504000,(-4 4 2 0 -3 2 -1 -6)
1969/12/31/18:00:05.506000,(0 -4 -33 -128 -50 -15 -6 -3)
1969/12/31/18:00:05.506000,(-5 -5 0 57 -26 -12 -3 0)
1969/12/31/18:00:05.526000,(10 8 26 78 60 11 6 5)
1969/12/31/18:00:05.527000,(-23 -14 0 -13 8 4 -4 -11)
1969/12/31/18:00:05.528000,(30 18 -18 -19 -41 -4 8 19)
1969/12/31/18:00:05.528000,(-2 -2 18 85 41 6 3 -1)
1969/12/31/18:00:05.541000,(4 4 4 -7 -1 -2 -1 1)
1969/12/31/18:00:05.541000,(-54 -52 4 35 7 -6 -10 -30)
1969/12/31/18:00:05.548000,(61 81 24 -7 17 14 16 44)
1969/12/31/18:00:05.548000,(-9 -16 -29 -82 -39 -14 -11 -16)
1969/12/31/18:00:05.564000,(5 1 -6 -13 -10 -4 4 14)
1969/12/31/18:00:05.564000,(-2 -4 -10 -24 -14 -4 -3 -5)
1969/12/31/18:00:05.566000,(-4 -8 3 2 7 2 3 -2)
1969/12/31/18:00:05.566000,(-7 -3 1 4 11 2 -1 -3)
1969/12/31/18:00:05.586000,(0 0 0 -20 -6 0 5 3)
1969/12/31/18:00:05.586000,(14 15 -1 -8 -19 -8 0 9)
1969/12/31/18:00:05.593000,(-10 -15 -10 -53 -38 -10 -7 -12)
1969/12/31/18:00:05.593000,(-9 -5 1 46 22 3 -3 -3)
1969/12/31/18:00:05.600000,(-10 -5 23 62 64 18 0 -10)
1969/12/31/18:00:05.600000,(16 19 19 41 34 14 9 11)
1969/12/31/18:00:05.609000,(-21 -15 6 22 22 2 -6 -17)
1969/12/31/18:00:05.609000,(14 3 -23 -121 -58 -11 0 6)
1969/12/31/18:00:05.624000,(8 -4 -23 -46 -51 -10 4 16)
1969/12/31/18:00:05.624000,(-4 -2 -17 -21 -22 -12 -8 -5)
1969/12/31/18:00:05.626000,(25 18 36 111 48 13 11 19)
1969/12/31/18:00:05.626000,(-23 -11 11 24 31 10 1 -7)
1969/12/31/18:00:05.647000,(-8 -1 -2 -2 -6 -4 -8 -12)
1969/12/31/18:00:05.647000,(7 4 -3 -23 -2 2 2 5)
1969/12/31/18:00:05.648000,(-15 -20 -24 -49 -32 -15 -8 -13)
1969/12/31/18:00:05.648000,(-8 -6 -4 -7 -15 -4 0 -2)
1969/12/31/18:00:05.660000,(-7 -4 2 21 26 3 -5 -8)
1969/12/31/18:00:05.660000,(5 9 7 19 -1 2 3 4)
1969/12/31/18:00:05.669000,(-11 -7 0 2 10 2 -5 -9)
1969/12/31/18:00:05.669000,(7 3 -7 -25 -20 -3 1 6)
1969/12/31/18:00:05.684000,(16 11 -4 -8 -3 -2 3 8)
1969/12/31/18:00:05.684000,(-5 -9 -10 -8 -15 -6 -2 -6)
1969/12/31/18:00:05.686000,(0 1 10 64 17 -2 -3 -3)
1969/12/31/18:00:05.686000,(1 3 16 31 29 7 0 -3)
1969/12/31/18:00:05.707000,(4 1 -1 -23 -20 0 1 2)
1969/12/31/18:00:05.707000,(4 -2 3 15 9 3 4 6)
1969/12/31/18:00:05.708000,(-1 6 -6 -34 3 2 -3 -5)
1969/12/31/18:00:05.708000,(-4 -6 -11 -22 -17 3 14 11)
1969/12/31/18:00:05.720000,(-3 -9 -11 -20 -22 -15 -10 -8)
1969/12/31/18:00:05.720000,(-38 -37 -2 -3 0 -3 -5 -15)
1969/12/31/18:00:05.729000,(82 70 8 1 15 10 22 59)
1969/12/31/18:00:05.729000,(-41 -39 -12 -2 -10 -15 -27 -37)
1969/12/31/18:00:05.744000,(-2 3 -3 -7 -7 -4 -2 -3)
1969/12/31/18:00:05.744000,(3 -7 -1 -5 1 1 2 7)
1969/12/31/18:00:05.746000,(-15 -14 14 37 8 2 0 -7)
1969/12/31/18:00:05.746000,(11 16 2 1 7 2 3 8)
1969/12/31/18:00:05.766000,(-2 -7 -7 -30 -24 -6 -2 0)
1969/12/31/18:00:05.766000,(-5 0 -11 -7 -21 -13 -12 -12)
1969/12/31/18:00:05.768000,(-14 -13 1 37 32 8 1 -10)
1969/12/31/18:00:05.768000,(19 19 19 37 35 16 10 13)
1969/12/31/18:00:05.780000,(-35 -51 1 20 3 2 -6 -14)
1969/12/31/18:00:05.780000,(74 89 11 3 17 13 28 46)
1969/12/31/18:00:05.797000,(-63 -48 -25 -41 -29 -23 -42 -68)
1969/12/31/18:00:05.797000,(8 1 -13 -42 -21 -7 -2 7)
1969/12/31/18:00:05.804000,(-18 -8 -7 -28 -22 -5 -5 -19)
1969/12/31/18:00:05.804000,(-10 -12 10 24 12 1 2 11)
1969/12/31/18:00:05.806000,(52 24 3 -8 7 9 14 24)
1969/12/31/18:00:05.806000,(-15 -13 -8 4 -8 -11 -15 -16)
1969/12/31/18:00:05.826000,(-3 6 -8 -25 -19 -15 -13 -9)
1969/12/31/18:00:05.827000,(8 4 4 0 0 6 4 3)
1969/12/31/18:00:05.828000,(-30 -26 1 4 1 0 -2 -12)
1969/12/31/18:00:05.828000,(13 -6 12 11 17 16 19 22)
1969/12/31/18:00:05.840000,(46 49 21 48 26 15 19 26)
1969/12/31/18:00:05.840000,(-32 -39 1 19 7 1 -12 -23)
1969/12/31/18:00:05.849000,(66 66 6 -10 -5 4 12 28)
1969/12/31/18:00:05.849000,(-42 -89 -20 -39 -25 -16 -15 -13)
1969/12/31/18:00:05.872000,(-28 24 0 -15 0 3 3 -5)
1969/12/31/18:00:05.872000,(17 9 -21 -21 -16 -16 -20 -21)
1969/12/31/18:00:05.873000,(-13 5 0 -32 -15 -3 -1 -5)
1969/12/31/18:00:05.873000,(35 25 1 36 1 1 3 12)
1969/12/31/18:00:05.886000,(-73 -98 8 64 35 13 8 -10)
1969/12/31/18:00:05.887000,(73 89 34 46 27 12 9 22)
1969/12/31/18:00:05.888000,(-15 8 -4 1 -2 -6 -10 -16)
1969/12/31/18:00:05.888000,(5 23 -6 -50 -16 -4 1 -3)
1969/12/31/18:00:05.900000,(9 -15 -21 -56 -34 -10 -10 -5)
1969/12/31/18:00:05.900000,(-25 -28 0 28 6 3 3 -4)
1969/12/31/18:00:05.909000,(-15 -22 9 27 27 4 3 3)
1969/12/31/18:00:05.909000,(-4 6 -3 -2 3 -1 -6 -7)
1969/12/31/18:00:05.924000,(28 28 -10 -66 -25 0 12 17)
1969/12/31/18:00:05.924000,(-17 -30 -2 15 -23 -7 -7 -3)
1969/12/31/18:00:05.926000,(-16 -14 -4 27 12 1 1 1)
1969/12/31/18:00:05.926000,(-8 11 20 47 26 2 -14 -26)
1969/12/31/18:00:05.947000,(28 28 6 14 8 0 -1 9)
1969/12/31/18:00:05.947000,(-16 -16 -14 -76 -22 -4 -2 -3)
1969/12/31/18:00:05.948000,(-26 -40 -20 -2 -18 -9 -6 -10)
1969/12/31/18:00:05.948000,(4 5 8 18 14 11 15 13)
1969/12/31/18:00:05.960000,(44 43 2 -22 -2 -4 -4 14)
1969/12/31/18:00:05.960000,(-27 -28 -9 -6 -1 4 2 -15)
1969/12/31/18:00:05.969000,(-12 -7 -4 -17 -8 -5 -5 -7)
1969/12/31/18:00:05.969000,(12 11 0 3 -6 -1 4 10)
1969/12/31/18:00:05.984000,(-19 -25 2 30 18 6 3 -4)
1969/12/31/18:00:05.984000,(-27 0 -4 -5 2 -4 -8 -14)
1969/12/31/18:00:05.986000,(88 58 16 -5 1 14 26 42)
1969/12/31/18:00:05.986000,(-22 -11 -12 -18 -12 -10 -15 -20)
1969/12/31/18:00:06.006000,(-18 -31 -11 -8 -13 -9 -6 -5)
1969/12/31/18:00:06.006000,(-13 -4 2 16 9 5 3 -3)
1969/12/31/18:00:06.008000,(-19 -25 -8 -12 -5 -6 -15 -17)
1969/12/31/18:00:06.008000,(15 21 8 -4 1 10 14 13)
1969/12/31/18:00:06.020000,(0 9 -1 4 -1 1 3 -4)
1969/12/31/18:00:06.020000,(20 5 2 3 6 -2 -3 11)
1969/12/31/18:00:06.029000,(-30 -20 4 4 2 2 -4 -14)
1969/12/31/18:00:06.029000,(-39 -74 -6 -2 -2 -1 0 -4)
1969/12/31/18:00:06.044000,(77 99 17 7 12 19 26 37)
1969/12/31/18:00:06.044000,(-11 -13 -4 0 -2 -7 -14 -20)
1969/12/31/18:00:06.045000,(-22 -22 -12 -11 -10 -7 -9 -9)
1969/12/31/18:00:06.045000,(-21 -13 -3 0 -1 -2 -4 -11)
1969/12/31/18:00:06.066000,(34 32 6 0 3 4 8 25)
1969/12/31/18:00:06.066000,(3 -15 -4 4 6 13 21 18)
1969/12/31/18:00:06.068000,(1 4 6 5 6 4 1 1)
1969/12/31/18:00:06.068000,(-10 2 -8 -7 -8 -12 -14 -9)
1969/12/31/18:00:06.082000,(-35 -55 -3 -4 -9 -10 -14 -18)
1969/12/31/18:00:06.082000,(9 29 5 8 10 10 17 12)
1969/12/31/18:00:06.089000,(5 2 -3 -5 -1 -3 0 10)
1969/12/31/18:00:06.089000,(6 -2 8 -11 -7 2 2 0)
1969/12/31/18:00:06.104000,(-32 -9 -9 8 -3 -13 -14 -23)
1969/12/31/18:00:06.104000,(13 2 -1 5 9 5 3 8)
1969/12/31/18:00:06.106000,(3 4 5 0 2 5 8 5)
1969/12/31/18:00:06.106000,(21 28 -5 -6 -3 2 2 9)
1969/12/31/18:00:06.127000,(-23 -26 -4 -4 -4 -10 -15 -20)
1969/12/31/18:00:06.127000,(17 7 12 2 -3 0 1 15)
1969/12/31/18:00:06.128000,(5 13 -2 -10 -5 -3 -1 -2)
1969/12/31/18:00:06.128000,(-2 -3 -4 2 1 2 4 3)
1969/12/31/18:00:06.149000,(-2 -15 -3 3 5 9 13 8)
1969/12/31/18:00:06.149000,(53 51 16 12 8 8 19 26)
1969/12/31/18:00:06.151000,(-10 -14 -1 1 0 -5 -4 -11)
1969/12/31/18:00:06.151000,(-8 8 -12 -12 -12 -11 -7 2)
1969/12/31/18:00:06.163000,(-6 -14 2 1 4 5 0 -10)
1969/12/31/18:00:06.163000,(-18 -16 -2 -2 -4 -11 -9 -3)
1969/12/31/18:00:06.170000,(-17 -17 -2 -1 0 2 -4 -4)
1969/12/31/18:00:06.170000,(36 28 0 1 1 1 -1 -2)
1969/12/31/18:00:06.187000,(9 16 -2 -7 -4 -2 -1 3)
1969/12/31/18:00:06.187000,(-5 12 7 0 -1 -1 -3 -12)
1969/12/31/18:00:06.188000,(-12 -26 -6 3 6 4 3 6)
1969/12/31/18:00:06.188000,(1 9 4 2 1 2 2 0)
1969/12/31/18:00:06.200000,(-7 -6 0 -4 -5 -6 -10 -10)
1969/12/31/18:00:06.200000,(-20 -24 -6 -35 -28 -16 -14 -14)
1969/12/31/18:00:06.217000,(1 12 -2 17 9 -3 3 2)
1969/12/31/18:00:06.217000,(9 12 8 21 14 9 11 12)
1969/12/31/18:00:06.223000,(57 58 16 22 23 21 28 34)
1969/12/31/18:00:06.223000,(-19 -17 -12 -4 -7 -14 -21 -27)
1969/12/31/18:00:06.230000,(15 33 1 -12 -13 -12 -7 5)
1969/12/31/18:00:06.230000,(-2 5 -7 -7 6 10 2 -2)
1969/12/31/18:00:06.247000,(-9 -30 -9 -9 -13 -19 -18 -4)
1969/12/31/18:00:06.247000,(0 -1 -1 5 8 5 2 2)
1969/12/31/18:00:06.248000,(-10 -13 0 -3 -4 -5 -5 -13)
1969/12/31/18:00:06.248000,(8 3 6 -3 -5 -5 3 7)
1969/12/31/18:00:06.260000,(-21 -16 -4 -4 -2 5 5 -4)
1969/12/31/18:00:06.260000,(41 33 5 8 6 7 18 27)
1969/12/31/18:00:06.269000,(-34 -35 -11 -3 0 -4 -15 -20)
1969/12/31/18:00:06.269000,(-5 -2 3 -2 -6 -4 -5 -5)
1969/12/31/18:00:06.283000,(1 10 -3 -8 -4 -6 -9 -7)
1969/12/31/18:00:06.283000,(-63 -46 -2 3 -5 -8 -13 -35)
1969/12/31/18:00:06.298000,(34 20 2 -6 -7 -7 5 21)
1969/12/31/18:00:06.298000,(16 42 2 -3 4 3 4 -6)
1969/12/31/18:00:06.306000,(-8 -1 -7 -6 -10 -13 -22 -12)
1969/12/31/18:00:06.306000,(-36 -20 5 11 8 7 3 -14)
1969/12/31/18:00:06.308000,(-15 -41 -6 -2 0 3 2 -7)
1969/12/31/18:00:06.308000,(17 4 -6 -3 2 2 1 7)
1969/12/31/18:00:06.320000,(14 7 1 -2 0 2 5 11)
1969/12/31/18:00:06.320000,(-4 -22 -2 3 -3 -5 -8 -7)
1969/12/31/18:00:06.329000,(-17 -8 3 -1 -4 1 -1 -10)
1969/12/31/18:00:06.329000,(-6 -15 -3 -3 1 2 4 5)
1969/12/31/18:00:06.352000,(-21 -31 -6 1 -3 -2 -2 -10)
1969/12/31/18:00:06.352000,(-58 -70 -9 1 3 1 -1 -9)
1969/12/31/18:00:06.353000,(19 21 6 4 4 8 10 7)
1969/12/31/18:00:06.353000,(19 24 3 -1 -4 -5 -1 4)
1969/12/31/18:00:06.367000,(-10 -31 -7 -3 -4 -7 -5 -3)
1969/12/31/18:00:06.367000,(45 81 23 11 10 13 24 36)
1969/12/31/18:00:06.368000,(-57 -64 -19 -12 -10 -18 -28 -32)
1969/12/31/18:00:06.368000,(-36 -22 -5 -1 -3 0 -4 -20)
1969/12/31/18:00:06.380000,(6 -1 8 4 7 12 17 16)
1969/12/31/18:00:06.380000,(30 19 -6 -19 -22 -8 -1 9)
1969/12/31/18:00:06.389000,(9 12 5 9 7 3 5 8)
1969/12/31/18:00:06.389000,(-5 -6 2 13 10 -4 -6 -1)
1969/12/31/18:00:06.403000,(17 14 -8 -38 -22 6 9 11)
1969/12/31/18:00:06.403000,(11 -1 -12 -11 2 -7 -9 -4)
1969/12/31/18:00:06.410000,(19 29 12 29 12 7 6 5)
1969/12/31/18:00:06.410000,(-70 -82 -2 16 5 -4 -8 -19)
1969/12/31/18:00:06.427000,(8 39 15 10 8 7 15 7)
1969/12/31/18:00:06.427000,(5 5 -14 -16 -8 -7 -18 -22)
1969/12/31/18:00:06.428000,(-31 -30 -7 -15 -8 1 -2 -14)
1969/12/31/18:00:06.428000,(53 58 7 -7 -6 -2 8 26)
1969/12/31/18:00:06.440000,(-59 -58 -20 -4 -12 -17 -16 -18)
1969/12/31/18:00:06.440000,(24 -11 -9 -9 -5 -5 -4 21)
1969/12/31/18:00:06.449000,(7 10 -4 1 3 -1 -9 -15)
1969/12/31/18:00:06.449000,(-15 -20 -6 -3 -11 -13 -13 -17)
1969/12/31/18:00:06.463000,(4 -9 -2 -5 -28 -13 1 3)
1969/12/31/18:00:06.463000,(-10 -7 -11 -34 -9 -9 -4 -5)
1969/12/31/18:00:06.470000,(22 27 15 40 43 31 19 20)
1969/12/31/18:00:06.470000,(9 -5 -1 -32 19 32 16 11)
1969/12/31/18:00:06.487000,(0 14 14 64 39 16 1 -7)
1969/12/31/18:00:06.487000,(-3 6 10 35 5 -5 -1 -1)
1969/12/31/18:00:06.488000,(-3 9 3 -15 -20 -17 -10 -5)
1969/12/31/18:00:06.488000,(4 -4 -9 -18 -13 -5 5 11)
1969/12/31/18:00:06.510000,(35 42 -1 -18 -1 2 9 17)
1969/12/31/18:00:06.510000,(3 -13 -4 -16 -14 -8 -9 -4)
1969/12/31/18:00:06.512000,(7 4 -5 -9 -10 -4 5 11)
1969/12/31/18:00:06.512000,(-89 -85 -11 0 -8 -8 -18 -41)
1969/12/31/18:00:06.523000,(39 56 12 -1 10 15 16 16)
1969/12/31/18:00:06.523000,(-50 -24 -9 13 1 -6 -11 -37)
1969/12/31/18:00:06.532000,(-47 -61 -10 -13 -4 -8 -25 -39)
1969/12/31/18:00:06.532000,(-16 -16 -3 4 -5 -11 -15 -20)
1969/12/31/18:00:06.546000,(-28 -28 13 11 12 15 20 6)
1969/12/31/18:00:06.546000,(5 2 1 9 7 7 4 10)
1969/12/31/18:00:06.548000,(14 19 3 -5 -3 1 6 9)
1969/12/31/18:00:06.548000,(28 34 3 -6 -17 -7 2 11)
1969/12/31/18:00:06.569000,(-34 -40 -15 -13 -9 -17 -24 -29)
1969/12/31/18:00:06.569000,(42 41 14 9 18 16 21 30)
1969/12/31/18:00:06.571000,(-14 -5 5 17 9 6 5 -2)
1969/12/31/18:00:06.571000,(66 63 11 17 11 5 17 36)
1969/12/31/18:00:06.583000,(6 9 5 -3 -1 2 -3 2)
1969/12/31/18:00:06.583000,(-11 -19 -8 -7 -3 -1 1 -3)
1969/12/31/18:00:06.592000,(18 31 6 -7 -5 6 13 15)
1969/12/31/18:00:06.592000,(-17 -18 -4 -3 -7 -9 -12 -14)
1969/12/31/18:00:06.607000,(-28 -16 -10 -11 -12 -19 -23 -26)
1969/12/31/18:00:06.607000,(25 16 12 14 21 29 32 26)
1969/12/31/18:00:06.608000,(-14 -26 -11 -14 -12 -5 2 1)
1969/12/31/18:00:06.608000,(11 17 8 6 -2 4 6 12)
1969/12/31/18:00:06.629000,(-11 -10 -2 4 6 -2 -8 -12)
1969/12/31/18:00:06.629000,(-29 -45 1 3 -7 -12 -13 -9)
1969/12/31/18:00:06.631000,(80 27 12 16 26 36 49 71)
1969/12/31/18:00:06.631000,(-13 21 -12 -18 -36 -28 -17 -18)
1969/12/31/18:00:06.643000,(14 16 -6 -17 -25 -18 -13 -5)
1969/12/31/18:00:06.643000,(-16 -12 -2 6 16 4 -6 -11)
1969/12/31/18:00:06.652000,(2 13 14 16 41 27 10 8)
1969/12/31/18:00:06.652000,(39 15 11 25 43 33 25 31)
1969/12/31/18:00:06.667000,(-29 -35 -5 1 -7 2 -4 -18)
1969/12/31/18:00:06.667000,(-14 -24 5 -1 -21 -12 2 4)
1969/12/31/18:00:06.668000,(-10 -5 -10 -14 -22 -20 -11 -2)
1969/12/31/18:00:06.668000,(5 9 6 3 0 0 0 4)
1969/12/31/18:00:06.689000,(-25 -19 -19 -14 -12 -28 -46 -50)
1969/12/31/18:00:06.689000,(-3 -7 -1 -3 -13 -5 -2 -3)
1969/12/31/18:00:06.690000,(7 26 2 -6 -5 -14 -12 -10)
1969/12/31/18:00:06.690000,(-24 -26 -10 -5 -3 -7 -10 -13)
1969/12/31/18:00:06.703000,(-5 -13 8 14 19 25 32 23)
1969/12/31/18:00:06.703000,(23 34 -1 -19 -3 2 1 3)
1969/12/31/18:00:06.712000,(-33 -37 -6 11 -17 -15 -21 -31)
1969/12/31/18:00:06.712000,(12 21 10 -6 -6 1 6 6)
1969/12/31/18:00:06.726000,(0 0 0 -2 1 -2 -3 0)
1969/12/31/18:00:06.727000,(18 16 -2 20 21 12 9 11)
1969/12/31/18:00:06.728000,(-1 11 2 -15 -39 -26 -7 -5)
1969/12/31/18:00:06.728000,(-22 -30 0 17 19 2 -9 -14)
1969/12/31/18:00:06.749000,(28 25 5 1 23 22 17 25)
1969/12/31/18:00:06.749000,(-11 -12 -5 -5 10 7 -7 -15)
1969/12/31/18:00:06.751000,(65 84 6 -9 -4 5 12 21)
1969/12/31/18:00:06.751000,(-37 -48 -23 -7 -19 -16 -20 -34)
1969/12/31/18:00:06.763000,(-60 -35 -7 -12 -23 -26 -35 -52)
1969/12/31/18:00:06.763000,(7 23 -3 -7 -8 -11 -8 1)
1969/12/31/18:00:06.772000,(1 -20 -4 0 0 0 -2 -3)
1969/12/31/18:00:06.772000,(-24 -21 -14 -16 -16 -5 -8 -18)
1969/12/31/18:00:06.786000,(38 40 10 10 19 10 17 27)
1969/12/31/18:00:06.787000,(4 0 3 1 -5 -4 -3 2)
1969/12/31/18:00:06.788000,(-20 -17 -4 -6 5 0 -4 -9)
1969/12/31/18:00:06.788000,(4 10 6 -1 -13 1 3 6)
1969/12/31/18:00:06.809000,(-1 -25 -1 15 -2 -5 4 9)
1969/12/31/18:00:06.809000,(5 5 5 8 9 9 3 6)
1969/12/31/18:00:06.811000,(-7 0 0 1 14 2 -5 -4)
1969/12/31/18:00:06.811000,(1 -1 0 1 9 15 6 4)
1969/12/31/18:00:06.823000,(11 6 -1 -6 -6 0 4 9)
1969/12/31/18:00:06.823000,(-22 -25 -10 -9 -10 -11 -10 -13)
1969/12/31/18:00:06.832000,(77 92 31 9 7 16 33 61)
1969/12/31/18:00:06.832000,(-39 -46 -10 -5 0 -7 -8 -11)
1969/12/31/18:00:06.846000,(-12 -5 -5 -8 -16 -5 -7 -10)
1969/12/31/18:00:06.846000,(-6 -4 -3 -5 -17 -5 -3 -3)
1969/12/31/18:00:06.848000,(-22 -35 -16 -30 13 -8 -11 -17)
1969/12/31/18:00:06.848000,(10 6 -2 8 2 -15 1 8)
1969/12/31/18:00:06.869000,(24 20 16 43 13 27 15 18)
1969/12/31/18:00:06.869000,(3 18 20 34 48 23 7 1)
1969/12/31/18:00:06.871000,(-33 -28 -1 22 12 8 -5 -20)
1969/12/31/18:00:06.871000,(25 25 9 -10 1 -2 3 11)
1969/12/31/18:00:06.883000,(-1 -17 -18 -35 -21 -14 -1 3)
1969/12/31/18:00:06.883000,(21 33 2 -9 -25 -15 -4 6)
1969/12/31/18:00:06.890000,(-37 -51 -13 -12 -21 -15 -14 -12)
1969/12/31/18:00:06.890000,(8 4 3 3 16 15 17 18)
1969/12/31/18:00:06.907000,(2 -30 -5 -5 -2 0 4 7)
1969/12/31/18:00:06.907000,(18 16 10 5 1 13 14 18)
1969/12/31/18:00:06.908000,(-5 2 -7 -4 -4 -6 -7 -4)
1969/12/31/18:00:06.908000,(16 28 8 1 -6 -1 4 8)
1969/12/31/18:00:06.929000,(16 -4 2 7 13 11 9 12)
1969/12/31/18:00:06.929000,(-25 -29 -10 -7 -1 -7 -8 -10)
1969/12/31/18:00:06.931000,(-7 -4 -3 -3 -7 -1 -2 -3)
1969/12/31/18:00:06.931000,(12 8 4 3 -5 3 1 4)
1969/12/31/18:00:06.943000,(-17 0 0 -1 3 -5 -9 -14)
1969/12/31/18:00:06.943000,(2 7 -3 -2 3 0 2 1)
1969/12/31/18:00:06.951000,(-8 -11 -4 4 5 4 -4 -12)
1969/12/31/18:00:06.951000,(10 6 6 2 2 3 -2 2)
1969/12/31/18:00:06.967000,(17 41 3 -5 1 -1 0 5)
1969/12/31/18:00:06.967000,(-18 -24 -7 -10 -13 -8 -3 -7)
1969/12/31/18:00:06.968000,(4 -2 -1 1 -5 -1 1 -3)
1969/12/31/18:00:06.968000,(-7 -5 -5 -4 -3 -2 -2 -5)
1969/12/31/18:00:06.999000,(-4 -4 -3 -5 -1 -8 -10 -8)
1969/12/31/18:00:06.999000,(-10 9 6 11 11 12 9 -2)
1969/12/31/18:00:07.000000,(-56 -46 -18 -8 -7 -13 -27 -42)
1969/12/31/18:00:07.000000,(21 47 3 7 7 3 -1 -2)
1969/12/31/18:00:07.019000,(-10 -6 -3 -8 -10 -10 -11 -14)
1969/12/31/18:00:07.019000,(-5 -10 -7 -7 -8 -6 -1 -4)
1969/12/31/18:00:07.020000,(1 -2 4 3 2 2 5 7)
1969/12/31/18:00:07.020000,(10 8 3 -1 0 2 3 7)
1969/12/31/18:00:07.026000,(-11 -12 -4 -2 0 0 0 -5)
1969/12/31/18:00:07.026000,(15 14 -1 -5 -1 2 7 11)
1969/12/31/18:00:07.026000,(-11 -10 0 0 -10 -11 -12 -13)
1969/12/31/18:00:07.026000,(59 47 22 13 17 29 45 63)
1969/12/31/18:00:07.048000,(-33 -23 0 8 12 10 4 -11)
1969/12/31/18:00:07.048000,(58 19 -3 -4 -4 -1 2 25)
1969/12/31/18:00:07.049000,(13 8 -1 -2 -3 -1 1 4)
1969/12/31/18:00:07.049000,(-55 -66 -13 -4 -6 -16 -26 -36)
1969/12/31/18:00:07.071000,(-1 0 -5 -4 1 1 4 -1)
1969/12/31/18:00:07.072000,(-7 -3 -1 2 1 -2 -4 -7)
1969/12/31/18:00:07.072000,(-2 -6 -5 -2 -5 -5 -4 2)
1969/12/31/18:00:07.072000,(6 0 1 -3 -3 -5 -5 -3)
1969/12/31/18:00:07.086000,(-11 -19 1 5 2 0 0 3)
1969/12/31/18:00:07.086000,(-2 20 3 -1 -1 4 7 -3)
1969/12/31/18:00:07.087000,(13 7 5 5 3 6 12 11)
1969/12/31/18:00:07.087000,(26 30 1 1 3 0 -2 5)
1969/12/31/18:00:07.108000,(67 60 14 2 3 5 14 30)
1969/12/31/18:00:07.108000,(-33 -27 -6 -4 -7 -11 -23 -28)
1969/12/31/18:00:07.109000,(-12 -10 0 -1 -3 -2 -3 -5)
1969/12/31/18:00:07.109000,(-1 0 2 -3 1 1 4 0)
1969/12/31/18:00:07.123000,(2 -8 -7 -1 4 3 5 11)
1969/12/31/18:00:07.123000,(-5 -5 -2 -8 -5 -4 -2 -4)
1969/12/31/18:00:07.131000,(19 26 3 -12 -6 1 8 13)
1969/12/31/18:00:07.131000,(-36 -38 -10 -8 -9 -13 -20 -28)
1969/12/31/18:00:07.146000,(-7 5 6 28 7 -1 -2 -7)
1969/12/31/18:00:07.146000,(-3 -7 -2 2 24 2 1 3)
1969/12/31/18:00:07.147000,(-8 -7 -1 10 -28 -2 1 -1)
1969/12/31/18:00:07.147000,(-4 -3 2 -13 -5 -3 -1 0)
1969/12/31/18:00:07.168000,(-14 -16 -7 -10 -23 -14 -6 -11)
1969/12/31/18:00:07.168000,(3 3 1 4 16 5 1 2)
1969/12/31/18:00:07.169000,(6 6 1 -2 -4 -7 1 3)
1969/12/31/18:00:07.169000,(-8 -7 8 38 32 29 8 -2)
1969/12/31/18:00:07.191000,(12 14 12 27 51 29 14 12)
1969/12/31/18:00:07.191000,(-14 -15 -3 -3 -9 -3 -8 -12)
1969/12/31/18:00:07.191000,(2 3 -6 -32 -10 -6 0 2)
1969/12/31/18:00:07.191000,(-9 -10 2 5 -12 -15 -5 -5)
1969/12/31/18:00:07.206000,(-1 -1 -21 -39 -59 -22 -5 1)
1969/12/31/18:00:07.206000,(-4 -8 -9 23 -25 -17 -8 -4)
1969/12/31/18:00:07.207000,(-8 -8 -5 -4 16 -8 -8 -9)
1969/12/31/18:00:07.207000,(-3 -1 4 8 18 6 3 0)
1969/12/31/18:00:07.228000,(2 7 20 2 30 24 10 6)
1969/12/31/18:00:07.228000,(11 10 -5 -3 7 12 10 10)
1969/12/31/18:00:07.229000,(1 1 1 -1 -15 0 1 2)
1969/12/31/18:00:07.229000,(-7 -12 -22 -35 -27 -17 -8 -4)
1969/12/31/18:00:07.251000,(2 -1 0 24 6 -8 -6 -2)
1969/12/31/18:00:07.251000,(-10 -2 11 1 -2 0 -2 -4)
1969/12/31/18:00:07.251000,(0 1 9 26 21 12 6 1)
1969/12/31/18:00:07.251000,(1 -1 -10 -48 -20 -5 1 2)
1969/12/31/18:00:07.266000,(-2 -2 1 12 -7 -7 -2 -2)
1969/12/31/18:00:07.266000,(1 3 10 24 2 12 3 1)
1969/12/31/18:00:07.267000,(4 8 8 -18 24 5 3 4)
1969/12/31/18:00:07.267000,(0 0 1 7 -9 -1 -1 -2)
1969/12/31/18:00:07.296000,(1 -6 -32 -28 7 -4 -2 -3)
1969/12/31/18:00:07.296000,(-12 -18 -5 8 -23 -12 -11 -8)
1969/12/31/18:00:07.303000,(1 6 23 -18 16 13 10 3)
1969/12/31/18:00:07.303000,(-2 -4 -23 3 12 3 0 1)
1969/12/31/18:00:07.311000,(-5 -6 8 18 -19 -9 -8 -3)
1969/12/31/18:00:07.311000,(-3 4 10 -23 6 -1 0 -2)
1969/12/31/18:00:07.312000,(5 -1 -24 -40 -36 -14 -3 1)
1969/12/31/18:00:07.312000,(0 4 17 51 1 2 1 -1)
1969/12/31/18:00:07.326000,(3 4 10 25 36 16 7 3)
1969/12/31/18:00:07.326000,(7 7 25 -23 -24 -15 -5 1)
1969/12/31/18:00:07.326000,(-3 -7 -25 11 -29 -2 0 -1)
1969/12/31/18:00:07.326000,(3 -8 -31 -26 24 -11 -7 -1)
1969/12/31/18:00:07.348000,(-21 -20 -18 -38 -42 -1 -5 -14)
1969/12/31/18:00:07.348000,(4 2 2 66 63 22 10 7)
1969/12/31/18:00:07.349000,(-17 -5 27 24 48 15 -4 -11)
1969/12/31/18:00:07.349000,(0 5 0 -4 -13 10 3 0)
1969/12/31/18:00:07.371000,(11 11 7 -21 -13 -10 0 7)
1969/12/31/18:00:07.371000,(0 0 -12 -62 -35 -20 -5 -2)
1969/12/31/18:00:07.371000,(7 1 -8 23 -16 -7 -1 4)
1969/12/31/18:00:07.371000,(-5 -6 7 -1 -4 -2 -1 -4)
1969/12/31/18:00:07.386000,(-6 6 34 13 1 -4 -4 -7)
1969/12/31/18:00:07.386000,(3 -1 -21 31 17 10 4 3)
1969/12/31/18:00:07.387000,(4 -4 -15 10 20 7 1 2)
1969/12/31/18:00:07.387000,(-5 -2 13 -79 -28 -14 -7 -6)
1969/12/31/18:00:07.408000,(0 1 -22 3 -22 -8 -1 -1)
1969/12/31/18:00:07.408000,(1 -5 -4 13 9 8 6 3)
1969/12/31/18:00:07.409000,(-7 1 21 11 -5 2 1 -4)
1969/12/31/18:00:07.409000,(1 -3 -5 39 55 8 1 4)
1969/12/31/18:00:07.431000,(-3 0 1 -28 -5 4 -1 -3)
1969/12/31/18:00:07.431000,(3 1 -9 -27 -26 -13 -2 0)
1969/12/31/18:00:07.432000,(1 -1 0 11 1 -2 -3 0)
1969/12/31/18:00:07.432000,(-2 3 6 5 2 5 2 -3)
1969/12/31/18:00:07.446000,(6 5 -2 4 6 -6 0 5)
1969/12/31/18:00:07.446000,(-6 -1 4 16 -17 0 -3 -4)
1969/12/31/18:00:07.447000,(5 1 3 -8 22 8 5 3)
1969/12/31/18:00:07.447000,(-9 -2 5 8 -23 -7 -6 -7)
1969/12/31/18:00:07.468000,(5 -2 -19 -1 12 0 1 4)
1969/12/31/18:00:07.468000,(-6 -6 1 -31 -3 6 3 -2)
1969/12/31/18:00:07.469000,(3 5 7 4 5 -1 1 2)
1969/12/31/18:00:07.469000,(2 4 6 27 5 4 1 0)
1969/12/31/18:00:07.491000,(1 2 16 16 12 -1 -1 0)
1969/12/31/18:00:07.491000,(-5 -2 -12 -21 -12 -9 -6 -5)
1969/12/31/18:00:07.492000,(4 -7 -21 -32 -15 -16 -8 1)
1969/12/31/18:00:07.492000,(1 0 -9 -35 -40 0 7 3)
1969/12/31/18:00:07.506000,(12 16 24 64 48 24 12 12)
1969/12/31/18:00:07.506000,(-6 -4 -7 -3 20 13 1 -3)
1969/12/31/18:00:07.507000,(4 3 4 32 20 9 4 3)
1969/12/31/18:00:07.507000,(-3 -4 2 -1 -11 -11 -3 1)
1969/12/31/18:00:07.528000,(-8 -5 2 -26 -24 -16 -10 -8)
1969/12/31/18:00:07.528000,(1 4 -1 -31 -12 -4 -1 -2)
1969/12/31/18:00:07.529000,(2 -2 -9 2 -6 -1 -1 -1)
1969/12/31/18:00:07.529000,(-2 -3 -7 -1 -7 -1 0 -2)
1969/12/31/18:00:07.552000,(-7 -7 -2 -3 0 -2 -5 -7)
1969/12/31/18:00:07.552000,(7 2 -3 12 6 -1 3 6)
1969/12/31/18:00:07.552000,(-1 2 2 -25 -21 -5 1 0)
1969/12/31/18:00:07.552000,(-2 0 21 24 9 3 -2 -1)
1969/12/31/18:00:07.574000,(-7 -5 0 9 18 2 -5 -8)
1969/12/31/18:00:07.574000,(-4 -2 0 -29 -6 -6 -4 -3)
1969/12/31/18:00:07.575000,(-2 -1 0 33 3 -2 -5 -4)
1969/12/31/18:00:07.575000,(9 4 -1 8 11 3 6 9)
1969/12/31/18:00:07.588000,(10 -3 -32 -50 -30 -8 3 6)
1969/12/31/18:00:07.588000,(-4 -2 1 -2 -6 -4 -4 -3)
1969/12/31/18:00:07.589000,(4 8 8 22 8 5 4 1)
1969/12/31/18:00:07.589000,(-6 -7 -7 -5 2 -4 -6 -7)
1969/12/31/18:00:07.611000,(-3 -3 -6 -11 -12 -7 -4 -4)
1969/12/31/18:00:07.611000,(6 3 6 14 -5 0 5 5)
1969/12/31/18:00:07.612000,(-10 -8 7 -6 18 8 -3 -5)
1969/12/31/18:00:07.612000,(-1 5 7 20 9 3 1 1)
1969/12/31/18:00:07.626000,(-8 -3 10 -1 0 5 -1 -5)
1969/12/31/18:00:07.626000,(5 7 8 11 14 6 5 6)
1969/12/31/18:00:07.627000,(13 4 -19 -20 -13 -1 6 11)
1969/12/31/18:00:07.627000,(0 -4 -7 -9 -2 -1 -4 -3)
1969/12/31/18:00:07.648000,(1 0 -1 -7 -3 1 1 2)
1969/12/31/18:00:07.648000,(-9 -6 4 14 3 -4 -5 -7)
1969/12/31/18:00:07.649000,(-10 -7 -3 -7 -13 -8 -9 -10)
1969/12/31/18:00:07.649000,(2 1 -6 -20 -10 -3 2 2)
1969/12/31/18:00:07.672000,(-7 -4 3 17 7 2 -7 -9)
1969/12/31/18:00:07.672000,(2 4 5 18 10 3 0 0)
1969/12/31/18:00:07.672000,(0 -1 -3 -5 -2 1 0 0)
1969/12/31/18:00:07.672000,(-5 -5 0 1 1 0 -5 -7)
1969/12/31/18:00:07.686000,(1 1 -6 -16 -6 -7 -1 2)
1969/12/31/18:00:07.686000,(-2 -2 -6 -24 -16 -9 -6 -2)
1969/12/31/18:00:07.687000,(-2 -1 8 29 -10 -1 1 1)
1969/12/31/18:00:07.687000,(2 2 4 14 21 9 5 3)
1969/12/31/18:00:07.717000,(5 -1 -4 7 25 15 9 7)
1969/12/31/18:00:07.717000,(8 2 -10 -4 0 1 1 3)
1969/12/31/18:00:07.717000,(-1 -2 -4 -21 -11 -6 0 -2)
1969/12/31/18:00:07.717000,(-3 -4 -2 -4 -17 -7 -2 -4)
1969/12/31/18:00:07.731000,(-1 -2 0 -1 -6 -4 -3 -1)
1969/12/31/18:00:07.731000,(0 1 4 4 4 -3 -2 -1)
1969/12/31/18:00:07.732000,(-9 -4 0 -2 -4 -3 -6 -8)
1969/12/31/18:00:07.732000,(8 2 -1 6 4 1 6 9)
1969/12/31/18:00:07.746000,(-7 -3 -1 -11 -4 -2 -3 -2)
1969/12/31/18:00:07.746000,(-5 -4 1 2 -7 -2 -2 -2)
1969/12/31/18:00:07.747000,(2 3 -7 -5 -8 -2 1 1)
1969/12/31/18:00:07.747000,(-1 -4 -21 -34 -11 -4 -4 -1)
1969/12/31/18:00:07.768000,(0 5 23 35 31 11 3 1)
1969/12/31/18:00:07.768000,(3 4 13 36 21 11 6 4)
1969/12/31/18:00:07.769000,(2 1 3 0 2 2 3 2)
1969/12/31/18:00:07.769000,(-1 -3 -6 0 -14 -5 -2 -3)
1969/12/31/18:00:07.799000,(-5 -7 -21 -41 -33 -14 -6 -5)
1969/12/31/18:00:07.799000,(-2 -2 -10 -30 -2 -6 -4 -2)
1969/12/31/18:00:07.800000,(2 5 16 38 14 7 5 4)
1969/12/31/18:00:07.800000,(-1 3 9 25 30 13 1 -1)
1969/12/31/18:00:07.814000,(1 -1 4 3 -4 -2 -1 0)
1969/12/31/18:00:07.814000,(2 0 -6 -3 -5 -2 0 0)
1969/12/31/18:00:07.815000,(-4 -3 -9 -30 -16 -10 -6 -5)
1969/12/31/18:00:07.815000,(0 1 0 -4 -8 -6 0 1)
1969/12/31/18:00:07.828000,(4 2 1 5 0 1 3 1)
1969/12/31/18:00:07.828000,(-4 -4 -4 -4 -1 0 -1 -6)
1969/12/31/18:00:07.829000,(0 0 -2 -10 -4 -2 -3 0)
1969/12/31/18:00:07.829000,(-4 -2 6 11 4 -1 -3 -5)
1969/12/31/18:00:07.852000,(5 0 -4 1 5 2 4 5)
1969/12/31/18:00:07.852000,(3 0 -1 4 -3 1 2 3)
1969/12/31/18:00:07.852000,(-2 2 5 0 7 1 2 0)
1969/12/31/18:00:07.852000,(-3 -1 2 4 -4 0 -2 -4)
1969/12/31/18:00:07.865000,(-5 -3 -3 -7 -6 -3 -3 -6)
1969/12/31/18:00:07.865000,(6 1 -4 2 -1 -1 0 6)
1969/12/31/18:00:07.873000,(-8 -5 0 3 5 2 -1 1)
1969/12/31/18:00:07.873000,(21 15 9 3 7 7 11 12)
1969/12/31/18:00:07.888000,(-16 -5 -7 -6 -8 -7 -11 -17)
1969/12/31/18:00:07.888000,(-9 1 -1 3 1 5 4 -10)
1969/12/31/18:00:07.889000,(-6 -9 -10 -7 1 -1 -2 -7)
1969/12/31/18:00:07.889000,(-2 -3 -6 -8 -6 -7 -4 4)
1969/12/31/18:00:07.912000,(9 5 3 5 1 1 5 8)
1969/12/31/18:00:07.912000,(1 -3 4 2 1 1 2 5)
1969/12/31/18:00:07.912000,(19 11 -2 -6 -1 0 2 12)
1969/12/31/18:00:07.912000,(-17 -9 2 3 7 5 1 -12)
1969/12/31/18:00:07.925000,(-5 -4 -5 -3 -9 -4 -4 -6)
1969/12/31/18:00:07.925000,(-11 -12 1 3 3 1 -2 -3)
1969/12/31/18:00:07.933000,(15 20 1 -8 0 0 0 4)
1969/12/31/18:00:07.934000,(13 -1 -3 -3 -5 -8 -5 6)
1969/12/31/18:00:07.948000,(-19 -10 2 2 -3 3 1 -16)
1969/12/31/18:00:07.948000,(-6 -6 -6 -4 -7 -4 -1 -5)
1969/12/31/18:00:07.949000,(-1 -5 -5 1 13 0 0 2)
1969/12/31/18:00:07.949000,(9 11 4 5 5 0 1 2)
1969/12/31/18:00:07.971000,(6 3 2 1 4 -2 2 5)
1969/12/31/18:00:07.971000,(-10 -8 -3 -3 -6 -2 -6 -9)
1969/12/31/18:00:07.972000,(-5 -3 -1 1 -6 -1 -1 -6)
1969/12/31/18:00:07.972000,(-2 -3 -4 -6 -2 0 -1 -1)
1969/12/31/18:00:07.986000,(0 -4 1 0 -1 0 -1 3)
1969/12/31/18:00:07.986000,(17 18 4 2 0 0 0 3)
1969/12/31/18:00:07.987000,(-2 -2 1 -1 -1 -2 1 -1)
1969/12/31/18:00:07.987000,(-7 -6 -2 -1 -2 0 -6 -5)
1969/12/31/18:00:08.024000,(2 0 1 -1 2 2 2 4)
1969/12/31/18:00:08.024000,(-1 1 0 -3 -1 -3 -3 -2)
1969/12/31/18:00:08.025000,(-2 -3 0 0 1 1 1 -1)
1969/12/31/18:00:08.025000,(-6 -5 -4 0 -1 -1 -6 -5)
1969/12/31/18:00:08.032000,(2 4 1 1 1 0 -2 2)
1969/12/31/18:00:08.032000,(3 1 -1 0 1 -2 0 3)
1969/12/31/18:00:08.032000,(-1 -2 1 2 -2 0 0 -4)
1969/12/31/18:00:08.032000,(-3 -2 -1 -1 0 -1 1 0)
1969/12/31/18:00:08.045000,(4 4 0 -2 0 0 0 3)
1969/12/31/18:00:08.045000,(0 1 0 -2 -2 -3 0 0)
1969/12/31/18:00:08.053000,(-1 -4 -3 2 1 3 1 1)
1969/12/31/18:00:08.053000,(-2 -1 -4 0 -2 0 1 -3)
1969/12/31/18:00:08.068000,(6 5 1 0 0 1 1 4)
1969/12/31/18:00:08.068000,(-1 -2 -1 -1 -3 -2 -1 -2)
1969/12/31/18:00:08.069000,(-5 -2 0 2 -2 0 -2 -2)
1969/12/31/18:00:08.069000,(-2 0 -1 -3 -1 -3 -1 0)
1969/12/31/18:00:08.092000,(-1 -1 -3 -1 -2 0 -2 0)
1969/12/31/18:00:08.092000,(0 0 2 2 3 1 0 0)
1969/12/31/18:00:08.093000,(2 0 1 -1 -1 -2 1 2)
1969/12/31/18:00:08.093000,(-3 -3 -1 -2 -5 -3 -2 -3)
1969/12/31/18:00:08.105000,(-1 0 1 0 0 -1 -1 -2)
1969/12/31/18:00:08.105000,(-3 -1 -3 -2 0 -2 -3 -3)
1969/12/31/18:00:08.113000,(1 -1 -2 -2 -1 3 2 1)
1969/12/31/18:00:08.113000,(2 1 1 1 1 0 1 1)
1969/12/31/18:00:08.128000,(-1 -1 -1 0 2 -2 -2 1)
1969/12/31/18:00:08.128000,(0 0 -2 0 0 0 0 0)
1969/12/31/18:00:08.129000,(-2 -2 0 0 -1 -1 0 -1)
1969/12/31/18:00:08.129000,(-1 1 1 -2 -1 -2 0 -1)
1969/12/31/18:00:08.152000,(-1 1 -2 -3 -2 1 0 0)
1969/12/31/18:00:08.152000,(0 2 1 -1 -1 -2 -1 2)
1969/12/31/18:00:08.152000,(-3 -2 0 -1 -1 -1 -2 -3)
1969/12/31/18:00:08.152000,(0 1 -2 -2 -2 -1 -2 -3)
1969/12/31/18:00:08.165000,(1 0 0 1 2 0 1 -1)
1969/12/31/18:00:08.165000,(1 -2 -1 0 -2 0 2 3)
1969/12/31/18:00:08.173000,(-2 -1 -1 -1 -2 -2 -2 -2)
1969/12/31/18:00:08.173000,(-2 -1 -2 -1 -1 -1 0 -1)
1969/12/31/18:00:08.188000,(-1 -1 0 1 0 -1 -1 -3)
1969/12/31/18:00:08.188000,(-2 -1 0 -1 -1 2 0 0)
1969/12/31/18:00:08.189000,(-2 -2 -3 0 0 -1 0 -2)
1969/12/31/18:00:08.189000,(2 1 0 -1 -1 0 2 1)
1969/12/31/18:00:08.211000,(2 1 0 -2 0 -1 -1 1)
1969/12/31/18:00:08.212000,(-1 0 -1 -1 -1 0 -2 -2)
1969/12/31/18:00:08.212000,(0 -2 0 -1 0 -1 1 0)
1969/12/31/18:00:08.212000,(-3 -2 -1 2 1 1 -2 -1)
1969/12/31/18:00:08.225000,(1 -1 -2 0 -2 2 3 2)
1969/12/31/18:00:08.225000,(0 1 2 -1 -1 -1 -2 -2)
1969/12/31/18:00:08.233000,(-2 -1 -1 1 -1 0 -2 -3)
1969/12/31/18:00:08.233000,(1 -1 -1 -1 -2 -1 0 1)
1969/12/31/18:00:08.248000,(0 -2 -1 -2 -1 -1 1 -1)
1969/12/31/18:00:08.249000,(-1 -2 -2 1 2 1 0 -1)
1969/12/31/18:00:08.249000,(-1 -1 0 -1 0 -1 -4 -3)
1969/12/31/18:00:08.249000,(-2 -1 0 0 1 0 1 -1)
1969/12/31/18:00:08.271000,(2 1 1 0 0 -1 0 0)
1969/12/31/18:00:08.271000,(0 0 -1 -2 -1 -2 -1 1)
1969/12/31/18:00:08.272000,(0 -1 1 -1 -2 -2 -2 -1)
1969/12/31/18:00:08.272000,(-2 0 1 -2 0 -2 -4 -3)
1969/12/31/18:00:08.294000,(3 1 -2 0 1 2 2 2)
1969/12/31/18:00:08.294000,(0 -2 -2 -1 -2 -1 1 1)
1969/12/31/18:00:08.295000,(1 -2 -1 1 0 0 1 2)
1969/12/31/18:00:08.295000,(-1 0 0 -2 -2 -2 -1 -1)
1969/12/31/18:00:08.309000,(-2 -2 -1 -1 -2 -2 -2 -2)
1969/12/31/18:00:08.309000,(1 -1 -2 0 0 0 0 1)
1969/12/31/18:00:08.310000,(0 0 -2 0 0 -1 -1 -1)
1969/12/31/18:00:08.310000,(-1 -1 -3 -1 -1 -1 1 -1)
1969/12/31/18:00:08.310000,(-3 -6 -13 -80 -61 -30 -10 -3)
1969/12/31/18:00:08.310000,(1 6 20 79 14 14 6 1)
1969/12/31/18:00:08.311000,(1 -3 -4 12 55 10 5 -1)
1969/12/31/18:00:08.311000,(-1 -1 -18 -33 -38 -13 -6 -2)
1969/12/31/18:00:08.323000,(-1 -2 -12 -10 -8 -4 -5 -1)
1969/12/31/18:00:08.323000,(-5 -3 6 -16 -22 -3 -1 -4)
1969/12/31/18:00:08.332000,(4 1 -9 -34 1 1 0 3)
1969/12/31/18:00:08.332000,(-3 2 14 48 3 1 -3 -4)
1969/12/31/18:00:08.347000,(-1 -3 3 27 6 2 -1 -1)
1969/12/31/18:00:08.347000,(-3 -3 -3 -29 10 1 0 -1)
1969/12/31/18:00:08.349000,(4 6 -5 0 -9 2 2 4)
1969/12/31/18:00:08.349000,(0 -3 -14 -50 2 0 -2 0)
1969/12/31/18:00:08.370000,(-5 -3 12 45 -15 -4 -5 -6)
1969/12/31/18:00:08.370000,(-3 -3 -1 9 15 0 0 -2)
1969/12/31/18:00:08.371000,(4 2 -2 1 10 2 2 1)
1969/12/31/18:00:08.371000,(3 1 2 -16 -10 2 1 3)
1969/12/31/18:00:08.383000,(0 -1 -2 -6 1 -2 -3 -1)
1969/12/31/18:00:08.383000,(-1 -3 2 31 10 0 -2 0)
1969/12/31/18:00:08.392000,(2 2 0 1 -12 -2 1 2)
1969/12/31/18:00:08.392000,(0 -1 2 -9 10 4 4 1)
1969/12/31/18:00:08.407000,(-6 -6 -6 4 -3 -3 -3 -3)
1969/12/31/18:00:08.407000,(10 17 5 -6 13 6 5 -1)
1969/12/31/18:00:08.413000,(-9 -14 -7 -16 -16 -7 -8 -8)
1969/12/31/18:00:08.413000,(-5 0 4 27 7 5 1 -3)
1969/12/31/18:00:08.430000,(7 3 -5 -12 -5 0 -1 2)
1969/12/31/18:00:08.430000,(-5 -10 -12 -27 -8 -1 -1 0)
1969/12/31/18:00:08.431000,(6 13 13 28 9 7 6 5)
1969/12/31/18:00:08.431000,(-1 -2 1 21 8 3 -1 2)
1969/12/31/18:00:08.443000,(0 0 1 -1 -2 -1 3 4)
1969/12/31/18:00:08.443000,(-4 -3 -3 -1 5 -1 -2 -7)
1969/12/31/18:00:08.460000,(1 -1 -5 -20 -11 -6 -1 0)
1969/12/31/18:00:08.460000,(-2 -2 2 6 0 -1 -2 -2)
1969/12/31/18:00:08.467000,(-3 -4 -4 2 -5 -1 3 4)
1969/12/31/18:00:08.467000,(8 3 2 2 -6 0 3 8)
1969/12/31/18:00:08.469000,(-9 -4 -2 -10 7 2 -5 -11)
1969/12/31/18:00:08.469000,(-2 2 4 23 6 2 -1 -5)
1969/12/31/18:00:08.490000,(-5 -4 -3 -25 -11 -3 -1 1)
1969/12/31/18:00:08.490000,(5 4 -1 -3 1 -1 2 2)
1969/12/31/18:00:08.491000,(1 0 -2 -2 -1 -3 -2 7)
1969/12/31/18:00:08.491000,(10 4 -4 -10 0 2 2 3)
1969/12/31/18:00:08.503000,(-9 -5 -1 9 -5 -3 -8 -12)
1969/12/31/18:00:08.503000,(8 1 2 7 5 -1 1 6)
1969/12/31/18:00:08.512000,(-8 -3 -6 -11 4 3 4 -1)
1969/12/31/18:00:08.512000,(-29 -16 0 -17 -21 -9 -7 -10)
1969/12/31/18:00:08.526000,(22 12 4 25 15 -1 0 7)
1969/12/31/18:00:08.526000,(1 6 7 5 10 10 2 -10)
1969/12/31/18:00:08.533000,(14 3 -8 -25 -15 -8 -1 7)
1969/12/31/18:00:08.533000,(2 -4 -4 7 5 -4 -2 3)
1969/12/31/18:00:08.549000,(-33 -15 -8 -2 -2 1 -4 -19)
1969/12/31/18:00:08.549000,(-27 -9 -4 -2 0 -5 -5 4)
1969/12/31/18:00:08.551000,(47 28 19 14 17 9 1 8)
1969/12/31/18:00:08.551000,(-40 -50 0 -4 -14 -2 4 -13)
1969/12/31/18:00:08.563000,(3 -5 -42 -71 -31 -23 -18 -11)
1969/12/31/18:00:08.563000,(19 13 -13 -58 -72 -22 -5 8)
1969/12/31/18:00:08.572000,(-18 3 49 90 92 33 10 0)
1969/12/31/18:00:08.572000,(15 24 19 15 43 19 4 7)
1969/12/31/18:00:08.586000,(-12 -4 2 -21 6 11 12 9)
1969/12/31/18:00:08.586000,(-21 -29 -13 -6 -15 -7 -1 -1)
1969/12/31/18:00:08.593000,(23 31 -19 -72 -56 -18 -5 -1)
1969/12/31/18:00:08.593000,(-18 -7 -2 26 -6 -12 -15 -13)
1969/12/31/18:00:08.610000,(18 -7 14 -2 8 16 22 17)
1969/12/31/18:00:08.610000,(-35 -36 -7 -1 5 -1 -16 -29)
1969/12/31/18:00:08.611000,(-33 14 -1 20 -10 -8 -10 -25)
1969/12/31/18:00:08.611000,(98 48 -3 -6 11 8 23 77)
1969/12/31/18:00:08.623000,(-55 -7 -4 -16 -15 -8 -20 -49)
1969/12/31/18:00:08.623000,(33 13 10 8 6 11 19 34)
1969/12/31/18:00:08.632000,(-42 -43 -9 -8 15 -1 -3 -12)
1969/12/31/18:00:08.632000,(-4 5 -3 -7 -21 -11 -8 -9)
1969/12/31/18:00:08.646000,(19 8 -9 -21 -19 -2 4 16)
1969/12/31/18:00:08.646000,(-18 -7 14 66 39 4 -7 -15)
1969/12/31/18:00:08.653000,(0 0 -4 -39 -11 4 7 1)
1969/12/31/18:00:08.653000,(7 12 9 57 5 8 3 -2)
1969/12/31/18:00:08.670000,(2 0 14 44 44 12 8 14)
1969/12/31/18:00:08.670000,(9 29 2 -16 -3 1 -9 -27)
1969/12/31/18:00:08.672000,(-17 -29 -26 -38 -36 -23 -14 5)
1969/12/31/18:00:08.672000,(2 30 -11 -50 -25 -11 -9 -22)
1969/12/31/18:00:08.683000,(-48 -45 -1 18 -8 -1 -4 -28)
1969/12/31/18:00:08.683000,(27 33 3 -9 5 7 22 15)
1969/12/31/18:00:08.692000,(53 25 -1 8 -5 -4 -2 45)
1969/12/31/18:00:08.692000,(-39 -45 -14 -14 -6 -9 -15 -28)
1969/12/31/18:00:08.706000,(25 20 -1 -35 -11 1 1 12)
1969/12/31/18:00:08.706000,(3 7 10 7 1 -5 0 5)
1969/12/31/18:00:08.713000,(-16 -17 6 20 -9 -3 7 -11)
1969/12/31/18:00:08.713000,(-10 -9 -8 1 18 17 13 9)
1969/12/31/18:00:08.729000,(18 15 15 57 34 8 2 8)
1969/12/31/18:00:08.729000,(4 -2 6 -4 -4 1 6 6)
1969/12/31/18:00:08.731000,(-52 -57 -4 -4 -8 -2 -11 -17)
1969/12/31/18:00:08.731000,(53 55 22 40 54 31 33 32)
1969/12/31/18:00:08.743000,(1 7 -16 -25 -12 -16 -27 -24)
1969/12/31/18:00:08.743000,(-27 -29 -33 -78 -37 -20 -20 -23)
1969/12/31/18:00:08.752000,(-35 -16 11 48 1 6 18 -2)
1969/12/31/18:00:08.752000,(53 30 12 10 -6 -6 -1 27)
1969/12/31/18:00:08.766000,(-6 -11 -2 0 -2 -4 -3 -8)
1969/12/31/18:00:08.766000,(34 25 8 12 16 9 14 31)
1969/12/31/18:00:08.773000,(-7 -17 -22 -51 -28 -9 -4 -6)
1969/12/31/18:00:08.773000,(-17 -19 -27 -93 -31 -18 -3 -6)
1969/12/31/18:00:08.791000,(6 10 12 75 -12 -2 4 11)
1969/12/31/18:00:08.791000,(-16 -14 10 56 42 5 -9 -10)
1969/12/31/18:00:08.793000,(22 24 30 75 56 27 10 3)
1969/12/31/18:00:08.793000,(-36 -7 20 45 1 -4 -11 -22)
1969/12/31/18:00:08.803000,(12 17 -2 -43 -2 4 -4 1)
1969/12/31/18:00:08.803000,(-41 -66 -29 -40 -11 -9 -6 -7)
1969/12/31/18:00:08.812000,(68 77 9 -12 0 15 27 24)
1969/12/31/18:00:08.812000,(-12 -18 -13 -20 -15 -13 -11 -16)
1969/12/31/18:00:08.826000,(-14 -6 -2 -33 -31 -16 -8 0)
1969/12/31/18:00:08.826000,(24 15 -1 22 0 -1 0 1)
1969/12/31/18:00:08.833000,(-20 -12 -2 -9 11 2 4 5)
1969/12/31/18:00:08.833000,(-38 -33 -4 -11 -16 -3 -6 -22)
1969/12/31/18:00:08.850000,(32 21 7 14 -3 1 18 42)
1969/12/31/18:00:08.850000,(-8 -7 -40 -96 -68 -51 -24 -13)
1969/12/31/18:00:08.851000,(18 11 17 83 -6 0 2 9)
1969/12/31/18:00:08.851000,(-10 2 33 87 90 62 22 -1)
1969/12/31/18:00:08.872000,(-7 -7 18 33 72 47 18 0)
1969/12/31/18:00:08.872000,(23 22 6 -28 6 13 8 15)
1969/12/31/18:00:08.874000,(-12 -13 -38 -112 -75 -33 -19 -14)
1969/12/31/18:00:08.874000,(7 4 -19 -45 -52 -36 -12 -1)
1969/12/31/18:00:08.886000,(-21 -25 3 33 -16 -17 -14 -22)
1969/12/31/18:00:08.886000,(21 35 37 71 31 16 19 39)
1969/12/31/18:00:08.895000,(-37 -34 -27 -25 1 -15 -34 -58)
1969/12/31/18:00:08.895000,(-4 -2 -3 -13 -6 -8 -16 -7)
1969/12/31/18:00:08.909000,(20 15 -10 -43 -11 -8 0 8)
1969/12/31/18:00:08.909000,(-24 -21 -10 -2 -14 -5 -8 -17)
1969/12/31/18:00:08.911000,(-1 -3 11 14 9 8 5 4)
1969/12/31/18:00:08.911000,(7 3 -18 -23 -7 -5 2 5)
1969/12/31/18:00:08.932000,(-11 -11 -1 -22 -20 -13 -9 -9)
1969/12/31/18:00:08.932000,(-3 2 24 100 36 16 7 -1)
1969/12/31/18:00:08.933000,(17 13 18 35 46 17 7 11)
1969/12/31/18:00:08.933000,(-36 -24 -11 -23 -20 -10 -14 -27)
1969/12/31/18:00:08.946000,(30 -4 -4 -26 -12 3 16 35)
1969/12/31/18:00:08.946000,(34 48 11 7 15 19 18 22)
1969/12/31/18:00:08.954000,(0 -4 -11 -41 -9 -1 -1 -7)
1969/12/31/18:00:08.954000,(-29 -24 -23 -49 -38 -19 -7 -7)
1969/12/31/18:00:08.970000,(25 9 20 81 28 17 21 21)
1969/12/31/18:00:08.970000,(9 32 19 18 26 5 -7 -18)
1969/12/31/18:00:08.971000,(-13 -30 -8 7 -7 -10 -17 -11)
1969/12/31/18:00:08.971000,(18 20 3 -12 -8 -1 5 5)
1969/12/31/18:00:08.992000,(-21 -17 -19 -45 -22 -16 -8 -11)
1969/12/31/18:00:08.992000,(-17 -22 -12 -9 -18 -7 -4 -7)
1969/12/31/18:00:08.994000,(9 9 -10 -59 -24 -17 -2 3)
1969/12/31/18:00:08.994000,(4 -12 -11 -53 -19 3 0 5)
1969/12/31/18:00:09.014000,(-2 16 30 86 70 25 5 -5)
1969/12/31/18:00:09.015000,(-23 -16 25 64 54 17 -6 -17)
1969/12/31/18:00:09.016000,(18 13 9 8 21 17 15 20)
1969/12/31/18:00:09.016000,(6 1 -3 -21 -20 -10 -1 6)
1969/12/31/18:00:09.030000,(-3 2 -27 -63 -52 -24 -10 -7)
1969/12/31/18:00:09.030000,(-39 -62 -31 -67 -41 -22 -8 -12)
1969/12/31/18:00:09.031000,(36 41 12 16 5 13 9 13)
1969/12/31/18:00:09.031000,(-10 -6 9 39 18 7 2 -11)
1969/12/31/18:00:09.052000,(-8 -1 -1 -8 -2 1 -4 -11)
1969/12/31/18:00:09.052000,(-26 -39 -10 -5 -10 -9 -12 -14)
1969/12/31/18:00:09.054000,(20 28 0 -3 0 3 16 28)
1969/12/31/18:00:09.054000,(-9 -18 -4 27 5 -10 -19 -14)
1969/12/31/18:00:09.066000,(-12 -5 -13 -90 -16 -4 -5 -12)
1969/12/31/18:00:09.066000,(8 9 3 42 -9 1 9 8)
1969/12/31/18:00:09.075000,(2 -2 14 35 22 3 0 2)
1969/12/31/18:00:09.075000,(10 16 14 22 24 10 7 8)
1969/12/31/18:00:09.090000,(-8 -5 2 21 4 2 3 4)
1969/12/31/18:00:09.090000,(21 9 -12 -27 -15 -4 -1 6)
1969/12/31/18:00:09.091000,(-1 -4 -9 -23 -13 -5 -8 -7)
1969/12/31/18:00:09.091000,(-11 -10 11 53 26 3 -7 -9)
1969/12/31/18:00:09.112000,(-8 -12 -1 -2 -5 -3 -1 -1)
1969/12/31/18:00:09.112000,(-2 13 -9 -27 -16 -4 -4 -7)
1969/12/31/18:00:09.114000,(-22 -17 0 25 5 -3 -4 -11)
1969/12/31/18:00:09.114000,(35 30 3 -11 -4 -4 7 24)
1969/12/31/18:00:09.126000,(-5 -1 -2 0 -3 -4 -11 -18)
1969/12/31/18:00:09.126000,(2 6 2 -12 -2 2 1 0)
1969/12/31/18:00:09.135000,(-31 -38 -15 -19 -8 -10 -10 -13)
1969/12/31/18:00:09.135000,(39 18 -2 -14 -18 9 21 32)
1969/12/31/18:00:09.150000,(16 14 -2 9 -4 -8 -2 6)
1969/12/31/18:00:09.150000,(-1 3 3 -3 -5 -7 -8 -5)
1969/12/31/18:00:09.151000,(-19 -22 4 28 -2 3 -6 -11)
1969/12/31/18:00:09.151000,(-1 -4 6 -5 35 19 15 10)
1969/12/31/18:00:09.172000,(2 4 9 62 26 11 6 4)
1969/12/31/18:00:09.172000,(6 2 -13 -72 -16 0 3 4)
1969/12/31/18:00:09.173000,(0 -3 -6 2 -9 -6 -5 2)
1969/12/31/18:00:09.174000,(-12 2 24 73 15 1 1 -7)
1969/12/31/18:00:09.186000,(5 6 -2 -26 -4 -3 -1 -1)
1969/12/31/18:00:09.186000,(5 -1 -3 -7 -6 -6 1 12)
1969/12/31/18:00:09.195000,(6 5 -10 -39 -19 -4 -4 -8)
1969/12/31/18:00:09.195000,(-14 -13 -14 -39 -25 -16 -13 -15)
1969/12/31/18:00:09.210000,(-4 -9 2 26 19 3 3 -3)
1969/12/31/18:00:09.210000,(-1 9 5 2 -9 9 11 6)
1969/12/31/18:00:09.211000,(9 6 1 8 3 2 4 11)
1969/12/31/18:00:09.211000,(-8 -4 -7 -19 -4 -5 -8 -11)
1969/12/31/18:00:09.232000,(-1 -4 -5 -5 -15 -7 -4 2)
1969/12/31/18:00:09.232000,(-6 -8 -12 -94 -26 -3 -3 -6)
1969/12/31/18:00:09.234000,(12 0 14 95 41 11 7 13)
1969/12/31/18:00:09.234000,(-6 29 14 28 22 7 -8 -14)
1969/12/31/18:00:09.246000,(-7 -7 1 0 -2 3 -1 1)
1969/12/31/18:00:09.246000,(1 6 -5 -3 6 -4 -4 -6)
1969/12/31/18:00:09.254000,(-4 -6 -17 -63 -42 -12 -2 -6)
1969/12/31/18:00:09.255000,(-8 -19 -3 13 -1 -6 -3 -1)
1969/12/31/18:00:09.270000,(3 8 4 25 13 7 -1 -2)
1969/12/31/18:00:09.270000,(7 2 9 36 22 1 -3 6)
1969/12/31/18:00:09.271000,(2 18 6 -14 -7 6 4 -5)
1969/12/31/18:00:09.271000,(-8 -9 -11 -20 -18 -9 -4 -4)
1969/12/31/18:00:09.292000,(9 5 -10 -27 -6 1 7 10)
1969/12/31/18:00:09.292000,(-16 -19 5 28 7 1 -5 -12)
1969/12/31/18:00:09.294000,(-13 -19 -10 -32 -5 -6 -6 -4)
1969/12/31/18:00:09.294000,(27 43 5 21 -5 9 18 24)
1969/12/31/18:00:09.306000,(2 4 0 8 18 -4 -12 -12)
1969/12/31/18:00:09.306000,(14 7 3 13 13 3 3 6)
1969/12/31/18:00:09.315000,(-10 -5 -3 -26 -8 -3 -7 -12)
1969/12/31/18:00:09.315000,(-7 -18 -4 -21 -22 -7 -6 -6)
1969/12/31/18:00:09.330000,(6 6 12 48 13 4 10 17)
1969/12/31/18:00:09.330000,(-6 -9 6 33 27 8 -3 -5)
1969/12/31/18:00:09.331000,(7 7 -9 -40 -4 -2 0 3)
1969/12/31/18:00:09.331000,(-18 -29 -9 -4 -14 -9 -7 -12)
1969/12/31/18:00:09.352000,(13 17 5 -10 -3 10 16 22)
1969/12/31/18:00:09.352000,(-20 -21 1 11 6 4 -2 -17)
1969/12/31/18:00:09.353000,(9 27 1 -1 2 1 1 8)
1969/12/31/18:00:09.353000,(-27 -45 -10 -7 -3 -6 -6 -9)
1969/12/31/18:00:09.375000,(14 5 -13 -59 -34 -11 -7 -2)
1969/12/31/18:00:09.375000,(5 4 1 36 14 -3 -1 2)
1969/12/31/18:00:09.376000,(-5 -7 10 18 12 7 7 2)
1969/12/31/18:00:09.376000,(6 0 -18 -59 -6 -4 -3 -2)
1969/12/31/18:00:09.390000,(-14 -2 3 35 -19 -8 -5 -8)
1969/12/31/18:00:09.390000,(1 1 14 30 14 3 -1 3)
1969/12/31/18:00:09.391000,(9 9 0 24 16 1 1 10)
1969/12/31/18:00:09.391000,(1 15 17 46 35 12 3 -4)
1969/12/31/18:00:09.412000,(-15 -14 -10 -58 -25 -9 -9 -14)
1969/12/31/18:00:09.412000,(12 11 -21 -49 -34 -4 8 18)
1969/12/31/18:00:09.414000,(-26 -13 0 27 5 -10 -12 -23)
1969/12/31/18:00:09.414000,(66 37 19 14 17 27 33 51)
1969/12/31/18:00:09.425000,(-6 -1 -7 -3 -2 -8 -12 -10)
1969/12/31/18:00:09.425000,(-19 -23 -3 -8 -12 -4 -3 -7)
1969/12/31/18:00:09.435000,(-9 -4 -7 -11 -4 -5 -3 -4)
1969/12/31/18:00:09.435000,(-15 -10 -2 -11 -8 -2 -4 -11)
1969/12/31/18:00:09.449000,(-2 -2 -3 -13 -4 0 1 1)
1969/12/31/18:00:09.449000,(0 0 16 53 25 6 -2 -2)
1969/12/31/18:00:09.451000,(-12 -9 9 5 5 7 2 -7)
1969/12/31/18:00:09.451000,(-4 -6 -8 -18 -5 -9 -6 -5)
1969/12/31/18:00:09.472000,(11 14 -3 6 15 -2 -5 1)
1969/12/31/18:00:09.472000,(-27 -66 -9 -34 -36 -2 7 0)
1969/12/31/18:00:09.474000,(61 65 14 28 18 9 12 26)
1969/12/31/18:00:09.474000,(-1 28 13 26 8 -1 -8 -10)
1969/12/31/18:00:09.486000,(-23 -16 -7 -4 4 0 -1 -14)
1969/12/31/18:00:09.486000,(30 4 -5 -15 1 8 12 15)
1969/12/31/18:00:09.495000,(-13 -39 -5 -13 -22 -11 -10 -8)
1969/12/31/18:00:09.495000,(20 41 1 -4 -5 -6 -8 -12)
1969/12/31/18:00:09.509000,(-3 -9 -3 -31 -8 -1 1 6)
1969/12/31/18:00:09.509000,(1 48 0 -2 -15 -13 -11 -22)
1969/12/31/18:00:09.516000,(-5 -35 -10 5 9 5 2 0)
1969/12/31/18:00:09.516000,(-9 -12 8 44 17 1 -5 -2)
1969/12/31/18:00:09.532000,(-20 -18 14 30 15 4 0 -11)
1969/12/31/18:00:09.532000,(-6 3 -4 -18 -11 -6 -8 -6)
1969/12/31/18:00:09.534000,(1 6 5 -9 -7 -1 3 13)
1969/12/31/18:00:09.534000,(-8 -15 -20 -42 -6 -8 -7 -19)
1969/12/31/18:00:09.555000,(-58 -84 -17 -20 -33 -10 -7 -12)
1969/12/31/18:00:09.555000,(84 99 35 45 39 36 43 47)
1969/12/31/18:00:09.556000,(-31 -63 -15 21 11 -2 -12 -22)
1969/12/31/18:00:09.556000,(43 58 11 11 0 -1 6 26)
1969/12/31/18:00:09.569000,(0 -11 -4 -21 -9 -8 -12 -10)
1969/12/31/18:00:09.569000,(-9 -13 -25 -48 -20 -11 -14 -7)
1969/12/31/18:00:09.576000,(5 8 -8 -41 -14 4 11 10)
1969/12/31/18:00:09.576000,(-14 -39 -12 -4 2 0 -1 -6)
1969/12/31/18:00:09.600000,(-19 0 14 64 21 2 3 -6)
1969/12/31/18:00:09.600000,(19 30 1 -67 -33 -12 -2 9)
1969/12/31/18:00:09.601000,(-4 -20 9 86 27 2 2 2)
1969/12/31/18:00:09.601000,(-18 40 21 35 29 -2 -8 -3)
1969/12/31/18:00:09.606000,(44 64 13 -6 14 21 17 5)
1969/12/31/18:00:09.606000,(-37 -51 -20 -4 -2 -6 -10 -16)
1969/12/31/18:00:09.615000,(18 22 4 -30 -16 1 8 12)
1969/12/31/18:00:09.615000,(-32 -44 -22 -45 -37 -13 -11 -16)
1969/12/31/18:00:09.629000,(32 23 10 8 11 12 21 28)
1969/12/31/18:00:09.629000,(-4 9 6 6 20 -1 -12 -14)
1969/12/31/18:00:09.636000,(-36 -48 -10 -35 -41 -19 -17 -17)
1969/12/31/18:00:09.636000,(25 26 4 47 5 4 11 17)
1969/12/31/18:00:09.652000,(0 21 8 -9 17 2 -8 -7)
1969/12/31/18:00:09.652000,(-27 -35 -10 20 10 1 -3 -16)
1969/12/31/18:00:09.654000,(-4 -6 -7 -49 -28 -7 -1 -1)
1969/12/31/18:00:09.654000,(15 9 2 5 6 2 -1 7)
1969/12/31/18:00:09.666000,(12 0 0 8 7 3 5 3)
1969/12/31/18:00:09.666000,(-22 -27 -5 19 -1 -9 -9 -7)
1969/12/31/18:00:09.675000,(55 74 26 11 22 20 20 28)
1969/12/31/18:00:09.675000,(1 -6 -2 -14 -13 -1 3 5)
1969/12/31/18:00:09.689000,(-29 -67 -23 -24 -23 -17 -15 -20)
1969/12/31/18:00:09.689000,(50 65 18 -2 1 2 11 34)
1969/12/31/18:00:09.696000,(-4 0 -7 -9 -1 -5 -8 -13)
1969/12/31/18:00:09.696000,(-29 -36 -6 -11 -1 1 4 -1)
1969/12/31/18:00:09.712000,(19 7 11 41 -5 -1 -1 6)
1969/12/31/18:00:09.712000,(-4 -21 -6 16 25 17 11 8)
1969/12/31/18:00:09.714000,(9 18 -7 -30 -5 4 1 2)
1969/12/31/18:00:09.714000,(-18 -52 -5 -11 -10 -1 -2 -6)
1969/12/31/18:00:09.726000,(-7 4 -7 -22 -6 -10 -10 -3)
1969/12/31/18:00:09.726000,(-1 -4 -4 -8 -16 -8 -1 -3)
1969/12/31/18:00:09.735000,(-19 -12 5 36 29 5 -2 -6)
1969/12/31/18:00:09.735000,(-22 -33 -5 11 -6 -2 -7 -13)
1969/12/31/18:00:09.749000,(40 45 12 6 11 24 34 32)
1969/12/31/18:00:09.749000,(-9 15 5 -1 -7 -4 -6 -11)
1969/12/31/18:00:09.756000,(-29 -45 -19 -8 3 -7 -11 -7)
1969/12/31/18:00:09.756000,(8 12 -7 -31 -13 -2 0 -4)
1969/12/31/18:00:09.772000,(-2 2 1 20 -7 -6 -5 -3)
1969/12/31/18:00:09.772000,(5 -4 11 25 44 11 8 7)
1969/12/31/18:00:09.773000,(-20 -12 -7 -2 -32 -10 -11 -18)
1969/12/31/18:00:09.773000,(-9 -20 -2 -26 -12 -5 -4 -5)
1969/12/31/18:00:09.786000,(3 13 -4 21 14 2 -3 -4)
1969/12/31/18:00:09.786000,(-5 -12 -3 4 4 1 3 -2)
1969/12/31/18:00:09.795000,(29 24 13 18 15 8 13 23)
1969/12/31/18:00:09.795000,(-10 -6 -7 -14 0 -5 -9 -14)
1969/12/31/18:00:09.808000,(-2 -2 -12 -49 -43 -6 1 -5)
1969/12/31/18:00:09.808000,(-26 -26 8 45 5 -16 -19 -13)
1969/12/31/18:00:09.834000,(-19 -13 10 32 18 4 1 -19)
1969/12/31/18:00:09.834000,(44 50 3 11 20 24 28 48)
1969/12/31/18:00:09.835000,(-16 -19 -10 -23 -7 -9 -15 -20)
1969/12/31/18:00:09.835000,(-15 -13 -3 -7 -13 -8 -14 -13)
1969/12/31/18:00:09.838000,(28 23 -15 -30 -8 0 11 19)
1969/12/31/18:00:09.838000,(-21 -30 -4 10 -7 -4 -4 -20)
1969/12/31/18:00:09.855000,(29 11 16 21 20 10 18 43)
1969/12/31/18:00:09.855000,(17 23 -4 -16 -13 -3 -5 -4)
1969/12/31/18:00:09.856000,(-17 -21 -1 2 -3 -8 -10 -16)
1969/12/31/18:00:09.856000,(-27 -19 -4 -15 -7 -5 -7 -13)
1969/12/31/18:00:09.868000,(-17 -35 -6 8 4 -3 -3 -3)
1969/12/31/18:00:09.868000,(25 50 3 -11 -8 9 17 14)
1969/12/31/18:00:09.877000,(8 21 8 -3 -6 -9 -10 4)
1969/12/31/18:00:09.877000,(-8 4 2 19 11 -1 -3 0)
1969/12/31/18:00:09.892000,(17 -5 -8 -6 9 12 11 6)
1969/12/31/18:00:09.892000,(-19 -29 -16 -17 -10 -13 -21 -18)
1969/12/31/18:00:09.894000,(-15 -26 -6 3 0 2 1 -6)
1969/12/31/18:00:09.894000,(28 56 14 3 -4 3 0 1)
1969/12/31/18:00:09.915000,(-32 -18 -4 -12 -15 -22 -23 -28)
1969/12/31/18:00:09.915000,(8 15 4 -23 3 15 18 13)
1969/12/31/18:00:09.916000,(19 16 5 18 5 9 14 19)
1969/12/31/18:00:09.916000,(-10 -26 -4 23 12 -1 0 -2)
1969/12/31/18:00:09.928000,(-20 -2 -1 -4 -1 -11 -18 -21)
1969/12/31/18:00:09.928000,(22 1 -20 -58 -26 2 14 19)
1969/12/31/18:00:09.943000,(1 11 12 51 -1 0 -4 -5)
1969/12/31/18:00:09.943000,(-16 -10 21 43 31 3 -5 -12)
1969/12/31/18:00:09.952000,(16 24 7 6 7 6 8 13)
1969/12/31/18:00:09.952000,(-32 -24 -2 -5 -12 -18 -27 -28)
1969/12/31/18:00:09.954000,(-59 -54 -17 -47 -8 6 12 -4)
1969/12/31/18:00:09.954000,(96 74 14 -5 0 25 35 58)
1969/12/31/18:00:09.976000,(-43 -35 -11 -8 -11 -20 -29 -30)
1969/12/31/18:00:09.976000,(24 26 9 14 6 8 16 16)
1969/12/31/18:00:09.977000,(-26 -34 -6 -10 -4 -15 -24 -27)
1969/12/31/18:00:09.978000,(16 7 -1 -2 -9 -12 -11 -4)
1969/12/31/18:00:09.988000,(-18 -34 -5 2 10 13 16 13)
1969/12/31/18:00:09.988000,(14 20 8 12 0 -2 -9 -10)
1969/12/31/18:00:09.997000,(30 27 2 12 12 13 19 21)
1969/12/31/18:00:09.997000,(-5 -2 -1 -15 -6 0 0 0)
1969/12/31/18:00:10.012000,(-1 -3 -4 -11 -9 -3 -1 -2)
1969/12/31/18:00:10.012000,(-34 -40 -6 9 -9 -11 -9 -10)
1969/12/31/18:00:10.014000,(43 32 6 0 7 3 6 18)
1969/12/31/18:00:10.014000,(-19 -13 -4 1 0 3 2 -6)
1969/12/31/18:00:10.035000,(3 22 -1 -1 0 1 -5 -9)
1969/12/31/18:00:10.035000,(-22 -28 9 23 11 7 7 2)
1969/12/31/18:00:10.036000,(-17 -2 -16 -18 -7 -12 -19 -28)
1969/12/31/18:00:10.036000,(-27 -44 -1 -6 -9 -2 4 15)
1969/12/31/18:00:10.048000,(-18 -15 -13 -3 -8 -8 -8 -10)
1969/12/31/18:00:10.048000,(21 35 3 5 6 1 -1 -5)
1969/12/31/18:00:10.057000,(10 12 3 -1 4 3 0 4)
1969/12/31/18:00:10.057000,(-10 -12 -6 -2 -6 -2 -4 -12)
1969/12/31/18:00:10.072000,(-4 -1 6 -1 -1 0 1 0)
1969/12/31/18:00:10.072000,(2 -13 -11 -13 -12 -5 1 13)
1969/12/31/18:00:10.074000,(-5 10 5 9 12 8 2 -4)
1969/12/31/18:00:10.074000,(0 -7 -13 -1 11 -12 -11 -6)
1969/12/31/18:00:10.095000,(30 26 16 23 16 26 30 27)
1969/12/31/18:00:10.095000,(-32 -22 -3 3 -4 -8 -12 -17)
1969/12/31/18:00:10.096000,(10 15 6 -11 -13 -8 -5 -2)
1969/12/31/18:00:10.096000,(-19 -12 -8 -10 -5 -1 3 -6)
1969/12/31/18:00:10.108000,(5 20 11 9 3 -13 -18 -7)
1969/12/31/18:00:10.108000,(-16 -41 -6 2 12 14 20 12)
1969/12/31/18:00:10.117000,(29 27 3 -5 -7 -1 -7 -1)
1969/12/31/18:00:10.117000,(25 34 5 -12 -14 -9 -11 -7)
1969/12/31/18:00:10.132000,(-14 -7 -14 -6 -5 -5 -8 -21)
1969/12/31/18:00:10.132000,(-4 -21 -2 5 1 -1 -5 0)
1969/12/31/18:00:10.134000,(-32 -26 -1 3 -2 -12 -20 -22)
1969/12/31/18:00:10.134000,(7 -3 -5 -16 -9 5 11 11)
1969/12/31/18:00:10.155000,(16 17 5 -26 -18 -8 -2 7)
1969/12/31/18:00:10.155000,(2 8 -5 16 11 -2 0 -3)
1969/12/31/18:00:10.156000,(23 17 15 40 19 10 10 18)
1969/12/31/18:00:10.156000,(6 13 13 14 11 7 1 -1)
1969/12/31/18:00:10.168000,(-26 -23 -4 -4 -7 -6 -7 -9)
1969/12/31/18:00:10.168000,(11 -5 -9 -25 -14 -4 4 9)
1969/12/31/18:00:10.177000,(-2 27 -2 -10 2 1 1 -1)
1969/12/31/18:00:10.177000,(-24 -22 -2 1 -7 -9 -9 -10)
1969/12/31/18:00:10.192000,(24 45 -1 -8 -5 -5 -4 -5)
1969/12/31/18:00:10.192000,(-32 -18 -3 3 -1 -3 -12 -21)
1969/12/31/18:00:10.193000,(-6 -18 0 4 3 3 5 3)
1969/12/31/18:00:10.193000,(39 34 4 -3 0 4 5 17)
1969/12/31/18:00:10.214000,(1 1 -12 -17 -9 -5 -7 -5)
1969/12/31/18:00:10.214000,(-17 -34 -5 -16 0 3 0 -6)
1969/12/31/18:00:10.216000,(29 46 11 27 22 4 5 11)
1969/12/31/18:00:10.216000,(-55 -45 -10 8 -22 -11 -21 -30)
1969/12/31/18:00:10.228000,(22 2 12 17 14 6 4 5)
1969/12/31/18:00:10.228000,(6 19 1 -20 -6 0 0 1)
1969/12/31/18:00:10.237000,(-46 -91 -17 -5 -6 -3 -1 -8)
1969/12/31/18:00:10.237000,(90 93 9 4 13 12 36 59)
1969/12/31/18:00:10.252000,(-1 -41 7 21 19 9 5 15)
1969/12/31/18:00:10.252000,(65 105 17 9 -2 6 8 9)
1969/12/31/18:00:10.253000,(20 35 0 -25 -14 -5 -3 -3)
1969/12/31/18:00:10.253000,(-43 -50 -11 -7 -4 -4 -8 -17)
1969/12/31/18:00:10.275000,(-38 -81 -2 5 2 4 1 -6)
1969/12/31/18:00:10.275000,(31 58 4 0 5 4 8 12)
1969/12/31/18:00:10.276000,(-12 -22 -19 -39 -20 -12 -6 1)
1969/12/31/18:00:10.276000,(-2 0 9 29 17 5 -2 -8)
1969/12/31/18:00:10.288000,(20 25 16 13 10 7 11 16)
1969/12/31/18:00:10.288000,(-19 -33 -4 12 8 5 2 -3)
1969/12/31/18:00:10.297000,(16 7 -10 -5 -7 -4 0 10)
1969/12/31/18:00:10.297000,(-36 -37 -11 -21 -14 -15 -22 -26)
1969/12/31/18:00:10.312000,(-35 -8 -15 -16 -12 -13 -13 -25)
1969/12/31/18:00:10.312000,(74 46 26 19 19 22 28 65)
1969/12/31/18:00:10.314000,(-19 -13 -10 -17 -12 1 -7 -18)
1969/12/31/18:00:10.314000,(-38 -57 -8 -5 -2 -4 -5 -14)
1969/12/31/18:00:10.335000,(43 32 7 11 7 1 1 8)
1969/12/31/18:00:10.335000,(-17 -1 -2 11 -3 -16 -22 -27)
1969/12/31/18:00:10.336000,(17 16 10 2 3 7 11 7)
1969/12/31/18:00:10.336000,(-9 -11 -6 -27 -18 -15 -25 -19)
1969/12/31/18:00:10.348000,(-11 0 -7 -12 -15 -10 -5 -2)
1969/12/31/18:00:10.348000,(-17 -33 -14 -5 -17 -6 -5 -5)
1969/12/31/18:00:10.357000,(-15 -3 8 4 -3 -4 -2 -4)
1969/12/31/18:00:10.357000,(17 21 5 11 17 16 19 10)
1969/12/31/18:00:10.372000,(-4 16 -5 -6 2 3 -2 -5)
1969/12/31/18:00:10.372000,(5 1 5 12 9 4 8 10)
1969/12/31/18:00:10.374000,(-16 -15 8 19 4 0 -8 -6)
1969/12/31/18:00:10.374000,(-4 4 -4 7 0 -9 -8 -9)
1969/12/31/18:00:10.402000,(-51 -38 3 -5 10 13 7 -11)
1969/12/31/18:00:10.402000,(28 26 -2 -8 -5 2 6 4)
1969/12/31/18:00:10.404000,(21 30 -6 -13 -15 -18 -10 16)
1969/12/31/18:00:10.404000,(-60 -54 -17 -9 -5 -14 -30 -49)
1969/12/31/18:00:10.408000,(33 14 -6 -1 2 10 17 25)
1969/12/31/18:00:10.408000,(-18 -15 -1 1 -3 -4 -8 -8)
1969/12/31/18:00:10.417000,(-23 -23 0 3 1 -3 -4 -12)
1969/12/31/18:00:10.417000,(42 33 7 -3 4 15 26 35)
1969/12/31/18:00:10.431000,(-7 11 -5 -21 -29 -21 -16 -9)
1969/12/31/18:00:10.431000,(21 -9 5 6 27 20 25 33)
1969/12/31/18:00:10.438000,(-18 15 2 32 17 2 -8 -18)
1969/12/31/18:00:10.438000,(46 28 10 9 6 15 22 27)
1969/12/31/18:00:10.456000,(4 -10 -5 -5 -5 0 5 -3)
1969/12/31/18:00:10.456000,(-32 -15 -12 -16 -20 -28 -37 -32)
1969/12/31/18:00:10.457000,(21 30 0 -11 -2 3 2 -4)
1969/12/31/18:00:10.458000,(-42 -26 -8 -6 -12 -6 1 11)
1969/12/31/18:00:10.468000,(13 8 -4 -3 2 -2 -4 -9)
1969/12/31/18:00:10.468000,(-18 -22 4 1 -1 3 4 -6)
1969/12/31/18:00:10.477000,(8 -3 -7 -15 13 0 0 7)
1969/12/31/18:00:10.477000,(1 -7 -4 -6 -2 8 13 14)
1969/12/31/18:00:10.491000,(7 15 13 34 -2 -1 -1 9)
1969/12/31/18:00:10.491000,(-35 -18 6 12 8 -6 -12 -19)
1969/12/31/18:00:10.498000,(-1 -21 -7 -6 -6 -2 3 3)
1969/12/31/18:00:10.498000,(-3 4 2 -20 -8 -8 -11 -17)
1969/12/31/18:00:10.514000,(45 8 2 -2 18 22 32 47)
1969/12/31/18:00:10.514000,(-5 6 -5 5 -6 -12 -19 -27)
1969/12/31/18:00:10.516000,(-8 -28 2 -7 -6 -1 5 9)
1969/12/31/18:00:10.516000,(3 11 22 19 17 20 16 0)
1969/12/31/18:00:10.528000,(-16 -7 -5 -2 -8 -5 -7 -8)
1969/12/31/18:00:10.528000,(-10 -13 -8 -7 -7 -3 3 -8)
1969/12/31/18:00:10.537000,(-13 8 -6 -7 -11 -20 -38 -32)
1969/12/31/18:00:10.537000,(-4 -4 -5 -4 -8 -11 -13 -10)
1969/12/31/18:00:10.552000,(29 28 8 4 10 10 21 35)
1969/12/31/18:00:10.552000,(-18 -23 -4 0 -1 0 1 -6)
1969/12/31/18:00:10.558000,(19 18 12 8 5 15 22 21)
1969/12/31/18:00:10.559000,(31 16 -6 -3 -3 -3 -1 11)
1969/12/31/18:00:10.575000,(-12 1 -4 -16 -12 -8 -12 -12)
1969/12/31/18:00:10.575000,(-23 -21 -7 1 -7 -12 -12 -13)
1969/12/31/18:00:10.576000,(-19 -43 0 17 12 3 3 3)
1969/12/31/18:00:10.576000,(56 64 17 24 34 36 52 56)
1969/12/31/18:00:10.588000,(-22 -26 -10 -16 -7 -4 -7 -19)
1969/12/31/18:00:10.588000,(-22 -21 -12 -21 -14 -11 -13 -12)
1969/12/31/18:00:10.597000,(-2 -3 3 8 11 8 5 -2)
1969/12/31/18:00:10.597000,(-4 -9 2 18 -5 -11 -9 -5)
1969/12/31/18:00:10.612000,(7 7 -7 -26 6 -4 -3 2)
1969/12/31/18:00:10.612000,(-2 -1 0 3 -23 0 2 -4)
1969/12/31/18:00:10.626000,(-20 -25 1 21 5 -1 3 -7)
1969/12/31/18:00:10.626000,(-5 -22 -6 7 15 -6 -18 -12)
1969/12/31/18:00:10.635000,(37 48 11 20 11 6 5 6)
1969/12/31/18:00:10.635000,(-6 4 -4 -22 -7 -9 -16 -10)
1969/12/31/18:00:10.636000,(37 18 -8 -25 -15 -1 7 16)
1969/12/31/18:00:10.636000,(-57 -44 -10 -7 -5 5 -1 -29)
1969/12/31/18:00:10.648000,(-46 -43 -9 -2 -8 -14 -21 -29)
1969/12/31/18:00:10.648000,(42 36 8 0 10 6 11 20)
1969/12/31/18:00:10.657000,(-12 6 0 0 -8 -7 -8 -14)
1969/12/31/18:00:10.657000,(19 18 1 -12 -8 0 2 9)
1969/12/31/18:00:10.672000,(8 7 2 3 -5 -3 2 11)
1969/12/31/18:00:10.672000,(-37 -42 -1 12 12 -1 -2 -15)
1969/12/31/18:00:10.679000,(29 51 4 8 5 5 5 11)
1969/12/31/18:00:10.679000,(19 4 -7 -9 -3 0 9 20)
1969/12/31/18:00:10.694000,(-11 -14 -9 -27 9 -2 -10 -8)
1969/12/31/18:00:10.694000,(52 42 14 36 -3 6 10 25)
1969/12/31/18:00:10.695000,(-36 -26 2 8 12 -7 -12 -16)
1969/12/31/18:00:10.695000,(-1 1 2 9 -4 -2 -2 -1)
1969/12/31/18:00:10.716000,(-5 4 10 14 4 -1 -4 -14)
1969/12/31/18:00:10.716000,(-39 -61 -1 7 23 28 33 11)
1969/12/31/18:00:10.717000,(13 6 -10 -24 -14 -4 -2 0)
1969/12/31/18:00:10.717000,(-26 -11 -6 -12 -10 -12 -17 -21)
1969/12/31/18:00:10.731000,(-4 -7 -7 -2 -4 -2 1 1)
1969/12/31/18:00:10.731000,(17 3 -2 -4 4 9 15 21)
1969/12/31/18:00:10.739000,(8 -5 -1 -17 -11 4 8 10)
1969/12/31/18:00:10.739000,(-30 -25 -11 -20 -11 -13 -17 -23)
1969/12/31/18:00:10.754000,(7 10 9 38 15 2 4 4)
1969/12/31/18:00:10.754000,(-8 12 9 17 6 -5 -11 -11)
1969/12/31/18:00:10.755000,(7 1 4 13 21 14 13 12)
1969/12/31/18:00:10.755000,(-6 1 3 -6 -6 -3 -4 -4)
1969/12/31/18:00:10.776000,(7 3 -1 -15 -15 -13 -10 9)
1969/12/31/18:00:10.776000,(-78 -78 -23 -10 4 3 -12 -55)
1969/12/31/18:00:10.777000,(-10 8 -5 -7 -12 -7 -9 -23)
1969/12/31/18:00:10.777000,(9 16 11 13 12 12 3 3)
1969/12/31/18:00:10.791000,(10 2 -5 5 1 2 2 7)
1969/12/31/18:00:10.791000,(-53 -49 -31 -33 -27 -38 -37 -18)
1969/12/31/18:00:10.792000,(50 74 3 -6 -4 11 20 16)
1969/12/31/18:00:10.792000,(6 13 8 5 5 4 6 8)
1969/12/31/18:00:10.814000,(-1 8 16 18 12 17 10 0)
1969/12/31/18:00:10.814000,(37 42 11 1 -3 -6 -3 14)
1969/12/31/18:00:10.814000,(-17 -34 -13 -13 -11 -9 -6 2)
1969/12/31/18:00:10.814000,(15 8 -7 -10 -3 -3 -1 6)
1969/12/31/18:00:10.836000,(-18 -10 -2 5 -18 -11 -13 -20)
1969/12/31/18:00:10.836000,(24 2 6 -8 8 14 26 37)
1969/12/31/18:00:10.837000,(-3 12 6 14 5 -6 -12 -3)
1969/12/31/18:00:10.837000,(-18 -15 8 14 13 6 -2 -13)
1969/12/31/18:00:10.851000,(-16 -27 -4 -9 -6 -3 -5 -8)
1969/12/31/18:00:10.851000,(25 37 14 6 6 16 29 35)
1969/12/31/18:00:10.852000,(-95 -111 -15 -1 -6 -12 -26 -44)
1969/12/31/18:00:10.852000,(42 51 -3 -11 -10 -12 -11 -1)
1969/12/31/18:00:10.874000,(5 -2 -8 -9 -3 -1 5 10)
1969/12/31/18:00:10.874000,(17 24 3 2 0 5 2 -1)
1969/12/31/18:00:10.875000,(-13 -10 1 -4 -2 5 7 3)
1969/12/31/18:00:10.875000,(17 -6 -1 1 -4 -1 7 15)
1969/12/31/18:00:10.897000,(-9 -12 -6 -7 -9 -9 -7 -7)
1969/12/31/18:00:10.897000,(10 16 2 5 7 -2 -6 -5)
1969/12/31/18:00:10.897000,(23 18 9 6 4 1 2 9)
1969/12/31/18:00:10.897000,(-41 -38 -11 -3 -11 -9 -12 -23)
1969/12/31/18:00:10.911000,(7 -38 -6 6 11 5 15 25)
1969/12/31/18:00:10.911000,(5 40 9 3 1 -12 -29 -34)
1969/12/31/18:00:10.912000,(-19 -17 -4 1 0 8 4 -7)
1969/12/31/18:00:10.912000,(20 14 2 -6 -6 -3 3 9)
1969/12/31/18:00:10.934000,(-26 -13 -8 -9 -9 -6 -9 -16)
1969/12/31/18:00:10.934000,(6 -13 2 -1 2 7 12 16)
1969/12/31/18:00:10.935000,(18 13 4 -5 -4 2 7 12)
1969/12/31/18:00:10.935000,(28 29 -8 -1 4 0 3 10)
1969/12/31/18:00:10.956000,(-23 -13 2 4 4 -1 -5 -14)
1969/12/31/18:00:10.956000,(51 30 -2 -5 -6 -6 4 31)
1969/12/31/18:00:10.957000,(10 29 4 1 -4 -8 -12 -11)
1969/12/31/18:00:10.957000,(-34 -48 -8 -3 -4 -9 -12 -18)
1969/12/31/18:00:10.971000,(49 72 25 8 7 10 15 20)
1969/12/31/18:00:10.971000,(-45 -42 -10 0 -5 -2 2 -8)
1969/12/31/18:00:10.979000,(48 7 8 0 13 19 25 33)
1969/12/31/18:00:10.979000,(-13 13 -5 -3 -5 -10 -17 -9)
1969/12/31/18:00:10.994000,(-20 -21 -2 -3 -3 -5 -10 -18)
1969/12/31/18:00:10.994000,(41 55 2 -3 -7 -5 -7 0)
1969/12/31/18:00:10.995000,(-16 -18 0 1 -4 -1 5 -1)
1969/12/31/18:00:10.995000,(22 44 10 12 11 12 17 21)
1969/12/31/18:00:11.016000,(25 13 5 -8 0 9 15 20)
1969/12/31/18:00:11.016000,(-2 -9 -3 -5 -2 1 3 2)
1969/12/31/18:00:11.017000,(-21 -20 -7 0 -9 -18 -20 -19)
1969/12/31/18:00:11.017000,(-11 -24 11 11 16 19 19 5)
1969/12/31/18:00:11.031000,(-45 -41 -16 -11 -10 -18 -28 -34)
1969/12/31/18:00:11.031000,(51 90 18 12 11 6 12 20)
1969/12/31/18:00:11.032000,(2 -2 -5 -6 -21 -10 -9 -2)
1969/12/31/18:00:11.032000,(-29 -39 -12 -36 -25 -16 -17 -22)
1969/12/31/18:00:11.054000,(9 15 4 36 20 11 11 6)
1969/12/31/18:00:11.054000,(-25 -50 -8 -29 18 10 6 -2)
1969/12/31/18:00:11.055000,(-15 -11 3 29 -3 -4 -10 -12)
1969/12/31/18:00:11.055000,(5 10 6 20 3 -3 1 4)
1969/12/31/18:00:11.077000,(25 26 0 -13 1 8 10 16)
1969/12/31/18:00:11.077000,(-19 -27 -13 -16 -18 -12 -17 -16)
1969/12/31/18:00:11.077000,(15 14 -6 -35 -14 2 11 15)
1969/12/31/18:00:11.077000,(-18 -19 -3 7 3 -9 -11 -15)
1969/12/31/18:00:11.091000,(4 7 6 27 19 6 2 4)
1969/12/31/18:00:11.091000,(-18 -23 3 16 5 6 -2 -10)
1969/12/31/18:00:11.106000,(2 6 7 -29 -17 -2 3 -1)
1969/12/31/18:00:11.106000,(-1 -5 -4 19 5 -3 -1 1)
1969/12/31/18:00:11.122000,(11 0 -11 -8 -5 -3 -3 6)
1969/12/31/18:00:11.122000,(-21 -15 -6 -16 -8 -5 -10 -17)
1969/12/31/18:00:11.123000,(4 1 -1 3 13 10 10 10)
1969/12/31/18:00:11.123000,(6 6 13 6 3 5 1 2)
1969/12/31/18:00:11.136000,(5 8 -4 4 2 -1 2 3)
1969/12/31/18:00:11.136000,(-10 -13 1 -13 -21 -6 -6 -9)
1969/12/31/18:00:11.137000,(-1 0 -3 12 7 -4 -4 -1)
1969/12/31/18:00:11.137000,(1 -10 -15 -22 0 -4 -2 2)
1969/12/31/18:00:11.151000,(-10 -8 -14 -65 -20 -13 -8 -9)
1969/12/31/18:00:11.151000,(-1 -2 11 49 -15 1 3 3)
1969/12/31/18:00:11.152000,(1 2 11 34 10 -2 -2 1)
1969/12/31/18:00:11.152000,(4 6 14 40 43 19 7 3)
1969/12/31/18:00:11.174000,(2 6 -4 -10 11 9 3 3)
1969/12/31/18:00:11.174000,(-9 -7 -2 -32 -5 -8 -9 -8)
1969/12/31/18:00:11.175000,(2 -4 -18 -18 -14 2 3 4)
1969/12/31/18:00:11.175000,(7 -1 2 1 -11 -6 1 4)
1969/12/31/18:00:11.197000,(-6 -7 -9 -16 -8 -6 -1 -5)
1969/12/31/18:00:11.197000,(-2 -4 -1 13 1 -2 -1 -1)
1969/12/31/18:00:11.197000,(-5 1 7 -4 9 0 -3 -6)
1969/12/31/18:00:11.197000,(1 1 8 7 -13 -2 1 2)
1969/12/31/18:00:11.212000,(2 4 14 9 2 6 4 1)
1969/12/31/18:00:11.212000,(8 4 -7 8 6 3 5 6)
1969/12/31/18:00:11.219000,(5 0 -4 0 1 -6 -3 2)
1969/12/31/18:00:11.219000,(-13 -12 -11 3 -1 -4 -9 -10)
1969/12/31/18:00:11.234000,(-1 -2 3 18 18 2 -1 -4)
1969/12/31/18:00:11.234000,(-4 0 9 -26 -21 -8 0 -1)
1969/12/31/18:00:11.234000,(1 4 -3 22 24 9 3 2)
1969/12/31/18:00:11.235000,(-1 -4 0 -4 1 5 2 -2)
1969/12/31/18:00:11.256000,(-5 -2 10 45 9 9 0 -3)
1969/12/31/18:00:11.256000,(2 -1 12 5 12 5 3 3)
1969/12/31/18:00:11.257000,(-4 -2 -7 -38 -19 -5 -3 -5)
1969/12/31/18:00:11.257000,(8 3 -21 -38 -26 -13 -1 5)
1969/12/31/18:00:11.271000,(-6 -5 -5 -31 -21 -9 -5 -5)
1969/12/31/18:00:11.271000,(2 1 9 43 4 -4 -2 -1)
1969/12/31/18:00:11.272000,(-4 -4 6 42 40 1 -5 -5)
1969/12/31/18:00:11.272000,(0 2 4 1 12 17 9 4)
1969/12/31/18:00:11.294000,(2 2 0 -55 -28 -5 -2 1)
1969/12/31/18:00:11.294000,(1 0 -4 20 10 11 8 4)
1969/12/31/18:00:11.295000,(3 4 8 32 13 7 1 1)
1969/12/31/18:00:11.295000,(-1 -1 -7 -29 -9 -12 -5 0)
1969/12/31/18:00:11.317000,(-7 -7 -6 22 -12 -9 -4 -5)
1969/12/31/18:00:11.317000,(-4 -5 -10 -19 -1 -4 -3 -3)
1969/12/31/18:00:11.318000,(-1 -3 -5 -38 -19 -3 0 -3)
1969/12/31/18:00:11.318000,(6 7 13 -16 -7 4 7 4)
1969/12/31/18:00:11.331000,(4 2 -12 46 16 0 -3 0)
1969/12/31/18:00:11.331000,(-8 -8 2 11 10 4 -2 -6)
1969/12/31/18:00:11.339000,(0 3 1 6 -1 -1 -1 -1)
1969/12/31/18:00:11.339000,(-2 -2 13 18 0 -4 -3 -1)
1969/12/31/18:00:11.354000,(7 10 11 7 -6 -1 1 3)
1969/12/31/18:00:11.354000,(0 -3 -11 -1 16 2 0 -1)
1969/12/31/18:00:11.355000,(-4 -5 4 -20 -13 2 2 -1)
1969/12/31/18:00:11.355000,(-6 -4 -13 -19 -12 -6 -5 -7)
1969/12/31/18:00:11.376000,(4 2 9 11 5 0 0 2)
1969/12/31/18:00:11.377000,(-6 -1 -3 -11 5 0 0 -2)
1969/12/31/18:00:11.377000,(1 -1 -11 -46 -16 2 1 1)
1969/12/31/18:00:11.377000,(-1 -11 -19 15 -9 -10 -5 0)
1969/12/31/18:00:11.391000,(-4 1 20 41 10 -2 -4 -6)
1969/12/31/18:00:11.391000,(1 7 6 1 2 -2 -4 -1)
1969/12/31/18:00:11.399000,(3 -2 -14 -15 -8 -2 1 2)
1969/12/31/18:00:11.399000,(-1 -2 -5 -1 0 3 2 0)
1969/12/31/18:00:11.414000,(-5 -10 -11 -44 -10 -8 -6 -4)
1969/12/31/18:00:11.414000,(-3 -1 13 -11 -7 2 1 0)
1969/12/31/18:00:11.415000,(3 8 15 78 29 6 5 3)
1969/12/31/18:00:11.415000,(4 0 -8 -30 -13 -5 -2 0)
1969/12/31/18:00:11.436000,(3 2 0 23 5 8 5 2)
1969/12/31/18:00:11.436000,(1 1 9 10 17 5 -2 -1)
1969/12/31/18:00:11.437000,(-5 -6 -10 -13 -3 -6 -3 -2)
1969/12/31/18:00:11.437000,(-2 -5 2 -14 -8 0 -1 0)
1969/12/31/18:00:11.451000,(-4 5 -5 -15 -7 -6 -2 -4)
1969/12/31/18:00:11.451000,(-1 -2 -15 -38 -31 -11 -4 -2)
1969/12/31/18:00:11.459000,(1 -1 -6 -12 -9 -3 -3 -1)
1969/12/31/18:00:11.459000,(-3 4 24 44 18 5 1 1)
1969/12/31/18:00:11.474000,(4 2 3 -1 -2 0 1 4)
1969/12/31/18:00:11.474000,(-2 -6 -10 -8 -4 -4 -2 -3)
1969/12/31/18:00:11.474000,(-1 4 1 -1 9 7 3 -1)
1969/12/31/18:00:11.475000,(-1 1 5 32 15 8 2 -1)
1969/12/31/18:00:11.497000,(-1 -2 -7 -2 4 2 -3 -3)
1969/12/31/18:00:11.497000,(3 1 -2 2 0 -4 0 1)
1969/12/31/18:00:11.498000,(-5 -4 -1 -18 -17 -12 -10 -5)
1969/12/31/18:00:11.498000,(-2 -2 -7 -14 -16 -7 -7 -6)
1969/12/31/18:00:11.511000,(6 6 2 21 13 9 12 7)
1969/12/31/18:00:11.511000,(-4 -10 -1 15 20 6 0 -4)
1969/12/31/18:00:11.519000,(0 1 -3 -21 0 -1 0 1)
1969/12/31/18:00:11.519000,(3 1 1 20 13 4 0 2)
1969/12/31/18:00:11.534000,(-8 -6 -2 -15 -16 -2 -2 -5)
1969/12/31/18:00:11.534000,(9 7 -12 -11 -15 -6 1 5)
1969/12/31/18:00:11.535000,(3 4 21 33 20 5 4 6)
1969/12/31/18:00:11.535000,(-11 -2 -7 -53 -26 -10 -1 -7)
1969/12/31/18:00:11.557000,(8 10 16 23 3 -5 -2 3)
1969/12/31/18:00:11.557000,(-3 -8 -15 -21 -14 -5 -3 -4)
1969/12/31/18:00:11.557000,(7 3 7 29 14 10 5 5)
1969/12/31/18:00:11.557000,(-6 -8 -13 -28 0 -2 -3 -6)
1969/12/31/18:00:11.571000,(0 -3 -7 -2 -15 -7 -6 -2)
1969/12/31/18:00:11.571000,(-3 2 10 7 10 1 -1 0)
1969/12/31/18:00:11.579000,(-3 -5 -10 -11 -11 -6 -4 -3)
1969/12/31/18:00:11.579000,(-5 5 26 24 13 1 -2 -5)
1969/12/31/18:00:11.594000,(9 -6 -29 -34 -6 4 8 10)
1969/12/31/18:00:11.594000,(-1 -4 -6 3 0 3 3 1)
1969/12/31/18:00:11.595000,(7 9 4 -27 -10 1 3 7)
1969/12/31/18:00:11.595000,(1 -4 -8 19 1 -2 -2 0)
1969/12/31/18:00:11.625000,(-3 7 10 6 17 4 -1 -3)
1969/12/31/18:00:11.625000,(7 3 0 13 -3 -1 0 3)
1969/12/31/18:00:11.626000,(-12 -11 -2 -1 4 -3 -6 -10)
1969/12/31/18:00:11.626000,(4 11 13 3 1 2 3 3)
1969/12/31/18:00:11.631000,(0 -5 -6 -12 -5 0 1 4)
1969/12/31/18:00:11.631000,(-4 -3 -5 -1 3 0 -1 -2)
1969/12/31/18:00:11.639000,(-7 -1 3 -5 -15 -6 -7 -6)
1969/12/31/18:00:11.639000,(-2 -2 -3 10 -3 -4 -5 -3)
1969/12/31/18:00:11.654000,(5 6 5 -5 5 11 10 8)
1969/12/31/18:00:11.654000,(-5 -2 9 6 16 5 1 -3)
1969/12/31/18:00:11.655000,(-6 -7 1 9 -2 -2 -4 -4)
1969/12/31/18:00:11.655000,(1 -1 -9 -11 -6 -3 0 4)
1969/12/31/18:00:11.676000,(5 0 -11 -28 -11 1 0 0)
1969/12/31/18:00:11.676000,(1 1 8 6 -8 -6 -2 -1)
1969/12/31/18:00:11.677000,(5 5 4 29 20 7 4 2)
1969/12/31/18:00:11.677000,(-1 -1 1 -19 -6 0 -4 -2)
1969/12/31/18:00:11.690000,(-5 -3 6 16 2 -6 -6 -5)
1969/12/31/18:00:11.690000,(-3 -2 -13 -12 -10 0 -3 -2)
1969/12/31/18:00:11.699000,(-2 -3 0 -10 -10 -7 -3 -3)
1969/12/31/18:00:11.699000,(0 0 4 21 4 2 1 1)
1969/12/31/18:00:11.714000,(-3 -5 -2 -14 5 2 -2 -4)
1969/12/31/18:00:11.714000,(-2 1 -2 2 -2 0 -2 -1)
1969/12/31/18:00:11.714000,(2 -1 -11 -10 -10 -3 2 2)
1969/12/31/18:00:11.714000,(0 -2 -7 -10 -5 0 1 0)
1969/12/31/18:00:11.736000,(-9 -6 7 11 13 -5 -6 -6)
1969/12/31/18:00:11.736000,(1 3 2 9 5 2 5 4)
1969/12/31/18:00:11.737000,(-4 -5 -4 -4 -3 -4 -3 -2)
1969/12/31/18:00:11.737000,(1 -1 -1 -6 -14 -3 1 0)
1969/12/31/18:00:11.767000,(-2 0 -2 1 4 2 1 2)
1969/12/31/18:00:11.767000,(5 4 6 -1 -3 1 2 3)
1969/12/31/18:00:11.768000,(-2 0 -2 8 17 3 -1 0)
1969/12/31/18:00:11.768000,(6 0 -9 -21 -4 1 4 4)
1969/12/31/18:00:11.774000,(1 2 6 36 12 3 1 0)
1969/12/31/18:00:11.774000,(1 -1 2 -6 8 3 2 1)
1969/12/31/18:00:11.775000,(3 1 3 10 -9 -2 -2 0)
1969/12/31/18:00:11.775000,(-4 -4 -5 -13 -15 -9 -2 -2)
1969/12/31/18:00:11.805000,(-1 0 -9 -23 -1 -3 -3 -1)
1969/12/31/18:00:11.805000,(-1 2 -2 -4 -3 -2 0 2)
1969/12/31/18:00:11.805000,(-1 1 3 1 -1 0 0 -1)
1969/12/31/18:00:11.805000,(2 1 -2 14 14 5 1 2)
1969/12/31/18:00:11.819000,(-1 0 -4 -17 -16 -3 -3 -3)
1969/12/31/18:00:11.819000,(-5 -4 -3 1 -8 -10 -7 -4)
1969/12/31/18:00:11.820000,(-1 1 1 -6 -1 4 3 0)
1969/12/31/18:00:11.820000,(-1 3 3 9 11 7 1 0)
1969/12/31/18:00:11.834000,(1 0 -1 1 1 2 2 1)
1969/12/31/18:00:11.834000,(3 1 -3 -22 -16 -2 -3 1)
1969/12/31/18:00:11.835000,(-1 -6 -1 16 17 3 0 -1)
1969/12/31/18:00:11.835000,(-1 -1 2 10 7 3 2 0)
1969/12/31/18:00:11.856000,(-6 -5 -4 -30 -35 -9 -3 -2)
1969/12/31/18:00:11.856000,(-3 -3 2 22 21 2 -1 -4)
1969/12/31/18:00:11.857000,(-1 0 5 12 5 4 2 0)
1969/12/31/18:00:11.857000,(0 -1 -1 1 7 1 -1 -2)
1969/12/31/18:00:11.880000,(1 1 0 5 -5 -4 -1 0)
1969/12/31/18:00:11.880000,(-4 -5 -6 -20 -15 -4 -4 -3)
1969/12/31/18:00:11.880000,(1 0 -4 -14 -13 -5 0 1)
1969/12/31/18:00:11.880000,(-1 -1 2 10 7 -1 -2 -2)
1969/12/31/18:00:11.894000,(0 -2 -2 -1 -2 -2 -1 -2)
1969/12/31/18:00:11.894000,(1 1 0 3 -1 1 4 3)
1969/12/31/18:00:11.895000,(1 1 -1 0 3 2 1 5)
1969/12/31/18:00:11.895000,(-1 -2 -1 -2 -4 0 0 -1)
1969/12/31/18:00:11.932000,(1 1 1 -1 0 -3 -1 0)
1969/12/31/18:00:11.932000,(-2 -3 3 8 6 0 -2 -4)
1969/12/31/18:00:11.933000,(-2 -2 -3 -2 -5 -1 -2 0)
1969/12/31/18:00:11.933000,(3 1 -2 -6 -2 -1 1 3)
1969/12/31/18:00:11.941000,(-2 0 2 3 4 3 -1 0)
1969/12/31/18:00:11.941000,(-4 0 1 6 2 -2 -2 -5)
1969/12/31/18:00:11.942000,(-1 0 -2 -12 -8 -2 1 -1)
1969/12/31/18:00:11.942000,(0 -3 -1 1 1 -1 -4 -5)
1969/12/31/18:00:11.954000,(0 -2 1 6 7 2 -2 0)
1969/12/31/18:00:11.954000,(-2 -2 0 -2 -3 0 0 -1)
1969/12/31/18:00:11.955000,(0 -2 -4 -7 -4 -1 0 0)
1969/12/31/18:00:11.955000,(0 1 -2 1 2 0 1 2)
1969/12/31/18:00:11.976000,(-3 -3 0 2 0 1 -2 -2)
1969/12/31/18:00:11.977000,(1 0 -1 -2 -2 -3 -1 0)
1969/12/31/18:00:11.977000,(-2 -3 -1 1 0 -2 0 -2)
1969/12/31/18:00:11.977000,(0 -1 -1 0 0 0 1 0)
1969/12/31/18:00:11.999000,(-2 -2 -2 0 -1 -1 -4 -3)
1969/12/31/18:00:12.000000,(2 0 -1 -1 2 1 0 1)
1969/12/31/18:00:12.000000,(-2 -1 1 0 1 -1 -4 -5)
1969/12/31/18:00:12.000000,(0 -1 -3 -2 -1 1 1 1)
1969/12/31/18:00:12.014000,(0 -2 0 -1 1 -1 3 1)
1969/12/31/18:00:12.014000,(-1 0 -1 0 0 0 -1 -2)
1969/12/31/18:00:12.015000,(2 1 -2 -2 -4 0 0 2)
1969/12/31/18:00:12.015000,(-2 -1 0 1 -1 0 -1 -2)
1969/12/31/18:00:12.037000,(2 1 1 0 0 1 1 0)
1969/12/31/18:00:12.037000,(-1 -2 -2 0 0 1 -2 -2)
1969/12/31/18:00:12.038000,(-2 -2 -2 -2 -2 -2 0 0)
1969/12/31/18:00:12.038000,(-1 -1 0 -2 1 1 0 0)
1969/12/31/18:00:12.059000,(-1 1 -1 2 1 0 0 -1)
1969/12/31/18:00:12.059000,(0 0 -1 -1 -1 0 1 0)
1969/12/31/18:00:12.060000,(0 -1 -1 -1 -1 -1 -3 -2)
1969/12/31/18:00:12.060000,(0 0 -1 0 -1 -1 1 1)
1969/12/31/18:00:12.074000,(-1 0 -1 2 0 -1 -2 0)
1969/12/31/18:00:12.074000,(1 -2 -1 -3 0 1 -1 2)
1969/12/31/18:00:12.075000,(1 0 0 -2 0 -2 0 1)
1969/12/31/18:00:12.075000,(-3 0 0 1 1 -1 -2 -1)
1969/12/31/18:00:12.097000,(0 -1 0 1 1 1 3 1)
1969/12/31/18:00:12.097000,(-1 1 -1 -1 -4 -2 0 -2)
1969/12/31/18:00:12.098000,(0 -2 -2 0 0 1 1 0)
1969/12/31/18:00:12.098000,(-1 0 -1 -2 -3 -2 -2 -3)
1969/12/31/18:00:12.120000,(0 0 -2 -1 -1 -1 0 0)
1969/12/31/18:00:12.120000,(0 -1 0 3 1 2 0 1)
1969/12/31/18:00:12.122000,(1 1 -1 -1 -2 1 1 2)
1969/12/31/18:00:12.122000,(-1 0 0 -1 1 -2 -2 0)
1969/12/31/18:00:12.133000,(-1 0 0 1 0 -2 -2 -2)
1969/12/31/18:00:12.133000,(-1 -1 0 -1 0 -3 0 0)
1969/12/31/18:00:12.142000,(-1 -2 1 0 -2 0 -2 -1)
1969/12/31/18:00:12.142000,(1 -1 -1 0 -2 -3 1 2)
1969/12/31/18:00:12.157000,(1 -2 0 0 0 1 0 1)
1969/12/31/18:00:12.157000,(-1 -1 -1 0 -1 -1 -2 -1)
1969/12/31/18:00:12.159000,(0 -1 -1 -1 -1 1 -2 0)
1969/12/31/18:00:12.159000,(-1 -1 0 -1 -1 -1 -2 1)
1969/12/31/18:00:12.180000,(-2 0 0 0 -2 -2 0 -1)
1969/12/31/18:00:12.180000,(0 1 -1 0 -1 -1 -1 -1)
1969/12/31/18:00:12.181000,(0 -1 -2 0 -2 1 0 -2)
1969/12/31/18:00:12.181000,(0 -2 -2 0 0 1 2 -1)
1969/12/31/18:00:12.193000,(-1 -2 1 0 0 0 -2 0)
1969/12/31/18:00:12.193000,(-2 -1 -1 -1 1 0 -1 -1)
1969/12/31/18:00:12.202000,(-2 -1 -2 -2 -1 -2 -1 -1)
1969/12/31/18:00:12.202000,(0 0 -1 -2 0 0 0 -2)
1969/12/31/18:00:12.217000,(1 -1 0 0 0 1 0 -1)
1969/12/31/18:00:12.217000,(-1 0 -1 1 -2 -2 -1 -1)
1969/12/31/18:00:12.219000,(-1 -1 0 0 0 -1 0 -1)
1969/12/31/18:00:12.219000,(-1 -1 -2 1 -2 0 -3 -2)
1969/12/31/18:00:12.239000,(1 -1 -3 -3 -1 -1 0 -1)
1969/12/31/18:00:12.239000,(-2 -1 0 1 1 0 2 0)
1969/12/31/18:00:12.255000,(-2 -1 -2 -2 0 -1 -1 -1)
1969/12/31/18:00:12.255000,(0 -1 1 -1 0 0 -1 1)
1969/12/31/18:00:12.256000,(1 2 0 0 0 0 4 3)
1969/12/31/18:00:12.256000,(1 0 0 -2 -1 0 1 2)
1969/12/31/18:00:12.262000,(0 -1 -2 0 0 -2 -1 -2)
1969/12/31/18:00:12.262000,(-1 -1 0 0 -1 0 1 -1)
1969/12/31/18:00:12.277000,(-2 -1 0 -2 -2 -1 -1 -1)
1969/12/31/18:00:12.277000,(-1 -3 -1 1 -1 -2 -1 -2)
1969/12/31/18:00:12.279000,(-1 1 0 -1 0 2 3 0)
1969/12/31/18:00:12.279000,(-1 -2 -2 0 0 0 -1 -1)
1969/12/31/18:00:12.300000,(1 -3 -2 -1 1 -1 -1 0)
1969/12/31/18:00:12.300000,(1 1 -2 -2 -1 -1 0 1)
1969/12/31/18:00:12.301000,(1 0 0 -1 -2 -1 -1 -2)
1969/12/31/18:00:12.301000,(-2 1 -1 -2 -2 -1 0 1)
1969/12/31/18:00:12.313000,(0 1 1 1 0 -1 0 -2)
1969/12/31/18:00:12.313000,(0 -2 -1 -1 0 0 0 2)
1969/12/31/18:00:12.322000,(-1 0 -2 1 1 0 0 1)
1969/12/31/18:00:12.322000,(0 0 0 -1 -1 -1 0 -1)
1969/12/31/18:00:12.337000,(0 -1 -1 0 -2 -1 -1 -1)
1969/12/31/18:00:12.337000,(-2 0 1 0 0 0 -3 -2)
1969/12/31/18:00:12.339000,(1 1 0 -3 -1 -1 3 2)
1969/12/31/18:00:12.339000,(0 -2 1 1 0 0 1 0)
1969/12/31/18:00:12.359000,(-1 0 2 2 0 0 -1 -2)
1969/12/31/18:00:12.359000,(-2 -1 0 1 1 0 0 -2)
1969/12/31/18:00:12.361000,(-2 -1 -1 -2 0 -2 -2 -1)
1969/12/31/18:00:12.361000,(-2 0 0 -1 -1 -1 -1 0)
1969/12/31/18:00:12.373000,(-2 -1 -1 -1 -2 -1 -3 -1)
1969/12/31/18:00:12.373000,(0 0 0 -1 -1 0 -1 0)
1969/12/31/18:00:12.382000,(-1 0 2 0 0 1 -2 0)
1969/12/31/18:00:12.382000,(0 0 -1 0 1 -1 1 2)
1969/12/31/18:00:12.382000,(0 1 2 1 1 0 -3 -1)
1969/12/31/18:00:12.382000,(-1 0 -1 0 0 -1 0 -1)
1969/12/31/18:00:12.383000,(-2 0 -1 1 -1 0 -2 -1)
1969/12/31/18:00:12.383000,(-2 -1 -1 -2 0 0 -3 -3)
1969/12/31/18:00:12.395000,(1 -1 -1 -1 -1 -2 1 0)
1969/12/31/18:00:12.395000,(-1 -1 -1 -3 -1 0 -2 -1)
1969/12/31/18:00:12.404000,(1 0 0 0 1 0 0 2)
1969/12/31/18:00:12.404000,(1 1 1 2 -1 0 0 1)
1969/12/31/18:00:12.420000,(0 -2 -2 -3 -3 1 0 1)
1969/12/31/18:00:12.420000,(-1 -1 0 -1 0 0 -1 -1)
1969/12/31/18:00:12.421000,(-2 -2 0 -1 -1 -3 -4 -3)
1969/12/31/18:00:12.421000,(1 1 -1 1 1 3 3 3)
1969/12/31/18:00:12.441000,(0 1 -1 -2 0 0 -2 -1)
1969/12/31/18:00:12.442000,(0 1 -2 -3 -3 -2 -2 -2)
1969/12/31/18:00:12.443000,(-1 -1 -2 0 -1 -1 0 -1)
1969/12/31/18:00:12.443000,(-1 -1 -1 0 1 0 0 1)
1969/12/31/18:00:12.464000,(-1 0 0 0 -1 -1 1 0)
1969/12/31/18:00:12.464000,(0 -1 1 1 2 1 -1 1)
1969/12/31/18:00:12.466000,(1 1 0 -1 -1 -1 0 0)
1969/12/31/18:00:12.466000,(-1 -1 -2 -2 -4 -1 0 -3)
1969/12/31/18:00:12.479000,(-1 -2 -1 1 4 2 0 1)
1969/12/31/18:00:12.479000,(-1 2 1 0 0 -1 -3 -3)
1969/12/31/18:00:12.481000,(-1 0 -1 -1 0 -2 0 0)
1969/12/31/18:00:12.481000,(-1 1 1 -1 -1 -1 -1 -1)
1969/12/31/18:00:12.502000,(-2 0 -1 -1 -1 0 0 -3)
1969/12/31/18:00:12.502000,(-1 -2 1 -2 -1 1 1 1)
1969/12/31/18:00:12.504000,(1 0 -4 -1 -1 -2 -1 0)
1969/12/31/18:00:12.504000,(-1 -2 -2 0 1 -1 -1 -2)
1969/12/31/18:00:12.515000,(-1 2 1 -2 -1 -2 -2 -2)
1969/12/31/18:00:12.515000,(1 -2 0 2 2 2 2 0)
1969/12/31/18:00:12.541000,(-3 -2 -1 -1 -1 2 -2 -2)
1969/12/31/18:00:12.541000,(-1 0 -3 -3 -3 -2 -1 1)
1969/12/31/18:00:12.542000,(2 -1 -4 0 -1 -1 2 1)
1969/12/31/18:00:12.542000,(-3 0 -1 -1 -3 -2 1 0)
1969/12/31/18:00:12.545000,(0 3 5 2 1 1 2 0)
1969/12/31/18:00:12.545000,(-4 -2 -2 3 3 -1 -5 -4)
1969/12/31/18:00:12.561000,(-6 -6 -4 -8 -4 -1 -3 -3)
1969/12/31/18:00:12.561000,(6 2 3 -2 -1 -1 1 3)
1969/12/31/18:00:12.569000,(2 4 1 1 -4 -2 0 -1)
1969/12/31/18:00:12.569000,(3 0 -8 1 7 3 3 4)
1969/12/31/18:00:12.575000,(-3 -3 2 -5 -3 -1 -1 -3)
1969/12/31/18:00:12.575000,(-4 -2 -3 1 -1 -3 -2 -3)
1969/12/31/18:00:12.590000,(-1 0 4 0 0 2 2 1)
1969/12/31/18:00:12.590000,(-2 2 1 -3 -5 -4 -1 -1)
1969/12/31/18:00:12.599000,(4 6 6 0 -7 -2 1 3)
1969/12/31/18:00:12.599000,(3 2 -7 -2 4 4 3 2)
1969/12/31/18:00:12.601000,(-5 -6 -5 -2 2 -3 -5 -3)
1969/12/31/18:00:12.601000,(-4 -4 3 2 -4 -4 -1 -3)
1969/12/31/18:00:12.629000,(-5 -3 1 -3 -7 -5 -1 -3)
1969/12/31/18:00:12.629000,(5 8 -5 -4 -15 -3 1 -1)
1969/12/31/18:00:12.630000,(-4 -7 -2 -6 17 2 -2 -2)
1969/12/31/18:00:12.630000,(-4 2 10 -1 -6 2 4 -1)
1969/12/31/18:00:12.635000,(6 2 -12 11 13 4 1 4)
1969/12/31/18:00:12.635000,(-1 1 22 -13 -21 -10 -4 -3)
1969/12/31/18:00:12.644000,(2 -2 -24 15 20 4 4 0)
1969/12/31/18:00:12.644000,(5 -4 -9 -35 -7 6 3 2)
1969/12/31/18:00:12.658000,(-18 -11 -2 -17 -29 -11 -11 -12)
1969/12/31/18:00:12.658000,(-6 -3 19 38 37 4 -2 -3)
1969/12/31/18:00:12.665000,(-5 2 7 23 -15 -12 -5 -4)
1969/12/31/18:00:12.665000,(8 8 11 10 3 -2 1 3)
1969/12/31/18:00:12.681000,(0 -5 -26 -24 1 0 -3 1)
1969/12/31/18:00:12.681000,(-7 -14 -23 -43 -9 9 3 -1)
1969/12/31/18:00:12.683000,(1 4 22 18 6 3 -2 0)
1969/12/31/18:00:12.683000,(-6 -2 -2 -21 -49 -19 -7 -6)
1969/12/31/18:00:12.695000,(11 5 3 37 24 5 3 8)
1969/12/31/18:00:12.695000,(-5 10 7 24 27 0 -1 -7)
1969/12/31/18:00:12.704000,(15 7 -5 0 21 7 3 9)
1969/12/31/18:00:12.704000,(-8 -10 -1 -7 -16 -3 -3 -5)
1969/12/31/18:00:12.718000,(-5 -10 -23 -36 -36 -9 -3 -3)
1969/12/31/18:00:12.718000,(-8 -12 -10 -32 -79 -16 -3 -3)
1969/12/31/18:00:12.725000,(-3 2 2 13 86 15 2 0)
1969/12/31/18:00:12.725000,(2 4 0 -40 11 1 -7 -1)
1969/12/31/18:00:12.742000,(15 20 31 118 53 18 9 7)
1969/12/31/18:00:12.742000,(7 0 -3 17 -8 -5 -1 2)
1969/12/31/18:00:12.744000,(-13 -16 -25 -88 -77 -17 -9 -9)
1969/12/31/18:00:12.744000,(0 0 12 31 -28 -19 -2 -1)
1969/12/31/18:00:12.755000,(-3 6 12 -24 22 4 -2 -3)
1969/12/31/18:00:12.755000,(0 -2 -1 27 36 9 1 2)
1969/12/31/18:00:12.764000,(-4 -9 -7 -81 -26 12 14 0)
1969/12/31/18:00:12.764000,(12 14 7 67 81 25 2 8)
1969/12/31/18:00:12.778000,(-7 -1 0 -15 -33 -13 -4 -7)
1969/12/31/18:00:12.778000,(9 2 -19 -20 -27 -22 -6 0)
1969/12/31/18:00:12.793000,(-1 -2 26 48 13 7 1 0)
1969/12/31/18:00:12.793000,(-8 -5 -11 -33 -41 -11 1 -4)
1969/12/31/18:00:12.802000,(8 2 3 -20 -13 15 9 10)
1969/12/31/18:00:12.802000,(3 10 32 76 108 40 9 5)
1969/12/31/18:00:12.803000,(2 -5 -30 -18 -42 -13 0 0)
1969/12/31/18:00:12.803000,(7 7 2 -54 -49 -7 0 3)
1969/12/31/18:00:12.815000,(-8 0 16 68 19 -16 -7 -9)
1969/12/31/18:00:12.815000,(1 -4 -30 -128 -30 3 4 2)
1969/12/31/18:00:12.830000,(-6 -8 26 127 41 6 -6 -2)
1969/12/31/18:00:12.830000,(-7 -3 -16 27 11 3 1 -4)
1969/12/31/18:00:12.838000,(2 -3 -6 -128 -60 -6 1 4)
1969/12/31/18:00:12.838000,(-3 -1 0 74 -15 -11 -5 -4)
1969/12/31/18:00:12.845000,(-1 -6 -10 -44 -12 -11 -8 -3)
1969/12/31/18:00:12.845000,(2 -3 -8 -34 -56 -3 3 1)
1969/12/31/18:00:12.861000,(2 9 25 82 110 24 3 2)
1969/12/31/18:00:12.861000,(4 -3 -22 -7 -31 -7 1 2)
1969/12/31/18:00:12.877000,(-2 1 11 -10 -24 -2 0 -1)
1969/12/31/18:00:12.877000,(-5 -8 -6 14 39 4 -1 -3)
1969/12/31/18:00:12.884000,(-3 -4 -13 -49 -38 -8 -1 -2)
1969/12/31/18:00:12.884000,(-3 1 6 8 8 -1 -3 -3)
1969/12/31/18:00:12.885000,(3 6 -3 -15 -14 -2 1 3)
1969/12/31/18:00:12.886000,(-1 -2 2 12 15 5 1 -1)
1969/12/31/18:00:12.907000,(-2 -4 -11 -7 1 -1 0 -2)
1969/12/31/18:00:12.907000,(-2 -1 4 -25 -16 -7 -2 -1)
1969/12/31/18:00:12.908000,(0 4 6 18 -4 -2 1 1)
1969/12/31/18:00:12.908000,(-2 1 13 32 36 9 1 -2)
1969/12/31/18:00:12.922000,(1 -5 -9 9 -14 -2 -1 1)
1969/12/31/18:00:12.922000,(0 -3 0 -23 -2 0 0 1)
1969/12/31/18:00:12.923000,(2 3 -3 -9 -10 -3 0 -1)
1969/12/31/18:00:12.923000,(5 -1 -1 10 14 3 0 3)
1969/12/31/18:00:12.945000,(-6 -7 -2 -2 -7 -4 -3 -7)
1969/12/31/18:00:12.945000,(0 1 4 -5 -9 0 -2 0)
1969/12/31/18:00:12.947000,(4 9 4 5 10 7 4 0)
1969/12/31/18:00:12.947000,(1 0 -4 11 9 -1 -4 -2)
1969/12/31/18:00:12.958000,(5 -1 -4 -8 -10 -3 2 8)
1969/12/31/18:00:12.958000,(3 -1 3 4 3 -4 -2 3)
1969/12/31/18:00:12.967000,(-24 -9 5 18 9 8 -1 -20)
1969/12/31/18:00:12.967000,(10 7 -6 -17 -5 -4 -2 1)
1969/12/31/18:00:12.982000,(3 2 2 15 -1 2 0 0)
1969/12/31/18:00:12.982000,(-3 -6 -2 8 3 1 1 0)
1969/12/31/18:00:12.983000,(3 -4 -6 -8 1 -6 -1 7)
1969/12/31/18:00:12.983000,(1 3 3 15 12 6 7 2)
1969/12/31/18:00:13.004000,(5 9 3 7 3 -2 -5 0)
1969/12/31/18:00:13.004000,(10 -3 1 4 4 1 1 5)
1969/12/31/18:00:13.005000,(-20 -6 -21 -18 -4 -4 -3 -18)
1969/12/31/18:00:13.006000,(-13 -10 -4 -71 -45 -9 -5 -4)
1969/12/31/18:00:13.018000,(-1 2 20 99 54 17 7 4)
1969/12/31/18:00:13.018000,(-7 -4 1 8 27 3 -2 -3)
1969/12/31/18:00:13.027000,(10 5 3 2 -3 3 4 9)
1969/12/31/18:00:13.027000,(-4 -7 -9 -8 -1 -7 -5 -1)
1969/12/31/18:00:13.042000,(-4 -7 -12 -34 -28 -12 -6 -6)
1969/12/31/18:00:13.042000,(-31 -8 2 -4 -10 2 3 -7)
1969/12/31/18:00:13.044000,(56 34 8 1 7 1 4 18)
1969/12/31/18:00:13.044000,(-10 -11 -4 12 5 -2 -6 -8)
1969/12/31/18:00:13.064000,(-12 -17 -4 -17 -12 -4 -4 0)
1969/12/31/18:00:13.064000,(32 31 16 18 13 15 22 25)
1969/12/31/18:00:13.066000,(-23 -15 -6 -15 -15 -12 -11 -12)
1969/12/31/18:00:13.066000,(7 -4 -6 14 4 -2 -5 1)
1969/12/31/18:00:13.078000,(5 4 5 -6 2 3 1 5)
1969/12/31/18:00:13.078000,(-15 -11 -6 -14 -9 -7 -10 -17)
1969/12/31/18:00:13.087000,(3 -6 -3 -3 -5 0 5 5)
1969/12/31/18:00:13.087000,(14 10 5 3 -14 2 7 13)
1969/12/31/18:00:13.101000,(-6 -13 -22 -36 5 1 6 3)
1969/12/31/18:00:13.101000,(0 5 13 39 1 2 0 -2)
1969/12/31/18:00:13.103000,(-13 0 22 64 38 10 -2 -9)
1969/12/31/18:00:13.103000,(-1 -3 7 20 16 5 10 17)
1969/12/31/18:00:13.124000,(52 38 -4 -16 -17 2 6 8)
1969/12/31/18:00:13.124000,(-41 -34 -14 -51 -28 -13 -15 -27)
1969/12/31/18:00:13.126000,(2 16 -1 -17 -17 -8 -15 -5)
1969/12/31/18:00:13.126000,(-37 -32 -9 -3 2 6 2 -33)
1969/12/31/18:00:13.138000,(36 22 17 1 4 8 14 37)
1969/12/31/18:00:13.138000,(37 8 -26 -15 -15 -30 -39 1)
1969/12/31/18:00:13.147000,(-79 -73 -9 -1 -6 2 4 -17)
1969/12/31/18:00:13.147000,(58 46 9 -18 8 4 9 25)
1969/12/31/18:00:13.162000,(-28 -10 -33 -63 -43 -21 -20 -35)
1969/12/31/18:00:13.162000,(-11 1 34 84 24 23 30 -2)
1969/12/31/18:00:13.163000,(29 21 13 14 12 -4 -5 26)
1969/12/31/18:00:13.163000,(-25 -9 14 88 47 8 1 -10)
1969/12/31/18:00:13.184000,(-20 -14 9 17 26 10 8 -7)
1969/12/31/18:00:13.184000,(-2 0 -12 -30 -4 1 5 1)
1969/12/31/18:00:13.186000,(30 13 -8 -55 -21 5 12 22)
1969/12/31/18:00:13.186000,(-61 -39 -13 -15 -15 2 6 -20)
1969/12/31/18:00:13.198000,(42 24 16 22 7 1 4 22)
1969/12/31/18:00:13.198000,(-22 -17 -19 -33 -22 -24 -26 -22)
1969/12/31/18:00:13.207000,(66 39 -5 -17 -10 -4 0 10)
1969/12/31/18:00:13.207000,(29 11 -5 -8 -4 1 1 15)
1969/12/31/18:00:13.222000,(-29 -25 -10 -3 -8 -8 -16 -22)
1969/12/31/18:00:13.222000,(-43 -24 -5 -31 -12 6 10 -23)
1969/12/31/18:00:13.223000,(27 13 -24 -61 -57 -9 0 28)
1969/12/31/18:00:13.223000,(-2 8 36 88 61 1 -7 -7)
1969/12/31/18:00:13.244000,(-36 -17 32 96 49 11 -1 -16)
1969/12/31/18:00:13.244000,(33 23 8 -26 22 15 13 24)
1969/12/31/18:00:13.246000,(-36 -18 -8 -16 -3 -7 -7 -23)
1969/12/31/18:00:13.246000,(8 7 -6 -38 -27 -4 -3 1)
1969/12/31/18:00:13.258000,(-20 -18 -11 -17 -17 -6 -1 -1)
1969/12/31/18:00:13.258000,(-3 -19 -8 -25 -6 -5 -2 -3)
1969/12/31/18:00:13.267000,(1 30 4 4 6 13 10 1)
1969/12/31/18:00:13.267000,(-3 -5 -28 -43 -30 -19 -16 -10)
1969/12/31/18:00:13.283000,(-49 -50 7 4 1 -4 -9 -24)
1969/12/31/18:00:13.283000,(76 68 3 17 8 1 -6 15)
1969/12/31/18:00:13.285000,(-27 -38 -10 5 -4 -11 -13 -21)
1969/12/31/18:00:13.285000,(-16 -15 -5 -13 -9 -5 -9 -13)
1969/12/31/18:00:13.304000,(22 28 -3 -41 -22 0 9 14)
1969/12/31/18:00:13.304000,(-19 -24 10 42 2 7 11 5)
1969/12/31/18:00:13.306000,(-7 3 32 111 65 15 6 -4)
1969/12/31/18:00:13.306000,(16 18 11 10 21 7 -2 2)
1969/12/31/18:00:13.318000,(-5 -17 -43 -89 -62 -19 -9 -7)
1969/12/31/18:00:13.318000,(-13 -9 3 41 -3 0 3 6)
1969/12/31/18:00:13.327000,(-2 -4 10 25 27 4 1 -7)
1969/12/31/18:00:13.327000,(-9 -2 -7 1 4 1 7 1)
1969/12/31/18:00:13.341000,(91 82 33 4 12 15 16 47)
1969/12/31/18:00:13.341000,(-81 -59 -17 -27 -20 -16 -23 -48)
1969/12/31/18:00:13.348000,(87 74 21 0 5 26 45 69)
1969/12/31/18:00:13.348000,(-34 -36 -27 -44 -27 -29 -48 -37)
1969/12/31/18:00:13.364000,(-6 -7 -10 -10 -5 3 7 1)
1969/12/31/18:00:13.364000,(62 41 18 30 18 7 13 33)
1969/12/31/18:00:13.366000,(-41 -34 -9 -4 -2 -9 -17 -27)
1969/12/31/18:00:13.366000,(6 8 6 -13 -9 7 16 13)
1969/12/31/18:00:13.378000,(-21 -1 2 33 13 -1 -3 -9)
1969/12/31/18:00:13.378000,(-9 -3 -23 -111 -59 -19 -19 -13)
1969/12/31/18:00:13.387000,(-25 -30 -33 -46 -62 -27 -9 -14)
1969/12/31/18:00:13.387000,(26 25 30 96 56 20 16 18)
1969/12/31/18:00:13.402000,(-22 -13 35 126 107 38 9 -10)
1969/12/31/18:00:13.402000,(-11 -4 17 30 58 27 12 4)
1969/12/31/18:00:13.408000,(13 19 -11 -69 -36 -13 -8 1)
1969/12/31/18:00:13.408000,(-42 -48 -27 -80 -64 -22 -12 -23)
1969/12/31/18:00:13.424000,(6 -4 -22 -33 -34 -15 8 12)
1969/12/31/18:00:13.424000,(68 68 19 7 8 7 11 30)
1969/12/31/18:00:13.426000,(-28 -50 -15 -7 -8 -13 -21 -20)
1969/12/31/18:00:13.426000,(12 22 -1 9 4 6 11 5)
1969/12/31/18:00:13.438000,(13 25 7 -7 -2 -6 -16 -6)
1969/12/31/18:00:13.438000,(-19 -16 -12 -7 -8 -7 -1 -6)
1969/12/31/18:00:13.447000,(10 7 4 -40 -17 2 5 0)
1969/12/31/18:00:13.447000,(19 12 10 48 20 7 9 15)
1969/12/31/18:00:13.469000,(-5 -7 2 5 12 8 7 1)
1969/12/31/18:00:13.469000,(3 -8 -48 -79 -57 -22 -8 1)
1969/12/31/18:00:13.471000,(-5 6 28 127 15 3 0 -3)
1969/12/31/18:00:13.471000,(-23 -5 44 87 85 27 10 1)
1969/12/31/18:00:13.484000,(5 2 3 14 19 5 -7 -6)
1969/12/31/18:00:13.484000,(-11 -9 2 -9 9 -2 -8 -10)
1969/12/31/18:00:13.486000,(-16 -15 -22 -74 -24 -3 1 -5)
1969/12/31/18:00:13.486000,(26 6 -22 -79 -30 -16 -7 12)
1969/12/31/18:00:13.498000,(16 14 -2 -15 -53 -10 5 12)
1969/12/31/18:00:13.498000,(-19 -21 -5 -22 16 2 -3 -10)
1969/12/31/18:00:13.507000,(19 22 5 40 24 7 10 15)
1969/12/31/18:00:13.507000,(-75 -72 -10 6 2 -6 -18 -52)
1969/12/31/18:00:13.521000,(69 68 34 -12 29 39 61 72)
1969/12/31/18:00:13.521000,(-42 -37 -1 53 4 -3 -4 -24)
1969/12/31/18:00:13.528000,(-1 10 -4 -66 -16 -6 -1 -6)
1969/12/31/18:00:13.528000,(-11 -17 -19 6 -17 -8 -5 -3)
1969/12/31/18:00:13.552000,(-21 -23 6 28 39 5 -1 -8)
1969/12/31/18:00:13.552000,(30 26 26 74 5 15 13 22)
1969/12/31/18:00:13.553000,(-13 -15 5 7 24 2 -2 -6)
1969/12/31/18:00:13.553000,(37 28 -43 -111 -123 -23 0 21)
1969/12/31/18:00:13.558000,(-33 -36 -20 56 13 -23 -23 -30)
1969/12/31/18:00:13.558000,(10 23 45 115 99 30 14 10)
1969/12/31/18:00:13.566000,(-16 -10 9 34 43 15 -9 -14)
1969/12/31/18:00:13.566000,(23 21 -7 -87 -17 3 7 12)
1969/12/31/18:00:13.581000,(-20 -17 -24 -48 -69 -27 -21 -22)
1969/12/31/18:00:13.581000,(-23 -24 -10 -16 -14 -11 -5 -14)
1969/12/31/18:00:13.588000,(21 16 8 -1 4 3 8 14)
1969/12/31/18:00:13.588000,(28 18 6 4 6 3 1 18)
1969/12/31/18:00:13.604000,(-17 -19 -14 -31 -20 -8 -9 -12)
1969/12/31/18:00:13.604000,(8 2 -4 -9 -5 -3 -3 4)
1969/12/31/18:00:13.606000,(-14 -10 -12 -28 -21 -3 2 -3)
1969/12/31/18:00:13.606000,(16 16 10 17 22 2 5 10)
1969/12/31/18:00:13.618000,(-17 -3 1 28 -17 -8 -15 -24)
1969/12/31/18:00:13.618000,(28 19 -5 -51 -28 -6 -2 9)
1969/12/31/18:00:13.626000,(-3 -2 -1 22 27 4 -1 -1)
1969/12/31/18:00:13.626000,(-13 -9 9 52 30 9 2 -7)
1969/12/31/18:00:13.641000,(-23 -16 5 -4 7 -2 -10 -15)
1969/12/31/18:00:13.641000,(1 5 -6 -32 -2 1 2 -5)
1969/12/31/18:00:13.648000,(1 -5 -19 -49 -53 -14 -4 4)
1969/12/31/18:00:13.648000,(9 16 25 90 33 3 4 8)
1969/12/31/18:00:13.664000,(4 -4 -1 -2 19 11 9 3)
1969/12/31/18:00:13.664000,(-22 -11 -1 16 6 2 -8 -10)
1969/12/31/18:00:13.666000,(36 24 -1 -42 -1 2 11 26)
1969/12/31/18:00:13.666000,(-16 -10 -25 -47 -42 -16 -18 -21)
1969/12/31/18:00:13.678000,(-16 -9 -2 16 -22 -9 -5 -11)
1969/12/31/18:00:13.678000,(-12 -13 -11 -38 14 2 1 -1)
1969/12/31/18:00:13.686000,(-4 1 14 93 26 8 2 -4)
1969/12/31/18:00:13.686000,(-10 -3 5 -17 3 -3 -6 -5)
1969/12/31/18:00:13.701000,(11 1 1 4 -15 -1 1 6)
1969/12/31/18:00:13.701000,(2 1 -7 -67 -26 -13 -8 -2)
1969/12/31/18:00:13.708000,(-25 -20 -8 24 -11 -9 -11 -20)
1969/12/31/18:00:13.708000,(-2 5 24 54 36 14 10 2)
1969/12/31/18:00:13.724000,(0 -3 -12 -47 7 4 -1 2)
1969/12/31/18:00:13.724000,(9 3 -8 29 -15 -4 0 4)
1969/12/31/18:00:13.726000,(-11 -4 0 -3 -10 -6 -4 -7)
1969/12/31/18:00:13.726000,(16 6 2 3 30 8 13 10)
1969/12/31/18:00:13.738000,(-23 -12 -2 10 -28 -4 -8 -9)
1969/12/31/18:00:13.738000,(-17 -14 -17 -38 -13 -14 -15 -15)
1969/12/31/18:00:13.747000,(-12 -11 -3 -11 -8 -5 -3 -4)
1969/12/31/18:00:13.747000,(7 7 -1 -4 1 7 2 3)
1969/12/31/18:00:13.761000,(0 5 5 -5 27 5 4 0)
1969/12/31/18:00:13.761000,(-4 -5 7 45 4 7 10 6)
1969/12/31/18:00:13.768000,(4 -3 -8 -34 -3 -4 -8 -7)
1969/12/31/18:00:13.768000,(0 2 -10 -72 -37 -9 1 3)
1969/12/31/18:00:13.784000,(11 3 -9 15 -2 -8 -4 5)
1969/12/31/18:00:13.784000,(-2 5 29 83 21 12 7 4)
1969/12/31/18:00:13.785000,(-11 -5 16 50 28 13 3 -5)
1969/12/31/18:00:13.785000,(10 8 -7 -38 -4 4 4 7)
1969/12/31/18:00:13.798000,(6 3 -16 -24 -15 -11 -4 2)
1969/12/31/18:00:13.798000,(-5 -7 2 25 0 -9 -8 -11)
1969/12/31/18:00:13.807000,(47 34 23 25 33 25 34 52)
1969/12/31/18:00:13.807000,(-28 -28 -11 -6 -15 -8 -11 -23)
1969/12/31/18:00:13.822000,(-43 -48 -21 -32 -27 -12 -14 -23)
1969/12/31/18:00:13.822000,(34 37 0 -25 -8 5 7 16)
1969/12/31/18:00:13.823000,(3 5 1 3 8 -5 -10 -11)
1969/12/31/18:00:13.823000,(-2 1 2 10 -15 3 1 0)
1969/12/31/18:00:13.844000,(11 4 7 6 1 4 10 11)
1969/12/31/18:00:13.844000,(-19 -13 8 53 34 2 -5 -7)
1969/12/31/18:00:13.846000,(15 6 -6 -21 -1 -2 -6 -1)
1969/12/31/18:00:13.846000,(30 16 10 19 -30 -4 -1 9)
1969/12/31/18:00:13.867000,(0 10 0 -8 16 -2 -6 -15)
1969/12/31/18:00:13.867000,(-7 -4 -6 -22 -8 -1 -2 -5)
1969/12/31/18:00:13.868000,(-13 -6 -7 6 -7 -5 -3 -7)
1969/12/31/18:00:13.868000,(-21 -22 -1 -6 20 3 2 -2)
1969/12/31/18:00:13.882000,(51 41 -1 7 -1 6 13 26)
1969/12/31/18:00:13.882000,(-3 8 -2 -15 -15 -2 -4 -6)
1969/12/31/18:00:13.883000,(-24 -26 -9 4 25 -3 -11 -21)
1969/12/31/18:00:13.883000,(-2 2 -2 -38 -42 -6 3 7)
1969/12/31/18:00:13.904000,(11 1 0 -2 13 -3 -4 12)
1969/12/31/18:00:13.904000,(-12 -12 -6 -8 6 1 -2 -7)
1969/12/31/18:00:13.906000,(-8 -4 1 6 -14 -7 -4 -4)
1969/12/31/18:00:13.906000,(4 8 8 28 -8 -1 0 2)
1969/12/31/18:00:13.927000,(-10 -4 6 3 3 2 0 -7)
1969/12/31/18:00:13.927000,(6 0 6 28 26 8 2 6)
1969/12/31/18:00:13.928000,(-17 -9 -3 5 14 9 2 -4)
1969/12/31/18:00:13.928000,(-2 -6 8 11 29 14 15 8)
1969/12/31/18:00:13.942000,(-9 -7 -13 -30 -20 -11 -11 -11)
1969/12/31/18:00:13.942000,(-7 0 -18 -38 -35 -14 -2 -3)
1969/12/31/18:00:13.943000,(7 14 -4 -38 -20 -6 -7 -10)
1969/12/31/18:00:13.943000,(1 -3 -4 20 11 5 6 13)
1969/12/31/18:00:13.964000,(9 -1 0 -6 20 -2 -8 -1)
1969/12/31/18:00:13.964000,(-28 -60 -8 17 -22 -7 -6 -12)
1969/12/31/18:00:13.966000,(6 42 9 9 0 3 5 0)
1969/12/31/18:00:13.966000,(27 8 -15 -54 -6 0 4 18)
1969/12/31/18:00:13.987000,(-3 2 7 43 14 4 -1 -3)
1969/12/31/18:00:13.987000,(2 -11 9 7 18 6 4 7)
1969/12/31/18:00:13.988000,(-12 -16 -19 -43 -21 -8 -8 -9)
1969/12/31/18:00:13.988000,(32 31 29 76 30 7 8 14)
1969/12/31/18:00:14.001000,(-15 -9 2 -4 -4 -3 -5 -16)
1969/12/31/18:00:14.001000,(34 21 1 -13 -10 -1 9 25)
1969/12/31/18:00:14.008000,(4 -5 -4 -9 -2 0 -4 0)
1969/12/31/18:00:14.008000,(-3 11 -6 -18 -6 -4 -6 -13)
1969/12/31/18:00:14.024000,(-48 -49 -11 -20 -12 -1 -1 -13)
1969/12/31/18:00:14.024000,(41 48 18 29 15 10 20 25)
1969/12/31/18:00:14.026000,(-2 -17 -3 -4 1 -8 -9 -8)
1969/12/31/18:00:14.026000,(-7 -7 -5 2 0 -5 -8 -8)
1969/12/31/18:00:14.047000,(-12 -11 4 21 6 7 7 0)
1969/12/31/18:00:14.047000,(44 42 4 -43 -8 8 16 34)
1969/12/31/18:00:14.048000,(-12 -14 3 28 -4 -2 -3 -4)
1969/12/31/18:00:14.048000,(-8 -7 -1 20 15 -5 -10 -13)
1969/12/31/18:00:14.061000,(-7 4 7 1 6 6 6 0)
1969/12/31/18:00:14.061000,(4 2 3 -2 10 7 15 26)
1969/12/31/18:00:14.068000,(-2 1 -6 -12 -11 0 3 3)
1969/12/31/18:00:14.068000,(-39 -60 -18 -46 5 -7 -9 -11)
1969/12/31/18:00:14.084000,(87 110 14 20 -24 4 9 30)
1969/12/31/18:00:14.084000,(-26 -19 -4 4 -2 -10 -12 -22)
1969/12/31/18:00:14.086000,(29 6 12 25 39 23 25 36)
1969/12/31/18:00:14.086000,(-22 -25 -7 15 -13 -6 -12 -25)
1969/12/31/18:00:14.106000,(10 11 -1 -14 5 -2 2 11)
1969/12/31/18:00:14.106000,(-21 -25 -14 -24 -29 -13 -14 -23)
1969/12/31/18:00:14.108000,(-13 -3 8 31 9 -5 -11 -16)
1969/12/31/18:00:14.108000,(1 18 4 1 8 4 6 1)
1969/12/31/18:00:14.121000,(11 -16 -7 -10 -8 -3 5 12)
1969/12/31/18:00:14.121000,(10 41 6 10 14 4 5 7)
1969/12/31/18:00:14.128000,(-24 -32 -10 -21 -15 -6 -6 -12)
1969/12/31/18:00:14.128000,(-1 -1 -12 -43 -23 -4 -2 -1)
1969/12/31/18:00:14.143000,(-40 -27 6 24 7 -2 -4 -17)
1969/12/31/18:00:14.143000,(17 1 -6 -3 11 1 -4 -1)
1969/12/31/18:00:14.144000,(2 6 11 36 4 2 6 5)
1969/12/31/18:00:14.144000,(30 31 25 28 19 22 19 18)
1969/12/31/18:00:14.166000,(-10 -17 -26 -66 -15 -11 -6 -3)
1969/12/31/18:00:14.166000,(-14 -2 -2 23 -1 -8 -10 -21)
1969/12/31/18:00:14.167000,(-29 -59 -1 17 10 5 2 -4)
1969/12/31/18:00:14.167000,(-9 4 0 26 11 -5 -11 -16)
1969/12/31/18:00:14.180000,(15 33 3 -35 -4 -2 -5 2)
1969/12/31/18:00:14.180000,(-33 -31 -11 1 -8 -9 -20 -33)
1969/12/31/18:00:14.188000,(-7 -2 6 -9 -6 2 13 12)
1969/12/31/18:00:14.188000,(27 24 0 2 -11 -9 -7 9)
1969/12/31/18:00:14.203000,(13 -5 -1 7 12 7 6 10)
1969/12/31/18:00:14.203000,(-11 -22 -13 -36 -23 -3 -1 -1)
1969/12/31/18:00:14.204000,(33 36 6 5 3 7 16 20)
1969/12/31/18:00:14.204000,(-22 -19 -8 -7 -2 -10 -21 -21)
1969/12/31/18:00:14.226000,(-24 -3 4 23 -3 -6 -10 -17)
1969/12/31/18:00:14.226000,(-41 -37 -2 16 8 -2 -9 -26)
1969/12/31/18:00:14.227000,(23 23 -5 -33 -22 -13 -19 -8)
1969/12/31/18:00:14.227000,(10 6 -8 -24 -1 0 10 16)
1969/12/31/18:00:14.240000,(-18 -23 5 40 13 -6 -18 -31)
1969/12/31/18:00:14.240000,(24 8 2 -10 -3 12 23 30)
1969/12/31/18:00:14.248000,(-19 1 -9 5 -13 -13 -17 -24)
1969/12/31/18:00:14.248000,(-27 -61 -11 5 19 -1 -2 -10)
1969/12/31/18:00:14.272000,(14 17 0 -13 -14 -1 -3 7)
1969/12/31/18:00:14.272000,(4 -1 -6 -5 12 -5 -3 -1)
1969/12/31/18:00:14.272000,(-3 6 4 -11 -33 -6 -5 0)
1969/12/31/18:00:14.272000,(-1 9 2 14 14 2 4 -3)
1969/12/31/18:00:14.286000,(-25 -51 -7 22 25 13 14 6)
1969/12/31/18:00:14.286000,(36 64 17 5 0 -2 -6 9)
1969/12/31/18:00:14.287000,(-16 -34 -33 -81 -20 -8 -5 -5)
1969/12/31/18:00:14.287000,(29 41 11 19 -12 2 10 20)
1969/12/31/18:00:14.300000,(-32 -7 12 27 0 -4 -11 -24)
1969/12/31/18:00:14.300000,(6 -9 1 8 1 0 4 6)
1969/12/31/18:00:14.308000,(9 -19 10 29 27 15 16 21)
1969/12/31/18:00:14.308000,(-28 -1 -11 -23 -21 -16 -28 -36)
1969/12/31/18:00:14.323000,(14 -6 -14 -44 -17 -3 4 10)
1969/12/31/18:00:14.323000,(4 10 8 20 -1 6 10 11)
1969/12/31/18:00:14.324000,(-35 -24 -20 -59 -20 -15 -19 -29)
1969/12/31/18:00:14.324000,(21 14 12 48 10 12 21 22)
1969/12/31/18:00:14.346000,(14 -6 14 42 29 16 12 23)
1969/12/31/18:00:14.346000,(-46 -30 -21 -47 -24 -16 -28 -44)
1969/12/31/18:00:14.346000,(38 32 1 16 30 5 13 18)
1969/12/31/18:00:14.346000,(-14 -5 6 12 -22 -1 0 -2)
1969/12/31/18:00:14.368000,(18 12 -7 -34 -4 1 7 5)
1969/12/31/18:00:14.368000,(2 -17 12 47 15 2 0 4)
1969/12/31/18:00:14.369000,(-7 24 20 44 15 8 1 -2)
1969/12/31/18:00:14.369000,(-8 14 5 -3 14 4 3 -9)
1969/12/31/18:00:14.383000,(6 -2 -12 -36 -27 -17 -16 -1)
1969/12/31/18:00:14.383000,(14 -2 -24 -83 -41 -4 9 13)
1969/12/31/18:00:14.384000,(10 17 8 28 -5 -6 -5 -1)
1969/12/31/18:00:14.384000,(-40 -35 10 51 30 1 -14 -24)
1969/12/31/18:00:14.406000,(34 32 10 8 9 9 13 19)
1969/12/31/18:00:14.406000,(9 21 -16 -51 -10 -2 -1 5)
1969/12/31/18:00:14.407000,(3 3 -4 4 -8 -3 -1 -5)
1969/12/31/18:00:14.407000,(14 4 -2 -41 -6 4 12 20)
1969/12/31/18:00:14.429000,(-28 -21 -2 16 -6 -8 -12 -20)
1969/12/31/18:00:14.429000,(2 17 25 64 44 11 5 4)
1969/12/31/18:00:14.430000,(10 4 -3 -5 1 0 -1 3)
1969/12/31/18:00:14.430000,(0 8 -7 -24 -14 -4 -9 -5)
1969/12/31/18:00:14.443000,(-11 -9 -13 -23 -8 -5 -6 -9)
1969/12/31/18:00:14.443000,(-6 -8 4 11 -13 -3 0 -4)
1969/12/31/18:00:14.444000,(7 6 4 8 3 -1 1 11)
1969/12/31/18:00:14.444000,(-19 -10 -3 -17 -2 -2 -2 -20)
1969/12/31/18:00:14.466000,(-1 -2 -17 -69 -25 -1 9 11)
1969/12/31/18:00:14.466000,(-4 -6 12 61 13 1 -1 0)
1969/12/31/18:00:14.467000,(28 28 20 43 37 11 -1 5)
1969/12/31/18:00:14.467000,(-7 -17 -9 -12 -7 -5 -5 -4)
1969/12/31/18:00:14.497000,(0 1 5 32 5 -2 0 -3)
1969/12/31/18:00:14.497000,(0 8 0 -16 5 11 12 8)
1969/12/31/18:00:14.497000,(11 7 -5 -21 -19 -8 -7 -1)
1969/12/31/18:00:14.497000,(-21 -7 -1 2 -4 -2 1 -9)
1969/12/31/18:00:14.503000,(17 16 3 -10 1 1 2 9)
1969/12/31/18:00:14.503000,(6 11 -3 -14 -7 0 6 7)
1969/12/31/18:00:14.504000,(-28 -24 -9 -7 -8 -2 1 -5)
1969/12/31/18:00:14.504000,(6 -11 -3 9 0 -8 -19 -8)
1969/12/31/18:00:14.526000,(15 25 10 2 7 10 12 16)
1969/12/31/18:00:14.526000,(-11 -15 -2 10 0 -6 -13 -19)
1969/12/31/18:00:14.527000,(-31 -18 -3 -17 -15 -8 -6 -16)
1969/12/31/18:00:14.527000,(35 18 -3 -5 5 5 9 23)
1969/12/31/18:00:14.550000,(-6 -9 7 28 6 1 4 2)
1969/12/31/18:00:14.550000,(-12 -7 8 11 5 2 9 5)
1969/12/31/18:00:14.550000,(24 15 -4 -22 -5 8 4 10)
1969/12/31/18:00:14.550000,(-5 -8 -13 -11 1 -15 -16 -14)
1969/12/31/18:00:14.563000,(-9 -21 0 1 1 3 -1 -11)
1969/12/31/18:00:14.563000,(12 24 4 2 -23 -14 -9 0)
1969/12/31/18:00:14.564000,(-56 -47 -13 4 6 -9 -13 -33)
1969/12/31/18:00:14.564000,(16 18 1 3 2 9 12 21)
1969/12/31/18:00:14.586000,(-3 0 -1 0 3 1 -7 -16)
1969/12/31/18:00:14.586000,(-2 -13 -9 -23 -7 -5 -9 -5)
1969/12/31/18:00:14.587000,(-16 -9 -5 -22 -24 -9 -8 -9)
1969/12/31/18:00:14.587000,(23 7 9 23 13 4 13 20)
1969/12/31/18:00:14.609000,(19 35 14 16 13 5 13 23)
1969/12/31/18:00:14.609000,(-25 -29 -13 -14 -6 -7 -15 -18)
1969/12/31/18:00:14.610000,(24 7 -7 -28 -14 2 8 13)
1969/12/31/18:00:14.610000,(-1 -13 3 27 9 14 15 13)
1969/12/31/18:00:14.623000,(5 5 3 21 16 4 5 4)
1969/12/31/18:00:14.623000,(8 1 10 17 9 -5 -17 -12)
1969/12/31/18:00:14.624000,(-9 5 -2 -3 3 0 1 -1)
1969/12/31/18:00:14.624000,(1 -9 -6 -30 -22 -9 -8 -7)
1969/12/31/18:00:14.646000,(-34 -18 -12 -12 -24 -20 -21 -27)
1969/12/31/18:00:14.646000,(39 -2 -7 -3 19 30 37 44)
1969/12/31/18:00:14.647000,(0 20 12 20 15 6 6 0)
1969/12/31/18:00:14.647000,(-28 -9 2 -2 -6 0 1 -14)
1969/12/31/18:00:14.669000,(38 24 1 5 -1 -8 -13 7)
1969/12/31/18:00:14.669000,(-29 -15 -6 -24 -16 -13 -15 -19)
1969/12/31/18:00:14.670000,(19 7 -3 8 12 15 17 19)
1969/12/31/18:00:14.670000,(-14 -6 4 -4 7 -5 -6 -10)
1969/12/31/18:00:14.683000,(-1 -7 -12 -25 -16 4 7 6)
1969/12/31/18:00:14.684000,(-1 5 7 25 9 -5 -4 -5)
1969/12/31/18:00:14.684000,(-14 -28 6 23 12 3 -1 -7)
1969/12/31/18:00:14.684000,(10 22 2 8 7 3 1 -1)
1969/12/31/18:00:14.706000,(-18 -29 -9 -20 -9 1 6 2)
1969/12/31/18:00:14.706000,(-1 0 -13 -19 -11 -6 -8 -1)
1969/12/31/18:00:14.707000,(12 13 4 4 -4 -13 -21 -23)
1969/12/31/18:00:14.707000,(-18 -6 -2 -11 -14 -10 -12 -18)
1969/12/31/18:00:14.720000,(1 -19 -3 8 16 16 21 21)
1969/12/31/18:00:14.720000,(-49 -55 -12 -6 -11 -11 -11 -22)
1969/12/31/18:00:14.728000,(29 49 14 5 7 7 5 4)
1969/12/31/18:00:14.728000,(-8 -1 -6 -24 -16 -7 -6 -10)
1969/12/31/18:00:14.743000,(38 24 -10 -34 -22 -5 5 19)
1969/12/31/18:00:14.743000,(-14 -20 8 44 28 11 2 -10)
1969/12/31/18:00:14.744000,(13 12 10 26 17 10 12 24)
1969/12/31/18:00:14.744000,(8 4 8 15 3 -5 -8 1)
1969/12/31/18:00:14.766000,(-26 7 4 4 0 -3 -5 -24)
1969/12/31/18:00:14.766000,(3 4 -3 -29 -9 4 9 11)
1969/12/31/18:00:14.767000,(-16 -22 -12 -20 -23 -20 -17 -16)
1969/12/31/18:00:14.767000,(20 -1 6 12 19 30 34 29)
1969/12/31/18:00:14.789000,(37 40 -7 5 5 -3 0 13)
1969/12/31/18:00:14.789000,(-9 2 7 -8 -4 4 2 -1)
1969/12/31/18:00:14.790000,(0 -13 -6 -4 -8 -13 -13 -8)
1969/12/31/18:00:14.790000,(-42 -44 -6 0 -1 -4 -9 -19)
1969/12/31/18:00:14.803000,(-49 -40 2 14 8 -2 -18 -40)
1969/12/31/18:00:14.803000,(40 42 7 -7 1 13 21 18)
1969/12/31/18:00:14.804000,(-1 -1 -4 2 8 7 7 7)
1969/12/31/18:00:14.804000,(7 -3 -7 -10 -12 -11 -5 6)
1969/12/31/18:00:14.826000,(-11 -15 4 25 20 3 0 -1)
1969/12/31/18:00:14.826000,(31 53 7 8 -15 -11 -12 1)
1969/12/31/18:00:14.827000,(-38 -40 -12 -18 -13 -9 -6 -13)
1969/12/31/18:00:14.827000,(43 61 -2 -9 2 4 4 18)
1969/12/31/18:00:14.849000,(1 8 7 8 9 2 -6 0)
1969/12/31/18:00:14.849000,(-4 -11 -3 -9 -5 -7 -7 -10)
1969/12/31/18:00:14.850000,(-17 -10 -10 -15 -13 -13 -14 -15)
1969/12/31/18:00:14.850000,(25 14 0 7 12 16 16 22)
1969/12/31/18:00:14.863000,(-21 -11 0 -6 -15 -11 -10 -19)
1969/12/31/18:00:14.863000,(3 -8 -1 9 15 6 5 6)
1969/12/31/18:00:14.864000,(-6 -16 8 7 5 9 13 6)
1969/12/31/18:00:14.864000,(7 -1 -7 0 -3 -5 -4 1)
1969/12/31/18:00:14.886000,(-21 -25 -6 -13 -12 -10 -14 -14)
1969/12/31/18:00:14.886000,(-12 -10 -5 -11 -11 -8 -7 -11)
1969/12/31/18:00:14.887000,(-12 -19 0 2 0 -6 -3 -2)
1969/12/31/18:00:14.887000,(47 49 8 20 26 18 26 42)
1969/12/31/18:00:14.909000,(-3 -30 -1 6 2 2 1 3)
1969/12/31/18:00:14.909000,(-19 -10 -14 -11 -7 -9 -22 -28)
1969/12/31/18:00:14.910000,(6 25 0 -7 -8 -5 -5 -4)
1969/12/31/18:00:14.910000,(-12 -18 -1 -10 -15 -8 -4 -7)
1969/12/31/18:00:14.923000,(-46 -47 -3 2 -8 -14 -17 -23)
1969/12/31/18:00:14.923000,(70 83 14 5 18 23 36 29)
1969/12/31/18:00:14.924000,(12 16 4 1 -7 -8 -12 5)
1969/12/31/18:00:14.924000,(-3 -3 -2 -9 1 6 2 -4)
1969/12/31/18:00:14.946000,(23 18 0 -12 -7 7 12 14)
1969/12/31/18:00:14.946000,(-23 -29 -5 6 9 -5 -6 -7)
1969/12/31/18:00:14.946000,(14 2 2 25 -2 3 6 15)
1969/12/31/18:00:14.946000,(-33 -23 8 8 3 -5 -10 -26)
1969/12/31/18:00:14.969000,(-11 13 7 5 -5 -4 -6 -13)
1969/12/31/18:00:14.969000,(-15 -38 -13 -16 5 12 11 17)
1969/12/31/18:00:14.970000,(29 26 -13 -16 -5 -6 -4 3)
1969/12/31/18:00:14.970000,(-42 -32 -8 -6 -15 -18 -26 -37)
1969/12/31/18:00:14.983000,(11 19 2 3 9 7 12 10)
1969/12/31/18:00:14.983000,(12 -3 1 -2 -9 -8 0 16)
1969/12/31/18:00:14.984000,(-16 -22 -4 4 12 8 5 -3)
1969/12/31/18:00:14.984000,(-15 -9 -4 -4 -10 -10 -9 -15)
1969/12/31/18:00:15.006000,(16 20 2 -13 -9 -3 0 7)
1969/12/31/18:00:15.006000,(10 14 9 14 9 7 6 8)
1969/12/31/18:00:15.006000,(-5 -2 5 9 17 9 4 0)
1969/12/31/18:00:15.006000,(20 15 0 -19 -2 4 7 14)
1969/12/31/18:00:15.029000,(-26 -6 -2 29 -2 -10 -16 -25)
1969/12/31/18:00:15.029000,(56 39 12 14 17 17 29 47)
1969/12/31/18:00:15.029000,(1 0 -2 -30 -19 0 2 -2)
1969/12/31/18:00:15.029000,(-53 -49 -1 25 6 -13 -24 -31)
1969/12/31/18:00:15.043000,(44 49 22 8 17 21 29 32)
1969/12/31/18:00:15.043000,(-25 -25 -8 -2 -5 -1 -9 -22)
1969/12/31/18:00:15.044000,(-18 -4 -3 -6 -1 -6 -10 -14)
1969/12/31/18:00:15.044000,(28 19 -3 -12 -5 3 8 15)
1969/12/31/18:00:15.066000,(1 -7 -6 -5 -6 -3 -4 1)
1969/12/31/18:00:15.066000,(-30 -16 -1 -3 -8 -14 -12 -13)
1969/12/31/18:00:15.067000,(3 3 5 3 7 12 17 12)
1969/12/31/18:00:15.067000,(26 13 -4 -1 -3 -1 3 17)
1969/12/31/18:00:15.089000,(-14 -18 -9 -37 -16 -12 -14 -18)
1969/12/31/18:00:15.089000,(-6 -1 -4 7 -15 -14 -12 -12)
1969/12/31/18:00:15.090000,(-1 -5 7 23 22 15 12 4)
1969/12/31/18:00:15.090000,(-2 7 7 9 3 2 1 1)
1969/12/31/18:00:15.103000,(-9 -9 -11 -3 9 7 6 7)
1969/12/31/18:00:15.103000,(-42 -19 0 -25 -13 -4 -8 -35)
1969/12/31/18:00:15.104000,(56 27 6 14 8 9 24 54)
1969/12/31/18:00:15.104000,(-31 -19 -2 6 -3 -14 -31 -41)
1969/12/31/18:00:15.126000,(20 -12 0 10 17 16 19 22)
1969/12/31/18:00:15.126000,(-39 -22 -13 -11 -7 -7 -10 -19)
1969/12/31/18:00:15.127000,(11 12 -2 -5 -10 -12 -17 -8)
1969/12/31/18:00:15.127000,(19 7 8 -5 2 7 9 15)
1969/12/31/18:00:15.149000,(-44 -31 -4 5 -9 -19 -23 -32)
1969/12/31/18:00:15.149000,(69 55 8 18 27 31 44 64)
1969/12/31/18:00:15.150000,(-11 -12 -13 -7 -3 -3 -5 -14)
1969/12/31/18:00:15.150000,(-7 -10 -9 -10 -7 -4 -7 -3)
1969/12/31/18:00:15.163000,(0 1 -2 -9 -9 -7 -7 -7)
1969/12/31/18:00:15.163000,(-2 2 10 8 -4 -7 -7 -5)
1969/12/31/18:00:15.164000,(-11 -19 -7 -3 -2 5 12 5)
1969/12/31/18:00:15.164000,(73 98 15 6 10 14 20 34)
1969/12/31/18:00:15.187000,(-25 -23 -14 -4 -7 -12 -23 -30)
1969/12/31/18:00:15.187000,(-20 -25 -10 -12 -3 -9 -15 -18)
1969/12/31/18:00:15.188000,(-3 2 -1 -21 -17 -9 -7 -6)
1969/12/31/18:00:15.188000,(-7 -9 2 19 9 8 26 0)
1969/12/31/18:00:15.209000,(8 6 0 11 8 -5 -19 0)
1969/12/31/18:00:15.209000,(74 37 19 18 12 12 30 68)
1969/12/31/18:00:15.210000,(-51 -38 -20 -27 -19 -26 -42 -54)
1969/12/31/18:00:15.210000,(-11 -17 -19 -39 -35 4 15 6)
1969/12/31/18:00:15.223000,(3 9 14 38 11 -1 4 1)
1969/12/31/18:00:15.223000,(-7 -12 2 22 23 10 8 2)
1969/12/31/18:00:15.224000,(19 25 15 24 11 12 17 16)
1969/12/31/18:00:15.224000,(-9 -12 -2 -20 -9 -15 -24 -10)
1969/12/31/18:00:15.246000,(10 9 -7 -18 -5 4 10 10)
1969/12/31/18:00:15.246000,(-17 -11 -7 -19 -25 -13 -22 -28)
1969/12/31/18:00:15.247000,(-16 -13 -10 -30 -15 -1 2 -5)
1969/12/31/18:00:15.247000,(18 12 15 36 26 -2 0 17)
1969/12/31/18:00:15.269000,(9 8 11 8 20 21 23 12)
1969/12/31/18:00:15.269000,(-2 3 15 16 6 6 9 6)
1969/12/31/18:00:15.270000,(25 27 5 -1 0 -2 2 12)
1969/12/31/18:00:15.270000,(-45 -38 0 -5 -9 -2 -2 -13)
1969/12/31/18:00:15.283000,(74 57 6 -3 0 5 14 34)
1969/12/31/18:00:15.283000,(-16 -16 -15 -31 -11 -14 -21 -22)
1969/12/31/18:00:15.284000,(-32 -33 -6 2 -14 -3 -2 -16)
1969/12/31/18:00:15.284000,(70 37 21 22 17 16 24 46)
1969/12/31/18:00:15.306000,(-7 -4 0 12 10 -11 -22 -16)
1969/12/31/18:00:15.306000,(-44 -53 -22 -3 4 5 -11 -32)
1969/12/31/18:00:15.307000,(6 8 1 3 6 -1 -8 -4)
1969/12/31/18:00:15.307000,(-47 -38 -18 -12 -12 -17 -26 -35)
1969/12/31/18:00:15.329000,(-13 -18 -2 -13 -11 6 18 6)
1969/12/31/18:00:15.329000,(59 67 13 -2 -4 -8 -2 23)
1969/12/31/18:00:15.330000,(-48 -44 -12 0 2 -9 -22 -33)
1969/12/31/18:00:15.330000,(0 3 2 5 7 6 10 3)
1969/12/31/18:00:15.343000,(4 4 5 0 -1 -7 -5 8)
1969/12/31/18:00:15.343000,(-7 -4 -7 -29 -20 -3 -1 -4)
1969/12/31/18:00:15.344000,(-2 -11 2 32 24 13 22 10)
1969/12/31/18:00:15.344000,(70 88 18 16 4 -9 -9 25)
1969/12/31/18:00:15.366000,(41 51 15 6 7 8 11 18)
1969/12/31/18:00:15.366000,(-29 -38 -17 -5 -5 -7 -13 -21)
1969/12/31/18:00:15.366000,(7 8 2 -25 -16 -3 2 3)
1969/12/31/18:00:15.366000,(-23 -26 -4 4 -1 -1 7 -1)
1969/12/31/18:00:15.388000,(-17 -10 1 5 0 -10 -20 -6)
1969/12/31/18:00:15.388000,(5 6 -3 3 5 7 9 2)
1969/12/31/18:00:15.396000,(21 11 -8 -44 2 -1 0 13)
1969/12/31/18:00:15.396000,(-25 -20 -8 0 -33 -8 -6 -16)
1969/12/31/18:00:15.403000,(-38 -21 2 26 7 -4 -2 -19)
1969/12/31/18:00:15.403000,(33 29 20 22 25 12 7 11)
1969/12/31/18:00:15.411000,(-35 -24 -7 6 2 -3 -10 -22)
1969/12/31/18:00:15.411000,(-34 -35 -13 -27 -8 -8 -15 -23)
1969/12/31/18:00:15.426000,(0 -15 -20 -31 -16 5 6 7)
1969/12/31/18:00:15.426000,(-40 -66 -11 2 -6 -5 -3 -14)
1969/12/31/18:00:15.427000,(26 38 36 30 22 12 10 29)
1969/12/31/18:00:15.427000,(-14 -30 -9 -10 5 2 -2 -8)
1969/12/31/18:00:15.449000,(-40 -31 -15 -27 -21 -8 -10 -24)
1969/12/31/18:00:15.449000,(-33 -17 -4 5 -1 -9 -13 -21)
1969/12/31/18:00:15.450000,(29 31 18 28 6 6 15 21)
1969/12/31/18:00:15.450000,(-18 -20 -9 -7 1 -11 -25 -25)
1969/12/31/18:00:15.463000,(20 14 5 -2 7 10 14 12)
1969/12/31/18:00:15.463000,(11 12 -9 -28 -21 -10 -2 8)
1969/12/31/18:00:15.478000,(-8 -12 -11 -17 0 -10 -11 -11)
1969/12/31/18:00:15.478000,(-1 16 16 24 -3 7 12 8)
1969/12/31/18:00:15.485000,(3 -17 5 38 27 2 -2 9)
1969/12/31/18:00:15.485000,(-8 16 16 17 17 7 -4 -14)
1969/12/31/18:00:15.493000,(-16 -19 -9 -2 -9 -7 -15 -13)
1969/12/31/18:00:15.493000,(7 0 -13 -38 -14 3 9 11)
1969/12/31/18:00:15.509000,(-37 -53 -6 5 -9 -3 -4 -13)
1969/12/31/18:00:15.509000,(-28 -24 0 10 12 7 2 -16)
1969/12/31/18:00:15.510000,(-24 -19 1 12 8 8 6 0)
1969/12/31/18:00:15.510000,(3 0 0 -8 1 2 5 4)
1969/12/31/18:00:15.523000,(-20 -12 -8 -18 -16 -3 -1 -8)
1969/12/31/18:00:15.523000,(30 28 6 -21 -26 -3 8 16)
1969/12/31/18:00:15.531000,(4 5 -8 2 9 -7 -6 -4)
1969/12/31/18:00:15.531000,(1 -5 6 28 15 7 2 -3)
1969/12/31/18:00:15.547000,(-9 -14 7 6 4 3 14 -3)
1969/12/31/18:00:15.547000,(56 44 11 9 7 8 16 43)
1969/12/31/18:00:15.547000,(35 12 -2 -10 -11 -2 -2 9)
1969/12/31/18:00:15.547000,(-19 -5 -5 -6 0 -5 -8 -12)
1969/12/31/18:00:15.569000,(-34 -28 -13 -7 -6 -9 -16 -35)
1969/12/31/18:00:15.569000,(30 8 -2 -7 3 5 13 26)
1969/12/31/18:00:15.570000,(-14 -20 -5 0 -12 -12 -20 -18)
1969/12/31/18:00:15.571000,(0 -8 -8 -5 -4 -3 -4 -4)
1969/12/31/18:00:15.583000,(41 51 7 2 3 -6 -9 15)
1969/12/31/18:00:15.583000,(-102 -73 -19 1 -9 -24 -45 -77)
1969/12/31/18:00:15.592000,(-1 -2 -8 -38 -21 -4 2 5)
1969/12/31/18:00:15.592000,(23 4 -15 -9 2 11 13 19)
1969/12/31/18:00:15.607000,(2 14 18 60 17 15 12 9)
1969/12/31/18:00:15.607000,(79 36 29 44 30 3 10 42)
1969/12/31/18:00:15.608000,(-46 -25 -3 22 4 -4 -15 -27)
1969/12/31/18:00:15.608000,(-20 -9 -10 -38 -16 -11 -12 -23)
1969/12/31/18:00:15.629000,(19 16 -12 -52 -25 -4 4 12)
1969/12/31/18:00:15.629000,(-31 -48 -8 2 -7 -8 -7 -7)
1969/12/31/18:00:15.631000,(3 25 11 2 9 21 29 10)
1969/12/31/18:00:15.631000,(9 4 7 3 8 21 44 24)
1969/12/31/18:00:15.643000,(-19 -13 -9 -9 -4 -8 -13 -9)
1969/12/31/18:00:15.643000,(-24 -20 -15 -8 -9 -10 -21 -30)
1969/12/31/18:00:15.652000,(-30 -26 -1 0 -5 -10 -8 -9)
1969/12/31/18:00:15.652000,(42 55 35 32 26 29 35 54)
1969/12/31/18:00:15.666000,(-21 0 -3 -2 -9 -20 -33 -35)
1969/12/31/18:00:15.666000,(8 15 -1 -16 -2 6 15 19)
1969/12/31/18:00:15.668000,(34 18 1 4 1 9 15 20)
1969/12/31/18:00:15.668000,(10 8 10 13 5 -3 -6 0)
1969/12/31/18:00:15.689000,(-1 -22 0 -7 1 13 23 14)
1969/12/31/18:00:15.689000,(30 58 -6 -12 -13 -33 -37 2)
1969/12/31/18:00:15.691000,(-42 -31 -6 20 9 -7 -21 -40)
1969/12/31/18:00:15.691000,(-35 -19 -5 -5 -7 -14 -19 -25)
1969/12/31/18:00:15.703000,(36 2 -5 -10 2 12 20 25)
1969/12/31/18:00:15.703000,(-33 -47 -4 -1 -1 11 19 15)
1969/12/31/18:00:15.712000,(49 24 -6 -1 3 11 14 15)
1969/12/31/18:00:15.712000,(-35 -13 -6 -4 -7 -21 -30 -41)
1969/12/31/18:00:15.727000,(0 15 2 -16 -14 -14 -12 -2)
1969/12/31/18:00:15.727000,(42 33 12 12 17 27 33 31)
1969/12/31/18:00:15.728000,(25 14 7 0 16 1 -2 19)
1969/12/31/18:00:15.728000,(-22 -8 -6 -3 -16 0 -5 -20)
1969/12/31/18:00:15.748000,(-18 -33 -5 12 13 10 17 7)
1969/12/31/18:00:15.748000,(-14 19 4 0 -5 -7 -17 -24)
1969/12/31/18:00:15.757000,(-8 -6 0 -9 -12 1 5 4)
1969/12/31/18:00:15.757000,(16 6 -9 -10 0 -10 -10 -2)
1969/12/31/18:00:15.772000,(22 26 0 -18 -26 -6 0 12)
1969/12/31/18:00:15.772000,(-22 -14 4 46 31 13 11 -9)
1969/12/31/18:00:15.773000,(-7 -13 11 33 29 11 6 -2)
1969/12/31/18:00:15.773000,(14 3 6 16 14 -5 -29 11)
1969/12/31/18:00:15.786000,(-6 7 -3 -18 -6 0 -3 -4)
1969/12/31/18:00:15.786000,(-12 -36 -11 -36 -32 -11 -1 -3)
1969/12/31/18:00:15.788000,(14 19 -8 -27 -42 -34 -17 -4)
1969/12/31/18:00:15.788000,(-1 -36 -10 -2 -11 7 27 26)
1969/12/31/18:00:15.809000,(12 30 8 9 21 -2 -25 -16)
1969/12/31/18:00:15.809000,(-46 -32 -14 -6 4 4 -7 -27)
1969/12/31/18:00:15.811000,(12 19 10 -23 -26 -19 12 16)
1969/12/31/18:00:15.811000,(9 -3 -15 -32 -21 -8 0 3)
1969/12/31/18:00:15.832000,(10 10 9 43 22 27 18 11)
1969/12/31/18:00:15.832000,(3 10 12 -17 -8 14 8 3)
1969/12/31/18:00:15.833000,(7 0 2 42 21 23 10 10)
1969/12/31/18:00:15.833000,(-9 5 14 51 66 24 11 2)
1969/12/31/18:00:15.845000,(15 30 11 22 57 7 -4 -4)
1969/12/31/18:00:15.845000,(19 11 -3 -6 15 5 -1 2)
1969/12/31/18:00:15.854000,(-2 -9 -17 -48 -64 -26 -17 -2)
1969/12/31/18:00:15.854000,(14 23 -3 -20 -50 -34 -20 -7)
1969/12/31/18:00:15.869000,(-34 -9 -10 6 -11 -14 -13 -22)
1969/12/31/18:00:15.869000,(23 24 18 5 2 3 21 26)
1969/12/31/18:00:15.870000,(43 28 4 -17 2 2 8 39)
1969/12/31/18:00:15.870000,(13 11 4 3 0 2 3 1)
1969/12/31/18:00:15.892000,(8 -5 2 -2 -5 6 13 11)
1969/12/31/18:00:15.892000,(-2 -1 -9 -15 -20 -16 -6 0)
1969/12/31/18:00:15.893000,(-21 -14 -7 4 -1 2 4 -13)
1969/12/31/18:00:15.893000,(-27 -18 8 21 36 29 26 17)
1969/12/31/18:00:15.905000,(56 8 11 -9 4 11 10 31)
1969/12/31/18:00:15.905000,(-9 -3 -9 -9 -21 -14 -15 -19)
1969/12/31/18:00:15.914000,(6 11 -3 -3 11 -1 -4 -3)
1969/12/31/18:00:15.914000,(0 -13 -5 -16 -37 -22 -1 -7)
1969/12/31/18:00:15.929000,(-20 -13 -13 -27 13 -4 -16 -16)
1969/12/31/18:00:15.929000,(-20 -8 8 82 49 25 -3 -14)
1969/12/31/18:00:15.931000,(5 3 31 44 38 26 8 13)
1969/12/31/18:00:15.931000,(-46 -24 -6 -1 14 15 -2 -28)
1969/12/31/18:00:15.952000,(-18 2 -7 -34 -53 -41 -28 -15)
1969/12/31/18:00:15.952000,(3 -6 -13 -33 -18 -13 -3 12)
1969/12/31/18:00:15.953000,(-18 -15 -12 -15 -5 -6 -9 -18)
1969/12/31/18:00:15.953000,(52 69 7 -5 -4 5 9 20)
1969/12/31/18:00:15.965000,(-15 6 -5 -5 -20 -29 -24 -23)
1969/12/31/18:00:15.965000,(-55 -41 -17 -9 5 3 -10 -44)
1969/12/31/18:00:15.974000,(0 -10 0 5 4 7 6 4)
1969/12/31/18:00:15.974000,(16 7 2 -3 -1 -5 -9 5)
1969/12/31/18:00:15.989000,(-12 -17 1 13 3 12 12 -3)
1969/12/31/18:00:15.989000,(-11 -38 0 -5 -10 -5 7 11)
1969/12/31/18:00:15.991000,(-31 -5 -11 -5 1 -8 -23 -38)
1969/12/31/18:00:15.991000,(35 14 7 4 8 2 -4 -4)
1969/12/31/18:00:16.011000,(20 8 2 5 8 18 27 29)
1969/12/31/18:00:16.012000,(-22 -19 -8 -8 -15 -18 -19 -17)
1969/12/31/18:00:16.013000,(25 29 6 9 10 8 11 16)
1969/12/31/18:00:16.013000,(-31 -50 -2 -2 1 1 7 5)
1969/12/31/18:00:16.034000,(-7 2 -11 -2 -3 6 0 -13)
