time,.data
1969/12/31/18:00:18.295,(-4 -4 -1 3 0 0 -5 -5)
1969/12/31/18:00:18.295,(0 -2 -4 -6 -2 2 -1 1)
1969/12/31/18:00:18.295,(-1 1 0 -2 -1 0 -2 -7)
1969/12/31/18:00:18.295,(1 1 6 1 0 -1 -3 -4)
1969/12/31/18:00:18.307,(-1 -5 -8 -2 -1 -2 -4 -3)
1969/12/31/18:00:18.307,(0 -1 1 -8 1 0 1 -2)
1969/12/31/18:00:18.308,(0 -2 -4 -1 -4 4 1 1)
1969/12/31/18:00:18.308,(0 2 15 17 5 -2 -5 -2)
1969/12/31/18:00:18.315,(0 1 2 4 2 3 -4 0)
1969/12/31/18:00:18.315,(-2 -2 -1 2 1 1 8 3)
1969/12/31/18:00:18.321,(-3 -4 -6 -3 0 -2 -1 -1)
1969/12/31/18:00:18.321,(-6 -9 -19 -17 -5 -5 4 4)
1969/12/31/18:00:18.330,(2 7 5 0 -1 -10 0 -2)
1969/12/31/18:00:18.330,(2 1 -2 -4 -3 -4 5 1)
1969/12/31/18:00:18.345,(-1 0 -4 -2 -3 -6 4 1)
1969/12/31/18:00:18.345,(-1 -3 -8 -3 -1 -4 1 0)
1969/12/31/18:00:18.347,(-2 -2 -3 -4 -1 0 4 4)
1969/12/31/18:00:18.347,(-1 4 0 -1 1 0 2 1)
1969/12/31/18:00:18.367,(0 -5 -6 -5 -4 -3 0 -2)
1969/12/31/18:00:18.367,(1 4 2 3 1 -2 0 1)
1969/12/31/18:00:18.369,(-2 1 -3 0 0 -2 -1 -4)
1969/12/31/18:00:18.369,(2 0 -3 1 0 -2 1 -1)
1969/12/31/18:00:18.381,(-6 -8 -5 1 1 1 6 7)
1969/12/31/18:00:18.381,(0 -1 -9 -5 -4 -5 -4 -4)
1969/12/31/18:00:18.390,(-1 2 -1 -5 -1 -3 -1 0)
1969/12/31/18:00:18.390,(0 -8 -4 -1 0 -1 1 0)
1969/12/31/18:00:18.420,(0 5 10 0 1 1 2 -1)
1969/12/31/18:00:18.420,(-3 -2 -3 -3 -1 1 -3 -1)
1969/12/31/18:00:18.422,(1 1 9 4 -1 4 -5 -2)
1969/12/31/18:00:18.422,(1 7 15 6 0 1 -5 -6)
1969/12/31/18:00:18.435,(0 -6 -3 0 -1 1 -5 -3)
1969/12/31/18:00:18.435,(0 -22 -19 -4 -4 0 -3 0)
1969/12/31/18:00:18.436,(3 5 3 -4 -1 1 -1 2)
1969/12/31/18:00:18.437,(-4 -3 -14 -7 -3 0 -1 1)
1969/12/31/18:00:18.450,(-7 5 10 4 1 -4 -1 -4)
1969/12/31/18:00:18.450,(-2 -1 -2 -1 0 -1 -2 -3)
1969/12/31/18:00:18.451,(-3 -16 -10 -3 -2 -2 -1 1)
1969/12/31/18:00:18.451,(-4 -26 -22 -7 -3 -2 0 3)
1969/12/31/18:00:18.465,(3 21 8 -3 -2 -2 4 2)
1969/12/31/18:00:18.465,(-10 -11 -3 -1 -1 -3 5 0)
1969/12/31/18:00:18.466,(-2 0 -8 -3 -1 -3 0 -6)
1969/12/31/18:00:18.466,(2 18 6 -4 -3 -5 -3 2)
1969/12/31/18:00:18.487,(-2 -11 -13 -2 -1 -1 -2 -4)
1969/12/31/18:00:18.487,(1 10 15 0 -1 0 9 10)
1969/12/31/18:00:18.489,(1 -4 -1 -1 0 -2 -3 1)
1969/12/31/18:00:18.489,(9 -3 -8 -1 -1 0 3 5)
1969/12/31/18:00:18.501,(11 21 19 8 2 2 3 16)
1969/12/31/18:00:18.501,(-19 -8 -7 -5 -3 -4 -5 -17)
1969/12/31/18:00:18.510,(1 0 -3 2 1 -1 -5 -6)
1969/12/31/18:00:18.510,(3 17 12 7 2 1 3 6)
1969/12/31/18:00:18.525,(3 -17 -16 -8 -2 -5 -6 -11)
1969/12/31/18:00:18.525,(-16 0 -3 -1 -1 -5 5 10)
1969/12/31/18:00:18.526,(5 -5 -14 -8 -2 -7 7 13)
1969/12/31/18:00:18.526,(1 -2 -9 -6 -1 -6 7 4)
1969/12/31/18:00:18.555,(-11 0 2 -1 -3 0 1 -4)
1969/12/31/18:00:18.555,(15 10 13 4 -4 3 -18 -17)
1969/12/31/18:00:18.556,(3 2 16 8 2 13 -10 -6)
1969/12/31/18:00:18.556,(-11 -11 10 4 -4 5 -22 -26)
1969/12/31/18:00:18.561,(-15 -18 6 2 -3 4 -16 -19)
1969/12/31/18:00:18.561,(10 3 7 6 3 2 -16 -13)
1969/12/31/18:00:18.570,(5 1 -1 -1 -2 0 -1 3)
1969/12/31/18:00:18.570,(3 8 8 3 -2 0 4 3)
1969/12/31/18:00:18.585,(14 10 -1 4 2 1 1 2)
1969/12/31/18:00:18.585,(-18 -7 -7 -4 -3 -4 1 3)
1969/12/31/18:00:18.586,(-14 -11 -5 -4 -1 0 7 9)
1969/12/31/18:00:18.586,(8 9 3 2 2 0 -2 -11)
1969/12/31/18:00:18.607,(44 14 -3 -1 -2 -1 13 47)
1969/12/31/18:00:18.607,(-5 1 -2 -1 -1 -4 -6 -14)
1969/12/31/18:00:18.609,(-52 -22 -7 -6 -3 -4 4 6)
1969/12/31/18:00:18.609,(-31 -25 -14 -11 -5 -11 -23 -68)
1969/12/31/18:00:18.621,(13 -6 -5 -4 -2 1 7 29)
1969/12/31/18:00:18.621,(30 20 8 8 7 15 -5 5)
1969/12/31/18:00:18.637,(8 11 -2 -5 -11 -12 38 19)
1969/12/31/18:00:18.637,(18 15 4 1 2 -7 -1 8)
1969/12/31/18:00:18.645,(-52 -33 -16 -8 -3 -7 1 -24)
1969/12/31/18:00:18.645,(-21 -17 -9 -5 -3 -6 -22 0)
1969/12/31/18:00:18.646,(3 0 -4 0 6 -1 1 10)
1969/12/31/18:00:18.646,(12 28 19 13 8 3 2 2)
1969/12/31/18:00:18.667,(10 17 4 2 0 -4 3 0)
1969/12/31/18:00:18.667,(-12 -14 -1 2 3 -3 10 7)
1969/12/31/18:00:18.669,(86 29 6 3 3 16 -11 18)
1969/12/31/18:00:18.669,(-91 -50 -12 -3 5 21 -13 -31)
1969/12/31/18:00:18.697,(44 43 6 0 -4 -44 -9 -41)
1969/12/31/18:00:18.697,(-24 -30 -8 -8 -4 31 14 -1)
1969/12/31/18:00:18.699,(52 34 5 -1 0 0 4 19)
1969/12/31/18:00:18.699,(-64 -64 -24 -13 -16 -21 -16 -23)
1969/12/31/18:00:18.705,(-11 -9 5 4 13 84 13 12)
1969/12/31/18:00:18.705,(18 20 0 -1 -4 -51 25 19)
1969/12/31/18:00:18.706,(-15 -16 0 1 2 5 -16 1)
1969/12/31/18:00:18.706,(-40 -13 -9 -8 -23 -90 -39 -57)
1969/12/31/18:00:18.727,(-26 -6 -3 -2 0 31 -6 -14)
1969/12/31/18:00:18.727,(39 8 3 3 5 9 22 40)
1969/12/31/18:00:18.733,(-28 -9 -6 -2 2 26 -9 -24)
1969/12/31/18:00:18.733,(10 18 3 -1 4 50 40 11)
1969/12/31/18:00:18.741,(20 -11 -8 -6 -10 -34 -13 -23)
1969/12/31/18:00:18.741,(9 15 -2 -4 -3 9 -14 -28)
1969/12/31/18:00:18.750,(-37 -5 9 6 8 0 1 -30)
1969/12/31/18:00:18.750,(40 13 0 -5 -3 -5 6 43)
1969/12/31/18:00:18.764,(-5 -9 -4 -2 -4 -28 -21 16)
1969/12/31/18:00:18.764,(-6 -5 -2 -3 -1 23 10 4)
1969/12/31/18:00:18.779,(-34 -14 -3 0 -2 -28 -2 -14)
1969/12/31/18:00:18.779,(36 13 4 3 2 -22 49 53)
1969/12/31/18:00:18.788,(-48 -27 -17 -6 4 45 -26 -40)
1969/12/31/18:00:18.788,(25 23 11 3 -6 -12 5 -8)
1969/12/31/18:00:18.790,(15 -1 -7 -6 -5 9 -11 -3)
1969/12/31/18:00:18.790,(24 20 8 2 2 1 -8 31)
1969/12/31/18:00:18.801,(16 2 -2 2 9 39 22 25)
1969/12/31/18:00:18.801,(6 7 1 -1 -9 -46 2 5)
1969/12/31/18:00:18.810,(6 8 8 6 -6 -27 11 8)
1969/12/31/18:00:18.810,(-25 -17 -7 -2 14 115 -10 24)
1969/12/31/18:00:18.848,(-10 -13 -10 -10 -23 -99 -31 -26)
1969/12/31/18:00:18.848,(-6 -11 -4 -3 1 -14 0 -3)
1969/12/31/18:00:18.849,(9 8 3 1 2 14 -11 1)
1969/12/31/18:00:18.849,(60 39 10 5 10 21 34 39)
1969/12/31/18:00:18.855,(-49 -42 -7 -2 0 44 -4 -1)
1969/12/31/18:00:18.855,(15 14 4 1 2 -2 -23 8)
1969/12/31/18:00:18.856,(-39 -35 -18 -10 -16 -52 -6 -43)
1969/12/31/18:00:18.856,(0 0 -2 0 -1 -11 -29 -26)
1969/12/31/18:00:18.870,(28 20 8 3 2 -22 9 17)
1969/12/31/18:00:18.870,(16 16 4 5 8 30 18 -10)
1969/12/31/18:00:18.872,(-41 -24 -10 -6 -2 19 -15 -25)
1969/12/31/18:00:18.872,(-4 -7 -2 -2 1 9 -24 -1)
1969/12/31/18:00:18.884,(13 5 7 3 2 -8 2 44)
1969/12/31/18:00:18.884,(-9 8 6 6 5 10 8 10)
1969/12/31/18:00:18.891,(23 15 0 -3 -6 -38 -28 -31)
1969/12/31/18:00:18.891,(24 7 -2 0 2 16 15 10)
1969/12/31/18:00:18.907,(59 20 15 9 4 -11 27 56)
1969/12/31/18:00:18.907,(-55 -34 -12 -6 -5 10 -28 -44)
1969/12/31/18:00:18.909,(10 3 1 3 10 32 15 16)
1969/12/31/18:00:18.909,(-15 -5 0 -1 -7 -38 -23 -28)
1969/12/31/18:00:18.946,(46 17 2 3 3 17 34 86)
1969/12/31/18:00:18.946,(3 -4 0 -1 -8 -48 -12 -6)
1969/12/31/18:00:18.948,(11 26 10 4 15 78 33 7)
1969/12/31/18:00:18.948,(-18 -36 -16 -10 -14 -49 -45 -27)
1969/12/31/18:00:18.949,(-41 4 -3 -2 1 20 27 -17)
1969/12/31/18:00:18.949,(-1 -5 -4 1 2 -12 -36 30)
1969/12/31/18:00:18.953,(-21 -25 -12 -6 -15 -25 0 -25)
1969/12/31/18:00:18.953,(14 17 9 7 7 18 8 9)
1969/12/31/18:00:18.967,(-4 13 8 3 -1 -19 -26 -40)
1969/12/31/18:00:18.967,(-34 -12 -5 -3 0 20 -5 -13)
1969/12/31/18:00:18.969,(40 5 2 1 4 14 16 78)
1969/12/31/18:00:18.969,(-5 -9 -7 -7 -8 -25 4 18)
1969/12/31/18:00:18.990,(10 5 1 0 -2 -7 13 -19)
1969/12/31/18:00:18.990,(-4 -9 -7 -7 -6 26 6 -7)
1969/12/31/18:00:18.991,(-29 -7 -4 -3 -5 -10 -36 -18)
1969/12/31/18:00:18.991,(21 23 7 4 0 -8 31 42)
1969/12/31/18:00:19.004,(-12 -11 -6 -3 -7 -41 15 9)
1969/12/31/18:00:19.004,(-32 -18 -9 -5 -14 -12 -9 -9)
1969/12/31/18:00:19.011,(0 -4 0 1 5 -10 -14 -7)
1969/12/31/18:00:19.011,(-2 -4 -7 -8 -7 8 3 -21)
1969/12/31/18:00:19.027,(10 9 2 -7 -21 -2 9 -7)
1969/12/31/18:00:19.027,(60 32 17 11 20 59 47 44)
1969/12/31/18:00:19.029,(-80 -42 -16 -10 -14 -45 -20 -68)
1969/12/31/18:00:19.029,(-55 -15 -4 2 3 -2 -35 -57)
1969/12/31/18:00:19.050,(-12 -12 -10 -9 -9 -12 11 -3)
1969/12/31/18:00:19.050,(2 -5 -1 -4 -5 -10 1 -2)
1969/12/31/18:00:19.051,(44 28 14 10 8 6 -24 19)
1969/12/31/18:00:19.051,(22 9 7 2 7 41 36 15)
1969/12/31/18:00:19.064,(-44 -22 -10 -5 -7 -75 -49 -55)
1969/12/31/18:00:19.064,(29 20 6 4 5 1 18 16)
1969/12/31/18:00:19.071,(11 6 5 4 7 -5 7 -3)
1969/12/31/18:00:19.071,(14 13 7 12 22 20 25 23)
1969/12/31/18:00:19.087,(-41 -21 -9 -14 -43 -24 -75 -81)
1969/12/31/18:00:19.087,(-16 -11 -8 -9 -12 13 15 -16)
1969/12/31/18:00:19.089,(11 11 2 -2 -3 -22 -8 -1)
1969/12/31/18:00:19.089,(-4 -3 4 3 10 11 22 37)
1969/12/31/18:00:19.110,(7 4 4 15 78 85 29 2)
1969/12/31/18:00:19.110,(-8 -5 -9 -16 -68 -74 -29 -15)
1969/12/31/18:00:19.112,(-9 -3 -6 -16 -34 -28 5 -19)
1969/12/31/18:00:19.112,(34 4 2 2 8 39 4 33)
1969/12/31/18:00:19.123,(-30 -8 0 4 20 6 2 -19)
1969/12/31/18:00:19.123,(1 -8 -8 2 50 53 -13 -3)
1969/12/31/18:00:19.132,(38 17 7 13 5 -40 17 20)
1969/12/31/18:00:19.132,(11 0 -1 3 -17 -44 -76 -58)
1969/12/31/18:00:19.147,(6 8 3 -8 -43 -6 3 7)
1969/12/31/18:00:19.147,(18 0 -1 7 60 58 24 9)
1969/12/31/18:00:19.149,(-37 -11 -7 -19 -90 -57 8 1)
1969/12/31/18:00:19.149,(-43 -24 -18 -22 -30 -46 -24 -44)
1969/12/31/18:00:19.169,(0 -2 -2 16 51 46 6 7)
1969/12/31/18:00:19.169,(15 22 6 -17 -40 -28 -10 5)
1969/12/31/18:00:19.170,(-44 -42 27 27 93 86 16 -1)
1969/12/31/18:00:19.170,(4 9 1 -12 -70 -43 13 8)
1969/12/31/18:00:19.192,(-1 -9 -6 8 53 21 9 20)
1969/12/31/18:00:19.192,(39 37 -30 -2 -17 9 13 20)
1969/12/31/18:00:19.192,(35 -7 10 -8 -2 26 16 37)
1969/12/31/18:00:19.192,(-63 -5 -4 -2 -15 -52 -13 -62)
1969/12/31/18:00:19.207,(-34 18 1 -13 -47 -9 -6 -44)
1969/12/31/18:00:19.207,(-40 -55 -7 5 52 10 16 -10)
1969/12/31/18:00:19.207,(24 27 -60 -24 -22 17 -8 -18)
1969/12/31/18:00:19.207,(-25 -29 68 18 32 16 -9 -17)
1969/12/31/18:00:19.229,(86 46 0 7 15 0 9 66)
1969/12/31/18:00:19.229,(-30 -20 -41 -40 -75 -63 -38 -73)
1969/12/31/18:00:19.230,(-35 31 34 28 41 33 22 -21)
1969/12/31/18:00:19.230,(-3 -23 42 28 29 12 19 10)
1969/12/31/18:00:19.252,(-9 -26 -19 10 31 32 -18 -1)
1969/12/31/18:00:19.252,(28 -62 -40 -30 -23 -2 4 41)
1969/12/31/18:00:19.252,(28 2 -68 -52 -80 -67 -17 30)
1969/12/31/18:00:19.252,(-10 73 44 15 23 31 28 55)
1969/12/31/18:00:19.266,(-4 76 85 24 17 -19 8 -8)
1969/12/31/18:00:19.266,(35 31 -7 29 73 54 5 13)
1969/12/31/18:00:19.267,(-60 -86 -24 -61 -81 -89 -76 -35)
1969/12/31/18:00:19.267,(58 -33 -128 -41 82 75 32 49)
1969/12/31/18:00:19.289,(-12 -78 0 -15 -36 -50 -23 -6)
1969/12/31/18:00:19.289,(-47 40 81 54 -8 -20 -15 -49)
1969/12/31/18:00:19.290,(63 100 43 11 -5 -1 4 28)
1969/12/31/18:00:19.290,(-65 -21 7 6 -29 -26 -12 -80)
1969/12/31/18:00:19.312,(18 -32 -72 -27 6 39 3 15)
1969/12/31/18:00:19.312,(-2 35 51 12 8 -11 -3 14)
1969/12/31/18:00:19.312,(-1 -14 64 43 41 27 17 24)
1969/12/31/18:00:19.312,(60 4 -42 -16 -2 24 24 38)
1969/12/31/18:00:19.327,(22 7 -78 -42 -36 -15 -13 37)
1969/12/31/18:00:19.327,(-42 -59 41 15 8 -15 12 31)
1969/12/31/18:00:19.327,(-10 -14 11 14 29 53 -3 -54)
1969/12/31/18:00:19.327,(48 80 11 15 19 5 -5 19)
1969/12/31/18:00:19.350,(12 16 29 -3 -78 -73 -2 23)
1969/12/31/18:00:19.350,(-33 -35 -37 -16 -22 -11 -3 10)
1969/12/31/18:00:19.351,(-34 -20 -24 13 84 76 44 -23)
1969/12/31/18:00:19.351,(-10 -26 -31 -25 -51 -47 -52 -44)
1969/12/31/18:00:19.363,(22 14 48 39 52 41 35 42)
1969/12/31/18:00:19.363,(-3 3 -19 -39 -66 -46 -42 -22)
1969/12/31/18:00:19.371,(32 7 7 23 74 26 16 34)
1969/12/31/18:00:19.371,(8 -35 -47 -33 -90 -60 -5 -5)
1969/12/31/18:00:19.389,(-1 17 -26 -24 -12 10 25 23)
1969/12/31/18:00:19.389,(-29 2 86 53 51 17 -3 20)
1969/12/31/18:00:19.389,(14 62 -4 -1 2 -5 -14 -54)
1969/12/31/18:00:19.389,(-1 6 -9 -13 9 -3 -2 -27)
1969/12/31/18:00:19.409,(-61 3 57 29 5 3 -18 -34)
1969/12/31/18:00:19.409,(53 22 -21 1 26 22 20 -12)
1969/12/31/18:00:19.410,(-11 -57 -36 -11 -17 -8 -1 41)
1969/12/31/18:00:19.410,(15 -3 -15 -2 19 19 10 31)
1969/12/31/18:00:19.423,(-24 -25 12 -18 -51 -30 -12 -50)
1969/12/31/18:00:19.423,(6 36 -23 4 49 18 -11 -12)
1969/12/31/18:00:19.431,(-6 -16 18 -6 -54 -17 6 30)
1969/12/31/18:00:19.431,(-4 -7 15 20 4 -4 0 -5)
1969/12/31/18:00:19.446,(6 -32 -23 -4 50 28 -44 -15)
1969/12/31/18:00:19.446,(6 32 -5 -30 -60 -23 24 45)
1969/12/31/18:00:19.447,(12 3 -30 -19 -36 -34 -27 -46)
1969/12/31/18:00:19.447,(29 -26 -16 2 39 21 26 22)
1969/12/31/18:00:19.469,(-41 29 94 45 16 -9 3 -20)
1969/12/31/18:00:19.469,(52 71 45 16 16 22 20 56)
1969/12/31/18:00:19.470,(35 -58 -72 -21 -12 -6 -14 -5)
1969/12/31/18:00:19.470,(-13 -41 2 -12 -25 -1 -5 13)
1969/12/31/18:00:19.483,(-24 35 29 22 15 5 14 -13)
1969/12/31/18:00:19.483,(29 -46 -54 -14 21 -3 -15 -17)
1969/12/31/18:00:19.491,(-13 50 46 13 -6 7 7 13)
1969/12/31/18:00:19.491,(-30 1 14 7 3 -5 -7 -15)
1969/12/31/18:00:19.506,(38 -17 -57 -27 -14 2 -1 15)
1969/12/31/18:00:19.506,(-30 -22 0 4 -3 16 19 -69)
1969/12/31/18:00:19.507,(13 -17 -11 -4 -7 -26 -38 23)
1969/12/31/18:00:19.507,(45 -2 -52 -14 9 -2 -4 11)
1969/12/31/18:00:19.537,(-65 25 93 18 -23 2 -5 -33)
1969/12/31/18:00:19.537,(-22 -19 -32 -8 16 -11 -8 -18)
1969/12/31/18:00:19.538,(16 -29 -20 26 47 32 41 37)
1969/12/31/18:00:19.538,(-20 37 29 -18 -62 -15 3 2)
1969/12/31/18:00:19.543,(17 36 -12 -5 7 21 11 5)
1969/12/31/18:00:19.544,(23 -46 -55 -28 -35 -33 -19 29)
1969/12/31/18:00:19.551,(-17 -13 18 2 -2 0 6 -15)
1969/12/31/18:00:19.551,(-32 0 72 36 17 -3 -6 9)
1969/12/31/18:00:19.568,(21 -52 -76 -15 48 32 4 8)
1969/12/31/18:00:19.568,(1 47 29 4 -39 -17 3 -2)
1969/12/31/18:00:19.569,(-21 5 -13 -11 0 7 -5 5)
1969/12/31/18:00:19.569,(1 -2 -25 -8 -2 -6 -17 -44)
1969/12/31/18:00:19.589,(18 -5 -28 -18 7 6 6 -16)
1969/12/31/18:00:19.589,(-11 1 59 37 36 -10 -13 17)
1969/12/31/18:00:19.590,(40 14 -14 -4 -5 40 35 69)
1969/12/31/18:00:19.590,(-12 34 37 5 -8 -15 19 -1)
1969/12/31/18:00:19.603,(-25 -30 -27 -19 -69 -76 -47 -15)
1969/12/31/18:00:19.603,(38 -16 -82 -24 6 19 25 42)
1969/12/31/18:00:19.611,(-56 74 127 48 -1 -29 -23 -33)
1969/12/31/18:00:19.611,(9 15 -7 9 46 37 13 22)
1969/12/31/18:00:19.627,(-27 -42 -48 -11 29 24 -21 -49)
1969/12/31/18:00:19.627,(2 -25 -29 -17 -59 -37 14 31)
1969/12/31/18:00:19.627,(-16 -21 19 3 14 16 -2 21)
1969/12/31/18:00:19.627,(14 43 1 -5 -22 -41 -32 -70)
1969/12/31/18:00:19.649,(14 1 -13 0 9 2 13 24)
1969/12/31/18:00:19.649,(-27 -7 44 18 16 12 -5 -42)
1969/12/31/18:00:19.650,(15 20 -21 -16 -7 9 -6 -13)
1969/12/31/18:00:19.650,(32 -15 17 12 -5 -12 12 71)
1969/12/31/18:00:19.673,(18 35 -23 -10 14 25 39 72)
1969/12/31/18:00:19.673,(-22 -24 14 9 7 14 2 -23)
1969/12/31/18:00:19.674,(-17 12 -16 5 37 -12 -30 -31)
1969/12/31/18:00:19.674,(-2 -15 -20 -14 -51 -29 -21 -15)
1969/12/31/18:00:19.687,(-18 -25 34 4 -28 -2 8 -28)
1969/12/31/18:00:19.687,(-12 9 -7 -5 23 9 5 -8)
1969/12/31/18:00:19.687,(26 -25 -49 -14 0 1 10 22)
1969/12/31/18:00:19.687,(11 21 14 11 22 23 14 26)
1969/12/31/18:00:19.709,(9 3 2 7 -3 -1 2 -13)
1969/12/31/18:00:19.709,(-7 14 2 -6 -11 -5 -12 15)
1969/12/31/18:00:19.710,(-28 -58 -5 1 -1 -15 -3 -28)
1969/12/31/18:00:19.710,(11 24 -42 -18 14 19 27 9)
1969/12/31/18:00:19.723,(-18 23 54 21 0 -4 -30 -31)
1969/12/31/18:00:19.723,(-11 -12 -14 -7 -3 -5 -10 -41)
1969/12/31/18:00:19.731,(34 4 -42 -11 45 21 16 -5)
1969/12/31/18:00:19.731,(-53 -62 -8 -19 -86 -71 -40 -28)
1969/12/31/18:00:19.746,(9 -6 -9 -11 10 11 10 8)
1969/12/31/18:00:19.746,(10 24 6 6 2 -9 6 9)
1969/12/31/18:00:19.747,(-3 -17 -35 -35 -37 -18 -34 -20)
1969/12/31/18:00:19.747,(-21 -11 52 37 65 60 37 -1)
1969/12/31/18:00:19.769,(35 2 -46 -28 -30 -26 2 42)
1969/12/31/18:00:19.769,(-35 24 54 14 4 4 -1 -22)
1969/12/31/18:00:19.770,(-13 17 32 18 0 19 16 -38)
1969/12/31/18:00:19.770,(10 -3 -12 8 17 7 -25 3)
1969/12/31/18:00:19.792,(26 -8 1 8 -4 -14 10 -9)
1969/12/31/18:00:19.792,(4 -19 -47 -14 16 26 -4 14)
1969/12/31/18:00:19.793,(-25 18 27 12 19 -5 6 -19)
1969/12/31/18:00:19.793,(17 15 18 6 -22 8 26 42)
1969/12/31/18:00:19.806,(-25 -23 -23 -11 -22 -23 -53 -41)
1969/12/31/18:00:19.806,(-35 -23 -14 -13 -14 -23 -49 -84)
1969/12/31/18:00:19.807,(-9 -7 -4 -7 -18 -3 8 20)
1969/12/31/18:00:19.807,(-6 24 21 17 38 0 10 -4)
1969/12/31/18:00:19.829,(48 12 -4 -10 -25 -23 1 47)
1969/12/31/18:00:19.829,(7 -17 -23 -13 2 26 5 7)
1969/12/31/18:00:19.830,(-16 11 56 21 -11 -25 -27 22)
1969/12/31/18:00:19.830,(4 -24 -25 -12 11 15 -3 -27)
1969/12/31/18:00:19.852,(8 -23 -37 -17 3 -3 -12 -11)
1969/12/31/18:00:19.852,(4 38 90 41 26 14 35 56)
1969/12/31/18:00:19.853,(4 3 -9 1 4 20 33 2)
1969/12/31/18:00:19.853,(-10 -2 -15 -18 -27 -24 -15 -12)
1969/12/31/18:00:19.866,(-16 -8 -5 6 -2 8 25 19)
1969/12/31/18:00:19.866,(18 -28 -53 -24 -7 -10 -29 -10)
1969/12/31/18:00:19.867,(15 28 25 5 5 3 9 16)
1969/12/31/18:00:19.867,(-44 -33 -21 -10 -7 -18 -12 -31)
1969/12/31/18:00:19.890,(-7 -4 18 11 3 0 -3 -6)
1969/12/31/18:00:19.890,(15 4 7 1 -6 5 22 45)
1969/12/31/18:00:19.890,(-31 -3 -8 1 3 2 6 3)
1969/12/31/18:00:19.890,(8 -9 -15 -5 15 19 -9 -23)
1969/12/31/18:00:19.913,(-9 -4 3 -2 -5 -3 11 -26)
1969/12/31/18:00:19.913,(5 -9 -9 -13 -28 -26 -20 5)
1969/12/31/18:00:19.913,(22 12 -9 -4 6 0 -2 -3)
1969/12/31/18:00:19.913,(4 -6 10 11 20 19 13 18)
1969/12/31/18:00:19.950,(-2 7 5 10 0 5 17 13)
1969/12/31/18:00:19.950,(-5 15 4 -13 -36 -33 -25 -27)
1969/12/31/18:00:19.951,(-6 -14 -22 -18 -26 -16 -7 -7)
1969/12/31/18:00:19.951,(19 4 4 4 24 16 5 13)
1969/12/31/18:00:19.957,(18 27 10 7 29 29 6 57)
1969/12/31/18:00:19.957,(-37 -25 5 6 -10 -23 -7 -49)
1969/12/31/18:00:19.958,(27 3 -12 -11 -13 -12 -15 3)
1969/12/31/18:00:19.958,(-20 -17 5 -2 0 2 -12 -14)
1969/12/31/18:00:19.972,(8 8 5 4 4 2 4 -3)
1969/12/31/18:00:19.972,(-1 7 -4 2 9 13 8 4)
1969/12/31/18:00:19.973,(22 3 -7 -3 -4 3 14 18)
1969/12/31/18:00:19.973,(10 14 7 1 -1 -1 2 9)
1969/12/31/18:00:19.987,(-19 -16 -4 -2 -9 -19 -14 -9)
1969/12/31/18:00:19.987,(12 0 -8 -14 11 76 16 6)
1969/12/31/18:00:19.987,(12 6 13 16 1 -100 -3 10)
1969/12/31/18:00:19.987,(-18 -6 -5 -3 -23 40 15 -10)
1969/12/31/18:00:20.009,(-9 -2 2 -1 -1 -7 -10 -14)
1969/12/31/18:00:20.009,(50 29 3 6 10 7 13 55)
1969/12/31/18:00:20.010,(-22 -25 -10 -10 10 24 18 16)
1969/12/31/18:00:20.010,(-3 14 10 4 -18 -61 -41 -50)
1969/12/31/18:00:20.032,(-6 -19 -9 -5 13 60 -6 -5)
1969/12/31/18:00:20.032,(68 28 10 2 3 -22 1 50)
1969/12/31/18:00:20.033,(-74 -32 -10 -8 -16 12 -12 -50)
1969/12/31/18:00:20.033,(31 20 1 3 10 -30 15 23)
1969/12/31/18:00:20.047,(-45 -22 -4 -3 4 24 -41 -20)
1969/12/31/18:00:20.047,(-59 -43 -21 -12 -17 -70 -32 -37)
1969/12/31/18:00:20.047,(17 7 8 6 5 47 21 17)
1969/12/31/18:00:20.047,(-4 0 -3 -2 0 -15 -2 4)
1969/12/31/18:00:20.069,(58 41 18 13 20 48 32 60)
1969/12/31/18:00:20.069,(-10 5 1 4 -3 -65 22 -28)
1969/12/31/18:00:20.070,(11 5 3 2 -7 -26 -32 -39)
1969/12/31/18:00:20.070,(32 11 6 4 10 50 20 80)
1969/12/31/18:00:20.092,(-10 1 -2 -3 -3 3 31 -25)
1969/12/31/18:00:20.092,(-28 -10 9 15 15 23 -1 -10)
1969/12/31/18:00:20.093,(91 35 1 -2 -4 8 11 6)
1969/12/31/18:00:20.093,(-49 -40 -23 -19 -14 -29 -21 -18)
1969/12/31/18:00:20.106,(3 17 7 4 1 -32 -19 -23)
1969/12/31/18:00:20.106,(-11 -13 -15 -12 -7 35 -20 -36)
1969/12/31/18:00:20.107,(2 -10 0 -1 -15 -23 21 26)
1969/12/31/18:00:20.107,(0 -2 0 2 20 83 28 5)
1969/12/31/18:00:20.129,(-37 -21 -5 -5 -20 -76 -30 -1)
1969/12/31/18:00:20.129,(24 17 -1 -3 2 28 18 1)
1969/12/31/18:00:20.130,(21 21 10 6 3 -6 -31 20)
1969/12/31/18:00:20.130,(20 16 14 15 30 97 40 71)
1969/12/31/18:00:20.152,(-45 -27 -6 1 3 -20 11 -24)
1969/12/31/18:00:20.152,(50 21 6 7 1 -5 5 1)
1969/12/31/18:00:20.153,(-13 -11 -11 -9 -1 9 -26 6)
1969/12/31/18:00:20.153,(55 16 8 3 -3 -23 4 17)
1969/12/31/18:00:20.167,(-17 5 3 2 2 2 9 35)
1969/12/31/18:00:20.167,(-53 -19 -11 -8 -5 -5 -20 -50)
1969/12/31/18:00:20.168,(-98 -42 -20 -17 -16 -18 -22 -52)
1969/12/31/18:00:20.168,(-5 -15 -4 -6 -5 -20 -7 -13)
1969/12/31/18:00:20.189,(0 6 5 1 -4 -1 15 15)
1969/12/31/18:00:20.189,(83 33 22 19 15 19 27 70)
1969/12/31/18:00:20.190,(-5 4 -14 -10 -4 9 -7 -38)
1969/12/31/18:00:20.190,(-26 -8 -12 -10 -10 -35 -27 -15)
1969/12/31/18:00:20.220,(-12 -22 -7 -5 -5 2 -6 -10)
1969/12/31/18:00:20.220,(-44 -15 0 3 3 6 -3 -15)
1969/12/31/18:00:20.221,(48 19 19 16 14 16 21 58)
1969/12/31/18:00:20.221,(12 10 4 5 -2 -18 -12 -23)
1969/12/31/18:00:20.227,(37 12 -17 -14 -7 -3 2 0)
1969/12/31/18:00:20.227,(-13 -1 -3 -3 1 4 2 6)
1969/12/31/18:00:20.227,(-7 -8 4 5 0 3 5 58)
1969/12/31/18:00:20.227,(-34 -12 -3 0 -4 -17 4 11)
1969/12/31/18:00:20.249,(8 7 8 5 2 6 -1 -28)
1969/12/31/18:00:20.249,(-1 -10 -7 -6 -6 -6 -8 4)
1969/12/31/18:00:20.250,(-69 -34 -18 -12 -5 -3 -9 -43)
1969/12/31/18:00:20.250,(17 8 -5 -6 -8 -10 -8 7)
1969/12/31/18:00:20.272,(-22 4 10 2 2 0 -4 -23)
1969/12/31/18:00:20.272,(9 -8 -6 -3 -2 -2 -1 17)
1969/12/31/18:00:20.273,(12 3 6 4 3 4 7 -8)
1969/12/31/18:00:20.273,(-4 0 1 0 -1 -6 -4 -13)
1969/12/31/18:00:20.287,(9 -5 -13 -9 -6 -2 -3 -1)
1969/12/31/18:00:20.287,(-3 -1 -7 -5 -4 -4 -4 -6)
1969/12/31/18:00:20.287,(0 -5 3 5 3 6 5 -3)
1969/12/31/18:00:20.287,(-16 -14 -2 -4 -3 -13 -15 -31)
1969/12/31/18:00:20.309,(22 18 10 2 0 -1 2 0)
1969/12/31/18:00:20.309,(-13 11 11 6 4 3 0 2)
1969/12/31/18:00:20.310,(-8 -11 -5 -1 -1 1 0 -12)
1969/12/31/18:00:20.310,(1 -5 -10 -9 -8 -7 -1 6)
1969/12/31/18:00:20.332,(2 -4 -13 -7 -5 -5 -3 1)
1969/12/31/18:00:20.332,(-9 -2 1 -2 -1 0 0 -7)
1969/12/31/18:00:20.333,(20 1 -17 -7 -5 -3 -3 4)
1969/12/31/18:00:20.333,(-14 -6 5 1 -4 -3 -1 -8)
1969/12/31/18:00:20.355,(-11 1 17 11 2 4 1 -2)
1969/12/31/18:00:20.355,(-4 -12 -24 -14 -7 -5 -2 -2)
1969/12/31/18:00:20.356,(5 -9 11 10 6 3 4 -1)
1969/12/31/18:00:20.356,(-10 6 -5 -9 -2 -2 -4 -5)
1969/12/31/18:00:20.369,(32 39 29 12 3 0 -1 1)
1969/12/31/18:00:20.369,(-15 -48 -41 -22 -11 -6 -4 -5)
1969/12/31/18:00:20.370,(15 18 -14 -7 -3 1 8 6)
1969/12/31/18:00:20.370,(-12 24 53 28 9 -1 -9 1)
1969/12/31/18:00:20.392,(2 -9 -15 -5 -4 -1 -1 -8)
1969/12/31/18:00:20.392,(-13 -6 8 2 1 -1 -3 -5)
1969/12/31/18:00:20.393,(5 -31 -37 -14 -3 1 4 2)
1969/12/31/18:00:20.393,(12 21 11 4 0 -1 2 4)
1969/12/31/18:00:20.406,(10 10 2 -4 -3 -3 -3 3)
1969/12/31/18:00:20.406,(-3 -16 -14 -4 -4 -4 -5 -3)
1969/12/31/18:00:20.414,(0 -5 1 0 -2 -1 10 1)
1969/12/31/18:00:20.414,(-15 5 6 2 0 -2 -17 -22)
1969/12/31/18:00:20.429,(10 -18 -39 -21 -7 -4 3 11)
1969/12/31/18:00:20.429,(-10 2 4 7 5 1 1 -5)
1969/12/31/18:00:20.430,(-1 19 18 6 3 1 -3 -5)
1969/12/31/18:00:20.430,(9 -12 -6 2 -1 3 -2 2)
1969/12/31/18:00:20.452,(-8 -17 -14 -6 -4 0 0 -2)
1969/12/31/18:00:20.452,(2 0 -3 -2 -3 -3 -2 0)
1969/12/31/18:00:20.453,(9 13 29 14 4 1 -6 2)
1969/12/31/18:00:20.453,(-14 -62 -43 -19 -6 -3 7 -1)
1969/12/31/18:00:20.475,(4 57 36 12 1 -7 -4 -2)
1969/12/31/18:00:20.475,(-2 -1 5 2 3 0 5 6)
1969/12/31/18:00:20.476,(0 1 -16 -12 -3 2 -1 -4)
1969/12/31/18:00:20.476,(18 35 22 12 7 6 16 14)
1969/12/31/18:00:20.497,(-2 -6 2 -1 0 4 3 1)
1969/12/31/18:00:20.497,(4 14 13 5 3 2 6 3)
1969/12/31/18:00:20.498,(-16 -19 -6 -10 -7 -8 -11 -10)
1969/12/31/18:00:20.499,(16 -11 -36 -19 -8 -3 7 5)
1969/12/31/18:00:20.513,(-15 -15 -4 -1 3 2 3 5)
1969/12/31/18:00:20.513,(-3 11 16 15 0 0 -18 -20)
1969/12/31/18:00:20.513,(-1 -32 -40 -21 -8 3 4 3)
1969/12/31/18:00:20.513,(3 62 74 32 8 -1 -10 -12)
1969/12/31/18:00:20.526,(-15 -69 -20 -8 -5 0 -4 -6)
1969/12/31/18:00:20.526,(10 86 34 0 -2 -1 -13 -11)
1969/12/31/18:00:20.534,(-13 -41 -3 2 2 2 2 4)
1969/12/31/18:00:20.534,(-12 -24 -49 -23 -4 -1 4 -9)
1969/12/31/18:00:20.549,(4 15 5 4 2 -7 -8 5)
1969/12/31/18:00:20.549,(-24 -76 -46 -21 -4 -5 4 11)
1969/12/31/18:00:20.550,(35 40 24 8 5 -11 -3 6)
1969/12/31/18:00:20.550,(-8 12 23 16 9 -3 21 10)
1969/12/31/18:00:20.572,(2 -35 -31 -16 -6 -7 -16 0)
1969/12/31/18:00:20.572,(-21 -19 -80 -36 -10 -5 0 -15)
1969/12/31/18:00:20.573,(20 18 66 42 12 3 1 6)
1969/12/31/18:00:20.573,(-7 -38 -34 -19 -10 -3 -11 -10)
1969/12/31/18:00:20.586,(-3 18 15 13 6 6 10 -2)
1969/12/31/18:00:20.586,(8 -10 5 2 -3 2 6 8)
1969/12/31/18:00:20.594,(-12 -7 -22 -16 -6 0 -6 -3)
1969/12/31/18:00:20.594,(11 23 24 17 4 -2 -8 -7)
1969/12/31/18:00:20.609,(-1 3 -12 -7 -4 -4 0 1)
1969/12/31/18:00:20.609,(-8 -22 19 7 5 3 -3 0)
1969/12/31/18:00:20.610,(3 76 23 3 3 4 0 -1)
1969/12/31/18:00:20.610,(4 -1 3 4 3 1 1 7)
1969/12/31/18:00:20.632,(-12 -60 -17 -14 -5 -4 -6 -5)
1969/12/31/18:00:20.632,(5 28 28 15 6 3 2 -1)
1969/12/31/18:00:20.633,(-7 -12 -9 -6 -5 -3 -7 -8)
1969/12/31/18:00:20.633,(-4 -19 -33 -18 -8 1 -7 -4)
1969/12/31/18:00:20.646,(4 12 15 8 1 5 -3 -3)
1969/12/31/18:00:20.646,(3 -13 -12 -7 -3 2 -1 2)
