time,.data
1969-12-31 18:00:03.589000000,(1 1 1 0 -1 -1 0 0)
1969-12-31 18:00:03.589000000,(1 -1 -2 -3 -3 -1 1 0)
1969-12-31 18:00:03.590288067,(-1 -1 2 1 1 -1 0 0)
1969-12-31 18:00:03.590288067,(-2 0 -2 0 -3 0 -2 -2)
1969-12-31 18:00:03.605744871,(0 -1 -3 -4 -3 -2 -1 -5)
1969-12-31 18:00:03.605744871,(-1 0 -1 -1 -2 -1 0 0)
1969-12-31 18:00:03.617337474,(0 -2 -2 1 -1 -1 -1 -3)
1969-12-31 18:00:03.617337474,(1 2 3 3 -1 -2 -1 -2)
1969-12-31 18:00:03.636658478,(-8 -13 -10 -5 -4 -3 -1 0)
1969-12-31 18:00:03.636658478,(-4 -7 -10 -11 -5 -2 -4 -4)
1969-12-31 18:00:03.639234612,(1 1 3 -7 -4 -2 -3 1)
1969-12-31 18:00:03.639234612,(2 5 -1 3 2 1 1 3)
1969-12-31 18:00:03.666284019,(0 4 2 5 0 -1 -1 3)
1969-12-31 18:00:03.666284019,(1 6 5 12 5 1 0 -1)
1969-12-31 18:00:03.668860153,(-1 -1 9 6 0 0 0 2)
1969-12-31 18:00:03.668860153,(-4 -5 -11 -13 -6 -3 -4 -2)
1969-12-31 18:00:03.683028890,(-5 -6 -4 -9 -5 -1 3 0)
1969-12-31 18:00:03.683028890,(-4 -13 -34 -29 -11 -9 -11 -7)
1969-12-31 18:00:03.694621492,(-1 -5 -26 -26 -8 5 2 -3)
1969-12-31 18:00:03.694621492,(5 15 61 61 16 9 6 4)
1969-12-31 18:00:03.713942497,(6 13 -7 -23 -2 -4 3 0)
1969-12-31 18:00:03.713942497,(-18 -27 3 21 0 -3 -3 -11)
1969-12-31 18:00:03.716518631,(6 8 2 30 16 5 6 5)
1969-12-31 18:00:03.716518631,(0 2 -35 -50 -9 0 -3 1)
1969-12-31 18:00:03.743568038,(10 20 55 31 1 -4 -2 3)
1969-12-31 18:00:03.743568038,(-17 -45 -89 -62 -19 -3 6 -3)
1969-12-31 18:00:03.744856105,(0 -5 14 -18 -9 -6 -7 -4)
1969-12-31 18:00:03.744856105,(2 12 10 39 16 9 7 6)
1969-12-31 18:00:03.760312908,(-18 -33 -15 -32 -1 -2 -7 -14)
1969-12-31 18:00:03.760312908,(24 41 17 46 13 6 9 18)
1969-12-31 18:00:03.771905511,(-13 -11 51 11 -7 -5 -8 -12)
1969-12-31 18:00:03.773193578,(3 3 -42 -92 -21 -3 -3 1)
1969-12-31 18:00:03.791226516,(4 8 54 85 12 4 -2 5)
1969-12-31 18:00:03.791226516,(4 6 18 42 21 11 5 5)
1969-12-31 18:00:03.793802650,(-7 -18 -72 -35 -5 0 -1 2)
1969-12-31 18:00:03.793802650,(1 2 10 17 -2 -9 -5 -2)
1969-12-31 18:00:03.820852056,(2 -2 -1 -23 -9 -6 2 5)
1969-12-31 18:00:03.820852056,(-4 -4 -15 -25 -6 -9 2 5)
1969-12-31 18:00:03.822140123,(-4 -18 -59 -28 -13 -19 -13 -9)
1969-12-31 18:00:03.822140123,(-10 -5 -4 -31 0 -10 -5 -10)
1969-12-31 18:00:03.838884994,(4 8 21 12 0 -3 6 10)
1969-12-31 18:00:03.838884994,(7 23 25 16 6 -1 -5 -7)
1969-12-31 18:00:03.850477597,(9 13 22 28 16 6 12 17)
1969-12-31 18:00:03.850477597,(-9 -33 -82 -40 -21 -13 -10 -12)
1969-12-31 18:00:03.869798602,(-6 -14 -49 -28 -6 6 -1 0)
1969-12-31 18:00:03.869798602,(-4 8 106 38 4 2 -2 -5)
1969-12-31 18:00:03.871086669,(11 35 56 88 31 14 -1 -5)
1969-12-31 18:00:03.872374735,(2 1 -9 -2 2 6 2 1)
1969-12-31 18:00:03.898136075,(-2 7 12 11 -6 -2 -6 -7)
1969-12-31 18:00:03.898136075,(-4 -12 -31 -63 -20 0 -1 -2)
1969-12-31 18:00:03.900712209,(-8 -17 -34 -31 -12 0 -3 -8)
1969-12-31 18:00:03.900712209,(8 11 40 62 17 8 5 4)
1969-12-31 18:00:03.916169013,(0 -4 -29 -30 -6 0 -5 -6)
1969-12-31 18:00:03.916169013,(-8 -12 -17 -13 -8 -3 -5 -6)
1969-12-31 18:00:03.927761616,(-2 0 9 -2 -5 -2 -1 0)
1969-12-31 18:00:03.927761616,(-4 -2 12 4 -1 -3 -4 -2)
1969-12-31 18:00:03.947082620,(-1 -6 -29 -14 -2 1 -2 -2)
1969-12-31 18:00:03.947082620,(1 5 13 11 4 1 -2 -3)
1969-12-31 18:00:03.948370687,(3 8 8 4 -1 0 2 2)
1969-12-31 18:00:03.948370687,(-4 -10 -6 -5 -4 0 0 0)
1969-12-31 18:00:03.975420094,(-2 0 -1 6 2 -1 -4 -6)
1969-12-31 18:00:03.975420094,(8 5 0 9 3 1 4 8)
1969-12-31 18:00:03.977996228,(15 8 -4 -17 -6 -1 2 4)
1969-12-31 18:00:03.977996228,(-17 -7 2 4 -2 -1 6 6)
1969-12-31 18:00:03.992164965,(5 -14 -12 -1 1 -7 -3 -3)
1969-12-31 18:00:03.992164965,(18 18 3 3 7 -6 -7 -1)
1969-12-31 18:00:04.003757567,(-22 -19 -20 -15 -4 -2 9 2)
1969-12-31 18:00:04.003757567,(29 -1 4 1 -4 -15 -13 10)
1969-12-31 18:00:04.023078572,(12 32 6 7 12 4 12 9)
1969-12-31 18:00:04.023078572,(-35 -38 -29 -27 -16 -24 -17 -1)
1969-12-31 18:00:04.032095041,(14 12 13 1 3 1 -7 -1)
1969-12-31 18:00:04.032095041,(-26 -4 11 13 9 17 7 6)
1969-12-31 18:00:04.052704113,(1 -5 -6 -9 -4 31 32 8)
1969-12-31 18:00:04.052704113,(25 21 9 0 -6 -13 -3 4)
1969-12-31 18:00:04.053992180,(-4 -8 -1 -2 -3 1 -3 4)
1969-12-31 18:00:04.053992180,(-32 -3 10 8 4 -12 -11 -8)
1969-12-31 18:00:04.069448983,(37 6 -11 -5 -5 5 22 23)
1969-12-31 18:00:04.069448983,(0 11 5 6 7 19 -2 -8)
1969-12-31 18:00:04.082329653,(-24 -35 -16 -12 -21 -61 -8 -22)
1969-12-31 18:00:04.082329653,(-2 -5 0 -1 2 29 1 -16)
1969-12-31 18:00:04.100362591,(-10 -1 3 3 3 16 -25 -7)
1969-12-31 18:00:04.100362591,(-13 0 1 2 -8 -14 16 12)
1969-12-31 18:00:04.102938725,(59 40 10 1 9 25 -2 9)
1969-12-31 18:00:04.102938725,(-7 -3 5 8 8 19 1 6)
1969-12-31 18:00:04.129988131,(-21 -23 -14 -9 -9 -10 -17 -8)
1969-12-31 18:00:04.129988131,(19 10 9 8 -2 -44 52 -10)
1969-12-31 18:00:04.132564265,(18 0 -4 -2 -1 23 -35 29)
1969-12-31 18:00:04.132564265,(7 16 11 6 6 -2 24 38)
1969-12-31 18:00:04.148021069,(5 0 -3 -3 -10 13 2 -10)
1969-12-31 18:00:04.148021069,(-46 -20 -9 -3 2 30 -25 -32)
1969-12-31 18:00:04.159613672,(-11 -3 -4 -4 -17 -23 26 1)
1969-12-31 18:00:04.159613672,(30 20 5 4 13 8 -8 -8)
1969-12-31 18:00:04.177646610,(-14 -23 -3 2 6 -21 -6 30)
1969-12-31 18:00:04.177646610,(-8 -17 -17 -11 -8 39 24 -29)
1969-12-31 18:00:04.186663078,(-12 6 11 9 7 -52 -61 -35)
1969-12-31 18:00:04.186663078,(5 1 -10 -7 -20 -64 -23 7)
1969-12-31 18:00:04.207272150,(0 8 0 -5 -8 10 -17 -26)
1969-12-31 18:00:04.207272150,(12 -13 -9 -5 8 70 25 44)
1969-12-31 18:00:04.208560217,(-22 -3 3 3 10 13 15 0)
1969-12-31 18:00:04.208560217,(-20 -13 -10 -11 -11 -5 -3 -50)
1969-12-31 18:00:04.236897691,(30 14 9 6 3 -17 -8 23)
1969-12-31 18:00:04.236897691,(43 57 22 8 2 -19 -13 4)
1969-12-31 18:00:04.238185758,(23 -20 -10 -4 -19 -47 2 38)
1969-12-31 18:00:04.238185758,(-39 -30 -10 -7 -1 -14 -20 -37)
1969-12-31 18:00:04.254930628,(-7 3 1 0 2 44 12 -5)
1969-12-31 18:00:04.254930628,(-21 -18 -6 -7 -14 -67 -59 -8)
1969-12-31 18:00:04.263947097,(59 41 8 6 11 21 55 78)
1969-12-31 18:00:04.263947097,(19 -2 -6 -15 -26 -26 -36 -11)
1969-12-31 18:00:04.284556169,(0 3 1 0 2 -28 1 34)
1969-12-31 18:00:04.284556169,(-18 -11 -14 -9 3 71 -11 -22)
1969-12-31 18:00:04.285844236,(-46 -30 -10 -5 2 -8 -2 -29)
1969-12-31 18:00:04.285844236,(30 26 10 6 6 37 74 47)
1969-12-31 18:00:04.312893642,(28 -1 -5 1 -1 -16 24 63)
1969-12-31 18:00:04.312893642,(-50 -23 -2 0 -2 -36 -45 -67)
1969-12-31 18:00:04.315469776,(-26 -6 -2 -8 -6 52 9 -24)
1969-12-31 18:00:04.315469776,(8 1 -4 -4 -5 -15 -20 5)
1969-12-31 18:00:04.332214647,(-32 -8 2 2 4 0 -4 -45)
1969-12-31 18:00:04.332214647,(8 6 -1 4 3 -24 -5 21)
1969-12-31 18:00:04.341231116,(1 -6 -7 -7 1 28 27 1)
1969-12-31 18:00:04.341231116,(10 3 21 17 10 13 -22 30)
1969-12-31 18:00:04.361840188,(-3 5 -5 -5 1 1 -3 -35)
1969-12-31 18:00:04.361840188,(-34 -15 -1 0 -1 30 17 -12)
1969-12-31 18:00:04.363128255,(-46 -14 -12 -11 -7 -14 -27 -115)
1969-12-31 18:00:04.363128255,(6 -16 -15 -9 -9 -19 34 -28)
1969-12-31 18:00:04.390177661,(-17 -3 3 -1 -8 -31 -59 -42)
1969-12-31 18:00:04.390177661,(-5 0 0 2 4 -2 -5 -5)
1969-12-31 18:00:04.392753795,(24 11 3 0 2 21 39 54)
1969-12-31 18:00:04.392753795,(-7 0 1 6 6 21 11 -4)
1969-12-31 18:00:04.408210599,(-6 -8 3 5 10 55 15 1)
1969-12-31 18:00:04.408210599,(9 -4 -6 -6 -12 -37 7 18)
1969-12-31 18:00:04.419803202,(67 26 11 7 5 5 -4 17)
1969-12-31 18:00:04.419803202,(-39 -35 -7 -5 -5 -5 10 11)
1969-12-31 18:00:04.439124206,(-12 18 -4 -5 0 0 -29 -43)
1969-12-31 18:00:04.439124206,(25 -2 4 4 14 49 8 22)
1969-12-31 18:00:04.441700340,(-31 2 1 2 -5 -29 -22 -35)
1969-12-31 18:00:04.441700340,(12 -2 -11 -6 -5 3 -5 8)
1969-12-31 18:00:04.467461680,(-26 2 9 7 -1 -22 15 7)
1969-12-31 18:00:04.467461680,(16 7 1 3 5 -5 6 38)
1969-12-31 18:00:04.470037814,(-24 -1 1 1 0 4 -28 -49)
1969-12-31 18:00:04.470037814,(87 22 6 2 6 10 22 58)
1969-12-31 18:00:04.486782685,(-38 -28 -13 -7 -4 10 -15 25)
1969-12-31 18:00:04.486782685,(0 -19 -9 -7 -13 -35 6 -3)
1969-12-31 18:00:04.494511087,(-21 3 5 0 2 15 17 25)
1969-12-31 18:00:04.495799154,(4 5 2 2 2 -3 -19 0)
1969-12-31 18:00:04.516408225,(32 11 3 6 8 -6 22 33)
1969-12-31 18:00:04.516408225,(-15 1 -4 -5 -6 1 11 -60)
1969-12-31 18:00:04.517696292,(-20 -4 -4 -5 -8 -15 -26 -32)
1969-12-31 18:00:04.517696292,(-20 1 -5 -2 0 -5 14 -26)
1969-12-31 18:00:04.546033766,(25 -2 -3 -5 -2 -11 2 -4)
1969-12-31 18:00:04.546033766,(22 9 2 -1 -11 -34 -21 23)
1969-12-31 18:00:04.547321833,(9 5 4 5 14 32 17 37)
1969-12-31 18:00:04.547321833,(-41 -16 -8 -7 -7 -9 -51 -82)
1969-12-31 18:00:04.562778636,(10 14 8 4 -1 -12 14 3)
1969-12-31 18:00:04.562778636,(-9 1 0 -1 -2 -19 -8 12)
1969-12-31 18:00:04.582099641,(-5 -15 -12 -7 0 46 -23 -35)
1969-12-31 18:00:04.582099641,(-4 12 6 5 8 49 38 70)
1969-12-31 18:00:04.593692244,(-24 -13 -8 -7 -8 -40 -32 -78)
1969-12-31 18:00:04.593692244,(25 10 7 9 9 -2 -12 5)
1969-12-31 18:00:04.594980311,(-3 -2 -5 -8 0 28 27 3)
1969-12-31 18:00:04.594980311,(-11 5 2 12 46 23 -8 -17)
1969-12-31 18:00:04.623317785,(20 5 0 -4 -51 -51 -7 -7)
1969-12-31 18:00:04.623317785,(-24 -9 -9 -20 -34 19 -3 -25)
1969-12-31 18:00:04.624605852,(-28 -1 7 3 0 -35 -4 -19)
1969-12-31 18:00:04.624605852,(2 -5 -6 -7 -13 -67 0 52)
1969-12-31 18:00:04.640062655,(-30 -37 -9 10 72 81 27 -39)
1969-12-31 18:00:04.640062655,(21 21 6 6 10 32 25 41)
1969-12-31 18:00:04.651655258,(-24 -13 -11 -23 -86 -97 -40 -20)
1969-12-31 18:00:04.651655258,(45 25 17 15 29 64 11 11)
1969-12-31 18:00:04.670976263,(-23 -5 -4 8 39 7 -21 -1)
1969-12-31 18:00:04.670976263,(26 23 3 3 -30 -9 16 18)
1969-12-31 18:00:04.672264330,(4 -25 -3 -3 -43 -42 4 44)
1969-12-31 18:00:04.672264330,(-44 -24 -18 -23 -43 -41 -18 -30)
1969-12-31 18:00:04.700601803,(22 20 10 2 9 33 15 -17)
1969-12-31 18:00:04.700601803,(-2 -16 2 7 42 29 0 -3)
1969-12-31 18:00:04.701889870,(10 5 4 21 66 41 31 26)
1969-12-31 18:00:04.701889870,(15 16 3 3 -11 -30 -16 -18)
1969-12-31 18:00:04.717346674,(-14 -33 -22 -21 -6 12 6 20)
1969-12-31 18:00:04.717346674,(-20 9 0 14 114 92 5 -17)
1969-12-31 18:00:04.728939277,(9 22 7 -10 -83 -67 -5 -2)
1969-12-31 18:00:04.728939277,(11 -4 -19 -34 -60 -62 -35 -16)
1969-12-31 18:00:04.748260282,(-13 -16 -4 -18 -6 -19 -13 -16)
1969-12-31 18:00:04.748260282,(3 6 17 1 -29 -23 6 8)
1969-12-31 18:00:04.750836415,(26 12 12 21 71 54 29 57)
1969-12-31 18:00:04.750836415,(-32 9 7 34 66 60 3 -34)
1969-12-31 18:00:04.777885822,(26 31 -5 -7 -46 -22 42 102)
1969-12-31 18:00:04.777885822,(-21 -16 21 13 -4 -27 -28 -42)
1969-12-31 18:00:04.779173889,(18 -10 -24 -1 63 61 2 -23)
1969-12-31 18:00:04.779173889,(65 17 -20 -31 -112 -90 -7 34)
1969-12-31 18:00:04.794630693,(-41 -29 22 28 27 41 9 3)
1969-12-31 18:00:04.794630693,(49 28 -53 -24 -1 -31 5 -1)
1969-12-31 18:00:04.806223296,(19 -36 19 13 66 39 6 86)
1969-12-31 18:00:04.806223296,(-53 -55 -26 -13 -37 -1 -2 -24)
1969-12-31 18:00:04.825544300,(-68 72 92 26 -31 -33 -17 -106)
1969-12-31 18:00:04.825544300,(-27 18 47 21 -17 2 -25 -31)
1969-12-31 18:00:04.826832367,(0 -74 -87 -54 -20 -10 -15 -37)
1969-12-31 18:00:04.828120434,(-9 -53 -48 -2 87 83 38 59)
1969-12-31 18:00:04.853881774,(71 12 -64 -28 4 10 -8 -3)
1969-12-31 18:00:04.853881774,(-24 -55 3 -28 -95 -103 -15 -25)
1969-12-31 18:00:04.856457908,(-60 19 91 39 -24 -32 -45 -78)
1969-12-31 18:00:04.856457908,(-12 19 11 10 2 24 -2 -26)
1969-12-31 18:00:04.871914712,(51 -50 -70 -8 94 73 23 3)
1969-12-31 18:00:04.871914712,(37 -21 -76 -25 -19 2 42 78)
1969-12-31 18:00:04.883507314,(-55 16 37 -35 -96 -89 -44 -28)
1969-12-31 18:00:04.883507314,(56 24 13 17 36 18 9 16)
1969-12-31 18:00:04.902828319,(51 113 127 52 11 -11 4 59)
1969-12-31 18:00:04.902828319,(15 -44 -96 -34 65 41 2 5)
1969-12-31 18:00:04.905404453,(87 15 -13 11 -38 -1 24 68)
1969-12-31 18:00:04.905404453,(-30 27 -9 -5 1 -6 -9 -35)
1969-12-31 18:00:04.931165793,(-19 -45 16 28 5 -9 -7 -45)
1969-12-31 18:00:04.931165793,(69 79 26 42 60 41 38 96)
1969-12-31 18:00:04.940182261,(37 91 78 32 -16 6 13 52)
1969-12-31 18:00:04.940182261,(-65 -21 36 1 34 -5 3 -38)
1969-12-31 18:00:04.949198730,(-4 -113 -108 -68 -53 -9 -8 41)
1969-12-31 18:00:04.949198730,(-20 13 57 7 -31 -37 -5 13)
1969-12-31 18:00:04.960791333,(-110 -29 -80 -52 -74 -75 -91 -128)
1969-12-31 18:00:04.960791333,(15 -10 -23 -3 21 20 27 24)
1969-12-31 18:00:04.980112338,(4 -20 -24 -8 0 -9 -17 60)
1969-12-31 18:00:04.980112338,(-19 -22 -36 -10 20 8 -34 -21)
1969-12-31 18:00:04.981400405,(46 39 23 12 63 40 32 44)
1969-12-31 18:00:04.981400405,(-73 -3 53 28 -8 -3 -13 -109)
1969-12-31 18:00:05.008449811,(-29 -22 -45 -25 -14 -16 1 -23)
1969-12-31 18:00:05.008449811,(15 47 93 31 5 4 3 22)
1969-12-31 18:00:05.011025945,(75 19 -17 2 18 24 30 24)
1969-12-31 18:00:05.011025945,(56 60 5 -9 5 18 13 75)
1969-12-31 18:00:05.026482749,(19 28 76 55 60 9 -14 -5)
1969-12-31 18:00:05.026482749,(-15 -15 -12 -5 -64 -29 -1 -23)
1969-12-31 18:00:05.038075352,(-26 -29 -36 -20 -10 12 13 0)
1969-12-31 18:00:05.038075352,(-45 -41 17 13 28 -4 -56 -66)
1969-12-31 18:00:05.057396357,(-9 -26 -55 -36 -30 -1 -9 -38)
1969-12-31 18:00:05.057396357,(-17 -28 -37 -11 -7 -31 -3 -32)
1969-12-31 18:00:05.058684424,(-41 -9 47 12 25 35 -3 -23)
1969-12-31 18:00:05.059972491,(-25 -73 -60 -28 -24 -18 12 14)
1969-12-31 18:00:05.087021897,(72 59 16 4 3 6 25 94)
1969-12-31 18:00:05.087021897,(-55 79 88 23 17 36 14 -40)
1969-12-31 18:00:05.088309964,(57 5 -48 -2 48 20 12 8)
1969-12-31 18:00:05.088309964,(11 -4 22 -8 -112 -68 -41 -5)
1969-12-31 18:00:05.103766768,(25 -66 -36 -4 2 15 21 37)
1969-12-31 18:00:05.103766768,(24 -23 -2 11 27 -19 -21 2)
1969-12-31 18:00:05.115359370,(-39 90 35 9 13 12 24 -7)
1969-12-31 18:00:05.115359370,(-41 7 26 13 41 16 -19 -48)
1969-12-31 18:00:05.135968442,(-25 -51 -38 -41 -121 -55 3 -9)
1969-12-31 18:00:05.135968442,(-24 -44 -47 -33 4 -12 -60 -83)
1969-12-31 18:00:05.164305916,(0 -34 -25 8 68 59 25 -1)
1969-12-31 18:00:05.164305916,(63 35 2 -5 -9 1 38 74)
1969-12-31 18:00:05.165593983,(-30 14 15 12 2 -24 -32 -53)
1969-12-31 18:00:05.165593983,(33 -57 -84 -23 -20 -5 27 40)
1969-12-31 18:00:05.168170117,(-100 -37 21 20 57 27 -18 -40)
1969-12-31 18:00:05.168170117,(15 58 47 1 -77 -54 -17 -12)
1969-12-31 18:00:05.181050787,(16 106 52 -4 -33 -31 -16 -7)
1969-12-31 18:00:05.181050787,(31 -68 -78 -22 14 13 27 69)
1969-12-31 18:00:05.192643389,(37 59 60 27 26 -4 -4 52)
1969-12-31 18:00:05.192643389,(-48 43 39 35 40 47 23 -4)
1969-12-31 18:00:05.211964394,(-40 -52 0 4 15 -13 4 -6)
1969-12-31 18:00:05.211964394,(-7 20 16 -8 -18 3 -28 -10)
1969-12-31 18:00:05.214540528,(36 -20 -33 7 60 25 33 8)
1969-12-31 18:00:05.214540528,(-13 -7 -21 -24 -44 3 -9 -49)
1969-12-31 18:00:05.240301868,(-77 1 11 -25 9 -43 6 -25)
1969-12-31 18:00:05.240301868,(-31 -30 -6 13 -4 -13 -8 -21)
1969-12-31 18:00:05.242878002,(38 -64 -71 -13 42 28 -23 -2)
1969-12-31 18:00:05.242878002,(-51 21 91 34 11 -13 5 -4)
1969-12-31 18:00:05.258334805,(15 8 -57 -3 44 73 41 24)
1969-12-31 18:00:05.258334805,(-12 16 -11 -13 -39 -1 20 -33)
1969-12-31 18:00:05.277655810,(-14 90 108 16 -100 -97 -49 -35)
1969-12-31 18:00:05.277655810,(51 -103 -128 -8 127 49 -6 33)
1969-12-31 18:00:05.289248413,(26 19 -31 -50 -50 -64 -38 -37)
1969-12-31 18:00:05.289248413,(-91 24 97 48 -36 -38 -23 -62)
1969-12-31 18:00:05.296976815,(44 -35 -71 -3 -2 24 24 33)
1969-12-31 18:00:05.296976815,(118 49 19 -1 -31 -3 36 74)
1969-12-31 18:00:05.317585886,(-8 -50 -18 -7 -3 16 -13 26)
1969-12-31 18:00:05.317585886,(1 -79 -72 -17 101 84 16 3)
1969-12-31 18:00:05.320162020,(-69 -3 21 12 -33 -17 11 -6)
1969-12-31 18:00:05.320162020,(-23 -50 -30 -10 -9 -41 -18 -33)
1969-12-31 18:00:05.335618824,(1 35 30 -5 -19 6 34 25)
1969-12-31 18:00:05.335618824,(48 41 -10 -5 -2 14 -7 22)
1969-12-31 18:00:05.347211427,(14 -43 4 6 -29 -22 -2 18)
1969-12-31 18:00:05.347211427,(22 70 51 2 6 37 12 21)
1969-12-31 18:00:05.365244365,(-44 -71 -12 12 24 19 -31 -52)
1969-12-31 18:00:05.365244365,(14 74 43 6 -73 -90 -25 24)
1969-12-31 18:00:05.374260834,(-13 -22 -7 -36 19 21 -10 -72)
1969-12-31 18:00:05.374260834,(-26 -3 -71 -10 6 -5 -8 -33)
1969-12-31 18:00:05.396157972,(59 7 33 39 15 10 16 -13)
1969-12-31 18:00:05.396157972,(-38 -72 -14 -15 26 36 22 -10)
1969-12-31 18:00:05.397446039,(-26 -23 -23 -38 -66 -70 -60 -51)
1969-12-31 18:00:05.397446039,(19 99 62 23 4 1 -19 5)
1969-12-31 18:00:05.412902843,(-39 19 -3 0 -69 -41 -29 -49)
1969-12-31 18:00:05.412902843,(56 11 -5 13 94 46 23 42)
1969-12-31 18:00:05.432223848,(-12 -77 -49 -33 -40 -10 33 37)
1969-12-31 18:00:05.432223848,(-18 -89 -68 -33 -11 1 -24 23)
1969-12-31 18:00:05.442528383,(0 -4 -24 -12 -22 -5 8 36)
1969-12-31 18:00:05.442528383,(66 56 38 36 24 14 14 29)
1969-12-31 18:00:05.451544852,(2 22 7 3 17 34 53 50)
1969-12-31 18:00:05.451544852,(4 65 78 22 -28 -16 1 9)
1969-12-31 18:00:05.472153924,(20 7 8 3 7 -20 -38 -75)
1969-12-31 18:00:05.472153924,(-19 -86 -70 -45 -44 0 29 39)
1969-12-31 18:00:05.474730058,(32 127 92 59 15 -1 4 17)
1969-12-31 18:00:05.474730058,(22 -117 -94 -18 41 30 17 -6)
1969-12-31 18:00:05.501779465,(-23 -2 9 6 6 13 9 23)
1969-12-31 18:00:05.501779465,(27 23 9 18 10 0 6 20)
1969-12-31 18:00:05.503067532,(-19 -112 -128 -48 30 49 7 -62)
1969-12-31 18:00:05.503067532,(-58 28 104 1 -91 -70 -57 -37)
1969-12-31 18:00:05.519812402,(42 38 -45 -15 3 -19 -1 -2)
1969-12-31 18:00:05.519812402,(-2 62 89 36 13 36 25 15)
1969-12-31 18:00:05.528828871,(32 0 7 33 61 20 -21 21)
1969-12-31 18:00:05.528828871,(-29 -49 -46 -63 -26 -6 24 -17)
1969-12-31 18:00:05.550726010,(-3 -86 -71 8 60 54 9 25)
1969-12-31 18:00:05.550726010,(-37 2 7 -5 -18 -4 17 13)
1969-12-31 18:00:05.552014077,(-9 42 -14 -9 -16 -30 -12 3)
1969-12-31 18:00:05.552014077,(40 -29 -85 -16 -12 3 11 40)
1969-12-31 18:00:05.579063483,(11 127 127 57 24 20 8 7)
1969-12-31 18:00:05.579063483,(-2 39 48 27 10 6 1 -18)
1969-12-31 18:00:05.581639617,(1 -91 -34 -7 -47 -26 -9 51)
1969-12-31 18:00:05.581639617,(-10 15 22 14 43 1 -15 -23)
1969-12-31 18:00:05.597096420,(-15 -120 -128 -53 -1 0 -11 4)
1969-12-31 18:00:05.597096420,(-26 16 8 -32 -54 -28 -3 -39)
1969-12-31 18:00:05.606112890,(-22 -7 -1 -11 -30 -27 -14 3)
1969-12-31 18:00:05.606112890,(45 -20 -30 34 86 51 8 3)
1969-12-31 18:00:05.628010029,(95 70 45 25 -7 14 45 75)
1969-12-31 18:00:05.628010029,(-41 20 56 -15 -101 -98 -77 -90)
1969-12-31 18:00:05.635738430,(-41 -69 -75 -31 2 29 14 -8)
1969-12-31 18:00:05.635738430,(-45 -15 -17 -7 64 15 27 -20)
1969-12-31 18:00:05.656347502,(5 13 -37 -3 10 10 -4 -5)
1969-12-31 18:00:05.656347502,(36 -20 -27 9 53 41 6 42)
1969-12-31 18:00:05.658923636,(-22 95 98 17 -31 -41 -23 -91)
1969-12-31 18:00:05.658923636,(74 -10 -35 13 -12 7 30 80)
1969-12-31 18:00:05.674380440,(-121 22 76 6 -19 -4 -10 -63)
1969-12-31 18:00:05.674380440,(38 77 61 4 -18 -38 -49 -40)
1969-12-31 18:00:05.683396909,(-48 -50 -16 0 -11 -3 -3 10)
1969-12-31 18:00:05.683396909,(8 -3 -12 -9 -23 5 -23 -46)
1969-12-31 18:00:05.704005980,(-12 -63 -39 -15 -64 -29 3 13)
1969-12-31 18:00:05.704005980,(19 -83 -84 -15 96 68 36 43)
1969-12-31 18:00:05.705294047,(21 54 31 12 18 -1 22 14)
1969-12-31 18:00:05.705294047,(-39 52 22 -11 -36 -57 -86 -71)
1969-12-31 18:00:05.743936057,(-42 -69 14 17 27 5 7 -17)
1969-12-31 18:00:05.743936057,(-26 25 -10 14 15 1 -4 21)
1969-12-31 18:00:05.743936057,(78 90 81 35 79 97 59 31)
1969-12-31 18:00:05.743936057,(-9 -10 -23 -54 -118 -104 -53 -14)
1969-12-31 18:00:05.751664459,(-6 87 82 24 13 -1 -20 -8)
1969-12-31 18:00:05.751664459,(12 -124 -117 -47 -5 8 10 22)
1969-12-31 18:00:05.760680927,(47 80 82 58 35 18 8 30)
1969-12-31 18:00:05.760680927,(19 -43 11 29 36 43 27 25)
1969-12-31 18:00:05.781289999,(-31 6 17 6 5 -6 -3 -11)
1969-12-31 18:00:05.781289999,(-11 -93 -58 -24 -19 -2 10 4)
1969-12-31 18:00:05.781289999,(8 -32 -74 -40 -64 -33 -18 -8)
1969-12-31 18:00:05.782578066,(13 30 7 -18 4 5 30 6)
1969-12-31 18:00:05.821220075,(76 47 -9 38 103 52 44 97)
1969-12-31 18:00:05.821220075,(-34 14 88 44 4 5 -14 4)
1969-12-31 18:00:05.821220075,(-69 -128 -128 -77 -31 -34 -41 -47)
1969-12-31 18:00:05.821220075,(42 60 18 20 -14 -19 15 17)
1969-12-31 18:00:05.828948477,(10 88 87 46 -7 -6 1 -7)
1969-12-31 18:00:05.828948477,(60 115 56 25 34 29 20 29)
1969-12-31 18:00:05.837964946,(-43 -59 -39 -39 -83 -58 -18 -28)
1969-12-31 18:00:05.837964946,(-16 -69 -52 -13 35 44 14 52)
1969-12-31 18:00:05.858574018,(-36 -8 1 -22 -20 -34 -35 -72)
1969-12-31 18:00:05.858574018,(44 63 -10 12 24 27 18 34)
1969-12-31 18:00:05.859862085,(8 77 127 64 54 46 -32 45)
1969-12-31 18:00:05.859862085,(21 -56 -51 -23 -57 -50 0 24)
1969-12-31 18:00:05.886911491,(-11 -29 -40 -49 -20 5 -5 -2)
1969-12-31 18:00:05.886911491,(-10 -49 -47 -23 -17 -18 -25 -54)
1969-12-31 18:00:05.888199558,(27 -51 -23 31 51 27 43 62)
1969-12-31 18:00:05.888199558,(-37 46 41 17 -19 21 10 -21)
1969-12-31 18:00:05.904944429,(5 -25 -16 -1 34 13 2 21)
1969-12-31 18:00:05.904944429,(5 7 20 -5 -80 -38 10 14)
1969-12-31 18:00:05.915248965,(8 -32 -77 -49 -6 -26 -20 -24)
1969-12-31 18:00:05.915248965,(-53 42 67 34 38 32 -4 -40)
1969-12-31 18:00:05.935858037,(-8 -66 -85 -40 -20 -20 5 -12)
1969-12-31 18:00:05.935858037,(8 77 74 41 4 13 3 20)
1969-12-31 18:00:05.937146104,(37 35 41 12 8 22 24 -36)
1969-12-31 18:00:05.937146104,(-38 -37 -7 -7 1 -5 -6 -19)
1969-12-31 18:00:05.964195510,(13 6 5 -14 -18 -38 -36 -10)
1969-12-31 18:00:05.964195510,(-36 -43 -55 -18 -19 -34 -22 -37)
1969-12-31 18:00:05.965483577,(22 54 39 18 34 9 -13 23)
1969-12-31 18:00:05.965483577,(-22 -54 -44 -22 94 54 49 17)
1969-12-31 18:00:05.983516515,(20 -22 -21 3 -10 21 19 3)
1969-12-31 18:00:05.983516515,(-12 -19 -14 -9 -20 -24 -25 -37)
1969-12-31 18:00:05.992532984,(19 19 -6 4 -21 -24 -2 -1)
1969-12-31 18:00:05.992532984,(19 8 -2 -10 -1 -14 -8 -8)
1969-12-31 18:00:06.014430122,(22 0 5 11 18 1 -2 24)
1969-12-31 18:00:06.014430122,(-55 -34 -38 -8 -2 -3 -7 -20)
1969-12-31 18:00:06.015718189,(-56 -72 -17 -18 -21 -9 0 -19)
1969-12-31 18:00:06.015718189,(98 110 95 57 36 28 21 59)
1969-12-31 18:00:06.041479529,(-6 39 72 22 -37 -11 14 4)
1969-12-31 18:00:06.041479529,(3 -47 -34 -41 -32 -11 -23 -17)
1969-12-31 18:00:06.042767596,(-113 -98 -86 -34 10 -16 -30 -56)
1969-12-31 18:00:06.042767596,(74 6 -23 -5 -30 -34 -4 8)
1969-12-31 18:00:06.060800534,(16 57 54 19 4 5 -3 0)
1969-12-31 18:00:06.060800534,(13 6 6 -15 -38 -12 7 4)
1969-12-31 18:00:06.069817002,(32 7 -12 10 53 18 17 46)
1969-12-31 18:00:06.069817002,(-42 -9 2 6 15 4 -20 -23)
1969-12-31 18:00:06.090426074,(-25 -44 -52 -34 25 13 6 -22)
1969-12-31 18:00:06.090426074,(-6 -7 -4 -10 9 20 -3 0)
1969-12-31 18:00:06.091714141,(-6 38 33 51 2 -24 -10 -9)
1969-12-31 18:00:06.091714141,(6 1 -10 -7 -35 15 22 3)
1969-12-31 18:00:06.118763548,(19 -13 -14 6 47 4 0 18)
1969-12-31 18:00:06.118763548,(6 9 9 -6 0 9 7 7)
1969-12-31 18:00:06.120051615,(41 26 8 -13 2 16 21 49)
1969-12-31 18:00:06.120051615,(34 -5 -4 -15 -7 -10 -5 26)
1969-12-31 18:00:06.148389088,(-85 -34 -17 2 -9 -21 -39 -80)
1969-12-31 18:00:06.149677155,(-30 -24 -5 -4 5 10 -28 -31)
1969-12-31 18:00:06.149677155,(26 31 15 4 -11 -7 13 39)
1969-12-31 18:00:06.149677155,(6 -22 -22 -12 -17 -32 -37 -40)
1969-12-31 18:00:06.178014629,(48 24 3 -10 -22 5 -4 54)
1969-12-31 18:00:06.178014629,(45 33 15 19 27 0 23 18)
1969-12-31 18:00:06.179302696,(-53 -22 -8 -6 -20 -18 -19 -49)
1969-12-31 18:00:06.179302696,(-10 -21 -1 1 1 16 9 8)
1969-12-31 18:00:06.196047566,(-50 6 5 4 -11 -5 -2 -44)
1969-12-31 18:00:06.196047566,(39 27 7 10 21 3 6 13)
1969-12-31 18:00:06.197335633,(-40 -23 -27 -27 -29 -6 -22 -42)
1969-12-31 18:00:06.197335633,(12 -13 9 6 -3 2 18 28)
1969-12-31 18:00:06.215368571,(-31 -42 -32 -18 -19 -11 -18 -15)
1969-12-31 18:00:06.215368571,(-58 -17 -6 -2 12 -2 4 -14)
1969-12-31 18:00:06.225673107,(46 51 36 15 2 14 26 37)
1969-12-31 18:00:06.225673107,(-63 -35 -25 -9 -5 18 -14 -55)
1969-12-31 18:00:06.244994112,(105 40 1 -3 -12 -33 14 37)
1969-12-31 18:00:06.244994112,(-116 -47 -8 -6 -3 -12 -19 -55)
1969-12-31 18:00:06.244994112,(4 -11 -18 -15 -19 -12 -10 -12)
1969-12-31 18:00:06.244994112,(13 29 27 22 15 12 17 43)
1969-12-31 18:00:06.273331585,(-54 -13 5 7 2 8 -24 -44)
1969-12-31 18:00:06.273331585,(94 55 21 14 10 9 31 48)
1969-12-31 18:00:06.274619652,(-42 -32 -29 -20 -18 -21 -28 -44)
1969-12-31 18:00:06.274619652,(14 8 6 7 7 10 5 12)
1969-12-31 18:00:06.292652590,(6 -8 -8 -14 -11 7 7 13)
1969-12-31 18:00:06.292652590,(6 3 -5 -5 1 -2 2 13)
1969-12-31 18:00:06.302957126,(44 30 18 19 7 8 -2 6)
1969-12-31 18:00:06.302957126,(-20 -4 1 7 1 -3 0 -9)
1969-12-31 18:00:06.322278130,(15 6 2 3 0 6 4 16)
1969-12-31 18:00:06.322278130,(-24 -23 -17 -19 -5 -7 -10 -14)
1969-12-31 18:00:06.323566197,(30 11 33 4 -3 6 13 39)
1969-12-31 18:00:06.323566197,(-17 2 -2 30 0 -10 -1 30)
1969-12-31 18:00:06.350615604,(24 13 17 13 11 7 8 1)
1969-12-31 18:00:06.350615604,(-28 -23 -29 -11 -1 -3 -7 -10)
1969-12-31 18:00:06.351903671,(24 5 -10 -15 -4 0 4 7)
1969-12-31 18:00:06.351903671,(-41 -25 -10 -25 -10 -8 -5 -11)
1969-12-31 18:00:06.371224676,(9 2 1 4 -4 -1 -1 5)
1969-12-31 18:00:06.371224676,(-31 -24 -19 -3 -2 -2 -2 -4)
1969-12-31 18:00:06.380241145,(33 34 28 4 0 -4 0 -2)
1969-12-31 18:00:06.380241145,(-44 -17 -6 -11 -4 -8 -10 -35)
1969-12-31 18:00:06.399562149,(23 9 -2 0 -2 4 5 19)
1969-12-31 18:00:06.399562149,(2 7 30 12 1 -3 -4 -16)
1969-12-31 18:00:06.399562149,(6 -16 -10 11 -2 -2 3 7)
1969-12-31 18:00:06.400850216,(-5 5 -2 -5 0 2 -2 -15)
1969-12-31 18:00:06.427899623,(-11 -26 -34 -28 -10 -7 -3 6)
1969-12-31 18:00:06.427899623,(-1 -3 -2 0 3 8 6 9)
1969-12-31 18:00:06.429187690,(-21 31 12 5 -1 -6 -10 -21)
1969-12-31 18:00:06.429187690,(6 -2 -19 -19 -12 -7 -12 -11)
1969-12-31 18:00:06.448508694,(-7 31 46 27 5 2 6 -2)
1969-12-31 18:00:06.448508694,(6 -28 -9 -3 2 0 2 0)
1969-12-31 18:00:06.457525163,(-3 -8 -5 -2 3 7 10 9)
1969-12-31 18:00:06.457525163,(-5 1 -8 -1 0 -6 2 -7)
1969-12-31 18:00:06.476846168,(25 11 -10 -13 -8 -8 -18 4)
1969-12-31 18:00:06.476846168,(15 41 31 20 8 -1 -7 1)
1969-12-31 18:00:06.478134235,(-7 -19 -11 -1 0 9 22 6)
1969-12-31 18:00:06.478134235,(-9 -45 -31 -17 -9 -6 -18 -21)
1969-12-31 18:00:06.506471709,(-3 47 63 20 6 4 13 14)
1969-12-31 18:00:06.506471709,(18 45 43 21 11 7 -5 -5)
1969-12-31 18:00:06.507759776,(6 -19 -13 4 -6 -8 11 1)
1969-12-31 18:00:06.507759776,(-4 26 28 16 9 8 -20 -6)
1969-12-31 18:00:06.536097249,(-8 -37 -30 -12 -8 -1 3 -2)
1969-12-31 18:00:06.536097249,(-5 -26 -40 -20 -10 -6 -1 -1)
1969-12-31 18:00:06.536097249,(-11 -37 -22 -19 -3 4 -2 -1)
1969-12-31 18:00:06.536097249,(11 24 -7 -14 -4 -1 10 10)
1969-12-31 18:00:06.554130187,(-16 -24 -10 -1 1 -1 -2 -8)
1969-12-31 18:00:06.554130187,(9 30 40 23 1 -5 0 -1)
1969-12-31 18:00:06.555418254,(2 14 0 8 9 6 -14 -8)
1969-12-31 18:00:06.555418254,(0 -32 -1 9 3 2 24 14)
1969-12-31 18:00:06.582467660,(2 9 -19 -14 -2 0 -9 6)
1969-12-31 18:00:06.582467660,(-16 -31 -29 -8 1 6 -3 -14)
1969-12-31 18:00:06.583755727,(-5 13 8 -7 -6 -4 2 -1)
1969-12-31 18:00:06.583755727,(5 17 7 -1 -4 -7 -18 -7)
1969-12-31 18:00:06.601788665,(-8 -21 -5 0 4 7 17 7)
1969-12-31 18:00:06.601788665,(6 -19 -36 -19 -8 -2 4 4)
1969-12-31 18:00:06.612093201,(3 29 29 16 2 -6 -24 -13)
1969-12-31 18:00:06.612093201,(-17 0 11 1 -1 0 10 -3)
1969-12-31 18:00:06.631414206,(-3 -13 -5 2 -4 3 2 -4)
1969-12-31 18:00:06.631414206,(-2 -24 -24 -16 -5 -2 0 5)
1969-12-31 18:00:06.631414206,(9 28 11 7 2 3 -2 -5)
1969-12-31 18:00:06.632702273,(3 7 10 11 0 -2 1 4)
1969-12-31 18:00:06.659751679,(-13 -24 -26 -16 -6 -4 -7 -5)
1969-12-31 18:00:06.659751679,(0 8 -6 0 -2 -3 -1 0)
1969-12-31 18:00:06.661039746,(-10 -14 -4 -16 -8 -3 7 1)
1969-12-31 18:00:06.661039746,(-6 10 -4 3 4 -3 -18 -7)
1969-12-31 18:00:06.690665287,(14 -18 -13 2 4 2 -3 2)
1969-12-31 18:00:06.690665287,(-2 -11 -3 7 1 1 5 0)
1969-12-31 18:00:06.690665287,(-12 10 22 1 -1 -4 -6 -5)
1969-12-31 18:00:06.690665287,(7 0 -5 -4 -2 2 6 5)
1969-12-31 18:00:06.708698224,(-11 -14 -4 -3 -4 -5 -6 -9)
1969-12-31 18:00:06.708698224,(3 18 -27 -24 -8 -6 1 3)
1969-12-31 18:00:06.708698224,(4 -12 22 14 4 0 3 5)
1969-12-31 18:00:06.708698224,(-13 -36 -8 -9 -5 0 4 1)
1969-12-31 18:00:06.737035698,(13 61 65 36 13 0 0 -3)
1969-12-31 18:00:06.737035698,(-17 -41 -28 -18 -10 -7 -16 -5)
1969-12-31 18:00:06.738323765,(-2 0 -38 -20 -8 -4 -4 -2)
1969-12-31 18:00:06.738323765,(12 22 -33 -15 -7 -3 5 10)
1969-12-31 18:00:06.767949305,(16 2 43 35 10 0 1 3)
1969-12-31 18:00:06.767949305,(-10 -9 25 12 5 0 3 -2)
1969-12-31 18:00:06.769237372,(8 1 3 4 2 -2 0 5)
1969-12-31 18:00:06.769237372,(-10 -3 10 0 1 -2 3 -1)
1969-12-31 18:00:06.785982243,(4 26 -7 -19 -6 -8 -1 2)
1969-12-31 18:00:06.785982243,(-1 4 6 -1 2 -1 0 -1)
1969-12-31 18:00:06.785982243,(4 -7 -18 -9 -1 -4 -5 2)
1969-12-31 18:00:06.787270310,(10 10 -7 -5 1 0 -1 -4)
1969-12-31 18:00:06.814319717,(-20 -35 -26 -7 -2 1 0 -5)
1969-12-31 18:00:06.814319717,(7 21 33 13 5 4 -12 -10)
1969-12-31 18:00:06.815607784,(1 22 16 9 1 0 -6 -7)
1969-12-31 18:00:06.815607784,(2 3 7 4 0 3 0 -5)
1969-12-31 18:00:06.845233323,(-6 -17 -18 -14 -5 2 -1 -3)
1969-12-31 18:00:06.845233323,(4 22 5 2 -3 1 -4 -6)
1969-12-31 18:00:06.845233323,(-9 -18 -16 -3 -3 4 2 -4)
1969-12-31 18:00:06.845233323,(7 0 14 12 3 1 -18 -18)
1969-12-31 18:00:06.845233323,(0 2 -1 -2 -2 0 1 2)
1969-12-31 18:00:06.845233323,(2 1 6 8 3 0 0 1)
1969-12-31 18:00:06.854249793,(-8 -12 -18 -16 -8 -4 -4 -6)
1969-12-31 18:00:06.854249793,(-1 -1 -7 -10 -2 -1 -4 -4)
1969-12-31 18:00:06.855537860,(1 6 6 7 4 3 6 3)
1969-12-31 18:00:06.855537860,(3 1 4 7 2 3 1 1)
1969-12-31 18:00:06.883875334,(-1 0 5 2 1 -2 -2 2)
1969-12-31 18:00:06.883875334,(-3 -1 -6 -5 -2 -4 -2 -1)
1969-12-31 18:00:06.885163400,(-2 -10 -13 -12 -5 -3 -3 -3)
1969-12-31 18:00:06.885163400,(-2 0 2 3 1 0 1 1)
1969-12-31 18:00:06.900620204,(-1 -3 -3 -8 -4 -1 -3 -5)
1969-12-31 18:00:06.900620204,(0 9 -11 -5 -2 -1 -1 0)
1969-12-31 18:00:06.912212807,(-2 -10 13 12 1 -1 1 1)
1969-12-31 18:00:06.912212807,(3 15 22 20 6 3 4 5)
1969-12-31 18:00:06.931533812,(0 1 -3 2 -1 -1 -3 -7)
1969-12-31 18:00:06.931533812,(1 0 -13 -18 -6 -2 -2 -2)
1969-12-31 18:00:06.934109946,(-4 -3 -27 -25 -9 -4 -3 -4)
1969-12-31 18:00:06.934109946,(-4 -8 -17 -10 -5 -3 -4 -5)
1969-12-31 18:00:06.959871285,(1 4 41 -1 -1 0 -1 0)
1969-12-31 18:00:06.959871285,(6 15 17 31 10 2 0 2)
1969-12-31 18:00:06.961159352,(0 -2 1 19 1 2 2 3)
1969-12-31 18:00:06.961159352,(-7 -16 -31 -31 -9 -4 -2 -4)
1969-12-31 18:00:06.988208759,(1 -2 -17 -8 -2 -3 -2 0)
1969-12-31 18:00:06.988208759,(-10 -28 -51 -67 -20 -7 -6 -7)
1969-12-31 18:00:06.989496826,(5 19 39 38 8 0 -1 1)
1969-12-31 18:00:06.989496826,(7 9 75 67 23 6 5 6)
1969-12-31 18:00:07.007529764,(-1 -10 -29 -29 -7 -2 0 3)
1969-12-31 18:00:07.007529764,(2 -23 28 55 12 5 5 4)
1969-12-31 18:00:07.008817831,(4 37 -63 -77 -16 -5 -2 -2)
1969-12-31 18:00:07.008817831,(-15 -16 -15 -35 -19 -6 -4 -7)
1969-12-31 18:00:07.037155304,(3 5 -69 -11 1 -2 0 0)
1969-12-31 18:00:07.037155304,(-6 -2 46 -9 -4 -1 -1 -3)
1969-12-31 18:00:07.037155304,(12 -7 82 75 12 5 5 7)
1969-12-31 18:00:07.037155304,(20 76 39 69 36 13 7 7)
1969-12-31 18:00:07.065492778,(-6 6 41 47 10 5 3 3)
1969-12-31 18:00:07.066780845,(4 -10 -107 -78 -21 -9 -4 -1)
1969-12-31 18:00:07.066780845,(13 20 20 4 -4 -3 -4 -1)
1969-12-31 18:00:07.066780845,(-14 -54 7 5 0 -2 -1 -1)
1969-12-31 18:00:07.087389916,(-2 0 4 11 0 0 0 -1)
1969-12-31 18:00:07.087389916,(-18 -5 -16 0 0 -3 -1 -5)
1969-12-31 18:00:07.088677983,(-3 -24 -34 -50 -15 -8 -6 -5)
1969-12-31 18:00:07.088677983,(-5 -13 -41 -30 -15 -12 -9 -8)
1969-12-31 18:00:07.114439322,(-12 -12 -34 -53 -12 -3 -2 -5)
1969-12-31 18:00:07.114439322,(-2 12 73 31 10 4 0 0)
1969-12-31 18:00:07.115727390,(-2 6 21 47 16 13 4 4)
1969-12-31 18:00:07.115727390,(11 -1 -39 -27 -7 3 -2 2)
1969-12-31 18:00:07.142776796,(3 -5 -10 5 0 -5 -4 -2)
1969-12-31 18:00:07.142776796,(11 29 84 36 14 2 7 9)
1969-12-31 18:00:07.144064863,(-11 -20 -46 -24 -3 -11 -1 -4)
1969-12-31 18:00:07.144064863,(-5 -1 -7 -18 -8 -11 -4 -7)
1969-12-31 18:00:07.162097801,(6 -4 -6 -8 -4 2 4 -2)
1969-12-31 18:00:07.162097801,(-9 -7 -12 6 -10 -23 -16 -10)
1969-12-31 18:00:07.163385868,(12 8 6 -2 0 39 -1 -1)
1969-12-31 18:00:07.163385868,(-11 -13 -11 -12 -14 -1 -2 -2)
1969-12-31 18:00:07.191723342,(11 1 11 5 0 9 2 2)
1969-12-31 18:00:07.191723342,(12 12 0 16 5 -18 -9 7)
1969-12-31 18:00:07.193011409,(-2 -5 -5 -6 0 -27 -13 6)
1969-12-31 18:00:07.193011409,(-4 -2 -16 -21 -8 -33 12 0)
1969-12-31 18:00:07.220060815,(-6 -5 15 14 3 -11 -27 -8)
1969-12-31 18:00:07.220060815,(19 25 -4 -2 3 -26 1 8)
1969-12-31 18:00:07.221348882,(-23 -21 -12 -7 3 -5 -13 -9)
1969-12-31 18:00:07.221348882,(-22 -15 2 2 8 63 27 -1)
1969-12-31 18:00:07.239381820,(17 13 17 10 3 -32 -14 3)
1969-12-31 18:00:07.239381820,(11 3 -8 -8 -7 42 14 8)
1969-12-31 18:00:07.240669887,(-30 -11 3 -2 -2 -10 16 -5)
1969-12-31 18:00:07.240669887,(0 -3 6 -7 -10 -4 19 0)
1969-12-31 18:00:07.269007360,(-23 3 17 13 2 11 -34 -18)
1969-12-31 18:00:07.269007360,(40 9 -7 -2 4 -4 -12 4)
1969-12-31 18:00:07.270295427,(2 3 5 2 -11 5 -44 -29)
1969-12-31 18:00:07.270295427,(-3 5 5 1 5 26 11 -15)
1969-12-31 18:00:07.297344834,(-20 -26 -8 0 10 29 -42 -10)
1969-12-31 18:00:07.297344834,(-4 1 -2 9 -8 -22 65 23)
1969-12-31 18:00:07.298632901,(-26 -20 -8 -3 -1 13 -1 -15)
1969-12-31 18:00:07.298632901,(8 15 6 -1 -24 -44 -38 -17)
1969-12-31 18:00:07.316665839,(43 23 6 7 54 36 48 10)
1969-12-31 18:00:07.316665839,(-57 -29 -10 -4 -3 0 -62 -10)
1969-12-31 18:00:07.317953906,(36 13 -2 -3 0 -22 11 -2)
1969-12-31 18:00:07.317953906,(4 2 -1 1 -8 4 -2 51)
1969-12-31 18:00:07.346291379,(-10 4 5 -1 -10 37 60 3)
1969-12-31 18:00:07.346291379,(2 -10 -8 -5 -12 -57 -57 -6)
1969-12-31 18:00:07.347579446,(3 2 -2 -5 6 39 32 -17)
1969-12-31 18:00:07.347579446,(48 10 5 2 0 -28 -20 31)
1969-12-31 18:00:07.374628853,(-44 -16 -9 -6 -15 -6 -18 -21)
1969-12-31 18:00:07.374628853,(-4 -4 -8 -7 2 -6 21 -13)
1969-12-31 18:00:07.375916920,(13 -5 -3 -8 -9 43 -4 41)
1969-12-31 18:00:07.375916920,(-12 -7 -1 5 7 -49 2 -38)
1969-12-31 18:00:07.393949857,(-42 -12 -9 -8 -6 27 5 4)
1969-12-31 18:00:07.393949857,(-2 4 -1 -2 -12 -16 14 3)
1969-12-31 18:00:07.395237924,(-2 -3 -4 -1 2 -40 -47 -33)
1969-12-31 18:00:07.395237924,(-12 -7 -3 -2 9 87 7 -15)
1969-12-31 18:00:07.423575398,(19 8 5 -1 -17 -76 19 25)
1969-12-31 18:00:07.423575398,(-5 1 -1 -2 4 25 3 -14)
1969-12-31 18:00:07.424863465,(15 11 7 5 0 42 3 -4)
1969-12-31 18:00:07.424863465,(-32 -3 -4 -6 -23 -31 -31 -20)
1969-12-31 18:00:07.451912871,(-14 -15 -10 -2 2 -23 8 -24)
1969-12-31 18:00:07.451912871,(12 -1 3 3 6 25 -29 -25)
1969-12-31 18:00:07.453200938,(-5 5 4 3 12 38 13 -17)
1969-12-31 18:00:07.453200938,(19 5 -3 -5 -15 -21 -8 12)
1969-12-31 18:00:07.471233876,(29 11 10 3 -2 12 34 39)
1969-12-31 18:00:07.471233876,(-17 -2 4 4 7 19 -10 -47)
1969-12-31 18:00:07.472521943,(-2 -2 -8 -8 -10 -43 14 6)
1969-12-31 18:00:07.472521943,(0 -7 -9 -8 3 -18 11 16)
1969-12-31 18:00:07.500859417,(7 15 17 11 -9 -6 -27 -33)
1969-12-31 18:00:07.500859417,(-29 -35 -22 -15 4 24 25 13)
1969-12-31 18:00:07.502147484,(9 12 14 10 3 -34 12 64)
1969-12-31 18:00:07.502147484,(5 9 0 -2 7 6 11 -4)
1969-12-31 18:00:07.518892354,(31 17 5 6 -2 2 0 -7)
1969-12-31 18:00:07.518892354,(-34 -27 -10 -6 -6 23 2 -14)
1969-12-31 18:00:07.529196890,(-27 -14 -10 -9 -2 -10 -5 9)
1969-12-31 18:00:07.529196890,(-3 -3 3 8 3 -21 -20 -23)
1969-12-31 18:00:07.548517895,(9 11 1 0 6 59 23 24)
1969-12-31 18:00:07.548517895,(32 8 0 -2 -3 -14 11 50)
1969-12-31 18:00:07.549805962,(-29 -15 -12 -12 -12 12 29 16)
1969-12-31 18:00:07.549805962,(34 13 3 5 22 3 -72 25)
1969-12-31 18:00:07.578143435,(-37 -22 -11 -10 -7 4 -3 -62)
1969-12-31 18:00:07.578143435,(17 14 10 5 -12 -41 16 20)
1969-12-31 18:00:07.578143435,(11 2 -2 4 20 2 35 25)
1969-12-31 18:00:07.578143435,(-9 -4 -2 -4 -1 19 7 -17)
1969-12-31 18:00:07.596176373,(39 9 7 9 6 -2 28 90)
1969-12-31 18:00:07.596176373,(-29 -13 -9 -9 -13 -28 -29 -53)
1969-12-31 18:00:07.605192841,(29 24 14 9 3 21 -1 4)
1969-12-31 18:00:07.605192841,(-49 -40 -19 -10 -1 53 21 -57)
1969-12-31 18:00:07.625801914,(22 11 8 0 -2 -34 -32 23)
1969-12-31 18:00:07.625801914,(16 12 -6 -6 -6 7 23 -11)
1969-12-31 18:00:07.627089981,(-1 -16 -2 0 -4 -5 -21 -20)
1969-12-31 18:00:07.627089981,(14 8 10 6 9 -1 15 41)
1969-12-31 18:00:07.655427454,(-17 -22 -18 -16 -15 18 12 -46)
1969-12-31 18:00:07.655427454,(0 8 7 5 6 8 -2 2)
1969-12-31 18:00:07.655427454,(18 8 -1 -1 -9 -54 -12 17)
1969-12-31 18:00:07.655427454,(10 5 5 6 8 -6 5 -45)
1969-12-31 18:00:07.683764928,(-1 -6 -3 -3 -3 -19 4 0)
1969-12-31 18:00:07.683764928,(11 7 6 6 7 14 28 78)
1969-12-31 18:00:07.685052995,(-41 -19 -7 -2 0 3 0 -27)
1969-12-31 18:00:07.685052995,(8 6 2 0 -9 -30 29 25)
1969-12-31 18:00:07.703085932,(33 10 1 0 1 26 -31 9)
1969-12-31 18:00:07.703085932,(-23 1 8 7 14 11 -14 -15)
1969-12-31 18:00:07.704373999,(-46 -24 -22 -21 -5 55 -55 -67)
1969-12-31 18:00:07.704373999,(-20 -2 -4 -5 -15 -68 -27 -8)
1969-12-31 18:00:07.732711473,(-36 -23 -9 -9 -17 -30 12 10)
1969-12-31 18:00:07.732711473,(20 5 3 1 6 31 4 -24)
1969-12-31 18:00:07.733999540,(-7 -12 -6 -6 -9 -11 -16 -48)
1969-12-31 18:00:07.733999540,(17 16 2 -1 2 23 11 7)
1969-12-31 18:00:07.761048947,(-15 5 3 7 12 17 24 36)
1969-12-31 18:00:07.761048947,(-31 -29 -21 -19 -25 -70 -68 -67)
1969-12-31 18:00:07.762337014,(39 22 14 10 5 -9 14 0)
1969-12-31 18:00:07.762337014,(-22 -16 -11 -9 -9 -9 -19 -60)
1969-12-31 18:00:07.780369951,(-39 -16 -8 -7 4 44 -11 -27)
1969-12-31 18:00:07.780369951,(39 24 11 9 3 -16 34 60)
1969-12-31 18:00:07.781658018,(-20 2 -2 -3 1 10 -6 16)
1969-12-31 18:00:07.781658018,(-14 -28 -15 -10 -5 18 28 76)
1969-12-31 18:00:07.809995492,(0 8 8 5 7 -5 -25 -25)
1969-12-31 18:00:07.809995492,(64 20 8 4 5 -9 15 23)
1969-12-31 18:00:07.811283559,(-53 -26 -12 -9 -6 18 -40 -6)
1969-12-31 18:00:07.811283559,(-23 20 10 7 1 -2 10 6)
1969-12-31 18:00:07.839621032,(-25 -42 -23 -19 -14 -17 43 23)
1969-12-31 18:00:07.839621032,(-20 6 -4 -3 -5 4 -20 -38)
1969-12-31 18:00:07.840909099,(44 18 8 8 0 -19 48 63)
1969-12-31 18:00:07.840909099,(-7 -3 3 4 4 7 -24 22)
1969-12-31 18:00:07.857653970,(4 -2 -5 -5 -4 -23 -23 -56)
1969-12-31 18:00:07.857653970,(-34 -18 -11 -10 -6 28 25 -5)
1969-12-31 18:00:07.858942037,(0 3 7 4 2 -3 -1 -18)
1969-12-31 18:00:07.858942037,(-12 -31 -16 -10 -1 23 3 -6)
1969-12-31 18:00:07.887279511,(38 35 14 8 -10 -59 -4 9)
1969-12-31 18:00:07.887279511,(38 4 5 5 9 16 5 48)
1969-12-31 18:00:07.888567578,(18 -4 -7 -4 -7 -53 -21 26)
1969-12-31 18:00:07.888567578,(34 22 16 16 15 -22 16 46)
1969-12-31 18:00:07.916905051,(24 18 7 7 1 -42 -22 42)
1969-12-31 18:00:07.916905051,(-36 -21 -13 -8 -1 60 36 -7)
1969-12-31 18:00:07.918193118,(70 40 16 11 8 -16 37 68)
1969-12-31 18:00:07.918193118,(-56 -18 -5 -2 -6 -16 -28 -85)
1969-12-31 18:00:07.934937989,(-36 -23 -13 -11 -15 11 -3 -8)
1969-12-31 18:00:07.934937989,(1 23 17 11 9 -7 -57 -47)
1969-12-31 18:00:07.936226056,(-16 -10 -5 -4 2 25 30 8)
1969-12-31 18:00:07.936226056,(19 -4 -3 -4 -3 14 26 66)
1969-12-31 18:00:07.964563529,(17 10 4 4 5 16 -7 -20)
1969-12-31 18:00:07.964563529,(-7 -9 -4 3 3 -3 -5 -26)
1969-12-31 18:00:07.965851596,(10 19 6 17 57 63 -17 -3)
1969-12-31 18:00:07.965851596,(11 -22 1 -12 -53 -35 -16 -13)
1969-12-31 18:00:07.994189070,(-22 -5 -5 -15 -40 -73 -68 -36)
1969-12-31 18:00:07.994189070,(18 5 6 5 3 2 19 53)
1969-12-31 18:00:07.995477137,(-4 12 11 12 -8 4 6 -23)
1969-12-31 18:00:07.995477137,(-23 9 2 6 12 -6 1 -49)
1969-12-31 18:00:08.012222008,(26 3 1 11 61 25 1 77)
1969-12-31 18:00:08.012222008,(-82 -44 -31 -47 -57 -19 -51 -76)
1969-12-31 18:00:08.013510075,(3 2 -5 -19 -23 -26 15 20)
1969-12-31 18:00:08.013510075,(7 8 7 1 -55 -42 -35 -9)
1969-12-31 18:00:08.041847548,(10 1 5 4 12 -2 8 -27)
1969-12-31 18:00:08.041847548,(34 29 17 23 45 28 21 45)
1969-12-31 18:00:08.043135615,(10 -17 -15 -1 43 36 20 21)
1969-12-31 18:00:08.043135615,(24 31 2 6 33 5 -8 -28)
1969-12-31 18:00:08.071473089,(-14 -40 16 2 -61 -11 12 11)
1969-12-31 18:00:08.071473089,(33 20 2 17 57 19 -23 21)
1969-12-31 18:00:08.072761156,(-32 -28 8 3 -16 -5 2 -2)
1969-12-31 18:00:08.072761156,(14 -1 -11 -26 -33 0 13 17)
1969-12-31 18:00:08.089506026,(-35 7 -19 -13 -50 -12 -18 -73)
1969-12-31 18:00:08.089506026,(-25 -23 -7 -19 -37 -28 18 39)
1969-12-31 18:00:08.090794093,(24 34 12 20 62 -5 0 13)
1969-12-31 18:00:08.090794093,(-19 -16 20 11 -7 28 11 -8)
1969-12-31 18:00:08.119131567,(-12 -43 -26 -4 66 98 37 12)
1969-12-31 18:00:08.119131567,(16 13 -23 -9 -15 -15 24 43)
1969-12-31 18:00:08.120419634,(33 37 -13 -25 -111 -89 -40 -33)
1969-12-31 18:00:08.120419634,(4 -30 6 -1 52 17 -19 -1)
1969-12-31 18:00:08.148757107,(-16 5 15 -1 -44 -5 10 -4)
1969-12-31 18:00:08.148757107,(-31 16 60 41 17 20 13 -16)
1969-12-31 18:00:08.150045174,(57 -26 -50 -13 35 32 14 53)
1969-12-31 18:00:08.150045174,(-74 -55 -38 -31 -32 -43 -48 -91)
1969-12-31 18:00:08.166790045,(-38 50 9 25 52 24 4 -8)
1969-12-31 18:00:08.166790045,(11 -95 -73 -32 -25 -27 -26 -61)
1969-12-31 18:00:08.168078112,(-112 34 74 18 23 39 10 -98)
1969-12-31 18:00:08.168078112,(82 101 52 53 41 27 9 96)
1969-12-31 18:00:08.196415586,(7 -38 -23 -14 6 -28 23 31)
1969-12-31 18:00:08.196415586,(7 1 12 0 -47 -42 0 -1)
1969-12-31 18:00:08.197703653,(-3 -126 -128 -90 -95 -55 -66 -61)
1969-12-31 18:00:08.197703653,(-19 18 5 2 45 50 34 17)
1969-12-31 18:00:08.226041126,(77 120 114 60 29 -2 -47 14)
1969-12-31 18:00:08.226041126,(65 28 -12 7 41 33 38 77)
1969-12-31 18:00:08.227329193,(-16 -12 6 11 14 5 -9 -56)
1969-12-31 18:00:08.227329193,(73 46 -11 10 26 18 11 49)
1969-12-31 18:00:08.245362131,(35 -97 -108 -32 33 0 4 8)
1969-12-31 18:00:08.245362131,(-61 54 70 9 -69 -19 -34 -54)
1969-12-31 18:00:08.245362131,(37 49 -27 -30 -52 -69 -23 26)
1969-12-31 18:00:08.245362131,(-83 -81 25 10 20 6 -20 -67)
1969-12-31 18:00:08.273699604,(40 25 -7 -4 33 51 33 69)
1969-12-31 18:00:08.273699604,(-35 -80 -40 -12 10 -11 -18 -67)
1969-12-31 18:00:08.273699604,(13 74 75 54 23 22 47 107)
1969-12-31 18:00:08.274987671,(17 44 5 2 -10 -19 -32 -69)
1969-12-31 18:00:08.303325145,(19 -62 -47 -16 28 59 46 73)
1969-12-31 18:00:08.303325145,(37 -17 -37 -13 15 2 13 29)
1969-12-31 18:00:08.304613212,(-33 20 25 -26 -91 -45 35 66)
1969-12-31 18:00:08.304613212,(4 -69 -54 -36 -28 -23 0 25)
1969-12-31 18:00:08.321358083,(-37 -54 18 -1 15 -9 -20 -34)
1969-12-31 18:00:08.321358083,(28 69 -5 11 57 16 7 24)
1969-12-31 18:00:08.322646150,(-42 18 59 36 -20 -24 7 -33)
1969-12-31 18:00:08.322646150,(28 -21 -57 -23 -4 24 23 47)
1969-12-31 18:00:08.350983623,(-34 20 -14 -27 -40 -31 -38 -87)
1969-12-31 18:00:08.350983623,(-18 30 15 24 33 51 40 22)
1969-12-31 18:00:08.352271690,(18 -3 54 37 36 22 10 12)
1969-12-31 18:00:08.352271690,(20 4 19 31 88 69 13 -19)
1969-12-31 18:00:08.380609164,(-50 16 10 -14 -115 -97 -35 -47)
1969-12-31 18:00:08.380609164,(16 -41 -42 -44 -30 -10 -6 7)
1969-12-31 18:00:08.381897231,(-39 -24 -9 4 56 36 -10 -27)
1969-12-31 18:00:08.381897231,(16 30 -23 -3 -41 -26 11 35)
1969-12-31 18:00:08.398642101,(36 27 -1 -7 -10 -41 -24 0)
1969-12-31 18:00:08.398642101,(-54 46 98 21 29 -2 -35 -58)
1969-12-31 18:00:08.417963106,(24 -82 -59 -15 -33 -1 -8 64)
1969-12-31 18:00:08.417963106,(10 40 -4 -2 -18 -10 25 2)
1969-12-31 18:00:08.428267642,(6 50 64 43 59 47 13 -40)
1969-12-31 18:00:08.428267642,(-55 -58 -44 -30 -83 -38 12 13)
1969-12-31 18:00:08.429555709,(24 -28 -93 -38 80 55 -16 -14)
1969-12-31 18:00:08.429555709,(-28 26 70 28 -31 -31 3 -17)
1969-12-31 18:00:08.457893182,(-28 52 4 0 -11 -6 12 4)
1969-12-31 18:00:08.457893182,(-34 -50 8 24 37 36 2 -48)
1969-12-31 18:00:08.459181249,(5 66 18 20 40 19 -11 -45)
1969-12-31 18:00:08.459181249,(24 -55 -93 -44 -49 -63 -9 30)
1969-12-31 18:00:08.475926120,(-11 34 72 3 -54 7 -32 -23)
1969-12-31 18:00:08.475926120,(13 -22 -34 -12 1 -27 5 21)
1969-12-31 18:00:08.486230656,(4 -87 -74 -50 -40 -10 -4 -14)
1969-12-31 18:00:08.486230656,(-4 -21 -14 -14 -2 4 -1 4)
1969-12-31 18:00:08.505551661,(52 72 57 48 48 10 10 39)
1969-12-31 18:00:08.505551661,(61 70 57 48 66 48 1 18)
1969-12-31 18:00:08.505551661,(-58 -77 16 15 -29 -50 2 -43)
1969-12-31 18:00:08.505551661,(37 -24 -84 -66 -34 -28 -60 26)
1969-12-31 18:00:08.535177201,(-17 -20 26 18 34 15 9 4)
1969-12-31 18:00:08.535177201,(21 13 -12 -1 -34 -11 -2 -1)
1969-12-31 18:00:08.536465268,(-8 4 11 13 56 34 13 -9)
1969-12-31 18:00:08.536465268,(-69 -70 -25 -35 -30 -7 24 -8)
1969-12-31 18:00:08.564802742,(-21 -13 -35 -2 -36 -12 -18 -27)
1969-12-31 18:00:08.564802742,(46 75 40 18 -3 7 30 71)
1969-12-31 18:00:08.564802742,(-32 -34 18 14 2 -17 -10 -28)
1969-12-31 18:00:08.564802742,(-8 -28 -31 -24 41 47 2 10)
1969-12-31 18:00:08.582835679,(-19 -61 -62 -34 -4 -16 -25 -18)
1969-12-31 18:00:08.582835679,(28 66 1 18 -5 13 4 -5)
1969-12-31 18:00:08.584123746,(24 25 56 7 -40 -21 28 34)
1969-12-31 18:00:08.584123746,(-47 83 99 58 28 19 7 -27)
1969-12-31 18:00:08.612461220,(-6 -60 -65 -27 -2 2 11 -8)
1969-12-31 18:00:08.612461220,(37 -126 -103 -57 -1 1 -23 26)
1969-12-31 18:00:08.613749287,(24 54 -16 -3 9 1 -23 -27)
1969-12-31 18:00:08.613749287,(23 71 110 54 15 18 20 18)
1969-12-31 18:00:08.630494158,(-18 -28 -10 -15 -38 -51 -12 5)
1969-12-31 18:00:08.630494158,(-27 -1 21 7 31 14 18 -7)
1969-12-31 18:00:08.640798694,(-28 24 9 7 19 3 -32 -53)
1969-12-31 18:00:08.640798694,(-3 -10 -7 -14 -11 -1 40 8)
1969-12-31 18:00:08.660119698,(58 -33 -60 -10 9 9 -29 0)
1969-12-31 18:00:08.660119698,(-16 49 49 -2 -28 -37 -27 -26)
1969-12-31 18:00:08.661407765,(-27 10 5 1 45 34 5 -12)
1969-12-31 18:00:08.661407765,(10 13 19 0 -49 -55 -17 6)
1969-12-31 18:00:08.691033306,(6 18 25 36 66 67 49 16)
1969-12-31 18:00:08.691033306,(-9 -83 -61 -32 -42 -19 -52 -20)
1969-12-31 18:00:08.692321373,(10 -11 -15 -20 -33 -10 1 -1)
1969-12-31 18:00:08.692321373,(-23 -2 -20 5 17 2 1 -18)
1969-12-31 18:00:08.707778176,(6 -38 -37 -28 -38 -21 29 48)
1969-12-31 18:00:08.707778176,(13 45 28 19 62 32 4 16)
1969-12-31 18:00:08.718082711,(20 57 37 31 -18 -3 11 11)
1969-12-31 18:00:08.718082711,(-25 14 19 9 -20 12 -11 -23)
1969-12-31 18:00:08.737403717,(-3 -45 -75 -39 3 -6 2 -27)
1969-12-31 18:00:08.737403717,(-69 -2 30 15 1 6 8 -9)
1969-12-31 18:00:08.737403717,(28 -40 -68 -14 44 24 21 28)
1969-12-31 18:00:08.738691784,(-5 -54 -27 -2 -13 -2 -9 -5)
1969-12-31 18:00:08.767029258,(-6 88 81 31 3 14 11 9)
1969-12-31 18:00:08.767029258,(11 -19 -13 -27 -37 -37 12 16)
1969-12-31 18:00:08.768317325,(5 -36 -61 -15 46 20 -13 45)
1969-12-31 18:00:08.768317325,(-12 39 42 6 -44 -31 1 -45)
1969-12-31 18:00:08.785062195,(-16 -7 57 23 18 26 14 9)
1969-12-31 18:00:08.785062195,(-24 -54 -54 -8 20 7 50 -3)
1969-12-31 18:00:08.795366731,(45 115 107 50 6 -3 -30 19)
1969-12-31 18:00:08.795366731,(43 -82 -100 -19 10 21 30 29)
1969-12-31 18:00:08.824992272,(-16 99 88 18 -10 -13 -14 -25)
1969-12-31 18:00:08.824992272,(-6 38 53 15 12 0 -2 -7)
1969-12-31 18:00:08.826280339,(-9 -45 -41 -34 -81 -46 4 -27)
1969-12-31 18:00:08.826280339,(-8 -84 -73 -14 66 54 3 6)
1969-12-31 18:00:08.844313275,(33 20 -3 -6 -38 -15 -18 -25)
1969-12-31 18:00:08.844313275,(-50 -37 -32 -8 33 6 2 -9)
1969-12-31 18:00:08.845601342,(-20 -5 -4 -12 -37 -21 -56 -29)
1969-12-31 18:00:08.845601342,(25 22 34 14 -16 -17 -20 11)
1969-12-31 18:00:08.873938817,(-20 -67 -102 -56 -23 -19 27 4)
1969-12-31 18:00:08.873938817,(27 44 64 40 29 43 1 15)
1969-12-31 18:00:08.873938817,(-19 -77 -67 -1 6 2 19 25)
1969-12-31 18:00:08.873938817,(-11 88 95 48 99 47 0 -21)
1969-12-31 18:00:08.893259822,(16 39 14 11 -26 -1 -20 5)
1969-12-31 18:00:08.893259822,(37 -27 -72 -28 5 5 -2 14)
1969-12-31 18:00:08.894547888,(-77 -34 9 -3 -104 -98 3 -20)
1969-12-31 18:00:08.894547888,(41 -34 -34 -35 -14 6 -28 -30)
1969-12-31 18:00:08.921597295,(-5 -24 0 0 35 2 4 12)
1969-12-31 18:00:08.921597295,(-18 14 36 12 13 23 -3 -10)
1969-12-31 18:00:08.922885362,(45 76 42 10 23 36 6 -17)
1969-12-31 18:00:08.922885362,(-69 32 10 10 -23 -19 2 -5)
1969-12-31 18:00:08.951222836,(-19 -58 -15 -16 -40 -26 2 -2)
1969-12-31 18:00:08.951222836,(-13 -1 -26 -16 -50 -10 -12 -2)
1969-12-31 18:00:08.951222836,(2 -61 -61 -10 76 67 7 24)
1969-12-31 18:00:08.951222836,(6 -24 -3 -6 -13 -35 -4 11)
1969-12-31 18:00:08.969255773,(11 18 -15 -9 -33 -39 -32 -16)
1969-12-31 18:00:08.969255773,(39 82 80 48 -10 -6 -6 9)
1969-12-31 18:00:08.970543840,(20 6 -1 8 11 -2 29 3)
1969-12-31 18:00:08.970543840,(-2 -18 -37 -30 -44 4 2 21)
1969-12-31 18:00:08.998881314,(7 -103 -113 -52 -56 -41 -4 21)
1969-12-31 18:00:08.998881314,(4 84 67 61 29 5 -10 -37)
1969-12-31 18:00:09.000169381,(9 9 30 8 38 36 -9 -36)
1969-12-31 18:00:09.000169381,(-6 -38 -22 -6 -58 -64 -44 -35)
1969-12-31 18:00:09.027218787,(-102 -32 -19 -27 -59 -67 -51 -60)
1969-12-31 18:00:09.027218787,(70 -80 -126 -60 -22 -10 4 23)
1969-12-31 18:00:09.028506854,(42 120 123 74 44 28 36 51)
1969-12-31 18:00:09.028506854,(-4 -15 10 34 82 74 27 24)
1969-12-31 18:00:09.046539792,(-32 -38 -2 19 81 77 20 -31)
1969-12-31 18:00:09.046539792,(-68 -30 -3 -11 -25 -59 -14 -49)
1969-12-31 18:00:09.047827859,(-39 4 -6 -17 -6 1 -3 0)
1969-12-31 18:00:09.047827859,(27 -4 -58 -39 -25 -23 -29 -6)
1969-12-31 18:00:09.076165333,(42 41 71 26 4 45 45 61)
1969-12-31 18:00:09.076165333,(-13 -30 -38 16 74 24 13 -3)
1969-12-31 18:00:09.077453400,(-21 -40 -24 -19 -14 11 -8 -7)
1969-12-31 18:00:09.077453400,(20 103 101 18 -11 -55 -25 11)
1969-12-31 18:00:09.104502806,(22 24 0 -11 -30 -10 -2 13)
1969-12-31 18:00:09.104502806,(-38 -73 -66 -19 29 20 -3 -18)
1969-12-31 18:00:09.105790873,(66 44 49 15 -62 -26 8 34)
1969-12-31 18:00:09.105790873,(-17 -15 4 7 40 32 25 -12)
1969-12-31 18:00:09.134128347,(60 -1 -67 -2 65 46 13 36)
1969-12-31 18:00:09.134128347,(-41 103 98 15 -85 -68 -25 -8)
1969-12-31 18:00:09.135416414,(-70 -72 -58 -49 -2 35 1 -45)
1969-12-31 18:00:09.135416414,(-8 -34 -33 -8 -47 -75 -30 -9)
1969-12-31 18:00:09.153449351,(37 29 36 29 59 31 14 7)
1969-12-31 18:00:09.153449351,(45 -5 -13 -2 0 25 33 59)
1969-12-31 18:00:09.154737418,(3 -24 -24 -29 -41 -13 15 17)
1969-12-31 18:00:09.154737418,(-7 -13 -31 6 76 83 7 -3)
1969-12-31 18:00:09.183074892,(-39 26 49 8 -45 -38 0 -10)
1969-12-31 18:00:09.183074892,(15 -29 -25 6 -32 -36 -38 2)
1969-12-31 18:00:09.185651026,(-7 -11 -39 -4 44 0 3 -33)
1969-12-31 18:00:09.185651026,(-13 16 26 3 -48 -4 21 -4)
1969-12-31 18:00:09.201107830,(57 22 9 25 47 33 31 53)
1969-12-31 18:00:09.201107830,(-36 28 58 -2 -45 -40 -17 -37)
1969-12-31 18:00:09.202395897,(-7 -66 -66 -28 1 -17 -21 -34)
1969-12-31 18:00:09.202395897,(47 -33 -111 -39 2 16 11 45)
1969-12-31 18:00:09.230733370,(8 71 93 73 39 19 -3 -27)
1969-12-31 18:00:09.230733370,(41 47 9 0 37 52 10 8)
1969-12-31 18:00:09.232021437,(-8 13 30 30 0 -34 -12 9)
1969-12-31 18:00:09.232021437,(23 6 -4 -9 -69 -37 -22 -22)
1969-12-31 18:00:09.259070844,(-62 -81 -71 -68 -75 -12 10 0)
1969-12-31 18:00:09.259070844,(-45 -73 -64 -31 72 29 -7 -12)
1969-12-31 18:00:09.260358911,(31 31 25 -7 -31 -6 1 17)
1969-12-31 18:00:09.260358911,(-21 -9 18 46 105 32 10 -2)
1969-12-31 18:00:09.278391848,(39 14 -73 -18 -10 6 -7 1)
1969-12-31 18:00:09.278391848,(-16 26 88 62 67 68 40 39)
1969-12-31 18:00:09.278391848,(38 46 27 1 -83 -96 -11 47)
1969-12-31 18:00:09.278391848,(-7 16 14 -37 -19 -20 -28 -44)
1969-12-31 18:00:09.308017389,(-42 -15 20 13 51 23 4 -13)
1969-12-31 18:00:09.308017389,(12 -108 -128 -82 -19 7 0 -9)
1969-12-31 18:00:09.310593523,(-52 -24 50 28 44 28 -5 -25)
1969-12-31 18:00:09.310593523,(19 95 27 33 -10 -5 12 15)
1969-12-31 18:00:09.346659398,(15 23 63 21 -45 -40 -13 26)
1969-12-31 18:00:09.346659398,(29 5 0 2 -17 33 35 2)
1969-12-31 18:00:09.349235532,(-22 -77 -69 -20 82 20 -38 -40)
1969-12-31 18:00:09.349235532,(-11 -45 -28 -27 -80 -49 -5 -18)
1969-12-31 18:00:09.354387800,(15 10 -19 -72 -24 -25 -28 -18)
1969-12-31 18:00:09.354387800,(-2 22 23 70 6 -26 -2 -9)
1969-12-31 18:00:09.365980403,(35 18 -8 5 10 37 25 51)
1969-12-31 18:00:09.365980403,(-31 -6 21 24 51 47 19 -3)
1969-12-31 18:00:09.385301408,(28 23 -5 15 33 9 4 10)
1969-12-31 18:00:09.385301408,(-53 -55 -45 -60 -71 -47 -33 -29)
1969-12-31 18:00:09.387877542,(27 69 61 26 7 8 12 12)
1969-12-31 18:00:09.387877542,(24 27 22 6 -6 12 15 28)
1969-12-31 18:00:09.413638881,(-42 -32 30 8 -57 -33 -4 -14)
1969-12-31 18:00:09.413638881,(7 -5 -16 -1 77 26 0 13)
1969-12-31 18:00:09.416215015,(12 4 -46 -14 -23 -9 -5 -11)
1969-12-31 18:00:09.416215015,(-55 -31 33 -5 -13 -12 -8 -16)
1969-12-31 18:00:09.431671819,(17 20 5 20 30 17 29 32)
1969-12-31 18:00:09.431671819,(-37 -11 0 -22 -80 -45 -65 -97)
1969-12-31 18:00:09.443264422,(49 22 -14 -28 64 31 4 7)
1969-12-31 18:00:09.443264422,(39 3 8 47 56 11 18 42)
1969-12-31 18:00:09.462585426,(-41 -9 -22 6 20 1 -5 -14)
1969-12-31 18:00:09.462585426,(-23 -41 1 16 -19 -14 6 14)
1969-12-31 18:00:09.465161560,(4 -6 -4 -13 -50 -12 -7 4)
1969-12-31 18:00:09.465161560,(-11 -3 -15 -8 9 25 -6 -24)
1969-12-31 18:00:09.492210967,(-15 -11 -3 -2 14 -42 -39 -25)
1969-12-31 18:00:09.492210967,(76 50 3 -21 -35 -14 13 33)
1969-12-31 18:00:09.493499034,(-54 -36 -11 -3 -27 2 -6 -4)
1969-12-31 18:00:09.493499034,(19 6 0 -9 11 -10 -16 -18)
1969-12-31 18:00:09.508955838,(-36 -24 -16 0 -1 -12 20 -17)
1969-12-31 18:00:09.508955838,(-26 -9 4 -12 -9 9 -16 -11)
1969-12-31 18:00:09.520548441,(81 34 -4 2 -12 -20 8 28)
1969-12-31 18:00:09.520548441,(21 17 17 7 3 10 15 15)
1969-12-31 18:00:09.541157512,(-46 -53 -32 -11 19 38 1 -31)
1969-12-31 18:00:09.541157512,(29 -4 -5 -8 -25 -84 -29 -10)
1969-12-31 18:00:09.542445579,(-3 -3 13 12 -9 34 11 -2)
1969-12-31 18:00:09.542445579,(16 29 -1 -3 -2 15 15 35)
1969-12-31 18:00:09.568206919,(-28 -7 -18 -18 -20 -12 -24 -41)
1969-12-31 18:00:09.568206919,(-26 -15 4 2 3 17 17 14)
1969-12-31 18:00:09.570783053,(-14 2 -5 4 0 -12 -6 -18)
1969-12-31 18:00:09.570783053,(-21 -30 -1 -7 -6 -4 18 41)
1969-12-31 18:00:09.586239856,(100 60 15 10 6 3 -7 12)
1969-12-31 18:00:09.586239856,(-128 -26 -22 -21 -14 -5 -21 -62)
1969-12-31 18:00:09.597832459,(50 7 8 3 -1 -13 5 34)
1969-12-31 18:00:09.597832459,(-34 -20 -8 -3 -4 2 -1 -17)
1969-12-31 18:00:09.617153464,(9 -19 -6 1 11 12 -8 -20)
1969-12-31 18:00:09.617153464,(108 93 36 22 14 24 29 52)
1969-12-31 18:00:09.619729598,(-125 -71 -21 -10 -14 -17 -6 -41)
1969-12-31 18:00:09.619729598,(-68 -34 -30 -21 -11 -13 -30 -80)
1969-12-31 18:00:09.645490938,(16 -4 0 4 6 9 4 25)
1969-12-31 18:00:09.645490938,(23 3 5 0 -5 -2 2 5)
1969-12-31 18:00:09.648067071,(6 7 -3 1 -4 -10 -2 3)
1969-12-31 18:00:09.648067071,(7 17 14 7 8 8 5 12)
1969-12-31 18:00:09.663523875,(-12 -10 -8 -3 -3 -2 -4 0)
1969-12-31 18:00:09.663523875,(8 -7 -6 -7 -7 2 3 10)
1969-12-31 18:00:09.675116478,(-19 -8 -2 0 4 -1 0 -5)
1969-12-31 18:00:09.675116478,(15 -5 -3 -2 0 2 4 11)
1969-12-31 18:00:09.694437483,(31 17 -9 -8 -7 -7 -5 4)
1969-12-31 18:00:09.694437483,(-22 -11 3 3 6 6 6 7)
1969-12-31 18:00:09.697013617,(6 11 8 5 0 -2 -2 -3)
1969-12-31 18:00:09.697013617,(1 -2 3 -1 0 -2 0 -2)
1969-12-31 18:00:09.722774956,(-18 -10 1 1 -2 3 0 6)
1969-12-31 18:00:09.724063023,(26 16 4 6 3 1 -2 3)
1969-12-31 18:00:09.725351090,(-31 -28 -33 -21 -9 -8 -8 -21)
1969-12-31 18:00:09.725351090,(16 25 34 12 1 2 4 10)
1969-12-31 18:00:09.740807894,(4 11 2 5 7 5 4 12)
1969-12-31 18:00:09.740807894,(12 7 11 -2 -6 -3 -2 -2)
1969-12-31 18:00:09.753688564,(-7 -25 -17 -6 -2 -3 -2 -6)
1969-12-31 18:00:09.753688564,(2 -15 -11 -9 -4 -3 0 4)
1969-12-31 18:00:09.771721502,(-2 11 6 2 -1 2 1 4)
1969-12-31 18:00:09.771721502,(4 8 15 9 -3 -4 -5 -8)
1969-12-31 18:00:09.773009568,(0 -5 -6 -3 -3 -6 -2 -5)
1969-12-31 18:00:09.773009568,(6 -32 -36 -7 1 -1 -5 2)
1969-12-31 18:00:09.801347042,(2 36 39 9 4 -2 -5 3)
1969-12-31 18:00:09.801347042,(6 -2 -12 -7 -2 6 9 2)
1969-12-31 18:00:09.802635109,(1 10 10 7 2 3 1 5)
1969-12-31 18:00:09.802635109,(3 -9 -17 -10 -9 -7 -3 0)
1969-12-31 18:00:09.818091913,(-9 -39 -23 -14 -5 -1 -2 -3)
1969-12-31 18:00:09.818091913,(1 9 -1 -3 -2 -6 -12 -2)
1969-12-31 18:00:09.839989051,(-3 -25 -30 -11 -5 -1 1 -3)
1969-12-31 18:00:09.839989051,(18 96 78 25 7 4 5 4)
1969-12-31 18:00:09.847717453,(-4 -28 -21 -4 1 1 0 0)
1969-12-31 18:00:09.847717453,(2 -3 0 -2 3 3 4 4)
1969-12-31 18:00:09.856733922,(-1 1 9 -3 -5 -5 -4 -6)
1969-12-31 18:00:09.856733922,(0 -22 -18 -4 1 4 4 7)
1969-12-31 18:00:09.877342994,(-3 15 15 4 1 1 -1 -5)
1969-12-31 18:00:09.877342994,(9 2 -5 -3 -6 -3 -1 0)
1969-12-31 18:00:09.879919128,(-2 15 12 7 5 -2 -4 -4)
1969-12-31 18:00:09.879919128,(2 -8 -1 -1 1 0 0 1)
1969-12-31 18:00:09.896663999,(-5 -14 -5 -4 -2 2 4 3)
1969-12-31 18:00:09.896663999,(1 -29 -40 -16 -3 0 6 6)
1969-12-31 18:00:09.906968534,(3 16 17 8 3 -1 -2 -1)
1969-12-31 18:00:09.906968534,(0 19 3 6 2 4 3 2)
1969-12-31 18:00:09.926289539,(-1 -30 -5 0 0 -3 -6 -4)
1969-12-31 18:00:09.926289539,(-2 20 9 3 0 -2 0 -4)
1969-12-31 18:00:09.928865673,(-6 -15 -21 -14 -8 -5 -7 -6)
1969-12-31 18:00:09.928865673,(2 -18 -20 -8 -3 -3 -3 -3)
1969-12-31 18:00:09.954627013,(0 28 21 18 6 2 -3 1)
1969-12-31 18:00:09.954627013,(-2 -26 -16 -4 -3 2 1 0)
1969-12-31 18:00:09.957203147,(-5 0 7 -5 -6 -6 -6 -3)
1969-12-31 18:00:09.957203147,(-6 -6 -12 -9 -4 -4 -6 -8)
1969-12-31 18:00:09.984252553,(-4 -6 -9 -1 0 1 2 0)
1969-12-31 18:00:09.984252553,(-5 -10 11 2 3 1 -4 -5)
1969-12-31 18:00:09.986828687,(9 21 4 9 4 3 1 2)
1969-12-31 18:00:09.986828687,(-2 -3 17 0 -4 -3 -5 -2)
1969-12-31 18:00:10.002285491,(-1 5 -15 -12 -6 -1 3 3)
1969-12-31 18:00:10.002285491,(-1 -1 -1 -13 -5 -1 -3 -5)
1969-12-31 18:00:10.011301960,(6 -12 -7 22 7 1 0 0)
1969-12-31 18:00:10.011301960,(-6 -14 -2 11 5 0 -1 -7)
1969-12-31 18:00:10.031911031,(5 14 20 6 0 -1 0 2)
1969-12-31 18:00:10.033199098,(-14 14 3 -22 -11 -5 -4 -6)
1969-12-31 18:00:10.034487165,(0 -12 -11 -17 -8 -8 -6 -1)
1969-12-31 18:00:10.034487165,(10 1 7 29 10 5 5 9)
1969-12-31 18:00:10.049943969,(-7 -1 4 0 -1 -3 -3 -10)
1969-12-31 18:00:10.049943969,(-1 -13 -10 -5 -7 -6 3 3)
1969-12-31 18:00:10.071841108,(-4 13 2 -9 -2 1 -5 -1)
1969-12-31 18:00:10.071841108,(1 -1 -10 -17 -3 -8 -1 -3)
1969-12-31 18:00:10.079569510,(-2 -16 -23 -6 -2 -5 0 3)
1969-12-31 18:00:10.079569510,(7 5 17 18 9 1 0 4)
1969-12-31 18:00:10.079569510,(-1 -3 -1 2 -1 -2 -2 -2)
1969-12-31 18:00:10.079569510,(-2 -3 -5 -7 -4 -3 -3 0)
1969-12-31 18:00:10.100178581,(-1 0 -2 -1 -2 -3 0 -2)
1969-12-31 18:00:10.100178581,(-3 1 6 5 2 0 -1 -1)
1969-12-31 18:00:10.102754715,(0 1 -2 -2 -1 -1 0 0)
1969-12-31 18:00:10.102754715,(0 -2 0 0 -1 -1 -1 -1)
1969-12-31 18:00:10.129804122,(1 -3 0 0 2 1 0 0)
1969-12-31 18:00:10.129804122,(0 -1 -2 -2 -2 -3 -2 -2)
1969-12-31 18:00:10.131092189,(-1 0 1 1 1 -2 0 0)
1969-12-31 18:00:10.131092189,(-2 -3 -5 -3 -1 0 0 -1)
1969-12-31 18:00:10.147837060,(0 1 -4 -7 -4 -1 -1 1)
1969-12-31 18:00:10.147837060,(0 -3 -3 1 0 -1 0 -1)
1969-12-31 18:00:10.156853528,(-3 0 -1 -3 -2 0 0 -1)
1969-12-31 18:00:10.156853528,(2 2 -1 -7 -2 0 -2 0)
1969-12-31 18:00:10.177462600,(-1 -2 1 9 1 0 -2 -1)
1969-12-31 18:00:10.177462600,(-2 -3 -3 -2 0 -1 0 0)
1969-12-31 18:00:10.180038734,(2 3 5 4 1 0 -2 -1)
1969-12-31 18:00:10.180038734,(-2 -4 -4 -1 -1 -2 0 2)
1969-12-31 18:00:10.207088141,(-3 -3 -3 -6 -3 -2 -2 -1)
1969-12-31 18:00:10.207088141,(-4 -6 -8 -7 -3 -1 -1 -1)
1969-12-31 18:00:10.208376208,(-1 1 -1 -1 0 3 -1 -3)
1969-12-31 18:00:10.208376208,(0 2 5 0 -2 -5 -1 -2)
1969-12-31 18:00:10.223833011,(1 2 1 0 0 -1 -2 -1)
1969-12-31 18:00:10.223833011,(2 0 0 3 -1 -7 2 0)
1969-12-31 18:00:10.235425614,(-4 -5 -6 -5 -3 8 1 -4)
1969-12-31 18:00:10.235425614,(0 3 4 5 3 0 -10 -1)
1969-12-31 18:00:10.254746619,(-1 -3 -6 -6 -3 -6 8 2)
1969-12-31 18:00:10.254746619,(0 0 -5 -6 0 -5 -5 -3)
1969-12-31 18:00:10.257322753,(3 2 0 -1 -3 -7 13 0)
1969-12-31 18:00:10.257322753,(-4 -3 4 -1 -1 0 -46 -13)
1969-12-31 18:00:10.284372159,(3 5 2 5 -3 -14 -8 -1)
1969-12-31 18:00:10.284372159,(0 -1 4 8 4 16 34 11)
1969-12-31 18:00:10.285660226,(-2 0 -1 -2 0 -2 -42 -7)
1969-12-31 18:00:10.285660226,(-1 -1 4 7 -2 -8 9 0)
1969-12-31 18:00:10.301117030,(-4 -4 -8 -11 -1 7 -7 -5)
1969-12-31 18:00:10.301117030,(-3 -3 -7 -11 -7 -8 -8 -4)
1969-12-31 18:00:10.312709633,(1 -3 -2 1 1 -1 7 5)
1969-12-31 18:00:10.312709633,(-3 -2 -15 -8 -3 1 4 -5)
1969-12-31 18:00:10.332030638,(-1 -4 5 -1 -3 -4 -5 -1)
1969-12-31 18:00:10.332030638,(1 3 1 3 1 2 2 3)
1969-12-31 18:00:10.334606772,(-1 -7 -7 -4 -2 -3 7 3)
1969-12-31 18:00:10.334606772,(2 2 -12 3 2 -4 1 1)
1969-12-31 18:00:10.360368111,(3 5 23 12 4 1 10 2)
1969-12-31 18:00:10.360368111,(1 2 1 3 -1 -5 -9 -3)
1969-12-31 18:00:10.362944245,(-2 -1 -1 -4 -1 -6 0 1)
1969-12-31 18:00:10.362944245,(-2 -9 -11 -6 0 -2 9 2)
1969-12-31 18:00:10.378401049,(-5 -7 -24 -15 -3 -1 -4 -4)
1969-12-31 18:00:10.378401049,(-1 -2 14 -3 -3 -4 -13 -8)
1969-12-31 18:00:10.389993652,(-1 4 10 23 5 1 0 0)
1969-12-31 18:00:10.389993652,(2 4 10 15 5 11 13 8)
1969-12-31 18:00:10.409314656,(0 -1 -3 1 1 10 1 1)
1969-12-31 18:00:10.409314656,(-6 -7 -10 -8 -4 7 -5 -1)
1969-12-31 18:00:10.411890790,(0 -5 -21 -19 -9 0 -2 -2)
1969-12-31 18:00:10.411890790,(-1 -2 8 -3 -2 1 7 7)
1969-12-31 18:00:10.447956666,(1 6 1 8 2 1 2 4)
1969-12-31 18:00:10.447956666,(1 -6 -8 -5 -2 -5 -3 -2)
1969-12-31 18:00:10.450532800,(2 5 5 2 -1 -10 -3 -6)
1969-12-31 18:00:10.450532800,(1 -3 -10 -10 -5 -7 3 1)
1969-12-31 18:00:10.455685068,(1 1 6 -1 1 -7 -4 -4)
1969-12-31 18:00:10.455685068,(-3 4 0 2 1 -1 -1 -7)
1969-12-31 18:00:10.467277670,(-4 -1 5 0 -1 0 0 -6)
1969-12-31 18:00:10.467277670,(-6 -4 2 -2 -4 -3 -8 -10)
1969-12-31 18:00:10.486598675,(-1 5 3 3 0 0 -5 -11)
1969-12-31 18:00:10.486598675,(-3 -6 -3 0 0 8 8 6)
1969-12-31 18:00:10.489174809,(-1 -5 0 -2 -2 2 -3 -5)
1969-12-31 18:00:10.489174809,(-2 -2 -1 -2 -4 0 -3 -7)
1969-12-31 18:00:10.516224216,(0 -4 -3 -2 -2 3 2 4)
1969-12-31 18:00:10.516224216,(2 3 5 4 2 0 -5 -5)
1969-12-31 18:00:10.517512283,(-2 1 1 -1 -1 0 0 4)
1969-12-31 18:00:10.517512283,(0 1 2 3 -1 1 1 1)
1969-12-31 18:00:10.532969086,(-2 -5 -5 -2 -2 0 1 1)
1969-12-31 18:00:10.532969086,(4 0 -2 -1 -1 -2 0 4)
1969-12-31 18:00:10.544561689,(2 0 -2 -3 0 -4 0 -2)
1969-12-31 18:00:10.544561689,(-2 -3 -3 -1 1 -4 1 4)
1969-12-31 18:00:10.563882694,(-2 -2 -4 -4 -1 -3 0 3)
1969-12-31 18:00:10.563882694,(2 3 -1 -3 -2 -7 -11 -13)
1969-12-31 18:00:10.566458828,(-3 -4 -3 -2 0 1 4 4)
1969-12-31 18:00:10.566458828,(1 2 0 0 1 -2 -1 -2)
1969-12-31 18:00:10.592220167,(1 0 -4 -2 -2 -1 -1 -1)
1969-12-31 18:00:10.592220167,(-1 1 0 0 1 -3 1 4)
1969-12-31 18:00:10.594796301,(-1 -1 0 0 0 -2 -3 2)
1969-12-31 18:00:10.594796301,(0 -2 -2 -2 -1 1 4 0)
1969-12-31 18:00:10.610253105,(-2 -1 -2 -3 -1 -1 -1 -1)
1969-12-31 18:00:10.610253105,(-2 -4 -5 -3 1 -2 1 0)
1969-12-31 18:00:10.632150244,(0 7 3 -2 -2 0 -1 -1)
1969-12-31 18:00:10.632150244,(-3 -2 4 0 -1 4 5 4)
1969-12-31 18:00:10.641166713,(5 11 7 5 4 1 -12 -9)
1969-12-31 18:00:10.641166713,(4 0 -1 1 -2 -1 -3 3)
1969-12-31 18:00:10.642454780,(-8 -7 -4 -1 -2 1 -1 -2)
1969-12-31 18:00:10.642454780,(2 2 -3 1 -1 -3 -6 -4)
1969-12-31 18:00:10.670792253,(-10 -14 -9 -8 -5 -5 1 1)
1969-12-31 18:00:10.670792253,(-4 -4 0 -1 0 0 2 -1)
1969-12-31 18:00:10.672080320,(-8 -2 0 -2 1 1 4 3)
1969-12-31 18:00:10.672080320,(1 3 0 -3 0 -3 4 9)
1969-12-31 18:00:10.687537124,(18 1 -2 -2 -5 9 12 5)
1969-12-31 18:00:10.687537124,(-26 -9 1 0 -3 -1 -17 -13)
1969-12-31 18:00:10.699129727,(-19 -11 -4 -2 3 8 -2 1)
1969-12-31 18:00:10.699129727,(-8 -4 6 4 -1 -1 18 -10)
1969-12-31 18:00:10.718450731,(22 14 2 3 2 1 2 14)
1969-12-31 18:00:10.718450731,(17 8 2 1 -5 -7 4 19)
1969-12-31 18:00:10.721026865,(-59 -31 -11 -7 -5 -7 -22 -19)
1969-12-31 18:00:10.721026865,(24 9 2 2 2 5 -8 -10)
1969-12-31 18:00:10.748076272,(-10 -6 -1 1 11 47 -10 -14)
1969-12-31 18:00:10.748076272,(18 4 1 -1 -14 -60 -41 -15)
1969-12-31 18:00:10.749364339,(20 17 10 6 1 -10 24 31)
1969-12-31 18:00:10.749364339,(-33 -21 -13 -10 -5 7 -57 -65)
1969-12-31 18:00:10.764821143,(14 9 7 5 1 3 13 22)
1969-12-31 18:00:10.764821143,(6 6 -8 -4 0 17 -1 -12)
1969-12-31 18:00:10.776413746,(64 14 7 3 3 10 20 43)
1969-12-31 18:00:10.776413746,(-47 -17 -11 -6 -4 15 35 22)
1969-12-31 18:00:10.795734750,(-20 -1 0 -3 -5 -12 -42 -53)
1969-12-31 18:00:10.795734750,(1 -20 0 4 8 5 11 30)
1969-12-31 18:00:10.798310884,(0 15 -1 1 -2 -7 -13 -37)
1969-12-31 18:00:10.798310884,(45 33 7 1 -1 -17 -11 15)
1969-12-31 18:00:10.824072224,(-28 -11 -2 1 5 6 -28 -28)
1969-12-31 18:00:10.824072224,(-18 -7 -3 -5 -11 -38 20 36)
1969-12-31 18:00:10.826648358,(-11 -19 -10 -2 1 14 14 42)
1969-12-31 18:00:10.826648358,(-10 3 0 -1 -8 -34 -16 -59)
1969-12-31 18:00:10.842105161,(-3 -5 -7 -5 -9 -10 9 5)
1969-12-31 18:00:10.842105161,(-2 -10 -1 1 5 9 6 28)
1969-12-31 18:00:10.853697764,(-41 -36 -13 -10 -5 13 -5 -43)
1969-12-31 18:00:10.853697764,(9 15 7 2 0 -16 -12 12)
1969-12-31 18:00:10.873018769,(-15 -21 -9 -7 -3 15 40 30)
1969-12-31 18:00:10.873018769,(12 18 6 2 5 38 17 -7)
1969-12-31 18:00:10.875594903,(33 31 13 8 10 51 13 -14)
1969-12-31 18:00:10.875594903,(-18 -55 -25 -14 -15 -50 12 -11)
1969-12-31 18:00:10.901356243,(-7 7 -1 -3 7 20 39 45)
1969-12-31 18:00:10.901356243,(7 9 5 3 0 -8 -5 9)
1969-12-31 18:00:10.902644310,(-10 -20 -11 -7 -4 0 15 -16)
1969-12-31 18:00:10.902644310,(32 38 20 12 4 49 49 64)
1969-12-31 18:00:10.929693716,(-42 -24 -4 -2 -7 -51 -67 -37)
1969-12-31 18:00:10.929693716,(-6 -7 -13 -11 -9 -16 -44 -49)
1969-12-31 18:00:10.930981783,(20 15 9 3 -6 -37 -12 1)
1969-12-31 18:00:10.930981783,(-22 -15 -6 -4 -3 -27 12 29)
1969-12-31 18:00:10.949014721,(16 6 -4 -3 -4 -7 12 13)
1969-12-31 18:00:10.949014721,(32 24 14 7 8 36 -3 -26)
1969-12-31 18:00:10.959319257,(-5 -10 -5 -1 -6 -43 -12 34)
1969-12-31 18:00:10.959319257,(-32 -23 -16 -10 6 69 -11 -70)
1969-12-31 18:00:10.978640261,(-2 17 11 3 -10 -76 8 -5)
1969-12-31 18:00:10.978640261,(9 1 -4 -2 2 8 57 56)
1969-12-31 18:00:10.979928328,(-3 12 12 7 7 -1 -50 -28)
1969-12-31 18:00:10.979928328,(36 -6 -7 -2 0 0 -18 5)
1969-12-31 18:00:11.006977735,(36 12 2 0 6 32 30 1)
1969-12-31 18:00:11.006977735,(-14 6 9 11 9 8 10 26)
1969-12-31 18:00:11.008265802,(14 -7 -10 -5 -4 11 3 -35)
1969-12-31 18:00:11.008265802,(2 8 7 1 -9 -77 -43 -35)
1969-12-31 18:00:11.026298740,(10 6 4 3 2 -3 -8 -7)
1969-12-31 18:00:11.026298740,(-11 -6 -1 0 -1 15 10 -5)
1969-12-31 18:00:11.027586807,(-9 -2 -5 -3 -1 -10 17 15)
1969-12-31 18:00:11.027586807,(-16 3 -2 1 5 26 -15 -30)
1969-12-31 18:00:11.055924280,(3 -21 -10 -9 -12 -2 -9 3)
1969-12-31 18:00:11.055924280,(5 15 5 2 3 6 21 50)
1969-12-31 18:00:11.055924280,(8 6 -4 -5 -11 -44 -15 -36)
1969-12-31 18:00:11.055924280,(-42 -6 1 3 2 13 11 -11)
1969-12-31 18:00:11.084261754,(20 -5 2 5 8 2 -7 0)
1969-12-31 18:00:11.084261754,(-20 -12 1 2 -1 4 -21 -39)
1969-12-31 18:00:11.085549821,(16 -2 -6 -4 1 26 48 43)
1969-12-31 18:00:11.085549821,(13 5 1 1 -1 -38 -46 38)
1969-12-31 18:00:11.103582758,(-1 14 8 7 3 7 20 7)
1969-12-31 18:00:11.103582758,(-65 -39 -24 -18 -17 -32 -58 -115)
1969-12-31 18:00:11.104870825,(22 24 17 11 11 22 22 25)
1969-12-31 18:00:11.104870825,(-24 -17 -7 -9 -9 -19 32 -1)
1969-12-31 18:00:11.133208299,(-1 4 -3 -2 4 31 -40 11)
1969-12-31 18:00:11.133208299,(23 -4 0 2 0 2 28 -4)
1969-12-31 18:00:11.134496366,(1 3 -7 -8 -9 16 3 8)
1969-12-31 18:00:11.134496366,(27 5 12 11 9 -2 4 22)
1969-12-31 18:00:11.161545772,(-5 -9 -6 -3 -1 30 35 10)
1969-12-31 18:00:11.161545772,(-10 0 1 0 4 -6 -44 -34)
1969-12-31 18:00:11.162833839,(-28 3 -5 -5 -8 -17 -16 -41)
1969-12-31 18:00:11.162833839,(-20 -24 -11 -10 -7 -2 -10 -8)
1969-12-31 18:00:11.180866777,(19 14 4 0 -8 -22 3 1)
1969-12-31 18:00:11.180866777,(16 -5 -13 -10 4 74 47 36)
1969-12-31 18:00:11.182154844,(-12 -8 -2 -2 0 -41 -29 -36)
1969-12-31 18:00:11.182154844,(48 21 9 5 -1 -2 -23 42)
1969-12-31 18:00:11.210492318,(-37 -13 -8 -8 -5 21 -35 -45)
1969-12-31 18:00:11.210492318,(-4 -3 -7 -4 -4 6 5 23)
1969-12-31 18:00:11.211780385,(-62 -61 -20 -14 -11 -15 -15 -41)
1969-12-31 18:00:11.211780385,(2 21 6 5 22 40 30 65)
1969-12-31 18:00:11.238829791,(15 -5 0 2 0 44 19 5)
1969-12-31 18:00:11.238829791,(21 15 3 -6 -26 -128 -27 -29)
1969-12-31 18:00:11.240117858,(29 18 10 24 95 108 26 44)
1969-12-31 18:00:11.240117858,(-17 -7 1 7 -10 37 5 -29)
1969-12-31 18:00:11.258150796,(21 18 3 -25 -88 -102 20 38)
1969-12-31 18:00:11.258150796,(-21 -19 -13 -18 -8 -1 -46 25)
1969-12-31 18:00:11.259438863,(12 4 -3 -3 3 -1 -4 62)
1969-12-31 18:00:11.259438863,(4 -2 4 8 52 27 16 -19)
1969-12-31 18:00:11.287776336,(-35 -16 -7 16 42 13 3 -17)
1969-12-31 18:00:11.287776336,(-2 9 6 3 -27 44 -10 -29)
1969-12-31 18:00:11.289064403,(-3 4 -10 -25 -37 -81 12 -13)
1969-12-31 18:00:11.289064403,(9 4 -2 -12 -45 -37 -5 -8)
1969-12-31 18:00:11.316113810,(-6 -11 -2 4 15 10 3 6)
1969-12-31 18:00:11.316113810,(29 14 7 9 28 41 31 40)
1969-12-31 18:00:11.317401877,(-5 3 4 14 21 -8 -28 -10)
1969-12-31 18:00:11.317401877,(20 3 2 1 -14 17 20 20)
1969-12-31 18:00:11.335434815,(-4 3 -6 -12 4 -21 -15 -1)
1969-12-31 18:00:11.335434815,(-21 -15 4 17 56 33 26 7)
1969-12-31 18:00:11.336722882,(28 24 15 15 -3 12 -6 9)
1969-12-31 18:00:11.336722882,(-8 -13 -12 -23 -68 -40 -2 -5)
1969-12-31 18:00:11.365060355,(18 19 4 -8 -11 -2 4 2)
1969-12-31 18:00:11.365060355,(40 16 -2 -15 -54 -58 -1 -19)
1969-12-31 18:00:11.366348422,(32 15 9 3 3 2 19 27)
1969-12-31 18:00:11.366348422,(-60 -26 -4 16 69 90 10 -25)
1969-12-31 18:00:11.393397829,(-29 -26 -3 13 24 11 -5 -11)
1969-12-31 18:00:11.394685896,(-8 -9 -7 -13 -20 -29 -15 -7)
1969-12-31 18:00:11.394685896,(14 7 3 10 51 16 -14 -14)
1969-12-31 18:00:11.394685896,(42 42 -8 -8 -72 -48 15 37)
1969-12-31 18:00:11.412718833,(28 14 11 -18 -20 -22 -10 -7)
1969-12-31 18:00:11.412718833,(-17 -39 9 15 26 19 19 20)
1969-12-31 18:00:11.423023369,(1 -4 -16 -19 -33 4 -5 -5)
1969-12-31 18:00:11.423023369,(-25 -20 21 16 64 19 -35 -51)
1969-12-31 18:00:11.442344374,(-15 26 -10 4 -2 14 27 31)
1969-12-31 18:00:11.442344374,(1 -18 -11 1 -19 -21 -25 -24)
1969-12-31 18:00:11.443632441,(43 43 -27 -23 -24 0 -1 17)
1969-12-31 18:00:11.443632441,(-5 -50 -12 -16 6 17 25 22)
1969-12-31 18:00:11.470681847,(-14 2 25 16 16 -14 7 -39)
1969-12-31 18:00:11.470681847,(32 -11 -23 7 22 26 -22 19)
1969-12-31 18:00:11.471969914,(-44 -14 -10 -9 -28 -30 -24 -29)
1969-12-31 18:00:11.471969914,(67 106 33 2 -37 -50 -6 11)
1969-12-31 18:00:11.490002852,(-21 -36 -3 -16 -45 -24 -24 -15)
1969-12-31 18:00:11.491290919,(-18 -20 2 25 76 94 45 -30)
1969-12-31 18:00:11.491290919,(35 9 -40 -31 -80 -51 1 12)
1969-12-31 18:00:11.491290919,(-55 -8 40 11 18 -11 -37 -52)
1969-12-31 18:00:11.519628393,(-8 -4 -1 18 37 12 7 -4)
1969-12-31 18:00:11.519628393,(24 30 -33 -14 71 62 39 54)
1969-12-31 18:00:11.520916460,(-41 -12 40 16 -24 -24 -5 3)
1969-12-31 18:00:11.520916460,(-37 -66 -42 -34 -74 -45 -19 -12)
1969-12-31 18:00:11.559558469,(1 3 -9 0 37 15 -23 -47)
1969-12-31 18:00:11.559558469,(18 -9 -16 -15 -3 -9 25 80)
1969-12-31 18:00:11.559558469,(-67 -77 -39 -7 34 61 35 -18)
1969-12-31 18:00:11.559558469,(-1 46 50 22 14 -30 -30 15)
1969-12-31 18:00:11.567286871,(25 -32 -28 -3 23 30 7 41)
1969-12-31 18:00:11.567286871,(0 -4 5 6 -37 -40 -7 -12)
1969-12-31 18:00:11.568574938,(23 90 115 34 -27 8 10 12)
1969-12-31 18:00:11.568574938,(15 -40 -106 -46 -43 -55 -13 -27)
1969-12-31 18:00:11.596912410,(-34 32 68 14 17 18 -16 -18)
1969-12-31 18:00:11.596912410,(-57 20 -13 -3 -13 -39 -21 -88)
1969-12-31 18:00:11.598200478,(-15 4 49 31 34 17 -48 17)
1969-12-31 18:00:11.598200478,(78 9 19 16 47 70 61 91)
1969-12-31 18:00:11.625249885,(-68 -102 -110 -26 64 38 -24 -69)
1969-12-31 18:00:11.625249885,(44 12 -50 -68 -128 -117 -22 33)
1969-12-31 18:00:11.626537952,(-1 11 57 16 -5 -39 -4 31)
1969-12-31 18:00:11.626537952,(34 70 -38 -20 34 24 -18 -17)
1969-12-31 18:00:11.644570890,(-82 14 82 29 17 4 -14 -57)
1969-12-31 18:00:11.644570890,(7 47 16 38 89 85 59 64)
1969-12-31 18:00:11.645858957,(3 -76 -80 -32 -42 -36 -23 -35)
1969-12-31 18:00:11.645858957,(-15 -66 0 1 1 -6 13 11)
1969-12-31 18:00:11.674196430,(57 87 23 22 16 27 17 2)
1969-12-31 18:00:11.674196430,(-15 27 18 -25 -60 -69 -71 -102)
1969-12-31 18:00:11.675484497,(-56 3 43 15 -28 -26 -10 18)
1969-12-31 18:00:11.675484497,(15 11 -9 19 46 21 9 28)
1969-12-31 18:00:11.703821971,(101 -2 -9 -3 -13 3 12 67)
1969-12-31 18:00:11.703821971,(-70 -22 -11 -3 -30 -16 -6 -57)
1969-12-31 18:00:11.703821971,(16 -83 -79 -34 2 29 -10 -40)
1969-12-31 18:00:11.703821971,(-31 25 27 15 31 15 -8 -22)
1969-12-31 18:00:11.721854908,(28 -8 -8 3 -8 1 -6 30)
1969-12-31 18:00:11.721854908,(35 37 41 5 -4 -18 20 36)
1969-12-31 18:00:11.732159444,(2 -45 -77 -29 -1 -27 -14 -3)
1969-12-31 18:00:11.732159444,(-82 -106 -14 -6 -30 -13 0 -45)
1969-12-31 18:00:11.751480449,(-44 64 -3 -19 18 8 -16 -69)
1969-12-31 18:00:11.751480449,(-19 25 33 31 2 -21 -19 -30)
1969-12-31 18:00:11.752768516,(-5 73 83 27 7 20 5 -61)
1969-12-31 18:00:11.752768516,(13 6 6 17 33 27 7 -5)
1969-12-31 18:00:11.779817923,(26 -55 -48 -23 -16 -18 -2 30)
1969-12-31 18:00:11.779817923,(-23 -53 -21 -27 -65 -36 -20 -23)
1969-12-31 18:00:11.781105990,(46 19 -37 -6 33 23 22 49)
1969-12-31 18:00:11.781105990,(-32 -13 16 21 29 28 21 15)
1969-12-31 18:00:11.799138927,(20 7 18 0 -7 5 9 33)
1969-12-31 18:00:11.799138927,(48 26 6 1 16 17 18 75)
1969-12-31 18:00:11.809443463,(-5 -29 -23 -18 -23 -6 -32 -45)
1969-12-31 18:00:11.809443463,(20 -22 -84 -25 78 74 14 5)
1969-12-31 18:00:11.828764468,(-56 67 87 48 -92 -111 20 11)
1969-12-31 18:00:11.828764468,(59 74 58 30 46 33 -45 20)
1969-12-31 18:00:11.837780937,(9 -11 -28 -26 -54 0 32 69)
1969-12-31 18:00:11.839069003,(11 -10 4 -12 -10 -10 -13 -12)
1969-12-31 18:00:11.857101941,(24 -56 -55 -8 40 39 23 46)
1969-12-31 18:00:11.857101941,(-46 -82 -73 -17 16 11 5 17)
1969-12-31 18:00:11.858390008,(-18 106 97 43 40 -1 -10 -59)
1969-12-31 18:00:11.858390008,(-5 42 30 24 -16 -10 14 22)
1969-12-31 18:00:11.877711013,(-9 -15 1 0 4 -13 -20 -13)
1969-12-31 18:00:11.877711013,(6 -22 27 4 -26 5 8 -18)
1969-12-31 18:00:11.886727482,(-31 -89 -121 -27 67 37 33 44)
1969-12-31 18:00:11.886727482,(37 17 28 -30 -82 -33 -32 11)
1969-12-31 18:00:11.907336554,(78 55 52 22 -25 -23 11 74)
1969-12-31 18:00:11.907336554,(-69 -37 -18 -10 8 -10 -9 -32)
1969-12-31 18:00:11.908624620,(-1 -20 -34 -20 -2 -4 -13 -16)
1969-12-31 18:00:11.908624620,(58 99 38 20 17 17 21 19)
1969-12-31 18:00:11.934385960,(26 -41 -16 14 34 16 13 23)
1969-12-31 18:00:11.934385960,(-14 -87 -61 -47 -51 -5 -1 -16)
1969-12-31 18:00:11.935674027,(3 92 91 21 4 -1 4 -10)
1969-12-31 18:00:11.935674027,(23 66 61 53 21 -6 1 10)
1969-12-31 18:00:11.953706965,(25 -36 -58 -48 -29 6 4 1)
1969-12-31 18:00:11.953706965,(9 3 -7 9 27 9 -24 -68)
1969-12-31 18:00:11.964011501,(10 -19 -16 -1 6 12 0 27)
1969-12-31 18:00:11.964011501,(-42 -38 -22 -19 20 17 -17 -75)
1969-12-31 18:00:11.983332505,(49 -24 -37 8 34 14 15 49)
1969-12-31 18:00:11.983332505,(-62 39 59 -7 -86 -83 -38 -57)
1969-12-31 18:00:11.983332505,(39 43 41 46 76 45 28 66)
1969-12-31 18:00:11.983332505,(15 -21 -13 -24 -66 -18 10 40)
1969-12-31 18:00:12.011669979,(-16 -45 -73 -20 32 24 5 -7)
1969-12-31 18:00:12.011669979,(-24 49 75 25 21 32 25 21)
1969-12-31 18:00:12.012958046,(14 -22 -61 -29 -15 21 6 -10)
1969-12-31 18:00:12.012958046,(-49 -36 -8 2 5 -30 3 -1)
1969-12-31 18:00:12.030990984,(43 71 81 63 20 11 -7 30)
1969-12-31 18:00:12.030990984,(35 -30 -56 -6 13 24 25 61)
1969-12-31 18:00:12.041295519,(-51 -23 21 15 0 -10 -22 -91)
1969-12-31 18:00:12.041295519,(-4 -72 -70 -14 40 31 4 5)
1969-12-31 18:00:12.060616524,(30 -64 -65 -59 -108 -62 -10 34)
1969-12-31 18:00:12.060616524,(48 65 30 20 54 44 27 28)
1969-12-31 18:00:12.061904591,(-23 0 46 26 6 -16 -8 -3)
1969-12-31 18:00:12.061904591,(24 -8 -42 -31 -28 3 -5 4)
1969-12-31 18:00:12.088953998,(-76 25 52 2 -13 -29 -27 -46)
1969-12-31 18:00:12.088953998,(60 -5 -31 -12 -16 24 35 68)
1969-12-31 18:00:12.090242065,(-9 -107 -84 -30 35 7 4 -19)
1969-12-31 18:00:12.090242065,(11 -33 -82 -29 -53 -44 -2 10)
1969-12-31 18:00:12.108275002,(-5 127 104 91 87 55 20 13)
1969-12-31 18:00:12.108275002,(-47 -13 12 -21 -78 -49 -58 -105)
1969-12-31 18:00:12.118579538,(3 -21 -33 -14 -10 2 13 5)
1969-12-31 18:00:12.118579538,(36 12 36 19 16 -5 2 47)
1969-12-31 18:00:12.137900543,(15 -81 -77 -37 -6 8 21 53)
1969-12-31 18:00:12.137900543,(10 39 -7 29 55 -2 -30 -52)
1969-12-31 18:00:12.137900543,(12 93 103 30 -10 -2 -11 -13)
1969-12-31 18:00:12.139188610,(37 27 36 23 -5 -4 -2 -11)
1969-12-31 18:00:12.166238016,(-75 -41 -31 -46 -26 -3 -43 -61)
1969-12-31 18:00:12.166238016,(-5 -41 1 10 56 10 20 37)
1969-12-31 18:00:12.167526083,(-2 4 -37 26 79 67 30 -28)
1969-12-31 18:00:12.167526083,(-16 -27 -48 -49 -84 -95 -40 -35)
1969-12-31 18:00:12.198439691,(-57 -64 -35 -71 -39 -29 11 -30)
1969-12-31 18:00:12.198439691,(5 21 -4 19 42 13 -11 0)
1969-12-31 18:00:12.198439691,(68 32 25 37 86 50 23 32)
1969-12-31 18:00:12.198439691,(29 122 86 56 74 52 18 17)
1969-12-31 18:00:12.215184562,(-47 78 98 27 -89 -58 -5 -77)
1969-12-31 18:00:12.215184562,(47 -15 -38 -42 -48 -25 8 55)
1969-12-31 18:00:12.215184562,(-50 -99 -64 -37 -44 -28 -14 23)
1969-12-31 18:00:12.216472629,(-66 -43 -37 -10 6 17 6 -39)
1969-12-31 18:00:12.243522035,(-12 -28 -57 -16 24 34 -2 -59)
1969-12-31 18:00:12.243522035,(28 24 24 11 25 12 26 42)
1969-12-31 18:00:12.244810102,(-3 -9 21 -4 -37 -28 -18 -5)
1969-12-31 18:00:12.244810102,(-29 -79 -97 -50 -26 1 4 6)
1969-12-31 18:00:12.273147576,(23 0 21 5 22 13 2 12)
1969-12-31 18:00:12.273147576,(11 37 51 37 -9 0 -10 -15)
1969-12-31 18:00:12.274435643,(-25 19 22 0 -12 -18 -1 -15)
1969-12-31 18:00:12.274435643,(43 14 8 13 8 13 17 20)
1969-12-31 18:00:12.292468580,(-51 13 31 35 -3 -4 13 -6)
1969-12-31 18:00:12.292468580,(-3 88 78 22 41 29 -1 -38)
1969-12-31 18:00:12.293756647,(-38 -79 -53 -42 -28 -4 2 -28)
1969-12-31 18:00:12.293756647,(14 -24 -26 25 54 37 -18 -33)
1969-12-31 18:00:12.320806054,(18 60 47 -18 -87 -61 20 36)
1969-12-31 18:00:12.320806054,(-43 29 27 3 2 2 19 -23)
1969-12-31 18:00:12.322094121,(56 63 36 18 5 -7 2 42)
1969-12-31 18:00:12.322094121,(-53 -44 21 -11 0 18 19 -31)
1969-12-31 18:00:12.351719661,(38 -94 -126 -30 28 17 -23 18)
1969-12-31 18:00:12.351719661,(-39 -82 -35 -16 4 0 1 -9)
1969-12-31 18:00:12.351719661,(28 29 -28 -29 -29 -10 2 29)
1969-12-31 18:00:12.353007728,(-4 11 19 3 -35 -9 5 55)
1969-12-31 18:00:12.369752599,(38 9 4 -22 -43 -34 3 -3)
1969-12-31 18:00:12.369752599,(-15 -37 -67 37 49 10 -20 10)
1969-12-31 18:00:12.371040666,(13 -13 8 12 17 4 10 -2)
1969-12-31 18:00:12.371040666,(-14 92 114 48 -7 -2 -12 -5)
1969-12-31 18:00:12.398090073,(9 6 32 -5 -9 -14 -12 -11)
1969-12-31 18:00:12.398090073,(-7 10 -5 -8 -4 0 10 29)
1969-12-31 18:00:12.399378140,(-9 -39 -33 -17 -40 -24 -10 -11)
1969-12-31 18:00:12.399378140,(-20 19 -5 -16 0 -14 -3 -50)
1969-12-31 18:00:12.429003680,(-49 -55 -18 4 58 44 -14 -54)
1969-12-31 18:00:12.429003680,(56 -18 -45 -29 -29 -13 21 26)
1969-12-31 18:00:12.429003680,(-9 -8 19 32 63 19 10 42)
1969-12-31 18:00:12.429003680,(-77 -18 18 -17 -68 -49 -5 -25)
1969-12-31 18:00:12.447036618,(-4 15 -17 -7 -5 -34 -69 -40)
1969-12-31 18:00:12.447036618,(-35 -117 -70 -38 -18 20 13 -25)
1969-12-31 18:00:12.448324685,(-41 49 31 -4 -5 -11 1 -43)
1969-12-31 18:00:12.448324685,(57 72 57 39 35 26 8 43)
1969-12-31 18:00:12.475374091,(68 72 8 29 47 33 27 58)
1969-12-31 18:00:12.475374091,(-51 -40 42 9 -20 -15 -23 -27)
1969-12-31 18:00:12.476662158,(21 -31 -29 -26 -38 -8 -5 -2)
1969-12-31 18:00:12.476662158,(13 -64 -56 -20 17 0 -13 17)
1969-12-31 18:00:12.506287699,(95 85 30 35 43 35 18 60)
1969-12-31 18:00:12.506287699,(-24 61 89 27 -19 -23 -28 -90)
1969-12-31 18:00:12.506287699,(4 13 14 -24 -101 -104 -58 -17)
1969-12-31 18:00:12.506287699,(18 -18 -19 -6 -45 1 28 35)
1969-12-31 18:00:12.525608704,(-39 -62 -54 -18 43 -2 -23 -21)
1969-12-31 18:00:12.525608704,(-33 -52 -70 -23 26 39 28 2)
1969-12-31 18:00:12.525608704,(9 -21 -31 9 52 47 5 30)
1969-12-31 18:00:12.526896771,(23 67 74 7 -107 -99 -43 -14)
1969-12-31 18:00:12.555234244,(-54 -5 14 2 47 19 -6 -26)
1969-12-31 18:00:12.555234244,(21 -32 -29 -7 46 67 35 55)
1969-12-31 18:00:12.555234244,(14 25 13 -13 -92 -97 -20 21)
1969-12-31 18:00:12.555234244,(-39 -19 -30 -10 22 19 -7 -56)
1969-12-31 18:00:12.582283651,(7 -17 15 5 42 17 15 8)
1969-12-31 18:00:12.582283651,(-21 -14 39 34 -22 10 29 33)
1969-12-31 18:00:12.583571718,(57 67 17 8 36 26 12 8)
1969-12-31 18:00:12.583571718,(-3 -25 -17 -3 31 13 -2 -2)
1969-12-31 18:00:12.601604655,(-31 35 28 11 -39 20 21 6)
1969-12-31 18:00:12.601604655,(23 -15 -2 -11 -10 -75 -37 -15)
1969-12-31 18:00:12.602892722,(16 -19 -43 0 20 42 16 15)
1969-12-31 18:00:12.602892722,(-33 -44 -13 -11 10 -12 -18 -9)
1969-12-31 18:00:12.629942129,(-58 -108 -71 -56 -51 -28 -20 -58)
1969-12-31 18:00:12.629942129,(41 28 -69 2 72 62 12 25)
1969-12-31 18:00:12.631230196,(79 112 86 40 -70 -24 35 59)
1969-12-31 18:00:12.631230196,(26 93 99 66 36 -1 -40 6)
1969-12-31 18:00:12.660855736,(-8 27 13 -13 -73 -18 20 2)
1969-12-31 18:00:12.660855736,(-8 -41 -44 -53 -68 -42 -23 21)
1969-12-31 18:00:12.660855736,(-56 -109 -78 -4 67 42 23 -24)
1969-12-31 18:00:12.660855736,(1 -45 -86 -36 52 37 1 11)
1969-12-31 18:00:12.678888674,(2 35 45 28 -12 -37 1 13)
1969-12-31 18:00:12.678888674,(36 80 1 8 1 6 6 26)
1969-12-31 18:00:12.680176741,(-51 2 94 28 20 3 -16 -53)
1969-12-31 18:00:12.680176741,(8 -13 -35 -14 35 36 14 -14)
1969-12-31 18:00:12.707226148,(-5 -28 -26 -7 -53 -32 17 3)
1969-12-31 18:00:12.707226148,(16 28 -24 -5 39 24 -2 -4)
1969-12-31 18:00:12.708514215,(-81 -41 -6 -8 23 1 -4 -41)
1969-12-31 18:00:12.708514215,(-8 6 14 -26 -85 -49 -35 -15)
1969-12-31 18:00:12.738139755,(29 1 -45 -48 19 10 -2 -2)
1969-12-31 18:00:12.738139755,(-49 -49 19 60 35 5 -10 -26)
1969-12-31 18:00:12.738139755,(24 0 -17 32 65 56 36 32)
1969-12-31 18:00:12.738139755,(13 41 35 46 63 15 17 6)
1969-12-31 18:00:12.756172693,(-28 36 56 23 -11 -22 -13 10)
1969-12-31 18:00:12.756172693,(7 -47 -31 -50 -66 -50 -32 -3)
1969-12-31 18:00:12.757460760,(-30 -18 -27 -21 -8 8 -17 -42)
1969-12-31 18:00:12.757460760,(3 -8 -14 -24 -12 14 29 16)
1969-12-31 18:00:12.784510167,(-10 -15 -34 2 11 6 -7 2)
1969-12-31 18:00:12.784510167,(14 59 67 26 21 16 4 5)
1969-12-31 18:00:12.785798234,(25 7 -12 -32 -75 -49 -14 -8)
1969-12-31 18:00:12.785798234,(24 -16 -17 -8 20 9 2 28)
1969-12-31 18:00:12.815423774,(-19 15 25 28 20 14 -1 -26)
1969-12-31 18:00:12.815423774,(-18 -27 5 -7 -84 -27 -11 -21)
1969-12-31 18:00:12.815423774,(21 5 -6 -2 83 11 -23 13)
1969-12-31 18:00:12.815423774,(-23 -20 -27 0 1 12 14 -6)
1969-12-31 18:00:12.833456712,(-2 -21 -16 -2 -24 1 3 1)
1969-12-31 18:00:12.833456712,(6 -37 -20 -5 56 25 6 0)
1969-12-31 18:00:12.834744779,(-2 52 -31 -30 -42 6 -5 -19)
1969-12-31 18:00:12.834744779,(-20 -21 52 30 -10 -38 16 7)
1969-12-31 18:00:12.861794185,(-43 -42 -62 -34 -33 -12 -31 -38)
1969-12-31 18:00:12.861794185,(65 32 41 20 15 5 22 27)
1969-12-31 18:00:12.863082252,(66 72 83 54 41 52 36 89)
1969-12-31 18:00:12.863082252,(-95 -22 -4 -21 -36 -19 -4 -41)
1969-12-31 18:00:12.892707793,(55 27 5 -6 5 10 1 3)
1969-12-31 18:00:12.892707793,(-48 -67 -53 -36 0 -23 -13 -20)
1969-12-31 18:00:12.892707793,(21 -25 -45 -28 -39 -18 -7 1)
1969-12-31 18:00:12.892707793,(27 6 5 -12 35 37 13 24)
1969-12-31 18:00:12.912028797,(-5 -12 -12 12 -30 -6 1 -8)
1969-12-31 18:00:12.912028797,(-7 15 7 18 60 15 -10 -11)
1969-12-31 18:00:12.913316864,(2 3 6 27 -4 -10 -3 -6)
1969-12-31 18:00:12.913316864,(27 2 -14 -14 -22 -19 -11 1)
1969-12-31 18:00:12.939078204,(5 6 -13 -32 -34 -7 1 3)
1969-12-31 18:00:12.939078204,(14 12 15 8 1 0 -9 -5)
1969-12-31 18:00:12.940366271,(-83 -30 9 -11 -36 -18 -10 -23)
1969-12-31 18:00:12.940366271,(-6 -4 2 1 23 25 -2 -25)
1969-12-31 18:00:12.969991812,(20 13 14 26 18 -15 0 14)
1969-12-31 18:00:12.969991812,(13 8 -7 -21 -74 -47 -5 4)
1969-12-31 18:00:12.969991812,(39 13 5 -8 -2 -7 -11 -2)
1969-12-31 18:00:12.969991812,(-25 -35 -47 -73 -99 -39 -12 -23)
1969-12-31 18:00:12.986736682,(-42 -22 -1 14 41 29 -2 -2)
1969-12-31 18:00:12.986736682,(-30 7 17 46 42 19 4 -6)
1969-12-31 18:00:12.997041218,(18 1 1 24 24 35 14 21)
1969-12-31 18:00:12.997041218,(23 25 -2 9 -20 -52 -26 -6)
1969-12-31 18:00:13.017650290,(25 -29 -10 -28 -7 -26 17 38)
1969-12-31 18:00:13.017650290,(-35 -8 -5 -16 -43 22 18 -23)
1969-12-31 18:00:13.018938357,(-40 -39 -23 -15 -16 14 2 -5)
1969-12-31 18:00:13.018938357,(59 31 14 24 33 14 -10 25)
1969-12-31 18:00:13.047275830,(14 22 10 0 22 13 2 11)
1969-12-31 18:00:13.047275830,(62 55 23 -2 -1 -2 24 70)
1969-12-31 18:00:13.048563897,(-55 -75 -28 -13 -8 -25 -31 -61)
1969-12-31 18:00:13.048563897,(-17 -3 -9 -2 16 28 9 -35)
1969-12-31 18:00:13.064020701,(13 -3 10 11 7 -5 14 8)
1969-12-31 18:00:13.064020701,(22 19 0 -6 8 11 3 28)
1969-12-31 18:00:13.074325237,(-15 30 18 2 -20 -16 -15 -24)
1969-12-31 18:00:13.075613304,(0 -28 -18 1 9 -7 12 30)
1969-12-31 18:00:13.094934309,(-23 -3 0 13 14 14 -16 -35)
1969-12-31 18:00:13.094934309,(12 11 9 -1 -4 -4 -3 -7)
1969-12-31 18:00:13.096222376,(4 -1 -8 -14 -5 -10 0 7)
1969-12-31 18:00:13.096222376,(-6 -11 -2 11 16 10 9 18)
1969-12-31 18:00:13.124559849,(-13 -16 -10 1 14 7 8 48)
1969-12-31 18:00:13.124559849,(10 12 1 -9 -13 -8 -10 -10)
1969-12-31 18:00:13.124559849,(-3 7 4 -4 -5 -9 2 10)
1969-12-31 18:00:13.124559849,(96 46 12 21 18 22 33 47)
1969-12-31 18:00:13.141304720,(-58 -42 -11 -3 1 5 -16 -45)
1969-12-31 18:00:13.141304720,(-21 -16 -11 -16 -14 -19 -4 5)
1969-12-31 18:00:13.151609256,(-24 -13 -7 -3 -5 -9 -8 -3)
1969-12-31 18:00:13.151609256,(21 26 11 13 16 21 3 -4)
1969-12-31 18:00:13.172218327,(12 10 4 2 2 5 -6 -47)
1969-12-31 18:00:13.172218327,(-54 -39 -17 -13 -7 -16 -52 -67)
1969-12-31 18:00:13.173506394,(-64 -21 0 1 -1 -5 21 -4)
1969-12-31 18:00:13.173506394,(57 58 10 6 3 -6 1 41)
1969-12-31 18:00:13.201843868,(0 6 2 0 3 12 2 18)
1969-12-31 18:00:13.201843868,(24 9 -1 -9 -23 -11 8 16)
1969-12-31 18:00:13.201843868,(4 -17 -18 -33 -18 -7 -13 22)
1969-12-31 18:00:13.201843868,(-59 -11 2 37 28 41 6 -43)
1969-12-31 18:00:13.218588739,(-69 -56 -16 -7 -8 -13 -22 -48)
1969-12-31 18:00:13.218588739,(7 1 8 6 5 -2 4 -2)
1969-12-31 18:00:13.230181341,(100 41 3 -9 -5 3 8 35)
1969-12-31 18:00:13.230181341,(-34 -22 -1 -9 -11 -16 -7 -32)
1969-12-31 18:00:13.248214279,(69 75 20 18 6 2 2 24)
1969-12-31 18:00:13.248214279,(-63 -66 -20 -12 -2 -8 -4 -18)
1969-12-31 18:00:13.258518815,(35 21 10 10 10 12 19 56)
1969-12-31 18:00:13.258518815,(6 -13 -3 -2 2 0 -2 -8)
1969-12-31 18:00:13.277839820,(-48 -9 1 1 0 -4 -7 -25)
1969-12-31 18:00:13.279127887,(20 24 19 8 0 -1 -2 0)
1969-12-31 18:00:13.280415954,(17 -3 -14 -2 0 2 -3 -13)
1969-12-31 18:00:13.280415954,(-29 -31 -10 -6 -6 -10 -4 3)
1969-12-31 18:00:13.295872757,(51 15 -9 -19 -7 -2 2 22)
1969-12-31 18:00:13.295872757,(23 17 -3 -3 0 5 13 30)
1969-12-31 18:00:13.307465360,(1 -1 14 19 8 0 -4 -1)
1969-12-31 18:00:13.307465360,(-31 -13 -8 -9 -8 -9 -8 -29)
1969-12-31 18:00:13.324210231,(-8 9 15 7 4 4 2 -11)
1969-12-31 18:00:13.325498298,(-26 -6 -4 4 6 3 2 -10)
1969-12-31 18:00:13.335802834,(-4 -7 -12 -8 -8 -8 -12 -18)
1969-12-31 18:00:13.337090901,(-27 -27 -9 -8 -4 -7 -10 -16)
1969-12-31 18:00:13.365428374,(0 -7 -2 -1 -4 4 6 22)
1969-12-31 18:00:13.365428374,(40 30 0 -1 2 -2 -3 -6)
1969-12-31 18:00:13.368004508,(-49 -34 -13 -7 -4 -6 -11 -28)
1969-12-31 18:00:13.368004508,(3 0 -5 -6 -8 -2 1 14)
1969-12-31 18:00:13.373156776,(11 -8 -6 1 3 -1 0 8)
1969-12-31 18:00:13.373156776,(2 31 24 12 3 1 2 -1)
1969-12-31 18:00:13.384749379,(-3 -16 -7 -2 -1 0 1 -9)
1969-12-31 18:00:13.384749379,(-21 -9 -18 -14 -6 -8 -7 -2)
1969-12-31 18:00:13.402782317,(25 11 8 2 4 4 4 11)
1969-12-31 18:00:13.402782317,(-6 -7 -3 -8 1 6 2 -8)
1969-12-31 18:00:13.411798786,(11 16 11 15 3 -1 -5 -19)
1969-12-31 18:00:13.411798786,(-20 -30 -16 -8 -6 -6 -4 -4)
1969-12-31 18:00:13.433695924,(16 8 6 4 -1 -2 -1 9)
1969-12-31 18:00:13.433695924,(-19 -21 -26 -12 -4 -1 -1 -5)
1969-12-31 18:00:13.434983991,(0 6 0 -7 -5 -3 1 -13)
1969-12-31 18:00:13.434983991,(-12 7 23 19 5 1 -4 -4)
1969-12-31 18:00:13.463321465,(13 -12 -29 -14 -7 -3 -8 0)
1969-12-31 18:00:13.463321465,(-22 -16 2 3 1 0 0 -2)
1969-12-31 18:00:13.464609532,(-2 32 25 7 2 -1 0 -16)
1969-12-31 18:00:13.464609532,(18 -9 -18 -11 -5 -4 -4 10)
1969-12-31 18:00:13.480066335,(2 -26 2 1 -1 -3 -2 2)
1969-12-31 18:00:13.480066335,(-5 15 -1 8 2 0 0 -4)
1969-12-31 18:00:13.489082804,(7 17 10 6 2 4 3 2)
1969-12-31 18:00:13.489082804,(-9 6 11 6 4 0 1 1)
1969-12-31 18:00:13.510979943,(12 0 -9 -11 -7 -5 -5 -2)
1969-12-31 18:00:13.510979943,(-22 -29 -3 1 -2 -1 -3 -3)
1969-12-31 18:00:13.512268010,(-7 -9 -21 -11 1 -1 -1 -4)
1969-12-31 18:00:13.512268010,(-12 19 43 17 3 0 1 -4)
1969-12-31 18:00:13.539317417,(19 -13 -16 -7 -3 -1 1 3)
1969-12-31 18:00:13.539317417,(0 7 -1 3 4 4 8 8)
1969-12-31 18:00:13.541893550,(-17 -30 -34 -21 -7 -5 -8 -5)
1969-12-31 18:00:13.541893550,(6 -18 -27 -1 0 1 1 -1)
1969-12-31 18:00:13.558638421,(30 62 45 15 8 5 12 20)
1969-12-31 18:00:13.558638421,(-4 -8 4 7 1 -1 -3 -4)
1969-12-31 18:00:13.566366823,(-13 -15 -6 -3 -6 -6 -13 -8)
1969-12-31 18:00:13.566366823,(-1 -28 -47 -31 -13 -7 -2 -9)
1969-12-31 18:00:13.588263962,(-10 3 4 10 7 3 -2 -3)
1969-12-31 18:00:13.588263962,(9 -26 -9 -5 0 6 13 10)
1969-12-31 18:00:13.589552029,(2 9 -4 -6 2 5 25 14)
1969-12-31 18:00:13.589552029,(1 15 21 3 -4 -9 -34 -24)
1969-12-31 18:00:13.616601435,(-11 -13 -22 -12 -4 -5 -5 -6)
1969-12-31 18:00:13.616601435,(7 23 17 18 5 -1 -4 1)
1969-12-31 18:00:13.619177569,(-21 -31 0 1 -3 -4 -5 -12)
1969-12-31 18:00:13.619177569,(10 -14 -23 -15 -5 3 12 13)
1969-12-31 18:00:13.634634373,(-6 43 28 20 8 7 4 -1)
1969-12-31 18:00:13.634634373,(4 -34 -49 -29 -10 -5 -2 1)
1969-12-31 18:00:13.665547980,(14 1 27 16 4 3 -2 0)
1969-12-31 18:00:13.665547980,(-21 5 -1 -1 -5 -6 -11 -5)
1969-12-31 18:00:13.666836047,(-13 -32 -32 0 1 -6 -14 -19)
1969-12-31 18:00:13.666836047,(12 28 19 7 0 1 6 6)
1969-12-31 18:00:13.669412181,(2 20 2 -5 -3 0 0 -4)
1969-12-31 18:00:13.669412181,(17 -18 -9 -10 -5 -4 0 11)
1969-12-31 18:00:13.693885454,(-18 -20 -2 -10 -6 -1 0 -2)
1969-12-31 18:00:13.693885454,(-2 13 16 15 6 0 -4 -2)
1969-12-31 18:00:13.696461588,(-1 -4 -14 4 2 -1 -6 -5)
1969-12-31 18:00:13.696461588,(-2 -11 -7 -4 0 -1 14 6)
1969-12-31 18:00:13.711918392,(-8 1 0 -8 -7 -7 -13 -1)
1969-12-31 18:00:13.711918392,(16 34 30 1 -2 -5 -5 -1)
1969-12-31 18:00:13.720934860,(-3 -34 -32 -9 -3 -4 -6 2)
1969-12-31 18:00:13.720934860,(12 48 54 23 9 4 22 9)
1969-12-31 18:00:13.742831999,(-3 -14 5 12 4 0 -17 -2)
1969-12-31 18:00:13.742831999,(-25 -106 -39 -39 -18 -6 0 -7)
1969-12-31 18:00:13.744120066,(16 101 86 42 16 2 -2 -6)
1969-12-31 18:00:13.744120066,(-2 12 25 17 7 4 3 5)
1969-12-31 18:00:13.771169473,(11 -7 -17 -13 -7 -5 6 -2)
1969-12-31 18:00:13.771169473,(-13 -22 -9 -13 -6 -3 -9 -2)
1969-12-31 18:00:13.772457540,(5 17 16 12 1 -4 -6 -8)
1969-12-31 18:00:13.772457540,(-7 -18 -13 -3 -2 7 7 5)
1969-12-31 18:00:13.787914344,(3 16 19 8 1 3 6 4)
1969-12-31 18:00:13.787914344,(-3 6 -14 -7 -4 0 -4 0)
1969-12-31 18:00:13.800795013,(-7 -10 -7 -13 -7 -1 -2 -6)
1969-12-31 18:00:13.800795013,(4 12 2 0 1 2 -8 -4)
1969-12-31 18:00:13.820116018,(-4 -4 -2 0 1 3 9 2)
1969-12-31 18:00:13.820116018,(2 18 9 6 2 -1 -6 -8)
1969-12-31 18:00:13.821404085,(-11 -56 -9 -8 -7 -1 -4 1)
1969-12-31 18:00:13.821404085,(8 11 6 11 4 5 0 -5)
1969-12-31 18:00:13.848453492,(-6 -7 -7 -5 -3 1 -4 -2)
1969-12-31 18:00:13.848453492,(2 21 8 10 3 4 5 1)
1969-12-31 18:00:13.851029626,(-5 -20 -13 -7 -4 1 -2 -5)
1969-12-31 18:00:13.851029626,(-8 -22 -18 -18 -11 -5 -12 -5)
1969-12-31 18:00:13.866486429,(5 34 36 16 5 3 8 1)
1969-12-31 18:00:13.866486429,(1 12 6 11 5 2 -2 0)
1969-12-31 18:00:13.878079032,(-8 -11 -16 -4 0 0 0 2)
1969-12-31 18:00:13.878079032,(5 4 -6 -8 -5 -8 -2 -1)
1969-12-31 18:00:13.897400037,(4 -4 -23 -9 -3 -5 3 8)
1969-12-31 18:00:13.897400037,(4 5 -9 1 3 -10 -1 7)
1969-12-31 18:00:13.898688104,(1 3 -12 -7 4 -10 9 11)
1969-12-31 18:00:13.898688104,(-3 9 -15 -8 3 -12 5 7)
1969-12-31 18:00:13.925737510,(-10 -22 0 -2 4 -8 -1 -5)
1969-12-31 18:00:13.925737510,(2 8 3 -2 1 -6 2 3)
1969-12-31 18:00:13.928313644,(2 24 -2 -3 2 -5 -6 -3)
1969-12-31 18:00:13.928313644,(-4 -11 -2 -1 2 1 -1 -2)
1969-12-31 18:00:13.943770448,(-2 -4 0 -5 -2 3 4 0)
1969-12-31 18:00:13.943770448,(-5 4 4 0 -5 -2 -4 -7)
1969-12-31 18:00:13.955363051,(0 -8 -1 1 -4 2 -5 -1)
1969-12-31 18:00:13.955363051,(4 1 9 7 1 0 -3 2)
1969-12-31 18:00:13.973395989,(-3 -4 0 -1 -1 3 7 -4)
1969-12-31 18:00:13.973395989,(-3 0 0 0 -2 1 -3 -3)
1969-12-31 18:00:13.982412457,(-1 -9 -3 -2 -2 3 -4 -4)
1969-12-31 18:00:13.982412457,(-4 -1 -2 -2 -5 0 -4 -5)
1969-12-31 18:00:14.004309596,(3 8 2 -1 -1 4 0 2)
1969-12-31 18:00:14.004309596,(4 5 6 2 3 8 2 4)
1969-12-31 18:00:14.005597663,(1 5 3 4 -2 1 -1 -2)
1969-12-31 18:00:14.005597663,(-3 -6 -16 -9 -1 8 4 2)
1969-12-31 18:00:14.021054467,(-1 -3 16 4 -2 1 -7 -10)
1969-12-31 18:00:14.021054467,(-3 -3 -8 0 -1 3 1 -4)
1969-12-31 18:00:14.032647070,(-14 -17 -19 -13 -5 -3 -6 -8)
1969-12-31 18:00:14.032647070,(10 10 16 11 2 -1 -3 3)
1969-12-31 18:00:14.050680007,(-13 -12 -12 -5 0 0 7 0)
1969-12-31 18:00:14.050680007,(5 11 1 -4 -2 -4 -2 0)
1969-12-31 18:00:14.059696476,(13 13 10 1 -1 -1 2 7)
1969-12-31 18:00:14.059696476,(-15 -17 -4 2 3 -1 -3 -8)
1969-12-31 18:00:14.080305548,(4 2 -4 -2 -2 -3 -4 -4)
1969-12-31 18:00:14.080305548,(-1 1 3 4 -1 -1 -5 -5)
1969-12-31 18:00:14.082881682,(-3 -3 -9 -4 -3 0 -1 -2)
1969-12-31 18:00:14.082881682,(3 1 -7 -14 -6 -3 -2 -3)
1969-12-31 18:00:14.098338486,(4 2 4 11 1 0 -1 2)
1969-12-31 18:00:14.098338486,(-1 -2 -7 -7 0 2 1 -1)
1969-12-31 18:00:14.109931088,(0 0 2 2 3 -2 0 -1)
1969-12-31 18:00:14.109931088,(-1 1 8 8 2 -1 -3 -3)
1969-12-31 18:00:14.129252093,(-2 -6 -19 -17 -5 -2 -2 -1)
1969-12-31 18:00:14.129252093,(-2 -1 -1 1 0 -3 -2 -1)
1969-12-31 18:00:14.130540160,(-1 -8 -8 0 -3 -2 0 -1)
1969-12-31 18:00:14.130540160,(-6 -4 0 -4 -4 -2 -3 -7)
1969-12-31 18:00:14.157589567,(-2 -2 -9 -5 -3 -1 1 2)
1969-12-31 18:00:14.157589567,(7 9 10 4 1 -1 -2 1)
1969-12-31 18:00:14.160165701,(-3 -3 -3 -4 -4 -3 -3 -4)
1969-12-31 18:00:14.160165701,(-2 2 -3 -3 -1 -1 0 -1)
1969-12-31 18:00:14.175622504,(3 2 4 4 2 0 2 4)
1969-12-31 18:00:14.175622504,(-6 -7 -8 -12 -6 -2 -3 -2)
1969-12-31 18:00:14.206536112,(0 4 9 8 0 0 -2 -3)
1969-12-31 18:00:14.206536112,(-4 -6 -2 -2 -2 0 -4 -4)
1969-12-31 18:00:14.207824179,(0 0 2 1 -1 -2 -3 -1)
1969-12-31 18:00:14.207824179,(1 -1 2 3 1 -2 0 -2)
1969-12-31 18:00:14.210400313,(-4 -6 -7 -4 -2 -2 1 -2)
1969-12-31 18:00:14.210400313,(2 5 2 1 -2 -2 -1 1)
1969-12-31 18:00:14.237449719,(-2 -3 -4 -2 0 -2 -2 0)
1969-12-31 18:00:14.237449719,(-3 -3 -3 2 -1 0 1 -3)
1969-12-31 18:00:14.240025853,(-3 -5 -2 -4 -1 -1 -1 1)
1969-12-31 18:00:14.240025853,(2 3 -3 -2 -4 -3 -1 1)
1969-12-31 18:00:14.252906523,(-3 -9 -2 -1 -3 -2 -2 0)
1969-12-31 18:00:14.252906523,(0 4 2 1 -2 -2 -1 -2)
1969-12-31 18:00:14.264499126,(0 0 -2 -3 -1 -1 0 3)
1969-12-31 18:00:14.264499126,(-6 -12 2 -1 -1 -2 -4 -6)
1969-12-31 18:00:14.283820131,(0 2 -4 0 0 -2 1 -1)
1969-12-31 18:00:14.283820131,(0 -1 0 2 0 -1 -1 0)
1969-12-31 18:00:14.285108198,(-2 -1 2 4 1 -1 0 -1)
1969-12-31 18:00:14.285108198,(-1 0 -4 -8 -2 -3 1 -2)
1969-12-31 18:00:14.312157604,(-2 -3 -2 0 -3 -1 0 2)
1969-12-31 18:00:14.312157604,(-2 -4 -6 -5 -3 0 2 -1)
1969-12-31 18:00:14.314733738,(1 1 -2 -5 -3 -2 -1 -2)
1969-12-31 18:00:14.314733738,(2 6 3 4 0 0 0 1)
1969-12-31 18:00:14.330190542,(0 -5 -6 -4 -1 -1 0 -2)
1969-12-31 18:00:14.330190542,(-1 8 3 1 1 -1 -2 0)
1969-12-31 18:00:14.341783145,(0 -1 -4 -5 -2 -1 -1 -2)
1969-12-31 18:00:14.341783145,(-3 -6 -4 -2 -1 -1 -1 2)
1969-12-31 18:00:14.359816082,(-1 1 -5 0 0 1 -2 -2)
1969-12-31 18:00:14.359816082,(0 -6 3 6 2 1 0 2)
1969-12-31 18:00:14.370120618,(-2 0 0 2 2 0 0 -1)
1969-12-31 18:00:14.370120618,(0 -1 2 4 2 0 1 0)
1969-12-31 18:00:14.389441623,(1 4 2 -1 -1 -1 1 1)
1969-12-31 18:00:14.389441623,(-3 -4 0 2 0 -2 -1 -2)
1969-12-31 18:00:14.390729690,(-2 2 4 4 0 -2 -2 -3)
1969-12-31 18:00:14.390729690,(-4 -9 -10 -3 -2 -2 -2 -3)
1969-12-31 18:00:14.428083632,(-2 1 2 -1 -2 -1 -1 1)
1969-12-31 18:00:14.428083632,(1 0 1 1 1 1 1 0)
1969-12-31 18:00:14.430659766,(0 2 2 0 1 0 1 2)
1969-12-31 18:00:14.430659766,(0 2 0 -1 -2 -2 -1 1)
1969-12-31 18:00:14.438388168,(-3 -4 -2 -1 0 -2 -3 -3)
1969-12-31 18:00:14.438388168,(-1 0 1 -3 -2 0 -1 -1)
1969-12-31 18:00:14.439676235,(0 -6 -6 -2 -1 1 -1 1)
1969-12-31 18:00:14.439676235,(0 4 9 6 2 0 -2 0)
1969-12-31 18:00:14.466725642,(0 3 6 5 2 0 -2 -2)
1969-12-31 18:00:14.466725642,(0 0 -6 -5 -3 -3 -2 0)
1969-12-31 18:00:14.468013709,(-3 -5 -1 -2 -1 0 -1 -3)
1969-12-31 18:00:14.468013709,(-1 -2 -3 -3 -1 0 0 -1)
1969-12-31 18:00:14.484758579,(-2 1 1 -2 -1 -2 -2 0)
1969-12-31 18:00:14.484758579,(-2 -2 3 0 0 1 -1 -2)
1969-12-31 18:00:14.496351182,(0 -2 -12 -6 -2 -1 0 -1)
1969-12-31 18:00:14.496351182,(1 7 8 7 4 1 0 1)
1969-12-31 18:00:14.514384120,(-5 -7 -4 -2 -3 -1 -2 -3)
1969-12-31 18:00:14.514384120,(-1 -1 -4 -1 -1 0 -1 -2)
1969-12-31 18:00:14.516960254,(-1 -4 -3 -4 -2 -2 -2 -1)
1969-12-31 18:00:14.516960254,(1 0 -5 -3 -2 -3 -2 0)
1969-12-31 18:00:14.516960254,(-2 1 11 11 0 1 2 -2)
1969-12-31 18:00:14.516960254,(14 6 -1 7 3 3 4 21)
1969-12-31 18:00:14.534993192,(0 -5 -2 -11 -4 -3 0 -6)
1969-12-31 18:00:14.534993192,(-16 -33 -48 -35 -10 -5 1 5)
1969-12-31 18:00:14.537569326,(-1 62 47 20 3 -8 -6 -13)
1969-12-31 18:00:14.537569326,(11 -22 23 26 6 2 1 7)
1969-12-31 18:00:14.564618732,(-3 19 0 -1 4 -1 1 -5)
1969-12-31 18:00:14.564618732,(12 12 11 9 5 4 8 12)
1969-12-31 18:00:14.567194866,(-18 -72 -50 -21 -11 -4 -4 -11)
1969-12-31 18:00:14.567194866,(-2 12 -41 -12 -4 -2 -1 -5)
1969-12-31 18:00:14.594244273,(13 28 58 78 27 8 3 5)
1969-12-31 18:00:14.594244273,(-1 14 35 -5 1 6 2 -6)
1969-12-31 18:00:14.601972675,(3 4 -5 -13 -7 -1 0 1)
1969-12-31 18:00:14.601972675,(-7 -16 2 -17 -2 1 -1 -7)
1969-12-31 18:00:14.613565277,(-15 -45 -60 -46 -18 -9 -19 -12)
1969-12-31 18:00:14.613565277,(-5 5 0 18 -1 0 -3 -13)
1969-12-31 18:00:14.614853344,(-6 -1 6 -3 0 3 -6 -5)
1969-12-31 18:00:14.614853344,(7 2 -2 -2 -1 4 6 10)
1969-12-31 18:00:14.641902751,(-7 3 -8 -14 -9 -1 -3 -13)
1969-12-31 18:00:14.641902751,(-8 -4 24 13 -2 -2 -7 -14)
1969-12-31 18:00:14.643190818,(9 -1 -38 -21 -7 -3 -5 -5)
1969-12-31 18:00:14.643190818,(6 21 47 27 6 3 1 4)
1969-12-31 18:00:14.659935689,(-3 2 7 4 1 -3 -1 -2)
1969-12-31 18:00:14.659935689,(0 -2 -12 1 -2 -2 -2 -1)
1969-12-31 18:00:14.671528291,(0 -25 -24 -5 0 -1 7 12)
1969-12-31 18:00:14.671528291,(-4 -2 -9 -8 -1 0 -4 0)
1969-12-31 18:00:14.689561229,(10 30 18 -4 -2 -5 3 4)
1969-12-31 18:00:14.689561229,(4 13 15 21 9 0 4 5)
1969-12-31 18:00:14.698577698,(3 9 4 2 1 -1 3 3)
1969-12-31 18:00:14.698577698,(-8 -9 -6 -4 -2 -5 -3 -5)
1969-12-31 18:00:14.719186770,(-7 -31 -27 -17 -6 -7 1 3)
1969-12-31 18:00:14.719186770,(-1 -4 -19 -9 -1 -7 0 1)
1969-12-31 18:00:14.721762903,(1 8 14 6 3 -2 1 1)
1969-12-31 18:00:14.721762903,(-4 -7 -12 -13 -7 -8 -4 -4)
1969-12-31 18:00:14.748812310,(18 6 -1 0 1 -1 5 12)
1969-12-31 18:00:14.748812310,(-1 11 7 1 3 0 0 -10)
1969-12-31 18:00:14.756540712,(-23 -21 -2 -3 -2 -3 -1 17)
1969-12-31 18:00:14.756540712,(-16 -6 -4 -1 -3 -3 0 -5)
1969-12-31 18:00:14.766845248,(4 -2 0 -4 -2 -3 -6 -4)
1969-12-31 18:00:14.766845248,(29 9 -2 -1 1 0 6 18)
1969-12-31 18:00:14.775861717,(-22 -11 0 -4 -3 -1 2 -10)
1969-12-31 18:00:14.775861717,(-20 6 6 4 5 -1 -19 -18)
1969-12-31 18:00:14.796470788,(-19 0 13 5 2 6 2 -6)
1969-12-31 18:00:14.796470788,(5 -4 -1 -2 -4 3 -6 -6)
1969-12-31 18:00:14.797758855,(-5 -1 5 5 -1 -1 -1 -5)
1969-12-31 18:00:14.797758855,(22 10 1 0 -3 10 11 22)
1969-12-31 18:00:14.824808262,(-8 -8 -5 1 1 -2 -9 -14)
1969-12-31 18:00:14.826096329,(2 -3 -8 -3 -2 -4 0 -5)
1969-12-31 18:00:14.827384396,(23 21 11 6 6 -1 0 3)
1969-12-31 18:00:14.827384396,(-37 -10 -1 0 -1 11 -11 -12)
1969-12-31 18:00:14.844129267,(25 -1 -7 -7 -3 -2 16 13)
1969-12-31 18:00:14.844129267,(-29 -5 -3 1 -5 -11 7 -15)
1969-12-31 18:00:14.853145736,(-6 -15 -6 -6 -1 4 -19 -13)
1969-12-31 18:00:14.853145736,(10 1 -4 -6 -1 -3 4 5)
1969-12-31 18:00:14.873754807,(9 0 0 -1 1 7 0 17)
1969-12-31 18:00:14.873754807,(-35 -13 -12 -6 -4 -16 -20 -17)
1969-12-31 18:00:14.876330941,(29 12 3 -3 -5 -18 -3 1)
1969-12-31 18:00:14.876330941,(-20 -10 -15 -10 -1 11 12 1)
1969-12-31 18:00:14.902092281,(15 7 4 7 6 3 11 13)
1969-12-31 18:00:14.902092281,(43 18 18 12 7 -8 -11 7)
1969-12-31 18:00:14.904668415,(-69 -11 12 2 -3 7 10 -31)
1969-12-31 18:00:14.904668415,(16 3 5 1 -3 3 -11 0)
1969-12-31 18:00:14.921413285,(-29 -13 -10 -11 -11 -9 11 -23)
1969-12-31 18:00:14.921413285,(24 6 -1 -3 -7 -27 12 55)
1969-12-31 18:00:14.930429754,(-15 -29 -17 -11 -6 36 -8 -31)
1969-12-31 18:00:14.930429754,(2 8 4 -1 2 52 13 -5)
1969-12-31 18:00:14.949750759,(-7 -1 5 5 -11 -62 -34 -2)
1969-12-31 18:00:14.949750759,(-29 -20 -12 -4 -3 12 -11 -48)
1969-12-31 18:00:14.961343362,(27 22 13 11 8 -14 7 27)
1969-12-31 18:00:14.961343362,(23 3 1 3 -1 1 -3 7)
1969-12-31 18:00:14.980664367,(-2 12 10 9 5 28 23 9)
1969-12-31 18:00:14.980664367,(12 0 -6 -3 -7 -3 -20 -5)
1969-12-31 18:00:14.981952434,(-28 -18 -9 -5 -2 9 23 -8)
1969-12-31 18:00:14.981952434,(8 8 -2 -3 -6 -22 -1 -4)
1969-12-31 18:00:14.998697304,(-21 -4 -4 -2 2 -6 -12 -6)
1969-12-31 18:00:14.998697304,(-7 -13 -5 -3 -1 10 5 8)
1969-12-31 18:00:15.007713773,(21 15 4 3 1 10 1 13)
1969-12-31 18:00:15.007713773,(60 15 7 11 21 76 52 61)
1969-12-31 18:00:15.028322845,(-24 -10 -10 -9 -15 -76 -41 -19)
1969-12-31 18:00:15.028322845,(-19 -7 1 2 3 13 8 -21)
1969-12-31 18:00:15.030898979,(29 20 0 1 2 11 -19 -12)
1969-12-31 18:00:15.030898979,(-6 11 6 6 0 -35 -1 12)
1969-12-31 18:00:15.056660318,(8 -26 -19 -14 5 74 -32 -38)
1969-12-31 18:00:15.056660318,(-4 8 11 5 -12 -37 28 64)
1969-12-31 18:00:15.059236452,(-7 4 4 7 11 40 18 6)
1969-12-31 18:00:15.059236452,(1 15 15 8 2 -33 -30 17)
1969-12-31 18:00:15.086285859,(-22 -10 -3 0 6 46 17 -30)
1969-12-31 18:00:15.086285859,(10 0 -6 -7 -8 -50 -15 -7)
1969-12-31 18:00:15.088861993,(-8 -11 -10 -9 -13 -30 -24 -34)
1969-12-31 18:00:15.088861993,(-11 1 -2 -3 1 7 6 -10)
1969-12-31 18:00:15.105606864,(22 -1 7 7 1 -4 10 37)
1969-12-31 18:00:15.105606864,(6 8 2 4 4 4 2 -13)
1969-12-31 18:00:15.106894930,(9 9 1 0 -1 -1 12 31)
1969-12-31 18:00:15.106894930,(-30 -25 -9 -6 -9 -57 -38 -46)
1969-12-31 18:00:15.133944337,(1 2 -2 -2 -5 1 -6 -10)
1969-12-31 18:00:15.133944337,(-8 -3 -8 -7 9 92 21 -13)
1969-12-31 18:00:15.136520471,(7 -12 -2 -2 -14 -66 -27 -41)
1969-12-31 18:00:15.136520471,(-27 -10 -4 -5 -8 -16 -39 -86)
1969-12-31 18:00:15.153265342,(-18 3 -3 -7 -3 0 23 0)
1969-12-31 18:00:15.153265342,(19 4 10 9 9 -6 -45 17)
1969-12-31 18:00:15.184178949,(57 48 12 8 11 33 77 7)
1969-12-31 18:00:15.184178949,(-59 -48 -23 -16 -16 -19 -54 -40)
1969-12-31 18:00:15.185467016,(-2 3 9 5 0 -8 9 -21)
1969-12-31 18:00:15.185467016,(-34 -8 1 0 -3 0 -22 -28)
1969-12-31 18:00:15.186755083,(8 7 3 4 9 19 7 20)
1969-12-31 18:00:15.186755083,(11 -12 -8 -7 -7 -7 3 -11)
1969-12-31 18:00:15.212516423,(15 16 9 8 8 2 17 39)
1969-12-31 18:00:15.212516423,(-21 -27 -21 -12 -15 -54 -6 -33)
1969-12-31 18:00:15.213804490,(-26 -12 -4 -3 -7 -12 -25 4)
1969-12-31 18:00:15.213804490,(-17 -16 -10 -10 5 12 33 12)
1969-12-31 18:00:15.229261294,(23 12 7 3 -1 -16 -29 23)
1969-12-31 18:00:15.229261294,(9 6 5 4 5 38 44 28)
1969-12-31 18:00:15.240853896,(-18 6 -5 -6 -9 -28 -21 -1)
1969-12-31 18:00:15.240853896,(25 1 1 -1 -3 31 30 14)
1969-12-31 18:00:15.260174901,(7 7 4 2 2 5 34 49)
1969-12-31 18:00:15.260174901,(-22 -6 -7 -8 0 10 -31 -52)
1969-12-31 18:00:15.261462968,(0 -13 -6 -3 -11 -44 18 59)
1969-12-31 18:00:15.261462968,(16 22 9 4 8 52 -5 -21)
1969-12-31 18:00:15.288512375,(-27 -14 -8 -6 -5 14 -2 -3)
1969-12-31 18:00:15.288512375,(18 5 3 1 3 25 33 37)
1969-12-31 18:00:15.297528843,(7 -1 5 3 9 18 -14 10)
1969-12-31 18:00:15.297528843,(-1 -1 0 -1 -10 -42 -15 -24)
1969-12-31 18:00:15.306545312,(31 7 1 2 -2 -14 21 35)
1969-12-31 18:00:15.306545312,(-7 10 5 8 12 34 11 -8)
1969-12-31 18:00:15.318137915,(2 -3 3 2 5 -6 -19 -51)
1969-12-31 18:00:15.318137915,(6 6 4 6 8 -44 16 57)
1969-12-31 18:00:15.337458920,(3 3 -1 -1 13 79 -8 -19)
1969-12-31 18:00:15.337458920,(0 -10 -10 -8 -22 -96 -28 -27)
1969-12-31 18:00:15.340035054,(15 4 -2 -3 11 -1 -5 30)
1969-12-31 18:00:15.340035054,(-7 1 3 4 -11 3 8 49)
1969-12-31 18:00:15.367084460,(-12 -2 0 1 -10 -36 -8 -40)
1969-12-31 18:00:15.367084460,(8 2 -1 2 11 46 -16 -31)
1969-12-31 18:00:15.368372527,(-13 -3 -2 -2 -17 -5 -8 30)
1969-12-31 18:00:15.368372527,(-16 -5 -3 -7 6 1 26 17)
1969-12-31 18:00:15.395421934,(12 -2 -7 -5 16 4 -15 -15)
1969-12-31 18:00:15.395421934,(7 8 3 7 17 29 13 30)
1969-12-31 18:00:15.397998068,(-6 -21 -15 -12 -25 -24 -8 -14)
1969-12-31 18:00:15.397998068,(7 8 0 3 23 59 18 28)
1969-12-31 18:00:15.414742939,(0 9 18 35 65 -57 4 16)
1969-12-31 18:00:15.414742939,(-30 -12 -4 -11 -86 -95 -10 -45)
1969-12-31 18:00:15.417319073,(27 16 9 5 22 -21 -10 18)
1969-12-31 18:00:15.417319073,(-10 -22 -19 -23 -37 0 -62 -67)
1969-12-31 18:00:15.444368479,(-20 -6 -10 -19 -26 6 -2 -18)
1969-12-31 18:00:15.444368479,(-7 4 0 4 8 -1 -26 -14)
1969-12-31 18:00:15.445656546,(-21 -18 -3 4 -16 -62 -4 -7)
1969-12-31 18:00:15.445656546,(-6 -1 5 37 90 68 25 9)
1969-12-31 18:00:15.461113350,(27 12 1 0 -13 67 50 88)
1969-12-31 18:00:15.461113350,(-18 -22 -22 -59 -70 -72 -9 6)
1969-12-31 18:00:15.472705953,(15 14 5 -11 -19 -3 -14 -2)
1969-12-31 18:00:15.472705953,(-3 12 2 2 27 5 27 -4)
1969-12-31 18:00:15.492026957,(-6 -2 7 27 57 33 7 7)
1969-12-31 18:00:15.492026957,(13 6 14 39 62 27 44 47)
1969-12-31 18:00:15.494603091,(-3 -12 -9 -12 -72 -44 -13 -7)
1969-12-31 18:00:15.494603091,(10 7 -8 -19 -19 -10 7 7)
1969-12-31 18:00:15.540973503,(31 24 11 -2 -54 -29 -14 -4)
1969-12-31 18:00:15.540973503,(-8 -2 -2 -17 -10 20 4 -12)
1969-12-31 18:00:15.543549637,(-13 -13 -7 8 82 105 10 -22)
1969-12-31 18:00:15.543549637,(5 10 7 4 -55 -96 -15 3)
1969-12-31 18:00:15.544837704,(-11 -4 -10 -9 -1 22 -15 -26)
1969-12-31 18:00:15.544837704,(40 7 2 9 41 41 37 51)
1969-12-31 18:00:15.549989971,(3 3 4 9 9 2 -38 -10)
1969-12-31 18:00:15.549989971,(11 5 6 11 36 -14 -17 -2)
1969-12-31 18:00:15.569310976,(-23 -32 -22 -23 -88 -64 -26 -63)
1969-12-31 18:00:15.569310976,(-4 -13 -9 -13 9 37 -4 23)
1969-12-31 18:00:15.571887110,(9 14 5 8 37 58 46 16)
1969-12-31 18:00:15.571887110,(4 5 2 -14 -64 -35 -17 -20)
1969-12-31 18:00:15.598936517,(37 24 -5 5 35 -15 -10 34)
1969-12-31 18:00:15.598936517,(57 8 24 30 26 22 8 75)
1969-12-31 18:00:15.600224584,(-46 -2 -8 -18 -26 -12 -1 -42)
1969-12-31 18:00:15.600224584,(-2 -17 -28 -22 -16 -8 -11 7)
1969-12-31 18:00:15.615681387,(6 -17 14 7 13 -4 8 17)
1969-12-31 18:00:15.615681387,(8 28 54 27 4 -9 1 32)
1969-12-31 18:00:15.627273990,(-58 -30 -30 0 33 67 3 -42)
1969-12-31 18:00:15.627273990,(-9 10 7 4 -22 -37 16 12)
1969-12-31 18:00:15.646594995,(4 -4 -35 -31 -2 10 0 -10)
1969-12-31 18:00:15.646594995,(-18 26 35 17 36 47 -22 -41)
1969-12-31 18:00:15.665916000,(48 22 76 20 -67 -72 5 58)
1969-12-31 18:00:15.665916000,(-8 21 -41 -9 10 -20 -25 -52)
1969-12-31 18:00:15.676220535,(-57 -86 -41 -21 -25 3 17 47)
1969-12-31 18:00:15.676220535,(-1 -25 -45 -11 30 17 0 -19)
1969-12-31 18:00:15.677508602,(22 0 -14 -1 -6 -6 22 59)
1969-12-31 18:00:15.677508602,(38 65 91 32 -5 22 1 8)
1969-12-31 18:00:15.692965406,(20 8 0 6 49 13 6 67)
1969-12-31 18:00:15.692965406,(-32 -35 -33 -8 37 32 13 -90)
1969-12-31 18:00:15.704558009,(-7 -68 -58 -46 -95 -95 -48 -20)
1969-12-31 18:00:15.704558009,(-10 -66 -98 -76 -30 -5 -18 -36)
1969-12-31 18:00:15.723879014,(-25 74 107 55 50 23 13 7)
1969-12-31 18:00:15.723879014,(-1 25 15 10 5 22 17 44)
1969-12-31 18:00:15.726455148,(-7 19 37 43 66 36 6 -95)
1969-12-31 18:00:15.726455148,(17 -26 -27 21 59 45 9 26)
1969-12-31 18:00:15.752216487,(7 -50 -57 -48 -6 8 -1 -28)
1969-12-31 18:00:15.752216487,(0 -7 32 -13 -113 -60 3 -18)
1969-12-31 18:00:15.754792621,(-23 71 50 25 15 -11 -30 -23)
1969-12-31 18:00:15.754792621,(-18 -70 -23 -1 24 -5 -11 -41)
1969-12-31 18:00:15.770249425,(-23 52 7 26 24 23 -1 -45)
1969-12-31 18:00:15.770249425,(-5 54 56 24 -15 -27 13 64)
1969-12-31 18:00:15.783130095,(-58 -27 -9 -7 33 28 -16 -37)
1969-12-31 18:00:15.783130095,(-28 -6 59 26 4 -6 13 30)
1969-12-31 18:00:15.810179501,(42 -90 -112 -53 -57 -15 -2 55)
1969-12-31 18:00:15.810179501,(-5 46 11 -14 -2 -20 -20 26)
1969-12-31 18:00:15.812755635,(41 4 -5 5 30 14 18 52)
1969-12-31 18:00:15.812755635,(21 -42 -86 -36 5 17 16 75)
1969-12-31 18:00:15.829500506,(-40 9 111 37 -38 -23 -12 -61)
1969-12-31 18:00:15.829500506,(74 13 -76 -24 -35 -42 -5 38)
1969-12-31 18:00:15.832076640,(14 -8 -26 -3 58 57 38 20)
1969-12-31 18:00:15.832076640,(9 6 12 -7 -22 -14 -31 -67)
1969-12-31 18:00:15.847533444,(7 77 61 51 15 -14 4 17)
1969-12-31 18:00:15.847533444,(-62 -29 -53 -18 -12 -27 -25 -8)
1969-12-31 18:00:15.859126047,(-16 -2 55 3 -24 -7 -17 -9)
1969-12-31 18:00:15.859126047,(-11 -23 -46 16 104 106 38 -17)
1969-12-31 18:00:15.878447051,(15 -113 -113 -98 -123 -121 -29 -10)
1969-12-31 18:00:15.878447051,(-62 75 90 29 25 -4 -42 -64)
1969-12-31 18:00:15.881023185,(69 81 -23 14 28 -3 1 38)
1969-12-31 18:00:15.881023185,(-10 46 51 10 -39 -21 -15 -11)
1969-12-31 18:00:15.908072592,(-47 -55 -27 8 53 49 -4 -19)
1969-12-31 18:00:15.908072592,(5 -128 -128 -64 -22 -7 7 0)
1969-12-31 18:00:15.909360659,(-5 44 69 24 -6 0 14 29)
1969-12-31 18:00:15.909360659,(19 53 22 18 -26 -18 -16 -43)
1969-12-31 18:00:15.924817463,(-40 60 67 39 14 -9 -23 -40)
1969-12-31 18:00:15.924817463,(38 -27 -11 -18 -9 3 5 9)
1969-12-31 18:00:15.936410065,(-30 -56 -38 17 102 91 -5 -29)
1969-12-31 18:00:15.936410065,(-3 -54 -25 -53 -109 -95 37 48)
1969-12-31 18:00:15.954443003,(-9 72 33 4 21 -6 -22 5)
1969-12-31 18:00:15.954443003,(-34 0 32 13 23 -8 -45 -89)
1969-12-31 18:00:15.963459472,(24 11 -1 2 7 11 27 16)
1969-12-31 18:00:15.963459472,(-2 -54 -36 -4 20 21 1 3)
1969-12-31 18:00:15.986644678,(-33 -8 -27 -16 -2 1 -12 -33)
1969-12-31 18:00:15.986644678,(18 -18 -5 24 38 35 21 19)
1969-12-31 18:00:15.987932745,(13 94 -18 -38 -76 -39 5 30)
1969-12-31 18:00:15.987932745,(-25 -46 52 9 -18 -5 -17 49)
1969-12-31 18:00:16.002101481,(19 50 23 10 1 -4 -7 -28)
1969-12-31 18:00:16.002101481,(-8 0 -16 -3 16 23 5 -14)
1969-12-31 18:00:16.013694084,(21 -111 -60 -7 14 -7 15 47)
1969-12-31 18:00:16.013694084,(2 74 5 1 -4 2 -2 -8)
1969-12-31 18:00:16.031727022,(-13 -56 -43 -49 -50 -22 -7 -2)
1969-12-31 18:00:16.031727022,(10 56 19 -4 44 36 4 -34)
1969-12-31 18:00:16.040743491,(-12 -77 -60 -70 -82 -50 -9 -3)
1969-12-31 18:00:16.040743491,(-4 76 82 110 112 15 6 19)
1969-12-31 18:00:16.062640629,(84 -1 -36 15 -60 3 2 53)
1969-12-31 18:00:16.062640629,(-27 86 95 89 13 25 14 -29)
1969-12-31 18:00:16.063928696,(-42 -1 11 -12 -29 -10 2 -13)
1969-12-31 18:00:16.063928696,(68 36 -28 -14 0 -24 -24 20)
1969-12-31 18:00:16.090978103,(19 -12 -34 -15 76 41 10 -9)
1969-12-31 18:00:16.090978103,(7 66 57 19 -29 -26 -9 14)
1969-12-31 18:00:16.092266169,(-21 -41 -14 -9 0 -3 -4 18)
1969-12-31 18:00:16.093554237,(-28 -64 -34 -50 -94 -56 -9 -32)
1969-12-31 18:00:16.109011040,(5 -2 -33 25 78 73 40 0)
1969-12-31 18:00:16.109011040,(38 -60 -50 -40 -70 -34 -5 45)
1969-12-31 18:00:16.118027508,(-45 40 62 28 6 10 -37 -81)
1969-12-31 18:00:16.118027508,(16 -29 -24 -3 37 22 2 42)
1969-12-31 18:00:16.139924648,(5 -119 -90 -59 13 21 41 54)
1969-12-31 18:00:16.139924648,(-34 91 95 54 -75 -53 -12 -16)
1969-12-31 18:00:16.142500782,(13 -9 -44 1 12 3 -10 -15)
1969-12-31 18:00:16.142500782,(17 -70 -61 -47 -26 17 14 -8)
1969-12-31 18:00:16.168262122,(0 46 96 59 29 -24 1 21)
1969-12-31 18:00:16.168262122,(5 0 -41 -3 62 18 15 28)
1969-12-31 18:00:16.170838256,(39 7 -25 -33 -70 -38 -18 -28)
1969-12-31 18:00:16.170838256,(-31 12 40 28 38 32 3 -1)
1969-12-31 18:00:16.186295059,(-8 13 -3 -11 -46 -10 19 -25)
1969-12-31 18:00:16.186295059,(20 -128 -121 -39 102 36 3 26)
1969-12-31 18:00:16.195311528,(-60 43 47 6 -79 -78 -90 -95)
1969-12-31 18:00:16.195311528,(-51 40 36 -2 -42 -2 24 -7)
1969-12-31 18:00:16.215920600,(9 9 -3 3 2 -18 -29 -41)
1969-12-31 18:00:16.215920600,(-11 -45 -30 -7 8 24 25 -25)
1969-12-31 18:00:16.218496734,(31 -16 -52 -4 72 38 52 59)
1969-12-31 18:00:16.218496734,(-10 -37 -9 -24 -31 -8 -51 -40)
1969-12-31 18:00:16.255850676,(-43 -20 -57 -40 -60 -38 -1 -42)
1969-12-31 18:00:16.255850676,(-14 31 61 19 -11 -19 -32 -42)
1969-12-31 18:00:16.257138743,(49 79 74 63 72 37 5 -5)
1969-12-31 18:00:16.257138743,(38 16 -32 -11 -39 -44 13 55)
1969-12-31 18:00:16.263579078,(-8 7 0 -4 69 36 6 -29)
1969-12-31 18:00:16.263579078,(-3 43 -13 -24 -92 -26 -23 -30)
1969-12-31 18:00:16.272595547,(1 -57 -71 -14 13 0 7 31)
1969-12-31 18:00:16.272595547,(-36 15 63 37 36 17 16 -9)
1969-12-31 18:00:16.293204619,(85 5 -20 10 41 29 7 71)
1969-12-31 18:00:16.293204619,(-48 -99 -18 -7 -41 -28 11 -45)
1969-12-31 18:00:16.295780753,(19 33 -17 -7 -2 -15 -2 5)
1969-12-31 18:00:16.295780753,(-39 46 52 28 -13 5 -16 -31)
1969-12-31 18:00:16.322830159,(-56 -100 -60 -19 26 23 11 3)
1969-12-31 18:00:16.322830159,(35 21 -15 -15 4 0 13 113)
1969-12-31 18:00:16.330558561,(23 43 -15 -9 12 16 11 -11)
1969-12-31 18:00:16.330558561,(-22 -32 7 9 0 -8 4 -12)
1969-12-31 18:00:16.340863097,(4 76 61 19 -63 -46 -25 -28)
1969-12-31 18:00:16.340863097,(45 -12 1 -5 12 -11 6 67)
1969-12-31 18:00:16.349879566,(0 -117 -87 -32 -11 19 2 -6)
1969-12-31 18:00:16.349879566,(-15 43 26 29 99 44 20 19)
1969-12-31 18:00:16.379505106,(-13 94 127 31 -60 -19 -14 -29)
1969-12-31 18:00:16.379505106,(-8 -95 -96 -46 -22 -41 -27 -23)
1969-12-31 18:00:16.391097709,(7 -20 11 19 53 78 61 52)
1969-12-31 18:00:16.391097709,(-12 -24 -47 -29 -37 -45 -37 -73)
1969-12-31 18:00:16.400114178,(42 23 -4 0 -31 -21 11 21)
1969-12-31 18:00:16.400114178,(-60 -69 -60 -18 73 33 -3 -78)
1969-12-31 18:00:16.402690312,(-46 15 29 2 -45 -25 0 -5)
1969-12-31 18:00:16.402690312,(50 106 27 18 -26 27 29 70)
1969-12-31 18:00:16.418147116,(6 -67 -36 -5 12 -19 -31 -11)
1969-12-31 18:00:16.418147116,(55 14 2 3 36 30 38 65)
1969-12-31 18:00:16.429739718,(3 -58 -46 -10 -21 -21 9 24)
1969-12-31 18:00:16.429739718,(72 50 47 9 -2 16 18 57)
1969-12-31 18:00:16.449060723,(-57 56 43 15 7 -10 -19 -37)
1969-12-31 18:00:16.449060723,(33 -8 1 13 12 12 1 11)
1969-12-31 18:00:16.450348790,(21 -71 -58 -33 -48 -30 -4 21)
1969-12-31 18:00:16.450348790,(-15 23 33 12 20 3 -33 -21)
1969-12-31 18:00:16.477398197,(-13 -37 -14 -12 -25 -7 -15 -32)
1969-12-31 18:00:16.477398197,(35 11 -34 -1 -6 3 27 35)
1969-12-31 18:00:16.478686264,(-24 57 64 7 6 -7 -22 -17)
1969-12-31 18:00:16.478686264,(-17 -22 -17 -12 -11 -17 -5 -20)
1969-12-31 18:00:16.507023737,(9 -22 -34 -1 48 19 17 14)
1969-12-31 18:00:16.507023737,(11 -28 -26 -1 -67 -18 -3 22)
1969-12-31 18:00:16.508311804,(-27 30 -5 -19 -8 -14 -14 -13)
1969-12-31 18:00:16.508311804,(-24 32 41 0 -21 -25 -12 -16)
1969-12-31 18:00:16.526344742,(-48 -77 -24 19 35 25 5 -6)
1969-12-31 18:00:16.526344742,(43 24 -1 0 30 13 -2 -4)
1969-12-31 18:00:16.527632809,(-7 8 31 11 -4 -1 -11 -47)
1969-12-31 18:00:16.527632809,(50 -54 -66 -13 31 45 17 25)
1969-12-31 18:00:16.554682215,(2 62 24 -11 -37 -44 -20 -19)
1969-12-31 18:00:16.554682215,(-93 -6 24 9 28 33 -2 -38)
1969-12-31 18:00:16.557258349,(-42 -29 11 19 -25 -36 -27 -15)
1969-12-31 18:00:16.557258349,(28 -12 -37 0 51 71 46 2)
1969-12-31 18:00:16.583019689,(9 10 27 -16 -98 -60 -20 32)
1969-12-31 18:00:16.583019689,(-1 -20 -41 -22 46 36 27 -24)
1969-12-31 18:00:16.584307756,(-12 -11 -4 -15 -25 -26 -57 -23)
1969-12-31 18:00:16.584307756,(-34 34 25 11 -58 -49 -12 -27)
1969-12-31 18:00:16.602340694,(7 -19 -23 3 21 36 26 65)
1969-12-31 18:00:16.602340694,(70 81 56 51 79 20 -5 34)
1969-12-31 18:00:16.603628761,(-43 -19 -5 -19 -28 -16 1 -25)
1969-12-31 18:00:16.603628761,(-65 -92 -46 -38 -60 -17 -8 -23)
1969-12-31 18:00:16.631966234,(32 -41 -59 -18 13 -4 -17 1)
1969-12-31 18:00:16.631966234,(-23 9 20 -9 -57 -33 -9 19)
1969-12-31 18:00:16.631966234,(34 2 10 28 109 65 32 22)
1969-12-31 18:00:16.631966234,(18 68 -1 15 23 -19 -10 -1)
1969-12-31 18:00:16.660303708,(-39 56 93 43 33 22 4 3)
1969-12-31 18:00:16.660303708,(8 -25 -70 -40 -61 -44 -29 5)
1969-12-31 18:00:16.661591775,(-8 -57 -6 -3 30 40 19 15)
1969-12-31 18:00:16.661591775,(-25 -68 -69 -46 -47 -32 -5 -12)
1969-12-31 18:00:16.679624712,(50 48 -6 21 46 38 34 3)
1969-12-31 18:00:16.679624712,(-20 65 93 30 -30 -16 -52 -31)
1969-12-31 18:00:16.679624712,(27 57 37 -12 -32 -15 15 14)
1969-12-31 18:00:16.680912779,(31 -83 -61 -17 33 17 19 19)
1969-12-31 18:00:16.707962186,(-47 -71 -71 -16 -1 -4 -10 -24)
1969-12-31 18:00:16.707962186,(38 87 79 14 -26 -6 38 55)
1969-12-31 18:00:16.709250253,(-2 31 39 20 -33 -7 -1 1)
1969-12-31 18:00:16.709250253,(-57 -64 -39 -26 30 19 -14 -21)
1969-12-31 18:00:16.737587727,(19 -13 -81 -48 -21 -6 14 -8)
1969-12-31 18:00:16.737587727,(28 62 71 57 22 5 1 -2)
1969-12-31 18:00:16.738875794,(-11 20 65 27 3 -4 -4 -7)
1969-12-31 18:00:16.738875794,(71 45 52 27 6 4 32 96)
1969-12-31 18:00:16.756908731,(-50 -57 -15 1 16 14 -5 -20)
1969-12-31 18:00:16.756908731,(-54 -90 -98 -64 -33 -9 -18 -83)
1969-12-31 18:00:16.758196798,(55 -23 -46 -7 3 8 20 57)
1969-12-31 18:00:16.758196798,(-12 43 23 -1 -32 -12 -1 -42)
1969-12-31 18:00:16.786534272,(1 29 23 4 28 8 -12 -14)
1969-12-31 18:00:16.786534272,(4 2 25 7 -19 -14 24 18)
1969-12-31 18:00:16.786534272,(-23 7 -17 -17 -7 3 3 -9)
1969-12-31 18:00:16.786534272,(51 32 -19 14 18 6 18 40)
1969-12-31 18:00:16.814871745,(-76 -25 39 20 1 -7 -35 -97)
1969-12-31 18:00:16.814871745,(-9 0 12 3 6 0 -8 -33)
1969-12-31 18:00:16.816159812,(-5 -24 -28 -13 -5 -9 11 18)
1969-12-31 18:00:16.816159812,(12 -6 -42 -15 13 21 0 4)
1969-12-31 18:00:16.834192750,(97 2 -12 -16 -4 -7 15 46)
1969-12-31 18:00:16.834192750,(-93 -45 0 23 16 5 -18 -31)
1969-12-31 18:00:16.835480817,(20 65 59 25 -4 -9 -4 -14)
1969-12-31 18:00:16.835480817,(15 21 42 -27 -46 2 13 24)
1969-12-31 18:00:16.863818291,(-4 -23 -17 -8 -4 -45 -35 -6)
1969-12-31 18:00:16.863818291,(27 -22 -31 -16 57 76 17 31)
1969-12-31 18:00:16.865106358,(-32 -61 -75 -34 -9 -11 -3 -19)
1969-12-31 18:00:16.865106358,(3 -23 -19 4 1 9 -17 -31)
1969-12-31 18:00:16.892155764,(-1 39 39 83 33 -10 46 24)
1969-12-31 18:00:16.892155764,(29 19 22 -30 -35 12 -11 28)
1969-12-31 18:00:16.893443831,(1 9 12 71 61 20 -7 -18)
1969-12-31 18:00:16.893443831,(9 24 26 2 11 -34 -22 18)
1969-12-31 18:00:16.911476769,(7 -28 -26 -53 -69 -5 -26 -24)
1969-12-31 18:00:16.911476769,(-24 -10 -26 -5 17 -22 -2 -13)
1969-12-31 18:00:16.912764836,(6 -4 -5 -45 -45 18 18 12)
1969-12-31 18:00:16.912764836,(5 -32 -18 -2 -9 -20 -3 64)
1969-12-31 18:00:16.939814242,(34 53 43 24 35 40 35 51)
1969-12-31 18:00:16.939814242,(-5 9 16 7 -25 -23 -16 -59)
1969-12-31 18:00:16.941102309,(67 36 -10 -15 -3 -1 -16 -27)
1969-12-31 18:00:16.941102309,(-79 -79 -32 1 10 -2 -9 -12)
1969-12-31 18:00:16.969439783,(14 20 6 -1 -12 -9 -15 -13)
1969-12-31 18:00:16.969439783,(-19 -24 -9 -20 -4 23 15 1)
1969-12-31 18:00:16.970727850,(11 -2 -24 0 -9 -31 -14 13)
1969-12-31 18:00:16.970727850,(-27 25 40 45 38 8 -3 -39)
1969-12-31 18:00:16.988760788,(-27 17 35 -6 -21 13 3 1)
1969-12-31 18:00:16.988760788,(36 6 -8 1 -13 -35 -18 20)
1969-12-31 18:00:16.990048855,(-59 -37 -24 -3 4 7 -5 -30)
1969-12-31 18:00:16.990048855,(14 9 -1 -8 -18 44 30 -14)
1969-12-31 18:00:17.017098261,(-9 -12 -11 -11 -2 -79 -93 -41)
1969-12-31 18:00:17.017098261,(39 26 4 5 13 56 8 27)
1969-12-31 18:00:17.018386328,(-57 -27 1 21 6 -3 21 -8)
1969-12-31 18:00:17.018386328,(-19 -22 -4 -9 -12 -19 -28 -55)
1969-12-31 18:00:17.036419266,(10 15 6 1 -8 6 28 16)
1969-12-31 18:00:17.036419266,(-13 -24 -24 -12 4 -2 -9 -20)
1969-12-31 18:00:17.045435735,(102 64 30 6 0 0 3 58)
1969-12-31 18:00:17.045435735,(-83 -19 -5 -2 0 -8 -12 -36)
1969-12-31 18:00:17.066044806,(-1 -36 -23 -16 -6 13 2 -21)
1969-12-31 18:00:17.066044806,(8 26 8 6 -4 -21 2 3)
1969-12-31 18:00:17.067332873,(-30 -54 -21 -18 -6 5 3 1)
1969-12-31 18:00:17.067332873,(91 33 5 3 3 -18 3 35)
1969-12-31 18:00:17.105974883,(-64 -22 -9 -5 -3 11 -6 -23)
1969-12-31 18:00:17.105974883,(1 -10 4 1 -3 -12 4 4)
1969-12-31 18:00:17.107262950,(25 23 16 10 7 -6 8 16)
1969-12-31 18:00:17.107262950,(17 3 -22 -17 2 5 -13 -7)
1969-12-31 18:00:17.113703284,(-30 -2 -1 -7 -10 4 7 -2)
1969-12-31 18:00:17.113703284,(2 -11 1 -2 -5 -13 0 -24)
1969-12-31 18:00:17.122719752,(58 13 -39 -10 6 13 12 44)
1969-12-31 18:00:17.122719752,(25 2 77 36 9 -10 -10 10)
1969-12-31 18:00:17.143328825,(-75 -3 11 14 -2 13 12 -33)
1969-12-31 18:00:17.143328825,(23 -5 -33 -11 -8 -24 -14 -28)
1969-12-31 18:00:17.144616892,(-30 -30 -44 -37 -8 -3 -9 -12)
1969-12-31 18:00:17.144616892,(6 31 2 -16 1 1 -1 -12)
1969-12-31 18:00:17.171666299,(46 16 34 42 14 9 18 43)
1969-12-31 18:00:17.171666299,(-11 24 38 24 10 7 11 29)
1969-12-31 18:00:17.172954366,(-16 -33 -23 -6 -7 -10 -12 -18)
1969-12-31 18:00:17.172954366,(1 -11 -23 -20 -7 -3 -1 -1)
1969-12-31 18:00:17.190987303,(0 -18 -31 -39 -9 3 4 11)
1969-12-31 18:00:17.190987303,(-40 -29 -24 4 -5 -11 -6 -17)
1969-12-31 18:00:17.200003772,(8 26 76 30 -1 -3 -5 -7)
1969-12-31 18:00:17.200003772,(10 15 0 17 15 1 -2 -16)
1969-12-31 18:00:17.221900911,(-36 -26 -24 -13 -8 2 3 5)
1969-12-31 18:00:17.221900911,(21 7 -20 -20 -2 -6 -1 -5)
