time,.data
1969/12/31/18:00:07.720000,(4 -5 -14 -18 -10 -2 5 8)
1969/12/31/18:00:07.720000,(6 7 -1 -37 -21 1 0 -1)
1969/12/31/18:00:07.722000,(6 8 13 36 17 3 0 0)
1969/12/31/18:00:07.722000,(-7 -1 4 26 17 7 0 -1)
1969/12/31/18:00:07.743000,(-6 -14 -15 -39 -18 -1 -2 -2)
1969/12/31/18:00:07.743000,(6 1 -5 -14 -10 -2 -1 1)
1969/12/31/18:00:07.745000,(-5 1 9 23 10 6 1 -2)
1969/12/31/18:00:07.745000,(2 1 -5 0 3 -3 -2 -6)
1969/12/31/18:00:07.766000,(-5 1 2 -19 -15 -6 -3 -3)
1969/12/31/18:00:07.766000,(-6 -6 -3 2 5 -2 1 1)
1969/12/31/18:00:07.767000,(4 2 4 18 10 -4 -2 -1)
1969/12/31/18:00:07.767000,(-6 -7 -6 -14 -10 -5 2 3)
1969/12/31/18:00:07.788000,(2 0 -1 -6 -6 -4 -1 -3)
1969/12/31/18:00:07.788000,(-6 -6 0 11 4 -1 -2 0)
1969/12/31/18:00:07.789000,(2 6 1 -1 -2 4 4 6)
1969/12/31/18:00:07.789000,(13 -2 0 6 2 0 -1 4)
1969/12/31/18:00:07.801000,(2 4 -2 0 0 4 -2 -4)
1969/12/31/18:00:07.801000,(11 3 -2 -8 -1 1 2 6)
1969/12/31/18:00:07.810000,(-11 -1 0 0 -2 5 1 -5)
1969/12/31/18:00:07.810000,(-31 -11 -4 -4 -1 -4 -9 -14)
1969/12/31/18:00:07.825000,(18 1 5 1 9 8 13 14)
1969/12/31/18:00:07.825000,(-6 13 9 5 5 6 3 -6)
1969/12/31/18:00:07.827000,(0 -19 -10 -9 -9 -17 -20 -13)
1969/12/31/18:00:07.827000,(16 6 -6 -5 -4 3 8 10)
1969/12/31/18:00:07.848000,(-28 -5 0 -6 -4 -5 -10 -16)
1969/12/31/18:00:07.848000,(-5 -8 -3 -8 -4 -4 2 4)
1969/12/31/18:00:07.849000,(3 1 4 -1 3 4 5 4)
1969/12/31/18:00:07.849000,(-11 -2 3 22 7 -1 -3 -5)
1969/12/31/18:00:07.861000,(18 2 -8 -9 -7 -3 2 9)
1969/12/31/18:00:07.861000,(6 1 -2 -33 -16 2 4 8)
1969/12/31/18:00:07.870000,(-11 3 9 47 28 4 -2 -6)
1969/12/31/18:00:07.870000,(8 -1 -6 -10 -1 -2 0 5)
1969/12/31/18:00:07.900000,(-33 0 5 -18 -2 -5 -10 -22)
1969/12/31/18:00:07.900000,(28 4 5 38 4 3 6 16)
1969/12/31/18:00:07.902000,(-3 -3 -9 -33 -7 2 4 -2)
1969/12/31/18:00:07.902000,(6 5 9 14 2 4 3 8)
1969/12/31/18:00:07.908000,(25 6 1 -2 4 -7 -4 8)
1969/12/31/18:00:07.908000,(-37 -17 -9 -17 -10 -11 -19 -34)
1969/12/31/18:00:07.909000,(22 7 -3 4 -2 -2 4 13)
1969/12/31/18:00:07.909000,(-16 2 -1 1 4 -4 -9 -12)
1969/12/31/18:00:07.930000,(10 -3 -8 -13 -11 0 6 13)
1969/12/31/18:00:07.930000,(-14 -6 0 0 1 0 0 -4)
1969/12/31/18:00:07.932000,(-4 -7 -1 4 0 -4 -3 -3)
1969/12/31/18:00:07.932000,(25 11 10 0 2 11 20 22)
1969/12/31/18:00:07.945000,(-20 -16 -43 -100 -33 -19 -21 -22)
1969/12/31/18:00:07.945000,(2 -2 -12 16 -4 -4 -1 2)
1969/12/31/18:00:07.947000,(3 8 42 94 34 13 10 5)
1969/12/31/18:00:07.947000,(-4 -4 4 -17 3 1 -4 -4)
1969/12/31/18:00:07.967000,(4 9 18 50 10 6 6 3)
1969/12/31/18:00:07.968000,(0 -7 -15 -47 -14 -2 -2 -3)
1969/12/31/18:00:07.969000,(-29 -12 -4 -6 -27 -11 -10 -9)
1969/12/31/18:00:07.969000,(16 11 16 37 26 18 18 10)
1969/12/31/18:00:07.981000,(-8 -3 -7 3 7 -2 -10 -13)
1969/12/31/18:00:07.981000,(11 -11 -19 -37 -12 -14 -7 5)
1969/12/31/18:00:07.990000,(-37 2 -1 -26 0 12 6 -12)
1969/12/31/18:00:07.990000,(57 25 -3 -6 -8 -4 6 20)
1969/12/31/18:00:08.005000,(-28 -16 -9 -7 -7 -1 2 -2)
1969/12/31/18:00:08.005000,(2 15 12 25 12 5 -3 -11)
1969/12/31/18:00:08.011000,(43 16 5 -9 3 7 18 32)
1969/12/31/18:00:08.011000,(-31 -19 -27 -96 -25 -7 -11 -16)
1969/12/31/18:00:08.028000,(-1 0 4 68 9 3 8 8)
1969/12/31/18:00:08.028000,(11 6 3 -9 10 5 9 12)
1969/12/31/18:00:08.030000,(-1 4 45 89 17 3 0 0)
1969/12/31/18:00:08.030000,(-28 -5 16 40 21 -8 -18 -23)
1969/12/31/18:00:08.042000,(23 7 7 -8 -13 5 10 12)
1969/12/31/18:00:08.042000,(-9 -7 -21 -52 -12 -2 1 2)
1969/12/31/18:00:08.050000,(-17 -33 -40 -42 -15 -13 -12 0)
1969/12/31/18:00:08.050000,(-33 -4 2 17 -6 -16 -32 -56)
1969/12/31/18:00:08.065000,(12 3 -5 -8 0 -3 -4 1)
1969/12/31/18:00:08.065000,(-6 -6 -12 -44 -11 -5 -2 -2)
1969/12/31/18:00:08.067000,(11 8 -6 -14 -18 2 7 9)
1969/12/31/18:00:08.067000,(-45 -18 16 55 11 -3 -4 -6)
1969/12/31/18:00:08.088000,(77 36 21 40 25 16 25 42)
1969/12/31/18:00:08.088000,(-33 -15 2 19 -1 -8 -19 -31)
1969/12/31/18:00:08.089000,(11 2 -32 -85 -21 0 2 1)
1969/12/31/18:00:08.089000,(-10 -16 -21 -39 -24 -8 1 6)
1969/12/31/18:00:08.101000,(-8 4 13 5 7 7 4 -1)
1969/12/31/18:00:08.101000,(10 8 16 35 7 7 6 14)
1969/12/31/18:00:08.110000,(6 -1 -8 22 25 1 -3 -7)
1969/12/31/18:00:08.110000,(16 10 23 66 1 6 7 6)
1969/12/31/18:00:08.126000,(-39 -22 4 2 -7 -13 -21 -26)
1969/12/31/18:00:08.126000,(45 23 15 21 18 8 10 19)
1969/12/31/18:00:08.131000,(-24 -23 -18 -40 -13 -5 -3 -10)
1969/12/31/18:00:08.131000,(-9 -12 -25 -55 -8 -1 -1 -3)
1969/12/31/18:00:08.148000,(-5 1 -6 -5 -7 -2 5 8)
1969/12/31/18:00:08.148000,(-14 1 3 3 -10 -14 -21 -20)
1969/12/31/18:00:08.149000,(0 5 -2 4 1 -2 -2 -5)
1969/12/31/18:00:08.149000,(24 -1 -14 -11 -3 -10 -4 4)
1969/12/31/18:00:08.178000,(-48 -26 -13 -45 -16 -10 -13 -24)
1969/12/31/18:00:08.178000,(-25 -8 7 38 7 5 13 15)
1969/12/31/18:00:08.179000,(9 6 3 -15 -3 2 -9 -15)
1969/12/31/18:00:08.179000,(7 2 2 11 16 8 7 9)
1969/12/31/18:00:08.184000,(12 -4 -59 -107 -82 -25 -6 3)
1969/12/31/18:00:08.184000,(-7 -9 -3 51 -30 -15 -6 -6)
1969/12/31/18:00:08.191000,(10 20 65 105 65 16 7 6)
1969/12/31/18:00:08.191000,(-1 9 45 103 99 40 10 3)
1969/12/31/18:00:08.208000,(2 3 22 18 23 15 2 -4)
1969/12/31/18:00:08.208000,(11 0 -29 -74 -11 2 5 5)
1969/12/31/18:00:08.209000,(-20 -23 -28 -36 -44 -16 -2 -1)
1969/12/31/18:00:08.209000,(7 6 -1 -18 -26 -12 -10 -5)
1969/12/31/18:00:08.221000,(-11 3 9 7 24 10 12 7)
1969/12/31/18:00:08.221000,(8 12 8 -8 4 7 4 13)
1969/12/31/18:00:08.230000,(-2 0 -7 -24 -17 -17 -4 -6)
1969/12/31/18:00:08.230000,(-11 -6 -18 -33 -12 2 17 8)
1969/12/31/18:00:08.244000,(4 0 7 16 7 2 4 9)
1969/12/31/18:00:08.244000,(6 -2 7 7 -4 4 11 8)
1969/12/31/18:00:08.251000,(5 5 1 -1 13 1 -3 4)
1969/12/31/18:00:08.251000,(10 1 -24 -68 -44 -10 2 9)
1969/12/31/18:00:08.268000,(6 2 -5 34 8 0 -5 -3)
1969/12/31/18:00:08.268000,(3 6 37 63 43 7 -6 -6)
1969/12/31/18:00:08.269000,(0 8 9 1 -28 -10 -11 -8)
1969/12/31/18:00:08.269000,(4 -5 -15 -40 -4 -9 -4 0)
1969/12/31/18:00:08.281000,(-2 -2 -12 26 6 -12 -14 1)
1969/12/31/18:00:08.281000,(-44 2 13 10 22 -1 -36 -75)
1969/12/31/18:00:08.290000,(15 10 -11 -26 -5 7 16 5)
1969/12/31/18:00:08.290000,(16 5 -16 -32 -24 -1 12 17)
1969/12/31/18:00:08.321000,(-20 -20 -18 -33 -16 -13 -16 -22)
1969/12/31/18:00:08.321000,(15 4 15 28 -3 2 14 26)
1969/12/31/18:00:08.322000,(2 4 17 36 -8 0 -8 -1)
1969/12/31/18:00:08.322000,(-13 -1 15 31 17 0 -10 -15)
1969/12/31/18:00:08.328000,(14 5 2 3 14 13 15 11)
1969/12/31/18:00:08.328000,(4 -6 -16 -27 -7 -5 1 5)
1969/12/31/18:00:08.329000,(4 -6 -30 -66 -11 -14 -29 -3)
1969/12/31/18:00:08.329000,(1 -1 7 33 -5 0 9 -4)
1969/12/31/18:00:08.350000,(6 8 23 28 21 26 45 35)
1969/12/31/18:00:08.350000,(13 3 -1 -9 -4 4 8 14)
1969/12/31/18:00:08.352000,(-4 -5 -21 -62 -23 -10 -1 8)
1969/12/31/18:00:08.352000,(-18 -11 -11 20 -1 -5 -21 -21)
1969/12/31/18:00:08.364000,(4 8 18 25 19 4 -11 -13)
1969/12/31/18:00:08.364000,(6 5 11 34 22 6 1 2)
1969/12/31/18:00:08.371000,(-38 -22 3 6 6 14 15 11)
1969/12/31/18:00:08.371000,(18 6 -11 -38 -27 -18 -18 -14)
1969/12/31/18:00:08.388000,(-16 -6 0 -1 -8 -1 1 -6)
1969/12/31/18:00:08.388000,(-15 -14 -11 -11 5 -2 0 6)
1969/12/31/18:00:08.389000,(0 -5 -17 -53 -5 -6 -5 -5)
1969/12/31/18:00:08.389000,(7 2 -11 20 -15 4 12 17)
1969/12/31/18:00:08.410000,(-18 -10 27 37 17 -1 -9 -13)
1969/12/31/18:00:08.410000,(41 21 14 19 9 2 5 17)
1969/12/31/18:00:08.412000,(-3 -1 7 21 10 1 -1 -9)
1969/12/31/18:00:08.412000,(-12 -3 -7 -24 -5 -2 -1 -3)
1969/12/31/18:00:08.424000,(-1 -9 -15 -42 -16 -7 -7 -3)
1969/12/31/18:00:08.424000,(-9 -7 -11 6 -3 1 2 -1)
1969/12/31/18:00:08.431000,(33 21 12 30 6 3 4 4)
1969/12/31/18:00:08.431000,(-8 -4 4 -1 11 9 12 16)
1969/12/31/18:00:08.455000,(2 7 5 14 2 2 3 5)
1969/12/31/18:00:08.455000,(-24 -19 -4 -11 -7 -5 -5 -13)
1969/12/31/18:00:08.457000,(6 11 -4 3 4 1 3 -4)
1969/12/31/18:00:08.457000,(-8 -9 1 -1 -5 -3 -7 -9)
1969/12/31/18:00:08.470000,(28 15 -10 -29 -12 -7 -4 5)
1969/12/31/18:00:08.470000,(-3 -2 -17 -25 -20 -6 0 0)
1969/12/31/18:00:08.472000,(0 -11 -29 -52 2 -3 -1 -4)
1969/12/31/18:00:08.472000,(4 10 38 95 18 6 3 8)
1969/12/31/18:00:08.484000,(16 19 9 8 2 3 1 2)
1969/12/31/18:00:08.484000,(-19 -9 -1 -21 -4 -5 -8 -14)
1969/12/31/18:00:08.493000,(5 3 13 47 7 3 2 7)
1969/12/31/18:00:08.493000,(9 7 3 -13 12 2 0 3)
1969/12/31/18:00:08.508000,(-8 -6 -9 -7 -8 -10 -11 -16)
1969/12/31/18:00:08.508000,(1 -2 -14 -31 -10 -5 -3 -2)
1969/12/31/18:00:08.509000,(-32 -11 -5 -13 -3 -3 -8 -11)
1969/12/31/18:00:08.509000,(-13 -12 -5 -21 -6 0 3 3)
1969/12/31/18:00:08.531000,(16 9 2 8 -1 2 0 2)
1969/12/31/18:00:08.531000,(22 12 -5 -11 -4 -7 -3 4)
1969/12/31/18:00:08.533000,(5 -3 7 22 6 5 8 9)
1969/12/31/18:00:08.533000,(13 4 -7 -5 -4 -7 -9 -2)
1969/12/31/18:00:08.544000,(28 17 5 -5 9 7 14 19)
1969/12/31/18:00:08.544000,(-2 -3 -24 -48 -19 -2 -1 0)
1969/12/31/18:00:08.553000,(-10 -5 9 0 -8 -3 -6 -10)
1969/12/31/18:00:08.553000,(8 9 21 62 22 6 9 6)
1969/12/31/18:00:08.567000,(-11 -12 -8 -17 3 -3 -4 -3)
1969/12/31/18:00:08.568000,(15 13 14 56 17 11 14 18)
1969/12/31/18:00:08.569000,(1 2 7 -3 -15 2 4 5)
1969/12/31/18:00:08.569000,(6 -9 -8 -30 -9 4 12 17)
1969/12/31/18:00:08.598000,(-20 -17 -7 1 -9 -11 -19 -26)
1969/12/31/18:00:08.598000,(-17 3 5 -1 12 5 1 -8)
1969/12/31/18:00:08.600000,(25 0 -2 -6 5 3 0 -2)
1969/12/31/18:00:08.600000,(16 1 -11 -27 -14 -5 3 14)
1969/12/31/18:00:08.603000,(-22 -16 -12 1 -3 -6 -8 -11)
1969/12/31/18:00:08.603000,(21 16 -2 -9 -5 -3 2 6)
1969/12/31/18:00:08.612000,(-14 -8 -15 -21 1 2 2 -2)
1969/12/31/18:00:08.612000,(2 -1 -15 -84 -23 -12 -11 -10)
1969/12/31/18:00:08.627000,(-11 -9 -4 3 -20 -1 0 -2)
1969/12/31/18:00:08.627000,(9 8 40 99 42 14 12 14)
1969/12/31/18:00:08.629000,(2 13 30 48 19 2 -3 -4)
1969/12/31/18:00:08.629000,(-1 2 -5 9 19 5 -1 -5)
1969/12/31/18:00:08.650000,(-21 -17 -24 -118 -27 -11 -9 -10)
1969/12/31/18:00:08.650000,(-23 -23 -3 25 -29 -5 -3 -11)
1969/12/31/18:00:08.652000,(16 16 22 67 12 1 7 14)
1969/12/31/18:00:08.652000,(6 4 -1 -22 -19 -7 -5 0)
1969/12/31/18:00:08.664000,(0 10 11 58 25 5 -2 -13)
1969/12/31/18:00:08.664000,(5 -16 -45 -94 -15 -7 -10 0)
1969/12/31/18:00:08.673000,(-10 2 -15 -63 2 7 12 0)
1969/12/31/18:00:08.673000,(-23 -10 9 59 -4 -9 -14 -21)
1969/12/31/18:00:08.687000,(7 1 5 6 14 5 8 11)
1969/12/31/18:00:08.687000,(-1 -3 8 7 -8 -2 -1 -1)
1969/12/31/18:00:08.689000,(-17 -17 -29 -102 -27 -13 -15 -14)
1969/12/31/18:00:08.689000,(10 7 -5 26 4 7 13 16)
1969/12/31/18:00:08.710000,(-6 2 12 77 45 7 4 -1)
1969/12/31/18:00:08.710000,(17 11 14 10 9 -1 1 5)
1969/12/31/18:00:08.711000,(-11 -10 -2 -14 -32 -9 -3 -3)
1969/12/31/18:00:08.712000,(-12 0 10 -30 -24 -6 -4 -10)
1969/12/31/18:00:08.733000,(13 9 7 33 22 2 2 7)
1969/12/31/18:00:08.733000,(5 9 11 15 44 19 7 3)
1969/12/31/18:00:08.734000,(4 -4 -6 21 18 5 -2 0)
1969/12/31/18:00:08.734000,(-27 -26 -16 -47 -17 -4 -1 -6)
1969/12/31/18:00:08.747000,(45 22 -17 -73 -38 -4 5 12)
1969/12/31/18:00:08.747000,(-19 -15 -33 -49 -15 -11 -6 -12)
1969/12/31/18:00:08.747000,(15 8 20 62 -10 -6 -3 6)
1969/12/31/18:00:08.748000,(-11 -2 23 13 11 10 10 7)
1969/12/31/18:00:08.769000,(-10 -6 16 65 14 3 4 5)
1969/12/31/18:00:08.769000,(-8 -6 -12 -44 -17 -7 -1 -5)
1969/12/31/18:00:08.770000,(24 14 10 67 27 0 -1 11)
1969/12/31/18:00:08.770000,(-5 1 7 22 16 3 -2 -5)
1969/12/31/18:00:08.792000,(-11 1 5 -24 -15 3 0 -5)
1969/12/31/18:00:08.792000,(-20 -7 -12 -41 -20 -9 -8 -8)
1969/12/31/18:00:08.793000,(-16 -12 -18 -8 3 -1 -3 -14)
1969/12/31/18:00:08.793000,(21 7 -13 -27 -7 -2 0 5)
1969/12/31/18:00:08.807000,(-9 3 9 15 -6 4 5 6)
1969/12/31/18:00:08.807000,(-52 -33 3 24 3 -9 -18 -36)
1969/12/31/18:00:08.808000,(6 3 -15 -54 -8 1 8 8)
1969/12/31/18:00:08.808000,(2 5 10 40 14 -3 -6 1)
1969/12/31/18:00:08.830000,(-76 -39 2 -10 -1 1 -1 -17)
1969/12/31/18:00:08.830000,(42 13 6 14 0 9 12 12)
1969/12/31/18:00:08.831000,(-2 -1 0 -8 5 0 1 3)
1969/12/31/18:00:08.831000,(3 2 -5 3 5 -3 -9 -17)
1969/12/31/18:00:08.876000,(-15 -14 -13 -14 -13 -14 -15 -14)
1969/12/31/18:00:08.876000,(-3 1 13 12 -1 -3 0 5)
1969/12/31/18:00:08.877000,(19 22 24 36 15 13 15 21)
1969/12/31/18:00:08.877000,(-9 -12 -17 -20 -8 -11 -9 -9)
1969/12/31/18:00:08.879000,(-20 -15 -1 -7 -5 -3 -3 -9)
1969/12/31/18:00:08.879000,(62 37 6 7 4 10 19 40)
1969/12/31/18:00:08.882000,(-5 -11 -7 -3 -7 -7 -9 -10)
1969/12/31/18:00:08.882000,(-8 -1 -4 -5 3 7 9 7)
1969/12/31/18:00:08.890000,(45 25 14 4 6 13 13 37)
1969/12/31/18:00:08.890000,(-17 -21 -12 -4 -7 -4 3 4)
1969/12/31/18:00:08.890000,(-61 -26 -3 -3 -13 -25 -46 -65)
1969/12/31/18:00:08.890000,(31 14 5 4 14 20 27 35)
1969/12/31/18:00:08.912000,(48 22 -6 -3 -5 -6 -1 5)
1969/12/31/18:00:08.912000,(-13 -3 -1 -2 -4 -16 -34 -17)
1969/12/31/18:00:08.913000,(15 6 1 6 0 5 20 14)
1969/12/31/18:00:08.913000,(1 1 -2 2 5 16 27 17)
1969/12/31/18:00:08.927000,(-8 -4 -4 -10 -10 -9 -18 -19)
1969/12/31/18:00:08.927000,(-4 3 4 1 -9 -5 -9 -9)
1969/12/31/18:00:08.928000,(12 9 4 5 7 9 5 10)
1969/12/31/18:00:08.928000,(-15 -7 -7 -4 2 -7 -15 -17)
1969/12/31/18:00:08.950000,(0 -8 -5 0 7 10 18 15)
1969/12/31/18:00:08.950000,(37 20 10 11 9 10 21 29)
1969/12/31/18:00:08.950000,(-39 -20 0 -1 -6 -15 -27 -39)
1969/12/31/18:00:08.950000,(27 12 -2 0 6 5 10 8)
1969/12/31/18:00:08.973000,(8 -3 -6 -13 -7 -5 2 6)
1969/12/31/18:00:08.973000,(-40 -12 -1 13 1 0 0 -12)
1969/12/31/18:00:08.973000,(48 27 -1 3 0 6 22 45)
1969/12/31/18:00:08.973000,(-27 -11 -2 2 -2 -15 -31 -38)
1969/12/31/18:00:08.987000,(2 -6 -3 -5 -6 -4 -7 -6)
1969/12/31/18:00:08.987000,(-12 3 5 2 4 9 6 -8)
1969/12/31/18:00:08.988000,(-4 -6 -1 -2 0 7 10 14)
1969/12/31/18:00:08.988000,(-12 -4 -1 -13 -15 -13 -18 -14)
1969/12/31/18:00:09.011000,(25 19 3 4 9 10 8 18)
1969/12/31/18:00:09.011000,(-22 -11 3 15 6 2 -11 -13)
1969/12/31/18:00:09.012000,(-10 0 4 6 3 2 -11 -11)
1969/12/31/18:00:09.012000,(3 15 -1 -22 -14 -1 -7 2)
1969/12/31/18:00:09.033000,(-30 -11 3 -17 -7 13 1 -27)
1969/12/31/18:00:09.033000,(48 21 6 1 8 20 32 39)
1969/12/31/18:00:09.034000,(-20 -21 -11 -2 -2 -17 -16 -21)
1969/12/31/18:00:09.034000,(-8 -1 -3 -5 -9 -27 -12 -14)
1969/12/31/18:00:09.047000,(-30 -17 -11 -1 4 -10 5 -8)
1969/12/31/18:00:09.047000,(50 47 12 22 1 -19 -15 11)
1969/12/31/18:00:09.048000,(-37 -18 -4 15 2 -11 -15 -25)
1969/12/31/18:00:09.048000,(-11 -11 -6 3 6 8 12 9)
1969/12/31/18:00:09.069000,(12 2 -7 -6 -16 -17 -19 -8)
1969/12/31/18:00:09.070000,(-14 -17 -10 -7 -6 1 2 -3)
1969/12/31/18:00:09.070000,(24 8 -11 -38 -3 12 18 28)
1969/12/31/18:00:09.070000,(12 0 6 26 -15 0 -2 -3)
1969/12/31/18:00:09.093000,(39 34 23 36 19 5 7 22)
1969/12/31/18:00:09.093000,(-24 -14 0 9 15 21 12 -11)
1969/12/31/18:00:09.094000,(4 1 0 -11 -1 -1 -1 5)
1969/12/31/18:00:09.094000,(8 -5 -10 -18 1 10 11 17)
1969/12/31/18:00:09.107000,(13 11 -2 -15 -14 1 5 11)
1969/12/31/18:00:09.107000,(-40 -24 0 -2 1 -12 -17 -23)
1969/12/31/18:00:09.108000,(-2 12 12 38 5 10 5 -1)
1969/12/31/18:00:09.108000,(32 18 14 18 14 17 21 27)
1969/12/31/18:00:09.154000,(24 4 -1 -8 -10 -12 -13 2)
1969/12/31/18:00:09.154000,(-47 -28 -12 -23 -9 -8 -10 -26)
1969/12/31/18:00:09.155000,(-17 -7 -3 -11 2 6 1 -11)
1969/12/31/18:00:09.155000,(-22 -15 -8 -6 -6 -12 -9 -1)
1969/12/31/18:00:09.157000,(-27 -9 0 -9 -4 -2 -11 -29)
1969/12/31/18:00:09.157000,(14 -8 -20 -46 -11 3 13 19)
1969/12/31/18:00:09.160000,(19 2 2 17 -4 -8 -7 4)
1969/12/31/18:00:09.160000,(-18 0 9 2 -4 7 5 -9)
1969/12/31/18:00:09.167000,(-8 -9 -22 -25 7 -6 -6 -6)
1969/12/31/18:00:09.167000,(-4 3 24 56 2 -6 -8 -9)
1969/12/31/18:00:09.174000,(21 14 10 6 8 13 18 22)
1969/12/31/18:00:09.174000,(3 6 8 25 27 5 -4 -4)
1969/12/31/18:00:09.190000,(-31 -22 -2 12 -3 0 -2 -7)
1969/12/31/18:00:09.190000,(58 54 -9 -27 -13 -10 -4 15)
1969/12/31/18:00:09.190000,(-51 -34 -13 -23 -14 -6 -18 -39)
1969/12/31/18:00:09.190000,(-3 -6 -6 -15 -8 -6 -5 -6)
1969/12/31/18:00:09.213000,(23 13 1 -5 2 2 7 17)
1969/12/31/18:00:09.213000,(-38 -25 -11 -4 -4 0 -5 -21)
1969/12/31/18:00:09.214000,(38 21 10 9 3 4 20 43)
1969/12/31/18:00:09.214000,(-10 -6 -5 -7 -3 -7 -13 -16)
1969/12/31/18:00:09.227000,(8 5 0 13 3 -2 1 10)
1969/12/31/18:00:09.227000,(-21 -18 -2 -10 -6 -3 -7 -18)
1969/12/31/18:00:09.228000,(46 41 -3 -16 -2 6 13 32)
1969/12/31/18:00:09.228000,(-24 -14 7 10 6 2 -2 -10)
1969/12/31/18:00:09.250000,(4 0 -1 -1 10 -1 0 6)
1969/12/31/18:00:09.250000,(10 -3 0 6 -4 7 11 14)
1969/12/31/18:00:09.250000,(-4 -3 2 26 2 -1 0 -2)
1969/12/31/18:00:09.250000,(9 7 1 -9 3 -1 1 6)
1969/12/31/18:00:09.264000,(-21 -11 4 5 -5 -4 -9 -14)
1969/12/31/18:00:09.264000,(-13 -4 3 2 1 -7 -7 -2)
1969/12/31/18:00:09.288000,(-16 -15 -14 -15 -6 -4 -9 -17)
1969/12/31/18:00:09.288000,(-3 -4 -6 -16 -14 -7 -6 -4)
1969/12/31/18:00:09.290000,(-18 -3 -1 10 5 4 5 -14)
1969/12/31/18:00:09.290000,(27 8 19 14 20 21 24 31)
1969/12/31/18:00:09.291000,(31 19 2 1 -5 -16 -9 6)
1969/12/31/18:00:09.291000,(-18 -10 -4 -12 -6 -1 0 -4)
1969/12/31/18:00:09.310000,(-35 -27 -15 -16 -21 -23 -28 -35)
1969/12/31/18:00:09.310000,(32 38 3 10 11 10 4 10)
1969/12/31/18:00:09.310000,(-1 -19 0 1 8 11 4 -6)
1969/12/31/18:00:09.310000,(37 21 2 1 2 3 7 17)
1969/12/31/18:00:09.333000,(8 0 1 -1 -3 -2 2 4)
1969/12/31/18:00:09.333000,(-4 -8 -6 -10 -1 -9 -5 -2)
1969/12/31/18:00:09.334000,(-22 -15 0 -8 -8 -3 -2 -1)
1969/12/31/18:00:09.334000,(-1 9 4 2 -6 4 0 -2)
1969/12/31/18:00:09.347000,(8 3 5 9 16 12 11 13)
1969/12/31/18:00:09.347000,(-5 -3 7 6 -12 -12 -13 -10)
1969/12/31/18:00:09.348000,(-12 -3 3 3 5 -6 -7 -11)
1969/12/31/18:00:09.348000,(-40 -38 -4 21 10 4 1 -10)
1969/12/31/18:00:09.370000,(35 41 13 -2 6 13 18 26)
1969/12/31/18:00:09.370000,(-25 -33 -16 -20 -3 -2 -3 -13)
1969/12/31/18:00:09.370000,(1 -3 -3 -6 -8 -10 -13 -9)
1969/12/31/18:00:09.370000,(17 21 -1 -7 -5 -7 -4 7)
1969/12/31/18:00:09.394000,(-7 -17 -15 -21 -41 -13 -8 -8)
1969/12/31/18:00:09.394000,(-18 -6 -5 -18 12 -6 -1 -7)
1969/12/31/18:00:09.394000,(21 23 19 43 28 14 12 13)
1969/12/31/18:00:09.394000,(-14 3 16 42 13 7 -3 -13)
1969/12/31/18:00:09.431000,(0 -4 -1 5 3 -1 -4 -4)
1969/12/31/18:00:09.431000,(9 5 -6 -14 -24 -11 -6 1)
1969/12/31/18:00:09.432000,(-11 -8 -9 -24 -1 4 4 0)
1969/12/31/18:00:09.432000,(12 10 -1 -4 16 5 2 5)
1969/12/31/18:00:09.434000,(-25 -20 -5 11 3 3 -4 -13)
1969/12/31/18:00:09.434000,(57 32 8 9 12 22 34 57)
1969/12/31/18:00:09.437000,(-20 -9 5 2 -11 -5 -5 -11)
1969/12/31/18:00:09.437000,(-14 -14 -7 -9 -16 -18 -13 -14)
1969/12/31/18:00:09.453000,(-24 -7 1 -1 -2 -1 -6 -18)
1969/12/31/18:00:09.453000,(-22 -21 -6 0 -1 -8 -7 -2)
1969/12/31/18:00:09.454000,(-3 3 0 -5 3 7 7 2)
1969/12/31/18:00:09.454000,(-7 -8 -11 -14 -13 -7 -5 -2)
1969/12/31/18:00:09.467000,(24 11 1 -10 -17 -13 -2 7)
1969/12/31/18:00:09.467000,(-15 -7 -3 -11 2 -6 -7 -18)
1969/12/31/18:00:09.468000,(-3 -4 0 11 10 11 5 -1)
1969/12/31/18:00:09.468000,(-11 -7 1 10 13 4 -6 -13)
1969/12/31/18:00:09.498000,(14 10 12 15 19 18 21 31)
1969/12/31/18:00:09.498000,(28 16 3 9 1 5 7 9)
1969/12/31/18:00:09.498000,(-4 1 -1 -8 -14 -10 -7 -7)
1969/12/31/18:00:09.499000,(17 4 -8 -18 -11 -6 1 8)
1969/12/31/18:00:09.513000,(2 2 0 5 5 11 9 7)
1969/12/31/18:00:09.513000,(0 3 1 7 -9 -11 -13 -6)
1969/12/31/18:00:09.514000,(42 19 2 -3 1 4 9 26)
1969/12/31/18:00:09.514000,(-5 0 3 4 11 7 12 17)
1969/12/31/18:00:09.527000,(45 6 -1 -3 -3 -2 -3 12)
1969/12/31/18:00:09.527000,(-14 -7 1 -1 -5 -2 -12 -21)
1969/12/31/18:00:09.528000,(-19 -19 -6 -7 0 -2 -3 -8)
1969/12/31/18:00:09.528000,(2 7 3 -9 -9 0 1 -4)
1969/12/31/18:00:09.549000,(-14 -11 -12 -19 -57 -23 -5 -7)
1969/12/31/18:00:09.549000,(1 -2 -3 -10 25 0 -2 -2)
1969/12/31/18:00:09.550000,(-12 -11 8 31 19 4 -11 -13)
1969/12/31/18:00:09.550000,(-4 0 20 40 39 25 15 5)
1969/12/31/18:00:09.573000,(-34 -5 1 3 11 0 -17 -29)
1969/12/31/18:00:09.573000,(-13 7 1 -1 -16 1 6 2)
1969/12/31/18:00:09.574000,(-29 -41 -18 -31 -32 -19 -13 -15)
1969/12/31/18:00:09.574000,(47 24 -9 -24 -10 -7 2 18)
1969/12/31/18:00:09.587000,(11 9 5 4 5 -7 -7 -4)
1969/12/31/18:00:09.587000,(-24 -19 -7 10 0 7 7 -1)
1969/12/31/18:00:09.588000,(-60 -38 -7 -8 4 1 2 -6)
1969/12/31/18:00:09.588000,(-27 -6 -6 -6 -2 -6 -8 -21)
1969/12/31/18:00:09.610000,(19 7 -9 -21 2 3 7 16)
1969/12/31/18:00:09.610000,(14 11 1 9 -16 -6 -3 1)
1969/12/31/18:00:09.611000,(-15 -1 16 33 8 0 -4 -16)
1969/12/31/18:00:09.611000,(11 10 23 41 20 13 3 0)
1969/12/31/18:00:09.633000,(-15 -5 3 6 21 3 2 -4)
1969/12/31/18:00:09.633000,(1 -8 -11 -19 -8 -7 -7 -4)
1969/12/31/18:00:09.634000,(14 7 -24 -34 -22 -17 -8 -2)
1969/12/31/18:00:09.634000,(0 -2 -5 -19 -21 -10 -5 -1)
1969/12/31/18:00:09.647000,(7 13 20 10 10 13 8 4)
1969/12/31/18:00:09.647000,(-1 4 22 21 16 11 1 -1)
1969/12/31/18:00:09.648000,(23 17 -20 -11 -22 -13 1 11)
1969/12/31/18:00:09.648000,(-2 -13 -24 -37 -18 -12 -6 -3)
1969/12/31/18:00:09.670000,(-17 -13 -11 -11 9 6 0 -4)
1969/12/31/18:00:09.670000,(-2 -8 -8 29 20 5 -4 -5)
1969/12/31/18:00:09.670000,(10 21 38 36 24 18 8 3)
1969/12/31/18:00:09.670000,(4 10 24 10 -6 6 2 1)
1969/12/31/18:00:09.709000,(1 -4 -23 -22 -32 -10 1 5)
1969/12/31/18:00:09.710000,(-1 -7 -12 -14 -1 -15 -10 -5)
1969/12/31/18:00:09.710000,(4 4 8 16 7 7 0 -3)
1969/12/31/18:00:09.710000,(-6 -12 -32 0 9 0 0 1)
1969/12/31/18:00:09.712000,(-2 -1 7 -8 8 6 -1 -2)
1969/12/31/18:00:09.712000,(2 4 -5 -35 -25 -4 0 -2)
1969/12/31/18:00:09.714000,(12 9 6 -2 1 7 12 13)
1969/12/31/18:00:09.714000,(0 -2 9 8 -7 -9 -5 -2)
1969/12/31/18:00:09.730000,(-2 -3 12 12 7 -1 0 2)
1969/12/31/18:00:09.730000,(-6 -9 -17 14 -4 -14 -8 -7)
1969/12/31/18:00:09.730000,(-5 -10 -15 -19 -13 -13 -8 -8)
1969/12/31/18:00:09.730000,(-1 9 20 2 6 7 3 0)
1969/12/31/18:00:09.753000,(9 8 -2 -9 8 10 7 8)
1969/12/31/18:00:09.753000,(4 11 39 32 14 5 2 3)
1969/12/31/18:00:09.754000,(9 4 -21 -11 -10 1 3 3)
1969/12/31/18:00:09.754000,(-5 -20 -35 -11 4 -9 -6 -4)
1969/12/31/18:00:09.767000,(-16 -9 1 6 -18 -9 -9 -13)
1969/12/31/18:00:09.767000,(-4 6 26 -4 -2 1 -1 -5)
1969/12/31/18:00:09.768000,(8 12 5 0 6 4 2 4)
1969/12/31/18:00:09.768000,(6 2 -2 -9 1 2 4 5)
1969/12/31/18:00:09.790000,(3 4 -3 -32 -9 5 5 2)
1969/12/31/18:00:09.790000,(2 -5 -20 23 0 -6 -4 1)
1969/12/31/18:00:09.790000,(-7 -12 -9 6 8 -11 -8 -8)
1969/12/31/18:00:09.790000,(-13 -5 8 -4 -12 -9 -10 -11)
1969/12/31/18:00:09.813000,(-1 6 17 36 0 1 2 0)
1969/12/31/18:00:09.813000,(2 10 21 -3 5 16 9 4)
1969/12/31/18:00:09.814000,(7 8 6 -22 9 3 4 6)
1969/12/31/18:00:09.814000,(7 -1 -13 -34 -12 1 1 4)
1969/12/31/18:00:09.827000,(-5 -10 -17 27 6 -7 -5 -4)
1969/12/31/18:00:09.827000,(-10 -19 -35 -19 -15 -12 -9 -7)
1969/12/31/18:00:09.828000,(0 8 21 24 10 13 6 3)
1969/12/31/18:00:09.828000,(5 -2 -9 -6 -1 -3 -2 3)
1969/12/31/18:00:09.849000,(-5 -6 -4 -8 -2 -6 -6 -7)
1969/12/31/18:00:09.849000,(2 3 -3 -12 -6 5 5 5)
1969/12/31/18:00:09.850000,(0 5 14 -8 -3 10 5 0)
1969/12/31/18:00:09.850000,(6 8 2 -4 -10 -7 -2 3)
1969/12/31/18:00:09.872000,(-3 -6 -6 1 6 -2 -2 -2)
1969/12/31/18:00:09.873000,(-3 -3 3 15 2 -1 -2 -4)
1969/12/31/18:00:09.873000,(3 13 28 -3 2 8 4 2)
1969/12/31/18:00:09.873000,(9 -5 -29 29 3 4 6 7)
1969/12/31/18:00:09.886000,(-14 -31 -47 -45 -18 -15 -10 -8)
1969/12/31/18:00:09.886000,(-12 8 33 -11 0 -2 -7 -12)
1969/12/31/18:00:09.894000,(7 5 -5 49 13 3 0 1)
1969/12/31/18:00:09.894000,(3 8 20 4 -5 6 4 4)
1969/12/31/18:00:09.909000,(11 7 0 -51 -2 -1 6 7)
1969/12/31/18:00:09.909000,(-6 -10 -34 -33 -25 -9 -5 -3)
1969/12/31/18:00:09.910000,(-5 -11 -9 -6 -21 -8 -6 -7)
1969/12/31/18:00:09.910000,(-2 7 28 31 39 21 11 3)
1969/12/31/18:00:09.933000,(8 17 35 67 48 20 6 1)
1969/12/31/18:00:09.933000,(7 16 25 -1 7 0 3 3)
1969/12/31/18:00:09.934000,(-9 -20 -36 -28 -16 -15 -11 -8)
1969/12/31/18:00:09.934000,(-14 -13 -12 -57 -29 -14 -6 -8)
1969/12/31/18:00:09.946000,(-5 3 0 11 -5 -9 -6 -1)
1969/12/31/18:00:09.946000,(10 7 -5 -2 6 9 5 5)
1969/12/31/18:00:09.955000,(6 1 -2 -7 -10 -2 0 3)
1969/12/31/18:00:09.955000,(-3 -4 2 6 11 -2 -4 -5)
1969/12/31/18:00:09.994000,(-1 3 8 9 5 4 1 1)
1969/12/31/18:00:09.994000,(-4 -1 3 9 5 1 1 -2)
1969/12/31/18:00:09.995000,(5 3 -9 -13 -2 3 4 6)
1969/12/31/18:00:09.995000,(-1 0 -6 -7 -9 0 1 -1)
1969/12/31/18:00:09.996000,(2 3 16 28 8 2 4 3)
1969/12/31/18:00:09.996000,(-9 -20 -12 17 10 -5 -4 -5)
1969/12/31/18:00:09.999000,(-4 -9 -9 -28 0 -10 -4 -4)
1969/12/31/18:00:09.999000,(-3 6 0 -8 -3 -4 -5 -3)
1969/12/31/18:00:10.006000,(9 10 6 13 -1 2 4 6)
1969/12/31/18:00:10.006000,(-2 -3 1 -6 -6 -6 -4 -3)
1969/12/31/18:00:10.014000,(-2 -3 1 19 12 -1 -3 -2)
1969/12/31/18:00:10.014000,(9 -4 -14 6 7 5 4 7)
1969/12/31/18:00:10.029000,(-11 -4 3 2 -3 -11 -11 -12)
1969/12/31/18:00:10.029000,(6 1 -7 -9 -9 0 6 9)
1969/12/31/18:00:10.030000,(-1 -4 -5 -10 -8 -1 -1 -2)
1969/12/31/18:00:10.030000,(-5 0 1 4 -6 -2 -4 -6)
1969/12/31/18:00:10.030000,(-1 -4 -20 -66 -21 -10 -3 -2)
1969/12/31/18:00:10.030000,(2 3 14 68 27 4 2 0)
1969/12/31/18:00:10.061000,(-5 -8 -24 -33 -17 -6 -2 -1)
1969/12/31/18:00:10.061000,(4 -4 -17 -40 -22 -6 0 1)
1969/12/31/18:00:10.062000,(2 5 15 7 15 7 0 1)
1969/12/31/18:00:10.062000,(-1 0 4 43 6 3 -2 -1)
1969/12/31/18:00:10.063000,(3 1 2 4 -4 2 2 2)
1969/12/31/18:00:10.063000,(-6 -5 -3 -22 -8 -3 -4 -5)
1969/12/31/18:00:10.075000,(-4 -2 -2 13 10 -1 -3 -4)
1969/12/31/18:00:10.075000,(6 3 -9 -25 -22 -3 3 5)
1969/12/31/18:00:10.076000,(-1 0 7 6 3 0 0 -2)
1969/12/31/18:00:10.076000,(-4 -2 2 16 8 -1 -1 -3)
1969/12/31/18:00:10.089000,(-3 -5 -14 -25 -13 -3 -3 -1)
1969/12/31/18:00:10.089000,(-2 -3 0 -14 -13 -5 -4 -3)
1969/12/31/18:00:10.096000,(2 1 9 20 12 6 1 3)
1969/12/31/18:00:10.096000,(-1 -3 -2 8 3 2 1 1)
1969/12/31/18:00:10.112000,(-2 -5 -9 -26 -10 -5 -2 -2)
1969/12/31/18:00:10.112000,(0 2 2 3 1 -3 -2 0)
1969/12/31/18:00:10.114000,(2 4 5 23 13 5 3 1)
1969/12/31/18:00:10.114000,(-6 1 -3 -7 -8 -3 -5 -7)
1969/12/31/18:00:10.135000,(4 -1 -6 -17 -8 -1 0 2)
1969/12/31/18:00:10.135000,(-3 2 6 9 6 6 1 1)
1969/12/31/18:00:10.137000,(9 2 5 11 4 3 2 3)
1969/12/31/18:00:10.137000,(-11 -9 -8 -16 -12 -6 -9 -8)
1969/12/31/18:00:10.149000,(5 5 1 -8 -3 0 1 4)
1969/12/31/18:00:10.149000,(-8 -2 0 6 2 5 2 0)
1969/12/31/18:00:10.155000,(0 1 0 -2 -1 -2 -3 -1)
1969/12/31/18:00:10.156000,(9 1 -1 -2 -2 -1 4 5)
1969/12/31/18:00:10.172000,(-9 -5 -3 1 2 -5 -6 -7)
1969/12/31/18:00:10.172000,(4 -1 -3 -2 -5 -4 -1 1)
1969/12/31/18:00:10.180000,(-4 -2 1 5 2 0 -1 -3)
1969/12/31/18:00:10.180000,(-1 1 2 -2 -1 1 2 3)
1969/12/31/18:00:10.203000,(3 0 -3 -7 -1 4 2 5)
1969/12/31/18:00:10.203000,(4 1 -1 -5 -3 -2 2 0)
1969/12/31/18:00:10.204000,(-3 -3 -1 4 0 -4 -4 -2)
1969/12/31/18:00:10.204000,(1 2 4 8 4 4 1 0)
1969/12/31/18:00:10.208000,(-4 -1 0 -9 -4 1 0 -3)
1969/12/31/18:00:10.208000,(-4 -7 -7 -5 -5 -2 -4 -3)
1969/12/31/18:00:10.217000,(6 -1 -1 3 3 3 2 5)
1969/12/31/18:00:10.218000,(12 2 -8 -15 -3 -2 -3 1)
1969/12/31/18:00:10.232000,(-18 1 -1 -19 -10 -3 -6 -15)
1969/12/31/18:00:10.232000,(-1 0 8 28 2 0 -3 -4)
1969/12/31/18:00:10.234000,(-11 -2 -4 -15 -2 -1 2 -4)
1969/12/31/18:00:10.234000,(6 2 -2 0 -9 -5 3 10)
1969/12/31/18:00:10.255000,(5 -2 -2 -1 20 2 2 7)
1969/12/31/18:00:10.255000,(4 4 1 -20 -18 -3 0 2)
1969/12/31/18:00:10.256000,(-1 -1 9 58 23 1 -3 -1)
1969/12/31/18:00:10.256000,(-7 -3 5 -4 4 4 0 -6)
1969/12/31/18:00:10.269000,(6 1 0 9 -2 -2 4 5)
1969/12/31/18:00:10.269000,(-8 -5 0 -3 0 -4 -2 -5)
1969/12/31/18:00:10.277000,(-1 -2 -4 -24 -13 -4 -1 -2)
1969/12/31/18:00:10.277000,(0 -2 -5 -9 -6 0 2 1)
1969/12/31/18:00:10.292000,(2 1 -6 -7 -6 -3 -6 -3)
1969/12/31/18:00:10.292000,(6 -3 -10 -23 -6 -3 2 5)
1969/12/31/18:00:10.294000,(-1 6 -6 -26 -9 3 1 -4)
1969/12/31/18:00:10.294000,(-14 -13 -14 -65 -25 -6 -7 -10)
1969/12/31/18:00:10.314000,(9 5 24 92 28 8 9 13)
1969/12/31/18:00:10.314000,(-7 4 11 -22 9 0 -6 -9)
1969/12/31/18:00:10.316000,(-5 -9 -31 -28 -23 -12 -5 -1)
1969/12/31/18:00:10.316000,(6 12 48 113 27 7 2 4)
1969/12/31/18:00:10.347000,(-10 -6 12 23 20 3 1 0)
1969/12/31/18:00:10.347000,(4 8 18 45 32 16 2 -8)
1969/12/31/18:00:10.348000,(-20 -4 -9 -34 -5 -4 -3 -6)
1969/12/31/18:00:10.348000,(14 -7 -37 -79 -29 -8 -5 -3)
1969/12/31/18:00:10.352000,(-5 -5 -18 -31 -27 -15 -8 -4)
1969/12/31/18:00:10.352000,(-3 -11 -13 -3 -7 -12 -11 -4)
1969/12/31/18:00:10.354000,(0 4 6 -3 7 8 11 13)
1969/12/31/18:00:10.354000,(-22 -9 -6 11 -2 -7 -12 -19)
1969/12/31/18:00:10.375000,(-19 4 7 -2 0 4 6 -2)
1969/12/31/18:00:10.375000,(49 21 0 -6 10 18 27 34)
1969/12/31/18:00:10.376000,(-11 -13 -12 -69 -31 -14 -18 -16)
1969/12/31/18:00:10.376000,(-16 0 20 96 32 6 7 4)
1969/12/31/18:00:10.388000,(11 -4 -1 -3 5 -3 -5 1)
1969/12/31/18:00:10.388000,(-17 -10 -14 -20 -11 -5 -5 -7)
1969/12/31/18:00:10.397000,(12 9 19 35 12 5 7 6)
1969/12/31/18:00:10.397000,(-7 -2 -36 -106 -27 -13 -13 -11)
1969/12/31/18:00:10.412000,(-3 -6 -3 33 -7 -5 -1 -1)
1969/12/31/18:00:10.412000,(-11 5 47 110 20 5 2 -1)
1969/12/31/18:00:10.414000,(10 7 38 98 45 7 -3 -1)
1969/12/31/18:00:10.414000,(-68 -29 2 -16 -1 -2 -6 -21)
1969/12/31/18:00:10.435000,(79 42 -19 -61 -7 19 32 49)
1969/12/31/18:00:10.435000,(-22 -26 -31 -47 -25 -24 -25 -20)
1969/12/31/18:00:10.436000,(28 6 -3 1 -5 1 6 17)
1969/12/31/18:00:10.436000,(-39 -25 -15 -10 -12 -16 -21 -32)
1969/12/31/18:00:10.448000,(17 12 1 -19 0 5 6 16)
1969/12/31/18:00:10.448000,(-8 0 -6 -5 -5 -4 -6 -15)
1969/12/31/18:00:10.457000,(0 -4 -10 -46 -16 -9 -6 -3)
1969/12/31/18:00:10.457000,(21 4 -30 -72 -3 8 12 20)
1969/12/31/18:00:10.480000,(-12 -11 -10 -5 -24 -1 -1 -7)
1969/12/31/18:00:10.480000,(17 17 53 107 30 6 5 9)
1969/12/31/18:00:10.482000,(-18 -1 23 58 49 11 -3 -13)
1969/12/31/18:00:10.482000,(30 17 27 62 7 11 9 15)
1969/12/31/18:00:10.495000,(-14 -9 -1 -18 -6 -5 -9 -17)
1969/12/31/18:00:10.495000,(-13 -9 -32 -72 -20 -7 -3 -5)
1969/12/31/18:00:10.496000,(-2 -5 -24 -42 -22 -7 -1 -2)
1969/12/31/18:00:10.496000,(2 5 3 5 11 10 22 28)
1969/12/31/18:00:10.508000,(1 -7 -14 -17 -3 -4 -8 -6)
1969/12/31/18:00:10.508000,(49 30 11 -5 7 22 33 42)
1969/12/31/18:00:10.517000,(-8 -8 -4 5 -8 -14 -17 -15)
1969/12/31/18:00:10.517000,(22 10 7 19 6 2 3 8)
1969/12/31/18:00:10.532000,(-44 -21 2 2 -4 -7 -13 -31)
1969/12/31/18:00:10.532000,(-3 -8 -15 -29 -11 -1 2 6)
1969/12/31/18:00:10.534000,(0 2 -24 -77 -55 -15 -4 -2)
1969/12/31/18:00:10.534000,(11 7 26 88 33 6 2 5)
1969/12/31/18:00:10.554000,(-3 5 35 80 64 21 2 0)
1969/12/31/18:00:10.554000,(-2 4 15 31 43 18 0 -5)
1969/12/31/18:00:10.562000,(-4 -3 -1 -5 -6 4 5 2)
1969/12/31/18:00:10.563000,(1 -11 -36 -71 -41 -21 -11 -3)
1969/12/31/18:00:10.568000,(-62 -36 -4 -21 -24 -7 -3 -15)
1969/12/31/18:00:10.568000,(83 51 -6 -8 -5 10 25 50)
1969/12/31/18:00:10.577000,(-29 -21 -1 15 -1 -13 -24 -16)
1969/12/31/18:00:10.577000,(22 17 3 -2 3 4 4 8)
1969/12/31/18:00:10.592000,(-7 -12 -14 -18 -12 -10 0 -20)
1969/12/31/18:00:10.592000,(-17 -16 -12 -24 -11 6 20 15)
1969/12/31/18:00:10.594000,(14 9 5 18 9 15 22 22)
1969/12/31/18:00:10.594000,(18 10 9 19 14 10 3 4)
1969/12/31/18:00:10.623000,(-5 0 -2 -13 -6 -11 -18 -6)
1969/12/31/18:00:10.623000,(-26 -14 -6 -11 -6 -15 -19 -24)
1969/12/31/18:00:10.624000,(12 7 2 9 -4 5 4 3)
1969/12/31/18:00:10.624000,(-18 -5 7 -9 -1 -7 -10 -13)
1969/12/31/18:00:10.628000,(10 5 -6 3 -5 -1 1 4)
1969/12/31/18:00:10.628000,(-19 -15 -5 15 -2 -9 -13 -18)
1969/12/31/18:00:10.637000,(2 7 18 35 24 5 1 9)
1969/12/31/18:00:10.637000,(-12 -6 4 -5 -4 -1 -1 -5)
1969/12/31/18:00:10.652000,(25 25 -6 -19 -8 -2 4 11)
1969/12/31/18:00:10.652000,(-9 -14 -27 -52 -29 -12 -9 -14)
1969/12/31/18:00:10.654000,(19 17 21 48 17 12 20 26)
1969/12/31/18:00:10.654000,(13 11 16 26 12 5 5 5)
1969/12/31/18:00:10.675000,(-2 -1 6 3 8 -4 -9 -5)
1969/12/31/18:00:10.675000,(-7 -6 -4 -3 0 -5 -9 -14)
1969/12/31/18:00:10.676000,(1 -1 -9 -20 -8 0 4 2)
1969/12/31/18:00:10.676000,(2 -1 -9 -20 -12 -6 0 4)
1969/12/31/18:00:10.688000,(1 0 -1 3 2 3 2 2)
1969/12/31/18:00:10.688000,(-15 -10 -7 -25 -8 -2 -5 -6)
1969/12/31/18:00:10.697000,(-11 -8 -1 1 10 -2 -6 -11)
1969/12/31/18:00:10.697000,(15 2 -1 25 -9 2 5 11)
1969/12/31/18:00:10.712000,(-11 -6 8 16 2 -3 -5 -6)
1969/12/31/18:00:10.712000,(-19 -8 -1 -6 -6 -7 -10 -14)
1969/12/31/18:00:10.714000,(16 2 -18 -26 -8 -3 0 6)
1969/12/31/18:00:10.714000,(-25 -8 0 -8 7 3 0 -13)
1969/12/31/18:00:10.735000,(10 -9 -5 6 -6 -3 -1 5)
1969/12/31/18:00:10.735000,(5 32 30 49 14 9 12 5)
1969/12/31/18:00:10.736000,(19 11 8 14 1 -3 -7 2)
1969/12/31/18:00:10.736000,(-9 -9 -8 -14 -2 -4 -4 -4)
1969/12/31/18:00:10.758000,(6 0 -16 -42 -11 1 7 4)
1969/12/31/18:00:10.758000,(-3 -8 0 4 2 -1 -5 -2)
1969/12/31/18:00:10.759000,(-15 -7 -16 -24 -1 -5 -5 -9)
1969/12/31/18:00:10.759000,(17 14 12 -3 -13 4 7 9)
1969/12/31/18:00:10.771000,(1 -1 -10 -22 -3 -1 3 7)
1969/12/31/18:00:10.771000,(4 0 -9 10 -4 -6 -7 -1)
1969/12/31/18:00:10.778000,(-32 -8 34 99 23 5 -5 -21)
1969/12/31/18:00:10.778000,(-14 -9 10 -14 -17 -17 -14 -13)
1969/12/31/18:00:10.795000,(12 11 9 65 35 10 8 10)
1969/12/31/18:00:10.795000,(-26 -22 -5 -24 12 -2 -15 -12)
1969/12/31/18:00:10.796000,(50 34 -9 -35 -14 18 19 21)
1969/12/31/18:00:10.796000,(-14 -17 -36 -73 -16 -11 -15 -22)
1969/12/31/18:00:10.808000,(-1 -3 5 28 -19 -4 2 4)
1969/12/31/18:00:10.808000,(13 6 25 56 10 -10 -7 1)
1969/12/31/18:00:10.817000,(-22 -8 9 6 -2 -8 -8 -12)
1969/12/31/18:00:10.817000,(13 5 -20 -70 -3 1 3 10)
1969/12/31/18:00:10.832000,(0 3 -22 -3 -43 -10 -2 -2)
1969/12/31/18:00:10.832000,(-6 -9 -17 -48 -47 -5 2 1)
1969/12/31/18:00:10.838000,(-16 -7 29 59 22 -3 -4 -8)
1969/12/31/18:00:10.838000,(11 20 34 83 47 7 -3 -3)
1969/12/31/18:00:10.855000,(2 1 2 -14 60 20 8 4)
1969/12/31/18:00:10.855000,(6 -2 -24 -72 8 4 8 9)
1969/12/31/18:00:10.856000,(-12 -15 -9 35 -40 -4 -2 -6)
1969/12/31/18:00:10.856000,(-16 -9 15 36 -45 -6 -2 -3)
1969/12/31/18:00:10.868000,(17 10 -8 -34 11 -1 2 10)
1969/12/31/18:00:10.868000,(1 5 28 47 4 3 6 7)
1969/12/31/18:00:10.909000,(-16 -11 -22 -73 13 -6 -9 -13)
1969/12/31/18:00:10.909000,(-1 -5 -8 52 25 1 0 0)
1969/12/31/18:00:10.910000,(-15 -12 -7 -70 -42 -5 -8 -11)
1969/12/31/18:00:10.910000,(-3 -1 -12 5 -7 -8 1 2)
1969/12/31/18:00:10.915000,(7 3 -5 -6 11 2 6 7)
1969/12/31/18:00:10.915000,(1 1 18 45 11 5 -1 -4)
1969/12/31/18:00:10.916000,(-9 0 19 10 1 -1 -6 -10)
1969/12/31/18:00:10.916000,(-16 -18 -37 -76 4 -3 -5 -10)
1969/12/31/18:00:10.918000,(4 -2 -4 -27 -43 -5 2 5)
1969/12/31/18:00:10.918000,(5 4 -8 -2 22 3 3 3)
1969/12/31/18:00:10.928000,(0 4 27 64 10 4 -1 -3)
1969/12/31/18:00:10.928000,(-8 3 23 47 16 13 0 -6)
1969/12/31/18:00:10.937000,(-21 -9 -6 -11 11 0 -6 -14)
1969/12/31/18:00:10.937000,(32 4 -35 -104 -26 -4 7 20)
1969/12/31/18:00:10.952000,(48 21 -11 3 1 -9 -2 8)
1969/12/31/18:00:10.952000,(-18 -9 9 37 3 -1 -8 -16)
1969/12/31/18:00:10.958000,(2 2 -2 -20 -7 -2 -1 -1)
1969/12/31/18:00:10.958000,(-5 -4 -3 -15 0 -2 2 2)
1969/12/31/18:00:10.975000,(-11 -10 -4 -9 -5 -3 -2 1)
1969/12/31/18:00:10.975000,(-2 4 2 -26 -15 -5 -4 -5)
1969/12/31/18:00:10.976000,(16 1 -5 25 9 2 4 13)
1969/12/31/18:00:10.976000,(20 13 15 72 12 -12 -12 6)
1969/12/31/18:00:10.988000,(-33 -9 12 23 8 4 -7 -24)
1969/12/31/18:00:10.988000,(-6 -4 -8 -9 -7 -5 -2 -4)
1969/12/31/18:00:10.997000,(0 -6 -17 -56 1 0 4 7)
1969/12/31/18:00:10.997000,(-3 -8 -27 -55 -15 -1 5 3)
1969/12/31/18:00:11.012000,(-14 0 17 59 -19 -4 1 2)
1969/12/31/18:00:11.012000,(-5 0 19 40 16 1 -1 -10)
1969/12/31/18:00:11.035000,(65 26 3 16 8 -7 -10 3)
1969/12/31/18:00:11.035000,(-32 -10 3 -4 9 13 7 -7)
1969/12/31/18:00:11.036000,(17 4 -18 -47 3 9 14 20)
1969/12/31/18:00:11.036000,(18 5 2 7 0 11 14 10)
1969/12/31/18:00:11.038000,(-15 -1 4 0 -3 1 6 5)
1969/12/31/18:00:11.038000,(3 -5 -4 -21 -5 -6 -11 -9)
1969/12/31/18:00:11.057000,(-13 -11 -2 10 1 -2 -6 -10)
1969/12/31/18:00:11.057000,(27 20 6 13 -1 -3 8 26)
1969/12/31/18:00:11.059000,(-25 -18 -1 12 -2 -6 -15 -28)
1969/12/31/18:00:11.059000,(28 21 12 5 15 20 21 26)
1969/12/31/18:00:11.071000,(-4 -5 -15 -35 -14 -4 3 7)
1969/12/31/18:00:11.071000,(6 0 -3 13 2 -4 -7 -8)
1969/12/31/18:00:11.078000,(-45 -21 14 36 11 -4 -14 -20)
1969/12/31/18:00:11.078000,(-20 -3 8 27 1 2 -1 -15)
1969/12/31/18:00:11.095000,(-47 -26 -3 -21 -8 -7 -7 -19)
1969/12/31/18:00:11.095000,(54 25 -15 -22 -8 -7 -3 18)
1969/12/31/18:00:11.096000,(4 5 7 -5 6 11 19 21)
1969/12/31/18:00:11.096000,(9 9 6 16 10 13 21 18)
1969/12/31/18:00:11.117000,(-12 -4 -11 -12 -5 -5 -13 -22)
1969/12/31/18:00:11.117000,(0 -7 4 -15 -6 0 -3 -5)
1969/12/31/18:00:11.119000,(-17 -7 -2 3 1 1 2 1)
1969/12/31/18:00:11.119000,(13 -5 -2 8 -7 -13 -14 -2)
1969/12/31/18:00:11.131000,(28 15 -1 -15 2 4 10 14)
1969/12/31/18:00:11.131000,(-28 -14 -19 10 5 2 2 -3)
1969/12/31/18:00:11.140000,(30 17 9 13 -10 0 7 17)
1969/12/31/18:00:11.140000,(-33 -12 13 27 5 -6 -12 -25)
1969/12/31/18:00:11.179000,(9 7 14 17 10 -9 -6 0)
1969/12/31/18:00:11.179000,(18 12 -7 -16 -7 1 11 22)
1969/12/31/18:00:11.180000,(2 3 -14 -24 7 9 5 -1)
1969/12/31/18:00:11.180000,(-6 -6 -8 -2 -9 -7 -7 -10)
1969/12/31/18:00:11.181000,(-16 -4 3 -5 0 4 6 9)
1969/12/31/18:00:11.181000,(-10 -18 -6 -20 -10 -10 -11 -12)
1969/12/31/18:00:11.185000,(21 19 -1 12 13 11 11 13)
1969/12/31/18:00:11.185000,(-8 -10 2 2 -1 7 5 6)
1969/12/31/18:00:11.191000,(31 14 -8 -7 -6 -12 -15 -10)
1969/12/31/18:00:11.191000,(-35 -14 3 -5 -4 -6 -14 -23)
1969/12/31/18:00:11.200000,(-1 -8 -2 -23 -19 -15 -13 -10)
1969/12/31/18:00:11.200000,(-22 -16 -5 10 15 13 12 0)
1969/12/31/18:00:11.215000,(19 5 -3 0 2 1 5 15)
1969/12/31/18:00:11.215000,(-58 -28 0 8 -1 -7 -14 -31)
1969/12/31/18:00:11.216000,(40 33 5 9 2 1 7 20)
1969/12/31/18:00:11.217000,(8 4 -7 -7 -8 -8 -5 9)
1969/12/31/18:00:11.237000,(-6 -7 3 2 6 12 10 3)
1969/12/31/18:00:11.237000,(-10 -10 -13 -22 1 0 -6 -14)
1969/12/31/18:00:11.239000,(-8 -6 -4 -8 -3 -3 -3 2)
1969/12/31/18:00:11.239000,(-28 -17 10 16 -10 -4 -3 -10)
1969/12/31/18:00:11.251000,(3 8 -1 -2 -6 -12 -14 -9)
1969/12/31/18:00:11.251000,(5 2 5 17 11 10 13 17)
1969/12/31/18:00:11.260000,(5 17 -4 -15 0 1 7 17)
1969/12/31/18:00:11.260000,(-68 -29 -6 -8 -6 -22 -40 -60)
1969/12/31/18:00:11.275000,(-12 8 4 7 3 3 3 -4)
1969/12/31/18:00:11.275000,(38 1 -1 0 1 4 14 37)
1969/12/31/18:00:11.276000,(-13 -15 -2 -4 -3 -3 -5 -11)
1969/12/31/18:00:11.276000,(14 10 -9 -29 -15 -2 3 5)
1969/12/31/18:00:11.313000,(17 3 -2 8 10 11 19 31)
1969/12/31/18:00:11.313000,(-41 -12 10 50 10 -4 -19 -40)
1969/12/31/18:00:11.315000,(0 0 14 18 15 5 3 6)
1969/12/31/18:00:11.315000,(14 16 2 0 -9 -11 -12 -2)
1969/12/31/18:00:11.315000,(-33 -32 -7 -23 -2 4 0 -15)
1969/12/31/18:00:11.315000,(13 11 -13 -28 -3 16 17 19)
1969/12/31/18:00:11.320000,(-7 -3 1 -24 -8 9 -2 -8)
1969/12/31/18:00:11.320000,(10 12 5 -10 -3 10 5 3)
1969/12/31/18:00:11.335000,(-14 -18 -2 10 3 -16 -16 -20)
1969/12/31/18:00:11.335000,(-17 -1 -12 -52 -15 -15 0 -8)
1969/12/31/18:00:11.336000,(-7 -16 2 49 1 -29 -17 -17)
1969/12/31/18:00:11.336000,(10 17 6 20 14 -11 5 17)
1969/12/31/18:00:11.357000,(9 -9 -9 23 8 -2 -13 -31)
1969/12/31/18:00:11.357000,(11 -10 1 16 -3 -10 -6 5)
1969/12/31/18:00:11.359000,(-5 -8 -16 -31 -17 -12 -11 -8)
1969/12/31/18:00:11.359000,(1 -8 -8 -6 -9 -1 1 6)
1969/12/31/18:00:11.371000,(66 33 11 11 0 11 16 33)
1969/12/31/18:00:11.371000,(0 12 3 2 7 18 19 15)
1969/12/31/18:00:11.380000,(-26 -16 -13 -27 -28 -10 -15 -25)
1969/12/31/18:00:11.380000,(20 4 -4 13 14 9 12 11)
1969/12/31/18:00:11.395000,(-17 -6 7 7 9 4 0 1)
1969/12/31/18:00:11.395000,(25 24 15 35 11 6 -5 -9)
1969/12/31/18:00:11.396000,(81 59 16 11 7 23 45 83)
1969/12/31/18:00:11.396000,(-16 -12 -12 -23 -14 -11 -16 -19)
1969/12/31/18:00:11.416000,(-4 -1 -7 -34 -8 -2 1 5)
1969/12/31/18:00:11.416000,(-4 -1 1 14 -7 -7 -4 -2)
1969/12/31/18:00:11.425000,(-21 -19 -8 -11 -3 1 -2 -13)
1969/12/31/18:00:11.425000,(16 12 6 13 16 13 9 9)
1969/12/31/18:00:11.456000,(-35 -11 4 10 7 6 0 -12)
1969/12/31/18:00:11.456000,(22 22 15 11 6 12 23 40)
1969/12/31/18:00:11.458000,(-10 -8 -6 -1 0 3 -4 -23)
1969/12/31/18:00:11.458000,(4 -13 -9 -23 -18 0 7 11)
1969/12/31/18:00:11.462000,(16 23 -6 -13 -8 -5 -7 -6)
1969/12/31/18:00:11.462000,(11 6 1 1 -12 -8 -2 1)
1969/12/31/18:00:11.464000,(-29 -22 -1 13 13 -2 -7 -18)
1969/12/31/18:00:11.464000,(43 21 17 24 30 29 31 38)
1969/12/31/18:00:11.477000,(-4 -7 0 3 -6 -2 -2 2)
1969/12/31/18:00:11.477000,(-4 -1 -8 -18 0 -2 -10 -16)
1969/12/31/18:00:11.479000,(-14 -1 3 -10 -16 -3 -4 -22)
1969/12/31/18:00:11.479000,(3 0 0 6 1 -8 -10 -11)
1969/12/31/18:00:11.491000,(-9 -7 -3 -13 -12 -4 -1 0)
1969/12/31/18:00:11.491000,(-12 -13 -7 -17 -7 -9 -11 -14)
1969/12/31/18:00:11.500000,(-7 -4 -2 15 13 -2 -9 -10)
1969/12/31/18:00:11.500000,(-1 3 4 8 10 7 3 0)
1969/12/31/18:00:11.515000,(4 1 1 0 4 5 4 5)
1969/12/31/18:00:11.515000,(-12 -7 -1 -3 -5 -2 -5 -5)
1969/12/31/18:00:11.516000,(-2 -1 0 -3 -2 5 7 9)
1969/12/31/18:00:11.516000,(23 13 -9 -24 -22 -11 0 13)
1969/12/31/18:00:11.537000,(14 7 -5 5 1 -3 4 15)
1969/12/31/18:00:11.537000,(-19 -15 0 -1 17 3 -4 -12)
1969/12/31/18:00:11.539000,(-29 -9 3 9 -1 1 -10 -23)
1969/12/31/18:00:11.539000,(-9 1 -4 -1 -7 -9 -11 -16)
1969/12/31/18:00:11.551000,(-41 -23 -6 -7 -13 -23 -32 -43)
1969/12/31/18:00:11.551000,(10 1 -3 2 1 3 7 10)
1969/12/31/18:00:11.560000,(21 4 -5 -6 5 1 6 14)
1969/12/31/18:00:11.560000,(-19 -13 -8 -24 -12 -5 -8 -13)
1969/12/31/18:00:11.574000,(0 1 1 -4 -36 -12 3 8)
1969/12/31/18:00:11.574000,(-6 -2 2 14 16 -1 -8 -7)
1969/12/31/18:00:11.588000,(-18 -8 4 13 18 8 -5 -12)
1969/12/31/18:00:11.588000,(-1 -4 2 30 34 22 12 6)
1969/12/31/18:00:11.597000,(3 2 3 -8 -10 1 1 4)
1969/12/31/18:00:11.597000,(0 -2 -5 -11 -29 -14 -2 0)
1969/12/31/18:00:11.599000,(5 1 -1 -4 6 -2 1 7)
1969/12/31/18:00:11.599000,(-6 -3 -4 -17 1 1 -2 -5)
1969/12/31/18:00:11.620000,(8 6 6 27 26 15 9 10)
1969/12/31/18:00:11.620000,(4 2 4 4 -6 -5 0 1)
1969/12/31/18:00:11.621000,(-5 -3 -4 -5 -8 -10 -9 -6)
1969/12/31/18:00:11.621000,(-6 -3 0 4 -5 -7 -3 -3)
1969/12/31/18:00:11.635000,(-6 7 18 -41 -13 1 2 0)
1969/12/31/18:00:11.635000,(8 2 -22 18 -8 -1 0 5)
1969/12/31/18:00:11.636000,(0 -16 -29 -35 -31 -23 -8 -1)
1969/12/31/18:00:11.636000,(-16 -11 -6 -3 35 3 -4 -11)
1969/12/31/18:00:11.657000,(10 15 26 40 37 30 17 11)
1969/12/31/18:00:11.657000,(2 13 40 37 32 17 -1 -4)
1969/12/31/18:00:11.659000,(7 -2 -10 5 4 5 4 7)
1969/12/31/18:00:11.659000,(-12 -12 -21 -20 -41 -21 -14 -12)
1969/12/31/18:00:11.671000,(-6 -6 -14 -31 -11 -11 -3 -1)
1969/12/31/18:00:11.671000,(5 7 1 -30 -10 4 8 9)
1969/12/31/18:00:11.680000,(4 9 11 -19 -3 10 7 7)
1969/12/31/18:00:11.680000,(7 8 13 0 -1 -8 -1 3)
1969/12/31/18:00:11.694000,(5 5 11 59 -2 -1 0 3)
1969/12/31/18:00:11.694000,(-9 -5 7 18 7 5 -2 -9)
1969/12/31/18:00:11.703000,(-2 -9 -27 -25 -5 -5 1 2)
1969/12/31/18:00:11.703000,(-5 -5 -14 -45 -25 -22 -10 -6)
1969/12/31/18:00:11.733000,(1 -3 3 4 15 -5 -3 -2)
1969/12/31/18:00:11.733000,(-4 1 19 54 53 24 3 -6)
1969/12/31/18:00:11.735000,(5 5 1 33 38 17 5 -1)
1969/12/31/18:00:11.735000,(-3 -8 -1 10 -12 1 1 0)
1969/12/31/18:00:11.736000,(-5 -4 -21 -76 -35 -13 -2 -1)
1969/12/31/18:00:11.736000,(10 5 -1 -27 -26 -8 4 10)
1969/12/31/18:00:11.740000,(5 8 12 -16 -17 4 4 3)
1969/12/31/18:00:11.740000,(5 5 15 20 3 10 9 5)
1969/12/31/18:00:11.754000,(1 -2 9 79 -2 -9 -5 -3)
1969/12/31/18:00:11.754000,(-9 -8 -12 -16 15 -7 -9 -8)
1969/12/31/18:00:11.761000,(-6 4 19 30 15 9 3 -3)
1969/12/31/18:00:11.761000,(4 -4 -24 -6 -5 -7 -5 1)
1969/12/31/18:00:11.777000,(-11 -14 -19 -45 8 -4 -8 -8)
1969/12/31/18:00:11.777000,(-5 -12 -44 -98 -57 -14 -4 -2)
1969/12/31/18:00:11.779000,(-2 0 18 69 4 -9 -5 -1)
1969/12/31/18:00:11.779000,(3 16 40 50 26 17 6 0)
1969/12/31/18:00:11.791000,(10 12 13 28 18 17 9 8)
1969/12/31/18:00:11.791000,(4 2 -9 -49 -9 -2 0 3)
1969/12/31/18:00:11.800000,(-1 -6 -29 -56 -28 -4 -2 -1)
1969/12/31/18:00:11.800000,(1 0 5 77 -20 0 2 1)
1969/12/31/18:00:11.814000,(-9 -6 14 31 14 -3 -4 -5)
1969/12/31/18:00:11.814000,(-6 -1 6 22 18 -2 -4 -4)
1969/12/31/18:00:11.821000,(-1 -2 3 -17 4 1 1 -1)
1969/12/31/18:00:11.821000,(-2 2 -2 -29 8 6 -1 -1)
1969/12/31/18:00:11.837000,(2 -2 -16 -22 -19 -10 -3 -1)
1969/12/31/18:00:11.837000,(4 0 -10 -9 -15 -6 -1 1)
1969/12/31/18:00:11.839000,(-5 -1 10 -6 4 -1 -1 -1)
1969/12/31/18:00:11.839000,(-1 -5 -23 -4 -1 -5 -3 1)
1969/12/31/18:00:11.867000,(0 -5 -9 -19 -3 4 3 1)
1969/12/31/18:00:11.867000,(2 10 22 9 -5 3 1 -1)
1969/12/31/18:00:11.869000,(6 1 3 11 5 3 1 3)
1969/12/31/18:00:11.869000,(-9 -7 -6 -12 -3 -1 -3 -6)
1969/12/31/18:00:11.874000,(-3 -5 -18 -38 -6 -3 0 -1)
1969/12/31/18:00:11.874000,(-6 -5 0 20 12 -9 -4 -3)
1969/12/31/18:00:11.881000,(0 4 4 36 10 -4 0 -3)
1969/12/31/18:00:11.881000,(7 4 30 65 17 14 7 5)
1969/12/31/18:00:11.897000,(-1 -1 -7 -2 21 3 -3 -2)
1969/12/31/18:00:11.897000,(-4 -10 -11 11 -20 -7 -2 -1)
1969/12/31/18:00:11.899000,(-2 3 1 -55 -17 -2 -3 -3)
1969/12/31/18:00:11.899000,(1 1 -9 -37 -11 -7 -3 2)
1969/12/31/18:00:11.921000,(-3 1 6 23 -6 -1 -1 -2)
1969/12/31/18:00:11.921000,(2 -2 -1 -17 -22 -15 -4 1)
1969/12/31/18:00:11.923000,(-1 -3 -1 12 0 18 6 0)
1969/12/31/18:00:11.923000,(6 6 3 -4 64 30 7 3)
1969/12/31/18:00:11.934000,(1 3 13 9 11 15 7 5)
1969/12/31/18:00:11.934000,(-3 2 -3 -3 7 8 -1 -2)
1969/12/31/18:00:11.941000,(-1 -6 -3 -8 -16 -17 -8 -4)
1969/12/31/18:00:11.941000,(-5 7 17 1 -16 -9 -6 -4)
1969/12/31/18:00:11.957000,(0 3 -5 -8 -10 -3 2 0)
1969/12/31/18:00:11.957000,(-8 -13 -5 6 -6 -14 -7 -6)
1969/12/31/18:00:11.959000,(0 2 -18 -33 -27 -33 -11 -2)
1969/12/31/18:00:11.959000,(4 -12 -18 -43 -48 -27 0 6)
1969/12/31/18:00:12.011000,(-2 0 3 29 32 9 2 -2)
1969/12/31/18:00:12.011000,(0 8 37 73 65 29 9 3)
1969/12/31/18:00:12.013000,(-6 -3 5 16 18 16 3 -2)
1969/12/31/18:00:12.013000,(0 1 8 25 20 6 -2 -2)
1969/12/31/18:00:12.013000,(-1 -6 -11 -7 -4 -2 -2 0)
1969/12/31/18:00:12.013000,(6 3 -8 -4 1 7 3 4)
1969/12/31/18:00:12.027000,(-1 -1 -1 -9 -11 -5 -4 -2)
1969/12/31/18:00:12.027000,(-1 -2 -12 -37 -32 -15 -2 -1)
1969/12/31/18:00:12.028000,(-12 -3 9 -6 -18 -9 -7 -11)
1969/12/31/18:00:12.028000,(15 9 -7 -10 -10 -3 4 9)
1969/12/31/18:00:12.031000,(-3 -8 -8 3 6 -4 -1 0)
1969/12/31/18:00:12.031000,(-3 0 3 -2 -6 2 0 -2)
1969/12/31/18:00:12.040000,(5 1 2 2 4 5 1 1)
1969/12/31/18:00:12.040000,(-6 -1 2 -3 -2 -3 -3 -4)
1969/12/31/18:00:12.041000,(-4 -1 0 3 -3 0 -2 -2)
1969/12/31/18:00:12.041000,(0 0 0 2 10 4 -1 -3)
1969/12/31/18:00:12.053000,(4 1 1 7 2 -2 2 2)
1969/12/31/18:00:12.053000,(-2 -6 -7 -7 -11 -6 -3 -2)
1969/12/31/18:00:12.062000,(0 2 0 7 -9 4 0 2)
1969/12/31/18:00:12.062000,(-5 -3 -3 1 10 0 -2 -5)
1969/12/31/18:00:12.077000,(-2 -3 -15 -31 -12 -15 -8 -4)
1969/12/31/18:00:12.077000,(-3 -4 -12 -40 -33 -5 0 -1)
1969/12/31/18:00:12.083000,(2 6 30 65 51 18 6 0)
1969/12/31/18:00:12.083000,(-2 2 9 32 17 3 -4 -4)
1969/12/31/18:00:12.100000,(-3 -8 -17 -20 -31 -14 -7 -2)
1969/12/31/18:00:12.100000,(4 -2 -11 -20 -13 -3 2 4)
1969/12/31/18:00:12.101000,(0 0 19 28 13 3 1 -2)
1969/12/31/18:00:12.101000,(0 -1 3 14 10 0 0 -1)
1969/12/31/18:00:12.113000,(3 -3 -3 10 12 2 0 2)
1969/12/31/18:00:12.113000,(-3 -4 -11 -20 -15 -7 -4 -3)
1969/12/31/18:00:12.123000,(4 1 -15 -27 -35 -8 0 2)
1969/12/31/18:00:12.123000,(5 5 0 -6 12 4 0 2)
1969/12/31/18:00:12.153000,(-1 1 2 14 3 8 5 3)
1969/12/31/18:00:12.153000,(-3 0 2 2 4 1 -4 -2)
1969/12/31/18:00:12.154000,(-3 0 -1 -6 1 2 -1 0)
1969/12/31/18:00:12.154000,(-2 -1 -6 -15 -14 1 2 1)
1969/12/31/18:00:12.160000,(1 2 1 -16 -6 0 1 2)
1969/12/31/18:00:12.160000,(-1 -1 -3 -4 -6 0 -2 -3)
1969/12/31/18:00:12.161000,(-2 -2 -2 1 19 -3 -2 -1)
1969/12/31/18:00:12.161000,(-8 -5 -7 -11 -12 -5 -6 -6)
1969/12/31/18:00:12.173000,(6 -2 -7 -4 -14 -2 11 10)
1969/12/31/18:00:12.173000,(6 11 27 39 15 17 9 5)
1969/12/31/18:00:12.182000,(-2 1 9 36 49 19 5 -1)
1969/12/31/18:00:12.182000,(-3 0 1 1 22 4 -2 -2)
1969/12/31/18:00:12.197000,(-7 -6 -4 -6 -6 -8 -7 -5)
1969/12/31/18:00:12.197000,(-4 -7 -16 -20 -21 -14 -3 -3)
1969/12/31/18:00:12.199000,(2 0 -12 -33 -33 -10 3 4)
1969/12/31/18:00:12.199000,(1 -1 1 -2 -5 1 1 1)
1969/12/31/18:00:12.220000,(-1 0 1 1 3 -3 -6 -7)
1969/12/31/18:00:12.220000,(1 -2 0 7 7 1 3 2)
1969/12/31/18:00:12.222000,(-3 -1 -1 -4 -3 -9 -13 -6)
1969/12/31/18:00:12.222000,(2 1 0 -4 -10 -5 -3 -1)
1969/12/31/18:00:12.233000,(1 3 1 -3 2 6 5 2)
1969/12/31/18:00:12.233000,(3 3 5 11 12 7 9 7)
1969/12/31/18:00:12.242000,(-5 -4 -5 -1 -4 -4 -7 -6)
1969/12/31/18:00:12.242000,(0 -2 -4 -13 -15 -8 -1 4)
1969/12/31/18:00:12.296000,(-2 0 3 3 1 1 3 -3)
1969/12/31/18:00:12.296000,(-1 -1 2 15 18 7 5 4)
1969/12/31/18:00:12.298000,(2 -3 -3 -5 -8 1 2 2)
1969/12/31/18:00:12.298000,(-5 -4 -6 -7 -11 -4 -2 -5)
1969/12/31/18:00:12.299000,(3 6 6 3 5 -1 1 4)
1969/12/31/18:00:12.299000,(-1 -1 -1 6 5 -3 -3 -3)
1969/12/31/18:00:12.304000,(-1 -2 -6 -10 -7 -6 -4 0)
1969/12/31/18:00:12.304000,(1 -1 -1 -2 0 0 -1 0)
1969/12/31/18:00:12.305000,(-1 -3 -1 4 3 2 1 -2)
1969/12/31/18:00:12.305000,(-3 -1 -3 0 -6 -7 -6 -4)
1969/12/31/18:00:12.308000,(0 0 -1 -5 -4 0 2 3)
1969/12/31/18:00:12.308000,(1 1 2 2 1 1 2 1)
1969/12/31/18:00:12.317000,(-1 -3 -1 -4 -1 -2 -2 1)
1969/12/31/18:00:12.317000,(-1 0 2 3 2 -1 -3 -2)
1969/12/31/18:00:12.319000,(1 1 -1 -1 -4 -1 -1 -1)
1969/12/31/18:00:12.319000,(1 0 -2 0 -3 1 4 3)
1969/12/31/18:00:12.340000,(1 0 -1 0 2 3 -1 -1)
1969/12/31/18:00:12.340000,(-3 -2 0 -1 -2 0 -4 -4)
1969/12/31/18:00:12.342000,(-3 0 -1 -3 -2 -1 -2 -3)
1969/12/31/18:00:12.342000,(0 1 1 -2 -1 1 1 1)
1969/12/31/18:00:12.342000,(2 3 17 46 6 9 3 0)
1969/12/31/18:00:12.342000,(1 2 11 24 23 5 -1 0)
1969/12/31/18:00:12.347000,(-2 -5 -17 -28 -14 -1 0 0)
1969/12/31/18:00:12.347000,(-3 -3 -17 -59 -18 -2 -1 0)
1969/12/31/18:00:12.356000,(0 4 12 25 12 2 1 0)
1969/12/31/18:00:12.356000,(1 -2 -5 5 7 -2 -1 0)
1969/12/31/18:00:12.364000,(-4 -7 -10 -24 -17 -8 -3 -4)
1969/12/31/18:00:12.364000,(1 1 3 6 10 0 3 3)
1969/12/31/18:00:12.394000,(2 2 9 32 12 1 -1 -1)
1969/12/31/18:00:12.394000,(0 -3 -11 -25 -14 -6 -2 -1)
1969/12/31/18:00:12.396000,(-2 -1 0 11 0 -1 -2 -1)
1969/12/31/18:00:12.396000,(-6 3 6 22 14 0 -3 -5)
1969/12/31/18:00:12.401000,(3 1 -4 -9 -10 -2 2 2)
1969/12/31/18:00:12.401000,(1 0 -5 -18 -8 0 1 1)
1969/12/31/18:00:12.403000,(13 3 5 23 8 4 2 4)
1969/12/31/18:00:12.403000,(-3 -4 -3 -2 0 -3 -7 -8)
1969/12/31/18:00:12.415000,(2 2 1 -7 -5 3 1 -2)
1969/12/31/18:00:12.415000,(-7 -3 0 4 1 0 -4 -4)
1969/12/31/18:00:12.431000,(-12 -7 -1 4 1 1 3 7)
1969/12/31/18:00:12.431000,(11 3 0 -10 0 6 5 2)
1969/12/31/18:00:12.439000,(6 6 -1 -1 -1 0 2 4)
1969/12/31/18:00:12.439000,(-4 -7 -5 4 2 -5 -6 -7)
1969/12/31/18:00:12.440000,(-3 -1 0 -2 -3 1 0 -3)
1969/12/31/18:00:12.440000,(-7 -2 -5 -13 -6 -5 1 1)
1969/12/31/18:00:12.461000,(-5 -3 7 17 6 -1 0 -2)
1969/12/31/18:00:12.461000,(7 2 0 1 0 -2 2 3)
1969/12/31/18:00:12.463000,(-2 -2 -3 -2 -2 -3 -2 -2)
1969/12/31/18:00:12.463000,(4 0 0 1 1 -1 1 2)
1969/12/31/18:00:12.483000,(3 2 2 5 3 3 -1 0)
1969/12/31/18:00:12.483000,(-2 0 -3 -12 -5 -1 -3 -1)
1969/12/31/18:00:12.484000,(2 0 2 -1 0 5 0 -2)
1969/12/31/18:00:12.484000,(-2 0 2 -4 -2 3 0 1)
1969/12/31/18:00:12.498000,(-1 0 2 -2 -3 3 0 -1)
1969/12/31/18:00:12.498000,(-2 -4 -1 -3 5 6 2 3)
1969/12/31/18:00:12.499000,(0 5 3 -1 -9 1 -1 -4)
1969/12/31/18:00:12.499000,(0 -1 -1 -3 12 2 -2 -2)
1969/12/31/18:00:12.529000,(-9 -5 -2 -10 -8 -2 -3 -5)
1969/12/31/18:00:12.529000,(8 4 -2 -9 -4 -3 2 5)
1969/12/31/18:00:12.530000,(1 -2 -22 -70 -28 -9 1 2)
1969/12/31/18:00:12.530000,(-1 -3 -5 -8 -11 -6 -3 -3)
1969/12/31/18:00:12.544000,(0 6 38 98 53 8 1 -1)
1969/12/31/18:00:12.544000,(1 5 17 35 29 18 11 2)
1969/12/31/18:00:12.545000,(-3 -3 9 24 8 0 -2 -4)
1969/12/31/18:00:12.545000,(-2 -6 -44 -124 -50 -20 -10 -3)
1969/12/31/18:00:12.558000,(-2 -9 -24 -20 -46 -21 -12 -3)
1969/12/31/18:00:12.558000,(2 6 33 110 35 5 2 -3)
1969/12/31/18:00:12.559000,(-3 3 19 46 37 23 10 -4)
1969/12/31/18:00:12.559000,(13 8 15 17 12 12 20 20)
1969/12/31/18:00:12.581000,(0 -5 -26 -64 -19 -15 -14 -2)
1969/12/31/18:00:12.581000,(-18 -14 -29 -66 -41 -30 -24 -13)
1969/12/31/18:00:12.582000,(1 -1 -2 -9 -5 -5 -9 -7)
1969/12/31/18:00:12.582000,(-7 5 9 29 18 9 5 -7)
1969/12/31/18:00:12.603000,(-2 -2 -10 -49 -10 10 9 2)
1969/12/31/18:00:12.603000,(10 3 -27 -82 -20 5 9 14)
1969/12/31/18:00:12.604000,(-8 -6 -11 -9 -14 -11 -8 -6)
1969/12/31/18:00:12.604000,(-1 9 55 115 38 7 4 0)
1969/12/31/18:00:12.618000,(4 6 32 65 33 6 7 3)
1969/12/31/18:00:12.618000,(-14 -5 10 24 10 4 -1 -14)
1969/12/31/18:00:12.619000,(4 -2 -22 -55 -15 -9 -1 6)
1969/12/31/18:00:12.619000,(-6 -12 -25 -29 -20 -15 -13 -9)
1969/12/31/18:00:12.641000,(-6 -2 -4 -8 -3 -7 -2 2)
1969/12/31/18:00:12.641000,(23 7 -6 -17 1 6 15 19)
1969/12/31/18:00:12.641000,(-12 -6 -7 5 -4 1 2 -5)
1969/12/31/18:00:12.641000,(9 -3 -3 0 0 10 9 11)
1969/12/31/18:00:12.673000,(-5 3 8 1 5 -2 -9 -12)
1969/12/31/18:00:12.673000,(-3 -1 -5 -8 -6 -2 -4 -2)
1969/12/31/18:00:12.674000,(6 1 -23 -59 -4 -8 -2 3)
1969/12/31/18:00:12.674000,(-5 -3 6 79 -13 -3 -1 -1)
1969/12/31/18:00:12.678000,(15 14 21 58 22 16 18 16)
1969/12/31/18:00:12.678000,(1 3 16 56 25 6 -2 -2)
1969/12/31/18:00:12.679000,(-2 5 45 50 13 6 0 -2)
1969/12/31/18:00:12.679000,(0 3 -3 -5 10 -4 -6 -3)
1969/12/31/18:00:12.701000,(0 -9 -21 -42 -21 -1 -2 0)
1969/12/31/18:00:12.701000,(-3 -4 -14 -29 -12 -8 -4 -4)
1969/12/31/18:00:12.702000,(3 -2 -11 -22 -7 -7 -2 -2)
1969/12/31/18:00:12.702000,(-8 -3 -8 -28 -11 -7 -8 -9)
1969/12/31/18:00:12.723000,(-5 -7 -11 -17 -12 -6 -8 -10)
1969/12/31/18:00:12.723000,(-2 -1 4 10 -1 -1 -3 -5)
1969/12/31/18:00:12.724000,(-18 -3 13 31 14 14 9 2)
1969/12/31/18:00:12.724000,(3 -5 -24 -51 -12 -13 -15 -3)
1969/12/31/18:00:12.738000,(-11 -15 -40 -103 -11 -12 -11 -17)
1969/12/31/18:00:12.738000,(5 1 12 48 -8 0 4 6)
1969/12/31/18:00:12.739000,(5 12 31 80 7 -1 -1 2)
1969/12/31/18:00:12.739000,(-2 6 32 57 35 12 6 0)
1969/12/31/18:00:12.761000,(-6 -4 2 -8 6 3 -1 -2)
1969/12/31/18:00:12.761000,(-2 -3 -17 -43 -11 -1 0 -2)
1969/12/31/18:00:12.761000,(7 -2 -15 -18 -9 -4 -1 3)
1969/12/31/18:00:12.761000,(-5 -3 -10 -31 -7 2 1 -2)
1969/12/31/18:00:12.784000,(6 -2 -7 -1 -9 -4 -3 -1)
1969/12/31/18:00:12.784000,(28 18 13 7 6 15 27 40)
1969/12/31/18:00:12.785000,(-21 -13 -2 16 1 -10 -20 -24)
1969/12/31/18:00:12.785000,(8 3 -2 -21 -5 -5 -6 2)
1969/12/31/18:00:12.806000,(-10 -3 8 27 0 2 3 -3)
1969/12/31/18:00:12.806000,(23 6 -1 0 0 1 10 21)
1969/12/31/18:00:12.807000,(-60 -17 -2 -18 7 12 6 -17)
1969/12/31/18:00:12.808000,(55 12 -2 -2 0 5 9 29)
1969/12/31/18:00:12.820000,(-33 -20 -9 11 -11 -20 -29 -38)
1969/12/31/18:00:12.821000,(-14 -7 0 -7 -4 -9 -14 -20)
1969/12/31/18:00:12.821000,(11 10 0 0 3 3 8 9)
1969/12/31/18:00:12.821000,(-17 -11 -4 -2 -6 -4 -4 -9)
1969/12/31/18:00:12.844000,(3 7 10 20 7 10 8 10)
1969/12/31/18:00:12.844000,(-4 -5 -3 -16 -6 -6 -7 -8)
1969/12/31/18:00:12.845000,(-7 -8 -6 -6 -10 -13 -11 -14)
1969/12/31/18:00:12.845000,(-11 -3 2 -13 3 1 -1 -6)
1969/12/31/18:00:12.858000,(28 17 8 23 12 10 16 24)
1969/12/31/18:00:12.858000,(-21 -9 -5 0 15 -1 -8 -15)
1969/12/31/18:00:12.859000,(21 10 1 4 -16 -3 -1 8)
1969/12/31/18:00:12.859000,(6 8 4 5 4 6 10 6)
1969/12/31/18:00:12.880000,(-10 -4 0 -7 -2 -5 -5 -3)
1969/12/31/18:00:12.880000,(-8 -3 2 0 2 3 -5 -16)
1969/12/31/18:00:12.888000,(33 10 -3 4 7 5 14 29)
1969/12/31/18:00:12.888000,(-12 -5 -7 -10 -7 -5 -9 -22)
1969/12/31/18:00:12.904000,(-12 -6 -5 -5 -11 -19 -22 -19)
1969/12/31/18:00:12.904000,(-14 -7 -2 2 -3 -4 -6 -8)
1969/12/31/18:00:12.904000,(22 6 -1 -9 -8 -8 -8 0)
1969/12/31/18:00:12.904000,(-18 -5 -5 -3 4 7 11 -1)
1969/12/31/18:00:12.918000,(17 8 5 1 4 12 20 27)
1969/12/31/18:00:12.918000,(9 4 -2 -4 -3 -6 -7 -6)
1969/12/31/18:00:12.919000,(-1 -8 -2 6 5 -1 -3 2)
1969/12/31/18:00:12.919000,(-14 -1 -3 -26 -10 -6 -4 -10)
1969/12/31/18:00:12.950000,(2 -2 1 9 -3 3 3 2)
1969/12/31/18:00:12.950000,(-4 -2 -4 -25 20 7 5 5)
1969/12/31/18:00:12.951000,(8 3 16 60 5 6 1 1)
1969/12/31/18:00:12.951000,(-14 1 13 28 2 8 11 13)
1969/12/31/18:00:12.964000,(22 8 -4 -19 -5 -2 5 13)
1969/12/31/18:00:12.964000,(-24 -15 -11 -18 -20 -13 -16 -23)
1969/12/31/18:00:12.965000,(14 -1 -16 -32 1 -3 4 8)
1969/12/31/18:00:12.965000,(23 7 -7 -14 -9 -5 -2 15)
1969/12/31/18:00:12.978000,(-47 -24 9 19 -2 4 1 -14)
1969/12/31/18:00:12.978000,(73 46 7 24 15 14 18 28)
1969/12/31/18:00:12.979000,(-40 -27 -29 -35 -10 -20 -28 -34)
1969/12/31/18:00:12.979000,(-1 -3 1 -13 -14 -5 -6 -6)
1969/12/31/18:00:13.001000,(16 17 23 47 15 7 14 15)
1969/12/31/18:00:13.001000,(-8 0 17 46 9 -1 -5 -4)
1969/12/31/18:00:13.001000,(28 15 2 -14 8 10 15 18)
1969/12/31/18:00:13.001000,(-10 -9 -29 -54 -35 -15 -15 -19)
1969/12/31/18:00:13.024000,(-11 -7 -16 18 11 -1 1 -2)
1969/12/31/18:00:13.024000,(-26 -8 42 64 -33 -11 -11 -15)
1969/12/31/18:00:13.025000,(22 19 -3 -34 21 5 6 15)
1969/12/31/18:00:13.025000,(2 -3 10 70 47 18 8 4)
1969/12/31/18:00:13.038000,(-7 -6 1 -20 9 2 -5 -11)
1969/12/31/18:00:13.038000,(34 12 -16 -24 0 6 14 26)
1969/12/31/18:00:13.039000,(-16 -13 -5 -45 -37 -19 -20 -19)
1969/12/31/18:00:13.039000,(-43 -21 -18 -21 -23 -20 -21 -35)
1969/12/31/18:00:13.061000,(0 -10 -21 -24 16 -9 -15 -8)
1969/12/31/18:00:13.061000,(2 -1 -5 16 -16 0 7 7)
1969/12/31/18:00:13.062000,(-5 13 35 76 12 18 23 16)
1969/12/31/18:00:13.062000,(10 10 9 -5 15 -2 -5 3)
1969/12/31/18:00:13.085000,(-4 -16 -52 -88 -36 -8 -4 -6)
1969/12/31/18:00:13.085000,(-26 -20 -34 -127 -48 -21 -14 -16)
1969/12/31/18:00:13.086000,(2 -2 4 45 12 11 9 8)
1969/12/31/18:00:13.086000,(2 14 79 127 49 19 7 4)
1969/12/31/18:00:13.098000,(0 13 39 29 20 2 -1 -4)
1969/12/31/18:00:13.098000,(-14 -12 -10 -66 -3 -11 -14 -7)
1969/12/31/18:00:13.099000,(1 -2 -30 -67 -21 -8 2 2)
1969/12/31/18:00:13.099000,(36 12 -28 -59 -12 10 21 32)
1969/12/31/18:00:13.121000,(2 2 0 14 -11 1 -3 -10)
1969/12/31/18:00:13.121000,(-12 0 -5 12 35 5 3 -4)
1969/12/31/18:00:13.121000,(-13 -16 3 5 -26 -7 -8 -11)
1969/12/31/18:00:13.122000,(-9 2 4 1 2 2 1 -10)
1969/12/31/18:00:13.144000,(8 2 -8 -24 -9 -3 0 1)
1969/12/31/18:00:13.144000,(34 12 17 51 18 8 14 27)
1969/12/31/18:00:13.145000,(-13 -4 11 14 21 2 -6 -11)
1969/12/31/18:00:13.145000,(-9 -10 -12 -2 -4 -11 -16 -22)
1969/12/31/18:00:13.158000,(12 3 -12 -64 -25 -1 7 12)
1969/12/31/18:00:13.158000,(-12 -2 5 37 4 0 -3 -11)
1969/12/31/18:00:13.159000,(8 3 4 2 11 4 6 8)
1969/12/31/18:00:13.159000,(8 -1 -4 1 -8 6 11 20)
1969/12/31/18:00:13.180000,(3 10 24 40 6 5 -2 0)
1969/12/31/18:00:13.180000,(-18 -11 2 9 8 -7 -14 -16)
1969/12/31/18:00:13.181000,(18 9 -9 -7 13 15 18 20)
1969/12/31/18:00:13.181000,(-2 -8 -12 -34 -11 -7 -5 0)
1969/12/31/18:00:13.228000,(3 2 -11 -13 -10 -1 0 3)
1969/12/31/18:00:13.228000,(-10 -8 -8 -16 -6 3 4 -2)
1969/12/31/18:00:13.228000,(6 2 13 39 3 -10 -13 -15)
1969/12/31/18:00:13.228000,(15 19 10 10 15 5 6 16)
1969/12/31/18:00:13.230000,(-28 -18 2 10 -3 -2 -6 -17)
1969/12/31/18:00:13.230000,(0 2 -11 -19 -7 -2 -1 -7)
1969/12/31/18:00:13.233000,(-36 -23 -14 -23 -10 -12 -21 -25)
1969/12/31/18:00:13.233000,(24 8 -2 0 -3 -3 3 11)
1969/12/31/18:00:13.240000,(12 7 7 11 1 3 1 3)
1969/12/31/18:00:13.240000,(-2 -4 -13 -40 -9 0 4 2)
1969/12/31/18:00:13.241000,(-2 7 5 8 3 4 8 6)
1969/12/31/18:00:13.241000,(0 0 8 25 6 2 -1 -4)
1969/12/31/18:00:13.264000,(-10 5 15 16 17 12 21 24)
1969/12/31/18:00:13.264000,(-3 -3 1 2 -4 -8 -12 -13)
1969/12/31/18:00:13.265000,(20 11 7 1 6 11 18 25)
1969/12/31/18:00:13.265000,(8 -1 -9 -11 -7 -5 -5 -9)
1969/12/31/18:00:13.278000,(13 1 -3 -2 -3 -7 -4 -1)
1969/12/31/18:00:13.278000,(-31 0 0 6 -2 -5 -9 -18)
1969/12/31/18:00:13.279000,(-4 -16 -4 -11 -8 -7 -5 -1)
1969/12/31/18:00:13.279000,(41 23 -13 -18 -11 -17 -15 -15)
1969/12/31/18:00:13.301000,(8 7 -3 1 8 8 10 13)
1969/12/31/18:00:13.301000,(-4 -9 -7 1 -3 -2 -4 -8)
1969/12/31/18:00:13.301000,(-17 -9 -4 -4 -6 -12 -18 -21)
1969/12/31/18:00:13.301000,(-19 -13 0 -3 4 4 3 -1)
1969/12/31/18:00:13.324000,(-12 -8 0 7 1 1 0 -3)
1969/12/31/18:00:13.324000,(13 9 5 4 0 8 10 11)
1969/12/31/18:00:13.325000,(-5 4 1 2 -3 0 -4 -9)
1969/12/31/18:00:13.325000,(-10 -8 0 -6 -1 0 0 3)
1969/12/31/18:00:13.338000,(6 6 5 7 2 0 -1 3)
1969/12/31/18:00:13.338000,(19 6 8 10 14 15 13 11)
1969/12/31/18:00:13.339000,(-8 -11 -9 -13 -10 -10 -13 -19)
1969/12/31/18:00:13.339000,(-47 -20 -4 -8 -3 1 2 -4)
1969/12/31/18:00:13.362000,(16 11 6 3 -1 -8 -11 -9)
1969/12/31/18:00:13.362000,(-4 -11 -6 2 4 2 0 1)
1969/12/31/18:00:13.363000,(4 9 5 3 3 -2 -1 7)
1969/12/31/18:00:13.363000,(-26 -8 7 -3 3 18 13 -6)
1969/12/31/18:00:13.384000,(-12 -7 -14 -5 -7 -14 -17 -16)
1969/12/31/18:00:13.384000,(-8 -5 3 2 -9 -12 -13 -9)
1969/12/31/18:00:13.385000,(15 6 5 -1 5 7 16 15)
1969/12/31/18:00:13.385000,(1 -6 0 4 6 7 15 26)
1969/12/31/18:00:13.398000,(-9 -5 0 2 -3 -2 -6 -7)
1969/12/31/18:00:13.398000,(3 8 6 3 -2 -4 -6 -3)
1969/12/31/18:00:13.399000,(-25 -22 -7 -7 -3 -2 -1 -8)
1969/12/31/18:00:13.399000,(53 30 -6 -10 -7 -11 -4 20)
1969/12/31/18:00:13.421000,(27 19 4 13 21 34 35 27)
1969/12/31/18:00:13.421000,(-7 -7 -3 3 1 0 2 2)
1969/12/31/18:00:13.421000,(5 5 6 5 -2 -5 -5 5)
1969/12/31/18:00:13.421000,(-31 -19 -3 -2 -3 -4 -8 -21)
1969/12/31/18:00:13.444000,(29 16 2 2 12 19 27 35)
1969/12/31/18:00:13.444000,(-14 -13 -7 -7 -5 0 0 1)
1969/12/31/18:00:13.445000,(48 30 -3 -4 6 14 14 25)
1969/12/31/18:00:13.445000,(-21 -4 5 -3 -5 -6 -18 -30)
1969/12/31/18:00:13.458000,(-12 -7 0 -18 -12 -4 -7 -10)
1969/12/31/18:00:13.458000,(15 21 8 2 7 16 18 17)
1969/12/31/18:00:13.459000,(-56 -30 2 12 -1 -17 -18 -30)
1969/12/31/18:00:13.459000,(60 25 4 3 12 7 27 54)
1969/12/31/18:00:13.505000,(-22 -19 -10 2 -8 -24 -23 -25)
1969/12/31/18:00:13.505000,(4 -4 -4 -1 -7 -9 -2 5)
1969/12/31/18:00:13.506000,(-32 -16 -1 4 -2 -6 -8 -7)
1969/12/31/18:00:13.506000,(2 -1 -13 1 2 -3 -9 -5)
1969/12/31/18:00:13.507000,(-25 -21 1 7 -6 -2 -4 -11)
1969/12/31/18:00:13.507000,(40 27 -3 2 -4 -10 -6 13)
1969/12/31/18:00:13.511000,(13 8 -6 -8 1 6 2 -5)
1969/12/31/18:00:13.511000,(-36 -28 -2 -2 -14 -16 -22 -32)
1969/12/31/18:00:13.518000,(0 -2 -4 2 8 9 11 13)
1969/12/31/18:00:13.518000,(-30 -20 -4 5 -1 0 -7 -22)
1969/12/31/18:00:13.519000,(25 18 8 4 -1 0 2 14)
1969/12/31/18:00:13.519000,(-10 -2 -6 -10 -10 -8 -10 -14)
1969/12/31/18:00:13.541000,(-13 -7 -3 -24 -11 2 -2 -11)
1969/12/31/18:00:13.541000,(4 4 6 0 6 0 0 8)
1969/12/31/18:00:13.541000,(1 1 12 50 20 14 8 0)
1969/12/31/18:00:13.541000,(-23 -9 18 33 15 5 -3 -13)
1969/12/31/18:00:13.564000,(-9 0 -4 -7 -7 -14 -17 -4)
1969/12/31/18:00:13.564000,(6 3 -1 -20 -3 4 11 12)
1969/12/31/18:00:13.565000,(12 -1 -18 -41 -13 -4 1 7)
1969/12/31/18:00:13.565000,(-19 -12 -5 -7 -23 -10 -11 -16)
1969/12/31/18:00:13.586000,(16 7 2 9 -3 3 11 10)
1969/12/31/18:00:13.586000,(2 4 5 1 10 7 7 5)
1969/12/31/18:00:13.587000,(-13 -6 7 23 10 -5 -13 -18)
1969/12/31/18:00:13.587000,(40 29 12 14 12 16 27 39)
1969/12/31/18:00:13.602000,(3 2 -1 -19 -4 2 6 1)
1969/12/31/18:00:13.602000,(-24 -15 -9 -8 -7 -6 -7 -18)
1969/12/31/18:00:13.603000,(-6 -3 5 -5 -5 -1 -3 -2)
1969/12/31/18:00:13.603000,(16 7 -1 -5 8 10 15 21)
1969/12/31/18:00:13.640000,(3 -3 3 9 2 1 7 17)
1969/12/31/18:00:13.640000,(50 48 3 6 -1 -6 -5 4)
1969/12/31/18:00:13.641000,(17 10 -11 -23 11 16 14 12)
1969/12/31/18:00:13.641000,(-31 -23 -7 3 -20 -18 -24 -29)
1969/12/31/18:00:13.642000,(19 18 13 21 9 3 2 6)
1969/12/31/18:00:13.642000,(6 -5 6 10 15 13 15 20)
1969/12/31/18:00:13.646000,(0 -3 -4 -6 -9 0 5 2)
1969/12/31/18:00:13.646000,(10 2 -8 -19 -1 -4 -5 -3)
1969/12/31/18:00:13.661000,(-4 -5 -7 -17 -8 -8 -8 -7)
1969/12/31/18:00:13.661000,(-16 -14 -5 -14 -36 -19 -14 -15)
1969/12/31/18:00:13.661000,(6 2 -8 -23 -5 -8 -2 1)
1969/12/31/18:00:13.661000,(-14 -9 5 11 15 10 1 -3)
1969/12/31/18:00:13.684000,(-16 -7 14 45 28 14 -3 -20)
1969/12/31/18:00:13.684000,(72 47 27 24 36 29 33 76)
1969/12/31/18:00:13.685000,(9 30 -1 -9 -12 -4 0 -4)
1969/12/31/18:00:13.685000,(4 0 -11 -22 -9 2 16 14)
1969/12/31/18:00:13.697000,(-3 -9 -14 -14 -16 -22 -24 -23)
1969/12/31/18:00:13.697000,(-25 -21 -11 -3 -5 0 -1 -16)
1969/12/31/18:00:13.706000,(2 -3 3 2 -3 -4 -1 4)
1969/12/31/18:00:13.706000,(5 4 2 -3 -1 2 2 4)
1969/12/31/18:00:13.721000,(11 12 0 -11 -9 -1 4 10)
1969/12/31/18:00:13.721000,(-20 -16 -4 2 2 -4 -9 -15)
1969/12/31/18:00:13.721000,(-10 -7 7 14 15 2 1 -3)
1969/12/31/18:00:13.721000,(3 6 -4 1 -4 -3 -7 -8)
1969/12/31/18:00:13.744000,(-21 -18 -4 -3 -3 10 14 11)
1969/12/31/18:00:13.744000,(-22 -13 -6 -10 -12 -26 -29 -23)
1969/12/31/18:00:13.745000,(6 1 -1 0 -1 5 10 8)
1969/12/31/18:00:13.745000,(-1 -4 1 4 9 5 6 3)
1969/12/31/18:00:13.757000,(1 3 0 -1 1 -3 0 2)
1969/12/31/18:00:13.757000,(-6 -6 -2 0 -3 4 1 -6)
1969/12/31/18:00:13.782000,(-4 -2 1 5 2 1 -2 -2)
1969/12/31/18:00:13.782000,(-4 -5 -6 -21 -38 -25 -14 -4)
1969/12/31/18:00:13.784000,(8 3 -6 -17 -9 -12 -10 -9)
1969/12/31/18:00:13.784000,(-19 -8 5 3 11 9 4 -11)
1969/12/31/18:00:13.784000,(-2 -6 4 22 22 8 -3 -4)
1969/12/31/18:00:13.785000,(4 5 9 18 27 14 5 0)
1969/12/31/18:00:13.804000,(-12 -12 -9 1 -10 -15 -28 -28)
1969/12/31/18:00:13.804000,(-51 -28 -8 -8 -4 5 6 -15)
1969/12/31/18:00:13.804000,(45 21 4 -14 -11 -5 -4 13)
1969/12/31/18:00:13.805000,(-16 -11 -6 -9 -12 -11 -12 -16)
1969/12/31/18:00:13.817000,(9 8 0 1 -3 -5 3 6)
1969/12/31/18:00:13.817000,(-27 -21 -5 -2 -9 -14 -17 -23)
1969/12/31/18:00:13.825000,(17 11 5 -4 -5 10 24 37)
1969/12/31/18:00:13.825000,(-14 -10 -7 -2 4 -3 -8 -15)
1969/12/31/18:00:13.841000,(7 4 3 -5 1 -3 -3 1)
1969/12/31/18:00:13.841000,(21 14 9 13 10 11 11 18)
1969/12/31/18:00:13.841000,(-34 -22 -6 -1 -19 -19 -21 -25)
1969/12/31/18:00:13.841000,(-33 -23 0 -1 2 -7 -10 -19)
1969/12/31/18:00:13.864000,(68 42 2 1 9 20 37 59)
1969/12/31/18:00:13.864000,(2 -5 -9 -2 -4 -7 -11 -13)
1969/12/31/18:00:13.865000,(3 9 4 -1 0 3 4 3)
1969/12/31/18:00:13.865000,(-9 -6 -9 -34 -27 -10 -7 -5)
1969/12/31/18:00:13.877000,(-9 -6 1 15 9 1 -3 -7)
1969/12/31/18:00:13.877000,(-2 0 9 36 18 7 2 -3)
1969/12/31/18:00:13.885000,(-15 -11 2 19 14 1 -8 -14)
1969/12/31/18:00:13.886000,(21 17 8 1 4 8 7 15)
1969/12/31/18:00:13.916000,(6 3 -5 -21 -4 5 11 11)
1969/12/31/18:00:13.916000,(17 8 -5 -22 -17 -7 0 7)
1969/12/31/18:00:13.917000,(-17 -9 0 6 -2 -7 -10 -14)
1969/12/31/18:00:13.917000,(3 1 2 9 16 0 -1 -2)
1969/12/31/18:00:13.924000,(-25 -17 -3 -5 -18 -8 -12 -20)
1969/12/31/18:00:13.924000,(12 8 3 7 7 7 10 14)
1969/12/31/18:00:13.925000,(-10 -10 -8 -13 -6 -2 -4 -8)
1969/12/31/18:00:13.925000,(18 11 -2 -1 5 7 10 15)
1969/12/31/18:00:13.937000,(-9 -6 1 2 3 -3 -7 -8)
1969/12/31/18:00:13.937000,(1 -1 -4 -10 -5 -3 -6 -4)
1969/12/31/18:00:13.946000,(-5 -2 -2 -12 -8 -4 -5 -5)
1969/12/31/18:00:13.946000,(6 2 0 8 4 3 3 5)
1969/12/31/18:00:13.960000,(-13 -6 0 0 -14 -5 -5 -9)
1969/12/31/18:00:13.960000,(4 1 -2 -10 1 -8 -2 2)
1969/12/31/18:00:13.969000,(4 3 5 27 24 6 4 3)
1969/12/31/18:00:13.969000,(-6 -3 3 4 -6 4 -2 -3)
1969/12/31/18:00:13.984000,(-1 1 -7 -14 15 10 4 2)
1969/12/31/18:00:13.984000,(4 6 9 -4 -2 15 7 5)
1969/12/31/18:00:13.985000,(9 6 -1 16 6 4 4 6)
1969/12/31/18:00:13.985000,(-17 -19 -11 11 -5 -25 -23 -21)
1969/12/31/18:00:14.006000,(-5 0 3 -10 -14 -6 -3 -4)
1969/12/31/18:00:14.006000,(4 5 6 3 -4 -2 3 4)
1969/12/31/18:00:14.008000,(5 0 -15 -58 -25 -3 2 7)
1969/12/31/18:00:14.008000,(2 -8 -30 9 26 0 2 8)
1969/12/31/18:00:14.021000,(-6 0 20 75 -38 -8 -4 -6)
1969/12/31/18:00:14.021000,(-12 -1 23 39 17 0 -9 -13)
1969/12/31/18:00:14.029000,(8 6 8 -13 18 13 9 6)
1969/12/31/18:00:14.029000,(6 9 14 -17 10 13 7 5)
1969/12/31/18:00:14.059000,(9 1 -8 -6 -1 -6 0 5)
1969/12/31/18:00:14.059000,(-9 -10 -7 7 -11 -14 -9 -10)
1969/12/31/18:00:14.061000,(-1 -3 -5 -1 -8 -2 1 0)
1969/12/31/18:00:14.061000,(6 -2 -27 -25 2 2 4 5)
1969/12/31/18:00:14.066000,(-5 -5 -3 -23 17 7 -2 -2)
1969/12/31/18:00:14.066000,(3 3 3 19 -9 -1 1 1)
1969/12/31/18:00:14.068000,(-8 -5 3 -21 -8 -9 -6 -5)
1969/12/31/18:00:14.068000,(4 2 0 -1 -3 -2 3 3)
1969/12/31/18:00:14.080000,(-1 -2 4 -12 -16 -5 -2 1)
1969/12/31/18:00:14.080000,(1 6 9 13 22 6 4 1)
1969/12/31/18:00:14.089000,(5 1 -16 22 0 3 2 3)
1969/12/31/18:00:14.089000,(-6 -5 11 18 -8 1 -1 -3)
1969/12/31/18:00:14.104000,(-7 -5 -23 -13 0 -11 -9 -6)
1969/12/31/18:00:14.104000,(-2 -6 0 -23 -8 3 -1 -3)
1969/12/31/18:00:14.105000,(0 3 11 41 20 15 6 1)
1969/12/31/18:00:14.105000,(7 9 2 -17 -22 -5 2 6)
1969/12/31/18:00:14.126000,(-2 1 11 11 4 0 0 -4)
1969/12/31/18:00:14.126000,(0 -5 -17 20 8 -6 0 1)
1969/12/31/18:00:14.128000,(-15 -15 -7 -8 -6 -11 -9 -10)
1969/12/31/18:00:14.128000,(-1 -2 -13 -20 -7 -1 -1 -3)
1969/12/31/18:00:14.140000,(-2 -1 4 -16 5 0 -1 0)
1969/12/31/18:00:14.140000,(6 9 3 -7 -5 4 2 5)
1969/12/31/18:00:14.149000,(5 5 8 15 -2 3 2 1)
1969/12/31/18:00:14.149000,(3 5 11 8 4 10 2 2)
1969/12/31/18:00:14.164000,(4 2 -16 -35 -5 3 1 3)
1969/12/31/18:00:14.164000,(4 5 4 8 -3 5 1 1)
1969/12/31/18:00:14.166000,(-4 -2 7 13 3 -2 -3 -1)
1969/12/31/18:00:14.166000,(-9 -5 2 -72 -24 -6 -4 -6)
1969/12/31/18:00:14.194000,(0 -4 -20 57 24 2 2 2)
1969/12/31/18:00:14.194000,(-6 -12 -9 -13 7 -4 -2 -4)
1969/12/31/18:00:14.196000,(-5 -1 6 -1 -15 -9 -3 -5)
1969/12/31/18:00:14.196000,(8 14 34 48 18 9 8 6)
1969/12/31/18:00:14.200000,(3 3 -2 7 12 1 -2 -1)
1969/12/31/18:00:14.200000,(-7 -13 -27 -50 -34 -9 -5 -5)
1969/12/31/18:00:14.209000,(-2 1 3 -7 6 1 0 -2)
1969/12/31/18:00:14.209000,(3 2 11 10 13 4 6 2)
1969/12/31/18:00:14.224000,(-6 -9 -12 -18 -5 -2 2 -4)
1969/12/31/18:00:14.224000,(-5 -12 -10 45 17 -12 -7 -2)
1969/12/31/18:00:14.225000,(-3 -2 -8 -24 -17 -7 -4 -4)
1969/12/31/18:00:14.225000,(1 0 -7 4 -9 -3 -3 0)
1969/12/31/18:00:14.246000,(4 8 24 -1 -2 9 1 4)
1969/12/31/18:00:14.246000,(13 19 -3 -16 4 13 8 9)
1969/12/31/18:00:14.248000,(6 -11 -19 -4 -5 8 2 5)
1969/12/31/18:00:14.248000,(-16 -3 7 -37 -9 -1 -6 -9)
1969/12/31/18:00:14.260000,(4 8 1 48 15 10 4 1)
1969/12/31/18:00:14.260000,(-1 0 -1 -50 -14 2 1 -1)
1969/12/31/18:00:14.269000,(6 11 4 6 -8 -2 2 1)
1969/12/31/18:00:14.269000,(8 8 11 55 28 1 -1 2)
1969/12/31/18:00:14.284000,(-9 -7 1 -47 -8 0 -1 -5)
1969/12/31/18:00:14.284000,(0 2 3 -4 -1 -1 -1 -2)
1969/12/31/18:00:14.285000,(0 -1 0 5 17 0 3 1)
1969/12/31/18:00:14.285000,(-4 -13 -12 -5 -10 -8 -1 -5)
1969/12/31/18:00:14.306000,(-13 -6 3 6 2 -14 -7 -8)
1969/12/31/18:00:14.306000,(-7 -2 1 6 5 -7 -3 -2)
1969/12/31/18:00:14.308000,(-6 -1 -1 -16 -12 -11 -2 -2)
1969/12/31/18:00:14.308000,(3 1 -13 -7 -9 -2 3 3)
1969/12/31/18:00:14.336000,(7 6 14 30 16 1 -1 2)
1969/12/31/18:00:14.337000,(-8 -10 -7 -13 -6 -7 -7 -5)
1969/12/31/18:00:14.338000,(-1 -2 -4 -7 -5 -5 -3 -1)
1969/12/31/18:00:14.338000,(-5 -2 0 7 -13 -12 -6 -5)
1969/12/31/18:00:14.344000,(5 -6 -10 8 13 -5 -2 -1)
1969/12/31/18:00:14.344000,(-1 -3 6 7 -3 1 1 0)
1969/12/31/18:00:14.345000,(0 9 9 15 4 4 2 1)
1969/12/31/18:00:14.345000,(0 -12 -19 -10 -5 0 -2 1)
1969/12/31/18:00:14.366000,(-3 5 7 -9 -2 3 0 1)
1969/12/31/18:00:14.366000,(4 2 -1 22 8 8 4 3)
1969/12/31/18:00:14.368000,(-6 -5 7 -16 -7 -9 -10 -7)
1969/12/31/18:00:14.368000,(4 6 1 8 1 7 4 2)
1969/12/31/18:00:14.380000,(0 1 4 -6 -5 1 1 1)
1969/12/31/18:00:14.380000,(2 0 -11 -21 -4 0 1 0)
1969/12/31/18:00:14.389000,(0 -1 -9 -19 -9 4 3 1)
1969/12/31/18:00:14.389000,(-1 3 8 25 6 2 0 0)
1969/12/31/18:00:14.404000,(-3 -2 1 1 8 2 0 -2)
1969/12/31/18:00:14.404000,(-2 3 8 -7 0 0 2 0)
1969/12/31/18:00:14.405000,(0 -5 -8 10 4 0 -1 1)
1969/12/31/18:00:14.405000,(-1 -1 1 3 2 -3 0 0)
1969/12/31/18:00:14.426000,(-1 -2 -2 -5 -8 -5 -2 -2)
1969/12/31/18:00:14.426000,(-1 -2 -1 9 -2 -3 -3 -2)
1969/12/31/18:00:14.428000,(2 -2 -2 -7 1 -1 0 -1)
1969/12/31/18:00:14.428000,(1 2 2 2 -2 -1 1 0)
1969/12/31/18:00:14.440000,(1 2 -5 -12 -17 -5 -2 -3)
1969/12/31/18:00:14.440000,(2 1 1 -23 10 5 1 2)
1969/12/31/18:00:14.449000,(-1 0 9 50 6 2 0 -1)
1969/12/31/18:00:14.449000,(-1 0 2 10 15 4 1 2)
1969/12/31/18:00:14.479000,(2 0 -1 -5 -5 0 0 2)
1969/12/31/18:00:14.479000,(-1 -4 -4 -17 -16 -4 -3 -2)
1969/12/31/18:00:14.481000,(-2 -6 -7 -10 0 -4 -2 -1)
1969/12/31/18:00:14.481000,(4 5 7 18 0 -2 -2 -1)
1969/12/31/18:00:14.486000,(1 0 -1 14 4 2 0 2)
1969/12/31/18:00:14.486000,(-3 -4 -12 -14 -8 -4 -2 -4)
1969/12/31/18:00:14.488000,(3 2 -3 -21 -8 4 2 2)
1969/12/31/18:00:14.488000,(0 3 9 35 18 5 2 1)
1969/12/31/18:00:14.500000,(-5 -5 -11 -19 -5 -3 -3 -4)
1969/12/31/18:00:14.500000,(-1 1 8 24 5 -3 -4 -1)
1969/12/31/18:00:14.509000,(-4 0 -1 -11 -3 -3 -3 -3)
1969/12/31/18:00:14.509000,(-3 -3 -8 -22 -9 -3 -3 -1)
1969/12/31/18:00:14.524000,(2 -1 1 5 1 3 2 2)
1969/12/31/18:00:14.524000,(0 -1 -5 2 0 3 2 0)
1969/12/31/18:00:14.525000,(0 0 -1 -3 -1 -2 -1 -1)
1969/12/31/18:00:14.525000,(0 0 -3 -14 -15 -2 0 0)
1969/12/31/18:00:14.555000,(-3 -3 0 2 12 0 1 -2)
1969/12/31/18:00:14.555000,(-7 -4 -7 -22 -9 -6 -3 -6)
1969/12/31/18:00:14.561000,(14 10 6 26 22 11 10 11)
1969/12/31/18:00:14.561000,(4 5 9 24 17 7 3 2)
1969/12/31/18:00:14.561000,(-1 -3 -2 -16 -16 -2 0 -1)
1969/12/31/18:00:14.561000,(1 -2 0 7 4 -1 1 -1)
1969/12/31/18:00:14.569000,(-9 -8 -7 -8 -9 -6 -3 -4)
1969/12/31/18:00:14.569000,(-3 1 -9 -14 -8 -8 -4 -3)
1969/12/31/18:00:14.584000,(2 2 9 6 3 -1 1 1)
1969/12/31/18:00:14.584000,(-4 -2 2 1 -1 -2 -5 -4)
1969/12/31/18:00:14.585000,(0 -1 -2 -5 -3 -1 -2 0)
1969/12/31/18:00:14.585000,(-1 -3 -5 -13 -5 -2 -1 -2)
1969/12/31/18:00:14.615000,(3 3 -1 -5 -2 0 3 3)
1969/12/31/18:00:14.615000,(3 4 4 11 0 3 3 2)
1969/12/31/18:00:14.617000,(-2 1 3 -1 0 1 -3 -3)
1969/12/31/18:00:14.617000,(-1 -1 -2 -7 0 2 1 -1)
1969/12/31/18:00:14.620000,(1 -1 0 0 -1 1 2 1)
1969/12/31/18:00:14.620000,(1 3 3 4 3 1 1 1)
1969/12/31/18:00:14.636000,(1 0 -1 -1 -2 -1 -1 -1)
1969/12/31/18:00:14.636000,(-2 -3 -1 -6 1 -1 0 -1)
1969/12/31/18:00:14.644000,(1 1 2 3 1 1 0 1)
1969/12/31/18:00:14.644000,(-2 -2 -1 5 -1 0 -1 -2)
1969/12/31/18:00:14.645000,(0 -1 0 -2 0 -2 0 -2)
1969/12/31/18:00:14.645000,(-1 -1 -1 -3 -4 -2 1 1)
1969/12/31/18:00:14.645000,(0 -2 -2 -2 0 0 -1 -1)
1969/12/31/18:00:14.645000,(1 0 -1 0 -2 -1 2 1)
1969/12/31/18:00:14.659000,(-1 -1 -1 0 -1 -2 -1 -1)
1969/12/31/18:00:14.659000,(1 -1 0 -2 -1 0 -1 -1)
1969/12/31/18:00:14.661000,(-1 0 -2 0 -1 0 -2 -1)
1969/12/31/18:00:14.661000,(1 0 0 -1 -3 0 2 -1)
1969/12/31/18:00:14.689000,(1 1 -1 -1 1 3 1 1)
1969/12/31/18:00:14.689000,(1 0 0 2 2 -3 -2 1)
1969/12/31/18:00:14.691000,(-7 -5 -6 -8 -7 -4 -2 -4)
1969/12/31/18:00:14.691000,(0 -2 -1 0 0 0 -1 1)
1969/12/31/18:00:14.695000,(-3 0 5 -1 -2 2 1 -1)
1969/12/31/18:00:14.695000,(3 5 3 0 1 2 -1 1)
1969/12/31/18:00:14.705000,(3 -1 -6 -1 -1 4 3 1)
1969/12/31/18:00:14.705000,(0 -4 -8 0 1 1 0 1)
1969/12/31/18:00:14.719000,(1 0 -1 -3 -1 -1 -2 -1)
1969/12/31/18:00:14.719000,(-10 -4 3 -1 -6 -6 -7 -7)
1969/12/31/18:00:14.721000,(1 -1 -4 5 2 1 2 1)
1969/12/31/18:00:14.721000,(-3 -3 -2 -6 -3 -1 -3 -3)
1969/12/31/18:00:14.750000,(5 3 -5 -7 0 2 2 5)
1969/12/31/18:00:14.750000,(-4 1 -3 -16 2 3 1 -2)
1969/12/31/18:00:14.751000,(4 4 9 15 -6 2 0 0)
1969/12/31/18:00:14.751000,(-2 3 9 17 17 1 -1 -5)
1969/12/31/18:00:14.755000,(0 0 4 -11 0 3 1 0)
1969/12/31/18:00:14.755000,(2 -3 -12 3 -9 -4 -2 -1)
1969/12/31/18:00:14.765000,(0 -1 1 -5 3 -5 -3 -1)
1969/12/31/18:00:14.765000,(1 3 12 22 4 1 0 0)
1969/12/31/18:00:14.778000,(-3 -3 2 7 2 -5 -3 -4)
1969/12/31/18:00:14.779000,(-2 -2 2 -7 -2 1 2 -2)
1969/12/31/18:00:14.785000,(-1 -1 -9 -14 -5 1 -1 1)
1969/12/31/18:00:14.785000,(3 0 -4 -12 -8 -2 1 0)
1969/12/31/18:00:14.802000,(-2 -2 -2 -4 1 0 -2 -2)
1969/12/31/18:00:14.802000,(3 1 0 -1 1 2 3 4)
1969/12/31/18:00:14.804000,(1 0 -2 2 3 1 2 3)
1969/12/31/18:00:14.804000,(-4 -3 -3 -9 -5 -2 -4 -2)
1969/12/31/18:00:14.824000,(-2 0 -6 5 -1 -2 -2 -2)
1969/12/31/18:00:14.824000,(2 -1 -1 7 8 2 1 1)
1969/12/31/18:00:14.826000,(-9 -3 5 -7 -3 -4 -6 -9)
1969/12/31/18:00:14.826000,(1 4 -2 -16 -9 -3 1 3)
1969/12/31/18:00:14.839000,(-1 -4 -8 -5 -3 -2 -1 -1)
1969/12/31/18:00:14.839000,(1 2 12 34 6 -2 -1 1)
1969/12/31/18:00:14.845000,(3 6 6 6 1 4 2 2)
1969/12/31/18:00:14.845000,(-1 -11 -13 -24 3 -4 -1 0)
1969/12/31/18:00:14.862000,(-8 -7 -19 -32 -11 -7 -5 -4)
1969/12/31/18:00:14.862000,(1 2 1 23 16 8 3 2)
1969/12/31/18:00:14.863000,(2 7 34 23 15 7 1 -2)
1969/12/31/18:00:14.863000,(-7 -5 -18 29 -18 -15 -9 -7)
1969/12/31/18:00:14.892000,(8 4 0 -14 -1 1 2 6)
1969/12/31/18:00:14.892000,(-1 -4 -5 4 4 -5 -1 0)
1969/12/31/18:00:14.894000,(-1 -3 -13 -47 -24 -2 1 1)
1969/12/31/18:00:14.894000,(4 5 16 22 20 10 5 1)
1969/12/31/18:00:14.899000,(-1 1 -7 -1 1 3 4 2)
1969/12/31/18:00:14.899000,(3 -4 -20 -35 -30 -10 -3 0)
1969/12/31/18:00:14.905000,(-2 4 22 28 11 5 1 1)
1969/12/31/18:00:14.905000,(7 7 15 90 35 10 1 5)
1969/12/31/18:00:14.922000,(-21 -10 15 5 -1 -2 -8 -13)
1969/12/31/18:00:14.922000,(1 1 -41 -81 -22 -7 -3 0)
1969/12/31/18:00:14.923000,(2 -16 -5 46 33 -6 -5 2)
1969/12/31/18:00:14.923000,(-15 4 29 -54 -36 -11 -11 -16)
1969/12/31/18:00:14.944000,(17 10 -12 81 27 10 11 11)
1969/12/31/18:00:14.944000,(-9 -20 -52 -107 -115 -21 -6 -5)
1969/12/31/18:00:14.946000,(3 7 14 64 47 13 7 6)
1969/12/31/18:00:14.946000,(12 21 56 81 98 47 18 10)
1969/12/31/18:00:14.959000,(-10 -8 29 1 5 -3 -10 -11)
1969/12/31/18:00:14.959000,(-12 -9 7 -83 -27 -9 -8 -9)
1969/12/31/18:00:14.965000,(-3 -7 -45 -74 -66 -21 -4 -3)
1969/12/31/18:00:14.965000,(1 -6 -23 -27 -17 -12 -5 0)
1969/12/31/18:00:14.982000,(-2 -8 -21 -50 -66 -6 -3 -2)
1969/12/31/18:00:14.982000,(2 5 19 -24 56 11 4 3)
1969/12/31/18:00:14.983000,(10 18 34 68 0 10 5 5)
1969/12/31/18:00:14.983000,(-2 -2 -14 -82 -1 -7 -5 -3)
1969/12/31/18:00:15.003000,(-3 -4 14 71 29 7 1 -1)
1969/12/31/18:00:15.003000,(3 2 -2 13 8 9 4 4)
1969/12/31/18:00:15.029000,(1 2 10 -7 25 9 3 0)
1969/12/31/18:00:15.029000,(-12 -9 -19 -30 -55 -22 -10 -9)
1969/12/31/18:00:15.030000,(-1 -8 -34 -128 -71 -23 -6 -2)
1969/12/31/18:00:15.030000,(9 19 64 127 78 19 9 6)
1969/12/31/18:00:15.033000,(0 1 -16 -43 -13 1 2 0)
1969/12/31/18:00:15.033000,(3 -5 -8 -10 -15 6 5 4)
1969/12/31/18:00:15.042000,(-1 -1 -11 -46 22 -10 -6 -3)
1969/12/31/18:00:15.042000,(-1 8 26 73 26 6 2 0)
1969/12/31/18:00:15.043000,(0 1 6 45 7 -2 -3 -3)
1969/12/31/18:00:15.043000,(-1 0 14 36 15 3 2 0)
1969/12/31/18:00:15.064000,(-2 -1 -6 -14 -3 0 1 1)
1969/12/31/18:00:15.064000,(4 -3 -29 -63 -29 -8 0 2)
1969/12/31/18:00:15.070000,(-6 -11 -13 -51 -37 -12 -7 -4)
1969/12/31/18:00:15.070000,(-3 -3 -15 -17 -18 -7 -3 -2)
1969/12/31/18:00:15.087000,(7 9 23 49 31 10 7 3)
1969/12/31/18:00:15.087000,(-2 -4 -8 11 0 -4 -4 -1)
1969/12/31/18:00:15.088000,(-7 -9 -16 -50 -8 -9 -7 -6)
1969/12/31/18:00:15.088000,(0 -2 -1 3 2 0 3 -1)
1969/12/31/18:00:15.102000,(1 3 3 22 5 0 0 1)
1969/12/31/18:00:15.102000,(2 -2 -1 -11 -2 0 1 -1)
1969/12/31/18:00:15.103000,(-2 -1 0 1 1 -2 0 -2)
1969/12/31/18:00:15.103000,(2 -3 -9 -6 -4 1 1 3)
1969/12/31/18:00:15.126000,(-1 0 -3 2 -2 0 1 -1)
1969/12/31/18:00:15.126000,(-9 0 8 15 -1 1 -4 -5)
1969/12/31/18:00:15.127000,(17 9 -5 -11 1 4 3 6)
1969/12/31/18:00:15.127000,(-12 -2 -9 -13 -11 0 -3 -6)
1969/12/31/18:00:15.138000,(5 1 7 -2 1 3 1 4)
1969/12/31/18:00:15.138000,(-2 -2 7 13 7 2 -8 -10)
1969/12/31/18:00:15.171000,(-9 -14 -13 -13 -4 -1 -3 -6)
1969/12/31/18:00:15.171000,(39 14 -13 -24 -11 -6 6 18)
1969/12/31/18:00:15.172000,(-11 14 20 28 16 12 4 -12)
1969/12/31/18:00:15.172000,(-4 -9 -7 5 -6 -7 -3 -3)
1969/12/31/18:00:15.175000,(-19 -3 0 0 1 -6 -1 -2)
1969/12/31/18:00:15.175000,(-22 -12 -5 -10 -8 -6 -2 -5)
1969/12/31/18:00:15.184000,(42 8 8 12 9 6 6 13)
1969/12/31/18:00:15.184000,(1 3 -4 3 0 2 2 3)
1969/12/31/18:00:15.186000,(-5 -7 -4 -11 -4 -3 -7 -6)
1969/12/31/18:00:15.186000,(4 6 0 1 2 4 5 3)
1969/12/31/18:00:15.198000,(-9 -3 -6 -1 -5 -4 -3 2)
1969/12/31/18:00:15.198000,(-1 -3 -4 -11 -4 -1 -3 -4)
1969/12/31/18:00:15.207000,(-18 -1 0 -2 -1 -2 -5 -8)
1969/12/31/18:00:15.207000,(4 1 0 -4 1 8 5 -2)
1969/12/31/18:00:15.222000,(-3 1 2 3 0 -4 -6 -6)
1969/12/31/18:00:15.222000,(-2 2 7 7 5 1 1 -1)
1969/12/31/18:00:15.223000,(7 6 1 2 5 3 6 7)
1969/12/31/18:00:15.223000,(-8 -8 -4 -4 -4 -1 -2 -4)
1969/12/31/18:00:15.244000,(0 -3 -6 -10 -5 -5 -3 -1)
1969/12/31/18:00:15.244000,(2 2 -3 -11 -4 -2 2 4)
1969/12/31/18:00:15.246000,(0 -1 3 -15 -10 -4 -2 -1)
1969/12/31/18:00:15.246000,(-35 -9 9 48 24 0 0 -7)
1969/12/31/18:00:15.258000,(23 3 6 1 4 12 18 26)
1969/12/31/18:00:15.258000,(29 17 2 1 2 -2 -3 0)
1969/12/31/18:00:15.267000,(-43 -22 -10 -13 -13 -18 -29 -43)
1969/12/31/18:00:15.267000,(7 -2 -7 -26 -17 -11 -9 -3)
1969/12/31/18:00:15.282000,(-11 1 4 10 5 5 7 10)
1969/12/31/18:00:15.282000,(-5 -8 -1 4 0 3 4 8)
1969/12/31/18:00:15.283000,(31 13 -1 -14 -2 6 15 20)
1969/12/31/18:00:15.283000,(-15 -9 -1 -13 -4 -5 -10 -13)
1969/12/31/18:00:15.305000,(-11 -4 9 36 8 -5 -8 -10)
1969/12/31/18:00:15.305000,(3 1 1 1 5 0 1 -1)
1969/12/31/18:00:15.306000,(2 -3 -2 9 1 0 -1 2)
1969/12/31/18:00:15.306000,(-1 -4 -1 -4 -1 -4 -2 -6)
1969/12/31/18:00:15.318000,(7 3 -16 -51 -22 -2 3 6)
1969/12/31/18:00:15.318000,(1 -5 -39 -101 -40 -7 0 1)
1969/12/31/18:00:15.327000,(-6 -2 4 94 29 4 0 -2)
1969/12/31/18:00:15.327000,(14 15 54 86 48 15 9 11)
1969/12/31/18:00:15.343000,(-10 -5 4 -6 7 -6 -10 -14)
1969/12/31/18:00:15.343000,(-18 -8 -6 -58 -23 -8 -6 -11)
1969/12/31/18:00:15.344000,(5 -2 2 28 5 2 4 7)
1969/12/31/18:00:15.344000,(10 4 5 27 15 7 0 1)
1969/12/31/18:00:15.364000,(1 3 -6 -42 -13 -2 1 2)
1969/12/31/18:00:15.364000,(-14 -13 -4 36 1 -1 2 1)
1969/12/31/18:00:15.366000,(21 14 -5 -42 -8 1 -4 -3)
1969/12/31/18:00:15.366000,(-8 -10 -12 -14 -13 -7 -5 -5)
1969/12/31/18:00:15.378000,(-3 -1 -12 -31 1 -2 -2 -2)
1969/12/31/18:00:15.378000,(-11 -3 3 0 -11 2 6 -1)
1969/12/31/18:00:15.387000,(13 6 11 3 1 -1 3 12)
1969/12/31/18:00:15.387000,(11 4 -1 -6 2 7 8 10)
1969/12/31/18:00:15.402000,(-11 -17 -52 -101 -29 -13 -13 -13)
1969/12/31/18:00:15.402000,(-3 3 22 89 14 8 7 5)
1969/12/31/18:00:15.403000,(20 5 23 33 5 3 12 18)
1969/12/31/18:00:15.403000,(-10 -3 -10 -68 -31 -13 -9 -13)
1969/12/31/18:00:15.448000,(-4 -4 26 123 16 1 -2 -2)
1969/12/31/18:00:15.448000,(9 16 47 97 62 20 7 0)
1969/12/31/18:00:15.450000,(-10 -1 -4 -25 26 8 0 -5)
1969/12/31/18:00:15.450000,(8 -1 -20 -40 -29 -11 -1 6)
1969/12/31/18:00:15.450000,(-10 -8 -12 -40 -14 -10 -5 -8)
1969/12/31/18:00:15.450000,(-20 -13 -16 -20 -14 -8 -5 -6)
1969/12/31/18:00:15.454000,(39 11 -11 -23 -15 -3 0 16)
1969/12/31/18:00:15.454000,(-30 -16 -28 -54 -29 -31 -41 -49)
1969/12/31/18:00:15.462000,(-16 -10 3 9 2 7 5 5)
1969/12/31/18:00:15.462000,(46 15 13 45 17 5 9 23)
1969/12/31/18:00:15.463000,(-45 -21 -23 -68 -22 -5 -9 -28)
1969/12/31/18:00:15.463000,(7 0 -20 -14 -1 6 9 14)
1969/12/31/18:00:15.484000,(3 4 27 71 29 5 2 1)
1969/12/31/18:00:15.484000,(-6 1 27 28 -6 -4 -12 -11)
1969/12/31/18:00:15.486000,(6 4 5 9 9 1 7 6)
1969/12/31/18:00:15.486000,(9 2 13 38 6 3 4 9)
1969/12/31/18:00:15.498000,(-7 -3 -13 -18 -12 -4 -6 -9)
1969/12/31/18:00:15.498000,(7 1 -11 -30 8 5 8 12)
1969/12/31/18:00:15.507000,(0 2 -2 7 5 1 -4 -1)
1969/12/31/18:00:15.507000,(-56 -14 -4 -5 7 8 2 -17)
1969/12/31/18:00:15.522000,(63 26 11 8 9 21 18 37)
1969/12/31/18:00:15.522000,(-2 -2 -12 -32 -10 -7 -9 -12)
1969/12/31/18:00:15.523000,(-11 -10 -10 -16 -20 -9 -6 -12)
1969/12/31/18:00:15.524000,(-18 -6 0 1 0 4 5 3)
1969/12/31/18:00:15.544000,(-37 -6 0 5 -2 -7 -14 -42)
1969/12/31/18:00:15.544000,(48 16 7 2 4 1 4 47)
1969/12/31/18:00:15.546000,(-62 -36 -18 -20 -23 -27 -44 -67)
1969/12/31/18:00:15.546000,(11 3 9 17 13 22 38 21)
1969/12/31/18:00:15.558000,(15 16 11 7 6 13 25 24)
1969/12/31/18:00:15.558000,(-6 -8 -13 -28 -11 -7 -7 -12)
1969/12/31/18:00:15.583000,(-8 -2 0 -1 -5 -6 -3 1)
1969/12/31/18:00:15.583000,(36 14 5 0 7 4 6 21)
1969/12/31/18:00:15.584000,(-17 -11 -4 21 12 0 -14 -24)
1969/12/31/18:00:15.584000,(-18 -3 2 13 7 -17 -48 -27)
1969/12/31/18:00:15.588000,(2 1 -2 -17 -20 -14 -9 -3)
1969/12/31/18:00:15.588000,(12 2 -9 -36 -11 21 53 26)
1969/12/31/18:00:15.604000,(32 18 19 48 29 30 50 55)
1969/12/31/18:00:15.604000,(6 -2 1 -1 12 -5 -30 -7)
1969/12/31/18:00:15.606000,(-32 -9 4 20 -8 -34 -76 -67)
1969/12/31/18:00:15.606000,(6 10 -2 -19 -12 -34 -22 -15)
1969/12/31/18:00:15.618000,(-2 -9 -12 -31 -6 47 86 40)
1969/12/31/18:00:15.618000,(30 12 -1 -4 10 58 113 88)
1969/12/31/18:00:15.627000,(29 10 8 1 15 34 36 44)
1969/12/31/18:00:15.627000,(-10 -5 -2 8 -6 -24 -69 -36)
1969/12/31/18:00:15.641000,(-24 -8 -4 -12 -17 -55 -103 -68)
1969/12/31/18:00:15.641000,(-42 -15 -8 2 -9 -25 -25 -47)
1969/12/31/18:00:15.648000,(14 10 5 2 17 29 39 37)
1969/12/31/18:00:15.648000,(-3 -1 3 14 3 -6 -14 -12)
1969/12/31/18:00:15.672000,(0 2 3 3 -10 -19 -21 -5)
1969/12/31/18:00:15.672000,(-13 -5 -7 -20 -11 -22 -42 -30)
1969/12/31/18:00:15.673000,(7 6 3 5 15 33 67 29)
1969/12/31/18:00:15.673000,(28 10 9 18 11 23 17 35)
1969/12/31/18:00:15.688000,(-11 -12 -12 -21 -12 -15 -33 -22)
1969/12/31/18:00:15.688000,(-41 -3 5 -2 1 -1 2 -30)
1969/12/31/18:00:15.690000,(14 8 -1 1 2 -2 11 15)
1969/12/31/18:00:15.690000,(4 -5 -1 9 4 11 27 15)
1969/12/31/18:00:15.726000,(-10 -4 -3 -9 -7 -9 -23 -10)
1969/12/31/18:00:15.726000,(6 0 -1 -1 6 18 41 14)
1969/12/31/18:00:15.727000,(19 7 5 7 4 5 9 23)
1969/12/31/18:00:15.727000,(0 0 -1 0 -2 -3 -18 -23)
1969/12/31/18:00:15.728000,(4 1 -2 -6 -5 -13 -17 5)
1969/12/31/18:00:15.728000,(-2 1 -5 -2 -6 -13 -24 -20)
1969/12/31/18:00:15.740000,(-10 -9 -5 -3 -2 -4 -5 -8)
1969/12/31/18:00:15.740000,(13 7 1 2 -2 -3 -2 10)
1969/12/31/18:00:15.741000,(-2 3 1 -1 -1 -9 -15 -21)
1969/12/31/18:00:15.741000,(-4 -6 -4 -1 -2 6 11 4)
1969/12/31/18:00:15.747000,(-18 -14 -5 -6 -6 -2 -6 -1)
1969/12/31/18:00:15.747000,(4 6 3 7 5 4 1 3)
1969/12/31/18:00:15.761000,(-4 1 5 7 1 0 4 -2)
1969/12/31/18:00:15.761000,(4 -4 -10 -13 -7 -6 -4 -8)
1969/12/31/18:00:15.768000,(-3 -3 2 2 -1 -3 -3 7)
1969/12/31/18:00:15.768000,(30 13 -3 -2 -6 -4 -6 0)
1969/12/31/18:00:15.783000,(-14 -3 -2 -3 0 0 10 0)
1969/12/31/18:00:15.783000,(-10 -4 -1 -2 0 -2 -12 -7)
1969/12/31/18:00:15.792000,(7 2 -4 -6 4 -4 -8 -6)
1969/12/31/18:00:15.792000,(-9 -9 0 0 -12 -3 -3 1)
1969/12/31/18:00:15.807000,(1 -2 -6 -22 -5 0 7 2)
1969/12/31/18:00:15.807000,(13 6 -2 17 2 3 4 10)
1969/12/31/18:00:15.808000,(1 4 5 11 8 2 -3 -3)
1969/12/31/18:00:15.808000,(-4 1 17 42 10 5 5 3)
1969/12/31/18:00:15.821000,(-8 -7 -7 -25 -16 -7 -8 -9)
1969/12/31/18:00:15.821000,(0 -2 2 -3 0 -1 2 2)
1969/12/31/18:00:15.828000,(13 6 -3 -3 5 7 12 15)
1969/12/31/18:00:15.828000,(-9 3 -9 -9 0 -3 -11 -28)
1969/12/31/18:00:15.860000,(66 35 14 7 10 15 28 63)
1969/12/31/18:00:15.860000,(-12 -14 -17 -29 -12 -10 -11 -13)
1969/12/31/18:00:15.861000,(11 1 -20 -34 -14 -4 -3 2)
1969/12/31/18:00:15.861000,(-11 -12 -10 -26 -3 0 1 -1)
1969/12/31/18:00:15.862000,(-4 -1 11 38 2 7 15 8)
1969/12/31/18:00:15.862000,(6 9 22 38 11 -2 -2 2)
1969/12/31/18:00:15.873000,(-15 -7 1 -2 1 -4 -11 -11)
1969/12/31/18:00:15.873000,(-5 -7 -3 10 23 4 6 8)
1969/12/31/18:00:15.882000,(-8 -3 4 28 -20 -1 -2 -11)
1969/12/31/18:00:15.882000,(2 -3 -4 -34 24 3 -1 6)
1969/12/31/18:00:15.890000,(-4 -1 16 62 -5 1 -1 -6)
1969/12/31/18:00:15.890000,(-13 -9 -28 -109 -58 -13 -8 -8)
1969/12/31/18:00:15.904000,(7 2 -4 69 21 -2 0 0)
1969/12/31/18:00:15.904000,(3 6 7 -30 11 12 11 5)
1969/12/31/18:00:15.906000,(-16 -8 -1 29 8 -18 -25 -23)
1969/12/31/18:00:15.906000,(2 1 11 29 6 8 8 7)
1969/12/31/18:00:15.927000,(-15 -8 -11 -104 -3 -6 -10 -14)
1969/12/31/18:00:15.927000,(7 8 -10 0 -36 1 13 17)
1969/12/31/18:00:15.928000,(37 19 13 20 27 11 16 32)
1969/12/31/18:00:15.928000,(-10 -11 -12 -28 -17 -7 -6 -4)
1969/12/31/18:00:15.941000,(-35 -25 2 13 -22 -7 -14 -29)
1969/12/31/18:00:15.941000,(-5 -2 8 26 6 -10 -5 -5)
1969/12/31/18:00:15.948000,(9 7 -13 -3 -16 -8 4 10)
1969/12/31/18:00:15.948000,(5 17 37 49 44 11 0 2)
1969/12/31/18:00:15.964000,(15 7 -11 -2 32 32 22 15)
1969/12/31/18:00:15.964000,(3 -3 7 51 -19 2 -7 -3)
1969/12/31/18:00:15.966000,(-33 -18 -6 -70 -15 -12 -20 -28)
1969/12/31/18:00:15.966000,(-2 -4 -6 5 14 -8 -3 -1)
1969/12/31/18:00:16.003000,(-7 -8 -21 -46 15 -6 -1 -2)
1969/12/31/18:00:16.003000,(-5 -7 -11 -11 -21 -4 -5 -4)
1969/12/31/18:00:16.004000,(2 -1 13 63 -25 5 6 1)
1969/12/31/18:00:16.004000,(2 6 6 19 6 -4 1 2)
1969/12/31/18:00:16.005000,(4 6 5 -16 18 0 0 2)
1969/12/31/18:00:16.005000,(0 -5 -17 -42 -37 -4 -5 -3)
1969/12/31/18:00:16.009000,(7 6 12 -10 7 5 6 8)
1969/12/31/18:00:16.009000,(-7 -5 3 13 2 -5 -7 -9)
1969/12/31/18:00:16.024000,(-4 -8 -19 5 -11 -9 -4 -3)
1969/12/31/18:00:16.024000,(-9 -9 -8 -3 17 -5 -4 -6)
1969/12/31/18:00:16.026000,(4 3 -7 -24 0 8 6 5)
1969/12/31/18:00:16.026000,(0 -1 14 58 12 8 5 5)
1969/12/31/18:00:16.047000,(22 8 6 -32 -17 -4 7 17)
1969/12/31/18:00:16.047000,(-20 -1 11 28 20 -4 -11 -22)
1969/12/31/18:00:16.049000,(-1 -1 -1 -11 -16 -4 -9 -10)
1969/12/31/18:00:16.049000,(-5 -9 -10 14 7 -3 -4 -2)
1969/12/31/18:00:16.069000,(17 9 10 2 7 -6 -4 2)
1969/12/31/18:00:16.069000,(6 10 11 9 -1 11 10 7)
1969/12/31/18:00:16.071000,(-16 -12 -15 -41 -17 -9 -14 -16)
1969/12/31/18:00:16.071000,(-4 -5 -8 -15 -4 -2 -1 -2)
1969/12/31/18:00:16.084000,(-11 -5 -4 1 -9 -8 -11 -12)
1969/12/31/18:00:16.084000,(8 5 10 25 18 -1 0 1)
1969/12/31/18:00:16.086000,(17 13 -2 10 11 1 6 17)
1969/12/31/18:00:16.086000,(-10 8 4 -27 -9 7 4 -6)
1969/12/31/18:00:16.107000,(-5 -4 0 19 -7 -5 -6 -4)
1969/12/31/18:00:16.107000,(2 6 -2 -12 4 0 2 0)
1969/12/31/18:00:16.109000,(4 -2 -1 -3 6 0 3 3)
1969/12/31/18:00:16.109000,(-54 -35 -12 -11 -20 -15 -16 -24)
1969/12/31/18:00:16.146000,(-2 -4 1 20 9 9 10 6)
1969/12/31/18:00:16.146000,(60 31 -1 -8 5 6 16 33)
1969/12/31/18:00:16.147000,(-8 -5 -2 -4 3 -1 -6 -12)
1969/12/31/18:00:16.147000,(3 -4 -1 -1 -7 -7 -4 7)
1969/12/31/18:00:16.148000,(-53 -25 -2 5 -8 -8 -15 -44)
1969/12/31/18:00:16.148000,(60 20 1 -15 2 5 13 37)
1969/12/31/18:00:16.152000,(-4 -1 2 11 13 6 3 2)
1969/12/31/18:00:16.152000,(16 4 -5 -6 -4 0 -3 -5)
1969/12/31/18:00:16.167000,(-7 -6 -3 4 -5 -4 -1 6)
1969/12/31/18:00:16.167000,(-4 -2 1 -1 2 1 1 1)
1969/12/31/18:00:16.168000,(-31 -5 -1 -8 -5 -3 4 -2)
1969/12/31/18:00:16.168000,(83 37 5 5 18 29 49 84)
1969/12/31/18:00:16.181000,(-26 -13 1 -5 -8 -11 -21 -35)
1969/12/31/18:00:16.181000,(-25 -15 -9 -18 -6 0 0 -4)
1969/12/31/18:00:16.190000,(7 -1 -6 -11 1 2 3 7)
1969/12/31/18:00:16.190000,(-3 4 15 15 6 8 6 3)
1969/12/31/18:00:16.204000,(18 12 13 23 3 3 7 13)
1969/12/31/18:00:16.204000,(-32 -22 -5 2 7 1 -2 -7)
1969/12/31/18:00:16.206000,(18 3 2 -6 -4 -3 3 10)
1969/12/31/18:00:16.206000,(-24 -22 -24 -19 -10 -10 -12 -26)
1969/12/31/18:00:16.227000,(67 35 7 5 8 9 17 35)
1969/12/31/18:00:16.227000,(-42 -24 -6 1 -19 -36 -42 -48)
1969/12/31/18:00:16.228000,(33 22 13 14 18 23 27 30)
1969/12/31/18:00:16.228000,(-19 -8 -8 -6 -6 -8 -13 -19)
1969/12/31/18:00:16.241000,(-8 -10 -12 -26 -11 -1 -1 1)
1969/12/31/18:00:16.241000,(-5 0 0 -6 6 9 9 5)
1969/12/31/18:00:16.249000,(-5 -2 2 8 -6 -4 -8 -14)
1969/12/31/18:00:16.249000,(-7 1 16 24 5 0 -3 -7)
1969/12/31/18:00:16.280000,(16 10 6 15 6 7 9 12)
1969/12/31/18:00:16.280000,(12 5 -10 -9 5 6 6 9)
1969/12/31/18:00:16.281000,(34 13 -14 -24 -15 -14 -11 2)
1969/12/31/18:00:16.281000,(-34 -15 -7 -6 -4 -1 -3 -18)
1969/12/31/18:00:16.294000,(32 18 1 0 -2 2 6 10)
1969/12/31/18:00:16.294000,(-36 -9 6 4 -1 -5 -13 -23)
1969/12/31/18:00:16.296000,(0 9 6 5 2 6 11 16)
1969/12/31/18:00:16.296000,(35 10 -1 -8 -2 -3 5 16)
1969/12/31/18:00:16.300000,(35 23 5 2 -2 1 3 16)
1969/12/31/18:00:16.300000,(-12 -10 -7 7 -5 -3 2 0)
1969/12/31/18:00:16.309000,(-26 -20 -5 -3 -1 -8 -15 -22)
1969/12/31/18:00:16.309000,(-11 -7 0 -4 -5 -10 -9 -3)
1969/12/31/18:00:16.324000,(-44 -27 7 12 1 -8 -19 -34)
1969/12/31/18:00:16.324000,(45 19 -5 6 8 14 13 17)
1969/12/31/18:00:16.326000,(18 -1 1 9 10 15 13 10)
1969/12/31/18:00:16.326000,(-1 -4 -8 -12 -8 -5 -3 1)
1969/12/31/18:00:16.347000,(-37 -20 -5 -7 -8 -10 -15 -24)
1969/12/31/18:00:16.347000,(-21 -12 7 -9 -11 -8 -2 -1)
1969/12/31/18:00:16.348000,(28 9 -8 9 14 12 8 7)
1969/12/31/18:00:16.348000,(18 21 8 7 12 16 13 15)
1969/12/31/18:00:16.360000,(-21 -13 -1 2 -1 -2 -2 -11)
1969/12/31/18:00:16.360000,(-8 -1 3 -3 -4 0 4 6)
1969/12/31/18:00:16.369000,(-38 -14 2 -8 -8 -9 -14 -20)
1969/12/31/18:00:16.369000,(2 -3 -6 -8 -4 -3 -2 -1)
1969/12/31/18:00:16.383000,(26 19 8 27 13 11 16 27)
1969/12/31/18:00:16.383000,(-20 -6 5 1 0 -7 -15 -24)
1969/12/31/18:00:16.392000,(-9 -7 -9 -7 1 -12 -11 -9)
1969/12/31/18:00:16.392000,(13 8 0 2 -17 -2 1 3)
1969/12/31/18:00:16.413000,(4 8 -1 3 1 1 -5 -1)
1969/12/31/18:00:16.413000,(59 53 17 22 24 11 21 41)
1969/12/31/18:00:16.423000,(-39 -18 -1 3 3 14 21 -12)
1969/12/31/18:00:16.423000,(11 7 -2 -13 -7 -9 -10 -3)
1969/12/31/18:00:16.424000,(19 -1 -4 -19 6 21 30 20)
1969/12/31/18:00:16.424000,(-15 9 -7 -6 -9 -3 -11 -12)
1969/12/31/18:00:16.430000,(-27 -21 -5 -3 -9 -24 -33 -32)
1969/12/31/18:00:16.430000,(0 16 9 10 7 14 16 8)
1969/12/31/18:00:16.444000,(-15 -20 4 -7 4 0 7 20)
1969/12/31/18:00:16.444000,(0 -11 -6 -2 -3 2 -2 -4)
1969/12/31/18:00:16.446000,(8 4 3 -4 -8 1 8 16)
1969/12/31/18:00:16.446000,(-23 -13 -5 14 11 -1 -9 -21)
1969/12/31/18:00:16.467000,(-3 -1 -17 -40 -21 -12 -9 -2)
1969/12/31/18:00:16.467000,(0 -9 -9 -24 1 6 10 7)
1969/12/31/18:00:16.468000,(-11 -2 27 59 23 -1 -9 -9)
1969/12/31/18:00:16.468000,(64 34 24 39 -6 -2 2 26)
1969/12/31/18:00:16.481000,(16 16 10 42 25 8 7 9)
1969/12/31/18:00:16.481000,(-44 -36 -10 -13 -6 -1 -12 -30)
1969/12/31/18:00:16.489000,(78 63 -1 -29 3 11 27 58)
1969/12/31/18:00:16.490000,(-41 -39 -26 -32 -12 -22 -37 -51)
1969/12/31/18:00:16.504000,(-54 -20 -6 -17 -12 2 -1 -35)
1969/12/31/18:00:16.504000,(52 29 -1 -9 -11 -5 0 25)
1969/12/31/18:00:16.506000,(2 -5 -11 -10 -14 -12 -15 -8)
1969/12/31/18:00:16.506000,(-28 -8 -7 -31 32 12 12 0)
1969/12/31/18:00:16.527000,(57 28 4 6 1 5 10 25)
1969/12/31/18:00:16.527000,(9 -5 10 21 -68 -28 -27 -25)
1969/12/31/18:00:16.529000,(-15 -12 -5 -12 -19 -19 -11 -12)
1969/12/31/18:00:16.529000,(11 6 11 35 24 12 17 10)
1969/12/31/18:00:16.557000,(-28 -13 9 48 50 19 -2 -19)
1969/12/31/18:00:16.557000,(34 22 21 19 86 41 45 62)
1969/12/31/18:00:16.559000,(-25 -22 -11 -17 -45 -9 -21 -35)
1969/12/31/18:00:16.559000,(-9 7 -10 -16 -23 -8 -11 -30)
1969/12/31/18:00:16.564000,(-38 -17 -11 -35 -45 -48 -64 -40)
1969/12/31/18:00:16.564000,(-13 -12 -14 -8 -7 6 27 0)
1969/12/31/18:00:16.566000,(-37 -34 -12 -17 23 32 49 25)
1969/12/31/18:00:16.566000,(11 15 -2 -15 -23 -27 -23 0)
1969/12/31/18:00:16.587000,(5 -3 2 14 6 11 7 1)
1969/12/31/18:00:16.587000,(-21 -14 -8 -7 -12 -14 -27 -28)
1969/12/31/18:00:16.588000,(-9 -2 -6 -9 1 -9 -19 -22)
1969/12/31/18:00:16.588000,(1 -12 0 10 5 8 9 10)
1969/12/31/18:00:16.601000,(8 2 -13 -49 -24 -20 -25 2)
1969/12/31/18:00:16.601000,(-14 -7 -2 9 1 -6 17 -4)
1969/12/31/18:00:16.617000,(-10 -6 24 63 37 25 27 18)
1969/12/31/18:00:16.617000,(38 13 7 9 4 14 8 16)
1969/12/31/18:00:16.623000,(18 4 -3 -4 -19 -36 -36 -1)
1969/12/31/18:00:16.623000,(-40 -29 -6 -10 4 -7 -22 -13)
1969/12/31/18:00:16.631000,(-27 -12 -10 -13 -11 -18 -29 -33)
1969/12/31/18:00:16.631000,(-11 -10 -14 -33 -14 -9 -5 -1)
1969/12/31/18:00:16.646000,(22 12 2 11 12 19 28 20)
1969/12/31/18:00:16.646000,(9 5 4 6 3 1 -10 7)
1969/12/31/18:00:16.647000,(12 10 -3 9 -15 -33 -37 -33)
1969/12/31/18:00:16.647000,(-13 -19 -28 -58 0 16 42 24)
1969/12/31/18:00:16.668000,(-14 -4 1 -14 -17 9 17 -3)
1969/12/31/18:00:16.668000,(-1 8 32 53 1 13 3 -5)
1969/12/31/18:00:16.669000,(-38 -15 6 28 22 -2 -23 -35)
1969/12/31/18:00:16.669000,(37 24 15 25 6 -10 1 27)
1969/12/31/18:00:16.691000,(3 4 3 1 17 17 32 18)
1969/12/31/18:00:16.692000,(29 14 -12 -32 -9 0 6 18)
1969/12/31/18:00:16.692000,(23 25 -1 -18 -14 -2 -6 22)
1969/12/31/18:00:16.692000,(-70 -33 -11 -4 -9 -19 -28 -57)
1969/12/31/18:00:16.706000,(5 8 -1 1 4 15 23 18)
1969/12/31/18:00:16.706000,(-20 -14 -7 -2 -9 -19 -19 -22)
1969/12/31/18:00:16.707000,(27 12 8 -6 18 19 19 20)
1969/12/31/18:00:16.707000,(-8 -11 -1 17 -9 -11 -25 -13)
1969/12/31/18:00:16.728000,(-4 0 -4 -15 1 -4 -5 -10)
1969/12/31/18:00:16.728000,(-18 -22 -10 -29 -10 0 5 -9)
1969/12/31/18:00:16.729000,(-8 6 9 34 2 10 4 -7)
1969/12/31/18:00:16.729000,(-29 3 9 28 9 -15 -34 -49)
1969/12/31/18:00:16.745000,(-22 -15 -4 11 -1 -7 -11 -19)
1969/12/31/18:00:16.745000,(7 8 -7 -15 9 7 10 8)
1969/12/31/18:00:16.746000,(-2 -11 -23 -55 -31 -3 5 5)
1969/12/31/18:00:16.746000,(37 23 12 16 10 9 16 32)
1969/12/31/18:00:16.766000,(-37 -6 14 27 28 20 17 -1)
1969/12/31/18:00:16.766000,(-22 -16 -11 -12 -16 -19 -17 -17)
1969/12/31/18:00:16.767000,(22 11 10 -1 5 5 17 27)
1969/12/31/18:00:16.767000,(-2 -6 -6 -13 -3 4 3 2)
1969/12/31/18:00:16.788000,(-9 -10 2 4 6 -4 -4 -6)
1969/12/31/18:00:16.788000,(14 9 1 10 7 3 -2 1)
1969/12/31/18:00:16.789000,(12 18 13 20 0 11 16 12)
1969/12/31/18:00:16.789000,(61 25 -1 -17 -14 1 20 51)
1969/12/31/18:00:16.803000,(6 -7 -15 -13 5 4 6 8)
1969/12/31/18:00:16.803000,(-2 0 10 26 2 0 -4 -3)
1969/12/31/18:00:16.804000,(4 -10 -10 -17 -1 -4 0 4)
1969/12/31/18:00:16.804000,(-21 -15 3 4 -1 0 1 -9)
1969/12/31/18:00:16.835000,(17 8 -2 4 -5 2 11 20)
1969/12/31/18:00:16.835000,(5 -17 -5 -13 -2 -9 -8 4)
1969/12/31/18:00:16.836000,(28 17 3 16 6 10 14 25)
1969/12/31/18:00:16.836000,(-32 -15 9 0 -4 -5 -15 -24)
1969/12/31/18:00:16.849000,(1 -4 -3 0 4 1 -5 -1)
1969/12/31/18:00:16.849000,(-8 0 1 15 7 2 1 -3)
1969/12/31/18:00:16.849000,(-24 -13 -7 -22 6 -14 -18 -25)
1969/12/31/18:00:16.849000,(9 -2 -5 5 12 14 13 13)
1969/12/31/18:00:16.863000,(2 7 3 -7 -22 -7 -7 -7)
1969/12/31/18:00:16.863000,(1 1 -9 -11 -4 -3 0 -2)
1969/12/31/18:00:16.871000,(8 3 4 -5 -17 -9 -4 1)
1969/12/31/18:00:16.871000,(-11 -6 -5 7 4 4 9 3)
1969/12/31/18:00:16.886000,(-8 -5 3 -17 27 1 -7 -12)
1969/12/31/18:00:16.886000,(-3 5 5 2 -36 -3 0 0)
1969/12/31/18:00:16.887000,(-12 -6 5 10 0 -1 -9 -13)
1969/12/31/18:00:16.887000,(-7 -3 -12 16 32 8 2 -1)
1969/12/31/18:00:16.909000,(2 1 9 7 2 -3 -4 -2)
1969/12/31/18:00:16.909000,(5 5 3 19 14 3 0 1)
1969/12/31/18:00:16.909000,(0 -3 -19 -103 -41 1 6 7)
1969/12/31/18:00:16.909000,(-6 -3 -4 -3 -24 -2 -1 1)
1969/12/31/18:00:16.923000,(11 11 15 68 15 -7 -3 2)
1969/12/31/18:00:16.924000,(-19 -6 6 26 19 -8 -14 -22)
1969/12/31/18:00:16.924000,(-5 -9 -17 -8 -6 -13 -6 -5)
1969/12/31/18:00:16.924000,(0 -3 4 -3 5 6 7 5)
1969/12/31/18:00:16.946000,(4 1 -10 -67 -30 0 4 4)
1969/12/31/18:00:16.946000,(5 8 7 17 12 5 4 1)
1969/12/31/18:00:16.947000,(-6 -5 -2 0 -3 1 -2 -2)
1969/12/31/18:00:16.947000,(2 2 1 -12 -9 0 2 1)
1969/12/31/18:00:16.969000,(-11 -6 2 53 10 -7 -11 -12)
1969/12/31/18:00:16.969000,(4 4 -5 -22 -2 0 1 2)
1969/12/31/18:00:16.970000,(2 -3 -5 -2 16 2 0 -1)
1969/12/31/18:00:16.970000,(1 1 12 26 11 6 1 1)
1969/12/31/18:00:16.984000,(1 3 9 -9 -15 -1 -1 -3)
1969/12/31/18:00:16.984000,(-11 -2 10 42 20 0 -6 -10)
1969/12/31/18:00:16.984000,(6 3 0 -9 -7 0 4 6)
1969/12/31/18:00:16.984000,(-6 -3 -8 -8 -18 -11 -7 -7)
1969/12/31/18:00:17.006000,(-3 -9 -31 -42 -17 -3 2 0)
1969/12/31/18:00:17.006000,(4 -6 -32 -93 -6 4 4 6)
1969/12/31/18:00:17.007000,(6 4 2 -15 3 3 2 5)
1969/12/31/18:00:17.007000,(-6 3 42 105 16 0 -3 -7)
1969/12/31/18:00:17.029000,(-3 5 38 45 20 2 -6 -8)
1969/12/31/18:00:17.029000,(0 -2 -10 -47 -12 2 0 2)
1969/12/31/18:00:17.029000,(-5 -4 -5 11 2 -4 -4 -3)
1969/12/31/18:00:17.029000,(0 -6 -40 -95 -16 -2 1 3)
1969/12/31/18:00:17.044000,(4 -3 -26 -58 -33 -1 4 4)
1969/12/31/18:00:17.044000,(3 11 42 104 23 11 6 2)
1969/12/31/18:00:17.044000,(0 4 29 76 25 -2 -5 -3)
1969/12/31/18:00:17.044000,(-6 -7 -14 -8 35 -2 -5 -4)
1969/12/31/18:00:17.066000,(-5 -7 -8 -4 -32 -12 -6 -3)
1969/12/31/18:00:17.066000,(-4 -7 -32 -61 -26 -11 -2 -3)
1969/12/31/18:00:17.067000,(-1 -8 -39 -56 -11 0 2 2)
1969/12/31/18:00:17.067000,(5 5 5 77 -26 3 6 4)
1969/12/31/18:00:17.113000,(3 16 59 74 54 13 3 3)
1969/12/31/18:00:17.113000,(0 -2 12 67 10 5 1 1)
1969/12/31/18:00:17.114000,(1 11 52 68 37 1 -3 -1)
1969/12/31/18:00:17.114000,(-6 -8 -27 -120 -17 -7 -4 -6)
1969/12/31/18:00:17.116000,(-1 -9 -38 -65 -31 -6 1 0)
1969/12/31/18:00:17.116000,(1 0 -3 -32 -9 -3 1 2)
1969/12/31/18:00:17.119000,(-2 -4 -27 -47 -29 -4 1 -2)
1969/12/31/18:00:17.119000,(5 3 21 92 29 1 1 2)
1969/12/31/18:00:17.126000,(-6 1 13 52 24 -1 -8 -6)
1969/12/31/18:00:17.126000,(1 4 3 -8 5 2 -2 -1)
1969/12/31/18:00:17.127000,(0 -2 -10 -41 -19 0 0 -1)
1969/12/31/18:00:17.127000,(2 0 -16 -119 -49 -3 1 1)
1969/12/31/18:00:17.149000,(6 -3 -18 11 16 1 3 4)
1969/12/31/18:00:17.149000,(-8 -2 36 75 29 4 -4 -9)
1969/12/31/18:00:17.150000,(-7 -14 -46 -83 -47 -13 -8 -6)
1969/12/31/18:00:17.150000,(3 8 51 127 80 18 8 3)
1969/12/31/18:00:17.164000,(2 2 -13 -35 -2 3 3 3)
1969/12/31/18:00:17.164000,(0 -3 -18 -39 -11 -3 2 2)
1969/12/31/18:00:17.165000,(-6 0 18 9 -2 -4 -3 -6)
1969/12/31/18:00:17.165000,(-1 -2 -12 -61 -29 -6 -4 -1)
1969/12/31/18:00:17.186000,(3 2 -7 -27 -19 -2 1 2)
1969/12/31/18:00:17.186000,(8 4 -4 0 4 6 5 5)
1969/12/31/18:00:17.187000,(-5 -3 8 27 0 -5 -6 -6)
1969/12/31/18:00:17.187000,(-6 -3 -17 -62 -11 -2 -1 -2)
1969/12/31/18:00:17.209000,(6 6 26 64 22 9 5 2)
1969/12/31/18:00:17.209000,(-8 -7 -17 -1 -5 -8 -5 -7)
1969/12/31/18:00:17.209000,(9 0 4 37 32 11 7 8)
1969/12/31/18:00:17.209000,(-9 -5 -5 -26 -11 -9 -5 -8)
1969/12/31/18:00:17.224000,(1 2 -8 -12 -17 0 4 2)
1969/12/31/18:00:17.224000,(0 -3 2 -14 1 3 0 0)
1969/12/31/18:00:17.224000,(-1 3 15 39 14 0 -1 -2)
1969/12/31/18:00:17.224000,(5 1 -3 9 4 6 1 3)
1969/12/31/18:00:17.247000,(-10 -13 -5 -24 -7 -9 -9 -8)
1969/12/31/18:00:17.247000,(0 3 -16 -48 -33 -7 -2 1)
1969/12/31/18:00:17.249000,(8 9 17 59 37 8 4 5)
1969/12/31/18:00:17.249000,(-6 -6 -1 -12 -11 -5 -4 -4)
1969/12/31/18:00:17.269000,(-1 0 2 5 2 -2 0 -3)
1969/12/31/18:00:17.269000,(0 -1 2 -5 -2 -7 -2 -2)
1969/12/31/18:00:17.270000,(-2 -4 -9 -10 -10 -1 1 -2)
1969/12/31/18:00:17.270000,(3 3 0 8 -1 2 -2 0)
1969/12/31/18:00:17.284000,(2 0 -6 -1 -1 -1 1 1)
1969/12/31/18:00:17.284000,(-5 -3 -6 -35 -12 -2 -5 -6)
1969/12/31/18:00:17.285000,(3 8 12 38 7 3 0 1)
1969/12/31/18:00:17.285000,(7 3 -3 12 1 1 4 4)
1969/12/31/18:00:17.306000,(-13 -10 -10 -18 -5 -4 -8 -7)
1969/12/31/18:00:17.306000,(-1 8 14 7 1 -2 -3 -4)
1969/12/31/18:00:17.307000,(4 -5 -15 -50 -12 0 8 8)
1969/12/31/18:00:17.307000,(7 9 32 100 36 5 3 4)
1969/12/31/18:00:17.329000,(-6 -5 2 -8 2 -7 -5 -5)
1969/12/31/18:00:17.329000,(-3 -8 -9 2 8 -3 0 0)
1969/12/31/18:00:17.330000,(-5 0 0 -16 -9 -4 -6 -7)
1969/12/31/18:00:17.330000,(-1 -1 -15 -39 -23 1 2 2)
1969/12/31/18:00:17.344000,(4 1 -3 -12 -8 1 1 1)
1969/12/31/18:00:17.344000,(7 7 12 24 8 7 4 5)
1969/12/31/18:00:17.344000,(-2 0 0 5 -3 -2 0 -1)
1969/12/31/18:00:17.345000,(0 -1 -3 -21 -4 -1 -3 -5)
1969/12/31/18:00:17.391000,(0 4 7 17 14 7 1 2)
1969/12/31/18:00:17.391000,(-1 0 -6 -11 -3 3 1 0)
1969/12/31/18:00:17.392000,(2 2 3 10 4 5 2 2)
1969/12/31/18:00:17.392000,(-3 -2 -1 -5 -6 -2 -2 -2)
1969/12/31/18:00:17.393000,(-1 2 -4 -17 -6 -3 -2 -2)
1969/12/31/18:00:17.393000,(4 0 -2 -1 2 2 4 4)
1969/12/31/18:00:17.396000,(-2 -1 1 -3 -3 2 1 -1)
1969/12/31/18:00:17.396000,(2 -3 -8 -11 -4 3 2 0)
1969/12/31/18:00:17.411000,(-2 -1 -1 -10 1 2 0 -1)
1969/12/31/18:00:17.411000,(4 5 12 29 -3 0 0 3)
1969/12/31/18:00:17.428000,(-3 0 8 28 26 3 -1 -3)
1969/12/31/18:00:17.428000,(-5 -4 -6 -28 -13 -5 -4 -3)
1969/12/31/18:00:17.431000,(-2 -4 -4 -6 -5 -6 -2 0)
1969/12/31/18:00:17.431000,(-3 0 -3 -20 4 1 1 1)
1969/12/31/18:00:17.441000,(1 -2 -3 0 -3 -2 -1 3)
1969/12/31/18:00:17.441000,(-6 -3 2 6 2 -5 1 -2)
1969/12/31/18:00:17.449000,(-1 -3 -4 1 -5 -7 1 -1)
1969/12/31/18:00:17.449000,(-4 -4 -5 -1 -2 -10 -3 -5)
1969/12/31/18:00:17.450000,(-3 -4 -1 3 -1 -9 -4 -4)
1969/12/31/18:00:17.450000,(-3 -2 1 2 0 -6 -3 -2)
1969/12/31/18:00:17.464000,(-1 -1 -1 1 -13 -3 2 1)
1969/12/31/18:00:17.464000,(3 -1 -2 2 10 0 2 5)
1969/12/31/18:00:17.495000,(-1 -3 -1 7 1 2 -2 -3)
1969/12/31/18:00:17.495000,(2 2 -2 1 -3 1 0 1)
1969/12/31/18:00:17.497000,(2 -1 0 5 3 1 -1 -1)
1969/12/31/18:00:17.497000,(-3 0 -5 -13 -13 1 0 -2)
1969/12/31/18:00:17.498000,(0 -2 -3 2 1 0 1 -1)
1969/12/31/18:00:17.498000,(-7 1 11 -2 5 0 -8 -5)
