time,.data
1969-12-31 18:00:05.967000000,(-3 2 12 27 3 1 -2 -3)
1969-12-31 18:00:05.967000000,(3 8 19 40 13 5 1 3)
1969-12-31 18:00:05.985119068,(-6 -6 -6 -6 -4 -2 -4 -4)
1969-12-31 18:00:05.985119068,(-1 -2 -7 -28 -14 -3 0 1)
1969-12-31 18:00:05.986327006,(-6 -3 -9 -10 -4 -9 -5 -5)
1969-12-31 18:00:05.986327006,(14 2 -11 0 7 6 9 15)
1969-12-31 18:00:06.011693701,(-7 -3 -4 -5 -7 -8 -8 -7)
1969-12-31 18:00:06.011693701,(-5 -7 -11 -22 -5 5 0 -4)
1969-12-31 18:00:06.014109577,(-1 -1 11 26 6 6 2 1)
1969-12-31 18:00:06.014109577,(-15 -2 13 -1 18 -2 -8 -13)
1969-12-31 18:00:06.039476273,(7 -2 -5 40 12 13 12 10)
1969-12-31 18:00:06.039476273,(7 1 -14 -78 -56 -14 -5 2)
1969-12-31 18:00:06.041892148,(4 9 19 -8 16 -2 1 3)
1969-12-31 18:00:06.041892148,(-3 -2 -6 74 17 10 1 -3)
1969-12-31 18:00:06.057595341,(-1 0 28 56 43 6 -5 -3)
1969-12-31 18:00:06.057595341,(-19 -9 -15 -34 -32 -16 -11 -15)
1969-12-31 18:00:06.060011217,(12 0 -30 -59 -5 -2 2 9)
1969-12-31 18:00:06.060011217,(8 16 46 53 -11 7 6 5)
1969-12-31 18:00:06.104704918,(9 9 -8 5 13 -2 -2 3)
1969-12-31 18:00:06.104704918,(-9 -18 -2 42 -24 -7 -6 -7)
1969-12-31 18:00:06.105912856,(-4 -8 -35 -110 -8 0 6 4)
1969-12-31 18:00:06.105912856,(14 4 -16 1 13 2 4 11)
1969-12-31 18:00:06.107120794,(-17 -5 17 -64 -57 -12 -7 -13)
1969-12-31 18:00:06.107120794,(21 17 27 127 98 16 7 12)
1969-12-31 18:00:06.111952545,(-16 -19 -28 -36 -34 -11 -13 -16)
1969-12-31 18:00:06.111952545,(-4 -2 5 -43 5 8 3 -1)
1969-12-31 18:00:06.139735116,(10 18 21 9 -54 -9 1 3)
1969-12-31 18:00:06.139735116,(4 -7 -25 -37 -5 -11 -5 1)
1969-12-31 18:00:06.140943054,(2 7 31 85 40 25 13 4)
1969-12-31 18:00:06.140943054,(-3 -4 -5 40 49 1 -5 -2)
1969-12-31 18:00:06.166309750,(0 -3 -19 -44 -5 -3 -2 0)
1969-12-31 18:00:06.166309750,(-1 9 28 -49 -27 0 3 -2)
1969-12-31 18:00:06.168725626,(4 8 12 123 29 15 4 -1)
1969-12-31 18:00:06.168725626,(9 -6 5 28 26 11 10 11)
1969-12-31 18:00:06.173557377,(-18 -7 3 -21 8 -5 -8 -12)
1969-12-31 18:00:06.173557377,(0 3 -10 -37 -10 -3 0 2)
1969-12-31 18:00:06.184428818,(-5 -13 -42 -77 -50 -13 -7 -4)
1969-12-31 18:00:06.184428818,(-8 -17 -23 -59 -46 -23 -15 -12)
1969-12-31 18:00:06.202547886,(6 7 9 60 41 11 9 8)
1969-12-31 18:00:06.202547886,(4 -2 2 -16 33 10 4 6)
1969-12-31 18:00:06.204963762,(-11 6 22 22 -19 -5 -8 -11)
1969-12-31 18:00:06.204963762,(8 8 0 -16 -11 -4 1 5)
1969-12-31 18:00:06.229122519,(-2 -5 7 77 23 5 1 2)
1969-12-31 18:00:06.229122519,(-8 0 4 20 -2 2 -2 -7)
1969-12-31 18:00:06.231538394,(10 4 1 -8 -27 -7 3 8)
1969-12-31 18:00:06.231538394,(-9 -10 -38 -100 -24 -13 -9 -9)
1969-12-31 18:00:06.277440035,(8 5 -1 10 25 12 10 7)
1969-12-31 18:00:06.277440035,(-3 1 18 51 24 5 3 -1)
1969-12-31 18:00:06.278647972,(7 7 15 38 30 1 2 8)
1969-12-31 18:00:06.278647972,(-7 -3 -8 -30 -46 -12 -4 -8)
1969-12-31 18:00:06.279855910,(-4 -7 -18 -47 -18 -11 -5 -4)
1969-12-31 18:00:06.279855910,(-4 -3 -2 7 8 0 0 -2)
1969-12-31 18:00:06.284687662,(2 0 1 17 3 -5 -2 3)
1969-12-31 18:00:06.284687662,(-6 -2 6 -28 -15 -5 -1 -6)
1969-12-31 18:00:06.311262295,(7 0 -2 5 3 0 2 4)
1969-12-31 18:00:06.311262295,(0 -2 -4 9 0 0 -2 1)
1969-12-31 18:00:06.313678171,(-8 -6 -3 -17 -4 -6 -3 -4)
1969-12-31 18:00:06.313678171,(-1 5 3 15 4 2 1 0)
1969-12-31 18:00:06.318509922,(-4 -7 -13 -32 -15 -6 -6 -3)
1969-12-31 18:00:06.318509922,(4 5 7 25 4 0 2 3)
1969-12-31 18:00:06.329381363,(-1 -3 5 -5 3 0 -2 -4)
1969-12-31 18:00:06.329381363,(0 -1 -6 0 -3 1 0 -1)
1969-12-31 18:00:06.346292494,(1 -4 -9 -21 -11 -3 2 4)
1969-12-31 18:00:06.346292494,(8 8 4 7 5 9 3 -2)
1969-12-31 18:00:06.354748059,(-7 -6 -2 -10 2 -4 -7 -7)
1969-12-31 18:00:06.354748059,(-12 -1 2 14 -1 -3 -5 -8)
1969-12-31 18:00:06.375283003,(14 -5 -5 -8 -3 1 2 8)
1969-12-31 18:00:06.375283003,(0 -2 -4 7 2 -1 1 2)
1969-12-31 18:00:06.376490940,(-14 -6 0 -1 2 -2 -6 -12)
1969-12-31 18:00:06.376490940,(-5 0 -3 -1 -9 -1 -1 -4)
1969-12-31 18:00:06.390986195,(-8 -1 -1 -8 -1 0 2 0)
1969-12-31 18:00:06.390986195,(10 -4 -4 3 -1 0 1 3)
1969-12-31 18:00:06.429640207,(4 4 5 4 0 1 -1 1)
1969-12-31 18:00:06.429640207,(1 0 -5 -6 -2 3 4 4)
1969-12-31 18:00:06.457422778,(-2 -1 -1 -2 0 1 -1 -4)
1969-12-31 18:00:06.457422778,(0 2 -4 -3 0 4 3 3)
1969-12-31 18:00:06.459838654,(1 4 5 4 -1 4 2 3)
1969-12-31 18:00:06.459838654,(-1 0 2 -4 -2 0 -2 -5)
1969-12-31 18:00:06.461046592,(2 1 1 8 4 2 2 -4)
1969-12-31 18:00:06.461046592,(-11 -5 2 2 -7 -5 -4 -4)
1969-12-31 18:00:06.465878343,(7 3 1 -7 2 0 5 5)
1969-12-31 18:00:06.465878343,(2 -2 1 7 7 5 5 9)
1969-12-31 18:00:06.467086280,(-36 -15 -8 -12 -5 -5 -6 -14)
1969-12-31 18:00:06.467086280,(46 21 4 -1 0 -1 4 12)
1969-12-31 18:00:06.474333909,(-7 2 4 4 0 -8 -13 -17)
1969-12-31 18:00:06.474333909,(9 -5 -8 -32 -29 -7 3 10)
1969-12-31 18:00:06.491245038,(-3 5 0 3 9 5 1 -5)
1969-12-31 18:00:06.491245038,(-15 -8 -1 17 10 4 2 1)
1969-12-31 18:00:06.499700603,(6 1 7 11 9 4 2 5)
1969-12-31 18:00:06.499700603,(-7 3 4 14 7 -1 -3 -7)
1969-12-31 18:00:06.519027610,(3 0 1 -12 -9 -2 -1 2)
1969-12-31 18:00:06.519027610,(-9 -3 0 1 -3 -1 -3 -4)
1969-12-31 18:00:06.527483175,(8 2 -6 -16 -5 0 3 4)
1969-12-31 18:00:06.527483175,(-16 -16 -4 -2 -8 -6 -3 -2)
1969-12-31 18:00:06.535938740,(20 11 6 -1 4 6 -2 -11)
1969-12-31 18:00:06.535938740,(-16 -3 -4 -5 5 -3 -2 -5)
1969-12-31 18:00:06.546810181,(-2 -7 0 4 1 -3 -1 -3)
1969-12-31 18:00:06.546810181,(39 22 -1 0 2 3 4 17)
1969-12-31 18:00:06.563721311,(8 -2 -5 -8 0 -6 -5 6)
1969-12-31 18:00:06.563721311,(-31 -9 -1 -5 -11 -4 -9 -20)
1969-12-31 18:00:06.599959448,(-5 -11 -27 -64 -15 -4 3 5)
1969-12-31 18:00:06.599959448,(-7 -1 7 10 -1 0 -1 -5)
1969-12-31 18:00:06.621702330,(-1 6 37 103 40 9 2 2)
1969-12-31 18:00:06.621702330,(23 1 7 7 5 0 1 2)
1969-12-31 18:00:06.622910267,(0 3 7 7 -1 0 -1 4)
1969-12-31 18:00:06.622910267,(4 -6 -15 -27 -2 -3 -1 -3)
1969-12-31 18:00:06.624118205,(-57 -19 -18 -47 -19 -3 -6 -16)
1969-12-31 18:00:06.624118205,(45 6 -6 -5 -6 -1 7 16)
1969-12-31 18:00:06.628949957,(19 11 2 -6 2 -2 1 12)
1969-12-31 18:00:06.628949957,(-10 -11 -9 -1 -6 -9 -13 -17)
1969-12-31 18:00:06.636197584,(13 8 -2 -9 -3 8 13 14)
1969-12-31 18:00:06.636197584,(-61 -19 -4 2 -1 -1 0 -2)
1969-12-31 18:00:06.644653149,(83 14 -4 4 -4 1 7 21)
1969-12-31 18:00:06.644653149,(-55 -20 8 10 7 0 -8 -22)
1969-12-31 18:00:06.665188093,(12 1 -8 -12 4 -3 3 7)
1969-12-31 18:00:06.665188093,(1 7 -10 -19 -18 0 -1 0)
1969-12-31 18:00:06.666396031,(-18 -6 14 29 5 1 -1 -5)
1969-12-31 18:00:06.666396031,(-3 5 8 19 13 3 -2 -3)
1969-12-31 18:00:06.691762726,(20 6 5 -2 4 5 5 9)
1969-12-31 18:00:06.691762726,(1 -5 3 1 -4 -4 -2 0)
1969-12-31 18:00:06.694178602,(-26 -6 -3 4 -1 -4 -11 -17)
1969-12-31 18:00:06.694178602,(-3 1 -1 0 0 1 4 2)
1969-12-31 18:00:06.709881795,(-7 -2 -12 -24 -14 -8 -10 -6)
1969-12-31 18:00:06.709881795,(68 20 -4 -9 -1 -2 4 21)
1969-12-31 18:00:06.717129422,(-42 -11 -2 5 -2 -3 -4 -16)
1969-12-31 18:00:06.717129422,(-1 9 5 1 2 -6 -9 -6)
1969-12-31 18:00:06.737664366,(3 -10 -9 -31 -14 -2 -4 -3)
1969-12-31 18:00:06.737664366,(-21 -2 7 19 7 3 3 -4)
1969-12-31 18:00:06.738872304,(-8 -13 -40 -108 -32 -5 1 3)
1969-12-31 18:00:06.738872304,(18 8 14 75 6 5 8 8)
1969-12-31 18:00:06.764238999,(3 10 33 77 14 0 0 0)
1969-12-31 18:00:06.765446937,(-10 -3 15 49 33 11 2 -5)
1969-12-31 18:00:06.766654875,(-2 3 9 13 4 4 3 0)
1969-12-31 18:00:06.766654875,(-6 -9 -22 -75 -19 -11 -10 -8)
1969-12-31 18:00:06.781150129,(2 -9 -62 -126 -45 -12 -2 4)
1969-12-31 18:00:06.781150129,(7 7 18 48 2 6 8 8)
1969-12-31 18:00:06.792021570,(-4 8 30 85 35 8 1 -4)
1969-12-31 18:00:06.792021570,(7 4 16 26 21 8 2 2)
1969-12-31 18:00:06.810140638,(-8 -8 4 21 10 -2 -7 -6)
1969-12-31 18:00:06.810140638,(9 8 -17 -71 -18 -1 5 6)
1969-12-31 18:00:06.811348576,(2 -3 -9 -13 -9 1 4 9)
1969-12-31 18:00:06.811348576,(-3 -6 0 4 -12 -14 -17 -18)
1969-12-31 18:00:06.836715272,(-10 13 4 -9 -2 -4 -5 -7)
1969-12-31 18:00:06.836715272,(-4 -4 -15 -41 -4 4 1 -5)
1969-12-31 18:00:06.839131148,(-5 -4 3 30 3 -6 -6 -5)
1969-12-31 18:00:06.839131148,(23 12 3 -18 -4 8 12 18)
1969-12-31 18:00:06.853626402,(-20 -10 12 33 10 -7 -10 -17)
1969-12-31 18:00:06.853626402,(-19 -3 15 34 -5 -4 -3 -5)
1969-12-31 18:00:06.864497843,(35 18 18 38 22 10 12 15)
1969-12-31 18:00:06.864497843,(-4 -4 -15 -28 -3 6 6 9)
1969-12-31 18:00:06.882616911,(3 -9 -11 -16 -9 -8 -10 -9)
1969-12-31 18:00:06.882616911,(-7 -2 -7 -15 -5 -8 -7 -8)
1969-12-31 18:00:06.883824849,(-4 -5 -7 -19 -5 -1 2 5)
1969-12-31 18:00:06.883824849,(-4 0 -3 0 3 2 5 4)
1969-12-31 18:00:06.938182053,(-18 -12 5 -5 -1 5 5 4)
1969-12-31 18:00:06.938182053,(-4 6 1 13 6 -2 -8 -19)
1969-12-31 18:00:06.939389991,(-25 -11 -3 -6 -3 -4 -9 -17)
1969-12-31 18:00:06.940597929,(38 16 1 3 -4 0 4 24)
1969-12-31 18:00:06.940597929,(-24 -15 1 15 9 6 0 -11)
1969-12-31 18:00:06.940597929,(-16 -11 -2 -14 -5 -6 -8 -7)
1969-12-31 18:00:06.945429681,(1 3 0 -6 0 4 3 0)
1969-12-31 18:00:06.945429681,(-32 -17 -9 -24 -20 -11 -11 -18)
1969-12-31 18:00:06.953885246,(34 15 -12 -38 15 11 17 25)
1969-12-31 18:00:06.953885246,(9 3 9 49 -6 3 1 5)
1969-12-31 18:00:06.956301122,(-4 6 18 33 14 4 1 -1)
1969-12-31 18:00:06.956301122,(-2 -3 11 25 14 2 -3 -8)
1969-12-31 18:00:06.981667817,(12 5 1 4 -2 -2 1 5)
1969-12-31 18:00:06.981667817,(4 -5 -15 -37 -4 -9 -8 -5)
1969-12-31 18:00:06.984083693,(-14 -5 -8 -15 -10 -2 -2 -9)
1969-12-31 18:00:06.984083693,(7 3 -9 -16 -6 1 7 6)
1969-12-31 18:00:06.998578947,(15 5 -13 -45 -15 -2 2 7)
1969-12-31 18:00:06.998578947,(-8 -3 14 53 14 1 -2 1)
1969-12-31 18:00:07.009450388,(0 5 18 26 13 6 2 -2)
1969-12-31 18:00:07.009450388,(-24 -12 9 23 25 17 14 4)
1969-12-31 18:00:07.036025022,(42 24 -2 7 -2 2 7 11)
1969-12-31 18:00:07.036025022,(-2 -2 -9 -38 -18 -12 -9 -4)
1969-12-31 18:00:07.038440897,(5 -6 -13 -20 -7 -1 2 7)
1969-12-31 18:00:07.038440897,(-8 0 0 1 2 3 8 11)
1969-12-31 18:00:07.054144090,(-6 -6 2 17 -3 -5 -5 -6)
1969-12-31 18:00:07.054144090,(1 -1 0 -8 -2 1 -6 -5)
1969-12-31 18:00:07.056559965,(1 -6 -8 -6 -3 -2 -1 -3)
1969-12-31 18:00:07.056559965,(7 7 2 -4 3 1 -2 0)
1969-12-31 18:00:07.071055220,(-7 -3 8 20 -3 -3 -1 -2)
1969-12-31 18:00:07.071055220,(4 -2 -7 -13 7 6 6 5)
1969-12-31 18:00:07.102461605,(-15 -9 -2 -11 -8 -7 -8 -7)
1969-12-31 18:00:07.102461605,(8 -4 -6 6 -4 -3 -2 -6)
1969-12-31 18:00:07.103669543,(-2 0 15 26 6 2 2 6)
1969-12-31 18:00:07.103669543,(17 15 12 3 5 -1 -8 -14)
1969-12-31 18:00:07.116956859,(6 7 -5 -14 -2 6 14 16)
1969-12-31 18:00:07.116956859,(-3 -4 -5 -6 -10 -12 -15 -10)
1969-12-31 18:00:07.125412425,(-5 -5 1 5 1 -1 -1 -5)
1969-12-31 18:00:07.125412425,(-26 -10 -7 -8 3 4 10 11)
1969-12-31 18:00:07.126620362,(30 12 -4 -7 -6 -8 -10 -8)
1969-12-31 18:00:07.126620362,(-2 4 0 -3 0 2 1 -5)
1969-12-31 18:00:07.153194996,(-25 -20 -6 0 -4 -5 -7 -9)
1969-12-31 18:00:07.153194996,(4 0 -3 -18 3 11 15 19)
1969-12-31 18:00:07.154402934,(24 13 -1 16 1 -5 -6 0)
1969-12-31 18:00:07.154402934,(-4 5 5 3 5 1 1 1)
1969-12-31 18:00:07.171314064,(-9 -16 4 14 1 -3 -3 -3)
1969-12-31 18:00:07.171314064,(5 -2 -10 -40 -13 -9 -7 -9)
1969-12-31 18:00:07.171314064,(-57 -28 1 17 4 -5 -2 -6)
1969-12-31 18:00:07.171314064,(5 -5 -15 -27 -16 -6 -10 -17)
1969-12-31 18:00:07.197888697,(-4 2 3 30 1 0 0 1)
1969-12-31 18:00:07.197888697,(50 17 11 17 18 16 23 36)
1969-12-31 18:00:07.199096635,(-15 -13 -4 -3 -3 -6 -12 -13)
1969-12-31 18:00:07.199096635,(3 14 -1 -1 -2 -6 -8 -7)
1969-12-31 18:00:07.225671268,(0 6 -1 -20 1 5 14 17)
1969-12-31 18:00:07.225671268,(-31 -20 -34 -61 -24 -11 -15 -20)
1969-12-31 18:00:07.226879205,(10 0 2 15 -2 -1 2 9)
1969-12-31 18:00:07.226879205,(9 13 31 53 27 26 22 15)
1969-12-31 18:00:07.272780846,(4 2 1 1 -7 -8 -12 -8)
1969-12-31 18:00:07.272780846,(-13 -7 4 15 1 -5 -7 -11)
1969-12-31 18:00:07.273988783,(6 4 -6 -26 -1 6 5 4)
1969-12-31 18:00:07.273988783,(-20 -20 -11 -30 -17 -14 -11 -13)
1969-12-31 18:00:07.276404659,(25 15 -29 -64 -7 6 11 15)
1969-12-31 18:00:07.276404659,(3 2 17 70 22 3 1 1)
1969-12-31 18:00:07.280028473,(-5 -5 -21 -67 -16 -2 -1 -5)
1969-12-31 18:00:07.280028473,(14 8 39 118 14 6 7 11)
1969-12-31 18:00:07.298147541,(-9 3 37 80 37 0 -12 -20)
1969-12-31 18:00:07.298147541,(-9 -4 -1 11 10 -1 -6 -6)
1969-12-31 18:00:07.299355479,(0 -7 -12 -26 -1 4 4 4)
1969-12-31 18:00:07.299355479,(14 4 -24 -71 -16 -3 6 10)
1969-12-31 18:00:07.316266609,(6 1 -12 -29 -21 -9 -4 -1)
1969-12-31 18:00:07.316266609,(-9 -8 -6 -9 -5 -4 -2 -4)
1969-12-31 18:00:07.317474547,(9 11 9 3 -3 -1 0 0)
1969-12-31 18:00:07.317474547,(2 -5 -19 -39 -9 -4 -4 -1)
1969-12-31 18:00:07.342841242,(-1 -1 3 2 -4 0 -5 -5)
1969-12-31 18:00:07.342841242,(-1 4 7 16 14 10 9 6)
1969-12-31 18:00:07.344049180,(4 4 -3 -48 -24 3 3 5)
1969-12-31 18:00:07.344049180,(-4 -3 19 96 23 1 -3 -4)
1969-12-31 18:00:07.370623814,(-3 -3 0 0 11 4 -4 -6)
1969-12-31 18:00:07.370623814,(-2 4 11 13 -9 -1 -2 -2)
1969-12-31 18:00:07.371831752,(0 3 4 22 14 -2 -5 -3)
1969-12-31 18:00:07.371831752,(14 0 -11 -32 0 2 9 17)
1969-12-31 18:00:07.388742882,(-6 -3 -11 -26 -17 -5 -5 -8)
1969-12-31 18:00:07.388742882,(-7 -4 -11 -28 -15 -9 -7 -7)
1969-12-31 18:00:07.389950820,(-5 0 16 41 7 -1 -2 -5)
1969-12-31 18:00:07.389950820,(-3 -7 -9 -20 -8 -9 -7 -5)
1969-12-31 18:00:07.434644521,(13 8 -2 -10 1 4 6 11)
1969-12-31 18:00:07.434644521,(12 -2 -21 -26 -11 0 7 11)
1969-12-31 18:00:07.435852459,(-4 -3 3 10 -7 -7 -8 -8)
1969-12-31 18:00:07.435852459,(6 8 24 64 24 6 2 -1)
1969-12-31 18:00:07.443100086,(-2 0 13 26 14 10 7 3)
1969-12-31 18:00:07.443100086,(-5 -2 -2 -10 -7 -4 -4 -2)
1969-12-31 18:00:07.443100086,(-4 -5 -8 4 3 -3 -3 -2)
1969-12-31 18:00:07.443100086,(-3 -3 -16 -61 -10 5 6 4)
1969-12-31 18:00:07.461219154,(3 -1 -1 9 -21 -3 1 2)
1969-12-31 18:00:07.461219154,(-3 -2 9 32 15 -5 -5 -7)
1969-12-31 18:00:07.462427092,(3 -2 3 18 8 1 4 11)
1969-12-31 18:00:07.462427092,(-14 6 2 -18 1 -1 -6 -18)
1969-12-31 18:00:07.487793788,(14 2 -7 -11 4 2 1 5)
1969-12-31 18:00:07.487793788,(-26 -7 1 -10 -7 -4 -15 -26)
1969-12-31 18:00:07.489001726,(10 7 3 -13 -1 6 12 19)
1969-12-31 18:00:07.489001726,(-3 -10 -12 -5 -14 -11 -12 -9)
1969-12-31 18:00:07.516784297,(-1 -1 -4 -3 -2 -1 0 4)
1969-12-31 18:00:07.516784297,(2 0 1 2 -4 0 3 3)
1969-12-31 18:00:07.517992235,(-12 -7 -2 -10 1 -3 -6 -8)
1969-12-31 18:00:07.517992235,(0 -4 -12 -19 -7 1 2 2)
1969-12-31 18:00:07.534903365,(-33 -7 9 20 4 0 1 -4)
1969-12-31 18:00:07.534903365,(26 3 12 27 9 7 10 14)
1969-12-31 18:00:07.534903365,(-10 7 25 35 17 19 23 10)
1969-12-31 18:00:07.534903365,(38 6 -11 -24 -8 -8 -8 5)
1969-12-31 18:00:07.560270060,(-24 -10 -12 -24 -11 -12 -14 -20)
1969-12-31 18:00:07.560270060,(-15 -14 -8 -10 -4 1 4 3)
1969-12-31 18:00:07.561477998,(4 -2 -6 -7 -1 1 2 4)
1969-12-31 18:00:07.561477998,(-10 -3 11 24 4 -2 -7 -9)
1969-12-31 18:00:07.608587575,(-12 5 6 4 6 6 9 7)
1969-12-31 18:00:07.608587575,(28 0 -9 -12 -8 -9 -9 4)
1969-12-31 18:00:07.609795513,(-33 -2 6 8 5 7 -3 -28)
1969-12-31 18:00:07.609795513,(-13 -13 -10 -13 -7 -7 -4 4)
1969-12-31 18:00:07.612211389,(17 11 6 1 6 5 5 -2)
1969-12-31 18:00:07.612211389,(-42 -9 0 -20 -11 -8 -11 -22)
1969-12-31 18:00:07.614627265,(18 -6 -3 19 6 5 13 24)
1969-12-31 18:00:07.614627265,(-8 1 -3 -1 1 -3 -14 -20)
1969-12-31 18:00:07.632746333,(-13 -7 0 6 0 -3 -7 -13)
1969-12-31 18:00:07.632746333,(25 15 5 2 6 12 17 24)
1969-12-31 18:00:07.633954271,(-7 -8 -9 -20 -11 -15 -19 -15)
1969-12-31 18:00:07.633954271,(1 1 -1 -6 1 2 6 11)
1969-12-31 18:00:07.660528904,(31 8 -5 0 -11 -2 4 14)
1969-12-31 18:00:07.660528904,(-28 7 1 7 0 -9 -9 -12)
1969-12-31 18:00:07.661736842,(24 -4 5 15 6 0 -10 -9)
1969-12-31 18:00:07.661736842,(-10 -10 0 4 5 1 4 3)
1969-12-31 18:00:07.678647972,(44 16 -4 -10 -3 1 5 11)
1969-12-31 18:00:07.678647972,(-2 -5 -8 -11 -9 -9 -7 1)
1969-12-31 18:00:07.679855910,(16 19 -1 8 5 2 -1 3)
1969-12-31 18:00:07.679855910,(-14 -3 1 -2 -1 4 0 -12)
1969-12-31 18:00:07.705222606,(-13 -17 -5 -1 -1 -4 -3 4)
1969-12-31 18:00:07.705222606,(-7 -6 -1 -5 -5 -6 -7 -7)
1969-12-31 18:00:07.706430544,(41 21 -2 -4 -1 1 5 16)
1969-12-31 18:00:07.706430544,(-14 -7 -6 -17 -12 -3 1 -1)
1969-12-31 18:00:07.734213115,(-9 1 10 33 14 0 -2 -2)
1969-12-31 18:00:07.734213115,(9 6 19 28 6 2 -2 -6)
1969-12-31 18:00:07.734213115,(-13 1 5 5 3 5 5 2)
1969-12-31 18:00:07.734213115,(2 1 0 -13 -7 -4 2 3)
1969-12-31 18:00:07.780114754,(-17 -16 -12 -20 -8 -3 -2 -6)
1969-12-31 18:00:07.780114754,(32 10 2 3 4 10 13 16)
1969-12-31 18:00:07.781322692,(-4 -1 -4 -3 -5 -6 -5 -8)
1969-12-31 18:00:07.781322692,(27 19 5 1 -7 -7 -8 -2)
1969-12-31 18:00:07.783738568,(4 -7 -5 -2 1 -7 -14 -7)
1969-12-31 18:00:07.783738568,(-30 -7 -6 -10 -1 -4 -4 -15)
1969-12-31 18:00:07.787362381,(18 3 -2 -6 -2 10 20 26)
1969-12-31 18:00:07.787362381,(1 2 -1 5 4 2 -1 -3)
1969-12-31 18:00:07.806689387,(-11 -5 0 1 2 -1 -4 -6)
1969-12-31 18:00:07.806689387,(9 8 -5 -40 -11 -2 -4 -1)
1969-12-31 18:00:07.807897325,(-44 -17 2 26 4 -11 -14 -20)
1969-12-31 18:00:07.807897325,(61 28 4 22 18 8 15 29)
1969-12-31 18:00:07.823600518,(19 22 15 16 9 10 9 2)
1969-12-31 18:00:07.823600518,(-26 -14 -8 -19 -3 4 2 -9)
1969-12-31 18:00:07.824808456,(-7 -5 -7 -23 -16 -11 -13 -15)
1969-12-31 18:00:07.824808456,(-21 -18 -3 7 0 -3 -1 1)
1969-12-31 18:00:07.850175151,(-11 -7 -1 12 12 10 10 7)
1969-12-31 18:00:07.850175151,(19 9 3 5 4 -1 -1 2)
1969-12-31 18:00:07.851383089,(-12 -10 -10 -31 -11 -5 -2 -4)
1969-12-31 18:00:07.851383089,(-7 -1 -7 -5 10 0 1 0)
1969-12-31 18:00:07.879165660,(0 1 9 7 -27 -6 -4 -4)
1969-12-31 18:00:07.879165660,(-14 -3 13 44 14 -1 -4 -6)
1969-12-31 18:00:07.880373598,(-1 -7 0 12 7 1 -1 -2)
1969-12-31 18:00:07.880373598,(-4 -2 -2 -8 -4 -2 -6 -10)
1969-12-31 18:00:07.896076790,(2 -2 -8 -21 5 3 4 4)
1969-12-31 18:00:07.896076790,(25 16 -8 -10 -13 -5 2 21)
1969-12-31 18:00:07.897284728,(-6 -1 2 -2 -7 -8 -14 -18)
1969-12-31 18:00:07.897284728,(-8 -11 -4 -15 -2 3 3 3)
1969-12-31 18:00:07.943186368,(8 8 1 -13 1 4 4 4)
1969-12-31 18:00:07.943186368,(-17 -10 0 17 -3 -6 -6 -8)
1969-12-31 18:00:07.943186368,(12 5 -1 11 10 9 14 17)
1969-12-31 18:00:07.943186368,(9 9 -1 -1 -2 2 1 6)
1969-12-31 18:00:07.950433995,(-40 -29 -8 -6 -8 -10 -20 -29)
1969-12-31 18:00:07.950433995,(14 2 -3 -10 4 2 7 8)
1969-12-31 18:00:07.952849871,(1 4 -3 -7 0 0 -1 -2)
1969-12-31 18:00:07.952849871,(-22 -10 3 6 -2 1 -4 -12)
1969-12-31 18:00:07.968553063,(11 3 -4 -4 -3 -1 2 8)
1969-12-31 18:00:07.968553063,(-2 -2 -7 -26 -6 0 -3 -6)
1969-12-31 18:00:07.969761001,(7 -2 -18 -48 -23 -6 -3 -1)
1969-12-31 18:00:07.969761001,(0 4 17 59 9 3 4 4)
1969-12-31 18:00:07.995127696,(-6 6 26 60 31 5 0 -2)
1969-12-31 18:00:07.995127696,(0 -1 9 27 18 5 0 -4)
1969-12-31 18:00:07.996335634,(-5 -2 2 -1 -12 -6 -5 -2)
1969-12-31 18:00:07.996335634,(-6 -2 -15 -41 -17 -3 -1 -3)
1969-12-31 18:00:08.024118205,(8 -2 -20 -35 -15 -5 2 3)
1969-12-31 18:00:08.024118205,(2 -4 -15 -45 -19 -1 3 5)
1969-12-31 18:00:08.025326143,(1 -1 3 21 6 -2 -2 2)
1969-12-31 18:00:08.025326143,(-19 -7 17 48 26 3 -3 -8)
1969-12-31 18:00:08.041029336,(21 17 18 47 26 7 3 6)
1969-12-31 18:00:08.041029336,(-20 -10 -1 1 8 5 1 -7)
1969-12-31 18:00:08.042237274,(-5 -7 -12 -26 -16 -6 -3 -7)
1969-12-31 18:00:08.042237274,(-1 -2 -11 -25 -19 -8 -5 -6)
1969-12-31 18:00:08.068811907,(-3 -3 -6 -21 -9 -2 2 9)
1969-12-31 18:00:08.068811907,(7 -1 -3 0 -2 -3 1 7)
1969-12-31 18:00:08.068811907,(-1 8 8 12 7 2 -2 -4)
1969-12-31 18:00:08.068811907,(-12 -11 -6 -32 0 -4 -3 -6)
1969-12-31 18:00:08.105050043,(1 -5 -15 -24 -22 -5 -5 -5)
1969-12-31 18:00:08.105050043,(10 9 16 34 5 6 8 6)
1969-12-31 18:00:08.106257981,(-3 1 16 43 21 1 -3 -1)
1969-12-31 18:00:08.106257981,(4 2 -10 -22 11 4 4 6)
1969-12-31 18:00:08.113505608,(-10 -4 -9 -25 -18 -6 -6 -6)
1969-12-31 18:00:08.113505608,(4 1 -16 -59 -48 -12 -6 -2)
1969-12-31 18:00:08.114713546,(-9 -6 23 106 42 -1 -3 -6)
1969-12-31 18:00:08.114713546,(6 14 30 68 40 18 9 7)
1969-12-31 18:00:08.140080242,(4 -1 0 6 14 2 3 2)
1969-12-31 18:00:08.141288179,(-10 -10 -13 -27 -1 -2 -4 -4)
1969-12-31 18:00:08.141288179,(13 3 -18 -64 -30 -4 1 9)
1969-12-31 18:00:08.141288179,(-8 -3 -10 -27 -21 -7 -5 -5)
1969-12-31 18:00:08.169070751,(-4 0 -3 -17 -5 0 -1 0)
1969-12-31 18:00:08.169070751,(-11 -3 4 20 13 1 -3 -6)
1969-12-31 18:00:08.170278689,(3 -1 -4 -17 -12 6 3 1)
1969-12-31 18:00:08.170278689,(3 -2 -1 9 -10 -4 -3 2)
1969-12-31 18:00:08.185981881,(-6 -5 4 3 3 2 3 5)
1969-12-31 18:00:08.185981881,(23 16 8 21 11 3 3 3)
1969-12-31 18:00:08.187189819,(-4 -6 -5 -1 4 -7 -4 -4)
1969-12-31 18:00:08.187189819,(-3 -4 -3 -13 -8 -1 1 1)
1969-12-31 18:00:08.212556514,(4 4 2 0 -8 -5 0 2)
1969-12-31 18:00:08.212556514,(-6 -7 1 11 8 1 3 1)
1969-12-31 18:00:08.213764452,(5 7 3 -14 -4 3 -1 3)
1969-12-31 18:00:08.213764452,(8 -1 -3 2 2 4 3 6)
1969-12-31 18:00:08.241547023,(-5 1 2 2 -1 -4 -7 -7)
1969-12-31 18:00:08.241547023,(-6 -3 -1 16 11 4 -1 -11)
1969-12-31 18:00:08.241547023,(-34 -19 -4 -7 -3 -3 -7 -18)
1969-12-31 18:00:08.241547023,(24 8 -8 -17 -13 -5 -2 4)
1969-12-31 18:00:08.277785160,(2 0 -3 4 1 -3 -3 -2)
1969-12-31 18:00:08.277785160,(5 4 3 5 1 -1 2 8)
1969-12-31 18:00:08.278993097,(-2 2 0 -1 -2 -4 -3 -1)
1969-12-31 18:00:08.278993097,(-19 -1 2 -3 3 4 6 -5)
1969-12-31 18:00:08.285032787,(11 -5 -9 -32 -15 -3 0 1)
1969-12-31 18:00:08.285032787,(0 1 2 18 0 1 -1 1)
1969-12-31 18:00:08.286240725,(-4 -2 2 12 7 -2 -2 0)
1969-12-31 18:00:08.286240725,(-1 3 6 15 5 0 1 5)
1969-12-31 18:00:08.314023296,(-1 2 -1 -4 -4 -3 -4 -3)
1969-12-31 18:00:08.314023296,(-9 -7 -5 -9 -2 -1 -1 -4)
1969-12-31 18:00:08.315231234,(10 4 -4 -11 -1 2 6 7)
1969-12-31 18:00:08.315231234,(4 3 2 0 -3 -1 3 2)
1969-12-31 18:00:08.330934426,(1 1 -1 5 3 5 6 4)
1969-12-31 18:00:08.330934426,(2 -4 -3 0 1 -2 -6 -1)
1969-12-31 18:00:08.332142364,(3 1 -2 -6 4 0 1 0)
1969-12-31 18:00:08.332142364,(-4 -4 -3 -8 -17 -2 -3 -5)
1969-12-31 18:00:08.357509060,(-5 -3 2 9 8 -2 -2 -3)
1969-12-31 18:00:08.357509060,(-1 1 -6 -30 -3 1 4 4)
1969-12-31 18:00:08.358716997,(6 6 4 18 -4 0 -1 3)
1969-12-31 18:00:08.358716997,(-6 -2 6 11 14 -3 -6 -5)
1969-12-31 18:00:08.386499569,(5 6 7 14 -2 3 4 4)
1969-12-31 18:00:08.386499569,(5 8 13 18 2 2 1 4)
1969-12-31 18:00:08.386499569,(3 -6 -21 -16 0 -9 -5 0)
1969-12-31 18:00:08.386499569,(-11 -19 -18 -7 -7 -13 -13 -12)
1969-12-31 18:00:08.403410699,(-7 -1 5 5 2 4 2 -3)
1969-12-31 18:00:08.403410699,(5 5 3 2 5 -1 3 2)
1969-12-31 18:00:08.404618637,(-1 1 4 -17 -5 2 0 2)
1969-12-31 18:00:08.404618637,(3 -2 -28 -31 -11 -1 3 4)
1969-12-31 18:00:08.440856773,(-4 -4 1 2 5 -2 -3 -4)
1969-12-31 18:00:08.440856773,(0 11 34 13 -3 11 7 1)
1969-12-31 18:00:08.442064711,(10 9 -6 23 5 4 3 7)
1969-12-31 18:00:08.442064711,(-7 -7 -5 -7 0 -7 -7 -5)
1969-12-31 18:00:08.458975841,(1 3 8 -3 1 3 1 0)
1969-12-31 18:00:08.458975841,(-2 -2 -12 -2 5 -2 -2 -2)
1969-12-31 18:00:08.458975841,(-1 -6 -2 -16 -11 -11 -3 -1)
1969-12-31 18:00:08.458975841,(-9 -8 -6 -6 -17 -7 -5 -6)
1969-12-31 18:00:08.474679034,(0 -2 -13 -7 -11 -9 -6 0)
1969-12-31 18:00:08.474679034,(-2 4 28 27 13 6 1 -1)
1969-12-31 18:00:08.484342537,(15 33 61 10 21 26 17 9)
1969-12-31 18:00:08.484342537,(9 -8 -53 -1 0 -2 2 9)
1969-12-31 18:00:08.502461604,(-14 -29 -38 -41 -17 -19 -13 -9)
1969-12-31 18:00:08.502461604,(-12 -11 -13 -5 -17 -15 -12 -8)
1969-12-31 18:00:08.503669543,(-5 0 21 47 18 3 -2 -5)
1969-12-31 18:00:08.503669543,(9 27 60 43 28 17 9 7)
1969-12-31 18:00:08.531452114,(10 12 14 26 13 8 5 7)
1969-12-31 18:00:08.531452114,(1 -2 -14 -21 -5 0 -1 -1)
1969-12-31 18:00:08.531452114,(-2 -10 -32 -37 -16 -11 -4 -3)
1969-12-31 18:00:08.531452114,(0 1 13 -7 -14 -6 0 2)
1969-12-31 18:00:08.547155306,(-1 -9 -26 -8 -4 -7 -2 -2)
1969-12-31 18:00:08.547155306,(-11 -20 -36 -6 -4 -3 -4 -7)
1969-12-31 18:00:08.556818809,(-1 10 37 17 -5 6 3 1)
1969-12-31 18:00:08.556818809,(2 9 12 8 10 9 2 -3)
1969-12-31 18:00:08.574937877,(10 -5 -36 -24 -8 -3 1 9)
1969-12-31 18:00:08.574937877,(-4 -1 13 4 1 5 0 -2)
1969-12-31 18:00:08.576145815,(-2 -13 -36 1 7 0 0 -1)
1969-12-31 18:00:08.576145815,(-7 -3 18 -27 -20 -11 -8 -5)
1969-12-31 18:00:08.614799827,(8 40 85 30 12 18 10 4)
1969-12-31 18:00:08.614799827,(14 -15 -67 29 17 0 6 11)
1969-12-31 18:00:08.614799827,(-24 -31 -34 -24 -14 -17 -14 -13)
1969-12-31 18:00:08.614799827,(-11 -2 9 0 -2 -5 -7 -8)
1969-12-31 18:00:08.619631579,(8 12 19 -3 4 3 4 6)
1969-12-31 18:00:08.619631579,(6 13 19 -3 -6 2 2 3)
1969-12-31 18:00:08.630503020,(8 6 8 -11 -3 6 5 5)
1969-12-31 18:00:08.630503020,(5 0 -13 15 14 6 3 2)
1969-12-31 18:00:08.647414150,(-10 -6 2 0 0 -1 -5 -9)
1969-12-31 18:00:08.647414150,(6 19 43 7 2 11 6 5)
1969-12-31 18:00:08.648622088,(7 -6 -33 -11 -6 -8 -3 3)
1969-12-31 18:00:08.648622088,(-14 -14 -13 -44 -17 -3 -7 -10)
1969-12-31 18:00:08.676404659,(-1 -2 -13 19 7 -4 0 2)
1969-12-31 18:00:08.676404659,(-7 2 6 3 -6 -2 -4 -7)
1969-12-31 18:00:08.676404659,(0 -7 -1 -15 0 -4 1 0)
1969-12-31 18:00:08.676404659,(4 12 26 25 3 7 3 2)
1969-12-31 18:00:08.692107852,(-1 -11 -16 11 4 -6 -3 -1)
1969-12-31 18:00:08.692107852,(-7 -4 -3 -3 0 -10 -6 -6)
1969-12-31 18:00:08.702979292,(4 11 25 -3 7 9 4 4)
1969-12-31 18:00:08.702979292,(8 -1 -20 4 6 1 5 8)
1969-12-31 18:00:08.719890423,(-14 -11 -6 -27 -16 -9 -8 -8)
1969-12-31 18:00:08.719890423,(3 -1 1 -8 -3 -6 -1 3)
1969-12-31 18:00:08.721098361,(-1 2 1 8 1 -2 -2 -3)
1969-12-31 18:00:08.721098361,(-4 -10 -11 -14 -9 -6 0 -2)
1969-12-31 18:00:08.777871441,(0 2 3 21 -6 8 2 -1)
1969-12-31 18:00:08.777871441,(0 -2 -1 -6 18 1 0 0)
1969-12-31 18:00:08.777871441,(0 5 6 5 -7 -5 -4 -2)
1969-12-31 18:00:08.777871441,(4 -2 -2 -5 -2 1 0 2)
1969-12-31 18:00:08.780287317,(-1 -1 -7 -8 -3 1 1 0)
1969-12-31 18:00:08.780287317,(-4 -6 -17 0 -6 -3 -3 -1)
1969-12-31 18:00:08.783911130,(1 1 -2 -3 -6 -1 1 1)
1969-12-31 18:00:08.783911130,(-10 -6 6 23 17 2 -3 -5)
1969-12-31 18:00:08.792366695,(0 2 2 5 3 -5 -4 -2)
1969-12-31 18:00:08.792366695,(0 -5 -10 -3 1 2 1 0)
1969-12-31 18:00:08.793574633,(2 4 5 -3 -5 0 -1 1)
1969-12-31 18:00:08.793574633,(4 4 3 7 -3 4 2 3)
1969-12-31 18:00:08.829812770,(-3 -6 -1 -3 0 -1 -1 -1)
1969-12-31 18:00:08.829812770,(-1 2 -2 -9 -6 -2 -3 -3)
1969-12-31 18:00:08.832228645,(2 2 0 5 4 6 2 0)
1969-12-31 18:00:08.832228645,(4 2 2 -2 -2 -2 1 4)
1969-12-31 18:00:08.857595341,(1 2 3 -1 4 3 0 0)
1969-12-31 18:00:08.857595341,(1 3 2 -6 -3 -2 0 0)
1969-12-31 18:00:08.858803279,(-3 -6 -13 -23 -11 -3 0 0)
1969-12-31 18:00:08.858803279,(0 3 0 -4 -6 -3 -3 -1)
1969-12-31 18:00:08.864842968,(-1 0 7 18 9 2 -1 -3)
1969-12-31 18:00:08.864842968,(1 -1 3 20 2 -1 0 0)
1969-12-31 18:00:08.875714409,(-4 -7 -12 -16 -6 -5 -3 -4)
1969-12-31 18:00:08.875714409,(0 2 3 17 18 5 6 2)
1969-12-31 18:00:08.893833477,(1 1 2 6 8 3 3 1)
1969-12-31 18:00:08.893833477,(-2 1 4 -4 -6 -2 -1 -2)
1969-12-31 18:00:08.895041415,(-5 -4 -7 1 2 -2 -3 -2)
1969-12-31 18:00:08.895041415,(-1 -1 -11 -46 -28 -12 -5 -2)
1969-12-31 18:00:08.967517688,(-2 -3 -5 33 5 0 -3 -1)
1969-12-31 18:00:08.967517688,(3 2 4 -20 -3 1 0 3)
1969-12-31 18:00:08.968725626,(2 5 19 62 15 9 3 -1)
1969-12-31 18:00:08.968725626,(4 2 -3 1 8 5 2 1)
1969-12-31 18:00:08.974765315,(1 2 -4 -19 -9 -3 1 2)
1969-12-31 18:00:08.975973253,(-3 -8 -9 -21 -7 0 -3 -3)
1969-12-31 18:00:08.977181191,(-8 -9 -30 -58 -44 -18 -8 -6)
1969-12-31 18:00:08.977181191,(10 12 15 -4 14 11 7 7)
1969-12-31 18:00:08.978389129,(0 8 33 70 35 15 2 -2)
1969-12-31 18:00:08.978389129,(-2 -2 3 11 10 3 2 -2)
1969-12-31 18:00:08.992884383,(1 -3 -14 -42 -18 -6 1 2)
1969-12-31 18:00:08.992884383,(1 0 -2 -9 -8 -6 -2 0)
1969-12-31 18:00:08.995300259,(-3 -1 2 11 10 3 -2 -2)
1969-12-31 18:00:08.995300259,(-2 -2 0 7 -2 -3 -2 -3)
1969-12-31 18:00:09.008587575,(2 -2 -5 -18 -6 -3 0 2)
1969-12-31 18:00:09.008587575,(0 -2 2 10 1 0 -1 -2)
1969-12-31 18:00:09.049657463,(-1 -1 0 -6 2 -4 0 -1)
1969-12-31 18:00:09.049657463,(0 -2 -1 2 -1 2 -2 -1)
1969-12-31 18:00:09.050865401,(-2 -6 -12 -31 -17 -6 -1 -1)
1969-12-31 18:00:09.050865401,(1 1 8 29 22 4 -1 0)
1969-12-31 18:00:09.054489215,(-2 1 -4 4 -9 -3 0 1)
1969-12-31 18:00:09.054489215,(1 -2 -5 -30 -12 -3 -1 3)
1969-12-31 18:00:09.065360656,(-4 2 28 65 32 10 -2 -4)
1969-12-31 18:00:09.065360656,(-4 1 5 3 13 6 0 -2)
1969-12-31 18:00:09.067776531,(0 0 2 2 7 3 1 0)
1969-12-31 18:00:09.067776531,(-2 -5 -9 -2 -9 -7 1 -3)
1969-12-31 18:00:09.082271786,(2 -3 -21 -47 -28 -10 -1 0)
1969-12-31 18:00:09.082271786,(0 1 1 0 -9 -2 -1 -1)
1969-12-31 18:00:09.113678171,(0 2 6 10 8 8 3 4)
1969-12-31 18:00:09.113678171,(-4 -2 -2 3 -1 -3 -7 -6)
1969-12-31 18:00:09.113678171,(1 -1 -3 -16 -6 -5 -2 2)
1969-12-31 18:00:09.113678171,(-1 -1 1 3 -1 -2 1 -1)
1969-12-31 18:00:09.118509922,(-1 -3 -1 -8 -3 -1 1 -3)
1969-12-31 18:00:09.118509922,(-2 0 3 9 6 2 1 0)
1969-12-31 18:00:09.137836928,(1 2 1 4 3 0 1 1)
1969-12-31 18:00:09.137836928,(-1 -1 -7 -12 -20 -6 -3 -1)
1969-12-31 18:00:09.139044866,(0 -3 -8 -10 10 -2 -3 2)
1969-12-31 18:00:09.139044866,(-1 1 5 2 2 0 1 -1)
1969-12-31 18:00:09.165619500,(-3 0 0 6 3 2 1 0)
1969-12-31 18:00:09.165619500,(-1 0 4 15 -1 0 0 0)
1969-12-31 18:00:09.168035375,(1 1 6 5 1 1 1 0)
1969-12-31 18:00:09.168035375,(1 1 5 15 8 2 -2 0)
1969-12-31 18:00:09.182530630,(-3 -3 -8 -26 -11 -4 -2 -2)
1969-12-31 18:00:09.183738568,(-2 -3 -5 -5 -1 -1 0 -1)
1969-12-31 18:00:09.184946506,(-1 0 1 5 0 3 3 3)
1969-12-31 18:00:09.184946506,(-2 -2 -1 5 3 1 0 -1)
1969-12-31 18:00:09.210313201,(1 -2 -6 -12 -9 -4 0 0)
1969-12-31 18:00:09.210313201,(1 -2 -2 -5 -3 -5 -2 0)
1969-12-31 18:00:09.212729077,(-1 0 3 3 2 -1 -1 -3)
1969-12-31 18:00:09.212729077,(1 2 0 3 -1 0 -1 -1)
1969-12-31 18:00:09.227224330,(0 -2 -1 1 2 -1 0 -1)
1969-12-31 18:00:09.227224330,(0 0 -1 -5 0 0 -2 0)
1969-12-31 18:00:09.238095772,(1 0 0 -3 -3 0 0 0)
1969-12-31 18:00:09.238095772,(-2 1 1 2 1 3 -1 -1)
1969-12-31 18:00:09.283997412,(-2 -1 0 2 3 2 -1 -2)
1969-12-31 18:00:09.283997412,(-2 0 -3 -6 -1 -2 1 2)
1969-12-31 18:00:09.286413287,(1 1 -1 -1 -4 -2 1 -1)
1969-12-31 18:00:09.286413287,(1 0 0 4 2 -1 0 0)
1969-12-31 18:00:09.287621225,(-1 0 -2 1 0 -2 -2 -1)
1969-12-31 18:00:09.287621225,(-2 -1 -1 -7 -5 -1 0 0)
1969-12-31 18:00:09.292452977,(0 -2 1 0 -1 0 -1 -2)
1969-12-31 18:00:09.292452977,(-1 -2 0 4 1 0 0 1)
1969-12-31 18:00:09.299700604,(-3 0 0 -1 -2 -1 -1 -1)
1969-12-31 18:00:09.299700604,(1 0 -2 -6 -1 1 1 1)
1969-12-31 18:00:09.310572045,(0 0 -1 -1 0 -1 -2 -3)
1969-12-31 18:00:09.310572045,(-2 1 0 4 2 -2 -2 0)
1969-12-31 18:00:09.327483175,(0 -1 -2 0 -3 -1 -1 -1)
1969-12-31 18:00:09.327483175,(0 -2 -1 -1 -2 -1 1 0)
1969-12-31 18:00:09.329899051,(0 0 0 -1 -1 -3 1 2)
1969-12-31 18:00:09.329899051,(-1 -2 0 0 -3 -2 -1 -2)
1969-12-31 18:00:09.355265746,(0 0 -2 -2 1 0 -1 -1)
1969-12-31 18:00:09.355265746,(0 0 -2 -1 1 -1 -3 -1)
1969-12-31 18:00:09.357681622,(0 -1 -1 -1 -1 3 0 -1)
1969-12-31 18:00:09.357681622,(-1 0 1 0 0 -1 0 -1)
1969-12-31 18:00:09.357681622,(-2 -2 -3 -9 -9 0 -1 -3)
1969-12-31 18:00:09.357681622,(4 -9 -18 -10 -14 -2 2 6)
1969-12-31 18:00:09.358889560,(-10 -2 -2 -29 6 -4 -7 -7)
1969-12-31 18:00:09.358889560,(7 4 15 62 15 5 3 4)
1969-12-31 18:00:09.366137187,(5 8 20 40 31 11 8 2)
1969-12-31 18:00:09.366137187,(4 5 -1 6 0 -5 -7 -2)
1969-12-31 18:00:09.383048318,(-5 -10 -17 -10 -25 4 4 -2)
1969-12-31 18:00:09.383048318,(-6 -6 -19 -63 -3 -7 -6 -3)
1969-12-31 18:00:09.391503883,(-6 -2 7 26 -2 -4 -4 -5)
1969-12-31 18:00:09.391503883,(-2 2 12 10 3 3 1 -3)
1969-12-31 18:00:09.420494392,(3 2 -4 -1 10 2 0 0)
1969-12-31 18:00:09.420494392,(-2 -8 1 4 -5 8 5 5)
1969-12-31 18:00:09.422910267,(-2 -3 -10 1 -6 -8 -4 -3)
1969-12-31 18:00:09.422910267,(1 3 -6 -44 -11 -3 0 0)
1969-12-31 18:00:09.427742019,(0 1 -12 -50 -35 -9 -5 -4)
1969-12-31 18:00:09.427742019,(-1 -4 8 64 36 5 0 -2)
1969-12-31 18:00:09.477267472,(5 6 17 36 30 10 3 4)
1969-12-31 18:00:09.477267472,(-5 -5 -10 -37 -16 6 6 -1)
1969-12-31 18:00:09.478475409,(25 18 24 78 34 10 8 18)
1969-12-31 18:00:09.478475409,(-14 -2 8 -49 -28 -13 -11 -15)
1969-12-31 18:00:09.494178602,(0 -3 -17 -30 -16 -5 0 2)
1969-12-31 18:00:09.494178602,(-2 -6 6 23 3 -9 -6 -2)
1969-12-31 18:00:09.494178602,(-5 -6 -27 -54 -26 0 2 -2)
1969-12-31 18:00:09.495386539,(7 -3 -2 12 7 -1 0 5)
1969-12-31 18:00:09.496594478,(-9 2 15 -5 -16 -3 -4 -6)
1969-12-31 18:00:09.496594478,(2 -1 -19 -27 -8 -3 -1 1)
1969-12-31 18:00:09.500218292,(4 3 14 49 35 6 2 4)
1969-12-31 18:00:09.500218292,(-4 4 -7 -28 -24 -1 -2 -5)
1969-12-31 18:00:09.520753236,(7 -6 -21 -30 -27 -6 3 4)
1969-12-31 18:00:09.520753236,(2 11 40 118 46 6 -2 -1)
1969-12-31 18:00:09.528000863,(-12 -4 18 19 48 13 -1 -7)
1969-12-31 18:00:09.528000863,(4 1 -5 -17 -6 -3 1 3)
1969-12-31 18:00:09.536456428,(6 1 -26 -58 -25 2 8 7)
1969-12-31 18:00:09.536456428,(-1 -9 -15 -18 -11 -1 -1 -2)
1969-12-31 18:00:09.555783434,(-11 -7 -13 -32 -34 -18 -7 -9)
1969-12-31 18:00:09.555783434,(11 14 11 9 20 10 5 6)
1969-12-31 18:00:09.564238999,(-9 -3 19 43 6 1 -4 -7)
1969-12-31 18:00:09.564238999,(5 1 -12 -2 6 2 2 2)
1969-12-31 18:00:09.572694564,(-1 -1 12 25 8 -3 -1 0)
1969-12-31 18:00:09.572694564,(-14 -8 -20 -108 -50 -20 -12 -11)
1969-12-31 18:00:09.583566005,(6 4 0 50 7 -5 0 3)
1969-12-31 18:00:09.583566005,(0 2 -11 -18 0 3 2 1)
1969-12-31 18:00:09.600477135,(3 0 22 18 26 17 5 5)
1969-12-31 18:00:09.601685073,(-2 4 4 43 8 -1 -1 -1)
1969-12-31 18:00:09.608932701,(-3 -7 -2 -18 -22 -5 -4 -3)
1969-12-31 18:00:09.608932701,(-13 -3 6 -2 23 -5 -5 -8)
1969-12-31 18:00:09.648794651,(3 -3 -22 -37 -20 -4 0 3)
1969-12-31 18:00:09.650002588,(-4 -3 5 -6 -7 4 1 0)
1969-12-31 18:00:09.651210526,(5 9 11 25 27 7 1 3)
1969-12-31 18:00:09.651210526,(-6 -7 -3 3 -11 -9 -4 0)
1969-12-31 18:00:09.652418464,(-1 -1 1 -1 -15 -6 -3 -4)
1969-12-31 18:00:09.652418464,(7 9 11 46 30 9 5 4)
1969-12-31 18:00:09.656042278,(-3 -7 -15 -40 -9 -3 -2 -1)
1969-12-31 18:00:09.656042278,(0 0 -6 -19 -12 -3 -2 0)
1969-12-31 18:00:09.675369284,(-1 2 7 21 -1 -2 -2 -1)
1969-12-31 18:00:09.675369284,(-2 -6 -12 -2 -7 -1 1 0)
1969-12-31 18:00:09.681408973,(-2 -4 -6 -34 -1 -3 -4 -5)
1969-12-31 18:00:09.681408973,(1 1 5 19 4 2 2 1)
1969-12-31 18:00:09.730934426,(-1 -3 -17 -22 -24 -11 -4 -2)
1969-12-31 18:00:09.730934426,(-1 5 25 28 31 10 4 -1)
1969-12-31 18:00:09.732142364,(0 -2 2 10 10 2 1 0)
1969-12-31 18:00:09.732142364,(-3 1 9 8 -1 2 0 -1)
1969-12-31 18:00:09.733350302,(0 -2 -5 4 -11 -6 -1 -1)
1969-12-31 18:00:09.733350302,(-1 -8 -20 -23 -12 -6 -2 -2)
1969-12-31 18:00:09.758716997,(0 -1 1 -19 3 2 -2 0)
1969-12-31 18:00:09.758716997,(2 2 8 47 4 1 2 1)
1969-12-31 18:00:09.759924935,(0 1 -2 -18 -3 2 3 1)
1969-12-31 18:00:09.759924935,(-2 -3 0 16 -4 -5 -5 -3)
1969-12-31 18:00:09.763548749,(1 -2 -3 -3 -1 0 2 1)
1969-12-31 18:00:09.763548749,(3 2 -3 -15 -4 2 3 1)
1969-12-31 18:00:09.773212252,(-1 -4 3 12 3 -3 -2 2)
1969-12-31 18:00:09.773212252,(-2 -3 -5 -8 -5 -2 0 1)
1969-12-31 18:00:09.811866264,(-7 -2 -3 1 -2 -3 -5 -11)
1969-12-31 18:00:09.811866264,(5 1 0 -15 -3 1 -2 2)
1969-12-31 18:00:09.811866264,(3 11 9 9 7 4 1 0)
1969-12-31 18:00:09.811866264,(19 1 -4 -11 -10 0 3 11)
1969-12-31 18:00:09.814282140,(-27 -10 -8 1 5 7 1 -9)
1969-12-31 18:00:09.814282140,(-1 -2 4 -2 1 -2 -5 -7)
1969-12-31 18:00:09.817905953,(-8 -4 2 7 2 -5 -8 -11)
1969-12-31 18:00:09.817905953,(1 4 -7 -5 -4 -2 3 4)
1969-12-31 18:00:09.826361519,(10 2 0 3 4 -3 4 7)
1969-12-31 18:00:09.826361519,(-1 -2 -1 -7 -1 -1 3 3)
1969-12-31 18:00:09.845688525,(-3 -6 -3 7 -1 -5 -3 -2)
1969-12-31 18:00:09.845688525,(1 -1 -3 -3 -2 -4 -3 0)
1969-12-31 18:00:09.854144090,(3 3 0 -10 -5 -2 -2 1)
1969-12-31 18:00:09.854144090,(-6 -4 -2 11 1 1 -1 -3)
1969-12-31 18:00:09.874679034,(11 5 -1 -23 -4 2 1 2)
1969-12-31 18:00:09.874679034,(-10 -3 11 51 20 9 1 -7)
1969-12-31 18:00:09.875886972,(28 9 -4 -7 2 4 3 8)
1969-12-31 18:00:09.875886972,(1 10 3 -4 0 3 0 -2)
1969-12-31 18:00:09.891590164,(8 -14 -2 -3 -2 2 0 -2)
1969-12-31 18:00:09.891590164,(-3 7 -8 -15 -6 1 3 -3)
1969-12-31 18:00:09.898837791,(-27 -13 -1 -2 -11 -15 -21 -28)
1969-12-31 18:00:09.898837791,(4 0 1 -10 -5 -1 2 8)
1969-12-31 18:00:09.918164797,(-1 9 7 20 13 4 5 4)
1969-12-31 18:00:09.918164797,(-3 -7 -3 -14 -9 -2 1 2)
1969-12-31 18:00:09.935075928,(11 0 -1 6 4 2 9 10)
1969-12-31 18:00:09.935075928,(-7 -4 0 -5 -2 -4 -5 -8)
1969-12-31 18:00:09.945947368,(-4 0 -1 -2 -6 -2 -2 2)
1969-12-31 18:00:09.945947368,(-3 -2 3 8 -1 0 -6 -4)
1969-12-31 18:00:09.948363244,(1 -1 -4 -9 -1 2 2 4)
1969-12-31 18:00:09.948363244,(3 -1 3 -1 -3 -1 -1 -1)
1969-12-31 18:00:09.983393443,(-5 -1 2 18 9 3 2 4)
1969-12-31 18:00:09.983393443,(11 3 -8 -13 -4 -3 -3 2)
1969-12-31 18:00:09.984601381,(-15 -5 1 -3 2 5 4 1)
1969-12-31 18:00:09.984601381,(12 4 4 1 -2 -3 -1 2)
1969-12-31 18:00:09.990641070,(-4 -5 -7 -21 -27 -12 -11 -12)
1969-12-31 18:00:09.990641070,(-5 -3 -4 -19 11 -2 -2 -5)
1969-12-31 18:00:09.997888697,(5 4 6 40 14 2 2 5)
1969-12-31 18:00:09.999096635,(1 -2 -2 -8 -10 1 3 6)
1969-12-31 18:00:10.018423641,(-7 -1 -3 -16 4 -4 -3 -3)
1969-12-31 18:00:10.018423641,(6 2 0 8 -9 0 2 5)
1969-12-31 18:00:10.020839517,(2 0 -1 1 -4 -5 -1 6)
1969-12-31 18:00:10.020839517,(-13 0 -7 -25 -4 2 -3 -15)
1969-12-31 18:00:10.035334771,(1 1 -6 -6 -5 -3 0 0)
1969-12-31 18:00:10.035334771,(-7 0 31 72 18 2 -1 -6)
1969-12-31 18:00:10.046206212,(6 2 9 15 12 6 3 5)
1969-12-31 18:00:10.046206212,(-9 -4 3 21 1 -1 1 -1)
1969-12-31 18:00:10.063117343,(1 0 -2 -15 0 1 0 0)
1969-12-31 18:00:10.063117343,(-14 3 -15 -39 -12 -4 -1 -3)
1969-12-31 18:00:10.080028473,(37 15 4 -1 -3 4 9 15)
1969-12-31 18:00:10.080028473,(-7 -17 -15 -21 -6 -6 -4 -1)
1969-12-31 18:00:10.090899914,(9 9 9 15 5 -2 -7 -8)
1969-12-31 18:00:10.090899914,(-3 -5 -6 -7 -8 -7 -3 3)
1969-12-31 18:00:10.093315789,(-13 -5 -6 -14 -2 -4 -3 -11)
1969-12-31 18:00:10.093315789,(23 7 2 -12 7 10 13 16)
1969-12-31 18:00:10.107811044,(-9 -8 -8 -6 -6 -4 1 0)
1969-12-31 18:00:10.107811044,(-9 0 1 -16 -7 -5 -7 -14)
1969-12-31 18:00:10.147672994,(4 -1 -1 5 0 -3 0 7)
1969-12-31 18:00:10.147672994,(-25 4 22 39 22 7 -1 -14)
1969-12-31 18:00:10.148880932,(6 2 3 18 5 8 7 3)
1969-12-31 18:00:10.148880932,(13 -2 -20 -49 -15 -8 -4 -4)
1969-12-31 18:00:10.152504745,(-18 -11 2 -6 -11 -7 -10 -13)
1969-12-31 18:00:10.152504745,(4 1 14 35 10 4 7 7)
1969-12-31 18:00:10.163376186,(15 7 10 18 13 0 -4 8)
1969-12-31 18:00:10.163376186,(-17 -10 -18 -54 -14 2 1 -9)
1969-12-31 18:00:10.165792062,(10 1 -20 -11 -9 -1 5 8)
1969-12-31 18:00:10.165792062,(-5 -1 -5 -2 -6 -8 -6 -5)
1969-12-31 18:00:10.180287317,(-7 1 8 31 9 1 0 -1)
1969-12-31 18:00:10.180287317,(-3 -2 10 26 20 2 1 3)
1969-12-31 18:00:10.198406385,(19 10 14 24 -6 3 2 6)
1969-12-31 18:00:10.198406385,(1 3 -4 -25 -1 1 0 1)
1969-12-31 18:00:10.208069888,(-41 -12 -9 -18 -7 0 2 -10)
1969-12-31 18:00:10.208069888,(62 21 5 11 8 10 13 24)
1969-12-31 18:00:10.216525453,(-25 -9 -5 -34 -1 -3 -8 -13)
1969-12-31 18:00:10.216525453,(-17 -5 -15 -6 -12 -8 -10 -8)
1969-12-31 18:00:10.235852459,(18 9 8 17 11 14 16 17)
1969-12-31 18:00:10.235852459,(-29 -15 2 19 -2 -5 -4 0)
1969-12-31 18:00:10.238268335,(11 11 -1 -29 -7 0 -4 -11)
1969-12-31 18:00:10.238268335,(3 -2 -7 -4 -4 -3 -5 -5)
1969-12-31 18:00:10.252763589,(1 6 6 11 3 0 2 7)
1969-12-31 18:00:10.252763589,(-6 -3 10 21 9 7 2 -7)
1969-12-31 18:00:10.263635030,(3 -3 -16 -30 -11 -5 0 6)
1969-12-31 18:00:10.263635030,(0 -2 0 -2 -5 -8 -1 3)
1969-12-31 18:00:10.319200173,(2 0 0 -5 -9 -7 -7 -10)
1969-12-31 18:00:10.319200173,(-5 -4 -1 9 -14 -3 -2 -3)
1969-12-31 18:00:10.320408110,(-10 -2 0 -4 21 8 4 0)
1969-12-31 18:00:10.320408110,(8 1 2 23 -2 5 2 2)
1969-12-31 18:00:10.321616048,(-8 -8 14 40 3 -5 -4 -7)
1969-12-31 18:00:10.321616048,(8 7 1 7 9 -3 0 6)
1969-12-31 18:00:10.326447800,(-25 -14 -7 -16 -9 -6 -9 -19)
1969-12-31 18:00:10.326447800,(-4 -3 -8 -18 -7 -5 -3 -4)
1969-12-31 18:00:10.333695427,(-12 -4 -7 -21 -8 -1 2 2)
1969-12-31 18:00:10.333695427,(-1 2 5 9 3 2 -1 -5)
1969-12-31 18:00:10.344566868,(1 -2 -2 10 4 0 -2 2)
1969-12-31 18:00:10.344566868,(16 7 3 -14 4 8 13 17)
1969-12-31 18:00:10.361477998,(-14 -11 -14 -21 -9 -5 -9 -13)
1969-12-31 18:00:10.361477998,(3 1 0 -5 -7 -1 -2 4)
1969-12-31 18:00:10.369933563,(4 -3 -11 -22 -1 1 5 6)
1969-12-31 18:00:10.369933563,(-3 0 -8 -8 -1 1 1 -2)
1969-12-31 18:00:10.390468507,(16 9 19 29 6 4 4 10)
1969-12-31 18:00:10.390468507,(-9 -2 12 28 15 -3 -7 -11)
1969-12-31 18:00:10.391676445,(6 -4 1 -6 -5 -1 0 1)
1969-12-31 18:00:10.391676445,(-2 -6 -25 -57 -13 -3 0 3)
1969-12-31 18:00:10.406171700,(4 -2 -11 -12 -15 -2 -2 -2)
1969-12-31 18:00:10.406171700,(1 4 13 30 5 2 0 -2)
1969-12-31 18:00:10.417043141,(-22 -3 18 42 12 3 0 -5)
1969-12-31 18:00:10.417043141,(20 3 5 2 2 1 5 16)
1969-12-31 18:00:10.433954271,(-1 -4 -14 -29 -1 -5 -11 -16)
1969-12-31 18:00:10.435162209,(-3 -6 -17 -35 -18 -6 -2 -2)
1969-12-31 18:00:10.442409836,(-25 -7 6 18 -3 -1 1 -6)
1969-12-31 18:00:10.442409836,(4 -3 7 15 8 -1 0 2)
1969-12-31 18:00:10.481063848,(-30 -15 -6 -8 0 -6 -8 -15)
1969-12-31 18:00:10.481063848,(34 9 -19 -32 -13 -2 6 16)
1969-12-31 18:00:10.483479724,(-5 -4 -11 -40 -12 -1 1 -2)
1969-12-31 18:00:10.483479724,(-7 -4 17 59 14 -7 -9 -13)
1969-12-31 18:00:10.489519413,(11 10 15 30 17 8 5 8)
1969-12-31 18:00:10.489519413,(-15 -3 7 8 9 5 1 -3)
1969-12-31 18:00:10.489519413,(1 1 -6 0 -1 0 3 8)
1969-12-31 18:00:10.489519413,(-16 -11 -9 -21 -12 -5 -12 -21)
1969-12-31 18:00:10.506430544,(9 6 -7 -22 -7 0 8 15)
1969-12-31 18:00:10.506430544,(-14 -11 -4 -6 0 -2 -5 -14)
1969-12-31 18:00:10.516094047,(18 10 0 4 -5 -4 -3 3)
1969-12-31 18:00:10.516094047,(-8 0 4 8 -1 -1 -5 -11)
1969-12-31 18:00:10.535421053,(-14 -10 -4 -3 -1 -3 -3 -6)
1969-12-31 18:00:10.535421053,(-7 -4 -2 -13 -3 2 -2 -4)
1969-12-31 18:00:10.535421053,(12 7 6 16 -3 2 3 5)
1969-12-31 18:00:10.535421053,(2 4 3 6 4 -1 -1 1)
1969-12-31 18:00:10.561995686,(-7 -7 -3 -10 -6 -3 -9 -10)
1969-12-31 18:00:10.561995686,(-5 -6 -22 -51 -10 -1 3 2)
1969-12-31 18:00:10.561995686,(11 3 -2 22 -3 -2 1 5)
1969-12-31 18:00:10.561995686,(4 9 33 90 18 11 9 9)
1969-12-31 18:00:10.578906816,(8 3 17 43 34 7 -1 1)
1969-12-31 18:00:10.578906816,(-13 -10 2 16 3 -3 -3 -1)
1969-12-31 18:00:10.588570319,(-15 -2 -4 -25 0 2 -1 -19)
1969-12-31 18:00:10.588570319,(19 2 -22 -56 -22 -7 1 8)
1969-12-31 18:00:10.606689387,(7 2 -5 -11 -15 -6 -2 -2)
1969-12-31 18:00:10.606689387,(-2 -3 -3 -2 -5 -3 -2 -2)
1969-12-31 18:00:10.607897325,(5 -1 -1 4 4 0 3 7)
1969-12-31 18:00:10.607897325,(-4 1 0 -4 1 -2 -1 0)
1969-12-31 18:00:10.655006903,(6 1 -6 -9 3 3 5 4)
1969-12-31 18:00:10.655006903,(-9 -7 -4 -11 -21 -8 -8 -9)
1969-12-31 18:00:10.656214840,(23 17 10 11 6 6 7 19)
1969-12-31 18:00:10.656214840,(11 11 13 21 14 10 5 -5)
1969-12-31 18:00:10.657422778,(-1 -6 -13 -49 -16 -5 0 0)
1969-12-31 18:00:10.657422778,(2 5 6 52 23 2 -2 0)
1969-12-31 18:00:10.661046592,(-12 -12 10 33 6 -1 -5 -5)
1969-12-31 18:00:10.661046592,(15 7 -3 -17 -3 4 4 10)
1969-12-31 18:00:10.679165660,(-6 -1 -3 -12 -6 -1 -4 -9)
1969-12-31 18:00:10.679165660,(1 2 -3 -18 -11 -4 0 1)
1969-12-31 18:00:10.680373598,(4 -3 -5 -5 -7 -3 -1 1)
1969-12-31 18:00:10.680373598,(-1 -1 -6 -11 5 2 0 3)
1969-12-31 18:00:10.705740293,(-6 -4 -1 5 4 5 4 0)
1969-12-31 18:00:10.705740293,(1 1 -3 -21 -1 -1 1 -1)
1969-12-31 18:00:10.706948231,(0 -1 -4 8 -7 -7 -3 -4)
1969-12-31 18:00:10.706948231,(-13 -6 1 -5 -6 -6 -7 -10)
1969-12-31 18:00:10.723859362,(-2 1 11 30 6 -2 -5 -3)
1969-12-31 18:00:10.723859362,(15 11 5 5 11 11 14 17)
1969-12-31 18:00:10.725067299,(1 -1 -3 -13 -2 -1 -2 -3)
1969-12-31 18:00:10.725067299,(-18 -13 -12 -28 -4 -6 -10 -13)
1969-12-31 18:00:10.751641933,(10 3 -7 1 -6 0 5 11)
1969-12-31 18:00:10.751641933,(22 6 5 24 1 3 6 14)
1969-12-31 18:00:10.752849871,(-23 -4 4 3 7 5 0 -10)
1969-12-31 18:00:10.752849871,(4 2 -2 -7 -3 -5 -7 -6)
1969-12-31 18:00:10.778216566,(7 1 -10 -6 -5 -3 0 4)
1969-12-31 18:00:10.778216566,(-3 -2 2 13 7 -3 -2 -3)
1969-12-31 18:00:10.779424504,(4 -1 10 22 7 3 2 5)
1969-12-31 18:00:10.779424504,(-8 -5 -3 0 -5 -6 -8 -10)
1969-12-31 18:00:10.815662640,(14 7 -1 -15 -5 1 5 10)
1969-12-31 18:00:10.815662640,(-3 -3 -4 -13 -8 1 2 -1)
1969-12-31 18:00:10.816870578,(-12 -11 -7 -5 -2 -6 -10 -12)
1969-12-31 18:00:10.816870578,(14 13 7 1 2 5 9 8)
1969-12-31 18:00:10.824118205,(4 -3 -3 -3 -1 1 1 2)
1969-12-31 18:00:10.824118205,(-16 -4 1 -3 -5 -1 2 4)
1969-12-31 18:00:10.825326143,(15 15 7 9 15 8 -1 -13)
1969-12-31 18:00:10.825326143,(2 -5 -6 1 -5 -3 -3 4)
1969-12-31 18:00:10.860356342,(-20 -6 2 6 -2 -4 -8 -14)
1969-12-31 18:00:10.861564280,(-40 -29 -8 -3 -1 -8 -20 -22)
1969-12-31 18:00:10.861564280,(85 46 5 -8 3 11 20 42)
1969-12-31 18:00:10.861564280,(-36 -21 -6 7 -1 -6 -9 -18)
1969-12-31 18:00:10.868811907,(0 1 5 0 1 1 7 10)
1969-12-31 18:00:10.868811907,(14 5 -1 -6 -4 -5 -3 0)
1969-12-31 18:00:10.878475410,(-40 -22 -5 -29 -20 -11 -11 -22)
1969-12-31 18:00:10.878475410,(21 10 4 24 12 7 13 24)
1969-12-31 18:00:10.896594478,(-12 -7 -13 0 18 -1 -9 -15)
1969-12-31 18:00:10.896594478,(1 3 14 21 -9 -2 0 2)
1969-12-31 18:00:10.897802416,(-4 -14 -3 2 -5 -6 -8 -6)
1969-12-31 18:00:10.897802416,(-29 2 6 -4 -3 -1 6 -10)
1969-12-31 18:00:10.923169111,(27 5 -5 -20 -10 -2 4 13)
1969-12-31 18:00:10.923169111,(-14 -7 -8 -7 1 -8 -17 -22)
1969-12-31 18:00:10.924377049,(-5 7 -9 5 5 8 7 4)
1969-12-31 18:00:10.924377049,(-25 -19 -2 -1 2 5 -1 -10)
1969-12-31 18:00:10.941288179,(-2 22 7 2 -2 5 9 6)
1969-12-31 18:00:10.942496117,(-15 -29 -9 -16 -5 0 -5 -11)
1969-12-31 18:00:10.942496117,(6 12 2 4 0 -5 -6 -2)
1969-12-31 18:00:10.942496117,(-20 -11 -11 -23 -15 -12 -13 -19)
1969-12-31 18:00:10.988397757,(26 10 -9 -27 -13 -1 3 12)
1969-12-31 18:00:10.988397757,(-24 1 11 42 21 9 4 -8)
1969-12-31 18:00:10.989605695,(-22 -20 6 4 4 2 4 7)
1969-12-31 18:00:10.989605695,(17 7 8 14 4 2 1 3)
1969-12-31 18:00:10.995645384,(7 13 14 14 -1 -3 -6 0)
1969-12-31 18:00:10.995645384,(-54 -47 -37 -65 -29 -24 -27 -43)
1969-12-31 18:00:10.996853322,(6 6 -9 4 16 14 21 30)
1969-12-31 18:00:10.996853322,(83 23 4 11 4 1 11 37)
1969-12-31 18:00:11.013764452,(-47 -27 -3 3 -12 -18 -30 -48)
1969-12-31 18:00:11.013764452,(73 48 16 -2 12 20 31 51)
1969-12-31 18:00:11.014972390,(-24 -14 -4 -5 -1 -3 -7 -16)
1969-12-31 18:00:11.014972390,(-37 -33 -19 -28 -13 -7 -7 -11)
1969-12-31 18:00:11.041547023,(-7 -1 11 19 9 5 2 -8)
1969-12-31 18:00:11.041547023,(16 20 13 26 -1 -5 1 5)
1969-12-31 18:00:11.050002588,(13 6 -20 -44 -9 -7 -4 1)
1969-12-31 18:00:11.050002588,(13 16 0 -9 9 9 9 10)
1969-12-31 18:00:11.068121657,(5 -11 5 31 7 4 6 10)
1969-12-31 18:00:11.068121657,(-12 -1 18 31 0 -3 -8 -12)
1969-12-31 18:00:11.069329594,(-7 -4 21 44 12 1 0 4)
1969-12-31 18:00:11.069329594,(54 37 -4 -3 -1 0 0 9)
1969-12-31 18:00:11.086240725,(5 2 -7 -14 3 8 9 9)
1969-12-31 18:00:11.086240725,(6 3 -13 -31 -2 5 8 4)
1969-12-31 18:00:11.087448663,(-23 -15 -4 12 -2 -12 -18 -27)
1969-12-31 18:00:11.087448663,(-8 -6 7 1 -3 -3 0 3)
1969-12-31 18:00:11.114023296,(-5 -11 -5 -2 -7 -10 -11 -4)
1969-12-31 18:00:11.114023296,(35 26 5 -1 8 20 21 23)
1969-12-31 18:00:11.115231234,(-12 -10 0 -7 -6 -7 -12 -14)
1969-12-31 18:00:11.115231234,(-11 5 2 -10 -1 5 4 -2)
1969-12-31 18:00:11.162340811,(11 5 -17 -37 -12 -5 0 5)
1969-12-31 18:00:11.162340811,(-10 -12 8 62 2 1 -2 -4)
1969-12-31 18:00:11.163548749,(7 10 19 31 5 2 5 6)
1969-12-31 18:00:11.163548749,(-3 -1 6 21 10 1 1 3)
1969-12-31 18:00:11.164756687,(11 8 -10 -42 -2 6 8 12)
1969-12-31 18:00:11.164756687,(5 -3 -19 -58 -14 -7 -3 0)
1969-12-31 18:00:11.168380500,(-24 -15 5 27 2 -5 -13 -22)
1969-12-31 18:00:11.168380500,(-5 0 11 25 -1 2 1 6)
1969-12-31 18:00:11.187707506,(-16 -10 2 2 9 -1 -5 -9)
1969-12-31 18:00:11.187707506,(32 22 -9 -33 -2 0 6 13)
1969-12-31 18:00:11.188915444,(6 1 -6 -13 -19 -1 3 6)
1969-12-31 18:00:11.188915444,(-21 -13 -5 -18 -11 -9 -12 -15)
1969-12-31 18:00:11.213074202,(-4 -2 10 32 23 3 2 -2)
1969-12-31 18:00:11.213074202,(-8 -6 15 63 28 5 0 -1)
1969-12-31 18:00:11.214282140,(20 13 -3 -22 -6 -1 6 10)
1969-12-31 18:00:11.214282140,(-6 -6 -22 -43 -15 -5 -4 -5)
1969-12-31 18:00:11.231193269,(2 -4 -2 20 -10 -4 -1 3)
1969-12-31 18:00:11.231193269,(1 3 3 -10 -9 -10 -7 -5)
1969-12-31 18:00:11.232401208,(54 31 6 7 16 10 18 34)
1969-12-31 18:00:11.232401208,(-33 -18 -20 -36 -11 -1 -11 -22)
1969-12-31 18:00:11.258975841,(-4 1 14 16 -6 -1 0 -3)
1969-12-31 18:00:11.258975841,(-23 -20 -3 10 -4 -9 -11 -13)
1969-12-31 18:00:11.260183779,(29 13 -10 -23 0 -2 5 24)
1969-12-31 18:00:11.260183779,(-8 1 -8 -23 -1 -5 -8 -21)
1969-12-31 18:00:11.285550475,(-21 -9 7 36 2 -1 -4 -8)
1969-12-31 18:00:11.285550475,(18 2 11 14 13 10 13 10)
1969-12-31 18:00:11.286758412,(-45 -31 -17 -10 -17 -20 -24 -20)
1969-12-31 18:00:11.286758412,(-8 1 6 21 8 7 -1 -8)
1969-12-31 18:00:11.324204487,(16 8 -5 -22 -5 5 8 12)
1969-12-31 18:00:11.324204487,(-9 -4 -11 -35 -2 -7 -5 -7)
1969-12-31 18:00:11.325412425,(-12 -7 3 -8 -17 1 1 -8)
1969-12-31 18:00:11.325412425,(-3 -3 15 48 8 -1 1 2)
1969-12-31 18:00:11.331452114,(5 1 5 23 10 -2 -3 4)
1969-12-31 18:00:11.331452114,(7 6 0 1 6 6 2 6)
1969-12-31 18:00:11.332660052,(2 -2 -10 -22 0 1 0 -7)
1969-12-31 18:00:11.332660052,(15 6 -5 -13 -6 -4 -1 4)
1969-12-31 18:00:11.358026747,(7 10 6 -8 -4 5 8 7)
1969-12-31 18:00:11.358026747,(-39 -18 -10 -31 -12 -2 1 -11)
1969-12-31 18:00:11.359234685,(75 50 11 8 8 6 12 30)
1969-12-31 18:00:11.359234685,(2 -7 10 17 7 6 6 1)
1969-12-31 18:00:11.376145815,(14 0 -8 10 4 -4 -3 3)
1969-12-31 18:00:11.376145815,(0 -1 -4 -7 -8 -3 -4 -1)
1969-12-31 18:00:11.377353753,(-18 -10 2 -1 1 1 0 -10)
1969-12-31 18:00:11.377353753,(-4 -4 -8 -23 -11 -2 7 11)
1969-12-31 18:00:11.403928387,(1 6 1 4 3 1 3 1)
1969-12-31 18:00:11.403928387,(38 22 8 14 5 2 3 18)
1969-12-31 18:00:11.405136324,(-48 -25 -4 3 -1 -5 -11 -26)
1969-12-31 18:00:11.405136324,(-1 -1 -4 3 -2 -4 -2 5)
1969-12-31 18:00:11.431710958,(-30 -31 -21 -33 6 -2 -7 -18)
1969-12-31 18:00:11.431710958,(7 14 0 -4 -26 -10 -6 -8)
1969-12-31 18:00:11.432918896,(86 32 30 35 33 33 43 65)
1969-12-31 18:00:11.432918896,(-26 -8 1 2 -1 -11 -19 -26)
1969-12-31 18:00:11.459493529,(8 -3 -2 -13 -3 -1 6 14)
1969-12-31 18:00:11.459493529,(-37 -17 -9 -3 5 5 1 -14)
1969-12-31 18:00:11.460701467,(-38 -23 -19 -9 -16 -17 -17 -25)
1969-12-31 18:00:11.460701467,(49 32 11 -17 -4 2 7 23)
1969-12-31 18:00:11.486068162,(-14 -10 -7 -17 -5 -3 -2 -4)
1969-12-31 18:00:11.486068162,(-1 5 11 28 2 -3 -6 -8)
1969-12-31 18:00:11.487276100,(-26 -6 6 21 -6 -5 -11 -17)
1969-12-31 18:00:11.487276100,(-1 -1 3 11 15 4 7 7)
1969-12-31 18:00:11.504187230,(-7 2 -4 -7 -9 -1 -2 -7)
1969-12-31 18:00:11.504187230,(3 -6 -26 -63 -7 -1 1 4)
1969-12-31 18:00:11.505395168,(-3 -1 15 48 10 2 -2 -7)
1969-12-31 18:00:11.505395168,(-10 -7 9 28 15 2 2 1)
1969-12-31 18:00:11.519890423,(3 -4 2 3 -21 -10 -7 -4)
1969-12-31 18:00:11.521098361,(-4 20 9 -9 10 16 17 1)
1969-12-31 18:00:11.539217429,(2 -4 -19 -31 -5 0 -7 -10)
1969-12-31 18:00:11.539217429,(-3 -7 -14 -16 -5 -3 -2 1)
1969-12-31 18:00:11.548880932,(-20 -6 2 -5 3 -1 -3 -10)
1969-12-31 18:00:11.548880932,(14 3 8 29 4 -5 -4 10)
1969-12-31 18:00:11.550088870,(-17 -7 -10 -23 -9 -9 -11 -15)
1969-12-31 18:00:11.550088870,(-5 0 0 -19 -7 7 5 0)
1969-12-31 18:00:11.576663503,(14 7 2 31 20 6 5 10)
1969-12-31 18:00:11.576663503,(-12 -11 8 24 -7 -7 -12 -11)
1969-12-31 18:00:11.577871441,(-12 -5 2 2 7 3 2 -3)
1969-12-31 18:00:11.577871441,(32 8 0 -3 0 11 16 23)
1969-12-31 18:00:11.593574633,(-3 3 -10 -24 -11 -2 -2 -1)
1969-12-31 18:00:11.593574633,(-1 -3 2 4 0 -6 -5 -3)
1969-12-31 18:00:11.603238136,(-25 -15 -5 -19 -14 -6 1 1)
1969-12-31 18:00:11.603238136,(34 22 -1 1 0 4 4 5)
1969-12-31 18:00:11.621357204,(4 11 7 -3 4 3 -4 -7)
1969-12-31 18:00:11.621357204,(1 -5 3 5 -8 -1 -4 -5)
1969-12-31 18:00:11.622565142,(12 7 12 12 1 9 22 32)
1969-12-31 18:00:11.622565142,(-49 -19 -1 -17 -15 -14 -17 -18)
1969-12-31 18:00:11.660011217,(45 21 13 47 24 17 18 22)
1969-12-31 18:00:11.660011217,(-19 -21 -5 12 16 3 -5 -5)
1969-12-31 18:00:11.661219154,(16 17 -7 -20 -4 -1 0 -1)
1969-12-31 18:00:11.661219154,(-22 -7 -3 -13 -6 -6 -4 -9)
1969-12-31 18:00:11.666050906,(-12 -3 -1 -6 -14 -4 -5 -9)
1969-12-31 18:00:11.666050906,(8 7 5 1 -2 0 8 15)
1969-12-31 18:00:11.675714409,(-12 -5 1 17 14 3 2 -5)
1969-12-31 18:00:11.675714409,(18 1 -2 12 5 0 0 5)
1969-12-31 18:00:11.693833477,(-39 -22 -22 -63 -26 -15 -22 -33)
1969-12-31 18:00:11.693833477,(-23 -19 -4 6 -1 -3 -2 -4)
1969-12-31 18:00:11.695041415,(60 36 24 39 23 22 29 38)
1969-12-31 18:00:11.695041415,(6 14 6 9 4 -6 -9 -6)
1969-12-31 18:00:11.721616048,(4 -9 -5 -4 -1 0 3 6)
1969-12-31 18:00:11.721616048,(-10 -3 -10 -31 -13 -7 -6 -9)
1969-12-31 18:00:11.722823986,(-31 -23 -13 -15 2 -12 -18 -20)
1969-12-31 18:00:11.722823986,(2 3 10 35 -4 -3 2 8)
1969-12-31 18:00:11.738527179,(29 27 19 24 10 8 9 11)
1969-12-31 18:00:11.738527179,(11 7 -5 -14 1 -1 -1 4)
1969-12-31 18:00:11.748190682,(-18 -11 -21 -62 -24 -8 -10 -13)
1969-12-31 18:00:11.748190682,(0 -12 -16 -38 -3 0 1 1)
1969-12-31 18:00:11.766309750,(-7 0 18 64 11 0 -1 0)
1969-12-31 18:00:11.766309750,(11 9 23 50 11 2 -1 0)
1969-12-31 18:00:11.767517688,(-5 1 3 9 3 -9 -12 -13)
1969-12-31 18:00:11.767517688,(-4 -2 1 -1 -1 2 4 0)
1969-12-31 18:00:11.794092321,(7 3 -15 -50 -15 -5 0 8)
1969-12-31 18:00:11.794092321,(5 1 -12 -17 -4 3 6 5)
1969-12-31 18:00:11.795300259,(-41 -28 -3 10 -5 0 3 -3)
1969-12-31 18:00:11.795300259,(67 29 -1 10 9 7 10 19)
1969-12-31 18:00:11.821874892,(-38 -24 -11 -20 -13 -16 -20 -29)
1969-12-31 18:00:11.821874892,(8 5 0 11 -1 -4 -1 4)
1969-12-31 18:00:11.823082830,(-24 -13 1 -4 -4 -7 -13 -13)
1969-12-31 18:00:11.823082830,(5 -2 2 11 8 8 13 15)
1969-12-31 18:00:11.838786022,(5 -1 -19 -58 -12 0 2 7)
1969-12-31 18:00:11.838786022,(7 1 -5 -26 -18 -1 0 0)
1969-12-31 18:00:11.839993960,(-6 -1 13 46 11 -10 -16 -14)
1969-12-31 18:00:11.839993960,(-24 -4 21 51 20 0 -5 -13)
1969-12-31 18:00:11.866568594,(13 8 4 7 13 6 7 8)
1969-12-31 18:00:11.866568594,(-9 -9 -23 -70 -29 -6 0 -1)
1969-12-31 18:00:11.867776531,(11 5 -6 -10 -9 0 4 5)
1969-12-31 18:00:11.867776531,(-23 -9 10 21 0 -6 -12 -19)
1969-12-31 18:00:11.894351165,(6 4 4 15 16 6 4 5)
1969-12-31 18:00:11.894351165,(8 6 2 10 12 3 5 7)
1969-12-31 18:00:11.894351165,(24 13 -5 -12 -12 -3 7 13)
1969-12-31 18:00:11.894351165,(-27 -12 -14 -22 -9 -9 -13 -20)
1969-12-31 18:00:11.911262295,(-27 -20 1 13 10 0 -1 -7)
1969-12-31 18:00:11.911262295,(13 15 9 9 -5 6 4 6)
1969-12-31 18:00:11.912470233,(-21 -13 -8 -8 -4 -6 -16 -23)
1969-12-31 18:00:11.912470233,(-62 -22 -7 -3 -1 0 -1 -24)
1969-12-31 18:00:11.939044866,(69 27 6 9 1 1 8 38)
1969-12-31 18:00:11.939044866,(-18 -13 -3 13 6 -8 -9 -14)
1969-12-31 18:00:11.940252804,(-5 0 -1 -10 1 6 2 -2)
1969-12-31 18:00:11.940252804,(-5 -9 -7 -13 -6 -3 -2 2)
1969-12-31 18:00:11.994610009,(-14 -4 3 10 -8 0 -1 -7)
1969-12-31 18:00:11.994610009,(11 5 -2 -15 -1 1 2 5)
1969-12-31 18:00:11.995817947,(14 6 0 5 11 0 0 5)
1969-12-31 18:00:11.995817947,(-1 -3 9 34 11 3 0 0)
1969-12-31 18:00:11.998233822,(22 7 3 9 -2 1 4 12)
1969-12-31 18:00:11.998233822,(-22 -6 7 -1 0 0 -7 -17)
1969-12-31 18:00:12.001857636,(-11 -6 -11 -24 -14 -1 -1 -7)
1969-12-31 18:00:12.001857636,(25 8 -5 8 4 1 5 19)
1969-12-31 18:00:12.011521139,(-20 -9 -2 -11 -7 -9 -16 -24)
1969-12-31 18:00:12.011521139,(0 -2 -5 12 -2 1 3 4)
1969-12-31 18:00:12.012729077,(5 2 -3 -25 1 -1 1 2)
1969-12-31 18:00:12.012729077,(2 -3 3 7 -11 1 -1 1)
1969-12-31 18:00:12.038095772,(-4 4 14 29 8 2 4 3)
1969-12-31 18:00:12.038095772,(-3 -3 -1 0 9 -1 -3 -6)
1969-12-31 18:00:12.039303710,(5 4 -2 -7 0 4 6 3)
1969-12-31 18:00:12.039303710,(19 11 -6 -17 -4 2 6 11)
1969-12-31 18:00:12.056214840,(-9 -6 -22 -68 -37 -11 -1 -3)
1969-12-31 18:00:12.056214840,(-2 -3 -5 5 -1 -5 -3 -3)
1969-12-31 18:00:12.057422778,(-2 2 25 91 45 5 -5 -9)
1969-12-31 18:00:12.057422778,(0 5 15 16 16 11 2 1)
1969-12-31 18:00:12.083997412,(-5 0 10 24 8 6 -1 -3)
1969-12-31 18:00:12.083997412,(10 -6 -13 -36 -16 -5 5 12)
1969-12-31 18:00:12.085205349,(10 7 -8 -34 -24 -4 -7 -6)
1969-12-31 18:00:12.085205349,(-13 -13 -15 -16 -12 -13 -12 -16)
1969-12-31 18:00:12.110572045,(-2 0 -3 -2 18 5 4 5)
1969-12-31 18:00:12.110572045,(-2 -7 -6 -4 -18 -4 -4 -3)
1969-12-31 18:00:12.119027610,(13 8 4 0 -1 1 7 16)
1969-12-31 18:00:12.119027610,(-1 2 1 -3 0 1 -2 -1)
1969-12-31 18:00:12.128691113,(-9 -6 -9 -20 -9 -3 -4 -6)
1969-12-31 18:00:12.128691113,(8 3 -2 -11 -10 -2 2 5)
1969-12-31 18:00:12.129899051,(-5 1 11 61 -8 -4 -1 -4)
1969-12-31 18:00:12.129899051,(3 9 28 64 38 10 5 1)
1969-12-31 18:00:12.158889560,(-2 -3 8 25 28 9 1 -1)
1969-12-31 18:00:12.158889560,(1 5 4 9 23 8 1 1)
1969-12-31 18:00:12.160097498,(1 -3 -22 -74 -33 -6 -1 3)
1969-12-31 18:00:12.160097498,(-9 -13 -22 -43 -35 -14 -10 -9)
1969-12-31 18:00:12.183048318,(8 7 4 17 1 2 12 16)
1969-12-31 18:00:12.183048318,(35 16 7 2 8 4 3 5)
1969-12-31 18:00:12.185464193,(-22 -13 -8 -14 -2 -7 -10 -16)
1969-12-31 18:00:12.185464193,(-12 -7 -7 -13 -19 -3 -2 -5)
1969-12-31 18:00:12.199959448,(16 10 5 6 -3 2 8 17)
1969-12-31 18:00:12.199959448,(-16 -10 -3 4 7 0 -3 -5)
1969-12-31 18:00:12.210830889,(5 -3 -4 -6 -2 2 1 4)
1969-12-31 18:00:12.212038827,(7 2 -4 -15 6 3 6 6)
1969-12-31 18:00:12.228949957,(-6 -3 -19 -36 -21 -6 -3 -1)
1969-12-31 18:00:12.228949957,(-9 2 20 62 17 5 2 0)
1969-12-31 18:00:12.231365833,(4 0 17 43 22 1 -5 -1)
1969-12-31 18:00:12.231365833,(-21 -10 -4 -13 -2 2 3 -2)
1969-12-31 18:00:12.256732528,(-16 -11 -14 -25 -17 -14 -21 -28)
1969-12-31 18:00:12.256732528,(65 38 6 -4 7 14 24 30)
1969-12-31 18:00:12.257940466,(-25 -12 -3 -5 -1 1 -6 -12)
1969-12-31 18:00:12.257940466,(-2 -6 -5 -12 -9 -8 -7 -1)
1969-12-31 18:00:12.283307161,(-6 -5 1 6 0 2 -2 -4)
1969-12-31 18:00:12.283307161,(-19 -10 -3 -6 1 -2 -3 -5)
1969-12-31 18:00:12.285723037,(15 10 4 -5 -2 3 6 9)
1969-12-31 18:00:12.285723037,(20 10 -1 -6 -2 2 5 8)
1969-12-31 18:00:12.330416739,(-13 -7 4 4 13 -1 -2 -6)
1969-12-31 18:00:12.330416739,(-9 -6 0 14 -21 -3 -4 -5)
1969-12-31 18:00:12.331624676,(3 4 3 11 0 2 4 2)
1969-12-31 18:00:12.332832614,(-1 -2 -20 -41 -4 -2 1 2)
1969-12-31 18:00:12.332832614,(6 2 6 19 6 5 4 2)
1969-12-31 18:00:12.332832614,(-12 -1 23 47 24 0 -4 -6)
1969-12-31 18:00:12.337664366,(0 -2 2 10 1 -3 -1 -2)
1969-12-31 18:00:12.337664366,(-5 -4 1 15 -6 -8 -8 -8)
1969-12-31 18:00:12.344911993,(5 1 -6 -22 -4 3 3 4)
1969-12-31 18:00:12.344911993,(-1 3 -5 -33 -6 5 4 2)
1969-12-31 18:00:12.355783434,(2 5 4 -7 -2 0 1 4)
1969-12-31 18:00:12.355783434,(9 2 -5 -7 -2 -7 -3 0)
1969-12-31 18:00:12.375110440,(-9 -11 -20 -9 -15 -14 -9 -8)
1969-12-31 18:00:12.376318378,(-16 -7 19 6 2 3 -2 -6)
1969-12-31 18:00:12.377526316,(7 1 -30 -14 6 -1 4 6)
1969-12-31 18:00:12.377526316,(0 -12 -22 -12 -2 3 -1 1)
1969-12-31 18:00:12.401685073,(-5 7 34 25 4 5 0 -6)
1969-12-31 18:00:12.401685073,(-1 1 -14 1 1 -5 -4 -1)
1969-12-31 18:00:12.402893011,(5 1 10 -17 -8 -1 1 4)
1969-12-31 18:00:12.402893011,(3 7 -4 -9 1 6 5 2)
1969-12-31 18:00:12.428259707,(-2 -2 5 18 6 3 2 0)
1969-12-31 18:00:12.429467645,(-5 3 24 13 0 -2 -3 -7)
1969-12-31 18:00:12.430675582,(1 4 0 0 -3 2 4 1)
1969-12-31 18:00:12.430675582,(4 -7 -22 0 -3 -12 -6 3)
1969-12-31 18:00:12.446378775,(-12 -13 7 -7 -8 -4 -5 -10)
1969-12-31 18:00:12.446378775,(-2 1 -18 -16 4 1 -2 -2)
1969-12-31 18:00:12.448794651,(0 -13 -31 -14 -3 -4 -4 -2)
1969-12-31 18:00:12.448794651,(-2 11 42 22 3 7 6 1)
1969-12-31 18:00:12.492280414,(6 1 -20 0 6 2 2 3)
1969-12-31 18:00:12.492280414,(-3 -12 -8 -12 -7 -11 -4 0)
1969-12-31 18:00:12.494696289,(-5 4 13 2 -3 -3 -3 -6)
1969-12-31 18:00:12.494696289,(8 10 12 9 8 10 5 6)
1969-12-31 18:00:12.495904228,(9 8 11 7 6 7 5 6)
1969-12-31 18:00:12.495904228,(-8 -10 -11 -5 -2 -3 -6 -5)
1969-12-31 18:00:12.500735979,(1 3 4 2 1 0 -2 -1)
1969-12-31 18:00:12.500735979,(-1 3 6 2 -5 -3 -2 -4)
1969-12-31 18:00:12.518855047,(-3 -11 -24 17 2 -5 -4 -4)
1969-12-31 18:00:12.518855047,(-9 -13 -20 -23 -14 -14 -9 -8)
1969-12-31 18:00:12.520062985,(-2 5 24 7 7 7 3 0)
1969-12-31 18:00:12.521270923,(5 7 4 20 2 8 4 2)
1969-12-31 18:00:12.546637619,(-3 -3 -7 -7 -3 -3 -4 -3)
1969-12-31 18:00:12.546637619,(-4 -11 -16 2 3 -6 -5 -3)
1969-12-31 18:00:12.547845557,(-1 4 20 -16 -7 -3 -2 -3)
1969-12-31 18:00:12.547845557,(2 7 -2 1 4 4 2 0)
1969-12-31 18:00:12.562340811,(12 5 12 8 3 6 10 9)
1969-12-31 18:00:12.562340811,(-4 -2 -22 -21 -8 -6 -4 -4)
1969-12-31 18:00:12.573212252,(-4 -16 -26 -4 -5 -7 -3 0)
1969-12-31 18:00:12.573212252,(-9 -4 8 -4 -3 -5 -4 -8)
1969-12-31 18:00:12.591331320,(9 10 6 -2 -2 0 3 7)
1969-12-31 18:00:12.591331320,(5 14 38 16 1 12 8 4)
1969-12-31 18:00:12.593747196,(7 4 4 23 11 9 4 3)
1969-12-31 18:00:12.593747196,(-7 -10 -27 -14 -9 -14 -8 -5)
1969-12-31 18:00:12.619113891,(3 5 4 -12 -2 2 4 5)
1969-12-31 18:00:12.619113891,(-7 -8 -8 -8 -4 -3 -2 -4)
1969-12-31 18:00:12.620321829,(-5 1 4 -12 -3 3 1 -3)
1969-12-31 18:00:12.621529767,(5 5 12 19 12 10 6 5)
1969-12-31 18:00:12.666223469,(-7 -4 12 -19 -15 -7 -8 -10)
1969-12-31 18:00:12.666223469,(-4 -5 -22 1 5 1 -2 -3)
1969-12-31 18:00:12.667431406,(0 -2 3 25 7 1 1 1)
1969-12-31 18:00:12.667431406,(1 2 5 -10 -2 -1 0 0)
1969-12-31 18:00:12.668639344,(0 9 14 18 7 9 1 -1)
1969-12-31 18:00:12.668639344,(9 -1 -4 2 7 1 3 7)
1969-12-31 18:00:12.673471096,(-14 -11 -16 -35 -20 -17 -13 -13)
1969-12-31 18:00:12.673471096,(-1 -3 -3 -7 0 -4 -2 1)
1969-12-31 18:00:12.691590164,(-3 1 0 -8 -3 1 1 0)
1969-12-31 18:00:12.691590164,(6 8 9 13 6 10 5 4)
1969-12-31 18:00:12.692798102,(5 0 -7 -2 6 3 3 5)
1969-12-31 18:00:12.692798102,(-5 -2 7 -11 -4 -1 0 -4)
1969-12-31 18:00:12.707293356,(3 6 5 9 6 -6 -2 2)
1969-12-31 18:00:12.708501294,(-10 -5 -3 -10 -7 -8 -7 -6)
1969-12-31 18:00:12.718164797,(-4 -4 -3 -8 -4 -4 -2 -1)
1969-12-31 18:00:12.718164797,(-1 -5 -9 -7 -7 -7 -3 -3)
1969-12-31 18:00:12.736283865,(-1 -5 -7 -3 -4 -5 0 0)
1969-12-31 18:00:12.736283865,(4 1 14 19 8 -2 0 2)
1969-12-31 18:00:12.743531493,(1 -1 -12 8 8 7 1 -2)
1969-12-31 18:00:12.743531493,(-13 -10 -4 -20 -20 -9 -6 -7)
1969-12-31 18:00:12.764066437,(10 11 20 76 32 3 3 8)
1969-12-31 18:00:12.764066437,(-1 -2 5 -16 -6 -2 -3 -2)
1969-12-31 18:00:12.765274374,(8 -2 -9 -7 -8 4 9 11)
1969-12-31 18:00:12.765274374,(5 -7 -21 -15 -5 2 -1 4)
1969-12-31 18:00:12.779769629,(-5 -5 -10 -24 -19 -5 -4 -5)
1969-12-31 18:00:12.779769629,(3 10 5 -6 -5 3 0 1)
1969-12-31 18:00:12.829295082,(-1 -3 -1 9 12 8 5 0)
1969-12-31 18:00:12.829295082,(4 14 17 22 14 4 -3 0)
1969-12-31 18:00:12.830503020,(-5 -15 -18 -24 -18 -4 -2 -4)
1969-12-31 18:00:12.830503020,(-4 0 3 -6 -6 -3 -2 -3)
1969-12-31 18:00:12.836542709,(-7 0 -6 -37 -5 -8 -5 -6)
1969-12-31 18:00:12.836542709,(0 2 8 13 0 -2 -1 0)
1969-12-31 18:00:12.837750647,(-2 4 7 35 16 6 1 0)
1969-12-31 18:00:12.837750647,(-3 -8 -8 -13 8 -3 1 -1)
1969-12-31 18:00:12.840166523,(9 5 7 -2 -26 -1 5 7)
1969-12-31 18:00:12.840166523,(0 2 14 41 33 7 1 -1)
1969-12-31 18:00:12.852245902,(-4 -4 -3 -4 16 2 -2 -4)
1969-12-31 18:00:12.852245902,(-2 1 -3 2 -7 -3 0 -1)
1969-12-31 18:00:12.863117343,(3 -3 -12 -20 -18 -9 -3 1)
1969-12-31 18:00:12.863117343,(-2 0 -4 -18 -1 -1 0 -1)
1969-12-31 18:00:12.880028473,(-2 -1 -1 -8 -19 -4 -3 -3)
1969-12-31 18:00:12.880028473,(2 0 -2 10 11 3 2 1)
1969-12-31 18:00:12.898147541,(-2 2 2 -4 1 -3 -4 -3)
1969-12-31 18:00:12.898147541,(0 -5 -6 -4 -17 -4 0 1)
1969-12-31 18:00:12.909018982,(-4 -2 -2 -2 10 -1 -3 -2)
1969-12-31 18:00:12.909018982,(4 7 4 8 -3 2 0 3)
1969-12-31 18:00:12.910226920,(0 2 1 -16 0 1 -1 1)
1969-12-31 18:00:12.910226920,(3 2 3 32 3 6 3 3)
1969-12-31 18:00:12.936801553,(-5 1 4 -8 -2 3 -1 -4)
1969-12-31 18:00:12.938009491,(0 0 -3 4 1 6 2 4)
1969-12-31 18:00:12.939217429,(-1 -5 -5 -6 1 1 -2 -1)
1969-12-31 18:00:12.939217429,(-5 -4 -8 -40 -17 -10 -3 -3)
1969-12-31 18:00:12.953712683,(3 1 13 26 15 8 5 3)
1969-12-31 18:00:12.953712683,(2 -1 -1 0 -2 -1 2 0)
1969-12-31 18:00:12.960960311,(0 0 3 8 4 1 0 -1)
1969-12-31 18:00:12.960960311,(-3 -4 -3 -4 -4 -4 -3 -2)
1969-12-31 18:00:12.999614323,(-7 -5 -11 -18 -26 -11 -6 -7)
1969-12-31 18:00:12.999614323,(0 -3 -4 -6 14 -1 0 1)
1969-12-31 18:00:13.002030198,(1 2 9 28 12 2 -1 0)
1969-12-31 18:00:13.002030198,(0 -2 0 -2 1 2 1 1)
1969-12-31 18:00:13.017733391,(4 0 -5 -10 1 0 0 3)
1969-12-31 18:00:13.017733391,(-1 -2 -2 -9 -14 -10 -9 -7)
1969-12-31 18:00:13.018941329,(-4 0 2 2 -4 -2 1 -2)
1969-12-31 18:00:13.018941329,(2 2 2 3 -7 3 5 2)
1969-12-31 18:00:13.024981018,(-4 -1 -5 -3 16 2 -3 -4)
1969-12-31 18:00:13.024981018,(-2 1 1 -5 -6 1 2 1)
1969-12-31 18:00:13.033436582,(-3 -2 -1 -1 4 1 -1 -3)
1969-12-31 18:00:13.033436582,(4 -2 -3 8 4 0 0 5)
1969-12-31 18:00:13.053971527,(0 -1 1 -8 -4 0 1 1)
1969-12-31 18:00:13.053971527,(1 2 11 23 11 8 1 -1)
1969-12-31 18:00:13.056387403,(-3 -2 2 15 6 -3 -2 -2)
1969-12-31 18:00:13.056387403,(-3 0 -2 -6 0 -1 0 -4)
1969-12-31 18:00:13.081754098,(0 -1 -8 -14 -10 -2 -2 -2)
1969-12-31 18:00:13.081754098,(-22 -14 -6 -13 -6 -1 -4 -1)
1969-12-31 18:00:13.082962036,(21 11 7 6 3 10 16 14)
1969-12-31 18:00:13.082962036,(-6 2 -4 -4 -2 -13 -15 -17)
1969-12-31 18:00:13.097457291,(-3 -4 -3 -2 -2 1 2 -2)
1969-12-31 18:00:13.097457291,(-6 -5 -4 -2 -5 -6 -12 -8)
1969-12-31 18:00:13.108328732,(16 4 -1 1 -3 -3 -3 2)
1969-12-31 18:00:13.108328732,(-16 -9 -2 3 5 6 -3 -5)
1969-12-31 18:00:13.126447800,(30 18 9 5 3 4 22 27)
1969-12-31 18:00:13.126447800,(-12 -8 -7 -6 -8 -2 -1 -12)
1969-12-31 18:00:13.127655738,(-9 -4 0 2 2 -1 -2 3)
1969-12-31 18:00:13.127655738,(21 14 9 7 9 11 10 9)
1969-12-31 18:00:13.179597066,(-25 -21 -8 -7 -9 -10 -23 -23)
1969-12-31 18:00:13.179597066,(19 14 6 3 4 5 9 11)
1969-12-31 18:00:13.192884383,(-7 -3 -3 -2 -4 -8 -12 -5)
1969-12-31 18:00:13.192884383,(-3 -3 3 1 1 1 5 0)
1969-12-31 18:00:13.194092321,(2 -2 -2 -1 0 5 6 10)
1969-12-31 18:00:13.194092321,(-3 -1 1 -3 -4 -8 -10 -10)
1969-12-31 18:00:13.198924072,(-3 1 0 3 0 4 7 -1)
1969-12-31 18:00:13.198924072,(1 -8 -3 -1 1 1 9 11)
1969-12-31 18:00:13.200132010,(-2 2 3 1 4 2 2 -3)
1969-12-31 18:00:13.200132010,(0 -5 -7 -5 -2 -5 -7 -3)
1969-12-31 18:00:13.202547886,(-5 -1 -1 0 -1 -4 -11 -13)
1969-12-31 18:00:13.202547886,(1 -1 -3 -1 -1 -5 -3 -1)
1969-12-31 18:00:13.225498706,(0 0 -1 -2 -4 -3 -2 -2)
1969-12-31 18:00:13.225498706,(4 3 0 0 0 2 4 2)
1969-12-31 18:00:13.227914582,(0 -2 3 2 2 -1 -1 0)
1969-12-31 18:00:13.227914582,(-2 0 0 -3 -2 0 2 2)
1969-12-31 18:00:13.242409836,(0 0 -3 -4 -5 -4 -4 -3)
1969-12-31 18:00:13.242409836,(2 2 0 2 0 1 2 3)
1969-12-31 18:00:13.253281277,(-4 -3 -1 1 1 1 1 -2)
1969-12-31 18:00:13.253281277,(-1 1 1 0 0 0 -5 -2)
1969-12-31 18:00:13.271400345,(-2 -1 -2 -2 -3 -3 -3 -5)
1969-12-31 18:00:13.271400345,(4 0 2 0 1 5 5 5)
1969-12-31 18:00:13.272608283,(-5 -1 1 -1 -1 -2 -3 0)
1969-12-31 18:00:13.272608283,(-3 -2 -3 -4 0 -2 -2 -3)
1969-12-31 18:00:13.299182916,(-4 0 -2 0 0 1 -3 -2)
1969-12-31 18:00:13.299182916,(2 2 -1 -2 -1 0 4 4)
1969-12-31 18:00:13.300390854,(-3 -4 -2 -1 -1 -1 -3 -4)
1969-12-31 18:00:13.300390854,(0 0 -1 -3 -1 -2 -3 -3)
1969-12-31 18:00:13.335421053,(2 -2 -2 2 0 -1 0 0)
1969-12-31 18:00:13.335421053,(3 0 0 1 -1 0 2 1)
1969-12-31 18:00:13.336628991,(-4 0 0 -1 -1 -3 -3 -4)
1969-12-31 18:00:13.336628991,(-2 -4 -1 0 0 1 -1 0)
1969-12-31 18:00:13.343876618,(-1 -2 1 -2 1 0 0 2)
1969-12-31 18:00:13.343876618,(-1 1 0 0 0 -3 -3 -1)
1969-12-31 18:00:13.346292494,(-2 -2 -2 0 -2 -2 2 0)
1969-12-31 18:00:13.346292494,(1 1 1 -1 0 -1 -3 -1)
1969-12-31 18:00:13.370451251,(0 0 -1 -2 -3 -2 6 3)
1969-12-31 18:00:13.370451251,(3 -1 0 2 1 1 1 0)
1969-12-31 18:00:13.372867127,(-1 -1 -2 1 -1 -2 -2 0)
1969-12-31 18:00:13.372867127,(1 0 -2 0 -3 -2 -3 -4)
1969-12-31 18:00:13.387362381,(1 0 -1 0 -1 0 0 5)
1969-12-31 18:00:13.387362381,(-1 -3 -2 -1 -2 0 -1 -3)
1969-12-31 18:00:13.398233822,(-1 0 1 -2 0 -1 -3 -1)
1969-12-31 18:00:13.398233822,(1 0 -1 0 -1 -2 -1 0)
1969-12-31 18:00:13.424808456,(0 0 -2 1 -1 1 -1 -4)
1969-12-31 18:00:13.424808456,(1 1 1 0 -1 0 2 1)
1969-12-31 18:00:13.427224331,(1 0 -2 1 0 3 1 3)
1969-12-31 18:00:13.427224331,(-1 -1 -1 0 -1 0 -4 0)
1969-12-31 18:00:13.442927524,(-1 0 -1 -1 -1 -1 -2 -3)
1969-12-31 18:00:13.442927524,(2 -1 0 0 0 -1 0 0)
1969-12-31 18:00:13.445343399,(-1 -1 0 -1 -2 0 -1 -3)
1969-12-31 18:00:13.445343399,(-1 -1 0 -2 -1 1 1 -2)
1969-12-31 18:00:13.459838654,(-2 0 -1 1 0 -2 -4 -3)
1969-12-31 18:00:13.459838654,(-1 -1 1 -1 1 0 1 0)
1969-12-31 18:00:13.470710094,(1 1 0 -2 1 0 3 4)
1969-12-31 18:00:13.470710094,(-1 -1 1 0 2 -1 0 -2)
1969-12-31 18:00:13.498492666,(1 -1 0 -2 -1 -1 0 -4)
1969-12-31 18:00:13.498492666,(-1 0 -1 -1 0 -1 -2 1)
1969-12-31 18:00:13.500908542,(0 -1 1 -1 -2 0 -2 -1)
1969-12-31 18:00:13.500908542,(1 -2 -1 -2 -1 0 1 1)
1969-12-31 18:00:13.525067299,(-3 -2 -1 -1 0 -1 0 -3)
1969-12-31 18:00:13.525067299,(1 2 -1 -2 0 -1 2 -1)
1969-12-31 18:00:13.526275237,(-1 -1 0 0 0 -1 -1 -2)
1969-12-31 18:00:13.526275237,(-3 -1 -1 0 -1 -2 -4 -4)
1969-12-31 18:00:13.532314927,(1 -1 0 -1 -2 1 2 2)
1969-12-31 18:00:13.532314927,(-1 0 -2 1 0 -1 -1 0)
1969-12-31 18:00:13.552849871,(-3 -2 -1 0 2 -1 -1 0)
1969-12-31 18:00:13.552849871,(0 0 0 -1 0 -2 -1 -1)
1969-12-31 18:00:13.560097498,(-2 -2 -1 0 -1 0 -3 -1)
1969-12-31 18:00:13.560097498,(-1 -1 0 -1 -1 -1 -1 0)
1969-12-31 18:00:13.562513374,(0 -2 1 1 -1 -2 -2 -2)
1969-12-31 18:00:13.562513374,(1 1 -1 1 -1 0 0 2)
1969-12-31 18:00:13.587880069,(1 -2 0 -2 -1 -2 2 -1)
1969-12-31 18:00:13.587880069,(-1 -1 -1 -3 1 0 0 -1)
1969-12-31 18:00:13.589088007,(-1 2 -2 -2 0 0 -1 -1)
1969-12-31 18:00:13.589088007,(0 -1 0 -2 0 1 0 0)
1969-12-31 18:00:13.604791199,(-1 1 -1 -1 -1 2 -1 -1)
1969-12-31 18:00:13.604791199,(-2 -1 2 1 -2 -1 0 -2)
1969-12-31 18:00:13.622910267,(-1 -1 -1 -1 0 0 -1 -1)
1969-12-31 18:00:13.622910267,(1 1 0 -2 -1 1 1 1)
1969-12-31 18:00:13.633781708,(1 0 -1 1 2 -2 -1 -3)
1969-12-31 18:00:13.633781708,(0 -2 0 -1 1 1 2 1)
1969-12-31 18:00:13.634989646,(-1 -1 -2 1 -1 1 -2 0)
1969-12-31 18:00:13.634989646,(-3 0 -2 0 -1 -1 -2 -2)
1969-12-31 18:00:13.671227783,(1 1 0 -1 -2 0 2 4)
1969-12-31 18:00:13.671227783,(-2 0 1 1 0 0 -1 -1)
1969-12-31 18:00:13.673643658,(2 1 0 1 -1 0 1 0)
1969-12-31 18:00:13.673643658,(-1 -2 0 2 0 -2 -1 0)
1969-12-31 18:00:13.677267472,(-3 -2 -2 -1 -2 -1 -3 -1)
1969-12-31 18:00:13.677267472,(-1 -1 -1 -2 -1 -1 -1 -1)
1969-12-31 18:00:13.688138913,(1 -1 -1 -1 -2 1 2 -1)
1969-12-31 18:00:13.688138913,(0 -2 -1 1 0 0 0 0)
1969-12-31 18:00:13.714713546,(-1 0 0 -1 0 -1 -1 2)
1969-12-31 18:00:13.714713546,(0 -1 0 2 0 -1 0 0)
1969-12-31 18:00:13.717129422,(-1 -4 -2 0 1 -2 -1 -3)
1969-12-31 18:00:13.717129422,(0 0 -1 -1 -1 0 1 -1)
1969-12-31 18:00:13.732832614,(0 -2 -1 1 0 2 -1 -2)
1969-12-31 18:00:13.732832614,(-3 -3 -1 -2 -1 -1 -2 -1)
1969-12-31 18:00:13.734040552,(10 7 0 -1 -2 -1 2 4)
1969-12-31 18:00:13.734040552,(-19 -5 1 1 1 1 -1 -11)
1969-12-31 18:00:13.769070751,(1 -3 -2 -3 -1 -1 0 1)
1969-12-31 18:00:13.769070751,(14 7 0 -3 -4 -4 0 12)
1969-12-31 18:00:13.779942192,(-19 -6 2 5 5 9 3 -22)
1969-12-31 18:00:13.779942192,(3 -3 -4 -5 -4 -5 -2 4)
1969-12-31 18:00:13.779942192,(11 9 5 3 4 4 5 4)
1969-12-31 18:00:13.779942192,(-27 -14 -5 -1 -2 -3 -6 -13)
1969-12-31 18:00:13.785981881,(9 2 0 -2 -2 -3 2 15)
1969-12-31 18:00:13.785981881,(2 4 3 0 0 4 4 3)
1969-12-31 18:00:13.805308887,(-3 -3 -4 -3 -4 -3 -5 -5)
1969-12-31 18:00:13.805308887,(17 8 3 1 1 6 5 11)
1969-12-31 18:00:13.807724763,(-2 -3 0 -1 1 -3 -2 -1)
1969-12-31 18:00:13.807724763,(1 0 -1 2 1 -1 0 0)
1969-12-31 18:00:13.807724763,(-2 -6 -24 -27 -64 -13 -1 3)
1969-12-31 18:00:13.807724763,(6 15 29 -6 35 2 -2 1)
1969-12-31 18:00:13.810140638,(11 11 11 77 35 18 10 7)
1969-12-31 18:00:13.810140638,(5 3 21 82 41 14 2 1)
1969-12-31 18:00:13.825843831,(-8 -11 -19 -53 -5 -5 -6 -6)
1969-12-31 18:00:13.825843831,(-10 -16 -35 -86 -79 -22 -11 -7)
1969-12-31 18:00:13.834299396,(1 9 46 81 43 9 2 -2)
1969-12-31 18:00:13.834299396,(-1 -1 -4 9 23 3 0 -2)
1969-12-31 18:00:13.853626402,(8 12 10 -33 0 9 6 7)
1969-12-31 18:00:13.853626402,(4 -5 2 65 31 5 3 1)
1969-12-31 18:00:13.856042278,(-6 -7 -32 -78 -27 -8 -5 -5)
1969-12-31 18:00:13.856042278,(10 3 -13 -22 -29 -5 8 10)
1969-12-31 18:00:13.911607420,(5 8 43 91 17 3 0 2)
1969-12-31 18:00:13.911607420,(-12 -2 11 -35 -17 -8 -9 -10)
1969-12-31 18:00:13.912815358,(10 6 2 65 59 17 10 10)
1969-12-31 18:00:13.912815358,(-12 -14 -9 -37 -13 -14 -8 -6)
1969-12-31 18:00:13.917647110,(-6 -4 -6 -10 -12 -9 -3 -5)
1969-12-31 18:00:13.917647110,(4 6 10 11 8 3 1 2)
1969-12-31 18:00:13.927310613,(0 -1 -6 42 -11 -6 -1 -3)
1969-12-31 18:00:13.927310613,(7 5 -4 -30 -10 -4 0 4)
1969-12-31 18:00:13.927310613,(-1 -4 3 16 3 -4 -4 -3)
1969-12-31 18:00:13.927310613,(-2 -1 -12 -8 3 -1 0 -1)
1969-12-31 18:00:13.929726488,(-2 -3 -5 -44 -32 -6 -2 -5)
1969-12-31 18:00:13.929726488,(4 5 4 23 6 6 2 2)
1969-12-31 18:00:13.953885246,(1 -1 -4 2 2 9 1 -1)
1969-12-31 18:00:13.953885246,(1 1 0 7 11 9 1 2)
1969-12-31 18:00:13.955093184,(2 6 4 -35 -21 3 3 3)
1969-12-31 18:00:13.955093184,(3 2 5 0 3 7 3 1)
1969-12-31 18:00:13.969588438,(-2 -7 -4 10 2 3 3 3)
1969-12-31 18:00:13.969588438,(-1 -2 0 -16 4 0 1 -1)
1969-12-31 18:00:13.981667817,(-6 1 1 -8 -13 -8 -2 -3)
1969-12-31 18:00:13.981667817,(0 1 3 11 4 1 -2 -6)
1969-12-31 18:00:13.997371009,(-2 -4 -3 1 4 -2 -4 -3)
1969-12-31 18:00:13.997371009,(6 1 -2 -2 4 -5 -3 -1)
1969-12-31 18:00:13.998578947,(3 0 -2 -11 -15 -6 -1 7)
1969-12-31 18:00:13.998578947,(-23 -5 1 9 6 2 -2 -10)
1969-12-31 18:00:14.025153581,(4 -4 -4 -5 -1 -3 -1 -2)
1969-12-31 18:00:14.025153581,(-6 0 -1 0 2 -3 1 0)
1969-12-31 18:00:14.026361519,(34 8 1 3 -10 -3 0 9)
1969-12-31 18:00:14.026361519,(-3 1 3 1 7 9 1 2)
1969-12-31 18:00:14.073471096,(-22 -6 -1 -1 -4 -6 -10 -13)
1969-12-31 18:00:14.073471096,(10 -2 0 -1 3 8 4 10)
1969-12-31 18:00:14.074679034,(-18 -6 -4 -4 -10 -6 -5 -7)
1969-12-31 18:00:14.074679034,(20 6 -2 -3 -1 1 8 14)
1969-12-31 18:00:14.075886972,(-13 -2 -3 2 -1 -3 -6 -7)
1969-12-31 18:00:14.075886972,(4 -1 -1 2 5 0 -1 2)
1969-12-31 18:00:14.079510785,(1 6 3 -9 -4 0 3 1)
1969-12-31 18:00:14.079510785,(1 -2 -3 2 -3 -6 -4 0)
1969-12-31 18:00:14.097629852,(7 5 2 7 3 3 4 5)
1969-12-31 18:00:14.097629852,(-27 -5 -1 -9 -2 1 -4 -7)
1969-12-31 18:00:14.098837791,(32 -4 -3 -3 -5 6 4 12)
1969-12-31 18:00:14.098837791,(4 15 4 10 8 3 -5 -12)
1969-12-31 18:00:14.116956859,(-8 -7 -4 -18 -5 -4 -5 -5)
1969-12-31 18:00:14.116956859,(8 7 3 9 6 5 3 4)
1969-12-31 18:00:14.124204487,(-23 -6 0 3 -1 -2 -4 -9)
1969-12-31 18:00:14.124204487,(2 -5 -6 -17 -15 -5 1 7)
1969-12-31 18:00:14.142323555,(15 4 1 -8 10 7 7 7)
1969-12-31 18:00:14.142323555,(-10 -5 2 16 11 -2 -6 -6)
1969-12-31 18:00:14.143531493,(-3 3 0 -11 2 3 3 2)
1969-12-31 18:00:14.143531493,(-7 -6 -5 -13 -3 -5 -5 -6)
1969-12-31 18:00:14.170106126,(-4 -2 -2 -5 -7 -3 -1 -1)
1969-12-31 18:00:14.170106126,(3 -1 4 19 -3 -6 -2 -3)
1969-12-31 18:00:14.171314064,(-3 1 9 21 11 3 -1 0)
1969-12-31 18:00:14.171314064,(4 -5 -1 10 3 0 3 6)
1969-12-31 18:00:14.197888697,(-10 3 2 -10 2 3 -3 -12)
1969-12-31 18:00:14.197888697,(5 -5 -42 -77 -37 -10 -2 3)
1969-12-31 18:00:14.199096635,(-6 2 27 98 4 -3 -4 -5)
1969-12-31 18:00:14.199096635,(-1 1 27 63 21 -3 -5 -2)
1969-12-31 18:00:14.235334771,(2 1 10 38 18 7 6 6)
1969-12-31 18:00:14.235334771,(9 5 0 -26 1 2 -3 -4)
1969-12-31 18:00:14.235334771,(-12 -11 -24 -70 -22 -10 -9 -8)
1969-12-31 18:00:14.235334771,(-2 -5 -20 -62 -22 -2 3 5)
1969-12-31 18:00:14.252245902,(-13 -8 -12 -22 -11 -5 -4 -5)
1969-12-31 18:00:14.252245902,(28 -2 -9 5 3 1 7 16)
1969-12-31 18:00:14.253453840,(-20 6 24 31 13 2 -9 -20)
1969-12-31 18:00:14.253453840,(-1 4 22 41 12 -3 -3 -2)
1969-12-31 18:00:14.270364970,(-17 -13 -6 -20 -6 -2 -2 -5)
1969-12-31 18:00:14.270364970,(32 26 14 11 10 13 13 18)
1969-12-31 18:00:14.271572908,(-13 -13 -26 -32 -16 -12 -8 -10)
1969-12-31 18:00:14.271572908,(23 2 -15 -26 -5 1 5 15)
1969-12-31 18:00:14.287276100,(-14 1 4 13 -2 0 -2 -8)
1969-12-31 18:00:14.287276100,(-17 0 6 14 3 1 9 8)
1969-12-31 18:00:14.288484038,(29 0 -7 -21 3 4 3 7)
1969-12-31 18:00:14.288484038,(-13 -1 -10 -35 -11 -1 -8 -15)
1969-12-31 18:00:14.315058671,(21 6 3 15 2 3 11 20)
1969-12-31 18:00:14.315058671,(-22 -16 -10 -21 -5 -9 -13 -19)
1969-12-31 18:00:14.316266609,(-7 7 18 52 14 6 7 6)
1969-12-31 18:00:14.316266609,(-6 -6 2 17 8 1 5 7)
1969-12-31 18:00:14.334385677,(22 7 -12 -64 -21 -1 -1 4)
1969-12-31 18:00:14.334385677,(-7 -1 20 96 19 -3 -7 -12)
1969-12-31 18:00:14.341633305,(-16 -6 -2 -2 3 -7 -7 -9)
1969-12-31 18:00:14.341633305,(-3 -5 -1 12 -1 -2 -3 -2)
1969-12-31 18:00:14.359752373,(16 14 8 2 10 5 5 5)
1969-12-31 18:00:14.359752373,(-21 -13 -15 -44 -16 -7 -6 -6)
1969-12-31 18:00:14.360960311,(24 7 -5 -19 -10 3 7 8)
1969-12-31 18:00:14.360960311,(-3 -2 0 4 1 -1 1 1)
1969-12-31 18:00:14.397198447,(14 7 0 7 3 2 6 7)
1969-12-31 18:00:14.397198447,(-4 -9 -12 -25 -12 -5 -6 -6)
1969-12-31 18:00:14.398406385,(-5 -6 -43 -104 -38 -3 4 6)
1969-12-31 18:00:14.398406385,(4 4 24 82 21 4 2 1)
1969-12-31 18:00:14.404446074,(-4 5 40 99 29 3 -7 -6)
1969-12-31 18:00:14.405654012,(-2 4 24 45 24 7 2 -3)
1969-12-31 18:00:14.414109577,(-6 -6 -6 -31 -2 -3 -5 0)
1969-12-31 18:00:14.414109577,(-8 0 -25 -72 -23 -4 -1 -6)
1969-12-31 18:00:14.432228645,(4 -8 -28 -43 -19 -8 -3 3)
1969-12-31 18:00:14.432228645,(-12 -2 10 8 2 0 1 1)
1969-12-31 18:00:14.433436583,(1 -1 3 7 4 2 3 3)
1969-12-31 18:00:14.433436583,(0 5 -5 -24 -10 -3 -3 -5)
1969-12-31 18:00:14.460011217,(18 3 0 29 23 6 10 11)
1969-12-31 18:00:14.460011217,(-6 -7 -4 -18 -19 -4 -7 -12)
1969-12-31 18:00:14.461219154,(23 25 21 28 18 17 24 35)
1969-12-31 18:00:14.461219154,(-24 -17 -6 -9 -5 -6 -8 -15)
1969-12-31 18:00:14.476922347,(-6 -4 -13 -15 -10 -5 -4 -4)
1969-12-31 18:00:14.476922347,(4 -3 -30 -40 -1 -1 0 1)
1969-12-31 18:00:14.486585850,(0 9 37 79 11 11 8 5)
1969-12-31 18:00:14.486585850,(11 11 30 52 22 6 -2 -1)
1969-12-31 18:00:14.504704918,(-9 -5 -11 -31 -13 -5 -5 -4)
1969-12-31 18:00:14.504704918,(5 -2 -2 9 1 0 3 4)
1969-12-31 18:00:14.505912856,(-6 -4 2 14 9 -1 -7 -10)
1969-12-31 18:00:14.505912856,(-1 -4 -14 -22 -11 -3 -5 -5)
1969-12-31 18:00:14.532487489,(-17 -11 -5 -19 -11 -4 -5 -6)
1969-12-31 18:00:14.532487489,(49 20 8 1 3 9 14 25)
1969-12-31 18:00:14.533695427,(-38 -21 -23 -45 -18 -18 -30 -43)
1969-12-31 18:00:14.533695427,(-4 -7 -1 8 -4 -5 -5 -2)
1969-12-31 18:00:14.571141501,(5 9 -1 0 10 5 6 4)
1969-12-31 18:00:14.571141501,(0 1 10 19 -11 6 8 10)
1969-12-31 18:00:14.572349439,(-14 -6 10 26 8 -7 -7 -4)
1969-12-31 18:00:14.572349439,(42 10 -4 -17 -2 -2 -1 10)
1969-12-31 18:00:14.577181191,(-23 -16 -10 -5 -10 -13 -19 -20)
1969-12-31 18:00:14.577181191,(-14 -1 3 -1 6 -6 -7 -15)
1969-12-31 18:00:14.578389129,(2 -4 -10 -26 -11 -4 -1 -2)
1969-12-31 18:00:14.578389129,(-3 2 -3 -26 -7 6 12 11)
1969-12-31 18:00:14.604963762,(7 1 5 7 -2 1 2 7)
1969-12-31 18:00:14.604963762,(-7 -2 3 20 10 -3 -6 -11)
1969-12-31 18:00:14.606171700,(1 -1 -2 7 3 -1 0 5)
1969-12-31 18:00:14.606171700,(-22 -3 7 14 12 11 4 -14)
1969-12-31 18:00:14.621874892,(27 17 11 2 2 8 12 21)
1969-12-31 18:00:14.621874892,(-9 -14 -56 -111 -45 -6 -5 -11)
1969-12-31 18:00:14.631538395,(-5 -4 2 41 -4 -3 -2 0)
1969-12-31 18:00:14.631538395,(3 9 44 105 20 4 2 3)
1969-12-31 18:00:14.652073339,(-53 -13 15 43 27 1 -5 -14)
1969-12-31 18:00:14.652073339,(38 13 15 25 13 -1 -5 0)
1969-12-31 18:00:14.653281277,(15 -2 -29 -65 -16 1 9 13)
1969-12-31 18:00:14.653281277,(4 -7 -43 -69 -32 -7 1 5)
1969-12-31 18:00:14.677440035,(-8 0 20 24 0 0 0 -7)
1969-12-31 18:00:14.677440035,(-9 4 17 4 7 6 5 5)
1969-12-31 18:00:14.678647972,(7 7 -2 33 23 2 1 2)
1969-12-31 18:00:14.678647972,(-2 -10 -13 -16 -10 -14 -10 -3)
1969-12-31 18:00:14.694351165,(-3 -7 -25 -61 -26 -8 -6 -7)
1969-12-31 18:00:14.694351165,(-5 2 11 -16 11 7 6 4)
1969-12-31 18:00:14.704014668,(9 2 10 49 -18 3 -2 -1)
1969-12-31 18:00:14.704014668,(-2 -6 10 40 24 -4 -2 1)
1969-12-31 18:00:14.733005177,(-4 0 3 -3 3 1 -1 -3)
1969-12-31 18:00:14.733005177,(-20 -12 -10 -24 -6 -13 -16 -15)
1969-12-31 18:00:14.734213115,(-27 -2 -1 -32 3 12 8 -15)
1969-12-31 18:00:14.734213115,(44 25 5 -1 2 2 6 26)
1969-12-31 18:00:14.749916307,(11 0 -8 -11 -4 -2 1 -1)
1969-12-31 18:00:14.749916307,(2 1 4 20 3 2 4 5)
1969-12-31 18:00:14.751124245,(-11 -6 3 9 4 -5 -1 2)
1969-12-31 18:00:14.751124245,(-12 -5 -5 -19 -4 4 2 -8)
1969-12-31 18:00:14.766827437,(13 -1 -14 -54 -14 -3 -2 0)
1969-12-31 18:00:14.766827437,(-10 0 9 43 -1 2 2 2)
1969-12-31 18:00:14.776490940,(-12 -6 4 14 15 -4 -9 -14)
1969-12-31 18:00:14.776490940,(21 13 8 6 4 7 7 13)
1969-12-31 18:00:14.795817947,(8 3 3 15 5 -4 -5 -1)
1969-12-31 18:00:14.795817947,(-9 -7 -6 -3 -6 -5 -4 -2)
1969-12-31 18:00:14.804273512,(2 -3 -10 -46 -13 -7 -7 -5)
1969-12-31 18:00:14.804273512,(-28 -15 -7 -15 -5 -2 -8 -10)
1969-12-31 18:00:14.822392580,(-7 -5 0 43 7 -3 -5 -5)
1969-12-31 18:00:14.822392580,(20 11 7 8 7 2 -7 -8)
1969-12-31 18:00:14.822392580,(9 5 4 -3 0 4 11 10)
1969-12-31 18:00:14.822392580,(-11 -6 -7 -17 -7 8 14 4)
1969-12-31 18:00:14.839303710,(-28 -15 -6 5 -7 -6 -3 -3)
1969-12-31 18:00:14.839303710,(58 28 9 12 6 -1 0 21)
1969-12-31 18:00:14.848967213,(-6 -1 0 -10 0 -4 -12 -12)
1969-12-31 18:00:14.848967213,(1 1 -5 -8 -5 -3 -3 -4)
1969-12-31 18:00:14.867086281,(-5 -4 1 8 2 2 -3 -3)
1969-12-31 18:00:14.867086281,(-18 -8 -1 1 1 0 -1 -4)
1969-12-31 18:00:14.868294219,(7 3 0 -2 0 6 15 13)
1969-12-31 18:00:14.868294219,(0 -2 -2 -1 10 1 0 0)
1969-12-31 18:00:14.916611734,(11 5 4 9 -9 3 7 7)
1969-12-31 18:00:14.916611734,(-25 -10 -2 -1 0 -4 -7 -17)
1969-12-31 18:00:14.917819672,(35 17 2 0 -1 -3 0 18)
1969-12-31 18:00:14.917819672,(-23 -13 -11 -24 -13 -5 -6 -12)
1969-12-31 18:00:14.922651424,(10 5 0 4 2 0 3 3)
1969-12-31 18:00:14.922651424,(-9 -5 -2 -11 -3 2 2 -1)
1969-12-31 18:00:14.923859362,(-13 -9 2 20 12 0 -5 -10)
1969-12-31 18:00:14.923859362,(7 6 4 12 9 3 2 -1)
1969-12-31 18:00:14.939562554,(17 3 -2 -4 -7 -17 -16 -15)
1969-12-31 18:00:14.939562554,(1 -2 -1 -4 -3 12 20 17)
1969-12-31 18:00:14.940770492,(-1 -4 -7 -17 -6 -1 0 -1)
1969-12-31 18:00:14.940770492,(-7 -3 -7 -18 -8 -5 -9 -8)
1969-12-31 18:00:14.967345125,(-2 -7 -14 -35 -1 5 6 3)
1969-12-31 18:00:14.967345125,(-7 0 12 40 4 -1 1 -1)
1969-12-31 18:00:14.968553063,(-10 -8 -12 -13 -19 -13 -14 -19)
1969-12-31 18:00:14.968553063,(18 12 16 29 17 7 12 18)
1969-12-31 18:00:14.995127696,(6 5 3 -20 22 2 1 2)
1969-12-31 18:00:14.995127696,(-5 -3 5 25 -12 -5 -2 0)
1969-12-31 18:00:14.996335634,(2 1 9 26 -5 2 2 2)
1969-12-31 18:00:14.996335634,(-13 -6 -5 -4 2 -8 -10 -13)
1969-12-31 18:00:15.012038827,(8 7 -1 -10 0 8 12 11)
1969-12-31 18:00:15.012038827,(0 -2 -12 -31 4 -1 -3 3)
1969-12-31 18:00:15.013246764,(-11 -11 -12 -11 -4 -3 -4 -7)
1969-12-31 18:00:15.013246764,(1 2 -3 -15 -12 -7 -9 -11)
1969-12-31 18:00:15.039821398,(-18 -15 3 28 3 -3 -12 -13)
1969-12-31 18:00:15.039821398,(20 22 11 3 8 14 23 21)
1969-12-31 18:00:15.041029336,(-23 -16 -3 2 -7 -17 -22 -23)
1969-12-31 18:00:15.041029336,(-7 -8 -6 -20 -5 -1 3 2)
1969-12-31 18:00:15.078475410,(1 4 1 18 -3 0 1 6)
1969-12-31 18:00:15.078475410,(-28 -29 -12 4 -3 -8 -13 -20)
1969-12-31 18:00:15.079683348,(41 25 6 -6 10 11 14 20)
1969-12-31 18:00:15.079683348,(-11 -6 -3 0 -3 -8 -14 -17)
1969-12-31 18:00:15.084515099,(1 9 5 5 -6 1 8 5)
1969-12-31 18:00:15.085723037,(-11 -12 -2 -2 -1 -2 -3 -5)
1969-12-31 18:00:15.085723037,(-4 1 -1 -6 1 2 8 15)
1969-12-31 18:00:15.085723037,(-83 -42 -2 4 -5 -5 -9 -25)
1969-12-31 18:00:15.112297670,(77 39 3 7 -5 3 6 28)
1969-12-31 18:00:15.112297670,(2 3 -7 -15 -3 -14 -20 -20)
1969-12-31 18:00:15.113505608,(9 4 2 -9 -4 -4 2 4)
1969-12-31 18:00:15.113505608,(9 4 4 12 11 16 15 9)
1969-12-31 18:00:15.140080242,(-23 -21 -3 3 1 -2 -3 -6)
1969-12-31 18:00:15.140080242,(59 13 2 -4 1 5 11 26)
1969-12-31 18:00:15.141288179,(10 -4 -2 -2 -2 -13 -26 -12)
1969-12-31 18:00:15.141288179,(-51 -30 -12 1 -4 -12 -22 -43)
1969-12-31 18:00:15.156991372,(-5 -3 6 -1 -1 4 5 1)
1969-12-31 18:00:15.156991372,(1 18 0 0 -4 -2 2 8)
1969-12-31 18:00:15.158199310,(10 12 5 14 10 12 17 14)
1969-12-31 18:00:15.158199310,(42 28 5 -3 -4 1 5 23)
1969-12-31 18:00:15.184773943,(-13 -7 -8 -24 -7 -5 -10 -14)
1969-12-31 18:00:15.184773943,(-22 -15 -3 8 -10 -9 -8 -16)
1969-12-31 18:00:15.185981881,(-3 4 11 9 4 2 3 -1)
1969-12-31 18:00:15.185981881,(13 9 1 22 -2 3 7 11)
1969-12-31 18:00:15.241547023,(-14 -10 9 33 16 6 4 -3)
1969-12-31 18:00:15.241547023,(-11 -2 9 -10 -4 -3 -7 -8)
1969-12-31 18:00:15.241547023,(5 -8 6 16 11 18 30 33)
1969-12-31 18:00:15.242754961,(58 9 -14 -30 -4 -4 -2 15)
1969-12-31 18:00:15.243962899,(34 25 -7 -1 -9 -6 -3 8)
1969-12-31 18:00:15.243962899,(5 6 -4 -3 12 8 9 17)
1969-12-31 18:00:15.247586713,(-41 -21 -12 -19 -7 -6 -12 -25)
1969-12-31 18:00:15.247586713,(11 5 -4 -55 -17 -3 5 7)
1969-12-31 18:00:15.257250216,(-6 -9 -41 -111 -32 -3 6 10)
1969-12-31 18:00:15.257250216,(2 9 18 99 7 1 1 -1)
1969-12-31 18:00:15.258458154,(3 13 30 67 -7 -2 -5 -10)
1969-12-31 18:00:15.258458154,(10 9 21 56 35 12 11 15)
1969-12-31 18:00:15.285032787,(-21 -13 2 -52 24 -4 -11 -18)
1969-12-31 18:00:15.285032787,(-12 -6 -6 -5 -17 1 0 -4)
1969-12-31 18:00:15.286240725,(-5 3 -6 -23 -15 -5 -8 -8)
1969-12-31 18:00:15.286240725,(19 15 -9 -21 19 6 11 17)
1969-12-31 18:00:15.301943917,(-7 -8 -2 8 -12 0 -1 -4)
1969-12-31 18:00:15.301943917,(-27 -23 -1 6 12 -6 -11 -19)
1969-12-31 18:00:15.303151855,(9 3 -2 -12 6 9 11 13)
1969-12-31 18:00:15.303151855,(-7 4 6 12 -18 -11 -10 -12)
1969-12-31 18:00:15.329726488,(14 15 6 38 38 12 13 17)
1969-12-31 18:00:15.329726488,(-10 -7 -7 -61 -13 -4 -5 -7)
1969-12-31 18:00:15.330934426,(1 0 3 31 -1 0 -1 -4)
1969-12-31 18:00:15.330934426,(0 -8 -11 -18 -17 -9 -7 -3)
1969-12-31 18:00:15.357509060,(-10 -2 -5 -9 -15 -7 -4 -11)
1969-12-31 18:00:15.357509060,(-10 -2 -11 -52 -27 -2 -1 -5)
1969-12-31 18:00:15.358716997,(-7 -14 -32 -56 12 -2 -2 -4)
1969-12-31 18:00:15.358716997,(7 2 18 30 0 3 3 6)
1969-12-31 18:00:15.404618637,(0 10 38 101 13 0 -5 -2)
1969-12-31 18:00:15.404618637,(-4 -2 7 26 55 9 2 2)
1969-12-31 18:00:15.405826575,(-7 -11 -18 -59 -19 0 -4 -7)
1969-12-31 18:00:15.405826575,(2 -3 -10 -10 -47 -11 -4 0)
1969-12-31 18:00:15.407034513,(-19 2 7 14 0 -1 1 -9)
1969-12-31 18:00:15.407034513,(-3 -6 -11 -28 0 -5 -2 -2)
1969-12-31 18:00:15.420321829,(-14 -12 -15 -14 7 -6 -11 -16)
1969-12-31 18:00:15.420321829,(-20 -8 9 24 14 7 5 1)
1969-12-31 18:00:15.429985332,(32 23 21 32 7 13 18 26)
1969-12-31 18:00:15.429985332,(-29 -11 -6 -11 -4 -6 -10 -21)
1969-12-31 18:00:15.431193270,(17 11 7 12 1 -5 -3 5)
1969-12-31 18:00:15.431193270,(-26 -15 -6 -15 -10 -9 -14 -21)
1969-12-31 18:00:15.448104400,(-10 -13 -17 -45 -11 -2 0 2)
1969-12-31 18:00:15.448104400,(6 4 2 31 8 7 8 7)
1969-12-31 18:00:15.456559965,(6 6 14 29 2 1 0 3)
1969-12-31 18:00:15.456559965,(-11 -8 -8 -19 15 6 7 3)
1969-12-31 18:00:15.474679034,(8 -1 -4 -2 -26 -1 3 5)
1969-12-31 18:00:15.474679034,(-16 -4 13 28 9 2 1 3)
1969-12-31 18:00:15.474679034,(54 32 3 -3 3 9 18 31)
1969-12-31 18:00:15.474679034,(-8 -10 -19 -19 0 -8 -14 -18)
1969-12-31 18:00:15.512125108,(-11 -6 8 17 10 -1 -6 -11)
1969-12-31 18:00:15.512125108,(0 -4 2 7 -16 -11 -6 -1)
1969-12-31 18:00:15.512125108,(-63 -13 12 18 12 5 1 -21)
1969-12-31 18:00:15.512125108,(14 7 -4 -7 -1 -4 -8 -8)
1969-12-31 18:00:15.519372735,(2 -13 -17 -13 0 9 12 12)
1969-12-31 18:00:15.519372735,(32 18 0 -16 -4 6 12 19)
1969-12-31 18:00:15.520580673,(-4 1 -3 -6 -2 -7 -7 -2)
1969-12-31 18:00:15.520580673,(27 13 1 1 -3 -1 -1 5)
1969-12-31 18:00:15.577353753,(-27 -17 -7 -12 -13 -13 -19 -29)
1969-12-31 18:00:15.577353753,(33 16 1 8 5 10 18 21)
1969-12-31 18:00:15.577353753,(-14 -7 1 6 3 0 -2 -5)
1969-12-31 18:00:15.577353753,(47 26 3 0 4 9 7 16)
1969-12-31 18:00:15.579769629,(-1 3 9 15 -1 -6 -6 0)
1969-12-31 18:00:15.579769629,(-4 6 -4 -26 -17 -16 -19 -22)
1969-12-31 18:00:15.583393443,(39 9 -4 1 -1 1 4 19)
1969-12-31 18:00:15.583393443,(-46 -22 4 23 5 -10 -15 -23)
1969-12-31 18:00:15.591849008,(-21 -12 -5 -1 2 -2 -5 -14)
1969-12-31 18:00:15.591849008,(85 57 2 -10 2 15 27 60)
1969-12-31 18:00:15.593056946,(-79 -42 -16 -18 -23 -36 -55 -71)
1969-12-31 18:00:15.593056946,(26 18 9 -1 6 16 29 35)
1969-12-31 18:00:15.620839517,(0 -6 -14 -10 1 -8 -2 8)
1969-12-31 18:00:15.620839517,(-32 -22 -14 -29 -21 -5 -6 -21)
1969-12-31 18:00:15.620839517,(35 21 21 44 17 14 19 25)
1969-12-31 18:00:15.620839517,(-9 0 5 20 10 1 0 4)
1969-12-31 18:00:15.657077653,(-10 -3 7 17 0 -5 -12 -17)
1969-12-31 18:00:15.657077653,(-20 -16 -10 -13 1 -4 -9 -14)
1969-12-31 18:00:15.657077653,(2 -6 -9 -30 -9 0 4 5)
1969-12-31 18:00:15.657077653,(2 -1 2 19 1 0 -1 -1)
1969-12-31 18:00:15.673988783,(-17 -2 12 21 8 9 11 10)
1969-12-31 18:00:15.673988783,(22 11 15 18 23 26 26 26)
1969-12-31 18:00:15.675196721,(-34 -19 -7 -5 -7 -12 -16 -20)
1969-12-31 18:00:15.675196721,(27 12 -8 -31 -12 -1 4 11)
1969-12-31 18:00:15.701771355,(-1 -1 -9 -8 -3 3 7 4)
1969-12-31 18:00:15.701771355,(-29 -21 -2 2 -8 -14 -14 -10)
1969-12-31 18:00:15.702979292,(22 16 5 11 11 18 25 29)
1969-12-31 18:00:15.702979292,(-33 -18 -2 -10 -3 0 1 -1)
1969-12-31 18:00:15.739217429,(16 -2 -23 -66 -4 0 -3 1)
1969-12-31 18:00:15.739217429,(-21 -10 12 39 -11 -4 -8 -14)
1969-12-31 18:00:15.740425367,(18 17 6 0 2 3 7 14)
1969-12-31 18:00:15.740425367,(-25 -7 18 64 24 3 -8 -23)
1969-12-31 18:00:15.741633305,(-3 -2 11 23 8 -2 -10 -5)
1969-12-31 18:00:15.741633305,(40 27 -6 -16 5 4 10 16)
1969-12-31 18:00:15.756128559,(-14 -18 -14 -48 -17 0 -1 -5)
1969-12-31 18:00:15.756128559,(32 20 3 0 5 13 23 35)
1969-12-31 18:00:15.763376186,(-12 -6 -6 -6 -10 -12 -16 -21)
1969-12-31 18:00:15.763376186,(-24 -17 -9 -15 -7 -8 -10 -5)
1969-12-31 18:00:15.774247627,(36 21 17 16 6 11 19 25)
1969-12-31 18:00:15.774247627,(-5 -14 -7 -16 -5 -2 -2 1)
1969-12-31 18:00:15.802030198,(11 13 16 18 7 14 21 15)
1969-12-31 18:00:15.802030198,(-20 -17 -12 -13 -6 -7 -11 -20)
1969-12-31 18:00:15.803238136,(11 8 -16 -12 -4 2 7 10)
1969-12-31 18:00:15.803238136,(-16 -9 3 -31 -4 -5 -7 -13)
1969-12-31 18:00:15.809277826,(-10 -5 11 47 12 1 -1 3)
1969-12-31 18:00:15.809277826,(30 23 11 30 0 6 4 -1)
1969-12-31 18:00:15.820149267,(4 -3 4 11 6 -5 -9 -2)
1969-12-31 18:00:15.820149267,(-18 -11 -19 -29 -6 -10 -12 -18)
1969-12-31 18:00:15.838268335,(-7 -9 -12 -17 -17 -4 -2 -4)
1969-12-31 18:00:15.838268335,(34 24 6 -4 6 6 3 16)
1969-12-31 18:00:15.845515962,(3 -4 -12 -32 -13 -6 -7 -10)
1969-12-31 18:00:15.845515962,(-3 0 1 21 1 -4 -7 -11)
1969-12-31 18:00:15.864842968,(12 5 3 26 6 -7 -8 2)
1969-12-31 18:00:15.864842968,(0 9 20 21 19 15 24 18)
1969-12-31 18:00:15.867258844,(-36 -16 -3 -5 -8 -21 -37 -42)
1969-12-31 18:00:15.867258844,(12 4 -7 -15 -9 -5 -2 3)
1969-12-31 18:00:15.911952545,(8 3 -1 -12 -1 8 8 9)
1969-12-31 18:00:15.911952545,(-32 -24 -12 -1 -3 -5 -10 -16)
1969-12-31 18:00:15.914368421,(2 2 0 -1 3 5 9 7)
1969-12-31 18:00:15.914368421,(-9 -3 -5 -20 -17 0 0 -3)
1969-12-31 18:00:15.914368421,(8 8 -9 -20 1 -5 -2 2)
1969-12-31 18:00:15.914368421,(-10 -4 16 37 1 -3 -6 -10)
1969-12-31 18:00:15.919200173,(-3 2 14 35 18 2 0 -4)
1969-12-31 18:00:15.919200173,(7 7 6 15 8 6 4 5)
1969-12-31 18:00:15.937319241,(4 0 -11 -45 -17 -3 0 1)
1969-12-31 18:00:15.937319241,(-9 -13 -30 -42 -31 -18 -9 -5)
1969-12-31 18:00:15.939735116,(-11 -12 -12 -29 -30 -12 -7 -12)
1969-12-31 18:00:15.939735116,(4 9 25 85 45 14 8 8)
1969-12-31 18:00:15.954230371,(14 10 22 56 35 19 9 16)
1969-12-31 18:00:15.954230371,(7 15 12 8 25 7 -8 -15)
1969-12-31 18:00:15.965101812,(-4 -6 -13 -19 -17 -7 1 1)
1969-12-31 18:00:15.965101812,(8 4 -15 -42 -24 -1 7 9)
1969-12-31 18:00:15.982012942,(-5 -7 -14 -23 -16 -12 -9 -6)
1969-12-31 18:00:15.982012942,(-13 -12 -9 -16 -12 -4 -3 -4)
1969-12-31 18:00:15.990468507,(-27 -9 -2 10 7 0 0 -8)
1969-12-31 18:00:15.990468507,(19 7 6 -6 -6 0 1 16)
1969-12-31 18:00:16.009795513,(49 24 5 8 3 9 17 34)
1969-12-31 18:00:16.009795513,(-16 -12 -7 -5 3 1 -2 -7)
1969-12-31 18:00:16.012211389,(-13 -6 1 3 2 2 -2 -11)
1969-12-31 18:00:16.012211389,(-17 -9 -1 4 6 -1 -2 -11)
1969-12-31 18:00:16.026706644,(-16 -7 -1 -6 -24 -12 -11 -14)
1969-12-31 18:00:16.026706644,(20 12 0 -9 1 1 3 7)
1969-12-31 18:00:16.037578085,(26 6 7 18 29 21 20 32)
1969-12-31 18:00:16.037578085,(-16 -2 -4 -5 1 -2 -13 -25)
1969-12-31 18:00:16.073816221,(-20 -6 -4 -15 -5 -2 -3 -12)
1969-12-31 18:00:16.073816221,(-15 -12 -4 8 -1 -5 -4 -9)
1969-12-31 18:00:16.076232097,(9 4 7 4 -2 1 3 7)
1969-12-31 18:00:16.076232097,(-4 -4 -3 -8 -13 -6 -6 -5)
1969-12-31 18:00:16.082271786,(-7 -4 -4 -13 -19 -18 -9 -10)
1969-12-31 18:00:16.082271786,(-2 -5 -19 -30 -12 -1 4 6)
1969-12-31 18:00:16.084687662,(-3 -1 9 19 -7 1 -2 -2)
1969-12-31 18:00:16.084687662,(-1 -3 8 20 24 11 7 4)
1969-12-31 18:00:16.110054357,(8 9 24 57 39 21 6 2)
1969-12-31 18:00:16.110054357,(-9 2 19 40 27 4 -8 -8)
1969-12-31 18:00:16.111262295,(11 5 -12 -12 2 -3 -2 4)
1969-12-31 18:00:16.111262295,(-6 -9 -14 -22 -24 -12 -6 -4)
1969-12-31 18:00:16.125757550,(-14 -16 -12 -19 -23 -15 -9 -11)
1969-12-31 18:00:16.125757550,(-5 -6 -7 -21 -16 -15 -15 -16)
1969-12-31 18:00:16.136628991,(23 32 7 -8 6 12 10 5)
1969-12-31 18:00:16.136628991,(0 2 -4 -6 -6 -2 3 -1)
1969-12-31 18:00:16.154748059,(-9 -10 -8 -11 -1 -2 -3 -4)
1969-12-31 18:00:16.154748059,(-7 -7 -4 -10 -9 -4 -3 2)
1969-12-31 18:00:16.157163934,(4 -2 -13 -24 -9 -3 -1 2)
1969-12-31 18:00:16.157163934,(1 -3 -1 0 5 1 3 1)
1969-12-31 18:00:16.181322692,(2 5 8 40 23 8 4 1)
1969-12-31 18:00:16.181322692,(1 4 16 14 -20 1 0 0)
1969-12-31 18:00:16.190986195,(-6 -1 19 41 18 -1 -3 -4)
1969-12-31 18:00:16.190986195,(0 0 7 10 -1 -7 -7 -3)
1969-12-31 18:00:16.199441760,(-28 -21 -17 -22 4 0 -3 -8)
1969-12-31 18:00:16.199441760,(15 8 -12 -26 2 7 12 18)
1969-12-31 18:00:16.207897325,(6 -6 -10 -10 -13 -5 -4 0)
1969-12-31 18:00:16.207897325,(-37 -21 -9 -9 -12 -14 -24 -33)
1969-12-31 18:00:16.246551337,(16 12 0 -6 0 5 8 10)
1969-12-31 18:00:16.246551337,(-43 -36 -1 2 2 0 -2 -6)
1969-12-31 18:00:16.247759275,(70 46 5 7 5 12 17 50)
1969-12-31 18:00:16.247759275,(-21 -9 -5 1 -2 -14 -12 -16)
1969-12-31 18:00:16.255006903,(-5 1 -3 -12 -7 0 3 0)
1969-12-31 18:00:16.255006903,(4 0 -3 0 -2 -4 -9 -11)
1969-12-31 18:00:16.256214840,(-17 -13 -1 -2 -3 1 4 -3)
1969-12-31 18:00:16.256214840,(5 2 -3 -8 -19 -1 5 10)
1969-12-31 18:00:16.271918033,(16 6 -4 -2 15 -2 -1 5)
1969-12-31 18:00:16.271918033,(0 1 4 15 15 13 8 1)
1969-12-31 18:00:16.281581536,(-26 -13 10 48 29 5 -8 -19)
1969-12-31 18:00:16.281581536,(15 13 17 24 10 12 5 8)
1969-12-31 18:00:16.299700604,(-7 -9 -28 -79 -49 -20 -11 -11)
1969-12-31 18:00:16.299700604,(5 2 -1 54 -7 -13 -5 2)
1969-12-31 18:00:16.302116480,(-16 -5 5 13 20 4 -5 -9)
1969-12-31 18:00:16.302116480,(10 5 14 47 18 16 9 10)
1969-12-31 18:00:16.327483175,(5 7 22 45 23 10 3 3)
1969-12-31 18:00:16.327483175,(8 5 -11 -51 -7 -1 1 0)
1969-12-31 18:00:16.328691113,(8 1 -12 -41 -28 -5 13 16)
1969-12-31 18:00:16.328691113,(-5 -9 -10 -23 -3 -5 -2 -2)
1969-12-31 18:00:16.343186368,(3 4 -1 -20 -6 -1 -1 -1)
1969-12-31 18:00:16.343186368,(1 1 -4 -15 -7 -5 -3 -1)
1969-12-31 18:00:16.354057808,(-16 -10 0 0 -6 -7 -10 -15)
1969-12-31 18:00:16.354057808,(37 16 2 -3 5 11 20 32)
1969-12-31 18:00:16.372176877,(-36 -6 8 14 -1 -3 -14 -20)
1969-12-31 18:00:16.372176877,(-13 -15 -1 11 3 1 0 1)
1969-12-31 18:00:16.374592752,(-22 -12 -7 5 -1 -7 -17 -29)
1969-12-31 18:00:16.374592752,(-5 -5 -12 -31 -5 4 6 2)
1969-12-31 18:00:16.428949957,(26 16 1 2 -4 2 11 19)
1969-12-31 18:00:16.428949957,(-1 -2 3 -15 3 -2 -4 2)
1969-12-31 18:00:16.430157895,(2 3 4 22 2 -3 -2 -2)
1969-12-31 18:00:16.430157895,(-9 -7 -1 5 10 -1 -4 -9)
1969-12-31 18:00:16.431365833,(8 6 12 10 -6 7 7 2)
1969-12-31 18:00:16.431365833,(-2 -1 -4 -3 -1 -12 -17 -11)
1969-12-31 18:00:16.447069025,(-9 -8 -5 1 -10 -12 -9 -9)
1969-12-31 18:00:16.447069025,(40 21 12 14 11 0 2 12)
1969-12-31 18:00:16.448276963,(-18 -13 -7 6 3 0 -4 -12)
1969-12-31 18:00:16.448276963,(17 5 10 17 7 7 9 7)
1969-12-31 18:00:16.451900777,(14 11 -16 -63 -12 -8 -8 0)
1969-12-31 18:00:16.451900777,(-22 -13 -2 24 2 -4 -14 -21)
1969-12-31 18:00:16.472435720,(-3 2 12 6 -14 3 5 7)
1969-12-31 18:00:16.472435720,(-6 -8 -25 -70 -5 -2 1 -1)
1969-12-31 18:00:16.473643658,(-19 -11 3 65 8 3 3 0)
1969-12-31 18:00:16.473643658,(2 4 -1 -31 30 3 -1 -1)
1969-12-31 18:00:16.489346851,(13 6 13 23 -14 -2 -4 0)
1969-12-31 18:00:16.489346851,(14 17 1 42 -13 -3 2 6)
1969-12-31 18:00:16.497802416,(-23 -14 6 0 -3 -6 -8 -18)
1969-12-31 18:00:16.497802416,(-10 -8 -5 -5 -6 -4 -1 -1)
1969-12-31 18:00:16.518337360,(-2 -7 -4 -18 10 -1 -4 -3)
1969-12-31 18:00:16.518337360,(10 8 0 -4 19 8 4 3)
1969-12-31 18:00:16.524377049,(6 2 2 14 1 2 6 7)
1969-12-31 18:00:16.524377049,(-1 2 4 21 -9 0 3 3)
1969-12-31 18:00:16.544911993,(-5 -9 -20 -68 -11 -5 -5 -5)
1969-12-31 18:00:16.544911993,(-1 -3 -16 -35 -13 0 4 3)
1969-12-31 18:00:16.547327869,(7 1 0 34 1 6 7 5)
1969-12-31 18:00:16.547327869,(-2 3 13 9 -7 -4 0 1)
1969-12-31 18:00:16.581150129,(3 6 21 51 42 2 -3 -5)
1969-12-31 18:00:16.581150129,(-8 -6 -9 -45 -28 -5 -3 -4)
1969-12-31 18:00:16.583566005,(10 2 -24 -46 -8 5 7 9)
1969-12-31 18:00:16.583566005,(6 6 8 16 -34 7 8 8)
1969-12-31 18:00:16.589605695,(0 2 -8 -34 6 -5 -2 -2)
1969-12-31 18:00:16.589605695,(-11 -4 38 127 36 -2 -6 -8)
1969-12-31 18:00:16.592021570,(-9 -6 15 25 23 -10 -13 -11)
1969-12-31 18:00:16.592021570,(-20 -23 -34 -46 -20 -12 -11 -12)
1969-12-31 18:00:16.617388266,(10 7 -16 -34 -22 -2 5 10)
1969-12-31 18:00:16.617388266,(6 4 -8 -37 -1 9 7 2)
1969-12-31 18:00:16.618596204,(6 -2 -27 -26 11 5 7 5)
1969-12-31 18:00:16.618596204,(-1 -5 -7 -36 -8 -5 -2 0)
1969-12-31 18:00:16.633091458,(3 6 31 40 -32 0 -1 -3)
1969-12-31 18:00:16.633091458,(-1 3 2 13 18 2 1 -1)
1969-12-31 18:00:16.643962899,(5 3 11 10 2 1 3 4)
1969-12-31 18:00:16.643962899,(0 -2 -9 -15 10 -4 -2 -1)
1969-12-31 18:00:16.662081967,(-4 -8 -20 -6 8 -3 -5 -3)
1969-12-31 18:00:16.662081967,(-3 1 2 -12 -14 5 1 -3)
1969-12-31 18:00:16.664497843,(9 13 10 -71 -14 9 13 12)
1969-12-31 18:00:16.664497843,(11 18 42 79 23 16 7 8)
1969-12-31 18:00:16.689864538,(-2 -1 15 86 29 5 0 0)
1969-12-31 18:00:16.689864538,(-13 -22 -29 -14 -14 -29 -21 -13)
1969-12-31 18:00:16.691072476,(-18 -18 -42 -64 -32 -14 -14 -14)
1969-12-31 18:00:16.691072476,(4 4 2 22 -5 0 6 6)
1969-12-31 18:00:16.705567731,(5 6 13 23 8 10 5 3)
1969-12-31 18:00:16.705567731,(9 14 36 78 24 16 9 7)
1969-12-31 18:00:16.716439172,(-8 -15 -18 -19 13 -8 -7 -5)
1969-12-31 18:00:16.716439172,(-10 -11 -42 -123 -63 -14 -8 -7)
1969-12-31 18:00:16.744221743,(4 1 1 74 10 -1 5 6)
1969-12-31 18:00:16.744221743,(-3 1 21 34 24 3 -2 -3)
1969-12-31 18:00:16.746637619,(5 10 34 27 -3 8 6 3)
1969-12-31 18:00:16.746637619,(4 7 7 43 24 12 5 2)
1969-12-31 18:00:16.762340811,(3 -7 -34 -49 -5 -12 -6 2)
1969-12-31 18:00:16.762340811,(-3 -5 -11 -48 -24 -3 0 -1)
1969-12-31 18:00:16.763548749,(2 4 1 9 -4 2 0 2)
1969-12-31 18:00:16.763548749,(-2 -2 2 -12 5 1 0 -1)
1969-12-31 18:00:16.778044003,(-5 -5 -18 -54 -15 -5 -3 -4)
1969-12-31 18:00:16.778044003,(7 9 19 16 0 7 5 6)
1969-12-31 18:00:16.788915444,(2 -1 3 37 12 -3 -3 1)
1969-12-31 18:00:16.788915444,(-4 -3 -4 -13 5 -1 -3 -2)
1969-12-31 18:00:16.807034513,(-1 -8 -22 -64 -11 1 -1 -2)
1969-12-31 18:00:16.807034513,(-3 -3 -15 -14 -22 -5 1 0)
1969-12-31 18:00:16.809450388,(0 3 28 59 15 2 0 0)
1969-12-31 18:00:16.809450388,(1 6 14 58 19 5 -3 -1)
1969-12-31 18:00:16.833609146,(4 3 9 7 20 10 6 4)
1969-12-31 18:00:16.833609146,(-1 -1 -12 -48 -8 5 5 0)
1969-12-31 18:00:16.843272649,(1 1 -7 -24 -15 -5 -3 -2)
1969-12-31 18:00:16.843272649,(0 -3 -6 -1 -3 -3 2 0)
1969-12-31 18:00:16.850520276,(-5 -1 0 -5 -1 -6 -1 -3)
1969-12-31 18:00:16.850520276,(-5 -3 -6 -11 2 -8 -6 -4)
1969-12-31 18:00:16.861391717,(-3 -1 4 9 -6 -4 0 -2)
1969-12-31 18:00:16.861391717,(0 -3 -7 -17 -4 -6 -4 -2)
1969-12-31 18:00:16.880718723,(3 -1 -14 -57 -17 -5 0 4)
1969-12-31 18:00:16.880718723,(0 4 23 83 21 9 0 -2)
1969-12-31 18:00:16.886758412,(15 15 16 61 33 14 6 10)
1969-12-31 18:00:16.886758412,(-10 -7 2 -14 -1 -5 -6 -7)
1969-12-31 18:00:16.926620362,(-10 -5 1 -11 -11 -3 -5 -7)
1969-12-31 18:00:16.926620362,(4 4 -9 -45 -12 0 5 5)
1969-12-31 18:00:16.927828300,(1 -5 -11 -32 -12 -2 4 1)
1969-12-31 18:00:16.927828300,(-5 -9 -8 13 7 -5 0 -3)
1969-12-31 18:00:16.929036238,(-7 -4 7 16 -8 -15 -7 -7)
1969-12-31 18:00:16.929036238,(-1 -5 -15 -45 -6 -9 -4 -4)
1969-12-31 18:00:16.941115617,(-4 1 12 63 8 -2 -3 -2)
1969-12-31 18:00:16.941115617,(9 6 -8 -27 4 0 2 8)
1969-12-31 18:00:16.961650561,(0 0 10 42 12 6 2 2)
1969-12-31 18:00:16.961650561,(2 2 7 6 9 9 1 2)
1969-12-31 18:00:16.962858499,(-6 -1 2 -19 -10 0 -7 -9)
1969-12-31 18:00:16.962858499,(6 8 1 -21 -10 2 -1 1)
1969-12-31 18:00:16.979769629,(2 4 2 28 7 4 3 3)
1969-12-31 18:00:16.979769629,(8 -7 -21 -39 -22 -2 2 6)
1969-12-31 18:00:16.980977567,(-10 -8 -2 -14 1 -1 -6 -6)
1969-12-31 18:00:16.980977567,(-7 2 6 12 -5 0 2 -4)
1969-12-31 18:00:16.995472821,(1 2 3 15 20 2 3 -1)
1969-12-31 18:00:16.995472821,(-7 -5 0 3 -4 -11 -8 -7)
1969-12-31 18:00:17.016007765,(-3 -4 -14 -42 -24 -16 -7 -4)
1969-12-31 18:00:17.016007765,(1 -3 -4 -23 -17 -11 -4 1)
1969-12-31 18:00:17.024463330,(7 4 12 46 5 15 9 7)
1969-12-31 18:00:17.024463330,(-1 2 10 31 35 19 8 3)
1969-12-31 18:00:17.031710958,(5 0 -4 -19 -6 5 7 3)
1969-12-31 18:00:17.031710958,(-1 -1 -3 1 4 7 -1 -1)
1969-12-31 18:00:17.080028473,(3 -4 -10 -35 -5 -6 -2 1)
1969-12-31 18:00:17.080028473,(1 7 11 18 -6 -2 -1 -2)
1969-12-31 18:00:17.082444349,(-6 -5 -2 3 21 3 -2 -4)
1969-12-31 18:00:17.082444349,(-5 -9 -15 -15 -19 -16 -7 -5)
1969-12-31 18:00:17.083652286,(-2 1 4 -9 -7 -5 -4 -3)
1969-12-31 18:00:17.083652286,(-3 -2 1 27 8 -4 -4 0)
1969-12-31 18:00:17.088484038,(4 -5 -24 -71 -36 -11 -1 4)
1969-12-31 18:00:17.088484038,(0 3 18 52 6 0 0 0)
1969-12-31 18:00:17.095731665,(-1 2 9 30 37 8 -4 -1)
1969-12-31 18:00:17.095731665,(-2 0 -1 -1 -7 -3 -3 -3)
1969-12-31 18:00:17.104187230,(4 0 1 12 -6 6 6 7)
1969-12-31 18:00:17.104187230,(1 -1 -6 -22 1 3 0 -1)
1969-12-31 18:00:17.133177739,(-3 -2 -21 -46 -31 -9 0 -1)
1969-12-31 18:00:17.133177739,(2 -2 1 5 -2 -6 -1 1)
1969-12-31 18:00:17.134385677,(-6 1 15 17 13 3 -5 -8)
1969-12-31 18:00:17.134385677,(1 -1 -1 7 8 6 1 -1)
1969-12-31 18:00:17.152504745,(1 1 3 7 3 6 1 1)
1969-12-31 18:00:17.152504745,(-1 -1 -12 -21 -6 -2 -3 -1)
1969-12-31 18:00:17.154920621,(3 1 -5 -11 -8 0 3 5)
1969-12-31 18:00:17.154920621,(9 6 8 12 6 2 5 9)
1969-12-31 18:00:17.168207938,(-1 1 2 -4 -5 0 -2 -4)
1969-12-31 18:00:17.169415876,(-13 -7 -10 -15 -3 -3 -4 -8)
1969-12-31 18:00:17.176663503,(-4 -4 3 9 1 -1 -3 -3)
1969-12-31 18:00:17.176663503,(-1 1 4 7 8 0 -1 -3)
1969-12-31 18:00:17.197198447,(0 -4 -7 -7 -9 -4 -1 -1)
1969-12-31 18:00:17.197198447,(5 1 0 1 3 0 3 6)
1969-12-31 18:00:17.198406385,(-1 2 3 4 -16 -1 -1 0)
1969-12-31 18:00:17.198406385,(-2 -4 -7 -8 23 0 -1 -1)
1969-12-31 18:00:17.212901639,(0 0 1 6 -4 1 0 1)
1969-12-31 18:00:17.212901639,(-1 1 7 16 10 2 0 -3)
1969-12-31 18:00:17.212901639,(2 2 3 3 2 2 7 1)
1969-12-31 18:00:17.212901639,(0 -2 0 -1 -1 3 4 4)
1969-12-31 18:00:17.214109577,(-1 -3 0 6 4 1 -3 -3)
1969-12-31 18:00:17.214109577,(-2 -1 2 -2 -4 -3 -6 -4)
1969-12-31 18:00:17.215317515,(1 2 -2 0 -2 -4 -2 2)
1969-12-31 18:00:17.216525453,(1 0 -1 -1 0 -1 -3 -3)
1969-12-31 18:00:17.221357204,(-3 -3 -4 -5 -5 -2 0 -1)
1969-12-31 18:00:17.221357204,(-3 -1 -2 -1 0 0 -1 -1)
1969-12-31 18:00:17.222565142,(-2 -1 4 1 0 0 -3 -1)
1969-12-31 18:00:17.222565142,(1 1 -2 0 -1 -1 -1 0)
1969-12-31 18:00:17.223773080,(-4 -2 -2 0 1 3 1 2)
1969-12-31 18:00:17.223773080,(3 3 0 3 1 -2 -1 -1)
1969-12-31 18:00:17.237060397,(-3 -3 0 0 1 0 -1 -4)
1969-12-31 18:00:17.237060397,(-3 1 4 -1 -1 -2 -3 -4)
1969-12-31 18:00:17.245515962,(1 -1 -3 -1 -3 3 5 3)
1969-12-31 18:00:17.245515962,(3 -1 -4 1 1 3 4 4)
1969-12-31 18:00:17.266050906,(-2 2 0 -2 -2 -2 0 -1)
1969-12-31 18:00:17.266050906,(0 -2 -1 -1 0 -3 0 -2)
1969-12-31 18:00:17.282962036,(1 2 0 -3 0 -3 0 -2)
1969-12-31 18:00:17.282962036,(-1 1 0 -1 -2 -1 -1 -3)
1969-12-31 18:00:17.292625539,(1 0 -1 -8 -1 -3 -1 1)
1969-12-31 18:00:17.292625539,(0 0 -3 -1 -6 -1 0 1)
1969-12-31 18:00:17.292625539,(-1 2 5 3 11 -4 -4 -3)
1969-12-31 18:00:17.292625539,(1 3 17 16 -1 8 5 5)
1969-12-31 18:00:17.309536670,(-3 -2 3 11 16 6 1 1)
1969-12-31 18:00:17.309536670,(2 7 1 6 -1 2 2 1)
1969-12-31 18:00:17.317992235,(8 6 -18 -23 -19 -9 -4 -1)
1969-12-31 18:00:17.317992235,(-8 -12 -7 -30 -5 -13 -8 -10)
1969-12-31 18:00:17.339735116,(6 3 1 2 -1 2 3 4)
1969-12-31 18:00:17.339735116,(-4 -4 27 29 5 5 3 3)
1969-12-31 18:00:17.345774806,(-3 2 -13 23 21 10 1 -2)
1969-12-31 18:00:17.345774806,(16 5 -11 -17 -7 1 5 11)
1969-12-31 18:00:17.375973253,(-10 -13 -13 -36 -31 -9 -4 -7)
1969-12-31 18:00:17.375973253,(-8 -7 13 -44 -12 -4 -2 -1)
1969-12-31 18:00:17.377181191,(-4 13 9 63 15 1 1 -1)
1969-12-31 18:00:17.377181191,(7 -2 -22 21 13 6 -3 -6)
1969-12-31 18:00:17.382012942,(5 -9 -8 -6 18 6 4 3)
1969-12-31 18:00:17.382012942,(-21 -14 11 6 -15 -17 -17 -16)
1969-12-31 18:00:17.390468507,(5 -5 -10 -13 -20 7 7 8)
1969-12-31 18:00:17.390468507,(6 9 -27 -46 -4 -3 2 7)
1969-12-31 18:00:17.408587575,(11 17 20 -20 -4 -12 -7 -4)
1969-12-31 18:00:17.408587575,(-12 -17 -29 9 -9 -3 -2 -5)
1969-12-31 18:00:17.418251079,(-7 -8 44 20 8 9 0 -2)
1969-12-31 18:00:17.418251079,(2 17 8 63 31 4 1 1)
1969-12-31 18:00:17.447241588,(9 9 21 -25 -10 5 -1 0)
1969-12-31 18:00:17.447241588,(3 8 -8 28 19 10 7 5)
1969-12-31 18:00:17.447241588,(15 -6 -32 -48 -28 -5 4 9)
1969-12-31 18:00:17.448449525,(-29 -25 -50 -99 -42 -31 -25 -21)
1969-12-31 18:00:17.454489215,(4 -9 9 77 24 6 7 7)
1969-12-31 18:00:17.454489215,(6 8 9 17 23 5 1 0)
1969-12-31 18:00:17.462944780,(-4 -4 -1 -35 3 6 7 1)
1969-12-31 18:00:17.462944780,(-24 -7 49 50 8 -2 -9 -15)
1969-12-31 18:00:17.500390853,(3 28 -1 33 26 9 4 2)
1969-12-31 18:00:17.500390853,(3 -2 -9 -72 -70 -11 -2 -1)
1969-12-31 18:00:17.539044866,(16 -8 -53 8 31 -1 1 10)
1969-12-31 18:00:17.539044866,(2 -14 6 -59 -18 -1 -1 -1)
1969-12-31 18:00:17.541460742,(-6 1 18 69 12 2 -1 0)
1969-12-31 18:00:17.541460742,(5 6 7 37 31 16 11 7)
1969-12-31 18:00:17.542668680,(-22 1 23 -42 -20 -12 -13 -16)
1969-12-31 18:00:17.542668680,(7 8 -3 -7 -4 3 3 1)
1969-12-31 18:00:17.548708369,(-13 -19 -11 -30 -18 -2 1 -4)
1969-12-31 18:00:17.548708369,(8 12 -4 11 -3 -2 3 7)
1969-12-31 18:00:17.549916307,(11 4 1 -21 -7 -4 2 4)
1969-12-31 18:00:17.549916307,(2 -2 -8 0 16 4 5 5)
1969-12-31 18:00:17.553540121,(-3 -5 2 -12 -12 -4 -1 -3)
1969-12-31 18:00:17.553540121,(-7 1 15 25 18 0 -4 -8)
1969-12-31 18:00:17.572867127,(1 -5 -6 -20 -34 -13 -3 -1)
1969-12-31 18:00:17.572867127,(6 10 29 103 32 6 4 3)
1969-12-31 18:00:17.581322692,(-5 -10 -17 -21 -3 -1 -4 -4)
1969-12-31 18:00:17.581322692,(-2 -7 -4 -17 14 -5 -4 -2)
1969-12-31 18:00:17.590986195,(-6 -4 9 27 8 0 -2 -3)
1969-12-31 18:00:17.590986195,(6 3 -8 -33 -34 -4 4 6)
1969-12-31 18:00:17.599441760,(-6 -7 -16 -43 -20 -10 -4 -3)
1969-12-31 18:00:17.599441760,(3 1 -10 -3 6 2 0 1)
1969-12-31 18:00:17.618768766,(-3 -1 10 18 1 2 -3 -2)
1969-12-31 18:00:17.618768766,(-4 -7 -1 -1 -6 -2 -3 -4)
1969-12-31 18:00:17.626016393,(0 3 -3 10 8 1 1 0)
1969-12-31 18:00:17.627224331,(10 4 -1 5 2 1 2 4)
1969-12-31 18:00:17.635679896,(-1 -1 -3 -7 3 2 1 0)
1969-12-31 18:00:17.635679896,(0 0 11 3 2 6 1 0)
1969-12-31 18:00:17.653798965,(3 3 -3 12 5 4 0 1)
1969-12-31 18:00:17.653798965,(3 -1 -12 -23 -11 -2 1 1)
1969-12-31 18:00:17.673125971,(-8 -1 5 -1 2 1 5 3)
1969-12-31 18:00:17.673125971,(11 11 9 23 10 5 3 1)
1969-12-31 18:00:17.710572045,(-10 -4 -7 -7 -8 -4 -8 -13)
1969-12-31 18:00:17.710572045,(2 -4 -7 -11 -4 -4 -3 0)
1969-12-31 18:00:17.711779983,(-5 2 12 20 9 0 -4 -6)
1969-12-31 18:00:17.711779983,(6 0 -4 -1 0 3 7 9)
1969-12-31 18:00:17.714195858,(1 1 -6 -8 -4 0 0 6)
1969-12-31 18:00:17.714195858,(-1 -9 -2 -1 1 -1 2 5)
1969-12-31 18:00:17.717819672,(-12 -3 2 12 6 -3 -4 -12)
1969-12-31 18:00:17.717819672,(-9 -8 -2 -5 -7 -7 -7 -7)
1969-12-31 18:00:17.726275237,(0 -1 -4 -7 -3 -2 -1 3)
1969-12-31 18:00:17.726275237,(8 4 -2 3 3 4 3 4)
1969-12-31 18:00:17.735938740,(19 7 2 1 1 6 5 10)
1969-12-31 18:00:17.735938740,(-3 2 5 2 3 4 3 -2)
1969-12-31 18:00:17.754057808,(-4 -5 -6 -12 -3 -2 -4 -7)
1969-12-31 18:00:17.754057808,(-7 -10 -22 -56 -32 -10 -3 0)
1969-12-31 18:00:17.755265746,(-1 1 -3 -40 -18 -7 -2 2)
1969-12-31 18:00:17.755265746,(6 11 38 96 59 13 5 5)
1969-12-31 18:00:17.770968939,(0 -2 3 0 11 3 0 2)
1969-12-31 18:00:17.770968939,(-2 -3 -27 -72 -16 1 0 -1)
1969-12-31 18:00:17.780632442,(-2 -1 8 35 -2 3 -3 -6)
1969-12-31 18:00:17.780632442,(-7 -2 10 8 11 5 0 -1)
1969-12-31 18:00:17.798751510,(9 8 23 66 21 9 8 10)
1969-12-31 18:00:17.798751510,(1 -1 -4 -14 -6 -2 -3 -2)
1969-12-31 18:00:17.808415013,(-32 -1 -11 -46 -17 -8 -9 -13)
1969-12-31 18:00:17.808415013,(25 -4 -12 -34 -17 -3 0 5)
1969-12-31 18:00:17.826534081,(-18 -9 -17 -24 -15 -16 -20 -29)
1969-12-31 18:00:17.826534081,(5 2 8 17 7 1 5 10)
1969-12-31 18:00:17.827742019,(-7 0 4 16 13 4 7 9)
1969-12-31 18:00:17.827742019,(-26 -12 -3 -3 -7 -3 0 -9)
1969-12-31 18:00:17.873643658,(45 11 -6 -28 -11 -2 8 19)
1969-12-31 18:00:17.873643658,(9 5 7 22 5 -4 -9 -4)
1969-12-31 18:00:17.874851596,(-1 -9 -13 -18 2 -11 -13 -8)
1969-12-31 18:00:17.874851596,(-15 -3 -11 -32 -16 0 2 -2)
1969-12-31 18:00:17.877267472,(-10 0 24 64 5 1 4 -3)
1969-12-31 18:00:17.877267472,(-29 -4 20 46 22 1 -7 -23)
1969-12-31 18:00:17.880891286,(48 16 18 36 24 28 33 46)
1969-12-31 18:00:17.880891286,(-21 -16 -33 -68 -35 -27 -34 -36)
1969-12-31 18:00:17.899010354,(-5 -8 -30 -69 -28 -17 -13 -6)
1969-12-31 18:00:17.899010354,(3 4 5 4 2 7 9 8)
1969-12-31 18:00:17.900218292,(5 4 6 15 7 8 9 10)
1969-12-31 18:00:17.900218292,(1 3 13 21 10 1 0 0)
1969-12-31 18:00:17.915921484,(-13 -7 11 47 18 8 1 -6)
1969-12-31 18:00:17.915921484,(-2 0 5 1 4 -6 -1 4)
1969-12-31 18:00:17.925584987,(-18 -15 -28 -40 -17 -11 -11 -21)
1969-12-31 18:00:17.925584987,(32 20 12 11 3 4 12 20)
1969-12-31 18:00:17.954575496,(-30 -18 -29 -58 -19 -8 -6 -12)
1969-12-31 18:00:17.954575496,(34 16 6 8 3 7 9 10)
1969-12-31 18:00:17.955783434,(-8 5 24 73 11 3 -1 3)
1969-12-31 18:00:17.955783434,(2 -6 -1 13 10 5 6 18)
1969-12-31 18:00:17.981150129,(-2 -4 -8 -43 -8 0 -1 -1)
1969-12-31 18:00:17.981150129,(-52 -16 6 17 -1 -9 -16 -24)
1969-12-31 18:00:17.983566005,(87 24 -2 -21 1 5 13 37)
1969-12-31 18:00:17.983566005,(-34 -5 -1 8 -6 -6 -9 -27)
1969-12-31 18:00:17.998061260,(7 -1 -22 -56 -12 -1 3 13)
1969-12-31 18:00:17.998061260,(-2 -8 -27 -89 -22 3 7 4)
1969-12-31 18:00:18.008932701,(-20 -5 29 101 2 -8 -13 -16)
1969-12-31 18:00:18.008932701,(11 10 28 51 31 14 9 12)
1969-12-31 18:00:18.036715272,(2 0 -4 23 29 12 8 -1)
1969-12-31 18:00:18.036715272,(4 -1 5 -1 -8 -5 -6 -4)
1969-12-31 18:00:18.037923210,(-20 -10 -4 -29 -11 -3 -1 -12)
1969-12-31 18:00:18.037923210,(22 10 -5 -19 -13 -3 5 13)
1969-12-31 18:00:18.053626402,(-1 -2 -6 -14 -3 -4 4 4)
1969-12-31 18:00:18.053626402,(-67 -27 -10 26 7 2 -5 -29)
1969-12-31 18:00:18.056042278,(94 52 15 -15 19 20 35 68)
1969-12-31 18:00:18.056042278,(-48 -29 -24 -24 -25 -20 -28 -39)
1969-12-31 18:00:18.070537532,(7 4 3 15 13 2 2 8)
1969-12-31 18:00:18.070537532,(11 11 2 1 -4 11 13 19)
1969-12-31 18:00:18.081408973,(-14 -3 21 26 -1 4 2 -20)
1969-12-31 18:00:18.081408973,(3 3 4 3 5 0 3 6)
1969-12-31 18:00:18.099528041,(17 2 -20 -43 -11 0 4 10)
1969-12-31 18:00:18.099528041,(14 -12 -45 -32 -8 -8 1 3)
1969-12-31 18:00:18.100735979,(-34 -8 22 71 10 -3 -12 -21)
1969-12-31 18:00:18.100735979,(14 14 30 46 42 16 4 7)
1969-12-31 18:00:18.126102675,(-14 2 29 71 23 11 0 -10)
1969-12-31 18:00:18.126102675,(18 10 10 -3 2 5 4 9)
1969-12-31 18:00:18.127310613,(-22 -17 -39 -91 -23 -18 -16 -17)
1969-12-31 18:00:18.127310613,(-6 -7 -18 -20 -24 -13 -8 -10)
1969-12-31 18:00:18.153885246,(-2 -2 7 2 -11 3 12 15)
1969-12-31 18:00:18.153885246,(-19 6 7 11 12 1 -3 -5)
1969-12-31 18:00:18.161132873,(59 23 -7 -25 2 18 23 10)
1969-12-31 18:00:18.161132873,(14 -2 -12 -25 -19 -11 -1 16)
1969-12-31 18:00:18.172004314,(-34 -10 5 6 -6 -8 -12 -21)
1969-12-31 18:00:18.172004314,(27 7 12 27 2 -3 1 12)
1969-12-31 18:00:18.173212252,(-47 -21 -19 -47 -2 -1 -11 -24)
1969-12-31 18:00:18.173212252,(9 6 5 17 2 11 14 15)
1969-12-31 18:00:18.208242450,(9 7 14 16 1 1 0 7)
1969-12-31 18:00:18.208242450,(3 -3 -13 -26 -2 0 1 4)
1969-12-31 18:00:18.210658326,(-19 -13 -17 -55 -35 -16 -9 -7)
1969-12-31 18:00:18.210658326,(2 2 20 64 32 7 2 -1)
1969-12-31 18:00:18.215490078,(-3 3 32 59 10 0 -9 -11)
1969-12-31 18:00:18.215490078,(-10 -10 20 39 18 -4 -20 -6)
1969-12-31 18:00:18.226361518,(22 13 -16 -26 1 3 8 3)
1969-12-31 18:00:18.226361518,(-73 -32 -33 -63 -27 -1 3 -29)
1969-12-31 18:00:18.243272649,(78 59 14 1 9 15 31 67)
1969-12-31 18:00:18.243272649,(-8 -8 -10 -4 -10 -11 -14 -29)
1969-12-31 18:00:18.251728214,(-38 -17 -1 11 5 1 -5 -7)
1969-12-31 18:00:18.251728214,(-8 -9 -7 -19 -11 -5 -7 -4)
1969-12-31 18:00:18.271055220,(-1 -3 -2 -4 -3 -1 -2 -7)
1969-12-31 18:00:18.271055220,(9 5 2 1 -6 -1 1 6)
1969-12-31 18:00:18.273471096,(-15 -8 0 4 -1 -12 -13 -9)
1969-12-31 18:00:18.273471096,(16 4 -5 -10 -13 -3 -4 0)
1969-12-31 18:00:18.287966350,(-21 -14 -12 2 -7 -13 -18 -16)
1969-12-31 18:00:18.287966350,(19 12 8 31 37 11 19 13)
1969-12-31 18:00:18.298837791,(-20 -9 16 37 21 17 2 -7)
1969-12-31 18:00:18.298837791,(11 5 -18 -84 -33 6 9 12)
1969-12-31 18:00:18.315748921,(0 -3 4 32 -7 -7 -6 -4)
1969-12-31 18:00:18.315748921,(-9 -11 6 21 -5 -12 -12 -8)
1969-12-31 18:00:18.324204487,(4 5 4 19 12 -6 -6 -10)
1969-12-31 18:00:18.324204487,(-21 -13 -15 -47 -9 -9 -14 -9)
1969-12-31 18:00:18.343531493,(73 40 3 -18 -5 21 45 64)
1969-12-31 18:00:18.343531493,(-12 -6 -7 -6 -5 -3 -6 -17)
1969-12-31 18:00:18.345947368,(-9 -6 4 15 9 7 3 9)
1969-12-31 18:00:18.345947368,(18 6 7 11 -4 -2 2 13)
1969-12-31 18:00:18.371314064,(-35 -21 -19 -24 -8 -8 -13 -28)
1969-12-31 18:00:18.371314064,(15 9 6 14 7 10 15 21)
1969-12-31 18:00:18.373729940,(5 2 2 -2 -5 -5 -5 1)
1969-12-31 18:00:18.373729940,(11 8 6 32 10 3 6 7)
1969-12-31 18:00:18.388225194,(-24 -17 -2 -12 3 -3 -6 -14)
1969-12-31 18:00:18.388225194,(9 3 -7 -23 -3 3 5 6)
1969-12-31 18:00:18.396680759,(-20 -15 -9 2 -19 -14 -13 -13)
1969-12-31 18:00:18.396680759,(3 2 -6 -26 -2 1 2 -3)
1969-12-31 18:00:18.416007765,(-16 -8 -14 -28 4 -3 -3 -13)
1969-12-31 18:00:18.416007765,(1 0 11 23 1 0 -2 -1)
1969-12-31 18:00:18.418423641,(15 8 1 21 -5 -13 -15 -21)
1969-12-31 18:00:18.418423641,(2 7 26 60 31 26 40 43)
1969-12-31 18:00:18.432918896,(57 30 23 21 12 11 10 30)
1969-12-31 18:00:18.432918896,(4 -3 -16 -31 -10 -6 -3 -1)
1969-12-31 18:00:18.443790336,(-35 -24 -11 -25 -1 1 2 -8)
1969-12-31 18:00:18.443790336,(15 14 -4 -10 -8 -9 -11 -8)
1969-12-31 18:00:18.460701467,(-28 -18 -13 -33 -15 -8 -10 -19)
1969-12-31 18:00:18.460701467,(4 15 25 41 12 8 8 8)
1969-12-31 18:00:18.469157031,(-3 -8 -15 -18 4 6 6 10)
1969-12-31 18:00:18.469157031,(8 1 -20 -90 -2 -2 -1 0)
1969-12-31 18:00:18.488484038,(-10 -1 21 86 -10 -1 -1 -3)
1969-12-31 18:00:18.488484038,(0 -1 19 36 -10 -3 -3 0)
1969-12-31 18:00:18.490899914,(-14 3 -1 0 14 1 -4 -10)
1969-12-31 18:00:18.490899914,(-2 -1 -18 -41 -8 -10 -13 -19)
1969-12-31 18:00:18.545257118,(-7 -14 -16 -28 4 2 3 -6)
1969-12-31 18:00:18.545257118,(-13 -12 9 9 -6 1 -1 -4)
1969-12-31 18:00:18.546465056,(22 23 19 24 -7 -15 -13 -2)
1969-12-31 18:00:18.546465056,(-16 -2 10 17 10 7 6 -4)
1969-12-31 18:00:18.547672994,(-12 -19 -47 -67 -24 -19 -18 -11)
1969-12-31 18:00:18.547672994,(-16 -14 -18 -5 0 -3 -1 -11)
1969-12-31 18:00:18.552504745,(6 11 35 46 -21 6 8 11)
1969-12-31 18:00:18.552504745,(-1 7 32 88 22 -5 -10 -10)
1969-12-31 18:00:18.560960311,(8 13 9 7 3 5 4 3)
1969-12-31 18:00:18.560960311,(7 2 -30 -81 -14 -2 1 4)
1969-12-31 18:00:18.563376186,(-9 -20 -31 -33 -4 -6 -2 -2)
1969-12-31 18:00:18.563376186,(-2 -8 3 -21 -6 -2 -6 -5)
1969-12-31 18:00:18.608069888,(-25 -13 0 35 -11 -2 -7 -17)
1969-12-31 18:00:18.608069888,(19 16 10 48 48 12 10 18)
1969-12-31 18:00:18.609277826,(-3 -1 -3 1 0 0 -4 -2)
1969-12-31 18:00:18.609277826,(-4 -5 11 41 -26 -4 -5 -7)
1969-12-31 18:00:18.610485764,(-1 3 3 -51 13 0 -3 -3)
1969-12-31 18:00:18.610485764,(3 4 -10 6 -6 -2 -3 0)
1969-12-31 18:00:18.615317515,(-1 -6 -9 20 1 0 -1 -2)
1969-12-31 18:00:18.615317515,(-10 -14 -7 13 20 6 3 -1)
1969-12-31 18:00:18.633436583,(-5 -4 -6 -61 -26 -8 -4 -6)
1969-12-31 18:00:18.633436583,(14 14 13 2 -10 -6 -2 3)
1969-12-31 18:00:18.635852459,(4 3 1 10 19 4 3 3)
1969-12-31 18:00:18.635852459,(-5 -10 -21 -44 -18 -8 -4 -1)
1969-12-31 18:00:18.661219154,(-11 -13 -12 -3 -9 3 2 -4)
1969-12-31 18:00:18.661219154,(0 2 15 44 12 0 -2 0)
1969-12-31 18:00:18.662427092,(4 3 7 -19 6 3 8 13)
1969-12-31 18:00:18.662427092,(-25 -1 -1 18 1 -4 -12 -26)
1969-12-31 18:00:18.676922347,(0 1 11 14 12 2 0 0)
1969-12-31 18:00:18.676922347,(7 1 -12 -26 -16 -3 -1 0)
1969-12-31 18:00:18.708328732,(2 -4 -10 -44 -13 -5 -4 0)
1969-12-31 18:00:18.708328732,(18 1 -9 -24 -5 1 7 14)
1969-12-31 18:00:18.709536670,(-7 -4 0 18 3 0 -2 -6)
1969-12-31 18:00:18.709536670,(-7 -4 4 1 -1 -1 -6 -7)
1969-12-31 18:00:18.713160483,(-8 -2 -1 -3 6 2 1 -2)
1969-12-31 18:00:18.713160483,(6 3 16 60 35 4 2 4)
1969-12-31 18:00:18.733695427,(7 13 22 35 -23 -8 -7 -3)
1969-12-31 18:00:18.733695427,(-10 -12 -11 -32 -16 -5 2 5)
1969-12-31 18:00:18.736111303,(-18 4 8 -1 13 7 2 -19)
1969-12-31 18:00:18.736111303,(26 13 -15 -23 -3 0 2 4)
1969-12-31 18:00:18.749398619,(-43 -18 0 -1 12 -1 -2 -11)
1969-12-31 18:00:18.749398619,(38 16 9 5 -5 1 7 18)
1969-12-31 18:00:18.760270060,(32 7 -6 -6 -9 -1 9 27)
1969-12-31 18:00:18.760270060,(-5 -11 -7 -3 -15 -16 -24 -27)
1969-12-31 18:00:18.778389129,(-16 -14 -7 4 7 -3 -7 -13)
1969-12-31 18:00:18.778389129,(-1 0 -6 -16 -1 10 13 8)
1969-12-31 18:00:18.780805004,(-9 -6 -12 4 11 -1 -1 3)
1969-12-31 18:00:18.780805004,(20 14 16 29 -11 6 13 22)
1969-12-31 18:00:18.806171700,(7 3 1 6 0 -5 -1 4)
1969-12-31 18:00:18.806171700,(-28 -18 -17 -38 -12 -11 -15 -23)
1969-12-31 18:00:18.807379638,(1 -1 -8 -32 -11 -3 -3 -4)
1969-12-31 18:00:18.807379638,(0 2 14 44 13 6 3 3)
1969-12-31 18:00:18.821874892,(0 4 10 17 10 1 2 0)
1969-12-31 18:00:18.821874892,(25 11 4 4 -1 0 1 7)
1969-12-31 18:00:18.832746333,(22 18 10 0 4 12 7 -6)
1969-12-31 18:00:18.832746333,(11 -8 -12 -31 -12 -5 -2 -1)
1969-12-31 18:00:18.879855910,(-2 6 3 6 9 11 15 14)
1969-12-31 18:00:18.879855910,(-20 -16 -2 2 2 1 3 -3)
1969-12-31 18:00:18.882271786,(12 1 -8 -3 -10 -11 -13 -5)
1969-12-31 18:00:18.882271786,(-31 -16 -8 -8 -7 -10 -12 -14)
1969-12-31 18:00:18.882271786,(42 17 -1 2 8 7 9 9)
1969-12-31 18:00:18.882271786,(12 8 -3 -19 -5 0 -2 2)
1969-12-31 18:00:18.888311475,(-28 -15 -11 -26 -11 -8 -7 -12)
1969-12-31 18:00:18.888311475,(4 4 1 15 -3 4 8 12)
1969-12-31 18:00:18.894351165,(-11 -3 23 51 20 -2 -9 -8)
1969-12-31 18:00:18.894351165,(26 18 7 13 4 14 17 11)
1969-12-31 18:00:18.905222606,(0 -1 9 13 -6 -12 -8 7)
1969-12-31 18:00:18.905222606,(16 4 -15 -34 2 4 11 16)
1969-12-31 18:00:18.941460742,(-15 -14 -20 -35 -7 0 -3 -9)
1969-12-31 18:00:18.941460742,(-21 -10 -2 14 -1 -1 -5 -4)
1969-12-31 18:00:18.943876618,(26 12 10 2 4 5 9 13)
1969-12-31 18:00:18.943876618,(26 10 3 -7 -4 4 10 18)
1969-12-31 18:00:18.959579810,(-17 -6 -5 -1 -1 -3 -6 -8)
1969-12-31 18:00:18.959579810,(-7 -6 -24 -58 -6 -3 -1 -6)
1969-12-31 18:00:18.961995686,(-25 -10 6 41 1 -3 -5 -11)
1969-12-31 18:00:18.961995686,(-26 -7 16 22 7 1 -3 -5)
1969-12-31 18:00:18.966827437,(25 8 -7 -22 -15 -2 3 6)
1969-12-31 18:00:18.966827437,(-7 -3 2 28 13 -9 -8 -5)
1969-12-31 18:00:18.977698878,(0 -1 2 15 9 5 3 1)
1969-12-31 18:00:18.977698878,(-7 -2 1 -1 -16 0 0 1)
1969-12-31 18:00:18.995817947,(27 14 4 5 13 7 9 16)
1969-12-31 18:00:18.995817947,(-75 -37 -12 -22 -15 -13 -22 -40)
1969-12-31 18:00:18.998233822,(32 18 -2 -21 2 5 8 8)
1969-12-31 18:00:18.998233822,(-2 -1 1 13 8 -1 -2 -2)
1969-12-31 18:00:19.041719586,(-25 -10 -3 -17 -11 -2 1 -6)
1969-12-31 18:00:19.041719586,(6 -1 5 5 0 3 5 10)
1969-12-31 18:00:19.044135462,(-13 -9 2 7 -3 -1 -2 -3)
1969-12-31 18:00:19.044135462,(13 9 -4 -5 9 5 6 6)
1969-12-31 18:00:19.045343399,(2 -5 -15 -48 -13 -7 -6 -4)
1969-12-31 18:00:19.045343399,(16 10 12 51 9 6 6 10)
1969-12-31 18:00:19.059838654,(-16 -4 19 37 14 -1 -6 -9)
1969-12-31 18:00:19.059838654,(7 6 5 8 -2 -5 -5 -1)
1969-12-31 18:00:19.068294219,(-8 -1 -8 -5 5 5 3 -2)
1969-12-31 18:00:19.068294219,(7 1 -18 -66 -23 -5 -3 -1)
1969-12-31 18:00:19.070710095,(-13 -12 -11 -2 -11 -7 -7 -2)
1969-12-31 18:00:19.070710095,(-12 -1 8 35 18 -6 -13 -18)
1969-12-31 18:00:19.096076790,(-17 -4 14 31 10 -1 -9 -15)
1969-12-31 18:00:19.096076790,(32 13 0 3 4 0 3 13)
1969-12-31 18:00:19.097284727,(-8 -8 -16 -56 -14 0 1 0)
1969-12-31 18:00:19.097284727,(-9 -9 -4 -3 -27 -10 -5 -5)
1969-12-31 18:00:19.111779983,(33 9 -5 6 5 6 17 31)
1969-12-31 18:00:19.111779983,(-54 -23 4 18 6 -8 -19 -31)
1969-12-31 18:00:19.122651424,(40 13 -7 -11 4 3 2 7)
1969-12-31 18:00:19.122651424,(-15 -16 -12 -17 -1 -2 -10 -17)
1969-12-31 18:00:19.140770492,(11 1 -1 -6 -9 -2 -1 3)
1969-12-31 18:00:19.140770492,(-5 -1 3 4 2 0 4 10)
1969-12-31 18:00:19.143186368,(-8 9 3 11 5 3 0 -4)
1969-12-31 18:00:19.143186368,(-18 -5 -5 -27 -6 1 1 -4)
1969-12-31 18:00:19.168553063,(34 10 -7 -4 -12 -3 -2 1)
1969-12-31 18:00:19.168553063,(6 5 11 19 10 4 4 5)
1969-12-31 18:00:19.170968939,(-18 -13 7 30 5 -6 -7 -6)
1969-12-31 18:00:19.170968939,(27 32 17 19 17 23 25 18)
1969-12-31 18:00:19.215662640,(-37 -22 -17 -38 -55 -38 -25 -18)
1969-12-31 18:00:19.215662640,(-5 -9 -21 -52 -27 -13 -5 -6)
1969-12-31 18:00:19.216870578,(-2 -3 7 29 23 9 3 -1)
