time,.data
1969/12/31/18:00:05.773,(-1 -4 0 1 -1 -2 -2 -3)
1969/12/31/18:00:05.773,(-1 -1 -4 -4 -4 1 -2 -1)
1969/12/31/18:00:05.785,(-1 -2 -5 -4 -3 -2 0 -1)
1969/12/31/18:00:05.785,(-3 -3 -6 -5 -3 0 0 -1)
1969/12/31/18:00:05.792,(1 -1 -3 -2 -1 -1 -1 1)
1969/12/31/18:00:05.792,(-1 -1 -2 -1 -1 -2 0 -1)
1969/12/31/18:00:05.806,(-1 0 1 2 1 0 0 0)
1969/12/31/18:00:05.806,(-2 -1 2 3 1 0 -1 -3)
1969/12/31/18:00:05.806,(-3 -2 0 -2 -3 -2 -1 -4)
1969/12/31/18:00:05.806,(-1 -3 -5 -5 -2 0 -1 -2)
1969/12/31/18:00:05.823,(-1 -2 -5 -4 -1 0 -1 -1)
1969/12/31/18:00:05.823,(-1 0 1 -5 -4 -2 -2 -1)
1969/12/31/18:00:05.830,(-1 1 0 -3 -9 -1 -2 -2)
1969/12/31/18:00:05.830,(0 1 3 7 14 4 0 -1)
1969/12/31/18:00:05.849,(0 1 1 -3 -4 -2 1 0)
1969/12/31/18:00:05.849,(1 -2 -3 7 12 0 -1 1)
1969/12/31/18:00:05.850,(-2 -4 -7 -7 -3 -2 0 -1)
1969/12/31/18:00:05.850,(-3 -4 -5 -4 -7 -4 -2 -1)
1969/12/31/18:00:05.857,(0 0 4 -9 -5 0 0 1)
1969/12/31/18:00:05.857,(2 2 2 7 -1 -1 -1 -1)
1969/12/31/18:00:05.858,(0 0 -1 1 1 0 0 0)
1969/12/31/18:00:05.858,(-1 1 1 2 1 -1 -3 -1)
1969/12/31/18:00:05.868,(-3 -3 -4 -4 -1 -3 2 -3)
1969/12/31/18:00:05.868,(-5 -4 -7 -10 -6 -1 -3 -2)
1969/12/31/18:00:05.869,(0 -1 1 4 3 0 0 0)
1969/12/31/18:00:05.869,(-1 -3 -3 -3 -4 -2 -2 -1)
1969/12/31/18:00:05.887,(0 -2 0 2 -2 0 -1 0)
1969/12/31/18:00:05.887,(1 -1 -2 -4 -3 -2 -2 -3)
1969/12/31/18:00:05.888,(1 2 3 7 1 0 3 1)
1969/12/31/18:00:05.888,(-1 1 3 -3 -1 -2 0 -2)
1969/12/31/18:00:05.907,(0 0 -2 2 1 -1 1 1)
1969/12/31/18:00:05.907,(-1 0 -3 -2 -2 0 1 0)
1969/12/31/18:00:05.914,(0 -3 -4 -7 -2 -1 -3 -2)
1969/12/31/18:00:05.914,(-1 0 0 -2 -5 -1 0 1)
1969/12/31/18:00:05.921,(-2 1 2 4 1 -1 -2 0)
1969/12/31/18:00:05.921,(0 1 3 1 0 -1 0 -1)
1969/12/31/18:00:05.921,(-1 -1 -3 -4 0 -1 -1 -2)
1969/12/31/18:00:05.921,(1 -2 -3 -7 -4 0 -2 -2)
1969/12/31/18:00:05.938,(-2 -6 -6 -2 -2 0 -2 -4)
1969/12/31/18:00:05.938,(0 5 3 2 0 0 0 0)
1969/12/31/18:00:05.945,(-1 0 0 -2 -1 0 -2 0)
1969/12/31/18:00:05.945,(0 -3 0 -5 -5 -2 -1 -1)
1969/12/31/18:00:05.959,(-1 0 3 5 0 0 -3 -1)
1969/12/31/18:00:05.959,(-3 -6 -3 1 2 -2 1 -1)
1969/12/31/18:00:05.959,(-4 -3 -6 -9 -5 -4 -1 0)
1969/12/31/18:00:05.959,(-1 1 0 4 3 -1 -1 -1)
1969/12/31/18:00:05.970,(3 1 -1 7 4 2 -1 1)
1969/12/31/18:00:05.970,(-1 -6 2 -18 -6 -1 0 -2)
1969/12/31/18:00:05.971,(-4 0 -10 -8 -12 -5 -3 -1)
1969/12/31/18:00:05.971,(-1 -3 -7 -11 0 0 0 -3)
1969/12/31/18:00:05.996,(6 6 21 6 -5 5 2 2)
1969/12/31/18:00:05.996,(11 19 23 50 23 1 2 4)
1969/12/31/18:00:06.003,(-10 -15 -19 -4 7 2 1 -3)
1969/12/31/18:00:06.003,(-6 -7 -23 -25 -10 -7 -6 -5)
1969/12/31/18:00:06.010,(-3 -9 -2 -23 -6 3 -2 -2)
1969/12/31/18:00:06.010,(4 -14 -26 -6 -14 -8 1 0)
1969/12/31/18:00:06.011,(-3 19 36 60 17 1 1 1)
1969/12/31/18:00:06.011,(13 22 78 43 -8 0 8 9)
1969/12/31/18:00:06.021,(-5 -4 -33 -9 28 -4 -1 -1)
1969/12/31/18:00:06.021,(-7 -3 17 -13 -7 -3 0 2)
1969/12/31/18:00:06.028,(-2 -25 -64 -34 -4 -11 -3 -2)
1969/12/31/18:00:06.028,(-7 -10 -50 -27 -11 -11 -9 -7)
1969/12/31/18:00:06.041,(3 5 50 8 -8 -6 3 2)
1969/12/31/18:00:06.041,(-2 -1 -11 -1 -2 2 6 8)
1969/12/31/18:00:06.047,(3 -7 -21 -26 -1 -1 -3 -7)
1969/12/31/18:00:06.047,(-2 5 14 -2 4 4 4 2)
1969/12/31/18:00:06.060,(3 6 -1 16 -2 -4 -4 -6)
1969/12/31/18:00:06.060,(-1 17 44 20 17 7 8 7)
1969/12/31/18:00:06.061,(-6 -8 -7 -14 -12 0 -7 -9)
1969/12/31/18:00:06.061,(-18 -26 -71 -57 -15 -6 -10 -14)
1969/12/31/18:00:06.072,(-1 -2 -5 -4 -1 6 1 7)
1969/12/31/18:00:06.072,(8 29 66 47 9 9 -15 -22)
1969/12/31/18:00:06.072,(0 2 -10 7 -2 11 -3 -3)
1969/12/31/18:00:06.072,(-4 3 12 -15 -4 10 -1 2)
1969/12/31/18:00:06.091,(-10 -16 -15 2 -13 -3 -14 -12)
1969/12/31/18:00:06.091,(-7 -12 -52 -22 -8 10 5 14)
1969/12/31/18:00:06.092,(3 9 58 1 -6 -2 -14 -19)
1969/12/31/18:00:06.092,(-2 -11 -40 5 3 3 -2 -2)
1969/12/31/18:00:06.111,(-4 1 3 -9 -10 1 3 12)
1969/12/31/18:00:06.111,(-3 -20 -26 -27 -10 -2 -9 -8)
1969/12/31/18:00:06.112,(1 6 -3 4 2 4 7 14)
1969/12/31/18:00:06.112,(8 2 20 22 5 -1 -3 0)
1969/12/31/18:00:06.123,(5 -2 -5 1 -1 -6 -4 -1)
1969/12/31/18:00:06.123,(-4 -21 -24 -10 -6 -11 2 4)
1969/12/31/18:00:06.123,(-1 -11 -6 -10 -3 -4 4 8)
1969/12/31/18:00:06.123,(12 39 47 30 12 -2 -6 -7)
1969/12/31/18:00:06.142,(2 -11 -14 2 2 -2 0 0)
1969/12/31/18:00:06.142,(-7 -29 -57 -23 -3 -6 5 -1)
1969/12/31/18:00:06.143,(3 65 94 34 9 -2 3 -5)
1969/12/31/18:00:06.143,(-4 -36 -27 -5 -1 -5 3 5)
1969/12/31/18:00:06.162,(16 88 70 27 7 -2 -3 -4)
1969/12/31/18:00:06.162,(-3 -18 -19 -15 -6 -7 -2 -1)
1969/12/31/18:00:06.163,(1 -15 -15 -6 -2 -4 3 7)
1969/12/31/18:00:06.163,(1 0 8 11 6 -1 6 4)
1969/12/31/18:00:06.174,(-8 -26 -28 -13 -3 -3 1 -3)
1969/12/31/18:00:06.174,(-7 3 5 -6 -3 -5 -2 -2)
1969/12/31/18:00:06.174,(8 3 -2 1 5 1 4 3)
1969/12/31/18:00:06.174,(15 2 -2 2 1 0 -3 -1)
1969/12/31/18:00:06.193,(-21 -29 -25 -14 -4 -1 -2 -8)
1969/12/31/18:00:06.193,(2 26 21 6 1 3 1 1)
1969/12/31/18:00:06.194,(-10 -12 -14 -3 -5 -5 -9 -8)
1969/12/31/18:00:06.194,(-18 -13 -4 -3 -2 3 10 5)
1969/12/31/18:00:06.213,(37 10 -2 1 1 -2 -14 -11)
1969/12/31/18:00:06.213,(-12 1 7 1 -2 1 0 -4)
1969/12/31/18:00:06.213,(-22 -7 -6 -1 -1 1 2 3)
1969/12/31/18:00:06.213,(8 1 5 5 1 -2 3 -2)
1969/12/31/18:00:06.225,(-41 -16 -9 -4 -3 -4 -1 -13)
1969/12/31/18:00:06.225,(8 4 1 -3 1 0 -1 -4)
1969/12/31/18:00:06.225,(40 -4 -12 -5 -3 0 0 5)
1969/12/31/18:00:06.225,(-9 1 6 1 -4 -1 2 6)
1969/12/31/18:00:06.244,(29 8 -3 0 0 2 9 21)
1969/12/31/18:00:06.244,(-6 -3 -1 -4 -3 -1 -2 -2)
1969/12/31/18:00:06.245,(-11 0 2 2 0 1 4 -4)
1969/12/31/18:00:06.245,(18 -7 -8 -6 -9 -8 -3 -1)
1969/12/31/18:00:06.264,(9 -1 -2 3 2 1 2 5)
1969/12/31/18:00:06.264,(-18 -5 -4 -3 -5 -8 4 -5)
1969/12/31/18:00:06.264,(18 -6 -6 0 2 -5 -5 22)
1969/12/31/18:00:06.264,(10 10 -1 3 0 -10 21 8)
1969/12/31/18:00:06.276,(-38 -20 -6 -7 4 4 1 -21)
1969/12/31/18:00:06.276,(16 11 6 -7 1 -4 -12 6)
1969/12/31/18:00:06.283,(-31 4 -1 -5 0 7 -9 -28)
1969/12/31/18:00:06.283,(10 26 15 7 5 14 -13 4)
1969/12/31/18:00:06.295,(10 -3 -5 -4 -7 12 0 7)
1969/12/31/18:00:06.295,(-36 -36 -14 -8 -13 -11 -16 -33)
1969/12/31/18:00:06.296,(-11 -17 -5 -3 -2 38 13 -6)
1969/12/31/18:00:06.296,(-1 0 -1 0 -2 0 -25 -15)
1969/12/31/18:00:06.315,(12 6 4 3 -6 -8 14 16)
1969/12/31/18:00:06.315,(19 7 0 2 -2 2 12 24)
1969/12/31/18:00:06.315,(3 -3 2 3 -1 2 -4 -14)
1969/12/31/18:00:06.315,(-4 5 9 10 8 7 1 16)
1969/12/31/18:00:06.326,(-6 5 -5 -1 0 -6 -9 -54)
1969/12/31/18:00:06.326,(-14 -8 -4 -2 1 11 18 23)
1969/12/31/18:00:06.333,(24 11 3 3 0 -13 9 50)
1969/12/31/18:00:06.333,(-25 -32 -4 1 1 3 -11 -37)
1969/12/31/18:00:06.346,(4 -13 -20 -15 -8 -5 -3 16)
1969/12/31/18:00:06.346,(-35 -21 -9 -11 -11 -2 -18 -55)
1969/12/31/18:00:06.347,(3 0 -3 -4 -8 -43 -31 -16)
1969/12/31/18:00:06.347,(10 5 4 2 -1 -7 15 6)
1969/12/31/18:00:06.366,(17 14 8 5 3 -13 7 40)
1969/12/31/18:00:06.366,(-1 9 5 6 7 19 12 36)
1969/12/31/18:00:06.366,(-34 -22 -10 -4 4 27 -22 -25)
1969/12/31/18:00:06.366,(-2 9 3 -1 -4 4 6 0)
1969/12/31/18:00:06.377,(-31 -22 -6 -5 -8 -26 -11 -17)
1969/12/31/18:00:06.377,(28 23 13 10 5 -7 -10 -3)
1969/12/31/18:00:06.385,(11 4 -6 -3 0 6 39 83)
1969/12/31/18:00:06.385,(0 2 1 3 3 11 11 -2)
1969/12/31/18:00:06.397,(6 3 0 4 4 3 -4 -14)
1969/12/31/18:00:06.398,(3 1 4 5 6 4 14 34)
1969/12/31/18:00:06.404,(24 12 0 -2 -2 -5 -16 -80)
1969/12/31/18:00:06.404,(-65 -28 -13 -10 -2 0 -2 -15)
1969/12/31/18:00:06.417,(0 -4 -4 -5 -9 -16 8 19)
1969/12/31/18:00:06.417,(-3 7 3 2 0 -9 -14 -40)
1969/12/31/18:00:06.417,(9 15 9 7 4 1 -5 -48)
1969/12/31/18:00:06.417,(63 16 10 11 5 -11 6 63)
1969/12/31/18:00:06.428,(-49 -16 -10 -13 -1 49 7 -31)
1969/12/31/18:00:06.428,(15 -2 2 4 -5 -58 -6 15)
1969/12/31/18:00:06.435,(8 3 -1 0 0 -9 5 16)
1969/12/31/18:00:06.435,(15 8 2 3 4 20 -21 -21)
1969/12/31/18:00:06.448,(13 2 -1 -1 -3 -7 -2 -5)
1969/12/31/18:00:06.448,(-20 -32 -20 -20 -20 -2 -6 -36)
1969/12/31/18:00:06.449,(7 4 4 -2 -13 -12 -13 14)
1969/12/31/18:00:06.449,(-2 6 5 8 22 17 27 24)
1969/12/31/18:00:06.468,(41 21 16 14 5 -16 -21 -37)
1969/12/31/18:00:06.468,(48 26 4 8 20 51 25 42)
1969/12/31/18:00:06.468,(-23 -18 -10 -10 -14 -22 37 -39)
1969/12/31/18:00:06.468,(-32 -9 -3 -4 -6 22 -39 -49)
1969/12/31/18:00:06.479,(-1 -4 -4 -2 -7 -44 6 30)
1969/12/31/18:00:06.479,(26 12 8 6 8 4 -21 27)
1969/12/31/18:00:06.487,(-14 -5 -2 0 -5 -38 -28 -27)
1969/12/31/18:00:06.487,(-24 -1 -4 -6 -5 -21 3 -3)
1969/12/31/18:00:06.498,(19 3 -4 -3 7 36 16 22)
1969/12/31/18:00:06.498,(0 10 11 5 1 -2 2 -4)
1969/12/31/18:00:06.511,(-14 -14 -14 -10 -2 9 13 -1)
1969/12/31/18:00:06.511,(-10 -19 -15 -11 -11 -15 -14 27)
1969/12/31/18:00:06.519,(-46 -14 -3 -2 -6 -24 8 8)
1969/12/31/18:00:06.519,(-8 3 -1 -3 -2 -11 -38 -12)
1969/12/31/18:00:06.520,(-11 5 6 6 7 22 -28 -24)
1969/12/31/18:00:06.521,(2 1 -3 0 -2 -8 26 26)
1969/12/31/18:00:06.530,(-22 -3 1 0 2 11 -32 -22)
1969/12/31/18:00:06.530,(0 -7 -7 -4 -6 -3 14 -20)
1969/12/31/18:00:06.538,(6 6 9 9 7 -14 16 36)
1969/12/31/18:00:06.538,(11 -1 -7 -6 -6 -9 -10 8)
1969/12/31/18:00:06.549,(16 13 8 9 9 18 21 23)
1969/12/31/18:00:06.549,(-4 -8 -6 -7 -5 -4 3 -42)
1969/12/31/18:00:06.557,(-4 -9 -5 -2 1 18 18 50)
1969/12/31/18:00:06.557,(-9 1 0 -3 -4 -4 3 -19)
1969/12/31/18:00:06.569,(7 -5 -3 -5 1 2 0 -1)
1969/12/31/18:00:06.569,(-3 8 6 4 3 17 8 12)
1969/12/31/18:00:06.571,(-7 -6 0 3 7 16 25 61)
1969/12/31/18:00:06.571,(53 12 4 1 -2 -9 2 28)
1969/12/31/18:00:06.589,(-60 -10 -8 -4 -1 -9 -19 -31)
1969/12/31/18:00:06.589,(1 -21 -15 -13 -10 7 1 -15)
1969/12/31/18:00:06.590,(9 2 1 -1 0 2 9 10)
1969/12/31/18:00:06.590,(-15 1 6 4 0 0 0 -14)
1969/12/31/18:00:06.601,(56 23 13 13 10 14 15 27)
1969/12/31/18:00:06.601,(-23 -15 -11 -10 -4 -12 -28 -25)
1969/12/31/18:00:06.607,(-1 0 1 -1 -2 -2 -4 0)
1969/12/31/18:00:06.607,(-6 2 -1 -3 -3 -7 -4 -24)
1969/12/31/18:00:06.621,(3 0 4 5 6 17 13 47)
1969/12/31/18:00:06.621,(8 9 2 2 -1 -4 6 -22)
1969/12/31/18:00:06.622,(-11 -5 -5 -7 -6 -25 -37 -64)
1969/12/31/18:00:06.622,(-26 -16 -10 -10 -9 -13 -14 -40)
1969/12/31/18:00:06.640,(2 -5 -3 -7 -5 1 2 6)
1969/12/31/18:00:06.640,(-1 -1 0 1 -2 0 -3 8)
1969/12/31/18:00:06.641,(-2 7 -1 -1 -4 -2 -16 -23)
1969/12/31/18:00:06.641,(3 -6 -5 -2 -1 1 21 5)
1969/12/31/18:00:06.652,(-6 -9 -6 -5 -7 -10 -14 -35)
1969/12/31/18:00:06.652,(-13 -1 0 1 0 3 16 37)
1969/12/31/18:00:06.658,(46 26 14 13 14 28 26 75)
1969/12/31/18:00:06.658,(-9 1 -5 -6 -12 -37 -32 -61)
1969/12/31/18:00:06.671,(-10 -12 -3 -4 -2 3 -9 -44)
1969/12/31/18:00:06.671,(21 5 -1 -1 0 0 5 24)
1969/12/31/18:00:06.673,(-5 -2 1 -2 -5 -10 3 5)
1969/12/31/18:00:06.673,(15 15 10 8 7 16 6 -2)
1969/12/31/18:00:06.691,(-7 -8 -1 1 0 2 4 -5)
1969/12/31/18:00:06.691,(48 30 12 12 10 3 28 96)
1969/12/31/18:00:06.692,(-11 -10 -11 -10 -6 2 -20 -79)
1969/12/31/18:00:06.692,(4 -3 1 1 1 3 -8 -7)
1969/12/31/18:00:06.703,(-14 -21 -13 -12 -9 -10 -11 -9)
1969/12/31/18:00:06.703,(-7 4 2 2 3 1 -6 1)
1969/12/31/18:00:06.709,(45 1 -7 -3 -5 1 6 34)
1969/12/31/18:00:06.709,(3 13 10 6 6 -12 -7 34)
1969/12/31/18:00:06.722,(20 6 4 2 2 34 38 11)
1969/12/31/18:00:06.722,(-15 -13 -15 -14 -11 -5 -32 -68)
1969/12/31/18:00:06.724,(-8 -7 -3 -1 1 12 3 28)
1969/12/31/18:00:06.724,(11 -23 -7 -6 -2 3 15 62)
1969/12/31/18:00:06.742,(-6 11 6 5 3 -17 -34 -38)
1969/12/31/18:00:06.742,(-52 -5 -1 0 -2 2 -6 -51)
1969/12/31/18:00:06.744,(-28 -10 -6 -6 -3 -3 -12 -46)
1969/12/31/18:00:06.744,(-9 4 -3 1 -3 1 2 -8)
1969/12/31/18:00:06.754,(-13 -9 -6 -1 -1 7 2 -19)
1969/12/31/18:00:06.754,(1 11 6 5 2 0 -4 -16)
1969/12/31/18:00:06.762,(-30 -20 -11 -8 -7 -22 -23 -19)
1969/12/31/18:00:06.762,(-29 -7 2 4 4 14 15 14)
1969/12/31/18:00:06.773,(39 16 3 1 3 2 12 21)
1969/12/31/18:00:06.773,(-38 -18 -10 -8 -11 -34 -34 -65)
1969/12/31/18:00:06.775,(-27 -16 -7 -7 -1 8 -8 17)
1969/12/31/18:00:06.775,(19 -8 -4 -3 -3 0 11 34)
1969/12/31/18:00:06.793,(40 28 10 8 0 -28 12 31)
1969/12/31/18:00:06.793,(-15 -43 -18 -10 -3 28 0 -10)
1969/12/31/18:00:06.795,(10 9 2 -3 -8 -3 -4 -9)
1969/12/31/18:00:06.795,(-30 -9 -7 -2 10 52 6 -63)
1969/12/31/18:00:06.805,(10 3 2 -1 -9 -14 -12 31)
1969/12/31/18:00:06.805,(16 7 0 2 -1 6 25 68)
1969/12/31/18:00:06.812,(-16 0 8 3 -2 -16 -7 -29)
1969/12/31/18:00:06.812,(-10 6 0 1 4 15 16 -3)
1969/12/31/18:00:06.824,(11 7 4 2 9 27 19 46)
1969/12/31/18:00:06.824,(39 11 11 9 5 -5 6 26)
1969/12/31/18:00:06.826,(-19 -14 -12 -8 -5 -14 -23 -93)
1969/12/31/18:00:06.826,(-21 -6 0 -1 0 49 0 -25)
1969/12/31/18:00:06.844,(-28 -22 -12 -9 -10 -49 -9 34)
1969/12/31/18:00:06.844,(14 0 0 -2 -4 -11 31 61)
1969/12/31/18:00:06.845,(39 15 11 10 9 10 24 95)
1969/12/31/18:00:06.845,(11 14 6 3 3 -13 4 -6)
1969/12/31/18:00:06.855,(-20 -1 -5 -5 -7 3 -32 -26)
1969/12/31/18:00:06.855,(1 -7 -12 -16 -11 -9 -3 -33)
1969/12/31/18:00:06.869,(4 -3 1 4 0 -20 -13 40)
1969/12/31/18:00:06.869,(-7 -10 -1 -3 -5 -12 6 17)
1969/12/31/18:00:06.875,(16 -6 0 0 7 28 1 43)
1969/12/31/18:00:06.875,(49 35 14 11 6 -13 20 67)
1969/12/31/18:00:06.877,(-3 -12 -8 -7 7 83 41 4)
1969/12/31/18:00:06.877,(32 13 6 4 0 -11 3 37)
1969/12/31/18:00:06.895,(-69 -15 -8 -9 -10 -23 -37 -92)
1969/12/31/18:00:06.895,(-7 -12 -5 -4 0 -6 -10 -29)
1969/12/31/18:00:06.896,(46 25 8 8 22 17 28 42)
1969/12/31/18:00:06.896,(-52 -30 -15 -14 -22 -17 -27 -53)
1969/12/31/18:00:06.907,(35 12 10 6 -1 6 5 -3)
1969/12/31/18:00:06.907,(0 5 4 7 19 45 16 31)
1969/12/31/18:00:06.914,(5 10 1 0 -6 -7 -7 37)
1969/12/31/18:00:06.914,(25 28 3 0 -5 -32 -11 4)
1969/12/31/18:00:06.926,(-33 -30 -4 0 13 -6 0 -29)
1969/12/31/18:00:06.926,(-32 -7 2 2 4 8 -4 -30)
1969/12/31/18:00:06.928,(-13 -15 -15 -11 -18 -28 -16 -10)
1969/12/31/18:00:06.928,(-37 -10 -2 -5 -21 -53 -61 -63)
1969/12/31/18:00:06.946,(36 16 1 -2 -3 1 6 28)
1969/12/31/18:00:06.946,(-16 -2 5 6 17 13 -1 -3)
1969/12/31/18:00:06.947,(-21 -22 -2 3 17 27 29 1)
1969/12/31/18:00:06.947,(11 15 -1 -1 -12 -5 14 18)
1969/12/31/18:00:06.957,(2 -1 -2 -4 -19 -36 -14 -18)
1969/12/31/18:00:06.958,(-10 -3 0 4 23 33 -17 -27)
1969/12/31/18:00:06.965,(14 17 3 0 -6 -67 11 17)
1969/12/31/18:00:06.965,(4 -8 -1 1 2 15 5 8)
1969/12/31/18:00:06.977,(0 10 -2 -7 4 31 6 -4)
1969/12/31/18:00:06.977,(-64 -26 -9 4 8 -50 10 -26)
1969/12/31/18:00:06.989,(-12 2 1 -6 -12 29 4 -5)
1969/12/31/18:00:06.989,(15 -22 -8 -9 -16 -14 -17 18)
1969/12/31/18:00:06.997,(49 23 2 -8 -35 -38 20 65)
1969/12/31/18:00:06.997,(12 -10 -10 -3 28 27 -4 49)
1969/12/31/18:00:06.998,(-7 -2 14 40 87 45 -22 -41)
1969/12/31/18:00:06.998,(3 8 -4 -21 -80 -43 12 7)
1969/12/31/18:00:07.009,(-4 -15 -15 -35 -51 1 4 16)
1969/12/31/18:00:07.009,(19 22 7 0 -1 -3 -10 -31)
1969/12/31/18:00:07.016,(-8 -5 3 26 101 58 16 -22)
1969/12/31/18:00:07.016,(32 16 13 26 -32 -37 -6 7)
1969/12/31/18:00:07.028,(-28 -16 -10 -46 -90 -62 -15 -19)
1969/12/31/18:00:07.028,(18 13 -2 -26 -32 -12 -7 -6)
1969/12/31/18:00:07.030,(-13 1 2 -2 5 3 -11 -22)
1969/12/31/18:00:07.030,(16 9 2 19 72 -11 16 20)
1969/12/31/18:00:07.048,(-35 -8 4 29 49 36 1 -29)
1969/12/31/18:00:07.048,(-4 -5 -2 5 -8 2 -4 -22)
1969/12/31/18:00:07.050,(-18 -13 -8 -14 -42 -22 1 16)
1969/12/31/18:00:07.050,(-41 -34 -25 -21 -7 0 -22 -13)
1969/12/31/18:00:07.059,(13 19 7 15 23 24 3 -10)
1969/12/31/18:00:07.059,(8 -6 -6 -4 3 3 1 5)
1969/12/31/18:00:07.067,(2 -1 -4 -1 -19 2 2 -3)
1969/12/31/18:00:07.067,(-3 0 -2 -15 -23 5 -7 11)
1969/12/31/18:00:07.079,(4 -1 1 6 24 0 0 -18)
1969/12/31/18:00:07.079,(10 25 13 -7 -43 -21 -10 -6)
1969/12/31/18:00:07.081,(-13 -20 -4 -2 -2 -39 -4 1)
1969/12/31/18:00:07.081,(24 12 11 19 19 42 -2 0)
1969/12/31/18:00:07.099,(14 11 -3 -7 -6 -63 -66 -6)
1969/12/31/18:00:07.099,(-40 -8 -1 -1 -4 -21 26 -39)
1969/12/31/18:00:07.111,(17 13 -3 -17 -42 -28 -16 -9)
1969/12/31/18:00:07.111,(-17 -5 2 9 52 40 16 -8)
1969/12/31/18:00:07.112,(-13 -14 2 21 27 21 -4 -12)
1969/12/31/18:00:07.112,(8 6 -1 1 -2 7 -7 6)
1969/12/31/18:00:07.118,(10 10 4 -4 -36 -30 -10 2)
1969/12/31/18:00:07.118,(3 4 0 7 62 37 -6 -12)
1969/12/31/18:00:07.130,(1 3 1 1 -42 -3 12 16)
1969/12/31/18:00:07.130,(10 4 -1 -7 -10 7 -3 0)
1969/12/31/18:00:07.132,(-18 -19 -6 -5 -17 -20 -7 -18)
1969/12/31/18:00:07.132,(16 10 4 8 45 49 19 21)
1969/12/31/18:00:07.150,(3 -3 -2 5 12 0 9 -7)
1969/12/31/18:00:07.150,(0 -7 1 10 -7 -16 -9 55)
1969/12/31/18:00:07.152,(1 4 -5 -10 -15 10 -6 -20)
1969/12/31/18:00:07.152,(7 9 -6 -11 -9 -23 -10 -8)
1969/12/31/18:00:07.161,(-17 0 24 22 11 31 26 -3)
1969/12/31/18:00:07.161,(-16 -15 -13 -10 -17 -21 -24 -17)
1969/12/31/18:00:07.169,(1 15 -3 14 57 37 7 -16)
1969/12/31/18:00:07.169,(-1 -20 -14 -17 -42 -27 -8 -19)
1969/12/31/18:00:07.181,(-4 -13 4 -6 32 36 23 22)
1969/12/31/18:00:07.182,(-17 -14 0 4 -25 -13 11 -18)
1969/12/31/18:00:07.183,(-35 -25 -1 -20 -44 -26 -36 -67)
1969/12/31/18:00:07.183,(39 -22 -31 8 78 47 8 11)
1969/12/31/18:00:07.201,(17 33 -13 -8 -47 -54 -26 -38)
1969/12/31/18:00:07.201,(-56 -3 58 7 -6 0 -9 -11)
1969/12/31/18:00:07.202,(25 -6 -20 -3 -11 -23 -7 14)
1969/12/31/18:00:07.202,(-24 -9 14 1 -6 3 9 -10)
1969/12/31/18:00:07.212,(59 5 -33 -2 13 34 23 44)
1969/12/31/18:00:07.212,(-12 -28 -10 -13 24 4 -17 -47)
1969/12/31/18:00:07.225,(24 47 21 8 -3 -15 -13 12)
1969/12/31/18:00:07.225,(-10 11 -10 15 49 22 -12 7)
1969/12/31/18:00:07.239,(-19 -33 1 -9 -1 31 31 33)
1969/12/31/18:00:07.239,(24 9 -19 -23 -60 -61 -20 12)
1969/12/31/18:00:07.240,(-16 -12 11 -12 13 0 -3 -5)
1969/12/31/18:00:07.240,(11 41 12 -10 -36 -36 -14 -9)
1969/12/31/18:00:07.252,(-54 -53 -38 2 48 33 -5 -39)
1969/12/31/18:00:07.252,(19 3 -11 21 72 47 -1 7)
1969/12/31/18:00:07.253,(-7 -46 -34 -26 -69 -31 22 40)
1969/12/31/18:00:07.253,(-3 17 27 3 -75 -61 -11 20)
1969/12/31/18:00:07.263,(-54 45 75 16 -12 -19 -25 -83)
1969/12/31/18:00:07.264,(-1 -60 -39 -1 20 28 19 3)
1969/12/31/18:00:07.270,(10 45 -12 -17 2 11 4 14)
1969/12/31/18:00:07.271,(13 15 -7 -1 11 26 18 10)
1969/12/31/18:00:07.283,(65 25 12 11 -5 -14 5 47)
1969/12/31/18:00:07.283,(-33 -12 -2 1 21 8 -1 -22)
1969/12/31/18:00:07.288,(-15 -71 -35 18 60 48 9 -4)
1969/12/31/18:00:07.288,(2 -75 -42 -19 -24 -22 15 9)
1969/12/31/18:00:07.303,(12 64 14 -43 -47 -65 -31 30)
1969/12/31/18:00:07.303,(28 124 98 67 83 30 -7 23)
1969/12/31/18:00:07.304,(25 12 -11 -14 -36 47 22 42)
1969/12/31/18:00:07.304,(17 12 30 9 -13 -28 16 27)
1969/12/31/18:00:07.321,(-17 -83 -51 -8 23 5 -4 -14)
1969/12/31/18:00:07.321,(29 -70 -59 -8 27 52 55 57)
1969/12/31/18:00:07.334,(-32 82 52 -23 -84 -70 -41 -42)
1969/12/31/18:00:07.334,(-41 -60 5 18 34 31 -16 -40)
1969/12/31/18:00:07.341,(19 3 -28 -1 45 33 12 13)
1969/12/31/18:00:07.341,(21 9 -18 -21 -66 -33 -4 17)
1969/12/31/18:00:07.348,(83 34 11 24 60 37 27 76)
1969/12/31/18:00:07.348,(-22 -40 15 -4 6 -4 -19 -9)
1969/12/31/18:00:07.354,(9 25 -14 -3 -30 -3 -6 -4)
1969/12/31/18:00:07.354,(10 5 -23 -23 0 6 -8 -22)
1969/12/31/18:00:07.355,(-25 -43 -16 20 23 5 40 34)
1969/12/31/18:00:07.355,(19 127 87 43 42 34 -14 -13)
1969/12/31/18:00:07.372,(11 -59 -24 -26 -56 -53 -7 27)
1969/12/31/18:00:07.372,(16 -8 -36 -27 -25 -22 -40 -5)
1969/12/31/18:00:07.374,(-104 -46 -10 -19 -26 -39 -13 -91)
1969/12/31/18:00:07.374,(-10 -17 -33 -20 46 26 3 8)
1969/12/31/18:00:07.386,(3 -5 28 54 82 69 48 43)
1969/12/31/18:00:07.386,(-42 109 85 17 -60 -53 -25 -16)
1969/12/31/18:00:07.390,(22 -60 -11 0 7 6 -10 32)
1969/12/31/18:00:07.391,(15 -41 -92 -43 -21 6 11 -12)
1969/12/31/18:00:07.405,(59 36 47 30 40 32 29 93)
1969/12/31/18:00:07.405,(-25 8 -16 -17 -20 -42 -32 -79)
1969/12/31/18:00:07.406,(23 70 69 31 25 -13 -5 11)
1969/12/31/18:00:07.406,(17 10 -10 3 -24 -25 -12 7)
1969/12/31/18:00:07.424,(-45 -47 -35 -57 -65 -62 -78 -63)
1969/12/31/18:00:07.424,(26 -12 11 31 127 86 44 70)
1969/12/31/18:00:07.425,(38 -13 -19 -34 -105 -55 -11 -39)
1969/12/31/18:00:07.425,(-68 -47 -36 -20 32 5 -45 -104)
1969/12/31/18:00:07.436,(-5 2 -4 -3 -34 -37 -22 -11)
1969/12/31/18:00:07.436,(-26 -100 -63 -66 -113 -88 -34 -46)
1969/12/31/18:00:07.438,(16 30 -11 30 127 67 4 -7)
1969/12/31/18:00:07.438,(9 48 46 25 44 53 6 18)
1969/12/31/18:00:07.456,(30 -68 -83 -31 -36 -7 23 -8)
1969/12/31/18:00:07.456,(-23 127 127 55 -16 -7 4 -16)
1969/12/31/18:00:07.457,(73 -81 -55 -7 -24 8 19 71)
1969/12/31/18:00:07.457,(-38 -35 -46 -16 -21 -30 -17 -14)
1969/12/31/18:00:07.475,(-72 -23 23 38 63 45 -2 -74)
1969/12/31/18:00:07.475,(111 -91 -112 -15 -14 30 19 22)
1969/12/31/18:00:07.476,(-106 58 110 14 -15 -22 -28 -66)
1969/12/31/18:00:07.476,(-33 55 23 -13 -79 -65 -29 -65)
1969/12/31/18:00:07.486,(-29 12 6 -3 26 45 3 -67)
1969/12/31/18:00:07.486,(15 -18 -25 -16 -15 -24 -2 19)
1969/12/31/18:00:07.494,(-37 -44 -35 -5 32 9 -10 -23)
1969/12/31/18:00:07.494,(14 -5 12 13 46 43 7 2)
1969/12/31/18:00:07.507,(-6 -10 -29 -10 -49 -24 44 57)
1969/12/31/18:00:07.507,(-29 115 89 35 61 42 -22 -15)
1969/12/31/18:00:07.508,(1 11 -24 -5 -34 -25 -38 -103)
1969/12/31/18:00:07.508,(43 -49 -57 -18 12 1 16 64)
1969/12/31/18:00:07.525,(-1 44 39 30 34 35 19 58)
1969/12/31/18:00:07.526,(-34 -31 20 -4 -16 -2 17 27)
1969/12/31/18:00:07.527,(50 17 -7 11 21 1 29 88)
1969/12/31/18:00:07.527,(-20 25 52 -5 -109 -71 -1 34)
1969/12/31/18:00:07.538,(42 38 21 15 51 33 4 44)
1969/12/31/18:00:07.538,(24 -70 -64 -15 44 37 25 96)
1969/12/31/18:00:07.543,(-4 16 11 3 -4 -16 -35 -43)
1969/12/31/18:00:07.543,(36 -90 -69 -23 -39 -32 -1 76)
1969/12/31/18:00:07.558,(-56 -26 -23 -26 -59 -32 5 -46)
1969/12/31/18:00:07.558,(-77 85 89 -11 -88 -73 -38 -101)
1969/12/31/18:00:07.559,(24 -92 -112 -15 61 45 30 16)
1969/12/31/18:00:07.559,(-17 101 86 14 22 10 24 -43)
1969/12/31/18:00:07.577,(27 75 38 34 45 7 -16 -2)
1969/12/31/18:00:07.577,(-19 -128 -99 -19 41 42 5 -39)
1969/12/31/18:00:07.579,(-50 70 67 33 -11 20 22 36)
1969/12/31/18:00:07.579,(-28 76 37 15 -8 -41 -24 -79)
1969/12/31/18:00:07.588,(28 -27 -18 -14 -11 4 16 32)
1969/12/31/18:00:07.588,(-7 -14 -21 4 1 15 10 0)
1969/12/31/18:00:07.596,(6 -63 -40 -29 -21 9 27 26)
1969/12/31/18:00:07.596,(36 -48 -13 19 71 27 -8 71)
1969/12/31/18:00:07.609,(-4 51 12 -46 -71 -30 -20 -21)
1969/12/31/18:00:07.609,(58 5 -11 12 35 21 34 71)
1969/12/31/18:00:07.609,(5 -4 -7 -7 -14 -2 5 38)
1969/12/31/18:00:07.609,(-23 -69 -36 4 52 110 55 32)
1969/12/31/18:00:07.627,(-4 59 57 12 -55 -78 -40 -43)
1969/12/31/18:00:07.627,(-8 28 20 -11 -66 -57 -38 -70)
1969/12/31/18:00:07.629,(-26 50 -3 -13 18 24 15 -22)
1969/12/31/18:00:07.629,(9 -2 15 34 45 13 -25 -18)
1969/12/31/18:00:07.647,(35 -10 38 36 40 40 22 37)
1969/12/31/18:00:07.647,(-8 47 72 21 21 -5 12 19)
1969/12/31/18:00:07.648,(8 68 70 15 -35 -26 -26 -13)
1969/12/31/18:00:07.648,(20 -37 -82 -27 -33 -10 36 81)
1969/12/31/18:00:07.660,(-39 -52 -13 21 95 50 -7 -42)
1969/12/31/18:00:07.660,(59 35 11 -6 -62 -45 -21 75)
1969/12/31/18:00:07.661,(-45 -59 -14 -10 -2 -8 3 16)
1969/12/31/18:00:07.661,(27 19 -1 1 13 4 29 44)
1969/12/31/18:00:07.678,(-10 -46 -67 -53 -36 2 -5 13)
1969/12/31/18:00:07.678,(40 -20 -13 22 38 32 33 43)
1969/12/31/18:00:07.680,(-9 46 36 5 -10 -26 -30 -29)
1969/12/31/18:00:07.680,(-23 -38 -1 3 18 19 5 -61)
1969/12/31/18:00:07.690,(-14 57 20 11 3 -25 -27 -63)
1969/12/31/18:00:07.690,(4 -50 -55 -5 41 44 18 -9)
1969/12/31/18:00:07.703,(40 -56 -42 -17 -34 -23 -13 22)
1969/12/31/18:00:07.703,(-36 -24 -17 -20 25 -19 -42 -63)
1969/12/31/18:00:07.711,(2 37 36 4 -52 -14 4 21)
1969/12/31/18:00:07.711,(-59 -76 -56 -32 -11 -15 -20 -76)
1969/12/31/18:00:07.711,(40 19 12 14 5 0 14 15)
1969/12/31/18:00:07.712,(-16 0 8 -3 -3 1 -15 -1)
1969/12/31/18:00:07.736,(55 6 -3 8 12 5 26 102)
1969/12/31/18:00:07.736,(-28 -24 -34 -14 26 19 -4 -65)
1969/12/31/18:00:07.737,(-1 26 33 10 -2 -1 -8 7)
1969/12/31/18:00:07.737,(14 -48 -42 -16 -52 -45 9 7)
1969/12/31/18:00:07.741,(-22 72 44 -3 -35 -37 -38 -66)
1969/12/31/18:00:07.741,(5 50 21 -8 2 15 30 36)
1969/12/31/18:00:07.749,(46 -70 -43 12 51 28 -1 2)
1969/12/31/18:00:07.749,(-4 -58 -58 -19 19 46 9 1)
1969/12/31/18:00:07.762,(-16 27 36 20 -38 -27 23 41)
1969/12/31/18:00:07.762,(6 -2 13 16 16 -35 -29 -10)
1969/12/31/18:00:07.763,(-40 -39 -57 -34 -18 -9 -26 -57)
1969/12/31/18:00:07.763,(0 41 42 -23 -89 -74 -29 17)
1969/12/31/18:00:07.780,(-2 -128 -128 -21 96 59 41 18)
1969/12/31/18:00:07.780,(23 109 88 17 -68 -34 -12 -24)
1969/12/31/18:00:07.782,(-14 62 20 31 37 24 9 35)
1969/12/31/18:00:07.782,(36 -11 -9 13 -9 -2 20 -23)
1969/12/31/18:00:07.792,(-50 -114 -76 -37 24 34 -32 -67)
1969/12/31/18:00:07.792,(4 17 19 4 -32 -17 23 50)
1969/12/31/18:00:07.805,(35 -30 3 20 69 -3 -19 15)
1969/12/31/18:00:07.805,(-47 9 -35 -53 -113 -23 18 -8)
1969/12/31/18:00:07.813,(-8 96 98 36 57 5 -21 -13)
1969/12/31/18:00:07.813,(-36 -65 -61 -10 66 13 -15 -39)
1969/12/31/18:00:07.814,(27 12 3 7 -4 0 37 68)
1969/12/31/18:00:07.814,(-19 -28 -5 -12 -40 -54 -48 -39)
1969/12/31/18:00:07.831,(34 -33 -39 -7 42 42 13 -13)
1969/12/31/18:00:07.831,(9 58 43 22 -23 -5 9 8)
1969/12/31/18:00:07.833,(-32 -35 -35 -28 -53 -14 -4 -23)
1969/12/31/18:00:07.833,(33 81 67 50 80 25 -4 4)
1969/12/31/18:00:07.843,(-14 26 25 -31 -123 -59 -13 -5)
1969/12/31/18:00:07.843,(0 -13 -19 12 55 43 14 36)
1969/12/31/18:00:07.851,(1 -103 -78 -31 -12 1 -16 -29)
1969/12/31/18:00:07.851,(-13 63 67 40 28 18 4 -14)
1969/12/31/18:00:07.864,(-9 20 -43 -8 13 -6 -31 -78)
1969/12/31/18:00:07.864,(39 13 -3 1 -15 -3 5 27)
1969/12/31/18:00:07.864,(-42 -65 -22 -10 28 44 11 -34)
1969/12/31/18:00:07.865,(-25 -36 -42 -24 -75 -53 3 -17)
1969/12/31/18:00:07.882,(20 -9 16 2 -1 -26 -12 30)
1969/12/31/18:00:07.882,(-13 -66 -22 -7 3 12 -12 -14)
1969/12/31/18:00:07.884,(14 51 -15 -32 -50 -24 -6 -29)
1969/12/31/18:00:07.884,(-37 28 69 29 56 34 -4 -30)
1969/12/31/18:00:07.894,(-1 64 26 25 54 21 13 16)
1969/12/31/18:00:07.894,(-24 -115 -67 -32 -106 -75 -18 -13)
1969/12/31/18:00:07.902,(52 84 20 10 13 18 18 57)
1969/12/31/18:00:07.902,(0 5 32 33 57 52 47 4)
1969/12/31/18:00:07.915,(-22 35 51 18 -8 -8 -16 2)
1969/12/31/18:00:07.915,(7 1 -47 -22 16 13 4 17)
1969/12/31/18:00:07.915,(14 -26 27 15 -15 -27 -4 17)
1969/12/31/18:00:07.915,(14 -46 -85 -30 53 25 25 55)
1969/12/31/18:00:07.934,(-22 -15 2 -1 -5 16 -14 -62)
1969/12/31/18:00:07.934,(-7 43 40 18 20 29 -3 -24)
1969/12/31/18:00:07.936,(-22 -18 -26 -25 -33 -47 -35 -66)
1969/12/31/18:00:07.936,(28 29 10 2 -39 -18 0 -30)
1969/12/31/18:00:07.946,(20 -68 -70 -10 38 22 16 47)
1969/12/31/18:00:07.946,(-11 -19 8 -18 -32 -19 -6 -8)
1969/12/31/18:00:07.953,(-24 49 31 19 50 34 10 9)
1969/12/31/18:00:07.953,(42 23 -6 18 28 14 7 32)
1969/12/31/18:00:07.965,(26 -57 -21 -11 -30 -35 -14 15)
1969/12/31/18:00:07.965,(17 1 -5 10 88 59 39 49)
1969/12/31/18:00:07.966,(40 54 14 -16 -108 -39 -3 34)
1969/12/31/18:00:07.967,(-60 -6 56 2 -6 -5 9 -25)
1969/12/31/18:00:07.984,(-9 12 -6 -2 1 -2 0 -4)
1969/12/31/18:00:07.984,(34 -6 2 14 22 -5 -18 7)
1969/12/31/18:00:07.986,(5 -18 -8 11 75 53 25 30)
1969/12/31/18:00:07.986,(40 59 33 18 -58 -31 29 22)
1969/12/31/18:00:07.996,(7 6 -14 -22 -30 -9 -21 -21)
1969/12/31/18:00:07.996,(-18 -3 3 6 13 1 -25 -26)
1969/12/31/18:00:08.004,(-56 -29 7 -8 -16 -21 -4 -34)
1969/12/31/18:00:08.004,(47 -37 -41 -23 -10 6 -30 39)
1969/12/31/18:00:08.015,(-43 1 0 8 18 5 7 -21)
1969/12/31/18:00:08.015,(28 11 -10 -6 -16 0 8 45)
1969/12/31/18:00:08.022,(-45 -47 -17 -14 -21 10 9 -9)
1969/12/31/18:00:08.022,(-42 -5 -2 -13 -31 -26 -14 16)
1969/12/31/18:00:08.036,(73 -11 -22 8 2 14 43 73)
1969/12/31/18:00:08.036,(-36 36 27 -8 -1 -14 3 -50)
1969/12/31/18:00:08.038,(5 39 29 19 -15 -29 -8 -3)
1969/12/31/18:00:08.038,(27 -86 -68 -25 -10 13 -8 -3)
1969/12/31/18:00:08.047,(-35 -15 -19 -9 44 35 -5 -8)
1969/12/31/18:00:08.047,(-2 -9 -26 8 -54 -39 -21 -33)
1969/12/31/18:00:08.055,(16 59 57 30 65 52 26 29)
1969/12/31/18:00:08.055,(-49 24 54 4 8 -36 -25 -75)
1969/12/31/18:00:08.067,(-11 -56 -41 -20 -71 -30 -15 -14)
1969/12/31/18:00:08.067,(-8 -79 -43 -11 37 18 16 39)
1969/12/31/18:00:08.068,(15 -20 -66 -26 2 -4 -10 -4)
1969/12/31/18:00:08.068,(7 104 87 52 19 17 15 44)
1969/12/31/18:00:08.086,(33 -10 -24 31 96 56 39 36)
1969/12/31/18:00:08.086,(-16 53 52 -15 -67 -17 -9 -59)
1969/12/31/18:00:08.088,(-2 28 30 12 -14 0 -5 -13)
1969/12/31/18:00:08.088,(11 -42 -52 -20 30 27 3 27)
1969/12/31/18:00:08.098,(26 24 10 3 13 -14 1 3)
1969/12/31/18:00:08.098,(11 4 3 9 -11 -13 10 25)
1969/12/31/18:00:08.106,(-3 56 53 15 -4 -11 -14 -23)
1969/12/31/18:00:08.106,(19 -43 -30 7 50 30 26 35)
1969/12/31/18:00:08.118,(-60 37 54 -23 -82 -45 -37 -67)
1969/12/31/18:00:08.118,(22 -30 -45 -5 24 2 -1 16)
1969/12/31/18:00:08.124,(-64 -32 -11 -9 -15 -6 4 -29)
1969/12/31/18:00:08.124,(26 -68 -93 -44 -22 4 -9 19)
1969/12/31/18:00:08.138,(5 11 37 7 -13 -37 24 3)
1969/12/31/18:00:08.138,(-25 19 -12 -6 1 2 -21 -5)
1969/12/31/18:00:08.139,(1 98 101 40 24 -2 7 3)
1969/12/31/18:00:08.139,(-2 -67 -24 2 17 5 2 31)
1969/12/31/18:00:08.158,(-30 -21 -58 -21 -25 13 0 -27)
1969/12/31/18:00:08.158,(42 79 53 27 13 16 34 12)
1969/12/31/18:00:08.158,(25 -95 -63 -37 -5 -1 -17 5)
1969/12/31/18:00:08.158,(-15 -12 -19 -18 -45 -32 -30 -22)
1969/12/31/18:00:08.169,(28 63 59 38 78 52 18 29)
1969/12/31/18:00:08.169,(-25 -26 -8 -20 -46 -9 -30 -17)
1969/12/31/18:00:08.176,(60 -11 -11 20 38 12 37 69)
1969/12/31/18:00:08.176,(-40 -43 -61 -32 -13 -27 -23 -95)
1969/12/31/18:00:08.188,(-31 58 86 10 -61 -45 -10 -4)
1969/12/31/18:00:08.188,(23 -16 -31 14 34 16 21 -11)
1969/12/31/18:00:08.190,(-6 -53 -41 -31 -54 -29 -24 -9)
1969/12/31/18:00:08.190,(-29 -17 -5 -2 29 10 -31 -17)
1969/12/31/18:00:08.208,(6 -85 -80 -11 14 5 -11 -3)
1969/12/31/18:00:08.208,(-34 112 112 51 24 -2 -3 -30)
1969/12/31/18:00:08.209,(54 51 18 3 1 -11 -8 30)
1969/12/31/18:00:08.209,(-19 36 69 23 -13 11 35 11)
1969/12/31/18:00:08.220,(-4 -97 -76 -24 4 18 -12 -9)
1969/12/31/18:00:08.220,(10 -53 -51 -20 -13 -5 6 55)
1969/12/31/18:00:08.225,(-56 -33 -12 4 31 -12 -25 -58)
1969/12/31/18:00:08.225,(51 32 2 10 34 18 -6 9)
1969/12/31/18:00:08.239,(-14 35 28 -21 -104 -48 -5 -1)
1969/12/31/18:00:08.239,(20 -60 -49 -36 -22 -9 -2 35)
1969/12/31/18:00:08.241,(-30 -1 -3 10 41 3 14 13)
1969/12/31/18:00:08.241,(-15 -2 1 -10 55 41 10 -14)
1969/12/31/18:00:08.259,(52 -20 -38 13 37 18 0 23)
1969/12/31/18:00:08.259,(4 51 34 11 -34 -38 -6 6)
1969/12/31/18:00:08.259,(-52 71 78 27 14 8 -3 -70)
1969/12/31/18:00:08.259,(19 7 3 -2 -47 -18 -3 18)
1969/12/31/18:00:08.271,(-24 -82 -47 -19 17 8 4 3)
1969/12/31/18:00:08.271,(29 0 -39 -2 23 16 -4 -2)
1969/12/31/18:00:08.276,(-26 -47 -9 -8 -24 -2 -4 -18)
1969/12/31/18:00:08.276,(55 -12 -26 1 27 22 18 34)
1969/12/31/18:00:08.290,(11 127 119 43 21 -7 3 3)
1969/12/31/18:00:08.290,(-43 -55 -33 -11 -8 -1 -8 -28)
1969/12/31/18:00:08.292,(14 -44 -66 -15 -14 10 -9 -4)
1969/12/31/18:00:08.292,(-58 8 50 10 -12 -24 -13 -62)
1969/12/31/18:00:08.310,(-3 -31 -37 -14 -38 -27 -19 -17)
1969/12/31/18:00:08.310,(-20 6 18 -17 -6 4 -19 -41)
1969/12/31/18:00:08.310,(2 -2 -16 -1 3 0 25 43)
1969/12/31/18:00:08.310,(45 -12 -44 -36 -50 -29 -1 23)
1969/12/31/18:00:08.322,(-44 -30 24 11 31 3 3 -13)
1969/12/31/18:00:08.322,(4 39 20 -5 1 15 9 8)
1969/12/31/18:00:08.327,(32 -23 -36 -45 -56 -36 -26 6)
1969/12/31/18:00:08.327,(-8 24 24 66 27 6 8 -9)
1969/12/31/18:00:08.341,(30 -13 -14 21 41 19 13 19)
1969/12/31/18:00:08.341,(28 -8 -11 8 16 6 1 7)
1969/12/31/18:00:08.343,(-22 2 20 -16 -9 9 7 10)
1969/12/31/18:00:08.343,(-2 -11 -40 -38 -14 -23 -16 -12)
1969/12/31/18:00:08.361,(5 47 44 10 0 9 -1 -16)
1969/12/31/18:00:08.361,(43 24 4 3 8 13 21 22)
1969/12/31/18:00:08.361,(-13 -2 22 10 5 2 -32 -42)
1969/12/31/18:00:08.361,(4 36 30 10 -7 -15 7 22)
1969/12/31/18:00:08.372,(-20 -109 -63 -25 -26 19 -7 3)
1969/12/31/18:00:08.372,(-6 -40 -65 -46 -49 -47 -13 -12)
1969/12/31/18:00:08.378,(23 59 72 38 21 10 17 16)
1969/12/31/18:00:08.378,(-48 1 -13 -1 41 8 -9 -76)
1969/12/31/18:00:08.393,(-27 -10 -3 0 58 60 -6 -26)
1969/12/31/18:00:08.393,(4 -8 0 -20 -89 -77 -16 10)
1969/12/31/18:00:08.394,(-14 -25 -22 4 12 -2 18 24)
1969/12/31/18:00:08.395,(26 33 21 -16 -17 -1 12 42)
1969/12/31/18:00:08.411,(39 20 -11 2 36 11 22 37)
1969/12/31/18:00:08.411,(-65 -44 -6 29 65 43 6 -24)
1969/12/31/18:00:08.417,(-5 19 20 13 -18 -5 -1 -3)
1969/12/31/18:00:08.417,(0 99 102 44 8 8 3 5)
1969/12/31/18:00:08.423,(-17 -33 -35 -32 -24 -16 5 2)
1969/12/31/18:00:08.423,(18 -17 -29 7 17 10 -3 5)
1969/12/31/18:00:08.431,(-40 -37 -31 -14 -12 -15 -14 -30)
1969/12/31/18:00:08.431,(48 7 -7 -15 -37 10 4 41)
1969/12/31/18:00:08.443,(3 44 25 26 24 -13 -21 -30)
1969/12/31/18:00:08.443,(-6 -33 11 -15 -19 9 44 77)
1969/12/31/18:00:08.445,(59 27 -20 -4 13 -3 -34 -1)
1969/12/31/18:00:08.445,(-47 -39 -15 -9 22 9 -19 -42)
1969/12/31/18:00:08.463,(20 36 15 0 -47 -46 -19 14)
1969/12/31/18:00:08.463,(-16 -4 3 -6 5 12 -1 -42)
1969/12/31/18:00:08.463,(9 12 -5 1 18 12 6 -7)
1969/12/31/18:00:08.463,(-6 -44 -29 -9 -12 -17 -10 -30)
1969/12/31/18:00:08.474,(5 20 8 6 17 -1 2 8)
1969/12/31/18:00:08.474,(-13 8 29 16 25 14 -6 -15)
1969/12/31/18:00:08.488,(2 -12 -9 -37 -72 -20 1 -5)
1969/12/31/18:00:08.488,(1 3 -10 2 43 -2 4 12)
1969/12/31/18:00:08.493,(-1 -13 -14 7 -6 15 -3 0)
1969/12/31/18:00:08.493,(-40 -15 -8 -22 27 14 -17 -49)
1969/12/31/18:00:08.506,(-9 8 15 75 51 4 0 -2)
1969/12/31/18:00:08.506,(10 1 -11 -9 -25 -19 3 29)
1969/12/31/18:00:08.514,(-6 -14 3 -16 -27 -14 17 29)
1969/12/31/18:00:08.514,(11 18 13 2 6 13 -25 -9)
1969/12/31/18:00:08.515,(26 -14 -16 -17 11 26 9 0)
1969/12/31/18:00:08.515,(-2 6 1 -9 -24 -2 24 -6)
1969/12/31/18:00:08.525,(-15 13 13 2 -12 -18 -9 1)
1969/12/31/18:00:08.525,(-10 -4 0 -4 2 1 -24 -38)
1969/12/31/18:00:08.533,(-37 -26 -18 -12 -4 -15 18 5)
1969/12/31/18:00:08.533,(9 5 12 18 -7 -2 -35 44)
1969/12/31/18:00:08.545,(-31 15 -1 -13 -15 -5 -32 -97)
1969/12/31/18:00:08.545,(13 -20 2 18 25 9 28 67)
1969/12/31/18:00:08.547,(18 11 -9 -12 -14 -10 -14 -16)
1969/12/31/18:00:08.547,(-19 -3 -3 -14 -22 -8 9 5)
1969/12/31/18:00:08.565,(26 7 8 8 26 9 12 38)
1969/12/31/18:00:08.565,(-19 -9 15 11 -10 -15 -10 -27)
1969/12/31/18:00:08.565,(39 6 9 -3 2 13 -6 3)
1969/12/31/18:00:08.565,(10 7 5 -1 0 58 41 -3)
1969/12/31/18:00:08.576,(33 26 13 6 5 -27 -27 34)
1969/12/31/18:00:08.576,(-6 7 -10 4 -8 -61 -26 -52)
1969/12/31/18:00:08.583,(-57 -33 -13 0 22 46 2 8)
1969/12/31/18:00:08.583,(-41 -26 -19 -14 -16 -15 -12 -18)
1969/12/31/18:00:08.596,(41 10 -7 -19 -28 -13 24 2)
1969/12/31/18:00:08.596,(6 13 8 7 26 26 17 35)
1969/12/31/18:00:08.598,(-47 -9 -8 10 -8 -27 9 -28)
1969/12/31/18:00:08.598,(15 6 12 13 7 -7 -20 -39)
1969/12/31/18:00:08.615,(-75 -50 -21 -15 -17 8 14 15)
1969/12/31/18:00:08.615,(-54 -18 -13 -13 -9 4 -17 -17)
1969/12/31/18:00:08.616,(4 -13 -18 -18 -12 -26 -18 -49)
1969/12/31/18:00:08.616,(16 23 14 12 4 9 10 -7)
1969/12/31/18:00:08.627,(72 28 9 13 10 20 57 95)
1969/12/31/18:00:08.627,(21 -21 2 4 7 19 15 62)
1969/12/31/18:00:08.639,(16 12 4 0 -1 -9 -4 70)
1969/12/31/18:00:08.639,(13 5 -1 -7 -11 -7 -12 5)
1969/12/31/18:00:08.654,(57 55 28 23 20 -18 29 13)
1969/12/31/18:00:08.654,(-2 20 21 21 14 22 6 48)
1969/12/31/18:00:08.655,(20 14 -3 -9 -13 -17 -4 9)
1969/12/31/18:00:08.655,(-76 -66 -24 -14 -10 -17 -35 -55)
1969/12/31/18:00:08.666,(-23 -19 -1 2 6 11 3 -5)
1969/12/31/18:00:08.666,(99 60 10 6 -1 2 15 51)
1969/12/31/18:00:08.667,(10 4 0 -8 -8 0 13 35)
1969/12/31/18:00:08.667,(-12 7 6 4 5 3 -1 -29)
1969/12/31/18:00:08.678,(-49 -36 -17 -11 -9 4 -4 -40)
1969/12/31/18:00:08.678,(-26 -16 -7 -7 -5 2 8 -29)
1969/12/31/18:00:08.685,(57 34 12 11 8 12 5 11)
1969/12/31/18:00:08.685,(30 -6 -26 -21 -6 -11 -2 49)
1969/12/31/18:00:08.705,(-76 -59 -23 -20 -17 -11 -25 -58)
1969/12/31/18:00:08.705,(-2 14 12 3 4 -1 -7 -39)
1969/12/31/18:00:08.706,(-37 -16 -5 -9 -2 0 -7 -61)
1969/12/31/18:00:08.706,(19 19 8 6 1 1 7 25)
1969/12/31/18:00:08.717,(12 -12 -9 -4 -5 -1 -12 24)
1969/12/31/18:00:08.717,(39 34 -7 -6 -7 -5 10 30)
1969/12/31/18:00:08.718,(-27 -24 0 4 1 -2 -15 -27)
1969/12/31/18:00:08.718,(40 10 9 17 6 3 13 32)
1969/12/31/18:00:08.728,(-9 9 -4 4 1 0 -12 -8)
1969/12/31/18:00:08.728,(-24 -24 -8 6 4 4 3 -15)
1969/12/31/18:00:08.736,(-6 -18 -19 -13 -6 2 7 16)
1969/12/31/18:00:08.737,(-3 33 36 8 4 -2 -1 -5)
1969/12/31/18:00:08.750,(47 31 -2 7 6 8 6 6)
1969/12/31/18:00:08.750,(-26 -17 3 -8 -5 -7 -8 -25)
1969/12/31/18:00:08.751,(7 -34 -41 -20 -6 -2 1 10)
1969/12/31/18:00:08.751,(-16 34 44 16 3 -2 -1 -2)
1969/12/31/18:00:08.768,(-28 -10 15 15 5 0 -15 -28)
1969/12/31/18:00:08.768,(40 5 -15 -2 -4 -3 0 -2)
1969/12/31/18:00:08.769,(3 0 7 1 0 1 2 3)
1969/12/31/18:00:08.769,(13 -56 -63 -24 -9 -2 3 11)
1969/12/31/18:00:08.779,(-8 8 2 -20 -9 -5 -5 -2)
1969/12/31/18:00:08.779,(-11 65 68 33 11 0 -3 -16)
1969/12/31/18:00:08.788,(8 -14 -7 9 3 0 4 9)
1969/12/31/18:00:08.788,(5 102 103 39 9 1 0 0)
1969/12/31/18:00:08.800,(-7 -35 -35 -9 -7 -1 -5 -8)
1969/12/31/18:00:08.800,(-3 -57 -53 -23 -6 0 3 -3)
1969/12/31/18:00:08.802,(1 33 30 9 -1 0 -7 -3)
1969/12/31/18:00:08.802,(-3 -88 -72 -30 -10 -6 -3 5)
1969/12/31/18:00:08.819,(11 89 71 25 13 6 -11 -14)
1969/12/31/18:00:08.819,(-16 -19 -27 -12 -6 -4 10 -2)
1969/12/31/18:00:08.820,(-6 21 14 5 -4 -7 -3 6)
1969/12/31/18:00:08.820,(-17 -73 -51 -28 -11 -3 -8 -9)
1969/12/31/18:00:08.830,(2 46 39 13 -1 -4 -15 -7)
1969/12/31/18:00:08.830,(4 -52 -85 -29 -6 -2 -2 4)
1969/12/31/18:00:08.838,(-4 104 109 62 15 3 4 -15)
1969/12/31/18:00:08.838,(7 -8 -44 -9 -4 -3 -8 1)
1969/12/31/18:00:08.851,(-1 -52 -55 -24 -7 -3 1 -2)
1969/12/31/18:00:08.851,(-16 -23 -9 -7 -5 -2 -8 -1)
1969/12/31/18:00:08.853,(3 -5 13 5 7 6 -4 -4)
1969/12/31/18:00:08.853,(4 21 -9 -5 -8 -9 12 3)
1969/12/31/18:00:08.871,(2 -33 -1 7 4 2 -10 -4)
1969/12/31/18:00:08.871,(-26 31 53 12 1 -3 0 -11)
1969/12/31/18:00:08.872,(0 -34 -48 -32 -8 2 11 9)
1969/12/31/18:00:08.872,(14 37 38 21 9 5 -1 6)
1969/12/31/18:00:08.889,(-9 -53 -71 -32 -13 -12 -14 -11)
1969/12/31/18:00:08.889,(-2 14 40 16 4 6 -6 -9)
1969/12/31/18:00:08.891,(-9 -5 -22 -10 -4 0 2 -2)
1969/12/31/18:00:08.891,(12 24 -14 -12 -3 2 6 2)
1969/12/31/18:00:08.902,(0 -34 8 11 3 2 8 4)
1969/12/31/18:00:08.902,(1 32 33 18 2 -7 -24 -11)
1969/12/31/18:00:08.908,(11 -20 -31 -14 -1 6 6 1)
1969/12/31/18:00:08.908,(-26 -50 -29 -12 -9 3 16 3)
1969/12/31/18:00:08.921,(-16 33 22 7 2 1 -6 -7)
1969/12/31/18:00:08.921,(3 -75 -59 -35 -14 -2 -17 -5)
1969/12/31/18:00:08.922,(6 44 68 48 14 9 -6 -4)
1969/12/31/18:00:08.922,(-3 5 12 13 5 8 -5 -2)
1969/12/31/18:00:08.940,(0 -13 -17 -2 0 6 7 9)
1969/12/31/18:00:08.940,(-9 -42 -58 -27 -13 -7 -3 -7)
1969/12/31/18:00:08.942,(-9 -39 -26 -18 -12 -17 -15 -7)
1969/12/31/18:00:08.942,(-2 -4 -16 -27 -11 -14 -5 3)
1969/12/31/18:00:08.953,(22 42 30 28 20 2 13 12)
1969/12/31/18:00:08.953,(4 31 34 32 20 0 21 13)
1969/12/31/18:00:08.958,(0 -18 -24 -15 3 -7 0 7)
1969/12/31/18:00:08.958,(1 14 32 15 10 -11 -11 -18)
1969/12/31/18:00:08.972,(-8 -26 -28 -24 -6 -12 11 8)
1969/12/31/18:00:08.972,(6 37 32 3 8 0 6 1)
1969/12/31/18:00:08.973,(1 -9 -4 0 1 -2 0 -1)
1969/12/31/18:00:08.973,(-20 -53 -17 -3 -5 -1 -3 -7)
1969/12/31/18:00:08.992,(1 -4 -1 -11 -9 -4 -5 0)
1969/12/31/18:00:08.992,(-8 -32 -15 -10 -7 -1 2 -4)
1969/12/31/18:00:08.993,(-8 26 3 -4 -5 -6 4 3)
1969/12/31/18:00:08.994,(12 22 29 24 8 7 2 3)
1969/12/31/18:00:09.004,(-19 -71 -31 -25 -16 -3 -6 -7)
1969/12/31/18:00:09.004,(8 67 53 29 6 6 -11 -9)
1969/12/31/18:00:09.011,(-11 -43 -34 -21 -9 2 -2 -3)
1969/12/31/18:00:09.011,(-2 -4 -16 -12 -8 -1 2 2)
1969/12/31/18:00:09.023,(4 20 9 19 0 1 7 8)
1969/12/31/18:00:09.023,(-7 -16 -15 -9 -6 -10 0 -6)
1969/12/31/18:00:09.024,(-1 -16 -3 -5 -2 -5 -7 -6)
1969/12/31/18:00:09.024,(16 27 16 12 2 0 4 10)
1969/12/31/18:00:09.042,(-2 -27 -4 0 0 -5 2 0)
1969/12/31/18:00:09.043,(4 27 -18 -10 -3 -3 5 5)
1969/12/31/18:00:09.044,(11 22 -14 -5 6 8 3 9)
1969/12/31/18:00:09.044,(-8 12 7 1 6 1 -2 -5)
1969/12/31/18:00:09.055,(-3 1 7 0 5 7 6 7)
1969/12/31/18:00:09.055,(-4 -11 -18 -11 -7 -7 -7 -9)
1969/12/31/18:00:09.060,(-14 -52 -10 -11 -5 -2 4 1)
1969/12/31/18:00:09.060,(-1 12 27 11 1 -5 2 -3)
1969/12/31/18:00:09.074,(14 48 19 5 0 3 2 -1)
1969/12/31/18:00:09.074,(-10 -21 4 5 2 5 3 2)
1969/12/31/18:00:09.075,(2 21 28 5 -3 -1 -7 -10)
1969/12/31/18:00:09.075,(4 12 -32 -14 -4 2 -2 0)
1969/12/31/18:00:09.094,(-6 3 0 0 -6 -1 -9 -8)
1969/12/31/18:00:09.094,(-3 -5 0 -4 -4 -1 -20 -8)
1969/12/31/18:00:09.098,(3 -7 -9 0 -2 3 2 -9)
1969/12/31/18:00:09.098,(4 19 9 0 -1 -6 -31 -26)
1969/12/31/18:00:09.105,(-1 6 -4 -1 4 7 -3 0)
1969/12/31/18:00:09.105,(-3 -9 -7 -3 -5 2 5 6)
1969/12/31/18:00:09.125,(7 21 7 5 0 4 -6 -2)
1969/12/31/18:00:09.125,(-2 -11 -6 -4 -2 3 7 10)
1969/12/31/18:00:09.132,(3 8 -6 -11 -9 8 -3 -2)
1969/12/31/18:00:09.132,(4 -9 4 2 5 8 13 8)
1969/12/31/18:00:09.134,(-25 2 -10 -16 -7 10 -16 -18)
1969/12/31/18:00:09.134,(2 -28 -12 -7 -11 -7 1 4)
1969/12/31/18:00:09.144,(16 45 11 11 7 -15 4 8)
1969/12/31/18:00:09.144,(-3 3 -2 1 5 -3 6 3)
1969/12/31/18:00:09.144,(-13 3 1 -6 5 5 -6 -11)
1969/12/31/18:00:09.145,(-22 9 9 -3 0 24 -21 -27)
1969/12/31/18:00:09.156,(-9 -3 -4 -6 -14 22 -18 -20)
1969/12/31/18:00:09.156,(7 6 12 13 -9 15 -8 -2)
1969/12/31/18:00:09.162,(18 -17 -14 14 -5 -2 0 11)
1969/12/31/18:00:09.162,(4 -8 4 12 -2 -5 -2 9)
1969/12/31/18:00:09.175,(8 -5 0 2 0 -13 7 11)
1969/12/31/18:00:09.175,(0 1 2 2 6 -9 -2 -6)
1969/12/31/18:00:09.176,(2 -16 -6 -7 -3 -16 6 11)
1969/12/31/18:00:09.176,(10 -21 -13 -6 -5 -21 19 25)
1969/12/31/18:00:09.195,(17 -10 -5 1 5 -34 10 12)
1969/12/31/18:00:09.195,(21 -9 -7 -4 11 -32 26 27)
1969/12/31/18:00:09.195,(0 5 7 -3 23 -24 14 7)
1969/12/31/18:00:09.195,(-29 12 2 -17 20 14 -2 -20)
1969/12/31/18:00:09.215,(-32 13 9 -7 5 28 -18 -33)
1969/12/31/18:00:09.215,(-20 6 1 -13 -15 21 -21 -25)
1969/12/31/18:00:09.220,(4 1 -7 1 -13 12 -4 1)
1969/12/31/18:00:09.220,(9 -4 -1 12 -6 -1 0 6)
1969/12/31/18:00:09.233,(1 -14 -2 0 -6 -1 1 1)
1969/12/31/18:00:09.233,(-2 -3 -2 -4 -6 -3 -4 -3)
1969/12/31/18:00:09.239,(3 -2 -5 2 -2 2 -1 1)
1969/12/31/18:00:09.240,(1 0 3 5 -1 2 2 2)
1969/12/31/18:00:09.260,(-4 -10 0 0 -3 0 2 -1)
1969/12/31/18:00:09.260,(2 5 -10 4 1 2 -1 0)
1969/12/31/18:00:09.260,(-1 -4 -2 5 -3 1 5 5)
1969/12/31/18:00:09.260,(0 -4 -4 1 0 -2 -1 1)
1969/12/31/18:00:09.261,(-1 -4 7 4 2 -1 2 1)
1969/12/31/18:00:09.261,(-2 -13 -6 0 1 0 2 1)
1969/12/31/18:00:09.265,(-2 -1 -5 -2 -2 0 -2 -2)
1969/12/31/18:00:09.265,(0 -4 -3 -5 -2 -4 1 0)
1969/12/31/18:00:09.279,(0 -1 -1 6 6 5 7 5)
1969/12/31/18:00:09.279,(-2 3 4 -2 0 -2 -3 -1)
1969/12/31/18:00:09.280,(-2 -2 -3 -4 -7 -6 -4 -3)
1969/12/31/18:00:09.280,(0 -2 -5 -3 -2 -4 -1 0)
1969/12/31/18:00:09.297,(-4 -10 -12 -10 -4 -4 -4 -6)
1969/12/31/18:00:09.297,(-3 7 6 3 1 0 -1 -2)
1969/12/31/18:00:09.304,(1 -6 -1 0 -2 -4 -1 -1)
1969/12/31/18:00:09.304,(0 9 3 1 2 1 4 1)
1969/12/31/18:00:09.317,(2 0 -1 -3 -2 -6 -1 1)
1969/12/31/18:00:09.317,(-3 -6 2 3 2 0 0 0)
1969/12/31/18:00:09.317,(1 7 1 -1 0 -4 -1 0)
1969/12/31/18:00:09.318,(-2 -2 -8 -4 -6 -3 -2 -4)
1969/12/31/18:00:09.328,(2 2 3 2 -1 2 1 2)
1969/12/31/18:00:09.328,(-4 -4 0 0 -1 -3 -2 -2)
1969/12/31/18:00:09.335,(-2 -9 -10 -8 -4 -4 -1 -3)
1969/12/31/18:00:09.335,(0 0 1 1 4 -1 0 -2)
1969/12/31/18:00:09.348,(-1 5 -1 -2 1 -4 0 0)
1969/12/31/18:00:09.348,(-2 0 -1 -4 -3 -2 0 -1)
1969/12/31/18:00:09.355,(-3 -2 -4 -5 -3 -1 -3 -2)
1969/12/31/18:00:09.355,(-1 -4 -3 -1 -2 -3 -1 -2)
1969/12/31/18:00:09.373,(-3 -4 -5 -2 -3 -1 -1 -2)
1969/12/31/18:00:09.373,(0 0 -4 -8 -4 -2 -1 0)
1969/12/31/18:00:09.386,(0 -4 -2 3 0 0 0 -2)
1969/12/31/18:00:09.386,(-1 8 4 0 -1 -1 -3 -2)
1969/12/31/18:00:09.395,(1 0 -2 -2 1 1 -2 -1)
1969/12/31/18:00:09.395,(-1 -2 -6 -5 -3 0 0 1)
1969/12/31/18:00:09.395,(1 3 3 1 1 1 -3 -1)
1969/12/31/18:00:09.395,(-1 -5 0 -1 -2 -1 -3 -1)
1969/12/31/18:00:09.399,(-3 -5 -6 -4 -1 -4 -5 -2)
1969/12/31/18:00:09.399,(-4 2 -1 -3 -2 -1 -3 -2)
1969/12/31/18:00:09.405,(2 -3 0 1 0 4 3 5)
1969/12/31/18:00:09.406,(-3 -8 -5 -2 0 -2 -3 -4)
1969/12/31/18:00:09.413,(1 2 1 1 1 1 1 1)
1969/12/31/18:00:09.413,(1 -3 0 1 0 0 0 -3)
1969/12/31/18:00:09.414,(2 8 6 4 1 -1 2 3)
1969/12/31/18:00:09.414,(0 2 -2 -4 -2 -3 1 2)
1969/12/31/18:00:09.430,(-3 -7 2 0 0 -4 -1 0)
1969/12/31/18:00:09.430,(-2 5 -3 -2 0 -6 -3 -4)
1969/12/31/18:00:09.431,(-2 -3 -2 -4 -1 -1 2 0)
1969/12/31/18:00:09.431,(0 1 -3 -3 -2 -1 -1 1)
1969/12/31/18:00:09.450,(0 -2 0 0 -1 -2 -1 -4)
1969/12/31/18:00:09.450,(2 -3 1 1 1 0 -2 0)
1969/12/31/18:00:09.457,(-2 1 2 0 1 1 -1 0)
1969/12/31/18:00:09.457,(-2 -4 -3 -1 -2 3 -5 -1)
1969/12/31/18:00:09.484,(-1 1 1 -1 0 10 2 2)
1969/12/31/18:00:09.484,(1 2 3 3 1 12 -1 -2)
1969/12/31/18:00:09.485,(0 3 -1 -4 -1 7 1 -1)
1969/12/31/18:00:09.485,(-4 -9 -5 -5 -4 -1 -2 -4)
1969/12/31/18:00:09.489,(-2 5 4 -2 -2 -6 -3 -3)
1969/12/31/18:00:09.489,(2 3 3 3 -2 -7 0 1)
1969/12/31/18:00:09.490,(0 2 4 1 -1 -10 -2 -1)
1969/12/31/18:00:09.490,(0 -2 1 2 -2 -7 2 2)
1969/12/31/18:00:09.508,(-1 -1 -4 -2 -2 -7 3 0)
1969/12/31/18:00:09.508,(-5 -3 -2 -4 -1 -6 -2 1)
1969/12/31/18:00:09.508,(1 2 -3 -1 -1 0 -2 -2)
1969/12/31/18:00:09.508,(-2 -4 0 -3 -1 -2 0 -1)
1969/12/31/18:00:09.513,(2 4 0 0 -3 -4 -4 -4)
1969/12/31/18:00:09.513,(-2 -1 -3 -2 -1 -2 3 2)
1969/12/31/18:00:09.520,(-2 -2 -1 -1 -2 1 -1 -1)
1969/12/31/18:00:09.520,(2 1 5 2 3 3 0 0)
1969/12/31/18:00:09.539,(-2 -3 -4 -4 -1 3 -4 0)
1969/12/31/18:00:09.539,(-2 -2 0 -1 -1 2 -3 -3)
1969/12/31/18:00:09.540,(-2 -1 0 0 -2 4 -1 -2)
1969/12/31/18:00:09.540,(-2 0 -1 3 -1 2 -3 -3)
1969/12/31/18:00:09.552,(-4 -2 -3 -3 -4 0 -2 -2)
1969/12/31/18:00:09.552,(0 -2 -2 0 -1 0 -1 -2)
1969/12/31/18:00:09.552,(-2 -3 -1 1 -2 -2 -1 -2)
1969/12/31/18:00:09.552,(2 0 0 2 0 3 1 0)
1969/12/31/18:00:09.564,(2 1 1 1 2 2 1 0)
1969/12/31/18:00:09.564,(-4 -3 -4 -3 -1 0 -2 -1)
1969/12/31/18:00:09.571,(-2 -8 -3 -1 -2 -5 -2 1)
1969/12/31/18:00:09.571,(3 10 9 3 2 -2 1 1)
1969/12/31/18:00:09.571,(0 -2 -4 -4 -1 1 -2 -1)
1969/12/31/18:00:09.571,(-2 -3 -2 -1 -2 -1 0 -2)
1969/12/31/18:00:09.583,(-2 -1 0 -1 -1 -2 -2 -3)
1969/12/31/18:00:09.583,(-2 -2 -6 -4 -1 -1 -3 -2)
1969/12/31/18:00:09.593,(-1 -1 -2 1 1 -1 1 1)
1969/12/31/18:00:09.593,(1 -2 0 -2 1 1 0 -2)
1969/12/31/18:00:09.593,(0 1 3 6 0 -1 0 -1)
1969/12/31/18:00:09.593,(-2 -2 -7 -6 -5 -1 0 -3)
1969/12/31/18:00:09.603,(-3 -3 -1 -4 -2 -3 -2 -3)
1969/12/31/18:00:09.603,(-1 -3 -4 -2 -3 -3 -1 0)
1969/12/31/18:00:09.603,(0 0 1 -1 -1 0 -1 1)
1969/12/31/18:00:09.603,(-3 1 1 0 -1 -1 2 -2)
1969/12/31/18:00:09.622,(0 -2 -1 0 0 2 0 -1)
1969/12/31/18:00:09.622,(-3 -1 0 0 1 0 -1 0)
1969/12/31/18:00:09.622,(1 1 2 -1 0 -1 -2 -2)
1969/12/31/18:00:09.622,(-1 -1 3 3 0 -1 -1 1)
1969/12/31/18:00:09.642,(-1 -1 -2 -2 -3 -1 -2 -1)
1969/12/31/18:00:09.642,(-1 -1 -1 1 0 -1 1 1)
1969/12/31/18:00:09.643,(-3 -4 -4 -3 -2 -1 1 -1)
1969/12/31/18:00:09.643,(2 -1 -1 0 2 -2 -1 -2)
1969/12/31/18:00:09.654,(-2 0 -1 -2 -2 -2 -1 -1)
1969/12/31/18:00:09.654,(-1 -2 -3 -2 -1 -1 -1 1)
1969/12/31/18:00:09.654,(-1 -2 -1 -2 -2 -1 0 -2)
1969/12/31/18:00:09.655,(1 4 -2 0 0 -1 -1 -1)
1969/12/31/18:00:09.680,(2 0 1 1 2 1 0 -1)
1969/12/31/18:00:09.680,(-1 -2 0 -1 -2 -2 0 0)
1969/12/31/18:00:09.681,(1 1 -1 -1 1 0 -1 0)
1969/12/31/18:00:09.681,(-3 -3 0 -4 -3 -1 -1 -2)
1969/12/31/18:00:09.691,(-1 1 1 1 -1 0 -2 -1)
1969/12/31/18:00:09.691,(-2 -1 1 -1 -1 0 -1 -1)
1969/12/31/18:00:09.698,(-1 0 0 2 1 0 -3 0)
1969/12/31/18:00:09.698,(-2 -1 -1 -1 0 0 -1 -1)
1969/12/31/18:00:09.705,(0 -1 -3 -1 -1 -2 -3 -2)
1969/12/31/18:00:09.705,(-2 -1 0 -3 -3 0 -1 -2)
1969/12/31/18:00:09.705,(-3 -2 -3 0 -1 1 0 -1)
1969/12/31/18:00:09.705,(1 0 -1 1 1 1 1 0)
1969/12/31/18:00:09.730,(-2 -1 1 1 -1 -2 -2 0)
1969/12/31/18:00:09.730,(-2 -5 -6 -5 -4 -1 0 -2)
1969/12/31/18:00:09.731,(0 0 1 2 0 0 -1 0)
1969/12/31/18:00:09.731,(0 4 10 11 2 0 0 1)
1969/12/31/18:00:09.744,(1 -1 3 5 1 0 0 -1)
1969/12/31/18:00:09.744,(1 -2 -1 3 1 1 -1 0)
1969/12/31/18:00:09.745,(-1 -1 -3 0 0 -1 -1 0)
1969/12/31/18:00:09.745,(-4 -7 -5 -8 -4 -1 -1 -2)
1969/12/31/18:00:09.756,(1 2 -2 -7 -3 -1 0 0)
1969/12/31/18:00:09.756,(-2 -5 -5 -7 -3 -1 -4 -2)
1969/12/31/18:00:09.763,(1 1 1 -6 -2 -3 1 2)
1969/12/31/18:00:09.763,(0 1 1 11 4 0 -1 3)
1969/12/31/18:00:09.774,(-2 -2 -2 -4 0 -2 -1 -2)
1969/12/31/18:00:09.774,(-3 -6 -10 -11 -5 -2 -3 -2)
1969/12/31/18:00:09.775,(-3 -2 -7 -8 -5 -2 0 -3)
1969/12/31/18:00:09.775,(3 2 6 6 4 2 0 1)
1969/12/31/18:00:09.794,(0 1 -4 -2 -1 0 0 3)
1969/12/31/18:00:09.794,(0 5 20 21 8 1 -2 -4)
1969/12/31/18:00:09.800,(4 -4 0 2 2 2 4 10)
1969/12/31/18:00:09.800,(-24 -8 -8 -3 0 -1 -2 -9)
1969/12/31/18:00:09.808,(-4 -9 -17 -14 -6 -6 -15 -40)
1969/12/31/18:00:09.808,(22 25 20 12 5 3 10 39)
1969/12/31/18:00:09.808,(-20 -22 -15 -5 -1 -5 -9 -16)
1969/12/31/18:00:09.808,(24 18 22 8 6 7 14 33)
1969/12/31/18:00:09.825,(-14 -23 -30 -24 -13 -12 -3 15)
1969/12/31/18:00:09.825,(-20 3 16 5 -1 1 -12 -61)
1969/12/31/18:00:09.826,(-2 6 -20 12 6 0 -4 -14)
1969/12/31/18:00:09.826,(2 12 32 -10 -3 3 3 -7)
1969/12/31/18:00:09.844,(22 19 9 48 18 9 14 29)
1969/12/31/18:00:09.844,(9 -13 -32 -63 -25 -15 -9 11)
1969/12/31/18:00:09.851,(11 6 19 29 5 16 17 13)
1969/12/31/18:00:09.851,(-40 -18 -7 15 0 -5 -14 -25)
1969/12/31/18:00:09.857,(4 13 18 0 -1 -3 -8 -7)
1969/12/31/18:00:09.857,(17 -16 -36 -6 4 1 9 24)
1969/12/31/18:00:09.864,(-18 4 32 5 0 -9 -11 -28)
1969/12/31/18:00:09.864,(0 -15 -35 -11 -5 12 -2 -13)
1969/12/31/18:00:09.877,(2 4 6 -3 -5 0 19 11)
1969/12/31/18:00:09.877,(-9 7 24 39 27 12 -20 -12)
1969/12/31/18:00:09.883,(8 -1 10 -10 -6 -6 -2 13)
1969/12/31/18:00:09.883,(-10 -30 -90 -89 -21 -11 -12 -28)
1969/12/31/18:00:09.896,(-8 -10 3 -14 -17 -9 -6 4)
1969/12/31/18:00:09.896,(2 22 17 35 10 1 9 2)
1969/12/31/18:00:09.897,(15 14 76 87 23 5 7 17)
1969/12/31/18:00:09.897,(16 14 27 62 19 -4 9 16)
1969/12/31/18:00:09.909,(-11 -26 -34 -54 -18 -20 -12 -15)
1969/12/31/18:00:09.909,(4 -5 -57 -28 -12 -16 11 12)
1969/12/31/18:00:09.915,(-15 -26 -62 -71 -22 -23 13 3)
1969/12/31/18:00:09.915,(14 -34 45 22 -2 -23 2 14)
1969/12/31/18:00:09.927,(-2 32 -16 10 17 -5 7 0)
1969/12/31/18:00:09.927,(-9 5 -3 -15 12 10 12 -1)
1969/12/31/18:00:09.928,(-20 -8 -7 -35 -8 1 -17 -25)
1969/12/31/18:00:09.928,(-19 -23 -36 -23 -13 7 -11 -11)
1969/12/31/18:00:09.947,(-10 18 35 -1 1 43 -11 -17)
1969/12/31/18:00:09.947,(-7 -11 -12 2 -11 37 -8 -8)
1969/12/31/18:00:09.948,(9 44 81 54 1 45 -3 3)
1969/12/31/18:00:09.948,(-3 -22 -80 -39 -24 17 -4 1)
1969/12/31/18:00:09.960,(0 -30 -51 -22 -12 1 -8 -2)
1969/12/31/18:00:09.960,(14 87 71 85 29 13 6 4)
1969/12/31/18:00:09.960,(4 -61 -95 -34 -14 -9 -3 3)
1969/12/31/18:00:09.960,(21 48 89 56 12 -12 -1 7)
1969/12/31/18:00:09.978,(1 -17 -35 -16 -7 -22 5 8)
1969/12/31/18:00:09.978,(-4 -48 -34 -50 -19 -32 3 5)
1969/12/31/18:00:09.979,(7 -22 -18 -23 -3 -32 2 8)
1969/12/31/18:00:09.979,(8 27 25 36 16 -14 10 11)
1969/12/31/18:00:09.999,(-1 -8 -12 -13 6 -5 6 7)
1969/12/31/18:00:09.999,(-9 -13 22 -1 -2 -14 -4 -7)
1969/12/31/18:00:10.000,(-6 21 14 3 9 2 -4 -9)
1969/12/31/18:00:10.000,(-5 0 -30 -32 -5 4 0 2)
1969/12/31/18:00:10.011,(0 12 40 29 8 12 -1 -16)
1969/12/31/18:00:10.011,(13 6 11 3 -7 -1 -7 9)
1969/12/31/18:00:10.011,(-35 -17 -34 -12 -1 12 7 -5)
1969/12/31/18:00:10.011,(28 5 -3 -15 -6 -5 -10 7)
1969/12/31/18:00:10.030,(11 15 28 25 7 4 -2 5)
1969/12/31/18:00:10.030,(-16 -24 -17 -14 -7 -1 3 -13)
1969/12/31/18:00:10.036,(-27 -18 -24 -19 -3 -14 -12 4)
1969/12/31/18:00:10.036,(0 17 19 7 6 30 5 -22)
1969/12/31/18:00:10.049,(1 9 21 19 7 0 -3 -4)
1969/12/31/18:00:10.049,(38 11 -14 -16 -4 21 17 24)
1969/12/31/18:00:10.055,(-18 16 15 3 -7 -26 -46 -14)
1969/12/31/18:00:10.055,(7 -6 -1 -7 -5 6 19 -4)
1969/12/31/18:00:10.061,(-22 -14 -5 1 0 3 -24 -16)
1969/12/31/18:00:10.061,(3 -1 -7 -9 -11 -10 4 -4)
1969/12/31/18:00:10.068,(37 11 3 0 -1 -12 -7 10)
1969/12/31/18:00:10.068,(-11 -2 2 0 6 32 16 -7)
1969/12/31/18:00:10.080,(29 2 -6 -3 -3 -22 10 19)
1969/12/31/18:00:10.080,(-8 -10 7 6 2 14 6 8)
1969/12/31/18:00:10.081,(7 0 -4 1 -3 -19 14 -2)
1969/12/31/18:00:10.081,(11 8 -6 -6 -5 -5 -15 1)
1969/12/31/18:00:10.100,(12 6 12 9 10 36 22 22)
1969/12/31/18:00:10.100,(-29 -18 -6 1 -6 -44 9 -6)
1969/12/31/18:00:10.101,(28 -1 -14 -8 0 -12 3 16)
1969/12/31/18:00:10.101,(7 9 4 -1 4 8 14 20)
1969/12/31/18:00:10.112,(-14 -15 3 4 4 20 -8 -8)
1969/12/31/18:00:10.112,(-23 -7 -12 -11 -5 -32 -3 -15)
1969/12/31/18:00:10.119,(-20 -4 -3 -4 -6 -42 6 -16)
1969/12/31/18:00:10.119,(4 -3 1 1 3 9 12 33)
1969/12/31/18:00:10.131,(7 15 11 4 3 11 9 15)
1969/12/31/18:00:10.131,(-39 -7 -1 -7 -1 16 -33 -61)
1969/12/31/18:00:10.132,(3 9 5 1 6 50 35 32)
1969/12/31/18:00:10.132,(-52 -27 -10 -16 -15 -27 -73 -82)
1969/12/31/18:00:10.151,(9 4 1 1 -2 15 9 2)
1969/12/31/18:00:10.151,(0 -3 1 1 2 26 1 8)
1969/12/31/18:00:10.158,(22 28 8 8 -2 -7 -20 -1)
1969/12/31/18:00:10.158,(9 0 1 4 -5 -10 -1 7)
1969/12/31/18:00:10.164,(-25 -36 -13 -8 -3 53 16 -4)
1969/12/31/18:00:10.164,(4 -2 -5 -6 -14 -59 -13 -2)
1969/12/31/18:00:10.170,(42 13 2 -2 -4 8 6 4)
1969/12/31/18:00:10.170,(-13 7 2 5 6 21 8 4)
1969/12/31/18:00:10.182,(-36 -24 -16 -9 -12 -39 -16 -36)
1969/12/31/18:00:10.182,(6 -1 4 5 4 12 14 48)
1969/12/31/18:00:10.183,(-4 -7 -10 -9 -2 16 -32 -51)
1969/12/31/18:00:10.183,(11 -1 -1 -1 -1 -24 -8 8)
1969/12/31/18:00:10.203,(-4 -1 -2 -4 -8 -19 11 3)
1969/12/31/18:00:10.203,(-5 -7 -4 -3 -1 12 21 10)
1969/12/31/18:00:10.204,(3 8 4 6 6 7 14 39)
1969/12/31/18:00:10.204,(-22 -9 0 1 0 -7 -1 -21)
1969/12/31/18:00:10.214,(-1 10 5 6 4 -18 -16 -9)
1969/12/31/18:00:10.214,(12 -4 -8 -3 -1 7 -2 9)
1969/12/31/18:00:10.221,(7 6 7 4 1 9 22 -10)
1969/12/31/18:00:10.221,(12 -2 -1 -1 7 21 -28 5)
1969/12/31/18:00:10.233,(11 -9 -3 -1 -13 -51 -5 75)
1969/12/31/18:00:10.233,(10 5 3 -3 -1 -1 -44 -46)
1969/12/31/18:00:10.234,(-13 -11 -7 -7 -2 -12 -13 1)
1969/12/31/18:00:10.234,(-18 4 7 1 -11 -37 -8 -10)
1969/12/31/18:00:10.253,(42 12 -1 -2 8 57 14 19)
1969/12/31/18:00:10.253,(-8 0 4 3 2 -14 -40 -23)
1969/12/31/18:00:10.254,(-30 -10 -2 -2 -3 2 19 -19)
1969/12/31/18:00:10.254,(4 -5 -9 -4 0 -2 12 12)
1969/12/31/18:00:10.265,(-20 1 4 4 -1 -21 -7 -25)
1969/12/31/18:00:10.265,(14 4 4 4 6 10 0 0)
1969/12/31/18:00:10.272,(-19 -3 -2 3 6 18 7 -9)
1969/12/31/18:00:10.272,(11 -1 -8 -8 -9 -24 2 -8)
1969/12/31/18:00:10.291,(2 1 3 3 2 -1 4 -38)
1969/12/31/18:00:10.291,(8 2 1 0 7 54 18 58)
1969/12/31/18:00:10.292,(-4 -15 -9 -9 -13 -30 -7 16)
1969/12/31/18:00:10.292,(13 8 3 0 0 -6 0 14)
1969/12/31/18:00:10.304,(-10 7 7 5 2 -18 -12 6)
1969/12/31/18:00:10.304,(17 12 0 3 -1 -21 1 -13)
1969/12/31/18:00:10.305,(25 8 5 1 4 41 -2 -28)
1969/12/31/18:00:10.305,(-25 -16 -12 -9 -7 -19 -12 -37)
1969/12/31/18:00:10.323,(-3 -1 -4 -3 -1 14 19 18)
1969/12/31/18:00:10.323,(-3 3 8 9 6 7 25 21)
1969/12/31/18:00:10.324,(-5 -3 -1 -6 -9 -15 -40 -12)
1969/12/31/18:00:10.324,(2 -3 -2 0 -4 -4 8 -29)
1969/12/31/18:00:10.335,(7 13 10 7 6 1 -12 -9)
1969/12/31/18:00:10.335,(-2 -4 -2 -2 -4 -3 22 -1)
1969/12/31/18:00:10.336,(-30 -18 -4 -3 1 -4 -2 -14)
1969/12/31/18:00:10.336,(22 22 3 1 2 -3 -2 22)
1969/12/31/18:00:10.355,(11 -3 -2 -3 1 15 -27 2)
1969/12/31/18:00:10.355,(-4 -13 -12 -5 8 38 -18 24)
1969/12/31/18:00:10.356,(-8 6 4 2 -6 -55 -6 19)
1969/12/31/18:00:10.356,(11 3 4 5 2 -5 -3 9)
1969/12/31/18:00:10.374,(-68 -37 -14 -11 -4 27 -23 -71)
1969/12/31/18:00:10.374,(24 8 3 4 0 -16 21 38)
1969/12/31/18:00:10.375,(-15 -7 -10 -10 -7 -13 -5 -30)
1969/12/31/18:00:10.375,(32 20 8 6 4 23 18 52)
1969/12/31/18:00:10.386,(-1 -10 -3 -3 0 -4 31 -8)
1969/12/31/18:00:10.386,(-25 -12 -3 -4 -7 -21 -26 -14)
1969/12/31/18:00:10.393,(1 2 -2 0 3 26 32 11)
1969/12/31/18:00:10.393,(6 4 -2 -3 -1 10 -10 2)
1969/12/31/18:00:10.406,(2 7 -3 -5 -16 -65 -16 -24)
1969/12/31/18:00:10.406,(-8 -2 3 2 -2 -3 3 -4)
1969/12/31/18:00:10.407,(28 5 7 9 10 15 9 38)
1969/12/31/18:00:10.407,(-15 -13 -4 1 1 1 18 20)
1969/12/31/18:00:10.425,(3 15 5 7 11 7 38 81)
1969/12/31/18:00:10.425,(11 -10 -4 -5 -1 23 13 15)
1969/12/31/18:00:10.426,(13 8 0 -1 6 51 -13 -27)
1969/12/31/18:00:10.426,(6 8 5 1 4 19 20 23)
1969/12/31/18:00:10.437,(15 -3 -3 -5 -18 -112 25 64)
1969/12/31/18:00:10.438,(22 7 9 7 3 -4 -37 -68)
1969/12/31/18:00:10.438,(-46 -27 -18 -14 -9 -10 -18 -50)
1969/12/31/18:00:10.438,(-3 3 3 1 2 -16 -5 8)
1969/12/31/18:00:10.456,(21 12 11 11 11 24 -27 3)
1969/12/31/18:00:10.456,(15 -5 -17 -19 -22 -21 -19 -48)
1969/12/31/18:00:10.463,(11 4 -9 -6 -8 -43 -16 -12)
1969/12/31/18:00:10.463,(-13 -22 -6 -3 4 65 11 2)
1969/12/31/18:00:10.476,(-13 3 0 -4 -5 -12 -14 -26)
1969/12/31/18:00:10.476,(-56 -31 -15 -8 -7 -13 -2 -30)
1969/12/31/18:00:10.477,(15 25 21 19 19 40 39 47)
1969/12/31/18:00:10.477,(-1 -19 -16 -15 -28 -111 -48 -46)
1969/12/31/18:00:10.488,(14 -3 -17 -11 13 127 -13 -55)
1969/12/31/18:00:10.488,(-33 -2 -2 -7 -23 -88 -41 -35)
1969/12/31/18:00:10.489,(31 16 16 12 6 -2 26 40)
1969/12/31/18:00:10.489,(-10 9 4 5 10 23 24 -2)
1969/12/31/18:00:10.509,(6 -11 1 1 -6 5 14 56)
1969/12/31/18:00:10.509,(0 17 6 7 17 51 9 57)
1969/12/31/18:00:10.509,(-2 -12 -13 -12 -10 -14 -8 -14)
1969/12/31/18:00:10.509,(10 31 15 13 7 -1 5 -18)
1969/12/31/18:00:10.527,(-63 -48 -12 -4 -2 -16 5 -23)
1969/12/31/18:00:10.527,(21 24 2 1 0 3 12 8)
1969/12/31/18:00:10.528,(-68 -32 -21 -13 -16 -20 -33 -47)
1969/12/31/18:00:10.528,(-9 -6 0 -1 4 24 3 8)
1969/12/31/18:00:10.539,(21 14 1 -1 -3 -17 4 -22)
1969/12/31/18:00:10.539,(-16 -6 4 3 10 50 4 -36)
1969/12/31/18:00:10.540,(14 14 8 9 6 22 52 37)
1969/12/31/18:00:10.540,(-20 -23 -11 -9 -7 -4 -28 -37)
1969/12/31/18:00:10.559,(9 7 4 -2 -5 -26 -9 7)
1969/12/31/18:00:10.559,(16 13 13 13 13 0 11 39)
1969/12/31/18:00:10.560,(11 6 0 4 4 7 -32 -9)
1969/12/31/18:00:10.560,(-16 -1 2 9 30 86 79 49)
1969/12/31/18:00:10.578,(8 -1 3 -3 -22 -24 1 -34)
1969/12/31/18:00:10.578,(-23 -23 -4 3 3 -34 -33 -28)
1969/12/31/18:00:10.578,(19 12 3 -5 -14 -6 26 29)
1969/12/31/18:00:10.578,(-10 -2 -9 -15 -10 -22 -21 -7)
1969/12/31/18:00:10.590,(30 12 8 16 54 54 -2 6)
1969/12/31/18:00:10.590,(9 5 -5 -12 -46 -39 8 -4)
1969/12/31/18:00:10.591,(32 19 9 16 29 10 -5 33)
1969/12/31/18:00:10.591,(5 -6 0 5 20 27 -11 -51)
1969/12/31/18:00:10.611,(-40 -26 -11 14 43 21 2 -76)
1969/12/31/18:00:10.611,(10 4 -2 -34 -90 -94 -16 5)
1969/12/31/18:00:10.611,(-9 -7 -4 -32 -27 -23 -16 16)
1969/12/31/18:00:10.611,(38 26 13 14 23 7 29 70)
1969/12/31/18:00:10.629,(-5 6 -2 12 61 43 2 -31)
1969/12/31/18:00:10.629,(-3 1 0 14 44 47 5 7)
1969/12/31/18:00:10.631,(-2 -20 -14 -18 -63 -18 -12 -17)
1969/12/31/18:00:10.631,(-4 -2 1 -6 -7 -33 -25 -24)
1969/12/31/18:00:10.640,(10 28 17 31 52 2 26 58)
1969/12/31/18:00:10.640,(21 -7 5 33 81 81 32 34)
1969/12/31/18:00:10.648,(-18 -4 -5 -13 -3 -15 -2 -38)
1969/12/31/18:00:10.649,(-29 -8 -7 -31 -88 -71 -43 -25)
1969/12/31/18:00:10.661,(14 -10 -9 -34 -47 -34 6 35)
1969/12/31/18:00:10.661,(5 12 9 25 52 2 8 28)
1969/12/31/18:00:10.662,(4 7 9 15 -5 16 0 -11)
1969/12/31/18:00:10.662,(-19 -21 -15 -52 -80 -67 -11 -12)
1969/12/31/18:00:10.680,(5 15 1 -12 -5 -6 -20 4)
1969/12/31/18:00:10.680,(-17 -11 -4 -4 39 24 15 -9)
1969/12/31/18:00:10.681,(1 -2 6 41 78 54 20 27)
1969/12/31/18:00:10.681,(4 -5 -14 17 38 17 -8 -19)
1969/12/31/18:00:10.699,(-25 -5 23 -16 -74 -35 -20 -10)
1969/12/31/18:00:10.699,(-10 18 6 4 0 12 12 -7)
1969/12/31/18:00:10.701,(-25 -10 -15 1 7 -1 -1 -19)
1969/12/31/18:00:10.701,(5 6 -3 -7 2 -3 -17 -28)
1969/12/31/18:00:10.712,(9 -4 -12 -9 -17 -7 1 11)
1969/12/31/18:00:10.712,(-25 -16 -10 -11 -25 -17 -1 -10)
1969/12/31/18:00:10.713,(25 7 17 12 8 9 8 34)
1969/12/31/18:00:10.713,(-21 -10 -5 17 37 17 1 -40)
1969/12/31/18:00:10.732,(-44 28 41 28 37 27 0 -10)
1969/12/31/18:00:10.732,(-47 -23 -17 -29 -82 -55 -17 -72)
1969/12/31/18:00:10.734,(9 -7 -14 -26 -31 -10 -10 17)
1969/12/31/18:00:10.734,(18 -15 -12 -3 -7 -19 -1 33)
1969/12/31/18:00:10.742,(31 12 -5 3 6 -5 -7 -2)
1969/12/31/18:00:10.743,(15 5 -12 6 61 50 20 22)
1969/12/31/18:00:10.755,(-48 -66 -33 -28 -24 -24 -12 -38)
1969/12/31/18:00:10.755,(32 21 -13 3 -12 -18 25 67)
1969/12/31/18:00:10.763,(-2 56 64 5 -61 -61 -32 -17)
1969/12/31/18:00:10.763,(-11 -17 -15 1 23 9 9 21)
1969/12/31/18:00:10.764,(28 -45 -56 -18 23 10 2 18)
1969/12/31/18:00:10.764,(-42 8 51 26 52 33 -4 -65)
1969/12/31/18:00:10.782,(23 36 6 -2 -38 -10 25 34)
1969/12/31/18:00:10.782,(11 -11 12 -4 -26 -29 -30 -11)
1969/12/31/18:00:10.783,(11 -17 -23 30 127 109 37 48)
1969/12/31/18:00:10.783,(12 42 52 -16 -110 -89 -20 19)
1969/12/31/18:00:10.793,(5 -43 -54 -35 1 -15 7 40)
1969/12/31/18:00:10.793,(13 19 28 11 -2 11 20 3)
1969/12/31/18:00:10.801,(-18 -34 -14 0 15 -22 -31 -11)
1969/12/31/18:00:10.801,(22 -49 -47 -14 22 25 6 14)
1969/12/31/18:00:10.814,(22 19 -29 14 67 44 2 -3)
1969/12/31/18:00:10.814,(44 13 19 -1 -35 -4 13 88)
1969/12/31/18:00:10.815,(39 85 44 -18 -82 -50 7 41)
1969/12/31/18:00:10.815,(-68 -24 5 -9 -28 -39 -36 -85)
1969/12/31/18:00:10.833,(-51 -2 40 29 34 17 1 2)
1969/12/31/18:00:10.833,(35 -15 -45 -5 2 17 6 -6)
1969/12/31/18:00:10.834,(8 -10 5 10 -7 -17 -25 -45)
1969/12/31/18:00:10.834,(-29 51 45 33 79 78 28 32)
1969/12/31/18:00:10.845,(-14 -120 -111 -51 -62 -45 2 18)
1969/12/31/18:00:10.845,(-7 127 115 29 -1 -26 -47 -7)
1969/12/31/18:00:10.857,(-48 -51 -42 -37 -55 -46 -17 -19)
1969/12/31/18:00:10.857,(45 -78 -37 -15 0 4 21 46)
1969/12/31/18:00:10.871,(-47 -83 -53 24 127 94 10 -10)
1969/12/31/18:00:10.871,(-4 30 10 -14 -79 -31 14 48)
1969/12/31/18:00:10.872,(-7 49 72 31 9 6 -11 -58)
1969/12/31/18:00:10.872,(27 -5 -60 -42 -69 -70 -60 -14)
1969/12/31/18:00:10.884,(-9 50 48 16 29 21 13 -38)
1969/12/31/18:00:10.884,(3 -128 -128 -58 5 14 39 44)
1969/12/31/18:00:10.885,(-52 118 97 45 58 31 -18 -39)
1969/12/31/18:00:10.885,(-6 24 4 42 60 41 25 -17)
1969/12/31/18:00:10.895,(94 -72 -98 -43 -97 -37 4 82)
1969/12/31/18:00:10.896,(13 53 31 28 51 4 -11 -43)
1969/12/31/18:00:10.903,(-16 -85 -75 -15 3 16 20 27)
1969/12/31/18:00:10.903,(-38 53 90 20 45 33 8 -11)
1969/12/31/18:00:10.916,(3 3 -18 -38 -128 -99 -43 24)
1969/12/31/18:00:10.916,(-60 -113 -32 -26 -15 -4 -16 -101)
1969/12/31/18:00:10.917,(49 74 18 17 48 38 44 28)
1969/12/31/18:00:10.917,(41 -38 -65 -23 -22 -48 -40 1)
1969/12/31/18:00:10.935,(-49 13 42 19 87 75 4 -15)
1969/12/31/18:00:10.935,(30 48 20 28 -29 -41 -13 -59)
1969/12/31/18:00:10.936,(15 -27 -43 -31 -54 -17 -1 11)
1969/12/31/18:00:10.936,(-51 0 26 19 34 41 4 -38)
1969/12/31/18:00:10.946,(-13 -63 -43 -15 57 52 -1 -25)
1969/12/31/18:00:10.946,(10 -100 -48 -1 -12 8 16 12)
1969/12/31/18:00:10.954,(-5 89 57 -10 -64 -40 14 25)
1969/12/31/18:00:10.954,(32 48 22 7 30 18 22 -32)
1969/12/31/18:00:10.967,(7 43 34 2 -45 -41 -23 -22)
1969/12/31/18:00:10.967,(0 35 39 39 89 57 12 3)
1969/12/31/18:00:10.968,(23 -100 -81 -37 -36 -7 -4 1)
1969/12/31/18:00:10.968,(-40 -96 -53 -2 76 83 53 71)
1969/12/31/18:00:10.986,(2 89 57 41 -17 -66 -20 -9)
1969/12/31/18:00:10.986,(-71 -66 -32 -35 -78 -54 -54 -84)
1969/12/31/18:00:10.988,(15 75 20 -12 14 39 39 31)
1969/12/31/18:00:10.988,(-11 -59 -47 -28 -59 -54 -22 22)
1969/12/31/18:00:10.998,(-46 34 36 11 36 14 -7 -77)
1969/12/31/18:00:10.998,(41 -17 -74 -27 19 9 9 37)
1969/12/31/18:00:11.005,(17 34 98 51 36 -8 -7 -6)
1969/12/31/18:00:11.005,(-6 -59 -4 21 2 39 6 10)
1969/12/31/18:00:11.017,(33 42 -44 -26 -27 3 37 69)
1969/12/31/18:00:11.017,(-4 72 75 11 -27 -43 -28 -41)
1969/12/31/18:00:11.024,(-4 -64 -32 11 66 21 -16 -39)
1969/12/31/18:00:11.024,(11 -42 -44 -13 38 5 -18 -9)
1969/12/31/18:00:11.037,(10 -52 -54 -42 -119 -84 -37 -31)
1969/12/31/18:00:11.037,(-26 72 63 6 -8 9 13 25)
1969/12/31/18:00:11.038,(-22 -19 -23 14 34 -3 1 33)
1969/12/31/18:00:11.039,(-13 -16 -36 -8 9 19 4 -17)
1969/12/31/18:00:11.048,(25 58 65 9 -22 -24 -15 -5)
1969/12/31/18:00:11.048,(-31 -26 -27 -10 36 24 7 -12)
1969/12/31/18:00:11.056,(-37 -65 -48 13 52 8 -47 -67)
1969/12/31/18:00:11.056,(1 98 61 -21 -117 -49 10 21)
1969/12/31/18:00:11.068,(-12 -29 -23 -8 14 2 -5 -29)
1969/12/31/18:00:11.068,(44 31 0 6 16 19 18 22)
1969/12/31/18:00:11.080,(-53 -68 12 9 -7 -8 1 -9)
1969/12/31/18:00:11.080,(6 25 -26 -23 -25 -16 -20 -17)
1969/12/31/18:00:11.088,(37 -5 19 -1 12 28 3 6)
1969/12/31/18:00:11.089,(-10 30 19 16 21 16 8 25)
1969/12/31/18:00:11.090,(13 -39 -38 -15 -10 -20 7 34)
1969/12/31/18:00:11.090,(-83 -29 -27 -22 -14 -6 5 -33)
1969/12/31/18:00:11.099,(-6 92 91 20 -16 15 -12 -3)
1969/12/31/18:00:11.099,(46 -61 -60 6 33 -19 -2 54)
1969/12/31/18:00:11.107,(-33 5 8 -34 -53 -16 -2 21)
1969/12/31/18:00:11.107,(-9 -46 -29 12 49 25 14 22)
1969/12/31/18:00:11.119,(33 47 50 55 7 -2 19 39)
1969/12/31/18:00:11.119,(13 -47 -66 -55 8 19 -10 24)
1969/12/31/18:00:11.125,(-31 -16 11 7 -35 -9 -19 -26)
1969/12/31/18:00:11.125,(22 90 58 62 0 3 19 20)
1969/12/31/18:00:11.139,(-9 -31 -5 -1 18 -12 -5 -23)
1969/12/31/18:00:11.139,(-19 -22 8 9 2 24 13 -12)
1969/12/31/18:00:11.140,(68 46 3 -10 13 4 12 31)
1969/12/31/18:00:11.140,(0 -73 -48 -26 9 -7 -14 -4)
1969/12/31/18:00:11.158,(11 4 -30 -2 51 39 18 -1)
1969/12/31/18:00:11.158,(-28 -56 -49 -20 -21 -14 0 22)
1969/12/31/18:00:11.159,(3 40 4 -17 -73 6 27 -31)
1969/12/31/18:00:11.159,(-16 17 15 -10 -51 -69 -52 -11)
1969/12/31/18:00:11.170,(17 -86 -95 0 58 21 0 -2)
1969/12/31/18:00:11.170,(4 101 92 0 -21 -27 -15 -13)
1969/12/31/18:00:11.176,(33 53 31 28 16 1 13 7)
1969/12/31/18:00:11.176,(34 -19 -10 3 -6 15 0 -10)
1969/12/31/18:00:11.190,(-54 -15 -8 -21 -23 0 -4 -54)
1969/12/31/18:00:11.190,(31 -15 -7 14 39 27 19 54)
1969/12/31/18:00:11.191,(5 -22 -15 -26 -43 -25 -15 6)
1969/12/31/18:00:11.191,(15 24 8 -24 -36 -41 -10 -35)
1969/12/31/18:00:11.210,(-3 -57 -24 -4 21 7 -5 33)
1969/12/31/18:00:11.210,(37 -13 -24 16 -6 4 9 -19)
1969/12/31/18:00:11.210,(-23 127 116 39 15 -14 -11 -32)
1969/12/31/18:00:11.210,(-6 -14 16 17 26 19 4 -15)
1969/12/31/18:00:11.221,(-5 -37 -28 -5 -6 -2 -4 -7)
1969/12/31/18:00:11.221,(-47 -3 -10 -29 -4 5 -24 -63)
1969/12/31/18:00:11.234,(12 -36 -15 17 -7 -23 -3 -1)
1969/12/31/18:00:11.234,(19 -27 -31 -23 -3 39 5 13)
1969/12/31/18:00:11.241,(-2 -1 4 2 6 -12 26 10)
1969/12/31/18:00:11.241,(0 75 77 16 -17 0 -27 -18)
1969/12/31/18:00:11.242,(-30 -49 -82 -35 6 18 -4 -42)
1969/12/31/18:00:11.242,(6 116 97 39 -18 -13 14 26)
1969/12/31/18:00:11.260,(21 -3 -17 8 15 -19 -6 14)
1969/12/31/18:00:11.260,(22 -86 -46 -14 -45 -17 -19 42)
1969/12/31/18:00:11.261,(6 -71 -69 -38 -17 -19 -16 -19)
1969/12/31/18:00:11.261,(-30 76 47 8 52 0 -18 -49)
1969/12/31/18:00:11.272,(-1 8 1 -13 -59 -23 -22 -11)
1969/12/31/18:00:11.272,(-1 -43 -29 8 51 26 29 17)
1969/12/31/18:00:11.278,(-5 -49 -30 -4 -22 -18 -19 10)
1969/12/31/18:00:11.278,(71 68 1 8 3 10 8 42)
1969/12/31/18:00:11.292,(-33 -34 17 -3 3 5 4 -3)
1969/12/31/18:00:11.292,(-30 43 58 33 34 14 11 9)
1969/12/31/18:00:11.293,(24 1 16 23 29 27 7 22)
1969/12/31/18:00:11.293,(18 -60 -68 -51 -60 -25 -2 30)
1969/12/31/18:00:11.311,(-16 55 63 9 -21 -28 -26 -14)
1969/12/31/18:00:11.311,(22 10 -12 16 65 22 2 -22)
1969/12/31/18:00:11.312,(40 -14 -39 -1 -34 -1 26 53)
1969/12/31/18:00:11.312,(-17 26 81 15 30 9 19 35)
1969/12/31/18:00:11.323,(19 9 -26 -5 47 45 2 -12)
1969/12/31/18:00:11.323,(-36 17 24 -15 -77 -63 -10 -32)
1969/12/31/18:00:11.335,(-13 -18 -8 9 -13 -6 -42 -27)
1969/12/31/18:00:11.335,(26 -11 -18 -5 0 -5 7 1)
1969/12/31/18:00:11.343,(-51 -59 -51 -28 -19 3 -1 -13)
1969/12/31/18:00:11.343,(26 7 -10 12 40 23 30 35)
1969/12/31/18:00:11.344,(-7 93 87 36 53 24 3 -13)
1969/12/31/18:00:11.344,(-19 -70 -10 10 -23 4 18 18)
1969/12/31/18:00:11.362,(40 56 5 -5 -16 -20 -12 40)
1969/12/31/18:00:11.362,(-20 37 44 21 17 5 -10 -2)
1969/12/31/18:00:11.363,(-21 -71 -53 -22 -18 9 21 5)
1969/12/31/18:00:11.363,(56 9 -12 11 33 9 -2 29)
1969/12/31/18:00:11.374,(-5 -65 -66 -46 -35 0 23 9)
1969/12/31/18:00:11.374,(10 66 50 16 -28 -14 11 5)
1969/12/31/18:00:11.381,(12 9 2 -1 4 19 8 -1)
1969/12/31/18:00:11.381,(3 -18 14 17 34 7 38 41)
1969/12/31/18:00:11.394,(-13 27 25 30 11 7 -49 -19)
1969/12/31/18:00:11.394,(72 -79 -67 -27 -9 1 39 49)
1969/12/31/18:00:11.395,(-104 2 -23 -64 -76 -50 -85 -113)
1969/12/31/18:00:11.395,(-17 57 41 35 28 17 6 4)
1969/12/31/18:00:11.413,(20 -99 -58 -17 -2 8 39 10)
1969/12/31/18:00:11.413,(0 30 4 6 10 -5 -26 -40)
1969/12/31/18:00:11.414,(18 -18 28 30 43 9 9 21)
1969/12/31/18:00:11.414,(-61 -50 -67 -31 -25 -8 -14 -57)
1969/12/31/18:00:11.424,(-7 66 73 38 51 30 4 -37)
1969/12/31/18:00:11.424,(38 -100 -91 -45 -63 -25 -8 35)
1969/12/31/18:00:11.432,(14 83 71 32 33 6 29 4)
1969/12/31/18:00:11.432,(-20 -41 -67 5 32 11 -35 -42)
1969/12/31/18:00:11.445,(-49 -59 15 -16 -25 -22 -19 -6)
1969/12/31/18:00:11.445,(-33 -57 -83 -43 -88 -69 -31 -9)
1969/12/31/18:00:11.447,(35 40 45 -22 -53 -23 19 54)
1969/12/31/18:00:11.447,(14 96 98 61 59 19 -23 -19)
1969/12/31/18:00:11.470,(-8 -22 -50 -15 41 42 54 17)
1969/12/31/18:00:11.470,(59 41 5 3 -9 -4 -33 15)
1969/12/31/18:00:11.471,(-112 -128 -80 -32 -1 -33 -60 -112)
1969/12/31/18:00:11.471,(30 -19 -34 -26 -12 -10 -8 -16)
1969/12/31/18:00:11.475,(15 61 63 31 9 4 38 27)
1969/12/31/18:00:11.475,(-82 -27 9 -10 -7 11 -33 -85)
1969/12/31/18:00:11.483,(47 -17 -37 -2 22 17 38 71)
1969/12/31/18:00:11.483,(-12 -77 -40 -11 -14 -9 -17 -9)
1969/12/31/18:00:11.496,(68 108 92 45 0 -1 6 29)
1969/12/31/18:00:11.496,(-28 -60 -6 1 18 20 3 -17)
1969/12/31/18:00:11.497,(15 33 30 7 -6 -21 6 5)
1969/12/31/18:00:11.497,(-10 -26 -43 -15 -9 -5 9 2)
1969/12/31/18:00:11.515,(9 -45 -13 2 8 42 15 43)
1969/12/31/18:00:11.515,(-68 77 51 22 5 -6 -8 -75)
1969/12/31/18:00:11.516,(33 -9 -25 13 62 27 -2 -14)
1969/12/31/18:00:11.516,(-64 -35 -21 -72 -128 -71 -6 -40)
1969/12/31/18:00:11.526,(0 -7 -26 -13 1 -31 -11 -13)
1969/12/31/18:00:11.526,(-35 -94 -58 0 65 49 12 -23)
1969/12/31/18:00:11.534,(-22 27 -18 -8 3 -2 9 28)
1969/12/31/18:00:11.534,(42 116 121 65 38 20 37 24)
1969/12/31/18:00:11.547,(24 40 -7 11 -12 -10 -29 -10)
1969/12/31/18:00:11.547,(38 -49 -27 -11 12 17 4 43)
1969/12/31/18:00:11.548,(-3 98 104 56 30 21 14 5)
1969/12/31/18:00:11.548,(-53 -92 -76 -39 -23 -26 -41 -39)
1969/12/31/18:00:11.566,(13 -15 -51 3 36 57 38 47)
1969/12/31/18:00:11.566,(-53 71 101 -15 -86 -59 -32 -34)
1969/12/31/18:00:11.567,(29 -27 -28 -9 30 -1 -4 23)
1969/12/31/18:00:11.567,(-41 -77 -65 -35 -14 0 -9 -36)
1969/12/31/18:00:11.577,(-7 37 13 3 -7 -1 -1 -27)
1969/12/31/18:00:11.577,(8 21 44 31 24 4 15 22)
1969/12/31/18:00:11.585,(61 -45 -51 -14 -9 -11 17 88)
1969/12/31/18:00:11.585,(-17 100 104 55 22 4 -18 -28)
1969/12/31/18:00:11.598,(3 -91 -69 -9 64 58 39 26)
1969/12/31/18:00:11.598,(-38 -21 -44 -27 -69 -55 3 -8)
1969/12/31/18:00:11.599,(15 0 2 -50 -54 -38 -5 -3)
1969/12/31/18:00:11.599,(117 38 -10 20 68 34 39 102)
1969/12/31/18:00:11.617,(-9 90 53 4 -18 -42 -39 -50)
1969/12/31/18:00:11.617,(16 54 82 58 68 54 30 26)
1969/12/31/18:00:11.618,(29 -31 -12 15 26 35 4 22)
1969/12/31/18:00:11.618,(-63 -102 -68 -48 -85 -43 -20 -59)
1969/12/31/18:00:11.628,(-6 -17 -1 16 31 -2 -26 -30)
1969/12/31/18:00:11.628,(11 -22 -61 -74 -66 -23 -8 7)
1969/12/31/18:00:11.636,(9 -50 -46 -19 -22 -13 12 1)
1969/12/31/18:00:11.636,(-15 107 90 42 43 23 -3 -6)
1969/12/31/18:00:11.649,(23 -24 6 9 -2 -13 2 57)
1969/12/31/18:00:11.649,(-32 -3 1 27 27 1 -9 -56)
1969/12/31/18:00:11.650,(-22 -4 7 -10 -31 -20 -39 -44)
1969/12/31/18:00:11.650,(22 -77 -85 -34 0 18 20 36)
1969/12/31/18:00:11.667,(-40 30 52 14 5 -22 -12 -20)
1969/12/31/18:00:11.667,(1 -8 -21 -15 -36 5 19 29)
1969/12/31/18:00:11.674,(10 31 7 17 64 14 -10 -6)
1969/12/31/18:00:11.674,(35 -17 -3 -11 -57 -2 29 65)
1969/12/31/18:00:11.679,(-69 -78 -48 -39 -69 -39 -63 -84)
1969/12/31/18:00:11.679,(44 -23 -43 0 69 26 7 37)
1969/12/31/18:00:11.692,(0 109 90 51 38 29 19 -25)
1969/12/31/18:00:11.692,(-68 -79 -9 -7 10 -18 -30 -63)
1969/12/31/18:00:11.700,(23 -3 -8 -20 -43 -23 -7 -2)
1969/12/31/18:00:11.700,(-4 4 11 1 3 4 -10 -11)
1969/12/31/18:00:11.701,(21 -18 -29 -9 -11 -11 -2 9)
1969/12/31/18:00:11.701,(25 9 -5 4 16 11 4 14)
1969/12/31/18:00:11.718,(21 9 13 -6 -9 26 23 33)
1969/12/31/18:00:11.718,(5 13 -5 -2 12 -13 -27 -42)
1969/12/31/18:00:11.720,(14 -12 -6 13 23 45 -14 13)
1969/12/31/18:00:11.720,(20 35 6 -7 -44 -71 17 18)
1969/12/31/18:00:11.730,(-13 -42 -16 -6 8 -5 7 3)
1969/12/31/18:00:11.730,(51 43 11 -19 -21 -7 -8 32)
1969/12/31/18:00:11.738,(-32 -10 0 4 2 -2 -10 -18)
1969/12/31/18:00:11.738,(-23 -46 -31 33 79 46 2 6)
1969/12/31/18:00:11.751,(22 38 -1 8 1 -20 0 -1)
1969/12/31/18:00:11.751,(-32 13 26 18 15 9 6 -17)
1969/12/31/18:00:11.752,(-26 -27 1 -19 -37 -11 -3 -20)
1969/12/31/18:00:11.752,(-8 -1 -5 -13 -2 2 -3 26)
1969/12/31/18:00:11.769,(11 -33 -43 -25 -19 -4 14 37)
1969/12/31/18:00:11.769,(-22 -5 -8 -3 0 -64 -21 -38)
1969/12/31/18:00:11.771,(3 8 2 -3 7 88 29 5)
1969/12/31/18:00:11.771,(39 21 6 0 7 -64 -21 50)
1969/12/31/18:00:11.781,(-85 -30 -10 -16 -19 -8 -50 -104)
1969/12/31/18:00:11.781,(52 30 12 -34 -45 -54 56 45)
1969/12/31/18:00:11.789,(0 -36 -13 33 45 3 -51 32)
1969/12/31/18:00:11.789,(-3 0 6 0 -31 44 25 -29)
1969/12/31/18:00:11.802,(28 31 26 8 3 -13 -25 17)
1969/12/31/18:00:11.802,(54 35 3 -4 6 24 -14 29)
1969/12/31/18:00:11.803,(-100 -74 -35 -1 -14 -80 -34 -104)
1969/12/31/18:00:11.803,(-49 -14 2 10 30 58 6 -10)
1969/12/31/18:00:11.820,(38 15 7 1 -8 -15 9 17)
1969/12/31/18:00:11.820,(27 -6 -7 -6 -2 55 32 53)
1969/12/31/18:00:11.822,(-6 40 12 -14 -12 2 12 33)
1969/12/31/18:00:11.822,(-30 -28 -6 -12 -9 -30 -7 -17)
1969/12/31/18:00:11.832,(46 19 4 -9 -14 -4 9 -18)
1969/12/31/18:00:11.832,(-3 -10 -3 13 23 3 3 26)
1969/12/31/18:00:11.840,(37 30 9 4 4 35 23 52)
1969/12/31/18:00:11.840,(22 -14 -1 -3 -2 2 -3 21)
1969/12/31/18:00:11.853,(-1 0 8 2 -2 8 3 12)
1969/12/31/18:00:11.853,(-32 -26 0 16 14 0 12 -2)
1969/12/31/18:00:11.854,(96 37 9 7 -7 -16 18 34)
1969/12/31/18:00:11.854,(62 55 14 1 2 6 5 28)
1969/12/31/18:00:11.878,(-104 -68 -27 -14 -13 1 -6 -64)
1969/12/31/18:00:11.878,(-17 -34 -24 -6 -6 2 -10 -63)
1969/12/31/18:00:11.879,(-26 -25 -9 -16 -19 12 -36 -17)
1969/12/31/18:00:11.879,(17 13 9 1 -1 -19 11 -13)
1969/12/31/18:00:11.883,(32 27 18 12 9 19 36 45)
1969/12/31/18:00:11.883,(-40 14 14 23 20 21 8 -23)
1969/12/31/18:00:11.891,(4 4 -15 -11 -15 -40 1 7)
1969/12/31/18:00:11.891,(-59 -17 -13 -16 -4 -2 -43 -82)
1969/12/31/18:00:11.903,(28 -6 -2 0 0 3 10 24)
1969/12/31/18:00:11.903,(-69 -18 -1 4 1 14 -5 -12)
1969/12/31/18:00:11.909,(91 43 19 7 5 -1 19 53)
1969/12/31/18:00:11.909,(-1 12 3 7 4 11 3 23)
1969/12/31/18:00:11.923,(-10 -13 -20 -17 -14 -37 -22 -32)
1969/12/31/18:00:11.923,(-7 2 11 11 14 13 -2 4)
1969/12/31/18:00:11.924,(-40 -33 -23 -20 -14 -17 4 -37)
1969/12/31/18:00:11.924,(40 16 13 6 5 5 6 45)
1969/12/31/18:00:11.942,(3 9 4 9 3 12 -2 17)
1969/12/31/18:00:11.942,(52 26 15 11 3 -69 -16 7)
1969/12/31/18:00:11.943,(-46 -21 -6 -1 -3 22 10 10)
1969/12/31/18:00:11.943,(-21 10 -4 -10 3 43 49 20)
1969/12/31/18:00:11.954,(-23 -31 -22 -17 -11 -26 -27 -7)
1969/12/31/18:00:11.954,(57 12 5 6 2 13 6 83)
1969/12/31/18:00:11.960,(-73 -38 -7 -8 -17 -38 -24 -56)
1969/12/31/18:00:11.960,(24 19 0 5 -2 -7 -15 -9)
1969/12/31/18:00:11.973,(-27 -9 7 3 5 11 20 13)
1969/12/31/18:00:11.973,(1 -2 -12 1 0 8 -25 -24)
1969/12/31/18:00:11.975,(-4 -8 -4 -3 -2 -3 11 -13)
1969/12/31/18:00:11.975,(7 -6 -8 -15 -7 0 -7 -4)
1969/12/31/18:00:11.993,(26 26 14 12 8 2 10 12)
1969/12/31/18:00:11.993,(-13 -21 -14 -12 -3 7 -10 -10)
1969/12/31/18:00:11.994,(-1 3 3 1 1 2 4 -9)
1969/12/31/18:00:11.994,(-6 -11 -2 -3 -4 -13 -12 -7)
1969/12/31/18:00:12.005,(11 16 4 4 2 -6 6 -7)
1969/12/31/18:00:12.005,(-8 -3 -5 -1 2 12 -13 -14)
1969/12/31/18:00:12.011,(8 15 15 -1 -2 -1 5 -10)
1969/12/31/18:00:12.011,(42 11 6 14 8 0 1 21)
1969/12/31/18:00:12.024,(-26 -13 -2 -2 1 8 9 -3)
1969/12/31/18:00:12.024,(-5 -12 -22 -20 -9 5 3 -6)
1969/12/31/18:00:12.026,(16 44 37 23 8 -7 -6 0)
1969/12/31/18:00:12.026,(3 -20 10 12 4 2 0 -2)
1969/12/31/18:00:12.044,(18 4 -17 -4 -3 -1 -5 7)
1969/12/31/18:00:12.044,(2 18 32 16 11 13 30 6)
1969/12/31/18:00:12.046,(5 -46 -38 -23 -10 -8 -14 7)
1969/12/31/18:00:12.046,(-3 13 -8 -10 0 -2 -12 -15)
1969/12/31/18:00:12.056,(-20 -2 -1 0 -1 -3 -7 -9)
1969/12/31/18:00:12.056,(-7 43 64 31 9 3 5 -4)
1969/12/31/18:00:12.062,(11 3 2 -2 -2 5 1 0)
1969/12/31/18:00:12.062,(-13 -44 -55 -20 -12 -11 -13 -1)
1969/12/31/18:00:12.075,(8 -24 -23 -14 -4 -3 3 5)
1969/12/31/18:00:12.075,(4 19 0 -17 -10 -8 -12 -1)
1969/12/31/18:00:12.077,(-14 16 48 36 16 8 20 -3)
1969/12/31/18:00:12.077,(6 60 45 23 5 0 -25 -23)
1969/12/31/18:00:12.095,(5 -26 -31 -23 -10 -3 14 15)
1969/12/31/18:00:12.095,(0 16 31 19 4 -4 -16 -8)
1969/12/31/18:00:12.096,(-9 -55 -53 -22 -9 -4 -9 -14)
1969/12/31/18:00:12.096,(-4 -51 -48 -21 -7 -1 15 11)
1969/12/31/18:00:12.107,(10 62 50 20 4 1 -20 -8)
1969/12/31/18:00:12.107,(7 -5 -6 -6 0 10 42 23)
1969/12/31/18:00:12.113,(-10 64 61 30 17 12 -40 -16)
1969/12/31/18:00:12.113,(-8 -17 -16 -16 -15 -14 -6 -5)
1969/12/31/18:00:12.126,(-13 -36 -25 -16 -8 -5 -11 -14)
1969/12/31/18:00:12.126,(-4 -28 -36 -7 -4 2 -1 -5)
1969/12/31/18:00:12.128,(7 -33 -12 -8 -2 8 31 18)
1969/12/31/18:00:12.128,(6 88 58 27 12 4 -26 -13)
1969/12/31/18:00:12.146,(13 27 20 15 8 10 1 10)
1969/12/31/18:00:12.146,(-3 -43 -23 -14 -6 2 -10 -4)
1969/12/31/18:00:12.147,(-31 -47 -50 -29 -14 -4 5 -4)
1969/12/31/18:00:12.147,(-4 15 21 10 2 1 -6 -6)
1969/12/31/18:00:12.158,(16 -41 -37 -20 -13 -10 7 13)
1969/12/31/18:00:12.158,(-28 -39 -13 -6 -3 -10 14 -8)
1969/12/31/18:00:12.170,(33 66 22 7 -5 -26 -13 7)
1969/12/31/18:00:12.170,(12 -47 -21 2 7 -9 29 27)
1969/12/31/18:00:12.177,(2 91 79 37 15 -13 -6 -6)
1969/12/31/18:00:12.177,(6 -23 -3 -4 6 2 9 8)
1969/12/31/18:00:12.179,(-7 -14 -17 -15 1 1 -6 -11)
1969/12/31/18:00:12.179,(-18 11 0 -13 -2 13 15 0)
1969/12/31/18:00:12.197,(2 39 35 10 4 14 0 -12)
1969/12/31/18:00:12.197,(-11 -39 -13 -8 -5 10 -14 -9)
1969/12/31/18:00:12.198,(2 77 21 -4 -8 3 -9 -13)
1969/12/31/18:00:12.198,(18 4 27 18 3 14 8 2)
1969/12/31/18:00:12.208,(-16 -13 7 16 6 11 1 2)
1969/12/31/18:00:12.208,(17 -37 -73 -34 -14 2 -8 5)
1969/12/31/18:00:12.216,(-2 53 63 31 5 -7 0 -2)
1969/12/31/18:00:12.216,(-2 -24 -6 -2 -1 -6 2 -1)
1969/12/31/18:00:12.228,(-2 -22 -71 -48 -25 -16 -6 0)
1969/12/31/18:00:12.228,(11 52 -3 15 7 -6 -10 -5)
1969/12/31/18:00:12.230,(14 -41 -34 -3 1 -3 13 7)
1969/12/31/18:00:12.230,(-4 -1 -5 -2 0 -3 2 3)
1969/12/31/18:00:12.248,(-10 -13 9 5 2 -8 -10 -7)
1969/12/31/18:00:12.248,(0 11 -4 -11 -2 0 6 0)
1969/12/31/18:00:12.249,(-6 -48 -74 -44 -15 -8 -16 -1)
1969/12/31/18:00:12.249,(-11 9 25 13 6 4 -7 -10)
1969/12/31/18:00:12.267,(-8 -39 -25 -24 -6 8 3 2)
1969/12/31/18:00:12.267,(0 37 30 21 3 6 -11 -10)
1969/12/31/18:00:12.268,(-8 -4 9 11 4 11 0 -7)
1969/12/31/18:00:12.268,(-7 -18 -8 -3 -4 8 -8 -11)
1969/12/31/18:00:12.280,(-12 -8 17 4 -3 3 -15 -17)
1969/12/31/18:00:12.280,(-20 -13 -1 -8 -7 0 -2 -13)
1969/12/31/18:00:12.281,(-5 7 17 12 -5 -5 -25 -17)
1969/12/31/18:00:12.282,(5 4 -15 -12 -15 3 -6 -5)
1969/12/31/18:00:12.299,(16 -20 -1 9 -12 7 11 22)
1969/12/31/18:00:12.299,(58 62 15 23 0 -29 25 46)
1969/12/31/18:00:12.300,(27 -76 -53 2 -6 -48 38 52)
1969/12/31/18:00:12.300,(42 -16 -13 18 20 -42 37 55)
1969/12/31/18:00:12.310,(46 4 3 23 25 -67 46 60)
1969/12/31/18:00:12.310,(-7 -22 -2 -4 26 -62 13 16)
1969/12/31/18:00:12.318,(-30 15 14 -20 31 -19 16 -8)
1969/12/31/18:00:12.318,(-46 7 10 -25 15 -1 -17 -43)
1969/12/31/18:00:12.330,(-45 28 14 -17 6 35 -21 -56)
1969/12/31/18:00:12.330,(-30 6 16 -3 -7 41 -20 -38)
1969/12/31/18:00:12.332,(-8 18 15 -1 -10 45 -5 -14)
1969/12/31/18:00:12.332,(-9 -11 4 0 -17 24 -22 -21)
1969/12/31/18:00:12.350,(-2 -2 -9 -1 -13 19 -10 -6)
1969/12/31/18:00:12.350,(-2 -5 -1 -1 -15 11 -16 -8)
1969/12/31/18:00:12.351,(12 18 10 5 -6 13 -7 -2)
1969/12/31/18:00:12.351,(-12 -37 -21 -15 -19 7 -13 -10)
1969/12/31/18:00:12.361,(-4 12 -6 -10 -7 6 -10 -4)
1969/12/31/18:00:12.361,(3 30 3 7 1 16 -10 -9)
1969/12/31/18:00:12.368,(-7 -24 0 -4 -10 10 -2 -3)
1969/12/31/18:00:12.368,(9 14 5 10 -3 0 -2 7)
1969/12/31/18:00:12.382,(0 -17 -10 2 -1 5 -3 -4)
1969/12/31/18:00:12.382,(-3 -13 -8 2 0 5 -4 -1)
1969/12/31/18:00:12.383,(1 -8 -9 -1 -4 3 3 7)
1969/12/31/18:00:12.384,(-4 -2 -15 -15 -1 3 -7 -11)
1969/12/31/18:00:12.401,(-21 1 9 -3 7 22 -10 -21)
1969/12/31/18:00:12.402,(-1 -17 1 -1 -6 11 -9 -7)
1969/12/31/18:00:12.402,(16 -4 -7 4 -6 -7 6 10)
1969/12/31/18:00:12.402,(20 -6 -1 8 -6 -25 12 24)
1969/12/31/18:00:12.412,(8 -6 -10 5 2 -24 7 16)
1969/12/31/18:00:12.412,(0 -7 0 -4 6 -13 2 2)
1969/12/31/18:00:12.419,(-9 1 3 -3 3 -10 -2 -8)
1969/12/31/18:00:12.419,(3 21 13 6 6 -1 2 0)
1969/12/31/18:00:12.439,(3 -4 -2 1 0 -3 2 1)
1969/12/31/18:00:12.439,(0 -2 -6 -6 -4 -7 3 4)
1969/12/31/18:00:12.441,(-4 -9 -6 -4 1 -3 -1 -2)
1969/12/31/18:00:12.441,(1 7 2 -2 3 5 1 -2)
1969/12/31/18:00:12.452,(3 2 6 5 1 0 3 3)
1969/12/31/18:00:12.452,(-3 -10 -4 -2 -3 -5 -1 1)
1969/12/31/18:00:12.453,(0 -1 -6 -2 -1 -6 -1 0)
1969/12/31/18:00:12.453,(2 -1 -1 -1 -3 -10 -1 3)
1969/12/31/18:00:12.463,(-1 -10 -9 -4 0 -4 8 7)
1969/12/31/18:00:12.463,(-3 9 -7 -4 3 -1 -4 -5)
1969/12/31/18:00:12.476,(0 2 6 8 5 3 1 -2)
1969/12/31/18:00:12.476,(0 2 0 1 3 0 2 2)
1969/12/31/18:00:12.483,(-3 -5 -2 0 -1 -3 -2 -7)
1969/12/31/18:00:12.483,(-6 -9 -5 -8 -3 2 1 -2)
1969/12/31/18:00:12.485,(-2 5 2 0 -1 -1 -5 -5)
1969/12/31/18:00:12.485,(-2 -1 -5 -6 -2 1 1 0)
1969/12/31/18:00:12.510,(-1 -1 3 4 3 6 -3 -1)
1969/12/31/18:00:12.510,(-2 -3 2 0 -1 3 -1 -3)
1969/12/31/18:00:12.511,(0 0 -1 -4 -2 0 -3 -5)
1969/12/31/18:00:12.511,(1 -3 -3 -3 -1 2 0 -4)
1969/12/31/18:00:12.514,(-1 1 0 1 -1 -3 -3 1)
1969/12/31/18:00:12.514,(-1 -2 3 3 0 -2 -2 -2)
1969/12/31/18:00:12.535,(0 0 -10 -11 -6 -3 -4 -3)
1969/12/31/18:00:12.535,(3 6 1 1 2 1 1 2)
1969/12/31/18:00:12.536,(-4 -6 -6 -2 -2 -3 1 0)
1969/12/31/18:00:12.536,(-3 -2 -1 -3 -4 -5 -2 -2)
1969/12/31/18:00:12.537,(0 -4 -2 -1 1 3 3 4)
1969/12/31/18:00:12.537,(2 -1 1 1 -2 -1 2 2)
1969/12/31/18:00:12.554,(1 6 0 1 -1 0 1 0)
1969/12/31/18:00:12.554,(-7 -12 -10 -7 -4 0 -3 -4)
1969/12/31/18:00:12.555,(-2 -4 -2 0 1 1 0 0)
1969/12/31/18:00:12.555,(0 7 2 -2 -3 -5 -6 -3)
1969/12/31/18:00:12.572,(-2 -8 -3 -1 -1 -2 -4 -3)
1969/12/31/18:00:12.572,(-2 1 5 0 1 1 1 -2)
1969/12/31/18:00:12.574,(-4 -2 -6 -6 -5 -4 -3 -3)
1969/12/31/18:00:12.574,(-5 -7 -5 -3 -1 0 4 4)
1969/12/31/18:00:12.585,(-1 3 2 -1 -1 -2 -7 -4)
1969/12/31/18:00:12.585,(0 1 1 3 0 2 -2 -1)
1969/12/31/18:00:12.597,(0 1 3 1 1 -1 -1 -1)
1969/12/31/18:00:12.597,(-3 -6 -1 -2 -1 -1 -4 -3)
1969/12/31/18:00:12.604,(1 2 4 3 1 -2 -1 1)
1969/12/31/18:00:12.604,(-1 1 -1 -1 0 4 3 2)
1969/12/31/18:00:12.617,(-2 -3 -2 -3 -1 1 0 -1)
1969/12/31/18:00:12.617,(-1 0 1 2 -1 1 -1 0)
1969/12/31/18:00:12.623,(1 3 7 2 2 0 0 2)
1969/12/31/18:00:12.623,(3 2 2 1 -1 0 -2 -1)
1969/12/31/18:00:12.636,(-3 -3 -5 -2 -1 0 0 -3)
1969/12/31/18:00:12.636,(-2 -7 -5 -1 -1 0 -1 -3)
1969/12/31/18:00:12.642,(0 1 -2 -3 -2 -1 -1 -2)
1969/12/31/18:00:12.642,(0 -3 -5 -1 -2 -1 0 0)
1969/12/31/18:00:12.656,(-2 -1 3 2 1 -1 -2 1)
1969/12/31/18:00:12.656,(-2 -2 -6 -5 -3 -3 -2 -4)
1969/12/31/18:00:12.657,(-2 0 -1 -1 -2 -1 0 -1)
1969/12/31/18:00:12.657,(0 3 2 2 0 -1 -3 0)
1969/12/31/18:00:12.658,(1 -2 8 4 0 0 -1 0)
1969/12/31/18:00:12.658,(1 0 0 3 0 1 -1 0)
1969/12/31/18:00:12.667,(0 4 0 -1 0 2 0 1)
1969/12/31/18:00:12.667,(-1 -1 -2 0 -2 -1 -1 -2)
1969/12/31/18:00:12.679,(1 -1 -3 0 0 -2 -1 -1)
1969/12/31/18:00:12.679,(0 3 5 -2 -1 -2 1 1)
1969/12/31/18:00:12.700,(-1 -7 -6 -5 -2 -2 -1 -3)
1969/12/31/18:00:12.700,(2 7 4 3 -1 -4 -3 -1)
1969/12/31/18:00:12.702,(-2 -3 1 1 -2 0 1 -2)
1969/12/31/18:00:12.702,(-3 -2 -2 0 -1 0 -1 -2)
1969/12/31/18:00:12.707,(-3 0 -1 1 1 0 -1 -1)
1969/12/31/18:00:12.707,(-4 -4 -4 -4 -1 2 -3 -2)
1969/12/31/18:00:12.708,(-4 -2 -4 -3 -2 3 -2 -3)
1969/12/31/18:00:12.708,(-2 -1 -1 -4 0 1 -3 -3)
1969/12/31/18:00:12.732,(-3 -1 0 2 -2 4 -2 -3)
1969/12/31/18:00:12.732,(-3 0 3 1 2 3 -2 -3)
1969/12/31/18:00:12.741,(-1 8 2 -3 1 8 -3 -5)
1969/12/31/18:00:12.741,(-7 -2 7 2 -1 8 -5 -9)
1969/12/31/18:00:12.741,(-1 1 -1 -2 -5 7 -3 -3)
1969/12/31/18:00:12.741,(1 -6 -7 -2 -6 1 -4 -1)
1969/12/31/18:00:12.750,(6 -2 -3 0 -5 -6 0 6)
1969/12/31/18:00:12.750,(6 -5 -10 -2 -2 -9 1 7)
1969/12/31/18:00:12.758,(6 -3 -2 5 3 -9 5 8)
1969/12/31/18:00:12.758,(0 -4 -4 2 2 -9 4 3)
1969/12/31/18:00:12.759,(-1 -3 -2 0 1 -9 0 0)
1969/12/31/18:00:12.759,(3 0 -1 3 5 -3 5 5)
1969/12/31/18:00:12.777,(0 0 -1 1 1 -7 1 -1)
1969/12/31/18:00:12.777,(1 -2 -4 -5 0 -6 1 2)
1969/12/31/18:00:12.779,(1 -3 0 0 0 -6 3 3)
1969/12/31/18:00:12.779,(1 -5 -5 -3 1 -8 2 -1)
1969/12/31/18:00:12.789,(1 -1 4 1 4 -7 2 0)
1969/12/31/18:00:12.789,(1 6 1 -1 2 -6 2 0)
1969/12/31/18:00:12.791,(-3 -4 -4 -4 0 -7 1 0)
1969/12/31/18:00:12.791,(0 6 2 1 1 -4 0 0)
1969/12/31/18:00:12.809,(0 -3 0 1 2 -1 2 0)
1969/12/31/18:00:12.809,(-3 -2 -2 -6 -5 -4 0 -2)
1969/12/31/18:00:12.810,(-4 -5 0 -1 -1 0 2 0)
1969/12/31/18:00:12.810,(-1 7 0 0 -1 -1 1 -2)
1969/12/31/18:00:12.834,(-3 1 1 -5 -2 0 -1 -4)
1969/12/31/18:00:12.834,(-4 -6 -1 -1 -2 1 -1 -3)
1969/12/31/18:00:12.835,(-1 2 -1 -2 -1 1 -1 -1)
1969/12/31/18:00:12.835,(-4 0 3 2 0 3 -2 -3)
1969/12/31/18:00:12.840,(-5 0 -3 -6 -3 6 -4 -6)
1969/12/31/18:00:12.840,(-5 1 2 -1 0 8 -4 -6)
1969/12/31/18:00:12.846,(-5 0 -4 -2 -4 7 -5 -6)
1969/12/31/18:00:12.846,(-2 2 1 -3 -3 5 -4 -5)
1969/12/31/18:00:12.860,(-2 -3 -4 0 -3 6 0 -1)
1969/12/31/18:00:12.860,(-1 -3 3 1 -1 5 -3 -2)
1969/12/31/18:00:12.861,(-2 2 -2 -3 -3 5 -5 -6)
1969/12/31/18:00:12.861,(1 -1 2 0 -4 3 -4 -2)
1969/12/31/18:00:12.885,(-1 -1 -1 1 -5 0 -4 -1)
1969/12/31/18:00:12.885,(1 -3 -7 -2 -4 1 -1 1)
1969/12/31/18:00:12.893,(1 -3 -2 3 -2 -2 -1 1)
1969/12/31/18:00:12.893,(1 3 5 5 1 -2 -1 2)
1969/12/31/18:00:12.894,(1 -2 -1 -1 1 -5 0 3)
1969/12/31/18:00:12.894,(2 -1 2 0 0 -4 0 0)
1969/12/31/18:00:12.896,(0 -2 -4 -1 1 -2 3 2)
1969/12/31/18:00:12.896,(-3 -7 -5 -3 1 -2 1 -1)
1969/12/31/18:00:12.923,(-1 6 3 -2 -3 -3 -1 0)
1969/12/31/18:00:12.923,(-1 -1 0 0 -1 -3 -1 0)
1969/12/31/18:00:12.924,(-1 0 2 0 -1 -2 0 0)
1969/12/31/18:00:12.924,(-1 -3 -3 -3 -1 -1 -1 -2)
1969/12/31/18:00:12.929,(-3 -3 -3 -2 1 1 -2 -2)
1969/12/31/18:00:12.929,(0 -1 -3 -1 0 0 -1 -1)
1969/12/31/18:00:12.931,(0 2 4 4 1 0 0 0)
1969/12/31/18:00:12.931,(0 0 0 -1 -2 -2 0 -2)
1969/12/31/18:00:12.942,(1 1 1 -1 -2 -2 0 0)
1969/12/31/18:00:12.942,(-1 -1 0 1 1 0 2 -1)
1969/12/31/18:00:12.954,(-1 -6 -4 -5 -2 -2 -1 -1)
1969/12/31/18:00:12.954,(-3 6 3 1 0 -1 -1 -1)
1969/12/31/18:00:12.954,(-2 2 1 -4 -2 -1 -2 -2)
1969/12/31/18:00:12.955,(0 -1 6 8 2 1 -2 1)
1969/12/31/18:00:12.960,(0 2 -3 2 -2 1 0 -2)
1969/12/31/18:00:12.960,(-2 -5 -4 -4 -3 0 0 -3)
1969/12/31/18:00:12.973,(-2 -4 -9 -8 -4 -1 -1 -3)
1969/12/31/18:00:12.973,(0 1 -6 -9 -5 -3 -2 1)
1969/12/31/18:00:12.973,(0 2 0 0 3 -2 0 1)
1969/12/31/18:00:12.973,(0 1 9 3 2 -1 1 -1)
1969/12/31/18:00:12.993,(0 -1 9 9 2 1 2 0)
1969/12/31/18:00:12.993,(-2 -5 -13 -11 -4 -3 0 -1)
1969/12/31/18:00:12.994,(-2 -3 -16 -7 -6 -3 -1 -1)
1969/12/31/18:00:12.994,(-3 -7 -6 -5 -2 -1 -3 -2)
1969/12/31/18:00:13.005,(8 17 40 32 9 0 -1 0)
1969/12/31/18:00:13.005,(-1 -4 -11 -5 2 3 -2 -2)
1969/12/31/18:00:13.006,(-1 -6 -4 -12 -5 2 2 0)
1969/12/31/18:00:13.006,(-4 -6 -27 -10 -6 -9 -8 -4)
1969/12/31/18:00:13.024,(3 3 9 -2 25 18 5 2)
1969/12/31/18:00:13.024,(-8 -7 4 14 -19 0 -12 -8)
1969/12/31/18:00:13.031,(-2 2 5 -13 -17 -26 -6 -6)
1969/12/31/18:00:13.031,(-3 -2 -20 -8 -4 9 12 2)
1969/12/31/18:00:13.045,(-5 -8 8 -12 13 8 1 -4)
1969/12/31/18:00:13.045,(-5 -6 -28 -8 -16 -12 -8 -1)
1969/12/31/18:00:13.046,(6 9 61 36 1 -10 -4 0)
1969/12/31/18:00:13.046,(-1 -17 -11 -13 -22 -16 4 7)
1969/12/31/18:00:13.056,(-7 9 -52 -7 -9 -15 -14 -18)
1969/12/31/18:00:13.056,(4 3 55 13 13 7 6 3)
1969/12/31/18:00:13.063,(7 13 30 16 26 17 3 4)
1969/12/31/18:00:13.063,(3 3 2 2 7 -5 12 12)
1969/12/31/18:00:13.075,(-16 -48 -93 -108 -59 -23 -3 -1)
1969/12/31/18:00:13.075,(1 -9 -24 41 28 -4 3 0)
1969/12/31/18:00:13.076,(4 4 24 62 22 -1 9 8)
1969/12/31/18:00:13.076,(22 43 82 85 29 7 2 6)
1969/12/31/18:00:13.095,(-3 -4 -24 -32 -11 -2 3 2)
1969/12/31/18:00:13.095,(2 8 34 46 28 5 9 1)
1969/12/31/18:00:13.096,(7 -1 -27 -15 0 5 7 8)
1969/12/31/18:00:13.096,(-15 -21 -45 -23 -2 2 -7 -14)
1969/12/31/18:00:13.106,(5 12 35 -7 -20 -15 1 6)
1969/12/31/18:00:13.107,(2 13 50 16 5 2 11 2)
1969/12/31/18:00:13.114,(-14 -18 -68 -40 0 13 -3 -9)
1969/12/31/18:00:13.114,(-14 -12 -8 -32 -13 5 -12 -11)
1969/12/31/18:00:13.127,(-2 12 1 13 7 13 -16 -20)
1969/12/31/18:00:13.127,(-12 1 -15 -52 -18 14 -16 -17)
1969/12/31/18:00:13.127,(-7 13 31 31 0 25 -12 -11)
1969/12/31/18:00:13.127,(-6 14 -18 -18 -15 19 -15 -12)
1969/12/31/18:00:13.146,(0 -9 15 14 2 17 -3 0)
1969/12/31/18:00:13.146,(16 22 7 22 -3 2 0 7)
1969/12/31/18:00:13.147,(10 -14 -26 -18 -21 -18 -1 7)
1969/12/31/18:00:13.147,(7 -14 -7 -13 2 -13 4 9)
1969/12/31/18:00:13.158,(8 -3 4 37 19 -5 8 12)
1969/12/31/18:00:13.158,(1 -10 -16 -23 -9 -11 2 4)
1969/12/31/18:00:13.159,(-5 -10 -19 -24 -6 -11 3 2)
1969/12/31/18:00:13.159,(2 -1 8 14 10 -7 3 3)
1969/12/31/18:00:13.178,(6 13 18 23 5 -5 5 5)
1969/12/31/18:00:13.178,(5 -4 -22 -24 -7 -6 1 -2)
1969/12/31/18:00:13.179,(-17 6 12 -4 0 -1 2 -5)
1969/12/31/18:00:13.179,(4 6 12 14 8 1 2 5)
1969/12/31/18:00:13.203,(-44 -25 -6 1 -6 -11 -11 -21)
1969/12/31/18:00:13.203,(3 -1 -6 -14 -1 -5 -1 -2)
1969/12/31/18:00:13.204,(0 -21 -12 -4 -2 -1 3 6)
1969/12/31/18:00:13.204,(-7 6 12 0 -2 -2 -9 -14)
1969/12/31/18:00:13.209,(-22 -2 2 4 0 -4 -2 0)
1969/12/31/18:00:13.209,(23 10 -5 -5 -1 5 0 6)
1969/12/31/18:00:13.210,(32 18 2 -3 -3 -2 -19 -2)
1969/12/31/18:00:13.210,(-30 -21 -7 -7 -7 9 23 -2)
1969/12/31/18:00:13.228,(26 17 12 10 -1 6 -1 5)
1969/12/31/18:00:13.228,(-29 -14 -12 -4 -3 -1 -4 -7)
1969/12/31/18:00:13.229,(44 18 0 -7 -1 31 21 19)
1969/12/31/18:00:13.229,(15 5 4 -1 -3 -50 -37 -3)
1969/12/31/18:00:13.248,(-75 -30 -2 9 3 4 14 -12)
1969/12/31/18:00:13.248,(33 2 -8 -7 -1 7 -2 17)
1969/12/31/18:00:13.249,(-45 -22 -6 -3 -3 7 -15 -33)
1969/12/31/18:00:13.249,(39 17 -2 -1 -2 -12 9 12)
1969/12/31/18:00:13.260,(9 6 9 7 0 -9 15 5)
1969/12/31/18:00:13.260,(-15 -18 -12 -4 12 70 57 -1)
1969/12/31/18:00:13.261,(-23 -10 -1 -7 -14 -89 -38 -4)
1969/12/31/18:00:13.261,(2 0 1 -1 2 6 -8 1)
1969/12/31/18:00:13.279,(27 3 -2 -5 -6 -30 10 6)
1969/12/31/18:00:13.279,(-16 -18 -9 -5 -4 12 7 12)
1969/12/31/18:00:13.280,(6 -2 -8 0 6 12 21 -4)
1969/12/31/18:00:13.280,(-5 2 2 -3 6 10 21 0)
1969/12/31/18:00:13.300,(-6 14 11 -3 7 -24 -51 -23)
1969/12/31/18:00:13.300,(-8 19 10 -2 3 47 2 -13)
1969/12/31/18:00:13.300,(-41 -27 -7 -13 -15 41 0 1)
1969/12/31/18:00:13.300,(-10 -6 -5 -5 -20 -34 -21 -18)
1969/12/31/18:00:13.310,(25 12 1 3 -2 26 1 4)
1969/12/31/18:00:13.310,(-21 -5 2 10 0 -31 -16 14)
1969/12/31/18:00:13.318,(44 27 5 7 6 26 -8 -15)
1969/12/31/18:00:13.318,(3 8 1 -3 -3 24 15 -9)
1969/12/31/18:00:13.330,(-59 -38 -10 -3 -4 26 -11 -24)
1969/12/31/18:00:13.330,(10 -7 -4 -7 -20 -111 -41 -3)
1969/12/31/18:00:13.331,(5 10 5 1 4 60 58 48)
1969/12/31/18:00:13.331,(12 -14 -2 0 5 -4 -51 -1)
1969/12/31/18:00:13.350,(30 17 0 2 -2 -14 8 1)
1969/12/31/18:00:13.350,(-1 -4 -1 -1 1 -9 -4 -2)
1969/12/31/18:00:13.351,(18 11 0 -2 -1 11 9 18)
1969/12/31/18:00:13.351,(-31 -11 1 0 -3 -5 5 -24)
1969/12/31/18:00:13.361,(57 31 9 10 4 -17 7 35)
1969/12/31/18:00:13.361,(-57 -33 -16 -12 -8 3 10 -35)
1969/12/31/18:00:13.368,(-5 2 -1 1 6 6 -24 -14)
1969/12/31/18:00:13.369,(-3 5 9 8 0 -57 -20 14)
1969/12/31/18:00:13.381,(9 6 0 0 2 28 27 -17)
1969/12/31/18:00:13.381,(3 -8 -6 -5 -2 -22 -36 -12)
1969/12/31/18:00:13.382,(0 24 9 5 0 -22 -12 -46)
1969/12/31/18:00:13.382,(-24 -17 -6 -5 6 50 -4 -24)
1969/12/31/18:00:13.401,(43 17 0 -1 -1 -18 15 37)
1969/12/31/18:00:13.401,(7 15 7 1 0 6 22 10)
1969/12/31/18:00:13.402,(-51 -35 -8 1 6 -7 3 -18)
1969/12/31/18:00:13.402,(30 6 -5 -4 -9 -13 -12 16)
1969/12/31/18:00:13.412,(-4 -2 2 -1 -1 4 -16 0)
1969/12/31/18:00:13.412,(15 10 -2 -3 -2 11 21 3)
1969/12/31/18:00:13.425,(-1 -2 -1 -2 -2 -21 -9 4)
1969/12/31/18:00:13.425,(1 -3 -1 0 4 30 64 44)
1969/12/31/18:00:13.431,(4 -4 1 3 2 -5 -23 -40)
1969/12/31/18:00:13.432,(-63 -8 -2 1 10 35 22 -9)
1969/12/31/18:00:13.437,(20 7 1 -3 -6 -22 -28 -32)
1969/12/31/18:00:13.437,(3 -3 -6 -2 0 -11 -23 -27)
1969/12/31/18:00:13.452,(14 8 1 -3 0 12 23 38)
1969/12/31/18:00:13.452,(29 5 6 5 2 -6 -8 13)
1969/12/31/18:00:13.453,(-16 -6 -4 2 -1 -12 18 6)
1969/12/31/18:00:13.453,(2 -14 -11 -8 -4 33 4 -6)
1969/12/31/18:00:13.463,(-7 -2 0 1 0 -2 29 27)
1969/12/31/18:00:13.463,(6 5 0 1 -1 -15 -36 -18)
1969/12/31/18:00:13.471,(-2 -5 -1 -5 -3 -8 -10 7)
1969/12/31/18:00:13.471,(17 14 9 9 7 18 9 -3)
1969/12/31/18:00:13.483,(-24 -19 -8 -5 -4 -21 -36 -40)
1969/12/31/18:00:13.483,(37 10 -3 -4 -4 -17 10 35)
1969/12/31/18:00:13.488,(-7 -20 -12 -10 -2 19 4 10)
1969/12/31/18:00:13.488,(-13 1 4 4 3 -10 14 12)
1969/12/31/18:00:13.502,(10 -1 -4 -3 -2 2 -10 9)
1969/12/31/18:00:13.502,(-6 8 13 11 3 -10 -24 -39)
1969/12/31/18:00:13.504,(-19 11 7 7 7 33 2 -12)
1969/12/31/18:00:13.504,(31 13 -3 -6 -6 -37 4 24)
1969/12/31/18:00:13.514,(-11 -16 -8 -4 -2 12 9 20)
1969/12/31/18:00:13.514,(4 -3 -3 -7 -5 2 -6 6)
1969/12/31/18:00:13.527,(28 14 17 16 8 -7 17 50)
1969/12/31/18:00:13.527,(-34 -10 -1 -2 -3 -33 -36 -88)
1969/12/31/18:00:13.534,(-9 -10 -8 -5 7 55 17 -2)
1969/12/31/18:00:13.534,(29 12 -1 0 -6 -13 -13 8)
1969/12/31/18:00:13.546,(-8 3 0 -1 -3 -24 0 -2)
1969/12/31/18:00:13.546,(-26 -6 -3 -2 -3 -15 -15 56)
1969/12/31/18:00:13.553,(28 10 7 7 6 6 0 47)
1969/12/31/18:00:13.554,(-28 -19 -10 -12 -7 -7 -25 -56)
1969/12/31/18:00:13.555,(-7 -14 -10 -9 -9 -24 15 11)
1969/12/31/18:00:13.555,(-5 8 3 3 -1 16 3 6)
1969/12/31/18:00:13.572,(-18 -9 -4 -2 0 -11 -7 -23)
1969/12/31/18:00:13.572,(-19 -11 4 4 5 18 21 17)
1969/12/31/18:00:13.574,(28 29 2 -1 -3 -18 -11 -1)
1969/12/31/18:00:13.574,(36 0 -7 -5 1 12 12 -4)
1969/12/31/18:00:13.585,(-13 -13 -4 0 -4 -3 3 -1)
1969/12/31/18:00:13.585,(22 2 3 4 1 -9 10 54)
1969/12/31/18:00:13.590,(-69 -42 -22 -14 -12 -10 -17 -32)
1969/12/31/18:00:13.590,(37 22 12 6 6 13 -3 70)
1969/12/31/18:00:13.605,(23 8 2 2 6 36 2 53)
1969/12/31/18:00:13.605,(-19 -5 -7 -8 -11 -31 -2 -49)
1969/12/31/18:00:13.606,(15 -3 3 2 8 43 32 40)
1969/12/31/18:00:13.606,(-11 -4 -3 -4 -10 -28 -20 -43)
1969/12/31/18:00:13.624,(-46 -23 -16 -14 -15 -14 -26 -45)
1969/12/31/18:00:13.624,(31 17 2 3 3 -4 -5 38)
1969/12/31/18:00:13.625,(2 -1 1 -1 -3 -2 15 1)
1969/12/31/18:00:13.625,(21 0 2 4 7 9 11 16)
1969/12/31/18:00:13.636,(61 37 10 6 5 -4 17 55)
1969/12/31/18:00:13.636,(3 -27 -9 -3 -1 12 5 4)
1969/12/31/18:00:13.642,(-29 -8 2 1 -4 -18 -29 -67)
1969/12/31/18:00:13.642,(-38 -27 -9 -5 -1 10 1 -9)
1969/12/31/18:00:13.657,(0 11 9 5 0 -11 2 1)
1969/12/31/18:00:13.657,(13 13 -5 -5 -4 10 10 -7)
1969/12/31/18:00:13.657,(38 15 5 2 -1 -13 -17 18)
1969/12/31/18:00:13.657,(2 6 4 4 4 7 -22 -15)
1969/12/31/18:00:13.674,(6 15 9 8 11 18 27 32)
1969/12/31/18:00:13.674,(-17 -5 -9 -10 -11 -35 -36 -62)
1969/12/31/18:00:13.676,(-13 -35 -13 -10 -9 -9 -2 -12)
1969/12/31/18:00:13.676,(-14 15 3 -1 1 0 14 -42)
1969/12/31/18:00:13.686,(-24 -30 -9 -5 -4 -12 -12 -13)
1969/12/31/18:00:13.687,(46 22 8 4 -2 -16 -19 -9)
1969/12/31/18:00:13.692,(-45 -6 -4 -2 2 11 -9 -29)
1969/12/31/18:00:13.692,(-3 -2 -1 0 -2 11 13 22)
1969/12/31/18:00:13.707,(12 4 0 -4 -9 -42 -10 -5)
1969/12/31/18:00:13.707,(2 -1 -2 2 4 17 8 32)
1969/12/31/18:00:13.708,(26 14 7 8 3 -10 -1 24)
1969/12/31/18:00:13.708,(-12 -8 -5 -2 -2 63 9 -18)
1969/12/31/18:00:13.725,(-72 -33 -9 -2 3 -68 -24 -56)
1969/12/31/18:00:13.725,(-18 -3 -2 -2 -3 2 1 -47)
1969/12/31/18:00:13.727,(8 0 -5 -4 -4 -16 -22 -22)
1969/12/31/18:00:13.727,(21 19 8 4 0 -4 15 23)
1969/12/31/18:00:13.745,(-40 -22 -9 -7 -8 37 -4 18)
1969/12/31/18:00:13.745,(1 18 0 -5 -5 -4 5 -9)
1969/12/31/18:00:13.746,(-27 -14 -4 -5 -4 -9 -11 -52)
1969/12/31/18:00:13.746,(15 -26 -6 -7 0 1 7 24)
1969/12/31/18:00:13.758,(16 10 -2 -2 -3 4 -6 -23)
1969/12/31/18:00:13.758,(17 23 11 10 13 19 27 57)
1969/12/31/18:00:13.759,(16 4 -3 -3 -5 9 -2 37)
1969/12/31/18:00:13.759,(-4 -5 -4 -4 -3 -18 -5 0)
1969/12/31/18:00:13.777,(2 -8 -2 1 4 45 29 36)
1969/12/31/18:00:13.777,(-26 -4 2 0 1 -1 12 -8)
1969/12/31/18:00:13.779,(31 8 -5 -5 -1 16 8 -2)
1969/12/31/18:00:13.779,(-4 -8 -6 -1 8 44 4 -12)
1969/12/31/18:00:13.789,(-10 -4 3 0 -6 -23 -20 -33)
1969/12/31/18:00:13.789,(33 7 -2 -3 -10 -32 -5 24)
1969/12/31/18:00:13.794,(-26 -12 -2 -3 5 -6 -4 -21)
1969/12/31/18:00:13.795,(11 9 8 3 -6 -27 1 -17)
1969/12/31/18:00:13.809,(-38 -4 -11 -7 0 30 -43 -47)
1969/12/31/18:00:13.809,(-37 -36 -12 -5 4 0 6 -10)
1969/12/31/18:00:13.810,(24 23 18 15 7 6 18 20)
1969/12/31/18:00:13.810,(-29 -8 -8 -4 -4 -42 -43 -40)
1969/12/31/18:00:13.827,(9 16 5 -1 -2 -12 -5 -60)
1969/12/31/18:00:13.827,(-30 -20 -5 -4 -8 13 -6 -12)
1969/12/31/18:00:13.829,(-8 -1 1 2 2 -4 -7 -8)
1969/12/31/18:00:13.829,(8 3 -2 0 5 22 18 42)
1969/12/31/18:00:13.847,(19 6 2 2 2 -2 17 11)
1969/12/31/18:00:13.847,(-1 5 1 3 18 16 9 19)
1969/12/31/18:00:13.848,(6 -6 -4 -6 -26 -48 -22 -6)
1969/12/31/18:00:13.848,(-19 6 2 4 9 22 20 -15)
1969/12/31/18:00:13.860,(4 -18 -7 -22 -71 -101 -43 0)
1969/12/31/18:00:13.860,(20 -1 5 14 53 105 4 10)
1969/12/31/18:00:13.861,(25 9 2 1 -8 -39 19 54)
1969/12/31/18:00:13.861,(12 11 -2 1 17 100 29 23)
1969/12/31/18:00:13.878,(-7 1 0 -1 17 -24 13 31)
1969/12/31/18:00:13.878,(-25 -16 -11 -11 -27 -35 -47 -106)
1969/12/31/18:00:13.880,(8 9 4 3 9 -4 -1 -15)
1969/12/31/18:00:13.880,(3 -16 -5 3 9 -20 0 36)
1969/12/31/18:00:13.890,(-5 -5 -10 -10 -3 28 2 -38)
1969/12/31/18:00:13.890,(26 5 1 -2 -29 29 6 14)
1969/12/31/18:00:13.903,(11 11 4 16 38 10 11 26)
1969/12/31/18:00:13.903,(-28 -10 -9 -17 -50 -29 -15 -41)
1969/12/31/18:00:13.911,(38 40 17 -2 -19 -5 26 88)
1969/12/31/18:00:13.911,(-53 -69 -11 -11 -36 -64 -10 26)
1969/12/31/18:00:13.911,(-10 -27 -22 -18 -3 14 -11 -47)
1969/12/31/18:00:13.911,(-9 5 9 11 21 -33 7 11)
1969/12/31/18:00:13.929,(27 13 6 16 53 71 14 5)
1969/12/31/18:00:13.929,(21 28 6 7 11 -8 8 41)
1969/12/31/18:00:13.936,(-14 11 6 -1 -33 0 -4 3)
1969/12/31/18:00:13.936,(-10 -9 -2 16 102 62 12 -12)
1969/12/31/18:00:13.941,(-22 -37 -9 -7 -49 -50 -3 -17)
1969/12/31/18:00:13.941,(41 31 6 -18 -71 -82 -29 24)
1969/12/31/18:00:13.949,(-35 -20 -10 -7 25 35 -22 -85)
1969/12/31/18:00:13.949,(3 21 6 7 29 14 10 -3)
1969/12/31/18:00:13.962,(15 -1 -8 15 29 16 -3 -28)
1969/12/31/18:00:13.962,(-4 28 -6 -34 -73 -20 -15 -15)
1969/12/31/18:00:13.962,(-21 -33 8 -17 -22 -29 2 30)
1969/12/31/18:00:13.962,(14 7 7 4 -30 -43 9 18)
1969/12/31/18:00:13.980,(-42 -16 -10 9 37 30 -2 -51)
1969/12/31/18:00:13.980,(-17 -20 -22 18 78 37 23 8)
1969/12/31/18:00:13.982,(8 28 10 -13 -31 3 -10 -3)
1969/12/31/18:00:13.982,(-2 -7 12 7 -8 0 -1 -13)
1969/12/31/18:00:13.992,(31 21 10 10 4 9 9 14)
1969/12/31/18:00:13.992,(10 16 -4 15 57 20 -2 -9)
1969/12/31/18:00:14.005,(-32 -72 -55 -22 -31 -9 16 15)
1969/12/31/18:00:14.005,(-20 11 -9 -20 -49 -37 -38 -20)
1969/12/31/18:00:14.013,(-35 22 64 30 65 38 -21 -72)
1969/12/31/18:00:14.013,(-1 -11 -25 0 -12 43 33 -2)
1969/12/31/18:00:14.014,(54 26 25 -15 -59 -61 6 64)
1969/12/31/18:00:14.014,(12 -21 -25 -19 -38 -90 -52 -32)
1969/12/31/18:00:14.031,(48 -35 -93 -47 -16 -13 2 28)
1969/12/31/18:00:14.031,(-62 24 87 36 55 38 29 14)
1969/12/31/18:00:14.033,(-19 60 50 43 54 55 25 19)
1969/12/31/18:00:14.033,(64 16 -31 -19 -11 18 7 20)
1969/12/31/18:00:14.043,(-19 31 80 34 3 -12 0 15)
1969/12/31/18:00:14.043,(9 -106 -92 -17 88 63 -7 -8)
1969/12/31/18:00:14.051,(42 59 -15 -10 -108 -60 8 32)
1969/12/31/18:00:14.051,(7 94 109 56 65 59 20 18)
1969/12/31/18:00:14.064,(8 -54 -61 -3 16 2 5 15)
1969/12/31/18:00:14.064,(2 2 -9 -23 -108 -86 -31 -10)
1969/12/31/18:00:14.064,(18 74 55 -2 44 47 34 25)
1969/12/31/18:00:14.064,(-63 -73 -65 -26 -6 -29 -56 -100)
1969/12/31/18:00:14.083,(34 0 -16 -8 3 33 37 12)
1969/12/31/18:00:14.083,(21 8 64 37 35 40 6 38)
1969/12/31/18:00:14.085,(-38 -112 -99 -35 -30 -52 -47 -74)
1969/12/31/18:00:14.085,(12 106 116 60 80 58 34 53)
1969/12/31/18:00:14.094,(-24 -75 -78 -41 -94 -54 -1 6)
1969/12/31/18:00:14.094,(-94 -32 -55 -35 -22 -72 -86 -125)
1969/12/31/18:00:14.102,(-9 -100 13 19 48 74 47 36)
1969/12/31/18:00:14.102,(13 77 46 4 -10 2 8 9)
1969/12/31/18:00:14.115,(12 -23 -18 6 41 29 -1 15)
1969/12/31/18:00:14.115,(42 7 -9 12 23 22 68 86)
1969/12/31/18:00:14.115,(9 61 47 13 -74 -86 -58 19)
1969/12/31/18:00:14.115,(-64 -60 -19 -19 -18 -4 26 17)
1969/12/31/18:00:14.134,(48 27 -8 -14 11 21 -9 -20)
1969/12/31/18:00:14.134,(43 -46 -57 -19 -17 -7 1 4)
1969/12/31/18:00:14.135,(-2 -33 0 26 96 47 -29 11)
1969/12/31/18:00:14.135,(49 40 26 4 -54 -62 -12 60)
1969/12/31/18:00:14.145,(-24 4 1 -16 -22 -3 1 -46)
1969/12/31/18:00:14.145,(42 -27 -21 -22 -51 7 47 13)
1969/12/31/18:00:14.153,(-51 46 -17 -20 -8 -44 -55 -65)
1969/12/31/18:00:14.153,(-17 -33 -7 -4 13 5 -5 -25)
1969/12/31/18:00:14.166,(-13 51 59 22 13 -9 -5 -1)
1969/12/31/18:00:14.166,(8 -57 -27 1 25 22 14 20)
1969/12/31/18:00:14.166,(76 99 91 58 39 32 40 38)
1969/12/31/18:00:14.166,(4 -36 -67 -6 -14 -18 -27 14)
1969/12/31/18:00:14.191,(10 -65 2 19 59 15 1 -28)
1969/12/31/18:00:14.191,(-69 55 42 2 -66 -26 -11 -27)
1969/12/31/18:00:14.192,(6 63 43 -20 -67 -32 -9 4)
1969/12/31/18:00:14.192,(24 -70 -80 -37 0 -15 4 13)
1969/12/31/18:00:14.196,(-35 -4 -2 -20 -37 -15 -9 -71)
1969/12/31/18:00:14.196,(1 -34 -34 5 74 22 -45 -66)
1969/12/31/18:00:14.204,(28 11 -18 2 25 36 29 7)
1969/12/31/18:00:14.204,(-31 5 20 -13 -42 -19 10 -12)
1969/12/31/18:00:14.217,(-21 -44 -16 0 -15 -19 -12 37)
1969/12/31/18:00:14.217,(8 6 6 -1 12 -5 3 6)
1969/12/31/18:00:14.218,(6 37 -24 11 38 39 24 13)
1969/12/31/18:00:14.218,(35 -9 10 7 -1 3 20 22)
1969/12/31/18:00:14.237,(-34 52 43 13 -24 -26 -43 -2)
1969/12/31/18:00:14.237,(31 71 60 14 -10 12 26 41)
1969/12/31/18:00:14.239,(-15 -74 -60 -8 20 5 3 6)
1969/12/31/18:00:14.239,(-26 -75 -51 -13 8 10 -3 -41)
1969/12/31/18:00:14.247,(26 -3 -54 -38 -47 -39 -11 -22)
1969/12/31/18:00:14.247,(-23 127 124 76 49 -20 -23 -26)
1969/12/31/18:00:14.255,(-4 -120 -84 8 100 72 17 1)
1969/12/31/18:00:14.255,(-43 -58 -44 -65 -104 -82 -25 -58)
1969/12/31/18:00:14.267,(32 19 -8 -19 -36 -7 17 74)
1969/12/31/18:00:14.267,(-9 -59 -32 -25 -9 -20 12 -50)
1969/12/31/18:00:14.268,(-25 3 -3 -1 30 -1 -37 -34)
1969/12/31/18:00:14.268,(6 -38 -37 12 11 15 9 21)
1969/12/31/18:00:14.286,(-58 -85 -20 -21 2 -5 -9 -45)
1969/12/31/18:00:14.287,(25 113 66 20 -7 -11 1 29)
1969/12/31/18:00:14.288,(-15 5 14 10 -11 1 6 -23)
1969/12/31/18:00:14.288,(1 -85 -61 -12 7 25 0 -6)
1969/12/31/18:00:14.298,(6 -31 -26 0 9 12 12 27)
1969/12/31/18:00:14.298,(4 11 -4 -1 9 18 2 17)
1969/12/31/18:00:14.306,(9 13 9 -1 -24 -35 -30 -51)
1969/12/31/18:00:14.306,(13 23 13 4 13 26 13 55)
1969/12/31/18:00:14.318,(38 30 3 1 -3 2 11 51)
1969/12/31/18:00:14.318,(-13 -55 -30 -1 35 20 -1 49)
1969/12/31/18:00:14.324,(2 -71 -56 -20 -22 -27 0 -40)
1969/12/31/18:00:14.324,(19 38 -14 -26 -34 -14 -42 -11)
1969/12/31/18:00:14.337,(-73 112 125 29 -8 -17 -4 -36)
1969/12/31/18:00:14.337,(33 -5 -15 5 2 -11 8 6)
1969/12/31/18:00:14.339,(-15 -9 13 -38 -52 -8 -9 -6)
1969/12/31/18:00:14.339,(9 15 4 34 46 21 17 -3)
1969/12/31/18:00:14.349,(-50 -78 -62 -7 4 -17 -19 -35)
1969/12/31/18:00:14.349,(25 7 -46 -43 -18 -1 6 40)
1969/12/31/18:00:14.362,(-50 66 76 35 29 8 -14 -17)
1969/12/31/18:00:14.362,(8 -10 -3 2 -7 0 4 -6)
1969/12/31/18:00:14.369,(46 1 -9 8 16 3 14 48)
1969/12/31/18:00:14.369,(27 -17 -29 -5 -26 6 5 -2)
1969/12/31/18:00:14.376,(-9 3 4 1 7 3 -1 17)
1969/12/31/18:00:14.376,(-37 -7 8 -6 -2 0 -10 -13)
1969/12/31/18:00:14.388,(13 -7 -2 4 -7 -1 12 20)
1969/12/31/18:00:14.388,(-44 8 13 1 27 29 -16 -28)
1969/12/31/18:00:14.390,(42 -7 -26 -21 -115 -32 14 9)
1969/12/31/18:00:14.390,(-9 56 55 3 -39 -43 -14 -3)
1969/12/31/18:00:14.408,(-3 -76 -41 7 37 41 6 -16)
1969/12/31/18:00:14.408,(-36 -14 -15 -15 -9 -17 -5 -43)
1969/12/31/18:00:14.409,(59 83 79 27 -9 -3 -13 0)
1969/12/31/18:00:14.409,(-90 -98 -80 -39 -15 -7 -28 -90)
1969/12/31/18:00:14.420,(14 31 50 12 -13 -37 -13 -1)
1969/12/31/18:00:14.420,(4 1 -53 -27 -33 -12 -14 30)
1969/12/31/18:00:14.431,(12 79 78 46 62 42 14 7)
1969/12/31/18:00:14.431,(108 41 -18 8 23 22 44 108)
1969/12/31/18:00:14.439,(33 -33 -10 14 19 7 11 15)
1969/12/31/18:00:14.439,(-50 -10 13 -11 -34 -20 -4 -21)
1969/12/31/18:00:14.441,(-19 -72 -55 -18 19 3 2 20)
1969/12/31/18:00:14.441,(23 18 31 18 13 -3 -2 13)
1969/12/31/18:00:14.459,(-18 93 51 33 88 95 18 6)
1969/12/31/18:00:14.459,(11 -74 -53 -15 -26 6 18 -14)
1969/12/31/18:00:14.460,(-20 -31 -47 -68 -98 -54 28 65)
1969/12/31/18:00:14.460,(5 16 42 26 35 -11 -21 -33)
1969/12/31/18:00:14.471,(-41 -50 -83 -11 -4 28 28 -24)
1969/12/31/18:00:14.471,(-70 87 117 31 -19 -19 -31 -66)
1969/12/31/18:00:14.483,(5 -5 -7 24 58 38 14 7)
1969/12/31/18:00:14.483,(25 -65 -52 -4 41 24 10 19)
1969/12/31/18:00:14.490,(-34 3 -10 -36 -56 -63 -29 5)
1969/12/31/18:00:14.490,(32 69 41 10 -5 -4 12 61)
1969/12/31/18:00:14.492,(15 -49 -29 -4 18 16 13 27)
1969/12/31/18:00:14.492,(1 -29 4 17 21 14 -3 -17)
1969/12/31/18:00:14.510,(-42 -30 -27 -4 -18 -19 -27 -79)
1969/12/31/18:00:14.510,(6 -3 11 -4 9 3 19 46)
1969/12/31/18:00:14.510,(-41 -18 -3 -6 -15 -33 -25 -42)
1969/12/31/18:00:14.510,(-20 -48 -40 -12 25 11 0 20)
1969/12/31/18:00:14.522,(39 -5 -40 -55 -104 -29 -21 22)
1969/12/31/18:00:14.522,(-13 54 57 18 39 -11 2 -35)
1969/12/31/18:00:14.527,(11 -68 -59 -3 9 32 -10 -42)
1969/12/31/18:00:14.527,(39 -20 -16 -13 -17 -33 19 23)
1969/12/31/18:00:14.541,(-23 110 67 38 38 13 -15 -52)
1969/12/31/18:00:14.542,(0 -2 17 -2 -22 -19 -9 3)
1969/12/31/18:00:14.543,(20 15 1 4 21 2 8 20)
1969/12/31/18:00:14.543,(5 15 -10 -3 0 32 17 37)
1969/12/31/18:00:14.561,(51 -79 -87 -21 20 14 27 52)
1969/12/31/18:00:14.561,(-53 4 55 26 -13 -14 -44 -68)
1969/12/31/18:00:14.562,(18 -41 -45 -9 12 -3 14 21)
1969/12/31/18:00:14.562,(-19 44 30 -2 -11 13 -10 -42)
1969/12/31/18:00:14.573,(61 41 10 13 30 15 32 56)
1969/12/31/18:00:14.573,(30 -29 -39 -1 -1 13 1 30)
1969/12/31/18:00:14.578,(-63 -16 9 -8 -8 -2 -22 -48)
1969/12/31/18:00:14.578,(21 -3 -4 18 53 1 -7 16)
1969/12/31/18:00:14.593,(-5 27 55 -7 -99 -49 -7 -27)
1969/12/31/18:00:14.593,(17 23 4 -8 -42 -28 2 -8)
1969/12/31/18:00:14.595,(20 -13 -22 -11 4 11 2 35)
1969/12/31/18:00:14.595,(25 14 7 32 42 33 40 29)
1969/12/31/18:00:14.612,(19 6 -42 -26 27 17 -3 19)
1969/12/31/18:00:14.612,(-4 12 5 12 18 -6 1 8)
1969/12/31/18:00:14.612,(-25 3 42 -7 -80 -37 -12 -20)
1969/12/31/18:00:14.612,(-59 -15 -20 -22 -24 -4 -5 -33)
1969/12/31/18:00:14.623,(10 -1 24 24 36 11 12 30)
1969/12/31/18:00:14.624,(83 -79 -128 -30 17 19 11 64)
1969/12/31/18:00:14.630,(-56 59 54 11 37 16 3 -22)
1969/12/31/18:00:14.630,(-10 103 81 32 -12 -11 -31 -76)
1969/12/31/18:00:14.643,(2 20 38 24 2 -5 7 22)
1969/12/31/18:00:14.643,(30 -34 -17 -15 -9 13 14 25)
1969/12/31/18:00:14.645,(-49 -75 -49 -2 41 21 -10 -42)
1969/12/31/18:00:14.645,(3 -49 -42 -33 -20 -25 -6 24)
1969/12/31/18:00:14.663,(-47 39 45 13 -49 -18 16 -15)
1969/12/31/18:00:14.663,(9 -33 -43 -43 -43 -42 -10 7)
1969/12/31/18:00:14.663,(29 52 49 29 50 18 13 9)
1969/12/31/18:00:14.663,(-2 7 -29 -53 -85 -41 -17 -2)
1969/12/31/18:00:14.674,(-26 53 90 47 94 42 11 -10)
1969/12/31/18:00:14.674,(-18 -52 -39 1 -9 -18 -22 -23)
1969/12/31/18:00:14.681,(33 -19 -58 -30 -23 -11 11 -1)
1969/12/31/18:00:14.681,(-8 14 21 27 2 25 28 15)
1969/12/31/18:00:14.694,(63 5 -8 5 23 8 -13 36)
1969/12/31/18:00:14.694,(7 29 -12 -20 -32 -4 -1 17)
1969/12/31/18:00:14.696,(-64 55 69 35 52 1 -26 -62)
1969/12/31/18:00:14.696,(-16 -60 -56 -31 -69 -30 -1 -43)
1969/12/31/18:00:14.714,(-23 0 16 -7 -23 -26 -9 1)
1969/12/31/18:00:14.714,(-14 -2 35 47 74 59 0 -25)
1969/12/31/18:00:14.715,(39 -93 -128 -45 -18 -15 17 40)
1969/12/31/18:00:14.715,(-21 125 127 27 -10 -12 -10 45)
1969/12/31/18:00:14.725,(8 -24 -31 -12 -20 5 -12 1)
1969/12/31/18:00:14.725,(-12 -66 -39 -9 33 23 23 5)
1969/12/31/18:00:14.733,(62 -24 -71 -33 -46 -41 -25 61)
1969/12/31/18:00:14.733,(-74 90 95 54 7 11 2 -48)
1969/12/31/18:00:14.745,(-14 -60 -57 -19 50 18 -9 -14)
1969/12/31/18:00:14.745,(-11 -79 -54 -28 -33 7 19 -13)
1969/12/31/18:00:14.747,(45 48 -35 -29 -52 -30 19 49)
1969/12/31/18:00:14.747,(34 59 75 53 63 20 10 58)
1969/12/31/18:00:14.765,(47 3 1 11 0 -15 -20 -25)
1969/12/31/18:00:14.765,(-79 -26 23 17 34 19 14 -25)
1969/12/31/18:00:14.765,(-12 13 13 -15 -36 -11 -1 4)
1969/12/31/18:00:14.765,(9 -128 -115 -52 -47 -3 0 3)
1969/12/31/18:00:14.776,(4 72 35 18 11 3 11 10)
1969/12/31/18:00:14.776,(64 50 34 14 22 7 -18 18)
1969/12/31/18:00:14.783,(-50 -36 -3 24 50 20 -1 -34)
1969/12/31/18:00:14.783,(5 -19 6 -2 -14 8 13 13)
1969/12/31/18:00:14.796,(12 -33 -41 -21 2 -11 -17 1)
1969/12/31/18:00:14.796,(-36 -28 -28 -27 -30 -23 -2 -16)
1969/12/31/18:00:14.798,(4 3 42 21 13 25 14 8)
1969/12/31/18:00:14.798,(42 37 -13 -13 -14 -1 16 16)
1969/12/31/18:00:14.816,(27 57 77 51 45 16 13 11)
1969/12/31/18:00:14.816,(41 -4 -62 -33 -53 -10 -13 11)
1969/12/31/18:00:14.816,(-51 102 127 22 -19 -29 -25 -51)
1969/12/31/18:00:14.816,(7 -22 -44 -6 43 16 -6 -16)
1969/12/31/18:00:14.827,(32 55 43 30 4 11 8 40)
1969/12/31/18:00:14.827,(15 55 69 55 47 13 19 2)
1969/12/31/18:00:14.839,(-2 -118 -70 -15 1 15 -12 -17)
1969/12/31/18:00:14.839,(-14 -41 -30 -18 -14 -21 -36 4)
1969/12/31/18:00:14.847,(-11 -1 -3 -15 18 37 3 -7)
1969/12/31/18:00:14.847,(8 -20 -17 -7 -20 -34 -15 -22)
1969/12/31/18:00:14.849,(18 13 -9 2 -5 -10 5 23)
1969/12/31/18:00:14.849,(-12 42 30 -2 -8 0 2 -23)
1969/12/31/18:00:14.867,(-40 -81 -59 -20 29 8 -26 -26)
1969/12/31/18:00:14.867,(-24 -41 -23 -24 -59 -32 -7 -7)
1969/12/31/18:00:14.867,(39 6 17 16 51 65 22 49)
1969/12/31/18:00:14.867,(41 107 59 28 -27 -67 -11 -5)
1969/12/31/18:00:14.878,(11 -30 -42 -54 -76 -31 -19 -6)
1969/12/31/18:00:14.878,(-25 1 12 18 72 28 14 -11)
1969/12/31/18:00:14.886,(15 -40 -32 -11 -26 -11 5 21)
1969/12/31/18:00:14.886,(48 -33 -19 12 49 49 34 64)
1969/12/31/18:00:14.899,(-55 -24 26 5 -7 -22 -20 -40)
1969/12/31/18:00:14.899,(17 6 -61 -36 -25 -18 -12 8)
1969/12/31/18:00:14.900,(-11 55 45 31 13 4 2 -20)
1969/12/31/18:00:14.900,(-61 -43 -2 -1 13 4 -30 -65)
1969/12/31/18:00:14.917,(-4 -19 -32 -30 -42 -24 18 1)
1969/12/31/18:00:14.917,(13 -15 9 29 35 55 7 30)
1969/12/31/18:00:14.919,(-12 -16 -34 -45 -38 -35 -42 -10)
1969/12/31/18:00:14.919,(6 -55 -49 -6 0 3 37 51)
1969/12/31/18:00:14.937,(12 74 41 -11 -41 -4 6 -23)
1969/12/31/18:00:14.937,(-45 30 47 38 65 27 7 -34)
1969/12/31/18:00:14.938,(49 -88 -94 -21 27 14 29 59)
1969/12/31/18:00:14.938,(-34 106 67 -8 -94 -41 -25 -32)
1969/12/31/18:00:14.950,(0 -31 -56 8 21 5 3 24)
1969/12/31/18:00:14.950,(20 -19 1 7 9 5 15 46)
1969/12/31/18:00:14.951,(-16 22 28 34 47 35 -5 -25)
1969/12/31/18:00:14.951,(46 -89 -78 -38 -10 -27 -13 48)
1969/12/31/18:00:14.968,(8 -13 -8 7 40 28 29 60)
1969/12/31/18:00:14.968,(-25 52 76 10 -63 -54 -25 -29)
1969/12/31/18:00:14.969,(-36 -10 -12 -8 14 7 -4 -27)
1969/12/31/18:00:14.969,(-11 -55 -22 -4 -2 -3 -8 -18)
1969/12/31/18:00:14.980,(11 0 -19 -17 -26 -5 14 28)
1969/12/31/18:00:14.980,(-38 32 28 9 -9 -15 -9 -29)
1969/12/31/18:00:14.988,(6 2 15 8 -17 -20 -7 0)
1969/12/31/18:00:14.988,(-17 0 -4 -6 21 24 4 -23)
1969/12/31/18:00:15.000,(17 -39 -31 11 25 -11 -8 4)
1969/12/31/18:00:15.000,(28 -7 -36 -26 0 27 6 2)
1969/12/31/18:00:15.002,(-41 29 13 4 -33 -37 -11 -35)
1969/12/31/18:00:15.002,(-36 -6 6 29 64 32 9 -12)
1969/12/31/18:00:15.019,(34 52 38 6 -23 12 33 22)
1969/12/31/18:00:15.019,(-37 -19 -1 -27 -59 -72 -53 -6)
1969/12/31/18:00:15.020,(-5 -10 -6 16 38 25 14 -8)
1969/12/31/18:00:15.020,(-9 -10 -9 -31 -58 -32 -21 -21)
1969/12/31/18:00:15.030,(34 -39 -39 -13 -4 12 40 63)
1969/12/31/18:00:15.030,(16 17 -11 -12 4 14 7 23)
1969/12/31/18:00:15.039,(-30 -12 15 -9 -10 -19 -4 -27)
1969/12/31/18:00:15.039,(9 -22 -18 15 40 19 2 -4)
1969/12/31/18:00:15.051,(-75 -31 7 4 25 22 -18 -62)
1969/12/31/18:00:15.051,(17 -1 -20 -6 -34 -27 -1 -12)
1969/12/31/18:00:15.053,(18 9 6 3 -1 -3 -2 14)
1969/12/31/18:00:15.053,(14 69 44 14 12 10 -10 -16)
1969/12/31/18:00:15.071,(-6 37 6 2 -1 12 -22 -26)
1969/12/31/18:00:15.071,(-13 4 31 31 43 -9 7 -9)
1969/12/31/18:00:15.072,(55 -39 -57 -42 -36 21 16 50)
1969/12/31/18:00:15.072,(-2 3 10 1 -6 3 -11 -29)
1969/12/31/18:00:15.082,(6 40 19 7 -39 -26 -4 -18)
1969/12/31/18:00:15.082,(9 -54 -35 -10 15 15 14 2)
1969/12/31/18:00:15.090,(6 28 11 1 -23 -32 -5 -10)
1969/12/31/18:00:15.090,(37 27 20 22 64 36 7 45)
1969/12/31/18:00:15.102,(-63 -47 -16 -18 -23 -51 -36 -56)
1969/12/31/18:00:15.102,(116 43 -1 5 22 25 25 67)
1969/12/31/18:00:15.104,(8 -22 -32 -15 -26 -11 12 52)
1969/12/31/18:00:15.104,(-27 81 92 51 32 11 -8 -40)
1969/12/31/18:00:15.121,(41 -12 -50 -25 -32 -14 -4 17)
1969/12/31/18:00:15.121,(-38 -79 -24 -19 -9 -9 -14 -14)
1969/12/31/18:00:15.122,(-1 125 106 52 38 24 -2 -26)
1969/12/31/18:00:15.122,(23 -50 -49 -4 16 16 17 34)
1969/12/31/18:00:15.132,(-29 -16 7 -8 -25 -25 -23 -29)
1969/12/31/18:00:15.132,(-59 -33 -18 -7 -16 -6 14 -24)
1969/12/31/18:00:15.141,(-3 -11 -18 -44 -37 -27 -37 -9)
1969/12/31/18:00:15.141,(-13 -31 -19 10 51 17 1 -7)
1969/12/31/18:00:15.153,(-22 -4 14 16 19 30 1 -24)
1969/12/31/18:00:15.153,(19 15 -8 -13 42 25 -8 11)
1969/12/31/18:00:15.158,(6 14 13 17 -61 -28 5 -5)
1969/12/31/18:00:15.158,(-12 -1 -11 -24 -35 -31 25 13)
1969/12/31/18:00:15.172,(42 3 1 21 28 16 -2 18)
1969/12/31/18:00:15.172,(-55 -16 1 8 17 -5 -26 -76)
1969/12/31/18:00:15.184,(4 14 2 -9 11 11 0 -1)
1969/12/31/18:00:15.184,(-3 -44 -25 -21 -42 -11 -13 11)
1969/12/31/18:00:15.192,(9 -10 -19 -1 12 -4 5 4)
1969/12/31/18:00:15.192,(18 55 35 5 -10 6 -1 21)
1969/12/31/18:00:15.194,(-17 -17 -4 3 7 -13 -8 9)
1969/12/31/18:00:15.194,(-2 -30 -34 -15 -10 22 14 -7)
1969/12/31/18:00:15.204,(-16 -6 4 0 2 -3 -30 -1)
1969/12/31/18:00:15.204,(40 33 8 4 2 -9 37 52)
1969/12/31/18:00:15.209,(-20 -28 -15 2 17 0 -27 -37)
1969/12/31/18:00:15.209,(3 8 -6 -9 -15 -33 -18 -11)
1969/12/31/18:00:15.223,(-11 5 9 -5 -9 -2 -16 -21)
1969/12/31/18:00:15.223,(34 21 11 -7 -16 23 -5 14)
1969/12/31/18:00:15.225,(-2 -1 -2 17 29 13 37 15)
1969/12/31/18:00:15.225,(-15 -13 -9 -6 -2 -9 -14 -24)
1969/12/31/18:00:15.242,(1 -4 18 23 14 23 8 3)
1969/12/31/18:00:15.242,(-23 -11 -9 -1 -13 -55 8 -20)
1969/12/31/18:00:15.244,(38 16 7 -17 -4 22 -53 -11)
1969/12/31/18:00:15.244,(8 5 -7 7 -2 3 41 16)
1969/12/31/18:00:15.255,(18 7 -4 -14 -17 -10 18 17)
1969/12/31/18:00:15.255,(-37 -10 0 23 23 2 -35 -15)
1969/12/31/18:00:15.260,(-37 -18 -9 -6 -10 -23 -18 -61)
1969/12/31/18:00:15.260,(-3 -18 -5 -14 -16 -16 10 8)
1969/12/31/18:00:15.274,(24 25 15 4 9 -13 18 44)
1969/12/31/18:00:15.274,(10 -4 1 2 5 46 17 45)
1969/12/31/18:00:15.275,(33 30 5 2 -3 -31 24 34)
1969/12/31/18:00:15.275,(-30 -41 -20 -16 -9 21 -53 -44)
1969/12/31/18:00:15.293,(8 7 9 -1 -1 -50 -4 -9)
1969/12/31/18:00:15.293,(-24 1 2 -5 -9 6 -47 -22)
1969/12/31/18:00:15.295,(27 13 5 13 20 18 56 35)
1969/12/31/18:00:15.295,(-16 -7 1 -7 -6 1 11 7)
1969/12/31/18:00:15.306,(-13 -9 -6 2 1 53 -11 -10)
1969/12/31/18:00:15.306,(-21 -1 -7 -5 -10 -28 -16 -42)
1969/12/31/18:00:15.318,(20 -10 -3 6 11 18 12 30)
1969/12/31/18:00:15.318,(15 9 8 -2 -14 -27 -2 23)
1969/12/31/18:00:15.325,(0 3 -4 -5 10 25 -23 -68)
1969/12/31/18:00:15.325,(21 11 -4 -2 -4 1 12 -1)
1969/12/31/18:00:15.326,(-57 -37 -2 5 8 11 10 -38)
1969/12/31/18:00:15.326,(36 18 -1 -4 -10 -2 0 10)
1969/12/31/18:00:15.344,(13 4 2 0 6 -14 33 21)
1969/12/31/18:00:15.344,(27 3 0 -5 -11 -7 -8 4)
1969/12/31/18:00:15.346,(-38 -35 -22 -4 0 -11 -29 2)
1969/12/31/18:00:15.346,(-30 -3 6 2 0 9 6 -18)
1969/12/31/18:00:15.357,(5 8 0 -3 -7 -16 -18 9)
1969/12/31/18:00:15.357,(7 13 15 11 11 12 14 -29)
1969/12/31/18:00:15.362,(-11 0 0 0 2 9 0 20)
1969/12/31/18:00:15.362,(-8 3 -1 -1 1 3 -12 -1)
1969/12/31/18:00:15.376,(-32 -28 -11 -5 -4 -7 4 1)
1969/12/31/18:00:15.376,(-6 -13 -9 -10 -6 -3 5 0)
1969/12/31/18:00:15.377,(63 35 15 14 15 14 1 30)
1969/12/31/18:00:15.377,(-46 -9 -2 0 -3 -12 -16 -25)
1969/12/31/18:00:15.395,(-4 2 3 0 9 88 33 19)
1969/12/31/18:00:15.395,(-53 -9 -10 -8 -12 -59 -42 -57)
1969/12/31/18:00:15.397,(-21 -14 -11 -15 -26 -8 6 -25)
1969/12/31/18:00:15.397,(68 37 6 3 8 4 3 32)
1969/12/31/18:00:15.407,(-55 -15 10 8 4 -4 -28 -56)
1969/12/31/18:00:15.407,(40 11 -4 0 3 9 20 32)
1969/12/31/18:00:15.420,(-43 -22 6 3 6 11 -1 -28)
1969/12/31/18:00:15.420,(30 11 -4 -10 -10 -17 -31 -83)
1969/12/31/18:00:15.427,(-11 -9 -15 -16 -18 -45 -10 7)
1969/12/31/18:00:15.427,(-9 -8 7 8 7 21 12 11)
1969/12/31/18:00:15.429,(2 5 -4 -4 -3 -7 4 40)
1969/12/31/18:00:15.429,(-15 -17 -6 -1 -4 9 -6 2)
1969/12/31/18:00:15.446,(16 1 4 4 3 -14 6 19)
1969/12/31/18:00:15.446,(-12 -5 -7 -3 0 -3 1 -45)
1969/12/31/18:00:15.448,(15 11 3 -6 -1 21 -13 -16)
1969/12/31/18:00:15.448,(-3 -11 4 6 3 -4 29 87)
1969/12/31/18:00:15.458,(-2 -6 -7 -5 -8 -10 2 -11)
1969/12/31/18:00:15.458,(6 0 8 3 3 5 3 23)
1969/12/31/18:00:15.466,(14 9 2 8 5 -2 4 4)
1969/12/31/18:00:15.466,(-2 3 -1 -2 0 1 6 8)
1969/12/31/18:00:15.478,(8 0 1 -2 -3 -11 -1 9)
1969/12/31/18:00:15.478,(-14 -6 -14 -9 -4 10 -1 9)
1969/12/31/18:00:15.479,(8 5 11 6 5 1 4 -3)
1969/12/31/18:00:15.479,(3 1 -20 -12 -6 -5 -9 -14)
1969/12/31/18:00:15.497,(-13 -20 6 2 -3 -7 -3 5)
1969/12/31/18:00:15.497,(26 25 19 12 4 7 5 12)
1969/12/31/18:00:15.499,(7 -13 -18 -7 1 -4 -2 -6)
1969/12/31/18:00:15.499,(19 34 23 15 4 -2 5 24)
1969/12/31/18:00:15.509,(-7 2 -7 -6 1 -3 4 14)
1969/12/31/18:00:15.509,(0 -12 -8 -6 -1 6 3 15)
1969/12/31/18:00:15.517,(3 -12 -12 -7 -8 -7 -6 -8)
1969/12/31/18:00:15.517,(-7 -35 -29 -13 -1 5 4 -1)
1969/12/31/18:00:15.529,(7 23 27 15 3 -5 1 5)
1969/12/31/18:00:15.529,(11 21 21 3 -2 -3 0 4)
1969/12/31/18:00:15.530,(-2 -16 -10 -3 -4 1 -4 -2)
1969/12/31/18:00:15.530,(-18 2 14 15 8 0 8 -9)
1969/12/31/18:00:15.549,(1 -5 -21 -11 -9 -16 -28 -14)
1969/12/31/18:00:15.549,(-12 -14 -9 -7 0 2 1 0)
1969/12/31/18:00:15.550,(-1 18 21 9 8 6 6 -2)
1969/12/31/18:00:15.550,(-4 -18 -21 -16 -12 -6 4 -4)
1969/12/31/18:00:15.560,(19 39 13 -1 -2 -3 -2 0)
1969/12/31/18:00:15.560,(-1 -27 -28 -15 -3 2 1 4)
1969/12/31/18:00:15.567,(-10 24 41 19 6 -1 -1 -5)
1969/12/31/18:00:15.567,(-6 -48 -18 3 4 7 1 -3)
1969/12/31/18:00:15.580,(-6 -13 -26 -8 -7 -2 7 1)
1969/12/31/18:00:15.580,(17 95 88 30 9 -2 -23 -1)
1969/12/31/18:00:15.581,(7 2 -11 -8 -6 -11 -9 -7)
1969/12/31/18:00:15.581,(-10 -7 -9 -2 0 -2 3 -9)
1969/12/31/18:00:15.600,(-11 -37 -5 -2 -1 -4 -8 0)
1969/12/31/18:00:15.600,(-1 -31 -50 -17 -5 2 18 4)
1969/12/31/18:00:15.601,(4 28 16 -4 -2 -4 -7 -6)
1969/12/31/18:00:15.601,(0 26 49 24 8 2 -6 -2)
1969/12/31/18:00:15.611,(-1 -9 -21 -8 0 0 10 2)
1969/12/31/18:00:15.611,(-5 -57 -28 -4 -4 -1 6 -1)
1969/12/31/18:00:15.618,(3 50 18 -1 3 4 -14 3)
1969/12/31/18:00:15.618,(-5 -50 -60 -29 -13 -6 1 -7)
1969/12/31/18:00:15.631,(-8 43 35 15 2 -4 -2 -11)
1969/12/31/18:00:15.631,(0 13 20 17 5 3 -7 1)
1969/12/31/18:00:15.632,(-5 -49 -50 -13 -5 4 7 -4)
1969/12/31/18:00:15.632,(0 -13 -15 -17 -3 3 12 14)
1969/12/31/18:00:15.651,(4 42 36 7 -3 -2 -18 -17)
1969/12/31/18:00:15.651,(-2 -85 -72 -21 -5 3 13 9)
1969/12/31/18:00:15.652,(-1 89 90 39 10 -2 4 -2)
1969/12/31/18:00:15.652,(12 17 15 14 5 -3 -2 2)
1969/12/31/18:00:15.662,(-17 -52 -36 -19 -6 -9 15 5)
1969/12/31/18:00:15.662,(2 7 -7 -12 -3 -13 -10 -6)
1969/12/31/18:00:15.675,(-4 -34 -25 -6 5 -1 9 0)
1969/12/31/18:00:15.675,(-4 15 24 2 -1 3 -10 -14)
1969/12/31/18:00:15.682,(3 -18 -22 -14 -5 6 -2 6)
1969/12/31/18:00:15.682,(10 44 15 4 -1 0 1 -8)
1969/12/31/18:00:15.684,(-17 -123 -60 -23 -13 -7 -3 5)
1969/12/31/18:00:15.684,(5 123 84 35 12 -2 -6 -9)
1969/12/31/18:00:15.701,(27 -11 -19 -1 -1 -5 -11 3)
1969/12/31/18:00:15.701,(-7 -3 -5 -5 2 4 9 6)
1969/12/31/18:00:15.703,(1 2 0 -4 -1 -1 11 -3)
1969/12/31/18:00:15.703,(-18 -49 -30 -16 -8 -9 -32 -14)
1969/12/31/18:00:15.713,(-12 -24 -21 -23 -7 2 6 -2)
1969/12/31/18:00:15.713,(-7 17 33 4 0 1 -14 -16)
1969/12/31/18:00:15.720,(10 -43 -36 9 6 9 0 8)
1969/12/31/18:00:15.720,(1 10 31 9 -2 5 7 4)
1969/12/31/18:00:15.733,(-1 24 28 30 7 6 6 3)
1969/12/31/18:00:15.733,(-5 -17 -15 -4 -3 -4 -10 -4)
1969/12/31/18:00:15.735,(-11 -35 -51 -36 -16 -10 -5 -4)
1969/12/31/18:00:15.735,(22 -9 -8 2 5 -4 6 10)
1969/12/31/18:00:15.752,(4 1 22 28 12 -1 12 11)
1969/12/31/18:00:15.752,(0 3 9 -1 -2 -10 1 2)
1969/12/31/18:00:15.754,(-1 -6 4 7 4 -6 0 -3)
1969/12/31/18:00:15.754,(0 13 23 13 7 -1 3 0)
1969/12/31/18:00:15.764,(-6 10 7 -7 -1 2 -4 -4)
1969/12/31/18:00:15.764,(-14 -22 -10 -5 -1 8 0 -5)
1969/12/31/18:00:15.777,(3 40 43 9 0 6 -13 -14)
1969/12/31/18:00:15.777,(-12 -10 -24 -16 -7 10 -9 -13)
1969/12/31/18:00:15.784,(4 9 6 -1 -2 11 -6 -2)
1969/12/31/18:00:15.784,(-19 -15 -1 3 -4 9 -13 -16)
1969/12/31/18:00:15.791,(0 -7 -15 -13 -6 14 -1 1)
1969/12/31/18:00:15.791,(-9 3 -12 -18 -12 1 -11 -15)
1969/12/31/18:00:15.803,(-2 2 1 9 2 4 -6 -6)
1969/12/31/18:00:15.803,(4 16 11 8 0 7 3 5)
1969/12/31/18:00:15.805,(19 21 4 4 -8 -10 2 12)
1969/12/31/18:00:15.805,(22 -47 -12 14 -11 -38 20 34)
1969/12/31/18:00:15.822,(50 31 -25 9 -2 -69 31 50)
1969/12/31/18:00:15.822,(23 -28 -28 -2 12 -82 28 45)
1969/12/31/18:00:15.823,(1 -14 -14 4 26 -59 19 23)
1969/12/31/18:00:15.823,(-10 18 4 0 27 -15 12 2)
1969/12/31/18:00:15.835,(-32 -16 7 -21 13 5 -3 -23)
1969/12/31/18:00:15.835,(-23 42 31 1 7 18 -6 -27)
1969/12/31/18:00:15.836,(-16 -1 -1 -14 -7 29 -8 -17)
1969/12/31/18:00:15.836,(-21 12 2 -9 -11 23 -14 -35)
1969/12/31/18:00:15.855,(-11 -37 -7 -8 -11 26 -6 -14)
1969/12/31/18:00:15.855,(-1 -1 -30 -16 -12 25 -5 -9)
1969/12/31/18:00:15.856,(-2 -5 0 1 -12 18 -5 -4)
1969/12/31/18:00:15.856,(5 -1 -3 -2 -10 15 -4 2)
1969/12/31/18:00:15.866,(-18 -28 -10 -3 -5 14 -3 -5)
1969/12/31/18:00:15.866,(9 11 7 3 -1 10 -6 1)
1969/12/31/18:00:15.873,(-6 8 -3 -6 -6 1 -10 -15)
1969/12/31/18:00:15.873,(1 -4 -4 -2 -2 3 -8 0)
1969/12/31/18:00:15.887,(-13 -9 -5 -8 -5 0 -12 -15)
1969/12/31/18:00:15.887,(6 2 11 6 -3 7 -2 4)
1969/12/31/18:00:15.888,(2 6 2 -2 -5 3 -5 -2)
1969/12/31/18:00:15.888,(-3 5 8 4 0 3 -4 -1)
1969/12/31/18:00:15.912,(-4 -14 -1 -7 -4 7 -8 -5)
1969/12/31/18:00:15.912,(8 17 13 13 5 7 0 5)
1969/12/31/18:00:15.918,(3 2 3 2 -6 -8 -7 -5)
1969/12/31/18:00:15.918,(-3 -19 -24 -12 -6 -3 1 1)
1969/12/31/18:00:15.919,(1 6 1 0 0 -2 -3 2)
1969/12/31/18:00:15.919,(-1 -15 1 -4 -2 1 -1 -3)
