time,.data
1969-12-31 18:00:05.513000000,(-2 -4 -9 -9 -5 -2 1 -2)
1969-12-31 18:00:05.513000000,(-1 -2 3 0 -3 -1 -2 -1)
1969-12-31 18:00:05.513000000,(-3 -2 -4 0 -2 -1 0 0)
1969-12-31 18:00:05.513000000,(0 1 -1 -4 -1 -1 -4 -1)
1969-12-31 18:00:05.515232143,(-1 0 -8 2 -2 -9 -1 -1)
1969-12-31 18:00:05.515232143,(-3 -2 1 -7 0 9 6 0)
1969-12-31 18:00:05.519696429,(0 1 2 -1 -1 -3 -1 0)
1969-12-31 18:00:05.519696429,(-2 -4 -4 -4 -2 7 -9 -4)
1969-12-31 18:00:05.521928571,(2 4 8 7 1 -5 -5 0)
1969-12-31 18:00:05.521928571,(0 0 1 0 0 3 4 1)
1969-12-31 18:00:05.554294643,(-1 -1 -3 -1 0 -1 -1 0)
1969-12-31 18:00:05.554294643,(-2 -5 -9 -6 -1 -2 4 -1)
1969-12-31 18:00:05.555410714,(0 -3 7 5 0 2 -2 -3)
1969-12-31 18:00:05.555410714,(2 3 -4 -2 3 -1 -3 0)
1969-12-31 18:00:05.562107143,(4 8 37 28 3 -1 -2 1)
1969-12-31 18:00:05.562107143,(0 -3 -22 -5 -1 -1 -1 0)
1969-12-31 18:00:05.563223214,(-2 -2 -4 -12 -4 0 -1 -3)
1969-12-31 18:00:05.563223214,(1 -3 -4 7 0 -2 2 0)
1969-12-31 18:00:05.576616070,(-7 -11 -23 -31 -9 -1 -1 -5)
1969-12-31 18:00:05.576616070,(-2 -1 -4 2 -2 -5 1 -1)
1969-12-31 18:00:05.587776786,(2 4 5 2 1 -2 3 3)
1969-12-31 18:00:05.587776786,(-3 -1 -12 -19 -2 3 -14 -5)
1969-12-31 18:00:05.612330357,(7 17 42 52 16 2 0 4)
1969-12-31 18:00:05.612330357,(-1 -5 0 8 2 -2 2 1)
1969-12-31 18:00:05.613446429,(-3 -4 -26 -24 -8 -4 -2 -2)
1969-12-31 18:00:05.613446429,(2 8 40 28 4 -4 -3 0)
1969-12-31 18:00:05.672598214,(-3 -6 -24 -21 -5 -2 0 -1)
1969-12-31 18:00:05.672598214,(-2 -4 -1 -7 -3 -2 1 -2)
1969-12-31 18:00:05.674830357,(-4 -8 -20 -6 -2 4 4 0)
1969-12-31 18:00:05.674830357,(-1 2 9 -10 -4 -8 -6 0)
1969-12-31 18:00:05.674830357,(1 5 11 16 3 5 2 -2)
1969-12-31 18:00:05.674830357,(1 4 11 7 3 2 4 4)
1969-12-31 18:00:05.679294643,(-3 -6 -4 -10 -3 1 -4 -6)
1969-12-31 18:00:05.679294643,(-1 -4 -10 5 -1 -3 2 2)
1969-12-31 18:00:05.680410714,(-3 -4 -9 -8 -3 -4 -8 -11)
1969-12-31 18:00:05.680410714,(-1 1 5 -2 -3 0 -1 -3)
1969-12-31 18:00:05.696035714,(-1 -7 -14 -11 -1 0 1 2)
1969-12-31 18:00:05.696035714,(-3 -3 -5 -6 -4 -1 -3 -5)
1969-12-31 18:00:05.698267857,(1 1 4 4 0 1 -1 -1)
1969-12-31 18:00:05.698267857,(1 2 9 8 1 0 4 2)
1969-12-31 18:00:05.710544643,(-2 0 -4 -3 -1 0 1 2)
1969-12-31 18:00:05.710544643,(-1 -4 -3 -1 0 -1 -1 -1)
1969-12-31 18:00:05.720589286,(0 2 4 3 0 -4 -5 0)
1969-12-31 18:00:05.720589286,(-2 -6 -16 -7 -2 -1 0 -3)
1969-12-31 18:00:05.737330357,(1 -8 -8 -8 -2 0 7 13)
1969-12-31 18:00:05.737330357,(0 4 3 -4 -2 -6 -7 -10)
1969-12-31 18:00:05.739562500,(2 3 5 4 0 0 -2 -1)
1969-12-31 18:00:05.739562500,(-1 -3 -8 0 -1 1 4 5)
1969-12-31 18:00:05.763000000,(0 -7 -11 -14 -6 -3 -3 0)
1969-12-31 18:00:05.763000000,(1 5 9 6 3 1 2 4)
1969-12-31 18:00:05.764116071,(1 3 8 6 0 -5 -4 -2)
1969-12-31 18:00:05.764116071,(-2 -7 -11 -5 -2 3 -5 -11)
1969-12-31 18:00:05.814339286,(-2 5 -2 -8 -9 -4 -5 -6)
1969-12-31 18:00:05.814339286,(0 1 2 10 5 0 -3 0)
1969-12-31 18:00:05.816571429,(-1 -1 1 3 2 -1 0 -1)
1969-12-31 18:00:05.816571429,(0 0 3 7 5 4 10 13)
1969-12-31 18:00:05.816571429,(-3 -6 -17 -16 -10 -5 -7 -12)
1969-12-31 18:00:05.816571429,(0 4 15 -6 -5 -2 -1 2)
1969-12-31 18:00:05.838892857,(0 1 3 23 23 5 4 6)
1969-12-31 18:00:05.838892857,(-2 0 -2 8 4 -1 -3 -5)
1969-12-31 18:00:05.838892857,(-1 -2 1 3 4 2 0 -2)
1969-12-31 18:00:05.838892857,(-2 -8 -11 -12 -13 -4 -2 -2)
1969-12-31 18:00:05.841125000,(1 1 4 -14 -10 -1 1 -1)
1969-12-31 18:00:05.841125000,(2 2 2 3 4 -4 -2 -1)
1969-12-31 18:00:05.854517857,(2 0 -4 1 -1 0 -2 -3)
1969-12-31 18:00:05.854517857,(-1 -2 -2 -1 -1 -1 0 0)
1969-12-31 18:00:05.861214286,(-4 -3 0 -4 -5 0 1 4)
1969-12-31 18:00:05.861214286,(0 3 -1 -3 -4 -5 -8 -14)
1969-12-31 18:00:05.870142857,(0 -1 1 -3 -2 -5 -6 -6)
1969-12-31 18:00:05.870142857,(0 1 0 5 3 1 0 1)
1969-12-31 18:00:05.877955357,(0 2 2 2 -2 2 -1 -1)
1969-12-31 18:00:05.877955357,(-4 -3 -5 -6 -6 -3 -3 -2)
1969-12-31 18:00:05.895812500,(0 -3 1 0 2 -1 -1 1)
1969-12-31 18:00:05.896928571,(-2 0 -2 -1 1 0 2 -1)
1969-12-31 18:00:05.898044643,(1 2 3 3 -2 -1 -3 -4)
1969-12-31 18:00:05.898044643,(-5 0 -1 -3 -2 2 3 2)
1969-12-31 18:00:05.921482143,(-2 -1 -2 -2 0 0 1 1)
1969-12-31 18:00:05.921482143,(4 3 -1 2 -2 -2 -2 0)
1969-12-31 18:00:05.923714286,(-2 -6 -2 -3 -4 0 4 7)
1969-12-31 18:00:05.923714286,(0 -2 -3 -4 -1 -1 -2 -1)
1969-12-31 18:00:05.938223214,(-1 3 2 1 2 1 2 3)
1969-12-31 18:00:05.938223214,(-2 -4 -1 -2 -1 1 0 0)
1969-12-31 18:00:05.971705357,(-3 -4 -3 -2 -4 -2 -2 -4)
1969-12-31 18:00:05.971705357,(1 2 1 -3 -2 -1 0 2)
1969-12-31 18:00:05.972821429,(-2 -2 -1 0 0 -1 0 1)
1969-12-31 18:00:05.972821429,(0 -8 -6 -1 -1 -1 -2 0)
1969-12-31 18:00:05.989562500,(0 0 -3 -3 -1 -1 -1 -4)
1969-12-31 18:00:05.989562500,(0 5 3 -2 -1 -1 2 4)
1969-12-31 18:00:05.989562500,(-6 -15 -1 2 -3 -1 0 -3)
1969-12-31 18:00:05.989562500,(2 6 -3 0 0 0 0 0)
1969-12-31 18:00:05.991794643,(-5 -6 -2 -3 -2 -1 -3 -4)
1969-12-31 18:00:05.991794643,(2 16 6 0 -2 -1 1 0)
1969-12-31 18:00:06.014116071,(-3 -21 -10 -6 -3 -1 2 2)
1969-12-31 18:00:06.014116071,(9 21 17 7 4 0 -11 -13)
1969-12-31 18:00:06.015232142,(-4 -2 -4 -2 -1 0 1 4)
1969-12-31 18:00:06.015232142,(4 -4 -5 -2 -1 2 3 15)
1969-12-31 18:00:06.030857142,(-1 1 -3 -1 -2 -3 -3 -5)
1969-12-31 18:00:06.030857142,(-3 -10 -9 -2 0 1 6 5)
1969-12-31 18:00:06.031973213,(16 8 0 0 1 2 6 31)
1969-12-31 18:00:06.031973213,(-5 -9 -4 -3 -2 -2 -2 -7)
1969-12-31 18:00:06.055410714,(2 4 0 1 2 1 5 10)
1969-12-31 18:00:06.055410714,(-5 -5 -4 -3 -2 -5 -4 -10)
1969-12-31 18:00:06.057642857,(2 6 6 0 -1 -2 -2 2)
1969-12-31 18:00:06.057642857,(-3 -5 -8 -4 -4 -2 2 -3)
1969-12-31 18:00:06.071035714,(11 8 3 1 1 0 -2 -1)
1969-12-31 18:00:06.071035714,(-17 -4 1 -1 -1 -2 -4 -6)
1969-12-31 18:00:06.081080357,(-3 0 6 1 -1 0 -7 -21)
1969-12-31 18:00:06.081080357,(1 -1 6 3 -1 4 5 16)
1969-12-31 18:00:06.123491071,(-30 -12 -3 -6 -8 -8 -23 -45)
1969-12-31 18:00:06.123491071,(23 6 6 3 1 7 16 32)
1969-12-31 18:00:06.125723214,(-11 -9 -3 -4 -6 -7 -19 -35)
1969-12-31 18:00:06.125723214,(20 -2 -2 -1 -1 0 8 36)
1969-12-31 18:00:06.126839286,(-15 4 3 1 -2 -6 -5 -25)
1969-12-31 18:00:06.126839286,(36 3 -8 -3 -1 7 0 34)
1969-12-31 18:00:06.131303571,(-7 -2 1 1 0 1 1 -11)
1969-12-31 18:00:06.131303571,(-36 -12 -6 -1 -1 -3 0 -7)
1969-12-31 18:00:06.138000000,(54 25 8 5 7 14 18 63)
1969-12-31 18:00:06.138000000,(-6 7 -5 -6 -6 -5 19 -14)
1969-12-31 18:00:06.148044643,(-58 -19 -6 -1 0 0 4 -32)
1969-12-31 18:00:06.148044643,(-33 -23 -10 -8 -7 -15 -45 -51)
1969-12-31 18:00:06.164785714,(2 -8 -4 -3 -3 -11 10 20)
1969-12-31 18:00:06.164785714,(30 14 11 8 17 40 8 -2)
1969-12-31 18:00:06.165901786,(-58 -20 -13 -11 -15 -29 -17 -8)
1969-12-31 18:00:06.165901786,(-7 -13 -4 -3 -2 -7 -10 -37)
1969-12-31 18:00:06.189339286,(-14 2 -4 -5 -3 -7 1 -1)
1969-12-31 18:00:06.189339286,(31 15 -2 -2 -3 0 -4 -8)
1969-12-31 18:00:06.191571429,(33 9 4 1 8 28 3 1)
1969-12-31 18:00:06.191571429,(-27 -13 -8 -5 -7 -40 0 -2)
1969-12-31 18:00:06.204964286,(22 -1 -2 -2 1 34 8 14)
1969-12-31 18:00:06.204964286,(-109 -45 -14 -13 -15 -30 -36 -78)
1969-12-31 18:00:06.215008929,(-1 1 -1 -3 -3 -18 -4 -1)
1969-12-31 18:00:06.215008929,(16 9 4 3 4 26 14 23)
1969-12-31 18:00:06.231750000,(38 27 11 8 7 6 6 19)
1969-12-31 18:00:06.231750000,(-9 11 6 6 3 -7 9 -13)
1969-12-31 18:00:06.232866071,(30 8 -3 -4 -1 -1 -3 2)
1969-12-31 18:00:06.232866071,(20 -8 -3 -1 3 7 -4 -2)
1969-12-31 18:00:06.280857143,(-39 -22 4 6 5 2 12 2)
1969-12-31 18:00:06.280857143,(52 28 17 9 6 7 -2 65)
1969-12-31 18:00:06.299830357,(-28 -27 -16 -8 -6 -15 -16 -45)
1969-12-31 18:00:06.299830357,(-39 -7 -5 -4 -5 0 9 -13)
1969-12-31 18:00:06.300946429,(22 8 5 2 2 -4 -7 6)
1969-12-31 18:00:06.300946429,(-3 13 10 8 7 -12 -23 -3)
1969-12-31 18:00:06.302062500,(71 7 0 1 5 28 7 92)
1969-12-31 18:00:06.302062500,(-70 -22 -9 -10 -15 -24 25 -21)
1969-12-31 18:00:06.306526786,(-31 -21 -11 -7 -4 -4 -33 -34)
1969-12-31 18:00:06.306526786,(19 13 0 -1 -3 -9 12 20)
1969-12-31 18:00:06.308758929,(52 40 17 16 17 52 31 63)
1969-12-31 18:00:06.308758929,(39 4 0 -1 3 -9 -16 -15)
1969-12-31 18:00:06.323267857,(-14 -6 -7 -8 -14 -38 -18 -14)
1969-12-31 18:00:06.323267857,(-50 -40 -18 -12 -11 -14 4 -25)
1969-12-31 18:00:06.325500000,(-6 9 5 1 -3 -22 15 28)
1969-12-31 18:00:06.325500000,(33 10 8 11 17 53 40 56)
1969-12-31 18:00:06.338892857,(-9 -6 -11 -12 -12 -7 3 5)
1969-12-31 18:00:06.338892857,(29 11 1 0 3 -3 -2 -3)
1969-12-31 18:00:06.348937500,(-7 8 1 0 1 8 13 18)
1969-12-31 18:00:06.348937500,(28 38 22 12 13 22 -2 -11)
1969-12-31 18:00:06.364562500,(22 -7 -6 -2 0 -13 20 12)
1969-12-31 18:00:06.364562500,(-8 -10 -7 -4 -5 -8 -37 -12)
1969-12-31 18:00:06.366794643,(-24 -12 -3 -5 -6 -12 1 -25)
1969-12-31 18:00:06.366794643,(30 28 8 6 5 -1 -4 8)
1969-12-31 18:00:06.390232143,(-6 -6 -2 1 0 -1 -2 -6)
1969-12-31 18:00:06.390232143,(15 1 -6 -4 5 49 19 10)
1969-12-31 18:00:06.391348214,(21 8 12 10 -6 -88 -10 13)
1969-12-31 18:00:06.391348214,(-34 -33 -20 -17 -18 -28 -27 -70)
1969-12-31 18:00:06.433758929,(-17 -4 -9 -10 -9 -14 -33 -87)
1969-12-31 18:00:06.433758929,(-32 -14 0 -2 -6 0 26 3)
1969-12-31 18:00:06.435991071,(3 15 9 5 12 43 2 -11)
1969-12-31 18:00:06.435991071,(47 -3 -1 4 6 10 41 87)
1969-12-31 18:00:06.435991071,(-54 -18 -12 -10 -7 -3 -5 30)
1969-12-31 18:00:06.435991071,(-1 -7 -2 -2 -1 11 -20 -35)
1969-12-31 18:00:06.440455357,(-12 -7 -8 -8 -11 -29 -32 -49)
1969-12-31 18:00:06.440455357,(-22 -12 0 1 -2 -15 -16 13)
1969-12-31 18:00:06.457196429,(29 19 9 10 9 29 38 14)
1969-12-31 18:00:06.457196429,(-2 -8 -2 0 -2 -18 -9 -13)
1969-12-31 18:00:06.459428571,(-14 -10 -8 -7 -7 0 5 -3)
1969-12-31 18:00:06.459428571,(24 14 2 1 2 5 -8 32)
1969-12-31 18:00:06.472821429,(26 23 14 9 7 0 -10 -8)
1969-12-31 18:00:06.472821429,(1 7 4 2 7 28 40 28)
1969-12-31 18:00:06.482866071,(14 -20 -10 -3 -3 -6 -30 37)
1969-12-31 18:00:06.482866071,(0 -4 -10 -13 -14 -6 0 -10)
1969-12-31 18:00:06.498491071,(10 14 8 5 5 11 4 -25)
1969-12-31 18:00:06.498491071,(-14 -2 1 -1 1 -4 -3 4)
1969-12-31 18:00:06.500723214,(26 26 6 4 4 10 26 12)
1969-12-31 18:00:06.500723214,(-27 -2 3 5 5 9 2 23)
1969-12-31 18:00:06.524160714,(11 17 4 3 1 -4 -6 -16)
1969-12-31 18:00:06.524160714,(-29 -31 -11 -5 -10 -52 -29 1)
1969-12-31 18:00:06.526392857,(8 -9 -8 -4 -1 38 15 -35)
1969-12-31 18:00:06.526392857,(-2 10 3 0 -4 -43 -6 -20)
1969-12-31 18:00:06.539785714,(46 11 3 4 9 51 44 68)
1969-12-31 18:00:06.539785714,(-48 -5 1 3 -3 -35 -16 -39)
1969-12-31 18:00:06.549830357,(-4 -8 -2 -1 -2 2 0 -22)
1969-12-31 18:00:06.549830357,(50 25 11 11 9 7 12 64)
1969-12-31 18:00:06.591125000,(-28 -19 -6 -5 0 18 -7 -24)
1969-12-31 18:00:06.591125000,(9 -9 -4 -5 -2 4 5 38)
1969-12-31 18:00:06.610098214,(10 -1 -7 -9 0 11 -2 -1)
1969-12-31 18:00:06.610098214,(-13 -5 -5 -6 -11 -13 -37 -84)
1969-12-31 18:00:06.610098214,(3 -13 -4 -4 -4 -16 -12 -23)
1969-12-31 18:00:06.610098214,(75 9 -1 4 6 4 -4 12)
1969-12-31 18:00:06.612330357,(-70 -13 -4 -1 -8 -10 -48 -46)
1969-12-31 18:00:06.612330357,(29 26 16 17 18 -12 39 57)
1969-12-31 18:00:06.615678571,(-95 -49 -20 -21 -34 -38 -57 -122)
1969-12-31 18:00:06.615678571,(12 17 4 -9 2 71 -7 -10)
1969-12-31 18:00:06.617910714,(17 16 5 10 20 35 71 57)
1969-12-31 18:00:06.617910714,(-10 -7 -4 -6 -9 -37 -14 17)
1969-12-31 18:00:06.633535714,(-58 -12 -1 -6 -19 -6 -7 -15)
1969-12-31 18:00:06.633535714,(9 3 -2 -5 -5 -7 10 64)
1969-12-31 18:00:06.635767857,(15 8 15 16 63 49 -2 1)
1969-12-31 18:00:06.635767857,(-25 -2 2 14 -10 13 -6 -16)
1969-12-31 18:00:06.658089286,(42 27 13 5 -18 -22 43 126)
1969-12-31 18:00:06.658089286,(-49 -41 -30 -26 -32 -38 -37 -63)
1969-12-31 18:00:06.659205357,(-40 -6 4 2 5 -15 1 33)
1969-12-31 18:00:06.659205357,(15 6 -2 -4 10 17 -6 -48)
1969-12-31 18:00:06.673714286,(15 8 7 28 70 24 -5 10)
1969-12-31 18:00:06.673714286,(-5 -8 -2 -7 -38 -13 5 -20)
1969-12-31 18:00:06.683758929,(25 -4 -13 -29 -44 -16 7 26)
1969-12-31 18:00:06.683758929,(-22 -5 1 1 -2 -12 -15 -54)
1969-12-31 18:00:06.700500000,(-17 14 3 11 23 25 -27 -73)
1969-12-31 18:00:06.700500000,(-11 -5 8 21 55 5 9 -8)
1969-12-31 18:00:06.701616071,(-6 -18 -6 6 -10 18 5 -25)
1969-12-31 18:00:06.701616071,(8 0 -7 -32 -109 -84 -24 -2)
1969-12-31 18:00:06.742910714,(23 20 3 -12 -12 -17 -1 14)
1969-12-31 18:00:06.742910714,(-14 -15 3 16 21 7 -1 -8)
1969-12-31 18:00:06.745142857,(62 23 7 12 39 9 0 16)
1969-12-31 18:00:06.745142857,(12 7 2 3 45 48 10 12)
1969-12-31 18:00:06.746258929,(28 19 0 -3 -3 5 6 34)
1969-12-31 18:00:06.746258929,(-43 -50 -15 -13 -7 -7 0 -33)
1969-12-31 18:00:06.750723214,(30 16 3 17 -3 -3 11 23)
1969-12-31 18:00:06.750723214,(-22 -21 -34 -5 7 -8 -27 -53)
1969-12-31 18:00:06.767464285,(-13 -4 24 -23 -66 -20 -2 -11)
1969-12-31 18:00:06.767464285,(40 30 -11 -16 -16 3 18 39)
1969-12-31 18:00:06.768580356,(-30 -23 -34 -29 -20 -36 -32 -32)
1969-12-31 18:00:06.768580356,(-44 33 78 23 24 31 -9 -22)
1969-12-31 18:00:06.792017857,(5 -44 -43 13 36 4 -3 -9)
1969-12-31 18:00:06.792017857,(-2 31 37 16 -19 -4 20 25)
1969-12-31 18:00:06.794250000,(-40 -22 -2 -6 -21 -31 -17 -28)
1969-12-31 18:00:06.794250000,(7 -35 -56 -27 8 15 -12 -40)
1969-12-31 18:00:06.807642857,(4 -11 -21 0 6 7 11 21)
1969-12-31 18:00:06.807642857,(10 -3 4 -6 -18 -20 8 21)
1969-12-31 18:00:06.817687500,(-6 23 8 34 90 31 -14 -67)
1969-12-31 18:00:06.817687500,(40 -14 -43 -34 -93 -15 43 60)
1969-12-31 18:00:06.833312500,(-54 73 94 6 16 5 -30 2)
1969-12-31 18:00:06.833312500,(-23 -9 -24 5 15 2 2 -70)
1969-12-31 18:00:06.841125000,(-23 -18 -11 -33 -45 -34 -21 4)
1969-12-31 18:00:06.841125000,(28 -73 -33 38 69 35 24 56)
1969-12-31 18:00:06.858982143,(56 -16 -96 -51 -57 -49 -82 -55)
1969-12-31 18:00:06.858982143,(-41 74 110 20 -2 14 26 43)
1969-12-31 18:00:06.861214286,(29 -48 -17 -6 0 10 19 32)
1969-12-31 18:00:06.861214286,(-37 2 -45 -18 12 11 -2 12)
1969-12-31 18:00:06.900276786,(-8 77 86 69 35 9 29 35)
1969-12-31 18:00:06.900276786,(59 -82 -96 -8 32 13 12 41)
1969-12-31 18:00:06.920366071,(-16 101 58 20 -8 -3 13 20)
1969-12-31 18:00:06.920366071,(13 -44 -35 -14 -25 -3 14 81)
1969-12-31 18:00:06.921482143,(-35 -125 -46 -21 -10 4 23 -33)
1969-12-31 18:00:06.921482143,(11 94 26 -4 -13 -17 -27 26)
1969-12-31 18:00:06.927062500,(-6 -38 -39 -11 2 -21 -2 -5)
1969-12-31 18:00:06.927062500,(-4 8 -4 -3 -1 6 -20 0)
1969-12-31 18:00:06.928178571,(-16 20 13 -26 -35 3 26 -42)
1969-12-31 18:00:06.928178571,(-8 -77 -49 -10 21 21 4 -13)
1969-12-31 18:00:06.929294643,(40 5 -5 -6 -30 -3 -2 -16)
1969-12-31 18:00:06.929294643,(-11 -52 -46 6 52 -11 -34 -34)
1969-12-31 18:00:06.951616071,(10 86 99 34 -33 -46 -33 -16)
1969-12-31 18:00:06.951616071,(43 -57 -84 -33 -41 -23 -7 25)
1969-12-31 18:00:06.952732143,(46 109 66 11 13 9 -1 30)
1969-12-31 18:00:06.952732143,(-92 -70 -18 -3 15 20 -2 -87)
1969-12-31 18:00:06.967241071,(-30 77 57 20 19 11 -4 -42)
1969-12-31 18:00:06.967241071,(30 -42 -11 3 6 -12 -10 -10)
1969-12-31 18:00:06.975053571,(3 -15 -89 -24 -5 -10 14 59)
1969-12-31 18:00:06.975053571,(14 114 108 62 49 34 -2 -44)
1969-12-31 18:00:06.992910714,(40 -119 -98 -4 -8 8 30 83)
1969-12-31 18:00:06.992910714,(-68 60 43 -5 -45 -18 -13 -76)
1969-12-31 18:00:06.994026786,(-40 -128 -95 -64 -85 -66 -21 -54)
1969-12-31 18:00:06.995142857,(57 -16 -37 -21 1 5 5 93)
1969-12-31 18:00:07.018580357,(-20 85 47 21 44 -3 -5 -45)
1969-12-31 18:00:07.018580357,(-8 26 72 48 81 53 -6 3)
1969-12-31 18:00:07.019696429,(-5 -79 -24 16 17 3 -18 -32)
1969-12-31 18:00:07.019696429,(32 18 -35 -33 -67 3 50 15)
1969-12-31 18:00:07.052062500,(-15 -20 -7 -22 -38 -50 -26 -2)
1969-12-31 18:00:07.052062500,(18 114 82 30 38 18 11 -8)
1969-12-31 18:00:07.053178571,(-2 -27 20 35 52 31 15 18)
1969-12-31 18:00:07.053178571,(-26 -62 -52 -27 -11 -14 -49 -55)
1969-12-31 18:00:07.059875000,(2 -118 -99 -42 -14 24 -5 35)
1969-12-31 18:00:07.059875000,(0 -35 -36 -6 4 -19 -4 -48)
1969-12-31 18:00:07.062107143,(-55 90 91 32 37 3 -7 -53)
1969-12-31 18:00:07.062107143,(64 38 38 4 -32 -6 30 74)
1969-12-31 18:00:07.085544643,(-37 51 22 8 -13 3 -15 -31)
1969-12-31 18:00:07.085544643,(-8 -42 -25 -25 -9 3 9 9)
1969-12-31 18:00:07.092241071,(28 -42 -41 -6 22 37 5 -9)
1969-12-31 18:00:07.092241071,(21 -61 -37 1 -13 -48 5 20)
1969-12-31 18:00:07.101169643,(-25 57 33 3 6 0 -25 -29)
1969-12-31 18:00:07.101169643,(-19 55 50 41 51 17 2 64)
1969-12-31 18:00:07.108982143,(29 44 -24 -21 -48 -5 20 38)
1969-12-31 18:00:07.108982143,(-5 27 41 9 33 25 -14 -3)
1969-12-31 18:00:07.127955357,(17 -101 -62 -9 29 31 16 20)
1969-12-31 18:00:07.127955357,(22 80 77 20 -59 -51 -26 -5)
1969-12-31 18:00:07.129071429,(-56 -75 -29 -23 -54 -28 -6 -37)
1969-12-31 18:00:07.129071429,(-6 -52 -31 8 75 33 10 -3)
1969-12-31 18:00:07.152508929,(-3 12 -3 -6 -16 3 27 33)
1969-12-31 18:00:07.152508929,(22 -12 -42 -24 7 30 54 73)
1969-12-31 18:00:07.153625000,(-21 14 33 -4 -47 -44 -52 -48)
1969-12-31 18:00:07.153625000,(-3 -12 -1 6 62 33 -3 -35)
1969-12-31 18:00:07.167017857,(41 -100 -93 -14 0 4 43 79)
1969-12-31 18:00:07.167017857,(8 86 28 -14 -67 -57 -55 -22)
1969-12-31 18:00:07.178178571,(-48 57 76 24 19 12 1 -41)
1969-12-31 18:00:07.178178571,(11 -3 -12 -14 -22 -24 -19 -14)
1969-12-31 18:00:07.211660714,(22 48 25 21 44 18 -31 2)
1969-12-31 18:00:07.211660714,(-35 -128 -85 -21 -8 5 14 -22)
1969-12-31 18:00:07.228401786,(106 90 1 34 77 39 32 101)
1969-12-31 18:00:07.228401786,(-73 127 127 6 -84 -27 -10 -38)
1969-12-31 18:00:07.229517857,(-19 -42 -7 -30 -30 -20 3 -20)
1969-12-31 18:00:07.229517857,(31 -81 -61 -35 -61 -47 -42 -17)
1969-12-31 18:00:07.230633929,(-42 -61 -50 1 17 32 31 55)
1969-12-31 18:00:07.230633929,(-9 20 25 -9 -42 -24 -12 8)
1969-12-31 18:00:07.233982143,(10 -52 -26 -10 21 15 20 19)
1969-12-31 18:00:07.233982143,(25 49 -2 0 24 1 -14 3)
1969-12-31 18:00:07.252955357,(-13 -48 -16 17 46 33 -19 -26)
1969-12-31 18:00:07.252955357,(19 60 18 12 19 8 -20 -15)
1969-12-31 18:00:07.260767857,(-15 -9 8 -9 -55 -33 34 18)
1969-12-31 18:00:07.260767857,(-14 -85 -65 -17 39 23 -10 -10)
1969-12-31 18:00:07.263000000,(7 68 76 9 -78 -24 28 7)
1969-12-31 18:00:07.263000000,(-21 -46 -35 13 75 20 -17 -41)
1969-12-31 18:00:07.286437500,(72 3 -12 -11 -41 -41 -22 25)
1969-12-31 18:00:07.286437500,(-3 -6 -33 5 27 48 39 -2)
1969-12-31 18:00:07.287553571,(-29 72 87 -5 -30 -36 -30 -28)
1969-12-31 18:00:07.287553571,(21 -52 -10 14 8 28 52 73)
1969-12-31 18:00:07.300946429,(52 57 36 19 12 -9 24 48)
1969-12-31 18:00:07.300946429,(33 -18 -7 28 88 63 15 21)
1969-12-31 18:00:07.310991071,(6 -63 -43 -46 -106 -48 -40 -19)
1969-12-31 18:00:07.310991071,(40 4 31 13 35 7 16 52)
1969-12-31 18:00:07.363446429,(-43 110 63 13 -14 -15 -19 -62)
1969-12-31 18:00:07.363446429,(-58 -63 -20 6 -20 -28 -52 -80)
1969-12-31 18:00:07.364562500,(44 -31 -26 -9 -10 -7 43 87)
1969-12-31 18:00:07.364562500,(-26 -4 -2 2 -2 61 24 -58)
1969-12-31 18:00:07.365678571,(36 -21 -28 -35 -22 -39 -43 16)
1969-12-31 18:00:07.365678571,(-75 46 57 13 -12 -10 -5 -49)
1969-12-31 18:00:07.370142857,(-11 -127 -95 -1 95 28 22 -16)
1969-12-31 18:00:07.370142857,(41 57 -8 -21 -44 -12 -2 45)
1969-12-31 18:00:07.371258929,(-44 28 62 29 6 31 18 -1)
1969-12-31 18:00:07.371258929,(52 -27 -42 -31 -27 -17 17 29)
1969-12-31 18:00:07.377955357,(-26 -37 1 -14 -72 -39 -16 -22)
1969-12-31 18:00:07.377955357,(62 25 35 10 8 0 35 76)
1969-12-31 18:00:07.394696429,(-87 -7 -27 7 0 -25 -33 -86)
1969-12-31 18:00:07.394696429,(-8 10 26 -2 -20 -5 -6 27)
1969-12-31 18:00:07.396928571,(-33 -51 -31 1 29 11 12 12)
1969-12-31 18:00:07.396928571,(12 -11 -25 -18 -16 -13 -9 -20)
1969-12-31 18:00:07.420366071,(11 -26 -34 -6 28 27 -15 -9)
1969-12-31 18:00:07.420366071,(51 8 6 4 -73 -24 7 68)
1969-12-31 18:00:07.421482143,(-22 -2 -23 0 58 19 -5 -29)
1969-12-31 18:00:07.421482143,(-96 0 29 33 86 53 -12 -80)
1969-12-31 18:00:07.444919643,(24 -58 -42 -40 -67 -65 -5 17)
1969-12-31 18:00:07.444919643,(-19 -51 -45 -43 -46 -15 10 -10)
1969-12-31 18:00:07.447151786,(57 62 34 8 5 2 19 16)
1969-12-31 18:00:07.447151786,(-53 9 -19 -6 -14 -5 -80 -55)
1969-12-31 18:00:07.462776786,(-28 80 77 49 51 28 23 2)
1969-12-31 18:00:07.462776786,(66 13 -10 0 6 12 25 44)
1969-12-31 18:00:07.463892857,(-86 -85 -11 -1 -12 -18 -55 -97)
1969-12-31 18:00:07.463892857,(37 -14 -30 -18 -14 -23 8 7)
1969-12-31 18:00:07.488446429,(85 -38 -20 -4 -12 12 16 56)
1969-12-31 18:00:07.488446429,(-2 18 1 -7 -19 -31 -23 -9)
1969-12-31 18:00:07.490678571,(-54 72 47 8 68 51 -27 -59)
1969-12-31 18:00:07.490678571,(21 -68 -41 -17 -53 -32 15 16)
1969-12-31 18:00:07.520812500,(17 22 -7 12 88 49 -8 -17)
1969-12-31 18:00:07.520812500,(-8 -11 9 -5 -66 -53 17 28)
1969-12-31 18:00:07.523044643,(-4 -82 -74 -17 12 43 12 20)
1969-12-31 18:00:07.523044643,(-54 124 120 17 -41 -74 -22 -80)
1969-12-31 18:00:07.537553571,(-22 -105 -61 -13 9 20 -16 -22)
1969-12-31 18:00:07.537553571,(30 -13 -20 19 88 45 3 -8)
1969-12-31 18:00:07.538669643,(20 13 50 1 -113 -64 5 27)
1969-12-31 18:00:07.538669643,(6 22 -31 -49 -76 -20 -3 21)
1969-12-31 18:00:07.562107143,(25 -14 -26 0 21 15 22 60)
1969-12-31 18:00:07.562107143,(-61 19 30 9 0 2 -22 -62)
1969-12-31 18:00:07.564339286,(-54 -44 -37 -15 -5 -1 -17 -58)
1969-12-31 18:00:07.564339286,(41 -39 -14 16 61 20 19 55)
1969-12-31 18:00:07.568803571,(-14 45 26 10 -33 -10 14 3)
1969-12-31 18:00:07.568803571,(-35 -29 -15 4 74 36 -13 -47)
1969-12-31 18:00:07.578848214,(51 -12 -32 -10 8 67 27 33)
1969-12-31 18:00:07.578848214,(-20 86 101 55 21 -43 14 3)
1969-12-31 18:00:07.595589286,(6 -59 -75 -55 -84 -38 -24 -27)
1969-12-31 18:00:07.595589286,(-23 -43 28 4 -15 24 6 40)
1969-12-31 18:00:07.597821429,(39 67 20 -2 -4 -33 -11 7)
1969-12-31 18:00:07.597821429,(-22 5 -11 -10 -18 25 7 -25)
1969-12-31 18:00:07.621258929,(11 -2 15 45 127 68 20 5)
1969-12-31 18:00:07.621258929,(-34 37 35 -3 -107 -51 -19 -42)
1969-12-31 18:00:07.622375000,(38 6 0 2 2 -25 7 34)
1969-12-31 18:00:07.622375000,(-32 -89 -66 -33 -79 -41 -20 -19)
1969-12-31 18:00:07.635767857,(22 22 21 13 80 15 4 20)
1969-12-31 18:00:07.635767857,(19 -12 -24 -9 -5 55 45 48)
1969-12-31 18:00:07.673714286,(18 75 73 22 -37 -82 -58 1)
1969-12-31 18:00:07.673714286,(-31 -3 -22 -6 4 13 1 -21)
1969-12-31 18:00:07.674830357,(29 5 26 27 3 23 26 25)
1969-12-31 18:00:07.674830357,(-2 -1 -38 -24 17 -7 -9 -29)
1969-12-31 18:00:07.678178571,(22 23 43 39 81 78 29 37)
1969-12-31 18:00:07.678178571,(11 -39 -31 -38 -103 -82 8 49)
1969-12-31 18:00:07.688223214,(-57 -57 -9 -15 -13 10 -23 -61)
1969-12-31 18:00:07.688223214,(65 117 99 74 82 35 -11 45)
1969-12-31 18:00:07.689339286,(4 18 -40 -38 -96 -45 20 -7)
1969-12-31 18:00:07.689339286,(-16 -76 -31 -7 61 14 -33 -22)
1969-12-31 18:00:07.702732143,(-12 -33 -41 -28 -56 -17 5 1)
1969-12-31 18:00:07.702732143,(14 -103 -95 -20 69 62 33 27)
1969-12-31 18:00:07.712776786,(-16 108 101 47 7 -34 1 -16)
1969-12-31 18:00:07.712776786,(-9 21 31 4 -12 4 -23 -28)
1969-12-31 18:00:07.729517857,(-48 -33 -13 -31 -45 -31 -5 -16)
1969-12-31 18:00:07.729517857,(21 2 3 28 45 8 -2 1)
1969-12-31 18:00:07.731750000,(2 -48 -52 -13 2 7 5 20)
1969-12-31 18:00:07.731750000,(16 -58 -49 5 49 41 31 4)
1969-12-31 18:00:07.755187500,(-25 88 98 22 -1 -2 -12 -19)
1969-12-31 18:00:07.755187500,(13 29 -1 -20 -57 -60 2 10)
1969-12-31 18:00:07.756303571,(-6 -9 -34 -28 10 30 -6 10)
1969-12-31 18:00:07.756303571,(71 48 62 47 52 48 31 63)
1969-12-31 18:00:07.769696429,(-42 -24 -26 -17 -65 -63 -17 -71)
1969-12-31 18:00:07.769696429,(-31 -76 -18 -19 9 14 -7 -34)
1969-12-31 18:00:07.779741071,(-4 19 22 4 -40 -60 -10 -2)
1969-12-31 18:00:07.779741071,(-41 16 -23 -29 -28 -6 -48 -74)
1969-12-31 18:00:07.796482143,(37 -54 -50 -8 55 30 37 80)
1969-12-31 18:00:07.796482143,(-35 -57 -8 -14 -17 7 8 -16)
1969-12-31 18:00:07.828848214,(34 38 -39 1 16 2 10 0)
1969-12-31 18:00:07.828848214,(31 5 8 26 47 25 15 42)
1969-12-31 18:00:07.848937500,(36 48 17 37 116 78 43 22)
1969-12-31 18:00:07.848937500,(-21 47 55 -27 -128 -121 -31 12)
1969-12-31 18:00:07.850053571,(59 -1 38 11 51 44 12 58)
1969-12-31 18:00:07.850053571,(7 18 -15 -10 22 8 -2 26)
1969-12-31 18:00:07.851169643,(23 -28 -62 -15 -78 -87 -34 13)
1969-12-31 18:00:07.851169643,(6 -34 -48 -42 -8 28 41 41)
1969-12-31 18:00:07.855633929,(-9 36 91 49 60 22 -43 -41)
1969-12-31 18:00:07.855633929,(13 38 19 9 -38 -32 13 11)
1969-12-31 18:00:07.872375000,(-4 -12 -3 -1 32 22 -7 -13)
1969-12-31 18:00:07.872375000,(29 12 -15 11 28 10 3 2)
1969-12-31 18:00:07.873491071,(42 -68 -57 -25 -22 4 21 40)
1969-12-31 18:00:07.873491071,(-51 -13 7 -10 -17 4 -9 -47)
1969-12-31 18:00:07.889116071,(29 54 59 40 10 15 15 33)
1969-12-31 18:00:07.889116071,(3 18 12 -18 -61 -63 -34 -10)
1969-12-31 18:00:07.890232143,(-24 -34 -58 -22 15 4 -12 -17)
1969-12-31 18:00:07.890232143,(-6 -63 -21 -3 17 20 5 -20)
1969-12-31 18:00:07.903625000,(1 51 68 20 17 14 4 19)
1969-12-31 18:00:07.903625000,(-29 41 -12 21 -6 -44 -11 -57)
1969-12-31 18:00:07.913669643,(-5 -13 1 -36 -68 -43 -29 -25)
1969-12-31 18:00:07.913669643,(-39 -43 -25 -6 18 7 9 6)
1969-12-31 18:00:07.929294643,(-40 -35 -14 -17 13 47 13 -44)
1969-12-31 18:00:07.930410714,(-2 12 11 11 -7 3 -41 -36)
1969-12-31 18:00:07.938223214,(-28 -13 -11 1 -20 -10 9 1)
1969-12-31 18:00:07.938223214,(66 36 1 -5 -26 -17 32 52)
1969-12-31 18:00:07.982866071,(-94 -71 -47 -19 -11 -1 -27 -39)
1969-12-31 18:00:07.982866071,(7 42 51 32 33 7 6 8)
1969-12-31 18:00:07.983982143,(1 3 -5 3 11 17 17 15)
1969-12-31 18:00:07.983982143,(-14 -75 -40 -21 -16 -11 -15 -9)
1969-12-31 18:00:07.985098214,(88 51 -8 -10 -13 7 21 48)
1969-12-31 18:00:07.985098214,(-14 -5 6 1 17 -12 -19 -5)
1969-12-31 18:00:07.988446429,(-31 34 30 14 2 -4 -5 -13)
1969-12-31 18:00:07.988446429,(4 22 5 6 21 25 -29 -45)
1969-12-31 18:00:07.996258929,(14 -34 -13 22 18 -39 28 22)
1969-12-31 18:00:07.996258929,(-19 -34 -48 -44 -57 -14 -18 -11)
1969-12-31 18:00:08.005187500,(-19 -26 -16 -41 -20 -18 -12 -32)
1969-12-31 18:00:08.005187500,(-23 -21 -15 -5 -13 -18 16 -10)
1969-12-31 18:00:08.021928571,(-8 29 21 4 21 20 -15 -7)
1969-12-31 18:00:08.021928571,(22 64 48 33 19 5 -1 8)
1969-12-31 18:00:08.023044642,(10 -21 -18 -3 60 22 10 21)
1969-12-31 18:00:08.023044642,(57 -26 -15 16 0 13 8 37)
1969-12-31 18:00:08.046482142,(-14 -8 -30 -3 -29 -26 -15 -12)
1969-12-31 18:00:08.046482142,(1 96 96 56 83 45 12 -32)
1969-12-31 18:00:08.047598213,(-55 2 37 2 -56 -38 -45 -54)
1969-12-31 18:00:08.047598213,(13 13 4 -3 4 -19 6 20)
1969-12-31 18:00:08.063223214,(11 -36 -23 -53 -80 -30 -17 2)
1969-12-31 18:00:08.063223214,(-2 -48 -60 -18 37 31 -15 12)
1969-12-31 18:00:08.072151786,(63 31 -5 6 -9 8 33 71)
1969-12-31 18:00:08.072151786,(-80 6 17 15 55 32 -12 -63)
1969-12-31 18:00:08.088892857,(-48 -37 -12 16 56 49 4 -31)
1969-12-31 18:00:08.088892857,(26 -9 -6 -17 -93 -86 24 52)
1969-12-31 18:00:08.090008929,(2 -9 -13 -19 -10 12 -20 -44)
1969-12-31 18:00:08.090008929,(-11 -57 -55 -19 -18 -24 -27 -39)
1969-12-31 18:00:08.140232143,(0 91 90 21 5 6 -1 3)
1969-12-31 18:00:08.140232143,(10 2 -3 3 46 47 15 11)
1969-12-31 18:00:08.141348214,(70 21 8 30 37 27 35 56)
1969-12-31 18:00:08.141348214,(-16 -11 17 4 -23 -21 2 20)
1969-12-31 18:00:08.158089286,(11 -22 -10 -6 -25 -9 -7 1)
1969-12-31 18:00:08.158089286,(0 0 16 10 27 13 10 4)
1969-12-31 18:00:08.159205357,(-64 -45 -38 -21 -29 -29 -47 -49)
1969-12-31 18:00:08.159205357,(41 17 -11 -29 2 4 3 31)
1969-12-31 18:00:08.160321429,(18 30 21 15 -10 2 16 11)
1969-12-31 18:00:08.160321429,(-7 -25 -20 -35 -66 -36 -19 -3)
1969-12-31 18:00:08.163669643,(17 7 2 38 90 49 31 27)
1969-12-31 18:00:08.163669643,(-14 13 25 39 -28 -15 12 6)
1969-12-31 18:00:08.181526786,(1 -6 -14 3 -6 -20 -14 0)
1969-12-31 18:00:08.181526786,(31 -4 -15 -22 -9 15 8 18)
1969-12-31 18:00:08.182642857,(2 -31 -23 -33 -6 19 25 8)
1969-12-31 18:00:08.182642857,(-30 24 28 26 30 -14 -34 -30)
1969-12-31 18:00:08.197151786,(24 7 -7 4 -21 -16 -5 2)
1969-12-31 18:00:08.197151786,(6 11 16 10 29 29 24 28)
1969-12-31 18:00:08.198267857,(-39 -29 -25 -10 -7 -4 -16 -44)
1969-12-31 18:00:08.198267857,(63 35 18 3 51 60 39 48)
1969-12-31 18:00:08.222821429,(-36 -14 -15 -15 -63 -67 -19 -30)
1969-12-31 18:00:08.222821429,(-51 -24 -19 -18 -15 -22 -41 -46)
1969-12-31 18:00:08.223937500,(-2 2 -6 7 8 7 15 6)
1969-12-31 18:00:08.223937500,(23 9 2 -12 -13 10 8 28)
1969-12-31 18:00:08.247375000,(17 -4 3 5 35 31 13 5)
1969-12-31 18:00:08.247375000,(-6 -10 -13 -4 5 -6 1 -11)
1969-12-31 18:00:08.248491071,(-22 11 1 -52 -43 -33 -24 -22)
1969-12-31 18:00:08.248491071,(-35 -28 1 43 8 -5 -11 -26)
1969-12-31 18:00:08.292017857,(10 -8 -8 2 18 12 2 22)
1969-12-31 18:00:08.292017857,(-15 -10 -4 10 -36 3 14 -2)
1969-12-31 18:00:08.293133929,(15 10 19 65 53 -2 -10 13)
1969-12-31 18:00:08.293133929,(-35 8 0 -14 28 11 -1 -26)
1969-12-31 18:00:08.294250000,(-4 2 -1 -7 -5 -8 -6 -9)
1969-12-31 18:00:08.294250000,(18 -6 -2 9 -1 4 2 7)
1969-12-31 18:00:08.297598214,(-14 -16 -15 -34 -34 -14 2 -3)
1969-12-31 18:00:08.297598214,(-13 -2 -1 -26 -36 -16 -10 -19)
1969-12-31 18:00:08.314339286,(36 11 -12 -9 -8 -5 6 15)
1969-12-31 18:00:08.314339286,(-23 7 13 2 35 18 -2 -11)
1969-12-31 18:00:08.315455357,(-13 4 5 7 8 19 -2 -28)
1969-12-31 18:00:08.315455357,(1 -11 3 -1 -25 -36 -4 22)
1969-12-31 18:00:08.331080357,(-33 2 -3 -16 -23 -24 -21 -19)
1969-12-31 18:00:08.331080357,(62 16 -7 9 32 15 7 7)
1969-12-31 18:00:08.332196429,(14 0 0 9 0 3 7 23)
1969-12-31 18:00:08.332196429,(-47 -13 -9 -21 -32 -11 -14 -36)
1969-12-31 18:00:08.356750000,(47 15 5 4 22 24 20 52)
1969-12-31 18:00:08.356750000,(-52 -15 -11 7 21 -11 -22 -55)
1969-12-31 18:00:08.357866071,(-1 8 14 6 -9 2 26 32)
1969-12-31 18:00:08.357866071,(-22 -9 -22 -56 -58 -15 -9 -47)
1969-12-31 18:00:08.381303571,(-56 -28 -7 14 55 -10 -42 -64)
1969-12-31 18:00:08.381303571,(9 0 10 47 47 68 37 49)
1969-12-31 18:00:08.382419643,(25 13 3 3 -16 -37 -10 14)
1969-12-31 18:00:08.382419643,(45 28 11 7 -6 2 12 21)
1969-12-31 18:00:08.399160714,(-2 1 14 -1 -1 6 7 7)
1969-12-31 18:00:08.399160714,(50 4 -17 -32 -19 -10 -12 26)
1969-12-31 18:00:08.399160714,(20 8 14 15 13 19 26 48)
1969-12-31 18:00:08.399160714,(46 24 -3 -4 0 -1 4 50)
1969-12-31 18:00:08.450500000,(-18 -11 -8 -12 -18 -3 -4 -2)
1969-12-31 18:00:08.450500000,(50 8 3 3 11 -4 -1 -4)
1969-12-31 18:00:08.451616071,(-2 21 10 6 -10 8 2 -18)
1969-12-31 18:00:08.451616071,(-26 -7 14 14 13 -8 -3 5)
1969-12-31 18:00:08.453848214,(86 21 -18 -13 -12 4 2 21)
1969-12-31 18:00:08.453848214,(-50 -42 -8 -3 -16 -11 -6 -16)
1969-12-31 18:00:08.467241071,(-71 -51 -28 -27 -22 -25 -40 -90)
1969-12-31 18:00:08.467241071,(12 27 21 22 24 18 15 31)
1969-12-31 18:00:08.468357143,(-43 -20 -7 -2 -9 -5 -12 -29)
1969-12-31 18:00:08.468357143,(-1 10 2 -6 -3 -12 -4 -11)
1969-12-31 18:00:08.469473214,(51 16 6 7 6 12 15 41)
1969-12-31 18:00:08.469473214,(20 0 -1 3 5 0 1 6)
1969-12-31 18:00:08.490678571,(-70 -33 -9 -6 -10 5 16 -10)
1969-12-31 18:00:08.490678571,(-18 -10 -15 -16 -9 -18 -16 -32)
1969-12-31 18:00:08.491794643,(21 17 5 3 6 13 10 19)
1969-12-31 18:00:08.491794643,(17 -17 -19 -4 -2 -1 1 6)
1969-12-31 18:00:08.515232143,(9 3 10 4 2 3 4 7)
1969-12-31 18:00:08.515232143,(31 34 20 10 5 7 13 44)
1969-12-31 18:00:08.516348214,(-29 -4 -3 -2 -4 -7 -11 -17)
1969-12-31 18:00:08.516348214,(49 23 3 -1 -3 1 5 17)
1969-12-31 18:00:08.531973214,(-18 -2 -5 3 -1 3 5 5)
1969-12-31 18:00:08.531973214,(-34 -26 -12 -8 -4 -9 -22 -79)
1969-12-31 18:00:08.533089286,(17 6 1 -1 0 0 -1 5)
1969-12-31 18:00:08.533089286,(22 11 0 -1 0 -3 0 10)
1969-12-31 18:00:08.557642857,(-34 -19 -2 -2 -2 2 -4 -19)
1969-12-31 18:00:08.557642857,(0 23 8 2 -1 -2 2 3)
1969-12-31 18:00:08.558758929,(-9 -10 -1 -1 -1 -4 0 -1)
1969-12-31 18:00:08.558758929,(-33 -15 4 4 2 1 -9 -28)
1969-12-31 18:00:08.602285714,(17 6 -9 -3 -5 -5 -5 5)
1969-12-31 18:00:08.602285714,(-27 -23 -5 -4 1 0 7 5)
1969-12-31 18:00:08.603401786,(58 33 8 3 3 7 10 25)
1969-12-31 18:00:08.603401786,(-29 -33 -7 -4 -4 -7 -7 2)
1969-12-31 18:00:08.604517857,(55 32 10 3 -2 1 4 19)
1969-12-31 18:00:08.604517857,(-26 -1 3 0 1 -4 -6 -13)
1969-12-31 18:00:08.607866071,(17 4 -2 1 2 3 1 -2)
1969-12-31 18:00:08.607866071,(10 21 10 2 -1 -2 -1 4)
1969-12-31 18:00:08.624607143,(-17 -24 -2 2 4 3 6 27)
1969-12-31 18:00:08.624607143,(34 35 3 -1 -2 -1 0 2)
1969-12-31 18:00:08.625723214,(-12 -19 -4 -2 -1 2 3 -2)
1969-12-31 18:00:08.625723214,(1 -1 -5 0 -1 0 -3 -11)
1969-12-31 18:00:08.649160714,(-14 -2 -2 -3 -4 -1 -2 0)
1969-12-31 18:00:08.649160714,(9 0 -4 0 1 5 9 28)
1969-12-31 18:00:08.650276786,(-7 11 -10 -3 -4 -8 -14 -22)
1969-12-31 18:00:08.650276786,(-7 4 36 8 0 -1 1 -1)
1969-12-31 18:00:08.665901786,(0 -14 -5 0 1 2 6 7)
1969-12-31 18:00:08.665901786,(-9 -16 -5 -1 -6 -5 -6 -5)
1969-12-31 18:00:08.674830357,(15 7 -19 -15 -6 -7 -9 -7)
1969-12-31 18:00:08.674830357,(-20 8 2 2 2 -1 -3 -13)
1969-12-31 18:00:08.691571429,(0 -34 -11 -7 -5 -5 -6 -14)
1969-12-31 18:00:08.691571429,(-4 -14 0 -1 4 1 1 -3)
1969-12-31 18:00:08.692687500,(-10 -4 -9 0 -1 -2 -4 4)
1969-12-31 18:00:08.692687500,(-3 12 7 1 1 5 17 6)
1969-12-31 18:00:08.716125000,(12 10 1 -3 -5 -5 -8 -6)
1969-12-31 18:00:08.716125000,(-18 -19 -20 -9 -3 0 5 1)
1969-12-31 18:00:08.717241071,(-14 -15 1 2 1 0 3 -6)
1969-12-31 18:00:08.717241071,(-2 -5 -13 -5 -4 -9 -22 -14)
1969-12-31 18:00:08.777508929,(12 18 4 0 1 2 6 -3)
1969-12-31 18:00:08.777508929,(-11 -29 -13 -2 -4 -4 -6 -3)
1969-12-31 18:00:08.778625000,(0 16 11 0 -2 1 9 -8)
1969-12-31 18:00:08.778625000,(11 -33 -24 -2 5 6 14 15)
1969-12-31 18:00:08.779741071,(2 8 -19 -9 -5 -8 -24 -15)
1969-12-31 18:00:08.779741071,(-13 44 76 30 10 3 -12 -11)
1969-12-31 18:00:08.802062500,(-10 -10 -4 -6 -7 -7 0 9)
1969-12-31 18:00:08.802062500,(-4 -13 -14 -5 -3 3 3 -3)
1969-12-31 18:00:08.804294643,(9 -14 -18 -7 -4 -3 10 3)
1969-12-31 18:00:08.804294643,(5 5 0 2 2 1 -20 5)
1969-12-31 18:00:08.805410714,(-17 -23 2 2 4 6 9 -13)
1969-12-31 18:00:08.805410714,(-2 22 0 -8 -8 -12 -18 -9)
1969-12-31 18:00:08.812107143,(-1 -2 1 2 3 5 12 11)
1969-12-31 18:00:08.812107143,(7 6 -6 -2 -1 0 -2 -9)
1969-12-31 18:00:08.812107143,(-9 -10 -3 1 -1 -3 -4 -5)
1969-12-31 18:00:08.812107143,(1 -9 -42 -19 -9 -4 -15 -7)
1969-12-31 18:00:08.825500000,(-3 54 65 24 8 6 25 2)
1969-12-31 18:00:08.825500000,(6 -6 -13 -7 -5 -10 -9 6)
1969-12-31 18:00:08.826616071,(-10 -22 -2 2 7 11 7 3)
1969-12-31 18:00:08.826616071,(-2 -2 -15 -6 -5 -10 -10 -8)
1969-12-31 18:00:08.850053571,(1 16 7 1 -2 -1 -6 -5)
1969-12-31 18:00:08.850053571,(-6 -29 -20 -6 -1 3 12 6)
1969-12-31 18:00:08.851169643,(-3 -3 3 4 0 -5 -11 -5)
1969-12-31 18:00:08.851169643,(1 9 15 3 1 7 14 11)
1969-12-31 18:00:08.866794643,(1 -10 -2 0 0 -2 -5 -1)
1969-12-31 18:00:08.866794643,(0 -8 -7 -4 -3 0 7 2)
1969-12-31 18:00:08.875723214,(2 9 0 -6 -4 -1 0 3)
1969-12-31 18:00:08.875723214,(-1 9 6 -1 -2 -3 -10 -7)
1969-12-31 18:00:08.910321429,(2 22 27 13 2 -3 -5 -12)
1969-12-31 18:00:08.910321429,(-26 -14 -12 -8 -5 -5 -10 -5)
1969-12-31 18:00:08.911437500,(-4 13 8 2 -2 -4 -8 -8)
1969-12-31 18:00:08.911437500,(0 -24 -10 -3 1 0 13 8)
1969-12-31 18:00:08.917017857,(4 -35 -26 -11 -2 3 -3 2)
1969-12-31 18:00:08.917017857,(2 30 15 7 4 3 11 2)
1969-12-31 18:00:08.918133929,(-4 -12 -4 -1 -2 -3 -11 -6)
1969-12-31 18:00:08.918133929,(-1 6 11 1 -1 -4 -2 -1)
1969-12-31 18:00:08.951616071,(1 -13 -18 -5 0 -1 -3 0)
1969-12-31 18:00:08.951616071,(-2 1 -1 0 -5 -3 -9 -2)
1969-12-31 18:00:08.951616071,(1 -2 -2 1 2 4 10 4)
1969-12-31 18:00:08.952732143,(-3 -2 -1 0 0 9 3 -2)
1969-12-31 18:00:08.952732143,(-1 -1 0 0 0 -8 2 0)
1969-12-31 18:00:08.953848214,(2 2 2 1 3 13 -3 2)
1969-12-31 18:00:08.953848214,(-3 -4 -4 -4 -6 -17 5 -2)
1969-12-31 18:00:08.958312500,(-2 -3 -3 1 1 0 -3 -2)
1969-12-31 18:00:08.958312500,(0 1 0 -2 -4 2 14 4)
1969-12-31 18:00:08.959428571,(1 2 0 1 -1 3 0 -1)
1969-12-31 18:00:08.959428571,(-2 0 2 -3 -3 -1 -5 -2)
1969-12-31 18:00:08.992910714,(0 0 1 0 2 -1 7 -1)
1969-12-31 18:00:08.992910714,(-2 -1 0 -1 -5 -3 -9 -5)
1969-12-31 18:00:08.995142857,(3 2 2 6 4 2 2 1)
1969-12-31 18:00:08.995142857,(-3 -5 -3 -2 2 7 -3 -5)
1969-12-31 18:00:08.995142857,(0 2 1 3 3 8 -15 0)
1969-12-31 18:00:08.995142857,(1 -1 -5 -7 -2 33 54 12)
1969-12-31 18:00:09.007419643,(1 1 -2 -4 2 -6 -8 4)
1969-12-31 18:00:09.007419643,(-2 -3 -1 -2 -15 -53 -10 -4)
1969-12-31 18:00:09.015232142,(0 1 2 5 10 38 -2 -3)
1969-12-31 18:00:09.015232142,(-3 -2 -1 -3 -12 -46 -4 -4)
1969-12-31 18:00:09.025276786,(-1 -1 0 -4 -1 2 16 4)
1969-12-31 18:00:09.025276786,(-5 -5 -5 -11 -9 -22 -56 -18)
1969-12-31 18:00:09.040901786,(0 -1 1 1 0 6 -5 2)
1969-12-31 18:00:09.040901786,(1 -1 0 4 4 12 9 3)
1969-12-31 18:00:09.043133929,(-2 -2 -4 -7 -5 -11 -7 -1)
1969-12-31 18:00:09.043133929,(1 2 2 4 5 18 14 3)
1969-12-31 18:00:09.065455357,(-1 -3 -9 -9 -7 -20 -6 -5)
1969-12-31 18:00:09.065455357,(-3 -4 5 2 4 9 -9 3)
1969-12-31 18:00:09.110098214,(-3 -3 -6 -1 -3 7 4 -4)
1969-12-31 18:00:09.110098214,(1 3 2 2 9 7 -5 5)
1969-12-31 18:00:09.111214286,(0 2 -3 -1 -2 -9 22 1)
1969-12-31 18:00:09.111214286,(-1 6 13 11 6 4 -77 -20)
1969-12-31 18:00:09.116794643,(0 -1 -2 4 -5 -41 -2 2)
1969-12-31 18:00:09.116794643,(-2 -4 -4 -3 -3 11 -7 -1)
1969-12-31 18:00:09.117910714,(-2 -6 -2 -8 -3 -9 3 -1)
1969-12-31 18:00:09.117910714,(-2 -2 -6 -5 -2 -2 6 -2)
1969-12-31 18:00:09.124607143,(2 7 4 2 -2 -23 5 1)
1969-12-31 18:00:09.124607143,(2 2 2 -2 0 9 -3 -3)
1969-12-31 18:00:09.141348214,(-1 -3 -4 -3 0 10 2 -2)
1969-12-31 18:00:09.142464286,(-3 -5 0 -6 -4 3 -22 -6)
1969-12-31 18:00:09.158089286,(1 1 2 10 3 -16 0 6)
1969-12-31 18:00:09.158089286,(1 1 3 3 -6 -22 4 -2)
1969-12-31 18:00:09.164785714,(-2 0 5 4 -1 -5 -6 -1)
1969-12-31 18:00:09.164785714,(-5 -11 -14 -5 -2 8 -4 -8)
1969-12-31 18:00:09.174830357,(-3 -2 -4 -11 -8 8 -3 0)
1969-12-31 18:00:09.174830357,(-2 2 -1 5 5 -4 -4 -4)
1969-12-31 18:00:09.177062500,(1 -3 -9 -6 0 1 13 1)
1969-12-31 18:00:09.177062500,(-2 -5 1 1 3 5 3 3)
1969-12-31 18:00:09.190455357,(-2 0 -1 -5 -2 -4 -3 1)
1969-12-31 18:00:09.190455357,(3 3 -6 1 -2 -5 8 -1)
1969-12-31 18:00:09.200500000,(-1 -1 6 0 1 11 -2 -1)
1969-12-31 18:00:09.200500000,(0 5 3 5 2 -1 15 -3)
1969-12-31 18:00:09.217241071,(-3 -6 -6 -7 -5 -6 -6 -12)
1969-12-31 18:00:09.217241071,(-3 -6 -4 -9 -1 7 -8 2)
1969-12-31 18:00:09.218357143,(-4 -3 1 -1 -3 -4 -7 -6)
1969-12-31 18:00:09.218357143,(0 2 0 1 -1 0 6 1)
1969-12-31 18:00:09.268580357,(0 5 10 5 -1 -5 -4 -4)
1969-12-31 18:00:09.268580357,(-2 0 -1 0 -2 5 6 -1)
1969-12-31 18:00:09.270812500,(-1 -1 0 -1 -3 -2 -6 -6)
1969-12-31 18:00:09.270812500,(0 -1 0 0 -1 1 13 4)
1969-12-31 18:00:09.271928571,(-4 -8 -3 -4 0 10 3 4)
1969-12-31 18:00:09.271928571,(0 5 4 5 0 -3 -4 -1)
1969-12-31 18:00:09.275276786,(2 -1 -3 -4 -3 -3 0 1)
1969-12-31 18:00:09.275276786,(1 2 1 0 -2 -3 -3 -1)
1969-12-31 18:00:09.284205357,(-1 -5 -9 -3 -3 -3 1 0)
1969-12-31 18:00:09.284205357,(-2 -4 -10 -5 0 0 3 7)
1969-12-31 18:00:09.285321429,(-1 2 -2 -2 -1 -2 -4 -2)
1969-12-31 18:00:09.285321429,(1 5 1 0 2 1 9 6)
1969-12-31 18:00:09.308758929,(0 -1 -2 1 1 -1 -2 -6)
1969-12-31 18:00:09.308758929,(-1 -4 -3 -5 -1 -1 2 1)
1969-12-31 18:00:09.310991071,(-1 0 1 2 -1 0 -2 -2)
1969-12-31 18:00:09.310991071,(1 0 0 0 -1 1 4 0)
1969-12-31 18:00:09.342241071,(2 1 1 0 -1 -4 0 3)
1969-12-31 18:00:09.342241071,(0 -6 -5 -3 -1 -1 -4 -4)
1969-12-31 18:00:09.344473214,(-2 2 -4 -2 -2 0 -3 -2)
1969-12-31 18:00:09.344473214,(0 4 7 2 0 0 2 1)
1969-12-31 18:00:09.358982143,(-2 -4 1 2 1 1 2 6)
1969-12-31 18:00:09.358982143,(3 2 -7 -4 -3 1 2 -2)
1969-12-31 18:00:09.361214286,(-3 3 8 2 1 1 -1 0)
1969-12-31 18:00:09.361214286,(-1 -3 -3 -2 -3 0 2 -1)
1969-12-31 18:00:09.419250000,(1 3 1 1 0 1 -3 -2)
1969-12-31 18:00:09.419250000,(-2 0 0 -3 -2 -2 -1 -1)
1969-12-31 18:00:09.421482143,(1 -1 -1 -2 -1 -1 -4 -3)
1969-12-31 18:00:09.421482143,(0 4 3 0 -2 -1 3 8)
1969-12-31 18:00:09.421482143,(-7 -10 -2 -1 -2 -2 -9 -20)
1969-12-31 18:00:09.421482143,(0 0 -1 1 0 2 10 5)
1969-12-31 18:00:09.427062500,(-4 -2 -2 0 -1 -3 -14 -6)
1969-12-31 18:00:09.427062500,(1 -3 -1 -2 0 2 9 4)
1969-12-31 18:00:09.428178571,(0 0 -3 0 1 -1 4 8)
1969-12-31 18:00:09.428178571,(-6 -2 -2 -3 -4 -3 -13 -12)
1969-12-31 18:00:09.451616071,(0 3 0 -2 -1 -2 2 -2)
1969-12-31 18:00:09.451616071,(1 3 1 -2 1 0 4 3)
1969-12-31 18:00:09.452732143,(1 0 -2 -1 0 -2 6 10)
1969-12-31 18:00:09.452732143,(0 -1 -3 -3 -3 -4 -5 -4)
1969-12-31 18:00:09.458312500,(4 2 0 -1 -2 -2 1 4)
1969-12-31 18:00:09.458312500,(-4 -4 -1 -1 0 -1 -3 -3)
1969-12-31 18:00:09.468357143,(-6 -1 0 -1 -1 -1 -2 -16)
1969-12-31 18:00:09.468357143,(4 -1 -2 -1 0 -5 2 6)
1969-12-31 18:00:09.485098214,(9 5 8 3 -1 9 7 26)
1969-12-31 18:00:09.485098214,(12 0 4 1 0 1 -2 -2)
1969-12-31 18:00:09.486214286,(-22 -6 0 -1 -2 -5 -5 -21)
1969-12-31 18:00:09.486214286,(-2 -3 -1 0 -2 9 6 -11)
1969-12-31 18:00:09.509651786,(5 4 3 2 -1 -5 -11 0)
1969-12-31 18:00:09.509651786,(9 2 2 2 -1 2 2 13)
1969-12-31 18:00:09.511883929,(1 -11 -4 -3 -3 1 -3 -6)
1969-12-31 18:00:09.511883929,(-3 3 2 3 2 6 -8 -9)
1969-12-31 18:00:09.525276786,(-10 -2 -2 -1 -6 -4 14 8)
1969-12-31 18:00:09.525276786,(23 8 -1 -1 -2 0 -1 1)
1969-12-31 18:00:09.562107143,(-17 -19 -6 -1 -1 -1 -1 -1)
1969-12-31 18:00:09.562107143,(-16 3 5 4 1 1 -3 2)
1969-12-31 18:00:09.563223214,(-22 -6 -5 -2 -3 -3 -16 -45)
1969-12-31 18:00:09.563223214,(23 11 3 2 3 -3 4 16)
1969-12-31 18:00:09.566571429,(-8 -9 -4 -4 -4 7 2 -4)
1969-12-31 18:00:09.566571429,(-1 -3 0 0 1 17 19 22)
1969-12-31 18:00:09.576616070,(62 29 6 0 -1 -17 -17 6)
1969-12-31 18:00:09.576616070,(-23 0 -4 -1 -4 -3 -18 -13)
1969-12-31 18:00:09.578848214,(-30 -28 -9 -3 -4 -31 -13 9)
1969-12-31 18:00:09.578848214,(31 20 9 3 10 26 -15 -11)
1969-12-31 18:00:09.592241071,(-36 -14 -5 -3 -9 -19 -17 -27)
1969-12-31 18:00:09.592241071,(14 4 3 2 2 -18 3 0)
1969-12-31 18:00:09.602285714,(14 13 3 3 1 18 2 12)
1969-12-31 18:00:09.602285714,(-50 -19 -6 -3 1 -3 -6 -14)
1969-12-31 18:00:09.619026786,(37 22 1 -1 -5 5 28 8)
1969-12-31 18:00:09.619026786,(13 -13 -3 -1 3 7 9 42)
1969-12-31 18:00:09.621258929,(-28 -16 -5 -5 -8 -9 -13 -49)
1969-12-31 18:00:09.621258929,(14 10 -2 0 -4 -8 11 -13)
1969-12-31 18:00:09.643580357,(49 23 6 5 8 14 11 34)
1969-12-31 18:00:09.643580357,(-16 -8 -8 -8 -7 -2 3 -8)
1969-12-31 18:00:09.645812500,(40 37 13 6 8 11 10 28)
1969-12-31 18:00:09.645812500,(3 -14 -4 -3 -7 -11 7 3)
1969-12-31 18:00:09.659205357,(-89 -49 -21 -13 -7 -11 -26 -38)
1969-12-31 18:00:09.659205357,(-16 -1 5 5 1 0 -7 -20)
1969-12-31 18:00:09.669250000,(16 4 -7 -4 -4 -2 -26 -38)
1969-12-31 18:00:09.669250000,(8 7 0 -1 -3 -11 7 23)
1969-12-31 18:00:09.684875000,(-24 -14 -1 2 8 32 8 3)
1969-12-31 18:00:09.684875000,(-17 -9 -5 -4 -2 6 -13 -42)
1969-12-31 18:00:09.720589286,(0 9 2 -3 -9 -7 44 19)
1969-12-31 18:00:09.720589286,(32 16 7 5 7 19 12 16)
1969-12-31 18:00:09.721705357,(8 -12 -11 -11 -6 4 -22 -41)
1969-12-31 18:00:09.721705357,(-29 -4 -4 -3 -3 -13 -3 -2)
1969-12-31 18:00:09.727285714,(39 11 5 3 -3 -12 -22 0)
1969-12-31 18:00:09.727285714,(19 5 3 4 6 5 -3 18)
1969-12-31 18:00:09.727285714,(6 3 6 6 8 16 35 53)
1969-12-31 18:00:09.727285714,(-20 -15 -9 -7 -8 -18 -9 -47)
1969-12-31 18:00:09.736214286,(4 2 -1 -1 -1 -5 5 7)
1969-12-31 18:00:09.736214286,(-8 -18 -5 -4 -3 -10 -23 -38)
1969-12-31 18:00:09.751839286,(2 -7 -7 -5 -9 -16 -13 18)
1969-12-31 18:00:09.751839286,(1 10 2 1 2 7 14 14)
1969-12-31 18:00:09.759651786,(-3 2 2 4 7 21 15 27)
1969-12-31 18:00:09.759651786,(-19 -2 -5 -4 -8 -23 -14 -30)
1969-12-31 18:00:09.777508929,(14 10 6 3 4 6 7 9)
1969-12-31 18:00:09.777508929,(31 4 4 2 -8 -37 17 26)
1969-12-31 18:00:09.779741071,(-11 0 -1 -2 5 6 -26 -28)
1969-12-31 18:00:09.779741071,(-7 -4 -2 -4 -9 -15 -14 12)
1969-12-31 18:00:09.803178571,(13 2 2 3 0 -2 45 59)
1969-12-31 18:00:09.803178571,(40 11 6 6 6 27 16 42)
1969-12-31 18:00:09.804294643,(-7 -4 -8 -5 -5 -35 -6 -24)
1969-12-31 18:00:09.804294643,(-58 -18 -3 -2 -3 -14 11 -15)
1969-12-31 18:00:09.817687500,(-7 2 8 9 11 15 -11 27)
1969-12-31 18:00:09.817687500,(6 13 -2 -4 -2 -7 -13 -6)
1969-12-31 18:00:09.827732143,(-21 -24 -11 -5 0 32 32 1)
1969-12-31 18:00:09.827732143,(-8 -5 -9 -10 -5 5 -36 -7)
1969-12-31 18:00:09.871258929,(-45 -16 -8 -6 -11 -15 34 -10)
1969-12-31 18:00:09.871258929,(-62 -23 -5 -2 -3 -1 -22 -43)
1969-12-31 18:00:09.872375000,(11 -3 3 2 0 1 16 37)
1969-12-31 18:00:09.873491071,(-14 -1 -5 -4 -3 -9 -34 -85)
1969-12-31 18:00:09.874607143,(16 8 2 -1 5 19 -6 -34)
1969-12-31 18:00:09.874607143,(17 5 -2 -2 -4 -11 -1 16)
1969-12-31 18:00:09.877955357,(-40 -14 -9 -9 -10 -11 -7 -29)
1969-12-31 18:00:09.877955357,(5 7 8 9 13 41 62 121)
1969-12-31 18:00:09.885767857,(9 -3 -2 -2 -12 -89 -76 -34)
1969-12-31 18:00:09.885767857,(-85 -34 -16 -15 -11 35 26 -74)
1969-12-31 18:00:09.893580357,(23 12 -1 -2 -5 -31 -22 -4)
1969-12-31 18:00:09.893580357,(-1 -23 -9 -6 -7 -2 4 10)
1969-12-31 18:00:09.911437500,(-8 11 7 3 7 14 2 2)
1969-12-31 18:00:09.911437500,(42 9 6 6 7 4 0 46)
1969-12-31 18:00:09.913669643,(-22 2 5 2 4 15 -9 -35)
1969-12-31 18:00:09.913669643,(21 11 2 -1 -1 -9 -13 -21)
1969-12-31 18:00:09.937107143,(-1 -2 -2 -1 -1 20 6 -44)
1969-12-31 18:00:09.937107143,(39 10 3 4 4 -6 -11 12)
1969-12-31 18:00:09.938223214,(31 12 1 -2 -1 3 -25 13)
1969-12-31 18:00:09.938223214,(26 12 4 2 3 1 18 37)
1969-12-31 18:00:09.952732143,(-20 -14 2 1 -1 -12 -22 -23)
1969-12-31 18:00:09.952732143,(-3 11 3 2 3 14 13 24)
1969-12-31 18:00:09.960544643,(0 -17 -8 -4 -4 -1 17 7)
1969-12-31 18:00:09.960544643,(-3 2 0 1 1 5 -10 -11)
1969-12-31 18:00:09.978401786,(-1 -6 -6 -5 -10 -40 -9 -27)
1969-12-31 18:00:09.978401786,(-6 6 2 0 -2 0 -2 -25)
1969-12-31 18:00:09.980633929,(29 8 7 7 8 14 15 110)
1969-12-31 18:00:09.980633929,(9 -7 -10 -6 -10 -17 8 11)
1969-12-31 18:00:10.038669642,(37 11 4 3 4 13 18 66)
1969-12-31 18:00:10.038669642,(36 15 6 4 9 17 -16 -2)
1969-12-31 18:00:10.040901786,(-52 -25 -8 -8 -12 -18 4 -68)
1969-12-31 18:00:10.040901786,(5 -8 -4 -1 1 -1 7 8)
1969-12-31 18:00:10.040901786,(-10 -12 -6 -4 -1 17 -1 6)
1969-12-31 18:00:10.040901786,(0 1 -2 -4 -5 -22 -13 -3)
1969-12-31 18:00:10.048714286,(85 52 21 16 19 31 29 102)
1969-12-31 18:00:10.048714286,(-61 -22 -14 -11 -17 -44 -49 -90)
1969-12-31 18:00:10.048714286,(-20 -1 -3 -1 7 27 1 -41)
1969-12-31 18:00:10.048714286,(3 -9 -3 -2 7 67 18 22)
1969-12-31 18:00:10.052062500,(29 20 8 7 0 -45 -6 22)
1969-12-31 18:00:10.052062500,(-5 -12 -4 -8 -16 -35 -16 -26)
1969-12-31 18:00:10.071035714,(34 19 2 0 2 5 23 44)
1969-12-31 18:00:10.071035714,(-33 -29 -6 -4 -4 -8 -15 -39)
1969-12-31 18:00:10.072151786,(26 13 10 13 11 7 3 12)
1969-12-31 18:00:10.072151786,(-12 12 5 5 10 35 18 -7)
1969-12-31 18:00:10.085544643,(-24 -14 -10 -10 -13 -11 -16 -5)
1969-12-31 18:00:10.085544643,(16 2 1 0 1 -1 8 25)
1969-12-31 18:00:10.095589286,(8 -9 -8 -5 -4 33 10 32)
1969-12-31 18:00:10.095589286,(23 18 9 9 3 -53 18 69)
1969-12-31 18:00:10.112330357,(-4 4 5 3 6 23 -21 -29)
1969-12-31 18:00:10.112330357,(-50 -12 -4 0 0 13 -10 -32)
1969-12-31 18:00:10.114562500,(-82 -34 -17 -11 -6 1 -34 -63)
1969-12-31 18:00:10.114562500,(37 3 8 7 5 3 19 27)
1969-12-31 18:00:10.138000000,(-5 9 4 2 -1 -4 26 -11)
1969-12-31 18:00:10.138000000,(29 3 -2 -1 -2 -20 -17 40)
1969-12-31 18:00:10.139116071,(-15 -9 -3 -4 -3 -8 -16 -36)
1969-12-31 18:00:10.139116071,(21 10 -2 -2 3 41 2 25)
1969-12-31 18:00:10.181526786,(-15 -19 -10 -6 -9 -7 5 -4)
1969-12-31 18:00:10.181526786,(34 11 10 7 8 5 3 4)
1969-12-31 18:00:10.183758929,(46 17 6 5 2 -25 26 49)
1969-12-31 18:00:10.183758929,(44 30 21 18 22 52 46 73)
1969-12-31 18:00:10.183758929,(-27 -15 -10 -10 -5 4 -38 -61)
1969-12-31 18:00:10.183758929,(8 -1 2 1 3 2 -5 25)
1969-12-31 18:00:10.188223214,(6 5 4 3 10 23 -4 21)
1969-12-31 18:00:10.188223214,(-26 -15 -10 -10 -13 -5 13 -40)
1969-12-31 18:00:10.204964286,(-24 2 -1 3 7 -4 -20 -37)
1969-12-31 18:00:10.204964286,(-25 -16 -4 -4 -15 -8 14 6)
1969-12-31 18:00:10.206080357,(-18 -3 1 0 4 5 -26 -72)
1969-12-31 18:00:10.206080357,(10 5 -2 2 9 15 15 24)
1969-12-31 18:00:10.220589286,(9 -4 1 -2 -11 -23 21 28)
1969-12-31 18:00:10.220589286,(-35 -3 -8 -8 -6 3 -25 -35)
1969-12-31 18:00:10.230633929,(11 2 0 5 16 -8 29 76)
1969-12-31 18:00:10.230633929,(-19 5 10 15 15 -2 -23 -20)
1969-12-31 18:00:10.246258929,(37 3 -4 -13 -19 -12 6 20)
1969-12-31 18:00:10.246258929,(3 7 1 -10 -40 -36 -4 -6)
1969-12-31 18:00:10.248491071,(11 1 4 -3 15 22 10 20)
1969-12-31 18:00:10.248491071,(-1 -1 0 -3 -4 -2 -19 2)
1969-12-31 18:00:10.281973214,(0 -13 -6 7 20 27 -14 10)
1969-12-31 18:00:10.281973214,(0 -3 3 16 17 -19 14 17)
1969-12-31 18:00:10.284205357,(-21 10 0 -10 -38 -8 2 30)
1969-12-31 18:00:10.284205357,(-23 -38 -27 -30 -18 -11 -14 -33)
1969-12-31 18:00:10.288669643,(18 15 6 5 36 33 10 48)
1969-12-31 18:00:10.288669643,(2 25 9 12 1 -26 17 5)
1969-12-31 18:00:10.289785714,(-27 -55 -17 -5 -10 -15 -28 -3)
1969-12-31 18:00:10.289785714,(1 1 2 0 9 17 -4 4)
1969-12-31 18:00:10.304294643,(4 7 8 13 27 28 23 3)
1969-12-31 18:00:10.304294643,(-22 -15 -17 -17 -29 -39 -15 -21)
1969-12-31 18:00:10.348937500,(-43 -1 -10 -9 -22 -17 -18 -59)
1969-12-31 18:00:10.348937500,(22 29 12 -1 -26 -18 -11 -36)
1969-12-31 18:00:10.348937500,(-34 -26 -10 -8 23 8 -7 -34)
1969-12-31 18:00:10.348937500,(-7 -18 -3 4 19 8 7 6)
1969-12-31 18:00:10.351169643,(2 6 0 -3 -15 21 11 -18)
1969-12-31 18:00:10.351169643,(3 -6 -7 -6 -10 -13 -14 -15)
1969-12-31 18:00:10.355633929,(6 20 7 4 -3 -36 6 75)
1969-12-31 18:00:10.355633929,(24 6 2 3 7 -6 0 38)
1969-12-31 18:00:10.356750000,(-33 -26 -20 -14 -18 -15 -5 -50)
1969-12-31 18:00:10.356750000,(11 17 16 9 -17 -15 -20 -2)
1969-12-31 18:00:10.371258929,(32 14 -12 -5 -13 2 12 10)
1969-12-31 18:00:10.371258929,(-27 -19 18 10 61 61 20 45)
1969-12-31 18:00:10.379071429,(15 46 15 5 -18 -33 -19 -5)
1969-12-31 18:00:10.379071429,(-47 -61 -19 -7 -9 -3 19 1)
1969-12-31 18:00:10.396928571,(36 19 16 10 -6 -9 -8 43)
1969-12-31 18:00:10.396928571,(16 -16 -59 -18 3 11 3 0)
1969-12-31 18:00:10.399160714,(-8 3 32 3 26 48 26 -10)
1969-12-31 18:00:10.399160714,(6 16 7 9 -22 -46 -31 29)
1969-12-31 18:00:10.412553571,(-15 -19 -1 -9 -32 -19 28 -12)
1969-12-31 18:00:10.412553571,(1 6 -27 -23 -13 -10 -29 -9)
1969-12-31 18:00:10.422598214,(12 21 15 10 33 20 12 21)
1969-12-31 18:00:10.422598214,(-11 6 22 9 23 33 27 -11)
1969-12-31 18:00:10.438223214,(-20 -17 -7 -5 -34 -31 -2 -19)
1969-12-31 18:00:10.438223214,(-6 -34 -18 -6 -9 3 -7 6)
1969-12-31 18:00:10.446035714,(-24 -17 -18 -10 -2 -12 -23 -31)
1969-12-31 18:00:10.446035714,(-7 -3 -9 -4 13 19 -1 -6)
1969-12-31 18:00:10.490678571,(-28 -10 -10 -2 -2 -27 -24 -17)
1969-12-31 18:00:10.490678571,(-2 7 32 5 -9 30 34 26)
1969-12-31 18:00:10.492910714,(34 15 -25 -9 20 8 -3 -34)
1969-12-31 18:00:10.492910714,(16 -28 -44 -6 36 12 -3 -17)
1969-12-31 18:00:10.494026786,(-5 -10 -3 -18 -68 -48 -38 -30)
1969-12-31 18:00:10.494026786,(-25 18 20 -2 -31 -24 -16 -53)
1969-12-31 18:00:10.497375000,(-27 57 89 39 31 31 22 22)
1969-12-31 18:00:10.497375000,(2 42 23 8 8 1 -20 -51)
1969-12-31 18:00:10.505187500,(14 -85 -92 -19 25 13 4 53)
1969-12-31 18:00:10.505187500,(-16 -3 -3 -17 -48 -37 -13 -106)
1969-12-31 18:00:10.513000000,(14 -69 -53 -20 -18 -22 -15 41)
1969-12-31 18:00:10.513000000,(20 71 54 20 37 36 34 30)
1969-12-31 18:00:10.529741071,(-47 -40 -13 -8 -7 -8 -38 -61)
1969-12-31 18:00:10.530857143,(5 15 -8 8 27 39 30 53)
1969-12-31 18:00:10.537553571,(-34 102 95 34 -14 -31 -2 -12)
1969-12-31 18:00:10.537553571,(26 -34 -29 -5 -16 -12 15 85)
1969-12-31 18:00:10.546482143,(16 5 -8 -3 -2 -7 -31 -74)
1969-12-31 18:00:10.546482143,(24 -58 -94 -25 62 55 11 31)
1969-12-31 18:00:10.556526786,(-8 52 53 29 -25 -39 30 26)
1969-12-31 18:00:10.556526786,(-10 -30 -11 0 -50 -35 -16 2)
1969-12-31 18:00:10.573267857,(-21 -37 -9 4 63 47 -1 -36)
1969-12-31 18:00:10.573267857,(23 33 17 -9 -86 -58 -22 26)
1969-12-31 18:00:10.579964286,(24 -92 -78 -38 12 43 9 -8)
1969-12-31 18:00:10.579964286,(3 5 -8 -16 3 -6 6 -13)
1969-12-31 18:00:10.596705357,(9 4 41 29 41 9 10 32)
1969-12-31 18:00:10.596705357,(-4 53 -16 9 48 39 14 -20)
1969-12-31 18:00:10.604517857,(-62 60 69 39 -60 -45 -34 -61)
1969-12-31 18:00:10.604517857,(89 -22 -56 1 23 12 -3 49)
1969-12-31 18:00:10.613446429,(-41 31 5 -3 -6 3 28 -46)
1969-12-31 18:00:10.613446429,(13 70 66 10 -8 -14 -13 -33)
1969-12-31 18:00:10.650276786,(22 -70 -96 -41 1 -1 -14 31)
1969-12-31 18:00:10.650276786,(-111 -33 3 11 11 3 -16 -128)
1969-12-31 18:00:10.651392857,(69 -77 -17 3 20 23 11 92)
1969-12-31 18:00:10.651392857,(-14 43 -4 5 10 -15 -7 -11)
1969-12-31 18:00:10.654741071,(13 62 57 14 -31 -20 16 -12)
1969-12-31 18:00:10.654741071,(-13 -74 -43 -16 1 3 -15 39)
1969-12-31 18:00:10.664785714,(25 -36 -66 -32 -32 -6 -1 34)
1969-12-31 18:00:10.664785714,(-22 2 66 24 16 -4 22 -11)
1969-12-31 18:00:10.671482143,(2 -46 -56 -23 7 24 -35 -39)
1969-12-31 18:00:10.671482143,(-12 30 9 -1 -31 -36 15 9)
1969-12-31 18:00:10.690455357,(-33 -7 -3 -11 -41 -9 -3 -34)
1969-12-31 18:00:10.690455357,(-14 -90 -38 14 85 28 20 6)
1969-12-31 18:00:10.691571429,(-13 56 -36 -28 -40 -18 -26 -29)
1969-12-31 18:00:10.691571429,(0 100 95 18 0 17 6 4)
1969-12-31 18:00:10.708312500,(21 2 -15 5 0 7 41 66)
1969-12-31 18:00:10.708312500,(9 -109 -29 1 1 1 -1 72)
1969-12-31 18:00:10.713892857,(-7 -34 -46 -2 59 7 -17 -22)
1969-12-31 18:00:10.713892857,(-35 32 38 11 -24 12 29 -11)
1969-12-31 18:00:10.731750000,(5 8 -29 -29 -13 -26 -47 -46)
1969-12-31 18:00:10.731750000,(15 55 59 26 -16 -15 -4 51)
1969-12-31 18:00:10.738446429,(9 -30 -39 -20 -2 0 1 -56)
1969-12-31 18:00:10.738446429,(17 -61 -42 -14 -8 -6 -16 8)
1969-12-31 18:00:10.757419643,(-9 109 119 49 38 30 35 48)
1969-12-31 18:00:10.757419643,(27 -90 -34 20 88 63 23 45)
1969-12-31 18:00:10.758535714,(-10 -18 -39 -40 -66 -43 -21 10)
1969-12-31 18:00:10.758535714,(-3 29 7 -35 -68 -71 -65 -16)
1969-12-31 18:00:10.800946429,(14 -4 -5 5 25 28 20 28)
1969-12-31 18:00:10.800946429,(5 -30 -24 -15 -37 -37 -34 -45)
1969-12-31 18:00:10.802062500,(-19 -51 -38 -11 41 28 -22 -30)
1969-12-31 18:00:10.802062500,(-14 31 25 21 37 19 -11 -1)
1969-12-31 18:00:10.804294643,(-3 16 1 -7 -33 -31 -31 -24)
1969-12-31 18:00:10.804294643,(-5 -22 -38 -25 -33 -18 30 10)
1969-12-31 18:00:10.807642857,(14 -3 19 20 27 24 28 69)
1969-12-31 18:00:10.807642857,(-13 -12 -34 -19 -22 -20 -54 -63)
1969-12-31 18:00:10.824383929,(24 -1 25 26 13 10 8 14)
1969-12-31 18:00:10.824383929,(-4 83 48 11 -9 5 2 -51)
1969-12-31 18:00:10.825500000,(44 -41 -36 -19 -18 -39 -16 -15)
1969-12-31 18:00:10.825500000,(-33 46 73 40 28 -6 -41 -70)
1969-12-31 18:00:10.840008929,(0 -62 -52 -5 36 17 45 2)
1969-12-31 18:00:10.840008929,(19 58 -39 -41 -95 -37 -56 -51)
1969-12-31 18:00:10.847821429,(-7 5 43 30 42 21 17 23)
1969-12-31 18:00:10.847821429,(18 -27 -33 -4 5 8 27 -32)
1969-12-31 18:00:10.865678571,(-37 -49 -27 -12 58 58 5 -36)
1969-12-31 18:00:10.865678571,(15 -24 -6 -11 -94 -106 -92 -38)
1969-12-31 18:00:10.873491071,(7 -50 -22 -3 55 65 50 28)
1969-12-31 18:00:10.873491071,(12 49 40 27 -13 -1 45 65)
1969-12-31 18:00:10.891348214,(-32 43 14 -24 -68 -56 -88 -60)
1969-12-31 18:00:10.891348214,(-22 -62 -41 -14 37 25 21 -16)
1969-12-31 18:00:10.892464286,(7 -16 15 4 -17 -4 21 55)
1969-12-31 18:00:10.892464286,(37 0 -31 3 67 41 45 38)
1969-12-31 18:00:10.906973214,(13 54 17 14 -16 1 25 76)
1969-12-31 18:00:10.906973214,(-1 -30 -24 -9 -16 -2 5 7)
1969-12-31 18:00:10.922598214,(-33 76 70 32 31 22 31 -16)
1969-12-31 18:00:10.922598214,(-28 -37 -53 -30 -38 -25 -1 10)
1969-12-31 18:00:10.957196429,(-16 -22 -41 12 33 12 -31 -46)
1969-12-31 18:00:10.957196429,(-14 102 91 15 -27 -23 6 26)
1969-12-31 18:00:10.967241071,(23 -87 -64 0 13 21 60 74)
1969-12-31 18:00:10.967241071,(35 -73 -75 -44 -26 -15 -37 14)
1969-12-31 18:00:10.968357143,(29 127 127 40 -14 -3 41 36)
1969-12-31 18:00:10.968357143,(-17 -121 -80 -9 62 49 29 28)
1969-12-31 18:00:10.969473214,(-11 2 22 12 -28 -9 -8 -22)
1969-12-31 18:00:10.969473214,(0 -73 -39 -8 10 -9 18 24)
1969-12-31 18:00:10.972821429,(22 53 11 -8 -31 -29 -4 28)
1969-12-31 18:00:10.972821429,(-28 16 20 8 35 26 -18 -21)
1969-12-31 18:00:11.001839286,(-3 -23 -12 -5 1 -10 -5 8)
1969-12-31 18:00:11.001839286,(48 -39 -37 6 38 22 23 60)
1969-12-31 18:00:11.001839286,(-69 -16 -1 -33 -65 -59 -65 -76)
1969-12-31 18:00:11.001839286,(40 40 29 18 22 35 34 38)
1969-12-31 18:00:11.006303571,(-14 -42 -39 -22 -49 -57 -61 -52)
1969-12-31 18:00:11.006303571,(24 53 39 -14 -45 16 17 24)
1969-12-31 18:00:11.025276786,(0 -54 -20 5 32 28 14 5)
1969-12-31 18:00:11.025276786,(45 -1 -33 -11 -13 -23 27 55)
1969-12-31 18:00:11.026392857,(-18 76 73 39 51 11 -46 -68)
1969-12-31 18:00:11.026392857,(12 -21 -32 1 20 23 -23 -16)
1969-12-31 18:00:11.039785713,(-27 -32 -31 -9 -45 -47 -1 13)
1969-12-31 18:00:11.039785713,(5 63 71 32 28 12 -18 -42)
1969-12-31 18:00:11.049830357,(17 -30 -52 -13 19 32 62 52)
1969-12-31 18:00:11.049830357,(-5 49 61 7 -27 -23 -46 -32)
1969-12-31 18:00:11.066571429,(-19 -44 -19 -17 -35 -19 -2 -21)
1969-12-31 18:00:11.066571429,(-15 -44 -37 -16 26 28 -8 -26)
1969-12-31 18:00:11.073267857,(8 6 -15 -6 -3 -25 6 11)
1969-12-31 18:00:11.073267857,(-54 -2 33 11 10 22 28 -18)
1969-12-31 18:00:11.110098214,(25 -51 -65 -9 57 45 28 -1)
1969-12-31 18:00:11.110098214,(-15 -44 -39 -26 -35 -32 15 8)
1969-12-31 18:00:11.111214286,(-45 127 94 -4 -62 -47 -70 -88)
1969-12-31 18:00:11.111214286,(11 -27 -35 -6 27 4 18 10)
1969-12-31 18:00:11.112330357,(-3 62 51 36 69 57 6 -15)
1969-12-31 18:00:11.112330357,(15 26 -26 -3 -44 -39 -12 -12)
1969-12-31 18:00:11.116794643,(1 -53 43 4 -38 -33 20 33)
1969-12-31 18:00:11.116794643,(10 -57 -56 -6 34 20 1 5)
1969-12-31 18:00:11.132419643,(5 85 50 -1 -5 -19 -54 -45)
1969-12-31 18:00:11.132419643,(-23 -15 -10 3 -3 12 -3 -15)
1969-12-31 18:00:11.140232143,(13 -5 -15 -8 -22 -16 -4 -12)
1969-12-31 18:00:11.140232143,(-24 -64 -34 -33 -36 -25 13 14)
1969-12-31 18:00:11.159205357,(31 67 81 41 54 57 74 80)
1969-12-31 18:00:11.159205357,(19 18 36 19 -10 -5 5 22)
1969-12-31 18:00:11.160321429,(17 -72 -102 -35 27 5 -21 26)
1969-12-31 18:00:11.160321429,(-20 127 123 44 -31 -12 -3 11)
1969-12-31 18:00:11.173714286,(13 -67 -83 -35 -9 2 28 7)
1969-12-31 18:00:11.173714286,(-52 -82 -18 -2 -3 -4 -17 -25)
1969-12-31 18:00:11.183758929,(4 37 18 7 0 -5 -10 -18)
1969-12-31 18:00:11.183758929,(30 14 -5 22 100 96 43 47)
1969-12-31 18:00:11.199383929,(0 22 6 3 -49 -78 -73 -52)
1969-12-31 18:00:11.199383929,(-11 -63 1 -18 -53 -17 44 54)
1969-12-31 18:00:11.207196429,(27 -39 -56 -6 30 18 -12 5)
1969-12-31 18:00:11.207196429,(-52 -16 -3 -25 -52 -57 5 -56)
1969-12-31 18:00:11.226169643,(-9 -36 -19 -17 -19 -25 -40 -2)
1969-12-31 18:00:11.226169643,(10 20 -17 -8 29 31 23 3)
1969-12-31 18:00:11.227285714,(-18 51 38 6 -26 7 -26 -4)
1969-12-31 18:00:11.227285714,(43 17 -33 -4 48 61 25 26)
1969-12-31 18:00:11.266348214,(-2 -67 -17 -2 -63 -61 51 62)
1969-12-31 18:00:11.266348214,(-44 50 81 29 40 -7 -61 -73)
1969-12-31 18:00:11.278625000,(-18 -48 -52 -17 16 27 34 13)
1969-12-31 18:00:11.278625000,(13 -33 -26 -15 -10 -2 1 3)
1969-12-31 18:00:11.279741071,(81 29 3 19 26 30 20 88)
1969-12-31 18:00:11.279741071,(-8 48 21 3 -9 -15 -36 -17)
1969-12-31 18:00:11.283089286,(-1 49 50 4 -35 -29 22 -23)
1969-12-31 18:00:11.284205357,(-18 6 41 19 13 -1 -11 -24)
1969-12-31 18:00:11.300946429,(-47 -101 -71 -23 18 48 -7 -24)
1969-12-31 18:00:11.300946429,(9 11 -43 -23 -43 -37 -27 -15)
1969-12-31 18:00:11.300946429,(82 52 54 42 79 60 10 43)
1969-12-31 18:00:11.300946429,(-13 -31 -10 -13 -63 -77 -4 -20)
1969-12-31 18:00:11.325500000,(-13 32 18 -12 -47 -51 -62 -41)
1969-12-31 18:00:11.325500000,(-19 -36 -5 3 42 38 11 -4)
1969-12-31 18:00:11.326616071,(-12 -30 -45 -14 -7 5 5 -7)
1969-12-31 18:00:11.326616071,(15 -27 -56 -12 62 75 18 16)
1969-12-31 18:00:11.342241071,(-21 79 104 42 -40 -49 -1 -36)
1969-12-31 18:00:11.342241071,(12 4 -11 -13 -15 -18 -12 -15)
1969-12-31 18:00:11.343357143,(18 5 -11 -4 3 10 11 30)
1969-12-31 18:00:11.343357143,(-15 -1 7 11 11 9 -11 -6)
1969-12-31 18:00:11.367910714,(19 -13 -45 -16 0 -2 21 7)
1969-12-31 18:00:11.367910714,(-26 1 15 3 11 4 -1 15)
1969-12-31 18:00:11.367910714,(6 -17 -5 4 -2 10 3 13)
1969-12-31 18:00:11.367910714,(-40 -14 -6 -13 -8 -33 -55 -78)
1969-12-31 18:00:11.420366071,(-17 -36 -58 -25 8 27 8 -8)
1969-12-31 18:00:11.420366071,(51 65 66 20 -45 -51 6 23)
1969-12-31 18:00:11.420366071,(-11 19 11 6 -14 -36 -26 -20)
1969-12-31 18:00:11.420366071,(0 -55 -48 -4 24 2 11 37)
1969-12-31 18:00:11.422598214,(-5 33 16 -14 -40 -3 8 11)
1969-12-31 18:00:11.422598214,(25 21 -12 -7 31 34 19 22)
1969-12-31 18:00:11.425946429,(-49 -71 -34 -23 -37 -43 -37 -28)
1969-12-31 18:00:11.425946429,(2 6 -15 -8 7 7 -24 2)
1969-12-31 18:00:11.434875000,(14 3 4 17 30 9 17 5)
1969-12-31 18:00:11.434875000,(-11 -18 -12 -10 -37 -53 -27 -28)
1969-12-31 18:00:11.434875000,(8 50 44 25 21 34 25 8)
1969-12-31 18:00:11.434875000,(-40 -71 -52 -28 -30 -26 -28 -13)
1969-12-31 18:00:11.459428571,(40 46 43 24 63 65 58 52)
1969-12-31 18:00:11.459428571,(-38 6 1 -16 -41 -48 -16 -51)
1969-12-31 18:00:11.460544643,(3 -97 -70 -25 -2 -10 -25 -23)
1969-12-31 18:00:11.460544643,(26 58 59 18 -8 7 20 13)
1969-12-31 18:00:11.478401786,(-55 -2 10 5 2 -4 -9 -61)
1969-12-31 18:00:11.478401786,(9 -2 -10 2 27 35 11 36)
1969-12-31 18:00:11.479517857,(3 -63 -39 -4 65 59 2 8)
1969-12-31 18:00:11.479517857,(-40 29 29 -17 -116 -112 -15 -13)
1969-12-31 18:00:11.501839286,(12 -6 -31 -21 14 17 -19 -12)
1969-12-31 18:00:11.501839286,(13 12 0 3 2 -1 10 16)
1969-12-31 18:00:11.501839286,(-13 -41 -27 3 50 62 19 7)
1969-12-31 18:00:11.502955357,(33 32 15 14 9 -8 37 49)
1969-12-31 18:00:11.526392857,(-12 -10 -14 -6 -29 -51 -31 -40)
1969-12-31 18:00:11.526392857,(-59 74 75 -2 -81 -31 -31 -107)
1969-12-31 18:00:11.527508929,(-15 -3 -9 -15 -30 -29 -9 -17)
1969-12-31 18:00:11.527508929,(5 -2 -3 7 15 24 -5 -1)
1969-12-31 18:00:11.543133929,(29 -119 -109 -26 50 46 23 28)
1969-12-31 18:00:11.543133929,(-2 48 60 45 25 24 6 31)
1969-12-31 18:00:11.544250000,(19 77 28 2 -22 -21 -3 -4)
1969-12-31 18:00:11.544250000,(-5 -7 2 11 16 18 26 -1)
1969-12-31 18:00:11.587776786,(-17 -16 -4 -2 -5 -7 -41 -15)
1969-12-31 18:00:11.587776786,(-21 -70 -70 -24 40 36 24 -18)
1969-12-31 18:00:11.588892857,(7 37 38 17 -4 4 -9 11)
1969-12-31 18:00:11.588892857,(17 -18 -38 -20 -24 -20 14 9)
1969-12-31 18:00:11.593357143,(-9 66 73 25 3 -20 -7 10)
1969-12-31 18:00:11.593357143,(-24 -31 -15 -7 -8 12 3 -15)
1969-12-31 18:00:11.594473214,(23 44 35 5 -19 -26 30 31)
1969-12-31 18:00:11.594473214,(-26 -25 -20 7 55 58 -39 -78)
1969-12-31 18:00:11.610098214,(26 -27 -59 -36 -32 -38 21 35)
1969-12-31 18:00:11.610098214,(-19 10 71 28 17 8 7 16)
1969-12-31 18:00:11.611214286,(-6 -18 -21 -5 14 15 10 -16)
1969-12-31 18:00:11.611214286,(29 -14 -18 0 -8 -8 14 33)
1969-12-31 18:00:11.635767857,(9 58 55 30 48 43 -12 -39)
1969-12-31 18:00:11.635767857,(-7 -92 -86 -27 -19 -34 7 27)
1969-12-31 18:00:11.635767857,(2 65 63 11 -25 -3 14 14)
1969-12-31 18:00:11.635767857,(-37 3 20 3 2 -15 -21 -64)
1969-12-31 18:00:11.651392857,(7 -34 -43 -13 -4 13 5 26)
1969-12-31 18:00:11.651392857,(48 -53 -57 -21 24 11 10 40)
1969-12-31 18:00:11.660321429,(-40 3 7 -21 -49 -55 -44 -60)
1969-12-31 18:00:11.660321429,(1 32 28 12 9 6 24 48)
1969-12-31 18:00:11.677062500,(-5 24 31 32 97 96 27 8)
1969-12-31 18:00:11.677062500,(36 40 13 20 -42 -52 4 27)
1969-12-31 18:00:11.678178571,(11 -21 -34 -56 -80 -92 -62 11)
1969-12-31 18:00:11.678178571,(-14 -7 21 -2 25 10 -18 -35)
1969-12-31 18:00:11.729517857,(28 -32 -41 -22 -15 -3 9 38)
1969-12-31 18:00:11.729517857,(6 -1 10 33 84 75 34 26)
1969-12-31 18:00:11.730633929,(34 23 -13 8 10 16 11 25)
1969-12-31 18:00:11.730633929,(13 18 41 6 -31 -21 3 44)
1969-12-31 18:00:11.732866071,(-29 -48 -6 -1 -13 5 1 -19)
1969-12-31 18:00:11.732866071,(28 47 7 -1 4 -5 -10 -8)
1969-12-31 18:00:11.736214286,(-2 1 1 4 -5 -2 -14 -36)
1969-12-31 18:00:11.736214286,(11 -34 -37 -17 -11 -21 -21 -40)
1969-12-31 18:00:11.744026786,(-16 86 83 28 1 5 2 -20)
1969-12-31 18:00:11.744026786,(6 -19 -17 0 45 50 11 18)
1969-12-31 18:00:11.745142857,(-13 -49 -49 -14 -37 -24 12 2)
1969-12-31 18:00:11.745142857,(5 -26 -37 -16 -21 -15 -40 4)
1969-12-31 18:00:11.778625000,(-21 50 91 23 -49 -30 0 -8)
1969-12-31 18:00:11.778625000,(2 -25 -28 -25 -8 -1 -11 -13)
1969-12-31 18:00:11.779741071,(-14 18 3 21 64 49 24 -17)
1969-12-31 18:00:11.779741071,(29 32 17 25 37 57 52 49)
1969-12-31 18:00:11.785321429,(10 42 20 3 -30 -57 -23 0)
1969-12-31 18:00:11.785321429,(11 -25 -38 -14 24 47 0 19)
1969-12-31 18:00:11.793133929,(-7 -31 30 22 35 10 50 40)
1969-12-31 18:00:11.793133929,(1 22 -10 -10 -12 -19 -44 -18)
1969-12-31 18:00:11.810991071,(6 -12 -21 -29 -72 -47 15 16)
1969-12-31 18:00:11.810991071,(-28 17 12 5 -7 -4 1 -16)
1969-12-31 18:00:11.812107143,(27 -15 -18 1 11 17 12 35)
1969-12-31 18:00:11.812107143,(-9 5 -6 -1 19 22 12 -3)
1969-12-31 18:00:11.835544643,(-17 -35 -25 5 29 14 8 10)
1969-12-31 18:00:11.835544643,(30 18 23 2 -9 -11 16 62)
1969-12-31 18:00:11.836660714,(-29 -10 -10 -8 -10 -7 -42 -72)
1969-12-31 18:00:11.836660714,(15 -6 -1 -1 11 22 28 38)
1969-12-31 18:00:11.888000000,(-23 20 21 13 16 -21 -50 -36)
1969-12-31 18:00:11.888000000,(17 -6 -19 -27 -55 -32 0 3)
1969-12-31 18:00:11.888000000,(-1 -17 -14 -8 8 2 -1 9)
1969-12-31 18:00:11.888000000,(3 40 20 4 -10 -25 -22 -10)
1969-12-31 18:00:11.895812500,(11 -44 -37 -5 29 31 22 13)
1969-12-31 18:00:11.895812500,(13 53 28 14 17 12 61 48)
1969-12-31 18:00:11.896928571,(-12 9 21 5 -28 -25 -57 -72)
1969-12-31 18:00:11.896928571,(-19 -30 -19 -20 -19 -35 -31 -41)
1969-12-31 18:00:11.903625000,(-4 -29 -27 -14 -8 -3 4 8)
1969-12-31 18:00:11.903625000,(-12 -23 -13 -5 22 17 -1 -8)
1969-12-31 18:00:11.903625000,(12 9 2 5 4 17 29 36)
1969-12-31 18:00:11.903625000,(-3 5 10 0 4 -5 -9 0)
1969-12-31 18:00:11.928178571,(9 5 -6 2 1 9 14 14)
1969-12-31 18:00:11.928178571,(-19 -18 -6 1 -3 -22 -43 -62)
1969-12-31 18:00:11.929294643,(-5 0 0 -4 -26 -19 9 13)
1969-12-31 18:00:11.929294643,(3 16 13 4 17 11 3 3)
1969-12-31 18:00:11.944919643,(-7 -48 -42 -27 -25 -4 7 -2)
1969-12-31 18:00:11.944919643,(-16 -8 -16 -5 -1 -4 -24 -28)
1969-12-31 18:00:11.946035714,(-12 28 39 21 24 29 7 -8)
1969-12-31 18:00:11.946035714,(37 77 49 28 20 7 36 37)
1969-12-31 18:00:11.969473214,(16 -2 -8 -17 -32 -22 -13 14)
1969-12-31 18:00:11.969473214,(-14 -35 -30 -12 -2 19 -5 -69)
1969-12-31 18:00:11.970589286,(-4 -13 -11 -4 -5 -50 -33 4)
1969-12-31 18:00:11.970589286,(1 -3 0 -1 -3 17 -7 -11)
1969-12-31 18:00:11.995142857,(10 0 -7 -1 7 9 22 44)
1969-12-31 18:00:11.995142857,(-28 5 12 5 8 6 2 15)
1969-12-31 18:00:11.996258929,(10 9 4 2 24 32 13 -8)
1969-12-31 18:00:11.996258929,(8 -11 -8 -3 -18 -13 -10 -12)
1969-12-31 18:00:12.038669642,(6 4 0 3 -4 -18 -27 -23)
1969-12-31 18:00:12.039785713,(8 3 6 -2 -2 -5 -8 10)
1969-12-31 18:00:12.039785713,(3 12 2 2 5 9 8 12)
1969-12-31 18:00:12.039785713,(-15 -27 -11 -8 -23 -17 -4 9)
1969-12-31 18:00:12.042017857,(-3 9 6 -4 5 9 -16 -46)
1969-12-31 18:00:12.042017857,(-10 -1 -1 3 -5 -23 -4 -6)
1969-12-31 18:00:12.045366071,(-27 -20 -12 -3 -2 7 -5 -2)
1969-12-31 18:00:12.045366071,(-24 -12 -3 1 -2 12 -3 -29)
1969-12-31 18:00:12.063223214,(16 2 1 4 6 -2 4 11)
1969-12-31 18:00:12.063223214,(-2 6 2 -8 -8 -6 -6 4)
1969-12-31 18:00:12.063223214,(12 0 -3 -2 6 10 16 20)
1969-12-31 18:00:12.063223214,(-8 -6 -5 -2 -5 -5 7 27)
1969-12-31 18:00:12.078848214,(31 11 5 4 4 8 17 53)
1969-12-31 18:00:12.078848214,(-24 -24 -11 -12 -12 -13 2 -6)
1969-12-31 18:00:12.078848214,(-10 -5 -5 -2 1 2 -4 -13)
1969-12-31 18:00:12.078848214,(13 5 4 3 3 10 3 2)
1969-12-31 18:00:12.103401786,(-9 4 2 3 0 -1 6 -9)
1969-12-31 18:00:12.103401786,(27 15 6 5 -2 -12 -13 1)
1969-12-31 18:00:12.104517857,(25 12 6 5 11 15 14 20)
1969-12-31 18:00:12.104517857,(-7 -9 -4 -5 -6 -9 -5 -3)
1969-12-31 18:00:12.130187500,(-55 -28 -14 -17 -12 -16 12 -21)
1969-12-31 18:00:12.130187500,(6 -1 -1 -28 -24 31 4 -2)
1969-12-31 18:00:12.131303571,(-32 -13 -4 10 8 -22 -33 -36)
1969-12-31 18:00:12.131303571,(21 18 15 51 40 14 33 20)
1969-12-31 18:00:12.145812500,(-4 -22 -5 6 2 -12 -22 -7)
1969-12-31 18:00:12.145812500,(-58 -21 -9 -4 -3 31 -16 -68)
1969-12-31 18:00:12.146928571,(40 10 -4 -25 -27 -60 0 44)
1969-12-31 18:00:12.146928571,(-25 -17 -9 -18 -7 6 -5 -9)
1969-12-31 18:00:12.196035714,(-1 19 16 15 11 9 0 -20)
1969-12-31 18:00:12.196035714,(32 8 -3 -3 -2 -18 -18 -31)
1969-12-31 18:00:12.197151786,(-38 -11 -4 -5 2 21 13 -10)
1969-12-31 18:00:12.197151786,(-43 -19 -6 -9 -11 -15 -16 -38)
1969-12-31 18:00:12.207196429,(-33 -6 -2 -4 0 9 10 5)
1969-12-31 18:00:12.207196429,(-6 6 2 7 3 -13 -22 -22)
1969-12-31 18:00:12.207196429,(49 26 12 12 8 13 5 28)
1969-12-31 18:00:12.207196429,(22 3 6 1 -4 -2 9 44)
1969-12-31 18:00:12.212776786,(7 18 6 2 3 18 2 -22)
1969-12-31 18:00:12.212776786,(54 10 1 7 7 -12 -6 22)
1969-12-31 18:00:12.213892857,(-44 -15 -16 -9 -5 1 -6 -30)
1969-12-31 18:00:12.213892857,(9 0 -1 -7 -11 -10 -21 -34)
1969-12-31 18:00:12.237330357,(32 -3 0 1 5 8 19 65)
1969-12-31 18:00:12.237330357,(-67 -31 -2 5 3 -15 -6 -13)
1969-12-31 18:00:12.238446429,(-14 -4 2 1 2 12 17 7)
1969-12-31 18:00:12.238446429,(54 17 -2 -5 -3 4 20 71)
1969-12-31 18:00:12.264116071,(-62 -22 -16 -10 -12 -21 -42 -91)
1969-12-31 18:00:12.264116071,(54 39 17 13 7 4 22 59)
1969-12-31 18:00:12.264116071,(-9 -43 -16 -10 -6 7 4 37)
1969-12-31 18:00:12.264116071,(-41 -12 -12 -15 -14 -21 -29 -62)
1969-12-31 18:00:12.279741071,(16 -19 -5 -3 -1 -3 -2 20)
1969-12-31 18:00:12.279741071,(-52 -13 -9 -8 -3 -7 -6 -21)
1969-12-31 18:00:12.280857143,(62 40 26 19 13 12 13 30)
1969-12-31 18:00:12.280857143,(-23 -7 -3 -3 -4 -3 -6 -18)
1969-12-31 18:00:12.304294643,(48 16 1 0 0 6 20 62)
1969-12-31 18:00:12.304294643,(18 8 5 2 -2 -3 2 -3)
1969-12-31 18:00:12.305410714,(-13 -11 -13 -8 -5 -5 -15 -33)
1969-12-31 18:00:12.305410714,(-3 -9 -6 -7 -5 -4 -4 -8)
1969-12-31 18:00:12.350053571,(12 20 10 4 1 2 -5 -11)
1969-12-31 18:00:12.350053571,(6 -5 -1 1 0 -5 -2 26)
1969-12-31 18:00:12.351169643,(47 20 6 8 7 11 18 53)
1969-12-31 18:00:12.351169643,(3 21 11 6 7 11 18 5)
1969-12-31 18:00:12.355633929,(-68 -31 -9 -6 -3 -7 -13 -49)
1969-12-31 18:00:12.355633929,(34 7 -3 -1 1 -1 6 18)
1969-12-31 18:00:12.356750000,(-11 10 1 -1 -3 -1 -10 -21)
1969-12-31 18:00:12.356750000,(10 -2 3 3 0 2 9 26)
1969-12-31 18:00:12.371258929,(30 10 -1 -1 1 1 5 11)
1969-12-31 18:00:12.371258929,(-4 9 2 -1 -1 -4 -2 -4)
1969-12-31 18:00:12.372375000,(-5 -11 -2 -1 0 2 2 -3)
1969-12-31 18:00:12.372375000,(-23 -6 -2 -1 -3 -3 -6 -8)
1969-12-31 18:00:12.398044643,(-8 0 -3 -1 -4 -4 -12 -39)
1969-12-31 18:00:12.398044643,(1 -11 0 1 3 1 1 5)
1969-12-31 18:00:12.399160714,(-7 -5 -5 -7 -4 -2 -8 -15)
1969-12-31 18:00:12.399160714,(-13 -11 -4 -4 -2 -3 -8 1)
1969-12-31 18:00:12.413669643,(23 13 4 1 1 4 5 9)
1969-12-31 18:00:12.413669643,(7 -1 1 0 -1 1 6 6)
1969-12-31 18:00:12.414785714,(-2 -1 0 2 -1 1 -1 -12)
1969-12-31 18:00:12.414785714,(5 -1 0 1 -1 -3 -5 -5)
1969-12-31 18:00:12.439339286,(15 0 -1 -3 -2 1 -1 1)
1969-12-31 18:00:12.439339286,(-12 -2 -2 0 -1 0 -2 2)
1969-12-31 18:00:12.439339286,(-25 -10 -2 -3 -2 -3 -9 -18)
1969-12-31 18:00:12.439339286,(0 -4 -3 -2 -3 -1 -3 -1)
1969-12-31 18:00:12.465008929,(6 8 0 -2 -2 -3 -1 3)
1969-12-31 18:00:12.465008929,(-2 0 1 4 1 1 2 8)
1969-12-31 18:00:12.465008929,(-18 -19 -9 -5 -4 -4 -5 -10)
1969-12-31 18:00:12.465008929,(6 3 -2 -3 -2 0 -1 -2)
1969-12-31 18:00:12.517464286,(-1 -5 -1 -1 0 0 -2 3)
1969-12-31 18:00:12.517464286,(-12 -7 -3 -3 -1 -2 -3 -7)
1969-12-31 18:00:12.518580357,(-1 13 11 3 1 1 1 -4)
1969-12-31 18:00:12.518580357,(-1 -7 -5 -2 -2 -1 -4 -22)
1969-12-31 18:00:12.523044643,(-8 3 0 1 -2 -2 -2 6)
1969-12-31 18:00:12.523044643,(2 1 -5 -3 0 -3 -5 -3)
1969-12-31 18:00:12.524160714,(1 -2 3 3 0 -1 -3 -4)
1969-12-31 18:00:12.524160714,(-14 0 2 -3 -2 -4 -3 -5)
1969-12-31 18:00:12.531973214,(-5 -4 -5 -2 -1 -1 -3 -6)
1969-12-31 18:00:12.531973214,(3 2 -2 0 -2 2 2 -2)
1969-12-31 18:00:12.531973214,(1 -3 -2 -1 0 -3 0 -1)
1969-12-31 18:00:12.531973214,(8 4 -7 -7 -2 -1 1 8)
1969-12-31 18:00:12.546482143,(-18 -11 10 12 5 5 9 -1)
1969-12-31 18:00:12.546482143,(8 3 1 -1 -1 -4 -12 4)
1969-12-31 18:00:12.555410714,(-8 -7 -10 -6 -5 -5 -9 -12)
1969-12-31 18:00:12.555410714,(1 -3 -2 -1 -2 -2 -2 1)
1969-12-31 18:00:12.572151786,(3 -9 -18 -10 -4 -2 0 -1)
1969-12-31 18:00:12.572151786,(1 13 19 8 3 6 7 2)
1969-12-31 18:00:12.573267857,(0 5 2 0 3 4 11 4)
1969-12-31 18:00:12.573267857,(-3 -1 -1 0 -5 -7 -26 -10)
1969-12-31 18:00:12.598937500,(2 7 -3 -9 -5 -4 -4 -4)
1969-12-31 18:00:12.598937500,(-10 -15 -8 -3 -3 -2 -2 -8)
1969-12-31 18:00:12.600053571,(3 -9 -3 -2 -3 -1 -1 0)
1969-12-31 18:00:12.600053571,(17 -10 -11 -3 1 3 14 12)
1969-12-31 18:00:12.613446429,(3 28 34 11 7 4 2 21)
1969-12-31 18:00:12.613446429,(-8 -7 -17 -11 -8 -10 -10 -9)
1969-12-31 18:00:12.623491071,(-5 3 1 -2 -2 -1 4 -6)
1969-12-31 18:00:12.623491071,(0 -12 -11 -2 2 6 7 1)
1969-12-31 18:00:12.656973214,(4 -19 -13 -3 -3 -2 15 6)
1969-12-31 18:00:12.656973214,(5 16 15 3 1 -6 -27 -5)
1969-12-31 18:00:12.658089286,(1 -2 1 3 2 5 6 5)
1969-12-31 18:00:12.658089286,(0 7 8 2 -3 -3 14 10)
1969-12-31 18:00:12.665901786,(-6 -4 -10 -2 0 1 -16 -16)
1969-12-31 18:00:12.665901786,(3 -5 -3 -1 0 5 24 9)
1969-12-31 18:00:12.665901786,(-5 -3 -5 -4 -3 -7 -22 -11)
1969-12-31 18:00:12.665901786,(-2 -1 3 -1 -1 0 7 6)
1969-12-31 18:00:12.690455357,(-3 -2 -2 -2 -3 -3 -5 -5)
1969-12-31 18:00:12.690455357,(4 0 2 4 4 0 3 0)
1969-12-31 18:00:12.691571429,(4 6 2 -2 0 1 -5 0)
1969-12-31 18:00:12.691571429,(-3 -3 -1 -4 -3 -2 1 -3)
1969-12-31 18:00:12.707196429,(-6 -9 -6 1 -1 -3 -4 -9)
1969-12-31 18:00:12.707196429,(1 7 7 4 0 3 0 0)
1969-12-31 18:00:12.708312500,(-1 -1 -4 -4 -5 -7 -11 -5)
1969-12-31 18:00:12.708312500,(0 7 4 4 3 3 -3 -2)
1969-12-31 18:00:12.732866071,(-3 -6 -7 -2 -1 2 5 -1)
1969-12-31 18:00:12.732866071,(-5 -7 -8 -7 -6 -3 -15 -3)
1969-12-31 18:00:12.733982143,(0 4 3 0 1 2 10 -3)
1969-12-31 18:00:12.733982143,(-2 0 1 -2 -2 -4 -9 -1)
1969-12-31 18:00:12.747375000,(2 0 -2 -5 -4 -3 -2 -6)
1969-12-31 18:00:12.747375000,(2 -1 -1 3 5 0 -2 4)
1969-12-31 18:00:12.756303571,(-9 -1 0 1 -2 -2 -5 -11)
1969-12-31 18:00:12.756303571,(-2 -4 -2 0 -1 1 -3 0)
1969-12-31 18:00:12.774160714,(-4 2 3 0 1 0 8 0)
1969-12-31 18:00:12.774160714,(4 1 0 -1 1 0 0 4)
1969-12-31 18:00:12.781973214,(-1 -8 -7 -3 -4 -3 2 1)
1969-12-31 18:00:12.781973214,(0 -1 -5 1 1 1 5 -2)
1969-12-31 18:00:12.826616071,(-2 8 7 1 -3 -2 -11 -2)
1969-12-31 18:00:12.826616071,(-3 -8 -10 -6 -3 0 6 -1)
1969-12-31 18:00:12.827732143,(0 3 7 5 0 0 2 4)
1969-12-31 18:00:12.827732143,(-3 -5 -2 -1 0 0 2 0)
1969-12-31 18:00:12.828848214,(2 0 2 0 -1 -6 -12 -4)
1969-12-31 18:00:12.828848214,(-2 -2 -2 -2 1 2 0 -2)
1969-12-31 18:00:12.832196429,(1 -6 -3 0 2 6 13 6)
1969-12-31 18:00:12.832196429,(-1 0 2 -3 -4 -6 -4 -1)
1969-12-31 18:00:12.842241071,(-4 -4 -5 -7 -4 -3 -6 -4)
1969-12-31 18:00:12.842241071,(-3 -6 -1 0 -1 -3 0 -3)
1969-12-31 18:00:12.843357143,(-4 -9 -9 -5 -1 1 -4 2)
1969-12-31 18:00:12.843357143,(1 3 7 7 2 0 -1 1)
1969-12-31 18:00:12.866794643,(5 9 2 4 1 1 2 0)
1969-12-31 18:00:12.866794643,(-8 -5 -3 -1 -2 0 -1 -8)
1969-12-31 18:00:12.866794643,(-7 -2 -1 0 -1 -2 -4 -6)
1969-12-31 18:00:12.867910714,(-6 -4 -4 -4 -1 -3 -9 -7)
1969-12-31 18:00:12.881303571,(0 -5 -7 -6 -2 0 0 3)
1969-12-31 18:00:12.881303571,(8 4 0 0 0 2 4 6)
1969-12-31 18:00:12.891348214,(-3 -1 -1 -2 -3 -4 0 -2)
1969-12-31 18:00:12.891348214,(0 1 1 -1 -1 -2 -6 -7)
1969-12-31 18:00:12.906973214,(-2 -3 -3 -1 -1 -1 -3 0)
1969-12-31 18:00:12.906973214,(0 -2 -3 -7 -6 -2 3 -2)
1969-12-31 18:00:12.908089286,(9 10 8 9 8 3 0 10)
1969-12-31 18:00:12.908089286,(1 -1 -4 -4 -4 0 -3 -2)
1969-12-31 18:00:12.932642857,(-6 -4 -1 0 -1 -4 -9 -8)
1969-12-31 18:00:12.932642857,(2 5 3 2 3 -3 -2 0)
1969-12-31 18:00:12.985098214,(-3 0 -4 -2 -1 3 -4 -3)
1969-12-31 18:00:12.985098214,(2 0 -2 -3 1 1 5 3)
1969-12-31 18:00:12.986214286,(-3 -6 -8 -3 -1 -1 -1 0)
1969-12-31 18:00:12.986214286,(2 0 -2 -4 1 3 7 4)
1969-12-31 18:00:12.987330357,(3 5 4 5 4 2 -2 1)
1969-12-31 18:00:12.988446429,(-4 -4 -4 -2 -7 -14 1 -6)
1969-12-31 18:00:12.992910714,(0 2 1 0 8 26 2 1)
1969-12-31 18:00:12.992910714,(-4 -4 -3 -8 -11 -43 11 0)
1969-12-31 18:00:12.994026786,(0 -3 -3 0 -9 -4 14 4)
1969-12-31 18:00:12.994026786,(-7 -3 -3 -6 -3 4 -28 -11)
1969-12-31 18:00:13.000723214,(0 -3 0 12 16 0 4 0)
1969-12-31 18:00:13.000723214,(0 0 -6 -24 -3 -20 -16 -4)
1969-12-31 18:00:13.000723214,(2 7 6 25 -3 58 13 -3)
1969-12-31 18:00:13.000723214,(-2 -1 -2 -6 -4 -40 6 -4)
1969-12-31 18:00:13.026392857,(-5 -2 -3 -4 -8 -2 -20 -5)
1969-12-31 18:00:13.026392857,(1 -3 -1 7 5 9 1 1)
1969-12-31 18:00:13.027508929,(-4 -7 -10 -20 -9 -27 -12 -5)
1969-12-31 18:00:13.027508929,(2 3 6 6 5 16 -3 -1)
1969-12-31 18:00:13.040901786,(0 0 0 -4 -4 -2 7 3)
1969-12-31 18:00:13.040901786,(-3 -5 -3 -1 -1 5 5 -1)
1969-12-31 18:00:13.042017857,(3 2 3 3 8 -6 -6 -2)
1969-12-31 18:00:13.042017857,(1 1 3 4 2 12 4 1)
1969-12-31 18:00:13.067687500,(-5 -5 -1 -5 -3 -14 7 2)
1969-12-31 18:00:13.067687500,(-1 -1 1 6 0 11 -9 -7)
1969-12-31 18:00:13.067687500,(-2 -3 -2 -6 2 -3 4 1)
1969-12-31 18:00:13.067687500,(1 -4 -3 -4 -1 5 9 9)
1969-12-31 18:00:13.067687500,(-3 -3 -2 -4 -2 -1 -2 -3)
1969-12-31 18:00:13.067687500,(0 1 -1 0 0 -1 -2 -2)
1969-12-31 18:00:13.068803571,(1 1 4 1 -1 0 -1 1)
1969-12-31 18:00:13.068803571,(-1 -3 1 -2 1 0 -2 0)
1969-12-31 18:00:13.069919643,(0 -2 -6 -4 -4 -2 0 -1)
1969-12-31 18:00:13.069919643,(1 0 -5 -2 -1 0 -2 -1)
1969-12-31 18:00:13.074383929,(-2 -2 -4 0 0 -1 -2 -2)
1969-12-31 18:00:13.074383929,(-2 -2 -2 -1 -1 -1 -2 -2)
1969-12-31 18:00:13.075500000,(1 0 2 -1 -2 -1 -1 0)
1969-12-31 18:00:13.075500000,(2 2 -2 -3 -3 -2 0 1)
1969-12-31 18:00:13.098937500,(-2 1 1 3 1 0 0 0)
1969-12-31 18:00:13.098937500,(0 0 0 1 -1 0 0 -2)
1969-12-31 18:00:13.101169643,(2 0 -1 -2 -1 -1 2 1)
1969-12-31 18:00:13.101169643,(1 1 2 2 0 0 -1 0)
1969-12-31 18:00:13.105633929,(-1 -2 0 -2 0 -2 -1 -2)
1969-12-31 18:00:13.105633929,(0 -2 -3 -3 -2 -1 0 0)
1969-12-31 18:00:13.124607143,(0 3 5 5 3 1 1 1)
1969-12-31 18:00:13.124607143,(-1 -1 1 -1 -1 -1 -2 0)
1969-12-31 18:00:13.132419643,(0 -1 -2 -1 -2 -2 -2 1)
1969-12-31 18:00:13.132419643,(-1 -3 -2 1 0 -1 -2 -3)
1969-12-31 18:00:13.139116071,(0 1 1 1 -1 -1 0 -1)
1969-12-31 18:00:13.139116071,(0 -1 3 2 0 0 2 0)
1969-12-31 18:00:13.158089286,(-1 -1 -2 -2 -3 -1 -1 0)
1969-12-31 18:00:13.158089286,(-2 -2 0 0 0 -1 -1 0)
1969-12-31 18:00:13.159205357,(-1 -1 1 -2 -2 0 -3 0)
1969-12-31 18:00:13.159205357,(-1 -2 -3 -3 0 -1 0 -1)
1969-12-31 18:00:13.217241071,(0 -2 -1 -4 -1 -2 -1 -1)
1969-12-31 18:00:13.217241071,(-3 -3 -5 -4 -2 -1 -1 -3)
1969-12-31 18:00:13.219473214,(0 4 5 2 -1 -1 0 -1)
1969-12-31 18:00:13.219473214,(-2 1 -2 0 0 1 -2 2)
1969-12-31 18:00:13.220589286,(-2 -2 1 0 0 0 -1 -3)
1969-12-31 18:00:13.220589286,(-2 -1 -3 -5 -1 -1 -1 -1)
1969-12-31 18:00:13.227285714,(0 2 1 0 -1 0 -1 2)
1969-12-31 18:00:13.227285714,(0 -1 -1 1 -1 -2 0 -1)
1969-12-31 18:00:13.228401786,(-1 0 -2 -1 -2 -1 -1 -1)
1969-12-31 18:00:13.228401786,(-1 -1 -1 -2 -1 1 -1 0)
1969-12-31 18:00:13.231750000,(0 -1 -4 -1 -2 -2 -1 -1)
1969-12-31 18:00:13.231750000,(0 -1 -2 -1 -1 -2 -1 -2)
1969-12-31 18:00:13.239562500,(1 -2 0 0 0 -2 -1 1)
1969-12-31 18:00:13.239562500,(-1 0 -1 -3 -2 -3 -2 -1)
1969-12-31 18:00:13.276392857,(-1 0 -1 -3 -2 -2 -1 -3)
1969-12-31 18:00:13.276392857,(-3 -1 -4 -3 -1 -2 -1 -1)
1969-12-31 18:00:13.300946429,(-2 -1 -2 -2 -3 -1 -1 -1)
1969-12-31 18:00:13.300946429,(-1 -3 -2 1 -1 -2 0 -2)
1969-12-31 18:00:13.303178571,(0 -2 0 -1 -1 -1 -1 0)
1969-12-31 18:00:13.303178571,(0 -1 -3 -4 -2 -1 -1 -1)
1969-12-31 18:00:13.304294643,(-3 0 1 3 -1 0 -2 -2)
1969-12-31 18:00:13.304294643,(-1 -3 -3 -12 -13 -4 -2 -2)
1969-12-31 18:00:13.309875000,(-2 0 -1 1 1 1 -2 0)
1969-12-31 18:00:13.309875000,(2 0 3 11 11 3 -1 0)
1969-12-31 18:00:13.309875000,(0 0 1 7 -2 1 1 -1)
1969-12-31 18:00:13.309875000,(0 1 -1 2 2 3 1 -3)
1969-12-31 18:00:13.316571429,(-1 -4 -5 -10 -4 -7 -1 -2)
1969-12-31 18:00:13.316571429,(-5 -6 -11 -30 -29 -8 -1 -2)
1969-12-31 18:00:13.385767857,(1 6 6 0 2 -4 -1 2)
1969-12-31 18:00:13.385767857,(-1 -1 2 10 21 5 -4 -3)
1969-12-31 18:00:13.388000000,(-2 -3 -3 0 -12 -4 1 0)
1969-12-31 18:00:13.388000000,(2 0 2 13 21 21 7 2)
1969-12-31 18:00:13.388000000,(-1 0 1 10 1 1 -4 -2)
1969-12-31 18:00:13.388000000,(-3 -2 -4 -7 -9 -6 1 1)
1969-12-31 18:00:13.392464286,(-1 -3 -3 -10 -11 -9 -5 -2)
1969-12-31 18:00:13.392464286,(1 2 -2 -25 -26 -4 8 0)
1969-12-31 18:00:13.393580357,(-1 -5 -4 -3 25 -7 -13 -6)
1969-12-31 18:00:13.393580357,(0 1 2 14 7 9 26 5)
1969-12-31 18:00:13.401392857,(-2 -2 -3 -9 -10 -1 3 2)
1969-12-31 18:00:13.401392857,(0 1 -1 -14 -13 -6 -3 -2)
1969-12-31 18:00:13.403625000,(0 0 -1 -10 -15 -15 2 0)
1969-12-31 18:00:13.403625000,(-6 -5 -10 -7 6 14 1 -3)
1969-12-31 18:00:13.424830357,(-1 -1 5 17 5 -1 -1 -4)
1969-12-31 18:00:13.424830357,(0 1 -3 2 8 -7 -7 -1)
1969-12-31 18:00:13.427062500,(1 -3 -1 -1 -4 3 2 0)
1969-12-31 18:00:13.427062500,(-4 -3 -8 -15 -18 -15 -12 -4)
1969-12-31 18:00:13.440455357,(0 0 -1 -9 -4 13 7 1)
1969-12-31 18:00:13.440455357,(-1 -3 3 4 -4 -9 -9 -2)
1969-12-31 18:00:13.460544643,(-4 -4 -9 -16 -4 -2 -4 -2)
1969-12-31 18:00:13.460544643,(1 1 -6 1 0 -9 -2 -2)
1969-12-31 18:00:13.466125000,(-1 1 6 1 -5 4 -4 -1)
1969-12-31 18:00:13.466125000,(1 4 12 3 -2 3 1 0)
1969-12-31 18:00:13.528625000,(0 1 4 17 13 3 2 1)
1969-12-31 18:00:13.528625000,(0 -1 0 3 1 -3 -5 0)
1969-12-31 18:00:13.528625000,(1 -1 -6 0 -1 5 10 5)
1969-12-31 18:00:13.528625000,(-5 -8 -11 -12 -8 -5 -12 -2)
1969-12-31 18:00:13.535321429,(1 5 10 7 7 3 7 -1)
1969-12-31 18:00:13.535321429,(1 -6 -5 3 -2 -3 -6 -6)
1969-12-31 18:00:13.536437500,(-5 -7 -14 -19 -14 -3 5 1)
1969-12-31 18:00:13.536437500,(0 2 10 3 -6 -2 -2 -5)
1969-12-31 18:00:13.538669643,(1 0 -1 -13 -15 -8 -6 -5)
1969-12-31 18:00:13.538669643,(-1 -2 -8 12 17 5 0 1)
1969-12-31 18:00:13.543133929,(-2 -2 -1 -14 -13 -4 -3 -4)
1969-12-31 18:00:13.543133929,(0 1 7 6 -5 -1 1 1)
1969-12-31 18:00:13.559875000,(-7 -10 -16 -25 -6 -10 -7 -7)
1969-12-31 18:00:13.559875000,(-5 -3 -7 0 -10 -2 -1 -1)
1969-12-31 18:00:13.560991071,(4 7 5 11 9 5 0 -1)
1969-12-31 18:00:13.560991071,(3 3 16 9 7 -1 6 10)
1969-12-31 18:00:13.584428571,(0 3 4 0 -8 -5 -8 -10)
1969-12-31 18:00:13.584428571,(1 -1 -3 -2 -3 1 1 1)
1969-12-31 18:00:13.586660714,(-5 -6 -2 2 5 -1 0 -1)
1969-12-31 18:00:13.586660714,(-1 -2 -11 -14 -9 -2 -2 2)
1969-12-31 18:00:13.610098214,(-1 -2 -3 7 4 -3 -5 -5)
1969-12-31 18:00:13.610098214,(1 -2 -2 -8 -1 2 5 8)
1969-12-31 18:00:13.611214286,(1 -2 -3 -2 -4 -5 -7 -8)
1969-12-31 18:00:13.611214286,(-3 -2 -2 -1 3 -1 -1 -3)
1969-12-31 18:00:13.694919643,(0 -2 5 1 1 -1 2 3)
1969-12-31 18:00:13.694919643,(1 -3 -2 -4 -5 0 1 0)
1969-12-31 18:00:13.696035714,(0 1 1 4 7 1 1 0)
1969-12-31 18:00:13.696035714,(-3 -6 -4 -8 -8 -2 -2 -2)
1969-12-31 18:00:13.697151786,(4 9 12 9 18 3 0 1)
1969-12-31 18:00:13.697151786,(-8 -6 -5 -5 -9 -2 -7 -6)
1969-12-31 18:00:13.702732143,(1 -2 3 1 -4 2 4 6)
1969-12-31 18:00:13.702732143,(-3 -2 -5 -8 -6 -1 1 -1)
1969-12-31 18:00:13.703848214,(2 -1 -7 -5 -6 -4 -2 -2)
1969-12-31 18:00:13.703848214,(5 4 2 -1 -2 -3 -3 -8)
1969-12-31 18:00:13.719473214,(-3 0 1 8 5 2 3 5)
1969-12-31 18:00:13.719473214,(-5 -2 3 0 0 0 -1 -3)
1969-12-31 18:00:13.720589286,(2 1 -2 -5 0 0 3 3)
1969-12-31 18:00:13.720589286,(-4 5 8 6 1 0 -1 0)
1969-12-31 18:00:13.733982143,(-1 -3 -6 -4 -2 1 2 1)
1969-12-31 18:00:13.733982143,(7 -18 -19 -7 0 -3 -1 4)
1969-12-31 18:00:13.750723214,(-4 7 1 -6 -6 -3 -4 -5)
1969-12-31 18:00:13.750723214,(-3 4 7 5 3 2 1 -2)
1969-12-31 18:00:13.760767857,(-1 0 -1 3 -1 -1 -2 0)
1969-12-31 18:00:13.760767857,(-2 2 3 -1 1 -2 -1 -3)
1969-12-31 18:00:13.763000000,(7 -19 -17 -3 0 0 -4 -2)
1969-12-31 18:00:13.763000000,(-1 -4 -10 -5 -4 -4 -2 -5)
1969-12-31 18:00:13.785321429,(3 18 21 6 2 -1 7 14)
1969-12-31 18:00:13.785321429,(-4 -6 -5 0 -2 -1 -8 -17)
1969-12-31 18:00:13.786437500,(-2 14 7 1 1 0 -4 -6)
1969-12-31 18:00:13.786437500,(-9 -28 -10 -5 -4 3 7 -1)
1969-12-31 18:00:13.828848214,(5 -7 -3 -1 -2 -2 -4 10)
1969-12-31 18:00:13.828848214,(20 12 6 -1 0 0 0 9)
1969-12-31 18:00:13.829964286,(-10 2 2 0 0 1 4 3)
1969-12-31 18:00:13.829964286,(-22 -7 -1 0 -3 -6 -13 -22)
1969-12-31 18:00:13.831080357,(-6 -6 -8 -1 0 -1 1 4)
1969-12-31 18:00:13.831080357,(3 10 8 5 3 2 -7 -39)
1969-12-31 18:00:13.835544643,(7 11 4 -1 -3 -1 4 0)
1969-12-31 18:00:13.835544643,(42 22 4 5 3 3 8 16)
1969-12-31 18:00:13.852285714,(-32 -31 -11 -8 -8 -10 -7 25)
1969-12-31 18:00:13.852285714,(-41 -10 -2 0 -1 0 -14 -33)
1969-12-31 18:00:13.854517857,(44 16 6 4 15 56 26 65)
1969-12-31 18:00:13.854517857,(-1 3 -3 -10 -22 -63 -8 -50)
1969-12-31 18:00:13.867910714,(-41 -9 -5 0 -2 -6 -5 -28)
1969-12-31 18:00:13.867910714,(29 -12 -10 -13 -16 -38 20 47)
1969-12-31 18:00:13.877955357,(-19 -1 2 3 2 39 6 -20)
1969-12-31 18:00:13.877955357,(-2 -1 -1 3 10 39 -9 17)
1969-12-31 18:00:13.894696429,(2 -19 -10 -7 -6 -30 -9 -3)
1969-12-31 18:00:13.894696429,(-77 -9 -2 1 5 22 7 -2)
1969-12-31 18:00:13.895812500,(77 23 1 -2 -12 -49 -2 59)
1969-12-31 18:00:13.895812500,(-24 -2 1 -2 0 15 0 -32)
1969-12-31 18:00:13.919250000,(15 11 3 3 0 -4 7 -3)
1969-12-31 18:00:13.919250000,(22 -4 -7 -14 0 16 -13 4)
1969-12-31 18:00:13.921482143,(10 -1 5 10 8 0 27 44)
1969-12-31 18:00:13.921482143,(36 16 4 -4 -19 -23 9 58)
1969-12-31 18:00:13.934875000,(-65 10 1 15 28 45 -24 -80)
1969-12-31 18:00:13.934875000,(-54 -57 -10 -11 -25 -63 -65 -61)
1969-12-31 18:00:13.944919643,(1 2 -5 5 9 14 38 27)
1969-12-31 18:00:13.944919643,(-6 -45 -18 -10 -7 -7 -8 -12)
1969-12-31 18:00:13.987330357,(7 10 4 -4 -4 15 7 19)
1969-12-31 18:00:13.987330357,(26 39 10 7 8 22 43 60)
1969-12-31 18:00:13.989562500,(-113 -31 -8 -5 -8 -37 -64 -121)
1969-12-31 18:00:13.989562500,(13 -1 1 1 4 6 9 22)
1969-12-31 18:00:13.990678571,(13 -13 -10 -9 -8 -7 4 5)
1969-12-31 18:00:13.990678571,(-19 -2 2 4 7 12 5 6)
1969-12-31 18:00:13.995142857,(8 1 -4 -15 -23 -40 -14 -15)
1969-12-31 18:00:13.995142857,(-18 2 -3 -16 12 80 47 -10)
1969-12-31 18:00:14.001839286,(95 44 23 37 26 3 -2 56)
1969-12-31 18:00:14.001839286,(38 8 3 6 3 19 22 42)
1969-12-31 18:00:14.011883929,(-47 -13 -4 -5 -12 -55 2 -35)
1969-12-31 18:00:14.011883929,(14 26 6 4 -9 -27 -52 -9)
1969-12-31 18:00:14.028625000,(-54 -42 -13 -21 -11 11 11 -68)
1969-12-31 18:00:14.028625000,(7 11 5 19 24 40 -6 -6)
1969-12-31 18:00:14.029741071,(60 19 -2 -8 -6 21 2 31)
1969-12-31 18:00:14.029741071,(-14 -33 2 7 6 -13 12 11)
1969-12-31 18:00:14.054294643,(1 39 9 -1 -10 -42 -3 -19)
1969-12-31 18:00:14.054294643,(2 2 -5 -6 -8 -6 -6 -39)
1969-12-31 18:00:14.055410714,(16 -1 5 2 10 34 -12 -2)
1969-12-31 18:00:14.055410714,(-5 1 -5 0 -2 -31 -10 -17)
1969-12-31 18:00:14.068803571,(-8 -10 2 1 6 23 11 31)
1969-12-31 18:00:14.068803571,(-11 1 3 -7 -7 18 19 35)
1969-12-31 18:00:14.086660714,(-26 2 4 0 -6 -68 -14 -44)
1969-12-31 18:00:14.086660714,(21 10 -4 2 1 12 8 19)
1969-12-31 18:00:14.094473214,(46 16 6 1 -4 5 24 68)
1969-12-31 18:00:14.095589286,(13 -21 -10 -10 -5 -5 6 11)
1969-12-31 18:00:14.096705357,(-6 6 1 2 -12 -94 0 15)
1969-12-31 18:00:14.096705357,(-31 4 12 26 41 75 -28 -8)
1969-12-31 18:00:14.138000000,(-13 -9 1 5 2 -13 -25 -59)
1969-12-31 18:00:14.138000000,(-5 -11 -21 -24 -26 -26 -8 -81)
1969-12-31 18:00:14.140232143,(-5 -14 3 6 11 14 -5 16)
1969-12-31 18:00:14.140232143,(28 18 -2 -9 -13 -32 -33 -44)
1969-12-31 18:00:14.141348214,(-4 7 -5 -12 -18 -31 6 5)
1969-12-31 18:00:14.141348214,(-3 15 19 22 17 -33 9 51)
1969-12-31 18:00:14.145812500,(19 -31 -21 -15 -8 32 -8 -31)
1969-12-31 18:00:14.145812500,(-10 4 2 2 -2 6 26 62)
1969-12-31 18:00:14.162553571,(-36 -29 -12 -11 -9 -15 46 6)
1969-12-31 18:00:14.162553571,(33 35 12 7 5 8 -89 -7)
1969-12-31 18:00:14.163669643,(-14 -2 2 4 10 38 39 14)
1969-12-31 18:00:14.163669643,(-26 -17 -3 -1 -1 -26 -13 -36)
1969-12-31 18:00:14.187107143,(-13 -2 -3 -4 -4 21 -3 -41)
1969-12-31 18:00:14.187107143,(1 8 4 1 -1 -6 21 15)
1969-12-31 18:00:14.189339286,(14 10 -2 0 4 36 -6 16)
1969-12-31 18:00:14.189339286,(11 -33 -12 -9 -2 16 -6 4)
1969-12-31 18:00:14.202732143,(44 6 -2 -2 -7 -44 7 51)
1969-12-31 18:00:14.202732143,(-22 -24 -3 7 16 36 38 60)
1969-12-31 18:00:14.212776786,(-1 12 9 5 1 -16 -30 -92)
1969-12-31 18:00:14.212776786,(13 22 1 -3 -4 -4 15 -3)
1969-12-31 18:00:14.229517857,(18 -6 -7 -6 -10 -40 -28 4)
1969-12-31 18:00:14.229517857,(47 32 9 6 10 59 5 17)
1969-12-31 18:00:14.230633929,(-40 -46 -13 -7 -4 -7 -35 -19)
1969-12-31 18:00:14.230633929,(21 4 4 3 -2 -19 -3 43)
1969-12-31 18:00:14.254071429,(-25 -6 -1 -5 -4 9 -28 -73)
1969-12-31 18:00:14.254071429,(-12 16 7 4 -1 -34 7 -29)
1969-12-31 18:00:14.256303571,(-10 -14 -7 -3 5 24 -4 -3)
1969-12-31 18:00:14.256303571,(-26 2 -1 -6 -11 -13 -14 -27)
1969-12-31 18:00:14.297598214,(-7 -13 2 5 22 34 11 2)
1969-12-31 18:00:14.297598214,(-57 -23 -17 -17 -33 -62 -13 -112)
1969-12-31 18:00:14.299830357,(-12 15 3 0 -5 -1 -3 -10)
1969-12-31 18:00:14.299830357,(-1 -17 1 3 4 16 38 61)
1969-12-31 18:00:14.299830357,(32 37 14 9 6 9 16 26)
1969-12-31 18:00:14.299830357,(35 -3 -4 2 6 18 20 -1)
1969-12-31 18:00:14.304294643,(-39 -64 -23 -14 -13 -14 -21 3)
1969-12-31 18:00:14.304294643,(-7 22 11 4 9 7 1 -32)
1969-12-31 18:00:14.321035714,(5 -21 -11 -5 3 22 -20 -28)
1969-12-31 18:00:14.321035714,(11 13 -1 -7 -24 -52 -14 0)
1969-12-31 18:00:14.323267857,(51 37 11 5 1 33 40 66)
1969-12-31 18:00:14.323267857,(-41 -19 -8 -1 1 -44 -12 -9)
1969-12-31 18:00:14.336660714,(-39 -16 -3 1 18 102 4 -20)
1969-12-31 18:00:14.336660714,(11 -1 5 7 7 -45 -19 20)
1969-12-31 18:00:14.346705357,(75 54 15 6 0 1 24 53)
1969-12-31 18:00:14.346705357,(-12 -37 -8 2 44 29 9 10)
1969-12-31 18:00:14.363446429,(11 16 10 18 19 11 8 10)
1969-12-31 18:00:14.363446429,(-3 -7 -5 -7 -38 -25 -7 10)
1969-12-31 18:00:14.364562500,(-4 7 0 -8 5 34 21 10)
1969-12-31 18:00:14.364562500,(36 25 5 7 45 93 -5 0)
1969-12-31 18:00:14.388000000,(-3 1 0 -15 -107 -111 -18 2)
1969-12-31 18:00:14.388000000,(-27 -25 -16 -24 -20 29 -13 8)
1969-12-31 18:00:14.390232143,(-9 22 9 13 7 1 -9 -28)
1969-12-31 18:00:14.390232143,(-56 -38 -12 4 68 27 13 -36)
1969-12-31 18:00:14.403625000,(20 1 3 29 75 68 35 51)
1969-12-31 18:00:14.403625000,(-10 -12 -5 -26 -94 -52 5 7)
1969-12-31 18:00:14.413669643,(-27 -15 -23 -48 -73 -67 -66 -74)
1969-12-31 18:00:14.413669643,(8 8 -3 -13 -37 -21 10 -19)
1969-12-31 18:00:14.447151786,(4 -7 -3 2 28 0 -6 16)
1969-12-31 18:00:14.447151786,(46 39 19 37 93 55 37 60)
1969-12-31 18:00:14.449383929,(-51 -45 -11 11 41 26 4 -13)
1969-12-31 18:00:14.449383929,(47 29 9 -3 -69 -59 -13 19)
1969-12-31 18:00:14.454964286,(3 -3 -2 -5 -16 -8 -13 6)
1969-12-31 18:00:14.454964286,(17 22 12 14 39 44 22 10)
1969-12-31 18:00:14.457196429,(-14 -14 -3 9 41 6 15 -12)
1969-12-31 18:00:14.457196429,(18 11 -2 -8 -52 -66 -52 -2)
1969-12-31 18:00:14.470589286,(0 14 -3 -15 3 18 -4 -27)
1969-12-31 18:00:14.470589286,(-7 -3 -2 -3 5 3 -5 -4)
1969-12-31 18:00:14.480633929,(0 -26 -8 2 -11 12 7 18)
1969-12-31 18:00:14.480633929,(17 3 9 8 -11 -3 43 66)
1969-12-31 18:00:14.496258929,(10 10 2 -2 -15 -24 -26 -3)
1969-12-31 18:00:14.496258929,(-12 0 1 -1 19 21 -7 -49)
1969-12-31 18:00:14.504071429,(0 7 -17 8 43 30 23 25)
1969-12-31 18:00:14.504071429,(-3 -31 -2 -7 10 25 6 34)
1969-12-31 18:00:14.521928571,(20 -15 -29 -19 -29 -38 7 37)
1969-12-31 18:00:14.521928571,(-41 13 26 -4 -30 -35 -40 -62)
1969-12-31 18:00:14.524160714,(87 35 -27 -9 19 21 59 92)
1969-12-31 18:00:14.524160714,(-44 53 88 30 -36 -33 -61 -118)
1969-12-31 18:00:14.546482143,(6 -37 -35 -5 24 10 -1 13)
1969-12-31 18:00:14.546482143,(38 -47 -104 -24 12 28 41 53)
1969-12-31 18:00:14.547598214,(10 86 104 48 12 10 -3 0)
1969-12-31 18:00:14.547598214,(6 -36 -43 9 35 37 51 10)
1969-12-31 18:00:14.562107143,(-69 -1 -9 -21 -33 -67 -70 -96)
1969-12-31 18:00:14.562107143,(46 69 56 27 -4 17 70 95)
1969-12-31 18:00:14.571035714,(-16 -100 -101 -56 -37 -26 -96 -91)
1969-12-31 18:00:14.571035714,(-16 14 20 2 42 23 52 38)
1969-12-31 18:00:14.606750000,(63 30 13 21 -27 -3 13 42)
1969-12-31 18:00:14.606750000,(-27 -79 -55 -17 -13 -24 -57 -77)
1969-12-31 18:00:14.607866071,(-36 15 52 14 46 18 22 -12)
1969-12-31 18:00:14.607866071,(61 -53 -57 -26 -71 -31 25 59)
1969-12-31 18:00:14.615678571,(1 13 -57 -45 -34 -25 -35 -62)
1969-12-31 18:00:14.615678571,(-3 88 106 48 63 42 34 88)
1969-12-31 18:00:14.615678571,(-19 89 83 26 5 -8 -47 -101)
1969-12-31 18:00:14.615678571,(-32 15 -18 -17 -22 -18 -30 -60)
1969-12-31 18:00:14.629071429,(-10 -9 52 24 24 16 36 34)
1969-12-31 18:00:14.629071429,(-17 -128 -116 -36 -1 -3 11 -2)
1969-12-31 18:00:14.638000000,(-40 -58 -31 -11 18 18 17 15)
1969-12-31 18:00:14.638000000,(36 104 66 29 -29 -30 -26 -24)
1969-12-31 18:00:14.654741071,(-31 76 68 20 6 7 -25 -90)
1969-12-31 18:00:14.654741071,(36 -24 -25 -9 4 6 -18 8)
1969-12-31 18:00:14.655857143,(3 -113 -83 -12 26 8 3 51)
1969-12-31 18:00:14.655857143,(-56 25 9 1 17 -31 -28 -45)
1969-12-31 18:00:14.680410714,(-53 43 46 -4 -84 -36 -14 31)
1969-12-31 18:00:14.680410714,(16 5 14 1 -18 -24 -41 -9)
1969-12-31 18:00:14.681526786,(-32 -68 -63 -27 -44 -23 -5 -7)
1969-12-31 18:00:14.681526786,(35 -124 -87 -9 55 50 40 52)
1969-12-31 18:00:14.697151786,(20 -28 -44 -5 77 52 33 -6)
1969-12-31 18:00:14.697151786,(8 79 45 -8 -60 -31 20 37)
1969-12-31 18:00:14.698267857,(-50 86 86 12 -29 -24 -40 -31)
1969-12-31 18:00:14.698267857,(-10 57 6 -1 3 -15 -3 2)
1969-12-31 18:00:14.722821429,(-17 -40 21 26 30 35 29 35)
1969-12-31 18:00:14.722821429,(68 -22 -55 -18 -30 -27 -27 -3)
1969-12-31 18:00:14.722821429,(-30 36 25 -5 -18 4 53 60)
1969-12-31 18:00:14.722821429,(-18 5 13 4 -1 -7 -30 -34)
1969-12-31 18:00:14.757419643,(-28 -125 -103 -40 -1 7 13 2)
1969-12-31 18:00:14.758535714,(14 44 -12 6 68 36 9 22)
1969-12-31 18:00:14.758535714,(32 66 30 14 -74 -35 2 39)
1969-12-31 18:00:14.758535714,(-50 -93 -56 -28 -25 -10 -33 -76)
1969-12-31 18:00:14.764116071,(56 -37 -48 -9 4 1 9 2)
1969-12-31 18:00:14.764116071,(-63 -128 -40 -12 7 30 -8 -44)
1969-12-31 18:00:14.765232143,(53 11 -55 11 98 24 37 35)
1969-12-31 18:00:14.765232143,(-21 101 105 23 -60 -33 10 31)
1969-12-31 18:00:14.789785714,(0 -69 -52 -35 -65 -37 -21 -34)
1969-12-31 18:00:14.789785714,(-46 114 113 34 23 14 -1 -12)
1969-12-31 18:00:14.790901786,(63 -36 -47 -25 -33 -24 -18 -3)
1969-12-31 18:00:14.790901786,(16 -75 -49 5 77 66 36 33)
1969-12-31 18:00:14.814339286,(-31 32 13 -27 -34 -10 -25 -35)
1969-12-31 18:00:14.814339286,(55 64 27 11 -14 -20 -28 10)
1969-12-31 18:00:14.815455357,(-54 -17 21 10 13 33 32 -8)
1969-12-31 18:00:14.815455357,(92 -40 -96 -22 25 -6 25 58)
1969-12-31 18:00:14.831080357,(-44 96 102 86 -9 -18 -57 -31)
1969-12-31 18:00:14.831080357,(-56 -85 -64 -13 -5 0 -7 -74)
1969-12-31 18:00:14.832196429,(26 -72 -67 -21 -30 -17 -22 -13)
1969-12-31 18:00:14.832196429,(-24 35 4 -15 2 15 5 -4)
1969-12-31 18:00:14.855633929,(46 -108 -93 -19 44 32 32 88)
1969-12-31 18:00:14.855633929,(21 116 86 40 71 39 31 32)
1969-12-31 18:00:14.856750000,(9 27 56 45 -48 -35 -8 11)
1969-12-31 18:00:14.857866071,(-49 -114 -111 -52 -43 -9 -8 -28)
1969-12-31 18:00:14.881303571,(6 117 77 14 21 1 36 31)
1969-12-31 18:00:14.881303571,(8 34 -6 -11 -36 -36 -16 -28)
1969-12-31 18:00:14.882419643,(2 -93 -52 -11 53 48 -10 29)
1969-12-31 18:00:14.882419643,(-12 -24 24 9 -20 -14 -8 -16)
1969-12-31 18:00:14.917017857,(-3 87 87 42 2 -24 -36 -44)
1969-12-31 18:00:14.917017857,(-5 -101 -71 -32 -24 -1 36 13)
1969-12-31 18:00:14.918133929,(8 -13 -3 -2 2 1 -7 -7)
1969-12-31 18:00:14.918133929,(20 -19 -28 8 36 19 9 4)
1969-12-31 18:00:14.924830357,(11 -102 -80 -20 -1 5 36 52)
1969-12-31 18:00:14.924830357,(-38 74 64 -3 -38 -44 -63 -52)
1969-12-31 18:00:14.925946429,(-30 -72 -33 -11 36 36 14 -25)
1969-12-31 18:00:14.925946429,(19 13 -33 -13 -3 -16 -11 7)
1969-12-31 18:00:14.948267857,(27 92 76 21 -22 -9 16 25)
1969-12-31 18:00:14.948267857,(49 -83 -58 -6 9 6 35 36)
1969-12-31 18:00:14.949383929,(-53 77 116 43 -5 -20 -67 -94)
1969-12-31 18:00:14.949383929,(21 -104 -43 -20 16 35 31 48)
1969-12-31 18:00:14.966125000,(-9 -78 -95 -45 -6 -23 -42 -41)
1969-12-31 18:00:14.966125000,(-25 58 13 29 -12 -8 -5 -28)
1969-12-31 18:00:14.973937500,(32 16 3 8 16 14 39 36)
1969-12-31 18:00:14.973937500,(45 -18 31 25 50 39 1 32)
1969-12-31 18:00:14.990678571,(3 45 44 9 -23 3 44 67)
1969-12-31 18:00:14.990678571,(-55 -20 -6 -8 -4 -9 -28 -52)
1969-12-31 18:00:14.990678571,(-40 -81 -124 -49 -26 -43 -46 -64)
1969-12-31 18:00:14.990678571,(-12 127 127 32 -38 -21 -20 -28)
1969-12-31 18:00:15.015232142,(47 -88 -82 -15 75 64 3 21)
1969-12-31 18:00:15.015232142,(-20 -86 -36 7 69 25 10 3)
1969-12-31 18:00:15.016348213,(28 127 82 3 -98 -57 45 57)
1969-12-31 18:00:15.016348213,(-8 -66 -40 7 36 13 -7 -9)
1969-12-31 18:00:15.031973213,(-4 9 19 -4 13 36 43 3)
1969-12-31 18:00:15.031973213,(-22 -117 -46 -38 -16 -26 -50 -27)
1969-12-31 18:00:15.033089286,(12 95 58 20 35 36 27 14)
1969-12-31 18:00:15.033089286,(5 -39 -54 -15 -53 -38 30 -15)
1969-12-31 18:00:15.067687500,(16 -12 16 42 61 25 -42 -6)
1969-12-31 18:00:15.067687500,(-52 74 67 -6 -35 -24 3 -22)
1969-12-31 18:00:15.068803571,(58 -9 -19 -3 11 8 14 61)
1969-12-31 18:00:15.068803571,(-9 70 40 8 -29 -5 20 -32)
1969-12-31 18:00:15.082196429,(-30 -14 -6 -3 34 8 -32 -43)
1969-12-31 18:00:15.082196429,(38 -52 -47 -21 -76 -36 12 18)
1969-12-31 18:00:15.083312500,(-19 -23 -30 -26 21 11 -59 -26)
1969-12-31 18:00:15.083312500,(-31 -45 -9 11 29 3 -2 -22)
1969-12-31 18:00:15.098937500,(33 19 -30 -7 21 15 27 40)
1969-12-31 18:00:15.098937500,(-16 70 69 31 39 17 -2 -9)
1969-12-31 18:00:15.100053571,(-24 7 38 22 -4 -22 7 -34)
1969-12-31 18:00:15.100053571,(20 52 10 -19 -80 -36 -45 18)
1969-12-31 18:00:15.123491071,(-15 -87 -45 -35 -49 -45 42 28)
1969-12-31 18:00:15.123491071,(-16 -1 -28 -19 -47 -39 -21 11)
1969-12-31 18:00:15.124607143,(-16 -54 -31 6 59 43 -1 -46)
1969-12-31 18:00:15.124607143,(14 -35 7 25 40 -12 -31 24)
1969-12-31 18:00:15.149160714,(-2 51 -12 -28 -61 -12 10 3)
1969-12-31 18:00:15.149160714,(37 -68 -48 -8 12 41 26 59)
1969-12-31 18:00:15.150276786,(-41 -5 2 8 -16 -23 42 -9)
1969-12-31 18:00:15.150276786,(-68 81 76 15 6 8 11 -60)
1969-12-31 18:00:15.165901786,(-12 -69 -42 -13 21 5 -83 -46)
1969-12-31 18:00:15.165901786,(8 -67 -69 -18 -4 -19 5 -29)
1969-12-31 18:00:15.167017857,(11 63 33 -5 -26 -24 -40 32)
1969-12-31 18:00:15.167017857,(9 8 4 19 7 23 23 0)
1969-12-31 18:00:15.191571429,(7 -18 21 21 94 76 -12 -6)
1969-12-31 18:00:15.191571429,(-10 16 40 37 4 -11 32 2)
1969-12-31 18:00:15.192687500,(17 27 36 -18 -47 -9 2 36)
1969-12-31 18:00:15.192687500,(-21 -46 -38 -15 52 30 -42 -16)
1969-12-31 18:00:15.226169643,(2 125 110 28 -87 -85 -17 -32)
1969-12-31 18:00:15.226169643,(13 -74 -61 -26 49 96 34 47)
1969-12-31 18:00:15.233982143,(23 -40 -49 -11 8 -7 85 39)
1969-12-31 18:00:15.233982143,(-3 -17 -7 0 -24 -29 -57 0)
1969-12-31 18:00:15.236214286,(-4 -39 -26 -13 7 3 26 3)
1969-12-31 18:00:15.236214286,(3 55 33 4 15 14 -55 -63)
1969-12-31 18:00:15.237330357,(3 5 -13 2 24 15 28 -9)
1969-12-31 18:00:15.237330357,(-28 -71 -44 -34 -92 -60 -2 5)
1969-12-31 18:00:15.257419643,(1 35 28 18 15 8 0 -17)
1969-12-31 18:00:15.257419643,(18 52 22 19 11 -7 12 19)
1969-12-31 18:00:15.258535714,(-27 -39 -45 -27 6 27 -30 -47)
1969-12-31 18:00:15.258535714,(34 98 68 29 51 18 32 42)
1969-12-31 18:00:15.283089286,(-9 -34 -34 -7 -33 -22 11 26)
1969-12-31 18:00:15.283089286,(16 48 36 3 -11 -23 -68 -41)
1969-12-31 18:00:15.284205357,(9 -60 -42 7 18 25 3 -19)
1969-12-31 18:00:15.284205357,(33 37 -4 -15 11 27 -30 -4)
1969-12-31 18:00:15.298714286,(-38 -8 23 -7 -54 -45 -2 -13)
1969-12-31 18:00:15.298714286,(-11 -53 -49 -1 48 15 5 -14)
1969-12-31 18:00:15.308758929,(0 -11 7 -24 -97 -92 -34 -8)
1969-12-31 18:00:15.308758929,(-35 2 -1 -20 6 23 11 -39)
1969-12-31 18:00:15.325500000,(41 10 -23 -14 -51 -1 23 38)
1969-12-31 18:00:15.325500000,(-17 -102 -45 -10 37 3 24 43)
1969-12-31 18:00:15.325500000,(37 26 33 25 37 29 -14 34)
1969-12-31 18:00:15.325500000,(32 101 60 40 46 26 53 20)
1969-12-31 18:00:15.377955357,(-51 22 28 1 -26 -34 -17 -82)
1969-12-31 18:00:15.377955357,(-5 -55 -31 -22 -70 -38 -55 -46)
1969-12-31 18:00:15.377955357,(-41 75 33 1 -12 -5 3 13)
1969-12-31 18:00:15.377955357,(28 -75 -51 -20 5 4 29 70)
1969-12-31 18:00:15.380187500,(-34 15 11 24 67 41 -22 -85)
1969-12-31 18:00:15.380187500,(-44 -30 -11 -7 -15 5 93 14)
1969-12-31 18:00:15.383535714,(13 -37 -41 -16 1 1 -88 -16)
1969-12-31 18:00:15.383535714,(-27 -33 -10 -14 -48 -64 -73 -68)
1969-12-31 18:00:15.392464286,(-11 -28 -16 -18 -11 -12 -8 9)
1969-12-31 18:00:15.392464286,(26 -4 -32 -13 41 42 26 44)
1969-12-31 18:00:15.392464286,(-10 3 20 40 26 22 58 -10)
1969-12-31 18:00:15.392464286,(-24 -22 -34 -24 -36 -8 1 -17)
1969-12-31 18:00:15.417017857,(4 45 28 -16 -59 -62 -56 -13)
1969-12-31 18:00:15.417017857,(41 65 14 7 21 3 -20 -15)
1969-12-31 18:00:15.418133929,(19 -16 6 17 41 21 37 49)
1969-12-31 18:00:15.418133929,(-49 -43 -24 1 33 40 -36 -89)
1969-12-31 18:00:15.432642857,(-32 -28 3 26 48 7 -4 -15)
1969-12-31 18:00:15.432642857,(-1 38 8 -27 -76 -39 -28 15)
1969-12-31 18:00:15.442687500,(14 54 65 14 -1 -10 -41 -80)
1969-12-31 18:00:15.442687500,(4 -26 -41 -12 -20 -26 34 46)
1969-12-31 18:00:15.459428571,(32 -37 -20 -9 -12 22 48 76)
1969-12-31 18:00:15.459428571,(-28 51 35 0 -20 -31 -58 -36)
1969-12-31 18:00:15.459428571,(-4 -70 -52 -19 -4 -1 -20 9)
1969-12-31 18:00:15.459428571,(34 -21 -10 12 27 13 16 58)
1969-12-31 18:00:15.483982143,(-12 -25 -50 -13 37 46 56 54)
1969-12-31 18:00:15.483982143,(-14 82 96 17 -51 -44 -65 -40)
1969-12-31 18:00:15.485098214,(-16 -40 -35 -24 -29 -35 14 13)
1969-12-31 18:00:15.485098214,(38 30 32 22 39 36 6 11)
1969-12-31 18:00:15.499607143,(56 43 -3 18 18 -10 18 26)
1969-12-31 18:00:15.499607143,(47 6 9 13 30 42 63 72)
1969-12-31 18:00:15.545366071,(-24 -28 3 -4 -17 -15 -65 -26)
1969-12-31 18:00:15.545366071,(-26 42 46 16 -1 4 46 41)
1969-12-31 18:00:15.546482143,(-8 -22 -32 -38 -66 -23 -27 -57)
1969-12-31 18:00:15.546482143,(-66 -35 -4 8 40 9 19 -30)
1969-12-31 18:00:15.547598214,(73 -3 -32 16 48 68 17 53)
1969-12-31 18:00:15.547598214,(-45 -70 -57 -42 -40 -53 -4 -40)
1969-12-31 18:00:15.552062500,(18 65 71 22 3 -2 -7 4)
1969-12-31 18:00:15.552062500,(5 8 5 21 44 29 1 -9)
1969-12-31 18:00:15.553178571,(-29 -72 -46 -29 -27 -6 54 23)
1969-12-31 18:00:15.553178571,(18 56 32 2 -2 17 24 5)
1969-12-31 18:00:15.576616070,(-15 60 70 41 48 19 -37 -34)
1969-12-31 18:00:15.576616070,(15 -29 -23 2 -33 -27 -7 4)
1969-12-31 18:00:15.577732143,(3 28 4 5 45 39 30 13)
1969-12-31 18:00:15.577732143,(11 -76 -16 -20 -71 -33 -45 -9)
1969-12-31 18:00:15.592241071,(-7 13 -30 -11 16 11 60 45)
1969-12-31 18:00:15.592241071,(-5 -47 -6 14 47 36 -7 -7)
1969-12-31 18:00:15.593357143,(-14 83 46 1 -55 -76 -71 -58)
1969-12-31 18:00:15.593357143,(73 75 49 12 -2 -1 -9 25)
1969-12-31 18:00:15.617910714,(-40 -70 -48 -24 -6 -15 -5 -22)
1969-12-31 18:00:15.617910714,(9 -34 -19 4 22 41 31 59)
1969-12-31 18:00:15.619026786,(-14 -82 -70 -33 -15 18 12 -2)
1969-12-31 18:00:15.619026786,(-10 86 53 22 12 -27 8 -20)
1969-12-31 18:00:15.643580357,(20 -32 -11 6 -6 -20 -64 -9)
1969-12-31 18:00:15.643580357,(-23 10 -25 -26 -26 1 27 6)
1969-12-31 18:00:15.644696429,(-12 -82 -35 -9 13 -11 -3 8)
1969-12-31 18:00:15.644696429,(-4 58 25 13 -39 -31 -34 -28)
1969-12-31 18:00:15.687107143,(-3 -46 3 4 6 32 53 42)
1969-12-31 18:00:15.687107143,(11 98 58 10 1 -10 42 10)
1969-12-31 18:00:15.688223214,(25 93 56 8 -17 -9 -53 5)
1969-12-31 18:00:15.688223214,(-23 -119 -89 -44 49 48 -6 -18)
1969-12-31 18:00:15.689339286,(-5 -2 10 27 -26 -56 -30 -48)
1969-12-31 18:00:15.689339286,(-12 -42 -41 -20 -75 -23 22 6)
1969-12-31 18:00:15.692687500,(0 25 44 18 52 9 1 20)
1969-12-31 18:00:15.692687500,(-11 18 4 14 39 29 19 9)
1969-12-31 18:00:15.710544643,(2 -31 -26 -24 -5 13 -7 10)
1969-12-31 18:00:15.710544643,(5 -31 -19 3 15 -5 4 45)
1969-12-31 18:00:15.711660714,(10 56 17 3 -14 6 5 -26)
1969-12-31 18:00:15.711660714,(-10 -35 -33 -9 -15 -11 -2 -1)
1969-12-31 18:00:15.736214286,(22 41 39 2 10 13 35 50)
1969-12-31 18:00:15.736214286,(-29 14 18 8 0 -22 -91 -78)
1969-12-31 18:00:15.736214286,(-1 7 17 9 5 12 34 1)
1969-12-31 18:00:15.736214286,(-28 -80 -61 -36 -10 -7 -38 -42)
1969-12-31 18:00:15.751839286,(8 9 -35 -9 -13 -7 -7 -1)
1969-12-31 18:00:15.751839286,(10 25 48 23 35 34 74 63)
1969-12-31 18:00:15.752955357,(45 37 30 38 52 36 2 26)
1969-12-31 18:00:15.752955357,(3 25 39 5 -62 -57 -11 -19)
1969-12-31 18:00:15.777508929,(-17 -26 -36 -43 -22 -6 -7 -10)
1969-12-31 18:00:15.777508929,(-4 -29 -28 -15 -9 -19 -26 -19)
1969-12-31 18:00:15.778625000,(-44 -50 -64 -18 7 13 19 -17)
1969-12-31 18:00:15.778625000,(-15 -45 3 19 37 45 39 46)
1969-12-31 18:00:15.794250000,(22 71 48 19 17 12 -11 5)
1969-12-31 18:00:15.794250000,(19 27 9 3 3 -14 -17 -14)
1969-12-31 18:00:15.794250000,(27 -10 -33 -25 -22 11 42 25)
1969-12-31 18:00:15.794250000,(18 -13 -20 20 6 -17 -20 -5)
1969-12-31 18:00:15.844473214,(10 19 64 21 7 2 1 12)
1969-12-31 18:00:15.844473214,(13 6 -6 -8 -1 -5 -6 -20)
1969-12-31 18:00:15.845589286,(-19 -4 -6 3 -5 9 7 7)
1969-12-31 18:00:15.845589286,(-15 -13 -12 -25 -3 -14 -50 -29)
1969-12-31 18:00:15.854517857,(9 -33 -58 -18 -12 0 3 40)
1969-12-31 18:00:15.854517857,(-1 9 53 16 10 12 28 41)
1969-12-31 18:00:15.855633929,(-10 11 -3 -6 -17 -27 -17 -35)
1969-12-31 18:00:15.855633929,(4 6 6 19 40 42 68 50)
1969-12-31 18:00:15.860098214,(14 13 3 4 -9 -9 -15 -16)
1969-12-31 18:00:15.860098214,(-28 -84 -50 -33 -50 -29 -9 5)
1969-12-31 18:00:15.861214286,(-28 45 11 -21 -42 -32 -15 -27)
1969-12-31 18:00:15.861214286,(31 40 38 21 33 17 -9 -16)
1969-12-31 18:00:15.886883929,(-25 -50 -44 -12 20 11 11 -7)
1969-12-31 18:00:15.886883929,(25 0 -8 4 12 10 0 0)
1969-12-31 18:00:15.888000000,(27 15 15 11 1 -5 17 30)
1969-12-31 18:00:15.888000000,(-36 29 37 12 -7 0 -31 -32)
1969-12-31 18:00:15.920366071,(-1 16 19 10 15 0 -22 -19)
1969-12-31 18:00:15.920366071,(-29 -24 -27 -11 7 23 -7 -10)
1969-12-31 18:00:15.921482143,(36 -12 -16 -8 -28 -36 16 49)
1969-12-31 18:00:15.921482143,(-6 -3 2 -6 -7 -4 16 40)
1969-12-31 18:00:15.927062500,(6 -38 -44 -15 -18 -13 -23 -64)
1969-12-31 18:00:15.927062500,(-26 25 56 36 71 69 10 -10)
1969-12-31 18:00:15.928178571,(37 42 38 23 -10 -17 31 25)
1969-12-31 18:00:15.928178571,(-12 -28 -52 -47 -60 -33 -2 5)
1969-12-31 18:00:15.953848214,(-3 4 20 16 31 25 12 2)
1969-12-31 18:00:15.953848214,(36 26 0 7 1 -3 12 0)
1969-12-31 18:00:15.954964286,(-39 -17 12 -16 -8 0 -26 -32)
1969-12-31 18:00:15.954964286,(22 16 4 2 -15 -11 -11 -13)
1969-12-31 18:00:15.997375000,(3 -15 -13 16 56 27 31 69)
1969-12-31 18:00:15.997375000,(-11 1 -13 -4 -1 -7 -16 -44)
1969-12-31 18:00:15.998491071,(-14 0 3 2 -6 -2 2 10)
1969-12-31 18:00:15.998491071,(22 -3 -8 -23 -23 -26 -34 -15)
1969-12-31 18:00:16.000723214,(-26 -14 -3 -13 -16 -1 15 0)
1969-12-31 18:00:16.000723214,(12 11 2 0 -12 -15 -4 11)
1969-12-31 18:00:16.002955357,(7 -11 -9 -5 0 6 7 9)
1969-12-31 18:00:16.002955357,(4 23 16 12 10 10 3 3)
1969-12-31 18:00:16.020812500,(3 -7 5 2 1 -1 3 -10)
1969-12-31 18:00:16.020812500,(6 12 3 -6 -13 -13 -7 8)
1969-12-31 18:00:16.020812500,(-23 -35 -22 -17 -14 -16 -29 -51)
1969-12-31 18:00:16.020812500,(8 10 2 10 16 12 7 8)
1969-12-31 18:00:16.045366071,(-20 -4 14 5 -1 4 4 2)
1969-12-31 18:00:16.045366071,(15 26 -10 -6 -12 -15 -4 -16)
1969-12-31 18:00:16.046482142,(25 2 3 7 8 7 -11 -4)
1969-12-31 18:00:16.046482142,(-29 -22 11 14 9 10 28 24)
1969-12-31 18:00:16.062107143,(17 26 2 -10 -11 -14 -22 1)
1969-12-31 18:00:16.062107143,(-21 -26 -16 -17 -18 -16 -18 -35)
1969-12-31 18:00:16.062107143,(-23 -14 -5 6 11 9 5 -4)
1969-12-31 18:00:16.062107143,(23 14 1 -1 3 5 8 10)
1969-12-31 18:00:16.087776786,(17 9 -5 -10 -9 8 11 9)
1969-12-31 18:00:16.087776786,(21 20 6 1 -4 -39 -24 -7)
1969-12-31 18:00:16.087776786,(-8 -10 -2 -3 2 40 19 -5)
1969-12-31 18:00:16.087776786,(-24 -2 -6 -6 5 17 34 -4)
1969-12-31 18:00:16.112330357,(-24 -24 -4 12 1 -28 -20 -4)
1969-12-31 18:00:16.112330357,(-17 10 10 10 2 -9 21 8)
1969-12-31 18:00:16.113446429,(-9 -14 -8 -6 -7 -6 -25 -18)
1969-12-31 18:00:16.113446429,(3 2 -10 -36 -38 -67 -28 -9)
1969-12-31 18:00:16.164785714,(3 4 -2 4 41 63 29 -7)
1969-12-31 18:00:16.164785714,(-2 -5 2 25 7 -10 -5 -5)
1969-12-31 18:00:16.164785714,(23 9 7 15 23 22 -23 24)
1969-12-31 18:00:16.164785714,(-47 -11 0 9 9 27 6 -33)
1969-12-31 18:00:16.167017857,(62 40 8 -16 -28 -11 -1 27)
1969-12-31 18:00:16.167017857,(-50 -28 -9 -17 -16 -8 -8 -19)
1969-12-31 18:00:16.170366071,(13 -12 -5 -3 3 -6 13 22)
1969-12-31 18:00:16.170366071,(-24 -7 -6 -6 -11 4 -10 -44)
1969-12-31 18:00:16.179294643,(-25 -2 -1 -4 -9 -23 -15 -28)
1969-12-31 18:00:16.179294643,(20 8 0 -5 1 17 6 6)
1969-12-31 18:00:16.180410714,(32 13 4 1 -6 -20 -6 15)
1969-12-31 18:00:16.180410714,(-7 -5 0 4 10 15 -2 5)
1969-12-31 18:00:16.194919643,(9 6 4 1 -7 -11 -2 -20)
1969-12-31 18:00:16.194919643,(-5 -10 -8 -12 -11 -28 -41 4)
1969-12-31 18:00:16.196035714,(-47 -11 -3 0 6 24 32 -24)
1969-12-31 18:00:16.196035714,(50 8 8 15 14 3 -1 40)
1969-12-31 18:00:16.220589286,(-52 -13 -3 4 2 3 24 14)
1969-12-31 18:00:16.220589286,(-17 -25 -15 -23 -20 16 -16 -30)
1969-12-31 18:00:16.221705357,(17 -1 -6 -7 -15 -84 -36 -2)
1969-12-31 18:00:16.221705357,(-37 2 12 14 11 0 8 12)
1969-12-31 18:00:16.247375000,(19 7 -8 -7 -5 1 3 21)
1969-12-31 18:00:16.247375000,(43 23 6 1 1 11 1 -6)
1969-12-31 18:00:16.247375000,(-75 -47 -15 -7 -8 -1 -5 -19)
1969-12-31 18:00:16.247375000,(12 3 -2 2 10 16 11 13)
1969-12-31 18:00:16.263000000,(13 3 4 1 -5 -19 -21 -16)
1969-12-31 18:00:16.263000000,(-18 -4 -1 -3 -1 0 -3 -9)
1969-12-31 18:00:16.263000000,(14 5 0 -2 -1 5 -6 -12)
1969-12-31 18:00:16.263000000,(14 2 3 5 1 -11 -9 18)
1969-12-31 18:00:16.306526786,(68 26 6 4 2 22 25 40)
1969-12-31 18:00:16.306526786,(-29 -10 -6 -1 -4 -9 -3 -26)
1969-12-31 18:00:16.307642857,(-27 -20 -11 -11 -10 -7 -6 -7)
1969-12-31 18:00:16.307642857,(-1 -2 1 -3 0 0 -12 -14)
1969-12-31 18:00:16.313223214,(4 1 6 7 6 10 25 45)
1969-12-31 18:00:16.313223214,(19 4 3 2 3 7 6 -8)
1969-12-31 18:00:16.314339286,(11 6 1 0 -2 -8 -2 6)
1969-12-31 18:00:16.314339286,(-2 -4 -7 -5 -4 -5 -6 -17)
1969-12-31 18:00:16.338892857,(-3 -19 -9 -6 -3 -3 -20 -40)
1969-12-31 18:00:16.338892857,(-19 -5 -2 -5 -7 -5 -1 -2)
1969-12-31 18:00:16.338892857,(-6 2 6 6 6 8 1 5)
1969-12-31 18:00:16.338892857,(1 1 -1 0 0 1 4 -11)
1969-12-31 18:00:16.355633929,(49 18 7 2 4 4 8 31)
1969-12-31 18:00:16.355633929,(-58 -32 -16 -9 -9 -7 -16 -22)
1969-12-31 18:00:16.355633929,(-23 -9 -4 -5 -5 -3 -11 -39)
1969-12-31 18:00:16.355633929,(14 25 13 9 8 8 5 2)
1969-12-31 18:00:16.380187500,(-68 -39 -15 -11 -14 -19 -27 -53)
1969-12-31 18:00:16.380187500,(39 21 8 5 8 11 18 37)
1969-12-31 18:00:16.381303571,(2 12 7 2 3 5 2 -7)
1969-12-31 18:00:16.381303571,(50 14 -1 1 -2 -1 7 20)
1969-12-31 18:00:16.395812500,(-76 -32 -17 -10 -9 -9 -19 -43)
1969-12-31 18:00:16.395812500,(24 15 11 5 -1 2 5 15)
1969-12-31 18:00:16.404741071,(-7 -13 -5 -3 -5 -8 -10 1)
1969-12-31 18:00:16.404741071,(13 1 -2 -2 -3 -4 0 1)
1969-12-31 18:00:16.421482143,(10 0 6 3 1 1 2 2)
1969-12-31 18:00:16.422598214,(-37 -11 -6 -5 1 2 4 7)
1969-12-31 18:00:16.422598214,(25 7 7 8 5 10 18 35)
1969-12-31 18:00:16.422598214,(-15 -19 -17 -14 -13 -16 -20 -29)
1969-12-31 18:00:16.465008929,(-15 -17 -10 -7 -3 -5 -7 -15)
1969-12-31 18:00:16.465008929,(17 28 19 11 7 6 10 18)
1969-12-31 18:00:16.467241071,(27 19 6 3 2 2 -2 -9)
1969-12-31 18:00:16.467241071,(27 -7 -21 -7 0 2 9 37)
1969-12-31 18:00:16.468357143,(-46 -29 12 -1 -5 -10 -21 -42)
1969-12-31 18:00:16.468357143,(36 6 -2 -1 0 0 3 17)
1969-12-31 18:00:16.471705357,(22 34 14 8 2 3 5 3)
1969-12-31 18:00:16.471705357,(-17 -7 2 2 1 1 -1 4)
1969-12-31 18:00:16.489562500,(0 7 -9 -5 -3 -1 1 4)
1969-12-31 18:00:16.489562500,(9 -4 -13 -6 -1 0 -2 -3)
1969-12-31 18:00:16.489562500,(-14 -26 -10 -7 -6 -5 -6 -8)
1969-12-31 18:00:16.489562500,(0 7 5 2 0 0 2 1)
1969-12-31 18:00:16.514116071,(1 8 0 2 -1 -1 0 1)
1969-12-31 18:00:16.514116071,(-3 -5 2 2 1 1 0 0)
1969-12-31 18:00:16.515232143,(-2 5 -2 -2 0 1 1 2)
1969-12-31 18:00:16.515232143,(-1 2 6 -1 -1 -3 -4 -3)
1969-12-31 18:00:16.515232143,(-4 -8 -10 13 3 2 1 0)
1969-12-31 18:00:16.515232143,(-2 -10 -18 -15 -7 -4 -4 -1)
1969-12-31 18:00:16.517464286,(-3 0 11 -2 -4 -3 -5 -7)
1969-12-31 18:00:16.517464286,(0 -7 -19 0 2 4 4 3)
1969-12-31 18:00:16.531973214,(4 12 25 17 1 -1 -8 -6)
1969-12-31 18:00:16.531973214,(1 10 45 26 5 1 -1 -3)
1969-12-31 18:00:16.534205357,(-4 -10 -44 -26 -4 -3 -3 -1)
1969-12-31 18:00:16.534205357,(-2 -5 7 -3 -10 0 -4 -3)
1969-12-31 18:00:16.557642857,(2 11 19 23 9 4 4 2)
1969-12-31 18:00:16.557642857,(1 -4 -41 -25 -4 2 4 10)
1969-12-31 18:00:16.559875000,(1 5 39 6 -4 -3 -7 -6)
1969-12-31 18:00:16.559875000,(-3 -4 -25 -6 -2 -3 -6 -10)
1969-12-31 18:00:16.617910714,(-1 -1 -7 2 -1 0 2 2)
1969-12-31 18:00:16.617910714,(-2 -8 -13 -10 -3 -3 1 3)
1969-12-31 18:00:16.619026786,(-4 -10 -27 -34 -7 -4 0 3)
1969-12-31 18:00:16.619026786,(2 7 -3 18 7 1 3 5)
1969-12-31 18:00:16.620142857,(-6 -7 4 4 -2 -5 -2 -3)
1969-12-31 18:00:16.620142857,(2 8 1 -4 2 -1 1 0)
1969-12-31 18:00:16.652508929,(2 2 10 18 6 3 1 0)
1969-12-31 18:00:16.652508929,(-2 -2 10 9 0 1 0 -4)
1969-12-31 18:00:16.652508929,(3 3 -8 -14 -1 4 10 16)
1969-12-31 18:00:16.652508929,(-2 -2 5 -9 -7 -8 -12 -17)
1969-12-31 18:00:16.658089286,(-3 -1 -2 10 1 -2 -2 -2)
1969-12-31 18:00:16.658089286,(-2 0 -4 -7 -2 0 1 4)
1969-12-31 18:00:16.659205357,(-2 -5 -7 -13 -3 -1 3 4)
1969-12-31 18:00:16.659205357,(-3 -7 -12 -2 -1 1 -1 1)
1969-12-31 18:00:16.674830357,(1 -8 -9 -6 -5 -3 -2 -5)
1969-12-31 18:00:16.674830357,(-2 -5 -4 0 -1 -1 -3 -3)
1969-12-31 18:00:16.677062500,(-1 23 33 12 4 3 -2 -5)
1969-12-31 18:00:16.677062500,(-1 -4 -1 -3 -3 -2 -3 -2)
1969-12-31 18:00:16.691571429,(-1 2 3 2 -2 -2 -5 -6)
1969-12-31 18:00:16.691571429,(0 -11 -7 -3 -3 2 -1 -2)
1969-12-31 18:00:16.693803571,(0 -18 -14 -5 -5 1 2 5)
1969-12-31 18:00:16.693803571,(-5 11 8 2 -1 0 -2 4)
1969-12-31 18:00:16.717241071,(-1 6 8 5 1 0 -7 -11)
1969-12-31 18:00:16.717241071,(-2 -2 -7 -5 0 -1 0 -2)
1969-12-31 18:00:16.718357143,(-3 -15 -14 -4 -2 -1 1 -1)
1969-12-31 18:00:16.718357143,(10 -7 -9 -3 -1 -3 -2 -5)
1969-12-31 18:00:16.760767857,(-14 -8 -2 -6 -1 0 6 9)
1969-12-31 18:00:16.760767857,(1 16 8 -2 -1 0 1 9)
1969-12-31 18:00:16.761883929,(-4 -5 -1 6 1 0 -2 -6)
1969-12-31 18:00:16.761883929,(0 -1 -4 -1 -1 -1 -1 2)
1969-12-31 18:00:16.763000000,(-1 -12 -12 -10 -5 -2 2 0)
1969-12-31 18:00:16.763000000,(3 2 -1 1 1 -1 -8 -12)
1969-12-31 18:00:16.767464285,(2 8 1 0 1 1 3 7)
1969-12-31 18:00:16.767464285,(0 -10 -2 -3 -3 -1 -4 -4)
1969-12-31 18:00:16.784205357,(2 8 1 1 -3 -2 -2 0)
1969-12-31 18:00:16.784205357,(-7 -8 1 0 -3 1 4 0)
1969-12-31 18:00:16.785321429,(3 8 1 1 1 -4 -14 -15)
1969-12-31 18:00:16.785321429,(-4 -1 1 -1 -2 -1 4 13)
1969-12-31 18:00:16.799830357,(-1 -2 1 2 2 -3 -9 -10)
1969-12-31 18:00:16.799830357,(4 1 0 0 0 -1 2 6)
1969-12-31 18:00:16.807642857,(0 -3 -3 -3 -2 -1 3 1)
1969-12-31 18:00:16.807642857,(-7 1 2 1 -3 -3 -3 -10)
1969-12-31 18:00:16.825500000,(-2 -2 -1 -3 -1 0 -1 -1)
1969-12-31 18:00:16.825500000,(-2 -1 0 -1 -2 -1 1 -8)
1969-12-31 18:00:16.827732143,(20 3 0 1 0 4 15 51)
1969-12-31 18:00:16.827732143,(-10 -6 -2 -2 -2 -5 -14 -31)
1969-12-31 18:00:16.851169643,(1 2 -2 -1 -1 -1 -1 5)
1969-12-31 18:00:16.851169643,(18 6 1 2 1 -4 -9 0)
1969-12-31 18:00:16.852285714,(-12 -10 -7 -3 -3 -2 0 -6)
1969-12-31 18:00:16.852285714,(14 5 0 -1 1 2 7 15)
1969-12-31 18:00:16.866794643,(-1 -7 -4 -3 -2 -3 1 -1)
1969-12-31 18:00:16.866794643,(-5 -4 0 -4 -4 -3 -14 -14)
1969-12-31 18:00:16.874607143,(36 13 7 4 5 25 20 25)
1969-12-31 18:00:16.874607143,(26 23 19 11 4 -25 -16 -7)
1969-12-31 18:00:16.917017857,(-19 -18 -11 -8 -7 -11 -23 -35)
1969-12-31 18:00:16.917017857,(-26 -9 2 5 5 39 31 16)
1969-12-31 18:00:16.928178571,(-1 5 -2 -4 -4 1 6 4)
1969-12-31 18:00:16.928178571,(-45 -11 -2 0 1 -9 -28 -15)
1969-12-31 18:00:16.929294643,(17 1 -3 -4 -4 -12 18 24)
1969-12-31 18:00:16.929294643,(31 -4 -1 0 -4 -25 -2 30)
1969-12-31 18:00:16.933758929,(-24 6 3 2 4 24 -3 -42)
1969-12-31 18:00:16.933758929,(4 5 -2 0 2 10 6 8)
1969-12-31 18:00:16.934875000,(-11 19 8 4 1 -6 -11 -16)
1969-12-31 18:00:16.934875000,(-35 -22 -10 -6 -5 -5 11 -3)
1969-12-31 18:00:16.941571429,(-21 -27 -6 0 -2 -33 -31 -24)
1969-12-31 18:00:16.941571429,(-11 -4 -10 -7 -12 -27 -13 -47)
1969-12-31 18:00:16.959428571,(10 -5 -3 -3 1 25 11 50)
1969-12-31 18:00:16.959428571,(38 30 7 -1 0 -1 23 30)
1969-12-31 18:00:16.961660714,(-15 2 -1 -2 5 20 -21 -18)
1969-12-31 18:00:16.961660714,(27 -3 -1 -1 -2 11 16 20)
1969-12-31 18:00:16.992910714,(-20 -8 -5 -3 -3 2 3 -43)
1969-12-31 18:00:16.992910714,(-34 3 -4 -6 -4 -13 -10 -4)
1969-12-31 18:00:16.995142857,(1 8 1 -2 -6 -27 -23 -24)
1969-12-31 18:00:16.995142857,(39 11 7 8 22 75 32 107)
1969-12-31 18:00:16.999607143,(57 15 6 0 -16 -33 29 43)
1969-12-31 18:00:16.999607143,(-88 -64 -19 -8 -8 -26 -51 -74)
1969-12-31 18:00:17.009651786,(37 24 4 -1 -4 -8 -2 12)
1969-12-31 18:00:17.009651786,(-6 -5 -3 -3 -1 4 8 -2)
1969-12-31 18:00:17.026392857,(35 27 12 4 6 3 -18 -20)
1969-12-31 18:00:17.026392857,(0 -1 -6 -3 3 -7 -5 12)
1969-12-31 18:00:17.028625000,(31 13 9 9 14 61 17 58)
1969-12-31 18:00:17.028625000,(-50 -24 -7 -7 -11 -30 -19 -80)
1969-12-31 18:00:17.069919643,(40 16 10 13 24 59 -11 5)
1969-12-31 18:00:17.069919643,(-7 -5 -2 -1 -27 -100 13 -5)
1969-12-31 18:00:17.071035714,(30 12 -2 -8 4 42 4 17)
1969-12-31 18:00:17.071035714,(-40 -9 -1 0 -11 -26 10 -3)
1969-12-31 18:00:17.075500000,(3 5 -1 -3 3 12 -2 -15)
1969-12-31 18:00:17.075500000,(-4 -11 -8 -5 1 11 -10 -22)
1969-12-31 18:00:17.076616071,(-3 -7 -2 -2 -7 -44 -18 -24)
1969-12-31 18:00:17.076616071,(4 4 -2 -4 -3 5 12 10)
1969-12-31 18:00:17.092241071,(-7 4 0 0 -5 -16 -16 -21)
1969-12-31 18:00:17.093357143,(-60 -26 -14 -12 -5 12 -3 -40)
1969-12-31 18:00:17.093357143,(-13 1 0 0 -7 -31 -25 -27)
1969-12-31 18:00:17.093357143,(59 9 -1 -4 -5 -8 20 60)
1969-12-31 18:00:17.117910714,(-2 6 7 8 9 14 7 13)
1969-12-31 18:00:17.117910714,(41 18 10 5 8 21 -4 27)
1969-12-31 18:00:17.119026786,(-74 -29 -11 -8 -9 -7 24 -66)
1969-12-31 18:00:17.119026786,(27 13 5 1 4 16 29 28)
1969-12-31 18:00:17.142464286,(5 3 6 9 8 21 12 67)
1969-12-31 18:00:17.142464286,(11 1 -5 -4 -2 -33 -25 -22)
1969-12-31 18:00:17.143580357,(69 13 4 5 8 38 33 98)
1969-12-31 18:00:17.143580357,(-72 -37 -12 -5 -8 -29 -43 -80)
1969-12-31 18:00:17.159205357,(-17 -12 -9 -11 -4 31 -4 -37)
1969-12-31 18:00:17.159205357,(61 43 20 13 7 0 22 16)
1969-12-31 18:00:17.160321429,(7 -6 4 6 5 -10 3 44)
1969-12-31 18:00:17.160321429,(17 22 3 2 2 -9 15 24)
1969-12-31 18:00:17.184875000,(-78 -64 -27 -15 -13 -21 -29 -76)
1969-12-31 18:00:17.184875000,(47 34 9 1 2 23 -4 23)
1969-12-31 18:00:17.185991071,(-17 -26 -6 0 0 -2 -1 -35)
1969-12-31 18:00:17.185991071,(14 36 13 3 2 14 -3 26)
1969-12-31 18:00:17.228401786,(-61 -30 -3 -1 -1 -19 -3 -31)
1969-12-31 18:00:17.228401786,(1 -4 -2 1 2 24 -6 -20)
1969-12-31 18:00:17.229517857,(48 29 9 8 11 32 10 39)
1969-12-31 18:00:17.229517857,(-22 -14 0 5 -3 -36 17 17)
1969-12-31 18:00:17.236214286,(19 9 -5 -7 -4 -10 -16 -3)
1969-12-31 18:00:17.236214286,(-1 2 -4 -6 -4 3 14 -17)
1969-12-31 18:00:17.236214286,(-51 -36 -13 -10 -7 18 -3 -18)
1969-12-31 18:00:17.236214286,(27 9 3 0 4 25 18 16)
1969-12-31 18:00:17.251839286,(16 18 3 -1 -4 -27 -6 33)
1969-12-31 18:00:17.251839286,(11 9 7 7 5 11 3 36)
1969-12-31 18:00:17.252955357,(11 9 -5 -6 -9 -26 9 37)
1969-12-31 18:00:17.252955357,(-39 -45 -18 -12 -8 10 -20 -43)
1969-12-31 18:00:17.276392857,(29 15 6 4 4 -7 16 53)
1969-12-31 18:00:17.276392857,(-26 -12 -1 3 3 10 21 -22)
1969-12-31 18:00:17.277508929,(-4 11 0 -2 3 20 -7 -62)
1969-12-31 18:00:17.277508929,(-9 8 9 14 17 24 13 -16)
1969-12-31 18:00:17.293133929,(-32 -11 -8 -8 -10 -35 -51 -70)
1969-12-31 18:00:17.293133929,(39 24 11 10 5 4 23 51)
1969-12-31 18:00:17.294250000,(-61 -52 -17 -9 -13 -17 5 -34)
1969-12-31 18:00:17.294250000,(50 27 16 13 13 32 2 27)
1969-12-31 18:00:17.318803571,(3 -2 3 5 13 60 11 14)
1969-12-31 18:00:17.318803571,(-38 -29 -23 -17 -16 -52 -67 -51)
1969-12-31 18:00:17.319919643,(-8 0 -1 -2 -12 -46 -7 10)
1969-12-31 18:00:17.319919643,(0 5 4 1 9 -8 -33 -33)
1969-12-31 18:00:17.343357143,(-9 -10 -9 -5 0 26 10 33)
1969-12-31 18:00:17.343357143,(3 7 16 35 95 89 14 6)
1969-12-31 18:00:17.344473214,(37 23 8 7 -53 -53 -3 16)
1969-12-31 18:00:17.344473214,(3 -12 -18 -47 -82 23 20 -11)
1969-12-31 18:00:17.380187500,(-67 -56 -21 -20 -25 -58 -78 -56)
1969-12-31 18:00:17.380187500,(11 8 0 -7 -6 -3 13 28)
1969-12-31 18:00:17.381303571,(-23 -21 -14 -7 41 82 -23 -58)
1969-12-31 18:00:17.381303571,(-4 2 4 14 12 -87 -26 -26)
1969-12-31 18:00:17.385767857,(20 31 15 17 27 29 49 12)
1969-12-31 18:00:17.385767857,(16 -8 3 5 -10 20 12 72)
1969-12-31 18:00:17.386883929,(-17 1 0 7 35 -7 -8 -1)
1969-12-31 18:00:17.386883929,(21 20 -3 -14 -45 -3 5 27)
1969-12-31 18:00:17.401392857,(-19 -45 -12 -11 2 -9 22 -2)
1969-12-31 18:00:17.401392857,(-6 1 1 9 1 -17 2 11)
1969-12-31 18:00:17.410321429,(15 13 -5 -31 -77 -39 10 27)
1969-12-31 18:00:17.410321429,(-1 -1 1 6 22 -15 -23 -14)
