time,.data
1969-12-31 18:00:07.485000000,(-1 0 0 -2 -3 -3 -2 -1)
1969-12-31 18:00:07.485000000,(-2 0 -2 -2 -1 -1 0 -1)
1969-12-31 18:00:07.485000000,(-2 -1 -4 -1 1 -1 0 -1)
1969-12-31 18:00:07.485000000,(1 1 1 1 1 -1 -1 0)
1969-12-31 18:00:07.498193441,(-1 -1 0 -3 -3 -2 -1 -3)
1969-12-31 18:00:07.498193441,(0 -2 -4 -2 0 -1 -1 -2)
1969-12-31 18:00:07.498193441,(-2 -1 3 -1 0 -2 0 -1)
1969-12-31 18:00:07.498193441,(0 -1 0 2 0 1 0 1)
1969-12-31 18:00:07.510507319,(-2 -1 -4 -1 4 2 -1 -1)
1969-12-31 18:00:07.510507319,(-1 -1 1 1 -2 0 -1 -1)
1969-12-31 18:00:07.510507319,(0 -2 -2 -1 -2 -1 0 1)
1969-12-31 18:00:07.510507319,(-1 -1 -3 -2 -1 -1 0 -1)
1969-12-31 18:00:07.532496388,(-1 -3 0 0 1 -1 2 -1)
1969-12-31 18:00:07.532496388,(0 -2 -1 -1 -2 -2 -1 -1)
1969-12-31 18:00:07.532496388,(-2 0 -1 1 -1 -1 -1 0)
1969-12-31 18:00:07.532496388,(-3 -1 -1 0 -1 -1 0 0)
1969-12-31 18:00:07.543051140,(-3 -2 1 -1 -1 0 -2 0)
1969-12-31 18:00:07.543051140,(0 0 2 0 1 -1 -1 -1)
1969-12-31 18:00:07.550087642,(-2 -1 -1 0 0 0 -1 -1)
1969-12-31 18:00:07.550087642,(0 0 0 0 0 -1 -1 -1)
1969-12-31 18:00:07.563281083,(0 1 -2 -1 -4 -2 0 2)
1969-12-31 18:00:07.563281083,(0 1 0 0 -1 -1 -1 -1)
1969-12-31 18:00:07.564160646,(-1 -3 -6 -4 -1 -1 -1 -1)
1969-12-31 18:00:07.564160646,(-2 -1 -1 0 0 -2 -2 -1)
1969-12-31 18:00:07.583511026,(-1 0 0 -1 0 0 -1 -2)
1969-12-31 18:00:07.583511026,(-3 -2 -1 -2 -3 -1 -1 -2)
1969-12-31 18:00:07.584390589,(-1 -1 0 -2 -2 -1 0 0)
1969-12-31 18:00:07.584390589,(-2 -2 -2 -2 -1 1 -1 -1)
1969-12-31 18:00:07.603740969,(0 -2 1 0 -4 -2 -2 -2)
1969-12-31 18:00:07.603740969,(-3 -2 -1 0 1 0 -1 -1)
1969-12-31 18:00:07.603740969,(0 1 -2 -2 1 0 -2 -1)
1969-12-31 18:00:07.603740969,(0 0 0 0 -2 -2 -2 -1)
1969-12-31 18:00:07.616054847,(0 -2 -2 -2 -2 0 -2 1)
1969-12-31 18:00:07.616054847,(-1 0 -1 -1 0 1 1 1)
1969-12-31 18:00:07.616934410,(-1 -1 -1 0 -3 -2 1 -2)
1969-12-31 18:00:07.616934410,(-1 2 -2 -4 -2 -2 -1 0)
1969-12-31 18:00:07.643321292,(-2 0 0 0 0 -1 0 -2)
1969-12-31 18:00:07.643321292,(0 -3 -3 -1 -2 -1 -2 0)
1969-12-31 18:00:07.644200854,(1 0 -2 -5 -1 -1 0 0)
1969-12-31 18:00:07.644200854,(-1 -3 -1 2 2 -2 -1 -1)
1969-12-31 18:00:07.656514733,(0 -1 0 1 -1 -1 -1 -1)
1969-12-31 18:00:07.656514733,(-2 -2 -2 -5 -3 0 0 0)
1969-12-31 18:00:07.657394295,(0 1 2 4 1 -1 -3 -1)
1969-12-31 18:00:07.657394295,(-1 -1 2 -2 -1 0 0 -2)
1969-12-31 18:00:07.668828611,(-1 -3 -4 -9 -2 0 3 2)
1969-12-31 18:00:07.668828611,(3 6 6 10 4 -4 -3 -3)
1969-12-31 18:00:07.669708174,(1 -1 0 4 0 1 1 1)
1969-12-31 18:00:07.669708174,(0 -3 -2 -2 -2 0 0 -1)
1969-12-31 18:00:07.689058554,(-5 -10 -12 -5 1 3 1 1)
1969-12-31 18:00:07.689058554,(2 -1 -3 -10 -5 -1 2 1)
1969-12-31 18:00:07.689938116,(-1 4 -1 -5 -1 -5 -4 -5)
1969-12-31 18:00:07.689938116,(2 7 9 6 -2 -2 -4 -2)
1969-12-31 18:00:07.715445436,(-1 -3 2 10 3 0 0 -2)
1969-12-31 18:00:07.715445436,(-5 -8 -11 -10 -5 -1 0 0)
1969-12-31 18:00:07.716324998,(-4 -5 -5 -4 1 2 -1 -1)
1969-12-31 18:00:07.716324998,(-5 -13 -4 -4 1 4 7 7)
1969-12-31 18:00:07.729518439,(0 5 0 -7 -9 -9 -9 -4)
1969-12-31 18:00:07.729518439,(-4 8 0 8 1 -7 -13 -14)
1969-12-31 18:00:07.730398002,(3 4 4 -1 -3 -2 0 1)
1969-12-31 18:00:07.730398002,(5 -3 -10 -20 -3 2 2 6)
1969-12-31 18:00:07.741832318,(-3 -13 -9 5 3 6 8 8)
1969-12-31 18:00:07.741832318,(7 16 36 23 6 -1 -1 0)
1969-12-31 18:00:07.742711880,(4 -7 -2 15 3 4 9 13)
1969-12-31 18:00:07.742711880,(2 13 -1 -8 -11 -12 -18 -19)
1969-12-31 18:00:07.762062260,(0 -6 -5 -12 -3 0 1 2)
1969-12-31 18:00:07.762062260,(-2 -6 -14 -16 -3 2 4 4)
1969-12-31 18:00:07.762062260,(-2 -2 3 -3 -1 3 0 -2)
1969-12-31 18:00:07.762062260,(-8 -7 -7 -6 2 3 4 0)
1969-12-31 18:00:07.775255701,(3 6 -2 -5 -7 -5 -5 -3)
1969-12-31 18:00:07.775255701,(0 3 5 15 6 2 3 3)
1969-12-31 18:00:07.775255701,(0 2 11 -4 1 0 3 4)
1969-12-31 18:00:07.775255701,(3 -7 -5 17 4 -1 1 3)
1969-12-31 18:00:07.794606082,(-4 0 -7 -17 -7 -6 -6 -8)
1969-12-31 18:00:07.794606082,(-3 -19 -34 -32 -12 -5 -3 0)
1969-12-31 18:00:07.795485644,(2 2 -1 2 -1 -1 0 1)
1969-12-31 18:00:07.795485644,(1 12 15 22 14 5 0 -1)
1969-12-31 18:00:07.814836024,(6 9 25 16 7 4 3 7)
1969-12-31 18:00:07.814836024,(-3 -5 0 -24 -5 4 -1 -2)
1969-12-31 18:00:07.814836024,(-6 -11 -22 6 -4 0 -4 -6)
1969-12-31 18:00:07.814836024,(-8 -8 -5 -3 -4 1 -1 -3)
1969-12-31 18:00:07.827149903,(-1 10 0 9 -1 -10 -16 -20)
1969-12-31 18:00:07.827149903,(-1 -4 -9 -9 -3 -1 1 0)
1969-12-31 18:00:07.828029465,(-5 11 8 -6 -3 -9 -17 -22)
1969-12-31 18:00:07.828029465,(-1 -4 -10 -10 -3 -3 1 -2)
1969-12-31 18:00:07.847379845,(-2 -2 3 10 6 3 6 5)
1969-12-31 18:00:07.847379845,(2 -1 2 -2 -3 1 2 3)
1969-12-31 18:00:07.853536785,(-1 -2 -6 -6 -1 0 0 -1)
1969-12-31 18:00:07.853536785,(1 2 4 7 -2 -6 -7 -4)
1969-12-31 18:00:07.867609788,(-4 -5 -2 -12 -2 -1 0 -1)
1969-12-31 18:00:07.867609788,(-1 -1 4 10 3 1 0 0)
1969-12-31 18:00:07.867609788,(0 4 0 2 1 2 2 4)
1969-12-31 18:00:07.867609788,(0 6 -4 -11 -4 -1 0 1)
1969-12-31 18:00:07.886960168,(2 8 -1 -3 0 3 1 1)
1969-12-31 18:00:07.886960168,(1 8 0 1 3 0 -3 -2)
1969-12-31 18:00:07.888719294,(-1 -3 -2 -6 -1 0 1 0)
1969-12-31 18:00:07.888719294,(-1 -3 1 -11 -3 0 1 1)
1969-12-31 18:00:07.900153609,(-2 -3 -2 1 0 -1 -1 -4)
1969-12-31 18:00:07.900153609,(-3 -9 5 13 3 3 5 5)
1969-12-31 18:00:07.901912735,(-3 -10 -4 -1 -4 -3 0 1)
1969-12-31 18:00:07.901912735,(-2 -4 3 11 1 -1 -5 -4)
1969-12-31 18:00:07.919503989,(1 4 2 8 0 -1 -2 0)
1969-12-31 18:00:07.919503989,(-3 -6 -8 3 -2 -4 -3 -4)
1969-12-31 18:00:07.921263115,(-2 3 18 6 -1 -1 3 3)
1969-12-31 18:00:07.921263115,(-3 -3 -1 4 0 -2 -6 -5)
1969-12-31 18:00:07.939733932,(-6 -21 -8 -2 -2 2 4 4)
1969-12-31 18:00:07.939733932,(2 9 2 3 0 -2 -3 -4)
1969-12-31 18:00:07.941493058,(2 -1 -6 -5 0 0 -3 -1)
1969-12-31 18:00:07.941493058,(0 -7 -2 -6 -3 -2 2 2)
1969-12-31 18:00:07.952927373,(8 11 7 -2 0 -2 -6 -8)
1969-12-31 18:00:07.952927373,(-3 -4 -2 0 1 -3 -2 -1)
1969-12-31 18:00:07.954686499,(3 -5 -9 -9 -6 -4 2 2)
1969-12-31 18:00:07.954686499,(-16 7 9 3 6 -1 -8 -18)
1969-12-31 18:00:07.972277753,(6 -4 -7 -8 -8 -3 3 9)
1969-12-31 18:00:07.973157316,(10 12 8 5 3 0 -3 -6)
1969-12-31 18:00:07.974036879,(-59 -21 -12 -5 -5 -5 -8 -26)
1969-12-31 18:00:07.974036879,(25 3 -6 -4 -4 -3 -1 17)
1969-12-31 18:00:07.984591632,(20 6 3 1 0 -3 -10 -8)
1969-12-31 18:00:07.984591632,(11 22 14 7 4 3 3 2)
1969-12-31 18:00:07.992507696,(-25 -12 -3 -3 -1 -1 1 -12)
1969-12-31 18:00:07.992507696,(-6 6 2 4 3 6 13 16)
1969-12-31 18:00:08.005701137,(-5 0 -2 -1 1 1 2 14)
1969-12-31 18:00:08.005701137,(-5 -17 -6 -5 -5 -4 -8 -12)
1969-12-31 18:00:08.007460263,(30 17 1 -1 0 0 -1 10)
1969-12-31 18:00:08.007460263,(7 5 2 -2 -2 1 -1 -6)
1969-12-31 18:00:08.025931080,(2 17 14 10 6 -4 6 18)
1969-12-31 18:00:08.025931080,(-39 -22 -12 -9 -4 2 -15 -29)
1969-12-31 18:00:08.026810643,(-25 -13 -1 0 0 -6 0 -11)
1969-12-31 18:00:08.026810643,(14 -2 -12 -12 -10 1 -3 -14)
1969-12-31 18:00:08.037365395,(-16 -13 -10 -9 -6 -3 2 -3)
1969-12-31 18:00:08.037365395,(31 25 8 3 0 -2 9 4)
1969-12-31 18:00:08.045281460,(18 -6 5 5 1 10 6 24)
1969-12-31 18:00:08.045281460,(-12 -7 -12 -5 -3 -9 1 29)
1969-12-31 18:00:08.058474901,(-19 -5 6 6 9 18 1 -36)
1969-12-31 18:00:08.058474901,(20 -14 -12 -4 -9 -39 6 66)
1969-12-31 18:00:08.060234027,(10 3 -3 -7 3 36 21 2)
1969-12-31 18:00:08.060234027,(-32 -21 -10 -8 -8 -25 -15 -11)
1969-12-31 18:00:08.078704844,(17 16 2 -2 -2 7 -14 -50)
1969-12-31 18:00:08.078704844,(29 17 0 1 4 20 10 56)
1969-12-31 18:00:08.079584407,(-50 -42 -4 2 -3 -16 -5 -39)
1969-12-31 18:00:08.079584407,(62 32 11 6 3 -2 19 76)
1969-12-31 18:00:08.090139159,(-34 -31 -18 -10 -3 0 -1 -15)
1969-12-31 18:00:08.090139159,(5 -19 -6 -5 -6 -9 -12 -34)
1969-12-31 18:00:08.098055224,(-17 0 -19 -16 -6 7 -15 7)
1969-12-31 18:00:08.098055224,(5 3 5 5 4 -4 9 -30)
1969-12-31 18:00:08.111248665,(10 4 6 3 -5 -26 11 16)
1969-12-31 18:00:08.111248665,(18 4 -10 -6 0 12 4 15)
1969-12-31 18:00:08.112128228,(-28 -7 3 4 1 -27 -28 -35)
1969-12-31 18:00:08.113007790,(-45 -26 -3 1 6 11 -2 -23)
1969-12-31 18:00:08.131478608,(-17 4 0 -2 -1 2 7 7)
1969-12-31 18:00:08.131478608,(2 -24 -10 -5 -3 5 -1 -18)
1969-12-31 18:00:08.132358171,(99 82 21 7 0 3 2 23)
1969-12-31 18:00:08.132358171,(-78 -52 -18 -11 -9 -9 0 -47)
1969-12-31 18:00:08.142912923,(3 -1 3 3 5 8 8 28)
1969-12-31 18:00:08.142912923,(-99 -20 6 6 3 -10 -32 -57)
1969-12-31 18:00:08.151708551,(30 17 3 4 7 26 -14 -28)
1969-12-31 18:00:08.151708551,(10 12 8 1 -6 -20 -5 13)
1969-12-31 18:00:08.164022429,(37 5 -9 -3 0 22 3 -5)
1969-12-31 18:00:08.164022429,(-31 -23 -10 -7 -4 1 3 9)
1969-12-31 18:00:08.165781554,(31 15 1 -4 -4 -4 6 40)
1969-12-31 18:00:08.165781554,(19 32 15 8 4 4 -1 -19)
1969-12-31 18:00:08.184252372,(53 -14 1 5 7 5 21 53)
1969-12-31 18:00:08.184252372,(51 33 19 11 10 10 6 54)
1969-12-31 18:00:08.186011497,(-21 -41 -12 -1 1 8 -6 -32)
1969-12-31 18:00:08.186011497,(12 -5 -7 -9 -10 -57 -7 61)
1969-12-31 18:00:08.195686687,(-34 15 6 8 6 27 -48 -70)
1969-12-31 18:00:08.195686687,(-35 -12 -6 -5 -7 6 78 -33)
1969-12-31 18:00:08.203602752,(68 30 10 5 1 -20 -35 51)
1969-12-31 18:00:08.203602752,(-16 -7 -7 -4 -8 6 -22 -28)
1969-12-31 18:00:08.216796193,(-54 -27 -14 -11 -10 -6 -19 -27)
1969-12-31 18:00:08.216796193,(-12 -4 6 7 9 4 13 5)
1969-12-31 18:00:08.222073569,(-24 -29 -23 -13 -7 10 18 -29)
1969-12-31 18:00:08.222073569,(-2 17 7 1 3 16 12 -27)
1969-12-31 18:00:08.237026136,(39 2 -8 -7 -10 -33 1 49)
1969-12-31 18:00:08.237026136,(21 22 23 14 11 29 -6 -28)
1969-12-31 18:00:08.237905698,(50 17 1 -1 -3 -10 9 60)
1969-12-31 18:00:08.237905698,(-21 -33 -12 -2 2 8 -5 26)
1969-12-31 18:00:08.248460451,(13 5 -1 -1 -3 -18 -3 -15)
1969-12-31 18:00:08.248460451,(26 1 -8 -9 -8 2 -13 52)
1969-12-31 18:00:08.256376516,(-5 8 16 14 17 36 7 24)
1969-12-31 18:00:08.256376516,(-49 -12 -7 -5 3 25 8 -67)
1969-12-31 18:00:08.268690394,(73 -2 -11 -15 -16 -2 21 82)
1969-12-31 18:00:08.268690394,(5 18 -10 -11 -11 -23 -17 -10)
1969-12-31 18:00:08.274847333,(-80 -38 1 3 -5 -29 -9 -49)
1969-12-31 18:00:08.274847333,(14 9 9 9 11 18 -59 -50)
1969-12-31 18:00:08.288920337,(26 6 -2 -2 -3 -12 -3 -23)
1969-12-31 18:00:08.288920337,(37 -11 -19 -12 -13 -5 38 61)
1969-12-31 18:00:08.290679462,(-11 4 4 1 0 -8 13 2)
1969-12-31 18:00:08.290679462,(6 13 11 9 7 16 22 13)
1969-12-31 18:00:08.301234215,(-29 7 2 2 1 -19 -8 -1)
1969-12-31 18:00:08.301234215,(-59 11 10 7 3 -11 -30 -39)
1969-12-31 18:00:08.315307219,(20 13 -6 -5 -1 -2 0 -30)
1969-12-31 18:00:08.315307219,(36 5 2 -3 -2 16 44 18)
1969-12-31 18:00:08.321464158,(-49 -2 6 5 7 -1 -5 -1)
1969-12-31 18:00:08.321464158,(-6 -22 -13 -6 0 12 -24 -59)
1969-12-31 18:00:08.327621097,(-24 6 15 9 3 -24 -36 -28)
1969-12-31 18:00:08.327621097,(34 -6 -15 -12 -11 -4 -4 -4)
1969-12-31 18:00:08.341694101,(-22 23 7 6 9 15 17 -22)
1969-12-31 18:00:08.341694101,(-6 -16 8 8 9 11 1 6)
1969-12-31 18:00:08.343453226,(49 15 -5 -9 -10 1 11 24)
1969-12-31 18:00:08.343453226,(-14 -21 -8 -1 -5 -13 1 34)
1969-12-31 18:00:08.361924043,(19 15 6 2 -1 -3 -30 -37)
1969-12-31 18:00:08.361924043,(-28 -4 0 0 2 12 4 11)
1969-12-31 18:00:08.363683169,(7 5 -2 -5 -4 -18 -10 -16)
1969-12-31 18:00:08.363683169,(-25 -11 -9 -6 -6 -6 -11 9)
1969-12-31 18:00:08.374237922,(-13 -5 -3 -4 2 18 37 7)
1969-12-31 18:00:08.374237922,(-2 5 5 6 5 -35 -45 -8)
1969-12-31 18:00:08.380394861,(4 7 7 6 2 -10 -16 -31)
1969-12-31 18:00:08.380394861,(13 23 11 7 13 28 -3 -15)
1969-12-31 18:00:08.394467865,(-53 -17 -5 -4 -2 16 -21 0)
1969-12-31 18:00:08.394467865,(51 -1 -5 -4 -8 -22 -5 0)
1969-12-31 18:00:08.396226990,(-19 -8 0 2 -1 -1 26 5)
1969-12-31 18:00:08.396226990,(12 -16 -8 -3 -1 14 -29 -2)
1969-12-31 18:00:08.414697807,(24 15 5 1 -4 -23 4 -1)
1969-12-31 18:00:08.414697807,(27 17 7 6 9 45 22 23)
1969-12-31 18:00:08.416456933,(-45 -2 -1 -3 -19 -40 -4 0)
1969-12-31 18:00:08.416456933,(-62 -9 -3 15 37 1 -20 -9)
1969-12-31 18:00:08.427011686,(-8 -13 -4 -16 -24 12 10 -9)
1969-12-31 18:00:08.427011686,(-55 -16 -10 -15 -17 -6 8 -63)
1969-12-31 18:00:08.433168625,(7 -36 -21 -18 -14 -4 37 60)
1969-12-31 18:00:08.433168625,(18 20 10 0 -19 -27 -13 -47)
1969-12-31 18:00:08.448121191,(-30 -21 -6 14 21 14 -8 -8)
1969-12-31 18:00:08.448121191,(61 40 15 10 8 -43 -19 -8)
1969-12-31 18:00:08.449000754,(-6 -7 1 14 26 58 28 27)
1969-12-31 18:00:08.449000754,(23 6 3 6 -4 -50 1 20)
1969-12-31 18:00:08.467471571,(16 48 18 -6 6 25 17 -9)
1969-12-31 18:00:08.467471571,(-75 -92 -39 -27 -9 47 4 -58)
1969-12-31 18:00:08.469230697,(-2 5 6 9 11 -40 -42 13)
1969-12-31 18:00:08.469230697,(49 16 17 14 11 18 16 76)
1969-12-31 18:00:08.479785450,(-27 4 -3 -5 -7 -9 19 -49)
1969-12-31 18:00:08.479785450,(-22 24 9 0 -7 -16 0 -42)
1969-12-31 18:00:08.485942389,(-34 -14 -5 -1 1 -2 -14 -1)
1969-12-31 18:00:08.485942389,(10 -12 -8 -5 0 -2 -22 -2)
1969-12-31 18:00:08.500894954,(2 5 7 2 -18 -31 -23 -9)
1969-12-31 18:00:08.500894954,(12 13 3 5 11 28 15 25)
1969-12-31 18:00:08.501774517,(0 -29 -11 18 34 -5 -9 -21)
1969-12-31 18:00:08.501774517,(-16 9 0 -23 -52 24 36 -2)
1969-12-31 18:00:08.520245335,(47 -15 -14 -16 -22 -41 -12 65)
1969-12-31 18:00:08.520245335,(-18 6 7 0 17 -13 -1 41)
1969-12-31 18:00:08.522004461,(75 37 6 -8 -15 -12 16 5)
1969-12-31 18:00:08.522004461,(-28 -27 -3 5 11 4 -32 -31)
1969-12-31 18:00:08.532559213,(-15 -8 1 25 45 32 9 19)
1969-12-31 18:00:08.532559213,(14 3 -2 -2 -6 -4 -2 35)
1969-12-31 18:00:08.539595715,(2 2 -3 -15 -15 0 11 -3)
1969-12-31 18:00:08.539595715,(23 36 6 -7 -23 -21 7 2)
1969-12-31 18:00:08.559825658,(-39 -22 1 1 13 23 2 -13)
1969-12-31 18:00:08.559825658,(11 -6 -2 20 10 -45 -17 3)
1969-12-31 18:00:08.560705221,(-17 -3 -4 -7 -17 31 6 -9)
1969-12-31 18:00:08.560705221,(-3 0 -12 -29 0 -7 4 -7)
1969-12-31 18:00:08.574778225,(-1 6 5 6 2 -2 -9 9)
1969-12-31 18:00:08.574778225,(-5 -20 -4 -2 10 25 10 17)
1969-12-31 18:00:08.575657787,(-25 -5 -8 -9 -16 -10 5 11)
1969-12-31 18:00:08.575657787,(28 -6 -6 12 2 -59 1 26)
1969-12-31 18:00:08.593249042,(24 9 -9 -10 15 38 4 5)
1969-12-31 18:00:08.593249042,(4 30 16 7 3 -6 9 -7)
1969-12-31 18:00:08.594128605,(14 -49 -26 -20 -38 -5 -15 -15)
1969-12-31 18:00:08.594128605,(-43 -42 -35 -6 16 23 32 13)
1969-12-31 18:00:08.605562920,(27 3 18 10 -4 -20 -19 -6)
1969-12-31 18:00:08.605562920,(30 29 17 14 17 -22 -22 -26)
1969-12-31 18:00:08.607322046,(-18 55 45 7 -6 -2 3 -2)
1969-12-31 18:00:08.607322046,(26 17 20 8 10 30 2 -43)
1969-12-31 18:00:08.632829365,(-9 -70 -105 -38 -18 -39 -13 6)
1969-12-31 18:00:08.632829365,(-48 13 26 -2 -16 19 -1 -18)
1969-12-31 18:00:08.633708928,(-21 55 60 22 32 31 -8 -21)
1969-12-31 18:00:08.633708928,(27 12 13 4 -17 -22 -8 8)
1969-12-31 18:00:08.638106741,(9 -14 -6 7 -4 -1 22 28)
1969-12-31 18:00:08.638106741,(-16 -43 -56 -32 -36 -30 -33 -56)
1969-12-31 18:00:08.646022806,(-2 -48 -69 -12 18 -2 -4 11)
1969-12-31 18:00:08.646022806,(-10 16 37 15 -3 3 0 -10)
1969-12-31 18:00:08.659216247,(-39 -2 12 -1 -12 -15 -3 -15)
1969-12-31 18:00:08.659216247,(-7 -39 -62 -16 -3 17 4 9)
1969-12-31 18:00:08.660095810,(-11 53 74 16 0 24 15 -1)
1969-12-31 18:00:08.660095810,(10 -17 -63 -23 16 5 3 12)
1969-12-31 18:00:08.678566627,(10 98 111 43 16 7 -14 -22)
1969-12-31 18:00:08.678566627,(-10 13 50 22 -4 7 23 8)
1969-12-31 18:00:08.680325752,(-13 -79 -54 -13 -19 -23 -13 -9)
1969-12-31 18:00:08.680325752,(12 -50 -93 -16 15 -55 -25 -32)
1969-12-31 18:00:08.697917007,(-24 51 45 -20 -27 37 12 12)
1969-12-31 18:00:08.697917007,(-9 11 -9 19 23 1 -9 -20)
1969-12-31 18:00:08.713749136,(7 49 23 -13 38 101 37 13)
1969-12-31 18:00:08.713749136,(-27 9 51 8 -4 13 8 -17)
1969-12-31 18:00:08.713749136,(23 -53 -65 -18 -14 -30 -22 -13)
1969-12-31 18:00:08.713749136,(12 -23 3 11 7 -12 -2 3)
1969-12-31 18:00:08.717267387,(8 -103 -128 -19 1 -39 -22 1)
1969-12-31 18:00:08.717267387,(12 72 43 -2 -20 14 4 19)
1969-12-31 18:00:08.731340391,(7 -15 27 13 1 -35 -14 15)
1969-12-31 18:00:08.731340391,(24 7 -55 -22 -8 20 22 30)
1969-12-31 18:00:08.733099516,(35 95 109 56 35 12 3 6)
1969-12-31 18:00:08.733099516,(8 -121 -88 -36 -58 -7 18 63)
1969-12-31 18:00:08.743654269,(-6 -32 -76 -21 -7 -19 -16 -18)
1969-12-31 18:00:08.743654269,(21 73 99 57 28 24 27 13)
1969-12-31 18:00:08.749811208,(19 -72 -128 -67 -69 -59 -28 10)
1969-12-31 18:00:08.749811208,(-13 127 127 73 53 28 30 41)
1969-12-31 18:00:08.764763775,(-14 -116 -76 -26 -42 -24 -20 -32)
1969-12-31 18:00:08.764763775,(-53 -107 -92 -39 -6 -6 -19 -39)
1969-12-31 18:00:08.765643337,(29 99 72 12 -18 -26 31 51)
1969-12-31 18:00:08.765643337,(-11 -10 0 15 27 17 -36 -28)
1969-12-31 18:00:08.784114155,(-5 -41 -52 -29 -8 22 31 -6)
1969-12-31 18:00:08.784114155,(8 -47 -33 -25 -26 -11 -7 1)
1969-12-31 18:00:08.784993717,(-64 -113 -106 -24 7 -7 -16 -69)
1969-12-31 18:00:08.784993717,(33 72 67 29 -21 -18 -9 -13)
1969-12-31 18:00:08.804344098,(31 -2 37 42 41 22 21 36)
1969-12-31 18:00:08.804344098,(2 31 -7 -16 -39 -1 -5 29)
1969-12-31 18:00:08.805223660,(-15 -121 -70 -17 -14 -4 3 -32)
1969-12-31 18:00:08.805223660,(-26 -50 -128 -56 -7 0 -7 -23)
1969-12-31 18:00:08.817537538,(-2 126 63 15 13 -5 -5 -23)
1969-12-31 18:00:08.817537538,(-5 0 60 45 12 -1 -2 7)
1969-12-31 18:00:08.818417101,(-12 24 4 6 18 17 16 67)
1969-12-31 18:00:08.818417101,(-51 -112 -86 -25 -7 8 -25 -61)
1969-12-31 18:00:08.836887919,(18 -9 -93 -64 -14 15 58 108)
1969-12-31 18:00:08.836887919,(-31 90 91 44 9 -26 -38 -89)
1969-12-31 18:00:08.838647044,(-36 -78 -77 -4 2 -12 -9 -22)
1969-12-31 18:00:08.838647044,(3 79 71 4 -7 8 14 -5)
1969-12-31 18:00:08.849201797,(-31 35 57 42 24 1 -12 -50)
1969-12-31 18:00:08.849201797,(70 -57 -81 -39 -20 -2 11 54)
1969-12-31 18:00:08.857117861,(-50 62 96 32 23 7 -16 -51)
1969-12-31 18:00:08.857117861,(-55 -116 -68 -15 -14 -20 -12 -26)
1969-12-31 18:00:08.869431740,(4 11 -31 -50 -44 0 5 -4)
1969-12-31 18:00:08.869431740,(35 7 43 23 29 -13 13 51)
1969-12-31 18:00:08.875588679,(-35 -2 -47 -29 -48 17 -10 -16)
1969-12-31 18:00:08.875588679,(56 87 92 66 45 29 20 55)
1969-12-31 18:00:08.889661682,(-35 -122 -91 -10 5 -8 -18 -19)
1969-12-31 18:00:08.889661682,(-53 -102 -115 -49 -23 -6 -12 -61)
1969-12-31 18:00:08.891420808,(26 78 4 -14 5 -20 -8 -15)
1969-12-31 18:00:08.891420808,(-18 80 81 77 20 -29 -12 15)
1969-12-31 18:00:08.901975561,(-79 -49 -40 10 1 20 -18 -64)
1969-12-31 18:00:08.901975561,(65 61 15 11 -3 8 21 18)
1969-12-31 18:00:08.909891625,(72 -67 -42 -32 2 9 -4 60)
1969-12-31 18:00:08.910771188,(-76 -80 -128 -91 -50 -3 5 -27)
1969-12-31 18:00:08.922205504,(33 107 127 108 49 4 -17 -48)
1969-12-31 18:00:08.923085066,(1 -101 -84 -15 21 3 3 25)
1969-12-31 18:00:08.923964629,(20 -38 -3 2 -41 -13 11 25)
1969-12-31 18:00:08.923964629,(15 -11 8 4 -8 -12 1 11)
1969-12-31 18:00:08.949471948,(-23 -128 -111 -32 13 9 -3 20)
1969-12-31 18:00:08.949471948,(-22 101 86 0 25 21 -1 6)
1969-12-31 18:00:08.950351511,(32 95 104 39 6 7 -9 -32)
1969-12-31 18:00:08.950351511,(18 -36 -20 -8 8 21 41 60)
1969-12-31 18:00:08.954749325,(-36 -65 -88 -52 -46 -47 -35 -39)
1969-12-31 18:00:08.954749325,(73 125 126 71 47 26 8 41)
1969-12-31 18:00:08.968822328,(6 -93 -80 -17 -21 6 -8 6)
1969-12-31 18:00:08.968822328,(9 19 20 -6 -8 3 -4 -9)
1969-12-31 18:00:08.974979267,(11 -15 -5 5 13 -6 -27 -57)
1969-12-31 18:00:08.975858830,(-7 -1 2 -8 20 31 16 0)
1969-12-31 18:00:08.976738393,(-23 1 6 -1 4 0 -15 -15)
1969-12-31 18:00:08.976738393,(14 -67 -50 -13 -15 -11 4 -6)
1969-12-31 18:00:08.995209209,(-7 -41 -57 -34 -6 -31 -15 -4)
1969-12-31 18:00:08.995209209,(7 46 37 48 -1 -25 -8 -18)
1969-12-31 18:00:08.996968336,(-16 -8 14 26 -9 21 4 -51)
1969-12-31 18:00:08.996968336,(30 -74 -50 -22 6 26 1 -21)
1969-12-31 18:00:09.015439153,(6 -67 -18 15 10 -26 -3 59)
1969-12-31 18:00:09.015439153,(-6 -11 -41 -37 0 26 1 11)
1969-12-31 18:00:09.016318716,(-8 1 27 9 18 -1 20 14)
1969-12-31 18:00:09.016318716,(-12 -40 -49 -9 -7 -12 -34 -38)
1969-12-31 18:00:09.028632594,(33 101 70 21 13 12 13 -21)
1969-12-31 18:00:09.028632594,(-33 21 25 10 -11 -22 -10 -8)
1969-12-31 18:00:09.029512157,(15 2 4 12 16 -14 -14 5)
1969-12-31 18:00:09.029512157,(-30 -78 -45 -27 -20 -8 27 11)
1969-12-31 18:00:09.047982974,(5 21 -34 -5 -1 22 5 6)
1969-12-31 18:00:09.047982974,(23 53 45 -18 -34 -16 -21 -26)
1969-12-31 18:00:09.049742100,(-22 -69 -44 -25 -17 11 17 14)
1969-12-31 18:00:09.049742100,(26 14 10 16 34 -14 -12 -10)
1969-12-31 18:00:09.060296852,(24 33 12 -5 -15 18 21 38)
1969-12-31 18:00:09.060296852,(21 41 45 37 7 -9 -8 5)
1969-12-31 18:00:09.068212917,(-68 -52 -47 -14 0 -19 -21 -67)
1969-12-31 18:00:09.068212917,(-54 -25 -2 -4 5 2 -22 -35)
1969-12-31 18:00:09.080526795,(82 15 7 9 1 -6 25 75)
1969-12-31 18:00:09.080526795,(-10 -128 -128 -54 -20 -32 -18 -4)
1969-12-31 18:00:09.086683734,(19 110 108 40 45 91 22 14)
1969-12-31 18:00:09.086683734,(13 -50 -59 -25 -20 -25 8 45)
1969-12-31 18:00:09.101636301,(1 127 116 40 21 30 10 0)
1969-12-31 18:00:09.101636301,(35 -73 -42 -19 -23 -41 -12 12)
1969-12-31 18:00:09.102515864,(-52 -34 -50 -23 -35 -44 -5 -25)
1969-12-31 18:00:09.102515864,(22 -35 -41 -9 -5 0 17 45)
1969-12-31 18:00:09.113070616,(18 14 51 30 23 29 18 47)
1969-12-31 18:00:09.113070616,(-53 -84 -49 -19 18 -18 -2 -1)
1969-12-31 18:00:09.120107118,(35 113 85 5 -23 -19 -6 -8)
1969-12-31 18:00:09.120986681,(13 56 30 2 -2 17 4 -3)
1969-12-31 18:00:09.133300559,(-78 -128 -101 -26 -23 -14 -23 -24)
1969-12-31 18:00:09.133300559,(-7 11 -16 -14 -36 -4 11 -11)
1969-12-31 18:00:09.139457498,(19 -26 16 34 39 -18 4 31)
1969-12-31 18:00:09.139457498,(-16 71 71 15 10 3 -5 -23)
1969-12-31 18:00:09.153530502,(15 54 20 21 31 8 9 -4)
1969-12-31 18:00:09.153530502,(-6 -55 -61 -36 -58 -5 10 46)
1969-12-31 18:00:09.155289627,(-29 -14 -15 -3 10 3 16 3)
1969-12-31 18:00:09.155289627,(38 18 -4 -20 6 35 0 9)
1969-12-31 18:00:09.165844380,(-5 -40 -15 -8 -2 -4 -12 -34)
1969-12-31 18:00:09.165844380,(-49 -66 -22 -13 -22 -30 -6 -19)
1969-12-31 18:00:09.173760445,(93 60 25 6 -21 -3 9 50)
1969-12-31 18:00:09.173760445,(-58 -49 -66 -5 31 13 1 -36)
1969-12-31 18:00:09.186074323,(16 87 90 52 -4 -12 2 30)
1969-12-31 18:00:09.186074323,(27 -27 -35 -42 2 49 6 2)
1969-12-31 18:00:09.192231262,(-23 -83 -41 4 36 -27 -12 -4)
1969-12-31 18:00:09.192231262,(46 52 -11 4 -11 8 -9 7)
1969-12-31 18:00:09.206304266,(-21 -25 -2 -20 -17 -15 -9 -18)
1969-12-31 18:00:09.206304266,(-44 -36 -72 4 0 3 15 12)
1969-12-31 18:00:09.208063391,(44 82 81 39 16 16 -4 -15)
1969-12-31 18:00:09.208063391,(16 -2 0 -4 -28 -40 -17 5)
1969-12-31 18:00:09.225654646,(4 -41 -23 2 -22 -6 8 6)
1969-12-31 18:00:09.225654646,(2 -36 3 -8 -2 16 -15 0)
1969-12-31 18:00:09.227413771,(-24 -91 -128 -39 -10 -20 7 10)
1969-12-31 18:00:09.227413771,(-58 105 126 49 16 25 -2 -14)
1969-12-31 18:00:09.238848087,(2 1 -15 -2 -1 -26 -29 -47)
1969-12-31 18:00:09.238848087,(3 63 49 14 8 2 19 -1)
1969-12-31 18:00:09.245005026,(-17 -39 -34 -26 -12 10 -19 -2)
1969-12-31 18:00:09.245005026,(5 -18 0 6 0 -8 5 2)
1969-12-31 18:00:09.259078030,(-58 -75 -55 -21 3 15 1 -43)
1969-12-31 18:00:09.259078030,(-11 111 104 40 34 8 -9 -26)
1969-12-31 18:00:09.260837155,(15 9 9 21 47 -19 -30 -18)
1969-12-31 18:00:09.260837155,(19 70 56 1 -51 31 29 12)
1969-12-31 18:00:09.278428410,(-11 -104 -94 -52 -37 25 41 65)
1969-12-31 18:00:09.278428410,(12 1 16 37 9 -22 -11 -43)
1969-12-31 18:00:09.280187535,(-13 27 32 -26 -38 -5 -1 -12)
1969-12-31 18:00:09.280187535,(1 -128 -96 -17 -16 -16 -6 10)
1969-12-31 18:00:09.291621851,(20 74 -10 -13 -3 -22 8 31)
1969-12-31 18:00:09.291621851,(25 -19 -3 11 23 36 -4 17)
1969-12-31 18:00:09.297778790,(2 -15 -27 9 1 -1 20 42)
1969-12-31 18:00:09.297778790,(-29 -92 -73 -27 -14 -19 -16 -26)
1969-12-31 18:00:09.311851794,(7 104 90 13 9 25 -8 -40)
1969-12-31 18:00:09.311851794,(-5 -104 -98 -33 -20 -5 4 19)
1969-12-31 18:00:09.313610919,(15 115 79 15 7 2 13 7)
1969-12-31 18:00:09.313610919,(-37 -119 -100 -7 31 13 7 4)
1969-12-31 18:00:09.332081737,(-69 15 49 21 8 -29 -37 -38)
1969-12-31 18:00:09.332081737,(2 58 15 7 2 7 -31 -74)
1969-12-31 18:00:09.332961299,(-4 -94 -64 -35 -57 5 -3 -27)
1969-12-31 18:00:09.332961299,(0 63 45 12 23 -22 6 2)
1969-12-31 18:00:09.344395615,(8 -119 -53 -21 -35 1 1 32)
1969-12-31 18:00:09.344395615,(-18 -1 -50 -32 -3 6 15 11)
1969-12-31 18:00:09.350552554,(-28 47 54 27 26 -8 -17 -42)
1969-12-31 18:00:09.350552554,(21 -22 -2 -3 31 25 -26 -1)
1969-12-31 18:00:09.364625558,(22 102 79 36 -6 -49 -4 -11)
1969-12-31 18:00:09.364625558,(-59 -51 -43 -21 0 29 23 -29)
1969-12-31 18:00:09.366384683,(-4 -94 -67 -8 3 1 6 -9)
1969-12-31 18:00:09.366384683,(0 92 11 3 4 -9 -2 -34)
1969-12-31 18:00:09.384855500,(59 -41 -41 -22 -2 -3 4 49)
1969-12-31 18:00:09.384855500,(-43 80 111 54 31 -20 -3 -13)
1969-12-31 18:00:09.385735063,(14 71 96 45 5 12 -4 38)
1969-12-31 18:00:09.385735063,(56 -27 -29 -17 -20 -17 17 75)
1969-12-31 18:00:09.396289816,(65 -59 -55 2 35 44 22 22)
1969-12-31 18:00:09.396289816,(23 71 25 -28 -41 10 2 20)
1969-12-31 18:00:09.404205881,(2 -36 -28 -19 -24 -19 -5 -15)
1969-12-31 18:00:09.404205881,(28 -57 -16 13 7 -13 -7 24)
1969-12-31 18:00:09.418278884,(-22 15 -37 -34 -7 0 -18 -53)
1969-12-31 18:00:09.418278884,(36 -31 21 33 14 29 28 88)
1969-12-31 18:00:09.419158447,(-22 -18 -25 -19 -7 -41 -17 -11)
1969-12-31 18:00:09.419158447,(-55 48 29 27 6 18 10 29)
1969-12-31 18:00:09.437629264,(24 58 70 17 4 -15 -10 -15)
1969-12-31 18:00:09.437629264,(-53 -22 -29 -12 -16 -8 2 -10)
1969-12-31 18:00:09.438508827,(43 -9 -26 -15 -10 -1 10 18)
1969-12-31 18:00:09.438508827,(-53 -33 10 30 13 -25 -18 -19)
1969-12-31 18:00:09.449063580,(-21 -84 -52 -34 -19 8 0 5)
1969-12-31 18:00:09.449063580,(63 118 91 18 -8 0 -4 15)
1969-12-31 18:00:09.456979644,(-25 -65 -40 -1 49 51 26 8)
1969-12-31 18:00:09.456979644,(-22 1 -23 -12 -6 -43 -25 -42)
1969-12-31 18:00:09.470173085,(-34 -39 15 12 -7 17 -16 -41)
1969-12-31 18:00:09.470173085,(5 -21 -25 -32 -4 -22 -25 -52)
1969-12-31 18:00:09.471932211,(12 20 2 8 -5 -12 11 39)
1969-12-31 18:00:09.471932211,(-12 -74 -40 -9 22 22 -9 -32)
1969-12-31 18:00:09.489523465,(-32 127 91 7 -6 32 17 -4)
1969-12-31 18:00:09.489523465,(-39 -120 -100 -29 -23 -14 -6 -11)
1969-12-31 18:00:09.491282591,(28 -9 -1 14 25 20 -18 -49)
1969-12-31 18:00:09.491282591,(34 7 -8 -11 -4 -8 -13 1)
1969-12-31 18:00:09.509753408,(7 41 57 49 43 16 0 9)
1969-12-31 18:00:09.509753408,(-8 -47 -24 -10 -27 -26 -4 17)
1969-12-31 18:00:09.511512534,(56 127 83 5 -2 -1 35 75)
1969-12-31 18:00:09.511512534,(-2 23 -14 -3 -11 1 -8 -80)
1969-12-31 18:00:09.522946849,(33 -48 -24 -2 -17 -24 -17 -19)
1969-12-31 18:00:09.522946849,(-19 -10 -12 -9 -7 22 13 -9)
1969-12-31 18:00:09.524705975,(-67 -48 -27 -22 -1 -14 -26 -38)
1969-12-31 18:00:09.524705975,(2 -40 -3 0 -4 -3 16 17)
1969-12-31 18:00:09.543176792,(-40 32 25 43 40 42 7 -13)
1969-12-31 18:00:09.543176792,(-3 -12 -17 7 35 -18 7 -13)
1969-12-31 18:00:09.544056355,(27 10 -43 -32 -63 -30 -22 -9)
1969-12-31 18:00:09.544056355,(42 56 77 5 -36 -1 16 58)
1969-12-31 18:00:09.554611108,(-14 -128 -100 -26 -12 -30 -3 5)
1969-12-31 18:00:09.554611108,(15 82 71 24 11 -4 -34 -6)
1969-12-31 18:00:09.562527172,(-49 -51 -40 -6 -22 -6 -11 -36)
1969-12-31 18:00:09.562527172,(-23 -61 -65 -39 -5 -6 6 17)
1969-12-31 18:00:09.575720613,(-21 -12 -19 14 21 1 19 21)
1969-12-31 18:00:09.575720613,(45 -54 -74 -33 -22 -15 3 37)
1969-12-31 18:00:09.577479739,(-35 95 70 24 19 -15 -12 -70)
1969-12-31 18:00:09.577479739,(28 76 106 38 -5 44 8 6)
1969-12-31 18:00:09.602107495,(-36 -113 -95 -48 27 22 8 31)
1969-12-31 18:00:09.602107495,(-37 -77 -38 -36 -53 -19 -6 -32)
1969-12-31 18:00:09.603866621,(-4 1 -45 18 69 12 7 23)
1969-12-31 18:00:09.603866621,(21 36 24 -13 -38 -24 -2 23)
1969-12-31 18:00:09.607384872,(4 -20 -38 -22 -27 -20 -2 8)
1969-12-31 18:00:09.607384872,(0 78 26 12 25 60 25 -12)
1969-12-31 18:00:09.615300936,(20 -69 -21 11 22 11 -1 14)
1969-12-31 18:00:09.615300936,(4 -57 -4 11 12 5 9 -15)
1969-12-31 18:00:09.628494377,(23 114 48 15 -12 -32 -5 -3)
1969-12-31 18:00:09.628494377,(-37 -75 -52 -1 -13 -14 -31 -15)
1969-12-31 18:00:09.630253503,(43 -98 -97 -59 -50 4 22 16)
1969-12-31 18:00:09.630253503,(23 127 127 70 52 27 41 81)
1969-12-31 18:00:09.648724320,(-37 -96 -68 -31 -26 -41 -52 -78)
1969-12-31 18:00:09.648724320,(-22 -95 -37 12 54 5 8 -8)
1969-12-31 18:00:09.649603883,(-5 75 30 -15 -53 8 -11 6)
1969-12-31 18:00:09.649603883,(-78 -62 -59 -13 4 -19 -2 -26)
1969-12-31 18:00:09.660158635,(81 42 -18 -4 3 29 22 55)
1969-12-31 18:00:09.660158635,(12 -25 45 19 -1 -26 -7 7)
1969-12-31 18:00:09.668074700,(-20 16 19 29 68 9 8 14)
1969-12-31 18:00:09.668074700,(-16 -32 -45 -44 -66 -10 -34 -80)
1969-12-31 18:00:09.681268141,(-21 30 30 0 -16 -46 -6 -12)
1969-12-31 18:00:09.681268141,(42 18 -40 -14 15 42 5 3)
1969-12-31 18:00:09.683027266,(8 40 95 53 35 -4 16 38)
1969-12-31 18:00:09.683027266,(-20 4 -25 3 18 16 -22 -42)
1969-12-31 18:00:09.701498084,(54 -28 -14 -6 -19 -12 23 40)
1969-12-31 18:00:09.701498084,(-20 76 36 19 15 -5 -24 -55)
1969-12-31 18:00:09.702377647,(48 55 58 19 -10 -5 -1 22)
1969-12-31 18:00:09.702377647,(-57 -52 -10 25 29 18 14 -17)
1969-12-31 18:00:09.712932399,(13 -19 -11 -1 -1 -3 -39 -92)
1969-12-31 18:00:09.712932399,(-4 -64 -47 -18 -21 -28 0 26)
1969-12-31 18:00:09.720848464,(-29 -7 -23 -12 -1 8 -16 -26)
1969-12-31 18:00:09.720848464,(26 31 10 -15 -5 13 12 -3)
1969-12-31 18:00:09.734041905,(10 6 -1 3 -10 -16 13 44)
1969-12-31 18:00:09.734041905,(6 9 25 14 4 21 14 24)
1969-12-31 18:00:09.735801029,(-24 -77 -43 7 28 -13 -4 -36)
1969-12-31 18:00:09.735801029,(22 -58 -55 -53 -36 21 -13 23)
1969-12-31 18:00:09.754271848,(7 118 54 30 35 20 4 14)
1969-12-31 18:00:09.754271848,(24 2 17 14 0 0 9 42)
1969-12-31 18:00:09.755151410,(-7 -7 32 8 -9 -16 -13 0)
1969-12-31 18:00:09.755151410,(24 55 48 30 18 -4 3 -7)
1969-12-31 18:00:09.765706163,(-27 1 -28 -19 -6 23 7 -2)
1969-12-31 18:00:09.765706163,(74 119 110 43 27 -2 12 59)
1969-12-31 18:00:09.773622228,(-49 -114 -79 -23 -32 -10 -13 -30)
1969-12-31 18:00:09.773622228,(30 -5 -37 -27 -4 -15 -6 -9)
1969-12-31 18:00:09.786815669,(-42 -35 19 2 -8 -1 -6 -21)
1969-12-31 18:00:09.786815669,(48 -35 -38 -13 -6 -16 7 7)
1969-12-31 18:00:09.787695232,(34 21 3 -3 6 28 32 49)
1969-12-31 18:00:09.787695232,(-13 5 3 -10 -24 -16 -46 -31)
1969-12-31 18:00:09.806166049,(-26 -128 -83 -41 5 19 28 16)
1969-12-31 18:00:09.806166049,(6 81 15 35 16 5 0 -15)
1969-12-31 18:00:09.807925174,(-28 -17 -12 19 6 30 9 -7)
1969-12-31 18:00:09.807925174,(-3 -39 -36 -39 -36 -49 -8 -13)
1969-12-31 18:00:09.818479927,(-2 -49 -12 7 19 -14 -15 17)
1969-12-31 18:00:09.818479927,(-43 3 21 -19 -33 11 8 -8)
1969-12-31 18:00:09.826395992,(-7 -39 -84 -33 -16 -11 -17 -27)
1969-12-31 18:00:09.826395992,(57 77 91 59 38 -6 22 59)
1969-12-31 18:00:09.839589433,(3 -68 -39 -10 -14 17 8 21)
1969-12-31 18:00:09.839589433,(20 16 14 8 20 2 9 14)
1969-12-31 18:00:09.841348558,(-7 -25 4 -2 -11 6 -4 -9)
1969-12-31 18:00:09.841348558,(-20 4 -23 -14 14 3 -5 -10)
1969-12-31 18:00:09.859819376,(20 75 47 3 -7 -3 -2 -7)
1969-12-31 18:00:09.859819376,(-7 -45 -44 -35 -46 -25 -12 -5)
1969-12-31 18:00:09.861578501,(0 21 24 27 53 13 8 0)
1969-12-31 18:00:09.861578501,(-32 -82 -43 11 7 23 8 -9)
1969-12-31 18:00:09.871253691,(-37 36 41 31 11 -11 -11 -13)
1969-12-31 18:00:09.871253691,(-57 -120 -117 -65 -55 -38 -12 -29)
1969-12-31 18:00:09.879169756,(27 78 60 11 -20 1 -12 5)
1969-12-31 18:00:09.879169756,(74 63 8 16 23 3 18 25)
1969-12-31 18:00:09.892363197,(-46 -31 -5 0 -25 -7 -9 -15)
1969-12-31 18:00:09.892363197,(-6 -51 -27 -13 8 10 -4 7)
1969-12-31 18:00:09.894122322,(8 -10 -11 -16 -6 -6 8 -5)
1969-12-31 18:00:09.894122322,(-8 -24 -21 -9 -29 -46 -25 4)
1969-12-31 18:00:09.912593139,(30 41 30 4 -5 18 -5 13)
1969-12-31 18:00:09.912593139,(-8 -16 -15 -5 28 -12 4 -21)
1969-12-31 18:00:09.913472702,(7 -25 -19 -32 -40 44 19 15)
1969-12-31 18:00:09.913472702,(0 29 24 27 27 -13 20 3)
1969-12-31 18:00:09.924027455,(-7 14 -2 1 15 0 -3 -10)
1969-12-31 18:00:09.924027455,(-19 8 4 -14 -17 -31 -50 -26)
1969-12-31 18:00:09.938980021,(28 7 16 21 20 11 7 23)
1969-12-31 18:00:09.938980021,(-71 -48 -21 13 6 15 -25 -30)
1969-12-31 18:00:09.944257398,(16 26 3 1 -4 -10 10 -15)
1969-12-31 18:00:09.944257398,(-2 -8 15 23 27 24 0 -2)
1969-12-31 18:00:09.950414337,(-15 -6 -7 -25 -33 -35 18 -51)
1969-12-31 18:00:09.950414337,(-63 -47 -42 -43 -32 -11 -12 -34)
1969-12-31 18:00:09.964487341,(20 9 9 8 18 41 18 39)
1969-12-31 18:00:09.964487341,(-8 17 10 5 4 18 40 -18)
1969-12-31 18:00:09.966246466,(27 12 4 4 -4 -21 -8 65)
1969-12-31 18:00:09.966246466,(22 -26 -1 -1 0 2 -16 -2)
1969-12-31 18:00:09.976801219,(11 29 9 -2 -1 -8 16 -4)
1969-12-31 18:00:09.976801219,(6 4 -5 -1 -10 -10 -7 -12)
1969-12-31 18:00:09.984717283,(-1 -30 -22 -6 -1 16 9 40)
1969-12-31 18:00:09.984717283,(-28 13 9 5 14 3 11 -21)
1969-12-31 18:00:09.997031162,(28 2 10 3 -3 -7 -7 16)
1969-12-31 18:00:09.997031162,(-41 -10 0 4 3 4 -5 -20)
1969-12-31 18:00:10.003188101,(9 24 14 15 13 -5 1 12)
1969-12-31 18:00:10.003188101,(-67 -31 -20 -25 -31 -11 -18 -36)
1969-12-31 18:00:10.017261104,(-33 -12 -2 2 13 3 -11 -37)
1969-12-31 18:00:10.017261104,(20 -5 5 15 12 7 14 12)
1969-12-31 18:00:10.019020230,(-36 -23 -19 -12 -14 -17 -17 -37)
1969-12-31 18:00:10.019020230,(89 50 18 2 8 16 23 45)
1969-12-31 18:00:10.029574983,(-81 -32 -15 -13 -11 -5 -10 -12)
1969-12-31 18:00:10.029574983,(-11 -6 -6 0 1 -11 -15 -24)
1969-12-31 18:00:10.037491047,(57 21 -7 -13 -14 -14 -7 40)
1969-12-31 18:00:10.037491047,(-17 -18 -1 -3 2 6 -17 -10)
1969-12-31 18:00:10.049804926,(54 -8 1 0 -2 -14 -10 -32)
1969-12-31 18:00:10.049804926,(-10 38 9 5 0 -3 -13 -4)
1969-12-31 18:00:10.055961865,(12 -5 -23 -20 -11 -9 -3 -11)
1969-12-31 18:00:10.055961865,(-10 22 32 29 17 13 12 15)
1969-12-31 18:00:10.070034868,(-55 -18 -11 -13 -12 -17 -14 -42)
1969-12-31 18:00:10.070034868,(-3 -2 14 9 8 8 2 8)
1969-12-31 18:00:10.071793994,(27 -4 -7 -8 -4 2 -10 -15)
1969-12-31 18:00:10.071793994,(45 9 -12 -3 4 3 19 41)
1969-12-31 18:00:10.090264811,(9 0 2 -4 -5 -4 -3 9)
1969-12-31 18:00:10.090264811,(29 19 7 4 4 4 8 20)
1969-12-31 18:00:10.092023937,(-54 -6 7 6 3 -5 -11 -36)
1969-12-31 18:00:10.092023937,(35 2 -5 1 4 10 13 22)
1969-12-31 18:00:10.102578689,(-11 -4 0 -2 -5 -4 -5 -23)
1969-12-31 18:00:10.102578689,(29 22 -14 -14 -8 -7 -7 7)
1969-12-31 18:00:10.108735629,(-31 -16 8 10 5 0 0 -7)
1969-12-31 18:00:10.108735629,(28 8 7 4 3 6 9 14)
1969-12-31 18:00:10.122808632,(22 22 -1 -6 -3 -1 1 16)
1969-12-31 18:00:10.122808632,(-10 -19 -1 5 3 0 1 7)
1969-12-31 18:00:10.124567758,(-22 -24 -4 1 2 1 -9 -21)
1969-12-31 18:00:10.124567758,(25 33 5 -5 -4 -2 -2 -4)
1969-12-31 18:00:10.143038575,(-2 8 -7 -4 -2 -3 4 19)
1969-12-31 18:00:10.143038575,(-19 -28 -6 -1 0 0 -3 -2)
1969-12-31 18:00:10.144797701,(0 -3 2 -2 0 0 1 6)
1969-12-31 18:00:10.144797701,(-10 -15 -13 -11 -6 -4 -8 -13)
1969-12-31 18:00:10.155352453,(14 -11 -11 -5 -4 -3 3 15)
1969-12-31 18:00:10.155352453,(-6 21 17 10 3 0 0 4)
1969-12-31 18:00:10.161509392,(-3 11 6 2 0 1 -2 -6)
1969-12-31 18:00:10.161509392,(-8 -13 -5 -4 -2 0 -1 -4)
1969-12-31 18:00:10.175582396,(18 7 1 5 1 2 2 8)
1969-12-31 18:00:10.175582396,(15 16 8 0 -1 -1 2 6)
1969-12-31 18:00:10.177341522,(-18 -12 -7 -1 -2 -1 -3 -11)
1969-12-31 18:00:10.177341522,(0 -1 0 -4 -3 -2 -3 -8)
1969-12-31 18:00:10.196691902,(-12 -1 5 5 1 0 -1 -2)
1969-12-31 18:00:10.196691902,(20 -27 -27 -10 -3 1 1 5)
1969-12-31 18:00:10.198451027,(-13 24 21 5 0 -4 -2 -2)
1969-12-31 18:00:10.198451027,(3 8 0 2 0 0 -4 -1)
1969-12-31 18:00:10.208126217,(4 -6 -2 1 -1 3 3 5)
1969-12-31 18:00:10.208126217,(-8 7 -4 -1 0 0 -2 -6)
1969-12-31 18:00:10.216042282,(-8 -27 -17 -10 -5 -4 0 0)
1969-12-31 18:00:10.216042282,(-10 -19 -17 -8 -2 -5 -2 -3)
1969-12-31 18:00:10.228356160,(8 23 29 11 7 2 -10 1)
1969-12-31 18:00:10.228356160,(-17 -7 4 1 -1 3 4 4)
1969-12-31 18:00:10.230115286,(13 5 -11 -3 -5 -4 -4 3)
1969-12-31 18:00:10.230115286,(-9 -5 -1 2 2 2 1 -7)
1969-12-31 18:00:10.248586103,(5 -7 -9 -7 -5 -4 1 6)
1969-12-31 18:00:10.248586103,(-13 -3 -6 -2 -2 -1 -3 -8)
1969-12-31 18:00:10.250345228,(14 11 11 3 4 2 6 20)
1969-12-31 18:00:10.250345228,(-11 -20 -6 -6 -7 -7 -6 -4)
1969-12-31 18:00:10.260899981,(11 4 -12 -4 0 3 6 11)
1969-12-31 18:00:10.260899981,(8 6 6 3 0 -2 -7 -4)
1969-12-31 18:00:10.268816046,(-12 -26 -38 -12 -3 2 3 -4)
1969-12-31 18:00:10.268816046,(5 81 85 26 9 4 5 2)
1969-12-31 18:00:10.281129924,(-7 -27 -17 -7 -7 -4 -6 -6)
1969-12-31 18:00:10.281129924,(4 29 19 2 1 -4 -7 -10)
1969-12-31 18:00:10.282889049,(-15 -17 -5 -1 -2 -3 -10 -12)
1969-12-31 18:00:10.282889049,(-8 -36 -30 -9 -1 3 3 -3)
1969-12-31 18:00:10.308396369,(7 24 10 1 0 -2 -5 -3)
1969-12-31 18:00:10.308396369,(3 -12 0 2 4 6 6 4)
1969-12-31 18:00:10.309275931,(-1 -4 -4 -6 -5 -4 -4 3)
1969-12-31 18:00:10.309275931,(4 -2 -4 0 0 0 -2 2)
1969-12-31 18:00:10.313673745,(-3 2 2 1 2 0 5 1)
1969-12-31 18:00:10.313673745,(-4 -13 -15 -8 -6 -7 -8 -2)
1969-12-31 18:00:10.326867186,(2 10 8 5 5 3 0 0)
1969-12-31 18:00:10.326867186,(-6 -5 -3 -4 -2 -2 -3 -1)
1969-12-31 18:00:10.340940190,(-2 -8 -8 -3 -3 -2 -3 0)
1969-12-31 18:00:10.340940190,(2 -8 -2 -2 2 4 11 8)
1969-12-31 18:00:10.347976692,(-5 12 12 2 -1 -5 -12 -12)
1969-12-31 18:00:10.347976692,(1 -4 -10 -1 1 1 2 0)
1969-12-31 18:00:10.354133631,(0 7 11 3 0 2 8 4)
1969-12-31 18:00:10.354133631,(-3 -23 -12 -5 -3 0 1 4)
1969-12-31 18:00:10.355013193,(3 20 13 5 0 -2 -6 -10)
1969-12-31 18:00:10.355013193,(-5 -19 -18 -5 -4 -5 -7 -2)
1969-12-31 18:00:10.366447509,(5 -1 -7 -5 0 4 5 5)
1969-12-31 18:00:10.366447509,(-1 11 14 8 0 -3 -4 -3)
1969-12-31 18:00:10.374363574,(-1 -18 -9 -3 -1 2 2 3)
1969-12-31 18:00:10.374363574,(-3 0 -3 -7 -6 -4 -6 -5)
1969-12-31 18:00:10.386677452,(-3 2 8 4 1 -2 -1 -2)
1969-12-31 18:00:10.386677452,(0 -1 -15 -6 -2 2 2 4)
1969-12-31 18:00:10.388436577,(0 4 3 5 0 -1 3 -1)
1969-12-31 18:00:10.388436577,(0 -7 -4 0 0 2 1 -3)
1969-12-31 18:00:10.406907395,(2 13 12 1 -1 0 2 0)
1969-12-31 18:00:10.406907395,(-1 -8 -9 -2 0 -4 -6 -7)
1969-12-31 18:00:10.407786957,(-6 -15 -7 -5 -3 2 5 3)
1969-12-31 18:00:10.407786957,(-3 -1 0 -2 -4 -2 1 2)
1969-12-31 18:00:10.419221273,(-8 -33 -29 -9 -5 -7 -7 -3)
1969-12-31 18:00:10.419221273,(0 -2 25 4 2 2 1 0)
1969-12-31 18:00:10.427137337,(10 85 50 17 7 4 2 -1)
1969-12-31 18:00:10.427137337,(-1 -14 -11 -4 -1 -2 -2 1)
1969-12-31 18:00:10.439451216,(0 -7 3 2 2 -3 -5 0)
1969-12-31 18:00:10.439451216,(-6 -6 -1 1 -8 -1 -3 -10)
1969-12-31 18:00:10.441210341,(-7 -32 -18 -10 -9 -4 -3 -3)
1969-12-31 18:00:10.441210341,(-3 -4 -11 -11 20 -12 -4 -2)
1969-12-31 18:00:10.459681159,(-1 9 8 8 -23 11 4 6)
1969-12-31 18:00:10.459681159,(13 13 -1 9 31 9 8 14)
1969-12-31 18:00:10.460560721,(-17 -31 -16 -8 8 12 -1 -11)
1969-12-31 18:00:10.460560721,(-2 1 -5 2 -11 5 -1 0)
1969-12-31 18:00:10.471995037,(9 6 -2 -18 -6 -13 0 4)
1969-12-31 18:00:10.471995037,(-28 -15 0 8 13 2 -20 -29)
1969-12-31 18:00:10.479911101,(12 -5 -14 -1 2 -1 4 4)
1969-12-31 18:00:10.479911101,(2 1 10 3 0 2 15 19)
1969-12-31 18:00:10.493104541,(1 21 14 2 1 -7 -16 -12)
1969-12-31 18:00:10.493104541,(-7 -22 -18 -3 -16 2 15 12)
1969-12-31 18:00:10.493984105,(16 25 16 4 16 1 -4 4)
1969-12-31 18:00:10.493984105,(-20 -25 -19 -3 -10 -4 -2 -16)
1969-12-31 18:00:10.512454922,(14 12 10 6 12 10 15 20)
1969-12-31 18:00:10.512454922,(8 14 0 -3 -17 0 -2 2)
1969-12-31 18:00:10.513334485,(1 -17 -8 -4 -4 -6 -2 0)
1969-12-31 18:00:10.514214048,(2 11 8 0 -2 0 -4 0)
1969-12-31 18:00:10.524768801,(-2 3 0 0 4 -2 -1 -3)
1969-12-31 18:00:10.524768801,(-6 2 -6 -14 -25 -12 -10 -11)
1969-12-31 18:00:10.532684865,(-5 -9 -8 -4 2 2 6 5)
1969-12-31 18:00:10.532684865,(2 10 7 14 5 5 -7 -10)
1969-12-31 18:00:10.546757869,(-10 -10 -7 3 0 -3 -4 -7)
1969-12-31 18:00:10.546757869,(1 1 0 -2 3 -2 3 2)
1969-12-31 18:00:10.551155683,(-3 -12 -6 -9 -17 -6 -1 2)
1969-12-31 18:00:10.551155683,(10 43 29 5 12 9 3 -1)
1969-12-31 18:00:10.565228686,(5 -6 -8 -1 -10 4 2 4)
1969-12-31 18:00:10.565228686,(-14 -11 -4 -6 -4 -5 -1 -12)
1969-12-31 18:00:10.566987812,(-12 -11 -4 -5 -8 -10 -7 -7)
1969-12-31 18:00:10.566987812,(-1 -9 -5 -3 -1 3 -1 1)
1969-12-31 18:00:10.585458629,(-1 -5 -9 -6 0 -3 1 -3)
1969-12-31 18:00:10.585458629,(8 15 10 3 7 3 0 5)
1969-12-31 18:00:10.586338192,(-4 -9 -8 -6 -7 -8 -3 -4)
1969-12-31 18:00:10.586338192,(-2 -11 -10 -1 -7 2 -5 -1)
1969-12-31 18:00:10.598652070,(3 12 11 7 5 4 -2 -6)
1969-12-31 18:00:10.598652070,(-3 -7 -8 -3 3 -6 -4 1)
1969-12-31 18:00:10.599531633,(-2 1 -1 -1 -2 -1 -1 -1)
1969-12-31 18:00:10.599531633,(15 9 2 -4 -6 -11 -2 9)
1969-12-31 18:00:10.618002450,(-15 -13 -4 12 15 14 -1 -8)
1969-12-31 18:00:10.618002450,(-3 -3 -4 -2 -3 -2 -2 -1)
1969-12-31 18:00:10.619761576,(-2 2 5 1 -6 -4 -1 -3)
1969-12-31 18:00:10.619761576,(-2 -4 -2 -4 -4 0 1 2)
1969-12-31 18:00:10.630316328,(0 -6 -10 -7 -5 -6 0 2)
1969-12-31 18:00:10.630316328,(4 3 3 1 -2 -1 1 4)
1969-12-31 18:00:10.638232393,(6 5 3 3 0 6 2 5)
1969-12-31 18:00:10.638232393,(-12 -14 -9 -4 -1 1 -5 -13)
1969-12-31 18:00:10.650546271,(-6 -5 1 -1 1 -5 -3 -5)
1969-12-31 18:00:10.650546271,(7 5 4 -1 -1 1 4 6)
1969-12-31 18:00:10.650546271,(-5 -14 -13 -9 -4 -4 -6 -4)
1969-12-31 18:00:10.650546271,(3 7 0 1 0 -1 -2 -1)
1969-12-31 18:00:10.669896651,(2 21 15 -2 -2 -3 -3 -2)
1969-12-31 18:00:10.669896651,(2 2 5 4 1 0 -1 2)
1969-12-31 18:00:10.670776214,(0 3 2 0 -4 -2 -2 0)
1969-12-31 18:00:10.670776214,(-7 -15 -6 -3 -2 -1 5 3)
1969-12-31 18:00:10.697163096,(-8 -8 -13 -6 -6 -8 -13 -15)
1969-12-31 18:00:10.697163096,(3 6 2 -3 -1 -4 -5 0)
1969-12-31 18:00:10.698042659,(6 8 7 6 4 5 3 4)
1969-12-31 18:00:10.698042659,(-7 -10 -8 -10 -8 -3 -2 -2)
1969-12-31 18:00:10.703320035,(5 8 1 -1 1 2 9 8)
1969-12-31 18:00:10.703320035,(-3 -9 6 10 3 3 2 1)
1969-12-31 18:00:10.703320035,(2 2 -12 4 2 -1 -1 -5)
1969-12-31 18:00:10.703320035,(5 7 13 4 3 1 0 1)
1969-12-31 18:00:10.722670415,(-10 -22 -19 -9 -5 -4 0 0)
1969-12-31 18:00:10.722670415,(0 15 3 -9 -3 -4 -7 -6)
1969-12-31 18:00:10.723549978,(4 8 0 7 5 4 4 5)
1969-12-31 18:00:10.723549978,(-3 -9 6 2 -2 -3 -4 -3)
1969-12-31 18:00:10.742900358,(-1 -35 -6 -4 -1 -4 -5 -1)
1969-12-31 18:00:10.742900358,(1 33 8 -7 -3 0 -1 0)
1969-12-31 18:00:10.742900358,(-4 -4 5 4 0 -2 -4 -7)
1969-12-31 18:00:10.743779921,(13 39 6 0 -2 -3 -2 -3)
1969-12-31 18:00:10.756973362,(-22 -46 -26 -8 -5 -3 -1 -3)
1969-12-31 18:00:10.756973362,(8 -11 -12 -6 -2 -1 -3 0)
1969-12-31 18:00:10.757852925,(-14 0 1 -6 -3 -1 -2 -5)
1969-12-31 18:00:10.757852925,(1 -13 -9 -5 -4 -1 -3 -4)
1969-12-31 18:00:10.775444179,(-5 7 11 4 1 0 -2 -3)
1969-12-31 18:00:10.775444179,(0 -7 -1 1 -2 -1 0 -1)
1969-12-31 18:00:10.776323742,(-8 0 0 -7 -6 -3 -3 -2)
1969-12-31 18:00:10.776323742,(-5 -5 -5 2 2 2 2 4)
1969-12-31 18:00:10.795674122,(8 19 7 4 1 -3 -2 0)
1969-12-31 18:00:10.795674122,(-5 -9 -5 0 -3 -2 0 -1)
1969-12-31 18:00:10.796553685,(0 0 3 1 0 -1 -1 0)
1969-12-31 18:00:10.796553685,(-7 -9 -6 -3 -3 -3 -3 -4)
1969-12-31 18:00:10.808867563,(5 6 -3 -5 -3 1 0 1)
1969-12-31 18:00:10.808867563,(-1 3 6 8 6 2 1 2)
1969-12-31 18:00:10.809747126,(3 -7 -6 0 -2 -1 2 3)
1969-12-31 18:00:10.809747126,(-4 -17 -9 -2 -2 -4 -2 -3)
1969-12-31 18:00:10.828217943,(9 34 15 3 3 3 3 4)
1969-12-31 18:00:10.828217943,(2 -2 -4 3 2 -1 -1 -2)
1969-12-31 18:00:10.829097506,(-3 -8 -4 -3 -1 -1 -2 -1)
1969-12-31 18:00:10.829097506,(0 1 3 2 -1 0 -1 2)
1969-12-31 18:00:10.848447886,(-4 -5 -7 -5 -4 -4 -4 -8)
1969-12-31 18:00:10.848447886,(-7 -12 -5 -3 0 0 -1 0)
1969-12-31 18:00:10.848447886,(1 0 4 0 -1 0 -1 -2)
1969-12-31 18:00:10.848447886,(-1 1 -1 -1 0 -1 1 0)
1969-12-31 18:00:10.861641327,(3 7 2 4 1 0 1 2)
1969-12-31 18:00:10.862520890,(-2 -4 -2 -2 -3 -1 -1 -1)
1969-12-31 18:00:10.862520890,(1 -1 -3 0 -2 -2 -2 -1)
1969-12-31 18:00:10.862520890,(2 1 0 1 0 0 1 2)
1969-12-31 18:00:10.880991707,(-2 1 0 0 -3 -1 -2 -1)
1969-12-31 18:00:10.880991707,(0 -3 -2 0 2 1 1 -3)
1969-12-31 18:00:10.881871270,(0 -3 -3 -4 -4 0 -1 -1)
1969-12-31 18:00:10.881871270,(-1 0 -2 -1 1 1 1 1)
1969-12-31 18:00:10.901221650,(1 0 2 1 -1 -1 -1 0)
1969-12-31 18:00:10.901221650,(-2 -5 -7 -3 -4 -3 -3 -2)
1969-12-31 18:00:10.901221650,(-1 0 1 0 -2 -2 -2 -1)
1969-12-31 18:00:10.901221650,(-2 -1 -1 -1 -2 0 -1 -1)
1969-12-31 18:00:10.914415091,(1 0 2 1 0 1 0 1)
1969-12-31 18:00:10.914415091,(-1 -1 -3 -3 -2 -1 -2 -1)
1969-12-31 18:00:10.914415091,(-1 -1 0 0 2 0 -1 -2)
1969-12-31 18:00:10.914415091,(0 1 0 -2 0 -2 -1 -2)
1969-12-31 18:00:10.933765471,(1 1 -1 -1 1 -1 -1 -1)
1969-12-31 18:00:10.933765471,(-1 -3 -3 -3 -3 -2 -1 -1)
1969-12-31 18:00:10.934645034,(2 3 4 2 2 -1 1 3)
1969-12-31 18:00:10.934645034,(-3 -2 -3 -2 -2 -3 -5 -5)
1969-12-31 18:00:10.953995414,(2 -1 0 -1 1 0 1 1)
1969-12-31 18:00:10.953995414,(1 1 -1 -3 -3 -1 -1 0)
1969-12-31 18:00:10.953995414,(-3 -2 0 0 2 -1 -2 -2)
1969-12-31 18:00:10.953995414,(-1 -2 0 1 -1 -2 -2 -2)
1969-12-31 18:00:10.967188855,(-2 -3 -5 -2 -2 0 -2 -2)
1969-12-31 18:00:10.967188855,(0 0 0 -1 -1 0 1 -1)
1969-12-31 18:00:10.967188855,(2 3 2 1 -2 0 1 1)
1969-12-31 18:00:10.967188855,(2 3 7 2 2 1 0 0)
1969-12-31 18:00:10.986539235,(-3 -2 -4 -3 -3 -2 -1 -1)
1969-12-31 18:00:10.986539235,(0 1 -2 2 0 0 -1 1)
1969-12-31 18:00:10.987418798,(-1 -1 -1 -2 -3 0 -3 -2)
1969-12-31 18:00:10.987418798,(-1 -2 -3 -1 -1 -1 -1 -1)
1969-12-31 18:00:11.006769178,(0 -1 -2 -3 -2 0 0 0)
1969-12-31 18:00:11.006769178,(0 1 1 0 2 -2 0 0)
1969-12-31 18:00:11.007648739,(-3 -4 -4 -3 -2 -2 -1 -2)
1969-12-31 18:00:11.007648739,(-1 -2 -2 -1 -2 -1 2 0)
1969-12-31 18:00:11.019962619,(0 0 1 1 -1 0 -2 -1)
1969-12-31 18:00:11.019962619,(0 -2 -2 0 -2 -1 0 0)
1969-12-31 18:00:11.019962619,(-1 -1 -2 -3 0 -1 -3 -2)
1969-12-31 18:00:11.019962619,(-2 -2 -5 -6 -6 -2 -1 -2)
1969-12-31 18:00:11.039312999,(0 1 0 2 1 0 0 -1)
1969-12-31 18:00:11.039312999,(-4 -2 0 0 -2 1 -3 -3)
1969-12-31 18:00:11.040192561,(0 -2 -2 0 0 0 -1 -2)
1969-12-31 18:00:11.040192561,(0 0 -1 -1 0 -1 0 0)
1969-12-31 18:00:11.059542942,(0 -1 0 -2 -1 -1 0 -1)
1969-12-31 18:00:11.059542942,(0 -2 -1 -2 -1 -1 -1 -2)
1969-12-31 18:00:11.059542942,(0 -2 0 -2 -1 -2 1 -1)
1969-12-31 18:00:11.059542942,(1 1 2 2 0 -1 -1 -1)
1969-12-31 18:00:11.073615945,(-2 -2 1 -1 -1 0 -1 -1)
1969-12-31 18:00:11.073615945,(-3 -1 -3 -3 -1 -3 -2 -1)
1969-12-31 18:00:11.074495508,(-1 -3 -2 0 -1 -2 0 0)
1969-12-31 18:00:11.074495508,(-1 -2 -1 -2 -2 1 -1 0)
1969-12-31 18:00:11.092086763,(0 1 3 0 -2 0 -1 2)
1969-12-31 18:00:11.092086763,(-1 -1 -1 -1 -2 -2 -1 0)
1969-12-31 18:00:11.092966325,(-2 -3 -3 -1 -1 -2 -2 -2)
1969-12-31 18:00:11.092966325,(1 -1 2 0 2 1 0 0)
1969-12-31 18:00:11.111437143,(0 0 -2 0 0 -2 -1 -1)
1969-12-31 18:00:11.111437143,(-4 -4 0 -4 -2 -1 0 -2)
1969-12-31 18:00:11.118473645,(-2 -1 -2 2 1 0 0 -1)
1969-12-31 18:00:11.118473645,(-2 -1 -4 -5 -2 -2 -2 -1)
1969-12-31 18:00:11.125510146,(-1 -1 1 0 1 0 -2 -1)
1969-12-31 18:00:11.125510146,(-1 0 -2 -2 -2 -2 -1 0)
1969-12-31 18:00:11.126389709,(1 3 7 3 2 -1 1 2)
1969-12-31 18:00:11.126389709,(-3 -1 -2 0 0 1 -3 -1)
1969-12-31 18:00:11.144860526,(-1 -2 -2 -3 -3 -2 -1 -1)
1969-12-31 18:00:11.144860526,(-2 -3 -4 -1 2 0 -2 -2)
1969-12-31 18:00:11.145740089,(-1 -2 -2 -6 -3 -1 1 -1)
1969-12-31 18:00:11.145740089,(0 1 -2 -1 -2 0 -2 1)
1969-12-31 18:00:11.165090469,(0 0 1 -3 -1 -1 -1 0)
1969-12-31 18:00:11.165090469,(-1 -1 -1 -4 -4 -3 -1 -2)
1969-12-31 18:00:11.165970032,(0 -1 -1 1 -2 -1 0 0)
1969-12-31 18:00:11.165970032,(1 0 0 0 0 -2 0 0)
1969-12-31 18:00:11.178283910,(-1 -2 -1 -1 -1 0 -1 0)
1969-12-31 18:00:11.178283910,(-5 -5 -3 -1 1 -2 -2 -6)
1969-12-31 18:00:11.178283910,(-8 -7 -6 -4 -2 -1 -4 -5)
1969-12-31 18:00:11.179163473,(-1 0 -1 0 -2 -2 0 0)
1969-12-31 18:00:11.197634290,(2 2 -1 0 0 0 0 0)
1969-12-31 18:00:11.197634290,(3 3 1 2 0 1 -1 0)
1969-12-31 18:00:11.198513853,(1 0 2 1 1 0 0 1)
1969-12-31 18:00:11.198513853,(-2 -2 -2 1 0 -2 -1 0)
1969-12-31 18:00:11.224900735,(-1 -1 1 1 1 -1 0 0)
1969-12-31 18:00:11.224900735,(2 0 0 2 0 1 1 0)
1969-12-31 18:00:11.225780298,(1 0 -2 0 -1 0 -2 0)
1969-12-31 18:00:11.225780298,(-2 -1 -2 -2 -1 -2 -2 -2)
1969-12-31 18:00:11.231057674,(-2 0 -1 0 -2 1 -2 -3)
1969-12-31 18:00:11.231057674,(0 -2 -1 1 -1 -2 0 -1)
1969-12-31 18:00:11.231057674,(-1 0 -3 -3 0 -1 -1 -1)
1969-12-31 18:00:11.231057674,(0 0 -1 -3 -1 -1 -1 -1)
1969-12-31 18:00:11.231057674,(-3 -2 -7 -11 -10 -5 -3 -3)
1969-12-31 18:00:11.231057674,(-2 -1 2 5 4 0 0 -1)
1969-12-31 18:00:11.245130678,(-2 -2 -4 -2 0 0 -1 -2)
1969-12-31 18:00:11.245130678,(0 1 4 1 0 -1 -1 -1)
1969-12-31 18:00:11.246889803,(-2 0 -2 -2 0 -1 -2 -1)
1969-12-31 18:00:11.246889803,(-2 -2 -1 -1 -2 -1 -1 0)
1969-12-31 18:00:11.265360621,(-3 -3 -7 -3 -2 -2 -2 -3)
1969-12-31 18:00:11.265360621,(-1 -1 1 0 -1 -1 0 1)
1969-12-31 18:00:11.267119746,(0 -4 -3 -2 -1 -3 -2 -2)
1969-12-31 18:00:11.267119746,(0 -1 -3 -4 -1 0 0 1)
1969-12-31 18:00:11.277674499,(-4 -8 -6 -7 -4 -3 -4 -4)
1969-12-31 18:00:11.277674499,(2 4 -11 -2 3 2 1 -1)
1969-12-31 18:00:11.283831438,(-2 0 2 4 1 -1 -2 -2)
1969-12-31 18:00:11.283831438,(1 0 -7 -1 0 -2 -2 0)
1969-12-31 18:00:11.297904442,(-3 -10 -5 -2 -3 -1 -1 1)
1969-12-31 18:00:11.297904442,(2 10 17 10 5 2 1 0)
1969-12-31 18:00:11.299663567,(-1 -2 -5 -3 -5 -2 -2 1)
1969-12-31 18:00:11.299663567,(-2 0 1 -2 -2 0 -2 -2)
1969-12-31 18:00:11.318134385,(-3 -3 -6 -3 -2 -2 -2 -2)
1969-12-31 18:00:11.318134385,(-1 -7 -2 -4 -1 -1 0 -2)
1969-12-31 18:00:11.319893510,(0 -1 -2 1 2 0 0 -4)
1969-12-31 18:00:11.319893510,(-1 0 3 -1 -1 -1 -1 -2)
1969-12-31 18:00:11.338364327,(-1 3 0 0 0 -2 1 0)
1969-12-31 18:00:11.338364327,(-3 -6 -1 -1 -2 -2 -2 -1)
1969-12-31 18:00:11.340123453,(-4 -18 -1 -1 0 0 1 1)
1969-12-31 18:00:11.340123453,(5 29 30 15 9 4 0 1)
1969-12-31 18:00:11.350678206,(-2 -1 1 -7 -4 -1 0 -2)
1969-12-31 18:00:11.350678206,(-4 11 7 8 4 0 -2 -3)
1969-12-31 18:00:11.352437331,(-5 -18 -8 -3 -7 -3 -2 -2)
1969-12-31 18:00:11.352437331,(4 14 13 -8 -3 -2 -1 0)
1969-12-31 18:00:11.377944650,(-5 -8 -5 1 -1 1 0 -2)
1969-12-31 18:00:11.377944650,(-2 -21 -14 -11 -2 -1 -1 0)
1969-12-31 18:00:11.379703776,(11 45 48 29 9 5 3 4)
1969-12-31 18:00:11.379703776,(-8 -21 -21 -17 -9 -4 -1 -2)
1969-12-31 18:00:11.383222027,(2 13 1 -4 2 -1 -1 1)
1969-12-31 18:00:11.383222027,(-5 -17 -3 6 -4 -3 -3 -1)
1969-12-31 18:00:11.391138091,(4 3 -32 -7 1 1 2 2)
1969-12-31 18:00:11.391138091,(-6 -18 -3 -32 -4 -1 -1 -1)
1969-12-31 18:00:11.404331532,(-9 -32 -3 11 -8 -5 -5 -4)
1969-12-31 18:00:11.404331532,(7 18 39 45 14 6 3 3)
1969-12-31 18:00:11.405211095,(-1 22 0 -14 -6 -4 -2 -4)
1969-12-31 18:00:11.405211095,(0 -2 -22 -24 -9 -6 -3 -4)
1969-12-31 18:00:11.423681912,(-18 -56 -79 -63 -16 -5 -5 -4)
1969-12-31 18:00:11.423681912,(18 43 30 21 4 0 2 5)
1969-12-31 18:00:11.425441038,(19 40 15 46 18 9 5 6)
1969-12-31 18:00:11.425441038,(-25 -61 -15 -8 -5 -1 0 -3)
1969-12-31 18:00:11.435995791,(2 46 12 18 14 3 0 0)
1969-12-31 18:00:11.435995791,(6 -18 -14 -24 -18 -9 -7 -5)
1969-12-31 18:00:11.443911855,(-16 -38 -79 -67 -17 -6 -3 -6)
1969-12-31 18:00:11.443911855,(22 28 6 15 -2 -2 1 5)
1969-12-31 18:00:11.457105296,(0 -4 -37 -34 1 3 3 0)
1969-12-31 18:00:11.457105296,(-36 -52 -3 38 5 1 -1 -4)
1969-12-31 18:00:11.457984859,(15 25 40 27 12 6 5 6)
1969-12-31 18:00:11.457984859,(-23 -63 -8 -26 -11 -3 -4 -7)
1969-12-31 18:00:11.477335239,(20 79 103 50 4 -1 1 2)
1969-12-31 18:00:11.477335239,(9 12 -42 -34 -3 -1 -2 0)
1969-12-31 18:00:11.478214802,(5 24 58 45 9 3 -1 1)
1969-12-31 18:00:11.478214802,(-2 15 -31 18 10 3 2 1)
1969-12-31 18:00:11.488769555,(13 16 59 26 1 3 3 7)
1969-12-31 18:00:11.488769555,(-15 -17 0 -67 -21 -8 -6 -8)
1969-12-31 18:00:11.496685619,(-17 -27 33 37 4 -3 -5 -6)
1969-12-31 18:00:11.496685619,(22 55 -27 -12 1 0 -1 3)
1969-12-31 18:00:11.509879060,(3 -12 -14 -2 -4 -3 -2 -3)
1969-12-31 18:00:11.509879060,(2 -3 -8 -2 -1 -1 2 2)
1969-12-31 18:00:11.510758623,(-1 -19 -18 -28 -8 -5 -3 -2)
1969-12-31 18:00:11.510758623,(-2 13 23 14 1 -1 1 3)
1969-12-31 18:00:11.529229440,(-59 -75 -51 -26 -12 -9 -9 -15)
1969-12-31 18:00:11.529229440,(34 57 47 42 21 10 7 10)
1969-12-31 18:00:11.530988566,(1 -8 -10 -16 -6 -3 -3 -1)
1969-12-31 18:00:11.530988566,(16 11 3 17 2 -1 -1 1)
1969-12-31 18:00:11.549459382,(8 9 3 -6 1 2 3 4)
1969-12-31 18:00:11.549459382,(-2 -3 -18 -12 -4 -2 -1 -2)
1969-12-31 18:00:11.550338945,(-15 -24 -17 -17 -7 -4 -3 -5)
1969-12-31 18:00:11.550338945,(15 21 19 8 0 0 0 2)
1969-12-31 18:00:11.567930200,(2 -5 -6 6 3 0 0 0)
1969-12-31 18:00:11.567930200,(5 -2 -11 -7 -4 -2 -1 -1)
1969-12-31 18:00:11.575846265,(0 3 -6 -9 -4 -1 -3 1)
1969-12-31 18:00:11.575846265,(-19 -19 -3 -1 0 -4 -5 -9)
1969-12-31 18:00:11.582003204,(31 21 2 7 4 13 35 19)
1969-12-31 18:00:11.582003204,(-26 -16 -8 -2 -6 -15 -38 -21)
1969-12-31 18:00:11.583762330,(6 -8 -17 -15 -4 0 8 3)
1969-12-31 18:00:11.583762330,(-63 -45 -4 2 -4 -17 23 -5)
1969-12-31 18:00:11.594317082,(8 21 7 10 2 10 -31 -5)
1969-12-31 18:00:11.594317082,(-6 3 -8 -9 0 17 38 24)
1969-12-31 18:00:11.608390086,(0 -17 -14 -10 -4 -7 -12 -11)
1969-12-31 18:00:11.608390086,(-11 -17 -2 1 1 -5 -28 -18)
1969-12-31 18:00:11.615426588,(-6 -7 -1 4 3 16 12 3)
1969-12-31 18:00:11.615426588,(-11 -9 -1 -7 -13 -65 -21 -10)
1969-12-31 18:00:11.616306151,(23 32 16 8 17 64 43 22)
1969-12-31 18:00:11.616306151,(28 13 -3 2 1 10 18 12)
1969-12-31 18:00:11.648849972,(-5 -6 0 -3 -9 -27 -27 -4)
1969-12-31 18:00:11.648849972,(-8 -13 -7 -3 0 -2 -18 -27)
1969-12-31 18:00:11.649729534,(20 7 -2 -1 -2 4 21 42)
1969-12-31 18:00:11.649729534,(3 -7 5 2 2 30 19 -3)
1969-12-31 18:00:11.650609097,(43 32 10 5 5 -14 -1 10)
1969-12-31 18:00:11.650609097,(-24 -2 1 -5 -3 -7 -27 4)
1969-12-31 18:00:11.661163850,(-66 -60 -24 -9 -7 -34 -4 -40)
1969-12-31 18:00:11.662043413,(21 23 16 7 -1 -5 -45 -14)
1969-12-31 18:00:11.668200352,(-6 -30 -21 -10 -10 -3 -27 -23)
1969-12-31 18:00:11.668200352,(21 19 5 -1 3 21 33 22)
1969-12-31 18:00:11.669079915,(-19 -6 -1 -2 -4 2 -13 -17)
1969-12-31 18:00:11.669079915,(-38 25 13 7 3 30 85 -18)
1969-12-31 18:00:11.687550732,(68 -14 -10 1 -1 -18 6 76)
1969-12-31 18:00:11.687550732,(-41 -40 -18 -8 14 33 30 -18)
1969-12-31 18:00:11.689309857,(41 21 -4 -6 -5 4 -31 -8)
1969-12-31 18:00:11.689309857,(-30 -8 -6 -1 -6 -46 -50 -22)
1969-12-31 18:00:11.699864610,(10 26 18 8 2 8 38 26)
1969-12-31 18:00:11.699864610,(18 15 3 0 -4 5 30 -7)
1969-12-31 18:00:11.707780675,(4 -18 -21 -15 -11 -21 16 23)
1969-12-31 18:00:11.707780675,(6 18 18 11 6 -4 -42 -7)
1969-12-31 18:00:11.720974116,(-20 -12 -7 -3 1 -8 30 -4)
1969-12-31 18:00:11.720974116,(-18 -18 -12 -6 -8 -2 -33 -22)
1969-12-31 18:00:11.721853678,(-9 2 10 2 0 13 12 4)
1969-12-31 18:00:11.721853678,(33 7 4 7 1 -27 -61 -9)
1969-12-31 18:00:11.740324496,(-9 8 2 -1 4 15 5 7)
1969-12-31 18:00:11.740324496,(33 5 3 10 12 24 0 2)
1969-12-31 18:00:11.742083620,(-16 1 1 -1 -5 -18 -4 -5)
1969-12-31 18:00:11.742083620,(-28 -19 -15 -13 -11 -7 -18 -26)
1969-12-31 18:00:11.752638374,(17 -32 -11 1 15 33 46 32)
1969-12-31 18:00:11.752638374,(6 27 8 2 -3 -28 -36 -13)
1969-12-31 18:00:11.760554439,(-62 -3 4 0 -2 -14 -36 -64)
1969-12-31 18:00:11.760554439,(29 8 -1 -2 2 11 31 39)
1969-12-31 18:00:11.773747880,(-49 11 11 1 -7 -37 -24 -44)
1969-12-31 18:00:11.773747880,(29 -16 -14 -2 4 48 30 42)
1969-12-31 18:00:11.774627442,(24 15 8 2 1 -37 -50 -4)
1969-12-31 18:00:11.774627442,(-28 -30 -13 -3 -1 7 11 -15)
1969-12-31 18:00:11.793098260,(0 13 5 -1 0 -14 -30 -12)
1969-12-31 18:00:11.793098260,(35 20 6 -2 2 35 39 42)
1969-12-31 18:00:11.794857385,(-13 5 6 8 -12 -6 5 26)
1969-12-31 18:00:11.794857385,(20 14 10 9 12 15 28 13)
1969-12-31 18:00:11.805412138,(-24 -25 -19 -7 -10 -6 -34 -21)
1969-12-31 18:00:11.805412138,(38 -20 0 -1 -3 -23 35 79)
1969-12-31 18:00:11.813328203,(52 43 -7 -6 3 26 -6 -34)
1969-12-31 18:00:11.813328203,(92 23 4 -3 -5 -6 13 54)
1969-12-31 18:00:11.826521644,(-80 -48 -19 -11 -10 -11 -41 -30)
1969-12-31 18:00:11.826521644,(-39 17 14 8 0 -35 -28 -29)
1969-12-31 18:00:11.827401206,(6 -1 7 4 7 20 14 6)
1969-12-31 18:00:11.827401206,(-47 -43 -19 -5 -4 4 -9 -10)
1969-12-31 18:00:11.846751586,(-16 18 17 12 12 18 43 -29)
1969-12-31 18:00:11.846751586,(66 25 -7 -13 -15 -23 -55 1)
1969-12-31 18:00:11.851149400,(-35 -36 -15 -8 -6 -19 -4 13)
1969-12-31 18:00:11.851149400,(-20 33 13 5 7 34 -2 -39)
1969-12-31 18:00:11.866101966,(7 -13 3 3 -1 5 17 -7)
1969-12-31 18:00:11.866101966,(-15 2 3 6 3 0 -7 -29)
1969-12-31 18:00:11.866981529,(-6 4 3 2 2 -11 -33 -45)
1969-12-31 18:00:11.866981529,(0 -19 -12 -6 -5 -37 -8 19)
1969-12-31 18:00:11.878415845,(-39 6 6 3 4 24 -20 -57)
1969-12-31 18:00:11.878415845,(11 -3 0 0 6 48 46 3)
1969-12-31 18:00:11.884572784,(-7 -4 -1 -4 5 20 17 34)
1969-12-31 18:00:11.884572784,(29 0 -4 -1 -13 -18 -7 12)
1969-12-31 18:00:11.898645788,(-14 -7 1 1 -4 -28 -11 -21)
1969-12-31 18:00:11.898645788,(34 21 0 3 1 7 11 61)
1969-12-31 18:00:11.900404913,(-32 -17 -12 -9 -8 -9 12 -20)
1969-12-31 18:00:11.900404913,(-37 -21 -10 -5 -2 15 6 -1)
1969-12-31 18:00:11.910959666,(-18 16 6 0 0 -3 13 -2)
1969-12-31 18:00:11.910959666,(-28 -10 -8 -4 -7 -18 -15 -24)
1969-12-31 18:00:11.918875730,(16 -20 0 -1 -1 -9 -4 16)
1969-12-31 18:00:11.918875730,(1 9 5 3 7 9 16 -1)
1969-12-31 18:00:11.931189609,(31 20 0 -5 -9 -11 -19 11)
1969-12-31 18:00:11.931189609,(-116 -65 -17 -6 -3 -18 -11 -18)
1969-12-31 18:00:11.937346548,(32 18 10 8 8 26 13 4)
1969-12-31 18:00:11.937346548,(-18 -32 -14 -5 1 3 15 21)
1969-12-31 18:00:11.951419551,(21 20 -2 -2 -1 4 4 -19)
1969-12-31 18:00:11.951419551,(55 21 8 2 -1 -1 -2 9)
1969-12-31 18:00:11.953178677,(25 11 0 -3 -6 2 0 32)
1969-12-31 18:00:11.953178677,(-72 -15 -3 -4 -4 -8 -19 -70)
1969-12-31 18:00:11.963733430,(15 -25 -16 -9 -4 17 9 32)
1969-12-31 18:00:11.963733430,(-10 -4 -3 -2 -7 -26 17 11)
1969-12-31 18:00:11.971649494,(-20 -16 -4 0 3 2 13 30)
1969-12-31 18:00:11.971649494,(42 39 11 2 -1 -10 -2 40)
1969-12-31 18:00:11.983963372,(6 13 7 4 3 7 12 7)
1969-12-31 18:00:11.983963372,(21 -17 -3 1 2 5 -17 -70)
1969-12-31 18:00:11.990120311,(55 13 -3 -4 -2 -5 29 54)
1969-12-31 18:00:11.990120311,(-6 6 2 -1 -1 -9 2 -1)
1969-12-31 18:00:12.004193315,(11 9 1 -1 0 16 15 1)
1969-12-31 18:00:12.004193315,(-33 -23 -10 -6 -10 -21 -39 -32)
1969-12-31 18:00:12.005952441,(-10 12 11 8 8 -3 -4 7)
1969-12-31 18:00:12.005952441,(34 -1 -8 -6 -3 15 13 20)
1969-12-31 18:00:12.024423258,(-48 -28 -3 -2 -3 -20 -26 -18)
1969-12-31 18:00:12.024423258,(-74 18 18 13 15 -3 -18 -66)
1969-12-31 18:00:12.025302821,(11 -26 -24 -18 -19 -24 -4 -38)
1969-12-31 18:00:12.025302821,(21 17 8 -1 0 10 -51 2)
1969-12-31 18:00:12.036737136,(-19 1 3 5 10 18 27 10)
1969-12-31 18:00:12.036737136,(-9 6 -4 -10 -10 -8 -2 16)
1969-12-31 18:00:12.042894076,(-24 8 8 10 9 -2 -8 -35)
1969-12-31 18:00:12.042894076,(28 0 0 1 -1 -20 5 51)
1969-12-31 18:00:12.056087516,(38 16 5 3 1 16 12 -15)
1969-12-31 18:00:12.056087516,(3 -19 -18 -14 -14 9 -47 -47)
1969-12-31 18:00:12.064003581,(-42 0 2 -4 3 -2 -23 -37)
1969-12-31 18:00:12.064003581,(-29 -25 -4 0 -4 18 0 -10)
1969-12-31 18:00:12.078956148,(7 15 7 6 2 1 6 8)
1969-12-31 18:00:12.078956148,(16 16 1 0 -1 -5 -2 -32)
1969-12-31 18:00:12.079835710,(-21 -26 1 2 -5 -23 -24 -41)
1969-12-31 18:00:12.079835710,(-39 -13 -5 -4 -1 8 28 -25)
1969-12-31 18:00:12.089510900,(37 -5 -4 3 27 13 -58 -25)
1969-12-31 18:00:12.089510900,(-41 -11 -10 -9 -24 15 22 -16)
1969-12-31 18:00:12.095667839,(1 -3 -6 -4 2 18 39 65)
1969-12-31 18:00:12.095667839,(47 20 9 -3 -4 -15 -29 -8)
1969-12-31 18:00:12.109740843,(-22 -8 -2 -3 -24 -35 -5 -17)
1969-12-31 18:00:12.109740843,(-17 6 6 7 29 -29 1 -7)
1969-12-31 18:00:12.111499969,(-1 -14 3 9 4 11 6 -25)
1969-12-31 18:00:12.111499969,(-26 -12 -8 -6 -7 -12 20 5)
1969-12-31 18:00:12.136127725,(45 -5 -13 -15 -9 0 -23 47)
1969-12-31 18:00:12.136127725,(3 7 17 15 3 -18 23 59)
1969-12-31 18:00:12.137886851,(-51 -15 -14 -8 -2 1 -30 -84)
1969-12-31 18:00:12.137886851,(25 34 16 3 8 -16 -3 11)
1969-12-31 18:00:12.141405101,(-7 -34 -15 0 -11 21 50 39)
1969-12-31 18:00:12.141405101,(13 9 6 6 -3 -29 18 14)
1969-12-31 18:00:12.149321166,(-31 9 7 1 4 27 -73 -39)
1969-12-31 18:00:12.149321166,(20 6 -2 3 28 27 24 36)
1969-12-31 18:00:12.162514607,(-16 16 0 -10 -18 -43 -10 -53)
1969-12-31 18:00:12.162514607,(-23 -36 -15 -8 -6 31 -5 -1)
1969-12-31 18:00:12.164273732,(44 17 9 12 10 18 16 32)
1969-12-31 18:00:12.164273732,(3 1 9 25 19 -11 0 -30)
1969-12-31 18:00:12.182744550,(-15 7 7 -5 -10 20 11 21)
1969-12-31 18:00:12.182744550,(13 -9 -13 -17 -28 -25 -3 1)
1969-12-31 18:00:12.183624113,(24 14 10 20 35 15 19 30)
1969-12-31 18:00:12.183624113,(47 -18 -21 -35 -28 11 14 79)
1969-12-31 18:00:12.194178865,(17 12 6 4 4 -2 3 30)
1969-12-31 18:00:12.194178865,(18 11 10 12 20 2 4 4)
1969-12-31 18:00:12.202094930,(1 -15 -16 -32 -37 -12 1 -28)
1969-12-31 18:00:12.202094930,(-8 7 5 18 3 -13 -11 -21)
1969-12-31 18:00:12.215288371,(3 -16 -19 -3 1 20 1 -9)
1969-12-31 18:00:12.215288371,(20 -1 -5 -8 -10 3 8 39)
1969-12-31 18:00:12.217047496,(-6 16 21 16 4 -28 15 13)
1969-12-31 18:00:12.217047496,(2 -5 -7 -3 0 13 -6 -31)
1969-12-31 18:00:12.235518314,(-52 10 9 2 1 -18 -20 -43)
1969-12-31 18:00:12.235518314,(3 -33 -20 -1 19 44 3 15)
1969-12-31 18:00:12.236397876,(13 2 -8 -7 15 4 9 14)
1969-12-31 18:00:12.236397876,(-12 19 3 -14 -59 -53 -32 -46)
1969-12-31 18:00:12.246952629,(-6 -44 -15 11 32 8 7 4)
1969-12-31 18:00:12.246952629,(-2 3 -8 -12 0 33 -7 -29)
1969-12-31 18:00:12.254868694,(-6 38 18 -4 -25 -7 8 -8)
1969-12-31 18:00:12.254868694,(-6 -22 -4 5 12 -25 -4 -5)
1969-12-31 18:00:12.268062135,(96 31 14 -5 -5 22 27 89)
1969-12-31 18:00:12.268062135,(-43 23 18 17 14 -4 4 -7)
1969-12-31 18:00:12.269821260,(-27 -60 -34 -21 -24 -18 -16 -26)
1969-12-31 18:00:12.269821260,(-24 -2 -9 -3 -1 -16 -4 -35)
1969-12-31 18:00:12.288292078,(-3 4 4 4 -5 -17 -14 -5)
1969-12-31 18:00:12.288292078,(3 -42 -48 -19 -12 2 -3 29)
1969-12-31 18:00:12.289171640,(23 46 17 3 -11 -25 7 41)
1969-12-31 18:00:12.289171640,(-18 14 -2 3 27 32 21 19)
1969-12-31 18:00:12.300605956,(-34 -29 -25 -21 -20 -5 -21 -39)
1969-12-31 18:00:12.300605956,(41 107 105 37 -4 -30 -5 20)
1969-12-31 18:00:12.307642458,(18 -26 -38 -10 15 41 21 30)
1969-12-31 18:00:12.307642458,(3 -101 -92 -26 -17 -12 -1 56)
1969-12-31 18:00:12.320835899,(36 82 39 25 8 -18 -5 -8)
1969-12-31 18:00:12.320835899,(3 -39 0 10 24 12 -4 -49)
1969-12-31 18:00:12.322595024,(-13 27 -47 -27 -40 -29 -16 -26)
1969-12-31 18:00:12.322595024,(-1 120 127 57 22 6 10 -24)
1969-12-31 18:00:12.341065842,(-51 -67 -68 -22 -9 7 -20 -88)
1969-12-31 18:00:12.341065842,(19 -47 -38 -13 -27 -34 -25 12)
1969-12-31 18:00:12.341945404,(34 -15 -25 -2 10 -9 1 23)
1969-12-31 18:00:12.341945404,(-36 -14 -18 -16 29 56 4 -29)
1969-12-31 18:00:12.352500157,(-28 -40 -11 -4 -22 -48 -9 -37)
1969-12-31 18:00:12.352500157,(-16 36 -9 -21 -2 37 11 -19)
1969-12-31 18:00:12.360416222,(8 39 66 16 16 8 18 45)
1969-12-31 18:00:12.360416222,(29 -19 -31 -13 -25 -2 -10 4)
1969-12-31 18:00:12.380646164,(6 -61 -40 -1 19 -5 20 44)
1969-12-31 18:00:12.380646164,(27 47 38 26 0 5 9 28)
1969-12-31 18:00:12.381525727,(69 -33 -58 -17 -9 -2 12 55)
1969-12-31 18:00:12.381525727,(12 -18 -38 -15 -10 -10 -9 -19)
1969-12-31 18:00:12.393839605,(33 116 121 58 32 19 -3 13)
1969-12-31 18:00:12.393839605,(-63 -88 -72 -8 -1 4 14 17)
1969-12-31 18:00:12.394719168,(61 27 23 3 -8 6 -12 -12)
1969-12-31 18:00:12.394719168,(-4 -2 39 12 -2 -2 -4 0)
1969-12-31 18:00:12.405273921,(11 -128 -128 -82 -38 -16 38 75)
1969-12-31 18:00:12.405273921,(-12 126 63 3 17 18 -24 -87)
1969-12-31 18:00:12.413189986,(-58 -51 46 41 16 -10 -23 -91)
1969-12-31 18:00:12.413189986,(8 -57 -105 -29 -24 -35 -12 4)
1969-12-31 18:00:12.426383427,(-18 108 120 50 34 30 -8 35)
1969-12-31 18:00:12.426383427,(32 -93 -71 -15 11 29 30 -5)
1969-12-31 18:00:12.428142552,(-40 -110 -110 -64 -50 -12 -2 0)
1969-12-31 18:00:12.428142552,(-43 28 22 11 -6 14 21 14)
1969-12-31 18:00:12.452770308,(-34 -78 -107 -40 -47 -47 -32 -45)
1969-12-31 18:00:12.452770308,(56 123 125 66 64 40 8 24)
1969-12-31 18:00:12.454529434,(-38 -46 -33 1 -1 -5 -4 2)
1969-12-31 18:00:12.454529434,(31 -62 1 1 18 0 -29 -79)
1969-12-31 18:00:12.458047685,(0 99 26 17 3 12 28 2)
1969-12-31 18:00:12.458047685,(0 -128 -80 -32 -39 -14 27 -11)
1969-12-31 18:00:12.471241126,(-1 97 36 -8 -5 -9 -31 -51)
1969-12-31 18:00:12.471241126,(-45 -31 25 17 8 -9 -18 -6)
1969-12-31 18:00:12.479157190,(61 -6 23 10 17 28 14 72)
1969-12-31 18:00:12.479157190,(-95 -114 -97 -35 -24 -44 -37 -72)
1969-12-31 18:00:12.480916316,(10 122 82 27 23 16 11 -3)
1969-12-31 18:00:12.480916316,(27 57 30 18 26 35 16 25)
1969-12-31 18:00:12.499387133,(-47 -81 -64 -22 3 8 -15 -39)
1969-12-31 18:00:12.499387133,(25 102 -2 -11 -32 -17 10 51)
1969-12-31 18:00:12.500266696,(-17 -86 -25 6 -9 -25 -7 -9)
1969-12-31 18:00:12.500266696,(19 -16 -35 -15 -10 -10 1 41)
1969-12-31 18:00:12.510821449,(21 107 127 51 40 39 13 -53)
1969-12-31 18:00:12.510821449,(-17 -117 -62 -28 -28 -33 -8 10)
1969-12-31 18:00:12.525774015,(-32 -13 -14 0 17 11 -20 -38)
1969-12-31 18:00:12.525774015,(-38 49 24 -4 -13 -6 2 -45)
1969-12-31 18:00:12.538967456,(11 -128 -92 -6 8 9 7 57)
1969-12-31 18:00:12.538967456,(6 67 12 -25 -11 -3 -27 -18)
1969-12-31 18:00:12.539847019,(26 41 69 33 2 2 7 51)
1969-12-31 18:00:12.539847019,(-36 -100 -104 -15 -9 -12 -10 -45)
1969-12-31 18:00:12.552160897,(18 73 65 10 0 -12 -5 -9)
1969-12-31 18:00:12.552160897,(5 -83 -53 -9 -1 -24 -1 10)
1969-12-31 18:00:12.553920023,(-20 -126 -100 -35 -11 30 26 17)
1969-12-31 18:00:12.553920023,(48 117 99 27 21 17 19 55)
1969-12-31 18:00:12.563595213,(-21 -36 -27 -11 -11 -20 -12 2)
1969-12-31 18:00:12.563595213,(-14 -30 9 13 2 1 -15 -15)
1969-12-31 18:00:12.571511277,(-19 -60 -65 -10 -7 -23 3 9)
1969-12-31 18:00:12.571511277,(17 55 71 19 -3 -13 8 -7)
1969-12-31 18:00:12.584704718,(-13 -55 -20 -20 -23 -3 -16 -16)
1969-12-31 18:00:12.584704718,(20 -26 20 26 19 0 -3 -2)
1969-12-31 18:00:12.586463844,(38 84 57 6 3 14 7 -9)
1969-12-31 18:00:12.586463844,(-21 -6 -2 -7 -3 18 19 9)
1969-12-31 18:00:12.604934661,(-39 -52 -37 -4 -9 -36 -28 -47)
1969-12-31 18:00:12.604934661,(-25 -30 -94 -42 -26 12 24 2)
1969-12-31 18:00:12.605814224,(40 48 33 58 40 37 18 20)
1969-12-31 18:00:12.605814224,(3 -90 -72 -11 -9 -25 -32 -5)
1969-12-31 18:00:12.616368977,(13 6 6 13 18 30 29 1)
1969-12-31 18:00:12.616368977,(-20 -5 -4 -23 -27 -9 -8 9)
1969-12-31 18:00:12.624285041,(-4 -20 -20 -17 -5 -30 3 6)
1969-12-31 18:00:12.624285041,(5 27 21 -1 -3 17 4 19)
1969-12-31 18:00:12.637478482,(-32 -2 -38 0 8 -9 -3 -16)
1969-12-31 18:00:12.637478482,(-41 44 84 36 8 -21 -46 -67)
1969-12-31 18:00:12.638358045,(-32 -66 -36 -12 -4 25 18 0)
1969-12-31 18:00:12.638358045,(6 39 22 -17 -26 -19 6 19)
1969-12-31 18:00:12.657708425,(-31 -108 -100 -21 26 25 -10 -8)
1969-12-31 18:00:12.657708425,(8 83 104 32 -6 -1 -1 -9)
1969-12-31 18:00:12.658587988,(11 54 10 -8 -35 -15 2 -14)
1969-12-31 18:00:12.658587988,(-5 -77 -102 -38 -17 -8 -11 -35)
1969-12-31 18:00:12.669142740,(17 69 88 17 -8 -6 -12 -16)
1969-12-31 18:00:12.669142740,(35 8 -21 7 41 -11 20 48)
1969-12-31 18:00:12.677058805,(-10 -92 -18 5 -10 20 17 63)
1969-12-31 18:00:12.677058805,(1 -1 9 13 27 44 29 16)
1969-12-31 18:00:12.689372683,(57 72 45 -4 -37 -33 -18 45)
1969-12-31 18:00:12.689372683,(-21 -116 -79 -22 -2 -1 -17 -35)
1969-12-31 18:00:12.695529622,(9 50 -21 -12 3 -25 -3 31)
1969-12-31 18:00:12.695529622,(-26 55 30 19 8 -5 -8 -92)
1969-12-31 18:00:12.709602626,(58 64 52 13 3 16 11 43)
1969-12-31 18:00:12.709602626,(41 -51 -17 12 15 16 -13 22)
1969-12-31 18:00:12.715759565,(-21 39 5 -39 -28 -19 -10 -32)
1969-12-31 18:00:12.715759565,(24 29 31 29 32 11 -18 2)
1969-12-31 18:00:12.721916504,(-49 -105 -100 -40 -32 -30 -13 -13)
1969-12-31 18:00:12.721916504,(13 121 35 25 29 -10 -15 -10)
1969-12-31 18:00:12.729832569,(13 -75 -38 8 18 28 -6 -28)
1969-12-31 18:00:12.729832569,(-26 -16 -40 -16 -13 -9 1 5)
1969-12-31 18:00:12.742146447,(-7 -24 21 38 38 0 7 -3)
1969-12-31 18:00:12.742146447,(-7 4 5 -47 -49 17 21 29)
1969-12-31 18:00:12.748303385,(-28 -28 -38 9 15 -8 -7 -8)
1969-12-31 18:00:12.748303385,(2 -78 -12 -24 -9 9 3 37)
1969-12-31 18:00:12.763255953,(-30 86 74 42 4 -19 -22 -56)
1969-12-31 18:00:12.763255953,(6 28 16 17 34 19 34 34)
1969-12-31 18:00:12.764135515,(-3 -28 -16 -11 -7 -15 -18 0)
1969-12-31 18:00:12.764135515,(-12 -79 -36 1 -7 -18 -1 -3)
1969-12-31 18:00:12.774690268,(-5 7 -21 -20 -8 14 -7 -37)
1969-12-31 18:00:12.774690268,(19 -19 -3 21 17 -13 -19 -15)
1969-12-31 18:00:12.782606333,(-6 -25 9 -20 -3 -2 13 14)
1969-12-31 18:00:12.782606333,(-18 25 5 4 16 21 -2 -8)
1969-12-31 18:00:12.795799774,(16 8 -53 -26 -28 2 -6 -13)
1969-12-31 18:00:12.795799774,(-7 85 96 64 16 -5 -9 -33)
1969-12-31 18:00:12.801077150,(-6 -111 -84 -12 -10 -2 -4 -23)
1969-12-31 18:00:12.801077150,(-33 -57 -59 -18 2 -20 -18 -19)
1969-12-31 18:00:12.816029717,(-15 54 48 -15 -35 -30 1 -40)
1969-12-31 18:00:12.816029717,(10 -112 -63 -14 -6 31 17 51)
1969-12-31 18:00:12.816909279,(-11 61 21 12 19 -2 22 24)
1969-12-31 18:00:12.816909279,(53 63 43 8 -2 10 -7 12)
1969-12-31 18:00:12.828343595,(-9 -18 18 10 25 8 11 76)
1969-12-31 18:00:12.828343595,(-33 -30 -30 -3 -5 -30 -11 -19)
1969-12-31 18:00:12.835380097,(-18 -55 -1 -11 -9 0 -7 -17)
1969-12-31 18:00:12.835380097,(-15 -60 -90 -33 -31 -8 -1 5)
1969-12-31 18:00:12.848573538,(38 -77 -36 17 34 36 43 70)
1969-12-31 18:00:12.848573538,(-26 104 21 -27 -27 -3 -4 -31)
1969-12-31 18:00:12.855610040,(39 30 41 24 2 5 -15 -11)
1969-12-31 18:00:12.855610040,(29 -36 -28 -4 -3 -25 7 -6)
1969-12-31 18:00:12.867923918,(-10 -78 -62 -25 5 27 5 -1)
1969-12-31 18:00:12.868803481,(-20 -49 -77 -28 -19 -10 -4 -19)
1969-12-31 18:00:12.869683043,(-25 -19 -12 15 7 7 -6 -59)
1969-12-31 18:00:12.869683043,(7 -42 -36 -15 -23 -26 12 80)
1969-12-31 18:00:12.888153861,(21 111 81 29 18 5 -11 -33)
1969-12-31 18:00:12.888153861,(17 -26 -17 1 22 33 24 26)
1969-12-31 18:00:12.889912986,(13 1 3 -6 0 0 -13 -8)
1969-12-31 18:00:12.889912986,(-22 -26 -44 -13 -3 3 -20 -30)
1969-12-31 18:00:12.901347302,(31 15 21 35 38 19 29 45)
1969-12-31 18:00:12.901347302,(-15 -27 -4 1 -10 -4 -16 -17)
1969-12-31 18:00:12.903106427,(13 27 33 12 -4 -1 -16 2)
1969-12-31 18:00:12.903106427,(-23 -47 9 2 -19 -21 -16 -61)
1969-12-31 18:00:12.921577244,(-18 -48 -81 -52 -18 -19 5 20)
1969-12-31 18:00:12.921577244,(35 100 96 42 22 3 -11 -10)
1969-12-31 18:00:12.922456807,(3 -11 -33 -10 -17 -5 -10 21)
1969-12-31 18:00:12.922456807,(-39 -8 36 23 12 14 11 -29)
1969-12-31 18:00:12.940927625,(-4 -44 -45 -22 -26 -12 -8 17)
1969-12-31 18:00:12.940927625,(22 26 24 25 10 -13 18 30)
1969-12-31 18:00:12.942686750,(-17 -128 -125 -57 -8 -2 -19 11)
1969-12-31 18:00:12.942686750,(9 127 127 37 18 13 11 -23)
1969-12-31 18:00:12.953241503,(36 45 65 35 5 -4 -24 -28)
1969-12-31 18:00:12.953241503,(-19 -128 -111 -33 -14 0 21 30)
1969-12-31 18:00:12.959398442,(2 92 71 10 -8 -14 3 8)
1969-12-31 18:00:12.959398442,(-28 -9 -6 6 7 16 -9 -30)
1969-12-31 18:00:12.974351008,(-7 -27 -13 -15 -20 -12 -8 -4)
1969-12-31 18:00:12.974351008,(-3 -22 -29 -15 -11 -20 -11 20)
1969-12-31 18:00:12.975230571,(-27 -71 -55 -2 32 1 -8 -37)
1969-12-31 18:00:12.975230571,(-9 41 16 14 -28 -6 -37 -46)
1969-12-31 18:00:12.993701388,(-29 -49 -41 -10 -19 -16 -21 -34)
1969-12-31 18:00:12.993701388,(11 -30 -75 -31 2 18 8 42)
1969-12-31 18:00:12.995460514,(46 85 104 70 9 -19 5 5)
1969-12-31 18:00:12.995460514,(-9 -128 -124 -62 -24 -1 5 29)
1969-12-31 18:00:13.006015267,(20 37 24 10 1 -3 0 -12)
1969-12-31 18:00:13.006015267,(-41 -48 -42 -26 -22 -11 -32 -68)
1969-12-31 18:00:13.013931331,(-7 73 53 22 25 5 8 -3)
1969-12-31 18:00:13.013931331,(40 43 37 23 43 20 19 60)
1969-12-31 18:00:13.027124772,(-10 -2 21 -5 -36 6 19 -16)
1969-12-31 18:00:13.027124772,(6 -94 -60 -31 -7 -5 -8 5)
1969-12-31 18:00:13.028004335,(-3 69 1 -10 -5 5 13 17)
1969-12-31 18:00:13.028004335,(44 80 84 57 10 -4 -4 -44)
1969-12-31 18:00:13.046475152,(-16 -119 -125 -16 6 -22 -35 -60)
1969-12-31 18:00:13.046475152,(18 31 41 30 4 2 18 12)
1969-12-31 18:00:13.048234278,(-25 -13 -2 -17 -8 -9 -23 -28)
1969-12-31 18:00:13.048234278,(-5 -125 -110 -36 -2 -33 19 37)
1969-12-31 18:00:13.058789031,(27 127 126 40 17 56 18 39)
1969-12-31 18:00:13.058789031,(-17 -104 -11 2 -27 -17 -4 -12)
1969-12-31 18:00:13.071982472,(12 -86 -70 -9 1 2 12 42)
1969-12-31 18:00:13.071982472,(0 -15 -32 -9 -10 -6 -9 -4)
1969-12-31 18:00:13.079018973,(-7 -37 -25 -1 22 -1 11 18)
1969-12-31 18:00:13.079018973,(-30 -62 -38 -45 -43 -10 -33 -44)
1969-12-31 18:00:13.085175913,(3 103 108 43 27 17 28 3)
1969-12-31 18:00:13.085175913,(9 28 44 20 18 33 36 60)
1969-12-31 18:00:13.099248916,(-27 -62 -84 -44 -52 -26 -18 -25)
1969-12-31 18:00:13.099248916,(33 113 87 29 13 -5 7 42)
1969-12-31 18:00:13.101008042,(-56 -128 -70 -27 5 11 -4 -30)
1969-12-31 18:00:13.101008042,(27 -16 -61 -16 -9 -13 -18 -34)
1969-12-31 18:00:13.111562794,(-13 -40 -51 -18 -6 -3 0 -11)
1969-12-31 18:00:13.111562794,(75 114 100 69 25 -4 5 10)
1969-12-31 18:00:13.119478859,(-47 -91 -64 3 -2 5 -19 -30)
1969-12-31 18:00:13.119478859,(-36 -88 -44 -20 8 10 9 33)
1969-12-31 18:00:13.132672300,(23 56 48 17 2 -18 1 18)
1969-12-31 18:00:13.132672300,(27 102 79 5 -2 7 26 41)
1969-12-31 18:00:13.133551863,(18 -20 -42 -16 -20 5 21 12)
1969-12-31 18:00:13.133551863,(-15 11 54 4 -9 6 -6 24)
1969-12-31 18:00:13.152022680,(31 -36 -48 -12 33 -4 7 45)
1969-12-31 18:00:13.152022680,(-47 32 31 6 -20 7 -14 -18)
1969-12-31 18:00:13.152902243,(22 -5 17 -8 -24 -7 9 6)
1969-12-31 18:00:13.152902243,(-38 -110 -49 -20 -3 -11 -8 -7)
1969-12-31 18:00:13.164336558,(-8 21 -48 -18 -3 -4 6 -15)
1969-12-31 18:00:13.164336558,(21 37 10 29 33 5 -8 13)
1969-12-31 18:00:13.172252623,(33 -23 0 -10 -5 2 -1 16)
1969-12-31 18:00:13.172252623,(-11 -70 -34 -7 -3 -23 -13 -25)
1969-12-31 18:00:13.191603003,(-31 -14 34 12 0 9 -17 -42)
1969-12-31 18:00:13.191603003,(-13 -11 -42 -17 -2 4 11 -8)
1969-12-31 18:00:13.193362129,(3 33 14 6 10 4 -1 -1)
1969-12-31 18:00:13.193362129,(8 -13 -36 2 11 -28 9 25)
1969-12-31 18:00:13.204796444,(-19 86 93 28 3 13 -14 -32)
1969-12-31 18:00:13.204796444,(49 -21 -40 -26 -17 -11 1 61)
1969-12-31 18:00:13.206555570,(-40 -13 34 18 17 -31 -9 -25)
1969-12-31 18:00:13.206555570,(8 19 -2 -10 -4 37 2 -1)
1969-12-31 18:00:13.217110322,(20 -14 6 9 -7 -13 12 -1)
1969-12-31 18:00:13.217110322,(-53 -83 -42 -10 -8 -5 -25 -32)
1969-12-31 18:00:13.224146824,(-6 1 1 -14 -8 -13 -11 -15)
1969-12-31 18:00:13.224146824,(34 14 -8 7 17 7 16 60)
1969-12-31 18:00:13.237340265,(-35 -108 -66 -21 -11 9 -10 -20)
1969-12-31 18:00:13.237340265,(36 86 100 53 45 23 6 4)
1969-12-31 18:00:13.239099391,(30 -24 -65 -6 -15 -3 27 49)
1969-12-31 18:00:13.239099391,(-22 36 32 2 -9 -6 -6 -24)
1969-12-31 18:00:13.257570208,(27 -10 13 5 3 -2 -10 9)
1969-12-31 18:00:13.257570208,(-33 -85 -75 -28 5 -3 0 -22)
1969-12-31 18:00:13.259329333,(-19 -126 -89 -44 -30 0 -23 -10)
1969-12-31 18:00:13.259329333,(32 100 74 28 8 23 21 13)
1969-12-31 18:00:13.269884086,(1 -10 -29 -5 -3 -9 2 10)
1969-12-31 18:00:13.269884086,(-12 -14 -24 -19 1 -12 -2 13)
1969-12-31 18:00:13.283957090,(-1 88 26 24 5 -6 -4 -26)
1969-12-31 18:00:13.283957090,(1 -92 -61 -29 -29 -16 -10 -15)
1969-12-31 18:00:13.290114029,(29 57 70 41 13 -2 7 35)
1969-12-31 18:00:13.290114029,(-6 -28 -43 -17 -19 -8 -10 -44)
1969-12-31 18:00:13.297150531,(3 -27 -3 1 10 16 -3 7)
1969-12-31 18:00:13.297150531,(-25 -82 -91 -37 -15 -13 -5 -10)
1969-12-31 18:00:13.310343972,(18 57 57 30 28 32 15 11)
1969-12-31 18:00:13.310343972,(16 58 41 29 1 -14 8 -21)
1969-12-31 18:00:13.312103097,(48 -12 -15 -30 -27 1 0 25)
1969-12-31 18:00:13.312103097,(-18 -7 56 16 17 21 -1 -7)
1969-12-31 18:00:13.322657850,(-30 -65 -60 -24 -22 -51 -18 -27)
1969-12-31 18:00:13.322657850,(5 -43 -52 -8 1 39 15 9)
1969-12-31 18:00:13.329694352,(16 -48 -55 -19 -9 -20 0 37)
1969-12-31 18:00:13.329694352,(51 127 108 56 17 8 11 32)
1969-12-31 18:00:13.349924295,(-37 -81 -70 -36 -22 -3 -6 -15)
1969-12-31 18:00:13.349924295,(37 5 23 -1 -2 19 7 4)
1969-12-31 18:00:13.356960797,(-40 -73 -62 -8 23 -15 -8 -32)
1969-12-31 18:00:13.356960797,(-7 -57 -32 -11 -8 0 -10 -9)
1969-12-31 18:00:13.363117736,(13 97 45 11 16 -1 -1 -1)
1969-12-31 18:00:13.363117736,(-12 -75 -52 -1 5 5 8 14)
1969-12-31 18:00:13.364876861,(15 127 127 46 17 33 7 -7)
1969-12-31 18:00:13.364876861,(6 73 13 5 5 -10 4 -20)
1969-12-31 18:00:13.375431614,(-15 -59 -39 -15 -23 -14 4 50)
1969-12-31 18:00:13.375431614,(-33 -69 -45 -25 -19 -9 -27 -45)
1969-12-31 18:00:13.383347679,(-32 -82 -65 -42 0 -1 4 -13)
1969-12-31 18:00:13.383347679,(22 93 71 39 9 -24 -38 -16)
1969-12-31 18:00:13.396541120,(18 -27 -71 -3 17 19 39 34)
1969-12-31 18:00:13.396541120,(-29 -17 5 -3 -22 11 7 -9)
1969-12-31 18:00:13.397420682,(14 4 33 19 8 10 0 10)
1969-12-31 18:00:13.397420682,(-2 -84 -57 -31 -14 4 3 11)
1969-12-31 18:00:13.415891500,(-10 -8 -8 -18 -17 -12 -8 6)
1969-12-31 18:00:13.415891500,(8 35 30 13 12 -23 -12 -12)
1969-12-31 18:00:13.417650625,(12 30 10 18 18 22 12 1)
1969-12-31 18:00:13.417650625,(-26 -98 -68 -33 -30 -15 -4 -9)
1969-12-31 18:00:13.428205378,(30 96 105 19 24 10 7 -7)
1969-12-31 18:00:13.428205378,(4 -70 -71 -8 5 10 11 17)
1969-12-31 18:00:13.436121442,(27 57 50 25 -3 -33 -1 37)
1969-12-31 18:00:13.436121442,(-27 -22 -13 6 22 17 -9 -10)
1969-12-31 18:00:13.448435321,(5 -68 -45 -23 -42 -26 -36 -61)
1969-12-31 18:00:13.448435321,(-20 -23 -19 -20 6 3 1 -21)
1969-12-31 18:00:13.450194446,(3 60 88 34 -1 0 -3 2)
1969-12-31 18:00:13.450194446,(16 24 2 22 32 22 25 5)
1969-12-31 18:00:13.468665264,(-25 -112 -58 -34 -6 -3 -4 -13)
1969-12-31 18:00:13.468665264,(-6 27 12 19 18 3 8 25)
1969-12-31 18:00:13.470424389,(-13 1 -55 -7 -20 -33 -14 -26)
1969-12-31 18:00:13.470424389,(-13 3 23 -16 -28 9 -7 -9)
1969-12-31 18:00:13.480979142,(27 85 92 24 10 16 1 14)
1969-12-31 18:00:13.480979142,(24 35 -2 -11 -15 -10 17 23)
1969-12-31 18:00:13.488895206,(-1 -55 -48 -9 12 1 -13 -12)
1969-12-31 18:00:13.488895206,(15 127 104 46 20 -5 2 1)
1969-12-31 18:00:13.501209085,(-38 -105 -104 -35 -29 -16 -18 -27)
1969-12-31 18:00:13.501209085,(13 21 46 0 -5 -1 -8 5)
1969-12-31 18:00:13.507366024,(34 -5 -13 -5 -1 -5 12 48)
1969-12-31 18:00:13.507366024,(-47 -53 -46 -23 -22 26 -2 -24)
1969-12-31 18:00:13.521439027,(15 5 -6 -39 -18 -7 7 7)
1969-12-31 18:00:13.521439027,(19 30 37 85 75 19 19 15)
1969-12-31 18:00:13.526716404,(-52 -33 -5 2 2 2 -16 -34)
1969-12-31 18:00:13.526716404,(-18 -18 -23 13 -4 -20 0 -35)
1969-12-31 18:00:13.533752906,(-15 9 5 -10 -16 2 -26 -7)
1969-12-31 18:00:13.533752906,(-2 -13 -8 -28 -29 -1 13 0)
1969-12-31 18:00:13.541668970,(-1 -59 -41 -30 -11 -3 -6 -18)
1969-12-31 18:00:13.541668970,(18 54 31 12 1 -7 8 26)
1969-12-31 18:00:13.553982849,(-5 12 -6 0 -6 9 16 -4)
1969-12-31 18:00:13.553982849,(-28 -34 -8 12 32 -14 -52 -25)
1969-12-31 18:00:13.560139788,(-1 10 22 24 16 -7 -11 -22)
1969-12-31 18:00:13.560139788,(24 -16 -29 -17 1 6 -1 6)
1969-12-31 18:00:13.574212791,(20 18 12 3 -13 -3 0 18)
1969-12-31 18:00:13.574212791,(-47 -25 -27 -27 -22 -38 26 -59)
1969-12-31 18:00:13.575971917,(62 34 0 -48 -29 33 -44 71)
1969-12-31 18:00:13.575971917,(-8 -40 -6 60 68 -2 39 -39)
1969-12-31 18:00:13.586526670,(36 -23 21 48 36 -2 -6 23)
1969-12-31 18:00:13.586526670,(2 58 19 0 -6 -6 -13 12)
1969-12-31 18:00:13.594442734,(-81 -8 -15 -32 -45 -30 2 -49)
1969-12-31 18:00:13.594442734,(-9 -26 -29 -42 -35 6 -21 -14)
1969-12-31 18:00:13.606756612,(22 17 11 19 21 -5 -31 26)
1969-12-31 18:00:13.606756612,(0 -54 -11 -21 -21 8 19 -15)
1969-12-31 18:00:13.619070491,(71 75 40 31 20 18 25 23)
1969-12-31 18:00:13.619070491,(-65 -51 -40 -33 -28 -24 -48 -30)
1969-12-31 18:00:13.626986555,(-15 -16 0 9 12 10 19 -17)
1969-12-31 18:00:13.626986555,(-18 6 -8 -20 -16 -8 -24 11)
1969-12-31 18:00:13.628745681,(-47 -9 13 15 -5 9 19 -3)
1969-12-31 18:00:13.628745681,(42 7 -5 -5 14 25 50 12)
1969-12-31 18:00:13.639300433,(-40 0 -10 -22 -29 -12 5 -14)
1969-12-31 18:00:13.639300433,(-41 -64 -28 -7 -2 0 58 -2)
1969-12-31 18:00:13.647216498,(28 44 27 41 46 10 -41 -24)
1969-12-31 18:00:13.647216498,(-43 -47 -26 -20 -21 -13 8 6)
1969-12-31 18:00:13.659530376,(-2 66 29 10 -2 10 4 4)
1969-12-31 18:00:13.659530376,(-10 -48 -16 -10 -7 5 7 -6)
1969-12-31 18:00:13.665687315,(-87 -79 -33 -14 -7 -13 9 -40)
1969-12-31 18:00:13.665687315,(26 72 33 20 13 19 7 24)
1969-12-31 18:00:13.679760319,(36 31 11 9 7 -3 -2 -69)
1969-12-31 18:00:13.679760319,(-10 -22 -2 1 -1 -3 -26 9)
1969-12-31 18:00:13.681519445,(28 19 4 3 4 3 5 -18)
1969-12-31 18:00:13.681519445,(11 0 -28 -21 -16 -16 -15 19)
1969-12-31 18:00:13.699990262,(-63 -21 -5 -1 0 -1 -11 -27)
1969-12-31 18:00:13.699990262,(-4 -3 3 -2 -1 -1 -15 -7)
1969-12-31 18:00:13.700869825,(13 0 -7 -5 -2 0 3 -10)
1969-12-31 18:00:13.700869825,(6 9 9 3 -5 -3 8 17)
1969-12-31 18:00:13.712304140,(-6 -27 -15 4 10 5 9 8)
1969-12-31 18:00:13.712304140,(59 35 -1 -7 -4 4 -13 22)
1969-12-31 18:00:13.718461079,(-4 15 26 4 -2 -5 16 24)
1969-12-31 18:00:13.718461079,(20 15 10 7 3 -5 -15 -3)
1969-12-31 18:00:13.732534083,(-8 -41 -12 1 6 6 7 19)
1969-12-31 18:00:13.732534083,(1 17 1 2 -2 3 -5 1)
1969-12-31 18:00:13.734293209,(8 10 1 2 -1 -1 9 8)
1969-12-31 18:00:13.734293209,(-11 0 7 -5 -8 -7 -6 -10)
1969-12-31 18:00:13.752764026,(-9 -5 -6 0 7 3 -1 -11)
1969-12-31 18:00:13.752764026,(11 5 -2 -1 -3 -1 0 3)
1969-12-31 18:00:13.753643589,(-17 -22 -12 -12 -4 -4 1 -4)
1969-12-31 18:00:13.753643589,(25 7 8 8 0 -1 -5 9)
1969-12-31 18:00:13.765077904,(7 16 12 5 2 -1 6 19)
1969-12-31 18:00:13.765077904,(-4 14 13 7 1 -1 -8 -4)
1969-12-31 18:00:13.771234843,(10 -8 -2 2 -1 -1 -2 15)
1969-12-31 18:00:13.771234843,(5 -14 -11 -9 -3 -3 -2 9)
1969-12-31 18:00:13.785307847,(-2 -10 -14 -9 -2 2 3 6)
1969-12-31 18:00:13.785307847,(5 2 -4 -4 -2 -2 -2 0)
1969-12-31 18:00:13.786187410,(3 -7 -2 3 6 5 1 11)
1969-12-31 18:00:13.786187410,(5 6 -11 -9 -1 6 15 7)
1969-12-31 18:00:13.805537790,(4 20 25 13 5 -1 0 -4)
1969-12-31 18:00:13.805537790,(-3 3 3 -3 -2 -2 -7 2)
1969-12-31 18:00:13.807296915,(6 -9 -7 -2 -1 -4 4 6)
1969-12-31 18:00:13.807296915,(9 12 -1 1 -1 -6 -10 -11)
1969-12-31 18:00:13.817851668,(-16 -25 -19 -7 -1 2 -2 -15)
1969-12-31 18:00:13.817851668,(8 7 10 8 1 3 1 2)
1969-12-31 18:00:13.824008607,(0 -1 -10 -1 0 2 9 6)
1969-12-31 18:00:13.824008607,(-7 -27 -7 -6 -4 -2 -4 4)
1969-12-31 18:00:13.838081611,(4 26 17 -1 1 0 -7 -3)
1969-12-31 18:00:13.838081611,(0 4 2 0 -3 -4 -5 -3)
1969-12-31 18:00:13.838961174,(-7 -7 -11 -6 -6 -4 -6 -10)
1969-12-31 18:00:13.838961174,(-4 5 28 13 7 2 7 3)
1969-12-31 18:00:13.858311554,(-10 11 -10 -4 -1 4 -4 -1)
1969-12-31 18:00:13.858311554,(-1 -13 -9 -6 -4 -3 2 1)
1969-12-31 18:00:13.859191116,(-9 -11 -3 0 -2 -2 2 1)
1969-12-31 18:00:13.859191116,(-1 -13 -31 -17 -8 -7 -11 -3)
1969-12-31 18:00:13.869745869,(3 14 37 12 2 -3 1 7)
1969-12-31 18:00:13.869745869,(6 8 -3 3 2 8 2 1)
1969-12-31 18:00:13.877661934,(-2 2 -28 -13 -6 -4 -1 -2)
1969-12-31 18:00:13.877661934,(0 3 42 16 6 4 6 3)
1969-12-31 18:00:13.890855375,(-4 -33 -37 -15 -7 -2 -4 -6)
1969-12-31 18:00:13.890855375,(12 39 33 7 3 1 -3 -4)
1969-12-31 18:00:13.892614500,(-5 -14 -22 -6 -7 -8 -8 -3)
1969-12-31 18:00:13.892614500,(8 4 -4 -1 1 2 9 17)
1969-12-31 18:00:13.917242257,(-7 -37 -36 -9 -8 -9 -18 -15)
1969-12-31 18:00:13.917242257,(6 20 20 1 -1 4 16 11)
1969-12-31 18:00:13.918121819,(-9 1 15 5 0 -5 -20 -24)
1969-12-31 18:00:13.918121819,(0 -19 -28 -14 -7 -2 3 4)
1969-12-31 18:00:13.929556135,(-5 13 33 9 7 4 15 17)
1969-12-31 18:00:13.929556135,(-3 -21 -51 -16 -5 -4 -11 -13)
1969-12-31 18:00:13.930435698,(18 50 66 23 8 3 7 5)
1969-12-31 18:00:13.930435698,(3 21 8 8 1 -3 -11 -7)
1969-12-31 18:00:13.942749576,(-7 -35 -34 -12 -6 -1 5 1)
1969-12-31 18:00:13.942749576,(9 -5 -5 -2 3 1 0 4)
1969-12-31 18:00:13.943629139,(-10 -7 4 -1 -1 1 1 -4)
1969-12-31 18:00:13.943629139,(-5 3 1 1 0 -3 -10 -12)
1969-12-31 18:00:13.962979519,(3 -10 -12 -3 -1 2 7 7)
1969-12-31 18:00:13.962979519,(-7 -13 0 -3 -4 -6 -1 4)
1969-12-31 18:00:13.963859081,(12 30 7 4 3 2 0 1)
1969-12-31 18:00:13.963859081,(-4 -1 -3 -5 -3 -1 -4 -9)
1969-12-31 18:00:13.982329899,(-4 -21 -4 -1 -2 -3 -1 -3)
1969-12-31 18:00:13.982329899,(1 9 8 0 -2 0 1 0)
1969-12-31 18:00:13.983209462,(2 -3 1 1 -1 -3 -10 -9)
1969-12-31 18:00:13.983209462,(-8 -4 -8 -2 -1 1 0 -4)
1969-12-31 18:00:13.995523340,(17 62 33 15 6 0 -1 7)
1969-12-31 18:00:13.995523340,(-11 -37 -33 -16 -8 -3 0 -2)
1969-12-31 18:00:13.996402903,(-3 -9 12 7 1 -1 -1 -3)
1969-12-31 18:00:13.996402903,(-1 19 20 5 1 0 0 -1)
1969-12-31 18:00:14.015753283,(-1 -20 -7 -2 -3 -4 -3 -1)
1969-12-31 18:00:14.015753283,(-6 -10 -17 -15 -10 -5 -6 -3)
1969-12-31 18:00:14.016632844,(-4 -33 -34 -16 -6 -3 1 0)
1969-12-31 18:00:14.016632844,(1 16 20 16 4 1 -2 -1)
1969-12-31 18:00:14.035103663,(4 -5 -27 -14 -4 -1 2 5)
1969-12-31 18:00:14.035983225,(4 32 34 25 8 0 -4 -6)
1969-12-31 18:00:14.035983225,(-8 -10 -5 -12 -4 -1 0 -1)
1969-12-31 18:00:14.035983225,(0 -17 -19 -9 -4 -5 -8 -9)
1969-12-31 18:00:14.056213168,(-12 -21 -34 -13 -6 -3 -1 -4)
1969-12-31 18:00:14.056213168,(12 18 26 8 1 -2 -4 -2)
1969-12-31 18:00:14.056213168,(-9 -21 -14 0 0 0 0 -4)
1969-12-31 18:00:14.056213168,(2 19 17 3 -1 -2 1 5)
1969-12-31 18:00:14.068527047,(3 -4 4 1 -2 1 1 2)
1969-12-31 18:00:14.068527047,(-11 -16 -14 -7 -2 -3 -5 -8)
1969-12-31 18:00:14.069406609,(5 18 16 4 0 5 12 9)
1969-12-31 18:00:14.069406609,(-16 -67 -46 -44 -20 -14 -12 -9)
1969-12-31 18:00:14.095793491,(23 86 71 41 16 7 2 -1)
1969-12-31 18:00:14.095793491,(6 8 9 21 9 6 3 5)
1969-12-31 18:00:14.096673054,(4 -1 -8 -5 0 2 3 8)
1969-12-31 18:00:14.096673054,(-18 -38 0 -2 -6 -2 1 -2)
1969-12-31 18:00:14.101070868,(-22 -34 21 -10 -7 -3 -3 -5)
1969-12-31 18:00:14.101070868,(37 83 12 3 7 -1 -3 3)
1969-12-31 18:00:14.101950430,(-5 -21 -13 10 10 7 7 4)
1969-12-31 18:00:14.101950430,(-1 2 -11 -6 -1 -2 -2 -2)
1969-12-31 18:00:14.121300810,(-6 -17 -14 -6 -3 -2 -1 -3)
1969-12-31 18:00:14.121300810,(-23 -52 -10 -10 -5 -2 0 -2)
1969-12-31 18:00:14.122180373,(2 -4 -6 -13 -11 -7 -5 -8)
1969-12-31 18:00:14.122180373,(17 50 52 29 13 5 6 5)
1969-12-31 18:00:14.133614689,(-7 -10 -17 -7 -4 -3 -2 1)
1969-12-31 18:00:14.133614689,(-4 1 -2 -1 1 2 0 -2)
1969-12-31 18:00:14.140651191,(9 8 -36 -17 -8 -3 -2 1)
1969-12-31 18:00:14.140651191,(-7 -16 -10 12 5 2 -1 -2)
1969-12-31 18:00:14.153844632,(4 10 9 3 2 4 3 5)
1969-12-31 18:00:14.153844632,(-6 -19 -4 -4 -5 -3 -1 -1)
1969-12-31 18:00:14.154724194,(-4 2 8 4 1 0 -1 -2)
1969-12-31 18:00:14.154724194,(-1 8 -1 -3 -4 -1 -4 -3)
1969-12-31 18:00:14.174074574,(3 1 -13 -7 0 -1 5 8)
1969-12-31 18:00:14.174074574,(-7 -17 -16 -7 -2 -2 -1 -4)
1969-12-31 18:00:14.174954137,(-3 -13 -19 -4 -1 -3 -3 -5)
1969-12-31 18:00:14.174954137,(1 1 1 -5 -3 -3 -2 0)
1969-12-31 18:00:14.186388453,(0 0 -37 -18 -8 -4 -5 -5)
1969-12-31 18:00:14.186388453,(1 -11 9 14 6 4 4 5)
1969-12-31 18:00:14.200461456,(-3 4 12 6 1 -1 0 0)
1969-12-31 18:00:14.200461456,(-2 6 -10 -6 -3 -2 -5 -6)
1969-12-31 18:00:14.215414023,(-12 -33 -13 -8 -5 -3 -2 -7)
1969-12-31 18:00:14.215414023,(11 26 19 5 3 2 1 3)
1969-12-31 18:00:14.216293585,(3 6 14 9 3 0 -3 0)
1969-12-31 18:00:14.216293585,(-3 -1 -4 -1 0 0 2 2)
1969-12-31 18:00:14.226848338,(-1 1 2 4 3 1 -2 -3)
1969-12-31 18:00:14.226848338,(-9 -13 -9 -9 -6 -5 -5 -5)
1969-12-31 18:00:14.227727901,(-3 6 16 7 3 2 3 1)
1969-12-31 18:00:14.227727901,(2 -1 -6 -4 -3 -2 -1 -2)
1969-12-31 18:00:14.239162216,(1 -1 0 0 -2 0 -2 -3)
1969-12-31 18:00:14.239162216,(-2 -2 -4 -3 -3 -2 -2 -1)
1969-12-31 18:00:14.253235220,(-4 -1 -8 -8 -4 -5 -4 -3)
1969-12-31 18:00:14.253235220,(-1 4 2 3 0 0 1 -1)
1969-12-31 18:00:14.261151285,(-1 -1 3 2 2 1 1 0)
1969-12-31 18:00:14.261151285,(-4 -11 -12 -10 -6 -7 -6 -6)
1969-12-31 18:00:14.262030848,(-8 -8 -6 -6 -2 -2 -2 -6)
1969-12-31 18:00:14.262030848,(-2 -2 0 -2 -2 -1 -3 -4)
1969-12-31 18:00:14.279622102,(0 -17 0 2 0 0 0 0)
1969-12-31 18:00:14.279622102,(-1 11 5 10 5 2 1 2)
1969-12-31 18:00:14.280501665,(7 10 0 -4 -3 0 0 2)
1969-12-31 18:00:14.280501665,(-1 -1 0 -2 -3 -2 -1 -1)
1969-12-31 18:00:14.291935980,(1 1 -11 -8 -5 -2 -2 -1)
1969-12-31 18:00:14.291935980,(-4 -11 -11 -6 -5 -4 -2 -4)
1969-12-31 18:00:14.298972482,(-1 3 7 5 2 0 0 -1)
1969-12-31 18:00:14.298972482,(0 -5 -5 1 0 0 1 3)
1969-12-31 18:00:14.312165923,(-1 3 -2 1 -1 -4 -1 -3)
1969-12-31 18:00:14.312165923,(-5 -10 -6 -7 -3 -2 -3 -3)
1969-12-31 18:00:14.313045486,(3 8 8 1 -2 -2 0 1)
1969-12-31 18:00:14.313045486,(3 2 -2 1 2 1 3 2)
1969-12-31 18:00:14.332395866,(-3 2 1 0 -2 -1 -4 -4)
1969-12-31 18:00:14.332395866,(-4 -6 -1 -1 -2 -1 0 -3)
1969-12-31 18:00:14.333275429,(4 4 -4 -1 -1 2 1 3)
1969-12-31 18:00:14.333275429,(-1 4 14 5 2 0 0 -1)
1969-12-31 18:00:14.344709744,(2 5 5 8 5 1 -1 0)
1969-12-31 18:00:14.344709744,(-5 -6 -5 -5 -5 -2 -2 -2)
1969-12-31 18:00:14.358782748,(0 -2 6 0 -3 -2 0 -1)
1969-12-31 18:00:14.358782748,(1 -1 -8 -7 -2 -1 -1 1)
1969-12-31 18:00:14.364939687,(-3 -5 5 2 0 -2 -1 -2)
1969-12-31 18:00:14.364939687,(2 12 -12 -1 2 -1 0 0)
1969-12-31 18:00:14.365819250,(-1 -1 2 -1 0 1 2 0)
1969-12-31 18:00:14.365819250,(-1 -2 -11 -4 -2 -2 -3 -2)
1969-12-31 18:00:14.385169630,(0 -2 3 2 0 -2 1 -1)
1969-12-31 18:00:14.385169630,(-2 -9 -1 -2 -2 -1 -1 2)
1969-12-31 18:00:14.386049193,(-2 1 1 -1 -2 -3 -2 -3)
1969-12-31 18:00:14.386049193,(-2 0 1 2 1 -1 -3 -3)
1969-12-31 18:00:14.405399573,(1 2 -2 -1 0 -1 0 1)
1969-12-31 18:00:14.405399573,(-2 0 2 -2 -4 -1 -1 -1)
1969-12-31 18:00:14.406279136,(-1 0 -1 -2 -2 -2 -3 -2)
1969-12-31 18:00:14.406279136,(-3 -3 2 -2 -2 0 -1 -1)
1969-12-31 18:00:14.417713451,(1 3 -1 0 0 0 0 0)
1969-12-31 18:00:14.417713451,(-2 -2 1 -2 -1 0 -1 -3)
1969-12-31 18:00:14.418593014,(-1 -2 1 1 1 0 0 1)
1969-12-31 18:00:14.418593014,(-2 -1 -2 -1 -1 -1 0 -1)
1969-12-31 18:00:14.437943394,(0 2 -4 -3 -4 -2 0 -2)
1969-12-31 18:00:14.437943394,(1 1 5 1 1 3 3 2)
1969-12-31 18:00:14.438822957,(-6 -6 -9 -6 -3 -3 -3 -2)
1969-12-31 18:00:14.438822957,(0 -1 0 2 4 2 2 2)
1969-12-31 18:00:14.458173337,(1 3 3 2 -1 0 1 1)
1969-12-31 18:00:14.458173337,(-5 -7 2 2 1 -2 -2 -2)
1969-12-31 18:00:14.459052899,(1 3 4 2 -1 -2 -1 -1)
1969-12-31 18:00:14.459052899,(-1 -1 -7 -7 -6 -2 0 -2)
1969-12-31 18:00:14.470487215,(-3 -6 -5 -6 -2 0 -1 -2)
1969-12-31 18:00:14.470487215,(6 7 11 8 4 0 0 1)
1969-12-31 18:00:14.471366778,(-2 -4 -4 -2 -1 0 -1 -3)
1969-12-31 18:00:14.471366778,(-2 -3 -2 -2 -3 -1 -3 0)
1969-12-31 18:00:14.490717158,(2 5 -2 -5 -3 0 0 0)
1969-12-31 18:00:14.490717158,(-1 -3 -4 -2 -1 1 -1 -1)
1969-12-31 18:00:14.491596720,(-2 -2 -3 -3 -3 -4 -4 -5)
1969-12-31 18:00:14.491596720,(-1 1 5 2 1 0 1 1)
1969-12-31 18:00:14.510947101,(-2 -4 -3 -2 -1 -2 -3 -2)
1969-12-31 18:00:14.510947101,(1 5 0 -1 -1 -2 0 3)
1969-12-31 18:00:14.511826663,(-1 3 6 0 -2 -1 0 0)
1969-12-31 18:00:14.511826663,(-4 -4 -3 1 -1 -2 -3 -4)
1969-12-31 18:00:14.523260979,(-1 2 2 -2 -2 -3 0 0)
1969-12-31 18:00:14.523260979,(-5 -5 -10 -2 4 0 -1 -3)
1969-12-31 18:00:14.524140542,(-3 -4 15 8 2 1 0 1)
1969-12-31 18:00:14.524140542,(-1 -2 -3 -2 -2 0 -1 0)
1969-12-31 18:00:14.543490922,(-1 2 4 2 3 1 1 0)
1969-12-31 18:00:14.543490922,(-3 -5 0 -3 -3 -2 -1 -2)
1969-12-31 18:00:14.544370484,(0 0 -5 -3 -1 0 -1 -1)
1969-12-31 18:00:14.544370484,(3 5 1 0 0 0 0 1)
1969-12-31 18:00:14.544370484,(-2 -2 -4 -6 -5 0 9 0)
1969-12-31 18:00:14.544370484,(-1 0 3 10 15 1 -15 -5)
1969-12-31 18:00:14.546129610,(-2 -4 -4 -4 -9 -9 -3 -1)
1969-12-31 18:00:14.546129610,(-1 -2 0 -2 3 11 -17 -4)
1969-12-31 18:00:14.557563925,(-2 -2 -6 -8 -8 -17 4 0)
1969-12-31 18:00:14.557563925,(-2 -3 -6 -5 -5 1 8 0)
1969-12-31 18:00:14.559323051,(0 -1 2 0 -1 0 1 1)
1969-12-31 18:00:14.559323051,(0 4 4 3 -3 -8 15 -1)
1969-12-31 18:00:14.562841302,(0 -3 -1 -1 1 21 -4 0)
1969-12-31 18:00:14.562841302,(-7 -2 -1 -4 -1 -24 -38 -17)
1969-12-31 18:00:14.570757366,(-1 -4 -8 -6 -5 -7 -1 1)
1969-12-31 18:00:14.570757366,(-3 2 -2 -2 0 -4 4 -2)
1969-12-31 18:00:14.583071245,(1 5 15 10 0 -7 6 0)
1969-12-31 18:00:14.583071245,(0 0 -5 -7 -1 21 20 8)
1969-12-31 18:00:14.589228184,(-1 -2 4 2 2 6 -1 1)
1969-12-31 18:00:14.589228184,(-1 -5 -15 -14 -4 0 -2 -1)
1969-12-31 18:00:14.604180750,(-2 0 4 1 0 1 -4 -1)
1969-12-31 18:00:14.604180750,(1 3 3 5 1 0 3 0)
1969-12-31 18:00:14.605060313,(2 3 13 12 1 -1 -2 0)
1969-12-31 18:00:14.605060313,(-1 -4 -9 -13 -5 2 0 2)
1969-12-31 18:00:14.615615066,(-1 -2 -9 2 2 -3 -8 -2)
1969-12-31 18:00:14.615615066,(-1 -6 -1 -8 -4 -4 -1 -1)
1969-12-31 18:00:14.623531130,(-5 -5 -12 2 -5 0 2 -4)
1969-12-31 18:00:14.623531130,(1 3 6 11 1 -2 -2 -1)
1969-12-31 18:00:14.637604134,(0 -3 -20 -52 -12 -2 -7 -2)
1969-12-31 18:00:14.637604134,(7 13 30 58 15 3 9 2)
1969-12-31 18:00:14.638483697,(-1 4 15 -2 6 4 2 0)
1969-12-31 18:00:14.638483697,(-4 -6 -3 30 4 -2 -5 -5)
1969-12-31 18:00:14.656954514,(-2 -8 -10 4 3 2 3 5)
1969-12-31 18:00:14.656954514,(-4 -1 -21 -41 -14 -4 -2 -7)
1969-12-31 18:00:14.657834077,(-2 -3 -8 -26 -9 -4 -6 -6)
1969-12-31 18:00:14.657834077,(-2 -2 -2 5 0 -5 -5 -3)
1969-12-31 18:00:14.668388830,(-2 -2 -1 -4 -4 -2 -2 -3)
1969-12-31 18:00:14.668388830,(-2 -5 -5 -3 -1 -2 3 1)
1969-12-31 18:00:14.676304894,(0 1 12 12 8 7 4 6)
1969-12-31 18:00:14.676304894,(-2 -4 -4 -15 -4 -1 -3 -2)
1969-12-31 18:00:14.689498335,(-3 -4 -2 5 1 -1 0 -2)
1969-12-31 18:00:14.689498335,(1 1 6 -3 -1 0 -1 2)
1969-12-31 18:00:14.691257461,(0 -2 -10 -7 -3 0 0 -1)
1969-12-31 18:00:14.691257461,(3 7 5 -4 -1 -2 -2 -2)
1969-12-31 18:00:14.709728278,(0 1 7 11 4 -1 -3 -1)
1969-12-31 18:00:14.709728278,(-3 -5 -10 -9 -4 -1 2 3)
1969-12-31 18:00:14.710607841,(-1 -1 -3 0 -1 -2 0 -2)
1969-12-31 18:00:14.710607841,(-2 0 -1 -2 -1 0 0 -1)
1969-12-31 18:00:14.729078658,(-2 2 1 3 -3 -3 -7 -4)
1969-12-31 18:00:14.729078658,(-2 1 -3 -3 -1 0 2 3)
1969-12-31 18:00:14.730837784,(0 1 -7 2 -2 -3 -3 -2)
1969-12-31 18:00:14.730837784,(2 5 4 -1 0 0 1 3)
1969-12-31 18:00:14.742272098,(1 7 11 5 1 0 0 0)
1969-12-31 18:00:14.742272098,(1 1 6 8 1 1 1 0)
1969-12-31 18:00:14.744031224,(-7 -25 -11 1 0 -1 -3 -3)
1969-12-31 18:00:14.744031224,(1 10 -1 -6 -3 -2 1 0)
1969-12-31 18:00:14.762502042,(-1 -7 -15 -3 -1 -1 -2 -2)
1969-12-31 18:00:14.762502042,(-2 1 -3 5 3 2 2 -1)
1969-12-31 18:00:14.764261167,(2 5 12 5 1 -1 -2 2)
1969-12-31 18:00:14.764261167,(-1 -8 1 -1 -2 0 -1 -2)
1969-12-31 18:00:14.773936357,(2 -8 -7 0 -4 -3 -1 0)
1969-12-31 18:00:14.773936357,(10 2 -4 -2 -3 1 3 2)
1969-12-31 18:00:14.781852422,(-16 -7 -5 -4 -2 1 7 8)
1969-12-31 18:00:14.781852422,(-5 -2 0 3 3 0 -5 -10)
1969-12-31 18:00:14.795045863,(-1 -3 0 -1 -3 -4 0 4)
1969-12-31 18:00:14.795045863,(-12 2 4 0 -1 2 6 2)
1969-12-31 18:00:14.796804988,(39 25 2 4 3 2 -3 3)
1969-12-31 18:00:14.796804988,(0 9 9 2 2 -1 -1 10)
1969-12-31 18:00:14.815275806,(-20 -6 -2 -4 -2 0 0 -13)
1969-12-31 18:00:14.815275806,(51 9 -5 -5 3 6 17 50)
1969-12-31 18:00:14.816155368,(-38 -8 0 3 -2 -7 -16 -36)
1969-12-31 18:00:14.816155368,(-30 -32 -12 -8 -6 -4 -3 -7)
1969-12-31 18:00:14.826710121,(15 2 0 6 2 1 1 -6)
1969-12-31 18:00:14.826710121,(14 24 13 7 2 -1 15 16)
1969-12-31 18:00:14.849578752,(-40 -20 -3 1 0 6 -9 -43)
1969-12-31 18:00:14.849578752,(46 16 -2 -4 -1 4 -1 63)
1969-12-31 18:00:14.850458315,(-18 0 3 -1 -1 -5 -11 -29)
1969-12-31 18:00:14.850458315,(2 -3 -3 -4 -3 5 -2 13)
1969-12-31 18:00:14.853097003,(57 37 5 0 -2 -7 19 33)
1969-12-31 18:00:14.853097003,(13 -4 9 7 3 -11 4 -21)
1969-12-31 18:00:14.868049570,(-59 -23 3 6 8 40 10 -14)
1969-12-31 18:00:14.868049570,(22 -2 -8 -5 -3 -8 -21 -37)
1969-12-31 18:00:14.868929132,(-6 -19 -17 -16 -8 -4 6 68)
1969-12-31 18:00:14.868929132,(-8 0 -4 -4 -3 -1 3 -5)
1969-12-31 18:00:14.879483885,(25 22 15 6 6 -9 12 9)
1969-12-31 18:00:14.879483885,(-60 -21 0 3 2 15 2 -36)
1969-12-31 18:00:14.887399950,(12 -2 -1 0 6 25 -15 26)
1969-12-31 18:00:14.887399950,(-29 -4 0 5 -2 -33 -4 -37)
1969-12-31 18:00:14.913786832,(66 -20 -19 -12 -9 -5 7 33)
1969-12-31 18:00:14.913786832,(-27 -6 -5 -7 -9 -22 -11 -16)
1969-12-31 18:00:14.915545957,(-2 -3 6 7 2 -37 19 -27)
1969-12-31 18:00:14.915545957,(4 29 0 -7 -2 41 -6 12)
1969-12-31 18:00:14.920823334,(14 0 -3 -1 -2 -3 -20 7)
1969-12-31 18:00:14.920823334,(-12 -21 -8 -2 1 1 8 27)
1969-12-31 18:00:14.921702896,(-27 -4 6 4 0 6 -6 -48)
1969-12-31 18:00:14.921702896,(72 23 -12 -10 -7 -14 -3 -1)
1969-12-31 18:00:14.932257649,(-77 -19 8 5 1 8 -6 -47)
1969-12-31 18:00:14.932257649,(-26 -28 -5 -3 -6 -24 -12 -10)
1969-12-31 18:00:14.940173714,(-18 18 -7 -5 -8 -4 -22 -44)
1969-12-31 18:00:14.940173714,(-9 -14 -1 4 8 9 13 50)
1969-12-31 18:00:14.953367155,(-11 4 -4 -5 -3 7 -18 -36)
1969-12-31 18:00:14.953367155,(10 0 -1 -1 -3 -3 13 -8)
1969-12-31 18:00:14.955126280,(-17 -20 -5 -1 5 4 -8 3)
1969-12-31 18:00:14.955126280,(49 24 5 0 -3 -17 5 4)
1969-12-31 18:00:14.973597097,(-50 -14 -5 -4 -14 -44 -14 -22)
1969-12-31 18:00:14.973597097,(8 40 24 14 15 15 -28 -5)
1969-12-31 18:00:14.974476660,(-17 -33 -18 -8 -7 1 13 19)
1969-12-31 18:00:14.974476660,(57 18 2 -5 -2 24 11 1)
1969-12-31 18:00:14.992947477,(-2 -22 -5 4 4 -11 12 13)
1969-12-31 18:00:14.992947477,(-9 28 8 4 2 4 -18 -30)
1969-12-31 18:00:14.994706603,(-27 -22 0 0 -2 8 -2 -11)
1969-12-31 18:00:14.994706603,(-99 -52 -18 -6 -5 -14 -40 -78)
1969-12-31 18:00:15.005261356,(35 26 8 2 1 15 11 40)
1969-12-31 18:00:15.005261356,(4 -15 -13 -13 -11 -7 7 13)
1969-12-31 18:00:15.011418295,(53 31 10 2 6 12 24 71)
1969-12-31 18:00:15.011418295,(15 -8 6 13 6 -11 -8 -31)
1969-12-31 18:00:15.026370861,(2 19 1 -4 2 20 23 9)
1969-12-31 18:00:15.026370861,(-6 -33 -14 -2 -6 -41 -45 -33)
1969-12-31 18:00:15.028129987,(-33 -10 0 -1 -2 -6 -4 -9)
1969-12-31 18:00:15.028129987,(-69 -11 0 -4 -7 -10 1 -25)
1969-12-31 18:00:15.037805177,(-24 0 -2 -6 -5 -5 -28 -31)
1969-12-31 18:00:15.037805177,(70 24 -7 -9 -4 21 19 32)
1969-12-31 18:00:15.046600804,(37 18 -1 -5 -8 -11 -12 1)
1969-12-31 18:00:15.046600804,(-3 2 10 4 1 -11 4 41)
1969-12-31 18:00:15.058035120,(-58 -39 -11 1 6 10 -2 -45)
1969-12-31 18:00:15.058035120,(-14 5 -5 -7 -3 0 26 23)
1969-12-31 18:00:15.064192059,(18 -4 -2 -3 -7 -1 -2 33)
1969-12-31 18:00:15.064192059,(-1 37 18 5 1 0 8 33)
1969-12-31 18:00:15.078265063,(38 -14 -13 -7 -3 7 2 76)
1969-12-31 18:00:15.078265063,(5 -25 -2 1 1 -15 2 -37)
1969-12-31 18:00:15.085301564,(-26 2 -7 -4 5 49 20 -9)
1969-12-31 18:00:15.085301564,(31 -6 -3 -2 -8 -20 -9 12)
1969-12-31 18:00:15.090578941,(-24 21 10 5 -3 -5 3 -1)
1969-12-31 18:00:15.090578941,(-15 -16 2 5 4 12 -13 -5)
1969-12-31 18:00:15.105531507,(-14 -17 -8 -4 -1 -18 -15 -79)
1969-12-31 18:00:15.105531507,(27 -2 -15 -13 -8 11 13 23)
1969-12-31 18:00:15.110808884,(15 12 10 8 4 -13 -6 -13)
1969-12-31 18:00:15.110808884,(9 10 0 -2 -1 36 6 30)
1969-12-31 18:00:15.116965823,(-4 21 16 7 3 -22 -18 -61)
1969-12-31 18:00:15.116965823,(-31 -30 -10 -2 1 9 14 8)
1969-12-31 18:00:15.131038826,(-2 22 16 17 21 20 38 29)
1969-12-31 18:00:15.131918389,(-69 -21 -11 -9 -10 -15 -32 -94)
1969-12-31 18:00:15.132797952,(34 24 5 -1 -1 7 22 9)
1969-12-31 18:00:15.132797952,(-10 -29 -20 -14 -10 -4 -13 8)
1969-12-31 18:00:15.143352705,(47 14 8 6 3 4 20 22)
1969-12-31 18:00:15.143352705,(36 2 -2 -6 -6 -11 -14 14)
1969-12-31 18:00:15.151268769,(-22 -12 1 4 4 -7 -22 -6)
1969-12-31 18:00:15.151268769,(-58 -32 5 9 6 -10 -32 -47)
1969-12-31 18:00:15.163582647,(-5 -24 -23 -21 -22 -32 -45 -68)
1969-12-31 18:00:15.163582647,(9 18 10 9 14 29 26 32)
1969-12-31 18:00:15.177655651,(-9 8 3 0 -5 -18 6 -20)
1969-12-31 18:00:15.177655651,(56 14 -4 -7 -2 6 8 47)
1969-12-31 18:00:15.184692153,(37 6 -3 -2 -5 -1 -2 29)
1969-12-31 18:00:15.184692153,(24 -12 -9 -6 -9 -16 3 19)
1969-12-31 18:00:15.185571716,(-18 -4 0 2 3 9 0 2)
1969-12-31 18:00:15.185571716,(-48 -2 4 5 8 12 -7 -28)
1969-12-31 18:00:15.204042533,(21 3 -8 -7 -6 9 24 22)
1969-12-31 18:00:15.204042533,(-59 -13 -4 -5 -9 -31 -43 -57)
1969-12-31 18:00:15.204922096,(34 13 3 1 1 4 0 -17)
1969-12-31 18:00:15.205801659,(11 9 0 -1 5 3 -8 -12)
1969-12-31 18:00:15.223392913,(34 4 1 2 -1 2 -4 14)
1969-12-31 18:00:15.223392913,(11 1 2 3 3 3 -4 0)
1969-12-31 18:00:15.230429415,(52 23 5 1 18 70 -4 40)
1969-12-31 18:00:15.230429415,(-69 -25 -11 -8 -23 -16 5 -18)
1969-12-31 18:00:15.237465917,(21 18 15 6 1 -1 8 31)
1969-12-31 18:00:15.237465917,(-22 -6 -8 -5 -2 -17 -26 -8)
1969-12-31 18:00:15.238345480,(-43 -12 -9 -6 -7 -26 -26 -56)
1969-12-31 18:00:15.238345480,(8 -10 7 6 14 23 27 -19)
1969-12-31 18:00:15.256816297,(23 9 -12 -12 -6 20 29 60)
1969-12-31 18:00:15.256816297,(47 7 13 14 14 19 87 39)
1969-12-31 18:00:15.258575423,(-22 -5 6 8 -7 -56 -13 12)
1969-12-31 18:00:15.258575423,(-1 17 10 9 14 -15 -54 -43)
1969-12-31 18:00:15.270009738,(-59 -23 -9 -14 -22 -12 -10 -47)
1969-12-31 18:00:15.270009738,(-16 -15 -11 -2 -5 -6 -5 -14)
1969-12-31 18:00:15.277046240,(11 2 -4 -6 -5 3 39 91)
1969-12-31 18:00:15.277046240,(5 14 -11 -17 -13 16 7 -18)
1969-12-31 18:00:15.290239681,(-69 -28 10 13 4 -66 -50 -32)
1969-12-31 18:00:15.290239681,(-46 -40 -21 -11 6 32 -8 6)
1969-12-31 18:00:15.291119244,(-11 -12 4 20 7 -40 -17 -36)
1969-12-31 18:00:15.291119244,(35 35 18 7 -8 16 34 48)
1969-12-31 18:00:15.309590061,(27 2 -6 -17 14 23 1 13)
1969-12-31 18:00:15.309590061,(-70 22 22 14 -1 -8 29 -21)
1969-12-31 18:00:15.311349186,(38 -20 -17 -4 12 3 -45 -5)
1969-12-31 18:00:15.311349186,(-15 -9 -1 -4 -13 -19 10 -8)
1969-12-31 18:00:15.321903939,(31 20 1 -12 -9 41 2 -19)
1969-12-31 18:00:15.321903939,(8 -3 -1 -9 -4 7 -4 29)
1969-12-31 18:00:15.329820004,(-31 22 15 12 5 14 55 -9)
1969-12-31 18:00:15.329820004,(24 15 10 30 30 -24 -57 -42)
1969-12-31 18:00:15.342133882,(-50 0 -1 12 29 26 -37 -59)
1969-12-31 18:00:15.342133882,(1 -32 -24 -33 -40 13 26 -3)
1969-12-31 18:00:15.343893007,(30 -8 -3 -7 -3 -1 7 51)
1969-12-31 18:00:15.343893007,(-36 -20 -16 -20 -36 -13 7 -25)
1969-12-31 18:00:15.362363825,(-21 -3 3 21 19 -40 -7 -46)
1969-12-31 18:00:15.362363825,(48 33 11 10 33 16 -2 31)
1969-12-31 18:00:15.364122950,(8 -1 -5 -25 -22 9 10 14)
1969-12-31 18:00:15.364122950,(28 -11 5 8 28 39 46 82)
1969-12-31 18:00:15.374677703,(59 13 0 -6 -22 -12 -10 1)
1969-12-31 18:00:15.374677703,(-9 2 -16 -14 -19 -25 -11 -27)
1969-12-31 18:00:15.382593768,(-21 -32 -7 -5 -14 -22 -34 -60)
1969-12-31 18:00:15.382593768,(6 24 1 6 13 21 -18 -3)
1969-12-31 18:00:15.401944148,(-47 -12 5 8 7 16 5 -6)
1969-12-31 18:00:15.401944148,(3 -19 -6 -10 5 12 -2 -1)
1969-12-31 18:00:15.403703273,(-24 9 -1 1 -16 -18 3 -18)
1969-12-31 18:00:15.403703273,(-3 -5 -4 -11 7 24 15 3)
1969-12-31 18:00:15.415137589,(5 4 0 9 -3 -31 4 34)
1969-12-31 18:00:15.415137589,(-24 -11 3 5 10 9 -9 3)
1969-12-31 18:00:15.416896714,(12 4 -4 5 23 43 22 19)
1969-12-31 18:00:15.416896714,(4 17 22 8 -4 -27 -3 12)
1969-12-31 18:00:15.427451467,(0 -29 -25 -18 -7 5 -27 -26)
1969-12-31 18:00:15.427451467,(2 9 5 8 -11 -52 -11 -18)
1969-12-31 18:00:15.435367532,(11 1 3 7 7 21 -2 7)
1969-12-31 18:00:15.435367532,(19 6 4 21 34 -3 -2 -1)
1969-12-31 18:00:15.449440535,(13 -31 -56 -42 -66 -18 8 31)
1969-12-31 18:00:15.449440535,(-24 26 50 30 36 10 -5 -46)
1969-12-31 18:00:15.450320098,(-36 -6 -26 -40 -36 8 -8 -2)
1969-12-31 18:00:15.450320098,(10 18 14 -17 -30 -24 2 7)
1969-12-31 18:00:15.467911353,(16 -52 -19 20 25 -6 16 81)
1969-12-31 18:00:15.467911353,(-43 -75 -117 -42 -42 -3 -16 -13)
1969-12-31 18:00:15.469670478,(11 87 98 49 35 7 9 3)
1969-12-31 18:00:15.469670478,(-17 -14 9 9 25 57 29 -14)
1969-12-31 18:00:15.480225231,(45 30 -8 8 -7 -31 -6 0)
1969-12-31 18:00:15.480225231,(45 35 49 22 18 -3 -9 12)
1969-12-31 18:00:15.488141295,(-8 -27 -20 -1 7 17 1 -21)
1969-12-31 18:00:15.488141295,(-40 -18 -35 -30 -36 -50 -32 -38)
1969-12-31 18:00:15.501334735,(-28 -35 12 12 15 13 4 -19)
1969-12-31 18:00:15.501334735,(15 -3 -13 25 1 -19 3 5)
1969-12-31 18:00:15.502214299,(25 38 9 -32 -27 -7 -3 19)
1969-12-31 18:00:15.502214299,(-16 -36 -10 -17 -3 29 17 30)
1969-12-31 18:00:15.520685117,(-10 -23 -37 -16 11 18 11 -26)
1969-12-31 18:00:15.520685117,(-19 -61 -30 -18 -8 -10 1 -23)
1969-12-31 18:00:15.522444242,(-42 -102 -103 -16 -10 -42 5 9)
1969-12-31 18:00:15.522444242,(29 71 73 50 26 26 3 -2)
1969-12-31 18:00:15.532998995,(-6 110 94 19 -2 40 12 -5)
1969-12-31 18:00:15.532998995,(17 29 34 19 6 -12 -1 14)
1969-12-31 18:00:15.540035497,(0 -82 -65 -11 1 9 1 22)
1969-12-31 18:00:15.540035497,(-38 -120 -96 -24 0 -40 -24 -48)
1969-12-31 18:00:15.553228938,(-34 45 5 -18 -65 -54 -12 -20)
1969-12-31 18:00:15.553228938,(-15 78 58 18 7 22 6 -38)
1969-12-31 18:00:15.560265439,(-21 -49 -26 -23 5 36 -1 -3)
1969-12-31 18:00:15.560265439,(15 -6 -11 -1 -10 -3 -3 2)
1969-12-31 18:00:15.573458880,(1 -54 -32 -6 7 -9 -12 -9)
1969-12-31 18:00:15.573458880,(-32 -96 -67 -19 2 2 20 4)
1969-12-31 18:00:15.575218006,(55 107 37 13 -12 -42 -36 -35)
1969-12-31 18:00:15.575218006,(3 90 83 67 40 19 25 11)
1969-12-31 18:00:15.585772759,(29 -93 -94 -42 -47 6 29 66)
1969-12-31 18:00:15.585772759,(19 115 76 26 28 0 -35 -35)
1969-12-31 18:00:15.591929698,(-17 -128 -75 -13 0 -15 3 10)
1969-12-31 18:00:15.591929698,(72 97 60 9 10 24 -1 18)
1969-12-31 18:00:15.606882264,(41 125 127 49 15 -5 16 29)
1969-12-31 18:00:15.606882264,(62 -116 -128 -59 -26 4 2 81)
1969-12-31 18:00:15.607761827,(48 127 127 45 3 -9 13 36)
1969-12-31 18:00:15.607761827,(-2 -26 -55 -19 -20 -44 -25 -3)
1969-12-31 18:00:15.626232644,(-15 -82 -40 -19 9 17 -7 5)
1969-12-31 18:00:15.626232644,(-10 43 35 13 -1 7 22 23)
1969-12-31 18:00:15.627991770,(-28 -20 9 11 2 4 -7 -49)
1969-12-31 18:00:15.627991770,(-55 -110 -115 -45 -21 -4 4 -10)
1969-12-31 18:00:15.638546523,(53 85 27 -6 17 9 -10 -3)
1969-12-31 18:00:15.638546523,(42 7 20 30 42 -12 15 33)
1969-12-31 18:00:15.646462587,(-106 -65 -17 -28 -35 10 3 -60)
1969-12-31 18:00:15.646462587,(-53 -86 -77 -24 2 17 -4 -61)
1969-12-31 18:00:15.658776465,(1 -8 -52 -26 -11 -6 -17 6)
1969-12-31 18:00:15.658776465,(39 104 103 72 20 -17 -12 11)
1969-12-31 18:00:15.660535591,(-8 71 64 14 3 3 -4 5)
1969-12-31 18:00:15.660535591,(56 -15 8 1 8 35 47 82)
1969-12-31 18:00:15.679006408,(-94 -90 -55 -14 -3 -28 -39 -79)
1969-12-31 18:00:15.679006408,(-23 -104 -107 -56 -40 -45 -14 -18)
1969-12-31 18:00:15.680765534,(11 23 -41 -27 -14 24 -23 -14)
1969-12-31 18:00:15.680765534,(-16 59 57 15 -43 -22 0 -13)
1969-12-31 18:00:15.691320286,(49 -50 -52 4 15 15 10 -37)
1969-12-31 18:00:15.691320286,(5 -3 12 19 13 6 -12 -14)
1969-12-31 18:00:15.699236351,(-15 -102 -68 -19 3 -21 -1 19)
1969-12-31 18:00:15.699236351,(-17 -77 -67 -19 2 -2 -13 -18)
1969-12-31 18:00:15.711550229,(17 127 109 56 45 17 31 49)
1969-12-31 18:00:15.711550229,(56 -53 -36 -38 -54 10 5 41)
1969-12-31 18:00:15.717707168,(-25 -81 -103 -37 0 -9 -23 -39)
1969-12-31 18:00:15.717707168,(32 127 98 16 21 28 -2 3)
1969-12-31 18:00:15.731780172,(-20 -76 -34 -6 -8 -7 -2 -9)
1969-12-31 18:00:15.731780172,(-33 -80 -88 -30 -7 23 32 67)
1969-12-31 18:00:15.733539298,(70 127 127 88 54 0 2 10)
1969-12-31 18:00:15.733539298,(-70 -128 -128 -46 -27 -22 -11 -13)
1969-12-31 18:00:15.744094050,(-40 27 -16 -10 -2 -6 -19 -58)
1969-12-31 18:00:15.744094050,(-22 127 113 35 13 13 4 -72)
1969-12-31 18:00:15.752010115,(0 -93 -73 -12 -11 -24 15 35)
1969-12-31 18:00:15.752010115,(-13 -57 -32 -18 -17 -18 -25 -24)
1969-12-31 18:00:15.764323993,(33 77 70 35 47 29 24 43)
1969-12-31 18:00:15.764323993,(1 -47 -19 -8 -16 22 -22 -42)
1969-12-31 18:00:15.766083119,(-34 26 13 1 -3 6 2 -25)
1969-12-31 18:00:15.766083119,(47 10 15 2 0 -10 35 102)
1969-12-31 18:00:15.784553936,(-48 -105 -50 1 6 -22 -27 -37)
1969-12-31 18:00:15.784553936,(-44 -16 3 -1 3 26 -6 -26)
1969-12-31 18:00:15.786313062,(18 -24 0 -6 0 -7 8 41)
1969-12-31 18:00:15.786313062,(17 74 3 -32 -42 -26 -24 -16)
1969-12-31 18:00:15.796867814,(23 21 23 4 -17 -5 2 16)
1969-12-31 18:00:15.796867814,(-47 -107 -106 -38 -6 -16 -16 -21)
1969-12-31 18:00:15.817977320,(-8 66 33 19 15 17 15 6)
1969-12-31 18:00:15.817977320,(-21 -15 -38 5 5 -22 -9 0)
1969-12-31 18:00:15.817977320,(34 109 108 55 15 -1 -2 2)
1969-12-31 18:00:15.817977320,(-5 24 34 -3 -5 38 23 11)
1969-12-31 18:00:15.823254696,(31 -73 -60 2 2 5 18 45)
1969-12-31 18:00:15.823254696,(24 -34 6 -3 3 -21 -17 -21)
1969-12-31 18:00:15.837327700,(-35 -66 -83 -27 3 25 13 12)
1969-12-31 18:00:15.837327700,(37 100 53 13 14 -16 -8 13)
1969-12-31 18:00:15.839086825,(9 -4 5 -13 -39 -3 11 8)
1969-12-31 18:00:15.839086825,(-35 -29 17 22 25 -27 -45 -72)
1969-12-31 18:00:15.848762015,(26 -79 -39 -26 -19 -25 8 36)
1969-12-31 18:00:15.849641578,(14 -62 -54 -28 -53 -25 -6 17)
1969-12-31 18:00:15.857557643,(10 -12 -16 -29 9 18 3 25)
1969-12-31 18:00:15.857557643,(52 93 66 49 14 12 5 3)
1969-12-31 18:00:15.870751084,(-10 -59 -30 -8 -2 12 -7 -24)
1969-12-31 18:00:15.870751084,(-24 14 -4 -3 8 -1 -2 -13)
1969-12-31 18:00:15.871630646,(2 30 27 28 8 -44 -19 -23)
1969-12-31 18:00:15.871630646,(-43 -128 -96 -51 1 50 14 1)
1969-12-31 18:00:15.890101464,(22 109 48 14 6 13 29 12)
1969-12-31 18:00:15.890101464,(-16 13 17 31 21 14 -2 4)
1969-12-31 18:00:15.891860589,(6 1 -5 -11 -25 -28 -34 -44)
1969-12-31 18:00:15.891860589,(63 20 7 -2 18 9 14 38)
1969-12-31 18:00:15.902415342,(-36 -33 -36 -24 -7 -22 -19 -37)
1969-12-31 18:00:15.902415342,(20 32 36 8 21 9 19 34)
1969-12-31 18:00:15.910331407,(2 -43 -5 3 -22 5 3 14)
1969-12-31 18:00:15.910331407,(18 24 -30 -23 -18 -2 -9 -34)
1969-12-31 18:00:15.922645285,(69 59 36 5 -4 8 14 48)
1969-12-31 18:00:15.922645285,(-16 51 63 22 10 -13 16 1)
1969-12-31 18:00:15.928802224,(24 19 0 1 -2 1 6 6)
1969-12-31 18:00:15.928802224,(27 41 43 27 17 16 13 39)
1969-12-31 18:00:15.942875228,(-38 -128 -58 6 12 -16 -12 -48)
1969-12-31 18:00:15.942875228,(-15 22 -25 -23 -9 -4 -12 -23)
1969-12-31 18:00:15.944634353,(-59 -1 26 30 44 -2 6 -22)
1969-12-31 18:00:15.944634353,(-5 -11 -12 -2 -14 -22 -11 -12)
1969-12-31 18:00:15.955189106,(-15 50 18 10 34 53 10 -17)
1969-12-31 18:00:15.955189106,(7 -77 -61 -43 -30 -14 2 0)
1969-12-31 18:00:15.969262110,(-26 44 39 2 8 5 -16 -28)
1969-12-31 18:00:15.969262110,(-1 86 91 44 18 2 27 43)
1969-12-31 18:00:15.975419049,(-45 -115 -95 -44 -31 -29 -17 -11)
1969-12-31 18:00:15.975419049,(15 105 77 58 65 -3 -20 -12)
1969-12-31 18:00:15.981575988,(-55 -119 -128 -57 -12 -6 -10 -9)
1969-12-31 18:00:15.981575988,(-28 103 80 -13 -92 -42 -22 -31)
1969-12-31 18:00:15.995648992,(63 80 71 15 -1 1 6 54)
1969-12-31 18:00:15.995648992,(0 -91 -66 -8 10 24 8 23)
1969-12-31 18:00:15.997408117,(34 -29 -20 -10 6 11 8 5)
1969-12-31 18:00:15.997408117,(-80 -90 -102 -31 -44 -35 -48 -84)
1969-12-31 18:00:16.015878933,(-13 27 16 15 13 19 18 9)
1969-12-31 18:00:16.015878933,(56 68 70 17 -2 6 11 56)
1969-12-31 18:00:16.016758497,(24 -20 5 0 -3 -2 19 47)
1969-12-31 18:00:16.016758497,(-12 -56 -33 3 -9 -30 -9 -11)
1969-12-31 18:00:16.028192813,(-3 -6 -18 -12 -21 4 15 -3)
1969-12-31 18:00:16.028192813,(-24 84 75 26 35 13 -9 -34)
1969-12-31 18:00:16.034349752,(-12 -14 -4 -16 -15 2 -20 -47)
1969-12-31 18:00:16.034349752,(42 -30 -7 1 24 -1 21 45)
1969-12-31 18:00:16.049302318,(-27 -50 -30 1 6 -2 -24 -39)
1969-12-31 18:00:16.049302318,(-14 -67 -66 -37 -33 -8 2 0)
1969-12-31 18:00:16.050181881,(5 85 39 14 -3 -22 -15 -26)
1969-12-31 18:00:16.050181881,(9 -68 -64 -20 -7 6 4 26)
1969-12-31 18:00:16.068652698,(-14 71 69 21 9 7 1 6)
1969-12-31 18:00:16.068652698,(-2 -8 -24 14 3 5 -6 21)
1969-12-31 18:00:16.069532261,(39 -20 -39 -10 -1 -16 18 18)
1969-12-31 18:00:16.069532261,(23 107 119 60 50 31 -1 -5)
1969-12-31 18:00:16.080966577,(-45 -120 -83 -43 -32 -9 -5 -18)
1969-12-31 18:00:16.080966577,(23 -75 -80 -50 -44 -21 2 15)
1969-12-31 18:00:16.087123516,(15 90 91 38 30 17 10 23)
1969-12-31 18:00:16.087123516,(-8 9 -2 3 26 -3 -14 -47)
1969-12-31 18:00:16.101196519,(6 7 48 24 -1 1 17 40)
1969-12-31 18:00:16.101196519,(35 -64 -47 -3 12 0 1 1)
1969-12-31 18:00:16.102076082,(-3 51 21 -6 -4 -15 -5 -16)
1969-12-31 18:00:16.102955645,(-7 76 84 23 -8 19 14 20)
1969-12-31 18:00:16.121426462,(-50 -45 -75 -34 -4 -6 -30 -23)
1969-12-31 18:00:16.121426462,(68 64 67 30 4 -16 16 13)
1969-12-31 18:00:16.122306025,(-33 -100 -25 -2 -12 7 5 21)
1969-12-31 18:00:16.122306025,(-20 -67 -89 -49 -2 -5 -6 -5)
1969-12-31 18:00:16.133740341,(32 52 74 45 21 -5 13 38)
1969-12-31 18:00:16.133740341,(-2 62 51 14 18 -9 -18 -41)
1969-12-31 18:00:16.139897280,(-28 -46 -31 3 -19 36 7 5)
1969-12-31 18:00:16.139897280,(51 14 1 -18 -30 -17 12 24)
1969-12-31 18:00:16.153090721,(13 -96 -93 -21 13 -2 2 26)
1969-12-31 18:00:16.153090721,(-29 -74 -71 -27 -38 -24 -9 -8)
1969-12-31 18:00:16.161006785,(39 127 97 36 21 -13 -2 26)
1969-12-31 18:00:16.161006785,(-57 -97 -58 -1 32 39 12 -15)
1969-12-31 18:00:16.174200226,(15 1 -46 -41 -43 -20 -18 -18)
1969-12-31 18:00:16.174200226,(0 127 107 42 22 11 14 0)
1969-12-31 18:00:16.175959352,(-25 -128 -118 -48 -42 -32 -23 -11)
1969-12-31 18:00:16.175959352,(-47 79 28 33 60 0 3 -12)
1969-12-31 18:00:16.186514104,(14 62 33 -13 -59 -24 -16 -3)
1969-12-31 18:00:16.186514104,(5 -128 -99 -34 -23 16 10 20)
1969-12-31 18:00:16.192671044,(3 66 45 5 9 9 -8 -38)
1969-12-31 18:00:16.192671044,(-44 -53 17 3 19 11 9 0)
1969-12-31 18:00:16.207623610,(19 -50 -40 -7 20 -11 0 28)
1969-12-31 18:00:16.207623610,(-36 41 5 -9 -14 -21 -21 -31)
1969-12-31 18:00:16.208503173,(7 -9 -14 42 49 29 7 -7)
1969-12-31 18:00:16.208503173,(33 -60 -62 -50 -45 2 -16 -19)
1969-12-31 18:00:16.226973990,(-2 117 127 57 13 14 35 2)
1969-12-31 18:00:16.226973990,(5 -63 -51 -14 -3 -11 -25 -5)
1969-12-31 18:00:16.227853553,(3 -51 -89 -52 -20 -10 -8 -15)
1969-12-31 18:00:16.227853553,(69 104 109 58 16 -17 13 47)
1969-12-31 18:00:16.238408306,(-19 -76 -63 -18 16 24 -9 -48)
1969-12-31 18:00:16.238408306,(-17 -26 -14 0 -48 -3 -8 -19)
1969-12-31 18:00:16.246324370,(18 -51 -18 0 -7 -4 30 53)
1969-12-31 18:00:16.246324370,(-1 26 -32 -38 -14 11 3 0)
1969-12-31 18:00:16.260397374,(0 71 60 14 -4 -25 -29 -33)
1969-12-31 18:00:16.260397374,(-50 24 40 32 58 -1 7 17)
1969-12-31 18:00:16.261276937,(-34 -34 -50 -15 -33 -12 -26 -28)
1969-12-31 18:00:16.261276937,(-35 44 55 0 -27 5 10 -22)
1969-12-31 18:00:16.279747754,(17 -53 -52 -8 12 -18 3 37)
1969-12-31 18:00:16.279747754,(44 100 81 11 -9 6 27 30)
1969-12-31 18:00:16.280627317,(-7 -47 -64 -17 2 -5 -31 -39)
1969-12-31 18:00:16.280627317,(52 86 77 45 37 20 17 31)
1969-12-31 18:00:16.298218571,(-32 -16 -22 -37 -31 0 2 -44)
1969-12-31 18:00:16.298218571,(16 6 16 37 9 -18 -8 13)
1969-12-31 18:00:16.306134636,(-8 28 26 -14 -1 27 15 0)
1969-12-31 18:00:16.306134636,(3 -27 -25 8 -6 -1 -8 -34)
1969-12-31 18:00:16.312291575,(-32 -106 -83 -7 26 -25 -23 -1)
1969-12-31 18:00:16.312291575,(-24 -10 -27 1 6 51 2 -16)
1969-12-31 18:00:16.314050701,(12 89 55 -17 -18 -12 -6 -46)
1969-12-31 18:00:16.314050701,(-37 -49 -40 -2 -1 6 5 31)
1969-12-31 18:00:16.332521518,(-14 -22 6 -10 -33 -12 -5 -8)
1969-12-31 18:00:16.332521518,(-42 -128 -87 -22 11 -10 -2 -19)
1969-12-31 18:00:16.334280643,(8 -80 -17 -4 -11 14 11 15)
1969-12-31 18:00:16.334280643,(31 66 23 4 -17 -19 -18 2)
1969-12-31 18:00:16.343955833,(13 -84 -79 -14 0 22 12 60)
1969-12-31 18:00:16.343955833,(-28 51 94 38 14 11 5 -21)
1969-12-31 18:00:16.351871898,(1 43 41 22 17 -4 -9 3)
1969-12-31 18:00:16.351871898,(-38 -128 -128 -37 7 -1 16 -1)
1969-12-31 18:00:16.365065339,(35 117 32 16 7 12 16 51)
1969-12-31 18:00:16.365065339,(-26 11 19 -28 -20 -10 -22 -66)
1969-12-31 18:00:16.366824464,(17 91 54 53 23 -3 3 35)
1969-12-31 18:00:16.366824464,(-66 -37 -9 33 62 1 -1 -33)
1969-12-31 18:00:16.385295282,(14 -18 6 4 -31 34 19 38)
1969-12-31 18:00:16.385295282,(-2 -112 -94 -80 -51 -17 -5 14)
1969-12-31 18:00:16.386174845,(-12 5 8 -8 -5 -26 -21 -35)
1969-12-31 18:00:16.386174845,(53 13 -28 -7 -6 24 32 79)
1969-12-31 18:00:16.396729597,(5 117 127 67 40 0 -10 -54)
1969-12-31 18:00:16.396729597,(9 -37 -71 -18 8 -7 -10 20)
1969-12-31 18:00:16.404645662,(-22 20 55 15 -35 1 30 18)
1969-12-31 18:00:16.404645662,(24 -80 -69 -32 -40 -11 27 45)
1969-12-31 18:00:16.418718666,(-11 -81 -40 -25 2 1 -9 -18)
1969-12-31 18:00:16.418718666,(36 113 101 33 -7 -11 11 37)
1969-12-31 18:00:16.423116479,(26 -96 -76 3 51 -2 -18 4)
1969-12-31 18:00:16.423116479,(-23 -30 -30 -20 -18 24 -4 -16)
1969-12-31 18:00:16.438069046,(58 101 103 49 12 9 20 21)
1969-12-31 18:00:16.438069046,(-89 -128 -128 -34 -5 -35 -26 -81)
1969-12-31 18:00:16.438948608,(6 -9 -40 -19 -16 1 -11 -18)
1969-12-31 18:00:16.438948608,(87 83 103 53 17 14 32 44)
1969-12-31 18:00:16.449503361,(-37 -3 -50 -30 -6 -8 -37 -36)
1969-12-31 18:00:16.449503361,(15 -12 3 21 25 30 30 37)
1969-12-31 18:00:16.462696802,(0 -54 -66 -18 8 -23 -18 -17)
1969-12-31 18:00:16.462696802,(-27 0 37 -30 -48 -23 -25 -21)
1969-12-31 18:00:16.470612867,(-16 62 33 1 -24 -7 8 -23)
1969-12-31 18:00:16.470612867,(56 123 82 44 23 -17 -9 -10)
1969-12-31 18:00:16.472371992,(11 62 42 18 28 54 33 53)
1969-12-31 18:00:16.472371992,(-5 10 7 15 0 -20 -46 -45)
1969-12-31 18:00:16.490842810,(-32 -94 -78 -39 2 -2 4 -19)
1969-12-31 18:00:16.490842810,(-17 3 32 -13 -38 1 -5 -24)
1969-12-31 18:00:16.491722372,(22 52 33 1 -11 6 29 63)
1969-12-31 18:00:16.491722372,(24 -13 -51 -15 -7 -4 -9 -12)
1969-12-31 18:00:16.510193190,(27 90 97 48 29 0 5 4)
1969-12-31 18:00:16.510193190,(-17 -80 -76 -16 10 14 1 -7)
1969-12-31 18:00:16.511952315,(-43 -28 3 0 -5 -15 -19 -39)
1969-12-31 18:00:16.511952315,(-5 -28 -25 -1 8 -15 -5 2)
1969-12-31 18:00:16.523386631,(-15 -109 -109 -54 -35 8 18 -21)
1969-12-31 18:00:16.523386631,(-23 3 49 17 6 -18 -25 -19)
1969-12-31 18:00:16.525145756,(-15 82 32 2 8 1 -15 -37)
1969-12-31 18:00:16.525145756,(-26 -52 6 35 57 24 2 -4)
1969-12-31 18:00:16.542737011,(25 42 -1 -49 -67 -19 -24 0)
1969-12-31 18:00:16.542737011,(-9 -14 -27 -17 1 1 15 -3)
1969-12-31 18:00:16.544496136,(-37 -128 -101 -52 -39 -19 -20 -29)
1969-12-31 18:00:16.544496136,(-16 88 72 42 19 -22 -18 -27)
1969-12-31 18:00:16.555050889,(16 -18 -25 42 52 13 -8 -22)
1969-12-31 18:00:16.555050889,(24 -59 -55 -35 -22 22 5 19)
1969-12-31 18:00:16.562966954,(32 112 117 71 32 10 8 30)
1969-12-31 18:00:16.562966954,(-38 -67 -70 -28 -38 -20 -11 1)
1969-12-31 18:00:16.576160395,(32 -9 -5 1 17 -3 -17 -11)
1969-12-31 18:00:16.576160395,(-7 -22 -43 -23 -31 -10 -9 1)
1969-12-31 18:00:16.577919520,(32 -73 -54 2 45 3 6 11)
1969-12-31 18:00:16.577919520,(-49 77 48 -22 -60 -8 -4 -45)
1969-12-31 18:00:16.596390337,(-6 -29 -16 -4 7 23 -11 -28)
1969-12-31 18:00:16.596390337,(27 -26 -28 -19 4 -10 -2 0)
1969-12-31 18:00:16.597269900,(-10 -52 -68 -22 -10 19 21 27)
1969-12-31 18:00:16.597269900,(23 70 53 37 51 41 6 -16)
1969-12-31 18:00:16.607824653,(10 -68 -80 -5 -15 -82 -10 38)
1969-12-31 18:00:16.607824653,(49 127 119 44 15 31 3 15)
1969-12-31 18:00:16.621018094,(-17 -14 40 8 -16 -2 0 -15)
1969-12-31 18:00:16.621018094,(18 -38 -73 -31 -21 -12 -2 2)
1969-12-31 18:00:16.628934158,(-15 81 102 41 33 16 -15 -39)
1969-12-31 18:00:16.628934158,(-12 -6 0 4 5 -16 1 11)
1969-12-31 18:00:16.630693284,(-25 -67 -85 -19 -5 -31 -34 -58)
1969-12-31 18:00:16.630693284,(-40 -128 -92 -74 -37 1 -2 -17)
1969-12-31 18:00:16.649164101,(-19 58 46 0 -16 11 14 4)
1969-12-31 18:00:16.649164101,(-15 -25 -25 13 5 15 4 8)
1969-12-31 18:00:16.650043664,(41 -51 -26 -19 3 11 2 25)
1969-12-31 18:00:16.650043664,(35 102 56 14 9 2 24 30)
1969-12-31 18:00:16.667634919,(-5 -50 5 22 24 1 32 69)
1969-12-31 18:00:16.667634919,(-34 12 -12 -15 -6 2 -19 -35)
1969-12-31 18:00:16.668514481,(2 44 24 20 -24 -27 -4 -4)
1969-12-31 18:00:16.668514481,(-34 -80 -24 3 19 3 0 16)
1969-12-31 18:00:16.680828360,(-8 -55 -79 -62 -49 -28 -7 9)
1969-12-31 18:00:16.680828360,(17 107 89 42 30 20 23 24)
1969-12-31 18:00:16.681707922,(-61 -47 -44 10 14 4 5 0)
1969-12-31 18:00:16.681707922,(28 -12 12 14 -16 4 -16 -34)
1969-12-31 18:00:16.701058302,(-39 -59 -52 -28 23 0 5 11)
1969-12-31 18:00:16.701058302,(-18 -90 -73 -25 9 35 14 0)
1969-12-31 18:00:16.701937865,(22 22 18 -28 -68 0 7 24)
1969-12-31 18:00:16.701937865,(25 29 -9 -1 16 16 -8 -3)
1969-12-31 18:00:16.720408683,(14 8 31 36 9 -8 7 11)
1969-12-31 18:00:16.720408683,(22 -66 -25 -12 -2 -11 -15 -9)
1969-12-31 18:00:16.721288245,(-10 23 -39 -42 0 -27 -15 -15)
1969-12-31 18:00:16.721288245,(46 56 64 64 25 -3 10 41)
1969-12-31 18:00:16.733602124,(9 -26 -29 9 4 14 11 -11)
1969-12-31 18:00:16.733602124,(19 23 19 31 -10 5 24 46)
1969-12-31 18:00:16.740638625,(-2 -67 -30 -16 1 7 16 -9)
1969-12-31 18:00:16.740638625,(-25 -128 -128 -75 -19 -9 -25 -13)
1969-12-31 18:00:16.753832066,(-26 127 127 53 17 9 -1 -4)
1969-12-31 18:00:16.753832066,(79 54 39 43 21 -7 3 46)
1969-12-31 18:00:16.754711629,(11 -40 -64 -4 4 -3 -12 2)
1969-12-31 18:00:16.754711629,(46 -76 -39 -27 -22 -20 -6 17)
1969-12-31 18:00:16.773182446,(8 52 58 0 -9 29 27 25)
1969-12-31 18:00:16.773182446,(-21 -35 -54 -21 10 -49 -18 -29)
1969-12-31 18:00:16.774062009,(20 61 70 3 -47 34 57 63)
1969-12-31 18:00:16.774062009,(-50 -28 -32 -19 -20 -40 -52 -87)
1969-12-31 18:00:16.793412389,(-15 -128 -126 -49 -15 -9 -9 -14)
1969-12-31 18:00:16.793412389,(9 98 94 35 26 28 11 -2)
1969-12-31 18:00:16.794291952,(11 -5 -24 8 19 -10 -13 -12)
1969-12-31 18:00:16.794291952,(-31 32 66 40 12 7 33 68)
1969-12-31 18:00:16.806605830,(6 43 35 49 73 12 -23 -43)
1969-12-31 18:00:16.806605830,(40 -9 -31 -36 -73 -34 -2 4)
1969-12-31 18:00:16.806605830,(-69 -34 -24 -35 -44 0 -20 -40)
1969-12-31 18:00:16.807485393,(4 67 35 -15 -1 3 0 -5)
1969-12-31 18:00:16.825956210,(-16 53 58 33 7 2 2 3)
1969-12-31 18:00:16.825956210,(-24 -41 -50 11 27 -13 -23 -31)
1969-12-31 18:00:16.826835773,(62 81 99 54 45 29 27 57)
