time,.data
1969-12-31 18:00:05.828000000,(0 3 4 -2 -5 0 2 1)
1969-12-31 18:00:05.828000000,(4 3 -2 1 3 3 0 2)
1969-12-31 18:00:05.843552100,(0 -4 -6 3 -3 -2 -2 -2)
1969-12-31 18:00:05.843552100,(-7 -4 -8 -12 -3 0 -2 -5)
1969-12-31 18:00:05.852883359,(1 0 6 5 11 -3 1 3)
1969-12-31 18:00:05.852883359,(-1 3 4 6 -1 5 2 0)
1969-12-31 18:00:05.853920166,(-1 2 7 7 22 4 -1 -1)
1969-12-31 18:00:05.853920166,(-4 -4 -8 -12 -22 -4 0 -2)
1969-12-31 18:00:05.866361846,(1 -1 -3 2 -3 -1 -3 -2)
1969-12-31 18:00:05.866361846,(-1 2 12 15 22 5 4 2)
1969-12-31 18:00:05.875693105,(5 6 -10 -6 -1 -4 -3 0)
1969-12-31 18:00:05.875693105,(0 1 20 29 16 7 3 4)
1969-12-31 18:00:05.891245205,(-4 -2 -7 -12 -10 -1 1 0)
1969-12-31 18:00:05.891245205,(-2 -6 -10 -20 -22 -11 -6 -5)
1969-12-31 18:00:05.897466045,(-3 -1 2 -11 -14 -11 -7 -3)
1969-12-31 18:00:05.897466045,(7 4 -21 -38 -10 -1 5 4)
1969-12-31 18:00:05.915091757,(2 -2 0 33 8 -3 -5 3)
1969-12-31 18:00:05.915091757,(-9 -5 16 38 -10 -1 2 -5)
1969-12-31 18:00:05.916128564,(-1 -5 -7 -36 34 4 1 0)
1969-12-31 18:00:05.916128564,(-6 -6 7 19 -21 -6 -9 -6)
1969-12-31 18:00:05.928570244,(4 6 -13 -18 7 8 7 5)
1969-12-31 18:00:05.928570244,(-6 -16 -24 -12 -9 -2 -1 -4)
1969-12-31 18:00:05.937901503,(-6 0 29 25 -11 -3 -3 -4)
1969-12-31 18:00:05.937901503,(5 8 8 -21 8 3 6 7)
1969-12-31 18:00:05.953453603,(8 9 10 6 -9 -4 0 4)
1969-12-31 18:00:05.953453603,(8 5 -8 -3 6 12 7 6)
1969-12-31 18:00:05.959674443,(-1 -7 -15 -2 11 -3 -2 0)
1969-12-31 18:00:05.959674443,(-4 -8 -13 -51 -16 -5 -4 -5)
1969-12-31 18:00:05.977300156,(1 -2 -15 -8 -1 0 1 0)
1969-12-31 18:00:05.977300156,(-2 -3 5 -3 8 1 -7 0)
1969-12-31 18:00:05.978336962,(-8 -3 18 55 16 9 4 -5)
1969-12-31 18:00:05.978336962,(1 5 13 49 -4 -1 1 1)
1969-12-31 18:00:05.991815448,(-4 2 15 13 34 5 -1 -2)
1969-12-31 18:00:05.991815448,(3 6 -5 18 2 -5 2 0)
1969-12-31 18:00:06.000109902,(-1 -6 -27 -78 -81 -18 -3 0)
1969-12-31 18:00:06.000109902,(-3 -7 -19 -68 -34 -28 -16 -5)
1969-12-31 18:00:06.015662001,(-8 -9 13 47 25 8 0 -3)
1969-12-31 18:00:06.015662001,(7 15 14 24 44 22 5 5)
1969-12-31 18:00:06.021882841,(1 4 34 54 51 24 2 1)
1969-12-31 18:00:06.021882841,(-6 -6 -12 -24 -18 -9 0 -7)
1969-12-31 18:00:06.039508554,(4 -4 -18 -50 -41 -19 -6 2)
1969-12-31 18:00:06.039508554,(-3 -7 -12 -22 -41 -29 -14 -6)
1969-12-31 18:00:06.040545360,(-3 -6 -20 -20 -26 -9 1 -1)
1969-12-31 18:00:06.040545360,(2 4 -1 -34 33 16 3 3)
1969-12-31 18:00:06.052987040,(-4 -1 32 112 56 23 7 0)
1969-12-31 18:00:06.052987040,(-7 -9 -14 -32 -30 -16 -9 -7)
1969-12-31 18:00:06.062318300,(6 -2 -37 -96 -43 -15 -5 1)
1969-12-31 18:00:06.062318300,(5 8 24 73 15 -4 0 3)
1969-12-31 18:00:06.076833593,(-5 -6 15 47 22 5 -2 -1)
1969-12-31 18:00:06.076833593,(4 10 26 12 18 14 7 4)
1969-12-31 18:00:06.084091239,(-2 -4 3 4 -9 -2 -3 -1)
1969-12-31 18:00:06.084091239,(-10 -5 -12 6 4 -5 -7 -7)
1969-12-31 18:00:06.101716952,(3 1 -25 -117 -42 -8 1 1)
1969-12-31 18:00:06.101716952,(4 0 10 77 18 2 3 2)
1969-12-31 18:00:06.102753758,(-6 -6 -7 9 13 2 -1 -4)
1969-12-31 18:00:06.102753758,(7 2 -3 -31 -6 4 4 7)
1969-12-31 18:00:06.115195438,(1 4 3 31 -9 -2 1 0)
1969-12-31 18:00:06.115195438,(-6 -10 -23 -76 -14 -10 -8 -4)
1969-12-31 18:00:06.124526698,(1 7 12 -3 -14 1 3 4)
1969-12-31 18:00:06.124526698,(-1 -1 16 88 58 18 4 2)
1969-12-31 18:00:06.140078797,(3 1 -9 -42 -22 -1 0 2)
1969-12-31 18:00:06.140078797,(0 -1 -2 -14 1 -5 -1 0)
1969-12-31 18:00:06.146299637,(-1 0 -1 13 -1 -1 0 -2)
1969-12-31 18:00:06.146299637,(-1 -3 -3 -3 -9 -1 -1 -1)
1969-12-31 18:00:06.163925350,(-1 -1 -4 -19 -3 -3 -3 -2)
1969-12-31 18:00:06.163925350,(-1 1 4 12 5 4 0 1)
1969-12-31 18:00:06.164962157,(3 3 5 16 8 3 1 1)
1969-12-31 18:00:06.164962157,(-2 -2 -1 1 0 0 -1 -2)
1969-12-31 18:00:06.186735096,(0 -2 -5 -5 -4 -5 0 0)
1969-12-31 18:00:06.186735096,(0 3 0 -12 -6 0 2 0)
1969-12-31 18:00:06.188808709,(-2 4 2 13 10 4 0 1)
1969-12-31 18:00:06.188808709,(4 0 2 9 6 2 2 2)
1969-12-31 18:00:06.201250389,(0 2 -1 -12 -10 -5 1 -1)
1969-12-31 18:00:06.201250389,(-3 -10 -1 -5 -2 -3 -4 1)
1969-12-31 18:00:06.210581649,(-1 1 -1 11 10 -1 -4 -5)
1969-12-31 18:00:06.210581649,(-1 1 1 5 -3 0 1 -2)
1969-12-31 18:00:06.225096941,(-7 -5 -3 -5 -5 -1 -3 -6)
1969-12-31 18:00:06.225096941,(4 4 -1 -10 0 3 3 5)
1969-12-31 18:00:06.232354588,(1 2 0 13 6 1 1 3)
1969-12-31 18:00:06.232354588,(3 0 -6 -8 -5 -1 1 3)
1969-12-31 18:00:06.248943494,(0 1 2 3 2 3 5 2)
1969-12-31 18:00:06.248943494,(-8 -3 -4 -4 -1 -4 -6 -7)
1969-12-31 18:00:06.251017107,(-3 -4 -1 2 -2 -1 0 -1)
1969-12-31 18:00:06.251017107,(11 12 6 5 4 6 6 5)
1969-12-31 18:00:06.263458787,(0 -6 -4 -1 0 -2 -1 1)
1969-12-31 18:00:06.263458787,(-7 -1 3 5 2 2 -1 -7)
1969-12-31 18:00:06.272790047,(-10 -5 1 3 0 0 -3 -5)
1969-12-31 18:00:06.272790047,(12 -2 -3 -8 -4 -2 0 4)
1969-12-31 18:00:06.288342146,(4 8 -2 -2 0 3 -1 -1)
1969-12-31 18:00:06.288342146,(-7 -6 1 -1 -2 -4 -2 -4)
1969-12-31 18:00:06.289378953,(7 6 0 -2 2 -1 -1 -1)
1969-12-31 18:00:06.289378953,(-9 -4 0 3 -4 -3 -4 -3)
1969-12-31 18:00:06.311151892,(-3 -3 -1 -18 -8 -1 -2 0)
1969-12-31 18:00:06.311151892,(7 3 0 12 9 -2 2 5)
1969-12-31 18:00:06.313225505,(0 2 4 6 1 1 3 0)
1969-12-31 18:00:06.313225505,(0 -3 -4 2 6 1 -1 2)
1969-12-31 18:00:06.325667185,(4 3 -3 -21 -10 -4 -4 -1)
1969-12-31 18:00:06.325667185,(-5 -1 3 2 -4 3 0 -6)
1969-12-31 18:00:06.341219285,(3 -3 -2 4 2 -1 1 4)
1969-12-31 18:00:06.341219285,(-8 -3 0 1 0 0 3 -2)
1969-12-31 18:00:06.350550544,(20 15 3 6 0 -3 -2 6)
1969-12-31 18:00:06.350550544,(-16 -2 -3 -11 -7 -5 -7 -14)
1969-12-31 18:00:06.351587351,(1 -7 -6 -3 -2 3 3 -3)
1969-12-31 18:00:06.351587351,(-5 1 0 -6 -6 -1 -3 -3)
1969-12-31 18:00:06.373360290,(1 -3 2 11 -5 2 5 4)
1969-12-31 18:00:06.373360290,(-4 -4 -4 -7 11 -2 0 6)
1969-12-31 18:00:06.375433904,(14 10 -8 -28 -22 -1 5 8)
1969-12-31 18:00:06.375433904,(-5 -5 -3 -1 6 -3 -4 0)
1969-12-31 18:00:06.387875583,(-9 -3 20 62 30 14 9 -1)
1969-12-31 18:00:06.387875583,(4 8 -1 -31 -3 -5 -5 -4)
1969-12-31 18:00:06.397206843,(-5 -13 -2 25 3 1 -2 0)
1969-12-31 18:00:06.397206843,(-7 -6 -5 -16 -11 -6 -1 3)
1969-12-31 18:00:06.412758942,(23 25 9 10 2 7 7 4)
1969-12-31 18:00:06.412758942,(-8 -15 -10 -2 -11 -9 -8 -6)
1969-12-31 18:00:06.413795749,(-1 13 11 -8 10 10 8 -3)
1969-12-31 18:00:06.413795749,(-18 -15 -14 -20 -22 -16 -19 -21)
1969-12-31 18:00:06.435568688,(-28 -20 -6 -10 -1 9 22 8)
1969-12-31 18:00:06.435568688,(22 -4 -2 3 1 -7 -13 8)
1969-12-31 18:00:06.437642302,(1 2 -8 -41 -28 -3 1 4)
1969-12-31 18:00:06.437642302,(15 4 -26 -60 -6 -3 -3 -2)
1969-12-31 18:00:06.450083981,(-12 -6 1 15 -13 -5 -4 -4)
1969-12-31 18:00:06.450083981,(16 14 30 87 30 16 17 11)
1969-12-31 18:00:06.459415241,(-8 -2 28 85 49 12 8 1)
1969-12-31 18:00:06.459415241,(-13 -7 9 19 7 0 -6 -10)
1969-12-31 18:00:06.474967341,(-13 -17 -29 -91 -34 -16 -13 -14)
1969-12-31 18:00:06.474967341,(-8 -4 -17 -36 -26 -8 -1 -1)
1969-12-31 18:00:06.476004147,(16 7 0 7 6 -4 -2 4)
1969-12-31 18:00:06.476004147,(-22 -3 5 13 9 8 9 -6)
1969-12-31 18:00:06.497777087,(5 15 3 -7 0 -2 -5 -8)
1969-12-31 18:00:06.497777087,(18 -8 -2 -6 -8 -3 -3 8)
1969-12-31 18:00:06.499850700,(1 -8 -5 -15 -8 -11 -7 1)
1969-12-31 18:00:06.499850700,(11 5 8 13 5 10 14 5)
1969-12-31 18:00:06.512292379,(-8 2 -7 2 -2 -16 -19 -7)
1969-12-31 18:00:06.512292379,(2 -1 -19 -60 -12 -3 0 2)
1969-12-31 18:00:06.521623639,(-9 -13 -15 -18 -15 -5 -7 -1)
1969-12-31 18:00:06.521623639,(10 4 15 42 -11 7 14 17)
1969-12-31 18:00:06.537175739,(-6 -9 -3 8 21 -4 -5 -10)
1969-12-31 18:00:06.537175739,(-10 6 22 55 22 7 -2 -12)
1969-12-31 18:00:06.538212545,(-4 1 -19 -95 -36 -5 3 0)
1969-12-31 18:00:06.538212545,(-7 2 14 97 35 0 -5 -5)
1969-12-31 18:00:06.559985485,(17 4 31 71 46 20 10 16)
1969-12-31 18:00:06.559985485,(-19 -12 0 11 20 5 0 -8)
1969-12-31 18:00:06.562059098,(17 23 -10 -44 -14 -3 6 9)
1969-12-31 18:00:06.562059098,(0 7 -13 -66 -40 -28 -40 -46)
1969-12-31 18:00:06.574500778,(-37 -26 -28 -56 -28 -19 -18 -25)
1969-12-31 18:00:06.574500778,(30 7 -2 -17 -8 1 8 32)
1969-12-31 18:00:06.583832037,(5 2 8 23 4 5 7 15)
1969-12-31 18:00:06.583832037,(9 1 -2 -12 1 2 7 14)
1969-12-31 18:00:06.606641783,(28 20 3 0 4 2 8 14)
1969-12-31 18:00:06.606641783,(-43 -29 -39 -101 -57 -15 -16 -33)
1969-12-31 18:00:06.607678590,(-6 2 27 124 30 3 -3 -9)
1969-12-31 18:00:06.607678590,(-13 -12 27 55 42 11 7 4)
1969-12-31 18:00:06.622193883,(17 22 12 3 9 11 4 1)
1969-12-31 18:00:06.622193883,(13 7 -7 -14 -1 -6 3 13)
1969-12-31 18:00:06.624267496,(-5 -12 -28 -98 -45 -17 -15 -11)
1969-12-31 18:00:06.624267496,(-17 -21 -3 26 14 5 4 -1)
1969-12-31 18:00:06.636709176,(-26 -25 0 2 4 6 0 -12)
1969-12-31 18:00:06.636709176,(8 37 16 56 30 16 13 5)
1969-12-31 18:00:06.646040435,(28 11 5 23 17 -4 -13 -2)
1969-12-31 18:00:06.646040435,(-10 -12 -18 -41 -21 -10 -11 -11)
1969-12-31 18:00:06.661592535,(6 -7 -10 -41 -19 -4 4 11)
1969-12-31 18:00:06.661592535,(-19 -10 2 11 -21 -5 1 -2)
1969-12-31 18:00:06.662629342,(-39 -36 5 18 11 4 1 -22)
1969-12-31 18:00:06.662629342,(25 35 -3 -44 -8 6 8 21)
1969-12-31 18:00:06.685439088,(10 -4 -12 -13 -15 -2 3 10)
1969-12-31 18:00:06.685439088,(6 7 1 12 25 3 -1 -1)
1969-12-31 18:00:06.692696734,(-20 -12 -2 22 0 -4 -6 -14)
1969-12-31 18:00:06.692696734,(12 4 16 33 9 7 9 11)
1969-12-31 18:00:06.698917574,(-17 -3 8 39 16 -1 -9 -15)
1969-12-31 18:00:06.698917574,(-1 -5 3 -18 2 -3 3 0)
1969-12-31 18:00:06.708248834,(15 18 4 -18 -16 11 16 19)
1969-12-31 18:00:06.708248834,(-4 -2 -5 7 7 3 -3 -5)
1969-12-31 18:00:06.723800933,(3 7 12 37 17 1 0 8)
1969-12-31 18:00:06.723800933,(-10 -12 -2 -4 -5 -2 -7 -19)
1969-12-31 18:00:06.724837740,(30 31 8 -5 18 11 22 34)
1969-12-31 18:00:06.724837740,(1 6 -8 -31 -22 -3 3 8)
1969-12-31 18:00:06.746610679,(-6 -17 -9 -14 -16 -5 -5 -12)
1969-12-31 18:00:06.746610679,(-12 -16 1 12 4 2 0 -1)
1969-12-31 18:00:06.748684292,(39 54 -4 -2 -4 -13 -11 4)
1969-12-31 18:00:06.748684292,(-31 -26 -11 -25 -13 -13 -18 -21)
1969-12-31 18:00:06.761125972,(15 10 1 8 4 0 5 13)
1969-12-31 18:00:06.761125972,(9 8 2 -22 -11 1 3 6)
1969-12-31 18:00:06.770457232,(-21 -25 0 37 14 4 -4 -11)
1969-12-31 18:00:06.770457232,(16 11 6 14 13 6 8 8)
1969-12-31 18:00:06.786009331,(-5 -2 -8 -25 -9 -8 -6 -6)
1969-12-31 18:00:06.786009331,(5 0 -9 -15 -27 -6 -3 1)
1969-12-31 18:00:06.787046138,(-14 -14 -4 -16 -6 -4 -4 -10)
1969-12-31 18:00:06.787046138,(-1 0 9 56 12 0 1 2)
1969-12-31 18:00:06.808819077,(2 -13 9 28 10 6 -2 -1)
1969-12-31 18:00:06.808819077,(24 39 28 44 32 26 31 25)
1969-12-31 18:00:06.810892691,(-8 -9 -9 -21 -3 -5 -17 -17)
1969-12-31 18:00:06.810892691,(-4 -8 -19 -35 -17 -4 3 -1)
1969-12-31 18:00:06.823334370,(-2 -3 -10 -26 -12 -8 -6 -1)
1969-12-31 18:00:06.823334370,(-16 -24 -12 -23 -15 -13 -15 -12)
1969-12-31 18:00:06.832665630,(8 3 4 17 9 5 11 10)
1969-12-31 18:00:06.832665630,(11 11 0 -1 1 -3 -7 -6)
1969-12-31 18:00:06.847180923,(-1 5 -2 -34 -17 2 5 0)
1969-12-31 18:00:06.847180923,(2 -5 -8 -2 1 -2 2 4)
1969-12-31 18:00:06.854438569,(-11 -13 1 8 4 -3 -12 -10)
1969-12-31 18:00:06.854438569,(-35 -32 2 6 -9 -4 -6 -15)
1969-12-31 18:00:06.871027475,(65 43 16 -53 4 31 51 74)
1969-12-31 18:00:06.871027475,(-10 3 9 76 17 -9 -21 -25)
1969-12-31 18:00:06.873101089,(-12 -5 9 18 19 6 1 -5)
1969-12-31 18:00:06.873101089,(12 -2 -2 -13 0 5 6 12)
1969-12-31 18:00:06.885542768,(11 26 -11 -13 -17 -15 -16 -13)
1969-12-31 18:00:06.885542768,(-14 -15 -15 -37 -18 -5 -2 -4)
1969-12-31 18:00:06.894874028,(11 8 6 25 11 -4 -3 6)
1969-12-31 18:00:06.894874028,(-22 -13 0 -7 -9 -10 -14 -22)
1969-12-31 18:00:06.909389321,(-19 -19 -11 -10 -9 -5 -8 -14)
1969-12-31 18:00:06.909389321,(26 23 -2 -12 2 6 7 15)
1969-12-31 18:00:06.917683774,(-13 -2 4 37 5 0 0 -7)
1969-12-31 18:00:06.917683774,(10 3 9 18 15 1 -2 7)
1969-12-31 18:00:06.933235874,(-45 -38 -15 -3 -2 -11 -19 -30)
1969-12-31 18:00:06.933235874,(-10 -2 -4 -26 -19 -12 -18 -20)
1969-12-31 18:00:06.935309487,(-4 -9 -12 -69 -17 3 6 3)
1969-12-31 18:00:06.935309487,(10 8 4 34 -4 -4 -2 4)
1969-12-31 18:00:06.947751166,(-15 5 20 48 28 -4 -5 -8)
1969-12-31 18:00:06.947751166,(18 9 0 8 4 8 6 10)
1969-12-31 18:00:06.957082426,(-14 -17 -8 -46 -7 -3 -1 -7)
1969-12-31 18:00:06.957082426,(-6 -7 -22 -56 -29 -8 -4 -6)
1969-12-31 18:00:06.971597719,(4 -11 -13 14 -9 -1 0 6)
1969-12-31 18:00:06.971597719,(-7 3 26 78 25 1 1 0)
1969-12-31 18:00:06.978855365,(12 19 17 28 21 9 6 8)
1969-12-31 18:00:06.978855365,(19 11 -12 -74 8 2 5 11)
1969-12-31 18:00:06.995444272,(-10 -10 -5 31 -29 -8 -7 -11)
1969-12-31 18:00:06.995444272,(7 1 5 35 35 5 9 10)
1969-12-31 18:00:06.997517885,(-11 -10 -7 -14 -26 -13 -9 -8)
1969-12-31 18:00:06.997517885,(5 4 -15 -86 2 -5 4 8)
1969-12-31 18:00:07.009959565,(-1 -6 -4 9 -17 2 1 -3)
1969-12-31 18:00:07.009959565,(1 -2 15 48 33 23 6 2)
1969-12-31 18:00:07.019290824,(-10 0 24 64 36 17 0 -10)
1969-12-31 18:00:07.019290824,(-5 -2 6 8 -5 -2 -1 -4)
1969-12-31 18:00:07.033806117,(48 51 -8 -89 -36 -10 6 22)
1969-12-31 18:00:07.033806117,(0 -4 -6 -10 -13 -7 -1 -4)
1969-12-31 18:00:07.041063764,(0 -12 -12 1 -10 -11 -10 4)
1969-12-31 18:00:07.041063764,(-1 4 10 22 4 15 13 1)
1969-12-31 18:00:07.057652670,(-2 -7 -2 -6 -4 -6 -5 -5)
1969-12-31 18:00:07.057652670,(-11 -9 -17 -76 -39 -15 -11 -8)
1969-12-31 18:00:07.059726283,(-2 -1 1 38 12 -1 -1 -3)
1969-12-31 18:00:07.059726283,(6 7 19 74 41 12 4 6)
1969-12-31 18:00:07.072167963,(-3 -4 5 -17 12 7 7 4)
1969-12-31 18:00:07.072167963,(-5 -6 -16 -35 3 -6 -3 -2)
1969-12-31 18:00:07.081499222,(1 -2 7 31 -21 1 4 5)
1969-12-31 18:00:07.081499222,(-5 1 8 41 15 0 -2 -3)
1969-12-31 18:00:07.096014515,(-14 -10 9 31 24 5 -5 -10)
1969-12-31 18:00:07.096014515,(12 2 -27 -128 -50 -4 7 8)
1969-12-31 18:00:07.103272162,(12 4 -8 23 5 -9 -2 4)
1969-12-31 18:00:07.103272162,(-14 -3 12 39 3 -1 -12 -19)
1969-12-31 18:00:07.119861068,(6 0 2 -3 13 -2 -3 5)
1969-12-31 18:00:07.119861068,(-22 -21 -2 18 -3 -4 -5 -4)
1969-12-31 18:00:07.121934681,(19 15 -4 -18 3 1 5 17)
1969-12-31 18:00:07.121934681,(-20 -31 -12 -25 -16 3 3 -4)
1969-12-31 18:00:07.134376361,(23 30 9 14 12 1 1 3)
1969-12-31 18:00:07.134376361,(-7 -10 -2 5 -11 -7 -5 -5)
1969-12-31 18:00:07.143707621,(-4 -5 -9 -36 -24 -1 5 1)
1969-12-31 18:00:07.143707621,(10 11 5 32 16 2 -5 2)
1969-12-31 18:00:07.157186107,(-20 -19 -15 -81 -29 -3 0 -6)
1969-12-31 18:00:07.157186107,(14 16 21 104 37 9 6 9)
1969-12-31 18:00:07.166517367,(-1 5 18 25 14 3 -3 -11)
1969-12-31 18:00:07.166517367,(3 4 -1 -16 -1 4 7 15)
1969-12-31 18:00:07.182069466,(-17 -15 -4 26 7 -2 -7 -12)
1969-12-31 18:00:07.182069466,(7 9 -5 -41 -14 1 6 8)
1969-12-31 18:00:07.184143079,(19 3 -19 -55 -14 -5 -1 3)
1969-12-31 18:00:07.184143079,(9 19 -4 -15 -24 -12 -4 0)
1969-12-31 18:00:07.205916019,(27 27 18 52 28 13 15 16)
1969-12-31 18:00:07.205916019,(-21 -20 -6 -21 -8 -15 -25 -27)
1969-12-31 18:00:07.206952825,(-4 -2 -3 -2 -3 -2 0 3)
1969-12-31 18:00:07.206952825,(-14 -12 -5 -8 -8 2 2 -13)
1969-12-31 18:00:07.219394505,(-10 -12 -2 7 0 -8 -15 -11)
1969-12-31 18:00:07.219394505,(-3 -6 1 7 15 9 10 10)
1969-12-31 18:00:07.228725765,(17 26 -5 -10 -2 5 7 5)
1969-12-31 18:00:07.228725765,(-1 1 10 37 9 0 -3 -3)
1969-12-31 18:00:07.244277864,(-31 -27 3 26 13 -1 -7 -16)
1969-12-31 18:00:07.244277864,(-4 -7 9 3 3 17 20 12)
1969-12-31 18:00:07.246351477,(-12 -12 -9 -18 13 0 -5 -4)
1969-12-31 18:00:07.246351477,(3 3 -6 -20 -28 -8 -1 7)
1969-12-31 18:00:07.268124417,(35 29 11 23 12 9 18 29)
1969-12-31 18:00:07.268124417,(-8 -5 0 -4 -6 -7 -14 -11)
1969-12-31 18:00:07.269161223,(11 22 -7 -15 -6 1 8 10)
1969-12-31 18:00:07.269161223,(22 24 -3 -3 1 -3 -4 3)
1969-12-31 18:00:07.281602903,(-26 -33 3 3 -3 -1 -3 -12)
1969-12-31 18:00:07.281602903,(7 14 0 3 -1 2 12 10)
1969-12-31 18:00:07.290934163,(20 5 10 7 8 13 15 25)
1969-12-31 18:00:07.290934163,(-28 -29 -18 -22 -17 -19 -29 -33)
1969-12-31 18:00:07.306486262,(-10 -5 -5 -2 -3 -5 -4 -8)
1969-12-31 18:00:07.306486262,(20 14 4 11 5 -1 2 8)
1969-12-31 18:00:07.308559876,(-35 -25 -1 2 -2 2 -1 -15)
1969-12-31 18:00:07.308559876,(44 48 17 18 12 8 19 30)
1969-12-31 18:00:07.330332815,(-15 -13 -4 -5 4 2 -5 -12)
1969-12-31 18:00:07.330332815,(-11 -6 -2 -10 -1 -3 -4 -8)
1969-12-31 18:00:07.331369622,(-10 -6 -6 -26 -30 -12 -10 -12)
1969-12-31 18:00:07.331369622,(-8 -7 1 13 9 -4 -3 -2)
1969-12-31 18:00:07.343811301,(12 13 6 6 3 2 7 7)
1969-12-31 18:00:07.343811301,(10 3 0 16 9 8 10 16)
1969-12-31 18:00:07.359363401,(-28 -20 -9 -20 -9 -13 -22 -22)
1969-12-31 18:00:07.359363401,(4 -7 -9 -26 -13 0 0 2)
1969-12-31 18:00:07.376989114,(-9 -3 -6 4 -2 -3 0 -3)
1969-12-31 18:00:07.376989114,(9 7 5 8 2 2 1 2)
1969-12-31 18:00:07.378025920,(-28 -35 -4 -14 -10 0 -2 -9)
1969-12-31 18:00:07.378025920,(68 65 13 20 11 7 17 34)
1969-12-31 18:00:07.392541213,(5 9 2 13 6 -5 -12 -7)
1969-12-31 18:00:07.392541213,(-19 -19 -2 -7 -7 -6 -11 -15)
1969-12-31 18:00:07.393578020,(2 9 2 6 3 3 3 -6)
1969-12-31 18:00:07.393578020,(26 14 2 -9 -1 5 9 23)
1969-12-31 18:00:07.406019699,(-34 -27 -8 -12 -10 -9 -16 -27)
1969-12-31 18:00:07.406019699,(28 22 -6 -43 -13 2 10 17)
1969-12-31 18:00:07.415350959,(-7 -7 9 54 6 -1 -3 -3)
1969-12-31 18:00:07.415350959,(-26 -43 0 16 13 0 -3 -10)
1969-12-31 18:00:07.430903059,(24 55 5 5 4 11 15 11)
1969-12-31 18:00:07.430903059,(-15 -31 -8 -5 -8 -10 -9 -12)
1969-12-31 18:00:07.432976672,(-72 -45 -12 -22 0 -5 -15 -33)
1969-12-31 18:00:07.432976672,(31 8 -3 -16 -6 6 6 4)
1969-12-31 18:00:07.454749611,(-11 -17 -5 -4 -8 -8 -8 -6)
1969-12-31 18:00:07.454749611,(2 2 -3 10 -1 -6 -9 -8)
1969-12-31 18:00:07.455786418,(6 0 1 -4 4 4 10 3)
1969-12-31 18:00:07.455786418,(-40 -30 1 8 3 3 7 -1)
1969-12-31 18:00:07.468228097,(15 10 -5 -15 -6 2 2 9)
1969-12-31 18:00:07.468228097,(6 7 -5 -21 -23 -4 0 3)
1969-12-31 18:00:07.477559357,(20 -1 8 36 21 3 7 15)
1969-12-31 18:00:07.477559357,(-28 2 -2 4 8 0 -9 -23)
1969-12-31 18:00:07.493111457,(24 7 5 8 14 10 13 18)
1969-12-31 18:00:07.493111457,(-9 -4 0 4 -1 -1 -2 -4)
1969-12-31 18:00:07.495185070,(21 -5 -2 -18 -14 -11 -7 8)
1969-12-31 18:00:07.495185070,(-3 23 6 8 12 12 18 7)
1969-12-31 18:00:07.517994816,(-56 -38 -11 -7 4 -11 -27 -44)
1969-12-31 18:00:07.517994816,(8 15 2 6 -13 -3 -2 -1)
1969-12-31 18:00:07.519031623,(-8 -4 -1 -5 7 2 -2 -9)
1969-12-31 18:00:07.519031623,(-10 -29 -14 -6 -7 -3 -4 -1)
1969-12-31 18:00:07.530436496,(19 21 4 2 -1 2 5 6)
1969-12-31 18:00:07.530436496,(-3 -10 11 15 13 6 5 -5)
1969-12-31 18:00:07.539767755,(13 26 -8 -15 -7 -6 -11 -5)
1969-12-31 18:00:07.539767755,(1 -7 -6 -15 -9 -1 -3 -5)
1969-12-31 18:00:07.555319855,(6 -1 4 -1 -20 -16 -7 6)
1969-12-31 18:00:07.555319855,(-15 -9 -7 -17 -37 -19 -11 -12)
1969-12-31 18:00:07.557393468,(40 34 12 17 27 5 17 30)
1969-12-31 18:00:07.557393468,(1 0 3 -3 19 17 5 2)
1969-12-31 18:00:07.579166407,(-15 -18 -9 9 12 7 -19 -15)
1969-12-31 18:00:07.579166407,(-4 8 10 33 28 27 14 4)
1969-12-31 18:00:07.580203214,(-3 2 1 -4 14 22 11 2)
1969-12-31 18:00:07.580203214,(-3 -5 -12 -17 -18 -13 -7 10)
1969-12-31 18:00:07.592644894,(-23 -9 -1 -2 -13 -15 -5 -20)
1969-12-31 18:00:07.592644894,(-20 -11 -11 -8 -14 -31 -35 -25)
1969-12-31 18:00:07.601976153,(-24 -22 -6 -11 -28 -20 -13 -13)
1969-12-31 18:00:07.601976153,(-7 -11 -18 -36 -30 -22 -16 -15)
1969-12-31 18:00:07.617528253,(41 16 4 -1 -9 11 26 42)
1969-12-31 18:00:07.617528253,(14 11 -1 -2 13 0 3 5)
1969-12-31 18:00:07.619601866,(13 11 -1 14 17 4 5 3)
1969-12-31 18:00:07.619601866,(-35 -22 7 4 -18 -7 -17 -24)
1969-12-31 18:00:07.641374806,(-17 -23 -6 13 6 -1 -1 -2)
1969-12-31 18:00:07.641374806,(5 5 6 22 24 15 11 5)
1969-12-31 18:00:07.642411612,(7 3 3 8 4 -1 -1 1)
1969-12-31 18:00:07.642411612,(2 10 -2 -5 -2 -1 4 3)
1969-12-31 18:00:07.672479005,(24 16 -1 -37 -41 -9 11 15)
1969-12-31 18:00:07.672479005,(6 -5 -11 -19 22 0 -3 5)
1969-12-31 18:00:07.673515811,(-23 -20 5 21 4 10 6 -8)
1969-12-31 18:00:07.673515811,(-7 -6 17 39 25 7 -4 15)
1969-12-31 18:00:07.678699844,(3 -7 -3 -3 14 11 1 -7)
1969-12-31 18:00:07.678699844,(-10 -12 -4 -4 -5 3 5 -4)
1969-12-31 18:00:07.679736651,(2 3 -8 -36 -33 -17 -9 -8)
1969-12-31 18:00:07.679736651,(-33 -42 -6 2 -3 -3 0 -10)
1969-12-31 18:00:07.702546397,(34 46 2 -8 4 8 12 22)
1969-12-31 18:00:07.702546397,(7 7 2 8 1 0 1 6)
1969-12-31 18:00:07.703583204,(0 -3 2 5 -3 -2 1 1)
1969-12-31 18:00:07.703583204,(19 9 2 -16 -5 5 10 7)
1969-12-31 18:00:07.725356143,(-10 -12 -7 -4 9 -2 -5 -4)
1969-12-31 18:00:07.725356143,(0 6 1 1 -18 -3 0 -3)
1969-12-31 18:00:07.726392950,(25 6 16 39 19 4 0 18)
1969-12-31 18:00:07.726392950,(-6 13 5 18 9 1 -7 -22)
1969-12-31 18:00:07.740908243,(-29 -18 -6 -1 2 0 -6 -14)
1969-12-31 18:00:07.740908243,(26 12 -1 -13 -7 -3 -2 4)
1969-12-31 18:00:07.741945049,(-9 -13 -12 -28 -15 -12 -4 -5)
1969-12-31 18:00:07.741945049,(-6 -35 -11 -14 -14 -3 5 7)
1969-12-31 18:00:07.764754795,(40 55 12 14 13 7 7 13)
1969-12-31 18:00:07.764754795,(-16 -25 -14 -48 -48 -29 -12 -7)
1969-12-31 18:00:07.765791602,(16 17 2 10 28 17 10 13)
1969-12-31 18:00:07.765791602,(2 3 9 31 41 25 7 -4)
1969-12-31 18:00:07.788601348,(-11 -14 9 43 30 20 10 2)
1969-12-31 18:00:07.788601348,(5 7 1 -15 6 4 8 11)
1969-12-31 18:00:07.788601348,(5 9 -9 -17 -32 -15 -8 -5)
1969-12-31 18:00:07.788601348,(8 18 2 4 -12 -8 -1 3)
1969-12-31 18:00:07.804153447,(-23 -26 3 14 1 -12 -12 -14)
1969-12-31 18:00:07.804153447,(0 6 1 14 5 5 3 1)
1969-12-31 18:00:07.804153447,(-22 -18 -8 -26 -15 -6 -3 -10)
1969-12-31 18:00:07.804153447,(77 68 17 -2 10 10 21 55)
1969-12-31 18:00:07.826963193,(-39 -61 -9 -3 -10 -9 -20 -33)
1969-12-31 18:00:07.826963193,(20 54 10 14 15 8 8 16)
1969-12-31 18:00:07.828000000,(-9 -4 -8 -18 -11 1 0 -5)
1969-12-31 18:00:07.828000000,(-5 -8 -4 -18 -40 -28 -11 -6)
1969-12-31 18:00:07.859104199,(10 1 -5 -31 8 3 7 12)
1969-12-31 18:00:07.859104199,(2 -3 8 44 30 23 7 5)
1969-12-31 18:00:07.860141006,(-15 -12 6 -2 14 10 -6 -15)
1969-12-31 18:00:07.860141006,(3 10 -8 -6 -26 -28 -6 -6)
1969-12-31 18:00:07.866361846,(6 1 -8 -25 -36 -1 4 10)
1969-12-31 18:00:07.866361846,(-14 -19 0 -9 16 11 1 -9)
1969-12-31 18:00:07.866361846,(3 12 12 49 40 27 5 3)
1969-12-31 18:00:07.866361846,(-24 -25 4 33 31 7 -7 -18)
1969-12-31 18:00:07.889171591,(24 32 17 4 -8 -12 -2 12)
1969-12-31 18:00:07.889171591,(1 7 -7 -4 -11 -10 -6 -4)
1969-12-31 18:00:07.890208398,(-37 -40 -8 -17 -9 -13 -11 -18)
1969-12-31 18:00:07.890208398,(13 6 -9 -32 -14 -7 -9 -8)
1969-12-31 18:00:07.913018144,(0 10 1 12 -3 -1 3 -2)
1969-12-31 18:00:07.913018144,(-31 -42 -10 0 -11 -8 -11 -24)
1969-12-31 18:00:07.913018144,(5 1 1 -8 -9 -8 -4 5)
1969-12-31 18:00:07.913018144,(-13 -7 -7 -7 1 3 -2 -10)
1969-12-31 18:00:07.928570244,(-13 -19 -4 -6 -7 -5 -3 -1)
1969-12-31 18:00:07.928570244,(-4 -14 0 -14 -6 -3 -2 -2)
1969-12-31 18:00:07.928570244,(23 21 -4 -22 -40 -31 -1 12)
1969-12-31 18:00:07.928570244,(-18 -22 -18 -42 -17 2 -4 -10)
1969-12-31 18:00:07.967968896,(6 7 10 59 69 30 11 8)
1969-12-31 18:00:07.967968896,(4 12 29 62 52 38 15 8)
1969-12-31 18:00:07.969005702,(1 2 6 23 31 20 1 -5)
1969-12-31 18:00:07.969005702,(-2 -9 4 -9 1 8 11 11)
1969-12-31 18:00:07.974189736,(-6 3 -12 -45 -43 -28 -12 -7)
1969-12-31 18:00:07.974189736,(18 14 1 2 -16 -15 -5 3)
1969-12-31 18:00:07.975226542,(6 21 4 -5 -13 -6 -6 -9)
1969-12-31 18:00:07.975226542,(13 -12 -3 -5 -7 -3 4 11)
1969-12-31 18:00:07.989741835,(0 -5 -9 -13 -4 -1 1 1)
1969-12-31 18:00:07.989741835,(-27 -30 -5 1 -1 -5 -11 -11)
1969-12-31 18:00:07.990778642,(26 22 6 -1 0 11 22 26)
1969-12-31 18:00:07.990778642,(8 14 -1 6 9 5 0 0)
1969-12-31 18:00:08.013588388,(-4 -5 -1 -13 -4 -3 -2 -2)
1969-12-31 18:00:08.013588388,(-1 4 -2 1 -11 -7 -1 2)
1969-12-31 18:00:08.014625194,(-2 13 -5 -8 -18 -9 -7 -1)
1969-12-31 18:00:08.014625194,(-12 2 5 31 29 18 7 -2)
1969-12-31 18:00:08.036398134,(1 7 11 21 32 12 0 -2)
1969-12-31 18:00:08.036398134,(-4 -13 -9 -10 -12 -10 -13 -8)
1969-12-31 18:00:08.037434940,(-37 -32 -16 -11 2 3 1 -22)
1969-12-31 18:00:08.037434940,(23 22 8 -14 -15 -5 -1 13)
1969-12-31 18:00:08.052987040,(-6 -10 -7 -2 -21 -11 -4 -1)
1969-12-31 18:00:08.052987040,(-11 -25 -7 -18 2 -7 -4 -2)
1969-12-31 18:00:08.052987040,(27 21 7 28 6 3 6 24)
1969-12-31 18:00:08.052987040,(-16 -9 0 10 9 -4 -9 -12)
1969-12-31 18:00:08.075796786,(-1 8 -4 -4 -6 2 1 -6)
1969-12-31 18:00:08.075796786,(31 28 7 -1 7 7 15 21)
1969-12-31 18:00:08.076833593,(21 5 1 -8 -3 -5 -8 9)
1969-12-31 18:00:08.076833593,(-19 -5 1 1 -1 5 4 -7)
1969-12-31 18:00:08.099643339,(13 6 1 2 6 3 7 12)
1969-12-31 18:00:08.099643339,(-19 -10 -13 -10 -14 -6 -5 -11)
1969-12-31 18:00:08.099643339,(6 2 10 11 9 3 -4 -5)
1969-12-31 18:00:08.099643339,(9 17 8 13 21 16 19 18)
1969-12-31 18:00:08.115195438,(-16 -21 -12 -22 1 -9 -16 -12)
1969-12-31 18:00:08.115195438,(11 10 5 3 -23 0 6 7)
1969-12-31 18:00:08.115195438,(-12 -15 -8 -39 -25 -13 -10 -11)
1969-12-31 18:00:08.115195438,(11 4 -1 24 11 -7 -3 0)
1969-12-31 18:00:08.138005184,(-11 -11 8 34 24 18 5 0)
1969-12-31 18:00:08.138005184,(2 28 5 19 29 16 7 3)
1969-12-31 18:00:08.139041991,(9 20 4 -3 7 2 2 0)
1969-12-31 18:00:08.139041991,(-7 -9 -8 -23 -25 -14 -11 -9)
1969-12-31 18:00:08.161851737,(3 3 -7 -32 -31 -13 -2 -1)
1969-12-31 18:00:08.161851737,(-8 -16 -6 4 -7 -10 -7 -10)
1969-12-31 18:00:08.161851737,(-3 -11 -4 12 3 4 4 5)
1969-12-31 18:00:08.161851737,(5 6 0 -6 8 5 2 3)
1969-12-31 18:00:08.178440643,(-7 -4 2 10 -3 -3 -7 -8)
1969-12-31 18:00:08.178440643,(1 -3 -1 -18 -9 -4 -4 2)
1969-12-31 18:00:08.179477449,(-8 -6 2 12 21 2 -2 -2)
1969-12-31 18:00:08.179477449,(3 0 -2 -11 -31 1 0 -1)
1969-12-31 18:00:08.200213582,(3 1 4 19 11 0 1 1)
1969-12-31 18:00:08.200213582,(-4 -3 -2 -18 -25 -12 -6 -6)
1969-12-31 18:00:08.201250389,(-4 -2 3 16 30 11 5 0)
1969-12-31 18:00:08.201250389,(-1 1 9 19 46 25 6 2)
1969-12-31 18:00:08.224060135,(8 9 8 4 -23 1 6 5)
1969-12-31 18:00:08.224060135,(4 -4 -30 -25 -18 -28 -9 2)
1969-12-31 18:00:08.225096941,(-20 -25 -24 -34 -50 -27 -21 -19)
1969-12-31 18:00:08.225096941,(-3 0 3 -7 12 8 3 0)
1969-12-31 18:00:08.239612234,(-1 2 9 11 33 18 4 -2)
1969-12-31 18:00:08.239612234,(4 7 17 32 29 21 11 6)
1969-12-31 18:00:08.239612234,(0 -8 -24 -15 -26 -14 -2 3)
1969-12-31 18:00:08.239612234,(-4 -3 10 -11 -28 -22 -11 -7)
1969-12-31 18:00:08.262421980,(4 10 -2 -5 0 -3 -2 1)
1969-12-31 18:00:08.262421980,(8 -1 1 1 10 4 6 5)
1969-12-31 18:00:08.263458787,(-5 -5 -2 6 8 6 0 -2)
1969-12-31 18:00:08.263458787,(-6 -8 -18 -2 7 -2 -5 -6)
1969-12-31 18:00:08.286268533,(-2 -3 12 5 -1 3 2 -3)
1969-12-31 18:00:08.286268533,(-1 4 2 2 2 -1 -4 -2)
1969-12-31 18:00:08.287305340,(6 7 12 4 1 4 7 6)
1969-12-31 18:00:08.287305340,(0 2 4 0 -22 -15 -5 -2)
1969-12-31 18:00:08.301820632,(4 4 5 -15 -18 -11 -7 -1)
1969-12-31 18:00:08.301820632,(-1 0 -3 6 13 11 3 0)
1969-12-31 18:00:08.301820632,(0 -4 -10 7 23 13 3 1)
1969-12-31 18:00:08.301820632,(-9 -9 -8 -1 5 4 0 -4)
1969-12-31 18:00:08.324630378,(-5 -3 -10 -10 -7 -5 -4 -2)
1969-12-31 18:00:08.324630378,(-3 -2 1 -12 -29 -15 -4 0)
1969-12-31 18:00:08.325667185,(-2 7 31 -3 -25 -8 -3 -5)
1969-12-31 18:00:08.325667185,(8 2 -23 12 20 1 0 4)
1969-12-31 18:00:08.348476931,(-4 -12 -17 -9 18 14 7 2)
1969-12-31 18:00:08.348476931,(-8 -1 9 8 21 16 2 -5)
1969-12-31 18:00:08.349513738,(-1 -3 -6 -17 -25 -24 -11 -2)
1969-12-31 18:00:08.349513738,(-2 1 14 -17 -35 -18 -7 -4)
1969-12-31 18:00:08.362992224,(12 14 5 4 -4 2 2 8)
1969-12-31 18:00:08.362992224,(6 -3 -17 34 58 24 13 9)
1969-12-31 18:00:08.364029031,(-13 -4 19 -3 -2 4 -1 -7)
1969-12-31 18:00:08.364029031,(-3 -1 -16 -34 -37 -13 -6 -4)
1969-12-31 18:00:08.386838777,(0 -5 -6 8 5 -8 -5 -1)
1969-12-31 18:00:08.386838777,(-4 4 32 60 8 -1 0 -4)
1969-12-31 18:00:08.387875583,(11 9 11 22 43 28 13 8)
1969-12-31 18:00:08.387875583,(3 -6 -16 3 1 2 1 3)
1969-12-31 18:00:08.418979782,(-4 -10 -15 -49 -43 -29 -13 -5)
1969-12-31 18:00:08.418979782,(-8 -3 -2 -31 -17 -7 -6 -9)
1969-12-31 18:00:08.418979782,(5 5 6 16 1 0 3 4)
1969-12-31 18:00:08.418979782,(2 2 -4 -16 -13 -6 -3 -1)
1969-12-31 18:00:08.426237429,(4 0 -11 8 17 20 9 7)
1969-12-31 18:00:08.426237429,(-3 -9 1 -6 4 -3 -4 -2)
1969-12-31 18:00:08.426237429,(-10 -5 -9 -15 -3 4 0 -6)
1969-12-31 18:00:08.426237429,(-1 -1 2 -12 -29 -18 -6 -2)
1969-12-31 18:00:08.449047175,(1 4 5 21 9 -11 -1 0)
1969-12-31 18:00:08.449047175,(6 5 -1 4 -12 11 4 5)
1969-12-31 18:00:08.450083981,(5 0 -9 -2 57 21 8 3)
1969-12-31 18:00:08.450083981,(-4 -6 3 21 3 7 -3 -3)
1969-12-31 18:00:08.472893727,(-10 -6 2 3 -7 -12 -7 -10)
1969-12-31 18:00:08.472893727,(-4 -2 -4 -15 -16 -7 -7 -6)
1969-12-31 18:00:08.473930534,(4 1 -1 27 -2 -5 2 5)
1969-12-31 18:00:08.473930534,(1 7 6 -13 15 5 3 -2)
1969-12-31 18:00:08.496740280,(-3 -8 -3 3 -7 3 -1 -1)
1969-12-31 18:00:08.496740280,(-3 2 8 -17 -7 -6 -3 -2)
1969-12-31 18:00:08.496740280,(4 -1 -15 -12 -16 -5 -3 0)
1969-12-31 18:00:08.496740280,(-2 -2 -1 1 6 3 0 -3)
1969-12-31 18:00:08.511255573,(0 2 2 8 -9 -3 -3 0)
1969-12-31 18:00:08.511255573,(4 4 1 -3 8 3 3 4)
1969-12-31 18:00:08.512292379,(-6 -5 1 4 -1 1 -1 -4)
1969-12-31 18:00:08.512292379,(2 2 -1 3 -1 0 -1 -1)
1969-12-31 18:00:08.535102125,(5 3 -1 -7 0 2 7 5)
1969-12-31 18:00:08.535102125,(-3 -6 -4 0 6 3 -1 -4)
1969-12-31 18:00:08.536138932,(-3 1 3 7 1 -2 -3 -5)
1969-12-31 18:00:08.536138932,(-3 -3 -11 -23 -20 -2 -4 -3)
1969-12-31 18:00:08.550654225,(2 1 -1 -6 11 -2 0 1)
1969-12-31 18:00:08.550654225,(2 5 15 38 11 2 2 0)
1969-12-31 18:00:08.550654225,(-11 -11 0 5 -6 -2 -4 -7)
1969-12-31 18:00:08.550654225,(8 7 9 28 29 13 7 6)
1969-12-31 18:00:08.573463971,(-1 -1 -10 -30 -26 -10 -5 -1)
1969-12-31 18:00:08.573463971,(1 -3 -15 -33 -15 -8 -4 0)
1969-12-31 18:00:08.574500778,(1 -1 -9 -16 -17 -9 1 2)
1969-12-31 18:00:08.574500778,(-2 -5 -1 4 14 3 2 1)
1969-12-31 18:00:08.597310524,(-6 -3 2 -4 1 1 -4 -5)
1969-12-31 18:00:08.597310524,(4 7 7 16 13 4 5 5)
1969-12-31 18:00:08.598347330,(4 1 4 9 1 2 1 2)
1969-12-31 18:00:08.598347330,(-6 -3 7 4 4 2 -1 -2)
1969-12-31 18:00:08.611825816,(0 0 2 1 2 2 2 -1)
1969-12-31 18:00:08.611825816,(-4 -7 -13 -19 -13 -14 -8 -4)
1969-12-31 18:00:08.612862623,(-2 -3 -17 -42 -37 -21 -9 -4)
1969-12-31 18:00:08.612862623,(3 5 17 26 9 9 6 5)
1969-12-31 18:00:08.635672369,(0 0 9 32 33 21 5 1)
1969-12-31 18:00:08.635672369,(3 -1 -2 -5 -9 -1 1 2)
1969-12-31 18:00:08.643966822,(1 1 -1 4 15 1 -4 -2)
1969-12-31 18:00:08.643966822,(-5 -6 -8 -22 -22 -11 -4 -4)
1969-12-31 18:00:08.659518922,(-1 0 -6 -6 -19 -11 -8 -3)
1969-12-31 18:00:08.659518922,(1 -1 -1 1 3 0 4 2)
1969-12-31 18:00:08.660555728,(4 3 4 0 3 5 1 3)
1969-12-31 18:00:08.660555728,(-2 -2 0 7 -3 2 2 1)
1969-12-31 18:00:08.675071021,(-3 0 3 6 21 2 0 -3)
1969-12-31 18:00:08.675071021,(-4 -4 -5 -10 -12 -6 -4 -3)
1969-12-31 18:00:08.675071021,(2 0 -4 -7 -2 0 4 3)
1969-12-31 18:00:08.675071021,(-1 -5 -7 -15 -52 -25 -10 -5)
1969-12-31 18:00:08.697880767,(7 7 -1 4 11 5 9 8)
1969-12-31 18:00:08.697880767,(2 3 4 11 33 19 4 2)
1969-12-31 18:00:08.698917574,(-9 -3 14 24 23 10 -6 -6)
1969-12-31 18:00:08.698917574,(-8 -3 8 10 24 3 -5 -7)
1969-12-31 18:00:08.721727320,(-5 -5 -8 -21 -30 -13 -7 -5)
1969-12-31 18:00:08.721727320,(10 2 -8 -10 -17 -11 3 5)
1969-12-31 18:00:08.722764126,(3 1 -9 -10 -16 -4 1 3)
1969-12-31 18:00:08.722764126,(-1 -1 -3 4 3 0 -4 -4)
1969-12-31 18:00:08.737279419,(0 -4 4 11 14 5 1 0)
1969-12-31 18:00:08.737279419,(-2 0 3 6 9 0 -2 -3)
1969-12-31 18:00:08.737279419,(-1 0 0 2 -3 -3 -2 -1)
1969-12-31 18:00:08.737279419,(0 2 -2 -7 2 -3 0 -1)
1969-12-31 18:00:08.760089165,(-3 -2 -2 -4 -6 0 2 2)
1969-12-31 18:00:08.760089165,(-3 -3 -1 -4 -4 1 6 1)
1969-12-31 18:00:08.761125972,(0 3 2 0 0 -3 -2 -3)
1969-12-31 18:00:08.761125972,(-3 -1 -5 -4 5 2 3 1)
1969-12-31 18:00:08.783935718,(0 1 2 1 -7 2 0 0)
1969-12-31 18:00:08.783935718,(-5 -2 3 2 3 -1 -4 -4)
1969-12-31 18:00:08.784972525,(-3 -3 -5 -5 -21 -7 0 -1)
1969-12-31 18:00:08.784972525,(2 1 -3 -1 26 3 1 2)
1969-12-31 18:00:08.807782271,(2 2 0 -5 -14 -1 2 1)
1969-12-31 18:00:08.807782271,(-2 1 3 12 11 6 1 -1)
1969-12-31 18:00:08.808819077,(1 0 0 6 10 1 1 1)
1969-12-31 18:00:08.808819077,(1 1 2 12 15 6 2 2)
1969-12-31 18:00:08.822297564,(-2 -1 -5 -13 -12 -8 -7 -6)
1969-12-31 18:00:08.822297564,(-6 -3 -5 -20 -21 -11 -4 -6)
1969-12-31 18:00:08.823334370,(2 1 -1 -2 -15 1 5 2)
1969-12-31 18:00:08.823334370,(4 2 2 9 19 5 3 4)
1969-12-31 18:00:08.846144116,(-3 0 0 4 1 -2 -2 -4)
1969-12-31 18:00:08.846144116,(2 0 -1 -1 -9 -1 -2 0)
1969-12-31 18:00:08.847180923,(0 1 2 1 13 4 1 2)
1969-12-31 18:00:08.847180923,(-2 -1 2 -1 -2 1 0 -3)
1969-12-31 18:00:08.860659409,(-1 -2 -1 -1 1 0 -1 0)
1969-12-31 18:00:08.860659409,(-2 -2 -5 -4 -15 -7 -6 -2)
1969-12-31 18:00:08.868953862,(2 -2 -6 -8 13 2 6 6)
1969-12-31 18:00:08.868953862,(2 0 0 4 -1 3 -1 2)
1969-12-31 18:00:08.884505962,(-1 0 2 8 15 3 -1 -1)
1969-12-31 18:00:08.884505962,(2 0 0 2 -3 -2 -2 -1)
1969-12-31 18:00:08.884505962,(-3 -1 1 -2 -6 -3 -3 -4)
1969-12-31 18:00:08.885542768,(0 -2 -1 0 -3 -1 0 1)
1969-12-31 18:00:08.908352514,(2 0 -2 0 0 0 0 0)
1969-12-31 18:00:08.908352514,(-2 -1 -2 -5 -4 -3 -5 -5)
1969-12-31 18:00:08.909389321,(-1 0 0 1 1 -2 -2 -1)
1969-12-31 18:00:08.909389321,(0 0 -3 -5 -9 -3 1 -1)
1969-12-31 18:00:08.922867807,(0 -1 1 -3 -3 0 0 1)
1969-12-31 18:00:08.922867807,(-3 0 2 8 10 5 2 0)
1969-12-31 18:00:08.931162260,(1 0 1 4 8 1 -2 -2)
1969-12-31 18:00:08.931162260,(-2 -2 -2 -4 -5 0 -2 -1)
1969-12-31 18:00:08.946714360,(-1 -2 -2 -2 -7 -2 0 0)
1969-12-31 18:00:08.946714360,(0 0 -1 -5 3 -1 2 0)
1969-12-31 18:00:08.947751166,(-2 -1 0 1 0 1 -5 -4)
1969-12-31 18:00:08.947751166,(2 1 -1 1 -1 0 1 2)
1969-12-31 18:00:08.971597719,(3 -1 0 -1 -2 0 5 5)
1969-12-31 18:00:08.971597719,(0 0 -2 -5 -3 -2 0 1)
1969-12-31 18:00:08.971597719,(-3 -3 -4 -1 -8 -1 1 -1)
1969-12-31 18:00:08.971597719,(2 2 2 5 7 1 2 2)
1969-12-31 18:00:08.985076205,(-1 1 1 -4 -11 -5 -2 -1)
1969-12-31 18:00:08.985076205,(-3 -3 -1 0 15 -1 -2 -3)
1969-12-31 18:00:08.993370658,(0 -1 1 0 -7 -1 -1 -1)
1969-12-31 18:00:08.993370658,(-3 -3 -3 -1 1 -1 -3 -4)
1969-12-31 18:00:09.008922758,(-1 0 0 3 3 0 1 -1)
1969-12-31 18:00:09.008922758,(1 0 -1 -2 -8 -1 0 1)
1969-12-31 18:00:09.009959565,(1 1 -1 -2 -1 -3 0 -1)
1969-12-31 18:00:09.009959565,(-2 -1 -2 0 4 0 -2 -2)
1969-12-31 18:00:09.032769311,(-1 -3 -2 -3 -3 -2 -5 -3)
1969-12-31 18:00:09.032769311,(1 0 -2 2 -1 -1 6 4)
1969-12-31 18:00:09.033806117,(0 0 1 2 6 0 -2 -2)
1969-12-31 18:00:09.033806117,(-1 0 0 -1 -3 1 0 1)
1969-12-31 18:00:09.047284603,(-2 -1 -2 -1 3 -1 -2 -1)
1969-12-31 18:00:09.047284603,(1 -2 0 -3 -4 -1 -3 -1)
1969-12-31 18:00:09.055579057,(0 0 -1 1 -2 -1 0 1)
1969-12-31 18:00:09.055579057,(0 -1 1 -1 3 -1 0 -1)
1969-12-31 18:00:09.071131156,(-1 1 -1 0 1 0 -2 -2)
1969-12-31 18:00:09.071131156,(0 0 1 -1 1 0 -2 0)
1969-12-31 18:00:09.072167963,(0 2 0 -1 -6 -1 2 2)
1969-12-31 18:00:09.072167963,(-2 -1 -1 -2 -2 2 -2 -3)
1969-12-31 18:00:09.094977709,(1 -3 0 1 2 0 -1 0)
1969-12-31 18:00:09.094977709,(-3 -2 -2 -1 -3 -1 -4 -3)
1969-12-31 18:00:09.096014515,(1 1 0 -4 -6 -3 1 0)
1969-12-31 18:00:09.096014515,(1 1 1 3 3 1 1 1)
1969-12-31 18:00:09.109493002,(0 -1 2 6 8 2 1 0)
1969-12-31 18:00:09.109493002,(-2 0 1 -1 -4 -2 -1 -1)
1969-12-31 18:00:09.118824261,(-2 -2 -1 0 1 0 -3 -3)
1969-12-31 18:00:09.118824261,(1 -1 -1 -4 -5 -2 -1 1)
1969-12-31 18:00:09.132302748,(0 1 0 -1 -4 1 -1 -1)
1969-12-31 18:00:09.132302748,(1 -2 0 -2 1 -1 0 1)
1969-12-31 18:00:09.141634007,(-1 -2 0 0 2 0 -1 -2)
1969-12-31 18:00:09.141634007,(-1 -3 -2 0 -1 -2 -1 -1)
1969-12-31 18:00:09.157186107,(-2 0 0 0 1 0 -2 -2)
1969-12-31 18:00:09.157186107,(-1 0 0 0 -2 2 -2 -2)
1969-12-31 18:00:09.159259720,(1 0 -2 -2 0 0 2 2)
1969-12-31 18:00:09.159259720,(1 0 -1 -1 -3 -1 0 1)
1969-12-31 18:00:09.181032659,(-1 -2 0 0 0 -1 0 -2)
1969-12-31 18:00:09.181032659,(-1 -1 0 -3 -1 -2 -2 0)
1969-12-31 18:00:09.182069466,(-2 -1 0 1 1 -1 -2 -1)
1969-12-31 18:00:09.182069466,(-1 1 -2 0 -1 0 -1 0)
1969-12-31 18:00:09.194511146,(1 -1 -2 -2 -2 -2 1 1)
1969-12-31 18:00:09.194511146,(-1 0 -1 0 -3 -1 0 -1)
1969-12-31 18:00:09.203842405,(1 -1 0 0 0 0 -2 0)
1969-12-31 18:00:09.203842405,(-1 -2 -2 -1 -1 0 -2 0)
1969-12-31 18:00:09.219394505,(0 1 1 -2 -1 1 -2 0)
1969-12-31 18:00:09.219394505,(-2 -1 -2 -1 0 -1 -1 1)
1969-12-31 18:00:09.221468118,(-1 -2 0 -1 -1 0 -2 0)
1969-12-31 18:00:09.221468118,(-1 0 -1 -2 -3 -1 0 0)
1969-12-31 18:00:09.243241058,(0 -1 -2 -2 -1 -1 0 1)
1969-12-31 18:00:09.243241058,(0 -1 0 0 1 -1 0 0)
1969-12-31 18:00:09.244277864,(0 1 -2 -1 2 0 -1 -1)
1969-12-31 18:00:09.244277864,(-1 -1 -1 0 1 -1 -2 -1)
1969-12-31 18:00:09.256719544,(-2 -1 0 -1 -1 1 -1 -1)
1969-12-31 18:00:09.256719544,(0 -1 -2 -3 -6 -1 3 1)
1969-12-31 18:00:09.266050804,(0 0 0 3 8 0 -1 -3)
1969-12-31 18:00:09.266050804,(0 0 -2 0 -1 -1 1 0)
1969-12-31 18:00:09.281602903,(-2 -1 -1 -3 -3 -2 -3 -1)
1969-12-31 18:00:09.281602903,(-1 0 0 3 -1 -1 -4 -3)
1969-12-31 18:00:09.283676516,(1 1 0 2 1 1 2 1)
1969-12-31 18:00:09.283676516,(0 0 1 -2 1 -3 -2 -3)
1969-12-31 18:00:09.305449456,(-1 0 -1 -2 -2 -3 1 0)
1969-12-31 18:00:09.305449456,(-1 -2 0 -2 1 -1 -1 0)
1969-12-31 18:00:09.306486262,(0 -2 0 1 3 4 -1 0)
1969-12-31 18:00:09.306486262,(0 1 -1 3 0 1 -1 1)
1969-12-31 18:00:09.318927942,(-2 -2 -4 -2 -1 -2 -1 0)
1969-12-31 18:00:09.318927942,(-1 0 -2 -2 -4 0 -1 -2)
1969-12-31 18:00:09.328259201,(-1 -1 -1 1 3 0 -1 -1)
1969-12-31 18:00:09.328259201,(-3 -2 -1 -1 -4 -1 1 0)
1969-12-31 18:00:09.343811301,(0 -1 0 1 0 -1 -2 0)
1969-12-31 18:00:09.343811301,(-2 0 0 -2 -1 -1 -1 0)
1969-12-31 18:00:09.345884914,(-2 0 -2 -3 -5 -1 2 2)
1969-12-31 18:00:09.345884914,(-1 1 -2 -1 0 1 -1 -2)
1969-12-31 18:00:09.367657854,(1 -1 -2 -1 -2 0 1 0)
1969-12-31 18:00:09.367657854,(1 -2 -1 0 2 -1 1 0)
1969-12-31 18:00:09.368694660,(0 1 0 -1 -5 -1 -1 0)
1969-12-31 18:00:09.368694660,(1 0 1 -1 -1 -1 0 0)
1969-12-31 18:00:09.381136340,(0 0 -1 2 2 1 0 0)
1969-12-31 18:00:09.381136340,(-2 1 0 -2 -1 -1 0 -1)
1969-12-31 18:00:09.390467600,(-1 0 0 -2 -3 -1 -3 -1)
1969-12-31 18:00:09.390467600,(-2 -1 -2 0 0 0 2 -1)
1969-12-31 18:00:09.406019699,(0 0 1 -3 -5 0 1 -1)
1969-12-31 18:00:09.406019699,(0 0 -1 1 2 0 1 0)
1969-12-31 18:00:09.408093313,(-2 0 -1 2 5 1 1 -1)
1969-12-31 18:00:09.408093313,(1 0 1 -1 3 2 -2 -1)
1969-12-31 18:00:09.429866252,(0 0 -2 -1 2 0 -2 0)
1969-12-31 18:00:09.429866252,(1 -1 0 -2 -4 0 3 1)
1969-12-31 18:00:09.430903059,(-2 -3 -1 0 -3 -2 -3 -2)
1969-12-31 18:00:09.430903059,(0 -1 -2 -1 -1 -1 0 1)
1969-12-31 18:00:09.443344738,(0 0 0 -2 -4 -1 0 1)
1969-12-31 18:00:09.443344738,(0 0 0 0 2 1 0 2)
1969-12-31 18:00:09.443344738,(-2 -1 -2 0 1 1 1 -2)
1969-12-31 18:00:09.443344738,(-2 -2 0 0 0 -1 1 0)
1969-12-31 18:00:09.452675998,(-1 -2 -1 0 -4 -2 -1 0)
1969-12-31 18:00:09.452675998,(0 0 -1 -1 -1 0 0 0)
1969-12-31 18:00:09.468228097,(2 0 -2 0 0 -1 -2 0)
1969-12-31 18:00:09.468228097,(-1 -1 1 1 0 1 -1 1)
1969-12-31 18:00:09.469264904,(1 -1 0 0 1 -1 -1 -2)
1969-12-31 18:00:09.469264904,(-2 -2 -1 -1 -3 -2 -1 -2)
1969-12-31 18:00:09.481706584,(-1 0 -2 1 1 2 -1 1)
1969-12-31 18:00:09.481706584,(-1 0 -1 -2 -4 -1 -2 0)
1969-12-31 18:00:09.499332297,(0 -1 -1 2 1 0 -2 -3)
1969-12-31 18:00:09.499332297,(-2 -4 -1 -1 0 0 -1 -2)
1969-12-31 18:00:09.505553136,(-2 -1 1 -1 0 1 2 0)
1969-12-31 18:00:09.505553136,(0 -1 0 -1 2 0 -2 -1)
1969-12-31 18:00:09.512810783,(0 0 -2 -1 0 0 1 0)
1969-12-31 18:00:09.512810783,(1 2 0 0 -2 2 3 2)
1969-12-31 18:00:09.530436496,(1 0 1 1 -1 -2 -1 0)
1969-12-31 18:00:09.530436496,(0 1 1 0 -1 0 0 0)
1969-12-31 18:00:09.531473302,(-1 -1 -2 -1 -1 -1 -1 0)
1969-12-31 18:00:09.531473302,(2 0 -2 -3 -3 3 1 0)
1969-12-31 18:00:09.543914982,(4 5 2 5 0 -3 -2 1)
1969-12-31 18:00:09.543914982,(-5 -4 0 -1 0 3 -1 -2)
1969-12-31 18:00:09.553246242,(0 0 1 -2 -1 -2 -1 1)
1969-12-31 18:00:09.553246242,(-2 -1 -1 1 0 -1 -3 -1)
1969-12-31 18:00:09.567761534,(0 -1 -1 -2 -3 0 1 1)
1969-12-31 18:00:09.567761534,(1 0 0 -2 -1 -2 -1 -1)
1969-12-31 18:00:09.575019181,(-1 -1 -2 -3 -4 -1 -2 0)
1969-12-31 18:00:09.575019181,(-2 -2 -2 0 -1 -3 -1 -1)
1969-12-31 18:00:09.592644894,(-1 -1 0 -1 -2 -2 -1 -3)
1969-12-31 18:00:09.592644894,(-1 -1 -1 -1 -2 1 0 2)
1969-12-31 18:00:09.593681700,(-3 -2 -1 -1 0 1 0 -1)
1969-12-31 18:00:09.593681700,(1 2 2 1 -1 -2 -1 1)
1969-12-31 18:00:09.606123380,(-2 -2 -3 -2 -3 -2 -2 -4)
1969-12-31 18:00:09.606123380,(0 -4 -1 2 1 1 0 0)
1969-12-31 18:00:09.615454640,(2 1 0 1 2 4 3 1)
1969-12-31 18:00:09.615454640,(1 1 1 1 1 1 0 -1)
1969-12-31 18:00:09.639301192,(-2 0 -3 -4 -3 -1 -1 -2)
1969-12-31 18:00:09.639301192,(-1 0 -2 5 5 -1 0 -1)
1969-12-31 18:00:09.640337999,(-2 -1 2 0 -2 0 -2 -1)
1969-12-31 18:00:09.640337999,(0 -1 2 0 -2 -2 -2 -4)
1969-12-31 18:00:09.654853292,(-1 0 -1 -1 -2 -1 0 0)
1969-12-31 18:00:09.654853292,(0 1 -4 -4 -6 -6 -2 1)
1969-12-31 18:00:09.655890098,(0 0 0 0 2 0 0 0)
1969-12-31 18:00:09.655890098,(0 -1 -2 -2 0 0 0 0)
1969-12-31 18:00:09.668331778,(-1 -2 -1 -2 0 1 -1 1)
1969-12-31 18:00:09.668331778,(-1 1 -1 -2 -1 -1 -1 0)
1969-12-31 18:00:09.677663038,(3 0 0 2 0 -1 0 1)
1969-12-31 18:00:09.677663038,(-2 -1 1 1 0 -2 -1 0)
1969-12-31 18:00:09.701509590,(0 -1 1 -2 1 0 0 -1)
1969-12-31 18:00:09.701509590,(-2 0 1 -1 -1 -1 0 -2)
1969-12-31 18:00:09.702546397,(-2 -2 -2 -4 -3 -1 -1 -3)
1969-12-31 18:00:09.702546397,(0 -2 -4 0 1 0 0 1)
1969-12-31 18:00:09.717061690,(3 1 -2 1 1 1 1 1)
1969-12-31 18:00:09.717061690,(-1 0 1 0 2 2 -2 -2)
1969-12-31 18:00:09.718098497,(1 0 0 0 1 1 -1 0)
1969-12-31 18:00:09.718098497,(-1 -1 1 -2 0 2 2 2)
1969-12-31 18:00:09.748165889,(1 -2 -2 0 -2 -2 1 0)
1969-12-31 18:00:09.748165889,(1 -3 0 -1 -2 -1 -1 -2)
1969-12-31 18:00:09.749202696,(0 -2 0 1 3 2 2 1)
1969-12-31 18:00:09.749202696,(1 2 3 -1 0 -2 -1 0)
1969-12-31 18:00:09.755423536,(-2 0 0 -2 0 1 1 -2)
1969-12-31 18:00:09.755423536,(0 0 -3 -1 -2 0 1 -1)
1969-12-31 18:00:09.757497149,(0 1 -1 0 -1 -4 -4 0)
1969-12-31 18:00:09.757497149,(1 0 0 2 1 0 1 0)
1969-12-31 18:00:09.779270088,(-1 0 0 -2 -2 0 0 -1)
1969-12-31 18:00:09.779270088,(-1 -1 -5 -4 -5 -3 -1 -2)
1969-12-31 18:00:09.780306895,(1 1 4 4 2 2 -1 0)
1969-12-31 18:00:09.780306895,(2 2 2 2 4 5 3 1)
1969-12-31 18:00:09.802079834,(-2 0 -1 -1 -1 -1 -2 -2)
1969-12-31 18:00:09.802079834,(1 -1 -2 -5 -3 0 -2 1)
1969-12-31 18:00:09.804153447,(1 -1 -5 0 -7 -5 0 -1)
1969-12-31 18:00:09.804153447,(1 -3 0 -2 1 0 -2 0)
1969-12-31 18:00:09.817631934,(-1 0 5 2 3 4 3 0)
1969-12-31 18:00:09.817631934,(-1 1 0 2 3 0 -1 0)
1969-12-31 18:00:09.823852773,(0 1 0 -2 -1 1 -1 1)
1969-12-31 18:00:09.823852773,(-3 -1 -5 -6 -9 -5 -2 0)
1969-12-31 18:00:09.841478486,(2 2 1 5 3 0 -1 1)
1969-12-31 18:00:09.841478486,(-3 -2 -1 -4 -2 -1 -2 -2)
1969-12-31 18:00:09.842515293,(3 2 0 -3 -6 -2 1 1)
1969-12-31 18:00:09.842515293,(-9 -7 0 5 8 2 -4 -4)
1969-12-31 18:00:09.864288232,(0 -2 -3 -14 -11 -4 0 -1)
1969-12-31 18:00:09.864288232,(4 -1 -18 -23 -16 -5 -2 2)
1969-12-31 18:00:09.866361846,(3 1 11 11 14 3 1 1)
1969-12-31 18:00:09.866361846,(-6 5 13 40 7 1 -3 -7)
1969-12-31 18:00:09.878803525,(-2 -8 1 16 20 8 0 0)
1969-12-31 18:00:09.878803525,(-2 2 6 -4 -9 -1 -1 -5)
1969-12-31 18:00:09.886061172,(-1 -7 -21 -41 -13 -3 1 2)
1969-12-31 18:00:09.886061172,(2 -5 -8 -34 -17 -7 -3 0)
1969-12-31 18:00:09.903686884,(-2 -1 2 40 10 3 1 1)
1969-12-31 18:00:09.903686884,(3 4 6 26 28 6 2 3)
1969-12-31 18:00:09.904723691,(3 2 3 5 -5 0 0 2)
1969-12-31 18:00:09.904723691,(-8 -8 -5 -7 -21 -12 -7 -9)
1969-12-31 18:00:09.926496630,(-1 -3 -15 -40 -22 -8 -1 1)
1969-12-31 18:00:09.926496630,(-2 -3 0 -10 6 1 1 -2)
1969-12-31 18:00:09.928570244,(-6 -5 -9 9 14 8 4 -3)
1969-12-31 18:00:09.928570244,(-2 -7 14 14 14 3 -1 1)
1969-12-31 18:00:09.941011923,(-9 7 14 23 -1 -7 -7 -7)
1969-12-31 18:00:09.941011923,(13 11 5 -23 -2 6 7 8)
1969-12-31 18:00:09.950343183,(3 1 -9 7 -11 -4 -2 -3)
1969-12-31 18:00:09.950343183,(3 1 -4 -9 -7 -4 0 2)
1969-12-31 18:00:09.965895283,(4 0 -7 -9 -5 -4 -5 -3)
1969-12-31 18:00:09.965895283,(-9 -17 -7 -24 -18 -7 -3 -5)
1969-12-31 18:00:09.967968896,(10 17 12 -7 -17 -8 3 7)
1969-12-31 18:00:09.967968896,(7 6 0 47 53 12 -2 2)
1969-12-31 18:00:09.988705029,(-13 -12 20 10 7 9 2 -4)
1969-12-31 18:00:09.988705029,(-10 -4 2 14 -3 -9 -3 -7)
1969-12-31 18:00:09.990778642,(-9 -15 -36 -61 -36 -20 -14 -8)
1969-12-31 18:00:09.990778642,(3 11 0 -59 -32 3 9 4)
1969-12-31 18:00:10.003220321,(7 8 15 82 39 15 6 2)
1969-12-31 18:00:10.003220321,(7 9 27 46 39 8 -3 4)
1969-12-31 18:00:10.012551581,(-13 -3 7 -48 -57 -19 -8 -11)
1969-12-31 18:00:10.012551581,(4 -5 -32 -30 -4 1 6 4)
1969-12-31 18:00:10.027066874,(6 -8 -16 53 26 11 8 9)
1969-12-31 18:00:10.027066874,(-3 -1 -5 -19 -27 -10 -1 0)
1969-12-31 18:00:10.029140487,(2 8 13 0 1 -4 2 1)
1969-12-31 18:00:10.029140487,(1 -3 2 -8 14 5 -4 1)
1969-12-31 18:00:10.050913427,(-2 14 21 -29 -12 5 5 -2)
1969-12-31 18:00:10.050913427,(-1 -11 -43 10 -5 -12 -6 -3)
1969-12-31 18:00:10.052987040,(-2 -3 27 8 20 8 -2 0)
1969-12-31 18:00:10.052987040,(-1 3 17 43 -5 -1 1 -2)
1969-12-31 18:00:10.065428720,(-4 -5 -4 -19 5 -7 -4 -4)
1969-12-31 18:00:10.065428720,(8 9 -6 -22 -17 -3 2 4)
1969-12-31 18:00:10.074759979,(-6 -13 -39 -77 -40 -8 -3 -4)
1969-12-31 18:00:10.074759979,(-4 0 25 92 50 7 -2 -1)
1969-12-31 18:00:10.090312078,(2 13 24 4 19 6 -2 0)
1969-12-31 18:00:10.090312078,(-2 2 -3 -13 -10 -2 -1 -4)
1969-12-31 18:00:10.091348884,(10 6 -21 -24 -8 0 7 4)
1969-12-31 18:00:10.091348884,(0 -16 -17 2 -14 -7 -5 1)
1969-12-31 18:00:10.113121825,(-11 -9 0 -28 -1 -5 -4 -6)
1969-12-31 18:00:10.113121825,(2 4 15 18 9 8 2 2)
1969-12-31 18:00:10.115195438,(-5 -1 20 83 42 14 1 1)
1969-12-31 18:00:10.115195438,(0 4 -9 -38 -6 0 2 -1)
1969-12-31 18:00:10.127637118,(5 -3 -24 -28 -33 -12 -3 3)
1969-12-31 18:00:10.127637118,(-4 -4 4 -3 6 6 1 1)
1969-12-31 18:00:10.136968377,(-1 -2 3 34 20 3 1 -2)
1969-12-31 18:00:10.136968377,(-2 0 -10 -35 -11 -6 -2 -4)
1969-12-31 18:00:10.152520477,(1 -1 -5 -42 -31 -7 -3 2)
1969-12-31 18:00:10.152520477,(-1 -1 7 40 19 2 2 0)
1969-12-31 18:00:10.153557284,(-4 0 7 26 19 5 1 -1)
1969-12-31 18:00:10.153557284,(1 3 -2 -26 -19 -4 0 1)
1969-12-31 18:00:10.175330223,(0 -3 -11 0 -3 -5 -2 -5)
1969-12-31 18:00:10.175330223,(2 1 2 -19 -6 1 0 1)
1969-12-31 18:00:10.183624676,(-3 -2 7 35 21 4 -2 0)
1969-12-31 18:00:10.183624676,(3 5 3 -21 -7 -3 1 1)
1969-12-31 18:00:10.189845516,(1 0 -5 7 -7 -4 -1 0)
1969-12-31 18:00:10.189845516,(-6 -5 -3 -2 -3 -2 -3 -5)
1969-12-31 18:00:10.199176776,(3 0 -4 -16 -1 1 3 3)
1969-12-31 18:00:10.199176776,(-3 2 6 21 0 3 2 -2)
1969-12-31 18:00:10.214728875,(-2 0 3 27 9 -1 -2 -4)
1969-12-31 18:00:10.214728875,(3 2 1 0 2 4 3 3)
1969-12-31 18:00:10.215765682,(-5 -2 2 4 2 -4 -5 -6)
1969-12-31 18:00:10.215765682,(2 1 -1 -7 -16 -3 -1 1)
1969-12-31 18:00:10.245833074,(1 0 -5 -2 1 0 0 0)
1969-12-31 18:00:10.245833074,(-3 -2 2 5 8 3 0 -3)
1969-12-31 18:00:10.246869881,(1 0 1 5 -1 0 -2 0)
1969-12-31 18:00:10.246869881,(-5 -5 -9 -35 -17 -6 -2 -3)
1969-12-31 18:00:10.252053914,(4 4 5 27 2 0 2 4)
1969-12-31 18:00:10.252053914,(-1 -2 -2 -4 -2 -2 -2 -1)
1969-12-31 18:00:10.261385174,(-1 1 1 -3 1 2 3 0)
1969-12-31 18:00:10.261385174,(2 0 4 24 7 1 -2 0)
1969-12-31 18:00:10.275900467,(-1 -3 -8 -27 -4 -2 1 0)
1969-12-31 18:00:10.275900467,(-8 -5 2 1 -1 2 -1 -4)
1969-12-31 18:00:10.283158113,(10 6 1 7 -1 -3 2 7)
1969-12-31 18:00:10.283158113,(-1 -2 -1 -9 0 4 5 -2)
1969-12-31 18:00:10.300783826,(-8 -4 -4 -12 -6 -5 -9 -8)
1969-12-31 18:00:10.300783826,(4 0 -3 -2 -1 -1 -1 2)
1969-12-31 18:00:10.301820632,(-10 -3 5 7 8 5 -2 -7)
1969-12-31 18:00:10.301820632,(-2 -4 -2 1 -1 -4 0 9)
1969-12-31 18:00:10.314262312,(35 25 6 -3 7 13 17 17)
1969-12-31 18:00:10.314262312,(-24 -16 0 7 -3 -8 -16 -26)
1969-12-31 18:00:10.323593572,(8 2 -1 -2 -3 -2 0 5)
1969-12-31 18:00:10.323593572,(-5 3 1 6 3 4 4 -4)
1969-12-31 18:00:10.338108864,(-10 -14 -11 -15 -7 -4 -5 1)
1969-12-31 18:00:10.338108864,(13 9 0 -5 -4 -1 3 9)
1969-12-31 18:00:10.345366511,(-1 -3 -3 7 4 0 0 -1)
1969-12-31 18:00:10.345366511,(-12 -6 1 1 3 -2 -6 -11)
1969-12-31 18:00:10.361955417,(1 1 1 -11 -7 0 1 2)
1969-12-31 18:00:10.361955417,(1 3 2 6 1 1 0 0)
1969-12-31 18:00:10.364029031,(-4 -2 3 13 8 3 -4 -3)
1969-12-31 18:00:10.364029031,(4 2 -1 4 4 0 0 3)
1969-12-31 18:00:10.376470710,(-7 -5 -6 -13 -3 -5 -7 -6)
1969-12-31 18:00:10.376470710,(1 0 -3 -1 6 0 2 3)
1969-12-31 18:00:10.385801970,(-3 -2 2 -10 -11 -2 -1 -3)
1969-12-31 18:00:10.385801970,(-18 -2 10 35 17 3 2 -1)
1969-12-31 18:00:10.400317263,(19 2 0 -8 -4 -2 -1 0)
1969-12-31 18:00:10.400317263,(-13 -13 -3 -5 -10 -8 -11 -10)
1969-12-31 18:00:10.414832556,(0 0 -7 -14 -2 -1 4 8)
1969-12-31 18:00:10.414832556,(30 18 7 -8 -6 3 2 5)
1969-12-31 18:00:10.424163815,(-33 -19 -10 -8 -11 -17 -21 -27)
1969-12-31 18:00:10.424163815,(1 4 2 0 2 2 5 4)
1969-12-31 18:00:10.425200622,(-5 -7 -7 -9 -13 -5 -1 -2)
1969-12-31 18:00:10.425200622,(1 -3 -8 -16 -5 -2 0 5)
1969-12-31 18:00:10.438679108,(4 5 4 19 11 10 11 9)
1969-12-31 18:00:10.438679108,(12 7 9 33 18 9 5 6)
1969-12-31 18:00:10.448010368,(-12 -1 11 27 13 3 -3 -9)
1969-12-31 18:00:10.448010368,(3 2 -5 -9 -7 -2 -1 1)
1969-12-31 18:00:10.462525661,(0 -2 -7 -19 -9 -1 -1 1)
1969-12-31 18:00:10.462525661,(-2 0 -6 -21 -8 -1 3 2)
1969-12-31 18:00:10.469783307,(4 1 -2 -2 0 -2 -1 -2)
1969-12-31 18:00:10.469783307,(-1 -2 -3 0 -2 -4 -9 -6)
1969-12-31 18:00:10.494666667,(0 1 1 -17 0 0 7 6)
1969-12-31 18:00:10.494666667,(6 2 1 7 0 -3 -6 5)
1969-12-31 18:00:10.495703473,(-19 -7 1 0 3 2 2 -3)
1969-12-31 18:00:10.495703473,(6 5 -5 -3 -6 -4 -7 -11)
1969-12-31 18:00:10.500887506,(23 15 8 32 16 10 10 12)
1969-12-31 18:00:10.500887506,(8 6 3 -3 3 1 2 6)
1969-12-31 18:00:10.510218766,(4 -1 -19 -60 -24 -11 -8 -3)
1969-12-31 18:00:10.510218766,(-10 -10 -8 8 -16 -8 -5 -5)
1969-12-31 18:00:10.524734059,(-6 -2 0 -33 -14 -4 -2 -1)
1969-12-31 18:00:10.524734059,(-4 1 12 72 15 4 1 -7)
1969-12-31 18:00:10.531991706,(11 9 28 82 44 16 5 5)
1969-12-31 18:00:10.531991706,(-7 -4 2 -16 11 7 3 0)
1969-12-31 18:00:10.548580612,(2 -5 -13 -15 -13 -8 -9 1)
1969-12-31 18:00:10.548580612,(-7 -3 -18 -85 -21 0 -1 -7)
1969-12-31 18:00:10.550654225,(0 -3 -7 -2 -18 -5 0 0)
1969-12-31 18:00:10.550654225,(-9 -5 6 27 2 -9 -2 1)
1969-12-31 18:00:10.563095905,(-2 -2 4 15 6 3 -7 -21)
1969-12-31 18:00:10.563095905,(-6 -6 -6 -23 -12 -6 -7 0)
1969-12-31 18:00:10.572427164,(10 1 -10 -30 -9 -4 -1 4)
1969-12-31 18:00:10.572427164,(-2 -1 -6 -3 1 0 -4 -4)
1969-12-31 18:00:10.586942457,(-6 -2 -2 -1 1 -2 -2 7)
1969-12-31 18:00:10.586942457,(7 0 -14 -38 -23 -6 6 7)
1969-12-31 18:00:10.594200104,(3 8 24 78 22 4 -2 0)
1969-12-31 18:00:10.594200104,(-3 0 13 -1 24 11 7 -2)
1969-12-31 18:00:10.610789010,(-12 1 9 39 5 9 13 12)
1969-12-31 18:00:10.610789010,(12 1 -1 11 7 -7 -16 -9)
1969-12-31 18:00:10.612862623,(-1 1 -5 -24 -6 -2 -1 2)
1969-12-31 18:00:10.612862623,(5 0 -11 -48 -33 -14 -6 1)
1969-12-31 18:00:10.625304303,(-16 -16 -25 -87 -28 -11 -2 -8)
1969-12-31 18:00:10.625304303,(-5 -2 2 41 5 4 3 0)
1969-12-31 18:00:10.634635562,(1 4 7 47 29 10 7 1)
1969-12-31 18:00:10.634635562,(-1 1 16 47 19 9 5 3)
1969-12-31 18:00:10.649150855,(0 1 4 -6 -3 -3 -7 -5)
1969-12-31 18:00:10.649150855,(3 2 6 -20 -17 -5 2 5)
1969-12-31 18:00:10.656408502,(-4 -4 -8 -10 -5 0 -2 -4)
1969-12-31 18:00:10.656408502,(-14 -9 -11 -11 -3 -7 -11 -11)
1969-12-31 18:00:10.672997408,(27 13 -6 -9 -4 7 14 11)
1969-12-31 18:00:10.672997408,(-6 -3 3 -7 2 4 4 -2)
1969-12-31 18:00:10.675071021,(2 0 -4 -3 -5 -2 2 2)
1969-12-31 18:00:10.675071021,(-8 -8 -3 13 6 -1 -2 1)
1969-12-31 18:00:10.696843961,(4 6 15 41 12 4 8 14)
1969-12-31 18:00:10.696843961,(-22 -16 -6 7 5 -6 -11 -18)
1969-12-31 18:00:10.697880767,(2 4 1 -29 -6 4 2 0)
1969-12-31 18:00:10.697880767,(29 14 -6 -12 -10 0 9 20)
1969-12-31 18:00:10.710322447,(-12 -12 -8 4 3 -5 -8 -10)
1969-12-31 18:00:10.710322447,(-15 -3 -3 -1 0 -1 0 -1)
1969-12-31 18:00:10.719653707,(10 1 5 10 8 12 17 15)
1969-12-31 18:00:10.719653707,(-9 -6 3 16 2 0 -4 -10)
1969-12-31 18:00:10.735205806,(-3 1 3 16 20 0 -1 -1)
1969-12-31 18:00:10.735205806,(4 4 -5 -25 -14 0 1 0)
1969-12-31 18:00:10.737279419,(-16 -7 -3 -5 -16 -11 -9 -10)
1969-12-31 18:00:10.737279419,(20 11 3 5 4 2 6 11)
1969-12-31 18:00:10.759052359,(-3 -1 2 0 5 0 -3 -7)
1969-12-31 18:00:10.759052359,(0 -2 -5 0 -1 -9 -6 4)
1969-12-31 18:00:10.760089165,(-15 -14 -9 -17 -5 -12 -21 -24)
1969-12-31 18:00:10.760089165,(0 -3 -3 -11 -6 1 1 3)
1969-12-31 18:00:10.781862105,(1 1 -1 -3 -11 -2 1 6)
1969-12-31 18:00:10.781862105,(-7 -5 3 9 8 4 6 4)
1969-12-31 18:00:10.783935718,(54 38 2 -3 2 5 11 27)
1969-12-31 18:00:10.783935718,(-20 -16 -7 -9 -7 -7 -12 -17)
1969-12-31 18:00:10.797414204,(-9 -8 -4 0 -3 -6 -11 -12)
1969-12-31 18:00:10.797414204,(5 2 6 13 2 4 6 8)
1969-12-31 18:00:10.799487818,(-19 -16 -3 -6 -1 -7 -12 -22)
1969-12-31 18:00:10.799487818,(0 4 3 -5 3 11 15 14)
1969-12-31 18:00:10.820223950,(31 14 3 5 0 4 6 10)
1969-12-31 18:00:10.821260757,(-3 0 2 7 5 0 -4 -10)
1969-12-31 18:00:10.822297564,(-7 -13 -5 -10 -6 -6 -5 0)
1969-12-31 18:00:10.822297564,(-3 0 -3 -3 -5 -6 -7 -6)
1969-12-31 18:00:10.834739243,(-19 -11 -1 2 -2 -5 -10 -12)
1969-12-31 18:00:10.834739243,(6 2 1 3 5 4 4 1)
1969-12-31 18:00:10.844070503,(-2 -3 1 -1 -1 5 4 -2)
1969-12-31 18:00:10.844070503,(0 3 1 1 0 9 19 4)
1969-12-31 18:00:10.859622602,(19 10 6 0 -4 -15 -14 18)
1969-12-31 18:00:10.859622602,(-7 -6 -11 -13 -9 -8 -12 -13)
1969-12-31 18:00:10.861696216,(7 8 2 0 3 9 12 13)
1969-12-31 18:00:10.861696216,(-2 -2 -3 -4 10 3 3 0)
1969-12-31 18:00:10.883469155,(-1 0 0 9 -11 5 12 2)
1969-12-31 18:00:10.883469155,(4 3 5 14 12 0 -1 -1)
1969-12-31 18:00:10.884505962,(5 3 -2 -6 -2 -1 0 1)
1969-12-31 18:00:10.884505962,(2 4 5 5 6 7 7 6)
1969-12-31 18:00:10.896947641,(-15 -5 -4 -12 -8 -6 -7 -13)
1969-12-31 18:00:10.896947641,(13 9 1 14 -7 1 4 14)
1969-12-31 18:00:10.906278901,(-10 -7 -3 4 6 -3 -2 -7)
1969-12-31 18:00:10.906278901,(17 10 -1 -9 -4 -8 -8 5)
1969-12-31 18:00:10.921831001,(-18 -11 -4 4 -4 -5 -8 -15)
1969-12-31 18:00:10.921831001,(6 4 -1 -11 6 4 7 5)
1969-12-31 18:00:10.923904614,(-4 0 7 11 -1 4 4 3)
1969-12-31 18:00:10.923904614,(1 -1 0 5 -1 -6 -11 -6)
1969-12-31 18:00:10.945677553,(-7 -5 -2 -6 3 -1 -4 -5)
1969-12-31 18:00:10.945677553,(-1 1 -2 -9 0 2 0 -1)
1969-12-31 18:00:10.946714360,(1 2 -5 -10 -6 -7 -6 -2)
1969-12-31 18:00:10.946714360,(8 1 -1 -7 -7 1 6 2)
1969-12-31 18:00:10.959156039,(-6 -4 0 6 7 6 3 2)
1969-12-31 18:00:10.959156039,(-6 -5 1 7 1 -3 -7 -8)
1969-12-31 18:00:10.968487299,(-10 -10 -11 -23 -11 -8 -12 -9)
1969-12-31 18:00:10.968487299,(5 8 7 9 -1 7 9 5)
1969-12-31 18:00:10.984039399,(-5 0 5 9 9 -1 -4 -3)
1969-12-31 18:00:10.984039399,(27 18 5 2 -2 8 16 25)
1969-12-31 18:00:10.986113012,(-21 -13 -13 -52 -18 -11 -16 -18)
1969-12-31 18:00:10.986113012,(0 -2 -6 6 -4 -3 -3 -5)
1969-12-31 18:00:11.007885951,(-3 -4 -2 12 -3 0 -3 -6)
1969-12-31 18:00:11.007885951,(-7 -3 10 30 10 2 -4 -5)
1969-12-31 18:00:11.008922758,(-3 -3 9 38 16 13 14 6)
1969-12-31 18:00:11.008922758,(-14 -8 -16 -71 -25 -22 -24 -15)
1969-12-31 18:00:11.021364438,(14 11 1 18 -2 6 16 12)
1969-12-31 18:00:11.021364438,(9 6 -1 -15 4 1 2 4)
1969-12-31 18:00:11.030695697,(-13 -12 -18 -30 -3 -15 -18 -14)
1969-12-31 18:00:11.030695697,(-3 -7 15 99 -19 16 9 2)
1969-12-31 18:00:11.046247797,(-8 4 29 73 30 -6 -8 -5)
1969-12-31 18:00:11.046247797,(-6 4 19 34 21 13 11 -3)
1969-12-31 18:00:11.048321410,(10 3 -3 -13 -1 1 9 10)
1969-12-31 18:00:11.048321410,(-7 -5 -24 -81 -5 -13 -10 -5)
1969-12-31 18:00:11.070094349,(4 -6 -31 -82 -39 -9 0 1)
1969-12-31 18:00:11.070094349,(-8 -12 -16 -53 -36 -10 -3 -3)
1969-12-31 18:00:11.072167963,(3 3 7 45 10 1 0 2)
1969-12-31 18:00:11.072167963,(4 3 19 67 23 4 -1 0)
1969-12-31 18:00:11.084609642,(0 5 7 5 23 14 8 3)
1969-12-31 18:00:11.084609642,(-18 -12 -30 -74 -51 -26 -21 -20)
1969-12-31 18:00:11.092904095,(20 11 10 75 10 8 11 18)
1969-12-31 18:00:11.092904095,(-3 1 14 7 25 11 4 -1)
1969-12-31 18:00:11.108456195,(0 -1 8 62 38 11 3 0)
1969-12-31 18:00:11.108456195,(-2 -3 -1 -9 -4 -5 -2 -4)
1969-12-31 18:00:11.110529808,(-14 -12 -12 -62 -39 -10 -5 -11)
1969-12-31 18:00:11.110529808,(-4 -8 -22 -23 -25 -7 -4 -1)
1969-12-31 18:00:11.132302748,(8 11 18 41 -22 -1 2 5)
1969-12-31 18:00:11.132302748,(11 18 27 57 52 14 9 9)
1969-12-31 18:00:11.134376361,(0 1 3 7 9 6 1 -3)
1969-12-31 18:00:11.134376361,(-6 -9 -15 -34 26 4 5 2)
1969-12-31 18:00:11.145781234,(-2 -10 -36 -128 -55 -13 -5 -4)
1969-12-31 18:00:11.145781234,(2 -5 -12 19 -28 -6 0 5)
1969-12-31 18:00:11.155112494,(0 3 14 20 21 0 -2 -1)
1969-12-31 18:00:11.155112494,(-8 -2 12 45 14 -5 -8 -9)
1969-12-31 18:00:11.170664593,(-2 -2 -1 9 5 2 2 0)
1969-12-31 18:00:11.170664593,(-3 4 10 36 14 8 5 -1)
1969-12-31 18:00:11.172738206,(8 0 -8 -41 3 0 -3 4)
1969-12-31 18:00:11.172738206,(-4 0 -1 2 -6 -2 -2 1)
1969-12-31 18:00:11.194511146,(-16 -13 -1 17 -1 1 -4 -16)
1969-12-31 18:00:11.194511146,(-7 -11 -9 -38 4 -5 -9 -5)
1969-12-31 18:00:11.196584759,(-1 -3 -16 -40 -28 -4 4 2)
1969-12-31 18:00:11.196584759,(-2 -2 -2 11 -18 -11 -9 -6)
1969-12-31 18:00:11.217320892,(15 14 19 44 31 8 9 10)
1969-12-31 18:00:11.217320892,(4 3 -11 -60 -7 3 1 3)
1969-12-31 18:00:11.219394505,(-3 -5 -8 44 -18 -10 -8 -7)
1969-12-31 18:00:11.219394505,(2 4 28 94 35 7 2 1)
1969-12-31 18:00:11.232872991,(-6 0 0 -9 -9 2 -3 -2)
1969-12-31 18:00:11.232872991,(-1 -1 13 53 3 3 4 -2)
1969-12-31 18:00:11.234946604,(9 12 10 -14 10 6 10 5)
1969-12-31 18:00:11.234946604,(-13 -15 -25 -59 -20 -18 -23 -22)
1969-12-31 18:00:11.256719544,(25 15 -1 -20 11 7 15 29)
1969-12-31 18:00:11.256719544,(-21 -21 -18 -17 -25 -8 -11 -14)
1969-12-31 18:00:11.257756350,(21 14 5 8 -3 1 11 13)
1969-12-31 18:00:11.257756350,(15 9 1 -15 5 3 11 16)
1969-12-31 18:00:11.270198030,(-14 -7 -8 -28 -8 -7 -11 -13)
1969-12-31 18:00:11.270198030,(5 4 5 -2 -8 -3 1 5)
1969-12-31 18:00:11.279529290,(1 3 6 15 12 6 6 7)
1969-12-31 18:00:11.279529290,(7 6 2 1 5 4 3 3)
1969-12-31 18:00:11.294044583,(1 -2 4 14 7 0 0 0)
1969-12-31 18:00:11.294044583,(-4 -2 2 11 10 3 2 -2)
1969-12-31 18:00:11.301302229,(-11 -2 5 5 2 -8 -15 -11)
1969-12-31 18:00:11.301302229,(-1 2 -6 -30 -14 2 5 -7)
1969-12-31 18:00:11.318927942,(-9 -9 -10 -7 -9 -6 -4 -4)
1969-12-31 18:00:11.318927942,(9 0 -2 1 7 -2 0 6)
1969-12-31 18:00:11.319964749,(6 6 0 -22 -11 -4 -8 2)
1969-12-31 18:00:11.319964749,(-11 -8 -2 4 -3 -1 1 -6)
1969-12-31 18:00:11.332406428,(-25 -19 -1 11 6 -1 -5 -13)
1969-12-31 18:00:11.332406428,(44 34 15 21 14 10 16 31)
1969-12-31 18:00:11.341737687,(12 3 -7 -9 -5 -6 -7 -8)
1969-12-31 18:00:11.341737687,(1 -2 -4 -29 -13 -1 0 4)
1969-12-31 18:00:11.357289786,(16 7 -5 -4 -2 -4 -1 0)
1969-12-31 18:00:11.357289786,(-23 -15 -5 4 6 -3 -4 -11)
1969-12-31 18:00:11.365584241,(-7 -3 8 21 1 3 6 11)
1969-12-31 18:00:11.365584241,(12 12 4 4 9 0 -3 -1)
1969-12-31 18:00:11.381136340,(-19 -13 -1 -5 -5 3 2 -3)
1969-12-31 18:00:11.381136340,(-6 -3 -5 -10 -1 -4 -6 -9)
1969-12-31 18:00:11.382173147,(2 -1 -5 -4 4 0 -1 -1)
1969-12-31 18:00:11.382173147,(-8 -5 -4 -1 -9 -2 3 -3)
1969-12-31 18:00:11.394614826,(-15 -15 -4 -6 -3 -10 -11 -3)
1969-12-31 18:00:11.394614826,(49 41 0 4 2 4 9 23)
1969-12-31 18:00:11.403946086,(-18 -19 -5 0 0 2 -2 -14)
1969-12-31 18:00:11.403946086,(-4 -5 1 -5 -6 -9 -10 1)
1969-12-31 18:00:11.419498186,(-4 -1 -4 -4 3 2 -1 -5)
1969-12-31 18:00:11.419498186,(-7 -8 1 1 -3 0 0 2)
1969-12-31 18:00:11.425719025,(-14 -9 -2 3 6 -3 -1 -6)
1969-12-31 18:00:11.425719025,(6 7 4 1 -3 2 5 6)
1969-12-31 18:00:11.443344738,(4 1 -3 -22 -16 -4 1 0)
1969-12-31 18:00:11.443344738,(-9 -10 -12 -37 -3 -7 -7 -7)
1969-12-31 18:00:11.444381545,(9 7 3 28 5 9 10 12)
1969-12-31 18:00:11.444381545,(-17 -10 8 42 21 3 -5 -12)
1969-12-31 18:00:11.456823224,(14 15 18 41 20 15 20 14)
1969-12-31 18:00:11.456823224,(-34 -30 1 -1 -3 -3 -12 -22)
1969-12-31 18:00:11.466154484,(-11 -5 -14 -41 -15 -9 -14 -22)
1969-12-31 18:00:11.466154484,(3 -1 -14 -45 -24 -5 -2 -1)
1969-12-31 18:00:11.480669777,(4 -1 -10 -4 -1 -3 1 4)
1969-12-31 18:00:11.480669777,(-13 -7 16 15 -6 12 12 -2)
1969-12-31 18:00:11.487927424,(-23 -28 12 60 32 -8 -13 0)
1969-12-31 18:00:11.487927424,(-2 7 -8 -3 -3 -7 -19 -23)
1969-12-31 18:00:11.505553136,(8 -1 -41 -112 -60 -18 -14 -9)
1969-12-31 18:00:11.505553136,(9 6 7 72 16 3 8 9)
1969-12-31 18:00:11.506589943,(2 11 28 62 52 23 14 1)
1969-12-31 18:00:11.506589943,(-14 -13 -3 1 -8 -13 -17 -8)
1969-12-31 18:00:11.520068429,(11 7 4 10 5 3 8 12)
1969-12-31 18:00:11.520068429,(4 1 -10 -34 -22 -11 -16 -8)
1969-12-31 18:00:11.528362882,(1 4 -7 -35 0 3 10 4)
1969-12-31 18:00:11.528362882,(8 -12 12 31 10 16 19 20)
1969-12-31 18:00:11.543914982,(23 31 -4 -24 -35 -11 -8 -3)
1969-12-31 18:00:11.543914982,(-3 -10 -13 -5 -1 -10 -6 -7)
1969-12-31 18:00:11.551172628,(-14 4 14 28 12 9 12 8)
1969-12-31 18:00:11.551172628,(-19 -13 -2 -12 22 9 2 -13)
1969-12-31 18:00:11.567761534,(-12 -14 0 22 15 -11 -19 -7)
1969-12-31 18:00:11.567761534,(27 19 11 -5 -13 9 14 22)
1969-12-31 18:00:11.568798341,(-4 -5 -22 -75 -35 -13 -10 -8)
1969-12-31 18:00:11.568798341,(8 5 -6 7 -11 -1 5 9)
1969-12-31 18:00:11.581240021,(26 18 25 52 26 19 19 20)
1969-12-31 18:00:11.581240021,(-18 -10 -17 -68 -12 -6 -2 -14)
1969-12-31 18:00:11.590571280,(-5 -12 -3 1 -16 -10 -13 -2)
1969-12-31 18:00:11.590571280,(21 19 21 37 28 19 27 24)
1969-12-31 18:00:11.605086573,(-11 -11 12 28 21 2 -9 -9)
1969-12-31 18:00:11.605086573,(-11 1 4 7 11 7 2 -4)
1969-12-31 18:00:11.614417833,(26 16 -5 -19 -8 0 3 7)
1969-12-31 18:00:11.614417833,(-15 -9 -14 -28 -33 -10 -3 -11)
1969-12-31 18:00:11.629969933,(16 12 7 10 15 4 9 20)
1969-12-31 18:00:11.629969933,(-6 -11 -6 2 2 -6 -11 -9)
1969-12-31 18:00:11.631006739,(-22 -7 3 13 0 3 0 -8)
1969-12-31 18:00:11.631006739,(22 17 8 5 8 7 2 3)
1969-12-31 18:00:11.643448419,(-7 -7 -7 -16 -9 1 -1 -7)
1969-12-31 18:00:11.643448419,(10 6 -12 -47 -4 -5 0 5)
1969-12-31 18:00:11.652779679,(1 -2 -1 40 -19 -14 -12 -7)
1969-12-31 18:00:11.652779679,(-6 -3 21 48 28 10 14 14)
1969-12-31 18:00:11.667294971,(-17 -7 -1 -4 -2 -4 -9 -15)
1969-12-31 18:00:11.667294971,(0 -3 0 3 -5 0 1 2)
1969-12-31 18:00:11.676626231,(-4 -9 -15 -21 8 -2 -2 -4)
1969-12-31 18:00:11.676626231,(0 4 4 16 2 -1 -1 2)
1969-12-31 18:00:11.692178331,(-3 -2 9 35 25 8 5 1)
1969-12-31 18:00:11.692178331,(-5 -2 0 14 12 -2 -8 -6)
1969-12-31 18:00:11.693215137,(-16 -14 -10 -54 -35 -4 -1 -12)
1969-12-31 18:00:11.693215137,(28 20 -9 -29 -19 -2 15 36)
1969-12-31 18:00:11.714988077,(-21 -11 -1 21 2 -8 -18 -32)
1969-12-31 18:00:11.714988077,(-18 -17 8 26 21 10 0 -6)
1969-12-31 18:00:11.717061690,(12 24 -5 -67 -18 7 11 8)
1969-12-31 18:00:11.717061690,(-1 -9 -10 26 -11 -8 -6 -3)
1969-12-31 18:00:11.729503370,(0 2 7 11 -11 -7 -1 -5)
1969-12-31 18:00:11.729503370,(-7 -5 5 21 9 4 3 2)
1969-12-31 18:00:11.738834629,(10 5 10 32 17 1 -2 2)
1969-12-31 18:00:11.738834629,(-1 7 3 -19 9 -1 -6 -8)
1969-12-31 18:00:11.754386729,(-2 -10 -8 -15 -2 3 9 13)
1969-12-31 18:00:11.754386729,(13 23 3 12 -15 -8 -8 -5)
1969-12-31 18:00:11.755423536,(-5 -10 -4 -3 7 1 -1 -4)
1969-12-31 18:00:11.755423536,(-4 -7 -16 -42 -19 -5 -5 -6)
1969-12-31 18:00:11.777196475,(-12 -10 -5 -1 -8 -5 -3 -5)
1969-12-31 18:00:11.777196475,(4 3 -2 -57 -43 -7 4 9)
1969-12-31 18:00:11.779270088,(10 6 0 42 24 3 4 6)
1969-12-31 18:00:11.779270088,(-6 -5 4 14 25 3 -5 -8)
1969-12-31 18:00:11.791711768,(-3 -3 1 17 5 3 -1 -2)
1969-12-31 18:00:11.791711768,(13 11 6 15 7 3 3 4)
1969-12-31 18:00:11.801043027,(-7 -7 0 -11 -15 -4 -3 -7)
1969-12-31 18:00:11.801043027,(4 -1 -25 -87 -35 -13 -10 -6)
1969-12-31 18:00:11.816595127,(3 -3 1 21 11 4 5 6)
1969-12-31 18:00:11.816595127,(0 -2 7 34 9 -1 -2 -1)
1969-12-31 18:00:11.817631934,(-3 -4 3 -2 0 4 9 5)
1969-12-31 18:00:11.817631934,(1 7 2 23 9 -6 -9 -7)
1969-12-31 18:00:11.839404873,(-22 -19 -8 -38 -10 -9 -12 -15)
1969-12-31 18:00:11.839404873,(9 -2 -8 -2 -6 2 5 3)
1969-12-31 18:00:11.841478486,(6 -1 -15 -81 -64 -21 -8 0)
1969-12-31 18:00:11.841478486,(-5 -6 -10 25 -4 -13 -3 2)
1969-12-31 18:00:11.853920166,(-4 5 26 83 56 15 4 -1)
1969-12-31 18:00:11.853920166,(-1 4 21 61 78 42 18 9)
1969-12-31 18:00:11.863251426,(5 5 6 21 33 23 8 4)
1969-12-31 18:00:11.863251426,(-7 -9 -9 -52 -34 -9 -8 -10)
1969-12-31 18:00:11.878803525,(16 7 -25 -78 -58 -18 0 9)
1969-12-31 18:00:11.878803525,(-8 -7 -1 20 -4 -15 -8 -5)
1969-12-31 18:00:11.879840332,(-3 2 4 9 5 -7 -5 -4)
1969-12-31 18:00:11.879840332,(-6 -7 0 -7 -6 -3 -6 -6)
1969-12-31 18:00:11.901613271,(16 21 9 7 9 15 21 14)
1969-12-31 18:00:11.901613271,(8 4 -5 -24 -9 -5 -5 2)
1969-12-31 18:00:11.903686884,(-3 -6 -1 7 5 1 1 2)
1969-12-31 18:00:11.903686884,(-5 -2 6 17 -1 0 0 -5)
1969-12-31 18:00:11.916128564,(1 3 -3 -10 2 1 0 4)
1969-12-31 18:00:11.916128564,(10 -4 -5 -37 -22 -7 -2 9)
1969-12-31 18:00:11.925459824,(-6 -5 -9 0 8 -5 -4 -9)
1969-12-31 18:00:11.925459824,(3 3 14 53 25 12 7 8)
1969-12-31 18:00:11.941011923,(-4 0 5 7 12 2 -5 -9)
1969-12-31 18:00:11.941011923,(-6 -2 0 4 -4 1 1 -4)
1969-12-31 18:00:11.942048730,(0 -3 1 5 1 0 1 4)
1969-12-31 18:00:11.942048730,(1 2 -5 -33 -8 -1 -1 -4)
1969-12-31 18:00:11.963821669,(-3 -8 -12 -17 -13 -7 -4 -3)
1969-12-31 18:00:11.963821669,(-32 -24 -9 -2 -6 -7 -10 -20)
1969-12-31 18:00:11.965895283,(3 2 1 6 0 3 2 1)
1969-12-31 18:00:11.965895283,(0 2 1 -4 4 3 2 1)
1969-12-31 18:00:11.978336962,(6 3 -3 -3 -5 -3 -2 2)
1969-12-31 18:00:11.978336962,(-10 -6 -6 0 1 -5 -1 -6)
1969-12-31 18:00:11.987668222,(-9 -3 3 7 -2 -1 -2 -3)
1969-12-31 18:00:11.987668222,(24 11 8 7 8 6 7 15)
1969-12-31 18:00:12.003220321,(-7 -6 -5 -13 -7 -6 -11 -10)
1969-12-31 18:00:12.003220321,(5 4 -3 -11 -8 0 3 3)
1969-12-31 18:00:12.004257128,(-12 -16 -2 7 -3 0 -1 0)
1969-12-31 18:00:12.004257128,(16 22 9 10 9 12 17 16)
1969-12-31 18:00:12.026030067,(16 7 10 10 13 8 6 12)
1969-12-31 18:00:12.026030067,(-10 4 -6 -9 -7 -4 -3 -8)
1969-12-31 18:00:12.028103681,(14 4 -3 -6 -9 -7 -12 -9)
1969-12-31 18:00:12.028103681,(-12 -12 -9 -16 -11 -3 -4 -5)
1969-12-31 18:00:12.040545360,(-1 -3 -8 -13 -6 1 5 2)
1969-12-31 18:00:12.040545360,(2 0 7 42 21 4 2 1)
1969-12-31 18:00:12.049876620,(2 2 9 16 -2 0 -4 0)
1969-12-31 18:00:12.049876620,(-4 -1 -2 -14 1 1 0 -4)
1969-12-31 18:00:12.065428720,(-2 -3 -12 -47 -20 -8 -7 -4)
1969-12-31 18:00:12.065428720,(-1 0 -3 4 -3 -6 -2 -2)
1969-12-31 18:00:12.066465526,(1 3 5 18 15 5 6 2)
1969-12-31 18:00:12.066465526,(-16 -13 1 9 1 -1 -10 -13)
1969-12-31 18:00:12.088238466,(-3 -3 -3 -9 -2 2 6 4)
1969-12-31 18:00:12.088238466,(24 19 0 -11 -4 -1 0 6)
1969-12-31 18:00:12.090312078,(1 3 0 -5 -3 -4 -1 1)
1969-12-31 18:00:12.090312078,(-14 -12 -6 2 -2 -5 -6 -9)
1969-12-31 18:00:12.102753758,(-3 -2 -1 2 -1 -1 -2 -4)
1969-12-31 18:00:12.102753758,(-5 -7 -3 -6 0 1 0 0)
1969-12-31 18:00:12.112085018,(18 14 -1 5 3 6 10 15)
1969-12-31 18:00:12.112085018,(-7 -7 -8 -40 -2 -3 -3 -5)
1969-12-31 18:00:12.126600311,(-5 -5 -8 -5 -21 -8 -7 -6)
1969-12-31 18:00:12.126600311,(-3 -2 7 15 -9 -5 -2 0)
1969-12-31 18:00:12.133857957,(-7 -2 11 50 41 7 0 -2)
1969-12-31 18:00:12.133857957,(4 2 7 15 15 9 7 5)
1969-12-31 18:00:12.150446864,(4 5 1 -6 0 2 -2 1)
1969-12-31 18:00:12.150446864,(-4 -7 -14 -42 -12 -2 0 -1)
1969-12-31 18:00:12.152520477,(5 2 -7 -30 -48 -7 3 5)
1969-12-31 18:00:12.152520477,(2 4 6 43 17 0 1 4)
1969-12-31 18:00:12.164962157,(0 0 5 19 31 5 -1 -3)
1969-12-31 18:00:12.164962157,(-3 2 15 36 17 5 -1 -4)
1969-12-31 18:00:12.174293416,(-1 4 14 -6 -2 -1 0 -1)
1969-12-31 18:00:12.174293416,(1 -6 -39 -21 -17 -17 -11 -3)
1969-12-31 18:00:12.189845516,(-7 -12 13 -21 -44 -6 2 -1)
1969-12-31 18:00:12.189845516,(-11 -7 -12 7 39 8 -4 -6)
1969-12-31 18:00:12.190882322,(3 -7 -26 -19 22 15 7 3)
1969-12-31 18:00:12.190882322,(-16 -9 1 -18 -4 -1 -3 -9)
1969-12-31 18:00:12.212655262,(8 17 32 33 -10 0 4 4)
1969-12-31 18:00:12.212655262,(17 22 28 10 -6 0 9 12)
1969-12-31 18:00:12.214728875,(1 0 -7 5 4 -4 -6 1)
1969-12-31 18:00:12.214728875,(-2 -16 -53 -68 -32 -26 -13 -6)
1969-12-31 18:00:12.227170555,(-21 -22 -23 -11 -23 -17 -15 -17)
1969-12-31 18:00:12.227170555,(-3 -2 3 38 29 7 4 1)
1969-12-31 18:00:12.236501814,(-2 11 39 50 40 13 2 -5)
1969-12-31 18:00:12.236501814,(8 10 9 26 10 28 16 9)
1969-12-31 18:00:12.252053914,(8 3 0 -24 -5 2 6 6)
1969-12-31 18:00:12.252053914,(3 -2 -17 -35 -36 -21 -8 3)
1969-12-31 18:00:12.253090721,(-3 -7 -2 -11 -11 -13 -8 -4)
1969-12-31 18:00:12.253090721,(-8 4 24 -6 -2 6 2 -5)
1969-12-31 18:00:12.274863660,(9 8 -21 -1 4 8 6 7)
1969-12-31 18:00:12.274863660,(-2 -11 -15 33 15 -6 -4 -1)
1969-12-31 18:00:12.276937273,(-9 -4 17 4 -3 -2 -1 -2)
1969-12-31 18:00:12.276937273,(-2 5 17 30 1 -1 -4 -4)
1969-12-31 18:00:12.289378953,(3 -2 -16 -23 12 -2 -2 1)
1969-12-31 18:00:12.289378953,(-9 -7 0 -40 -39 -6 -4 -8)
1969-12-31 18:00:12.298710213,(5 11 17 28 -3 6 8 5)
1969-12-31 18:00:12.298710213,(11 3 -2 10 14 11 6 5)
1969-12-31 18:00:12.315299119,(-5 -14 -38 -53 -7 -13 -5 -1)
1969-12-31 18:00:12.315299119,(-11 -9 -8 -40 -40 -22 -9 -11)
1969-12-31 18:00:12.320483152,(0 3 2 41 4 -13 -7 -2)
1969-12-31 18:00:12.320483152,(-1 5 16 -2 19 23 8 1)
1969-12-31 18:00:12.337072058,(10 10 15 111 78 26 11 9)
1969-12-31 18:00:12.337072058,(-4 -1 23 12 7 6 -2 -3)
1969-12-31 18:00:12.339145670,(-4 -4 -11 -45 -32 -6 1 -1)
1969-12-31 18:00:12.339145670,(1 1 -5 -26 -28 -23 -8 1)
1969-12-31 18:00:12.351587351,(-6 -5 -13 -38 -16 -7 -7 -7)
1969-12-31 18:00:12.351587351,(5 3 3 11 -2 8 9 7)
1969-12-31 18:00:12.360918611,(-1 3 6 -16 -17 -1 -4 -4)
1969-12-31 18:00:12.360918611,(4 -2 -19 24 18 -4 -1 3)
1969-12-31 18:00:12.375433904,(-9 -8 15 13 6 1 -2 -8)
1969-12-31 18:00:12.375433904,(1 5 5 1 4 9 2 2)
1969-12-31 18:00:12.382691550,(-4 -8 -20 -26 -5 -11 -5 -3)
1969-12-31 18:00:12.382691550,(-2 -5 -4 -40 -27 -9 -2 -4)
1969-12-31 18:00:12.399280456,(-2 3 -4 -47 -40 -7 0 -1)
1969-12-31 18:00:12.399280456,(1 2 9 64 40 3 -1 1)
1969-12-31 18:00:12.401354069,(4 -2 3 52 46 21 11 7)
1969-12-31 18:00:12.401354069,(-6 -3 9 20 27 6 -1 -3)
1969-12-31 18:00:12.413795749,(5 8 9 -19 -12 2 3 4)
1969-12-31 18:00:12.413795749,(-7 -11 -15 -39 -31 -10 -4 -6)
1969-12-31 18:00:12.430384655,(5 4 -14 -35 -19 -6 3 2)
1969-12-31 18:00:12.430384655,(2 -3 11 41 19 -1 -2 1)
1969-12-31 18:00:12.437642302,(0 4 7 -15 -6 3 0 1)
1969-12-31 18:00:12.437642302,(-1 -5 -18 -25 -15 -5 -3 -1)
1969-12-31 18:00:12.444899948,(-2 -1 3 14 7 3 -1 -1)
1969-12-31 18:00:12.444899948,(0 0 -5 -18 -15 -6 -3 -1)
1969-12-31 18:00:12.461488854,(-4 -4 5 23 -7 -8 -3 -5)
1969-12-31 18:00:12.461488854,(-3 1 9 -5 35 10 0 -4)
1969-12-31 18:00:12.463562468,(-2 -2 -22 -18 -12 -5 -4 -4)
1969-12-31 18:00:12.463562468,(14 7 17 12 -4 4 11 13)
1969-12-31 18:00:12.476004147,(-14 -2 19 45 24 -9 -15 -14)
1969-12-31 18:00:12.476004147,(1 5 13 8 8 6 5 2)
1969-12-31 18:00:12.485335407,(7 -4 -29 -46 -17 -5 0 5)
1969-12-31 18:00:12.485335407,(2 -4 -25 -62 -36 -6 1 -1)
1969-12-31 18:00:12.498813893,(2 2 7 11 -45 -16 -6 0)
1969-12-31 18:00:12.498813893,(-8 -3 13 81 93 25 2 -5)
1969-12-31 18:00:12.507108346,(2 3 13 13 34 9 -3 -3)
1969-12-31 18:00:12.507108346,(-9 -3 11 32 6 2 -3 -6)
1969-12-31 18:00:12.522660446,(2 -1 -13 -33 -11 -4 1 3)
1969-12-31 18:00:12.522660446,(7 1 -20 -55 -49 -11 -2 4)
1969-12-31 18:00:12.523697252,(-8 -3 1 -25 -31 -12 -5 -7)
1969-12-31 18:00:12.523697252,(14 8 0 17 18 6 7 9)
1969-12-31 18:00:12.546506998,(-13 -9 9 32 35 11 -5 -9)
1969-12-31 18:00:12.546506998,(3 4 -5 -7 -14 -3 3 2)
1969-12-31 18:00:12.547543805,(5 2 3 12 7 2 -1 4)
1969-12-31 18:00:12.547543805,(-6 -7 -16 -41 -30 -14 -7 -6)
1969-12-31 18:00:12.561022291,(7 9 9 7 5 8 9 6)
1969-12-31 18:00:12.561022291,(7 1 -6 3 -6 1 7 5)
1969-12-31 18:00:12.570353551,(-8 -6 2 -4 -3 -2 -5 -7)
1969-12-31 18:00:12.570353551,(-2 -1 -2 -17 -6 -2 -2 -2)
1969-12-31 18:00:12.584868844,(6 2 -2 15 8 8 3 2)
1969-12-31 18:00:12.584868844,(-2 0 3 11 14 1 -1 -3)
1969-12-31 18:00:12.585905651,(-4 -2 -1 -13 -13 -6 -2 -3)
1969-12-31 18:00:12.585905651,(-4 -4 2 24 9 2 -2 -2)
1969-12-31 18:00:12.608715397,(8 7 -7 -6 9 3 3 5)
1969-12-31 18:00:12.608715397,(-2 -4 -15 -56 -50 -18 -6 -4)
1969-12-31 18:00:12.609752203,(3 1 9 33 15 9 7 7)
1969-12-31 18:00:12.609752203,(-4 -1 3 18 19 3 -3 -3)
1969-12-31 18:00:12.632561949,(-2 2 3 4 11 4 2 0)
1969-12-31 18:00:12.632561949,(5 5 3 4 -8 0 0 2)
1969-12-31 18:00:12.633598756,(1 -3 -9 -3 -3 -2 -1 0)
1969-12-31 18:00:12.633598756,(-6 -2 6 -7 -9 -5 -3 -4)
1969-12-31 18:00:12.647077242,(0 0 -7 -1 3 1 1 -2)
1969-12-31 18:00:12.647077242,(2 -4 -13 -30 -26 -6 -1 -1)
1969-12-31 18:00:12.648114049,(-3 -2 0 -10 5 0 -2 -3)
1969-12-31 18:00:12.648114049,(0 6 23 43 20 5 0 -1)
1969-12-31 18:00:12.670923795,(1 -4 -6 0 6 1 2 1)
1969-12-31 18:00:12.670923795,(-2 -1 0 -1 2 -2 -6 -4)
1969-12-31 18:00:12.671960601,(-4 -4 -4 -8 -7 -4 -8 -4)
1969-12-31 18:00:12.671960601,(3 2 -5 -12 -11 -2 4 4)
1969-12-31 18:00:12.685439088,(0 -3 -4 -1 -5 -3 -1 1)
1969-12-31 18:00:12.685439088,(0 1 -1 2 -2 2 1 2)
1969-12-31 18:00:12.694770347,(-1 0 -2 -4 7 1 3 1)
1969-12-31 18:00:12.694770347,(-3 -1 5 13 10 4 -1 -2)
1969-12-31 18:00:12.709285640,(-4 -2 -1 8 -1 -5 -4 -2)
1969-12-31 18:00:12.710322447,(0 -1 -4 -15 -4 1 2 2)
1969-12-31 18:00:12.710322447,(2 1 4 14 -5 -2 3 3)
1969-12-31 18:00:12.710322447,(-5 -2 0 -3 -3 -1 -2 -3)
1969-12-31 18:00:12.733132193,(-1 -1 -2 1 5 0 0 -1)
1969-12-31 18:00:12.733132193,(1 -1 -3 -10 3 -1 -3 0)
1969-12-31 18:00:12.734168999,(-1 -2 -4 -7 -10 -4 -1 0)
1969-12-31 18:00:12.734168999,(-5 -4 -6 -13 -6 -1 -5 -5)
1969-12-31 18:00:12.749721099,(-6 -6 -1 -4 -17 -4 -2 -1)
1969-12-31 18:00:12.749721099,(6 9 13 31 32 8 3 3)
1969-12-31 18:00:12.756978745,(0 3 10 8 8 6 0 -2)
1969-12-31 18:00:12.756978745,(0 -2 -2 2 -4 -1 -2 -3)
1969-12-31 18:00:12.771494038,(0 1 -6 -20 -6 -4 -4 -2)
1969-12-31 18:00:12.772530845,(-3 -1 9 -8 -14 -6 -1 0)
1969-12-31 18:00:12.772530845,(3 5 -14 -9 -4 -2 1 3)
1969-12-31 18:00:12.772530845,(7 -1 -8 -10 -7 -6 -2 4)
1969-12-31 18:00:12.795340591,(-8 -1 0 0 7 3 1 -7)
1969-12-31 18:00:12.795340591,(-10 -14 -4 6 0 -2 -4 -4)
1969-12-31 18:00:12.802598237,(14 14 11 8 7 9 7 10)
1969-12-31 18:00:12.802598237,(-16 -12 -5 -6 -9 -6 -12 -19)
1969-12-31 18:00:12.809855884,(6 5 3 2 3 0 -1 5)
1969-12-31 18:00:12.809855884,(-4 -2 2 10 5 4 2 -1)
1969-12-31 18:00:12.819187144,(-9 -10 -5 -8 -6 -6 -6 -5)
1969-12-31 18:00:12.819187144,(4 3 2 0 4 3 5 6)
1969-12-31 18:00:12.834739243,(4 2 3 5 2 0 2 1)
1969-12-31 18:00:12.834739243,(2 1 -3 -3 -2 -1 0 0)
1969-12-31 18:00:12.834739243,(0 -4 -3 -5 -6 -3 -2 -3)
1969-12-31 18:00:12.834739243,(3 4 4 4 3 1 1 0)
1969-12-31 18:00:12.857548989,(-1 -1 1 3 1 1 3 3)
1969-12-31 18:00:12.857548989,(1 1 -2 -2 -3 -1 -1 0)
1969-12-31 18:00:12.858585796,(-3 -4 -3 -6 -2 0 0 -2)
1969-12-31 18:00:12.858585796,(2 3 4 5 2 0 1 -1)
1969-12-31 18:00:12.873101089,(-2 -1 -2 -2 0 0 -6 -2)
1969-12-31 18:00:12.873101089,(-4 -2 -5 -2 0 1 -2 -4)
1969-12-31 18:00:12.874137895,(-2 -1 -1 -1 -5 -6 -9 -9)
1969-12-31 18:00:12.874137895,(-2 -1 1 3 2 3 9 4)
1969-12-31 18:00:12.895910835,(4 1 0 0 4 5 6 9)
1969-12-31 18:00:12.895910835,(3 2 0 0 0 -1 -1 0)
1969-12-31 18:00:12.896947641,(-4 -3 -2 -1 0 1 -2 -1)
1969-12-31 18:00:12.896947641,(0 -1 -1 -1 0 -1 -4 -3)
1969-12-31 18:00:12.919757387,(0 0 -2 1 -1 -3 -2 -3)
1969-12-31 18:00:12.919757387,(-1 0 -1 0 -1 -1 -2 -2)
1969-12-31 18:00:12.920794194,(0 0 -2 -4 -2 -2 2 1)
1969-12-31 18:00:12.920794194,(-1 -1 1 1 0 -1 -1 1)
1969-12-31 18:00:12.934272680,(-1 -1 0 0 0 1 3 0)
1969-12-31 18:00:12.934272680,(0 0 -1 0 0 -1 -4 -1)
1969-12-31 18:00:12.943603940,(-2 -1 0 -1 0 0 -4 -2)
1969-12-31 18:00:12.943603940,(0 1 1 -1 0 0 2 3)
1969-12-31 18:00:12.959156039,(-3 -2 -1 0 0 -3 -3 -4)
1969-12-31 18:00:12.959156039,(1 0 -2 -1 -2 -2 -2 0)
1969-12-31 18:00:12.959156039,(0 -3 0 0 -1 0 1 0)
1969-12-31 18:00:12.959156039,(1 0 0 0 1 -1 -1 -1)
1969-12-31 18:00:12.981965785,(-1 0 -2 0 -1 -2 -1 0)
1969-12-31 18:00:12.981965785,(-1 -1 -1 0 0 -1 -1 -1)
1969-12-31 18:00:12.983002592,(-1 0 0 -1 -2 0 -1 -2)
1969-12-31 18:00:12.983002592,(0 -1 0 0 -1 0 2 -1)
1969-12-31 18:00:13.005812338,(0 0 -1 0 0 -1 1 -1)
1969-12-31 18:00:13.005812338,(0 -1 -1 -2 1 -1 3 1)
1969-12-31 18:00:13.006849145,(-1 0 -1 -1 -1 -2 2 -1)
1969-12-31 18:00:13.006849145,(-1 0 0 -3 -3 0 1 1)
1969-12-31 18:00:13.020327631,(-2 -1 0 1 2 -1 -1 -3)
1969-12-31 18:00:13.020327631,(-1 0 0 -1 -2 0 0 0)
1969-12-31 18:00:13.021364438,(-2 -2 -2 -1 0 -1 2 -1)
1969-12-31 18:00:13.021364438,(1 0 0 -1 -1 -2 -2 0)
1969-12-31 18:00:13.044174184,(-1 -1 -1 1 -1 0 -1 -2)
1969-12-31 18:00:13.044174184,(2 0 0 -1 -1 0 1 2)
1969-12-31 18:00:13.045210990,(-2 -2 -2 -1 0 1 -1 0)
1969-12-31 18:00:13.045210990,(-2 -1 -1 1 -2 -1 -3 -2)
1969-12-31 18:00:13.059726283,(0 -1 1 -1 0 -1 -3 -2)
1969-12-31 18:00:13.059726283,(1 0 -2 -1 0 1 -2 -1)
1969-12-31 18:00:13.060763090,(0 1 0 0 -1 -2 0 -1)
1969-12-31 18:00:13.060763090,(-1 -1 0 -2 -1 -1 0 0)
1969-12-31 18:00:13.083572836,(-1 0 0 0 0 -1 -3 -3)
1969-12-31 18:00:13.083572836,(1 0 -1 -1 -4 0 5 2)
1969-12-31 18:00:13.084609642,(2 -1 0 1 0 1 2 2)
1969-12-31 18:00:13.084609642,(-2 0 -1 1 0 -1 -4 -2)
1969-12-31 18:00:13.106382582,(1 -2 -2 -1 0 -1 1 1)
1969-12-31 18:00:13.106382582,(0 0 0 0 -1 1 3 1)
1969-12-31 18:00:13.107419388,(0 -1 1 -1 -1 0 -2 2)
1969-12-31 18:00:13.107419388,(-1 -1 -2 0 0 0 -1 0)
1969-12-31 18:00:13.121934681,(1 -1 -1 2 0 1 1 -1)
1969-12-31 18:00:13.121934681,(-1 -1 0 -1 1 -1 -4 -1)
1969-12-31 18:00:13.129192328,(0 1 -1 -2 -1 -1 -1 -1)
1969-12-31 18:00:13.130229134,(-4 -2 -1 1 4 -3 -8 -9)
1969-12-31 18:00:13.145781234,(1 2 0 -2 -1 0 4 4)
1969-12-31 18:00:13.145781234,(-1 -2 -1 0 1 0 0 -1)
1969-12-31 18:00:13.145781234,(-1 -1 0 0 -3 -1 0 0)
1969-12-31 18:00:13.145781234,(-1 -1 -1 -1 0 -1 -2 -1)
1969-12-31 18:00:13.145781234,(-3 -3 -3 -6 -29 -6 -4 -2)
1969-12-31 18:00:13.145781234,(3 2 -8 -10 20 5 3 0)
1969-12-31 18:00:13.147854847,(2 1 -4 -8 6 -1 -3 0)
1969-12-31 18:00:13.147854847,(-4 -3 6 18 -16 -4 -2 -2)
1969-12-31 18:00:13.169627786,(-2 -2 3 -8 10 -2 -1 -3)
1969-12-31 18:00:13.169627786,(3 3 -2 4 -7 1 3 3)
1969-12-31 18:00:13.170664593,(-2 -4 0 16 8 -2 -3 -4)
1969-12-31 18:00:13.170664593,(2 -1 -8 -16 -7 -3 0 1)
1969-12-31 18:00:13.185179886,(-7 -3 0 -13 -4 1 -2 -3)
1969-12-31 18:00:13.185179886,(4 2 -2 18 2 1 1 1)
1969-12-31 18:00:13.192437532,(1 0 6 10 3 -3 -3 -4)
1969-12-31 18:00:13.192437532,(-7 -1 1 -4 -2 0 -1 -6)
1969-12-31 18:00:13.209026439,(-5 1 0 -2 -7 -4 -3 -1)
1969-12-31 18:00:13.209026439,(12 5 -4 -5 -3 -2 3 8)
1969-12-31 18:00:13.211100052,(-11 -11 0 -1 0 1 -2 -7)
1969-12-31 18:00:13.211100052,(-15 -6 -1 5 -1 -2 -5 -9)
1969-12-31 18:00:13.231836185,(10 -3 -3 -7 -3 -4 -4 2)
1969-12-31 18:00:13.231836185,(-6 5 2 6 3 6 5 -1)
1969-12-31 18:00:13.232872991,(2 -1 -3 -1 -4 -3 -1 5)
1969-12-31 18:00:13.232872991,(2 0 -1 9 4 0 2 1)
1969-12-31 18:00:13.247388284,(0 0 -2 -9 0 2 3 1)
1969-12-31 18:00:13.247388284,(4 1 -3 -6 -10 -6 -3 6)
1969-12-31 18:00:13.254645931,(-5 -8 4 16 8 7 3 -7)
1969-12-31 18:00:13.254645931,(-8 -3 -4 -4 -2 -4 -5 -4)
1969-12-31 18:00:13.270198030,(-17 -4 1 -6 -6 -3 -3 -3)
1969-12-31 18:00:13.270198030,(21 1 -1 -4 0 -2 1 8)
1969-12-31 18:00:13.278492483,(8 13 5 5 5 7 10 9)
1969-12-31 18:00:13.278492483,(-5 -7 -5 -6 -7 -9 -8 -6)
1969-12-31 18:00:13.294044583,(-2 -8 -8 -8 -6 -5 -2 2)
1969-12-31 18:00:13.294044583,(-1 21 5 4 1 2 1 -6)
1969-12-31 18:00:13.295081389,(-17 -12 -4 -13 -12 -9 -8 2)
1969-12-31 18:00:13.295081389,(71 30 11 22 19 14 12 12)
1969-12-31 18:00:13.307523069,(-48 -26 -1 -9 -8 -4 -14 -32)
1969-12-31 18:00:13.307523069,(5 -3 -2 19 17 2 0 3)
1969-12-31 18:00:13.316854329,(11 6 -8 -11 -9 -5 4 15)
1969-12-31 18:00:13.316854329,(-17 -9 -4 -2 -4 -2 0 4)
1969-12-31 18:00:13.331369622,(-4 1 -3 -6 5 3 1 -8)
1969-12-31 18:00:13.331369622,(50 35 3 -4 -3 9 13 19)
1969-12-31 18:00:13.338627268,(-8 0 5 10 2 -7 -13 -12)
1969-12-31 18:00:13.338627268,(2 -3 -1 -1 -4 -2 -2 6)
1969-12-31 18:00:13.356252980,(-11 -6 -1 1 7 6 4 4)
1969-12-31 18:00:13.356252980,(-25 -19 -7 -30 -22 -5 -2 -8)
1969-12-31 18:00:13.357289786,(19 4 -4 12 3 -1 -2 8)
1969-12-31 18:00:13.357289786,(-10 4 4 16 19 9 10 3)
1969-12-31 18:00:13.369731467,(-16 -14 -1 -2 -6 -5 -3 2)
1969-12-31 18:00:13.369731467,(12 32 8 -3 -4 4 -1 -11)
1969-12-31 18:00:13.379062727,(15 8 2 3 9 -2 -8 -3)
1969-12-31 18:00:13.379062727,(3 -7 0 -1 0 7 10 12)
1969-12-31 18:00:13.393578020,(-2 3 3 7 9 1 -11 -12)
1969-12-31 18:00:13.393578020,(-25 -27 -7 -10 -18 -12 -10 -3)
1969-12-31 18:00:13.400835666,(6 18 10 2 1 10 14 3)
1969-12-31 18:00:13.400835666,(-13 -19 -8 -2 1 -4 -10 -4)
1969-12-31 18:00:13.418461379,(33 9 -6 -34 -23 -6 7 14)
1969-12-31 18:00:13.418461379,(-19 -13 -5 12 9 -1 -5 -7)
1969-12-31 18:00:13.419498186,(-7 -8 4 18 -3 0 -1 -3)
1969-12-31 18:00:13.419498186,(-24 -19 -1 -2 6 4 9 6)
1969-12-31 18:00:13.431939865,(42 33 5 4 9 4 2 1)
1969-12-31 18:00:13.431939865,(-25 -11 0 -1 3 -6 -9 -14)
1969-12-31 18:00:13.441271125,(9 -14 -9 -22 -3 -1 3 5)
1969-12-31 18:00:13.441271125,(-29 -7 4 23 -6 -6 -13 -29)
1969-12-31 18:00:13.456823224,(-32 -4 2 10 5 0 -3 -11)
1969-12-31 18:00:13.456823224,(47 0 5 6 10 11 14 24)
1969-12-31 18:00:13.463044064,(-4 -5 -4 6 -3 -4 -5 -4)
1969-12-31 18:00:13.463044064,(-34 -21 -4 -15 -14 -14 -13 -11)
1969-12-31 18:00:13.480669777,(62 34 -4 -9 0 11 24 35)
1969-12-31 18:00:13.480669777,(-30 -18 -3 8 -8 -10 -18 -31)
1969-12-31 18:00:13.481706584,(33 25 9 -6 9 7 8 17)
1969-12-31 18:00:13.481706584,(-11 -16 -9 -20 -9 -6 -14 -24)
1969-12-31 18:00:13.494148263,(-52 -27 9 20 1 -7 -11 -17)
1969-12-31 18:00:13.494148263,(56 36 -9 -28 -4 0 10 22)
1969-12-31 18:00:13.503479523,(13 18 -3 -16 -11 0 3 4)
1969-12-31 18:00:13.503479523,(4 10 6 14 3 -4 -3 0)
1969-12-31 18:00:13.517994816,(-34 -44 -6 12 3 -4 -9 -12)
1969-12-31 18:00:13.517994816,(45 42 8 2 0 9 18 19)
1969-12-31 18:00:13.534583722,(-40 -25 -4 19 6 -9 -13 -22)
1969-12-31 18:00:13.534583722,(38 28 8 6 15 10 8 16)
1969-12-31 18:00:13.542878175,(-48 -20 -2 -19 -13 1 -4 -16)
1969-12-31 18:00:13.542878175,(4 -11 3 14 6 6 7 12)
1969-12-31 18:00:13.543914982,(19 6 -6 -2 -10 -12 -6 6)
1969-12-31 18:00:13.543914982,(54 36 12 5 12 13 18 23)
1969-12-31 18:00:13.556356661,(-6 -22 -4 -14 -3 -5 -12 -14)
1969-12-31 18:00:13.556356661,(-6 -4 -8 -8 -1 2 3 -1)
1969-12-31 18:00:13.565687921,(23 29 5 -1 0 1 7 13)
1969-12-31 18:00:13.565687921,(-8 -5 -9 -14 -12 -7 -6 -6)
1969-12-31 18:00:13.581240021,(39 23 -14 -39 14 2 11 22)
1969-12-31 18:00:13.581240021,(-39 -26 -2 19 -28 -9 -9 -15)
1969-12-31 18:00:13.587460861,(-18 -10 14 28 20 11 6 -4)
1969-12-31 18:00:13.587460861,(-2 4 10 24 23 5 -2 -5)
1969-12-31 18:00:13.605086573,(-13 -16 -1 -7 -4 0 -3 -1)
1969-12-31 18:00:13.605086573,(40 39 4 3 7 1 12 25)
1969-12-31 18:00:13.606123380,(-27 -21 -12 -15 -16 -10 -10 -17)
1969-12-31 18:00:13.606123380,(18 33 2 -10 -7 -4 -1 3)
1969-12-31 18:00:13.618565060,(4 -14 6 17 11 12 11 6)
1969-12-31 18:00:13.618565060,(-40 -33 -10 -23 -5 -13 -22 -19)
1969-12-31 18:00:13.627896319,(2 9 -8 -25 -13 0 2 0)
1969-12-31 18:00:13.627896319,(33 20 4 -2 -3 4 12 22)
1969-12-31 18:00:13.643448419,(-16 -4 -5 12 -6 -9 -6 -14)
1969-12-31 18:00:13.643448419,(-16 -12 1 9 7 -1 -3 -6)
1969-12-31 18:00:13.649669259,(8 6 3 -14 3 9 11 11)
1969-12-31 18:00:13.649669259,(-30 -30 -11 0 -11 -8 -8 -10)
1969-12-31 18:00:13.667294971,(17 18 8 15 0 -3 -1 3)
1969-12-31 18:00:13.667294971,(-8 -11 -7 -8 3 4 1 -4)
1969-12-31 18:00:13.668331778,(-19 -18 -12 -21 -33 -19 -15 -17)
1969-12-31 18:00:13.668331778,(-4 -4 3 19 17 8 4 1)
1969-12-31 18:00:13.680773458,(28 21 12 -19 24 18 8 13)
1969-12-31 18:00:13.680773458,(-35 -18 -6 11 26 7 -11 -27)
1969-12-31 18:00:13.690104717,(6 0 2 19 -10 2 8 10)
1969-12-31 18:00:13.690104717,(-3 -7 -12 -44 -33 -20 -7 -5)
1969-12-31 18:00:13.704620010,(20 20 12 51 2 -4 -2 10)
1969-12-31 18:00:13.704620010,(-30 -17 12 21 23 5 -6 -15)
1969-12-31 18:00:13.713951270,(-35 -42 -6 -4 22 9 -4 -12)
1969-12-31 18:00:13.713951270,(-10 0 7 -1 5 15 16 -3)
1969-12-31 18:00:13.729503370,(-53 -19 -17 -29 -32 -18 -16 -25)
1969-12-31 18:00:13.729503370,(88 75 18 -14 -11 5 27 54)
1969-12-31 18:00:13.730540176,(-15 -22 -9 1 -2 -10 -11 -7)
1969-12-31 18:00:13.730540176,(0 -2 -5 -5 -3 -1 -6 1)
1969-12-31 18:00:13.752313116,(19 9 -5 -3 -3 -1 -2 5)
1969-12-31 18:00:13.752313116,(-41 -29 -3 6 -7 -1 -4 -17)
1969-12-31 18:00:13.754386729,(2 15 6 1 11 3 3 1)
1969-12-31 18:00:13.754386729,(11 4 -5 -31 -14 -2 -1 5)
1969-12-31 18:00:13.766828409,(12 12 6 29 14 3 5 7)
1969-12-31 18:00:13.766828409,(-20 -19 2 26 -6 -8 -12 -12)
1969-12-31 18:00:13.776159668,(-2 -16 4 4 8 3 4 5)
1969-12-31 18:00:13.776159668,(12 14 -14 -20 -7 -4 -4 -4)
1969-12-31 18:00:13.791711768,(2 -5 -5 -10 -8 -5 -5 -6)
1969-12-31 18:00:13.791711768,(-24 -16 -5 -7 -3 -5 -6 -12)
1969-12-31 18:00:13.793785381,(0 5 -1 -5 2 4 4 2)
1969-12-31 18:00:13.793785381,(-18 -30 -5 -5 -14 -7 -3 -3)
1969-12-31 18:00:13.814521514,(19 -5 -1 9 1 4 12 18)
1969-12-31 18:00:13.814521514,(27 18 5 3 15 7 2 1)
1969-12-31 18:00:13.816595127,(-16 -2 1 8 1 -1 -6 -15)
1969-12-31 18:00:13.816595127,(18 27 2 1 -2 -3 4 18)
1969-12-31 18:00:13.829036807,(12 15 2 -6 -11 -4 -2 -2)
1969-12-31 18:00:13.829036807,(-39 -32 4 3 7 8 1 -16)
1969-12-31 18:00:13.838368066,(1 -10 0 -1 9 8 4 8)
1969-12-31 18:00:13.838368066,(-13 -3 7 17 12 8 2 -12)
1969-12-31 18:00:13.861177812,(-7 -3 -3 -9 -11 -7 -6 -7)
1969-12-31 18:00:13.861177812,(11 8 -10 -17 -20 -12 -4 4)
1969-12-31 18:00:13.863251426,(0 3 0 0 0 -7 0 3)
1969-12-31 18:00:13.863251426,(-10 -11 0 5 2 2 0 -4)
1969-12-31 18:00:13.876729912,(14 11 -4 -6 -4 1 0 8)
1969-12-31 18:00:13.876729912,(-31 -25 -4 0 4 1 -4 -12)
1969-12-31 18:00:13.878803525,(2 7 1 2 -3 1 1 1)
1969-12-31 18:00:13.878803525,(-11 -20 -7 -6 -12 -8 -10 -11)
1969-12-31 18:00:13.891245205,(31 48 0 2 1 -3 1 12)
1969-12-31 18:00:13.891245205,(-25 -28 -7 -8 -3 -4 -12 -15)
1969-12-31 18:00:13.900576464,(33 34 7 5 4 5 6 14)
1969-12-31 18:00:13.900576464,(-28 -11 0 11 3 -4 -10 -19)
1969-12-31 18:00:13.923386210,(26 9 4 3 3 2 9 19)
1969-12-31 18:00:13.923386210,(-20 -20 -3 -4 -6 -5 -5 -6)
1969-12-31 18:00:13.925459824,(2 8 -5 -11 -7 -2 -1 -1)
1969-12-31 18:00:13.925459824,(1 -5 -1 0 2 -1 -1 4)
1969-12-31 18:00:13.938938310,(-3 -4 2 9 4 3 1 -2)
1969-12-31 18:00:13.938938310,(16 10 1 0 0 3 9 14)
1969-12-31 18:00:13.941011923,(-1 -2 0 -2 -1 -2 -5 -8)
1969-12-31 18:00:13.941011923,(9 7 0 -1 2 -1 0 5)
1969-12-31 18:00:13.953453603,(-33 -30 -5 -2 10 -1 -3 -13)
1969-12-31 18:00:13.953453603,(41 43 1 -8 -9 -1 5 23)
1969-12-31 18:00:13.962784863,(-14 -12 3 5 -4 3 0 -9)
1969-12-31 18:00:13.962784863,(-21 -26 -2 6 7 -2 -6 -8)
1969-12-31 18:00:13.978336962,(25 19 8 7 14 19 25 17)
1969-12-31 18:00:13.978336962,(-9 -3 -6 -4 -7 -13 -15 -13)
1969-12-31 18:00:13.979373769,(24 13 -5 -2 3 2 6 15)
1969-12-31 18:00:13.979373769,(-9 -2 4 0 -3 2 -2 -7)
1969-12-31 18:00:14.001146708,(-13 -14 -1 -2 -5 -1 -4 -9)
1969-12-31 18:00:14.001146708,(4 1 -2 0 -1 -2 -1 -1)
1969-12-31 18:00:14.003220321,(-10 -8 -1 -3 -7 -8 -7 -10)
1969-12-31 18:00:14.003220321,(11 6 -2 -1 2 1 4 8)
1969-12-31 18:00:14.015662001,(1 1 -3 -16 -7 -4 -4 1)
1969-12-31 18:00:14.015662001,(-6 -2 -2 -4 -8 -5 -6 -12)
1969-12-31 18:00:14.024993261,(1 3 2 9 6 1 1 -3)
1969-12-31 18:00:14.024993261,(-15 -28 0 13 7 3 -1 -3)
1969-12-31 18:00:14.040545360,(24 30 6 6 6 0 -2 6)
1969-12-31 18:00:14.040545360,(0 -7 -9 -18 -7 1 4 4)
1969-12-31 18:00:14.041582167,(-7 -12 0 1 -2 -1 1 5)
1969-12-31 18:00:14.041582167,(1 -6 -7 -5 -10 -11 -12 -9)
1969-12-31 18:00:14.063355106,(-13 -22 -3 5 3 4 5 -3)
1969-12-31 18:00:14.063355106,(34 28 3 3 7 12 18 20)
1969-12-31 18:00:14.065428720,(-11 -4 -6 -8 -6 -10 -13 -16)
1969-12-31 18:00:14.065428720,(7 11 0 -8 -5 -1 2 5)
1969-12-31 18:00:14.087201658,(-12 -14 -3 -1 7 -3 -7 -6)
1969-12-31 18:00:14.087201658,(-1 -5 -3 -2 -18 -4 -1 0)
1969-12-31 18:00:14.088238466,(3 17 2 2 -3 -1 0 -3)
1969-12-31 18:00:14.088238466,(4 3 -6 -32 -18 -9 -7 -5)
1969-12-31 18:00:14.102753758,(-17 -15 0 13 6 6 6 -5)
1969-12-31 18:00:14.102753758,(-7 -5 12 33 26 8 0 0)
1969-12-31 18:00:14.103790565,(-10 -1 8 14 12 7 2 -7)
1969-12-31 18:00:14.103790565,(-11 -3 -2 -7 -11 -8 -9 -12)
1969-12-31 18:00:14.125563504,(26 19 -2 -18 -13 -4 4 16)
1969-12-31 18:00:14.125563504,(-7 4 -1 -4 3 4 2 -5)
1969-12-31 18:00:14.127637118,(-5 -9 2 1 -4 -3 -7 -6)
1969-12-31 18:00:14.127637118,(-6 0 -3 3 7 3 0 -5)
1969-12-31 18:00:14.140078797,(-27 -30 -1 -2 -9 -4 -5 -14)
1969-12-31 18:00:14.140078797,(37 28 2 1 3 -2 -2 10)
1969-12-31 18:00:14.149410057,(-2 5 -2 -4 -1 -1 4 4)
1969-12-31 18:00:14.149410057,(19 19 -4 -8 -6 -2 3 9)
1969-12-31 18:00:14.164962157,(-18 -13 -1 0 -6 -3 -6 -7)
1969-12-31 18:00:14.164962157,(-28 -25 -6 -5 -4 -4 -10 -17)
1969-12-31 18:00:14.165998963,(25 9 -4 -3 -3 -3 1 13)
1969-12-31 18:00:14.165998963,(-12 -12 2 1 12 6 3 2)
1969-12-31 18:00:14.188808709,(-4 3 -3 1 -20 -4 -6 -3)
1969-12-31 18:00:14.188808709,(-8 -21 2 2 7 3 8 8)
1969-12-31 18:00:14.189845516,(17 36 -5 -16 -7 -7 -13 -13)
1969-12-31 18:00:14.189845516,(8 1 1 19 12 9 16 15)
1969-12-31 18:00:14.202287195,(-1 -1 -3 3 7 -2 -5 -2)
1969-12-31 18:00:14.202287195,(-9 -6 -3 -4 -6 -1 -6 -7)
1969-12-31 18:00:14.211618455,(-16 -41 6 8 7 16 24 18)
1969-12-31 18:00:14.211618455,(-7 -16 -1 -3 -2 -2 -3 -2)
1969-12-31 18:00:14.227170555,(53 54 -3 -12 -4 0 6 18)
1969-12-31 18:00:14.227170555,(-65 -56 -10 -2 -4 -12 -18 -27)
1969-12-31 18:00:14.228207361,(69 55 15 3 6 10 15 15)
1969-12-31 18:00:14.228207361,(-24 -37 -5 1 -2 -6 -13 -19)
1969-12-31 18:00:14.249980301,(-18 1 -3 1 6 9 7 -7)
1969-12-31 18:00:14.249980301,(7 8 -1 3 0 1 0 2)
1969-12-31 18:00:14.252053914,(-33 -16 -8 -2 -2 -3 -6 -8)
1969-12-31 18:00:14.252053914,(-2 2 3 4 -4 -6 -9 -7)
1969-12-31 18:00:14.264495594,(-26 -49 -5 0 2 -1 -1 -15)
1969-12-31 18:00:14.264495594,(27 26 -1 -7 -1 -2 -2 -3)
1969-12-31 18:00:14.273826853,(-32 -24 -1 6 -4 -7 -12 -14)
1969-12-31 18:00:14.273826853,(45 47 12 6 12 21 29 39)
1969-12-31 18:00:14.289378953,(-26 -20 -11 -48 -21 -13 -9 -7)
1969-12-31 18:00:14.289378953,(-3 -4 -1 20 7 0 1 3)
1969-12-31 18:00:14.290415759,(12 19 5 3 12 3 2 6)
1969-12-31 18:00:14.290415759,(0 -4 4 27 -2 0 -2 -3)
1969-12-31 18:00:14.312188699,(2 -8 10 23 13 -4 -10 -2)
1969-12-31 18:00:14.312188699,(-23 -14 5 -5 -1 8 7 -13)
1969-12-31 18:00:14.314262312,(12 3 -11 -17 -6 -6 -2 6)
1969-12-31 18:00:14.314262312,(3 13 -11 -32 -11 -4 -3 -1)
1969-12-31 18:00:14.326703992,(9 11 5 22 5 1 0 2)
1969-12-31 18:00:14.326703992,(10 14 13 13 6 2 1 5)
1969-12-31 18:00:14.336035251,(-14 -24 -4 10 0 -4 -4 4)
1969-12-31 18:00:14.336035251,(-19 -13 -7 -8 1 0 -1 -10)
1969-12-31 18:00:14.351587351,(0 0 -4 -10 -9 -4 -2 -1)
1969-12-31 18:00:14.351587351,(6 2 -6 -12 -6 -5 -4 6)
1969-12-31 18:00:14.352624157,(2 -3 -6 -25 -19 0 4 3)
1969-12-31 18:00:14.352624157,(16 14 5 -3 3 -1 3 7)
1969-12-31 18:00:14.374397097,(5 8 -5 -24 -6 -4 -5 -4)
1969-12-31 18:00:14.374397097,(23 22 1 -9 -13 4 12 18)
1969-12-31 18:00:14.376470710,(-29 -19 12 65 30 -3 -13 -23)
1969-12-31 18:00:14.376470710,(3 5 11 36 18 10 5 2)
1969-12-31 18:00:14.388912390,(-13 -12 6 14 13 4 -2 -2)
1969-12-31 18:00:14.388912390,(3 -16 -15 -45 -20 -14 -11 -2)
1969-12-31 18:00:14.398243650,(5 22 -9 -30 -18 -3 -5 -12)
1969-12-31 18:00:14.398243650,(11 10 -6 -12 -10 -7 -1 7)
1969-12-31 18:00:14.412758942,(-2 -1 -1 -2 -6 -5 -7 -12)
1969-12-31 18:00:14.412758942,(-1 -6 -4 0 -2 -5 -5 -2)
1969-12-31 18:00:14.420016589,(5 0 4 1 1 5 13 15)
1969-12-31 18:00:14.420016589,(-9 -8 -5 -5 -4 -6 -8 -11)
1969-12-31 18:00:14.444899948,(8 9 0 -3 -10 1 4 7)
1969-12-31 18:00:14.444899948,(-6 3 0 13 11 0 2 -4)
1969-12-31 18:00:14.445936755,(-12 -14 2 11 9 1 -6 -10)
1969-12-31 18:00:14.445936755,(7 6 4 2 -1 1 3 3)
1969-12-31 18:00:14.451120788,(17 17 -1 3 -4 3 12 17)
1969-12-31 18:00:14.451120788,(-6 -3 0 3 9 0 -4 -5)
1969-12-31 18:00:14.460452048,(0 -5 -6 -16 1 -2 -4 -2)
1969-12-31 18:00:14.460452048,(-11 -9 -8 -36 -21 -11 -13 -9)
1969-12-31 18:00:14.483261794,(-10 -5 4 17 -2 10 13 -1)
1969-12-31 18:00:14.483261794,(10 4 7 29 16 6 5 9)
1969-12-31 18:00:14.485335407,(3 6 1 1 6 0 -1 1)
1969-12-31 18:00:14.485335407,(-14 -12 -2 -13 -21 -9 -11 -15)
1969-12-31 18:00:14.499850700,(-5 -12 -1 17 16 -5 -9 -5)
1969-12-31 18:00:14.499850700,(74 82 18 22 21 19 29 47)
1969-12-31 18:00:14.505034733,(-14 -20 -6 -9 -6 -2 -5 -11)
1969-12-31 18:00:14.505034733,(7 4 -4 -7 -6 -4 0 3)
1969-12-31 18:00:14.522660446,(6 6 0 -20 -5 1 6 8)
1969-12-31 18:00:14.522660446,(-16 -16 -4 -1 -9 -8 -8 -9)
1969-12-31 18:00:14.523697252,(18 9 -3 0 5 -1 1 9)
1969-12-31 18:00:14.523697252,(-15 -18 3 16 0 -1 -2 -8)
1969-12-31 18:00:14.537175739,(39 44 -7 -1 -2 -7 -4 12)
1969-12-31 18:00:14.537175739,(-42 -29 -3 0 -3 -6 -15 -30)
1969-12-31 18:00:14.545470192,(16 14 5 -24 -16 -1 7 7)
1969-12-31 18:00:14.545470192,(-7 -8 -4 1 19 7 4 0)
1969-12-31 18:00:14.561022291,(-24 -36 6 13 -2 -6 -4 -5)
1969-12-31 18:00:14.561022291,(-13 -21 -7 -10 -8 -11 -10 -7)
1969-12-31 18:00:14.563095905,(-3 7 -12 -32 -28 -15 -9 -15)
1969-12-31 18:00:14.563095905,(-9 1 -3 13 -18 -10 -6 -8)
1969-12-31 18:00:14.575537584,(7 2 8 12 53 21 6 7)
1969-12-31 18:00:14.575537584,(8 13 17 38 32 25 12 6)
1969-12-31 18:00:14.584868844,(-51 -28 4 22 20 2 -9 -16)
1969-12-31 18:00:14.584868844,(61 38 4 -8 6 12 18 30)
1969-12-31 18:00:14.600420943,(-11 -3 -11 -12 -29 -19 -14 -18)
1969-12-31 18:00:14.600420943,(-3 -10 -11 -26 -28 -17 -5 -3)
1969-12-31 18:00:14.607678590,(17 8 1 -2 -5 4 8 9)
1969-12-31 18:00:14.607678590,(-1 4 -2 -2 -5 -5 -2 1)
1969-12-31 18:00:14.623230689,(-13 -7 -1 -3 -8 1 0 -7)
1969-12-31 18:00:14.623230689,(6 3 -9 -17 3 2 -3 -1)
1969-12-31 18:00:14.625304303,(-6 -13 3 21 -7 -2 0 0)
1969-12-31 18:00:14.625304303,(-8 -1 8 24 31 8 1 -2)
1969-12-31 18:00:14.637745982,(-5 -9 -2 -9 14 5 -1 -2)
1969-12-31 18:00:14.637745982,(13 19 4 -1 -1 -1 1 7)
1969-12-31 18:00:14.654334889,(-33 -34 -6 11 4 -2 -12 -25)
1969-12-31 18:00:14.654334889,(19 36 15 4 -4 11 17 14)
1969-12-31 18:00:14.661592535,(29 10 4 -35 -8 9 29 35)
1969-12-31 18:00:14.661592535,(-25 -20 -15 4 -14 -17 -16 -20)
1969-12-31 18:00:14.668850181,(13 2 0 16 13 5 5 10)
1969-12-31 18:00:14.668850181,(17 10 5 1 8 4 2 6)
1969-12-31 18:00:14.685439088,(-16 -15 -4 0 -41 -20 -3 0)
1969-12-31 18:00:14.685439088,(-7 -8 -1 -19 13 11 2 -2)
1969-12-31 18:00:14.687512701,(32 23 4 15 30 21 13 15)
1969-12-31 18:00:14.687512701,(-31 -41 -5 10 17 5 -6 -5)
1969-12-31 18:00:14.709285640,(-4 12 8 6 -2 3 -5 -16)
1969-12-31 18:00:14.709285640,(-15 -19 -5 -22 -28 -15 -12 -14)
1969-12-31 18:00:14.715506480,(1 3 -13 -17 -14 -17 -11 -7)
1969-12-31 18:00:14.715506480,(-11 -8 -6 1 -8 -5 -5 -8)
1969-12-31 18:00:14.723800933,(15 23 10 28 17 5 1 6)
1969-12-31 18:00:14.723800933,(-28 -45 2 13 6 1 1 -4)
1969-12-31 18:00:14.731058580,(9 8 -6 -18 -11 -4 -4 -7)
1969-12-31 18:00:14.731058580,(-5 -4 -8 -17 -7 -8 -6 -4)
1969-12-31 18:00:14.747647486,(38 46 -9 -11 -16 -12 -4 17)
1969-12-31 18:00:14.747647486,(-41 -30 1 11 11 0 -11 -25)
1969-12-31 18:00:14.749721099,(21 34 15 8 4 9 12 15)
1969-12-31 18:00:14.749721099,(6 4 -4 -1 0 0 2 0)
1969-12-31 18:00:14.771494038,(-10 -15 -4 -5 -1 -2 -6 -7)
1969-12-31 18:00:14.771494038,(28 20 -4 -14 -3 4 15 23)
1969-12-31 18:00:14.772530845,(-8 -6 -7 -6 -22 -8 -6 -4)
1969-12-31 18:00:14.772530845,(1 -6 4 10 4 -7 -10 0)
1969-12-31 18:00:14.784972525,(-11 0 6 7 16 8 3 -12)
1969-12-31 18:00:14.784972525,(18 15 2 -2 -4 1 5 13)
1969-12-31 18:00:14.794303784,(-3 -14 1 -11 3 4 5 6)
1969-12-31 18:00:14.794303784,(27 28 -10 -18 -27 -8 5 18)
1969-12-31 18:00:14.809855884,(-14 -19 -1 17 4 -11 -20 -16)
1969-12-31 18:00:14.809855884,(-19 -10 9 17 16 9 1 -1)
1969-12-31 18:00:14.811929497,(34 37 2 9 10 7 8 1)
1969-12-31 18:00:14.811929497,(-32 -38 -4 -10 -5 -2 -4 -7)
1969-12-31 18:00:14.833702436,(33 13 2 -7 -3 8 14 13)
1969-12-31 18:00:14.833702436,(-3 10 -5 -8 -12 -11 -15 -14)
1969-12-31 18:00:14.834739243,(-3 -8 -3 -6 -5 -5 -1 9)
1969-12-31 18:00:14.834739243,(-41 -38 -6 0 2 -1 -7 -16)
1969-12-31 18:00:14.847180923,(-15 -2 13 10 7 1 -7 -18)
1969-12-31 18:00:14.847180923,(-3 -4 -2 3 -3 -1 3 3)
1969-12-31 18:00:14.856512182,(-12 -12 -3 -10 -7 1 4 -1)
1969-12-31 18:00:14.856512182,(3 6 -1 2 -2 -3 -2 -4)
1969-12-31 18:00:14.872064282,(-18 -6 -3 5 12 2 -3 -3)
1969-12-31 18:00:14.872064282,(32 15 -1 3 2 5 9 15)
1969-12-31 18:00:14.874137895,(-7 0 3 5 2 -1 -3 -5)
1969-12-31 18:00:14.874137895,(3 3 -2 0 4 6 7 2)
1969-12-31 18:00:14.895910835,(3 -1 1 -1 -1 1 0 3)
1969-12-31 18:00:14.895910835,(-2 2 -8 -13 -11 -6 -1 8)
1969-12-31 18:00:14.896947641,(-39 -28 1 1 -3 -4 -10 -26)
1969-12-31 18:00:14.896947641,(15 11 3 7 7 4 4 2)
1969-12-31 18:00:14.909389321,(12 12 -2 -4 1 9 14 19)
1969-12-31 18:00:14.909389321,(-6 -3 -9 -9 -6 -9 -8 -11)
1969-12-31 18:00:14.918720581,(0 -10 3 6 -9 1 5 10)
1969-12-31 18:00:14.918720581,(18 33 2 -14 2 1 6 7)
1969-12-31 18:00:14.934272680,(-26 -32 -5 8 -7 -10 -16 -18)
1969-12-31 18:00:14.934272680,(-2 -1 8 7 20 12 13 2)
1969-12-31 18:00:14.936346293,(-3 -9 0 0 -9 -4 -2 4)
1969-12-31 18:00:14.936346293,(-4 8 -5 -10 -4 -3 -1 -4)
1969-12-31 18:00:14.958119233,(51 47 -4 -8 -3 -2 1 16)
1969-12-31 18:00:14.958119233,(-21 -20 10 16 9 8 12 8)
1969-12-31 18:00:14.959156039,(-8 -12 -6 -3 4 -9 -14 -11)
1969-12-31 18:00:14.959156039,(29 24 2 3 -2 3 4 9)
1969-12-31 18:00:14.971597719,(-18 -12 -8 -4 -4 -5 -6 -12)
1969-12-31 18:00:14.971597719,(23 18 0 -13 -16 -2 1 11)
1969-12-31 18:00:14.987149819,(-11 -15 -5 -4 7 1 1 -3)
1969-12-31 18:00:14.987149819,(-27 -35 2 7 -1 -3 -6 -9)
1969-12-31 18:00:14.996481078,(-6 -3 -1 -5 -1 1 2 -1)
1969-12-31 18:00:14.996481078,(19 17 -5 -1 -4 -3 -5 -6)
1969-12-31 18:00:14.998554692,(21 16 5 4 0 6 12 24)
1969-12-31 18:00:14.998554692,(-16 -17 -6 0 4 -7 -14 -19)
1969-12-31 18:00:15.020327631,(-4 -10 -6 -11 2 -4 -5 -2)
1969-12-31 18:00:15.020327631,(-25 -22 0 -6 -26 -4 1 -6)
1969-12-31 18:00:15.021364438,(32 54 8 7 14 4 -3 -3)
1969-12-31 18:00:15.021364438,(-10 -8 6 14 16 11 5 0)
1969-12-31 18:00:15.033806117,(0 -4 3 2 9 8 5 2)
1969-12-31 18:00:15.033806117,(-1 -16 -5 -8 -7 -8 -8 -4)
1969-12-31 18:00:15.043137377,(39 35 -12 -16 -16 -14 -4 14)
1969-12-31 18:00:15.043137377,(-43 -55 -2 0 -2 -2 -5 -11)
1969-12-31 18:00:15.058689476,(4 10 -8 -4 -9 -8 -15 -16)
1969-12-31 18:00:15.058689476,(13 13 9 5 12 14 11 -1)
1969-12-31 18:00:15.060763090,(-7 -13 -3 0 -4 -2 1 -2)
1969-12-31 18:00:15.060763090,(-8 -2 -3 -2 -3 -6 -8 -5)
1969-12-31 18:00:15.082536029,(-15 -20 -4 -1 -2 -3 -2 2)
1969-12-31 18:00:15.082536029,(9 13 1 0 -3 -5 -3 4)
1969-12-31 18:00:15.083572836,(-36 -37 1 1 2 3 -1 -11)
1969-12-31 18:00:15.083572836,(19 12 -6 -10 -12 -5 0 5)
1969-12-31 18:00:15.096014515,(-29 -24 5 5 9 7 6 -8)
1969-12-31 18:00:15.096014515,(-34 -26 -3 3 5 -5 -10 -18)
1969-12-31 18:00:15.105345775,(20 48 0 0 2 3 2 5)
1969-12-31 18:00:15.105345775,(11 13 6 4 4 7 5 -1)
1969-12-31 18:00:15.120897875,(3 -2 -2 -6 -11 -5 -1 2)
1969-12-31 18:00:15.120897875,(-15 -13 -11 -16 -9 -8 -5 -9)
1969-12-31 18:00:15.122971488,(-15 -28 -2 10 6 -3 -6 -7)
1969-12-31 18:00:15.122971488,(44 50 7 0 -6 -3 10 32)
1969-12-31 18:00:15.144744427,(-39 -24 -5 -4 -2 -5 -15 -30)
1969-12-31 18:00:15.144744427,(15 3 -5 1 1 4 4 9)
1969-12-31 18:00:15.145781234,(-7 -17 -1 -8 -5 -3 0 2)
1969-12-31 18:00:15.145781234,(-2 -5 -7 -8 7 -2 -4 -7)
1969-12-31 18:00:15.158222913,(66 64 25 15 6 13 32 51)
1969-12-31 18:00:15.158222913,(-28 -52 -5 1 -9 -3 1 0)
1969-12-31 18:00:15.167554173,(76 88 6 -1 4 8 12 19)
1969-12-31 18:00:15.167554173,(-22 -6 4 5 7 2 -4 -18)
1969-12-31 18:00:15.183106273,(18 -18 -11 -4 -11 -9 -3 16)
1969-12-31 18:00:15.183106273,(3 7 -4 -35 -4 1 -8 -15)
1969-12-31 18:00:15.185179886,(-37 -51 -4 11 -4 -1 -3 -10)
1969-12-31 18:00:15.185179886,(28 50 17 40 31 8 10 31)
1969-12-31 18:00:15.206952825,(-42 -34 -8 9 1 -9 -19 -33)
1969-12-31 18:00:15.206952825,(21 29 9 4 3 7 12 26)
1969-12-31 18:00:15.207989632,(-27 -39 -11 -30 -10 -11 -13 -17)
1969-12-31 18:00:15.207989632,(-7 -10 -5 1 -30 -11 -6 -6)
1969-12-31 18:00:15.220431312,(-17 -12 4 15 25 -1 -5 -9)
1969-12-31 18:00:15.220431312,(27 32 4 -3 -15 -6 -3 4)
1969-12-31 18:00:15.229762571,(-18 -14 -5 -9 2 0 3 -2)
1969-12-31 18:00:15.229762571,(-3 -16 -13 -49 -15 6 3 -2)
1969-12-31 18:00:15.245314671,(8 16 1 4 0 8 5 4)
1969-12-31 18:00:15.245314671,(8 2 8 46 36 6 2 5)
1969-12-31 18:00:15.247388284,(19 8 4 11 -1 2 3 14)
1969-12-31 18:00:15.247388284,(-25 -25 -6 -5 -12 -14 -16 -22)
1969-12-31 18:00:15.269161223,(-8 1 -6 -21 -14 -3 0 -5)
1969-12-31 18:00:15.269161223,(-5 2 -8 -22 -18 -14 -13 -7)
1969-12-31 18:00:15.270198030,(38 45 12 4 2 5 15 32)
1969-12-31 18:00:15.270198030,(-31 -38 -10 9 3 -8 -13 -30)
1969-12-31 18:00:15.282639710,(26 -5 1 -19 -13 -1 6 21)
1969-12-31 18:00:15.282639710,(-7 10 -1 9 6 5 2 -13)
1969-12-31 18:00:15.291970969,(-22 -19 -2 15 4 -5 -4 -9)
1969-12-31 18:00:15.291970969,(2 -12 7 8 15 5 6 14)
1969-12-31 18:00:15.307523069,(38 56 15 12 13 27 30 19)
1969-12-31 18:00:15.307523069,(-3 -6 -8 -5 -2 -10 -7 -6)
1969-12-31 18:00:15.313743909,(-17 -21 -13 -39 -17 -3 -6 -15)
1969-12-31 18:00:15.313743909,(3 1 2 17 7 -2 -2 -5)
1969-12-31 18:00:15.331369622,(-13 -19 -2 -1 -12 -6 -1 1)
1969-12-31 18:00:15.331369622,(39 34 5 -10 -9 -4 5 21)
1969-12-31 18:00:15.332406428,(-58 -66 -6 17 15 0 -9 -21)
1969-12-31 18:00:15.332406428,(57 76 7 3 11 9 10 12)
1969-12-31 18:00:15.344848108,(-28 -10 3 6 8 5 9 0)
1969-12-31 18:00:15.344848108,(24 12 3 -14 -1 4 8 23)
1969-12-31 18:00:15.354179368,(-2 -9 -3 -2 -20 -5 -3 0)
1969-12-31 18:00:15.354179368,(-28 -22 -5 -26 -42 -15 -7 -10)
1969-12-31 18:00:15.368694660,(-17 -44 -8 10 38 -4 -9 -6)
1969-12-31 18:00:15.369731467,(20 24 10 27 15 23 19 5)
1969-12-31 18:00:15.375952307,(-9 6 6 13 26 12 2 -9)
1969-12-31 18:00:15.375952307,(11 3 -6 -23 -10 5 5 9)
1969-12-31 18:00:15.394614826,(-8 -12 -12 -13 -31 -13 -11 -13)
1969-12-31 18:00:15.394614826,(-19 -13 2 16 11 -9 -7 -6)
1969-12-31 18:00:15.396688440,(16 15 5 14 1 -8 -11 1)
1969-12-31 18:00:15.396688440,(-16 0 22 20 14 18 19 7)
1969-12-31 18:00:15.407056506,(-11 -6 -11 -24 -14 -8 -7 -11)
1969-12-31 18:00:15.407056506,(-6 -13 -6 -11 -6 -4 -5 -4)
1969-12-31 18:00:15.416387766,(-3 -7 -7 -8 -15 -9 -8 -6)
1969-12-31 18:00:15.416387766,(-30 -36 -11 -4 1 -6 -9 -9)
1969-12-31 18:00:15.431939865,(9 28 13 12 16 8 8 3)
1969-12-31 18:00:15.431939865,(-3 -8 -4 -35 -28 1 4 9)
1969-12-31 18:00:15.438160705,(11 10 0 3 -10 -10 -1 6)
1969-12-31 18:00:15.438160705,(-8 -16 -1 11 13 4 2 0)
1969-12-31 18:00:15.455786418,(-6 -7 -1 18 23 3 -6 -6)
1969-12-31 18:00:15.455786418,(-11 -6 -2 7 -11 -2 -7 -17)
1969-12-31 18:00:15.456823224,(-23 -28 -3 -7 -5 -4 -5 -11)
1969-12-31 18:00:15.456823224,(3 5 0 3 8 1 -5 -10)
1969-12-31 18:00:15.469264904,(3 3 -2 -12 -18 -5 -5 -2)
1969-12-31 18:00:15.469264904,(-7 -12 -4 -3 0 -6 -4 0)
1969-12-31 18:00:15.478596164,(25 30 -7 -10 6 3 10 17)
1969-12-31 18:00:15.478596164,(-16 -13 -9 -17 -8 -12 -22 -24)
1969-12-31 18:00:15.494148263,(-13 -12 -4 -6 -18 -5 -10 -10)
1969-12-31 18:00:15.494148263,(-9 -6 3 14 6 2 1 -5)
1969-12-31 18:00:15.500369103,(3 -4 6 20 20 7 5 5)
1969-12-31 18:00:15.500369103,(34 32 5 -11 -9 5 12 19)
1969-12-31 18:00:15.517994816,(-1 -4 -9 -6 0 -5 -5 -4)
1969-12-31 18:00:15.517994816,(-18 -10 -2 -1 -3 -9 -14 -18)
1969-12-31 18:00:15.519031623,(1 6 7 -15 0 5 4 0)
1969-12-31 18:00:15.519031623,(15 5 -4 10 -9 -2 7 12)
1969-12-31 18:00:15.531473302,(-13 -8 -2 -4 -2 -3 -4 -10)
1969-12-31 18:00:15.531473302,(8 8 -1 4 7 6 8 8)
1969-12-31 18:00:15.549099015,(-6 -1 2 15 26 7 0 -7)
1969-12-31 18:00:15.549099015,(-8 -9 -3 -6 -15 -5 -6 -5)
1969-12-31 18:00:15.556356661,(10 4 1 7 -10 -6 4 8)
1969-12-31 18:00:15.556356661,(-7 -4 -1 0 12 2 0 -8)
1969-12-31 18:00:15.562577501,(-7 -4 -2 -8 2 2 0 -4)
1969-12-31 18:00:15.562577501,(0 -8 1 3 1 -3 -1 3)
1969-12-31 18:00:15.580203214,(32 40 13 12 6 9 12 18)
1969-12-31 18:00:15.580203214,(-3 -1 -3 -7 -3 -3 -5 -5)
1969-12-31 18:00:15.581240021,(-8 -9 -6 -11 -17 -4 -3 -6)
1969-12-31 18:00:15.581240021,(-5 -8 -1 8 5 2 0 -1)
1969-12-31 18:00:15.593681700,(-21 6 -2 -2 1 -1 -1 6)
1969-12-31 18:00:15.593681700,(21 15 3 0 -2 -1 4 9)
1969-12-31 18:00:15.603012960,(-31 -40 -11 2 -10 -7 -14 -22)
1969-12-31 18:00:15.603012960,(12 5 11 10 15 12 16 21)
1969-12-31 18:00:15.618565060,(-2 -8 -2 -6 -4 -1 -4 -7)
1969-12-31 18:00:15.618565060,(-3 -3 -1 6 2 -1 -1 3)
1969-12-31 18:00:15.624785899,(28 40 2 0 -5 1 8 14)
1969-12-31 18:00:15.624785899,(-13 -13 -6 -7 -1 -2 -3 -8)
1969-12-31 18:00:15.649669259,(-11 -22 -9 -4 -5 -3 -6 -8)
1969-12-31 18:00:15.649669259,(-13 -34 1 9 3 2 -2 -4)
1969-12-31 18:00:15.651742872,(45 76 9 -2 1 9 16 26)
1969-12-31 18:00:15.651742872,(1 3 -7 -6 -4 -5 -2 -2)
1969-12-31 18:00:15.667294971,(7 -6 -2 0 0 -1 0 1)
1969-12-31 18:00:15.667294971,(-10 -1 0 4 5 5 -1 -10)
1969-12-31 18:00:15.668331778,(3 6 11 -1 -3 5 12 29)
1969-12-31 18:00:15.668331778,(19 5 1 2 2 -2 -3 -1)
1969-12-31 18:00:15.679736651,(-4 4 -1 1 -2 -1 -5 -6)
1969-12-31 18:00:15.679736651,(-13 -11 -5 -5 -3 -4 -3 -5)
1969-12-31 18:00:15.695288751,(-39 -66 -8 2 -4 -7 -9 -22)
1969-12-31 18:00:15.695288751,(53 61 -2 -4 2 6 15 24)
1969-12-31 18:00:15.704620010,(8 10 1 -5 -4 -4 -9 -7)
1969-12-31 18:00:15.704620010,(-6 -6 -4 -5 -2 -1 -4 -2)
1969-12-31 18:00:15.705656817,(-10 -10 -2 0 -5 -5 -6 -9)
1969-12-31 18:00:15.705656817,(-17 -17 -3 6 4 -4 -8 -9)
1969-12-31 18:00:15.727429756,(-3 -12 0 -3 -2 1 1 2)
1969-12-31 18:00:15.727429756,(27 31 4 3 7 7 10 17)
1969-12-31 18:00:15.729503370,(3 0 -4 -6 -4 -2 -4 -8)
1969-12-31 18:00:15.729503370,(-13 -16 -7 -20 -6 -3 -3 -1)
1969-12-31 18:00:15.741945049,(-3 -1 -2 3 -1 -3 -1 -1)
1969-12-31 18:00:15.741945049,(-9 -6 -5 -22 -17 -5 -3 -4)
1969-12-31 18:00:15.757497149,(0 -4 9 39 6 0 -1 -1)
1969-12-31 18:00:15.757497149,(-22 -13 9 32 21 1 -8 -14)
1969-12-31 18:00:15.766828409,(-1 -4 -6 -32 -29 -11 0 4)
1969-12-31 18:00:15.766828409,(6 1 0 30 35 7 1 1)
1969-12-31 18:00:15.767865215,(2 0 6 7 16 16 3 2)
1969-12-31 18:00:15.767865215,(5 16 38 20 21 24 14 5)
1969-12-31 18:00:15.789638154,(3 5 -12 1 2 -3 -4 1)
1969-12-31 18:00:15.789638154,(2 -14 -37 -37 -37 -28 -13 -1)
1969-12-31 18:00:15.791711768,(-14 -4 26 2 -17 -11 -10 -15)
1969-12-31 18:00:15.791711768,(-9 -7 -17 -11 1 0 0 -3)
1969-12-31 18:00:15.804153447,(3 -11 -22 -22 -3 -1 3 4)
1969-12-31 18:00:15.804153447,(-20 -13 3 -9 -21 -16 -14 -17)
1969-12-31 18:00:15.813484707,(6 6 4 4 9 11 11 9)
1969-12-31 18:00:15.813484707,(2 4 -13 -11 16 1 -5 -1)
1969-12-31 18:00:15.829036807,(5 2 9 9 -14 2 3 2)
1969-12-31 18:00:15.829036807,(4 8 0 0 3 7 5 0)
1969-12-31 18:00:15.830073613,(7 4 4 -9 -1 -6 1 4)
1969-12-31 18:00:15.830073613,(-7 -13 -3 -14 -13 -8 -6 -3)
1969-12-31 18:00:15.851846553,(-3 -4 -1 49 19 3 1 -1)
1969-12-31 18:00:15.851846553,(-11 -3 -7 4 11 0 -8 -11)
1969-12-31 18:00:15.853920166,(-7 -10 -11 -30 -14 -1 1 -5)
1969-12-31 18:00:15.853920166,(3 4 8 -15 -50 -18 -1 2)
1969-12-31 18:00:15.866361846,(-6 -4 7 18 48 9 -5 -7)
1969-12-31 18:00:15.866361846,(3 6 38 36 39 30 15 7)
1969-12-31 18:00:15.875693105,(2 5 -19 -7 11 18 6 5)
1969-12-31 18:00:15.875693105,(7 0 -16 -14 -16 -8 1 4)
1969-12-31 18:00:15.891245205,(3 5 10 -16 -29 -3 4 0)
1969-12-31 18:00:15.891245205,(6 8 12 11 2 0 0 3)
1969-12-31 18:00:15.892282011,(1 5 32 -1 -5 -4 0 1)
1969-12-31 18:00:15.892282011,(-8 -5 -32 -6 -13 -12 -10 -7)
1969-12-31 18:00:15.914054951,(-9 -22 -48 -29 -9 -16 -12 -6)
1969-12-31 18:00:15.914054951,(-8 -11 -19 -29 -11 -8 -7 -5)
1969-12-31 18:00:15.916128564,(-7 -11 -11 -8 -1 -8 -8 -9)
1969-12-31 18:00:15.916128564,(2 19 70 76 30 23 12 2)
1969-12-31 18:00:15.936864697,(3 10 13 34 31 26 12 6)
1969-12-31 18:00:15.936864697,(-3 -14 -33 -29 -16 -17 -10 -2)
1969-12-31 18:00:15.937901503,(-7 -9 -8 -17 -16 -11 -5 -5)
1969-12-31 18:00:15.937901503,(1 5 7 -12 -3 7 6 3)
1969-12-31 18:00:15.952416796,(3 10 11 -13 -8 -1 0 -1)
1969-12-31 18:00:15.952416796,(9 3 -8 16 0 2 6 9)
1969-12-31 18:00:15.953453603,(-5 -10 -16 1 14 -4 -10 -6)
1969-12-31 18:00:15.953453603,(-8 -9 -14 -20 -2 -9 -7 -5)
1969-12-31 18:00:15.976263349,(-2 -2 0 -3 -6 0 -1 -3)
1969-12-31 18:00:15.976263349,(0 4 22 0 -3 4 0 -3)
1969-12-31 18:00:15.976263349,(7 4 -3 4 -8 -8 -1 3)
1969-12-31 18:00:15.976263349,(-2 -7 5 12 11 3 -1 -2)
1969-12-31 18:00:15.999073095,(-11 -9 2 6 5 5 -3 -7)
1969-12-31 18:00:15.999073095,(9 9 2 -9 -7 -1 9 13)
1969-12-31 18:00:16.000109902,(9 9 -9 -8 -6 -2 0 2)
1969-12-31 18:00:16.000109902,(-5 -13 -11 -16 -9 -6 -6 -2)
1969-12-31 18:00:16.014625194,(-10 -4 13 -8 -19 -15 -8 -6)
1969-12-31 18:00:16.014625194,(2 4 6 43 22 10 3 0)
1969-12-31 18:00:16.015662001,(-4 -6 -9 -3 1 -1 -1 -3)
1969-12-31 18:00:16.015662001,(12 10 -14 -22 -11 -1 3 7)
1969-12-31 18:00:16.037434940,(0 2 15 18 21 7 3 0)
1969-12-31 18:00:16.037434940,(3 3 -2 -7 0 2 2 2)
1969-12-31 18:00:16.038471747,(0 4 11 3 -24 -7 -2 1)
1969-12-31 18:00:16.038471747,(-6 -8 -18 6 0 0 -3 -5)
1969-12-31 18:00:16.062318300,(5 0 4 -4 32 10 5 5)
1969-12-31 18:00:16.062318300,(-2 5 14 11 4 1 -1 -3)
1969-12-31 18:00:16.062318300,(-1 0 -5 -4 2 1 -2 -1)
1969-12-31 18:00:16.062318300,(-5 -4 -7 -10 -15 -6 -3 -3)
1969-12-31 18:00:16.076833593,(6 4 -4 -3 -19 -4 2 3)
1969-12-31 18:00:16.076833593,(-7 -5 -5 -11 -11 -4 0 -5)
1969-12-31 18:00:16.077870399,(3 5 5 5 8 2 -4 0)
1969-12-31 18:00:16.077870399,(-7 -5 4 12 9 3 -1 -4)
1969-12-31 18:00:16.099643339,(2 -4 -15 -12 -6 -5 -5 -1)
1969-12-31 18:00:16.099643339,(4 3 9 4 7 4 4 5)
1969-12-31 18:00:16.100680145,(-5 -2 -5 -15 -15 -4 -2 -5)
1969-12-31 18:00:16.100680145,(7 4 1 24 24 6 1 4)
1969-12-31 18:00:16.123489891,(-5 -5 -3 -21 -11 -5 -4 -4)
1969-12-31 18:00:16.123489891,(0 2 -6 4 -9 -3 -2 -1)
1969-12-31 18:00:16.124526698,(-1 -3 8 12 12 5 1 0)
1969-12-31 18:00:16.124526698,(-1 -2 1 -10 0 -3 -2 -4)
1969-12-31 18:00:16.139041991,(-2 2 4 -9 -9 -2 2 1)
1969-12-31 18:00:16.139041991,(-3 -3 -10 -1 -19 -11 -6 -4)
1969-12-31 18:00:16.140078797,(-3 0 -4 -2 5 7 3 0)
1969-12-31 18:00:16.140078797,(2 2 7 28 28 6 3 1)
1969-12-31 18:00:16.162888543,(1 -4 -4 2 1 0 -1 -2)
1969-12-31 18:00:16.162888543,(-1 -1 2 -8 -3 -1 -2 -1)
1969-12-31 18:00:16.162888543,(-1 -1 -3 -4 -10 -4 -3 -2)
1969-12-31 18:00:16.162888543,(-2 -3 -5 -14 -5 0 -2 0)
1969-12-31 18:00:16.186735096,(0 0 -3 1 -3 0 0 1)
1969-12-31 18:00:16.186735096,(1 1 4 -9 0 1 0 -1)
1969-12-31 18:00:16.186735096,(1 0 1 16 6 2 2 2)
1969-12-31 18:00:16.186735096,(-1 -1 -1 -2 -5 -2 -2 -1)
1969-12-31 18:00:16.201250389,(-5 -5 7 8 6 2 0 -3)
1969-12-31 18:00:16.201250389,(1 2 -11 -13 -9 -7 -4 0)
1969-12-31 18:00:16.202287195,(2 -5 -15 -17 -9 -3 1 3)
1969-12-31 18:00:16.202287195,(-8 -4 15 12 2 -2 -4 -4)
1969-12-31 18:00:16.225096941,(-3 0 4 8 1 -1 -1 -2)
1969-12-31 18:00:16.225096941,(0 0 5 1 3 3 1 0)
1969-12-31 18:00:16.225096941,(-1 0 -8 -6 -1 -1 0 0)
1969-12-31 18:00:16.225096941,(-3 -5 -12 -14 -11 -7 -3 -2)
1969-12-31 18:00:16.248943494,(-4 2 8 0 -9 -1 -1 -2)
1969-12-31 18:00:16.248943494,(6 2 -7 -1 3 5 5 6)
1969-12-31 18:00:16.248943494,(1 2 1 10 13 2 0 2)
1969-12-31 18:00:16.248943494,(1 -2 -2 -14 -15 1 4 1)
1969-12-31 18:00:16.263458787,(-3 2 -1 -5 -14 -12 -6 -3)
1969-12-31 18:00:16.263458787,(-1 0 9 9 26 11 5 1)
1969-12-31 18:00:16.264495594,(-3 -3 6 15 9 1 -1 -2)
1969-12-31 18:00:16.264495594,(2 3 -4 -4 0 -1 2 2)
1969-12-31 18:00:16.295599793,(4 -2 -11 -13 -11 -4 1 3)
1969-12-31 18:00:16.295599793,(0 -1 6 15 3 5 1 -1)
1969-12-31 18:00:16.295599793,(0 0 2 -2 1 -4 -3 -2)
1969-12-31 18:00:16.295599793,(-1 0 -2 -6 -5 -3 -1 -1)
1969-12-31 18:00:16.311151892,(-2 -3 -4 -4 -3 0 -1 0)
1969-12-31 18:00:16.311151892,(-4 -1 -2 -3 -6 -5 -4 -2)
1969-12-31 18:00:16.311151892,(0 -1 -3 -2 1 2 2 1)
1969-12-31 18:00:16.311151892,(2 1 -4 -1 -2 -2 0 -1)
1969-12-31 18:00:16.325667185,(7 5 7 10 10 5 2 4)
1969-12-31 18:00:16.325667185,(-7 -3 1 -2 -2 -5 -6 -7)
1969-12-31 18:00:16.326703992,(-2 0 -2 -5 -5 0 2 0)
1969-12-31 18:00:16.326703992,(0 -2 -2 -6 -3 -3 -3 -2)
1969-12-31 18:00:16.348476931,(-1 -1 -1 7 8 5 0 0)
1969-12-31 18:00:16.348476931,(2 1 -2 -6 -7 0 2 2)
1969-12-31 18:00:16.349513738,(6 5 1 2 2 2 1 3)
1969-12-31 18:00:16.349513738,(-5 -4 3 -1 0 -4 -4 -2)
1969-12-31 18:00:16.373360290,(0 -1 0 1 5 0 1 -2)
1969-12-31 18:00:16.373360290,(-2 -1 0 -3 -1 -4 -2 -2)
1969-12-31 18:00:16.373360290,(0 0 -2 -3 -3 -1 -1 -3)
1969-12-31 18:00:16.373360290,(-1 1 1 2 3 4 2 1)
1969-12-31 18:00:16.387875583,(-2 -1 1 3 -1 0 0 -1)
1969-12-31 18:00:16.387875583,(-1 -1 0 -2 -3 -1 1 0)
1969-12-31 18:00:16.388912390,(-1 -2 -3 0 2 1 0 4)
1969-12-31 18:00:16.388912390,(-1 -1 -1 1 0 2 -2 0)
1969-12-31 18:00:16.410685329,(0 -1 -2 -3 -3 -1 -1 -1)
1969-12-31 18:00:16.410685329,(1 -1 1 0 1 -1 -1 -1)
1969-12-31 18:00:16.411722136,(-3 -1 1 2 0 -1 0 -1)
1969-12-31 18:00:16.411722136,(1 0 -2 -3 1 -1 0 0)
1969-12-31 18:00:16.435568688,(0 1 -1 -1 -1 -1 1 0)
1969-12-31 18:00:16.435568688,(-2 -2 -3 1 1 -1 -3 -3)
1969-12-31 18:00:16.435568688,(-2 -2 0 -2 -2 -2 -1 -2)
1969-12-31 18:00:16.435568688,(-1 -1 -4 -2 0 0 0 1)
1969-12-31 18:00:16.449047175,(1 0 2 1 1 2 2 1)
1969-12-31 18:00:16.449047175,(-1 -2 -3 -7 -8 -5 -2 -2)
1969-12-31 18:00:16.458378434,(1 -1 -3 0 0 2 1 1)
1969-12-31 18:00:16.458378434,(3 2 5 9 10 5 4 2)
1969-12-31 18:00:16.472893727,(-1 -1 1 -5 -3 1 1 -2)
1969-12-31 18:00:16.472893727,(-5 -5 -3 2 1 -5 -5 -3)
1969-12-31 18:00:16.473930534,(-2 -4 -1 -3 -4 -2 1 -3)
1969-12-31 18:00:16.473930534,(-1 0 -5 -5 -8 -5 -1 -2)
1969-12-31 18:00:16.497777087,(-1 0 1 5 3 1 0 1)
1969-12-31 18:00:16.497777087,(-2 -1 3 -4 -2 0 0 -1)
1969-12-31 18:00:16.498813893,(1 0 -3 -1 -3 -1 -1 0)
1969-12-31 18:00:16.498813893,(-1 -1 0 -3 -1 0 0 -1)
1969-12-31 18:00:16.498813893,(-1 0 1 3 2 2 -1 -1)
1969-12-31 18:00:16.498813893,(1 -2 -3 -3 -4 0 0 0)
1969-12-31 18:00:16.499850700,(-1 0 -3 -3 -3 1 2 1)
1969-12-31 18:00:16.499850700,(-1 -1 -3 0 -2 -1 -2 -1)
1969-12-31 18:00:16.512292379,(-2 -4 -1 0 -1 -4 -2 0)
1969-12-31 18:00:16.512292379,(-3 -2 3 0 0 1 0 -1)
1969-12-31 18:00:16.521623639,(1 -2 -1 -2 -3 -1 -1 -1)
1969-12-31 18:00:16.521623639,(1 0 -3 -4 0 1 0 1)
1969-12-31 18:00:16.537175739,(0 1 -3 4 0 -1 1 0)
1969-12-31 18:00:16.537175739,(-1 -3 -1 0 2 3 3 2)
1969-12-31 18:00:16.537175739,(0 -1 3 2 0 -4 -3 -2)
1969-12-31 18:00:16.537175739,(-5 -4 3 -3 0 1 -1 -4)
1969-12-31 18:00:16.559985485,(2 3 -1 -5 -5 0 2 0)
1969-12-31 18:00:16.561022291,(-3 0 -7 4 -1 -1 -4 -3)
1969-12-31 18:00:16.567243131,(4 0 0 -3 5 2 3 5)
1969-12-31 18:00:16.568279938,(1 0 1 -9 -10 -4 -2 1)
1969-12-31 18:00:16.574500778,(-1 -1 2 12 7 1 -2 0)
1969-12-31 18:00:16.574500778,(-3 -3 5 -6 0 2 1 0)
1969-12-31 18:00:16.583832037,(-2 -3 -8 0 -1 3 2 -1)
1969-12-31 18:00:16.583832037,(2 -2 -11 -3 -4 0 0 1)
1969-12-31 18:00:16.598347330,(4 -1 0 -11 -5 2 0 3)
1969-12-31 18:00:16.598347330,(3 4 2 19 11 0 0 -1)
1969-12-31 18:00:16.599384137,(-6 -6 7 8 14 2 -5 -6)
1969-12-31 18:00:16.599384137,(-6 -2 1 -7 -7 -2 2 -5)
1969-12-31 18:00:16.622193883,(4 -4 -14 -20 -9 -4 0 3)
1969-12-31 18:00:16.622193883,(6 9 -2 0 -12 -3 0 2)
1969-12-31 18:00:16.629451529,(6 1 -10 -4 3 2 6 3)
1969-12-31 18:00:16.629451529,(3 4 13 31 14 2 -1 0)
1969-12-31 18:00:16.647077242,(-9 -5 17 26 9 4 -3 -4)
1969-12-31 18:00:16.647077242,(-9 -9 -4 -23 -2 -2 -3 -6)
1969-12-31 18:00:16.648114049,(-2 0 -10 -10 -8 -7 -1 -2)
1969-12-31 18:00:16.648114049,(7 3 -10 -11 -12 -2 -3 5)
1969-12-31 18:00:16.660555728,(2 5 -3 -15 4 -2 -1 -1)
1969-12-31 18:00:16.660555728,(-3 -12 -9 17 -4 2 1 -2)
1969-12-31 18:00:16.661592535,(-8 1 19 3 14 2 -5 -6)
1969-12-31 18:00:16.661592535,(9 5 3 6 10 3 5 8)
1969-12-31 18:00:16.685439088,(-2 -8 -29 -61 -43 -14 -1 -5)
1969-12-31 18:00:16.685439088,(6 10 13 8 -4 -2 -3 4)
1969-12-31 18:00:16.685439088,(-4 1 15 63 32 6 3 -1)
1969-12-31 18:00:16.685439088,(-5 -6 -3 5 7 6 0 -4)
1969-12-31 18:00:16.708248834,(0 0 -13 -50 -19 -10 -2 -2)
1969-12-31 18:00:16.708248834,(6 -2 0 13 17 6 4 3)
1969-12-31 18:00:16.709285640,(-9 -8 -11 -17 -43 -11 -7 -5)
1969-12-31 18:00:16.709285640,(-4 -6 6 -9 31 5 -3 1)
1969-12-31 18:00:16.722764126,(0 13 30 73 21 10 4 1)
1969-12-31 18:00:16.722764126,(-5 -6 -17 5 -5 -6 -6 -7)
1969-12-31 18:00:16.723800933,(0 1 4 -13 5 -4 -4 0)
1969-12-31 18:00:16.723800933,(2 2 -16 -47 -38 -4 3 -2)
1969-12-31 18:00:16.747647486,(0 -5 1 -1 0 7 6 5)
1969-12-31 18:00:16.747647486,(3 10 15 14 23 -3 -5 3)
1969-12-31 18:00:16.747647486,(4 2 -6 20 -29 -10 -3 -2)
1969-12-31 18:00:16.747647486,(0 -5 -1 -14 2 -4 -3 0)
1969-12-31 18:00:16.770457232,(-3 1 8 13 1 8 3 -1)
1969-12-31 18:00:16.770457232,(-1 5 5 12 37 11 5 2)
1969-12-31 18:00:16.771494038,(8 2 -27 -83 -51 -5 5 3)
1969-12-31 18:00:16.771494038,(5 2 -16 20 15 -6 -3 0)
1969-12-31 18:00:16.786009331,(-7 -9 14 24 25 3 -2 -2)
1969-12-31 18:00:16.786009331,(-9 -4 8 -12 -58 -19 -9 -8)
1969-12-31 18:00:16.786009331,(13 15 -4 27 58 23 12 9)
1969-12-31 18:00:16.786009331,(-7 -9 8 -18 -13 -9 -10 -5)
1969-12-31 18:00:16.809855884,(3 10 41 91 53 21 7 3)
1969-12-31 18:00:16.809855884,(1 2 0 -14 3 -2 1 -1)
1969-12-31 18:00:16.810892691,(-7 -11 -3 -4 -17 -13 -7 -6)
1969-12-31 18:00:16.810892691,(-3 -5 -28 -23 -50 -12 -3 -2)
1969-12-31 18:00:16.832665630,(7 4 -16 -36 15 0 1 4)
1969-12-31 18:00:16.832665630,(0 -1 -4 -18 -21 -3 0 0)
1969-12-31 18:00:16.834739243,(-2 0 4 8 2 3 0 -2)
1969-12-31 18:00:16.834739243,(-2 1 8 25 16 1 1 -1)
1969-12-31 18:00:16.848217729,(-3 -7 -16 -28 -30 -12 -7 -5)
1969-12-31 18:00:16.848217729,(2 -2 -6 -25 -2 4 5 1)
1969-12-31 18:00:16.848217729,(0 2 3 -4 3 0 -3 0)
1969-12-31 18:00:16.848217729,(-6 0 7 35 9 4 -1 -5)
1969-12-31 18:00:16.872064282,(-1 -2 -7 -8 -12 -6 -3 -1)
1969-12-31 18:00:16.872064282,(-4 1 4 2 9 1 -2 -2)
1969-12-31 18:00:16.872064282,(0 -1 2 -23 -11 -2 0 2)
1969-12-31 18:00:16.872064282,(1 2 14 9 1 4 0 1)
1969-12-31 18:00:16.894874028,(0 1 -9 9 -4 -2 -2 -1)
1969-12-31 18:00:16.894874028,(1 -3 -12 -12 -3 -1 0 -1)
1969-12-31 18:00:16.895910835,(-5 -7 -2 -3 1 -4 -5 -3)
1969-12-31 18:00:16.895910835,(2 6 4 -8 -2 3 4 2)
1969-12-31 18:00:16.910426128,(0 0 -4 -6 -6 -3 -1 0)
1969-12-31 18:00:16.910426128,(-5 -6 -8 1 -3 -1 -2 -4)
1969-12-31 18:00:16.910426128,(0 -1 7 3 1 1 0 0)
1969-12-31 18:00:16.910426128,(1 2 -1 7 7 0 3 2)
1969-12-31 18:00:16.935309487,(1 -2 -5 -7 -1 -1 -1 1)
1969-12-31 18:00:16.935309487,(-2 0 0 -6 -4 -2 -2 -2)
1969-12-31 18:00:16.936346293,(-1 1 1 15 7 2 2 1)
1969-12-31 18:00:16.936346293,(-3 -2 1 3 1 0 -2 -1)
1969-12-31 18:00:16.957082426,(1 0 -6 -19 -10 -4 -2 3)
1969-12-31 18:00:16.957082426,(0 1 0 5 -3 -1 1 2)
1969-12-31 18:00:16.958119233,(0 2 1 2 3 2 0 0)
1969-12-31 18:00:16.958119233,(-3 0 -2 1 3 -1 -3 -3)
1969-12-31 18:00:16.972634526,(-3 -4 -1 0 -4 -5 -5 -3)
1969-12-31 18:00:16.972634526,(7 4 -4 -3 -1 2 3 6)
1969-12-31 18:00:16.972634526,(-7 -4 4 8 4 4 3 -4)
1969-12-31 18:00:16.972634526,(-3 -4 -2 -5 -1 -2 -5 -6)
1969-12-31 18:00:16.996481078,(-4 -2 -2 3 1 2 -1 -5)
1969-12-31 18:00:16.996481078,(-1 -3 -2 1 -1 -3 -2 1)
1969-12-31 18:00:16.996481078,(7 5 1 1 1 1 3 4)
1969-12-31 18:00:16.997517885,(0 2 1 -1 1 3 5 3)
1969-12-31 18:00:17.019290824,(0 -1 -2 -4 0 -1 -1 -3)
1969-12-31 18:00:17.019290824,(-2 -2 -2 -1 -1 -1 -2 -1)
1969-12-31 18:00:17.020327631,(1 0 -2 -6 0 0 -4 1)
1969-12-31 18:00:17.020327631,(0 0 3 5 0 -1 0 -1)
1969-12-31 18:00:17.033806117,(1 0 -1 -1 2 1 2 0)
1969-12-31 18:00:17.034842924,(-6 -5 -2 1 -1 -1 -3 -4)
1969-12-31 18:00:17.034842924,(3 3 1 -4 -3 -1 -1 1)
1969-12-31 18:00:17.034842924,(0 -1 -2 0 1 -2 -1 -1)
1969-12-31 18:00:17.058689476,(-2 -2 1 -2 -5 -3 -3 -2)
1969-12-31 18:00:17.058689476,(0 -1 0 -1 1 1 0 -1)
1969-12-31 18:00:17.059726283,(-6 -5 -1 4 2 -3 -3 -2)
1969-12-31 18:00:17.059726283,(4 1 -2 -1 2 4 2 3)
1969-12-31 18:00:17.081499222,(6 0 -5 -1 -3 -4 0 2)
1969-12-31 18:00:17.081499222,(1 1 0 -9 -1 0 1 -3)
1969-12-31 18:00:17.083572836,(-7 -5 3 15 3 0 -4 -9)
1969-12-31 18:00:17.083572836,(-4 -4 1 1 -5 -4 -2 -4)
1969-12-31 18:00:17.096014515,(-2 -3 -6 -9 6 3 1 1)
1969-12-31 18:00:17.096014515,(3 1 -1 0 -13 -6 -1 2)
1969-12-31 18:00:17.105345775,(1 2 3 4 7 1 0 1)
1969-12-31 18:00:17.105345775,(-2 -1 0 -6 -3 1 1 1)
1969-12-31 18:00:17.119861068,(0 0 2 -6 -9 -1 0 -1)
1969-12-31 18:00:17.119861068,(-2 -1 4 40 31 8 -1 -3)
1969-12-31 18:00:17.127118714,(2 2 5 -1 -1 0 2 1)
1969-12-31 18:00:17.127118714,(-1 0 -4 -4 -5 -2 -3 0)
1969-12-31 18:00:17.143707621,(-4 -1 -1 -13 -10 -4 -3 -3)
1969-12-31 18:00:17.143707621,(7 4 0 -10 -7 -1 3 5)
1969-12-31 18:00:17.145781234,(-7 0 2 1 1 0 0 -6)
1969-12-31 18:00:17.145781234,(-4 -5 -1 -2 1 -2 -3 -4)
1969-12-31 18:00:17.158222913,(4 4 -3 -4 -2 1 1 3)
1969-12-31 18:00:17.158222913,(0 -2 -9 -30 -16 -5 -1 1)
1969-12-31 18:00:17.167554173,(1 2 5 26 10 3 2 0)
1969-12-31 18:00:17.167554173,(6 6 12 23 17 8 10 9)
1969-12-31 18:00:17.183106273,(-10 -4 4 11 2 -3 -11 -10)
1969-12-31 18:00:17.183106273,(-4 -5 -4 -1 -1 0 1 3)
1969-12-31 18:00:17.189327112,(6 1 -23 -91 -22 -9 -5 2)
1969-12-31 18:00:17.189327112,(16 11 4 34 6 6 9 12)
1969-12-31 18:00:17.205916019,(-1 1 17 46 22 1 -5 -2)
1969-12-31 18:00:17.205916019,(-19 -10 1 5 3 -2 -8 -12)
1969-12-31 18:00:17.207989632,(18 7 -4 -8 -7 0 5 16)
1969-12-31 18:00:17.207989632,(-16 -8 -7 -14 -10 -8 -13 -20)
1969-12-31 18:00:17.220431312,(-11 -4 -7 -33 -2 -1 2 -1)
1969-12-31 18:00:17.220431312,(18 1 3 14 -3 1 4 8)
1969-12-31 18:00:17.235983411,(-19 -10 5 15 2 -5 -12 -15)
1969-12-31 18:00:17.235983411,(-2 -2 -6 -17 -3 -4 -2 0)
1969-12-31 18:00:17.245314671,(20 12 1 4 -2 5 13 19)
1969-12-31 18:00:17.245314671,(-28 -15 -8 -19 -8 -10 -9 -16)
1969-12-31 18:00:17.246351477,(12 1 2 13 5 5 9 9)
