time,.data
1969/12/31/18:00:08.160,(-1 0 -2 0 0 -3 1 -1)
1969/12/31/18:00:08.160,(-1 -4 -2 1 1 1 0 1)
1969/12/31/18:00:08.161,(-1 -1 -3 0 -1 1 -2 0)
1969/12/31/18:00:08.161,(1 1 0 -3 -2 -1 3 3)
1969/12/31/18:00:08.173,(1 1 2 0 -2 -1 -3 1)
1969/12/31/18:00:08.173,(-5 -2 -1 0 -1 -3 -1 -4)
1969/12/31/18:00:08.182,(3 0 -2 3 2 2 2 3)
1969/12/31/18:00:08.182,(-2 -1 -1 0 0 0 -1 -1)
1969/12/31/18:00:08.205,(3 -1 0 -2 -1 1 1 0)
1969/12/31/18:00:08.205,(0 1 0 1 -2 0 0 0)
1969/12/31/18:00:08.212,(-1 -1 2 -1 -1 -1 1 -3)
1969/12/31/18:00:08.212,(-1 0 1 0 -2 -1 -1 -2)
1969/12/31/18:00:08.220,(-4 -4 -4 0 1 -3 -3 -3)
1969/12/31/18:00:08.220,(0 -1 -1 1 -1 1 -1 0)
1969/12/31/18:00:08.221,(1 1 0 -3 -1 -2 -3 1)
1969/12/31/18:00:08.221,(-1 0 1 0 -1 0 2 -1)
1969/12/31/18:00:08.233,(1 -1 0 0 -2 0 0 -3)
1969/12/31/18:00:08.233,(1 -1 0 -1 0 0 0 1)
1969/12/31/18:00:08.242,(0 0 0 -1 0 -1 -1 -2)
1969/12/31/18:00:08.242,(-1 -2 -1 -2 -1 -2 -2 -2)
1969/12/31/18:00:08.258,(-2 -1 0 -1 -1 -1 -3 -1)
1969/12/31/18:00:08.258,(1 -4 -1 -2 -1 0 2 1)
1969/12/31/18:00:08.259,(-3 0 -1 -1 -1 0 -1 -2)
1969/12/31/18:00:08.259,(1 3 -2 -1 1 -2 3 2)
1969/12/31/18:00:08.280,(0 -2 0 -1 1 -1 -3 -2)
1969/12/31/18:00:08.280,(-1 0 0 1 -1 -1 0 2)
1969/12/31/18:00:08.282,(-1 -3 -1 -1 -1 0 -2 -1)
1969/12/31/18:00:08.282,(0 1 0 -1 -1 1 -1 -1)
1969/12/31/18:00:08.293,(1 2 0 0 -1 -1 1 1)
1969/12/31/18:00:08.293,(0 -1 0 -1 -2 -2 -3 -2)
1969/12/31/18:00:08.302,(-1 0 0 1 -1 0 0 1)
1969/12/31/18:00:08.302,(-3 -3 1 0 -1 2 1 1)
1969/12/31/18:00:08.318,(0 -1 -1 -2 -2 -1 -3 -1)
1969/12/31/18:00:08.318,(2 6 1 5 4 3 2 4)
1969/12/31/18:00:08.320,(-4 -3 0 -3 -2 -4 -2 -2)
1969/12/31/18:00:08.320,(3 -2 -1 0 -2 0 -2 0)
1969/12/31/18:00:08.340,(0 0 0 -2 -1 -1 0 -1)
1969/12/31/18:00:08.340,(-2 -2 -1 -3 0 -1 1 -2)
1969/12/31/18:00:08.347,(0 -2 -2 1 1 1 0 0)
1969/12/31/18:00:08.348,(-1 0 0 -3 -2 -4 -3 -3)
1969/12/31/18:00:08.362,(0 -1 -1 0 -2 -1 0 1)
1969/12/31/18:00:08.362,(2 -1 1 0 3 2 1 0)
1969/12/31/18:00:08.364,(-1 1 3 2 -1 -3 -3 -2)
1969/12/31/18:00:08.364,(-5 -7 0 -4 -2 -3 -2 -2)
1969/12/31/18:00:08.377,(2 4 -4 0 -3 2 1 2)
1969/12/31/18:00:08.377,(-1 -1 -4 -1 1 -2 -3 -2)
1969/12/31/18:00:08.379,(0 -2 -4 -10 -6 -3 0 0)
1969/12/31/18:00:08.379,(0 3 3 1 -5 -3 -2 -3)
1969/12/31/18:00:08.400,(-1 -2 4 8 11 6 0 -3)
1969/12/31/18:00:08.400,(5 -1 0 11 3 5 5 4)
1969/12/31/18:00:08.402,(-8 -9 -1 -16 -11 -6 -2 -3)
1969/12/31/18:00:08.402,(2 1 -7 6 3 0 0 2)
1969/12/31/18:00:08.423,(-4 -6 10 1 18 9 1 0)
1969/12/31/18:00:08.423,(-3 2 -3 -17 -13 -9 -6 -5)
1969/12/31/18:00:08.424,(5 3 -9 -3 -39 -5 2 2)
1969/12/31/18:00:08.424,(3 -2 -7 -1 4 -8 0 2)
1969/12/31/18:00:08.437,(-2 6 11 7 1 -3 1 -1)
1969/12/31/18:00:08.437,(5 -1 -9 15 16 5 0 2)
1969/12/31/18:00:08.443,(-13 -14 1 -27 3 6 -7 -9)
1969/12/31/18:00:08.444,(5 6 -1 -9 -22 -18 2 5)
1969/12/31/18:00:08.460,(5 2 -11 26 23 11 5 4)
1969/12/31/18:00:08.460,(-15 -12 9 -11 9 14 -1 -10)
1969/12/31/18:00:08.461,(3 2 -20 11 28 8 -2 -1)
1969/12/31/18:00:08.461,(6 6 14 -21 4 22 11 7)
1969/12/31/18:00:08.473,(-7 -2 38 92 37 -9 -14 -6)
1969/12/31/18:00:08.473,(-16 -8 26 0 -43 -17 0 -8)
1969/12/31/18:00:08.490,(13 5 -21 -5 -21 11 12 15)
1969/12/31/18:00:08.490,(-7 -2 -35 -81 30 0 -9 -9)
1969/12/31/18:00:08.497,(10 -2 -35 -34 -41 -18 0 5)
1969/12/31/18:00:08.497,(10 16 22 63 6 -2 4 6)
1969/12/31/18:00:08.503,(-6 -4 12 -11 -6 -9 -4 -5)
1969/12/31/18:00:08.503,(-7 -12 -12 0 -64 -12 -2 -6)
1969/12/31/18:00:08.520,(1 4 30 15 9 8 0 2)
1969/12/31/18:00:08.520,(-6 -5 -22 2 106 25 -3 -2)
1969/12/31/18:00:08.521,(4 -1 1 23 27 13 6 4)
1969/12/31/18:00:08.521,(-5 -3 1 6 -3 -8 -9 -7)
1969/12/31/18:00:08.543,(-1 -8 -63 -126 -75 -23 -4 -3)
1969/12/31/18:00:08.543,(4 0 30 62 -54 -7 8 5)
1969/12/31/18:00:08.545,(6 15 40 60 94 34 12 8)
1969/12/31/18:00:08.545,(-6 11 22 42 -20 -3 -10 -6)
1969/12/31/18:00:08.556,(2 -5 -39 -86 -6 -4 0 1)
1969/12/31/18:00:08.556,(3 -13 -43 -16 -11 -10 -5 -1)
1969/12/31/18:00:08.565,(-3 2 -4 -37 -50 -14 -5 -6)
1969/12/31/18:00:08.565,(5 -3 30 111 89 23 15 7)
1969/12/31/18:00:08.580,(-2 15 50 33 61 31 10 2)
1969/12/31/18:00:08.580,(-3 -5 -39 -122 -29 -11 -6 0)
1969/12/31/18:00:08.581,(-6 -3 12 45 -25 -19 -9 -6)
1969/12/31/18:00:08.581,(4 1 -12 -15 -27 -12 -2 2)
1969/12/31/18:00:08.602,(1 -3 -2 20 -41 5 2 3)
1969/12/31/18:00:08.602,(8 8 25 16 66 24 9 7)
1969/12/31/18:00:08.604,(-3 -1 -6 -11 -8 -1 -4 -1)
1969/12/31/18:00:08.604,(-6 -8 -2 -50 11 -3 -5 -2)
1969/12/31/18:00:08.616,(-2 -3 -5 13 -17 -9 -3 -2)
1969/12/31/18:00:08.616,(-4 4 16 7 -12 -3 -1 -1)
1969/12/31/18:00:08.631,(-2 -3 -14 -36 -10 -13 -3 -2)
1969/12/31/18:00:08.631,(-1 -5 -11 14 8 2 -1 0)
1969/12/31/18:00:08.640,(-4 -4 2 9 -8 -6 -4 -3)
1969/12/31/18:00:08.640,(1 3 -2 -5 -11 -10 -3 -4)
1969/12/31/18:00:08.641,(1 -1 -5 -12 7 -2 1 0)
1969/12/31/18:00:08.641,(3 3 8 29 6 7 5 0)
1969/12/31/18:00:08.670,(-5 0 10 4 -2 -2 -2 -6)
1969/12/31/18:00:08.670,(0 0 -7 -2 -8 -6 -3 -4)
1969/12/31/18:00:08.672,(1 -3 -8 3 1 -2 1 -3)
1969/12/31/18:00:08.672,(0 1 1 -26 -14 -2 -1 -4)
1969/12/31/18:00:08.676,(3 2 0 8 5 -1 0 0)
1969/12/31/18:00:08.676,(2 0 -6 1 -9 -3 0 -2)
1969/12/31/18:00:08.685,(0 2 0 -10 -7 -3 -2 -2)
1969/12/31/18:00:08.685,(-5 -4 -1 0 -5 0 -3 -4)
1969/12/31/18:00:08.700,(-2 -2 -1 7 10 -2 -2 0)
1969/12/31/18:00:08.700,(4 6 -4 -3 -8 -2 1 3)
1969/12/31/18:00:08.701,(-2 -1 5 4 4 1 1 0)
1969/12/31/18:00:08.701,(-16 -11 -2 5 -1 1 -1 -4)
1969/12/31/18:00:08.722,(9 4 -3 1 2 0 -1 1)
1969/12/31/18:00:08.722,(-3 2 2 -6 -10 -2 -6 -6)
1969/12/31/18:00:08.724,(1 2 -2 -1 -2 -2 -1 1)
1969/12/31/18:00:08.724,(9 5 0 2 1 4 3 8)
1969/12/31/18:00:08.736,(-6 -6 0 -8 -4 1 3 3)
1969/12/31/18:00:08.736,(-13 -1 0 1 -6 -2 -3 -5)
1969/12/31/18:00:08.745,(10 -1 0 3 2 -1 1 4)
1969/12/31/18:00:08.745,(-7 1 0 -4 2 8 6 -5)
1969/12/31/18:00:08.760,(-11 -13 -3 1 -1 -3 -2 -7)
1969/12/31/18:00:08.760,(12 7 1 -4 -2 -2 1 9)
1969/12/31/18:00:08.761,(-4 -1 -3 -2 -7 -8 -6 -2)
1969/12/31/18:00:08.761,(18 11 -1 -2 10 10 9 9)
1969/12/31/18:00:08.782,(-12 -5 5 3 -2 -2 -4 -6)
1969/12/31/18:00:08.782,(-2 -5 -2 7 4 1 -1 -1)
1969/12/31/18:00:08.784,(-5 -5 -1 0 -4 1 2 0)
1969/12/31/18:00:08.784,(3 1 2 3 -1 -4 -2 2)
1969/12/31/18:00:08.796,(6 7 -5 -23 -6 3 4 3)
1969/12/31/18:00:08.796,(-7 -8 -4 0 10 3 -1 -5)
1969/12/31/18:00:08.805,(4 5 3 8 2 2 1 3)
1969/12/31/18:00:08.805,(-2 -2 -3 -6 -7 -4 -5 -2)
1969/12/31/18:00:08.819,(-13 -8 0 6 -1 -4 -6 -3)
1969/12/31/18:00:08.819,(11 3 0 -15 -13 -5 1 5)
1969/12/31/18:00:08.826,(2 4 3 3 10 5 5 -1)
1969/12/31/18:00:08.826,(-19 -21 -4 1 -3 -4 -8 -10)
1969/12/31/18:00:08.842,(-4 -4 -8 -5 -2 -5 -4 -10)
1969/12/31/18:00:08.842,(12 7 -2 -8 -11 -2 2 6)
1969/12/31/18:00:08.844,(-14 -10 1 7 3 -2 -9 -12)
1969/12/31/18:00:08.844,(4 3 0 -8 4 5 6 4)
1969/12/31/18:00:08.856,(-3 -3 -6 -11 -5 -7 -2 1)
1969/12/31/18:00:08.856,(-6 -5 2 -4 -30 -1 2 -1)
1969/12/31/18:00:08.865,(7 5 8 41 24 6 8 5)
1969/12/31/18:00:08.865,(1 2 4 4 21 9 1 3)
1969/12/31/18:00:08.880,(9 5 -5 -25 -6 3 3 5)
1969/12/31/18:00:08.880,(-2 0 4 31 39 8 1 -3)
1969/12/31/18:00:08.881,(-2 3 1 -12 -8 1 0 1)
1969/12/31/18:00:08.881,(12 10 2 14 -6 -6 2 8)
1969/12/31/18:00:08.902,(-14 -16 1 10 0 2 -9 -14)
1969/12/31/18:00:08.902,(2 -3 -16 -29 -14 -3 6 7)
1969/12/31/18:00:08.904,(17 10 0 -16 -12 -7 -7 4)
1969/12/31/18:00:08.904,(-16 -13 -13 -16 -19 -25 -29 -17)
1969/12/31/18:00:08.925,(27 15 5 7 9 9 17 21)
1969/12/31/18:00:08.925,(-33 -18 -6 -4 -11 -18 -32 -37)
1969/12/31/18:00:08.940,(-5 -8 -7 -11 -4 3 6 6)
1969/12/31/18:00:08.940,(-4 5 4 0 -3 10 12 6)
1969/12/31/18:00:08.941,(-4 -1 2 6 4 -5 -7 -4)
1969/12/31/18:00:08.941,(3 11 7 13 15 10 9 8)
1969/12/31/18:00:08.943,(9 10 2 4 -2 7 13 13)
1969/12/31/18:00:08.943,(7 -2 -12 -48 -15 -6 -4 -1)
1969/12/31/18:00:08.962,(-21 -7 4 41 0 -1 0 -1)
1969/12/31/18:00:08.962,(5 2 16 34 31 13 11 1)
1969/12/31/18:00:08.964,(-14 -12 -8 -13 -10 -5 -5 -5)
1969/12/31/18:00:08.964,(-4 2 0 6 -3 -8 -18 -18)
1969/12/31/18:00:08.976,(17 5 -7 -19 -2 -1 5 8)
1969/12/31/18:00:08.976,(-2 6 4 -12 -16 -7 -5 -8)
1969/12/31/18:00:08.985,(-5 -9 -10 -9 -3 -8 -9 -1)
1969/12/31/18:00:08.985,(-13 -19 -2 7 5 10 11 4)
1969/12/31/18:00:09.000,(6 7 0 -1 -2 -4 -6 -4)
1969/12/31/18:00:09.000,(0 -8 -6 -13 -11 -4 1 7)
1969/12/31/18:00:09.001,(-3 0 2 -5 -11 -5 2 -6)
1969/12/31/18:00:09.001,(7 5 3 9 6 9 8 8)
1969/12/31/18:00:09.022,(14 16 9 19 33 18 8 7)
1969/12/31/18:00:09.022,(-2 2 6 8 4 5 3 0)
1969/12/31/18:00:09.024,(-2 4 1 -8 -27 -12 -9 -10)
1969/12/31/18:00:09.024,(-1 -11 -8 -22 -17 -18 -5 0)
1969/12/31/18:00:09.036,(-13 -13 -7 -10 0 5 1 -5)
1969/12/31/18:00:09.036,(-5 -1 -4 0 27 14 8 7)
1969/12/31/18:00:09.045,(3 6 13 36 25 11 -3 -8)
1969/12/31/18:00:09.045,(-3 -9 4 9 -4 1 7 9)
1969/12/31/18:00:09.060,(12 11 -1 -34 -26 -19 -17 -10)
1969/12/31/18:00:09.060,(-6 4 -9 -6 -14 -9 -4 -7)
1969/12/31/18:00:09.062,(6 0 7 7 13 10 9 9)
1969/12/31/18:00:09.062,(6 -1 -20 -46 -17 -5 5 15)
1969/12/31/18:00:09.082,(-6 -8 -10 -29 -48 -26 -1 3)
1969/12/31/18:00:09.082,(-1 -3 14 53 7 3 -2 0)
1969/12/31/18:00:09.084,(-12 -4 3 15 42 26 7 -4)
1969/12/31/18:00:09.084,(4 11 15 48 61 27 6 -4)
1969/12/31/18:00:09.096,(6 1 -3 -11 15 16 9 8)
1969/12/31/18:00:09.096,(-3 -7 -10 -35 -23 -11 -6 -3)
1969/12/31/18:00:09.105,(-10 -17 7 43 -2 -10 -3 -6)
1969/12/31/18:00:09.105,(16 28 10 7 -2 -9 -7 -2)
1969/12/31/18:00:09.120,(-4 -6 -6 -2 -11 -10 -5 -5)
1969/12/31/18:00:09.120,(-10 -14 -10 -25 -15 -9 -2 1)
1969/12/31/18:00:09.121,(20 12 -8 -33 -12 -6 -2 12)
1969/12/31/18:00:09.121,(-6 -6 -4 -3 -15 -8 -12 -6)
1969/12/31/18:00:09.142,(6 -1 -6 0 -2 -5 -1 -1)
1969/12/31/18:00:09.142,(0 4 8 3 3 5 2 -4)
1969/12/31/18:00:09.144,(-7 -7 -11 -12 -14 -6 -7 -4)
1969/12/31/18:00:09.144,(-5 -6 -5 -16 10 2 6 -2)
1969/12/31/18:00:09.156,(15 13 6 15 -10 0 6 13)
1969/12/31/18:00:09.156,(11 4 4 16 4 -8 -1 8)
1969/12/31/18:00:09.165,(-7 -1 11 46 34 14 1 -7)
1969/12/31/18:00:09.165,(-8 -1 10 21 18 14 2 -9)
1969/12/31/18:00:09.179,(-10 -7 6 31 43 21 9 2)
1969/12/31/18:00:09.179,(5 -1 -8 -32 -40 -25 -8 -1)
1969/12/31/18:00:09.186,(-4 -1 -12 -40 -29 -13 -5 -2)
1969/12/31/18:00:09.186,(0 -4 0 6 3 5 1 -2)
1969/12/31/18:00:09.202,(1 0 -6 -17 3 3 -5 -4)
1969/12/31/18:00:09.202,(-33 -46 -2 -4 -1 2 2 -9)
1969/12/31/18:00:09.204,(57 71 8 -4 -8 -12 -4 14)
1969/12/31/18:00:09.204,(-6 -2 -2 -9 -20 -20 -23 -28)
1969/12/31/18:00:09.216,(-8 -5 2 3 -3 -2 -1 -6)
1969/12/31/18:00:09.216,(9 7 -2 1 9 6 0 2)
1969/12/31/18:00:09.232,(-21 -31 -23 -94 -24 -9 -2 -3)
1969/12/31/18:00:09.232,(9 7 5 51 -14 2 10 13)
1969/12/31/18:00:09.247,(10 13 8 18 26 11 8 8)
1969/12/31/18:00:09.247,(0 -1 14 58 33 13 1 1)
1969/12/31/18:00:09.248,(-12 -7 8 12 -2 -1 -2 -8)
1969/12/31/18:00:09.248,(10 8 -9 -37 4 -1 3 7)
1969/12/31/18:00:09.262,(-13 -14 -2 1 -28 -12 -7 -7)
1969/12/31/18:00:09.262,(7 5 -2 3 4 8 3 6)
1969/12/31/18:00:09.264,(-1 -4 2 20 43 14 4 2)
1969/12/31/18:00:09.264,(-13 -13 -3 -8 -5 3 -1 -5)
1969/12/31/18:00:09.276,(16 15 7 5 3 4 10 13)
1969/12/31/18:00:09.276,(0 0 -14 -37 -25 -15 -10 -6)
1969/12/31/18:00:09.285,(-2 3 -3 -1 -20 -8 0 -3)
1969/12/31/18:00:09.285,(-26 -27 -1 1 -3 -5 -6 -14)
1969/12/31/18:00:09.299,(38 37 8 -1 12 8 13 30)
1969/12/31/18:00:09.299,(8 10 -5 -9 -14 -8 -8 -4)
1969/12/31/18:00:09.306,(-13 -15 3 10 1 2 2 -4)
1969/12/31/18:00:09.306,(0 3 3 10 12 2 4 7)
1969/12/31/18:00:09.330,(-15 -15 -19 -73 -26 -6 -3 -10)
1969/12/31/18:00:09.330,(-5 -2 6 54 15 2 0 -2)
1969/12/31/18:00:09.331,(0 0 13 36 17 2 -2 1)
1969/12/31/18:00:09.331,(7 0 8 13 5 2 1 4)
1969/12/31/18:00:09.336,(-3 18 1 -1 -1 -6 -6 -9)
1969/12/31/18:00:09.336,(-12 -20 -17 -44 -10 -2 -9 -15)
1969/12/31/18:00:09.345,(-11 -8 -16 -27 -23 -10 -3 -2)
1969/12/31/18:00:09.345,(23 14 4 0 -5 3 8 9)
1969/12/31/18:00:09.359,(-27 -23 -4 15 6 -8 -18 -25)
1969/12/31/18:00:09.359,(6 -2 0 -2 9 10 16 23)
1969/12/31/18:00:09.366,(14 -4 2 0 -6 -2 0 9)
1969/12/31/18:00:09.366,(-27 -19 -1 -3 -2 -1 -7 -10)
1969/12/31/18:00:09.382,(34 23 5 13 10 12 15 18)
1969/12/31/18:00:09.382,(5 11 1 -3 3 -1 -2 1)
1969/12/31/18:00:09.384,(-27 -29 -12 -12 -9 -3 3 0)
1969/12/31/18:00:09.384,(-3 -6 -7 -20 -11 -6 -8 -10)
1969/12/31/18:00:09.405,(-2 -3 4 19 5 2 4 4)
1969/12/31/18:00:09.405,(20 18 5 11 3 -3 -6 4)
1969/12/31/18:00:09.406,(-27 -29 -8 -9 2 3 0 -9)
1969/12/31/18:00:09.406,(-12 1 -9 -18 -12 -6 -7 -13)
1969/12/31/18:00:09.419,(-10 10 4 14 8 -1 -4 -2)
1969/12/31/18:00:09.419,(18 10 -2 -24 -10 -1 5 6)
1969/12/31/18:00:09.426,(-78 -88 3 37 7 -5 -11 -28)
1969/12/31/18:00:09.426,(101 105 23 19 16 17 27 46)
1969/12/31/18:00:09.442,(-31 -32 -14 -13 -9 -14 -29 -27)
1969/12/31/18:00:09.442,(23 26 -3 -29 -5 1 5 2)
1969/12/31/18:00:09.444,(-1 -3 -7 -4 -8 -5 -11 -18)
1969/12/31/18:00:09.444,(-10 -14 3 12 -3 -2 7 9)
1969/12/31/18:00:09.456,(-42 -20 -1 3 -2 -13 -25 -30)
1969/12/31/18:00:09.456,(-10 -17 -8 -51 -14 1 1 0)
1969/12/31/18:00:09.465,(43 46 -9 -33 -3 7 15 28)
1969/12/31/18:00:09.465,(8 -6 -20 -25 -13 -3 0 -3)
1969/12/31/18:00:09.479,(13 10 31 78 10 4 9 13)
1969/12/31/18:00:09.479,(-18 1 22 66 42 5 -4 -10)
1969/12/31/18:00:09.486,(-9 -28 2 -2 3 3 2 -1)
1969/12/31/18:00:09.486,(-3 14 1 6 7 7 6 8)
1969/12/31/18:00:09.502,(-3 -8 -19 -48 -20 -7 3 6)
1969/12/31/18:00:09.502,(27 33 8 -6 -9 -3 -6 -5)
1969/12/31/18:00:09.504,(-15 -33 -3 0 -3 -7 -12 -13)
1969/12/31/18:00:09.504,(3 -16 -8 -13 -7 -1 8 17)
1969/12/31/18:00:09.525,(42 58 8 -14 -2 2 5 15)
1969/12/31/18:00:09.525,(-16 -8 -6 8 -7 -8 -5 -7)
1969/12/31/18:00:09.526,(47 55 -1 -35 -13 4 9 20)
1969/12/31/18:00:09.526,(-34 -31 -1 3 5 -3 -10 -17)
1969/12/31/18:00:09.538,(-7 -14 6 14 3 6 2 -4)
1969/12/31/18:00:09.538,(-8 -7 8 50 30 6 3 1)
1969/12/31/18:00:09.547,(36 47 4 -19 -4 2 9 19)
1969/12/31/18:00:09.547,(-31 -34 -9 -9 -12 -5 -5 -10)
1969/12/31/18:00:09.562,(-28 -28 1 32 9 5 3 -10)
1969/12/31/18:00:09.562,(25 12 -1 -6 5 10 6 15)
1969/12/31/18:00:09.564,(2 19 9 35 19 5 5 -2)
1969/12/31/18:00:09.564,(-11 -9 -4 -21 -11 -11 -14 -17)
1969/12/31/18:00:09.585,(-1 -13 -14 -29 -11 -4 0 -1)
1969/12/31/18:00:09.585,(-19 -18 -12 -26 -22 -8 -3 -5)
1969/12/31/18:00:09.586,(2 1 6 19 10 9 14 14)
1969/12/31/18:00:09.586,(12 10 4 7 -2 -3 -6 0)
1969/12/31/18:00:09.598,(-2 -7 -9 -37 -21 -4 -1 -5)
1969/12/31/18:00:09.598,(-9 -17 -10 7 3 -1 2 4)
1969/12/31/18:00:09.607,(-18 -22 11 45 18 -2 -6 -10)
1969/12/31/18:00:09.607,(11 22 8 30 14 2 0 2)
1969/12/31/18:00:09.622,(13 8 6 5 8 3 -1 -1)
1969/12/31/18:00:09.622,(-5 -2 -14 -41 -15 0 -1 -1)
1969/12/31/18:00:09.624,(9 8 -2 1 -12 -4 -2 0)
1969/12/31/18:00:09.624,(-5 -10 -2 -8 1 -7 -7 -3)
1969/12/31/18:00:09.645,(-9 -5 -2 -1 3 4 1 -2)
1969/12/31/18:00:09.645,(-5 -8 -8 -4 2 1 1 1)
1969/12/31/18:00:09.646,(29 31 11 2 7 12 10 11)
1969/12/31/18:00:09.646,(-11 -5 7 19 2 -2 -7 -9)
1969/12/31/18:00:09.658,(-26 -46 -9 -2 2 -6 -7 -8)
1969/12/31/18:00:09.658,(33 57 9 -5 -7 3 16 25)
1969/12/31/18:00:09.667,(-9 -7 -13 -8 -8 -11 -21 -25)
1969/12/31/18:00:09.667,(-9 -11 -5 -10 -3 4 7 5)
1969/12/31/18:00:09.682,(15 4 4 4 6 4 2 4)
1969/12/31/18:00:09.682,(-20 -16 -5 -6 -15 -14 -17 -16)
1969/12/31/18:00:09.684,(16 11 9 6 10 10 15 23)
1969/12/31/18:00:09.684,(5 -2 -4 0 2 -3 -2 2)
1969/12/31/18:00:09.705,(-2 10 -5 0 -2 2 2 2)
1969/12/31/18:00:09.705,(-16 -22 1 8 0 -1 -3 -7)
1969/12/31/18:00:09.706,(12 17 0 -6 -1 -6 -2 6)
1969/12/31/18:00:09.706,(-27 -21 -1 -9 -6 1 -5 -18)
1969/12/31/18:00:09.718,(32 49 6 17 14 8 9 17)
1969/12/31/18:00:09.718,(-4 -1 8 5 2 -1 -6 -3)
1969/12/31/18:00:09.727,(-36 -30 -7 -8 -6 -4 -4 -21)
1969/12/31/18:00:09.727,(-5 -4 -11 -5 -8 -11 -8 -3)
1969/12/31/18:00:09.742,(-3 -16 6 3 0 -1 -5 -13)
1969/12/31/18:00:09.742,(5 2 -2 -6 0 2 4 3)
1969/12/31/18:00:09.744,(-5 -5 -5 -5 -7 -5 -4 2)
1969/12/31/18:00:09.744,(-18 -25 0 3 16 7 8 -1)
1969/12/31/18:00:09.764,(10 -1 -5 -6 -11 -1 8 20)
1969/12/31/18:00:09.764,(20 11 1 -1 1 -4 -3 -5)
1969/12/31/18:00:09.765,(-3 -7 -9 -19 -12 -7 -11 -8)
1969/12/31/18:00:09.765,(19 24 8 17 -3 -3 1 6)
1969/12/31/18:00:09.786,(-7 -14 15 28 23 14 13 5)
1969/12/31/18:00:09.786,(-16 -15 3 16 9 2 0 -6)
1969/12/31/18:00:09.787,(-2 2 -8 -17 -11 -10 -6 0)
1969/12/31/18:00:09.787,(18 6 -13 -26 -9 1 1 3)
1969/12/31/18:00:09.801,(-30 -24 -11 -7 -12 -12 -15 -20)
1969/12/31/18:00:09.802,(44 47 6 4 4 5 6 13)
1969/12/31/18:00:09.802,(1 6 2 1 6 3 -1 -5)
1969/12/31/18:00:09.802,(-50 -41 -11 -9 -15 -15 -12 -13)
1969/12/31/18:00:09.824,(38 35 10 6 11 8 10 11)
1969/12/31/18:00:09.824,(-13 -19 -7 -39 -23 -6 -6 -11)
1969/12/31/18:00:09.825,(16 16 -1 27 12 1 5 9)
1969/12/31/18:00:09.825,(1 -13 12 28 16 7 0 -1)
1969/12/31/18:00:09.847,(-9 2 -9 -18 -10 -11 -4 -2)
1969/12/31/18:00:09.847,(-1 4 0 6 2 0 0 -2)
1969/12/31/18:00:09.847,(-8 -10 0 0 -10 -3 -3 -8)
1969/12/31/18:00:09.847,(4 22 4 -2 -4 -2 0 0)
1969/12/31/18:00:09.862,(-21 -17 -3 0 2 0 -3 -11)
1969/12/31/18:00:09.862,(-7 -16 -6 -7 -3 -1 2 3)
1969/12/31/18:00:09.862,(3 5 2 -2 -1 -1 -1 0)
1969/12/31/18:00:09.862,(4 9 1 3 3 3 -2 -6)
1969/12/31/18:00:09.884,(-7 -3 -6 -17 -8 -4 -7 -6)
1969/12/31/18:00:09.884,(-7 -2 8 19 12 8 7 -5)
1969/12/31/18:00:09.885,(-6 -9 -1 -8 12 6 3 2)
1969/12/31/18:00:09.885,(-15 -19 3 5 -14 -2 6 6)
1969/12/31/18:00:09.906,(50 42 5 -2 8 7 6 14)
1969/12/31/18:00:09.906,(-26 -28 -4 9 0 -2 -7 -12)
1969/12/31/18:00:09.907,(0 7 0 14 8 -1 1 -1)
1969/12/31/18:00:09.907,(0 1 -2 -35 -16 2 1 -1)
1969/12/31/18:00:09.921,(-22 -23 -6 21 7 -9 -8 -7)
1969/12/31/18:00:09.921,(31 26 13 3 7 14 25 38)
1969/12/31/18:00:09.922,(-5 -6 -13 -28 -19 -9 -16 -17)
1969/12/31/18:00:09.922,(7 -1 -3 7 4 2 4 5)
1969/12/31/18:00:09.944,(-7 1 1 5 -7 -3 -1 -2)
1969/12/31/18:00:09.944,(-8 -21 0 2 -1 -9 -13 -10)
1969/12/31/18:00:09.945,(26 30 1 -4 0 9 16 19)
1969/12/31/18:00:09.945,(-1 -14 0 5 9 4 0 -3)
1969/12/31/18:00:09.966,(-8 5 -7 -16 -12 -11 -11 -6)
1969/12/31/18:00:09.966,(-15 -28 -7 1 -5 -4 -4 -13)
1969/12/31/18:00:09.967,(-5 -5 -1 0 -1 -1 1 4)
1969/12/31/18:00:09.967,(17 8 1 2 4 -3 -4 0)
1969/12/31/18:00:09.981,(-20 -12 2 2 4 7 1 -13)
1969/12/31/18:00:09.981,(-4 5 -5 -2 -1 -5 -6 -7)
1969/12/31/18:00:09.982,(-32 -59 -3 -3 -7 -4 -3 -2)
1969/12/31/18:00:09.982,(47 77 8 4 1 -1 -2 6)
1969/12/31/18:00:10.004,(-30 -29 5 9 12 13 11 -7)
1969/12/31/18:00:10.004,(-14 -13 -3 -2 0 -1 -1 -4)
1969/12/31/18:00:10.005,(8 10 1 -6 -5 -3 -4 -3)
1969/12/31/18:00:10.005,(-19 -18 -1 2 -5 -3 -2 0)
1969/12/31/18:00:10.027,(13 4 -2 -7 2 1 2 1)
1969/12/31/18:00:10.027,(8 20 -3 7 -2 1 1 5)
1969/12/31/18:00:10.027,(-9 -7 9 13 7 8 9 1)
1969/12/31/18:00:10.027,(-27 -32 -9 -4 -1 -6 -11 -18)
1969/12/31/18:00:10.041,(4 -2 -8 -11 -10 -8 -5 1)
1969/12/31/18:00:10.041,(3 9 -5 -13 -3 0 2 3)
1969/12/31/18:00:10.042,(34 52 9 13 5 2 1 0)
1969/12/31/18:00:10.042,(39 37 18 10 14 26 31 37)
1969/12/31/18:00:10.064,(-1 -12 -5 -15 -10 -7 -7 -2)
1969/12/31/18:00:10.064,(-17 -14 -3 -7 5 -3 -7 -9)
1969/12/31/18:00:10.065,(-5 -1 -2 6 -9 -4 -3 -1)
1969/12/31/18:00:10.065,(20 10 -1 0 4 1 6 9)
1969/12/31/18:00:10.078,(0 4 -6 -22 -6 -7 -4 -2)
1969/12/31/18:00:10.078,(2 -5 -8 -25 -18 -1 3 4)
1969/12/31/18:00:10.087,(9 13 15 38 22 7 3 3)
1969/12/31/18:00:10.087,(2 5 5 30 19 -5 -6 -4)
1969/12/31/18:00:10.102,(-30 -8 8 17 2 1 -6 -17)
1969/12/31/18:00:10.102,(8 26 8 -7 -4 -1 -4 -5)
1969/12/31/18:00:10.102,(-18 -28 -9 -25 -8 4 8 -3)
1969/12/31/18:00:10.102,(-10 -8 -12 -13 -15 -9 -10 -10)
1969/12/31/18:00:10.124,(16 4 -4 -7 -4 -3 2 12)
1969/12/31/18:00:10.124,(-4 3 5 11 1 -1 1 1)
1969/12/31/18:00:10.132,(-11 -1 -3 -4 -7 -10 -9 -8)
1969/12/31/18:00:10.132,(13 13 1 -5 2 6 6 8)
1969/12/31/18:00:10.138,(2 -4 1 3 3 6 6 9)
1969/12/31/18:00:10.138,(0 -6 1 16 11 -2 -1 -1)
1969/12/31/18:00:10.147,(0 3 -3 -2 -16 -9 -9 -1)
1969/12/31/18:00:10.147,(-20 -18 0 -2 6 8 4 -10)
1969/12/31/18:00:10.161,(10 3 -5 -4 1 2 -1 3)
1969/12/31/18:00:10.162,(-2 -4 -5 -29 -25 -4 -3 -2)
1969/12/31/18:00:10.162,(-3 2 -11 2 12 -11 -10 -2)
1969/12/31/18:00:10.162,(-24 -17 8 9 5 4 -3 -21)
1969/12/31/18:00:10.184,(14 24 9 31 16 7 10 14)
1969/12/31/18:00:10.184,(-29 -4 6 10 6 2 -5 -11)
1969/12/31/18:00:10.185,(-14 -24 -6 -13 -8 3 1 -11)
1969/12/31/18:00:10.185,(9 4 -15 -24 -17 -10 -7 0)
1969/12/31/18:00:10.198,(-4 -11 -8 -3 -5 -9 -7 -9)
1969/12/31/18:00:10.198,(-4 -9 1 4 -2 -2 -3 0)
1969/12/31/18:00:10.207,(4 5 -2 -4 2 1 2 6)
1969/12/31/18:00:10.207,(4 7 0 5 4 -2 -2 2)
1969/12/31/18:00:10.221,(-11 -14 -7 -23 -16 -5 -3 -8)
1969/12/31/18:00:10.221,(15 9 -1 15 5 -4 1 7)
1969/12/31/18:00:10.222,(7 9 5 9 8 2 -2 -1)
1969/12/31/18:00:10.222,(-11 -29 3 9 4 -1 -1 3)
1969/12/31/18:00:10.244,(34 42 6 2 4 15 24 27)
1969/12/31/18:00:10.244,(-16 -19 -8 -6 -1 -1 -6 -16)
1969/12/31/18:00:10.245,(8 3 -2 -9 -6 -4 -5 1)
1969/12/31/18:00:10.245,(-25 -21 1 -5 -11 -12 -10 -12)
1969/12/31/18:00:10.258,(32 20 -1 -8 -4 -3 4 18)
1969/12/31/18:00:10.258,(11 3 -4 6 7 2 1 3)
1969/12/31/18:00:10.274,(4 6 6 3 8 4 3 0)
1969/12/31/18:00:10.274,(3 6 -7 -20 -28 -8 -4 2)
1969/12/31/18:00:10.282,(-11 -14 0 9 3 -9 -10 -10)
1969/12/31/18:00:10.282,(4 6 7 15 14 2 1 0)
1969/12/31/18:00:10.282,(-29 -53 -10 -5 2 2 2 1)
1969/12/31/18:00:10.282,(78 95 17 4 11 15 20 33)
1969/12/31/18:00:10.304,(-19 -23 -10 -8 -18 -11 -17 -19)
1969/12/31/18:00:10.304,(-13 -12 -6 -26 -19 -7 -9 -9)
1969/12/31/18:00:10.305,(-20 -17 -10 7 9 -9 -14 -19)
1969/12/31/18:00:10.305,(23 15 6 20 8 10 17 29)
1969/12/31/18:00:10.318,(-15 8 15 28 17 7 1 -13)
1969/12/31/18:00:10.318,(3 -12 6 10 11 10 14 14)
1969/12/31/18:00:10.326,(2 5 -9 -20 -16 -6 -8 -5)
1969/12/31/18:00:10.326,(-10 -11 -18 -53 -19 -12 -10 -7)
1969/12/31/18:00:10.341,(-2 -8 1 13 -23 -9 -8 -3)
1969/12/31/18:00:10.341,(8 4 5 14 12 10 12 12)
1969/12/31/18:00:10.342,(9 18 9 11 16 11 3 2)
1969/12/31/18:00:10.342,(-21 -22 -1 20 18 4 -1 -11)
1969/12/31/18:00:10.364,(-6 -15 -2 -9 1 0 -1 3)
1969/12/31/18:00:10.364,(12 29 -3 -12 -21 -9 -6 -1)
1969/12/31/18:00:10.365,(8 12 -1 -3 -5 -4 -2 6)
1969/12/31/18:00:10.365,(-9 1 -4 -6 -5 -6 -11 -21)
1969/12/31/18:00:10.378,(2 3 -4 -6 2 -3 -3 -3)
1969/12/31/18:00:10.378,(2 2 2 7 1 -3 -2 -3)
1969/12/31/18:00:10.387,(22 19 3 -5 -8 2 10 17)
1969/12/31/18:00:10.387,(-29 -24 -4 -8 -10 -4 -7 -14)
1969/12/31/18:00:10.402,(4 -7 -3 5 7 -2 -4 5)
1969/12/31/18:00:10.402,(-7 0 3 11 13 7 0 -12)
1969/12/31/18:00:10.402,(-3 -3 0 -8 -7 2 1 3)
1969/12/31/18:00:10.402,(-2 -6 -8 -39 -31 -24 -8 -4)
1969/12/31/18:00:10.424,(-2 -5 -7 -5 -30 -12 -4 -2)
1969/12/31/18:00:10.424,(4 1 12 55 46 17 6 6)
1969/12/31/18:00:10.425,(-2 4 17 51 62 33 8 -4)
1969/12/31/18:00:10.425,(1 1 3 11 27 21 8 3)
1969/12/31/18:00:10.447,(3 4 -2 -28 -10 -4 -1 2)
1969/12/31/18:00:10.447,(-3 -8 -11 -29 -38 -21 -6 -1)
1969/12/31/18:00:10.448,(0 1 -2 -6 -26 -14 -2 -4)
1969/12/31/18:00:10.448,(-5 -7 -2 6 3 -4 -4 -3)
1969/12/31/18:00:10.462,(-7 -5 -2 -9 3 -1 1 -2)
1969/12/31/18:00:10.462,(1 -5 -4 -10 -5 -3 -1 2)
1969/12/31/18:00:10.462,(-2 -2 -2 -8 -9 -7 -4 -5)
1969/12/31/18:00:10.462,(-4 -8 -3 2 -4 2 1 3)
1969/12/31/18:00:10.484,(-4 -3 -2 4 9 7 0 -3)
1969/12/31/18:00:10.484,(-12 -14 -6 0 0 -2 -8 -12)
1969/12/31/18:00:10.485,(16 16 9 -7 -9 -4 2 8)
1969/12/31/18:00:10.485,(-20 3 -6 4 -4 -11 -16 -27)
1969/12/31/18:00:10.507,(-9 -11 -3 8 7 -4 -7 -4)
1969/12/31/18:00:10.507,(15 9 4 -8 -1 6 5 7)
1969/12/31/18:00:10.508,(1 -5 -7 -10 -11 -6 -3 -1)
1969/12/31/18:00:10.508,(0 -6 5 14 8 7 10 12)
1969/12/31/18:00:10.522,(0 2 5 4 8 5 0 0)
1969/12/31/18:00:10.522,(1 -2 -9 -14 -9 -7 -1 3)
1969/12/31/18:00:10.522,(-7 -5 -1 -8 -8 -3 -3 -6)
1969/12/31/18:00:10.522,(4 2 5 22 12 3 0 3)
1969/12/31/18:00:10.544,(6 7 4 -3 3 7 9 6)
1969/12/31/18:00:10.545,(1 -2 -6 -2 -5 -4 0 6)
1969/12/31/18:00:10.552,(-7 3 9 9 10 12 11 0)
1969/12/31/18:00:10.552,(-6 -6 -4 -5 -5 -4 -4 -7)
1969/12/31/18:00:10.567,(2 -4 -3 -1 2 -1 -1 0)
1969/12/31/18:00:10.567,(-34 -35 -2 -5 -4 -5 -11 -18)
1969/12/31/18:00:10.568,(38 31 -2 -1 -3 -3 1 9)
1969/12/31/18:00:10.568,(-9 4 3 3 3 6 2 0)
1969/12/31/18:00:10.582,(-2 1 0 0 1 -1 -1 2)
1969/12/31/18:00:10.582,(4 -7 -4 -6 0 0 -6 -3)
1969/12/31/18:00:10.582,(3 -2 -2 -1 1 3 5 6)
1969/12/31/18:00:10.582,(5 -1 4 2 0 -2 -1 6)
1969/12/31/18:00:10.604,(-3 -5 -2 -1 -1 -2 -3 -4)
1969/12/31/18:00:10.604,(-3 8 2 -4 -1 3 5 1)
1969/12/31/18:00:10.605,(-10 -9 -6 -5 -9 -7 -8 -6)
1969/12/31/18:00:10.605,(8 1 -8 -10 -3 -1 1 1)
1969/12/31/18:00:10.627,(-2 0 4 -7 5 5 6 7)
1969/12/31/18:00:10.627,(2 -7 0 22 0 -4 -2 3)
1969/12/31/18:00:10.628,(-10 8 8 18 2 2 0 -12)
1969/12/31/18:00:10.628,(5 -2 -1 -17 -6 -2 2 5)
1969/12/31/18:00:10.642,(1 5 3 11 7 5 3 2)
1969/12/31/18:00:10.642,(-2 1 -4 -12 0 -2 -3 -3)
1969/12/31/18:00:10.642,(-2 -4 -5 -12 -7 -7 -5 0)
1969/12/31/18:00:10.642,(0 -5 -12 -21 -4 0 3 2)
1969/12/31/18:00:10.664,(6 2 -1 0 -13 4 8 4)
1969/12/31/18:00:10.664,(9 17 12 25 17 1 1 1)
1969/12/31/18:00:10.665,(-14 -12 2 5 2 -2 -6 -6)
1969/12/31/18:00:10.665,(2 4 9 16 5 7 4 0)
1969/12/31/18:00:10.687,(-1 -1 1 6 13 3 -1 -4)
1969/12/31/18:00:10.687,(10 4 -10 -34 -24 -13 -2 7)
1969/12/31/18:00:10.688,(-11 -9 -2 3 -20 -18 -14 -10)
1969/12/31/18:00:10.688,(-1 -7 -26 -22 18 1 -2 1)
1969/12/31/18:00:10.702,(-9 -11 3 20 -4 4 -5 -7)
1969/12/31/18:00:10.702,(-4 9 10 31 19 16 8 0)
1969/12/31/18:00:10.702,(6 1 -2 -14 7 9 7 7)
1969/12/31/18:00:10.702,(-1 -1 -6 -19 -25 -16 -6 -1)
1969/12/31/18:00:10.724,(-2 -1 4 -11 -11 2 3 -2)
1969/12/31/18:00:10.724,(7 12 9 17 20 2 -3 1)
1969/12/31/18:00:10.725,(4 2 28 14 1 -1 3 2)
1969/12/31/18:00:10.725,(1 7 23 28 2 3 1 -1)
1969/12/31/18:00:10.747,(0 -16 -69 -44 -7 -13 -9 -1)
1969/12/31/18:00:10.747,(-14 -23 -20 -45 -38 -20 -10 -10)
1969/12/31/18:00:10.748,(-10 -5 -1 -19 -5 -7 -6 -7)
1969/12/31/18:00:10.748,(6 4 9 32 15 16 9 4)
1969/12/31/18:00:10.762,(0 6 21 11 15 5 2 -1)
1969/12/31/18:00:10.762,(-2 3 5 -12 -19 -7 -3 -4)
1969/12/31/18:00:10.762,(3 3 -1 26 4 2 2 1)
1969/12/31/18:00:10.762,(4 -2 0 20 20 -1 -2 2)
1969/12/31/18:00:10.784,(-1 7 20 21 19 17 7 0)
1969/12/31/18:00:10.784,(8 0 -30 -15 12 8 4 5)
1969/12/31/18:00:10.785,(-8 -16 -1 -34 -28 -12 -6 -3)
1969/12/31/18:00:10.785,(0 5 -1 -6 -20 -7 -4 -2)
1969/12/31/18:00:10.807,(5 2 10 -10 -4 -6 -1 0)
1969/12/31/18:00:10.807,(-2 3 -1 -1 8 5 2 -3)
1969/12/31/18:00:10.808,(3 -1 -14 6 -1 1 -1 3)
1969/12/31/18:00:10.808,(-3 -5 -1 12 10 2 1 0)
1969/12/31/18:00:10.822,(-2 3 7 16 9 -8 -5 -1)
1969/12/31/18:00:10.822,(1 7 26 1 0 0 -1 -1)
1969/12/31/18:00:10.822,(4 6 0 -7 4 9 5 1)
1969/12/31/18:00:10.822,(0 -8 -22 -4 -5 -3 0 2)
1969/12/31/18:00:10.844,(-12 -5 7 -28 -20 -7 -5 -8)
1969/12/31/18:00:10.844,(1 -4 -20 6 -12 -5 1 4)
1969/12/31/18:00:10.845,(-6 -13 -10 0 15 3 1 0)
1969/12/31/18:00:10.845,(3 14 33 -1 2 7 3 0)
1969/12/31/18:00:10.867,(9 7 -15 8 -6 -2 1 5)
1969/12/31/18:00:10.867,(5 -5 -18 -27 -8 -6 -2 4)
1969/12/31/18:00:10.868,(-6 -3 1 2 -2 0 -1 -4)
1969/12/31/18:00:10.868,(-4 -7 0 3 -2 -8 -6 -3)
1969/12/31/18:00:10.882,(-5 -3 2 7 0 -4 -6 -6)
1969/12/31/18:00:10.882,(4 10 20 3 4 4 2 3)
1969/12/31/18:00:10.882,(2 1 -16 -49 -32 -10 -3 3)
1969/12/31/18:00:10.882,(-4 -10 -3 58 31 6 0 -2)
1969/12/31/18:00:10.904,(-5 -1 14 15 29 10 1 -1)
1969/12/31/18:00:10.904,(-3 -1 -1 7 0 3 2 -4)
1969/12/31/18:00:10.905,(-5 -7 -13 -8 0 3 1 -4)
1969/12/31/18:00:10.905,(7 8 -3 -40 -33 -9 -1 3)
1969/12/31/18:00:10.927,(4 -2 -16 2 3 -3 1 3)
1969/12/31/18:00:10.927,(-3 -2 15 5 8 3 2 -3)
1969/12/31/18:00:10.928,(4 8 7 -5 -15 -6 -1 1)
1969/12/31/18:00:10.928,(-6 -6 0 -4 3 -2 -5 -5)
1969/12/31/18:00:10.942,(-9 -9 7 9 -6 -2 -4 -6)
1969/12/31/18:00:10.942,(-2 2 0 -4 -1 0 0 -2)
1969/12/31/18:00:10.942,(9 10 -8 -14 5 3 5 6)
1969/12/31/18:00:10.942,(6 2 4 32 10 11 8 9)
1969/12/31/18:00:10.964,(-10 -3 -3 -33 -28 -20 -14 -9)
1969/12/31/18:00:10.964,(1 -2 10 27 1 5 4 3)
1969/12/31/18:00:10.965,(-4 -2 3 6 16 -4 -4 -3)
1969/12/31/18:00:10.965,(4 4 -18 -32 -7 9 5 2)
1969/12/31/18:00:10.987,(5 -1 9 33 23 -2 -3 0)
1969/12/31/18:00:10.987,(-11 -10 -12 -45 -29 -13 -8 -9)
1969/12/31/18:00:10.988,(1 -4 -22 -60 -41 -13 -5 -4)
1969/12/31/18:00:10.988,(-5 0 32 79 37 12 4 -3)
1969/12/31/18:00:11.002,(-1 2 -6 10 7 5 1 0)
1969/12/31/18:00:11.002,(15 9 6 25 23 11 11 13)
1969/12/31/18:00:11.002,(-5 -7 -21 -48 -16 -2 1 0)
1969/12/31/18:00:11.002,(7 6 7 26 15 0 3 6)
1969/12/31/18:00:11.024,(-13 -10 10 -7 -15 -11 -9 -11)
1969/12/31/18:00:11.024,(-2 4 6 6 8 -1 -3 -4)
1969/12/31/18:00:11.025,(4 4 -3 0 -2 0 -1 1)
1969/12/31/18:00:11.025,(-4 -3 -9 -35 -24 -9 -4 -4)
1969/12/31/18:00:11.047,(13 9 -14 -8 2 10 9 10)
1969/12/31/18:00:11.047,(0 1 9 -15 -4 -2 -3 -1)
1969/12/31/18:00:11.048,(-3 -6 11 57 22 4 0 -3)
1969/12/31/18:00:11.048,(-11 -7 -4 -21 -20 -10 -11 -9)
1969/12/31/18:00:11.061,(4 4 -3 -8 5 4 6 3)
1969/12/31/18:00:11.061,(0 -1 -10 -12 -16 -1 -1 -4)
1969/12/31/18:00:11.069,(-11 0 29 41 22 4 -8 -10)
1969/12/31/18:00:11.069,(0 -6 -20 -22 -3 -4 -1 2)
1969/12/31/18:00:11.084,(11 0 -14 -18 -7 11 15 13)
1969/12/31/18:00:11.084,(3 2 -7 2 1 0 1 2)
1969/12/31/18:00:11.085,(2 2 6 18 15 3 0 1)
1969/12/31/18:00:11.085,(-8 -1 4 -14 -13 -11 -8 -9)
1969/12/31/18:00:11.107,(1 3 1 -9 -10 -3 -2 -2)
1969/12/31/18:00:11.107,(-3 -6 -8 4 -2 -3 0 -1)
1969/12/31/18:00:11.108,(-3 0 6 20 13 4 1 1)
1969/12/31/18:00:11.108,(-4 -1 0 -14 -3 -3 -4 -5)
1969/12/31/18:00:11.121,(1 0 0 4 -6 0 1 2)
1969/12/31/18:00:11.121,(-2 1 3 11 15 4 -2 -2)
1969/12/31/18:00:11.129,(-3 -2 -7 -12 -6 -4 -5 -3)
1969/12/31/18:00:11.129,(-1 -3 -9 -28 -12 -3 0 -1)
1969/12/31/18:00:11.144,(-2 -4 6 5 -1 1 0 0)
1969/12/31/18:00:11.144,(1 2 11 43 16 1 -1 -1)
1969/12/31/18:00:11.145,(5 0 -9 -5 4 3 2 3)
1969/12/31/18:00:11.145,(-4 -5 -2 2 1 -2 -1 0)
1969/12/31/18:00:11.167,(2 4 -1 -32 -15 -6 -3 0)
1969/12/31/18:00:11.167,(0 -2 -10 -23 -20 -5 -4 -2)
1969/12/31/18:00:11.168,(2 2 6 46 25 5 3 2)
1969/12/31/18:00:11.168,(-1 0 -1 -11 -4 2 1 -1)
1969/12/31/18:00:11.181,(-4 -1 0 -4 -4 -4 -4 -2)
1969/12/31/18:00:11.181,(-1 -1 0 7 -4 1 1 -1)
1969/12/31/18:00:11.196,(1 1 0 -5 9 2 3 3)
1969/12/31/18:00:11.196,(1 1 -3 -11 -8 -3 -3 -3)
1969/12/31/18:00:11.203,(1 0 -2 7 4 0 -1 1)
1969/12/31/18:00:11.203,(-3 0 -2 -6 -11 -2 -2 -1)
1969/12/31/18:00:11.212,(0 -3 -3 -8 -2 0 1 0)
1969/12/31/18:00:11.212,(-1 -1 2 7 12 2 -2 -2)
1969/12/31/18:00:11.227,(1 0 0 11 6 3 1 -1)
1969/12/31/18:00:11.227,(0 0 -4 -16 -10 -4 -1 0)
1969/12/31/18:00:11.229,(0 2 2 -3 -8 -2 -1 1)
1969/12/31/18:00:11.229,(-1 3 14 21 12 4 2 3)
1969/12/31/18:00:11.241,(-4 -4 -6 -13 -5 -2 0 -5)
1969/12/31/18:00:11.241,(5 2 8 25 13 8 5 7)
1969/12/31/18:00:11.250,(-6 -3 -2 0 6 -3 -4 -6)
1969/12/31/18:00:11.250,(2 1 -4 -22 -14 -6 -1 -1)
1969/12/31/18:00:11.263,(0 1 7 27 5 0 -2 -1)
1969/12/31/18:00:11.263,(-5 -4 -6 -14 5 -1 -2 -5)
1969/12/31/18:00:11.272,(4 -1 -4 -1 -5 1 3 2)
1969/12/31/18:00:11.272,(3 -1 -4 -2 -3 2 1 2)
1969/12/31/18:00:11.287,(0 -1 -6 -12 -6 -3 -3 -1)
1969/12/31/18:00:11.287,(-2 -2 -1 -4 -3 -4 -2 -3)
1969/12/31/18:00:11.289,(1 3 3 2 -1 -2 2 -1)
1969/12/31/18:00:11.289,(-3 -2 -3 -6 -2 -4 0 -1)
1969/12/31/18:00:11.301,(-1 1 0 -2 -2 -1 -4 -1)
1969/12/31/18:00:11.301,(-2 -2 0 4 5 2 1 1)
1969/12/31/18:00:11.316,(-4 -1 -1 -5 -21 -4 0 -2)
1969/12/31/18:00:11.316,(6 3 -2 -2 16 4 4 3)
1969/12/31/18:00:11.324,(-5 -3 5 9 3 -4 -5 -4)
1969/12/31/18:00:11.324,(-2 3 2 0 5 1 1 -1)
1969/12/31/18:00:11.338,(0 -2 2 1 2 1 0 3)
1969/12/31/18:00:11.338,(-4 -1 0 -3 -8 -3 -1 -3)
1969/12/31/18:00:11.347,(2 -2 -3 1 1 1 2 3)
1969/12/31/18:00:11.347,(3 0 -4 -6 0 -1 -2 -2)
1969/12/31/18:00:11.349,(3 1 0 -1 -2 0 1 2)
1969/12/31/18:00:11.349,(-2 -4 -1 3 -1 -3 -3 -2)
1969/12/31/18:00:11.370,(-1 -2 1 -1 2 -2 2 -3)
1969/12/31/18:00:11.370,(-2 -2 -3 -3 -5 -1 -2 -1)
1969/12/31/18:00:11.377,(1 2 -1 2 3 0 0 0)
1969/12/31/18:00:11.377,(-1 -1 -2 0 -6 -1 -3 -1)
1969/12/31/18:00:11.384,(0 2 -1 -4 -3 1 3 1)
1969/12/31/18:00:11.384,(0 1 -1 -1 2 -1 -1 1)
1969/12/31/18:00:11.391,(-2 0 1 2 1 -1 -2 -3)
1969/12/31/18:00:11.391,(-2 0 0 -1 -2 0 0 0)
1969/12/31/18:00:11.408,(0 -1 -2 -1 -2 -2 -2 -1)
1969/12/31/18:00:11.408,(2 -1 -2 -1 0 1 0 2)
1969/12/31/18:00:11.409,(1 0 0 -1 1 2 0 1)
1969/12/31/18:00:11.409,(0 -1 -2 -2 -4 -1 0 0)
1969/12/31/18:00:11.429,(1 0 -2 -2 -1 0 0 -1)
1969/12/31/18:00:11.429,(-1 -2 -3 -1 0 0 4 -1)
1969/12/31/18:00:11.436,(-2 -2 -3 -1 -1 -4 -1 -3)
1969/12/31/18:00:11.436,(1 2 3 -1 0 1 2 2)
1969/12/31/18:00:11.453,(-3 -2 -2 3 6 3 -2 -3)
1969/12/31/18:00:11.453,(-3 -2 3 -4 -1 0 0 -1)
1969/12/31/18:00:11.458,(-2 -3 -3 -3 -3 -3 -4 -2)
1969/12/31/18:00:11.458,(-1 -2 1 2 2 -1 0 -2)
1969/12/31/18:00:11.467,(0 2 3 -1 -1 -1 1 2)
1969/12/31/18:00:11.467,(0 -1 -5 -1 -2 0 0 1)
1969/12/31/18:00:11.469,(0 -1 0 1 1 1 1 0)
1969/12/31/18:00:11.469,(-2 -3 -4 -1 -2 0 0 0)
1969/12/31/18:00:11.490,(0 0 0 0 -1 0 0 -1)
1969/12/31/18:00:11.490,(-1 0 1 -3 -1 -4 -1 -2)
1969/12/31/18:00:11.491,(2 -1 -2 -2 -1 1 1 1)
1969/12/31/18:00:11.491,(-1 -4 -3 -3 -3 -5 -5 -3)
1969/12/31/18:00:11.503,(-1 -1 1 1 4 2 1 1)
1969/12/31/18:00:11.503,(-1 1 -2 0 -2 0 -1 -2)
1969/12/31/18:00:11.512,(-1 0 0 0 0 -2 -2 1)
1969/12/31/18:00:11.512,(-1 0 1 3 0 0 -1 -1)
1969/12/31/18:00:11.527,(-1 1 1 0 -1 0 -1 0)
1969/12/31/18:00:11.527,(-1 -1 2 -1 -1 -1 2 2)
1969/12/31/18:00:11.529,(-1 0 1 0 0 -2 -2 -4)
1969/12/31/18:00:11.529,(0 0 -4 -2 -1 -1 0 -1)
1969/12/31/18:00:11.550,(-1 -2 -3 -2 -1 -2 -2 -1)
1969/12/31/18:00:11.550,(0 -1 0 3 2 -1 -2 0)
1969/12/31/18:00:11.551,(-1 -1 1 -2 0 3 0 0)
1969/12/31/18:00:11.551,(1 1 1 -1 -3 -1 2 3)
1969/12/31/18:00:11.564,(-1 -1 -3 -3 -5 -1 0 0)
1969/12/31/18:00:11.564,(0 0 -1 0 0 0 -1 -1)
