time,.data
1969/12/31/18:00:17.385,(-1 0 -1 0 0 -2 -1 -1)
1969/12/31/18:00:17.385,(-1 -1 -1 -1 -3 -2 -1 -1)
1969/12/31/18:00:17.401,(-3 -3 -2 -1 0 -1 0 -2)
1969/12/31/18:00:17.401,(-1 0 1 -1 -1 -1 -1 -3)
1969/12/31/18:00:17.402,(0 1 -1 0 -1 -1 1 1)
1969/12/31/18:00:17.402,(-1 0 0 -2 -2 -3 -2 -3)
1969/12/31/18:00:17.406,(-1 -2 -1 0 1 0 -1 -2)
1969/12/31/18:00:17.406,(-1 -2 -3 0 0 1 1 1)
1969/12/31/18:00:17.430,(-2 -3 -1 -1 -1 -2 -1 0)
1969/12/31/18:00:17.430,(2 0 2 2 2 2 3 3)
1969/12/31/18:00:17.436,(-1 0 2 -1 -2 -2 -3 -1)
1969/12/31/18:00:17.436,(-3 -2 -1 -3 -2 -3 -4 -4)
1969/12/31/18:00:17.445,(3 1 -1 -1 3 2 1 -1)
1969/12/31/18:00:17.445,(-2 1 0 -3 0 -1 -2 -1)
1969/12/31/18:00:17.447,(-5 -5 -2 -3 -6 -3 -2 -4)
1969/12/31/18:00:17.447,(3 -1 -2 3 5 4 1 2)
1969/12/31/18:00:17.459,(-4 -3 -1 1 -2 2 2 2)
1969/12/31/18:00:17.459,(-3 -1 -2 -2 0 -1 -2 0)
1969/12/31/18:00:17.483,(-2 -1 1 -2 -4 -2 -1 -1)
1969/12/31/18:00:17.483,(0 0 0 1 -1 0 0 0)
1969/12/31/18:00:17.484,(8 9 -1 -8 -15 1 4 4)
1969/12/31/18:00:17.484,(4 -1 -4 14 23 5 1 2)
1969/12/31/18:00:17.485,(-12 -10 3 -15 -17 -7 -6 -6)
1969/12/31/18:00:17.485,(-9 -6 -9 -9 3 -5 -3 -6)
1969/12/31/18:00:17.505,(11 4 12 -4 1 5 10 9)
1969/12/31/18:00:17.505,(-3 1 -6 18 -7 -10 -8 -7)
1969/12/31/18:00:17.506,(1 -5 -22 -44 -20 0 8 3)
1969/12/31/18:00:17.506,(7 11 12 -14 3 -5 -6 1)
1969/12/31/18:00:17.518,(-10 -3 22 83 33 11 2 -3)
1969/12/31/18:00:17.518,(-5 -3 2 12 14 11 4 -2)
1969/12/31/18:00:17.535,(5 1 -7 -2 3 -4 0 2)
1969/12/31/18:00:17.535,(-5 -1 1 -5 -14 0 0 -3)
1969/12/31/18:00:17.542,(-12 -15 -24 -64 -19 -13 -7 -7)
1969/12/31/18:00:17.542,(-5 -4 -3 -35 -18 -10 -8 -5)
1969/12/31/18:00:17.544,(-2 -4 20 19 2 1 -3 -2)
1969/12/31/18:00:17.544,(-4 -2 -21 -13 -8 -5 2 -1)
1969/12/31/18:00:17.565,(2 -7 2 19 3 1 -2 2)
1969/12/31/18:00:17.565,(-1 8 18 -23 -18 -7 0 -2)
1969/12/31/18:00:17.566,(6 15 -3 -34 4 -9 -7 -1)
1969/12/31/18:00:17.566,(19 4 -21 59 -6 -5 1 9)
1969/12/31/18:00:17.578,(-8 -6 29 -7 -40 -7 -1 -8)
1969/12/31/18:00:17.578,(-8 -5 -31 -43 -9 -5 -7 -5)
1969/12/31/18:00:17.587,(10 16 31 90 85 23 9 9)
1969/12/31/18:00:17.587,(-4 6 32 56 3 26 12 4)
1969/12/31/18:00:17.602,(-7 -8 3 48 54 11 2 -3)
1969/12/31/18:00:17.602,(6 -5 -33 -92 -79 -14 -3 4)
1969/12/31/18:00:17.608,(7 11 10 10 12 -2 -3 -1)
1969/12/31/18:00:17.608,(3 5 11 -26 20 3 1 -1)
1969/12/31/18:00:17.625,(1 0 -27 -19 -28 -8 -3 -1)
1969/12/31/18:00:17.625,(2 0 0 0 -2 2 -2 1)
1969/12/31/18:00:17.626,(-17 -19 15 39 52 3 -9 -11)
1969/12/31/18:00:17.626,(-10 -5 3 -18 -38 -20 -8 -10)
1969/12/31/18:00:17.638,(2 0 -19 -9 -39 -13 -4 -2)
1969/12/31/18:00:17.638,(0 -5 3 -4 -11 -3 4 3)
1969/12/31/18:00:17.647,(-3 -8 -17 -19 -23 -3 -3 -2)
1969/12/31/18:00:17.647,(1 5 25 44 77 20 8 2)
1969/12/31/18:00:17.662,(4 14 -20 -41 5 0 -3 0)
1969/12/31/18:00:17.662,(10 5 -11 0 -12 6 10 10)
1969/12/31/18:00:17.664,(10 0 1 42 7 11 8 7)
1969/12/31/18:00:17.664,(-16 -16 6 -15 -28 -17 -13 -12)
1969/12/31/18:00:17.685,(2 5 1 -15 14 0 -3 0)
1969/12/31/18:00:17.685,(-1 -1 4 27 17 1 1 -1)
1969/12/31/18:00:17.686,(-2 0 -11 -68 -45 -10 0 -2)
1969/12/31/18:00:17.686,(1 -1 -12 -6 3 -1 0 -1)
1969/12/31/18:00:17.698,(1 0 1 20 15 4 -1 3)
1969/12/31/18:00:17.699,(-7 -3 19 28 18 2 -1 -3)
1969/12/31/18:00:17.707,(-2 -3 -15 -25 -16 -2 -1 0)
1969/12/31/18:00:17.707,(-2 -5 -16 -11 -5 0 -1 2)
1969/12/31/18:00:17.722,(5 5 9 -6 1 3 3 3)
1969/12/31/18:00:17.722,(-1 0 16 37 25 2 0 -4)
1969/12/31/18:00:17.728,(1 2 -6 -4 -9 -3 0 0)
1969/12/31/18:00:17.728,(-2 -2 -2 5 -1 0 -1 0)
1969/12/31/18:00:17.745,(0 1 2 -9 -4 -4 -2 0)
1969/12/31/18:00:17.745,(-3 -1 -1 5 14 1 -1 -1)
1969/12/31/18:00:17.746,(3 1 -5 8 -7 0 2 2)
1969/12/31/18:00:17.746,(5 1 -1 -11 -10 -4 1 2)
1969/12/31/18:00:17.758,(-9 -5 -3 -9 1 -1 -1 -4)
1969/12/31/18:00:17.758,(3 -2 2 13 12 4 1 1)
1969/12/31/18:00:17.767,(-7 -4 2 17 -3 -1 -6 -5)
1969/12/31/18:00:17.767,(-2 -5 -7 -18 -9 -3 -1 -1)
1969/12/31/18:00:17.782,(-14 1 2 1 2 -1 -3 -5)
1969/12/31/18:00:17.782,(23 7 8 10 7 0 1 8)
1969/12/31/18:00:17.788,(-18 -7 -2 -1 -1 7 3 -10)
1969/12/31/18:00:17.788,(5 -4 -11 -15 -7 -5 -5 0)
1969/12/31/18:00:17.805,(0 0 2 6 2 0 1 1)
1969/12/31/18:00:17.805,(-2 3 4 7 2 -1 -5 -5)
1969/12/31/18:00:17.806,(14 2 -6 -11 -10 -5 3 9)
1969/12/31/18:00:17.806,(-23 -10 -3 1 4 4 -7 -19)
1969/12/31/18:00:17.818,(-7 -9 -1 1 -2 -2 -2 -3)
1969/12/31/18:00:17.818,(-4 1 4 7 5 1 2 3)
1969/12/31/18:00:17.827,(7 2 1 -2 -5 -4 -2 4)
1969/12/31/18:00:17.827,(4 1 -3 -6 -1 3 3 2)
1969/12/31/18:00:17.850,(3 -3 -8 -10 -7 -2 -3 -1)
1969/12/31/18:00:17.850,(-14 -12 -5 4 8 -4 -8 -8)
1969/12/31/18:00:17.851,(7 11 -1 -16 -3 0 2 2)
1969/12/31/18:00:17.851,(4 -1 4 4 1 2 5 4)
1969/12/31/18:00:17.865,(5 -2 2 18 8 -4 -6 -6)
1969/12/31/18:00:17.865,(1 5 -6 -9 -10 0 3 3)
1969/12/31/18:00:17.866,(-10 -8 8 16 20 2 -3 -4)
1969/12/31/18:00:17.866,(4 3 2 1 0 1 5 10)
1969/12/31/18:00:17.878,(7 8 11 9 10 8 4 0)
1969/12/31/18:00:17.878,(-4 -5 -9 -6 -11 -5 -6 -6)
1969/12/31/18:00:17.887,(-17 -7 -1 -21 -12 -6 -8 -10)
1969/12/31/18:00:17.887,(14 9 -3 -7 -5 -1 1 6)
1969/12/31/18:00:17.902,(5 1 -1 11 6 5 6 9)
1969/12/31/18:00:17.902,(-7 -6 -1 -2 -13 -4 2 -3)
1969/12/31/18:00:17.908,(1 4 -1 2 11 4 0 -1)
1969/12/31/18:00:17.908,(-12 -13 -1 4 6 -4 -6 -6)
1969/12/31/18:00:17.925,(2 6 1 -1 -1 -3 -5 -4)
1969/12/31/18:00:17.925,(2 -1 -10 -36 -8 3 5 2)
1969/12/31/18:00:17.926,(-3 -9 -24 -72 -75 -21 -4 -1)
1969/12/31/18:00:17.926,(-4 9 32 98 70 11 2 -1)
1969/12/31/18:00:17.938,(-3 0 12 36 38 13 2 -2)
1969/12/31/18:00:17.938,(1 6 9 -1 24 13 5 0)
1969/12/31/18:00:17.947,(6 -3 -5 -17 -11 -1 1 3)
1969/12/31/18:00:17.947,(-14 -7 -11 -48 -43 -13 -6 -6)
1969/12/31/18:00:17.962,(15 5 -4 -10 -11 -5 5 13)
1969/12/31/18:00:17.962,(7 12 4 5 6 1 -1 -8)
1969/12/31/18:00:17.968,(0 -8 -5 5 -1 0 4 9)
1969/12/31/18:00:17.968,(4 5 -11 -29 -17 1 1 -6)
1969/12/31/18:00:17.985,(-16 -8 1 3 2 -8 -6 -5)
1969/12/31/18:00:17.985,(5 -2 -4 -8 -10 1 2 5)
1969/12/31/18:00:17.986,(3 8 7 22 12 2 4 10)
1969/12/31/18:00:17.986,(27 9 -1 10 12 10 16 23)
1969/12/31/18:00:18.007,(-9 -4 -5 -54 -19 -2 -7 -13)
1969/12/31/18:00:18.007,(10 3 -9 23 2 0 7 9)
1969/12/31/18:00:18.009,(-9 1 19 59 34 9 -1 -6)
1969/12/31/18:00:18.009,(-3 -4 -11 -64 -27 -2 3 0)
1969/12/31/18:00:18.021,(-2 -4 2 30 -10 -3 -1 -1)
1969/12/31/18:00:18.021,(1 5 14 35 29 -3 -16 -6)
1969/12/31/18:00:18.030,(2 4 7 23 29 26 30 12)
1969/12/31/18:00:18.030,(9 4 3 0 -7 -17 -23 2)
1969/12/31/18:00:18.045,(-55 -46 -28 -51 -36 -27 -35 -36)
1969/12/31/18:00:18.045,(51 37 1 -26 -12 5 20 25)
1969/12/31/18:00:18.046,(3 -3 -4 2 -4 -10 -14 2)
1969/12/31/18:00:18.046,(5 -2 -16 -33 -4 14 19 6)
1969/12/31/18:00:18.067,(13 9 7 -19 -23 2 14 16)
1969/12/31/18:00:18.067,(-34 -22 6 43 8 -8 -10 -15)
1969/12/31/18:00:18.069,(7 9 21 78 45 16 6 -1)
1969/12/31/18:00:18.069,(0 -3 4 -6 17 8 0 0)
1969/12/31/18:00:18.081,(1 -1 -10 12 5 -4 -3 -2)
1969/12/31/18:00:18.081,(-6 -6 -7 -32 -4 3 6 2)
1969/12/31/18:00:18.090,(16 5 -1 -13 -15 -9 -5 8)
1969/12/31/18:00:18.090,(-42 -18 5 19 2 -7 -20 -39)
1969/12/31/18:00:18.105,(6 1 -12 -66 -26 -5 0 6)
1969/12/31/18:00:18.105,(-3 -2 -1 19 -2 -3 1 -1)
1969/12/31/18:00:18.106,(-9 -8 2 4 11 1 -7 -9)
1969/12/31/18:00:18.106,(0 0 2 9 -8 2 2 5)
1969/12/31/18:00:18.127,(13 10 -2 -22 9 3 7 6)
1969/12/31/18:00:18.127,(-4 -7 1 16 6 1 2 9)
1969/12/31/18:00:18.128,(-16 -6 -3 11 -22 -18 -9 -12)
1969/12/31/18:00:18.128,(20 9 7 8 12 10 9 13)
1969/12/31/18:00:18.141,(11 7 5 11 24 20 10 8)
1969/12/31/18:00:18.141,(-27 -18 -13 -33 -10 -2 -13 -21)
1969/12/31/18:00:18.150,(5 1 -20 -56 -53 -10 -2 0)
1969/12/31/18:00:18.150,(3 6 22 89 21 -2 5 4)
1969/12/31/18:00:18.165,(2 4 15 57 38 4 -2 3)
1969/12/31/18:00:18.165,(-3 -3 2 -21 -3 1 -2 -3)
1969/12/31/18:00:18.166,(5 4 -14 -11 -16 1 4 2)
1969/12/31/18:00:18.166,(0 0 0 1 -8 0 0 1)
1969/12/31/18:00:18.187,(-17 -13 12 63 38 5 -2 -9)
1969/12/31/18:00:18.187,(17 18 9 -33 -7 2 5 12)
1969/12/31/18:00:18.189,(-26 -22 -34 -64 -29 -21 -22 -29)
1969/12/31/18:00:18.189,(-10 -23 -13 -47 -20 -5 9 10)
1969/12/31/18:00:18.201,(49 64 26 65 19 5 1 11)
1969/12/31/18:00:18.201,(-45 -44 -19 -17 -18 -15 -24 -36)
1969/12/31/18:00:18.210,(8 11 10 -3 6 2 1 -1)
1969/12/31/18:00:18.210,(41 22 -2 -2 9 4 9 25)
1969/12/31/18:00:18.225,(-25 -23 -13 -36 -29 -5 -1 -12)
1969/12/31/18:00:18.225,(3 0 -24 -86 -31 -9 0 4)
1969/12/31/18:00:18.226,(8 7 16 91 22 1 0 5)
1969/12/31/18:00:18.226,(-16 0 28 97 61 11 1 -9)
1969/12/31/18:00:18.247,(-2 -4 6 5 6 8 4 3)
1969/12/31/18:00:18.247,(17 17 21 59 33 12 10 11)
1969/12/31/18:00:18.249,(-8 -13 -13 -65 -23 -5 -6 -2)
1969/12/31/18:00:18.249,(-10 -10 -33 -121 -66 -23 -14 -14)
1969/12/31/18:00:18.261,(1 4 2 40 17 1 8 7)
1969/12/31/18:00:18.261,(19 1 13 35 17 9 8 20)
1969/12/31/18:00:18.270,(-25 -18 -4 -14 7 3 -2 -14)
1969/12/31/18:00:18.270,(38 39 10 1 -12 -4 -1 7)
1969/12/31/18:00:18.285,(-45 -44 -20 -54 -34 -18 -15 -18)
1969/12/31/18:00:18.285,(23 28 12 25 15 8 4 -2)
1969/12/31/18:00:18.286,(-2 -1 2 -2 5 -1 -3 -2)
1969/12/31/18:00:18.286,(1 1 -7 -3 -3 2 3 3)
1969/12/31/18:00:18.307,(-8 -16 -7 -8 -4 0 -1 -3)
1969/12/31/18:00:18.307,(3 5 8 10 0 0 5 7)
1969/12/31/18:00:18.309,(-7 -10 -41 -98 -54 -16 -8 -2)
1969/12/31/18:00:18.309,(-1 -5 5 72 -15 -4 5 2)
1969/12/31/18:00:18.321,(20 24 43 88 89 28 14 13)
1969/12/31/18:00:18.321,(-19 -12 9 17 25 15 -1 -8)
1969/12/31/18:00:18.330,(13 16 21 14 37 13 5 5)
1969/12/31/18:00:18.330,(-30 -19 -21 -58 -27 -13 -16 -17)
1969/12/31/18:00:18.345,(37 12 -21 -67 -55 -15 6 24)
1969/12/31/18:00:18.345,(-6 -2 -4 -2 -14 -9 -4 -5)
1969/12/31/18:00:18.346,(-1 -3 -1 0 3 -1 -1 -1)
1969/12/31/18:00:18.346,(-25 -23 -9 -21 -2 -2 -5 -13)
1969/12/31/18:00:18.367,(20 17 3 7 -1 1 7 17)
1969/12/31/18:00:18.367,(14 12 -2 -7 -4 -11 -12 0)
1969/12/31/18:00:18.369,(-19 -13 2 12 4 0 -9 -18)
1969/12/31/18:00:18.369,(-10 -7 1 7 6 -4 -8 -13)
1969/12/31/18:00:18.390,(-18 -11 -15 -67 -39 -16 -12 -16)
1969/12/31/18:00:18.390,(-17 -16 -6 35 8 1 -2 -3)
1969/12/31/18:00:18.391,(21 16 16 36 37 21 21 21)
1969/12/31/18:00:18.391,(16 11 3 -33 10 9 4 7)
1969/12/31/18:00:18.405,(-16 -14 -10 -17 -26 -10 -9 -12)
1969/12/31/18:00:18.405,(0 -1 -3 -6 -21 -10 0 1)
1969/12/31/18:00:18.406,(5 7 7 39 13 2 3 4)
1969/12/31/18:00:18.406,(-11 -6 0 5 21 3 -7 -8)
1969/12/31/18:00:18.427,(6 8 7 24 18 11 6 5)
1969/12/31/18:00:18.427,(-17 -16 0 6 -13 -8 -7 -8)
1969/12/31/18:00:18.429,(25 25 11 11 10 13 10 9)
1969/12/31/18:00:18.429,(1 -12 -15 -27 -12 -7 -4 2)
1969/12/31/18:00:18.441,(-6 -6 -13 -29 -28 -11 -8 -10)
1969/12/31/18:00:18.441,(7 10 3 15 9 4 7 11)
1969/12/31/18:00:18.450,(-46 -34 -1 -14 1 -3 -9 -22)
1969/12/31/18:00:18.450,(53 50 20 25 13 17 29 38)
1969/12/31/18:00:18.465,(-18 -20 -14 -18 -11 -8 -19 -23)
1969/12/31/18:00:18.465,(1 -2 -1 3 6 4 6 4)
1969/12/31/18:00:18.466,(15 4 1 -10 -13 -4 1 8)
1969/12/31/18:00:18.466,(-26 -25 0 -6 1 -1 -3 -10)
1969/12/31/18:00:18.487,(15 25 3 32 -2 -1 4 4)
1969/12/31/18:00:18.487,(11 2 -14 -95 -31 -2 0 6)
1969/12/31/18:00:18.489,(9 3 -6 38 4 -3 3 9)
1969/12/31/18:00:18.489,(-11 -8 13 47 26 2 -11 -9)
1969/12/31/18:00:18.501,(6 16 13 17 11 -1 -8 -5)
1969/12/31/18:00:18.501,(-38 -34 -2 6 15 4 -2 -20)
1969/12/31/18:00:18.510,(20 9 7 -11 -10 2 7 20)
1969/12/31/18:00:18.510,(-13 5 -17 -19 -23 -15 -12 -15)
1969/12/31/18:00:18.525,(8 -4 -7 -19 -1 5 12 17)
1969/12/31/18:00:18.525,(14 9 2 -9 -11 -7 -6 1)
1969/12/31/18:00:18.526,(50 32 7 -9 4 9 18 24)
1969/12/31/18:00:18.526,(-51 -42 -13 -9 -13 -3 -9 -23)
1969/12/31/18:00:18.547,(21 13 4 -36 -16 -4 0 9)
1969/12/31/18:00:18.547,(-17 -12 -12 38 15 2 1 -6)
1969/12/31/18:00:18.549,(-4 -4 -24 -93 -23 -5 0 -2)
1969/12/31/18:00:18.549,(9 7 26 79 12 0 3 10)
1969/12/31/18:00:18.570,(-12 4 35 96 50 18 5 -10)
1969/12/31/18:00:18.570,(11 -7 1 -16 10 8 6 12)
1969/12/31/18:00:18.571,(-44 -55 2 2 -2 -12 -15 -20)
1969/12/31/18:00:18.571,(67 91 -7 -52 -18 1 15 35)
1969/12/31/18:00:18.585,(-36 -52 -40 -72 -35 -22 -29 -41)
1969/12/31/18:00:18.585,(-47 -56 -2 19 0 8 22 16)
1969/12/31/18:00:18.586,(-18 8 -17 5 -2 -1 -14 -23)
1969/12/31/18:00:18.586,(78 69 31 -8 8 6 19 60)
1969/12/31/18:00:18.607,(-9 2 0 18 -3 -6 -7 -9)
1969/12/31/18:00:18.607,(-13 -18 -7 -23 -6 -2 -5 -13)
1969/12/31/18:00:18.609,(-1 13 8 14 1 0 5 8)
1969/12/31/18:00:18.609,(-48 -55 -24 -18 -22 -8 -11 -28)
1969/12/31/18:00:18.621,(45 45 29 59 33 14 20 35)
1969/12/31/18:00:18.621,(-1 7 12 33 16 1 -6 -11)
1969/12/31/18:00:18.630,(-17 -27 1 22 -7 -3 0 -1)
1969/12/31/18:00:18.630,(10 13 -16 -44 -4 -7 -10 -16)
1969/12/31/18:00:18.644,(3 6 -8 -12 -6 5 14 17)
1969/12/31/18:00:18.644,(-9 17 11 34 3 -9 -15 -24)
1969/12/31/18:00:18.652,(-25 -37 1 -9 14 1 -4 -10)
1969/12/31/18:00:18.652,(37 41 10 8 2 15 18 15)
1969/12/31/18:00:18.667,(-31 -62 -16 -15 -11 -12 -13 -5)
1969/12/31/18:00:18.667,(-25 -29 -19 -24 -14 -13 -22 -35)
1969/12/31/18:00:18.667,(27 57 -3 -4 -7 -11 -16 -4)
1969/12/31/18:00:18.667,(-46 -60 -10 -8 -2 -4 -11 -25)
1969/12/31/18:00:18.689,(-7 -2 -1 -9 5 11 14 3)
1969/12/31/18:00:18.689,(29 40 9 -8 -11 -10 -5 11)
1969/12/31/18:00:18.690,(-6 -33 -2 30 17 9 12 11)
1969/12/31/18:00:18.690,(-23 -10 -8 3 0 -5 -8 -17)
1969/12/31/18:00:18.703,(-1 6 -10 -84 -47 -13 -9 -5)
1969/12/31/18:00:18.703,(14 11 1 60 15 5 7 15)
1969/12/31/18:00:18.712,(-2 7 25 53 55 12 -1 -10)
1969/12/31/18:00:18.712,(5 -7 13 45 26 10 9 12)
1969/12/31/18:00:18.727,(-3 0 0 -7 -5 -6 -7 -9)
1969/12/31/18:00:18.727,(10 8 -13 -71 -34 -3 4 8)
1969/12/31/18:00:18.727,(7 -2 -12 -29 -24 -3 7 8)
1969/12/31/18:00:18.727,(-11 -17 4 16 4 -2 -6 -5)
1969/12/31/18:00:18.749,(8 18 -4 -1 2 -1 -2 -2)
1969/12/31/18:00:18.749,(-13 7 2 -5 -6 -12 -21 -16)
1969/12/31/18:00:18.750,(9 -12 0 10 -1 6 8 10)
1969/12/31/18:00:18.750,(4 8 -7 -25 -3 2 3 5)
1969/12/31/18:00:18.763,(-7 -21 -9 -1 0 0 -1 0)
1969/12/31/18:00:18.763,(16 12 6 8 9 6 10 13)
1969/12/31/18:00:18.772,(3 20 9 11 -5 -8 -5 -5)
1969/12/31/18:00:18.772,(0 -17 -8 -19 2 7 7 11)
1969/12/31/18:00:18.787,(-4 0 7 23 11 1 -2 -4)
1969/12/31/18:00:18.787,(21 18 5 4 6 8 10 13)
1969/12/31/18:00:18.787,(3 4 -8 -41 -30 -8 -7 2)
1969/12/31/18:00:18.787,(-46 -39 -7 17 9 -7 -11 -25)
1969/12/31/18:00:18.809,(13 5 7 7 7 11 6 3)
1969/12/31/18:00:18.809,(0 -18 3 7 11 3 0 2)
1969/12/31/18:00:18.810,(-13 12 -1 -2 -2 -1 -6 -19)
1969/12/31/18:00:18.810,(11 9 4 -6 -8 -2 4 8)
1969/12/31/18:00:18.832,(-9 -6 -10 -3 -3 -7 -4 2)
1969/12/31/18:00:18.832,(-4 -3 3 -16 -14 -6 -11 -17)
1969/12/31/18:00:18.833,(-3 -15 2 13 10 6 5 3)
1969/12/31/18:00:18.833,(12 10 4 10 3 0 -4 2)
1969/12/31/18:00:18.847,(-22 -20 -7 -9 16 1 -5 -11)
1969/12/31/18:00:18.847,(8 8 4 3 -9 1 11 13)
1969/12/31/18:00:18.847,(11 22 2 9 -1 -8 -7 4)
1969/12/31/18:00:18.847,(-23 -24 6 8 1 -2 -10 -26)
1969/12/31/18:00:18.877,(18 16 0 1 1 4 8 14)
1969/12/31/18:00:18.877,(4 5 -8 -17 2 5 4 2)
1969/12/31/18:00:18.878,(-1 0 1 4 -10 -2 -3 -3)
1969/12/31/18:00:18.878,(2 10 -3 -7 -9 -6 2 8)
1969/12/31/18:00:18.892,(17 13 13 0 10 18 12 8)
1969/12/31/18:00:18.892,(-18 -14 -3 15 1 -7 -11 -11)
1969/12/31/18:00:18.893,(-2 4 3 -3 -2 0 3 6)
1969/12/31/18:00:18.893,(-31 -25 -7 -7 -2 2 -1 -20)
1969/12/31/18:00:18.907,(14 14 2 8 -4 -6 -3 13)
1969/12/31/18:00:18.907,(2 5 -2 -14 -2 -1 -2 -2)
1969/12/31/18:00:18.907,(6 1 0 1 -3 -2 -3 -1)
1969/12/31/18:00:18.907,(14 13 -1 2 8 7 10 15)
1969/12/31/18:00:18.929,(0 -8 -2 10 -2 -2 0 1)
1969/12/31/18:00:18.929,(-2 0 7 21 15 1 -1 -5)
1969/12/31/18:00:18.930,(0 3 1 6 4 -1 -2 -1)
1969/12/31/18:00:18.930,(4 0 -5 -19 -12 -7 -4 1)
1969/12/31/18:00:18.943,(4 13 6 2 1 5 7 4)
1969/12/31/18:00:18.943,(5 -7 -7 -5 -6 -3 3 12)
1969/12/31/18:00:18.952,(17 23 -3 -2 1 -1 -2 -3)
1969/12/31/18:00:18.952,(-9 -2 -2 -2 -3 -12 -24 -30)
1969/12/31/18:00:18.967,(4 -3 -4 -7 -7 -2 3 6)
1969/12/31/18:00:18.967,(-2 -1 1 -5 -3 3 11 11)
1969/12/31/18:00:18.967,(-8 -7 -7 -16 -4 -6 -8 -4)
1969/12/31/18:00:18.967,(-7 -12 -5 -1 -11 -2 -2 3)
1969/12/31/18:00:18.989,(9 12 2 14 2 -1 -3 -2)
1969/12/31/18:00:18.989,(11 15 0 -5 7 5 2 2)
1969/12/31/18:00:18.990,(-4 -8 3 12 8 2 2 -3)
1969/12/31/18:00:18.990,(4 7 -2 -28 -25 -1 3 10)
1969/12/31/18:00:19.004,(-9 -9 -5 19 10 -4 1 -4)
1969/12/31/18:00:19.004,(6 13 4 9 8 5 0 0)
1969/12/31/18:00:19.005,(-43 -45 0 3 4 -2 -7 -16)
1969/12/31/18:00:19.005,(17 25 0 -1 2 -1 1 3)
1969/12/31/18:00:19.027,(2 10 -2 -12 -10 -6 -8 -13)
1969/12/31/18:00:19.027,(5 -5 -9 -14 -13 -9 -7 1)
1969/12/31/18:00:19.027,(5 6 -4 -8 -6 -4 0 4)
1969/12/31/18:00:19.027,(-9 -10 4 15 12 4 1 -3)
1969/12/31/18:00:19.049,(0 -5 0 -9 -8 -2 6 12)
1969/12/31/18:00:19.049,(-22 -13 2 4 3 -5 -10 -17)
1969/12/31/18:00:19.050,(31 29 0 -7 -3 4 7 13)
1969/12/31/18:00:19.050,(1 -5 1 9 4 2 1 4)
1969/12/31/18:00:19.064,(-11 -7 -1 -3 -2 -4 -6 -8)
1969/12/31/18:00:19.064,(-4 -6 -2 0 2 1 1 0)
1969/12/31/18:00:19.065,(25 31 -1 -10 -5 3 10 20)
1969/12/31/18:00:19.065,(-44 -46 -2 11 -3 -6 -14 -29)
1969/12/31/18:00:19.087,(3 -5 1 6 8 6 4 4)
1969/12/31/18:00:19.087,(-17 -9 -1 6 0 -5 -8 -15)
1969/12/31/18:00:19.087,(16 16 1 -9 -8 -1 3 4)
1969/12/31/18:00:19.087,(10 2 -10 -12 -1 -2 1 7)
1969/12/31/18:00:19.109,(-18 -9 -2 -2 -5 -5 -2 -6)
1969/12/31/18:00:19.109,(5 11 8 0 1 6 6 -3)
1969/12/31/18:00:19.110,(-16 -26 -4 0 3 2 2 -1)
1969/12/31/18:00:19.110,(15 23 -1 -14 -6 0 5 11)
1969/12/31/18:00:19.124,(-11 -13 1 28 12 -4 -11 -17)
1969/12/31/18:00:19.124,(-4 -3 -1 2 -2 0 2 3)
1969/12/31/18:00:19.125,(6 4 9 11 2 4 5 4)
1969/12/31/18:00:19.125,(-7 -13 0 -4 -1 -5 -5 -1)
1969/12/31/18:00:19.147,(-8 -3 -8 -12 -3 3 -1 -3)
1969/12/31/18:00:19.147,(10 9 1 -4 5 8 12 11)
1969/12/31/18:00:19.147,(-9 -11 -5 -7 -16 -13 -14 -13)
1969/12/31/18:00:19.147,(-10 -11 1 8 -1 -2 1 0)
1969/12/31/18:00:19.169,(2 13 3 -2 18 -1 -3 0)
1969/12/31/18:00:19.169,(35 31 7 4 10 17 19 20)
1969/12/31/18:00:19.170,(-15 -14 -3 -17 6 5 -1 -10)
1969/12/31/18:00:19.170,(10 3 -1 13 -4 -2 1 7)
1969/12/31/18:00:19.184,(-3 -3 1 3 -2 -2 4 4)
1969/12/31/18:00:19.184,(-15 -20 -2 -2 -4 -8 -8 -4)
1969/12/31/18:00:19.185,(35 33 2 -2 0 0 7 20)
1969/12/31/18:00:19.185,(-10 -10 8 4 6 5 2 -5)
1969/12/31/18:00:19.207,(20 21 2 -13 -9 6 10 11)
1969/12/31/18:00:19.207,(1 -4 -10 -15 -8 -6 -5 -2)
1969/12/31/18:00:19.207,(-21 -18 1 27 8 0 -3 -11)
1969/12/31/18:00:19.207,(5 6 4 11 12 0 1 4)
1969/12/31/18:00:19.237,(13 6 -1 -4 -1 1 4 12)
1969/12/31/18:00:19.237,(-82 -89 -11 -6 -2 -11 -19 -31)
1969/12/31/18:00:19.238,(62 69 19 -3 -4 18 23 22)
1969/12/31/18:00:19.238,(1 -3 -11 -4 7 -6 -8 -7)
1969/12/31/18:00:19.244,(0 -6 1 7 -16 -9 -7 -6)
1969/12/31/18:00:19.244,(14 27 -1 -3 -2 -2 0 6)
1969/12/31/18:00:19.245,(-8 -35 -20 -9 -1 -8 -7 5)
1969/12/31/18:00:19.245,(9 33 5 0 7 5 0 -10)
1969/12/31/18:00:19.266,(-17 -16 7 4 1 -4 -12 -20)
1969/12/31/18:00:19.266,(25 21 -2 -2 -4 0 8 15)
1969/12/31/18:00:19.267,(-35 -30 -6 7 -3 -1 -4 -12)
1969/12/31/18:00:19.267,(8 -1 -14 -50 -17 -6 -2 8)
1969/12/31/18:00:19.289,(-19 -14 -4 9 -7 -3 -5 -10)
1969/12/31/18:00:19.289,(20 32 18 43 11 2 -1 4)
1969/12/31/18:00:19.290,(-13 -11 -3 1 18 0 -3 -2)
1969/12/31/18:00:19.290,(-26 -19 6 9 4 3 -7 -23)
1969/12/31/18:00:19.304,(-56 -48 -10 -18 1 -4 -9 -17)
1969/12/31/18:00:19.304,(48 22 -2 -17 -17 0 5 7)
1969/12/31/18:00:19.305,(14 21 3 8 2 3 6 4)
1969/12/31/18:00:19.305,(18 18 -3 3 0 -3 2 12)
1969/12/31/18:00:19.327,(3 -4 -5 -13 -6 -4 -2 2)
1969/12/31/18:00:19.327,(-14 -8 -3 -19 -14 -6 -8 -7)
1969/12/31/18:00:19.327,(-14 -21 1 24 21 17 20 10)
1969/12/31/18:00:19.327,(4 1 5 6 0 -4 -3 6)
1969/12/31/18:00:19.349,(5 22 8 -3 10 8 4 -5)
1969/12/31/18:00:19.349,(-10 -11 -5 7 -1 -2 -2 -3)
1969/12/31/18:00:19.350,(-1 9 3 -10 -6 -10 -9 -5)
1969/12/31/18:00:19.350,(-35 -43 -1 4 -4 -2 -2 -4)
1969/12/31/18:00:19.364,(40 35 9 0 7 12 14 6)
1969/12/31/18:00:19.364,(13 16 -9 -24 -15 -8 1 8)
1969/12/31/18:00:19.365,(-51 -47 -3 16 -7 -20 -31 -40)
1969/12/31/18:00:19.365,(46 46 16 28 22 18 20 23)
1969/12/31/18:00:19.387,(13 -1 -1 -8 -2 3 2 6)
1969/12/31/18:00:19.387,(-7 -8 -5 -4 8 0 -1 -1)
1969/12/31/18:00:19.387,(-6 -3 -4 -16 -15 -1 0 -7)
1969/12/31/18:00:19.387,(-10 -14 -1 -2 -9 -6 -1 0)
1969/12/31/18:00:19.410,(28 17 1 11 9 4 11 25)
1969/12/31/18:00:19.410,(-6 3 -1 -6 -3 -4 -13 -16)
1969/12/31/18:00:19.410,(4 -2 -7 -25 -27 -11 -5 5)
1969/12/31/18:00:19.410,(-8 -7 0 2 19 7 5 -3)
1969/12/31/18:00:19.424,(-16 -25 -9 21 3 -5 -4 4)
1969/12/31/18:00:19.424,(-13 -4 22 43 30 13 6 -4)
1969/12/31/18:00:19.425,(-4 -28 7 1 12 13 11 1)
1969/12/31/18:00:19.425,(15 50 -10 -37 -17 -9 -6 -2)
1969/12/31/18:00:19.446,(-2 -3 1 -6 -32 -5 -4 -3)
1969/12/31/18:00:19.446,(-7 -12 -5 -11 7 -4 -1 4)
1969/12/31/18:00:19.447,(15 6 -11 5 5 2 2 10)
1969/12/31/18:00:19.447,(-27 -37 9 20 4 1 -9 -13)
1969/12/31/18:00:19.470,(10 26 -2 -2 10 3 0 -1)
1969/12/31/18:00:19.470,(-3 -7 -8 -4 -10 -6 -2 -4)
1969/12/31/18:00:19.471,(29 40 2 -18 -12 -3 6 15)
1969/12/31/18:00:19.471,(-6 -23 -15 -10 -11 -9 -2 5)
1969/12/31/18:00:19.484,(10 14 15 11 11 7 5 0)
1969/12/31/18:00:19.484,(-21 -26 -3 -3 -6 0 -1 -2)
1969/12/31/18:00:19.485,(11 26 3 2 4 -1 -6 -9)
1969/12/31/18:00:19.485,(-18 -25 -2 6 -2 1 -1 -7)
1969/12/31/18:00:19.507,(5 12 2 -11 -5 1 2 6)
1969/12/31/18:00:19.507,(17 9 3 0 3 3 4 12)
1969/12/31/18:00:19.507,(-10 -13 -4 1 4 2 3 2)
1969/12/31/18:00:19.507,(18 31 34 22 4 10 8 5)
1969/12/31/18:00:19.530,(-9 -25 -23 -13 -3 -4 -5 -5)
1969/12/31/18:00:19.530,(4 2 -29 -10 -2 -11 -8 -3)
1969/12/31/18:00:19.531,(-35 -28 -15 -15 -15 -22 -22 -17)
1969/12/31/18:00:19.531,(-11 -15 -7 -7 -4 -3 -9 -19)
1969/12/31/18:00:19.543,(8 17 10 6 2 -2 2 1)
1969/12/31/18:00:19.543,(-23 -30 10 12 7 8 0 -7)
1969/12/31/18:00:19.552,(34 60 8 -9 -13 -2 -5 2)
1969/12/31/18:00:19.552,(-5 -12 -2 5 3 -3 8 12)
1969/12/31/18:00:19.568,(19 4 12 9 11 10 5 8)
1969/12/31/18:00:19.568,(17 12 2 -1 0 4 1 0)
1969/12/31/18:00:19.569,(1 -9 4 14 7 5 3 5)
1969/12/31/18:00:19.569,(10 10 -10 -16 -7 -3 1 8)
1969/12/31/18:00:19.590,(-12 -12 -13 -15 -5 -3 0 -4)
1969/12/31/18:00:19.590,(19 29 3 -4 -15 -2 8 9)
1969/12/31/18:00:19.590,(-20 -12 9 19 6 -1 -8 -18)
1969/12/31/18:00:19.590,(10 10 -2 -10 10 3 1 2)
1969/12/31/18:00:19.603,(-2 -1 -6 4 -12 -11 -9 0)
1969/12/31/18:00:19.603,(-6 -10 -11 -22 -12 -9 -5 -4)
1969/12/31/18:00:19.612,(-13 -19 -2 -13 -8 -3 0 -2)
1969/12/31/18:00:19.612,(14 11 -2 19 10 3 -4 1)
1969/12/31/18:00:19.627,(-16 -12 -2 5 18 9 7 -3)
1969/12/31/18:00:19.627,(16 28 15 10 11 12 8 5)
1969/12/31/18:00:19.627,(-20 -24 -11 -15 -9 -5 -6 -12)
1969/12/31/18:00:19.627,(10 24 -2 -11 -13 -4 -2 -2)
1969/12/31/18:00:19.651,(2 2 3 16 14 -1 1 2)
1969/12/31/18:00:19.651,(-6 -5 1 -2 -6 1 -1 0)
1969/12/31/18:00:19.652,(22 25 10 18 7 3 10 13)
1969/12/31/18:00:19.652,(0 -5 1 9 3 -5 -7 -5)
1969/12/31/18:00:19.672,(4 -5 -3 -14 -11 -9 -4 3)
1969/12/31/18:00:19.672,(-16 1 2 12 11 5 -3 -16)
1969/12/31/18:00:19.673,(9 -7 -5 -44 -16 5 6 9)
1969/12/31/18:00:19.673,(-14 -11 -13 5 -10 -7 -5 -8)
1969/12/31/18:00:19.687,(6 8 6 17 10 -4 -6 -4)
1969/12/31/18:00:19.687,(-6 -12 3 -3 1 0 -2 -1)
1969/12/31/18:00:19.687,(0 -3 -16 10 10 -2 -6 -4)
1969/12/31/18:00:19.687,(5 -8 -8 -19 -11 -8 -2 11)
1969/12/31/18:00:19.710,(-38 -24 2 -2 -8 7 1 -29)
1969/12/31/18:00:19.710,(2 4 -2 -33 -18 -6 -2 0)
1969/12/31/18:00:19.710,(-5 -3 9 26 17 8 6 3)
1969/12/31/18:00:19.710,(10 10 9 16 16 10 8 6)
1969/12/31/18:00:19.723,(4 -3 -2 -5 -4 -4 -1 7)
1969/12/31/18:00:19.723,(2 -2 -2 -11 -8 0 2 3)
1969/12/31/18:00:19.731,(4 -4 4 10 3 2 3 4)
1969/12/31/18:00:19.731,(7 10 3 5 13 9 8 4)
1969/12/31/18:00:19.746,(-8 -15 -6 -14 -9 -7 -8 -3)
1969/12/31/18:00:19.746,(19 36 0 12 3 0 4 10)
1969/12/31/18:00:19.747,(-8 -8 -7 -7 -10 -12 -13 -9)
1969/12/31/18:00:19.747,(-7 2 1 -3 -5 -1 -5 -13)
1969/12/31/18:00:19.769,(2 5 -2 -6 -2 1 4 7)
1969/12/31/18:00:19.769,(0 -23 -6 4 1 1 5 9)
1969/12/31/18:00:19.777,(-9 -6 -2 -1 11 -2 -7 -8)
1969/12/31/18:00:19.777,(-1 -2 -1 -7 -16 -3 1 2)
1969/12/31/18:00:19.783,(-13 -6 -5 -9 -9 -8 -8 -11)
1969/12/31/18:00:19.783,(2 2 4 14 9 1 0 4)
1969/12/31/18:00:19.791,(-2 4 3 7 10 1 0 -1)
1969/12/31/18:00:19.791,(-6 -5 -4 -5 -4 -1 1 -1)
1969/12/31/18:00:19.807,(12 9 -1 -5 -5 -4 -3 4)
1969/12/31/18:00:19.807,(-12 -12 1 8 5 -1 -3 -8)
1969/12/31/18:00:19.807,(12 23 3 -2 -1 2 6 5)
1969/12/31/18:00:19.807,(-4 -7 -6 -9 -10 -8 -9 0)
1969/12/31/18:00:19.830,(4 6 -1 -1 -1 0 -2 1)
1969/12/31/18:00:19.830,(8 7 6 5 6 6 4 2)
1969/12/31/18:00:19.831,(-12 -10 -6 -11 -12 -2 -2 -8)
1969/12/31/18:00:19.831,(7 -2 -1 6 -1 -5 -4 4)
1969/12/31/18:00:19.843,(-16 6 9 13 11 -4 -7 -14)
1969/12/31/18:00:19.843,(-19 -22 -6 2 -1 -4 -2 -5)
1969/12/31/18:00:19.852,(15 -3 2 -4 0 3 3 6)
1969/12/31/18:00:19.852,(9 4 0 -7 -1 5 5 1)
1969/12/31/18:00:19.867,(4 7 -3 -7 -5 -2 -2 2)
1969/12/31/18:00:19.867,(-16 -24 -9 -15 -7 -8 -5 -5)
1969/12/31/18:00:19.867,(19 27 3 5 -4 0 7 13)
1969/12/31/18:00:19.867,(-12 2 7 19 20 7 4 -6)
1969/12/31/18:00:19.890,(2 -4 -2 0 -6 -1 -3 -3)
1969/12/31/18:00:19.890,(17 17 9 5 1 7 16 18)
1969/12/31/18:00:19.891,(-11 -17 -6 -25 -18 -7 -8 -7)
1969/12/31/18:00:19.891,(-1 -7 -5 3 1 -3 -3 -1)
1969/12/31/18:00:19.912,(5 -1 -1 16 18 8 10 11)
1969/12/31/18:00:19.912,(-4 -2 -1 1 -1 -3 -5 -7)
1969/12/31/18:00:19.913,(3 2 3 4 6 6 6 5)
1969/12/31/18:00:19.913,(-6 -3 0 -9 -9 3 0 -4)
1969/12/31/18:00:19.926,(-2 -4 4 -8 -10 -3 3 2)
1969/12/31/18:00:19.927,(10 18 27 30 9 6 1 -1)
1969/12/31/18:00:19.927,(-1 4 10 17 12 1 0 2)
1969/12/31/18:00:19.927,(-9 -17 -28 -29 -11 -18 -12 -8)
1969/12/31/18:00:19.950,(-6 -23 -46 -33 -13 -7 -5 -1)
1969/12/31/18:00:19.950,(-14 -14 -3 -10 -11 -9 -7 -11)
1969/12/31/18:00:19.951,(2 16 56 42 15 19 14 4)
1969/12/31/18:00:19.951,(10 7 -7 3 11 6 2 7)
1969/12/31/18:00:19.972,(11 -4 -33 -21 -8 -7 -2 9)
1969/12/31/18:00:19.972,(-21 -21 -38 -38 -20 -25 -22 -21)
1969/12/31/18:00:19.973,(-11 -1 25 9 1 0 -1 -6)
1969/12/31/18:00:19.973,(4 10 21 18 10 20 15 6)
1969/12/31/18:00:19.986,(10 9 1 5 1 -3 -1 4)
1969/12/31/18:00:19.986,(-2 -3 -3 1 -1 -3 -6 -3)
1969/12/31/18:00:19.987,(-1 3 17 3 -1 -4 -3 0)
1969/12/31/18:00:19.987,(4 7 0 -23 -4 7 7 3)
1969/12/31/18:00:20.010,(5 7 24 49 18 24 15 5)
1969/12/31/18:00:20.010,(8 3 -28 -15 6 -2 -1 7)
1969/12/31/18:00:20.010,(-7 -22 -33 -14 -11 -16 -12 -7)
1969/12/31/18:00:20.010,(-10 -5 0 -7 -4 -5 -3 -7)
1969/12/31/18:00:20.032,(-5 -5 -2 -18 -12 -11 -6 -4)
1969/12/31/18:00:20.032,(-1 5 30 10 -10 -7 -3 -4)
1969/12/31/18:00:20.033,(7 0 -37 -17 2 -4 -2 3)
1969/12/31/18:00:20.033,(-5 -10 -5 -2 -4 -7 -3 -3)
1969/12/31/18:00:20.047,(-7 4 16 0 -1 7 2 -3)
1969/12/31/18:00:20.047,(11 12 7 25 21 18 11 9)
1969/12/31/18:00:20.047,(-2 -3 0 -13 1 22 12 3)
1969/12/31/18:00:20.047,(8 3 -1 5 -5 -9 -3 5)
1969/12/31/18:00:20.070,(-16 -14 -14 7 0 -17 -16 -13)
1969/12/31/18:00:20.070,(2 0 0 13 9 -10 -4 2)
1969/12/31/18:00:20.070,(-13 -11 -5 0 -8 -3 -2 -7)
1969/12/31/18:00:20.070,(4 4 0 2 -1 5 2 2)
1969/12/31/18:00:20.092,(0 0 3 -22 -9 1 4 1)
1969/12/31/18:00:20.092,(2 4 3 -26 -10 4 3 0)
1969/12/31/18:00:20.094,(-1 -3 -10 7 5 -1 -2 -1)
1969/12/31/18:00:20.094,(-3 -5 8 14 3 7 2 0)
1969/12/31/18:00:20.106,(1 -2 0 -4 -3 0 1 0)
1969/12/31/18:00:20.106,(-5 1 4 -1 1 3 -2 -4)
1969/12/31/18:00:20.121,(7 8 17 8 3 -4 1 4)
1969/12/31/18:00:20.121,(-1 2 -1 -1 -4 1 -1 -4)
1969/12/31/18:00:20.130,(2 -9 -16 -3 -3 -10 -4 1)
1969/12/31/18:00:20.130,(-18 -13 -13 -22 -24 -12 -9 -10)
1969/12/31/18:00:20.131,(3 2 -6 7 13 1 0 2)
1969/12/31/18:00:20.131,(-7 -2 16 2 3 -6 -6 -5)
1969/12/31/18:00:20.152,(7 14 14 15 7 12 7 4)
1969/12/31/18:00:20.152,(13 11 15 4 1 9 7 5)
1969/12/31/18:00:20.154,(-1 -3 -17 -5 1 1 -4 -3)
1969/12/31/18:00:20.154,(-5 -18 -17 -1 -7 -13 -6 -2)
1969/12/31/18:00:20.166,(-21 -14 14 -23 -11 -8 -9 -13)
1969/12/31/18:00:20.166,(5 4 -3 12 8 4 2 2)
1969/12/31/18:00:20.175,(1 -3 -6 -7 -6 -2 2 0)
1969/12/31/18:00:20.175,(5 6 2 -10 -7 3 3 1)
1969/12/31/18:00:20.190,(6 4 -2 6 1 4 1 4)
1969/12/31/18:00:20.190,(2 1 -8 -8 7 13 10 4)
1969/12/31/18:00:20.191,(-5 -6 1 32 6 -19 -15 -6)
1969/12/31/18:00:20.191,(-9 -4 4 -21 -4 -3 -1 -6)
1969/12/31/18:00:20.212,(2 3 -6 -27 -12 -4 1 2)
1969/12/31/18:00:20.212,(5 2 -2 23 13 5 2 1)
1969/12/31/18:00:20.214,(-7 -6 -5 -9 -4 -2 -6 -4)
1969/12/31/18:00:20.214,(-1 -3 6 2 -4 -2 -1 0)
1969/12/31/18:00:20.226,(3 5 13 27 9 -3 -3 -1)
1969/12/31/18:00:20.226,(-4 2 9 -11 -1 2 0 -2)
1969/12/31/18:00:20.235,(8 0 -15 -3 2 7 7 6)
1969/12/31/18:00:20.235,(1 -1 -22 -34 -15 -3 -1 -1)
1969/12/31/18:00:20.250,(-3 -5 5 42 13 7 0 -1)
1969/12/31/18:00:20.250,(-6 -3 14 14 11 -3 -4 -1)
1969/12/31/18:00:20.252,(-4 -1 -13 -37 -13 1 1 -4)
1969/12/31/18:00:20.252,(9 8 10 26 9 1 0 2)
1969/12/31/18:00:20.273,(-11 -3 -1 -9 -10 -12 -6 -8)
1969/12/31/18:00:20.273,(0 -8 -7 9 3 5 5 4)
1969/12/31/18:00:20.278,(-6 -2 22 24 7 -6 -7 -6)
1969/12/31/18:00:20.278,(18 9 -20 -11 -2 6 9 14)
1969/12/31/18:00:20.286,(-17 -9 -9 -29 -6 3 -5 -19)
1969/12/31/18:00:20.286,(1 1 -8 -4 -7 -6 -4 3)
1969/12/31/18:00:20.295,(-18 -17 -13 -51 -24 -2 -7 -15)
1969/12/31/18:00:20.295,(5 12 50 90 46 9 7 12)
1969/12/31/18:00:20.310,(13 3 -1 -5 12 5 7 13)
1969/12/31/18:00:20.310,(4 -5 -49 -76 -28 -4 2 3)
1969/12/31/18:00:20.311,(4 4 10 30 4 5 6 3)
1969/12/31/18:00:20.311,(-4 -3 -13 -24 -2 3 -2 -7)
1969/12/31/18:00:20.332,(-2 1 30 40 13 0 0 2)
1969/12/31/18:00:20.332,(-17 0 34 4 0 -2 -9 -16)
1969/12/31/18:00:20.334,(17 11 -20 -24 -6 -3 4 12)
1969/12/31/18:00:20.334,(-3 -14 -25 -7 -9 -4 -2 -3)
1969/12/31/18:00:20.346,(4 0 -5 0 1 4 5 3)
1969/12/31/18:00:20.346,(3 -4 -14 -2 -7 -5 -5 -2)
1969/12/31/18:00:20.362,(-4 3 20 14 7 0 1 -2)
1969/12/31/18:00:20.362,(-12 -4 15 14 -3 -6 -7 -8)
1969/12/31/18:00:20.370,(-2 2 -1 -23 -8 -4 -3 -5)
1969/12/31/18:00:20.370,(6 4 0 14 5 2 2 5)
1969/12/31/18:00:20.372,(-7 -3 8 9 1 -3 -3 -2)
1969/12/31/18:00:20.372,(8 1 -28 -28 -7 1 6 9)
1969/12/31/18:00:20.392,(0 -2 -2 1 1 3 1 2)
1969/12/31/18:00:20.392,(-4 2 10 13 0 -7 -4 -5)
1969/12/31/18:00:20.394,(-3 -2 -4 1 -3 -1 0 -1)
1969/12/31/18:00:20.394,(0 1 3 -9 -3 -4 -2 -1)
1969/12/31/18:00:20.406,(1 3 -4 -14 -11 -1 2 0)
1969/12/31/18:00:20.406,(2 0 7 29 21 6 -1 0)
1969/12/31/18:00:20.421,(2 1 -6 -20 0 4 3 2)
1969/12/31/18:00:20.421,(-7 -2 13 19 -8 -4 -3 -6)
1969/12/31/18:00:20.429,(-1 3 6 8 11 2 -1 2)
1969/12/31/18:00:20.429,(2 -1 -10 -12 -6 -2 0 1)
1969/12/31/18:00:20.436,(0 -3 -10 -8 -6 0 1 0)
1969/12/31/18:00:20.436,(-3 0 2 -15 -5 -7 -7 -4)
1969/12/31/18:00:20.453,(-1 -2 -10 13 -10 -6 -1 0)
1969/12/31/18:00:20.453,(0 1 19 20 20 11 6 3)
1969/12/31/18:00:20.458,(0 2 6 -3 3 -3 -2 0)
1969/12/31/18:00:20.458,(0 -1 -3 -5 -5 -3 -3 -1)
1969/12/31/18:00:20.466,(-2 -5 -10 -18 -12 -5 -3 -3)
1969/12/31/18:00:20.466,(2 0 -4 1 -2 -4 -1 2)
1969/12/31/18:00:20.475,(2 0 -1 7 1 1 1 0)
1969/12/31/18:00:20.475,(-1 0 0 -6 -4 1 0 0)
1969/12/31/18:00:20.490,(0 2 2 4 7 3 1 0)
1969/12/31/18:00:20.490,(-6 -1 -3 -1 -8 -6 -6 -7)
1969/12/31/18:00:20.491,(-2 -3 0 3 0 1 2 2)
1969/12/31/18:00:20.491,(-3 -4 -2 -4 -4 -4 -2 -3)
1969/12/31/18:00:20.512,(4 1 1 -3 -5 2 4 3)
1969/12/31/18:00:20.512,(3 3 -5 -2 7 -2 0 1)
1969/12/31/18:00:20.514,(-1 -1 -3 -2 -8 -3 -2 -2)
1969/12/31/18:00:20.514,(-6 -3 7 2 13 1 -5 -5)
1969/12/31/18:00:20.526,(0 1 3 13 4 5 2 1)
1969/12/31/18:00:20.526,(0 -3 -3 -5 -2 2 2 1)
1969/12/31/18:00:20.535,(0 -1 0 4 3 -1 -1 0)
1969/12/31/18:00:20.535,(0 4 3 -3 -3 0 2 0)
1969/12/31/18:00:20.549,(0 0 0 -6 -2 -3 -1 0)
1969/12/31/18:00:20.550,(0 -1 -6 -5 -8 -4 1 1)
1969/12/31/18:00:20.557,(0 -1 -2 -1 1 -2 -1 0)
1969/12/31/18:00:20.557,(0 -3 -2 4 -1 2 -2 0)
1969/12/31/18:00:20.572,(-2 0 -3 -5 0 -1 -2 0)
1969/12/31/18:00:20.572,(0 2 -1 1 -2 -1 1 0)
1969/12/31/18:00:20.574,(-1 -1 -1 2 2 0 0 0)
1969/12/31/18:00:20.574,(-2 1 1 1 0 0 -1 -1)
1969/12/31/18:00:20.586,(2 0 0 -2 1 -3 0 0)
1969/12/31/18:00:20.586,(0 -1 2 -1 -4 -1 -2 1)
1969/12/31/18:00:20.595,(0 1 2 0 -1 0 1 0)
1969/12/31/18:00:20.595,(0 -3 -5 -1 0 1 1 -1)
1969/12/31/18:00:20.609,(-1 -1 1 0 2 3 1 1)
1969/12/31/18:00:20.609,(-2 0 5 1 -1 -1 -1 -3)
1969/12/31/18:00:20.617,(0 -1 -1 -1 -2 -1 -1 -2)
1969/12/31/18:00:20.617,(-1 1 -2 1 0 0 -1 -2)
1969/12/31/18:00:20.633,(3 1 -4 -4 -1 -1 -2 -1)
1969/12/31/18:00:20.633,(-1 0 -1 1 -2 -2 0 -1)
1969/12/31/18:00:20.634,(0 -1 -2 0 0 0 -1 -1)
1969/12/31/18:00:20.634,(-1 -2 -1 -2 0 -1 0 2)
1969/12/31/18:00:20.646,(0 0 0 0 1 0 -1 0)
1969/12/31/18:00:20.646,(1 -1 -1 0 -3 0 -1 -1)
1969/12/31/18:00:20.655,(1 -2 -2 0 0 -1 1 1)
1969/12/31/18:00:20.655,(-2 2 -1 0 -1 -1 0 0)
1969/12/31/18:00:20.669,(-1 0 0 -1 -1 0 -1 1)
1969/12/31/18:00:20.669,(-1 -1 -2 0 0 -1 2 1)
1969/12/31/18:00:20.676,(-1 0 -1 1 0 1 1 -1)
1969/12/31/18:00:20.676,(0 -1 -1 -2 -2 -2 1 -1)
1969/12/31/18:00:20.693,(-1 -1 -1 0 -1 -1 0 2)
1969/12/31/18:00:20.693,(1 -1 -1 1 -2 0 1 2)
1969/12/31/18:00:20.694,(-1 1 0 0 -1 1 -3 -2)
1969/12/31/18:00:20.694,(-2 -1 1 2 4 1 -4 -2)
1969/12/31/18:00:20.706,(1 0 -3 -3 0 -2 1 0)
1969/12/31/18:00:20.706,(-1 2 0 0 -1 -2 -1 0)
1969/12/31/18:00:20.721,(-1 -2 -2 -3 -1 -1 0 -1)
1969/12/31/18:00:20.721,(0 0 -2 1 0 -1 3 0)
1969/12/31/18:00:20.729,(-1 0 -1 -2 -1 1 0 -2)
1969/12/31/18:00:20.729,(0 0 1 1 0 1 1 2)
1969/12/31/18:00:20.736,(-1 -1 0 -1 -1 -2 -3 0)
1969/12/31/18:00:20.736,(-3 0 -2 -3 -3 -3 -1 -1)
1969/12/31/18:00:20.752,(2 -2 -1 -3 -2 1 3 1)
1969/12/31/18:00:20.752,(-1 0 -2 -2 -1 -1 0 -1)
1969/12/31/18:00:20.754,(-1 0 -3 -1 0 -1 -3 -2)
1969/12/31/18:00:20.754,(-1 -4 -1 0 -3 -2 -1 1)
1969/12/31/18:00:20.775,(-2 1 2 2 1 -1 -1 0)
1969/12/31/18:00:20.775,(0 1 2 -2 -1 -1 -2 0)
1969/12/31/18:00:20.782,(2 0 1 0 0 1 2 2)
1969/12/31/18:00:20.782,(-1 -2 1 -1 0 0 -1 0)
1969/12/31/18:00:20.789,(-1 -2 -4 -3 -1 -1 -1 0)
1969/12/31/18:00:20.789,(0 -2 1 0 1 -2 0 -2)
1969/12/31/18:00:20.796,(0 -1 -1 -1 -2 0 0 -2)
1969/12/31/18:00:20.796,(-1 0 -1 -2 -2 -1 0 0)
1969/12/31/18:00:20.811,(2 1 0 -2 0 1 0 0)
1969/12/31/18:00:20.811,(0 -2 -1 -1 0 1 0 -1)
1969/12/31/18:00:20.820,(-2 0 0 -2 0 -1 0 0)
1969/12/31/18:00:20.820,(-1 0 0 1 -1 1 2 2)
1969/12/31/18:00:20.826,(-1 -2 0 -2 1 -1 0 0)
1969/12/31/18:00:20.826,(-2 -2 -2 -2 -1 -1 -3 -1)
1969/12/31/18:00:20.835,(2 0 -1 1 1 0 1 0)
1969/12/31/18:00:20.835,(-1 0 -1 -1 0 -1 -3 -3)
1969/12/31/18:00:20.848,(-1 0 1 1 0 2 -1 -1)
1969/12/31/18:00:20.848,(0 -1 -2 -1 -2 1 0 -1)
1969/12/31/18:00:20.863,(1 0 1 1 0 1 0 1)
1969/12/31/18:00:20.863,(-1 1 -1 0 0 3 0 1)
1969/12/31/18:00:20.872,(-2 0 1 0 -1 -1 -1 -3)
1969/12/31/18:00:20.872,(-1 0 -1 0 0 0 -1 -2)
1969/12/31/18:00:20.874,(-2 -1 0 -2 -2 -1 -1 0)
1969/12/31/18:00:20.874,(-1 -1 -1 0 0 -1 -2 -3)
1969/12/31/18:00:20.895,(0 1 0 -1 0 -1 0 2)
1969/12/31/18:00:20.895,(-1 0 -1 1 -2 0 1 1)
1969/12/31/18:00:20.896,(0 1 0 1 0 0 1 1)
1969/12/31/18:00:20.896,(-1 -2 -2 -1 0 0 -2 1)
1969/12/31/18:00:20.908,(-1 0 2 3 1 -1 -3 -2)
1969/12/31/18:00:20.908,(1 -1 1 1 -1 -2 1 -2)
