time,.data
1969/12/31/18:00:06.801000,(-1 -1 0 1 1 -1 0 0)
1969/12/31/18:00:06.801000,(0 0 0 2 -1 -1 -1 0)
1969/12/31/18:00:06.808000,(0 1 3 -1 -2 0 -1 0)
1969/12/31/18:00:06.808000,(-1 -3 -3 -2 -2 -1 -3 -2)
1969/12/31/18:00:06.824000,(-2 -1 -1 -2 -1 -2 -1 -2)
1969/12/31/18:00:06.824000,(0 -2 -4 -2 -2 -1 -1 0)
1969/12/31/18:00:06.831000,(-1 1 -2 0 0 2 0 -1)
1969/12/31/18:00:06.831000,(-1 -2 1 -1 -2 -6 1 -2)
1969/12/31/18:00:06.847000,(1 0 2 -2 -2 -7 -3 0)
1969/12/31/18:00:06.847000,(0 -2 -3 -10 -15 12 2 1)
1969/12/31/18:00:06.849000,(-4 -4 -5 -9 0 -12 -15 -8)
1969/12/31/18:00:06.849000,(0 1 0 -14 -4 -16 6 -1)
1969/12/31/18:00:06.861000,(-4 0 1 12 12 25 -22 -8)
1969/12/31/18:00:06.862000,(0 1 1 5 15 -12 13 5)
1969/12/31/18:00:06.868000,(2 -4 -5 0 -17 26 -5 6)
1969/12/31/18:00:06.868000,(-5 -6 -7 -21 -32 -27 8 -1)
1969/12/31/18:00:06.885000,(1 3 1 -16 11 -39 -16 -9)
1969/12/31/18:00:06.885000,(-3 -1 2 20 -9 35 -3 -5)
1969/12/31/18:00:06.891000,(5 9 12 45 74 9 17 3)
1969/12/31/18:00:06.891000,(0 -4 -3 19 24 14 0 6)
1969/12/31/18:00:06.907000,(-4 -6 -7 -29 -43 -10 8 3)
1969/12/31/18:00:06.907000,(-11 -7 -4 -23 -23 -25 -35 -15)
1969/12/31/18:00:06.909000,(-1 -5 -5 -27 -27 3 11 -1)
1969/12/31/18:00:06.909000,(0 0 -1 -8 -11 29 0 -1)
1969/12/31/18:00:06.921000,(3 0 -4 3 3 -17 19 3)
1969/12/31/18:00:06.921000,(7 1 -3 -11 -10 -37 -6 8)
1969/12/31/18:00:06.929000,(-9 -8 -3 -13 -21 30 -3 -6)
1969/12/31/18:00:06.929000,(8 14 16 24 44 4 -8 -4)
1969/12/31/18:00:06.944000,(3 -2 4 29 12 -8 -2 2)
1969/12/31/18:00:06.944000,(-25 -17 -6 -1 2 11 5 -9)
1969/12/31/18:00:06.951000,(-2 -2 -9 -17 -26 -43 -9 -1)
1969/12/31/18:00:06.951000,(-2 -2 -5 2 7 2 0 -3)
1969/12/31/18:00:06.967000,(4 4 5 0 1 21 -3 2)
1969/12/31/18:00:06.967000,(10 9 4 4 15 4 15 8)
1969/12/31/18:00:06.969000,(-1 -1 3 4 6 4 2 -2)
1969/12/31/18:00:06.969000,(-8 -5 -1 -3 -8 -4 7 4)
1969/12/31/18:00:06.981000,(3 1 -1 1 0 -2 3 0)
1969/12/31/18:00:06.981000,(0 -3 0 -3 4 8 3 1)
1969/12/31/18:00:06.989000,(-1 1 -2 -8 -11 -9 -4 -6)
1969/12/31/18:00:06.989000,(1 -3 -5 0 -2 -2 -9 -1)
1969/12/31/18:00:07.004000,(-3 -5 -2 -1 -1 3 0 2)
1969/12/31/18:00:07.004000,(1 1 -2 -5 -5 2 -2 -4)
1969/12/31/18:00:07.011000,(1 4 -3 1 8 -2 5 4)
1969/12/31/18:00:07.011000,(4 5 15 12 -4 -11 -7 -2)
1969/12/31/18:00:07.027000,(-7 -2 -3 -4 -2 13 4 3)
1969/12/31/18:00:07.027000,(5 1 -4 -2 2 -5 -1 -2)
1969/12/31/18:00:07.029000,(0 1 7 11 7 -10 -8 -8)
1969/12/31/18:00:07.029000,(-4 -7 -8 -7 -4 6 -1 0)
1969/12/31/18:00:07.042000,(-6 -2 -1 -6 -7 4 -1 -10)
1969/12/31/18:00:07.042000,(4 4 6 5 6 -1 -3 -1)
1969/12/31/18:00:07.050000,(-4 -4 -2 0 4 -4 -2 -1)
1969/12/31/18:00:07.050000,(-1 1 1 -6 -11 1 -8 -9)
1969/12/31/18:00:07.064000,(-2 -3 0 1 3 5 1 2)
1969/12/31/18:00:07.064000,(-1 -6 -3 2 3 -3 2 2)
1969/12/31/18:00:07.071000,(-1 0 1 -2 -4 -4 -4 -5)
1969/12/31/18:00:07.071000,(1 1 0 -1 -1 3 3 6)
1969/12/31/18:00:07.086000,(-3 -4 -3 -1 0 -2 -3 2)
1969/12/31/18:00:07.086000,(-2 0 0 1 1 1 0 -4)
1969/12/31/18:00:07.095000,(-2 -4 -1 0 -2 2 6 6)
1969/12/31/18:00:07.095000,(-2 -1 -4 -14 -11 -1 3 6)
1969/12/31/18:00:07.100000,(0 1 3 16 10 2 -4 -10)
1969/12/31/18:00:07.101000,(0 1 2 3 1 4 5 6)
1969/12/31/18:00:07.110000,(1 0 -2 0 1 -5 -5 -4)
1969/12/31/18:00:07.110000,(-3 -4 -2 1 0 -3 0 -1)
1969/12/31/18:00:07.124000,(-2 -3 -5 -6 -5 0 1 0)
1969/12/31/18:00:07.124000,(-1 -3 -3 -2 -2 -1 0 -3)
1969/12/31/18:00:07.131000,(0 -2 -6 1 -2 -4 -2 0)
1969/12/31/18:00:07.131000,(1 0 -3 -2 0 -3 -3 -3)
1969/12/31/18:00:07.147000,(-3 -2 -5 -9 -4 -2 0 0)
1969/12/31/18:00:07.147000,(1 0 0 1 2 -4 -7 -7)
1969/12/31/18:00:07.149000,(3 0 0 -4 -3 -2 -1 0)
1969/12/31/18:00:07.149000,(-2 -3 -2 0 -2 1 -1 -5)
1969/12/31/18:00:07.169000,(0 -1 0 -2 0 2 2 1)
1969/12/31/18:00:07.169000,(0 2 2 -1 -1 -1 2 3)
1969/12/31/18:00:07.171000,(-2 -1 -1 -1 -2 0 -1 1)
1969/12/31/18:00:07.171000,(-1 -5 -5 0 0 0 0 -3)
1969/12/31/18:00:07.184000,(0 6 3 -1 -1 0 -2 -4)
1969/12/31/18:00:07.184000,(6 0 -6 -4 -1 -2 -4 1)
1969/12/31/18:00:07.191000,(-6 -13 -5 -4 -2 1 4 8)
1969/12/31/18:00:07.191000,(3 18 19 9 3 0 -11 -7)
1969/12/31/18:00:07.207000,(-4 -8 -6 -5 -4 -2 4 10)
1969/12/31/18:00:07.207000,(-6 -6 -3 0 -1 -1 -5 -10)
1969/12/31/18:00:07.209000,(4 5 -3 1 3 4 8 13)
1969/12/31/18:00:07.209000,(-2 -8 -9 -7 -8 -9 -10 -9)
1969/12/31/18:00:07.221000,(-5 0 -7 -4 -3 -2 -13 -25)
1969/12/31/18:00:07.221000,(16 25 25 7 4 -1 -5 18)
1969/12/31/18:00:07.230000,(-6 -11 -5 2 1 -2 -1 -9)
1969/12/31/18:00:07.230000,(-17 -14 -7 -6 -5 -6 -11 -28)
1969/12/31/18:00:07.244000,(4 5 3 0 -2 1 -2 -7)
1969/12/31/18:00:07.244000,(5 -4 -8 -3 -1 1 7 5)
1969/12/31/18:00:07.251000,(-8 5 1 -5 -4 -6 -8 -5)
1969/12/31/18:00:07.251000,(1 -1 6 4 4 4 5 3)
1969/12/31/18:00:07.267000,(3 -4 -3 -1 1 0 5 12)
1969/12/31/18:00:07.267000,(-5 -4 -1 1 -1 -2 -2 -7)
1969/12/31/18:00:07.268000,(10 5 1 0 -3 -1 4 15)
1969/12/31/18:00:07.269000,(-3 2 -4 1 1 2 6 1)
1969/12/31/18:00:07.281000,(-2 0 2 -1 -1 -2 -2 -3)
1969/12/31/18:00:07.281000,(-14 -12 -4 -5 -3 -4 -3 1)
1969/12/31/18:00:07.290000,(-9 4 5 2 0 -2 -10 -34)
1969/12/31/18:00:07.290000,(45 10 2 1 2 7 15 50)
1969/12/31/18:00:07.304000,(-32 -12 -3 -1 -3 -8 -15 -28)
1969/12/31/18:00:07.304000,(12 5 0 0 -3 3 2 0)
1969/12/31/18:00:07.318000,(-34 -25 -13 -9 -7 -4 -3 -5)
1969/12/31/18:00:07.318000,(-13 -4 -4 -1 -1 -1 -4 -24)
1969/12/31/18:00:07.327000,(10 3 3 2 1 5 9 -2)
1969/12/31/18:00:07.327000,(28 11 6 5 3 4 14 31)
1969/12/31/18:00:07.329000,(17 6 2 2 3 6 -3 12)
1969/12/31/18:00:07.329000,(-2 6 2 -1 -4 -23 -6 -4)
1969/12/31/18:00:07.341000,(28 9 3 3 3 7 13 36)
1969/12/31/18:00:07.341000,(-14 -18 -10 -5 -5 -30 -29 -35)
1969/12/31/18:00:07.350000,(-57 -16 -6 -4 -5 -8 -7 -35)
1969/12/31/18:00:07.350000,(-5 -1 4 5 7 20 -2 19)
1969/12/31/18:00:07.364000,(41 20 2 0 0 16 18 7)
1969/12/31/18:00:07.364000,(18 9 -1 2 2 -20 -20 -3)
1969/12/31/18:00:07.372000,(36 13 6 4 6 19 28 28)
1969/12/31/18:00:07.372000,(-22 -15 -8 -5 2 15 -35 -24)
1969/12/31/18:00:07.387000,(-36 -15 0 -1 -11 -49 -16 -20)
1969/12/31/18:00:07.387000,(-3 4 1 1 7 36 31 41)
1969/12/31/18:00:07.389000,(40 13 5 3 4 18 -18 -34)
1969/12/31/18:00:07.389000,(-51 -5 -2 -1 -8 -15 21 -20)
1969/12/31/18:00:07.401000,(39 14 5 2 3 4 -15 32)
1969/12/31/18:00:07.401000,(-89 -29 -10 -7 -12 -13 18 -56)
1969/12/31/18:00:07.410000,(9 -3 -6 -5 0 3 -12 -7)
1969/12/31/18:00:07.410000,(5 -10 -12 -11 -11 -10 -11 -84)
1969/12/31/18:00:07.424000,(0 6 4 6 6 -4 -36 -50)
1969/12/31/18:00:07.424000,(-12 -13 -7 -4 -6 -6 -7 -6)
1969/12/31/18:00:07.431000,(81 53 21 14 12 17 40 91)
1969/12/31/18:00:07.431000,(-14 -9 -14 -9 -11 -20 -15 0)
1969/12/31/18:00:07.447000,(-46 -19 -6 -7 -2 6 16 -15)
1969/12/31/18:00:07.447000,(-13 -19 -13 -10 -6 0 -21 -69)
1969/12/31/18:00:07.449000,(-1 -1 4 4 3 2 22 19)
1969/12/31/18:00:07.449000,(30 18 12 9 6 4 -14 62)
1969/12/31/18:00:07.461000,(13 2 3 1 -1 -14 -30 12)
1969/12/31/18:00:07.461000,(23 8 2 2 3 22 41 65)
1969/12/31/18:00:07.470000,(-21 -14 -8 -7 -10 -34 -27 -17)
1969/12/31/18:00:07.470000,(-10 0 1 3 3 20 36 4)
1969/12/31/18:00:07.492000,(0 -8 -6 -4 -5 -23 -41 -1)
1969/12/31/18:00:07.492000,(27 19 9 8 6 1 -9 28)
1969/12/31/18:00:07.494000,(-34 -21 -6 -8 -12 -21 -33 -64)
1969/12/31/18:00:07.494000,(12 5 -6 -5 -10 -41 -2 24)
1969/12/31/18:00:07.507000,(-10 -16 -4 -4 -4 2 14 7)
1969/12/31/18:00:07.507000,(14 10 2 2 0 -7 2 10)
1969/12/31/18:00:07.508000,(-28 -14 -11 -8 -6 -4 -17 -23)
1969/12/31/18:00:07.508000,(22 3 8 9 12 30 16 55)
1969/12/31/18:00:07.521000,(-9 -6 -9 -8 -9 -4 0 -48)
1969/12/31/18:00:07.521000,(-21 -5 -4 -5 -5 -10 -21 -37)
1969/12/31/18:00:07.530000,(5 4 5 2 1 12 22 44)
1969/12/31/18:00:07.530000,(-31 -18 -8 -7 -2 8 -9 -34)
1969/12/31/18:00:07.551000,(17 14 6 7 9 26 66 77)
1969/12/31/18:00:07.551000,(-5 -10 -7 -6 -4 8 -24 -36)
1969/12/31/18:00:07.560000,(4 4 1 1 -1 -9 -3 32)
1969/12/31/18:00:07.560000,(73 36 15 11 14 33 50 87)
1969/12/31/18:00:07.575000,(-37 -26 -13 -8 -8 -23 -30 -49)
1969/12/31/18:00:07.575000,(-28 -1 2 4 2 17 -18 -27)
1969/12/31/18:00:07.576000,(-9 12 1 -2 -6 -23 -10 -15)
1969/12/31/18:00:07.576000,(-11 -29 -7 -4 -3 -26 -10 -22)
1969/12/31/18:00:07.588000,(-17 -19 -8 -3 0 14 21 16)
1969/12/31/18:00:07.588000,(-2 -9 -2 -2 1 -9 -9 -7)
1969/12/31/18:00:07.597000,(20 9 4 3 4 9 6 1)
1969/12/31/18:00:07.597000,(10 14 4 2 -1 2 -3 -11)
1969/12/31/18:00:07.612000,(27 17 9 6 5 10 8 29)
1969/12/31/18:00:07.612000,(47 9 4 5 8 34 28 70)
1969/12/31/18:00:07.614000,(-40 -22 -10 -7 -7 -29 -20 -55)
1969/12/31/18:00:07.614000,(-8 -2 -2 -3 2 18 -7 -29)
1969/12/31/18:00:07.634000,(-1 4 2 -1 2 8 17 -5)
1969/12/31/18:00:07.635000,(35 17 9 6 6 5 5 24)
1969/12/31/18:00:07.636000,(6 6 -3 -1 2 10 14 55)
1969/12/31/18:00:07.636000,(-20 -24 -4 -2 -8 -20 -15 -15)
1969/12/31/18:00:07.648000,(-2 -3 -7 -6 -3 10 0 11)
1969/12/31/18:00:07.648000,(-20 -9 -4 -4 -7 -21 15 -11)
1969/12/31/18:00:07.657000,(18 12 8 6 5 6 -10 2)
1969/12/31/18:00:07.657000,(27 14 3 3 4 11 4 2)
1969/12/31/18:00:07.672000,(-35 -22 -11 -10 -12 -22 -32 -16)
1969/12/31/18:00:07.672000,(11 2 1 2 2 -5 7 3)
1969/12/31/18:00:07.674000,(-10 -19 -10 -6 -6 -4 0 -26)
1969/12/31/18:00:07.674000,(-4 8 -2 -6 -2 10 -31 -58)
1969/12/31/18:00:07.695000,(-4 -6 -1 0 -3 -26 -3 18)
1969/12/31/18:00:07.695000,(-17 7 5 5 3 19 2 -28)
1969/12/31/18:00:07.696000,(-19 -12 -4 -2 -2 -8 -9 -12)
1969/12/31/18:00:07.696000,(-34 -11 -5 -3 -5 -17 5 5)
1969/12/31/18:00:07.708000,(46 22 10 9 13 40 23 17)
1969/12/31/18:00:07.708000,(-31 -16 -10 -9 -12 -54 -48 -76)
1969/12/31/18:00:07.718000,(17 11 6 6 17 72 -15 -35)
1969/12/31/18:00:07.718000,(-38 -1 0 -2 -14 -46 26 2)
1969/12/31/18:00:07.732000,(-16 -5 -7 -6 -1 15 -20 -56)
1969/12/31/18:00:07.732000,(15 16 8 4 2 -6 23 43)
1969/12/31/18:00:07.734000,(6 -6 0 -2 -5 -10 14 36)
1969/12/31/18:00:07.734000,(50 20 4 2 3 -3 -4 31)
1969/12/31/18:00:07.755000,(6 -14 -2 0 0 13 13 7)
1969/12/31/18:00:07.755000,(-24 -4 -4 -1 -1 2 2 -29)
1969/12/31/18:00:07.756000,(-20 6 8 7 5 -15 4 5)
1969/12/31/18:00:07.756000,(-21 -5 -5 -4 0 17 23 2)
1969/12/31/18:00:07.768000,(-15 2 -2 -5 -6 -9 -28 -50)
1969/12/31/18:00:07.768000,(46 12 7 5 1 -20 9 108)
1969/12/31/18:00:07.777000,(-1 -8 -10 -10 -3 48 -5 -34)
1969/12/31/18:00:07.777000,(23 15 11 12 19 80 17 53)
1969/12/31/18:00:07.791000,(81 40 15 12 2 -59 18 23)
1969/12/31/18:00:07.792000,(-78 -47 -23 -21 -23 -56 -47 -61)
1969/12/31/18:00:07.800000,(-17 -6 2 2 -1 -10 -10 -9)
1969/12/31/18:00:07.800000,(21 -3 -3 -1 -1 14 -11 -8)
1969/12/31/18:00:07.814000,(-3 13 3 1 0 13 19 6)
1969/12/31/18:00:07.814000,(61 18 4 5 10 38 4 73)
1969/12/31/18:00:07.815000,(-13 -6 -1 0 -6 -40 -17 -6)
1969/12/31/18:00:07.815000,(-53 -22 -11 -9 0 39 6 -15)
1969/12/31/18:00:07.836000,(10 12 7 5 13 16 -3 4)
1969/12/31/18:00:07.836000,(16 14 6 5 -4 -26 -5 13)
1969/12/31/18:00:07.838000,(-43 -16 -15 -14 -1 -25 -22 -83)
1969/12/31/18:00:07.838000,(16 -31 -15 -10 -24 -30 1 30)
1969/12/31/18:00:07.851000,(-23 0 -4 -11 -44 -13 -6 20)
1969/12/31/18:00:07.851000,(-30 -19 -9 -11 -12 14 1 -52)
1969/12/31/18:00:07.859000,(43 9 2 -1 -3 -33 -1 48)
1969/12/31/18:00:07.859000,(9 13 5 3 19 8 -10 -7)
1969/12/31/18:00:07.874000,(23 -1 -2 4 22 29 25 6)
1969/12/31/18:00:07.874000,(-22 -5 -2 -1 -4 7 12 -7)
1969/12/31/18:00:07.875000,(-28 -21 -11 -3 0 -9 2 -3)
1969/12/31/18:00:07.875000,(-3 6 2 0 2 -11 -8 6)
1969/12/31/18:00:07.897000,(-26 -9 -3 2 6 -5 -11 -19)
1969/12/31/18:00:07.897000,(66 30 8 -2 -25 -22 -5 57)
1969/12/31/18:00:07.897000,(-30 -8 -8 -11 -6 68 7 -18)
1969/12/31/18:00:07.898000,(8 -8 -3 -5 -7 -26 20 35)
1969/12/31/18:00:07.911000,(-63 -40 -9 -3 8 -11 -33 -47)
1969/12/31/18:00:07.911000,(35 -5 -6 -2 5 6 4 -32)
1969/12/31/18:00:07.920000,(31 24 9 5 -7 -11 9 5)
1969/12/31/18:00:07.920000,(5 6 -3 -8 -18 -25 -24 -29)
1969/12/31/18:00:07.934000,(0 11 3 5 9 3 1 7)
1969/12/31/18:00:07.934000,(37 23 9 12 49 70 17 17)
1969/12/31/18:00:07.935000,(-43 -37 -15 -9 -47 -63 -31 -13)
1969/12/31/18:00:07.935000,(18 -4 2 0 -11 -48 -23 0)
1969/12/31/18:00:07.957000,(-27 -3 -7 -7 -9 -1 -15 -14)
1969/12/31/18:00:07.957000,(-27 -8 0 3 30 85 44 -9)
1969/12/31/18:00:07.958000,(54 37 16 4 -2 -30 -23 50)
1969/12/31/18:00:07.958000,(-27 -5 -1 0 -5 -14 3 -12)
1969/12/31/18:00:07.971000,(78 38 18 18 36 40 62 102)
1969/12/31/18:00:07.971000,(-52 -30 -6 15 61 27 -13 -22)
1969/12/31/18:00:07.972000,(7 5 4 7 -21 4 16 44)
1969/12/31/18:00:07.972000,(-14 -12 -11 -41 -77 -89 -36 -5)
1969/12/31/18:00:07.995000,(18 15 3 -11 -6 -19 7 16)
1969/12/31/18:00:07.995000,(9 6 2 -6 -3 25 7 5)
1969/12/31/18:00:07.995000,(-24 -20 -4 10 47 1 20 -35)
1969/12/31/18:00:07.995000,(-1 -22 -7 13 47 45 -5 0)
1969/12/31/18:00:08.017000,(-5 9 1 1 -18 -17 -4 -17)
1969/12/31/18:00:08.017000,(2 -14 -10 -12 -37 -42 -22 -4)
1969/12/31/18:00:08.017000,(7 -2 -2 -8 -5 15 11 0)
1969/12/31/18:00:08.017000,(-5 23 10 17 19 25 23 -9)
1969/12/31/18:00:08.039000,(-46 -20 -7 -3 26 29 -21 -23)
1969/12/31/18:00:08.039000,(-56 -35 -20 -19 -56 -87 -44 -90)
1969/12/31/18:00:08.040000,(30 2 0 -8 -20 -10 12 31)
1969/12/31/18:00:08.040000,(-15 0 -1 3 29 22 7 -25)
1969/12/31/18:00:08.054000,(7 21 7 10 -8 5 -13 -28)
1969/12/31/18:00:08.054000,(-21 -28 -9 3 19 -12 -5 -9)
1969/12/31/18:00:08.055000,(28 4 -1 -22 -55 -26 3 8)
1969/12/31/18:00:08.055000,(-76 -31 -20 -10 3 5 -12 -54)
1969/12/31/18:00:08.077000,(-32 -21 2 -11 -28 -10 0 -7)
1969/12/31/18:00:08.077000,(-10 15 6 10 25 25 1 3)
1969/12/31/18:00:08.078000,(40 25 -15 -4 0 -3 5 -2)
1969/12/31/18:00:08.078000,(18 -13 7 11 45 15 -9 -14)
1969/12/31/18:00:08.091000,(13 5 3 0 -52 -24 37 74)
1969/12/31/18:00:08.091000,(1 -8 -8 -16 -30 -25 -28 -23)
1969/12/31/18:00:08.092000,(-21 8 13 19 44 39 38 12)
1969/12/31/18:00:08.092000,(75 36 -22 3 37 45 21 41)
1969/12/31/18:00:08.114000,(-56 -37 28 7 7 -12 -13 -70)
1969/12/31/18:00:08.114000,(16 9 -1 -9 -34 -25 -1 -3)
1969/12/31/18:00:08.115000,(10 -10 -25 -13 -18 -18 -22 23)
1969/12/31/18:00:08.115000,(22 -26 -41 -25 -17 -2 3 -14)
1969/12/31/18:00:08.136000,(6 32 36 25 51 57 -5 7)
1969/12/31/18:00:08.136000,(13 -11 -8 29 43 -2 25 50)
1969/12/31/18:00:08.137000,(-6 36 21 -9 -12 -6 -10 7)
1969/12/31/18:00:08.137000,(-52 -37 11 -12 -82 -53 -14 49)
1969/12/31/18:00:08.151000,(56 -16 -42 -26 -13 -8 -5 33)
1969/12/31/18:00:08.151000,(24 19 -2 -8 -9 14 31 42)
1969/12/31/18:00:08.152000,(32 -4 -19 9 40 40 26 19)
1969/12/31/18:00:08.152000,(5 -6 51 42 61 24 4 46)
1969/12/31/18:00:08.174000,(-59 0 -31 -15 -8 -23 -26 -43)
1969/12/31/18:00:08.174000,(16 54 93 19 -48 -2 33 80)
1969/12/31/18:00:08.175000,(22 -4 -38 -24 2 -5 -23 -18)
1969/12/31/18:00:08.175000,(76 63 17 8 -12 -23 16 65)
1969/12/31/18:00:08.197000,(-31 -87 -42 -5 18 4 -6 -9)
1969/12/31/18:00:08.197000,(50 -49 -69 -18 12 2 -10 -10)
1969/12/31/18:00:08.198000,(-55 35 73 19 5 22 20 -13)
1969/12/31/18:00:08.198000,(12 76 36 -4 -37 -15 -3 6)
1969/12/31/18:00:08.221000,(24 20 -22 -8 11 -7 9 44)
1969/12/31/18:00:08.221000,(6 -41 -60 -17 -2 0 5 -45)
1969/12/31/18:00:08.222000,(-11 72 82 46 61 24 -3 -29)
1969/12/31/18:00:08.222000,(-54 2 46 17 -25 -35 -40 -31)
1969/12/31/18:00:08.235000,(41 38 -18 -15 -44 -33 -12 -15)
1969/12/31/18:00:08.235000,(-51 -104 -32 -2 52 36 -29 -72)
1969/12/31/18:00:08.236000,(-47 -43 -47 -18 -52 -32 -13 -26)
1969/12/31/18:00:08.236000,(-19 -22 -13 -4 44 33 -5 -89)
1969/12/31/18:00:08.256000,(-47 25 57 12 -28 -22 -17 -86)
1969/12/31/18:00:08.256000,(-62 54 14 -18 -33 -35 -41 -90)
1969/12/31/18:00:08.257000,(-24 -3 30 35 52 18 12 42)
1969/12/31/18:00:08.257000,(-35 -51 -39 -4 -1 20 15 -26)
1969/12/31/18:00:08.272000,(33 -63 -77 -22 -9 -17 3 24)
1969/12/31/18:00:08.272000,(21 90 55 14 11 15 0 7)
1969/12/31/18:00:08.273000,(-7 36 67 24 13 -13 7 28)
1969/12/31/18:00:08.273000,(-35 -84 -56 -11 18 -12 -21 -69)
1969/12/31/18:00:08.294000,(50 14 -3 -5 -18 29 14 95)
1969/12/31/18:00:08.294000,(-46 -37 -20 -25 -30 -31 -21 -49)
1969/12/31/18:00:08.295000,(66 12 -5 -22 -29 9 3 79)
1969/12/31/18:00:08.295000,(76 19 -14 14 44 31 29 39)
1969/12/31/18:00:08.316000,(-29 15 33 27 46 10 -34 -70)
1969/12/31/18:00:08.316000,(24 44 53 32 -8 -7 43 40)
1969/12/31/18:00:08.317000,(-2 -53 -66 -33 -50 -16 -28 -42)
1969/12/31/18:00:08.317000,(18 49 26 -10 -36 -18 6 39)
1969/12/31/18:00:08.331000,(-38 -43 -21 -12 20 -9 -14 -28)
1969/12/31/18:00:08.331000,(2 12 14 26 39 21 2 40)
1969/12/31/18:00:08.332000,(-30 -7 -31 -10 5 28 33 35)
1969/12/31/18:00:08.333000,(-48 -77 -47 -29 -8 -5 -31 -82)
1969/12/31/18:00:08.355000,(0 55 23 1 -28 -19 9 14)
1969/12/31/18:00:08.355000,(21 26 17 11 21 8 12 65)
1969/12/31/18:00:08.356000,(-30 -32 21 18 67 28 2 -30)
1969/12/31/18:00:08.356000,(48 77 21 -7 -94 -31 50 76)
1969/12/31/18:00:08.377000,(31 -15 12 8 59 43 20 -53)
1969/12/31/18:00:08.377000,(24 -25 -34 -7 -28 -13 -10 -9)
1969/12/31/18:00:08.377000,(7 -63 -64 -54 -65 -62 -57 -37)
1969/12/31/18:00:08.378000,(30 -41 -44 -21 1 7 5 27)
1969/12/31/18:00:08.392000,(-15 59 72 22 7 -1 -10 11)
1969/12/31/18:00:08.392000,(39 48 2 3 20 14 14 18)
1969/12/31/18:00:08.393000,(27 20 15 34 44 37 21 -5)
1969/12/31/18:00:08.393000,(-5 -13 -2 8 10 -10 3 37)
1969/12/31/18:00:08.414000,(28 -38 -54 -25 -4 -7 -23 -36)
1969/12/31/18:00:08.414000,(-72 -68 -39 -19 -49 -11 -20 -58)
1969/12/31/18:00:08.415000,(-41 13 33 -15 -26 -16 -23 -8)
1969/12/31/18:00:08.415000,(-37 29 2 -10 -43 -35 8 -19)
1969/12/31/18:00:08.437000,(-5 -33 2 8 0 15 40 70)
1969/12/31/18:00:08.437000,(36 -19 -12 5 35 27 22 41)
1969/12/31/18:00:08.437000,(-44 -52 -74 -14 13 -5 -6 -54)
1969/12/31/18:00:08.438000,(15 88 71 50 26 14 3 31)
1969/12/31/18:00:08.452000,(-23 19 47 7 18 9 -4 -41)
1969/12/31/18:00:08.452000,(-12 34 32 14 10 -6 -2 -6)
1969/12/31/18:00:08.459000,(10 -74 -56 -28 -66 -24 -26 -7)
1969/12/31/18:00:08.459000,(12 -23 -26 -13 29 11 0 12)
1969/12/31/18:00:08.475000,(19 9 1 7 -11 -5 -7 9)
1969/12/31/18:00:08.475000,(-73 -44 -28 -8 59 40 -36 -35)
1969/12/31/18:00:08.476000,(36 27 19 13 -21 -22 61 7)
1969/12/31/18:00:08.476000,(-11 9 13 -13 -33 -21 -28 6)
1969/12/31/18:00:08.496000,(-3 -11 -6 2 17 13 -11 -16)
1969/12/31/18:00:08.497000,(16 -19 -27 -2 30 6 13 10)
1969/12/31/18:00:08.497000,(66 4 -30 -13 -40 -3 31 57)
1969/12/31/18:00:08.497000,(-77 8 60 16 18 17 -30 -43)
1969/12/31/18:00:08.511000,(15 31 -19 -20 -12 4 18 57)
1969/12/31/18:00:08.511000,(15 127 105 19 -45 -34 12 28)
1969/12/31/18:00:08.527000,(40 -7 -7 16 52 26 16 69)
1969/12/31/18:00:08.527000,(67 -31 -39 -1 12 15 39 54)
1969/12/31/18:00:08.534000,(-24 -50 -35 -10 9 -9 -24 -23)
1969/12/31/18:00:08.534000,(15 -50 -36 -18 -35 -9 -34 15)
1969/12/31/18:00:08.535000,(-24 30 28 0 16 8 -17 -44)
1969/12/31/18:00:08.535000,(-35 -54 -42 -26 -50 -59 -30 -13)
1969/12/31/18:00:08.556000,(29 -5 -7 5 13 17 35 24)
1969/12/31/18:00:08.556000,(33 60 -1 -10 -8 -3 25 47)
1969/12/31/18:00:08.557000,(-66 44 96 48 11 5 -23 -31)
1969/12/31/18:00:08.557000,(-30 -56 -51 -11 44 32 -16 -59)
1969/12/31/18:00:08.570000,(-14 41 40 0 -73 -45 6 12)
1969/12/31/18:00:08.570000,(67 -65 -65 -14 6 1 -6 -2)
1969/12/31/18:00:08.579000,(0 -18 -21 13 65 41 49 24)
1969/12/31/18:00:08.579000,(-11 61 35 3 -1 -6 -5 -24)
1969/12/31/18:00:08.594000,(-27 71 69 6 -65 -43 -18 -15)
1969/12/31/18:00:08.594000,(8 -9 12 10 13 0 25 15)
1969/12/31/18:00:08.595000,(22 -40 -32 -3 33 27 18 26)
1969/12/31/18:00:08.595000,(49 -42 -44 -5 -8 -15 -7 59)
1969/12/31/18:00:08.616000,(13 -31 -27 -9 9 0 -16 -42)
1969/12/31/18:00:08.616000,(-83 2 13 -17 -35 -12 -1 -67)
1969/12/31/18:00:08.617000,(2 -31 -18 1 5 0 -19 -22)
1969/12/31/18:00:08.617000,(29 61 44 18 2 -3 8 2)
1969/12/31/18:00:08.640000,(-14 -27 -24 -16 -17 8 21 21)
1969/12/31/18:00:08.640000,(9 13 1 -8 -17 -4 27 57)
1969/12/31/18:00:08.641000,(40 -30 -56 -23 6 -7 -19 16)
1969/12/31/18:00:08.641000,(-70 -4 24 21 61 44 16 -79)
1969/12/31/18:00:08.654000,(-23 30 26 20 -5 -7 0 17)
1969/12/31/18:00:08.654000,(-34 37 39 9 -21 -8 -45 -41)
1969/12/31/18:00:08.655000,(-6 -1 -11 -38 -50 -41 -27 -27)
1969/12/31/18:00:08.655000,(1 15 -4 -3 -21 0 26 12)
1969/12/31/18:00:08.677000,(18 -10 -6 17 51 26 -8 7)
1969/12/31/18:00:08.677000,(7 -77 -49 -1 15 -1 -5 3)
1969/12/31/18:00:08.677000,(-37 102 93 -7 -73 -81 -22 -21)
1969/12/31/18:00:08.677000,(-29 -50 -38 -19 9 7 -21 -64)
1969/12/31/18:00:08.691000,(-57 -30 -25 -3 17 4 5 -29)
1969/12/31/18:00:08.691000,(13 -11 -21 11 28 25 -9 -20)
1969/12/31/18:00:08.699000,(54 15 5 21 55 43 41 36)
1969/12/31/18:00:08.699000,(-37 -22 17 -18 -77 -50 -15 -45)
1969/12/31/18:00:08.714000,(5 3 -15 -2 24 21 -9 16)
1969/12/31/18:00:08.714000,(6 59 68 15 -6 -2 4 2)
1969/12/31/18:00:08.715000,(-70 -69 -57 -10 26 16 -43 -100)
1969/12/31/18:00:08.715000,(74 50 22 14 21 31 38 79)
1969/12/31/18:00:08.737000,(8 -24 -36 -20 -69 -48 -10 0)
1969/12/31/18:00:08.737000,(10 -4 28 27 88 61 28 41)
1969/12/31/18:00:08.737000,(-15 -17 1 -29 -108 -64 3 9)
1969/12/31/18:00:08.737000,(32 -7 -15 8 66 52 -39 0)
1969/12/31/18:00:08.751000,(47 21 2 -3 -20 -20 -1 25)
1969/12/31/18:00:08.751000,(-68 -40 -36 -24 -52 -5 -56 -79)
1969/12/31/18:00:08.759000,(10 1 -6 4 27 -16 14 21)
1969/12/31/18:00:08.759000,(-4 -34 -12 9 12 19 -5 4)
1969/12/31/18:00:08.774000,(-26 -3 -15 -29 -22 -32 -39 -56)
1969/12/31/18:00:08.774000,(7 8 34 21 20 7 24 4)
1969/12/31/18:00:08.775000,(101 68 -50 8 39 58 34 75)
1969/12/31/18:00:08.775000,(-88 -29 68 17 -32 -32 -21 -68)
1969/12/31/18:00:08.797000,(8 27 0 4 25 15 29 39)
1969/12/31/18:00:08.797000,(-25 -79 -80 -34 -11 -20 -20 -39)
1969/12/31/18:00:08.797000,(13 48 41 10 -41 -28 -7 -16)
1969/12/31/18:00:08.797000,(46 -16 -38 -15 13 16 31 44)
1969/12/31/18:00:08.820000,(33 -2 -4 12 49 20 2 35)
1969/12/31/18:00:08.820000,(-20 8 13 8 32 14 9 4)
1969/12/31/18:00:08.821000,(2 -38 -36 -25 -71 -52 -15 -20)
1969/12/31/18:00:08.821000,(-33 -4 -10 3 69 62 11 -12)
1969/12/31/18:00:08.834000,(29 22 35 27 26 13 6 8)
1969/12/31/18:00:08.834000,(73 58 33 -5 -55 -46 34 51)
1969/12/31/18:00:08.835000,(-76 60 80 33 52 35 -29 -59)
1969/12/31/18:00:08.835000,(33 -13 0 10 -1 1 19 80)
1969/12/31/18:00:08.857000,(19 -51 -75 -29 -6 -7 -21 -34)
1969/12/31/18:00:08.857000,(0 -10 -8 -1 -31 -22 6 18)
1969/12/31/18:00:08.858000,(-36 -15 4 0 14 13 -4 -31)
1969/12/31/18:00:08.858000,(30 4 -30 -19 -45 -38 -5 -9)
1969/12/31/18:00:08.880000,(10 22 31 22 49 28 -8 33)
1969/12/31/18:00:08.880000,(-32 13 29 0 -22 -11 -6 -34)
1969/12/31/18:00:08.881000,(-16 -27 -1 5 -16 -22 -15 -28)
1969/12/31/18:00:08.881000,(-35 -39 -65 -44 -33 -22 -24 -41)
1969/12/31/18:00:08.894000,(-17 -35 -4 -4 -6 -4 10 -28)
1969/12/31/18:00:08.894000,(15 47 35 35 74 46 8 15)
1969/12/31/18:00:08.902000,(17 -36 -36 -23 -48 -31 -8 26)
1969/12/31/18:00:08.902000,(5 9 16 -12 -43 -41 -6 -32)
1969/12/31/18:00:08.916000,(13 45 18 11 22 52 41 53)
1969/12/31/18:00:08.916000,(12 -11 11 -5 -54 -85 -39 -21)
1969/12/31/18:00:08.917000,(-63 -38 -33 -16 53 46 -47 -60)
1969/12/31/18:00:08.917000,(2 26 42 41 45 38 47 65)
1969/12/31/18:00:08.940000,(49 14 9 7 57 24 27 7)
1969/12/31/18:00:08.940000,(-53 1 -7 -24 -55 -59 -65 -72)
1969/12/31/18:00:08.940000,(16 -54 -38 -39 -9 -8 16 18)
1969/12/31/18:00:08.940000,(21 55 33 7 -7 -14 -4 2)
1969/12/31/18:00:08.954000,(-64 -60 -25 0 46 39 -4 -19)
1969/12/31/18:00:08.954000,(27 -16 -30 5 38 35 14 34)
1969/12/31/18:00:08.955000,(9 13 13 6 -25 -25 8 36)
1969/12/31/18:00:08.955000,(-5 2 -8 1 8 6 -11 -15)
1969/12/31/18:00:08.976000,(-2 -25 -6 6 5 19 25 10)
1969/12/31/18:00:08.976000,(-8 43 32 10 -9 -5 0 2)
1969/12/31/18:00:08.977000,(16 -28 -6 -3 -42 -53 -17 34)
1969/12/31/18:00:08.977000,(14 38 24 0 -3 5 16 27)
1969/12/31/18:00:09.000000,(-19 -14 -16 -10 -14 -34 -19 -25)
1969/12/31/18:00:09.000000,(-2 -46 -55 -39 -70 -46 12 14)
1969/12/31/18:00:09.000000,(16 32 43 29 57 75 8 11)
1969/12/31/18:00:09.000000,(60 54 24 29 41 21 19 63)
1969/12/31/18:00:09.014000,(-47 -94 -52 -34 -75 -66 -46 -66)
1969/12/31/18:00:09.014000,(18 55 7 10 117 90 43 55)
1969/12/31/18:00:09.015000,(15 40 39 7 -20 6 -7 -14)
1969/12/31/18:00:09.015000,(-23 -31 -37 -24 -83 -100 -31 -7)
1969/12/31/18:00:09.036000,(-79 23 30 -17 -85 -55 -37 -24)
1969/12/31/18:00:09.036000,(50 -25 -32 8 61 50 13 61)
1969/12/31/18:00:09.037000,(29 -23 -10 7 37 36 14 53)
1969/12/31/18:00:09.037000,(-95 -78 -53 -32 -7 -3 -46 -82)
1969/12/31/18:00:09.060000,(-10 54 39 7 10 45 13 -19)
1969/12/31/18:00:09.060000,(14 -28 15 17 -25 -45 -4 3)
1969/12/31/18:00:09.061000,(35 86 60 40 47 27 35 39)
1969/12/31/18:00:09.061000,(-11 -23 -9 -15 -43 -49 -14 -30)
1969/12/31/18:00:09.074000,(63 -24 -38 -19 -28 -17 -10 22)
1969/12/31/18:00:09.074000,(-50 -11 19 0 4 33 11 14)
1969/12/31/18:00:09.075000,(25 8 6 27 57 27 16 -6)
1969/12/31/18:00:09.075000,(39 46 21 19 64 40 -10 -30)
1969/12/31/18:00:09.096000,(-55 -58 -35 -11 11 -10 -14 -44)
1969/12/31/18:00:09.097000,(-59 0 -7 -26 -84 -66 -24 -52)
1969/12/31/18:00:09.097000,(-21 -43 -35 -15 -38 -32 10 -8)
1969/12/31/18:00:09.097000,(-7 -9 -3 -10 14 28 -2 -12)
1969/12/31/18:00:09.120000,(73 40 40 7 -18 -9 37 96)
1969/12/31/18:00:09.120000,(-9 -6 -36 -13 34 8 -41 -91)
1969/12/31/18:00:09.120000,(14 60 54 31 4 -12 1 19)
1969/12/31/18:00:09.121000,(-71 -76 -48 -22 -8 21 12 -44)
1969/12/31/18:00:09.142000,(-3 14 27 28 81 61 33 19)
1969/12/31/18:00:09.142000,(51 -19 -40 -3 -23 -26 38 68)
1969/12/31/18:00:09.143000,(-41 -62 -60 -47 -57 -19 -23 -45)
1969/12/31/18:00:09.143000,(37 85 47 6 -29 -48 -13 21)
1969/12/31/18:00:09.156000,(-24 46 21 -12 -55 -16 -2 3)
1969/12/31/18:00:09.156000,(-8 -19 -15 -7 18 6 -7 -46)
1969/12/31/18:00:09.157000,(3 11 2 9 28 18 4 8)
1969/12/31/18:00:09.157000,(8 -24 -19 8 30 24 8 12)
1969/12/31/18:00:09.180000,(47 -28 -35 3 35 -2 13 30)
1969/12/31/18:00:09.180000,(-50 11 56 4 -55 -13 -33 -18)
1969/12/31/18:00:09.180000,(20 10 5 9 40 23 25 43)
1969/12/31/18:00:09.180000,(-17 -66 -57 -20 -10 37 -26 -21)
1969/12/31/18:00:09.194000,(30 80 46 -7 -91 -115 -34 -42)
1969/12/31/18:00:09.194000,(-12 29 51 31 65 47 14 -10)
1969/12/31/18:00:09.195000,(57 -21 -54 -30 -22 -23 14 65)
1969/12/31/18:00:09.195000,(-47 -7 29 34 106 64 -3 -55)
1969/12/31/18:00:09.217000,(24 -14 -20 -3 -16 18 29 38)
1969/12/31/18:00:09.217000,(-46 -40 -46 -42 -69 -65 -58 -57)
1969/12/31/18:00:09.218000,(-46 -4 12 11 74 54 0 -19)
1969/12/31/18:00:09.218000,(68 39 -16 -9 -42 -59 11 64)
1969/12/31/18:00:09.240000,(18 32 71 48 70 73 26 34)
1969/12/31/18:00:09.240000,(-47 -2 -9 -13 -13 -8 -17 -64)
1969/12/31/18:00:09.241000,(8 -10 -23 -24 -36 -9 -7 -5)
1969/12/31/18:00:09.241000,(-30 12 51 22 -3 -12 4 7)
1969/12/31/18:00:09.254000,(-39 -18 -21 10 22 -3 -18 -52)
1969/12/31/18:00:09.254000,(58 14 -21 -10 -11 17 19 56)
1969/12/31/18:00:09.255000,(-33 45 61 20 -7 -17 -17 -44)
1969/12/31/18:00:09.255000,(14 11 19 30 102 99 31 21)
1969/12/31/18:00:09.277000,(37 -9 -14 -27 -107 -103 4 38)
1969/12/31/18:00:09.277000,(-56 -76 -81 -59 -48 -45 -29 -53)
1969/12/31/18:00:09.278000,(-24 -39 -5 -2 21 25 17 2)
1969/12/31/18:00:09.278000,(11 48 28 0 2 -7 -2 9)
1969/12/31/18:00:09.300000,(47 12 5 48 108 75 35 58)
1969/12/31/18:00:09.300000,(32 45 11 11 27 50 31 85)
1969/12/31/18:00:09.301000,(-2 -10 29 9 -48 -76 -20 -34)
1969/12/31/18:00:09.301000,(-67 -43 -12 -14 16 26 -44 -67)
1969/12/31/18:00:09.313000,(12 22 9 -20 -97 -90 -12 11)
1969/12/31/18:00:09.313000,(73 2 -36 -19 3 4 -4 50)
1969/12/31/18:00:09.322000,(-24 26 15 17 42 32 -4 -27)
1969/12/31/18:00:09.322000,(30 -9 8 18 19 7 26 60)
1969/12/31/18:00:09.337000,(-35 -10 -26 -21 -9 11 -19 -32)
1969/12/31/18:00:09.337000,(-4 -32 22 19 -3 -10 -11 -14)
1969/12/31/18:00:09.338000,(-13 11 2 1 -1 -11 -20 -10)
1969/12/31/18:00:09.338000,(11 -28 -40 -36 -49 -12 5 -8)
1969/12/31/18:00:09.360000,(3 -17 -30 -20 0 3 -4 -13)
1969/12/31/18:00:09.360000,(-24 33 33 35 82 60 42 4)
1969/12/31/18:00:09.361000,(13 -7 4 25 -3 -23 -3 4)
1969/12/31/18:00:09.361000,(18 2 -20 -20 -56 -47 -3 46)
1969/12/31/18:00:09.373000,(-88 6 47 33 90 71 -13 -79)
1969/12/31/18:00:09.373000,(59 -46 -53 -29 -80 -48 38 65)
1969/12/31/18:00:09.389000,(4 55 48 21 80 73 -18 -17)
1969/12/31/18:00:09.389000,(14 17 0 -11 -92 -85 1 -3)
1969/12/31/18:00:09.397000,(-14 -12 -26 -20 -18 1 -10 0)
1969/12/31/18:00:09.397000,(69 35 19 36 86 59 40 63)
1969/12/31/18:00:09.398000,(8 -59 -47 4 75 66 53 56)
1969/12/31/18:00:09.398000,(5 85 76 11 -62 -62 -24 9)
1969/12/31/18:00:09.420000,(5 -25 -9 -24 -37 -35 -32 -21)
1969/12/31/18:00:09.420000,(-6 -35 -7 17 80 45 2 -11)
1969/12/31/18:00:09.421000,(21 -33 -51 -50 -128 -78 16 33)
1969/12/31/18:00:09.421000,(52 50 29 26 81 42 10 23)
1969/12/31/18:00:09.433000,(-2 -11 -25 1 19 15 2 -3)
1969/12/31/18:00:09.433000,(-22 60 110 36 9 8 4 13)
1969/12/31/18:00:09.441000,(-62 -41 -37 -21 -18 -15 -24 -79)
1969/12/31/18:00:09.441000,(15 -30 -44 -10 9 10 -11 -2)
1969/12/31/18:00:09.457000,(30 -55 -59 -28 -19 -7 -4 28)
1969/12/31/18:00:09.457000,(-13 7 42 4 -41 -49 -17 -24)
1969/12/31/18:00:09.457000,(33 36 -12 -10 2 15 3 19)
1969/12/31/18:00:09.457000,(18 23 41 50 79 72 55 48)
1969/12/31/18:00:09.480000,(-14 -14 -11 -13 -48 -47 -30 -25)
1969/12/31/18:00:09.480000,(37 -26 -43 -46 -73 -26 -5 21)
1969/12/31/18:00:09.481000,(-26 -24 -22 -29 -13 -42 -24 -26)
1969/12/31/18:00:09.481000,(-72 -57 -66 -45 3 3 -14 -61)
1969/12/31/18:00:09.493000,(17 109 93 66 53 64 30 20)
1969/12/31/18:00:09.493000,(17 7 -1 19 46 13 14 10)
1969/12/31/18:00:09.502000,(24 10 9 20 -20 -17 3 32)
1969/12/31/18:00:09.502000,(-8 -21 -14 10 35 20 16 -46)
1969/12/31/18:00:09.517000,(51 4 -34 -14 18 16 -41 -9)
1969/12/31/18:00:09.517000,(-113 -49 16 2 -15 -25 -28 -78)
1969/12/31/18:00:09.518000,(28 11 -10 -3 56 30 19 21)
1969/12/31/18:00:09.518000,(18 14 -2 -20 -125 -76 3 38)
1969/12/31/18:00:09.540000,(-91 -90 -66 -47 -16 -22 -19 -60)
1969/12/31/18:00:09.540000,(52 127 93 41 49 44 11 26)
1969/12/31/18:00:09.541000,(-14 -26 6 24 49 30 1 -21)
1969/12/31/18:00:09.541000,(6 -4 4 -2 -16 -2 19 37)
1969/12/31/18:00:09.553000,(-21 -14 -1 3 -12 -9 5 -11)
1969/12/31/18:00:09.553000,(81 -15 -58 -15 -1 12 33 92)
1969/12/31/18:00:09.561000,(-108 -82 -25 -13 -3 -35 -48 -98)
1969/12/31/18:00:09.561000,(-22 9 -3 -39 -106 -94 -37 -28)
1969/12/31/18:00:09.577000,(13 -2 -12 -21 13 18 6 2)
1969/12/31/18:00:09.577000,(24 50 23 39 55 45 24 32)
1969/12/31/18:00:09.578000,(-48 -9 45 17 -18 -22 -14 -53)
1969/12/31/18:00:09.578000,(24 -37 -43 -8 23 13 -20 -46)
1969/12/31/18:00:09.607000,(17 -30 -16 2 32 16 23 42)
1969/12/31/18:00:09.607000,(-120 -61 -36 -23 5 -6 -34 -119)
1969/12/31/18:00:09.608000,(46 41 -3 -16 -77 -23 -14 40)
1969/12/31/18:00:09.608000,(-25 -1 10 -13 -28 -34 -9 -2)
1969/12/31/18:00:09.613000,(-6 -10 13 -14 -25 -6 1 -5)
1969/12/31/18:00:09.613000,(46 38 1 24 46 26 12 11)
1969/12/31/18:00:09.623000,(14 -12 -23 2 49 50 6 -6)
1969/12/31/18:00:09.623000,(4 -8 -15 -8 -32 -15 -9 5)
1969/12/31/18:00:09.637000,(26 47 61 28 2 -4 7 30)
1969/12/31/18:00:09.637000,(-19 -38 -41 -37 -49 -26 -11 -6)
1969/12/31/18:00:09.639000,(6 23 25 19 25 9 7 14)
1969/12/31/18:00:09.639000,(-5 12 12 18 58 41 4 -9)
1969/12/31/18:00:09.660000,(21 17 3 19 80 59 35 54)
1969/12/31/18:00:09.660000,(-21 -24 -18 -26 -119 -82 -17 -85)
1969/12/31/18:00:09.662000,(-13 1 -25 -30 -25 -1 -32 -30)
1969/12/31/18:00:09.662000,(6 13 22 18 20 -4 5 2)
1969/12/31/18:00:09.673000,(-17 -8 4 -2 -12 -15 -13 -21)
1969/12/31/18:00:09.673000,(-19 -22 -5 -19 -35 -10 10 13)
1969/12/31/18:00:09.682000,(19 7 -20 -3 37 25 20 38)
1969/12/31/18:00:09.682000,(12 11 13 32 29 12 -12 1)
1969/12/31/18:00:09.696000,(-5 6 3 20 30 40 1 15)
1969/12/31/18:00:09.696000,(-5 -22 -20 -13 -26 -41 -20 -21)
1969/12/31/18:00:09.705000,(15 20 9 -6 -13 -3 26 18)
1969/12/31/18:00:09.705000,(-25 -15 2 -20 -51 -76 -78 -82)
1969/12/31/18:00:09.720000,(17 0 1 -1 3 15 5 3)
1969/12/31/18:00:09.720000,(7 10 -12 -9 -4 -2 -11 2)
1969/12/31/18:00:09.721000,(-9 -5 8 10 53 50 14 13)
1969/12/31/18:00:09.721000,(-5 1 2 36 78 59 44 27)
1969/12/31/18:00:09.743000,(-12 -36 -43 -61 -118 -109 -30 -15)
1969/12/31/18:00:09.743000,(-40 58 56 9 33 13 -19 -48)
1969/12/31/18:00:09.744000,(3 -36 -8 10 18 6 11 19)
1969/12/31/18:00:09.744000,(-59 -17 -5 7 35 45 24 18)
1969/12/31/18:00:09.757000,(-3 -13 -15 -13 -61 -72 -9 -13)
1969/12/31/18:00:09.757000,(47 10 -26 -11 9 12 8 62)
1969/12/31/18:00:09.763000,(1 -30 -11 -11 -34 -28 -24 -45)
1969/12/31/18:00:09.763000,(-18 -10 -3 -5 11 22 7 0)
1969/12/31/18:00:09.780000,(-14 24 17 18 29 21 11 -4)
1969/12/31/18:00:09.780000,(-14 -22 -6 -1 2 -2 -3 -2)
1969/12/31/18:00:09.781000,(2 9 -4 -6 -24 -18 0 -15)
1969/12/31/18:00:09.781000,(28 3 -5 -15 -16 -6 9 22)
1969/12/31/18:00:09.802000,(1 10 13 31 47 30 -18 -36)
1969/12/31/18:00:09.802000,(15 -10 -1 10 7 3 0 13)
1969/12/31/18:00:09.804000,(-25 -6 -6 -9 -24 -15 -9 -17)
1969/12/31/18:00:09.804000,(-11 -2 -4 -10 -16 -22 -11 -11)
1969/12/31/18:00:09.817000,(14 30 19 13 17 20 11 1)
1969/12/31/18:00:09.817000,(-71 -63 -25 -8 35 21 -23 -83)
1969/12/31/18:00:09.823000,(3 7 3 -7 -62 -64 -2 20)
1969/12/31/18:00:09.823000,(31 0 -14 -24 -32 -8 -2 33)
1969/12/31/18:00:09.840000,(34 16 15 6 13 10 5 7)
1969/12/31/18:00:09.840000,(0 -2 14 7 15 12 6 22)
1969/12/31/18:00:09.841000,(12 22 12 10 14 16 22 12)
1969/12/31/18:00:09.841000,(8 -5 3 20 32 15 -19 1)
1969/12/31/18:00:09.861000,(-27 -27 -23 -12 -13 -20 3 -27)
1969/12/31/18:00:09.861000,(41 12 -8 -1 7 8 13 40)
1969/12/31/18:00:09.870000,(45 20 15 0 -17 -24 -14 25)
1969/12/31/18:00:09.870000,(33 23 5 -11 -35 10 10 13)
1969/12/31/18:00:09.877000,(3 11 12 -5 17 19 43 26)
1969/12/31/18:00:09.877000,(-8 -3 2 29 17 -18 -23 -1)
1969/12/31/18:00:09.883000,(0 8 5 8 26 46 29 29)
1969/12/31/18:00:09.883000,(-15 -12 -10 6 15 -32 -16 -22)
1969/12/31/18:00:09.900000,(-45 -12 -6 -23 -97 -90 -42 -35)
1969/12/31/18:00:09.900000,(0 -3 -3 -15 -3 40 16 6)
1969/12/31/18:00:09.902000,(43 22 7 1 -26 -34 22 43)
1969/12/31/18:00:09.902000,(-4 -4 2 1 35 38 -6 -26)
1969/12/31/18:00:09.922000,(20 10 7 9 30 24 6 21)
1969/12/31/18:00:09.922000,(45 29 9 7 -5 -7 14 37)
1969/12/31/18:00:09.924000,(61 7 1 9 23 42 30 80)
1969/12/31/18:00:09.924000,(-82 -39 -14 -12 -10 -15 -3 -8)
1969/12/31/18:00:09.937000,(38 9 6 12 18 -5 -7 22)
1969/12/31/18:00:09.937000,(-44 -10 -2 -2 -13 20 11 -21)
1969/12/31/18:00:09.943000,(19 25 1 -8 0 -12 6 2)
1969/12/31/18:00:09.943000,(53 15 8 4 4 -11 4 12)
1969/12/31/18:00:09.960000,(-33 -14 -7 -6 -14 -10 0 -5)
1969/12/31/18:00:09.960000,(26 14 2 3 12 47 5 10)
1969/12/31/18:00:09.961000,(-56 -22 -4 -4 -11 -25 -18 -53)
1969/12/31/18:00:09.961000,(22 16 4 -1 -5 -1 16 36)
1969/12/31/18:00:09.990000,(27 8 3 7 19 18 -22 -8)
1969/12/31/18:00:09.990000,(17 13 2 -10 -15 -16 2 6)
1969/12/31/18:00:09.991000,(-52 -44 -19 -12 -9 -5 -17 -52)
1969/12/31/18:00:09.991000,(-49 -7 4 13 8 17 -44 -62)
1969/12/31/18:00:09.996000,(24 -11 -6 -1 8 3 7 23)
1969/12/31/18:00:09.997000,(23 2 0 0 -6 -18 13 67)
1969/12/31/18:00:10.003000,(-50 -12 -10 -13 -18 -25 -30 -67)
1969/12/31/18:00:10.003000,(56 22 10 2 7 14 18 48)
1969/12/31/18:00:10.020000,(-3 -13 -9 -3 6 25 -2 11)
1969/12/31/18:00:10.020000,(-19 -10 -10 -13 -16 -29 27 9)
1969/12/31/18:00:10.022000,(10 16 5 1 -1 -15 -34 -14)
1969/12/31/18:00:10.022000,(30 -7 -5 -4 -7 1 10 46)
1969/12/31/18:00:10.043000,(-19 12 13 12 15 16 3 28)
1969/12/31/18:00:10.043000,(82 28 7 5 0 -7 -3 33)
1969/12/31/18:00:10.044000,(-31 -23 -3 0 4 11 -14 -16)
1969/12/31/18:00:10.045000,(-7 5 -1 -5 -10 -23 5 1)
1969/12/31/18:00:10.056000,(-13 -6 -4 -5 -12 -42 -4 -11)
1969/12/31/18:00:10.056000,(-9 0 3 1 4 -1 -16 -23)
1969/12/31/18:00:10.065000,(26 10 4 4 4 7 18 31)
1969/12/31/18:00:10.065000,(3 1 0 0 -2 3 1 0)
1969/12/31/18:00:10.087000,(9 -4 -4 -3 4 19 6 6)
1969/12/31/18:00:10.087000,(31 19 8 11 10 1 13 29)
1969/12/31/18:00:10.089000,(17 3 -3 -2 1 6 0 24)
1969/12/31/18:00:10.089000,(-29 2 1 3 2 13 30 43)
1969/12/31/18:00:10.102000,(-33 -15 -5 -2 1 2 -15 -37)
1969/12/31/18:00:10.102000,(5 -8 2 1 0 -4 -4 5)
1969/12/31/18:00:10.104000,(44 34 15 12 8 12 15 18)
1969/12/31/18:00:10.104000,(25 0 -3 -4 -1 4 9 54)
1969/12/31/18:00:10.116000,(7 -12 2 2 4 10 2 37)
1969/12/31/18:00:10.116000,(20 -3 -5 -5 -10 -22 -3 13)
1969/12/31/18:00:10.125000,(14 40 12 5 3 5 -3 7)
1969/12/31/18:00:10.125000,(-35 -19 -1 3 4 5 6 -27)
1969/12/31/18:00:10.139000,(-65 -28 -13 -8 -6 -5 -21 -64)
1969/12/31/18:00:10.139000,(44 24 12 10 10 18 22 53)
1969/12/31/18:00:10.147000,(13 -3 1 -1 -1 1 -1 25)
1969/12/31/18:00:10.147000,(50 15 6 0 3 3 15 48)
1969/12/31/18:00:10.162000,(-11 4 -4 -5 -3 12 -5 -47)
1969/12/31/18:00:10.162000,(-17 -3 -1 -3 -6 -19 -7 -8)
1969/12/31/18:00:10.164000,(-2 14 4 2 0 -3 1 -24)
1969/12/31/18:00:10.164000,(-3 -18 -7 -1 -3 -4 -13 -17)
1969/12/31/18:00:10.184000,(75 28 5 -2 -2 -6 6 37)
1969/12/31/18:00:10.184000,(21 4 -5 -6 -2 4 -3 -9)
1969/12/31/18:00:10.191000,(31 -7 6 14 13 19 30 74)
1969/12/31/18:00:10.191000,(-31 -31 -21 -21 -24 -36 -54 -68)
1969/12/31/18:00:10.200000,(93 46 13 9 11 23 37 97)
1969/12/31/18:00:10.200000,(-61 -45 -31 -31 -26 -31 -49 -78)
1969/12/31/18:00:10.201000,(12 1 0 2 7 5 12 30)
1969/12/31/18:00:10.201000,(-15 3 11 15 10 19 24 -6)
1969/12/31/18:00:10.222000,(-18 11 32 25 18 10 15 -7)
1969/12/31/18:00:10.222000,(-118 -52 -35 -26 -20 -32 -74 -119)
1969/12/31/18:00:10.224000,(2 -16 -11 -11 -10 -11 -12 -3)
1969/12/31/18:00:10.224000,(9 -16 -43 -49 -15 -6 0 2)
1969/12/31/18:00:10.236000,(-15 3 -7 -6 8 -2 -8 -21)
1969/12/31/18:00:10.236000,(-11 5 61 72 15 9 15 9)
1969/12/31/18:00:10.245000,(-32 -3 8 14 2 -4 -17 -46)
1969/12/31/18:00:10.245000,(19 22 12 8 3 0 -4 -22)
1969/12/31/18:00:10.259000,(-21 -15 -27 -18 -12 -5 -3 -2)
1969/12/31/18:00:10.259000,(-14 -22 -25 -26 -4 0 -2 -8)
1969/12/31/18:00:10.266000,(0 -10 -9 -2 -4 -3 1 -1)
1969/12/31/18:00:10.266000,(12 15 8 1 -1 3 6 4)
1969/12/31/18:00:10.282000,(-28 -22 -9 -15 -7 -7 -5 9)
1969/12/31/18:00:10.282000,(16 6 -5 -8 -3 1 9 17)
1969/12/31/18:00:10.284000,(-8 -2 0 -3 -2 -1 -5 -15)
1969/12/31/18:00:10.284000,(-15 -5 0 -1 1 -5 -10 -38)
1969/12/31/18:00:10.305000,(-11 -10 -1 0 -5 -5 -5 -15)
1969/12/31/18:00:10.305000,(4 -2 -3 -1 0 3 0 2)
1969/12/31/18:00:10.306000,(-11 1 1 -6 -3 -4 -2 -2)
1969/12/31/18:00:10.306000,(-4 -1 3 2 0 0 -3 2)
1969/12/31/18:00:10.320000,(-1 -1 3 8 -2 -6 -3 -19)
1969/12/31/18:00:10.320000,(2 4 -3 -2 4 4 3 -1)
1969/12/31/18:00:10.321000,(-21 -12 -9 -12 -5 -4 -10 -30)
1969/12/31/18:00:10.321000,(8 7 7 10 2 2 0 4)
1969/12/31/18:00:10.350000,(-7 -7 -5 1 2 3 9 -12)
1969/12/31/18:00:10.350000,(-3 3 -2 -6 -1 -1 -2 9)
1969/12/31/18:00:10.351000,(-15 -10 -6 -4 -8 -5 -17 -19)
1969/12/31/18:00:10.351000,(5 3 8 6 3 -3 2 -4)
1969/12/31/18:00:10.356000,(-10 -18 -17 -7 -3 -4 -7 -4)
1969/12/31/18:00:10.356000,(3 14 6 0 4 3 21 13)
1969/12/31/18:00:10.365000,(10 1 -14 -12 -9 -2 8 14)
1969/12/31/18:00:10.365000,(7 -8 1 10 8 3 -11 11)
1969/12/31/18:00:10.380000,(-11 12 15 -2 0 4 0 -19)
1969/12/31/18:00:10.380000,(-3 -6 -6 -4 -5 -7 -16 -9)
1969/12/31/18:00:10.381000,(-4 11 11 2 0 2 12 17)
1969/12/31/18:00:10.381000,(-1 -10 -4 3 2 3 11 -4)
1969/12/31/18:00:10.402000,(5 -6 -12 0 -4 -2 4 16)
1969/12/31/18:00:10.402000,(-1 -18 -18 -10 -2 -1 3 0)
1969/12/31/18:00:10.404000,(8 -2 -8 -9 1 1 -3 21)
1969/12/31/18:00:10.404000,(-10 23 15 4 -3 0 7 -20)
1969/12/31/18:00:10.416000,(-5 10 7 3 0 -1 -1 4)
1969/12/31/18:00:10.416000,(0 7 8 -4 -2 -3 -4 6)
1969/12/31/18:00:10.425000,(0 -3 5 0 -2 -1 -9 -7)
1969/12/31/18:00:10.425000,(1 -26 -27 -11 -6 -4 -7 -2)
1969/12/31/18:00:10.440000,(-1 4 -6 -7 -4 0 16 -5)
1969/12/31/18:00:10.440000,(-2 9 14 3 1 -8 -31 -15)
1969/12/31/18:00:10.442000,(-4 2 10 9 6 7 15 0)
1969/12/31/18:00:10.442000,(-3 10 -2 -7 -4 0 -2 -1)
1969/12/31/18:00:10.462000,(-1 -34 -10 2 -3 -1 1 7)
1969/12/31/18:00:10.462000,(-6 -21 -26 7 3 3 -5 1)
1969/12/31/18:00:10.464000,(-4 11 24 9 -2 -4 -7 -11)
1969/12/31/18:00:10.464000,(7 25 -4 -26 -8 -4 -5 2)
1969/12/31/18:00:10.476000,(-10 -9 -15 -25 -8 -3 -7 -2)
1969/12/31/18:00:10.476000,(-9 -33 -9 20 3 4 5 -5)
1969/12/31/18:00:10.485000,(7 15 28 33 12 5 0 -7)
1969/12/31/18:00:10.485000,(15 34 44 51 16 8 12 25)
1969/12/31/18:00:10.500000,(-11 -22 -25 -25 -9 -9 -22 -28)
1969/12/31/18:00:10.500000,(-3 17 7 -11 -7 -2 1 -4)
1969/12/31/18:00:10.501000,(-12 -26 -43 -19 -6 -6 -3 -9)
1969/12/31/18:00:10.501000,(-2 -14 1 -17 -7 1 9 9)
1969/12/31/18:00:10.522000,(7 11 11 17 5 0 -7 2)
1969/12/31/18:00:10.522000,(4 4 -8 -19 -6 0 3 0)
1969/12/31/18:00:10.524000,(-5 -46 -50 -29 -11 -2 -1 -3)
1969/12/31/18:00:10.524000,(-2 49 49 29 11 2 -2 0)
1969/12/31/18:00:10.545000,(-12 -11 -8 -10 -9 -5 -15 -12)
1969/12/31/18:00:10.545000,(10 13 7 -9 0 3 7 2)
1969/12/31/18:00:10.546000,(-4 -16 -12 12 5 1 -1 -1)
1969/12/31/18:00:10.546000,(-13 -39 -52 -47 -16 -10 -9 -10)
1969/12/31/18:00:10.560000,(1 44 75 57 10 -1 -3 1)
1969/12/31/18:00:10.560000,(2 -28 -45 -15 1 1 7 7)
1969/12/31/18:00:10.561000,(1 21 47 18 4 -3 -1 1)
1969/12/31/18:00:10.561000,(8 -4 14 38 17 2 0 2)
1969/12/31/18:00:10.582000,(-13 -42 -63 -59 -17 -8 4 4)
1969/12/31/18:00:10.582000,(3 -29 -34 4 7 -2 -6 0)
1969/12/31/18:00:10.584000,(23 65 72 22 11 0 -1 -1)
1969/12/31/18:00:10.584000,(2 14 12 26 1 1 9 11)
1969/12/31/18:00:10.604000,(-8 -13 -17 -2 0 -2 3 -2)
1969/12/31/18:00:10.604000,(-14 -10 9 -10 -9 -4 -11 -12)
1969/12/31/18:00:10.606000,(-13 -33 -40 -26 -8 -4 -5 -9)
1969/12/31/18:00:10.606000,(0 0 -8 -17 -4 -1 1 1)
1969/12/31/18:00:10.619000,(5 -5 2 4 1 -1 -4 -1)
1969/12/31/18:00:10.619000,(-2 6 0 -13 -2 4 7 7)
1969/12/31/18:00:10.626000,(-28 -55 -25 -18 -7 -4 -4 -7)
1969/12/31/18:00:10.626000,(7 47 -14 -29 -12 -6 -6 -9)
1969/12/31/18:00:10.642000,(19 15 13 27 10 3 -2 2)
1969/12/31/18:00:10.642000,(10 41 64 43 20 11 9 7)
1969/12/31/18:00:10.644000,(-1 7 -19 -18 -8 -4 -2 1)
1969/12/31/18:00:10.644000,(-21 -59 -39 -11 -2 0 -3 -7)
1969/12/31/18:00:10.665000,(-6 -9 -39 -22 -13 -5 -3 -1)
1969/12/31/18:00:10.665000,(18 46 73 46 18 7 5 2)
1969/12/31/18:00:10.666000,(2 4 38 42 7 2 1 2)
1969/12/31/18:00:10.666000,(4 -7 -15 -8 -5 -3 -2 2)
1969/12/31/18:00:10.679000,(-3 -14 -41 -24 -4 -3 -4 -2)
1969/12/31/18:00:10.679000,(-3 -18 -9 -3 -1 1 3 3)
1969/12/31/18:00:10.686000,(-12 -10 -21 -19 -7 -3 -3 -4)
1969/12/31/18:00:10.686000,(0 -4 -1 -2 2 -2 -3 -5)
1969/12/31/18:00:10.703000,(1 -1 24 17 6 1 -1 0)
1969/12/31/18:00:10.703000,(-5 -5 -24 -20 -11 -6 -3 -3)
1969/12/31/18:00:10.708000,(2 4 -19 -16 -8 -4 -3 0)
1969/12/31/18:00:10.708000,(0 -9 17 8 -1 1 -2 -3)
1969/12/31/18:00:10.725000,(1 16 23 13 6 1 1 0)
1969/12/31/18:00:10.725000,(-3 -5 -12 3 -3 -3 1 2)
1969/12/31/18:00:10.726000,(3 19 15 8 2 -2 -2 -3)
1969/12/31/18:00:10.726000,(-5 -16 -19 -16 -6 -3 -4 -4)
1969/12/31/18:00:10.726000,(1 -1 -8 6 -3 -10 10 3)
1969/12/31/18:00:10.726000,(1 0 -5 -12 -2 -4 7 3)
1969/12/31/18:00:10.726000,(2 -3 1 2 -1 1 22 5)
1969/12/31/18:00:10.727000,(-1 0 -7 -3 -1 -10 -22 -4)
1969/12/31/18:00:10.741000,(-4 -4 13 5 3 8 -2 0)
1969/12/31/18:00:10.741000,(-1 1 -8 -4 -3 -9 -2 -1)
1969/12/31/18:00:10.742000,(1 -1 -5 -10 -6 -1 -7 -4)
1969/12/31/18:00:10.742000,(1 -1 -3 1 1 4 19 3)
1969/12/31/18:00:10.755000,(-2 1 1 0 0 1 -9 -2)
1969/12/31/18:00:10.755000,(1 -5 -7 -3 2 -2 2 0)
1969/12/31/18:00:10.756000,(-4 -4 -6 -4 -1 -8 -6 -2)
1969/12/31/18:00:10.756000,(-2 -3 0 -1 -1 -1 10 2)
1969/12/31/18:00:10.777000,(1 5 0 -2 0 -5 -2 0)
1969/12/31/18:00:10.777000,(-1 -3 2 2 1 2 -1 -3)
1969/12/31/18:00:10.785000,(-6 -2 1 1 -1 -3 -9 -6)
1969/12/31/18:00:10.785000,(1 -4 -12 -6 -4 2 8 5)
1969/12/31/18:00:10.801000,(5 6 11 3 0 5 -1 2)
1969/12/31/18:00:10.801000,(3 3 -1 10 4 0 0 11)
1969/12/31/18:00:10.801000,(-5 0 1 -4 -5 -10 -11 -26)
1969/12/31/18:00:10.801000,(4 -2 -5 2 0 -3 14 20)
1969/12/31/18:00:10.814000,(-3 -4 -18 -7 1 -3 -1 -3)
1969/12/31/18:00:10.814000,(-3 6 23 4 -2 -2 -12 -19)
1969/12/31/18:00:10.823000,(-2 2 7 8 4 2 2 5)
1969/12/31/18:00:10.823000,(1 -1 -4 -4 -4 5 0 -6)
1969/12/31/18:00:10.837000,(-3 -6 -2 -3 -2 6 -4 -4)
1969/12/31/18:00:10.837000,(-1 -11 -11 -9 -7 2 -4 4)
1969/12/31/18:00:10.838000,(-3 -4 -3 -6 -9 -1 -9 -6)
1969/12/31/18:00:10.838000,(-4 4 10 4 -1 3 -3 -9)
1969/12/31/18:00:10.861000,(0 -2 0 4 1 5 -2 1)
1969/12/31/18:00:10.861000,(-3 -5 -9 -4 -2 6 1 1)
1969/12/31/18:00:10.861000,(1 -1 1 -1 -2 2 0 7)
1969/12/31/18:00:10.861000,(0 0 -3 4 0 0 1 -4)
1969/12/31/18:00:10.874000,(1 0 14 0 -4 -3 -4 -5)
1969/12/31/18:00:10.874000,(-1 1 -2 1 1 3 2 5)
1969/12/31/18:00:10.883000,(-1 -1 -4 -2 1 0 0 4)
1969/12/31/18:00:10.883000,(-2 2 17 17 5 1 5 6)
1969/12/31/18:00:10.897000,(0 -8 -22 -16 -8 -7 -7 -8)
1969/12/31/18:00:10.898000,(1 1 -3 -3 -2 -2 -4 -6)
1969/12/31/18:00:10.898000,(3 0 -4 -2 -2 -4 1 5)
1969/12/31/18:00:10.898000,(-3 -2 -5 -4 1 -1 5 -1)
1969/12/31/18:00:10.921000,(-3 0 -1 -2 0 -1 7 8)
1969/12/31/18:00:10.921000,(-2 0 -1 -1 0 -2 -4 -9)
1969/12/31/18:00:10.922000,(0 0 1 0 -2 -2 -1 -1)
1969/12/31/18:00:10.922000,(-4 -2 -1 -5 -4 -2 -3 -4)
1969/12/31/18:00:10.935000,(-3 -1 4 2 0 4 1 5)
1969/12/31/18:00:10.935000,(-2 -2 -4 -4 -2 -3 -8 -8)
1969/12/31/18:00:10.943000,(-1 -1 -1 0 -3 -2 -3 0)
1969/12/31/18:00:10.943000,(-2 -2 2 0 -4 -2 -5 -5)
1969/12/31/18:00:10.957000,(-1 0 -1 0 0 1 -3 -1)
1969/12/31/18:00:10.957000,(0 0 -3 -3 -2 -1 5 6)
1969/12/31/18:00:10.958000,(-2 -4 -2 -1 -2 -6 -14 -13)
1969/12/31/18:00:10.958000,(0 1 1 -3 -3 -4 -1 1)
1969/12/31/18:00:10.981000,(0 1 -2 1 3 2 1 3)
1969/12/31/18:00:10.981000,(0 -2 -5 -3 -1 -2 -2 -4)
1969/12/31/18:00:10.981000,(0 -6 -4 -1 -1 -1 1 2)
1969/12/31/18:00:10.982000,(3 6 -1 -3 -2 -2 -1 -3)
1969/12/31/18:00:10.994000,(-5 -6 -1 1 1 -2 0 5)
1969/12/31/18:00:10.994000,(8 9 10 3 2 -1 5 23)
1969/12/31/18:00:11.002000,(-3 -2 -5 -3 -5 -3 2 -11)
1969/12/31/18:00:11.002000,(-6 -3 -2 0 2 -5 -13 -15)
1969/12/31/18:00:11.017000,(0 5 8 2 -1 0 8 13)
1969/12/31/18:00:11.017000,(-7 -7 -16 -7 -3 -5 -9 -27)
1969/12/31/18:00:11.018000,(4 -2 4 0 -1 0 4 6)
1969/12/31/18:00:11.018000,(-7 -8 -4 -1 -2 1 10 13)
1969/12/31/18:00:11.041000,(7 0 -1 3 5 -7 -21 -15)
1969/12/31/18:00:11.041000,(0 6 1 -2 -2 0 1 3)
1969/12/31/18:00:11.041000,(0 -1 -5 -3 0 0 0 3)
1969/12/31/18:00:11.041000,(3 2 0 0 -2 0 -5 -11)
1969/12/31/18:00:11.054000,(-2 0 2 0 -2 -1 2 -1)
1969/12/31/18:00:11.054000,(1 -4 -6 -1 -3 0 1 6)
1969/12/31/18:00:11.063000,(-3 1 3 -1 1 -2 -1 -3)
1969/12/31/18:00:11.063000,(4 1 1 1 1 -1 0 1)
1969/12/31/18:00:11.077000,(0 -1 -1 -3 -2 -3 2 0)
1969/12/31/18:00:11.077000,(-3 1 -5 -3 0 -5 -5 -17)
1969/12/31/18:00:11.078000,(5 2 0 1 2 -2 -5 14)
1969/12/31/18:00:11.078000,(-8 -6 2 3 7 11 8 -5)
1969/12/31/18:00:11.101000,(3 -11 -21 -18 -14 -11 2 8)
1969/12/31/18:00:11.101000,(-3 3 14 13 11 14 16 7)
1969/12/31/18:00:11.102000,(-13 0 3 -3 -5 -10 -9 -18)
1969/12/31/18:00:11.102000,(11 3 -10 -3 -1 -6 7 14)
1969/12/31/18:00:11.114000,(2 -13 -6 -4 -1 -2 1 -1)
1969/12/31/18:00:11.114000,(-1 19 1 -4 -2 -2 6 -8)
1969/12/31/18:00:11.123000,(-23 -2 20 8 5 -2 -1 5)
1969/12/31/18:00:11.123000,(7 0 -1 -4 -1 -4 -9 -18)
1969/12/31/18:00:11.137000,(-12 -3 -1 -2 0 4 12 10)
1969/12/31/18:00:11.137000,(-1 -11 -7 -5 -5 -1 -15 -15)
1969/12/31/18:00:11.138000,(9 0 0 0 -2 8 -10 2)
1969/12/31/18:00:11.138000,(-4 -1 5 0 -6 4 0 3)
1969/12/31/18:00:11.161000,(6 1 1 5 -2 9 -2 -3)
1969/12/31/18:00:11.161000,(10 -1 8 2 -5 3 -4 15)
1969/12/31/18:00:11.161000,(0 4 -1 2 0 5 0 -5)
1969/12/31/18:00:11.162000,(-14 -9 -2 1 -2 2 -10 -12)
1969/12/31/18:00:11.174000,(14 12 3 2 -1 8 1 -13)
1969/12/31/18:00:11.174000,(4 3 1 4 2 -10 -2 36)
1969/12/31/18:00:11.183000,(-13 -2 -2 1 7 18 -5 1)
1969/12/31/18:00:11.183000,(-4 -12 -11 -9 -16 -24 7 -18)
1969/12/31/18:00:11.197000,(38 11 6 6 7 -14 -6 -9)
1969/12/31/18:00:11.197000,(11 9 8 5 8 12 -9 21)
1969/12/31/18:00:11.198000,(3 3 -1 0 -1 13 25 -2)
1969/12/31/18:00:11.198000,(8 13 8 6 6 1 -5 11)
1969/12/31/18:00:11.221000,(-98 -34 -9 -5 -4 -14 -6 -45)
1969/12/31/18:00:11.221000,(20 1 -9 -8 -4 -7 -6 7)
1969/12/31/18:00:11.221000,(-5 -6 -11 -8 -4 -10 0 -16)
1969/12/31/18:00:11.221000,(-1 -4 0 -1 0 6 14 44)
1969/12/31/18:00:11.243000,(19 14 3 3 0 5 -10 -27)
1969/12/31/18:00:11.243000,(9 15 9 7 5 1 0 2)
1969/12/31/18:00:11.244000,(13 28 4 -1 -4 8 4 -25)
1969/12/31/18:00:11.244000,(-12 -27 -6 -1 -1 -22 -5 11)
1969/12/31/18:00:11.257000,(-35 -23 -12 -5 0 9 21 -14)
1969/12/31/18:00:11.257000,(1 -8 -6 -4 -2 15 12 2)
1969/12/31/18:00:11.258000,(10 1 5 4 1 -16 -23 -61)
1969/12/31/18:00:11.258000,(10 27 7 1 3 5 -16 -10)
1969/12/31/18:00:11.281000,(-6 -8 11 7 6 27 20 70)
1969/12/31/18:00:11.281000,(-10 -15 -13 -15 -24 -68 -26 -85)
1969/12/31/18:00:11.282000,(34 4 -9 -8 -7 -4 5 24)
1969/12/31/18:00:11.282000,(-31 -10 -5 -3 -1 -11 9 -5)
1969/12/31/18:00:11.303000,(33 11 4 1 0 25 -3 13)
1969/12/31/18:00:11.303000,(11 13 4 4 5 20 16 24)
1969/12/31/18:00:11.304000,(21 0 4 6 2 -13 -6 43)
1969/12/31/18:00:11.304000,(-8 -3 -2 1 0 3 -9 -50)
1969/12/31/18:00:11.317000,(-6 -4 -10 -9 -12 -50 -22 4)
1969/12/31/18:00:11.317000,(-38 -17 -4 -4 4 68 0 -18)
1969/12/31/18:00:11.318000,(-19 -10 -4 -3 -6 -12 4 -48)
1969/12/31/18:00:11.318000,(0 1 -2 -2 2 28 5 -7)
1969/12/31/18:00:11.341000,(12 26 14 10 3 -23 -56 -1)
1969/12/31/18:00:11.341000,(-18 -16 -14 -9 -8 -17 -8 -73)
1969/12/31/18:00:11.342000,(-6 0 6 6 10 15 21 48)
1969/12/31/18:00:11.342000,(62 21 7 4 10 39 30 62)
1969/12/31/18:00:11.363000,(16 4 -7 -11 -28 -85 -8 -50)
1969/12/31/18:00:11.363000,(-45 -22 -2 0 -3 -22 -21 -7)
1969/12/31/18:00:11.364000,(-11 -13 -9 -5 3 36 2 2)
1969/12/31/18:00:11.364000,(1 4 7 3 -1 -8 20 30)
1969/12/31/18:00:11.377000,(29 11 0 1 6 20 -7 16)
1969/12/31/18:00:11.377000,(-79 -30 -11 -2 1 1 7 -16)
1969/12/31/18:00:11.386000,(53 -3 -6 -5 -15 -59 8 86)
1969/12/31/18:00:11.386000,(-59 -30 -15 -10 2 60 37 10)
1969/12/31/18:00:11.401000,(-18 -2 -3 -3 5 53 10 -30)
1969/12/31/18:00:11.401000,(12 2 1 0 -13 -70 -38 -36)
1969/12/31/18:00:11.402000,(-19 -6 -2 0 4 6 -19 -48)
1969/12/31/18:00:11.402000,(18 10 2 -4 -13 -49 -17 11)
1969/12/31/18:00:11.423000,(-1 -3 -2 2 6 28 40 31)
1969/12/31/18:00:11.423000,(25 0 0 -2 0 3 0 60)
1969/12/31/18:00:11.424000,(22 29 14 10 11 25 25 85)
1969/12/31/18:00:11.424000,(-14 -20 -11 -9 -9 -16 -55 -67)
1969/12/31/18:00:11.437000,(-35 -12 -3 -2 3 43 19 -37)
1969/12/31/18:00:11.437000,(-23 2 0 -1 -3 -20 -3 13)
1969/12/31/18:00:11.438000,(39 -7 -4 -3 -6 -10 48 58)
1969/12/31/18:00:11.438000,(-19 15 13 8 4 -2 -25 -92)
1969/12/31/18:00:11.461000,(-10 -30 -24 -19 -12 -13 20 74)
1969/12/31/18:00:11.461000,(33 7 2 -1 5 23 13 22)
1969/12/31/18:00:11.462000,(-18 -5 -5 -4 -5 4 -26 -80)
1969/12/31/18:00:11.462000,(10 21 4 7 3 2 25 50)
1969/12/31/18:00:11.483000,(-16 -5 3 2 4 14 -20 -49)
1969/12/31/18:00:11.483000,(13 5 4 4 1 -23 10 10)
1969/12/31/18:00:11.484000,(-8 -17 -10 -8 -10 -28 -26 12)
1969/12/31/18:00:11.484000,(-43 -14 -9 -10 -11 9 -41 -68)
1969/12/31/18:00:11.497000,(7 10 3 1 1 -17 -4 8)
1969/12/31/18:00:11.497000,(16 4 0 1 4 22 9 22)
1969/12/31/18:00:11.498000,(-27 -1 1 2 4 7 11 13)
1969/12/31/18:00:11.498000,(2 -6 -3 -2 -6 -30 -31 -55)
1969/12/31/18:00:11.528000,(-9 5 2 3 2 15 1 -8)
1969/12/31/18:00:11.528000,(-8 -13 -5 -7 -6 0 -22 -74)
1969/12/31/18:00:11.529000,(-15 1 0 1 3 5 7 7)
1969/12/31/18:00:11.529000,(36 10 5 7 6 5 23 84)
1969/12/31/18:00:11.543000,(-5 -4 -4 -5 -4 -19 -8 -24)
1969/12/31/18:00:11.543000,(51 31 16 14 12 10 24 63)
1969/12/31/18:00:11.544000,(1 -19 -14 -10 -4 25 -14 45)
1969/12/31/18:00:11.544000,(15 -10 -7 -9 -14 -58 -3 15)
1969/12/31/18:00:11.557000,(13 6 4 2 -3 -21 -61 -34)
1969/12/31/18:00:11.557000,(-22 0 -1 -2 2 25 30 20)
1969/12/31/18:00:11.566000,(-6 5 2 -1 -5 -48 -24 -10)
1969/12/31/18:00:11.566000,(-7 -3 -3 -2 1 32 10 2)
1969/12/31/18:00:11.581000,(10 0 3 4 6 5 22 27)
1969/12/31/18:00:11.581000,(21 -2 -10 -9 -7 9 -2 -6)
1969/12/31/18:00:11.582000,(-13 -3 -1 -4 -5 3 -35 -63)
1969/12/31/18:00:11.582000,(8 2 4 3 4 -2 19 39)
1969/12/31/18:00:11.603000,(7 9 8 6 4 -7 -4 2)
1969/12/31/18:00:11.603000,(-37 -31 -14 -8 -7 -1 0 16)
1969/12/31/18:00:11.605000,(17 15 3 3 -2 -11 27 -6)
1969/12/31/18:00:11.605000,(-19 -13 -3 -6 -6 -27 -32 -14)
1969/12/31/18:00:11.617000,(-2 -5 -4 -5 -6 -6 5 -10)
1969/12/31/18:00:11.617000,(24 12 3 4 0 -15 16 15)
1969/12/31/18:00:11.626000,(-15 -8 -6 -4 -3 6 13 -23)
1969/12/31/18:00:11.626000,(9 -2 0 2 4 10 -1 16)
1969/12/31/18:00:11.641000,(49 27 11 8 9 15 21 53)
1969/12/31/18:00:11.641000,(-16 -22 -8 -4 -1 4 -2 4)
1969/12/31/18:00:11.642000,(8 12 7 6 7 8 -9 -18)
1969/12/31/18:00:11.642000,(10 12 7 6 9 39 49 22)
1969/12/31/18:00:11.663000,(5 10 6 3 -3 -41 -33 -7)
1969/12/31/18:00:11.663000,(19 14 8 4 -1 -1 -5 2)
1969/12/31/18:00:11.665000,(-13 -6 -2 -2 2 12 10 5)
1969/12/31/18:00:11.665000,(-17 -11 -5 -1 -4 -26 -16 -21)
1969/12/31/18:00:11.677000,(49 11 0 -2 -2 0 -10 -6)
1969/12/31/18:00:11.677000,(40 16 3 -1 0 -18 5 40)
1969/12/31/18:00:11.686000,(-58 -21 -8 -7 -4 15 -2 -87)
1969/12/31/18:00:11.686000,(19 7 -3 -4 -6 -26 -52 -6)
1969/12/31/18:00:11.701000,(-16 -4 -2 -3 2 34 9 25)
1969/12/31/18:00:11.701000,(-3 -8 1 5 19 35 14 -13)
1969/12/31/18:00:11.702000,(-2 1 4 3 -7 24 18 8)
1969/12/31/18:00:11.702000,(10 -1 -6 -8 -22 -83 -40 -16)
1969/12/31/18:00:11.723000,(-17 4 0 2 4 27 0 -38)
1969/12/31/18:00:11.723000,(-8 -5 -6 -5 -15 -51 -1 23)
1969/12/31/18:00:11.725000,(-47 -11 -10 -5 45 75 -12 -43)
1969/12/31/18:00:11.725000,(14 14 6 1 -24 22 21 -20)
1969/12/31/18:00:11.746000,(-26 -27 -15 -25 -59 -71 -16 -21)
1969/12/31/18:00:11.746000,(-43 -6 4 5 11 36 -4 -48)
1969/12/31/18:00:11.747000,(42 19 11 11 3 -15 5 24)
1969/12/31/18:00:11.747000,(-12 5 -1 0 26 18 -3 -26)
1969/12/31/18:00:11.761000,(1 -7 -4 3 13 18 38 78)
1969/12/31/18:00:11.761000,(14 7 3 5 8 5 -7 -13)
1969/12/31/18:00:11.762000,(-31 -20 -18 -26 -52 -56 -50 -77)
1969/12/31/18:00:11.762000,(-8 12 9 7 19 62 29 5)
1969/12/31/18:00:11.783000,(-34 -10 3 8 8 -43 -21 -25)
1969/12/31/18:00:11.783000,(-6 1 -2 0 33 91 7 10)
1969/12/31/18:00:11.785000,(9 6 12 27 26 -9 34 104)
1969/12/31/18:00:11.785000,(4 -17 -9 -9 -24 -68 -20 14)
1969/12/31/18:00:11.797000,(6 1 0 2 -34 -27 -24 -19)
1969/12/31/18:00:11.797000,(-28 -11 -12 -19 -30 -20 -9 -39)
1969/12/31/18:00:11.806000,(13 24 10 4 13 10 23 47)
1969/12/31/18:00:11.806000,(22 -4 -2 -8 -3 37 26 12)
1969/12/31/18:00:11.828000,(-43 -19 -5 -1 28 27 7 -3)
1969/12/31/18:00:11.828000,(25 7 2 3 14 0 -6 5)
1969/12/31/18:00:11.830000,(57 24 8 13 4 -19 9 61)
1969/12/31/18:00:11.830000,(-29 -34 -32 -2 71 82 24 -36)
1969/12/31/18:00:11.843000,(-14 -1 14 -3 -78 -70 -7 3)
1969/12/31/18:00:11.843000,(-29 1 25 2 -39 -41 -17 -4)
1969/12/31/18:00:11.845000,(-7 -16 -10 16 85 59 10 -25)
1969/12/31/18:00:11.845000,(35 -17 -16 -9 -93 -58 -5 53)
1969/12/31/18:00:11.857000,(14 43 -5 -11 31 52 18 -14)
1969/12/31/18:00:11.857000,(-22 -23 21 12 23 9 -3 1)
1969/12/31/18:00:11.866000,(-45 -13 15 11 10 -21 -30 -44)
1969/12/31/18:00:11.866000,(-2 13 -14 -19 -48 -49 -14 -5)
1969/12/31/18:00:11.881000,(42 14 -5 2 26 18 9 28)
1969/12/31/18:00:11.881000,(6 -46 -64 -26 -32 -14 6 26)
1969/12/31/18:00:11.882000,(1 -13 16 11 42 30 3 -21)
1969/12/31/18:00:11.882000,(-44 0 -16 -21 -4 0 -21 -44)
1969/12/31/18:00:11.911000,(-42 1 48 11 -38 -12 -29 -59)
1969/12/31/18:00:11.911000,(4 24 17 11 4 -5 6 3)
1969/12/31/18:00:11.912000,(61 -44 -73 -26 -33 -31 -13 -8)
1969/12/31/18:00:11.912000,(5 26 17 30 63 50 32 25)
1969/12/31/18:00:11.917000,(-59 -27 -14 -19 -24 -38 -28 -51)
1969/12/31/18:00:11.917000,(75 -6 -34 -8 -4 -14 -7 2)
1969/12/31/18:00:11.926000,(1 -6 -19 -17 -52 -26 -30 4)
1969/12/31/18:00:11.926000,(84 73 -22 -12 -28 -18 11 61)
1969/12/31/18:00:11.941000,(32 121 94 71 89 76 39 86)
1969/12/31/18:00:11.941000,(39 9 -5 16 36 15 25 43)
1969/12/31/18:00:11.942000,(-15 -17 -36 -44 -91 -52 -4 -4)
1969/12/31/18:00:11.942000,(-47 -48 -25 11 34 19 -1 47)
1969/12/31/18:00:11.963000,(-51 -128 -96 -33 48 34 -39 -68)
1969/12/31/18:00:11.963000,(30 119 88 14 -37 -58 -4 -9)
1969/12/31/18:00:11.965000,(10 89 73 39 -5 7 5 -1)
1969/12/31/18:00:11.965000,(40 26 50 18 -10 -23 38 55)
1969/12/31/18:00:11.977000,(79 -30 -34 -30 -52 -13 1 116)
1969/12/31/18:00:11.977000,(-54 -128 -116 -57 -11 -9 -15 -93)
1969/12/31/18:00:11.986000,(14 -3 18 3 51 51 4 20)
1969/12/31/18:00:11.986000,(-52 61 64 39 54 19 -19 -33)
1969/12/31/18:00:12.001000,(11 -7 -5 22 -5 -5 40 9)
1969/12/31/18:00:12.001000,(66 -42 -39 -18 2 30 37 88)
1969/12/31/18:00:12.002000,(-97 -43 -52 -63 -38 -43 -33 -72)
1969/12/31/18:00:12.002000,(-78 -3 89 21 -44 -32 -33 -43)
1969/12/31/18:00:12.023000,(-15 -6 -37 -2 21 -6 21 -15)
1969/12/31/18:00:12.023000,(8 6 -7 27 42 55 29 40)
1969/12/31/18:00:12.025000,(-9 -7 7 34 67 27 28 -41)
1969/12/31/18:00:12.025000,(28 -128 -128 -71 -94 -49 -47 -74)
1969/12/31/18:00:12.037000,(-32 123 111 32 -3 -6 -3 51)
1969/12/31/18:00:12.037000,(-50 -9 19 9 -9 -15 -45 -98)
1969/12/31/18:00:12.046000,(14 -5 16 21 49 16 -4 38)
1969/12/31/18:00:12.046000,(9 25 -32 3 21 28 29 -35)
1969/12/31/18:00:12.061000,(50 -116 -81 -7 34 4 -11 -16)
1969/12/31/18:00:12.061000,(34 25 -14 -2 -41 -9 39 20)
1969/12/31/18:00:12.063000,(-56 88 108 2 -31 -25 -66 -49)
1969/12/31/18:00:12.063000,(-26 12 -3 -4 7 5 -3 7)
1969/12/31/18:00:12.082000,(20 -89 -97 -43 -18 44 12 -11)
1969/12/31/18:00:12.082000,(-39 26 -51 -43 -5 -51 -22 -30)
1969/12/31/18:00:12.091000,(-5 69 50 19 -6 11 26 37)
1969/12/31/18:00:12.091000,(9 -64 -34 -3 11 -14 -1 -36)
1969/12/31/18:00:12.097000,(17 17 -25 -27 -60 -37 -14 11)
1969/12/31/18:00:12.097000,(-15 29 34 26 56 13 -52 -41)
1969/12/31/18:00:12.106000,(27 -117 -106 -33 -70 -11 47 78)
1969/12/31/18:00:12.106000,(62 127 108 41 67 50 13 55)
1969/12/31/18:00:12.120000,(15 -27 -41 -12 4 -9 26 10)
1969/12/31/18:00:12.120000,(-17 65 110 66 70 72 16 10)
1969/12/31/18:00:12.127000,(-13 -35 -8 3 -44 -50 -27 -50)
1969/12/31/18:00:12.127000,(-33 -44 -6 -10 -9 -29 -5 -6)
1969/12/31/18:00:12.143000,(-2 -47 -57 -34 -34 -19 -23 -31)
1969/12/31/18:00:12.143000,(-18 14 -13 -27 -33 -18 -5 -5)
1969/12/31/18:00:12.145000,(30 46 41 29 48 46 73 25)
1969/12/31/18:00:12.145000,(27 -112 -120 -50 5 0 -87 -30)
1969/12/31/18:00:12.166000,(-62 69 108 21 -29 -20 -3 -29)
1969/12/31/18:00:12.166000,(25 1 1 9 -16 -10 -3 67)
1969/12/31/18:00:12.168000,(22 -23 -15 13 40 18 1 -8)
1969/12/31/18:00:12.168000,(17 54 6 1 -14 -7 20 -11)
1969/12/31/18:00:12.180000,(-55 42 84 21 39 37 -2 -56)
1969/12/31/18:00:12.180000,(-17 -110 -77 -50 -98 -79 -38 -16)
1969/12/31/18:00:12.187000,(-7 45 8 -6 -18 1 -1 4)
1969/12/31/18:00:12.187000,(30 -68 -45 -10 -4 4 50 79)
1969/12/31/18:00:12.203000,(20 11 -8 24 62 3 -49 -66)
1969/12/31/18:00:12.203000,(-28 56 44 12 18 16 6 10)
1969/12/31/18:00:12.205000,(11 -45 -54 -31 -43 -33 -45 -4)
1969/12/31/18:00:12.205000,(30 14 14 -6 -13 26 15 -3)
1969/12/31/18:00:12.226000,(-16 -71 -46 -5 10 -12 25 16)
1969/12/31/18:00:12.226000,(-1 -112 -74 -11 14 -4 0 11)
1969/12/31/18:00:12.227000,(58 98 51 23 76 34 1 39)
1969/12/31/18:00:12.227000,(-98 64 104 17 -60 -31 -24 -55)
1969/12/31/18:00:12.248000,(30 41 14 -3 -46 -4 20 33)
1969/12/31/18:00:12.248000,(47 -59 -42 -4 24 5 28 27)
1969/12/31/18:00:12.250000,(-18 29 -2 -6 -6 -12 -45 5)
1969/12/31/18:00:12.250000,(-5 -6 -19 17 15 2 15 6)
1969/12/31/18:00:12.263000,(28 38 62 41 24 20 37 56)
1969/12/31/18:00:12.263000,(-21 27 5 -11 8 20 -49 -67)
1969/12/31/18:00:12.265000,(33 -33 -57 -39 -42 -6 36 12)
1969/12/31/18:00:12.265000,(-63 -66 -21 -16 19 -6 18 5)
1969/12/31/18:00:12.286000,(36 44 17 16 9 -7 -19 4)
1969/12/31/18:00:12.286000,(-3 -42 -26 -5 8 39 43 44)
1969/12/31/18:00:12.287000,(10 26 52 35 15 -31 -70 3)
1969/12/31/18:00:12.287000,(-19 -5 -6 -7 76 33 30 9)
1969/12/31/18:00:12.300000,(-18 -55 -78 -36 -65 -16 -31 -27)
1969/12/31/18:00:12.300000,(20 43 28 14 -4 -29 1 -4)
1969/12/31/18:00:12.307000,(6 -110 -76 -38 -28 2 41 14)
1969/12/31/18:00:12.307000,(28 92 94 49 27 53 0 15)
1969/12/31/18:00:12.323000,(2 -8 -40 -2 8 -32 -1 -48)
1969/12/31/18:00:12.323000,(-48 29 47 -3 -9 -10 -36 -11)
1969/12/31/18:00:12.325000,(-36 -34 -26 0 -26 -12 29 -13)
1969/12/31/18:00:12.325000,(7 4 19 31 32 28 5 50)
1969/12/31/18:00:12.346000,(5 -48 -56 -35 25 65 51 13)
1969/12/31/18:00:12.346000,(17 73 72 21 -6 -41 -18 -7)
1969/12/31/18:00:12.347000,(13 -27 -28 -9 -27 -30 -3 -2)
1969/12/31/18:00:12.347000,(-5 -105 -94 -40 -10 -3 10 -17)
1969/12/31/18:00:12.360000,(0 69 79 25 32 18 6 19)
1969/12/31/18:00:12.360000,(6 7 -57 -21 -44 -16 -1 -24)
1969/12/31/18:00:12.367000,(-28 11 100 35 44 46 -20 -26)
1969/12/31/18:00:12.367000,(42 37 6 -1 -52 -42 0 18)
1969/12/31/18:00:12.384000,(4 -25 -43 -4 16 -11 -9 6)
1969/12/31/18:00:12.384000,(27 66 77 30 30 34 49 23)
1969/12/31/18:00:12.385000,(-54 17 -4 -7 -7 -19 -76 -91)
1969/12/31/18:00:12.385000,(40 -53 -56 -17 -21 -1 7 55)
1969/12/31/18:00:12.406000,(-66 -21 11 7 35 12 -10 -26)
1969/12/31/18:00:12.406000,(28 -49 -34 -17 -35 -32 15 -9)
1969/12/31/18:00:12.407000,(1 76 27 4 -20 -1 0 -1)
1969/12/31/18:00:12.407000,(-13 -4 8 -27 -93 -80 -52 -83)
1969/12/31/18:00:12.420000,(29 -31 -22 2 33 18 -49 19)
1969/12/31/18:00:12.420000,(-36 9 9 4 3 7 -8 -18)
1969/12/31/18:00:12.427000,(32 -43 -24 15 45 35 53 60)
1969/12/31/18:00:12.427000,(-21 -13 -54 -21 31 19 -2 -70)
1969/12/31/18:00:12.443000,(18 18 65 24 -15 -10 21 35)
1969/12/31/18:00:12.443000,(-54 -11 -13 12 10 -1 -30 -36)
1969/12/31/18:00:12.445000,(29 -1 -1 -18 -3 11 27 34)
1969/12/31/18:00:12.445000,(-29 18 3 20 66 47 11 -13)
1969/12/31/18:00:12.466000,(22 15 5 2 -47 -30 22 10)
1969/12/31/18:00:12.466000,(24 -27 -17 -7 2 11 -39 -2)
1969/12/31/18:00:12.468000,(-59 -26 21 0 -2 -52 -14 -73)
1969/12/31/18:00:12.468000,(23 42 8 -8 -38 15 26 48)
1969/12/31/18:00:12.479000,(-57 11 35 3 25 -2 21 -17)
1969/12/31/18:00:12.479000,(15 -33 -56 -20 -1 48 42 42)
1969/12/31/18:00:12.496000,(-21 -3 -16 -6 -7 -30 -3 -15)
1969/12/31/18:00:12.496000,(-4 -84 -60 -1 41 24 9 12)
1969/12/31/18:00:12.503000,(-3 82 84 18 -23 -25 -23 -49)
1969/12/31/18:00:12.503000,(-15 -35 -50 -21 -23 -11 -6 15)
1969/12/31/18:00:12.505000,(53 53 25 -14 -29 10 23 23)
1969/12/31/18:00:12.505000,(-26 -53 25 9 -11 -28 -6 0)
1969/12/31/18:00:12.526000,(16 61 -26 -9 23 20 6 17)
1969/12/31/18:00:12.526000,(38 43 62 34 24 24 37 35)
1969/12/31/18:00:12.527000,(-9 -74 -47 -19 -18 -15 1 13)
1969/12/31/18:00:12.527000,(23 58 25 31 41 -6 -20 14)
1969/12/31/18:00:12.539000,(-13 -75 -50 -18 34 43 28 -17)
1969/12/31/18:00:12.539000,(-69 -1 23 -28 -91 -49 -43 -57)
1969/12/31/18:00:12.548000,(51 26 -31 -1 1 -22 -5 -14)
1969/12/31/18:00:12.548000,(-18 -9 -9 0 45 23 -15 -34)
1969/12/31/18:00:12.563000,(6 -75 -1 15 1 -2 26 27)
1969/12/31/18:00:12.563000,(-20 87 52 24 15 5 -4 -13)
1969/12/31/18:00:12.565000,(6 19 -13 -15 -26 10 10 38)
1969/12/31/18:00:12.565000,(30 -3 14 -9 -31 -16 13 34)
1969/12/31/18:00:12.586000,(-23 -22 -48 -5 37 27 -29 -81)
1969/12/31/18:00:12.586000,(-15 -26 23 10 -16 -31 20 8)
1969/12/31/18:00:12.587000,(-28 78 77 -4 -46 -47 -63 -50)
1969/12/31/18:00:12.587000,(44 35 -4 12 48 26 -7 26)
1969/12/31/18:00:12.599000,(-34 -94 -48 -17 -47 -31 -23 -22)
1969/12/31/18:00:12.599000,(26 25 -9 -37 -19 4 17 24)
1969/12/31/18:00:12.608000,(-10 -63 -51 -18 -14 13 39 29)
1969/12/31/18:00:12.608000,(2 76 46 21 32 -1 -6 -16)
1969/12/31/18:00:12.623000,(6 3 -1 -2 -17 6 -32 7)
1969/12/31/18:00:12.623000,(-4 -26 -35 4 53 21 -4 -16)
1969/12/31/18:00:12.625000,(36 -1 22 31 6 27 13 26)
1969/12/31/18:00:12.625000,(-48 58 79 -3 -49 -38 -14 -32)
1969/12/31/18:00:12.646000,(62 9 -75 -9 27 11 16 44)
1969/12/31/18:00:12.646000,(-21 32 72 10 -25 -45 -66 -37)
1969/12/31/18:00:12.647000,(25 13 4 18 48 47 22 23)
1969/12/31/18:00:12.647000,(-46 -83 -43 -13 -37 -17 -31 -21)
1969/12/31/18:00:12.668000,(22 38 6 -14 -13 -8 15 20)
1969/12/31/18:00:12.668000,(69 58 47 65 122 79 34 59)
1969/12/31/18:00:12.670000,(-57 -89 -1 -5 -77 -61 1 -18)
1969/12/31/18:00:12.670000,(-29 32 21 -35 -30 -22 -16 -62)
1969/12/31/18:00:12.683000,(-42 5 29 -10 2 -17 -15 -18)
1969/12/31/18:00:12.683000,(24 -72 -110 -49 -36 -56 -29 1)
1969/12/31/18:00:12.685000,(-10 -17 -16 42 108 68 43 30)
1969/12/31/18:00:12.685000,(38 -12 -37 -28 -58 -6 17 51)
1969/12/31/18:00:12.705000,(-75 -12 -1 -19 -33 -28 -32 -47)
1969/12/31/18:00:12.705000,(-26 -6 5 12 28 22 -3 -54)
1969/12/31/18:00:12.713000,(11 -95 -112 -33 -10 1 15 29)
1969/12/31/18:00:12.713000,(-25 48 73 31 -35 -31 9 -9)
1969/12/31/18:00:12.719000,(67 43 -37 -17 -1 10 -24 56)
1969/12/31/18:00:12.719000,(-20 21 56 22 6 0 54 74)
1969/12/31/18:00:12.728000,(-21 94 78 38 41 -4 -83 -102)
1969/12/31/18:00:12.728000,(55 -88 -92 -8 8 32 26 82)
1969/12/31/18:00:12.743000,(22 -6 8 -23 -49 -30 27 11)
1969/12/31/18:00:12.743000,(-18 13 42 4 -12 -19 -9 7)
1969/12/31/18:00:12.745000,(-5 -34 -66 -17 85 59 -23 -23)
1969/12/31/18:00:12.745000,(-21 7 34 12 -53 -27 11 43)
1969/12/31/18:00:12.773000,(12 -1 14 -2 -13 -5 3 -28)
1969/12/31/18:00:12.773000,(-48 -93 -71 -32 -43 -7 -34 -36)
1969/12/31/18:00:12.775000,(-13 -40 -24 -27 5 -15 14 24)
1969/12/31/18:00:12.775000,(38 37 -19 20 79 48 23 21)
1969/12/31/18:00:12.779000,(-39 24 75 33 12 6 23 19)
1969/12/31/18:00:12.779000,(15 30 19 3 -1 3 15 -11)
1969/12/31/18:00:12.788000,(0 71 25 14 -13 4 6 18)
1969/12/31/18:00:12.788000,(-33 -128 -128 -63 -3 -4 -17 -33)
1969/12/31/18:00:12.803000,(44 96 58 26 3 16 -1 16)
1969/12/31/18:00:12.803000,(33 77 56 49 60 20 22 -11)
1969/12/31/18:00:12.805000,(29 32 2 -32 -79 -61 -1 -22)
1969/12/31/18:00:12.805000,(-76 -91 15 8 -4 3 -14 -33)
1969/12/31/18:00:12.826000,(-34 -58 -49 -43 -54 -59 -62 -83)
1969/12/31/18:00:12.826000,(15 -45 -64 -19 14 11 24 6)
1969/12/31/18:00:12.827000,(15 -28 -21 -6 26 34 -13 -3)
1969/12/31/18:00:12.827000,(-6 51 28 14 6 -30 27 -21)
1969/12/31/18:00:12.839000,(-25 -63 -26 1 8 4 8 23)
1969/12/31/18:00:12.839000,(2 -13 -27 -27 -34 -14 -38 0)
1969/12/31/18:00:12.848000,(0 -38 -9 -9 -18 -28 -1 21)
1969/12/31/18:00:12.848000,(-7 127 118 60 49 32 3 -11)
1969/12/31/18:00:12.863000,(54 25 1 18 44 30 23 71)
1969/12/31/18:00:12.863000,(-8 -46 -24 -7 -17 -14 -11 -54)
1969/12/31/18:00:12.865000,(-30 -39 -39 -15 -21 -5 -11 -28)
1969/12/31/18:00:12.865000,(15 8 -1 -20 4 7 -23 -7)
1969/12/31/18:00:12.886000,(21 29 12 22 27 11 22 45)
1969/12/31/18:00:12.886000,(26 58 40 6 -21 28 4 23)
1969/12/31/18:00:12.887000,(-10 22 37 28 24 7 -4 5)
1969/12/31/18:00:12.887000,(25 -14 -16 -27 -44 -42 2 -2)
1969/12/31/18:00:12.899000,(-26 -57 -50 -37 -53 -18 -2 -17)
1969/12/31/18:00:12.899000,(16 -33 -35 -16 -1 -4 22 11)
1969/12/31/18:00:12.916000,(-27 18 40 38 66 29 14 41)
1969/12/31/18:00:12.916000,(4 22 -15 -5 -23 -7 -5 -55)
1969/12/31/18:00:12.923000,(-16 1 6 -14 -20 -14 -22 -46)
1969/12/31/18:00:12.923000,(-18 -30 -42 -13 14 9 11 3)
1969/12/31/18:00:12.924000,(-49 12 66 15 -7 -1 8 8)
1969/12/31/18:00:12.925000,(57 20 -19 2 16 7 14 95)
1969/12/31/18:00:12.946000,(-43 -48 -56 -16 -7 -14 -39 -74)
1969/12/31/18:00:12.946000,(-9 32 62 16 2 0 -1 -4)
1969/12/31/18:00:12.947000,(22 -16 -59 -28 -17 -12 -5 -8)
1969/12/31/18:00:12.947000,(1 -20 -30 0 20 18 6 24)
1969/12/31/18:00:12.959000,(29 75 78 28 -1 -9 3 8)
1969/12/31/18:00:12.959000,(-34 -45 -31 -13 -25 -23 -14 5)
1969/12/31/18:00:12.985000,(23 -12 -21 -12 8 13 24 26)
1969/12/31/18:00:12.985000,(16 25 32 19 37 36 8 -1)
1969/12/31/18:00:12.986000,(38 -6 -24 -29 -77 -45 -55 27)
1969/12/31/18:00:12.986000,(-71 -43 -35 -22 26 -2 -13 -77)
1969/12/31/18:00:12.989000,(14 28 39 38 6 -4 7 13)
1969/12/31/18:00:12.989000,(25 -6 -33 -5 39 32 9 -1)
1969/12/31/18:00:13.006000,(-42 26 65 56 61 14 11 -25)
1969/12/31/18:00:13.006000,(19 -8 -41 -40 -99 -61 -54 -2)
1969/12/31/18:00:13.007000,(-41 -5 24 -14 -14 10 4 -20)
1969/12/31/18:00:13.007000,(29 2 16 7 -4 -10 -2 23)
1969/12/31/18:00:13.019000,(47 43 -9 9 27 30 31 36)
1969/12/31/18:00:13.019000,(-31 40 78 34 28 12 -10 -21)
1969/12/31/18:00:13.029000,(45 -24 -63 -27 -17 -16 -9 -12)
1969/12/31/18:00:13.029000,(-20 -6 26 -4 -23 -13 -17 5)
1969/12/31/18:00:13.051000,(-26 -67 -42 -14 9 8 21 12)
1969/12/31/18:00:13.051000,(45 -10 -21 7 50 40 17 45)
1969/12/31/18:00:13.052000,(8 10 -11 -100 -126 -92 -26 0)
1969/12/31/18:00:13.052000,(-17 11 34 87 95 30 -3 -27)
1969/12/31/18:00:13.066000,(-38 -26 -20 -3 -2 -6 -20 -28)
1969/12/31/18:00:13.066000,(0 -8 -4 15 21 20 8 5)
1969/12/31/18:00:13.067000,(11 30 24 0 -59 -23 -12 1)
1969/12/31/18:00:13.067000,(-6 -8 -22 -17 20 3 17 3)
1969/12/31/18:00:13.079000,(52 26 25 25 24 37 32 48)
1969/12/31/18:00:13.079000,(6 -1 2 8 5 0 13 -22)
1969/12/31/18:00:13.088000,(11 0 -9 -4 3 13 11 -27)
1969/12/31/18:00:13.088000,(-39 -4 -9 -40 -61 -61 -87 -93)
1969/12/31/18:00:13.103000,(19 2 14 2 9 2 20 53)
1969/12/31/18:00:13.103000,(-13 -16 -9 -19 6 37 28 63)
1969/12/31/18:00:13.109000,(30 18 0 22 30 38 37 16)
1969/12/31/18:00:13.109000,(-53 -40 -8 -15 -52 -62 0 -24)
1969/12/31/18:00:13.126000,(-7 14 9 -3 -2 -16 -36 -36)
1969/12/31/18:00:13.126000,(-5 -13 -12 -6 -13 -9 -7 -3)
1969/12/31/18:00:13.127000,(62 38 12 23 46 32 16 28)
1969/12/31/18:00:13.127000,(40 0 -1 -2 9 48 32 28)
1969/12/31/18:00:13.148000,(-54 -18 -8 -24 -33 -29 -25 -38)
1969/12/31/18:00:13.148000,(-3 25 27 12 6 -6 10 -1)
1969/12/31/18:00:13.150000,(-31 -26 -11 9 10 11 -12 -15)
1969/12/31/18:00:13.150000,(58 20 3 -8 -14 -5 7 41)
1969/12/31/18:00:13.162000,(-22 -19 -18 -9 -10 3 5 -31)
1969/12/31/18:00:13.162000,(0 -13 -11 -11 -16 -21 -18 -10)
1969/12/31/18:00:13.171000,(1 3 -6 -45 -42 1 -20 11)
1969/12/31/18:00:13.171000,(8 13 17 58 67 18 -11 11)
1969/12/31/18:00:13.186000,(7 -2 7 28 6 12 62 1)
1969/12/31/18:00:13.186000,(-30 -2 -5 -1 -9 -32 -7 -14)
1969/12/31/18:00:13.187000,(32 8 2 13 3 5 -31 -3)
1969/12/31/18:00:13.187000,(1 -5 -5 -29 -29 -29 12 18)
1969/12/31/18:00:13.208000,(10 17 12 1 20 55 35 44)
1969/12/31/18:00:13.208000,(5 -5 -11 -10 -16 -31 -22 -57)
1969/12/31/18:00:13.210000,(-9 -24 -19 -18 -4 -5 2 -15)
1969/12/31/18:00:13.210000,(-5 13 10 -8 -11 -2 -10 -15)
1969/12/31/18:00:13.223000,(49 2 4 10 21 36 20 32)
1969/12/31/18:00:13.223000,(0 25 5 -5 -13 -26 5 15)
1969/12/31/18:00:13.225000,(-73 -47 -14 8 17 -8 -9 -16)
1969/12/31/18:00:13.225000,(-18 7 -2 -6 -12 12 4 -29)
1969/12/31/18:00:13.246000,(-37 -24 -11 -17 -20 -7 -7 -14)
1969/12/31/18:00:13.246000,(88 26 11 10 14 6 -6 76)
1969/12/31/18:00:13.247000,(-13 17 5 18 10 -15 -3 -45)
1969/12/31/18:00:13.247000,(-55 -6 14 5 -5 24 28 31)
1969/12/31/18:00:13.268000,(-14 -19 -26 -27 -16 -25 -39 -29)
1969/12/31/18:00:13.268000,(1 -12 -13 -4 0 2 10 -9)
1969/12/31/18:00:13.270000,(-9 -3 4 16 13 10 12 40)
1969/12/31/18:00:13.270000,(20 8 3 -12 -20 -9 -24 1)
1969/12/31/18:00:13.298000,(86 50 31 18 18 2 11 60)
1969/12/31/18:00:13.298000,(-99 -55 -40 -16 -8 -3 -31 -102)
1969/12/31/18:00:13.300000,(19 4 7 4 1 -4 2 12)
1969/12/31/18:00:13.300000,(-17 -15 -9 -10 -8 -9 -4 -11)
1969/12/31/18:00:13.306000,(-31 -20 -1 4 6 2 5 23)
1969/12/31/18:00:13.306000,(10 -1 6 5 2 4 -7 -22)
1969/12/31/18:00:13.307000,(-25 8 -3 -2 -2 -8 -3 -19)
1969/12/31/18:00:13.307000,(-5 -19 -16 -15 -12 -2 -15 -18)
1969/12/31/18:00:13.328000,(2 10 6 6 5 -9 -1 -6)
1969/12/31/18:00:13.328000,(-3 0 2 1 3 17 12 18)
1969/12/31/18:00:13.330000,(-4 3 9 8 5 1 -1 -2)
1969/12/31/18:00:13.330000,(2 -1 0 1 -3 1 0 -2)
1969/12/31/18:00:13.342000,(-3 3 -15 -18 -15 -18 -14 -15)
1969/12/31/18:00:13.342000,(0 -4 6 0 0 3 4 15)
1969/12/31/18:00:13.349000,(27 9 6 10 9 5 5 14)
1969/12/31/18:00:13.349000,(-16 -14 -11 -8 -8 -9 -13 -5)
1969/12/31/18:00:13.365000,(-24 -9 -1 -2 -1 -6 -4 -5)
1969/12/31/18:00:13.365000,(30 23 12 9 10 15 12 15)
1969/12/31/18:00:13.373000,(13 13 9 14 8 6 8 7)
1969/12/31/18:00:13.373000,(-1 -12 -11 -12 -12 -5 -7 -12)
1969/12/31/18:00:13.396000,(-7 3 -6 -6 -5 -12 -12 -20)
1969/12/31/18:00:13.396000,(7 -3 1 -1 2 10 8 27)
1969/12/31/18:00:13.397000,(-3 9 -8 -6 0 0 1 -1)
1969/12/31/18:00:13.397000,(-15 -14 -1 -2 -2 -3 -4 -14)
1969/12/31/18:00:13.402000,(8 -13 2 2 -2 -3 -8 -10)
1969/12/31/18:00:13.402000,(-22 -6 -8 1 4 6 5 10)
1969/12/31/18:00:13.411000,(-22 -11 2 2 -3 -6 -9 -21)
1969/12/31/18:00:13.411000,(27 22 21 10 1 4 2 8)
1969/12/31/18:00:13.426000,(6 7 -7 1 -1 -5 -1 1)
1969/12/31/18:00:13.426000,(5 -1 4 2 -1 2 4 4)
1969/12/31/18:00:13.427000,(-6 -15 -16 -10 0 1 -4 -6)
1969/12/31/18:00:13.427000,(-19 -12 -10 -8 -5 -6 -13 -22)
1969/12/31/18:00:13.448000,(-11 -4 -5 -10 -8 -9 -5 -16)
1969/12/31/18:00:13.448000,(5 -3 -3 6 5 3 -2 0)
1969/12/31/18:00:13.450000,(7 -1 -10 -9 -3 0 5 10)
1969/12/31/18:00:13.450000,(0 16 31 14 3 -2 1 -2)
1969/12/31/18:00:13.462000,(-13 -6 0 1 0 -3 -3 -8)
1969/12/31/18:00:13.462000,(21 2 -17 -8 -3 4 4 6)
1969/12/31/18:00:13.471000,(-6 -5 -1 -4 -3 -3 -3 -1)
1969/12/31/18:00:13.471000,(0 -7 2 6 -1 -1 -8 -4)
1969/12/31/18:00:13.486000,(-6 -4 -10 -2 0 -2 9 -5)
1969/12/31/18:00:13.486000,(2 -16 -14 -10 -4 -2 -8 -7)
1969/12/31/18:00:13.487000,(-14 10 37 16 6 5 2 1)
1969/12/31/18:00:13.487000,(3 7 -14 -12 -7 -4 -2 0)
1969/12/31/18:00:13.508000,(-1 9 24 17 5 0 7 2)
1969/12/31/18:00:13.508000,(14 -11 -27 -13 -3 -1 -15 -10)
1969/12/31/18:00:13.510000,(-15 7 7 -2 -3 -8 -9 -10)
1969/12/31/18:00:13.510000,(2 -44 -30 -6 3 6 5 9)
1969/12/31/18:00:13.522000,(-7 8 -6 -2 -3 0 5 0)
1969/12/31/18:00:13.522000,(-2 34 54 22 5 5 3 3)
1969/12/31/18:00:13.531000,(6 -12 -25 -5 0 5 4 -1)
1969/12/31/18:00:13.531000,(1 19 -4 -5 -4 -3 6 -3)
1969/12/31/18:00:13.546000,(-3 -37 -35 -22 -11 -10 -35 -8)
1969/12/31/18:00:13.546000,(3 -4 0 5 4 2 17 10)
1969/12/31/18:00:13.547000,(3 20 23 9 2 1 -5 5)
1969/12/31/18:00:13.547000,(2 5 -3 0 1 -1 1 0)
1969/12/31/18:00:13.576000,(-6 -4 9 4 3 3 -1 -10)
1969/12/31/18:00:13.576000,(-1 -24 -30 -13 -5 -1 -2 -1)
1969/12/31/18:00:13.577000,(2 4 6 -3 -3 -5 -8 -2)
1969/12/31/18:00:13.577000,(-2 26 18 11 6 9 12 3)
1969/12/31/18:00:13.582000,(13 -23 -24 -8 -5 -2 2 4)
1969/12/31/18:00:13.582000,(-7 59 65 17 4 1 -6 0)
1969/12/31/18:00:13.591000,(-9 -43 -37 -10 -3 0 0 -10)
1969/12/31/18:00:13.591000,(0 -10 -6 -5 -5 -3 -10 -2)
1969/12/31/18:00:13.606000,(3 28 24 11 1 3 -7 -6)
1969/12/31/18:00:13.606000,(5 -18 -16 -5 -2 1 8 5)
1969/12/31/18:00:13.607000,(18 18 -11 -15 -7 -2 -1 7)
1969/12/31/18:00:13.607000,(-25 -18 14 14 8 1 -6 -8)
1969/12/31/18:00:13.627000,(-12 -41 -20 -16 -7 1 2 0)
1969/12/31/18:00:13.627000,(4 27 21 8 0 -5 0 1)
1969/12/31/18:00:13.636000,(-5 16 23 14 3 2 0 -3)
1969/12/31/18:00:13.636000,(4 16 -4 -12 -5 -1 -5 -8)
1969/12/31/18:00:13.643000,(14 14 -4 3 0 -4 2 5)
1969/12/31/18:00:13.643000,(-14 -72 -46 -10 -1 -1 0 0)
1969/12/31/18:00:13.651000,(13 60 46 16 5 -2 5 4)
1969/12/31/18:00:13.651000,(0 -11 -11 -7 -3 0 11 7)
1969/12/31/18:00:13.666000,(-18 -21 -5 -5 1 -6 -11 -5)
1969/12/31/18:00:13.666000,(0 -4 -27 -29 -10 -5 -3 -1)
1969/12/31/18:00:13.667000,(3 -23 -16 6 4 -2 7 1)
1969/12/31/18:00:13.667000,(-12 9 -4 -20 -7 -6 4 -6)
1969/12/31/18:00:13.688000,(18 29 47 26 6 -3 -13 3)
1969/12/31/18:00:13.688000,(8 24 3 16 11 9 6 2)
1969/12/31/18:00:13.690000,(-20 -74 -37 -32 -14 -5 -2 -1)
1969/12/31/18:00:13.690000,(23 65 30 17 3 0 -3 -2)
1969/12/31/18:00:13.702000,(6 51 40 13 3 3 7 0)
1969/12/31/18:00:13.702000,(-5 2 -15 -11 -6 -4 -3 -5)
1969/12/31/18:00:13.710000,(-6 -32 -12 0 2 5 -3 5)
1969/12/31/18:00:13.710000,(-3 -27 -7 -9 -4 -4 -2 -4)
1969/12/31/18:00:13.726000,(-9 -19 -12 -12 -3 1 2 -1)
1969/12/31/18:00:13.726000,(6 36 49 19 3 -1 -1 -5)
1969/12/31/18:00:13.727000,(-20 -55 -39 -22 -9 -9 -5 -7)
1969/12/31/18:00:13.727000,(0 4 -2 -6 -2 -4 -3 2)
1969/12/31/18:00:13.727000,(7 5 -5 -13 16 -30 -24 -2)
1969/12/31/18:00:13.727000,(27 20 8 0 -13 6 19 13)
1969/12/31/18:00:13.728000,(-6 -3 -1 3 6 0 -13 -5)
1969/12/31/18:00:13.728000,(0 5 15 31 39 32 22 5)
1969/12/31/18:00:13.750000,(15 13 7 6 -13 -31 9 8)
1969/12/31/18:00:13.750000,(-1 -5 -1 2 24 50 38 11)
1969/12/31/18:00:13.751000,(1 -6 -14 -16 -25 -22 -30 -9)
1969/12/31/18:00:13.751000,(-17 -14 -13 -22 -3 1 -5 -3)
1969/12/31/18:00:13.764000,(-12 -13 -1 -9 -13 -12 7 -2)
1969/12/31/18:00:13.764000,(15 13 -7 -8 -7 -36 14 6)
1969/12/31/18:00:13.772000,(-6 2 10 0 2 22 5 4)
1969/12/31/18:00:13.772000,(8 -2 -18 -10 4 -65 3 4)
1969/12/31/18:00:13.788000,(2 -1 9 9 7 37 12 -3)
1969/12/31/18:00:13.788000,(2 8 14 30 3 20 8 1)
1969/12/31/18:00:13.788000,(12 6 -1 0 3 12 -22 -4)
1969/12/31/18:00:13.788000,(-2 -4 9 14 6 8 -6 -1)
1969/12/31/18:00:13.803000,(-18 -7 -11 -18 -12 -33 -18 -7)
1969/12/31/18:00:13.803000,(12 8 -2 -23 -8 12 8 0)
1969/12/31/18:00:13.809000,(1 1 2 5 4 15 35 7)
1969/12/31/18:00:13.809000,(5 -3 -5 -2 0 -20 -38 -2)
1969/12/31/18:00:13.824000,(1 -5 -10 -21 -20 5 3 -4)
1969/12/31/18:00:13.824000,(-10 -5 -5 11 9 4 -19 -8)
1969/12/31/18:00:13.832000,(1 -2 12 -3 -11 -10 -8 0)
1969/12/31/18:00:13.832000,(-2 7 13 8 3 26 27 -2)
1969/12/31/18:00:13.848000,(1 2 13 20 1 1 -22 -2)
1969/12/31/18:00:13.848000,(-9 -7 -5 5 8 -8 -21 -8)
1969/12/31/18:00:13.848000,(3 1 -1 5 1 9 14 3)
1969/12/31/18:00:13.848000,(4 2 0 -5 -10 1 -6 -3)
1969/12/31/18:00:13.863000,(-4 -2 -2 6 2 18 -7 2)
1969/12/31/18:00:13.863000,(-2 -6 -2 -10 -8 -7 -1 -3)
1969/12/31/18:00:13.869000,(4 0 -6 -4 -3 -6 -6 -5)
1969/12/31/18:00:13.869000,(-2 -2 -2 2 -4 10 -3 -2)
1969/12/31/18:00:13.884000,(1 0 -2 3 3 -4 -2 0)
1969/12/31/18:00:13.885000,(-3 -7 -4 -8 -5 -4 5 3)
1969/12/31/18:00:13.892000,(5 9 5 4 2 -2 -2 0)
1969/12/31/18:00:13.892000,(-1 -1 2 6 3 -9 -6 -2)
1969/12/31/18:00:13.908000,(1 -3 -6 -2 0 4 7 -2)
1969/12/31/18:00:13.908000,(-1 -2 -1 -6 -4 -8 -3 0)
1969/12/31/18:00:13.908000,(-11 -5 -4 1 1 -3 -8 -3)
1969/12/31/18:00:13.908000,(2 3 0 1 1 -2 8 2)
1969/12/31/18:00:13.923000,(1 0 0 2 1 -2 0 -1)
1969/12/31/18:00:13.923000,(0 4 6 -1 1 4 -3 -2)
1969/12/31/18:00:13.929000,(4 3 2 0 3 -5 1 5)
1969/12/31/18:00:13.929000,(-6 -8 -5 -5 -4 -3 0 -8)
1969/12/31/18:00:13.944000,(-5 -3 0 0 -2 2 -1 -4)
1969/12/31/18:00:13.944000,(-2 4 6 2 1 -2 -5 2)
1969/12/31/18:00:13.952000,(7 3 1 4 3 2 3 7)
1969/12/31/18:00:13.952000,(1 0 -2 -2 0 -3 1 3)
1969/12/31/18:00:13.969000,(-2 -7 -8 -3 -1 -1 -2 -2)
1969/12/31/18:00:13.969000,(2 -2 -6 -2 -2 -7 1 0)
1969/12/31/18:00:13.970000,(0 3 -3 -3 2 -4 1 1)
1969/12/31/18:00:13.970000,(4 0 -3 0 1 1 3 6)
1969/12/31/18:00:13.983000,(4 7 12 6 4 -1 5 10)
1969/12/31/18:00:13.983000,(-8 -11 -8 -6 -2 -5 -3 -16)
1969/12/31/18:00:13.989000,(-7 9 5 -1 0 -4 -3 -9)
1969/12/31/18:00:13.989000,(-11 -1 -2 -2 -1 -2 3 0)
1969/12/31/18:00:14.004000,(12 -5 -2 -2 -1 0 3 16)
1969/12/31/18:00:14.004000,(2 -7 -11 -10 -7 -4 9 4)
1969/12/31/18:00:14.012000,(0 15 8 5 2 -3 -18 -9)
1969/12/31/18:00:14.012000,(-3 -2 -4 -5 -1 -1 2 -3)
1969/12/31/18:00:14.028000,(11 6 -7 -6 -2 2 9 36)
1969/12/31/18:00:14.028000,(0 2 18 7 0 -3 -6 -31)
1969/12/31/18:00:14.028000,(-23 -14 -5 -3 2 2 4 3)
1969/12/31/18:00:14.028000,(-12 3 0 -1 -4 -5 -8 -19)
1969/12/31/18:00:14.050000,(-4 -11 -7 -4 -1 1 8 36)
1969/12/31/18:00:14.050000,(23 15 5 5 3 5 -3 -9)
1969/12/31/18:00:14.051000,(-21 -18 -9 -2 -2 -6 -10 -17)
1969/12/31/18:00:14.051000,(8 -3 0 -2 -2 0 4 18)
1969/12/31/18:00:14.072000,(1 6 1 0 0 3 -8 -40)
1969/12/31/18:00:14.072000,(34 5 -4 -3 -2 -1 10 55)
1969/12/31/18:00:14.073000,(-35 -4 -1 -1 -1 -5 5 2)
1969/12/31/18:00:14.073000,(8 -6 -6 -2 -4 -5 -3 -17)
1969/12/31/18:00:14.095000,(-16 -11 -5 -5 -3 -8 -15 -34)
1969/12/31/18:00:14.095000,(-24 4 3 -2 -1 6 4 -29)
1969/12/31/18:00:14.096000,(23 -7 -3 0 -1 2 -5 23)
1969/12/31/18:00:14.096000,(-9 -2 9 4 4 0 -4 20)
1969/12/31/18:00:14.110000,(4 6 2 -1 -4 7 -4 -22)
1969/12/31/18:00:14.110000,(2 3 2 1 -4 -14 -24 -21)
1969/12/31/18:00:14.111000,(15 -7 -10 -6 0 22 8 7)
1969/12/31/18:00:14.111000,(23 9 3 2 -1 -16 -5 -5)
1969/12/31/18:00:14.133000,(-19 -5 -5 -2 -5 4 -3 16)
1969/12/31/18:00:14.133000,(-35 1 2 3 -9 -30 33 5)
1969/12/31/18:00:14.133000,(9 8 2 0 8 -7 -45 -8)
1969/12/31/18:00:14.134000,(10 -10 -9 -9 -12 -14 -9 -16)
1969/12/31/18:00:14.155000,(-56 -40 -16 -13 -12 -1 -29 -30)
1969/12/31/18:00:14.155000,(12 6 4 2 4 7 7 20)
1969/12/31/18:00:14.156000,(-11 6 4 2 -3 9 5 -10)
1969/12/31/18:00:14.156000,(-8 -10 -6 -1 4 51 -10 -54)
1969/12/31/18:00:14.170000,(16 16 5 5 -2 -64 -14 25)
1969/12/31/18:00:14.170000,(-5 -16 -8 -5 -13 23 29 53)
1969/12/31/18:00:14.171000,(-6 -11 -4 -3 -9 -40 -16 -6)
1969/12/31/18:00:14.171000,(-26 2 -5 -5 -4 -4 -45 -35)
1969/12/31/18:00:14.193000,(2 -7 -5 -2 6 33 33 1)
1969/12/31/18:00:14.193000,(-1 -6 1 0 4 -4 -14 20)
1969/12/31/18:00:14.193000,(10 -5 -3 0 0 8 28 27)
1969/12/31/18:00:14.193000,(19 8 1 0 0 -5 2 54)
1969/12/31/18:00:14.215000,(-5 -1 -5 -4 -6 -14 -11 -13)
1969/12/31/18:00:14.215000,(-4 -5 -8 -6 2 4 -1 -11)
1969/12/31/18:00:14.216000,(13 -4 -5 -7 -4 0 11 4)
1969/12/31/18:00:14.216000,(-6 -1 7 9 12 10 29 42)
1969/12/31/18:00:14.230000,(38 18 8 4 5 31 14 -2)
1969/12/31/18:00:14.230000,(-20 -14 -9 -3 -2 -19 -34 -41)
1969/12/31/18:00:14.231000,(-70 -27 -22 -17 -23 -38 6 -16)
1969/12/31/18:00:14.231000,(8 9 5 0 -3 -24 26 62)
1969/12/31/18:00:14.253000,(-9 8 6 3 7 19 -2 -9)
1969/12/31/18:00:14.253000,(-7 -15 -15 -15 -10 14 14 31)
1969/12/31/18:00:14.253000,(47 28 19 11 9 5 9 21)
1969/12/31/18:00:14.253000,(-8 -24 -22 -15 -11 9 1 27)
1969/12/31/18:00:14.275000,(13 -5 -5 -7 -14 -51 13 7)
1969/12/31/18:00:14.275000,(-12 9 7 5 3 -30 -25 -61)
1969/12/31/18:00:14.276000,(5 -5 -10 -9 -3 35 -16 14)
1969/12/31/18:00:14.276000,(40 16 6 2 -2 -8 31 57)
1969/12/31/18:00:14.290000,(-26 -1 8 8 9 15 -5 -30)
1969/12/31/18:00:14.290000,(-3 -4 -5 -3 -2 1 2 3)
1969/12/31/18:00:14.291000,(9 7 10 11 9 -3 17 11)
1969/12/31/18:00:14.291000,(-12 -7 -6 -4 -3 -2 -8 -72)
1969/12/31/18:00:14.313000,(70 18 11 12 15 29 29 79)
1969/12/31/18:00:14.313000,(-2 12 15 16 13 4 3 3)
1969/12/31/18:00:14.313000,(15 22 -3 -6 -6 -12 -25 -52)
1969/12/31/18:00:14.313000,(0 10 9 8 5 1 -20 -11)
1969/12/31/18:00:14.335000,(-13 -20 -1 3 2 14 24 -15)
1969/12/31/18:00:14.335000,(-8 -21 -9 -7 -3 25 -33 -14)
1969/12/31/18:00:14.336000,(14 2 8 6 8 -20 20 16)
1969/12/31/18:00:14.336000,(-32 -8 -11 -14 -22 -57 -35 -91)
1969/12/31/18:00:14.351000,(-4 8 2 -3 -4 13 12 -11)
1969/12/31/18:00:14.351000,(-15 0 0 -1 1 -14 -48 -26)
1969/12/31/18:00:14.358000,(-1 0 -1 0 -2 16 -14 -19)
1969/12/31/18:00:14.358000,(-19 -5 -1 3 3 3 3 -18)
1969/12/31/18:00:14.373000,(5 -3 -6 -3 1 -1 -1 55)
1969/12/31/18:00:14.373000,(35 11 2 0 5 27 51 94)
1969/12/31/18:00:14.373000,(12 -7 6 3 8 10 -2 -4)
1969/12/31/18:00:14.373000,(20 15 0 -4 -3 -2 -4 -23)
1969/12/31/18:00:14.395000,(-23 -6 -9 -8 -4 5 -8 -44)
1969/12/31/18:00:14.395000,(36 3 4 5 3 -14 20 56)
1969/12/31/18:00:14.396000,(-48 -15 -9 -7 -5 -10 -40 -60)
1969/12/31/18:00:14.396000,(17 -8 5 8 9 19 27 66)
1969/12/31/18:00:14.419000,(-16 2 -1 -1 -6 -15 -38 -66)
1969/12/31/18:00:14.419000,(19 20 8 4 3 -13 33 -4)
1969/12/31/18:00:14.420000,(-16 -12 -5 -3 -2 -3 0 30)
1969/12/31/18:00:14.420000,(-2 -8 -1 -2 -5 -4 18 -1)
1969/12/31/18:00:14.425000,(-34 -10 -13 -12 -13 -15 -51 -89)
1969/12/31/18:00:14.425000,(-7 0 2 1 1 7 34 9)
1969/12/31/18:00:14.432000,(23 -9 -5 -3 -1 24 22 13)
1969/12/31/18:00:14.432000,(4 12 3 2 3 0 12 8)
1969/12/31/18:00:14.447000,(-16 -2 0 1 -3 -13 54 127)
1969/12/31/18:00:14.447000,(-43 -18 -14 -13 -9 0 -60 -128)
1969/12/31/18:00:14.454000,(-17 -6 2 2 4 17 9 -13)
1969/12/31/18:00:14.454000,(35 14 11 7 7 10 -4 -3)
1969/12/31/18:00:14.463000,(-32 -20 -10 -5 -5 -8 3 38)
1969/12/31/18:00:14.463000,(-1 7 -9 -9 -11 -4 -6 -14)
1969/12/31/18:00:14.469000,(8 2 2 1 4 9 9 24)
1969/12/31/18:00:14.469000,(13 2 4 5 6 7 5 42)
1969/12/31/18:00:14.485000,(20 -3 1 1 2 13 2 -43)
1969/12/31/18:00:14.485000,(58 11 4 2 2 6 19 92)
1969/12/31/18:00:14.492000,(9 5 3 0 -4 -26 -13 -65)
1969/12/31/18:00:14.492000,(-10 -7 -1 1 -1 -1 -67 -63)
1969/12/31/18:00:14.507000,(11 -2 -12 -13 -9 -16 -8 -4)
1969/12/31/18:00:14.507000,(13 8 8 6 4 3 -4 -3)
1969/12/31/18:00:14.523000,(43 28 15 13 10 9 37 55)
1969/12/31/18:00:14.523000,(-47 -22 -19 -19 -16 -23 -12 -20)
1969/12/31/18:00:14.525000,(21 15 7 7 4 3 20 2)
1969/12/31/18:00:14.525000,(-16 -16 -8 -6 -7 -19 -39 -40)
1969/12/31/18:00:14.529000,(-18 -21 -3 0 -2 -4 8 17)
1969/12/31/18:00:14.529000,(-16 30 3 1 -2 4 -15 -48)
1969/12/31/18:00:14.544000,(50 15 10 10 13 12 11 40)
1969/12/31/18:00:14.544000,(-101 -47 -21 -17 -14 -22 -26 -98)
1969/12/31/18:00:14.552000,(3 -20 -12 -11 -9 -11 -21 6)
1969/12/31/18:00:14.552000,(9 -6 3 4 8 14 42 75)
1969/12/31/18:00:14.567000,(-6 23 17 12 9 -10 -9 -71)
1969/12/31/18:00:14.567000,(5 0 -4 -5 -2 45 -13 -10)
1969/12/31/18:00:14.574000,(-10 -3 -2 -2 1 19 6 -11)
1969/12/31/18:00:14.574000,(-12 -5 0 1 2 6 -4 20)
1969/12/31/18:00:14.590000,(32 14 12 6 4 3 1 42)
1969/12/31/18:00:14.590000,(-5 4 5 4 3 -11 30 63)
1969/12/31/18:00:14.591000,(-44 -19 -15 -13 -12 -15 -41 -54)
1969/12/31/18:00:14.591000,(-16 -8 -1 2 4 20 14 -30)
1969/12/31/18:00:14.604000,(2 -2 6 5 5 5 -7 10)
1969/12/31/18:00:14.604000,(9 11 -6 -6 -6 -9 -7 -7)
1969/12/31/18:00:14.612000,(2 17 -3 -4 -5 -4 1 -1)
1969/12/31/18:00:14.612000,(-55 -38 -10 -5 -5 -12 -3 -23)
1969/12/31/18:00:14.627000,(10 3 5 3 5 -3 -17 -69)
1969/12/31/18:00:14.627000,(9 -11 -4 -5 -6 -5 -34 -69)
1969/12/31/18:00:14.634000,(16 21 12 11 7 8 34 43)
1969/12/31/18:00:14.634000,(16 -3 -8 -9 -9 -16 -27 -53)
1969/12/31/18:00:14.650000,(48 8 -3 -2 7 51 24 54)
1969/12/31/18:00:14.650000,(-37 -13 -8 -7 -11 -24 -28 -77)
1969/12/31/18:00:14.651000,(-4 2 2 2 -3 -8 32 43)
1969/12/31/18:00:14.651000,(7 -2 -2 -1 2 1 -12 37)
1969/12/31/18:00:14.664000,(23 2 -1 2 2 3 -14 44)
1969/12/31/18:00:14.664000,(-7 6 1 1 2 -1 1 -24)
1969/12/31/18:00:14.672000,(-1 -7 -7 -6 -8 -16 -19 -28)
1969/12/31/18:00:14.672000,(3 5 7 5 5 11 17 1)
1969/12/31/18:00:14.695000,(32 38 8 1 3 -2 12 34)
1969/12/31/18:00:14.695000,(-44 -42 -6 -2 -5 -53 -7 -6)
1969/12/31/18:00:14.696000,(0 2 2 6 10 41 -13 -54)
1969/12/31/18:00:14.696000,(-2 -2 -7 -6 -8 -14 11 -15)
1969/12/31/18:00:14.710000,(-2 -12 -5 -3 -5 -3 -8 -4)
1969/12/31/18:00:14.710000,(78 48 21 16 15 16 21 117)
1969/12/31/18:00:14.711000,(-27 -22 -15 -14 -15 -17 -42 -71)
1969/12/31/18:00:14.711000,(38 19 12 8 8 16 28 84)
1969/12/31/18:00:14.724000,(-95 -36 -22 -20 -21 -51 -53 -104)
1969/12/31/18:00:14.724000,(9 3 3 2 7 31 26 18)
1969/12/31/18:00:14.732000,(2 -5 -4 -2 -2 3 14 -15)
1969/12/31/18:00:14.732000,(-10 2 3 1 1 1 -20 -24)
1969/12/31/18:00:14.747000,(-15 -17 -12 -9 -8 -7 -4 3)
1969/12/31/18:00:14.747000,(-53 -8 3 6 5 3 2 -51)
1969/12/31/18:00:14.754000,(25 27 14 9 10 24 29 83)
1969/12/31/18:00:14.754000,(-2 -4 -2 -1 -1 -10 -14 -31)
1969/12/31/18:00:14.770000,(27 9 5 3 2 2 25 66)
1969/12/31/18:00:14.770000,(-4 -4 0 1 5 24 0 -18)
1969/12/31/18:00:14.771000,(51 7 -4 -5 -7 -31 15 52)
1969/12/31/18:00:14.771000,(10 -3 -7 -7 -4 4 -9 -13)
1969/12/31/18:00:14.784000,(-44 -9 0 0 -4 -22 -28 -62)
1969/12/31/18:00:14.784000,(26 7 0 0 -3 -8 17 16)
1969/12/31/18:00:14.792000,(-19 -11 0 0 4 19 -3 -27)
1969/12/31/18:00:14.792000,(-2 -5 -4 -3 -2 11 17 70)
1969/12/31/18:00:14.815000,(-28 -14 -9 -10 -17 -26 14 3)
1969/12/31/18:00:14.815000,(28 5 0 -2 -2 -12 -5 43)
1969/12/31/18:00:14.816000,(35 17 7 5 6 5 14 73)
1969/12/31/18:00:14.816000,(-11 -15 -4 -5 -7 -19 -13 -39)
1969/12/31/18:00:14.830000,(10 10 3 6 14 53 -5 14)
1969/12/31/18:00:14.830000,(2 2 1 -1 -14 -22 22 53)
1969/12/31/18:00:14.831000,(37 17 8 6 5 -23 10 37)
1969/12/31/18:00:14.831000,(6 2 2 3 5 23 25 84)
1969/12/31/18:00:14.844000,(8 -9 -5 -6 1 20 -10 -27)
1969/12/31/18:00:14.844000,(69 26 11 6 -1 -47 38 81)
1969/12/31/18:00:14.852000,(0 12 6 3 -2 3 -44 -43)
1969/12/31/18:00:14.852000,(-16 -13 -6 -1 -3 -26 -11 -58)
1969/12/31/18:00:14.867000,(-30 -15 -5 -5 -4 7 -11 -23)
1969/12/31/18:00:14.867000,(37 19 8 6 8 6 11 48)
1969/12/31/18:00:14.874000,(-68 -30 -20 -13 -3 -12 -10 -56)
1969/12/31/18:00:14.874000,(7 11 5 1 -8 7 5 -16)
1969/12/31/18:00:14.890000,(50 35 19 13 5 -17 39 101)
1969/12/31/18:00:14.890000,(-69 -33 -17 -11 5 36 -49 -128)
1969/12/31/18:00:14.891000,(-8 0 0 2 0 -17 6 26)
1969/12/31/18:00:14.891000,(-22 -17 0 15 43 15 -18 -29)
1969/12/31/18:00:14.905000,(-3 -12 -6 -9 -34 -15 30 48)
1969/12/31/18:00:14.905000,(45 14 -4 -25 -48 -4 10 33)
1969/12/31/18:00:14.912000,(-27 -20 -12 -14 -9 -22 -5 -32)
1969/12/31/18:00:14.912000,(12 1 -4 -1 11 -24 -11 14)
1969/12/31/18:00:14.927000,(16 8 9 23 45 31 11 37)
1969/12/31/18:00:14.927000,(-9 1 -2 -5 -24 3 3 -13)
1969/12/31/18:00:14.934000,(14 3 1 1 -3 -13 8 0)
1969/12/31/18:00:14.934000,(10 7 -1 -11 -34 -15 -4 -58)
1969/12/31/18:00:14.950000,(33 -8 -3 -1 15 14 15 41)
1969/12/31/18:00:14.950000,(-44 -19 -7 2 23 9 -28 -59)
1969/12/31/18:00:14.951000,(-15 3 5 11 14 28 -1 -27)
1969/12/31/18:00:14.951000,(1 13 9 9 38 30 16 30)
1969/12/31/18:00:14.964000,(10 0 -9 -13 -5 4 -10 -58)
1969/12/31/18:00:14.964000,(7 13 4 -6 -66 -48 -15 -22)
1969/12/31/18:00:14.972000,(24 0 3 0 3 13 10 6)
1969/12/31/18:00:14.972000,(-24 -22 -7 -13 -29 -23 -37 -97)
1969/12/31/18:00:14.987000,(-18 -4 -2 -3 13 -10 -8 -21)
1969/12/31/18:00:14.987000,(-7 -6 -1 11 42 31 15 28)
1969/12/31/18:00:14.994000,(6 4 -5 -7 -1 -5 -1 27)
1969/12/31/18:00:14.994000,(10 8 -8 -8 -1 21 20 41)
1969/12/31/18:00:15.010000,(-25 -10 14 22 4 -6 -11 -31)
1969/12/31/18:00:15.010000,(-21 10 11 24 35 17 3 14)
1969/12/31/18:00:15.011000,(24 2 -4 4 -12 -1 -16 -7)
1969/12/31/18:00:15.011000,(-17 -13 -18 -39 -41 -17 -11 -72)
1969/12/31/18:00:15.024000,(-3 18 22 2 8 -7 -4 2)
1969/12/31/18:00:15.024000,(35 13 -17 12 19 24 14 67)
1969/12/31/18:00:15.032000,(-2 -52 -14 -10 20 8 -3 -18)
1969/12/31/18:00:15.032000,(40 64 29 14 -37 -34 -2 22)
1969/12/31/18:00:15.047000,(30 -35 -49 -27 -46 -30 -19 12)
1969/12/31/18:00:15.047000,(18 21 31 -10 17 25 22 39)
1969/12/31/18:00:15.054000,(-4 -8 -16 6 25 16 -8 -19)
1969/12/31/18:00:15.054000,(4 -16 -26 -8 3 -4 -16 -17)
1969/12/31/18:00:15.070000,(-63 -37 7 8 8 6 3 -2)
1969/12/31/18:00:15.070000,(-15 13 -39 -19 5 -14 -34 -54)
1969/12/31/18:00:15.071000,(-67 4 51 27 1 0 -14 -41)
1969/12/31/18:00:15.071000,(19 -63 -52 -16 -1 11 30 87)
1969/12/31/18:00:15.084000,(-3 63 10 -14 -28 -18 -22 -49)
1969/12/31/18:00:15.084000,(-38 34 48 21 -7 1 -6 16)
1969/12/31/18:00:15.092000,(49 12 -3 2 -3 2 37 70)
1969/12/31/18:00:15.092000,(-51 -35 3 3 -10 -1 -26 -103)
1969/12/31/18:00:15.107000,(19 -30 -40 7 40 12 -3 -19)
1969/12/31/18:00:15.107000,(7 -75 -31 -23 -22 -29 -37 -21)
1969/12/31/18:00:15.114000,(-4 30 7 -7 -23 -21 11 39)
1969/12/31/18:00:15.114000,(18 6 8 16 22 8 33 83)
1969/12/31/18:00:15.130000,(-13 -14 -4 -20 -28 -12 -18 -20)
1969/12/31/18:00:15.130000,(38 -30 -44 -6 15 19 24 -6)
1969/12/31/18:00:15.131000,(33 68 31 -1 -1 -2 -17 -76)
1969/12/31/18:00:15.131000,(-28 70 58 20 12 1 2 10)
1969/12/31/18:00:15.144000,(8 10 10 21 35 25 24 38)
1969/12/31/18:00:15.144000,(-54 -88 -8 6 3 -5 -14 -48)
1969/12/31/18:00:15.152000,(44 18 -49 -19 -35 7 19 14)
1969/12/31/18:00:15.152000,(-87 -10 80 24 9 -3 -9 3)
1969/12/31/18:00:15.175000,(26 -66 -36 -7 -2 0 -18 -4)
1969/12/31/18:00:15.175000,(28 69 16 -7 -18 -7 -15 -16)
1969/12/31/18:00:15.176000,(-8 -36 -34 -20 -6 -9 -7 -16)
1969/12/31/18:00:15.176000,(25 2 -11 15 49 47 4 18)
1969/12/31/18:00:15.190000,(-19 12 12 11 -2 -15 10 19)
1969/12/31/18:00:15.190000,(-39 -82 -43 -36 -67 -60 -22 -56)
1969/12/31/18:00:15.191000,(8 11 10 0 -12 -3 -3 58)
1969/12/31/18:00:15.191000,(-4 4 -6 -10 -9 -4 0 -2)
1969/12/31/18:00:15.204000,(34 5 -1 11 35 32 24 38)
1969/12/31/18:00:15.204000,(3 -11 -23 -2 28 12 4 3)
1969/12/31/18:00:15.212000,(-24 41 27 2 -32 -23 -8 16)
1969/12/31/18:00:15.212000,(8 6 18 9 18 19 16 9)
1969/12/31/18:00:15.227000,(-12 -46 -22 -25 -34 -22 -8 2)
1969/12/31/18:00:15.227000,(3 93 54 66 92 33 11 -48)
1969/12/31/18:00:15.234000,(-65 -56 -61 -48 -59 -16 -46 -90)
1969/12/31/18:00:15.234000,(17 -4 11 -7 -34 -29 -1 -4)
1969/12/31/18:00:15.250000,(-28 -53 -59 -39 -50 -20 2 9)
1969/12/31/18:00:15.250000,(-30 86 83 11 -17 -25 -17 4)
1969/12/31/18:00:15.251000,(-26 -30 1 29 57 21 25 62)
1969/12/31/18:00:15.251000,(62 7 -39 2 12 18 21 9)
1969/12/31/18:00:15.264000,(-39 -13 3 -2 3 -6 -43 -43)
1969/12/31/18:00:15.264000,(35 -84 -102 -20 0 11 23 39)
1969/12/31/18:00:15.280000,(37 97 112 58 57 21 2 11)
1969/12/31/18:00:15.280000,(-14 28 14 -23 -83 -47 -9 19)
1969/12/31/18:00:15.287000,(-15 -59 -49 -11 -6 -6 13 8)
1969/12/31/18:00:15.287000,(1 48 49 5 1 17 -1 12)
1969/12/31/18:00:15.295000,(65 -30 -50 8 71 33 11 21)
1969/12/31/18:00:15.295000,(11 53 22 6 -21 -21 0 -1)
1969/12/31/18:00:15.318000,(-11 7 44 -2 -22 -15 -20 -39)
1969/12/31/18:00:15.318000,(3 -21 -23 -8 3 9 10 -21)
1969/12/31/18:00:15.319000,(49 -68 -81 -7 28 36 50 60)
1969/12/31/18:00:15.319000,(-41 62 66 39 22 -14 -21 -48)
1969/12/31/18:00:15.332000,(8 1 -30 -26 -60 -37 -44 -59)
1969/12/31/18:00:15.332000,(-56 -36 -6 3 16 35 1 -23)
1969/12/31/18:00:15.340000,(1 -56 -31 -15 -48 -38 -5 10)
1969/12/31/18:00:15.340000,(71 -128 -128 -43 35 24 -11 21)
1969/12/31/18:00:15.356000,(59 106 25 37 35 15 28 22)
1969/12/31/18:00:15.356000,(-52 76 99 32 -39 -25 -19 -36)
1969/12/31/18:00:15.356000,(-35 -16 -30 -19 -29 -10 -11 -41)
1969/12/31/18:00:15.356000,(-14 -11 -11 5 16 10 -5 8)
1969/12/31/18:00:15.378000,(4 -23 -18 -9 12 16 19 -21)
1969/12/31/18:00:15.378000,(80 -36 -49 -10 23 7 16 80)
1969/12/31/18:00:15.379000,(-102 -21 23 5 -11 -13 -5 -54)
1969/12/31/18:00:15.379000,(6 -96 -105 -42 -15 2 -8 13)
1969/12/31/18:00:15.392000,(15 84 51 16 33 11 16 16)
1969/12/31/18:00:15.392000,(-7 -78 -49 -14 -59 -32 -1 36)
1969/12/31/18:00:15.400000,(-40 41 19 -28 -45 -28 -36 -45)
1969/12/31/18:00:15.400000,(17 67 58 34 25 9 7 11)
1969/12/31/18:00:15.416000,(7 -70 -59 -1 47 25 11 10)
1969/12/31/18:00:15.416000,(4 23 -33 -11 30 43 -10 -23)
1969/12/31/18:00:15.416000,(-58 44 65 5 -49 -52 -23 -54)
1969/12/31/18:00:15.416000,(-68 -89 -59 -28 -50 -50 -50 -51)
1969/12/31/18:00:15.438000,(-25 43 31 -2 0 -1 -4 -37)
1969/12/31/18:00:15.438000,(-24 -128 -95 -23 4 -1 21 17)
1969/12/31/18:00:15.439000,(62 -2 -39 10 53 48 13 18)
1969/12/31/18:00:15.439000,(-110 127 127 52 19 11 -22 -97)
1969/12/31/18:00:15.452000,(-9 -2 -6 24 6 -7 27 13)
1969/12/31/18:00:15.452000,(108 14 -2 13 5 12 -18 35)
1969/12/31/18:00:15.460000,(1 -125 -104 -69 -64 -20 18 33)
1969/12/31/18:00:15.460000,(-17 -46 -42 -27 -8 -11 3 -11)
1969/12/31/18:00:15.474000,(-29 77 81 25 24 6 -13 -36)
1969/12/31/18:00:15.474000,(-56 9 8 -16 -17 -20 -33 -70)
1969/12/31/18:00:15.483000,(76 49 41 31 26 2 0 61)
1969/12/31/18:00:15.483000,(-9 -37 -51 -14 -18 4 4 6)
1969/12/31/18:00:15.500000,(65 -20 -10 -30 -21 -17 28 65)
1969/12/31/18:00:15.500000,(-12 25 -2 -3 1 -15 -12 5)
1969/12/31/18:00:15.501000,(10 78 93 24 -78 -34 -6 -16)
1969/12/31/18:00:15.501000,(-24 -40 -21 22 96 59 28 -2)
1969/12/31/18:00:15.512000,(-16 -50 -44 -21 -51 5 -6 -1)
1969/12/31/18:00:15.512000,(5 98 84 29 25 -2 26 -10)
1969/12/31/18:00:15.521000,(-52 -84 -71 -20 27 33 -15 -24)
1969/12/31/18:00:15.521000,(85 101 68 21 -24 -14 40 98)
1969/12/31/18:00:15.534000,(-50 -76 -60 -6 24 7 -13 -39)
1969/12/31/18:00:15.534000,(21 45 81 11 -19 3 36 57)
1969/12/31/18:00:15.543000,(-31 -60 -30 -1 15 10 -6 -3)
1969/12/31/18:00:15.543000,(35 33 -5 -11 -30 -7 2 13)
1969/12/31/18:00:15.558000,(-43 37 35 8 -16 -29 -25 -34)
1969/12/31/18:00:15.558000,(99 -64 -78 -23 2 8 24 76)
1969/12/31/18:00:15.560000,(-54 52 76 21 37 4 -22 -31)
1969/12/31/18:00:15.560000,(32 -38 -42 -15 -25 -5 21 34)
1969/12/31/18:00:15.572000,(29 -11 -5 -8 -3 8 -24 13)
1969/12/31/18:00:15.572000,(-74 7 26 24 18 -10 -3 -72)
1969/12/31/18:00:15.581000,(67 5 -47 -21 -13 22 -10 12)
1969/12/31/18:00:15.581000,(-89 -80 -39 -13 25 18 24 -42)
1969/12/31/18:00:15.595000,(2 84 75 6 -65 -43 -31 -17)
1969/12/31/18:00:15.595000,(29 -4 -17 -16 -9 -23 -39 20)
1969/12/31/18:00:15.602000,(-19 -66 -39 11 37 -6 6 -33)
1969/12/31/18:00:15.602000,(36 23 -23 -14 25 17 -11 15)
1969/12/31/18:00:15.618000,(-25 22 27 40 13 14 8 0)
1969/12/31/18:00:15.618000,(-24 -2 -20 -48 -75 -58 -10 -32)
1969/12/31/18:00:15.620000,(-10 7 5 -6 -52 -20 -4 3)
1969/12/31/18:00:15.620000,(23 -55 -47 6 74 31 1 6)
1969/12/31/18:00:15.641000,(-24 -63 -22 6 21 41 11 -6)
1969/12/31/18:00:15.641000,(53 57 26 23 16 7 44 68)
1969/12/31/18:00:15.642000,(-13 -17 -14 -28 -27 -22 -24 -14)
1969/12/31/18:00:15.642000,(-15 73 77 38 -1 8 26 -3)
1969/12/31/18:00:15.655000,(75 46 -16 22 75 27 7 39)
1969/12/31/18:00:15.655000,(-101 -17 43 -22 -82 -40 -27 -75)
1969/12/31/18:00:15.662000,(14 -5 -3 -1 13 14 23 36)
1969/12/31/18:00:15.662000,(56 -128 -106 -31 7 2 -7 59)
1969/12/31/18:00:15.678000,(-54 96 78 16 -11 -8 1 -54)
1969/12/31/18:00:15.678000,(14 9 -19 13 34 33 -8 -8)
1969/12/31/18:00:15.680000,(-1 -10 -7 -8 2 4 -30 -4)
1969/12/31/18:00:15.680000,(55 11 30 4 -31 -22 -16 5)
1969/12/31/18:00:15.701000,(-9 -102 -86 -39 -50 -45 7 17)
1969/12/31/18:00:15.701000,(28 -53 -75 -13 66 54 -5 -62)
1969/12/31/18:00:15.702000,(-46 30 96 44 20 0 -1 -48)
1969/12/31/18:00:15.702000,(-3 108 54 -9 -30 -13 9 10)
1969/12/31/18:00:15.715000,(-50 -33 19 -23 -81 -52 -40 -32)
1969/12/31/18:00:15.715000,(-1 -31 -13 11 27 25 16 18)
1969/12/31/18:00:15.722000,(28 -11 -40 9 50 28 26 19)
1969/12/31/18:00:15.722000,(16 -22 -5 2 -12 -11 -11 -4)
1969/12/31/18:00:15.738000,(31 -11 -17 3 55 41 27 62)
1969/12/31/18:00:15.738000,(13 36 3 -1 -16 11 32 31)
1969/12/31/18:00:15.740000,(-30 -29 -9 -6 14 -18 -43 -23)
1969/12/31/18:00:15.740000,(-5 -3 20 1 -48 -40 -4 22)
1969/12/31/18:00:15.761000,(37 16 -30 -10 6 -7 -42 -34)
1969/12/31/18:00:15.761000,(-25 6 27 -7 -41 -8 20 19)
1969/12/31/18:00:15.762000,(6 58 13 -5 1 8 13 19)
1969/12/31/18:00:15.762000,(-14 -20 -24 -18 -23 8 -3 -3)
1969/12/31/18:00:15.775000,(9 -51 -43 -13 6 -17 13 9)
1969/12/31/18:00:15.775000,(-20 -30 3 18 55 17 -41 -38)
1969/12/31/18:00:15.782000,(6 -22 -15 13 -20 -7 18 4)
1969/12/31/18:00:15.782000,(-66 100 111 -32 -98 -98 -60 -63)
1969/12/31/18:00:15.798000,(11 -47 -52 4 30 28 22 -5)
1969/12/31/18:00:15.798000,(50 -11 -15 2 4 -8 18 47)
1969/12/31/18:00:15.800000,(-75 -56 -10 8 57 35 -11 -35)
1969/12/31/18:00:15.800000,(29 -70 -42 12 40 32 30 40)
1969/12/31/18:00:15.821000,(-7 47 24 -11 -35 -14 -5 -10)
1969/12/31/18:00:15.821000,(-18 4 -12 0 0 0 -4 -31)
1969/12/31/18:00:15.827000,(7 -18 -1 5 -6 7 11 20)
1969/12/31/18:00:15.827000,(47 10 -34 10 84 59 55 48)
1969/12/31/18:00:15.835000,(-67 127 127 24 -91 -88 -86 -79)
1969/12/31/18:00:15.835000,(3 -29 -25 -4 24 16 23 45)
1969/12/31/18:00:15.842000,(98 9 -40 -21 -41 -28 6 44)
1969/12/31/18:00:15.842000,(-34 -36 -7 3 16 5 -24 -55)
1969/12/31/18:00:15.858000,(19 -38 -43 -15 6 27 21 44)
1969/12/31/18:00:15.858000,(-8 -47 -58 -26 -34 -26 -12 5)
1969/12/31/18:00:15.860000,(-37 126 113 32 34 19 10 4)
1969/12/31/18:00:15.860000,(-2 66 50 25 -16 -14 3 5)
1969/12/31/18:00:15.881000,(6 -54 -38 -21 -5 17 8 -5)
1969/12/31/18:00:15.881000,(2 -48 -16 2 -40 -52 -60 -7)
1969/12/31/18:00:15.882000,(41 -10 -60 -29 28 31 40 34)
1969/12/31/18:00:15.882000,(-27 -1 14 24 25 13 -19 -43)
1969/12/31/18:00:15.895000,(5 -42 -31 -7 12 14 26 32)
1969/12/31/18:00:15.895000,(-37 48 92 31 18 12 6 -21)
1969/12/31/18:00:15.902000,(27 40 -10 6 1 -10 -15 -27)
1969/12/31/18:00:15.902000,(-49 -3 13 -2 -27 -8 -5 -11)
1969/12/31/18:00:15.918000,(2 -24 -11 3 13 6 38 37)
1969/12/31/18:00:15.918000,(46 5 5 41 116 110 36 9)
1969/12/31/18:00:15.920000,(34 -33 -69 -63 -120 -106 5 44)
1969/12/31/18:00:15.920000,(-15 -20 8 -19 -6 -24 -56 -70)
1969/12/31/18:00:15.941000,(-97 73 96 43 100 37 0 -57)
1969/12/31/18:00:15.941000,(-53 -80 -66 -9 0 -16 4 -14)
1969/12/31/18:00:15.942000,(24 36 32 -11 -61 -18 5 5)
1969/12/31/18:00:15.942000,(35 -5 -49 23 99 114 55 56)
1969/12/31/18:00:15.954000,(52 -119 -99 -78 -128 -123 -41 -7)
1969/12/31/18:00:15.954000,(-82 63 58 3 17 -27 -66 -76)
1969/12/31/18:00:15.969000,(-42 14 43 42 59 31 -12 -71)
1969/12/31/18:00:15.969000,(81 -1 -30 5 -4 6 21 65)
1969/12/31/18:00:15.978000,(-43 11 36 8 40 51 8 -26)
1969/12/31/18:00:15.978000,(28 -39 -40 -27 -47 -29 2 6)
1969/12/31/18:00:15.980000,(-19 -64 -45 -25 -28 -20 -19 -15)
1969/12/31/18:00:15.980000,(-18 6 13 11 11 2 -1 6)
1969/12/31/18:00:16.000000,(40 22 -5 27 39 33 37 38)
1969/12/31/18:00:16.000000,(-5 5 9 -19 -57 -23 22 34)
1969/12/31/18:00:16.002000,(-10 -29 -42 -29 -37 -5 -17 -27)
1969/12/31/18:00:16.002000,(-18 70 68 23 -5 -13 0 -18)
1969/12/31/18:00:16.014000,(-30 39 31 1 20 -12 -44 -72)
1969/12/31/18:00:16.014000,(-28 -7 3 0 -45 -29 1 -17)
1969/12/31/18:00:16.023000,(108 50 46 47 67 55 59 108)
1969/12/31/18:00:16.023000,(1 -53 -65 -32 0 -10 -10 -2)
1969/12/31/18:00:16.038000,(40 42 2 18 43 22 43 71)
1969/12/31/18:00:16.038000,(-32 96 88 18 -65 -42 -60 -95)
1969/12/31/18:00:16.040000,(-23 -15 9 -7 -13 -18 37 33)
1969/12/31/18:00:16.040000,(-1 -54 -45 -30 -34 -24 -49 -37)
1969/12/31/18:00:16.061000,(43 -31 -39 -9 27 24 16 54)
1969/12/31/18:00:16.061000,(41 -15 -7 24 87 57 43 76)
1969/12/31/18:00:16.062000,(-28 -29 -7 19 5 -5 -18 -10)
1969/12/31/18:00:16.062000,(-40 -20 8 -25 -36 -34 -23 -57)
1969/12/31/18:00:16.075000,(63 -9 -55 -25 -9 15 0 9)
1969/12/31/18:00:16.075000,(-33 42 57 31 45 22 -8 -8)
1969/12/31/18:00:16.082000,(-11 -44 -18 -5 -2 -18 -19 -21)
1969/12/31/18:00:16.082000,(26 30 1 -7 -24 -8 12 21)
1969/12/31/18:00:16.098000,(39 55 40 51 36 10 15 10)
1969/12/31/18:00:16.098000,(-49 -66 -48 -69 -115 -48 15 -4)
1969/12/31/18:00:16.100000,(-8 61 24 -16 -4 -14 -53 -36)
1969/12/31/18:00:16.100000,(37 -20 -37 9 27 25 26 83)
1969/12/31/18:00:16.121000,(0 49 72 24 35 4 -10 1)
1969/12/31/18:00:16.121000,(0 -54 -28 -7 -18 -4 4 10)
1969/12/31/18:00:16.122000,(-26 1 -7 -6 -2 -3 -22 -40)
1969/12/31/18:00:16.122000,(-75 -76 -72 -48 -41 -31 -31 -90)
1969/12/31/18:00:16.134000,(-41 -3 -9 8 27 30 -8 -60)
1969/12/31/18:00:16.134000,(66 12 8 23 45 24 -4 62)
1969/12/31/18:00:16.143000,(-18 -34 -23 -14 -30 -12 17 -27)
1969/12/31/18:00:16.143000,(14 -13 -10 -26 -62 -69 -74 -5)
1969/12/31/18:00:16.158000,(-40 -102 -43 -20 -6 7 12 2)
1969/12/31/18:00:16.158000,(47 108 29 12 21 7 16 16)
1969/12/31/18:00:16.160000,(-17 5 -5 31 49 30 0 3)
1969/12/31/18:00:16.160000,(-8 -14 10 4 34 15 23 -10)
1969/12/31/18:00:16.180000,(6 0 -11 -5 -86 -29 9 32)
1969/12/31/18:00:16.180000,(5 -30 -67 -30 -1 22 13 -11)
1969/12/31/18:00:16.189000,(17 -22 9 -12 -16 -13 9 22)
1969/12/31/18:00:16.189000,(66 127 121 62 88 82 63 72)
1969/12/31/18:00:16.194000,(-38 -111 -76 -40 -83 -84 -24 33)
1969/12/31/18:00:16.194000,(3 65 32 7 -1 -10 1 17)
1969/12/31/18:00:16.203000,(-28 -60 -28 -8 14 3 1 20)
1969/12/31/18:00:16.203000,(9 4 13 9 4 8 23 20)
1969/12/31/18:00:16.218000,(-65 -3 -35 -12 24 33 2 -46)
1969/12/31/18:00:16.218000,(15 14 33 12 -3 -7 -1 25)
1969/12/31/18:00:16.220000,(4 2 -7 22 81 50 -1 -14)
1969/12/31/18:00:16.220000,(-70 -68 -50 -26 -59 -52 -22 -99)
1969/12/31/18:00:16.241000,(31 18 -1 -52 -73 -69 -38 -45)
1969/12/31/18:00:16.241000,(18 -94 -95 -48 5 -40 -49 -36)
1969/12/31/18:00:16.242000,(4 118 107 44 28 18 4 -8)
1969/12/31/18:00:16.242000,(21 63 30 38 42 34 26 26)
1969/12/31/18:00:16.254000,(-52 -40 -3 23 37 18 -8 -18)
1969/12/31/18:00:16.254000,(-21 -27 -23 -38 -105 -41 -20 -48)
1969/12/31/18:00:16.263000,(57 -69 -61 -19 -4 11 22 30)
1969/12/31/18:00:16.263000,(-5 44 -6 -3 -15 -8 -1 1)
1969/12/31/18:00:16.278000,(26 119 92 38 3 -13 -10 33)
1969/12/31/18:00:16.278000,(21 -36 -41 1 42 23 0 0)
1969/12/31/18:00:16.280000,(-37 -27 -28 -13 -27 -13 -13 -35)
1969/12/31/18:00:16.280000,(25 -34 -25 -8 10 2 1 0)
1969/12/31/18:00:16.301000,(17 -11 -18 -33 -46 3 9 -20)
1969/12/31/18:00:16.301000,(22 27 18 30 71 23 -9 5)
1969/12/31/18:00:16.302000,(-64 37 36 -5 -96 -90 -69 -75)
1969/12/31/18:00:16.302000,(1 -34 -5 9 13 11 6 19)
1969/12/31/18:00:16.314000,(69 -1 -25 -42 -42 -11 4 39)
1969/12/31/18:00:16.314000,(-73 30 45 10 13 18 19 -36)
1969/12/31/18:00:16.323000,(-23 -79 -66 -25 14 5 10 2)
1969/12/31/18:00:16.323000,(2 60 38 22 32 9 -6 8)
1969/12/31/18:00:16.338000,(64 62 54 52 59 48 43 67)
1969/12/31/18:00:16.338000,(-54 -74 -31 -9 13 2 -29 -60)
1969/12/31/18:00:16.340000,(64 33 14 -17 -68 -75 -29 39)
1969/12/31/18:00:16.340000,(-62 -94 -59 -40 -24 -9 0 -27)
1969/12/31/18:00:16.361000,(19 8 10 -8 -34 -11 -4 -11)
1969/12/31/18:00:16.361000,(53 48 23 38 87 46 29 44)
1969/12/31/18:00:16.362000,(-38 2 15 22 43 47 30 -13)
1969/12/31/18:00:16.362000,(-8 -13 -13 -22 -43 -26 -6 -10)
1969/12/31/18:00:16.374000,(7 11 3 9 20 7 -15 -31)
1969/12/31/18:00:16.374000,(-56 -56 -24 -14 -18 -5 13 -8)
1969/12/31/18:00:16.383000,(-18 3 -2 0 8 5 4 -7)
1969/12/31/18:00:16.383000,(72 71 39 5 -5 -7 -2 30)
1969/12/31/18:00:16.398000,(-75 -60 -30 -9 5 5 -11 -28)
1969/12/31/18:00:16.398000,(78 90 54 20 -10 -1 22 57)
1969/12/31/18:00:16.400000,(22 -10 -15 4 45 37 3 -11)
1969/12/31/18:00:16.400000,(-25 -30 -22 -8 -26 -38 -15 -6)
1969/12/31/18:00:16.421000,(7 18 44 6 -28 -24 -13 -15)
1969/12/31/18:00:16.421000,(-62 -57 -41 -23 -23 -31 -35 -108)
1969/12/31/18:00:16.422000,(28 30 21 5 4 22 22 49)
1969/12/31/18:00:16.422000,(10 -3 2 -5 21 33 27 25)
1969/12/31/18:00:16.434000,(17 -2 -14 22 45 9 -2 14)
1969/12/31/18:00:16.434000,(12 -3 -8 -15 -40 -8 15 47)
1969/12/31/18:00:16.449000,(-30 20 12 -24 17 -4 0 -9)
1969/12/31/18:00:16.449000,(-1 -7 10 63 29 9 40 -5)
1969/12/31/18:00:16.466000,(-10 -29 -24 -32 -8 16 -40 21)
1969/12/31/18:00:16.466000,(-31 10 28 66 30 -26 -30 -18)
1969/12/31/18:00:16.467000,(-6 -15 -16 -20 -22 -3 2 -34)
1969/12/31/18:00:16.467000,(-6 -19 -5 -12 -17 -41 -25 -13)
1969/12/31/18:00:16.481000,(59 13 8 24 28 9 43 80)
1969/12/31/18:00:16.481000,(-43 -22 -19 -27 -23 -19 -44 -60)
1969/12/31/18:00:16.487000,(-34 -16 -11 -5 -6 22 -3 -13)
1969/12/31/18:00:16.487000,(11 8 5 -17 -15 -33 -48 -21)
1969/12/31/18:00:16.494000,(-37 7 2 4 18 39 23 6)
1969/12/31/18:00:16.494000,(74 -5 -9 -18 -8 9 11 53)
1969/12/31/18:00:16.503000,(-34 15 9 10 3 33 28 27)
1969/12/31/18:00:16.503000,(-39 -35 -21 -22 -11 -46 -45 -72)
1969/12/31/18:00:16.518000,(-62 -21 -8 0 7 16 34 -20)
1969/12/31/18:00:16.518000,(59 37 9 -2 -8 7 32 56)
1969/12/31/18:00:16.524000,(42 7 9 18 17 19 7 37)
1969/12/31/18:00:16.524000,(14 13 9 6 9 51 28 20)
1969/12/31/18:00:16.541000,(17 -10 -10 0 -2 -35 5 -40)
1969/12/31/18:00:16.541000,(-79 -18 -10 -15 -21 -31 -38 -63)
1969/12/31/18:00:16.542000,(-14 -21 -7 0 -9 -59 -20 -17)
1969/12/31/18:00:16.542000,(30 25 5 1 3 25 41 47)
1969/12/31/18:00:16.554000,(46 39 14 6 6 8 -19 41)
1969/12/31/18:00:16.554000,(-54 -44 -8 -4 3 11 3 -34)
1969/12/31/18:00:16.563000,(55 9 0 3 6 7 -10 12)
1969/12/31/18:00:16.563000,(36 10 4 4 2 4 12 68)
1969/12/31/18:00:16.577000,(-12 8 -7 -9 -13 -26 -1 -17)
1969/12/31/18:00:16.577000,(3 -8 -12 -15 -9 2 -23 -34)
1969/12/31/18:00:16.584000,(0 2 6 8 2 11 0 24)
1969/12/31/18:00:16.584000,(-28 -17 -3 -2 -1 7 -14 -14)
1969/12/31/18:00:16.601000,(43 24 10 9 9 7 2 10)
1969/12/31/18:00:16.601000,(-3 8 5 2 3 13 10 -1)
1969/12/31/18:00:16.602000,(85 35 3 5 2 -6 13 43)
1969/12/31/18:00:16.603000,(-67 -72 -37 -28 -27 -26 -43 -70)
1969/12/31/18:00:16.623000,(-10 -26 -2 3 3 12 5 53)
1969/12/31/18:00:16.623000,(-70 -7 -5 -4 0 14 -10 -23)
1969/12/31/18:00:16.625000,(-25 -18 -7 -9 -16 -64 1 3)
1969/12/31/18:00:16.625000,(101 65 28 16 14 28 36 85)
1969/12/31/18:00:16.638000,(-50 -36 -27 -19 -18 -30 -59 -100)
1969/12/31/18:00:16.638000,(-50 -22 -3 -5 -4 3 26 30)
1969/12/31/18:00:16.644000,(31 3 3 5 10 31 4 -26)
1969/12/31/18:00:16.644000,(-35 1 4 2 1 -15 -28 -105)
1969/12/31/18:00:16.661000,(18 22 -9 -10 -8 -4 3 -21)
1969/12/31/18:00:16.661000,(81 43 24 18 16 23 46 90)
1969/12/31/18:00:16.662000,(-22 -25 -8 -2 -2 -4 -2 14)
1969/12/31/18:00:16.662000,(-71 -50 -18 -13 -5 9 -36 -13)
1969/12/31/18:00:16.683000,(-9 16 9 3 -2 -14 -17 -62)
1969/12/31/18:00:16.683000,(-8 3 -7 -8 -8 -12 -11 -10)
1969/12/31/18:00:16.685000,(27 20 16 14 11 13 16 17)
1969/12/31/18:00:16.685000,(50 14 1 -1 -4 -36 -15 14)
1969/12/31/18:00:16.698000,(-76 -34 -14 -7 1 25 22 4)
1969/12/31/18:00:16.698000,(56 26 14 8 6 16 15 50)
1969/12/31/18:00:16.704000,(33 17 7 8 4 -1 9 38)
1969/12/31/18:00:16.704000,(7 4 4 5 4 17 17 0)
1969/12/31/18:00:16.720000,(5 -11 -7 -3 -3 4 -4 27)
1969/12/31/18:00:16.720000,(23 9 -2 -2 -3 -15 -3 -29)
1969/12/31/18:00:16.728000,(-5 0 -1 -1 1 16 -6 -13)
1969/12/31/18:00:16.729000,(-19 -6 1 0 -3 -2 6 15)
1969/12/31/18:00:16.743000,(31 8 10 8 6 1 3 27)
1969/12/31/18:00:16.743000,(-3 -6 -11 -9 -7 -5 -23 -67)
1969/12/31/18:00:16.745000,(-12 -8 -7 -7 -1 -7 -4 -8)
1969/12/31/18:00:16.745000,(7 7 10 7 7 14 11 14)
1969/12/31/18:00:16.757000,(-20 -6 -3 -1 -4 -14 -10 -12)
1969/12/31/18:00:16.757000,(48 13 2 0 1 4 15 44)
1969/12/31/18:00:16.764000,(-43 -10 -3 -3 -4 -5 -12 -48)
1969/12/31/18:00:16.764000,(-12 0 -6 -3 -5 -4 -2 -29)
1969/12/31/18:00:16.781000,(3 -5 5 5 4 6 -9 0)
1969/12/31/18:00:16.781000,(4 0 -6 -4 -2 0 7 21)
1969/12/31/18:00:16.782000,(13 13 1 -2 -6 -5 -3 4)
1969/12/31/18:00:16.782000,(-20 -19 -8 -3 -2 7 19 20)
1969/12/31/18:00:16.803000,(1 -14 -8 -5 -4 -9 -27 -11)
1969/12/31/18:00:16.803000,(3 5 1 0 3 6 8 3)
1969/12/31/18:00:16.805000,(-18 -7 -2 -5 -8 -12 -18 -34)
1969/12/31/18:00:16.805000,(2 5 -1 0 3 7 12 7)
1969/12/31/18:00:16.817000,(-15 -10 -4 -5 -4 -3 1 -15)
1969/12/31/18:00:16.817000,(17 -4 -13 4 5 3 24 17)
1969/12/31/18:00:16.824000,(-11 3 24 10 2 -2 -28 -2)
1969/12/31/18:00:16.824000,(-12 -2 -2 1 -4 -6 -11 -14)
1969/12/31/18:00:16.840000,(-3 -6 -24 -11 -1 -1 3 -1)
1969/12/31/18:00:16.840000,(13 30 40 5 0 8 26 16)
1969/12/31/18:00:16.842000,(-24 -29 -16 1 -3 -10 -41 -42)
1969/12/31/18:00:16.842000,(-4 -7 -6 -6 -2 3 7 4)
1969/12/31/18:00:16.863000,(-5 -9 -4 3 2 0 -16 -13)
1969/12/31/18:00:16.863000,(9 -1 -13 -8 -9 -10 3 9)
1969/12/31/18:00:16.865000,(-6 -7 -9 -6 0 4 13 -4)
1969/12/31/18:00:16.865000,(-2 10 16 3 -4 -2 -5 -1)
1969/12/31/18:00:16.876000,(4 0 6 6 3 5 16 5)
1969/12/31/18:00:16.876000,(-7 22 30 12 1 -8 -43 -3)
1969/12/31/18:00:16.885000,(-2 10 8 1 1 6 16 7)
1969/12/31/18:00:16.885000,(-1 -7 -9 -5 -4 -1 1 4)
1969/12/31/18:00:16.901000,(4 -1 -1 -2 -1 6 5 7)
1969/12/31/18:00:16.901000,(-5 -31 -23 -13 -11 -9 -10 -9)
1969/12/31/18:00:16.902000,(11 10 5 9 8 13 35 11)
1969/12/31/18:00:16.902000,(3 -7 -17 -10 -7 -5 -24 0)
1969/12/31/18:00:16.923000,(-17 7 29 10 2 5 -3 -9)
1969/12/31/18:00:16.923000,(9 -10 -20 -6 -3 0 0 5)
1969/12/31/18:00:16.925000,(-4 20 18 10 3 -1 -23 -14)
1969/12/31/18:00:16.925000,(14 6 -8 -2 -1 5 47 22)
1969/12/31/18:00:16.937000,(-6 -20 -15 -6 -5 -17 -6 4)
1969/12/31/18:00:16.937000,(-2 -22 -14 -3 5 -1 11 10)
1969/12/31/18:00:16.946000,(0 -9 -19 -17 -7 -8 7 7)
1969/12/31/18:00:16.946000,(2 11 10 2 0 -4 -12 -7)
1969/12/31/18:00:16.961000,(-6 8 4 -3 -1 2 2 -10)
1969/12/31/18:00:16.961000,(6 8 2 -1 -6 -7 4 -4)
1969/12/31/18:00:16.962000,(-4 -8 -10 -6 1 -3 -6 -7)
1969/12/31/18:00:16.962000,(-7 2 3 -1 1 2 5 0)
1969/12/31/18:00:16.983000,(6 -4 -6 -4 -1 -1 20 14)
1969/12/31/18:00:16.983000,(-9 2 5 3 -1 -3 -9 -6)
1969/12/31/18:00:16.985000,(-2 -5 -5 -13 -7 -3 4 1)
1969/12/31/18:00:16.985000,(-6 -4 -5 7 16 6 -8 -14)
1969/12/31/18:00:16.997000,(7 9 9 8 4 0 12 6)
1969/12/31/18:00:16.997000,(5 8 12 12 3 10 8 14)
1969/12/31/18:00:17.006000,(-5 -4 -5 -7 -5 -8 -13 -7)
1969/12/31/18:00:17.006000,(-3 -8 -4 -4 -10 -1 -3 -1)
1969/12/31/18:00:17.021000,(0 -2 -11 -26 -14 -6 2 1)
1969/12/31/18:00:17.021000,(-6 -1 1 10 16 8 0 -4)
1969/12/31/18:00:17.022000,(-2 -5 -6 -6 -25 -17 -10 2)
1969/12/31/18:00:17.022000,(5 1 1 2 20 31 5 8)
1969/12/31/18:00:17.043000,(-7 -1 -1 -8 -7 -27 -1 -14)
1969/12/31/18:00:17.043000,(-5 -1 1 -7 -19 -17 -16 -17)
1969/12/31/18:00:17.045000,(6 6 8 21 6 42 29 24)
1969/12/31/18:00:17.045000,(-12 -7 3 7 15 -14 -25 -22)
1969/12/31/18:00:17.057000,(-4 -2 -2 -7 -3 10 8 0)
1969/12/31/18:00:17.057000,(0 -5 -10 -17 -3 -1 1 5)
1969/12/31/18:00:17.066000,(5 0 -3 0 2 -4 14 7)
1969/12/31/18:00:17.066000,(6 6 5 -6 -10 -3 0 10)
1969/12/31/18:00:17.081000,(0 2 3 7 3 2 -4 -2)
1969/12/31/18:00:17.081000,(1 1 -3 -1 3 -5 -1 2)
1969/12/31/18:00:17.082000,(-3 -1 -4 -4 0 -6 -16 -10)
1969/12/31/18:00:17.082000,(-2 0 4 5 2 3 4 5)
1969/12/31/18:00:17.103000,(-5 1 2 -2 2 2 -16 -10)
1969/12/31/18:00:17.103000,(-1 1 6 6 0 13 1 -2)
1969/12/31/18:00:17.105000,(-7 -3 4 1 7 11 -9 -9)
1969/12/31/18:00:17.105000,(-2 -4 0 -6 -17 -5 -6 1)
1969/12/31/18:00:17.126000,(3 -3 -3 9 -2 4 0 5)
1969/12/31/18:00:17.126000,(4 -4 -7 -2 -1 -14 -7 5)
1969/12/31/18:00:17.127000,(2 -4 -12 -5 3 -23 4 1)
1969/12/31/18:00:17.127000,(-5 -1 -7 -1 -1 -34 -3 -7)
1969/12/31/18:00:17.141000,(-4 2 2 -1 6 8 5 4)
1969/12/31/18:00:17.141000,(-4 -6 -4 -2 2 10 -10 -3)
1969/12/31/18:00:17.143000,(6 10 7 4 5 16 9 6)
1969/12/31/18:00:17.143000,(3 3 -2 -4 -6 16 5 -1)
1969/12/31/18:00:17.163000,(-6 -26 -19 -9 -8 -4 -3 -6)
1969/12/31/18:00:17.163000,(3 26 6 -2 0 3 6 1)
1969/12/31/18:00:17.165000,(2 12 7 1 2 -5 13 8)
1969/12/31/18:00:17.165000,(-2 7 9 -1 3 -14 1 3)
1969/12/31/18:00:17.177000,(-2 12 5 1 0 -19 -2 -2)
1969/12/31/18:00:17.177000,(1 -32 -26 -13 -1 -21 8 5)
1969/12/31/18:00:17.186000,(4 17 3 -4 1 -20 4 -1)
1969/12/31/18:00:17.186000,(-1 -4 -8 -6 -4 -12 -3 -6)
1969/12/31/18:00:17.200000,(1 -5 -5 -5 1 -6 -5 -3)
1969/12/31/18:00:17.201000,(-8 0 17 4 0 3 0 -2)
1969/12/31/18:00:17.202000,(-3 -21 -21 -11 -5 2 -6 -8)
1969/12/31/18:00:17.202000,(9 22 21 7 -1 6 0 3)
1969/12/31/18:00:17.223000,(-2 15 21 22 9 14 -2 -3)
1969/12/31/18:00:17.223000,(2 -10 -5 4 5 15 5 6)
1969/12/31/18:00:17.225000,(-1 -22 -28 -16 -3 1 -8 2)
1969/12/31/18:00:17.225000,(-8 26 39 19 5 5 -7 -8)
1969/12/31/18:00:17.237000,(3 -35 -52 -18 -4 9 -1 7)
1969/12/31/18:00:17.237000,(11 48 20 4 1 1 -7 -8)
1969/12/31/18:00:17.246000,(-9 -7 10 10 1 0 -2 3)
1969/12/31/18:00:17.246000,(-11 -58 -47 -19 -11 0 -8 -7)
1969/12/31/18:00:17.261000,(1 16 13 4 -5 0 -1 -2)
1969/12/31/18:00:17.261000,(-4 -36 -33 -14 -7 -1 -7 -3)
1969/12/31/18:00:17.262000,(3 3 -3 -4 -5 1 -8 -4)
1969/12/31/18:00:17.262000,(4 10 6 2 -3 3 -2 0)
1969/12/31/18:00:17.283000,(-6 -12 -4 0 -4 2 -7 -8)
1969/12/31/18:00:17.283000,(2 9 12 4 -1 2 -4 -4)
1969/12/31/18:00:17.285000,(5 37 45 17 2 4 -5 -1)
1969/12/31/18:00:17.285000,(-9 -15 -7 1 -1 8 2 -5)
1969/12/31/18:00:17.306000,(-8 -37 -24 -13 -8 0 -11 -12)
1969/12/31/18:00:17.306000,(0 45 24 12 2 6 2 3)
1969/12/31/18:00:17.307000,(0 -12 -19 -9 -4 1 -6 -6)
1969/12/31/18:00:17.307000,(6 0 8 12 1 1 -2 3)
1969/12/31/18:00:17.328000,(-4 -10 -10 -6 -6 -3 2 -1)
1969/12/31/18:00:17.328000,(-1 7 8 2 0 -5 -2 -5)
1969/12/31/18:00:17.330000,(0 -13 -7 -1 0 -2 4 4)
1969/12/31/18:00:17.330000,(-9 -31 -35 -21 -11 -14 -1 -3)
1969/12/31/18:00:17.343000,(4 20 9 0 3 -1 1 -10)
1969/12/31/18:00:17.343000,(-3 -5 4 7 3 -3 8 2)
1969/12/31/18:00:17.345000,(-2 -14 -12 -9 -2 -1 1 8)
1969/12/31/18:00:17.345000,(7 32 13 -1 0 5 -7 -6)
1969/12/31/18:00:17.357000,(-2 8 20 7 4 8 -3 -3)
1969/12/31/18:00:17.357000,(-11 -30 -12 -6 -5 7 -5 -5)
1969/12/31/18:00:17.366000,(-6 3 7 5 0 7 -8 -12)
1969/12/31/18:00:17.366000,(5 -5 3 2 2 8 0 10)
1969/12/31/18:00:17.381000,(4 -2 1 2 1 2 -1 5)
1969/12/31/18:00:17.381000,(3 6 -14 -6 -3 -1 -1 3)
1969/12/31/18:00:17.382000,(-4 -52 -33 -17 -6 -8 -2 0)
1969/12/31/18:00:17.382000,(2 46 32 23 10 0 7 2)
1969/12/31/18:00:17.403000,(6 16 3 3 2 -8 1 8)
1969/12/31/18:00:17.403000,(-5 -19 -14 -4 -1 -11 6 2)
1969/12/31/18:00:17.405000,(2 -1 -5 -4 -2 -14 1 2)
1969/12/31/18:00:17.405000,(-2 -20 -21 -18 -5 -11 5 0)
1969/12/31/18:00:17.417000,(1 8 9 -1 1 -8 6 4)
1969/12/31/18:00:17.417000,(1 4 1 0 3 -7 3 3)
1969/12/31/18:00:17.426000,(-3 12 11 2 2 -6 -2 -5)
1969/12/31/18:00:17.426000,(2 -2 -3 -6 -1 -4 -1 -1)
1969/12/31/18:00:17.439000,(-2 5 5 4 1 -3 0 0)
1969/12/31/18:00:17.439000,(-7 -11 -3 -6 -4 0 -3 -2)
1969/12/31/18:00:17.448000,(0 11 10 6 2 0 -5 -12)
1969/12/31/18:00:17.448000,(-3 -8 -5 -3 -2 3 6 6)
1969/12/31/18:00:17.463000,(-1 2 2 3 -1 1 -3 -2)
1969/12/31/18:00:17.463000,(-1 -5 0 0 -2 1 -4 -5)
1969/12/31/18:00:17.465000,(0 6 3 -1 -3 3 -3 -2)
1969/12/31/18:00:17.465000,(-3 -2 4 1 -1 1 -2 1)
1969/12/31/18:00:17.487000,(-4 -5 0 -3 -1 3 0 -2)
1969/12/31/18:00:17.487000,(-1 2 -4 -9 -4 2 -3 -5)
1969/12/31/18:00:17.489000,(-3 -4 3 14 3 3 2 2)
1969/12/31/18:00:17.489000,(0 5 -5 -4 -3 -1 -3 -1)
1969/12/31/18:00:17.500000,(-1 -3 1 2 -1 0 -1 2)
1969/12/31/18:00:17.500000,(0 -2 0 -2 -3 -1 -6 -5)
1969/12/31/18:00:17.507000,(0 1 -5 -6 -3 -1 -1 0)
1969/12/31/18:00:17.507000,(-1 -10 -9 -2 -2 -1 -3 -2)
1969/12/31/18:00:17.507000,(-2 -1 -4 -1 0 1 0 -2)
1969/12/31/18:00:17.507000,(-1 -2 -2 -1 -1 -1 -3 -1)
1969/12/31/18:00:17.509000,(-1 -1 -1 0 -1 -1 -1 -1)
1969/12/31/18:00:17.509000,(0 -1 0 -2 -2 -3 -3 -2)
1969/12/31/18:00:17.530000,(0 -1 -1 -1 -3 -1 -1 -2)
1969/12/31/18:00:17.530000,(0 3 5 2 0 -1 -1 0)
1969/12/31/18:00:17.531000,(-1 1 -1 0 0 -2 -1 -1)
1969/12/31/18:00:17.531000,(-3 -2 -3 -5 -2 -2 -1 -1)
1969/12/31/18:00:17.544000,(-3 -1 -1 -2 -1 -2 -1 -2)
1969/12/31/18:00:17.544000,(-1 -3 -3 -3 -3 0 -1 -1)
1969/12/31/18:00:17.551000,(-2 -2 -1 -4 -4 -2 -2 -1)
1969/12/31/18:00:17.551000,(-1 -1 -1 4 -1 -3 1 0)
1969/12/31/18:00:17.567000,(-1 0 0 -2 -1 -1 -1 0)
1969/12/31/18:00:17.567000,(-1 -2 -1 -3 -1 -2 -1 -2)
1969/12/31/18:00:17.569000,(2 0 2 1 1 0 -2 -1)
1969/12/31/18:00:17.569000,(-1 -2 -2 -2 0 3 -1 -1)
1969/12/31/18:00:17.589000,(-1 -2 -1 0 -1 -1 -2 -2)
1969/12/31/18:00:17.589000,(0 -1 -3 -7 -4 -2 -1 -3)
1969/12/31/18:00:17.590000,(-4 -4 -4 -2 -3 -1 -1 0)
1969/12/31/18:00:17.590000,(-1 1 -2 -1 -1 0 -1 -1)
1969/12/31/18:00:17.603000,(-2 -4 -3 -6 -2 0 -1 -2)
1969/12/31/18:00:17.603000,(0 -1 6 9 3 1 1 1)
1969/12/31/18:00:17.611000,(0 -1 -8 -1 1 -1 -2 -1)
1969/12/31/18:00:17.611000,(-3 -2 7 -2 -1 2 -1 0)
1969/12/31/18:00:17.626000,(-2 0 3 12 1 -14 -5 0)
1969/12/31/18:00:17.626000,(-2 -4 -12 -11 -1 19 3 -2)
1969/12/31/18:00:17.627000,(0 3 5 1 -1 -1 1 2)
1969/12/31/18:00:17.627000,(-2 -6 -7 -7 -11 -41 -28 -6)
1969/12/31/18:00:17.649000,(-2 -4 -15 -3 11 19 -3 -3)
1969/12/31/18:00:17.649000,(-1 -1 14 -6 -6 -4 -14 -3)
1969/12/31/18:00:17.650000,(2 5 9 15 13 -1 -1 2)
1969/12/31/18:00:17.650000,(3 4 3 15 10 61 16 3)
1969/12/31/18:00:17.672000,(-1 2 13 12 -6 -36 -7 -5)
1969/12/31/18:00:17.672000,(2 -1 -11 2 1 -2 13 8)
1969/12/31/18:00:17.679000,(-6 -8 -12 -20 -12 -39 -39 -13)
1969/12/31/18:00:17.679000,(-5 -8 -10 -31 -12 -1 5 -2)
1969/12/31/18:00:17.687000,(-4 -8 -32 -21 -34 3 -23 -7)
1969/12/31/18:00:17.687000,(4 10 31 23 28 20 30 7)
1969/12/31/18:00:17.688000,(3 5 14 19 22 13 -13 3)
1969/12/31/18:00:17.688000,(4 6 -17 -1 -4 -18 3 1)
1969/12/31/18:00:17.709000,(-2 0 18 -15 11 32 -3 -2)
1969/12/31/18:00:17.709000,(-4 -6 -11 4 -24 -74 -9 -6)
1969/12/31/18:00:17.710000,(2 -3 -10 11 6 21 7 1)
1969/12/31/18:00:17.710000,(2 -1 -2 -5 2 -6 18 8)
1969/12/31/18:00:17.732000,(0 -3 -16 -9 4 -6 12 7)
1969/12/31/18:00:17.732000,(-6 -10 -25 -50 -17 -4 -17 -5)
1969/12/31/18:00:17.732000,(-3 -2 7 14 -8 -20 11 -5)
1969/12/31/18:00:17.732000,(6 16 32 46 20 16 1 4)
1969/12/31/18:00:17.746000,(-1 4 0 -15 -7 0 11 0)
1969/12/31/18:00:17.746000,(-1 -3 -4 1 4 4 -2 -1)
1969/12/31/18:00:17.747000,(-6 -9 -12 -9 -8 17 12 4)
1969/12/31/18:00:17.747000,(0 -1 -4 -12 -8 -7 -10 -13)
1969/12/31/18:00:17.769000,(3 2 -6 12 10 -11 1 2)
1969/12/31/18:00:17.769000,(1 0 18 0 1 7 -5 0)
1969/12/31/18:00:17.770000,(-1 -2 -20 -21 -6 -3 5 4)
1969/12/31/18:00:17.770000,(2 0 4 3 -3 -11 3 8)
1969/12/31/18:00:17.783000,(-1 0 5 7 7 -1 5 2)
1969/12/31/18:00:17.783000,(-5 3 -12 -1 -3 9 -7 -12)
1969/12/31/18:00:17.791000,(1 6 15 0 -4 13 11 5)
1969/12/31/18:00:17.791000,(-1 5 10 1 -1 5 1 4)
1969/12/31/18:00:17.808000,(-5 -7 -5 -1 -7 11 -4 -5)
1969/12/31/18:00:17.808000,(-15 -16 -7 5 1 18 -1 -9)
1969/12/31/18:00:17.814000,(5 4 13 6 1 6 1 2)
1969/12/31/18:00:17.814000,(-2 -2 -4 -1 4 8 -2 -7)
1969/12/31/18:00:17.829000,(21 11 2 -11 -17 -2 6 23)
1969/12/31/18:00:17.829000,(-9 -5 3 18 10 -7 -10 -5)
1969/12/31/18:00:17.830000,(-2 -2 -3 -9 -9 -9 0 -6)
1969/12/31/18:00:17.830000,(-16 -25 -19 -10 4 -9 0 -6)
1969/12/31/18:00:17.851000,(-7 -2 4 9 6 -4 -8 -14)
1969/12/31/18:00:17.851000,(13 12 9 4 0 0 6 13)
1969/12/31/18:00:17.852000,(5 0 -8 -5 -2 -4 -3 3)
1969/12/31/18:00:17.852000,(-4 0 -2 -7 -10 -5 -5 -8)
1969/12/31/18:00:17.866000,(-7 -5 4 5 3 -2 1 -4)
1969/12/31/18:00:17.866000,(1 0 -7 -3 -4 0 -2 0)
1969/12/31/18:00:17.867000,(-3 -4 -5 -6 -1 2 1 -2)
1969/12/31/18:00:17.867000,(2 -1 1 -2 -6 -4 -3 1)
1969/12/31/18:00:17.889000,(-1 -2 4 1 4 1 2 -2)
1969/12/31/18:00:17.889000,(1 1 -4 -5 -2 1 1 1)
1969/12/31/18:00:17.890000,(-5 -3 1 0 -4 -1 -2 -6)
1969/12/31/18:00:17.890000,(0 -1 2 3 2 2 -5 -1)
1969/12/31/18:00:17.903000,(1 0 -2 0 1 3 -3 -1)
1969/12/31/18:00:17.903000,(0 0 1 3 -1 4 -2 -3)
1969/12/31/18:00:17.911000,(-3 -2 1 -1 0 0 -4 -5)
1969/12/31/18:00:17.911000,(0 -1 -3 1 0 3 -3 -3)
1969/12/31/18:00:17.927000,(-1 -3 3 1 0 3 0 -3)
1969/12/31/18:00:17.927000,(0 3 0 -1 -4 -1 -2 0)
1969/12/31/18:00:17.928000,(-5 -7 -2 2 1 0 -1 -1)
1969/12/31/18:00:17.928000,(5 -10 -13 -6 -1 -3 0 4)
1969/12/31/18:00:17.949000,(0 19 23 10 1 -4 -2 -3)
1969/12/31/18:00:17.949000,(-2 -2 -7 -1 1 -2 1 0)
1969/12/31/18:00:17.950000,(-4 -11 -5 -3 -2 -5 0 -3)
1969/12/31/18:00:17.950000,(5 16 -4 -4 -1 -3 0 1)
1969/12/31/18:00:17.963000,(-4 -18 -10 -4 -1 -5 -1 -2)
1969/12/31/18:00:17.963000,(3 -6 -9 -4 -1 -3 0 -1)
1969/12/31/18:00:17.971000,(3 16 8 0 2 -2 0 3)
1969/12/31/18:00:17.971000,(-18 -8 13 3 1 -5 -1 -8)
1969/12/31/18:00:17.987000,(19 8 -6 -4 0 -3 4 10)
1969/12/31/18:00:17.987000,(6 12 5 0 1 -4 -1 -2)
1969/12/31/18:00:17.987000,(-11 -20 -14 -9 -3 1 13 37)
1969/12/31/18:00:17.987000,(-2 -1 5 1 1 -5 -14 -43)
1969/12/31/18:00:18.017000,(-48 -25 -9 -8 -6 -6 -2 0)
1969/12/31/18:00:18.017000,(5 0 1 -2 -2 -3 -1 0)
1969/12/31/18:00:18.018000,(19 3 -1 -4 -6 -7 -4 18)
1969/12/31/18:00:18.018000,(26 17 4 3 0 -1 2 5)
1969/12/31/18:00:18.024000,(18 14 7 8 8 9 19 26)
1969/12/31/18:00:18.024000,(-39 -23 -19 -7 -6 -12 -19 -35)
1969/12/31/18:00:18.031000,(16 7 4 1 3 -2 12 18)
