time,.data
1969/12/31/18:00:20.676,(-3 0 -1 -1 -3 0 -2 -1)
1969/12/31/18:00:20.676,(-1 -1 -1 -3 -2 2 1 0)
1969/12/31/18:00:20.692,(2 2 6 3 1 2 1 1)
1969/12/31/18:00:20.692,(4 0 -2 5 4 1 0 2)
1969/12/31/18:00:20.694,(-7 -8 1 -9 -6 -5 -4 -6)
1969/12/31/18:00:20.694,(2 2 -8 0 2 0 0 1)
1969/12/31/18:00:20.715,(-5 -7 0 -12 -5 -6 -4 -2)
1969/12/31/18:00:20.715,(-2 -3 -7 -2 -15 -3 -2 -1)
1969/12/31/18:00:20.717,(0 -2 -3 2 13 1 0 -1)
1969/12/31/18:00:20.717,(-3 4 11 7 -6 2 0 -5)
1969/12/31/18:00:20.729,(4 -3 -16 -22 2 -2 -1 2)
1969/12/31/18:00:20.729,(-5 2 1 -3 -4 -2 -3 -4)
1969/12/31/18:00:20.736,(2 9 23 25 14 15 10 6)
1969/12/31/18:00:20.736,(13 9 5 48 21 -3 -2 6)
1969/12/31/18:00:20.753,(-19 -9 -3 -9 -33 0 -3 -12)
1969/12/31/18:00:20.753,(11 -13 -31 14 45 -4 -1 9)
1969/12/31/18:00:20.754,(-27 -13 5 -46 -37 -13 -15 -19)
1969/12/31/18:00:20.754,(3 5 -13 -9 1 1 3 2)
1969/12/31/18:00:20.775,(5 6 6 -25 -13 5 5 4)
1969/12/31/18:00:20.775,(16 8 -18 -66 -48 -3 1 9)
1969/12/31/18:00:20.777,(3 -8 0 66 35 0 0 2)
1969/12/31/18:00:20.777,(-14 -10 7 -37 6 1 -7 -12)
1969/12/31/18:00:20.788,(3 6 32 112 36 12 5 3)
1969/12/31/18:00:20.788,(-5 3 18 14 15 2 1 -4)
1969/12/31/18:00:20.797,(0 -6 -21 -65 -22 5 7 4)
1969/12/31/18:00:20.797,(3 12 9 -87 -58 -15 -6 1)
1969/12/31/18:00:20.813,(8 5 -5 75 0 -11 -6 2)
1969/12/31/18:00:20.813,(-15 -11 7 19 65 15 0 -7)
1969/12/31/18:00:20.815,(-1 -2 2 1 -7 -4 -6 -5)
1969/12/31/18:00:20.815,(11 8 -2 -35 -42 9 17 12)
1969/12/31/18:00:20.835,(13 -1 -42 -53 26 -5 0 8)
1969/12/31/18:00:20.835,(-14 -10 20 45 -9 -5 -8 -9)
1969/12/31/18:00:20.836,(-25 -23 -50 -97 -15 -13 -10 -12)
1969/12/31/18:00:20.836,(-2 -12 -33 8 -29 -10 -5 0)
1969/12/31/18:00:20.856,(9 13 71 82 71 17 6 5)
1969/12/31/18:00:20.856,(-7 1 7 -33 -42 0 0 -3)
1969/12/31/18:00:20.857,(13 18 21 -46 17 -4 3 7)
1969/12/31/18:00:20.857,(4 5 -5 65 71 14 3 4)
1969/12/31/18:00:20.871,(-6 -12 -17 -20 2 -1 0 -1)
1969/12/31/18:00:20.871,(-1 -4 -16 -80 -15 -8 -4 -3)
1969/12/31/18:00:20.872,(5 4 -20 -45 -110 -14 5 5)
1969/12/31/18:00:20.872,(3 -9 -8 10 25 -2 1 3)
1969/12/31/18:00:20.894,(-15 -1 45 64 14 6 -4 -8)
1969/12/31/18:00:20.894,(2 3 26 60 35 9 2 1)
1969/12/31/18:00:20.895,(6 6 4 1 16 5 -1 2)
1969/12/31/18:00:20.895,(-4 -11 -33 -64 -10 -6 -7 -4)
1969/12/31/18:00:20.918,(0 5 7 62 -17 0 -1 -1)
1969/12/31/18:00:20.918,(-2 0 -5 -45 10 -2 -1 -3)
1969/12/31/18:00:20.919,(5 8 12 78 22 4 2 4)
1969/12/31/18:00:20.919,(-5 -10 -1 -43 -3 -3 0 -4)
1969/12/31/18:00:20.932,(-4 -2 -29 -100 -56 -9 -3 -3)
1969/12/31/18:00:20.932,(10 12 -1 14 -22 -2 3 8)
1969/12/31/18:00:20.932,(8 2 -3 -2 25 5 0 4)
1969/12/31/18:00:20.932,(-7 7 49 78 29 14 -1 -5)
1969/12/31/18:00:20.954,(0 -5 -25 -63 -11 -1 -2 -4)
1969/12/31/18:00:20.954,(5 5 3 24 7 2 5 5)
1969/12/31/18:00:20.955,(-3 -8 -2 33 10 -3 -1 -3)
1969/12/31/18:00:20.955,(-8 -9 -6 -40 -33 -17 -6 -8)
1969/12/31/18:00:20.978,(-1 -1 -9 -20 -5 -7 -1 -2)
1969/12/31/18:00:20.978,(-2 -4 3 39 16 2 -2 -3)
1969/12/31/18:00:20.979,(5 3 7 6 3 3 3 3)
1969/12/31/18:00:20.979,(-1 -1 4 15 -2 -3 0 -1)
1969/12/31/18:00:20.992,(0 -4 -11 -20 4 -1 -2 2)
1969/12/31/18:00:20.992,(-1 1 -2 -14 -17 -2 -1 1)
1969/12/31/18:00:20.999,(-1 0 2 19 -1 -2 -1 -1)
1969/12/31/18:00:20.999,(0 -1 2 10 10 0 -3 -2)
1969/12/31/18:00:21.014,(-2 -4 -5 -13 -3 -3 -1 0)
1969/12/31/18:00:21.014,(-1 1 -4 -12 -21 -5 -1 -1)
1969/12/31/18:00:21.015,(5 3 -1 4 11 6 1 4)
1969/12/31/18:00:21.015,(-2 1 11 34 7 0 -2 -1)
1969/12/31/18:00:21.037,(-2 -4 -9 -52 -15 -4 -2 -1)
1969/12/31/18:00:21.037,(2 4 9 34 5 1 2 0)
1969/12/31/18:00:21.038,(3 2 -1 13 12 4 1 1)
1969/12/31/18:00:21.038,(-3 -3 0 4 2 1 0 0)
1969/12/31/18:00:21.054,(-4 0 -4 -11 -11 -2 -2 -2)
1969/12/31/18:00:21.054,(-1 -1 -6 -14 -5 1 0 -1)
1969/12/31/18:00:21.055,(-2 0 2 6 0 2 0 -1)
1969/12/31/18:00:21.055,(0 -2 -3 -8 -7 -1 -2 2)
1969/12/31/18:00:21.074,(-1 -1 0 4 7 -1 -2 -2)
1969/12/31/18:00:21.074,(0 0 0 2 2 -2 1 3)
1969/12/31/18:00:21.075,(1 0 2 6 1 -2 -2 -1)
1969/12/31/18:00:21.075,(-1 0 -5 -3 -2 -2 -2 0)
1969/12/31/18:00:21.097,(-2 2 -1 -28 -3 4 0 -4)
1969/12/31/18:00:21.097,(-4 -4 1 29 2 -3 -3 -4)
1969/12/31/18:00:21.098,(-5 -4 -6 -25 -12 -2 1 0)
1969/12/31/18:00:21.098,(4 3 12 42 26 12 5 2)
1969/12/31/18:00:21.111,(6 5 3 5 10 4 -1 2)
1969/12/31/18:00:21.111,(6 2 -2 -17 -15 3 3 9)
1969/12/31/18:00:21.112,(-2 2 4 -2 6 4 -3 -4)
1969/12/31/18:00:21.112,(4 1 -7 -18 -9 0 -4 0)
1969/12/31/18:00:21.142,(-10 -4 -1 -4 -3 -1 2 -2)
1969/12/31/18:00:21.142,(-6 -6 -5 -6 -6 -8 -2 -7)
1969/12/31/18:00:21.143,(-2 -3 2 19 3 -6 0 2)
1969/12/31/18:00:21.143,(-2 1 -4 -11 -8 -9 -10 -12)
1969/12/31/18:00:21.157,(4 0 -2 9 4 0 1 1)
1969/12/31/18:00:21.157,(-6 -4 -10 -18 -11 -5 -8 -6)
1969/12/31/18:00:21.158,(-2 -5 -10 -29 -15 -1 0 1)
1969/12/31/18:00:21.158,(5 8 5 -2 5 8 7 5)
1969/12/31/18:00:21.173,(4 -1 -19 -92 -30 -7 0 5)
1969/12/31/18:00:21.173,(2 8 36 88 47 12 4 0)
1969/12/31/18:00:21.174,(-8 5 41 109 64 12 -5 -10)
1969/12/31/18:00:21.174,(1 2 1 -18 -6 1 3 4)
1969/12/31/18:00:21.194,(0 -5 -14 -41 -16 -4 1 2)
1969/12/31/18:00:21.194,(-6 -9 -29 -77 -33 -10 -1 -2)
1969/12/31/18:00:21.195,(10 4 -10 -31 -16 -3 1 6)
1969/12/31/18:00:21.195,(-13 -8 -4 0 -2 -7 -5 -4)
1969/12/31/18:00:21.217,(-20 -13 -3 13 1 -1 -5 -9)
1969/12/31/18:00:21.217,(51 34 11 -1 12 19 20 26)
1969/12/31/18:00:21.218,(14 0 -6 0 -10 -14 -9 1)
1969/12/31/18:00:21.218,(0 -6 -6 -10 -5 -4 0 -3)
1969/12/31/18:00:21.231,(-10 -6 2 15 0 -2 -2 -3)
1969/12/31/18:00:21.232,(-18 -2 11 17 10 4 -1 -8)
1969/12/31/18:00:21.232,(4 3 -5 -23 -3 3 8 6)
1969/12/31/18:00:21.232,(-7 -4 -8 -26 -8 -4 -1 0)
1969/12/31/18:00:21.254,(5 2 6 43 9 2 2 2)
1969/12/31/18:00:21.254,(-4 -5 -4 -42 -3 0 -4 -3)
1969/12/31/18:00:21.255,(-6 0 0 27 -7 0 -2 -3)
1969/12/31/18:00:21.255,(-48 -11 10 25 6 -8 -3 -15)
1969/12/31/18:00:21.268,(92 37 23 37 36 33 45 61)
1969/12/31/18:00:21.268,(-53 -40 -30 -33 -25 -32 -43 -48)
1969/12/31/18:00:21.276,(-5 -3 -10 -30 -14 -4 -3 -4)
1969/12/31/18:00:21.276,(-2 -10 -5 -6 -6 2 6 8)
1969/12/31/18:00:21.291,(26 25 7 16 9 6 7 5)
1969/12/31/18:00:21.291,(-5 -2 -5 -7 -7 -5 0 1)
1969/12/31/18:00:21.292,(-13 -7 -4 -14 -1 6 1 -8)
1969/12/31/18:00:21.292,(-6 -10 -16 -23 -11 -2 -3 -5)
1969/12/31/18:00:21.315,(-13 -2 2 0 1 -10 -7 -5)
1969/12/31/18:00:21.315,(20 7 2 -7 -18 -2 3 9)
1969/12/31/18:00:21.316,(-29 -4 14 62 29 0 -5 -14)
1969/12/31/18:00:21.316,(22 13 27 43 11 7 4 10)
1969/12/31/18:00:21.330,(-19 -15 -16 -61 -37 -21 -17 -18)
1969/12/31/18:00:21.330,(-2 4 8 43 13 6 3 2)
1969/12/31/18:00:21.336,(7 0 3 28 25 8 6 4)
1969/12/31/18:00:21.337,(11 5 4 21 26 11 5 3)
1969/12/31/18:00:21.351,(0 1 -11 -31 -11 -6 -5 2)
1969/12/31/18:00:21.351,(-21 -19 -23 -46 -22 -8 -2 -9)
1969/12/31/18:00:21.352,(18 -1 -11 -39 -30 -18 -13 12)
1969/12/31/18:00:21.352,(-4 -4 -11 -5 -7 -4 -5 -13)
1969/12/31/18:00:21.374,(-33 -5 -3 -20 -5 3 -2 -12)
1969/12/31/18:00:21.374,(-35 -20 -9 -23 -15 -5 -1 -9)
1969/12/31/18:00:21.375,(33 22 28 85 29 13 9 9)
1969/12/31/18:00:21.375,(-1 0 9 12 8 -3 -13 -10)
1969/12/31/18:00:21.399,(3 3 2 -14 -6 -3 2 7)
1969/12/31/18:00:21.399,(17 20 24 31 47 26 22 19)
1969/12/31/18:00:21.400,(-1 1 -8 13 -34 -1 4 2)
1969/12/31/18:00:21.400,(-7 -22 -18 24 7 -18 -10 -5)
1969/12/31/18:00:21.411,(-25 -18 -5 -1 4 -11 -16 -23)
1969/12/31/18:00:21.411,(16 1 -15 -50 -10 -6 -4 3)
1969/12/31/18:00:21.412,(-10 0 -3 -55 -14 -1 0 -2)
1969/12/31/18:00:21.412,(21 15 -11 -45 -10 8 8 10)
1969/12/31/18:00:21.434,(12 6 16 71 26 17 11 12)
1969/12/31/18:00:21.434,(-6 -3 0 -13 -4 -2 -6 -4)
1969/12/31/18:00:21.435,(5 -4 -31 2 -14 -2 4 5)
1969/12/31/18:00:21.435,(4 9 46 97 13 2 1 7)
1969/12/31/18:00:21.465,(-26 -11 33 81 28 -3 -15 -29)
1969/12/31/18:00:21.465,(-4 9 15 24 13 3 1 -3)
1969/12/31/18:00:21.466,(30 1 -25 -88 -31 -18 -13 13)
1969/12/31/18:00:21.466,(-10 -3 -28 -82 -18 1 7 0)
1969/12/31/18:00:21.480,(-44 -28 -15 -14 -11 -5 -7 -12)
1969/12/31/18:00:21.480,(61 32 4 8 -5 0 2 8)
1969/12/31/18:00:21.481,(-19 -13 -10 -46 1 -1 -2 -9)
1969/12/31/18:00:21.481,(16 11 6 14 -2 1 4 11)
1969/12/31/18:00:21.494,(4 3 14 21 16 4 1 3)
1969/12/31/18:00:21.494,(-11 -5 2 33 -8 1 1 1)
1969/12/31/18:00:21.495,(-2 0 15 -17 5 3 3 -1)
1969/12/31/18:00:21.495,(2 -2 0 13 10 1 0 -1)
1969/12/31/18:00:21.517,(-2 -2 -17 -30 -20 -4 -2 -5)
1969/12/31/18:00:21.517,(-6 -7 -14 -51 -16 -6 -6 -4)
1969/12/31/18:00:21.518,(1 4 11 39 20 3 0 -4)
1969/12/31/18:00:21.518,(-53 -21 0 5 9 2 -5 -24)
1969/12/31/18:00:21.540,(78 36 11 13 7 13 28 57)
1969/12/31/18:00:21.540,(-33 -22 -27 -45 -12 -14 -18 -31)
1969/12/31/18:00:21.540,(18 4 1 -33 -29 -6 1 17)
1969/12/31/18:00:21.540,(-3 -1 -4 5 7 -3 1 1)
1969/12/31/18:00:21.554,(-4 -1 2 20 0 5 1 2)
1969/12/31/18:00:21.554,(2 0 26 53 22 14 8 9)
1969/12/31/18:00:21.555,(-8 6 5 -23 9 11 13 -2)
1969/12/31/18:00:21.555,(5 -6 -17 -43 -27 -16 -14 -5)
1969/12/31/18:00:21.577,(6 5 -9 14 7 -4 -3 -1)
1969/12/31/18:00:21.577,(5 0 11 43 11 0 2 5)
1969/12/31/18:00:21.578,(-24 -12 3 10 0 3 -1 -10)
1969/12/31/18:00:21.578,(21 13 -8 -46 -14 -3 -3 8)
1969/12/31/18:00:21.592,(-19 -10 -18 -55 -29 -13 -11 -21)
1969/12/31/18:00:21.592,(2 -1 3 23 6 2 3 5)
1969/12/31/18:00:21.593,(5 -1 8 49 26 3 0 1)
1969/12/31/18:00:21.593,(-39 -13 7 11 6 11 5 -7)
1969/12/31/18:00:21.617,(45 16 -21 -43 -4 -2 -6 -2)
1969/12/31/18:00:21.617,(1 -6 -7 -11 -11 -9 -5 2)
1969/12/31/18:00:21.618,(-10 -8 -23 -84 -48 -15 -8 -12)
1969/12/31/18:00:21.618,(15 14 40 103 36 13 9 11)
1969/12/31/18:00:21.637,(-27 -7 20 47 20 -4 -13 -19)
1969/12/31/18:00:21.637,(7 2 -11 -22 -2 -2 3 8)
1969/12/31/18:00:21.638,(-10 -9 -13 -25 3 1 -3 -5)
1969/12/31/18:00:21.638,(31 7 -18 -49 -20 -1 4 9)
1969/12/31/18:00:21.651,(3 0 8 18 -1 -1 2 6)
1969/12/31/18:00:21.651,(0 4 5 18 -1 1 -1 -2)
1969/12/31/18:00:21.652,(-44 -24 9 32 14 6 2 -14)
1969/12/31/18:00:21.652,(45 22 -21 -74 -20 -8 -3 8)
1969/12/31/18:00:21.674,(-36 -14 7 43 3 -4 -5 -7)
1969/12/31/18:00:21.674,(24 18 2 -6 6 5 8 8)
1969/12/31/18:00:21.682,(-7 1 -3 3 -4 -2 -3 -4)
1969/12/31/18:00:21.682,(-7 -20 -4 5 2 2 1 -1)
1969/12/31/18:00:21.697,(-14 1 -4 -62 -12 0 1 -2)
1969/12/31/18:00:21.697,(-5 -9 -8 14 -4 -8 -6 1)
1969/12/31/18:00:21.698,(20 13 6 21 15 9 14 22)
1969/12/31/18:00:21.698,(-29 -14 -2 -5 -5 -10 -14 -15)
1969/12/31/18:00:21.711,(1 -8 -3 -9 -8 -7 -5 -4)
1969/12/31/18:00:21.711,(-27 5 1 15 3 1 -3 -15)
1969/12/31/18:00:21.712,(58 15 16 29 22 12 12 28)
1969/12/31/18:00:21.712,(24 16 2 -10 -8 1 10 20)
1969/12/31/18:00:21.735,(-33 -26 2 20 4 -2 -10 -20)
1969/12/31/18:00:21.735,(23 1 -4 -38 -12 3 9 24)
1969/12/31/18:00:21.736,(-48 -24 -16 20 -4 -20 -26 -44)
1969/12/31/18:00:21.736,(22 17 12 34 -1 4 2 -1)
1969/12/31/18:00:21.759,(-19 -30 -18 -57 23 6 3 4)
1969/12/31/18:00:21.759,(51 33 -2 21 -13 10 17 30)
1969/12/31/18:00:21.760,(18 16 36 45 12 -4 -9 -8)
1969/12/31/18:00:21.760,(-15 -20 -6 -24 -3 -6 -3 -2)
1969/12/31/18:00:21.771,(53 22 6 52 -1 -2 2 16)
1969/12/31/18:00:21.772,(-71 -31 -10 -22 7 -2 -8 -30)
1969/12/31/18:00:21.772,(32 19 -5 -11 -1 16 26 32)
1969/12/31/18:00:21.772,(-25 -8 -8 -17 -13 -9 -12 -20)
1969/12/31/18:00:21.794,(-7 -4 -31 -106 -35 -14 -17 -23)
1969/12/31/18:00:21.794,(-21 -28 -5 52 3 -11 -14 -15)
1969/12/31/18:00:21.795,(-47 -18 21 60 18 4 -1 -8)
1969/12/31/18:00:21.795,(39 30 -9 -60 -27 -10 -8 1)
1969/12/31/18:00:21.819,(29 20 16 93 15 13 23 30)
1969/12/31/18:00:21.819,(30 18 19 55 47 15 9 11)
1969/12/31/18:00:21.820,(-39 -31 -21 -27 -56 -22 -18 -31)
1969/12/31/18:00:21.820,(-7 -7 22 49 74 15 15 12)
1969/12/31/18:00:21.832,(-12 -1 1 -1 -22 -1 -4 -6)
1969/12/31/18:00:21.832,(11 2 4 -13 -4 6 0 3)
1969/12/31/18:00:21.832,(-23 -20 -8 -40 31 9 -3 -9)
1969/12/31/18:00:21.832,(41 58 5 -12 -9 14 19 25)
1969/12/31/18:00:21.854,(-94 -78 -12 -21 -19 -29 -37 -58)
1969/12/31/18:00:21.854,(70 57 16 0 -1 0 14 27)
1969/12/31/18:00:21.855,(28 17 -18 -37 -27 -19 -20 -10)
1969/12/31/18:00:21.855,(-19 -36 -26 -20 -13 -3 -1 -3)
1969/12/31/18:00:21.885,(-10 1 7 13 19 16 15 11)
1969/12/31/18:00:21.885,(-58 -43 -17 -26 -17 -7 -12 -25)
1969/12/31/18:00:21.886,(-2 15 21 33 8 0 2 5)
1969/12/31/18:00:21.886,(-14 -18 -6 -68 -21 -6 -4 -1)
1969/12/31/18:00:21.891,(57 45 38 124 36 12 18 27)
1969/12/31/18:00:21.891,(-53 -40 -29 -58 -13 -13 -26 -40)
1969/12/31/18:00:21.899,(12 -5 3 -2 -2 13 20 25)
1969/12/31/18:00:21.899,(-36 -26 11 45 19 3 -11 -18)
1969/12/31/18:00:21.914,(71 43 -14 -55 -15 2 11 33)
1969/12/31/18:00:21.914,(-21 14 -12 -27 -22 -19 -15 -18)
1969/12/31/18:00:21.915,(-13 -25 -15 -18 11 6 3 -5)
1969/12/31/18:00:21.915,(-6 -3 -9 0 -17 -14 -15 -4)
1969/12/31/18:00:21.937,(2 -14 -9 -18 -8 2 3 4)
1969/12/31/18:00:21.937,(16 11 23 42 16 3 5 14)
1969/12/31/18:00:21.938,(-5 -2 -1 1 7 11 11 12)
1969/12/31/18:00:21.938,(-10 -8 15 31 1 7 3 -7)
1969/12/31/18:00:21.952,(-24 -2 -7 -10 14 -8 -7 -13)
1969/12/31/18:00:21.952,(29 15 -14 -51 -7 7 11 15)
1969/12/31/18:00:21.952,(39 7 -10 -9 -12 0 11 32)
1969/12/31/18:00:21.952,(4 22 30 81 17 0 -12 -25)
1969/12/31/18:00:21.974,(22 16 17 6 14 11 10 15)
1969/12/31/18:00:21.974,(-70 -39 -10 -4 -11 -13 -14 -28)
1969/12/31/18:00:21.975,(16 -10 -20 -45 -20 -23 -28 -19)
1969/12/31/18:00:21.975,(40 25 -13 -18 -2 0 11 19)
1969/12/31/18:00:21.997,(-32 -5 -7 4 -13 -7 -15 -23)
1969/12/31/18:00:21.997,(42 23 30 -3 17 29 36 51)
1969/12/31/18:00:21.998,(-18 5 4 38 18 -2 -6 -13)
1969/12/31/18:00:21.998,(8 -2 -15 -4 -20 -8 -2 9)
1969/12/31/18:00:22.020,(-24 -16 6 -12 2 11 9 -6)
1969/12/31/18:00:22.020,(4 5 16 37 9 -3 -4 -2)
1969/12/31/18:00:22.021,(-30 -12 10 17 9 6 8 -2)
1969/12/31/18:00:22.021,(38 35 5 -19 2 4 7 13)
1969/12/31/18:00:22.034,(-32 -20 -17 -10 -12 -9 -8 -11)
1969/12/31/18:00:22.034,(-49 -41 -10 -10 -13 -14 -17 -24)
1969/12/31/18:00:22.035,(25 35 1 3 7 2 6 9)
1969/12/31/18:00:22.035,(14 -5 -1 -4 2 2 -3 -10)
1969/12/31/18:00:22.058,(4 2 4 -15 -8 5 8 8)
1969/12/31/18:00:22.058,(17 9 0 7 0 -7 -7 2)
1969/12/31/18:00:22.059,(-26 -16 -9 -23 -11 -12 -19 -22)
1969/12/31/18:00:22.059,(-39 -22 4 17 10 12 15 9)
1969/12/31/18:00:22.080,(61 36 3 12 3 1 2 18)
1969/12/31/18:00:22.080,(-56 -29 -5 -15 -3 -6 -23 -42)
1969/12/31/18:00:22.081,(18 13 -5 1 -1 0 3 8)
1969/12/31/18:00:22.081,(-26 -20 -19 -11 -7 -8 -11 -14)
1969/12/31/18:00:22.094,(-29 -8 11 5 -1 -2 -6 -13)
1969/12/31/18:00:22.094,(37 13 2 -8 -2 7 18 30)
1969/12/31/18:00:22.095,(-28 -8 9 20 1 0 -6 -16)
1969/12/31/18:00:22.095,(18 14 5 31 12 -7 -9 -11)
1969/12/31/18:00:22.117,(-25 -19 -16 -22 -8 -8 -9 -8)
1969/12/31/18:00:22.117,(14 -2 -1 -2 1 2 0 4)
1969/12/31/18:00:22.118,(39 35 -3 -23 -12 -13 -14 -7)
1969/12/31/18:00:22.118,(-7 -11 6 5 5 2 0 -1)
1969/12/31/18:00:22.131,(-30 -19 -13 -13 -17 -8 -8 -15)
1969/12/31/18:00:22.131,(41 20 6 6 6 6 9 15)
1969/12/31/18:00:22.139,(28 20 4 4 1 2 7 13)
1969/12/31/18:00:22.139,(-35 -19 -33 -64 -5 -2 -3 -13)
1969/12/31/18:00:22.163,(-27 -30 11 29 -1 -1 -5 -6)
1969/12/31/18:00:22.163,(26 50 32 62 16 11 8 3)
1969/12/31/18:00:22.163,(-63 -53 4 6 12 9 16 16)
1969/12/31/18:00:22.163,(3 16 6 3 -4 -5 -13 -22)
1969/12/31/18:00:22.177,(46 30 -5 -23 1 -4 -5 1)
1969/12/31/18:00:22.177,(-23 -33 -23 -47 -11 3 10 6)
1969/12/31/18:00:22.178,(-18 1 10 27 7 8 4 2)
1969/12/31/18:00:22.178,(30 20 6 8 1 1 0 6)
1969/12/31/18:00:22.191,(-24 -14 -6 -3 0 -7 -14 -16)
1969/12/31/18:00:22.191,(-22 -13 1 0 -8 -11 -9 -14)
1969/12/31/18:00:22.199,(77 34 -12 -23 -6 3 10 28)
1969/12/31/18:00:22.199,(-35 -23 -4 -3 -2 8 3 -8)
1969/12/31/18:00:22.214,(0 9 3 2 0 -2 -3 -1)
1969/12/31/18:00:22.214,(-19 -12 -1 11 9 9 7 -7)
1969/12/31/18:00:22.215,(-4 -5 -1 -4 -2 -1 -4 6)
1969/12/31/18:00:22.215,(24 5 0 13 8 -3 -2 6)
1969/12/31/18:00:22.237,(29 14 3 -12 -16 2 7 15)
1969/12/31/18:00:22.237,(-27 -20 -5 0 5 -2 -2 -9)
1969/12/31/18:00:22.238,(47 26 -1 -8 0 7 16 22)
1969/12/31/18:00:22.238,(-22 -10 0 10 -3 -11 -12 -12)
1969/12/31/18:00:22.251,(-4 -2 -2 6 3 1 2 -2)
1969/12/31/18:00:22.251,(16 6 -3 4 3 8 11 17)
1969/12/31/18:00:22.259,(-13 -15 -14 -33 -8 -10 -17 -17)
1969/12/31/18:00:22.259,(-46 -31 17 54 16 8 12 8)
1969/12/31/18:00:22.274,(95 93 26 14 7 15 25 48)
1969/12/31/18:00:22.274,(-26 -16 -16 -9 -15 -19 -24 -22)
1969/12/31/18:00:22.275,(-15 -7 -6 -1 4 2 -3 -9)
1969/12/31/18:00:22.275,(-10 -13 -6 -33 -12 0 7 9)
1969/12/31/18:00:22.298,(-6 -20 -11 -8 4 8 17 19)
1969/12/31/18:00:22.298,(37 31 10 5 -5 -16 -23 -12)
1969/12/31/18:00:22.299,(-19 -16 -7 -10 -8 -7 -10 -17)
1969/12/31/18:00:22.299,(3 -3 5 3 2 10 13 18)
1969/12/31/18:00:22.311,(-15 -20 -6 8 7 1 0 -4)
1969/12/31/18:00:22.311,(27 23 -2 -20 -2 5 11 21)
1969/12/31/18:00:22.319,(-32 -13 -2 -10 2 -9 -14 -32)
1969/12/31/18:00:22.319,(16 14 9 34 -7 2 9 15)
1969/12/31/18:00:22.333,(-18 -10 -1 -1 6 -6 -16 -20)
1969/12/31/18:00:22.333,(-3 -10 -14 -15 -4 0 4 0)
1969/12/31/18:00:22.342,(-27 -13 -5 -24 -7 -2 -11 -22)
1969/12/31/18:00:22.342,(3 3 -4 23 3 0 4 14)
1969/12/31/18:00:22.357,(-9 4 15 9 3 -4 -11 -21)
1969/12/31/18:00:22.357,(-6 -9 -1 3 -3 0 3 0)
1969/12/31/18:00:22.358,(-2 8 -1 0 -4 -6 0 0)
1969/12/31/18:00:22.358,(-19 -17 -19 -32 -9 -6 -5 -3)
1969/12/31/18:00:22.380,(-16 -16 -3 -9 -5 1 2 -4)
1969/12/31/18:00:22.380,(-5 -5 7 31 17 0 -3 -1)
1969/12/31/18:00:22.381,(6 3 9 25 -8 -2 0 5)
1969/12/31/18:00:22.381,(38 23 11 -10 -2 1 2 5)
1969/12/31/18:00:22.393,(1 6 -11 -19 -3 -2 1 2)
1969/12/31/18:00:22.393,(-40 -37 -9 -9 -6 -10 -11 -10)
1969/12/31/18:00:22.402,(-7 22 14 39 27 28 29 8)
1969/12/31/18:00:22.402,(-6 -7 0 4 -5 -13 -19 -15)
1969/12/31/18:00:22.417,(8 8 -2 -5 1 4 6 6)
1969/12/31/18:00:22.417,(-14 -9 -2 -13 -11 -4 -5 -9)
1969/12/31/18:00:22.418,(-21 -21 -9 -9 -2 -12 -7 -5)
1969/12/31/18:00:22.418,(36 27 6 7 -2 8 9 11)
1969/12/31/18:00:22.440,(-33 -44 -8 -7 -4 -6 -6 -8)
1969/12/31/18:00:22.440,(45 40 18 23 17 11 9 12)
1969/12/31/18:00:22.441,(37 18 0 -19 -3 7 16 24)
1969/12/31/18:00:22.441,(3 8 -24 -76 -26 -9 -4 -1)
1969/12/31/18:00:22.454,(-14 -23 16 69 5 -9 -9 -10)
1969/12/31/18:00:22.454,(-79 -47 13 56 28 11 1 -16)
1969/12/31/18:00:22.460,(87 90 37 45 39 29 31 59)
1969/12/31/18:00:22.460,(-48 -22 -8 -18 -2 -3 -10 -24)
1969/12/31/18:00:22.477,(-2 8 -19 -56 -21 -2 6 4)
1969/12/31/18:00:22.477,(0 -10 -12 -22 -25 -16 -11 -9)
1969/12/31/18:00:22.478,(-17 -20 0 8 -4 -8 -9 -14)
1969/12/31/18:00:22.478,(-24 -36 -5 -3 3 6 9 13)
1969/12/31/18:00:22.501,(44 36 7 7 11 3 -6 -3)
1969/12/31/18:00:22.501,(43 28 5 -5 -1 7 16 21)
1969/12/31/18:00:22.502,(-30 -31 -11 -18 -15 -12 -17 -20)
1969/12/31/18:00:22.502,(-7 -6 2 6 6 -7 -5 -8)
1969/12/31/18:00:22.513,(4 8 3 0 12 8 13 13)
1969/12/31/18:00:22.513,(20 15 -3 -7 -3 2 -1 6)
1969/12/31/18:00:22.522,(-6 0 6 5 2 0 -3 -10)
1969/12/31/18:00:22.522,(-21 -19 6 17 -2 -11 -16 -22)
1969/12/31/18:00:22.537,(-3 2 -4 -1 9 10 13 11)
1969/12/31/18:00:22.537,(6 5 -5 -13 -6 -5 -3 -3)
1969/12/31/18:00:22.538,(-13 -19 -24 -74 -39 -13 -10 -7)
1969/12/31/18:00:22.539,(5 0 -10 -29 -2 3 6 8)
1969/12/31/18:00:22.559,(5 1 13 58 5 -2 -5 -2)
1969/12/31/18:00:22.560,(-4 3 25 65 34 11 -1 -9)
1969/12/31/18:00:22.561,(-6 1 9 20 8 6 8 10)
1969/12/31/18:00:22.561,(-3 11 5 -9 -4 -4 -10 -10)
1969/12/31/18:00:22.582,(-18 -18 -23 -55 -24 -12 -7 -7)
1969/12/31/18:00:22.582,(-10 -5 -6 -20 -15 -3 -2 -9)
1969/12/31/18:00:22.584,(54 21 7 18 7 2 9 25)
1969/12/31/18:00:22.584,(-3 -2 -11 -2 0 -6 -9 -8)
1969/12/31/18:00:22.597,(1 1 8 -3 -5 -1 -6 -3)
1969/12/31/18:00:22.597,(2 0 6 7 12 18 12 9)
1969/12/31/18:00:22.598,(-14 -14 -21 -4 -9 -19 -15 -10)
1969/12/31/18:00:22.598,(3 -7 -18 -10 -14 -10 -2 5)
1969/12/31/18:00:22.619,(-10 -3 4 -2 -1 -2 -4 -9)
1969/12/31/18:00:22.619,(7 5 0 -22 -16 -3 -1 5)
1969/12/31/18:00:22.621,(-9 -4 -1 -2 18 9 1 -11)
1969/12/31/18:00:22.621,(12 5 1 -22 -9 4 8 10)
1969/12/31/18:00:22.633,(7 8 11 49 12 6 3 -3)
1969/12/31/18:00:22.633,(18 15 6 9 11 5 4 12)
1969/12/31/18:00:22.642,(-8 6 22 36 15 7 3 1)
1969/12/31/18:00:22.642,(-34 -20 -3 10 -2 -14 -28 -37)
1969/12/31/18:00:22.657,(-9 -10 -20 -65 -12 3 7 9)
1969/12/31/18:00:22.657,(-4 -9 -17 -32 -20 -8 -1 0)
1969/12/31/18:00:22.658,(29 21 8 30 -3 -1 4 12)
1969/12/31/18:00:22.659,(-7 2 22 44 23 17 17 11)
1969/12/31/18:00:22.680,(58 35 6 5 1 2 2 9)
1969/12/31/18:00:22.680,(5 0 -13 -10 -6 -11 -4 -1)
1969/12/31/18:00:22.681,(-31 -28 -17 -24 -12 -10 -13 -25)
1969/12/31/18:00:22.681,(18 16 8 11 7 15 15 18)
1969/12/31/18:00:22.693,(-11 -9 -11 -23 3 -2 -1 0)
1969/12/31/18:00:22.693,(-11 -12 -14 -23 -25 -3 4 3)
1969/12/31/18:00:22.703,(21 5 6 38 -2 -10 -6 6)
1969/12/31/18:00:22.703,(-42 -2 26 56 27 4 -14 -37)
1969/12/31/18:00:22.718,(-26 -22 -4 9 13 -6 -8 -5)
1969/12/31/18:00:22.718,(46 30 0 -6 -10 -2 -5 -1)
1969/12/31/18:00:22.719,(-56 -45 -20 -36 -14 -10 -16 -34)
1969/12/31/18:00:22.719,(5 1 -9 -10 -3 10 17 30)
1969/12/31/18:00:22.740,(16 7 2 -3 -7 -17 -16 -12)
1969/12/31/18:00:22.740,(-22 -9 -8 -11 2 -5 -3 -5)
1969/12/31/18:00:22.741,(2 6 0 -6 -3 7 6 3)
1969/12/31/18:00:22.741,(19 9 0 -7 -5 1 7 9)
1969/12/31/18:00:22.753,(-29 -12 6 10 4 10 -1 -12)
1969/12/31/18:00:22.753,(21 19 16 15 6 6 12 20)
1969/12/31/18:00:22.762,(-4 -12 -19 -36 -29 -18 -12 -8)
1969/12/31/18:00:22.762,(7 -7 -29 -44 -21 -18 -4 1)
1969/12/31/18:00:22.777,(-3 7 35 80 29 16 10 8)
1969/12/31/18:00:22.777,(0 7 23 84 64 23 2 -3)
1969/12/31/18:00:22.779,(-5 -4 16 -15 16 17 4 0)
1969/12/31/18:00:22.779,(8 9 -10 -13 -22 -12 -9 -6)
1969/12/31/18:00:22.800,(-1 -18 -52 -44 -21 -10 3 5)
1969/12/31/18:00:22.800,(-11 -10 6 -12 -17 -8 -6 -5)
1969/12/31/18:00:22.801,(-4 2 -2 -12 -3 0 2 -2)
1969/12/31/18:00:22.801,(12 7 19 0 4 2 3 7)
1969/12/31/18:00:22.813,(3 9 10 -12 -6 1 5 5)
1969/12/31/18:00:22.813,(0 -1 -2 -2 7 2 3 3)
1969/12/31/18:00:22.822,(-1 -4 -21 -10 -10 -7 -6 -1)
1969/12/31/18:00:22.822,(0 -14 -15 4 -6 -8 -4 -4)
1969/12/31/18:00:22.837,(-15 -8 3 15 5 -2 -4 -5)
1969/12/31/18:00:22.837,(-1 5 14 -19 -7 -2 -2 -4)
1969/12/31/18:00:22.839,(8 17 36 24 15 23 11 5)
1969/12/31/18:00:22.839,(15 0 -36 4 2 0 6 11)
1969/12/31/18:00:22.859,(-11 -21 -40 -24 -13 -16 -12 -8)
1969/12/31/18:00:22.860,(-15 -13 4 -28 -23 -19 -12 -11)
1969/12/31/18:00:22.861,(-4 3 1 42 11 1 1 -3)
1969/12/31/18:00:22.861,(3 1 19 49 20 10 4 2)
1969/12/31/18:00:22.873,(-4 1 11 -13 9 3 1 -4)
1969/12/31/18:00:22.873,(3 4 5 11 -8 -1 3 3)
1969/12/31/18:00:22.882,(4 13 25 4 18 12 8 4)
1969/12/31/18:00:22.882,(9 12 -7 -51 -13 3 2 4)
1969/12/31/18:00:22.897,(7 -2 -16 4 -5 -5 1 6)
1969/12/31/18:00:22.897,(-6 -10 6 -15 -8 -3 -3 -3)
1969/12/31/18:00:22.898,(1 7 5 5 2 -4 -1 1)
1969/12/31/18:00:22.898,(-3 -12 -31 16 5 0 0 -3)
1969/12/31/18:00:22.920,(0 2 32 -8 -4 -7 -2 1)
1969/12/31/18:00:22.920,(-11 -13 -47 -35 -24 -14 -10 -9)
1969/12/31/18:00:22.921,(0 -15 -21 28 12 1 0 1)
1969/12/31/18:00:22.921,(-6 2 24 24 -2 -6 -10 -7)
1969/12/31/18:00:22.933,(-5 1 4 -14 -6 1 -1 -3)
1969/12/31/18:00:22.933,(4 4 11 30 16 7 6 6)
1969/12/31/18:00:22.942,(5 6 9 -14 -11 0 2 2)
1969/12/31/18:00:22.942,(7 8 8 -1 11 9 8 4)
1969/12/31/18:00:22.957,(-1 0 -6 -26 -13 2 2 0)
1969/12/31/18:00:22.957,(5 9 10 5 -1 1 1 1)
1969/12/31/18:00:22.959,(0 -4 -21 15 15 -2 -6 -4)
1969/12/31/18:00:22.959,(-6 -10 6 10 3 -1 -3 -3)
1969/12/31/18:00:22.996,(-5 0 6 -17 -13 -5 -3 -6)
1969/12/31/18:00:22.996,(5 -5 -36 -11 -2 2 2 3)
1969/12/31/18:00:22.998,(-8 -9 0 -5 -4 -10 -7 -4)
1969/12/31/18:00:22.998,(3 8 15 -1 0 8 4 1)
1969/12/31/18:00:22.998,(1 5 7 5 0 4 1 1)
1969/12/31/18:00:22.998,(0 -1 -10 -2 2 -2 0 0)
1969/12/31/18:00:23.002,(-7 -11 -14 -24 -18 -14 -9 -5)
1969/12/31/18:00:23.002,(-3 -3 0 -5 -5 -1 3 0)
1969/12/31/18:00:23.016,(0 2 2 24 15 9 4 1)
1969/12/31/18:00:23.016,(4 4 0 -10 -4 -6 -1 4)
1969/12/31/18:00:23.024,(2 3 5 -16 -13 -2 0 1)
1969/12/31/18:00:23.024,(3 3 9 20 10 -1 -3 0)
1969/12/31/18:00:23.040,(-4 1 -6 30 14 7 -1 -4)
1969/12/31/18:00:23.040,(-1 -9 -16 -15 5 8 1 1)
1969/12/31/18:00:23.041,(-6 -3 2 -16 -13 -6 -2 -4)
1969/12/31/18:00:23.041,(2 2 3 -15 -3 0 -1 1)
1969/12/31/18:00:23.053,(2 2 -2 -14 -9 1 1 1)
1969/12/31/18:00:23.053,(2 8 10 -2 10 1 0 1)
1969/12/31/18:00:23.062,(9 8 9 1 -1 10 6 6)
1969/12/31/18:00:23.062,(-1 0 14 7 14 9 1 0)
1969/12/31/18:00:23.084,(-11 -12 -32 -9 -8 -14 -13 -7)
1969/12/31/18:00:23.085,(1 -1 8 -16 -6 -2 -2 1)
1969/12/31/18:00:23.086,(-2 2 1 -18 -2 0 0 -3)
1969/12/31/18:00:23.086,(0 8 3 8 -2 6 5 1)
1969/12/31/18:00:23.100,(10 9 15 21 25 10 6 6)
1969/12/31/18:00:23.100,(-9 -3 -1 14 1 2 -2 -7)
1969/12/31/18:00:23.101,(0 0 0 8 10 -4 1 0)
1969/12/31/18:00:23.101,(-3 -9 -14 -35 -16 -7 5 2)
1969/12/31/18:00:23.113,(1 -3 -6 14 -3 -6 1 2)
1969/12/31/18:00:23.113,(-3 -7 -3 5 -6 -13 -3 -2)
1969/12/31/18:00:23.130,(1 -6 -16 -12 -6 -7 -1 -1)
1969/12/31/18:00:23.130,(4 -1 0 16 4 -2 -1 2)
1969/12/31/18:00:23.137,(-13 -2 14 -7 -13 -12 -9 -11)
1969/12/31/18:00:23.137,(-1 -17 -18 0 -1 -6 -1 2)
1969/12/31/18:00:23.145,(-8 -1 2 11 -3 -7 -7 -7)
1969/12/31/18:00:23.145,(0 1 -10 -5 -2 -3 -2 -2)
1969/12/31/18:00:23.160,(5 2 2 -5 0 6 5 2)
1969/12/31/18:00:23.160,(1 -1 -3 -2 -1 6 0 0)
1969/12/31/18:00:23.161,(-1 -5 0 6 4 3 2 1)
1969/12/31/18:00:23.161,(-7 -3 -1 0 -4 -6 -5 -1)
1969/12/31/18:00:23.173,(-3 -4 -1 -11 -3 0 0 0)
1969/12/31/18:00:23.173,(2 14 11 16 7 5 -3 -3)
1969/12/31/18:00:23.190,(6 -10 -10 -5 -12 4 10 10)
1969/12/31/18:00:23.190,(-3 -1 8 11 17 3 -1 -3)
1969/12/31/18:00:23.196,(-2 1 -1 -13 -10 -5 0 -2)
1969/12/31/18:00:23.196,(2 2 6 5 1 -2 -2 -1)
1969/12/31/18:00:23.211,(-4 -2 -9 -1 0 1 -4 -5)
1969/12/31/18:00:23.211,(-3 2 2 -3 -4 1 -4 -5)
1969/12/31/18:00:23.220,(6 -4 -7 0 -3 1 3 6)
1969/12/31/18:00:23.220,(-4 -1 1 0 1 2 2 -3)
1969/12/31/18:00:23.221,(-2 2 11 14 2 -5 -4 -4)
1969/12/31/18:00:23.221,(6 -3 -10 -10 -7 -2 3 5)
1969/12/31/18:00:23.233,(-2 -1 1 -1 0 0 -3 -2)
1969/12/31/18:00:23.233,(8 3 -3 -3 1 5 5 10)
1969/12/31/18:00:23.242,(-2 0 1 -4 -1 -2 -5 -5)
1969/12/31/18:00:23.242,(-1 3 7 2 -2 -1 0 -3)
1969/12/31/18:00:23.257,(0 1 0 6 3 4 -2 -3)
1969/12/31/18:00:23.257,(-2 -2 -5 -9 -2 0 -1 -3)
1969/12/31/18:00:23.279,(1 4 3 3 -2 1 0 1)
1969/12/31/18:00:23.279,(1 3 4 2 5 4 0 0)
1969/12/31/18:00:23.288,(0 0 -3 -5 -1 4 2 3)
1969/12/31/18:00:23.288,(-3 1 1 -2 -3 0 0 -2)
1969/12/31/18:00:23.289,(1 3 3 -6 -2 -5 -2 2)
1969/12/31/18:00:23.289,(-6 -5 -6 -8 -3 0 -2 -4)
1969/12/31/18:00:23.304,(7 1 -4 -5 -2 -2 6 7)
1969/12/31/18:00:23.304,(-2 -1 2 16 -3 -3 -1 -1)
1969/12/31/18:00:23.306,(-3 -1 10 11 19 -1 -2 -4)
1969/12/31/18:00:23.306,(-4 -4 -2 -2 -4 -1 -1 -1)
1969/12/31/18:00:23.316,(-3 -1 -3 -10 -6 -4 -4 0)
1969/12/31/18:00:23.316,(-1 -4 -11 -24 -12 -3 -1 0)
1969/12/31/18:00:23.323,(2 4 -1 11 8 4 0 2)
1969/12/31/18:00:23.323,(1 5 10 21 13 2 0 0)
1969/12/31/18:00:23.347,(0 0 2 -2 5 5 0 -2)
1969/12/31/18:00:23.347,(-2 -2 1 -1 -6 -3 -1 1)
1969/12/31/18:00:23.349,(-2 -5 -8 -14 -9 -3 -2 -1)
1969/12/31/18:00:23.349,(-2 -1 -1 -11 -1 -2 -4 -3)
1969/12/31/18:00:23.362,(1 -1 0 3 -3 -1 -1 -1)
1969/12/31/18:00:23.362,(-2 -2 -1 1 4 1 1 0)
1969/12/31/18:00:23.364,(0 1 -1 0 -1 0 2 0)
1969/12/31/18:00:23.364,(-1 -3 -8 -13 -11 -4 1 -4)
1969/12/31/18:00:23.392,(-2 4 4 6 4 0 0 -2)
1969/12/31/18:00:23.392,(0 -3 -1 14 9 1 -3 -2)
1969/12/31/18:00:23.394,(2 -1 0 3 6 -1 -1 2)
1969/12/31/18:00:23.394,(-3 -3 4 1 -5 -3 -5 -4)
1969/12/31/18:00:23.408,(-2 -5 -4 -2 -1 -3 -3 -3)
1969/12/31/18:00:23.408,(0 -2 -1 -6 -2 0 2 1)
1969/12/31/18:00:23.409,(2 2 -5 0 -6 1 3 2)
1969/12/31/18:00:23.409,(2 -5 -5 -1 -1 -1 0 2)
1969/12/31/18:00:23.423,(12 7 -1 -6 -2 1 5 12)
1969/12/31/18:00:23.423,(2 7 9 9 10 12 6 -3)
1969/12/31/18:00:23.424,(-9 -6 -8 -6 -6 -4 -9 -14)
1969/12/31/18:00:23.424,(-2 1 0 -4 0 -3 -1 -1)
1969/12/31/18:00:23.436,(-2 -1 0 0 1 -3 -3 -1)
1969/12/31/18:00:23.436,(8 3 1 -2 -3 1 5 12)
1969/12/31/18:00:23.445,(-6 -6 -1 -2 -1 3 -1 1)
1969/12/31/18:00:23.445,(-1 3 -1 -2 1 2 2 0)
1969/12/31/18:00:23.459,(3 0 -1 3 0 1 0 1)
1969/12/31/18:00:23.459,(-4 -3 -1 0 2 -2 -1 -3)
1969/12/31/18:00:23.461,(-1 1 1 0 0 0 -1 -2)
1969/12/31/18:00:23.461,(-4 -2 -3 1 -2 -4 -2 -1)
1969/12/31/18:00:23.482,(-3 0 0 0 -1 -1 0 -1)
1969/12/31/18:00:23.482,(-3 -1 -1 -3 -3 -7 -7 -6)
1969/12/31/18:00:23.484,(0 -3 -2 -1 -4 -1 -1 -1)
1969/12/31/18:00:23.484,(6 1 1 1 -1 0 2 3)
1969/12/31/18:00:23.505,(-1 0 2 1 1 0 -3 -5)
1969/12/31/18:00:23.505,(-4 -3 -1 -3 -2 0 -2 -3)
1969/12/31/18:00:23.506,(4 3 1 2 0 3 4 5)
1969/12/31/18:00:23.506,(-1 1 0 0 0 0 -2 0)
1969/12/31/18:00:23.520,(-2 -4 1 0 0 0 0 -4)
1969/12/31/18:00:23.520,(-4 -2 -1 -2 -2 -4 -5 -1)
1969/12/31/18:00:23.521,(1 1 1 -1 -2 0 -1 1)
1969/12/31/18:00:23.521,(-3 0 2 0 2 -1 -1 -2)
1969/12/31/18:00:23.550,(-5 -3 -3 2 2 0 -1 -2)
1969/12/31/18:00:23.550,(1 2 1 -1 0 -1 2 0)
1969/12/31/18:00:23.551,(-1 1 0 -1 0 -3 -1 -1)
1969/12/31/18:00:23.551,(-2 -2 -1 0 2 1 -1 -3)
1969/12/31/18:00:23.556,(0 -1 -1 -2 0 2 4 1)
1969/12/31/18:00:23.556,(-1 -1 -1 -1 1 0 -2 -2)
1969/12/31/18:00:23.565,(1 0 1 -3 -3 -1 -1 0)
1969/12/31/18:00:23.565,(0 -2 -2 0 -1 0 -1 0)
1969/12/31/18:00:23.588,(0 0 1 0 0 -1 0 0)
1969/12/31/18:00:23.588,(-3 -2 -1 -2 0 -2 -1 -2)
1969/12/31/18:00:23.589,(-1 -1 -2 -2 0 0 1 1)
1969/12/31/18:00:23.589,(-1 -1 -2 0 -1 -1 -1 0)
1969/12/31/18:00:23.602,(-1 -4 0 1 1 1 -1 -1)
1969/12/31/18:00:23.602,(-1 -1 0 0 -2 -2 -1 -2)
1969/12/31/18:00:23.604,(2 0 -1 0 1 -1 1 2)
1969/12/31/18:00:23.604,(0 -1 -2 -1 0 0 -2 -1)
1969/12/31/18:00:23.632,(0 2 1 0 -1 -2 -2 0)
1969/12/31/18:00:23.632,(-1 0 -3 -2 -2 -2 -1 -1)
1969/12/31/18:00:23.634,(-1 -1 -1 0 -1 -1 2 -1)
1969/12/31/18:00:23.634,(1 1 0 0 -2 2 1 1)
1969/12/31/18:00:23.640,(-4 -2 -1 0 -1 -2 -2 -1)
1969/12/31/18:00:23.640,(0 -1 0 0 -1 0 0 1)
1969/12/31/18:00:23.641,(-1 0 -2 0 -1 0 -2 -2)
1969/12/31/18:00:23.641,(3 2 1 -1 0 0 3 1)
1969/12/31/18:00:23.662,(-1 -2 -1 0 -2 -2 -1 -1)
1969/12/31/18:00:23.662,(-2 -1 0 0 -1 -2 -2 -2)
1969/12/31/18:00:23.664,(-3 -3 -2 1 0 1 3 1)
1969/12/31/18:00:23.664,(1 1 2 -1 -2 -2 -1 0)
1969/12/31/18:00:23.685,(1 2 1 1 0 0 0 -1)
1969/12/31/18:00:23.685,(-1 -4 -4 -2 0 -2 -3 0)
1969/12/31/18:00:23.687,(1 0 0 -2 0 0 0 0)
1969/12/31/18:00:23.687,(0 -1 -1 1 0 1 -2 1)
1969/12/31/18:00:23.700,(-1 -1 -3 -3 -1 1 1 -1)
1969/12/31/18:00:23.700,(4 2 2 4 1 -1 0 1)
1969/12/31/18:00:23.701,(-4 -1 0 -5 -4 -2 -2 -4)
1969/12/31/18:00:23.701,(-1 0 -2 0 -1 -1 0 1)
1969/12/31/18:00:23.730,(-1 -1 -2 -2 -1 -1 0 -1)
1969/12/31/18:00:23.730,(0 1 -2 -2 0 0 0 0)
1969/12/31/18:00:23.731,(3 1 -2 0 -1 -1 1 1)
1969/12/31/18:00:23.731,(-1 -1 -1 -2 -1 0 -1 -1)
1969/12/31/18:00:23.736,(1 1 2 0 -1 -1 0 0)
1969/12/31/18:00:23.736,(0 -1 0 -1 -1 -2 -1 -1)
1969/12/31/18:00:23.745,(-2 1 1 1 0 0 -1 0)
1969/12/31/18:00:23.745,(-2 -1 -2 -1 -1 0 -1 -3)
1969/12/31/18:00:23.760,(1 0 0 -2 1 -1 -3 -1)
1969/12/31/18:00:23.760,(-1 1 0 -1 1 1 0 -1)
1969/12/31/18:00:23.761,(3 -1 0 0 2 0 1 3)
1969/12/31/18:00:23.761,(-1 -1 -1 -1 -2 -2 -3 -1)
1969/12/31/18:00:23.782,(-4 -3 -3 -3 -2 -3 -2 -1)
1969/12/31/18:00:23.782,(2 0 -1 -1 1 4 3 1)
1969/12/31/18:00:23.805,(0 0 1 2 3 1 -3 -3)
1969/12/31/18:00:23.805,(2 0 0 -2 -2 -3 0 -1)
1969/12/31/18:00:23.806,(-2 -2 -3 -2 -5 -3 -2 -2)
1969/12/31/18:00:23.806,(-1 0 -2 -2 1 -1 -1 -1)
1969/12/31/18:00:23.808,(-3 -2 -1 -1 -2 -1 -1 -2)
1969/12/31/18:00:23.808,(0 -1 -1 -1 0 -1 -1 -2)
1969/12/31/18:00:23.827,(1 1 1 1 -2 0 -2 1)
1969/12/31/18:00:23.827,(0 1 0 1 0 1 3 1)
1969/12/31/18:00:23.829,(-1 -1 -1 3 2 0 -3 -3)
1969/12/31/18:00:23.829,(1 1 -1 -1 -2 -3 -1 0)
1969/12/31/18:00:23.850,(-1 -1 -2 -1 0 -2 -4 -3)
1969/12/31/18:00:23.850,(-3 -2 0 -1 -2 -1 -2 0)
1969/12/31/18:00:23.851,(1 2 0 -1 0 -1 1 0)
1969/12/31/18:00:23.851,(-2 -1 2 0 1 1 -1 -2)
1969/12/31/18:00:23.856,(2 2 1 0 0 2 2 1)
1969/12/31/18:00:23.856,(-1 -1 -1 -2 0 -2 -1 -1)
1969/12/31/18:00:23.865,(1 -1 -1 -1 -2 -1 0 -1)
1969/12/31/18:00:23.865,(0 1 -1 1 -1 1 1 0)
1969/12/31/18:00:23.880,(1 -2 -1 1 -1 0 0 -3)
1969/12/31/18:00:23.880,(-3 0 0 -2 -3 -3 -3 -2)
1969/12/31/18:00:23.881,(-1 -1 -1 1 2 3 4 2)
1969/12/31/18:00:23.881,(0 -1 -2 0 -1 0 -2 -1)
