time,.data
1969/12/31/18:00:03.270000,(0 -2 -8 -10 -7 -5 -2 0)
1969/12/31/18:00:03.270000,(5 -3 -5 4 6 0 1 3)
1969/12/31/18:00:03.271000,(-2 1 2 1 2 3 1 -2)
1969/12/31/18:00:03.271000,(-6 -2 0 -8 -3 0 -1 -3)
1969/12/31/18:00:03.292000,(4 5 5 -1 1 5 4 3)
1969/12/31/18:00:03.292000,(-3 -1 -7 -9 -42 -11 -5 -4)
1969/12/31/18:00:03.293000,(-2 -5 -9 -9 27 1 0 1)
1969/12/31/18:00:03.293000,(3 6 21 21 -1 2 2 2)
1969/12/31/18:00:03.306000,(2 4 -1 26 14 5 2 2)
1969/12/31/18:00:03.307000,(-2 -5 -2 -6 10 1 -2 -1)
1969/12/31/18:00:03.308000,(-6 2 -3 -56 -31 -12 -7 -6)
1969/12/31/18:00:03.308000,(3 -4 -15 -9 -12 -2 4 6)
1969/12/31/18:00:03.330000,(8 10 37 28 5 13 12 8)
1969/12/31/18:00:03.330000,(3 -4 -16 44 23 2 -2 -1)
1969/12/31/18:00:03.330000,(-19 -18 2 11 7 -3 -10 -10)
1969/12/31/18:00:03.331000,(-6 3 11 -17 7 0 -5 -8)
1969/12/31/18:00:03.344000,(7 2 -6 -25 -16 -1 7 8)
1969/12/31/18:00:03.344000,(15 15 2 -16 -8 5 11 13)
1969/12/31/18:00:03.345000,(6 1 -13 12 4 -2 -4 -1)
1969/12/31/18:00:03.345000,(-15 -13 4 -5 9 -8 -14 -13)
1969/12/31/18:00:03.366000,(-6 -2 -7 -12 -7 -2 0 0)
1969/12/31/18:00:03.366000,(6 7 14 10 5 2 3 4)
1969/12/31/18:00:03.367000,(-3 -5 -24 6 -7 -7 -7 -4)
1969/12/31/18:00:03.367000,(1 2 16 -13 -8 1 1 2)
1969/12/31/18:00:03.389000,(-8 -12 -26 -11 0 -8 -11 -11)
1969/12/31/18:00:03.389000,(-7 -13 -6 -52 -32 0 4 -1)
1969/12/31/18:00:03.389000,(12 19 20 -20 -7 4 10 8)
1969/12/31/18:00:03.389000,(8 7 11 115 57 20 9 4)
1969/12/31/18:00:03.404000,(-20 -23 -7 -40 7 -8 -11 -13)
1969/12/31/18:00:03.404000,(-4 0 11 11 -19 -16 -10 -4)
1969/12/31/18:00:03.405000,(11 14 27 52 27 21 12 10)
1969/12/31/18:00:03.405000,(6 13 22 -39 -35 0 5 7)
1969/12/31/18:00:03.427000,(13 -2 -47 58 29 4 0 6)
1969/12/31/18:00:03.427000,(-21 -23 -27 -79 -7 -3 -7 -14)
1969/12/31/18:00:03.428000,(-5 -6 -18 -91 -44 -21 -9 -5)
1969/12/31/18:00:03.428000,(2 9 17 61 17 8 8 5)
1969/12/31/18:00:03.449000,(10 17 35 -9 -7 1 2 4)
1969/12/31/18:00:03.449000,(-6 -6 2 86 40 0 -6 -7)
1969/12/31/18:00:03.449000,(-5 -21 -18 4 8 -2 -4 -3)
1969/12/31/18:00:03.449000,(-7 0 -23 -119 -81 -10 2 -3)
1969/12/31/18:00:03.464000,(11 2 2 94 57 4 0 5)
1969/12/31/18:00:03.464000,(-18 -4 19 28 19 -1 -8 -12)
1969/12/31/18:00:03.465000,(1 8 16 -37 -14 -1 3 -1)
1969/12/31/18:00:03.465000,(1 -10 -45 -66 -28 -18 -10 -2)
1969/12/31/18:00:03.486000,(0 -3 -4 -55 -73 -8 -2 -1)
1969/12/31/18:00:03.486000,(12 17 31 97 102 24 11 10)
1969/12/31/18:00:03.487000,(1 1 13 30 28 7 -3 0)
1969/12/31/18:00:03.487000,(-9 -15 -25 -16 -12 -8 -6 -6)
1969/12/31/18:00:03.509000,(-1 3 -12 -76 -42 -5 4 1)
1969/12/31/18:00:03.509000,(11 12 -12 -32 -26 -6 0 3)
1969/12/31/18:00:03.510000,(-6 -14 14 80 25 5 0 -3)
1969/12/31/18:00:03.510000,(-12 -7 -9 -80 -24 -12 -8 -8)
1969/12/31/18:00:03.524000,(3 4 9 25 24 4 3 2)
1969/12/31/18:00:03.524000,(-1 1 -2 4 -9 5 1 -3)
1969/12/31/18:00:03.525000,(8 12 2 -9 -6 2 4 5)
1969/12/31/18:00:03.525000,(5 -3 1 63 33 5 0 3)
1969/12/31/18:00:03.546000,(-7 -3 12 -10 3 -2 -4 -5)
1969/12/31/18:00:03.546000,(-1 -2 -6 -29 -28 -5 -1 -3)
1969/12/31/18:00:03.547000,(-2 -1 -10 -9 -13 -3 -3 -2)
1969/12/31/18:00:03.547000,(1 -4 -1 21 20 3 0 1)
1969/12/31/18:00:03.569000,(-2 2 0 -10 -3 1 -1 -1)
1969/12/31/18:00:03.569000,(2 -1 -3 -13 -5 1 -1 0)
1969/12/31/18:00:03.570000,(-4 -3 4 9 -6 -3 -5 -5)
1969/12/31/18:00:03.570000,(3 2 3 24 18 4 5 3)
1969/12/31/18:00:03.592000,(-4 -4 -4 -7 -2 -3 -2 -5)
1969/12/31/18:00:03.592000,(0 -1 3 -14 -12 -2 0 2)
1969/12/31/18:00:03.593000,(-6 -5 -7 -1 -4 -5 -4 -4)
1969/12/31/18:00:03.593000,(8 8 1 -6 7 1 4 5)
1969/12/31/18:00:03.607000,(-3 1 6 13 -1 -3 -2 -4)
1969/12/31/18:00:03.607000,(-4 -4 -2 -11 -5 -3 -1 -4)
1969/12/31/18:00:03.608000,(3 4 -3 4 -5 0 3 5)
1969/12/31/18:00:03.608000,(-1 -3 -3 4 6 3 -3 -2)
1969/12/31/18:00:03.629000,(0 -1 0 -6 -4 -3 -2 0)
1969/12/31/18:00:03.629000,(-2 -3 -4 -16 -9 -2 -3 -3)
1969/12/31/18:00:03.630000,(0 1 -3 1 -3 -1 0 -1)
1969/12/31/18:00:03.630000,(8 2 4 2 2 3 3 4)
1969/12/31/18:00:03.644000,(-3 -6 -2 8 4 1 0 -1)
1969/12/31/18:00:03.644000,(-1 1 -1 -2 -3 1 0 0)
1969/12/31/18:00:03.645000,(4 3 -3 -6 -3 2 1 6)
1969/12/31/18:00:03.645000,(-5 0 -1 4 2 2 -1 -1)
1969/12/31/18:00:03.666000,(1 1 6 2 1 1 0 -2)
1969/12/31/18:00:03.666000,(1 0 0 -16 -6 1 1 0)
1969/12/31/18:00:03.667000,(-1 -5 -6 -3 -1 -1 -1 0)
1969/12/31/18:00:03.667000,(-2 1 0 6 2 -3 -2 -1)
1969/12/31/18:00:03.690000,(0 1 4 5 3 2 1 1)
1969/12/31/18:00:03.690000,(2 -1 -3 -4 -3 1 0 -1)
1969/12/31/18:00:03.690000,(2 1 3 3 1 2 3 0)
1969/12/31/18:00:03.690000,(-2 -2 -2 8 0 -1 -4 -4)
1969/12/31/18:00:03.704000,(-6 -5 -6 -17 -10 -6 -6 -7)
1969/12/31/18:00:03.704000,(2 2 4 7 5 -1 1 2)
1969/12/31/18:00:03.705000,(2 0 -7 -21 -7 1 1 1)
1969/12/31/18:00:03.705000,(0 -3 0 4 -7 -2 0 1)
1969/12/31/18:00:03.727000,(4 1 6 27 20 7 3 2)
1969/12/31/18:00:03.727000,(-6 -2 0 -11 -1 -3 -4 -5)
1969/12/31/18:00:03.728000,(-2 -1 1 5 0 -2 -4 -5)
1969/12/31/18:00:03.728000,(-3 -2 -5 -2 6 2 2 0)
1969/12/31/18:00:03.750000,(0 -3 -6 -10 -7 -1 -1 3)
1969/12/31/18:00:03.750000,(5 0 -1 -2 -5 -1 2 4)
1969/12/31/18:00:03.751000,(-2 -1 -2 -13 -4 -4 -4 -5)
1969/12/31/18:00:03.751000,(-7 -6 6 15 0 -5 -7 -6)
1969/12/31/18:00:03.764000,(2 2 -7 -3 1 3 3 3)
1969/12/31/18:00:03.764000,(-1 -7 -10 -22 -11 -5 0 5)
1969/12/31/18:00:03.765000,(-9 0 -1 -18 -5 2 0 -5)
1969/12/31/18:00:03.765000,(7 2 7 20 16 4 1 2)
1969/12/31/18:00:03.786000,(0 3 13 40 15 3 -5 -5)
1969/12/31/18:00:03.786000,(2 1 -5 -22 -6 -3 0 6)
1969/12/31/18:00:03.787000,(7 8 9 42 3 2 6 2)
1969/12/31/18:00:03.788000,(-12 -4 -1 -6 -2 -4 -3 -8)
1969/12/31/18:00:03.810000,(-1 -5 -10 -21 6 -2 0 -1)
1969/12/31/18:00:03.810000,(-4 -2 1 -1 -1 2 0 -2)
1969/12/31/18:00:03.811000,(-6 -6 -4 -3 -5 -7 -4 -2)
1969/12/31/18:00:03.811000,(-13 3 11 24 1 0 0 -6)
1969/12/31/18:00:03.833000,(35 12 0 -9 0 6 6 14)
1969/12/31/18:00:03.833000,(2 1 -6 -11 -9 -4 -2 3)
1969/12/31/18:00:03.833000,(-8 -16 -16 -19 -7 -6 -1 6)
1969/12/31/18:00:03.833000,(36 23 4 -8 -3 8 15 20)
1969/12/31/18:00:03.849000,(-47 -16 -2 -9 -10 -15 -22 -33)
1969/12/31/18:00:03.849000,(-19 -21 -5 1 -2 -5 -4 -13)
1969/12/31/18:00:03.850000,(70 37 2 -23 4 16 19 36)
1969/12/31/18:00:03.850000,(-7 -15 -10 0 2 -4 -3 0)
1969/12/31/18:00:03.870000,(8 3 11 33 7 3 6 9)
1969/12/31/18:00:03.870000,(-8 7 12 27 8 -1 -4 -4)
1969/12/31/18:00:03.870000,(-26 -15 3 16 2 -3 -3 -7)
1969/12/31/18:00:03.870000,(-24 -4 -6 -21 -6 -1 -3 -15)
1969/12/31/18:00:03.884000,(16 -1 -13 -24 -6 2 1 1)
1969/12/31/18:00:03.884000,(-13 -9 -30 -85 -25 -7 -8 -10)
1969/12/31/18:00:03.885000,(-2 1 14 56 8 -1 1 0)
1969/12/31/18:00:03.885000,(14 12 19 38 19 7 4 8)
1969/12/31/18:00:03.907000,(-31 -17 -32 -68 -13 -8 -5 -14)
1969/12/31/18:00:03.907000,(16 16 48 123 26 9 10 11)
1969/12/31/18:00:03.907000,(-7 -7 10 28 10 -3 -9 -15)
1969/12/31/18:00:03.907000,(-11 -6 -9 -5 -3 0 -1 -3)
1969/12/31/18:00:03.937000,(-11 -1 -1 -15 -5 -5 -1 0)
1969/12/31/18:00:03.937000,(24 -7 -28 -56 -15 -3 -6 2)
1969/12/31/18:00:03.938000,(-21 -10 -15 -30 -15 -9 -15 -22)
1969/12/31/18:00:03.938000,(47 16 5 5 1 -5 7 29)
1969/12/31/18:00:03.944000,(-68 -22 -10 -15 -20 -19 -31 -61)
1969/12/31/18:00:03.944000,(56 30 11 5 12 16 28 53)
1969/12/31/18:00:03.945000,(-52 -23 -4 3 -3 -5 -15 -35)
1969/12/31/18:00:03.945000,(2 -17 -20 -43 -10 -2 -3 3)
1969/12/31/18:00:03.966000,(21 6 3 14 3 10 14 22)
1969/12/31/18:00:03.966000,(-6 15 28 42 11 5 4 -1)
1969/12/31/18:00:03.967000,(6 1 4 13 10 -1 2 4)
1969/12/31/18:00:03.967000,(-3 2 -5 -12 -5 -2 -5 -6)
1969/12/31/18:00:03.990000,(12 8 14 30 4 5 6 9)
1969/12/31/18:00:03.990000,(-32 -19 -24 -45 -14 -9 -12 -24)
1969/12/31/18:00:03.990000,(28 13 -4 -43 -23 2 11 22)
1969/12/31/18:00:03.990000,(-15 -2 17 59 12 -1 -7 -13)
1969/12/31/18:00:04.004000,(6 4 5 -7 9 2 3 4)
1969/12/31/18:00:04.004000,(-1 -6 2 12 -2 1 -2 -2)
1969/12/31/18:00:04.005000,(0 2 -1 -5 6 0 0 2)
1969/12/31/18:00:04.005000,(-1 2 -10 -19 -20 -3 0 -2)
1969/12/31/18:00:04.026000,(12 0 11 30 9 3 8 16)
1969/12/31/18:00:04.027000,(-4 -9 -8 8 4 0 5 10)
1969/12/31/18:00:04.027000,(-21 10 3 -14 6 8 -4 -26)
1969/12/31/18:00:04.027000,(-23 -9 -6 -15 -7 -9 -15 -23)
1969/12/31/18:00:04.050000,(15 2 -7 -13 -6 -1 4 9)
1969/12/31/18:00:04.050000,(-12 -5 -12 -31 -10 -8 -10 -11)
1969/12/31/18:00:04.050000,(5 -3 -5 -4 -5 -1 6 13)
1969/12/31/18:00:04.050000,(6 4 3 6 4 1 3 4)
1969/12/31/18:00:04.063000,(-1 2 9 14 6 4 -1 -3)
1969/12/31/18:00:04.063000,(-7 0 12 29 20 4 3 -2)
1969/12/31/18:00:04.072000,(8 0 -2 10 -11 -4 -3 2)
1969/12/31/18:00:04.072000,(2 -1 -29 -61 -6 1 4 2)
1969/12/31/18:00:04.086000,(9 2 0 -10 -24 -3 2 10)
1969/12/31/18:00:04.086000,(-8 2 32 84 31 3 -5 -10)
1969/12/31/18:00:04.087000,(34 8 18 51 31 10 11 19)
1969/12/31/18:00:04.087000,(-30 -13 -6 -3 -6 -6 -14 -26)
1969/12/31/18:00:04.111000,(14 3 -6 -22 -4 -1 2 13)
1969/12/31/18:00:04.111000,(-3 5 -15 -44 -23 -4 -2 -5)
1969/12/31/18:00:04.112000,(-10 -10 -7 -10 -2 -4 -2 -3)
1969/12/31/18:00:04.112000,(-6 -9 -2 -2 0 1 5 8)
1969/12/31/18:00:04.132000,(2 2 3 3 2 3 6 0)
1969/12/31/18:00:04.132000,(6 3 -4 -7 -7 -9 -18 -19)
1969/12/31/18:00:04.133000,(3 0 -12 -41 -17 -1 5 8)
1969/12/31/18:00:04.133000,(5 1 5 14 17 3 5 5)
1969/12/31/18:00:04.147000,(-9 -3 10 26 -3 -3 -5 -7)
1969/12/31/18:00:04.147000,(-12 -7 4 28 9 -1 -3 -3)
1969/12/31/18:00:04.147000,(16 10 -11 -49 -6 4 8 13)
1969/12/31/18:00:04.147000,(5 -4 -2 -12 -24 -11 -7 -3)
1969/12/31/18:00:04.170000,(3 5 8 27 21 7 4 4)
1969/12/31/18:00:04.170000,(-1 -2 -2 1 11 8 5 2)
1969/12/31/18:00:04.171000,(-2 2 8 22 16 5 -2 -2)
1969/12/31/18:00:04.171000,(5 1 -7 -11 -5 0 0 3)
1969/12/31/18:00:04.184000,(-5 -4 -14 -37 -22 -7 -1 -5)
1969/12/31/18:00:04.184000,(-4 -1 6 5 -11 -4 0 -3)
1969/12/31/18:00:04.191000,(3 1 13 30 13 -3 0 4)
1969/12/31/18:00:04.191000,(-2 1 9 15 8 4 0 -1)
1969/12/31/18:00:04.206000,(-4 -5 -5 0 -4 -8 -8 -8)
1969/12/31/18:00:04.206000,(1 -5 -21 -40 -14 -6 -4 -3)
1969/12/31/18:00:04.207000,(3 7 -2 4 -1 -3 1 0)
1969/12/31/18:00:04.207000,(-2 -6 3 5 12 3 7 13)
1969/12/31/18:00:04.230000,(3 -5 -7 -3 -16 -4 -8 -9)
1969/12/31/18:00:04.230000,(-1 5 -1 -10 -3 0 -1 -1)
1969/12/31/18:00:04.230000,(-13 -9 -20 -81 -40 -15 -15 -15)
1969/12/31/18:00:04.230000,(2 -2 12 88 26 2 4 3)
1969/12/31/18:00:04.243000,(14 16 22 67 36 19 13 13)
1969/12/31/18:00:04.243000,(6 6 10 26 25 15 11 8)
1969/12/31/18:00:04.251000,(-6 -8 -2 0 1 0 -6 -8)
1969/12/31/18:00:04.251000,(3 3 -8 -54 -24 -8 -7 -6)
1969/12/31/18:00:04.267000,(-7 -6 -10 -34 -19 -11 -6 0)
1969/12/31/18:00:04.267000,(6 1 -3 -5 -8 -4 0 2)
1969/12/31/18:00:04.268000,(-13 -7 -2 11 6 3 -2 -5)
1969/12/31/18:00:04.268000,(3 3 0 -15 -6 -1 -2 -1)
1969/12/31/18:00:04.290000,(-10 -3 1 8 6 -3 0 -1)
1969/12/31/18:00:04.290000,(13 -4 -8 -20 -7 0 3 10)
1969/12/31/18:00:04.290000,(-11 2 7 25 11 3 2 -9)
1969/12/31/18:00:04.290000,(-2 0 5 15 12 2 0 -2)
1969/12/31/18:00:04.304000,(0 -4 -14 -51 -31 -8 -4 0)
1969/12/31/18:00:04.304000,(-13 -7 9 34 8 -2 -4 -10)
1969/12/31/18:00:04.311000,(1 3 9 39 21 7 5 9)
1969/12/31/18:00:04.311000,(37 20 11 20 15 15 13 14)
1969/12/31/18:00:04.326000,(-10 -6 -16 -45 -9 -4 -4 -9)
1969/12/31/18:00:04.326000,(0 -4 -14 -29 -16 -5 -2 -1)
1969/12/31/18:00:04.327000,(-4 -5 6 31 -5 -3 -4 -2)
1969/12/31/18:00:04.327000,(-1 5 7 -1 2 3 6 7)
1969/12/31/18:00:04.350000,(2 -4 -23 -20 1 -7 -9 -7)
1969/12/31/18:00:04.350000,(-1 1 9 -8 -10 -2 0 -2)
1969/12/31/18:00:04.350000,(-6 -7 -26 -84 -6 -7 -4 -6)
1969/12/31/18:00:04.350000,(-4 -4 4 42 -8 -1 0 2)
1969/12/31/18:00:04.363000,(16 12 34 87 33 12 6 10)
1969/12/31/18:00:04.363000,(-13 4 7 14 13 4 4 -4)
1969/12/31/18:00:04.371000,(-9 -12 -8 -18 -11 -11 -9 -7)
1969/12/31/18:00:04.371000,(5 -5 -14 -48 -11 1 2 -2)
1969/12/31/18:00:04.387000,(-15 -7 -11 -22 -12 -8 -7 -14)
1969/12/31/18:00:04.387000,(9 8 2 6 0 1 4 8)
1969/12/31/18:00:04.388000,(-9 -11 0 8 -7 -5 -7 -10)
1969/12/31/18:00:04.388000,(-25 -7 -8 -19 -10 -9 -9 -8)
1969/12/31/18:00:04.411000,(10 7 3 2 9 9 11 15)
1969/12/31/18:00:04.411000,(2 -3 -14 -26 -7 -4 -7 -4)
1969/12/31/18:00:04.412000,(-7 3 20 58 10 1 2 1)
1969/12/31/18:00:04.412000,(-4 -1 14 32 9 1 -5 -7)
1969/12/31/18:00:04.432000,(1 2 2 2 2 -1 3 6)
1969/12/31/18:00:04.432000,(21 -3 -12 -36 -9 2 5 11)
1969/12/31/18:00:04.433000,(-37 -21 -10 -12 -5 -1 -6 -17)
1969/12/31/18:00:04.433000,(34 12 -10 -6 -1 -1 4 18)
1969/12/31/18:00:04.446000,(-67 -29 5 -5 -2 -5 -13 -38)
1969/12/31/18:00:04.446000,(37 25 4 0 1 4 5 12)
1969/12/31/18:00:04.447000,(34 11 -2 21 9 11 15 24)
1969/12/31/18:00:04.447000,(7 14 1 -15 -5 -1 0 0)
1969/12/31/18:00:04.470000,(-14 -8 -2 -2 1 1 2 -5)
1969/12/31/18:00:04.470000,(-22 -14 1 7 -3 -4 -7 -10)
1969/12/31/18:00:04.470000,(-5 -4 -4 -19 -9 -5 -6 -8)
1969/12/31/18:00:04.470000,(-3 1 -2 0 -6 1 1 5)
1969/12/31/18:00:04.492000,(24 15 12 -3 4 6 11 19)
1969/12/31/18:00:04.492000,(-16 -8 -6 13 8 -1 -3 -12)
1969/12/31/18:00:04.493000,(28 16 -3 -22 -6 2 3 13)
1969/12/31/18:00:04.493000,(-24 -23 15 33 10 -1 -1 -3)
1969/12/31/18:00:04.506000,(-22 -22 1 11 3 0 -1 1)
1969/12/31/18:00:04.506000,(20 33 9 13 -1 1 -1 -4)
1969/12/31/18:00:04.507000,(-11 -2 -7 -21 -6 0 3 0)
1969/12/31/18:00:04.507000,(30 4 -20 -27 -7 -2 1 5)
1969/12/31/18:00:04.530000,(-4 5 -2 10 1 -3 -8 -4)
1969/12/31/18:00:04.530000,(-20 -13 -2 -9 -1 -3 -6 -7)
1969/12/31/18:00:04.531000,(-6 -2 -9 -15 -5 -2 1 0)
1969/12/31/18:00:04.531000,(2 7 12 18 4 8 8 7)
1969/12/31/18:00:04.552000,(7 -1 3 19 -3 -5 -6 -3)
1969/12/31/18:00:04.552000,(-11 -14 -4 -5 3 1 2 1)
1969/12/31/18:00:04.553000,(-10 -6 -11 -44 -18 -13 -14 -15)
1969/12/31/18:00:04.553000,(4 13 -16 -7 6 5 6 10)
1969/12/31/18:00:04.566000,(1 8 34 63 23 12 7 -3)
1969/12/31/18:00:04.566000,(-3 1 11 38 6 -3 -3 -1)
1969/12/31/18:00:04.575000,(5 -3 7 17 7 4 4 3)
1969/12/31/18:00:04.575000,(-16 -10 -22 -50 -4 -9 -12 -16)
1969/12/31/18:00:04.590000,(27 7 -16 -73 -28 3 14 24)
1969/12/31/18:00:04.590000,(-5 -4 4 35 12 2 1 -3)
1969/12/31/18:00:04.591000,(11 10 24 69 15 2 -3 1)
1969/12/31/18:00:04.591000,(-18 -15 -7 -29 -11 -11 -9 -12)
1969/12/31/18:00:04.612000,(2 1 -23 -44 -13 -6 -8 -12)
1969/12/31/18:00:04.612000,(-15 -14 12 16 10 0 2 4)
1969/12/31/18:00:04.614000,(8 3 13 35 4 7 11 11)
1969/12/31/18:00:04.614000,(37 28 10 14 4 4 7 18)
1969/12/31/18:00:04.626000,(-12 -14 -23 -42 -15 -15 -23 -27)
1969/12/31/18:00:04.626000,(-12 -7 -10 -39 -18 -7 -2 2)
1969/12/31/18:00:04.635000,(9 6 -19 -52 -11 -3 -4 -8)
1969/12/31/18:00:04.635000,(13 5 29 90 24 11 14 18)
1969/12/31/18:00:04.657000,(0 6 14 42 16 -1 -4 -5)
1969/12/31/18:00:04.657000,(5 1 -15 -30 0 -4 -9 -7)
1969/12/31/18:00:04.659000,(-9 -7 6 20 -6 4 10 5)
1969/12/31/18:00:04.659000,(-42 -31 -11 -30 -8 -7 -11 -19)
1969/12/31/18:00:04.672000,(72 37 3 9 6 11 19 29)
1969/12/31/18:00:04.672000,(-8 -9 -4 0 -4 -8 -13 -16)
1969/12/31/18:00:04.674000,(-38 -27 -13 -13 -5 -8 -6 -6)
1969/12/31/18:00:04.674000,(38 22 4 -13 -3 10 10 6)
1969/12/31/18:00:04.686000,(-25 -15 -4 8 -3 -9 -13 -7)
1969/12/31/18:00:04.686000,(41 21 1 -6 -2 7 12 21)
1969/12/31/18:00:04.695000,(16 6 -1 0 1 -3 -6 -5)
1969/12/31/18:00:04.695000,(-9 -4 2 0 0 3 1 -3)
1969/12/31/18:00:04.710000,(-12 6 7 13 4 -5 -1 3)
1969/12/31/18:00:04.710000,(7 7 0 -6 4 15 13 9)
1969/12/31/18:00:04.711000,(-16 -14 -7 4 3 0 -1 -7)
1969/12/31/18:00:04.711000,(3 -1 -2 -3 -3 -7 -6 -6)
1969/12/31/18:00:04.732000,(0 5 -5 -9 -7 -5 -6 -2)
1969/12/31/18:00:04.732000,(-14 -1 7 2 -1 2 0 -10)
1969/12/31/18:00:04.734000,(11 9 5 14 8 2 2 5)
1969/12/31/18:00:04.734000,(-47 -17 -4 -11 -6 -4 -13 -27)
1969/12/31/18:00:04.746000,(38 6 -1 -3 2 4 9 17)
1969/12/31/18:00:04.746000,(17 3 -2 5 -5 -5 1 12)
1969/12/31/18:00:04.755000,(-11 9 12 10 7 3 1 -6)
1969/12/31/18:00:04.755000,(-25 -14 -7 -16 -10 -10 -11 -9)
1969/12/31/18:00:04.770000,(-18 -12 -7 2 3 6 11 0)
1969/12/31/18:00:04.770000,(5 3 -6 -8 -7 -14 -21 -18)
1969/12/31/18:00:04.771000,(27 18 5 10 12 12 11 17)
1969/12/31/18:00:04.771000,(-12 1 -2 -5 -6 -7 -9 -13)
1969/12/31/18:00:04.792000,(-19 -21 0 -2 -1 -1 4 5)
1969/12/31/18:00:04.792000,(-56 -27 -9 -13 -7 -1 -3 -12)
1969/12/31/18:00:04.794000,(67 24 3 6 4 4 12 30)
1969/12/31/18:00:04.794000,(-4 -3 0 3 -2 -4 -17 -23)
1969/12/31/18:00:04.815000,(-38 -25 -4 2 -1 -4 -13 -21)
1969/12/31/18:00:04.815000,(62 33 1 -9 -6 1 5 20)
1969/12/31/18:00:04.817000,(-32 -16 -3 -6 -3 -4 -11 -15)
1969/12/31/18:00:04.817000,(1 1 -1 3 1 -1 0 1)
1969/12/31/18:00:04.830000,(29 12 8 -6 -2 1 9 21)
1969/12/31/18:00:04.830000,(-41 -30 -12 -2 -8 -17 -22 -33)
1969/12/31/18:00:04.831000,(17 11 -6 -20 6 15 18 23)
1969/12/31/18:00:04.831000,(24 11 4 32 -1 1 4 8)
1969/12/31/18:00:04.852000,(-34 -8 9 23 5 -4 -9 -21)
1969/12/31/18:00:04.852000,(2 -3 2 16 8 -2 0 7)
1969/12/31/18:00:04.854000,(-7 -3 9 11 3 3 5 1)
1969/12/31/18:00:04.854000,(-13 -14 -16 -29 -4 -1 -3 -10)
1969/12/31/18:00:04.866000,(-4 -5 -9 -19 -11 -6 -2 2)
1969/12/31/18:00:04.866000,(29 17 3 2 -3 7 17 21)
1969/12/31/18:00:04.875000,(-68 -35 -17 -15 -13 -21 -23 -36)
1969/12/31/18:00:04.875000,(66 33 5 -7 3 8 14 29)
1969/12/31/18:00:04.890000,(19 12 0 3 2 -3 -3 3)
1969/12/31/18:00:04.890000,(-22 -6 2 -3 -1 0 -3 -9)
1969/12/31/18:00:04.891000,(-24 -13 -2 0 -6 -8 -6 -7)
1969/12/31/18:00:04.891000,(-5 -11 0 2 4 5 9 9)
1969/12/31/18:00:04.912000,(7 4 -6 1 -4 -3 -5 -5)
1969/12/31/18:00:04.912000,(-14 -10 -2 -1 4 5 6 5)
1969/12/31/18:00:04.913000,(8 1 -5 -2 -9 -8 -6 4)
1969/12/31/18:00:04.913000,(8 5 12 11 7 3 3 0)
1969/12/31/18:00:04.926000,(7 -6 -7 -2 4 6 9 8)
1969/12/31/18:00:04.926000,(-12 5 4 2 1 0 -3 -15)
1969/12/31/18:00:04.935000,(16 4 -4 3 -5 -6 -8 -7)
1969/12/31/18:00:04.935000,(-23 -15 -2 -3 1 4 8 11)
1969/12/31/18:00:04.965000,(24 17 3 -6 -4 -7 -9 -1)
1969/12/31/18:00:04.965000,(-13 -9 0 -2 1 4 6 3)
1969/12/31/18:00:04.966000,(3 8 1 6 2 2 -2 -5)
1969/12/31/18:00:04.966000,(8 3 -2 -10 3 6 10 16)
1969/12/31/18:00:04.972000,(4 1 -8 -34 -7 8 8 8)
1969/12/31/18:00:04.972000,(-14 -7 1 22 1 -1 -2 -1)
1969/12/31/18:00:04.974000,(13 3 7 13 5 -1 -3 4)
1969/12/31/18:00:04.974000,(-43 -17 2 7 -1 -7 -17 -31)
1969/12/31/18:00:04.986000,(65 48 11 10 9 11 14 31)
1969/12/31/18:00:04.986000,(-18 -14 -10 -24 -7 -1 -11 -22)
1969/12/31/18:00:04.995000,(-2 3 0 -14 -3 4 6 9)
1969/12/31/18:00:04.995000,(-21 -13 -4 -4 -7 -11 -8 -14)
1969/12/31/18:00:05.010000,(10 5 -3 1 1 -4 1 7)
1969/12/31/18:00:05.010000,(-36 -34 -9 -3 -3 -5 -2 -4)
1969/12/31/18:00:05.011000,(53 43 11 10 7 10 21 29)
1969/12/31/18:00:05.011000,(-31 -24 -11 -5 -13 -27 -36 -37)
1969/12/31/18:00:05.032000,(-29 -17 2 10 0 -3 -3 -13)
1969/12/31/18:00:05.032000,(27 14 0 -3 3 9 15 24)
1969/12/31/18:00:05.034000,(-1 -18 -9 -4 -5 -4 0 7)
1969/12/31/18:00:05.034000,(-15 1 6 5 2 1 -3 -9)
1969/12/31/18:00:05.046000,(-17 -6 -3 7 2 0 -2 -11)
1969/12/31/18:00:05.046000,(32 30 6 7 1 1 6 16)
1969/12/31/18:00:05.055000,(-26 -23 -19 -72 -22 -4 -8 -15)
1969/12/31/18:00:05.055000,(31 23 7 37 33 9 14 22)
1969/12/31/18:00:05.070000,(-9 -4 13 24 -12 -6 -9 -14)
1969/12/31/18:00:05.070000,(-16 -3 5 8 1 -2 -1 -4)
1969/12/31/18:00:05.072000,(-13 -11 -3 8 8 2 3 3)
1969/12/31/18:00:05.072000,(18 16 1 -22 -6 7 9 1)
1969/12/31/18:00:05.100000,(-66 -44 -17 -17 0 -7 -13 -22)
1969/12/31/18:00:05.100000,(72 40 19 3 2 18 26 35)
1969/12/31/18:00:05.101000,(-18 -8 -6 3 -9 -14 -16 -14)
1969/12/31/18:00:05.101000,(3 -4 -4 -9 1 8 12 14)
1969/12/31/18:00:05.106000,(-11 -11 -4 5 -1 -4 -3 -4)
1969/12/31/18:00:05.106000,(21 8 0 -7 -4 -2 -1 3)
1969/12/31/18:00:05.115000,(14 13 1 -19 -9 -2 -1 -2)
1969/12/31/18:00:05.115000,(-3 -2 -6 8 -5 -1 -1 1)
1969/12/31/18:00:05.129000,(10 7 10 34 15 -2 0 1)
1969/12/31/18:00:05.129000,(-9 -2 12 22 14 0 -2 -1)
1969/12/31/18:00:05.136000,(0 -1 2 16 8 6 3 -2)
1969/12/31/18:00:05.136000,(-4 -8 -13 -29 -27 -16 -11 -1)
1969/12/31/18:00:05.152000,(4 6 -3 -10 4 8 7 7)
1969/12/31/18:00:05.152000,(-8 -11 -16 -23 -11 -12 -13 -10)
1969/12/31/18:00:05.154000,(-1 2 5 29 13 3 -6 -7)
1969/12/31/18:00:05.154000,(-4 -6 5 3 -31 -1 3 4)
1969/12/31/18:00:05.166000,(-4 9 6 7 10 6 9 4)
1969/12/31/18:00:05.166000,(-46 -9 -4 2 8 10 9 1)
1969/12/31/18:00:05.175000,(-7 -12 -6 -8 7 -1 1 -1)
1969/12/31/18:00:05.175000,(-2 -4 -6 -10 4 2 -2 -3)
1969/12/31/18:00:05.189000,(1 -3 2 3 -5 0 -2 0)
1969/12/31/18:00:05.189000,(9 9 -3 -9 -5 -5 -2 2)
1969/12/31/18:00:05.196000,(-2 7 6 8 1 3 3 -2)
1969/12/31/18:00:05.196000,(-7 -7 -3 -23 -5 -8 -8 -6)
1969/12/31/18:00:05.212000,(3 2 -1 3 -3 0 -1 2)
1969/12/31/18:00:05.212000,(-32 -31 -1 11 9 -2 -6 -11)
1969/12/31/18:00:05.214000,(32 17 7 25 2 -10 -12 -4)
1969/12/31/18:00:05.214000,(45 28 15 17 24 33 41 34)
1969/12/31/18:00:05.235000,(5 -3 -9 -24 -9 -5 -6 -3)
1969/12/31/18:00:05.235000,(4 -5 -6 -12 -9 -4 -6 -2)
1969/12/31/18:00:05.237000,(-19 -8 2 7 -2 0 -1 -7)
1969/12/31/18:00:05.237000,(46 32 0 -4 0 -3 6 25)
1969/12/31/18:00:05.250000,(-18 -17 -3 -10 -4 -6 -15 -19)
1969/12/31/18:00:05.250000,(3 -2 -9 -18 -7 1 0 -3)
1969/12/31/18:00:05.251000,(12 9 4 14 0 0 3 10)
1969/12/31/18:00:05.251000,(-53 -38 1 12 3 -11 -17 -23)
1969/12/31/18:00:05.272000,(63 44 1 5 12 17 26 36)
1969/12/31/18:00:05.272000,(4 0 -5 -4 -11 -15 -20 -21)
1969/12/31/18:00:05.274000,(-21 -15 -8 -15 -7 -5 -6 -12)
1969/12/31/18:00:05.274000,(-10 -9 -5 -10 -4 -5 -7 -6)
1969/12/31/18:00:05.286000,(-18 -6 2 -2 -4 -2 -1 -7)
1969/12/31/18:00:05.286000,(17 10 -5 -34 -8 2 9 14)
1969/12/31/18:00:05.295000,(18 12 0 20 19 4 4 7)
1969/12/31/18:00:05.295000,(-30 -15 7 22 -5 -4 -13 -20)
1969/12/31/18:00:05.308000,(11 2 3 8 1 -2 -1 4)
1969/12/31/18:00:05.308000,(21 13 6 9 -8 -3 -1 -1)
1969/12/31/18:00:05.317000,(-6 -2 -4 -10 2 5 3 0)
1969/12/31/18:00:05.318000,(-7 -8 -12 -13 2 4 7 12)
1969/12/31/18:00:05.332000,(-21 -10 -2 -12 -6 -7 -18 -31)
1969/12/31/18:00:05.332000,(-10 -6 -1 3 -2 -4 -6 -9)
1969/12/31/18:00:05.333000,(3 1 -2 -5 -4 2 5 4)
1969/12/31/18:00:05.333000,(2 1 -5 -9 -1 -7 -7 -5)
1969/12/31/18:00:05.355000,(-3 -3 -10 -36 -16 -5 1 3)
1969/12/31/18:00:05.355000,(1 -1 3 27 11 5 6 6)
1969/12/31/18:00:05.356000,(-6 1 21 35 1 -2 -6 -6)
1969/12/31/18:00:05.356000,(18 17 5 23 31 8 7 8)
1969/12/31/18:00:05.370000,(17 -2 -1 12 -17 -10 -1 11)
1969/12/31/18:00:05.370000,(-43 -12 4 -6 1 -5 -16 -38)
1969/12/31/18:00:05.376000,(6 0 -9 -26 -6 5 10 14)
1969/12/31/18:00:05.376000,(1 4 1 -3 -7 -3 -3 -5)
1969/12/31/18:00:05.392000,(-9 -8 -4 -7 2 -4 -5 -3)
1969/12/31/18:00:05.392000,(28 1 -13 -8 1 3 15 35)
1969/12/31/18:00:05.394000,(-42 -24 -3 -6 -7 -10 -21 -39)
1969/12/31/18:00:05.394000,(32 19 -1 -7 -6 -4 -2 2)
1969/12/31/18:00:05.415000,(-31 -17 -1 -1 3 -1 -4 -11)
1969/12/31/18:00:05.415000,(22 8 2 3 -1 5 5 6)
1969/12/31/18:00:05.416000,(4 -1 -3 -5 2 4 7 10)
1969/12/31/18:00:05.416000,(4 3 -2 -5 -1 2 6 5)
1969/12/31/18:00:05.430000,(-22 -10 1 5 2 -4 -7 -13)
1969/12/31/18:00:05.430000,(13 12 12 20 6 -1 0 0)
1969/12/31/18:00:05.431000,(2 2 -3 -7 -5 -4 -3 -1)
1969/12/31/18:00:05.431000,(-16 -10 -5 -8 -7 -4 -5 -11)
1969/12/31/18:00:05.452000,(24 13 2 -5 0 8 13 18)
1969/12/31/18:00:05.452000,(-11 -5 -3 -10 1 -1 -3 -4)
1969/12/31/18:00:05.454000,(10 1 7 26 5 5 5 9)
1969/12/31/18:00:05.454000,(12 10 8 18 4 1 0 0)
1969/12/31/18:00:05.475000,(-1 -1 -3 -1 10 6 2 -1)
1969/12/31/18:00:05.475000,(-10 -7 -6 -10 -10 -8 -10 -8)
1969/12/31/18:00:05.476000,(8 7 -1 -6 0 3 4 11)
1969/12/31/18:00:05.476000,(-20 -10 1 -2 -2 1 -5 -13)
1969/12/31/18:00:05.488000,(-3 0 -3 -3 -1 2 1 6)
1969/12/31/18:00:05.488000,(0 -1 -3 0 3 2 0 -7)
1969/12/31/18:00:05.497000,(9 3 -4 -10 -5 -2 5 7)
1969/12/31/18:00:05.497000,(-13 -5 -1 -3 -5 -4 -8 -8)
1969/12/31/18:00:05.513000,(6 7 3 1 2 -2 -1 -2)
1969/12/31/18:00:05.513000,(-31 -21 3 10 7 0 -1 -3)
1969/12/31/18:00:05.514000,(41 23 4 3 -6 -2 1 8)
1969/12/31/18:00:05.514000,(4 3 -2 -23 -9 8 9 8)
1969/12/31/18:00:05.535000,(-8 -6 1 14 11 -1 -3 -7)
1969/12/31/18:00:05.535000,(8 2 -1 7 -10 -1 1 4)
1969/12/31/18:00:05.536000,(-14 -6 0 3 0 -1 0 -3)
1969/12/31/18:00:05.536000,(-19 -12 3 12 2 -10 -14 -15)
1969/12/31/18:00:05.548000,(20 13 5 8 3 8 14 15)
1969/12/31/18:00:05.548000,(-13 -4 -2 2 8 2 2 2)
1969/12/31/18:00:05.557000,(-15 -6 2 -11 -4 -2 -8 -16)
1969/12/31/18:00:05.557000,(-3 -5 -7 -8 -11 -6 -5 -4)
1969/12/31/18:00:05.572000,(-2 -1 -5 -15 -8 -1 -2 1)
1969/12/31/18:00:05.572000,(6 1 -4 3 3 2 1 1)
1969/12/31/18:00:05.574000,(-7 -4 -1 -5 -2 -2 1 2)
1969/12/31/18:00:05.574000,(4 -1 -1 10 8 1 3 5)
1969/12/31/18:00:05.595000,(1 -1 -2 -14 -11 -4 0 -1)
1969/12/31/18:00:05.595000,(7 5 -5 -26 -3 -4 -1 3)
1969/12/31/18:00:05.596000,(4 7 18 61 19 12 4 3)
1969/12/31/18:00:05.596000,(5 11 21 -20 0 19 13 9)
1969/12/31/18:00:05.608000,(2 -1 -19 -4 -4 -10 -5 -2)
1969/12/31/18:00:05.609000,(-5 -14 -3 28 -10 -17 -11 -9)
1969/12/31/18:00:05.617000,(-11 -6 -1 -11 -12 -6 -4 -6)
1969/12/31/18:00:05.617000,(2 11 29 73 41 14 6 2)
1969/12/31/18:00:05.632000,(-1 -3 -1 13 5 8 4 -1)
1969/12/31/18:00:05.632000,(0 -10 -30 -43 -11 -5 -2 1)
1969/12/31/18:00:05.634000,(-4 -18 -48 -64 -26 -21 -10 -2)
1969/12/31/18:00:05.634000,(-6 -11 -15 -45 -36 -18 -7 -3)
1969/12/31/18:00:05.655000,(4 18 26 -9 2 7 5 3)
1969/12/31/18:00:05.655000,(13 17 20 25 19 20 12 8)
1969/12/31/18:00:05.657000,(6 8 26 36 21 17 9 6)
1969/12/31/18:00:05.657000,(6 5 7 -8 -3 -9 -2 1)
1969/12/31/18:00:05.668000,(-10 -19 -32 -9 -4 -13 -11 -7)
1969/12/31/18:00:05.668000,(-3 -3 -4 -28 -5 -6 -3 -1)
1969/12/31/18:00:05.684000,(-1 0 -3 10 -17 -1 -1 -2)
1969/12/31/18:00:05.684000,(2 -2 -5 31 20 -2 -3 0)
1969/12/31/18:00:05.692000,(-6 2 15 -2 2 0 -5 -7)
1969/12/31/18:00:05.692000,(6 13 23 4 3 9 7 5)
1969/12/31/18:00:05.694000,(8 12 19 -20 7 10 7 4)
1969/12/31/18:00:05.694000,(1 -13 -40 -11 -4 1 1 2)
1969/12/31/18:00:05.714000,(-1 -10 -7 1 -9 -4 1 0)
1969/12/31/18:00:05.714000,(-9 -1 7 21 4 -7 -8 -12)
1969/12/31/18:00:05.716000,(1 3 7 0 5 -6 -3 1)
1969/12/31/18:00:05.716000,(-2 0 3 3 1 0 0 -2)
1969/12/31/18:00:05.728000,(6 1 -10 -39 -14 -3 4 6)
1969/12/31/18:00:05.728000,(-1 1 11 31 1 1 -1 -2)
1969/12/31/18:00:05.737000,(2 4 -1 17 13 1 -2 1)
1969/12/31/18:00:05.737000,(0 -5 -3 -13 -6 -1 0 2)
1969/12/31/18:00:05.751000,(-3 9 23 -4 1 9 2 -1)
1969/12/31/18:00:05.751000,(11 4 -22 -14 -4 -1 2 6)
1969/12/31/18:00:05.767000,(-4 -11 -9 -6 -1 5 4 0)
1969/12/31/18:00:05.767000,(-9 -10 -15 21 0 -11 -11 -8)
1969/12/31/18:00:05.782000,(-3 -7 -2 8 -1 -8 -3 0)
1969/12/31/18:00:05.782000,(-5 -3 4 -15 -5 0 -4 -5)
1969/12/31/18:00:05.783000,(2 3 10 -13 -2 -2 1 1)
1969/12/31/18:00:05.784000,(3 6 5 -3 0 1 1 2)
1969/12/31/18:00:05.797000,(6 6 20 33 13 7 4 2)
1969/12/31/18:00:05.797000,(3 -3 -20 -18 -11 -2 3 4)
1969/12/31/18:00:05.799000,(-8 -3 -1 -10 0 8 2 -4)
1969/12/31/18:00:05.799000,(6 -11 -39 -8 -4 -9 -4 3)
1969/12/31/18:00:05.811000,(-13 -9 -1 -9 2 -9 -9 -11)
1969/12/31/18:00:05.811000,(0 2 4 19 3 4 2 -1)
1969/12/31/18:00:05.818000,(-1 1 15 0 -3 -1 -1 1)
1969/12/31/18:00:05.818000,(8 21 35 17 13 11 8 5)
1969/12/31/18:00:05.834000,(8 2 -14 25 11 7 5 6)
1969/12/31/18:00:05.834000,(-2 -11 -13 -42 -13 -8 -6 -4)
1969/12/31/18:00:05.836000,(-8 -7 -10 3 -18 -10 -3 -4)
1969/12/31/18:00:05.836000,(-7 2 23 4 1 -1 -1 -6)
1969/12/31/18:00:05.848000,(10 5 -1 18 5 2 5 8)
1969/12/31/18:00:05.848000,(-10 -9 0 9 -1 -10 -5 -6)
1969/12/31/18:00:05.857000,(6 5 -1 -10 -1 -2 -1 1)
1969/12/31/18:00:05.857000,(-7 -19 -39 -1 -1 8 4 -1)
1969/12/31/18:00:05.872000,(-4 -9 -8 2 0 -7 -5 -1)
1969/12/31/18:00:05.872000,(-6 2 5 -16 -12 -8 -8 -6)
1969/12/31/18:00:05.878000,(-1 -4 -16 -31 -5 -6 -5 -2)
1969/12/31/18:00:05.878000,(3 9 21 -14 -4 3 0 0)
1969/12/31/18:00:05.894000,(8 9 4 21 7 21 12 6)
1969/12/31/18:00:05.895000,(4 -3 -6 29 23 9 4 5)
1969/12/31/18:00:05.896000,(-4 3 12 -5 -2 -3 -4 -3)
1969/12/31/18:00:05.896000,(2 1 -8 -22 -22 3 3 3)
1969/12/31/18:00:05.908000,(0 1 2 -14 7 0 -3 0)
1969/12/31/18:00:05.909000,(-3 6 10 1 -14 -1 -5 -5)
1969/12/31/18:00:05.918000,(0 -2 -7 10 21 8 3 2)
1969/12/31/18:00:05.918000,(-4 6 21 -19 -8 5 -1 -3)
1969/12/31/18:00:05.940000,(1 -7 -7 47 17 -2 -1 3)
1969/12/31/18:00:05.940000,(-15 -10 -1 -28 -16 -14 -9 -12)
1969/12/31/18:00:05.941000,(2 2 -4 4 0 -5 -2 0)
1969/12/31/18:00:05.941000,(0 1 -3 -22 -1 -1 2 1)
1969/12/31/18:00:05.955000,(0 4 3 -11 -6 0 1 1)
1969/12/31/18:00:05.955000,(0 0 9 22 11 4 2 1)
1969/12/31/18:00:05.956000,(2 -3 -13 -16 -12 -9 -5 -2)
1969/12/31/18:00:05.956000,(3 -3 -3 7 4 0 3 3)
1969/12/31/18:00:05.969000,(-10 -6 2 -14 -15 -10 -3 -8)
1969/12/31/18:00:05.969000,(4 6 3 8 6 3 4 3)
1969/12/31/18:00:05.977000,(5 2 4 3 5 -1 1 2)
1969/12/31/18:00:05.977000,(-4 -3 2 14 4 -2 -2 -2)
1969/12/31/18:00:05.992000,(-2 -3 -7 -8 -2 -2 -4 -4)
1969/12/31/18:00:05.992000,(6 5 10 8 8 5 2 5)
1969/12/31/18:00:05.998000,(-3 -2 -9 -6 -7 -1 0 -3)
1969/12/31/18:00:05.999000,(-11 -12 -6 -6 -3 -5 -3 -6)
1969/12/31/18:00:06.015000,(-5 -1 2 10 0 -8 -4 -5)
1969/12/31/18:00:06.015000,(13 5 -4 -7 -1 2 7 10)
1969/12/31/18:00:06.016000,(-5 -7 -4 9 -1 -4 -2 -4)
1969/12/31/18:00:06.016000,(6 1 -4 -3 2 -2 1 4)
1969/12/31/18:00:06.028000,(-3 0 -4 -19 -8 1 -1 -1)
1969/12/31/18:00:06.028000,(-3 1 5 7 1 1 -1 -2)
1969/12/31/18:00:06.037000,(0 -1 5 16 5 1 -2 -2)
1969/12/31/18:00:06.037000,(2 -3 -10 -11 -3 -2 1 3)
1969/12/31/18:00:06.067000,(0 5 8 -5 -9 3 0 0)
1969/12/31/18:00:06.067000,(3 3 3 9 17 8 1 3)
1969/12/31/18:00:06.069000,(-3 -4 -1 -8 -5 0 -2 -3)
1969/12/31/18:00:06.069000,(-4 -1 0 2 -2 -5 -3 -4)
1969/12/31/18:00:06.075000,(4 2 0 2 2 -1 1 1)
1969/12/31/18:00:06.075000,(1 -1 -8 -12 -4 -1 1 1)
1969/12/31/18:00:06.076000,(-4 -3 -2 15 -14 -3 1 -1)
1969/12/31/18:00:06.076000,(2 1 -4 -11 9 -1 -1 -3)
1969/12/31/18:00:06.088000,(-3 -6 -10 -30 -20 -8 -4 -3)
1969/12/31/18:00:06.088000,(-2 -3 5 35 20 8 4 2)
1969/12/31/18:00:06.105000,(0 4 15 36 31 6 -1 -1)
1969/12/31/18:00:06.105000,(-2 -3 -8 1 -8 -4 -3 -2)
1969/12/31/18:00:06.111000,(-1 1 -2 -9 -4 -1 -2 -1)
1969/12/31/18:00:06.111000,(-2 -1 -2 -22 -14 -3 -3 -1)
1969/12/31/18:00:06.118000,(0 -2 -9 -14 -6 -1 -1 0)
1969/12/31/18:00:06.118000,(0 2 5 13 3 2 -2 -1)
1969/12/31/18:00:06.135000,(-1 -1 -2 -10 3 0 -1 0)
1969/12/31/18:00:06.135000,(0 -1 -1 2 -5 1 2 -3)
1969/12/31/18:00:06.136000,(-1 0 0 1 1 0 0 1)
1969/12/31/18:00:06.136000,(1 2 0 -1 0 -1 0 1)
1969/12/31/18:00:06.148000,(4 2 1 3 2 6 4 3)
1969/12/31/18:00:06.148000,(2 2 0 4 -5 -2 0 1)
1969/12/31/18:00:06.157000,(-6 -6 -4 -6 3 0 -3 -3)
1969/12/31/18:00:06.157000,(-6 -2 -2 -17 -19 -9 -6 -4)
1969/12/31/18:00:06.172000,(2 0 0 1 17 1 -1 -1)
1969/12/31/18:00:06.172000,(-2 -5 -5 23 -1 -1 -2 -2)
1969/12/31/18:00:06.186000,(1 -2 -13 -39 -10 -2 0 1)
1969/12/31/18:00:06.186000,(2 5 16 18 -5 0 0 1)
1969/12/31/18:00:06.195000,(2 4 19 48 27 7 3 2)
1969/12/31/18:00:06.195000,(-4 -3 -7 -12 -5 -2 -3 -3)
1969/12/31/18:00:06.197000,(-1 1 6 11 5 2 -1 -1)
1969/12/31/18:00:06.197000,(1 -1 -4 -8 1 -1 -1 0)
1969/12/31/18:00:06.209000,(-2 -4 -6 -16 -12 -4 0 -1)
1969/12/31/18:00:06.209000,(2 2 -3 -8 0 2 2 1)
1969/12/31/18:00:06.225000,(2 1 -6 -7 -7 -3 -1 0)
1969/12/31/18:00:06.225000,(-1 -1 0 3 6 2 1 0)
1969/12/31/18:00:06.232000,(-3 -2 1 -2 -6 -3 -3 -4)
1969/12/31/18:00:06.232000,(-2 2 -1 -3 1 -1 -2 0)
1969/12/31/18:00:06.246000,(-1 -2 1 0 -1 -1 -1 -2)
1969/12/31/18:00:06.246000,(1 1 1 4 3 -2 -3 1)
1969/12/31/18:00:06.254000,(0 1 -3 -2 -2 2 0 -3)
1969/12/31/18:00:06.254000,(0 -1 -4 -13 -26 -6 -2 0)
1969/12/31/18:00:06.256000,(2 -2 -3 -5 17 -4 -2 1)
1969/12/31/18:00:06.256000,(-2 -1 4 -11 -1 0 -2 0)
1969/12/31/18:00:06.268000,(-2 -3 0 28 8 3 0 -2)
1969/12/31/18:00:06.268000,(-7 -6 8 10 10 2 -3 -6)
1969/12/31/18:00:06.278000,(0 2 1 1 -8 2 2 0)
1969/12/31/18:00:06.278000,(0 -1 -8 -7 -5 -2 0 1)
1969/12/31/18:00:06.292000,(-2 -3 -12 -38 -16 -5 -1 0)
1969/12/31/18:00:06.292000,(4 5 6 14 1 1 1 0)
1969/12/31/18:00:06.298000,(-1 1 5 19 4 3 0 -1)
1969/12/31/18:00:06.298000,(3 1 0 4 7 3 3 0)
1969/12/31/18:00:06.315000,(-1 1 0 -4 -7 -4 -4 -2)
1969/12/31/18:00:06.315000,(0 -1 -6 -14 1 -2 -1 3)
1969/12/31/18:00:06.316000,(-2 0 -2 -9 -7 -2 -3 -4)
1969/12/31/18:00:06.316000,(-4 0 2 9 1 0 -2 -2)
1969/12/31/18:00:06.345000,(-3 -3 -2 0 0 -1 -2 -1)
1969/12/31/18:00:06.345000,(0 -1 0 -4 2 -1 0 -1)
1969/12/31/18:00:06.347000,(0 0 0 1 -3 -2 0 -1)
1969/12/31/18:00:06.347000,(1 -1 -1 2 1 3 1 1)
1969/12/31/18:00:06.351000,(-1 -2 0 2 2 -2 -1 0)
1969/12/31/18:00:06.351000,(2 1 1 -3 1 -4 1 2)
1969/12/31/18:00:06.360000,(0 0 -2 1 -2 -2 -1 -2)
1969/12/31/18:00:06.360000,(-3 -4 1 0 -2 -3 -4 -4)
1969/12/31/18:00:06.383000,(-3 -2 -1 -2 -3 -4 -5 -4)
1969/12/31/18:00:06.383000,(1 0 0 -1 3 2 2 2)
1969/12/31/18:00:06.384000,(0 1 1 3 0 1 2 3)
1969/12/31/18:00:06.384000,(0 -1 -3 1 0 0 0 -1)
1969/12/31/18:00:06.397000,(1 1 3 0 -1 -1 0 0)
1969/12/31/18:00:06.397000,(-2 1 -2 -4 -3 -2 -4 -3)
1969/12/31/18:00:06.399000,(-1 -3 -3 1 0 -1 0 -1)
1969/12/31/18:00:06.399000,(0 2 -1 0 1 4 2 1)
1969/12/31/18:00:06.420000,(1 1 -1 0 -4 0 1 1)
1969/12/31/18:00:06.420000,(0 -3 -1 -1 3 2 1 -1)
1969/12/31/18:00:06.421000,(-2 1 1 -4 -3 -3 -2 -2)
1969/12/31/18:00:06.421000,(0 -1 -1 2 0 -2 -2 -2)
1969/12/31/18:00:06.435000,(0 0 2 0 -1 -2 -2 -1)
1969/12/31/18:00:06.435000,(-2 0 -1 -4 1 0 -1 -2)
1969/12/31/18:00:06.436000,(0 -1 -1 1 2 -1 1 0)
1969/12/31/18:00:06.436000,(1 -2 -2 2 -1 -3 -1 1)
1969/12/31/18:00:06.457000,(-1 -2 0 -2 -1 1 0 -1)
1969/12/31/18:00:06.457000,(1 0 0 -1 -2 -2 -3 -1)
1969/12/31/18:00:06.459000,(-3 -2 -5 -1 -1 -1 1 0)
1969/12/31/18:00:06.459000,(-2 -2 -1 1 2 0 0 -1)
1969/12/31/18:00:06.480000,(-4 -2 4 1 0 1 2 -3)
1969/12/31/18:00:06.480000,(0 1 -3 -2 0 -1 0 1)
1969/12/31/18:00:06.482000,(3 2 -4 -4 -5 -5 -2 -1)
1969/12/31/18:00:06.482000,(2 0 -3 -2 -2 -3 0 1)
1969/12/31/18:00:06.495000,(0 0 -1 1 1 -1 1 0)
1969/12/31/18:00:06.495000,(-3 -2 1 -1 0 1 0 -2)
1969/12/31/18:00:06.497000,(0 -1 4 1 0 2 1 1)
1969/12/31/18:00:06.497000,(1 2 1 6 5 -1 -2 -1)
1969/12/31/18:00:06.517000,(-2 -1 0 -2 -1 0 -4 -5)
1969/12/31/18:00:06.517000,(-2 -2 -4 -2 0 -1 -1 -2)
1969/12/31/18:00:06.519000,(1 0 0 0 -1 -1 1 3)
1969/12/31/18:00:06.519000,(1 2 5 -3 -3 1 0 1)
1969/12/31/18:00:06.531000,(4 3 -2 3 -2 0 2 3)
1969/12/31/18:00:06.531000,(-3 -4 1 -3 -4 -7 -6 -5)
1969/12/31/18:00:06.540000,(-1 -3 -1 -1 1 4 3 1)
1969/12/31/18:00:06.540000,(-4 -2 -1 0 2 0 -1 -3)
1969/12/31/18:00:06.555000,(-1 -1 -3 -1 0 -1 -1 -1)
1969/12/31/18:00:06.555000,(2 1 0 0 0 1 2 2)
1969/12/31/18:00:06.556000,(-1 -3 -1 -1 -2 -1 -1 0)
1969/12/31/18:00:06.556000,(-2 -3 -3 -2 -1 -1 1 -1)
1969/12/31/18:00:06.577000,(1 2 -1 -2 2 0 2 4)
1969/12/31/18:00:06.577000,(0 1 0 2 0 2 3 3)
1969/12/31/18:00:06.579000,(-2 -1 0 -1 -2 0 -3 -3)
1969/12/31/18:00:06.579000,(2 0 0 0 1 -1 1 1)
1969/12/31/18:00:06.600000,(0 -1 -2 -2 -1 -1 -2 -1)
1969/12/31/18:00:06.600000,(0 -2 0 -2 0 -2 0 -1)
1969/12/31/18:00:06.601000,(0 2 0 -1 -1 1 2 1)
1969/12/31/18:00:06.601000,(-1 -2 1 0 0 0 1 0)
1969/12/31/18:00:06.623000,(2 0 -1 -1 -1 -2 -1 0)
1969/12/31/18:00:06.623000,(1 1 -1 0 1 0 0 -1)
1969/12/31/18:00:06.625000,(0 -2 0 -1 -2 -1 -2 -3)
1969/12/31/18:00:06.625000,(-3 -1 -2 -2 -2 -1 -1 -1)
1969/12/31/18:00:06.637000,(-2 -3 -1 -3 -2 -1 0 -1)
1969/12/31/18:00:06.637000,(2 1 2 4 4 2 -1 -1)
1969/12/31/18:00:06.639000,(-1 -1 -3 0 0 -4 -3 -3)
1969/12/31/18:00:06.639000,(0 1 -1 -1 -3 -2 -4 -2)
1969/12/31/18:00:06.651000,(-2 -2 -1 -1 -3 -2 -2 -2)
1969/12/31/18:00:06.651000,(-1 -1 -3 -3 -4 -1 1 0)
1969/12/31/18:00:06.660000,(0 -1 0 0 -1 0 0 0)
1969/12/31/18:00:06.660000,(1 2 2 1 3 -3 -2 0)
1969/12/31/18:00:06.675000,(-5 -5 -3 0 1 0 -1 -2)
1969/12/31/18:00:06.675000,(-5 -4 -2 -3 -2 -3 -1 -1)
1969/12/31/18:00:06.676000,(-1 0 -1 2 1 2 -1 -1)
1969/12/31/18:00:06.676000,(2 0 -3 -3 -3 -3 1 4)
1969/12/31/18:00:06.697000,(3 1 -1 1 -1 0 0 0)
1969/12/31/18:00:06.697000,(-1 -1 -1 -1 0 -2 -2 1)
1969/12/31/18:00:06.699000,(-1 -1 0 0 -1 -3 -1 -1)
1969/12/31/18:00:06.699000,(0 1 0 0 0 1 0 -2)
1969/12/31/18:00:06.699000,(-5 -6 -2 12 9 2 -3 -6)
1969/12/31/18:00:06.699000,(1 1 12 12 10 -1 -2 0)
1969/12/31/18:00:06.716000,(-3 5 8 -11 -4 -1 1 -3)
1969/12/31/18:00:06.716000,(-5 -4 0 -9 -6 1 -1 -4)
1969/12/31/18:00:06.717000,(10 4 -28 -48 -32 -10 2 9)
1969/12/31/18:00:06.717000,(-7 4 19 -67 -25 -4 -3 -8)
1969/12/31/18:00:06.729000,(15 20 21 96 86 28 13 12)
1969/12/31/18:00:06.729000,(-1 -13 10 32 44 2 -9 -6)
1969/12/31/18:00:06.744000,(-7 5 28 8 -4 2 1 -4)
1969/12/31/18:00:06.744000,(-7 -18 -37 -22 -15 -16 -11 -4)
1969/12/31/18:00:06.752000,(-9 -3 1 -68 -51 -13 -5 -5)
1969/12/31/18:00:06.752000,(13 10 -8 10 8 2 6 9)
1969/12/31/18:00:06.759000,(-1 -7 -6 -4 -3 0 -1 -4)
1969/12/31/18:00:06.759000,(-1 -10 -38 -16 -26 -7 2 2)
1969/12/31/18:00:06.776000,(3 -10 -28 -44 2 -3 -2 1)
1969/12/31/18:00:06.776000,(-10 0 40 80 11 -5 -9 -10)
1969/12/31/18:00:06.777000,(-5 7 30 26 22 7 -1 -4)
1969/12/31/18:00:06.777000,(7 9 6 8 -1 12 11 9)
1969/12/31/18:00:06.789000,(7 5 -5 45 17 3 0 4)
1969/12/31/18:00:06.789000,(-5 -11 -29 -72 -32 -1 0 -2)
1969/12/31/18:00:06.798000,(-3 -4 -1 -9 -1 -7 -3 -2)
1969/12/31/18:00:06.798000,(8 13 9 -5 -1 0 3 5)
1969/12/31/18:00:06.813000,(-8 -9 -14 -27 8 -1 -3 -7)
1969/12/31/18:00:06.813000,(1 4 1 -14 -17 -5 2 3)
1969/12/31/18:00:06.827000,(4 2 -15 16 -7 4 2 -1)
1969/12/31/18:00:06.827000,(-1 -8 21 49 60 6 -2 1)
1969/12/31/18:00:06.836000,(-8 9 34 -18 -18 -4 -4 -10)
1969/12/31/18:00:06.836000,(2 2 2 56 23 3 3 1)
1969/12/31/18:00:06.837000,(0 -5 -32 -54 -18 -9 -5 -1)
1969/12/31/18:00:06.837000,(7 2 -9 -35 -19 -2 3 2)
1969/12/31/18:00:06.849000,(1 5 28 61 6 2 2 1)
1969/12/31/18:00:06.849000,(-2 -4 -13 -2 6 -2 -1 -2)
1969/12/31/18:00:06.858000,(-2 -2 1 -6 -7 -6 -3 -4)
1969/12/31/18:00:06.858000,(-10 -9 3 -20 -15 -11 -8 -8)
1969/12/31/18:00:06.872000,(4 6 11 44 7 5 2 2)
1969/12/31/18:00:06.872000,(0 -5 -12 -22 0 -3 -1 -2)
1969/12/31/18:00:06.882000,(-5 -10 -8 25 6 -2 -3 -3)
1969/12/31/18:00:06.882000,(-1 2 7 -13 -4 0 1 2)
1969/12/31/18:00:06.896000,(-2 -2 -14 -26 -21 -1 2 0)
1969/12/31/18:00:06.896000,(-1 -5 -11 -19 -15 -5 -6 -3)
1969/12/31/18:00:06.896000,(-1 2 7 -7 5 0 -1 0)
1969/12/31/18:00:06.896000,(-2 2 10 40 11 4 2 -1)
1969/12/31/18:00:06.919000,(0 -3 -10 -52 -12 -4 -1 3)
1969/12/31/18:00:06.919000,(2 3 2 28 3 3 3 3)
1969/12/31/18:00:06.920000,(-2 1 -7 -64 -17 1 -1 -2)
1969/12/31/18:00:06.920000,(8 15 29 98 35 17 6 6)
1969/12/31/18:00:06.932000,(-5 -6 -7 29 4 0 -1 -6)
1969/12/31/18:00:06.932000,(-3 -1 -3 -39 -6 0 -1 -1)
1969/12/31/18:00:06.940000,(1 0 0 6 -4 -1 -1 -2)
1969/12/31/18:00:06.940000,(1 0 5 2 -2 0 -2 -2)
1969/12/31/18:00:06.956000,(-3 -5 -8 -22 -6 -1 0 1)
1969/12/31/18:00:06.956000,(4 1 -5 -14 -1 0 1 2)
1969/12/31/18:00:06.956000,(0 0 1 20 4 -2 -1 0)
1969/12/31/18:00:06.957000,(-4 -6 -4 -16 -11 -7 -3 -2)
1969/12/31/18:00:06.978000,(-4 -4 -1 -2 -4 -5 -4 -4)
1969/12/31/18:00:06.978000,(0 -1 -4 -17 -8 -2 3 3)
1969/12/31/18:00:06.978000,(3 0 3 24 13 2 1 1)
1969/12/31/18:00:06.978000,(0 -1 -2 -10 -6 0 -1 -1)
1969/12/31/18:00:06.992000,(-3 -1 -3 -3 -1 -2 -4 -3)
1969/12/31/18:00:06.992000,(0 -3 0 5 -4 0 0 -1)
1969/12/31/18:00:07.000000,(2 6 4 6 7 1 2 1)
1969/12/31/18:00:07.000000,(3 3 2 3 2 0 -1 0)
1969/12/31/18:00:07.015000,(4 2 -1 0 -6 0 2 3)
1969/12/31/18:00:07.015000,(-4 -4 0 -10 -4 -5 -4 -4)
1969/12/31/18:00:07.015000,(1 2 2 9 7 3 4 4)
1969/12/31/18:00:07.015000,(-4 -2 -4 -9 -3 -2 -4 -6)
1969/12/31/18:00:07.038000,(-1 -3 -5 -3 -5 3 -1 -2)
1969/12/31/18:00:07.038000,(0 4 9 2 4 5 1 0)
1969/12/31/18:00:07.039000,(0 0 1 -6 4 5 1 2)
1969/12/31/18:00:07.039000,(-4 -1 3 3 -2 -2 -3 -3)
1969/12/31/18:00:07.054000,(4 4 -3 0 -2 4 6 6)
1969/12/31/18:00:07.054000,(-4 -2 -1 -4 -1 -2 -2 -3)
1969/12/31/18:00:07.060000,(1 0 9 18 9 3 2 1)
1969/12/31/18:00:07.060000,(-8 -4 -4 -18 -5 -6 -5 -6)
1969/12/31/18:00:07.075000,(1 -4 -11 -26 -19 -7 -1 -1)
1969/12/31/18:00:07.075000,(4 1 2 19 16 0 1 3)
1969/12/31/18:00:07.076000,(-2 -3 6 21 6 -3 -3 -4)
1969/12/31/18:00:07.076000,(4 1 1 4 7 1 3 4)
1969/12/31/18:00:07.099000,(-3 -4 0 2 0 -2 -4 -4)
1969/12/31/18:00:07.099000,(5 4 -8 -29 -10 2 3 6)
1969/12/31/18:00:07.100000,(-1 -2 3 -4 -8 -2 -3 -3)
1969/12/31/18:00:07.100000,(-6 -2 3 9 5 4 1 -5)
1969/12/31/18:00:07.121000,(4 3 -4 -12 -7 -4 2 5)
1969/12/31/18:00:07.121000,(7 3 -2 -2 -4 -1 0 2)
1969/12/31/18:00:07.121000,(-1 -2 -2 0 7 -2 1 2)
1969/12/31/18:00:07.122000,(-2 0 -4 -7 -6 -8 -6 -7)
1969/12/31/18:00:07.135000,(-3 -4 -9 -14 -9 -4 -3 -2)
1969/12/31/18:00:07.135000,(-5 -4 3 -4 6 1 0 -2)
1969/12/31/18:00:07.136000,(-3 1 11 25 12 2 1 -1)
1969/12/31/18:00:07.136000,(18 4 -2 6 3 -1 5 10)
1969/12/31/18:00:07.157000,(-5 -5 3 11 8 -2 -2 1)
1969/12/31/18:00:07.157000,(-19 -13 -1 3 -12 -10 -8 -7)
1969/12/31/18:00:07.158000,(8 7 -5 -31 -18 0 5 3)
1969/12/31/18:00:07.158000,(2 -4 -14 -5 7 -4 -4 -6)
1969/12/31/18:00:07.172000,(-1 -2 5 13 -2 -2 -5 -6)
1969/12/31/18:00:07.172000,(-8 -3 4 21 13 1 0 -8)
1969/12/31/18:00:07.180000,(-19 -11 -2 -11 1 -3 1 -1)
1969/12/31/18:00:07.180000,(24 8 -8 -7 -11 -3 2 15)
1969/12/31/18:00:07.195000,(4 5 -2 -10 -1 1 6 7)
1969/12/31/18:00:07.195000,(-3 -7 -7 -9 -9 -9 -9 -9)
1969/12/31/18:00:07.196000,(-11 -3 -4 3 2 1 -3 -7)
1969/12/31/18:00:07.196000,(-15 -10 -7 -15 -8 -2 -5 -10)
1969/12/31/18:00:07.218000,(8 6 4 3 2 -1 3 10)
1969/12/31/18:00:07.218000,(19 15 6 15 9 17 12 9)
1969/12/31/18:00:07.219000,(4 0 -5 -25 -16 -4 -2 -2)
1969/12/31/18:00:07.219000,(-6 -3 13 41 12 -2 -3 -2)
1969/12/31/18:00:07.234000,(-51 -15 5 23 14 -4 -11 -20)
1969/12/31/18:00:07.234000,(44 15 0 -3 2 8 14 18)
1969/12/31/18:00:07.240000,(12 6 -4 -8 -4 -3 -6 -2)
1969/12/31/18:00:07.240000,(15 6 -2 -11 -7 3 9 18)
1969/12/31/18:00:07.255000,(-2 -8 -2 -8 -4 -1 2 5)
1969/12/31/18:00:07.255000,(-69 -26 -11 -7 -2 -3 -6 -14)
1969/12/31/18:00:07.256000,(65 21 0 10 3 1 5 17)
1969/12/31/18:00:07.256000,(-16 -6 -4 -36 -17 -8 -10 -17)
1969/12/31/18:00:07.277000,(4 1 -2 -2 -6 -3 -3 -3)
1969/12/31/18:00:07.277000,(15 11 5 13 4 0 2 11)
1969/12/31/18:00:07.278000,(-26 -10 9 33 22 -1 -7 -10)
1969/12/31/18:00:07.278000,(-9 -1 10 17 -5 0 0 -3)
1969/12/31/18:00:07.292000,(21 9 -3 -10 6 8 7 8)
1969/12/31/18:00:07.292000,(-14 -8 -20 -56 -24 -7 -6 -13)
1969/12/31/18:00:07.300000,(-9 1 17 29 5 2 -2 -1)
1969/12/31/18:00:07.300000,(3 8 25 33 20 8 2 0)
1969/12/31/18:00:07.315000,(-8 -7 -21 3 0 -4 -2 -3)
1969/12/31/18:00:07.315000,(19 -4 -19 -10 -12 -7 -4 8)
1969/12/31/18:00:07.316000,(-18 -8 -19 -37 -6 -2 -1 -6)
1969/12/31/18:00:07.316000,(16 15 29 7 -11 13 12 9)
1969/12/31/18:00:07.337000,(-30 6 4 7 4 -2 -6 -9)
1969/12/31/18:00:07.337000,(27 -11 -27 -9 5 -1 1 7)
1969/12/31/18:00:07.338000,(-6 -5 -9 -12 -5 -3 -7 -12)
1969/12/31/18:00:07.338000,(-13 -5 -4 -10 -2 -2 -2 -3)
1969/12/31/18:00:07.352000,(4 6 19 27 13 5 4 2)
1969/12/31/18:00:07.352000,(3 9 22 28 4 5 8 11)
1969/12/31/18:00:07.377000,(-7 -6 -5 -5 -5 0 1 1)
1969/12/31/18:00:07.377000,(-5 -9 -15 -31 -11 -8 -7 -6)
1969/12/31/18:00:07.379000,(9 -2 -2 11 3 -3 -3 -1)
1969/12/31/18:00:07.379000,(8 10 10 15 13 6 6 8)
1969/12/31/18:00:07.379000,(-1 -1 -12 -48 -27 -8 -5 -6)
1969/12/31/18:00:07.379000,(-12 -20 -20 -4 18 6 6 6)
1969/12/31/18:00:07.398000,(5 2 13 34 -8 2 1 3)
1969/12/31/18:00:07.398000,(-2 5 23 43 13 -4 -11 -16)
1969/12/31/18:00:07.398000,(-6 2 9 15 11 0 -2 -3)
1969/12/31/18:00:07.398000,(-4 -4 -21 -32 -18 -9 -5 -4)
1969/12/31/18:00:07.412000,(-3 -6 -11 -38 -16 -5 -3 -6)
1969/12/31/18:00:07.412000,(0 6 7 -1 -4 3 7 14)
1969/12/31/18:00:07.420000,(0 -5 -6 9 6 -7 -15 -14)
1969/12/31/18:00:07.420000,(-7 -5 -14 -38 -20 -13 -7 -6)
1969/12/31/18:00:07.435000,(32 12 4 7 8 12 14 17)
1969/12/31/18:00:07.435000,(-20 -7 2 6 0 -8 -10 -13)
1969/12/31/18:00:07.436000,(-4 -5 3 23 12 10 9 10)
1969/12/31/18:00:07.436000,(23 20 9 13 14 6 3 3)
1969/12/31/18:00:07.466000,(-7 -12 -21 -85 -49 -17 -8 -5)
1969/12/31/18:00:07.466000,(-6 -1 -1 14 7 -4 -5 -9)
1969/12/31/18:00:07.466000,(-42 -25 10 44 18 7 2 -3)
1969/12/31/18:00:07.467000,(76 49 21 46 21 18 18 25)
1969/12/31/18:00:07.472000,(-16 -10 -7 -4 9 -1 -8 -15)
1969/12/31/18:00:07.472000,(-1 -4 -13 -38 -24 -8 -5 -5)
1969/12/31/18:00:07.473000,(-3 -5 -4 -14 -13 -6 -1 -2)
1969/12/31/18:00:07.473000,(-23 -13 -6 -14 -9 -8 -4 -3)
1969/12/31/18:00:07.495000,(12 3 -10 -37 -14 -8 -1 6)
1969/12/31/18:00:07.495000,(5 7 14 30 -7 6 3 -1)
1969/12/31/18:00:07.496000,(2 5 7 20 34 8 3 3)
1969/12/31/18:00:07.496000,(-13 4 40 52 33 32 13 1)
1969/12/31/18:00:07.519000,(20 12 -10 24 28 -1 -1 4)
1969/12/31/18:00:07.519000,(-31 -38 -44 -59 -41 -36 -24 -19)
1969/12/31/18:00:07.520000,(-1 -1 -13 -29 -32 -18 -8 -6)
1969/12/31/18:00:07.520000,(-3 -3 -9 -14 -9 -5 -1 1)
1969/12/31/18:00:07.532000,(-17 -7 14 12 8 5 1 0)
1969/12/31/18:00:07.532000,(15 24 21 20 27 29 22 10)
1969/12/31/18:00:07.540000,(10 4 -4 -1 -7 1 4 4)
1969/12/31/18:00:07.540000,(10 10 2 -1 6 -1 -4 2)
1969/12/31/18:00:07.555000,(10 -1 5 13 -4 -6 -12 -11)
1969/12/31/18:00:07.555000,(-11 -2 0 5 7 2 -4 -3)
1969/12/31/18:00:07.556000,(30 17 4 7 6 8 19 28)
1969/12/31/18:00:07.556000,(-39 -25 -10 -1 -4 -8 -9 -19)
1969/12/31/18:00:07.586000,(16 8 2 7 -5 4 9 14)
1969/12/31/18:00:07.586000,(-7 -5 -1 -13 -5 1 0 -4)
1969/12/31/18:00:07.587000,(4 5 9 24 9 3 2 3)
1969/12/31/18:00:07.587000,(-5 -8 -19 -35 -9 -14 -9 -4)
1969/12/31/18:00:07.592000,(-8 -4 3 25 -1 -5 -4 -7)
1969/12/31/18:00:07.592000,(19 11 17 27 23 11 10 13)
1969/12/31/18:00:07.600000,(-19 -9 -3 -10 -13 -4 -10 -13)
1969/12/31/18:00:07.600000,(5 1 -2 6 -1 2 6 8)
1969/12/31/18:00:07.615000,(-20 -13 -9 -30 -6 -2 -7 -10)
1969/12/31/18:00:07.615000,(32 12 -5 -18 -7 -4 -2 6)
1969/12/31/18:00:07.616000,(-2 1 -1 4 1 -3 -8 -11)
1969/12/31/18:00:07.616000,(-21 -6 -2 -1 -4 -5 -5 -12)
1969/12/31/18:00:07.638000,(-19 -13 0 -3 1 1 -1 -6)
1969/12/31/18:00:07.638000,(74 35 7 -16 -7 -3 6 31)
1969/12/31/18:00:07.639000,(-11 -10 -5 14 1 -5 -6 -7)
1969/12/31/18:00:07.639000,(-28 -15 -2 3 -15 -12 -14 -18)
1969/12/31/18:00:07.654000,(33 15 9 10 15 17 28 36)
1969/12/31/18:00:07.654000,(12 7 2 5 6 1 -4 -8)
1969/12/31/18:00:07.660000,(-21 -15 -17 -52 -25 -15 -17 -23)
1969/12/31/18:00:07.660000,(20 0 -3 6 5 8 10 19)
1969/12/31/18:00:07.675000,(-13 -4 0 18 6 1 0 -9)
1969/12/31/18:00:07.675000,(-36 -17 2 21 2 3 4 4)
1969/12/31/18:00:07.676000,(30 23 25 23 9 1 -1 4)
1969/12/31/18:00:07.676000,(-11 -15 -15 10 -4 -12 -13 -13)
1969/12/31/18:00:07.698000,(-16 0 0 -20 -1 2 1 -4)
1969/12/31/18:00:07.698000,(29 7 -10 -33 -9 -7 -5 5)
1969/12/31/18:00:07.698000,(-15 -16 -7 0 -4 3 4 -6)
1969/12/31/18:00:07.698000,(32 18 2 -9 -11 -11 -8 0)
1969/12/31/18:00:07.721000,(15 6 0 7 -1 -8 -8 1)
1969/12/31/18:00:07.721000,(-44 -13 3 -19 1 9 2 -20)
1969/12/31/18:00:07.722000,(-14 -16 -3 17 4 -3 -4 -2)
1969/12/31/18:00:07.722000,(15 10 0 -22 1 13 14 14)
1969/12/31/18:00:07.736000,(-20 -10 -4 3 -7 -15 -21 -28)
1969/12/31/18:00:07.736000,(-17 -14 -8 10 4 2 8 18)
1969/12/31/18:00:07.736000,(41 37 -25 -81 -3 13 14 7)
1969/12/31/18:00:07.736000,(-26 -13 15 49 -1 6 4 -4)
1969/12/31/18:00:07.758000,(17 18 22 31 11 3 4 8)
1969/12/31/18:00:07.758000,(-67 -43 6 41 8 -7 -13 -27)
1969/12/31/18:00:07.758000,(64 40 9 28 16 11 17 30)
1969/12/31/18:00:07.758000,(4 0 -36 -109 -16 2 8 14)
1969/12/31/18:00:07.772000,(-35 -34 -4 18 -5 0 0 -9)
1969/12/31/18:00:07.772000,(37 33 14 25 -8 -11 -9 2)
1969/12/31/18:00:07.781000,(-50 -22 10 29 10 0 -9 -29)
1969/12/31/18:00:07.781000,(25 7 -3 -6 -2 -5 1 23)
1969/12/31/18:00:07.795000,(19 7 -19 -58 -11 -1 -3 -1)
1969/12/31/18:00:07.795000,(-18 -15 -25 -62 -18 -12 -13 -18)
1969/12/31/18:00:07.796000,(21 8 9 18 -10 3 13 26)
1969/12/31/18:00:07.796000,(-25 -11 26 79 24 3 -1 -17)
1969/12/31/18:00:07.818000,(-32 -16 5 31 40 -4 -12 -15)
1969/12/31/18:00:07.818000,(13 17 8 23 -13 3 5 8)
1969/12/31/18:00:07.819000,(-25 -21 -23 -47 -12 -4 -6 -13)
1969/12/31/18:00:07.819000,(-13 -13 -4 20 -4 -3 2 2)
1969/12/31/18:00:07.832000,(34 27 6 -3 -3 7 14 20)
1969/12/31/18:00:07.832000,(37 10 13 52 23 8 -1 -7)
1969/12/31/18:00:07.840000,(-32 -41 -7 -3 -7 -16 -14 -6)
1969/12/31/18:00:07.840000,(-41 -8 -16 -26 -2 -1 -12 -36)
1969/12/31/18:00:07.855000,(22 29 0 -22 -7 9 13 25)
1969/12/31/18:00:07.855000,(-67 -34 -31 -69 -13 -4 -5 -16)
1969/12/31/18:00:07.856000,(55 31 10 -5 -14 0 8 30)
1969/12/31/18:00:07.856000,(-21 -19 18 35 -8 -12 -13 -21)
1969/12/31/18:00:07.878000,(-4 11 58 36 19 11 10 3)
1969/12/31/18:00:07.878000,(13 21 -10 35 26 16 6 7)
1969/12/31/18:00:07.879000,(-25 -38 -66 -33 22 2 -1 1)
1969/12/31/18:00:07.879000,(58 28 -19 -26 -16 -14 -2 24)
1969/12/31/18:00:07.900000,(-27 -10 4 -1 -20 -9 -21 -41)
1969/12/31/18:00:07.901000,(-60 -31 14 -22 -16 -9 -4 -8)
1969/12/31/18:00:07.901000,(33 48 43 32 13 19 15 0)
1969/12/31/18:00:07.901000,(-47 -27 -13 -13 -5 -6 -4 -4)
1969/12/31/18:00:07.916000,(22 1 -10 -18 -7 -4 -1 12)
1969/12/31/18:00:07.916000,(-44 -34 0 11 4 -4 -7 -20)
1969/12/31/18:00:07.916000,(3 -10 -8 -8 -8 0 13 16)
1969/12/31/18:00:07.916000,(-18 11 25 16 16 4 -3 -3)
1969/12/31/18:00:07.937000,(62 39 -9 3 1 2 -1 5)
1969/12/31/18:00:07.938000,(28 24 3 -5 5 6 9 14)
1969/12/31/18:00:07.938000,(0 -1 -4 1 -13 -21 -27 -12)
1969/12/31/18:00:07.938000,(-19 -17 9 7 11 11 12 4)
1969/12/31/18:00:07.961000,(-20 -23 -11 -4 -3 0 6 5)
1969/12/31/18:00:07.961000,(2 -2 -13 -11 -7 -7 -6 -8)
1969/12/31/18:00:07.961000,(-4 7 27 15 9 20 21 6)
1969/12/31/18:00:07.962000,(11 2 -12 -2 -5 -8 -9 -1)
1969/12/31/18:00:07.983000,(-15 -5 -7 -4 -4 -5 -2 1)
1969/12/31/18:00:07.983000,(64 16 0 -3 0 2 5 16)
1969/12/31/18:00:07.984000,(-108 -59 10 6 -3 -4 -9 -31)
1969/12/31/18:00:07.984000,(95 75 11 4 10 16 24 47)
1969/12/31/18:00:07.998000,(-20 -29 -24 -28 -19 -23 -25 -27)
1969/12/31/18:00:07.998000,(52 24 7 12 4 9 24 40)
1969/12/31/18:00:07.999000,(-20 -5 -1 0 -10 -22 -28 -22)
1969/12/31/18:00:07.999000,(-2 -10 -8 -8 -2 2 3 -10)
1969/12/31/18:00:08.021000,(13 12 9 12 11 18 22 17)
1969/12/31/18:00:08.021000,(-29 -15 -1 -3 -1 -9 -13 -12)
1969/12/31/18:00:08.022000,(-5 7 6 6 5 14 16 3)
1969/12/31/18:00:08.022000,(-8 -5 -11 -5 -7 -23 -32 -31)
1969/12/31/18:00:08.035000,(-42 -23 -11 -3 -4 -3 -6 -11)
1969/12/31/18:00:08.035000,(48 23 10 2 6 7 12 23)
1969/12/31/18:00:08.036000,(9 9 -6 1 -5 -8 -6 -6)
1969/12/31/18:00:08.036000,(-15 -17 0 -2 3 7 12 11)
1969/12/31/18:00:08.066000,(-77 -49 -2 4 -1 -2 -13 -38)
1969/12/31/18:00:08.066000,(-10 21 -3 -5 -4 -6 -3 -2)
1969/12/31/18:00:08.067000,(39 23 6 1 5 9 6 12)
1969/12/31/18:00:08.067000,(17 -1 5 3 -1 -1 0 9)
1969/12/31/18:00:08.081000,(-15 -8 -8 -3 -1 -2 5 1)
1969/12/31/18:00:08.081000,(22 10 4 5 6 15 19 19)
1969/12/31/18:00:08.081000,(8 -3 -2 2 3 3 10 24)
1969/12/31/18:00:08.081000,(-39 -30 -12 -22 -13 -11 -13 -26)
1969/12/31/18:00:08.095000,(13 25 11 17 12 12 13 9)
1969/12/31/18:00:08.095000,(-22 -20 -8 -32 -29 -17 -22 -22)
1969/12/31/18:00:08.096000,(-18 -16 6 29 11 -6 -9 -10)
1969/12/31/18:00:08.096000,(48 33 20 31 23 28 35 45)
1969/12/31/18:00:08.118000,(-6 3 -12 -16 -14 -20 -31 -32)
1969/12/31/18:00:08.118000,(-11 -7 -4 -3 2 -4 -4 5)
1969/12/31/18:00:08.119000,(-33 -10 -6 -24 -11 -4 -8 -15)
1969/12/31/18:00:08.119000,(-29 -42 -12 -4 -12 -18 -16 -8)
1969/12/31/18:00:08.141000,(40 27 11 5 8 10 12 12)
1969/12/31/18:00:08.141000,(9 1 -5 11 11 10 11 8)
1969/12/31/18:00:08.142000,(-26 -30 -9 -9 -14 -23 -31 -34)
1969/12/31/18:00:08.142000,(-17 -1 -2 1 -1 1 3 -3)
1969/12/31/18:00:08.155000,(34 18 1 -22 -12 0 12 27)
1969/12/31/18:00:08.155000,(-64 -39 -11 -25 -10 1 1 -16)
1969/12/31/18:00:08.156000,(49 32 3 25 16 8 13 22)
1969/12/31/18:00:08.156000,(-1 4 3 12 5 0 -8 -11)
1969/12/31/18:00:08.186000,(15 10 4 6 0 0 0 5)
1969/12/31/18:00:08.186000,(-54 -30 4 4 3 -6 -9 -22)
1969/12/31/18:00:08.187000,(20 18 -3 -17 -9 0 5 11)
1969/12/31/18:00:08.187000,(-63 -24 -13 -6 -7 -5 -12 -27)
1969/12/31/18:00:08.208000,(22 18 27 17 18 27 39 54)
1969/12/31/18:00:08.208000,(0 7 -15 -18 -19 -32 -37 -26)
1969/12/31/18:00:08.209000,(-3 -13 -1 3 5 8 8 11)
1969/12/31/18:00:08.209000,(44 34 7 4 2 1 -6 -12)
1969/12/31/18:00:08.215000,(11 -2 -2 0 2 6 14 21)
1969/12/31/18:00:08.215000,(5 7 4 6 0 0 -2 -3)
1969/12/31/18:00:08.216000,(12 7 3 -8 -3 2 2 1)
1969/12/31/18:00:08.216000,(-25 -18 -3 -14 -5 0 4 5)
1969/12/31/18:00:08.238000,(4 -4 -10 -1 -4 -5 -9 -10)
1969/12/31/18:00:08.238000,(6 4 10 17 6 -2 -3 -3)
1969/12/31/18:00:08.239000,(-25 -5 -12 -10 -2 -1 3 3)
1969/12/31/18:00:08.239000,(-14 -26 10 10 13 20 15 -3)
1969/12/31/18:00:08.261000,(101 74 15 3 6 12 18 47)
1969/12/31/18:00:08.261000,(-76 -60 -24 -18 -4 -19 -26 -41)
1969/12/31/18:00:08.262000,(6 6 7 11 -9 -1 0 -3)
1969/12/31/18:00:08.262000,(46 39 9 10 11 13 26 40)
1969/12/31/18:00:08.275000,(-3 -5 2 22 10 -5 -17 -20)
1969/12/31/18:00:08.275000,(-10 -7 -2 -15 -9 -2 5 4)
1969/12/31/18:00:08.276000,(7 9 -1 -29 -10 -3 1 3)
1969/12/31/18:00:08.276000,(4 3 -3 2 3 -9 -14 -10)
1969/12/31/18:00:08.298000,(-41 -30 -11 -1 -23 -11 -12 -23)
1969/12/31/18:00:08.298000,(26 20 14 34 20 13 15 17)
1969/12/31/18:00:08.299000,(-22 -16 -8 -7 -6 -7 -8 -8)
1969/12/31/18:00:08.299000,(42 34 9 -7 1 7 9 15)
1969/12/31/18:00:08.321000,(-47 -33 -15 -21 -12 -18 -22 -27)
1969/12/31/18:00:08.321000,(31 9 1 -5 3 15 21 27)
1969/12/31/18:00:08.321000,(5 4 0 8 1 -5 -11 -9)
1969/12/31/18:00:08.321000,(-97 -74 -16 -11 -9 -15 -26 -58)
1969/12/31/18:00:08.344000,(31 36 2 0 4 6 14 26)
1969/12/31/18:00:08.344000,(90 60 13 0 -6 -1 7 31)
1969/12/31/18:00:08.346000,(-7 -11 -7 -9 -7 -8 -12 -14)
1969/12/31/18:00:08.346000,(14 2 -28 -59 0 -3 -3 8)
1969/12/31/18:00:08.358000,(-41 -32 -2 43 -11 -8 -6 -19)
1969/12/31/18:00:08.358000,(-16 0 25 30 37 17 10 -3)
1969/12/31/18:00:08.360000,(14 20 36 83 24 15 9 10)
1969/12/31/18:00:08.360000,(9 16 12 28 7 -8 -2 5)
1969/12/31/18:00:08.381000,(-24 -30 -29 -35 -8 -14 -16 -19)
1969/12/31/18:00:08.381000,(-3 -4 -21 -42 -21 -3 0 0)
1969/12/31/18:00:08.382000,(5 -1 -8 -34 -6 6 7 7)
1969/12/31/18:00:08.382000,(0 3 1 -4 -9 0 -3 -2)
1969/12/31/18:00:08.394000,(-2 -4 1 -15 -2 -3 -5 -4)
1969/12/31/18:00:08.394000,(-26 -25 -10 -1 -9 -5 -2 -4)
1969/12/31/18:00:08.403000,(25 50 11 -11 6 12 2 -13)
1969/12/31/18:00:08.403000,(-1 -4 13 21 1 2 1 -7)
1969/12/31/18:00:08.418000,(-2 0 8 9 12 8 5 2)
1969/12/31/18:00:08.418000,(-11 -11 -3 -2 -8 -9 -8 -11)
1969/12/31/18:00:08.420000,(-8 -6 -8 -2 -6 -14 -10 4)
1969/12/31/18:00:08.420000,(-17 -8 -17 -10 -9 -9 -14 -21)
1969/12/31/18:00:08.441000,(-1 -5 -1 -3 6 6 3 -2)
1969/12/31/18:00:08.441000,(-13 -1 4 10 0 1 0 -4)
1969/12/31/18:00:08.442000,(4 -9 -3 -9 -4 -4 3 4)
1969/12/31/18:00:08.442000,(5 6 2 2 -9 -7 -4 -2)
1969/12/31/18:00:08.454000,(-10 -12 -4 1 11 11 12 13)
1969/12/31/18:00:08.454000,(2 14 -3 5 -3 -1 -5 -9)
1969/12/31/18:00:08.463000,(-1 -1 -4 -3 -1 3 0 -3)
1969/12/31/18:00:08.463000,(-11 -11 -1 2 -7 -8 -7 -4)
1969/12/31/18:00:08.493000,(27 33 -3 -10 -5 -4 6 14)
1969/12/31/18:00:08.493000,(-28 -17 3 3 0 -7 -15 -18)
1969/12/31/18:00:08.495000,(-18 -12 -5 -4 -4 -8 -6 -10)
1969/12/31/18:00:08.495000,(24 20 7 6 8 11 14 20)
1969/12/31/18:00:08.501000,(-25 -26 -10 -10 -7 -3 -3 -11)
1969/12/31/18:00:08.501000,(21 25 9 8 6 10 10 16)
1969/12/31/18:00:08.502000,(9 -1 -2 -7 -5 -7 -5 3)
1969/12/31/18:00:08.502000,(-15 -12 -4 0 1 1 0 -3)
1969/12/31/18:00:08.514000,(-4 -9 -6 1 3 1 -6 -10)
1969/12/31/18:00:08.514000,(16 17 9 6 8 9 14 13)
1969/12/31/18:00:08.523000,(-7 -5 -1 1 -1 0 1 2)
1969/12/31/18:00:08.523000,(13 14 3 -5 -4 0 3 9)
1969/12/31/18:00:08.538000,(-39 -35 -4 -6 -7 -12 -10 -4)
1969/12/31/18:00:08.538000,(38 45 12 12 16 18 10 -3)
1969/12/31/18:00:08.540000,(-24 -21 -15 -31 -18 -7 -8 -11)
1969/12/31/18:00:08.540000,(12 10 3 7 7 4 7 11)
1969/12/31/18:00:08.561000,(-11 -6 5 20 -5 -8 -11 -15)
1969/12/31/18:00:08.561000,(-25 -22 4 19 9 -4 -5 -6)
1969/12/31/18:00:08.562000,(26 5 1 5 5 3 6 20)
1969/12/31/18:00:08.562000,(-23 -10 -14 -19 -12 -6 -18 -41)
1969/12/31/18:00:08.574000,(-5 0 -7 -15 -8 -2 -3 -5)
1969/12/31/18:00:08.574000,(-7 -13 -7 -5 -11 -6 -3 -1)
1969/12/31/18:00:08.584000,(-6 -3 -1 3 3 1 -1 -3)
1969/12/31/18:00:08.584000,(2 0 3 0 -5 -3 1 12)
1969/12/31/18:00:08.597000,(12 8 3 5 10 6 5 4)
1969/12/31/18:00:08.597000,(-2 -1 -10 -25 -35 -19 -10 -10)
1969/12/31/18:00:08.604000,(-1 -3 1 4 9 3 4 3)
1969/12/31/18:00:08.604000,(-1 -2 5 12 15 3 -1 2)
1969/12/31/18:00:08.621000,(17 20 11 7 15 13 10 7)
1969/12/31/18:00:08.621000,(4 -3 -3 1 7 5 4 14)
1969/12/31/18:00:08.623000,(-60 -51 -7 -5 -13 -10 -9 -22)
1969/12/31/18:00:08.623000,(88 59 11 8 -1 4 9 16)
1969/12/31/18:00:08.635000,(-13 -8 -3 -7 -3 -8 -11 -11)
1969/12/31/18:00:08.635000,(2 -8 -9 -8 -5 -3 -2 1)
1969/12/31/18:00:08.643000,(31 23 3 1 1 5 12 14)
1969/12/31/18:00:08.643000,(-25 -17 -8 -5 -6 -5 -5 -6)
1969/12/31/18:00:08.658000,(-3 -5 -2 -9 -6 -5 -3 0)
1969/12/31/18:00:08.658000,(1 -7 -10 -25 -51 -27 -8 -6)
1969/12/31/18:00:08.664000,(11 19 9 19 55 22 10 9)
1969/12/31/18:00:08.664000,(-9 -2 10 24 36 26 9 4)
1969/12/31/18:00:08.681000,(11 10 8 15 26 22 9 2)
1969/12/31/18:00:08.681000,(-9 -1 2 6 10 7 3 2)
1969/12/31/18:00:08.682000,(4 1 -4 -10 -30 -14 -5 -1)
1969/12/31/18:00:08.682000,(-12 -6 -5 -17 -18 -12 -1 3)
1969/12/31/18:00:08.694000,(3 0 -5 -9 -16 -15 -7 -4)
1969/12/31/18:00:08.694000,(-26 -18 -7 -1 -4 -4 -8 -10)
1969/12/31/18:00:08.704000,(49 32 10 -3 6 10 17 23)
1969/12/31/18:00:08.704000,(-11 -11 -8 -16 -10 -13 -17 -18)
1969/12/31/18:00:08.718000,(-10 0 5 12 -5 2 5 1)
1969/12/31/18:00:08.718000,(57 27 14 25 28 20 26 40)
1969/12/31/18:00:08.724000,(14 14 1 8 4 0 -1 4)
1969/12/31/18:00:08.724000,(-37 -28 -11 -6 -7 -6 -7 -15)
1969/12/31/18:00:08.741000,(11 5 -4 -15 -11 -7 -1 1)
1969/12/31/18:00:08.741000,(-8 -6 -6 -12 -1 -3 -2 -4)
1969/12/31/18:00:08.742000,(-21 -17 -1 5 1 1 -2 -7)
1969/12/31/18:00:08.742000,(24 17 6 5 0 2 9 16)
1969/12/31/18:00:08.771000,(10 7 -2 -2 -3 -3 -1 6)
1969/12/31/18:00:08.771000,(-14 -11 -4 3 4 -5 -10 -17)
1969/12/31/18:00:08.772000,(-19 -10 -5 -2 -7 -4 -5 -7)
1969/12/31/18:00:08.772000,(3 3 -1 3 4 4 8 10)
1969/12/31/18:00:08.778000,(-23 -13 -3 -1 0 1 -1 -3)
1969/12/31/18:00:08.778000,(-24 -8 -4 -5 -1 -5 -10 -18)
1969/12/31/18:00:08.784000,(-7 -12 -10 -9 -11 -9 -8 -3)
1969/12/31/18:00:08.784000,(-62 -21 3 7 1 -1 -2 -22)
1969/12/31/18:00:08.801000,(61 46 17 8 13 19 24 33)
1969/12/31/18:00:08.801000,(-12 -1 -1 -1 1 -1 -7 -9)
1969/12/31/18:00:08.802000,(4 7 -2 -4 -3 -1 -1 2)
1969/12/31/18:00:08.802000,(-19 -21 -9 -3 -4 -6 -7 -13)
1969/12/31/18:00:08.823000,(-6 -4 -1 -6 -5 -2 1 2)
1969/12/31/18:00:08.823000,(0 6 3 1 4 8 7 5)
1969/12/31/18:00:08.825000,(25 10 5 7 4 3 1 2)
1969/12/31/18:00:08.825000,(21 9 7 6 1 1 6 16)
1969/12/31/18:00:08.837000,(-21 -15 -8 -7 -10 -12 -16 -21)
1969/12/31/18:00:08.837000,(25 9 -6 -1 15 6 5 15)
1969/12/31/18:00:08.844000,(-40 -23 -1 -8 -10 10 14 2)
1969/12/31/18:00:08.844000,(20 8 1 -38 -25 -1 2 5)
1969/12/31/18:00:08.861000,(23 9 -2 30 9 -8 -3 2)
1969/12/31/18:00:08.861000,(-15 0 8 25 19 2 -8 -18)
1969/12/31/18:00:08.862000,(10 9 10 18 15 5 1 2)
1969/12/31/18:00:08.862000,(24 7 -1 1 0 -4 -2 12)
1969/12/31/18:00:08.883000,(-39 -18 -10 -25 -16 -5 -4 -15)
1969/12/31/18:00:08.883000,(4 -2 -5 -17 -15 -6 -3 -4)
1969/12/31/18:00:08.885000,(2 4 -2 3 -2 -3 -1 -1)
1969/12/31/18:00:08.885000,(2 2 1 6 6 4 -1 1)
1969/12/31/18:00:08.898000,(-7 -5 -2 -5 -2 -9 -11 -8)
1969/12/31/18:00:08.898000,(-9 -4 0 -1 -6 -7 -6 -6)
1969/12/31/18:00:08.906000,(-7 -13 -14 -17 2 12 11 7)
1969/12/31/18:00:08.906000,(12 9 -7 -3 -1 -7 -4 -1)
1969/12/31/18:00:08.921000,(13 10 15 27 8 11 11 16)
1969/12/31/18:00:08.921000,(-22 -5 11 11 -3 -4 -10 -15)
1969/12/31/18:00:08.922000,(2 3 5 7 -4 -12 -12 -10)
1969/12/31/18:00:08.922000,(-3 -7 -8 -7 7 6 10 10)
1969/12/31/18:00:08.943000,(4 -5 -7 -18 -15 -4 -1 4)
1969/12/31/18:00:08.943000,(16 8 0 -13 1 7 13 14)
1969/12/31/18:00:08.945000,(-13 -6 -1 5 -6 -7 -7 -13)
1969/12/31/18:00:08.945000,(-6 -2 2 -2 -5 -7 -7 -3)
1969/12/31/18:00:08.966000,(-9 -9 -8 -3 -8 -5 -4 -10)
1969/12/31/18:00:08.966000,(2 -3 3 24 25 14 9 8)
1969/12/31/18:00:08.967000,(5 4 0 -13 10 5 2 5)
1969/12/31/18:00:08.967000,(-4 -1 -2 3 -8 -1 -2 -4)
1969/12/31/18:00:08.981000,(3 7 10 -9 -14 -3 0 0)
1969/12/31/18:00:08.981000,(7 10 26 22 -14 1 3 6)
1969/12/31/18:00:08.982000,(4 0 -16 23 28 -1 -7 -2)
1969/12/31/18:00:08.982000,(-11 -12 -5 9 16 1 -6 -9)
1969/12/31/18:00:09.003000,(-7 2 17 -3 13 8 0 -5)
1969/12/31/18:00:09.003000,(-1 -4 -18 -12 -6 -4 -1 -1)
1969/12/31/18:00:09.005000,(0 -8 -26 -22 -38 -15 -6 -2)
1969/12/31/18:00:09.005000,(-14 -15 -11 -19 -21 -16 -8 -7)
1969/12/31/18:00:09.017000,(-1 2 15 3 9 9 6 1)
1969/12/31/18:00:09.017000,(10 21 40 -3 15 16 10 9)
1969/12/31/18:00:09.026000,(13 13 -7 8 -5 3 6 11)
1969/12/31/18:00:09.026000,(5 -8 -23 -8 -18 -14 -4 3)
1969/12/31/18:00:09.048000,(-20 -21 -22 -6 3 -15 -15 -15)
1969/12/31/18:00:09.048000,(-3 -2 3 -3 -9 -6 -7 -5)
1969/12/31/18:00:09.050000,(1 11 30 -20 1 14 9 1)
1969/12/31/18:00:09.050000,(12 18 23 4 14 19 12 11)
1969/12/31/18:00:09.063000,(5 -4 -19 29 9 -1 0 3)
1969/12/31/18:00:09.063000,(-13 -15 -12 0 -3 -16 -14 -12)
1969/12/31/18:00:09.065000,(-9 -7 3 -4 -13 -11 -6 -7)
1969/12/31/18:00:09.065000,(2 3 -6 0 4 5 7 4)
1969/12/31/18:00:09.077000,(7 12 28 -15 2 16 9 6)
1969/12/31/18:00:09.077000,(4 -12 -56 1 3 -7 -1 4)
1969/12/31/18:00:09.086000,(-11 -18 -9 4 -11 -16 -10 -9)
1969/12/31/18:00:09.086000,(-12 3 21 7 -2 -6 -8 -11)
1969/12/31/18:00:09.101000,(3 3 -9 -2 4 -1 -1 1)
1969/12/31/18:00:09.101000,(2 0 8 -27 -2 9 5 3)
1969/12/31/18:00:09.102000,(6 11 18 18 9 10 3 5)
1969/12/31/18:00:09.102000,(9 5 -1 24 9 8 4 6)
1969/12/31/18:00:09.123000,(2 -2 -12 -8 -7 -8 -5 -3)
1969/12/31/18:00:09.123000,(-11 -14 -18 -15 -12 -9 -7 -8)
1969/12/31/18:00:09.125000,(-3 -3 -2 1 -2 -11 -6 -4)
1969/12/31/18:00:09.125000,(-5 -3 7 0 -3 -5 -2 -2)
1969/12/31/18:00:09.137000,(9 19 43 16 11 13 11 7)
1969/12/31/18:00:09.137000,(4 -6 -48 -2 2 8 3 3)
1969/12/31/18:00:09.146000,(-8 -19 -20 -8 -7 -17 -10 -7)
1969/12/31/18:00:09.146000,(-11 1 -3 0 -4 -1 -4 -8)
1969/12/31/18:00:09.161000,(1 -8 -11 -8 -9 -6 -2 2)
1969/12/31/18:00:09.161000,(-3 9 33 0 -11 -5 -3 -3)
1969/12/31/18:00:09.163000,(6 11 2 3 12 11 4 2)
1969/12/31/18:00:09.163000,(6 -4 -6 -8 3 0 -1 4)
1969/12/31/18:00:09.183000,(-7 -4 -1 17 1 -2 -5 -4)
1969/12/31/18:00:09.183000,(8 10 15 4 0 8 5 5)
1969/12/31/18:00:09.185000,(-4 -3 -8 -5 -5 5 0 -1)
1969/12/31/18:00:09.185000,(6 3 -2 32 19 -2 0 2)
1969/12/31/18:00:09.197000,(-6 -8 -29 -9 1 6 -3 -7)
1969/12/31/18:00:09.197000,(1 -11 -21 -11 5 -4 -1 2)
1969/12/31/18:00:09.206000,(-18 -1 22 -30 -22 -13 -10 -15)
1969/12/31/18:00:09.206000,(4 7 5 -9 -7 4 5 3)
1969/12/31/18:00:09.220000,(5 3 6 1 3 3 2 5)
1969/12/31/18:00:09.220000,(3 10 23 15 1 0 0 1)
1969/12/31/18:00:09.222000,(7 0 -8 7 8 8 9 5)
1969/12/31/18:00:09.222000,(-4 -5 8 -12 -8 -11 -4 -4)
1969/12/31/18:00:09.243000,(2 8 10 0 -12 -5 -1 0)
1969/12/31/18:00:09.243000,(3 -16 -28 3 -14 -15 -3 1)
1969/12/31/18:00:09.245000,(-16 -8 -12 -37 2 -2 -5 -8)
1969/12/31/18:00:09.245000,(3 2 9 25 14 11 3 3)
1969/12/31/18:00:09.257000,(2 3 10 12 2 1 0 0)
1969/12/31/18:00:09.257000,(1 0 5 34 19 4 -1 0)
1969/12/31/18:00:09.266000,(4 5 13 6 -3 5 2 4)
1969/12/31/18:00:09.266000,(4 5 -5 -2 -1 3 1 1)
1969/12/31/18:00:09.280000,(-5 -9 -20 -39 -18 -8 -6 -4)
1969/12/31/18:00:09.280000,(-5 2 8 -15 -7 3 1 -4)
1969/12/31/18:00:09.282000,(8 1 -3 18 6 2 3 7)
1969/12/31/18:00:09.282000,(-4 -3 -6 -32 -12 -3 -3 -2)
1969/12/31/18:00:09.304000,(-3 -5 -7 -4 -5 -2 0 -3)
1969/12/31/18:00:09.304000,(4 9 -1 -11 0 13 5 2)
1969/12/31/18:00:09.305000,(11 6 27 31 23 9 4 6)
1969/12/31/18:00:09.305000,(-10 -2 2 -12 -14 -8 -8 -9)
1969/12/31/18:00:09.326000,(-3 -9 -6 1 9 1 2 -3)
1969/12/31/18:00:09.326000,(-2 2 4 -7 -6 -4 -2 0)
1969/12/31/18:00:09.327000,(5 6 -2 -11 -5 3 5 1)
1969/12/31/18:00:09.327000,(9 5 5 24 12 6 3 7)
1969/12/31/18:00:09.341000,(-4 -3 -4 -3 3 -7 -6 -3)
1969/12/31/18:00:09.341000,(-4 0 10 -7 -4 -4 -6 -5)
1969/12/31/18:00:09.342000,(0 5 -1 -4 -5 -3 0 3)
1969/12/31/18:00:09.342000,(-12 -5 6 16 6 1 0 -3)
1969/12/31/18:00:09.363000,(16 1 -20 -25 -6 3 5 13)
1969/12/31/18:00:09.363000,(6 -1 -3 10 7 2 2 4)
1969/12/31/18:00:09.365000,(-4 2 -2 4 -1 1 -2 -6)
1969/12/31/18:00:09.365000,(-3 -16 -2 4 2 -6 -3 -3)
1969/12/31/18:00:09.377000,(-8 3 16 20 8 -6 -8 -9)
1969/12/31/18:00:09.377000,(-5 0 -4 -9 -4 -3 0 -2)
1969/12/31/18:00:09.386000,(11 3 0 -1 2 -2 1 7)
1969/12/31/18:00:09.386000,(-1 -2 -13 -11 -4 1 2 0)
1969/12/31/18:00:09.400000,(-10 -4 -1 9 -1 -7 -5 -6)
1969/12/31/18:00:09.400000,(5 1 3 -4 3 0 2 3)
1969/12/31/18:00:09.408000,(-7 -1 7 6 1 2 -4 -5)
1969/12/31/18:00:09.408000,(7 6 0 2 -1 2 3 3)
1969/12/31/18:00:09.423000,(2 -4 -7 -6 -5 -1 1 1)
1969/12/31/18:00:09.423000,(-9 -1 2 -5 -4 -3 -4 -4)
1969/12/31/18:00:09.425000,(-5 -2 0 7 2 0 -4 -3)
1969/12/31/18:00:09.425000,(4 -3 -8 -4 -1 0 2 5)
1969/12/31/18:00:09.437000,(-8 -7 0 -3 -2 -1 0 -5)
1969/12/31/18:00:09.437000,(-3 -5 -7 -5 -1 -4 -1 -3)
1969/12/31/18:00:09.453000,(3 0 3 15 3 0 2 2)
1969/12/31/18:00:09.453000,(-1 1 1 -10 -5 -2 -1 -1)
1969/12/31/18:00:09.460000,(-1 3 7 7 2 -1 1 -2)
1969/12/31/18:00:09.460000,(-2 -1 2 2 -2 -2 -4 -2)
1969/12/31/18:00:09.462000,(-5 -4 -9 -7 -3 -4 -3 -3)
1969/12/31/18:00:09.462000,(0 0 -3 -3 -3 1 0 2)
1969/12/31/18:00:09.483000,(4 1 -1 2 0 0 2 3)
1969/12/31/18:00:09.483000,(-3 -3 0 3 -3 -4 -3 -2)
1969/12/31/18:00:09.485000,(0 -2 -3 -4 -2 -1 -2 -2)
1969/12/31/18:00:09.485000,(0 3 1 1 -1 1 2 3)
1969/12/31/18:00:09.496000,(-1 -4 -6 -5 -2 0 1 0)
1969/12/31/18:00:09.496000,(-2 -1 -3 -11 -20 -7 -2 -3)
1969/12/31/18:00:09.506000,(0 -2 -6 -7 13 0 0 0)
1969/12/31/18:00:09.506000,(-1 -1 2 -7 -4 1 -2 -4)
1969/12/31/18:00:09.520000,(1 1 10 53 24 7 2 1)
1969/12/31/18:00:09.520000,(-2 -1 3 7 -1 0 1 0)
1969/12/31/18:00:09.526000,(1 -4 -7 -4 -11 -4 2 0)
1969/12/31/18:00:09.526000,(-1 -2 -4 -9 0 -2 -2 -1)
1969/12/31/18:00:09.543000,(-2 1 -8 -29 -11 1 2 1)
1969/12/31/18:00:09.543000,(-3 -4 -8 -15 -9 -3 0 -1)
1969/12/31/18:00:09.544000,(8 3 5 2 -9 -3 -2 3)
1969/12/31/18:00:09.544000,(1 5 10 22 20 9 1 1)
1969/12/31/18:00:09.556000,(2 0 0 1 1 2 0 0)
1969/12/31/18:00:09.556000,(0 -1 3 7 6 4 1 -1)
1969/12/31/18:00:09.565000,(-4 -2 -8 -14 -11 -2 -3 -3)
1969/12/31/18:00:09.565000,(-1 -1 -5 -9 -10 -3 -3 -4)
1969/12/31/18:00:09.595000,(5 1 -2 0 0 1 1 5)
1969/12/31/18:00:09.595000,(1 1 2 -4 6 1 -1 -1)
1969/12/31/18:00:09.597000,(0 -1 -2 -1 -2 0 1 -1)
1969/12/31/18:00:09.597000,(-2 -1 0 5 0 1 -2 -3)
1969/12/31/18:00:09.603000,(-3 -2 1 -7 -5 -1 -3 -3)
1969/12/31/18:00:09.603000,(2 -1 -3 -5 0 2 1 1)
1969/12/31/18:00:09.604000,(-2 1 0 2 -14 0 1 0)
1969/12/31/18:00:09.604000,(-2 -3 -6 1 21 3 1 -1)
1969/12/31/18:00:09.616000,(-2 -1 -1 -8 -6 -7 -4 -4)
1969/12/31/18:00:09.616000,(-2 0 -1 -2 4 -1 -3 -1)
1969/12/31/18:00:09.632000,(-5 -4 6 10 1 -2 -3 -4)
1969/12/31/18:00:09.632000,(-1 0 0 -7 -13 -3 -2 -1)
1969/12/31/18:00:09.640000,(-2 -3 -5 -8 -2 0 -1 -2)
1969/12/31/18:00:09.640000,(6 4 4 6 4 6 5 6)
1969/12/31/18:00:09.647000,(1 1 0 1 6 1 2 2)
1969/12/31/18:00:09.647000,(-1 -3 -6 -7 -5 -1 1 0)
1969/12/31/18:00:09.663000,(-3 0 1 -2 -2 -2 -1 0)
1969/12/31/18:00:09.663000,(-2 -1 1 3 1 -1 -2 -5)
1969/12/31/18:00:09.665000,(2 1 -4 -3 4 1 2 2)
1969/12/31/18:00:09.665000,(-1 1 2 1 -1 -2 -1 -1)
1969/12/31/18:00:09.687000,(0 2 1 -1 -3 -2 -1 0)
1969/12/31/18:00:09.687000,(-1 -2 -1 -2 -1 -3 0 -1)
1969/12/31/18:00:09.689000,(0 -1 -1 1 3 1 1 -1)
1969/12/31/18:00:09.689000,(2 -1 1 1 -4 0 1 -1)
1969/12/31/18:00:09.700000,(-1 -2 -2 -3 -3 0 -1 -4)
1969/12/31/18:00:09.700000,(-2 -3 -3 1 0 -4 -1 -1)
1969/12/31/18:00:09.707000,(0 1 3 2 5 3 -1 0)
1969/12/31/18:00:09.707000,(0 2 2 1 -2 -6 -3 -2)
1969/12/31/18:00:09.731000,(-2 -2 -2 -1 0 0 2 -1)
1969/12/31/18:00:09.731000,(-2 1 2 2 3 -3 -1 -1)
1969/12/31/18:00:09.733000,(-1 -1 -1 -1 -1 -1 -1 0)
1969/12/31/18:00:09.733000,(2 0 -3 -1 -1 1 4 4)
1969/12/31/18:00:09.746000,(-4 -4 -2 0 -4 -2 -4 -3)
1969/12/31/18:00:09.746000,(0 0 1 2 2 0 -1 0)
1969/12/31/18:00:09.747000,(-1 -3 0 0 2 0 -1 -2)
1969/12/31/18:00:09.747000,(1 1 -4 -4 -3 -2 1 1)
1969/12/31/18:00:09.760000,(1 1 -1 0 0 0 0 -1)
1969/12/31/18:00:09.760000,(-3 -2 1 1 -3 -2 -4 -2)
1969/12/31/18:00:09.767000,(0 -1 -2 0 0 -1 0 0)
1969/12/31/18:00:09.767000,(-1 1 2 1 2 1 -1 -2)
1969/12/31/18:00:09.783000,(-1 0 0 -1 0 2 1 0)
1969/12/31/18:00:09.783000,(0 0 -1 -1 -1 -1 1 0)
1969/12/31/18:00:09.785000,(0 0 -1 -2 1 1 0 -2)
1969/12/31/18:00:09.785000,(-1 -2 -1 -2 -1 -2 -4 -1)
1969/12/31/18:00:09.806000,(2 -1 1 -1 -2 -1 4 1)
1969/12/31/18:00:09.806000,(0 0 0 -1 0 0 0 -2)
1969/12/31/18:00:09.807000,(0 -1 -1 1 -1 -2 -1 -1)
1969/12/31/18:00:09.807000,(-3 -2 1 -1 -1 0 -1 -1)
1969/12/31/18:00:09.820000,(-2 0 1 0 0 -2 0 0)
1969/12/31/18:00:09.820000,(-2 0 -1 1 0 -2 -2 -1)
1969/12/31/18:00:09.827000,(-1 -2 0 -2 0 -2 0 1)
1969/12/31/18:00:09.827000,(-1 -1 -1 -1 -1 -1 -1 -1)
1969/12/31/18:00:09.843000,(3 0 -2 -2 -1 0 0 1)
1969/12/31/18:00:09.843000,(-2 -1 0 1 -1 -1 -1 -1)
1969/12/31/18:00:09.845000,(-2 -1 -2 -1 0 -1 1 -1)
1969/12/31/18:00:09.845000,(2 1 -1 -3 -3 0 2 1)
1969/12/31/18:00:09.873000,(0 1 -2 1 0 -1 -5 -1)
1969/12/31/18:00:09.873000,(1 -1 -1 -2 -1 1 2 1)
1969/12/31/18:00:09.875000,(-1 -2 -3 0 0 0 -1 -2)
1969/12/31/18:00:09.875000,(-1 -3 -1 0 0 -3 -1 -2)
1969/12/31/18:00:09.879000,(-1 1 1 -2 -1 -2 1 1)
1969/12/31/18:00:09.879000,(1 1 1 0 -1 -1 0 2)
1969/12/31/18:00:09.894000,(1 1 1 1 0 1 0 -1)
1969/12/31/18:00:09.894000,(-2 -4 -2 1 -1 -1 0 -3)
1969/12/31/18:00:09.903000,(1 1 0 2 3 2 -1 1)
1969/12/31/18:00:09.903000,(-1 0 0 -2 -3 -1 0 -1)
1969/12/31/18:00:09.905000,(-2 -1 0 -2 1 -1 0 2)
1969/12/31/18:00:09.905000,(0 0 -2 1 0 -1 -2 0)
1969/12/31/18:00:09.926000,(2 -2 -2 -1 -2 1 0 1)
1969/12/31/18:00:09.926000,(0 0 -1 0 0 2 0 0)
1969/12/31/18:00:09.927000,(-3 -1 1 1 0 -1 -3 -2)
1969/12/31/18:00:09.927000,(1 0 1 -1 -1 1 4 3)
1969/12/31/18:00:09.939000,(-1 -1 0 0 1 -2 -3 -2)
1969/12/31/18:00:09.939000,(0 -1 -1 -1 1 0 0 -1)
1969/12/31/18:00:09.948000,(-1 -1 -1 -2 -1 -1 -1 0)
1969/12/31/18:00:09.948000,(0 0 0 -1 -1 -1 -2 -2)
1969/12/31/18:00:09.963000,(-2 0 -2 0 0 2 1 -1)
1969/12/31/18:00:09.963000,(-1 -2 -1 0 1 1 -2 0)
1969/12/31/18:00:09.965000,(0 -1 0 -1 2 -1 1 0)
1969/12/31/18:00:09.965000,(0 1 -1 -1 0 -1 -2 3)
1969/12/31/18:00:09.986000,(1 -1 -1 -2 -1 -1 1 2)
1969/12/31/18:00:09.986000,(-1 0 0 1 0 -2 0 -1)
1969/12/31/18:00:09.987000,(-1 0 -2 0 -1 0 0 0)
1969/12/31/18:00:09.987000,(-2 -2 0 1 1 -1 0 -2)
1969/12/31/18:00:10.009000,(0 -1 0 0 1 -1 -2 -1)
1969/12/31/18:00:10.009000,(-1 0 0 0 -1 -1 -1 -3)
1969/12/31/18:00:10.011000,(1 0 -1 -1 -2 1 3 1)
1969/12/31/18:00:10.011000,(1 -1 -1 0 -2 -2 -3 -1)
1969/12/31/18:00:10.024000,(1 0 0 0 -1 0 2 1)
1969/12/31/18:00:10.024000,(-1 -1 0 1 -1 -2 1 0)
1969/12/31/18:00:10.025000,(-1 0 -1 -2 -1 0 -2 0)
1969/12/31/18:00:10.025000,(-2 1 -2 -1 -1 0 -1 -2)
1969/12/31/18:00:10.045000,(-1 0 0 -2 0 -2 -3 -2)
1969/12/31/18:00:10.046000,(-1 -1 -1 -1 -2 0 -2 -1)
1969/12/31/18:00:10.047000,(-2 -1 1 1 -1 -3 -3 -1)
1969/12/31/18:00:10.047000,(-1 0 -2 0 1 4 2 2)
1969/12/31/18:00:10.059000,(0 0 1 2 2 -2 -2 1)
1969/12/31/18:00:10.059000,(-3 -1 -1 -3 -3 -4 -1 -1)
1969/12/31/18:00:10.068000,(-1 1 -2 0 -1 -2 -2 -3)
1969/12/31/18:00:10.068000,(0 -1 0 -1 -2 -3 0 -1)
1969/12/31/18:00:10.083000,(0 -1 -1 -1 -1 -1 -1 -1)
1969/12/31/18:00:10.083000,(0 1 0 -1 -1 -1 -1 0)
1969/12/31/18:00:10.085000,(0 1 -1 0 0 1 -1 1)
1969/12/31/18:00:10.085000,(2 0 -1 0 -1 -1 0 1)
1969/12/31/18:00:10.106000,(-2 -1 0 -2 -1 0 1 0)
1969/12/31/18:00:10.106000,(0 0 -1 0 -2 -1 1 2)
1969/12/31/18:00:10.108000,(1 -2 -1 -1 -1 -1 -1 -1)
1969/12/31/18:00:10.108000,(0 0 -1 0 0 -1 1 -2)
1969/12/31/18:00:10.129000,(-2 0 -2 -1 -1 0 -2 -2)
1969/12/31/18:00:10.129000,(0 -2 -1 0 -1 0 -1 0)
1969/12/31/18:00:10.131000,(0 -1 -2 0 -1 0 0 1)
1969/12/31/18:00:10.131000,(-1 1 0 -1 -2 -1 1 3)
1969/12/31/18:00:10.151000,(0 0 -1 0 -3 -2 -1 -3)
1969/12/31/18:00:10.151000,(-1 0 -3 -1 0 1 -1 -2)
1969/12/31/18:00:10.153000,(-1 -1 0 -1 0 0 1 0)
1969/12/31/18:00:10.153000,(-1 0 0 -3 0 0 -2 -2)
1969/12/31/18:00:10.165000,(0 0 -1 0 0 -1 0 -1)
1969/12/31/18:00:10.165000,(0 0 0 -1 0 2 1 2)
1969/12/31/18:00:10.167000,(0 -1 -2 1 0 -2 -2 -2)
1969/12/31/18:00:10.167000,(-1 -1 0 0 -1 0 -1 0)
1969/12/31/18:00:10.189000,(-1 -1 2 0 0 0 2 0)
1969/12/31/18:00:10.189000,(-1 -2 -1 -1 1 -1 -2 -1)
1969/12/31/18:00:10.190000,(-1 0 -1 0 -1 -2 0 0)
1969/12/31/18:00:10.190000,(0 0 0 1 0 0 0 -1)
1969/12/31/18:00:10.203000,(0 0 -2 0 -1 0 0 1)
1969/12/31/18:00:10.203000,(1 1 0 1 -1 -2 -1 -1)
1969/12/31/18:00:10.205000,(0 0 -1 0 -1 1 -1 -2)
1969/12/31/18:00:10.205000,(-1 -1 0 0 -1 -2 0 -1)
1969/12/31/18:00:10.205000,(-3 0 -1 -1 -3 0 -2 -1)
1969/12/31/18:00:10.205000,(-1 -1 -1 -3 -2 2 1 0)
1969/12/31/18:00:10.221000,(2 2 6 3 1 2 1 1)
1969/12/31/18:00:10.221000,(4 0 -2 5 4 1 0 2)
1969/12/31/18:00:10.223000,(-7 -8 1 -9 -6 -5 -4 -6)
1969/12/31/18:00:10.223000,(2 2 -8 0 2 0 0 1)
1969/12/31/18:00:10.244000,(-5 -7 0 -12 -5 -6 -4 -2)
1969/12/31/18:00:10.244000,(-2 -3 -7 -2 -15 -3 -2 -1)
1969/12/31/18:00:10.246000,(0 -2 -3 2 13 1 0 -1)
1969/12/31/18:00:10.246000,(-3 4 11 7 -6 2 0 -5)
1969/12/31/18:00:10.258000,(4 -3 -16 -22 2 -2 -1 2)
1969/12/31/18:00:10.258000,(-5 2 1 -3 -4 -2 -3 -4)
1969/12/31/18:00:10.265000,(2 9 23 25 14 15 10 6)
1969/12/31/18:00:10.265000,(13 9 5 48 21 -3 -2 6)
1969/12/31/18:00:10.282000,(-19 -9 -3 -9 -33 0 -3 -12)
1969/12/31/18:00:10.282000,(11 -13 -31 14 45 -4 -1 9)
1969/12/31/18:00:10.283000,(-27 -13 5 -46 -37 -13 -15 -19)
1969/12/31/18:00:10.283000,(3 5 -13 -9 1 1 3 2)
1969/12/31/18:00:10.304000,(5 6 6 -25 -13 5 5 4)
1969/12/31/18:00:10.304000,(16 8 -18 -66 -48 -3 1 9)
1969/12/31/18:00:10.306000,(3 -8 0 66 35 0 0 2)
1969/12/31/18:00:10.306000,(-14 -10 7 -37 6 1 -7 -12)
1969/12/31/18:00:10.317000,(3 6 32 112 36 12 5 3)
1969/12/31/18:00:10.317000,(-5 3 18 14 15 2 1 -4)
1969/12/31/18:00:10.326000,(0 -6 -21 -65 -22 5 7 4)
1969/12/31/18:00:10.326000,(3 12 9 -87 -58 -15 -6 1)
1969/12/31/18:00:10.342000,(8 5 -5 75 0 -11 -6 2)
1969/12/31/18:00:10.342000,(-15 -11 7 19 65 15 0 -7)
1969/12/31/18:00:10.344000,(-1 -2 2 1 -7 -4 -6 -5)
1969/12/31/18:00:10.344000,(11 8 -2 -35 -42 9 17 12)
1969/12/31/18:00:10.364000,(13 -1 -42 -53 26 -5 0 8)
1969/12/31/18:00:10.364000,(-14 -10 20 45 -9 -5 -8 -9)
1969/12/31/18:00:10.365000,(-25 -23 -50 -97 -15 -13 -10 -12)
1969/12/31/18:00:10.365000,(-2 -12 -33 8 -29 -10 -5 0)
1969/12/31/18:00:10.385000,(9 13 71 82 71 17 6 5)
1969/12/31/18:00:10.385000,(-7 1 7 -33 -42 0 0 -3)
1969/12/31/18:00:10.386000,(13 18 21 -46 17 -4 3 7)
1969/12/31/18:00:10.386000,(4 5 -5 65 71 14 3 4)
1969/12/31/18:00:10.400000,(-6 -12 -17 -20 2 -1 0 -1)
1969/12/31/18:00:10.400000,(-1 -4 -16 -80 -15 -8 -4 -3)
1969/12/31/18:00:10.401000,(5 4 -20 -45 -110 -14 5 5)
1969/12/31/18:00:10.401000,(3 -9 -8 10 25 -2 1 3)
1969/12/31/18:00:10.423000,(-15 -1 45 64 14 6 -4 -8)
1969/12/31/18:00:10.423000,(2 3 26 60 35 9 2 1)
1969/12/31/18:00:10.424000,(6 6 4 1 16 5 -1 2)
1969/12/31/18:00:10.424000,(-4 -11 -33 -64 -10 -6 -7 -4)
1969/12/31/18:00:10.447000,(0 5 7 62 -17 0 -1 -1)
1969/12/31/18:00:10.447000,(-2 0 -5 -45 10 -2 -1 -3)
1969/12/31/18:00:10.448000,(5 8 12 78 22 4 2 4)
1969/12/31/18:00:10.448000,(-5 -10 -1 -43 -3 -3 0 -4)
1969/12/31/18:00:10.461000,(-4 -2 -29 -100 -56 -9 -3 -3)
1969/12/31/18:00:10.461000,(10 12 -1 14 -22 -2 3 8)
1969/12/31/18:00:10.461000,(8 2 -3 -2 25 5 0 4)
1969/12/31/18:00:10.461000,(-7 7 49 78 29 14 -1 -5)
1969/12/31/18:00:10.483000,(0 -5 -25 -63 -11 -1 -2 -4)
1969/12/31/18:00:10.483000,(5 5 3 24 7 2 5 5)
1969/12/31/18:00:10.484000,(-3 -8 -2 33 10 -3 -1 -3)
1969/12/31/18:00:10.484000,(-8 -9 -6 -40 -33 -17 -6 -8)
1969/12/31/18:00:10.507000,(-1 -1 -9 -20 -5 -7 -1 -2)
1969/12/31/18:00:10.507000,(-2 -4 3 39 16 2 -2 -3)
1969/12/31/18:00:10.508000,(5 3 7 6 3 3 3 3)
1969/12/31/18:00:10.508000,(-1 -1 4 15 -2 -3 0 -1)
1969/12/31/18:00:10.521000,(0 -4 -11 -20 4 -1 -2 2)
1969/12/31/18:00:10.521000,(-1 1 -2 -14 -17 -2 -1 1)
1969/12/31/18:00:10.528000,(-1 0 2 19 -1 -2 -1 -1)
1969/12/31/18:00:10.528000,(0 -1 2 10 10 0 -3 -2)
1969/12/31/18:00:10.543000,(-2 -4 -5 -13 -3 -3 -1 0)
1969/12/31/18:00:10.543000,(-1 1 -4 -12 -21 -5 -1 -1)
1969/12/31/18:00:10.544000,(5 3 -1 4 11 6 1 4)
1969/12/31/18:00:10.544000,(-2 1 11 34 7 0 -2 -1)
1969/12/31/18:00:10.566000,(-2 -4 -9 -52 -15 -4 -2 -1)
1969/12/31/18:00:10.566000,(2 4 9 34 5 1 2 0)
1969/12/31/18:00:10.567000,(3 2 -1 13 12 4 1 1)
1969/12/31/18:00:10.567000,(-3 -3 0 4 2 1 0 0)
1969/12/31/18:00:10.583000,(-4 0 -4 -11 -11 -2 -2 -2)
1969/12/31/18:00:10.583000,(-1 -1 -6 -14 -5 1 0 -1)
1969/12/31/18:00:10.584000,(-2 0 2 6 0 2 0 -1)
1969/12/31/18:00:10.584000,(0 -2 -3 -8 -7 -1 -2 2)
1969/12/31/18:00:10.603000,(-1 -1 0 4 7 -1 -2 -2)
1969/12/31/18:00:10.603000,(0 0 0 2 2 -2 1 3)
1969/12/31/18:00:10.604000,(1 0 2 6 1 -2 -2 -1)
1969/12/31/18:00:10.604000,(-1 0 -5 -3 -2 -2 -2 0)
1969/12/31/18:00:10.626000,(-2 2 -1 -28 -3 4 0 -4)
1969/12/31/18:00:10.626000,(-4 -4 1 29 2 -3 -3 -4)
1969/12/31/18:00:10.627000,(-5 -4 -6 -25 -12 -2 1 0)
1969/12/31/18:00:10.627000,(4 3 12 42 26 12 5 2)
1969/12/31/18:00:10.640000,(6 5 3 5 10 4 -1 2)
1969/12/31/18:00:10.640000,(6 2 -2 -17 -15 3 3 9)
1969/12/31/18:00:10.641000,(-2 2 4 -2 6 4 -3 -4)
1969/12/31/18:00:10.641000,(4 1 -7 -18 -9 0 -4 0)
1969/12/31/18:00:10.671000,(-10 -4 -1 -4 -3 -1 2 -2)
1969/12/31/18:00:10.671000,(-6 -6 -5 -6 -6 -8 -2 -7)
1969/12/31/18:00:10.672000,(-2 -3 2 19 3 -6 0 2)
1969/12/31/18:00:10.672000,(-2 1 -4 -11 -8 -9 -10 -12)
1969/12/31/18:00:10.686000,(4 0 -2 9 4 0 1 1)
1969/12/31/18:00:10.686000,(-6 -4 -10 -18 -11 -5 -8 -6)
1969/12/31/18:00:10.687000,(-2 -5 -10 -29 -15 -1 0 1)
1969/12/31/18:00:10.687000,(5 8 5 -2 5 8 7 5)
1969/12/31/18:00:10.702000,(4 -1 -19 -92 -30 -7 0 5)
1969/12/31/18:00:10.702000,(2 8 36 88 47 12 4 0)
1969/12/31/18:00:10.703000,(-8 5 41 109 64 12 -5 -10)
1969/12/31/18:00:10.703000,(1 2 1 -18 -6 1 3 4)
1969/12/31/18:00:10.723000,(0 -5 -14 -41 -16 -4 1 2)
1969/12/31/18:00:10.723000,(-6 -9 -29 -77 -33 -10 -1 -2)
1969/12/31/18:00:10.724000,(10 4 -10 -31 -16 -3 1 6)
1969/12/31/18:00:10.724000,(-13 -8 -4 0 -2 -7 -5 -4)
1969/12/31/18:00:10.746000,(-20 -13 -3 13 1 -1 -5 -9)
1969/12/31/18:00:10.746000,(51 34 11 -1 12 19 20 26)
1969/12/31/18:00:10.747000,(14 0 -6 0 -10 -14 -9 1)
1969/12/31/18:00:10.747000,(0 -6 -6 -10 -5 -4 0 -3)
1969/12/31/18:00:10.760000,(-10 -6 2 15 0 -2 -2 -3)
1969/12/31/18:00:10.761000,(-18 -2 11 17 10 4 -1 -8)
1969/12/31/18:00:10.761000,(4 3 -5 -23 -3 3 8 6)
1969/12/31/18:00:10.761000,(-7 -4 -8 -26 -8 -4 -1 0)
1969/12/31/18:00:10.783000,(5 2 6 43 9 2 2 2)
1969/12/31/18:00:10.783000,(-4 -5 -4 -42 -3 0 -4 -3)
1969/12/31/18:00:10.784000,(-6 0 0 27 -7 0 -2 -3)
1969/12/31/18:00:10.784000,(-48 -11 10 25 6 -8 -3 -15)
1969/12/31/18:00:10.797000,(92 37 23 37 36 33 45 61)
1969/12/31/18:00:10.797000,(-53 -40 -30 -33 -25 -32 -43 -48)
1969/12/31/18:00:10.805000,(-5 -3 -10 -30 -14 -4 -3 -4)
1969/12/31/18:00:10.805000,(-2 -10 -5 -6 -6 2 6 8)
1969/12/31/18:00:10.820000,(26 25 7 16 9 6 7 5)
1969/12/31/18:00:10.820000,(-5 -2 -5 -7 -7 -5 0 1)
1969/12/31/18:00:10.821000,(-13 -7 -4 -14 -1 6 1 -8)
1969/12/31/18:00:10.821000,(-6 -10 -16 -23 -11 -2 -3 -5)
1969/12/31/18:00:10.844000,(-13 -2 2 0 1 -10 -7 -5)
1969/12/31/18:00:10.844000,(20 7 2 -7 -18 -2 3 9)
1969/12/31/18:00:10.845000,(-29 -4 14 62 29 0 -5 -14)
1969/12/31/18:00:10.845000,(22 13 27 43 11 7 4 10)
1969/12/31/18:00:10.859000,(-19 -15 -16 -61 -37 -21 -17 -18)
1969/12/31/18:00:10.859000,(-2 4 8 43 13 6 3 2)
1969/12/31/18:00:10.865000,(7 0 3 28 25 8 6 4)
1969/12/31/18:00:10.866000,(11 5 4 21 26 11 5 3)
1969/12/31/18:00:10.880000,(0 1 -11 -31 -11 -6 -5 2)
1969/12/31/18:00:10.880000,(-21 -19 -23 -46 -22 -8 -2 -9)
1969/12/31/18:00:10.881000,(18 -1 -11 -39 -30 -18 -13 12)
1969/12/31/18:00:10.881000,(-4 -4 -11 -5 -7 -4 -5 -13)
1969/12/31/18:00:10.903000,(-33 -5 -3 -20 -5 3 -2 -12)
1969/12/31/18:00:10.903000,(-35 -20 -9 -23 -15 -5 -1 -9)
1969/12/31/18:00:10.904000,(33 22 28 85 29 13 9 9)
1969/12/31/18:00:10.904000,(-1 0 9 12 8 -3 -13 -10)
1969/12/31/18:00:10.928000,(3 3 2 -14 -6 -3 2 7)
1969/12/31/18:00:10.928000,(17 20 24 31 47 26 22 19)
1969/12/31/18:00:10.929000,(-1 1 -8 13 -34 -1 4 2)
1969/12/31/18:00:10.929000,(-7 -22 -18 24 7 -18 -10 -5)
1969/12/31/18:00:10.940000,(-25 -18 -5 -1 4 -11 -16 -23)
1969/12/31/18:00:10.940000,(16 1 -15 -50 -10 -6 -4 3)
1969/12/31/18:00:10.941000,(-10 0 -3 -55 -14 -1 0 -2)
1969/12/31/18:00:10.941000,(21 15 -11 -45 -10 8 8 10)
1969/12/31/18:00:10.963000,(12 6 16 71 26 17 11 12)
1969/12/31/18:00:10.963000,(-6 -3 0 -13 -4 -2 -6 -4)
1969/12/31/18:00:10.964000,(5 -4 -31 2 -14 -2 4 5)
1969/12/31/18:00:10.964000,(4 9 46 97 13 2 1 7)
1969/12/31/18:00:10.994000,(-26 -11 33 81 28 -3 -15 -29)
1969/12/31/18:00:10.994000,(-4 9 15 24 13 3 1 -3)
1969/12/31/18:00:10.995000,(30 1 -25 -88 -31 -18 -13 13)
1969/12/31/18:00:10.995000,(-10 -3 -28 -82 -18 1 7 0)
1969/12/31/18:00:11.009000,(-44 -28 -15 -14 -11 -5 -7 -12)
1969/12/31/18:00:11.009000,(61 32 4 8 -5 0 2 8)
1969/12/31/18:00:11.010000,(-19 -13 -10 -46 1 -1 -2 -9)
1969/12/31/18:00:11.010000,(16 11 6 14 -2 1 4 11)
1969/12/31/18:00:11.023000,(4 3 14 21 16 4 1 3)
1969/12/31/18:00:11.023000,(-11 -5 2 33 -8 1 1 1)
1969/12/31/18:00:11.024000,(-2 0 15 -17 5 3 3 -1)
1969/12/31/18:00:11.024000,(2 -2 0 13 10 1 0 -1)
1969/12/31/18:00:11.046000,(-2 -2 -17 -30 -20 -4 -2 -5)
1969/12/31/18:00:11.046000,(-6 -7 -14 -51 -16 -6 -6 -4)
1969/12/31/18:00:11.047000,(1 4 11 39 20 3 0 -4)
1969/12/31/18:00:11.047000,(-53 -21 0 5 9 2 -5 -24)
1969/12/31/18:00:11.069000,(78 36 11 13 7 13 28 57)
1969/12/31/18:00:11.069000,(-33 -22 -27 -45 -12 -14 -18 -31)
1969/12/31/18:00:11.069000,(18 4 1 -33 -29 -6 1 17)
1969/12/31/18:00:11.069000,(-3 -1 -4 5 7 -3 1 1)
1969/12/31/18:00:11.083000,(-4 -1 2 20 0 5 1 2)
1969/12/31/18:00:11.083000,(2 0 26 53 22 14 8 9)
1969/12/31/18:00:11.084000,(-8 6 5 -23 9 11 13 -2)
1969/12/31/18:00:11.084000,(5 -6 -17 -43 -27 -16 -14 -5)
1969/12/31/18:00:11.106000,(6 5 -9 14 7 -4 -3 -1)
1969/12/31/18:00:11.106000,(5 0 11 43 11 0 2 5)
1969/12/31/18:00:11.107000,(-24 -12 3 10 0 3 -1 -10)
1969/12/31/18:00:11.107000,(21 13 -8 -46 -14 -3 -3 8)
1969/12/31/18:00:11.121000,(-19 -10 -18 -55 -29 -13 -11 -21)
1969/12/31/18:00:11.121000,(2 -1 3 23 6 2 3 5)
1969/12/31/18:00:11.122000,(5 -1 8 49 26 3 0 1)
1969/12/31/18:00:11.122000,(-39 -13 7 11 6 11 5 -7)
1969/12/31/18:00:11.146000,(45 16 -21 -43 -4 -2 -6 -2)
1969/12/31/18:00:11.146000,(1 -6 -7 -11 -11 -9 -5 2)
1969/12/31/18:00:11.147000,(-10 -8 -23 -84 -48 -15 -8 -12)
1969/12/31/18:00:11.147000,(15 14 40 103 36 13 9 11)
1969/12/31/18:00:11.166000,(-27 -7 20 47 20 -4 -13 -19)
1969/12/31/18:00:11.166000,(7 2 -11 -22 -2 -2 3 8)
1969/12/31/18:00:11.167000,(-10 -9 -13 -25 3 1 -3 -5)
1969/12/31/18:00:11.167000,(31 7 -18 -49 -20 -1 4 9)
1969/12/31/18:00:11.180000,(3 0 8 18 -1 -1 2 6)
1969/12/31/18:00:11.180000,(0 4 5 18 -1 1 -1 -2)
1969/12/31/18:00:11.181000,(-44 -24 9 32 14 6 2 -14)
1969/12/31/18:00:11.181000,(45 22 -21 -74 -20 -8 -3 8)
1969/12/31/18:00:11.203000,(-36 -14 7 43 3 -4 -5 -7)
1969/12/31/18:00:11.203000,(24 18 2 -6 6 5 8 8)
1969/12/31/18:00:11.211000,(-7 1 -3 3 -4 -2 -3 -4)
1969/12/31/18:00:11.211000,(-7 -20 -4 5 2 2 1 -1)
1969/12/31/18:00:11.226000,(-14 1 -4 -62 -12 0 1 -2)
1969/12/31/18:00:11.226000,(-5 -9 -8 14 -4 -8 -6 1)
1969/12/31/18:00:11.227000,(20 13 6 21 15 9 14 22)
1969/12/31/18:00:11.227000,(-29 -14 -2 -5 -5 -10 -14 -15)
1969/12/31/18:00:11.240000,(1 -8 -3 -9 -8 -7 -5 -4)
1969/12/31/18:00:11.240000,(-27 5 1 15 3 1 -3 -15)
1969/12/31/18:00:11.241000,(58 15 16 29 22 12 12 28)
1969/12/31/18:00:11.241000,(24 16 2 -10 -8 1 10 20)
1969/12/31/18:00:11.264000,(-33 -26 2 20 4 -2 -10 -20)
1969/12/31/18:00:11.264000,(23 1 -4 -38 -12 3 9 24)
1969/12/31/18:00:11.265000,(-48 -24 -16 20 -4 -20 -26 -44)
1969/12/31/18:00:11.265000,(22 17 12 34 -1 4 2 -1)
1969/12/31/18:00:11.288000,(-19 -30 -18 -57 23 6 3 4)
1969/12/31/18:00:11.288000,(51 33 -2 21 -13 10 17 30)
1969/12/31/18:00:11.289000,(18 16 36 45 12 -4 -9 -8)
1969/12/31/18:00:11.289000,(-15 -20 -6 -24 -3 -6 -3 -2)
1969/12/31/18:00:11.300000,(53 22 6 52 -1 -2 2 16)
1969/12/31/18:00:11.301000,(-71 -31 -10 -22 7 -2 -8 -30)
1969/12/31/18:00:11.301000,(32 19 -5 -11 -1 16 26 32)
1969/12/31/18:00:11.301000,(-25 -8 -8 -17 -13 -9 -12 -20)
1969/12/31/18:00:11.323000,(-7 -4 -31 -106 -35 -14 -17 -23)
1969/12/31/18:00:11.323000,(-21 -28 -5 52 3 -11 -14 -15)
1969/12/31/18:00:11.324000,(-47 -18 21 60 18 4 -1 -8)
1969/12/31/18:00:11.324000,(39 30 -9 -60 -27 -10 -8 1)
1969/12/31/18:00:11.348000,(29 20 16 93 15 13 23 30)
1969/12/31/18:00:11.348000,(30 18 19 55 47 15 9 11)
1969/12/31/18:00:11.349000,(-39 -31 -21 -27 -56 -22 -18 -31)
1969/12/31/18:00:11.349000,(-7 -7 22 49 74 15 15 12)
1969/12/31/18:00:11.361000,(-12 -1 1 -1 -22 -1 -4 -6)
1969/12/31/18:00:11.361000,(11 2 4 -13 -4 6 0 3)
1969/12/31/18:00:11.361000,(-23 -20 -8 -40 31 9 -3 -9)
1969/12/31/18:00:11.361000,(41 58 5 -12 -9 14 19 25)
1969/12/31/18:00:11.383000,(-94 -78 -12 -21 -19 -29 -37 -58)
1969/12/31/18:00:11.383000,(70 57 16 0 -1 0 14 27)
1969/12/31/18:00:11.384000,(28 17 -18 -37 -27 -19 -20 -10)
1969/12/31/18:00:11.384000,(-19 -36 -26 -20 -13 -3 -1 -3)
1969/12/31/18:00:11.414000,(-10 1 7 13 19 16 15 11)
1969/12/31/18:00:11.414000,(-58 -43 -17 -26 -17 -7 -12 -25)
1969/12/31/18:00:11.415000,(-2 15 21 33 8 0 2 5)
1969/12/31/18:00:11.415000,(-14 -18 -6 -68 -21 -6 -4 -1)
1969/12/31/18:00:11.420000,(57 45 38 124 36 12 18 27)
1969/12/31/18:00:11.420000,(-53 -40 -29 -58 -13 -13 -26 -40)
1969/12/31/18:00:11.428000,(12 -5 3 -2 -2 13 20 25)
1969/12/31/18:00:11.428000,(-36 -26 11 45 19 3 -11 -18)
1969/12/31/18:00:11.443000,(71 43 -14 -55 -15 2 11 33)
1969/12/31/18:00:11.443000,(-21 14 -12 -27 -22 -19 -15 -18)
1969/12/31/18:00:11.444000,(-13 -25 -15 -18 11 6 3 -5)
1969/12/31/18:00:11.444000,(-6 -3 -9 0 -17 -14 -15 -4)
1969/12/31/18:00:11.466000,(2 -14 -9 -18 -8 2 3 4)
1969/12/31/18:00:11.466000,(16 11 23 42 16 3 5 14)
1969/12/31/18:00:11.467000,(-5 -2 -1 1 7 11 11 12)
1969/12/31/18:00:11.467000,(-10 -8 15 31 1 7 3 -7)
1969/12/31/18:00:11.481000,(-24 -2 -7 -10 14 -8 -7 -13)
1969/12/31/18:00:11.481000,(29 15 -14 -51 -7 7 11 15)
1969/12/31/18:00:11.481000,(39 7 -10 -9 -12 0 11 32)
1969/12/31/18:00:11.481000,(4 22 30 81 17 0 -12 -25)
1969/12/31/18:00:11.503000,(22 16 17 6 14 11 10 15)
1969/12/31/18:00:11.503000,(-70 -39 -10 -4 -11 -13 -14 -28)
1969/12/31/18:00:11.504000,(16 -10 -20 -45 -20 -23 -28 -19)
1969/12/31/18:00:11.504000,(40 25 -13 -18 -2 0 11 19)
1969/12/31/18:00:11.526000,(-32 -5 -7 4 -13 -7 -15 -23)
1969/12/31/18:00:11.526000,(42 23 30 -3 17 29 36 51)
1969/12/31/18:00:11.527000,(-18 5 4 38 18 -2 -6 -13)
1969/12/31/18:00:11.527000,(8 -2 -15 -4 -20 -8 -2 9)
1969/12/31/18:00:11.549000,(-24 -16 6 -12 2 11 9 -6)
1969/12/31/18:00:11.549000,(4 5 16 37 9 -3 -4 -2)
1969/12/31/18:00:11.550000,(-30 -12 10 17 9 6 8 -2)
1969/12/31/18:00:11.550000,(38 35 5 -19 2 4 7 13)
1969/12/31/18:00:11.563000,(-32 -20 -17 -10 -12 -9 -8 -11)
1969/12/31/18:00:11.563000,(-49 -41 -10 -10 -13 -14 -17 -24)
1969/12/31/18:00:11.564000,(25 35 1 3 7 2 6 9)
1969/12/31/18:00:11.564000,(14 -5 -1 -4 2 2 -3 -10)
1969/12/31/18:00:11.587000,(4 2 4 -15 -8 5 8 8)
1969/12/31/18:00:11.587000,(17 9 0 7 0 -7 -7 2)
1969/12/31/18:00:11.588000,(-26 -16 -9 -23 -11 -12 -19 -22)
1969/12/31/18:00:11.588000,(-39 -22 4 17 10 12 15 9)
1969/12/31/18:00:11.609000,(61 36 3 12 3 1 2 18)
1969/12/31/18:00:11.609000,(-56 -29 -5 -15 -3 -6 -23 -42)
1969/12/31/18:00:11.610000,(18 13 -5 1 -1 0 3 8)
1969/12/31/18:00:11.610000,(-26 -20 -19 -11 -7 -8 -11 -14)
1969/12/31/18:00:11.623000,(-29 -8 11 5 -1 -2 -6 -13)
1969/12/31/18:00:11.623000,(37 13 2 -8 -2 7 18 30)
1969/12/31/18:00:11.624000,(-28 -8 9 20 1 0 -6 -16)
1969/12/31/18:00:11.624000,(18 14 5 31 12 -7 -9 -11)
1969/12/31/18:00:11.646000,(-25 -19 -16 -22 -8 -8 -9 -8)
1969/12/31/18:00:11.646000,(14 -2 -1 -2 1 2 0 4)
1969/12/31/18:00:11.647000,(39 35 -3 -23 -12 -13 -14 -7)
1969/12/31/18:00:11.647000,(-7 -11 6 5 5 2 0 -1)
1969/12/31/18:00:11.660000,(-30 -19 -13 -13 -17 -8 -8 -15)
1969/12/31/18:00:11.660000,(41 20 6 6 6 6 9 15)
1969/12/31/18:00:11.668000,(28 20 4 4 1 2 7 13)
1969/12/31/18:00:11.668000,(-35 -19 -33 -64 -5 -2 -3 -13)
1969/12/31/18:00:11.692000,(-27 -30 11 29 -1 -1 -5 -6)
1969/12/31/18:00:11.692000,(26 50 32 62 16 11 8 3)
1969/12/31/18:00:11.692000,(-63 -53 4 6 12 9 16 16)
1969/12/31/18:00:11.692000,(3 16 6 3 -4 -5 -13 -22)
1969/12/31/18:00:11.706000,(46 30 -5 -23 1 -4 -5 1)
1969/12/31/18:00:11.706000,(-23 -33 -23 -47 -11 3 10 6)
1969/12/31/18:00:11.707000,(-18 1 10 27 7 8 4 2)
1969/12/31/18:00:11.707000,(30 20 6 8 1 1 0 6)
1969/12/31/18:00:11.720000,(-24 -14 -6 -3 0 -7 -14 -16)
1969/12/31/18:00:11.720000,(-22 -13 1 0 -8 -11 -9 -14)
1969/12/31/18:00:11.728000,(77 34 -12 -23 -6 3 10 28)
1969/12/31/18:00:11.728000,(-35 -23 -4 -3 -2 8 3 -8)
1969/12/31/18:00:11.743000,(0 9 3 2 0 -2 -3 -1)
1969/12/31/18:00:11.743000,(-19 -12 -1 11 9 9 7 -7)
1969/12/31/18:00:11.744000,(-4 -5 -1 -4 -2 -1 -4 6)
1969/12/31/18:00:11.744000,(24 5 0 13 8 -3 -2 6)
1969/12/31/18:00:11.766000,(29 14 3 -12 -16 2 7 15)
1969/12/31/18:00:11.766000,(-27 -20 -5 0 5 -2 -2 -9)
1969/12/31/18:00:11.767000,(47 26 -1 -8 0 7 16 22)
1969/12/31/18:00:11.767000,(-22 -10 0 10 -3 -11 -12 -12)
1969/12/31/18:00:11.780000,(-4 -2 -2 6 3 1 2 -2)
1969/12/31/18:00:11.780000,(16 6 -3 4 3 8 11 17)
1969/12/31/18:00:11.788000,(-13 -15 -14 -33 -8 -10 -17 -17)
1969/12/31/18:00:11.788000,(-46 -31 17 54 16 8 12 8)
1969/12/31/18:00:11.803000,(95 93 26 14 7 15 25 48)
1969/12/31/18:00:11.803000,(-26 -16 -16 -9 -15 -19 -24 -22)
1969/12/31/18:00:11.804000,(-15 -7 -6 -1 4 2 -3 -9)
1969/12/31/18:00:11.804000,(-10 -13 -6 -33 -12 0 7 9)
1969/12/31/18:00:11.827000,(-6 -20 -11 -8 4 8 17 19)
1969/12/31/18:00:11.827000,(37 31 10 5 -5 -16 -23 -12)
1969/12/31/18:00:11.828000,(-19 -16 -7 -10 -8 -7 -10 -17)
1969/12/31/18:00:11.828000,(3 -3 5 3 2 10 13 18)
1969/12/31/18:00:11.840000,(-15 -20 -6 8 7 1 0 -4)
1969/12/31/18:00:11.840000,(27 23 -2 -20 -2 5 11 21)
1969/12/31/18:00:11.848000,(-32 -13 -2 -10 2 -9 -14 -32)
1969/12/31/18:00:11.848000,(16 14 9 34 -7 2 9 15)
1969/12/31/18:00:11.862000,(-18 -10 -1 -1 6 -6 -16 -20)
1969/12/31/18:00:11.862000,(-3 -10 -14 -15 -4 0 4 0)
1969/12/31/18:00:11.871000,(-27 -13 -5 -24 -7 -2 -11 -22)
1969/12/31/18:00:11.871000,(3 3 -4 23 3 0 4 14)
1969/12/31/18:00:11.886000,(-9 4 15 9 3 -4 -11 -21)
1969/12/31/18:00:11.886000,(-6 -9 -1 3 -3 0 3 0)
1969/12/31/18:00:11.887000,(-2 8 -1 0 -4 -6 0 0)
1969/12/31/18:00:11.887000,(-19 -17 -19 -32 -9 -6 -5 -3)
1969/12/31/18:00:11.909000,(-16 -16 -3 -9 -5 1 2 -4)
1969/12/31/18:00:11.909000,(-5 -5 7 31 17 0 -3 -1)
1969/12/31/18:00:11.910000,(6 3 9 25 -8 -2 0 5)
1969/12/31/18:00:11.910000,(38 23 11 -10 -2 1 2 5)
1969/12/31/18:00:11.922000,(1 6 -11 -19 -3 -2 1 2)
1969/12/31/18:00:11.922000,(-40 -37 -9 -9 -6 -10 -11 -10)
1969/12/31/18:00:11.931000,(-7 22 14 39 27 28 29 8)
1969/12/31/18:00:11.931000,(-6 -7 0 4 -5 -13 -19 -15)
1969/12/31/18:00:11.946000,(8 8 -2 -5 1 4 6 6)
1969/12/31/18:00:11.946000,(-14 -9 -2 -13 -11 -4 -5 -9)
1969/12/31/18:00:11.947000,(-21 -21 -9 -9 -2 -12 -7 -5)
1969/12/31/18:00:11.947000,(36 27 6 7 -2 8 9 11)
1969/12/31/18:00:11.969000,(-33 -44 -8 -7 -4 -6 -6 -8)
1969/12/31/18:00:11.969000,(45 40 18 23 17 11 9 12)
1969/12/31/18:00:11.970000,(37 18 0 -19 -3 7 16 24)
1969/12/31/18:00:11.970000,(3 8 -24 -76 -26 -9 -4 -1)
1969/12/31/18:00:11.983000,(-14 -23 16 69 5 -9 -9 -10)
1969/12/31/18:00:11.983000,(-79 -47 13 56 28 11 1 -16)
1969/12/31/18:00:11.989000,(87 90 37 45 39 29 31 59)
1969/12/31/18:00:11.989000,(-48 -22 -8 -18 -2 -3 -10 -24)
1969/12/31/18:00:12.006000,(-2 8 -19 -56 -21 -2 6 4)
1969/12/31/18:00:12.006000,(0 -10 -12 -22 -25 -16 -11 -9)
1969/12/31/18:00:12.007000,(-17 -20 0 8 -4 -8 -9 -14)
1969/12/31/18:00:12.007000,(-24 -36 -5 -3 3 6 9 13)
1969/12/31/18:00:12.030000,(44 36 7 7 11 3 -6 -3)
1969/12/31/18:00:12.030000,(43 28 5 -5 -1 7 16 21)
1969/12/31/18:00:12.031000,(-30 -31 -11 -18 -15 -12 -17 -20)
1969/12/31/18:00:12.031000,(-7 -6 2 6 6 -7 -5 -8)
1969/12/31/18:00:12.042000,(4 8 3 0 12 8 13 13)
1969/12/31/18:00:12.042000,(20 15 -3 -7 -3 2 -1 6)
1969/12/31/18:00:12.051000,(-6 0 6 5 2 0 -3 -10)
1969/12/31/18:00:12.051000,(-21 -19 6 17 -2 -11 -16 -22)
1969/12/31/18:00:12.066000,(-3 2 -4 -1 9 10 13 11)
1969/12/31/18:00:12.066000,(6 5 -5 -13 -6 -5 -3 -3)
1969/12/31/18:00:12.067000,(-13 -19 -24 -74 -39 -13 -10 -7)
1969/12/31/18:00:12.068000,(5 0 -10 -29 -2 3 6 8)
1969/12/31/18:00:12.088000,(5 1 13 58 5 -2 -5 -2)
1969/12/31/18:00:12.089000,(-4 3 25 65 34 11 -1 -9)
1969/12/31/18:00:12.090000,(-6 1 9 20 8 6 8 10)
1969/12/31/18:00:12.090000,(-3 11 5 -9 -4 -4 -10 -10)
1969/12/31/18:00:12.111000,(-18 -18 -23 -55 -24 -12 -7 -7)
1969/12/31/18:00:12.111000,(-10 -5 -6 -20 -15 -3 -2 -9)
1969/12/31/18:00:12.113000,(54 21 7 18 7 2 9 25)
1969/12/31/18:00:12.113000,(-3 -2 -11 -2 0 -6 -9 -8)
1969/12/31/18:00:12.126000,(1 1 8 -3 -5 -1 -6 -3)
1969/12/31/18:00:12.126000,(2 0 6 7 12 18 12 9)
1969/12/31/18:00:12.127000,(-14 -14 -21 -4 -9 -19 -15 -10)
1969/12/31/18:00:12.127000,(3 -7 -18 -10 -14 -10 -2 5)
1969/12/31/18:00:12.148000,(-10 -3 4 -2 -1 -2 -4 -9)
1969/12/31/18:00:12.148000,(7 5 0 -22 -16 -3 -1 5)
1969/12/31/18:00:12.150000,(-9 -4 -1 -2 18 9 1 -11)
1969/12/31/18:00:12.150000,(12 5 1 -22 -9 4 8 10)
1969/12/31/18:00:12.162000,(7 8 11 49 12 6 3 -3)
1969/12/31/18:00:12.162000,(18 15 6 9 11 5 4 12)
1969/12/31/18:00:12.171000,(-8 6 22 36 15 7 3 1)
1969/12/31/18:00:12.171000,(-34 -20 -3 10 -2 -14 -28 -37)
1969/12/31/18:00:12.186000,(-9 -10 -20 -65 -12 3 7 9)
1969/12/31/18:00:12.186000,(-4 -9 -17 -32 -20 -8 -1 0)
1969/12/31/18:00:12.187000,(29 21 8 30 -3 -1 4 12)
1969/12/31/18:00:12.188000,(-7 2 22 44 23 17 17 11)
1969/12/31/18:00:12.209000,(58 35 6 5 1 2 2 9)
1969/12/31/18:00:12.209000,(5 0 -13 -10 -6 -11 -4 -1)
1969/12/31/18:00:12.210000,(-31 -28 -17 -24 -12 -10 -13 -25)
1969/12/31/18:00:12.210000,(18 16 8 11 7 15 15 18)
1969/12/31/18:00:12.222000,(-11 -9 -11 -23 3 -2 -1 0)
1969/12/31/18:00:12.222000,(-11 -12 -14 -23 -25 -3 4 3)
1969/12/31/18:00:12.232000,(21 5 6 38 -2 -10 -6 6)
1969/12/31/18:00:12.232000,(-42 -2 26 56 27 4 -14 -37)
1969/12/31/18:00:12.247000,(-26 -22 -4 9 13 -6 -8 -5)
1969/12/31/18:00:12.247000,(46 30 0 -6 -10 -2 -5 -1)
1969/12/31/18:00:12.248000,(-56 -45 -20 -36 -14 -10 -16 -34)
1969/12/31/18:00:12.248000,(5 1 -9 -10 -3 10 17 30)
1969/12/31/18:00:12.269000,(16 7 2 -3 -7 -17 -16 -12)
1969/12/31/18:00:12.269000,(-22 -9 -8 -11 2 -5 -3 -5)
1969/12/31/18:00:12.270000,(2 6 0 -6 -3 7 6 3)
1969/12/31/18:00:12.270000,(19 9 0 -7 -5 1 7 9)
1969/12/31/18:00:12.282000,(-29 -12 6 10 4 10 -1 -12)
1969/12/31/18:00:12.282000,(21 19 16 15 6 6 12 20)
1969/12/31/18:00:12.291000,(-4 -12 -19 -36 -29 -18 -12 -8)
1969/12/31/18:00:12.291000,(7 -7 -29 -44 -21 -18 -4 1)
1969/12/31/18:00:12.306000,(-3 7 35 80 29 16 10 8)
1969/12/31/18:00:12.306000,(0 7 23 84 64 23 2 -3)
1969/12/31/18:00:12.308000,(-5 -4 16 -15 16 17 4 0)
1969/12/31/18:00:12.308000,(8 9 -10 -13 -22 -12 -9 -6)
1969/12/31/18:00:12.329000,(-1 -18 -52 -44 -21 -10 3 5)
1969/12/31/18:00:12.329000,(-11 -10 6 -12 -17 -8 -6 -5)
1969/12/31/18:00:12.330000,(-4 2 -2 -12 -3 0 2 -2)
1969/12/31/18:00:12.330000,(12 7 19 0 4 2 3 7)
1969/12/31/18:00:12.342000,(3 9 10 -12 -6 1 5 5)
1969/12/31/18:00:12.342000,(0 -1 -2 -2 7 2 3 3)
1969/12/31/18:00:12.351000,(-1 -4 -21 -10 -10 -7 -6 -1)
1969/12/31/18:00:12.351000,(0 -14 -15 4 -6 -8 -4 -4)
1969/12/31/18:00:12.366000,(-15 -8 3 15 5 -2 -4 -5)
1969/12/31/18:00:12.366000,(-1 5 14 -19 -7 -2 -2 -4)
1969/12/31/18:00:12.368000,(8 17 36 24 15 23 11 5)
1969/12/31/18:00:12.368000,(15 0 -36 4 2 0 6 11)
1969/12/31/18:00:12.388000,(-11 -21 -40 -24 -13 -16 -12 -8)
1969/12/31/18:00:12.389000,(-15 -13 4 -28 -23 -19 -12 -11)
1969/12/31/18:00:12.390000,(-4 3 1 42 11 1 1 -3)
1969/12/31/18:00:12.390000,(3 1 19 49 20 10 4 2)
1969/12/31/18:00:12.402000,(-4 1 11 -13 9 3 1 -4)
1969/12/31/18:00:12.402000,(3 4 5 11 -8 -1 3 3)
1969/12/31/18:00:12.411000,(4 13 25 4 18 12 8 4)
1969/12/31/18:00:12.411000,(9 12 -7 -51 -13 3 2 4)
1969/12/31/18:00:12.426000,(7 -2 -16 4 -5 -5 1 6)
1969/12/31/18:00:12.426000,(-6 -10 6 -15 -8 -3 -3 -3)
1969/12/31/18:00:12.427000,(1 7 5 5 2 -4 -1 1)
1969/12/31/18:00:12.427000,(-3 -12 -31 16 5 0 0 -3)
1969/12/31/18:00:12.449000,(0 2 32 -8 -4 -7 -2 1)
1969/12/31/18:00:12.449000,(-11 -13 -47 -35 -24 -14 -10 -9)
1969/12/31/18:00:12.450000,(0 -15 -21 28 12 1 0 1)
1969/12/31/18:00:12.450000,(-6 2 24 24 -2 -6 -10 -7)
1969/12/31/18:00:12.462000,(-5 1 4 -14 -6 1 -1 -3)
1969/12/31/18:00:12.462000,(4 4 11 30 16 7 6 6)
1969/12/31/18:00:12.471000,(5 6 9 -14 -11 0 2 2)
1969/12/31/18:00:12.471000,(7 8 8 -1 11 9 8 4)
1969/12/31/18:00:12.486000,(-1 0 -6 -26 -13 2 2 0)
1969/12/31/18:00:12.486000,(5 9 10 5 -1 1 1 1)
1969/12/31/18:00:12.488000,(0 -4 -21 15 15 -2 -6 -4)
1969/12/31/18:00:12.488000,(-6 -10 6 10 3 -1 -3 -3)
1969/12/31/18:00:12.525000,(-5 0 6 -17 -13 -5 -3 -6)
1969/12/31/18:00:12.525000,(5 -5 -36 -11 -2 2 2 3)
1969/12/31/18:00:12.527000,(-8 -9 0 -5 -4 -10 -7 -4)
1969/12/31/18:00:12.527000,(3 8 15 -1 0 8 4 1)
1969/12/31/18:00:12.527000,(1 5 7 5 0 4 1 1)
1969/12/31/18:00:12.527000,(0 -1 -10 -2 2 -2 0 0)
1969/12/31/18:00:12.531000,(-7 -11 -14 -24 -18 -14 -9 -5)
1969/12/31/18:00:12.531000,(-3 -3 0 -5 -5 -1 3 0)
1969/12/31/18:00:12.545000,(0 2 2 24 15 9 4 1)
1969/12/31/18:00:12.545000,(4 4 0 -10 -4 -6 -1 4)
1969/12/31/18:00:12.553000,(2 3 5 -16 -13 -2 0 1)
1969/12/31/18:00:12.553000,(3 3 9 20 10 -1 -3 0)
1969/12/31/18:00:12.569000,(-4 1 -6 30 14 7 -1 -4)
1969/12/31/18:00:12.569000,(-1 -9 -16 -15 5 8 1 1)
1969/12/31/18:00:12.570000,(-6 -3 2 -16 -13 -6 -2 -4)
1969/12/31/18:00:12.570000,(2 2 3 -15 -3 0 -1 1)
1969/12/31/18:00:12.582000,(2 2 -2 -14 -9 1 1 1)
1969/12/31/18:00:12.582000,(2 8 10 -2 10 1 0 1)
1969/12/31/18:00:12.591000,(9 8 9 1 -1 10 6 6)
1969/12/31/18:00:12.591000,(-1 0 14 7 14 9 1 0)
1969/12/31/18:00:12.613000,(-11 -12 -32 -9 -8 -14 -13 -7)
1969/12/31/18:00:12.614000,(1 -1 8 -16 -6 -2 -2 1)
1969/12/31/18:00:12.615000,(-2 2 1 -18 -2 0 0 -3)
1969/12/31/18:00:12.615000,(0 8 3 8 -2 6 5 1)
1969/12/31/18:00:12.629000,(10 9 15 21 25 10 6 6)
1969/12/31/18:00:12.629000,(-9 -3 -1 14 1 2 -2 -7)
1969/12/31/18:00:12.630000,(0 0 0 8 10 -4 1 0)
1969/12/31/18:00:12.630000,(-3 -9 -14 -35 -16 -7 5 2)
1969/12/31/18:00:12.642000,(1 -3 -6 14 -3 -6 1 2)
1969/12/31/18:00:12.642000,(-3 -7 -3 5 -6 -13 -3 -2)
1969/12/31/18:00:12.659000,(1 -6 -16 -12 -6 -7 -1 -1)
1969/12/31/18:00:12.659000,(4 -1 0 16 4 -2 -1 2)
1969/12/31/18:00:12.666000,(-13 -2 14 -7 -13 -12 -9 -11)
1969/12/31/18:00:12.666000,(-1 -17 -18 0 -1 -6 -1 2)
1969/12/31/18:00:12.674000,(-8 -1 2 11 -3 -7 -7 -7)
1969/12/31/18:00:12.674000,(0 1 -10 -5 -2 -3 -2 -2)
1969/12/31/18:00:12.689000,(5 2 2 -5 0 6 5 2)
1969/12/31/18:00:12.689000,(1 -1 -3 -2 -1 6 0 0)
1969/12/31/18:00:12.690000,(-1 -5 0 6 4 3 2 1)
1969/12/31/18:00:12.690000,(-7 -3 -1 0 -4 -6 -5 -1)
1969/12/31/18:00:12.702000,(-3 -4 -1 -11 -3 0 0 0)
1969/12/31/18:00:12.702000,(2 14 11 16 7 5 -3 -3)
1969/12/31/18:00:12.719000,(6 -10 -10 -5 -12 4 10 10)
1969/12/31/18:00:12.719000,(-3 -1 8 11 17 3 -1 -3)
1969/12/31/18:00:12.725000,(-2 1 -1 -13 -10 -5 0 -2)
1969/12/31/18:00:12.725000,(2 2 6 5 1 -2 -2 -1)
1969/12/31/18:00:12.740000,(-4 -2 -9 -1 0 1 -4 -5)
1969/12/31/18:00:12.740000,(-3 2 2 -3 -4 1 -4 -5)
1969/12/31/18:00:12.749000,(6 -4 -7 0 -3 1 3 6)
1969/12/31/18:00:12.749000,(-4 -1 1 0 1 2 2 -3)
1969/12/31/18:00:12.750000,(-2 2 11 14 2 -5 -4 -4)
1969/12/31/18:00:12.750000,(6 -3 -10 -10 -7 -2 3 5)
1969/12/31/18:00:12.762000,(-2 -1 1 -1 0 0 -3 -2)
1969/12/31/18:00:12.762000,(8 3 -3 -3 1 5 5 10)
1969/12/31/18:00:12.771000,(-2 0 1 -4 -1 -2 -5 -5)
1969/12/31/18:00:12.771000,(-1 3 7 2 -2 -1 0 -3)
1969/12/31/18:00:12.786000,(0 1 0 6 3 4 -2 -3)
1969/12/31/18:00:12.786000,(-2 -2 -5 -9 -2 0 -1 -3)
1969/12/31/18:00:12.808000,(1 4 3 3 -2 1 0 1)
1969/12/31/18:00:12.808000,(1 3 4 2 5 4 0 0)
1969/12/31/18:00:12.817000,(0 0 -3 -5 -1 4 2 3)
1969/12/31/18:00:12.817000,(-3 1 1 -2 -3 0 0 -2)
1969/12/31/18:00:12.818000,(1 3 3 -6 -2 -5 -2 2)
1969/12/31/18:00:12.818000,(-6 -5 -6 -8 -3 0 -2 -4)
1969/12/31/18:00:12.833000,(7 1 -4 -5 -2 -2 6 7)
1969/12/31/18:00:12.833000,(-2 -1 2 16 -3 -3 -1 -1)
1969/12/31/18:00:12.835000,(-3 -1 10 11 19 -1 -2 -4)
1969/12/31/18:00:12.835000,(-4 -4 -2 -2 -4 -1 -1 -1)
1969/12/31/18:00:12.845000,(-3 -1 -3 -10 -6 -4 -4 0)
1969/12/31/18:00:12.845000,(-1 -4 -11 -24 -12 -3 -1 0)
1969/12/31/18:00:12.852000,(2 4 -1 11 8 4 0 2)
1969/12/31/18:00:12.852000,(1 5 10 21 13 2 0 0)
1969/12/31/18:00:12.876000,(0 0 2 -2 5 5 0 -2)
1969/12/31/18:00:12.876000,(-2 -2 1 -1 -6 -3 -1 1)
1969/12/31/18:00:12.878000,(-2 -5 -8 -14 -9 -3 -2 -1)
1969/12/31/18:00:12.878000,(-2 -1 -1 -11 -1 -2 -4 -3)
1969/12/31/18:00:12.891000,(1 -1 0 3 -3 -1 -1 -1)
1969/12/31/18:00:12.891000,(-2 -2 -1 1 4 1 1 0)
1969/12/31/18:00:12.893000,(0 1 -1 0 -1 0 2 0)
1969/12/31/18:00:12.893000,(-1 -3 -8 -13 -11 -4 1 -4)
1969/12/31/18:00:12.921000,(-2 4 4 6 4 0 0 -2)
1969/12/31/18:00:12.921000,(0 -3 -1 14 9 1 -3 -2)
1969/12/31/18:00:12.923000,(2 -1 0 3 6 -1 -1 2)
1969/12/31/18:00:12.923000,(-3 -3 4 1 -5 -3 -5 -4)
1969/12/31/18:00:12.937000,(-2 -5 -4 -2 -1 -3 -3 -3)
1969/12/31/18:00:12.937000,(0 -2 -1 -6 -2 0 2 1)
1969/12/31/18:00:12.938000,(2 2 -5 0 -6 1 3 2)
1969/12/31/18:00:12.938000,(2 -5 -5 -1 -1 -1 0 2)
1969/12/31/18:00:12.952000,(12 7 -1 -6 -2 1 5 12)
1969/12/31/18:00:12.952000,(2 7 9 9 10 12 6 -3)
1969/12/31/18:00:12.953000,(-9 -6 -8 -6 -6 -4 -9 -14)
1969/12/31/18:00:12.953000,(-2 1 0 -4 0 -3 -1 -1)
1969/12/31/18:00:12.965000,(-2 -1 0 0 1 -3 -3 -1)
1969/12/31/18:00:12.965000,(8 3 1 -2 -3 1 5 12)
1969/12/31/18:00:12.974000,(-6 -6 -1 -2 -1 3 -1 1)
1969/12/31/18:00:12.974000,(-1 3 -1 -2 1 2 2 0)
1969/12/31/18:00:12.988000,(3 0 -1 3 0 1 0 1)
1969/12/31/18:00:12.988000,(-4 -3 -1 0 2 -2 -1 -3)
1969/12/31/18:00:12.990000,(-1 1 1 0 0 0 -1 -2)
1969/12/31/18:00:12.990000,(-4 -2 -3 1 -2 -4 -2 -1)
1969/12/31/18:00:13.011000,(-3 0 0 0 -1 -1 0 -1)
1969/12/31/18:00:13.011000,(-3 -1 -1 -3 -3 -7 -7 -6)
1969/12/31/18:00:13.013000,(0 -3 -2 -1 -4 -1 -1 -1)
1969/12/31/18:00:13.013000,(6 1 1 1 -1 0 2 3)
1969/12/31/18:00:13.034000,(-1 0 2 1 1 0 -3 -5)
1969/12/31/18:00:13.034000,(-4 -3 -1 -3 -2 0 -2 -3)
1969/12/31/18:00:13.035000,(4 3 1 2 0 3 4 5)
1969/12/31/18:00:13.035000,(-1 1 0 0 0 0 -2 0)
1969/12/31/18:00:13.049000,(-2 -4 1 0 0 0 0 -4)
1969/12/31/18:00:13.049000,(-4 -2 -1 -2 -2 -4 -5 -1)
1969/12/31/18:00:13.050000,(1 1 1 -1 -2 0 -1 1)
1969/12/31/18:00:13.050000,(-3 0 2 0 2 -1 -1 -2)
1969/12/31/18:00:13.079000,(-5 -3 -3 2 2 0 -1 -2)
1969/12/31/18:00:13.079000,(1 2 1 -1 0 -1 2 0)
1969/12/31/18:00:13.080000,(-1 1 0 -1 0 -3 -1 -1)
1969/12/31/18:00:13.080000,(-2 -2 -1 0 2 1 -1 -3)
1969/12/31/18:00:13.085000,(0 -1 -1 -2 0 2 4 1)
1969/12/31/18:00:13.085000,(-1 -1 -1 -1 1 0 -2 -2)
1969/12/31/18:00:13.094000,(1 0 1 -3 -3 -1 -1 0)
1969/12/31/18:00:13.094000,(0 -2 -2 0 -1 0 -1 0)
1969/12/31/18:00:13.117000,(0 0 1 0 0 -1 0 0)
1969/12/31/18:00:13.117000,(-3 -2 -1 -2 0 -2 -1 -2)
1969/12/31/18:00:13.118000,(-1 -1 -2 -2 0 0 1 1)
1969/12/31/18:00:13.118000,(-1 -1 -2 0 -1 -1 -1 0)
1969/12/31/18:00:13.131000,(-1 -4 0 1 1 1 -1 -1)
1969/12/31/18:00:13.131000,(-1 -1 0 0 -2 -2 -1 -2)
1969/12/31/18:00:13.133000,(2 0 -1 0 1 -1 1 2)
1969/12/31/18:00:13.133000,(0 -1 -2 -1 0 0 -2 -1)
1969/12/31/18:00:13.161000,(0 2 1 0 -1 -2 -2 0)
1969/12/31/18:00:13.161000,(-1 0 -3 -2 -2 -2 -1 -1)
1969/12/31/18:00:13.163000,(-1 -1 -1 0 -1 -1 2 -1)
1969/12/31/18:00:13.163000,(1 1 0 0 -2 2 1 1)
1969/12/31/18:00:13.169000,(-4 -2 -1 0 -1 -2 -2 -1)
1969/12/31/18:00:13.169000,(0 -1 0 0 -1 0 0 1)
1969/12/31/18:00:13.170000,(-1 0 -2 0 -1 0 -2 -2)
1969/12/31/18:00:13.170000,(3 2 1 -1 0 0 3 1)
1969/12/31/18:00:13.191000,(-1 -2 -1 0 -2 -2 -1 -1)
1969/12/31/18:00:13.191000,(-2 -1 0 0 -1 -2 -2 -2)
1969/12/31/18:00:13.193000,(-3 -3 -2 1 0 1 3 1)
1969/12/31/18:00:13.193000,(1 1 2 -1 -2 -2 -1 0)
1969/12/31/18:00:13.214000,(1 2 1 1 0 0 0 -1)
1969/12/31/18:00:13.214000,(-1 -4 -4 -2 0 -2 -3 0)
1969/12/31/18:00:13.216000,(1 0 0 -2 0 0 0 0)
1969/12/31/18:00:13.216000,(0 -1 -1 1 0 1 -2 1)
1969/12/31/18:00:13.229000,(-1 -1 -3 -3 -1 1 1 -1)
1969/12/31/18:00:13.229000,(4 2 2 4 1 -1 0 1)
1969/12/31/18:00:13.230000,(-4 -1 0 -5 -4 -2 -2 -4)
1969/12/31/18:00:13.230000,(-1 0 -2 0 -1 -1 0 1)
1969/12/31/18:00:13.259000,(-1 -1 -2 -2 -1 -1 0 -1)
1969/12/31/18:00:13.259000,(0 1 -2 -2 0 0 0 0)
1969/12/31/18:00:13.260000,(3 1 -2 0 -1 -1 1 1)
1969/12/31/18:00:13.260000,(-1 -1 -1 -2 -1 0 -1 -1)
1969/12/31/18:00:13.265000,(1 1 2 0 -1 -1 0 0)
1969/12/31/18:00:13.265000,(0 -1 0 -1 -1 -2 -1 -1)
1969/12/31/18:00:13.274000,(-2 1 1 1 0 0 -1 0)
1969/12/31/18:00:13.274000,(-2 -1 -2 -1 -1 0 -1 -3)
1969/12/31/18:00:13.289000,(1 0 0 -2 1 -1 -3 -1)
1969/12/31/18:00:13.289000,(-1 1 0 -1 1 1 0 -1)
1969/12/31/18:00:13.290000,(3 -1 0 0 2 0 1 3)
1969/12/31/18:00:13.290000,(-1 -1 -1 -1 -2 -2 -3 -1)
1969/12/31/18:00:13.311000,(-4 -3 -3 -3 -2 -3 -2 -1)
1969/12/31/18:00:13.311000,(2 0 -1 -1 1 4 3 1)
1969/12/31/18:00:13.334000,(0 0 1 2 3 1 -3 -3)
1969/12/31/18:00:13.334000,(2 0 0 -2 -2 -3 0 -1)
1969/12/31/18:00:13.335000,(-2 -2 -3 -2 -5 -3 -2 -2)
1969/12/31/18:00:13.335000,(-1 0 -2 -2 1 -1 -1 -1)
1969/12/31/18:00:13.337000,(-3 -2 -1 -1 -2 -1 -1 -2)
1969/12/31/18:00:13.337000,(0 -1 -1 -1 0 -1 -1 -2)
1969/12/31/18:00:13.356000,(1 1 1 1 -2 0 -2 1)
1969/12/31/18:00:13.356000,(0 1 0 1 0 1 3 1)
1969/12/31/18:00:13.358000,(-1 -1 -1 3 2 0 -3 -3)
1969/12/31/18:00:13.358000,(1 1 -1 -1 -2 -3 -1 0)
1969/12/31/18:00:13.379000,(-1 -1 -2 -1 0 -2 -4 -3)
1969/12/31/18:00:13.379000,(-3 -2 0 -1 -2 -1 -2 0)
1969/12/31/18:00:13.380000,(1 2 0 -1 0 -1 1 0)
1969/12/31/18:00:13.380000,(-2 -1 2 0 1 1 -1 -2)
1969/12/31/18:00:13.385000,(2 2 1 0 0 2 2 1)
1969/12/31/18:00:13.385000,(-1 -1 -1 -2 0 -2 -1 -1)
1969/12/31/18:00:13.394000,(1 -1 -1 -1 -2 -1 0 -1)
1969/12/31/18:00:13.394000,(0 1 -1 1 -1 1 1 0)
1969/12/31/18:00:13.409000,(1 -2 -1 1 -1 0 0 -3)
1969/12/31/18:00:13.409000,(-3 0 0 -2 -3 -3 -3 -2)
1969/12/31/18:00:13.410000,(-1 -1 -1 1 2 3 4 2)
1969/12/31/18:00:13.410000,(0 -1 -2 0 -1 0 -2 -1)
1969/12/31/18:00:13.410000,(-1 -4 -9 -15 -30 -7 -2 -2)
1969/12/31/18:00:13.410000,(-1 -4 -11 -18 17 0 -1 0)
1969/12/31/18:00:13.412000,(2 3 5 -1 -20 2 0 1)
1969/12/31/18:00:13.412000,(1 5 17 44 31 3 1 0)
1969/12/31/18:00:13.425000,(-1 2 14 35 17 6 -2 -2)
1969/12/31/18:00:13.425000,(-1 -1 -5 -6 -10 -2 -1 -2)
1969/12/31/18:00:13.431000,(0 -6 -14 -33 -8 -3 1 0)
1969/12/31/18:00:13.431000,(0 -4 -9 -13 -15 -5 0 0)
1969/12/31/18:00:13.448000,(0 0 -1 -1 -1 -3 -3 0)
1969/12/31/18:00:13.448000,(0 -2 -2 4 -6 -3 -1 -2)
1969/12/31/18:00:13.450000,(-7 -8 -13 -21 -4 -3 -3 -4)
1969/12/31/18:00:13.450000,(2 2 -7 -41 -1 -3 1 4)
1969/12/31/18:00:13.470000,(0 4 11 34 18 4 -1 2)
1969/12/31/18:00:13.470000,(2 3 13 13 17 6 0 -2)
1969/12/31/18:00:13.472000,(10 8 15 47 13 9 4 7)
1969/12/31/18:00:13.472000,(-1 0 2 12 -4 -1 -2 -3)
1969/12/31/18:00:13.493000,(-1 -4 -12 -45 -9 1 6 3)
1969/12/31/18:00:13.493000,(1 1 2 4 -12 -6 -1 2)
1969/12/31/18:00:13.494000,(0 2 -5 -21 0 -6 -5 -2)
1969/12/31/18:00:13.494000,(0 -1 -4 6 -5 2 -1 1)
1969/12/31/18:00:13.508000,(1 -3 -5 5 10 -2 4 3)
1969/12/31/18:00:13.508000,(-15 -12 -26 -83 -29 -15 -7 -9)
1969/12/31/18:00:13.509000,(2 -1 7 36 15 -1 1 0)
1969/12/31/18:00:13.509000,(0 7 25 37 -3 4 -1 -3)
1969/12/31/18:00:13.531000,(7 -1 -19 -5 38 11 9 8)
1969/12/31/18:00:13.531000,(8 4 20 65 15 11 8 8)
1969/12/31/18:00:13.533000,(-8 -7 -33 -90 -21 -8 -5 -7)
1969/12/31/18:00:13.533000,(1 -2 14 -6 -8 -3 -1 3)
1969/12/31/18:00:13.544000,(-5 12 46 97 -6 2 -3 -9)
1969/12/31/18:00:13.544000,(8 4 -8 -16 58 8 6 7)
1969/12/31/18:00:13.553000,(2 11 19 41 -8 2 1 2)
1969/12/31/18:00:13.553000,(-9 -14 -31 -26 1 -7 -7 -7)
1969/12/31/18:00:13.568000,(-6 -11 -23 -29 -32 -9 -5 -3)
1969/12/31/18:00:13.568000,(-6 -10 -19 -22 -29 -10 -8 -6)
1969/12/31/18:00:13.570000,(-3 1 -13 -104 -51 -9 0 -1)
1969/12/31/18:00:13.570000,(4 1 -8 24 42 1 -1 3)
1969/12/31/18:00:13.591000,(-9 -6 18 18 42 4 -5 -7)
1969/12/31/18:00:13.591000,(0 7 18 36 -43 -8 -5 -5)
1969/12/31/18:00:13.592000,(-1 -3 1 35 33 9 3 -1)
1969/12/31/18:00:13.592000,(10 0 -10 -21 -16 5 8 9)
1969/12/31/18:00:13.604000,(-4 -1 -4 -46 -14 -8 -2 -4)
1969/12/31/18:00:13.604000,(6 5 -5 3 7 4 5 8)
1969/12/31/18:00:13.613000,(-1 1 15 41 -54 -12 -4 -3)
1969/12/31/18:00:13.613000,(-2 -5 -21 -64 1 -12 -5 -5)
1969/12/31/18:00:13.628000,(0 -11 -11 14 -13 -4 -4 -1)
1969/12/31/18:00:13.628000,(0 9 16 -1 31 24 13 4)
1969/12/31/18:00:13.629000,(15 10 21 108 76 14 4 7)
1969/12/31/18:00:13.629000,(-19 -7 -5 -63 -44 -19 -17 -17)
1969/12/31/18:00:13.650000,(3 -4 -16 -26 -16 -8 -1 1)
1969/12/31/18:00:13.650000,(-6 -9 -7 9 -44 -6 -4 -3)
1969/12/31/18:00:13.652000,(9 9 10 2 54 18 7 7)
1969/12/31/18:00:13.652000,(0 1 24 112 32 11 2 -4)
1969/12/31/18:00:13.664000,(-6 -6 -32 -128 -45 -8 -1 -2)
1969/12/31/18:00:13.664000,(6 -1 -4 37 -21 -14 -4 4)
1969/12/31/18:00:13.673000,(-11 -13 -12 -66 -32 -17 -10 -9)
1969/12/31/18:00:13.673000,(6 16 33 5 29 8 8 7)
1969/12/31/18:00:13.688000,(-3 -7 -10 32 -7 2 -4 -5)
1969/12/31/18:00:13.688000,(-2 -2 1 -55 35 7 1 -2)
1969/12/31/18:00:13.689000,(-4 -5 -5 82 23 6 1 -2)
1969/12/31/18:00:13.689000,(-9 -14 -34 -128 -65 -13 -3 -4)
1969/12/31/18:00:13.710000,(21 29 67 127 59 14 11 14)
1969/12/31/18:00:13.710000,(-9 -6 -7 -26 -6 -6 -8 -10)
1969/12/31/18:00:13.712000,(-2 -4 -5 -50 -38 -14 -4 -1)
1969/12/31/18:00:13.712000,(5 6 5 20 11 6 8 4)
1969/12/31/18:00:13.733000,(5 1 -15 12 -18 -10 -3 2)
1969/12/31/18:00:13.733000,(-3 -8 -5 -33 -24 -7 -7 -4)
1969/12/31/18:00:13.734000,(-1 3 12 45 45 13 2 -1)
1969/12/31/18:00:13.734000,(4 0 -15 -7 4 8 -1 4)
1969/12/31/18:00:13.748000,(-3 -2 -8 -44 -15 -1 -4 -3)
1969/12/31/18:00:13.748000,(-1 -6 -33 -83 -62 -15 -3 0)
1969/12/31/18:00:13.749000,(4 2 -10 -43 22 8 6 4)
1969/12/31/18:00:13.750000,(-3 7 49 106 5 6 -2 -5)
1969/12/31/18:00:13.770000,(-6 -1 16 58 34 9 -2 -5)
1969/12/31/18:00:13.770000,(-2 1 13 23 14 -3 -2 -4)
1969/12/31/18:00:13.772000,(-6 -12 -25 -78 -55 -16 -4 -4)
1969/12/31/18:00:13.772000,(4 1 -6 41 25 0 3 5)
1969/12/31/18:00:13.784000,(-5 -3 -3 -41 -11 -7 -1 -2)
1969/12/31/18:00:13.784000,(2 1 -1 27 17 2 2 1)
1969/12/31/18:00:13.793000,(0 -4 -3 1 -3 -3 -2 0)
1969/12/31/18:00:13.793000,(0 -2 -6 -17 -3 0 0 0)
1969/12/31/18:00:13.808000,(-1 -1 -5 -5 -6 -2 -2 -2)
1969/12/31/18:00:13.808000,(-1 1 3 3 15 4 1 0)
1969/12/31/18:00:13.809000,(-2 0 5 -2 -3 -3 -2 0)
1969/12/31/18:00:13.809000,(-2 -3 -10 -1 -8 3 3 4)
1969/12/31/18:00:13.830000,(14 9 -1 -19 2 1 1 0)
1969/12/31/18:00:13.830000,(-6 -2 6 14 6 -1 -2 -3)
1969/12/31/18:00:13.831000,(-1 -1 10 26 6 -1 -2 0)
1969/12/31/18:00:13.832000,(-7 -4 -13 -6 -8 -6 -3 -4)
1969/12/31/18:00:13.844000,(-1 -4 -12 -35 -9 -3 0 3)
1969/12/31/18:00:13.844000,(7 6 12 30 12 4 1 1)
1969/12/31/18:00:13.870000,(1 0 1 43 11 1 -1 -2)
1969/12/31/18:00:13.870000,(5 -1 -14 -58 -17 -3 -2 1)
1969/12/31/18:00:13.871000,(-1 3 8 3 6 4 0 0)
1969/12/31/18:00:13.871000,(-2 0 6 22 10 3 -1 -2)
1969/12/31/18:00:13.874000,(-2 -2 0 -1 -2 -2 1 0)
1969/12/31/18:00:13.874000,(-2 -2 -2 -4 -4 -3 1 -1)
1969/12/31/18:00:13.890000,(-6 -8 -17 -63 -17 -10 -1 -4)
1969/12/31/18:00:13.890000,(2 7 23 91 14 4 5 2)
1969/12/31/18:00:13.892000,(-4 -3 -5 1 14 1 -3 -4)
1969/12/31/18:00:13.892000,(7 5 -3 -16 -6 3 3 5)
1969/12/31/18:00:13.913000,(-6 -1 8 16 1 6 -3 -1)
1969/12/31/18:00:13.913000,(6 3 -8 -27 -4 4 2 8)
1969/12/31/18:00:13.914000,(3 4 3 -16 -7 1 2 0)
1969/12/31/18:00:13.914000,(-3 -2 1 26 11 0 -1 -3)
1969/12/31/18:00:13.927000,(-4 -4 -7 -15 -4 -1 -1 -2)
1969/12/31/18:00:13.927000,(-5 -5 -5 -17 -7 -4 -4 -4)
1969/12/31/18:00:13.928000,(-2 0 1 6 -3 1 4 1)
1969/12/31/18:00:13.928000,(0 1 -1 -16 -7 -4 -6 -7)
1969/12/31/18:00:13.958000,(5 3 1 14 3 -1 1 3)
1969/12/31/18:00:13.958000,(-2 -8 -7 -12 -2 -2 -1 1)
1969/12/31/18:00:13.958000,(0 1 -3 -14 -6 -2 -1 -1)
1969/12/31/18:00:13.958000,(-5 0 10 32 13 5 5 2)
1969/12/31/18:00:13.972000,(-2 -3 -4 -2 -3 -4 -5 -3)
1969/12/31/18:00:13.972000,(2 0 -7 -16 -4 -1 0 -1)
1969/12/31/18:00:13.973000,(2 -1 -1 11 1 1 -1 3)
1969/12/31/18:00:13.973000,(3 0 7 8 -1 0 -1 0)
1969/12/31/18:00:13.987000,(0 2 2 -1 -1 2 1 -1)
1969/12/31/18:00:13.987000,(-3 -1 -3 -18 0 2 0 -3)
1969/12/31/18:00:13.988000,(-2 -2 -6 -12 -5 -1 -1 -1)
1969/12/31/18:00:13.988000,(-2 1 5 11 -7 -4 -4 -1)
1969/12/31/18:00:14.010000,(-2 0 5 11 17 1 3 1)
1969/12/31/18:00:14.010000,(4 4 1 14 13 5 4 5)
1969/12/31/18:00:14.010000,(-23 -9 0 -9 -4 -3 -7 -12)
1969/12/31/18:00:14.010000,(-9 -3 -4 10 -2 1 6 2)
1969/12/31/18:00:14.032000,(13 0 -2 -21 -12 -3 -5 -3)
1969/12/31/18:00:14.032000,(-5 -6 -10 -11 -9 -10 -9 -6)
1969/12/31/18:00:14.033000,(2 1 4 4 -1 -3 -3 0)
1969/12/31/18:00:14.033000,(-4 -4 -8 -17 -4 -5 0 -1)
1969/12/31/18:00:14.047000,(-8 -3 0 6 -1 4 7 1)
1969/12/31/18:00:14.047000,(5 8 9 9 8 1 5 4)
1969/12/31/18:00:14.048000,(-8 -10 -11 -27 -18 -15 -14 -10)
1969/12/31/18:00:14.048000,(2 -2 -6 2 -1 0 0 4)
1969/12/31/18:00:14.070000,(-7 1 4 16 9 -3 -4 -5)
1969/12/31/18:00:14.070000,(2 -5 -37 -86 -23 -3 2 2)
1969/12/31/18:00:14.070000,(6 5 26 68 5 0 2 5)
1969/12/31/18:00:14.070000,(3 12 40 82 35 8 1 -3)
1969/12/31/18:00:14.092000,(2 -1 6 18 11 1 0 5)
1969/12/31/18:00:14.092000,(-8 -4 0 -3 -4 2 1 -5)
1969/12/31/18:00:14.093000,(18 8 -20 -58 -18 -4 -1 5)
1969/12/31/18:00:14.093000,(-31 -28 -25 -47 -20 -5 0 7)
1969/12/31/18:00:14.107000,(35 25 13 22 14 18 18 13)
1969/12/31/18:00:14.107000,(-28 -15 -7 -5 -6 -11 -13 -14)
1969/12/31/18:00:14.108000,(44 13 6 2 8 10 15 20)
1969/12/31/18:00:14.108000,(-32 -12 -7 0 -8 -11 -15 -25)
1969/12/31/18:00:14.130000,(49 22 -5 -13 0 10 18 39)
1969/12/31/18:00:14.130000,(-5 1 7 14 1 -4 -7 -7)
1969/12/31/18:00:14.131000,(-8 -2 2 9 4 2 -2 -11)
1969/12/31/18:00:14.131000,(4 7 0 -38 -10 1 2 3)
1969/12/31/18:00:14.153000,(-28 -18 -12 -1 -3 -7 -10 -14)
1969/12/31/18:00:14.153000,(13 6 13 18 2 6 5 4)
1969/12/31/18:00:14.154000,(-10 -5 -1 20 8 -3 -4 -3)
1969/12/31/18:00:14.154000,(-6 -4 -2 -9 3 1 -2 -5)
1969/12/31/18:00:14.167000,(-17 -7 -5 -15 -11 -8 -10 -12)
1969/12/31/18:00:14.167000,(20 8 6 18 2 -5 -2 3)
1969/12/31/18:00:14.168000,(1 2 10 0 5 -5 -12 -8)
1969/12/31/18:00:14.168000,(8 3 -11 -17 -4 8 12 15)
1969/12/31/18:00:14.189000,(9 5 1 -5 -4 2 2 0)
1969/12/31/18:00:14.189000,(-23 -9 0 -2 -4 -8 -5 -12)
1969/12/31/18:00:14.190000,(-5 -7 -34 -94 -36 -5 2 3)
1969/12/31/18:00:14.190000,(18 4 -1 -27 -39 -12 -2 6)
1969/12/31/18:00:14.220000,(-22 -2 40 86 53 4 -7 -9)
1969/12/31/18:00:14.220000,(10 12 44 104 79 25 12 8)
1969/12/31/18:00:14.221000,(-4 -4 -25 -49 15 4 3 1)
1969/12/31/18:00:14.221000,(8 -2 2 14 -30 -3 -2 -3)
1969/12/31/18:00:14.227000,(-7 -10 -18 -32 -42 -16 -6 -4)
1969/12/31/18:00:14.227000,(-18 -4 6 -10 -8 0 0 -4)
1969/12/31/18:00:14.234000,(6 4 -11 -11 -2 -3 0 8)
1969/12/31/18:00:14.234000,(-61 -36 -10 -25 17 4 -14 -51)
1969/12/31/18:00:14.249000,(90 42 -10 -43 -14 4 20 60)
1969/12/31/18:00:14.249000,(-13 -15 -31 -40 -30 -10 -11 -19)
1969/12/31/18:00:14.250000,(-34 -16 23 61 6 -2 -2 -12)
1969/12/31/18:00:14.250000,(31 16 9 21 15 2 4 18)
1969/12/31/18:00:14.280000,(-41 -21 -14 -10 -3 -7 -13 -32)
1969/12/31/18:00:14.280000,(-4 -4 7 23 9 -1 1 3)
1969/12/31/18:00:14.281000,(11 7 -2 -8 28 9 13 11)
1969/12/31/18:00:14.281000,(9 7 16 68 -8 0 -3 2)
1969/12/31/18:00:14.287000,(-26 -13 -2 -48 -13 -8 -10 -18)
1969/12/31/18:00:14.287000,(25 12 -8 19 13 2 6 15)
1969/12/31/18:00:14.288000,(-15 -8 9 2 -8 -2 -6 -14)
1969/12/31/18:00:14.288000,(16 9 -1 14 25 4 3 8)
1969/12/31/18:00:14.309000,(-12 -14 -20 -42 -25 -8 -9 -10)
1969/12/31/18:00:14.309000,(4 2 -6 -21 -19 -1 7 6)
1969/12/31/18:00:14.310000,(-16 -4 17 37 3 2 -4 -5)
1969/12/31/18:00:14.310000,(82 60 7 -17 13 16 31 48)
1969/12/31/18:00:14.332000,(-46 -20 -1 13 5 -6 -17 -37)
1969/12/31/18:00:14.332000,(-6 -9 2 5 -9 -4 -4 4)
1969/12/31/18:00:14.333000,(9 3 -15 -43 -14 -3 -4 -4)
1969/12/31/18:00:14.333000,(-9 -12 -32 -54 -27 -9 -4 -1)
1969/12/31/18:00:14.346000,(3 8 30 108 34 8 6 8)
1969/12/31/18:00:14.347000,(-4 9 32 62 36 11 0 -9)
1969/12/31/18:00:14.347000,(13 -5 -23 -78 -8 -2 -3 -2)
1969/12/31/18:00:14.347000,(3 -4 -21 -7 -61 -15 -4 1)
1969/12/31/18:00:14.371000,(9 12 36 90 19 5 6 6)
1969/12/31/18:00:14.371000,(-53 -38 11 48 32 2 -7 -17)
1969/12/31/18:00:14.372000,(51 36 17 35 37 21 15 19)
1969/12/31/18:00:14.372000,(-18 -13 -21 -61 15 -5 -12 -17)
1969/12/31/18:00:14.392000,(3 -10 -53 -128 -63 -6 4 6)
1969/12/31/18:00:14.392000,(11 5 12 28 -24 -4 2 6)
1969/12/31/18:00:14.392000,(-10 4 24 74 14 -3 -1 -1)
1969/12/31/18:00:14.392000,(-30 -9 12 3 35 15 7 -8)
1969/12/31/18:00:14.407000,(-1 0 -6 -10 -4 -7 -7 -7)
1969/12/31/18:00:14.408000,(18 8 -27 -102 -31 0 6 10)
1969/12/31/18:00:14.408000,(-34 -23 -5 22 -20 -9 -3 -3)
1969/12/31/18:00:14.408000,(-8 5 14 46 30 -1 -11 -23)
1969/12/31/18:00:14.430000,(-22 -10 6 -9 7 1 1 -3)
1969/12/31/18:00:14.430000,(-5 -8 -41 -90 -26 -6 -4 -5)
1969/12/31/18:00:14.430000,(8 2 1 11 -29 -7 -5 -3)
1969/12/31/18:00:14.430000,(16 11 26 57 16 8 9 17)
1969/12/31/18:00:14.452000,(2 2 0 10 28 8 8 4)
1969/12/31/18:00:14.452000,(-15 -11 -1 11 -15 -4 -3 -4)
1969/12/31/18:00:14.452000,(-15 -9 -1 -7 0 -4 -7 -9)
1969/12/31/18:00:14.453000,(-4 -12 -32 -95 -30 -10 -9 -6)
1969/12/31/18:00:14.475000,(8 -2 4 57 -1 -2 -1 3)
1969/12/31/18:00:14.475000,(7 14 29 63 29 6 4 7)
1969/12/31/18:00:14.476000,(-19 -16 -10 11 -2 -10 -13 -12)
1969/12/31/18:00:14.476000,(23 23 23 21 12 17 14 5)
1969/12/31/18:00:14.489000,(-11 -7 -14 -51 -15 -5 -2 -4)
1969/12/31/18:00:14.489000,(17 9 -6 -22 -8 -1 2 5)
1969/12/31/18:00:14.490000,(-11 -16 3 8 2 4 7 13)
1969/12/31/18:00:14.490000,(22 21 -2 3 4 -10 -15 -13)
1969/12/31/18:00:14.512000,(10 3 -15 -66 -25 -10 -8 0)
1969/12/31/18:00:14.512000,(18 8 -17 -33 17 7 8 6)
1969/12/31/18:00:14.512000,(23 17 27 53 -12 5 10 12)
1969/12/31/18:00:14.512000,(-17 -14 6 36 30 0 -3 -1)
1969/12/31/18:00:14.527000,(1 2 5 -4 5 9 5 4)
1969/12/31/18:00:14.527000,(1 0 1 7 -1 -8 -12 -11)
1969/12/31/18:00:14.528000,(-10 -4 -6 -18 3 4 2 -3)
1969/12/31/18:00:14.528000,(-1 0 17 38 8 4 5 7)
1969/12/31/18:00:14.550000,(-17 -10 -1 18 9 -6 -10 -12)
1969/12/31/18:00:14.550000,(8 2 -19 -106 -40 -4 3 8)
1969/12/31/18:00:14.551000,(-6 -14 -16 22 7 -6 -5 -8)
1969/12/31/18:00:14.551000,(14 22 9 12 -2 6 17 28)
1969/12/31/18:00:14.573000,(-38 -25 -7 9 -5 -21 -40 -49)
1969/12/31/18:00:14.573000,(-18 -9 -4 4 -6 -2 -3 -1)
1969/12/31/18:00:14.574000,(29 18 3 -19 -6 0 -2 -1)
1969/12/31/18:00:14.574000,(-10 -15 -9 -16 -6 -11 -9 -7)
1969/12/31/18:00:14.587000,(4 5 -2 0 1 4 10 12)
1969/12/31/18:00:14.587000,(13 2 -2 9 14 14 16 17)
1969/12/31/18:00:14.588000,(-53 -13 -1 0 20 -6 -19 -32)
1969/12/31/18:00:14.588000,(22 0 -5 -7 -23 -1 4 18)
1969/12/31/18:00:14.609000,(17 7 0 -3 2 1 6 11)
1969/12/31/18:00:14.609000,(15 8 12 21 3 -7 -9 -3)
1969/12/31/18:00:14.610000,(-28 -12 2 -14 -2 0 0 -8)
1969/12/31/18:00:14.610000,(-60 -47 -36 -49 -17 -11 -12 -20)
1969/12/31/18:00:14.632000,(69 61 10 20 4 8 15 27)
1969/12/31/18:00:14.632000,(17 9 22 29 14 0 -8 -3)
1969/12/31/18:00:14.633000,(-4 -4 4 27 11 2 3 -1)
1969/12/31/18:00:14.633000,(-6 4 -1 -38 -15 -8 -9 -9)
1969/12/31/18:00:14.647000,(-49 -36 -17 -13 -9 -2 -4 -16)
1969/12/31/18:00:14.647000,(-15 -15 -3 26 10 -1 0 -4)
1969/12/31/18:00:14.648000,(22 18 -5 -34 -17 6 11 17)
1969/12/31/18:00:14.648000,(11 5 8 14 3 -5 -11 -15)
1969/12/31/18:00:14.669000,(-41 -33 8 16 10 5 4 -8)
1969/12/31/18:00:14.669000,(15 16 -7 -20 -11 -3 -4 -4)
1969/12/31/18:00:14.670000,(-20 -5 -8 -42 -14 -1 8 8)
1969/12/31/18:00:14.670000,(54 14 -8 -37 -2 -1 5 27)
1969/12/31/18:00:14.700000,(-24 -6 21 92 15 -2 -10 -28)
1969/12/31/18:00:14.700000,(-19 5 12 6 4 -4 -6 0)
1969/12/31/18:00:14.701000,(-14 -28 -37 -41 -23 -13 -19 -35)
1969/12/31/18:00:14.701000,(34 55 24 33 17 10 17 27)
1969/12/31/18:00:14.707000,(2 -6 6 -14 -6 -2 -6 -5)
1969/12/31/18:00:14.707000,(18 3 -10 -5 -1 4 8 6)
1969/12/31/18:00:14.708000,(5 4 4 -10 8 9 13 17)
1969/12/31/18:00:14.708000,(-19 -18 -15 -31 -7 1 0 -4)
1969/12/31/18:00:14.730000,(38 20 9 13 6 7 5 8)
1969/12/31/18:00:14.730000,(-55 -49 0 27 -9 -15 -20 -32)
1969/12/31/18:00:14.730000,(82 69 12 20 17 12 21 46)
1969/12/31/18:00:14.730000,(-42 -31 2 8 3 2 -5 -24)
1969/12/31/18:00:14.753000,(-11 4 -10 -46 -19 -2 3 6)
1969/12/31/18:00:14.753000,(-13 -26 -2 2 3 -4 -4 -6)
1969/12/31/18:00:14.753000,(-23 -9 -4 8 2 -2 4 10)
1969/12/31/18:00:14.753000,(58 35 19 43 3 3 0 -16)
1969/12/31/18:00:14.775000,(46 50 6 -19 4 13 22 47)
1969/12/31/18:00:14.775000,(-50 -14 -5 -20 -8 0 -7 -18)
1969/12/31/18:00:14.776000,(57 36 -3 -11 -1 8 9 26)
1969/12/31/18:00:14.776000,(-58 -35 -17 -12 0 -1 -10 -32)
1969/12/31/18:00:14.789000,(-12 -8 -22 -101 -22 -1 11 27)
1969/12/31/18:00:14.789000,(27 25 19 87 11 -4 -3 -7)
1969/12/31/18:00:14.790000,(-18 -20 -10 -24 -4 -8 -5 -6)
1969/12/31/18:00:14.790000,(8 3 28 81 7 10 8 11)
1969/12/31/18:00:14.812000,(-19 -17 23 82 36 11 3 -11)
1969/12/31/18:00:14.812000,(0 1 2 -30 6 0 1 6)
1969/12/31/18:00:14.813000,(8 2 12 47 6 -3 -9 -8)
1969/12/31/18:00:14.813000,(-27 -27 -15 -6 -24 -8 -5 -4)
1969/12/31/18:00:14.836000,(8 -5 -29 -93 -21 -5 0 2)
1969/12/31/18:00:14.836000,(38 26 -22 -61 -37 -6 3 17)
1969/12/31/18:00:14.836000,(-32 -8 8 8 12 1 -3 -17)
1969/12/31/18:00:14.837000,(56 11 17 23 23 18 25 52)
1969/12/31/18:00:14.849000,(-20 -24 -7 29 -6 -14 -24 -28)
1969/12/31/18:00:14.849000,(-2 5 -14 -55 -10 -2 -5 -11)
1969/12/31/18:00:14.850000,(-9 -14 2 8 -3 2 5 1)
1969/12/31/18:00:14.850000,(-33 5 6 -4 14 -4 -5 -12)
1969/12/31/18:00:14.873000,(4 6 5 44 -9 3 8 10)
