time,.data
1969/12/31/18:00:03.810,(-15 -3 -6 -2 0 -4 -7 -14)
1969/12/31/18:00:03.810,(22 -4 -8 -15 -7 -6 -2 7)
1969/12/31/18:00:03.811,(6 7 -5 -24 -32 0 2 -3)
1969/12/31/18:00:03.811,(-11 4 15 37 24 15 4 -9)
1969/12/31/18:00:03.832,(-57 -28 -13 17 15 -5 0 -12)
1969/12/31/18:00:03.832,(-9 -13 -3 -3 -4 -1 0 -1)
1969/12/31/18:00:03.834,(11 8 3 -7 -2 1 7 14)
1969/12/31/18:00:03.834,(22 15 6 -2 -2 -4 -8 1)
1969/12/31/18:00:03.847,(22 4 -8 -15 -13 1 10 10)
1969/12/31/18:00:03.847,(-1 2 0 2 0 -1 -4 -4)
1969/12/31/18:00:03.853,(3 1 0 10 13 -3 -9 -5)
1969/12/31/18:00:03.853,(-11 -9 -7 -14 -9 -3 2 -6)
1969/12/31/18:00:03.870,(5 -2 -3 -1 0 3 8 5)
1969/12/31/18:00:03.870,(2 5 4 2 1 -5 -2 1)
1969/12/31/18:00:03.871,(-8 -3 -2 2 5 1 -4 -11)
1969/12/31/18:00:03.871,(-2 5 0 -4 -5 -11 -13 -14)
1969/12/31/18:00:03.892,(-7 -8 -5 -10 -7 10 4 8)
1969/12/31/18:00:03.892,(13 2 -1 5 3 6 10 8)
1969/12/31/18:00:03.894,(-4 -4 -4 1 2 -3 -13 -12)
1969/12/31/18:00:03.894,(-18 -15 0 -1 -1 0 2 6)
1969/12/31/18:00:03.907,(-1 4 2 2 1 -5 -14 -17)
1969/12/31/18:00:03.907,(-10 1 -8 -3 -2 -3 -7 -10)
1969/12/31/18:00:03.913,(3 2 2 5 9 0 -1 -3)
1969/12/31/18:00:03.913,(-1 7 2 -6 -6 -3 -1 2)
1969/12/31/18:00:03.929,(15 7 5 2 -1 0 6 13)
1969/12/31/18:00:03.930,(5 9 8 9 7 4 -17 -14)
1969/12/31/18:00:03.931,(-4 -11 -8 -5 -8 -1 10 8)
1969/12/31/18:00:03.931,(-4 -2 0 1 -4 -3 -12 -7)
1969/12/31/18:00:03.952,(9 3 -5 -11 -5 6 5 1)
1969/12/31/18:00:03.952,(0 1 1 2 0 -7 1 13)
1969/12/31/18:00:03.954,(-43 -22 -7 -5 1 -1 0 -17)
1969/12/31/18:00:03.954,(27 19 11 10 12 -5 -18 -10)
1969/12/31/18:00:03.967,(1 -9 -4 -3 -7 -2 -9 -3)
1969/12/31/18:00:03.967,(-21 -2 -5 -11 -9 -8 -2 -16)
1969/12/31/18:00:03.975,(11 5 5 -5 -9 -4 1 3)
1969/12/31/18:00:03.975,(-14 -15 -7 3 12 6 -9 -5)
1969/12/31/18:00:03.990,(9 4 -3 -1 2 -2 14 9)
1969/12/31/18:00:03.990,(-10 -15 -4 9 8 15 24 11)
1969/12/31/18:00:03.991,(-3 4 -7 -4 -6 -14 -10 9)
1969/12/31/18:00:03.991,(17 14 4 1 -4 -9 -19 -22)
1969/12/31/18:00:04.012,(28 3 2 0 1 3 0 32)
1969/12/31/18:00:04.012,(-33 -20 -13 -16 -12 -4 8 -2)
1969/12/31/18:00:04.014,(6 2 1 -8 -1 8 3 1)
1969/12/31/18:00:04.014,(-10 -4 -8 -21 5 -2 -1 5)
1969/12/31/18:00:04.026,(0 3 5 13 -10 8 5 -8)
1969/12/31/18:00:04.026,(35 10 0 1 11 -3 0 16)
1969/12/31/18:00:04.035,(-33 -4 -5 9 15 11 20 11)
1969/12/31/18:00:04.035,(-32 -18 -1 2 -4 -2 -58 -62)
1969/12/31/18:00:04.050,(-25 -19 -20 -60 -64 -33 15 -2)
1969/12/31/18:00:04.050,(-2 -6 -2 9 27 46 0 -9)
1969/12/31/18:00:04.051,(26 10 -3 -22 -42 -66 -28 9)
1969/12/31/18:00:04.051,(-10 -4 14 60 40 2 43 32)
1969/12/31/18:00:04.072,(-4 3 8 48 43 -5 -34 -14)
1969/12/31/18:00:04.072,(1 9 3 -14 -32 -6 -15 -7)
1969/12/31/18:00:04.074,(6 3 -14 -76 -71 55 59 1)
1969/12/31/18:00:04.074,(-10 -10 -12 -1 2 -82 -67 0)
1969/12/31/18:00:04.086,(1 -14 -5 -9 -36 34 5 0)
1969/12/31/18:00:04.086,(8 15 28 77 65 6 9 7)
1969/12/31/18:00:04.095,(1 -2 3 38 60 92 -6 1)
1969/12/31/18:00:04.095,(2 -8 -17 -52 -74 -72 26 7)
1969/12/31/18:00:04.110,(-4 7 3 1 16 4 -9 -34)
1969/12/31/18:00:04.110,(-12 -14 -18 -31 -23 -27 11 -3)
1969/12/31/18:00:04.112,(27 9 8 -3 -13 -38 -11 -5)
1969/12/31/18:00:04.112,(34 17 14 6 27 73 -17 18)
1969/12/31/18:00:04.132,(-52 -7 -5 5 10 -39 -17 -10)
1969/12/31/18:00:04.132,(4 3 -4 -20 -20 7 -4 -6)
1969/12/31/18:00:04.134,(-5 -13 -1 -23 -30 -38 -28 -26)
1969/12/31/18:00:04.134,(18 18 21 67 52 33 35 20)
1969/12/31/18:00:04.146,(8 -9 -5 17 19 2 6 8)
1969/12/31/18:00:04.146,(-2 -10 -15 -41 -24 2 -12 -2)
1969/12/31/18:00:04.155,(-5 7 14 52 38 31 27 2)
1969/12/31/18:00:04.155,(-3 3 -5 -29 -25 -22 -24 -12)
1969/12/31/18:00:04.170,(35 16 14 13 8 18 7 25)
1969/12/31/18:00:04.170,(-18 -9 -8 -7 -14 -16 -12 -11)
1969/12/31/18:00:04.172,(2 -5 -6 -2 3 -21 0 18)
1969/12/31/18:00:04.172,(-16 -14 -13 -25 -31 6 5 -24)
1969/12/31/18:00:04.192,(8 12 0 1 14 1 0 -1)
1969/12/31/18:00:04.192,(9 -3 -3 -12 -15 -19 -7 -3)
1969/12/31/18:00:04.194,(3 -4 -3 12 16 -2 7 11)
1969/12/31/18:00:04.194,(-5 -10 7 5 8 30 39 27)
1969/12/31/18:00:04.206,(-13 -12 -24 -20 -11 -5 -11 -17)
1969/12/31/18:00:04.206,(7 25 24 18 9 3 10 15)
1969/12/31/18:00:04.215,(-7 13 14 13 9 -1 -15 -22)
1969/12/31/18:00:04.215,(-18 -13 -9 -15 -9 13 15 3)
1969/12/31/18:00:04.230,(4 0 -2 -13 -7 -8 -1 -4)
1969/12/31/18:00:04.230,(25 3 2 9 3 5 3 4)
1969/12/31/18:00:04.231,(-6 -17 -31 -5 4 -10 -8 1)
1969/12/31/18:00:04.231,(25 -5 -26 -22 -11 4 14 16)
1969/12/31/18:00:04.252,(5 17 36 11 4 1 0 7)
1969/12/31/18:00:04.252,(-22 21 33 27 13 5 -8 -16)
1969/12/31/18:00:04.254,(-6 -3 2 0 -3 -7 -19 -23)
1969/12/31/18:00:04.254,(-14 -33 -22 -14 -10 2 7 12)
1969/12/31/18:00:04.266,(29 7 -28 -20 -7 -1 -5 -6)
1969/12/31/18:00:04.266,(17 12 -11 0 -2 -3 3 8)
1969/12/31/18:00:04.275,(-11 -4 -2 -5 1 -9 -8 -2)
1969/12/31/18:00:04.275,(11 44 51 17 8 11 16 12)
1969/12/31/18:00:04.297,(-14 -16 -10 10 8 6 5 9)
1969/12/31/18:00:04.297,(0 1 16 -1 -2 -3 -4 -2)
1969/12/31/18:00:04.299,(-10 -18 -10 3 6 1 8 6)
1969/12/31/18:00:04.299,(15 -25 -34 -24 -9 -8 -12 -17)
1969/12/31/18:00:04.312,(5 11 11 -2 -3 -1 1 -4)
1969/12/31/18:00:04.312,(-31 -17 -8 -2 3 0 2 -7)
1969/12/31/18:00:04.314,(18 6 -6 3 -1 0 -7 -4)
1969/12/31/18:00:04.314,(-8 12 18 5 -2 4 4 -3)
1969/12/31/18:00:04.326,(10 4 1 -3 -1 -3 -2 8)
1969/12/31/18:00:04.326,(-7 -10 -11 -6 -7 -4 2 -4)
1969/12/31/18:00:04.335,(2 -12 -6 -6 -1 -8 -6 0)
1969/12/31/18:00:04.335,(-10 18 1 -1 -3 -3 -3 -6)
1969/12/31/18:00:04.349,(7 -1 11 4 3 3 3 10)
1969/12/31/18:00:04.350,(5 -6 -13 -4 0 4 -6 -17)
1969/12/31/18:00:04.351,(-5 25 25 7 5 6 3 -10)
1969/12/31/18:00:04.351,(-8 -23 -19 -14 -8 -10 -4 19)
1969/12/31/18:00:04.372,(0 13 -5 1 1 -2 3 2)
1969/12/31/18:00:04.372,(27 0 17 5 3 0 -2 -8)
1969/12/31/18:00:04.374,(-33 -13 -4 1 1 2 0 -19)
1969/12/31/18:00:04.374,(3 -5 -8 -5 -2 4 3 3)
1969/12/31/18:00:04.386,(10 -1 -3 1 0 0 -1 22)
1969/12/31/18:00:04.386,(-8 -1 -2 -2 -6 -8 1 -17)
1969/12/31/18:00:04.395,(1 1 1 2 -2 1 8 4)
1969/12/31/18:00:04.395,(-3 10 3 3 8 6 -3 -10)
1969/12/31/18:00:04.410,(-2 -9 -1 -7 -6 -5 5 10)
1969/12/31/18:00:04.410,(-14 -1 -4 4 5 6 -7 -6)
1969/12/31/18:00:04.411,(-1 -8 -1 -1 -1 -6 -22 -4)
1969/12/31/18:00:04.411,(-1 -2 -3 2 1 3 17 13)
1969/12/31/18:00:04.432,(-7 -32 -22 -11 -3 -2 0 0)
1969/12/31/18:00:04.432,(3 43 28 14 5 6 10 16)
1969/12/31/18:00:04.434,(4 -10 -9 -5 -3 -3 -9 -13)
1969/12/31/18:00:04.434,(-3 8 6 1 -5 -7 -6 -13)
1969/12/31/18:00:04.446,(-3 7 3 0 0 -1 -2 -15)
1969/12/31/18:00:04.446,(3 -25 -27 -14 -8 -7 5 23)
1969/12/31/18:00:04.455,(4 13 15 3 2 3 8 14)
1969/12/31/18:00:04.455,(0 8 11 10 1 3 6 -3)
1969/12/31/18:00:04.469,(-9 -14 -2 -4 -6 0 -5 -10)
1969/12/31/18:00:04.469,(-3 8 -5 -2 1 5 -4 -2)
1969/12/31/18:00:04.476,(-2 -8 -5 2 -3 -8 -1 2)
1969/12/31/18:00:04.476,(-3 -8 -9 -11 -6 -3 1 -4)
1969/12/31/18:00:04.492,(0 22 22 11 5 8 18 2)
1969/12/31/18:00:04.492,(-9 -56 -36 -19 -9 -9 -20 -7)
1969/12/31/18:00:04.494,(6 39 6 6 5 -1 -25 -10)
1969/12/31/18:00:04.494,(3 40 31 11 5 7 2 -9)
1969/12/31/18:00:04.506,(-5 -25 -14 -6 0 4 8 18)
1969/12/31/18:00:04.506,(-1 18 14 5 -2 -3 6 -4)
1969/12/31/18:00:04.516,(-2 -31 -18 -7 -5 -4 -1 7)
1969/12/31/18:00:04.516,(-9 -20 -8 -2 -1 0 7 0)
1969/12/31/18:00:04.530,(9 12 2 -7 -3 -3 -10 -7)
1969/12/31/18:00:04.530,(5 4 15 11 2 -1 0 1)
1969/12/31/18:00:04.531,(-11 -14 1 0 3 7 14 7)
1969/12/31/18:00:04.531,(5 10 9 5 0 -1 -8 -1)
1969/12/31/18:00:04.552,(-3 0 4 3 2 1 0 -3)
1969/12/31/18:00:04.552,(-9 -16 -15 -11 -4 -5 -11 -1)
1969/12/31/18:00:04.554,(5 5 4 1 0 3 7 4)
1969/12/31/18:00:04.554,(2 -11 -14 -10 -5 -3 -12 -6)
1969/12/31/18:00:04.566,(-6 11 12 8 1 -4 -13 -11)
1969/12/31/18:00:04.566,(-6 -9 0 4 5 7 8 2)
1969/12/31/18:00:04.575,(1 5 -9 -3 -1 -2 1 -1)
1969/12/31/18:00:04.575,(-2 -28 -28 -19 -8 -2 1 -1)
1969/12/31/18:00:04.590,(5 42 30 16 7 3 -19 -14)
1969/12/31/18:00:04.590,(1 1 -3 3 -2 -6 5 5)
1969/12/31/18:00:04.596,(-1 -9 -27 -26 -9 -6 9 9)
1969/12/31/18:00:04.596,(-6 -9 31 25 9 -2 0 1)
1969/12/31/18:00:04.612,(-10 -26 -26 -15 -3 -6 3 -1)
1969/12/31/18:00:04.612,(-11 2 -4 -9 -3 -6 1 0)
1969/12/31/18:00:04.614,(9 9 5 8 5 0 3 6)
1969/12/31/18:00:04.614,(-2 1 -19 -13 -5 -3 1 -1)
1969/12/31/18:00:04.626,(-6 4 15 7 1 -6 -6 -8)
1969/12/31/18:00:04.626,(-14 -42 -49 -36 -15 -7 -2 3)
1969/12/31/18:00:04.635,(4 8 36 16 3 -4 3 -1)
1969/12/31/18:00:04.635,(6 32 25 24 10 2 -2 4)
1969/12/31/18:00:04.650,(-17 -57 -29 -18 -10 -1 0 2)
1969/12/31/18:00:04.650,(3 24 -19 -9 -8 -8 -12 -10)
1969/12/31/18:00:04.682,(4 -4 -7 -2 -1 5 2 2)
1969/12/31/18:00:04.682,(-9 -8 -12 -10 -5 -1 -4 -5)
1969/12/31/18:00:04.683,(18 23 14 1 1 0 -6 -4)
1969/12/31/18:00:04.683,(-2 -12 7 11 2 3 0 2)
1969/12/31/18:00:04.687,(0 5 -2 -6 -7 -6 -5 -2)
1969/12/31/18:00:04.687,(-2 -7 -11 0 -4 1 -3 -3)
1969/12/31/18:00:04.687,(-11 -18 -29 -14 -3 4 7 1)
1969/12/31/18:00:04.687,(9 15 18 6 4 -2 -6 -4)
1969/12/31/18:00:04.695,(-2 5 7 -1 3 6 -3 -3)
1969/12/31/18:00:04.695,(1 -1 -9 -2 -1 -3 -4 1)
1969/12/31/18:00:04.709,(-2 2 3 3 -3 -4 -3 -2)
1969/12/31/18:00:04.709,(6 12 19 10 0 2 2 3)
1969/12/31/18:00:04.716,(-3 -2 -1 2 0 1 -1 -2)
1969/12/31/18:00:04.716,(-6 -18 -6 -8 -3 -4 -9 -8)
1969/12/31/18:00:04.732,(-3 -3 -3 -5 -3 2 -3 -3)
1969/12/31/18:00:04.732,(7 4 8 8 6 5 -2 0)
1969/12/31/18:00:04.734,(-12 -18 -12 -10 -7 -2 -3 -5)
1969/12/31/18:00:04.734,(7 14 5 -2 -4 -4 -3 0)
1969/12/31/18:00:04.755,(7 15 6 7 5 -3 -1 0)
1969/12/31/18:00:04.755,(-10 -17 -13 -4 0 -2 6 4)
1969/12/31/18:00:04.756,(1 15 9 1 3 -6 4 3)
1969/12/31/18:00:04.756,(-4 2 -2 0 2 -6 3 1)
1969/12/31/18:00:04.777,(2 3 1 4 -1 -1 3 1)
1969/12/31/18:00:04.777,(-6 -21 -11 -13 -4 2 0 7)
1969/12/31/18:00:04.779,(2 6 16 11 3 6 -2 -5)
1969/12/31/18:00:04.779,(18 30 5 7 3 2 -10 -8)
1969/12/31/18:00:04.792,(-12 -20 -11 -5 -7 -4 0 6)
1969/12/31/18:00:04.792,(1 13 6 1 -4 0 -2 -5)
1969/12/31/18:00:04.794,(-5 -15 -7 -4 -4 2 -2 0)
1969/12/31/18:00:04.794,(-4 -9 5 -3 -5 3 1 1)
1969/12/31/18:00:04.815,(2 7 3 6 3 1 -6 -8)
1969/12/31/18:00:04.815,(6 4 7 3 2 -1 0 0)
1969/12/31/18:00:04.816,(0 -3 -2 -1 -3 -6 -3 -2)
1969/12/31/18:00:04.816,(1 -2 2 2 -2 -2 2 -3)
1969/12/31/18:00:04.829,(0 -1 -4 -3 -5 -1 -3 1)
1969/12/31/18:00:04.829,(-3 0 1 -2 -2 1 0 1)
1969/12/31/18:00:04.836,(-3 -6 -7 0 2 -1 4 3)
1969/12/31/18:00:04.836,(-3 0 1 -1 1 -6 -9 -9)
1969/12/31/18:00:04.853,(-5 -3 -3 -2 0 -3 4 0)
1969/12/31/18:00:04.853,(-6 -7 -11 -11 -7 -4 3 6)
1969/12/31/18:00:04.854,(-3 -3 -7 -6 0 -1 1 4)
1969/12/31/18:00:04.854,(-4 -11 -4 -5 -1 0 0 3)
1969/12/31/18:00:04.875,(2 8 8 1 2 0 0 0)
1969/12/31/18:00:04.875,(0 -1 -3 5 2 0 -2 -2)
1969/12/31/18:00:04.876,(-1 -4 -2 -1 -1 0 -2 0)
1969/12/31/18:00:04.876,(-4 -9 -1 -4 -2 1 1 1)
1969/12/31/18:00:04.889,(-1 -1 -6 -6 -4 -1 -4 -4)
1969/12/31/18:00:04.889,(0 5 5 2 3 2 -1 -5)
1969/12/31/18:00:04.896,(4 1 4 5 1 0 -3 -4)
1969/12/31/18:00:04.896,(-1 -4 -3 -4 0 0 -1 0)
1969/12/31/18:00:04.912,(1 2 3 1 2 0 0 -2)
1969/12/31/18:00:04.912,(-1 1 3 0 1 1 -3 -4)
1969/12/31/18:00:04.914,(-1 -3 -2 -1 -2 2 -3 -2)
1969/12/31/18:00:04.914,(0 -5 -4 -2 -3 3 -1 -1)
1969/12/31/18:00:04.943,(0 -3 -2 4 -1 3 -5 -3)
1969/12/31/18:00:04.943,(0 1 3 1 0 0 -1 -2)
1969/12/31/18:00:04.944,(1 3 1 0 0 5 7 4)
1969/12/31/18:00:04.944,(-7 -4 -5 -6 -5 -19 -5 0)
1969/12/31/18:00:04.948,(-5 -4 3 2 2 4 -4 -8)
1969/12/31/18:00:04.948,(0 -1 -3 2 -4 -4 1 -5)
1969/12/31/18:00:04.957,(3 4 -2 1 11 53 29 7)
1969/12/31/18:00:04.957,(-2 -5 -9 -1 1 -40 -12 3)
1969/12/31/18:00:04.972,(-2 6 -2 -41 -28 -34 3 1)
1969/12/31/18:00:04.972,(-2 5 12 66 47 6 26 7)
1969/12/31/18:00:04.974,(-7 -9 -13 -13 0 -14 -4 11)
1969/12/31/18:00:04.974,(-3 -6 -23 -10 8 40 17 0)
1969/12/31/18:00:04.994,(-4 0 -11 12 9 0 47 17)
1969/12/31/18:00:04.994,(2 7 15 -27 -28 -32 -29 3)
1969/12/31/18:00:04.995,(0 3 -2 -8 -9 -32 4 5)
1969/12/31/18:00:04.995,(-5 -11 -8 6 1 25 -56 -30)
1969/12/31/18:00:05.017,(1 -6 -6 -13 2 14 -12 -4)
1969/12/31/18:00:05.017,(2 -2 15 7 -6 15 27 9)
1969/12/31/18:00:05.017,(3 5 16 16 2 -11 -68 -21)
1969/12/31/18:00:05.017,(-7 -8 -22 -31 -38 -103 -21 -5)
1969/12/31/18:00:05.032,(-1 -1 29 22 6 52 -29 -23)
1969/12/31/18:00:05.032,(1 -6 -29 -9 -11 -48 17 8)
1969/12/31/18:00:05.032,(-6 -5 10 -6 2 3 -16 -11)
1969/12/31/18:00:05.032,(5 2 17 23 3 51 52 19)
1969/12/31/18:00:05.055,(3 0 -18 -14 2 -21 -29 -21)
1969/12/31/18:00:05.055,(0 6 17 16 9 17 -17 -9)
1969/12/31/18:00:05.061,(4 12 53 44 5 4 25 -1)
1969/12/31/18:00:05.061,(3 3 -5 -15 2 16 4 8)
1969/12/31/18:00:05.069,(-2 -8 -3 -2 -6 -10 5 2)
1969/12/31/18:00:05.069,(-1 -8 -25 -21 -10 19 -6 -1)
1969/12/31/18:00:05.076,(-6 -6 -27 -19 -3 -9 -5 -3)
1969/12/31/18:00:05.076,(3 9 25 9 2 5 7 -7)
1969/12/31/18:00:05.092,(-4 -4 -13 -1 1 -3 -4 5)
1969/12/31/18:00:05.092,(-4 -6 -3 -20 -6 -3 -10 -11)
1969/12/31/18:00:05.092,(1 -3 -8 -6 -6 2 16 10)
1969/12/31/18:00:05.092,(-1 2 7 5 9 2 3 5)
1969/12/31/18:00:05.114,(0 1 3 1 -2 -6 7 0)
1969/12/31/18:00:05.114,(-2 -4 -3 -6 0 4 -9 0)
1969/12/31/18:00:05.115,(1 -4 -8 1 -2 -6 4 -1)
1969/12/31/18:00:05.115,(-2 1 -3 -3 0 1 -3 -3)
1969/12/31/18:00:05.128,(-1 3 1 4 2 -8 1 5)
1969/12/31/18:00:05.128,(-4 -2 -4 -7 -4 2 3 -2)
1969/12/31/18:00:05.136,(-1 -3 -21 -12 -7 -12 -8 -11)
1969/12/31/18:00:05.136,(-2 3 6 2 4 -2 4 3)
1969/12/31/18:00:05.151,(0 1 2 7 3 3 10 15)
1969/12/31/18:00:05.151,(-4 -3 -3 -4 0 -2 -12 -10)
1969/12/31/18:00:05.152,(-3 2 -4 -8 -6 -2 2 -2)
1969/12/31/18:00:05.152,(0 1 -3 1 -1 -1 -1 0)
1969/12/31/18:00:05.175,(-1 0 1 2 1 1 4 5)
1969/12/31/18:00:05.175,(0 -1 -1 -4 -2 0 0 1)
1969/12/31/18:00:05.182,(-4 -9 -7 -4 -3 -6 -8 -5)
1969/12/31/18:00:05.182,(-4 -2 0 0 -1 0 11 8)
1969/12/31/18:00:05.188,(3 6 1 5 1 -6 -13 -9)
1969/12/31/18:00:05.188,(-4 1 1 -4 -2 -4 3 0)
1969/12/31/18:00:05.196,(-1 -8 -9 -3 3 0 -2 -4)
1969/12/31/18:00:05.196,(0 -19 -25 -11 -6 1 12 35)
1969/12/31/18:00:05.227,(-6 39 52 16 4 -4 -8 -18)
1969/12/31/18:00:05.227,(0 -1 0 2 1 2 -15 -14)
1969/12/31/18:00:05.228,(3 3 6 4 -2 0 -8 -6)
1969/12/31/18:00:05.228,(-5 -17 -11 -4 -3 13 7 -5)
1969/12/31/18:00:05.235,(13 -8 -11 -1 0 4 -6 5)
1969/12/31/18:00:05.235,(-5 0 6 0 -2 1 -7 -13)
1969/12/31/18:00:05.236,(-5 -4 -6 -5 -4 -3 1 3)
1969/12/31/18:00:05.236,(14 9 16 11 8 -1 -12 -6)
1969/12/31/18:00:05.248,(-16 -7 -11 -5 -3 -3 10 -7)
1969/12/31/18:00:05.248,(-8 -4 0 -5 -5 -6 0 9)
1969/12/31/18:00:05.256,(-7 -15 -17 -11 -5 3 20 19)
1969/12/31/18:00:05.256,(2 7 9 1 -2 -1 0 -5)
1969/12/31/18:00:05.272,(3 -2 0 1 0 0 -4 4)
1969/12/31/18:00:05.272,(31 2 -8 -5 0 2 5 28)
1969/12/31/18:00:05.272,(-10 5 2 1 2 3 5 -16)
1969/12/31/18:00:05.272,(-3 6 3 -1 -1 -7 -6 -3)
1969/12/31/18:00:05.294,(-41 -32 -22 -13 -9 -16 -13 -24)
1969/12/31/18:00:05.294,(-8 5 -1 -3 1 8 11 10)
1969/12/31/18:00:05.302,(33 8 11 7 2 1 -14 18)
1969/12/31/18:00:05.302,(9 6 10 7 3 9 6 1)
1969/12/31/18:00:05.308,(33 2 -13 -7 -4 3 -11 11)
1969/12/31/18:00:05.308,(-61 -31 -3 2 -3 0 7 -30)
1969/12/31/18:00:05.316,(-31 -7 -5 -1 -1 1 -23 -33)
1969/12/31/18:00:05.316,(13 6 2 1 1 -17 1 16)
1969/12/31/18:00:05.333,(1 -2 0 -3 1 4 13 14)
1969/12/31/18:00:05.333,(23 24 9 4 2 -13 -13 5)
1969/12/31/18:00:05.334,(30 11 6 6 3 -5 -25 -14)
1969/12/31/18:00:05.334,(-71 -34 -11 -9 -7 0 5 -32)
1969/12/31/18:00:05.362,(49 40 19 12 12 15 11 34)
1969/12/31/18:00:05.362,(-14 -21 -16 -10 0 37 27 14)
1969/12/31/18:00:05.363,(-16 -11 -10 -7 -10 -30 -6 -4)
1969/12/31/18:00:05.363,(18 13 6 3 9 54 19 -8)
1969/12/31/18:00:05.368,(11 -38 -23 -16 -26 -50 2 30)
1969/12/31/18:00:05.368,(17 2 -1 -2 -1 -10 6 -10)
1969/12/31/18:00:05.376,(35 43 14 8 6 7 14 9)
1969/12/31/18:00:05.376,(-43 -39 -21 -12 -11 -5 -34 -64)
1969/12/31/18:00:05.392,(-67 -17 5 6 5 23 18 13)
1969/12/31/18:00:05.392,(70 32 10 7 8 21 3 55)
1969/12/31/18:00:05.392,(-90 -64 -23 -19 -17 -38 -36 -84)
1969/12/31/18:00:05.392,(48 46 21 13 7 -19 3 3)
1969/12/31/18:00:05.414,(6 4 -4 -2 4 46 -5 -27)
1969/12/31/18:00:05.414,(-30 -11 -3 -1 -5 -35 -40 -16)
1969/12/31/18:00:05.415,(48 30 19 13 8 -10 21 46)
1969/12/31/18:00:05.415,(-44 -14 -6 -2 -1 10 13 13)
1969/12/31/18:00:05.437,(-10 -28 -10 -5 -4 -24 -32 -13)
1969/12/31/18:00:05.437,(14 8 0 -2 -2 4 20 32)
1969/12/31/18:00:05.437,(36 24 1 -2 9 63 55 58)
1969/12/31/18:00:05.437,(6 16 9 7 -3 -67 -9 53)
1969/12/31/18:00:05.452,(11 -26 -9 -7 -6 13 -10 -51)
1969/12/31/18:00:05.452,(-1 13 4 2 7 29 -3 1)
1969/12/31/18:00:05.452,(-37 -25 -6 -7 -8 -7 -13 -8)
1969/12/31/18:00:05.452,(48 25 5 -1 1 12 8 10)
1969/12/31/18:00:05.474,(25 38 6 1 -2 20 18 17)
1969/12/31/18:00:05.474,(-3 -29 -9 -3 -1 -19 -6 15)
1969/12/31/18:00:05.475,(-20 -10 -8 -3 -2 -2 -1 -17)
1969/12/31/18:00:05.475,(-12 -13 -11 -10 -11 13 -49 -43)
1969/12/31/18:00:05.497,(-5 19 12 10 0 -68 -23 -31)
1969/12/31/18:00:05.497,(-23 -13 -11 -9 -4 51 8 1)
1969/12/31/18:00:05.498,(-15 -2 6 4 -1 -21 8 -23)
1969/12/31/18:00:05.498,(7 -16 -4 -3 -5 -38 -9 31)
1969/12/31/18:00:05.512,(24 7 1 3 9 33 46 64)
1969/12/31/18:00:05.512,(-8 5 0 -2 0 20 6 -12)
1969/12/31/18:00:05.512,(7 2 -1 -1 -2 -2 35 40)
1969/12/31/18:00:05.513,(-3 7 2 -2 -2 8 -8 -33)
1969/12/31/18:00:05.544,(-15 1 2 2 8 17 -18 -30)
1969/12/31/18:00:05.544,(6 -16 -5 0 -5 -15 15 24)
1969/12/31/18:00:05.545,(12 8 7 7 10 26 7 9)
1969/12/31/18:00:05.545,(-41 -30 -22 -18 -17 -8 -11 -10)
1969/12/31/18:00:05.557,(-8 7 3 3 1 -33 0 20)
1969/12/31/18:00:05.557,(8 -3 -5 -7 -12 -42 4 0)
1969/12/31/18:00:05.558,(5 -4 5 4 6 23 -8 1)
1969/12/31/18:00:05.558,(5 14 3 4 6 -1 -11 -12)
1969/12/31/18:00:05.580,(-7 -5 3 3 3 0 7 -21)
1969/12/31/18:00:05.580,(-12 0 2 1 -3 -11 -13 -41)
1969/12/31/18:00:05.580,(30 17 2 3 5 3 38 75)
1969/12/31/18:00:05.580,(-5 1 2 3 3 3 -33 -19)
1969/12/31/18:00:05.594,(-14 -12 -11 -9 -9 -1 8 -11)
1969/12/31/18:00:05.594,(-4 1 2 1 -4 -10 3 -16)
1969/12/31/18:00:05.595,(4 -1 -7 -4 -1 1 -13 -18)
1969/12/31/18:00:05.595,(-8 6 5 4 8 17 44 83)
1969/12/31/18:00:05.608,(-31 -3 -8 -7 -8 -16 -34 -78)
1969/12/31/18:00:05.608,(11 -12 5 4 7 8 11 18)
1969/12/31/18:00:05.616,(30 12 9 5 3 10 0 53)
1969/12/31/18:00:05.616,(-12 -29 -19 -17 -14 -12 8 -10)
1969/12/31/18:00:05.631,(-9 -7 -5 -4 -3 -3 -6 45)
1969/12/31/18:00:05.631,(-4 12 1 -3 -11 -64 -1 -8)
1969/12/31/18:00:05.632,(-2 3 2 2 2 20 4 -8)
1969/12/31/18:00:05.632,(14 1 -1 2 2 -2 -1 -31)
1969/12/31/18:00:05.654,(8 5 1 0 -2 1 -3 8)
1969/12/31/18:00:05.654,(12 14 11 9 7 -16 -29 -42)
1969/12/31/18:00:05.655,(1 -10 -8 -6 -6 3 -21 -64)
1969/12/31/18:00:05.655,(-30 -14 -6 0 1 33 5 1)
1969/12/31/18:00:05.677,(31 -4 -7 -9 -10 -1 3 28)
1969/12/31/18:00:05.677,(15 18 8 6 5 1 -11 -9)
1969/12/31/18:00:05.678,(-23 -18 -15 -15 -14 -25 -26 -46)
1969/12/31/18:00:05.678,(5 11 7 0 4 13 22 -11)
1969/12/31/18:00:05.692,(-6 -18 -3 1 2 0 17 -11)
1969/12/31/18:00:05.692,(7 3 -1 0 4 23 -6 40)
1969/12/31/18:00:05.692,(-3 8 2 2 6 26 -5 -12)
1969/12/31/18:00:05.692,(21 1 2 4 -5 -46 -1 -2)
1969/12/31/18:00:05.714,(23 23 9 8 8 24 24 13)
1969/12/31/18:00:05.714,(13 -9 -7 -10 -10 -8 -26 -10)
1969/12/31/18:00:05.715,(-12 -11 -8 -5 -6 -1 -3 -4)
1969/12/31/18:00:05.715,(18 -3 -5 -7 -3 -4 -10 28)
1969/12/31/18:00:05.745,(16 14 12 20 29 14 18 35)
1969/12/31/18:00:05.745,(-24 -4 -5 -2 0 22 -11 6)
1969/12/31/18:00:05.745,(3 4 -4 -12 -20 -35 -3 -21)
1969/12/31/18:00:05.745,(6 15 2 -5 -14 -3 1 -39)
1969/12/31/18:00:05.751,(-16 -6 -6 -16 -25 10 -5 -6)
1969/12/31/18:00:05.751,(-35 -30 -9 -3 -1 -22 1 20)
1969/12/31/18:00:05.752,(14 5 4 8 11 2 4 48)
1969/12/31/18:00:05.752,(-23 -13 -1 4 10 -21 -23 -18)
1969/12/31/18:00:05.782,(7 11 6 14 44 26 38 9)
1969/12/31/18:00:05.782,(7 22 12 15 1 36 7 -28)
1969/12/31/18:00:05.783,(-66 -18 -9 -9 -21 -15 -12 -24)
1969/12/31/18:00:05.783,(93 31 18 11 -11 4 0 52)
1969/12/31/18:00:05.797,(-73 -34 -13 -16 -23 -35 -48 -101)
1969/12/31/18:00:05.797,(6 4 -3 -8 6 6 7 -2)
1969/12/31/18:00:05.798,(-32 -19 -2 10 38 13 -14 -19)
1969/12/31/18:00:05.798,(0 8 5 11 18 34 20 12)
1969/12/31/18:00:05.812,(-10 -4 -5 -17 -40 -33 -12 -15)
1969/12/31/18:00:05.812,(23 10 3 4 12 9 4 16)
1969/12/31/18:00:05.812,(5 -13 -10 -10 -3 11 -1 10)
1969/12/31/18:00:05.812,(-5 4 8 19 59 36 13 23)
1969/12/31/18:00:05.834,(10 -4 -1 -8 -38 -15 4 -3)
1969/12/31/18:00:05.834,(17 14 -2 -21 -62 -59 -32 -43)
1969/12/31/18:00:05.835,(58 25 15 1 -6 -12 22 92)
1969/12/31/18:00:05.835,(-21 -6 -4 -1 18 72 -4 3)
1969/12/31/18:00:05.857,(4 3 2 10 24 -41 6 -29)
1969/12/31/18:00:05.857,(-35 -12 -8 -1 3 15 -7 -74)
1969/12/31/18:00:05.858,(-22 -31 0 3 2 -19 -3 -31)
1969/12/31/18:00:05.858,(-24 -13 -7 -6 8 -5 -7 -36)
1969/12/31/18:00:05.871,(1 0 1 6 18 42 29 42)
1969/12/31/18:00:05.871,(22 18 11 10 -17 8 -1 9)
1969/12/31/18:00:05.872,(-8 -2 -17 -22 -34 -35 -7 -16)
1969/12/31/18:00:05.872,(-14 -16 -9 -8 -22 -24 -6 -27)
1969/12/31/18:00:05.894,(-11 -5 1 -6 -8 -8 -23 -14)
1969/12/31/18:00:05.894,(1 2 0 -1 30 3 -7 -6)
1969/12/31/18:00:05.895,(-9 1 3 11 31 41 27 -1)
1969/12/31/18:00:05.895,(42 36 -21 -7 -11 -10 -10 19)
1969/12/31/18:00:05.917,(3 -20 5 -1 -9 -14 -3 35)
1969/12/31/18:00:05.917,(19 6 8 2 -19 -17 8 12)
1969/12/31/18:00:05.918,(-33 -2 29 14 -12 -12 -26 -48)
1969/12/31/18:00:05.918,(4 7 10 18 45 23 18 20)
1969/12/31/18:00:05.931,(-3 3 -10 -10 -31 0 -5 -12)
1969/12/31/18:00:05.931,(-13 -34 -58 -29 -11 -11 -3 7)
1969/12/31/18:00:05.932,(28 -21 -30 -3 48 39 23 38)
1969/12/31/18:00:05.932,(29 26 75 13 -68 -53 21 63)
1969/12/31/18:00:05.954,(16 13 -22 -7 31 15 -56 -84)
1969/12/31/18:00:05.954,(9 25 66 14 -28 -10 42 60)
1969/12/31/18:00:05.955,(36 34 -47 -20 -26 -47 -62 -89)
1969/12/31/18:00:05.955,(-64 -101 6 6 21 14 19 3)
1969/12/31/18:00:05.977,(26 28 17 16 29 39 73 127)
1969/12/31/18:00:05.977,(44 -37 -68 -1 53 53 -5 38)
1969/12/31/18:00:05.978,(-36 90 117 26 -80 -85 -23 -23)
1969/12/31/18:00:05.978,(19 23 -93 -35 -11 -21 -17 -10)
1969/12/31/18:00:05.992,(-20 -31 1 -14 -14 -1 16 -7)
1969/12/31/18:00:05.992,(-78 -24 29 3 -5 -27 -21 -63)
1969/12/31/18:00:05.992,(2 2 -23 -11 4 62 24 -20)
1969/12/31/18:00:05.992,(-58 -62 -56 -10 -11 -16 41 -29)
1969/12/31/18:00:06.014,(-10 19 25 7 13 0 -62 -33)
1969/12/31/18:00:06.014,(49 99 32 24 2 13 57 98)
1969/12/31/18:00:06.015,(-13 -95 -56 -25 -11 -16 -39 -39)
1969/12/31/18:00:06.015,(37 71 11 -1 -13 -4 -28 -67)
1969/12/31/18:00:06.037,(51 -77 -64 -14 19 21 36 60)
1969/12/31/18:00:06.037,(-33 24 -11 3 58 38 1 -41)
1969/12/31/18:00:06.038,(30 10 109 68 109 99 64 123)
1969/12/31/18:00:06.038,(3 -39 -68 -52 -84 -90 -47 -26)
1969/12/31/18:00:06.051,(66 44 -28 -55 -81 -78 -40 67)
1969/12/31/18:00:06.051,(-32 91 92 56 25 -2 -6 -47)
1969/12/31/18:00:06.052,(58 -53 -98 -38 3 8 -4 14)
1969/12/31/18:00:06.052,(-30 34 96 69 89 71 33 21)
1969/12/31/18:00:06.074,(-12 -19 -37 -15 -14 -8 -17 -43)
1969/12/31/18:00:06.074,(-54 -99 -25 -28 -29 -21 -10 -74)
1969/12/31/18:00:06.075,(-22 36 1 10 13 7 -13 -38)
1969/12/31/18:00:06.075,(-8 -22 -26 -12 5 12 8 33)
1969/12/31/18:00:06.097,(-52 -8 12 26 8 -34 -16 -84)
1969/12/31/18:00:06.097,(44 -32 -44 -40 -75 -40 -26 -7)
1969/12/31/18:00:06.098,(-69 -99 -45 -5 66 37 -2 -31)
1969/12/31/18:00:06.098,(1 72 39 -29 -127 -56 13 -17)
1969/12/31/18:00:06.112,(25 44 45 47 42 3 15 76)
1969/12/31/18:00:06.112,(40 9 -33 -40 -29 4 -13 45)
1969/12/31/18:00:06.112,(22 8 -8 -26 -40 -47 -18 24)
1969/12/31/18:00:06.112,(8 -80 -84 -25 36 35 -1 0)
1969/12/31/18:00:06.134,(-59 -4 92 50 59 61 18 -18)
1969/12/31/18:00:06.134,(42 57 17 36 44 -3 15 22)
1969/12/31/18:00:06.135,(-30 -55 -44 -8 3 15 6 5)
1969/12/31/18:00:06.135,(39 79 30 9 34 29 -7 -11)
1969/12/31/18:00:06.157,(-56 27 52 24 -21 -24 -12 -61)
1969/12/31/18:00:06.157,(2 -34 -26 -47 -104 -57 -19 19)
1969/12/31/18:00:06.158,(-45 14 27 7 -15 -23 -28 -60)
1969/12/31/18:00:06.158,(-33 -63 -51 -16 -10 -42 -58 -71)
1969/12/31/18:00:06.172,(41 21 4 0 45 49 24 30)
1969/12/31/18:00:06.172,(-29 -20 0 9 24 13 -2 -14)
1969/12/31/18:00:06.172,(42 24 -42 -26 -28 0 9 32)
1969/12/31/18:00:06.173,(-54 11 81 39 56 43 -1 -7)
1969/12/31/18:00:06.194,(14 -8 -53 -29 -49 -29 -13 4)
1969/12/31/18:00:06.194,(-15 -60 -20 19 104 81 39 17)
1969/12/31/18:00:06.195,(29 55 9 -8 -100 -98 23 47)
1969/12/31/18:00:06.195,(40 47 33 2 -18 -20 -48 21)
1969/12/31/18:00:06.217,(-14 56 62 28 8 8 -4 -19)
1969/12/31/18:00:06.217,(34 -1 3 -3 4 2 -8 -2)
1969/12/31/18:00:06.218,(-2 -56 -44 7 94 61 22 22)
1969/12/31/18:00:06.218,(-46 -25 -5 0 -27 -6 10 -31)
1969/12/31/18:00:06.231,(43 -11 -74 -46 -48 -8 8 31)
1969/12/31/18:00:06.231,(-49 11 69 30 6 -14 -28 -89)
1969/12/31/18:00:06.232,(42 28 36 15 22 15 18 31)
1969/12/31/18:00:06.232,(14 -39 -53 -24 -33 -61 -69 -2)
1969/12/31/18:00:06.254,(-5 22 39 22 17 6 5 -43)
1969/12/31/18:00:06.254,(-41 16 -21 -16 -5 -1 -33 -11)
1969/12/31/18:00:06.255,(-6 -41 -2 3 -13 -15 -19 -45)
1969/12/31/18:00:06.255,(-7 50 20 15 22 24 34 13)
1969/12/31/18:00:06.277,(39 -33 -17 11 55 34 -10 -9)
1969/12/31/18:00:06.277,(32 10 -57 -26 -27 6 14 17)
1969/12/31/18:00:06.278,(4 13 31 -2 -34 -36 24 43)
1969/12/31/18:00:06.278,(24 -44 -35 -23 -36 -18 -5 18)
1969/12/31/18:00:06.291,(-4 -51 -58 -20 71 55 39 73)
1969/12/31/18:00:06.291,(-37 15 36 7 -66 -41 -11 -11)
1969/12/31/18:00:06.299,(-6 41 -14 -26 -11 -17 -14 -9)
1969/12/31/18:00:06.299,(-2 28 50 33 61 32 23 7)
1969/12/31/18:00:06.314,(15 15 2 8 -46 -31 3 32)
1969/12/31/18:00:06.314,(2 -10 6 -2 48 18 22 11)
1969/12/31/18:00:06.315,(-8 9 24 14 -41 5 -27 16)
1969/12/31/18:00:06.315,(-5 15 11 22 68 47 -12 -11)
1969/12/31/18:00:06.339,(49 14 -5 -12 -36 -18 16 59)
1969/12/31/18:00:06.339,(-9 -75 -80 -32 -12 -8 -9 -4)
1969/12/31/18:00:06.339,(-34 40 42 2 -3 -15 -29 -40)
1969/12/31/18:00:06.340,(-1 -35 -31 -9 18 9 17 -26)
1969/12/31/18:00:06.351,(-22 27 36 18 43 49 -3 -14)
1969/12/31/18:00:06.351,(4 -26 -4 6 -26 -44 2 44)
1969/12/31/18:00:06.359,(-9 -3 -23 16 88 104 35 -33)
1969/12/31/18:00:06.359,(-27 7 51 -5 -101 -87 -24 2)
1969/12/31/18:00:06.374,(-44 -33 -20 -29 -37 -8 -19 -76)
1969/12/31/18:00:06.374,(-16 10 -15 -7 60 31 4 13)
1969/12/31/18:00:06.375,(-9 -52 -16 3 -15 -8 -42 -12)
1969/12/31/18:00:06.375,(14 24 -15 -11 -31 -24 41 52)
1969/12/31/18:00:06.397,(32 8 9 17 3 -4 17 50)
1969/12/31/18:00:06.397,(-26 -10 -8 -10 6 9 -21 -76)
1969/12/31/18:00:06.398,(-22 -37 -40 -4 50 33 18 -13)
1969/12/31/18:00:06.398,(18 20 18 -3 -29 -8 -2 4)
1969/12/31/18:00:06.411,(-1 4 -6 -10 -20 -15 -6 -39)
1969/12/31/18:00:06.411,(-3 9 -17 17 61 35 -20 5)
1969/12/31/18:00:06.419,(-2 -17 -16 -13 -89 -75 21 -12)
1969/12/31/18:00:06.419,(-4 -30 -8 -23 -33 -26 -21 -48)
1969/12/31/18:00:06.434,(-16 -29 -28 -3 30 19 -8 -16)
1969/12/31/18:00:06.434,(21 66 57 35 8 15 22 37)
1969/12/31/18:00:06.435,(-6 26 17 9 11 8 19 -6)
1969/12/31/18:00:06.435,(67 38 12 30 119 104 16 52)
1969/12/31/18:00:06.457,(-72 -13 21 -13 -92 -81 7 -26)
1969/12/31/18:00:06.457,(12 -69 -54 -44 -45 -51 -63 -49)
1969/12/31/18:00:06.458,(12 5 -19 -8 23 7 -3 26)
1969/12/31/18:00:06.458,(-9 -8 26 23 53 49 -14 -47)
1969/12/31/18:00:06.471,(-23 -9 -22 3 48 6 -34 -51)
1969/12/31/18:00:06.471,(50 9 5 3 -62 -40 35 67)
1969/12/31/18:00:06.479,(-7 39 42 5 -9 -35 -52 -45)
1969/12/31/18:00:06.479,(2 -34 -53 -10 20 35 38 63)
1969/12/31/18:00:06.494,(10 35 24 -9 -40 -8 7 -19)
1969/12/31/18:00:06.494,(-9 -9 0 15 33 17 17 54)
1969/12/31/18:00:06.495,(38 67 51 -7 -92 -52 -16 -35)
1969/12/31/18:00:06.495,(-44 -73 -55 -18 13 11 11 -13)
1969/12/31/18:00:06.517,(28 27 10 8 12 -4 38 69)
1969/12/31/18:00:06.517,(23 -41 -19 -5 7 14 -2 8)
1969/12/31/18:00:06.518,(38 -27 -43 14 88 69 41 81)
1969/12/31/18:00:06.518,(5 43 84 22 -72 -75 -35 -19)
1969/12/31/18:00:06.531,(-94 8 -2 -10 31 26 -37 -85)
1969/12/31/18:00:06.531,(9 8 -8 -10 -36 -31 2 -14)
1969/12/31/18:00:06.539,(-19 -11 -8 -21 -35 3 47 38)
1969/12/31/18:00:06.539,(2 -6 16 5 -18 -26 -5 -61)
1969/12/31/18:00:06.554,(13 -56 -68 -30 -22 -29 -19 8)
1969/12/31/18:00:06.554,(32 -8 -3 20 84 69 35 32)
1969/12/31/18:00:06.555,(-80 60 95 27 -11 -9 -19 -50)
1969/12/31/18:00:06.555,(21 15 -32 -17 -8 -6 -6 20)
1969/12/31/18:00:06.577,(-20 -66 -36 -2 29 13 5 3)
1969/12/31/18:00:06.577,(-9 58 26 3 -15 -5 -19 -44)
1969/12/31/18:00:06.578,(30 -21 -1 1 -34 -53 -2 11)
1969/12/31/18:00:06.578,(-61 -52 -43 -18 17 13 1 -61)
1969/12/31/18:00:06.591,(1 78 54 32 49 54 -4 54)
1969/12/31/18:00:06.591,(3 58 83 31 -39 -45 13 -24)
1969/12/31/18:00:06.606,(25 -32 -49 -14 31 20 -33 -12)
1969/12/31/18:00:06.606,(-25 -16 -30 -37 -76 -49 -8 -38)
1969/12/31/18:00:06.622,(16 -43 -16 -13 -7 9 10 0)
1969/12/31/18:00:06.622,(-31 -14 -18 25 97 66 20 -17)
1969/12/31/18:00:06.623,(-12 9 11 -31 -86 -90 -44 -29)
1969/12/31/18:00:06.623,(18 -12 -23 -11 8 -12 1 44)
1969/12/31/18:00:06.637,(1 40 48 13 3 -24 -25 -94)
1969/12/31/18:00:06.637,(-41 -37 -21 -16 2 4 -7 -27)
1969/12/31/18:00:06.638,(45 55 4 16 43 33 -2 -6)
1969/12/31/18:00:06.638,(-14 -68 -53 -21 -2 21 -7 2)
1969/12/31/18:00:06.660,(-9 -57 -22 -9 -34 -39 -9 2)
1969/12/31/18:00:06.660,(-6 51 63 25 4 15 13 1)
1969/12/31/18:00:06.661,(13 0 -31 -11 3 21 17 36)
1969/12/31/18:00:06.661,(11 67 50 24 48 45 -4 -20)
1969/12/31/18:00:06.682,(5 -14 -21 19 41 8 -1 3)
1969/12/31/18:00:06.682,(-54 -49 -22 -28 -92 -28 19 -23)
1969/12/31/18:00:06.683,(-28 -48 -44 -16 47 31 -21 -34)
1969/12/31/18:00:06.683,(21 9 21 -8 -67 -73 38 25)
1969/12/31/18:00:06.697,(22 42 13 -18 -44 -26 -25 22)
1969/12/31/18:00:06.697,(40 0 -10 16 59 50 16 60)
1969/12/31/18:00:06.698,(-73 -14 0 -13 7 -2 5 -3)
1969/12/31/18:00:06.698,(37 -3 -12 9 5 26 -1 43)
1969/12/31/18:00:06.720,(-1 -48 -21 -3 -7 -4 -4 -24)
1969/12/31/18:00:06.720,(5 18 14 -9 -44 -44 -3 15)
1969/12/31/18:00:06.720,(0 -8 -19 10 35 40 7 -4)
1969/12/31/18:00:06.720,(-57 -29 32 16 23 8 1 -12)
1969/12/31/18:00:06.734,(71 100 49 20 -28 -19 6 38)
1969/12/31/18:00:06.734,(6 9 4 -3 14 15 -21 -17)
1969/12/31/18:00:06.735,(51 9 29 30 32 18 30 76)
1969/12/31/18:00:06.735,(-6 -25 -36 -16 -26 -32 2 -15)
1969/12/31/18:00:06.757,(-18 -28 -23 0 40 24 -14 5)
1969/12/31/18:00:06.757,(-28 -32 -8 10 60 43 9 -46)
1969/12/31/18:00:06.758,(19 22 5 -40 -105 -93 -10 31)
1969/12/31/18:00:06.758,(-3 18 1 -12 2 -7 17 21)
1969/12/31/18:00:06.796,(-33 -58 -44 -10 34 17 8 -12)
1969/12/31/18:00:06.796,(14 42 14 -3 -12 -10 -13 -3)
1969/12/31/18:00:06.797,(30 3 23 33 25 28 13 59)
1969/12/31/18:00:06.797,(-79 -41 -28 -18 -24 -22 -54 -103)
1969/12/31/18:00:06.798,(-20 11 18 4 11 9 5 12)
1969/12/31/18:00:06.798,(-3 -27 -32 -15 -8 -9 -7 1)
1969/12/31/18:00:06.801,(33 6 -6 -7 -19 -12 -1 -19)
1969/12/31/18:00:06.801,(40 21 9 16 32 26 19 46)
1969/12/31/18:00:06.817,(-19 -13 -1 1 -12 0 -6 -19)
1969/12/31/18:00:06.817,(-7 5 0 -14 1 25 9 -1)
1969/12/31/18:00:06.823,(-6 4 6 6 -17 -11 -9 -12)
1969/12/31/18:00:06.823,(46 35 14 20 19 -21 8 23)
1969/12/31/18:00:06.840,(-54 -38 -32 -22 -54 -48 -59 -52)
1969/12/31/18:00:06.840,(-35 -17 -6 -9 -18 -35 -10 6)
1969/12/31/18:00:06.842,(16 8 9 9 39 35 14 -13)
1969/12/31/18:00:06.842,(-1 13 8 5 27 40 9 8)
1969/12/31/18:00:06.853,(51 17 6 -1 -18 -8 21 36)
1969/12/31/18:00:06.853,(24 6 10 -2 -13 -20 -3 26)
1969/12/31/18:00:06.862,(-30 -15 -17 -7 5 -2 -22 -58)
1969/12/31/18:00:06.862,(50 24 9 9 11 29 30 74)
1969/12/31/18:00:06.884,(-50 -24 -6 -14 -24 -48 -21 -26)
1969/12/31/18:00:06.884,(22 9 3 8 17 25 4 6)
1969/12/31/18:00:06.886,(-21 -21 -12 -5 -6 -43 -13 -9)
1969/12/31/18:00:06.886,(21 28 20 20 14 53 36 -13)
1969/12/31/18:00:06.900,(-44 -1 3 -4 -12 -68 3 -58)
1969/12/31/18:00:06.900,(-11 -9 -5 1 4 27 -92 -35)
1969/12/31/18:00:06.902,(34 13 1 -4 -11 -7 13 6)
1969/12/31/18:00:06.902,(-17 -4 2 -8 2 4 -41 -27)
1969/12/31/18:00:06.913,(119 50 21 8 -16 61 80 111)
1969/12/31/18:00:06.913,(26 -12 -15 -27 -17 -71 -4 -11)
1969/12/31/18:00:06.922,(-55 -40 -13 -1 -4 52 20 -28)
1969/12/31/18:00:06.922,(27 16 6 15 36 4 -6 26)
1969/12/31/18:00:06.937,(7 -5 -5 11 13 1 2 -17)
1969/12/31/18:00:06.937,(2 -9 -2 14 -3 1 29 10)
1969/12/31/18:00:06.939,(55 11 4 -5 -10 -10 -1 68)
1969/12/31/18:00:06.939,(-115 -48 -22 -22 -19 -39 -27 -108)
1969/12/31/18:00:06.960,(83 44 18 10 14 70 18 62)
1969/12/31/18:00:06.960,(-3 -7 -14 -22 -30 -13 12 -38)
1969/12/31/18:00:06.961,(-62 -28 -15 -10 -1 -24 -23 -63)
1969/12/31/18:00:06.961,(84 29 22 16 4 36 24 107)
1969/12/31/18:00:06.973,(-69 -38 -22 -21 -9 -15 -56 -84)
1969/12/31/18:00:06.973,(15 21 12 11 5 27 34 34)
1969/12/31/18:00:06.982,(-17 -8 2 3 7 35 17 33)
1969/12/31/18:00:06.982,(-13 -6 1 -1 -2 -4 -10 1)
1969/12/31/18:00:06.997,(21 12 -13 -10 -2 9 20 61)
1969/12/31/18:00:06.997,(27 -11 -3 0 -1 -30 3 94)
1969/12/31/18:00:06.999,(-50 5 7 7 5 3 18 -72)
1969/12/31/18:00:06.999,(-24 -20 -13 -14 -27 -69 -9 -26)
1969/12/31/18:00:07.020,(25 15 15 12 24 42 21 26)
1969/12/31/18:00:07.020,(-35 -18 -4 -2 -10 -10 -21 -57)
1969/12/31/18:00:07.021,(20 21 5 3 8 9 12 44)
1969/12/31/18:00:07.021,(-12 -5 1 -2 -2 -1 -9 -51)
1969/12/31/18:00:07.033,(52 20 9 9 12 -5 1 18)
1969/12/31/18:00:07.033,(-43 -9 -13 -11 -13 -12 -15 -38)
1969/12/31/18:00:07.042,(19 7 9 7 3 1 -5 15)
1969/12/31/18:00:07.042,(-2 -1 -5 -4 -1 8 10 7)
1969/12/31/18:00:07.057,(-7 -10 -3 -2 2 3 0 -7)
1969/12/31/18:00:07.057,(-15 -1 1 -1 3 6 -3 -22)
1969/12/31/18:00:07.059,(-9 1 -1 -1 -1 -8 -14 -12)
1969/12/31/18:00:07.059,(-9 4 -1 -2 -4 -4 -13 5)
1969/12/31/18:00:07.080,(20 -3 5 5 4 3 5 15)
1969/12/31/18:00:07.080,(-2 -16 -8 -3 -1 -3 4 11)
1969/12/31/18:00:07.081,(25 7 3 0 5 -1 -4 1)
1969/12/31/18:00:07.081,(30 5 -11 -13 -8 -1 -3 7)
1969/12/31/18:00:07.093,(-42 -11 2 -1 -1 -5 -6 -30)
1969/12/31/18:00:07.093,(28 19 9 5 4 3 6 21)
1969/12/31/18:00:07.102,(-20 -13 -7 -4 -6 -9 -25 -56)
1969/12/31/18:00:07.102,(-5 6 4 3 4 11 7 1)
1969/12/31/18:00:07.117,(-14 -8 -11 -11 -11 -10 -4 0)
1969/12/31/18:00:07.117,(-24 -8 1 0 -3 -5 -12 -28)
1969/12/31/18:00:07.119,(21 14 8 6 5 9 16 22)
1969/12/31/18:00:07.119,(-3 2 -1 0 0 3 6 3)
1969/12/31/18:00:07.140,(-22 -14 -7 -6 -5 -13 -20 -12)
1969/12/31/18:00:07.140,(6 0 -6 0 1 0 4 -8)
1969/12/31/18:00:07.141,(-5 1 -1 -4 -3 -4 -12 -8)
1969/12/31/18:00:07.141,(-1 9 12 10 5 7 12 -7)
1969/12/31/18:00:07.162,(-12 -5 0 0 1 1 -2 16)
1969/12/31/18:00:07.162,(6 -1 -6 -4 -2 1 -1 17)
1969/12/31/18:00:07.164,(3 -10 -11 -5 0 -2 13 12)
1969/12/31/18:00:07.164,(-8 -7 -2 -1 -5 -10 -35 -15)
1969/12/31/18:00:07.177,(2 5 -6 -5 -4 -1 2 -10)
1969/12/31/18:00:07.177,(18 -22 -38 -21 -7 -2 5 17)
1969/12/31/18:00:07.179,(-32 61 98 53 19 5 -2 -29)
1969/12/31/18:00:07.179,(3 -13 -6 -1 -2 0 2 6)
1969/12/31/18:00:07.200,(-24 -4 -3 0 0 -3 -9 -7)
1969/12/31/18:00:07.200,(-6 -22 -22 -9 -5 0 -1 -9)
1969/12/31/18:00:07.201,(7 -67 -71 -32 -12 -5 -10 17)
1969/12/31/18:00:07.201,(4 41 34 12 3 2 1 6)
1969/12/31/18:00:07.213,(5 10 -2 -1 -1 4 8 1)
1969/12/31/18:00:07.213,(6 12 15 6 -2 -3 28 11)
1969/12/31/18:00:07.222,(-1 -6 9 9 3 -1 -37 -12)
1969/12/31/18:00:07.222,(-2 -32 -38 -16 -7 -5 0 1)
1969/12/31/18:00:07.237,(-4 -49 -50 -20 -7 -5 -2 -17)
1969/12/31/18:00:07.237,(-7 59 76 29 11 4 -10 -5)
1969/12/31/18:00:07.239,(7 4 -15 -7 -5 -6 5 3)
1969/12/31/18:00:07.239,(4 -20 -23 -8 -2 4 2 6)
1969/12/31/18:00:07.259,(-4 27 36 11 0 -1 5 0)
1969/12/31/18:00:07.259,(3 -9 -8 2 3 2 -5 7)
1969/12/31/18:00:07.261,(7 -5 -15 -11 -3 0 8 6)
1969/12/31/18:00:07.261,(-6 20 31 23 10 1 -1 -3)
1969/12/31/18:00:07.273,(-2 -10 -11 -8 -4 0 2 -5)
1969/12/31/18:00:07.273,(-6 -22 -16 -10 -3 4 0 -1)
1969/12/31/18:00:07.283,(1 8 3 -1 -1 -1 10 1)
1969/12/31/18:00:07.283,(12 -75 -60 -17 -4 0 -6 9)
1969/12/31/18:00:07.298,(-7 91 95 39 12 2 -6 -11)
1969/12/31/18:00:07.298,(-1 -7 -9 -3 -3 -4 -6 -1)
1969/12/31/18:00:07.300,(4 -10 -14 -11 -2 6 0 1)
1969/12/31/18:00:07.300,(7 8 6 -9 -6 -3 9 7)
1969/12/31/18:00:07.320,(-12 -25 -20 -2 -3 -4 -14 -11)
1969/12/31/18:00:07.320,(16 4 6 -1 -1 3 -8 -1)
1969/12/31/18:00:07.321,(15 6 -6 -3 -1 -3 -2 4)
1969/12/31/18:00:07.321,(-9 23 50 30 12 13 10 -4)
1969/12/31/18:00:07.333,(-11 14 10 4 -2 0 -4 -9)
1969/12/31/18:00:07.333,(-15 -16 -15 -8 -4 -1 0 -5)
1969/12/31/18:00:07.342,(-14 -40 -19 -10 -2 -8 4 1)
1969/12/31/18:00:07.342,(10 49 12 1 2 -9 1 3)
1969/12/31/18:00:07.357,(6 -12 -38 -20 -4 -6 11 15)
1969/12/31/18:00:07.357,(13 17 2 1 2 -10 7 15)
1969/12/31/18:00:07.359,(-23 -13 -1 -4 -1 -7 -3 -10)
1969/12/31/18:00:07.359,(1 -2 -53 -44 -15 -12 -2 2)
1969/12/31/18:00:07.380,(9 7 37 45 20 6 10 5)
1969/12/31/18:00:07.380,(2 6 -4 0 0 -5 -1 2)
1969/12/31/18:00:07.381,(9 35 5 4 0 2 2 7)
1969/12/31/18:00:07.381,(-5 20 1 -12 -5 -1 1 -3)
1969/12/31/18:00:07.393,(-2 -38 -58 -38 -14 -2 0 2)
1969/12/31/18:00:07.393,(-8 -2 28 15 2 -2 -12 -14)
1969/12/31/18:00:07.402,(-8 -16 -20 -11 -4 2 -5 -3)
1969/12/31/18:00:07.402,(-3 -33 -22 -6 -5 0 -6 -6)
1969/12/31/18:00:07.417,(1 9 15 0 -2 2 0 0)
1969/12/31/18:00:07.417,(4 56 42 17 2 1 -9 -12)
1969/12/31/18:00:07.419,(3 10 23 13 1 1 -2 -1)
1969/12/31/18:00:07.419,(2 -15 -17 -5 -2 0 -3 1)
1969/12/31/18:00:07.440,(-4 -13 -8 -6 -6 -4 -5 -7)
1969/12/31/18:00:07.440,(-11 -12 -25 -19 -9 -4 -7 -5)
1969/12/31/18:00:07.441,(3 -6 -3 -3 -1 0 -1 -2)
1969/12/31/18:00:07.441,(1 36 23 8 0 -1 -4 -8)
1969/12/31/18:00:07.462,(1 -22 -11 -6 -3 -1 -3 -2)
1969/12/31/18:00:07.462,(-2 -1 4 2 2 3 1 -2)
1969/12/31/18:00:07.464,(6 20 8 2 0 -1 0 0)
1969/12/31/18:00:07.464,(-3 -21 -4 4 4 4 3 3)
1969/12/31/18:00:07.485,(4 -2 19 9 3 2 1 2)
1969/12/31/18:00:07.485,(-5 -21 -22 -8 -6 -4 -1 0)
1969/12/31/18:00:07.486,(5 6 29 12 1 -5 -4 -3)
1969/12/31/18:00:07.486,(-3 3 8 3 1 0 0 -1)
