time,.data
1969/12/31/18:00:11.723,(1 1 2 -3 -2 -2 -1 1)
1969/12/31/18:00:11.723,(4 -2 -10 -5 -1 0 3 3)
1969/12/31/18:00:11.724,(-5 -4 -2 -5 -1 -2 -2 -1)
1969/12/31/18:00:11.724,(-4 -3 7 2 -4 -4 -3 -3)
1969/12/31/18:00:11.729,(-5 -1 2 8 -4 -2 -2 -4)
1969/12/31/18:00:11.729,(1 2 -6 1 7 5 1 3)
1969/12/31/18:00:11.736,(6 5 3 -7 9 4 3 4)
1969/12/31/18:00:11.736,(-3 -6 -15 -14 -21 -4 1 -2)
1969/12/31/18:00:11.753,(-1 -7 -9 -3 11 3 0 1)
1969/12/31/18:00:11.753,(-8 -7 20 0 -21 -11 -8 -7)
1969/12/31/18:00:11.754,(-1 0 -14 -19 -6 -6 -4 -1)
1969/12/31/18:00:11.754,(2 6 30 49 -17 -1 1 1)
1969/12/31/18:00:11.775,(-1 10 17 35 54 11 3 -1)
1969/12/31/18:00:11.775,(14 9 -13 1 16 19 12 12)
1969/12/31/18:00:11.777,(7 7 -10 0 -4 3 2 0)
1969/12/31/18:00:11.777,(2 -11 -20 -31 17 3 0 4)
1969/12/31/18:00:11.789,(-26 -28 26 9 -39 -14 -11 -17)
1969/12/31/18:00:11.789,(1 13 -17 12 9 0 -2 2)
1969/12/31/18:00:11.798,(5 8 8 -39 -42 -7 2 2)
1969/12/31/18:00:11.798,(0 -3 -30 -5 13 -5 -7 -1)
1969/12/31/18:00:11.813,(0 -12 -19 -24 -3 -4 -4 -3)
1969/12/31/18:00:11.813,(3 10 9 -24 -24 -17 -2 -2)
1969/12/31/18:00:11.815,(6 -4 -10 -3 -15 4 3 5)
1969/12/31/18:00:11.815,(-7 -1 46 12 18 9 0 -6)
1969/12/31/18:00:11.835,(-4 -4 -16 20 67 21 5 5)
1969/12/31/18:00:11.835,(-2 -6 15 15 -15 6 1 -1)
1969/12/31/18:00:11.837,(-11 -9 -7 39 16 -4 -7 -7)
1969/12/31/18:00:11.837,(20 24 -5 -56 -29 -5 7 13)
1969/12/31/18:00:11.849,(0 0 3 16 -6 -9 -2 -2)
1969/12/31/18:00:11.849,(-5 -6 -17 -41 -21 -3 0 -5)
1969/12/31/18:00:11.858,(22 26 36 57 22 7 11 18)
1969/12/31/18:00:11.858,(-8 -2 26 3 -5 0 -1 -6)
1969/12/31/18:00:11.873,(-13 -16 -43 51 14 -6 -7 -9)
1969/12/31/18:00:11.873,(26 13 -23 -5 46 29 16 17)
1969/12/31/18:00:11.874,(-10 -4 -1 -96 -66 -27 -11 -10)
1969/12/31/18:00:11.874,(4 -6 -39 -19 -38 -14 -1 2)
1969/12/31/18:00:11.895,(6 5 2 -34 -1 -9 -4 -1)
1969/12/31/18:00:11.895,(-20 -33 -3 17 -6 -3 -11 -10)
1969/12/31/18:00:11.897,(-12 -7 17 67 108 38 9 0)
1969/12/31/18:00:11.897,(1 12 32 26 -5 5 -1 1)
1969/12/31/18:00:11.909,(5 12 34 58 -2 9 10 4)
1969/12/31/18:00:11.909,(-6 0 -4 -13 4 -10 -6 -6)
1969/12/31/18:00:11.924,(2 -3 -6 -23 -45 -8 -1 2)
1969/12/31/18:00:11.924,(-6 -11 -34 12 37 3 -2 -2)
1969/12/31/18:00:11.932,(5 5 0 -104 -48 -9 -3 1)
1969/12/31/18:00:11.932,(-2 -1 -15 -24 -25 -17 -9 -5)
1969/12/31/18:00:11.940,(-4 -10 1 -12 -24 -8 -2 -2)
1969/12/31/18:00:11.940,(-7 1 19 61 11 5 4 -4)
1969/12/31/18:00:11.955,(12 12 -4 14 -18 1 4 6)
1969/12/31/18:00:11.955,(-6 -4 16 4 16 -7 -6 -4)
1969/12/31/18:00:11.957,(-13 -15 -16 -26 21 -1 -9 -12)
1969/12/31/18:00:11.957,(3 4 21 69 50 26 7 6)
1969/12/31/18:00:11.969,(5 4 -14 -22 0 2 0 3)
1969/12/31/18:00:11.969,(-4 -3 0 -43 -46 -10 -2 -3)
1969/12/31/18:00:11.978,(1 3 6 41 17 1 0 -1)
1969/12/31/18:00:11.978,(-2 -7 -26 -53 -15 -9 -4 -2)
1969/12/31/18:00:11.993,(0 1 1 -46 -28 -3 1 2)
1969/12/31/18:00:11.993,(1 6 20 55 10 1 1 -1)
1969/12/31/18:00:11.994,(-3 -3 -11 -3 -5 -1 -4 -2)
1969/12/31/18:00:11.994,(-4 -2 5 13 16 1 -2 -3)
1969/12/31/18:00:12.015,(2 2 1 -7 -3 -1 2 2)
1969/12/31/18:00:12.015,(0 0 -2 5 6 1 -1 0)
1969/12/31/18:00:12.017,(-1 -1 1 13 -2 -1 -2 0)
1969/12/31/18:00:12.017,(-1 -2 -7 -40 -23 -9 -2 -1)
1969/12/31/18:00:12.029,(1 3 5 10 4 2 1 1)
1969/12/31/18:00:12.029,(0 -3 1 12 20 2 1 1)
1969/12/31/18:00:12.038,(0 0 2 8 0 0 0 -1)
1969/12/31/18:00:12.038,(-4 -4 -3 -15 -6 -5 -5 -2)
1969/12/31/18:00:12.052,(3 2 -4 -5 -5 0 -1 3)
1969/12/31/18:00:12.052,(4 9 8 9 4 4 5 5)
1969/12/31/18:00:12.059,(0 -4 -4 -1 2 -3 -4 -3)
1969/12/31/18:00:12.059,(-7 -5 -7 -8 -5 -7 -4 -6)
1969/12/31/18:00:12.075,(3 1 1 6 -2 -1 0 2)
1969/12/31/18:00:12.075,(-4 -2 4 5 1 -1 -3 -5)
1969/12/31/18:00:12.077,(-8 4 0 -2 -5 -3 -1 -1)
1969/12/31/18:00:12.077,(11 -3 -10 -16 -5 0 -1 1)
1969/12/31/18:00:12.089,(-11 -6 1 4 -3 -1 -5 -8)
1969/12/31/18:00:12.089,(11 6 0 -5 -1 -1 2 8)
1969/12/31/18:00:12.105,(3 1 -5 -11 -3 1 3 3)
1969/12/31/18:00:12.105,(-15 -9 3 14 7 -1 -6 -9)
1969/12/31/18:00:12.112,(-2 2 0 -14 -7 -4 -5 -1)
1969/12/31/18:00:12.112,(6 0 -1 20 14 5 6 4)
1969/12/31/18:00:12.119,(-2 -3 -6 -5 -4 -2 -3 -2)
1969/12/31/18:00:12.119,(3 5 -2 -10 -8 -3 -1 2)
1969/12/31/18:00:12.135,(-12 -3 2 4 5 2 0 -1)
1969/12/31/18:00:12.135,(4 -2 -2 -7 -4 -1 -1 0)
1969/12/31/18:00:12.137,(-3 2 6 12 7 1 -4 -8)
1969/12/31/18:00:12.137,(6 -1 -5 -13 -7 -4 1 5)
1969/12/31/18:00:12.149,(-12 -12 -6 -15 -5 -2 -1 -6)
1969/12/31/18:00:12.149,(-3 5 7 30 8 1 -1 -3)
1969/12/31/18:00:12.158,(-22 -26 -8 -12 0 1 2 5)
1969/12/31/18:00:12.158,(35 23 6 7 2 1 3 9)
1969/12/31/18:00:12.172,(4 3 6 3 -2 -2 -4 -1)
1969/12/31/18:00:12.172,(-10 -10 -8 -18 -20 -9 -8 -9)
1969/12/31/18:00:12.179,(-1 -2 -11 -43 -9 -5 -2 1)
1969/12/31/18:00:12.179,(-10 -3 10 43 20 11 8 3)
1969/12/31/18:00:12.195,(9 9 9 31 16 9 8 8)
1969/12/31/18:00:12.195,(-15 -13 0 -4 9 2 -3 -2)
1969/12/31/18:00:12.197,(19 14 -2 -15 -13 -2 1 2)
1969/12/31/18:00:12.197,(-23 -10 -16 -62 -34 -12 -8 -17)
1969/12/31/18:00:12.209,(7 5 3 32 -10 -6 -2 0)
1969/12/31/18:00:12.209,(-9 0 18 46 52 16 4 -1)
1969/12/31/18:00:12.218,(5 -1 7 30 19 9 4 5)
1969/12/31/18:00:12.218,(-17 -5 -5 -12 -1 0 -1 -4)
1969/12/31/18:00:12.232,(27 12 2 -15 -10 5 9 11)
1969/12/31/18:00:12.232,(-11 -12 -24 -45 -42 -20 -14 -11)
1969/12/31/18:00:12.239,(-18 -9 0 2 0 -1 1 -5)
1969/12/31/18:00:12.239,(62 41 20 22 14 11 12 25)
1969/12/31/18:00:12.255,(-42 -43 -25 -24 -16 -22 -28 -34)
1969/12/31/18:00:12.255,(10 19 11 6 6 11 12 15)
1969/12/31/18:00:12.257,(0 -7 -15 -19 -12 -9 -7 -9)
1969/12/31/18:00:12.257,(-38 -25 -10 -21 -4 -6 -6 -16)
1969/12/31/18:00:12.278,(8 10 14 52 22 11 10 12)
1969/12/31/18:00:12.278,(12 9 10 18 25 10 3 3)
1969/12/31/18:00:12.279,(-8 -8 3 24 -3 -7 -17 -16)
1969/12/31/18:00:12.279,(1 3 5 13 2 5 19 22)
1969/12/31/18:00:12.292,(2 -7 -14 -45 -14 -7 -8 -8)
1969/12/31/18:00:12.292,(2 -1 -9 -18 -19 -6 2 2)
1969/12/31/18:00:12.300,(-21 -14 3 7 -2 -3 -13 -8)
1969/12/31/18:00:12.300,(3 7 -12 -19 -10 -17 -20 -12)
1969/12/31/18:00:12.315,(27 18 7 -2 12 13 18 6)
1969/12/31/18:00:12.315,(4 -3 -12 -32 -18 7 15 15)
1969/12/31/18:00:12.317,(11 4 1 -12 -10 0 3 2)
1969/12/31/18:00:12.317,(-15 -14 3 -2 -5 -12 -12 -5)
1969/12/31/18:00:12.338,(-19 -4 9 70 11 -4 -12 -10)
1969/12/31/18:00:12.338,(3 6 4 0 40 14 3 -4)
1969/12/31/18:00:12.339,(4 5 4 39 6 13 10 9)
1969/12/31/18:00:12.339,(-1 1 20 71 39 12 4 1)
1969/12/31/18:00:12.352,(4 9 -6 -46 -14 -1 1 5)
1969/12/31/18:00:12.352,(-20 -15 -8 -12 -35 -18 -10 -10)
1969/12/31/18:00:12.359,(28 19 -5 -13 1 0 11 16)
1969/12/31/18:00:12.359,(-23 -17 -10 -33 -23 -5 -12 -26)
1969/12/31/18:00:12.383,(4 0 -5 -6 3 7 15 13)
1969/12/31/18:00:12.383,(-9 -8 -8 -12 -12 -8 -4 5)
1969/12/31/18:00:12.385,(-8 1 -2 -3 0 1 6 -5)
1969/12/31/18:00:12.385,(8 -2 -1 -6 -7 -8 -17 -10)
1969/12/31/18:00:12.398,(10 5 -7 -27 -4 3 0 7)
1969/12/31/18:00:12.398,(3 -2 5 2 -1 -4 -6 -3)
1969/12/31/18:00:12.399,(-12 -3 8 24 -6 1 2 -2)
1969/12/31/18:00:12.399,(7 8 17 51 30 9 9 9)
1969/12/31/18:00:12.411,(-7 -10 -26 -96 -44 -19 -9 -4)
1969/12/31/18:00:12.411,(0 -1 -2 57 -10 -9 -3 -5)
1969/12/31/18:00:12.420,(12 13 30 69 49 18 9 7)
1969/12/31/18:00:12.420,(2 -1 4 19 21 16 6 4)
1969/12/31/18:00:12.435,(-6 0 8 18 16 2 -8 -8)
1969/12/31/18:00:12.435,(-26 -37 -12 -54 -28 -4 0 -7)
1969/12/31/18:00:12.437,(62 67 -8 -44 -21 -6 13 24)
1969/12/31/18:00:12.437,(-1 -18 -4 -4 -4 -2 11 18)
1969/12/31/18:00:12.458,(3 -3 -6 -1 -6 -7 -19 -26)
1969/12/31/18:00:12.458,(-2 -2 0 -2 -3 -5 -8 -8)
1969/12/31/18:00:12.459,(-13 -17 -3 -20 -6 -4 2 4)
1969/12/31/18:00:12.459,(0 3 -9 -8 -7 1 -3 -3)
1969/12/31/18:00:12.471,(12 12 10 25 22 15 11 14)
1969/12/31/18:00:12.471,(-1 2 -7 -29 5 -1 -1 -1)
1969/12/31/18:00:12.481,(-16 -19 -9 -2 -44 -26 -21 -19)
1969/12/31/18:00:12.481,(1 12 12 20 13 12 9 3)
1969/12/31/18:00:12.495,(-6 -4 9 61 50 24 13 7)
1969/12/31/18:00:12.495,(11 16 21 68 48 14 -1 -2)
1969/12/31/18:00:12.497,(-17 -15 -8 -32 -3 -10 -7 -12)
1969/12/31/18:00:12.497,(-1 -7 -18 -45 -48 -21 -7 -3)
1969/12/31/18:00:12.518,(-5 -4 -3 -6 -16 -7 -1 2)
1969/12/31/18:00:12.518,(16 22 -6 -36 -15 -6 -1 7)
1969/12/31/18:00:12.519,(-12 -22 -1 12 6 0 -8 -17)
1969/12/31/18:00:12.519,(-11 9 -2 -8 -4 -3 -9 -14)
1969/12/31/18:00:12.531,(6 11 1 -2 1 3 8 -3)
1969/12/31/18:00:12.531,(-3 -3 0 -1 -9 -1 -1 -2)
1969/12/31/18:00:12.540,(-13 -12 -4 -1 6 -1 -3 -4)
1969/12/31/18:00:12.540,(17 13 10 6 13 13 9 17)
1969/12/31/18:00:12.555,(-28 -18 -5 -8 -10 -9 -9 -12)
1969/12/31/18:00:12.555,(-3 2 11 15 3 8 10 16)
1969/12/31/18:00:12.557,(6 -1 -3 3 7 2 0 0)
1969/12/31/18:00:12.557,(-17 -12 -9 -20 -2 0 0 -6)
1969/12/31/18:00:12.578,(23 1 -7 -3 -14 -7 2 18)
1969/12/31/18:00:12.578,(-38 -24 2 7 -3 -6 -16 -24)
1969/12/31/18:00:12.579,(-12 -7 -9 -16 0 -5 -15 -22)
1969/12/31/18:00:12.579,(-7 -12 -11 -6 -17 -10 -3 -6)
1969/12/31/18:00:12.591,(13 11 4 -5 -8 2 9 14)
1969/12/31/18:00:12.591,(-4 -21 1 30 29 7 -1 -3)
1969/12/31/18:00:12.600,(14 32 9 9 14 12 12 12)
1969/12/31/18:00:12.600,(34 16 -1 -12 -8 -2 6 18)
1969/12/31/18:00:12.615,(-15 -14 -3 -10 -4 -6 -8 -12)
1969/12/31/18:00:12.615,(3 -8 -5 -10 -11 1 2 1)
1969/12/31/18:00:12.617,(-6 0 2 7 4 3 3 6)
1969/12/31/18:00:12.617,(3 12 6 14 4 -2 -4 -4)
1969/12/31/18:00:12.638,(36 18 8 8 6 9 15 28)
1969/12/31/18:00:12.638,(-5 -2 -9 -17 -10 -7 -11 -14)
1969/12/31/18:00:12.639,(11 2 0 1 1 1 2 8)
1969/12/31/18:00:12.639,(-26 -24 -11 -15 -7 -4 -10 -17)
1969/12/31/18:00:12.661,(-5 1 0 -3 -3 -3 -1 0)
1969/12/31/18:00:12.661,(18 17 3 10 5 1 4 6)
1969/12/31/18:00:12.662,(-28 -36 -8 -2 5 -4 -8 -10)
1969/12/31/18:00:12.662,(23 28 15 12 6 17 12 2)
1969/12/31/18:00:12.675,(-17 -12 -3 -3 -5 -8 -3 -8)
1969/12/31/18:00:12.675,(13 10 -2 -32 -16 -2 4 5)
1969/12/31/18:00:12.677,(-7 -5 -3 13 2 -5 -5 -1)
1969/12/31/18:00:12.677,(-13 -14 -3 -5 6 -3 -4 -1)
1969/12/31/18:00:12.698,(3 4 -2 6 4 0 -1 0)
1969/12/31/18:00:12.698,(-2 0 5 6 -12 -4 -2 -4)
1969/12/31/18:00:12.699,(10 5 3 -8 3 3 5 10)
1969/12/31/18:00:12.699,(-6 -9 -7 -5 -4 -1 -1 -4)
1969/12/31/18:00:12.711,(1 9 8 14 12 6 0 -7)
1969/12/31/18:00:12.711,(5 -8 0 3 8 2 6 6)
1969/12/31/18:00:12.720,(21 28 -2 -13 -12 -8 -4 3)
1969/12/31/18:00:12.720,(-3 -20 -3 -2 -6 -4 2 3)
1969/12/31/18:00:12.736,(-9 9 -5 -40 -9 -2 1 -2)
1969/12/31/18:00:12.736,(-6 -1 -10 12 -18 -2 -1 -8)
1969/12/31/18:00:12.737,(30 11 9 34 11 3 5 16)
1969/12/31/18:00:12.737,(-17 -5 12 23 21 5 -2 -10)
1969/12/31/18:00:12.758,(-19 -16 -4 -7 -5 -5 -9 -7)
1969/12/31/18:00:12.758,(4 8 -4 -24 7 -3 -8 -9)
1969/12/31/18:00:12.759,(-4 1 -2 -8 -17 1 1 -4)
1969/12/31/18:00:12.759,(19 3 -6 -4 -3 -1 6 15)
1969/12/31/18:00:12.771,(-8 -2 1 11 18 1 -3 -8)
1969/12/31/18:00:12.771,(-1 9 1 1 -9 -2 -5 -3)
1969/12/31/18:00:12.780,(-9 -13 -2 -14 -2 2 1 -1)
1969/12/31/18:00:12.780,(-5 -1 -2 -6 1 -4 -3 -5)
1969/12/31/18:00:12.795,(8 4 2 8 1 -3 -3 4)
1969/12/31/18:00:12.795,(-5 -19 -2 -10 2 0 6 8)
1969/12/31/18:00:12.797,(-12 -3 -6 -35 -11 -1 -8 -20)
1969/12/31/18:00:12.797,(-6 -4 0 23 4 -1 -3 -1)
1969/12/31/18:00:12.818,(3 1 1 1 2 4 2 1)
1969/12/31/18:00:12.818,(-11 -5 2 0 -5 -2 -5 -6)
1969/12/31/18:00:12.819,(3 -9 -8 -16 -9 -4 1 8)
1969/12/31/18:00:12.819,(-5 -2 -4 8 -7 0 0 -3)
1969/12/31/18:00:12.831,(-22 -12 8 44 18 -1 -6 -12)
1969/12/31/18:00:12.831,(27 32 15 8 6 3 6 12)
1969/12/31/18:00:12.840,(11 9 1 -11 -2 5 7 10)
1969/12/31/18:00:12.840,(10 4 -10 -31 -3 0 -2 2)
1969/12/31/18:00:12.855,(-15 -34 -6 0 -14 -6 -7 -8)
1969/12/31/18:00:12.855,(13 16 -3 3 4 -2 -2 -3)
1969/12/31/18:00:12.857,(-7 -1 6 2 6 12 21 19)
1969/12/31/18:00:12.857,(3 6 -2 0 -6 -5 -3 -1)
1969/12/31/18:00:12.878,(0 -10 -1 -7 -4 3 2 3)
1969/12/31/18:00:12.878,(1 -6 -4 0 3 -1 1 6)
1969/12/31/18:00:12.879,(-4 -4 0 11 4 -5 -11 -14)
1969/12/31/18:00:12.879,(-11 -12 -4 -6 -3 -2 1 1)
1969/12/31/18:00:12.891,(-16 1 1 -1 -5 -5 -4 -7)
1969/12/31/18:00:12.891,(11 5 3 4 3 -1 0 7)
1969/12/31/18:00:12.900,(-11 -33 -6 -2 -2 -2 0 6)
1969/12/31/18:00:12.900,(59 53 14 3 7 8 12 19)
1969/12/31/18:00:12.915,(8 9 -5 -17 -12 -6 -8 3)
1969/12/31/18:00:12.915,(0 0 -11 -27 -13 -2 -4 -5)
1969/12/31/18:00:12.917,(-18 -21 1 -2 -4 -9 -8 -13)
1969/12/31/18:00:12.917,(-19 -14 1 37 18 4 -2 -5)
1969/12/31/18:00:12.938,(21 19 6 -10 8 7 10 14)
1969/12/31/18:00:12.938,(-4 -9 0 12 -7 4 2 -2)
1969/12/31/18:00:12.939,(1 9 2 3 -10 -6 -8 -4)
1969/12/31/18:00:12.939,(-7 -1 1 11 6 2 2 -3)
1969/12/31/18:00:12.959,(-18 -10 -6 7 2 -1 -8 -19)
1969/12/31/18:00:12.959,(-5 -4 7 18 14 10 13 12)
1969/12/31/18:00:12.960,(16 19 0 -4 10 5 2 3)
1969/12/31/18:00:12.960,(3 4 -7 -34 -23 -7 -6 -3)
1969/12/31/18:00:12.974,(-9 -18 -6 -19 -17 -3 -3 -5)
1969/12/31/18:00:12.974,(-4 -3 -5 1 6 -3 0 -3)
1969/12/31/18:00:12.975,(19 16 3 14 8 2 5 12)
1969/12/31/18:00:12.975,(-16 -18 -9 -15 -5 -3 -8 -13)
1969/12/31/18:00:12.997,(-1 -2 1 8 -1 -4 -4 -1)
1969/12/31/18:00:12.997,(27 40 1 11 -6 -9 -7 9)
1969/12/31/18:00:12.998,(-10 7 17 31 28 18 9 -6)
1969/12/31/18:00:12.998,(-11 -8 11 27 26 14 12 10)
1969/12/31/18:00:13.020,(19 8 -1 -37 -21 -4 0 7)
1969/12/31/18:00:13.020,(27 15 -21 -48 -33 -14 -2 13)
1969/12/31/18:00:13.020,(-28 -20 -6 56 8 -9 -13 -20)
1969/12/31/18:00:13.020,(8 6 -1 -8 -21 -7 -7 -2)
1969/12/31/18:00:13.034,(0 -4 8 34 18 8 9 10)
1969/12/31/18:00:13.034,(-5 -5 6 -28 6 -1 0 -5)
1969/12/31/18:00:13.035,(1 -3 -8 -11 -8 -5 -3 -1)
1969/12/31/18:00:13.035,(3 1 3 -4 0 2 1 0)
1969/12/31/18:00:13.057,(8 13 -2 24 19 0 -4 -4)
1969/12/31/18:00:13.057,(-19 -20 -18 -79 -35 -4 -3 -8)
1969/12/31/18:00:13.058,(0 2 2 34 -1 -5 -7 -6)
1969/12/31/18:00:13.058,(-16 -5 16 61 28 -1 -6 -13)
1969/12/31/18:00:13.080,(5 -20 0 3 10 11 20 26)
1969/12/31/18:00:13.080,(6 12 0 20 19 9 5 -6)
1969/12/31/18:00:13.080,(-20 -18 -13 -51 -28 -13 -16 -23)
1969/12/31/18:00:13.080,(8 1 -13 -48 -31 -10 0 5)
1969/12/31/18:00:13.094,(-2 -4 -5 10 11 -5 -8 -9)
1969/12/31/18:00:13.094,(-11 -1 13 48 14 4 3 1)
1969/12/31/18:00:13.095,(9 7 4 0 4 0 3 4)
1969/12/31/18:00:13.095,(-7 -22 -10 -34 -26 -4 -2 -3)
1969/12/31/18:00:13.117,(6 31 -3 -11 -3 -5 -1 -8)
1969/12/31/18:00:13.117,(32 7 10 20 10 12 12 28)
1969/12/31/18:00:13.118,(7 8 -1 -28 -7 0 1 2)
1969/12/31/18:00:13.118,(-8 -4 -12 -45 -36 -8 -3 -2)
1969/12/31/18:00:13.139,(2 0 2 21 5 -3 0 3)
1969/12/31/18:00:13.139,(-24 -25 1 29 44 14 -5 -13)
1969/12/31/18:00:13.140,(7 6 20 53 40 26 13 7)
1969/12/31/18:00:13.140,(-18 -22 -18 -23 -7 -12 -17 -17)
1969/12/31/18:00:13.155,(15 31 2 -26 -35 -13 -7 -9)
1969/12/31/18:00:13.155,(-15 -20 2 16 -8 -11 -7 -9)
1969/12/31/18:00:13.155,(39 24 -3 -28 -3 1 12 31)
1969/12/31/18:00:13.155,(17 32 2 16 5 -1 -1 4)
1969/12/31/18:00:13.177,(-1 -5 -3 -9 -3 3 2 -1)
1969/12/31/18:00:13.177,(-9 -3 -4 -20 -16 -7 -2 -9)
1969/12/31/18:00:13.178,(-10 -9 -2 -1 2 -3 -2 -3)
1969/12/31/18:00:13.178,(11 6 10 27 13 7 7 10)
1969/12/31/18:00:13.199,(-8 -6 3 19 16 7 0 -1)
1969/12/31/18:00:13.200,(-3 3 7 5 1 0 -2 -5)
1969/12/31/18:00:13.200,(-15 -12 -11 -24 -17 -14 -10 -10)
1969/12/31/18:00:13.200,(15 14 0 3 6 -1 0 8)
1969/12/31/18:00:13.214,(-35 -21 2 -3 2 8 -6 -29)
1969/12/31/18:00:13.214,(6 2 3 11 3 3 5 11)
1969/12/31/18:00:13.215,(-29 -26 1 -11 -9 -4 -2 -10)
1969/12/31/18:00:13.215,(11 0 -8 -8 1 -6 -4 3)
1969/12/31/18:00:13.237,(8 3 -6 -14 -11 -1 2 10)
1969/12/31/18:00:13.237,(-12 -7 -6 6 2 -5 -5 -6)
1969/12/31/18:00:13.238,(-13 -8 1 7 3 1 -2 -8)
1969/12/31/18:00:13.238,(1 3 9 1 19 8 12 7)
1969/12/31/18:00:13.259,(9 0 -3 -21 -31 -7 -4 5)
1969/12/31/18:00:13.259,(-5 -16 -4 -19 -13 -10 -3 -2)
1969/12/31/18:00:13.260,(11 8 -10 -14 1 3 -3 -4)
1969/12/31/18:00:13.260,(-26 -13 12 60 22 6 -4 -19)
1969/12/31/18:00:13.274,(-5 3 11 30 22 7 2 1)
1969/12/31/18:00:13.274,(-4 -5 -3 -1 -6 -7 -6 -4)
1969/12/31/18:00:13.275,(-22 -26 -12 -31 -18 -7 -11 -15)
1969/12/31/18:00:13.275,(-14 -5 -9 -32 -11 -1 1 0)
1969/12/31/18:00:13.297,(26 21 1 2 -2 0 2 3)
1969/12/31/18:00:13.297,(-12 -7 -4 -2 2 0 -8 -9)
1969/12/31/18:00:13.298,(35 14 5 2 5 2 10 24)
1969/12/31/18:00:13.298,(17 28 -5 -18 -9 3 13 12)
1969/12/31/18:00:13.319,(-23 -31 -9 2 -2 -10 -14 -17)
1969/12/31/18:00:13.319,(-3 3 -11 -49 -16 -6 -4 -5)
1969/12/31/18:00:13.320,(10 11 8 51 7 3 5 8)
1969/12/31/18:00:13.320,(-11 -10 16 38 27 7 -6 -11)
1969/12/31/18:00:13.334,(-6 -12 -2 6 11 1 3 5)
1969/12/31/18:00:13.334,(18 24 15 16 23 27 26 16)
1969/12/31/18:00:13.335,(-7 -6 -11 -26 -19 -8 -4 -6)
1969/12/31/18:00:13.335,(-17 -24 -11 -18 -19 -10 -8 -8)
1969/12/31/18:00:13.357,(24 38 5 -17 -5 1 8 11)
1969/12/31/18:00:13.357,(-25 -27 0 11 -2 -5 -7 -5)
1969/12/31/18:00:13.358,(25 43 0 0 2 -4 1 8)
1969/12/31/18:00:13.358,(9 3 4 8 6 5 5 8)
1969/12/31/18:00:13.379,(16 0 5 -5 -1 2 2 12)
1969/12/31/18:00:13.379,(0 7 -7 -7 -10 -14 -13 -9)
1969/12/31/18:00:13.380,(-11 -15 2 11 9 12 18 15)
1969/12/31/18:00:13.380,(-16 -17 -15 -27 -18 -24 -36 -27)
1969/12/31/18:00:13.394,(2 0 -6 -6 0 -2 0 -1)
1969/12/31/18:00:13.394,(7 8 4 21 11 5 8 8)
1969/12/31/18:00:13.395,(-21 -17 5 22 6 -4 -12 -16)
1969/12/31/18:00:13.395,(12 11 -3 -24 -10 2 7 9)
1969/12/31/18:00:13.417,(-15 -21 3 4 13 10 12 6)
1969/12/31/18:00:13.417,(4 20 2 16 -9 -5 -9 -7)
1969/12/31/18:00:13.418,(32 40 8 -7 11 10 12 12)
1969/12/31/18:00:13.418,(-15 -14 -1 4 -11 -4 -1 -6)
1969/12/31/18:00:13.440,(56 33 1 -9 -4 -2 4 22)
1969/12/31/18:00:13.440,(-13 -18 -4 -10 0 -1 -2 2)
1969/12/31/18:00:13.440,(-1 8 1 -5 0 0 -4 -8)
1969/12/31/18:00:13.440,(0 0 -2 -4 -5 2 11 4)
1969/12/31/18:00:13.454,(-18 -11 -4 10 3 -4 -4 -8)
1969/12/31/18:00:13.454,(0 -3 4 13 10 3 0 -4)
1969/12/31/18:00:13.455,(-9 -35 -2 -7 -5 5 13 19)
1969/12/31/18:00:13.455,(42 57 1 -1 7 5 5 7)
1969/12/31/18:00:13.477,(-15 -11 0 -5 -2 6 6 -1)
1969/12/31/18:00:13.477,(7 0 1 9 1 -1 0 -1)
1969/12/31/18:00:13.478,(-24 -20 0 0 -4 -9 -12 -18)
1969/12/31/18:00:13.478,(21 19 4 -2 0 3 6 12)
1969/12/31/18:00:13.500,(2 -2 -6 -4 -4 -6 -8 -7)
1969/12/31/18:00:13.500,(1 3 4 -2 1 1 3 -3)
1969/12/31/18:00:13.500,(10 10 -10 -19 -6 -7 -13 -8)
1969/12/31/18:00:13.500,(0 -1 5 -10 -12 3 7 11)
1969/12/31/18:00:13.514,(-8 9 1 24 11 -6 -10 -11)
1969/12/31/18:00:13.514,(-1 -17 2 -3 4 8 10 5)
1969/12/31/18:00:13.515,(18 15 2 5 5 2 5 11)
1969/12/31/18:00:13.515,(-27 -31 -4 -5 2 -1 -9 -19)
1969/12/31/18:00:13.537,(11 20 3 -7 -9 2 8 15)
1969/12/31/18:00:13.537,(-8 -1 1 7 -1 -2 -2 -7)
1969/12/31/18:00:13.538,(12 10 3 3 6 4 7 13)
1969/12/31/18:00:13.538,(-66 -43 -9 0 -4 -14 -23 -28)
1969/12/31/18:00:13.560,(-20 -19 7 -2 9 19 14 -16)
1969/12/31/18:00:13.560,(-4 -1 -3 2 2 -4 -6 -2)
1969/12/31/18:00:13.561,(15 22 -4 -14 -12 -3 1 3)
1969/12/31/18:00:13.561,(-23 -41 -2 4 3 -7 -11 -16)
1969/12/31/18:00:13.574,(-14 -16 -15 -23 -15 -10 -8 -11)
1969/12/31/18:00:13.575,(-1 18 -1 7 -6 -12 -13 0)
1969/12/31/18:00:13.575,(-10 -9 5 -2 11 16 8 -21)
1969/12/31/18:00:13.575,(-4 -7 2 29 26 5 4 2)
1969/12/31/18:00:13.597,(-14 -14 -2 -4 -19 -2 -9 -11)
1969/12/31/18:00:13.597,(6 -5 -9 -5 0 -1 5 3)
1969/12/31/18:00:13.598,(-91 -97 -21 -15 -16 -16 -17 -21)
1969/12/31/18:00:13.598,(64 68 2 -25 -6 3 8 21)
1969/12/31/18:00:13.620,(10 4 4 20 13 5 7 12)
1969/12/31/18:00:13.620,(2 1 -1 1 13 -3 -8 -9)
1969/12/31/18:00:13.621,(-20 -19 3 4 -20 -4 -4 -11)
1969/12/31/18:00:13.621,(5 -2 -6 -18 5 4 14 12)
1969/12/31/18:00:13.634,(-7 -10 2 10 3 -1 -4 1)
1969/12/31/18:00:13.634,(28 24 14 29 16 3 3 14)
1969/12/31/18:00:13.635,(14 7 -4 -1 2 -2 1 6)
1969/12/31/18:00:13.635,(-5 -11 1 -1 -8 2 1 -1)
1969/12/31/18:00:13.657,(5 -15 -7 -14 -4 4 16 27)
1969/12/31/18:00:13.657,(-2 -34 -13 -24 -19 -13 -18 -17)
1969/12/31/18:00:13.658,(28 53 16 5 4 10 16 23)
1969/12/31/18:00:13.658,(66 73 16 13 1 2 4 21)
1969/12/31/18:00:13.680,(-39 -35 -9 3 3 -5 -15 -30)
1969/12/31/18:00:13.680,(-18 -16 -9 -45 -36 -2 5 -3)
1969/12/31/18:00:13.681,(13 4 -2 14 20 -2 -2 5)
1969/12/31/18:00:13.681,(-1 -13 2 34 16 9 7 9)
1969/12/31/18:00:13.694,(12 27 16 20 7 -2 0 5)
1969/12/31/18:00:13.694,(11 18 4 15 10 5 2 2)
1969/12/31/18:00:13.695,(0 7 -7 -36 -27 -13 -10 -6)
1969/12/31/18:00:13.695,(-33 -23 -10 -5 -7 -10 -11 -18)
1969/12/31/18:00:13.717,(-17 -22 -2 13 7 -7 -15 -20)
1969/12/31/18:00:13.717,(-10 24 -3 -9 -4 4 1 -8)
1969/12/31/18:00:13.718,(26 10 1 0 -1 0 6 23)
1969/12/31/18:00:13.718,(-32 -22 -4 -3 -7 -6 -18 -28)
1969/12/31/18:00:13.740,(14 32 0 -14 -13 0 12 19)
1969/12/31/18:00:13.740,(30 27 -1 -7 -3 -5 -3 13)
1969/12/31/18:00:13.741,(-18 -14 -10 0 2 1 -1 -8)
1969/12/31/18:00:13.741,(15 3 -2 -11 4 4 9 11)
1969/12/31/18:00:13.754,(-19 -16 -8 -5 -19 -8 -8 -10)
1969/12/31/18:00:13.754,(-15 -14 4 20 26 10 5 -2)
1969/12/31/18:00:13.755,(4 12 8 31 14 4 -4 -7)
1969/12/31/18:00:13.755,(-11 -16 1 -4 2 4 2 0)
1969/12/31/18:00:13.777,(-3 -8 -19 -52 -24 -7 -6 -4)
1969/12/31/18:00:13.777,(7 0 1 3 -17 -8 -1 3)
1969/12/31/18:00:13.778,(-28 -16 9 25 14 10 5 -15)
1969/12/31/18:00:13.778,(48 42 19 25 27 10 9 31)
1969/12/31/18:00:13.800,(-23 -21 -12 -17 -4 -5 -11 -26)
1969/12/31/18:00:13.800,(-14 -15 -11 -47 -25 -2 -2 -5)
1969/12/31/18:00:13.801,(22 17 -10 -48 -44 -10 -3 6)
1969/12/31/18:00:13.801,(-18 -21 -4 46 12 -2 6 2)
1969/12/31/18:00:13.814,(16 16 23 60 56 17 5 13)
1969/12/31/18:00:13.814,(-21 -8 7 28 14 4 -6 -13)
1969/12/31/18:00:13.815,(-16 -19 -3 -24 -9 -4 -3 -8)
1969/12/31/18:00:13.815,(-1 -4 -9 -37 -25 -7 -3 -3)
1969/12/31/18:00:13.839,(0 0 0 13 -3 -10 -9 -6)
1969/12/31/18:00:13.839,(4 15 4 2 6 3 10 16)
1969/12/31/18:00:13.839,(-41 -26 -6 -3 4 -4 -14 -29)
1969/12/31/18:00:13.839,(-23 -14 -7 -15 -14 -5 -5 -9)
1969/12/31/18:00:13.860,(31 30 -7 -71 -67 -11 5 14)
1969/12/31/18:00:13.860,(-12 -26 -2 41 18 -7 -9 -9)
1969/12/31/18:00:13.861,(16 13 12 44 49 17 10 5)
1969/12/31/18:00:13.861,(-48 -70 -15 6 3 -2 -18 -29)
1969/12/31/18:00:13.874,(-19 11 -9 -13 6 0 -9 -30)
1969/12/31/18:00:13.874,(3 -6 -10 -58 -49 -12 0 5)
1969/12/31/18:00:13.882,(17 4 -19 -33 -33 -21 -7 7)
1969/12/31/18:00:13.882,(-6 -13 9 48 32 11 5 1)
1969/12/31/18:00:13.897,(12 11 20 67 53 19 7 13)
1969/12/31/18:00:13.897,(-27 -6 3 4 12 7 -1 -11)
1969/12/31/18:00:13.898,(21 1 2 6 5 6 8 12)
1969/12/31/18:00:13.898,(10 16 -5 -49 -42 -20 -3 4)
1969/12/31/18:00:13.920,(-2 -7 -6 -18 -19 -7 -4 5)
1969/12/31/18:00:13.920,(-45 -72 -12 15 11 4 -4 -14)
1969/12/31/18:00:13.921,(15 38 14 -2 12 14 10 14)
1969/12/31/18:00:13.921,(20 22 9 -10 -5 8 16 21)
1969/12/31/18:00:13.934,(13 -1 0 2 -17 -10 6 16)
1969/12/31/18:00:13.934,(-8 -17 -1 2 24 4 -4 -7)
1969/12/31/18:00:13.942,(-28 -33 -9 -1 -15 -3 -5 -7)
1969/12/31/18:00:13.942,(6 9 5 7 -4 -4 0 1)
1969/12/31/18:00:13.957,(8 15 7 13 17 4 2 3)
1969/12/31/18:00:13.957,(23 20 3 -15 -13 -1 4 12)
1969/12/31/18:00:13.958,(-4 -1 3 21 -9 -11 -6 -4)
1969/12/31/18:00:13.958,(16 25 1 -2 23 9 -3 1)
1969/12/31/18:00:13.980,(-35 -33 -9 -12 5 4 -7 -20)
1969/12/31/18:00:13.980,(11 14 -2 -6 -6 -2 3 3)
1969/12/31/18:00:13.981,(22 21 15 32 29 9 3 10)
1969/12/31/18:00:13.981,(6 22 -1 5 -13 1 1 -3)
1969/12/31/18:00:14.002,(1 -5 -2 -9 -5 -7 -5 2)
1969/12/31/18:00:14.002,(8 8 -2 -7 -1 -2 -2 3)
1969/12/31/18:00:14.009,(-3 -2 -7 -18 -17 -11 -7 -7)
1969/12/31/18:00:14.009,(20 17 8 1 13 14 28 34)
1969/12/31/18:00:14.017,(17 26 2 -4 -4 0 0 2)
1969/12/31/18:00:14.017,(13 21 5 10 7 6 7 5)
1969/12/31/18:00:14.018,(-9 -18 -4 -3 -16 -2 -4 -5)
1969/12/31/18:00:14.018,(-4 -9 2 -1 -2 -5 -5 -5)
1969/12/31/18:00:14.041,(1 -7 -2 2 -8 -11 -3 2)
1969/12/31/18:00:14.041,(3 -1 2 -3 -9 -2 2 2)
1969/12/31/18:00:14.042,(7 14 -2 9 23 5 -4 -5)
1969/12/31/18:00:14.042,(-31 -45 -9 4 14 5 -9 -22)
1969/12/31/18:00:14.063,(57 73 20 14 6 18 30 50)
1969/12/31/18:00:14.063,(9 9 -1 -6 -10 -9 -7 3)
1969/12/31/18:00:14.063,(3 -20 -15 -20 -18 -20 -23 -17)
1969/12/31/18:00:14.063,(18 24 1 -8 -11 -5 2 10)
1969/12/31/18:00:14.077,(-28 -30 -10 -5 -1 -5 -11 -20)
1969/12/31/18:00:14.077,(-32 -53 -8 1 0 2 1 -6)
1969/12/31/18:00:14.078,(93 119 22 -9 1 11 26 52)
1969/12/31/18:00:14.078,(-14 -18 -3 8 -1 -12 -19 -19)
1969/12/31/18:00:14.100,(-1 -11 -4 -6 -1 2 1 1)
1969/12/31/18:00:14.100,(13 19 10 4 6 7 7 6)
1969/12/31/18:00:14.101,(-41 -43 -10 -8 -3 -4 -7 -17)
1969/12/31/18:00:14.101,(-12 -7 -1 -5 -4 -3 -4 -6)
1969/12/31/18:00:14.114,(-1 -8 -3 11 4 -6 -6 -3)
1969/12/31/18:00:14.114,(-11 6 6 5 1 -1 -5 -15)
1969/12/31/18:00:14.122,(8 16 12 13 7 4 5 20)
1969/12/31/18:00:14.122,(-70 -77 -25 -21 -15 -9 -11 -31)
1969/12/31/18:00:14.138,(36 15 3 0 5 12 11 7)
1969/12/31/18:00:14.138,(54 56 5 7 4 3 11 29)
1969/12/31/18:00:14.138,(-21 -14 -7 -3 -3 -9 -15 -23)
1969/12/31/18:00:14.138,(-4 -9 -4 -11 6 1 -1 -5)
1969/12/31/18:00:14.160,(-18 -14 -4 0 -24 -6 -8 -7)
1969/12/31/18:00:14.160,(7 3 1 5 5 3 6 9)
1969/12/31/18:00:14.161,(-15 -18 1 1 10 7 2 -10)
1969/12/31/18:00:14.161,(16 22 3 19 2 1 4 9)
1969/12/31/18:00:14.174,(-23 -24 0 4 20 -1 -5 -12)
1969/12/31/18:00:14.174,(-5 0 0 -7 -15 1 0 -5)
1969/12/31/18:00:14.182,(-20 -25 -8 -4 -10 -8 -5 -9)
1969/12/31/18:00:14.182,(11 9 6 14 10 4 2 6)
1969/12/31/18:00:14.197,(1 -5 -2 -14 1 0 4 9)
1969/12/31/18:00:14.197,(-22 -19 -4 20 3 -10 -20 -20)
1969/12/31/18:00:14.198,(0 -9 1 -6 7 8 9 8)
1969/12/31/18:00:14.198,(1 16 2 -13 -13 -4 -1 -5)
1969/12/31/18:00:14.220,(25 14 0 -5 -3 4 9 13)
1969/12/31/18:00:14.220,(-4 -12 5 -2 2 3 7 10)
1969/12/31/18:00:14.221,(-16 -14 -2 -9 -8 -2 -3 -9)
1969/12/31/18:00:14.221,(13 16 -1 -4 14 -1 0 5)
1969/12/31/18:00:14.243,(-22 -16 -3 7 -18 -5 -9 -15)
1969/12/31/18:00:14.243,(3 3 0 -4 8 -1 -3 -1)
1969/12/31/18:00:14.244,(-1 0 1 6 -3 -3 -2 -1)
1969/12/31/18:00:14.244,(-1 -10 -4 -22 -10 1 3 4)
1969/12/31/18:00:14.257,(3 8 -1 -3 -2 3 2 2)
1969/12/31/18:00:14.257,(4 4 10 42 41 15 7 3)
1969/12/31/18:00:14.258,(-1 -1 13 22 13 9 6 -1)
1969/12/31/18:00:14.258,(10 14 17 -8 -21 6 3 4)
1969/12/31/18:00:14.281,(-5 -5 -33 -13 -24 -29 -12 -3)
1969/12/31/18:00:14.281,(-11 -12 -25 -42 -28 -17 -14 -12)
1969/12/31/18:00:14.281,(-17 -14 0 -1 14 6 -1 -9)
1969/12/31/18:00:14.281,(7 8 4 8 36 20 10 6)
1969/12/31/18:00:14.302,(0 1 10 10 -6 2 -2 -2)
1969/12/31/18:00:14.302,(-9 -7 -2 4 -8 -10 -5 -5)
1969/12/31/18:00:14.303,(5 4 -7 -15 -15 -5 1 3)
1969/12/31/18:00:14.303,(3 -2 -5 -22 -26 -6 1 2)
1969/12/31/18:00:14.317,(-7 -4 21 21 21 12 4 -1)
1969/12/31/18:00:14.317,(8 7 -12 6 3 1 2 4)
1969/12/31/18:00:14.318,(-4 -7 3 -5 7 -5 -8 -2)
1969/12/31/18:00:14.318,(-1 7 -3 6 -4 -2 -3 -3)
1969/12/31/18:00:14.342,(-5 -10 -21 -10 5 -5 -4 -5)
1969/12/31/18:00:14.342,(-11 -9 5 -21 -21 -4 -4 -9)
1969/12/31/18:00:14.347,(6 8 8 -4 -5 -3 3 5)
1969/12/31/18:00:14.347,(7 4 14 30 -10 7 6 4)
1969/12/31/18:00:14.363,(-1 2 -10 -10 -4 -5 -2 -1)
1969/12/31/18:00:14.363,(5 2 13 4 14 8 4 2)
1969/12/31/18:00:14.364,(0 -3 -20 2 1 6 3 0)
1969/12/31/18:00:14.364,(-5 -12 -33 -5 37 0 -6 -3)
1969/12/31/18:00:14.376,(-11 -9 7 -12 -9 10 5 -6)
1969/12/31/18:00:14.376,(7 8 -9 -1 -8 -6 0 5)
1969/12/31/18:00:14.385,(-6 -5 12 1 -16 -11 -6 -4)
1969/12/31/18:00:14.385,(1 6 2 -16 -24 -11 -4 -1)
1969/12/31/18:00:14.400,(3 2 4 6 6 7 3 1)
1969/12/31/18:00:14.400,(3 11 27 -3 14 8 4 3)
1969/12/31/18:00:14.402,(5 4 -1 43 21 3 -1 2)
1969/12/31/18:00:14.402,(1 -8 -8 -13 -17 -13 -3 1)
1969/12/31/18:00:14.423,(-8 -6 -14 -34 -44 -17 -8 -5)
1969/12/31/18:00:14.423,(-1 -4 -4 14 14 7 2 1)
1969/12/31/18:00:14.424,(-5 -6 -8 14 59 28 8 -2)
1969/12/31/18:00:14.424,(-5 -2 8 17 18 9 -2 -2)
1969/12/31/18:00:14.436,(0 6 16 1 -8 -5 -2 0)
1969/12/31/18:00:14.436,(2 4 1 -8 -35 -9 1 -2)
1969/12/31/18:00:14.445,(11 3 -13 -18 -21 -17 -4 6)
1969/12/31/18:00:14.445,(-6 -8 -10 4 1 -13 -9 -4)
1969/12/31/18:00:14.460,(-7 -5 0 7 20 2 -3 -5)
1969/12/31/18:00:14.460,(-6 -2 3 2 8 12 2 -4)
1969/12/31/18:00:14.462,(2 0 4 6 -10 -1 0 2)
1969/12/31/18:00:14.462,(0 2 11 -5 -18 1 -1 -1)
1969/12/31/18:00:14.483,(11 6 4 -19 2 -6 4 7)
1969/12/31/18:00:14.483,(-2 -6 -18 39 13 -6 -5 -1)
1969/12/31/18:00:14.484,(-7 -8 5 -6 4 5 -2 -7)
1969/12/31/18:00:14.484,(1 2 3 -10 -11 3 2 1)
1969/12/31/18:00:14.496,(2 3 0 19 14 6 0 0)
1969/12/31/18:00:14.496,(-3 -5 -11 -41 -31 -15 -5 -4)
1969/12/31/18:00:14.505,(5 0 -18 13 -17 -4 2 4)
1969/12/31/18:00:14.505,(0 -7 3 19 54 22 8 4)
1969/12/31/18:00:14.521,(-4 3 12 2 22 10 0 -4)
1969/12/31/18:00:14.521,(-1 0 0 -7 -7 -5 -2 -2)
1969/12/31/18:00:14.522,(1 3 3 -26 -30 -13 -3 -2)
1969/12/31/18:00:14.522,(8 5 -9 5 -9 -4 3 5)
1969/12/31/18:00:14.543,(-4 -6 1 9 11 -3 -7 -2)
1969/12/31/18:00:14.543,(-4 -2 -5 -13 -5 -3 -4 -3)
1969/12/31/18:00:14.544,(2 3 -7 -38 -26 -4 3 2)
1969/12/31/18:00:14.544,(-1 -2 -2 22 14 -3 -3 -3)
1969/12/31/18:00:14.556,(-8 -3 24 40 18 11 4 -2)
1969/12/31/18:00:14.556,(2 6 3 -4 -9 -1 1 3)
1969/12/31/18:00:14.565,(-5 -4 -5 2 16 3 -2 -5)
1969/12/31/18:00:14.565,(0 1 -8 -23 -21 -11 -2 -1)
1969/12/31/18:00:14.580,(0 -4 -15 -15 -13 -8 -4 -4)
1969/12/31/18:00:14.580,(0 -4 -6 7 6 3 -1 -1)
1969/12/31/18:00:14.582,(-1 2 5 5 7 3 0 0)
1969/12/31/18:00:14.582,(-3 0 9 0 -5 -8 -8 -2)
1969/12/31/18:00:14.603,(0 2 1 -3 -3 0 -3 -1)
1969/12/31/18:00:14.603,(2 -6 -13 -10 -5 1 3 0)
1969/12/31/18:00:14.604,(-1 -3 -5 -4 -1 -6 -6 -2)
1969/12/31/18:00:14.604,(-10 -6 7 8 -7 -2 -1 -7)
1969/12/31/18:00:14.616,(-1 2 7 11 5 -2 -3 -6)
1969/12/31/18:00:14.616,(0 1 4 7 6 1 -1 0)
1969/12/31/18:00:14.625,(4 4 -1 -4 -7 2 5 5)
1969/12/31/18:00:14.625,(6 2 -4 -14 -9 2 3 5)
1969/12/31/18:00:14.640,(0 -1 -7 -7 -3 -2 -3 1)
1969/12/31/18:00:14.640,(11 3 -17 -21 -7 5 7 11)
1969/12/31/18:00:14.642,(0 -5 10 28 18 4 0 1)
1969/12/31/18:00:14.642,(-11 -4 10 -3 0 -7 -10 -11)
1969/12/31/18:00:14.663,(-1 0 -7 -4 -5 -2 0 0)
1969/12/31/18:00:14.663,(-14 -14 0 -11 -11 -8 -7 -12)
1969/12/31/18:00:14.664,(5 11 12 16 21 7 3 4)
1969/12/31/18:00:14.664,(4 -3 -13 -18 -9 -4 1 1)
1969/12/31/18:00:14.676,(1 0 1 3 -4 2 1 3)
1969/12/31/18:00:14.676,(1 2 0 17 16 5 0 1)
1969/12/31/18:00:14.685,(-6 -7 -6 -17 -19 -6 -4 -5)
1969/12/31/18:00:14.685,(-3 -2 4 4 6 -4 -3 -3)
1969/12/31/18:00:14.700,(5 6 -10 -30 -25 -4 1 3)
1969/12/31/18:00:14.700,(1 -1 8 31 16 10 3 2)
1969/12/31/18:00:14.702,(-9 -5 10 14 11 0 -4 -6)
1969/12/31/18:00:14.702,(9 8 -2 9 9 5 3 8)
1969/12/31/18:00:14.723,(-5 -5 -8 -14 -6 -5 -5 -3)
1969/12/31/18:00:14.723,(3 3 0 -3 -9 -3 1 2)
1969/12/31/18:00:14.724,(-1 -2 1 -8 0 -1 -2 -1)
1969/12/31/18:00:14.724,(-3 0 2 9 -3 -1 -1 -1)
1969/12/31/18:00:14.736,(-4 -5 -3 -3 1 -3 -3 -3)
1969/12/31/18:00:14.736,(2 1 5 2 1 2 0 1)
1969/12/31/18:00:14.745,(0 -2 -6 -9 -10 -4 -3 -2)
1969/12/31/18:00:14.745,(-2 -3 -6 -6 -1 3 0 -2)
1969/12/31/18:00:14.759,(2 0 -8 -1 -11 -4 4 4)
1969/12/31/18:00:14.759,(0 -4 -6 -13 13 0 -4 0)
1969/12/31/18:00:14.768,(3 4 7 12 2 8 9 6)
1969/12/31/18:00:14.768,(2 3 8 3 -1 -3 0 3)
1969/12/31/18:00:14.783,(-5 -2 15 37 19 9 1 -4)
1969/12/31/18:00:14.783,(-4 -4 -4 6 3 -1 0 -3)
1969/12/31/18:00:14.784,(6 2 -3 -25 -11 0 1 3)
1969/12/31/18:00:14.784,(3 3 -3 8 -1 2 1 3)
1969/12/31/18:00:14.796,(-1 -3 -2 -9 -4 -2 -1 0)
1969/12/31/18:00:14.796,(-4 1 1 -5 -8 -4 -4 -2)
1969/12/31/18:00:14.805,(-4 -4 -9 -7 -7 -5 -4 -3)
1969/12/31/18:00:14.805,(-4 -3 -1 -2 -5 -2 -1 -3)
1969/12/31/18:00:14.820,(3 1 -5 -5 3 1 2 3)
1969/12/31/18:00:14.820,(-2 2 4 1 3 -1 -1 -3)
1969/12/31/18:00:14.822,(-1 -2 2 2 -2 -4 -2 -1)
1969/12/31/18:00:14.822,(2 1 0 -7 -14 -3 2 -1)
1969/12/31/18:00:14.843,(-1 -3 -14 2 5 -3 -3 -1)
1969/12/31/18:00:14.843,(2 4 16 9 8 6 3 3)
1969/12/31/18:00:14.844,(-3 2 6 5 4 2 0 -2)
1969/12/31/18:00:14.844,(1 1 1 1 3 1 -1 -1)
1969/12/31/18:00:14.856,(8 4 -3 -8 -6 2 5 6)
1969/12/31/18:00:14.856,(-1 -4 -1 1 1 -1 -2 -2)
1969/12/31/18:00:14.865,(-2 -3 -6 0 -3 -3 -2 -3)
1969/12/31/18:00:14.865,(-2 -2 -2 -5 -4 -1 0 -2)
1969/12/31/18:00:14.880,(-1 -2 -1 0 2 1 0 0)
1969/12/31/18:00:14.880,(4 6 1 -2 -1 -1 0 2)
1969/12/31/18:00:14.886,(-3 -2 0 3 0 -1 -3 -3)
1969/12/31/18:00:14.886,(-1 0 -3 -3 0 1 -2 -2)
1969/12/31/18:00:14.903,(-2 -2 1 0 0 0 -3 -1)
1969/12/31/18:00:14.903,(-3 -3 0 -3 -1 -2 1 -1)
1969/12/31/18:00:14.909,(1 1 -2 -1 -3 -3 -1 1)
1969/12/31/18:00:14.909,(1 1 -2 -1 1 0 2 0)
1969/12/31/18:00:14.925,(0 0 3 3 3 1 -1 2)
1969/12/31/18:00:14.925,(-2 -2 -1 -2 -4 -3 -1 -1)
1969/12/31/18:00:14.927,(0 0 -2 -2 0 0 1 -1)
1969/12/31/18:00:14.927,(-2 -2 1 3 3 0 -1 1)
1969/12/31/18:00:14.939,(-4 -3 2 1 0 -1 -2 -6)
1969/12/31/18:00:14.939,(0 0 -2 -1 -1 0 -1 1)
1969/12/31/18:00:14.954,(1 -1 -3 -2 -3 -1 -2 0)
1969/12/31/18:00:14.954,(-1 -2 1 2 1 -2 -3 -2)
1969/12/31/18:00:14.963,(-2 -1 0 -1 2 1 0 -1)
1969/12/31/18:00:14.963,(0 -2 -2 -2 -4 -1 -2 2)
1969/12/31/18:00:14.965,(-2 0 -2 -1 2 -1 -1 0)
1969/12/31/18:00:14.965,(-1 -3 0 -1 0 2 1 0)
1969/12/31/18:00:14.985,(-2 0 -2 1 -1 0 -2 -2)
1969/12/31/18:00:14.985,(1 0 -1 -1 -1 1 1 -2)
1969/12/31/18:00:14.987,(-1 -2 -3 0 -2 -1 2 0)
1969/12/31/18:00:14.987,(-2 0 -2 -3 1 -3 -3 -3)
1969/12/31/18:00:15.000,(-1 0 0 1 0 -1 -1 -3)
1969/12/31/18:00:15.000,(1 2 -1 -2 -4 0 1 3)
1969/12/31/18:00:15.006,(-1 -1 -1 3 0 -2 -1 0)
1969/12/31/18:00:15.006,(0 0 -1 -2 -1 0 -1 0)
1969/12/31/18:00:15.023,(0 -1 0 -3 -1 0 -1 0)
1969/12/31/18:00:15.023,(-2 -1 0 -1 -2 0 -1 -2)
1969/12/31/18:00:15.024,(-2 0 0 -1 0 -1 -3 -1)
1969/12/31/18:00:15.024,(1 0 -2 0 -2 -1 1 2)
1969/12/31/18:00:15.036,(-3 -2 1 0 1 0 0 -2)
1969/12/31/18:00:15.036,(-1 -1 -1 -1 -2 -2 -2 -2)
1969/12/31/18:00:15.045,(1 -1 -3 1 1 1 2 2)
1969/12/31/18:00:15.045,(0 -2 -2 -1 2 3 0 -1)
1969/12/31/18:00:15.059,(2 -2 -1 -2 0 -1 -2 -1)
1969/12/31/18:00:15.059,(-2 -1 -3 0 1 -2 1 -1)
1969/12/31/18:00:15.066,(-2 -1 -2 -2 -4 -1 -3 -2)
1969/12/31/18:00:15.066,(1 1 -1 0 -1 1 -1 2)
1969/12/31/18:00:15.083,(-1 -1 0 1 -1 1 -1 -3)
1969/12/31/18:00:15.083,(-1 -2 0 -1 1 1 -1 1)
1969/12/31/18:00:15.084,(1 1 -1 -2 -1 -1 1 1)
1969/12/31/18:00:15.084,(0 0 -1 -1 -1 -2 -1 0)
1969/12/31/18:00:15.097,(0 -1 -1 1 -1 -2 -1 0)
1969/12/31/18:00:15.097,(-2 1 1 -1 0 -2 -3 -2)
1969/12/31/18:00:15.105,(-2 -2 0 -1 0 2 -1 -2)
1969/12/31/18:00:15.105,(1 1 -1 1 -1 -2 0 0)
1969/12/31/18:00:15.120,(0 1 2 0 0 1 2 3)
1969/12/31/18:00:15.120,(-1 -2 -1 1 0 -1 1 -1)
1969/12/31/18:00:15.126,(-1 -1 0 -1 0 -1 -1 -1)
1969/12/31/18:00:15.126,(1 0 0 -1 0 0 0 -2)
1969/12/31/18:00:15.143,(-1 -1 -2 -1 1 0 2 -1)
1969/12/31/18:00:15.143,(-1 -1 -1 0 0 1 -1 -1)
1969/12/31/18:00:15.144,(0 0 1 0 0 1 -1 1)
1969/12/31/18:00:15.144,(0 0 -2 -1 0 0 3 1)
1969/12/31/18:00:15.165,(2 -1 -1 0 -1 -1 1 -1)
1969/12/31/18:00:15.165,(1 -1 0 -2 0 -2 0 -1)
1969/12/31/18:00:15.167,(-1 -1 0 -1 -2 -3 -1 -3)
1969/12/31/18:00:15.167,(-2 -2 -2 1 0 0 -2 0)
1969/12/31/18:00:15.188,(1 -1 -1 0 -1 0 1 -1)
1969/12/31/18:00:15.188,(-1 -1 -1 -1 0 -1 -1 -2)
1969/12/31/18:00:15.189,(1 1 -3 0 -1 -1 -2 -1)
1969/12/31/18:00:15.189,(0 0 1 -1 -2 -1 1 1)
1969/12/31/18:00:15.203,(-2 0 0 0 -1 -1 -1 0)
1969/12/31/18:00:15.203,(0 -1 0 0 0 -1 -2 -1)
1969/12/31/18:00:15.204,(-1 -1 -1 1 0 1 0 -2)
1969/12/31/18:00:15.204,(-2 -1 -2 0 1 -1 -1 -2)
1969/12/31/18:00:15.225,(-1 -1 -2 -2 -1 0 -1 1)
1969/12/31/18:00:15.225,(-1 1 -1 0 -2 -1 0 0)
1969/12/31/18:00:15.227,(0 0 -1 -2 0 0 -2 0)
1969/12/31/18:00:15.227,(1 0 1 0 0 0 0 1)
1969/12/31/18:00:15.239,(-1 0 0 -2 0 -2 0 0)
1969/12/31/18:00:15.239,(-2 -2 -1 -1 -2 -2 -1 -1)
1969/12/31/18:00:15.254,(-1 0 -1 0 -1 0 -1 -3)
1969/12/31/18:00:15.254,(-1 1 -1 0 0 -2 -1 -2)
