time,.data
1969/12/31/18:00:27.754,(0 1 -1 -1 0 -1 -2 0)
1969/12/31/18:00:27.754,(-2 2 -2 -1 0 -3 -2 -2)
1969/12/31/18:00:27.769,(-1 -2 1 0 0 -1 0 0)
1969/12/31/18:00:27.769,(-1 1 4 1 -2 -1 -2 1)
1969/12/31/18:00:27.770,(-2 2 4 1 4 0 0 -2)
1969/12/31/18:00:27.770,(-1 -1 0 -1 0 -1 -1 -1)
1969/12/31/18:00:27.791,(-2 -4 -4 -4 -3 -1 -2 -2)
1969/12/31/18:00:27.791,(-1 -3 0 -2 0 -2 1 -1)
1969/12/31/18:00:27.793,(5 10 18 15 6 1 1 3)
1969/12/31/18:00:27.793,(-2 -2 -4 1 1 0 -1 -1)
1969/12/31/18:00:27.805,(-1 -2 -2 -2 -1 -2 0 -3)
1969/12/31/18:00:27.805,(1 -4 -10 -1 -1 1 2 1)
1969/12/31/18:00:27.814,(-2 -2 0 -2 -1 -2 -2 -1)
1969/12/31/18:00:27.814,(1 2 6 1 0 1 1 0)
1969/12/31/18:00:27.829,(-2 -6 -2 -1 1 0 -2 -1)
1969/12/31/18:00:27.829,(1 7 1 3 1 1 0 -2)
1969/12/31/18:00:27.830,(-3 -3 -3 -3 -2 -1 0 -3)
1969/12/31/18:00:27.830,(-1 -1 -2 -1 -2 -1 0 -2)
1969/12/31/18:00:27.851,(-1 0 -2 -6 -6 -3 -1 -2)
1969/12/31/18:00:27.851,(-3 -2 10 3 0 -2 0 0)
1969/12/31/18:00:27.853,(-2 -2 2 -2 -3 -1 -1 -2)
1969/12/31/18:00:27.853,(0 3 -4 -5 -1 -1 1 -1)
1969/12/31/18:00:27.865,(0 3 -2 0 0 0 -1 -1)
1969/12/31/18:00:27.865,(-2 0 2 -2 -3 -3 -2 -3)
1969/12/31/18:00:27.874,(0 -1 -6 0 -4 0 0 0)
1969/12/31/18:00:27.874,(0 -4 -1 0 0 1 -2 0)
1969/12/31/18:00:27.896,(2 3 2 4 1 0 -1 1)
1969/12/31/18:00:27.896,(-3 -8 7 2 2 -1 -1 -2)
1969/12/31/18:00:27.898,(-2 -1 -3 -2 -3 -2 -1 -2)
1969/12/31/18:00:27.898,(-2 -3 -6 -5 -3 -3 -2 -1)
1969/12/31/18:00:27.911,(-1 2 0 -2 -2 -1 -1 0)
1969/12/31/18:00:27.911,(1 -1 -5 -2 -3 -1 -3 -1)
1969/12/31/18:00:27.913,(-1 0 -1 -7 0 -1 2 -1)
1969/12/31/18:00:27.913,(-2 -7 -7 -2 -2 0 -1 0)
1969/12/31/18:00:27.925,(-1 1 3 -2 -4 -1 1 -1)
1969/12/31/18:00:27.925,(1 3 5 3 1 2 0 1)
1969/12/31/18:00:27.934,(0 -1 2 1 2 0 0 1)
1969/12/31/18:00:27.934,(0 0 -3 -9 -3 -1 -2 -3)
1969/12/31/18:00:27.949,(-4 -8 -9 -5 -3 -1 -3 -3)
1969/12/31/18:00:27.949,(1 2 4 -7 -5 -2 -1 -3)
1969/12/31/18:00:27.950,(-2 1 0 4 -1 -1 -3 -2)
1969/12/31/18:00:27.950,(-2 -3 -3 -9 -1 0 -2 0)
1969/12/31/18:00:27.971,(0 1 4 16 4 3 -2 -1)
1969/12/31/18:00:27.971,(-2 -3 -14 -12 -4 -1 8 3)
1969/12/31/18:00:27.973,(-2 -3 9 0 -3 -3 -2 -4)
1969/12/31/18:00:27.973,(-1 -2 -6 -2 -1 -4 -8 0)
1969/12/31/18:00:27.985,(-1 0 5 -1 3 13 1 -2)
1969/12/31/18:00:27.985,(-1 0 -18 -11 -7 -15 -4 -1)
1969/12/31/18:00:27.994,(-3 -4 4 -1 -3 3 13 2)
1969/12/31/18:00:27.994,(3 5 11 20 8 14 -6 1)
1969/12/31/18:00:28.016,(0 1 -8 -5 5 -13 -1 0)
1969/12/31/18:00:28.016,(-5 -4 15 18 -4 -6 -17 -9)
1969/12/31/18:00:28.018,(-3 -6 -39 -46 -13 -7 6 0)
1969/12/31/18:00:28.018,(1 7 37 36 12 5 9 2)
1969/12/31/18:00:28.031,(7 14 29 47 23 10 11 6)
1969/12/31/18:00:28.031,(2 7 10 2 6 10 5 0)
1969/12/31/18:00:28.033,(-5 -8 -20 -5 -6 -9 -17 -3)
1969/12/31/18:00:28.033,(-6 -7 -33 -35 -16 -15 5 0)
1969/12/31/18:00:28.045,(-6 -9 6 -11 -10 -6 -5 -3)
1969/12/31/18:00:28.045,(-4 -7 -17 -34 -5 0 -4 -3)
1969/12/31/18:00:28.054,(-1 2 33 34 4 9 2 1)
1969/12/31/18:00:28.054,(-2 -11 -54 -22 -2 0 -2 0)
1969/12/31/18:00:28.069,(-2 7 11 -16 -11 -8 -9 -8)
1969/12/31/18:00:28.069,(7 10 20 29 15 9 4 5)
1969/12/31/18:00:28.070,(-1 -3 -9 10 3 3 0 1)
1969/12/31/18:00:28.070,(0 5 6 3 -1 -5 -4 -5)
1969/12/31/18:00:28.091,(-9 -19 6 -8 -9 -7 -5 -6)
1969/12/31/18:00:28.091,(-9 -16 -73 -38 -13 -1 5 2)
1969/12/31/18:00:28.093,(15 30 85 59 17 1 -3 3)
1969/12/31/18:00:28.093,(4 9 4 -1 4 0 0 1)
1969/12/31/18:00:28.114,(-4 -3 -12 1 -6 -1 -1 -2)
1969/12/31/18:00:28.114,(1 -1 17 22 2 -2 -4 -1)
1969/12/31/18:00:28.115,(-10 -19 -35 -31 -8 -4 -3 -2)
1969/12/31/18:00:28.115,(-8 -9 -20 -41 -17 -8 -4 -7)
1969/12/31/18:00:28.128,(4 15 38 31 13 4 0 -2)
1969/12/31/18:00:28.128,(6 13 4 -1 -6 -9 -14 -10)
1969/12/31/18:00:28.135,(-1 -3 -10 0 0 -2 -4 -4)
1969/12/31/18:00:28.135,(2 -1 -5 -17 -3 -2 0 3)
1969/12/31/18:00:28.151,(1 -11 -19 -10 1 6 13 17)
1969/12/31/18:00:28.151,(-9 -3 2 17 -4 -7 -12 -19)
1969/12/31/18:00:28.153,(0 8 2 -3 -4 -6 -7 -10)
1969/12/31/18:00:28.153,(-1 0 -12 -4 4 4 0 0)
1969/12/31/18:00:28.165,(3 3 12 6 -5 -4 -7 -1)
1969/12/31/18:00:28.165,(5 5 23 20 8 4 4 9)
1969/12/31/18:00:28.174,(-8 -14 -31 -35 -10 -3 -1 -5)
1969/12/31/18:00:28.174,(-6 -2 18 25 -1 -6 -8 -9)
1969/12/31/18:00:28.188,(2 3 -18 -7 3 1 8 9)
1969/12/31/18:00:28.188,(0 -1 6 -13 -2 4 3 3)
1969/12/31/18:00:28.195,(-1 0 -12 -11 -4 -3 -6 -5)
1969/12/31/18:00:28.195,(1 -4 12 13 2 0 3 3)
1969/12/31/18:00:28.211,(-3 -8 -14 -14 -5 0 0 1)
1969/12/31/18:00:28.211,(0 -7 -5 -10 -3 1 4 3)
1969/12/31/18:00:28.225,(3 6 -2 6 5 1 1 3)
1969/12/31/18:00:28.225,(1 8 17 14 2 2 -1 -3)
1969/12/31/18:00:28.226,(-6 -6 -29 -22 -10 -8 -3 -5)
1969/12/31/18:00:28.226,(-5 -1 -3 0 0 -1 -1 0)
1969/12/31/18:00:28.234,(-2 1 8 12 8 4 2 1)
1969/12/31/18:00:28.234,(-1 -3 3 1 -2 -1 3 1)
1969/12/31/18:00:28.248,(-2 -2 -8 -9 -3 -5 -8 -6)
1969/12/31/18:00:28.248,(-4 -15 -7 -3 2 1 4 0)
1969/12/31/18:00:28.255,(-2 1 6 -2 0 -2 1 3)
1969/12/31/18:00:28.255,(2 11 18 10 4 3 1 -2)
1969/12/31/18:00:28.272,(-1 1 -2 0 0 1 -1 -3)
1969/12/31/18:00:28.272,(0 1 10 5 1 2 6 5)
1969/12/31/18:00:28.273,(-6 -15 -20 -12 -7 -5 -15 -8)
1969/12/31/18:00:28.273,(-6 -15 -5 3 -1 -1 2 0)
1969/12/31/18:00:28.285,(3 10 5 3 -1 -1 -5 -5)
1969/12/31/18:00:28.285,(-1 -2 -6 -4 -1 2 8 7)
1969/12/31/18:00:28.294,(0 4 6 3 4 5 8 6)
1969/12/31/18:00:28.294,(1 -1 0 2 0 -1 -6 -5)
1969/12/31/18:00:28.308,(-15 -53 -36 -16 -8 -5 -4 -6)
1969/12/31/18:00:28.308,(11 59 38 5 1 -2 -1 0)
1969/12/31/18:00:28.315,(4 16 8 9 4 4 4 3)
1969/12/31/18:00:28.315,(-1 7 -3 -1 -3 -3 1 0)
1969/12/31/18:00:28.331,(-4 -9 -7 -3 1 1 3 2)
1969/12/31/18:00:28.331,(-9 -31 -18 1 2 -1 -4 -3)
1969/12/31/18:00:28.333,(-2 -3 -1 -2 -2 -2 0 1)
1969/12/31/18:00:28.333,(1 5 5 0 0 0 1 1)
1969/12/31/18:00:28.354,(-1 -1 -3 -4 -1 -1 -4 -5)
1969/12/31/18:00:28.354,(-4 -14 -3 -2 -2 -2 -2 -3)
1969/12/31/18:00:28.355,(1 8 4 -3 -1 -1 -2 -3)
1969/12/31/18:00:28.355,(-10 -29 -21 -8 -5 -5 -2 -3)
1969/12/31/18:00:28.368,(10 38 20 8 3 -2 0 3)
1969/12/31/18:00:28.368,(-1 5 8 5 2 0 -7 -10)
1969/12/31/18:00:28.375,(-8 -27 -15 -7 -4 -2 -3 0)
1969/12/31/18:00:28.375,(8 -2 -12 -9 -4 2 9 14)
1969/12/31/18:00:28.391,(-7 12 24 9 4 2 -5 -9)
1969/12/31/18:00:28.391,(4 18 3 4 1 1 5 7)
1969/12/31/18:00:28.393,(14 1 -6 -6 -2 -2 -3 -12)
1969/12/31/18:00:28.393,(0 -14 1 -1 -1 -2 -1 -2)
1969/12/31/18:00:28.414,(9 3 -4 -5 -2 0 8 20)
1969/12/31/18:00:28.414,(-26 -14 -1 0 2 -1 -10 -16)
1969/12/31/18:00:28.415,(-13 -2 1 -1 -1 0 1 -5)
1969/12/31/18:00:28.415,(8 13 4 1 0 3 6 12)
1969/12/31/18:00:28.428,(16 6 0 2 0 -3 -10 -12)
1969/12/31/18:00:28.428,(-6 -7 -7 -5 -2 0 0 -1)
1969/12/31/18:00:28.435,(13 -10 -8 -5 -4 -3 -3 4)
1969/12/31/18:00:28.435,(-8 4 6 2 0 -4 -6 -11)
1969/12/31/18:00:28.451,(-17 -9 -6 -3 -3 -5 -2 -2)
1969/12/31/18:00:28.451,(28 10 -2 -6 -3 1 11 12)
1969/12/31/18:00:28.453,(1 6 13 12 9 6 -1 -4)
1969/12/31/18:00:28.453,(-72 -24 -8 -5 1 13 10 -40)
1969/12/31/18:00:28.474,(65 15 -2 -2 -7 -19 -26 39)
1969/12/31/18:00:28.474,(-52 -26 -10 -7 -9 -6 -11 -22)
1969/12/31/18:00:28.475,(10 13 10 1 0 8 19 10)
1969/12/31/18:00:28.475,(24 -1 4 6 9 1 -21 0)
1969/12/31/18:00:28.488,(-10 -9 -10 -8 0 6 29 30)
1969/12/31/18:00:28.488,(1 -2 1 1 -4 -8 -6 -5)
1969/12/31/18:00:28.495,(-47 7 1 0 -1 -1 8 -15)
1969/12/31/18:00:28.495,(60 15 1 -5 -10 -6 -15 7)
1969/12/31/18:00:28.511,(-11 7 12 10 9 22 24 -4)
1969/12/31/18:00:28.511,(18 -12 -9 -3 3 7 -26 0)
1969/12/31/18:00:28.513,(-52 -10 14 7 0 -24 14 -48)
1969/12/31/18:00:28.513,(88 76 10 1 4 18 7 89)
1969/12/31/18:00:28.534,(-65 -48 -22 -15 -18 -37 -47 -92)
1969/12/31/18:00:28.534,(21 6 0 -2 1 -21 15 40)
1969/12/31/18:00:28.535,(-7 2 0 6 10 39 -7 -15)
1969/12/31/18:00:28.535,(-38 -24 7 5 0 -6 19 4)
1969/12/31/18:00:28.548,(54 35 3 0 6 19 -9 8)
1969/12/31/18:00:28.548,(-3 -16 -4 0 -2 5 30 30)
1969/12/31/18:00:28.556,(11 4 -2 -4 -2 -7 -10 8)
1969/12/31/18:00:28.556,(-17 -22 -7 -1 -3 -2 17 -13)
1969/12/31/18:00:28.571,(-7 2 1 0 0 -16 -17 -17)
1969/12/31/18:00:28.571,(4 -11 -5 -4 -7 -7 -4 47)
1969/12/31/18:00:28.573,(2 9 -8 -7 -6 9 19 29)
1969/12/31/18:00:28.573,(-45 -42 -10 -4 1 18 17 -55)
1969/12/31/18:00:28.594,(12 32 12 7 2 -30 -32 0)
1969/12/31/18:00:28.594,(8 8 14 11 11 32 31 22)
1969/12/31/18:00:28.595,(62 3 -19 -16 -16 -29 -17 4)
1969/12/31/18:00:28.595,(-28 -2 -6 -3 -1 -11 -24 -30)
1969/12/31/18:00:28.607,(-60 -28 -1 0 4 20 10 -28)
1969/12/31/18:00:28.607,(30 9 -6 -9 -13 3 10 39)
1969/12/31/18:00:28.616,(-14 -30 -11 -7 -4 -12 -33 -9)
1969/12/31/18:00:28.616,(25 27 17 12 10 21 -8 -15)
1969/12/31/18:00:28.631,(33 -4 -17 -9 -3 20 30 47)
1969/12/31/18:00:28.631,(22 46 4 -2 -1 -13 -27 -23)
1969/12/31/18:00:28.633,(-69 -33 -5 0 -2 -5 15 -3)
1969/12/31/18:00:28.633,(-19 -30 -12 -5 -4 -1 -45 -3)
1969/12/31/18:00:28.654,(9 -4 7 5 3 8 39 46)
1969/12/31/18:00:28.654,(-12 18 6 0 -1 -8 -11 -55)
1969/12/31/18:00:28.655,(-36 -32 -16 -4 5 27 1 -20)
1969/12/31/18:00:28.655,(33 -13 -15 -13 -15 -46 -4 59)
1969/12/31/18:00:28.667,(-22 -1 7 7 7 19 32 18)
1969/12/31/18:00:28.667,(-2 -5 -9 -8 -4 -9 -7 -28)
1969/12/31/18:00:28.676,(6 8 11 7 7 8 -11 -15)
1969/12/31/18:00:28.676,(-62 -2 -7 -6 -9 -34 -5 -46)
1969/12/31/18:00:28.691,(-20 -6 -3 -2 -5 -7 -2 -32)
1969/12/31/18:00:28.691,(4 17 7 3 12 55 14 38)
1969/12/31/18:00:28.693,(51 -15 -4 -2 -6 -30 -20 32)
1969/12/31/18:00:28.693,(-17 -8 -6 -2 -3 -13 -2 18)
1969/12/31/18:00:28.714,(10 16 0 -4 -4 -29 -71 -38)
1969/12/31/18:00:28.714,(25 28 20 10 6 8 33 58)
1969/12/31/18:00:28.715,(-5 4 2 1 0 2 -4 -14)
1969/12/31/18:00:28.715,(0 -12 -6 2 4 9 -10 -13)
1969/12/31/18:00:28.727,(-37 3 -2 -5 -7 9 45 35)
1969/12/31/18:00:28.728,(-26 -37 -21 -13 -10 -22 -30 -59)
1969/12/31/18:00:28.736,(16 33 16 7 5 2 -3 3)
1969/12/31/18:00:28.736,(-24 2 10 3 -4 -18 2 -39)
1969/12/31/18:00:28.751,(-8 -14 -6 -3 -1 10 24 42)
1969/12/31/18:00:28.751,(-26 -35 -26 -17 -9 -15 -9 -45)
1969/12/31/18:00:28.753,(36 34 14 3 -4 6 23 30)
1969/12/31/18:00:28.753,(-19 -4 6 4 6 8 -3 9)
1969/12/31/18:00:28.774,(31 -9 1 2 4 0 -22 -17)
1969/12/31/18:00:28.774,(-18 3 3 0 -2 -21 -22 -20)
1969/12/31/18:00:28.775,(45 27 5 3 0 -9 16 -18)
1969/12/31/18:00:28.775,(-18 -24 -14 -9 -4 30 -21 -21)
1969/12/31/18:00:28.787,(70 13 -7 -7 -5 -7 -12 16)
1969/12/31/18:00:28.787,(-17 -6 0 2 1 -5 -10 -17)
1969/12/31/18:00:28.796,(-56 -11 -4 -4 -1 0 4 -16)
1969/12/31/18:00:28.796,(25 37 21 11 6 5 38 11)
1969/12/31/18:00:28.811,(-40 -42 -23 -13 -8 0 -15 -37)
1969/12/31/18:00:28.811,(-21 -1 13 12 4 -18 -35 -62)
1969/12/31/18:00:28.813,(10 8 -3 -3 -2 5 9 56)
1969/12/31/18:00:28.813,(44 -14 -17 -13 -9 -14 8 44)
1969/12/31/18:00:28.834,(-2 8 5 2 5 18 13 -11)
1969/12/31/18:00:28.834,(10 8 7 6 3 5 19 19)
1969/12/31/18:00:28.835,(25 -18 -16 -12 -8 -3 11 90)
1969/12/31/18:00:28.835,(42 21 15 11 9 7 5 -1)
1969/12/31/18:00:28.847,(-8 30 11 6 0 -9 -13 -27)
1969/12/31/18:00:28.847,(-82 -53 -16 -2 1 -1 3 -42)
1969/12/31/18:00:28.856,(26 7 1 -1 0 -2 -13 -31)
1969/12/31/18:00:28.856,(50 16 4 1 1 20 -15 38)
1969/12/31/18:00:28.871,(3 -7 -8 -9 -11 -23 24 0)
1969/12/31/18:00:28.871,(-19 2 4 0 7 19 -66 -32)
1969/12/31/18:00:28.873,(27 1 -3 -1 -5 -19 -3 -31)
1969/12/31/18:00:28.873,(-64 -34 -14 -7 -4 3 1 -14)
1969/12/31/18:00:28.894,(3 3 8 7 7 -23 -19 -13)
1969/12/31/18:00:28.894,(31 15 8 7 6 28 94 64)
1969/12/31/18:00:28.895,(-58 -12 -9 -8 -4 -1 -59 -56)
1969/12/31/18:00:28.895,(-1 14 6 -2 -8 -20 -21 -23)
1969/12/31/18:00:28.908,(21 -7 -6 -2 -5 -8 -10 42)
1969/12/31/18:00:28.908,(18 -17 -6 -2 -2 -15 0 -17)
1969/12/31/18:00:28.916,(28 8 1 2 3 3 9 16)
1969/12/31/18:00:28.916,(-13 5 3 -2 -2 -1 39 1)
1969/12/31/18:00:28.939,(-37 -13 -4 -2 4 43 10 21)
1969/12/31/18:00:28.939,(68 26 7 5 0 -6 -10 9)
1969/12/31/18:00:28.941,(-7 -12 -15 -15 1 -2 7 -25)
1969/12/31/18:00:28.941,(4 11 6 9 14 72 -24 -15)
1969/12/31/18:00:28.954,(2 3 -2 3 -15 -22 48 -45)
1969/12/31/18:00:28.954,(-45 17 2 -7 -19 -21 -39 -30)
1969/12/31/18:00:28.955,(2 -46 -17 -6 3 20 -4 -15)
1969/12/31/18:00:28.956,(29 -9 -6 1 2 -24 1 0)
1969/12/31/18:00:28.968,(40 2 -5 -1 19 7 65 34)
1969/12/31/18:00:28.968,(15 2 3 -1 -2 22 37 66)
1969/12/31/18:00:28.977,(-12 21 15 8 20 10 10 2)
1969/12/31/18:00:28.977,(7 18 7 -4 -23 -15 6 20)
1969/12/31/18:00:28.991,(-33 -34 -3 13 31 5 -15 -17)
1969/12/31/18:00:28.991,(1 -6 0 14 -2 -16 -2 -9)
1969/12/31/18:00:28.993,(-24 1 -6 -27 -37 -11 -16 13)
1969/12/31/18:00:28.993,(11 19 6 -4 8 -2 1 -9)
1969/12/31/18:00:29.021,(-21 -18 -2 -9 -12 -13 -31 -22)
1969/12/31/18:00:29.021,(-33 -7 -1 1 7 18 4 -2)
1969/12/31/18:00:29.023,(26 10 1 11 -3 -44 12 -12)
1969/12/31/18:00:29.023,(22 9 -5 -12 -10 19 59 37)
1969/12/31/18:00:29.028,(-26 11 8 5 -9 -24 -16 -27)
1969/12/31/18:00:29.028,(17 4 0 1 15 -9 -33 -21)
1969/12/31/18:00:29.036,(0 -10 2 3 1 14 21 5)
1969/12/31/18:00:29.036,(-11 -8 0 8 13 -3 14 -1)
1969/12/31/18:00:29.050,(-26 -4 -6 -4 0 0 -25 -2)
1969/12/31/18:00:29.050,(-4 -19 -8 -7 -12 -4 -7 -20)
1969/12/31/18:00:29.059,(10 24 9 10 -7 19 28 21)
1969/12/31/18:00:29.059,(-8 -13 -4 -16 -13 -49 -23 -1)
1969/12/31/18:00:29.074,(-3 -7 -3 -6 -2 52 28 0)
1969/12/31/18:00:29.074,(-24 19 7 4 6 6 -13 -26)
1969/12/31/18:00:29.075,(-10 -37 -17 1 2 -32 -35 -43)
1969/12/31/18:00:29.075,(-11 -18 -7 5 6 15 -1 -6)
1969/12/31/18:00:29.095,(13 21 3 7 11 5 6 19)
1969/12/31/18:00:29.095,(-7 -1 -3 -22 -25 4 26 4)
1969/12/31/18:00:29.103,(13 7 9 12 26 28 -4 25)
1969/12/31/18:00:29.103,(-39 -26 -12 -2 -7 -38 -5 -25)
1969/12/31/18:00:29.111,(-20 -14 -7 -7 -8 5 -11 20)
1969/12/31/18:00:29.111,(5 4 -10 -1 10 2 -1 -33)
1969/12/31/18:00:29.111,(-31 -44 -33 -16 -10 2 -13 14)
1969/12/31/18:00:29.111,(-17 38 10 -12 -28 -21 -3 2)
1969/12/31/18:00:29.133,(25 51 15 4 5 -7 -11 -11)
1969/12/31/18:00:29.133,(10 -39 -4 6 8 12 11 30)
1969/12/31/18:00:29.134,(1 55 29 11 2 -10 2 5)
1969/12/31/18:00:29.134,(-44 -29 -3 18 9 -3 -12 -33)
1969/12/31/18:00:29.156,(-9 -20 -10 -13 -28 -36 -13 -28)
1969/12/31/18:00:29.156,(43 -70 -55 -24 2 38 -4 38)
1969/12/31/18:00:29.156,(11 25 -18 -2 40 7 1 20)
1969/12/31/18:00:29.156,(16 -1 -4 -11 -34 0 -14 -21)
1969/12/31/18:00:29.171,(12 33 12 1 -6 0 3 18)
1969/12/31/18:00:29.171,(-55 -39 -24 -12 -16 -49 -27 -71)
1969/12/31/18:00:29.179,(19 -17 -30 -16 3 36 10 9)
1969/12/31/18:00:29.179,(55 75 75 33 11 5 11 51)
1969/12/31/18:00:29.193,(-61 -108 -86 -21 -8 -3 -23 -25)
1969/12/31/18:00:29.193,(59 77 -36 -16 -9 -23 17 66)
1969/12/31/18:00:29.194,(-23 23 60 13 -11 -20 -8 -40)
1969/12/31/18:00:29.194,(-17 -10 -55 -17 11 -7 1 -2)
1969/12/31/18:00:29.216,(55 53 109 30 12 21 4 32)
1969/12/31/18:00:29.216,(-14 -112 -91 -18 3 16 16 42)
1969/12/31/18:00:29.216,(20 33 -26 -1 -18 -11 -17 -33)
1969/12/31/18:00:29.216,(59 86 90 41 28 -2 0 16)
1969/12/31/18:00:29.231,(-53 -91 -72 -10 -3 1 -18 -48)
1969/12/31/18:00:29.231,(0 -4 12 -4 -10 18 12 1)
1969/12/31/18:00:29.231,(-11 -24 5 4 6 -12 17 37)
1969/12/31/18:00:29.231,(-115 -45 -33 -3 18 35 -2 -73)
1969/12/31/18:00:29.253,(38 -41 -31 -26 -38 -24 -20 2)
1969/12/31/18:00:29.254,(5 84 1 -4 8 -8 -7 -69)
1969/12/31/18:00:29.261,(54 40 24 15 -4 -4 -9 24)
1969/12/31/18:00:29.261,(93 71 20 -1 2 -1 -3 70)
1969/12/31/18:00:29.275,(-81 -42 -49 -20 -9 -3 15 -42)
1969/12/31/18:00:29.275,(16 82 82 49 17 13 -7 0)
1969/12/31/18:00:29.276,(-58 2 44 10 -17 -24 -27 -76)
1969/12/31/18:00:29.276,(14 -75 -87 -18 6 26 4 11)
1969/12/31/18:00:29.291,(110 59 57 27 16 9 13 70)
1969/12/31/18:00:29.291,(-4 -128 -97 -39 -18 -29 -16 -34)
1969/12/31/18:00:29.291,(25 86 30 15 18 41 20 43)
1969/12/31/18:00:29.291,(34 -108 -26 -25 -16 -1 -3 16)
1969/12/31/18:00:29.313,(-21 50 -23 -7 47 51 3 -34)
1969/12/31/18:00:29.313,(-28 -30 30 5 -43 -69 0 37)
1969/12/31/18:00:29.321,(-34 -14 -27 -9 -24 -17 -23 -24)
1969/12/31/18:00:29.321,(-27 -2 -14 -2 4 3 9 -6)
1969/12/31/18:00:29.335,(20 -38 12 8 -21 -21 -13 -25)
1969/12/31/18:00:29.335,(-26 118 83 15 16 16 -22 -62)
1969/12/31/18:00:29.336,(-25 -64 -36 -17 -12 -25 -15 -46)
1969/12/31/18:00:29.336,(-12 -21 -24 -8 -10 -2 -9 -9)
1969/12/31/18:00:29.351,(-45 -60 -82 -39 -11 -26 -1 -4)
1969/12/31/18:00:29.351,(47 89 105 56 12 6 10 36)
1969/12/31/18:00:29.351,(-1 33 54 17 9 8 -2 -16)
1969/12/31/18:00:29.351,(38 23 1 3 5 -12 -6 -20)
1969/12/31/18:00:29.381,(8 -58 -48 -12 1 26 14 27)
1969/12/31/18:00:29.381,(-12 -108 -56 -24 -4 -9 9 4)
1969/12/31/18:00:29.382,(-64 -84 -96 -32 3 9 6 -16)
1969/12/31/18:00:29.382,(16 110 114 40 10 -7 -20 2)
1969/12/31/18:00:29.396,(10 15 11 -4 0 -6 -4 6)
1969/12/31/18:00:29.396,(21 12 -3 0 -8 -12 2 49)
1969/12/31/18:00:29.396,(5 -30 -12 0 17 17 1 3)
1969/12/31/18:00:29.396,(-39 -68 -69 -31 -37 -41 20 -10)
1969/12/31/18:00:29.410,(-12 20 37 10 -1 8 -15 -17)
1969/12/31/18:00:29.410,(9 26 -11 -21 -52 1 -10 -64)
1969/12/31/18:00:29.418,(1 -28 -16 -16 -20 -25 4 26)
1969/12/31/18:00:29.418,(9 95 77 41 37 36 2 -12)
1969/12/31/18:00:29.435,(-20 -13 -1 11 5 -1 -5 -3)
1969/12/31/18:00:29.435,(-38 -44 -37 -13 -7 -29 6 4)
1969/12/31/18:00:29.435,(22 -48 -52 -12 7 21 0 25)
1969/12/31/18:00:29.435,(36 -21 -24 -22 -11 -1 13 28)
1969/12/31/18:00:29.456,(-24 33 24 5 -10 -12 -8 -14)
1969/12/31/18:00:29.456,(-36 -67 -16 12 44 4 5 7)
1969/12/31/18:00:29.456,(9 55 23 0 -16 -15 -18 -10)
1969/12/31/18:00:29.456,(-9 71 75 22 4 40 10 -6)
1969/12/31/18:00:29.471,(-16 -6 -19 -14 -24 -24 1 14)
1969/12/31/18:00:29.471,(-10 20 4 -6 10 17 -18 -51)
1969/12/31/18:00:29.471,(-8 -61 -23 -5 -7 -19 9 10)
1969/12/31/18:00:29.471,(-4 -58 -54 -24 -14 -22 -11 -7)
1969/12/31/18:00:29.493,(7 27 36 33 34 36 13 -5)
1969/12/31/18:00:29.493,(-13 -10 -16 -3 11 2 -8 -15)
1969/12/31/18:00:29.494,(18 45 34 6 11 8 13 27)
1969/12/31/18:00:29.494,(-53 -36 -12 4 14 29 -11 -53)
1969/12/31/18:00:29.516,(9 -74 -84 -44 -23 -25 -6 -17)
1969/12/31/18:00:29.516,(15 97 90 45 21 9 4 20)
1969/12/31/18:00:29.516,(52 34 27 14 9 13 26 53)
1969/12/31/18:00:29.516,(-32 -9 -29 -6 12 -6 -25 -30)
1969/12/31/18:00:29.531,(26 27 37 13 -12 -25 -24 -29)
1969/12/31/18:00:29.531,(11 -58 -57 -38 -28 -9 4 33)
1969/12/31/18:00:29.531,(-8 -17 14 14 13 6 9 -12)
1969/12/31/18:00:29.531,(-10 -51 -51 -10 -6 -4 -13 -28)
1969/12/31/18:00:29.553,(19 24 5 -5 -5 13 1 17)
1969/12/31/18:00:29.553,(10 75 70 16 9 18 6 24)
1969/12/31/18:00:29.554,(12 -26 -22 -7 -10 12 6 -53)
1969/12/31/18:00:29.554,(5 -20 -21 -11 -21 -31 -3 34)
1969/12/31/18:00:29.576,(50 36 0 1 14 0 3 30)
1969/12/31/18:00:29.576,(2 42 43 21 18 -9 -4 -17)
1969/12/31/18:00:29.576,(-5 -12 7 -5 -14 -4 -8 5)
1969/12/31/18:00:29.576,(1 -50 -57 -16 -3 21 22 53)
1969/12/31/18:00:29.591,(-11 22 43 13 2 -4 -1 11)
1969/12/31/18:00:29.591,(4 -11 -27 -3 4 -2 11 1)
1969/12/31/18:00:29.591,(8 45 21 7 15 18 -23 -47)
1969/12/31/18:00:29.591,(-67 -103 -58 -30 -36 -34 -31 -78)
1969/12/31/18:00:29.613,(34 107 72 17 28 52 31 23)
1969/12/31/18:00:29.613,(1 -43 -25 0 13 1 2 35)
1969/12/31/18:00:29.614,(-36 18 11 11 1 -18 -1 11)
1969/12/31/18:00:29.614,(-22 -19 -8 -9 -19 -9 3 -26)
1969/12/31/18:00:29.636,(-36 -26 -18 -5 4 -10 -9 -12)
1969/12/31/18:00:29.636,(-18 -94 -65 -20 -2 1 -6 -23)
1969/12/31/18:00:29.636,(10 67 38 5 -13 36 24 33)
1969/12/31/18:00:29.636,(-5 -16 14 5 8 -1 -10 -1)
1969/12/31/18:00:29.659,(36 52 17 1 -12 -9 7 26)
1969/12/31/18:00:29.659,(16 -54 -3 -1 21 30 -1 26)
1969/12/31/18:00:29.660,(-44 -61 -94 -30 -13 -28 -16 -33)
1969/12/31/18:00:29.660,(64 117 115 52 22 15 13 41)
1969/12/31/18:00:29.673,(-36 -84 -58 -20 -11 -19 7 -3)
1969/12/31/18:00:29.673,(26 56 7 -3 1 19 0 -7)
1969/12/31/18:00:29.674,(-28 -59 -31 -11 -10 -19 -4 1)
1969/12/31/18:00:29.674,(25 49 36 10 -5 -42 7 0)
1969/12/31/18:00:29.696,(27 -9 -8 8 -8 10 -3 7)
1969/12/31/18:00:29.696,(-42 -17 -23 -25 -18 -1 -10 -38)
1969/12/31/18:00:29.696,(-2 38 51 26 11 -7 -13 -13)
1969/12/31/18:00:29.696,(21 -28 -33 -25 -15 4 -1 11)
1969/12/31/18:00:29.711,(14 36 42 3 -15 -23 4 18)
1969/12/31/18:00:29.711,(14 16 19 19 6 13 10 13)
1969/12/31/18:00:29.711,(42 -49 -37 -15 -6 -5 24 50)
1969/12/31/18:00:29.711,(-59 -28 -46 -11 14 16 -34 -78)
1969/12/31/18:00:29.741,(14 59 47 34 23 7 1 -7)
1969/12/31/18:00:29.741,(8 -18 -16 16 15 -2 3 -2)
1969/12/31/18:00:29.742,(29 -46 -30 -17 2 22 10 57)
1969/12/31/18:00:29.742,(34 -2 -6 -19 -30 -12 16 42)
1969/12/31/18:00:29.756,(-7 -44 -60 -31 -16 4 3 32)
1969/12/31/18:00:29.756,(-28 84 100 36 17 -12 1 -12)
1969/12/31/18:00:29.756,(-27 -78 -56 -6 -7 -26 -35 -45)
1969/12/31/18:00:29.756,(-8 37 20 15 17 11 -2 4)
1969/12/31/18:00:29.771,(-11 19 11 -2 13 -1 -11 -21)
1969/12/31/18:00:29.771,(-12 -59 -61 -22 -29 -13 4 12)
1969/12/31/18:00:29.771,(44 86 71 9 -5 -5 18 28)
1969/12/31/18:00:29.771,(-26 14 24 21 14 6 -11 -22)
1969/12/31/18:00:29.794,(-35 -39 -18 12 45 4 -8 -55)
1969/12/31/18:00:29.794,(-39 -60 -62 -50 -63 -17 -30 -34)
1969/12/31/18:00:29.794,(-5 33 34 13 9 29 9 -51)
1969/12/31/18:00:29.794,(27 -8 -37 -16 -5 -18 -3 4)
1969/12/31/18:00:29.816,(10 56 45 28 16 -3 11 41)
1969/12/31/18:00:29.816,(-15 -60 -28 -8 20 20 12 32)
1969/12/31/18:00:29.816,(0 28 -2 -9 -11 -12 -1 11)
1969/12/31/18:00:29.816,(-30 -39 -17 -11 -9 -3 13 45)
1969/12/31/18:00:29.831,(-12 31 41 15 6 2 -24 -43)
1969/12/31/18:00:29.831,(25 40 23 6 3 -13 -2 14)
1969/12/31/18:00:29.831,(5 -8 -48 -11 7 5 6 20)
1969/12/31/18:00:29.831,(51 66 57 13 3 19 17 56)
1969/12/31/18:00:29.853,(-26 -90 -63 -14 -8 -9 2 -7)
1969/12/31/18:00:29.853,(-6 35 57 10 -17 -13 1 -9)
1969/12/31/18:00:29.854,(6 -37 -36 -5 13 14 -16 -12)
1969/12/31/18:00:29.854,(-1 -72 -42 -10 -7 -10 20 76)
1969/12/31/18:00:29.875,(-13 74 47 18 -12 -21 -15 -25)
1969/12/31/18:00:29.876,(-15 23 38 4 14 30 15 13)
1969/12/31/18:00:29.876,(-35 -109 -82 -20 -15 -58 -20 -22)
1969/12/31/18:00:29.876,(20 106 76 21 29 60 19 1)
1969/12/31/18:00:29.890,(-7 -60 -27 -9 -19 -4 -17 -16)
1969/12/31/18:00:29.890,(4 -11 16 18 16 -10 -12 -19)
1969/12/31/18:00:29.898,(-2 71 36 13 -6 2 -11 -25)
1969/12/31/18:00:29.898,(-19 -125 -113 -35 4 3 3 -9)
1969/12/31/18:00:29.913,(65 111 57 9 0 -8 17 49)
1969/12/31/18:00:29.913,(-17 -10 -29 -8 -6 5 -14 -33)
1969/12/31/18:00:29.914,(-18 5 31 10 11 8 7 -14)
1969/12/31/18:00:29.914,(13 -71 -38 -6 1 -16 -3 8)
1969/12/31/18:00:29.937,(-1 -25 -24 -8 -9 13 18 -1)
1969/12/31/18:00:29.937,(1 -34 -52 -18 -7 -5 4 9)
1969/12/31/18:00:29.938,(3 9 37 13 11 -17 -19 -11)
1969/12/31/18:00:29.938,(7 91 49 3 -9 1 -15 -29)
1969/12/31/18:00:29.950,(-30 -17 8 15 -5 10 1 -5)
1969/12/31/18:00:29.950,(30 60 35 -5 -20 -12 12 32)
1969/12/31/18:00:29.958,(2 -35 -12 1 -19 16 14 21)
1969/12/31/18:00:29.958,(-17 -80 -40 -9 3 -16 -37 -75)
1969/12/31/18:00:29.973,(27 15 -45 -23 -11 -15 -1 10)
1969/12/31/18:00:29.973,(21 66 107 40 28 17 11 44)
1969/12/31/18:00:29.974,(-18 57 16 10 3 -18 9 -13)
1969/12/31/18:00:29.974,(45 69 20 7 -20 -3 -19 -39)
1969/12/31/18:00:29.996,(-43 -128 -28 -12 -4 19 2 -1)
1969/12/31/18:00:29.996,(-4 6 -76 -33 -9 -16 -15 -10)
1969/12/31/18:00:29.996,(18 -12 25 3 4 10 21 48)
1969/12/31/18:00:29.996,(-12 45 14 30 47 19 4 12)
1969/12/31/18:00:30.010,(-7 -4 12 -2 -23 -27 -1 -4)
1969/12/31/18:00:30.010,(-8 -63 -38 -18 -14 23 4 0)
1969/12/31/18:00:30.018,(-20 21 -10 -5 2 -14 0 -3)
1969/12/31/18:00:30.018,(-13 66 69 30 15 -13 8 -9)
1969/12/31/18:00:30.033,(28 -39 -48 -15 -12 14 -3 33)
1969/12/31/18:00:30.033,(26 -1 6 20 9 -15 10 7)
1969/12/31/18:00:30.034,(-18 -116 -128 -59 -24 22 -3 -21)
1969/12/31/18:00:30.034,(-45 -25 -20 -14 -25 -5 18 10)
1969/12/31/18:00:30.056,(41 115 76 24 4 -19 -17 -13)
1969/12/31/18:00:30.056,(-38 -73 -55 -15 -10 -31 -14 4)
1969/12/31/18:00:30.056,(12 -44 -16 -5 12 35 -2 -5)
1969/12/31/18:00:30.056,(29 11 43 26 9 3 12 22)
1969/12/31/18:00:30.070,(45 -4 1 -2 4 -30 -16 11)
1969/12/31/18:00:30.070,(22 17 -7 0 13 27 -3 -17)
1969/12/31/18:00:30.078,(24 64 36 -1 -29 1 12 39)
1969/12/31/18:00:30.078,(-64 -128 -104 -40 -24 -17 0 -9)
1969/12/31/18:00:30.093,(-12 110 56 1 20 25 -10 -21)
1969/12/31/18:00:30.093,(-19 20 50 21 6 -14 5 20)
1969/12/31/18:00:30.094,(1 -16 -20 -1 -3 -2 -6 -15)
1969/12/31/18:00:30.094,(2 41 37 21 12 27 19 37)
1969/12/31/18:00:30.116,(-26 -82 -70 -33 -24 -25 -30 -69)
1969/12/31/18:00:30.116,(38 -68 -91 -35 -30 -36 -22 -27)
1969/12/31/18:00:30.116,(3 127 127 40 21 6 3 8)
1969/12/31/18:00:30.116,(6 -49 -56 -21 5 -3 -8 9)
1969/12/31/18:00:30.139,(-20 -46 -59 -21 -20 15 31 39)
1969/12/31/18:00:30.139,(33 117 102 39 5 14 7 -10)
1969/12/31/18:00:30.140,(41 -67 -36 1 6 -31 -24 -8)
1969/12/31/18:00:30.140,(-3 -38 -50 -15 -4 -14 -12 -32)
1969/12/31/18:00:30.153,(59 43 50 25 33 43 18 31)
1969/12/31/18:00:30.153,(-31 -80 -81 -30 -15 -14 -10 -30)
1969/12/31/18:00:30.154,(-7 99 85 16 -1 8 0 -6)
1969/12/31/18:00:30.154,(-9 40 40 3 -10 -22 10 24)
1969/12/31/18:00:30.176,(-5 -3 11 20 42 50 4 -16)
1969/12/31/18:00:30.176,(34 24 20 -3 -17 5 11 42)
1969/12/31/18:00:30.176,(54 -26 -10 7 13 -14 -5 25)
1969/12/31/18:00:30.176,(-2 -77 -47 -22 -25 -2 2 0)
1969/12/31/18:00:30.190,(-21 7 -15 -4 15 6 7 -17)
1969/12/31/18:00:30.190,(-11 27 15 3 14 11 -7 2)
1969/12/31/18:00:30.198,(-38 -101 -90 -23 -5 4 13 1)
1969/12/31/18:00:30.198,(29 111 98 22 8 -1 -15 -61)
1969/12/31/18:00:30.213,(61 23 -10 -5 -18 -23 1 19)
1969/12/31/18:00:30.213,(-22 30 15 14 20 2 -10 -28)
1969/12/31/18:00:30.214,(-7 -42 -24 -6 1 -3 -8 1)
1969/12/31/18:00:30.214,(-46 -36 -46 -25 9 7 1 -6)
1969/12/31/18:00:30.236,(-55 -63 -17 -10 -12 26 19 13)
1969/12/31/18:00:30.236,(25 -16 -10 -14 -8 14 8 7)
1969/12/31/18:00:30.236,(-52 11 1 11 8 -15 9 30)
1969/12/31/18:00:30.236,(8 48 59 17 5 4 -12 -12)
1969/12/31/18:00:30.259,(-26 -61 -50 -23 -14 -28 -11 -5)
1969/12/31/18:00:30.259,(-5 49 50 22 6 3 5 9)
1969/12/31/18:00:30.260,(-82 -72 -51 -11 17 16 -12 -29)
1969/12/31/18:00:30.260,(31 -30 -31 -21 -29 7 11 64)
1969/12/31/18:00:30.273,(-22 -4 14 10 -12 -30 2 -29)
1969/12/31/18:00:30.273,(27 8 0 -6 1 4 -10 -37)
1969/12/31/18:00:30.274,(8 -25 -61 -22 -18 -31 -17 -20)
1969/12/31/18:00:30.274,(52 126 116 79 41 40 10 2)
1969/12/31/18:00:30.296,(-68 -69 -50 -3 2 -10 -18 -20)
1969/12/31/18:00:30.296,(-16 -103 -82 -29 -23 -3 2 9)
1969/12/31/18:00:30.296,(86 28 21 4 -4 -2 17 77)
1969/12/31/18:00:30.296,(-9 -3 -14 -4 0 -24 -9 -14)
1969/12/31/18:00:30.319,(3 -16 -12 -13 -4 10 10 22)
1969/12/31/18:00:30.319,(-37 -23 -6 -10 10 24 15 22)
1969/12/31/18:00:30.320,(-25 37 25 -4 -19 -1 11 -1)
1969/12/31/18:00:30.320,(-42 -21 2 10 6 4 3 15)
1969/12/31/18:00:30.333,(4 -38 -14 -3 -17 -38 -24 -29)
1969/12/31/18:00:30.333,(-8 23 -9 -4 1 -7 17 39)
1969/12/31/18:00:30.334,(36 79 83 30 10 34 7 6)
1969/12/31/18:00:30.334,(17 -8 -19 -6 1 -17 -3 13)
1969/12/31/18:00:30.356,(-34 -61 -57 -23 -3 8 2 -21)
1969/12/31/18:00:30.356,(44 2 20 4 1 -13 -5 14)
1969/12/31/18:00:30.356,(-7 66 38 11 -1 -7 -4 -14)
1969/12/31/18:00:30.356,(7 34 36 17 2 -15 -1 0)
1969/12/31/18:00:30.379,(29 -65 -39 -9 18 26 -2 37)
1969/12/31/18:00:30.379,(28 19 -2 6 -13 -43 9 39)
1969/12/31/18:00:30.379,(5 -25 -15 -23 -17 -1 -22 -34)
1969/12/31/18:00:30.379,(-45 -66 -30 -16 -12 17 -2 -36)
1969/12/31/18:00:30.394,(5 18 -12 -15 -14 -5 5 -12)
1969/12/31/18:00:30.394,(-13 25 40 22 14 5 -2 -4)
1969/12/31/18:00:30.395,(-63 -84 -41 -14 10 0 -3 -33)
1969/12/31/18:00:30.395,(36 20 -24 -23 -24 -27 -2 56)
1969/12/31/18:00:30.416,(2 10 25 17 7 4 3 5)
1969/12/31/18:00:30.416,(29 50 39 22 -7 -16 8 38)
1969/12/31/18:00:30.416,(-20 -11 -2 -3 14 38 -4 -42)
1969/12/31/18:00:30.416,(-19 -54 -62 -13 -8 -8 -16 -30)
1969/12/31/18:00:30.439,(24 75 53 14 3 -6 -3 2)
1969/12/31/18:00:30.439,(-13 -57 -46 -27 -16 -27 -15 -26)
1969/12/31/18:00:30.440,(-3 23 23 10 -1 -9 -5 -23)
1969/12/31/18:00:30.440,(-14 -29 -12 -7 7 15 -2 -6)
1969/12/31/18:00:30.453,(13 44 41 23 11 21 14 31)
1969/12/31/18:00:30.453,(-21 -13 -16 4 7 3 2 -16)
1969/12/31/18:00:30.454,(-50 -33 -27 -12 -17 -7 -43 -57)
1969/12/31/18:00:30.454,(-18 -5 -4 -8 2 -15 -11 -31)
1969/12/31/18:00:30.476,(7 46 39 17 5 -12 4 13)
1969/12/31/18:00:30.476,(-21 -79 -83 -35 -2 20 -1 -23)
1969/12/31/18:00:30.476,(25 78 79 33 9 -19 -2 20)
1969/12/31/18:00:30.476,(27 31 20 11 23 30 11 9)
1969/12/31/18:00:30.499,(-30 -37 -19 0 -9 -5 -11 -11)
1969/12/31/18:00:30.499,(-15 -8 -7 -9 -8 -10 7 -13)
1969/12/31/18:00:30.499,(-2 -9 -11 3 11 38 21 47)
1969/12/31/18:00:30.499,(-32 -35 -27 -21 -19 1 -17 -26)
1969/12/31/18:00:30.513,(-22 22 15 -1 -11 -21 26 12)
1969/12/31/18:00:30.513,(11 -15 -5 3 11 2 -9 -22)
1969/12/31/18:00:30.514,(22 0 0 -2 -11 -34 8 19)
1969/12/31/18:00:30.514,(18 2 0 3 -2 -5 35 52)
1969/12/31/18:00:30.536,(19 18 4 -1 7 35 -8 -3)
1969/12/31/18:00:30.536,(-4 21 21 12 15 27 33 0)
1969/12/31/18:00:30.537,(35 1 -16 -3 1 4 51 22)
1969/12/31/18:00:30.537,(-1 5 -6 -6 -7 -16 -31 -13)
1969/12/31/18:00:30.559,(-33 -21 -11 -17 -9 -20 24 -21)
1969/12/31/18:00:30.559,(-49 18 20 12 13 64 -8 -26)
1969/12/31/18:00:30.559,(43 -20 -19 -6 -5 -28 -36 10)
1969/12/31/18:00:30.559,(62 12 2 -15 -22 -12 -18 0)
1969/12/31/18:00:30.573,(79 29 35 41 42 53 60 85)
1969/12/31/18:00:30.573,(-19 -21 -45 -33 -29 -11 -41 -59)
1969/12/31/18:00:30.574,(-68 -36 -14 8 8 -52 -49 -49)
1969/12/31/18:00:30.574,(-18 -3 -6 -3 -1 27 -19 -13)
1969/12/31/18:00:30.596,(-63 -33 11 -1 -2 -14 -45 -43)
1969/12/31/18:00:30.596,(89 76 24 9 1 -6 9 6)
1969/12/31/18:00:30.596,(20 -4 -20 -17 -12 9 14 -4)
1969/12/31/18:00:30.596,(-20 -23 -9 -6 1 -18 -8 -10)
1969/12/31/18:00:30.619,(-8 33 3 -6 -11 -4 -24 -17)
1969/12/31/18:00:30.619,(-68 -54 8 15 16 15 30 -25)
1969/12/31/18:00:30.620,(11 -3 2 1 -1 4 -15 -29)
1969/12/31/18:00:30.620,(88 83 38 23 14 11 52 99)
1969/12/31/18:00:30.633,(-78 -48 -36 -20 -14 -8 -7 -54)
1969/12/31/18:00:30.633,(45 33 17 9 11 23 11 64)
1969/12/31/18:00:30.634,(-51 -31 -5 -7 -10 -11 22 9)
1969/12/31/18:00:30.634,(-40 -16 -3 5 3 -6 4 -8)
1969/12/31/18:00:30.656,(-24 -11 -2 2 -2 -20 -25 -28)
1969/12/31/18:00:30.656,(35 8 -2 -1 2 -5 -15 -13)
1969/12/31/18:00:30.657,(74 49 10 1 1 22 29 29)
1969/12/31/18:00:30.657,(-68 -11 0 6 4 5 -18 -60)
1969/12/31/18:00:30.679,(20 -8 1 -1 -1 -8 -10 17)
1969/12/31/18:00:30.679,(-86 -18 -10 -9 -8 -16 -20 -78)
1969/12/31/18:00:30.679,(-33 -7 7 7 7 17 9 24)
1969/12/31/18:00:30.679,(28 14 -10 -9 -8 -20 -23 -33)
1969/12/31/18:00:30.693,(12 1 -7 -9 -7 -3 0 9)
1969/12/31/18:00:30.693,(-15 -11 5 4 1 -11 -8 8)
1969/12/31/18:00:30.701,(25 -19 -10 -10 -6 -2 0 17)
1969/12/31/18:00:30.701,(3 6 -4 -11 -4 6 10 -5)
1969/12/31/18:00:30.716,(59 25 -6 13 5 1 5 18)
1969/12/31/18:00:30.716,(9 28 30 11 0 -9 0 3)
1969/12/31/18:00:30.717,(-23 8 19 15 8 7 -9 -7)
1969/12/31/18:00:30.717,(-2 -27 5 -4 0 3 14 14)
1969/12/31/18:00:30.739,(8 -12 -14 -4 -8 -8 -8 -5)
1969/12/31/18:00:30.739,(5 -9 -23 -14 -4 -13 -14 -4)
1969/12/31/18:00:30.740,(3 -6 -10 -3 -3 5 -1 -12)
1969/12/31/18:00:30.740,(-5 -15 -9 -5 -4 -5 5 27)
1969/12/31/18:00:30.753,(22 0 -8 -16 -8 -5 0 -11)
1969/12/31/18:00:30.753,(-10 -15 -11 -1 1 -3 -3 63)
1969/12/31/18:00:30.754,(-8 16 19 4 1 3 1 -10)
1969/12/31/18:00:30.754,(-2 -19 -29 -12 -7 -6 0 -10)
1969/12/31/18:00:30.776,(28 50 37 13 9 2 0 21)
1969/12/31/18:00:30.776,(12 -10 -12 -7 -6 -5 -6 -17)
1969/12/31/18:00:30.777,(-27 -23 -14 -12 -6 -2 -4 -16)
1969/12/31/18:00:30.777,(-3 -8 -5 7 2 -2 -3 3)
1969/12/31/18:00:30.799,(-21 -26 -16 -9 -4 -2 2 -2)
1969/12/31/18:00:30.799,(26 35 30 8 0 -5 -9 -4)
1969/12/31/18:00:30.799,(38 25 16 11 5 8 19 48)
1969/12/31/18:00:30.800,(-18 -40 -35 -15 -7 -8 -17 -25)
1969/12/31/18:00:30.813,(8 36 36 12 4 1 5 7)
1969/12/31/18:00:30.813,(3 -21 -17 -9 -4 1 12 19)
1969/12/31/18:00:30.814,(-3 -23 -40 -21 -7 0 -4 4)
1969/12/31/18:00:30.814,(-12 -21 -23 -7 2 3 0 -4)
1969/12/31/18:00:30.836,(14 79 62 31 4 -6 4 10)
1969/12/31/18:00:30.836,(-14 -1 -18 11 -2 -5 -15 -16)
1969/12/31/18:00:30.837,(-16 -20 -32 -10 -3 0 0 -11)
1969/12/31/18:00:30.837,(8 -6 -4 3 0 -1 -6 -9)
1969/12/31/18:00:30.859,(-19 -38 -43 -25 -10 -7 -13 -17)
1969/12/31/18:00:30.859,(-5 -1 1 -5 -1 1 4 2)
1969/12/31/18:00:30.860,(7 14 28 16 5 0 0 4)
1969/12/31/18:00:30.860,(-2 1 0 -3 -1 0 6 3)
1969/12/31/18:00:30.873,(-3 -11 -7 -4 -5 -2 -5 5)
1969/12/31/18:00:30.873,(-5 -10 1 -6 -3 -3 3 4)
1969/12/31/18:00:30.881,(-17 -80 -57 -26 -10 -3 -2 -13)
1969/12/31/18:00:30.881,(5 74 19 6 3 0 -1 -16)
1969/12/31/18:00:30.896,(2 6 13 10 5 3 -4 -1)
1969/12/31/18:00:30.896,(-1 -20 -9 2 -3 -6 -11 1)
1969/12/31/18:00:30.897,(-1 18 9 2 1 7 5 -4)
1969/12/31/18:00:30.897,(-1 -27 -8 2 0 -2 6 9)
1969/12/31/18:00:30.919,(7 -13 -14 -8 -3 0 0 3)
1969/12/31/18:00:30.919,(-34 -24 -20 -18 -14 -8 -12 -30)
1969/12/31/18:00:30.920,(-2 10 5 5 9 1 -5 -1)
1969/12/31/18:00:30.920,(9 15 29 13 2 1 7 10)
1969/12/31/18:00:30.932,(6 -13 -24 -15 -3 -1 1 8)
1969/12/31/18:00:30.932,(21 25 23 7 -6 -3 6 17)
1969/12/31/18:00:30.942,(-13 8 13 9 4 6 11 -3)
1969/12/31/18:00:30.942,(-10 -10 -1 -2 -6 -12 -1 -6)
1969/12/31/18:00:30.956,(2 -5 -5 -4 3 4 -16 -12)
1969/12/31/18:00:30.956,(-5 -6 -4 0 -2 -4 -1 -2)
1969/12/31/18:00:30.962,(13 19 4 -2 -4 -5 4 5)
1969/12/31/18:00:30.962,(11 11 6 -1 6 13 14 13)
1969/12/31/18:00:30.979,(-17 -27 -18 -13 -7 -10 -12 -9)
1969/12/31/18:00:30.979,(7 9 8 6 5 5 5 10)
1969/12/31/18:00:30.980,(3 9 -2 -11 -25 -9 -13 -13)
1969/12/31/18:00:30.980,(-10 -16 -1 6 16 -4 -6 -2)
1969/12/31/18:00:30.992,(-4 -1 -1 5 1 7 11 0)
1969/12/31/18:00:30.993,(9 5 1 -3 0 -1 2 8)
1969/12/31/18:00:31.002,(-1 2 7 10 5 7 11 5)
1969/12/31/18:00:31.002,(-8 -8 -8 -18 -18 -27 -49 -36)
1969/12/31/18:00:31.016,(2 4 10 21 20 9 12 12)
1969/12/31/18:00:31.016,(-6 -3 -4 4 1 -3 -5 -5)
1969/12/31/18:00:31.022,(-2 -3 -4 -2 -13 -7 -5 0)
1969/12/31/18:00:31.022,(2 6 7 -6 3 10 9 4)
1969/12/31/18:00:31.039,(-7 -11 -8 5 2 -5 -4 -4)
1969/12/31/18:00:31.039,(2 0 0 -11 -6 6 1 -3)
1969/12/31/18:00:31.040,(6 13 11 -5 -4 -19 -13 -2)
1969/12/31/18:00:31.040,(-1 -4 -2 13 2 26 15 9)
1969/12/31/18:00:31.052,(-8 -6 -2 1 1 -14 -14 -11)
1969/12/31/18:00:31.052,(3 2 1 5 7 2 -3 6)
1969/12/31/18:00:31.062,(-12 -9 -10 -20 -19 -8 -2 -13)
1969/12/31/18:00:31.062,(2 1 7 5 2 -10 1 8)
1969/12/31/18:00:31.076,(-6 -11 -12 -17 -6 17 1 -5)
1969/12/31/18:00:31.076,(3 3 5 5 0 -1 -8 4)
1969/12/31/18:00:31.078,(2 4 0 -1 10 -4 -5 -4)
1969/12/31/18:00:31.078,(-4 -4 -1 2 -5 -5 3 -2)
1969/12/31/18:00:31.099,(-4 -3 -3 -5 -6 -1 4 3)
1969/12/31/18:00:31.099,(-3 -5 0 6 7 -2 -7 -11)
1969/12/31/18:00:31.100,(2 2 0 -1 5 9 1 3)
1969/12/31/18:00:31.100,(-3 -2 -1 -2 -4 -2 -11 -13)
1969/12/31/18:00:31.112,(-1 -3 -5 -1 -1 -1 10 1)
1969/12/31/18:00:31.112,(-1 0 1 5 3 4 4 4)
1969/12/31/18:00:31.121,(-1 1 0 8 8 -1 -3 -1)
1969/12/31/18:00:31.121,(3 1 0 0 -2 1 0 2)
1969/12/31/18:00:31.136,(-1 -3 -3 -6 -3 -2 -4 -5)
1969/12/31/18:00:31.136,(-5 -4 -7 -9 -6 -5 2 -3)
1969/12/31/18:00:31.142,(1 5 1 7 4 5 -1 2)
1969/12/31/18:00:31.142,(7 4 2 0 -3 2 0 3)
1969/12/31/18:00:31.159,(-2 0 2 -5 -7 -3 -3 -5)
1969/12/31/18:00:31.159,(-19 -39 -31 -14 -7 -6 0 -8)
1969/12/31/18:00:31.160,(10 54 55 22 13 8 1 0)
1969/12/31/18:00:31.160,(-3 -18 -26 -6 -5 -1 2 2)
1969/12/31/18:00:31.172,(11 38 34 10 3 -1 6 7)
1969/12/31/18:00:31.173,(0 0 -9 -8 -7 -4 -12 -8)
1969/12/31/18:00:31.182,(-12 -49 -26 -6 2 0 -5 -5)
1969/12/31/18:00:31.182,(11 53 47 15 5 1 5 3)
