time,.data
1969-12-31 18:00:06.756000000,(-1 -6 -8 -15 -25 5 1 -2)
1969-12-31 18:00:06.757075599,(4 6 10 13 27 -21 -15 -8)
1969-12-31 18:00:06.758151199,(2 -3 -4 -18 -33 -9 11 4)
1969-12-31 18:00:06.758151199,(-10 -4 0 15 30 26 11 7)
1969-12-31 18:00:06.771058390,(5 1 -13 -32 -41 -23 -2 -5)
1969-12-31 18:00:06.771058390,(-2 2 5 35 42 11 -2 -7)
1969-12-31 18:00:06.780738783,(-7 -4 -5 -7 -12 6 13 -2)
1969-12-31 18:00:06.780738783,(0 -4 -2 2 -3 -5 -1 3)
1969-12-31 18:00:06.796872772,(-1 2 0 -8 -6 -25 -3 1)
1969-12-31 18:00:06.796872772,(-5 -6 -7 -5 -7 4 6 -1)
1969-12-31 18:00:06.799023970,(-3 -4 -4 -8 -3 -7 -19 -11)
1969-12-31 18:00:06.799023970,(-3 1 -2 -3 -8 7 2 -4)
1969-12-31 18:00:06.829140750,(-1 -3 2 1 8 5 17 3)
1969-12-31 18:00:06.829140750,(-2 2 1 0 0 -1 -7 -1)
1969-12-31 18:00:06.830216349,(1 -3 -3 -4 -5 -7 -6 1)
1969-12-31 18:00:06.830216349,(-1 -1 -3 2 -5 1 7 0)
1969-12-31 18:00:06.835594345,(-1 -2 -7 2 3 -14 -1 0)
1969-12-31 18:00:06.835594345,(0 0 -6 -3 -9 -17 -11 1)
1969-12-31 18:00:06.845274739,(-1 1 -8 -5 5 -1 4 8)
1969-12-31 18:00:06.845274739,(-2 -1 1 5 4 7 9 3)
1969-12-31 18:00:06.861408728,(-4 -3 -4 1 0 -13 -2 -1)
1969-12-31 18:00:06.861408728,(0 -5 -5 -6 -9 -7 -3 0)
1969-12-31 18:00:06.863559926,(-3 0 3 2 -3 4 -2 -1)
1969-12-31 18:00:06.863559926,(-1 0 3 5 1 7 -1 -3)
1969-12-31 18:00:06.886147511,(-5 -4 1 0 3 -3 -1 -1)
1969-12-31 18:00:06.886147511,(-2 -5 -4 -1 -4 1 -2 -3)
1969-12-31 18:00:06.887223110,(3 8 4 1 -2 -3 -6 -3)
1969-12-31 18:00:06.887223110,(-2 -2 2 2 3 5 1 -2)
1969-12-31 18:00:06.900130301,(8 -6 -11 -5 -5 -5 1 3)
1969-12-31 18:00:06.900130301,(-3 9 8 -4 1 -2 -5 -3)
1969-12-31 18:00:06.909810695,(-10 -9 4 2 0 0 -2 -5)
1969-12-31 18:00:06.909810695,(7 -13 -21 -9 -7 1 2 4)
1969-12-31 18:00:06.924869084,(-1 19 21 3 4 1 -2 -8)
1969-12-31 18:00:06.924869084,(2 3 -4 0 0 3 -2 -3)
1969-12-31 18:00:06.941003073,(5 5 -5 -1 -1 -3 -1 4)
1969-12-31 18:00:06.941003073,(16 -28 -18 -5 -3 1 5 13)
1969-12-31 18:00:06.950683467,(-9 -6 -22 -15 -6 -4 -3 -8)
1969-12-31 18:00:06.950683467,(-23 7 20 6 4 -2 0 4)
1969-12-31 18:00:06.951759066,(-4 0 5 -2 -4 -8 -10 -18)
1969-12-31 18:00:06.951759066,(-2 0 -2 2 4 0 -5 -3)
1969-12-31 18:00:06.974346650,(5 -9 -14 -2 2 -6 -2 -1)
1969-12-31 18:00:06.974346650,(5 -6 -10 -6 -4 -3 12 31)
1969-12-31 18:00:06.976497849,(11 5 -1 0 2 -4 -7 -7)
1969-12-31 18:00:06.976497849,(-1 20 -1 -5 0 -2 4 -2)
1969-12-31 18:00:06.989405040,(-16 -2 6 0 0 -2 1 -1)
1969-12-31 18:00:06.989405040,(-2 10 9 6 4 3 -1 -22)
1969-12-31 18:00:06.996934235,(35 -13 -18 -11 -11 -9 -5 16)
1969-12-31 18:00:06.996934235,(-14 9 12 6 3 5 -4 -2)
1969-12-31 18:00:07.015219421,(-42 -12 5 0 -1 -3 -5 -19)
1969-12-31 18:00:07.015219421,(14 -9 -2 0 -3 3 4 18)
1969-12-31 18:00:07.016295022,(14 11 0 2 0 4 3 -14)
1969-12-31 18:00:07.016295022,(-8 10 9 5 2 2 0 -9)
1969-12-31 18:00:07.037807007,(16 -1 2 2 -1 1 1 -4)
1969-12-31 18:00:07.037807007,(21 -1 -9 0 -1 7 14 49)
1969-12-31 18:00:07.047487400,(-31 -13 0 -3 -4 -7 3 3)
1969-12-31 18:00:07.047487400,(-15 9 14 7 4 21 9 -31)
1969-12-31 18:00:07.062545790,(4 -6 -9 -7 -10 -24 -23 -24)
1969-12-31 18:00:07.062545790,(29 2 -7 -4 -3 -13 -40 -37)
1969-12-31 18:00:07.064696988,(-27 -6 7 1 12 51 -14 -6)
1969-12-31 18:00:07.064696988,(44 7 0 -6 -12 -58 19 40)
1969-12-31 18:00:07.079755378,(15 1 3 3 15 67 17 32)
1969-12-31 18:00:07.079755378,(-40 -13 -1 -1 -8 -62 -26 -36)
1969-12-31 18:00:07.080830977,(-23 2 -1 -1 13 73 1 -32)
1969-12-31 18:00:07.080830977,(-14 -9 -2 1 -9 -80 7 9)
1969-12-31 18:00:07.103418562,(4 2 14 9 8 18 4 -32)
1969-12-31 18:00:07.103418562,(0 16 -3 -2 -9 -10 -43 -30)
1969-12-31 18:00:07.105569760,(0 -15 -7 -5 -4 -13 7 11)
1969-12-31 18:00:07.105569760,(1 -2 -6 -2 4 25 6 10)
1969-12-31 18:00:07.118476951,(-69 -54 -11 -4 -2 -18 10 34)
1969-12-31 18:00:07.118476951,(76 31 5 1 7 9 1 22)
1969-12-31 18:00:07.126006146,(-60 -26 -12 -4 -3 8 3 -17)
1969-12-31 18:00:07.126006146,(-13 14 -5 -8 -11 -12 -15 -48)
1969-12-31 18:00:07.144291334,(56 42 14 11 -7 -57 -1 31)
1969-12-31 18:00:07.144291334,(-32 -20 -10 -8 0 49 7 -36)
1969-12-31 18:00:07.145366933,(-20 10 -5 -6 -9 -37 20 4)
1969-12-31 18:00:07.145366933,(-6 -17 1 -2 -2 0 -47 -62)
1969-12-31 18:00:07.167954518,(-15 0 0 -1 2 28 13 41)
1969-12-31 18:00:07.167954518,(66 2 -1 -2 -11 -57 39 92)
1969-12-31 18:00:07.170105716,(45 39 12 10 2 -9 13 -12)
1969-12-31 18:00:07.170105716,(-100 -53 -15 -10 -9 2 -30 -57)
1969-12-31 18:00:07.183012907,(22 14 -3 0 -4 -33 -36 -42)
1969-12-31 18:00:07.183012907,(-55 -24 -6 -3 1 6 1 -11)
1969-12-31 18:00:07.190542102,(29 5 10 3 0 -54 0 54)
1969-12-31 18:00:07.190542102,(3 7 -2 -2 4 24 -8 15)
1969-12-31 18:00:07.208827289,(50 29 2 -2 4 13 14 45)
1969-12-31 18:00:07.208827289,(-2 -9 4 6 6 4 38 68)
1969-12-31 18:00:07.209902889,(15 12 -4 -4 -8 -29 -18 -31)
1969-12-31 18:00:07.209902889,(8 3 1 -6 -2 15 16 -17)
1969-12-31 18:00:07.232490473,(-58 -29 -19 -13 -13 -19 -10 -64)
1969-12-31 18:00:07.232490473,(-10 5 10 7 6 38 35 11)
1969-12-31 18:00:07.234641672,(-20 -9 10 7 1 -3 -59 -38)
1969-12-31 18:00:07.234641672,(60 36 19 12 12 31 36 55)
1969-12-31 18:00:07.247548863,(6 0 -1 -2 0 -9 -16 -16)
1969-12-31 18:00:07.247548863,(13 2 -6 -4 2 19 25 34)
1969-12-31 18:00:07.255078058,(-7 -7 1 2 1 16 8 -12)
1969-12-31 18:00:07.255078058,(30 28 6 7 13 81 50 38)
1969-12-31 18:00:07.273363245,(-12 10 13 11 18 4 -27 -4)
1969-12-31 18:00:07.273363245,(4 -5 -1 -1 -11 -61 -28 -1)
1969-12-31 18:00:07.274438843,(34 0 -4 -1 -2 9 9 50)
1969-12-31 18:00:07.274438843,(-18 0 -4 3 5 34 3 19)
1969-12-31 18:00:07.297026429,(23 -24 -12 -10 -17 -15 6 10)
1969-12-31 18:00:07.297026429,(6 16 1 1 7 31 -15 25)
1969-12-31 18:00:07.299177628,(-42 -9 -5 -6 -14 -19 21 -9)
1969-12-31 18:00:07.299177628,(5 -16 -1 -2 -7 -37 -27 6)
1969-12-31 18:00:07.312084819,(19 17 6 5 5 26 18 25)
1969-12-31 18:00:07.312084819,(-12 -8 1 2 4 -3 -5 -36)
1969-12-31 18:00:07.321765212,(0 7 1 2 8 31 -1 24)
1969-12-31 18:00:07.321765212,(1 -8 0 3 0 -7 10 17)
1969-12-31 18:00:07.336823602,(14 12 4 -2 -2 1 33 49)
1969-12-31 18:00:07.336823602,(-44 -24 -5 -7 -5 0 -19 -39)
1969-12-31 18:00:07.345428396,(26 6 3 2 4 7 19 20)
1969-12-31 18:00:07.345428396,(21 -2 -2 0 3 -36 -4 -11)
1969-12-31 18:00:07.361562385,(-68 -30 -15 -10 -19 -55 -57 -89)
1969-12-31 18:00:07.361562385,(-25 2 -2 -3 -4 5 -29 -123)
1969-12-31 18:00:07.363713583,(-3 3 3 1 0 -2 -14 -63)
1969-12-31 18:00:07.363713583,(40 16 1 -2 -7 -13 10 51)
1969-12-31 18:00:07.376620774,(-34 -28 -9 -3 -4 9 -9 -44)
1969-12-31 18:00:07.376620774,(-54 -24 -13 -10 -18 -33 35 8)
1969-12-31 18:00:07.386301168,(-42 -22 -14 -14 -13 -43 -48 -73)
1969-12-31 18:00:07.386301168,(75 39 13 8 4 -18 10 72)
1969-12-31 18:00:07.402435157,(-61 -34 -15 -12 -4 10 3 -71)
1969-12-31 18:00:07.402435157,(40 18 11 6 11 18 29 47)
1969-12-31 18:00:07.403510756,(17 -2 1 2 5 14 -13 40)
1969-12-31 18:00:07.403510756,(-57 -20 -8 -10 -3 3 -35 -50)
1969-12-31 18:00:07.434703135,(48 39 12 8 8 6 35 55)
1969-12-31 18:00:07.434703135,(-21 -31 -13 -10 -12 -6 -12 -4)
1969-12-31 18:00:07.435778734,(35 23 5 0 -3 -3 28 47)
1969-12-31 18:00:07.435778734,(-35 -28 -13 -4 5 60 4 -55)
1969-12-31 18:00:07.441156730,(73 30 11 11 4 0 32 94)
1969-12-31 18:00:07.441156730,(-20 -4 -6 -4 -1 -2 -39 -75)
1969-12-31 18:00:07.450837124,(-11 -6 -1 0 -4 -25 -29 -60)
1969-12-31 18:00:07.450837124,(-9 -1 1 1 0 1 -4 -33)
1969-12-31 18:00:07.466971112,(16 15 6 2 1 1 6 19)
1969-12-31 18:00:07.466971112,(10 13 4 5 7 -4 15 -6)
1969-12-31 18:00:07.468046712,(13 -18 -10 -2 6 23 30 107)
1969-12-31 18:00:07.468046712,(-10 -7 5 6 0 -7 -6 -22)
1969-12-31 18:00:07.490634296,(18 13 7 5 7 18 -2 33)
1969-12-31 18:00:07.490634296,(-57 -25 -13 -13 -18 -60 -58 -81)
1969-12-31 18:00:07.492785495,(24 24 13 10 10 12 21 19)
1969-12-31 18:00:07.492785495,(-6 7 -11 -14 -14 -24 -25 -46)
1969-12-31 18:00:07.505692686,(-61 -55 -8 -5 -6 -31 -11 -18)
1969-12-31 18:00:07.505692686,(21 16 3 1 20 52 18 13)
1969-12-31 18:00:07.515373079,(1 -1 -3 1 23 24 5 -17)
1969-12-31 18:00:07.515373079,(7 3 4 11 -13 -43 -1 66)
1969-12-31 18:00:07.530431469,(-55 8 -4 -9 -33 -24 -44 -93)
1969-12-31 18:00:07.530431469,(39 -8 1 -3 3 51 12 97)
1969-12-31 18:00:07.532582667,(-21 -13 -5 -11 -16 -107 -62 -58)
1969-12-31 18:00:07.532582667,(34 -2 2 12 44 19 30 45)
1969-12-31 18:00:07.555170252,(55 35 10 21 28 -21 16 43)
1969-12-31 18:00:07.555170252,(4 8 -1 -4 -22 52 21 -11)
1969-12-31 18:00:07.557321451,(-7 -12 -7 -17 -13 -2 6 -27)
1969-12-31 18:00:07.557321451,(-2 -24 -6 -23 -25 7 22 45)
1969-12-31 18:00:07.570228642,(3 -5 5 4 42 28 14 15)
1969-12-31 18:00:07.570228642,(9 13 4 -3 -48 -61 5 28)
1969-12-31 18:00:07.579909035,(55 21 10 9 8 53 21 59)
1969-12-31 18:00:07.579909035,(-31 5 -1 5 4 -47 -20 -43)
1969-12-31 18:00:07.594967425,(7 -18 -5 -3 2 22 17 0)
1969-12-31 18:00:07.594967425,(-2 -3 0 14 73 65 -26 -78)
1969-12-31 18:00:07.597118623,(-23 -5 -1 15 16 -44 1 -64)
1969-12-31 18:00:07.597118623,(-22 -4 -7 -29 -106 -64 -47 -54)
1969-12-31 18:00:07.619706208,(-2 0 -2 -6 14 22 7 -60)
1969-12-31 18:00:07.619706208,(0 15 1 0 6 -47 -53 -27)
1969-12-31 18:00:07.621857406,(-20 -33 -14 -4 -10 -6 25 30)
1969-12-31 18:00:07.621857406,(29 25 15 20 43 17 22 6)
1969-12-31 18:00:07.634764597,(-5 2 -5 -11 -57 -82 -57 1)
1969-12-31 18:00:07.634764597,(3 -18 -5 -23 -46 27 20 58)
1969-12-31 18:00:07.644444991,(-20 3 2 -2 27 29 1 -13)
1969-12-31 18:00:07.644444991,(-18 -21 -12 -3 20 0 -8 -7)
1969-12-31 18:00:07.660578980,(14 21 6 13 -9 10 6 36)
1969-12-31 18:00:07.660578980,(-2 -12 1 11 -20 -26 12 36)
1969-12-31 18:00:07.661654579,(-2 -7 -21 -35 -68 -24 -22 20)
1969-12-31 18:00:07.661654579,(-2 -10 4 -10 -8 18 -12 7)
1969-12-31 18:00:07.684242163,(-33 -19 -7 -6 22 14 9 -53)
1969-12-31 18:00:07.684242163,(-1 12 -5 6 26 -2 3 -33)
1969-12-31 18:00:07.686393362,(81 -5 -63 -10 -5 19 28 64)
1969-12-31 18:00:07.686393362,(-69 5 51 21 40 34 -17 -52)
1969-12-31 18:00:07.699300553,(14 7 3 10 26 40 23 14)
1969-12-31 18:00:07.699300553,(-23 -11 -28 -15 -69 -38 -8 -58)
1969-12-31 18:00:07.708980947,(5 11 18 1 2 -15 -36 -35)
1969-12-31 18:00:07.708980947,(12 -29 -55 -19 -5 11 43 72)
1969-12-31 18:00:07.725114935,(-18 25 47 9 6 -27 -36 -64)
1969-12-31 18:00:07.725114935,(2 25 38 26 30 19 19 59)
1969-12-31 18:00:07.726190535,(-14 -22 -13 -11 -27 7 12 14)
1969-12-31 18:00:07.726190535,(16 -39 -26 -1 3 -18 -25 -59)
1969-12-31 18:00:07.748778119,(17 -2 -24 -19 -23 10 -15 9)
1969-12-31 18:00:07.748778119,(29 -25 -34 5 55 17 25 65)
1969-12-31 18:00:07.750929318,(10 49 23 16 -11 -13 -21 -43)
1969-12-31 18:00:07.750929318,(-42 -17 5 -9 20 19 35 -20)
1969-12-31 18:00:07.763836509,(25 -54 -52 1 15 37 14 45)
1969-12-31 18:00:07.763836509,(-24 36 50 -21 -85 -37 -6 40)
1969-12-31 18:00:07.773516902,(1 -63 -31 -3 13 7 23 7)
1969-12-31 18:00:07.773516902,(-12 30 -1 -9 -32 -36 -45 -32)
1969-12-31 18:00:07.788575292,(5 71 71 37 70 41 77 100)
1969-12-31 18:00:07.788575292,(-22 86 47 25 18 -16 -51 -107)
1969-12-31 18:00:07.790726490,(-27 -2 59 18 -26 27 3 -27)
1969-12-31 18:00:07.790726490,(-16 -31 -33 -5 -12 -12 -11 7)
1969-12-31 18:00:07.813314075,(45 -27 -41 -10 -11 -1 -14 0)
1969-12-31 18:00:07.813314075,(50 -48 -59 -8 72 76 98 81)
1969-12-31 18:00:07.815465274,(-75 33 55 21 0 -35 -31 -80)
1969-12-31 18:00:07.815465274,(25 -80 -53 -12 1 16 -33 -23)
1969-12-31 18:00:07.828372465,(-10 2 -5 -24 -27 13 -45 -4)
1969-12-31 18:00:07.828372465,(15 97 54 0 -80 -100 -31 16)
1969-12-31 18:00:07.838052858,(14 -68 -85 -38 18 6 -2 -10)
1969-12-31 18:00:07.838052858,(-33 40 75 29 0 -9 -18 -48)
1969-12-31 18:00:07.853111248,(-22 -118 -91 -30 23 29 24 -20)
1969-12-31 18:00:07.853111248,(1 40 8 -10 -34 -9 4 19)
1969-12-31 18:00:07.855262446,(-13 62 39 23 11 -13 14 -11)
1969-12-31 18:00:07.855262446,(11 -43 -45 -7 -19 -21 -8 16)
1969-12-31 18:00:07.877850031,(-55 -27 14 11 -15 -6 6 17)
1969-12-31 18:00:07.877850031,(39 -121 -90 -26 35 12 -33 -24)
1969-12-31 18:00:07.880001229,(-17 -90 -76 -18 58 37 35 66)
1969-12-31 18:00:07.880001229,(-7 110 76 24 -33 -4 45 38)
1969-12-31 18:00:07.892908420,(2 95 62 -6 -59 -47 -51 10)
1969-12-31 18:00:07.892908420,(-26 -52 -17 15 31 7 -2 -63)
1969-12-31 18:00:07.902588814,(-54 -27 -5 15 49 7 -49 -49)
1969-12-31 18:00:07.902588814,(35 -103 -90 -19 -14 -10 20 49)
1969-12-31 18:00:07.917647203,(17 -15 -51 -53 -55 -38 27 41)
1969-12-31 18:00:07.917647203,(-17 29 61 -2 -44 -24 -34 -34)
1969-12-31 18:00:07.919798402,(55 86 -3 -20 -27 -10 -30 8)
1969-12-31 18:00:07.919798402,(-47 35 59 30 57 18 -8 -17)
1969-12-31 18:00:07.942385986,(-24 -87 -55 3 14 23 13 -49)
1969-12-31 18:00:07.942385986,(17 47 -11 -8 -1 3 21 -16)
1969-12-31 18:00:07.944537185,(-3 71 49 24 2 23 23 -8)
1969-12-31 18:00:07.944537185,(15 -17 -24 -4 -12 -2 -17 -23)
1969-12-31 18:00:07.966049170,(-2 74 63 14 -2 -6 -3 -27)
1969-12-31 18:00:07.966049170,(0 -62 -6 17 32 24 -1 23)
1969-12-31 18:00:07.968200369,(-7 -47 -2 17 52 34 33 58)
1969-12-31 18:00:07.968200369,(-6 -44 -33 -12 -11 16 20 62)
1969-12-31 18:00:07.981107560,(63 29 -49 -37 -56 -48 -50 -41)
1969-12-31 18:00:07.981107560,(-76 30 28 -15 -22 -9 3 -39)
1969-12-31 18:00:07.990787953,(59 43 45 -1 -38 -31 -25 35)
1969-12-31 18:00:07.990787953,(30 -84 -48 5 90 87 37 47)
1969-12-31 18:00:08.006921942,(-26 -100 -73 -19 -22 -28 25 1)
1969-12-31 18:00:08.006921942,(18 100 82 49 13 2 -2 30)
1969-12-31 18:00:08.009073141,(-2 -42 -33 -9 44 12 -25 -18)
1969-12-31 18:00:08.009073141,(-33 96 30 12 -5 27 10 -25)
1969-12-31 18:00:08.031660725,(29 81 49 -13 -59 -61 -3 9)
1969-12-31 18:00:08.031660725,(35 -61 -40 -11 38 -2 -4 22)
1969-12-31 18:00:08.032736325,(-66 -118 -93 -43 -34 -9 37 -3)
1969-12-31 18:00:08.032736325,(74 108 54 49 81 47 0 20)
1969-12-31 18:00:08.046719115,(-6 78 70 52 64 68 42 20)
1969-12-31 18:00:08.046719115,(7 -23 -37 -11 -40 -43 -23 -21)
1969-12-31 18:00:08.054248310,(-8 -40 -9 -4 -13 10 49 57)
1969-12-31 18:00:08.054248310,(16 -39 -25 -29 -46 -34 -19 -12)
1969-12-31 18:00:08.072533497,(15 8 26 30 35 30 13 19)
1969-12-31 18:00:08.072533497,(-30 -62 -36 1 44 46 25 -5)
1969-12-31 18:00:08.073609096,(48 -6 -38 25 52 37 15 26)
1969-12-31 18:00:08.073609096,(27 68 14 -27 -98 -68 -7 6)
1969-12-31 18:00:08.096196681,(-33 44 65 -18 -40 -31 -36 -65)
1969-12-31 18:00:08.096196681,(25 -70 -48 -8 61 26 -29 3)
1969-12-31 18:00:08.097272280,(29 -20 -80 -6 41 5 48 52)
1969-12-31 18:00:08.097272280,(35 101 96 38 -87 -75 -49 -11)
1969-12-31 18:00:08.111255071,(-63 -56 4 -4 -25 -12 -29 -24)
1969-12-31 18:00:08.111255071,(-75 -54 -24 -21 -79 -12 2 -42)
1969-12-31 18:00:08.118784266,(-37 -45 -20 3 32 -17 -38 -66)
1969-12-31 18:00:08.118784266,(1 -69 -51 -7 103 47 20 17)
1969-12-31 18:00:08.135993854,(23 48 -2 -6 -17 -16 -9 15)
1969-12-31 18:00:08.135993854,(2 2 33 30 8 18 4 -12)
1969-12-31 18:00:08.138145052,(-1 91 40 -4 -33 -15 -25 -35)
1969-12-31 18:00:08.138145052,(7 -44 -33 -18 9 13 -7 -20)
1969-12-31 18:00:08.159657037,(-74 61 93 25 -9 -36 -25 -73)
1969-12-31 18:00:08.159657037,(1 -17 -38 9 93 68 21 5)
1969-12-31 18:00:08.161808236,(63 4 -21 -29 -128 -89 -19 2)
1969-12-31 18:00:08.161808236,(-15 69 64 5 12 -51 -57 -43)
1969-12-31 18:00:08.175791026,(18 -128 -115 -18 52 60 34 9)
1969-12-31 18:00:08.175791026,(-17 14 -13 -14 0 -38 -25 -27)
1969-12-31 18:00:08.183320221,(-48 108 127 56 54 43 -26 -38)
1969-12-31 18:00:08.183320221,(-26 -59 -49 -46 -52 -1 20 -7)
1969-12-31 18:00:08.199454210,(-1 -4 -21 16 47 18 -1 -5)
1969-12-31 18:00:08.199454210,(47 23 -21 -7 -27 -2 16 47)
1969-12-31 18:00:08.200529809,(36 -127 -104 -55 -100 -85 -19 29)
1969-12-31 18:00:08.200529809,(-2 127 95 40 38 31 18 23)
1969-12-31 18:00:08.224192993,(-65 -19 5 8 -22 -23 -25 -43)
1969-12-31 18:00:08.224192993,(10 -29 20 0 46 41 34 23)
1969-12-31 18:00:08.225268593,(19 -5 -3 -9 -2 15 15 32)
1969-12-31 18:00:08.225268593,(-45 -63 -84 -24 17 3 -17 -46)
1969-12-31 18:00:08.239251383,(45 -87 -77 -19 -8 -18 11 18)
1969-12-31 18:00:08.239251383,(31 127 112 39 -9 12 -10 16)
1969-12-31 18:00:08.256460971,(-9 -33 -9 -5 35 15 12 20)
1969-12-31 18:00:08.256460971,(-21 -44 -71 -40 -64 -24 10 -6)
1969-12-31 18:00:08.263990166,(34 -30 -19 -1 43 32 26 24)
1969-12-31 18:00:08.263990166,(-60 4 -11 -52 -128 -118 -69 -43)
1969-12-31 18:00:08.265065765,(9 -30 -15 -5 60 55 4 1)
1969-12-31 18:00:08.265065765,(47 -31 -27 11 17 28 47 77)
1969-12-31 18:00:08.288728949,(-7 97 84 17 -54 -43 -41 -34)
1969-12-31 18:00:08.288728949,(-4 -15 -17 -9 -25 -9 -3 -17)
1969-12-31 18:00:08.289804548,(21 10 56 37 59 22 8 2)
1969-12-31 18:00:08.289804548,(11 -56 -50 -3 54 37 10 8)
1969-12-31 18:00:08.303787339,(3 -70 -40 0 16 9 10 53)
1969-12-31 18:00:08.303787339,(9 -6 3 -7 -19 -13 21 8)
1969-12-31 18:00:08.312392133,(-68 71 74 17 -12 4 -12 -73)
1969-12-31 18:00:08.312392133,(31 22 0 29 96 52 20 50)
1969-12-31 18:00:08.328526122,(21 51 -2 -16 -82 -18 11 -23)
1969-12-31 18:00:08.328526122,(15 -119 -86 -43 -2 -39 -41 22)
1969-12-31 18:00:08.329601721,(1 105 91 58 -1 1 43 27)
1969-12-31 18:00:08.329601721,(-5 -35 -29 -36 -48 -22 -39 -1)
1969-12-31 18:00:08.360794100,(-17 17 68 48 98 57 47 9)
1969-12-31 18:00:08.360794100,(-2 0 -27 -10 -12 -11 -3 -3)
1969-12-31 18:00:08.370474493,(-3 -43 -42 -31 -70 -23 -20 -6)
1969-12-31 18:00:08.370474493,(-26 43 17 -5 -9 -15 -14 -39)
1969-12-31 18:00:08.371550092,(5 -97 -84 -32 -15 -24 -15 19)
1969-12-31 18:00:08.371550092,(95 90 41 49 75 71 48 58)
1969-12-31 18:00:08.376928089,(13 80 90 17 -18 -19 -14 33)
1969-12-31 18:00:08.376928089,(23 -31 21 2 -34 -26 -15 7)
1969-12-31 18:00:08.393062077,(-7 -11 -14 4 70 51 5 30)
1969-12-31 18:00:08.393062077,(8 -57 -72 -35 -56 -35 33 12)
1969-12-31 18:00:08.394137677,(8 38 42 8 -23 0 -37 -14)
1969-12-31 18:00:08.394137677,(-28 -53 -37 -28 -31 -21 17 -9)
1969-12-31 18:00:08.417800860,(16 -10 -28 9 70 39 -3 18)
1969-12-31 18:00:08.417800860,(-28 -19 -6 0 -28 -6 20 2)
1969-12-31 18:00:08.418876460,(32 11 -37 -18 13 20 48 38)
1969-12-31 18:00:08.418876460,(-18 -47 -9 -2 -1 -25 -37 -39)
1969-12-31 18:00:08.432859250,(26 21 8 13 3 -6 12 -2)
1969-12-31 18:00:08.432859250,(-35 58 31 17 95 67 8 -33)
1969-12-31 18:00:08.441464044,(-11 7 23 7 -41 -13 -1 -14)
1969-12-31 18:00:08.441464044,(3 21 7 -3 32 17 20 0)
1969-12-31 18:00:08.466202827,(-6 -119 -124 -58 -88 -52 -15 7)
1969-12-31 18:00:08.466202827,(-78 71 98 52 -2 -28 -35 -77)
1969-12-31 18:00:08.467278427,(17 13 -34 -3 27 7 -3 19)
1969-12-31 18:00:08.467278427,(46 -4 -4 19 41 39 13 36)
1969-12-31 18:00:08.482336816,(-43 -38 -24 12 38 32 -5 -57)
1969-12-31 18:00:08.482336816,(-16 -57 -2 -16 -49 -43 -11 6)
1969-12-31 18:00:08.483412415,(2 -17 -35 -40 -28 -28 -20 8)
1969-12-31 18:00:08.483412415,(-34 -43 -30 -12 -21 -7 0 -49)
1969-12-31 18:00:08.497395206,(19 65 65 21 28 20 -5 29)
1969-12-31 18:00:08.497395206,(23 43 23 22 28 23 25 18)
1969-12-31 18:00:08.506000000,(-61 -85 -63 -38 -17 -11 -21 -39)
1969-12-31 18:00:08.506000000,(-14 38 35 31 7 6 14 22)
1969-12-31 18:00:08.522133989,(15 -63 -28 -20 -55 -34 -28 -10)
1969-12-31 18:00:08.522133989,(27 16 -43 -16 25 34 25 37)
1969-12-31 18:00:08.523209588,(-71 15 69 0 -72 -67 -36 -82)
1969-12-31 18:00:08.523209588,(7 53 27 -8 -27 -10 8 10)
1969-12-31 18:00:08.546872772,(38 -7 -3 12 20 19 -6 42)
1969-12-31 18:00:08.546872772,(28 55 34 28 35 15 -26 -24)
1969-12-31 18:00:08.547948371,(22 -77 -54 -19 17 24 24 -4)
1969-12-31 18:00:08.547948371,(-14 -7 47 27 -11 -21 6 16)
1969-12-31 18:00:08.561931162,(19 89 21 -10 -11 -4 4 28)
1969-12-31 18:00:08.561931162,(-26 -89 -59 -26 -9 -2 -14 -23)
1969-12-31 18:00:08.570535956,(1 -68 -73 -17 24 11 0 -9)
1969-12-31 18:00:08.570535956,(-23 -9 11 8 20 7 -9 -40)
1969-12-31 18:00:08.586669945,(42 95 41 22 -6 -6 36 39)
1969-12-31 18:00:08.586669945,(9 -7 -16 -11 -34 6 -22 3)
1969-12-31 18:00:08.587745544,(-74 -79 -37 -22 -9 -47 -45 -74)
1969-12-31 18:00:08.587745544,(-11 96 79 14 -22 3 -10 -12)
1969-12-31 18:00:08.611408728,(9 -53 -33 -3 51 18 24 5)
1969-12-31 18:00:08.611408728,(-29 7 25 25 4 -11 -9 2)
1969-12-31 18:00:08.612484327,(76 10 -9 10 10 30 17 56)
1969-12-31 18:00:08.612484327,(9 -30 -52 -24 0 -23 8 -49)
1969-12-31 18:00:08.626467117,(-80 63 101 -1 -75 -40 -77 -79)
1969-12-31 18:00:08.626467117,(-8 -68 -49 -15 26 7 -6 0)
1969-12-31 18:00:08.636147511,(16 55 20 23 22 22 12 8)
1969-12-31 18:00:08.636147511,(-13 -27 -41 3 12 9 7 4)
1969-12-31 18:00:08.651205900,(15 25 28 11 11 8 20 21)
1969-12-31 18:00:08.651205900,(-19 -57 -29 -52 -44 -22 5 -5)
1969-12-31 18:00:08.652281500,(4 -18 -26 24 50 41 0 15)
1969-12-31 18:00:08.652281500,(12 45 32 10 -7 12 29 32)
1969-12-31 18:00:08.675944683,(-5 7 -11 9 -13 -32 -21 16)
1969-12-31 18:00:08.675944683,(-38 6 9 -13 -13 -17 -36 -79)
1969-12-31 18:00:08.677020283,(7 -35 23 19 26 49 57 14)
1969-12-31 18:00:08.677020283,(9 56 9 15 44 8 -27 19)
1969-12-31 18:00:08.700683467,(1 -59 -50 -55 -86 -42 -18 -8)
1969-12-31 18:00:08.700683467,(37 -13 -47 -30 -40 -38 -1 30)
1969-12-31 18:00:08.701759066,(-13 -61 -39 2 3 5 24 29)
1969-12-31 18:00:08.701759066,(-19 53 59 35 33 20 20 -23)
1969-12-31 18:00:08.715741856,(6 50 61 17 26 25 15 -8)
1969-12-31 18:00:08.715741856,(53 32 15 6 17 0 -3 56)
1969-12-31 18:00:08.716817455,(-11 30 32 8 -3 6 -5 11)
1969-12-31 18:00:08.716817455,(36 -50 -41 -19 -25 -10 7 63)
1969-12-31 18:00:08.740480639,(-13 -32 -64 -64 3 -12 -8 -28)
1969-12-31 18:00:08.740480639,(25 -29 -2 6 -1 22 19 26)
1969-12-31 18:00:08.741556238,(14 15 -18 46 43 -2 10 22)
1969-12-31 18:00:08.741556238,(20 -6 4 21 -4 -11 -19 -2)
1969-12-31 18:00:08.755539029,(17 40 28 22 11 28 3 3)
1969-12-31 18:00:08.755539029,(-25 -11 4 7 39 6 -30 -50)
1969-12-31 18:00:08.764143823,(8 65 38 -31 -75 -40 -12 -5)
1969-12-31 18:00:08.764143823,(-32 -28 26 1 1 -21 -17 1)
1969-12-31 18:00:08.780277812,(-65 -71 -54 -19 -35 -19 4 -73)
1969-12-31 18:00:08.780277812,(23 34 18 8 14 22 32 35)
1969-12-31 18:00:08.781353411,(22 42 43 16 10 -7 -38 -46)
1969-12-31 18:00:08.781353411,(44 15 -20 -60 -39 -5 2 1)
1969-12-31 18:00:08.805016595,(1 -16 -19 -48 -44 -22 -6 15)
1969-12-31 18:00:08.805016595,(51 -9 8 108 86 24 42 76)
1969-12-31 18:00:08.805016595,(-37 -21 -26 -26 -20 -6 -9 -19)
1969-12-31 18:00:08.806092194,(2 -18 1 66 60 14 0 -4)
1969-12-31 18:00:08.820074985,(19 -7 -3 16 22 21 27 54)
1969-12-31 18:00:08.820074985,(6 2 -34 -49 -32 -4 -5 -3)
1969-12-31 18:00:08.828679779,(36 44 45 -2 -10 -3 10 39)
1969-12-31 18:00:08.828679779,(-10 -21 -13 -37 -49 -20 -14 -28)
1969-12-31 18:00:08.854494161,(-3 15 -14 7 -1 -15 -3 16)
1969-12-31 18:00:08.854494161,(-24 -40 -24 -15 -5 -4 47 29)
1969-12-31 18:00:08.855569760,(-8 33 15 -15 -10 -13 -28 -20)
1969-12-31 18:00:08.855569760,(-18 -60 -23 -25 -22 -6 -2 8)
1969-12-31 18:00:08.869552551,(-27 50 49 36 36 9 0 -27)
1969-12-31 18:00:08.869552551,(-12 -18 -7 -11 -17 3 9 4)
1969-12-31 18:00:08.870628150,(17 11 -18 -2 27 22 28 25)
1969-12-31 18:00:08.870628150,(-75 -55 -49 -26 -36 -21 -10 -53)
1969-12-31 18:00:08.884610940,(95 20 23 29 21 6 -5 12)
1969-12-31 18:00:08.884610940,(-9 26 7 -13 -22 -29 -40 -40)
1969-12-31 18:00:08.893215734,(-17 -15 -13 -46 -53 -13 3 -4)
1969-12-31 18:00:08.893215734,(13 -4 -1 0 47 28 21 35)
1969-12-31 18:00:08.909349723,(-32 -11 4 47 47 22 6 -6)
1969-12-31 18:00:08.909349723,(-7 8 18 12 -24 -4 -6 -29)
1969-12-31 18:00:08.910425323,(-29 -27 -21 15 -2 -10 -6 6)
1969-12-31 18:00:08.910425323,(11 4 11 11 16 10 -1 5)
1969-12-31 18:00:08.934088506,(16 9 -12 -40 19 9 29 18)
1969-12-31 18:00:08.934088506,(3 -2 3 5 6 6 -15 -9)
1969-12-31 18:00:08.935164106,(-11 -10 3 12 -4 -1 6 20)
1969-12-31 18:00:08.935164106,(1 24 -8 -23 -41 -11 -14 -36)
1969-12-31 18:00:08.949146896,(18 -5 12 16 12 -1 -15 7)
1969-12-31 18:00:08.949146896,(-40 -2 3 -15 -7 -4 0 -11)
1969-12-31 18:00:08.966356484,(-10 -7 -2 -3 11 -5 -30 -34)
1969-12-31 18:00:08.966356484,(34 17 2 2 -8 -6 -1 14)
1969-12-31 18:00:08.973885679,(-39 -36 -15 -4 -9 -6 -19 -61)
1969-12-31 18:00:08.974961278,(8 21 16 1 -1 6 -4 15)
1969-12-31 18:00:08.974961278,(3 -4 -4 -7 8 -15 -9 -4)
1969-12-31 18:00:08.974961278,(4 -4 -16 -22 -39 -16 -8 2)
1969-12-31 18:00:08.998624462,(-22 -5 8 0 -2 1 3 5)
1969-12-31 18:00:08.998624462,(46 24 14 1 7 14 1 -3)
1969-12-31 18:00:08.999700061,(-19 2 -5 -8 -25 -7 8 0)
1969-12-31 18:00:08.999700061,(-32 -18 -2 29 8 -11 -5 -19)
1969-12-31 18:00:09.031968039,(9 -5 -10 11 35 12 8 16)
1969-12-31 18:00:09.031968039,(4 -2 -6 -10 10 -7 -11 -14)
1969-12-31 18:00:09.031968039,(-35 -19 -7 11 -4 -4 -15 -33)
1969-12-31 18:00:09.033043639,(-37 -36 -4 -13 -14 0 6 21)
1969-12-31 18:00:09.038421635,(-76 -39 -17 -23 -35 -27 -43 -78)
1969-12-31 18:00:09.038421635,(8 6 5 -12 2 1 -3 13)
1969-12-31 18:00:09.039497234,(45 24 10 8 14 9 8 47)
1969-12-31 18:00:09.039497234,(41 33 15 12 11 8 11 0)
1969-12-31 18:00:09.063160418,(29 5 7 9 2 5 6 10)
1969-12-31 18:00:09.063160418,(-62 -31 -23 -15 -13 -14 -12 -24)
1969-12-31 18:00:09.064236017,(-8 -17 -4 -3 3 0 -8 -26)
1969-12-31 18:00:09.064236017,(-6 5 1 2 1 6 28 37)
1969-12-31 18:00:09.087899201,(37 25 6 3 -5 11 24 43)
1969-12-31 18:00:09.087899201,(31 15 7 8 5 0 2 12)
1969-12-31 18:00:09.088974800,(-63 -9 -15 -2 8 -2 -8 -35)
1969-12-31 18:00:09.088974800,(-35 -46 -17 -15 -6 -13 -27 -38)
1969-12-31 18:00:09.102957591,(45 31 5 -7 -14 -5 2 17)
1969-12-31 18:00:09.102957591,(-36 -27 -1 6 -4 -2 1 -9)
1969-12-31 18:00:09.104033190,(66 39 22 9 13 9 15 50)
1969-12-31 18:00:09.104033190,(-9 -6 -18 -17 -13 -20 -33 -61)
1969-12-31 18:00:09.127696374,(-43 -27 -27 -10 -9 1 -6 14)
1969-12-31 18:00:09.127696374,(80 25 23 19 14 8 11 33)
1969-12-31 18:00:09.143830363,(-64 -49 -30 -21 -9 -11 -18 -48)
1969-12-31 18:00:09.143830363,(17 11 3 1 0 1 5 24)
1969-12-31 18:00:09.152435157,(68 59 23 15 7 13 28 88)
1969-12-31 18:00:09.152435157,(-56 -14 -5 -5 -7 -12 -20 -32)
1969-12-31 18:00:09.153510756,(45 9 10 5 9 7 18 41)
1969-12-31 18:00:09.153510756,(-37 -7 1 0 -2 -7 -13 -31)
1969-12-31 18:00:09.167493546,(-18 -11 -9 1 -4 -3 1 -4)
1969-12-31 18:00:09.167493546,(99 40 11 10 11 14 22 52)
1969-12-31 18:00:09.168569146,(-56 -33 -9 -10 -8 -7 -18 -51)
1969-12-31 18:00:09.168569146,(23 1 -3 -4 0 2 1 18)
1969-12-31 18:00:09.192232329,(17 12 1 -10 -13 -8 -9 -16)
1969-12-31 18:00:09.192232329,(-54 -20 0 3 -6 -6 -7 -18)
1969-12-31 18:00:09.193307929,(53 26 14 15 7 12 14 30)
1969-12-31 18:00:09.193307929,(-11 -7 -9 -5 -4 -2 -5 -6)
1969-12-31 18:00:09.215895513,(-9 -15 -6 -4 -2 -4 -7 -19)
1969-12-31 18:00:09.215895513,(-34 -13 -13 -11 -9 -4 -5 -18)
1969-12-31 18:00:09.216971112,(22 18 1 -1 3 2 8 14)
1969-12-31 18:00:09.216971112,(1 7 12 7 4 3 4 7)
1969-12-31 18:00:09.232029502,(-24 -17 -1 0 0 -3 -3 -14)
1969-12-31 18:00:09.232029502,(9 9 -4 0 -2 -2 -2 -5)
1969-12-31 18:00:09.233105101,(2 -12 -6 -2 1 -1 1 4)
1969-12-31 18:00:09.233105101,(11 13 9 3 0 0 1 10)
1969-12-31 18:00:09.256768285,(10 4 0 1 0 -2 -1 -6)
1969-12-31 18:00:09.256768285,(-26 -18 1 -2 1 -1 -1 -7)
1969-12-31 18:00:09.257843884,(1 1 -19 -8 -2 -1 -2 -4)
1969-12-31 18:00:09.257843884,(5 -18 -4 -4 -3 -4 -3 2)
1969-12-31 18:00:09.281507068,(0 49 31 8 0 -3 -4 -12)
1969-12-31 18:00:09.281507068,(-13 -20 -10 6 1 4 4 0)
1969-12-31 18:00:09.282582667,(6 20 13 1 1 2 -5 -6)
1969-12-31 18:00:09.282582667,(18 0 -3 3 3 2 -3 6)
1969-12-31 18:00:09.296565458,(-12 -25 -19 -11 -5 -5 -6 -8)
1969-12-31 18:00:09.296565458,(10 -7 -23 -11 -4 -3 6 -4)
1969-12-31 18:00:09.297641057,(-8 -14 -17 -3 1 1 6 3)
1969-12-31 18:00:09.297641057,(-6 35 54 23 11 7 -17 -10)
1969-12-31 18:00:09.321304241,(-24 -35 -23 -9 -9 -8 3 -7)
1969-12-31 18:00:09.321304241,(-7 20 24 10 -1 -1 -4 0)
1969-12-31 18:00:09.322379840,(5 -22 -24 -7 -4 -6 7 9)
1969-12-31 18:00:09.322379840,(9 17 -1 -6 -1 -2 -1 -5)
1969-12-31 18:00:09.346043024,(-15 -21 -9 -2 -1 -3 -2 0)
1969-12-31 18:00:09.346043024,(-6 -34 -26 -13 -9 -7 -8 -5)
1969-12-31 18:00:09.347118623,(10 35 33 15 9 6 6 6)
1969-12-31 18:00:09.347118623,(-1 15 -9 -9 -7 0 12 7)
1969-12-31 18:00:09.361101414,(2 4 2 -2 -3 -3 -43 -22)
1969-12-31 18:00:09.362177013,(-13 -35 -21 -7 0 1 12 -3)
1969-12-31 18:00:09.362177013,(-4 27 25 8 0 -3 -12 -5)
1969-12-31 18:00:09.363252612,(-2 -25 -15 -2 -1 -3 1 5)
1969-12-31 18:00:09.385840197,(6 10 2 6 5 8 20 15)
1969-12-31 18:00:09.385840197,(-1 5 1 1 3 6 18 6)
1969-12-31 18:00:09.386915796,(-6 -11 -6 -4 -5 -10 -41 -12)
1969-12-31 18:00:09.386915796,(0 0 -6 -5 -2 0 3 -14)
1969-12-31 18:00:09.410578980,(-4 -41 -25 -11 -5 -2 7 -4)
1969-12-31 18:00:09.410578980,(-6 36 9 -4 -6 -5 -13 -17)
1969-12-31 18:00:09.411654579,(0 -24 -5 -1 3 7 24 17)
1969-12-31 18:00:09.411654579,(12 47 11 7 2 1 -18 -4)
1969-12-31 18:00:09.425637369,(-4 -8 12 8 2 0 15 6)
1969-12-31 18:00:09.425637369,(-4 -8 -4 -3 -1 -2 -1 -1)
1969-12-31 18:00:09.434242163,(1 -17 -12 -6 -4 0 8 3)
1969-12-31 18:00:09.434242163,(-4 -17 -9 -6 -10 -7 -16 -10)
1969-12-31 18:00:09.450376152,(6 22 17 5 4 1 2 -2)
1969-12-31 18:00:09.450376152,(-15 -2 0 -7 -2 -7 -13 -2)
1969-12-31 18:00:09.451451752,(1 -11 -10 -4 -3 -4 4 -1)
1969-12-31 18:00:09.451451752,(3 5 7 3 3 -2 -5 9)
1969-12-31 18:00:09.475114935,(2 11 2 2 4 5 4 2)
1969-12-31 18:00:09.475114935,(2 0 4 1 0 1 -9 -7)
1969-12-31 18:00:09.476190535,(-7 -20 -13 -8 -5 -2 1 -1)
1969-12-31 18:00:09.476190535,(6 -3 -10 1 0 0 6 -2)
1969-12-31 18:00:09.490173325,(-6 -34 -15 -8 -7 -3 -14 -6)
1969-12-31 18:00:09.490173325,(-1 31 16 8 1 -4 -10 -3)
1969-12-31 18:00:09.491248924,(-2 -7 -5 5 4 5 1 -2)
1969-12-31 18:00:09.491248924,(1 -11 -4 0 0 1 10 13)
1969-12-31 18:00:09.514912108,(1 27 25 7 3 -3 2 4)
1969-12-31 18:00:09.514912108,(-3 -17 -11 -6 1 1 -3 0)
1969-12-31 18:00:09.515987707,(3 15 9 -1 -9 -8 -9 -11)
1969-12-31 18:00:09.515987707,(-11 -13 -10 -9 -5 3 4 -5)
1969-12-31 18:00:09.548255685,(-1 -15 -21 -25 -17 -4 -3 -1)
1969-12-31 18:00:09.548255685,(14 7 14 37 39 10 4 8)
1969-12-31 18:00:09.548255685,(-6 13 10 4 4 -3 4 1)
1969-12-31 18:00:09.548255685,(5 -7 -1 2 -2 0 1 7)
1969-12-31 18:00:09.554709281,(3 10 7 -1 -20 -7 3 4)
1969-12-31 18:00:09.554709281,(1 8 4 -28 -46 -1 -10 -19)
1969-12-31 18:00:09.563314075,(-2 -1 6 27 44 7 2 -4)
1969-12-31 18:00:09.563314075,(-3 -9 -13 -20 -38 -13 3 -1)
1969-12-31 18:00:09.579448064,(-5 0 -5 -30 -10 0 -1 0)
1969-12-31 18:00:09.579448064,(1 -6 -2 2 1 -22 -10 -3)
1969-12-31 18:00:09.580523663,(0 -3 3 27 25 17 10 17)
1969-12-31 18:00:09.580523663,(-10 -8 -8 -23 -25 -8 -10 -18)
1969-12-31 18:00:09.604186847,(0 13 13 3 -33 -11 -2 -1)
1969-12-31 18:00:09.604186847,(-3 -9 -6 10 61 32 4 5)
1969-12-31 18:00:09.605262446,(5 0 -8 -49 -46 -9 -6 -6)
1969-12-31 18:00:09.605262446,(6 9 14 33 49 13 6 9)
1969-12-31 18:00:09.619245237,(-3 -9 -9 -15 -23 -5 -5 -8)
1969-12-31 18:00:09.619245237,(-1 -1 6 8 -4 -3 4 -2)
1969-12-31 18:00:09.627850031,(-3 1 6 -7 -9 -3 -13 -13)
1969-12-31 18:00:09.627850031,(3 5 14 1 -27 11 11 1)
1969-12-31 18:00:09.643984020,(-11 -12 -4 20 28 1 -17 -21)
1969-12-31 18:00:09.643984020,(6 6 -14 -12 -11 -9 -1 2)
1969-12-31 18:00:09.645059619,(-11 -9 -22 -34 -6 -5 21 24)
1969-12-31 18:00:09.645059619,(16 6 -10 -1 -9 -26 1 18)
1969-12-31 18:00:09.668722803,(-17 2 12 24 16 2 2 1)
1969-12-31 18:00:09.668722803,(-6 3 8 43 43 1 8 12)
1969-12-31 18:00:09.669798402,(-9 -4 -16 -22 -40 -18 -10 -10)
1969-12-31 18:00:09.669798402,(-11 -11 -22 -39 -4 0 9 8)
1969-12-31 18:00:09.693461586,(-2 -9 -10 29 31 8 8 7)
1969-12-31 18:00:09.693461586,(1 1 -7 -16 -16 -7 -18 -10)
1969-12-31 18:00:09.694537185,(-3 6 0 1 -1 2 1 -5)
1969-12-31 18:00:09.694537185,(2 4 0 10 17 1 2 -1)
1969-12-31 18:00:09.708519975,(12 13 7 0 -1 0 0 2)
1969-12-31 18:00:09.708519975,(-19 -26 -17 -25 -26 -3 14 5)
1969-12-31 18:00:09.709595575,(20 19 16 25 22 5 -23 -15)
1969-12-31 18:00:09.709595575,(-12 3 5 2 8 5 -6 -12)
1969-12-31 18:00:09.734334358,(7 -13 -12 -14 -10 -2 -2 -2)
1969-12-31 18:00:09.734334358,(4 9 9 -14 -16 2 5 5)
1969-12-31 18:00:09.734334358,(-5 -16 -4 4 -4 3 1 -6)
1969-12-31 18:00:09.734334358,(8 18 18 18 12 6 -1 2)
1969-12-31 18:00:09.747241549,(-9 0 12 -6 0 1 -7 -9)
1969-12-31 18:00:09.748317148,(-7 -9 -19 -16 -8 1 3 -6)
1969-12-31 18:00:09.756921942,(7 1 32 18 13 3 -5 -5)
1969-12-31 18:00:09.756921942,(-2 -9 -5 13 2 0 -1 1)
1969-12-31 18:00:09.781660725,(5 7 -2 -1 13 0 -1 -2)
1969-12-31 18:00:09.781660725,(8 6 -2 -2 -4 -3 2 2)
1969-12-31 18:00:09.782736325,(-6 1 -5 -6 -6 -5 -5 -9)
1969-12-31 18:00:09.782736325,(-6 -4 0 -4 2 3 4 2)
1969-12-31 18:00:09.797794714,(-3 -9 -10 -6 -1 1 3 3)
1969-12-31 18:00:09.797794714,(-6 -20 -6 -5 -7 -3 -4 -5)
1969-12-31 18:00:09.798870313,(-3 -11 -20 -10 -6 -4 3 6)
1969-12-31 18:00:09.798870313,(-3 30 17 3 4 -1 0 -3)
1969-12-31 18:00:09.812853104,(5 2 -5 6 5 -7 -6 -4)
1969-12-31 18:00:09.812853104,(11 7 -3 8 -4 0 3 9)
1969-12-31 18:00:09.821457898,(-14 -19 -1 4 2 -3 -1 -7)
1969-12-31 18:00:09.821457898,(-5 -8 3 3 2 -1 4 5)
1969-12-31 18:00:09.837591887,(-3 5 2 -4 -3 -1 0 1)
1969-12-31 18:00:09.837591887,(-1 -3 -1 -3 -4 -1 0 -2)
1969-12-31 18:00:09.845121082,(2 9 4 0 -1 3 2 7)
1969-12-31 18:00:09.845121082,(2 2 -4 -6 -1 4 -6 -3)
1969-12-31 18:00:09.862330670,(27 13 28 15 8 12 -17 -21)
1969-12-31 18:00:09.862330670,(-4 6 19 2 -8 7 -12 -16)
1969-12-31 18:00:09.863406269,(-7 -13 0 -3 -4 9 -3 -6)
1969-12-31 18:00:09.863406269,(13 -14 6 2 -4 1 -4 -2)
1969-12-31 18:00:09.877389060,(-14 -3 -14 -2 0 -1 10 6)
1969-12-31 18:00:09.877389060,(-10 -7 -14 -4 -2 -14 -7 -7)
1969-12-31 18:00:09.885993853,(3 9 -19 -15 -1 -15 2 0)
1969-12-31 18:00:09.885993853,(-18 -4 -3 5 3 -10 2 1)
1969-12-31 18:00:09.910732637,(7 -3 -10 -4 1 -2 4 10)
1969-12-31 18:00:09.910732637,(-1 7 9 1 2 1 4 4)
1969-12-31 18:00:09.911808236,(-2 8 2 3 1 3 4 2)
1969-12-31 18:00:09.911808236,(-1 -24 -13 -7 0 -2 -6 -2)
1969-12-31 18:00:09.935471420,(-4 0 -4 -5 6 1 2 2)
1969-12-31 18:00:09.935471420,(-8 -3 2 -5 -9 -2 -3 -2)
1969-12-31 18:00:09.935471420,(23 18 16 15 8 -1 -22 -21)
1969-12-31 18:00:09.935471420,(10 17 9 9 5 -1 -3 -6)
1969-12-31 18:00:09.941925015,(-7 -6 -1 0 -2 -3 -3 -4)
1969-12-31 18:00:09.941925015,(4 -7 -5 -4 0 0 -1 1)
1969-12-31 18:00:09.950529809,(2 21 15 5 2 2 6 9)
1969-12-31 18:00:09.950529809,(-5 -14 -16 -5 -4 -1 4 2)
1969-12-31 18:00:09.966663798,(-2 7 -6 -6 -4 -4 -5 -5)
1969-12-31 18:00:09.966663798,(-3 -8 -6 -8 -3 1 2 1)
1969-12-31 18:00:09.967739398,(-2 -7 -3 -2 -4 1 6 8)
1969-12-31 18:00:09.967739398,(-5 0 -1 -5 -3 -1 -4 -4)
1969-12-31 18:00:09.991402581,(-7 -11 -6 -8 -4 0 4 6)
1969-12-31 18:00:09.991402581,(5 3 3 2 2 1 -1 1)
1969-12-31 18:00:09.992478181,(-1 2 2 4 0 2 3 1)
1969-12-31 18:00:09.992478181,(-1 1 0 0 -2 -2 -9 -12)
1969-12-31 18:00:10.006460970,(2 -1 5 3 -1 4 0 -4)
1969-12-31 18:00:10.006460970,(-1 1 4 2 -3 -1 -1 -3)
1969-12-31 18:00:10.015065765,(0 -1 -1 -5 -5 -3 1 1)
1969-12-31 18:00:10.015065765,(-2 -2 -3 -6 -4 -2 0 0)
1969-12-31 18:00:10.039804548,(-3 -6 -7 -3 0 -3 -2 -2)
1969-12-31 18:00:10.039804548,(-1 2 0 2 2 -3 -1 -2)
1969-12-31 18:00:10.040880148,(0 -3 -12 -6 -2 -1 5 5)
1969-12-31 18:00:10.040880148,(10 11 5 5 5 -8 -18 -19)
1969-12-31 18:00:10.055938537,(-3 -1 -2 -4 1 -4 1 1)
1969-12-31 18:00:10.055938537,(1 1 5 4 0 -2 -1 1)
1969-12-31 18:00:10.057014136,(-2 -4 -4 0 -1 1 1 0)
1969-12-31 18:00:10.057014136,(-5 -7 -6 -4 -3 0 8 7)
1969-12-31 18:00:10.079601721,(-1 -3 -7 -2 2 -3 2 -1)
1969-12-31 18:00:10.079601721,(0 7 2 3 3 -4 0 -1)
1969-12-31 18:00:10.079601721,(-1 -1 1 1 -1 2 -1 0)
1969-12-31 18:00:10.079601721,(1 5 -3 -3 -1 2 -1 1)
1969-12-31 18:00:10.080677320,(-2 -1 1 -3 -1 0 0 -1)
1969-12-31 18:00:10.080677320,(-3 -6 1 0 -2 -4 2 1)
1969-12-31 18:00:10.094660111,(-1 -2 -3 -1 1 -4 0 -2)
1969-12-31 18:00:10.094660111,(-2 -4 -5 -2 0 -1 0 0)
1969-12-31 18:00:10.102189305,(2 -2 -1 0 1 1 0 -1)
1969-12-31 18:00:10.102189305,(-2 -4 -2 1 -2 1 1 -2)
1969-12-31 18:00:10.119398894,(-1 3 -1 0 -1 0 -2 -4)
1969-12-31 18:00:10.119398894,(-1 1 5 7 0 -4 1 -2)
1969-12-31 18:00:10.121550092,(-2 -1 -1 -4 -4 -4 -2 -1)
1969-12-31 18:00:10.121550092,(-1 0 -5 -4 -1 0 0 -1)
1969-12-31 18:00:10.143062077,(0 -3 2 3 -1 0 -2 2)
1969-12-31 18:00:10.143062077,(-1 -4 -5 -4 -2 3 -3 -2)
1969-12-31 18:00:10.161347265,(-1 -2 -4 -6 -4 1 0 -2)
1969-12-31 18:00:10.161347265,(-2 -2 4 2 -2 1 -1 0)
1969-12-31 18:00:10.162422864,(1 4 6 1 1 -2 -3 -1)
1969-12-31 18:00:10.162422864,(-3 -1 -2 -3 0 -3 -3 -1)
1969-12-31 18:00:10.166725261,(-1 0 -4 -4 -1 0 1 -1)
1969-12-31 18:00:10.166725261,(0 0 0 0 1 -2 3 -1)
1969-12-31 18:00:10.185010449,(1 0 -1 1 2 -3 1 0)
1969-12-31 18:00:10.185010449,(0 -4 2 -1 0 -2 -1 0)
1969-12-31 18:00:10.191464044,(-3 0 -1 -1 0 0 -2 -1)
1969-12-31 18:00:10.191464044,(-1 -1 -1 -4 -2 2 -3 0)
1969-12-31 18:00:10.208673632,(0 1 -7 0 -2 -3 -1 -1)
1969-12-31 18:00:10.208673632,(2 3 2 -1 0 -1 -2 -2)
1969-12-31 18:00:10.209749232,(-3 -3 -4 4 -1 -1 -1 0)
1969-12-31 18:00:10.209749232,(0 2 5 4 1 -1 -1 -2)
1969-12-31 18:00:10.223732022,(-3 -4 -3 -2 -1 1 -3 -2)
1969-12-31 18:00:10.223732022,(-4 -4 -12 -11 -3 0 0 -3)
1969-12-31 18:00:10.233412415,(0 1 5 9 0 1 2 -1)
1969-12-31 18:00:10.233412415,(0 -1 -10 -12 -4 -3 0 1)
1969-12-31 18:00:10.249546404,(0 3 0 -5 -1 -3 1 1)
1969-12-31 18:00:10.249546404,(0 5 29 16 2 -1 -1 0)
1969-12-31 18:00:10.250622004,(3 0 -7 -2 0 0 -3 0)
1969-12-31 18:00:10.250622004,(-5 -9 -15 -14 -2 -2 -1 -3)
1969-12-31 18:00:10.273209588,(-2 -1 -2 -2 -4 -3 -4 -1)
1969-12-31 18:00:10.273209588,(0 1 0 11 -1 3 0 0)
1969-12-31 18:00:10.275360787,(1 4 2 4 4 4 -2 0)
1969-12-31 18:00:10.275360787,(1 0 13 6 6 3 1 2)
1969-12-31 18:00:10.288267978,(-2 -3 -18 -12 -4 -2 -1 -4)
1969-12-31 18:00:10.288267978,(-2 -3 -6 -17 -6 -4 0 -3)
1969-12-31 18:00:10.297948371,(-7 -16 -20 -27 -9 -6 -2 -2)
1969-12-31 18:00:10.297948371,(4 15 22 30 2 -3 0 1)
1969-12-31 18:00:10.313006761,(5 7 26 22 11 1 -1 5)
1969-12-31 18:00:10.313006761,(-3 -3 -11 -1 -3 -4 0 2)
1969-12-31 18:00:10.328065151,(-4 -5 -15 -7 -3 -8 -2 -5)
1969-12-31 18:00:10.328065151,(-11 -20 -25 -34 -11 -2 2 1)
1969-12-31 18:00:10.336669945,(2 2 -8 -9 -7 0 4 6)
1969-12-31 18:00:10.336669945,(5 15 30 45 16 2 -8 -13)
1969-12-31 18:00:10.346350338,(-2 -6 -5 -9 0 4 0 4)
1969-12-31 18:00:10.346350338,(-3 -7 -23 -10 -5 -3 -5 -6)
1969-12-31 18:00:10.352803934,(0 6 42 12 2 0 2 1)
1969-12-31 18:00:10.352803934,(0 -8 -35 -32 -9 -4 -4 -2)
1969-12-31 18:00:10.362484327,(-1 6 32 30 1 -3 -7 -14)
1969-12-31 18:00:10.362484327,(-3 -4 -6 -2 -2 4 -1 -4)
1969-12-31 18:00:10.377542717,(-2 0 -2 4 -4 1 -12 -18)
1969-12-31 18:00:10.378618316,(2 2 -11 -13 -3 2 4 0)
1969-12-31 18:00:10.379693915,(5 5 2 11 2 0 2 6)
1969-12-31 18:00:10.379693915,(4 9 36 9 1 -1 0 -2)
1969-12-31 18:00:10.410886294,(-7 -14 -27 -16 -7 -2 -4 -7)
1969-12-31 18:00:10.410886294,(-10 -16 -15 -15 -9 -2 -8 -12)
1969-12-31 18:00:10.411961893,(1 -6 -26 -20 -11 -5 -7 -11)
1969-12-31 18:00:10.411961893,(5 13 28 27 11 6 9 15)
1969-12-31 18:00:10.416264290,(6 10 18 0 -1 -4 -5 -8)
1969-12-31 18:00:10.416264290,(2 0 11 23 5 2 5 8)
1969-12-31 18:00:10.427020283,(-3 -4 -3 -7 0 1 6 4)
1969-12-31 18:00:10.427020283,(-4 -8 -19 -10 -2 0 3 2)
1969-12-31 18:00:10.443154272,(-5 -6 -13 -5 -4 -10 -3 0)
1969-12-31 18:00:10.443154272,(-3 0 -7 -10 1 -2 8 15)
1969-12-31 18:00:10.444229871,(-3 -1 6 -1 -1 -11 -8 -9)
1969-12-31 18:00:10.444229871,(-5 -2 -3 -3 4 -6 2 4)
1969-12-31 18:00:10.466817455,(-6 -1 -2 6 3 3 8 10)
1969-12-31 18:00:10.466817455,(2 1 3 -13 -6 -1 -4 2)
1969-12-31 18:00:10.468968654,(0 1 7 9 3 10 4 6)
1969-12-31 18:00:10.468968654,(3 2 2 1 -3 0 -8 -8)
1969-12-31 18:00:10.481875845,(1 0 -6 -4 0 7 3 4)
1969-12-31 18:00:10.481875845,(-2 -2 -1 4 0 -4 -3 -5)
1969-12-31 18:00:10.490480639,(-1 3 8 7 1 -3 2 2)
1969-12-31 18:00:10.490480639,(-1 -6 -12 -4 -5 -2 -3 -5)
1969-12-31 18:00:10.507690227,(-1 -3 -13 -1 -1 -1 2 3)
1969-12-31 18:00:10.507690227,(0 -2 -6 -1 1 1 3 2)
1969-12-31 18:00:10.508765827,(-1 3 -3 -6 0 2 1 4)
1969-12-31 18:00:10.508765827,(-2 -6 -15 -5 -3 -1 0 3)
1969-12-31 18:00:10.531353411,(-3 -1 -1 -1 0 -5 -4 -5)
1969-12-31 18:00:10.532429010,(-5 -9 -6 -6 -1 -4 -1 -2)
1969-12-31 18:00:10.533504610,(0 9 21 3 2 -2 0 3)
1969-12-31 18:00:10.533504610,(-1 -5 -9 -7 -11 -9 -8 -8)
1969-12-31 18:00:10.546411801,(1 19 22 12 11 13 5 0)
1969-12-31 18:00:10.546411801,(6 14 11 1 -1 3 -10 -7)
1969-12-31 18:00:10.556092194,(7 -10 -12 -6 0 3 0 1)
1969-12-31 18:00:10.556092194,(-10 -22 -17 -10 -2 -4 1 -2)
1969-12-31 18:00:10.571150584,(-1 -10 -2 -3 0 -5 -2 -3)
1969-12-31 18:00:10.571150584,(-12 12 25 6 5 -2 -1 -9)
1969-12-31 18:00:10.573301782,(1 2 -2 -3 -1 -2 8 13)
1969-12-31 18:00:10.573301782,(8 31 29 11 3 -2 -19 -29)
1969-12-31 18:00:10.595889367,(-6 -22 -27 -13 -7 0 5 4)
1969-12-31 18:00:10.595889367,(2 -4 -6 -2 -2 0 5 3)
1969-12-31 18:00:10.596964966,(0 1 -1 4 0 -1 -7 -4)
1969-12-31 18:00:10.596964966,(-1 -6 -6 -2 0 1 2 12)
1969-12-31 18:00:10.610947757,(10 10 3 -4 -2 3 14 29)
1969-12-31 18:00:10.610947757,(-5 -7 -2 -1 -4 -3 -10 -13)
1969-12-31 18:00:10.627081746,(-5 -1 -4 -2 -4 0 1 -4)
1969-12-31 18:00:10.627081746,(2 0 -3 1 0 0 2 7)
1969-12-31 18:00:10.635686540,(2 4 1 0 3 -4 -7 -9)
1969-12-31 18:00:10.635686540,(-2 -8 -12 -5 2 -3 4 7)
1969-12-31 18:00:10.644291334,(-5 -5 -11 -4 1 -5 4 5)
1969-12-31 18:00:10.644291334,(2 8 3 1 3 -2 3 -2)
1969-12-31 18:00:10.660425323,(-6 -7 -1 -1 -6 -2 -3 -7)
1969-12-31 18:00:10.660425323,(7 1 1 0 -5 1 5 6)
1969-12-31 18:00:10.662576521,(-8 3 4 4 -2 0 -12 -22)
1969-12-31 18:00:10.662576521,(1 -4 4 4 -3 1 5 23)
1969-12-31 18:00:10.675483712,(-1 8 2 -1 -1 3 2 -1)
1969-12-31 18:00:10.675483712,(28 2 -5 -3 0 5 7 27)
1969-12-31 18:00:10.685164106,(-13 -1 -1 -4 -1 4 1 -39)
1969-12-31 18:00:10.685164106,(-40 -22 -11 -2 -2 -4 0 16)
1969-12-31 18:00:10.700222495,(-12 -8 -12 -1 0 -12 -4 -7)
1969-12-31 18:00:10.700222495,(0 3 -8 -1 -2 -5 3 8)
1969-12-31 18:00:10.707751690,(3 0 2 -6 -4 -8 -6 4)
1969-12-31 18:00:10.707751690,(15 7 12 -1 0 6 7 13)
1969-12-31 18:00:10.724961278,(-6 -1 14 -1 -8 6 -15 -41)
1969-12-31 18:00:10.724961278,(18 -6 8 -4 -9 7 -8 -12)
1969-12-31 18:00:10.727112477,(-2 9 20 10 2 14 -3 8)
1969-12-31 18:00:10.727112477,(-51 -26 -8 -5 -6 -4 -22 -63)
1969-12-31 18:00:10.757229256,(24 -3 -5 -3 -3 -5 -2 17)
1969-12-31 18:00:10.757229256,(-21 -7 -4 -1 4 8 -6 -18)
1969-12-31 18:00:10.759380455,(37 8 -2 2 0 -8 15 30)
1969-12-31 18:00:10.759380455,(44 28 6 8 10 7 7 15)
1969-12-31 18:00:10.764758451,(19 3 -3 1 -5 -4 -7 7)
1969-12-31 18:00:10.764758451,(-37 -5 -4 -7 -7 -23 -14 -42)
1969-12-31 18:00:10.771212047,(55 17 4 3 6 -20 -9 0)
1969-12-31 18:00:10.771212047,(-49 -26 -9 -4 3 26 -2 4)
1969-12-31 18:00:10.789497234,(20 -14 -7 -1 1 1 15 52)
1969-12-31 18:00:10.789497234,(-44 -5 0 3 -1 -3 2 -29)
1969-12-31 18:00:10.791648433,(15 21 -1 -1 5 49 11 0)
1969-12-31 18:00:10.791648433,(13 9 -2 -3 -21 -99 -48 -29)
1969-12-31 18:00:10.821765212,(1 2 -7 -1 0 2 -3 -1)
1969-12-31 18:00:10.821765212,(0 -11 -3 0 2 3 1 21)
1969-12-31 18:00:10.823916411,(-33 -11 -5 -3 -2 8 11 -48)
1969-12-31 18:00:10.823916411,(30 14 1 0 8 19 21 94)
1969-12-31 18:00:10.829294407,(-44 -1 -5 -6 -2 -4 -10 -53)
1969-12-31 18:00:10.829294407,(21 -20 -3 -1 -3 -37 -19 -6)
1969-12-31 18:00:10.836823602,(4 -17 -15 -11 -3 36 2 -4)
1969-12-31 18:00:10.836823602,(-38 -5 3 3 2 8 4 -68)
1969-12-31 18:00:10.854033190,(-13 -7 1 0 -4 -1 -23 -20)
1969-12-31 18:00:10.854033190,(44 28 -5 -7 -8 -20 23 48)
1969-12-31 18:00:10.856184388,(-10 7 2 -1 -6 -30 -25 -17)
1969-12-31 18:00:10.856184388,(-17 -6 -3 -4 -6 -8 -4 -50)
1969-12-31 18:00:10.877696374,(30 8 2 1 -1 -15 -4 -12)
1969-12-31 18:00:10.877696374,(-5 -12 -2 1 9 67 6 -17)
1969-12-31 18:00:10.879847572,(-36 -22 -3 -1 -14 -65 0 3)
1969-12-31 18:00:10.879847572,(6 -3 -6 -10 -8 18 2 -2)
1969-12-31 18:00:10.893830363,(8 22 18 12 14 59 51 71)
1969-12-31 18:00:10.893830363,(-55 -42 -27 -24 -28 -66 -74 -86)
1969-12-31 18:00:10.901359557,(-47 4 -4 0 5 5 11 -19)
1969-12-31 18:00:10.901359557,(14 1 7 0 -5 -30 -30 3)
1969-12-31 18:00:10.917493546,(21 7 1 -1 1 -16 3 -12)
1969-12-31 18:00:10.917493546,(-39 -7 -4 -2 -3 16 11 22)
1969-12-31 18:00:10.934703135,(42 -2 2 2 2 11 8 58)
1969-12-31 18:00:10.934703135,(-25 14 -6 -6 -6 -10 -7 26)
1969-12-31 18:00:10.943307929,(16 -17 -12 -3 7 53 16 54)
1969-12-31 18:00:10.943307929,(-28 20 14 12 11 24 4 -41)
1969-12-31 18:00:10.944383528,(-39 -14 -11 -10 -8 -11 -26 -34)
1969-12-31 18:00:10.944383528,(34 -1 5 4 9 -1 32 91)
1969-12-31 18:00:10.957290719,(9 4 4 6 8 35 16 22)
1969-12-31 18:00:10.957290719,(37 12 5 5 7 -8 17 57)
1969-12-31 18:00:10.966971112,(22 13 9 5 -6 -29 -10 33)
1969-12-31 18:00:10.966971112,(-4 -3 -3 -3 7 19 -10 -53)
1969-12-31 18:00:10.983105101,(-36 -4 0 0 -5 -22 -31 -78)
1969-12-31 18:00:10.983105101,(16 24 16 8 5 -16 15 39)
1969-12-31 18:00:10.985256300,(-5 -18 -2 -1 6 10 -4 -10)
1969-12-31 18:00:10.985256300,(35 20 4 3 -2 9 18 46)
1969-12-31 18:00:11.006768284,(-10 -20 -16 -6 -5 -27 24 65)
1969-12-31 18:00:11.006768284,(6 2 -1 -1 3 34 -2 4)
1969-12-31 18:00:11.008919484,(7 17 7 1 5 2 -2 -31)
1969-12-31 18:00:11.008919484,(-43 -53 -43 -22 -6 5 9 -25)
1969-12-31 18:00:11.021826675,(-27 1 7 -10 -11 -23 -19 -47)
1969-12-31 18:00:11.021826675,(25 27 39 29 23 26 32 50)
1969-12-31 18:00:11.031507068,(16 -2 -4 -4 -10 1 -14 -25)
1969-12-31 18:00:11.031507068,(77 61 21 14 1 7 35 62)
1969-12-31 18:00:11.047641057,(-40 -46 -25 -10 -7 -24 -25 -42)
1969-12-31 18:00:11.047641057,(45 -2 -8 -1 16 14 18 7)
1969-12-31 18:00:11.049792256,(-48 -14 2 5 17 41 36 75)
1969-12-31 18:00:11.049792256,(6 8 2 -6 -12 -22 -27 -80)
1969-12-31 18:00:11.072379840,(18 24 15 15 20 -6 8 40)
1969-12-31 18:00:11.072379840,(1 -8 -5 -6 9 10 -17 -30)
1969-12-31 18:00:11.073455439,(25 -2 4 10 -10 41 48 33)
1969-12-31 18:00:11.073455439,(-12 1 -1 -5 -20 -56 -52 -70)
1969-12-31 18:00:11.086362631,(3 8 5 3 -2 -2 9 4)
1969-12-31 18:00:11.086362631,(-43 -9 -6 -2 2 25 -45 -82)
1969-12-31 18:00:11.096043024,(-11 6 -4 -3 9 -47 -35 -48)
1969-12-31 18:00:11.096043024,(2 -21 1 -2 4 55 43 43)
1969-12-31 18:00:11.112177013,(-50 -22 -13 -15 -25 -50 -55 -115)
1969-12-31 18:00:11.112177013,(42 17 3 4 4 5 25 108)
1969-12-31 18:00:11.114328211,(-25 2 -3 -2 -6 -4 -1 -2)
1969-12-31 18:00:11.114328211,(-6 -2 8 6 11 1 -11 -17)
1969-12-31 18:00:11.136915796,(25 10 -1 0 5 22 19 17)
1969-12-31 18:00:11.136915796,(-9 -4 -5 -5 -12 5 17 -27)
1969-12-31 18:00:11.137991395,(15 11 2 -4 -11 -35 -11 68)
1969-12-31 18:00:11.137991395,(67 42 20 21 23 -2 20 41)
1969-12-31 18:00:11.150898586,(-51 -67 -18 -10 0 63 31 -10)
1969-12-31 18:00:11.150898586,(-25 -26 -13 -14 -12 -85 -42 -32)
1969-12-31 18:00:11.160578980,(1 -6 -1 5 34 29 -14 14)
1969-12-31 18:00:11.160578980,(53 43 26 13 -26 -21 46 40)
1969-12-31 18:00:11.176712969,(-27 -6 -7 -9 -30 -17 -16 -35)
1969-12-31 18:00:11.176712969,(-9 -16 -12 -3 12 7 20 -15)
1969-12-31 18:00:11.178864167,(11 -12 -10 -15 -18 -2 -16 -42)
1969-12-31 18:00:11.178864167,(-23 -7 -6 7 17 32 6 -3)
1969-12-31 18:00:11.201451752,(88 57 19 6 -3 -7 26 95)
1969-12-31 18:00:11.201451752,(-23 -8 -5 -13 -16 0 3 -29)
1969-12-31 18:00:11.202527351,(-12 -12 -3 -2 5 -4 -13 25)
1969-12-31 18:00:11.202527351,(-3 -4 0 5 6 7 3 -5)
1969-12-31 18:00:11.215434542,(-13 -4 -7 -3 -6 -3 2 -11)
1969-12-31 18:00:11.215434542,(16 20 10 11 28 10 -10 11)
1969-12-31 18:00:11.225114935,(-49 -16 -15 -17 -15 33 -16 -70)
1969-12-31 18:00:11.225114935,(-38 -46 -15 -13 -10 -60 -45 -35)
1969-12-31 18:00:11.241248924,(-4 2 7 12 16 34 43 -8)
1969-12-31 18:00:11.241248924,(10 10 1 -5 -45 6 26 36)
1969-12-31 18:00:11.243400123,(81 52 7 -12 -27 -19 -12 31)
1969-12-31 18:00:11.243400123,(-56 -48 -13 -7 25 32 24 -13)
1969-12-31 18:00:11.264912108,(-35 -14 -6 -11 10 -22 -60 -87)
1969-12-31 18:00:11.265987706,(-30 -15 -9 -2 -7 -37 -5 -16)
1969-12-31 18:00:11.267063307,(11 8 15 22 14 9 -8 4)
1969-12-31 18:00:11.267063307,(32 42 11 6 7 -5 -49 -17)
1969-12-31 18:00:11.279970497,(20 1 6 17 21 2 1 8)
1969-12-31 18:00:11.279970497,(6 30 8 0 -2 8 -16 -36)
1969-12-31 18:00:11.289650890,(-21 -70 -22 -15 -2 -14 5 46)
1969-12-31 18:00:11.289650890,(-23 -30 -12 -17 -47 -35 20 29)
1969-12-31 18:00:11.305784880,(-9 0 8 15 22 8 -13 30)
1969-12-31 18:00:11.305784880,(36 16 8 10 3 -1 8 56)
1969-12-31 18:00:11.307936079,(-31 -1 -16 -21 -15 -3 -2 23)
1969-12-31 18:00:11.307936079,(3 1 -5 -13 -19 17 18 4)
1969-12-31 18:00:11.330523663,(-9 6 -3 -11 -20 -38 -4 -1)
1969-12-31 18:00:11.330523663,(-28 -45 -13 18 16 9 -3 -5)
1969-12-31 18:00:11.331599262,(0 11 -3 -24 -41 -35 4 -14)
1969-12-31 18:00:11.331599262,(31 2 -17 -6 6 8 -6 3)
1969-12-31 18:00:11.354186847,(-50 4 13 -10 -17 -19 -25 -71)
1969-12-31 18:00:11.354186847,(11 23 16 12 32 32 6 7)
1969-12-31 18:00:11.356338045,(1 -33 -6 15 27 13 9 -26)
1969-12-31 18:00:11.356338045,(13 13 -4 -2 -11 9 1 13)
1969-12-31 18:00:11.370320836,(38 27 11 17 25 -7 -2 34)
1969-12-31 18:00:11.370320836,(8 -29 -48 -33 -28 -16 -12 -30)
1969-12-31 18:00:11.372472034,(-20 -3 30 13 2 -12 16 17)
1969-12-31 18:00:11.372472034,(-35 26 35 -5 -28 -7 -26 -56)
1969-12-31 18:00:11.393984020,(24 11 8 6 11 23 22 41)
1969-12-31 18:00:11.393984020,(21 17 16 14 24 -10 6 10)
1969-12-31 18:00:11.395059619,(36 -10 -51 17 25 -1 -8 -14)
1969-12-31 18:00:11.395059619,(-26 10 5 -23 -23 31 11 -2)
1969-12-31 18:00:11.417647203,(-56 -73 -23 -23 -17 5 -18 5)
1969-12-31 18:00:11.417647203,(25 85 51 -1 -15 -50 -22 -17)
1969-12-31 18:00:11.418722803,(-10 -21 -23 -6 -19 -14 -36 -65)
1969-12-31 18:00:11.418722803,(4 -26 -22 13 58 26 9 4)
1969-12-31 18:00:11.433781192,(27 5 -4 6 -9 7 10 -21)
1969-12-31 18:00:11.434856792,(-39 7 16 4 23 -1 -6 -20)
1969-12-31 18:00:11.434856792,(-70 -30 -3 1 12 31 27 -55)
1969-12-31 18:00:11.434856792,(-12 40 39 11 -33 -51 -1 48)
1969-12-31 18:00:11.458519975,(-40 -76 -55 -26 -21 -12 -13 -17)
1969-12-31 18:00:11.458519975,(7 -113 -80 -25 -40 -25 -19 -28)
1969-12-31 18:00:11.459595575,(-23 85 67 9 18 17 5 -42)
1969-12-31 18:00:11.459595575,(-15 -21 -38 0 56 43 10 -37)
1969-12-31 18:00:11.482183159,(28 -37 -49 -21 14 37 13 46)
1969-12-31 18:00:11.482183159,(-10 101 109 35 -51 -48 16 24)
1969-12-31 18:00:11.483258758,(28 -128 -95 -24 -16 21 32 28)
1969-12-31 18:00:11.483258758,(-3 75 74 17 -21 -47 -28 -4)
1969-12-31 18:00:11.498317148,(57 8 -6 13 53 40 22 21)
1969-12-31 18:00:11.498317148,(-65 -100 -108 -43 -30 3 -11 -65)
1969-12-31 18:00:11.499392747,(23 98 91 31 62 0 -12 12)
1969-12-31 18:00:11.499392747,(-28 -128 -98 -30 -61 4 8 17)
1969-12-31 18:00:11.523055931,(36 127 106 13 -31 -24 -12 14)
1969-12-31 18:00:11.523055931,(-41 -92 -58 -24 9 -1 -11 -49)
1969-12-31 18:00:11.524131530,(35 102 90 50 64 20 21 67)
1969-12-31 18:00:11.524131530,(41 -81 -67 6 24 5 -3 32)
1969-12-31 18:00:11.546719115,(35 -35 -84 -48 -71 -42 -18 3)
1969-12-31 18:00:11.546719115,(-17 59 35 5 -12 4 4 10)
1969-12-31 18:00:11.547794714,(12 45 35 17 -5 0 7 4)
1969-12-31 18:00:11.547794714,(33 -61 -68 -10 40 22 -5 -9)
1969-12-31 18:00:11.562853104,(0 127 127 69 48 -6 38 54)
1969-12-31 18:00:11.562853104,(34 -103 -106 -51 -24 37 8 14)
1969-12-31 18:00:11.563928703,(-2 70 52 3 -27 -50 -48 -11)
1969-12-31 18:00:11.563928703,(-15 -61 -69 -43 -43 -28 -2 7)
1969-12-31 18:00:11.587591887,(-6 35 -25 -5 4 -12 13 25)
1969-12-31 18:00:11.587591887,(27 67 98 41 5 27 3 30)
1969-12-31 18:00:11.588667486,(-29 6 -3 1 42 41 0 -38)
1969-12-31 18:00:11.588667486,(47 19 13 1 -13 -7 6 38)
1969-12-31 18:00:11.611255071,(-9 -95 -43 4 36 -7 6 -2)
1969-12-31 18:00:11.611255071,(-42 -82 -49 -4 -17 -43 -32 -30)
1969-12-31 18:00:11.612330670,(-13 38 41 -16 -69 -15 0 13)
1969-12-31 18:00:11.612330670,(12 62 28 22 42 15 13 37)
1969-12-31 18:00:11.627389060,(8 -25 -37 -6 1 12 -8 -28)
1969-12-31 18:00:11.627389060,(61 127 127 39 31 21 8 73)
1969-12-31 18:00:11.628464659,(-13 -77 -48 19 7 8 15 4)
1969-12-31 18:00:11.628464659,(-67 -48 9 -2 1 5 -7 -65)
1969-12-31 18:00:11.652127843,(-14 -30 -30 -21 -34 -19 -25 -12)
1969-12-31 18:00:11.652127843,(54 -46 -63 -20 13 11 23 65)
1969-12-31 18:00:11.653203442,(39 -56 -82 11 101 55 -3 50)
1969-12-31 18:00:11.653203442,(-20 127 97 -10 -94 -40 17 -35)
1969-12-31 18:00:11.675791026,(50 61 35 16 46 18 -6 20)
1969-12-31 18:00:11.675791026,(4 124 83 -9 -56 -18 -1 -36)
1969-12-31 18:00:11.676866626,(-54 -59 -4 -25 -19 -1 22 23)
1969-12-31 18:00:11.676866626,(-19 -118 -65 -4 30 4 -25 -35)
1969-12-31 18:00:11.691925015,(-28 -6 -86 -45 -52 -24 46 44)
1969-12-31 18:00:11.691925015,(1 56 58 79 57 13 -49 -26)
1969-12-31 18:00:11.693000615,(31 -113 -126 -56 -30 -33 -2 -38)
1969-12-31 18:00:11.693000615,(-34 121 79 32 10 21 -4 -7)
1969-12-31 18:00:11.716663798,(-38 16 27 4 -16 -15 10 -33)
1969-12-31 18:00:11.716663798,(38 -82 -62 -2 25 21 8 37)
1969-12-31 18:00:11.717739398,(-19 -86 -20 4 -38 0 8 -23)
1969-12-31 18:00:11.717739398,(19 -128 -86 -22 28 0 -6 14)
1969-12-31 18:00:11.740326982,(-39 -2 -16 -12 3 -13 -59 -76)
1969-12-31 18:00:11.740326982,(-31 82 80 52 73 26 29 -18)
1969-12-31 18:00:11.741402581,(40 2 -11 -27 -55 1 16 58)
1969-12-31 18:00:11.741402581,(42 82 41 -4 -54 -44 10 9)
1969-12-31 18:00:11.756460971,(6 -11 36 21 69 65 11 -48)
1969-12-31 18:00:11.756460971,(22 -128 -121 -39 -59 -18 32 67)
1969-12-31 18:00:11.757536570,(-70 122 81 -5 -18 -62 -59 -104)
1969-12-31 18:00:11.757536570,(19 -73 -50 8 43 35 4 49)
1969-12-31 18:00:11.781199754,(15 79 83 46 -8 -19 -3 -7)
1969-12-31 18:00:11.781199754,(-32 -77 -15 -33 -14 8 -9 8)
1969-12-31 18:00:11.782275353,(22 -99 -111 -28 -21 -16 14 12)
1969-12-31 18:00:11.782275353,(-42 127 114 38 43 23 -17 -51)
1969-12-31 18:00:11.804862938,(15 -6 12 2 1 -1 -13 30)
1969-12-31 18:00:11.804862938,(-45 -61 -43 -6 27 27 6 -24)
1969-12-31 18:00:11.805938537,(8 -21 -29 -32 -87 -88 -20 -5)
1969-12-31 18:00:11.805938537,(-15 -69 -59 9 72 70 1 -14)
1969-12-31 18:00:11.820996926,(37 -44 -41 32 15 23 -2 54)
1969-12-31 18:00:11.820996926,(-37 119 104 -21 -107 -52 0 -26)
1969-12-31 18:00:11.822072526,(25 -1 -18 -30 -45 -43 -31 40)
1969-12-31 18:00:11.822072526,(-43 -117 -105 -34 39 -27 -24 -74)
1969-12-31 18:00:11.845735710,(32 97 72 25 35 16 15 -1)
1969-12-31 18:00:11.845735710,(40 6 -2 17 43 24 25 43)
1969-12-31 18:00:11.846811309,(-36 -76 -84 -31 0 10 -4 -60)
1969-12-31 18:00:11.846811309,(-40 99 127 35 -52 -10 -12 -29)
1969-12-31 18:00:11.869398894,(-25 4 11 0 -44 -26 -28 -9)
1969-12-31 18:00:11.869398894,(-17 -7 -34 -9 15 -7 6 -17)
1969-12-31 18:00:11.870474493,(16 -5 21 10 -12 13 22 18)
1969-12-31 18:00:11.870474493,(25 -69 -49 -7 3 8 6 21)
1969-12-31 18:00:11.885532882,(8 -86 -87 -16 76 12 -8 -18)
1969-12-31 18:00:11.885532882,(-39 89 82 23 -9 -8 -16 -18)
1969-12-31 18:00:11.886608482,(33 29 21 17 -3 3 -13 27)
1969-12-31 18:00:11.886608482,(-31 -24 -19 -30 -73 -33 -25 -13)
1969-12-31 18:00:11.910271666,(-6 -84 -46 -15 5 -10 15 -5)
1969-12-31 18:00:11.910271666,(-4 -120 -92 -33 -21 -14 -25 -4)
1969-12-31 18:00:11.911347265,(43 60 -19 38 127 73 6 26)
1969-12-31 18:00:11.911347265,(49 118 105 32 -30 -24 10 28)
1969-12-31 18:00:11.933934849,(-63 -70 -1 -48 -113 -67 -39 -32)
1969-12-31 18:00:11.933934849,(-15 60 -4 -16 -45 -36 -14 -37)
1969-12-31 18:00:11.935010449,(30 -27 13 5 4 11 18 29)
1969-12-31 18:00:11.935010449,(29 -25 -74 -22 1 1 -3 -28)
1969-12-31 18:00:11.950068838,(61 52 23 23 8 25 23 60)
1969-12-31 18:00:11.950068838,(-37 19 64 54 90 41 8 -14)
1969-12-31 18:00:11.951144438,(-56 -54 -20 -26 -57 -28 -17 -56)
1969-12-31 18:00:11.951144438,(48 -17 -14 -5 82 39 20 43)
1969-12-31 18:00:11.974807621,(-71 -53 -42 -13 -15 -9 -36 -32)
1969-12-31 18:00:11.974807621,(29 -43 -89 -43 -18 -23 7 2)
1969-12-31 18:00:11.975883221,(4 105 100 33 -26 -23 14 5)
1969-12-31 18:00:11.975883221,(-6 49 34 -2 35 28 -31 3)
1969-12-31 18:00:11.998470805,(5 -10 -34 -26 -72 -24 29 3)
1969-12-31 18:00:11.998470805,(-7 -67 -42 -5 57 10 -22 -30)
1969-12-31 18:00:11.999546404,(-33 -12 59 30 41 18 24 -26)
1969-12-31 18:00:11.999546404,(31 71 31 4 -37 -18 -14 13)
1969-12-31 18:00:12.014604794,(-14 75 51 35 59 51 22 19)
1969-12-31 18:00:12.014604794,(31 14 3 -13 -50 -20 1 43)
1969-12-31 18:00:12.015680393,(-9 17 12 2 -18 -2 5 -32)
1969-12-31 18:00:12.015680393,(-19 -65 -23 -1 -15 -24 10 -2)
1969-12-31 18:00:12.039343577,(5 -32 -37 -29 -19 31 0 6)
1969-12-31 18:00:12.039343577,(-11 7 -1 11 10 -13 10 -27)
1969-12-31 18:00:12.039343577,(16 14 14 -6 -52 -25 -20 20)
1969-12-31 18:00:12.039343577,(-12 -81 -56 -8 55 17 16 14)
1969-12-31 18:00:12.063006761,(17 88 32 15 18 -25 -27 -54)
1969-12-31 18:00:12.063006761,(27 -96 -67 -22 8 78 37 48)
1969-12-31 18:00:12.064082360,(-2 110 39 12 -6 -50 -38 -53)
1969-12-31 18:00:12.064082360,(-87 -44 -3 -37 -94 -36 -6 -56)
1969-12-31 18:00:12.079140750,(24 -39 -9 -12 -24 -25 1 21)
1969-12-31 18:00:12.079140750,(21 -41 -67 -6 51 21 9 -1)
1969-12-31 18:00:12.080216349,(-45 69 79 44 44 25 -1 -13)
1969-12-31 18:00:12.080216349,(45 -15 -10 1 -72 -18 29 50)
1969-12-31 18:00:12.103879533,(5 -16 7 6 69 33 12 12)
1969-12-31 18:00:12.103879533,(-19 3 9 -1 -19 -9 1 26)
1969-12-31 18:00:12.103879533,(5 -128 -118 -39 -11 7 -18 20)
1969-12-31 18:00:12.103879533,(-26 68 68 29 35 -4 -6 -41)
1969-12-31 18:00:12.127542717,(-11 12 27 15 -10 12 14 20)
1969-12-31 18:00:12.127542717,(28 -51 -41 -15 -19 -9 -1 30)
1969-12-31 18:00:12.128618316,(5 4 1 14 44 40 22 9)
1969-12-31 18:00:12.128618316,(-28 22 -17 -39 -54 -32 -8 -15)
1969-12-31 18:00:12.143676706,(-3 0 9 -6 -32 -24 -8 -18)
1969-12-31 18:00:12.143676706,(56 60 11 18 21 4 -8 14)
1969-12-31 18:00:12.144752305,(-83 -68 2 -8 -30 4 9 -60)
1969-12-31 18:00:12.144752305,(12 16 19 26 57 18 -27 -55)
1969-12-31 18:00:12.168415489,(7 40 23 20 16 10 -11 -24)
1969-12-31 18:00:12.168415489,(16 4 -31 -17 -61 -26 -10 -30)
1969-12-31 18:00:12.169491088,(32 -12 -9 15 75 27 20 30)
1969-12-31 18:00:12.169491088,(-4 -1 25 26 -8 23 18 50)
1969-12-31 18:00:12.192078672,(-50 -70 -20 -52 -67 -70 -30 -54)
1969-12-31 18:00:12.192078672,(19 20 20 21 62 32 23 27)
1969-12-31 18:00:12.193154272,(16 -26 -29 -6 40 16 -21 -29)
1969-12-31 18:00:12.193154272,(15 -34 -25 -2 -31 3 18 32)
1969-12-31 18:00:12.208212661,(0 40 17 -2 -9 -16 -6 0)
1969-12-31 18:00:12.208212661,(-12 66 60 10 -15 -5 4 0)
1969-12-31 18:00:12.209288261,(15 -7 -52 -38 -44 -14 4 37)
1969-12-31 18:00:12.209288261,(3 -92 -50 0 62 27 13 -3)
1969-12-31 18:00:12.232951444,(-31 -82 -56 2 7 15 -6 -41)
1969-12-31 18:00:12.232951444,(-23 60 52 -14 -61 -49 -44 -31)
1969-12-31 18:00:12.234027044,(18 60 47 22 29 29 -9 4)
1969-12-31 18:00:12.234027044,(31 -4 11 23 0 -12 9 29)
1969-12-31 18:00:12.274899816,(44 -7 -28 -28 -12 0 10 47)
1969-12-31 18:00:12.274899816,(-18 3 39 18 44 32 13 5)
1969-12-31 18:00:12.275975415,(-3 2 -13 -12 -81 -29 23 56)
1969-12-31 18:00:12.275975415,(-26 -44 -51 -47 -24 -28 -31 -26)
1969-12-31 18:00:12.278126612,(35 -10 -22 -4 -52 -14 18 38)
1969-12-31 18:00:12.278126612,(-73 -19 -1 22 103 47 -17 -48)
1969-12-31 18:00:12.281353411,(30 10 1 -19 -53 -40 -11 18)
1969-12-31 18:00:12.281353411,(28 4 -20 -9 1 -1 21 28)
1969-12-31 18:00:12.297487400,(-8 36 48 17 28 36 4 1)
1969-12-31 18:00:12.297487400,(-50 -28 -21 -33 -76 -68 -29 -38)
1969-12-31 18:00:12.297487400,(47 -12 -47 6 44 41 33 34)
1969-12-31 18:00:12.297487400,(-69 21 73 38 30 -3 -11 -60)
1969-12-31 18:00:12.321150584,(27 16 -11 1 -1 6 28 42)
1969-12-31 18:00:12.321150584,(4 6 35 25 36 34 22 -32)
1969-12-31 18:00:12.322226183,(36 8 -40 -39 -63 -32 -28 39)
1969-12-31 18:00:12.322226183,(-53 -84 -35 -22 -10 -3 -8 -35)
1969-12-31 18:00:12.337284573,(42 43 3 -7 11 13 -19 -3)
1969-12-31 18:00:12.337284573,(-32 -35 11 0 -17 -8 18 14)
1969-12-31 18:00:12.345889367,(0 -35 -7 14 2 -36 -16 -39)
1969-12-31 18:00:12.345889367,(12 62 22 20 77 58 25 26)
1969-12-31 18:00:12.362023356,(-74 -41 -14 -12 -13 -3 -41 -41)
1969-12-31 18:00:12.362023356,(39 -52 -71 -48 -59 -47 -10 -3)
1969-12-31 18:00:12.363098955,(-30 -99 -63 -25 -3 -8 -16 -24)
1969-12-31 18:00:12.363098955,(41 124 96 50 -1 -4 0 37)
1969-12-31 18:00:12.385686540,(-27 3 25 16 27 1 9 -13)
1969-12-31 18:00:12.385686540,(53 -30 -40 -21 -10 3 -4 29)
1969-12-31 18:00:12.386762139,(-76 20 82 49 35 37 29 -24)
1969-12-31 18:00:12.386762139,(27 -26 -39 -12 -12 -18 -24 -13)
1969-12-31 18:00:12.401820529,(-21 23 5 -20 -35 -30 -26 -23)
1969-12-31 18:00:12.401820529,(37 -41 -42 6 28 18 14 55)
1969-12-31 18:00:12.409349723,(-27 -11 -1 -20 1 -1 14 -4)
1969-12-31 18:00:12.409349723,(2 39 0 2 21 29 10 -39)
1969-12-31 18:00:12.435164106,(39 -31 -12 3 12 4 -27 30)
1969-12-31 18:00:12.435164106,(-52 -14 0 -13 -63 -59 -16 -50)
1969-12-31 18:00:12.436239705,(16 7 -27 -3 35 27 23 30)
1969-12-31 18:00:12.436239705,(-16 -51 -22 -17 -28 -19 -36 -4)
1969-12-31 18:00:12.450222495,(41 57 51 27 6 25 54 73)
1969-12-31 18:00:12.450222495,(18 23 -7 -29 -29 -5 2 18)
1969-12-31 18:00:12.451298095,(-47 -14 44 41 51 28 10 -42)
1969-12-31 18:00:12.451298095,(19 26 -19 -23 -19 0 5 17)
1969-12-31 18:00:12.466356484,(-15 -15 4 12 -4 -10 -7 -32)
1969-12-31 18:00:12.466356484,(7 1 -5 35 69 40 2 -7)
1969-12-31 18:00:12.474961278,(-36 4 22 -10 -33 -45 -29 -20)
1969-12-31 18:00:12.474961278,(35 23 3 -17 -26 0 15 24)
1969-12-31 18:00:12.491095267,(-30 -41 -41 -7 -1 -26 -19 -31)
1969-12-31 18:00:12.491095267,(-19 31 51 17 -23 -9 -8 -24)
1969-12-31 18:00:12.492170867,(46 49 4 14 61 30 7 53)
1969-12-31 18:00:12.492170867,(-64 -25 17 33 75 36 17 -68)
1969-12-31 18:00:12.516909650,(-35 -98 -77 -56 -90 -65 -69 -41)
1969-12-31 18:00:12.517985249,(-16 33 11 -23 -30 -15 3 -14)
1969-12-31 18:00:12.517985249,(22 -6 2 12 13 21 29 27)
1969-12-31 18:00:12.517985249,(51 49 -1 -15 -2 5 -11 56)
1969-12-31 18:00:12.529816841,(-24 -27 8 23 45 17 34 -7)
1969-12-31 18:00:12.530892440,(80 20 -16 13 11 10 35 77)
1969-12-31 18:00:12.539497234,(-88 -80 -85 -77 -85 -54 -62 -88)
1969-12-31 18:00:12.539497234,(-36 105 98 71 29 14 17 -1)
1969-12-31 18:00:12.555631223,(22 -17 -23 0 16 22 27 42)
1969-12-31 18:00:12.555631223,(-19 -43 -20 4 23 14 -13 -13)
1969-12-31 18:00:12.556706822,(50 -7 -23 -12 -28 4 38 38)
1969-12-31 18:00:12.556706822,(15 -47 -51 -25 -15 -29 -42 -37)
1969-12-31 18:00:12.579294407,(-18 40 49 21 46 31 35 8)
1969-12-31 18:00:12.579294407,(14 0 14 -1 2 -5 -12 19)
1969-12-31 18:00:12.580370006,(24 61 31 27 14 7 16 -11)
1969-12-31 18:00:12.580370006,(-94 -63 -51 -31 -7 -26 -41 -45)
1969-12-31 18:00:12.595428396,(38 -22 -18 -6 -20 0 -5 39)
1969-12-31 18:00:12.595428396,(-42 41 24 -2 -9 17 24 -5)
1969-12-31 18:00:12.604033190,(51 22 1 -6 -44 -56 -20 21)
1969-12-31 18:00:12.604033190,(38 -13 -47 -31 -29 -24 -19 -7)
1969-12-31 18:00:12.620167179,(-35 92 79 53 55 30 24 -19)
1969-12-31 18:00:12.620167179,(-14 -55 -34 -9 -3 13 7 7)
1969-12-31 18:00:12.621242778,(-7 -17 -4 -1 -8 -2 -33 -7)
1969-12-31 18:00:12.621242778,(20 -53 -53 -16 -7 -3 17 47)
1969-12-31 18:00:12.644905962,(16 -63 -58 -18 9 0 -7 0)
1969-12-31 18:00:12.644905962,(-10 76 57 -7 -71 -47 -25 -30)
1969-12-31 18:00:12.645981561,(31 56 57 51 121 93 45 44)
1969-12-31 18:00:12.645981561,(24 -23 -17 32 -30 -2 -3 27)
1969-12-31 18:00:12.659964352,(-107 -100 -50 -44 -51 -26 -25 -104)
1969-12-31 18:00:12.659964352,(-1 9 9 19 32 24 31 28)
1969-12-31 18:00:12.668569146,(-27 5 3 -12 2 -6 -2 -9)
1969-12-31 18:00:12.668569146,(35 -3 -19 -24 -22 -4 10 31)
1969-12-31 18:00:12.683627535,(19 -11 -8 -5 -14 -8 17 15)
1969-12-31 18:00:12.684703135,(5 3 -10 12 16 13 26 30)
1969-12-31 18:00:12.693307929,(-33 8 20 4 -16 -24 -36 -41)
1969-12-31 18:00:12.693307929,(21 9 -7 -16 -4 9 17 9)
1969-12-31 18:00:12.708366318,(-25 56 74 32 26 8 8 -19)
1969-12-31 18:00:12.708366318,(3 -30 -17 -9 -25 -25 -29 -11)
1969-12-31 18:00:12.716971112,(61 24 -13 -9 -23 -13 9 43)
1969-12-31 18:00:12.716971112,(-85 -22 0 -64 -30 -9 -23 -71)
1969-12-31 18:00:12.724500307,(52 10 -11 28 62 12 8 37)
1969-12-31 18:00:12.724500307,(4 -35 -16 17 31 6 -15 -1)
1969-12-31 18:00:12.733105101,(-43 -49 -24 4 -16 -5 -10 -28)
1969-12-31 18:00:12.733105101,(24 36 30 39 5 -7 9 31)
1969-12-31 18:00:12.749239090,(39 60 22 -10 -6 22 15 64)
1969-12-31 18:00:12.749239090,(-51 -28 0 -23 -22 -29 -49 -79)
1969-12-31 18:00:12.750314690,(39 -1 -21 -15 -11 -1 7 26)
1969-12-31 18:00:12.750314690,(-3 -24 -17 -26 -12 -11 2 12)
1969-12-31 18:00:12.773977873,(-41 -17 -20 -15 -13 -12 -15 -25)
1969-12-31 18:00:12.773977873,(58 52 25 22 21 19 20 50)
1969-12-31 18:00:12.775053473,(-32 -46 -16 -11 -17 -6 -10 -25)
1969-12-31 18:00:12.775053473,(35 20 18 14 5 2 13 59)
1969-12-31 18:00:12.798716656,(-9 -15 -17 4 -1 4 -1 -22)
1969-12-31 18:00:12.798716656,(38 13 -1 -4 -8 -8 17 41)
1969-12-31 18:00:12.798716656,(-55 -26 -19 -26 -25 -6 -33 -66)
1969-12-31 18:00:12.798716656,(47 57 49 11 2 2 14 18)
1969-12-31 18:00:12.813775046,(-69 -37 -23 14 17 -12 -18 -45)
1969-12-31 18:00:12.813775046,(0 -14 9 -17 -56 -21 -6 2)
1969-12-31 18:00:12.814850645,(30 43 32 35 66 30 10 22)
1969-12-31 18:00:12.814850645,(-2 -9 -7 12 20 6 -1 -10)
1969-12-31 18:00:12.838513829,(22 -4 -12 -21 -25 -11 -6 4)
1969-12-31 18:00:12.838513829,(-18 -14 -18 -10 2 2 -11 -23)
1969-12-31 18:00:12.839589428,(-16 -17 -9 -10 -21 -11 5 15)
1969-12-31 18:00:12.839589428,(-22 13 16 4 -3 5 -1 -27)
1969-12-31 18:00:12.863252612,(33 17 2 -10 -12 -7 -7 8)
1969-12-31 18:00:12.863252612,(6 0 -8 2 16 1 -9 -3)
1969-12-31 18:00:12.863252612,(82 39 38 18 2 15 28 74)
1969-12-31 18:00:12.863252612,(-20 -14 -5 4 7 -1 -13 -42)
1969-12-31 18:00:12.878311002,(-23 -17 -7 -11 -24 -18 -6 28)
1969-12-31 18:00:12.878311002,(25 3 -5 6 19 14 4 9)
1969-12-31 18:00:12.879386601,(-36 -11 -5 -1 -3 -10 -17 -47)
1969-12-31 18:00:12.879386601,(1 2 -1 5 -13 -8 -1 -1)
1969-12-31 18:00:12.911654579,(112 58 23 10 0 9 27 60)
1969-12-31 18:00:12.911654579,(-36 -25 -15 -8 11 0 -11 -19)
1969-12-31 18:00:12.912730178,(-38 -7 -10 -43 -49 -11 -13 -23)
1969-12-31 18:00:12.912730178,(-40 -35 -2 40 27 3 -11 -6)
1969-12-31 18:00:12.927788568,(-5 -8 -10 -5 0 16 2 -5)
1969-12-31 18:00:12.927788568,(62 30 13 4 11 -7 25 37)
1969-12-31 18:00:12.927788568,(83 58 20 18 14 -17 -16 19)
1969-12-31 18:00:12.927788568,(12 -4 7 6 3 28 69 95)
1969-12-31 18:00:12.942846958,(-12 -53 -34 -31 -27 -31 -56 -31)
1969-12-31 18:00:12.942846958,(16 2 10 12 5 4 -24 4)
1969-12-31 18:00:12.943922557,(-58 -26 -5 -13 -11 -4 -2 -13)
1969-12-31 18:00:12.943922557,(127 72 13 -7 -5 3 8 53)
1969-12-31 18:00:12.967585741,(-51 -30 -12 -3 2 -11 -4 -21)
1969-12-31 18:00:12.967585741,(-89 -41 -21 -17 -7 3 -10 -62)
1969-12-31 18:00:12.968661340,(9 -12 -3 0 2 -7 2 16)
1969-12-31 18:00:12.968661340,(29 28 24 18 21 21 22 42)
1969-12-31 18:00:12.992324524,(80 35 16 8 2 12 26 57)
1969-12-31 18:00:12.992324524,(-96 -48 -25 -19 -18 -31 -56 -89)
1969-12-31 18:00:12.992324524,(29 29 14 16 11 18 22 26)
1969-12-31 18:00:12.992324524,(9 -14 -6 -1 -8 -4 0 1)
1969-12-31 18:00:13.007382913,(-56 -2 1 -2 -3 -2 5 -8)
1969-12-31 18:00:13.007382913,(54 20 11 9 15 18 28 60)
1969-12-31 18:00:13.034272895,(-91 -45 -17 -5 -2 -11 -19 -76)
1969-12-31 18:00:13.034272895,(-40 -39 -23 -25 -20 -9 -9 16)
1969-12-31 18:00:13.035348494,(45 21 3 -4 -5 -9 -14 -17)
1969-12-31 18:00:13.035348494,(26 26 8 9 9 13 6 14)
1969-12-31 18:00:13.036424093,(-11 -7 2 8 4 9 13 27)
1969-12-31 18:00:13.036424093,(-96 -37 -29 -22 -23 -34 -47 -115)
1969-12-31 18:00:13.056860479,(-27 -24 -5 -8 -6 -7 -12 -35)
1969-12-31 18:00:13.056860479,(23 14 11 7 8 9 13 29)
1969-12-31 18:00:13.057936079,(72 30 14 10 10 12 27 77)
1969-12-31 18:00:13.057936079,(-115 -55 -22 -18 -19 -22 -40 -111)
1969-12-31 18:00:13.071918869,(19 16 13 13 10 3 8 14)
1969-12-31 18:00:13.071918869,(-23 1 3 -2 -2 -1 -4 -25)
1969-12-31 18:00:13.071918869,(8 -1 -2 -3 -1 -5 -5 -16)
1969-12-31 18:00:13.071918869,(5 7 5 4 6 4 1 5)
1969-12-31 18:00:13.096657652,(13 9 -5 -7 -10 -5 -2 -14)
1969-12-31 18:00:13.096657652,(3 -5 -3 1 1 1 1 5)
1969-12-31 18:00:13.096657652,(13 2 -3 -1 1 2 -1 -12)
1969-12-31 18:00:13.096657652,(-48 -18 -7 -3 2 -4 0 3)
1969-12-31 18:00:13.120320836,(12 2 -3 -2 0 5 8 11)
1969-12-31 18:00:13.120320836,(4 16 7 4 2 2 3 8)
1969-12-31 18:00:13.121396435,(-10 -7 -13 -9 -4 -5 -4 -6)
1969-12-31 18:00:13.121396435,(35 14 10 7 5 3 2 0)
1969-12-31 18:00:13.136454825,(-18 -23 -15 -4 -1 -2 -10 -29)
1969-12-31 18:00:13.136454825,(-15 -9 -1 -1 1 0 -3 -1)
1969-12-31 18:00:13.136454825,(18 30 12 4 0 0 -5 -17)
1969-12-31 18:00:13.137530424,(-12 -24 -10 -10 -5 -1 0 -1)
1969-12-31 18:00:13.161193608,(-13 4 3 6 5 2 6 3)
1969-12-31 18:00:13.161193608,(-10 -19 -1 2 -2 -3 -2 -4)
1969-12-31 18:00:13.162269207,(3 4 -3 -1 -2 1 3 -1)
1969-12-31 18:00:13.162269207,(31 5 -3 -6 -3 3 11 18)
1969-12-31 18:00:13.185932391,(0 3 1 4 3 9 7 13)
1969-12-31 18:00:13.185932391,(-7 -13 -9 -4 -1 -4 -10 -12)
1969-12-31 18:00:13.185932391,(-16 -11 -7 -8 -10 -18 -28 -23)
1969-12-31 18:00:13.185932391,(17 29 10 1 1 0 6 5)
1969-12-31 18:00:13.200990781,(-11 -8 -1 -1 -2 -5 -3 -6)
1969-12-31 18:00:13.200990781,(14 -4 -2 -1 2 5 9 7)
1969-12-31 18:00:13.202066380,(-14 -20 0 0 5 13 24 8)
1969-12-31 18:00:13.202066380,(28 70 62 20 -1 -6 -24 3)
1969-12-31 18:00:13.225729564,(-2 2 1 -1 -2 -7 -2 -6)
1969-12-31 18:00:13.225729564,(5 -48 -69 -21 -7 0 -2 2)
1969-12-31 18:00:13.226805163,(-11 69 95 40 15 7 -7 -6)
1969-12-31 18:00:13.226805163,(13 -18 -35 -11 -4 1 14 0)
1969-12-31 18:00:13.249392747,(4 8 4 2 0 -4 2 9)
1969-12-31 18:00:13.249392747,(-7 -14 -5 1 -2 -3 1 -8)
1969-12-31 18:00:13.250468347,(-4 -37 -43 -14 -2 3 22 12)
1969-12-31 18:00:13.250468347,(11 8 1 -5 -7 -12 -22 0)
1969-12-31 18:00:13.265526736,(-2 3 8 5 1 2 -1 14)
1969-12-31 18:00:13.265526736,(1 6 0 -1 2 4 18 0)
1969-12-31 18:00:13.266602336,(4 -4 -12 -6 -7 -4 -8 1)
1969-12-31 18:00:13.266602336,(-5 2 5 0 2 -3 -12 -15)
1969-12-31 18:00:13.290265518,(-5 -19 -17 -14 -14 -11 8 -3)
1969-12-31 18:00:13.290265518,(6 25 24 7 11 10 5 16)
1969-12-31 18:00:13.291341119,(10 14 9 11 -3 11 11 0)
1969-12-31 18:00:13.291341119,(-3 -25 -16 -2 13 -2 -1 5)
1969-12-31 18:00:13.315004302,(-5 -5 -6 -15 -15 0 -6 -3)
1969-12-31 18:00:13.315004302,(5 18 11 -7 7 0 5 12)
1969-12-31 18:00:13.315004302,(-2 -9 -6 13 4 -1 -4 -3)
1969-12-31 18:00:13.315004302,(9 -6 -11 5 -3 1 14 6)
1969-12-31 18:00:13.330062692,(-5 8 7 12 1 -5 -9 -9)
1969-12-31 18:00:13.330062692,(-2 10 12 0 0 -1 -2 -3)
1969-12-31 18:00:13.331138291,(-7 -21 -17 -4 1 -7 -15 -11)
1969-12-31 18:00:13.331138291,(-1 -4 -5 -5 -2 7 2 -16)
1969-12-31 18:00:13.354801475,(-3 2 3 1 3 2 -8 -5)
1969-12-31 18:00:13.354801475,(1 2 2 -8 -19 -6 -6 -5)
1969-12-31 18:00:13.356952674,(-2 -6 -6 -3 4 -4 -11 2)
1969-12-31 18:00:13.356952674,(2 3 -1 0 0 8 20 7)
1969-12-31 18:00:13.378464659,(0 3 -1 -4 -6 -8 -17 -4)
1969-12-31 18:00:13.378464659,(-3 -4 -3 1 3 0 -2 -3)
1969-12-31 18:00:13.380615857,(-1 -4 -4 -5 -5 -10 -5 0)
1969-12-31 18:00:13.380615857,(-1 3 6 0 -5 0 -11 -7)
1969-12-31 18:00:13.393523049,(-4 -8 -1 -6 4 4 7 0)
1969-12-31 18:00:13.393523049,(-8 -5 -3 -3 -5 -4 -3 -3)
1969-12-31 18:00:13.403203442,(7 6 -2 1 2 4 2 4)
1969-12-31 18:00:13.403203442,(0 -8 -6 -6 -4 0 -6 -1)
1969-12-31 18:00:13.419337431,(-2 -22 -14 -10 -1 3 -5 -10)
1969-12-31 18:00:13.419337431,(8 66 59 33 13 14 3 -2)
1969-12-31 18:00:13.421488629,(-6 -12 -5 -17 -16 -9 -3 -5)
1969-12-31 18:00:13.421488629,(-3 -6 -14 5 5 -12 14 14)
1969-12-31 18:00:13.444076214,(1 -6 -15 -8 0 -12 4 6)
1969-12-31 18:00:13.444076214,(-8 -16 -16 30 19 2 1 2)
1969-12-31 18:00:13.445151813,(2 6 9 2 -1 0 -2 -1)
1969-12-31 18:00:13.445151813,(3 3 8 -19 -5 9 -3 0)
1969-12-31 18:00:13.458059004,(-4 4 10 26 10 32 5 -2)
1969-12-31 18:00:13.458059004,(-3 -8 -17 -15 -27 -33 -18 -4)
1969-12-31 18:00:13.467739398,(-3 -5 -18 4 7 -19 -8 2)
1969-12-31 18:00:13.467739398,(-2 -11 -14 6 24 -1 2 7)
1969-12-31 18:00:13.483873387,(3 8 0 -11 3 0 7 8)
1969-12-31 18:00:13.483873387,(0 -1 -7 -23 -9 -5 -7 -5)
1969-12-31 18:00:13.484948986,(-5 -11 -4 -3 6 18 19 6)
1969-12-31 18:00:13.486024585,(-3 -3 -3 -19 -12 -13 -23 -17)
1969-12-31 18:00:13.508612170,(6 14 15 10 -5 0 5 1)
1969-12-31 18:00:13.508612170,(3 -1 2 -4 -5 7 -8 -7)
1969-12-31 18:00:13.509687769,(-1 -4 -5 -2 -6 -1 2 -5)
1969-12-31 18:00:13.509687769,(4 7 11 -4 -17 6 -4 5)
1969-12-31 18:00:13.522594960,(4 9 19 31 23 1 7 -3)
1969-12-31 18:00:13.522594960,(-8 -14 -6 -10 -15 -7 -9 -10)
1969-12-31 18:00:13.532275353,(-3 -4 -8 -9 10 2 -2 1)
1969-12-31 18:00:13.532275353,(-3 -1 -4 8 2 0 9 2)
1969-12-31 18:00:13.548409342,(-5 -3 -5 -10 -12 -14 -6 0)
1969-12-31 18:00:13.548409342,(1 -1 -1 0 6 0 0 1)
1969-12-31 18:00:13.549484942,(-4 -3 -9 -9 -4 -2 3 1)
1969-12-31 18:00:13.549484942,(2 1 2 4 -1 0 -2 0)
1969-12-31 18:00:13.581752919,(-1 -1 1 -7 -1 0 -5 -3)
1969-12-31 18:00:13.581752919,(-5 -13 -5 -4 3 7 3 -3)
1969-12-31 18:00:13.582828519,(12 16 12 2 -4 3 2 4)
1969-12-31 18:00:13.582828519,(-4 -1 12 8 3 1 -4 -9)
1969-12-31 18:00:13.587130916,(-7 -14 -5 -12 -7 -2 -8 -8)
1969-12-31 18:00:13.587130916,(-1 5 6 5 6 7 2 1)
1969-12-31 18:00:13.596811309,(-2 -13 -16 -3 -7 -6 -2 0)
1969-12-31 18:00:13.596811309,(0 14 13 0 1 -3 3 6)
1969-12-31 18:00:13.612945298,(1 -4 -14 -7 -2 -7 -1 2)
1969-12-31 18:00:13.612945298,(-5 -30 -20 -5 -2 -6 0 -3)
1969-12-31 18:00:13.615096497,(0 21 9 1 -2 -4 -2 -2)
1969-12-31 18:00:13.615096497,(3 19 10 9 0 -2 1 4)
1969-12-31 18:00:13.636608482,(-1 2 8 2 7 0 4 0)
1969-12-31 18:00:13.636608482,(1 -2 -5 -5 -6 -4 0 -1)
1969-12-31 18:00:13.638759680,(-3 -14 3 -3 -2 5 -4 -1)
1969-12-31 18:00:13.638759680,(-1 -14 -16 -7 -5 1 -4 -2)
1969-12-31 18:00:13.651666872,(-4 1 2 -5 -7 0 -2 1)
1969-12-31 18:00:13.651666872,(5 -36 -30 -9 -8 -3 -6 -7)
1969-12-31 18:00:13.661347265,(-2 31 42 18 7 5 5 0)
1969-12-31 18:00:13.661347265,(-6 10 1 -1 0 -2 -2 -7)
1969-12-31 18:00:13.677481254,(-4 -12 -18 -6 -1 -4 -1 -2)
1969-12-31 18:00:13.677481254,(-3 12 6 9 4 4 4 0)
1969-12-31 18:00:13.679632452,(-6 -23 -12 -10 -6 -4 -4 -4)
1969-12-31 18:00:13.679632452,(9 23 0 -2 -5 -7 -2 -3)
1969-12-31 18:00:13.702220037,(-4 -18 -8 -6 -2 -2 0 -2)
1969-12-31 18:00:13.702220037,(0 10 1 0 -2 -3 0 2)
1969-12-31 18:00:13.703295636,(-4 -7 -2 -1 -4 -3 -4 -2)
1969-12-31 18:00:13.703295636,(-5 -24 -17 -13 -1 1 1 2)
1969-12-31 18:00:13.726958820,(6 -5 -11 -9 -7 2 -7 -2)
1969-12-31 18:00:13.726958820,(-1 26 13 4 2 5 -1 0)
1969-12-31 18:00:13.729110018,(-9 -11 -10 -4 -2 -4 0 -2)
1969-12-31 18:00:13.729110018,(0 9 10 11 7 -4 9 5)
1969-12-31 18:00:13.742017210,(3 13 -1 4 4 -10 3 8)
1969-12-31 18:00:13.742017210,(-4 -2 2 -4 0 -2 1 7)
1969-12-31 18:00:13.744168408,(-7 -5 -14 -15 -11 -4 -7 2)
1969-12-31 18:00:13.744168408,(15 3 2 1 -2 4 -6 -19)
1969-12-31 18:00:13.766755993,(-8 -6 5 1 -2 -2 -2 -2)
1969-12-31 18:00:13.766755993,(-11 -3 5 -5 -3 -5 -7 -8)
1969-12-31 18:00:13.767831592,(2 -4 -1 2 -1 0 -6 -5)
1969-12-31 18:00:13.767831592,(0 -8 4 0 -2 6 -6 0)
1969-12-31 18:00:13.790419176,(18 22 18 8 -4 6 -4 -3)
1969-12-31 18:00:13.790419176,(3 -2 13 10 1 0 -1 -5)
1969-12-31 18:00:13.792570375,(1 6 -2 2 1 0 1 -3)
1969-12-31 18:00:13.792570375,(6 -5 2 3 -1 1 2 2)
1969-12-31 18:00:13.807628765,(-4 0 7 4 1 5 1 0)
1969-12-31 18:00:13.807628765,(-4 -1 -5 -7 -6 -3 0 -1)
1969-12-31 18:00:13.808704364,(-7 -10 -6 -3 1 -1 -3 -3)
1969-12-31 18:00:13.808704364,(-4 -5 -10 -2 1 0 4 5)
1969-12-31 18:00:13.831291948,(-5 1 -4 -1 2 -1 2 -1)
1969-12-31 18:00:13.831291948,(0 6 8 0 1 -2 1 1)
1969-12-31 18:00:13.832367548,(10 -3 -6 -6 2 -2 2 2)
1969-12-31 18:00:13.832367548,(-12 -5 -4 -3 2 -3 0 -2)
1969-12-31 18:00:13.856030731,(-5 3 2 2 0 1 -1 -1)
1969-12-31 18:00:13.856030731,(4 4 -1 3 2 -1 0 1)
1969-12-31 18:00:13.857106331,(-1 -4 -3 1 0 0 -1 -2)
1969-12-31 18:00:13.857106331,(-7 -10 -9 -9 -5 -6 -2 -2)
1969-12-31 18:00:13.870013522,(-1 3 3 -1 -5 -4 0 -2)
1969-12-31 18:00:13.870013522,(3 3 3 2 3 5 1 0)
1969-12-31 18:00:13.877542717,(-2 -3 -3 -1 0 -1 0 -1)
1969-12-31 18:00:13.877542717,(-4 -6 -6 -4 -2 -1 -3 -1)
1969-12-31 18:00:13.894752305,(2 3 -3 -5 1 -4 -2 -1)
1969-12-31 18:00:13.894752305,(-1 -5 -7 -3 -2 -1 1 -2)
1969-12-31 18:00:13.896903503,(-1 0 2 -1 -2 -2 -2 -2)
1969-12-31 18:00:13.896903503,(-3 -4 1 -2 -1 0 -2 0)
1969-12-31 18:00:13.919491088,(-1 0 3 4 2 1 1 -1)
1969-12-31 18:00:13.919491088,(0 0 -3 -3 3 2 -1 0)
1969-12-31 18:00:13.921642286,(-2 -2 -5 -6 -3 -4 -1 -2)
1969-12-31 18:00:13.921642286,(-2 -2 -3 -4 -2 -1 0 2)
1969-12-31 18:00:13.934549478,(-4 -2 -6 -3 -1 0 -1 0)
1969-12-31 18:00:13.934549478,(-4 -3 -4 -1 -1 -2 -3 -1)
1969-12-31 18:00:13.942078672,(1 1 1 3 2 1 0 0)
1969-12-31 18:00:13.942078672,(-4 -3 0 4 1 -1 -2 -2)
1969-12-31 18:00:13.959288261,(0 1 5 5 1 4 1 0)
1969-12-31 18:00:13.959288261,(0 -2 1 -2 -2 -2 -2 -3)
1969-12-31 18:00:13.961439459,(-1 -2 -5 -3 -4 -1 -1 -1)
1969-12-31 18:00:13.961439459,(-2 -2 -3 -1 -1 -1 0 -1)
1969-12-31 18:00:13.992631838,(-3 -1 1 0 0 -1 0 0)
1969-12-31 18:00:13.992631838,(-1 -1 -5 -7 1 -1 1 0)
1969-12-31 18:00:13.994783036,(-2 -1 0 -6 -1 -3 0 1)
1969-12-31 18:00:13.994783036,(0 0 2 0 -1 2 -1 1)
1969-12-31 18:00:13.999085433,(-2 -3 -4 1 -1 -2 0 0)
1969-12-31 18:00:13.999085433,(-1 -2 -5 1 -3 -2 -2 -1)
1969-12-31 18:00:14.006614628,(-1 -3 -3 1 1 0 0 -3)
1969-12-31 18:00:14.006614628,(-1 -1 -2 2 0 -3 0 0)
1969-12-31 18:00:14.023824216,(0 0 2 -3 2 -2 0 0)
1969-12-31 18:00:14.023824216,(-1 1 3 2 -1 -1 0 1)
1969-12-31 18:00:14.025975415,(-4 -2 -7 -6 -1 -1 -4 -2)
1969-12-31 18:00:14.025975415,(-1 -1 0 -1 -3 0 0 -3)
1969-12-31 18:00:14.049638599,(0 -2 0 -1 -3 -2 -1 0)
1969-12-31 18:00:14.049638599,(0 -1 0 -2 -1 -3 -1 0)
1969-12-31 18:00:14.051789797,(0 -1 0 0 -3 -2 -1 1)
1969-12-31 18:00:14.051789797,(-2 -1 1 -2 0 -2 0 -1)
1969-12-31 18:00:14.063621389,(-1 -2 -2 -5 -3 -5 0 0)
1969-12-31 18:00:14.063621389,(-3 -3 -4 -1 1 1 -1 -2)
1969-12-31 18:00:14.073301782,(-2 -1 -1 1 -1 3 -1 0)
1969-12-31 18:00:14.073301782,(1 0 -2 2 -2 2 -1 2)
1969-12-31 18:00:14.089435771,(0 -1 0 0 0 2 0 0)
1969-12-31 18:00:14.089435771,(0 1 1 -3 -1 -1 -1 1)
1969-12-31 18:00:14.103418562,(-2 -1 1 0 -1 -1 2 -3)
1969-12-31 18:00:14.103418562,(0 -3 0 -1 -1 1 -2 -2)
1969-12-31 18:00:14.113098955,(-3 -1 -1 0 2 0 -2 -2)
1969-12-31 18:00:14.113098955,(0 -2 -3 0 -3 -3 -1 -2)
1969-12-31 18:00:14.114174554,(-1 -2 -4 -3 -4 -2 1 -2)
1969-12-31 18:00:14.114174554,(-1 -1 0 -3 -1 0 0 -2)
1969-12-31 18:00:14.128157345,(0 -1 -2 -2 -3 2 -2 -2)
1969-12-31 18:00:14.128157345,(-1 -2 -2 -3 -1 -1 -2 -2)
1969-12-31 18:00:14.135686540,(-3 -1 -1 1 1 -3 -2 -1)
1969-12-31 18:00:14.135686540,(-1 -1 -4 -3 -2 -4 -4 -2)
1969-12-31 18:00:14.153971727,(0 -2 -1 2 1 -4 -2 1)
1969-12-31 18:00:14.153971727,(0 -2 -2 -3 1 -4 0 -2)
1969-12-31 18:00:14.155047326,(0 0 1 0 -3 1 0 -2)
1969-12-31 18:00:14.155047326,(1 2 3 6 1 0 1 1)
1969-12-31 18:00:14.177634911,(-3 0 -2 -2 -4 -1 0 -1)
1969-12-31 18:00:14.177634911,(0 1 5 6 -1 2 -1 1)
1969-12-31 18:00:14.179786109,(0 -1 1 1 1 1 -2 2)
1969-12-31 18:00:14.179786109,(-3 -2 -2 -6 0 1 -1 -2)
1969-12-31 18:00:14.192693301,(-1 0 -3 -3 0 0 -1 0)
1969-12-31 18:00:14.192693301,(-2 -4 -5 -8 -3 -2 -1 -2)
1969-12-31 18:00:14.200222495,(-1 -2 -4 0 -4 -2 -1 -2)
1969-12-31 18:00:14.200222495,(-2 0 1 2 1 -3 0 -1)
1969-12-31 18:00:14.226036878,(-2 -2 -2 -4 -2 -4 -2 -2)
1969-12-31 18:00:14.226036878,(0 1 1 0 0 -2 0 1)
1969-12-31 18:00:14.228188076,(-1 -1 0 -2 2 -2 -3 1)
1969-12-31 18:00:14.228188076,(-1 -1 0 -1 -2 -2 -1 0)
1969-12-31 18:00:14.242170867,(0 -1 0 1 -1 3 -2 -2)
1969-12-31 18:00:14.242170867,(0 1 3 2 -2 4 3 -2)
1969-12-31 18:00:14.248624462,(-2 -3 -4 -2 -2 0 -1 -2)
1969-12-31 18:00:14.248624462,(-2 -5 -4 0 -1 -4 -3 -1)
1969-12-31 18:00:14.257229256,(-2 -2 1 1 0 -4 -1 0)
1969-12-31 18:00:14.257229256,(-1 -3 -2 -1 1 0 -5 -2)
1969-12-31 18:00:14.264758450,(0 1 -5 -1 4 0 -1 -1)
1969-12-31 18:00:14.264758450,(-2 0 -2 -3 -1 -2 1 -1)
1969-12-31 18:00:14.290572833,(-2 -2 -3 -2 -3 -3 0 -1)
1969-12-31 18:00:14.290572833,(-3 -3 -5 -5 -4 -6 2 -1)
1969-12-31 18:00:14.299177628,(-1 1 1 0 -1 -2 0 -1)
1969-12-31 18:00:14.299177628,(0 1 -1 0 -3 -1 -3 1)
1969-12-31 18:00:14.306706822,(-1 -1 -1 0 -2 3 1 1)
1969-12-31 18:00:14.306706822,(-2 1 2 5 4 0 -2 3)
1969-12-31 18:00:14.308858021,(0 -1 1 -5 0 -2 -1 -1)
1969-12-31 18:00:14.308858021,(1 -2 -2 -4 0 0 2 -2)
1969-12-31 18:00:14.321765212,(0 1 0 -1 0 0 -1 -1)
1969-12-31 18:00:14.321765212,(-2 -3 -3 -5 -3 -2 -3 -1)
1969-12-31 18:00:14.330370006,(-1 -4 -6 -1 -1 -2 -1 -2)
1969-12-31 18:00:14.331445605,(-5 -3 -6 -4 2 -2 1 -2)
1969-12-31 18:00:14.346503995,(-3 0 -1 2 0 -2 1 -1)
1969-12-31 18:00:14.346503995,(-2 -1 -1 0 -1 -1 -2 -2)
1969-12-31 18:00:14.348655194,(1 1 3 1 -3 0 -2 -1)
1969-12-31 18:00:14.348655194,(0 -1 3 -1 -3 2 -4 0)
1969-12-31 18:00:14.371242778,(2 2 5 -1 -2 3 -1 1)
1969-12-31 18:00:14.371242778,(-2 -5 0 -2 -3 0 -1 -4)
1969-12-31 18:00:14.373393977,(-3 -4 -1 -2 -1 1 -1 -4)
1969-12-31 18:00:14.373393977,(-1 -1 -2 -5 -3 0 -1 -3)
1969-12-31 18:00:14.386301168,(0 -2 -4 1 1 -2 -2 -1)
1969-12-31 18:00:14.386301168,(1 1 -3 2 -1 0 -1 0)
1969-12-31 18:00:14.395981561,(0 -1 1 -2 -2 -1 -2 -1)
1969-12-31 18:00:14.395981561,(-1 -1 -2 -5 1 -3 -1 -1)
1969-12-31 18:00:14.411039951,(-2 0 0 6 1 -3 1 1)
1969-12-31 18:00:14.411039951,(-2 0 -3 -3 -7 1 0 0)
1969-12-31 18:00:14.413191149,(-1 -2 0 -2 4 -2 -1 -2)
1969-12-31 18:00:14.413191149,(1 4 5 12 2 3 0 -1)
1969-12-31 18:00:14.413191149,(-1 3 0 16 11 9 3 1)
1969-12-31 18:00:14.413191149,(-1 0 1 9 4 3 1 2)
1969-12-31 18:00:14.421795943,(-1 -7 -5 -9 -7 -1 4 -1)
1969-12-31 18:00:14.421795943,(-2 -2 -5 -7 -1 -2 -2 -1)
1969-12-31 18:00:14.423947142,(-3 -3 7 -8 -18 -11 -8 -4)
1969-12-31 18:00:14.423947142,(-2 -2 -3 -6 1 4 3 -1)
1969-12-31 18:00:14.447610326,(1 2 6 26 21 -1 -11 -2)
1969-12-31 18:00:14.447610326,(-2 -6 -9 -18 -20 3 -2 -2)
1969-12-31 18:00:14.448685925,(-1 -3 -13 -4 4 0 1 -1)
1969-12-31 18:00:14.448685925,(1 6 8 8 -6 1 -3 -3)
1969-12-31 18:00:14.461593116,(-2 0 2 -5 -18 1 5 0)
1969-12-31 18:00:14.461593116,(-1 1 2 7 23 1 2 0)
1969-12-31 18:00:14.471273510,(-1 -3 -4 -16 -8 -7 -1 -1)
1969-12-31 18:00:14.471273510,(0 -2 -5 -7 -11 -5 -2 -1)
1969-12-31 18:00:14.494936693,(-1 -2 0 4 12 1 2 0)
1969-12-31 18:00:14.494936693,(-5 -8 -14 -14 -9 -1 -2 -3)
1969-12-31 18:00:14.497087892,(0 4 -4 -11 -3 -2 -2 0)
1969-12-31 18:00:14.497087892,(-4 -5 13 17 1 -5 1 4)
1969-12-31 18:00:14.509995083,(-2 -5 -29 -60 -26 -11 -2 -8)
1969-12-31 18:00:14.509995083,(3 9 31 47 28 4 5 8)
1969-12-31 18:00:14.519675476,(5 7 16 39 4 6 -8 -3)
1969-12-31 18:00:14.519675476,(-3 -7 -12 -5 4 0 4 8)
1969-12-31 18:00:14.535809465,(-3 -1 -4 3 2 -2 -5 -1)
1969-12-31 18:00:14.535809465,(-7 -20 -59 -63 -19 -2 11 1)
1969-12-31 18:00:14.536885065,(5 11 21 14 -8 -6 -7 -2)
1969-12-31 18:00:14.536885065,(11 18 49 51 27 14 10 15)
1969-12-31 18:00:14.559472649,(-2 -1 -13 -4 2 2 -4 -5)
1969-12-31 18:00:14.559472649,(0 4 45 10 -1 1 -6 -11)
1969-12-31 18:00:14.561623848,(0 -6 -24 -14 -1 4 0 -3)
1969-12-31 18:00:14.561623848,(-4 -9 -18 -26 -16 -4 -6 -13)
1969-12-31 18:00:14.574531039,(2 2 12 4 0 2 2 1)
1969-12-31 18:00:14.574531039,(-3 1 -13 2 -5 2 -15 -20)
1969-12-31 18:00:14.584211432,(0 -5 2 -7 -6 6 3 5)
1969-12-31 18:00:14.584211432,(1 3 18 15 1 -1 -9 -12)
1969-12-31 18:00:14.599269822,(2 4 0 6 5 0 -6 -11)
1969-12-31 18:00:14.599269822,(-2 2 0 6 -7 -7 -8 -8)
1969-12-31 18:00:14.606799017,(-2 0 2 -5 3 -4 4 5)
1969-12-31 18:00:14.606799017,(-4 -8 -26 -36 -16 -14 -2 0)
1969-12-31 18:00:14.624008605,(-6 -7 -10 -7 0 -5 7 9)
1969-12-31 18:00:14.624008605,(-2 -4 -8 4 10 0 8 20)
1969-12-31 18:00:14.625084204,(2 10 10 22 9 2 5 5)
1969-12-31 18:00:14.625084204,(-5 -1 -17 -30 -10 -4 -3 -5)
1969-12-31 18:00:14.639066994,(1 1 8 21 14 4 6 10)
1969-12-31 18:00:14.639066994,(-1 -2 3 2 14 4 1 1)
1969-12-31 18:00:14.648747388,(-6 -15 -21 -73 -37 -17 -1 0)
1969-12-31 18:00:14.648747388,(1 6 13 60 27 15 -8 -14)
1969-12-31 18:00:14.664881377,(-2 -2 7 33 64 10 3 4)
1969-12-31 18:00:14.664881377,(-4 3 -7 -6 1 -9 -12 -19)
1969-12-31 18:00:14.665956976,(0 -1 -3 9 -1 -3 -4 -7)
1969-12-31 18:00:14.665956976,(-1 -4 -11 -21 -20 -5 1 6)
1969-12-31 18:00:14.688544561,(2 -2 3 -10 -9 -5 -6 -1)
1969-12-31 18:00:14.688544561,(0 -3 3 -10 -25 2 2 6)
1969-12-31 18:00:14.690695759,(-4 -6 -1 1 6 -2 -2 -2)
1969-12-31 18:00:14.690695759,(-2 0 -6 -22 -11 -4 -2 -3)
1969-12-31 18:00:14.703602950,(1 3 5 9 -16 1 5 3)
1969-12-31 18:00:14.703602950,(0 1 -1 11 6 3 3 5)
1969-12-31 18:00:14.713283344,(-3 -5 -9 -9 -22 -2 0 -1)
1969-12-31 18:00:14.713283344,(2 2 1 20 9 0 0 -1)
1969-12-31 18:00:14.729417333,(-2 -1 4 -4 -3 3 0 -2)
1969-12-31 18:00:14.729417333,(1 3 13 11 2 2 -1 -2)
1969-12-31 18:00:14.730492932,(-2 -2 2 5 11 8 2 3)
1969-12-31 18:00:14.730492932,(-4 -3 -6 -12 -4 2 2 5)
1969-12-31 18:00:14.753080516,(-4 -1 1 -10 -13 3 -4 -4)
1969-12-31 18:00:14.753080516,(5 2 0 -3 -7 -4 -4 -6)
1969-12-31 18:00:14.755231715,(-2 -1 3 10 11 0 0 -3)
1969-12-31 18:00:14.755231715,(-1 -4 -3 -8 -2 -8 1 0)
1969-12-31 18:00:14.768138906,(0 -2 1 -5 -13 -4 -3 -3)
1969-12-31 18:00:14.768138906,(-1 -3 -2 -5 1 0 3 6)
1969-12-31 18:00:14.777819299,(0 6 6 1 5 0 -1 0)
1969-12-31 18:00:14.777819299,(1 -1 -4 -5 3 -2 -3 -4)
1969-12-31 18:00:14.792877689,(2 -2 -7 -6 -10 -4 -5 -2)
1969-12-31 18:00:14.792877689,(-3 -5 2 3 -6 0 0 3)
1969-12-31 18:00:14.795028888,(0 -3 -1 6 4 -1 -3 -6)
1969-12-31 18:00:14.795028888,(-2 -11 -5 -4 -1 -1 -1 1)
1969-12-31 18:00:14.817616472,(0 20 13 3 -1 -1 1 -2)
1969-12-31 18:00:14.817616472,(5 8 1 1 -1 -2 2 -1)
1969-12-31 18:00:14.819767671,(-2 -4 -11 -1 3 0 -2 -2)
1969-12-31 18:00:14.819767671,(-7 -13 -2 -6 -1 0 0 -2)
1969-12-31 18:00:14.832674862,(-1 -7 -6 -4 -8 -7 -6 -4)
1969-12-31 18:00:14.832674862,(-7 -7 -13 -6 -4 -3 13 11)
1969-12-31 18:00:14.842355255,(-1 5 2 3 3 -5 -2 -2)
1969-12-31 18:00:14.842355255,(-3 -8 -7 -1 1 -5 1 4)
1969-12-31 18:00:14.858489244,(5 5 -6 -3 -6 -3 -1 0)
1969-12-31 18:00:14.858489244,(-6 -10 -6 -5 -3 -8 9 9)
1969-12-31 18:00:14.860640443,(-1 0 -10 -2 6 -9 0 6)
1969-12-31 18:00:14.860640443,(-1 1 -11 -6 0 -6 2 8)
1969-12-31 18:00:14.882152428,(-13 -3 -8 -5 -2 -5 5 4)
1969-12-31 18:00:14.882152428,(11 2 -6 -1 0 -2 7 20)
1969-12-31 18:00:14.884303626,(-10 -16 -10 -5 -4 2 -2 -4)
1969-12-31 18:00:14.884303626,(-1 4 -1 -8 -5 0 -4 2)
1969-12-31 18:00:14.897210817,(12 4 -1 0 0 1 -6 -5)
1969-12-31 18:00:14.897210817,(2 1 9 3 -6 3 -11 -24)
1969-12-31 18:00:14.914420406,(-15 -12 12 0 -5 8 -8 -6)
1969-12-31 18:00:14.914420406,(-36 -8 16 0 -10 10 -16 -36)
1969-12-31 18:00:14.923025200,(1 2 24 6 -7 16 -8 -17)
1969-12-31 18:00:14.923025200,(17 10 17 7 1 9 -6 -8)
1969-12-31 18:00:14.924100799,(10 11 10 3 -3 3 -5 -6)
1969-12-31 18:00:14.924100799,(45 26 8 9 4 1 -5 7)
1969-12-31 18:00:14.946688384,(-22 -39 -22 -11 -9 -10 5 8)
1969-12-31 18:00:14.946688384,(-32 -13 -6 -4 -2 -7 -7 -22)
1969-12-31 18:00:14.947763983,(6 7 -3 4 1 -3 -4 -5)
1969-12-31 18:00:14.948839582,(-1 6 -7 -2 2 -4 0 -17)
1969-12-31 18:00:14.961746773,(33 10 0 1 6 6 18 58)
1969-12-31 18:00:14.961746773,(-37 -15 -4 -4 0 5 -15 -62)
1969-12-31 18:00:14.971427167,(38 5 -1 -7 2 -9 6 47)
1969-12-31 18:00:14.971427167,(-26 -6 -8 -13 -6 -8 -18 -57)
1969-12-31 18:00:14.986485556,(36 15 1 -1 2 18 -8 30)
1969-12-31 18:00:14.986485556,(-14 -5 0 -3 -8 -15 16 19)
1969-12-31 18:00:14.988636755,(-13 1 0 4 3 -4 -3 -50)
1969-12-31 18:00:14.988636755,(-43 -29 -16 -7 -11 -40 -5 0)
1969-12-31 18:00:15.011224339,(-4 3 -2 2 3 20 -35 -52)
1969-12-31 18:00:15.011224339,(35 26 4 -2 7 47 33 49)
1969-12-31 18:00:15.013375538,(-31 -7 -4 10 1 -42 -35 -32)
1969-12-31 18:00:15.013375538,(33 11 15 10 14 15 15 49)
1969-12-31 18:00:15.026282729,(-70 -24 -12 -9 -4 16 -25 -68)
1969-12-31 18:00:15.026282729,(-15 -23 -21 -12 -26 -38 -25 -28)
1969-12-31 18:00:15.035963122,(65 21 -3 -3 8 -17 30 64)
1969-12-31 18:00:15.035963122,(27 13 4 -7 -20 -37 17 15)
1969-12-31 18:00:15.051021512,(-40 -22 2 9 12 42 4 5)
1969-12-31 18:00:15.051021512,(58 46 16 13 8 9 -1 29)
1969-12-31 18:00:15.058550707,(-33 -29 -6 -3 -10 37 1 -40)
1969-12-31 18:00:15.058550707,(-3 -1 -4 6 9 9 -3 32)
1969-12-31 18:00:15.075760295,(42 9 -1 -7 -11 -14 15 7)
1969-12-31 18:00:15.075760295,(-22 -9 -4 -5 -4 -6 13 -6)
1969-12-31 18:00:15.077911494,(23 27 9 2 4 -9 4 32)
1969-12-31 18:00:15.077911494,(-39 -38 -12 -8 -8 38 4 -21)
1969-12-31 18:00:15.090818685,(-11 -16 -5 -2 -4 1 -6 -30)
1969-12-31 18:00:15.090818685,(-25 -20 -12 -9 -5 -28 -27 -36)
1969-12-31 18:00:15.099423479,(-17 8 9 1 6 7 -5 -29)
1969-12-31 18:00:15.099423479,(18 20 7 2 3 -3 20 20)
1969-12-31 18:00:15.115557468,(8 -19 -15 -1 9 17 9 60)
1969-12-31 18:00:15.115557468,(-26 0 -3 -12 -16 -61 11 7)
1969-12-31 18:00:15.123086663,(-1 6 1 3 -2 28 5 2)
1969-12-31 18:00:15.123086663,(-58 -33 -11 -3 -6 -37 -55 -24)
1969-12-31 18:00:15.140296251,(86 45 20 15 17 -23 -14 12)
1969-12-31 18:00:15.140296251,(25 5 7 7 12 36 20 11)
1969-12-31 18:00:15.141371850,(0 4 -2 -10 -7 -8 13 15)
1969-12-31 18:00:15.141371850,(-5 10 0 -1 1 -34 3 -3)
1969-12-31 18:00:15.163959435,(-29 -8 1 -3 -8 50 31 5)
1969-12-31 18:00:15.163959435,(17 -7 -1 1 0 -2 -42 -27)
1969-12-31 18:00:15.166110633,(-4 -23 -9 -6 -8 -4 15 48)
1969-12-31 18:00:15.166110633,(66 58 19 15 15 29 -10 -10)
1969-12-31 18:00:15.179017824,(-21 -12 -12 -15 -16 -59 14 -21)
1969-12-31 18:00:15.179017824,(11 15 7 7 10 19 -18 5)
1969-12-31 18:00:15.188698218,(-2 -23 4 5 10 7 26 30)
1969-12-31 18:00:15.188698218,(-24 -2 -9 -5 -7 9 -25 -54)
1969-12-31 18:00:15.204832207,(-22 -6 4 -3 -6 -28 -11 2)
1969-12-31 18:00:15.204832207,(39 14 5 5 7 14 9 12)
1969-12-31 18:00:15.206983405,(-37 -9 -8 -7 -6 -16 -17 -40)
1969-12-31 18:00:15.206983405,(3 0 1 -2 5 32 -6 42)
1969-12-31 18:00:15.229570990,(-12 9 4 -3 -15 -20 38 -23)
1969-12-31 18:00:15.229570990,(-3 -16 -4 4 3 -33 -11 30)
1969-12-31 18:00:15.230646589,(-17 -3 -2 4 7 52 -16 -78)
1969-12-31 18:00:15.230646589,(34 9 1 0 0 -18 19 35)
1969-12-31 18:00:15.244629379,(-3 -18 -6 3 7 0 -9 2)
1969-12-31 18:00:15.244629379,(-27 -18 -9 -7 -7 0 -5 -7)
1969-12-31 18:00:15.251082975,(10 14 6 4 4 -3 3 25)
1969-12-31 18:00:15.251082975,(-26 -12 -2 0 4 22 1 -50)
1969-12-31 18:00:15.269368162,(11 15 1 -4 -5 -22 -2 -23)
1969-12-31 18:00:15.269368162,(-40 -19 -7 -6 -3 9 -18 -15)
1969-12-31 18:00:15.271519360,(-1 15 8 2 -2 -6 -17 -1)
1969-12-31 18:00:15.271519360,(40 13 -1 -3 -9 -21 3 34)
1969-12-31 18:00:15.293031346,(-87 -51 -8 -4 1 -12 -10 -36)
1969-12-31 18:00:15.293031346,(46 30 16 12 18 30 26 26)
1969-12-31 18:00:15.295182545,(-73 -36 -23 -17 -10 39 -41 -59)
1969-12-31 18:00:15.295182545,(6 13 7 1 -1 -1 -6 13)
1969-12-31 18:00:15.309165335,(50 40 21 16 6 3 24 73)
1969-12-31 18:00:15.309165335,(-59 -40 -20 -11 -10 -17 -38 -80)
1969-12-31 18:00:15.316694530,(19 11 2 2 -4 -18 14 45)
1969-12-31 18:00:15.316694530,(12 2 1 3 8 20 24 19)
1969-12-31 18:00:15.333904118,(-62 -31 -15 -11 -9 -26 -37 -58)
1969-12-31 18:00:15.333904118,(43 21 13 9 12 28 35 63)
1969-12-31 18:00:15.336055317,(19 4 -3 -3 -3 -21 -2 -12)
1969-12-31 18:00:15.336055317,(-14 1 -3 -5 -2 15 -4 -29)
1969-12-31 18:00:15.358642901,(-35 -38 -18 -14 -14 -25 -24 -46)
1969-12-31 18:00:15.358642901,(27 43 10 0 -2 -1 32 39)
1969-12-31 18:00:15.359718500,(23 -29 -11 -3 0 1 20 33)
1969-12-31 18:00:15.359718500,(-4 12 16 14 14 6 -5 8)
1969-12-31 18:00:15.373701291,(-61 -10 -12 -5 -12 -9 -21 -37)
1969-12-31 18:00:15.373701291,(24 6 3 6 6 10 10 41)
1969-12-31 18:00:15.381230486,(31 36 9 -1 -2 0 18 28)
1969-12-31 18:00:15.381230486,(-18 -29 -2 -2 -1 -22 -44 -76)
1969-12-31 18:00:15.399515673,(35 -17 -3 -1 9 19 -7 63)
1969-12-31 18:00:15.399515673,(-3 4 -8 -10 -18 -39 18 -21)
1969-12-31 18:00:15.404893669,(-7 12 7 4 6 35 4 18)
1969-12-31 18:00:15.404893669,(64 15 2 3 14 48 77 127)
1969-12-31 18:00:15.422103258,(0 -3 -7 -7 -14 -34 -33 -59)
1969-12-31 18:00:15.422103258,(-14 5 4 10 3 -1 15 25)
1969-12-31 18:00:15.424254456,(56 44 14 13 4 -13 -11 -3)
1969-12-31 18:00:15.424254456,(-60 -62 -15 -5 1 15 12 -20)
1969-12-31 18:00:15.437161647,(37 18 -4 -10 -12 9 17 -5)
1969-12-31 18:00:15.437161647,(13 0 3 -1 5 2 10 13)
1969-12-31 18:00:15.446842041,(-19 -11 -6 -4 1 -9 0 -49)
1969-12-31 18:00:15.446842041,(31 28 7 5 -4 -66 -16 0)
1969-12-31 18:00:15.462976030,(8 23 13 12 14 40 38 13)
1969-12-31 18:00:15.462976030,(5 -11 -2 1 0 -5 -25 -25)
1969-12-31 18:00:15.464051629,(3 -6 -14 -17 -16 -21 -34 -3)
1969-12-31 18:00:15.464051629,(40 6 -1 -4 1 6 23 35)
1969-12-31 18:00:15.487714813,(1 -1 2 1 -2 -16 -5 17)
1969-12-31 18:00:15.487714813,(-9 -17 -4 0 7 15 -20 -34)
1969-12-31 18:00:15.488790412,(-3 -13 -7 3 3 -11 -13 -26)
1969-12-31 18:00:15.488790412,(-36 -9 -4 -5 -39 -17 0 -19)
1969-12-31 18:00:15.501697603,(30 20 3 2 10 8 -1 10)
1969-12-31 18:00:15.501697603,(-24 -14 -10 -7 -6 39 -7 -31)
1969-12-31 18:00:15.511377996,(12 5 9 6 -3 -61 6 24)
1969-12-31 18:00:15.511377996,(-50 -31 -15 -4 28 47 2 -41)
1969-12-31 18:00:15.527511985,(-31 17 3 -1 -11 15 -13 -33)
1969-12-31 18:00:15.527511985,(-10 4 1 -1 -9 -15 -6 -2)
1969-12-31 18:00:15.528587585,(-34 -28 -10 -6 9 24 1 -22)
1969-12-31 18:00:15.528587585,(-24 -41 -10 1 18 1 3 -4)
1969-12-31 18:00:15.552250768,(23 14 7 2 -17 7 15 30)
1969-12-31 18:00:15.552250768,(13 2 1 -14 -29 -35 -7 21)
1969-12-31 18:00:15.553326368,(-38 -3 -2 -4 -15 -2 -15 -18)
1969-12-31 18:00:15.553326368,(5 17 4 10 33 -2 -14 -12)
1969-12-31 18:00:15.566233559,(3 -1 -7 -4 -5 10 9 -17)
1969-12-31 18:00:15.566233559,(-8 -20 -5 2 11 6 -2 -26)
1969-12-31 18:00:15.575913952,(20 13 8 8 17 27 6 9)
1969-12-31 18:00:15.575913952,(-13 -13 -8 -7 21 0 -2 11)
1969-12-31 18:00:15.592047941,(48 34 11 -13 -86 -109 -23 34)
1969-12-31 18:00:15.592047941,(21 -1 6 19 73 85 28 36)
1969-12-31 18:00:15.593123540,(1 -6 -2 -5 29 1 5 3)
1969-12-31 18:00:15.594199140,(18 14 4 2 -42 -33 -26 -12)
1969-12-31 18:00:15.616786724,(8 5 -7 -20 -12 -12 -6 11)
1969-12-31 18:00:15.616786724,(6 18 1 -8 -37 -24 -9 1)
1969-12-31 18:00:15.617862323,(35 8 9 10 21 18 12 45)
1969-12-31 18:00:15.617862323,(-22 -22 -3 -2 2 9 5 -42)
1969-12-31 18:00:15.630769514,(7 -2 2 19 40 14 1 -9)
1969-12-31 18:00:15.630769514,(-33 -7 -5 -1 -5 -8 -14 -26)
1969-12-31 18:00:15.640449908,(-1 -8 -6 -3 -13 8 16 10)
1969-12-31 18:00:15.640449908,(22 26 -3 0 8 -4 -2 8)
1969-12-31 18:00:15.656583897,(-16 -17 -5 -9 -34 -19 -11 6)
1969-12-31 18:00:15.656583897,(7 22 16 6 32 26 -9 -8)
1969-12-31 18:00:15.658735095,(-42 -42 -16 -12 -54 -58 -22 -62)
1969-12-31 18:00:15.658735095,(-15 3 2 -17 -52 -31 -2 1)
1969-12-31 18:00:15.680247081,(-23 -25 -19 5 74 46 35 74)
1969-12-31 18:00:15.680247081,(15 13 2 11 -11 -22 -13 13)
1969-12-31 18:00:15.682398279,(-3 -20 -7 -22 -25 16 21 25)
1969-12-31 18:00:15.682398279,(17 -7 -9 -6 -4 -2 -3 -16)
1969-12-31 18:00:15.695305470,(54 25 0 2 3 20 7 5)
1969-12-31 18:00:15.695305470,(-33 -14 -4 -4 7 -4 -2 -21)
1969-12-31 18:00:15.711439459,(-36 2 23 19 11 -10 -23 -14)
1969-12-31 18:00:15.711439459,(18 5 26 -4 -32 -7 0 46)
1969-12-31 18:00:15.721119852,(20 26 -12 -3 28 12 11 2)
1969-12-31 18:00:15.721119852,(-12 -46 -17 -15 -20 -28 -8 -4)
1969-12-31 18:00:15.723271051,(-3 32 -5 22 72 63 20 -3)
1969-12-31 18:00:15.723271051,(36 1 -11 -20 -75 -47 -13 22)
1969-12-31 18:00:15.745858636,(1 -14 2 5 -2 -7 6 47)
1969-12-31 18:00:15.745858636,(-30 -49 -55 -23 -27 -22 -11 -64)
1969-12-31 18:00:15.746934235,(-12 40 59 35 54 41 16 44)
1969-12-31 18:00:15.746934235,(-31 71 53 20 33 10 -11 -79)
1969-12-31 18:00:15.759841426,(14 -22 -2 -5 -6 4 6 29)
1969-12-31 18:00:15.759841426,(-26 -36 -20 -20 -54 -52 -52 -33)
1969-12-31 18:00:15.769521819,(18 -55 -63 -24 -13 5 28 10)
1969-12-31 18:00:15.769521819,(5 -53 -87 -27 38 26 6 23)
1969-12-31 18:00:15.785655808,(-42 32 61 23 0 -17 -35 -49)
1969-12-31 18:00:15.785655808,(9 0 -8 7 21 32 63 70)
1969-12-31 18:00:15.787807007,(13 32 19 10 28 -22 -19 -28)
1969-12-31 18:00:15.787807007,(-50 69 98 31 2 29 -26 -50)
1969-12-31 18:00:15.810394591,(-19 -50 -48 -22 -42 8 2 -14)
1969-12-31 18:00:15.810394591,(16 -71 -63 -10 -3 -16 -4 33)
1969-12-31 18:00:15.811470191,(21 57 37 -14 -48 -58 -42 6)
1969-12-31 18:00:15.811470191,(-13 -44 -56 -16 7 14 13 37)
1969-12-31 18:00:15.824377382,(1 -53 -25 15 13 -17 -9 -33)
1969-12-31 18:00:15.824377382,(-20 100 88 15 4 10 1 -25)
1969-12-31 18:00:15.834057775,(2 -60 -67 -25 -34 -21 3 -10)
1969-12-31 18:00:15.834057775,(-22 -20 -27 -15 -10 -5 -17 -29)
1969-12-31 18:00:15.850191764,(52 86 77 37 68 83 60 40)
1969-12-31 18:00:15.850191764,(16 -13 -7 -3 -13 -25 -41 -15)
1969-12-31 18:00:15.851267363,(29 -35 -42 -2 -18 -18 9 46)
1969-12-31 18:00:15.851267363,(15 27 27 -2 -4 -2 -7 -11)
1969-12-31 18:00:15.874930547,(-26 -32 -19 -4 32 22 13 13)
1969-12-31 18:00:15.874930547,(12 95 40 16 -7 -8 9 12)
1969-12-31 18:00:15.876006146,(49 23 33 25 41 15 -5 18)
1969-12-31 18:00:15.876006146,(20 59 60 19 -64 -19 -16 14)
1969-12-31 18:00:15.888913336,(-25 -8 -17 -9 30 5 19 29)
1969-12-31 18:00:15.888913336,(-25 -36 19 -10 -36 -14 -4 -39)
1969-12-31 18:00:15.898593731,(-59 -117 -104 -43 -35 -29 -23 -55)
1969-12-31 18:00:15.898593731,(54 32 -29 -14 38 21 32 64)
1969-12-31 18:00:15.914727720,(-29 31 63 31 25 18 0 -8)
1969-12-31 18:00:15.914727720,(-24 -12 -33 -12 49 33 -10 -22)
1969-12-31 18:00:15.916878918,(-7 18 33 5 -72 -27 -12 -21)
1969-12-31 18:00:15.916878918,(23 -115 -67 -16 19 -3 18 -34)
1969-12-31 18:00:15.940542102,(35 41 -62 -47 -55 -44 -52 6)
1969-12-31 18:00:15.940542102,(1 66 71 26 35 16 8 35)
1969-12-31 18:00:15.942693301,(-24 -94 -57 -7 22 36 19 -47)
1969-12-31 18:00:15.942693301,(-14 127 66 12 23 10 -29 -1)
1969-12-31 18:00:15.953449293,(24 -7 -21 9 -53 -43 15 56)
1969-12-31 18:00:15.953449293,(5 -50 -52 -33 -33 -13 -2 -17)
1969-12-31 18:00:15.971734481,(17 16 43 21 28 4 -5 -3)
1969-12-31 18:00:15.971734481,(-24 -128 -127 -32 27 25 39 37)
1969-12-31 18:00:15.979263675,(-21 54 66 17 -23 -1 -28 -90)
1969-12-31 18:00:15.979263675,(16 110 72 17 -15 -15 19 23)
1969-12-31 18:00:15.981414874,(-6 18 16 -2 -10 0 -9 31)
1969-12-31 18:00:15.981414874,(-28 -71 -29 -7 -1 -10 6 -27)
1969-12-31 18:00:16.004002459,(-5 -75 -59 -13 41 28 -9 4)
1969-12-31 18:00:16.004002459,(12 -2 -21 -2 -27 -16 27 19)
1969-12-31 18:00:16.005078058,(8 69 41 5 1 -3 -10 2)
1969-12-31 18:00:16.005078058,(32 -111 -97 -14 31 13 -14 15)
1969-12-31 18:00:16.017985248,(-3 85 53 17 -13 -25 -8 -26)
1969-12-31 18:00:16.017985248,(-9 -87 -77 22 31 -8 -25 70)
1969-12-31 18:00:16.034119238,(-40 30 -6 -31 -51 18 3 -23)
1969-12-31 18:00:16.034119238,(5 36 7 -11 -90 -67 -12 -29)
1969-12-31 18:00:16.042724032,(-10 -45 -27 -33 -4 -6 3 -20)
1969-12-31 18:00:16.042724032,(26 -29 2 12 60 36 16 13)
1969-12-31 18:00:16.050253227,(-33 -24 13 32 31 6 -20 -26)
1969-12-31 18:00:16.050253227,(23 36 20 6 23 28 32 45)
1969-12-31 18:00:16.068538414,(-65 1 13 -20 -33 -8 -6 -47)
1969-12-31 18:00:16.068538414,(-2 -27 -37 -8 43 12 -21 -58)
1969-12-31 18:00:16.069614014,(12 -24 -18 -13 -48 -16 6 40)
1969-12-31 18:00:16.069614014,(9 9 34 46 35 20 23 4)
1969-12-31 18:00:16.082521205,(4 -107 -119 -61 -23 5 9 -25)
1969-12-31 18:00:16.082521205,(-4 105 112 41 -20 -37 -29 -49)
1969-12-31 18:00:16.092201598,(27 -63 -42 -19 12 14 22 49)
1969-12-31 18:00:16.092201598,(19 12 8 29 26 8 2 4)
1969-12-31 18:00:16.108335587,(4 77 84 57 52 13 -16 1)
1969-12-31 18:00:16.108335587,(8 -68 -26 -27 -22 26 39 21)
1969-12-31 18:00:16.114789183,(-21 68 2 -13 15 6 -1 -5)
1969-12-31 18:00:16.114789183,(0 -16 -15 1 -26 -11 -5 -3)
1969-12-31 18:00:16.133074370,(24 -103 -60 -15 -18 0 13 44)
1969-12-31 18:00:16.133074370,(20 -24 -20 -23 -42 -30 3 21)
1969-12-31 18:00:16.134149969,(5 98 104 62 55 14 8 -29)
1969-12-31 18:00:16.134149969,(30 -18 -28 -21 24 59 7 30)
1969-12-31 18:00:16.156737554,(-33 -66 -55 -13 -2 -33 -19 -26)
1969-12-31 18:00:16.156737554,(18 94 59 40 35 42 58 48)
1969-12-31 18:00:16.157813153,(-36 -17 -11 -24 -41 -30 -17 -55)
1969-12-31 18:00:16.158888752,(-18 -11 -1 -12 -19 -23 25 1)
1969-12-31 18:00:16.172871543,(87 -11 -13 3 12 2 -33 34)
1969-12-31 18:00:16.172871543,(10 24 15 9 16 8 -2 -18)
1969-12-31 18:00:16.179325138,(-34 -91 -76 -23 1 13 -5 14)
1969-12-31 18:00:16.179325138,(-53 36 33 -20 -25 -27 -27 -39)
1969-12-31 18:00:16.197610326,(13 50 4 12 19 20 33 27)
1969-12-31 18:00:16.197610326,(-6 -51 -39 -14 -19 -13 -27 -13)
1969-12-31 18:00:16.199761524,(50 92 34 19 47 25 24 36)
1969-12-31 18:00:16.199761524,(-49 2 58 38 -21 -9 9 0)
1969-12-31 18:00:16.221273510,(5 15 28 -14 -66 -39 6 4)
1969-12-31 18:00:16.221273510,(10 28 0 -12 -24 -63 -59 -34)
1969-12-31 18:00:16.223424708,(-69 -107 -54 -13 22 37 7 -67)
1969-12-31 18:00:16.223424708,(-7 -21 -16 -2 23 -41 -37 -27)
1969-12-31 18:00:16.236331899,(6 54 20 3 13 41 -21 13)
1969-12-31 18:00:16.236331899,(3 -120 -87 -25 -19 -1 21 28)
1969-12-31 18:00:16.243861094,(15 47 2 -39 -124 -94 -37 -8)
1969-12-31 18:00:16.243861094,(1 126 103 45 31 37 13 -18)
1969-12-31 18:00:16.262146281,(-21 -14 27 36 35 19 4 6)
1969-12-31 18:00:16.262146281,(6 -101 -70 -37 18 28 3 -15)
1969-12-31 18:00:16.263221881,(14 -79 -71 -10 40 2 3 23)
1969-12-31 18:00:16.263221881,(-11 1 -14 16 18 -4 -47 -24)
1969-12-31 18:00:16.285809465,(2 62 64 7 -49 -41 8 -8)
1969-12-31 18:00:16.285809465,(-18 72 55 10 -2 36 4 -1)
1969-12-31 18:00:16.287960664,(43 6 6 -3 21 7 12 45)
1969-12-31 18:00:16.287960664,(-54 -4 3 2 -14 -16 13 -13)
1969-12-31 18:00:16.300867855,(6 -80 -64 -10 -32 -41 -25 -23)
1969-12-31 18:00:16.300867855,(-46 25 5 18 94 67 8 -30)
1969-12-31 18:00:16.308397050,(13 -1 24 14 -25 -9 7 -26)
1969-12-31 18:00:16.308397050,(65 -10 -38 -18 -11 9 30 90)
1969-12-31 18:00:16.325606638,(-13 81 72 26 30 18 12 -7)
1969-12-31 18:00:16.325606638,(-39 -86 -64 -10 38 31 4 -8)
1969-12-31 18:00:16.326682237,(-16 51 37 -3 -56 -66 -16 -12)
1969-12-31 18:00:16.326682237,(7 -54 -61 -46 -68 -46 -24 -11)
1969-12-31 18:00:16.349269822,(-9 -55 -68 -7 51 36 -6 -17)
1969-12-31 18:00:16.349269822,(42 127 127 45 11 -6 26 51)
1969-12-31 18:00:16.350345421,(62 11 12 25 35 22 11 36)
1969-12-31 18:00:16.350345421,(-11 -71 -12 -6 4 -4 -19 -23)
1969-12-31 18:00:16.365403811,(43 13 -9 -28 -48 -14 20 46)
1969-12-31 18:00:16.365403811,(-49 -9 -10 3 -20 -31 -22 -50)
1969-12-31 18:00:16.372933006,(1 -43 -21 -9 38 36 19 2)
1969-12-31 18:00:16.372933006,(26 82 41 -5 -40 19 28 38)
1969-12-31 18:00:16.390142594,(-43 -64 -16 0 26 -39 -34 -54)
1969-12-31 18:00:16.390142594,(39 -128 -128 -47 -24 -12 0 39)
1969-12-31 18:00:16.391218193,(-79 75 73 21 -22 -26 -28 -40)
1969-12-31 18:00:16.391218193,(5 59 51 23 34 21 23 19)
1969-12-31 18:00:16.413805778,(-45 -22 -39 -15 0 21 -8 -62)
1969-12-31 18:00:16.413805778,(17 46 48 15 -26 -14 -32 -20)
1969-12-31 18:00:16.414881377,(81 -92 -107 -31 14 -25 31 98)
1969-12-31 18:00:16.414881377,(-53 -124 -77 -49 -56 -35 -24 -23)
1969-12-31 18:00:16.429939766,(57 123 109 67 59 10 -4 42)
1969-12-31 18:00:16.429939766,(-34 -25 -55 -31 -61 -72 -25 -25)
1969-12-31 18:00:16.437468961,(-1 35 71 31 -1 25 32 -12)
1969-12-31 18:00:16.437468961,(46 16 18 9 96 29 -43 -10)
1969-12-31 18:00:16.455754149,(0 -68 -42 -10 -35 11 58 29)
1969-12-31 18:00:16.455754149,(-1 -97 -75 -9 49 54 -5 -24)
1969-12-31 18:00:16.456829748,(-51 -24 -3 3 -31 -30 18 10)
1969-12-31 18:00:16.456829748,(22 97 51 20 -15 -18 11 19)
1969-12-31 18:00:16.478341733,(4 -43 -34 -24 -3 5 -38 -60)
1969-12-31 18:00:16.478341733,(-8 100 92 19 -12 -16 -9 1)
1969-12-31 18:00:16.486946527,(6 -66 -74 -12 -4 22 -6 13)
1969-12-31 18:00:16.486946527,(13 -83 -48 -18 -4 4 -1 10)
1969-12-31 18:00:16.521365704,(-10 82 73 19 8 12 25 3)
1969-12-31 18:00:16.521365704,(5 -35 -30 -21 -9 -4 3 14)
1969-12-31 18:00:16.522441303,(22 24 -35 -6 0 4 37 -2)
1969-12-31 18:00:16.522441303,(-42 7 2 2 -24 -20 -102 -70)
1969-12-31 18:00:16.523516902,(17 50 49 20 22 14 50 54)
1969-12-31 18:00:16.523516902,(28 -44 -25 -17 -32 -18 -26 11)
1969-12-31 18:00:16.527819299,(-52 -31 -8 1 32 12 10 -12)
1969-12-31 18:00:16.527819299,(71 46 -48 -16 -17 37 41 50)
1969-12-31 18:00:16.542877689,(-49 -14 16 3 18 -24 -22 -34)
1969-12-31 18:00:16.542877689,(-18 -10 4 -6 -36 -50 -20 22)
1969-12-31 18:00:16.543953288,(6 -74 -32 -10 62 19 -31 -39)
1969-12-31 18:00:16.543953288,(5 35 -21 8 -16 -3 30 35)
1969-12-31 18:00:16.559011678,(-20 -33 -3 -30 -79 -38 -24 -32)
1969-12-31 18:00:16.559011678,(19 62 29 4 -13 2 31 20)
1969-12-31 18:00:16.567616472,(13 -18 8 1 -7 4 -7 13)
1969-12-31 18:00:16.567616472,(-32 -65 6 20 21 28 12 -7)
1969-12-31 18:00:16.583750461,(34 -60 -67 -5 33 21 19 37)
1969-12-31 18:00:16.583750461,(-10 55 35 13 15 20 10 -10)
1969-12-31 18:00:16.584826060,(11 19 -22 -11 -10 -15 -31 0)
1969-12-31 18:00:16.584826060,(-14 101 127 55 47 53 22 -14)
1969-12-31 18:00:16.607413645,(39 12 -13 -3 -28 -33 10 42)
1969-12-31 18:00:16.607413645,(8 -84 -57 -38 -53 -52 -5 -31)
1969-12-31 18:00:16.608489244,(-63 12 43 15 6 9 -12 -9)
1969-12-31 18:00:16.608489244,(-6 -6 -18 9 49 36 39 16)
1969-12-31 18:00:16.633228027,(-8 28 23 -17 -64 -30 -17 -7)
1969-12-31 18:00:16.633228027,(-11 -26 -5 -17 -8 12 -8 -4)
1969-12-31 18:00:16.633228027,(32 26 -1 -32 -44 -19 11 27)
1969-12-31 18:00:16.633228027,(-44 -93 -49 23 91 25 -36 -45)
1969-12-31 18:00:16.648286417,(-75 2 -20 4 -20 -38 -40 -67)
1969-12-31 18:00:16.648286417,(56 10 -32 8 2 5 4 27)
1969-12-31 18:00:16.649362016,(-34 19 89 17 -17 13 -17 7)
1969-12-31 18:00:16.649362016,(35 88 3 -37 -47 -66 -2 -11)
1969-12-31 18:00:16.671949600,(45 -59 -65 -17 32 49 25 55)
1969-12-31 18:00:16.671949600,(-28 82 113 40 13 4 0 -55)
1969-12-31 18:00:16.673025200,(53 -58 -76 -11 3 6 3 43)
1969-12-31 18:00:16.673025200,(-22 47 101 42 17 4 -4 -13)
1969-12-31 18:00:16.688083589,(19 -1 9 2 38 14 -3 -1)
1969-12-31 18:00:16.688083589,(-27 -43 -22 -13 -19 0 -3 3)
1969-12-31 18:00:16.696688384,(10 -1 -25 -5 -1 2 -26 -1)
1969-12-31 18:00:16.696688384,(-14 -90 -70 -47 -69 -66 27 40)
1969-12-31 18:00:16.712822372,(-65 2 -38 -33 -29 -8 -73 -85)
1969-12-31 18:00:16.712822372,(-14 14 36 25 21 16 41 -10)
1969-12-31 18:00:16.713897972,(27 33 5 8 3 -20 -28 -11)
1969-12-31 18:00:16.713897972,(2 -78 -55 -18 -18 -6 -2 -11)
1969-12-31 18:00:16.736485556,(34 4 -23 1 1 -25 1 40)
1969-12-31 18:00:16.736485556,(-9 -57 -48 -32 -11 12 4 32)
1969-12-31 18:00:16.737561156,(-50 91 102 15 -34 -20 4 -53)
1969-12-31 18:00:16.737561156,(31 25 19 7 5 8 -23 -17)
1969-12-31 18:00:16.752619545,(0 -81 -38 1 5 21 29 12)
1969-12-31 18:00:16.752619545,(13 65 48 22 61 22 4 27)
1969-12-31 18:00:16.761224339,(8 -1 -23 -9 3 15 27 -25)
1969-12-31 18:00:16.761224339,(41 -5 5 8 28 16 -20 36)
1969-12-31 18:00:16.777358328,(-63 3 16 -2 3 15 -13 -58)
1969-12-31 18:00:16.777358328,(-51 -65 -42 -9 6 -13 -27 -50)
1969-12-31 18:00:16.778433927,(38 -7 -25 9 -11 2 4 24)
1969-12-31 18:00:16.778433927,(-30 -29 -23 -31 -38 -18 27 -20)
1969-12-31 18:00:16.801021512,(16 98 80 36 -2 -19 -57 -35)
1969-12-31 18:00:16.801021512,(28 -8 -19 10 19 3 5 37)
1969-12-31 18:00:16.802097111,(-51 41 57 0 34 11 2 -69)
1969-12-31 18:00:16.802097111,(1 -41 -16 -22 -61 -36 2 18)
1969-12-31 18:00:16.817155501,(34 64 79 24 38 43 51 51)
1969-12-31 18:00:16.817155501,(-52 -35 -44 -8 -5 18 -3 8)
1969-12-31 18:00:16.825760295,(-7 -11 -14 10 19 -10 -4 -11)
1969-12-31 18:00:16.825760295,(12 -19 -30 -10 -4 -2 9 4)
1969-12-31 18:00:16.841894284,(5 -38 -40 -18 -4 -3 -12 -12)
1969-12-31 18:00:16.841894284,(-7 8 39 15 18 13 1 -15)
1969-12-31 18:00:16.842969883,(51 2 -30 5 -8 12 24 40)
1969-12-31 18:00:16.842969883,(-26 33 3 -19 -20 -20 0 -14)
1969-12-31 18:00:16.865557468,(16 -31 -11 -7 9 13 20 52)
1969-12-31 18:00:16.865557468,(20 24 -9 1 33 6 1 -8)
1969-12-31 18:00:16.866633067,(-35 -34 -4 -1 -10 21 -20 -19)
1969-12-31 18:00:16.866633067,(-30 16 9 8 -25 -44 -19 -33)
1969-12-31 18:00:16.881691457,(43 -40 -19 -33 -21 -18 8 40)
1969-12-31 18:00:16.881691457,(11 12 -16 2 -31 -17 12 -4)
1969-12-31 18:00:16.890296251,(22 1 -1 -7 5 8 -21 13)
1969-12-31 18:00:16.890296251,(-15 -25 -22 4 61 24 -30 -38)
1969-12-31 18:00:16.906430240,(-61 -7 30 0 -8 1 1 -15)
1969-12-31 18:00:16.906430240,(32 42 39 4 -11 -11 2 42)
1969-12-31 18:00:16.907505839,(-30 -30 -24 -3 8 5 -5 -39)
1969-12-31 18:00:16.907505839,(14 23 18 13 1 1 11 32)
1969-12-31 18:00:16.931169023,(49 -1 -22 -1 10 -6 11 49)
1969-12-31 18:00:16.931169023,(-16 -54 -29 -24 -32 -15 -10 -28)
1969-12-31 18:00:16.932244622,(29 21 -11 6 19 11 21 53)
1969-12-31 18:00:16.932244622,(-2 68 53 11 -11 13 2 -9)
1969-12-31 18:00:16.946227412,(60 -5 -9 4 6 5 13 41)
1969-12-31 18:00:16.946227412,(-56 26 32 30 50 38 -8 -32)
1969-12-31 18:00:16.954832207,(6 -30 -30 -17 -5 2 17 8)
1969-12-31 18:00:16.954832207,(42 -15 -7 -10 -8 -46 -22 51)
1969-12-31 18:00:16.970966195,(-25 -12 -26 -14 -40 -11 7 -25)
1969-12-31 18:00:16.970966195,(33 1 -25 -51 -106 -18 32 23)
1969-12-31 18:00:16.972041795,(-35 -15 21 53 101 33 -29 -31)
1969-12-31 18:00:16.972041795,(-16 -27 15 19 7 9 16 -4)
1969-12-31 18:00:16.994629379,(39 91 34 21 3 3 11 32)
1969-12-31 18:00:16.994629379,(-73 -64 -34 -16 -3 -6 -16 -65)
1969-12-31 18:00:16.995704978,(12 -11 -26 -39 -58 -22 9 29)
1969-12-31 18:00:16.995704978,(-25 -7 31 19 30 19 3 -17)
1969-12-31 18:00:17.010763368,(-23 -18 -16 3 10 3 -10 -24)
1969-12-31 18:00:17.010763368,(52 16 8 3 -3 -2 1 19)
1969-12-31 18:00:17.019368162,(-26 25 12 -8 -16 -10 -3 3)
1969-12-31 18:00:17.019368162,(-40 -40 -26 -7 -6 2 -22 -64)
1969-12-31 18:00:17.035502151,(-18 -15 -18 -4 -2 -1 -8 -28)
1969-12-31 18:00:17.035502151,(29 17 0 4 11 2 3 9)
1969-12-31 18:00:17.036577750,(-14 16 46 14 -1 -11 22 7)
1969-12-31 18:00:17.036577750,(8 -15 -29 -49 -27 -3 -2 34)
1969-12-31 18:00:17.059165335,(-66 -28 -2 23 9 -3 -29 -68)
1969-12-31 18:00:17.060240934,(29 11 -1 16 35 8 17 25)
1969-12-31 18:00:17.060240934,(26 13 -11 -6 -24 -23 -17 -6)
1969-12-31 18:00:17.061316533,(-28 19 41 8 -12 1 6 -31)
1969-12-31 18:00:17.075299324,(10 -1 -2 -10 8 10 9 12)
1969-12-31 18:00:17.075299324,(-26 -25 -1 0 -4 -21 -26 -20)
1969-12-31 18:00:17.083904118,(5 7 -10 1 27 29 10 4)
1969-12-31 18:00:17.083904118,(-18 -41 -23 17 9 2 4 2)
1969-12-31 18:00:17.100038107,(-4 13 -21 -13 -15 -3 -3 3)
1969-12-31 18:00:17.100038107,(38 42 49 15 -12 -12 5 27)
1969-12-31 18:00:17.101113706,(6 19 33 16 -9 -7 -7 9)
1969-12-31 18:00:17.101113706,(-2 2 -11 0 9 15 22 -3)
1969-12-31 18:00:17.123701291,(-9 -33 -13 10 3 -6 -17 -17)
1969-12-31 18:00:17.123701291,(22 -1 -14 -9 -4 16 18 0)
1969-12-31 18:00:17.124776890,(-29 -23 -16 -26 -26 -19 -28 -24)
1969-12-31 18:00:17.124776890,(72 41 6 4 11 20 10 33)
1969-12-31 18:00:17.139835280,(-36 -35 -13 -23 -10 -55 -21 -22)
1969-12-31 18:00:17.139835280,(9 16 7 1 23 74 37 29)
1969-12-31 18:00:17.148440074,(12 17 10 6 -20 -65 -1 13)
1969-12-31 18:00:17.148440074,(12 7 -9 13 15 19 7 9)
1969-12-31 18:00:17.164574063,(-23 -29 4 0 0 8 2 -4)
1969-12-31 18:00:17.164574063,(-20 5 5 -8 -17 -20 -23 -26)
1969-12-31 18:00:17.165649662,(3 -7 0 12 19 19 20 39)
1969-12-31 18:00:17.165649662,(-53 -23 -11 -9 -9 -7 -42 -67)
1969-12-31 18:00:17.188237246,(46 28 11 0 -1 -4 -2 -3)
1969-12-31 18:00:17.189312846,(19 11 8 6 3 -13 -11 22)
1969-12-31 18:00:17.189312846,(-23 -1 -7 -14 -18 2 -4 -41)
1969-12-31 18:00:17.189312846,(-16 -14 -13 -13 -12 -18 8 13)
1969-12-31 18:00:17.212976030,(36 3 1 0 10 23 15 42)
1969-12-31 18:00:17.212976030,(-48 -21 -9 9 17 -8 -22 -36)
1969-12-31 18:00:17.214051629,(50 15 6 -1 -11 -8 1 32)
1969-12-31 18:00:17.214051629,(-24 -31 -26 -13 -4 -12 -15 -48)
1969-12-31 18:00:17.229110018,(82 31 6 3 1 16 29 54)
1969-12-31 18:00:17.229110018,(-81 -29 -10 -4 -9 -15 -22 -53)
1969-12-31 18:00:17.230185618,(10 9 4 -8 -6 0 -6 -12)
1969-12-31 18:00:17.230185618,(-21 -10 -1 -4 -6 4 -5 5)
1969-12-31 18:00:17.252773202,(17 18 4 -4 5 7 7 10)
1969-12-31 18:00:17.253848801,(36 2 1 2 0 -9 0 24)
1969-12-31 18:00:17.253848801,(11 19 8 7 8 8 -3 -20)
1969-12-31 18:00:17.253848801,(-37 -18 -4 0 -4 2 8 6)
1969-12-31 18:00:17.278587585,(-28 -16 -4 1 0 -3 -10 -28)
1969-12-31 18:00:17.278587585,(-21 -26 -15 -8 -2 -9 -10 3)
1969-12-31 18:00:17.279663184,(25 1 -4 -6 -8 4 6 24)
1969-12-31 18:00:17.279663184,(22 22 6 -2 -3 0 18 22)
1969-12-31 18:00:17.302250768,(-31 -5 2 2 1 -6 -12 -23)
1969-12-31 18:00:17.302250768,(-8 3 3 5 4 1 8 8)
1969-12-31 18:00:17.303326368,(6 -15 -6 -5 -4 5 10 21)
1969-12-31 18:00:17.303326368,(31 7 -11 -9 -7 -4 -4 4)
1969-12-31 18:00:17.317309158,(-49 -24 -6 1 5 3 -3 -12)
1969-12-31 18:00:17.318384757,(70 43 8 3 0 -4 -1 11)
1969-12-31 18:00:17.318384757,(-56 -29 -14 -13 -9 -13 -17 -31)
1969-12-31 18:00:17.318384757,(35 26 15 11 8 3 6 20)
1969-12-31 18:00:17.343123540,(-25 -15 -8 -3 -4 -2 -6 -19)
1969-12-31 18:00:17.343123540,(23 4 3 0 0 0 7 29)
1969-12-31 18:00:17.343123540,(-8 9 10 -3 -3 -1 -2 -14)
1969-12-31 18:00:17.343123540,(-5 -15 -8 -6 -4 1 -6 -4)
1969-12-31 18:00:17.358181930,(-19 0 6 2 0 1 1 -3)
1969-12-31 18:00:17.358181930,(-4 -2 -2 -2 -3 -4 2 2)
1969-12-31 18:00:17.359257529,(30 23 -1 -1 0 2 3 0)
1969-12-31 18:00:17.359257529,(-65 -39 -12 -7 -7 -9 -12 -28)
1969-12-31 18:00:17.381845114,(19 14 8 7 5 6 6 4)
1969-12-31 18:00:17.381845114,(-12 -16 -9 -2 2 1 -3 -4)
1969-12-31 18:00:17.382920713,(8 2 -5 -2 -4 0 -7 -10)
1969-12-31 18:00:17.383996312,(19 10 1 1 -2 -4 0 15)
1969-12-31 18:00:17.407659496,(19 13 -2 -1 0 -1 1 3)
1969-12-31 18:00:17.407659496,(-12 -3 8 1 0 -2 -1 -7)
1969-12-31 18:00:17.407659496,(-2 -1 -2 -1 -2 -8 -8 -4)
1969-12-31 18:00:17.407659496,(-4 2 1 1 -1 -5 2 -2)
1969-12-31 18:00:17.422717886,(4 -3 -3 -1 3 2 4 0)
1969-12-31 18:00:17.422717886,(0 12 1 -1 -1 2 2 0)
1969-12-31 18:00:17.423793485,(-2 -30 -12 -3 3 7 2 7)
1969-12-31 18:00:17.423793485,(10 21 8 3 1 2 1 1)
1969-12-31 18:00:17.446381069,(-40 -48 -25 -15 -7 -7 -13 -14)
1969-12-31 18:00:17.446381069,(10 42 25 5 2 -1 -3 0)
1969-12-31 18:00:17.447456669,(-15 -19 -8 -1 1 2 3 -3)
1969-12-31 18:00:17.447456669,(7 -21 -9 -5 -1 0 0 4)
1969-12-31 18:00:17.472195452,(0 37 28 10 -1 0 -5 -9)
1969-12-31 18:00:17.472195452,(7 -17 -6 2 -1 4 9 6)
1969-12-31 18:00:17.473271051,(-3 7 5 -1 1 -5 -11 -8)
1969-12-31 18:00:17.473271051,(17 -1 -13 -8 -7 -6 2 1)
1969-12-31 18:00:17.487253841,(10 -3 -3 -1 3 2 8 11)
1969-12-31 18:00:17.487253841,(-7 32 19 -4 -6 -4 -14 -8)
1969-12-31 18:00:17.488329441,(-9 4 16 12 9 6 -2 -6)
1969-12-31 18:00:17.488329441,(4 -9 -6 -3 -2 3 5 -2)
1969-12-31 18:00:17.511992624,(5 -10 -21 -7 -4 1 3 0)
1969-12-31 18:00:17.511992624,(-5 -13 -9 -2 -3 -5 -8 4)
1969-12-31 18:00:17.511992624,(-6 -14 -32 -17 -9 -6 12 -4)
1969-12-31 18:00:17.513068224,(1 17 36 15 5 7 -2 1)
1969-12-31 18:00:17.536731407,(-2 1 -6 0 -3 -4 -14 -7)
1969-12-31 18:00:17.536731407,(-1 -38 -24 -11 -5 -6 7 -1)
1969-12-31 18:00:17.536731407,(1 71 53 17 3 -3 -2 -4)
1969-12-31 18:00:17.536731407,(9 6 -2 3 5 -1 -1 5)
1969-12-31 18:00:17.551789797,(-5 -16 -5 1 2 3 6 -1)
1969-12-31 18:00:17.551789797,(-2 -25 -7 2 1 0 2 4)
1969-12-31 18:00:17.552865396,(-3 -8 -12 -7 -3 0 -11 -9)
1969-12-31 18:00:17.552865396,(10 7 -5 -5 -4 2 19 6)
1969-12-31 18:00:17.575452981,(-11 1 15 1 -1 -5 -17 -6)
1969-12-31 18:00:17.575452981,(-5 -8 -13 -6 -1 1 -10 -23)
1969-12-31 18:00:17.576528580,(-1 -10 2 1 -2 3 19 5)
1969-12-31 18:00:17.576528580,(7 13 -3 -4 1 0 -22 3)
1969-12-31 18:00:17.608796558,(-6 -8 -7 -3 -3 -8 -7 -2)
1969-12-31 18:00:17.608796558,(1 15 10 3 -3 -1 10 -2)
1969-12-31 18:00:17.609872157,(-8 -14 -7 -4 -5 -2 -9 0)
1969-12-31 18:00:17.609872157,(-5 -7 -5 -7 -6 -11 -6 -11)
1969-12-31 18:00:17.616325753,(-2 6 3 1 2 -1 2 -2)
1969-12-31 18:00:17.616325753,(0 2 -4 0 5 4 1 8)
1969-12-31 18:00:17.617401352,(-3 -2 6 4 -2 6 -2 -2)
1969-12-31 18:00:17.617401352,(2 -5 -10 -6 -1 5 6 7)
1969-12-31 18:00:17.641064536,(4 4 -3 -10 -30 -18 -11 -1)
1969-12-31 18:00:17.641064536,(-5 4 -1 2 38 16 6 -10)
1969-12-31 18:00:17.642140135,(-5 -12 -4 10 -9 0 -6 -3)
1969-12-31 18:00:17.642140135,(0 -4 -3 6 6 -4 -1 -3)
1969-12-31 18:00:17.665803319,(6 13 12 12 11 5 9 10)
1969-12-31 18:00:17.665803319,(1 0 1 -5 -15 -9 5 12)
1969-12-31 18:00:17.665803319,(-1 -5 -3 -4 0 -4 -6 -6)
1969-12-31 18:00:17.665803319,(2 2 -2 1 -1 -8 -4 2)
1969-12-31 18:00:17.680861709,(-2 -1 3 1 2 14 10 -3)
1969-12-31 18:00:17.680861709,(-3 -4 -3 -3 -3 -6 6 0)
1969-12-31 18:00:17.681937308,(-6 -9 -8 -10 9 1 -15 -4)
1969-12-31 18:00:17.681937308,(0 2 0 -5 -27 -7 1 2)
1969-12-31 18:00:17.704524892,(-1 -1 -2 -1 11 9 7 2)
1969-12-31 18:00:17.704524892,(-4 -7 -9 -15 -18 -5 0 -1)
1969-12-31 18:00:17.705600492,(-4 -8 -8 3 6 -6 -7 -8)
1969-12-31 18:00:17.705600492,(5 6 8 10 5 3 2 0)
1969-12-31 18:00:17.730339275,(-3 -3 1 -9 -14 -4 -2 -1)
1969-12-31 18:00:17.730339275,(3 5 7 6 12 4 -11 -6)
1969-12-31 18:00:17.730339275,(-17 -16 -14 -9 -9 -57 -25 -33)
1969-12-31 18:00:17.730339275,(18 1 4 -3 -1 5 13 36)
1969-12-31 18:00:17.737868470,(-34 -13 -11 -7 -10 -13 16 -8)
1969-12-31 18:00:17.737868470,(2 0 -1 0 1 -10 -14 -39)
1969-12-31 18:00:17.756153657,(11 -2 2 4 2 12 6 35)
1969-12-31 18:00:17.756153657,(-40 -5 -5 -1 -2 7 -10 -51)
1969-12-31 18:00:17.757229256,(23 -13 -18 -10 -12 -34 -26 4)
1969-12-31 18:00:17.757229256,(-2 -1 0 0 8 20 7 42)
1969-12-31 18:00:17.779816841,(23 14 4 -1 3 6 13 21)
1969-12-31 18:00:17.779816841,(-3 -14 -7 -6 -1 -18 -3 -15)
1969-12-31 18:00:17.781968039,(25 32 12 6 8 27 5 -21)
1969-12-31 18:00:17.781968039,(-22 -16 0 4 3 -11 -9 0)
1969-12-31 18:00:17.794875230,(14 -11 -9 -7 -3 9 -21 8)
1969-12-31 18:00:17.794875230,(20 -12 -9 -8 -8 6 7 23)
1969-12-31 18:00:17.802404425,(-19 7 7 3 0 -17 18 2)
1969-12-31 18:00:17.802404425,(66 27 5 0 3 29 7 9)
1969-12-31 18:00:17.819614014,(17 24 16 11 4 -5 -13 -37)
1969-12-31 18:00:17.819614014,(-69 -43 -23 -14 -16 -40 -22 20)
1969-12-31 18:00:17.821765212,(4 -2 -3 -4 -2 34 58 59)
1969-12-31 18:00:17.821765212,(-43 -30 -15 -13 -14 -63 -70 -55)
1969-12-31 18:00:17.844352797,(-10 -6 3 1 0 -10 24 16)
1969-12-31 18:00:17.844352797,(41 36 15 9 7 26 29 -7)
1969-12-31 18:00:17.846503995,(11 5 1 1 -2 -28 -58 -19)
1969-12-31 18:00:17.846503995,(-29 -12 1 1 4 38 35 52)
1969-12-31 18:00:17.858335587,(6 0 -13 -10 -4 -12 -23 -44)
1969-12-31 18:00:17.858335587,(-7 2 6 6 9 13 16 31)
1969-12-31 18:00:17.869091580,(15 -2 3 -3 -1 0 -5 26)
1969-12-31 18:00:17.869091580,(-19 -3 2 4 0 3 -9 -40)
1969-12-31 18:00:17.884149969,(-18 -13 -11 -8 -8 -4 3 23)
1969-12-31 18:00:17.884149969,(17 20 2 3 1 -6 -9 -8)
1969-12-31 18:00:17.886301168,(17 5 4 2 8 35 14 25)
1969-12-31 18:00:17.886301168,(28 12 4 4 -10 -77 -19 24)
1969-12-31 18:00:17.908888752,(-8 -9 -3 -1 7 27 17 26)
1969-12-31 18:00:17.908888752,(4 -5 -6 -3 -4 -6 -13 -43)
1969-12-31 18:00:17.911039951,(-34 -8 -4 1 -2 -14 -4 36)
1969-12-31 18:00:17.911039951,(-14 -14 -6 -2 4 11 21 13)
1969-12-31 18:00:17.923947142,(-8 -5 -3 -3 5 48 11 -21)
1969-12-31 18:00:17.923947142,(-19 -1 4 2 -8 -62 -36 -25)
1969-12-31 18:00:17.933627535,(25 22 6 12 9 9 3 10)
1969-12-31 18:00:17.933627535,(12 10 0 0 -2 -2 8 10)
1969-12-31 18:00:17.948685925,(20 -7 -5 -4 -2 7 28 39)
1969-12-31 18:00:17.948685925,(-23 -15 -1 -3 8 33 -12 7)
1969-12-31 18:00:17.950837124,(20 0 2 -3 -10 -50 -8 -31)
1969-12-31 18:00:17.950837124,(-22 -17 -10 -10 -4 14 -2 17)
1969-12-31 18:00:17.973424708,(31 35 14 8 1 -7 0 -26)
1969-12-31 18:00:17.973424708,(5 8 -6 -8 -7 -5 -1 -5)
1969-12-31 18:00:17.975575907,(3 -16 3 8 11 16 28 80)
1969-12-31 18:00:17.975575907,(-12 -12 -7 -9 -6 8 -17 -61)
1969-12-31 18:00:17.988483098,(28 5 8 9 3 -9 7 27)
1969-12-31 18:00:17.988483098,(-2 4 -3 -1 -6 -18 -1 -35)
1969-12-31 18:00:17.998163491,(-21 -3 -1 -2 3 34 0 -52)
1969-12-31 18:00:17.998163491,(-29 1 0 3 4 -4 -32 -26)
1969-12-31 18:00:18.014297480,(-4 3 -5 -2 1 15 -12 21)
1969-12-31 18:00:18.014297480,(56 6 3 5 16 72 55 110)
1969-12-31 18:00:18.015373079,(15 12 -3 -2 -1 -69 10 -48)
1969-12-31 18:00:18.015373079,(33 6 -1 -7 -17 -17 11 4)
1969-12-31 18:00:18.037960664,(-21 -30 -6 -6 -8 -14 5 15)
1969-12-31 18:00:18.037960664,(-59 -15 -11 -9 -12 -9 -33 -65)
1969-12-31 18:00:18.040111862,(-50 -14 -3 -4 -3 14 -18 -51)
1969-12-31 18:00:18.040111862,(0 -1 -7 -3 -1 8 13 -21)
1969-12-31 18:00:18.051943454,(-27 8 6 5 -1 -19 -9 -27)
1969-12-31 18:00:18.053019053,(-9 -24 -4 -4 -3 2 -3 -29)
1969-12-31 18:00:18.062699447,(-8 -10 -5 -6 -6 5 -21 -25)
1969-12-31 18:00:18.062699447,(-4 6 8 6 10 8 22 0)
1969-12-31 18:00:18.078833436,(4 9 -2 2 5 12 -10 -14)
1969-12-31 18:00:18.078833436,(-3 10 3 0 -2 -25 -23 -21)
1969-12-31 18:00:18.079909035,(2 20 3 1 6 36 -18 -11)
1969-12-31 18:00:18.079909035,(-51 -48 -13 -6 -6 -10 4 -4)
1969-12-31 18:00:18.103572219,(11 -4 -3 -4 -7 -40 23 37)
1969-12-31 18:00:18.103572219,(3 13 4 3 0 7 -62 -12)
1969-12-31 18:00:18.104647818,(-20 -16 -10 -9 -11 -37 -17 -62)
1969-12-31 18:00:18.104647818,(11 13 8 1 -5 -18 -2 6)
1969-12-31 18:00:18.117555009,(-32 -9 -2 -4 3 37 -4 -65)
1969-12-31 18:00:18.117555009,(-10 -15 -10 -7 -14 -26 37 -19)
1969-12-31 18:00:18.127235403,(-1 22 13 9 7 -28 -31 16)
1969-12-31 18:00:18.127235403,(10 -4 -7 -8 -5 40 9 10)
1969-12-31 18:00:18.142293792,(-19 -31 -1 3 5 -5 -25 -28)
1969-12-31 18:00:18.142293792,(24 3 3 6 6 -24 -9 22)
1969-12-31 18:00:18.144444991,(-9 0 2 2 2 45 -11 -35)
1969-12-31 18:00:18.144444991,(-34 -3 -3 -1 5 34 42 28)
1969-12-31 18:00:18.167032575,(30 23 4 5 1 -19 9 13)
1969-12-31 18:00:18.167032575,(25 16 6 5 8 29 15 34)
1969-12-31 18:00:18.169183774,(-3 -28 -8 -4 -7 -43 -8 15)
1969-12-31 18:00:18.169183774,(17 13 2 4 15 24 0 28)
1969-12-31 18:00:18.181015366,(-26 8 1 2 4 11 3 15)
1969-12-31 18:00:18.181015366,(-22 -27 -4 -9 -16 -56 7 19)
1969-12-31 18:00:18.191771358,(17 -1 -10 -14 -29 -11 -25 -56)
1969-12-31 18:00:18.191771358,(1 5 6 8 18 19 -14 -18)
1969-12-31 18:00:18.206829748,(-34 -16 -3 15 48 12 -32 -19)
1969-12-31 18:00:18.206829748,(32 21 7 -1 -27 13 37 27)
1969-12-31 18:00:18.206829748,(-17 -4 -6 -10 10 0 -15 3)
1969-12-31 18:00:18.206829748,(7 -8 -7 -20 -52 -17 -20 -34)
1969-12-31 18:00:18.230492932,(33 4 2 1 -11 -32 8 -6)
