time,.data
1969/12/31/18:00:32.297,(0 -3 -2 -1 -1 1 0 1)
1969/12/31/18:00:32.298,(1 -1 -1 0 0 1 1 1)
1969/12/31/18:00:32.299,(1 1 0 1 0 -1 -1 -1)
1969/12/31/18:00:32.299,(-2 0 1 1 0 -1 -2 -1)
1969/12/31/18:00:32.311,(-1 1 -2 -2 -1 -3 -2 -3)
1969/12/31/18:00:32.311,(-1 -1 0 -3 0 -1 -4 -3)
1969/12/31/18:00:32.320,(2 -3 -1 0 1 2 2 3)
1969/12/31/18:00:32.320,(2 2 -1 1 2 0 1 2)
1969/12/31/18:00:32.335,(-3 0 0 -3 -5 -3 -2 -4)
1969/12/31/18:00:32.335,(-1 1 6 -2 -2 5 3 1)
1969/12/31/18:00:32.336,(12 7 2 14 13 8 7 11)
1969/12/31/18:00:32.337,(-5 -9 -10 -12 -9 -8 -7 -5)
1969/12/31/18:00:32.373,(-7 -6 -7 -18 -19 -4 -6 -7)
1969/12/31/18:00:32.373,(10 7 4 4 15 0 5 9)
1969/12/31/18:00:32.375,(0 2 0 15 10 5 3 0)
1969/12/31/18:00:32.375,(-4 -3 -3 -8 -6 -3 -3 -2)
1969/12/31/18:00:32.376,(2 4 10 18 7 8 7 4)
1969/12/31/18:00:32.376,(-7 -6 -11 -34 -34 -10 -7 -4)
1969/12/31/18:00:32.380,(-17 -13 -7 1 5 -6 -10 -14)
1969/12/31/18:00:32.380,(16 15 25 56 25 11 8 12)
1969/12/31/18:00:32.394,(1 6 4 -24 0 -1 -1 -1)
1969/12/31/18:00:32.394,(-5 -4 11 21 6 -1 0 -4)
1969/12/31/18:00:32.401,(7 1 -15 8 -11 5 5 6)
1969/12/31/18:00:32.401,(-7 -3 1 -31 5 -8 -9 -13)
1969/12/31/18:00:32.418,(2 -3 -13 -10 -28 -12 -4 0)
1969/12/31/18:00:32.418,(6 3 -5 -71 -4 -6 0 1)
1969/12/31/18:00:32.419,(-10 -4 8 65 1 0 -3 -4)
1969/12/31/18:00:32.419,(0 1 3 28 12 5 -1 -2)
1969/12/31/18:00:32.431,(6 1 -7 -4 17 9 9 7)
1969/12/31/18:00:32.431,(0 -5 -13 -60 -31 -7 -3 -1)
1969/12/31/18:00:32.440,(-12 -14 -35 -62 -25 -12 -8 -8)
1969/12/31/18:00:32.440,(13 7 25 48 39 9 8 13)
1969/12/31/18:00:32.454,(-14 11 60 121 40 1 -11 -17)
1969/12/31/18:00:32.454,(8 6 6 47 19 10 6 6)
1969/12/31/18:00:32.461,(5 1 -10 -75 -30 -2 2 4)
1969/12/31/18:00:32.461,(-5 -16 -99 -128 -75 -17 -2 0)
1969/12/31/18:00:32.478,(8 -11 3 35 24 2 2 8)
1969/12/31/18:00:32.478,(-22 -5 46 26 -71 -9 -8 -14)
1969/12/31/18:00:32.479,(9 13 26 107 109 7 1 3)
1969/12/31/18:00:32.479,(-3 13 30 -38 -18 13 3 -4)
1969/12/31/18:00:32.507,(9 2 -6 47 36 7 1 4)
1969/12/31/18:00:32.507,(-4 -5 -18 5 0 3 -4 -2)
1969/12/31/18:00:32.509,(-3 -12 -13 -83 -72 -23 -9 -4)
1969/12/31/18:00:32.509,(4 -7 -34 -52 -31 -9 2 4)
1969/12/31/18:00:32.514,(-6 -11 14 8 19 4 2 0)
1969/12/31/18:00:32.514,(5 19 22 94 55 18 6 5)
1969/12/31/18:00:32.522,(-5 -3 2 -1 -7 -10 -9 -9)
1969/12/31/18:00:32.522,(-3 -4 -19 -80 -51 -16 -4 -4)
1969/12/31/18:00:32.537,(11 18 12 12 -27 -1 10 9)
1969/12/31/18:00:32.537,(5 -9 -30 4 17 -5 -6 1)
1969/12/31/18:00:32.539,(-6 -6 24 14 31 7 1 -3)
1969/12/31/18:00:32.539,(-4 4 32 89 26 9 -2 -1)
1969/12/31/18:00:32.568,(-7 -13 -43 -63 -20 -10 -6 -4)
1969/12/31/18:00:32.568,(2 0 -31 -102 -27 -12 1 1)
1969/12/31/18:00:32.569,(10 11 7 9 -30 0 7 5)
1969/12/31/18:00:32.569,(0 -2 32 84 40 11 1 1)
1969/12/31/18:00:32.574,(-5 -2 -4 -69 -16 -1 -3 -6)
1969/12/31/18:00:32.574,(1 -2 -14 3 23 8 1 1)
1969/12/31/18:00:32.583,(-1 -2 -9 -29 -21 -1 0 1)
1969/12/31/18:00:32.583,(1 0 14 50 23 8 5 2)
1969/12/31/18:00:32.598,(-1 -3 -18 -18 -34 -7 -2 0)
1969/12/31/18:00:32.598,(-2 -6 -17 -75 2 -2 0 -1)
1969/12/31/18:00:32.599,(-1 4 24 70 36 5 -2 -1)
1969/12/31/18:00:32.599,(-4 -2 7 31 9 -2 -2 -3)
1969/12/31/18:00:32.620,(-2 -4 -10 -12 4 -3 -3 -4)
1969/12/31/18:00:32.620,(-3 -8 -12 -26 -33 -12 -6 -4)
1969/12/31/18:00:32.621,(2 4 7 20 1 2 1 2)
1969/12/31/18:00:32.621,(-1 -3 -6 -8 6 -4 -2 -2)
1969/12/31/18:00:32.634,(-3 -4 -11 -44 -14 -5 -2 -3)
1969/12/31/18:00:32.634,(-1 4 26 78 21 -1 1 1)
1969/12/31/18:00:32.650,(1 2 -1 -9 0 -1 2 0)
1969/12/31/18:00:32.650,(-3 -2 -4 -1 -1 -6 -4 -3)
1969/12/31/18:00:32.659,(-1 -4 -10 -11 -11 -6 -5 -2)
1969/12/31/18:00:32.659,(4 1 3 14 8 7 0 2)
1969/12/31/18:00:32.660,(1 3 -5 -20 -5 8 1 3)
1969/12/31/18:00:32.660,(0 -2 -7 -24 -13 1 -2 -3)
1969/12/31/18:00:32.680,(-4 1 4 0 3 7 1 3)
1969/12/31/18:00:32.680,(3 1 6 27 12 2 2 1)
1969/12/31/18:00:32.681,(-3 1 -4 -18 -8 3 0 -6)
1969/12/31/18:00:32.681,(7 7 1 -3 -1 1 -4 -2)
1969/12/31/18:00:32.693,(-16 -11 3 16 10 4 -1 -4)
1969/12/31/18:00:32.693,(-3 0 6 9 3 3 3 5)
1969/12/31/18:00:32.703,(-8 -6 -6 -17 -11 -1 -3 -4)
1969/12/31/18:00:32.703,(0 1 -1 -5 1 1 0 2)
1969/12/31/18:00:32.717,(6 4 5 8 5 3 3 0)
1969/12/31/18:00:32.717,(1 0 -3 -5 -7 -6 -2 0)
1969/12/31/18:00:32.719,(20 8 2 -6 4 4 8 9)
1969/12/31/18:00:32.719,(-7 -6 -2 3 4 1 -1 -2)
1969/12/31/18:00:32.740,(8 5 1 -3 -3 1 -3 -2)
1969/12/31/18:00:32.740,(-6 -3 0 4 1 1 0 -1)
1969/12/31/18:00:32.741,(0 1 3 3 2 -1 -1 0)
1969/12/31/18:00:32.741,(-9 -6 -3 -3 -1 -3 -3 0)
1969/12/31/18:00:32.754,(7 2 0 0 -2 0 1 5)
1969/12/31/18:00:32.754,(-3 0 1 6 4 -2 -7 -11)
1969/12/31/18:00:32.763,(-3 -1 -2 -7 -4 -3 -3 -2)
1969/12/31/18:00:32.763,(-1 -4 -2 -2 -3 -5 0 2)
1969/12/31/18:00:32.778,(-3 1 3 0 -1 -3 -2 -4)
1969/12/31/18:00:32.778,(3 5 2 10 9 10 4 0)
1969/12/31/18:00:32.779,(-4 -12 -8 -10 -9 -6 -4 -1)
1969/12/31/18:00:32.779,(1 4 1 -6 0 7 2 -1)
1969/12/31/18:00:32.800,(-6 -5 0 0 -3 -4 -4 -1)
1969/12/31/18:00:32.800,(-11 -4 0 1 -1 -5 -4 -10)
1969/12/31/18:00:32.801,(24 9 -8 -32 -26 -4 3 11)
1969/12/31/18:00:32.801,(-1 -3 -3 4 8 -2 2 2)
1969/12/31/18:00:32.814,(5 3 5 22 14 2 1 1)
1969/12/31/18:00:32.814,(-9 -5 3 11 7 1 -1 1)
1969/12/31/18:00:32.823,(-3 4 6 17 14 4 1 -2)
1969/12/31/18:00:32.823,(-5 -9 -7 -21 -14 -7 -8 -7)
1969/12/31/18:00:32.837,(-2 0 -5 -12 -13 -1 2 -2)
1969/12/31/18:00:32.837,(0 -3 -4 4 1 -7 -5 -4)
1969/12/31/18:00:32.838,(-16 -8 -2 -2 2 2 0 2)
1969/12/31/18:00:32.838,(32 15 4 5 0 5 7 12)
1969/12/31/18:00:32.859,(-26 -11 1 -1 2 -6 -13 -21)
1969/12/31/18:00:32.859,(8 3 3 -1 -4 2 3 10)
1969/12/31/18:00:32.860,(6 5 -4 -6 -4 -1 1 1)
1969/12/31/18:00:32.860,(1 9 0 -8 -4 -2 1 4)
1969/12/31/18:00:32.882,(3 -9 -22 -48 -22 -8 2 3)
1969/12/31/18:00:32.882,(10 5 5 18 14 4 4 4)
1969/12/31/18:00:32.883,(-25 -8 2 20 7 -3 -11 -15)
1969/12/31/18:00:32.883,(-23 -2 3 -10 15 6 4 0)
1969/12/31/18:00:32.898,(13 4 24 71 13 2 -2 -6)
1969/12/31/18:00:32.898,(-14 -4 2 0 -4 -2 1 -2)
1969/12/31/18:00:32.899,(22 6 -3 5 2 -4 1 5)
1969/12/31/18:00:32.899,(-8 -9 -5 -15 -10 -4 -5 -5)
1969/12/31/18:00:32.920,(-58 -16 -14 -27 -6 -8 -12 -26)
1969/12/31/18:00:32.920,(50 17 -1 -14 -3 4 9 19)
1969/12/31/18:00:32.921,(-1 -5 -8 -17 -16 -29 -35 -20)
1969/12/31/18:00:32.921,(-8 -11 -7 -15 -7 0 1 -8)
1969/12/31/18:00:32.942,(46 25 2 10 1 -5 -3 17)
1969/12/31/18:00:32.942,(-67 -37 -3 -5 -4 -2 -8 -28)
1969/12/31/18:00:32.943,(2 5 -8 -16 4 10 10 3)
1969/12/31/18:00:32.943,(20 11 11 30 -3 0 1 8)
1969/12/31/18:00:32.957,(-19 -10 9 18 5 6 3 -5)
1969/12/31/18:00:32.957,(-5 2 0 -36 -14 -5 -1 0)
1969/12/31/18:00:32.958,(11 1 -9 5 0 1 5 9)
1969/12/31/18:00:32.958,(-22 -7 14 62 26 1 0 -7)
1969/12/31/18:00:32.979,(-10 -4 9 15 15 12 10 13)
1969/12/31/18:00:32.979,(52 23 0 7 -3 4 6 16)
1969/12/31/18:00:32.980,(-12 -6 -3 -33 -8 4 2 -2)
1969/12/31/18:00:32.980,(51 21 -11 -22 -13 -7 -2 14)
1969/12/31/18:00:33.002,(-3 0 1 0 1 5 8 4)
1969/12/31/18:00:33.002,(-29 -14 -7 -9 -1 -8 -13 -16)
1969/12/31/18:00:33.009,(-19 -13 -8 -1 -7 -9 -9 -13)
1969/12/31/18:00:33.009,(-3 -4 -11 -30 -7 0 1 3)
1969/12/31/18:00:33.017,(27 9 -14 -79 -29 -5 6 13)
1969/12/31/18:00:33.017,(-15 -6 7 54 4 -1 2 -2)
1969/12/31/18:00:33.018,(11 13 48 113 37 18 17 14)
1969/12/31/18:00:33.018,(-22 -4 27 66 37 6 -10 -18)
1969/12/31/18:00:33.039,(-4 -3 -7 -9 5 3 -2 -2)
1969/12/31/18:00:33.039,(1 -5 -25 -57 -18 -5 0 4)
1969/12/31/18:00:33.040,(-6 -5 -15 -33 -19 -7 -2 -4)
1969/12/31/18:00:33.040,(-13 -20 -11 -19 -19 -9 0 2)
1969/12/31/18:00:33.063,(61 39 2 -7 2 -1 -2 9)
1969/12/31/18:00:33.063,(-10 -9 -4 -3 -3 -2 -7 -7)
1969/12/31/18:00:33.064,(13 5 -2 -20 -6 -1 2 5)
1969/12/31/18:00:33.064,(-4 -1 -2 -3 1 3 4 3)
1969/12/31/18:00:33.077,(-7 -16 -2 9 2 -4 -4 6)
1969/12/31/18:00:33.077,(21 22 14 24 9 7 7 9)
1969/12/31/18:00:33.078,(-10 -8 -3 -8 3 2 1 -3)
1969/12/31/18:00:33.078,(-14 -8 -9 -19 -10 -6 -4 -7)
1969/12/31/18:00:33.099,(-1 -1 0 12 10 0 -2 -2)
1969/12/31/18:00:33.099,(9 5 7 7 -5 1 0 4)
1969/12/31/18:00:33.100,(-17 -10 -2 -11 0 2 0 -3)
1969/12/31/18:00:33.100,(16 12 0 -5 -4 0 2 2)
1969/12/31/18:00:33.122,(-11 -8 -4 -9 -20 -12 -5 -3)
1969/12/31/18:00:33.122,(-7 -4 -8 -28 -10 -7 -3 -6)
1969/12/31/18:00:33.123,(1 -1 -4 19 25 9 3 -1)
1969/12/31/18:00:33.123,(3 4 -3 -15 13 18 9 5)
1969/12/31/18:00:33.137,(-1 6 10 31 10 8 3 1)
1969/12/31/18:00:33.137,(-2 -1 3 8 4 -3 -1 0)
1969/12/31/18:00:33.138,(1 2 11 19 -30 -11 -4 0)
1969/12/31/18:00:33.138,(-3 0 6 10 8 -6 -5 -5)
1969/12/31/18:00:33.159,(1 -7 -7 -11 4 5 5 7)
1969/12/31/18:00:33.159,(25 10 -9 -17 -5 1 -1 8)
1969/12/31/18:00:33.160,(-16 -8 -7 -19 -1 -4 -6 -12)
1969/12/31/18:00:33.160,(-11 -9 -7 -9 -15 -6 -4 -7)
1969/12/31/18:00:33.182,(4 7 0 -5 -3 1 -1 2)
1969/12/31/18:00:33.182,(-37 -19 -10 4 4 -6 -12 -30)
1969/12/31/18:00:33.183,(9 0 0 -5 5 4 5 14)
1969/12/31/18:00:33.183,(2 0 -2 -3 -13 -8 -6 -5)
1969/12/31/18:00:33.197,(-17 -12 -7 -5 -15 -10 -8 -9)
1969/12/31/18:00:33.198,(6 2 4 3 14 5 3 6)
1969/12/31/18:00:33.198,(-8 -1 3 5 4 11 4 -4)
1969/12/31/18:00:33.199,(-6 -4 -14 -49 -12 4 4 -3)
1969/12/31/18:00:33.219,(1 -1 16 71 15 1 1 3)
1969/12/31/18:00:33.219,(-2 1 8 5 4 0 3 1)
1969/12/31/18:00:33.220,(2 -1 1 6 -1 -10 -10 -7)
1969/12/31/18:00:33.220,(-22 -9 0 0 -6 -17 -23 -24)
1969/12/31/18:00:33.234,(-22 -16 -8 -24 -7 2 2 -4)
1969/12/31/18:00:33.234,(59 39 -1 -5 -2 4 16 33)
1969/12/31/18:00:33.242,(-30 -15 -13 -20 -10 -11 -15 -24)
1969/12/31/18:00:33.242,(30 9 -1 1 -7 2 13 27)
1969/12/31/18:00:33.257,(-6 -2 -3 -11 -1 -4 -5 -10)
1969/12/31/18:00:33.257,(-24 -20 -5 -10 1 -4 -12 -13)
1969/12/31/18:00:33.258,(11 13 5 12 10 14 17 17)
1969/12/31/18:00:33.258,(9 10 7 15 -2 -1 1 4)
1969/12/31/18:00:33.287,(-1 1 3 2 4 -2 -1 -3)
1969/12/31/18:00:33.287,(-7 -9 -7 -31 -20 -6 -2 1)
1969/12/31/18:00:33.288,(6 1 1 22 15 0 0 -2)
1969/12/31/18:00:33.288,(-2 0 8 33 22 7 2 0)
1969/12/31/18:00:33.294,(-5 -3 -2 -7 -3 0 -6 -9)
1969/12/31/18:00:33.294,(-4 1 1 -1 12 2 -1 -5)
1969/12/31/18:00:33.302,(0 -2 -8 -31 -19 -3 1 2)
1969/12/31/18:00:33.302,(1 0 -1 5 -10 -9 -12 -3)
1969/12/31/18:00:33.317,(10 7 5 5 4 2 10 8)
1969/12/31/18:00:33.317,(-14 -9 3 11 -5 -5 -4 -5)
1969/12/31/18:00:33.318,(4 5 3 9 5 -1 -6 -8)
1969/12/31/18:00:33.318,(21 13 4 0 20 19 24 29)
1969/12/31/18:00:33.339,(-11 -5 -5 -6 -7 -2 -8 -15)
1969/12/31/18:00:33.339,(-2 -1 1 10 -4 -1 -2 -3)
1969/12/31/18:00:33.340,(-3 -5 -4 -19 -7 -8 0 9)
1969/12/31/18:00:33.340,(4 -2 -14 -33 -17 -6 -6 -10)
1969/12/31/18:00:33.354,(5 3 -1 8 6 1 -1 2)
1969/12/31/18:00:33.354,(0 1 9 29 11 10 9 6)
1969/12/31/18:00:33.362,(2 0 10 13 4 -3 -4 0)
1969/12/31/18:00:33.362,(-8 -5 1 4 -6 -3 -1 -6)
1969/12/31/18:00:33.377,(1 1 -6 -27 -16 -6 2 4)
1969/12/31/18:00:33.377,(-2 -7 -9 -2 2 -3 -6 -7)
1969/12/31/18:00:33.378,(6 2 -10 -31 3 -2 2 4)
1969/12/31/18:00:33.378,(-8 -4 1 13 -1 1 -1 -4)
1969/12/31/18:00:33.399,(29 13 9 16 2 4 8 18)
1969/12/31/18:00:33.399,(-29 -11 7 24 1 -7 -15 -23)
1969/12/31/18:00:33.400,(19 9 -4 -11 2 1 3 5)
1969/12/31/18:00:33.400,(-11 3 6 1 1 4 6 -3)
1969/12/31/18:00:33.423,(-6 -4 -4 -9 0 2 4 10)
1969/12/31/18:00:33.423,(-25 -9 -9 -24 -9 0 -2 -8)
1969/12/31/18:00:33.424,(36 12 3 12 7 12 14 29)
1969/12/31/18:00:33.424,(-4 -12 -4 9 2 -5 -9 -9)
1969/12/31/18:00:33.437,(-14 -6 -13 -46 -11 -1 -4 -7)
1969/12/31/18:00:33.437,(16 3 6 31 0 -5 -2 4)
1969/12/31/18:00:33.438,(-9 0 4 13 -2 0 0 -4)
1969/12/31/18:00:33.438,(5 -1 2 5 0 -6 -8 3)
1969/12/31/18:00:33.459,(-18 -5 8 17 13 1 -6 -18)
1969/12/31/18:00:33.459,(-37 -21 -14 -28 -16 -2 -2 -9)
1969/12/31/18:00:33.467,(59 34 6 -6 -8 -2 -1 1)
1969/12/31/18:00:33.467,(-20 -11 2 24 8 -2 -9 -10)
1969/12/31/18:00:33.483,(0 -1 -8 -12 1 -2 -2 -2)
1969/12/31/18:00:33.483,(-12 -18 -10 -10 -2 -8 -12 -11)
1969/12/31/18:00:33.484,(7 21 6 8 -2 7 13 17)
1969/12/31/18:00:33.484,(4 -17 -5 -24 -10 -6 -1 11)
1969/12/31/18:00:33.497,(18 12 3 8 5 3 6 12)
1969/12/31/18:00:33.497,(7 5 4 6 5 5 6 5)
1969/12/31/18:00:33.498,(-46 -26 -17 -66 -16 -8 -13 -19)
1969/12/31/18:00:33.498,(-2 -2 -7 27 1 -2 0 -3)
1969/12/31/18:00:33.519,(4 4 20 47 6 2 4 14)
1969/12/31/18:00:33.519,(18 23 5 21 9 6 2 1)
1969/12/31/18:00:33.520,(-38 -17 -2 -9 4 2 -4 -19)
1969/12/31/18:00:33.520,(-39 -37 -16 -37 -13 -15 -20 -30)
1969/12/31/18:00:33.550,(19 25 -4 -15 -8 4 6 -6)
1969/12/31/18:00:33.550,(35 37 20 21 20 21 31 65)
1969/12/31/18:00:33.551,(-28 -17 -10 6 -7 -17 -28 -39)
1969/12/31/18:00:33.551,(-40 -2 1 -7 2 3 -3 -33)
1969/12/31/18:00:33.557,(36 6 12 14 14 21 36 56)
1969/12/31/18:00:33.557,(5 3 -3 -14 -4 -5 -6 -9)
1969/12/31/18:00:33.558,(0 -12 -9 -13 -10 -7 -4 1)
1969/12/31/18:00:33.558,(29 25 10 30 6 4 4 9)
1969/12/31/18:00:33.579,(-15 -16 1 18 13 4 -1 -5)
1969/12/31/18:00:33.579,(4 -4 -33 -107 -16 -9 -9 -13)
1969/12/31/18:00:33.580,(28 12 7 9 -20 11 21 35)
1969/12/31/18:00:33.580,(-14 -3 19 61 13 -12 -12 -16)
1969/12/31/18:00:33.602,(-10 0 16 48 11 -9 -18 -22)
1969/12/31/18:00:33.602,(0 -14 -2 2 -3 3 -1 -4)
1969/12/31/18:00:33.603,(25 29 0 7 7 -2 3 12)
1969/12/31/18:00:33.603,(5 3 -8 -54 -5 7 10 13)
1969/12/31/18:00:33.617,(-27 -14 -18 -25 -9 -15 -22 -33)
1969/12/31/18:00:33.617,(-30 -32 10 45 1 -4 -5 -12)
1969/12/31/18:00:33.618,(67 60 19 19 10 17 29 53)
1969/12/31/18:00:33.618,(53 23 2 -5 6 13 17 35)
1969/12/31/18:00:33.639,(3 -8 -19 -29 -9 -3 -1 2)
1969/12/31/18:00:33.639,(-49 -57 -26 -79 -22 -9 -14 -26)
1969/12/31/18:00:33.640,(14 11 -28 -88 -44 -7 1 3)
1969/12/31/18:00:33.640,(14 16 41 95 34 4 5 10)
1969/12/31/18:00:33.662,(-4 10 30 47 34 6 -3 -12)
1969/12/31/18:00:33.662,(23 17 7 -15 -4 2 9 21)
1969/12/31/18:00:33.663,(-26 -24 -1 2 13 -3 -10 -17)
1969/12/31/18:00:33.663,(-8 -7 -10 -43 -21 -2 -6 -5)
1969/12/31/18:00:33.677,(26 7 -16 -17 -24 -12 -11 -4)
1969/12/31/18:00:33.677,(-25 -4 11 33 25 17 15 1)
1969/12/31/18:00:33.678,(4 6 2 9 0 -5 -9 -6)
1969/12/31/18:00:33.678,(-60 -32 -17 -27 -12 -6 -14 -38)
1969/12/31/18:00:33.699,(38 39 2 -17 -7 1 9 21)
1969/12/31/18:00:33.699,(-15 -20 -7 7 -7 -5 -6 -5)
1969/12/31/18:00:33.700,(29 40 22 30 28 22 18 9)
1969/12/31/18:00:33.700,(34 8 -12 -14 -8 -1 5 14)
1969/12/31/18:00:33.722,(-15 -8 3 -14 2 8 6 4)
1969/12/31/18:00:33.722,(1 4 -7 -2 -5 -7 -9 -8)
1969/12/31/18:00:33.723,(-34 -36 -12 -27 -2 -7 -8 -17)
1969/12/31/18:00:33.723,(5 14 15 55 4 1 7 10)
1969/12/31/18:00:33.737,(-2 -1 9 7 6 2 1 0)
1969/12/31/18:00:33.737,(19 15 18 54 20 4 4 4)
1969/12/31/18:00:33.744,(-55 -50 5 21 5 -8 -14 -22)
1969/12/31/18:00:33.744,(57 38 -20 -58 -17 -4 10 33)
1969/12/31/18:00:33.759,(-20 -17 -30 -40 -22 -15 -18 -25)
1969/12/31/18:00:33.759,(21 13 1 3 -7 3 6 8)
1969/12/31/18:00:33.760,(-45 -35 -1 19 -1 -9 -14 -15)
1969/12/31/18:00:33.760,(80 27 2 -16 3 2 7 22)
1969/12/31/18:00:33.782,(-47 -35 -7 1 -4 -6 -11 -25)
1969/12/31/18:00:33.782,(7 15 -3 -10 0 -6 -4 -2)
1969/12/31/18:00:33.783,(-10 -16 1 10 -1 -2 -2 4)
1969/12/31/18:00:33.783,(-10 -6 -4 2 3 7 8 10)
1969/12/31/18:00:33.797,(-10 -6 -5 -14 -5 -3 -1 0)
1969/12/31/18:00:33.797,(32 19 0 2 0 -1 -1 8)
1969/12/31/18:00:33.798,(-62 -38 -2 13 -3 -9 -16 -43)
1969/12/31/18:00:33.798,(31 19 5 -15 1 -2 3 18)
1969/12/31/18:00:33.819,(8 11 0 -14 -5 2 11 7)
1969/12/31/18:00:33.819,(9 5 -6 7 -10 -15 -9 4)
1969/12/31/18:00:33.820,(-10 -4 10 35 18 13 11 1)
1969/12/31/18:00:33.820,(-56 -25 -12 -8 -1 -8 -15 -35)
1969/12/31/18:00:33.843,(35 21 -3 -22 -5 4 11 24)
1969/12/31/18:00:33.843,(-2 1 6 22 1 2 0 -2)
1969/12/31/18:00:33.843,(43 18 7 23 14 5 11 29)
1969/12/31/18:00:33.843,(-69 -30 9 10 1 -4 -23 -53)
1969/12/31/18:00:33.857,(-24 -19 -1 1 -13 -4 -2 -5)
1969/12/31/18:00:33.857,(38 27 4 -11 -1 4 6 14)
1969/12/31/18:00:33.858,(-20 -8 -13 -17 -11 -12 -15 -25)
1969/12/31/18:00:33.858,(-13 -12 -2 -1 12 11 11 9)
1969/12/31/18:00:33.879,(16 3 0 -3 1 4 4 13)
1969/12/31/18:00:33.879,(-24 -14 0 -3 1 0 -2 -13)
1969/12/31/18:00:33.880,(-11 -1 -2 -1 -7 -7 -5 -14)
1969/12/31/18:00:33.880,(-27 -43 -5 -3 1 10 20 19)
1969/12/31/18:00:33.902,(41 40 4 8 3 -5 -5 -7)
1969/12/31/18:00:33.902,(11 4 -1 4 7 6 2 3)
1969/12/31/18:00:33.903,(-8 -10 -1 -4 -6 -6 -9 -8)
1969/12/31/18:00:33.903,(-8 -1 -5 -8 -8 -5 -2 -3)
1969/12/31/18:00:33.917,(-36 -33 -9 -12 -9 -11 -21 -29)
1969/12/31/18:00:33.917,(-49 -20 -3 16 6 2 -1 -12)
1969/12/31/18:00:33.918,(42 43 11 2 2 -2 0 6)
1969/12/31/18:00:33.918,(-10 -2 -4 -9 -5 -2 -3 1)
1969/12/31/18:00:33.939,(6 -4 1 10 0 -3 -3 1)
1969/12/31/18:00:33.940,(-33 -18 -8 -15 -11 -17 -20 -26)
1969/12/31/18:00:33.940,(89 37 -2 -8 3 10 14 35)
1969/12/31/18:00:33.940,(-3 -4 4 11 9 12 11 10)
1969/12/31/18:00:33.963,(-21 10 -4 -1 -3 1 0 -6)
1969/12/31/18:00:33.963,(10 -2 0 -21 -11 -5 -7 0)
1969/12/31/18:00:33.963,(-24 -14 -20 -43 -10 1 4 -2)
1969/12/31/18:00:33.963,(21 16 14 27 4 -3 -3 3)
1969/12/31/18:00:33.977,(7 1 21 59 11 0 -1 2)
1969/12/31/18:00:33.977,(5 7 14 24 11 7 10 13)
1969/12/31/18:00:33.978,(20 7 -4 -3 -8 -4 1 14)
1969/12/31/18:00:33.978,(-30 -9 -13 -30 -1 0 -11 -30)
1969/12/31/18:00:33.999,(-6 -15 -10 -16 1 6 6 11)
1969/12/31/18:00:33.999,(1 2 -2 -10 -12 -9 -9 -13)
1969/12/31/18:00:34.000,(-22 -12 1 4 9 9 6 0)
1969/12/31/18:00:34.000,(-21 -31 -13 -8 -12 -12 -14 -19)
1969/12/31/18:00:34.030,(72 64 23 11 12 14 24 44)
1969/12/31/18:00:34.030,(-9 -13 -7 -14 -8 -6 -2 1)
1969/12/31/18:00:34.031,(36 25 -4 0 5 10 14 16)
1969/12/31/18:00:34.031,(9 9 2 7 3 3 1 9)
1969/12/31/18:00:34.036,(-50 -37 -8 -9 -4 -3 -11 -19)
1969/12/31/18:00:34.036,(10 3 0 2 3 -2 1 0)
1969/12/31/18:00:34.044,(-9 -2 3 11 3 1 1 -2)
1969/12/31/18:00:34.044,(9 16 3 -2 -9 -8 -5 3)
1969/12/31/18:00:34.059,(-6 -15 -5 -11 5 12 15 10)
1969/12/31/18:00:34.060,(28 44 4 9 0 1 7 24)
1969/12/31/18:00:34.060,(-40 -28 1 13 0 -9 -18 -24)
1969/12/31/18:00:34.060,(-3 -4 -7 -19 -2 3 10 6)
1969/12/31/18:00:34.082,(56 33 8 8 9 11 15 31)
1969/12/31/18:00:34.082,(-8 -15 2 7 0 3 -1 -3)
1969/12/31/18:00:34.083,(-23 -17 -1 6 -4 -5 -7 -9)
1969/12/31/18:00:34.084,(24 13 2 -12 -8 -7 -2 11)
1969/12/31/18:00:34.096,(-24 -28 -6 -6 -4 -5 -8 -19)
1969/12/31/18:00:34.096,(-4 4 5 7 2 1 -2 -15)
1969/12/31/18:00:34.104,(39 19 20 18 18 20 33 53)
1969/12/31/18:00:34.104,(6 10 -2 2 -8 -9 -14 -22)
1969/12/31/18:00:34.119,(45 41 6 -1 11 13 22 43)
1969/12/31/18:00:34.119,(-57 -33 -19 -13 -10 -13 -31 -56)
1969/12/31/18:00:34.120,(-40 -22 -1 2 -2 -9 -13 -25)
1969/12/31/18:00:34.120,(2 8 -3 -38 -15 -2 3 6)
1969/12/31/18:00:34.142,(-11 -17 -18 -30 -4 -11 -5 -2)
1969/12/31/18:00:34.142,(27 16 25 70 5 9 13 24)
1969/12/31/18:00:34.143,(8 13 15 30 13 -1 -5 -4)
1969/12/31/18:00:34.143,(-8 -13 2 19 7 0 -5 -7)
1969/12/31/18:00:34.156,(-45 -34 -13 -30 -14 -13 -22 -35)
1969/12/31/18:00:34.156,(24 6 -11 -34 0 4 8 16)
1969/12/31/18:00:34.164,(1 -6 -11 -12 -10 0 -3 -6)
1969/12/31/18:00:34.164,(-3 5 1 6 4 4 1 -1)
1969/12/31/18:00:34.179,(-31 -18 -4 -7 -12 -12 -17 -27)
1969/12/31/18:00:34.179,(-2 1 2 -2 2 2 4 6)
1969/12/31/18:00:34.180,(20 -6 0 5 1 7 15 32)
1969/12/31/18:00:34.180,(9 6 3 2 6 3 -1 -3)
1969/12/31/18:00:34.210,(-19 -9 0 12 -3 -7 -10 -16)
1969/12/31/18:00:34.210,(6 2 1 -7 -5 -4 1 3)
1969/12/31/18:00:34.211,(-37 -27 -18 -28 -18 -14 -20 -31)
1969/12/31/18:00:34.211,(6 3 -3 -13 0 2 6 6)
1969/12/31/18:00:34.216,(-12 -7 5 32 7 2 -3 -6)
1969/12/31/18:00:34.216,(-2 -8 0 5 -1 6 7 6)
1969/12/31/18:00:34.224,(18 20 0 -22 -2 3 7 9)
1969/12/31/18:00:34.224,(-3 -2 3 19 3 2 1 2)
1969/12/31/18:00:34.240,(-5 -2 0 -7 -7 -4 -2 -2)
1969/12/31/18:00:34.240,(42 23 -10 -10 9 9 7 10)
1969/12/31/18:00:34.240,(-7 -5 -6 1 -2 3 1 -5)
1969/12/31/18:00:34.240,(0 0 0 -2 -4 -4 -6 -8)
1969/12/31/18:00:34.262,(-8 -9 -2 5 -1 -5 -3 -3)
1969/12/31/18:00:34.262,(-3 -2 0 -8 -7 -9 -5 4)
1969/12/31/18:00:34.264,(50 41 2 -8 3 5 12 26)
1969/12/31/18:00:34.264,(-10 3 8 13 4 2 -4 -16)
1969/12/31/18:00:34.276,(-14 -16 -5 -1 1 -1 -5 -12)
1969/12/31/18:00:34.276,(0 -7 0 -12 -6 -4 -1 0)
1969/12/31/18:00:34.285,(-23 1 5 14 5 -6 -8 -12)
1969/12/31/18:00:34.285,(20 12 4 5 3 4 11 30)
1969/12/31/18:00:34.299,(2 2 -2 1 -2 3 1 -1)
1969/12/31/18:00:34.299,(-15 -7 -3 -10 -1 0 1 -3)
1969/12/31/18:00:34.308,(-19 -18 -5 -5 -8 -8 -7 -12)
1969/12/31/18:00:34.308,(-8 -11 -8 -4 0 2 3 0)
1969/12/31/18:00:34.323,(-31 -11 6 0 6 14 14 10)
1969/12/31/18:00:34.323,(6 4 3 0 3 -1 -2 1)
1969/12/31/18:00:34.324,(-36 -28 -5 -11 -9 -10 -11 -18)
1969/12/31/18:00:34.324,(-3 -2 -3 0 -1 -1 -1 -9)
1969/12/31/18:00:34.336,(-4 10 5 8 2 2 -3 -19)
1969/12/31/18:00:34.336,(-5 10 7 13 12 8 8 13)
1969/12/31/18:00:34.345,(15 6 8 11 3 0 -7 0)
1969/12/31/18:00:34.345,(-27 -10 -1 0 -3 -2 1 -3)
1969/12/31/18:00:34.359,(10 5 -1 -3 -3 -2 2 4)
1969/12/31/18:00:34.359,(-27 -17 -1 0 0 2 2 -5)
1969/12/31/18:00:34.368,(-22 -14 -4 2 -2 -1 -2 -8)
1969/12/31/18:00:34.368,(6 -2 -3 -5 0 -1 2 9)
1969/12/31/18:00:34.382,(20 12 -3 -5 -1 -3 -3 0)
1969/12/31/18:00:34.382,(5 1 -3 -1 0 2 5 5)
1969/12/31/18:00:34.384,(-16 -10 -5 1 -3 -7 -8 -8)
1969/12/31/18:00:34.384,(8 2 2 2 -1 -3 -1 -1)
1969/12/31/18:00:34.405,(-18 -5 -2 -2 0 3 5 4)
1969/12/31/18:00:34.405,(0 0 5 5 8 8 10 10)
1969/12/31/18:00:34.407,(-4 -2 -5 -7 0 -1 -6 -12)
1969/12/31/18:00:34.407,(11 8 1 0 -2 -3 -1 5)
1969/12/31/18:00:34.419,(-8 -8 0 4 0 -4 -6 -9)
1969/12/31/18:00:34.419,(-13 -12 -3 -5 -8 -7 -9 -9)
1969/12/31/18:00:34.426,(47 67 18 7 8 14 22 37)
1969/12/31/18:00:34.426,(-44 -10 -2 -1 -6 -15 -26 -39)
1969/12/31/18:00:34.450,(-2 -7 -5 -7 -6 -6 -4 3)
1969/12/31/18:00:34.450,(15 10 0 -6 -8 -7 -6 1)
1969/12/31/18:00:34.452,(-5 -15 -8 2 0 -3 0 -5)
1969/12/31/18:00:34.452,(31 13 1 2 9 16 21 27)
1969/12/31/18:00:34.465,(25 14 1 -1 0 4 6 13)
1969/12/31/18:00:34.465,(-11 -11 -5 -2 -5 -11 -12 -21)
1969/12/31/18:00:34.467,(-15 -11 1 0 -2 -3 -6 -10)
1969/12/31/18:00:34.467,(4 6 4 -3 -5 -5 -5 0)
1969/12/31/18:00:34.479,(-6 -11 -5 -2 -2 -6 -6 -7)
1969/12/31/18:00:34.479,(10 -1 -2 12 13 13 12 15)
1969/12/31/18:00:34.486,(1 -3 0 -8 -3 1 2 3)
1969/12/31/18:00:34.486,(8 1 -3 -2 -2 3 3 5)
1969/12/31/18:00:34.502,(6 9 1 -5 -8 -8 -6 -1)
1969/12/31/18:00:34.502,(1 -1 -9 -29 -3 -5 -6 -3)
1969/12/31/18:00:34.504,(-3 -5 -9 -24 -17 -6 0 -2)
1969/12/31/18:00:34.504,(-7 -6 9 35 -18 -7 -3 -8)
1969/12/31/18:00:34.532,(3 5 13 32 37 12 3 1)
1969/12/31/18:00:34.532,(1 0 -3 -15 -8 2 4 2)
1969/12/31/18:00:34.534,(-5 -2 18 13 8 7 2 -2)
1969/12/31/18:00:34.534,(13 12 1 8 21 11 6 10)
1969/12/31/18:00:34.539,(5 -3 -7 -2 4 3 0 1)
1969/12/31/18:00:34.539,(-2 -4 -1 9 -12 -6 -2 -2)
1969/12/31/18:00:34.548,(-7 -13 -26 -21 -1 -14 -11 -10)
1969/12/31/18:00:34.548,(-4 -7 13 5 -22 -5 -1 -2)
1969/12/31/18:00:34.562,(-5 -5 -20 -17 -7 -12 -10 -7)
1969/12/31/18:00:34.562,(2 -7 -39 -74 -30 -4 -1 1)
1969/12/31/18:00:34.564,(-9 -3 4 32 17 5 -1 -8)
1969/12/31/18:00:34.564,(9 17 34 72 33 19 11 11)
1969/12/31/18:00:34.592,(8 11 41 43 21 7 4 4)
1969/12/31/18:00:34.593,(2 9 21 20 -7 -7 -8 -5)
1969/12/31/18:00:34.594,(3 1 7 -10 -22 -9 2 4)
1969/12/31/18:00:34.594,(-6 -21 -60 -65 -1 -9 -8 -6)
1969/12/31/18:00:34.599,(2 -17 -50 -42 -21 -11 -5 1)
1969/12/31/18:00:34.599,(-7 19 64 12 -11 3 -3 -6)
1969/12/31/18:00:34.608,(8 6 -12 25 17 13 4 5)
1969/12/31/18:00:34.608,(-3 -18 -15 -12 2 -3 -2 0)
1969/12/31/18:00:34.622,(-16 -6 -4 -46 -24 -11 -7 -12)
1969/12/31/18:00:34.622,(6 8 -1 -11 3 14 12 9)
1969/12/31/18:00:34.624,(6 20 52 50 15 10 4 5)
1969/12/31/18:00:34.624,(10 10 3 9 9 -4 0 5)
1969/12/31/18:00:34.645,(-1 -11 -17 14 -7 -10 -3 -1)
1969/12/31/18:00:34.645,(-6 -6 -9 -40 3 -3 -1 -3)
1969/12/31/18:00:34.647,(1 2 -3 22 -13 -5 -3 0)
1969/12/31/18:00:34.647,(-2 -9 -18 -4 1 -2 -2 -2)
1969/12/31/18:00:34.659,(3 3 6 -3 -5 -5 -3 0)
1969/12/31/18:00:34.659,(-2 7 28 2 15 15 6 -1)
1969/12/31/18:00:34.668,(6 -7 -55 -38 -1 1 3 3)
1969/12/31/18:00:34.668,(-11 -13 2 14 -7 -10 -6 -4)
1969/12/31/18:00:34.682,(-6 2 14 24 3 3 -2 -6)
1969/12/31/18:00:34.682,(3 3 1 20 8 -6 -1 2)
1969/12/31/18:00:34.684,(-2 1 3 -36 -11 -8 -6 -3)
1969/12/31/18:00:34.684,(5 8 -1 -38 -14 -3 -1 3)
1969/12/31/18:00:34.705,(7 1 6 8 1 8 9 6)
1969/12/31/18:00:34.705,(-5 -5 -9 29 6 -3 -5 -3)
1969/12/31/18:00:34.707,(0 -3 -7 -24 3 5 3 1)
1969/12/31/18:00:34.707,(-1 11 30 73 15 4 -1 -5)
1969/12/31/18:00:34.719,(-3 -8 -15 1 6 -1 -3 0)
1969/12/31/18:00:34.719,(-10 -15 -14 -16 -14 -13 -10 -9)
1969/12/31/18:00:34.728,(2 2 -18 -25 -19 -2 0 1)
1969/12/31/18:00:34.728,(8 -1 -10 -51 -6 8 5 4)
1969/12/31/18:00:34.742,(5 11 15 5 -1 9 4 3)
1969/12/31/18:00:34.742,(8 9 13 61 25 11 6 4)
1969/12/31/18:00:34.744,(-5 -4 9 -11 -10 2 -3 -4)
1969/12/31/18:00:34.744,(-6 2 9 9 17 1 -4 -4)
1969/12/31/18:00:34.765,(8 14 9 21 7 11 5 6)
1969/12/31/18:00:34.765,(1 -11 -17 -2 -2 -8 -6 -1)
1969/12/31/18:00:34.767,(-10 -5 -2 -23 -10 -2 -3 -8)
1969/12/31/18:00:34.767,(-2 -4 -15 -28 -12 5 2 -1)
1969/12/31/18:00:34.779,(-2 4 7 -18 -12 -7 -3 1)
1969/12/31/18:00:34.779,(-1 3 -10 -25 -6 -2 0 0)
1969/12/31/18:00:34.788,(-3 3 27 24 9 3 1 -2)
1969/12/31/18:00:34.788,(2 -1 -10 -1 -1 -3 -3 2)
1969/12/31/18:00:34.803,(-3 -8 0 14 8 -6 -5 -3)
1969/12/31/18:00:34.803,(-5 -4 1 5 5 1 -2 -3)
1969/12/31/18:00:34.804,(-1 -6 -7 8 1 -8 -3 2)
1969/12/31/18:00:34.804,(-5 0 0 -21 -12 -9 -4 -4)
1969/12/31/18:00:34.825,(2 -1 -1 -17 -10 -2 3 0)
1969/12/31/18:00:34.825,(0 -3 -18 6 3 -6 1 1)
1969/12/31/18:00:34.827,(-1 -8 2 19 11 -16 -7 -4)
1969/12/31/18:00:34.827,(-16 -11 0 -9 -9 -14 -6 -11)
1969/12/31/18:00:34.839,(0 -2 -13 -1 -3 -12 4 0)
1969/12/31/18:00:34.839,(13 7 4 28 9 -6 2 4)
1969/12/31/18:00:34.848,(-8 -11 -8 -13 -12 -10 -6 -7)
1969/12/31/18:00:34.848,(-1 0 1 -2 -18 10 7 5)
1969/12/31/18:00:34.862,(9 14 13 20 32 14 1 8)
1969/12/31/18:00:34.862,(-10 -8 -1 -4 -4 9 -4 -4)
1969/12/31/18:00:34.870,(6 7 0 7 5 12 3 6)
1969/12/31/18:00:34.870,(8 -6 -12 -18 -13 1 -1 5)
1969/12/31/18:00:34.885,(-8 -4 -2 -14 -15 0 -4 -5)
1969/12/31/18:00:34.885,(5 2 -3 3 -2 1 2 4)
1969/12/31/18:00:34.887,(-2 0 -3 -38 -4 6 5 2)
1969/12/31/18:00:34.887,(-4 -1 3 29 -4 -2 -2 -3)
