time,.data
1969-12-31 18:00:06.690000000,(2 11 0 0 -4 -2 4 -5)
1969-12-31 18:00:06.690000000,(1 7 5 22 18 3 -3 -4)
1969-12-31 18:00:06.691390682,(-1 -13 -6 -3 -2 0 2 1)
1969-12-31 18:00:06.691390682,(-5 -5 -15 -19 -10 -6 -2 -2)
1969-12-31 18:00:06.699734777,(-4 -4 -7 -8 -6 -1 1 1)
1969-12-31 18:00:06.699734777,(1 9 15 0 -7 -4 -6 -9)
1969-12-31 18:00:06.701125459,(5 3 -2 1 4 -7 -4 3)
1969-12-31 18:00:06.701125459,(1 7 9 -2 -1 -3 0 3)
1969-12-31 18:00:06.730329790,(-4 -4 -2 5 8 1 1 1)
1969-12-31 18:00:06.730329790,(-4 -16 -29 -21 -7 -6 -2 -4)
1969-12-31 18:00:06.731720473,(-1 -1 3 1 0 -2 1 1)
1969-12-31 18:00:06.731720473,(0 4 -2 -2 1 -2 6 7)
1969-12-31 18:00:06.774831628,(2 4 2 7 9 -4 -3 1)
1969-12-31 18:00:06.774831628,(-1 0 -7 -11 -9 -10 -3 -1)
1969-12-31 18:00:06.774831628,(0 0 2 1 2 1 6 7)
1969-12-31 18:00:06.774831628,(-2 -16 -9 -3 -2 -1 -2 -3)
1969-12-31 18:00:06.804035959,(-1 1 5 4 5 -1 -2 2)
1969-12-31 18:00:06.804035959,(-3 15 15 5 -1 0 -1 -5)
1969-12-31 18:00:06.805426642,(-1 -8 -6 -3 -3 1 -2 1)
1969-12-31 18:00:06.805426642,(-3 12 16 5 3 1 -4 -9)
1969-12-31 18:00:06.813770736,(2 -6 -18 -5 -2 1 2 8)
1969-12-31 18:00:06.813770736,(-2 -1 -1 -5 -8 -6 -10 -11)
1969-12-31 18:00:06.815161418,(-13 -18 -8 -3 1 4 8 9)
1969-12-31 18:00:06.815161418,(4 4 2 2 2 -1 -8 -8)
1969-12-31 18:00:06.845756432,(-7 -9 1 1 -1 1 4 1)
1969-12-31 18:00:06.845756432,(2 -13 -20 -13 -7 -1 2 4)
1969-12-31 18:00:06.847147114,(3 6 2 1 -1 -1 -3 -1)
1969-12-31 18:00:06.847147114,(-7 15 12 -3 -4 -5 0 1)
1969-12-31 18:00:06.866616668,(4 3 2 5 3 -2 -1 1)
1969-12-31 18:00:06.866616668,(-5 -7 -9 -6 0 -1 -5 -7)
1969-12-31 18:00:06.868007351,(3 -2 1 2 -2 -3 -11 -12)
1969-12-31 18:00:06.868007351,(-10 -20 -13 -8 -5 0 10 0)
1969-12-31 18:00:06.897211682,(10 17 14 7 4 1 -7 8)
1969-12-31 18:00:06.897211682,(5 4 0 2 1 -3 -9 -1)
1969-12-31 18:00:06.898602364,(-4 -3 -2 -2 -1 -3 -9 -16)
1969-12-31 18:00:06.898602364,(20 1 -4 -2 -1 -1 4 13)
1969-12-31 18:00:06.929197378,(-17 -1 1 -1 0 1 3 -4)
1969-12-31 18:00:06.929197378,(4 -7 -7 -6 -6 -1 3 0)
1969-12-31 18:00:06.930588060,(-21 6 8 8 6 0 -11 -13)
1969-12-31 18:00:06.930588060,(16 6 -4 0 -1 -3 -3 0)
1969-12-31 18:00:06.950057614,(-11 -6 -3 -3 -2 -5 0 -4)
1969-12-31 18:00:06.950057614,(-12 -9 -5 -3 -1 -6 -3 3)
1969-12-31 18:00:06.951448296,(9 3 -1 -3 0 -2 9 13)
1969-12-31 18:00:06.951448296,(-6 -7 -10 -5 0 0 -1 -1)
1969-12-31 18:00:06.983433992,(-2 9 10 9 2 -20 -9 -12)
1969-12-31 18:00:06.984824675,(18 8 -2 -4 -2 1 10 23)
1969-12-31 18:00:06.984824675,(22 13 10 1 2 -2 6 8)
1969-12-31 18:00:06.984824675,(4 -6 3 -1 -2 2 -17 -10)
1969-12-31 18:00:07.012638323,(-52 -21 0 -1 -2 9 -28 -37)
1969-12-31 18:00:07.012638323,(5 -1 4 -2 -7 12 21 9)
1969-12-31 18:00:07.014029006,(24 12 12 9 1 7 -3 9)
1969-12-31 18:00:07.014029006,(48 18 10 9 4 10 10 18)
1969-12-31 18:00:07.033498560,(-45 -25 -8 -6 -8 7 -4 -34)
1969-12-31 18:00:07.033498560,(7 -5 -8 -6 -8 -19 -11 21)
1969-12-31 18:00:07.034889242,(5 -3 -2 -2 -4 3 11 -9)
1969-12-31 18:00:07.034889242,(-47 -20 -12 -7 -5 -6 0 -7)
1969-12-31 18:00:07.064093573,(44 12 4 3 6 0 12 22)
1969-12-31 18:00:07.064093573,(1 4 -1 0 6 24 15 9)
1969-12-31 18:00:07.065484255,(5 0 -14 -13 -15 -28 -15 -14)
1969-12-31 18:00:07.065484255,(10 0 5 8 9 14 -20 1)
1969-12-31 18:00:07.096079269,(-31 -15 -11 -5 -1 12 -2 -18)
1969-12-31 18:00:07.096079269,(18 15 12 2 -6 -21 7 10)
1969-12-31 18:00:07.097469951,(-5 -2 -2 1 3 10 10 12)
1969-12-31 18:00:07.097469951,(-41 -12 -5 -5 -5 -7 21 29)
1969-12-31 18:00:07.116939505,(2 4 2 6 5 4 -1 8)
1969-12-31 18:00:07.116939505,(6 1 -8 -6 2 29 -35 -68)
1969-12-31 18:00:07.118330188,(-57 -32 -10 -5 -14 -57 -18 -25)
1969-12-31 18:00:07.118330188,(78 38 8 0 4 -2 35 64)
1969-12-31 18:00:07.148925201,(-41 -24 -4 -4 -3 17 -19 -44)
1969-12-31 18:00:07.148925201,(-22 7 -2 -3 0 -11 -6 -22)
1969-12-31 18:00:07.150315884,(23 20 6 3 8 42 30 20)
1969-12-31 18:00:07.150315884,(-37 -51 -19 -10 -10 -46 -40 -29)
1969-12-31 18:00:07.180910897,(30 16 1 0 -3 -8 9 23)
1969-12-31 18:00:07.180910897,(-12 -10 -3 2 7 8 -3 -18)
1969-12-31 18:00:07.182301579,(-2 -1 6 3 0 -7 -29 8)
1969-12-31 18:00:07.182301579,(-7 15 10 10 11 20 10 -23)
1969-12-31 18:00:07.200380450,(61 18 6 4 1 -19 -10 40)
1969-12-31 18:00:07.200380450,(-22 -6 2 2 -3 13 10 -2)
1969-12-31 18:00:07.201771133,(21 9 -2 -1 7 29 30 73)
1969-12-31 18:00:07.201771133,(-39 -15 -9 -5 -10 0 -13 -66)
1969-12-31 18:00:07.230975464,(33 21 2 2 7 11 -5 33)
1969-12-31 18:00:07.230975464,(-40 -26 -9 -5 -12 -33 5 -22)
1969-12-31 18:00:07.232366147,(36 12 3 0 2 12 20 25)
1969-12-31 18:00:07.232366147,(-6 15 14 11 14 43 1 -19)
1969-12-31 18:00:07.262961160,(-24 -23 -12 -8 -8 -41 1 15)
1969-12-31 18:00:07.262961160,(13 6 -2 -3 1 22 -9 2)
1969-12-31 18:00:07.264351843,(-41 -33 -12 -3 -3 -5 -11 -26)
1969-12-31 18:00:07.264351843,(33 21 7 4 -9 1 20 29)
1969-12-31 18:00:07.283821397,(9 -4 -4 -1 9 0 6 -2)
1969-12-31 18:00:07.283821397,(-14 -23 -12 -5 -1 -9 -2 11)
1969-12-31 18:00:07.285212079,(2 11 6 5 9 32 -10 -27)
1969-12-31 18:00:07.285212079,(30 22 9 7 1 -23 -54 16)
1969-12-31 18:00:07.314416410,(3 6 -1 -3 -9 -5 27 29)
1969-12-31 18:00:07.314416410,(16 -1 7 5 6 3 -3 14)
1969-12-31 18:00:07.315807092,(2 -5 -9 -10 -5 12 16 4)
1969-12-31 18:00:07.315807092,(10 1 -3 -3 -1 -4 6 14)
1969-12-31 18:00:07.346402106,(7 7 8 7 4 -3 -12 -28)
1969-12-31 18:00:07.346402106,(22 18 6 8 9 -15 -3 -59)
1969-12-31 18:00:07.347792788,(-11 -9 -11 -12 -8 -8 20 5)
1969-12-31 18:00:07.347792788,(-20 -8 -2 -1 4 2 -2 -13)
1969-12-31 18:00:07.368653025,(19 -2 -2 -2 -14 -64 -8 9)
1969-12-31 18:00:07.368653025,(-25 -7 -4 -3 -2 -6 12 5)
1969-12-31 18:00:07.376997119,(3 -2 -3 -2 -1 3 -17 25)
1969-12-31 18:00:07.376997119,(-13 -9 -4 -8 -7 -19 -12 -43)
1969-12-31 18:00:07.397857356,(-14 10 6 5 7 39 14 -27)
1969-12-31 18:00:07.397857356,(47 22 11 8 4 3 -29 47)
1969-12-31 18:00:07.399248038,(-25 -25 -6 -2 -8 -19 -15 -34)
1969-12-31 18:00:07.399248038,(8 6 1 1 5 15 7 18)
1969-12-31 18:00:07.429843052,(-4 6 -6 -10 -9 9 25 17)
1969-12-31 18:00:07.429843052,(-23 -13 2 -2 -3 -1 -8 -8)
1969-12-31 18:00:07.431233734,(-2 4 3 3 2 -11 -20 -48)
1969-12-31 18:00:07.431233734,(11 -9 -9 -8 -6 -15 -12 3)
1969-12-31 18:00:07.450703288,(-25 -2 1 -2 -2 -1 -11 -27)
1969-12-31 18:00:07.450703288,(18 12 -2 -5 -6 -9 9 19)
1969-12-31 18:00:07.452093970,(9 -1 4 3 1 4 8 -3)
1969-12-31 18:00:07.452093970,(-63 -22 -8 -3 -3 -18 10 -57)
1969-12-31 18:00:07.481298301,(6 -7 -6 -4 -4 -16 -20 1)
1969-12-31 18:00:07.481298301,(11 9 3 2 5 24 2 -9)
1969-12-31 18:00:07.482688984,(33 24 17 13 10 5 15 48)
1969-12-31 18:00:07.482688984,(10 3 -2 -1 1 4 5 9)
1969-12-31 18:00:07.513283997,(-9 -17 -13 -11 -9 -5 -31 -24)
1969-12-31 18:00:07.513283997,(-29 -1 3 2 2 6 0 0)
1969-12-31 18:00:07.514674680,(-8 -6 -7 -7 -12 -50 6 -13)
1969-12-31 18:00:07.514674680,(6 0 4 4 1 -1 -4 10)
1969-12-31 18:00:07.534144234,(4 12 1 -3 -1 23 10 5)
1969-12-31 18:00:07.534144234,(1 -8 1 1 1 2 14 27)
1969-12-31 18:00:07.535534916,(-12 0 -2 0 -2 4 -15 -9)
1969-12-31 18:00:07.535534916,(-21 -19 -11 -9 -7 -5 -5 -8)
1969-12-31 18:00:07.567520612,(22 5 -1 -5 -1 10 17 10)
1969-12-31 18:00:07.567520612,(5 -3 -4 -5 -13 -1 17 28)
1969-12-31 18:00:07.567520612,(7 -4 0 1 8 14 -13 43)
1969-12-31 18:00:07.567520612,(-71 -10 -1 0 0 -10 3 -62)
1969-12-31 18:00:07.596724943,(29 1 1 2 8 63 14 -16)
1969-12-31 18:00:07.596724943,(-28 -11 -6 -6 7 -102 -68 -44)
1969-12-31 18:00:07.598115625,(-16 -1 1 14 24 65 43 -11)
1969-12-31 18:00:07.598115625,(24 5 -6 -21 -60 -34 1 13)
1969-12-31 18:00:07.616194497,(-33 -17 -13 -18 -34 2 -18 -30)
1969-12-31 18:00:07.616194497,(0 7 1 -1 -3 19 7 3)
1969-12-31 18:00:07.627319956,(-32 -7 -5 2 46 -3 -36 -94)
1969-12-31 18:00:07.627319956,(21 -7 -1 12 32 27 31 63)
1969-12-31 18:00:07.648180193,(-16 12 9 -6 -41 -34 7 -6)
1969-12-31 18:00:07.648180193,(13 -16 -12 -19 -40 -15 -10 3)
1969-12-31 18:00:07.649570875,(21 9 -1 -11 2 6 2 45)
1969-12-31 18:00:07.649570875,(15 -10 -3 8 13 16 9 -1)
1969-12-31 18:00:07.680165889,(-24 -3 2 11 62 35 -16 -17)
1969-12-31 18:00:07.680165889,(10 6 0 1 -16 -6 14 16)
1969-12-31 18:00:07.681556571,(-13 -12 -4 -12 -40 -45 -36 -16)
1969-12-31 18:00:07.681556571,(4 0 2 5 46 22 3 21)
1969-12-31 18:00:07.699635443,(6 -10 -3 4 -46 -47 4 37)
1969-12-31 18:00:07.699635443,(24 21 7 17 79 95 27 18)
1969-12-31 18:00:07.710760902,(13 -2 -2 10 13 -7 4 7)
1969-12-31 18:00:07.710760902,(-20 4 -8 -24 -102 -80 -39 5)
1969-12-31 18:00:07.733011821,(24 10 6 -18 -52 -29 -1 7)
1969-12-31 18:00:07.733011821,(11 -10 4 9 27 22 26 15)
1969-12-31 18:00:07.734402503,(0 -12 -5 -16 -39 -11 -19 2)
1969-12-31 18:00:07.734402503,(24 7 7 10 54 50 8 4)
1969-12-31 18:00:07.766388199,(28 -14 -47 -3 27 -3 3 25)
1969-12-31 18:00:07.766388199,(11 14 -18 0 44 10 -9 -13)
1969-12-31 18:00:07.767778881,(-41 48 67 22 -38 -4 9 -32)
1969-12-31 18:00:07.767778881,(-45 -55 -45 -25 -22 -12 -26 -52)
1969-12-31 18:00:07.783076388,(-6 16 -7 -5 -19 -52 -22 -47)
1969-12-31 18:00:07.783076388,(-71 -41 -3 -7 -17 2 6 -5)
1969-12-31 18:00:07.794201848,(-8 -33 -21 -7 25 -1 -24 -51)
1969-12-31 18:00:07.794201848,(32 87 75 37 1 12 -7 -14)
1969-12-31 18:00:07.815062083,(35 21 -24 -4 53 50 25 28)
1969-12-31 18:00:07.815062083,(27 -1 37 28 -10 -7 -37 -15)
1969-12-31 18:00:07.816452766,(16 19 3 0 -9 2 33 11)
1969-12-31 18:00:07.816452766,(-48 -100 -69 -24 -5 -5 20 24)
1969-12-31 18:00:07.847047780,(11 18 16 18 53 30 -5 16)
1969-12-31 18:00:07.847047780,(12 5 -53 -21 -58 -53 -21 -16)
1969-12-31 18:00:07.848438462,(-36 0 39 -15 -56 -49 -24 -10)
1969-12-31 18:00:07.848438462,(69 65 51 12 9 26 14 15)
1969-12-31 18:00:07.866517334,(-24 -13 -20 -6 18 4 12 -49)
1969-12-31 18:00:07.866517334,(-24 39 56 18 30 30 46 60)
1969-12-31 18:00:07.888768253,(38 -28 -30 8 13 2 -1 55)
1969-12-31 18:00:07.888768253,(-34 27 -56 -27 21 -2 -41 -66)
1969-12-31 18:00:07.898503030,(2 104 127 65 29 8 1 -14)
1969-12-31 18:00:07.898503030,(48 4 -21 6 11 50 76 95)
1969-12-31 18:00:07.899893712,(-46 -51 -58 -19 -35 -64 -62 -58)
1969-12-31 18:00:07.899893712,(0 -80 -50 -2 23 14 29 34)
1969-12-31 18:00:07.931879408,(22 -87 -66 -46 -104 -26 12 65)
1969-12-31 18:00:07.931879408,(4 61 58 12 8 2 -16 -36)
1969-12-31 18:00:07.933270090,(13 62 0 0 59 46 24 36)
1969-12-31 18:00:07.933270090,(-36 -35 15 1 -20 -21 -15 -56)
1969-12-31 18:00:07.949958280,(18 7 21 9 -3 6 22 69)
1969-12-31 18:00:07.949958280,(40 -75 -111 -60 -30 -4 3 69)
1969-12-31 18:00:07.961083739,(-47 106 101 56 50 22 1 -44)
1969-12-31 18:00:07.961083739,(-4 -3 -2 4 -15 -34 -32 -42)
1969-12-31 18:00:07.981943975,(5 73 64 29 10 11 11 6)
1969-12-31 18:00:07.981943975,(19 -39 -4 -2 -4 -1 11 50)
1969-12-31 18:00:07.983334658,(22 -86 -80 -23 -8 8 7 -3)
1969-12-31 18:00:07.983334658,(-16 -12 -8 -10 18 2 9 25)
1969-12-31 18:00:08.013929671,(-18 -27 -4 1 -12 -5 7 9)
1969-12-31 18:00:08.013929671,(-20 11 12 3 10 -12 -12 -63)
1969-12-31 18:00:08.015320354,(-35 -15 -32 -17 27 8 -33 -51)
1969-12-31 18:00:08.015320354,(39 23 -6 -16 -72 -8 47 27)
1969-12-31 18:00:08.045915367,(23 51 44 17 45 9 -3 -3)
1969-12-31 18:00:08.045915367,(-89 -59 -24 -6 -5 1 -19 -79)
1969-12-31 18:00:08.047306049,(54 77 45 15 -6 14 33 38)
1969-12-31 18:00:08.047306049,(13 -20 -13 -14 -18 -20 -7 22)
1969-12-31 18:00:08.065384921,(4 -85 -71 -13 25 4 -42 -10)
1969-12-31 18:00:08.065384921,(16 47 46 11 -2 27 31 28)
1969-12-31 18:00:08.066775603,(-30 -75 -61 -25 -42 -39 39 -36)
1969-12-31 18:00:08.066775603,(2 -19 12 12 67 7 -85 -20)
1969-12-31 18:00:08.097370617,(-22 52 10 -20 -107 -64 -17 0)
1969-12-31 18:00:08.097370617,(-14 73 75 62 105 46 -18 -29)
1969-12-31 18:00:08.098761299,(56 -56 -104 -50 -74 -34 17 45)
1969-12-31 18:00:08.098761299,(-32 106 122 41 -56 -15 -6 -20)
1969-12-31 18:00:08.130746995,(17 -15 -58 -9 54 23 2 -26)
1969-12-31 18:00:08.130746995,(2 -24 -13 -3 -33 -22 -6 -18)
1969-12-31 18:00:08.132137678,(-41 -55 -23 -13 6 5 -58 -68)
1969-12-31 18:00:08.132137678,(63 -28 -106 -30 53 26 38 58)
1969-12-31 18:00:08.159951326,(-51 76 108 61 26 20 -14 -43)
1969-12-31 18:00:08.161342009,(-1 6 -20 4 -23 -17 23 8)
1969-12-31 18:00:08.161342009,(9 -9 27 19 17 14 32 40)
1969-12-31 18:00:08.161342009,(23 13 -15 24 109 92 22 35)
1969-12-31 18:00:08.180811563,(5 -57 -37 -49 -113 -100 -18 -26)
1969-12-31 18:00:08.180811563,(0 -24 -38 -23 40 -10 -6 -5)
1969-12-31 18:00:08.182202245,(-12 -17 -51 -28 -17 -1 -27 -48)
1969-12-31 18:00:08.182202245,(-42 -12 79 15 -26 -12 10 8)
1969-12-31 18:00:08.212797258,(13 26 -30 19 79 105 83 33)
1969-12-31 18:00:08.212797258,(-63 -45 10 -36 -128 -128 -117 -128)
1969-12-31 18:00:08.214187941,(43 -18 -37 -25 -16 -1 1 42)
1969-12-31 18:00:08.214187941,(16 12 7 8 30 22 31 38)
1969-12-31 18:00:08.233657495,(-10 -18 2 3 26 51 58 72)
1969-12-31 18:00:08.233657495,(-39 30 50 28 19 4 -7 -5)
1969-12-31 18:00:08.233657495,(61 64 65 37 18 21 30 61)
1969-12-31 18:00:08.233657495,(20 -75 -90 -40 -39 -28 -21 -33)
1969-12-31 18:00:08.264252508,(-69 -57 -9 -8 11 -15 -18 -31)
1969-12-31 18:00:08.264252508,(31 -26 -55 -24 -7 12 -18 24)
1969-12-31 18:00:08.265643191,(-21 55 79 31 17 11 20 26)
1969-12-31 18:00:08.265643191,(-12 9 -13 -6 -8 -2 -5 -27)
1969-12-31 18:00:08.296238204,(11 -41 -43 -17 9 -32 -74 -26)
1969-12-31 18:00:08.296238204,(43 -46 -96 -41 -22 15 21 4)
1969-12-31 18:00:08.297628886,(-15 96 113 69 60 55 57 58)
1969-12-31 18:00:08.297628886,(7 -29 -28 0 -17 -15 -17 -10)
1969-12-31 18:00:08.317098440,(-16 -52 -35 -32 -30 -18 -16 -23)
1969-12-31 18:00:08.317098440,(-1 84 74 0 -63 -44 -34 -8)
1969-12-31 18:00:08.318489123,(71 19 -50 -10 30 2 28 40)
1969-12-31 18:00:08.318489123,(-6 49 78 29 9 21 43 38)
1969-12-31 18:00:08.349084136,(-24 -63 -35 -3 -11 1 -75 -91)
1969-12-31 18:00:08.349084136,(-10 7 -1 -3 32 20 47 -19)
1969-12-31 18:00:08.349084136,(4 15 62 24 20 3 -37 5)
1969-12-31 18:00:08.349084136,(34 62 14 -7 -74 -32 6 5)
1969-12-31 18:00:08.379679150,(-39 -57 -33 -18 23 10 25 -28)
1969-12-31 18:00:08.379679150,(19 -36 -17 5 14 18 25 43)
1969-12-31 18:00:08.381069832,(-74 -62 -51 -32 -19 -36 -80 -103)
1969-12-31 18:00:08.381069832,(2 -10 -20 8 58 35 20 8)
1969-12-31 18:00:08.399148704,(29 13 28 18 -2 2 21 34)
1969-12-31 18:00:08.399148704,(-10 72 66 30 62 45 12 18)
1969-12-31 18:00:08.400539386,(-18 27 16 -10 -95 -51 19 7)
1969-12-31 18:00:08.400539386,(40 -59 -103 -52 6 14 -2 30)
1969-12-31 18:00:08.431134400,(-54 63 111 32 -32 -23 -14 -22)
1969-12-31 18:00:08.431134400,(25 -21 -52 -9 -9 -4 23 64)
1969-12-31 18:00:08.432525082,(26 -40 -38 6 36 36 6 -12)
1969-12-31 18:00:08.432525082,(-50 -45 -26 6 29 19 -17 -28)
1969-12-31 18:00:08.463120095,(32 52 -7 -37 -72 -45 -7 29)
1969-12-31 18:00:08.463120095,(-49 -20 16 17 42 -19 -29 -23)
1969-12-31 18:00:08.464510778,(-23 -26 -10 -13 -18 6 12 -39)
1969-12-31 18:00:08.464510778,(-26 49 42 11 -29 -13 -38 -29)
1969-12-31 18:00:08.482589649,(34 -46 -28 6 71 33 -6 -40)
1969-12-31 18:00:08.482589649,(-1 7 -27 -26 -89 -54 0 -21)
1969-12-31 18:00:08.483980332,(2 -27 -20 -5 11 12 2 2)
1969-12-31 18:00:08.483980332,(-30 44 78 38 35 5 -31 -16)
1969-12-31 18:00:08.527091487,(-1 -1 -8 -6 -36 -28 25 22)
1969-12-31 18:00:08.527091487,(13 -33 -40 -18 23 34 -32 -25)
1969-12-31 18:00:08.528482169,(-7 -48 -36 -19 5 4 2 -13)
1969-12-31 18:00:08.528482169,(-7 38 21 3 -25 -40 22 -2)
1969-12-31 18:00:08.547951723,(52 85 65 42 33 -2 -26 -12)
1969-12-31 18:00:08.547951723,(49 -3 -2 28 68 41 26 55)
1969-12-31 18:00:08.550733088,(-21 -41 -24 -36 -66 -45 -38 9)
1969-12-31 18:00:08.550733088,(32 -10 -16 -12 -11 -11 16 19)
1969-12-31 18:00:08.566030595,(-34 -19 -21 -2 23 32 26 36)
1969-12-31 18:00:08.566030595,(26 0 -22 -13 -38 -29 -10 -8)
1969-12-31 18:00:08.567421277,(-6 29 54 35 57 29 -28 -22)
1969-12-31 18:00:08.567421277,(10 10 11 8 8 13 24 27)
1969-12-31 18:00:08.598016291,(32 -7 -33 -22 -35 -23 -9 22)
1969-12-31 18:00:08.598016291,(-21 3 -19 -17 -26 2 17 -3)
1969-12-31 18:00:08.599406973,(-14 -15 21 12 22 11 18 21)
1969-12-31 18:00:08.599406973,(-11 -40 -41 -26 -62 -40 -16 -8)
1969-12-31 18:00:08.630001987,(-2 36 71 46 64 60 45 24)
1969-12-31 18:00:08.630001987,(6 9 8 11 3 24 -2 24)
1969-12-31 18:00:08.631392669,(-16 -29 -46 -19 -45 -44 -7 -8)
1969-12-31 18:00:08.631392669,(-17 4 20 12 79 43 7 -11)
1969-12-31 18:00:08.649471541,(-22 -20 -28 -25 -60 -60 -56 -76)
1969-12-31 18:00:08.649471541,(-33 -47 -24 -29 -44 -18 -1 -38)
1969-12-31 18:00:08.650862223,(8 43 16 4 21 3 18 0)
1969-12-31 18:00:08.650862223,(11 14 29 12 -2 17 11 11)
1969-12-31 18:00:08.682847919,(-1 -17 -16 9 31 9 -1 27)
1969-12-31 18:00:08.682847919,(3 -8 23 13 14 -6 -22 -38)
1969-12-31 18:00:08.682847919,(-15 6 -39 -22 -21 -7 -10 -24)
1969-12-31 18:00:08.682847919,(19 27 26 1 -12 -11 2 4)
1969-12-31 18:00:08.714833615,(-59 -81 -53 -17 23 18 9 -18)
1969-12-31 18:00:08.714833615,(45 14 -3 -7 -21 -22 0 14)
1969-12-31 18:00:08.716224297,(19 78 42 10 13 6 2 20)
1969-12-31 18:00:08.716224297,(-20 -13 12 4 -29 25 34 0)
1969-12-31 18:00:08.732912486,(26 1 -16 3 37 -24 -30 34)
1969-12-31 18:00:08.732912486,(-54 -23 -5 14 7 32 11 -2)
1969-12-31 18:00:08.745428628,(-15 -32 -26 -47 -25 -38 0 32)
1969-12-31 18:00:08.745428628,(-20 -6 -1 -1 -96 -50 -39 -28)
1969-12-31 18:00:08.766288865,(1 -31 -34 22 61 48 6 -17)
1969-12-31 18:00:08.766288865,(-22 -17 3 0 4 -5 20 20)
1969-12-31 18:00:08.767679547,(8 28 26 23 1 3 -11 -14)
1969-12-31 18:00:08.767679547,(6 40 63 35 20 21 -11 -8)
1969-12-31 18:00:08.796883878,(49 25 0 -28 -51 -13 23 89)
1969-12-31 18:00:08.796883878,(-36 -46 -26 -13 -12 -26 7 24)
1969-12-31 18:00:08.799665243,(54 38 7 -1 11 21 7 23)
1969-12-31 18:00:08.799665243,(-4 -31 -26 -16 5 -21 -17 7)
1969-12-31 18:00:08.816353431,(-1 24 6 -5 -17 -2 9 -20)
1969-12-31 18:00:08.816353431,(0 14 13 3 13 28 16 2)
1969-12-31 18:00:08.828869574,(-19 -50 -34 4 62 8 -2 -7)
1969-12-31 18:00:08.828869574,(34 4 -10 -1 8 -4 5 23)
1969-12-31 18:00:08.849729810,(9 32 21 -2 -3 2 0 8)
1969-12-31 18:00:08.849729810,(10 2 6 -24 -24 -22 -11 -8)
1969-12-31 18:00:08.851120493,(-12 -17 7 37 1 21 4 -6)
1969-12-31 18:00:08.851120493,(24 -15 -36 -9 28 11 1 17)
1969-12-31 18:00:08.880324824,(-29 -5 4 -1 -5 8 13 24)
1969-12-31 18:00:08.880324824,(21 22 14 5 -4 -9 12 -22)
1969-12-31 18:00:08.883106189,(1 5 -4 -11 -25 -11 -12 -3)
1969-12-31 18:00:08.883106189,(-15 -35 -24 -11 8 -5 10 4)
1969-12-31 18:00:08.912310520,(27 7 -24 -19 -20 -6 -2 -5)
1969-12-31 18:00:08.912310520,(-29 27 46 27 26 17 12 5)
1969-12-31 18:00:08.915091884,(2 -1 11 7 0 1 -2 -9)
1969-12-31 18:00:08.915091884,(-5 -6 -26 -30 -11 -12 -9 -19)
1969-12-31 18:00:08.933170756,(-11 -10 -4 -33 -36 -17 5 -12)
1969-12-31 18:00:08.933170756,(-51 -36 -4 46 45 11 -22 -22)
1969-12-31 18:00:08.934561438,(-53 -23 -4 17 38 16 -4 -24)
1969-12-31 18:00:08.934561438,(-3 -15 -7 4 -4 -12 -7 -16)
1969-12-31 18:00:08.963765769,(2 12 7 -20 -45 23 -5 -14)
1969-12-31 18:00:08.963765769,(54 31 6 -5 9 -72 -2 4)
1969-12-31 18:00:08.966547134,(-72 -31 -10 -2 3 40 12 -36)
1969-12-31 18:00:08.966547134,(18 -5 -17 -16 -9 -12 -5 27)
1969-12-31 18:00:08.981844641,(-33 -12 4 12 27 10 -5 -26)
1969-12-31 18:00:08.981844641,(32 17 2 -13 -32 -8 -28 -55)
1969-12-31 18:00:08.995751465,(-8 -3 -6 -15 -17 -7 10 -37)
1969-12-31 18:00:08.995751465,(68 38 17 7 9 1 8 -6)
1969-12-31 18:00:09.016611702,(-82 -53 -20 -4 -10 -16 16 -64)
1969-12-31 18:00:09.016611702,(-73 -45 -26 -22 -16 -7 -80 -77)
1969-12-31 18:00:09.018002384,(85 26 18 7 7 15 40 89)
1969-12-31 18:00:09.018002384,(-28 23 7 1 -4 0 -4 -10)
1969-12-31 18:00:09.047206715,(77 30 2 9 5 -13 -8 14)
1969-12-31 18:00:09.047206715,(-1 4 -6 -4 -1 5 0 13)
1969-12-31 18:00:09.049988080,(7 0 14 9 8 9 19 63)
1969-12-31 18:00:09.049988080,(-20 -22 -18 -8 -16 -22 -14 -16)
1969-12-31 18:00:09.090317870,(-13 -20 -3 7 14 11 -1 -24)
1969-12-31 18:00:09.090317870,(99 63 22 10 10 0 14 97)
1969-12-31 18:00:09.091708553,(12 8 -13 -15 -32 -35 -41 -38)
1969-12-31 18:00:09.091708553,(10 4 19 14 18 18 22 46)
1969-12-31 18:00:09.100052647,(39 13 -2 -2 2 -11 -22 -28)
1969-12-31 18:00:09.100052647,(20 -14 -16 -11 -8 9 4 12)
1969-12-31 18:00:09.102834012,(49 21 18 11 8 8 18 46)
1969-12-31 18:00:09.102834012,(-25 14 10 6 2 1 -9 -38)
1969-12-31 18:00:09.130647661,(-42 -33 -28 -16 -9 -13 -24 -15)
1969-12-31 18:00:09.130647661,(20 17 15 6 3 19 25 47)
1969-12-31 18:00:09.133429026,(-9 9 -2 -4 -11 -19 -21 -44)
1969-12-31 18:00:09.133429026,(-84 -51 -24 -17 -8 -4 -17 -50)
1969-12-31 18:00:09.150117215,(79 57 41 33 24 21 36 87)
1969-12-31 18:00:09.150117215,(-74 -43 -19 -11 -8 -6 -11 -46)
1969-12-31 18:00:09.170977451,(-23 -28 -19 -13 -11 -10 -14 -38)
1969-12-31 18:00:09.170977451,(68 40 21 13 8 12 18 33)
1969-12-31 18:00:09.182102910,(-41 -21 -18 -13 -12 -16 -17 -8)
1969-12-31 18:00:09.182102910,(14 4 4 3 4 9 13 12)
1969-12-31 18:00:09.184884275,(22 1 -5 -2 -4 -4 0 13)
1969-12-31 18:00:09.184884275,(-21 -16 -2 1 1 1 -3 -10)
1969-12-31 18:00:09.214088605,(9 28 13 7 7 7 11 16)
1969-12-31 18:00:09.214088605,(3 -7 2 1 -2 4 3 -12)
1969-12-31 18:00:09.216869971,(-10 -5 -1 -5 -9 -8 -8 -4)
1969-12-31 18:00:09.216869971,(-14 -3 -3 -2 0 -1 2 13)
1969-12-31 18:00:09.233558160,(-10 -22 -10 -4 -1 -1 -1 -2)
1969-12-31 18:00:09.233558160,(11 12 -13 -7 -3 0 2 3)
1969-12-31 18:00:09.255809079,(-4 6 23 5 -3 -7 -10 -13)
1969-12-31 18:00:09.255809079,(-6 1 -10 -9 -3 3 2 1)
1969-12-31 18:00:09.265543856,(22 16 11 10 14 11 11 18)
1969-12-31 18:00:09.265543856,(7 9 19 11 -2 -3 -3 -12)
1969-12-31 18:00:09.298920234,(-8 -19 -25 -16 -6 -3 0 10)
1969-12-31 18:00:09.298920234,(-9 -3 0 1 -1 -2 -5 -17)
1969-12-31 18:00:09.300310917,(12 -8 -4 0 1 2 8 8)
1969-12-31 18:00:09.300310917,(-11 2 8 0 -1 -3 -4 -8)
1969-12-31 18:00:09.316999106,(13 26 9 2 3 6 2 3)
1969-12-31 18:00:09.316999106,(-3 -45 -45 -23 -11 -5 17 -4)
1969-12-31 18:00:09.318389788,(-3 47 47 18 8 0 -18 0)
1969-12-31 18:00:09.318389788,(-3 17 28 16 10 9 6 0)
1969-12-31 18:00:09.329515248,(1 -33 -31 -6 -9 -14 -14 -5)
1969-12-31 18:00:09.329515248,(-2 23 11 1 1 5 -1 -2)
1969-12-31 18:00:09.348984802,(-10 -33 -23 -3 3 5 -10 -7)
1969-12-31 18:00:09.348984802,(-9 -20 -31 -22 -11 -9 3 -9)
1969-12-31 18:00:09.358719579,(-4 -1 10 3 3 5 1 1)
1969-12-31 18:00:09.358719579,(9 -8 -25 0 2 2 16 15)
1969-12-31 18:00:09.380970498,(-4 22 25 7 1 4 9 1)
1969-12-31 18:00:09.380970498,(-2 27 22 8 4 5 12 7)
1969-12-31 18:00:09.383751863,(-8 -43 -37 -14 -7 -14 -48 -24)
1969-12-31 18:00:09.383751863,(5 3 -22 -14 -3 -1 16 13)
1969-12-31 18:00:09.411565511,(-2 25 42 17 4 -1 4 3)
1969-12-31 18:00:09.411565511,(1 -27 -23 -10 -5 -2 -19 -9)
1969-12-31 18:00:09.414346876,(-9 21 32 19 7 5 15 -5)
1969-12-31 18:00:09.414346876,(-12 -10 -1 -3 0 1 -5 -9)
1969-12-31 18:00:09.432425747,(5 -15 -29 -12 -6 -5 4 3)
1969-12-31 18:00:09.432425747,(-11 -4 -3 -9 -6 -4 -3 -9)
1969-12-31 18:00:09.451895301,(9 -3 -9 -6 -3 0 9 14)
1969-12-31 18:00:09.451895301,(-14 -45 -1 6 -1 -4 -26 -17)
1969-12-31 18:00:09.465802126,(12 72 48 10 2 1 10 3)
1969-12-31 18:00:09.465802126,(10 -36 -29 -6 2 6 18 13)
1969-12-31 18:00:09.467192808,(-2 54 47 15 4 4 -3 -5)
1969-12-31 18:00:09.467192808,(-15 -65 -39 -26 -13 -7 -10 -9)
1969-12-31 18:00:09.495006457,(6 11 -4 2 1 -4 -16 -8)
1969-12-31 18:00:09.495006457,(-1 49 44 24 9 5 -1 -8)
1969-12-31 18:00:09.497787822,(5 -13 -6 3 4 6 19 13)
1969-12-31 18:00:09.497787822,(1 32 29 10 0 -2 -1 3)
1969-12-31 18:00:09.515866693,(-17 -63 -49 -27 -10 -7 -16 -12)
1969-12-31 18:00:09.515866693,(-6 8 16 9 2 -1 -12 -10)
1969-12-31 18:00:09.549243071,(-10 -27 -22 -12 -5 0 1 -7)
1969-12-31 18:00:09.549243071,(-1 27 26 7 2 4 1 -4)
1969-12-31 18:00:09.550633754,(-3 -59 -49 -23 -11 -1 -3 -2)
1969-12-31 18:00:09.550633754,(8 41 24 13 1 5 -4 -4)
1969-12-31 18:00:09.552024436,(7 -21 -33 -19 -10 0 2 4)
1969-12-31 18:00:09.553415119,(-11 16 -10 -16 -7 -2 -9 -12)
1969-12-31 18:00:09.578447402,(18 20 37 21 7 0 -1 0)
1969-12-31 18:00:09.578447402,(2 -14 -13 27 13 7 8 13)
1969-12-31 18:00:09.581228767,(5 -38 -28 -9 -1 -8 2 8)
1969-12-31 18:00:09.581228767,(-4 27 30 24 5 -4 -2 3)
1969-12-31 18:00:09.599307639,(-16 -34 -42 -27 -9 -10 4 5)
1969-12-31 18:00:09.599307639,(1 -4 -2 -10 -2 -12 -6 2)
1969-12-31 18:00:09.609042416,(-3 -4 -10 0 5 -6 5 6)
1969-12-31 18:00:09.609042416,(-2 -2 -16 -13 0 -10 0 6)
1969-12-31 18:00:09.631293335,(-6 10 4 4 3 -7 9 3)
1969-12-31 18:00:09.631293335,(-2 -36 -49 -30 -6 -8 3 7)
1969-12-31 18:00:09.634074700,(5 27 26 4 4 -2 3 3)
1969-12-31 18:00:09.634074700,(9 5 9 7 4 -3 -7 -2)
1969-12-31 18:00:09.663279030,(3 21 11 3 -3 -2 3 1)
1969-12-31 18:00:09.663279030,(-14 -83 -37 -28 -13 -1 -2 0)
1969-12-31 18:00:09.666060395,(22 75 59 22 6 2 -7 -7)
1969-12-31 18:00:09.666060395,(7 -3 8 24 9 7 3 -1)
1969-12-31 18:00:09.682748584,(-7 -1 14 14 4 5 4 -1)
1969-12-31 18:00:09.684139267,(-2 -6 -16 -7 -4 3 -7 -6)
1969-12-31 18:00:09.692483361,(-13 -10 21 0 -7 1 -6 -11)
1969-12-31 18:00:09.692483361,(9 13 -4 -12 -3 5 -1 -1)
1969-12-31 18:00:09.714734280,(0 -23 -2 7 -3 5 -5 -5)
1969-12-31 18:00:09.714734280,(-2 0 -8 -9 -6 0 -5 -9)
1969-12-31 18:00:09.717515645,(-9 5 -25 -14 -5 -1 -1 -1)
1969-12-31 18:00:09.717515645,(7 18 24 11 3 4 -4 -2)
1969-12-31 18:00:09.745329294,(-16 -41 -14 -9 -2 1 -4 -5)
1969-12-31 18:00:09.745329294,(4 2 8 3 -3 1 -4 -6)
1969-12-31 18:00:09.748110659,(-8 -14 -5 -2 -5 0 -1 -5)
1969-12-31 18:00:09.748110659,(-3 -3 2 5 -1 2 -4 -4)
1969-12-31 18:00:09.764798848,(0 3 -7 -7 -3 0 -1 0)
1969-12-31 18:00:09.764798848,(2 28 9 1 -1 -1 3 4)
1969-12-31 18:00:09.777314990,(-5 -16 0 6 2 -2 0 1)
1969-12-31 18:00:09.777314990,(-9 -15 -21 -15 -5 -9 1 6)
1969-12-31 18:00:09.819035461,(10 31 2 1 3 -9 6 11)
1969-12-31 18:00:09.819035461,(-7 -11 -22 -14 -4 -19 3 9)
1969-12-31 18:00:09.821816827,(2 37 18 12 8 -10 8 10)
1969-12-31 18:00:09.821816827,(3 4 -4 -2 6 -7 3 9)
1969-12-31 18:00:09.862146618,(-8 -20 -16 -16 0 -3 0 2)
1969-12-31 18:00:09.862146618,(-3 -3 14 8 5 5 3 0)
1969-12-31 18:00:09.864927983,(8 51 -5 -12 -4 1 -2 -4)
1969-12-31 18:00:09.864927983,(2 6 15 9 0 5 -6 -9)
1969-12-31 18:00:09.866318665,(0 -2 -3 -2 -3 5 -3 -7)
1969-12-31 18:00:09.866318665,(2 13 8 -4 -3 1 -4 -8)
1969-12-31 18:00:09.871881395,(-5 -40 -16 -7 -5 0 -2 -2)
1969-12-31 18:00:09.871881395,(1 0 6 4 -1 -2 -2 -3)
1969-12-31 18:00:09.883006854,(2 9 0 2 -2 2 -2 -7)
1969-12-31 18:00:09.883006854,(1 4 4 6 1 4 -8 -7)
1969-12-31 18:00:09.884397537,(-2 -13 -1 2 -3 6 -2 -2)
1969-12-31 18:00:09.884397537,(0 1 7 4 -3 4 -2 -4)
1969-12-31 18:00:09.924727327,(-8 -14 -6 -7 -7 -7 9 7)
1969-12-31 18:00:09.924727327,(2 -2 10 17 4 -8 -10 -11)
1969-12-31 18:00:09.926118009,(1 -5 -1 0 -2 -2 0 0)
1969-12-31 18:00:09.926118009,(-3 1 -14 -14 -4 -1 -6 -7)
1969-12-31 18:00:09.931680739,(-1 5 5 3 -2 3 0 -1)
1969-12-31 18:00:09.931680739,(-1 -1 2 1 0 4 -1 -1)
1969-12-31 18:00:09.967838482,(2 4 -3 -3 -3 3 -2 -1)
1969-12-31 18:00:09.967838482,(-5 -23 -8 -1 -3 2 0 0)
1969-12-31 18:00:09.969229165,(-1 8 3 5 2 2 -7 -7)
1969-12-31 18:00:09.969229165,(-2 8 6 -5 -2 2 4 1)
1969-12-31 18:00:10.008168273,(-1 -16 -5 1 0 0 -1 -3)
1969-12-31 18:00:10.008168273,(1 8 4 -1 0 1 -1 -1)
1969-12-31 18:00:10.009558955,(-1 -4 -4 -5 -3 -1 -3 -4)
1969-12-31 18:00:10.009558955,(0 4 0 -5 -3 -4 -2 -1)
1969-12-31 18:00:10.049888745,(-3 -9 -6 -2 2 -1 1 3)
1969-12-31 18:00:10.049888745,(-1 1 0 -4 -1 -2 0 2)
1969-12-31 18:00:10.051279428,(-2 -2 -7 -5 -1 -6 -5 -1)
1969-12-31 18:00:10.051279428,(0 -1 -4 -7 -3 0 2 4)
1969-12-31 18:00:10.054060793,(-2 -4 -3 -1 -2 -3 0 1)
1969-12-31 18:00:10.054060793,(1 0 2 1 0 -3 0 2)
1969-12-31 18:00:10.091609218,(4 6 8 2 0 -2 -3 -1)
1969-12-31 18:00:10.091609218,(-6 1 2 3 -1 -2 -1 -6)
1969-12-31 18:00:10.094390583,(-7 -17 -14 -12 -4 -2 0 -1)
1969-12-31 18:00:10.094390583,(0 -4 9 9 1 1 -1 -2)
1969-12-31 18:00:10.095781266,(-2 -3 -3 1 1 1 -1 -3)
1969-12-31 18:00:10.095781266,(4 7 6 6 1 2 0 2)
1969-12-31 18:00:10.102734678,(-1 -3 -4 -2 -2 -3 -3 0)
1969-12-31 18:00:10.102734678,(-2 -6 -5 -1 0 -3 -1 0)
1969-12-31 18:00:10.104125360,(-1 -1 -1 -2 1 -2 0 0)
1969-12-31 18:00:10.104125360,(-1 1 -2 -4 -3 -3 0 3)
1969-12-31 18:00:10.112469455,(0 -2 -2 -5 -2 -1 -2 -1)
1969-12-31 18:00:10.112469455,(0 3 -2 -4 -3 -3 -1 1)
1969-12-31 18:00:10.131939009,(1 -1 -1 2 1 -3 -3 -3)
1969-12-31 18:00:10.131939009,(-3 -1 -6 -8 -4 -4 -4 -2)
1969-12-31 18:00:10.133329691,(0 -1 0 3 -1 0 1 1)
1969-12-31 18:00:10.133329691,(-2 3 -1 -2 -1 -1 -3 -4)
1969-12-31 18:00:10.173659481,(2 0 -4 -2 -2 0 3 4)
1969-12-31 18:00:10.173659481,(-9 -11 -9 -5 -2 -3 -2 -5)
1969-12-31 18:00:10.176440846,(1 3 1 -3 -2 -1 0 1)
1969-12-31 18:00:10.176440846,(-1 1 0 0 2 -1 -1 -1)
1969-12-31 18:00:10.204254495,(0 -2 0 2 4 1 0 2)
1969-12-31 18:00:10.204254495,(2 4 1 0 -1 0 0 1)
1969-12-31 18:00:10.207035860,(1 4 4 3 3 0 1 1)
1969-12-31 18:00:10.207035860,(1 2 -1 0 1 -1 0 0)
1969-12-31 18:00:10.216770637,(-6 -11 -5 -3 -2 -2 -1 -3)
1969-12-31 18:00:10.216770637,(0 2 -1 5 2 0 2 0)
1969-12-31 18:00:10.218161318,(-2 -2 1 0 0 -1 -2 -2)
1969-12-31 18:00:10.218161318,(0 -3 1 -1 0 -3 0 -2)
1969-12-31 18:00:10.247365650,(-1 -2 -2 -3 -4 -2 -3 -3)
1969-12-31 18:00:10.247365650,(-1 5 0 -5 0 0 -1 -2)
1969-12-31 18:00:10.250147015,(1 2 1 4 1 0 -1 -1)
1969-12-31 18:00:10.250147015,(-2 1 -1 -4 -6 -2 -2 -2)
1969-12-31 18:00:10.277960664,(-3 -4 -5 -5 -3 -1 -3 -4)
1969-12-31 18:00:10.277960664,(0 0 2 -1 -1 1 0 0)
1969-12-31 18:00:10.280742028,(-2 -3 -5 -2 -1 -1 0 -1)
1969-12-31 18:00:10.280742028,(-1 2 1 -1 -3 0 0 1)
1969-12-31 18:00:10.300211582,(-3 -2 -2 3 2 1 1 -1)
1969-12-31 18:00:10.300211582,(-1 0 -2 1 0 1 -1 -1)
1969-12-31 18:00:10.301602265,(-1 -3 3 0 -2 0 -2 -1)
1969-12-31 18:00:10.301602265,(-1 -3 -3 -2 -3 -2 -2 -1)
1969-12-31 18:00:10.301602265,(-4 -23 -1 3 -1 3 -1 0)
1969-12-31 18:00:10.301602265,(2 7 2 0 -3 -2 -5 -6)
1969-12-31 18:00:10.304383630,(9 -7 -24 -14 -7 1 0 5)
1969-12-31 18:00:10.304383630,(-8 -12 -1 -4 -6 -1 9 10)
1969-12-31 18:00:10.344713420,(2 0 0 3 0 -7 -13 -9)
1969-12-31 18:00:10.344713420,(9 35 23 11 7 -2 -8 -10)
1969-12-31 18:00:10.347494785,(-9 -18 -11 -7 -3 -4 1 1)
1969-12-31 18:00:10.347494785,(-2 2 -8 -7 -3 -2 16 11)
1969-12-31 18:00:10.347494785,(5 5 10 10 7 -6 -14 -13)
1969-12-31 18:00:10.347494785,(-4 -9 -18 -8 -2 -6 -2 -5)
1969-12-31 18:00:10.353057515,(-1 12 5 -2 -3 -1 7 7)
1969-12-31 18:00:10.353057515,(6 -3 0 5 5 -3 -17 -13)
1969-12-31 18:00:10.373917751,(-1 -4 -9 0 -2 0 5 10)
1969-12-31 18:00:10.373917751,(-6 2 4 0 -3 -5 -3 -2)
1969-12-31 18:00:10.376699116,(3 8 11 0 1 2 -1 -4)
1969-12-31 18:00:10.376699116,(4 -12 -8 -1 -4 4 -2 5)
1969-12-31 18:00:10.393387305,(5 16 11 3 0 6 4 -7)
1969-12-31 18:00:10.393387305,(1 -1 4 0 -4 0 -1 -1)
1969-12-31 18:00:10.405903447,(-38 -18 -6 -6 -2 0 2 -5)
1969-12-31 18:00:10.405903447,(25 1 -6 -4 -4 -6 -10 -2)
1969-12-31 18:00:10.426763683,(-26 -9 -5 -5 -3 -3 5 10)
1969-12-31 18:00:10.426763683,(22 0 -5 -3 -1 -6 6 6)
1969-12-31 18:00:10.428154366,(-3 -6 -14 -5 3 -11 5 10)
1969-12-31 18:00:10.428154366,(-10 6 -4 -4 3 -23 -4 -16)
1969-12-31 18:00:10.457358697,(17 11 10 0 5 9 13 22)
1969-12-31 18:00:10.457358697,(-59 -26 -2 -3 2 29 12 -13)
1969-12-31 18:00:10.460140062,(19 6 11 4 -9 -22 -24 -5)
1969-12-31 18:00:10.460140062,(-8 5 16 8 3 44 0 -28)
1969-12-31 18:00:10.476828251,(14 2 5 1 -10 -3 2 7)
1969-12-31 18:00:10.476828251,(7 9 6 6 2 19 9 16)
1969-12-31 18:00:10.489344393,(-12 -1 -2 -2 -3 34 -19 -42)
1969-12-31 18:00:10.489344393,(-1 -14 -2 4 -8 -31 16 24)
1969-12-31 18:00:10.511595311,(-32 -14 0 5 8 17 -6 -20)
1969-12-31 18:00:10.511595311,(45 14 -3 -5 -3 1 13 14)
1969-12-31 18:00:10.512985994,(-25 -1 -1 -2 0 -29 -34 -22)
1969-12-31 18:00:10.512985994,(2 0 -1 1 0 -17 -19 7)
1969-12-31 18:00:10.540799642,(28 4 -7 -8 -2 12 28 17)
1969-12-31 18:00:10.540799642,(-17 -11 -9 -5 -6 -13 -10 -26)
1969-12-31 18:00:10.543581007,(6 2 4 1 2 3 3 1)
1969-12-31 18:00:10.543581007,(35 12 -5 -2 2 11 -1 17)
1969-12-31 18:00:10.560269196,(-96 -31 -7 -4 -2 -10 -16 -28)
1969-12-31 18:00:10.560269196,(15 3 -7 -4 2 1 -10 6)
1969-12-31 18:00:10.572785338,(12 -8 -1 -1 -2 -19 21 9)
1969-12-31 18:00:10.572785338,(-23 -7 -1 -2 -7 -33 -9 -15)
1969-12-31 18:00:10.593645575,(20 10 0 0 5 12 -1 12)
1969-12-31 18:00:10.593645575,(-10 -14 -11 -12 -5 33 22 -9)
1969-12-31 18:00:10.596426940,(33 17 10 10 5 -7 7 47)
1969-12-31 18:00:10.596426940,(-32 -7 -4 0 0 -16 -15 -26)
1969-12-31 18:00:10.624240588,(26 3 4 1 -4 -26 -11 9)
1969-12-31 18:00:10.624240588,(-23 -10 -7 -4 -8 -41 -11 -12)
1969-12-31 18:00:10.627021953,(18 12 0 -1 5 44 30 25)
1969-12-31 18:00:10.627021953,(-13 -12 -2 -1 6 37 8 4)
1969-12-31 18:00:10.643710142,(-1 2 -6 -7 -13 -38 -21 -21)
1969-12-31 18:00:10.643710142,(9 0 3 2 4 39 9 15)
1969-12-31 18:00:10.656226284,(-6 7 1 -1 -1 -16 -5 -21)
1969-12-31 18:00:10.656226284,(24 4 -2 0 5 10 9 7)
1969-12-31 18:00:10.699337439,(-7 2 5 3 5 13 18 -2)
1969-12-31 18:00:10.699337439,(31 18 4 5 -3 -47 -57 -13)
1969-12-31 18:00:10.700728122,(4 2 -3 -3 -2 14 7 8)
1969-12-31 18:00:10.700728122,(-14 -25 -3 0 -4 1 22 6)
1969-12-31 18:00:10.709072216,(-6 -15 -11 -7 -6 1 -21 -18)
1969-12-31 18:00:10.709072216,(-7 15 10 8 5 -6 3 -55)
1969-12-31 18:00:10.711853581,(-32 -16 -12 -4 -1 19 -25 28)
1969-12-31 18:00:10.711853581,(68 36 16 9 3 6 20 47)
1969-12-31 18:00:10.727151088,(11 1 -16 -14 -20 -57 -12 -17)
1969-12-31 18:00:10.727151088,(-36 -15 0 0 -1 2 3 12)
1969-12-31 18:00:10.739667230,(2 4 -1 -4 1 5 -7 -24)
1969-12-31 18:00:10.739667230,(-16 -13 -5 -4 -6 -4 34 41)
1969-12-31 18:00:10.760527466,(11 12 5 5 11 50 12 6)
1969-12-31 18:00:10.760527466,(27 4 -5 -7 -8 -34 4 42)
1969-12-31 18:00:10.770262243,(3 -5 0 0 -1 -16 19 -2)
1969-12-31 18:00:10.770262243,(6 -5 -8 -11 -5 15 19 23)
1969-12-31 18:00:10.791122479,(20 23 15 12 17 47 -26 12)
1969-12-31 18:00:10.791122479,(-32 -32 -13 -8 -9 -16 -5 -53)
1969-12-31 18:00:10.793903844,(-21 -9 -4 -7 -13 -2 0 -42)
1969-12-31 18:00:10.793903844,(-9 4 -4 -1 2 -6 -40 -8)
1969-12-31 18:00:10.823108175,(-8 11 10 8 -1 -21 -19 -40)
1969-12-31 18:00:10.823108175,(7 -3 0 1 2 8 12 -16)
1969-12-31 18:00:10.824498858,(-38 -14 -12 -10 -7 -8 -22 -67)
1969-12-31 18:00:10.824498858,(15 6 5 1 0 17 7 18)
1969-12-31 18:00:10.842577729,(-11 6 -5 -7 -7 -9 16 -5)
1969-12-31 18:00:10.842577729,(37 7 7 6 9 10 12 61)
1969-12-31 18:00:10.852312506,(-1 16 9 6 7 6 17 5)
1969-12-31 18:00:10.852312506,(-49 -30 -3 -2 -4 -30 -50 -98)
1969-12-31 18:00:10.874563425,(17 12 -2 -3 -6 12 17 8)
1969-12-31 18:00:10.874563425,(-18 -5 0 1 5 6 -32 -28)
1969-12-31 18:00:10.877344790,(39 -1 -5 -3 -3 -1 13 48)
1969-12-31 18:00:10.877344790,(-3 3 -4 -5 18 7 -15 -5)
1969-12-31 18:00:10.928800040,(-9 -14 -3 5 10 59 41 17)
1969-12-31 18:00:10.928800040,(-25 5 3 3 11 -64 -16 -12)
1969-12-31 18:00:10.931581405,(11 -5 -5 -7 -44 1 -10 -9)
1969-12-31 18:00:10.931581405,(8 4 0 -1 -10 11 12 28)
1969-12-31 18:00:10.932972087,(-27 -12 -1 2 43 15 -12 -36)
1969-12-31 18:00:10.932972087,(31 9 1 16 84 67 39 59)
1969-12-31 18:00:10.938534817,(33 6 6 8 6 4 3 -16)
1969-12-31 18:00:10.938534817,(-22 6 -6 -28 -105 -101 -58 -57)
1969-12-31 18:00:10.958004371,(-21 -10 -6 -18 -15 -37 -16 11)
1969-12-31 18:00:10.959395053,(-2 1 -1 -11 -31 17 6 -12)
1969-12-31 18:00:10.960785736,(0 5 5 14 92 52 1 -1)
1969-12-31 18:00:10.960785736,(-7 -9 -5 14 42 51 36 -14)
1969-12-31 18:00:10.989990067,(-4 -17 -3 -1 -33 -69 -40 8)
1969-12-31 18:00:10.989990067,(26 8 -2 0 -11 -11 10 47)
1969-12-31 18:00:10.991380749,(-7 -5 1 -6 -34 -25 16 74)
1969-12-31 18:00:10.991380749,(-5 19 11 20 70 46 23 17)
1969-12-31 18:00:11.009459621,(14 -4 4 28 40 34 5 -6)
1969-12-31 18:00:11.009459621,(11 -3 -15 -39 -110 -53 -19 2)
1969-12-31 18:00:11.019194398,(-31 -17 -26 -32 -28 -41 -25 -36)
1969-12-31 18:00:11.019194398,(-27 -7 30 19 65 54 3 -14)
1969-12-31 18:00:11.041445316,(32 11 -15 2 6 23 15 12)
1969-12-31 18:00:11.041445316,(-25 -21 10 -8 -80 -72 -38 -26)
1969-12-31 18:00:11.044226681,(11 14 -9 -2 11 18 9 38)
1969-12-31 18:00:11.044226681,(-20 23 36 -10 -55 -55 -29 -28)
1969-12-31 18:00:11.073431012,(-39 -24 6 5 36 17 -2 -38)
1969-12-31 18:00:11.074821695,(20 16 -16 18 73 58 41 77)
1969-12-31 18:00:11.076212377,(-50 -13 13 3 -15 -20 -24 -78)
1969-12-31 18:00:11.076212377,(18 2 -26 1 17 22 5 39)
1969-12-31 18:00:11.094291249,(15 -10 -24 -18 28 19 24 25)
1969-12-31 18:00:11.094291249,(-33 -9 -5 -1 -58 -24 -2 -26)
1969-12-31 18:00:11.102635343,(32 11 42 27 87 76 0 87)
1969-12-31 18:00:11.102635343,(27 -9 -20 -6 -75 -68 -11 6)
1969-12-31 18:00:11.124886262,(20 59 68 3 -86 -84 -7 -12)
1969-12-31 18:00:11.124886262,(-15 -48 -43 -10 34 2 -28 -46)
1969-12-31 18:00:11.127667627,(52 -63 -81 -23 0 21 58 54)
1969-12-31 18:00:11.127667627,(27 79 82 35 44 40 -10 48)
1969-12-31 18:00:11.156871958,(-7 -56 -59 -22 -15 -16 -1 21)
1969-12-31 18:00:11.156871958,(-8 36 55 38 44 30 -13 -46)
1969-12-31 18:00:11.159653323,(-43 19 42 20 28 -9 -15 -47)
1969-12-31 18:00:11.159653323,(-11 -67 -62 -44 -50 -27 -8 -19)
1969-12-31 18:00:11.176341512,(-9 -56 -23 -11 -23 -10 -9 -75)
1969-12-31 18:00:11.176341512,(-83 -5 -48 -48 -37 -49 -28 -61)
1969-12-31 18:00:11.186076289,(33 95 91 90 32 19 24 39)
1969-12-31 18:00:11.186076289,(-24 -93 -116 -36 33 50 17 54)
1969-12-31 18:00:11.208327208,(-22 47 16 -3 -60 -47 -12 -20)
1969-12-31 18:00:11.208327208,(-8 2 37 5 15 22 2 57)
1969-12-31 18:00:11.211108573,(15 -28 -54 -32 -27 -23 51 66)
1969-12-31 18:00:11.211108573,(-1 83 65 14 8 -12 -10 -75)
1969-12-31 18:00:11.240312904,(48 13 13 31 77 71 51 119)
1969-12-31 18:00:11.240312904,(0 -45 -4 -7 -13 1 -16 -68)
1969-12-31 18:00:11.241703586,(10 -32 -55 -37 -40 -35 -20 22)
1969-12-31 18:00:11.241703586,(-56 -15 -22 8 16 18 -1 -90)
1969-12-31 18:00:11.259782458,(-2 14 37 -8 -23 -30 -10 2)
1969-12-31 18:00:11.259782458,(-23 -53 -45 2 89 86 56 6)
1969-12-31 18:00:11.294549518,(-41 102 104 25 -25 -16 -8 -93)
1969-12-31 18:00:11.294549518,(23 -5 -9 -17 -70 -56 -11 -2)
1969-12-31 18:00:11.295940201,(-13 -82 -102 -53 -37 -32 -66 -72)
1969-12-31 18:00:11.295940201,(-7 104 82 28 37 31 65 58)
1969-12-31 18:00:11.297330883,(38 -19 -30 -11 -30 -4 -19 49)
1969-12-31 18:00:11.297330883,(74 13 7 19 77 45 26 43)
1969-12-31 18:00:11.323753849,(-53 -29 -11 5 9 18 33 -15)
1969-12-31 18:00:11.323753849,(34 -38 -39 -39 -98 -89 -49 60)
1969-12-31 18:00:11.325144532,(-46 -31 -55 -41 -33 -22 -23 -83)
1969-12-31 18:00:11.326535214,(59 29 26 21 -3 -4 45 87)
1969-12-31 18:00:11.341832721,(-32 37 90 45 57 35 -16 -5)
1969-12-31 18:00:11.341832721,(44 -18 -51 -1 52 48 29 16)
1969-12-31 18:00:11.355739545,(-11 72 86 38 -14 -34 -53 -63)
1969-12-31 18:00:11.355739545,(2 15 2 2 12 10 -17 -3)
1969-12-31 18:00:11.375209099,(-10 -44 -39 -11 7 23 17 -9)
1969-12-31 18:00:11.375209099,(6 -24 -33 -16 -33 -32 -43 -20)
1969-12-31 18:00:11.377990464,(-17 -43 9 20 69 44 9 -9)
1969-12-31 18:00:11.377990464,(14 -31 -29 19 54 41 15 29)
1969-12-31 18:00:11.407194795,(55 33 -2 -10 -80 -53 37 113)
1969-12-31 18:00:11.407194795,(-1 111 74 -25 -94 -55 4 -38)
1969-12-31 18:00:11.408585477,(15 -128 -128 -44 33 24 -38 -3)
1969-12-31 18:00:11.408585477,(-44 22 15 -16 11 9 32 34)
1969-12-31 18:00:11.426664349,(-19 97 57 52 53 11 -23 -3)
1969-12-31 18:00:11.426664349,(5 -89 -51 22 52 40 10 -5)
1969-12-31 18:00:11.439180491,(41 29 -14 -6 15 0 -1 -6)
1969-12-31 18:00:11.439180491,(-28 45 43 4 -82 -50 0 16)
1969-12-31 18:00:11.460040727,(31 -45 -49 -15 0 -9 -30 -55)
1969-12-31 18:00:11.460040727,(-16 40 63 33 18 29 15 6)
1969-12-31 18:00:11.462822092,(-16 -20 -27 -27 -52 -64 -10 21)
1969-12-31 18:00:11.462822092,(4 -51 -52 -24 -9 8 -1 -40)
1969-12-31 18:00:11.490635741,(17 -3 7 8 31 32 16 21)
1969-12-31 18:00:11.490635741,(-42 -25 18 11 47 30 -27 -68)
1969-12-31 18:00:11.493417105,(12 4 -26 -13 -85 -45 42 25)
1969-12-31 18:00:11.493417105,(-33 85 110 27 39 22 -12 -53)
1969-12-31 18:00:11.510105295,(36 3 -24 -14 -33 -50 -52 10)
1969-12-31 18:00:11.510105295,(7 -40 -49 20 107 77 16 -2)
1969-12-31 18:00:11.522621436,(15 -55 -64 -43 -97 -77 -13 1)
1969-12-31 18:00:11.522621436,(-36 38 48 4 -18 -20 6 -5)
1969-12-31 18:00:11.542090990,(-15 56 41 0 1 10 2 -14)
1969-12-31 18:00:11.542090990,(21 6 -4 8 9 4 -10 14)
1969-12-31 18:00:11.544872355,(13 12 12 28 71 43 32 45)
1969-12-31 18:00:11.544872355,(30 -124 -128 -43 -9 4 7 -26)
1969-12-31 18:00:11.574076686,(-34 37 60 17 13 18 5 3)
1969-12-31 18:00:11.574076686,(9 72 34 19 -14 -16 -13 14)
1969-12-31 18:00:11.576858051,(-3 -11 15 -1 -7 -9 11 11)
1969-12-31 18:00:11.576858051,(9 -8 -17 -18 -84 -76 -46 22)
1969-12-31 18:00:11.592155558,(2 -28 -15 6 25 38 11 -21)
1969-12-31 18:00:11.592155558,(51 -22 -58 -3 19 31 35 47)
1969-12-31 18:00:11.606062382,(-35 43 42 -29 -69 -58 -28 -8)
1969-12-31 18:00:11.606062382,(-26 -32 -25 -34 -36 -71 -26 -45)
1969-12-31 18:00:11.626922618,(0 -118 -73 -55 -42 -32 -6 22)
1969-12-31 18:00:11.626922618,(-24 50 21 9 70 70 60 18)
1969-12-31 18:00:11.628313301,(37 108 17 48 76 55 16 51)
1969-12-31 18:00:11.628313301,(-31 -1 63 10 -53 -25 -15 14)
1969-12-31 18:00:11.658908314,(2 105 80 30 41 1 -4 -25)
1969-12-31 18:00:11.658908314,(1 -100 -65 -32 -41 -5 0 26)
1969-12-31 18:00:11.660298997,(-10 21 12 -3 15 22 11 -21)
1969-12-31 18:00:11.660298997,(-12 -26 -40 3 21 17 12 4)
1969-12-31 18:00:11.689503328,(9 -34 -60 -11 -2 10 16 12)
1969-12-31 18:00:11.689503328,(17 15 57 23 3 2 -22 -9)
1969-12-31 18:00:11.690894010,(-13 -26 -15 -6 1 -31 -2 -6)
1969-12-31 18:00:11.690894010,(1 69 49 12 -42 9 -23 12)
1969-12-31 18:00:11.708972882,(18 1 -6 12 90 74 49 18)
1969-12-31 18:00:11.710363564,(-10 -38 -34 -38 -120 -110 -44 -34)
1969-12-31 18:00:11.711754247,(5 -99 -69 -26 50 34 -2 14)
1969-12-31 18:00:11.711754247,(11 45 42 43 75 87 41 82)
1969-12-31 18:00:11.740958578,(-12 92 55 24 -79 -77 -23 -25)
1969-12-31 18:00:11.740958578,(43 -70 -56 -16 -20 5 74 80)
1969-12-31 18:00:11.743739942,(-7 73 59 11 -11 -17 -64 -73)
1969-12-31 18:00:11.743739942,(-31 -22 -24 6 50 21 -10 -41)
1969-12-31 18:00:11.760428132,(-4 -100 -68 -16 27 47 -2 -6)
1969-12-31 18:00:11.760428132,(-37 0 -47 -7 21 -5 6 -27)
1969-12-31 18:00:11.772944273,(-17 35 21 -21 -96 -72 -34 -57)
1969-12-31 18:00:11.772944273,(-3 2 -37 -3 34 22 -11 -33)
1969-12-31 18:00:11.792413827,(-14 -25 -9 -15 1 -7 -20 -26)
1969-12-31 18:00:11.792413827,(-8 -25 -5 -4 -61 -38 -15 -23)
1969-12-31 18:00:11.795195192,(9 -58 -58 -24 -35 3 26 41)
1969-12-31 18:00:11.795195192,(57 -31 -57 -17 34 22 10 -49)
1969-12-31 18:00:11.824399523,(-29 93 97 89 -1 -15 -27 -29)
1969-12-31 18:00:11.824399523,(-21 -35 -50 -24 1 -18 -57 -46)
1969-12-31 18:00:11.827180888,(-9 12 39 22 21 26 13 -15)
1969-12-31 18:00:11.827180888,(25 -86 -53 -19 4 1 20 44)
1969-12-31 18:00:11.843869077,(20 -25 -82 -50 -25 -20 10 4)
1969-12-31 18:00:11.843869077,(75 125 75 55 103 77 57 88)
1969-12-31 18:00:11.856385219,(-65 4 56 21 -73 -86 -75 -71)
1969-12-31 18:00:11.856385219,(-36 -61 -42 -29 -33 -32 -43 -80)
1969-12-31 18:00:11.877245455,(-10 -73 -63 -33 -2 17 37 16)
1969-12-31 18:00:11.877245455,(-17 66 62 3 -60 -55 -66 -25)
1969-12-31 18:00:11.878636138,(58 -29 -35 19 120 99 57 49)
1969-12-31 18:00:11.878636138,(12 -10 23 6 -39 -45 -10 18)
1969-12-31 18:00:11.907840469,(46 98 31 1 20 5 -5 0)
1969-12-31 18:00:11.907840469,(-47 -29 0 -11 -44 -27 -25 -34)
1969-12-31 18:00:11.910621834,(5 -35 -35 -5 13 35 28 29)
1969-12-31 18:00:11.910621834,(-3 -6 -6 40 105 75 32 -12)
1969-12-31 18:00:11.925919340,(20 -32 -18 6 5 -19 -5 53)
1969-12-31 18:00:11.925919340,(2 5 8 -50 -73 -51 -6 -36)
1969-12-31 18:00:11.938435482,(0 19 -29 -3 28 -10 -18 -1)
1969-12-31 18:00:11.938435482,(-17 2 4 33 33 23 18 18)
1969-12-31 18:00:11.959295719,(-12 100 103 33 -19 19 36 22)
1969-12-31 18:00:11.959295719,(-30 -50 -24 2 33 0 -1 -21)
1969-12-31 18:00:11.962077084,(-3 -46 -18 -12 -37 -13 -24 7)
1969-12-31 18:00:11.962077084,(18 -22 -65 -32 -7 -10 -13 -13)
1969-12-31 18:00:11.991281415,(4 -13 -9 7 75 79 28 16)
1969-12-31 18:00:11.991281415,(-79 -30 31 3 -83 -88 -35 -50)
1969-12-31 18:00:11.992672097,(34 61 36 12 -7 18 21 -9)
1969-12-31 18:00:11.992672097,(1 -19 -16 -2 36 22 -4 27)
1969-12-31 18:00:12.021876428,(-2 -12 -27 -26 -79 -39 -4 11)
1969-12-31 18:00:12.021876428,(30 15 -3 10 57 29 -4 16)
1969-12-31 18:00:12.024657793,(-22 -23 6 5 16 6 28 -18)
1969-12-31 18:00:12.024657793,(-44 -9 18 -20 -52 -33 -18 -14)
1969-12-31 18:00:12.044127347,(-22 -1 8 -2 3 5 -18 -34)
1969-12-31 18:00:12.044127347,(5 23 -15 -9 17 17 -5 5)
1969-12-31 18:00:12.046908712,(27 -47 -54 -25 -46 -41 4 10)
1969-12-31 18:00:12.046908712,(76 97 59 35 -12 9 18 45)
1969-12-31 18:00:12.074722360,(-62 -41 23 -1 43 15 -4 -40)
1969-12-31 18:00:12.074722360,(37 27 48 37 28 40 9 33)
1969-12-31 18:00:12.083066455,(-12 -3 -3 -18 -43 -46 -5 21)
1969-12-31 18:00:12.083066455,(2 -15 -28 -26 -40 -37 -9 -12)
1969-12-31 18:00:12.094191914,(-1 -60 -54 -23 -22 -17 -21 -19)
1969-12-31 18:00:12.094191914,(6 15 -46 -9 45 28 -22 0)
1969-12-31 18:00:12.106708056,(1 26 39 20 20 35 28 10)
1969-12-31 18:00:12.106708056,(-46 -38 20 3 -8 -12 2 -10)
1969-12-31 18:00:12.126177610,(48 51 28 20 27 24 30 88)
1969-12-31 18:00:12.126177610,(16 9 -4 -4 -37 -32 -12 -13)
1969-12-31 18:00:12.134521705,(-47 -36 -10 -2 22 14 -44 -69)
1969-12-31 18:00:12.135912387,(-3 -33 -53 -40 -52 -35 4 -10)
1969-12-31 18:00:12.158163306,(31 49 10 0 -2 -5 -3 12)
1969-12-31 18:00:12.158163306,(-24 -27 8 7 -5 9 9 -19)
1969-12-31 18:00:12.159553988,(1 38 31 30 75 55 10 29)
1969-12-31 18:00:12.159553988,(-27 -25 -4 -25 -29 -39 -34 -30)
1969-12-31 18:00:12.176242177,(-10 -102 -84 -41 -70 -57 -9 -31)
1969-12-31 18:00:12.177632860,(43 34 -52 -9 0 -4 2 23)
1969-12-31 18:00:12.199883779,(-52 3 75 45 100 96 8 -53)
1969-12-31 18:00:12.199883779,(35 109 63 29 -72 -74 8 5)
1969-12-31 18:00:12.209618555,(-34 -70 -36 -22 10 12 -12 -32)
1969-12-31 18:00:12.209618555,(31 -4 -4 -18 -40 -50 -8 10)
1969-12-31 18:00:12.217962650,(17 0 -10 4 37 41 18 44)
1969-12-31 18:00:12.217962650,(-10 -11 0 8 36 25 7 4)
1969-12-31 18:00:12.241604252,(-7 -27 -43 -43 -36 -28 -7 -3)
1969-12-31 18:00:12.241604252,(14 7 28 4 -8 22 14 23)
1969-12-31 18:00:12.244385616,(30 61 6 22 12 -4 23 27)
1969-12-31 18:00:12.244385616,(-6 -15 28 25 17 8 -11 8)
1969-12-31 18:00:12.272199265,(28 30 -2 -2 -16 -9 -6 16)
1969-12-31 18:00:12.272199265,(-19 -12 9 -26 25 26 6 -18)
1969-12-31 18:00:12.274980630,(-11 -5 3 10 -44 -69 -45 -7)
1969-12-31 18:00:12.274980630,(-42 -68 -48 5 -2 -8 -20 -57)
1969-12-31 18:00:12.293059501,(18 -1 -9 8 21 16 5 6)
1969-12-31 18:00:12.293059501,(-18 27 29 31 84 67 14 -6)
1969-12-31 18:00:12.301403596,(-26 12 24 -14 -87 -71 -3 8)
1969-12-31 18:00:12.302794278,(39 11 -6 -38 -1 7 2 59)
1969-12-31 18:00:12.325045197,(3 -13 -5 -11 -20 -13 0 -12)
1969-12-31 18:00:12.325045197,(-31 -2 5 1 13 4 27 6)
1969-12-31 18:00:12.327826562,(19 -26 -7 42 53 44 29 14)
1969-12-31 18:00:12.327826562,(-8 37 13 4 16 14 -23 11)
1969-12-31 18:00:12.355640211,(-9 1 30 15 -13 -14 9 18)
1969-12-31 18:00:12.355640211,(-1 -12 -41 -21 -15 -13 -1 -9)
1969-12-31 18:00:12.358421575,(22 -44 -45 -33 1 3 -7 -2)
1969-12-31 18:00:12.358421575,(27 42 13 2 -23 0 12 9)
1969-12-31 18:00:12.375109765,(-21 22 37 10 19 2 10 22)
1969-12-31 18:00:12.375109765,(13 47 67 42 -7 -3 -7 -1)
1969-12-31 18:00:12.384844542,(0 -8 -23 -89 -104 -42 -24 -26)
1969-12-31 18:00:12.384844542,(-1 -32 -14 81 114 47 27 35)
1969-12-31 18:00:12.407095460,(41 33 1 19 5 25 0 -8)
1969-12-31 18:00:12.407095460,(-57 -51 -21 0 13 36 9 -4)
1969-12-31 18:00:12.408486143,(-16 -15 -24 -38 -63 -59 -29 -29)
1969-12-31 18:00:12.408486143,(17 23 14 -41 -43 -40 -46 -15)
1969-12-31 18:00:12.439081156,(20 5 13 71 21 -11 27 57)
1969-12-31 18:00:12.439081156,(-7 -19 -4 18 13 -10 -3 -3)
1969-12-31 18:00:12.440471839,(17 10 -6 -13 12 39 15 -2)
1969-12-31 18:00:12.440471839,(-18 -8 4 -14 14 12 -3 -13)
1969-12-31 18:00:12.461332075,(-65 -28 -3 -9 6 -2 -17 -41)
1969-12-31 18:00:12.461332075,(-13 -7 -14 -26 -45 -36 -36 -55)
1969-12-31 18:00:12.469676170,(95 11 -23 2 43 25 19 61)
1969-12-31 18:00:12.469676170,(-100 -5 59 17 -9 -13 -18 -66)
1969-12-31 18:00:12.490536406,(-24 4 0 -10 -18 -10 -15 -18)
1969-12-31 18:00:12.490536406,(2 3 4 1 -3 4 26 19)
1969-12-31 18:00:12.491927089,(-67 -27 -14 9 13 -2 -21 -71)
1969-12-31 18:00:12.491927089,(49 3 -25 -14 -1 9 22 9)
1969-12-31 18:00:12.522522102,(-3 -13 -10 -27 -25 -6 -9 -29)
1969-12-31 18:00:12.522522102,(0 8 21 16 23 -5 -9 9)
1969-12-31 18:00:12.522522102,(-30 -16 -12 -17 -15 2 -1 10)
1969-12-31 18:00:12.522522102,(1 2 -19 -43 -57 -12 4 5)
1969-12-31 18:00:12.541991656,(-11 -12 0 14 -14 -20 -10 -7)
1969-12-31 18:00:12.541991656,(24 4 -13 40 54 20 3 12)
1969-12-31 18:00:12.553117115,(16 24 33 41 9 13 16 12)
1969-12-31 18:00:12.553117115,(32 21 4 -8 1 -3 9 24)
1969-12-31 18:00:12.573977352,(-13 -16 -8 -23 -25 0 -8 -12)
1969-12-31 18:00:12.573977352,(20 -7 -15 -24 -32 -19 1 20)
1969-12-31 18:00:12.575368034,(-70 -49 -4 -4 14 8 -4 -27)
1969-12-31 18:00:12.575368034,(21 39 -6 -9 -3 0 -5 -53)
1969-12-31 18:00:12.617088507,(-8 -6 -3 -11 7 -10 -28 -47)
1969-12-31 18:00:12.617088507,(-43 -24 -13 -17 -22 -13 0 -14)
1969-12-31 18:00:12.618479189,(-28 17 17 15 22 16 9 -21)
1969-12-31 18:00:12.618479189,(27 -6 -8 2 9 5 1 41)
1969-12-31 18:00:12.639339426,(-5 -25 -27 -36 -15 51 28 -10)
1969-12-31 18:00:12.639339426,(48 29 15 -20 -22 -62 -18 5)
1969-12-31 18:00:12.639339426,(79 43 26 66 45 4 15 47)
1969-12-31 18:00:12.639339426,(-26 -40 -12 33 16 1 -17 -34)
1969-12-31 18:00:12.657418297,(17 -11 -1 6 10 -7 -19 4)
1969-12-31 18:00:12.657418297,(31 13 5 -13 -23 6 1 6)
1969-12-31 18:00:12.658808980,(21 11 4 -24 -10 7 11 37)
1969-12-31 18:00:12.658808980,(39 13 -2 2 9 3 4 26)
1969-12-31 18:00:12.689403993,(-37 -18 -14 -7 0 -11 -7 -16)
1969-12-31 18:00:12.689403993,(17 15 15 -1 -2 13 14 14)
1969-12-31 18:00:12.690794676,(46 32 20 14 13 4 8 32)
1969-12-31 18:00:12.690794676,(-1 6 10 10 11 18 14 19)
1969-12-31 18:00:12.708873547,(-15 -33 -21 -19 -18 -30 -21 13)
1969-12-31 18:00:12.708873547,(-14 -13 -1 3 1 6 5 13)
1969-12-31 18:00:12.719999007,(-41 -28 -16 -8 -3 0 -11 -21)
1969-12-31 18:00:12.719999007,(30 3 -5 -5 6 12 23 48)
1969-12-31 18:00:12.740859243,(35 48 22 13 7 -1 5 1)
1969-12-31 18:00:12.740859243,(24 20 12 15 8 6 5 19)
1969-12-31 18:00:12.742249925,(-122 -72 -32 -25 -23 -24 -40 -79)
1969-12-31 18:00:12.742249925,(12 15 -2 -8 -4 6 13 -1)
1969-12-31 18:00:12.783970398,(-8 9 11 14 12 0 12 22)
1969-12-31 18:00:12.783970398,(14 2 -1 1 1 4 -2 -2)
1969-12-31 18:00:12.783970398,(24 22 3 -4 -5 2 4 5)
1969-12-31 18:00:12.785361081,(-32 -21 -6 -4 -3 -2 4 -7)
1969-12-31 18:00:12.792314493,(30 11 2 -1 3 -1 1 11)
1969-12-31 18:00:12.792314493,(-21 -16 -4 0 -3 -2 -8 -16)
1969-12-31 18:00:12.803439952,(15 9 0 -3 2 4 7 15)
1969-12-31 18:00:12.803439952,(0 -6 1 3 5 -1 -6 0)
1969-12-31 18:00:12.825690871,(-2 0 -1 -4 -4 -5 -2 -1)
1969-12-31 18:00:12.825690871,(1 -4 -7 -6 -4 0 -1 -3)
1969-12-31 18:00:12.827081554,(-1 -12 -15 -8 -3 -6 -5 3)
1969-12-31 18:00:12.827081554,(-14 -1 0 -4 -2 -1 -1 -10)
1969-12-31 18:00:12.856285885,(5 12 21 16 10 4 4 2)
1969-12-31 18:00:12.856285885,(-16 -8 -5 1 -2 1 -1 -12)
1969-12-31 18:00:12.857676567,(10 2 -5 -5 -5 -2 -3 12)
1969-12-31 18:00:12.857676567,(-25 -8 -8 -5 -3 -2 0 -12)
1969-12-31 18:00:12.875755439,(23 25 16 6 5 4 10 26)
1969-12-31 18:00:12.875755439,(-11 -18 -2 1 2 1 -11 -16)
1969-12-31 18:00:12.886880898,(11 4 2 -2 -3 -5 -4 -5)
1969-12-31 18:00:12.886880898,(-18 -12 -10 -7 -4 -2 2 -1)
1969-12-31 18:00:12.907741134,(-2 0 -11 -6 -1 -5 -1 -1)
1969-12-31 18:00:12.907741134,(5 13 5 1 0 0 -6 -21)
1969-12-31 18:00:12.909131817,(-10 -9 6 3 3 5 6 -3)
1969-12-31 18:00:12.909131817,(-14 10 14 7 1 -3 6 -7)
1969-12-31 18:00:12.939726830,(1 -15 -12 -2 -2 -3 -7 -8)
1969-12-31 18:00:12.939726830,(2 -7 -12 -6 -5 -3 0 3)
1969-12-31 18:00:12.941117513,(4 2 -6 -5 -3 -3 -13 -9)
1969-12-31 18:00:12.941117513,(16 8 7 4 1 1 5 3)
1969-12-31 18:00:12.959196384,(-8 -11 -3 7 3 2 9 10)
1969-12-31 18:00:12.959196384,(6 -24 -41 -20 -5 -3 -6 2)
1969-12-31 18:00:12.970321844,(-11 80 93 32 8 2 7 -6)
1969-12-31 18:00:12.970321844,(11 -15 -18 -7 -6 -3 -9 0)
1969-12-31 18:00:12.991182080,(-9 13 24 11 4 0 -3 -8)
1969-12-31 18:00:12.991182080,(-14 -33 -27 -13 -6 -3 -9 -4)
1969-12-31 18:00:12.992572762,(6 -30 -31 -11 -2 4 8 1)
1969-12-31 18:00:12.992572762,(-3 24 23 7 3 4 8 1)
1969-12-31 18:00:13.035683918,(8 6 12 1 -5 -10 -12 8)
1969-12-31 18:00:13.035683918,(-6 15 15 4 1 -3 5 -5)
1969-12-31 18:00:13.037074600,(9 -26 -28 -12 -5 -2 0 0)
1969-12-31 18:00:13.037074600,(-7 -12 -12 -3 2 -2 -14 -4)
1969-12-31 18:00:13.042637330,(6 4 -26 -15 -5 -1 8 6)
1969-12-31 18:00:13.042637330,(-11 5 33 15 8 2 6 2)
1969-12-31 18:00:13.053762789,(3 15 12 8 -1 -3 -12 -1)
1969-12-31 18:00:13.053762789,(0 -11 -2 3 1 1 10 -4)
1969-12-31 18:00:13.074623026,(-2 -16 -19 -11 -4 -1 1 -4)
1969-12-31 18:00:13.074623026,(-6 -34 -39 -18 -9 -4 -3 -3)
1969-12-31 18:00:13.076013708,(0 22 35 10 0 -2 -4 0)
1969-12-31 18:00:13.076013708,(6 -4 -9 -1 1 0 -1 -1)
1969-12-31 18:00:13.106608722,(1 27 26 5 -1 -3 -3 4)
1969-12-31 18:00:13.106608722,(3 10 14 10 3 6 1 3)
1969-12-31 18:00:13.106608722,(-9 -32 -28 -11 -4 -1 4 -1)
1969-12-31 18:00:13.106608722,(-4 -50 -48 -28 -14 -6 -11 -7)
1969-12-31 18:00:13.126078276,(3 35 26 13 6 5 2 -7)
1969-12-31 18:00:13.126078276,(11 12 11 10 4 5 9 7)
1969-12-31 18:00:13.137203735,(5 -9 -32 -10 -7 -8 -32 -8)
1969-12-31 18:00:13.137203735,(-19 20 22 8 1 0 -3 -5)
1969-12-31 18:00:13.158063971,(-7 -40 -22 -5 0 2 -8 -8)
1969-12-31 18:00:13.158063971,(-4 8 1 -3 -1 2 -3 -3)
1969-12-31 18:00:13.159454654,(6 -9 -13 -9 -1 2 5 6)
1969-12-31 18:00:13.159454654,(-1 -9 -12 -11 -7 -4 -5 -3)
1969-12-31 18:00:13.190049667,(11 23 22 11 6 3 7 6)
1969-12-31 18:00:13.190049667,(-17 -33 -10 -1 -2 -5 -3 -6)
1969-12-31 18:00:13.190049667,(17 24 -9 -7 -2 0 2 1)
1969-12-31 18:00:13.190049667,(-15 2 20 16 6 4 2 -2)
1969-12-31 18:00:13.212300585,(-2 -11 5 0 -2 7 5 -3)
1969-12-31 18:00:13.212300585,(-8 -25 -31 -21 -11 -6 -12 -5)
1969-12-31 18:00:13.222035363,(-3 27 33 13 3 3 1 -6)
1969-12-31 18:00:13.222035363,(2 -2 0 -3 -2 -1 -2 0)
1969-12-31 18:00:13.242895599,(10 40 20 15 7 3 -6 -4)
1969-12-31 18:00:13.242895599,(6 8 2 -2 -3 -1 -4 -1)
1969-12-31 18:00:13.244286282,(-11 -26 -2 1 1 6 9 1)
1969-12-31 18:00:13.244286282,(-6 -8 -11 -11 -7 -5 -8 -3)
1969-12-31 18:00:13.273490613,(-17 -33 -23 -20 -12 -7 -9 -11)
1969-12-31 18:00:13.273490613,(19 52 24 11 4 3 0 3)
1969-12-31 18:00:13.273490613,(-13 -50 -57 -20 -2 -3 9 7)
1969-12-31 18:00:13.273490613,(10 37 69 38 15 -5 0 0)
1969-12-31 18:00:13.292960167,(0 -5 -10 2 4 -5 7 10)
1969-12-31 18:00:13.292960167,(-8 8 4 -2 -2 -8 6 4)
1969-12-31 18:00:13.304085626,(2 6 -6 -3 -2 -12 -1 2)
1969-12-31 18:00:13.304085626,(-3 -13 -23 -16 -5 -6 5 5)
1969-12-31 18:00:13.324945863,(-1 -10 -27 -22 -9 -14 -5 -1)
1969-12-31 18:00:13.324945863,(-1 1 6 9 5 -3 5 4)
1969-12-31 18:00:13.326336545,(-21 -21 -7 -14 -5 -4 1 -2)
1969-12-31 18:00:13.326336545,(33 47 31 17 5 0 0 3)
1969-12-31 18:00:13.356931559,(-9 -53 -14 6 4 5 6 4)
1969-12-31 18:00:13.356931559,(-11 -8 12 -2 -3 1 0 -4)
1969-12-31 18:00:13.358322241,(5 21 14 9 0 4 3 3)
1969-12-31 18:00:13.358322241,(-13 -6 -21 -14 -7 -5 -6 -11)
1969-12-31 18:00:13.376401113,(3 -10 -14 -5 0 0 -1 -2)
1969-12-31 18:00:13.376401113,(-8 -23 -31 -23 -8 -3 2 1)
1969-12-31 18:00:13.398652031,(11 23 24 14 3 -4 0 2)
1969-12-31 18:00:13.398652031,(7 -6 5 2 2 2 2 8)
1969-12-31 18:00:13.420902950,(-3 16 -10 -7 -5 0 -2 -5)
1969-12-31 18:00:13.420902950,(-9 -9 19 11 2 3 -3 -6)
1969-12-31 18:00:13.422293633,(0 5 8 6 -1 4 -6 -7)
1969-12-31 18:00:13.422293633,(-7 -18 -17 -6 -4 4 -4 -6)
1969-12-31 18:00:13.452888646,(-2 -6 4 -1 -2 5 -2 -2)
1969-12-31 18:00:13.452888646,(8 22 6 3 -1 4 -2 -3)
1969-12-31 18:00:13.454279328,(4 -11 -10 -7 -4 3 -3 -3)
1969-12-31 18:00:13.454279328,(-5 -4 7 6 0 4 1 1)
1969-12-31 18:00:13.459842058,(4 20 0 -4 -1 2 -4 -3)
1969-12-31 18:00:13.459842058,(3 -16 14 10 4 4 -1 -3)
1969-12-31 18:00:13.470967518,(5 -2 -11 -5 -3 4 -5 -4)
1969-12-31 18:00:13.470967518,(-5 2 1 2 -2 6 -4 -8)
1969-12-31 18:00:13.504343896,(2 -5 2 0 -5 6 -6 -8)
1969-12-31 18:00:13.504343896,(6 -1 -9 -4 -3 1 0 -1)
1969-12-31 18:00:13.505734578,(-7 -9 -6 -3 -2 -2 1 1)
1969-12-31 18:00:13.505734578,(-4 -8 -23 -15 -4 -9 2 6)
1969-12-31 18:00:13.523813450,(1 4 -10 -8 1 -9 6 13)
1969-12-31 18:00:13.523813450,(-4 7 -9 -2 5 -18 9 12)
1969-12-31 18:00:13.544673686,(-4 6 -7 -12 1 -23 7 10)
1969-12-31 18:00:13.544673686,(0 1 -13 -2 4 -18 4 10)
1969-12-31 18:00:13.547455051,(1 5 4 0 3 -16 5 11)
1969-12-31 18:00:13.547455051,(-4 -1 -10 -7 -2 -12 -1 2)
1969-12-31 18:00:13.555799146,(1 9 2 -3 1 -4 2 0)
1969-12-31 18:00:13.555799146,(-2 -1 3 1 1 0 1 1)
1969-12-31 18:00:13.576659382,(-1 -4 -1 -2 -3 3 0 -4)
1969-12-31 18:00:13.576659382,(7 12 9 3 -3 3 -2 -4)
1969-12-31 18:00:13.578050065,(-2 -7 9 5 -3 -1 -5 -8)
1969-12-31 18:00:13.578050065,(-3 -5 8 4 -4 4 -8 -11)
1969-12-31 18:00:13.629505314,(-2 -5 21 11 1 8 -7 -12)
1969-12-31 18:00:13.629505314,(1 2 5 3 -2 15 -9 -8)
1969-12-31 18:00:13.630895997,(0 -12 8 4 -2 17 -4 -3)
1969-12-31 18:00:13.630895997,(3 15 15 1 -3 16 -5 -7)
1969-12-31 18:00:13.653146916,(-5 -2 -2 0 -3 9 -5 -6)
1969-12-31 18:00:13.653146916,(-2 -7 0 3 0 9 -2 -5)
1969-12-31 18:00:13.653146916,(0 -4 0 -2 -3 5 -3 -2)
1969-12-31 18:00:13.653146916,(-2 -9 -8 -4 -2 2 -4 -6)
1969-12-31 18:00:13.660100328,(4 7 6 5 -1 -1 0 -1)
1969-12-31 18:00:13.660100328,(-8 -4 0 0 -3 -1 -3 -7)
1969-12-31 18:00:13.661491010,(-6 -8 -9 -4 -5 -6 -4 -5)
1969-12-31 18:00:13.661491010,(-5 -5 -5 -6 -3 -2 -4 -6)
1969-12-31 18:00:13.690695341,(-1 0 -3 -6 -2 -3 -3 -3)
1969-12-31 18:00:13.690695341,(5 9 6 7 1 2 0 2)
1969-12-31 18:00:13.692086024,(1 0 -1 0 0 0 -1 -2)
1969-12-31 18:00:13.692086024,(0 -4 -4 0 0 -5 0 3)
1969-12-31 18:00:13.732415814,(-4 -9 -9 -4 -2 -5 -1 0)
1969-12-31 18:00:13.732415814,(-2 0 -8 -6 -1 -3 -2 1)
1969-12-31 18:00:13.733806496,(-1 1 0 0 2 -3 0 0)
1969-12-31 18:00:13.733806496,(-2 -3 -3 -2 2 -2 4 4)
1969-12-31 18:00:13.776917652,(-2 -1 -5 -3 0 -5 1 3)
1969-12-31 18:00:13.776917652,(0 5 -2 -2 1 -5 1 4)
1969-12-31 18:00:13.778308334,(1 1 -3 0 0 -3 2 3)
1969-12-31 18:00:13.778308334,(1 2 0 -2 0 -2 1 0)
1969-12-31 18:00:13.779699017,(-2 -2 -8 -2 0 -4 1 0)
1969-12-31 18:00:13.779699017,(2 2 -1 -5 -1 0 1 3)
1969-12-31 18:00:13.785261746,(-2 5 6 8 5 3 -1 -1)
1969-12-31 18:00:13.785261746,(-2 -6 -4 -1 -2 -1 0 0)
1969-12-31 18:00:13.806121983,(-2 -5 -1 2 2 0 -2 -2)
1969-12-31 18:00:13.806121983,(2 7 3 -1 1 -3 -1 -1)
1969-12-31 18:00:13.807512665,(2 2 3 1 -1 2 0 1)
1969-12-31 18:00:13.807512665,(0 -4 -1 -4 -3 1 -2 -3)
1969-12-31 18:00:13.825591537,(2 5 8 7 0 4 -2 -2)
1969-12-31 18:00:13.825591537,(-7 -13 -5 -3 -5 -1 -6 -7)
1969-12-31 18:00:13.826982219,(-3 -4 -4 -5 -4 0 -1 -4)
1969-12-31 18:00:13.826982219,(-2 -2 -2 2 2 1 0 -4)
1969-12-31 18:00:13.860358597,(2 -2 0 -1 -3 -2 -1 -1)
1969-12-31 18:00:13.860358597,(-1 0 1 -2 -2 -3 -2 0)
1969-12-31 18:00:13.861749280,(-1 0 1 2 1 -2 -2 0)
1969-12-31 18:00:13.861749280,(-1 0 -3 -4 -2 -2 1 2)
1969-12-31 18:00:13.889562928,(1 2 1 -1 1 -1 -1 -1)
1969-12-31 18:00:13.889562928,(-1 2 1 3 1 1 1 -1)
1969-12-31 18:00:13.890953611,(0 2 2 6 0 -1 -1 -1)
1969-12-31 18:00:13.890953611,(-2 -1 0 -4 -2 -4 -3 -1)
1969-12-31 18:00:13.909032482,(-3 -4 -10 -8 -4 -4 -2 -3)
1969-12-31 18:00:13.909032482,(-2 -6 7 9 3 2 -1 -1)
1969-12-31 18:00:13.910423165,(-2 -1 -1 -1 0 -1 3 0)
1969-12-31 18:00:13.910423165,(-1 -1 1 2 -2 -2 0 -1)
1969-12-31 18:00:13.941018177,(-3 0 -4 -6 -3 1 -1 -3)
1969-12-31 18:00:13.941018177,(1 0 -2 -2 -1 -3 0 0)
1969-12-31 18:00:13.942408860,(3 1 0 -2 0 0 -1 2)
1969-12-31 18:00:13.942408860,(-5 -7 -5 0 0 -1 -1 -2)
1969-12-31 18:00:13.942408860,(-2 -4 -6 -7 -4 -1 -2 -2)
1969-12-31 18:00:13.942408860,(2 2 2 -2 1 1 -1 0)
1969-12-31 18:00:13.943799543,(0 1 1 -1 2 -1 0 0)
1969-12-31 18:00:13.943799543,(0 2 1 -1 -2 -1 -1 0)
1969-12-31 18:00:13.974394556,(1 1 -1 1 0 1 -1 -2)
1969-12-31 18:00:13.974394556,(-3 -1 -2 0 -1 -1 -2 -2)
1969-12-31 18:00:13.975785239,(1 -1 0 -2 0 -1 0 1)
1969-12-31 18:00:13.975785239,(-4 -3 -4 -4 -3 -2 -2 -3)
1969-12-31 18:00:13.984129333,(1 0 3 1 0 -3 3 3)
1969-12-31 18:00:13.984129333,(-2 -4 -2 -3 -3 -3 -1 -2)
1969-12-31 18:00:13.986910698,(0 1 0 0 0 -1 -3 -1)
1969-12-31 18:00:13.986910698,(1 1 1 4 2 2 1 0)
1969-12-31 18:00:14.016115029,(-2 0 -2 0 -1 -1 0 -1)
1969-12-31 18:00:14.016115029,(4 4 5 4 0 0 1 1)
1969-12-31 18:00:14.017505712,(-2 -1 -4 -2 -1 -2 -2 -1)
1969-12-31 18:00:14.017505712,(-2 -3 0 3 1 -1 -1 -2)
1969-12-31 18:00:14.045319360,(-2 -1 -2 -3 -2 0 -1 0)
1969-12-31 18:00:14.045319360,(-1 0 -2 -2 0 -1 0 1)
1969-12-31 18:00:14.048100725,(0 3 2 2 0 -1 -2 2)
1969-12-31 18:00:14.048100725,(0 0 1 -2 0 0 -1 1)
1969-12-31 18:00:14.066179597,(-1 -2 0 2 0 1 -3 -2)
1969-12-31 18:00:14.066179597,(-3 -5 -3 -1 -2 -1 -1 -4)
1969-12-31 18:00:14.068960962,(-2 -2 -3 -3 -2 1 1 -1)
1969-12-31 18:00:14.068960962,(0 0 -2 0 -1 -1 -2 -2)
1969-12-31 18:00:14.120416211,(-1 -1 -1 -2 -1 0 -1 1)
1969-12-31 18:00:14.120416211,(0 2 2 3 1 1 -1 2)
1969-12-31 18:00:14.123197576,(-1 -2 0 -2 -3 -1 -1 -3)
1969-12-31 18:00:14.123197576,(-1 -3 -2 -1 -3 -2 -1 -1)
1969-12-31 18:00:14.124588259,(-2 0 -1 0 -2 0 -2 -2)
1969-12-31 18:00:14.124588259,(-2 -1 -5 -4 -4 -2 0 -3)
1969-12-31 18:00:14.152401907,(-1 0 -1 1 -3 -3 -1 -1)
1969-12-31 18:00:14.152401907,(1 3 2 -3 1 1 0 0)
1969-12-31 18:00:14.155183272,(1 1 2 3 0 -3 0 -1)
1969-12-31 18:00:14.155183272,(-2 -1 -3 -2 1 -1 -2 -1)
1969-12-31 18:00:14.182996921,(-1 -3 -1 -2 0 0 0 -2)
1969-12-31 18:00:14.182996921,(-2 -2 -2 3 1 0 0 -3)
1969-12-31 18:00:14.184387603,(-2 -5 -7 -9 -4 -2 -1 -2)
1969-12-31 18:00:14.184387603,(-1 1 -3 -4 -4 -2 -1 -1)
1969-12-31 18:00:14.187168968,(-1 -1 8 8 3 0 0 -1)
1969-12-31 18:00:14.187168968,(0 3 2 1 -2 -1 1 2)
1969-12-31 18:00:14.212201252,(-3 -3 -8 -7 0 0 -1 -2)
1969-12-31 18:00:14.212201252,(1 0 2 1 1 -1 0 -1)
1969-12-31 18:00:14.214982615,(0 -3 -5 0 0 -2 0 4)
1969-12-31 18:00:14.214982615,(-2 -2 1 -2 -4 1 -3 -2)
1969-12-31 18:00:14.234452170,(2 1 0 5 -1 -1 0 1)
1969-12-31 18:00:14.234452170,(-4 -8 -17 -16 -6 -2 -4 -1)
1969-12-31 18:00:14.237233535,(-2 0 -3 -4 -1 -2 -2 -2)
1969-12-31 18:00:14.237233535,(1 2 7 10 2 -3 0 2)
1969-12-31 18:00:14.276172643,(1 3 7 6 2 -1 1 -1)
1969-12-31 18:00:14.276172643,(-3 -6 -9 -5 1 1 2 2)
1969-12-31 18:00:14.278954008,(2 2 8 -2 -3 -3 -5 -7)
1969-12-31 18:00:14.278954008,(-6 -12 -34 -33 -8 -2 -4 -6)
1969-12-31 18:00:14.297032880,(1 6 8 9 0 1 3 4)
1969-12-31 18:00:14.297032880,(5 12 35 30 6 2 0 0)
1969-12-31 18:00:14.298423562,(0 -3 -7 -3 -2 -1 -3 -3)
1969-12-31 18:00:14.298423562,(0 -6 -8 1 -4 0 4 4)
1969-12-31 18:00:14.317893116,(0 -1 3 -1 0 0 -4 -4)
1969-12-31 18:00:14.317893116,(-1 -7 -17 -14 -4 -1 -3 -2)
1969-12-31 18:00:14.319283799,(-4 -9 -20 -26 -8 1 1 2)
1969-12-31 18:00:14.319283799,(-2 -3 29 22 0 -2 -7 -11)
1969-12-31 18:00:14.348488130,(-9 -12 -39 -27 -5 2 2 5)
1969-12-31 18:00:14.348488130,(10 24 55 34 5 -3 -7 -6)
1969-12-31 18:00:14.351269494,(1 7 -1 17 6 3 -4 -9)
1969-12-31 18:00:14.351269494,(-4 -3 4 -10 -2 3 0 -3)
1969-12-31 18:00:14.390208602,(0 -1 7 -6 -4 0 1 4)
1969-12-31 18:00:14.390208602,(-2 -8 -13 2 -3 -3 0 4)
1969-12-31 18:00:14.401334062,(0 3 -7 1 3 1 -1 -3)
1969-12-31 18:00:14.401334062,(1 3 20 19 5 7 7 11)
1969-12-31 18:00:14.402724744,(-2 -1 -6 -10 -5 -4 -9 -13)
1969-12-31 18:00:14.402724744,(-4 -6 -9 -14 -4 4 3 0)
1969-12-31 18:00:14.405506109,(-4 -7 4 0 -1 2 -1 0)
1969-12-31 18:00:14.405506109,(-4 -1 -12 -6 -1 3 1 0)
1969-12-31 18:00:14.452789312,(3 2 12 6 -2 1 -2 3)
1969-12-31 18:00:14.452789312,(-4 -6 -12 -8 -2 -4 -3 -3)
1969-12-31 18:00:14.455570676,(0 -3 3 6 1 -5 1 2)
1969-12-31 18:00:14.455570676,(0 -1 -19 -24 -4 -14 -9 -12)
1969-12-31 18:00:14.456961359,(-5 2 12 24 5 -3 -1 0)
1969-12-31 18:00:14.456961359,(2 2 10 7 5 -4 1 1)
1969-12-31 18:00:14.463914771,(-4 -2 -7 -7 -2 -2 8 13)
1969-12-31 18:00:14.463914771,(2 8 2 4 4 -4 3 8)
1969-12-31 18:00:14.484775007,(2 -5 -15 -10 -4 -8 -1 -4)
1969-12-31 18:00:14.484775007,(-4 -4 -15 -10 -5 -8 -4 -4)
1969-12-31 18:00:14.486165690,(-2 -3 0 -2 -1 -9 2 3)
1969-12-31 18:00:14.486165690,(-1 0 -12 -6 0 -9 3 7)
1969-12-31 18:00:14.515370021,(-7 -8 -8 -5 1 -8 2 4)
1969-12-31 18:00:14.515370021,(-7 -3 -6 -3 0 -6 0 -2)
1969-12-31 18:00:14.516760703,(1 1 -2 -4 -2 -3 1 2)
1969-12-31 18:00:14.516760703,(0 -1 2 2 -1 2 0 -1)
1969-12-31 18:00:14.534839575,(2 8 14 4 -2 2 -10 -16)
1969-12-31 18:00:14.534839575,(-4 -6 1 -3 -2 8 -3 -9)
1969-12-31 18:00:14.558481176,(0 0 8 2 -4 10 -6 -7)
1969-12-31 18:00:14.558481176,(-3 -4 6 6 -2 6 -12 -20)
1969-12-31 18:00:14.568215953,(0 -2 2 3 -1 8 1 1)
1969-12-31 18:00:14.568215953,(1 1 -5 -5 -4 1 0 6)
1969-12-31 18:00:14.569606636,(-2 -2 1 2 1 3 -1 2)
1969-12-31 18:00:14.569606636,(1 6 3 2 0 -1 0 -5)
1969-12-31 18:00:14.598810967,(-3 -12 -8 -5 -4 -5 0 -5)
1969-12-31 18:00:14.598810967,(0 0 -9 -8 -3 -2 -3 -1)
1969-12-31 18:00:14.601592331,(2 -5 3 4 1 -2 -3 0)
1969-12-31 18:00:14.601592331,(-6 -17 -14 -8 -4 -5 2 3)
1969-12-31 18:00:14.618280521,(1 36 30 13 6 2 2 -2)
1969-12-31 18:00:14.618280521,(-1 -16 -12 -4 -2 -1 -1 -1)
1969-12-31 18:00:14.630796662,(0 -6 -8 -5 -3 -3 -2 -2)
1969-12-31 18:00:14.630796662,(1 10 -2 0 0 1 1 2)
1969-12-31 18:00:14.651656899,(1 -6 -2 0 -1 -1 1 1)
1969-12-31 18:00:14.651656899,(3 0 -2 -2 0 -1 -1 0)
1969-12-31 18:00:14.654438264,(-3 -4 3 -1 -1 1 3 2)
1969-12-31 18:00:14.654438264,(-2 0 -2 -3 -3 -5 -5 1)
1969-12-31 18:00:14.682251912,(-3 -2 -9 -3 1 1 0 1)
1969-12-31 18:00:14.682251912,(-6 -3 -3 -6 -6 0 18 14)
1969-12-31 18:00:14.685033277,(6 3 -2 2 0 -4 -12 -9)
1969-12-31 18:00:14.685033277,(0 -4 -2 -3 -3 -3 3 4)
1969-12-31 18:00:14.701721466,(4 3 2 2 3 -1 -6 -4)
1969-12-31 18:00:14.701721466,(0 -1 -3 -1 3 -1 -2 -1)
1969-12-31 18:00:14.714237608,(0 6 0 -2 0 -5 -6 -8)
1969-12-31 18:00:14.714237608,(-1 2 6 0 -1 -1 4 1)
1969-12-31 18:00:14.735097844,(0 -7 -5 -3 -2 0 1 0)
1969-12-31 18:00:14.735097844,(-4 -3 1 -2 -3 2 0 0)
1969-12-31 18:00:14.736488527,(6 13 11 5 2 -1 -8 -9)
1969-12-31 18:00:14.736488527,(10 5 2 2 -1 2 -2 3)
1969-12-31 18:00:14.767083540,(-9 -12 -9 -6 -4 -1 3 -1)
1969-12-31 18:00:14.767083540,(-3 2 1 -2 -2 0 -3 -1)
1969-12-31 18:00:14.768474223,(2 -1 -1 -3 -4 -2 5 4)
1969-12-31 18:00:14.768474223,(5 -5 -6 -2 -2 -1 2 1)
1969-12-31 18:00:14.785162412,(-8 -5 -6 0 1 -3 0 4)
1969-12-31 18:00:14.785162412,(2 12 3 3 2 -2 4 0)
1969-12-31 18:00:14.797678554,(-18 -20 -23 -13 -9 -18 2 16)
1969-12-31 18:00:14.797678554,(-6 -1 -6 -3 4 -11 -5 -5)
1969-12-31 18:00:14.828273567,(22 12 2 -2 1 -3 3 14)
1969-12-31 18:00:14.828273567,(-18 3 15 6 1 9 -13 -29)
1969-12-31 18:00:14.829664250,(-18 -6 9 2 -4 7 -11 -17)
1969-12-31 18:00:14.831054932,(32 -1 8 3 -2 13 -12 -7)
1969-12-31 18:00:14.850524486,(-20 -8 6 3 -3 21 3 -12)
1969-12-31 18:00:14.850524486,(2 -10 -5 -6 -9 -14 -2 5)
1969-12-31 18:00:14.851915168,(32 15 5 5 6 39 -10 -17)
1969-12-31 18:00:14.851915168,(-21 -1 4 1 -7 -28 9 -1)
1969-12-31 18:00:14.868603358,(37 15 -1 -2 -4 -8 0 4)
1969-12-31 18:00:14.868603358,(4 4 -2 -1 -3 -25 -10 4)
1969-12-31 18:00:14.881119499,(-30 -9 -3 -2 0 15 7 -5)
1969-12-31 18:00:14.881119499,(31 -3 -1 3 4 14 2 19)
1969-12-31 18:00:14.900589053,(-8 -17 -1 3 3 0 -2 -1)
1969-12-31 18:00:14.900589053,(-42 -31 -8 -2 4 8 2 -5)
1969-12-31 18:00:14.910323830,(18 16 -5 -7 -7 -23 8 26)
1969-12-31 18:00:14.910323830,(-5 9 -3 -7 -3 -27 -20 -20)
1969-12-31 18:00:14.932574749,(-11 -6 -7 -5 2 35 16 8)
1969-12-31 18:00:14.932574749,(50 29 5 1 -1 18 17 15)
1969-12-31 18:00:14.933965432,(-32 -21 -1 5 1 -38 -19 -3)
1969-12-31 18:00:14.933965432,(1 -1 -4 -2 0 7 -2 1)
1969-12-31 18:00:14.964560445,(2 -5 -5 -2 -5 -24 5 -9)
1969-12-31 18:00:14.964560445,(-4 -12 -5 -3 1 11 1 -6)
1969-12-31 18:00:14.967341810,(-5 16 8 5 5 10 8 -10)
1969-12-31 18:00:14.967341810,(-11 9 5 2 0 3 10 19)
1969-12-31 18:00:14.984029999,(-11 -25 -9 -6 -3 -10 -4 15)
1969-12-31 18:00:14.984029999,(1 -7 -9 -6 -3 -4 -15 -16)
1969-12-31 18:00:14.993764776,(59 44 6 -1 -6 -8 9 11)
1969-12-31 18:00:14.993764776,(23 -4 -1 -1 -2 5 0 29)
1969-12-31 18:00:15.016015695,(-74 -26 -9 -5 0 4 2 -42)
1969-12-31 18:00:15.016015695,(10 7 4 -2 -5 -22 -15 3)
1969-12-31 18:00:15.018797060,(-4 -6 -4 -3 -1 -11 3 30)
1969-12-31 18:00:15.018797060,(-4 -2 -2 -3 0 18 1 -55)
1969-12-31 18:00:15.048001391,(18 10 -2 -1 -4 -26 -6 34)
1969-12-31 18:00:15.048001391,(-19 -15 -4 -3 -8 6 -5 -20)
1969-12-31 18:00:15.049392073,(-9 7 1 1 5 -1 0 -5)
1969-12-31 18:00:15.049392073,(-13 4 1 3 0 -18 -10 11)
1969-12-31 18:00:15.067470945,(-6 -5 3 2 1 11 -8 -20)
1969-12-31 18:00:15.067470945,(39 8 0 -1 7 30 8 36)
1969-12-31 18:00:15.075815039,(-47 -25 -11 -8 -8 -12 -9 6)
1969-12-31 18:00:15.077205722,(-19 -11 -3 -1 4 26 -7 -63)
1969-12-31 18:00:15.099456641,(32 11 1 -2 -4 -12 -2 34)
1969-12-31 18:00:15.099456641,(4 6 -1 -1 -5 -57 -18 -14)
1969-12-31 18:00:15.102238005,(-1 -16 4 5 9 47 36 40)
1969-12-31 18:00:15.102238005,(-24 5 -3 -4 -1 -18 -13 -29)
1969-12-31 18:00:15.141177113,(-27 -21 -20 -20 -20 -18 -22 -49)
1969-12-31 18:00:15.141177113,(27 0 4 4 7 15 23 30)
1969-12-31 18:00:15.143958478,(-19 -20 -5 -5 -11 -45 -6 -33)
1969-12-31 18:00:15.143958478,(1 -1 -9 -7 -5 35 17 39)
1969-12-31 18:00:15.150911890,(34 16 9 7 4 -2 21 33)
1969-12-31 18:00:15.150911890,(-16 1 2 3 4 -7 -14 -25)
1969-12-31 18:00:15.159255985,(-7 -2 -2 -4 -5 3 -13 -42)
1969-12-31 18:00:15.159255985,(11 6 -1 -1 -2 -26 17 44)
1969-12-31 18:00:15.182897586,(10 10 1 -3 -5 5 23 -1)
1969-12-31 18:00:15.182897586,(5 3 0 1 -5 -10 -16 45)
1969-12-31 18:00:15.184288269,(3 -2 1 2 1 16 25 1)
1969-12-31 18:00:15.184288269,(-19 -13 -5 -1 1 -12 -15 -26)
1969-12-31 18:00:15.213492600,(-7 -9 1 1 2 -1 -22 -27)
1969-12-31 18:00:15.213492600,(-5 12 6 3 -5 -9 8 -27)
1969-12-31 18:00:15.216273964,(22 7 -10 -10 -1 15 8 44)
1969-12-31 18:00:15.216273964,(30 5 2 -8 -1 0 -3 11)
1969-12-31 18:00:15.234352836,(-17 -25 -3 10 3 0 -22 -31)
1969-12-31 18:00:15.234352836,(-27 7 -2 3 0 -7 -39 -41)
1969-12-31 18:00:15.244087613,(23 2 5 1 -1 -1 2 -5)
1969-12-31 18:00:15.244087613,(-18 -6 -8 -10 -3 50 -6 -12)
1969-12-31 18:00:15.266338532,(-2 -6 -11 -15 -6 -46 -15 10)
1969-12-31 18:00:15.266338532,(-10 -15 8 11 9 59 46 14)
1969-12-31 18:00:15.267729214,(-10 2 14 17 3 -36 -40 -30)
1969-12-31 18:00:15.267729214,(10 7 16 16 12 -5 2 6)
1969-12-31 18:00:15.298324228,(-2 8 0 0 -5 5 0 -11)
1969-12-31 18:00:15.298324228,(-10 -11 -17 -11 -2 6 10 38)
1969-12-31 18:00:15.299714910,(-31 -13 -12 -8 -5 7 4 -36)
1969-12-31 18:00:15.299714910,(13 -2 0 0 -4 -35 -11 0)
1969-12-31 18:00:15.316403099,(-3 3 2 3 10 46 11 5)
1969-12-31 18:00:15.316403099,(8 6 0 0 4 -3 -15 -12)
1969-12-31 18:00:15.330309924,(17 17 5 4 22 23 -1 16)
1969-12-31 18:00:15.330309924,(-15 -6 2 0 -25 -44 -3 3)
1969-12-31 18:00:15.351170160,(-10 1 0 3 19 8 -4 4)
1969-12-31 18:00:15.351170160,(-3 6 5 3 -3 -12 10 -14)
1969-12-31 18:00:15.352560842,(-17 -16 -1 10 49 65 13 27)
1969-12-31 18:00:15.352560842,(0 -3 -11 -21 -58 -41 -24 -15)
1969-12-31 18:00:15.380374491,(7 16 8 -4 -13 -42 -12 11)
1969-12-31 18:00:15.380374491,(-22 -8 -5 -10 -15 6 -1 -24)
1969-12-31 18:00:15.383155856,(5 -1 -8 -21 -26 -15 14 2)
1969-12-31 18:00:15.383155856,(-25 -20 -6 23 81 16 -3 -6)
1969-12-31 18:00:15.399844045,(7 5 8 11 -8 -35 -7 11)
1969-12-31 18:00:15.399844045,(12 4 -7 -16 -54 -74 -13 -4)
1969-12-31 18:00:15.412360187,(-22 -18 -10 -16 -61 -66 -20 26)
1969-12-31 18:00:15.412360187,(3 -7 -6 -16 -7 31 3 -16)
1969-12-31 18:00:15.433220423,(5 7 2 3 20 28 35 38)
1969-12-31 18:00:15.433220423,(-14 -25 -3 8 40 19 -31 -37)
1969-12-31 18:00:15.436001788,(35 7 -10 -8 -33 -2 6 16)
1969-12-31 18:00:15.436001788,(5 13 6 -1 -16 -18 11 20)
1969-12-31 18:00:15.465206119,(-15 -12 8 22 60 54 2 5)
1969-12-31 18:00:15.465206119,(5 23 11 48 110 96 54 26)
1969-12-31 18:00:15.466596801,(-90 -81 -45 -50 -93 -101 -54 -68)
1969-12-31 18:00:15.466596801,(24 8 13 -19 -14 -3 -6 13)
1969-12-31 18:00:15.483284991,(-1 -28 -29 -20 -10 -1 -2 -18)
1969-12-31 18:00:15.483284991,(-43 0 14 8 50 13 -30 -17)
1969-12-31 18:00:15.495801132,(15 47 69 56 54 41 15 -23)
1969-12-31 18:00:15.495801132,(2 -1 -13 -6 -19 -2 -12 -6)
1969-12-31 18:00:15.518052051,(16 9 -14 -4 -4 25 33 14)
1969-12-31 18:00:15.518052051,(6 -60 -88 -25 23 6 -11 -31)
1969-12-31 18:00:15.519442734,(37 24 0 3 4 -1 19 6)
1969-12-31 18:00:15.519442734,(-92 39 81 33 -36 -24 8 -49)
1969-12-31 18:00:15.547256382,(5 -3 -10 4 -28 -34 -40 -37)
1969-12-31 18:00:15.547256382,(34 -35 -63 -33 -49 -35 3 87)
1969-12-31 18:00:15.550037747,(19 -17 -66 -17 94 67 2 35)
1969-12-31 18:00:15.550037747,(-40 29 36 8 -31 -3 1 -33)
1969-12-31 18:00:15.566725936,(-7 21 36 7 -10 -6 -7 -14)
1969-12-31 18:00:15.566725936,(-3 -58 -28 -2 36 -17 4 -21)
1969-12-31 18:00:15.579242078,(57 57 12 8 -44 -14 -8 -24)
1969-12-31 18:00:15.579242078,(53 -77 -93 -13 54 59 40 24)
1969-12-31 18:00:15.609837091,(-38 49 88 19 3 7 -26 23)
1969-12-31 18:00:15.609837091,(-9 116 92 0 -39 -24 -26 -70)
1969-12-31 18:00:15.612618456,(22 -103 -71 -24 -22 14 49 79)
1969-12-31 18:00:15.612618456,(11 50 76 44 29 9 48 73)
1969-12-31 18:00:15.630697328,(80 -48 -128 -62 -27 -19 -19 12)
1969-12-31 18:00:15.630697328,(-11 54 91 38 65 49 -13 -15)
1969-12-31 18:00:15.633478693,(18 -4 19 15 -19 -2 38 81)
1969-12-31 18:00:15.633478693,(-1 16 -20 -21 -14 -18 -37 -50)
1969-12-31 18:00:15.650166882,(43 66 40 34 7 -5 24 54)
1969-12-31 18:00:15.650166882,(20 -87 -84 -43 6 17 18 9)
1969-12-31 18:00:15.662683024,(-86 83 127 47 6 -17 -36 -70)
1969-12-31 18:00:15.662683024,(31 -128 -128 -54 -16 -4 -22 -17)
1969-12-31 18:00:15.683543260,(-24 96 89 11 -7 -31 7 -19)
1969-12-31 18:00:15.683543260,(23 37 10 28 6 4 -9 -41)
1969-12-31 18:00:15.686324625,(-3 -15 -26 -8 -33 -29 -15 -15)
1969-12-31 18:00:15.686324625,(-41 -47 9 28 97 53 26 -63)
1969-12-31 18:00:15.715528956,(65 -128 -128 -85 -85 -14 -48 5)
1969-12-31 18:00:15.715528956,(-28 107 110 39 -23 -7 14 8)
1969-12-31 18:00:15.718310321,(-96 -34 -32 1 19 -30 -47 -95)
1969-12-31 18:00:15.718310321,(56 -2 -6 5 -38 -43 -27 45)
1969-12-31 18:00:15.746123969,(-19 -20 19 9 20 35 46 28)
1969-12-31 18:00:15.746123969,(2 -87 -87 -34 -27 -25 0 18)
1969-12-31 18:00:15.748905334,(39 16 -45 -10 40 60 29 8)
1969-12-31 18:00:15.748905334,(-32 50 16 1 2 -13 -2 2)
1969-12-31 18:00:15.766984206,(-15 61 38 5 -19 0 27 9)
1969-12-31 18:00:15.766984206,(-18 -11 51 21 5 24 30 1)
1969-12-31 18:00:15.769765571,(5 -35 -82 -46 -59 -64 -51 -14)
1969-12-31 18:00:15.769765571,(-9 81 71 28 21 23 46 65)
1969-12-31 18:00:15.797579219,(-19 -29 -35 20 28 0 -3 10)
1969-12-31 18:00:15.797579219,(-31 -61 -55 -40 -15 10 -10 7)
1969-12-31 18:00:15.800360584,(33 -64 -12 18 29 1 -1 -8)
1969-12-31 18:00:15.800360584,(47 -50 -79 -52 -81 -23 -11 29)
1969-12-31 18:00:15.817048773,(-53 -17 15 -4 37 -8 -33 -98)
1969-12-31 18:00:15.817048773,(19 105 66 34 40 22 25 16)
1969-12-31 18:00:15.829564915,(-17 13 9 -20 -67 -25 -37 -60)
1969-12-31 18:00:15.829564915,(-11 -7 0 0 6 -3 -2 -15)
1969-12-31 18:00:15.851815834,(-15 -56 -48 -18 5 10 15 -11)
1969-12-31 18:00:15.851815834,(26 -42 -43 -14 -30 -28 -33 9)
1969-12-31 18:00:15.858769246,(41 2 6 -9 20 21 23 34)
1969-12-31 18:00:15.858769246,(-6 92 77 42 57 23 17 6)
1969-12-31 18:00:15.904661766,(-14 -50 -51 -8 -13 -1 -7 -26)
1969-12-31 18:00:15.904661766,(-20 54 32 13 0 -13 9 13)
1969-12-31 18:00:15.906052449,(17 19 25 -6 -60 -40 -29 -18)
1969-12-31 18:00:15.906052449,(28 2 -40 -10 2 2 -12 -20)
1969-12-31 18:00:15.907443131,(-5 49 69 27 47 44 28 11)
1969-12-31 18:00:15.907443131,(16 -42 -32 -28 -85 -54 -56 -42)
1969-12-31 18:00:15.914396543,(-36 -20 14 16 68 49 43 38)
1969-12-31 18:00:15.914396543,(-40 -19 -4 3 -14 -12 -10 -9)
1969-12-31 18:00:15.932475415,(3 -42 -37 -3 4 5 -12 -37)
1969-12-31 18:00:15.932475415,(46 -55 -77 -27 -5 -5 30 28)
1969-12-31 18:00:15.942210192,(-14 94 91 33 13 8 4 1)
1969-12-31 18:00:15.942210192,(8 -21 -27 -5 17 22 11 -28)
1969-12-31 18:00:15.964461111,(-37 -34 -29 -5 -39 -29 -40 -22)
1969-12-31 18:00:15.964461111,(14 63 9 -5 -8 -4 7 30)
1969-12-31 18:00:15.967242475,(28 9 31 25 43 36 35 29)
1969-12-31 18:00:15.967242475,(18 78 82 19 -12 -11 -38 -14)
1969-12-31 18:00:15.996446806,(-13 127 115 41 -8 -9 26 -5)
1969-12-31 18:00:15.996446806,(-42 -128 -110 -22 -18 6 -14 -75)
1969-12-31 18:00:15.997837489,(20 -62 -88 -47 -62 -59 -30 14)
1969-12-31 18:00:15.997837489,(-3 9 42 22 80 59 -2 6)
1969-12-31 18:00:16.017307043,(28 -116 -128 -33 7 -3 -7 31)
1969-12-31 18:00:16.017307043,(-11 127 127 51 13 42 16 3)
1969-12-31 18:00:16.020088408,(-23 31 21 7 12 -14 36 -5)
1969-12-31 18:00:16.020088408,(5 -43 -38 -1 -49 -59 -47 -15)
1969-12-31 18:00:16.047902056,(19 -16 10 -19 -30 -13 -12 20)
1969-12-31 18:00:16.047902056,(27 -54 -84 -25 8 35 62 41)
1969-12-31 18:00:16.050683421,(-13 -3 46 14 39 36 -10 -17)
1969-12-31 18:00:16.050683421,(33 50 20 -1 -15 -1 -11 52)
1969-12-31 18:00:16.079887752,(-19 85 95 54 34 7 10 -22)
1969-12-31 18:00:16.079887752,(20 -45 -99 -2 14 8 -21 -9)
1969-12-31 18:00:16.081278434,(-2 -71 -40 -39 -70 -71 0 53)
1969-12-31 18:00:16.081278434,(-5 30 49 -2 32 13 24 29)
1969-12-31 18:00:16.100747988,(8 45 25 11 29 0 -30 -22)
1969-12-31 18:00:16.100747988,(-2 -58 -6 -6 -1 12 29 29)
1969-12-31 18:00:16.132733684,(-15 -32 -50 7 54 41 12 1)
1969-12-31 18:00:16.132733684,(-28 13 -21 -19 -65 -53 -25 -48)
1969-12-31 18:00:16.134124367,(21 -28 -38 -24 -11 13 -17 33)
1969-12-31 18:00:16.134124367,(3 3 21 -2 -28 -42 -12 17)
1969-12-31 18:00:16.136905732,(23 -21 -34 -1 44 52 5 -35)
1969-12-31 18:00:16.136905732,(-55 6 18 7 -27 -29 16 -55)
1969-12-31 18:00:16.150812556,(-16 11 20 -2 4 -8 -12 -34)
1969-12-31 18:00:16.150812556,(8 -46 -60 -15 -21 -28 0 27)
1969-12-31 18:00:16.163328698,(8 35 16 7 -31 -5 2 15)
1969-12-31 18:00:16.163328698,(-30 2 42 12 26 13 -4 0)
1969-12-31 18:00:16.182798252,(0 -69 -85 -29 0 9 54 45)
1969-12-31 18:00:16.182798252,(-10 115 127 50 70 19 -38 -13)
1969-12-31 18:00:16.192533028,(-2 -89 -72 -34 -40 -19 -16 -19)
1969-12-31 18:00:16.192533028,(65 -23 -68 -17 -52 -15 14 70)
1969-12-31 18:00:16.216174630,(-12 69 49 21 17 -4 1 -16)
1969-12-31 18:00:16.216174630,(5 -27 17 0 -15 -9 8 -5)
1969-12-31 18:00:16.224518725,(0 7 -24 -17 45 14 -66 -25)
1969-12-31 18:00:16.224518725,(-10 -82 -48 -6 -2 27 25 16)
1969-12-31 18:00:16.256504420,(51 10 -30 -18 -51 -54 -33 13)
1969-12-31 18:00:16.256504420,(-71 -36 34 9 6 3 32 0)
1969-12-31 18:00:16.259285785,(89 96 25 16 32 36 18 47)
1969-12-31 18:00:16.259285785,(1 -74 -101 -16 23 6 -28 -68)
1969-12-31 18:00:16.266239197,(-13 84 96 56 17 14 17 7)
1969-12-31 18:00:16.266239197,(-14 -2 -23 -3 5 4 1 2)
1969-12-31 18:00:16.275973974,(-7 15 -9 -19 -43 -15 -21 -27)
1969-12-31 18:00:16.275973974,(26 -62 -46 -15 2 -15 21 55)
1969-12-31 18:00:16.299615576,(-49 -86 -84 -55 -53 20 12 -33)
1969-12-31 18:00:16.299615576,(11 97 76 25 20 -13 -11 -9)
1969-12-31 18:00:16.301006258,(-18 23 28 28 40 17 23 35)
1969-12-31 18:00:16.302396940,(13 -38 -58 -49 -65 -48 -16 -30)
1969-12-31 18:00:16.330210589,(1 39 51 14 0 -11 -30 -44)
1969-12-31 18:00:16.330210589,(-7 -35 -10 -8 2 11 7 14)
1969-12-31 18:00:16.332991954,(44 40 -15 0 21 35 50 24)
1969-12-31 18:00:16.332991954,(-53 104 116 65 46 8 -10 -42)
1969-12-31 18:00:16.349680143,(55 -34 -33 13 16 -4 -9 64)
1969-12-31 18:00:16.349680143,(-11 -15 -21 -26 -51 -15 3 -34)
1969-12-31 18:00:16.359414920,(-36 40 41 6 6 -7 -7 -61)
1969-12-31 18:00:16.359414920,(-37 -99 -94 -39 -2 17 6 -15)
1969-12-31 18:00:16.383056521,(18 13 30 5 0 -5 19 20)
1969-12-31 18:00:16.383056521,(35 -10 -15 -5 -11 -12 -11 58)
1969-12-31 18:00:16.384447204,(17 22 14 9 -19 12 -5 17)
1969-12-31 18:00:16.384447204,(-8 7 -3 -20 46 27 -3 -2)
1969-12-31 18:00:16.413651535,(1 -57 -54 -10 -24 -14 11 3)
1969-12-31 18:00:16.413651535,(16 -35 -81 -68 -68 -80 -38 6)
1969-12-31 18:00:16.416432900,(-16 30 56 23 30 15 -2 10)
1969-12-31 18:00:16.416432900,(10 25 25 18 -5 6 29 23)
1969-12-31 18:00:16.433121089,(10 47 30 27 36 25 -35 -38)
1969-12-31 18:00:16.434511771,(-9 -27 -35 -13 -13 6 12 -10)
1969-12-31 18:00:16.442855866,(-38 -6 70 22 -23 -30 -8 -57)
1969-12-31 18:00:16.442855866,(13 24 -24 -18 12 19 1 27)
1969-12-31 18:00:16.466497467,(28 -29 -33 2 34 28 48 76)
1969-12-31 18:00:16.466497467,(17 62 52 26 -5 -26 -24 10)
1969-12-31 18:00:16.467888149,(-50 -39 -25 -12 20 16 12 3)
1969-12-31 18:00:16.467888149,(-19 -45 -9 -9 -26 -4 -26 -23)
1969-12-31 18:00:16.498483163,(35 -58 -45 -34 -79 -39 -9 15)
1969-12-31 18:00:16.498483163,(4 113 81 27 92 61 21 9)
1969-12-31 18:00:16.499873845,(0 -22 -28 -8 -15 -14 8 4)
1969-12-31 18:00:16.499873845,(-14 -80 -77 0 56 -1 -33 -28)
1969-12-31 18:00:16.516562034,(10 101 82 62 29 10 18 -1)
1969-12-31 18:00:16.516562034,(0 -7 -23 -12 -51 -19 -23 -36)
1969-12-31 18:00:16.526296811,(19 -41 25 -7 -52 -54 -18 -4)
1969-12-31 18:00:16.526296811,(-7 -3 -18 -19 -9 -9 -2 -27)
1969-12-31 18:00:16.548547730,(-6 -23 -1 -7 22 18 7 -11)
1969-12-31 18:00:16.548547730,(-1 -20 -28 -5 27 23 -14 -4)
1969-12-31 18:00:16.551329095,(-22 -3 -30 0 -5 5 14 6)
1969-12-31 18:00:16.551329095,(22 20 33 4 -33 -13 21 38)
1969-12-31 18:00:16.580533426,(18 -7 11 9 51 19 3 14)
1969-12-31 18:00:16.580533426,(31 28 25 10 -38 -33 -8 3)
1969-12-31 18:00:16.583314791,(-16 -51 -59 -20 20 30 -10 3)
1969-12-31 18:00:16.583314791,(-6 -2 6 6 39 18 -13 -34)
1969-12-31 18:00:16.600002980,(-45 -27 -21 -7 -29 -7 -8 -16)
1969-12-31 18:00:16.600002980,(-43 -40 -13 4 0 -8 22 -32)
1969-12-31 18:00:16.612519122,(2 4 -24 -5 -27 -24 -63 -55)
1969-12-31 18:00:16.612519122,(42 111 62 18 -2 0 40 38)
1969-12-31 18:00:16.633379358,(-36 -32 4 -14 -1 -3 0 -6)
1969-12-31 18:00:16.633379358,(18 -20 -33 -8 -26 -7 9 23)
1969-12-31 18:00:16.636160723,(-29 -33 -12 7 47 15 -1 14)
1969-12-31 18:00:16.636160723,(44 87 66 26 -20 6 -5 17)
1969-12-31 18:00:16.663974372,(-25 -2 -21 -48 -75 -37 -14 -21)
1969-12-31 18:00:16.663974372,(24 -17 3 -4 1 16 10 53)
1969-12-31 18:00:16.665365054,(7 4 -6 35 28 26 13 22)
1969-12-31 18:00:16.665365054,(1 -35 -25 -50 -87 -30 -5 23)
1969-12-31 18:00:16.695960068,(-40 -34 -17 47 72 14 -19 -24)
1969-12-31 18:00:16.695960068,(9 16 8 -1 -15 -3 20 31)
1969-12-31 18:00:16.698741432,(-29 -7 -8 -12 5 -24 -31 -72)
1969-12-31 18:00:16.698741432,(1 1 11 23 2 13 -1 -20)
1969-12-31 18:00:16.716820304,(69 49 9 -20 -21 -3 13 34)
1969-12-31 18:00:16.716820304,(-39 -12 -1 -11 4 6 -16 -41)
1969-12-31 18:00:16.718210986,(-59 -47 -39 -29 -16 -20 -1 -7)
1969-12-31 18:00:16.718210986,(9 -13 -8 4 8 0 0 9)
1969-12-31 18:00:16.747415317,(-53 -26 -26 -23 -11 -10 -12 -46)
1969-12-31 18:00:16.747415317,(43 57 55 40 41 26 12 9)
1969-12-31 18:00:16.748806000,(15 0 -5 -17 -35 -22 -28 -54)
1969-12-31 18:00:16.748806000,(70 0 -13 -3 7 -2 -5 46)
1969-12-31 18:00:16.766884871,(-29 6 10 10 25 28 38 11)
1969-12-31 18:00:16.766884871,(-97 -73 -42 -24 -21 -29 -73 -108)
1969-12-31 18:00:16.779401013,(39 31 16 -47 -62 1 26 37)
1969-12-31 18:00:16.779401013,(-39 -13 4 43 32 39 21 1)
1969-12-31 18:00:16.800261250,(53 6 -5 -11 -13 -14 -27 -36)
1969-12-31 18:00:16.800261250,(9 22 18 50 48 15 5 -17)
1969-12-31 18:00:16.801651932,(-60 -15 15 37 28 -32 -31 5)
1969-12-31 18:00:16.801651932,(-27 -20 -15 -12 -16 19 12 0)
1969-12-31 18:00:16.830856263,(-4 5 -3 -20 -24 -4 -51 -14)
1969-12-31 18:00:16.830856263,(27 10 -10 -21 -31 -21 25 20)
1969-12-31 18:00:16.833637628,(59 29 16 12 25 30 31 16)
1969-12-31 18:00:16.833637628,(10 -3 10 1 -1 -12 7 76)
1969-12-31 18:00:16.850325817,(-33 -18 -14 -7 2 -12 -5 -31)
1969-12-31 18:00:16.850325817,(12 -11 -14 -25 -11 6 3 11)
1969-12-31 18:00:16.862841959,(1 27 10 11 5 4 8 -23)
1969-12-31 18:00:16.862841959,(17 0 12 9 14 6 16 28)
1969-12-31 18:00:16.883702195,(-35 4 -4 -5 -4 -3 2 -62)
1969-12-31 18:00:16.883702195,(-24 -42 -27 -14 -11 -12 -25 -16)
1969-12-31 18:00:16.886483560,(40 24 16 8 -1 19 35 97)
1969-12-31 18:00:16.886483560,(-3 -5 0 -1 8 -13 -19 -27)
1969-12-31 18:00:16.914297209,(29 11 7 7 8 2 4 5)
1969-12-31 18:00:16.914297209,(0 7 7 10 2 15 35 50)
1969-12-31 18:00:16.915687891,(13 -13 -6 0 0 -13 -23 -28)
1969-12-31 18:00:16.915687891,(24 5 -7 -9 -4 -12 -12 -19)
1969-12-31 18:00:16.933766763,(46 7 11 11 7 5 7 57)
1969-12-31 18:00:16.933766763,(98 41 1 5 7 8 -10 36)
1969-12-31 18:00:16.946282905,(-52 14 21 10 6 4 5 -9)
1969-12-31 18:00:16.946282905,(4 21 -2 -4 -1 -12 -17 -43)
1969-12-31 18:00:16.967143141,(-15 -21 13 6 -5 4 10 20)
1969-12-31 18:00:16.967143141,(-46 -6 -3 -12 -13 -13 -15 -34)
1969-12-31 18:00:16.968533823,(18 -19 -20 -5 0 2 1 2)
1969-12-31 18:00:16.968533823,(-44 2 3 3 4 1 -2 -8)
1969-12-31 18:00:16.997738154,(-105 -52 -24 -12 -8 -9 -11 -23)
1969-12-31 18:00:16.997738154,(61 20 -3 -5 -4 -5 1 33)
1969-12-31 18:00:16.999128837,(34 8 6 5 5 8 15 30)
1969-12-31 18:00:16.999128837,(-48 -22 -3 -2 -1 -4 4 -17)
1969-12-31 18:00:17.017207708,(29 19 1 -2 1 1 8 12)
1969-12-31 18:00:17.017207708,(-33 -15 -3 -1 -1 2 5 -1)
1969-12-31 18:00:17.029723850,(-8 7 1 0 -2 -3 -8 -48)
1969-12-31 18:00:17.029723850,(30 -1 4 3 5 3 10 30)
1969-12-31 18:00:17.050584087,(16 -3 -10 -5 -2 -7 -7 3)
1969-12-31 18:00:17.050584087,(-38 -13 1 2 -1 -1 -7 -44)
1969-12-31 18:00:17.051974769,(39 16 5 1 1 0 2 15)
1969-12-31 18:00:17.051974769,(-26 -13 -4 -4 1 -1 -2 -7)
1969-12-31 18:00:17.082569782,(47 12 -2 -4 -1 2 15 32)
1969-12-31 18:00:17.082569782,(-78 -41 -11 -5 -8 -2 -3 -19)
1969-12-31 18:00:17.083960465,(-3 6 -3 -3 -2 -1 0 5)
1969-12-31 18:00:17.083960465,(0 -18 -6 -5 -6 -5 -1 25)
1969-12-31 18:00:17.100648654,(9 11 4 8 3 1 3 -13)
1969-12-31 18:00:17.100648654,(2 -8 -4 -3 -3 -3 0 9)
1969-12-31 18:00:17.113164796,(12 -6 -10 -6 -3 -3 3 11)
1969-12-31 18:00:17.113164796,(4 -5 -12 -8 -4 -6 -11 -19)
1969-12-31 18:00:17.134025032,(-28 -1 19 8 2 3 4 5)
1969-12-31 18:00:17.134025032,(25 4 -5 0 0 1 4 6)
1969-12-31 18:00:17.135415715,(-15 -6 0 -2 -1 -2 -11 -19)
1969-12-31 18:00:17.135415715,(18 10 0 0 1 1 4 -3)
1969-12-31 18:00:17.164620046,(-25 -28 -29 -17 -10 -11 -12 -2)
1969-12-31 18:00:17.164620046,(-24 -26 -18 -5 2 4 -5 -27)
1969-12-31 18:00:17.166010728,(36 38 8 0 0 3 23 34)
1969-12-31 18:00:17.167401411,(-28 8 37 16 1 -6 -26 -9)
1969-12-31 18:00:17.184089600,(-7 -26 -23 -8 -2 0 2 -7)
1969-12-31 18:00:17.184089600,(10 37 24 7 4 2 1 -3)
1969-12-31 18:00:17.196605741,(-34 -85 -44 -18 -6 -5 -5 -17)
1969-12-31 18:00:17.196605741,(-11 52 33 9 3 -2 -11 -20)
1969-12-31 18:00:17.217465977,(6 15 20 13 2 1 5 -6)
1969-12-31 18:00:17.217465977,(-1 0 0 0 -3 -1 -4 -5)
1969-12-31 18:00:17.218856660,(4 -3 4 0 -2 -1 3 5)
1969-12-31 18:00:17.218856660,(14 -20 -30 -12 -5 -2 7 1)
1969-12-31 18:00:17.248060991,(-21 -11 3 0 -3 -4 -17 0)
1969-12-31 18:00:17.248060991,(-3 6 -4 -3 -3 -4 0 3)
1969-12-31 18:00:17.249451674,(4 -9 -15 -6 -3 -2 -4 2)
1969-12-31 18:00:17.249451674,(-11 -21 -17 -9 -2 1 8 -6)
1969-12-31 18:00:17.280046687,(12 34 9 -4 -4 -1 -2 8)
1969-12-31 18:00:17.280046687,(-8 0 22 11 6 2 17 13)
1969-12-31 18:00:17.282828052,(-2 13 9 1 -1 -4 -18 -1)
1969-12-31 18:00:17.282828052,(-3 4 14 7 1 -1 -2 -17)
1969-12-31 18:00:17.299516241,(5 -31 -20 -4 1 1 -2 4)
1969-12-31 18:00:17.299516241,(8 18 -10 -3 -1 2 2 5)
1969-12-31 18:00:17.302297606,(-6 18 26 11 0 -8 -23 -22)
1969-12-31 18:00:17.302297606,(-9 -32 -22 -12 -9 -3 14 -5)
1969-12-31 18:00:17.331501937,(8 -17 -43 -16 -2 4 7 11)
1969-12-31 18:00:17.331501937,(-2 60 74 22 5 -2 4 -1)
1969-12-31 18:00:17.334283302,(2 -26 -19 -6 3 5 8 14)
1969-12-31 18:00:17.334283302,(4 10 -9 -9 -6 -5 -12 -3)
1969-12-31 18:00:17.350971491,(1 -12 18 11 6 2 7 7)
1969-12-31 18:00:17.350971491,(-6 -58 -54 -27 -11 -3 -6 1)
1969-12-31 18:00:17.363487633,(-5 48 16 4 -2 0 9 -1)
1969-12-31 18:00:17.363487633,(-4 -20 -12 1 1 -2 0 4)
1969-12-31 18:00:17.382957187,(13 14 5 -1 -2 -4 -8 -10)
1969-12-31 18:00:17.382957187,(7 -5 -1 5 6 7 9 8)
1969-12-31 18:00:17.385738552,(-16 -24 -3 0 0 5 20 4)
1969-12-31 18:00:17.385738552,(-1 -22 -30 -15 -9 -11 -31 -10)
1969-12-31 18:00:17.414942883,(5 56 43 12 4 4 0 3)
1969-12-31 18:00:17.414942883,(2 -23 -26 -8 -5 -5 -16 -10)
1969-12-31 18:00:17.417724248,(5 14 4 5 0 0 14 3)
1969-12-31 18:00:17.417724248,(-3 -3 8 2 2 9 11 5)
1969-12-31 18:00:17.458054038,(8 14 1 -1 -1 3 8 5)
1969-12-31 18:00:17.458054038,(-15 -58 -31 -14 -6 -3 -7 -8)
1969-12-31 18:00:17.459444720,(0 18 1 -11 -6 -3 -12 -6)
1969-12-31 18:00:17.459444720,(6 43 56 40 17 9 3 -5)
1969-12-31 18:00:17.487258369,(3 2 -2 -3 -5 -1 -2 0)
1969-12-31 18:00:17.487258369,(3 2 5 3 0 4 3 -3)
1969-12-31 18:00:17.490039734,(-1 -20 -9 -3 -4 1 -6 -3)
1969-12-31 18:00:17.490039734,(4 -3 -8 -11 -6 -2 -5 -3)
1969-12-31 18:00:17.498383828,(-6 -17 -22 -11 -4 1 4 0)
1969-12-31 18:00:17.498383828,(12 20 28 14 5 3 -4 0)
1969-12-31 18:00:17.499774511,(-11 -17 30 19 3 2 -12 -13)
1969-12-31 18:00:17.499774511,(-7 30 17 4 2 6 3 -3)
1969-12-31 18:00:17.540104301,(3 -26 -11 -2 -1 3 5 1)
1969-12-31 18:00:17.540104301,(10 19 9 -3 -5 -5 -4 0)
1969-12-31 18:00:17.541494984,(3 18 10 9 5 -7 -3 5)
1969-12-31 18:00:17.542885666,(7 -5 -9 -5 0 -10 9 10)
1969-12-31 18:00:17.549839078,(-22 -13 -19 -9 0 -17 -10 -2)
1969-12-31 18:00:17.549839078,(-6 6 -19 -1 1 -11 2 8)
1969-12-31 18:00:17.559573855,(-1 -1 -9 -20 -5 -11 7 9)
1969-12-31 18:00:17.559573855,(1 -10 -6 4 3 -13 -1 6)
1969-12-31 18:00:17.559573855,(-9 -5 8 3 -2 7 -27 -16)
1969-12-31 18:00:17.559573855,(-23 -4 11 6 0 23 17 -22)
1969-12-31 18:00:17.560964538,(-1 -6 4 1 -3 9 -15 -14)
1969-12-31 18:00:17.560964538,(-9 1 8 5 -1 8 6 -1)
1969-12-31 18:00:17.580434092,(31 7 1 -1 -4 -30 -18 8)
1969-12-31 18:00:17.580434092,(18 15 8 7 2 19 -3 -3)
1969-12-31 18:00:17.580434092,(-4 -13 -11 -10 -9 -11 -9 -9)
1969-12-31 18:00:17.580434092,(-4 5 1 3 2 -5 -2 5)
1969-12-31 18:00:17.612419787,(7 2 -1 4 5 12 6 -5)
1969-12-31 18:00:17.612419787,(8 -2 -2 -4 -7 -37 -8 -9)
1969-12-31 18:00:17.613810470,(28 14 5 5 17 69 12 37)
1969-12-31 18:00:17.613810470,(-25 -9 -7 -4 -14 -43 -11 -24)
1969-12-31 18:00:17.643014801,(-2 -11 -4 -1 -1 3 18 13)
1969-12-31 18:00:17.643014801,(3 6 3 1 2 -6 -5 0)
1969-12-31 18:00:17.644405483,(6 -1 0 0 -3 8 19 9)
1969-12-31 18:00:17.644405483,(0 -6 -7 -6 -1 -12 -15 -3)
1969-12-31 18:00:17.662484355,(19 9 -5 -3 -1 7 14 18)
1969-12-31 18:00:17.662484355,(-52 -21 -6 -5 -2 -4 -21 -20)
1969-12-31 18:00:17.663875037,(-7 11 9 6 -2 -33 -4 -15)
1969-12-31 18:00:17.663875037,(-23 -8 -3 -1 1 4 -5 -16)
1969-12-31 18:00:17.695860733,(19 6 1 -1 3 4 0 19)
1969-12-31 18:00:17.695860733,(-2 5 -2 -2 3 22 4 -19)
1969-12-31 18:00:17.695860733,(10 7 3 1 -1 -29 12 19)
1969-12-31 18:00:17.695860733,(4 -8 -4 0 6 37 6 22)
1969-12-31 18:00:17.726455746,(-24 -7 -2 -3 -2 6 0 -27)
1969-12-31 18:00:17.726455746,(5 -6 -4 -1 -2 -8 6 5)
1969-12-31 18:00:17.727846429,(2 0 -4 -5 -4 -3 -9 -2)
1969-12-31 18:00:17.727846429,(-27 -11 -3 -3 -5 -10 -5 -27)
1969-12-31 18:00:17.745925300,(55 18 5 3 5 3 -1 41)
1969-12-31 18:00:17.745925300,(-45 -16 -7 -4 -8 -24 13 -4)
1969-12-31 18:00:17.757050760,(-32 -8 -5 -2 1 4 -17 -57)
1969-12-31 18:00:17.757050760,(19 0 1 3 13 64 23 28)
1969-12-31 18:00:17.777910996,(-47 1 -2 -3 -6 -8 -53 -38)
1969-12-31 18:00:17.777910996,(62 12 -4 -3 -1 -20 36 56)
1969-12-31 18:00:17.779301679,(2 -5 1 1 -7 -62 -42 -8)
1969-12-31 18:00:17.779301679,(-23 -13 0 0 0 -5 -8 0)
1969-12-31 18:00:17.811287375,(-4 -2 -4 -7 -4 44 50 11)
1969-12-31 18:00:17.811287375,(0 -7 -6 -1 -3 -21 -29 -32)
1969-12-31 18:00:17.812678057,(3 10 5 0 7 55 9 3)
1969-12-31 18:00:17.812678057,(-4 5 1 -1 -8 -52 -14 -30)
1969-12-31 18:00:17.851617165,(-20 -21 -8 -3 2 23 10 17)
1969-12-31 18:00:17.851617165,(-10 0 2 1 2 6 1 7)
1969-12-31 18:00:17.853007847,(-4 -9 -5 -4 -6 -11 1 -15)
1969-12-31 18:00:17.853007847,(27 15 -2 -6 -3 -19 -14 14)
1969-12-31 18:00:17.859961260,(-6 -4 8 7 -1 -27 -9 -9)
1969-12-31 18:00:17.859961260,(10 7 -1 -2 -9 -51 -9 -5)
1969-12-31 18:00:17.872477401,(-1 -1 -2 -1 10 86 13 -2)
1969-12-31 18:00:17.872477401,(-51 -11 -4 -2 -8 -46 -31 -47)
1969-12-31 18:00:17.893337638,(0 0 -4 -1 6 37 5 24)
1969-12-31 18:00:17.893337638,(26 1 7 4 4 -14 -3 64)
1969-12-31 18:00:17.894728320,(-14 14 8 4 0 0 8 7)
1969-12-31 18:00:17.894728320,(36 6 -3 -5 -8 -42 23 9)
1969-12-31 18:00:17.912807192,(2 -14 -2 1 8 37 -16 -11)
1969-12-31 18:00:17.912807192,(-17 2 2 -3 -12 -55 -27 -28)
1969-12-31 18:00:17.923932651,(15 -7 -7 -3 4 29 23 50)
1969-12-31 18:00:17.925323334,(-19 4 1 0 3 24 -6 13)
1969-12-31 18:00:17.943402205,(4 4 1 0 -4 -40 -25 -3)
1969-12-31 18:00:17.943402205,(22 1 -1 -1 8 48 11 23)
1969-12-31 18:00:17.955918347,(6 10 5 3 1 -24 12 19)
1969-12-31 18:00:17.955918347,(-34 -15 -11 -6 -6 13 -19 -77)
1969-12-31 18:00:17.976778583,(-8 -5 -3 -3 -9 -39 -5 3)
1969-12-31 18:00:17.976778583,(11 11 0 -1 8 76 14 8)
1969-12-31 18:00:17.978169266,(-57 -24 -11 -7 -11 -40 17 -18)
1969-12-31 18:00:17.978169266,(32 -2 -7 -5 -5 17 7 43)
1969-12-31 18:00:18.008764279,(-7 9 -1 -1 -4 -20 10 -8)
1969-12-31 18:00:18.008764279,(6 -4 -2 1 4 33 -2 -11)
1969-12-31 18:00:18.019889739,(-21 -9 -3 -4 -5 -20 -11 -51)
1969-12-31 18:00:18.019889739,(0 2 3 4 3 8 -21 -12)
1969-12-31 18:00:18.028233833,(25 -1 -7 -5 -5 -3 -17 -47)
1969-12-31 18:00:18.028233833,(-2 -3 -3 -2 -2 -12 11 24)
1969-12-31 18:00:18.037968610,(6 -1 2 1 0 -31 -24 3)
1969-12-31 18:00:18.037968610,(21 11 8 4 4 9 33 16)
1969-12-31 18:00:18.060219529,(12 18 11 14 23 81 23 64)
1969-12-31 18:00:18.060219529,(-3 -9 -6 -2 -4 -4 -12 -40)
1969-12-31 18:00:18.063000894,(-37 -8 -4 -3 4 -5 -15 -36)
1969-12-31 18:00:18.063000894,(-2 4 3 -1 -11 14 4 -13)
1969-12-31 18:00:18.079689083,(4 3 2 2 -4 -29 -16 15)
1969-12-31 18:00:18.079689083,(8 2 1 0 8 53 17 40)
1969-12-31 18:00:18.092205225,(33 3 2 0 8 -7 -8 18)
1969-12-31 18:00:18.092205225,(-19 -13 -3 1 20 35 23 3)
1969-12-31 18:00:18.111674779,(30 21 11 11 39 13 51 13)
1969-12-31 18:00:18.111674779,(-11 13 2 -5 -48 -59 -43 -73)
1969-12-31 18:00:18.120018874,(-4 -15 -10 -15 -41 -56 -12 6)
1969-12-31 18:00:18.121409556,(36 8 0 -2 3 48 -9 44)
1969-12-31 18:00:18.143660475,(-32 -16 -8 -3 22 8 36 -26)
1969-12-31 18:00:18.143660475,(33 39 12 12 16 18 10 33)
1969-12-31 18:00:18.146441840,(-36 -45 -6 16 36 45 21 -5)
1969-12-31 18:00:18.146441840,(29 -17 -6 9 59 -12 6 30)
1969-12-31 18:00:18.163130029,(-8 1 -1 -25 -110 -115 -34 5)
1969-12-31 18:00:18.163130029,(-9 -10 -12 -26 52 54 -17 -8)
1969-12-31 18:00:18.175646171,(-8 15 2 -9 -58 -36 4 -11)
1969-12-31 18:00:18.175646171,(15 2 3 4 -7 14 -19 9)
1969-12-31 18:00:18.196506407,(14 1 -1 14 68 49 3 -2)
1969-12-31 18:00:18.196506407,(-2 0 3 17 1 -25 7 -7)
1969-12-31 18:00:18.225710738,(56 23 8 -6 -52 -18 5 20)
1969-12-31 18:00:18.225710738,(-15 -5 -10 -15 -4 -12 13 -9)
1969-12-31 18:00:18.238226880,(-50 -21 -7 -8 -28 -40 -39 -95)
1969-12-31 18:00:18.238226880,(-12 -8 -4 -1 18 12 -1 4)
1969-12-31 18:00:18.239617562,(40 30 -1 28 127 86 22 36)
1969-12-31 18:00:18.239617562,(-20 0 8 -6 -73 -41 10 -17)
1969-12-31 18:00:18.259087116,(-28 -23 22 -9 -80 -50 -23 4)
1969-12-31 18:00:18.259087116,(-7 -19 -22 0 -19 -36 -22 -25)
1969-12-31 18:00:18.260477799,(-31 -36 -22 -11 29 23 -20 -5)
1969-12-31 18:00:18.260477799,(-8 57 53 42 102 47 32 26)
1969-12-31 18:00:18.278556670,(4 -4 -21 1 -4 23 24 -11)
1969-12-31 18:00:18.278556670,(-19 4 22 -30 -78 -62 -17 10)
1969-12-31 18:00:18.288291447,(-1 -23 -18 -11 -21 -23 5 3)
1969-12-31 18:00:18.288291447,(19 0 -29 -18 -3 11 -21 17)
1969-12-31 18:00:18.310542366,(-37 -64 -26 6 68 50 27 -27)
1969-12-31 18:00:18.310542366,(10 14 8 15 -48 -65 -37 -27)
1969-12-31 18:00:18.313323731,(-9 0 -54 -32 -29 -21 -23 -15)
1969-12-31 18:00:18.313323731,(-27 1 58 18 1 -9 -24 -5)
1969-12-31 18:00:18.342528062,(13 34 27 20 24 23 23 30)
1969-12-31 18:00:18.342528062,(-17 -18 2 4 18 30 34 -21)
1969-12-31 18:00:18.345309427,(21 15 6 14 36 5 -39 -11)
1969-12-31 18:00:18.345309427,(28 -47 -101 -43 -58 -10 9 -13)
1969-12-31 18:00:18.361997616,(-76 41 102 26 13 -19 -54 -87)
1969-12-31 18:00:18.361997616,(14 51 16 -3 -16 5 30 44)
1969-12-31 18:00:18.371732393,(16 -42 -64 -4 45 33 -22 -40)
1969-12-31 18:00:18.371732393,(2 -5 26 2 -42 -53 8 -32)
1969-12-31 18:00:18.395373994,(-4 34 22 -2 -22 8 20 13)
1969-12-31 18:00:18.395373994,(24 -14 -1 8 1 20 16 47)
1969-12-31 18:00:18.396764677,(-24 7 27 8 9 1 32 -4)
1969-12-31 18:00:18.396764677,(21 -62 -95 -24 34 23 -7 4)
1969-12-31 18:00:18.425969008,(75 -52 -106 -47 -28 -45 -5 52)
1969-12-31 18:00:18.425969008,(-69 68 103 48 20 20 -6 -36)
1969-12-31 18:00:18.427359690,(72 10 -29 1 1 27 30 53)
1969-12-31 18:00:18.427359690,(-14 -55 -53 0 28 -2 -8 -57)
1969-12-31 18:00:18.445438562,(-8 70 38 1 -11 15 39 41)
1969-12-31 18:00:18.445438562,(77 -3 -33 -3 23 6 -43 18)
1969-12-31 18:00:18.456564021,(2 85 80 35 -11 2 38 -47)
1969-12-31 18:00:18.456564021,(-83 -19 25 -15 -24 -26 -54 -32)
1969-12-31 18:00:18.477424257,(18 -128 -128 -53 -1 0 -7 -6)
1969-12-31 18:00:18.477424257,(-3 -24 -43 -22 -3 -18 -16 0)
1969-12-31 18:00:18.478814940,(-51 52 92 3 -16 -21 -27 -33)
1969-12-31 18:00:18.478814940,(46 41 -45 -4 -31 -18 25 2)
1969-12-31 18:00:18.509409953,(8 57 92 48 36 23 20 51)
1969-12-31 18:00:18.509409953,(-49 -69 -30 -16 47 49 7 -36)
1969-12-31 18:00:18.510800636,(-9 27 39 -3 -68 -24 -4 0)
1969-12-31 18:00:18.510800636,(-26 -5 -18 -25 -24 -7 26 11)
1969-12-31 18:00:18.527488825,(-4 -24 -31 -4 -3 -16 -27 -7)
1969-12-31 18:00:18.527488825,(-17 46 30 43 80 28 16 -29)
1969-12-31 18:00:18.540004967,(10 -115 -58 -26 22 50 15 17)
1969-12-31 18:00:18.540004967,(21 92 27 -27 -107 -70 -14 79)
1969-12-31 18:00:18.560865203,(-44 66 58 22 11 -6 -30 -65)
1969-12-31 18:00:18.560865203,(-10 -60 -33 -5 3 5 24 -30)
1969-12-31 18:00:18.563646568,(55 -49 -70 -13 -18 -18 5 87)
1969-12-31 18:00:18.563646568,(-46 -23 37 19 59 48 10 -45)
1969-12-31 18:00:18.592850899,(12 -2 -36 -28 -18 -23 -42 -30)
1969-12-31 18:00:18.592850899,(8 75 38 37 10 1 29 41)
1969-12-31 18:00:18.595632264,(0 -14 2 2 27 -20 -50 -23)
1969-12-31 18:00:18.595632264,(20 -25 16 13 -34 28 41 27)
1969-12-31 18:00:18.623445912,(-6 -74 -82 -44 -16 -24 -9 -19)
1969-12-31 18:00:18.623445912,(5 43 19 -10 -10 4 2 9)
1969-12-31 18:00:18.626227277,(-38 31 53 9 -3 -25 23 19)
1969-12-31 18:00:18.626227277,(1 -17 -19 -1 -12 -15 -52 -14)
1969-12-31 18:00:18.644306149,(15 -7 8 11 9 19 16 18)
1969-12-31 18:00:18.644306149,(36 -22 -42 -22 -16 3 47 89)
1969-12-31 18:00:18.647087514,(44 41 9 29 53 34 1 -8)
1969-12-31 18:00:18.647087514,(-62 98 127 40 14 -14 -29 -54)
1969-12-31 18:00:18.676291845,(44 7 -20 -13 -16 0 -4 19)
1969-12-31 18:00:18.676291845,(-13 -57 -34 -16 -5 -9 -4 -26)
1969-12-31 18:00:18.677682527,(36 -21 -64 -27 -5 -7 40 70)
1969-12-31 18:00:18.677682527,(-29 16 69 40 9 6 -3 -10)
1969-12-31 18:00:18.706886858,(-27 -12 -5 12 -2 -3 -24 -5)
1969-12-31 18:00:18.706886858,(23 0 24 3 11 11 5 -7)
1969-12-31 18:00:18.709668223,(0 18 -10 -14 -15 -5 -31 -11)
1969-12-31 18:00:18.709668223,(22 -37 -56 -10 35 20 18 -1)
1969-12-31 18:00:18.727747094,(-2 -2 1 -9 -44 -21 30 0)
1969-12-31 18:00:18.727747094,(-1 -10 -33 -35 -26 -10 -59 -17)
1969-12-31 18:00:18.730528459,(-52 -18 22 20 22 9 13 -35)
1969-12-31 18:00:18.730528459,(31 -46 -105 -42 -36 -42 -16 14)
1969-12-31 18:00:18.759732790,(28 113 124 52 35 21 19 15)
1969-12-31 18:00:18.759732790,(-7 13 47 39 26 39 18 21)
1969-12-31 18:00:18.761123473,(2 -35 -6 -11 -47 -28 0 -6)
1969-12-31 18:00:18.761123473,(-46 5 -10 -27 23 14 -11 -28)
1969-12-31 18:00:18.791718486,(-19 -67 -71 -18 -15 -15 23 17)
1969-12-31 18:00:18.791718486,(57 -22 -87 -67 -87 -37 -33 12)
1969-12-31 18:00:18.793109169,(-65 50 114 55 48 17 0 -9)
1969-12-31 18:00:18.793109169,(22 -57 -73 -22 -4 -13 -37 -41)
1969-12-31 18:00:18.811188040,(-29 42 42 18 21 9 -1 -1)
1969-12-31 18:00:18.811188040,(15 51 47 23 61 41 23 16)
1969-12-31 18:00:18.813969405,(-1 21 -10 -19 -88 -57 0 -24)
1969-12-31 18:00:18.813969405,(9 -39 -2 8 12 -1 4 27)
1969-12-31 18:00:18.843173736,(42 -41 -60 -18 32 11 9 29)
1969-12-31 18:00:18.843173736,(-35 -5 7 14 -4 -9 -26 -36)
1969-12-31 18:00:18.845955101,(-1 43 37 6 -7 15 27 26)
1969-12-31 18:00:18.845955101,(21 -17 -14 -15 -15 1 32 37)
1969-12-31 18:00:18.861252608,(-7 -14 12 10 57 46 16 12)
1969-12-31 18:00:18.861252608,(-52 15 8 8 -19 -11 -4 -76)
1969-12-31 18:00:18.873768749,(48 46 2 3 -11 -31 -47 -4)
1969-12-31 18:00:18.873768749,(-7 -19 29 33 52 35 28 29)
1969-12-31 18:00:18.894628986,(-13 -30 -31 -42 -71 -36 -32 -18)
1969-12-31 18:00:18.894628986,(1 -60 -59 -36 -19 -14 17 25)
1969-12-31 18:00:18.897410351,(-54 -73 -54 -13 37 31 -24 -32)
1969-12-31 18:00:18.897410351,(22 -6 -9 10 20 12 22 2)
1969-12-31 18:00:18.925223999,(42 59 45 32 13 7 -16 42)
1969-12-31 18:00:18.925223999,(2 -16 1 -17 -27 -23 -32 43)
1969-12-31 18:00:18.928005364,(9 -55 -52 -17 -34 -9 13 1)
1969-12-31 18:00:18.928005364,(13 -7 19 3 -1 -12 -41 -7)
1969-12-31 18:00:18.957209695,(-31 -58 -74 -46 -61 -66 -41 -40)
1969-12-31 18:00:18.957209695,(23 54 61 33 27 5 8 27)
1969-12-31 18:00:18.968335154,(19 105 81 38 49 36 15 -24)
1969-12-31 18:00:18.968335154,(22 29 24 -18 -80 -32 26 51)
1969-12-31 18:00:18.979460614,(-1 -56 -6 9 43 44 36 26)
1969-12-31 18:00:18.979460614,(-49 -52 -32 -10 -32 -56 -49 -69)
1969-12-31 18:00:18.980851296,(-1 -46 -51 -11 27 10 -35 11)
1969-12-31 18:00:18.980851296,(-15 -46 -48 -11 42 42 18 -6)
1969-12-31 18:00:19.010055627,(71 123 113 50 1 -11 17 60)
1969-12-31 18:00:19.010055627,(-8 -6 -24 -11 -22 1 6 -41)
1969-12-31 18:00:19.011446310,(-18 -48 0 2 37 45 37 20)
1969-12-31 18:00:19.011446310,(-23 -19 -32 -21 -63 -80 -56 -23)
1969-12-31 18:00:19.040650641,(-51 -25 10 -7 -16 16 31 -9)
1969-12-31 18:00:19.040650641,(42 -95 -87 -16 60 25 11 39)
1969-12-31 18:00:19.042041323,(16 111 100 27 -37 -10 -11 -22)
1969-12-31 18:00:19.043432006,(29 47 -2 22 -3 -15 15 18)
1969-12-31 18:00:19.061510877,(-42 -38 12 0 -2 0 -4 -49)
1969-12-31 18:00:19.061510877,(-14 -20 -20 -11 7 16 8 -15)
1969-12-31 18:00:19.064292242,(-7 -4 -47 -38 -21 -7 -70 -26)
1969-12-31 18:00:19.064292242,(7 15 52 18 31 25 44 74)
1969-12-31 18:00:19.092105891,(38 13 -5 14 22 13 5 8)
1969-12-31 18:00:19.092105891,(24 64 73 26 -10 1 36 8)
1969-12-31 18:00:19.094887255,(-55 -115 -75 -37 -51 -48 -26 -52)
1969-12-31 18:00:19.094887255,(-24 41 18 -2 14 34 4 -31)
1969-12-31 18:00:19.111575445,(7 -21 -62 7 27 -11 -37 -41)
1969-12-31 18:00:19.111575445,(-15 -2 1 -18 -34 -12 8 7)
1969-12-31 18:00:19.124091586,(3 -105 -56 -40 -48 -19 19 42)
1969-12-31 18:00:19.124091586,(3 127 127 54 18 -5 -6 -27)
1969-12-31 18:00:19.143561140,(34 -18 -29 10 44 37 22 40)
1969-12-31 18:00:19.143561140,(20 -13 -10 -12 -8 -22 -11 12)
1969-12-31 18:00:19.178328201,(-5 -12 -22 14 26 24 1 5)
1969-12-31 18:00:19.178328201,(46 -36 -20 -31 -74 -68 -32 7)
1969-12-31 18:00:19.179718883,(-73 7 3 -11 50 46 -16 -50)
1969-12-31 18:00:19.179718883,(7 -42 -34 1 -17 -32 -18 -17)
1969-12-31 18:00:19.181109566,(-36 -72 -50 -35 -63 -48 -5 2)
1969-12-31 18:00:19.181109566,(2 71 43 17 45 63 38 11)
1969-12-31 18:00:19.208923213,(14 -40 -62 -13 -21 -22 -13 -4)
1969-12-31 18:00:19.208923213,(-10 -31 24 12 13 19 39 35)
1969-12-31 18:00:19.211704579,(44 100 82 57 51 20 -5 -11)
1969-12-31 18:00:19.211704579,(7 -44 -15 -2 11 -9 -41 -74)
1969-12-31 18:00:19.228392768,(-10 13 -10 -36 -27 -2 -6 -20)
1969-12-31 18:00:19.228392768,(-22 -82 -64 -28 -8 -5 -7 9)
1969-12-31 18:00:19.231174133,(-9 2 -28 -6 -40 -47 10 2)
1969-12-31 18:00:19.231174133,(-9 30 51 35 20 17 29 10)
1969-12-31 18:00:19.260378464,(63 87 67 18 5 -16 -41 -29)
1969-12-31 18:00:19.260378464,(15 1 -8 0 4 42 23 18)
1969-12-31 18:00:19.268722559,(-34 -19 5 -1 21 -3 -11 -17)
1969-12-31 18:00:19.268722559,(-16 -18 -34 -24 -22 -12 14 27)
1969-12-31 18:00:19.278457336,(-11 12 27 8 -35 -6 15 13)
1969-12-31 18:00:19.278457336,(8 -1 8 1 22 0 13 48)
1969-12-31 18:00:19.290973478,(18 36 9 0 -5 -2 -27 -31)
1969-12-31 18:00:19.290973478,(-52 -80 -62 -36 -14 16 23 5)
1969-12-31 18:00:19.311833714,(17 -54 -36 15 12 -13 -27 -1)
1969-12-31 18:00:19.311833714,(23 123 60 30 10 8 14 0)
1969-12-31 18:00:19.314615079,(12 6 23 39 117 108 57 83)
1969-12-31 18:00:19.314615079,(9 9 -21 -9 -49 -78 -36 -35)
1969-12-31 18:00:19.343819410,(-4 -28 23 -43 -98 -24 0 -12)
1969-12-31 18:00:19.343819410,(-77 -50 -23 -15 -23 -48 -106 -82)
1969-12-31 18:00:19.345210092,(59 61 -1 -3 17 25 36 16)
1969-12-31 18:00:19.345210092,(9 -38 -16 12 64 54 26 46)
1969-12-31 18:00:19.375805106,(-12 -32 -43 -4 -10 -14 -22 -14)
1969-12-31 18:00:19.375805106,(-22 57 65 25 -10 -14 9 -11)
1969-12-31 18:00:19.377195788,(22 -21 -28 -13 -16 -6 -12 7)
1969-12-31 18:00:19.377195788,(26 65 73 29 34 15 -15 -10)
1969-12-31 18:00:19.393883977,(-31 -32 -46 -32 -33 -36 -11 -18)
1969-12-31 18:00:19.393883977,(19 4 -3 6 17 36 36 23)
1969-12-31 18:00:19.403618754,(-34 -62 -34 -11 6 3 10 -3)
1969-12-31 18:00:19.403618754,(22 49 51 33 8 11 15 -8)
1969-12-31 18:00:19.425869673,(-13 93 80 27 -1 1 21 39)
1969-12-31 18:00:19.425869673,(22 -41 -62 -42 -50 -34 -52 -5)
1969-12-31 18:00:19.428651038,(-14 12 70 16 1 -12 21 -3)
1969-12-31 18:00:19.428651038,(-1 -38 -98 -38 23 43 -9 -34)
1969-12-31 18:00:19.445339227,(-31 -7 40 43 50 24 52 35)
1969-12-31 18:00:19.445339227,(1 93 109 29 -16 1 -23 -31)
1969-12-31 18:00:19.457855369,(-14 -28 -29 -57 -82 -48 -9 -35)
1969-12-31 18:00:19.457855369,(-29 -56 -51 -2 16 -2 -15 10)
1969-12-31 18:00:19.477324923,(21 -30 -59 -7 25 15 -16 -15)
1969-12-31 18:00:19.477324923,(-21 -38 -41 -1 25 0 24 -5)
1969-12-31 18:00:19.487059700,(14 54 65 25 5 -7 22 27)
1969-12-31 18:00:19.487059700,(29 49 16 -5 -24 11 -17 -15)
1969-12-31 18:00:19.509310619,(-40 -77 -65 -37 -26 -39 -27 -16)
1969-12-31 18:00:19.509310619,(-1 30 42 8 -13 -5 -5 -14)
1969-12-31 18:00:19.512091984,(-24 -37 -3 -1 19 4 -23 -20)
1969-12-31 18:00:19.512091984,(86 83 -9 -6 1 -19 18 61)
1969-12-31 18:00:19.552421774,(-24 49 68 41 -6 6 -5 -7)
1969-12-31 18:00:19.552421774,(2 -38 -15 -7 3 10 11 2)
1969-12-31 18:00:19.555203139,(28 50 1 13 -15 -23 1 12)
1969-12-31 18:00:19.555203139,(-15 -31 42 -2 -2 22 14 -17)
1969-12-31 18:00:19.562156551,(-11 -11 -26 -83 -62 -31 -35 -16)
1969-12-31 18:00:19.562156551,(37 3 -11 53 83 51 33 47)
1969-12-31 18:00:19.570500646,(-31 -49 -39 5 -30 -42 -37 -42)
1969-12-31 18:00:19.570500646,(-22 -43 -23 6 -15 3 32 62)
1969-12-31 18:00:19.594142247,(33 19 -13 5 18 12 14 -36)
1969-12-31 18:00:19.594142247,(-68 -22 5 -38 -26 -14 -12 -41)
1969-12-31 18:00:19.595532929,(1 -42 -70 -30 -5 7 -4 -2)
1969-12-31 18:00:19.595532929,(-1 12 5 24 29 8 -3 5)
1969-12-31 18:00:19.623346578,(20 102 102 44 16 19 44 54)
1969-12-31 18:00:19.623346578,(-18 24 9 -5 6 8 -18 -31)
1969-12-31 18:00:19.635862720,(29 12 -9 9 3 -3 6 22)
1969-12-31 18:00:19.635862720,(-42 -74 -59 -48 -62 -59 -24 -41)
1969-12-31 18:00:19.644206814,(-21 -95 -91 -63 -52 -20 -32 -23)
1969-12-31 18:00:19.644206814,(5 -55 -48 -19 37 -4 3 -10)
1969-12-31 18:00:19.653941591,(19 61 28 -11 -60 9 2 9)
1969-12-31 18:00:19.653941591,(43 45 44 94 80 25 9 8)
1969-12-31 18:00:19.677583193,(7 24 43 30 16 37 37 48)
1969-12-31 18:00:19.677583193,(-33 -50 -48 -14 -14 -23 2 -1)
1969-12-31 18:00:19.678973875,(73 28 4 -23 -11 0 6 12)
1969-12-31 18:00:19.678973875,(-31 -32 -36 -59 -42 -18 -13 -12)
1969-12-31 18:00:19.708178206,(-17 -23 -9 31 49 20 2 -8)
1969-12-31 18:00:19.708178206,(-17 14 7 -13 -48 5 10 7)
1969-12-31 18:00:19.710959571,(5 16 9 18 38 3 -5 -4)
1969-12-31 18:00:19.710959571,(-12 -1 15 12 -8 -2 -8 -1)
1969-12-31 18:00:19.727647760,(27 3 -5 -2 16 -6 -10 -24)
1969-12-31 18:00:19.727647760,(22 3 -21 -17 -19 -5 4 16)
1969-12-31 18:00:19.770758915,(-5 -10 -17 -28 -18 -24 -10 8)
1969-12-31 18:00:19.770758915,(-23 12 27 27 35 47 9 -8)
1969-12-31 18:00:19.772149598,(-12 -17 -24 -12 -16 -16 -10 -15)
1969-12-31 18:00:19.772149598,(91 -37 -50 -11 -1 -5 9 18)
1969-12-31 18:00:19.779103010,(-70 54 46 19 4 4 -17 -36)
1969-12-31 18:00:19.779103010,(-51 -16 19 -12 0 -15 -20 -12)
1969-12-31 18:00:19.791619152,(6 20 6 -6 -4 10 20 15)
1969-12-31 18:00:19.791619152,(-9 -8 0 43 20 0 -13 -18)
1969-12-31 18:00:19.794400517,(-8 -55 -36 -17 5 4 -6 -4)
1969-12-31 18:00:19.794400517,(-39 -28 -25 -7 -10 -13 -17 -29)
1969-12-31 18:00:19.811088706,(27 2 -10 -9 -1 -2 16 16)
1969-12-31 18:00:19.811088706,(5 33 24 -3 2 -7 -4 6)
1969-12-31 18:00:19.820823482,(-14 -20 -2 -13 -12 17 30 17)
1969-12-31 18:00:19.820823482,(-44 -9 -9 -32 -18 -30 -40 -49)
1969-12-31 18:00:19.844465084,(-41 -33 -8 21 -2 4 -4 -31)
1969-12-31 18:00:19.844465084,(-17 6 12 15 11 14 35 29)
1969-12-31 18:00:19.845855766,(13 8 14 22 18 -9 2 7)
1969-12-31 18:00:19.845855766,(112 41 0 -11 -7 12 19 47)
1969-12-31 18:00:19.875060097,(-30 -9 -12 -38 -15 -32 -17 -16)
1969-12-31 18:00:19.875060097,(-53 -10 8 24 9 3 -13 -26)
1969-12-31 18:00:19.876450780,(-2 -12 -8 -3 -5 22 31 36)
1969-12-31 18:00:19.877841462,(-4 -11 -6 6 16 12 5 -10)
1969-12-31 18:00:19.894529651,(51 22 15 11 -15 -21 -10 35)
1969-12-31 18:00:19.894529651,(13 21 -4 -15 -14 -9 -9 -9)
1969-12-31 18:00:19.918171253,(-28 -23 -1 -6 -2 -7 -19 -24)
1969-12-31 18:00:19.918171253,(31 8 -1 3 6 0 -11 -5)
1969-12-31 18:00:19.939031489,(-30 -10 1 10 19 20 9 -7)
1969-12-31 18:00:19.939031489,(18 14 11 -5 -10 2 2 8)
1969-12-31 18:00:19.940422171,(102 53 27 26 21 3 -4 32)
1969-12-31 18:00:19.940422171,(-105 -73 -48 -34 -31 -29 -35 -74)
1969-12-31 18:00:19.968235820,(20 4 -5 0 5 8 2 -3)
1969-12-31 18:00:19.968235820,(26 11 8 -7 -13 -10 -2 13)
1969-12-31 18:00:19.971017185,(49 21 15 13 11 11 15 33)
1969-12-31 18:00:19.971017185,(-20 -9 -1 0 -7 -9 -9 -12)
1969-12-31 18:00:19.976579915,(21 1 1 1 3 2 -3 -7)
1969-12-31 18:00:19.976579915,(-128 -41 -16 -16 -11 -12 -24 -53)
1969-12-31 18:00:19.989096056,(50 27 9 4 7 6 5 12)
1969-12-31 18:00:19.989096056,(-53 -21 -10 -9 -11 -4 -4 -19)
1969-12-31 18:00:20.009956293,(27 11 -2 1 2 -2 -3 4)
1969-12-31 18:00:20.009956293,(26 38 20 9 5 11 14 24)
1969-12-31 18:00:20.021081752,(-50 -46 -21 -8 -5 -7 -17 -36)
1969-12-31 18:00:20.021081752,(17 23 8 2 0 -2 11 24)
1969-12-31 18:00:20.041941989,(-5 -13 -6 -2 0 1 -1 11)
1969-12-31 18:00:20.041941989,(19 19 13 9 3 4 1 -2)
1969-12-31 18:00:20.043332671,(18 9 9 4 1 1 8 22)
1969-12-31 18:00:20.043332671,(31 1 -6 -3 -1 -3 1 17)
1969-12-31 18:00:20.061411543,(4 16 -8 -3 2 5 6 9)
1969-12-31 18:00:20.061411543,(-42 -11 15 3 1 2 -1 0)
1969-12-31 18:00:20.073927685,(5 -17 -15 -8 -8 -12 -17 -32)
1969-12-31 18:00:20.073927685,(38 44 35 15 10 16 25 53)
1969-12-31 18:00:20.104522698,(-2 -9 -8 -1 0 -2 -4 -12)
1969-12-31 18:00:20.104522698,(36 -6 -17 -11 -7 -6 -3 9)
1969-12-31 18:00:20.107304063,(-88 -29 -15 -8 -7 -7 -10 -41)
1969-12-31 18:00:20.107304063,(16 -2 -1 -2 -1 3 4 3)
1969-12-31 18:00:20.126773617,(1 13 10 7 4 2 3 6)
1969-12-31 18:00:20.126773617,(18 -1 -6 -8 -4 -4 -6 -2)
1969-12-31 18:00:20.128164299,(-18 -6 -2 -2 1 1 -2 -3)
1969-12-31 18:00:20.128164299,(22 8 5 5 1 -2 1 11)
1969-12-31 18:00:20.157368630,(-5 4 5 5 2 -1 -1 -5)
1969-12-31 18:00:20.157368630,(-1 -18 -3 -3 -4 -4 -5 -2)
1969-12-31 18:00:20.158759313,(-9 -9 -10 -4 -3 -3 -3 -7)
1969-12-31 18:00:20.158759313,(-12 -13 -8 -5 -2 -2 -4 -8)
1969-12-31 18:00:20.176838184,(-8 0 -2 -5 -3 -3 -2 -4)
1969-12-31 18:00:20.176838184,(9 4 -4 -2 0 -1 2 2)
1969-12-31 18:00:20.179619549,(-2 0 2 -2 0 0 3 -1)
1969-12-31 18:00:20.179619549,(-14 -3 -2 0 -1 -1 -5 -8)
1969-12-31 18:00:20.208823880,(10 9 13 11 6 3 3 5)
1969-12-31 18:00:20.208823880,(12 0 0 -1 -3 -1 1 5)
1969-12-31 18:00:20.211605245,(-12 -13 -16 -7 -2 -2 -4 -10)
1969-12-31 18:00:20.211605245,(16 -8 -10 -4 -1 -2 1 8)
1969-12-31 18:00:20.229684116,(-8 -2 4 0 2 1 -4 -5)
1969-12-31 18:00:20.229684116,(2 15 5 2 1 3 2 0)
1969-12-31 18:00:20.240809576,(-9 -6 1 2 1 1 -5 -5)
1969-12-31 18:00:20.240809576,(-3 -31 -25 -9 -4 0 -1 -6)
1969-12-31 18:00:20.261669812,(4 9 2 -6 -6 -7 -3 2)
1969-12-31 18:00:20.261669812,(9 5 -8 -3 -2 -3 4 2)
1969-12-31 18:00:20.263060495,(-12 4 6 3 2 0 -4 -5)
1969-12-31 18:00:20.263060495,(11 5 7 7 2 2 4 9)
1969-12-31 18:00:20.292264826,(0 -34 -32 -7 -1 3 2 3)
1969-12-31 18:00:20.292264826,(10 42 43 13 3 0 1 2)
1969-12-31 18:00:20.295046191,(-1 -12 -7 -5 -2 -4 -11 -5)
1969-12-31 18:00:20.295046191,(7 -18 -21 -11 -3 2 3 0)
1969-12-31 18:00:20.324250522,(-10 27 11 2 -1 -2 0 0)
1969-12-31 18:00:20.324250522,(1 -6 -19 -6 0 1 0 -1)
1969-12-31 18:00:20.327031886,(-6 6 -2 1 1 2 5 -1)
1969-12-31 18:00:20.327031886,(0 0 20 7 2 -1 -2 -1)
1969-12-31 18:00:20.345110758,(0 -32 -27 -9 -1 0 1 3)
1969-12-31 18:00:20.345110758,(-7 -18 -13 -5 0 2 0 2)
1969-12-31 18:00:20.346501440,(-3 2 2 -3 -1 1 -2 0)
1969-12-31 18:00:20.346501440,(1 15 1 -1 -3 -8 -16 -10)
1969-12-31 18:00:20.375705771,(-9 -9 -4 -6 -4 0 7 0)
1969-12-31 18:00:20.375705771,(-4 -31 -10 -4 -5 -8 -9 -1)
1969-12-31 18:00:20.378487136,(13 48 12 6 5 2 -4 -8)
1969-12-31 18:00:20.378487136,(2 58 55 24 9 7 12 9)
1969-12-31 18:00:20.395175325,(-3 -13 1 3 0 -1 -12 -8)
1969-12-31 18:00:20.395175325,(-11 -20 -8 -9 -7 -4 3 1)
1969-12-31 18:00:20.407691467,(-2 -18 -9 -3 -1 4 11 13)
1969-12-31 18:00:20.407691467,(2 -1 -4 -1 0 1 -10 -4)
1969-12-31 18:00:20.428551704,(-7 12 9 1 -2 1 10 -2)
1969-12-31 18:00:20.428551704,(8 -7 -4 -2 0 0 -4 -3)
1969-12-31 18:00:20.429942386,(-13 -8 -1 -3 -2 -6 -8 -7)
1969-12-31 18:00:20.429942386,(3 -4 -18 -10 0 -1 4 2)
1969-12-31 18:00:20.459146717,(-5 -20 11 1 -6 -3 -10 -7)
1969-12-31 18:00:20.459146717,(7 30 -3 -9 -1 -2 -5 -4)
1969-12-31 18:00:20.460537399,(-4 0 15 10 4 6 6 2)
1969-12-31 18:00:20.460537399,(-1 30 16 2 -1 -4 -11 -10)
1969-12-31 18:00:20.491132413,(4 -7 -3 4 2 2 6 1)
1969-12-31 18:00:20.491132413,(-27 -35 -17 -5 -3 1 4 -2)
1969-12-31 18:00:20.493913778,(-3 -19 -7 -7 -6 -5 -4 -5)
1969-12-31 18:00:20.493913778,(-10 -25 -12 -7 -4 -2 3 -1)
1969-12-31 18:00:20.511992649,(7 20 16 7 5 1 -3 0)
1969-12-31 18:00:20.511992649,(8 23 5 5 -1 1 -10 -8)
1969-12-31 18:00:20.514774014,(-7 -13 -11 -8 -3 5 0 -7)
1969-12-31 18:00:20.514774014,(2 -25 -20 -13 -7 6 -4 -4)
1969-12-31 18:00:20.542587663,(2 6 3 -4 -3 5 -2 -4)
1969-12-31 18:00:20.542587663,(2 12 28 19 4 8 -1 -5)
1969-12-31 18:00:20.543978345,(0 -9 5 11 1 5 -4 -5)
1969-12-31 18:00:20.543978345,(10 8 13 5 0 9 4 -2)
1969-12-31 18:00:20.562057217,(-5 2 3 0 -3 3 -2 -4)
1969-12-31 18:00:20.562057217,(-4 -16 -19 -7 -1 -4 -3 1)
1969-12-31 18:00:20.574573358,(-6 -13 -14 -5 0 -11 0 4)
1969-12-31 18:00:20.574573358,(-3 15 -5 -4 0 -16 5 11)
1969-12-31 18:00:20.595433595,(-4 -3 -16 -7 4 -14 5 12)
1969-12-31 18:00:20.595433595,(-2 -6 -13 -7 3 -11 4 8)
1969-12-31 18:00:20.596824277,(3 8 -14 -8 1 -14 4 9)
1969-12-31 18:00:20.596824277,(1 -14 -12 -2 0 -10 5 8)
1969-12-31 18:00:20.626028608,(-8 -10 -25 -7 2 -10 2 3)
1969-12-31 18:00:20.626028608,(11 -1 10 6 1 -6 1 2)
1969-12-31 18:00:20.628809973,(-1 14 6 3 1 1 7 7)
1969-12-31 18:00:20.628809973,(-19 -32 -17 -13 -9 -9 -4 -8)
1969-12-31 18:00:20.645498162,(5 22 16 8 -2 -4 -5 -5)
1969-12-31 18:00:20.645498162,(-8 -12 -8 -5 -1 4 0 -5)
1969-12-31 18:00:20.658014304,(-2 -21 -2 -8 -3 0 -1 1)
1969-12-31 18:00:20.658014304,(16 44 30 13 2 2 -4 -3)
1969-12-31 18:00:20.678874541,(-2 0 3 -4 -5 3 -1 -2)
1969-12-31 18:00:20.678874541,(-6 -24 -56 -36 -13 -4 -3 -1)
1969-12-31 18:00:20.690000000,(8 21 66 45 14 11 -1 -3)
