time,.data
1969/12/31/18:00:37.050,(1 1 2 2 3 0 -1 0)
1969/12/31/18:00:37.050,(-4 -21 -9 -8 -4 -1 2 -1)
1969/12/31/18:00:37.052,(2 17 14 6 2 0 -2 -1)
1969/12/31/18:00:37.052,(5 -5 -4 1 2 1 2 1)
1969/12/31/18:00:37.064,(2 6 1 2 1 -2 1 0)
1969/12/31/18:00:37.064,(-1 -4 0 0 1 -1 -3 0)
1969/12/31/18:00:37.078,(-3 -11 4 0 -1 -2 1 -1)
1969/12/31/18:00:37.078,(-5 -13 -5 -3 -2 -2 -4 -6)
1969/12/31/18:00:37.086,(5 7 -2 0 0 -1 0 4)
1969/12/31/18:00:37.087,(-4 0 0 0 3 -1 -3 -8)
1969/12/31/18:00:37.101,(6 -4 -2 0 -3 -1 -2 13)
1969/12/31/18:00:37.101,(-1 -2 -4 -2 -2 -3 -2 1)
1969/12/31/18:00:37.112,(-4 -7 -8 -8 -5 -2 -2 -3)
1969/12/31/18:00:37.112,(-2 3 1 -1 -2 -2 1 2)
1969/12/31/18:00:37.113,(-4 -5 -3 -5 1 2 0 -4)
1969/12/31/18:00:37.113,(-2 -2 -16 -8 -4 -3 -2 -3)
1969/12/31/18:00:37.124,(1 5 9 -5 1 -1 2 -1)
1969/12/31/18:00:37.124,(6 7 20 35 9 0 0 3)
1969/12/31/18:00:37.138,(0 4 2 10 7 2 1 -1)
1969/12/31/18:00:37.138,(-3 -11 -24 -17 -9 -3 -2 1)
1969/12/31/18:00:37.153,(-7 -7 -19 -20 -5 -2 -5 -5)
1969/12/31/18:00:37.153,(4 8 28 17 -1 -2 -3 0)
1969/12/31/18:00:37.178,(-5 -12 -21 -32 -7 -2 -2 -5)
1969/12/31/18:00:37.178,(-1 3 -12 -1 -6 -2 -1 0)
1969/12/31/18:00:37.179,(-5 0 16 14 11 2 1 -4)
1969/12/31/18:00:37.179,(4 4 0 10 4 1 1 3)
1969/12/31/18:00:37.180,(-1 -1 18 28 4 0 1 1)
1969/12/31/18:00:37.180,(1 3 -12 -12 -1 0 -1 -2)
1969/12/31/18:00:37.183,(-5 -17 -42 -3 -9 -2 -1 2)
1969/12/31/18:00:37.183,(-1 4 15 -43 -11 -4 -4 -5)
1969/12/31/18:00:37.192,(5 10 26 13 -2 2 6 7)
1969/12/31/18:00:37.192,(-8 -11 -33 -39 -3 -5 -4 -7)
1969/12/31/18:00:37.207,(-1 -5 32 -1 -19 -7 -5 -2)
1969/12/31/18:00:37.207,(9 16 -8 73 32 4 2 6)
1969/12/31/18:00:37.221,(9 19 44 40 18 18 13 4)
1969/12/31/18:00:37.221,(-8 -10 -12 -12 -9 -4 -6 -5)
1969/12/31/18:00:37.229,(-4 -12 -58 -36 -14 -3 -2 -3)
1969/12/31/18:00:37.229,(-9 -19 -13 -57 -25 -9 -4 -3)
1969/12/31/18:00:37.231,(0 -2 1 23 1 -1 4 10)
1969/12/31/18:00:37.231,(8 17 38 22 1 2 1 0)
1969/12/31/18:00:37.244,(0 -8 -11 -38 -3 -5 4 6)
1969/12/31/18:00:37.244,(-6 -6 -15 7 -2 -13 -10 -12)
1969/12/31/18:00:37.251,(-3 -20 -81 -69 -8 -10 -7 -9)
1969/12/31/18:00:37.251,(3 7 53 31 1 6 4 6)
1969/12/31/18:00:37.266,(-2 0 6 49 56 17 6 1)
1969/12/31/18:00:37.266,(4 4 29 10 8 11 15 12)
1969/12/31/18:00:37.281,(5 9 -11 24 14 -2 -3 -2)
1969/12/31/18:00:37.281,(6 10 3 2 -19 -21 0 0)
1969/12/31/18:00:37.289,(-7 -2 15 23 3 -5 -10 -10)
1969/12/31/18:00:37.289,(-10 -20 -72 -46 -4 -3 5 5)
1969/12/31/18:00:37.291,(-5 -1 13 -12 -33 -8 -1 -4)
1969/12/31/18:00:37.291,(8 18 74 25 13 2 6 5)
1969/12/31/18:00:37.304,(9 23 21 33 8 5 2 2)
1969/12/31/18:00:37.304,(-9 -18 -45 -28 -5 2 -2 -5)
1969/12/31/18:00:37.311,(-13 -25 -66 -51 -20 -5 -4 -5)
1969/12/31/18:00:37.311,(-2 2 21 19 12 4 -3 -1)
1969/12/31/18:00:37.326,(0 5 -2 -9 0 3 3 6)
1969/12/31/18:00:37.326,(-3 1 15 0 -13 -3 -11 -14)
1969/12/31/18:00:37.333,(-4 -3 -9 -7 3 -4 -5 -8)
1969/12/31/18:00:37.333,(0 -7 -18 4 10 6 2 2)
1969/12/31/18:00:37.349,(1 3 3 14 -4 -2 0 -1)
1969/12/31/18:00:37.349,(1 6 35 -4 -9 -4 -1 -1)
1969/12/31/18:00:37.351,(2 -1 7 15 5 -4 -5 -1)
1969/12/31/18:00:37.351,(1 -10 -30 -8 -1 -4 0 3)
1969/12/31/18:00:37.363,(5 5 2 -16 -15 -5 1 3)
1969/12/31/18:00:37.363,(-5 -5 -6 -2 5 2 -2 -1)
1969/12/31/18:00:37.372,(-27 -7 22 1 6 5 -6 -13)
1969/12/31/18:00:37.372,(10 9 -7 -6 -4 6 -2 -2)
1969/12/31/18:00:37.387,(-1 1 -7 -14 -10 -1 -9 -9)
1969/12/31/18:00:37.387,(-11 -2 9 4 -3 2 -9 -15)
1969/12/31/18:00:37.401,(-24 -10 10 2 -3 1 -5 -10)
1969/12/31/18:00:37.401,(-1 -14 -16 -7 -4 3 1 8)
1969/12/31/18:00:37.409,(-24 -8 11 2 -5 -3 -8 -19)
1969/12/31/18:00:37.409,(10 4 2 4 2 1 -2 0)
1969/12/31/18:00:37.411,(77 47 13 5 -1 2 6 22)
1969/12/31/18:00:37.411,(-33 -9 -11 -1 1 3 -6 -11)
1969/12/31/18:00:37.423,(39 -10 0 -5 -3 -2 6 29)
1969/12/31/18:00:37.423,(-37 -10 1 7 -1 2 -4 -16)
1969/12/31/18:00:37.432,(-17 -27 -18 -14 -9 -11 -5 -1)
1969/12/31/18:00:37.432,(51 34 9 4 5 -1 -17 -7)
1969/12/31/18:00:37.446,(0 5 2 -1 -2 -4 6 4)
1969/12/31/18:00:37.446,(11 1 -3 -1 1 8 19 13)
1969/12/31/18:00:37.453,(41 14 6 5 2 -31 -23 -1)
1969/12/31/18:00:37.453,(-23 -8 -9 -2 1 31 45 33)
1969/12/31/18:00:37.469,(12 3 -6 -5 -2 5 -4 -7)
1969/12/31/18:00:37.469,(12 -9 -13 -5 -11 -30 -16 22)
1969/12/31/18:00:37.471,(-2 -4 2 2 5 28 42 46)
1969/12/31/18:00:37.471,(-44 -16 -5 -1 2 -19 -38 -51)
1969/12/31/18:00:37.483,(44 3 -9 -9 3 19 16 9)
1969/12/31/18:00:37.483,(6 14 9 3 -5 -42 19 13)
1969/12/31/18:00:37.492,(-54 -8 1 -6 -7 42 8 -21)
1969/12/31/18:00:37.492,(6 1 3 -3 4 -22 3 18)
1969/12/31/18:00:37.506,(-15 -4 8 7 2 -25 -2 -2)
1969/12/31/18:00:37.506,(38 4 0 -1 13 62 -22 -21)
1969/12/31/18:00:37.513,(76 35 14 8 9 4 13 64)
1969/12/31/18:00:37.513,(-95 -41 -14 -13 -21 -21 -10 -82)
1969/12/31/18:00:37.529,(-12 -1 3 -1 -7 -24 -24 -8)
1969/12/31/18:00:37.529,(4 -3 -1 -2 -2 4 14 3)
1969/12/31/18:00:37.544,(-5 -7 -4 -5 -9 -33 -8 -16)
1969/12/31/18:00:37.544,(54 22 6 5 0 -40 -34 5)
1969/12/31/18:00:37.552,(2 5 2 3 7 60 43 79)
1969/12/31/18:00:37.552,(-20 -5 -10 -7 -9 -28 -17 -57)
1969/12/31/18:00:37.554,(4 7 8 9 10 54 -20 -69)
1969/12/31/18:00:37.554,(-9 -18 -5 -3 -2 2 22 30)
1969/12/31/18:00:37.567,(10 -3 -6 -6 -9 -45 -36 34)
1969/12/31/18:00:37.567,(-50 -28 -5 -3 -3 7 6 -45)
1969/12/31/18:00:37.573,(7 14 3 1 2 -40 -21 -24)
1969/12/31/18:00:37.573,(-43 -41 -25 -18 -16 -45 -33 -95)
1969/12/31/18:00:37.590,(61 57 22 9 -1 6 9 26)
1969/12/31/18:00:37.590,(-34 4 1 2 8 2 -21 20)
1969/12/31/18:00:37.591,(-11 -8 2 1 -3 -28 -5 29)
1969/12/31/18:00:37.591,(20 3 -7 -2 9 85 20 13)
1969/12/31/18:00:37.611,(-58 -23 -3 1 7 36 28 25)
1969/12/31/18:00:37.611,(25 0 -11 -8 -4 -49 0 -16)
1969/12/31/18:00:37.620,(-28 -2 3 2 5 30 14 2)
1969/12/31/18:00:37.620,(9 -2 0 4 2 -28 1 -33)
1969/12/31/18:00:37.634,(-13 -7 -2 -3 -10 -27 -23 -25)
1969/12/31/18:00:37.634,(2 -3 -1 1 -5 -12 -20 18)
1969/12/31/18:00:37.636,(6 4 1 -2 -1 -6 8 24)
1969/12/31/18:00:37.636,(-35 -7 -4 -2 -1 31 -11 3)
1969/12/31/18:00:37.656,(-3 6 -2 -6 0 -10 -4 3)
1969/12/31/18:00:37.656,(-23 -8 3 5 3 -4 1 -7)
1969/12/31/18:00:37.671,(-40 -22 -3 -2 2 -2 -22 -47)
1969/12/31/18:00:37.671,(9 -4 -3 -3 6 91 26 -17)
1969/12/31/18:00:37.678,(7 -9 -7 -8 -13 -39 -7 29)
1969/12/31/18:00:37.679,(-28 8 4 -1 0 16 -2 -23)
1969/12/31/18:00:37.688,(-29 -19 -8 -7 -11 -26 15 16)
1969/12/31/18:00:37.688,(42 33 9 4 4 14 -7 27)
1969/12/31/18:00:37.694,(-38 -26 -10 -1 11 10 0 -90)
1969/12/31/18:00:37.694,(47 16 4 -1 -8 -37 -25 11)
1969/12/31/18:00:37.695,(-35 -32 -12 -5 -7 -48 -12 -46)
1969/12/31/18:00:37.695,(7 3 3 0 6 79 0 24)
1969/12/31/18:00:37.716,(22 24 6 3 2 -11 6 -4)
1969/12/31/18:00:37.716,(25 9 7 5 10 54 21 18)
1969/12/31/18:00:37.717,(-28 -10 -4 -5 -5 -1 7 -64)
1969/12/31/18:00:37.717,(18 3 1 7 7 -1 -7 96)
1969/12/31/18:00:37.739,(-17 -22 -2 0 -7 -33 -28 -13)
1969/12/31/18:00:37.739,(21 24 1 -6 -8 2 17 17)
1969/12/31/18:00:37.740,(14 0 8 11 11 53 0 26)
1969/12/31/18:00:37.740,(16 11 -4 -9 -16 -63 0 37)
1969/12/31/18:00:37.754,(-12 -5 -2 -1 1 21 12 -48)
1969/12/31/18:00:37.754,(17 -9 -8 -2 3 17 -21 -14)
1969/12/31/18:00:37.755,(37 12 1 -4 -8 -92 -21 44)
1969/12/31/18:00:37.755,(-24 -8 7 6 12 51 42 -54)
1969/12/31/18:00:37.777,(33 32 4 1 1 -7 3 15)
1969/12/31/18:00:37.777,(31 19 11 9 7 6 21 66)
1969/12/31/18:00:37.777,(-61 -30 -21 -17 -13 -27 -6 -82)
1969/12/31/18:00:37.777,(-7 -5 2 0 -6 -50 -44 -25)
1969/12/31/18:00:37.799,(15 -4 -3 -1 -6 -6 -11 23)
1969/12/31/18:00:37.799,(-12 2 4 7 7 45 40 -14)
1969/12/31/18:00:37.800,(23 22 5 1 1 22 -32 -12)
1969/12/31/18:00:37.800,(-4 2 -3 -2 -4 -37 7 32)
1969/12/31/18:00:37.814,(8 -16 -4 -2 -4 18 24 37)
1969/12/31/18:00:37.814,(-43 -8 -2 -2 2 -8 -18 -67)
1969/12/31/18:00:37.821,(23 3 1 3 -1 10 -1 35)
1969/12/31/18:00:37.821,(-33 -7 -4 -2 -3 -38 0 -28)
1969/12/31/18:00:37.836,(-9 13 6 6 8 12 -13 -43)
1969/12/31/18:00:37.836,(-9 -16 -8 -8 -11 -11 -4 41)
1969/12/31/18:00:37.837,(13 -14 -10 -7 3 21 15 21)
1969/12/31/18:00:37.837,(53 22 13 11 7 -6 4 57)
1969/12/31/18:00:37.859,(-49 -20 -7 -6 -1 37 8 -65)
1969/12/31/18:00:37.859,(-13 -5 -14 -13 -14 -24 -9 -35)
1969/12/31/18:00:37.860,(19 18 7 2 -2 -3 4 5)
1969/12/31/18:00:37.860,(-10 -10 -6 0 -1 -12 6 30)
1969/12/31/18:00:37.874,(-32 -18 -18 -17 -14 -20 -1 29)
1969/12/31/18:00:37.874,(-35 -22 -5 -2 -6 -9 -15 -25)
1969/12/31/18:00:37.875,(15 6 7 2 5 20 -16 29)
1969/12/31/18:00:37.875,(32 23 9 2 -3 -2 40 11)
1969/12/31/18:00:37.896,(-11 -2 0 -1 1 -7 -8 -18)
1969/12/31/18:00:37.896,(-1 -5 -9 -7 -5 0 0 6)
1969/12/31/18:00:37.897,(-19 -1 -2 1 2 28 30 28)
1969/12/31/18:00:37.897,(-11 -9 -8 -7 -11 -29 -19 -29)
1969/12/31/18:00:37.919,(40 17 11 10 7 13 29 28)
1969/12/31/18:00:37.919,(16 8 8 7 15 47 24 58)
1969/12/31/18:00:37.920,(-36 5 0 0 -7 -47 -24 -71)
1969/12/31/18:00:37.920,(-14 -28 -18 -13 -14 -25 -50 -29)
1969/12/31/18:00:37.934,(14 8 9 5 1 -17 6 8)
1969/12/31/18:00:37.934,(46 17 7 10 14 28 39 57)
1969/12/31/18:00:37.935,(-16 2 1 1 -4 4 14 25)
1969/12/31/18:00:37.935,(-1 2 -3 -4 -2 -2 -45 -43)
1969/12/31/18:00:37.956,(2 -22 -7 -6 -9 -14 -31 9)
1969/12/31/18:00:37.956,(-12 -9 5 1 -6 -18 43 5)
1969/12/31/18:00:37.964,(46 37 16 15 33 10 -4 19)
1969/12/31/18:00:37.964,(28 4 -9 1 22 34 53 82)
1969/12/31/18:00:37.979,(1 5 13 4 6 12 -32 -24)
1969/12/31/18:00:37.979,(-70 -54 -20 -8 -8 -38 -42 -61)
1969/12/31/18:00:37.980,(35 9 1 -3 -11 8 37 60)
1969/12/31/18:00:37.980,(-15 8 10 7 5 4 10 -65)
1969/12/31/18:00:37.994,(-7 -9 -14 -9 2 10 -3 -40)
1969/12/31/18:00:37.994,(15 22 8 1 -7 -14 -12 -1)
1969/12/31/18:00:37.995,(-3 -5 -1 4 30 44 21 2)
1969/12/31/18:00:37.995,(-2 -4 -3 -4 -35 -58 -23 -59)
1969/12/31/18:00:38.016,(-35 -7 -5 -1 -12 -14 -40 -60)
1969/12/31/18:00:38.016,(35 19 6 0 -7 23 8 38)
1969/12/31/18:00:38.017,(0 4 -7 -9 -9 -3 -32 -34)
1969/12/31/18:00:38.017,(-29 -25 -3 14 78 47 23 12)
1969/12/31/18:00:38.039,(8 10 6 15 -1 7 43 16)
1969/12/31/18:00:38.039,(15 7 -5 -43 -102 -110 -87 4)
1969/12/31/18:00:38.040,(-36 -37 -17 0 52 0 -16 -43)
1969/12/31/18:00:38.040,(0 1 -3 -3 12 12 7 42)
1969/12/31/18:00:38.054,(16 14 9 4 -6 -28 -12 22)
1969/12/31/18:00:38.054,(-9 -6 -3 4 47 91 22 -31)
1969/12/31/18:00:38.055,(21 12 8 2 -44 -18 3 27)
1969/12/31/18:00:38.055,(-10 -2 -2 0 20 22 -18 -26)
1969/12/31/18:00:38.077,(-14 -12 -9 -4 -14 -10 19 2)
1969/12/31/18:00:38.077,(8 11 4 5 -24 -47 -19 -3)
1969/12/31/18:00:38.077,(16 3 -4 -10 -9 24 1 25)
1969/12/31/18:00:38.077,(-20 -19 -6 6 40 38 18 6)
1969/12/31/18:00:38.099,(-6 -4 -5 -14 -83 -65 10 3)
1969/12/31/18:00:38.099,(12 9 2 3 14 15 -10 6)
1969/12/31/18:00:38.106,(-35 -14 -2 13 23 21 15 -55)
1969/12/31/18:00:38.106,(17 17 5 0 -21 -69 -38 -2)
1969/12/31/18:00:38.115,(-11 0 5 -2 14 40 7 18)
1969/12/31/18:00:38.115,(-24 -19 -10 -11 -19 -18 10 11)
1969/12/31/18:00:38.116,(10 -2 -3 4 42 21 12 21)
1969/12/31/18:00:38.116,(8 25 10 -6 -65 -59 -2 9)
1969/12/31/18:00:38.136,(-13 -5 -7 -10 -17 -3 -3 1)
1969/12/31/18:00:38.136,(-21 -31 -10 9 40 15 -8 -22)
1969/12/31/18:00:38.137,(-3 3 11 25 55 40 7 2)
1969/12/31/18:00:38.137,(8 -5 -6 -19 -61 -32 6 13)
1969/12/31/18:00:38.159,(-5 2 -7 -12 1 0 -10 -12)
1969/12/31/18:00:38.159,(18 9 3 10 27 8 15 12)
1969/12/31/18:00:38.160,(-10 -8 0 7 69 81 15 -12)
1969/12/31/18:00:38.160,(17 2 -5 -5 -67 -54 -3 26)
1969/12/31/18:00:38.174,(9 25 4 -18 -10 -43 -34 -3)
1969/12/31/18:00:38.174,(-6 -18 2 7 24 19 21 7)
1969/12/31/18:00:38.175,(-12 -3 -1 -9 -82 -78 -10 9)
1969/12/31/18:00:38.175,(-1 0 -8 7 50 54 9 -1)
1969/12/31/18:00:38.196,(55 5 -18 -6 13 28 18 54)
1969/12/31/18:00:38.196,(-46 -54 -25 -8 16 9 4 -11)
1969/12/31/18:00:38.197,(-17 20 78 18 -23 -30 -14 -7)
1969/12/31/18:00:38.197,(8 12 -16 17 26 29 16 -5)
1969/12/31/18:00:38.220,(-4 -31 -30 -23 -21 -9 -37 -74)
1969/12/31/18:00:38.220,(19 66 53 14 10 11 15 16)
1969/12/31/18:00:38.221,(18 -31 -35 -19 -19 -17 -15 1)
1969/12/31/18:00:38.221,(41 35 -4 5 54 71 33 63)
1969/12/31/18:00:38.234,(-29 -48 30 26 -29 -48 -6 24)
1969/12/31/18:00:38.234,(-7 -14 -26 -13 -20 3 11 -2)
1969/12/31/18:00:38.242,(16 2 -3 -14 -43 -38 -10 5)
1969/12/31/18:00:38.242,(-17 -9 1 10 23 16 -1 0)
1969/12/31/18:00:38.257,(50 -31 -96 -17 109 71 27 23)
1969/12/31/18:00:38.257,(-2 64 87 20 -87 -52 -6 18)
1969/12/31/18:00:38.257,(-8 57 11 -5 -25 -3 4 -14)
1969/12/31/18:00:38.257,(24 -6 -16 2 24 22 -8 -30)
1969/12/31/18:00:38.279,(-70 -31 18 1 -19 -35 -31 -63)
1969/12/31/18:00:38.279,(46 -76 -102 -31 0 20 23 22)
1969/12/31/18:00:38.280,(5 41 23 -4 -25 -63 -15 6)
1969/12/31/18:00:38.280,(-46 37 86 25 -12 -24 -26 -23)
1969/12/31/18:00:38.294,(-4 -13 -8 -2 20 36 6 -62)
1969/12/31/18:00:38.294,(53 -70 -70 -8 55 20 -5 33)
1969/12/31/18:00:38.295,(-18 4 -28 -16 20 56 30 -16)
1969/12/31/18:00:38.295,(29 54 26 16 -40 0 15 -17)
1969/12/31/18:00:38.317,(-94 24 56 12 -15 -59 -48 -59)
1969/12/31/18:00:38.317,(10 45 22 -6 -25 -11 4 -3)
1969/12/31/18:00:38.317,(18 -108 -100 -24 30 11 5 -7)
1969/12/31/18:00:38.317,(67 -87 -108 -57 -11 26 35 64)
1969/12/31/18:00:38.339,(-17 118 102 69 97 91 30 -3)
1969/12/31/18:00:38.339,(-74 46 0 -8 -55 -72 -62 -96)
1969/12/31/18:00:38.340,(12 -25 -28 -29 -66 -79 -33 -2)
1969/12/31/18:00:38.340,(14 -19 -11 -2 6 -1 -10 16)
1969/12/31/18:00:38.354,(51 -112 -121 -38 27 23 48 115)
1969/12/31/18:00:38.354,(-68 -3 60 35 39 56 19 -31)
1969/12/31/18:00:38.354,(-32 60 45 20 36 27 -5 -5)
1969/12/31/18:00:38.354,(-12 -73 -73 -30 -33 -37 -12 2)
1969/12/31/18:00:38.376,(39 82 55 27 -10 -9 -14 -20)
1969/12/31/18:00:38.376,(43 9 -18 -26 -54 -58 -4 11)
1969/12/31/18:00:38.384,(-41 -71 -62 -10 81 99 21 -45)
1969/12/31/18:00:38.384,(19 89 62 21 10 -21 14 54)
1969/12/31/18:00:38.401,(-22 -66 -50 -33 -61 -41 -42 -85)
1969/12/31/18:00:38.401,(53 13 -29 4 79 86 31 53)
1969/12/31/18:00:38.401,(31 75 87 47 -37 -56 25 87)
1969/12/31/18:00:38.401,(-35 -55 -36 -29 -40 -40 8 42)
1969/12/31/18:00:38.414,(-7 8 9 0 13 30 29 34)
1969/12/31/18:00:38.414,(-1 7 -21 -19 -1 -6 0 -7)
1969/12/31/18:00:38.415,(23 25 64 31 45 52 -6 35)
1969/12/31/18:00:38.415,(20 -15 -58 17 37 17 1 -53)
1969/12/31/18:00:38.436,(-84 1 47 -41 -87 -57 -11 -28)
1969/12/31/18:00:38.436,(-5 22 -17 9 -4 17 -7 -34)
1969/12/31/18:00:38.437,(46 -56 -120 -63 36 48 26 42)
1969/12/31/18:00:38.437,(-60 85 127 74 11 -18 -22 -59)
1969/12/31/18:00:38.459,(33 10 2 25 -39 -65 -19 14)
1969/12/31/18:00:38.459,(-46 33 41 5 -8 -19 -24 -48)
1969/12/31/18:00:38.460,(8 -45 -13 5 -18 -7 -12 -36)
1969/12/31/18:00:38.460,(45 -84 -104 -72 -35 14 11 40)
1969/12/31/18:00:38.474,(25 26 15 42 127 99 20 42)
1969/12/31/18:00:38.474,(-21 -36 -28 -9 -51 -38 -10 35)
1969/12/31/18:00:38.475,(6 -7 7 -27 -84 -76 -4 30)
1969/12/31/18:00:38.475,(14 4 -19 -20 -32 -18 -26 3)
1969/12/31/18:00:38.497,(54 18 -13 0 10 22 29 70)
1969/12/31/18:00:38.497,(2 -11 11 57 127 82 33 29)
1969/12/31/18:00:38.504,(-9 -44 -80 -56 -128 -97 -75 -68)
1969/12/31/18:00:38.504,(-79 88 102 17 -28 -29 -5 -5)
1969/12/31/18:00:38.519,(1 -20 -54 -22 -1 -8 -11 -24)
1969/12/31/18:00:38.519,(-9 -29 -2 -11 -2 -16 -26 -3)
1969/12/31/18:00:38.520,(39 10 18 39 92 89 45 55)
1969/12/31/18:00:38.520,(-47 -67 -68 -31 10 11 -30 -102)
1969/12/31/18:00:38.534,(39 127 105 56 -40 -29 3 40)
1969/12/31/18:00:38.534,(75 15 -37 -13 -31 0 39 46)
1969/12/31/18:00:38.534,(-83 -78 -29 -5 -16 -18 -36 -127)
1969/12/31/18:00:38.534,(24 67 12 29 66 -4 7 21)
1969/12/31/18:00:38.565,(-15 -3 10 -25 -69 -23 -29 -47)
1969/12/31/18:00:38.565,(8 39 45 -3 -11 -23 -25 -25)
1969/12/31/18:00:38.565,(-52 3 45 33 22 6 17 30)
1969/12/31/18:00:38.565,(30 -128 -121 -38 52 69 28 -6)
1969/12/31/18:00:38.579,(-73 -7 13 -3 -18 0 -4 -56)
1969/12/31/18:00:38.579,(34 125 86 29 -8 -20 10 32)
1969/12/31/18:00:38.580,(17 -62 -69 -25 -33 -21 -1 26)
1969/12/31/18:00:38.580,(-44 30 48 21 67 41 -32 -29)
1969/12/31/18:00:38.594,(-1 -21 -39 -9 -18 -20 4 6)
1969/12/31/18:00:38.594,(-11 -95 -79 -28 -45 -17 5 18)
1969/12/31/18:00:38.595,(-3 53 32 14 17 -13 -8 3)
1969/12/31/18:00:38.595,(56 18 1 -20 -55 -5 30 26)
1969/12/31/18:00:38.616,(-35 -19 13 36 79 74 31 -4)
1969/12/31/18:00:38.616,(-27 -28 13 6 58 55 5 -29)
1969/12/31/18:00:38.617,(-5 -14 -43 -15 -11 -12 34 -7)
1969/12/31/18:00:38.617,(-44 -32 15 -26 -83 -79 -62 -46)
1969/12/31/18:00:38.639,(64 -30 -37 8 39 -12 16 50)
1969/12/31/18:00:38.639,(-34 -64 -35 -3 -7 22 8 -24)
1969/12/31/18:00:38.646,(-34 126 104 19 3 9 -5 -28)
1969/12/31/18:00:38.646,(4 28 32 12 17 1 -9 11)
1969/12/31/18:00:38.662,(-63 -94 -86 -38 -16 2 -12 -53)
1969/12/31/18:00:38.662,(24 -69 -47 -9 8 -28 -23 12)
1969/12/31/18:00:38.663,(47 17 -5 12 9 -5 -29 -22)
1969/12/31/18:00:38.663,(-2 33 57 18 -3 12 24 1)
1969/12/31/18:00:38.677,(94 11 -48 -12 31 17 10 89)
1969/12/31/18:00:38.677,(-46 -8 -1 12 45 19 9 -34)
1969/12/31/18:00:38.677,(-25 18 20 -22 -110 -60 -21 -40)
1969/12/31/18:00:38.677,(27 -64 -8 -25 -7 -19 -22 13)
1969/12/31/18:00:38.699,(35 38 -15 0 38 41 29 65)
1969/12/31/18:00:38.699,(-23 -3 -12 -19 13 -15 -19 2)
1969/12/31/18:00:38.700,(22 -35 -20 14 1 11 25 24)
1969/12/31/18:00:38.700,(8 106 103 112 58 47 15 20)
1969/12/31/18:00:38.713,(-9 -89 -45 -37 -75 -30 2 -17)
1969/12/31/18:00:38.713,(-14 -28 -57 -42 20 0 -2 -7)
1969/12/31/18:00:38.722,(4 -12 -26 -18 -25 -31 2 24)
1969/12/31/18:00:38.722,(6 -56 -40 37 25 20 -26 15)
1969/12/31/18:00:38.736,(14 71 85 33 20 5 -9 9)
1969/12/31/18:00:38.736,(55 67 67 37 72 60 87 90)
1969/12/31/18:00:38.737,(15 -22 -32 -33 -3 -18 -93 21)
1969/12/31/18:00:38.737,(-6 -48 -49 -53 -56 -7 25 25)
1969/12/31/18:00:38.759,(-51 9 12 13 8 -10 -7 -42)
1969/12/31/18:00:38.759,(62 -15 -26 -14 -25 -15 -13 24)
1969/12/31/18:00:38.760,(-55 57 53 -4 -6 -11 -8 -16)
1969/12/31/18:00:38.760,(-2 6 -20 -9 1 12 -6 -45)
1969/12/31/18:00:38.773,(21 4 -17 -1 60 -6 -13 40)
1969/12/31/18:00:38.773,(14 -30 14 18 -54 5 -4 12)
1969/12/31/18:00:38.782,(-79 -26 -18 -16 -76 -57 9 -48)
1969/12/31/18:00:38.782,(-14 106 90 18 -19 -39 -33 -44)
1969/12/31/18:00:38.796,(46 -29 -30 1 14 40 63 40)
1969/12/31/18:00:38.796,(9 -7 -12 -24 -44 -66 -79 -53)
1969/12/31/18:00:38.804,(127 -28 -29 40 127 115 93 127)
1969/12/31/18:00:38.804,(-86 -109 -100 -66 -99 -57 -11 -33)
1969/12/31/18:00:38.819,(-53 102 103 19 -31 -13 -43 -72)
1969/12/31/18:00:38.820,(11 18 1 20 -7 -35 -25 -7)
1969/12/31/18:00:38.820,(-45 -31 -9 -9 -6 0 -19 -71)
1969/12/31/18:00:38.820,(22 -35 -52 -16 62 38 27 31)
1969/12/31/18:00:38.833,(-17 -10 -25 -3 0 11 11 -13)
1969/12/31/18:00:38.833,(-56 -64 -1 -16 -59 -41 -29 -28)
1969/12/31/18:00:38.842,(44 79 21 13 1 -24 -6 25)
1969/12/31/18:00:38.842,(4 41 27 19 34 12 -11 -22)
1969/12/31/18:00:38.857,(25 -29 -15 -7 3 -3 2 4)
1969/12/31/18:00:38.857,(-18 10 16 31 70 44 7 12)
1969/12/31/18:00:38.857,(18 10 -9 13 33 34 23 22)
1969/12/31/18:00:38.857,(5 46 1 -31 -92 -57 30 -33)
1969/12/31/18:00:38.887,(-34 9 51 -17 -85 -53 -43 -74)
1969/12/31/18:00:38.887,(48 -73 -90 -18 72 98 39 82)
1969/12/31/18:00:38.888,(-54 -50 -17 -11 -32 -57 -32 -55)
1969/12/31/18:00:38.888,(-21 7 7 25 54 36 18 -12)
1969/12/31/18:00:38.893,(8 -49 -48 -17 22 6 3 51)
1969/12/31/18:00:38.893,(-12 39 16 -13 -61 -37 3 -28)
1969/12/31/18:00:38.901,(35 53 56 32 44 47 26 46)
1969/12/31/18:00:38.901,(10 -36 -46 -8 44 11 -2 24)
1969/12/31/18:00:38.916,(14 5 -9 -25 -88 -27 -6 12)
1969/12/31/18:00:38.916,(-7 81 98 49 26 3 12 -6)
1969/12/31/18:00:38.925,(44 -20 -19 -8 26 16 -12 23)
1969/12/31/18:00:38.925,(55 64 89 32 2 15 17 56)
1969/12/31/18:00:38.939,(-23 -55 -50 -5 2 -24 -17 -34)
1969/12/31/18:00:38.939,(22 -60 -56 -25 -16 -16 14 17)
1969/12/31/18:00:38.940,(-32 103 106 35 6 8 -5 -40)
1969/12/31/18:00:38.940,(63 -40 -32 8 43 58 64 111)
1969/12/31/18:00:38.953,(-58 -25 7 11 25 -14 -58 -69)
1969/12/31/18:00:38.953,(12 66 40 7 -59 -13 18 24)
1969/12/31/18:00:38.961,(-12 -69 -59 -37 -23 6 6 -40)
1969/12/31/18:00:38.962,(-34 -6 -6 -2 7 -10 -37 -66)
1969/12/31/18:00:38.976,(62 32 -16 -19 -4 21 28 46)
1969/12/31/18:00:38.976,(-80 -47 17 10 26 -41 -89 -89)
1969/12/31/18:00:38.977,(-37 -30 -32 -2 4 29 14 -24)
1969/12/31/18:00:38.977,(-26 31 17 -19 -66 -42 -19 -63)
1969/12/31/18:00:38.999,(57 -27 -26 2 10 18 30 52)
1969/12/31/18:00:38.999,(3 81 49 17 50 38 30 -18)
1969/12/31/18:00:39.000,(-11 -38 -44 -1 17 17 9 33)
1969/12/31/18:00:39.000,(2 -3 23 21 -20 -22 -11 24)
1969/12/31/18:00:39.013,(62 -18 -16 -1 54 38 42 65)
1969/12/31/18:00:39.013,(38 24 -4 -3 -37 -9 -3 17)
1969/12/31/18:00:39.022,(10 77 82 -6 -24 -32 -26 -3)
1969/12/31/18:00:39.022,(75 -26 -65 -13 57 34 28 63)
1969/12/31/18:00:39.037,(-20 -33 -9 7 -30 -9 -3 -21)
1969/12/31/18:00:39.037,(-21 1 -1 9 11 3 -12 -43)
1969/12/31/18:00:39.037,(29 49 27 5 -18 -23 3 33)
1969/12/31/18:00:39.037,(-40 -77 -15 11 64 30 -1 -19)
1969/12/31/18:00:39.059,(17 -36 -54 -41 -93 -56 -33 -9)
1969/12/31/18:00:39.059,(-27 -17 -26 -27 -25 -18 2 -1)
1969/12/31/18:00:39.066,(-11 17 11 13 13 11 4 -23)
1969/12/31/18:00:39.066,(-29 52 60 -1 -10 5 -29 -23)
1969/12/31/18:00:39.082,(-31 -39 -13 13 82 49 42 -6)
1969/12/31/18:00:39.082,(-43 4 -38 -34 -81 -69 -49 -76)
1969/12/31/18:00:39.083,(18 9 50 29 14 9 23 48)
1969/12/31/18:00:39.083,(15 -30 -66 -27 -23 -18 -7 21)
1969/12/31/18:00:39.097,(-18 87 104 47 30 13 -9 -35)
1969/12/31/18:00:39.097,(18 20 8 -1 19 49 30 24)
1969/12/31/18:00:39.097,(2 -45 -38 -16 -26 -28 -15 -32)
1969/12/31/18:00:39.097,(-13 -56 -64 -24 -24 -1 0 0)
1969/12/31/18:00:39.120,(-10 -5 29 30 -6 -5 16 -21)
1969/12/31/18:00:39.120,(-18 84 84 33 28 20 22 -5)
1969/12/31/18:00:39.120,(36 -28 -53 11 22 -11 -15 4)
1969/12/31/18:00:39.120,(-65 -53 -36 -43 -41 -38 -55 -95)
1969/12/31/18:00:39.142,(38 46 -24 -18 -11 7 38 44)
1969/12/31/18:00:39.142,(-47 -128 -57 -23 -20 -14 -50 -16)
1969/12/31/18:00:39.143,(9 10 -12 -3 5 23 6 -4)
1969/12/31/18:00:39.143,(6 32 37 21 16 -6 2 24)
1969/12/31/18:00:39.157,(-21 -22 15 -1 -9 8 -18 1)
1969/12/31/18:00:39.157,(-2 78 68 13 -29 -29 8 -12)
1969/12/31/18:00:39.157,(6 -50 -46 -22 13 2 -9 15)
1969/12/31/18:00:39.157,(-31 -12 -47 23 74 20 5 -2)
1969/12/31/18:00:39.187,(17 71 61 -39 -93 -21 -13 5)
1969/12/31/18:00:39.187,(1 -33 -29 -4 -47 -31 16 32)
1969/12/31/18:00:39.188,(-7 -20 -19 -3 44 19 5 4)
1969/12/31/18:00:39.188,(-36 55 103 27 -16 0 8 -10)
1969/12/31/18:00:39.201,(-5 -37 -54 -1 53 19 -32 -26)
1969/12/31/18:00:39.201,(28 33 14 6 -8 -8 0 4)
1969/12/31/18:00:39.209,(102 38 24 31 19 -20 15 89)
1969/12/31/18:00:39.209,(-76 -45 -38 -37 -41 -17 -51 -92)
1969/12/31/18:00:39.218,(17 25 -9 -5 -8 1 15 45)
1969/12/31/18:00:39.218,(1 -16 11 13 45 24 8 16)
1969/12/31/18:00:39.219,(10 -32 -47 -14 0 26 21 22)
1969/12/31/18:00:39.219,(-14 11 24 11 -24 -14 1 6)
1969/12/31/18:00:39.240,(25 38 18 18 54 2 -15 20)
1969/12/31/18:00:39.240,(35 -16 -31 -10 -13 10 27 3)
1969/12/31/18:00:39.240,(-20 19 -3 -4 -8 8 -18 -42)
1969/12/31/18:00:39.241,(10 35 55 -9 -43 -33 -6 -24)
1969/12/31/18:00:39.262,(-68 -57 -36 -6 34 1 -21 -70)
1969/12/31/18:00:39.262,(34 17 -2 -10 -33 -20 14 35)
1969/12/31/18:00:39.263,(-50 -29 -29 -22 -29 -10 -48 -101)
1969/12/31/18:00:39.263,(20 -29 -9 1 5 13 43 52)
1969/12/31/18:00:39.276,(-1 -50 -47 -28 -8 -15 -5 13)
1969/12/31/18:00:39.276,(37 40 -14 20 47 17 12 35)
1969/12/31/18:00:39.277,(-82 37 96 35 14 1 -13 -93)
1969/12/31/18:00:39.277,(66 -18 -26 -6 -31 -8 -15 -3)
1969/12/31/18:00:39.300,(44 42 55 44 80 44 5 -5)
1969/12/31/18:00:39.300,(-47 -59 -55 -35 -68 -37 -2 9)
1969/12/31/18:00:39.301,(-23 6 0 -33 -64 -33 -26 -17)
1969/12/31/18:00:39.301,(25 21 -9 -6 30 23 10 36)
1969/12/31/18:00:39.329,(-47 -48 -35 -24 -46 -41 -4 -11)
1969/12/31/18:00:39.329,(78 -9 -29 5 73 38 2 10)
1969/12/31/18:00:39.337,(-26 -29 -12 -5 -20 -7 18 20)
1969/12/31/18:00:39.337,(-22 -12 20 -1 -26 -11 -21 -27)
1969/12/31/18:00:39.352,(4 44 -5 2 -7 4 10 35)
1969/12/31/18:00:39.352,(-44 -29 -20 -2 21 5 -18 -32)
1969/12/31/18:00:39.353,(0 51 52 22 15 7 34 49)
1969/12/31/18:00:39.353,(-4 -51 -14 -12 -24 -12 5 25)
1969/12/31/18:00:39.360,(6 -55 -51 -26 -40 -17 1 12)
1969/12/31/18:00:39.360,(6 63 40 24 53 24 -3 6)
1969/12/31/18:00:39.360,(23 -15 -9 -23 -30 8 31 36)
1969/12/31/18:00:39.360,(8 16 -8 31 74 28 5 8)
1969/12/31/18:00:39.382,(35 32 24 1 -59 -46 -13 8)
1969/12/31/18:00:39.382,(-72 -65 -16 -13 30 1 -12 -34)
1969/12/31/18:00:39.383,(40 -15 -15 -9 -62 3 -4 33)
1969/12/31/18:00:39.383,(3 13 -5 -30 -46 -39 5 1)
1969/12/31/18:00:39.397,(-30 -9 6 11 10 24 -15 -37)
1969/12/31/18:00:39.397,(77 -50 -81 -20 32 16 13 40)
1969/12/31/18:00:39.397,(-57 82 76 67 53 11 4 -12)
1969/12/31/18:00:39.397,(19 33 8 10 -2 5 4 2)
1969/12/31/18:00:39.420,(8 33 18 9 -1 6 17 35)
1969/12/31/18:00:39.420,(18 -58 -39 -19 -30 -7 -5 21)
1969/12/31/18:00:39.420,(36 -49 -69 -31 15 10 -7 -4)
1969/12/31/18:00:39.420,(-19 34 10 -5 -36 -36 -13 -48)
1969/12/31/18:00:39.442,(-14 -5 25 28 65 35 7 -19)
1969/12/31/18:00:39.442,(-30 16 18 -3 -57 -49 -10 -10)
1969/12/31/18:00:39.443,(5 -38 -7 -40 -7 -20 -17 11)
1969/12/31/18:00:39.443,(21 17 4 13 17 14 15 24)
1969/12/31/18:00:39.456,(20 3 -21 -4 6 2 12 14)
1969/12/31/18:00:39.456,(-63 -21 15 22 18 23 -5 -59)
1969/12/31/18:00:39.457,(-10 -4 -29 6 23 6 7 -3)
1969/12/31/18:00:39.457,(-19 12 25 -11 -24 -16 -6 16)
1969/12/31/18:00:39.479,(-25 -14 -15 -11 -9 -4 -11 -24)
1969/12/31/18:00:39.479,(16 16 22 -1 -6 7 14 24)
1969/12/31/18:00:39.486,(34 -9 -14 -9 -3 -9 -5 22)
1969/12/31/18:00:39.486,(23 -15 -17 7 23 11 7 15)
1969/12/31/18:00:39.502,(-20 -8 -8 -5 -11 -5 5 60)
1969/12/31/18:00:39.502,(-13 20 21 -1 -7 -3 -8 -37)
1969/12/31/18:00:39.504,(19 -18 -18 -13 34 27 25 28)
1969/12/31/18:00:39.504,(15 1 -7 1 -39 -18 -11 6)
1969/12/31/18:00:39.516,(-14 19 34 14 -12 -19 -16 -21)
1969/12/31/18:00:39.516,(39 32 17 -7 -19 -3 0 40)
1969/12/31/18:00:39.525,(-26 -19 -14 -4 2 -18 -20 -66)
1969/12/31/18:00:39.525,(-34 -39 -22 -1 25 23 8 1)
1969/12/31/18:00:39.540,(81 44 10 -7 -11 -10 -16 -14)
1969/12/31/18:00:39.540,(1 -5 2 -8 -6 1 -4 14)
1969/12/31/18:00:39.541,(10 -9 -35 -39 -39 0 -3 -7)
1969/12/31/18:00:39.541,(-25 28 4 7 37 0 -3 -17)
1969/12/31/18:00:39.562,(-7 21 56 18 -2 -4 5 8)
1969/12/31/18:00:39.562,(-24 -6 2 47 33 14 -12 -33)
1969/12/31/18:00:39.564,(-53 -55 3 14 16 -9 -1 4)
1969/12/31/18:00:39.564,(25 -4 -14 -8 -14 36 5 -9)
1969/12/31/18:00:39.576,(-17 -16 -32 -41 -19 -37 -2 -9)
1969/12/31/18:00:39.576,(74 32 18 0 10 3 9 42)
1969/12/31/18:00:39.585,(4 8 -7 -4 -21 -9 4 17)
1969/12/31/18:00:39.585,(32 4 1 -8 -11 -49 -24 -14)
1969/12/31/18:00:39.599,(-57 -25 -9 1 22 63 10 -54)
1969/12/31/18:00:39.599,(5 -4 -2 -13 -26 -12 -25 -21)
1969/12/31/18:00:39.601,(62 31 16 19 11 9 7 63)
1969/12/31/18:00:39.601,(-8 10 11 8 17 18 18 49)
1969/12/31/18:00:39.621,(1 -10 -10 -6 -15 -44 -39 -37)
1969/12/31/18:00:39.621,(-45 -24 -22 -34 -22 -1 7 -32)
1969/12/31/18:00:39.630,(-10 12 14 7 6 27 11 -5)
1969/12/31/18:00:39.630,(26 6 6 -7 4 -16 -2 18)
1969/12/31/18:00:39.636,(-97 -39 -12 49 -3 9 -7 -65)
1969/12/31/18:00:39.636,(-13 -9 2 -6 29 2 1 -2)
1969/12/31/18:00:39.645,(-3 -7 10 49 22 -19 -16 27)
1969/12/31/18:00:39.645,(15 0 -10 -20 -19 22 18 -18)
1969/12/31/18:00:39.660,(32 8 -3 -15 -12 -9 11 26)
1969/12/31/18:00:39.660,(49 26 12 -2 -4 9 26 56)
1969/12/31/18:00:39.661,(-4 20 12 -5 0 14 6 -33)
1969/12/31/18:00:39.661,(-50 -22 -19 -6 0 -9 -8 -9)
1969/12/31/18:00:39.682,(-34 -45 -24 -27 -9 -15 -33 -74)
1969/12/31/18:00:39.682,(-13 24 14 15 5 3 -1 -11)
1969/12/31/18:00:39.684,(2 -8 -1 -8 -4 -1 7 9)
1969/12/31/18:00:39.684,(81 26 0 5 -4 -2 -2 18)
1969/12/31/18:00:39.696,(-10 24 14 3 13 2 6 21)
1969/12/31/18:00:39.696,(-86 -56 -20 -11 -19 -18 -24 -60)
1969/12/31/18:00:39.705,(-16 -7 -16 -13 -13 -13 -26 -30)
1969/12/31/18:00:39.705,(-31 -13 7 6 9 11 6 12)
1969/12/31/18:00:39.720,(17 0 -4 0 4 0 10 32)
1969/12/31/18:00:39.720,(14 8 -8 -13 -9 -8 -5 1)
1969/12/31/18:00:39.721,(-27 14 7 1 3 4 1 -13)
1969/12/31/18:00:39.721,(-49 -27 -1 14 1 -6 -16 -57)
1969/12/31/18:00:39.742,(28 15 10 7 9 7 10 26)
1969/12/31/18:00:39.742,(34 19 14 7 -4 -1 7 29)
1969/12/31/18:00:39.744,(20 -1 -7 -2 -1 -18 -16 -9)
1969/12/31/18:00:39.744,(11 0 -9 -2 0 -5 10 24)
1969/12/31/18:00:39.756,(15 -2 -1 -7 -2 5 -1 2)
1969/12/31/18:00:39.756,(-45 -22 -22 -17 -7 -11 -8 -19)
1969/12/31/18:00:39.771,(8 2 33 3 -3 4 4 14)
1969/12/31/18:00:39.771,(42 19 9 19 12 9 14 47)
1969/12/31/18:00:39.780,(14 18 -25 -7 6 4 5 7)
1969/12/31/18:00:39.780,(8 10 47 19 -5 -4 -4 4)
1969/12/31/18:00:39.781,(-5 -9 -13 0 1 1 7 -2)
1969/12/31/18:00:39.781,(-30 -17 -5 -11 -7 -5 -6 -20)
1969/12/31/18:00:39.802,(5 -6 -28 -29 -9 -2 -1 2)
1969/12/31/18:00:39.802,(-6 -8 -19 -21 -5 -1 1 -8)
1969/12/31/18:00:39.804,(0 4 -18 4 -3 -5 -6 -11)
1969/12/31/18:00:39.804,(-9 -1 58 37 12 2 3 -3)
1969/12/31/18:00:39.816,(25 24 28 42 18 12 9 28)
1969/12/31/18:00:39.816,(31 13 -11 -5 2 5 6 15)
1969/12/31/18:00:39.825,(-66 -18 13 -13 -3 -9 -12 -27)
1969/12/31/18:00:39.825,(14 -1 -59 -25 -8 -2 -5 -5)
1969/12/31/18:00:39.840,(-1 -12 22 -5 -6 -5 3 9)
1969/12/31/18:00:39.840,(-18 14 23 11 3 2 -2 -13)
1969/12/31/18:00:39.841,(7 11 3 -13 -6 -1 -1 -8)
1969/12/31/18:00:39.841,(-6 -36 -54 -30 -9 -1 0 -2)
1969/12/31/18:00:39.862,(-4 20 20 0 0 -1 9 -3)
1969/12/31/18:00:39.862,(10 1 -3 15 2 -7 -30 -10)
1969/12/31/18:00:39.864,(0 -27 -39 -20 -10 -4 6 8)
1969/12/31/18:00:39.864,(-4 -14 2 -4 0 0 -8 -3)
1969/12/31/18:00:39.876,(-4 8 -1 4 4 2 -1 -4)
1969/12/31/18:00:39.876,(3 17 17 8 -3 -2 9 1)
1969/12/31/18:00:39.891,(7 21 25 23 13 7 12 14)
1969/12/31/18:00:39.891,(-6 -3 8 6 -8 -10 -12 -18)
1969/12/31/18:00:39.899,(-5 -39 -47 -14 -3 6 5 6)
1969/12/31/18:00:39.899,(2 29 28 9 -1 -1 -11 -7)
1969/12/31/18:00:39.907,(4 -28 -46 -22 -12 -6 -1 -6)
1969/12/31/18:00:39.907,(8 40 45 4 6 3 14 6)
1969/12/31/18:00:39.922,(-15 -41 -37 -18 -8 -5 -3 0)
1969/12/31/18:00:39.922,(-3 43 38 27 11 6 2 2)
1969/12/31/18:00:39.924,(7 -43 -34 -9 -6 -5 -14 -12)
1969/12/31/18:00:39.924,(5 29 14 3 3 3 8 5)
1969/12/31/18:00:39.936,(7 31 31 14 4 4 5 1)
1969/12/31/18:00:39.936,(-10 -45 -41 -19 -11 -7 -1 1)
1969/12/31/18:00:39.945,(-5 -13 -5 -6 -3 -4 4 2)
1969/12/31/18:00:39.945,(-3 -3 -19 -11 -1 -4 -18 -7)
1969/12/31/18:00:39.959,(-12 -3 11 -1 -7 -7 -3 -8)
1969/12/31/18:00:39.959,(2 -19 -23 -6 2 4 11 12)
1969/12/31/18:00:39.966,(3 18 17 3 -1 0 -3 -3)
1969/12/31/18:00:39.966,(1 0 -4 1 -3 -3 1 -3)
1969/12/31/18:00:39.981,(4 21 22 12 2 -1 -6 0)
1969/12/31/18:00:39.981,(-9 -3 6 0 -1 0 10 -5)
1969/12/31/18:00:39.990,(1 -4 -5 -1 -1 1 -13 -3)
1969/12/31/18:00:39.990,(-3 -5 -5 -1 -2 0 6 8)
1969/12/31/18:00:40.005,(-16 -15 -5 -4 -2 -6 -10 -13)
1969/12/31/18:00:40.005,(9 -17 -21 -9 -5 -1 2 1)
1969/12/31/18:00:40.006,(-3 28 18 9 5 3 7 1)
1969/12/31/18:00:40.006,(18 8 -1 -1 0 -2 0 6)
1969/12/31/18:00:40.019,(-12 -32 -24 -13 -5 -5 -12 -7)
1969/12/31/18:00:40.019,(-7 10 -4 -8 -4 -2 3 -4)
1969/12/31/18:00:40.026,(4 13 29 22 5 0 -3 -1)
1969/12/31/18:00:40.026,(-7 -10 -8 -4 0 -1 -7 -4)
1969/12/31/18:00:40.041,(9 8 -7 -6 -4 -4 -1 1)
1969/12/31/18:00:40.041,(5 -10 -10 -4 3 2 0 2)
1969/12/31/18:00:40.066,(-4 7 1 -6 0 2 -1 -5)
1969/12/31/18:00:40.066,(-6 -2 3 -3 1 2 0 -2)
1969/12/31/18:00:40.067,(-8 -26 2 -9 -5 -1 -7 -6)
1969/12/31/18:00:40.067,(-2 7 2 14 6 5 -3 -10)
1969/12/31/18:00:40.071,(-5 11 8 -3 -3 7 -3 -6)
1969/12/31/18:00:40.071,(-1 -7 -5 -6 -4 -1 -8 -9)
1969/12/31/18:00:40.079,(9 -12 -29 1 0 -1 7 15)
1969/12/31/18:00:40.079,(12 50 47 24 7 2 3 6)
1969/12/31/18:00:40.086,(8 -22 -11 -3 -4 -7 1 5)
1969/12/31/18:00:40.086,(-16 -20 -23 -13 -7 -2 2 4)
1969/12/31/18:00:40.102,(7 -2 6 11 4 -5 -3 -6)
1969/12/31/18:00:40.102,(0 -11 -18 -11 -4 -6 1 0)
1969/12/31/18:00:40.104,(-21 -54 -28 -13 -1 -3 0 -1)
1969/12/31/18:00:40.104,(-1 37 47 21 5 0 -5 -4)
1969/12/31/18:00:40.125,(-3 -1 10 -3 -3 -1 3 5)
1969/12/31/18:00:40.125,(-2 -1 -32 -20 -7 -6 -3 -8)
1969/12/31/18:00:40.126,(-9 -8 6 6 3 4 3 3)
1969/12/31/18:00:40.126,(-6 -33 -30 -23 -9 -6 -4 -5)
1969/12/31/18:00:40.139,(13 43 -28 -13 -1 -2 -3 -3)
1969/12/31/18:00:40.139,(-7 -29 5 14 5 7 2 -1)
1969/12/31/18:00:40.146,(8 50 -5 -11 -6 -8 -5 -2)
1969/12/31/18:00:40.146,(4 9 16 24 10 4 4 0)
1969/12/31/18:00:40.163,(-5 -8 -13 -11 -6 1 0 2)
1969/12/31/18:00:40.163,(-1 -19 -20 -19 -5 -5 -2 1)
1969/12/31/18:00:40.164,(10 11 1 4 0 -2 -1 1)
1969/12/31/18:00:40.165,(-10 -20 -12 -4 0 1 3 1)
1969/12/31/18:00:40.185,(-3 9 26 5 1 -2 1 -3)
1969/12/31/18:00:40.185,(-4 -26 -45 -17 -5 -5 -3 2)
1969/12/31/18:00:40.186,(6 3 24 7 0 -4 0 2)
1969/12/31/18:00:40.186,(12 22 17 12 6 -2 1 2)
1969/12/31/18:00:40.198,(-9 -22 5 7 4 0 0 1)
1969/12/31/18:00:40.198,(2 5 -33 -15 -5 -9 -3 1)
1969/12/31/18:00:40.207,(-4 -23 -9 1 0 -2 0 -1)
1969/12/31/18:00:40.207,(-1 -14 1 9 5 0 7 8)
1969/12/31/18:00:40.230,(6 24 8 2 -2 -5 -2 -1)
1969/12/31/18:00:40.230,(-5 -25 -5 -4 -2 -6 0 4)
1969/12/31/18:00:40.231,(2 6 3 -2 -2 -5 1 4)
1969/12/31/18:00:40.231,(-1 6 -10 -9 -4 -6 -2 1)
1969/12/31/18:00:40.244,(-18 -33 3 -8 0 1 1 -3)
1969/12/31/18:00:40.244,(10 44 54 21 11 7 -3 -6)
1969/12/31/18:00:40.246,(-4 -10 -18 -16 0 8 -2 -6)
1969/12/31/18:00:40.246,(0 15 26 10 3 7 -3 -7)
1969/12/31/18:00:40.267,(-17 -50 -38 -26 -11 1 -4 -4)
1969/12/31/18:00:40.267,(7 31 57 36 9 7 -2 -8)
1969/12/31/18:00:40.269,(4 57 5 5 -2 1 -2 -6)
1969/12/31/18:00:40.269,(3 -8 -2 -3 -5 0 -1 3)
1969/12/31/18:00:40.282,(0 -7 -3 1 -2 -2 1 4)
1969/12/31/18:00:40.282,(-9 -28 -26 -21 -10 -8 -1 5)
1969/12/31/18:00:40.284,(-1 -19 4 5 1 -4 0 2)
1969/12/31/18:00:40.284,(-4 -5 -12 -6 -2 -3 4 2)
1969/12/31/18:00:40.303,(9 34 11 4 0 -3 -1 1)
1969/12/31/18:00:40.303,(-2 -5 -2 -1 -1 -2 0 1)
1969/12/31/18:00:40.318,(1 1 6 3 2 0 0 2)
1969/12/31/18:00:40.318,(1 4 -1 -5 -1 1 -1 1)
1969/12/31/18:00:40.326,(-2 11 9 6 2 0 -7 -8)
1969/12/31/18:00:40.326,(-6 -7 2 -7 -2 2 -1 -5)
1969/12/31/18:00:40.335,(-4 -13 0 -1 -4 1 -1 -2)
1969/12/31/18:00:40.335,(-1 4 2 -5 -4 -3 -10 -7)
1969/12/31/18:00:40.342,(3 -2 15 10 5 2 1 0)
1969/12/31/18:00:40.342,(-6 11 -14 -5 -3 0 -7 -8)
1969/12/31/18:00:40.344,(-1 17 2 1 -4 0 -3 -3)
1969/12/31/18:00:40.344,(0 -11 -2 2 1 2 2 -3)
1969/12/31/18:00:40.364,(3 22 8 8 -1 4 -4 -5)
1969/12/31/18:00:40.364,(-8 -24 -6 -11 -4 3 -2 -2)
1969/12/31/18:00:40.366,(9 16 1 -3 -1 6 -3 -3)
1969/12/31/18:00:40.366,(-4 -9 -2 -2 -2 5 -1 -3)
1969/12/31/18:00:40.378,(2 -2 -2 -2 -2 1 -4 -3)
1969/12/31/18:00:40.378,(-1 -20 -9 -4 -3 -4 -1 -1)
1969/12/31/18:00:40.387,(-3 -6 -1 1 -1 -4 -2 1)
1969/12/31/18:00:40.387,(0 -3 -2 -1 -1 -6 -2 -2)
1969/12/31/18:00:40.401,(1 7 4 1 1 -4 0 1)
1969/12/31/18:00:40.401,(0 7 1 2 0 -3 -2 0)
1969/12/31/18:00:40.416,(-4 -11 1 -2 1 -4 -2 -2)
1969/12/31/18:00:40.416,(1 4 -3 2 0 3 2 5)
1969/12/31/18:00:40.425,(0 2 0 3 -1 -3 -1 -1)
1969/12/31/18:00:40.425,(2 4 -2 0 -1 -1 2 1)
1969/12/31/18:00:40.427,(-1 -14 -4 -1 -2 -4 3 3)
1969/12/31/18:00:40.427,(-1 -3 -6 -3 -3 -4 2 2)
1969/12/31/18:00:40.438,(-1 2 -3 0 1 -2 1 -1)
1969/12/31/18:00:40.438,(2 11 12 3 0 -3 1 0)
1969/12/31/18:00:40.453,(-2 -7 -6 -1 0 0 3 1)
1969/12/31/18:00:40.453,(-2 7 4 4 1 -1 -3 -3)
1969/12/31/18:00:40.469,(0 2 1 2 0 0 2 2)
1969/12/31/18:00:40.470,(-1 -4 -7 -3 -2 0 0 0)
1969/12/31/18:00:40.471,(-3 -7 -2 0 0 -1 0 1)
1969/12/31/18:00:40.471,(4 10 5 0 -2 -4 -1 -1)
1969/12/31/18:00:40.484,(-2 -10 -3 -5 -1 -4 -4 -2)
1969/12/31/18:00:40.484,(4 9 2 2 0 -3 -1 1)
1969/12/31/18:00:40.492,(-2 0 -9 -5 0 -2 -3 -2)
1969/12/31/18:00:40.492,(-6 -9 3 0 0 2 0 -2)
1969/12/31/18:00:40.498,(-1 -5 1 -2 2 3 0 -2)
1969/12/31/18:00:40.498,(-2 11 7 0 2 2 -3 -5)
1969/12/31/18:00:40.507,(1 1 2 0 -3 1 -5 -5)
1969/12/31/18:00:40.507,(0 2 -1 -1 0 0 -2 -2)
1969/12/31/18:00:40.523,(-2 2 5 2 -1 0 -2 0)
1969/12/31/18:00:40.523,(-4 -9 -5 -5 -3 0 0 -2)
1969/12/31/18:00:40.525,(2 2 5 1 1 0 -2 -3)
1969/12/31/18:00:40.525,(1 0 -4 -1 0 5 5 2)
1969/12/31/18:00:40.545,(-2 -1 -1 -1 -3 -2 -3 -3)
1969/12/31/18:00:40.545,(-2 -9 -6 1 -1 -1 -1 1)
1969/12/31/18:00:40.546,(-2 -4 1 -1 -1 0 0 -1)
1969/12/31/18:00:40.547,(0 -4 -5 -2 -3 -2 -2 -1)
1969/12/31/18:00:40.567,(2 5 -2 0 -2 -2 -3 -1)
1969/12/31/18:00:40.567,(-5 -12 -7 0 -1 -1 1 -2)
1969/12/31/18:00:40.581,(0 -1 -4 0 1 -1 3 2)
1969/12/31/18:00:40.581,(-3 -6 -6 -4 -4 -6 -1 0)
1969/12/31/18:00:40.596,(0 7 0 -2 -1 -1 3 0)
1969/12/31/18:00:40.596,(-1 -5 -7 -3 -2 -3 -2 -1)
1969/12/31/18:00:40.614,(-5 -13 -6 -2 -2 -1 0 -1)
1969/12/31/18:00:40.614,(0 5 -1 -3 0 -1 -2 -1)
1969/12/31/18:00:40.615,(-1 -3 -3 -1 -1 0 0 1)
1969/12/31/18:00:40.615,(0 9 12 2 0 -2 0 -1)
1969/12/31/18:00:40.619,(0 -3 2 1 1 2 -1 0)
1969/12/31/18:00:40.619,(1 1 -2 0 -1 -2 -1 -1)
1969/12/31/18:00:40.626,(-1 -1 1 2 -1 1 0 -1)
1969/12/31/18:00:40.626,(-1 -2 0 -2 0 1 -1 -2)
1969/12/31/18:00:40.635,(-1 0 1 0 1 2 2 1)
1969/12/31/18:00:40.635,(-4 -4 -3 -3 -1 -3 -2 -2)
1969/12/31/18:00:40.642,(1 6 8 2 0 -1 0 0)
1969/12/31/18:00:40.642,(-1 -4 -6 -5 -4 -3 -1 2)
1969/12/31/18:00:40.644,(0 3 1 -1 -3 -3 -2 -1)
1969/12/31/18:00:40.644,(-1 -2 -4 0 -1 0 0 0)
1969/12/31/18:00:40.671,(-2 -2 -3 -3 -1 -1 2 -1)
1969/12/31/18:00:40.671,(-1 1 2 0 1 -1 -2 -2)
1969/12/31/18:00:40.686,(-2 -1 3 -1 -2 -1 0 0)
1969/12/31/18:00:40.686,(0 1 1 -1 -1 -2 -1 0)
1969/12/31/18:00:40.695,(-2 -2 -3 -3 -3 -2 -4 -2)
1969/12/31/18:00:40.695,(1 -2 -6 -2 1 1 2 1)
1969/12/31/18:00:40.696,(-1 8 10 1 0 -1 -1 0)
1969/12/31/18:00:40.696,(-1 -3 -1 1 1 -1 -3 -3)
1969/12/31/18:00:40.702,(0 1 1 -1 1 -1 -1 1)
1969/12/31/18:00:40.702,(-2 -7 -5 -2 -3 -2 -2 -1)
1969/12/31/18:00:40.716,(-3 -5 -5 -3 -3 -3 -2 -3)
1969/12/31/18:00:40.716,(0 0 -1 -2 -3 -2 -2 2)
1969/12/31/18:00:40.724,(1 4 -1 -1 -1 -1 1 2)
1969/12/31/18:00:40.724,(-1 1 3 1 0 0 0 -2)
