time,.data
1969/12/31/18:00:08.173000,(3 4 40 42 15 6 3 2)
1969/12/31/18:00:08.173000,(6 15 -6 -5 3 5 2 3)
1969/12/31/18:00:08.181000,(-5 -12 5 -11 -6 -7 -1 -3)
1969/12/31/18:00:08.181000,(-12 -23 -86 -47 -16 -1 -2 -6)
1969/12/31/18:00:08.196000,(-3 -6 15 -12 -11 -1 -8 -4)
1969/12/31/18:00:08.196000,(11 29 66 45 22 -2 -3 4)
1969/12/31/18:00:08.197000,(18 43 93 107 33 22 14 13)
1969/12/31/18:00:08.197000,(1 8 -17 -19 7 1 3 -1)
1969/12/31/18:00:08.219000,(-17 -40 -70 -32 -21 -4 2 0)
1969/12/31/18:00:08.219000,(-10 -16 -26 -24 -11 -10 -12 -17)
1969/12/31/18:00:08.219000,(2 -7 17 -10 -7 -7 -6 1)
1969/12/31/18:00:08.219000,(6 13 4 40 13 1 2 0)
1969/12/31/18:00:08.233000,(7 16 20 -19 1 -1 1 5)
1969/12/31/18:00:08.233000,(-10 -12 3 -7 -10 -3 -2 -5)
1969/12/31/18:00:08.241000,(-7 -16 -65 -16 -5 -3 -2 -3)
1969/12/31/18:00:08.241000,(1 -1 55 -35 -7 1 -5 -5)
1969/12/31/18:00:08.256000,(5 7 -13 49 13 7 4 4)
1969/12/31/18:00:08.256000,(7 17 18 1 6 9 4 -1)
1969/12/31/18:00:08.264000,(-9 -22 -37 -10 -9 1 0 -1)
1969/12/31/18:00:08.264000,(5 -3 -1 1 -9 -6 7 18)
1969/12/31/18:00:08.279000,(10 19 52 16 7 -12 3 7)
1969/12/31/18:00:08.279000,(-3 -23 -67 -17 -11 -17 4 7)
1969/12/31/18:00:08.280000,(-3 -9 -20 -11 -4 -18 -1 -3)
1969/12/31/18:00:08.280000,(5 7 43 26 9 -9 8 14)
1969/12/31/18:00:08.293000,(-1 -3 -23 -41 -8 -11 -5 -4)
1969/12/31/18:00:08.293000,(-4 0 -14 21 9 10 19 19)
1969/12/31/18:00:08.309000,(-9 5 14 -18 2 2 -10 -11)
1969/12/31/18:00:08.309000,(-9 -5 -12 -3 0 8 -5 -7)
1969/12/31/18:00:08.316000,(-11 -3 0 -23 -6 9 -5 -18)
1969/12/31/18:00:08.316000,(-5 -4 1 -1 -3 5 -16 -24)
1969/12/31/18:00:08.317000,(-1 -8 -7 -1 -3 8 3 5)
1969/12/31/18:00:08.317000,(-1 -1 -2 -10 -7 2 2 -2)
1969/12/31/18:00:08.339000,(9 20 40 47 14 8 2 4)
1969/12/31/18:00:08.339000,(2 -1 -14 -13 -7 -5 -7 -4)
1969/12/31/18:00:08.339000,(-1 9 25 15 4 2 -4 -8)
1969/12/31/18:00:08.339000,(-3 -1 5 17 6 3 -8 -12)
1969/12/31/18:00:08.353000,(-9 -21 -44 -33 -13 -1 -2 -3)
1969/12/31/18:00:08.353000,(-2 -23 -20 -26 -12 -4 -3 -1)
1969/12/31/18:00:08.361000,(4 35 55 30 9 2 -1 -1)
1969/12/31/18:00:08.361000,(-1 -15 -27 -2 0 0 -4 -1)
1969/12/31/18:00:08.376000,(-2 1 -13 -14 -7 -4 -7 -3)
1969/12/31/18:00:08.376000,(-1 4 20 9 3 2 1 1)
1969/12/31/18:00:08.377000,(0 -30 -47 -25 -11 -5 -6 -1)
1969/12/31/18:00:08.377000,(-9 1 -6 -1 -4 -4 -5 -6)
1969/12/31/18:00:08.399000,(2 11 27 14 3 0 -2 -5)
1969/12/31/18:00:08.399000,(5 6 -12 -6 -6 -3 -3 0)
1969/12/31/18:00:08.414000,(5 33 25 1 -1 -6 -1 -4)
1969/12/31/18:00:08.414000,(7 12 3 6 2 -2 0 1)
1969/12/31/18:00:08.416000,(-3 -17 -20 -7 -3 -4 -2 1)
1969/12/31/18:00:08.416000,(-4 -7 -3 -3 0 -3 -1 1)
1969/12/31/18:00:08.421000,(-10 -25 -15 -5 -3 -4 4 2)
1969/12/31/18:00:08.421000,(4 8 10 7 1 -3 -2 2)
1969/12/31/18:00:08.436000,(-6 -5 -8 -10 -2 -2 5 3)
1969/12/31/18:00:08.436000,(2 3 5 -2 3 1 -6 -5)
1969/12/31/18:00:08.437000,(1 6 0 3 0 -2 1 4)
1969/12/31/18:00:08.437000,(11 -6 -5 3 1 -1 4 1)
1969/12/31/18:00:08.459000,(6 5 -2 -2 0 -3 -3 -1)
1969/12/31/18:00:08.459000,(9 -3 -3 -4 -5 -3 11 21)
1969/12/31/18:00:08.459000,(-57 -12 -2 5 -1 -2 -3 -20)
1969/12/31/18:00:08.460000,(22 11 3 2 1 -4 0 9)
1969/12/31/18:00:08.473000,(1 -5 -4 -5 1 0 3 11)
1969/12/31/18:00:08.473000,(-14 -6 -1 -5 -3 -2 -11 -20)
1969/12/31/18:00:08.481000,(51 9 -2 -5 -3 3 7 1)
1969/12/31/18:00:08.481000,(-30 -6 2 5 -1 1 3 7)
1969/12/31/18:00:08.496000,(-64 -35 -12 -3 -4 -11 -14 -33)
1969/12/31/18:00:08.496000,(20 16 1 2 5 16 14 -9)
1969/12/31/18:00:08.497000,(2 -11 -4 -6 -4 3 19 33)
1969/12/31/18:00:08.497000,(-53 -14 -1 -1 -4 -26 -25 -62)
1969/12/31/18:00:08.519000,(48 26 6 3 -1 0 -2 17)
1969/12/31/18:00:08.519000,(7 -2 -5 -5 -6 -16 1 -3)
1969/12/31/18:00:08.527000,(29 9 4 2 2 3 -8 28)
1969/12/31/18:00:08.527000,(11 2 3 4 7 21 7 -8)
1969/12/31/18:00:08.542000,(-32 -13 1 -2 1 5 8 8)
1969/12/31/18:00:08.542000,(15 12 11 5 7 17 5 32)
1969/12/31/18:00:08.549000,(3 -8 -7 -7 -3 -6 13 15)
1969/12/31/18:00:08.549000,(4 17 15 7 10 39 -16 -14)
1969/12/31/18:00:08.556000,(14 11 0 0 -7 -19 -9 -43)
1969/12/31/18:00:08.556000,(-24 -20 -4 -6 -6 -17 -13 11)
1969/12/31/18:00:08.557000,(-20 12 7 7 0 -15 1 -15)
1969/12/31/18:00:08.557000,(0 -20 -11 -7 2 39 16 13)
1969/12/31/18:00:08.579000,(34 13 11 7 3 -17 7 28)
1969/12/31/18:00:08.579000,(35 23 5 5 5 11 13 24)
1969/12/31/18:00:08.580000,(-75 -35 -12 -7 -3 -27 -35 -46)
1969/12/31/18:00:08.580000,(10 5 2 4 3 20 9 -7)
1969/12/31/18:00:08.593000,(1 -13 -13 -10 -3 47 41 58)
1969/12/31/18:00:08.593000,(-34 -2 9 7 -12 -70 -15 -42)
1969/12/31/18:00:08.601000,(11 -1 -9 -4 -3 44 4 -29)
1969/12/31/18:00:08.601000,(1 -11 -7 -5 -15 -75 -17 -3)
1969/12/31/18:00:08.624000,(-11 -6 -9 -6 9 85 -29 -8)
1969/12/31/18:00:08.625000,(-14 -10 -1 -2 3 7 26 18)
1969/12/31/18:00:08.625000,(36 22 6 7 14 52 5 41)
1969/12/31/18:00:08.625000,(-14 -13 -6 -5 -11 -45 -12 -31)
1969/12/31/18:00:08.639000,(22 20 15 8 5 2 22 29)
1969/12/31/18:00:08.639000,(13 -6 -5 -7 -9 -46 -39 -56)
1969/12/31/18:00:08.640000,(30 34 30 23 17 43 -14 -11)
1969/12/31/18:00:08.640000,(43 28 -3 -8 -7 -31 -19 40)
1969/12/31/18:00:08.653000,(-38 -44 -14 -7 0 18 8 -11)
1969/12/31/18:00:08.653000,(-6 9 1 -3 0 25 19 37)
1969/12/31/18:00:08.661000,(-28 -29 -15 -13 -11 -49 -17 2)
1969/12/31/18:00:08.661000,(-6 3 3 1 -5 -52 -21 4)
1969/12/31/18:00:08.677000,(-12 11 5 6 -1 7 -4 -69)
1969/12/31/18:00:08.677000,(-24 -27 -14 -6 8 53 10 -2)
1969/12/31/18:00:08.684000,(-8 -10 -7 -10 -17 -72 -17 -15)
1969/12/31/18:00:08.684000,(-4 6 13 13 15 60 12 20)
1969/12/31/18:00:08.699000,(25 11 -11 -11 -9 -44 4 13)
1969/12/31/18:00:08.699000,(15 8 6 6 6 2 22 70)
1969/12/31/18:00:08.700000,(24 2 -6 -6 5 77 13 -33)
1969/12/31/18:00:08.700000,(-56 -44 -16 -12 -12 6 13 -50)
1969/12/31/18:00:08.713000,(-1 8 2 -1 -11 -56 -54 -40)
1969/12/31/18:00:08.713000,(9 5 -7 -8 2 57 -12 3)
1969/12/31/18:00:08.721000,(-39 -14 0 -2 -4 -32 1 -12)
1969/12/31/18:00:08.721000,(56 21 8 7 2 -25 0 39)
1969/12/31/18:00:08.736000,(-9 -7 1 3 8 36 -3 -14)
1969/12/31/18:00:08.736000,(-34 -14 -12 -13 -8 25 -26 -69)
1969/12/31/18:00:08.737000,(43 19 3 -2 -14 -65 14 58)
1969/12/31/18:00:08.737000,(-39 -12 -4 -5 -6 11 5 -49)
1969/12/31/18:00:08.759000,(28 13 7 7 -2 -71 -19 30)
1969/12/31/18:00:08.759000,(30 12 7 4 4 9 -1 17)
1969/12/31/18:00:08.760000,(-27 -16 -11 -9 -2 14 15 -8)
1969/12/31/18:00:08.760000,(-17 -16 -2 1 8 18 3 -4)
1969/12/31/18:00:08.782000,(-31 -2 -4 -3 3 10 35 25)
1969/12/31/18:00:08.782000,(1 10 8 9 0 -15 -28 -10)
1969/12/31/18:00:08.783000,(26 -2 -2 -4 -6 -4 -4 20)
1969/12/31/18:00:08.783000,(4 7 0 -1 -2 -12 3 9)
1969/12/31/18:00:08.796000,(-6 1 -6 -8 -5 1 -12 -42)
1969/12/31/18:00:08.796000,(-24 -20 -4 2 2 -20 -5 -12)
1969/12/31/18:00:08.797000,(-14 -11 -4 -3 -4 -17 11 11)
1969/12/31/18:00:08.797000,(14 14 1 0 7 61 -19 7)
1969/12/31/18:00:08.819000,(9 -12 0 -3 -4 -10 38 16)
1969/12/31/18:00:08.819000,(-16 -2 -4 -2 3 17 1 -19)
1969/12/31/18:00:08.826000,(8 3 -1 0 0 -3 0 11)
1969/12/31/18:00:08.826000,(17 8 4 3 1 2 -4 -3)
1969/12/31/18:00:08.842000,(17 4 -4 -6 -3 5 15 21)
1969/12/31/18:00:08.842000,(-1 6 8 5 3 -12 -19 4)
1969/12/31/18:00:08.843000,(-13 5 8 9 11 19 14 18)
1969/12/31/18:00:08.843000,(14 10 -4 -4 1 -2 9 7)
1969/12/31/18:00:08.856000,(25 31 11 11 5 -8 6 46)
1969/12/31/18:00:08.856000,(-26 -43 -14 -6 -5 -15 0 -13)
1969/12/31/18:00:08.857000,(17 14 5 1 1 5 17 13)
1969/12/31/18:00:08.857000,(-26 2 -2 -2 -2 9 1 13)
1969/12/31/18:00:08.879000,(-14 -5 -1 -1 3 22 -1 -28)
1969/12/31/18:00:08.879000,(32 8 -3 -5 -11 -53 15 -9)
1969/12/31/18:00:08.880000,(-41 -14 -6 -1 5 -3 -39 -31)
1969/12/31/18:00:08.880000,(-21 -25 -11 -8 -9 -19 -9 -58)
1969/12/31/18:00:08.902000,(28 2 1 -1 -1 1 -6 25)
1969/12/31/18:00:08.902000,(3 3 2 1 2 40 25 15)
1969/12/31/18:00:08.903000,(-19 -3 -4 -1 -2 -52 -67 -27)
1969/12/31/18:00:08.903000,(-8 -1 1 0 2 -11 13 11)
1969/12/31/18:00:08.916000,(37 17 8 10 11 28 26 81)
1969/12/31/18:00:08.916000,(4 22 4 4 2 17 -4 -8)
1969/12/31/18:00:08.917000,(11 -10 -5 -5 -3 -17 -14 -36)
1969/12/31/18:00:08.917000,(2 -8 -1 -2 -10 39 15 0)
1969/12/31/18:00:08.939000,(-12 -12 -4 -3 25 11 -22 -24)
1969/12/31/18:00:08.939000,(33 25 7 1 -23 -28 3 24)
1969/12/31/18:00:08.939000,(11 15 6 -3 -33 4 33 0)
1969/12/31/18:00:08.940000,(18 3 9 7 21 56 -26 3)
1969/12/31/18:00:08.962000,(-69 -48 -17 -16 -21 -19 -37 -109)
1969/12/31/18:00:08.962000,(17 14 12 12 38 34 16 13)
1969/12/31/18:00:08.978000,(12 -2 -8 0 10 5 0 -13)
1969/12/31/18:00:08.978000,(19 19 0 -8 -26 -32 -6 14)
1969/12/31/18:00:08.979000,(9 -11 0 9 28 27 12 12)
1969/12/31/18:00:08.979000,(-32 -12 -6 -2 4 -18 4 -6)
1969/12/31/18:00:08.980000,(-5 -11 -8 -9 -19 24 7 21)
1969/12/31/18:00:08.980000,(-16 -2 0 15 45 -31 8 -5)
1969/12/31/18:00:08.999000,(-27 8 -7 -28 -101 -71 -35 -33)
1969/12/31/18:00:08.999000,(-10 -17 -11 -20 -28 -32 -4 -3)
1969/12/31/18:00:08.999000,(21 21 6 2 19 54 22 26)
1969/12/31/18:00:09.000000,(-4 -17 1 5 5 -15 18 23)
1969/12/31/18:00:09.022000,(2 -3 -4 2 20 0 -15 -14)
1969/12/31/18:00:09.022000,(17 31 35 40 65 53 18 38)
1969/12/31/18:00:09.023000,(2 11 1 -2 4 -18 23 -61)
1969/12/31/18:00:09.023000,(-11 3 -3 -13 -36 -17 -56 -28)
1969/12/31/18:00:09.036000,(-27 -19 0 13 51 1 -21 -39)
1969/12/31/18:00:09.036000,(-26 -13 -10 -19 -100 -79 7 -23)
1969/12/31/18:00:09.037000,(11 3 6 25 95 60 -3 -2)
1969/12/31/18:00:09.037000,(30 27 7 -7 -90 -67 -2 50)
1969/12/31/18:00:09.067000,(-11 -8 -16 -51 -88 -61 -3 7)
1969/12/31/18:00:09.067000,(-7 -12 -8 -16 -8 -5 -29 -35)
1969/12/31/18:00:09.068000,(5 10 21 24 41 20 -3 13)
1969/12/31/18:00:09.068000,(11 -2 -12 -2 35 28 20 1)
1969/12/31/18:00:09.082000,(-1 -5 1 26 62 37 -3 2)
1969/12/31/18:00:09.082000,(16 7 -9 1 22 19 1 -5)
1969/12/31/18:00:09.083000,(-50 -39 -3 5 -15 -15 -11 -24)
1969/12/31/18:00:09.083000,(7 3 -10 -9 -20 -18 10 10)
1969/12/31/18:00:09.097000,(3 17 -1 -1 6 23 10 10)
1969/12/31/18:00:09.097000,(5 -35 -37 -30 -38 -20 19 57)
1969/12/31/18:00:09.104000,(9 -5 2 -13 -6 -5 -8 22)
1969/12/31/18:00:09.104000,(-33 9 57 40 24 12 17 13)
1969/12/31/18:00:09.119000,(1 -9 -5 -4 -7 -9 -24 -38)
1969/12/31/18:00:09.119000,(8 9 -1 0 6 -13 -12 4)
1969/12/31/18:00:09.120000,(13 3 -23 -14 -22 -3 6 9)
1969/12/31/18:00:09.120000,(17 -12 -15 18 81 26 8 14)
1969/12/31/18:00:09.142000,(35 32 -40 -51 -97 -49 19 50)
1969/12/31/18:00:09.142000,(-22 -19 44 10 9 15 21 1)
1969/12/31/18:00:09.143000,(-17 12 -2 -5 26 4 -40 -73)
1969/12/31/18:00:09.143000,(21 -1 -5 -6 -16 -20 1 2)
1969/12/31/18:00:09.156000,(-7 -10 -13 -4 -19 -22 -42 -33)
1969/12/31/18:00:09.156000,(31 9 -34 -9 5 3 -5 -3)
1969/12/31/18:00:09.157000,(-12 10 51 16 -10 2 18 30)
1969/12/31/18:00:09.157000,(-27 16 16 3 36 29 0 -35)
1969/12/31/18:00:09.179000,(32 11 -2 21 44 31 16 34)
1969/12/31/18:00:09.179000,(6 33 39 14 -14 -9 9 21)
1969/12/31/18:00:09.180000,(-31 -37 -66 -26 -9 -2 -19 -15)
1969/12/31/18:00:09.180000,(11 -24 1 -21 -84 -74 -5 19)
1969/12/31/18:00:09.202000,(-15 -19 3 3 18 -11 5 18)
1969/12/31/18:00:09.202000,(31 -3 -29 -23 2 17 -34 -19)
1969/12/31/18:00:09.203000,(-8 14 21 21 37 32 44 10)
1969/12/31/18:00:09.203000,(-7 -8 -38 -24 -43 -37 -28 -33)
1969/12/31/18:00:09.216000,(-19 -16 -1 1 12 8 -37 -29)
1969/12/31/18:00:09.216000,(-34 12 19 14 14 25 22 16)
1969/12/31/18:00:09.217000,(19 -58 -82 -55 -41 -19 -5 17)
1969/12/31/18:00:09.217000,(-4 62 99 39 -36 -17 5 20)
1969/12/31/18:00:09.239000,(-40 -10 -1 24 56 28 22 1)
1969/12/31/18:00:09.239000,(42 57 29 23 7 -8 -13 -5)
1969/12/31/18:00:09.246000,(68 42 53 10 -42 5 15 86)
1969/12/31/18:00:09.246000,(-68 -65 -73 -31 25 21 -20 -88)
1969/12/31/18:00:09.262000,(-18 -70 -3 4 30 8 16 9)
1969/12/31/18:00:09.262000,(-4 46 -2 -9 -61 -55 -29 -45)
1969/12/31/18:00:09.263000,(35 61 80 36 -7 -9 1 -2)
1969/12/31/18:00:09.263000,(-68 11 29 24 88 84 25 -48)
1969/12/31/18:00:09.276000,(34 -55 -34 -8 -54 -40 3 47)
1969/12/31/18:00:09.276000,(-26 -38 -17 -7 2 9 -20 -60)
1969/12/31/18:00:09.277000,(-73 -95 -96 -41 -9 -36 -24 -77)
1969/12/31/18:00:09.277000,(-1 -23 -11 -9 14 10 -27 -36)
1969/12/31/18:00:09.299000,(23 58 1 -2 51 64 31 35)
1969/12/31/18:00:09.299000,(-53 -109 -26 -32 -87 -74 7 -4)
1969/12/31/18:00:09.300000,(-31 85 77 18 -35 -28 -12 11)
1969/12/31/18:00:09.300000,(31 -9 -77 -10 64 48 -6 31)
1969/12/31/18:00:09.322000,(-76 -45 10 -8 -28 -40 -4 -61)
1969/12/31/18:00:09.322000,(103 74 23 21 69 33 -18 6)
1969/12/31/18:00:09.323000,(-28 -33 -18 -2 -8 -3 8 40)
1969/12/31/18:00:09.323000,(-13 -13 1 -21 -39 -19 4 16)
1969/12/31/18:00:09.336000,(1 23 12 7 -8 -13 -6 -3)
1969/12/31/18:00:09.336000,(-25 -35 -65 -15 24 35 9 20)
1969/12/31/18:00:09.337000,(10 -54 -23 2 55 41 -6 -35)
1969/12/31/18:00:09.337000,(9 11 -20 0 -29 -42 -20 -6)
1969/12/31/18:00:09.359000,(0 -8 -16 -38 -53 -8 63 16)
1969/12/31/18:00:09.359000,(-53 -14 30 13 23 3 -10 12)
1969/12/31/18:00:09.366000,(26 60 22 9 -31 -28 -20 -9)
1969/12/31/18:00:09.366000,(66 26 6 20 43 75 44 50)
1969/12/31/18:00:09.382000,(13 -7 17 -7 -71 -55 -21 2)
1969/12/31/18:00:09.382000,(-43 -40 -46 -35 -21 -33 -11 -63)
1969/12/31/18:00:09.383000,(27 -15 -51 -16 54 47 -37 14)
1969/12/31/18:00:09.383000,(-29 70 95 37 3 -11 17 17)
1969/12/31/18:00:09.396000,(45 39 27 29 22 18 -2 11)
1969/12/31/18:00:09.396000,(47 -29 -37 -6 16 19 -1 32)
1969/12/31/18:00:09.404000,(-51 -12 10 6 -23 -29 23 37)
1969/12/31/18:00:09.404000,(13 27 2 -4 14 23 -28 -48)
1969/12/31/18:00:09.419000,(27 -1 -33 7 51 39 22 71)
1969/12/31/18:00:09.419000,(-81 -69 12 -7 -37 -43 -35 -37)
1969/12/31/18:00:09.419000,(33 -14 -37 -6 19 5 37 -7)
1969/12/31/18:00:09.420000,(9 1 -14 -24 -70 -43 7 41)
1969/12/31/18:00:09.442000,(-30 85 92 26 10 22 -38 -61)
1969/12/31/18:00:09.442000,(18 -45 -35 -4 52 30 13 5)
1969/12/31/18:00:09.443000,(38 27 -3 5 -28 -22 10 2)
1969/12/31/18:00:09.443000,(-27 -128 -100 -34 43 42 60 48)
1969/12/31/18:00:09.456000,(16 111 96 30 -106 -103 -47 -27)
1969/12/31/18:00:09.456000,(-54 -14 -8 -19 10 12 -11 -30)
1969/12/31/18:00:09.464000,(30 -57 -46 -8 16 5 26 25)
1969/12/31/18:00:09.464000,(10 -37 -3 -1 -1 -28 -12 34)
1969/12/31/18:00:09.479000,(-17 -53 -62 -11 44 49 -11 -16)
1969/12/31/18:00:09.479000,(35 65 40 21 -1 -5 16 45)
1969/12/31/18:00:09.480000,(-27 -23 -18 -15 -2 -9 -14 -26)
1969/12/31/18:00:09.480000,(-1 -3 -7 9 -1 2 40 -1)
1969/12/31/18:00:09.502000,(-41 -25 -24 -31 -58 19 -32 -45)
1969/12/31/18:00:09.502000,(12 127 126 71 0 -36 18 -7)
1969/12/31/18:00:09.509000,(7 -43 -50 -7 27 11 -52 -11)
1969/12/31/18:00:09.509000,(36 -41 -20 16 70 59 7 10)
1969/12/31/18:00:09.526000,(9 -32 -43 -29 -46 -64 23 13)
1969/12/31/18:00:09.526000,(-41 -36 -15 -46 -50 -7 4 -3)
1969/12/31/18:00:09.527000,(0 -52 -10 -12 -7 2 17 -9)
1969/12/31/18:00:09.527000,(20 24 2 -10 5 1 -6 22)
1969/12/31/18:00:09.540000,(12 42 46 58 109 62 30 46)
1969/12/31/18:00:09.540000,(22 27 -2 19 6 10 -11 -7)
1969/12/31/18:00:09.541000,(-18 -1 -5 -29 -81 -67 -5 26)
1969/12/31/18:00:09.541000,(15 -15 25 6 2 5 -12 -9)
1969/12/31/18:00:09.562000,(-19 -41 -55 -11 2 1 13 5)
1969/12/31/18:00:09.562000,(4 4 29 13 20 20 15 -7)
1969/12/31/18:00:09.563000,(35 24 -22 -3 9 8 -21 -5)
1969/12/31/18:00:09.563000,(-21 -38 -10 -16 -75 -46 -11 -29)
1969/12/31/18:00:09.576000,(4 61 61 5 25 18 1 -6)
1969/12/31/18:00:09.576000,(26 10 -13 13 -13 5 -1 28)
1969/12/31/18:00:09.584000,(-27 -31 6 2 18 31 2 -25)
1969/12/31/18:00:09.584000,(20 -35 -69 -25 -47 -62 -42 12)
1969/12/31/18:00:09.599000,(43 63 11 25 62 35 36 0)
1969/12/31/18:00:09.599000,(-27 79 78 22 -50 -32 -35 -10)
1969/12/31/18:00:09.600000,(-5 30 -7 3 28 24 15 -14)
1969/12/31/18:00:09.600000,(-32 -39 -9 -15 -63 -45 -21 -46)
1969/12/31/18:00:09.622000,(-40 27 38 -29 -65 -41 -69 -8)
1969/12/31/18:00:09.622000,(27 -5 -41 -3 41 31 26 19)
1969/12/31/18:00:09.623000,(-6 -21 16 9 -32 -19 -17 -14)
1969/12/31/18:00:09.623000,(34 31 -11 4 46 18 30 23)
1969/12/31/18:00:09.644000,(16 -84 6 21 47 28 28 51)
1969/12/31/18:00:09.644000,(-14 19 -23 -26 -66 -50 -30 -18)
1969/12/31/18:00:09.652000,(27 127 127 62 -1 3 -5 10)
1969/12/31/18:00:09.652000,(-30 -59 -41 -2 49 21 8 6)
1969/12/31/18:00:09.661000,(2 -61 -44 -21 -65 -25 0 -30)
1969/12/31/18:00:09.661000,(-16 -128 -128 -54 72 60 4 31)
1969/12/31/18:00:09.666000,(-30 78 62 4 -74 -66 25 30)
1969/12/31/18:00:09.666000,(-3 121 86 11 -9 13 -6 -25)
1969/12/31/18:00:09.682000,(-32 -80 -70 -31 -32 -23 -31 -48)
1969/12/31/18:00:09.682000,(29 -21 -21 32 86 57 17 1)
1969/12/31/18:00:09.683000,(-3 -36 -13 -9 -45 -60 18 -25)
1969/12/31/18:00:09.683000,(-48 28 32 8 23 33 -17 -29)
1969/12/31/18:00:09.705000,(-10 11 32 10 6 -63 -55 -37)
1969/12/31/18:00:09.705000,(13 8 -27 -5 44 35 31 -2)
1969/12/31/18:00:09.706000,(25 28 12 0 -65 -8 11 -2)
1969/12/31/18:00:09.706000,(20 24 24 -2 -11 7 18 50)
1969/12/31/18:00:09.719000,(-1 -4 20 19 23 23 32 -4)
1969/12/31/18:00:09.719000,(0 50 65 14 -28 -3 -2 1)
1969/12/31/18:00:09.720000,(-34 -77 -55 4 107 30 -12 -27)
1969/12/31/18:00:09.720000,(0 -15 -10 -2 -29 -21 -16 -13)
1969/12/31/18:00:09.742000,(19 7 -61 -26 22 12 -22 -8)
1969/12/31/18:00:09.742000,(2 -9 34 5 -18 -37 14 16)
1969/12/31/18:00:09.743000,(-41 32 40 15 13 29 7 17)
1969/12/31/18:00:09.743000,(20 -30 -32 -7 14 4 13 7)
1969/12/31/18:00:09.764000,(6 31 17 -8 -46 -13 34 13)
1969/12/31/18:00:09.764000,(15 -55 -50 -22 -48 -28 -35 15)
1969/12/31/18:00:09.766000,(24 -32 -47 -17 29 30 22 19)
1969/12/31/18:00:09.766000,(16 69 95 33 25 2 -55 -2)
1969/12/31/18:00:09.778000,(2 111 92 49 -4 -2 -27 -41)
1969/12/31/18:00:09.778000,(-23 -58 -35 0 35 9 38 -16)
1969/12/31/18:00:09.793000,(6 -50 -25 -30 -14 2 -40 -3)
1969/12/31/18:00:09.793000,(43 -9 -53 -16 -16 -19 22 39)
1969/12/31/18:00:09.802000,(7 -7 24 5 3 25 47 38)
1969/12/31/18:00:09.802000,(-47 -60 -53 -29 20 10 -23 -32)
1969/12/31/18:00:09.804000,(10 83 66 44 37 9 2 10)
1969/12/31/18:00:09.804000,(16 -28 -15 7 -4 20 42 1)
1969/12/31/18:00:09.824000,(4 -31 -59 -18 14 8 12 64)
1969/12/31/18:00:09.824000,(-26 -9 27 18 22 18 -21 -19)
1969/12/31/18:00:09.826000,(-14 -77 -66 -45 -38 -21 -2 -43)
1969/12/31/18:00:09.826000,(-15 106 112 27 -27 -36 2 -2)
1969/12/31/18:00:09.838000,(-12 -93 -76 -12 21 -5 -29 -14)
1969/12/31/18:00:09.838000,(36 18 -17 -25 -27 14 20 18)
1969/12/31/18:00:09.847000,(7 46 74 64 88 29 -5 4)
1969/12/31/18:00:09.847000,(-19 19 27 1 -81 -29 -12 -37)
1969/12/31/18:00:09.862000,(-43 -85 -69 -34 20 8 4 -14)
1969/12/31/18:00:09.862000,(-9 -31 -2 5 -10 6 0 -8)
1969/12/31/18:00:09.864000,(20 46 0 0 4 17 2 21)
1969/12/31/18:00:09.864000,(12 16 -19 -6 -25 -50 -3 14)
1969/12/31/18:00:09.884000,(10 21 48 27 63 75 18 13)
1969/12/31/18:00:09.884000,(-6 -28 4 -18 -62 -97 -25 -12)
1969/12/31/18:00:09.886000,(-20 -54 -66 -32 -21 14 25 18)
1969/12/31/18:00:09.886000,(14 -88 -75 -17 48 43 41 79)
1969/12/31/18:00:09.898000,(7 97 77 15 -46 -27 -20 -11)
1969/12/31/18:00:09.898000,(-22 5 25 25 87 72 26 -31)
1969/12/31/18:00:09.907000,(7 24 -4 -16 -84 -65 -25 -7)
1969/12/31/18:00:09.907000,(16 -11 -17 2 79 59 -4 -9)
1969/12/31/18:00:09.922000,(29 -73 -77 -27 -8 -19 -11 26)
1969/12/31/18:00:09.922000,(27 41 45 17 8 22 48 51)
1969/12/31/18:00:09.935000,(-15 18 3 4 1 -17 -28 -49)
1969/12/31/18:00:09.935000,(-81 -81 -26 -22 -15 -18 -38 -67)
1969/12/31/18:00:09.944000,(12 11 -49 -5 5 19 21 10)
1969/12/31/18:00:09.944000,(23 101 96 28 -31 -28 -22 -7)
1969/12/31/18:00:09.946000,(5 -59 -53 -16 12 18 17 17)
1969/12/31/18:00:09.946000,(-3 26 11 -13 -60 -26 -14 -25)
1969/12/31/18:00:09.959000,(-13 -11 8 8 30 -14 -12 -63)
1969/12/31/18:00:09.959000,(-24 -49 -29 -42 -85 -22 -25 -14)
1969/12/31/18:00:09.966000,(16 5 -7 -2 23 6 -5 16)
1969/12/31/18:00:09.966000,(0 -37 -40 -10 4 12 21 1)
1969/12/31/18:00:09.982000,(39 54 91 52 40 34 24 34)
1969/12/31/18:00:09.982000,(33 95 52 25 2 -24 -22 4)
1969/12/31/18:00:09.984000,(-51 -74 10 -1 -3 8 -4 -41)
1969/12/31/18:00:09.984000,(-35 -36 -17 -11 -7 -17 8 5)
1969/12/31/18:00:10.004000,(-13 -87 -71 -36 -51 -27 -16 -28)
1969/12/31/18:00:10.004000,(22 15 -33 9 68 22 17 20)
1969/12/31/18:00:10.006000,(14 50 47 12 -9 10 1 8)
1969/12/31/18:00:10.006000,(-1 -15 -1 -14 -35 -28 -15 0)
1969/12/31/18:00:10.018000,(-12 -25 -25 2 69 49 24 12)
1969/12/31/18:00:10.018000,(8 -1 -16 -7 -66 -24 -24 -9)
1969/12/31/18:00:10.027000,(34 19 5 -3 16 -21 6 28)
1969/12/31/18:00:10.027000,(21 -10 -10 -4 10 14 8 66)
1969/12/31/18:00:10.042000,(3 -19 -25 -30 -28 -15 -5 -23)
1969/12/31/18:00:10.042000,(-30 -101 -60 -33 -15 -12 -19 -25)
1969/12/31/18:00:10.044000,(11 4 -35 8 6 -11 9 23)
1969/12/31/18:00:10.044000,(51 118 73 39 -21 -8 -13 9)
1969/12/31/18:00:10.064000,(0 21 53 17 22 23 7 -1)
1969/12/31/18:00:10.064000,(-1 1 31 14 25 9 3 5)
1969/12/31/18:00:10.079000,(-21 -2 2 -9 -27 -9 -3 -7)
1969/12/31/18:00:10.079000,(5 32 -2 9 53 26 6 -13)
1969/12/31/18:00:10.080000,(-38 -47 -29 -16 -83 -41 -14 -33)
1969/12/31/18:00:10.080000,(17 10 -19 -11 9 -9 5 23)
1969/12/31/18:00:10.087000,(-10 -27 15 12 41 25 -2 -43)
1969/12/31/18:00:10.087000,(-13 1 -11 -36 -92 -59 -10 -43)
1969/12/31/18:00:10.102000,(-3 15 5 -8 91 17 -22 10)
1969/12/31/18:00:10.102000,(1 -22 -7 31 45 14 3 14)
1969/12/31/18:00:10.104000,(3 -3 -15 12 12 33 8 21)
1969/12/31/18:00:10.104000,(1 13 -2 8 28 14 -16 -6)
1969/12/31/18:00:10.124000,(-7 -27 -6 -29 -74 -39 31 26)
1969/12/31/18:00:10.124000,(-6 62 13 9 25 29 -14 -21)
1969/12/31/18:00:10.126000,(24 19 35 18 -13 -30 -7 3)
1969/12/31/18:00:10.126000,(-11 -43 -17 -6 0 11 34 -12)
1969/12/31/18:00:10.138000,(-3 -27 -19 -15 -56 -61 -81 -26)
1969/12/31/18:00:10.138000,(33 32 -7 -13 -1 15 14 -1)
1969/12/31/18:00:10.147000,(-28 7 28 -2 -5 -2 -4 -9)
1969/12/31/18:00:10.147000,(21 -17 -26 6 40 28 1 12)
1969/12/31/18:00:10.162000,(12 15 -2 11 8 27 33 19)
1969/12/31/18:00:10.162000,(-5 -25 6 -7 -12 -9 -1 0)
1969/12/31/18:00:10.164000,(-2 -9 -15 -5 -57 -13 -9 5)
1969/12/31/18:00:10.164000,(6 -6 7 22 71 5 -11 5)
1969/12/31/18:00:10.184000,(-18 22 8 7 21 31 38 13)
1969/12/31/18:00:10.184000,(-8 -42 -47 -26 -30 -15 0 -6)
1969/12/31/18:00:10.186000,(-4 23 26 -11 -19 -6 14 18)
1969/12/31/18:00:10.186000,(-30 -40 -16 -4 9 10 -13 -33)
1969/12/31/18:00:10.198000,(44 109 82 51 27 18 20 30)
1969/12/31/18:00:10.198000,(12 27 22 9 -13 -16 10 -2)
1969/12/31/18:00:10.213000,(15 -2 -10 -9 39 41 30 36)
1969/12/31/18:00:10.213000,(-17 -32 -19 -33 -92 -67 -51 -20)
1969/12/31/18:00:10.222000,(-10 -24 -20 -1 58 1 -8 -8)
1969/12/31/18:00:10.222000,(-19 -25 -15 -9 -10 -6 -13 -12)
1969/12/31/18:00:10.224000,(6 7 -6 7 46 32 -5 3)
1969/12/31/18:00:10.224000,(16 0 13 3 -36 -1 33 23)
1969/12/31/18:00:10.245000,(20 19 -8 -20 -6 17 -4 5)
1969/12/31/18:00:10.245000,(-26 1 8 4 12 -6 9 -3)
1969/12/31/18:00:10.246000,(-10 -24 -12 11 3 4 1 -5)
1969/12/31/18:00:10.246000,(-9 8 1 -4 8 -7 -5 0)
1969/12/31/18:00:10.258000,(-1 -5 1 9 -5 -1 2 5)
1969/12/31/18:00:10.259000,(9 5 -1 0 -1 18 12 17)
1969/12/31/18:00:10.267000,(15 2 -5 -13 -17 -15 -9 3)
1969/12/31/18:00:10.267000,(-62 -35 -7 -6 -3 -3 -27 -59)
1969/12/31/18:00:10.282000,(7 14 15 8 1 -8 -3 9)
1969/12/31/18:00:10.282000,(-14 -62 -41 -12 -11 3 -3 -7)
1969/12/31/18:00:10.284000,(-13 22 -11 -15 19 9 2 -13)
1969/12/31/18:00:10.284000,(15 42 29 23 -5 -17 -6 -2)
1969/12/31/18:00:10.305000,(-19 -12 -24 -41 -88 -60 -39 -20)
1969/12/31/18:00:10.305000,(16 6 7 4 21 6 11 10)
1969/12/31/18:00:10.306000,(-25 -43 -30 -14 -18 -19 -31 -38)
1969/12/31/18:00:10.306000,(-32 -23 -7 9 60 41 30 -16)
1969/12/31/18:00:10.318000,(11 22 15 6 -35 -21 -20 -9)
1969/12/31/18:00:10.318000,(3 1 -7 -14 -42 -35 2 -3)
1969/12/31/18:00:10.327000,(9 2 -1 -6 54 0 4 11)
1969/12/31/18:00:10.327000,(-1 21 3 -33 -51 12 -14 0)
1969/12/31/18:00:10.342000,(-22 -17 5 59 79 62 45 21)
1969/12/31/18:00:10.342000,(-45 -15 -1 5 -1 -16 -20 -30)
1969/12/31/18:00:10.367000,(9 -8 -2 2 -28 -26 -19 -7)
1969/12/31/18:00:10.367000,(31 19 5 -3 8 10 11 41)
1969/12/31/18:00:10.367000,(47 8 -14 -17 -9 -7 9 11)
1969/12/31/18:00:10.367000,(16 16 4 -2 3 9 0 17)
1969/12/31/18:00:10.371000,(-18 -9 -4 -4 -11 -5 -5 -16)
1969/12/31/18:00:10.371000,(-11 -10 14 8 4 -9 3 3)
1969/12/31/18:00:10.378000,(-2 23 9 -4 -1 4 -10 -13)
1969/12/31/18:00:10.378000,(7 -13 4 11 14 -1 -4 5)
1969/12/31/18:00:10.387000,(1 -9 -7 -11 -35 -14 -4 -10)
1969/12/31/18:00:10.387000,(21 -2 -25 -3 16 13 8 10)
1969/12/31/18:00:10.402000,(1 23 44 36 54 28 6 -13)
1969/12/31/18:00:10.402000,(-6 7 1 -20 -72 -37 -13 -3)
1969/12/31/18:00:10.404000,(-1 -15 -5 -5 -33 -28 -19 21)
1969/12/31/18:00:10.404000,(56 22 3 3 -6 -3 13 56)
1969/12/31/18:00:10.424000,(-31 -20 -13 -8 15 2 -18 -35)
1969/12/31/18:00:10.424000,(41 29 7 9 23 13 3 7)
1969/12/31/18:00:10.426000,(-44 -21 -5 -4 0 7 -4 -31)
1969/12/31/18:00:10.426000,(-27 -9 2 8 15 1 -5 -9)
1969/12/31/18:00:10.438000,(14 1 -14 -17 -32 -16 -1 6)
1969/12/31/18:00:10.438000,(-18 -15 4 4 15 12 -2 -9)
1969/12/31/18:00:10.447000,(34 4 1 5 -5 -5 2 18)
1969/12/31/18:00:10.447000,(-20 -4 1 4 13 14 2 -12)
1969/12/31/18:00:10.461000,(11 -3 -9 -26 -43 -8 -10 13)
1969/12/31/18:00:10.461000,(18 11 2 9 60 26 38 17)
1969/12/31/18:00:10.476000,(-51 -5 11 27 13 -21 -46 -26)
1969/12/31/18:00:10.476000,(18 -17 -11 19 17 10 17 59)
1969/12/31/18:00:10.484000,(-36 -15 -9 -2 5 -15 -7 -32)
1969/12/31/18:00:10.484000,(13 15 5 -10 -17 -9 -7 12)
1969/12/31/18:00:10.492000,(11 6 5 -7 -8 13 19 4)
1969/12/31/18:00:10.492000,(51 7 -1 -2 11 3 11 24)
1969/12/31/18:00:10.498000,(-21 -7 -8 -6 -15 -12 -4 5)
1969/12/31/18:00:10.498000,(-20 -20 -4 1 -1 5 -3 3)
1969/12/31/18:00:10.507000,(-7 7 -8 -5 6 8 19 -6)
1969/12/31/18:00:10.507000,(-9 18 13 3 -12 -7 -23 -39)
1969/12/31/18:00:10.522000,(-11 -31 -20 -12 -6 0 4 -1)
1969/12/31/18:00:10.522000,(-53 -28 -8 -3 -5 -6 -20 -43)
1969/12/31/18:00:10.524000,(29 15 8 7 10 23 20 40)
1969/12/31/18:00:10.524000,(11 12 -7 -14 -22 -16 -16 -41)
1969/12/31/18:00:10.544000,(7 7 2 4 0 -5 -18 4)
1969/12/31/18:00:10.544000,(-38 -21 0 11 12 8 15 19)
1969/12/31/18:00:10.546000,(-25 -2 -3 -8 -10 -6 -17 -35)
1969/12/31/18:00:10.546000,(-25 -17 -10 -9 -1 1 13 -15)
1969/12/31/18:00:10.567000,(62 36 15 10 2 -31 20 60)
1969/12/31/18:00:10.567000,(-38 -9 -2 -4 -17 -9 -38 -58)
1969/12/31/18:00:10.569000,(24 -4 -8 -9 -4 -7 -4 -10)
1969/12/31/18:00:10.569000,(10 -5 3 3 7 7 4 16)
1969/12/31/18:00:10.581000,(22 2 -3 -6 -6 9 12 19)
1969/12/31/18:00:10.581000,(0 7 5 -3 -3 -11 -4 5)
1969/12/31/18:00:10.588000,(34 31 12 6 4 7 13 16)
1969/12/31/18:00:10.588000,(-14 -7 -3 -2 0 -4 -16 -15)
1969/12/31/18:00:10.604000,(-6 -14 -1 -1 1 6 4 2)
1969/12/31/18:00:10.604000,(33 17 6 5 4 8 5 13)
1969/12/31/18:00:10.606000,(-6 -2 -8 -9 -9 -3 -7 -13)
1969/12/31/18:00:10.606000,(-15 -13 -7 -4 -3 -5 -7 -15)
1969/12/31/18:00:10.627000,(-2 1 2 2 5 5 11 4)
1969/12/31/18:00:10.627000,(10 14 6 2 -4 -2 -4 -22)
1969/12/31/18:00:10.634000,(-11 -13 -18 -14 -8 -6 -5 -17)
1969/12/31/18:00:10.635000,(28 14 12 14 11 0 4 15)
1969/12/31/18:00:10.641000,(-28 -25 -5 -3 -3 3 -1 -12)
1969/12/31/18:00:10.641000,(26 29 3 4 2 2 5 5)
1969/12/31/18:00:10.648000,(20 4 0 -1 -3 2 5 14)
1969/12/31/18:00:10.648000,(-18 -9 -3 -3 0 -7 -16 -20)
1969/12/31/18:00:10.664000,(-56 -16 -8 -3 -3 1 -12 -48)
1969/12/31/18:00:10.664000,(8 -8 -1 4 4 7 8 21)
1969/12/31/18:00:10.666000,(-6 10 8 3 0 -1 3 0)
1969/12/31/18:00:10.666000,(9 2 -12 -14 -10 -8 -5 4)
1969/12/31/18:00:10.687000,(8 4 8 10 0 1 -3 -11)
1969/12/31/18:00:10.687000,(-9 -10 -6 -6 -1 0 0 2)
1969/12/31/18:00:10.688000,(0 -3 -1 2 -1 -2 0 3)
1969/12/31/18:00:10.688000,(-16 6 26 17 4 2 1 -3)
1969/12/31/18:00:10.701000,(5 -6 -15 -4 -2 3 3 6)
1969/12/31/18:00:10.701000,(3 -8 -12 -6 -3 -1 -2 0)
1969/12/31/18:00:10.708000,(14 0 -7 -2 2 3 1 5)
1969/12/31/18:00:10.708000,(-35 12 5 -1 1 2 1 -4)
1969/12/31/18:00:10.725000,(-2 -19 -9 -10 -1 -3 0 -3)
1969/12/31/18:00:10.725000,(3 19 32 16 5 4 2 1)
1969/12/31/18:00:10.726000,(-14 -20 -4 2 1 -1 -1 -6)
1969/12/31/18:00:10.726000,(8 -14 -37 -22 -12 -8 -1 1)
1969/12/31/18:00:10.747000,(6 29 6 4 1 0 0 2)
1969/12/31/18:00:10.747000,(-12 -37 -21 -1 0 6 0 -5)
1969/12/31/18:00:10.761000,(0 10 -8 -6 -6 -6 1 10)
1969/12/31/18:00:10.762000,(-5 48 88 49 19 5 -5 -6)
1969/12/31/18:00:10.769000,(8 -40 -61 -30 -7 4 17 6)
1969/12/31/18:00:10.770000,(-7 -20 -28 -22 -15 -12 -12 -4)
1969/12/31/18:00:10.771000,(-15 -9 11 19 10 5 2 -3)
1969/12/31/18:00:10.771000,(4 -10 -31 -18 -8 -6 2 -3)
1969/12/31/18:00:10.784000,(0 12 19 4 -3 -7 -29 -18)
1969/12/31/18:00:10.784000,(1 12 -2 10 2 1 8 8)
1969/12/31/18:00:10.786000,(-3 -30 -17 -18 -8 1 10 -5)
1969/12/31/18:00:10.786000,(-2 0 -4 -1 -2 -1 5 5)
1969/12/31/18:00:10.807000,(3 8 -3 2 2 -2 -5 9)
1969/12/31/18:00:10.807000,(0 -21 -4 -6 -1 4 14 5)
1969/12/31/18:00:10.809000,(-2 -14 -11 -11 -7 -5 -24 -3)
1969/12/31/18:00:10.809000,(7 15 -3 -2 0 -1 1 3)
1969/12/31/18:00:10.821000,(-1 -51 -5 -7 -3 0 6 1)
1969/12/31/18:00:10.821000,(10 112 91 48 15 3 -13 -6)
1969/12/31/18:00:10.828000,(3 -11 -17 -5 -2 -1 9 5)
1969/12/31/18:00:10.828000,(1 -5 1 1 -2 5 1 1)
1969/12/31/18:00:10.845000,(-3 -47 -37 -25 -9 0 15 7)
1969/12/31/18:00:10.845000,(2 37 55 21 6 -3 -8 -2)
1969/12/31/18:00:10.846000,(0 -13 -26 -10 -1 1 -10 -14)
1969/12/31/18:00:10.846000,(-2 -3 -19 8 5 -1 -19 -5)
1969/12/31/18:00:10.867000,(25 80 52 32 9 1 9 7)
1969/12/31/18:00:10.867000,(1 -24 -9 -13 -8 2 10 11)
1969/12/31/18:00:10.873000,(5 10 14 -3 -1 0 4 6)
1969/12/31/18:00:10.873000,(-26 -72 -36 -27 -13 -3 -5 -12)
1969/12/31/18:00:10.881000,(-7 -11 -26 -44 -16 -10 -14 -13)
1969/12/31/18:00:10.881000,(-2 18 0 25 12 4 1 0)
1969/12/31/18:00:10.888000,(14 62 43 32 9 5 6 6)
1969/12/31/18:00:10.888000,(8 -23 -23 -10 -4 0 0 0)
1969/12/31/18:00:10.904000,(-6 1 54 46 8 4 -1 2)
1969/12/31/18:00:10.904000,(-10 -39 -72 -64 -24 -15 -9 -6)
1969/12/31/18:00:10.918000,(4 -30 -15 -10 3 1 6 5)
1969/12/31/18:00:10.918000,(-2 5 -7 10 3 2 4 2)
1969/12/31/18:00:10.927000,(-3 39 23 -6 1 -2 -8 -9)
1969/12/31/18:00:10.927000,(19 7 15 9 1 -4 1 6)
1969/12/31/18:00:10.928000,(-5 13 18 32 9 2 7 8)
1969/12/31/18:00:10.929000,(-25 -56 -99 -111 -48 -25 -17 -18)
1969/12/31/18:00:10.941000,(4 22 40 67 13 0 -3 -2)
1969/12/31/18:00:10.941000,(4 2 40 62 24 11 12 12)
1969/12/31/18:00:10.950000,(5 31 32 -3 6 0 -7 -2)
1969/12/31/18:00:10.950000,(2 -21 -13 17 11 7 9 2)
1969/12/31/18:00:10.964000,(-20 -7 -25 -47 -16 -5 -2 -7)
1969/12/31/18:00:10.964000,(-21 -37 -54 -57 -25 -12 -9 -10)
1969/12/31/18:00:10.966000,(1 -39 4 12 2 0 -5 -6)
1969/12/31/18:00:10.966000,(-11 14 1 -11 0 4 1 -2)
1969/12/31/18:00:10.987000,(-8 -93 -45 -19 -6 -3 0 2)
1969/12/31/18:00:10.987000,(9 36 57 27 9 1 7 2)
1969/12/31/18:00:10.988000,(7 51 36 7 -4 -9 -5 -8)
1969/12/31/18:00:10.988000,(28 42 57 42 13 3 7 9)
1969/12/31/18:00:11.000000,(-6 -3 -2 10 3 -1 6 7)
1969/12/31/18:00:11.001000,(-13 -27 -31 -23 -9 -5 -3 0)
1969/12/31/18:00:11.010000,(-9 -14 -32 -32 -14 -10 -8 -8)
1969/12/31/18:00:11.010000,(8 29 39 16 5 -3 -2 -1)
1969/12/31/18:00:11.032000,(-1 26 16 18 10 6 3 -1)
1969/12/31/18:00:11.032000,(-9 -27 -34 -26 -8 -3 -6 -10)
1969/12/31/18:00:11.048000,(-10 -14 -11 -12 -5 1 -2 -3)
1969/12/31/18:00:11.048000,(0 -3 17 22 11 7 -1 -2)
1969/12/31/18:00:11.048000,(-4 -5 -2 -5 1 3 -4 -6)
1969/12/31/18:00:11.048000,(-4 6 -25 -18 -4 2 -6 -7)
1969/12/31/18:00:11.050000,(-14 -28 27 17 4 10 1 -6)
1969/12/31/18:00:11.050000,(-1 4 10 2 -2 5 -3 -2)
1969/12/31/18:00:11.060000,(3 -10 -27 -18 -15 -5 -3 3)
1969/12/31/18:00:11.060000,(32 76 67 47 13 0 0 4)
1969/12/31/18:00:11.070000,(-1 0 -15 1 -1 -6 5 11)
1969/12/31/18:00:11.070000,(-2 2 -6 -4 -2 -6 2 8)
1969/12/31/18:00:11.084000,(-1 5 5 3 6 1 1 2)
1969/12/31/18:00:11.084000,(-6 -38 -33 -18 -7 -8 1 4)
1969/12/31/18:00:11.086000,(-3 -2 -12 -11 -2 -5 3 3)
1969/12/31/18:00:11.086000,(0 8 13 7 6 -3 -4 -5)
1969/12/31/18:00:11.107000,(0 0 -8 -5 2 -3 -2 0)
1969/12/31/18:00:11.107000,(-6 -9 -5 -7 -2 -4 -3 -2)
1969/12/31/18:00:11.109000,(0 12 3 2 2 0 -3 -2)
1969/12/31/18:00:11.109000,(-5 -10 -13 -10 -6 -2 -1 -3)
1969/12/31/18:00:11.121000,(2 11 5 4 2 3 -2 -4)
1969/12/31/18:00:11.121000,(-1 -9 -13 -6 -3 1 -2 0)
1969/12/31/18:00:11.130000,(-5 -5 6 2 -1 2 -1 -2)
1969/12/31/18:00:11.130000,(0 -2 0 -2 -1 1 -1 0)
1969/12/31/18:00:11.144000,(2 14 5 -1 -2 -3 -7 -6)
1969/12/31/18:00:11.144000,(-3 -16 -8 -4 -1 3 3 -1)
1969/12/31/18:00:11.146000,(-7 -30 -17 -9 -5 -3 -5 -7)
1969/12/31/18:00:11.146000,(-2 16 10 3 2 2 1 -3)
1969/12/31/18:00:11.167000,(0 13 -6 -11 -3 0 -2 -5)
1969/12/31/18:00:11.167000,(-4 -10 -5 -2 -1 2 -2 -3)
1969/12/31/18:00:11.181000,(3 5 1 5 -2 1 -2 0)
1969/12/31/18:00:11.181000,(2 2 -9 -11 -7 -4 -3 -1)
1969/12/31/18:00:11.190000,(0 15 23 9 3 -1 -2 -2)
1969/12/31/18:00:11.190000,(0 -10 -13 -10 -4 -2 1 0)
1969/12/31/18:00:11.192000,(1 6 -2 -1 -2 -3 3 4)
1969/12/31/18:00:11.192000,(4 0 8 11 3 -1 3 5)
1969/12/31/18:00:11.204000,(2 -6 -12 -4 -3 -4 3 5)
1969/12/31/18:00:11.204000,(0 -6 -7 -2 -2 -5 3 3)
1969/12/31/18:00:11.206000,(-5 2 -1 -4 1 1 3 0)
1969/12/31/18:00:11.206000,(-6 -1 0 -4 1 3 -7 -8)
1969/12/31/18:00:11.227000,(-1 -2 4 5 0 3 0 -4)
1969/12/31/18:00:11.227000,(-2 -8 -8 -7 -3 1 -1 -2)
1969/12/31/18:00:11.228000,(0 0 -10 -8 -4 -2 0 0)
1969/12/31/18:00:11.229000,(0 4 10 10 3 0 1 0)
1969/12/31/18:00:11.242000,(-4 2 0 -4 1 -1 -2 -5)
1969/12/31/18:00:11.242000,(-5 -10 -3 -1 -1 2 -4 -5)
1969/12/31/18:00:11.250000,(-4 -14 2 1 -1 -1 -3 -3)
1969/12/31/18:00:11.250000,(3 24 13 2 1 1 -3 -5)
1969/12/31/18:00:11.265000,(-2 -5 -4 0 -1 1 -5 -4)
1969/12/31/18:00:11.265000,(-1 9 4 0 -4 1 -2 -3)
1969/12/31/18:00:11.267000,(2 3 -1 1 -1 0 -3 -1)
1969/12/31/18:00:11.267000,(-2 -12 -8 -4 -4 -1 0 1)
1969/12/31/18:00:11.287000,(0 -5 -1 -3 -3 -4 1 2)
1969/12/31/18:00:11.287000,(2 6 4 -1 1 -1 -2 0)
1969/12/31/18:00:11.302000,(0 1 -7 -4 -2 -2 -2 1)
1969/12/31/18:00:11.302000,(0 -2 0 1 -3 -3 0 0)
1969/12/31/18:00:11.309000,(-2 0 -7 -4 -3 -2 2 3)
1969/12/31/18:00:11.309000,(-2 -7 -5 -5 -3 -3 -5 -1)
1969/12/31/18:00:11.325000,(1 4 1 3 1 -1 4 0)
1969/12/31/18:00:11.325000,(-3 -6 -4 -2 0 0 -4 0)
1969/12/31/18:00:11.326000,(-3 -3 1 -3 0 2 -3 0)
1969/12/31/18:00:11.326000,(-2 -2 -4 -4 -2 0 -5 -5)
1969/12/31/18:00:11.328000,(-1 5 4 2 0 2 -3 0)
1969/12/31/18:00:11.328000,(0 -3 0 0 -2 0 1 -1)
1969/12/31/18:00:11.346000,(-3 -6 -3 0 -1 2 2 0)
1969/12/31/18:00:11.346000,(-2 1 2 0 0 -1 -1 -2)
1969/12/31/18:00:11.355000,(-2 -2 -6 -4 -1 2 -1 -2)
1969/12/31/18:00:11.355000,(-1 1 0 2 0 2 1 0)
1969/12/31/18:00:11.361000,(0 1 -1 0 -1 0 1 1)
1969/12/31/18:00:11.361000,(0 -1 10 7 2 2 4 2)
1969/12/31/18:00:11.370000,(-2 -8 0 1 0 0 -1 -2)
1969/12/31/18:00:11.370000,(0 -3 -7 -3 -1 -1 -1 -1)
1969/12/31/18:00:11.385000,(0 2 2 2 -1 -2 -1 -1)
1969/12/31/18:00:11.385000,(-2 -5 -10 -7 -4 -4 0 -1)
1969/12/31/18:00:11.386000,(-2 -1 -5 -2 -2 -2 -1 0)
1969/12/31/18:00:11.386000,(-1 -7 -7 -6 -3 -3 -3 -1)
1969/12/31/18:00:11.407000,(-3 -6 -4 4 2 -2 -1 0)
1969/12/31/18:00:11.407000,(-1 -4 -3 -1 -4 -4 0 1)
1969/12/31/18:00:11.415000,(0 0 0 0 1 -2 -1 -1)
1969/12/31/18:00:11.415000,(-1 -6 -3 0 0 -2 1 -1)
1969/12/31/18:00:11.421000,(-2 -1 -2 -5 -1 0 -1 0)
1969/12/31/18:00:11.421000,(0 2 7 7 3 0 3 1)
1969/12/31/18:00:11.436000,(-1 0 0 -2 -2 -1 -1 0)
1969/12/31/18:00:11.436000,(-2 1 1 2 1 -2 -1 -1)
1969/12/31/18:00:11.443000,(-1 -6 -6 -1 0 -2 -1 -1)
1969/12/31/18:00:11.443000,(-1 5 4 0 -2 -2 0 -1)
1969/12/31/18:00:11.458000,(1 5 -2 -1 -1 0 1 1)
1969/12/31/18:00:11.458000,(0 0 4 3 0 -2 -1 -1)
1969/12/31/18:00:11.468000,(1 3 3 3 0 -2 -3 -4)
1969/12/31/18:00:11.468000,(-2 -6 -11 -6 -2 -2 -4 -1)
1969/12/31/18:00:11.469000,(-5 -3 -3 -5 -2 0 5 4)
1969/12/31/18:00:11.469000,(1 -4 -7 -4 -2 -3 -7 -4)
1969/12/31/18:00:11.481000,(1 1 16 9 3 0 -4 -7)
1969/12/31/18:00:11.481000,(-2 -1 1 3 -1 2 5 3)
1969/12/31/18:00:11.490000,(-1 -4 -1 -2 -2 -1 -5 -6)
1969/12/31/18:00:11.490000,(0 3 3 -1 0 0 0 -5)
1969/12/31/18:00:11.504000,(-2 -3 -7 -5 -2 0 3 2)
1969/12/31/18:00:11.504000,(-1 -7 -3 -5 -2 -2 -2 -2)
1969/12/31/18:00:11.511000,(-1 -2 -5 -5 -3 -1 -3 -2)
1969/12/31/18:00:11.511000,(-4 -5 -1 -1 -1 -1 2 1)
1969/12/31/18:00:11.527000,(1 3 -3 -1 -2 -1 -3 -3)
1969/12/31/18:00:11.527000,(1 -3 -2 -3 0 0 -1 -2)
1969/12/31/18:00:11.529000,(0 0 -5 -6 -5 -2 -2 -2)
1969/12/31/18:00:11.529000,(-2 -1 -3 -6 -1 0 -2 0)
1969/12/31/18:00:11.541000,(-2 3 8 4 0 -1 4 2)
1969/12/31/18:00:11.541000,(0 4 -4 -5 -2 -1 -1 -1)
1969/12/31/18:00:11.550000,(-1 -4 -5 -3 -1 0 -1 0)
1969/12/31/18:00:11.550000,(1 0 0 -2 -2 -3 0 0)
1969/12/31/18:00:11.564000,(-2 -5 -7 -2 -2 -2 0 -1)
1969/12/31/18:00:11.564000,(-1 -1 1 -3 -1 0 -2 0)
1969/12/31/18:00:11.578000,(0 0 0 0 -2 -3 -1 -1)
1969/12/31/18:00:11.578000,(-1 1 2 2 -1 0 1 1)
1969/12/31/18:00:11.587000,(-4 -8 -8 -7 -5 -2 0 -1)
1969/12/31/18:00:11.587000,(0 0 -3 -2 -2 -2 0 -2)
1969/12/31/18:00:11.601000,(-5 -4 -5 -2 -1 0 8 6)
1969/12/31/18:00:11.601000,(2 -1 0 1 1 1 -3 -3)
1969/12/31/18:00:11.610000,(-1 1 -1 -1 -1 -2 -1 1)
1969/12/31/18:00:11.610000,(2 -1 -2 1 0 -3 -5 -2)
1969/12/31/18:00:11.611000,(-1 -2 3 3 2 -1 0 0)
1969/12/31/18:00:11.611000,(0 0 3 2 0 -1 -1 -2)
1969/12/31/18:00:11.624000,(0 3 1 -3 -1 2 -4 -4)
1969/12/31/18:00:11.624000,(-2 -2 1 0 1 2 1 -3)
1969/12/31/18:00:11.624000,(-1 -1 0 -1 -1 -1 -1 -1)
1969/12/31/18:00:11.624000,(-1 -3 -3 -1 -2 -1 0 -1)
1969/12/31/18:00:11.639000,(0 -4 -1 -1 1 -1 -1 -2)
1969/12/31/18:00:11.639000,(1 6 7 1 -2 -2 -1 0)
1969/12/31/18:00:11.648000,(0 7 4 7 2 -1 2 -1)
1969/12/31/18:00:11.648000,(0 1 1 2 -3 1 1 -2)
1969/12/31/18:00:11.649000,(-1 -1 -1 0 -2 -1 -1 -3)
1969/12/31/18:00:11.649000,(-3 -2 -2 -5 -1 -1 0 0)
1969/12/31/18:00:11.661000,(-3 -3 -2 -4 -1 -2 -1 -2)
1969/12/31/18:00:11.661000,(-1 -1 -2 -3 0 -3 -1 0)
1969/12/31/18:00:11.669000,(1 3 5 5 1 0 0 0)
1969/12/31/18:00:11.669000,(-2 1 0 1 0 0 0 0)
1969/12/31/18:00:11.677000,(-1 -2 0 -2 -1 -1 -2 0)
1969/12/31/18:00:11.677000,(-1 -2 -2 -1 1 1 0 -1)
1969/12/31/18:00:11.684000,(-4 -5 -4 -6 -3 0 0 -3)
1969/12/31/18:00:11.684000,(-2 -2 -2 -1 -1 -2 -4 -1)
1969/12/31/18:00:11.692000,(2 -2 -2 1 -1 -1 -2 2)
1969/12/31/18:00:11.692000,(-2 0 8 1 -1 -2 -1 0)
1969/12/31/18:00:11.707000,(4 4 3 0 -1 -2 -3 -1)
1969/12/31/18:00:11.707000,(0 -4 -3 2 3 0 0 1)
1969/12/31/18:00:11.721000,(-5 1 -7 -8 -4 -1 0 -2)
1969/12/31/18:00:11.721000,(3 2 7 7 0 0 0 1)
1969/12/31/18:00:11.729000,(-2 3 2 1 0 0 -1 -1)
1969/12/31/18:00:11.729000,(2 -3 1 3 -1 0 1 1)
1969/12/31/18:00:11.744000,(-1 -2 -5 -3 -1 -2 -4 -6)
1969/12/31/18:00:11.744000,(-6 -7 -10 -5 -1 0 -1 -2)
1969/12/31/18:00:11.752000,(0 0 -2 -3 -2 -1 -1 -1)
1969/12/31/18:00:11.752000,(1 2 0 1 -2 -2 -6 -4)
1969/12/31/18:00:11.767000,(-2 -7 -5 -5 -2 0 1 4)
1969/12/31/18:00:11.767000,(1 6 1 -1 -3 -3 -3 -2)
1969/12/31/18:00:11.783000,(-1 1 2 0 1 -1 1 4)
1969/12/31/18:00:11.783000,(0 1 -2 -4 -2 -3 -4 -4)
1969/12/31/18:00:11.785000,(1 -2 4 4 0 1 3 4)
1969/12/31/18:00:11.785000,(-3 -7 -9 -5 -3 -3 3 1)
1969/12/31/18:00:11.789000,(-6 -4 -8 -2 -1 -2 -1 -2)
1969/12/31/18:00:11.789000,(-2 0 0 -8 -2 -2 2 3)
1969/12/31/18:00:11.789000,(3 2 8 9 3 -1 -2 -1)
1969/12/31/18:00:11.789000,(-3 -4 1 6 4 0 4 2)
1969/12/31/18:00:11.811000,(0 6 4 2 0 -4 0 -3)
1969/12/31/18:00:11.811000,(1 -6 -12 -13 -2 1 7 14)
1969/12/31/18:00:11.812000,(-2 -5 -9 0 -4 -8 -13 -14)
1969/12/31/18:00:11.812000,(3 5 0 -6 -2 -1 -2 0)
1969/12/31/18:00:11.827000,(-5 -5 -4 1 -3 -1 1 -2)
1969/12/31/18:00:11.827000,(-1 -4 -11 1 -1 -2 -5 -8)
1969/12/31/18:00:11.827000,(-3 -5 3 -16 -1 0 9 11)
1969/12/31/18:00:11.827000,(-8 19 23 21 8 1 -2 -6)
1969/12/31/18:00:11.849000,(3 -7 7 -5 1 1 -3 1)
1969/12/31/18:00:11.849000,(-2 0 -6 8 -3 2 -2 -4)
1969/12/31/18:00:11.857000,(0 -11 -6 1 0 6 7 8)
1969/12/31/18:00:11.857000,(5 21 9 -3 -1 4 -1 -1)
1969/12/31/18:00:11.871000,(-2 -5 -9 -5 -5 -1 0 1)
1969/12/31/18:00:11.871000,(-7 -7 -8 -9 -3 -5 2 -1)
1969/12/31/18:00:11.872000,(1 1 9 6 0 -2 0 7)
1969/12/31/18:00:11.872000,(3 -11 -8 -6 0 0 6 8)
1969/12/31/18:00:11.894000,(-6 -2 0 6 2 -5 -9 -12)
1969/12/31/18:00:11.894000,(4 6 18 8 4 0 -1 -5)
1969/12/31/18:00:11.902000,(-5 -13 -22 -10 -3 0 -1 -6)
1969/12/31/18:00:11.902000,(-3 -9 1 -5 -5 -3 -4 -5)
1969/12/31/18:00:11.910000,(1 19 13 3 0 1 0 0)
1969/12/31/18:00:11.910000,(0 -5 1 1 0 3 1 3)
1969/12/31/18:00:11.911000,(0 -4 -5 -4 -2 -2 -3 -5)
1969/12/31/18:00:11.911000,(6 25 9 3 0 0 1 3)
1969/12/31/18:00:11.931000,(-5 -16 3 7 1 1 2 3)
1969/12/31/18:00:11.931000,(0 4 -2 -2 -5 -5 -2 -2)
1969/12/31/18:00:11.932000,(-3 -5 -4 0 1 0 -1 0)
1969/12/31/18:00:11.932000,(-6 -20 -22 -12 -2 -1 -3 -7)
1969/12/31/18:00:11.946000,(-4 0 1 -3 0 1 -6 -9)
1969/12/31/18:00:11.946000,(-2 4 11 -1 2 6 -4 -9)
1969/12/31/18:00:11.947000,(-6 7 9 6 2 6 -5 -6)
1969/12/31/18:00:11.947000,(-4 -7 4 -2 -6 -1 -6 -3)
1969/12/31/18:00:11.969000,(4 10 -1 -2 -1 1 -3 -4)
1969/12/31/18:00:11.969000,(-3 -16 -7 0 1 3 0 0)
1969/12/31/18:00:11.970000,(2 1 -7 -2 -4 -1 -3 -2)
1969/12/31/18:00:11.970000,(-4 -7 -12 0 0 0 -2 0)
1969/12/31/18:00:11.991000,(0 -4 0 0 -2 0 0 3)
1969/12/31/18:00:11.991000,(-2 -1 -8 -4 -3 -3 -2 -1)
1969/12/31/18:00:11.992000,(4 9 2 -1 -3 -4 -1 0)
1969/12/31/18:00:11.992000,(0 -6 1 0 -3 -2 -2 -2)
1969/12/31/18:00:12.006000,(-1 -9 -16 -8 -3 0 2 4)
1969/12/31/18:00:12.006000,(5 9 1 1 -1 -3 -2 1)
1969/12/31/18:00:12.007000,(3 3 8 3 1 -3 0 0)
1969/12/31/18:00:12.007000,(-1 -8 -10 -7 -2 -1 3 7)
1969/12/31/18:00:12.029000,(-11 -4 -4 -1 1 -1 1 -6)
1969/12/31/18:00:12.029000,(-2 5 5 2 2 0 3 4)
1969/12/31/18:00:12.037000,(-2 5 3 -1 -1 -2 -4 -5)
1969/12/31/18:00:12.037000,(3 -6 -5 -3 -3 -4 1 5)
1969/12/31/18:00:12.061000,(27 10 6 2 0 -1 -2 4)
1969/12/31/18:00:12.061000,(-16 -8 -6 -4 -5 -5 -7 -23)
1969/12/31/18:00:12.062000,(-3 -17 -6 -4 -2 0 -1 1)
1969/12/31/18:00:12.062000,(-9 0 0 0 0 -1 1 1)
1969/12/31/18:00:12.066000,(-14 -5 -2 -3 -1 0 8 13)
1969/12/31/18:00:12.066000,(30 18 7 7 4 -1 -11 -4)
1969/12/31/18:00:12.067000,(21 15 7 4 3 1 5 3)
1969/12/31/18:00:12.067000,(22 10 2 3 0 -17 -2 7)
1969/12/31/18:00:12.089000,(19 7 1 2 6 8 7 38)
1969/12/31/18:00:12.089000,(21 21 0 1 8 66 38 -1)
1969/12/31/18:00:12.090000,(-51 -37 -16 -12 -19 -88 -55 -17)
1969/12/31/18:00:12.090000,(-29 -25 -9 -3 -2 -7 3 -14)
1969/12/31/18:00:12.112000,(25 4 -7 1 -3 -13 -4 9)
1969/12/31/18:00:12.112000,(-14 -15 -13 -6 -3 -19 3 21)
1969/12/31/18:00:12.112000,(31 30 16 3 12 33 27 26)
1969/12/31/18:00:12.112000,(-4 29 15 6 10 15 5 6)
1969/12/31/18:00:12.126000,(-71 -50 -17 -25 -16 -14 -38 -66)
1969/12/31/18:00:12.126000,(-10 -12 6 -2 -3 6 -3 -25)
1969/12/31/18:00:12.127000,(-52 -33 -14 -12 -8 8 12 9)
1969/12/31/18:00:12.127000,(23 16 14 9 4 6 -6 -3)
1969/12/31/18:00:12.149000,(-33 20 10 9 6 9 0 -27)
1969/12/31/18:00:12.149000,(74 27 8 5 4 24 36 40)
1969/12/31/18:00:12.150000,(-93 -43 -13 -4 -5 -26 -55 -33)
1969/12/31/18:00:12.150000,(-30 -36 -11 -8 -8 -7 17 3)
1969/12/31/18:00:12.172000,(59 39 12 5 1 17 8 18)
1969/12/31/18:00:12.172000,(-22 -15 -5 -3 -7 -30 -18 -15)
1969/12/31/18:00:12.179000,(57 38 16 9 4 5 7 -1)
1969/12/31/18:00:12.179000,(-19 -3 -9 -5 1 35 -27 -36)
1969/12/31/18:00:12.188000,(-18 -8 0 3 2 -20 -7 -24)
1969/12/31/18:00:12.188000,(-43 -37 -17 -16 -23 -72 7 2)
1969/12/31/18:00:12.189000,(102 50 17 13 14 33 -7 19)
1969/12/31/18:00:12.189000,(-33 -16 -6 -1 -5 -7 -4 -8)
1969/12/31/18:00:12.209000,(36 9 6 7 13 47 23 21)
1969/12/31/18:00:12.209000,(-26 -20 -9 -5 -5 -26 -3 7)
1969/12/31/18:00:12.209000,(11 -3 6 3 -3 6 31 23)
1969/12/31/18:00:12.209000,(-11 -7 -10 -6 -2 -12 -22 -36)
1969/12/31/18:00:12.232000,(-7 -4 3 3 6 23 34 35)
1969/12/31/18:00:12.232000,(3 11 -1 -6 -15 -9 -5 -18)
1969/12/31/18:00:12.233000,(-3 12 6 4 -6 -82 -20 -21)
1969/12/31/18:00:12.233000,(14 10 3 2 12 81 32 35)
1969/12/31/18:00:12.246000,(-13 -17 -13 -12 -11 1 -25 -37)
1969/12/31/18:00:12.246000,(-9 5 7 6 11 -11 -6 27)
1969/12/31/18:00:12.247000,(17 5 -5 -2 1 20 -7 -2)
1969/12/31/18:00:12.247000,(-1 2 -2 -2 -5 -15 -26 -30)
1969/12/31/18:00:12.269000,(-7 -18 -4 -3 -6 -43 -33 -27)
1969/12/31/18:00:12.269000,(1 1 -7 -5 4 37 -3 31)
1969/12/31/18:00:12.270000,(-50 -17 -8 -5 2 44 33 -15)
1969/12/31/18:00:12.270000,(37 17 4 4 2 -13 -3 17)
1969/12/31/18:00:12.291000,(-23 -11 -3 -5 -13 -70 -14 9)
1969/12/31/18:00:12.291000,(44 19 6 5 7 49 29 11)
1969/12/31/18:00:12.292000,(42 20 -5 -10 -6 21 -30 78)
1969/12/31/18:00:12.292000,(-104 -68 -26 -13 -17 -62 -44 -54)
1969/12/31/18:00:12.307000,(17 -1 -7 -6 3 55 41 6)
1969/12/31/18:00:12.307000,(-5 7 11 8 1 -4 -6 -3)
1969/12/31/18:00:12.314000,(25 23 9 5 -1 -19 5 -16)
1969/12/31/18:00:12.314000,(7 1 -5 -3 -3 20 -1 -20)
1969/12/31/18:00:12.329000,(-9 -14 -8 -5 -4 -31 -16 15)
1969/12/31/18:00:12.329000,(-13 -9 3 8 13 6 16 19)
1969/12/31/18:00:12.330000,(0 -3 -2 0 0 10 14 21)
1969/12/31/18:00:12.330000,(2 15 8 1 0 -5 11 -16)
1969/12/31/18:00:12.351000,(-32 -15 -3 1 4 16 36 -41)
1969/12/31/18:00:12.351000,(-7 -5 -2 -7 -12 -16 -49 -90)
1969/12/31/18:00:12.352000,(-49 -17 -3 -1 2 -7 -20 -47)
1969/12/31/18:00:12.352000,(65 39 20 13 12 36 84 70)
1969/12/31/18:00:12.366000,(-32 -14 -22 -14 -9 -17 -25 44)
1969/12/31/18:00:12.366000,(10 -7 2 3 1 -5 15 46)
1969/12/31/18:00:12.367000,(-15 -9 -2 0 1 -11 9 -72)
1969/12/31/18:00:12.367000,(38 8 -2 -2 -3 -17 -35 37)
1969/12/31/18:00:12.389000,(-1 10 6 3 4 26 0 7)
1969/12/31/18:00:12.389000,(-3 -10 -3 2 3 2 13 28)
1969/12/31/18:00:12.390000,(4 11 0 -1 -3 -3 21 13)
1969/12/31/18:00:12.390000,(-1 -23 -7 -2 -2 -4 5 3)
1969/12/31/18:00:12.411000,(14 13 5 0 1 8 11 -6)
1969/12/31/18:00:12.411000,(46 21 10 8 6 -1 -14 61)
1969/12/31/18:00:12.412000,(-19 -17 -3 0 -2 7 15 -27)
1969/12/31/18:00:12.412000,(9 17 3 -1 -3 -10 -38 -29)
1969/12/31/18:00:12.436000,(0 -2 -2 0 3 17 -39 -16)
1969/12/31/18:00:12.436000,(-15 1 5 2 3 2 10 -3)
1969/12/31/18:00:12.437000,(-74 -45 -31 -23 -23 -22 -53 -84)
1969/12/31/18:00:12.437000,(9 7 6 -2 -3 -5 27 38)
1969/12/31/18:00:12.441000,(32 24 15 12 8 4 -16 43)
1969/12/31/18:00:12.441000,(-51 -37 -15 -9 1 49 -1 -30)
1969/12/31/18:00:12.448000,(77 20 10 11 9 -6 49 121)
1969/12/31/18:00:12.448000,(-1 -19 -12 -8 -7 -3 -28 -46)
1969/12/31/18:00:12.464000,(7 9 1 -3 -6 -26 3 -19)
1969/12/31/18:00:12.464000,(-8 14 8 7 12 57 6 -29)
1969/12/31/18:00:12.465000,(32 11 5 1 -3 -3 -14 15)
1969/12/31/18:00:12.465000,(11 -6 -4 -2 -5 -17 29 7)
1969/12/31/18:00:12.480000,(-7 1 -1 0 -2 -10 4 31)
1969/12/31/18:00:12.480000,(0 1 1 1 2 -17 10 -7)
1969/12/31/18:00:12.486000,(8 6 0 -2 3 23 10 18)
1969/12/31/18:00:12.486000,(35 14 2 -1 -1 -7 -3 10)
1969/12/31/18:00:12.501000,(-4 -14 -2 2 3 13 20 39)
1969/12/31/18:00:12.501000,(12 19 1 -3 -6 -3 -23 -29)
1969/12/31/18:00:12.508000,(-90 -42 -16 -12 -9 -21 -36 -68)
1969/12/31/18:00:12.508000,(-6 10 6 6 -2 -39 -2 -2)
1969/12/31/18:00:12.524000,(2 -14 -6 -5 -8 1 10 -22)
1969/12/31/18:00:12.524000,(4 1 -3 -6 -6 -21 -38 -9)
1969/12/31/18:00:12.525000,(7 12 7 7 6 5 30 55)
1969/12/31/18:00:12.525000,(0 -2 -1 -2 -1 24 1 -34)
1969/12/31/18:00:12.540000,(22 -5 -9 -5 -5 -60 -39 -54)
1969/12/31/18:00:12.540000,(-24 -15 -10 -9 -11 -31 -25 -51)
1969/12/31/18:00:12.546000,(3 3 -4 -4 9 74 -12 -27)
1969/12/31/18:00:12.546000,(22 7 11 7 2 27 -8 76)
1969/12/31/18:00:12.561000,(17 1 0 -4 -10 -41 -3 -39)
1969/12/31/18:00:12.561000,(-11 0 0 2 8 10 11 -4)
1969/12/31/18:00:12.568000,(17 16 10 18 41 18 1 11)
1969/12/31/18:00:12.568000,(7 11 1 16 6 -4 7 27)
1969/12/31/18:00:12.584000,(-15 3 -8 -20 -41 -4 -12 -50)
1969/12/31/18:00:12.584000,(-25 -24 -11 -29 -36 4 -25 -19)
1969/12/31/18:00:12.591000,(14 6 0 -1 24 -10 19 15)
1969/12/31/18:00:12.591000,(-5 -13 -3 2 16 2 17 4)
1969/12/31/18:00:12.606000,(44 40 22 33 35 56 13 92)
1969/12/31/18:00:12.607000,(-51 -28 -18 -20 -88 -96 -6 -49)
1969/12/31/18:00:12.607000,(10 1 -4 -17 -22 56 -12 -15)
1969/12/31/18:00:12.607000,(-49 -34 -17 2 33 6 -8 -38)
1969/12/31/18:00:12.621000,(-48 -44 -2 17 38 16 7 -39)
1969/12/31/18:00:12.621000,(31 6 -7 -21 -57 -26 -31 -14)
1969/12/31/18:00:12.629000,(32 20 12 17 58 49 63 54)
1969/12/31/18:00:12.629000,(-32 -5 -8 -6 63 64 -14 -36)
1969/12/31/18:00:12.644000,(-5 12 6 11 -65 -90 -11 -10)
1969/12/31/18:00:12.644000,(-45 -14 -7 -9 -43 -7 -36 -42)
1969/12/31/18:00:12.645000,(10 7 -1 -23 -49 -6 2 5)
1969/12/31/18:00:12.645000,(27 12 6 1 5 -50 22 54)
1969/12/31/18:00:12.661000,(-27 -14 -4 3 52 46 10 -30)
1969/12/31/18:00:12.661000,(28 38 14 27 62 17 13 21)
1969/12/31/18:00:12.666000,(-15 -13 -2 0 -29 -23 4 2)
1969/12/31/18:00:12.666000,(10 -41 -11 -3 0 32 16 55)
1969/12/31/18:00:12.681000,(-19 -3 -6 -10 20 45 7 28)
1969/12/31/18:00:12.681000,(17 6 1 1 -9 -48 12 30)
1969/12/31/18:00:12.688000,(2 7 2 -3 -45 -42 -21 1)
1969/12/31/18:00:12.688000,(-60 -19 -23 -33 -49 -55 -48 -118)
1969/12/31/18:00:12.704000,(21 -10 -3 -11 -22 -11 -9 18)
1969/12/31/18:00:12.704000,(37 17 8 17 81 56 14 -9)
1969/12/31/18:00:12.705000,(-42 -24 -6 1 1 2 -20 -60)
1969/12/31/18:00:12.705000,(-4 18 7 2 -46 -48 5 -10)
1969/12/31/18:00:12.727000,(13 8 -5 -15 -15 3 6 11)
1969/12/31/18:00:12.727000,(-13 -12 3 13 57 39 16 8)
1969/12/31/18:00:12.734000,(35 17 7 14 31 11 28 39)
1969/12/31/18:00:12.734000,(-55 -19 -2 4 -28 -20 -26 -31)
1969/12/31/18:00:12.749000,(24 25 -2 -23 -45 6 14 4)
1969/12/31/18:00:12.749000,(-1 -23 -10 -7 -22 -75 -19 31)
1969/12/31/18:00:12.750000,(-7 12 21 9 1 -20 -4 21)
1969/12/31/18:00:12.750000,(56 31 13 14 31 40 21 13)
1969/12/31/18:00:12.764000,(24 10 -1 1 35 33 5 26)
1969/12/31/18:00:12.764000,(45 21 -2 8 13 19 2 36)
1969/12/31/18:00:12.765000,(-42 -61 -28 -14 -18 -38 -16 -24)
1969/12/31/18:00:12.765000,(-15 4 -7 -14 -30 -19 -24 -76)
1969/12/31/18:00:12.780000,(1 18 8 12 31 16 0 12)
1969/12/31/18:00:12.780000,(24 -4 11 -8 -4 8 32 79)
1969/12/31/18:00:12.786000,(-76 -21 -10 11 50 1 -43 -90)
1969/12/31/18:00:12.786000,(49 22 5 -16 -105 -55 -5 42)
1969/12/31/18:00:12.801000,(-78 -55 -32 -17 3 -20 2 -15)
1969/12/31/18:00:12.801000,(30 38 -35 -7 24 40 20 -13)
1969/12/31/18:00:12.808000,(-1 11 67 16 -6 -34 -27 -55)
1969/12/31/18:00:12.808000,(-29 -5 10 6 40 37 10 39)
1969/12/31/18:00:12.825000,(34 0 -3 27 78 53 29 41)
1969/12/31/18:00:12.825000,(-8 -9 12 -10 -69 -12 31 28)
1969/12/31/18:00:12.831000,(12 9 -59 -36 -34 -55 -58 -40)
1969/12/31/18:00:12.831000,(7 -37 -28 -15 38 16 16 18)
1969/12/31/18:00:12.842000,(10 7 -1 -23 -49 -6 2 5)
1969/12/31/18:00:12.842000,(27 12 6 1 5 -50 22 54)
1969/12/31/18:00:12.847000,(-27 -14 -4 3 52 46 10 -30)
1969/12/31/18:00:12.847000,(28 38 14 27 62 17 13 21)
1969/12/31/18:00:12.848000,(-15 -13 -2 0 -29 -23 4 2)
1969/12/31/18:00:12.848000,(10 -41 -11 -3 0 32 16 55)
1969/12/31/18:00:12.850000,(44 -7 -28 -14 -34 -31 15 66)
1969/12/31/18:00:12.850000,(22 -71 -90 -27 -36 -18 -14 -7)
1969/12/31/18:00:12.861000,(-39 -98 -26 -12 47 18 -13 -65)
1969/12/31/18:00:12.861000,(-65 58 71 22 9 -19 -42 -61)
1969/12/31/18:00:12.868000,(3 103 76 14 -69 -17 40 54)
1969/12/31/18:00:12.868000,(3 28 44 29 55 8 -53 -55)
1969/12/31/18:00:12.893000,(29 -56 -83 -29 -58 -30 2 51)
1969/12/31/18:00:12.893000,(-28 -88 -41 29 111 76 60 16)
1969/12/31/18:00:12.894000,(17 -100 -113 -71 -63 -57 -78 -86)
1969/12/31/18:00:12.894000,(6 21 24 -10 38 37 37 11)
1969/12/31/18:00:12.898000,(20 49 23 -16 -50 -56 -2 -4)
1969/12/31/18:00:12.898000,(-64 -26 11 -20 5 -14 -56 -42)
1969/12/31/18:00:12.906000,(-17 -73 -54 27 55 61 58 53)
1969/12/31/18:00:12.906000,(0 4 -16 0 5 15 19 36)
1969/12/31/18:00:12.921000,(64 99 41 -2 -26 6 3 52)
1969/12/31/18:00:12.921000,(62 -25 -40 4 21 6 39 100)
1969/12/31/18:00:12.928000,(-66 11 100 36 -30 -30 -44 -77)
1969/12/31/18:00:12.928000,(2 38 -27 -10 -16 -4 -6 23)
1969/12/31/18:00:12.943000,(51 54 48 20 24 35 23 20)
1969/12/31/18:00:12.943000,(37 0 -12 -7 -43 -33 0 78)
1969/12/31/18:00:12.952000,(62 -51 -63 -22 3 13 2 12)
1969/12/31/18:00:12.952000,(-27 -21 36 28 60 27 31 53)
1969/12/31/18:00:12.966000,(-67 7 21 16 8 17 4 -58)
1969/12/31/18:00:12.966000,(-39 -70 -49 -63 -100 -77 -73 -83)
1969/12/31/18:00:12.967000,(30 62 13 -7 9 22 59 75)
1969/12/31/18:00:12.967000,(-25 -4 -20 -3 16 15 -13 -83)
1969/12/31/18:00:12.989000,(3 -16 -1 -5 -31 -47 -3 27)
1969/12/31/18:00:12.989000,(-17 -44 -74 -25 -4 9 -1 -72)
1969/12/31/18:00:12.990000,(-16 50 92 46 64 38 -18 -18)
1969/12/31/18:00:12.990000,(-45 33 53 11 -32 -4 7 3)
1969/12/31/18:00:13.003000,(-1 -51 -42 -4 -13 -41 -46 -27)
1969/12/31/18:00:13.003000,(14 57 -22 -11 -9 -2 7 -28)
1969/12/31/18:00:13.012000,(-19 96 79 43 8 -1 2 -70)
1969/12/31/18:00:13.012000,(-5 -23 -10 15 16 4 -2 6)
1969/12/31/18:00:13.026000,(-9 -5 35 25 12 1 -20 -74)
1969/12/31/18:00:13.026000,(-7 -15 -33 2 49 39 4 -7)
1969/12/31/18:00:13.027000,(25 -72 -86 -51 -60 -43 23 17)
1969/12/31/18:00:13.027000,(23 28 8 -5 -17 -9 -3 14)
1969/12/31/18:00:13.041000,(-41 9 20 4 22 -6 -29 -60)
1969/12/31/18:00:13.041000,(42 -15 -19 -3 -2 -17 5 22)
1969/12/31/18:00:13.048000,(15 7 -9 0 49 36 33 58)
1969/12/31/18:00:13.048000,(-22 48 83 3 -112 -71 -38 -8)
1969/12/31/18:00:13.065000,(-3 7 -21 -18 -10 5 13 19)
1969/12/31/18:00:13.065000,(32 -64 -17 5 43 34 19 64)
1969/12/31/18:00:13.071000,(-60 6 -6 2 28 25 -7 -32)
1969/12/31/18:00:13.071000,(80 62 -18 15 6 -26 -4 44)
1969/12/31/18:00:13.095000,(4 -54 24 6 8 12 18 71)
1969/12/31/18:00:13.095000,(27 109 66 37 6 -7 -17 -17)
1969/12/31/18:00:13.095000,(1 -17 21 8 7 7 -13 -44)
1969/12/31/18:00:13.095000,(4 -33 -39 -23 -2 16 20 34)
1969/12/31/18:00:13.100000,(-8 -82 -78 -13 55 55 33 30)
1969/12/31/18:00:13.101000,(45 63 57 33 -3 -19 12 -6)
1969/12/31/18:00:13.108000,(31 18 -17 -56 -85 -52 -75 -8)
1969/12/31/18:00:13.108000,(-53 -46 0 -11 48 39 21 -53)
1969/12/31/18:00:13.123000,(10 -8 -35 -3 -9 -19 -12 31)
1969/12/31/18:00:13.123000,(-11 -53 -21 -14 2 6 12 -1)
1969/12/31/18:00:13.132000,(19 -28 -50 -11 19 27 32 45)
1969/12/31/18:00:13.132000,(-37 52 85 33 -1 -8 -17 -33)
1969/12/31/18:00:13.147000,(-28 -73 -49 -17 -6 0 13 8)
1969/12/31/18:00:13.147000,(34 127 87 38 20 14 14 52)
1969/12/31/18:00:13.154000,(-27 -58 6 14 0 -9 -20 -21)
1969/12/31/18:00:13.154000,(39 -38 -93 -28 30 25 16 27)
1969/12/31/18:00:13.162000,(-87 127 104 63 -24 -15 -1 -72)
1969/12/31/18:00:13.162000,(-40 -31 -48 -30 -45 -35 -39 -4)
1969/12/31/18:00:13.168000,(55 -17 -45 1 28 15 32 41)
1969/12/31/18:00:13.168000,(13 -26 18 29 52 40 45 62)
1969/12/31/18:00:13.183000,(-1 -7 -24 -25 -48 -14 -39 -38)
1969/12/31/18:00:13.183000,(-10 14 9 -9 -19 -39 -33 -25)
1969/12/31/18:00:13.191000,(-66 -29 -17 -9 -1 15 4 -30)
1969/12/31/18:00:13.191000,(1 -74 -56 -15 -11 -25 12 1)
1969/12/31/18:00:13.206000,(-28 -3 -18 -24 -13 -14 -27 -39)
1969/12/31/18:00:13.206000,(-5 1 11 2 8 19 20 -12)
1969/12/31/18:00:13.207000,(3 -60 -48 -2 34 14 -6 30)
1969/12/31/18:00:13.207000,(8 46 28 -12 -51 -33 -43 -47)
1969/12/31/18:00:13.221000,(40 51 -4 10 20 16 21 48)
1969/12/31/18:00:13.221000,(-47 -62 1 -6 -14 0 19 -21)
1969/12/31/18:00:13.228000,(104 -9 -67 4 44 11 4 80)
1969/12/31/18:00:13.228000,(-65 101 108 45 -6 -12 -20 -50)
1969/12/31/18:00:13.243000,(39 -22 -34 6 -8 -17 -10 36)
1969/12/31/18:00:13.243000,(-11 -31 -26 -23 -30 13 13 9)
1969/12/31/18:00:13.251000,(-1 4 8 8 10 5 36 26)
1969/12/31/18:00:13.251000,(28 -120 -104 -52 -29 -18 -47 3)
1969/12/31/18:00:13.266000,(7 61 46 8 5 -6 15 -5)
1969/12/31/18:00:13.266000,(16 61 42 24 20 8 -9 -4)
1969/12/31/18:00:13.274000,(-65 -45 9 2 14 27 -16 -52)
1969/12/31/18:00:13.274000,(29 -14 -50 -27 -23 -5 46 49)
1969/12/31/18:00:13.289000,(-53 -71 -37 -10 2 -27 3 -57)
1969/12/31/18:00:13.289000,(-6 76 72 16 7 8 -44 -35)
1969/12/31/18:00:13.296000,(35 85 53 25 -21 1 28 37)
1969/12/31/18:00:13.296000,(1 -82 -81 -32 -11 -6 -29 -26)
1969/12/31/18:00:13.303000,(19 11 -12 -22 1 -2 0 6)
1969/12/31/18:00:13.303000,(7 -39 -15 -1 -1 -7 7 18)
1969/12/31/18:00:13.311000,(35 84 40 22 36 25 27 27)
1969/12/31/18:00:13.311000,(8 58 61 28 4 8 7 -20)
1969/12/31/18:00:13.335000,(-8 3 1 -5 5 7 -9 -13)
1969/12/31/18:00:13.335000,(43 -47 -36 -8 -21 -6 0 37)
1969/12/31/18:00:13.336000,(-56 -35 1 -11 -5 -38 -12 -61)
1969/12/31/18:00:13.336000,(-46 -42 -46 -17 19 -2 -23 -30)
1969/12/31/18:00:13.349000,(48 -19 -11 -8 6 31 16 67)
1969/12/31/18:00:13.349000,(13 31 -22 7 47 10 9 -12)
1969/12/31/18:00:13.350000,(-68 -28 19 -20 -108 -60 -29 -19)
1969/12/31/18:00:13.350000,(32 16 -7 8 56 24 -9 8)
1969/12/31/18:00:13.372000,(3 -61 -19 9 55 3 2 26)
1969/12/31/18:00:13.372000,(25 62 47 11 -33 9 35 42)
1969/12/31/18:00:13.373000,(1 51 -6 -16 -20 -40 -29 -11)
1969/12/31/18:00:13.373000,(-25 53 72 24 -4 10 24 -1)
1969/12/31/18:00:13.395000,(-32 -30 14 7 22 22 -14 -42)
1969/12/31/18:00:13.395000,(-12 -52 -57 -10 30 -1 2 -18)
1969/12/31/18:00:13.395000,(-6 -42 -46 -26 -12 -10 -46 -44)
1969/12/31/18:00:13.396000,(37 37 49 8 -20 -22 32 50)
1969/12/31/18:00:13.409000,(-22 13 -36 -18 10 -7 -42 -60)
1969/12/31/18:00:13.409000,(-71 -39 -16 2 24 28 24 -14)
1969/12/31/18:00:13.410000,(8 -9 4 1 -11 13 31 4)
1969/12/31/18:00:13.410000,(54 21 36 26 19 9 -7 48)
1969/12/31/18:00:13.432000,(-3 31 -23 -25 -79 -44 -4 -5)
1969/12/31/18:00:13.432000,(-37 -39 12 8 52 11 -29 -2)
1969/12/31/18:00:13.439000,(24 -7 -8 -17 -58 -22 14 6)
1969/12/31/18:00:13.439000,(-62 -76 -53 -16 -8 -30 -17 -36)
1969/12/31/18:00:13.455000,(10 51 56 16 -15 17 -24 -17)
1969/12/31/18:00:13.455000,(10 -2 -15 0 22 18 23 2)
1969/12/31/18:00:13.455000,(26 31 28 24 39 22 -1 37)
1969/12/31/18:00:13.455000,(21 11 2 -20 -104 -38 17 16)
1969/12/31/18:00:13.469000,(22 -21 -24 4 48 32 32 65)
1969/12/31/18:00:13.469000,(-62 -33 -17 -7 -18 -24 -51 -76)
1969/12/31/18:00:13.470000,(20 -15 -13 10 36 36 37 1)
1969/12/31/18:00:13.470000,(-60 33 49 2 -62 -46 -43 -51)
1969/12/31/18:00:13.492000,(47 -33 -31 -19 -2 -1 30 33)
1969/12/31/18:00:13.492000,(22 5 -30 -29 -29 -16 -44 7)
1969/12/31/18:00:13.493000,(1 -20 -27 8 35 28 27 26)
1969/12/31/18:00:13.493000,(33 45 5 -10 -31 -37 -15 16)
1969/12/31/18:00:13.516000,(-15 27 85 37 56 14 6 -17)
1969/12/31/18:00:13.516000,(-13 -15 -20 -13 -30 -13 22 -11)
1969/12/31/18:00:13.518000,(-60 -3 21 10 20 12 -40 -35)
1969/12/31/18:00:13.518000,(18 -21 -54 -17 25 20 15 4)
1969/12/31/18:00:13.529000,(-19 -16 -11 -14 -45 -34 -12 -16)
1969/12/31/18:00:13.529000,(62 1 -4 3 -31 13 17 59)
1969/12/31/18:00:13.530000,(-44 5 36 21 47 20 -6 -13)
1969/12/31/18:00:13.530000,(10 -33 -29 -17 -17 -9 0 -13)
1969/12/31/18:00:13.553000,(24 36 -1 -16 -56 -29 14 21)
1969/12/31/18:00:13.553000,(-15 -60 -17 14 84 40 -13 -7)
1969/12/31/18:00:13.553000,(5 -18 -29 -31 -62 -50 -13 -7)
1969/12/31/18:00:13.553000,(38 87 66 30 27 33 30 25)
1969/12/31/18:00:13.575000,(-38 -37 -5 -2 -18 -8 -1 -4)
1969/12/31/18:00:13.575000,(-23 -62 -43 -14 -3 -17 -19 -42)
1969/12/31/18:00:13.575000,(16 46 15 24 37 31 44 -26)
1969/12/31/18:00:13.575000,(10 -30 -19 -1 33 9 -38 -10)
1969/12/31/18:00:13.589000,(-39 14 33 24 28 33 18 -1)
1969/12/31/18:00:13.589000,(42 20 -33 -40 -116 -93 15 7)
1969/12/31/18:00:13.590000,(0 40 33 4 79 34 -33 -9)
1969/12/31/18:00:13.590000,(3 -17 -24 -8 -13 3 -22 -8)
1969/12/31/18:00:13.611000,(17 -25 -29 1 27 19 5 33)
1969/12/31/18:00:13.611000,(29 21 47 27 2 -1 20 69)
1969/12/31/18:00:13.620000,(-3 -64 -54 -36 -48 -33 -13 0)
1969/12/31/18:00:13.620000,(9 1 8 1 15 11 19 25)
1969/12/31/18:00:13.634000,(-35 59 19 12 13 9 -24 -43)
1969/12/31/18:00:13.634000,(30 51 37 13 -6 -2 10 53)
1969/12/31/18:00:13.636000,(-2 -61 11 2 4 11 20 12)
1969/12/31/18:00:13.636000,(20 -71 -74 -15 -8 -17 -9 5)
1969/12/31/18:00:13.648000,(3 23 5 -1 24 6 9 2)
1969/12/31/18:00:13.648000,(-49 2 21 -11 -86 -30 1 -47)
1969/12/31/18:00:13.657000,(56 97 32 25 13 22 15 69)
1969/12/31/18:00:13.657000,(-104 -87 -22 4 49 42 8 -72)
1969/12/31/18:00:13.672000,(67 15 -14 3 29 -6 -19 35)
1969/12/31/18:00:13.672000,(-45 -50 -17 -40 -59 -59 -12 -23)
1969/12/31/18:00:13.674000,(-10 -44 -36 -15 71 50 18 26)
1969/12/31/18:00:13.674000,(4 -10 -14 4 -5 -24 -22 -1)
1969/12/31/18:00:13.694000,(15 -7 -1 2 -6 -6 -8 -17)
1969/12/31/18:00:13.694000,(66 121 84 69 92 54 6 24)
1969/12/31/18:00:13.709000,(-4 20 33 -9 -75 -42 -6 38)
1969/12/31/18:00:13.709000,(-22 -42 -11 0 29 27 25 7)
1969/12/31/18:00:13.717000,(33 20 -18 -3 6 37 47 61)
1969/12/31/18:00:13.717000,(-38 -58 -32 -28 -41 -39 -61 -47)
1969/12/31/18:00:13.723000,(-11 22 8 -4 -35 -20 1 -20)
1969/12/31/18:00:13.723000,(33 13 -17 -16 -16 -10 -12 15)
1969/12/31/18:00:13.732000,(27 -79 -56 -6 20 29 6 36)
1969/12/31/18:00:13.732000,(-17 45 44 -13 -57 -50 4 -11)
1969/12/31/18:00:13.734000,(42 58 41 39 81 29 -1 21)
1969/12/31/18:00:13.734000,(-60 -50 -22 -10 -26 8 27 -8)
1969/12/31/18:00:13.755000,(38 21 23 16 5 -3 2 42)
1969/12/31/18:00:13.755000,(-14 -33 -49 -26 30 37 -2 -31)
1969/12/31/18:00:13.756000,(-47 38 52 1 -32 -29 0 -32)
1969/12/31/18:00:13.756000,(22 26 26 14 23 5 3 -14)
1969/12/31/18:00:13.768000,(-6 -85 -70 -28 -23 0 18 22)
1969/12/31/18:00:13.768000,(2 66 11 18 54 37 9 -2)
1969/12/31/18:00:13.777000,(27 23 -7 24 -22 -21 -8 15)
1969/12/31/18:00:13.777000,(-65 -42 -20 -23 -30 -20 -18 -40)
1969/12/31/18:00:13.792000,(-29 -20 1 -3 -12 -22 -20 -73)
1969/12/31/18:00:13.792000,(35 -40 -56 -17 6 4 4 10)
1969/12/31/18:00:13.793000,(59 7 -35 1 57 38 27 0)
1969/12/31/18:00:13.793000,(-1 90 89 34 21 -13 -13 -32)
1969/12/31/18:00:13.815000,(-27 -72 -26 -15 -30 -23 -31 -14)
1969/12/31/18:00:13.815000,(-40 -9 -3 -11 15 0 -31 -78)
1969/12/31/18:00:13.816000,(15 4 -6 11 38 27 -8 -12)
1969/12/31/18:00:13.816000,(-19 41 41 12 -23 16 2 -21)
1969/12/31/18:00:13.837000,(-24 -57 -52 -51 -84 -88 -11 -26)
1969/12/31/18:00:13.837000,(6 4 31 13 7 18 14 28)
1969/12/31/18:00:13.853000,(-36 60 62 35 -6 -10 -8 -28)
1969/12/31/18:00:13.853000,(63 13 -16 20 90 48 17 44)
1969/12/31/18:00:13.853000,(-18 83 75 10 -70 -23 -24 -11)
1969/12/31/18:00:13.853000,(-45 -56 -23 0 12 12 18 -35)
1969/12/31/18:00:13.855000,(22 -94 -94 -69 -86 -65 -62 -6)
1969/12/31/18:00:13.855000,(-32 -18 17 3 22 15 19 4)
1969/12/31/18:00:13.875000,(12 4 -45 -16 0 -10 -20 -26)
1969/12/31/18:00:13.875000,(39 58 82 59 29 35 38 109)
1969/12/31/18:00:13.876000,(-30 -15 25 20 47 -4 -5 -51)
1969/12/31/18:00:13.876000,(6 -22 -65 -39 -65 -27 -20 -24)
1969/12/31/18:00:13.888000,(-34 0 44 8 30 22 20 4)
1969/12/31/18:00:13.888000,(-19 -35 -62 -35 -43 -30 -21 -26)
1969/12/31/18:00:13.897000,(10 -24 -21 -8 1 29 26 -12)
1969/12/31/18:00:13.897000,(22 -39 -54 -14 2 -16 -33 2)
1969/12/31/18:00:13.912000,(-10 3 16 -3 -45 -35 -11 -21)
1969/12/31/18:00:13.912000,(4 75 38 15 23 15 2 6)
1969/12/31/18:00:13.914000,(15 -10 28 18 -3 11 38 96)
1969/12/31/18:00:13.914000,(-31 -37 -25 -3 15 0 -18 -63)
1969/12/31/18:00:13.935000,(13 1 -2 3 1 10 -4 0)
1969/12/31/18:00:13.935000,(-39 -98 -76 -31 11 -4 -7 -16)
1969/12/31/18:00:13.936000,(30 59 4 -25 -85 -42 -8 12)
1969/12/31/18:00:13.936000,(23 24 23 18 91 40 23 53)
1969/12/31/18:00:13.948000,(-18 16 13 16 11 3 -32 -38)
1969/12/31/18:00:13.948000,(35 56 55 16 13 6 5 50)
1969/12/31/18:00:13.957000,(-37 -62 -37 0 47 38 21 -8)
1969/12/31/18:00:13.957000,(17 -70 -73 -33 -82 -46 -14 19)
1969/12/31/18:00:13.972000,(-11 81 66 16 9 7 31 1)
1969/12/31/18:00:13.972000,(34 29 -28 13 32 2 -11 -27)
1969/12/31/18:00:13.986000,(-32 -14 27 22 42 38 10 -4)
1969/12/31/18:00:13.986000,(18 46 40 2 -82 -79 -44 -10)
1969/12/31/18:00:13.995000,(-31 -96 -53 -27 0 16 39 28)
1969/12/31/18:00:13.995000,(5 -29 -43 -22 -28 -18 -26 -45)
1969/12/31/18:00:13.996000,(-44 26 21 -1 3 -3 -16 -52)
1969/12/31/18:00:13.996000,(23 22 -2 4 1 25 24 27)
1969/12/31/18:00:14.008000,(36 15 -8 -32 -35 -10 1 9)
1969/12/31/18:00:14.008000,(-11 -41 -30 -32 41 0 -2 4)
1969/12/31/18:00:14.017000,(-34 -27 -21 -1 -52 -19 -13 -18)
1969/12/31/18:00:14.017000,(-2 17 32 43 15 12 17 17)
1969/12/31/18:00:14.032000,(15 21 4 41 12 -8 4 3)
1969/12/31/18:00:14.032000,(9 7 31 39 41 41 13 11)
1969/12/31/18:00:14.034000,(-47 -20 -35 -45 -48 -39 -25 -48)
1969/12/31/18:00:14.034000,(-9 -95 -56 -33 -2 -3 -6 -20)
1969/12/31/18:00:14.055000,(39 119 74 23 15 13 -5 -2)
1969/12/31/18:00:14.055000,(-9 -11 70 21 18 22 25 14)
1969/12/31/18:00:14.056000,(24 18 18 19 4 -6 4 28)
1969/12/31/18:00:14.056000,(-37 -37 -32 -47 -84 -38 -14 0)
1969/12/31/18:00:14.077000,(-46 -10 10 -9 16 5 -14 -34)
1969/12/31/18:00:14.077000,(63 29 4 -19 -25 -12 14 36)
1969/12/31/18:00:14.079000,(12 23 -32 -83 -55 -5 -7 12)
1969/12/31/18:00:14.079000,(0 34 62 111 127 59 29 10)
1969/12/31/18:00:14.091000,(60 16 -2 10 38 9 23 37)
1969/12/31/18:00:14.091000,(-62 -32 -18 -44 -63 -97 -51 -29)
1969/12/31/18:00:14.098000,(-67 -64 -20 77 80 92 8 -49)
1969/12/31/18:00:14.098000,(46 56 5 -17 -36 29 14 41)
1969/12/31/18:00:14.114000,(-22 -24 6 61 57 -20 30 8)
1969/12/31/18:00:14.114000,(-10 -7 -20 -27 -58 -20 -27 -77)
1969/12/31/18:00:14.129000,(29 -33 -28 -47 -31 -53 -23 -5)
1969/12/31/18:00:14.129000,(-11 35 19 -24 -14 4 -3 10)
1969/12/31/18:00:14.137000,(25 4 -6 -14 -14 24 3 20)
1969/12/31/18:00:14.137000,(-34 -10 -2 8 6 21 24 41)
1969/12/31/18:00:14.138000,(53 -5 -7 -6 -18 -21 9 56)
1969/12/31/18:00:14.138000,(-41 -8 12 6 31 8 -12 -36)
1969/12/31/18:00:14.151000,(7 -10 -14 -19 -18 -5 -17 7)
1969/12/31/18:00:14.151000,(36 29 2 15 13 10 13 35)
1969/12/31/18:00:14.158000,(3 7 17 21 11 -1 -10 8)
1969/12/31/18:00:14.158000,(43 23 11 -2 8 2 32 28)
1969/12/31/18:00:14.175000,(-88 -62 -49 -29 -14 -21 -49 -87)
1969/12/31/18:00:14.175000,(52 40 25 34 13 19 -2 9)
1969/12/31/18:00:14.176000,(35 3 12 -2 4 -5 5 20)
1969/12/31/18:00:14.176000,(-1 10 0 -14 -14 -4 1 6)
1969/12/31/18:00:14.197000,(-49 -48 -26 -13 -14 -7 -9 -27)
1969/12/31/18:00:14.197000,(-19 -9 -4 4 16 36 -16 -45)
1969/12/31/18:00:14.199000,(21 11 8 23 20 -10 18 21)
1969/12/31/18:00:14.199000,(40 58 17 12 12 -11 -5 -12)
1969/12/31/18:00:14.211000,(-26 -30 -7 4 4 8 0 -24)
1969/12/31/18:00:14.211000,(-22 -20 -17 -13 -23 -5 -3 -27)
1969/12/31/18:00:14.218000,(-48 -17 -10 -21 -11 -8 -2 8)
1969/12/31/18:00:14.218000,(52 15 6 1 13 12 9 34)
1969/12/31/18:00:14.235000,(8 29 18 12 3 16 9 47)
1969/12/31/18:00:14.235000,(37 6 -8 -6 -5 -9 -2 -3)
1969/12/31/18:00:14.236000,(-15 -24 -5 -3 -9 -4 -4 14)
1969/12/31/18:00:14.236000,(28 11 6 6 16 7 14 29)
1969/12/31/18:00:14.257000,(0 0 -12 -16 -16 -10 -22 -19)
1969/12/31/18:00:14.257000,(10 5 10 11 6 3 20 39)
1969/12/31/18:00:14.272000,(50 27 -4 -2 3 -6 -7 -3)
1969/12/31/18:00:14.272000,(-95 -41 -8 -12 -8 -5 -24 -64)
1969/12/31/18:00:14.273000,(55 4 -11 -18 -5 0 1 7)
1969/12/31/18:00:14.273000,(-22 -21 -7 6 0 -3 6 9)
1969/12/31/18:00:14.278000,(20 1 -1 13 -1 -3 -2 0)
1969/12/31/18:00:14.278000,(29 41 29 11 9 14 22 54)
1969/12/31/18:00:14.294000,(-58 -19 -15 -8 -4 -3 -16 -58)
1969/12/31/18:00:14.294000,(-61 -41 -5 -7 -1 -7 -2 -15)
1969/12/31/18:00:14.296000,(4 -1 -18 -19 -13 -4 -6 -3)
1969/12/31/18:00:14.296000,(-37 -12 18 3 -1 -4 -8 -25)
1969/12/31/18:00:14.317000,(72 46 18 13 3 5 16 46)
1969/12/31/18:00:14.317000,(9 5 4 6 1 -2 -6 -14)
1969/12/31/18:00:14.319000,(-60 -17 -11 -10 -3 -6 -13 -56)
1969/12/31/18:00:14.319000,(15 2 -19 -21 -5 -3 -2 0)
1969/12/31/18:00:14.331000,(-11 -15 10 11 9 9 7 13)
1969/12/31/18:00:14.331000,(4 11 17 22 5 1 1 2)
1969/12/31/18:00:14.340000,(1 -3 -2 0 -2 -2 -4 -6)
1969/12/31/18:00:14.340000,(-24 -21 -14 -13 -3 -5 -7 -15)
1969/12/31/18:00:14.355000,(4 11 8 1 3 1 1 11)
1969/12/31/18:00:14.355000,(-1 2 -14 -6 -3 -4 0 5)
1969/12/31/18:00:14.356000,(14 6 4 -4 -4 -3 -3 -3)
1969/12/31/18:00:14.356000,(4 -1 5 5 4 3 4 20)
1969/12/31/18:00:14.377000,(-8 -9 3 -2 -2 -1 -5 -7)
1969/12/31/18:00:14.377000,(-10 -7 -15 -11 -6 -4 0 -7)
1969/12/31/18:00:14.379000,(7 5 9 4 1 -2 0 3)
1969/12/31/18:00:14.379000,(-5 -15 -11 -4 -4 -3 -5 -11)
1969/12/31/18:00:14.391000,(6 11 4 0 -5 -7 -7 1)
1969/12/31/18:00:14.391000,(-9 -6 -9 -7 -3 -1 7 -1)
1969/12/31/18:00:14.406000,(12 -27 -43 -33 -8 -1 1 7)
1969/12/31/18:00:14.406000,(-9 31 49 19 10 5 2 -8)
1969/12/31/18:00:14.415000,(16 -16 -32 -11 -1 3 14 10)
1969/12/31/18:00:14.415000,(-3 11 8 -3 -2 0 -18 4)
1969/12/31/18:00:14.416000,(-3 48 65 32 4 1 -2 -12)
1969/12/31/18:00:14.416000,(-8 -33 -34 -12 -8 -7 -8 -2)
1969/12/31/18:00:14.437000,(9 -23 -36 -17 -8 -2 7 4)
1969/12/31/18:00:14.437000,(1 -3 2 15 8 2 3 13)
1969/12/31/18:00:14.439000,(-12 -7 8 7 -3 -5 -16 -13)
1969/12/31/18:00:14.439000,(2 23 26 11 2 0 -9 -14)
1969/12/31/18:00:14.451000,(-7 -4 -22 -12 -7 -6 -4 -2)
1969/12/31/18:00:14.451000,(-6 -25 -22 -17 -4 -1 2 1)
1969/12/31/18:00:14.460000,(-1 10 9 17 9 9 17 10)
1969/12/31/18:00:14.460000,(7 1 10 8 0 -4 -9 1)
1969/12/31/18:00:14.475000,(-8 -51 -28 -14 -7 2 7 3)
1969/12/31/18:00:14.475000,(-1 13 -21 -17 -5 -2 7 0)
1969/12/31/18:00:14.476000,(-2 39 14 18 3 -8 -34 -14)
1969/12/31/18:00:14.476000,(-2 -28 -16 -7 -5 -3 10 -4)
1969/12/31/18:00:14.497000,(4 -5 -4 0 1 4 -1 4)
1969/12/31/18:00:14.497000,(-10 -2 23 10 3 0 -13 -11)
1969/12/31/18:00:14.498000,(-4 -17 -16 -17 -9 -2 6 2)
1969/12/31/18:00:14.498000,(4 20 2 -16 -6 0 3 -3)
1969/12/31/18:00:14.511000,(-3 24 29 25 6 -5 -14 -5)
1969/12/31/18:00:14.511000,(4 -3 -4 3 3 5 7 2)
1969/12/31/18:00:14.520000,(-4 -31 -18 -12 -5 -2 7 2)
1969/12/31/18:00:14.520000,(-12 -33 -35 -10 -3 -5 4 3)
1969/12/31/18:00:14.534000,(-1 24 27 8 4 0 -21 -15)
1969/12/31/18:00:14.534000,(-4 1 4 0 -2 -4 -6 3)
1969/12/31/18:00:14.548000,(7 13 12 5 4 -4 -2 -4)
1969/12/31/18:00:14.548000,(-1 -28 -45 -19 -3 3 8 6)
1969/12/31/18:00:14.557000,(0 7 36 24 6 4 2 6)
1969/12/31/18:00:14.557000,(-1 17 23 15 4 1 4 1)
1969/12/31/18:00:14.559000,(-2 -18 -18 -9 -1 3 0 -4)
1969/12/31/18:00:14.559000,(-7 -32 -35 -30 -15 -7 -8 -8)
1969/12/31/18:00:14.570000,(4 90 58 37 17 4 -6 -10)
1969/12/31/18:00:14.571000,(6 -17 -2 2 0 5 -2 -1)
1969/12/31/18:00:14.580000,(-2 -20 -10 -5 -2 5 13 9)
1969/12/31/18:00:14.580000,(-2 0 -4 1 -3 -4 -13 -8)
1969/12/31/18:00:14.595000,(-10 -46 -38 -36 -21 -8 6 5)
1969/12/31/18:00:14.595000,(3 9 16 7 1 -3 13 7)
1969/12/31/18:00:14.596000,(13 25 5 -1 -2 -9 -16 -5)
1969/12/31/18:00:14.596000,(4 -9 24 41 17 2 7 6)
1969/12/31/18:00:14.618000,(-5 -23 -18 -10 -2 0 4 4)
1969/12/31/18:00:14.618000,(13 49 33 9 1 -5 -6 -5)
1969/12/31/18:00:14.619000,(-8 16 12 2 4 5 8 0)
1969/12/31/18:00:14.619000,(-11 -1 4 -2 -1 -1 -5 -8)
1969/12/31/18:00:14.631000,(0 -9 -11 -18 -4 -1 1 -2)
1969/12/31/18:00:14.631000,(-16 -25 -28 -27 -9 -4 -4 -6)
1969/12/31/18:00:14.639000,(1 -11 21 8 6 4 3 3)
1969/12/31/18:00:14.640000,(15 71 28 18 6 0 -10 -13)
1969/12/31/18:00:14.655000,(-2 4 -14 1 -2 2 2 -2)
1969/12/31/18:00:14.655000,(-2 -8 -35 -16 -9 -5 -6 -4)
1969/12/31/18:00:14.656000,(-17 -44 -37 -27 -13 -9 -8 -9)
1969/12/31/18:00:14.656000,(10 45 26 6 2 1 4 5)
1969/12/31/18:00:14.677000,(1 -8 2 9 5 3 -1 0)
1969/12/31/18:00:14.677000,(8 7 2 0 0 0 0 3)
1969/12/31/18:00:14.685000,(-23 -55 -31 -22 -13 -7 -4 -2)
1969/12/31/18:00:14.685000,(19 30 32 17 7 0 3 3)
1969/12/31/18:00:14.691000,(-5 -10 -5 1 -1 -8 -3 -5)
1969/12/31/18:00:14.691000,(-4 -47 -43 -18 -7 -7 2 7)
1969/12/31/18:00:14.699000,(6 28 17 21 6 1 2 -1)
1969/12/31/18:00:14.700000,(-6 -2 -23 -14 -6 -3 1 2)
1969/12/31/18:00:14.714000,(5 8 12 0 0 0 1 5)
1969/12/31/18:00:14.715000,(1 -9 10 17 5 0 -1 -4)
1969/12/31/18:00:14.716000,(-6 1 -14 -17 -6 -4 -2 -4)
1969/12/31/18:00:14.716000,(-10 -18 -14 -10 -6 -1 -6 -6)
1969/12/31/18:00:14.737000,(4 25 17 10 6 6 -2 -4)
1969/12/31/18:00:14.737000,(-7 2 3 -3 2 8 0 -3)
1969/12/31/18:00:14.738000,(1 18 8 6 2 9 -5 -11)
1969/12/31/18:00:14.738000,(-6 -6 4 -7 -6 3 -7 -9)
1969/12/31/18:00:14.751000,(-1 -1 -9 -13 -6 -5 -4 -3)
1969/12/31/18:00:14.751000,(2 -22 8 9 1 -2 -2 0)
1969/12/31/18:00:14.766000,(11 10 -2 2 -5 -9 -1 7)
1969/12/31/18:00:14.766000,(2 -28 -9 7 0 -4 6 10)
1969/12/31/18:00:14.774000,(3 -7 -18 -7 -7 -9 6 9)
1969/12/31/18:00:14.774000,(5 14 -8 -2 -3 -12 2 7)
1969/12/31/18:00:14.776000,(5 -6 -11 4 4 -6 6 11)
1969/12/31/18:00:14.776000,(-1 -13 -33 -16 -7 -9 4 11)
1969/12/31/18:00:14.797000,(-5 -11 -8 -7 2 -4 3 3)
1969/12/31/18:00:14.797000,(-3 6 9 12 8 1 3 -6)
1969/12/31/18:00:14.812000,(-3 7 2 -4 1 -2 2 -2)
1969/12/31/18:00:14.812000,(-13 -10 -9 -7 0 -5 -4 -7)
1969/12/31/18:00:14.819000,(-2 5 11 4 0 -2 -5 -6)
1969/12/31/18:00:14.819000,(-2 7 -6 -13 -2 3 -3 -6)
1969/12/31/18:00:14.834000,(-6 -3 -2 -2 1 8 -3 -8)
1969/12/31/18:00:14.834000,(-4 2 9 -1 2 11 -7 -9)
1969/12/31/18:00:14.842000,(0 0 9 5 0 9 -7 -8)
1969/12/31/18:00:14.842000,(-5 -19 -5 -6 -4 7 -3 -2)
1969/12/31/18:00:14.844000,(-5 -6 -7 -8 -6 3 -1 -1)
1969/12/31/18:00:14.844000,(2 -2 3 4 1 3 0 1)
1969/12/31/18:00:14.857000,(-5 -8 -15 -12 -4 -2 -4 -5)
1969/12/31/18:00:14.857000,(7 6 16 13 -1 -3 -4 -1)
1969/12/31/18:00:14.858000,(2 12 -1 4 1 -3 -5 -2)
1969/12/31/18:00:14.858000,(-3 -10 5 6 -1 -5 1 3)
1969/12/31/18:00:14.880000,(2 8 1 -1 0 -1 0 0)
1969/12/31/18:00:14.880000,(-6 -5 -6 -4 -1 -2 -2 -3)
1969/12/31/18:00:14.881000,(6 -6 -2 -3 -2 0 -2 1)
1969/12/31/18:00:14.881000,(-12 -11 -4 -4 -2 -1 -2 1)
1969/12/31/18:00:14.895000,(-7 -6 -1 -2 -2 0 1 -3)
1969/12/31/18:00:14.895000,(-1 -4 -4 -6 -2 2 2 3)
1969/12/31/18:00:14.901000,(10 9 9 8 3 0 -4 -6)
1969/12/31/18:00:14.901000,(1 3 -6 -3 -1 -2 0 2)
1969/12/31/18:00:14.917000,(5 6 12 10 4 -3 -9 -12)
1969/12/31/18:00:14.917000,(0 1 -2 -1 -1 -1 0 -3)
1969/12/31/18:00:14.918000,(-4 -7 -6 0 -2 0 2 4)
1969/12/31/18:00:14.918000,(2 -1 -4 -3 -2 0 2 3)
1969/12/31/18:00:14.931000,(-2 -5 -3 0 -1 -3 1 4)
1969/12/31/18:00:14.931000,(0 0 -2 -2 -1 -2 -1 0)
1969/12/31/18:00:14.946000,(-2 -3 -2 1 0 -3 -2 -2)
1969/12/31/18:00:14.946000,(0 -2 2 0 0 0 -1 -1)
1969/12/31/18:00:14.954000,(-2 -2 4 0 -1 0 0 1)
1969/12/31/18:00:14.954000,(0 2 4 3 3 -1 -1 -1)
1969/12/31/18:00:14.962000,(-4 -3 0 -4 -2 -1 1 -1)
1969/12/31/18:00:14.962000,(3 1 2 4 0 -1 -2 -3)
1969/12/31/18:00:14.977000,(-2 -5 -6 -4 -3 -2 0 2)
1969/12/31/18:00:14.977000,(0 4 5 3 1 -1 1 0)
1969/12/31/18:00:14.979000,(-3 2 1 2 -1 -2 2 1)
1969/12/31/18:00:14.979000,(1 -1 -4 -3 -4 -3 -1 0)
1969/12/31/18:00:15.007000,(2 0 -2 -4 -1 0 -1 2)
1969/12/31/18:00:15.007000,(-3 -6 0 3 -1 -3 -1 0)
1969/12/31/18:00:15.008000,(2 -3 -12 -5 -1 -2 1 2)
1969/12/31/18:00:15.008000,(-4 -5 -2 3 2 1 2 0)
1969/12/31/18:00:15.014000,(1 6 6 0 0 0 3 4)
1969/12/31/18:00:15.014000,(2 3 -2 2 1 1 -2 1)
1969/12/31/18:00:15.022000,(-1 -3 -1 -2 -1 1 0 -1)
1969/12/31/18:00:15.022000,(0 -3 -7 -5 0 -1 0 -2)
1969/12/31/18:00:15.022000,(1 2 2 0 1 0 0 2)
1969/12/31/18:00:15.022000,(-3 -2 -2 -2 -1 -2 -1 0)
1969/12/31/18:00:15.024000,(-2 -2 -3 -1 0 0 -2 -2)
1969/12/31/18:00:15.024000,(0 -1 1 2 0 -2 -1 -2)
1969/12/31/18:00:15.035000,(0 -4 -3 -3 0 -1 -1 1)
1969/12/31/18:00:15.035000,(-2 -2 -2 -4 -2 -1 -1 -1)
1969/12/31/18:00:15.050000,(2 4 6 1 -1 -3 -1 0)
1969/12/31/18:00:15.050000,(0 0 -1 3 3 -1 1 0)
1969/12/31/18:00:15.058000,(-1 0 -1 -5 0 -1 -2 -1)
1969/12/31/18:00:15.058000,(0 -1 -1 3 1 -1 -2 -1)
1969/12/31/18:00:15.082000,(-3 -2 -3 -2 -1 -1 -1 -4)
1969/12/31/18:00:15.082000,(-3 -4 -6 -2 -2 2 0 -2)
1969/12/31/18:00:15.083000,(-2 0 0 -1 -2 -1 -1 0)
1969/12/31/18:00:15.083000,(1 4 2 1 1 6 -2 0)
1969/12/31/18:00:15.085000,(-1 0 -1 -2 -11 -17 4 0)
1969/12/31/18:00:15.085000,(-3 -4 -5 -13 -35 -24 -10 -2)
1969/12/31/18:00:15.095000,(-1 0 1 8 17 23 5 2)
1969/12/31/18:00:15.095000,(1 0 -2 2 9 4 10 1)
1969/12/31/18:00:15.120000,(0 -1 0 -5 -12 -11 -12 -1)
1969/12/31/18:00:15.120000,(-1 1 0 1 12 22 11 -2)
1969/12/31/18:00:15.120000,(-1 -7 -6 -6 -26 -23 -6 0)
1969/12/31/18:00:15.120000,(-1 0 -1 -5 -3 8 7 1)
1969/12/31/18:00:15.125000,(1 4 9 18 8 4 -8 -1)
1969/12/31/18:00:15.125000,(2 4 12 8 -3 -6 -7 1)
1969/12/31/18:00:15.142000,(-3 -3 -13 -6 -1 11 8 1)
1969/12/31/18:00:15.142000,(4 1 1 -2 -9 -28 -7 -2)
1969/12/31/18:00:15.144000,(-4 -7 -12 -8 5 1 2 1)
1969/12/31/18:00:15.144000,(-5 -5 2 7 12 3 -2 -1)
1969/12/31/18:00:15.155000,(-2 -3 0 -2 5 14 0 -6)
1969/12/31/18:00:15.155000,(0 0 -3 -2 -3 -20 -4 1)
1969/12/31/18:00:15.180000,(4 3 2 -5 -9 -7 -10 2)
1969/12/31/18:00:15.180000,(-1 -4 -2 -1 5 2 -8 1)
1969/12/31/18:00:15.180000,(3 2 0 -1 4 -2 11 2)
1969/12/31/18:00:15.180000,(-5 -4 -1 -1 -3 6 -2 -4)
1969/12/31/18:00:15.185000,(-2 0 -11 -14 -1 1 2 -6)
1969/12/31/18:00:15.185000,(-2 6 26 17 9 5 1 -3)
1969/12/31/18:00:15.201000,(-2 -2 -5 -4 3 17 -5 -4)
1969/12/31/18:00:15.201000,(-1 2 -1 3 -6 -16 -15 -6)
1969/12/31/18:00:15.215000,(-1 -2 9 3 0 -5 1 0)
1969/12/31/18:00:15.215000,(3 -2 -15 -6 -3 -4 3 0)
1969/12/31/18:00:15.224000,(4 -5 -8 -5 -11 -24 1 9)
1969/12/31/18:00:15.224000,(5 -3 -5 1 5 3 -2 0)
1969/12/31/18:00:15.226000,(3 -10 -18 -3 2 -16 10 13)
1969/12/31/18:00:15.226000,(4 -8 -26 -13 -12 -24 5 8)
1969/12/31/18:00:15.239000,(0 0 4 1 -2 9 -5 0)
1969/12/31/18:00:15.239000,(0 3 -2 -1 14 61 15 15)
1969/12/31/18:00:15.245000,(-4 2 5 -2 -1 -5 -12 -15)
1969/12/31/18:00:15.245000,(-2 5 4 -3 4 -8 10 7)
1969/12/31/18:00:15.262000,(-6 -2 1 -2 1 -33 -11 -16)
1969/12/31/18:00:15.262000,(-8 -3 -1 -8 -6 -18 0 -7)
1969/12/31/18:00:15.263000,(0 4 7 1 -2 3 3 -9)
1969/12/31/18:00:15.263000,(-4 1 9 -2 3 15 -6 -11)
1969/12/31/18:00:15.284000,(-10 4 7 1 1 5 -5 -13)
1969/12/31/18:00:15.284000,(-7 -5 6 -4 -4 13 7 -2)
1969/12/31/18:00:15.285000,(-8 -5 9 5 3 23 -3 -10)
1969/12/31/18:00:15.285000,(-1 -3 -5 -9 -9 3 -10 -14)
1969/12/31/18:00:15.298000,(-1 3 7 2 2 20 -1 3)
1969/12/31/18:00:15.298000,(-2 0 6 3 -3 -3 -13 -13)
1969/12/31/18:00:15.305000,(6 1 0 1 -4 2 -4 -3)
1969/12/31/18:00:15.305000,(-2 -9 -7 -1 -5 -2 -6 0)
1969/12/31/18:00:15.321000,(7 -3 -6 6 -4 -9 4 15)
1969/12/31/18:00:15.321000,(5 -7 -10 0 1 -7 6 21)
1969/12/31/18:00:15.329000,(-1 -3 -11 -4 1 -2 -1 4)
1969/12/31/18:00:15.329000,(1 2 9 5 4 4 7 6)
1969/12/31/18:00:15.344000,(-4 2 1 -2 -2 -7 -7 -6)
1969/12/31/18:00:15.344000,(3 -17 -15 -9 -5 -8 -9 -5)
1969/12/31/18:00:15.351000,(-4 3 2 4 1 4 7 1)
1969/12/31/18:00:15.351000,(0 8 -2 2 1 -2 -5 -7)
1969/12/31/18:00:15.358000,(-5 -9 -6 -1 1 -3 3 4)
1969/12/31/18:00:15.358000,(-14 -5 -5 -5 -2 -6 -5 -8)
1969/12/31/18:00:15.365000,(16 14 9 1 0 2 1 4)
1969/12/31/18:00:15.365000,(14 -3 -8 -5 -1 0 5 12)
1969/12/31/18:00:15.381000,(5 2 -1 -1 1 -6 0 1)
1969/12/31/18:00:15.381000,(13 9 2 2 1 -5 -3 2)
1969/12/31/18:00:15.382000,(-36 -22 -10 -5 -1 -1 3 -1)
1969/12/31/18:00:15.382000,(11 7 2 -1 1 -3 0 -3)
1969/12/31/18:00:15.403000,(-16 1 2 -2 2 1 -1 -3)
1969/12/31/18:00:15.403000,(8 -3 4 -4 -4 -7 -4 -4)
1969/12/31/18:00:15.404000,(31 14 4 -1 3 7 15 17)
1969/12/31/18:00:15.404000,(-53 -7 9 10 7 3 -10 -22)
1969/12/31/18:00:15.418000,(9 -28 -23 -18 -12 -10 -4 -3)
1969/12/31/18:00:15.418000,(4 9 4 5 5 3 5 0)
1969/12/31/18:00:15.426000,(51 17 1 1 1 1 -1 20)
1969/12/31/18:00:15.426000,(32 18 3 3 1 3 6 4)
1969/12/31/18:00:15.441000,(-38 -20 -4 -3 -6 -11 -16 -24)
1969/12/31/18:00:15.441000,(-44 -7 4 0 -1 -15 -3 -1)
1969/12/31/18:00:15.442000,(27 0 -6 -2 6 46 19 -9)
1969/12/31/18:00:15.442000,(-31 -14 -11 -8 -20 -75 -16 9)
1969/12/31/18:00:15.464000,(52 20 6 4 9 81 7 24)
1969/12/31/18:00:15.464000,(11 2 -6 -4 -7 -51 -12 -7)
1969/12/31/18:00:15.471000,(-37 -16 -8 -2 -3 3 0 -2)
1969/12/31/18:00:15.471000,(-13 -8 -4 -4 4 -3 -5 -13)
1969/12/31/18:00:15.486000,(6 17 16 8 7 -15 -4 4)
1969/12/31/18:00:15.487000,(19 10 2 -6 -2 23 19 19)
1969/12/31/18:00:15.487000,(-21 -2 12 6 5 10 -16 -40)
1969/12/31/18:00:15.487000,(-21 -16 -2 -4 4 46 -35 -48)
1969/12/31/18:00:15.501000,(7 10 3 -2 -7 -25 1 -6)
1969/12/31/18:00:15.501000,(16 8 1 2 -10 -36 -16 -1)
1969/12/31/18:00:15.502000,(33 32 7 5 0 -7 26 28)
1969/12/31/18:00:15.502000,(-70 -66 -25 -12 -9 35 26 36)
1969/12/31/18:00:15.524000,(-9 -3 -2 3 3 -25 -10 -34)
1969/12/31/18:00:15.524000,(-26 -27 -8 -7 -5 -32 -29 -25)
1969/12/31/18:00:15.524000,(-11 -8 -14 -18 -17 20 38 35)
1969/12/31/18:00:15.524000,(52 56 22 21 7 -24 -19 -32)
1969/12/31/18:00:15.538000,(-10 -17 -8 -7 -4 24 2 8)
1969/12/31/18:00:15.538000,(-10 13 13 13 2 -17 22 -47)
1969/12/31/18:00:15.546000,(-1 -10 -10 -7 -1 -19 -32 10)
1969/12/31/18:00:15.546000,(15 15 9 6 8 5 32 50)
1969/12/31/18:00:15.561000,(-3 -1 -5 -3 -4 -5 -6 8)
1969/12/31/18:00:15.561000,(-43 -41 -14 -5 1 25 -21 -55)
1969/12/31/18:00:15.561000,(12 9 9 8 4 -2 -2 -10)
1969/12/31/18:00:15.562000,(84 35 12 8 5 6 23 57)
1969/12/31/18:00:15.583000,(-91 -50 -15 -5 -3 -24 -23 -89)
1969/12/31/18:00:15.583000,(30 6 -12 -14 -7 51 29 51)
1969/12/31/18:00:15.584000,(19 1 6 5 2 -29 -6 54)
1969/12/31/18:00:15.584000,(-10 -14 -15 -14 -6 0 -41 -85)
1969/12/31/18:00:15.598000,(2 15 7 7 3 1 6 -16)
1969/12/31/18:00:15.598000,(5 15 14 14 15 40 24 -8)
1969/12/31/18:00:15.606000,(-41 -28 -17 -10 -19 -33 -10 4)
1969/12/31/18:00:15.606000,(11 -7 -1 -2 -6 -15 -1 -10)
1969/12/31/18:00:15.621000,(-12 -5 -5 -4 0 8 9 21)
1969/12/31/18:00:15.621000,(9 5 -3 -2 3 -7 -2 14)
1969/12/31/18:00:15.628000,(12 17 11 12 13 26 -10 1)
1969/12/31/18:00:15.628000,(5 5 1 3 4 25 14 10)
1969/12/31/18:00:15.643000,(54 6 0 -1 -4 20 33 39)
1969/12/31/18:00:15.643000,(-18 -8 -4 -2 -7 -47 -3 -12)
1969/12/31/18:00:15.644000,(-7 9 2 -3 -4 -42 -7 8)
1969/12/31/18:00:15.644000,(-16 -9 -9 -7 5 33 -9 -8)
1969/12/31/18:00:15.658000,(-33 -8 -3 -4 -5 -22 3 -29)
1969/12/31/18:00:15.658000,(43 29 20 11 3 0 -25 26)
1969/12/31/18:00:15.666000,(-32 -30 -10 -5 -4 3 3 -21)
1969/12/31/18:00:15.666000,(64 23 -5 -8 -6 0 13 -7)
1969/12/31/18:00:15.681000,(-8 3 7 4 0 -14 -2 14)
1969/12/31/18:00:15.681000,(-16 -17 -8 -7 -7 13 14 9)
1969/12/31/18:00:15.682000,(-20 -5 4 6 13 29 -12 -27)
1969/12/31/18:00:15.682000,(1 -1 4 3 7 24 -2 65)
1969/12/31/18:00:15.703000,(-10 5 -1 1 -3 -28 -19 -18)
1969/12/31/18:00:15.703000,(-3 -2 -5 -6 -10 -30 5 3)
1969/12/31/18:00:15.704000,(-12 -3 2 1 1 30 -23 -40)
1969/12/31/18:00:15.704000,(-10 -4 1 0 3 -10 22 11)
1969/12/31/18:00:15.718000,(53 23 8 4 -7 -12 4 59)
1969/12/31/18:00:15.718000,(32 5 0 5 5 16 50 74)
1969/12/31/18:00:15.719000,(-21 -8 -9 -10 -6 -39 -65 -59)
1969/12/31/18:00:15.719000,(-31 -16 2 2 -2 13 22 19)
1969/12/31/18:00:15.741000,(-10 -18 -15 -10 -4 11 -9 -27)
1969/12/31/18:00:15.741000,(38 30 12 4 4 14 1 19)
1969/12/31/18:00:15.749000,(16 3 -2 -2 -2 -2 17 22)
1969/12/31/18:00:15.749000,(-11 -13 -9 -5 -9 -25 -16 -34)
1969/12/31/18:00:15.764000,(19 20 17 17 20 30 22 42)
1969/12/31/18:00:15.764000,(-30 -25 -15 -7 0 21 -10 -22)
1969/12/31/18:00:15.764000,(19 40 20 12 10 -1 -7 27)
1969/12/31/18:00:15.764000,(-31 -39 -12 -11 -9 -21 -29 -60)
1969/12/31/18:00:15.778000,(44 24 9 4 -4 -18 13 51)
1969/12/31/18:00:15.779000,(-2 4 3 1 9 29 6 8)
1969/12/31/18:00:15.779000,(24 8 -1 -2 -10 -44 13 15)
1969/12/31/18:00:15.779000,(-35 -4 -5 -6 -12 -23 -14 -60)
1969/12/31/18:00:15.802000,(-28 -9 -7 -6 -1 7 -6 -32)
1969/12/31/18:00:15.802000,(-10 -4 3 -1 -6 -35 -23 -20)
1969/12/31/18:00:15.803000,(25 -7 -6 -3 1 21 4 -6)
1969/12/31/18:00:15.803000,(-31 -26 -9 -2 -4 3 11 9)
1969/12/31/18:00:15.816000,(23 14 1 2 4 -4 -15 13)
1969/12/31/18:00:15.816000,(38 9 8 7 7 17 0 59)
1969/12/31/18:00:15.817000,(-7 -11 -4 -2 2 15 14 -30)
1969/12/31/18:00:15.817000,(-22 2 5 5 3 -15 -9 18)
1969/12/31/18:00:15.832000,(8 4 2 1 -3 1 19 -3)
1969/12/31/18:00:15.832000,(3 7 -3 -6 -4 -1 -7 4)
1969/12/31/18:00:15.838000,(-28 -10 0 5 1 -6 24 -6)
1969/12/31/18:00:15.838000,(37 25 10 7 7 -5 -32 29)
1969/12/31/18:00:15.853000,(-1 -7 1 -1 3 15 0 2)
1969/12/31/18:00:15.853000,(-27 -12 -11 -8 -7 -5 -15 -55)
1969/12/31/18:00:15.860000,(9 5 1 -4 -1 -6 -6 -14)
1969/12/31/18:00:15.860000,(5 13 6 5 0 4 -7 -10)
1969/12/31/18:00:15.875000,(7 2 2 1 -1 -10 -1 10)
1969/12/31/18:00:15.875000,(-12 -23 -15 -9 -9 -17 -22 -67)
1969/12/31/18:00:15.883000,(-18 -2 1 2 -1 -3 -2 1)
1969/12/31/18:00:15.883000,(-4 7 1 -1 3 9 15 -6)
1969/12/31/18:00:15.899000,(-22 3 2 1 -2 -21 -18 -66)
1969/12/31/18:00:15.899000,(6 7 -3 -2 1 4 -19 -86)
1969/12/31/18:00:15.906000,(-10 -18 -5 -9 -10 -21 -9 3)
1969/12/31/18:00:15.906000,(33 24 16 12 10 21 27 39)
1969/12/31/18:00:15.913000,(43 14 -1 2 8 43 13 55)
1969/12/31/18:00:15.913000,(-51 -37 -11 -6 -2 -14 -11 -47)
1969/12/31/18:00:15.920000,(-21 -8 -10 -10 -13 6 -2 -45)
1969/12/31/18:00:15.920000,(9 5 4 4 10 24 7 -3)
1969/12/31/18:00:15.935000,(8 8 2 2 -2 -31 -32 3)
1969/12/31/18:00:15.935000,(-13 -7 -6 -4 1 31 -33 16)
1969/12/31/18:00:15.943000,(32 -3 -2 -2 -2 -13 29 66)
1969/12/31/18:00:15.943000,(1 -9 -12 -10 -11 -5 1 -20)
1969/12/31/18:00:15.952000,(-24 -13 -8 -6 -2 13 -15 -1)
1969/12/31/18:00:15.952000,(15 17 6 4 3 17 39 39)
1969/12/31/18:00:15.958000,(49 11 5 7 1 -16 -32 50)
1969/12/31/18:00:15.958000,(27 16 4 2 2 0 0 13)
1969/12/31/18:00:15.973000,(-38 -25 -12 -10 -10 -14 -10 -48)
1969/12/31/18:00:15.973000,(7 2 2 2 -1 18 42 46)
1969/12/31/18:00:15.980000,(-5 -5 -8 -6 16 81 -51 -13)
1969/12/31/18:00:15.980000,(81 25 8 5 -8 -57 73 100)
1969/12/31/18:00:15.995000,(-48 -20 0 2 2 -12 -24 -70)
1969/12/31/18:00:15.995000,(48 12 2 -1 -4 -31 -25 47)
1969/12/31/18:00:16.003000,(-55 -15 -6 -2 1 13 13 -35)
1969/12/31/18:00:16.003000,(-14 -21 -15 -12 -7 -6 -12 14)
1969/12/31/18:00:16.019000,(-24 -16 -15 -20 -16 46 49 -15)
1969/12/31/18:00:16.019000,(-17 0 0 -2 -7 -63 -15 6)
1969/12/31/18:00:16.026000,(14 14 6 12 17 7 30 18)
1969/12/31/18:00:16.026000,(7 12 8 2 -9 1 -5 75)
1969/12/31/18:00:16.041000,(4 1 7 7 10 -10 33 17)
1969/12/31/18:00:16.041000,(-2 6 1 11 54 73 4 -18)
1969/12/31/18:00:16.042000,(-11 -4 -9 -19 -52 -34 13 -15)
1969/12/31/18:00:16.042000,(-27 -8 -3 -2 -2 15 -14 -49)
1969/12/31/18:00:16.063000,(35 22 4 -2 -18 -14 0 53)
1969/12/31/18:00:16.063000,(22 -2 -4 -11 -9 -26 2 57)
1969/12/31/18:00:16.064000,(-44 -16 3 10 18 -10 11 -26)
1969/12/31/18:00:16.064000,(-65 -45 -25 -23 -29 -101 -71 -112)
1969/12/31/18:00:16.078000,(-1 13 12 25 48 29 5 27)
1969/12/31/18:00:16.078000,(-13 -11 -6 -1 -10 7 3 -26)
1969/12/31/18:00:16.079000,(25 10 -2 -14 -7 5 5 38)
1969/12/31/18:00:16.079000,(-3 -8 -3 -3 -5 6 16 14)
1969/12/31/18:00:16.093000,(-12 -17 -6 -2 13 21 -19 -42)
1969/12/31/18:00:16.093000,(-1 21 13 11 3 9 8 -26)
1969/12/31/18:00:16.100000,(-27 -7 -1 9 49 -34 -12 -46)
1969/12/31/18:00:16.100000,(-5 -10 1 -6 -71 -86 -11 15)
1969/12/31/18:00:16.115000,(17 17 4 5 20 35 -12 -40)
1969/12/31/18:00:16.115000,(-18 -33 -20 -15 -7 -2 11 35)
1969/12/31/18:00:16.123000,(24 9 5 3 9 17 18 -26)
1969/12/31/18:00:16.123000,(-2 10 -1 -2 19 30 -31 -38)
1969/12/31/18:00:16.138000,(1 -6 -7 -14 -26 -27 10 38)
1969/12/31/18:00:16.138000,(17 -1 -2 -3 -26 -18 -19 5)
1969/12/31/18:00:16.139000,(-8 0 -6 -11 -7 2 16 14)
1969/12/31/18:00:16.139000,(32 15 11 18 36 38 18 48)
1969/12/31/18:00:16.153000,(-33 -34 -14 0 49 34 -2 -58)
1969/12/31/18:00:16.153000,(20 27 21 23 4 20 28 -5)
1969/12/31/18:00:16.160000,(-12 -16 -7 -20 -93 -96 -47 -13)
1969/12/31/18:00:16.160000,(17 22 2 -10 -4 13 1 -48)
1969/12/31/18:00:16.175000,(7 -5 -7 -11 -19 -29 -30 -2)
1969/12/31/18:00:16.175000,(73 34 22 26 61 47 55 91)
1969/12/31/18:00:16.191000,(-46 -23 -12 -2 13 23 -7 -33)
1969/12/31/18:00:16.191000,(0 -10 7 15 16 10 -6 -9)
1969/12/31/18:00:16.200000,(2 8 7 12 20 9 7 24)
1969/12/31/18:00:16.200000,(-15 -15 -23 -27 -30 0 -4 -22)
1969/12/31/18:00:16.201000,(33 27 3 -3 -26 -14 -15 6)
1969/12/31/18:00:16.201000,(-34 -35 -6 -29 -45 5 20 -3)
1969/12/31/18:00:16.213000,(1 29 26 7 0 -8 4 43)
1969/12/31/18:00:16.213000,(-15 8 11 11 7 -2 -13 -24)
1969/12/31/18:00:16.220000,(2 13 4 17 44 26 12 -2)
1969/12/31/18:00:16.220000,(-15 -18 -23 -4 11 7 -2 -18)
1969/12/31/18:00:16.235000,(9 -14 -4 1 -12 -17 -3 29)
1969/12/31/18:00:16.235000,(-1 -3 -26 -21 -8 -9 -19 -34)
1969/12/31/18:00:16.243000,(-1 -64 -49 -15 10 35 22 6)
1969/12/31/18:00:16.243000,(9 61 69 32 8 -5 6 17)
1969/12/31/18:00:16.258000,(-22 5 22 -9 -61 -41 1 -20)
1969/12/31/18:00:16.259000,(24 28 8 -1 -9 -24 -30 29)
1969/12/31/18:00:16.259000,(7 -10 -21 2 35 24 -5 -36)
1969/12/31/18:00:16.259000,(23 -34 -54 -14 25 30 -4 6)
1969/12/31/18:00:16.273000,(-5 18 -5 -22 -31 -12 4 -3)
1969/12/31/18:00:16.273000,(-40 -10 29 0 -17 2 9 -30)
1969/12/31/18:00:16.280000,(-24 -26 1 7 -6 -9 0 0)
1969/12/31/18:00:16.280000,(0 49 56 22 13 4 10 46)
1969/12/31/18:00:16.295000,(31 -24 -63 -1 59 26 -6 -26)
1969/12/31/18:00:16.295000,(3 11 4 -11 -32 -13 -15 -7)
1969/12/31/18:00:16.303000,(6 43 33 1 -16 -15 16 46)
1969/12/31/18:00:16.303000,(36 1 -35 -8 33 25 -5 23)
1969/12/31/18:00:16.318000,(6 -61 -44 -12 35 13 -4 4)
1969/12/31/18:00:16.318000,(5 -7 6 -7 -70 -30 12 68)
1969/12/31/18:00:16.319000,(59 23 -10 -8 -37 -43 -52 5)
1969/12/31/18:00:16.319000,(-29 2 23 -9 -14 -18 21 13)
1969/12/31/18:00:16.333000,(11 29 22 -1 -26 -41 -15 -2)
1969/12/31/18:00:16.333000,(20 8 -33 4 64 42 23 5)
1969/12/31/18:00:16.340000,(-26 18 44 14 13 12 -7 -36)
1969/12/31/18:00:16.340000,(16 -13 30 27 34 21 -1 4)
1969/12/31/18:00:16.355000,(-15 -45 -46 -15 -41 -4 -2 -16)
1969/12/31/18:00:16.355000,(-17 0 11 -3 -5 -17 5 2)
1969/12/31/18:00:16.363000,(7 -31 -51 -2 50 30 14 22)
1969/12/31/18:00:16.363000,(2 58 -7 -11 34 43 -5 -27)
1969/12/31/18:00:16.378000,(-40 -2 76 2 -105 -96 -28 7)
1969/12/31/18:00:16.378000,(4 -34 -65 -23 -10 -21 -26 -50)
1969/12/31/18:00:16.379000,(10 -28 -11 -11 54 58 1 -37)
1969/12/31/18:00:16.379000,(-29 54 43 25 9 17 31 2)
1969/12/31/18:00:16.393000,(31 73 37 13 -10 -10 19 35)
1969/12/31/18:00:16.393000,(-49 -64 14 34 50 29 7 -12)
1969/12/31/18:00:16.400000,(5 -58 -91 -51 -64 -38 10 37)
1969/12/31/18:00:16.400000,(-7 25 54 22 4 26 29 10)
1969/12/31/18:00:16.415000,(2 11 -50 -10 5 -12 -33 -77)
1969/12/31/18:00:16.415000,(7 -27 -27 -32 3 36 17 37)
1969/12/31/18:00:16.423000,(-35 -3 35 22 14 8 -1 -50)
1969/12/31/18:00:16.423000,(-20 -37 -91 -43 -19 -36 -21 -25)
1969/12/31/18:00:16.438000,(-15 7 90 51 8 10 9 49)
1969/12/31/18:00:16.438000,(-25 -56 -107 -34 57 -7 -24 -49)
1969/12/31/18:00:16.446000,(-15 46 127 37 -98 -58 -8 32)
1969/12/31/18:00:16.446000,(-21 14 -38 -38 -47 -26 -29 -48)
1969/12/31/18:00:16.461000,(-24 -65 -95 -50 73 84 18 2)
1969/12/31/18:00:16.461000,(-1 26 96 99 60 35 -4 -52)
1969/12/31/18:00:16.462000,(20 82 -23 22 28 45 49 47)
1969/12/31/18:00:16.462000,(-13 -59 -84 -63 -49 -89 -47 -64)
1969/12/31/18:00:16.475000,(-2 3 44 -11 -100 -90 -2 45)
1969/12/31/18:00:16.475000,(-35 -65 -103 -55 12 11 -11 -32)
1969/12/31/18:00:16.483000,(5 57 36 11 22 -41 -47 -73)
1969/12/31/18:00:16.483000,(30 74 90 89 92 103 37 87)
1969/12/31/18:00:16.499000,(24 -89 -128 -57 1 11 20 15)
1969/12/31/18:00:16.499000,(12 60 83 13 -20 -4 16 35)
1969/12/31/18:00:16.499000,(-16 -3 -15 34 120 124 30 -10)
1969/12/31/18:00:16.499000,(0 -116 -128 -97 -118 -99 -35 -33)
1969/12/31/18:00:16.513000,(-56 127 127 92 43 -7 -29 -41)
1969/12/31/18:00:16.513000,(-11 -23 -44 1 1 -1 -12 -10)
1969/12/31/18:00:16.520000,(82 -100 -106 -50 25 36 8 45)
1969/12/31/18:00:16.520000,(-84 -31 -1 4 15 1 -1 -69)
1969/12/31/18:00:16.535000,(21 -11 -45 16 -5 4 2 -16)
1969/12/31/18:00:16.535000,(40 119 43 12 -20 -37 -27 -55)
1969/12/31/18:00:16.542000,(-26 -21 -11 2 38 62 54 -1)
1969/12/31/18:00:16.542000,(-15 40 82 32 -73 -83 -35 -15)
1969/12/31/18:00:16.558000,(-16 -75 -60 -40 -12 0 -27 -31)
1969/12/31/18:00:16.558000,(25 -3 -55 11 52 30 27 64)
1969/12/31/18:00:16.559000,(0 -28 -18 -39 -89 -65 -6 48)
1969/12/31/18:00:16.559000,(32 75 94 55 43 49 16 9)
1969/12/31/18:00:16.581000,(-55 35 -9 -5 -11 -2 -3 -63)
1969/12/31/18:00:16.581000,(-7 -74 -18 -6 -12 -8 -5 -2)
1969/12/31/18:00:16.589000,(0 -27 -52 -22 6 -1 -3 9)
1969/12/31/18:00:16.589000,(-14 -93 -82 -14 30 43 15 49)
1969/12/31/18:00:16.596000,(120 97 46 47 64 42 18 49)
1969/12/31/18:00:16.596000,(-4 13 29 -35 -110 -101 -18 13)
1969/12/31/18:00:16.603000,(-24 59 41 -20 -74 -95 -53 -72)
1969/12/31/18:00:16.603000,(-36 -74 -58 -10 17 10 -10 -50)
1969/12/31/18:00:16.618000,(48 -51 -80 -1 112 108 49 64)
1969/12/31/18:00:16.619000,(-27 -17 -5 -37 -70 -30 -21 15)
1969/12/31/18:00:16.619000,(-46 -7 11 -17 -23 -54 -60 -87)
1969/12/31/18:00:16.619000,(4 5 -19 17 36 25 23 43)
1969/12/31/18:00:16.641000,(-1 -92 -109 -37 62 49 14 -43)
1969/12/31/18:00:16.641000,(-24 77 111 45 -24 -11 -10 -35)
1969/12/31/18:00:16.642000,(-15 -44 -35 -9 -77 -61 3 51)
1969/12/31/18:00:16.642000,(59 33 -21 -5 56 36 16 -5)
1969/12/31/18:00:16.655000,(4 -33 38 10 -47 -32 -25 -23)
1969/12/31/18:00:16.655000,(-70 -73 -103 -63 -11 3 -17 -44)
1969/12/31/18:00:16.663000,(-1 127 127 85 50 29 -8 -37)
1969/12/31/18:00:16.663000,(49 -14 -60 20 72 67 21 39)
1969/12/31/18:00:16.679000,(-18 -12 -6 -35 -104 -58 14 30)
1969/12/31/18:00:16.679000,(81 28 2 15 50 51 22 57)
1969/12/31/18:00:16.679000,(-47 -89 -27 16 68 26 11 23)
1969/12/31/18:00:16.679000,(32 -10 -6 -21 -123 -92 -19 1)
1969/12/31/18:00:16.701000,(-46 127 121 41 17 -16 10 -5)
1969/12/31/18:00:16.701000,(-8 -54 -23 21 49 59 -23 -83)
1969/12/31/18:00:16.702000,(34 0 -61 -21 -28 -7 0 68)
1969/12/31/18:00:16.702000,(-24 41 65 4 10 13 12 -32)
1969/12/31/18:00:16.724000,(3 -34 -38 -12 21 20 10 0)
1969/12/31/18:00:16.724000,(-38 -66 -73 -46 -32 -20 -11 -24)
1969/12/31/18:00:16.732000,(67 108 108 90 26 -3 33 91)
1969/12/31/18:00:16.732000,(-58 -77 -29 -16 -29 -38 -25 18)
1969/12/31/18:00:16.747000,(63 32 6 2 -25 2 21 31)
1969/12/31/18:00:16.747000,(2 16 -6 9 41 8 -2 -2)
1969/12/31/18:00:16.747000,(5 -117 -118 -73 -49 -10 -8 -3)
1969/12/31/18:00:16.747000,(-9 35 71 21 -3 3 7 37)
1969/12/31/18:00:16.760000,(24 -5 -18 18 36 4 -8 -2)
1969/12/31/18:00:16.760000,(32 34 17 20 65 40 30 37)
1969/12/31/18:00:16.768000,(-8 16 -11 -40 -64 9 12 0)
1969/12/31/18:00:16.768000,(10 33 42 19 -1 -29 5 14)
1969/12/31/18:00:16.783000,(37 -53 -60 -16 47 68 16 56)
1969/12/31/18:00:16.783000,(-76 -90 -52 -25 -86 -74 -38 -62)
1969/12/31/18:00:16.784000,(4 101 69 7 -17 -40 -51 -55)
1969/12/31/18:00:16.784000,(10 1 -8 17 79 62 12 -16)
1969/12/31/18:00:16.806000,(31 -39 -30 -17 -21 -4 18 84)
1969/12/31/18:00:16.806000,(8 16 59 2 -79 -51 30 23)
1969/12/31/18:00:16.807000,(-38 -51 -19 -3 32 30 -1 -1)
1969/12/31/18:00:16.807000,(-41 -48 -14 -11 -26 -17 -24 -62)
1969/12/31/18:00:16.820000,(40 71 33 9 21 1 -10 11)
1969/12/31/18:00:16.820000,(11 43 28 19 28 32 31 23)
1969/12/31/18:00:16.828000,(-12 -26 -19 8 32 1 6 -9)
1969/12/31/18:00:16.828000,(8 -65 -112 -46 22 40 -1 -25)
1969/12/31/18:00:16.852000,(-61 -46 27 3 -14 -21 -5 -26)
1969/12/31/18:00:16.852000,(6 122 74 34 13 -24 -35 -23)
1969/12/31/18:00:16.859000,(-25 -19 3 -7 -44 -10 -7 -62)
1969/12/31/18:00:16.859000,(59 -59 -51 -3 10 37 34 73)
1969/12/31/18:00:16.874000,(-9 22 15 -13 -41 -65 -43 -16)
1969/12/31/18:00:16.874000,(10 -79 -72 -21 37 26 14 53)
1969/12/31/18:00:16.875000,(0 27 40 22 14 9 6 -20)
1969/12/31/18:00:16.875000,(21 42 -3 -3 -4 -2 -20 -2)
1969/12/31/18:00:16.891000,(-38 -6 -2 9 23 15 -1 -34)
1969/12/31/18:00:16.891000,(65 12 -22 -27 -44 -15 11 32)
1969/12/31/18:00:16.891000,(-45 7 19 8 26 -4 -41 -51)
1969/12/31/18:00:16.891000,(-19 -26 -7 -5 30 16 9 10)
1969/12/31/18:00:16.903000,(19 -6 -28 18 38 29 14 5)
1969/12/31/18:00:16.903000,(53 78 40 -26 -93 -108 -2 47)
1969/12/31/18:00:16.904000,(-27 -77 -42 -26 24 -4 -8 -22)
1969/12/31/18:00:16.904000,(14 111 80 24 17 6 11 -11)
1969/12/31/18:00:16.927000,(-30 -38 -13 -17 -4 -20 -53 -66)
1969/12/31/18:00:16.927000,(-16 -35 -14 34 56 79 44 6)
1969/12/31/18:00:16.927000,(8 -34 -40 -16 -7 -5 -6 2)
1969/12/31/18:00:16.927000,(-13 88 92 35 -15 -42 -3 -15)
1969/12/31/18:00:16.940000,(-45 7 22 -24 -55 3 -24 -59)
1969/12/31/18:00:16.940000,(25 -3 -27 -7 -25 -23 5 32)
1969/12/31/18:00:16.948000,(20 6 -3 -8 7 18 15 27)
1969/12/31/18:00:16.948000,(23 -128 -128 -39 0 -4 -11 7)
1969/12/31/18:00:16.963000,(-63 78 97 45 3 -1 8 -26)
1969/12/31/18:00:16.963000,(-21 22 41 13 0 9 -22 -38)
1969/12/31/18:00:16.964000,(35 8 -14 11 26 17 26 45)
1969/12/31/18:00:16.964000,(45 -10 -28 -11 15 14 -1 30)
1969/12/31/18:00:16.986000,(38 -8 -53 -22 -19 4 13 17)
1969/12/31/18:00:16.986000,(-97 -42 25 12 2 -17 -22 -61)
1969/12/31/18:00:16.987000,(17 42 35 16 8 33 20 29)
1969/12/31/18:00:16.987000,(2 -20 -17 -7 -27 -18 -15 12)
1969/12/31/18:00:17.000000,(6 -33 -10 5 51 41 49 32)
1969/12/31/18:00:17.000000,(-4 7 -40 10 70 11 -6 -24)
1969/12/31/18:00:17.009000,(-19 -9 -28 -80 -94 -64 -21 -32)
1969/12/31/18:00:17.009000,(-24 -20 -14 -35 -10 -28 0 7)
1969/12/31/18:00:17.023000,(12 -21 -29 -4 33 5 4 7)
1969/12/31/18:00:17.023000,(-12 31 52 42 76 56 8 -2)
1969/12/31/18:00:17.024000,(56 17 0 31 11 20 17 49)
1969/12/31/18:00:17.024000,(-52 9 29 -17 -65 -40 -25 -62)
1969/12/31/18:00:17.047000,(-3 -24 -48 -22 -6 -15 -2 5)
1969/12/31/18:00:17.047000,(51 -38 -80 -25 -16 -6 -3 19)
1969/12/31/18:00:17.047000,(12 39 67 37 41 37 28 33)
1969/12/31/18:00:17.048000,(-42 86 104 64 35 29 1 -61)
1969/12/31/18:00:17.060000,(-36 -63 -34 -33 -71 -48 -17 -11)
1969/12/31/18:00:17.060000,(-19 50 27 6 -5 -10 -15 -45)
1969/12/31/18:00:17.068000,(35 4 -19 0 -12 -17 18 36)
1969/12/31/18:00:17.068000,(35 -67 -77 -13 14 36 -18 4)
1969/12/31/18:00:17.083000,(-84 -66 -1 -3 17 -36 -36 -64)
1969/12/31/18:00:17.083000,(20 40 36 5 -17 22 -3 80)
1969/12/31/18:00:17.084000,(26 -16 -42 15 35 5 -12 -21)
1969/12/31/18:00:17.084000,(37 23 47 14 24 19 9 33)
1969/12/31/18:00:17.107000,(21 125 62 10 -61 -15 -1 -25)
1969/12/31/18:00:17.107000,(-23 -88 -73 -50 -57 -39 0 8)
1969/12/31/18:00:17.108000,(1 -103 -80 -37 -13 -24 -8 4)
1969/12/31/18:00:17.108000,(-11 4 20 18 8 -12 -13 -19)
1969/12/31/18:00:17.129000,(8 73 78 47 55 32 -28 -14)
1969/12/31/18:00:17.129000,(21 -37 -37 16 71 47 21 6)
1969/12/31/18:00:17.144000,(-14 13 35 -10 -56 -51 -4 6)
1969/12/31/18:00:17.144000,(-25 68 8 -9 -14 -1 26 17)
1969/12/31/18:00:17.151000,(-31 -114 -97 -32 0 -15 -10 -11)
1969/12/31/18:00:17.151000,(-38 -20 20 3 -11 -3 -16 -67)
1969/12/31/18:00:17.153000,(-14 -99 -82 -9 53 34 -4 -7)
1969/12/31/18:00:17.153000,(61 -10 -50 -31 -23 -11 11 50)
1969/12/31/18:00:17.166000,(11 95 85 19 -18 -16 -13 -12)
1969/12/31/18:00:17.166000,(21 -17 0 17 37 30 13 4)
1969/12/31/18:00:17.173000,(-6 16 -2 1 2 32 21 10)
1969/12/31/18:00:17.173000,(-44 8 29 9 -15 -33 -5 -52)
1969/12/31/18:00:17.197000,(7 55 26 0 -22 -6 -27 -1)
1969/12/31/18:00:17.197000,(0 -81 -98 -36 30 25 -11 -18)
1969/12/31/18:00:17.198000,(-38 54 119 57 -15 -17 21 4)
1969/12/31/18:00:17.198000,(25 6 -26 -36 -51 -10 -2 20)
1969/12/31/18:00:17.203000,(-17 1 -16 15 46 13 20 2)
1969/12/31/18:00:17.203000,(24 46 31 -9 -34 -35 -8 26)
1969/12/31/18:00:17.210000,(19 27 8 7 27 30 -5 0)
1969/12/31/18:00:17.210000,(-78 -100 -47 3 25 21 8 -27)
1969/12/31/18:00:17.226000,(95 -40 -91 -25 -5 4 40 99)
1969/12/31/18:00:17.227000,(-80 2 84 18 -16 -16 -15 -59)
1969/12/31/18:00:17.228000,(3 45 -22 -19 -27 -19 -38 -67)
1969/12/31/18:00:17.228000,(22 -1 -19 -2 1 -1 9 16)
1969/12/31/18:00:17.249000,(22 -10 -5 -19 -1 -2 2 15)
1969/12/31/18:00:17.249000,(35 41 3 8 12 24 12 20)
1969/12/31/18:00:17.251000,(-14 -48 -2 4 -16 -27 2 23)
1969/12/31/18:00:17.251000,(-5 45 13 0 -21 -23 -26 -16)
1969/12/31/18:00:17.263000,(3 -5 43 15 16 24 13 3)
1969/12/31/18:00:17.263000,(-40 -42 -18 -11 12 22 4 -10)
1969/12/31/18:00:17.270000,(44 19 -13 7 32 -5 17 62)
1969/12/31/18:00:17.270000,(24 -6 -34 14 -6 4 -10 -15)
1969/12/31/18:00:17.286000,(-71 44 85 -13 -100 -71 -38 -84)
1969/12/31/18:00:17.286000,(8 51 42 16 3 -9 -21 1)
1969/12/31/18:00:17.294000,(-48 -109 -92 -43 33 41 -4 -40)
1969/12/31/18:00:17.294000,(4 28 74 36 34 15 28 28)
1969/12/31/18:00:17.310000,(57 3 -33 27 69 38 3 15)
1969/12/31/18:00:17.310000,(-25 27 51 -2 -57 8 -12 -38)
1969/12/31/18:00:17.311000,(-27 -23 -34 -28 -58 -69 -15 -38)
1969/12/31/18:00:17.311000,(-15 -38 -34 -47 -46 -20 1 -5)
1969/12/31/18:00:17.324000,(15 8 -1 6 9 11 18 19)
1969/12/31/18:00:17.324000,(21 -64 -68 8 79 16 22 38)
1969/12/31/18:00:17.330000,(2 50 49 20 -2 21 -9 -3)
1969/12/31/18:00:17.330000,(-2 56 59 16 2 5 -1 -1)
1969/12/31/18:00:17.346000,(22 34 -3 7 -1 0 5 11)
1969/12/31/18:00:17.346000,(22 17 10 0 -4 -8 9 20)
1969/12/31/18:00:17.348000,(25 -17 -35 -8 7 6 -6 3)
1969/12/31/18:00:17.348000,(-86 -100 -70 -22 -14 -16 -30 -26)
1969/12/31/18:00:17.369000,(-33 45 60 24 42 35 22 8)
1969/12/31/18:00:17.369000,(18 38 0 -7 -68 -75 -19 -6)
1969/12/31/18:00:17.370000,(2 29 8 -5 1 1 -17 -26)
1969/12/31/18:00:17.370000,(19 -46 -39 -22 9 8 -17 -12)
1969/12/31/18:00:17.391000,(-53 -128 -109 -34 -28 -26 -2 -16)
1969/12/31/18:00:17.391000,(20 83 53 31 32 26 25 30)
1969/12/31/18:00:17.393000,(42 52 49 17 29 25 5 25)
1969/12/31/18:00:17.393000,(-12 15 31 11 -38 -41 -18 -34)
1969/12/31/18:00:17.408000,(8 -49 -53 -33 -56 -38 -13 3)
1969/12/31/18:00:17.408000,(-32 42 47 -1 -43 -30 -1 -34)
1969/12/31/18:00:17.409000,(5 -36 -49 0 41 32 23 48)
1969/12/31/18:00:17.409000,(5 43 56 29 67 35 7 -23)
1969/12/31/18:00:17.429000,(-12 -10 -1 4 8 10 -3 -8)
1969/12/31/18:00:17.429000,(2 -36 -40 -19 -30 -21 -3 6)
1969/12/31/18:00:17.430000,(-2 24 26 30 23 22 14 23)
1969/12/31/18:00:17.430000,(5 26 43 19 20 14 17 32)
1969/12/31/18:00:17.443000,(6 8 22 8 -14 -14 -21 -22)
1969/12/31/18:00:17.443000,(12 -27 -53 -25 1 5 3 30)
1969/12/31/18:00:17.451000,(-68 -80 -33 -16 33 28 2 -27)
1969/12/31/18:00:17.451000,(38 51 6 16 3 6 39 40)
1969/12/31/18:00:17.466000,(-3 -11 -30 -27 -68 -55 -28 1)
1969/12/31/18:00:17.466000,(21 -4 -41 -36 -42 -11 -18 -7)
1969/12/31/18:00:17.468000,(-16 78 103 51 35 16 10 -15)
1969/12/31/18:00:17.468000,(12 -9 -5 -18 -64 -54 -6 1)
1969/12/31/18:00:17.489000,(1 -12 -9 13 63 52 43 33)
1969/12/31/18:00:17.489000,(8 -41 -37 1 15 8 -2 11)
1969/12/31/18:00:17.490000,(-28 -66 -47 -32 -26 -19 -25 -46)
1969/12/31/18:00:17.490000,(61 94 57 23 34 32 13 37)
1969/12/31/18:00:17.503000,(58 70 80 42 9 6 13 60)
1969/12/31/18:00:17.503000,(-69 -60 2 -5 19 5 -18 -58)
1969/12/31/18:00:17.510000,(15 -4 -19 -11 -18 -23 -8 18)
1969/12/31/18:00:17.510000,(-36 -80 -67 -36 -12 19 -2 -21)
1969/12/31/18:00:17.527000,(9 -25 -48 -52 -52 -21 4 -19)
1969/12/31/18:00:17.527000,(-2 17 30 31 37 -4 -53 -13)
1969/12/31/18:00:17.528000,(-6 31 18 24 46 27 16 6)
1969/12/31/18:00:17.528000,(-22 -26 -20 9 -11 -21 -24 -25)
1969/12/31/18:00:17.548000,(34 -15 -39 -20 -25 6 9 12)
1969/12/31/18:00:17.549000,(-6 18 34 2 9 7 23 -5)
1969/12/31/18:00:17.564000,(-29 17 7 -3 -11 -7 -14 -42)
1969/12/31/18:00:17.564000,(21 -29 -27 -8 10 -1 -15 10)
1969/12/31/18:00:17.571000,(2 -26 -5 2 15 3 0 3)
1969/12/31/18:00:17.571000,(-30 -3 -28 -3 -6 -6 5 -19)
1969/12/31/18:00:17.573000,(27 50 42 2 -24 -8 15 51)
1969/12/31/18:00:17.573000,(-28 52 68 18 5 -1 -11 -47)
1969/12/31/18:00:17.586000,(-43 -56 -43 -10 9 3 -19 -27)
1969/12/31/18:00:17.587000,(23 -14 -14 5 16 18 32 42)
1969/12/31/18:00:17.588000,(11 -26 -30 -27 -71 -37 -11 -35)
1969/12/31/18:00:17.588000,(-85 -46 -44 -34 10 -25 -52 -71)
1969/12/31/18:00:17.609000,(8 18 19 4 4 12 -1 0)
1969/12/31/18:00:17.609000,(17 15 7 -32 -46 -25 -7 15)
1969/12/31/18:00:17.610000,(-13 -5 1 28 37 5 7 1)
1969/12/31/18:00:17.610000,(17 -37 -26 9 17 8 10 20)
1969/12/31/18:00:17.623000,(29 64 27 27 16 6 5 10)
1969/12/31/18:00:17.623000,(15 -25 11 4 4 15 12 21)
1969/12/31/18:00:17.632000,(63 24 -10 -22 -9 16 -1 21)
1969/12/31/18:00:17.632000,(-79 -58 -14 -12 -30 -39 -39 -74)
1969/12/31/18:00:17.647000,(11 9 -2 -4 13 5 -6 -5)
1969/12/31/18:00:17.647000,(6 -2 -3 6 14 7 5 11)
1969/12/31/18:00:17.648000,(16 -17 -29 -21 -32 -13 26 24)
1969/12/31/18:00:17.648000,(24 -1 -17 -4 2 14 -23 20)
1969/12/31/18:00:17.669000,(-20 6 23 5 0 -8 2 -21)
1969/12/31/18:00:17.669000,(-24 -10 -11 10 31 14 1 -15)
1969/12/31/18:00:17.670000,(-38 -5 17 5 -22 -25 -19 -32)
1969/12/31/18:00:17.670000,(38 20 -4 -11 -12 8 17 28)
1969/12/31/18:00:17.683000,(-24 -1 -3 -32 -13 10 -1 11)
1969/12/31/18:00:17.683000,(37 21 12 24 12 -24 0 19)
1969/12/31/18:00:17.698000,(-55 -54 -12 7 -4 -1 -12 -15)
1969/12/31/18:00:17.698000,(38 29 18 37 25 11 18 37)
1969/12/31/18:00:17.706000,(-5 -13 -18 -15 -16 -6 -16 -17)
1969/12/31/18:00:17.706000,(-14 -4 8 11 8 9 5 -5)
1969/12/31/18:00:17.708000,(28 35 12 -24 -17 -8 -2 -7)
1969/12/31/18:00:17.708000,(12 10 6 28 21 12 8 38)
1969/12/31/18:00:17.729000,(-11 -14 10 17 16 -5 25 14)
1969/12/31/18:00:17.729000,(-4 9 -2 -9 -8 11 -14 -25)
1969/12/31/18:00:17.730000,(-7 1 -1 -11 -9 8 -7 3)
1969/12/31/18:00:17.731000,(5 4 1 -12 -7 -11 7 12)
1969/12/31/18:00:17.742000,(-3 0 2 10 8 -8 6 -7)
1969/12/31/18:00:17.743000,(29 8 4 2 -11 -5 7 31)
1969/12/31/18:00:17.752000,(21 -4 -10 -2 -1 7 8 -3)
1969/12/31/18:00:17.752000,(-24 4 -2 -16 -6 3 1 5)
1969/12/31/18:00:17.766000,(-11 -14 4 6 5 -19 -38 -13)
1969/12/31/18:00:17.766000,(24 -5 -10 -9 -11 -7 -1 -4)
1969/12/31/18:00:17.768000,(-33 -2 6 15 13 0 -3 -2)
1969/12/31/18:00:17.768000,(70 27 -4 -21 -5 5 17 22)
1969/12/31/18:00:17.789000,(-9 8 10 8 -4 4 -10 -19)
1969/12/31/18:00:17.789000,(-17 -4 -5 -30 -19 -13 -11 1)
1969/12/31/18:00:17.790000,(9 1 5 48 41 37 33 18)
1969/12/31/18:00:17.790000,(10 -20 -13 -3 2 19 -1 -9)
1969/12/31/18:00:17.803000,(-24 -6 -1 9 -6 -43 -33 -10)
1969/12/31/18:00:17.803000,(11 17 1 -9 -3 -4 -18 -30)
1969/12/31/18:00:17.812000,(32 12 6 -6 0 5 37 52)
1969/12/31/18:00:17.812000,(9 -11 -9 -18 -18 -15 -5 -13)
1969/12/31/18:00:17.826000,(1 -2 -4 -8 -5 4 11 14)
1969/12/31/18:00:17.826000,(-53 -53 -15 -3 9 27 -6 -10)
1969/12/31/18:00:17.840000,(2 17 11 1 -1 -19 -6 7)
1969/12/31/18:00:17.840000,(98 54 17 16 10 25 23 79)
1969/12/31/18:00:17.849000,(-19 -18 -16 -11 -1 2 -5 -26)
1969/12/31/18:00:17.849000,(-68 -20 -5 0 -6 4 -10 -57)
1969/12/31/18:00:17.855000,(-25 -12 -5 -7 -10 -55 -11 18)
1969/12/31/18:00:17.855000,(-31 -10 -2 -4 6 68 19 -12)
1969/12/31/18:00:17.862000,(18 15 13 0 2 55 36 15)
1969/12/31/18:00:17.863000,(102 67 26 35 18 -43 12 88)
1969/12/31/18:00:17.871000,(-42 -34 -22 -7 -10 -17 -21 -77)
1969/12/31/18:00:17.871000,(-40 -25 -1 1 1 -20 3 40)
1969/12/31/18:00:17.886000,(-30 -19 -11 -6 -4 -19 -18 -13)
1969/12/31/18:00:17.886000,(-25 -1 2 -1 2 34 14 -11)
1969/12/31/18:00:17.888000,(59 45 25 13 11 17 12 48)
1969/12/31/18:00:17.888000,(-54 -38 -27 -16 -20 -38 -30 -57)
1969/12/31/18:00:17.909000,(15 -11 -4 3 12 33 17 37)
1969/12/31/18:00:17.909000,(-26 -33 -15 -17 -27 -41 -25 -69)
1969/12/31/18:00:17.911000,(-15 -13 -14 -14 -8 -6 -32 -33)
1969/12/31/18:00:17.911000,(16 13 12 7 1 -3 5 2)
1969/12/31/18:00:17.923000,(-75 -13 -6 -5 -6 -19 -28 -101)
1969/12/31/18:00:17.923000,(24 1 0 4 7 28 44 106)
1969/12/31/18:00:17.938000,(-35 -13 -7 -13 -27 -46 -31 -27)
1969/12/31/18:00:17.938000,(7 -11 1 5 1 -28 2 57)
1969/12/31/18:00:17.946000,(-2 16 8 7 16 45 8 -19)
1969/12/31/18:00:17.946000,(31 27 5 2 -9 -25 -11 1)
1969/12/31/18:00:17.960000,(-12 3 -4 -3 0 20 -3 -31)
1969/12/31/18:00:17.960000,(14 14 3 -2 -2 -6 9 25)
1969/12/31/18:00:17.968000,(43 5 -3 0 4 -10 4 17)
1969/12/31/18:00:17.968000,(-49 -14 -2 -1 1 12 3 -19)
1969/12/31/18:00:17.983000,(11 -4 2 0 1 13 -7 -5)
1969/12/31/18:00:17.983000,(-18 -1 1 0 -4 -11 -10 -37)
1969/12/31/18:00:17.984000,(22 9 4 6 2 -3 3 16)
1969/12/31/18:00:17.984000,(-5 -9 -10 -9 -6 5 -1 -27)
1969/12/31/18:00:17.992000,(7 -1 4 3 4 -6 -4 18)
1969/12/31/18:00:17.992000,(31 20 0 -3 -5 0 1 -6)
1969/12/31/18:00:18.006000,(-15 -3 8 9 5 0 6 11)
1969/12/31/18:00:18.006000,(-18 -2 -10 -1 -2 -5 1 3)
1969/12/31/18:00:18.013000,(33 16 4 0 3 10 5 23)
1969/12/31/18:00:18.013000,(-28 -20 -4 -3 -2 2 -3 -29)
1969/12/31/18:00:18.029000,(2 -10 -8 -9 -4 -6 1 18)
1969/12/31/18:00:18.029000,(21 27 11 11 2 -2 3 6)
1969/12/31/18:00:18.031000,(3 8 13 6 4 6 0 -3)
1969/12/31/18:00:18.031000,(-29 -16 -3 2 -1 3 -8 -30)
1969/12/31/18:00:18.051000,(33 17 -3 -1 1 -9 2 20)
1969/12/31/18:00:18.051000,(-1 -17 -1 -3 2 3 7 4)
1969/12/31/18:00:18.053000,(-5 7 -20 -9 -3 -1 -3 -6)
1969/12/31/18:00:18.053000,(11 11 17 -2 -2 -3 3 7)
1969/12/31/18:00:18.066000,(4 -19 -20 6 2 4 10 11)
1969/12/31/18:00:18.066000,(-5 29 35 8 -4 -4 -9 -16)
1969/12/31/18:00:18.073000,(-8 -14 -13 -10 -4 2 -5 0)
1969/12/31/18:00:18.073000,(1 -26 -39 -17 -4 -5 5 0)
1969/12/31/18:00:18.089000,(1 27 38 17 6 4 16 14)
1969/12/31/18:00:18.089000,(-6 -39 -29 -10 0 0 -32 -14)
1969/12/31/18:00:18.091000,(10 11 -12 -9 -4 -2 28 2)
1969/12/31/18:00:18.091000,(-20 53 75 36 11 -1 -23 -28)
1969/12/31/18:00:18.111000,(2 -23 -35 -21 -10 -6 -4 1)
1969/12/31/18:00:18.111000,(15 -1 -14 -5 -3 -2 10 15)
1969/12/31/18:00:18.125000,(-13 -41 -15 -11 -1 4 -3 4)
1969/12/31/18:00:18.125000,(3 6 -11 0 5 9 21 3)
1969/12/31/18:00:18.134000,(4 10 4 -1 -5 -7 -34 -2)
1969/12/31/18:00:18.134000,(-19 -27 2 5 2 -2 4 -14)
1969/12/31/18:00:18.136000,(8 11 -22 -9 -2 4 -7 -2)
1969/12/31/18:00:18.136000,(1 2 2 4 0 -1 12 7)
1969/12/31/18:00:18.149000,(-1 -2 10 3 0 -5 -2 -2)
1969/12/31/18:00:18.149000,(0 -8 -17 -6 -4 -2 -6 -4)
1969/12/31/18:00:18.151000,(-9 -21 -8 -4 -2 -3 -12 -9)
1969/12/31/18:00:18.151000,(-2 1 4 7 3 5 11 6)
1969/12/31/18:00:18.171000,(1 0 -3 -6 -3 -4 2 4)
1969/12/31/18:00:18.171000,(-5 -21 -18 -8 -4 -4 -1 -3)
1969/12/31/18:00:18.173000,(8 31 18 3 0 1 5 9)
1969/12/31/18:00:18.173000,(-7 3 24 9 2 -4 -14 -11)
1969/12/31/18:00:18.186000,(-13 -31 -26 -11 -3 -3 -5 -4)
1969/12/31/18:00:18.186000,(0 45 29 7 3 4 11 -2)
1969/12/31/18:00:18.193000,(9 12 9 10 3 0 0 9)
1969/12/31/18:00:18.193000,(-3 -25 -30 -17 -6 -4 -5 0)
1969/12/31/18:00:18.209000,(0 14 19 8 0 1 12 -1)
1969/12/31/18:00:18.209000,(6 -22 -22 -8 -2 -2 -21 0)
1969/12/31/18:00:18.210000,(-5 21 20 4 1 -1 -6 -10)
1969/12/31/18:00:18.210000,(-20 -22 -9 -5 -5 0 -3 -7)
1969/12/31/18:00:18.238000,(6 18 6 3 0 -4 -7 -5)
1969/12/31/18:00:18.238000,(-10 -10 -10 -1 1 5 16 2)
1969/12/31/18:00:18.255000,(5 -1 18 8 1 1 -4 5)
1969/12/31/18:00:18.255000,(-2 -31 -46 -27 -12 -7 -8 -7)
1969/12/31/18:00:18.256000,(4 27 9 -1 -3 0 2 4)
1969/12/31/18:00:18.256000,(6 23 14 -3 0 -1 -1 -2)
1969/12/31/18:00:18.258000,(-4 -34 -1 8 2 0 -4 -2)
1969/12/31/18:00:18.258000,(10 14 -2 5 5 6 11 13)
1969/12/31/18:00:18.269000,(8 14 32 12 3 1 0 -3)
1969/12/31/18:00:18.269000,(-12 10 -8 -17 -8 -1 -1 -5)
1969/12/31/18:00:18.270000,(-12 -85 -110 -85 -21 -12 -7 -6)
1969/12/31/18:00:18.270000,(13 76 89 86 23 6 -6 -2)
1969/12/31/18:00:18.291000,(30 66 40 38 13 7 7 10)
1969/12/31/18:00:18.291000,(-2 10 3 7 0 -5 2 -1)
1969/12/31/18:00:18.293000,(-21 -15 -12 -12 -6 -5 -1 0)
1969/12/31/18:00:18.293000,(1 -15 -45 -33 -7 -4 -3 -4)
1969/12/31/18:00:18.305000,(-12 -24 -29 -17 -6 -5 -8 -9)
1969/12/31/18:00:18.305000,(-22 -94 -65 -34 -12 -4 4 2)
1969/12/31/18:00:18.314000,(19 96 89 44 11 0 -1 0)
1969/12/31/18:00:18.314000,(0 -21 -12 -4 -2 -4 2 7)
1969/12/31/18:00:18.329000,(0 -8 -7 0 0 -3 8 8)
1969/12/31/18:00:18.329000,(5 6 8 -1 3 -4 -2 1)
1969/12/31/18:00:18.330000,(0 9 -6 2 2 -4 1 3)
1969/12/31/18:00:18.330000,(-20 -40 -18 -15 -6 -4 -8 -12)
1969/12/31/18:00:18.352000,(-6 -44 -67 -38 -10 -5 3 0)
1969/12/31/18:00:18.352000,(6 24 29 26 11 6 4 -1)
1969/12/31/18:00:18.353000,(-7 -22 -16 -2 -1 4 2 -1)
1969/12/31/18:00:18.353000,(23 74 24 1 1 3 -1 -3)
1969/12/31/18:00:18.365000,(-18 -41 12 7 1 2 -1 -3)
1969/12/31/18:00:18.365000,(10 13 5 2 -1 1 -4 -1)
1969/12/31/18:00:18.380000,(0 6 7 16 2 5 0 -7)
1969/12/31/18:00:18.380000,(-20 -46 -54 -34 -10 2 -7 -9)
1969/12/31/18:00:18.388000,(-10 -24 2 -10 -7 3 -1 -2)
1969/12/31/18:00:18.388000,(16 48 65 39 10 9 4 -1)
1969/12/31/18:00:18.402000,(1 2 23 7 0 1 0 5)
1969/12/31/18:00:18.402000,(-3 -50 -49 -40 -19 -12 -3 4)
1969/12/31/18:00:18.411000,(3 26 30 30 9 -5 1 3)
1969/12/31/18:00:18.411000,(-1 -1 -1 4 2 -5 3 6)
1969/12/31/18:00:18.413000,(-5 -38 -31 -16 -7 -9 -3 -6)
1969/12/31/18:00:18.413000,(-6 0 29 6 3 -6 3 2)
1969/12/31/18:00:18.425000,(6 19 1 -1 -1 -2 -5 -4)
1969/12/31/18:00:18.425000,(-5 1 -59 -40 -15 -9 -6 -5)
1969/12/31/18:00:18.434000,(13 47 13 -3 -1 0 -5 -1)
1969/12/31/18:00:18.434000,(14 13 57 62 20 16 5 6)
1969/12/31/18:00:18.449000,(0 1 -4 -7 -3 5 -3 0)
1969/12/31/18:00:18.449000,(1 24 14 4 -1 0 -2 -1)
1969/12/31/18:00:18.451000,(-2 -14 -20 -8 -2 1 3 6)
1969/12/31/18:00:18.451000,(-9 -12 -26 -25 -10 -8 -6 -13)
1969/12/31/18:00:18.472000,(3 4 -12 -8 -3 -3 1 2)
1969/12/31/18:00:18.472000,(-5 -26 -11 -7 -3 -3 -2 -3)
1969/12/31/18:00:18.473000,(4 11 16 11 4 1 2 4)
1969/12/31/18:00:18.473000,(1 -5 -3 -3 -2 -2 2 6)
1969/12/31/18:00:18.485000,(-7 -15 -6 -4 -4 -4 1 2)
1969/12/31/18:00:18.485000,(1 -8 6 7 3 -2 1 0)
1969/12/31/18:00:18.494000,(-3 -15 -1 6 1 0 1 -1)
1969/12/31/18:00:18.494000,(1 6 -1 -4 -1 -1 -3 -5)
1969/12/31/18:00:18.516000,(0 13 -4 -3 1 1 -2 -2)
1969/12/31/18:00:18.516000,(-2 15 8 1 -1 2 -2 -2)
1969/12/31/18:00:18.533000,(-6 -8 -2 0 -1 2 -3 -5)
1969/12/31/18:00:18.533000,(-4 -29 -21 -13 -3 2 2 -2)
1969/12/31/18:00:18.533000,(9 60 24 15 4 1 -3 -6)
1969/12/31/18:00:18.533000,(3 -9 -5 -4 -2 1 5 7)
1969/12/31/18:00:18.535000,(0 -3 12 14 4 2 -3 -3)
1969/12/31/18:00:18.535000,(0 3 -5 -2 -4 -4 -2 0)
1969/12/31/18:00:18.545000,(-4 -24 -10 -5 -3 -4 0 2)
1969/12/31/18:00:18.545000,(0 6 5 8 4 -3 -3 -2)
1969/12/31/18:00:18.560000,(0 8 0 -4 -1 -2 -1 3)
1969/12/31/18:00:18.560000,(-3 2 1 -4 0 0 2 0)
1969/12/31/18:00:18.569000,(-4 -8 -8 -5 0 -1 -3 -6)
1969/12/31/18:00:18.569000,(-7 -17 -7 -4 -2 0 -1 -1)
1969/12/31/18:00:18.570000,(-5 -4 -2 -5 0 -1 0 -3)
1969/12/31/18:00:18.570000,(4 8 5 6 0 -3 -4 -5)
1969/12/31/18:00:18.592000,(-7 -22 -4 -5 -2 1 1 0)
1969/12/31/18:00:18.592000,(1 15 4 0 -3 -3 -5 -2)
1969/12/31/18:00:18.606000,(2 3 4 6 0 0 1 -1)
1969/12/31/18:00:18.606000,(-5 -27 -12 -19 -11 -5 -4 -1)
1969/12/31/18:00:18.607000,(5 32 22 14 5 -1 1 -3)
1969/12/31/18:00:18.607000,(0 -7 -1 4 1 1 0 -2)
1969/12/31/18:00:18.620000,(3 4 8 9 3 2 4 3)
1969/12/31/18:00:18.620000,(-6 -1 -7 -4 -1 -2 -3 -4)
1969/12/31/18:00:18.629000,(-6 -48 -18 -14 -6 -3 -4 -2)
1969/12/31/18:00:18.629000,(2 25 7 1 0 0 0 -2)
1969/12/31/18:00:18.631000,(1 9 3 3 -2 2 0 0)
1969/12/31/18:00:18.631000,(-2 3 4 2 1 0 0 -1)
1969/12/31/18:00:18.654000,(-4 -12 -6 -5 -4 -1 -1 -3)
1969/12/31/18:00:18.654000,(-2 -7 0 2 2 3 -1 -1)
1969/12/31/18:00:18.655000,(-1 -3 4 3 1 -3 -2 0)
1969/12/31/18:00:18.655000,(1 14 9 6 5 3 1 2)
1969/12/31/18:00:18.674000,(-5 -2 -7 -4 -2 -2 -2 -2)
1969/12/31/18:00:18.674000,(-1 -14 1 4 2 -1 -1 -1)
1969/12/31/18:00:18.691000,(0 -1 -3 -5 -4 -5 -4 -1)
1969/12/31/18:00:18.691000,(1 2 1 2 0 -3 -3 -1)
1969/12/31/18:00:18.692000,(1 3 -3 0 -1 -1 1 2)
1969/12/31/18:00:18.692000,(-3 -12 -12 -11 -5 -1 0 0)
1969/12/31/18:00:18.695000,(-2 -3 2 0 2 0 -1 -1)
1969/12/31/18:00:18.695000,(0 8 4 3 0 0 0 -2)
1969/12/31/18:00:18.711000,(-2 -2 -6 -8 -4 -2 0 1)
1969/12/31/18:00:18.711000,(-3 -11 1 3 0 -3 1 1)
1969/12/31/18:00:18.713000,(-2 0 -1 2 2 1 -1 -3)
1969/12/31/18:00:18.713000,(-1 -15 -13 -6 -4 0 0 1)
1969/12/31/18:00:18.725000,(-2 12 9 1 1 2 1 -1)
1969/12/31/18:00:18.725000,(2 -5 2 1 0 -1 0 0)
1969/12/31/18:00:18.740000,(-2 -3 -3 -3 -3 -1 -2 -5)
1969/12/31/18:00:18.740000,(0 5 2 -1 0 -1 -2 -1)
1969/12/31/18:00:18.749000,(-2 -15 -12 -6 -2 0 -4 -2)
1969/12/31/18:00:18.749000,(1 14 13 7 1 0 3 4)
1969/12/31/18:00:18.750000,(10 6 3 -1 -1 0 4 8)
1969/12/31/18:00:18.750000,(-9 -6 -8 -9 -5 -5 -4 -9)
1969/12/31/18:00:18.772000,(-4 -1 -3 -4 -5 -4 -7 -7)
1969/12/31/18:00:18.772000,(-2 -4 -3 -4 -1 1 2 -3)
1969/12/31/18:00:18.774000,(0 -1 -6 -4 -5 -4 -4 -2)
1969/12/31/18:00:18.774000,(8 21 15 10 3 3 4 4)
1969/12/31/18:00:18.785000,(-13 -20 -13 -2 -1 -1 -5 -8)
1969/12/31/18:00:18.785000,(-1 -8 -5 -6 -2 -1 -2 1)
1969/12/31/18:00:18.800000,(-2 4 -1 0 -2 -1 -1 0)
1969/12/31/18:00:18.800000,(1 3 -2 0 -1 -1 -2 1)
1969/12/31/18:00:18.808000,(-1 -1 -2 -3 -1 -1 0 0)
1969/12/31/18:00:18.808000,(-2 -9 -8 -2 -2 -2 -2 -2)
1969/12/31/18:00:18.817000,(2 11 9 -1 1 1 1 1)
1969/12/31/18:00:18.817000,(-5 -2 0 1 0 -1 -4 -4)
1969/12/31/18:00:18.831000,(1 -1 1 1 1 2 3 2)
1969/12/31/18:00:18.831000,(-1 -9 -2 0 -1 -1 -3 -1)
1969/12/31/18:00:18.833000,(-3 -5 -6 -3 -2 -2 1 -4)
1969/12/31/18:00:18.833000,(2 5 4 1 -1 -1 1 1)
1969/12/31/18:00:18.845000,(0 -1 0 2 -1 -3 -2 -1)
1969/12/31/18:00:18.845000,(-4 -2 -5 -7 -3 -2 -2 -1)
1969/12/31/18:00:18.860000,(-2 -8 -4 0 2 2 1 2)
1969/12/31/18:00:18.860000,(0 -3 -1 1 1 0 -1 0)
1969/12/31/18:00:18.869000,(2 -1 -3 -4 -5 -2 -1 2)
1969/12/31/18:00:18.869000,(0 2 3 5 2 0 -2 -1)
1969/12/31/18:00:18.877000,(-2 -1 -2 -4 -2 0 -1 0)
1969/12/31/18:00:18.877000,(0 1 -2 0 1 0 -2 0)
1969/12/31/18:00:18.892000,(-2 -2 1 2 1 -2 0 1)
1969/12/31/18:00:18.892000,(-1 3 0 -2 -1 0 1 -1)
1969/12/31/18:00:18.894000,(0 4 0 2 0 -2 -2 -2)
1969/12/31/18:00:18.894000,(-3 -4 -2 -1 -2 -3 -1 -1)
1969/12/31/18:00:18.905000,(-1 1 -1 -4 -1 -1 -1 0)
1969/12/31/18:00:18.905000,(-1 2 6 2 -1 -1 -2 -1)
1969/12/31/18:00:18.914000,(-4 -8 -6 -2 -3 -5 -2 -3)
1969/12/31/18:00:18.914000,(0 -8 0 -1 0 -1 3 0)
1969/12/31/18:00:18.928000,(5 24 4 -3 0 0 1 2)
1969/12/31/18:00:18.928000,(-4 3 -2 2 -1 1 -4 -12)
1969/12/31/18:00:18.943000,(-3 -8 -3 0 2 1 1 -2)
1969/12/31/18:00:18.943000,(0 3 3 4 3 0 -2 0)
1969/12/31/18:00:18.951000,(-3 -9 1 -2 -2 -1 -2 -3)
1969/12/31/18:00:18.951000,(-1 -2 -3 -5 -4 -1 0 1)
1969/12/31/18:00:18.967000,(-1 2 1 0 -3 0 -1 -2)
1969/12/31/18:00:18.967000,(0 -2 -2 -3 -4 0 -1 -1)
1969/12/31/18:00:18.976000,(1 -3 0 2 1 0 0 0)
1969/12/31/18:00:18.976000,(1 -1 0 1 -1 -4 -1 1)
1969/12/31/18:00:18.978000,(-2 -11 -5 -3 2 0 -2 1)
1969/12/31/18:00:18.978000,(-2 3 6 2 -1 1 -1 -4)
1969/12/31/18:00:18.980000,(-1 -2 1 1 0 -1 -1 -2)
1969/12/31/18:00:18.980000,(0 0 -2 -3 -1 -2 0 1)
1969/12/31/18:00:18.980000,(1 1 2 2 3 0 -1 0)
1969/12/31/18:00:18.980000,(-4 -21 -9 -8 -4 -1 2 -1)
1969/12/31/18:00:18.982000,(2 17 14 6 2 0 -2 -1)
1969/12/31/18:00:18.982000,(5 -5 -4 1 2 1 2 1)
1969/12/31/18:00:18.994000,(2 6 1 2 1 -2 1 0)
1969/12/31/18:00:18.994000,(-1 -4 0 0 1 -1 -3 0)
1969/12/31/18:00:19.008000,(-3 -11 4 0 -1 -2 1 -1)
1969/12/31/18:00:19.008000,(-5 -13 -5 -3 -2 -2 -4 -6)
1969/12/31/18:00:19.016000,(5 7 -2 0 0 -1 0 4)
1969/12/31/18:00:19.017000,(-4 0 0 0 3 -1 -3 -8)
1969/12/31/18:00:19.031000,(6 -4 -2 0 -3 -1 -2 13)
1969/12/31/18:00:19.031000,(-1 -2 -4 -2 -2 -3 -2 1)
1969/12/31/18:00:19.042000,(-4 -7 -8 -8 -5 -2 -2 -3)
1969/12/31/18:00:19.042000,(-2 3 1 -1 -2 -2 1 2)
1969/12/31/18:00:19.043000,(-4 -5 -3 -5 1 2 0 -4)
1969/12/31/18:00:19.043000,(-2 -2 -16 -8 -4 -3 -2 -3)
1969/12/31/18:00:19.054000,(1 5 9 -5 1 -1 2 -1)
1969/12/31/18:00:19.054000,(6 7 20 35 9 0 0 3)
1969/12/31/18:00:19.068000,(0 4 2 10 7 2 1 -1)
1969/12/31/18:00:19.068000,(-3 -11 -24 -17 -9 -3 -2 1)
1969/12/31/18:00:19.083000,(-7 -7 -19 -20 -5 -2 -5 -5)
1969/12/31/18:00:19.083000,(4 8 28 17 -1 -2 -3 0)
1969/12/31/18:00:19.108000,(-5 -12 -21 -32 -7 -2 -2 -5)
1969/12/31/18:00:19.108000,(-1 3 -12 -1 -6 -2 -1 0)
1969/12/31/18:00:19.109000,(-5 0 16 14 11 2 1 -4)
1969/12/31/18:00:19.109000,(4 4 0 10 4 1 1 3)
1969/12/31/18:00:19.110000,(-1 -1 18 28 4 0 1 1)
1969/12/31/18:00:19.110000,(1 3 -12 -12 -1 0 -1 -2)
1969/12/31/18:00:19.113000,(-5 -17 -42 -3 -9 -2 -1 2)
1969/12/31/18:00:19.113000,(-1 4 15 -43 -11 -4 -4 -5)
1969/12/31/18:00:19.122000,(5 10 26 13 -2 2 6 7)
1969/12/31/18:00:19.122000,(-8 -11 -33 -39 -3 -5 -4 -7)
1969/12/31/18:00:19.137000,(-1 -5 32 -1 -19 -7 -5 -2)
1969/12/31/18:00:19.137000,(9 16 -8 73 32 4 2 6)
1969/12/31/18:00:19.151000,(9 19 44 40 18 18 13 4)
1969/12/31/18:00:19.151000,(-8 -10 -12 -12 -9 -4 -6 -5)
1969/12/31/18:00:19.159000,(-4 -12 -58 -36 -14 -3 -2 -3)
1969/12/31/18:00:19.159000,(-9 -19 -13 -57 -25 -9 -4 -3)
1969/12/31/18:00:19.161000,(0 -2 1 23 1 -1 4 10)
1969/12/31/18:00:19.161000,(8 17 38 22 1 2 1 0)
1969/12/31/18:00:19.174000,(0 -8 -11 -38 -3 -5 4 6)
1969/12/31/18:00:19.174000,(-6 -6 -15 7 -2 -13 -10 -12)
1969/12/31/18:00:19.181000,(-3 -20 -81 -69 -8 -10 -7 -9)
1969/12/31/18:00:19.181000,(3 7 53 31 1 6 4 6)
1969/12/31/18:00:19.196000,(-2 0 6 49 56 17 6 1)
1969/12/31/18:00:19.196000,(4 4 29 10 8 11 15 12)
1969/12/31/18:00:19.211000,(5 9 -11 24 14 -2 -3 -2)
1969/12/31/18:00:19.211000,(6 10 3 2 -19 -21 0 0)
1969/12/31/18:00:19.219000,(-7 -2 15 23 3 -5 -10 -10)
1969/12/31/18:00:19.219000,(-10 -20 -72 -46 -4 -3 5 5)
1969/12/31/18:00:19.221000,(-5 -1 13 -12 -33 -8 -1 -4)
1969/12/31/18:00:19.221000,(8 18 74 25 13 2 6 5)
1969/12/31/18:00:19.234000,(9 23 21 33 8 5 2 2)
1969/12/31/18:00:19.234000,(-9 -18 -45 -28 -5 2 -2 -5)
1969/12/31/18:00:19.241000,(-13 -25 -66 -51 -20 -5 -4 -5)
1969/12/31/18:00:19.241000,(-2 2 21 19 12 4 -3 -1)
1969/12/31/18:00:19.256000,(0 5 -2 -9 0 3 3 6)
1969/12/31/18:00:19.256000,(-3 1 15 0 -13 -3 -11 -14)
1969/12/31/18:00:19.263000,(-4 -3 -9 -7 3 -4 -5 -8)
1969/12/31/18:00:19.263000,(0 -7 -18 4 10 6 2 2)
1969/12/31/18:00:19.279000,(1 3 3 14 -4 -2 0 -1)
1969/12/31/18:00:19.279000,(1 6 35 -4 -9 -4 -1 -1)
1969/12/31/18:00:19.281000,(2 -1 7 15 5 -4 -5 -1)
1969/12/31/18:00:19.281000,(1 -10 -30 -8 -1 -4 0 3)
1969/12/31/18:00:19.293000,(5 5 2 -16 -15 -5 1 3)
1969/12/31/18:00:19.293000,(-5 -5 -6 -2 5 2 -2 -1)
1969/12/31/18:00:19.302000,(-27 -7 22 1 6 5 -6 -13)
1969/12/31/18:00:19.302000,(10 9 -7 -6 -4 6 -2 -2)
1969/12/31/18:00:19.317000,(-1 1 -7 -14 -10 -1 -9 -9)
1969/12/31/18:00:19.317000,(-11 -2 9 4 -3 2 -9 -15)
1969/12/31/18:00:19.331000,(-24 -10 10 2 -3 1 -5 -10)
1969/12/31/18:00:19.331000,(-1 -14 -16 -7 -4 3 1 8)
1969/12/31/18:00:19.339000,(-24 -8 11 2 -5 -3 -8 -19)
1969/12/31/18:00:19.339000,(10 4 2 4 2 1 -2 0)
1969/12/31/18:00:19.341000,(77 47 13 5 -1 2 6 22)
1969/12/31/18:00:19.341000,(-33 -9 -11 -1 1 3 -6 -11)
1969/12/31/18:00:19.353000,(39 -10 0 -5 -3 -2 6 29)
1969/12/31/18:00:19.353000,(-37 -10 1 7 -1 2 -4 -16)
1969/12/31/18:00:19.362000,(-17 -27 -18 -14 -9 -11 -5 -1)
1969/12/31/18:00:19.362000,(51 34 9 4 5 -1 -17 -7)
1969/12/31/18:00:19.376000,(0 5 2 -1 -2 -4 6 4)
1969/12/31/18:00:19.376000,(11 1 -3 -1 1 8 19 13)
1969/12/31/18:00:19.383000,(41 14 6 5 2 -31 -23 -1)
1969/12/31/18:00:19.383000,(-23 -8 -9 -2 1 31 45 33)
1969/12/31/18:00:19.399000,(12 3 -6 -5 -2 5 -4 -7)
1969/12/31/18:00:19.399000,(12 -9 -13 -5 -11 -30 -16 22)
1969/12/31/18:00:19.401000,(-2 -4 2 2 5 28 42 46)
1969/12/31/18:00:19.401000,(-44 -16 -5 -1 2 -19 -38 -51)
1969/12/31/18:00:19.413000,(44 3 -9 -9 3 19 16 9)
1969/12/31/18:00:19.413000,(6 14 9 3 -5 -42 19 13)
1969/12/31/18:00:19.422000,(-54 -8 1 -6 -7 42 8 -21)
1969/12/31/18:00:19.422000,(6 1 3 -3 4 -22 3 18)
1969/12/31/18:00:19.436000,(-15 -4 8 7 2 -25 -2 -2)
