time,.data
1969/12/31/18:00:26.235,(7 35 48 22 8 3 2 -1)
1969/12/31/18:00:26.235,(-2 -8 -11 -2 0 0 0 3)
1969/12/31/18:00:26.237,(1 10 0 -1 -4 2 9 4)
1969/12/31/18:00:26.237,(-4 -17 1 3 0 -4 -8 -5)
1969/12/31/18:00:26.250,(-8 -21 -24 -11 -3 -1 1 -3)
1969/12/31/18:00:26.250,(-5 -12 -11 -7 -3 1 3 1)
1969/12/31/18:00:26.256,(-9 3 8 5 2 -4 -9 -18)
1969/12/31/18:00:26.256,(11 -1 -3 -3 -1 0 5 26)
1969/12/31/18:00:26.273,(3 4 0 -3 2 3 2 3)
1969/12/31/18:00:26.273,(7 11 7 7 4 -4 -9 -4)
1969/12/31/18:00:26.274,(-3 -6 -5 -5 -2 7 10 7)
1969/12/31/18:00:26.274,(-6 -3 4 0 -2 -3 -1 -8)
1969/12/31/18:00:26.295,(-20 -6 4 4 4 1 -3 -8)
1969/12/31/18:00:26.295,(-3 -7 -9 -3 -4 -1 3 3)
1969/12/31/18:00:26.297,(47 20 -2 -1 -1 -1 3 19)
1969/12/31/18:00:26.297,(3 9 8 4 1 -2 -5 -7)
1969/12/31/18:00:26.309,(-22 -20 -10 -7 -6 -4 0 -6)
1969/12/31/18:00:26.309,(-18 -10 -5 -4 -2 0 -4 -10)
1969/12/31/18:00:26.318,(2 -5 4 2 0 -1 -1 1)
1969/12/31/18:00:26.318,(16 22 9 4 2 4 8 8)
1969/12/31/18:00:26.333,(31 24 11 7 6 1 -10 -2)
1969/12/31/18:00:26.333,(-45 -46 -22 -13 -8 -7 -7 -16)
1969/12/31/18:00:26.334,(-9 7 4 1 -1 1 5 0)
1969/12/31/18:00:26.334,(11 2 1 0 -1 -1 -7 -1)
1969/12/31/18:00:26.355,(7 11 1 1 1 1 6 7)
1969/12/31/18:00:26.355,(18 3 -5 -6 -5 1 8 13)
1969/12/31/18:00:26.357,(-3 1 5 6 5 -7 -26 -31)
1969/12/31/18:00:26.357,(-20 -13 -3 -5 -2 -2 2 0)
1969/12/31/18:00:26.370,(-10 -1 -4 -5 -2 0 2 6)
1969/12/31/18:00:26.370,(-17 -8 -3 -3 -3 -5 7 6)
1969/12/31/18:00:26.376,(-2 -1 -5 -2 -1 8 -1 -10)
1969/12/31/18:00:26.376,(-22 -12 -4 -2 -3 -12 -25 -26)
1969/12/31/18:00:26.393,(-11 -1 7 3 2 3 8 -4)
1969/12/31/18:00:26.393,(66 35 6 4 3 2 2 9)
1969/12/31/18:00:26.394,(-65 -37 -11 -9 -6 -6 -4 -9)
1969/12/31/18:00:26.394,(-14 -4 1 3 0 2 2 3)
1969/12/31/18:00:26.415,(5 11 -4 -4 -4 -1 3 -12)
1969/12/31/18:00:26.415,(17 -5 -3 -1 -1 -4 -15 13)
1969/12/31/18:00:26.421,(10 1 -1 -1 -1 0 2 -10)
1969/12/31/18:00:26.421,(33 32 10 5 4 10 -4 -6)
1969/12/31/18:00:26.429,(-1 -6 -3 -2 -4 -12 0 16)
1969/12/31/18:00:26.429,(16 0 -10 -5 -4 16 16 2)
1969/12/31/18:00:26.445,(-50 -27 -6 -3 -5 -15 -12 -12)
1969/12/31/18:00:26.445,(9 -3 -8 -9 -9 -9 -13 -9)
1969/12/31/18:00:26.453,(1 5 9 6 3 3 2 5)
1969/12/31/18:00:26.453,(32 21 -2 0 -2 -5 -6 -6)
1969/12/31/18:00:26.454,(24 11 5 1 4 5 4 12)
1969/12/31/18:00:26.454,(-56 -14 -2 -3 -2 1 9 -5)
1969/12/31/18:00:26.475,(1 -10 -5 -2 2 11 -8 -18)
1969/12/31/18:00:26.475,(-4 11 4 -3 -4 -15 -5 -1)
1969/12/31/18:00:26.477,(39 17 8 1 0 4 5 8)
1969/12/31/18:00:26.477,(-47 -43 -14 -4 0 -1 9 20)
1969/12/31/18:00:26.489,(-8 -6 -4 -4 -3 2 1 0)
1969/12/31/18:00:26.489,(8 16 13 9 6 13 9 21)
1969/12/31/18:00:26.498,(-33 -15 -10 -4 -1 -10 -20 -27)
1969/12/31/18:00:26.498,(44 20 8 3 -1 3 9 -9)
1969/12/31/18:00:26.513,(-22 -28 -11 -4 -2 -4 -6 -10)
1969/12/31/18:00:26.513,(-17 1 3 -2 -3 -6 -3 -12)
1969/12/31/18:00:26.514,(21 1 -6 -4 -1 2 7 48)
1969/12/31/18:00:26.514,(13 9 4 0 -4 -7 -5 10)
1969/12/31/18:00:26.535,(21 6 -5 2 2 13 26 15)
1969/12/31/18:00:26.535,(-61 -57 -21 -14 -12 -6 -9 -24)
1969/12/31/18:00:26.537,(16 11 5 3 1 2 25 15)
1969/12/31/18:00:26.537,(-24 -21 -2 0 2 -9 -37 -20)
1969/12/31/18:00:26.549,(32 30 5 -1 -7 -8 13 17)
1969/12/31/18:00:26.549,(-6 2 -3 0 4 7 -3 3)
1969/12/31/18:00:26.558,(-34 -15 -8 -8 -7 -10 -10 -18)
1969/12/31/18:00:26.558,(-16 -11 -8 -5 1 9 1 -10)
1969/12/31/18:00:26.573,(30 38 16 4 0 -7 -3 1)
1969/12/31/18:00:26.573,(1 -23 -5 3 5 12 15 20)
1969/12/31/18:00:26.574,(-20 -13 3 4 0 -6 -19 -46)
1969/12/31/18:00:26.574,(-22 -4 3 0 -1 -1 -7 -11)
1969/12/31/18:00:26.595,(3 4 -6 -5 -5 -18 -7 4)
1969/12/31/18:00:26.595,(-6 -3 -3 0 3 24 26 -10)
1969/12/31/18:00:26.597,(12 20 8 1 3 13 -9 13)
1969/12/31/18:00:26.597,(20 16 0 1 0 0 15 19)
1969/12/31/18:00:26.609,(-36 -39 -13 -5 -5 -16 -30 -52)
1969/12/31/18:00:26.609,(25 17 7 3 1 -13 0 -2)
1969/12/31/18:00:26.618,(15 27 -1 -1 1 25 -15 5)
1969/12/31/18:00:26.618,(-4 -12 -1 0 0 -3 0 -37)
1969/12/31/18:00:26.633,(8 2 -2 -3 -4 9 51 32)
1969/12/31/18:00:26.633,(-24 -37 -17 -11 -5 -9 -32 -2)
1969/12/31/18:00:26.635,(6 8 1 1 2 -9 -5 -17)
1969/12/31/18:00:26.635,(36 44 15 4 3 2 4 17)
1969/12/31/18:00:26.655,(-41 -60 -18 -6 -2 -1 -10 -21)
1969/12/31/18:00:26.655,(3 23 11 5 0 3 2 -12)
1969/12/31/18:00:26.657,(17 6 2 4 -2 -21 15 3)
1969/12/31/18:00:26.657,(30 -21 -18 -9 -5 4 14 64)
1969/12/31/18:00:26.669,(-14 17 14 9 7 10 -28 -29)
1969/12/31/18:00:26.669,(-10 2 2 0 -6 -22 22 15)
1969/12/31/18:00:26.678,(72 20 3 0 3 12 20 75)
1969/12/31/18:00:26.678,(8 8 -1 -2 -5 -15 -1 6)
1969/12/31/18:00:26.693,(30 25 12 9 8 -4 1 -5)
1969/12/31/18:00:26.693,(-82 -65 -21 -11 -4 7 -29 -27)
1969/12/31/18:00:26.695,(-32 -10 5 4 1 -13 6 -12)
1969/12/31/18:00:26.695,(43 27 13 4 6 25 35 45)
1969/12/31/18:00:26.715,(-43 -4 -5 -5 -4 -16 -9 -5)
1969/12/31/18:00:26.715,(14 -4 -4 -2 0 -6 -41 -44)
1969/12/31/18:00:26.717,(18 2 -4 -8 -8 -6 12 10)
1969/12/31/18:00:26.717,(21 8 9 6 4 0 1 -4)
1969/12/31/18:00:26.729,(-21 -24 -16 -11 -11 -6 -40 -32)
1969/12/31/18:00:26.729,(21 23 11 7 1 -5 18 21)
1969/12/31/18:00:26.738,(-18 -9 1 3 1 4 7 12)
1969/12/31/18:00:26.738,(-56 -23 -12 -7 -6 -3 -22 -71)
1969/12/31/18:00:26.753,(4 -3 0 -1 5 19 24 38)
1969/12/31/18:00:26.753,(52 24 -2 -9 -10 -13 -27 -3)
1969/12/31/18:00:26.754,(-39 -31 -6 -1 0 -3 11 -27)
1969/12/31/18:00:26.754,(-10 21 3 1 -2 -3 -5 -32)
1969/12/31/18:00:26.775,(-15 -11 -1 2 3 -2 -7 -34)
1969/12/31/18:00:26.775,(25 14 7 2 2 1 8 8)
1969/12/31/18:00:26.777,(-17 -19 -16 -12 -8 -3 -18 1)
1969/12/31/18:00:26.777,(-66 -21 -7 -4 -1 -3 -16 -34)
1969/12/31/18:00:26.789,(-7 0 -1 -3 -2 -1 7 23)
1969/12/31/18:00:26.789,(24 19 19 13 7 0 21 5)
1969/12/31/18:00:26.798,(44 17 5 -1 2 5 -8 31)
1969/12/31/18:00:26.798,(-67 -27 -4 4 6 2 6 -24)
1969/12/31/18:00:26.813,(33 21 7 1 -2 -2 2 12)
1969/12/31/18:00:26.813,(-36 -20 -6 -2 -3 1 -9 5)
1969/12/31/18:00:26.814,(-37 -18 -10 -6 -5 -6 -18 -34)
1969/12/31/18:00:26.814,(22 2 -4 -4 -4 -4 1 5)
1969/12/31/18:00:26.835,(-23 -2 1 0 0 1 -15 -45)
1969/12/31/18:00:26.835,(-8 -3 -2 -5 -3 2 9 25)
1969/12/31/18:00:26.837,(7 -2 -3 1 1 -1 -1 -10)
1969/12/31/18:00:26.837,(-19 1 0 -4 -7 -4 -6 -18)
1969/12/31/18:00:26.849,(90 29 5 2 -2 -1 5 79)
1969/12/31/18:00:26.849,(-100 -18 1 6 4 5 -5 -87)
1969/12/31/18:00:26.858,(38 -4 -17 -14 -11 -6 3 13)
1969/12/31/18:00:26.858,(14 -7 -5 -6 -6 -7 -8 -30)
1969/12/31/18:00:26.872,(-10 -3 -4 -4 -5 -6 -6 1)
1969/12/31/18:00:26.872,(24 11 1 -1 -1 -2 0 21)
1969/12/31/18:00:26.879,(-15 4 6 6 8 16 14 42)
1969/12/31/18:00:26.879,(15 -4 -4 1 -4 -15 -3 37)
1969/12/31/18:00:26.895,(73 21 -2 -5 -1 -4 15 62)
1969/12/31/18:00:26.895,(-71 -40 -17 -11 -9 14 10 -32)
1969/12/31/18:00:26.897,(-47 -8 -1 0 0 -14 -5 -20)
1969/12/31/18:00:26.897,(54 16 2 -2 -3 5 2 41)
1969/12/31/18:00:26.909,(-97 -7 12 12 7 -4 -40 -60)
1969/12/31/18:00:26.909,(43 7 -9 -10 -10 -11 3 22)
1969/12/31/18:00:26.918,(9 6 4 3 -2 -42 -16 -11)
1969/12/31/18:00:26.918,(-23 -26 -13 -8 4 35 49 -6)
1969/12/31/18:00:26.933,(-19 -14 -3 1 6 42 -2 -13)
1969/12/31/18:00:26.933,(-14 27 17 16 14 13 20 6)
1969/12/31/18:00:26.934,(29 0 -8 -10 -10 -8 -16 -41)
1969/12/31/18:00:26.934,(13 20 9 6 2 -7 3 34)
1969/12/31/18:00:26.955,(-42 -23 -6 -4 -2 -1 -19 -42)
1969/12/31/18:00:26.955,(-19 -8 -2 0 3 -5 10 56)
1969/12/31/18:00:26.957,(3 -9 0 2 -1 -21 -9 48)
1969/12/31/18:00:26.957,(-32 0 6 6 7 22 14 -32)
1969/12/31/18:00:26.969,(17 -2 -1 0 11 -11 9 6)
1969/12/31/18:00:26.969,(-11 -3 -5 -9 -17 -19 -43 0)
1969/12/31/18:00:26.978,(6 7 11 11 14 11 7 -21)
1969/12/31/18:00:26.978,(0 -7 -13 -11 -16 40 0 39)
1969/12/31/18:00:26.992,(14 -13 -3 2 -1 -24 5 15)
1969/12/31/18:00:26.992,(21 15 3 -6 12 38 19 -5)
1969/12/31/18:00:26.999,(-8 -1 2 4 -1 -44 -18 28)
1969/12/31/18:00:26.999,(-47 -12 -2 -7 -8 2 -55 -70)
1969/12/31/18:00:27.015,(28 -1 -5 -4 -3 40 65 41)
1969/12/31/18:00:27.015,(20 14 5 10 -5 -60 -45 -18)
1969/12/31/18:00:27.017,(-37 -5 -7 -13 -10 29 8 -50)
1969/12/31/18:00:27.017,(40 5 5 7 3 -13 11 44)
1969/12/31/18:00:27.029,(-22 -8 -1 -2 11 -1 -26 22)
1969/12/31/18:00:27.029,(47 6 -3 -5 -24 -34 -1 18)
1969/12/31/18:00:27.038,(-43 -18 -8 -3 1 18 25 -7)
1969/12/31/18:00:27.038,(13 3 1 3 23 -21 -13 -25)
1969/12/31/18:00:27.052,(14 2 4 6 -44 -34 6 -6)
1969/12/31/18:00:27.052,(5 0 -9 -21 10 5 39 6)
1969/12/31/18:00:27.059,(20 21 7 5 -8 21 14 29)
1969/12/31/18:00:27.059,(51 4 -6 -9 -4 6 -22 -52)
1969/12/31/18:00:27.075,(21 -9 -1 10 42 6 -11 33)
1969/12/31/18:00:27.075,(20 9 4 2 -25 -4 8 1)
1969/12/31/18:00:27.077,(-13 -7 -4 -8 1 23 16 -5)
1969/12/31/18:00:27.077,(1 10 10 6 -23 -62 -27 18)
1969/12/31/18:00:27.089,(21 8 -4 -5 -11 2 -21 -40)
1969/12/31/18:00:27.089,(-3 17 3 9 12 41 -12 -11)
1969/12/31/18:00:27.098,(34 -31 -8 7 24 10 28 25)
1969/12/31/18:00:27.098,(-44 -15 -8 -9 -11 -9 -7 -6)
1969/12/31/18:00:27.112,(5 -11 -5 -7 -1 9 16 12)
1969/12/31/18:00:27.112,(-15 1 8 15 16 -9 -2 14)
1969/12/31/18:00:27.119,(-11 16 4 -2 -1 -10 -13 -29)
1969/12/31/18:00:27.119,(49 -3 -11 -19 -7 6 29 47)
1969/12/31/18:00:27.135,(-15 5 4 15 6 -21 -10 -33)
1969/12/31/18:00:27.135,(-2 -4 1 -11 -19 20 18 10)
1969/12/31/18:00:27.137,(-18 10 -2 -9 -24 -37 -28 -20)
1969/12/31/18:00:27.137,(6 -37 -13 4 27 1 15 49)
1969/12/31/18:00:27.165,(-14 -4 -9 -19 17 71 12 0)
1969/12/31/18:00:27.165,(19 -14 -7 21 23 -3 -19 -30)
1969/12/31/18:00:27.167,(-80 11 8 -12 -37 18 -8 -87)
1969/12/31/18:00:27.167,(1 17 18 4 1 -10 3 13)
1969/12/31/18:00:27.172,(-10 2 5 10 8 -23 9 19)
1969/12/31/18:00:27.172,(24 7 7 8 -7 -12 -13 -29)
1969/12/31/18:00:27.179,(31 3 -1 15 0 -10 -8 -18)
1969/12/31/18:00:27.179,(-21 5 -1 -17 -12 15 2 -14)
1969/12/31/18:00:27.195,(-43 -27 -17 -16 -50 -58 -29 -54)
1969/12/31/18:00:27.195,(-3 18 5 6 29 2 1 16)
1969/12/31/18:00:27.197,(8 -30 -18 -28 -12 12 2 39)
1969/12/31/18:00:27.197,(-21 7 12 22 16 13 15 -16)
1969/12/31/18:00:27.217,(26 5 3 8 42 32 -21 27)
1969/12/31/18:00:27.217,(6 -6 -23 -9 -34 -19 5 31)
1969/12/31/18:00:27.225,(1 41 27 1 23 29 7 -18)
1969/12/31/18:00:27.225,(-21 -12 6 15 4 -15 3 10)
1969/12/31/18:00:27.232,(-32 -35 -45 -36 -29 -6 2 -13)
1969/12/31/18:00:27.232,(-19 3 16 14 34 -28 -4 9)
1969/12/31/18:00:27.240,(42 -21 -36 -8 3 45 7 49)
1969/12/31/18:00:27.240,(-17 83 100 22 -26 -21 -16 -33)
1969/12/31/18:00:27.255,(32 5 10 7 5 -32 9 5)
1969/12/31/18:00:27.256,(39 -64 -69 -37 -51 -35 -22 -26)
1969/12/31/18:00:27.257,(-9 -28 -21 2 45 36 -2 5)
1969/12/31/18:00:27.257,(4 15 -15 -20 14 15 -1 -6)
1969/12/31/18:00:27.278,(-28 59 72 36 38 62 17 9)
1969/12/31/18:00:27.278,(-45 70 123 58 55 36 6 -15)
1969/12/31/18:00:27.279,(-16 2 -1 13 -33 -60 -18 -14)
1969/12/31/18:00:27.279,(13 -82 -67 -2 7 -34 -22 -40)
1969/12/31/18:00:27.292,(12 -80 -122 -74 -50 19 -9 -31)
1969/12/31/18:00:27.292,(2 38 -8 -27 7 15 11 -14)
1969/12/31/18:00:27.299,(1 89 59 17 -13 -21 -14 21)
1969/12/31/18:00:27.299,(27 78 54 53 43 9 3 43)
1969/12/31/18:00:27.315,(1 -81 -71 -29 -17 -8 -8 5)
1969/12/31/18:00:27.315,(9 -5 -101 -27 -11 -4 -13 -35)
1969/12/31/18:00:27.317,(51 79 67 54 35 49 12 -18)
1969/12/31/18:00:27.317,(69 -25 -46 -6 -22 -5 9 34)
1969/12/31/18:00:27.338,(-14 -34 -18 21 13 -13 7 7)
1969/12/31/18:00:27.338,(-47 -128 -89 -26 -2 5 2 36)
1969/12/31/18:00:27.339,(-26 -60 -70 -41 -24 -55 -16 -19)
1969/12/31/18:00:27.339,(-41 47 47 -5 -27 -1 6 5)
1969/12/31/18:00:27.351,(-7 -71 -61 -7 45 37 -4 10)
1969/12/31/18:00:27.351,(12 98 76 7 -52 -19 -5 9)
1969/12/31/18:00:27.360,(42 48 84 44 54 29 8 -13)
1969/12/31/18:00:27.360,(-40 -77 -68 -9 -1 -1 -8 -42)
1969/12/31/18:00:27.375,(-27 -42 -25 -16 -41 -37 -7 -17)
1969/12/31/18:00:27.375,(10 -82 -102 -58 -38 -51 -19 -17)
1969/12/31/18:00:27.377,(4 62 48 47 59 53 0 17)
1969/12/31/18:00:27.377,(17 11 0 -1 -10 7 9 4)
1969/12/31/18:00:27.398,(-48 -25 -41 -4 -17 -74 -17 -40)
1969/12/31/18:00:27.398,(0 78 33 3 23 71 11 9)
1969/12/31/18:00:27.399,(8 -21 -7 -13 -15 -5 11 9)
1969/12/31/18:00:27.399,(-15 -49 -71 -28 22 23 -6 -12)
1969/12/31/18:00:27.420,(20 88 116 42 -3 -13 19 38)
1969/12/31/18:00:27.420,(-35 -99 -51 -7 -14 -36 -25 -70)
1969/12/31/18:00:27.422,(8 -47 -68 -1 20 -30 -8 4)
1969/12/31/18:00:27.422,(-49 -29 -33 -48 -68 -5 -7 -28)
1969/12/31/18:00:27.435,(19 -43 -36 -27 -16 11 -2 -30)
1969/12/31/18:00:27.435,(25 127 127 59 20 14 4 13)
1969/12/31/18:00:27.437,(-48 -128 -118 -27 -12 -38 -13 -26)
1969/12/31/18:00:27.437,(-18 -79 -89 -38 -8 30 -9 -30)
1969/12/31/18:00:27.458,(83 127 127 72 57 62 34 16)
1969/12/31/18:00:27.458,(-8 -14 -7 6 15 4 8 10)
1969/12/31/18:00:27.459,(2 -11 15 -2 -25 -1 8 27)
1969/12/31/18:00:27.459,(-48 -82 -45 -1 -12 -57 -14 -7)
1969/12/31/18:00:27.472,(-9 -43 -57 -36 -40 -22 -21 -20)
1969/12/31/18:00:27.472,(-9 -43 -6 0 32 44 9 -4)
1969/12/31/18:00:27.480,(12 20 -20 9 11 -32 -2 25)
1969/12/31/18:00:27.480,(1 26 36 -3 -5 31 14 9)
1969/12/31/18:00:27.495,(-27 -45 -73 -42 -28 -28 -13 -23)
1969/12/31/18:00:27.495,(-2 57 49 14 1 7 5 17)
1969/12/31/18:00:27.497,(-6 52 75 32 8 10 7 -15)
1969/12/31/18:00:27.497,(-17 -45 -33 5 8 -33 -2 -11)
1969/12/31/18:00:27.518,(8 41 -50 5 35 45 -2 26)
1969/12/31/18:00:27.518,(-11 9 31 48 -11 -17 1 -14)
1969/12/31/18:00:27.519,(12 48 4 -38 -47 -15 -11 14)
1969/12/31/18:00:27.519,(52 69 20 31 43 11 8 59)
1969/12/31/18:00:27.532,(-4 6 28 46 39 -26 8 32)
1969/12/31/18:00:27.532,(-65 -128 -116 -81 -52 22 -15 -51)
1969/12/31/18:00:27.539,(-14 -30 -22 -24 -21 -12 -3 -1)
1969/12/31/18:00:27.539,(0 -42 -21 -11 -25 -28 -13 -17)
1969/12/31/18:00:27.555,(8 11 7 19 37 8 -7 13)
1969/12/31/18:00:27.555,(-68 -71 -45 -10 16 0 13 38)
1969/12/31/18:00:27.557,(-61 -97 -96 -35 -26 10 -3 -67)
1969/12/31/18:00:27.557,(43 98 97 41 36 36 14 29)
1969/12/31/18:00:27.578,(-25 -39 -24 -23 -53 -13 0 -4)
1969/12/31/18:00:27.578,(5 -57 -53 -26 -12 -60 -39 -47)
1969/12/31/18:00:27.579,(14 37 -9 3 60 25 -13 -54)
1969/12/31/18:00:27.579,(14 24 55 45 -1 8 8 28)
1969/12/31/18:00:27.591,(31 -8 -8 11 21 31 14 1)
1969/12/31/18:00:27.591,(-21 -122 -60 10 1 -25 -11 -34)
1969/12/31/18:00:27.600,(-42 -128 -128 -70 -64 -46 -9 -1)
1969/12/31/18:00:27.601,(53 114 67 8 31 15 -22 -46)
1969/12/31/18:00:27.615,(7 127 127 38 -11 -7 3 -8)
1969/12/31/18:00:27.615,(49 -17 -46 1 14 -23 15 58)
1969/12/31/18:00:27.617,(84 86 58 0 19 89 37 81)
1969/12/31/18:00:27.617,(-62 -128 -106 -40 -26 -29 5 6)
1969/12/31/18:00:27.645,(-20 -12 -95 -31 11 12 29 69)
1969/12/31/18:00:27.645,(91 127 119 64 13 -12 -9 12)
1969/12/31/18:00:27.647,(4 -87 -54 13 7 4 4 57)
1969/12/31/18:00:27.647,(-39 -102 -127 -45 -20 -10 3 -10)
1969/12/31/18:00:27.651,(8 16 21 17 5 -6 9 49)
1969/12/31/18:00:27.651,(-15 74 0 -2 25 37 2 -43)
1969/12/31/18:00:27.660,(69 82 125 59 14 -7 10 27)
1969/12/31/18:00:27.660,(2 -87 -54 -42 -40 -38 -27 -11)
1969/12/31/18:00:27.676,(-87 -122 -128 -50 -26 -60 -15 -38)
1969/12/31/18:00:27.676,(81 127 127 53 35 85 52 59)
1969/12/31/18:00:27.677,(-53 -106 -26 -1 -26 -10 -10 -48)
1969/12/31/18:00:27.677,(-7 -78 -54 -2 11 -12 -3 -13)
1969/12/31/18:00:27.698,(-13 -93 -52 -17 -35 -10 -19 -45)
1969/12/31/18:00:27.698,(-26 -16 -33 -9 -20 -40 2 -1)
1969/12/31/18:00:27.699,(50 -16 -59 -40 -39 -41 -14 40)
1969/12/31/18:00:27.699,(12 127 127 88 81 65 22 29)
1969/12/31/18:00:27.712,(-24 -55 -48 -29 -29 -5 -10 -29)
1969/12/31/18:00:27.712,(-20 -57 -26 -21 0 17 5 15)
1969/12/31/18:00:27.721,(-54 -50 -29 -18 -24 -25 -11 -51)
1969/12/31/18:00:27.721,(13 -102 -98 -9 -9 -28 -3 17)
1969/12/31/18:00:27.735,(49 127 95 20 -2 4 -12 -32)
1969/12/31/18:00:27.735,(55 35 63 51 12 -3 10 33)
1969/12/31/18:00:27.737,(-53 -69 -83 1 -4 -4 3 -1)
1969/12/31/18:00:27.737,(-11 46 52 20 -1 9 -10 -29)
1969/12/31/18:00:27.758,(-53 -126 -99 -78 -65 -4 -8 -21)
1969/12/31/18:00:27.758,(37 78 64 30 21 11 -1 11)
1969/12/31/18:00:27.759,(-54 -1 22 42 41 -7 6 5)
1969/12/31/18:00:27.759,(-18 -78 -85 -46 -46 0 -6 -32)
1969/12/31/18:00:27.771,(-10 32 47 21 4 -14 -12 -20)
1969/12/31/18:00:27.771,(-68 -128 -128 -41 -14 -5 -19 -42)
1969/12/31/18:00:27.780,(-2 119 103 49 33 14 5 -46)
1969/12/31/18:00:27.780,(22 -56 -3 17 41 32 8 46)
1969/12/31/18:00:27.795,(44 -8 -22 6 0 8 12 26)
1969/12/31/18:00:27.795,(-20 -20 -7 -35 -39 -6 5 1)
1969/12/31/18:00:27.797,(-4 -68 -124 -69 -17 -11 -13 1)
1969/12/31/18:00:27.797,(64 127 113 72 14 7 6 36)
1969/12/31/18:00:27.818,(26 -81 15 61 32 -18 -10 21)
1969/12/31/18:00:27.818,(51 -99 -124 -46 -23 -28 2 55)
1969/12/31/18:00:27.819,(-3 81 61 9 -1 43 22 -13)
1969/12/31/18:00:27.819,(-28 -101 -111 -63 -53 -61 -19 18)
1969/12/31/18:00:27.831,(15 127 88 21 11 25 -14 3)
1969/12/31/18:00:27.831,(-17 -52 -20 -3 8 13 25 28)
1969/12/31/18:00:27.848,(8 51 79 33 29 -1 -9 -24)
1969/12/31/18:00:27.848,(26 -36 -39 -36 -50 6 12 15)
1969/12/31/18:00:27.855,(-33 -37 1 17 33 -32 -10 -24)
1969/12/31/18:00:27.855,(-13 -74 -98 -52 -28 3 -23 -50)
1969/12/31/18:00:27.857,(-12 -83 -35 -11 -16 -24 6 29)
1969/12/31/18:00:27.857,(42 127 107 32 42 52 27 1)
1969/12/31/18:00:27.894,(46 69 39 34 32 10 14 7)
1969/12/31/18:00:27.894,(0 -46 -60 -34 -40 -7 -17 -3)
1969/12/31/18:00:27.895,(28 86 77 42 8 5 10 16)
1969/12/31/18:00:27.895,(-25 -101 -103 -37 -8 -31 -39 -43)
1969/12/31/18:00:27.896,(68 99 88 55 61 42 24 32)
1969/12/31/18:00:27.896,(-33 -15 -7 -26 -44 -27 -16 -1)
1969/12/31/18:00:27.900,(40 55 33 5 18 23 7 -13)
1969/12/31/18:00:27.900,(-42 -106 -60 -24 -56 -25 3 -4)
1969/12/31/18:00:27.915,(-24 -48 -45 -53 -43 -16 -12 -27)
1969/12/31/18:00:27.915,(-9 -35 9 33 18 -23 -9 1)
1969/12/31/18:00:27.917,(58 5 -4 -4 24 -3 14 85)
1969/12/31/18:00:27.917,(14 127 57 26 41 49 30 5)
1969/12/31/18:00:27.938,(19 28 68 23 -26 0 -8 3)
1969/12/31/18:00:27.938,(8 -28 17 14 11 32 26 25)
1969/12/31/18:00:27.939,(-32 -82 -118 -47 -28 -12 -9 -14)
1969/12/31/18:00:27.939,(-76 -128 -89 -9 39 -17 -31 -69)
1969/12/31/18:00:27.952,(-10 41 -33 -28 -50 -26 -2 20)
1969/12/31/18:00:27.952,(29 95 83 54 32 21 15 -5)
1969/12/31/18:00:27.960,(-37 -128 -82 -25 -17 -15 -30 -34)
1969/12/31/18:00:27.961,(-41 21 0 -5 -1 11 9 -14)
1969/12/31/18:00:27.975,(-5 -103 -89 -29 35 7 -18 -18)
1969/12/31/18:00:27.975,(-45 -38 -29 -19 -36 -10 -11 -32)
1969/12/31/18:00:27.981,(-70 88 88 37 6 -8 9 -13)
1969/12/31/18:00:27.981,(3 -58 -42 -12 25 26 -31 -65)
1969/12/31/18:00:27.998,(14 109 122 20 -31 10 7 12)
1969/12/31/18:00:27.998,(0 -37 -20 14 31 18 11 4)
1969/12/31/18:00:27.999,(-47 -128 -128 -39 -31 -52 -8 -39)
1969/12/31/18:00:27.999,(19 85 11 -17 17 21 6 32)
1969/12/31/18:00:28.011,(31 45 64 68 23 43 39 32)
1969/12/31/18:00:28.011,(34 -71 -56 -24 29 37 -2 -15)
1969/12/31/18:00:28.020,(33 -60 -5 25 26 18 15 22)
1969/12/31/18:00:28.020,(47 9 18 -3 -24 -12 20 49)
1969/12/31/18:00:28.035,(-18 -113 -94 -33 17 -14 16 13)
1969/12/31/18:00:28.035,(-10 -23 -12 1 4 -10 -2 3)
1969/12/31/18:00:28.041,(22 87 61 -9 -19 18 -16 -16)
1969/12/31/18:00:28.041,(84 92 108 56 6 -31 5 29)
1969/12/31/18:00:28.058,(-40 -69 -26 7 -13 -56 -15 -17)
1969/12/31/18:00:28.058,(-10 52 -51 -40 7 73 46 62)
1969/12/31/18:00:28.060,(23 -35 18 21 -1 14 -10 -30)
1969/12/31/18:00:28.060,(-35 -93 -107 -35 -32 -26 -14 -23)
1969/12/31/18:00:28.088,(-15 7 -1 9 -6 -5 -3 -23)
1969/12/31/18:00:28.088,(-35 -88 -16 -4 -1 -44 -25 0)
1969/12/31/18:00:28.089,(11 43 19 2 4 1 -9 -13)
1969/12/31/18:00:28.089,(-20 14 2 -20 -16 -10 -5 -19)
1969/12/31/18:00:28.095,(-36 -128 -101 -36 -15 -26 3 26)
1969/12/31/18:00:28.095,(46 62 -27 4 -21 -29 -4 18)
1969/12/31/18:00:28.102,(51 111 37 -6 53 91 27 42)
1969/12/31/18:00:28.102,(-24 -77 -8 9 -13 -25 10 5)
1969/12/31/18:00:28.118,(-18 2 7 -2 13 27 -8 -43)
1969/12/31/18:00:28.118,(35 93 19 -5 -7 -18 -1 28)
1969/12/31/18:00:28.119,(14 -9 44 26 1 -36 -12 -9)
1969/12/31/18:00:28.119,(-29 -23 -6 -1 10 14 6 11)
1969/12/31/18:00:28.140,(18 -116 -98 -37 -15 -6 16 24)
1969/12/31/18:00:28.140,(-11 -57 -7 10 -23 -65 -24 -15)
1969/12/31/18:00:28.142,(-13 -4 -54 -14 3 48 -2 -7)
1969/12/31/18:00:28.142,(9 2 64 25 -16 -21 19 24)
1969/12/31/18:00:28.155,(-1 -21 -71 -31 -6 14 5 5)
1969/12/31/18:00:28.155,(-17 28 67 31 0 -18 -11 -27)
1969/12/31/18:00:28.169,(0 -98 -95 -38 -30 -25 1 22)
1969/12/31/18:00:28.169,(-18 -13 -2 6 -6 -8 -8 7)
1969/12/31/18:00:28.178,(20 -112 -54 -9 16 19 19 21)
1969/12/31/18:00:28.178,(18 72 24 3 -12 -16 -37 1)
1969/12/31/18:00:28.180,(35 59 -9 -12 -25 0 20 6)
1969/12/31/18:00:28.180,(27 80 81 93 62 48 9 5)
1969/12/31/18:00:28.200,(-16 -37 -45 -2 -18 -47 -14 -8)
1969/12/31/18:00:28.200,(-48 -73 -94 -46 -8 20 5 -16)
1969/12/31/18:00:28.202,(41 -53 38 2 -14 -16 17 75)
1969/12/31/18:00:28.202,(0 23 -39 -24 -12 -13 -21 -56)
1969/12/31/18:00:28.215,(-39 29 45 18 10 30 -14 -19)
1969/12/31/18:00:28.215,(-19 -94 -45 -11 0 -25 1 -23)
1969/12/31/18:00:28.221,(-36 -43 -42 23 43 -8 -4 -10)
1969/12/31/18:00:28.222,(2 -68 -67 -93 -64 -3 -10 -5)
1969/12/31/18:00:28.238,(5 24 28 -8 -6 -3 -25 -15)
1969/12/31/18:00:28.238,(-15 38 32 4 23 16 9 -20)
1969/12/31/18:00:28.239,(-21 5 21 15 -1 -20 -8 -14)
1969/12/31/18:00:28.239,(-1 19 18 26 26 24 -5 1)
1969/12/31/18:00:28.260,(69 113 83 40 21 12 20 36)
1969/12/31/18:00:28.260,(62 127 127 42 2 9 9 37)
1969/12/31/18:00:28.262,(-56 -116 -111 -41 -16 -18 -12 -10)
1969/12/31/18:00:28.262,(63 52 10 0 17 19 27 81)
1969/12/31/18:00:28.274,(-7 1 -4 -10 -16 -6 -11 -11)
1969/12/31/18:00:28.274,(16 92 101 56 10 17 1 -16)
1969/12/31/18:00:28.283,(19 -70 -49 -11 -41 -68 -30 4)
1969/12/31/18:00:28.283,(-36 -110 -113 -46 -34 -24 -18 -20)
1969/12/31/18:00:28.298,(-9 -46 -30 14 42 13 26 43)
1969/12/31/18:00:28.298,(-31 -98 -48 -22 -4 9 15 -3)
1969/12/31/18:00:28.299,(-9 27 -28 -16 1 43 -20 -18)
1969/12/31/18:00:28.299,(-39 -72 -15 -9 3 -15 -16 -51)
1969/12/31/18:00:28.320,(13 32 -62 2 39 2 -15 -8)
1969/12/31/18:00:28.320,(9 45 82 28 2 15 9 -29)
1969/12/31/18:00:28.322,(-7 -98 -33 -6 -13 6 15 8)
1969/12/31/18:00:28.322,(2 -78 -61 -9 0 -1 1 13)
1969/12/31/18:00:28.334,(-9 77 29 5 -4 -3 -6 -15)
1969/12/31/18:00:28.334,(-28 -24 -7 15 18 -12 -23 -28)
1969/12/31/18:00:28.343,(-20 -18 -11 -12 -4 16 26 12)
1969/12/31/18:00:28.343,(29 56 67 19 6 12 -6 -10)
1969/12/31/18:00:28.358,(2 21 43 -1 -19 -27 -9 -12)
1969/12/31/18:00:28.358,(3 -48 -67 -3 24 -2 5 18)
1969/12/31/18:00:28.359,(30 27 21 -12 -42 19 4 8)
1969/12/31/18:00:28.359,(-41 -24 -47 -19 -25 3 22 -4)
1969/12/31/18:00:28.380,(-47 -4 54 -2 -28 -9 -15 -37)
1969/12/31/18:00:28.380,(-25 4 -32 -5 14 0 10 9)
1969/12/31/18:00:28.382,(14 96 113 43 37 -14 -16 -52)
1969/12/31/18:00:28.382,(20 -42 -39 -2 3 -18 1 18)
1969/12/31/18:00:28.394,(45 26 -18 -23 -25 24 6 5)
1969/12/31/18:00:28.394,(-18 -56 -12 -13 -14 -7 5 12)
1969/12/31/18:00:28.403,(-46 38 38 54 28 -25 -7 -38)
1969/12/31/18:00:28.403,(-49 -21 -4 -35 -25 29 -24 -56)
1969/12/31/18:00:28.418,(-4 43 -8 11 0 -9 3 -4)
1969/12/31/18:00:28.418,(23 -9 25 -3 -6 -4 -4 6)
1969/12/31/18:00:28.419,(-12 -60 -64 -31 -3 12 8 11)
1969/12/31/18:00:28.419,(-3 -88 -72 -12 33 -25 -24 -21)
1969/12/31/18:00:28.448,(44 26 55 3 16 36 12 40)
1969/12/31/18:00:28.448,(13 -33 -62 -10 -14 4 -11 -15)
1969/12/31/18:00:28.449,(-7 -47 -13 6 11 -13 -7 26)
1969/12/31/18:00:28.449,(-9 -15 -25 -3 1 -12 10 15)
1969/12/31/18:00:28.454,(-42 -128 -128 -61 -29 13 -7 -2)
1969/12/31/18:00:28.454,(33 127 95 35 17 19 10 9)
1969/12/31/18:00:28.463,(-2 -77 -45 -4 11 -14 -10 4)
1969/12/31/18:00:28.463,(11 72 66 18 -3 -5 -2 1)
1969/12/31/18:00:28.478,(4 1 15 13 -6 6 10 28)
1969/12/31/18:00:28.478,(8 31 -6 -15 -4 -19 -2 0)
1969/12/31/18:00:28.479,(-21 -57 -38 -26 -28 2 -7 -14)
1969/12/31/18:00:28.479,(1 -46 -55 -12 -9 -14 -9 -5)
1969/12/31/18:00:28.500,(-30 30 63 58 26 13 2 -70)
1969/12/31/18:00:28.500,(16 49 38 -7 -17 -21 -27 -67)
1969/12/31/18:00:28.502,(27 2 -2 8 15 -19 2 44)
1969/12/31/18:00:28.502,(15 -25 -23 -21 -10 39 2 21)
1969/12/31/18:00:28.522,(-42 -28 -6 0 4 4 -7 -36)
1969/12/31/18:00:28.522,(-21 -103 -94 -41 -26 -13 11 46)
1969/12/31/18:00:28.530,(-16 5 -24 -11 -4 -6 -6 -33)
1969/12/31/18:00:28.530,(31 64 79 52 32 17 18 33)
1969/12/31/18:00:28.539,(-17 7 15 5 -12 -11 -2 5)
1969/12/31/18:00:28.539,(13 14 -13 11 21 26 -9 -10)
1969/12/31/18:00:28.539,(26 -19 -29 -38 -34 -28 -7 15)
1969/12/31/18:00:28.539,(3 88 73 38 27 -7 7 19)
1969/12/31/18:00:28.560,(-15 -112 -85 -44 -7 -4 -8 -1)
1969/12/31/18:00:28.560,(-2 -42 -42 -12 5 0 1 4)
1969/12/31/18:00:28.560,(12 112 109 55 21 22 13 -9)
1969/12/31/18:00:28.560,(-21 -87 -21 -2 12 2 -7 -26)
1969/12/31/18:00:28.583,(1 50 25 19 0 -19 -7 -4)
1969/12/31/18:00:28.583,(-24 -118 -54 -22 -13 -3 -11 -13)
1969/12/31/18:00:28.589,(-24 -32 -44 -13 17 8 -9 -13)
1969/12/31/18:00:28.589,(-23 -30 -38 -31 -32 -23 -15 -25)
1969/12/31/18:00:28.599,(7 -1 -55 -14 -12 -62 -8 -9)
1969/12/31/18:00:28.599,(26 26 -21 10 38 62 14 32)
1969/12/31/18:00:28.599,(8 116 98 31 -24 4 12 0)
1969/12/31/18:00:28.599,(2 -15 -7 4 -2 -3 -1 2)
1969/12/31/18:00:28.620,(-10 -128 -121 -53 -18 -23 -5 0)
1969/12/31/18:00:28.620,(25 -26 20 16 1 -16 0 13)
1969/12/31/18:00:28.620,(3 22 -11 13 16 -5 -3 -3)
1969/12/31/18:00:28.620,(25 107 76 10 -5 37 25 23)
1969/12/31/18:00:28.642,(-30 -97 -69 -37 -53 -52 -20 -29)
1969/12/31/18:00:28.642,(-2 127 113 56 60 46 4 8)
1969/12/31/18:00:28.643,(-7 -64 -62 -40 -70 -28 -12 -21)
1969/12/31/18:00:28.643,(-31 -96 -51 -4 14 -7 -2 -29)
1969/12/31/18:00:28.665,(58 127 127 55 34 32 20 60)
1969/12/31/18:00:28.665,(-15 -90 -35 -6 -5 -5 4 -14)
1969/12/31/18:00:28.666,(-18 -81 -68 -35 -8 -6 -2 4)
1969/12/31/18:00:28.666,(-33 43 -70 -15 10 -3 -11 -7)
1969/12/31/18:00:28.680,(34 39 20 2 -17 13 11 2)
1969/12/31/18:00:28.680,(3 -80 -63 -7 -7 -19 -16 -13)
1969/12/31/18:00:28.680,(-11 -78 -61 -18 -4 21 22 17)
1969/12/31/18:00:28.680,(-14 25 35 5 -28 -26 3 -2)
1969/12/31/18:00:28.702,(-2 -48 -44 4 54 39 11 23)
1969/12/31/18:00:28.702,(-17 95 91 4 -30 -8 5 -28)
1969/12/31/18:00:28.703,(22 78 45 14 10 5 -4 16)
1969/12/31/18:00:28.703,(-15 -66 -12 11 -4 -14 -2 7)
1969/12/31/18:00:28.733,(-11 -17 -4 -12 3 -5 2 -16)
1969/12/31/18:00:28.733,(-40 -99 -69 -6 -3 1 -10 -10)
1969/12/31/18:00:28.734,(67 122 111 31 25 11 20 33)
1969/12/31/18:00:28.734,(2 17 29 14 -8 -13 -11 -10)
1969/12/31/18:00:28.740,(11 6 25 7 1 10 -11 -8)
1969/12/31/18:00:28.740,(-46 -88 -81 -20 -6 -12 18 29)
1969/12/31/18:00:28.740,(3 71 66 -13 -27 19 -10 -26)
1969/12/31/18:00:28.740,(50 63 46 19 2 -13 10 28)
1969/12/31/18:00:28.762,(-46 -74 -67 -28 -7 -3 -9 -26)
1969/12/31/18:00:28.762,(52 96 65 12 2 -11 4 24)
1969/12/31/18:00:28.763,(-54 -128 -114 -9 19 8 0 -7)
1969/12/31/18:00:28.763,(41 77 47 21 14 8 -3 -10)
1969/12/31/18:00:28.777,(8 5 -15 -11 -20 8 20 57)
1969/12/31/18:00:28.777,(-21 -52 -1 -6 -2 -21 -4 20)
1969/12/31/18:00:28.778,(-33 23 16 -2 1 2 -29 -55)
1969/12/31/18:00:28.778,(-26 -108 -76 -19 9 -6 -6 -3)
1969/12/31/18:00:28.800,(3 -46 -59 -16 -16 0 13 3)
1969/12/31/18:00:28.800,(25 22 -6 13 8 -7 7 14)
1969/12/31/18:00:28.800,(-19 -68 -51 -35 -20 -4 -17 -16)
1969/12/31/18:00:28.800,(-30 21 22 5 -10 -6 -17 -36)
1969/12/31/18:00:28.814,(16 52 49 26 10 -9 -20 -26)
1969/12/31/18:00:28.814,(-25 -127 -81 -33 -11 1 -10 -28)
1969/12/31/18:00:28.821,(35 82 30 19 14 -5 3 8)
1969/12/31/18:00:28.821,(-4 -4 -55 -32 -21 -7 2 -6)
1969/12/31/18:00:28.837,(39 99 92 53 8 2 5 9)
1969/12/31/18:00:28.837,(0 -14 -38 -4 12 4 -7 -8)
1969/12/31/18:00:28.838,(-23 -109 -33 2 7 16 12 15)
1969/12/31/18:00:28.838,(22 42 -3 0 18 14 4 15)
1969/12/31/18:00:28.860,(-21 -16 23 -11 -36 -28 -6 -10)
1969/12/31/18:00:28.860,(32 16 -22 3 3 -1 1 13)
1969/12/31/18:00:28.860,(-18 -25 -9 -15 4 11 7 4)
1969/12/31/18:00:28.860,(16 16 31 11 10 9 19 28)
1969/12/31/18:00:28.874,(5 -16 -9 18 28 12 -17 -34)
1969/12/31/18:00:28.874,(-9 14 8 -8 -12 -20 -18 -2)
1969/12/31/18:00:28.882,(20 20 6 9 4 1 21 21)
1969/12/31/18:00:28.882,(7 -1 15 8 -7 7 11 8)
1969/12/31/18:00:28.897,(-2 5 -19 -16 2 3 -10 -11)
1969/12/31/18:00:28.897,(39 27 23 2 -12 4 13 16)
1969/12/31/18:00:28.898,(-34 -73 -41 -7 -1 -7 -10 -9)
1969/12/31/18:00:28.898,(23 106 73 21 1 -3 0 13)
1969/12/31/18:00:28.920,(-9 -24 -13 -3 6 7 13 15)
1969/12/31/18:00:28.920,(-18 -12 -8 -9 -5 17 -1 -17)
1969/12/31/18:00:28.920,(-6 16 -13 -23 -23 -25 -21 -12)
1969/12/31/18:00:28.920,(37 -49 -15 19 24 5 3 8)
1969/12/31/18:00:28.942,(-10 16 4 0 3 9 2 10)
1969/12/31/18:00:28.942,(-12 -7 -5 -44 -46 -19 -21 -31)
1969/12/31/18:00:28.943,(29 10 -5 37 40 10 29 2)
1969/12/31/18:00:28.943,(-46 -47 -10 -1 -1 -9 -36 -26)
1969/12/31/18:00:28.957,(12 22 13 4 11 1 -20 -7)
1969/12/31/18:00:28.957,(-7 -12 -21 -23 -26 -1 28 17)
1969/12/31/18:00:28.958,(77 90 32 -17 -17 -13 54 49)
1969/12/31/18:00:28.958,(-70 -77 -18 -12 -22 29 -21 -30)
1969/12/31/18:00:28.979,(-42 -58 -19 36 67 18 1 -34)
1969/12/31/18:00:28.979,(-50 20 11 15 11 -9 -16 -28)
1969/12/31/18:00:28.987,(39 26 20 9 -3 -2 17 21)
1969/12/31/18:00:28.987,(40 28 9 -2 -10 -2 26 15)
1969/12/31/18:00:29.002,(10 -21 -40 -54 -51 -20 -8 68)
1969/12/31/18:00:29.002,(-47 -30 12 11 14 15 3 -9)
1969/12/31/18:00:29.003,(-26 -15 0 1 1 -7 -27 -22)
1969/12/31/18:00:29.003,(113 60 4 -7 -8 -5 15 13)
1969/12/31/18:00:29.017,(-86 -7 7 -1 -7 -1 -18 -67)
1969/12/31/18:00:29.017,(95 30 3 0 6 -9 11 44)
1969/12/31/18:00:29.018,(-13 -26 10 8 3 9 -8 14)
1969/12/31/18:00:29.018,(7 -12 -6 3 9 -2 2 13)
1969/12/31/18:00:29.040,(-19 20 -10 -17 -12 -2 9 -36)
1969/12/31/18:00:29.040,(8 36 29 20 12 5 -13 -47)
1969/12/31/18:00:29.040,(-73 -25 -15 -9 -10 -12 -43 -68)
1969/12/31/18:00:29.040,(-88 -63 -26 -19 -10 -19 -22 -38)
1969/12/31/18:00:29.062,(80 -37 1 14 15 18 34 54)
1969/12/31/18:00:29.062,(-24 76 0 -11 -18 -12 -14 -20)
1969/12/31/18:00:29.063,(21 41 40 17 9 5 -2 25)
1969/12/31/18:00:29.063,(-7 9 -9 1 8 -1 6 0)
1969/12/31/18:00:29.077,(0 -1 16 -2 -12 -5 -3 -2)
1969/12/31/18:00:29.077,(-34 -100 -44 -11 -1 1 -11 -24)
1969/12/31/18:00:29.078,(-5 21 -10 -6 -6 -6 -8 -13)
1969/12/31/18:00:29.078,(-13 -7 -6 0 -2 -3 3 12)
1969/12/31/18:00:29.108,(29 21 16 1 1 5 4 -3)
1969/12/31/18:00:29.108,(26 32 13 5 2 4 5 19)
1969/12/31/18:00:29.108,(-15 -2 -1 3 3 0 -5 -7)
1969/12/31/18:00:29.108,(12 -6 -4 -5 -2 -3 4 12)
1969/12/31/18:00:29.122,(18 15 -1 -5 -9 -3 -5 6)
1969/12/31/18:00:29.122,(-12 2 22 11 10 5 7 0)
1969/12/31/18:00:29.123,(11 -17 -10 7 -1 -1 0 14)
1969/12/31/18:00:29.123,(-9 4 2 6 3 -1 -2 2)
1969/12/31/18:00:29.137,(-4 -1 -1 -3 -1 -3 -3 -11)
1969/12/31/18:00:29.137,(-7 -1 1 3 3 3 1 8)
1969/12/31/18:00:29.138,(-12 -24 -12 -11 -2 0 -2 -5)
1969/12/31/18:00:29.138,(20 18 -2 0 -1 -4 -1 4)
1969/12/31/18:00:29.160,(-6 8 -1 -5 -7 -6 -7 -8)
1969/12/31/18:00:29.160,(4 -5 -4 -4 -2 -1 3 3)
1969/12/31/18:00:29.160,(8 12 14 7 6 1 1 7)
1969/12/31/18:00:29.160,(-9 -5 5 3 1 1 6 1)
1969/12/31/18:00:29.182,(11 -9 -2 -1 -1 1 1 8)
1969/12/31/18:00:29.182,(-21 -12 -9 -6 -3 -3 -1 -6)
1969/12/31/18:00:29.183,(-3 -2 -2 3 4 1 -3 -4)
1969/12/31/18:00:29.183,(-2 9 9 -3 1 4 11 10)
1969/12/31/18:00:29.199,(-17 -28 -23 -14 -11 -12 -18 -28)
1969/12/31/18:00:29.199,(14 20 8 11 9 6 7 12)
1969/12/31/18:00:29.199,(20 18 11 4 -1 0 -2 1)
1969/12/31/18:00:29.199,(-40 -52 -34 -13 -7 -8 -8 -11)
1969/12/31/18:00:29.220,(34 63 43 18 10 4 4 14)
1969/12/31/18:00:29.220,(4 -13 -9 -3 4 7 5 7)
1969/12/31/18:00:29.220,(-19 -14 -14 -13 -12 -11 -13 -9)
1969/12/31/18:00:29.220,(0 -15 -7 -1 0 1 -2 0)
1969/12/31/18:00:29.242,(-5 -21 -26 -11 -4 -1 2 0)
1969/12/31/18:00:29.242,(6 33 36 10 0 -2 -6 -2)
1969/12/31/18:00:29.250,(7 6 -4 -2 -1 0 4 8)
1969/12/31/18:00:29.250,(2 -33 -14 -10 -6 -5 -5 -3)
1969/12/31/18:00:29.257,(-6 25 -3 2 1 -3 -5 -3)
1969/12/31/18:00:29.257,(5 10 -3 -5 -5 -4 0 -3)
1969/12/31/18:00:29.258,(-1 -28 -7 6 7 8 9 9)
1969/12/31/18:00:29.258,(1 41 17 -3 -5 -4 -9 -7)
1969/12/31/18:00:29.280,(-10 -33 -14 -2 -5 -11 -2 -1)
1969/12/31/18:00:29.280,(-1 4 4 2 3 2 -3 1)
1969/12/31/18:00:29.280,(6 -5 -21 0 3 11 19 6)
1969/12/31/18:00:29.280,(-1 1 22 0 -3 -1 -4 6)
1969/12/31/18:00:29.302,(0 0 3 2 1 4 9 3)
1969/12/31/18:00:29.302,(0 1 -15 -13 -7 -9 -4 -1)
1969/12/31/18:00:29.303,(-4 -29 -23 -10 -5 -5 -5 1)
1969/12/31/18:00:29.303,(9 12 14 7 6 5 3 -1)
1969/12/31/18:00:29.317,(-6 -24 -11 -10 -6 -1 -4 1)
1969/12/31/18:00:29.317,(1 42 26 19 8 2 -3 -5)
1969/12/31/18:00:29.318,(9 21 14 5 2 3 5 3)
1969/12/31/18:00:29.318,(1 3 -5 0 -2 -3 -11 -6)
1969/12/31/18:00:29.340,(-11 -52 -24 -6 -1 0 -1 0)
1969/12/31/18:00:29.340,(4 18 3 -5 -3 2 7 4)
1969/12/31/18:00:29.340,(2 5 1 0 -1 -5 -6 -3)
1969/12/31/18:00:29.340,(2 10 5 2 0 0 0 -2)
1969/12/31/18:00:29.362,(1 18 3 2 0 0 -5 -5)
1969/12/31/18:00:29.362,(-7 -36 -15 -7 -4 4 8 2)
1969/12/31/18:00:29.363,(-4 1 10 0 -4 -3 -12 -6)
1969/12/31/18:00:29.363,(-3 -16 -22 -12 -7 -6 -1 -2)
1969/12/31/18:00:29.377,(7 35 19 9 6 3 4 4)
1969/12/31/18:00:29.377,(0 -17 -6 0 -2 -1 0 0)
1969/12/31/18:00:29.378,(3 20 29 6 1 -4 -4 -1)
1969/12/31/18:00:29.378,(-3 -21 -27 -9 -2 -1 0 3)
1969/12/31/18:00:29.400,(-1 -18 11 3 2 5 1 -2)
1969/12/31/18:00:29.400,(-4 17 4 3 -1 -2 -3 -6)
1969/12/31/18:00:29.400,(4 6 2 -6 -6 -4 -5 -5)
1969/12/31/18:00:29.400,(4 26 30 12 6 4 4 4)
1969/12/31/18:00:29.422,(-5 -13 7 4 0 1 5 6)
1969/12/31/18:00:29.422,(4 15 -19 -12 -3 -4 -6 -2)
1969/12/31/18:00:29.423,(-1 -18 -14 -1 -2 -1 -1 -1)
1969/12/31/18:00:29.423,(-3 -5 -8 -3 -1 -2 -1 -3)
1969/12/31/18:00:29.436,(7 31 35 10 3 1 1 2)
1969/12/31/18:00:29.436,(-16 -65 -21 -4 -4 -3 -2 -4)
1969/12/31/18:00:29.445,(7 50 30 4 -2 -2 -2 -4)
1969/12/31/18:00:29.445,(-2 -12 -4 8 3 -1 -1 -1)
1969/12/31/18:00:29.460,(8 2 -25 -10 -5 2 1 6)
1969/12/31/18:00:29.460,(-6 -15 -7 -3 -2 -5 -10 -7)
1969/12/31/18:00:29.461,(4 11 23 10 5 3 7 1)
1969/12/31/18:00:29.461,(-7 -32 -31 -19 -10 -4 -2 1)
1969/12/31/18:00:29.482,(-8 18 6 8 3 -2 -4 -11)
1969/12/31/18:00:29.482,(-3 -13 -11 -6 -3 -1 0 3)
1969/12/31/18:00:29.483,(-2 -17 -21 -12 -9 -7 -9 -10)
1969/12/31/18:00:29.483,(-9 -6 -19 -14 -5 -1 0 -3)
1969/12/31/18:00:29.497,(6 11 21 2 -4 -1 0 2)
1969/12/31/18:00:29.497,(-2 -30 -25 5 6 1 1 3)
1969/12/31/18:00:29.498,(-4 3 2 4 2 3 -3 -5)
1969/12/31/18:00:29.498,(-5 -25 -5 -5 -4 -3 1 -3)
1969/12/31/18:00:29.528,(1 17 6 -1 2 -1 -1 0)
1969/12/31/18:00:29.528,(-5 -9 -3 -8 -4 -2 -2 -3)
1969/12/31/18:00:29.529,(-8 -15 -17 -14 -5 -4 -3 -4)
1969/12/31/18:00:29.529,(21 45 41 28 13 6 4 7)
1969/12/31/18:00:29.535,(-4 5 3 -1 -1 1 -1 0)
1969/12/31/18:00:29.535,(5 -1 1 2 -2 -2 3 6)
1969/12/31/18:00:29.536,(-10 -21 -10 -10 -1 -2 -2 -4)
1969/12/31/18:00:29.536,(3 -15 -20 -6 -2 1 3 7)
1969/12/31/18:00:29.559,(-3 21 32 10 3 -4 -3 -9)
1969/12/31/18:00:29.559,(-2 -6 25 7 -2 1 0 -1)
1969/12/31/18:00:29.559,(5 25 -26 -14 -3 -5 -4 -4)
1969/12/31/18:00:29.559,(-1 -19 -18 -5 3 0 -1 1)
1969/12/31/18:00:29.572,(-6 -27 -17 -2 1 0 0 1)
1969/12/31/18:00:29.572,(3 4 -9 -9 -2 2 0 -1)
1969/12/31/18:00:29.579,(-4 -4 24 12 1 3 -1 1)
1969/12/31/18:00:29.579,(-6 8 -4 -7 -6 -5 -3 -4)
1969/12/31/18:00:29.595,(0 -10 -16 -9 -6 -3 -2 -1)
1969/12/31/18:00:29.595,(-4 8 -5 -1 -1 0 -3 -5)
1969/12/31/18:00:29.602,(-3 -21 -35 -20 -5 -3 0 3)
1969/12/31/18:00:29.602,(5 16 18 9 3 1 0 1)
1969/12/31/18:00:29.609,(-5 -18 -2 -2 -7 -1 0 0)
1969/12/31/18:00:29.609,(10 26 58 28 10 3 2 6)
1969/12/31/18:00:29.617,(-7 -7 5 3 0 0 0 -1)
1969/12/31/18:00:29.617,(-1 11 11 6 2 1 -1 -5)
1969/12/31/18:00:29.631,(-4 -23 -20 -10 -4 -3 0 1)
1969/12/31/18:00:29.631,(0 -7 -17 -5 -1 -2 -3 -3)
1969/12/31/18:00:29.639,(1 -4 9 9 4 1 1 2)
1969/12/31/18:00:29.639,(10 36 23 14 4 1 3 0)
1969/12/31/18:00:29.655,(-2 -4 -11 -6 -2 -1 -1 -2)
1969/12/31/18:00:29.655,(-3 -5 2 -1 -2 -3 -5 -4)
1969/12/31/18:00:29.655,(2 7 0 1 0 -1 0 0)
1969/12/31/18:00:29.655,(-5 -10 -6 -7 -4 -2 0 -1)
1969/12/31/18:00:29.669,(4 3 -6 -1 0 -1 -1 0)
1969/12/31/18:00:29.669,(0 4 -4 -2 0 -2 1 -1)
1969/12/31/18:00:29.677,(3 -2 3 4 0 0 1 5)
1969/12/31/18:00:29.677,(-10 1 -2 -6 -7 -3 -5 -9)
1969/12/31/18:00:29.691,(6 10 5 0 0 1 0 1)
1969/12/31/18:00:29.691,(-8 -8 2 -7 -6 -3 -2 -4)
1969/12/31/18:00:29.699,(-1 -5 -14 -8 -3 -2 -3 -5)
1969/12/31/18:00:29.699,(-1 -1 12 5 0 -1 -1 -1)
1969/12/31/18:00:29.714,(2 10 9 7 3 -1 -3 -3)
1969/12/31/18:00:29.714,(1 -7 -20 -8 -2 -1 2 2)
1969/12/31/18:00:29.722,(2 2 1 4 2 2 1 3)
1969/12/31/18:00:29.722,(-1 0 -7 1 1 1 -2 -3)
1969/12/31/18:00:29.731,(-9 -12 -11 -3 0 1 -1 -3)
1969/12/31/18:00:29.731,(10 11 3 -1 -1 2 2 4)
1969/12/31/18:00:29.736,(-10 -6 -2 -4 -3 -2 -3 -7)
1969/12/31/18:00:29.736,(5 7 7 4 4 2 0 3)
1969/12/31/18:00:29.752,(3 2 2 -1 -1 0 1 3)
1969/12/31/18:00:29.752,(-2 -5 -2 -3 0 -1 0 0)
1969/12/31/18:00:29.759,(5 4 4 4 1 -2 0 2)
1969/12/31/18:00:29.759,(-2 -5 -2 -6 -4 -1 -2 -1)
1969/12/31/18:00:29.774,(1 3 -4 -5 -4 -3 0 0)
1969/12/31/18:00:29.774,(-6 -10 -5 1 3 1 -1 -1)
1969/12/31/18:00:29.782,(7 9 15 7 2 0 2 1)
1969/12/31/18:00:29.782,(-3 0 -3 -1 -1 -3 0 -2)
1969/12/31/18:00:29.789,(5 5 1 2 -1 -1 0 2)
1969/12/31/18:00:29.789,(-11 -11 -5 -4 -4 -4 -2 -10)
1969/12/31/18:00:29.797,(-1 -1 -6 -5 -3 -2 -2 -1)
1969/12/31/18:00:29.797,(-3 -8 -5 -8 -3 -5 -2 -5)
1969/12/31/18:00:29.811,(3 13 -10 4 4 2 1 1)
1969/12/31/18:00:29.811,(0 -2 0 1 -1 1 1 -1)
1969/12/31/18:00:29.835,(1 -3 0 1 0 0 -3 0)
1969/12/31/18:00:29.835,(0 -1 -4 -6 -2 -2 -1 0)
1969/12/31/18:00:29.837,(-4 -8 -10 -8 -4 -2 -2 -2)
1969/12/31/18:00:29.837,(1 1 3 -1 -3 -3 -3 0)
1969/12/31/18:00:29.842,(-1 3 -3 2 -2 -1 0 0)
1969/12/31/18:00:29.842,(0 1 2 2 2 0 0 1)
1969/12/31/18:00:29.857,(-4 -3 -3 -2 -3 -3 -2 -4)
1969/12/31/18:00:29.857,(-2 -3 -8 -3 -1 0 -1 -2)
1969/12/31/18:00:29.858,(-1 -2 3 -3 -2 -1 -2 -1)
1969/12/31/18:00:29.858,(0 2 3 0 -2 0 0 -1)
1969/12/31/18:00:29.871,(-2 0 -1 -2 -1 -3 -2 -3)
1969/12/31/18:00:29.871,(0 0 1 1 5 1 1 1)
1969/12/31/18:00:29.879,(-2 0 -6 -3 -2 0 -2 -1)
1969/12/31/18:00:29.879,(1 5 6 4 2 0 0 -1)
1969/12/31/18:00:29.894,(-3 -3 0 1 2 -2 -1 -2)
1969/12/31/18:00:29.894,(0 -3 -2 0 -1 -1 0 -2)
1969/12/31/18:00:29.902,(-1 0 -6 0 -2 0 1 -1)
1969/12/31/18:00:29.902,(1 4 2 -1 -4 1 -1 1)
1969/12/31/18:00:29.918,(0 -5 0 0 -1 -4 0 -2)
1969/12/31/18:00:29.919,(-3 -1 6 4 2 -3 0 -2)
1969/12/31/18:00:29.919,(3 5 5 4 6 0 1 0)
1969/12/31/18:00:29.919,(0 -3 -6 -5 -3 -1 -1 -2)
1969/12/31/18:00:29.931,(-4 -9 -8 -2 -2 5 -3 -2)
1969/12/31/18:00:29.932,(1 3 3 0 0 3 1 -1)
1969/12/31/18:00:29.939,(-1 -3 -1 -1 0 0 -2 -2)
1969/12/31/18:00:29.939,(-2 -4 -3 0 0 -1 -2 1)
1969/12/31/18:00:29.954,(-2 -1 -2 -3 -2 -3 0 0)
1969/12/31/18:00:29.954,(-2 -4 0 -2 -1 -1 -1 -1)
1969/12/31/18:00:29.962,(0 -2 -1 0 -2 1 -1 1)
1969/12/31/18:00:29.962,(-1 1 0 0 -2 -3 0 -1)
1969/12/31/18:00:29.977,(-3 -6 -5 -1 0 -2 0 -2)
1969/12/31/18:00:29.977,(-2 0 2 -6 -7 -2 -4 -1)
1969/12/31/18:00:29.978,(-2 -7 -6 -2 1 -1 0 -1)
1969/12/31/18:00:29.978,(0 -1 1 3 2 0 -1 -1)
1969/12/31/18:00:29.991,(0 4 7 0 0 0 0 0)
1969/12/31/18:00:29.991,(-1 -1 -6 -4 -4 -3 -3 -2)
1969/12/31/18:00:29.999,(-2 -3 -1 -2 -2 -1 0 0)
1969/12/31/18:00:29.999,(-1 1 -1 0 -1 -2 -1 0)
