time,.data
1969/12/31/18:00:14.879,(0 3 -1 -2 -1 -4 -4 -3)
1969/12/31/18:00:14.879,(-2 -1 0 -13 -23 -9 1 1)
1969/12/31/18:00:14.880,(1 2 -3 7 21 2 -2 -3)
1969/12/31/18:00:14.880,(-3 2 -3 -2 -5 -6 -6 -7)
1969/12/31/18:00:14.903,(-1 -5 -3 -1 -2 -1 -1 -2)
1969/12/31/18:00:14.903,(0 0 0 -6 -15 -4 -1 0)
1969/12/31/18:00:14.904,(0 -1 2 -1 2 -2 0 1)
1969/12/31/18:00:14.904,(0 -3 -2 3 5 3 3 3)
1969/12/31/18:00:14.925,(1 4 5 6 7 3 2 4)
1969/12/31/18:00:14.925,(-1 -2 -3 -4 -2 -1 -4 -1)
1969/12/31/18:00:14.926,(-4 -7 -4 -8 -20 -4 -3 -3)
1969/12/31/18:00:14.926,(-1 0 0 -2 5 2 0 0)
1969/12/31/18:00:14.940,(1 4 4 4 3 1 2 2)
1969/12/31/18:00:14.940,(-6 -9 -7 -2 5 2 -1 -2)
1969/12/31/18:00:14.940,(-2 2 0 -4 -5 -4 -2 -3)
1969/12/31/18:00:14.940,(-1 2 -1 4 5 3 1 0)
1969/12/31/18:00:14.962,(0 -1 -5 -6 -6 -1 -1 -1)
1969/12/31/18:00:14.962,(0 2 4 5 6 1 1 0)
1969/12/31/18:00:14.963,(-2 -11 -3 -1 -2 -2 -2 -1)
1969/12/31/18:00:14.963,(1 0 1 -6 -5 -3 -1 0)
1969/12/31/18:00:14.985,(-2 -1 -6 -2 -3 -2 0 -1)
1969/12/31/18:00:14.985,(-3 1 6 9 14 4 -2 -2)
1969/12/31/18:00:14.986,(0 1 -6 -2 -1 8 0 -3)
1969/12/31/18:00:14.986,(0 -4 -3 3 0 7 1 1)
1969/12/31/18:00:15.000,(-3 -2 11 4 4 -2 -2 -2)
1969/12/31/18:00:15.000,(-2 -2 -2 -1 0 -4 -3 -3)
1969/12/31/18:00:15.000,(0 2 5 5 -5 -11 -1 -1)
1969/12/31/18:00:15.000,(-2 -4 -7 -9 -5 -11 -2 0)
1969/12/31/18:00:15.023,(1 0 -7 -7 -1 -2 1 0)
1969/12/31/18:00:15.023,(2 2 7 6 4 2 1 1)
1969/12/31/18:00:15.023,(-1 4 10 6 0 0 0 -3)
1969/12/31/18:00:15.023,(-2 -5 -4 0 -1 -1 0 -2)
1969/12/31/18:00:15.045,(-3 -9 -18 -21 -8 -5 -2 -3)
1969/12/31/18:00:15.045,(-1 -1 1 12 2 2 0 -2)
1969/12/31/18:00:15.046,(5 6 14 23 6 3 3 3)
1969/12/31/18:00:15.046,(-1 1 -1 5 3 -1 -2 1)
1969/12/31/18:00:15.060,(-3 -5 -6 -17 -9 -4 -3 -4)
1969/12/31/18:00:15.060,(-6 -11 -21 -53 -18 -6 -5 -5)
1969/12/31/18:00:15.060,(0 -1 -29 3 1 0 -2 -1)
1969/12/31/18:00:15.060,(5 14 55 23 10 5 3 2)
1969/12/31/18:00:15.090,(2 3 13 23 5 2 0 0)
1969/12/31/18:00:15.090,(-5 -11 -17 -11 -4 -2 -3 -3)
1969/12/31/18:00:15.091,(-4 -9 -65 -55 -13 -4 -2 -2)
1969/12/31/18:00:15.091,(0 3 53 35 4 -1 0 -1)
1969/12/31/18:00:15.105,(2 2 -26 30 8 5 0 0)
1969/12/31/18:00:15.105,(1 5 35 -5 1 1 1 -1)
1969/12/31/18:00:15.106,(4 7 24 36 7 5 2 2)
1969/12/31/18:00:15.106,(3 9 15 -21 -4 -1 4 2)
1969/12/31/18:00:15.119,(-10 -14 1 -18 -9 -3 -3 -5)
1969/12/31/18:00:15.119,(-3 -9 -63 -19 -9 -11 -20 -11)
1969/12/31/18:00:15.127,(0 0 38 22 11 13 4 2)
1969/12/31/18:00:15.127,(3 3 -15 10 12 8 3 2)
1969/12/31/18:00:15.143,(5 10 20 11 -2 -4 0 3)
1969/12/31/18:00:15.143,(0 0 4 14 8 -1 4 4)
1969/12/31/18:00:15.143,(-7 -10 -23 -60 -12 -14 -10 -8)
1969/12/31/18:00:15.144,(-9 -13 -47 -31 -31 -20 -9 -11)
1969/12/31/18:00:15.164,(-3 -5 -1 -24 14 4 -3 0)
1969/12/31/18:00:15.164,(13 23 28 39 -1 7 10 10)
1969/12/31/18:00:15.172,(11 23 49 59 38 8 0 3)
1969/12/31/18:00:15.172,(-4 -13 -29 -28 -2 6 0 -1)
1969/12/31/18:00:15.180,(-9 -20 -52 -50 -23 -15 -14 -16)
1969/12/31/18:00:15.180,(2 4 -2 -2 5 3 3 3)
1969/12/31/18:00:15.180,(2 7 38 23 0 -5 2 5)
1969/12/31/18:00:15.180,(10 13 6 -1 0 2 2 5)
1969/12/31/18:00:15.203,(-10 -23 -22 -6 7 4 0 -3)
1969/12/31/18:00:15.203,(-8 -16 -38 -31 -16 -10 -6 -7)
1969/12/31/18:00:15.203,(-7 -1 -5 -20 -21 -4 4 -7)
1969/12/31/18:00:15.203,(5 17 36 51 36 11 -1 9)
1969/12/31/18:00:15.226,(13 32 36 56 3 -5 -1 -1)
1969/12/31/18:00:15.226,(10 23 72 32 19 13 8 7)
1969/12/31/18:00:15.227,(-7 -23 -42 -43 -15 -5 -5 -4)
1969/12/31/18:00:15.227,(-18 -30 -57 -52 -25 -11 -2 -8)
1969/12/31/18:00:15.240,(4 8 23 22 8 -2 -1 -2)
1969/12/31/18:00:15.240,(5 3 -15 -10 -2 -3 0 5)
1969/12/31/18:00:15.240,(-1 1 0 -11 -4 -1 1 0)
1969/12/31/18:00:15.240,(-5 -16 -29 -71 -10 -3 -3 -3)
1969/12/31/18:00:15.263,(1 6 -11 49 -2 -2 -7 -5)
1969/12/31/18:00:15.263,(2 4 20 26 9 1 1 -2)
1969/12/31/18:00:15.264,(-5 -10 0 -2 -9 -3 -2 0)
1969/12/31/18:00:15.264,(-2 -4 3 20 -2 -2 -3 -1)
1969/12/31/18:00:15.284,(-2 -8 -2 -27 -6 3 2 2)
1969/12/31/18:00:15.285,(-11 -18 -26 -8 -3 0 1 -2)
1969/12/31/18:00:15.292,(5 9 4 2 -1 -1 -3 2)
1969/12/31/18:00:15.292,(-5 -5 2 13 1 -1 -3 -7)
1969/12/31/18:00:15.299,(-2 -4 -9 -20 -3 0 2 3)
1969/12/31/18:00:15.299,(-6 -22 -10 10 1 -2 -3 -1)
1969/12/31/18:00:15.300,(1 23 2 -12 -3 -2 -2 -1)
1969/12/31/18:00:15.300,(3 9 4 10 0 -1 0 -1)
1969/12/31/18:00:15.322,(-1 2 7 -3 -3 2 3 8)
1969/12/31/18:00:15.322,(-4 9 7 -8 0 -1 -4 -12)
1969/12/31/18:00:15.330,(-14 -35 -20 -11 -8 -4 -2 -1)
1969/12/31/18:00:15.330,(7 -8 -16 1 -2 -2 -1 9)
1969/12/31/18:00:15.345,(1 6 16 4 1 0 -3 -9)
1969/12/31/18:00:15.345,(-13 -10 -7 -10 -3 0 1 1)
1969/12/31/18:00:15.346,(1 10 3 7 3 1 -5 -25)
1969/12/31/18:00:15.346,(6 4 4 15 3 1 5 11)
1969/12/31/18:00:15.360,(57 1 -9 -17 -7 -2 9 52)
1969/12/31/18:00:15.360,(-41 -13 -4 -5 -6 -4 -3 -17)
1969/12/31/18:00:15.360,(9 -1 4 11 3 2 1 -3)
1969/12/31/18:00:15.360,(20 20 4 -1 -2 -3 -10 -11)
1969/12/31/18:00:15.383,(-59 -15 6 -4 3 9 7 -44)
1969/12/31/18:00:15.383,(73 23 -2 -1 -6 -16 -14 72)
1969/12/31/18:00:15.384,(8 7 3 9 4 4 4 1)
1969/12/31/18:00:15.384,(1 5 1 0 -2 -7 -7 -10)
1969/12/31/18:00:15.405,(8 -6 -5 -5 1 14 3 14)
1969/12/31/18:00:15.405,(-16 11 14 16 10 1 7 -24)
1969/12/31/18:00:15.407,(-72 -45 -16 -9 -6 -10 -32 -35)
1969/12/31/18:00:15.407,(21 18 5 2 -3 -2 6 15)
1969/12/31/18:00:15.419,(-50 -14 3 3 0 -10 -11 -28)
1969/12/31/18:00:15.419,(44 16 2 -1 4 13 21 50)
1969/12/31/18:00:15.428,(44 17 -4 -3 -3 -3 22 30)
1969/12/31/18:00:15.428,(-11 -8 -4 -1 -1 11 -6 -30)
1969/12/31/18:00:15.443,(-61 -17 5 0 4 -7 -24 -53)
1969/12/31/18:00:15.443,(21 9 -1 -7 -7 -2 -9 -21)
1969/12/31/18:00:15.444,(-6 1 -5 -2 7 17 10 -6)
1969/12/31/18:00:15.444,(-57 -25 -2 2 3 -9 -16 -19)
1969/12/31/18:00:15.465,(43 -7 -3 1 -5 -11 3 62)
1969/12/31/18:00:15.465,(-30 -14 -3 -1 0 11 1 -19)
1969/12/31/18:00:15.467,(15 15 0 -7 1 -15 0 27)
1969/12/31/18:00:15.467,(-17 -4 -7 -4 4 3 -10 -42)
1969/12/31/18:00:15.488,(36 3 4 -3 -12 8 -6 -5)
1969/12/31/18:00:15.488,(-3 -1 -5 2 21 0 12 34)
1969/12/31/18:00:15.489,(-47 -31 -11 -1 -2 -8 -20 -36)
1969/12/31/18:00:15.489,(18 14 6 3 -3 5 8 22)
1969/12/31/18:00:15.503,(-14 -3 -1 -6 -6 -13 2 -8)
1969/12/31/18:00:15.503,(50 33 2 -6 -6 5 9 18)
1969/12/31/18:00:15.504,(-9 -37 -7 3 -13 -20 -3 1)
1969/12/31/18:00:15.504,(58 47 15 4 17 19 33 54)
1969/12/31/18:00:15.525,(12 35 11 7 -1 -30 -14 -18)
1969/12/31/18:00:15.525,(-93 -68 -13 -1 3 -3 -24 -62)
1969/12/31/18:00:15.527,(31 35 3 -3 -6 25 -8 19)
1969/12/31/18:00:15.527,(47 -33 -13 -2 -4 -7 29 84)
1969/12/31/18:00:15.539,(-9 4 -3 -4 5 4 3 -27)
1969/12/31/18:00:15.539,(49 18 8 9 0 2 2 35)
1969/12/31/18:00:15.548,(51 25 7 3 0 3 10 33)
1969/12/31/18:00:15.548,(-46 -14 -5 -4 -8 -12 -15 -27)
1969/12/31/18:00:15.562,(45 20 -2 -2 1 15 23 23)
1969/12/31/18:00:15.562,(-74 -29 -5 -3 -8 -6 -35 -53)
1969/12/31/18:00:15.569,(2 23 11 5 3 1 23 -12)
1969/12/31/18:00:15.569,(23 13 -4 -7 -11 -11 -33 -22)
1969/12/31/18:00:15.593,(-43 -45 -17 -7 1 4 8 19)
1969/12/31/18:00:15.593,(13 14 3 -4 -6 -5 12 -14)
1969/12/31/18:00:15.600,(-20 -14 -1 2 3 1 -11 -27)
1969/12/31/18:00:15.600,(-45 -7 7 5 3 -6 -23 -82)
1969/12/31/18:00:15.600,(26 -1 1 4 1 17 0 72)
1969/12/31/18:00:15.600,(-44 -13 -12 -9 3 -22 44 -49)
1969/12/31/18:00:15.608,(83 32 7 3 -5 -6 -1 87)
1969/12/31/18:00:15.608,(-59 -56 -22 -8 -3 6 8 -21)
1969/12/31/18:00:15.622,(-12 6 11 4 2 -11 -18 -51)
1969/12/31/18:00:15.622,(71 29 14 5 1 10 11 89)
1969/12/31/18:00:15.629,(-39 -31 -11 -7 -2 -7 2 -13)
1969/12/31/18:00:15.629,(35 24 5 5 2 -3 -5 3)
1969/12/31/18:00:15.645,(-10 -1 -6 -11 -7 -8 -11 -18)
1969/12/31/18:00:15.645,(12 8 6 5 -2 1 9 34)
1969/12/31/18:00:15.647,(-66 -19 -5 -4 -2 1 -7 -48)
1969/12/31/18:00:15.647,(2 -21 -1 1 -3 4 12 46)
1969/12/31/18:00:15.659,(29 36 6 2 2 5 -2 -35)
1969/12/31/18:00:15.659,(-47 -26 -19 -12 -15 -10 -26 -36)
1969/12/31/18:00:15.668,(27 1 -4 -3 -1 -4 -15 33)
1969/12/31/18:00:15.668,(40 -10 -4 -2 0 -7 -14 5)
1969/12/31/18:00:15.682,(-15 16 8 4 10 14 32 11)
1969/12/31/18:00:15.682,(13 3 2 -1 -3 0 -12 -34)
1969/12/31/18:00:15.689,(17 -15 -8 -3 -3 0 15 42)
1969/12/31/18:00:15.689,(-3 13 0 -7 5 -3 6 -14)
1969/12/31/18:00:15.705,(-13 14 5 5 7 45 12 12)
1969/12/31/18:00:15.705,(81 -8 -12 -4 -11 -25 -13 56)
1969/12/31/18:00:15.707,(-24 8 8 3 -1 -11 8 -18)
1969/12/31/18:00:15.707,(-49 -12 2 1 -5 3 -11 -23)
1969/12/31/18:00:15.719,(15 17 5 1 8 1 9 -1)
1969/12/31/18:00:15.719,(-43 -55 -13 -2 6 8 5 -13)
1969/12/31/18:00:15.728,(19 15 5 4 4 5 -2 9)
1969/12/31/18:00:15.728,(-16 21 1 2 -1 0 13 -5)
1969/12/31/18:00:15.742,(62 9 1 -1 -2 -11 0 24)
1969/12/31/18:00:15.742,(-25 10 1 -2 -6 0 -16 -24)
1969/12/31/18:00:15.749,(-5 -3 -6 -4 0 -2 5 -14)
1969/12/31/18:00:15.749,(-12 -1 -7 -6 -6 -4 -24 -51)
1969/12/31/18:00:15.765,(2 16 14 4 -4 -4 3 18)
1969/12/31/18:00:15.765,(-8 -2 -3 -3 2 8 3 14)
1969/12/31/18:00:15.767,(-44 -40 4 2 1 4 9 26)
1969/12/31/18:00:15.767,(14 -1 -2 3 5 3 11 30)
1969/12/31/18:00:15.788,(-46 -12 -7 -5 -9 -19 -34 -69)
1969/12/31/18:00:15.788,(20 10 7 -1 -2 -10 -22 -4)
1969/12/31/18:00:15.789,(-7 39 6 -6 -26 -21 -6 -14)
1969/12/31/18:00:15.789,(-36 -39 -12 2 6 28 22 19)
1969/12/31/18:00:15.802,(-31 -39 -10 -2 1 -9 -14 5)
1969/12/31/18:00:15.802,(-17 -6 -1 4 7 12 13 2)
1969/12/31/18:00:15.809,(-10 -14 -6 0 8 7 -9 -43)
1969/12/31/18:00:15.809,(17 16 7 -3 -7 -14 -8 -21)
1969/12/31/18:00:15.825,(-9 -12 -5 -4 -7 -7 3 31)
1969/12/31/18:00:15.825,(-34 3 -1 -1 2 5 -8 -59)
1969/12/31/18:00:15.827,(69 31 7 4 2 4 14 91)
1969/12/31/18:00:15.827,(-32 -15 -5 -4 -4 -8 0 0)
1969/12/31/18:00:15.848,(19 -31 -13 -1 4 6 3 4)
1969/12/31/18:00:15.848,(31 -1 3 -2 -7 -12 -13 -17)
1969/12/31/18:00:15.849,(12 29 2 2 5 5 -19 -34)
1969/12/31/18:00:15.849,(-26 -31 -5 2 4 2 0 -17)
1969/12/31/18:00:15.862,(-15 6 -3 -3 -10 8 16 33)
1969/12/31/18:00:15.862,(-24 -13 -3 -2 -8 -17 -15 -7)
1969/12/31/18:00:15.870,(-29 -29 -11 -4 4 7 6 -11)
1969/12/31/18:00:15.870,(42 31 11 0 -2 -19 -22 -4)
1969/12/31/18:00:15.885,(13 -5 0 2 6 34 35 24)
1969/12/31/18:00:15.885,(30 12 -1 -4 -4 -3 17 45)
1969/12/31/18:00:15.887,(-9 26 14 7 7 -1 -4 -8)
1969/12/31/18:00:15.887,(-32 -36 -16 -8 -8 -9 -23 -18)
1969/12/31/18:00:15.908,(-3 8 10 3 1 -10 -17 -41)
1969/12/31/18:00:15.908,(-16 4 -7 0 1 8 -3 -45)
1969/12/31/18:00:15.909,(38 -17 -17 -12 -8 0 -5 -8)
1969/12/31/18:00:15.909,(46 13 3 0 -2 8 31 74)
1969/12/31/18:00:15.922,(37 40 8 1 -5 -20 -15 -10)
1969/12/31/18:00:15.922,(-54 -31 -8 -1 15 39 6 -19)
1969/12/31/18:00:15.931,(-35 -5 8 6 3 -25 -10 -33)
1969/12/31/18:00:15.931,(19 15 12 4 -14 -5 11 43)
1969/12/31/18:00:15.945,(30 -1 -22 -18 -13 -21 -32 -9)
1969/12/31/18:00:15.945,(-2 -6 -3 -2 -3 -3 5 38)
1969/12/31/18:00:15.947,(-59 -18 -1 1 4 11 9 -34)
1969/12/31/18:00:15.947,(19 5 1 3 -4 9 20 19)
1969/12/31/18:00:15.968,(1 6 0 -10 -20 -8 -20 20)
1969/12/31/18:00:15.968,(24 -8 -3 2 5 5 7 10)
1969/12/31/18:00:15.969,(10 -11 -10 -14 -6 1 3 -11)
1969/12/31/18:00:15.969,(-23 37 8 -7 -13 -28 1 6)
1969/12/31/18:00:15.982,(-28 -60 -17 3 15 28 6 -40)
1969/12/31/18:00:15.982,(-5 6 6 3 -5 -6 6 -7)
1969/12/31/18:00:15.989,(-18 -2 7 18 26 -17 -31 -20)
1969/12/31/18:00:15.989,(18 -8 -17 -27 -50 17 -10 14)
1969/12/31/18:00:16.005,(39 19 -3 -18 -11 -15 11 37)
1969/12/31/18:00:16.005,(43 24 7 9 15 16 12 57)
1969/12/31/18:00:16.007,(-24 -16 0 -1 8 16 8 5)
1969/12/31/18:00:16.007,(45 11 0 1 7 -21 -17 1)
1969/12/31/18:00:16.028,(-35 -8 0 -1 -1 -1 -3 -32)
1969/12/31/18:00:16.028,(-49 2 11 32 37 -6 -14 -67)
1969/12/31/18:00:16.029,(15 24 -1 -24 -78 -12 4 11)
1969/12/31/18:00:16.029,(-16 -29 -14 -11 26 23 4 -12)
1969/12/31/18:00:16.042,(-6 -8 -1 20 17 -3 8 14)
1969/12/31/18:00:16.042,(-18 5 -1 -9 -1 -10 -7 -18)
1969/12/31/18:00:16.051,(33 7 0 6 -3 -1 4 24)
1969/12/31/18:00:16.051,(0 11 3 -14 -12 16 1 -3)
1969/12/31/18:00:16.065,(24 11 -6 -22 -22 -4 7 44)
1969/12/31/18:00:16.065,(-30 -23 -6 4 -2 -13 10 -15)
1969/12/31/18:00:16.067,(35 -21 -12 -7 17 -5 -15 32)
1969/12/31/18:00:16.067,(-18 -7 2 17 14 17 6 17)
1969/12/31/18:00:16.088,(9 27 15 23 17 -4 0 3)
1969/12/31/18:00:16.088,(8 0 -5 -18 -17 -3 3 11)
1969/12/31/18:00:16.089,(31 -8 -3 0 3 14 18 42)
1969/12/31/18:00:16.089,(-36 -4 1 2 -19 -27 -8 -34)
1969/12/31/18:00:16.101,(-12 -2 6 30 35 -13 -10 -30)
1969/12/31/18:00:16.101,(-16 -25 -17 -48 -23 44 -2 7)
1969/12/31/18:00:16.111,(-38 -7 -8 -15 -14 1 -2 -53)
1969/12/31/18:00:16.111,(-2 -2 -3 0 14 -4 -8 -23)
1969/12/31/18:00:16.125,(36 -1 3 8 2 -9 -2 6)
1969/12/31/18:00:16.125,(-3 12 6 2 -40 -59 -10 2)
1969/12/31/18:00:16.127,(17 37 18 20 35 36 -5 -9)
1969/12/31/18:00:16.127,(-26 -22 -10 -1 0 -7 12 -15)
1969/12/31/18:00:16.164,(-18 -5 5 0 6 14 9 10)
1969/12/31/18:00:16.164,(-2 16 4 8 16 -2 -10 -11)
1969/12/31/18:00:16.165,(53 5 -5 -10 -27 -26 -11 -1)
1969/12/31/18:00:16.165,(-7 20 8 21 0 -16 -17 -45)
1969/12/31/18:00:16.166,(-31 -68 -24 -15 -10 -8 -5 -1)
1969/12/31/18:00:16.166,(27 45 13 -10 -8 6 7 1)
1969/12/31/18:00:16.171,(49 7 -2 6 15 5 22 57)
1969/12/31/18:00:16.171,(-31 -22 -2 -2 -3 12 1 -9)
1969/12/31/18:00:16.185,(30 16 -8 11 34 -12 -7 -2)
1969/12/31/18:00:16.185,(-28 -17 -28 -24 -32 -9 -2 -14)
1969/12/31/18:00:16.187,(23 57 72 23 11 3 4 8)
1969/12/31/18:00:16.187,(5 -65 -31 24 43 40 16 27)
1969/12/31/18:00:16.208,(-22 -12 -76 -58 -53 -6 -21 -16)
1969/12/31/18:00:16.208,(-10 92 92 40 26 12 0 7)
1969/12/31/18:00:16.209,(17 65 36 21 12 -10 5 0)
1969/12/31/18:00:16.209,(-25 7 32 20 10 -11 -20 -60)
1969/12/31/18:00:16.221,(-28 -3 1 -5 -23 -11 -6 -13)
1969/12/31/18:00:16.222,(-39 -128 -113 -25 -22 -13 -10 -15)
1969/12/31/18:00:16.238,(-79 -42 -50 -22 -18 -2 -23 -59)
1969/12/31/18:00:16.238,(42 86 49 -13 12 0 6 34)
1969/12/31/18:00:16.245,(11 79 90 40 34 40 18 -11)
1969/12/31/18:00:16.245,(8 -71 -79 -26 -34 -57 -12 21)
1969/12/31/18:00:16.247,(-24 -39 -49 -9 11 11 -9 -51)
1969/12/31/18:00:16.247,(25 -57 -38 -11 -20 3 -9 -1)
1969/12/31/18:00:16.268,(-77 -11 -25 -13 -12 9 9 -31)
1969/12/31/18:00:16.268,(38 124 123 46 41 48 17 8)
1969/12/31/18:00:16.269,(-49 -128 -127 -48 -25 -31 -12 -26)
1969/12/31/18:00:16.269,(-24 61 -54 -21 -6 -48 -25 -23)
1969/12/31/18:00:16.282,(-8 -68 0 21 43 37 -5 -27)
1969/12/31/18:00:16.282,(-51 6 -48 -35 -89 -47 -20 -47)
1969/12/31/18:00:16.291,(32 119 123 28 47 52 11 31)
1969/12/31/18:00:16.291,(41 -37 -93 -44 -24 8 17 37)
1969/12/31/18:00:16.305,(13 88 109 37 0 -26 -12 -6)
1969/12/31/18:00:16.305,(-5 -116 -86 -17 19 -8 4 16)
1969/12/31/18:00:16.307,(20 55 2 24 14 0 13 26)
1969/12/31/18:00:16.307,(24 84 106 28 14 12 -4 18)
1969/12/31/18:00:16.328,(-2 -98 -128 -84 -51 -28 0 -18)
1969/12/31/18:00:16.328,(90 127 127 126 55 50 21 49)
1969/12/31/18:00:16.329,(-38 -128 -114 -36 -6 -18 -19 -22)
1969/12/31/18:00:16.329,(-33 -94 -49 5 9 16 20 -2)
1969/12/31/18:00:16.341,(-5 -121 -90 -28 -16 -10 -5 1)
1969/12/31/18:00:16.341,(-17 -79 -79 -46 -4 6 -8 -27)
1969/12/31/18:00:16.350,(-24 80 89 24 -23 -65 -13 -8)
1969/12/31/18:00:16.350,(-11 -25 12 14 27 32 -2 -36)
1969/12/31/18:00:16.365,(26 -37 2 -9 20 45 28 41)
1969/12/31/18:00:16.365,(64 78 59 24 4 2 12 56)
1969/12/31/18:00:16.367,(-28 -84 -62 6 15 4 5 -6)
1969/12/31/18:00:16.367,(2 -9 -21 -48 -12 11 -18 -9)
1969/12/31/18:00:16.388,(14 104 104 51 -6 -33 -23 -2)
1969/12/31/18:00:16.388,(-10 -119 -84 -16 11 -17 -31 -100)
1969/12/31/18:00:16.389,(-20 -6 -6 -17 -69 -28 -12 -8)
1969/12/31/18:00:16.389,(-25 -7 -15 6 6 -14 0 16)
1969/12/31/18:00:16.401,(5 -12 -54 -26 11 43 24 31)
1969/12/31/18:00:16.401,(-72 -72 -74 -52 -4 -29 -20 -33)
1969/12/31/18:00:16.410,(10 61 15 -6 -4 17 13 49)
1969/12/31/18:00:16.410,(9 9 38 49 1 -19 -13 -36)
1969/12/31/18:00:16.425,(48 -38 -37 41 12 -23 -13 18)
1969/12/31/18:00:16.425,(-30 -66 -60 -42 0 33 6 -2)
1969/12/31/18:00:16.431,(54 13 42 40 26 10 12 -23)
1969/12/31/18:00:16.431,(-66 -86 -115 -52 -22 21 13 26)
1969/12/31/18:00:16.448,(29 92 5 28 -5 -31 7 -12)
1969/12/31/18:00:16.448,(62 -49 3 -21 -10 11 2 100)
1969/12/31/18:00:16.449,(-34 62 38 -12 -10 4 -29 -40)
1969/12/31/18:00:16.449,(92 67 62 38 23 -1 34 70)
1969/12/31/18:00:16.461,(-69 -49 4 -9 -29 -44 -33 -43)
1969/12/31/18:00:16.461,(48 -35 -60 1 10 -4 -10 -37)
1969/12/31/18:00:16.470,(17 -79 -20 11 17 4 0 61)
1969/12/31/18:00:16.470,(39 96 18 -70 -85 -33 -10 -21)
1969/12/31/18:00:16.485,(-50 -35 -14 -7 42 1 2 -5)
1969/12/31/18:00:16.485,(6 80 55 24 5 -9 18 50)
1969/12/31/18:00:16.487,(-55 -79 -19 16 24 11 -2 -28)
1969/12/31/18:00:16.487,(-35 -64 -85 -76 -52 -14 -14 -12)
1969/12/31/18:00:16.508,(27 51 10 3 -14 4 9 8)
1969/12/31/18:00:16.508,(-13 72 88 102 92 44 11 -17)
1969/12/31/18:00:16.509,(-8 -121 -69 54 24 -10 13 -27)
1969/12/31/18:00:16.509,(-21 -5 -28 37 58 17 -15 -8)
1969/12/31/18:00:16.521,(79 112 97 -18 -83 -22 31 71)
1969/12/31/18:00:16.521,(7 -35 -40 -4 -10 -10 -15 -34)
1969/12/31/18:00:16.530,(-46 -36 -40 -51 -56 -10 10 -39)
1969/12/31/18:00:16.530,(-38 -124 -72 -46 -7 -4 3 6)
1969/12/31/18:00:16.545,(-69 -116 -105 -36 8 -16 -36 -51)
1969/12/31/18:00:16.545,(-36 106 77 5 0 25 31 20)
1969/12/31/18:00:16.547,(20 23 -4 -24 2 -12 -12 -4)
1969/12/31/18:00:16.547,(23 71 73 33 7 -9 13 41)
1969/12/31/18:00:16.568,(-54 -101 -50 7 20 -4 -25 -63)
1969/12/31/18:00:16.568,(-16 18 -9 -33 -27 11 -4 -23)
1969/12/31/18:00:16.569,(-1 26 -9 -34 -8 45 11 6)
1969/12/31/18:00:16.569,(2 -64 8 48 24 3 16 24)
1969/12/31/18:00:16.581,(15 54 19 36 55 17 1 7)
1969/12/31/18:00:16.581,(51 46 -22 -20 -50 -32 -7 34)
1969/12/31/18:00:16.596,(-29 -30 -13 -9 -3 -5 -9 -21)
1969/12/31/18:00:16.596,(15 71 94 44 7 10 8 -35)
1969/12/31/18:00:16.605,(-24 -128 -127 -57 -15 4 8 42)
1969/12/31/18:00:16.605,(30 74 100 55 36 -24 -37 -73)
1969/12/31/18:00:16.619,(6 -60 -29 -6 -8 19 5 28)
1969/12/31/18:00:16.619,(58 -58 -93 -12 -14 -83 -37 -27)
1969/12/31/18:00:16.629,(44 100 123 50 48 112 62 35)
1969/12/31/18:00:16.629,(-20 -92 -48 -28 -40 -17 -5 -1)
1969/12/31/18:00:16.631,(-1 -28 -40 19 58 4 -10 7)
1969/12/31/18:00:16.631,(-9 -32 16 -6 -67 -80 -17 -16)
1969/12/31/18:00:16.641,(-14 -45 -65 -38 -17 2 -13 6)
1969/12/31/18:00:16.641,(35 98 107 18 9 48 39 -21)
1969/12/31/18:00:16.650,(65 -74 -24 21 30 -11 16 76)
1969/12/31/18:00:16.650,(-34 4 -13 13 12 15 -17 -31)
1969/12/31/18:00:16.665,(30 30 2 -12 -38 -30 -14 9)
1969/12/31/18:00:16.665,(7 27 43 28 24 17 12 9)
1969/12/31/18:00:16.671,(-66 -70 -41 -16 -26 -53 -3 -3)
1969/12/31/18:00:16.671,(-46 -72 -74 -12 55 61 -5 -20)
1969/12/31/18:00:16.688,(27 80 96 33 -17 -11 -16 -42)
1969/12/31/18:00:16.688,(-18 -109 -99 -33 -36 -22 13 31)
1969/12/31/18:00:16.689,(48 15 -19 -50 -46 -6 -9 0)
1969/12/31/18:00:16.689,(24 -61 10 44 56 30 33 27)
1969/12/31/18:00:16.710,(-33 -19 -46 -25 -36 -47 -7 0)
1969/12/31/18:00:16.710,(-38 -56 -40 4 62 44 5 30)
1969/12/31/18:00:16.712,(-16 51 43 -12 -59 -14 -17 -34)
1969/12/31/18:00:16.712,(-67 -88 -104 -33 -8 -21 -12 10)
1969/12/31/18:00:16.725,(72 66 92 43 21 33 29 52)
1969/12/31/18:00:16.725,(-16 -109 -66 13 -11 -59 -15 5)
1969/12/31/18:00:16.731,(-26 -57 -77 -33 3 38 3 -2)
1969/12/31/18:00:16.731,(30 8 27 22 12 8 -9 -17)
1969/12/31/18:00:16.748,(-26 -112 -103 -48 -4 4 -2 5)
1969/12/31/18:00:16.748,(23 99 82 17 -15 -16 7 -2)
1969/12/31/18:00:16.749,(-33 73 86 39 31 11 -17 -47)
1969/12/31/18:00:16.749,(38 7 -21 -9 -13 6 7 31)
1969/12/31/18:00:16.770,(-76 -86 -48 -17 27 12 -7 -21)
1969/12/31/18:00:16.770,(-41 -13 -13 -38 -50 -23 -20 -47)
1969/12/31/18:00:16.772,(-5 16 -4 -4 -22 -3 7 -2)
1969/12/31/18:00:16.772,(99 53 25 19 31 -13 9 79)
1969/12/31/18:00:16.793,(-2 63 70 23 46 83 27 10)
1969/12/31/18:00:16.793,(-7 -128 -121 -64 -4 -20 -24 -1)
1969/12/31/18:00:16.794,(23 127 102 50 18 20 18 7)
1969/12/31/18:00:16.794,(-26 -24 3 -12 8 11 -4 -5)
1969/12/31/18:00:16.808,(-1 75 73 21 -36 -44 -26 -31)
1969/12/31/18:00:16.808,(16 -101 -116 -38 -17 -7 -3 45)
1969/12/31/18:00:16.809,(85 90 94 61 28 3 19 69)
1969/12/31/18:00:16.809,(-50 -34 5 -4 3 20 9 -14)
1969/12/31/18:00:16.830,(26 -94 -101 -26 -5 -31 -13 16)
1969/12/31/18:00:16.830,(-1 23 61 34 -2 16 4 7)
1969/12/31/18:00:16.832,(-2 -77 -70 -49 -18 -32 -1 55)
1969/12/31/18:00:16.832,(4 123 48 10 -18 24 13 -2)
1969/12/31/18:00:16.845,(-8 -62 -5 -5 -26 -15 -8 -2)
1969/12/31/18:00:16.845,(1 -30 -81 -3 20 17 21 27)
1969/12/31/18:00:16.851,(27 36 33 5 9 9 12 -4)
1969/12/31/18:00:16.851,(-3 -58 -6 1 -18 -12 -8 -5)
1969/12/31/18:00:16.868,(-17 -78 -71 14 39 -27 -18 -14)
1969/12/31/18:00:16.868,(-6 -5 -2 -10 -21 -8 -19 -44)
1969/12/31/18:00:16.869,(39 -21 -28 -22 -17 23 33 59)
1969/12/31/18:00:16.869,(-29 -17 -53 -30 -12 14 -7 -48)
1969/12/31/18:00:16.890,(8 71 81 43 10 2 23 29)
1969/12/31/18:00:16.890,(-34 99 57 41 20 -18 -23 -45)
1969/12/31/18:00:16.892,(-6 -3 -4 3 23 24 -14 -26)
1969/12/31/18:00:16.892,(-22 -68 -26 -25 -29 -22 -4 -7)
1969/12/31/18:00:16.905,(53 -38 -58 -7 17 10 4 11)
1969/12/31/18:00:16.905,(-21 -9 0 -14 -14 5 12 7)
1969/12/31/18:00:16.911,(10 76 82 44 8 -23 -5 -5)
1969/12/31/18:00:16.911,(3 -57 -4 6 -1 -5 -2 -17)
1969/12/31/18:00:16.928,(13 -17 -75 -43 -29 -1 -44 -52)
1969/12/31/18:00:16.928,(-1 49 59 -21 -31 -13 -2 -10)
1969/12/31/18:00:16.929,(-28 -128 -126 -22 18 -17 4 -19)
1969/12/31/18:00:16.929,(3 -12 -29 -18 0 4 -11 8)
1969/12/31/18:00:16.950,(-17 86 76 45 26 18 13 17)
1969/12/31/18:00:16.950,(26 -75 -36 -5 6 26 19 47)
1969/12/31/18:00:16.952,(-64 -39 -60 -44 -53 -61 -63 -101)
1969/12/31/18:00:16.952,(10 127 97 12 15 36 33 20)
1969/12/31/18:00:16.964,(-13 70 59 -6 -31 -36 -27 -60)
1969/12/31/18:00:16.964,(-2 -68 -56 -24 9 20 3 4)
1969/12/31/18:00:16.973,(-31 7 -3 19 29 0 2 21)
1969/12/31/18:00:16.973,(26 -27 -19 16 9 -7 1 14)
1969/12/31/18:00:16.988,(3 91 62 -14 -22 6 9 -2)
1969/12/31/18:00:16.988,(29 88 61 47 39 13 8 27)
1969/12/31/18:00:16.990,(-9 -18 -6 19 2 -8 -2 6)
1969/12/31/18:00:16.990,(-52 -75 -88 -44 -52 -24 -16 -14)
1969/12/31/18:00:17.010,(-4 77 69 16 15 25 5 -15)
1969/12/31/18:00:17.010,(-43 -27 -53 -11 14 -37 -23 -43)
1969/12/31/18:00:17.012,(5 -41 -19 -15 -14 7 9 -3)
1969/12/31/18:00:17.012,(15 17 41 9 -6 37 -1 16)
1969/12/31/18:00:17.024,(-24 -124 -117 -22 1 -9 34 47)
1969/12/31/18:00:17.024,(38 37 51 -5 -9 -18 -12 -26)
1969/12/31/18:00:17.033,(12 -15 -40 -24 -28 -38 -12 11)
1969/12/31/18:00:17.033,(11 93 120 50 33 32 -8 -14)
1969/12/31/18:00:17.048,(44 -111 -105 -5 37 47 33 40)
1969/12/31/18:00:17.048,(23 -55 -44 -10 -9 9 26 53)
1969/12/31/18:00:17.049,(44 116 111 46 27 -3 -5 -22)
1969/12/31/18:00:17.049,(-43 -125 -121 -44 -31 -12 -18 -29)
1969/12/31/18:00:17.070,(0 75 10 -22 -22 -22 -5 -13)
1969/12/31/18:00:17.070,(63 84 93 89 39 19 7 51)
1969/12/31/18:00:17.072,(-60 -127 -124 -21 -12 2 16 15)
1969/12/31/18:00:17.072,(-51 -39 -17 17 43 1 -10 -22)
1969/12/31/18:00:17.084,(-14 -112 -64 -23 -13 -21 -4 -6)
1969/12/31/18:00:17.084,(-67 -128 -85 -42 0 35 -8 -18)
1969/12/31/18:00:17.093,(-26 12 -13 -28 -55 -14 -33 -76)
1969/12/31/18:00:17.093,(-8 127 36 13 13 -2 13 -12)
1969/12/31/18:00:17.108,(35 7 48 32 10 -12 8 61)
1969/12/31/18:00:17.108,(18 38 18 -8 -15 -22 0 11)
1969/12/31/18:00:17.110,(-28 -112 -97 -35 -4 20 -8 -14)
1969/12/31/18:00:17.110,(39 75 43 5 -2 -5 19 41)
1969/12/31/18:00:17.131,(-22 48 82 32 -6 -28 -25 -40)
1969/12/31/18:00:17.131,(-7 -35 -103 -12 19 -14 9 7)
1969/12/31/18:00:17.132,(84 119 127 85 31 81 20 -7)
1969/12/31/18:00:17.132,(-22 -106 -98 -14 -29 -39 -10 -9)
1969/12/31/18:00:17.145,(-79 -109 -61 1 11 -11 -20 -43)
1969/12/31/18:00:17.145,(-11 -36 -72 -49 -36 -4 -5 -11)
1969/12/31/18:00:17.152,(15 -15 -29 -25 5 1 6 35)
1969/12/31/18:00:17.152,(8 78 28 17 12 -5 3 -6)
1969/12/31/18:00:17.168,(5 51 53 29 -5 7 17 38)
1969/12/31/18:00:17.168,(-20 5 40 4 -24 -40 -29 -39)
1969/12/31/18:00:17.170,(-57 -68 -40 -30 -7 13 -10 -53)
1969/12/31/18:00:17.170,(24 -60 -66 -37 -10 -2 -11 -4)
1969/12/31/18:00:17.190,(-7 20 40 62 50 13 28 17)
1969/12/31/18:00:17.190,(-9 -53 -47 -18 -73 -31 -29 -46)
1969/12/31/18:00:17.192,(7 9 -12 -2 2 5 20 28)
1969/12/31/18:00:17.192,(-26 -57 -10 -27 -22 -28 -23 -24)
1969/12/31/18:00:17.204,(-1 -99 -128 -77 -58 -3 7 5)
1969/12/31/18:00:17.204,(39 127 127 86 56 30 7 20)
1969/12/31/18:00:17.213,(32 1 24 8 -1 -19 -9 31)
1969/12/31/18:00:17.213,(-50 -96 -68 -3 13 -2 -1 -6)
1969/12/31/18:00:17.227,(89 24 -64 -20 11 12 -1 39)
1969/12/31/18:00:17.227,(-14 43 25 3 -17 22 15 19)
1969/12/31/18:00:17.235,(14 68 -22 -5 10 4 0 5)
1969/12/31/18:00:17.235,(22 1 27 24 7 -5 -1 5)
1969/12/31/18:00:17.250,(-32 -88 -61 -29 -11 -5 -15 -19)
1969/12/31/18:00:17.250,(-27 -28 -19 -10 19 -7 -2 -13)
1969/12/31/18:00:17.252,(-12 -19 -10 3 -2 -13 0 10)
1969/12/31/18:00:17.252,(7 31 20 17 -14 -10 -3 -2)
1969/12/31/18:00:17.264,(-2 -21 -14 -26 10 6 -16 -25)
1969/12/31/18:00:17.264,(-26 -89 -51 -31 -7 0 -6 -16)
1969/12/31/18:00:17.273,(-31 -100 -96 -37 -6 5 1 -5)
1969/12/31/18:00:17.273,(45 126 114 55 26 24 33 61)
1969/12/31/18:00:17.287,(-57 -82 -10 12 -23 -6 -14 -19)
1969/12/31/18:00:17.287,(-5 -60 -60 -22 -10 2 0 -27)
1969/12/31/18:00:17.296,(-35 -120 -115 -36 9 -15 -12 -11)
1969/12/31/18:00:17.296,(24 47 21 34 38 -9 -5 -5)
1969/12/31/18:00:17.310,(13 77 118 4 -36 15 1 -2)
1969/12/31/18:00:17.310,(55 -32 -84 -18 29 9 16 60)
1969/12/31/18:00:17.312,(19 70 108 57 -21 -5 -22 -29)
1969/12/31/18:00:17.312,(10 -114 -73 -29 -23 1 13 36)
1969/12/31/18:00:17.324,(42 77 -31 5 2 -10 -4 0)
1969/12/31/18:00:17.324,(11 -11 9 -4 -2 -4 3 11)
1969/12/31/18:00:17.340,(-20 6 -8 8 10 9 13 -10)
1969/12/31/18:00:17.340,(42 31 -1 -5 -20 -17 2 31)
1969/12/31/18:00:17.348,(-26 -26 29 10 4 8 -10 -53)
1969/12/31/18:00:17.348,(3 -29 -42 -10 -6 -14 18 76)
1969/12/31/18:00:17.349,(12 -43 -32 -19 2 -12 -10 -16)
1969/12/31/18:00:17.349,(-8 58 86 0 -11 15 -7 -29)
1969/12/31/18:00:17.371,(-36 -75 -72 -29 -19 -40 -1 5)
1969/12/31/18:00:17.371,(20 68 -7 48 63 23 0 -6)
1969/12/31/18:00:17.372,(-23 -19 45 38 -3 -16 -6 0)
1969/12/31/18:00:17.372,(-6 7 -1 -42 -25 46 22 10)
1969/12/31/18:00:17.384,(41 45 47 -2 -17 -14 6 5)
1969/12/31/18:00:17.384,(1 -6 -22 -42 -29 -15 -8 50)
1969/12/31/18:00:17.393,(65 117 90 66 51 26 20 33)
1969/12/31/18:00:17.393,(-11 -108 -90 -16 -1 -14 4 -14)
1969/12/31/18:00:17.408,(-41 14 10 12 16 -5 -23 -21)
1969/12/31/18:00:17.408,(-20 -97 1 4 -27 15 24 -25)
1969/12/31/18:00:17.409,(5 -44 -93 -53 -24 4 6 15)
1969/12/31/18:00:17.410,(22 94 28 0 -7 -10 7 40)
1969/12/31/18:00:17.438,(-19 -42 6 19 21 -2 -4 -11)
1969/12/31/18:00:17.438,(-39 -67 -78 -27 -12 -18 -47 -96)
1969/12/31/18:00:17.440,(7 95 90 15 25 35 21 10)
1969/12/31/18:00:17.440,(-1 -1 -28 -8 -8 0 -9 -41)
1969/12/31/18:00:17.444,(-21 -61 -73 -24 -10 -19 0 6)
1969/12/31/18:00:17.444,(22 80 37 7 1 15 -6 -19)
1969/12/31/18:00:17.453,(25 -29 -25 -4 4 -25 -1 36)
1969/12/31/18:00:17.453,(-42 -9 3 1 -9 -2 -24 -52)
1969/12/31/18:00:17.468,(48 22 -42 -6 -14 -18 12 54)
1969/12/31/18:00:17.468,(-53 -63 25 5 8 -1 7 -24)
1969/12/31/18:00:17.469,(13 97 15 19 26 14 2 -6)
1969/12/31/18:00:17.470,(27 -42 -20 -8 -18 -7 2 16)
1969/12/31/18:00:17.490,(8 -112 -67 -16 -7 12 -12 -13)
1969/12/31/18:00:17.490,(35 -21 4 -27 -35 4 -3 18)
1969/12/31/18:00:17.492,(-55 -92 -35 12 51 -10 -2 -11)
1969/12/31/18:00:17.492,(-53 -51 -55 -17 -4 -16 -40 -79)
1969/12/31/18:00:17.504,(40 103 87 7 -11 -15 -4 28)
1969/12/31/18:00:17.504,(5 72 -23 12 27 24 6 3)
1969/12/31/18:00:17.513,(-29 -51 0 -22 -33 -9 -12 -30)
1969/12/31/18:00:17.513,(16 97 74 58 30 -4 2 -9)
1969/12/31/18:00:17.528,(-35 82 83 35 37 29 3 -10)
1969/12/31/18:00:17.528,(5 -97 -99 -59 -75 -58 -12 2)
1969/12/31/18:00:17.542,(25 79 62 42 24 39 3 -28)
1969/12/31/18:00:17.542,(-45 -117 -108 -53 -15 35 14 -7)
1969/12/31/18:00:17.551,(7 11 -24 34 39 -12 6 3)
1969/12/31/18:00:17.551,(-15 -73 14 15 -29 -20 -30 -11)
1969/12/31/18:00:17.552,(-10 15 -43 -60 -73 -9 18 1)
1969/12/31/18:00:17.552,(43 103 83 17 34 1 -9 18)
1969/12/31/18:00:17.564,(28 -13 4 21 21 16 12 2)
1969/12/31/18:00:17.564,(-44 -52 -45 2 21 -34 -22 -19)
1969/12/31/18:00:17.573,(-13 -102 -24 -22 -38 9 -11 10)
1969/12/31/18:00:17.573,(65 66 55 27 8 -9 10 26)
1969/12/31/18:00:17.587,(-35 -38 -25 -16 3 29 13 16)
1969/12/31/18:00:17.587,(-9 127 127 101 68 23 25 4)
1969/12/31/18:00:17.594,(-19 -44 -96 -50 -17 -20 -26 -28)
1969/12/31/18:00:17.594,(1 -84 -29 -4 -19 -11 -2 -1)
1969/12/31/18:00:17.610,(-23 -85 -77 -39 -2 5 -4 0)
1969/12/31/18:00:17.610,(-25 -4 -27 -16 -30 6 4 -16)
1969/12/31/18:00:17.612,(11 60 57 33 37 8 7 10)
1969/12/31/18:00:17.612,(-58 -43 -23 -8 -5 -33 -12 -35)
1969/12/31/18:00:17.624,(-3 -17 21 14 -30 -15 -29 -59)
1969/12/31/18:00:17.624,(-1 -84 -107 -46 -15 -2 13 5)
1969/12/31/18:00:17.633,(2 76 77 14 19 27 -5 1)
1969/12/31/18:00:17.633,(1 -87 -43 -23 -20 -10 -1 2)
1969/12/31/18:00:17.648,(-29 12 -12 -14 -14 -7 7 2)
1969/12/31/18:00:17.648,(63 118 82 42 41 28 8 34)
1969/12/31/18:00:17.650,(11 -70 -70 -12 -23 -34 -2 7)
1969/12/31/18:00:17.650,(-47 -60 -19 17 13 -4 -14 -8)
1969/12/31/18:00:17.670,(66 69 68 -8 -25 6 2 -2)
1969/12/31/18:00:17.670,(-35 -60 -83 -35 -7 -9 -17 -21)
1969/12/31/18:00:17.672,(44 96 94 56 16 -2 7 24)
1969/12/31/18:00:17.672,(5 14 8 16 9 10 7 15)
1969/12/31/18:00:17.693,(-6 -74 -60 -11 5 19 20 30)
1969/12/31/18:00:17.693,(2 6 -7 -27 -13 -41 -30 -74)
1969/12/31/18:00:17.695,(-37 -119 -47 -8 -7 -7 -6 -7)
1969/12/31/18:00:17.695,(9 86 -12 -33 -17 6 -12 22)
1969/12/31/18:00:17.708,(-16 26 82 32 10 14 24 10)
1969/12/31/18:00:17.708,(12 57 51 22 0 -6 -2 27)
1969/12/31/18:00:17.709,(-38 -22 -20 -24 -42 -34 -35 -56)
1969/12/31/18:00:17.709,(27 49 58 26 34 15 29 24)
1969/12/31/18:00:17.730,(-38 -93 -128 -61 -11 -10 -19 -3)
1969/12/31/18:00:17.730,(0 104 71 22 11 15 5 -7)
1969/12/31/18:00:17.732,(57 61 63 65 30 9 14 40)
1969/12/31/18:00:17.732,(-29 -94 -48 14 19 13 -8 -23)
1969/12/31/18:00:17.753,(-22 -73 -13 0 -24 -22 -18 -24)
1969/12/31/18:00:17.753,(-20 -75 -40 -6 31 -1 14 30)
1969/12/31/18:00:17.754,(16 -63 -79 -76 -26 50 19 26)
1969/12/31/18:00:17.754,(-21 55 -22 -15 -12 -25 -9 19)
1969/12/31/18:00:17.768,(-27 9 11 36 10 15 1 -86)
1969/12/31/18:00:17.768,(12 -72 -50 25 46 -4 -22 -11)
1969/12/31/18:00:17.769,(-3 -44 -46 -38 -23 -40 1 -5)
1969/12/31/18:00:17.769,(-34 -112 -53 -31 -12 47 16 -3)
1969/12/31/18:00:17.790,(35 -41 -65 -23 -3 -31 -12 15)
1969/12/31/18:00:17.790,(6 97 57 31 7 -3 -11 -10)
1969/12/31/18:00:17.792,(-52 -88 -54 -7 0 5 2 -4)
1969/12/31/18:00:17.792,(78 97 101 43 7 12 14 32)
1969/12/31/18:00:17.813,(-35 -11 -22 -17 -7 5 -8 -4)
1969/12/31/18:00:17.813,(59 4 -16 -13 -9 11 11 30)
1969/12/31/18:00:17.819,(-39 -57 -35 -3 10 -12 1 28)
1969/12/31/18:00:17.819,(-23 -5 -13 -2 -3 -25 -10 -29)
1969/12/31/18:00:17.827,(-3 -26 -46 -5 -5 -1 6 19)
1969/12/31/18:00:17.827,(56 61 60 25 -9 7 14 20)
1969/12/31/18:00:17.834,(80 -24 -71 20 49 12 34 86)
1969/12/31/18:00:17.834,(36 92 104 16 -41 22 1 1)
1969/12/31/18:00:17.850,(-12 -32 -29 -22 -7 -21 2 44)
1969/12/31/18:00:17.850,(-30 -63 -8 -43 -32 29 3 -22)
1969/12/31/18:00:17.852,(-25 9 16 -1 -19 -56 -28 -26)
1969/12/31/18:00:17.852,(-32 -77 -58 1 39 32 17 -13)
1969/12/31/18:00:17.873,(51 19 8 -3 1 1 -7 0)
1969/12/31/18:00:17.873,(-9 53 37 19 4 13 5 12)
1969/12/31/18:00:17.874,(15 14 42 14 3 11 2 -5)
1969/12/31/18:00:17.874,(2 -39 -54 -19 -7 -28 -8 6)
1969/12/31/18:00:17.887,(-7 57 57 35 23 -4 0 -6)
1969/12/31/18:00:17.887,(8 -51 -34 -13 -10 11 3 2)
1969/12/31/18:00:17.894,(-54 -38 -13 -30 -20 17 -5 -42)
1969/12/31/18:00:17.894,(-45 -87 -102 -27 -8 -20 -15 -34)
1969/12/31/18:00:17.910,(20 78 56 23 5 -3 9 29)
1969/12/31/18:00:17.910,(-25 72 91 36 17 13 -6 -17)
1969/12/31/18:00:17.912,(19 -6 4 -3 -11 -13 -4 -3)
1969/12/31/18:00:17.912,(-16 -33 -3 -3 13 8 -10 -6)
1969/12/31/18:00:17.933,(-20 -4 8 11 -5 3 -4 -19)
1969/12/31/18:00:17.933,(8 -91 -94 -49 -14 -4 9 15)
1969/12/31/18:00:17.934,(20 7 -15 3 2 -16 1 9)
1969/12/31/18:00:17.934,(16 81 87 14 -3 -3 -2 11)
1969/12/31/18:00:17.947,(8 -38 -29 -8 0 7 -6 -26)
1969/12/31/18:00:17.947,(-38 -45 -7 -4 -20 -23 -15 -20)
1969/12/31/18:00:17.954,(21 -3 -7 9 25 40 7 1)
1969/12/31/18:00:17.954,(-6 -30 -22 -5 -3 -25 -7 2)
1969/12/31/18:00:17.970,(5 -3 -18 -14 -7 4 -2 2)
1969/12/31/18:00:17.970,(-11 18 16 7 -4 -7 7 17)
1969/12/31/18:00:17.972,(-12 43 26 9 10 -3 -12 -28)
1969/12/31/18:00:17.972,(51 29 8 7 -9 -3 5 16)
1969/12/31/18:00:17.993,(-54 -45 -5 -24 -30 3 -3 -16)
1969/12/31/18:00:17.993,(29 -10 -28 -16 1 -19 -9 -3)
1969/12/31/18:00:17.994,(21 0 8 12 15 23 7 13)
1969/12/31/18:00:17.994,(-8 -3 2 25 24 -4 -7 -13)
1969/12/31/18:00:18.007,(-5 0 -11 7 7 2 -5 -12)
1969/12/31/18:00:18.007,(-13 -11 -15 -36 -50 -4 9 -6)
1969/12/31/18:00:18.015,(-44 -14 0 15 26 -6 -19 -11)
1969/12/31/18:00:18.015,(50 -26 -26 -12 1 9 7 30)
1969/12/31/18:00:18.030,(-24 22 18 6 10 12 1 -19)
1969/12/31/18:00:18.030,(-23 33 29 34 24 1 4 -23)
1969/12/31/18:00:18.032,(81 14 -8 -36 -49 -25 -4 11)
1969/12/31/18:00:18.032,(-52 -35 -26 -12 -6 4 27 -50)
1969/12/31/18:00:18.053,(49 -4 -10 -12 -5 -16 -45 20)
1969/12/31/18:00:18.053,(-59 -38 -9 -8 0 9 2 -37)
1969/12/31/18:00:18.054,(-3 -22 -15 -8 -7 -1 -28 -47)
1969/12/31/18:00:18.054,(2 2 12 11 7 -17 7 -6)
1969/12/31/18:00:18.067,(89 103 41 14 5 20 25 37)
1969/12/31/18:00:18.067,(0 1 -9 -2 2 -1 0 -1)
1969/12/31/18:00:18.076,(-71 -31 -12 -4 5 21 28 -10)
1969/12/31/18:00:18.076,(-37 -15 3 11 2 -6 -19 16)
1969/12/31/18:00:18.090,(-34 -46 7 6 -1 -8 -6 -16)
1969/12/31/18:00:18.090,(-8 -17 -16 4 11 -3 -2 -2)
1969/12/31/18:00:18.096,(-17 42 7 -6 -13 -3 -9 -24)
1969/12/31/18:00:18.096,(26 11 -3 -11 -11 -10 -25 4)
1969/12/31/18:00:18.113,(-12 -9 -9 -7 -2 2 25 -15)
1969/12/31/18:00:18.113,(-36 -44 -7 7 15 11 -5 -13)
1969/12/31/18:00:18.115,(16 29 3 -5 -11 -12 -17 -30)
1969/12/31/18:00:18.115,(-3 23 -1 -8 -8 -6 8 5)
1969/12/31/18:00:18.127,(-29 7 4 8 6 -8 -20 -17)
1969/12/31/18:00:18.127,(19 -20 10 16 15 16 21 48)
1969/12/31/18:00:18.136,(-55 -27 -12 -13 -17 -18 -27 -68)
1969/12/31/18:00:18.136,(68 2 -12 -7 -1 1 7 38)
1969/12/31/18:00:18.150,(-43 10 13 2 4 8 5 -16)
1969/12/31/18:00:18.150,(42 -1 -16 -5 0 0 4 28)
1969/12/31/18:00:18.152,(75 53 37 26 14 9 31 67)
1969/12/31/18:00:18.152,(-107 -39 -23 -7 -1 0 -14 -46)
1969/12/31/18:00:18.173,(17 -20 -13 -14 -9 -3 -5 -1)
1969/12/31/18:00:18.173,(5 17 12 0 -1 -4 -5 -8)
1969/12/31/18:00:18.174,(18 15 9 4 3 -2 -1 18)
1969/12/31/18:00:18.174,(35 -11 -10 -7 -9 -8 -22 -34)
1969/12/31/18:00:18.187,(59 -7 -6 -7 -8 -2 14 69)
1969/12/31/18:00:18.187,(12 3 -17 -9 -3 -4 -4 6)
1969/12/31/18:00:18.195,(-20 -8 3 1 3 4 2 6)
1969/12/31/18:00:18.195,(-14 8 14 4 1 3 2 -5)
1969/12/31/18:00:18.211,(-39 -9 -7 -4 1 1 7 -14)
1969/12/31/18:00:18.211,(21 0 -1 -2 -2 -5 -9 3)
1969/12/31/18:00:18.212,(-23 -13 -11 -15 -4 0 -10 -39)
1969/12/31/18:00:18.212,(24 21 9 11 4 3 12 35)
1969/12/31/18:00:18.233,(-35 -9 -16 -11 0 -6 -11 -30)
1969/12/31/18:00:18.233,(-6 -2 9 13 5 3 2 8)
1969/12/31/18:00:18.235,(-15 -8 19 15 1 -1 6 16)
1969/12/31/18:00:18.235,(14 -22 -19 -10 -3 0 4 12)
1969/12/31/18:00:18.262,(7 7 7 1 -1 2 1 -4)
1969/12/31/18:00:18.262,(10 49 13 0 -2 -4 -8 -14)
1969/12/31/18:00:18.272,(-6 11 8 -7 -3 -3 3 15)
1969/12/31/18:00:18.272,(11 0 10 4 -1 1 -1 2)
1969/12/31/18:00:18.273,(14 6 -13 -3 -2 -2 0 6)
1969/12/31/18:00:18.273,(-41 -79 -41 -17 -8 -3 -1 -10)
1969/12/31/18:00:18.277,(10 10 5 2 -1 1 3 11)
1969/12/31/18:00:18.277,(19 42 24 3 3 2 2 9)
1969/12/31/18:00:18.292,(-10 -6 -5 -5 -4 -4 -6 -5)
1969/12/31/18:00:18.292,(1 -24 -3 3 0 -3 1 2)
1969/12/31/18:00:18.300,(12 -4 -18 -6 2 10 12 14)
1969/12/31/18:00:18.300,(-11 25 39 12 0 -1 -5 -4)
1969/12/31/18:00:18.306,(-8 -13 1 6 1 -2 0 -13)
1969/12/31/18:00:18.306,(8 0 13 12 1 -4 -5 -1)
1969/12/31/18:00:18.316,(13 49 19 7 2 -2 5 15)
1969/12/31/18:00:18.316,(-22 -41 -36 -17 -10 -7 -7 -11)
1969/12/31/18:00:18.331,(5 22 2 -10 -6 0 2 4)
1969/12/31/18:00:18.331,(-4 -43 -30 -6 -1 1 0 3)
1969/12/31/18:00:18.332,(-2 24 27 9 2 3 3 2)
1969/12/31/18:00:18.332,(-2 -9 -13 -4 4 4 2 6)
1969/12/31/18:00:18.353,(13 28 33 14 3 1 -2 5)
1969/12/31/18:00:18.353,(-5 -9 -21 -15 -7 -4 -1 -4)
1969/12/31/18:00:18.354,(-12 -21 -11 -6 -3 -7 -12 -14)
1969/12/31/18:00:18.354,(-3 -11 -12 -3 -3 -2 4 4)
1969/12/31/18:00:18.367,(0 -29 -26 -13 -4 -5 -11 -8)
1969/12/31/18:00:18.367,(2 28 21 6 6 8 13 14)
1969/12/31/18:00:18.376,(-4 -27 -16 -5 -5 -6 -6 -5)
1969/12/31/18:00:18.376,(12 47 40 12 4 0 3 8)
1969/12/31/18:00:18.390,(-7 -34 -34 -13 -6 0 5 1)
1969/12/31/18:00:18.390,(5 6 -17 -2 4 2 -1 -1)
1969/12/31/18:00:18.392,(-10 2 57 15 -3 -5 -7 -5)
1969/12/31/18:00:18.392,(3 -11 -41 -11 1 1 1 1)
1969/12/31/18:00:18.413,(12 41 27 10 4 4 4 11)
1969/12/31/18:00:18.413,(0 4 13 8 1 0 0 -6)
1969/12/31/18:00:18.415,(-9 -52 -42 -13 -4 0 1 7)
1969/12/31/18:00:18.415,(-1 1 -14 -2 -1 1 16 14)
1969/12/31/18:00:18.427,(-8 14 28 3 6 6 -9 -23)
1969/12/31/18:00:18.427,(-2 -9 -7 -8 -5 -7 -4 -3)
1969/12/31/18:00:18.435,(9 26 -9 -5 1 0 -2 5)
1969/12/31/18:00:18.435,(-1 -9 3 1 -4 -6 -1 3)
1969/12/31/18:00:18.450,(3 -33 -35 2 0 -2 2 6)
1969/12/31/18:00:18.450,(1 68 68 22 10 5 -1 -8)
1969/12/31/18:00:18.456,(-8 -59 -51 -16 -11 -5 -2 1)
1969/12/31/18:00:18.457,(1 26 23 3 2 0 -7 -10)
1969/12/31/18:00:18.473,(3 0 3 1 -1 -3 2 7)
1969/12/31/18:00:18.473,(1 -28 -12 -6 -4 1 0 2)
1969/12/31/18:00:18.475,(-9 7 -23 -21 -10 -6 -3 -4)
1969/12/31/18:00:18.475,(-3 -1 2 -8 -8 -6 -9 -8)
1969/12/31/18:00:18.487,(2 2 -14 8 7 2 2 3)
1969/12/31/18:00:18.487,(-4 -2 -6 -13 -8 -2 0 2)
1969/12/31/18:00:18.496,(8 11 8 5 0 -1 -2 0)
1969/12/31/18:00:18.496,(0 -9 8 15 6 6 1 -1)
1969/12/31/18:00:18.510,(-2 35 5 -16 -12 -8 -1 -1)
1969/12/31/18:00:18.510,(-4 -23 1 8 4 1 -4 -6)
1969/12/31/18:00:18.518,(-12 -37 -21 -2 -6 -7 -6 -5)
1969/12/31/18:00:18.518,(-21 -29 -6 -10 -8 -4 -6 -14)
1969/12/31/18:00:18.532,(-1 -35 -60 -32 -14 -10 -1 4)
1969/12/31/18:00:18.532,(24 61 56 39 22 15 6 8)
1969/12/31/18:00:18.541,(2 -30 -31 7 3 2 6 3)
1969/12/31/18:00:18.541,(18 1 -5 9 8 5 8 10)
1969/12/31/18:00:18.562,(-26 -30 8 9 -2 1 -4 -10)
1969/12/31/18:00:18.562,(-11 -14 -65 -39 -19 -14 -8 -8)
1969/12/31/18:00:18.570,(4 17 15 2 4 2 -6 -8)
1969/12/31/18:00:18.570,(-19 -56 -25 -22 -12 -3 -3 -3)
1969/12/31/18:00:18.572,(21 34 48 26 10 7 6 7)
1969/12/31/18:00:18.572,(-6 -4 -11 -11 -7 -3 1 -1)
1969/12/31/18:00:18.577,(3 6 22 18 8 3 5 2)
1969/12/31/18:00:18.577,(4 8 -53 -23 -7 -7 -5 -2)
1969/12/31/18:00:18.592,(1 4 42 17 8 5 1 2)
1969/12/31/18:00:18.592,(-6 -25 20 10 2 -1 -1 -1)
1969/12/31/18:00:18.593,(-2 12 -2 -19 -10 -4 -3 -4)
1969/12/31/18:00:18.593,(-3 -2 16 8 3 2 0 1)
1969/12/31/18:00:18.615,(10 29 -20 -5 1 -2 -3 -1)
1969/12/31/18:00:18.615,(-4 -17 -16 -13 -6 -3 -4 -1)
1969/12/31/18:00:18.616,(-6 -2 17 5 1 0 1 0)
1969/12/31/18:00:18.616,(-3 -5 -9 -2 -2 -2 -3 -2)
1969/12/31/18:00:18.629,(-4 -8 3 2 -1 -2 -1 -3)
1969/12/31/18:00:18.629,(5 37 -13 -10 -4 -5 -3 -4)
1969/12/31/18:00:18.637,(0 -19 -20 -9 -4 0 3 4)
1969/12/31/18:00:18.637,(-8 -1 7 6 1 -3 -6 -7)
1969/12/31/18:00:18.654,(-2 7 6 -2 -4 -5 -5 -7)
1969/12/31/18:00:18.654,(2 -10 -5 -2 -2 -1 0 2)
1969/12/31/18:00:18.654,(-3 -6 -7 -1 -1 0 -1 -1)
1969/12/31/18:00:18.654,(0 22 17 2 -2 -4 -4 -6)
1969/12/31/18:00:18.675,(-5 -20 -11 -5 -3 -1 -2 -2)
1969/12/31/18:00:18.675,(3 0 3 6 1 2 3 3)
1969/12/31/18:00:18.675,(1 9 2 2 0 -3 -5 -7)
1969/12/31/18:00:18.675,(-3 -12 0 0 2 2 2 3)
1969/12/31/18:00:18.689,(-1 -6 -5 -5 -4 -3 -2 -1)
1969/12/31/18:00:18.689,(-2 -2 4 0 -2 -2 0 0)
1969/12/31/18:00:18.697,(2 13 10 13 8 5 2 2)
1969/12/31/18:00:18.697,(2 9 -11 -3 -1 -2 -3 -1)
1969/12/31/18:00:18.712,(-4 -8 1 1 1 2 2 -1)
1969/12/31/18:00:18.712,(-8 -4 -14 -6 0 -3 -3 -5)
1969/12/31/18:00:18.713,(2 -1 -3 -11 -8 -3 0 3)
1969/12/31/18:00:18.713,(-2 -15 -9 -7 -1 -2 0 -4)
1969/12/31/18:00:18.735,(2 22 13 8 3 1 2 2)
1969/12/31/18:00:18.735,(2 8 9 3 -4 -4 -3 -3)
1969/12/31/18:00:18.735,(-2 -1 -5 -4 -4 -5 -7 -8)
1969/12/31/18:00:18.735,(2 -2 2 0 -2 1 1 2)
1969/12/31/18:00:18.750,(-5 -9 3 -6 -4 -3 -1 1)
1969/12/31/18:00:18.750,(-3 -8 -1 0 2 -1 0 -2)
1969/12/31/18:00:18.750,(-1 1 -2 -3 0 -1 1 3)
1969/12/31/18:00:18.750,(3 1 8 3 1 0 2 4)
1969/12/31/18:00:18.772,(2 -7 -5 -1 -1 -1 0 0)
1969/12/31/18:00:18.772,(0 3 4 2 -1 0 -3 -3)
1969/12/31/18:00:18.773,(-3 -8 -6 -4 -2 -2 -2 -2)
1969/12/31/18:00:18.773,(1 6 12 4 -1 2 0 0)
1969/12/31/18:00:18.795,(-2 -4 -9 -2 -1 -2 -2 -2)
1969/12/31/18:00:18.795,(-2 0 3 0 0 0 0 1)
1969/12/31/18:00:18.795,(3 8 7 0 1 1 2 1)
1969/12/31/18:00:18.795,(3 2 -10 -3 -1 0 2 2)
1969/12/31/18:00:18.819,(1 7 3 6 5 2 -2 0)
1969/12/31/18:00:18.819,(-4 -9 -7 -2 -2 0 -2 0)
1969/12/31/18:00:18.820,(-1 -4 -5 -3 -1 1 -1 -1)
1969/12/31/18:00:18.820,(-5 -6 0 3 2 1 2 1)
1969/12/31/18:00:18.832,(0 2 7 0 -4 -3 -6 -5)
1969/12/31/18:00:18.832,(-4 -5 -6 -2 -2 -1 2 2)
1969/12/31/18:00:18.833,(-5 4 7 1 -5 -5 -5 -4)
1969/12/31/18:00:18.833,(1 0 4 -6 -8 -2 -2 -1)
1969/12/31/18:00:18.855,(-2 8 7 2 -2 -4 -8 -11)
1969/12/31/18:00:18.855,(-1 4 4 0 -1 -4 -5 -5)
1969/12/31/18:00:18.855,(1 2 -2 -1 1 -2 -4 -3)
1969/12/31/18:00:18.855,(-2 0 3 -1 -3 -4 -4 -4)
1969/12/31/18:00:18.870,(-1 -11 -8 -4 0 0 5 6)
1969/12/31/18:00:18.870,(0 -4 -7 -6 -5 -2 -2 -2)
1969/12/31/18:00:18.877,(-1 -1 -1 -2 -2 -2 1 3)
1969/12/31/18:00:18.877,(-1 -1 3 0 1 -3 -2 -1)
1969/12/31/18:00:18.892,(-2 -2 -3 3 1 -2 -1 -2)
1969/12/31/18:00:18.892,(-2 -5 -2 1 4 -1 2 2)
1969/12/31/18:00:18.893,(1 -2 -3 -1 0 -1 0 2)
1969/12/31/18:00:18.893,(-2 -2 0 1 0 -2 -1 -1)
1969/12/31/18:00:18.915,(2 1 -2 -2 -2 0 1 1)
1969/12/31/18:00:18.915,(-4 -11 -4 -4 -3 -1 -2 -5)
1969/12/31/18:00:18.915,(2 12 17 12 10 4 0 0)
1969/12/31/18:00:18.915,(-2 2 -3 -1 -1 0 0 -1)
1969/12/31/18:00:18.929,(-2 -6 -5 -3 -2 1 1 1)
1969/12/31/18:00:18.929,(2 -1 -3 0 0 0 1 4)
1969/12/31/18:00:18.930,(1 4 -1 -5 -6 -4 -3 -4)
1969/12/31/18:00:18.930,(-11 -18 -10 -6 -5 -4 -4 -8)
1969/12/31/18:00:18.952,(2 0 -1 2 6 4 2 3)
1969/12/31/18:00:18.952,(-2 1 0 0 -1 1 -1 1)
1969/12/31/18:00:18.953,(0 -3 -4 0 0 1 2 2)
1969/12/31/18:00:18.953,(0 4 1 2 1 0 1 -1)
1969/12/31/18:00:18.975,(-1 -4 -7 -6 -5 -3 0 -2)
1969/12/31/18:00:18.975,(-1 1 0 0 -2 -1 -1 -2)
1969/12/31/18:00:18.975,(-1 -3 -2 0 0 1 0 1)
1969/12/31/18:00:18.975,(1 3 2 1 0 0 0 -1)
1969/12/31/18:00:18.989,(-2 -6 -3 -3 -4 -2 -1 -2)
1969/12/31/18:00:18.989,(0 1 -1 1 0 -1 -3 0)
1969/12/31/18:00:18.990,(-2 -5 -1 -2 -3 -1 -1 -1)
1969/12/31/18:00:18.990,(2 -1 -2 1 0 -1 -2 2)
1969/12/31/18:00:19.012,(-1 2 -4 -6 -1 -2 -1 0)
1969/12/31/18:00:19.012,(-3 -5 -8 -6 -5 -2 -2 -2)
1969/12/31/18:00:19.013,(-1 1 7 5 1 -1 0 0)
1969/12/31/18:00:19.013,(-1 -1 -5 -2 -1 0 -2 -1)
1969/12/31/18:00:19.034,(-2 -5 -1 1 1 1 1 1)
1969/12/31/18:00:19.035,(2 10 -4 -2 2 -2 0 -2)
1969/12/31/18:00:19.035,(-1 -3 -3 -5 -1 -1 -1 -1)
1969/12/31/18:00:19.035,(-1 1 0 2 3 1 0 1)
1969/12/31/18:00:19.049,(1 2 4 2 0 0 1 1)
1969/12/31/18:00:19.050,(-4 -11 -4 -5 -5 -3 -3 -4)
1969/12/31/18:00:19.050,(0 2 -1 -3 -1 -2 -2 -4)
1969/12/31/18:00:19.050,(-1 0 2 -1 0 0 -2 -1)
1969/12/31/18:00:19.072,(-5 -7 -6 -8 -6 -1 -3 -4)
1969/12/31/18:00:19.072,(1 0 5 3 1 1 0 1)
1969/12/31/18:00:19.073,(-1 -1 -4 -1 0 0 1 0)
1969/12/31/18:00:19.073,(-1 1 2 -1 -3 -4 -1 -1)
1969/12/31/18:00:19.095,(0 0 -1 -1 0 -1 -1 -1)
1969/12/31/18:00:19.095,(0 1 4 -1 0 1 0 -2)
1969/12/31/18:00:19.095,(-2 -5 -6 -3 -3 0 -2 -1)
1969/12/31/18:00:19.095,(1 0 0 1 1 0 2 2)
1969/12/31/18:00:19.110,(-1 2 -6 -4 -2 -2 -1 -1)
1969/12/31/18:00:19.110,(0 1 6 7 0 0 0 -1)
1969/12/31/18:00:19.110,(-1 -4 -4 -1 -2 -2 0 0)
1969/12/31/18:00:19.110,(-1 -2 1 1 0 -1 -2 -2)
1969/12/31/18:00:19.132,(-1 1 -2 -1 -1 -1 0 -1)
1969/12/31/18:00:19.132,(-2 0 -2 2 3 0 0 0)
1969/12/31/18:00:19.133,(1 -4 -4 -2 -2 -2 0 0)
1969/12/31/18:00:19.133,(1 4 7 2 1 0 -2 -2)
1969/12/31/18:00:19.155,(-1 -4 -3 -1 -2 -2 0 -1)
1969/12/31/18:00:19.155,(0 1 1 -3 -2 -2 0 -2)
1969/12/31/18:00:19.155,(-2 -2 -2 0 -1 0 0 0)
1969/12/31/18:00:19.155,(-2 0 -3 -3 -2 0 -1 0)
1969/12/31/18:00:19.169,(-1 0 -2 0 -2 -3 -1 -2)
1969/12/31/18:00:19.169,(0 -1 -1 -2 -1 -2 -2 -1)
1969/12/31/18:00:19.177,(1 1 1 -2 1 -1 -2 -1)
1969/12/31/18:00:19.177,(-1 -2 -3 -2 0 -1 -1 1)
1969/12/31/18:00:19.192,(-4 -2 -2 -2 -2 -1 -2 -2)
1969/12/31/18:00:19.192,(-1 2 -2 0 -2 0 -3 -4)
1969/12/31/18:00:19.193,(-1 2 1 2 1 1 1 0)
1969/12/31/18:00:19.193,(0 -2 -2 -1 -1 -1 -1 -1)
1969/12/31/18:00:19.214,(-2 -2 -1 1 0 -2 -3 -1)
1969/12/31/18:00:19.214,(1 0 0 0 0 -1 -2 0)
1969/12/31/18:00:19.215,(-2 -3 -3 -2 -2 0 0 -2)
1969/12/31/18:00:19.215,(-1 -1 -3 -3 -3 -2 0 -3)
1969/12/31/18:00:19.229,(3 1 6 3 2 1 0 0)
1969/12/31/18:00:19.229,(-1 -2 0 -3 -1 -2 -1 0)
1969/12/31/18:00:19.237,(-2 -4 -4 -2 -1 0 -2 -1)
1969/12/31/18:00:19.237,(0 0 -2 0 -2 -2 0 0)
1969/12/31/18:00:19.252,(-1 0 0 -2 -3 -2 -1 -2)
1969/12/31/18:00:19.252,(0 -2 -1 0 0 0 1 0)
1969/12/31/18:00:19.253,(0 2 -6 -3 -1 -3 -2 0)
1969/12/31/18:00:19.253,(-2 -8 -4 0 0 -1 0 0)
1969/12/31/18:00:19.283,(1 3 8 3 1 0 -1 1)
1969/12/31/18:00:19.283,(-2 -1 -1 -2 -2 -2 -1 0)
1969/12/31/18:00:19.284,(-1 -3 -2 -3 -1 0 0 -2)
1969/12/31/18:00:19.284,(-1 -2 -3 -2 -1 1 -2 -2)
1969/12/31/18:00:19.289,(-2 -2 -4 -3 -1 -1 -1 -1)
1969/12/31/18:00:19.289,(-4 -3 -1 -4 -2 2 -2 -1)
1969/12/31/18:00:19.297,(-2 -5 -5 -4 -3 -1 -2 1)
1969/12/31/18:00:19.297,(1 1 2 1 2 0 0 -1)
1969/12/31/18:00:19.312,(-2 -2 -1 2 -2 0 0 0)
1969/12/31/18:00:19.312,(0 4 1 1 -1 -1 0 -2)
1969/12/31/18:00:19.313,(0 0 -1 0 -1 -3 0 -1)
1969/12/31/18:00:19.313,(-1 1 1 0 -1 0 -2 0)
1969/12/31/18:00:19.334,(-1 -3 -4 -4 -2 0 -2 -1)
1969/12/31/18:00:19.334,(-1 -4 -3 -3 -1 -2 -1 0)
1969/12/31/18:00:19.335,(-1 -1 2 0 0 1 -1 -2)
1969/12/31/18:00:19.335,(-1 0 -1 -2 -2 -2 -1 -1)
1969/12/31/18:00:19.349,(-2 -6 -4 1 4 2 2 1)
1969/12/31/18:00:19.349,(0 0 1 2 0 0 0 0)
1969/12/31/18:00:19.357,(2 -3 -3 -2 -3 -2 -1 -2)
1969/12/31/18:00:19.357,(-3 7 5 -1 -2 -3 -5 -6)
1969/12/31/18:00:19.380,(0 -3 -4 -2 -4 1 1 2)
1969/12/31/18:00:19.380,(-1 -5 -4 0 0 1 2 3)
1969/12/31/18:00:19.381,(-2 -2 0 1 -1 -1 1 0)
1969/12/31/18:00:19.381,(-2 -4 -2 -1 -5 0 0 1)
1969/12/31/18:00:19.394,(-1 -2 -2 -1 2 -1 -2 -3)
1969/12/31/18:00:19.395,(-2 -3 -4 -3 0 -1 0 -3)
1969/12/31/18:00:19.395,(2 6 3 0 0 0 0 -1)
1969/12/31/18:00:19.395,(-1 -2 -3 -2 0 -1 -1 -3)
1969/12/31/18:00:19.409,(-1 -3 -2 -3 -3 -3 -1 -1)
1969/12/31/18:00:19.409,(-1 0 -3 -1 -2 -3 -2 -2)
1969/12/31/18:00:19.417,(-1 -3 -2 -4 -2 -1 -3 -1)
1969/12/31/18:00:19.417,(0 -4 -1 -1 1 0 2 -1)
1969/12/31/18:00:19.432,(-3 -3 -8 -4 -4 -2 -1 -3)
1969/12/31/18:00:19.432,(0 3 2 3 3 0 0 -1)
1969/12/31/18:00:19.433,(-2 -6 0 2 1 2 2 3)
1969/12/31/18:00:19.433,(0 4 -3 -3 -2 -4 -4 -3)
1969/12/31/18:00:19.455,(1 6 5 2 -2 -2 -4 -4)
1969/12/31/18:00:19.455,(-1 -2 -3 -6 -4 -3 -3 -3)
1969/12/31/18:00:19.462,(-1 -1 0 2 3 1 1 -1)
1969/12/31/18:00:19.462,(0 -3 -2 -2 -2 0 1 0)
1969/12/31/18:00:19.469,(-2 -1 -1 0 1 2 0 -1)
1969/12/31/18:00:19.469,(-1 -3 0 2 -2 0 0 1)
1969/12/31/18:00:19.477,(-3 3 2 -2 -4 -2 -4 -3)
1969/12/31/18:00:19.477,(-2 -4 0 2 2 0 -3 -2)
1969/12/31/18:00:19.492,(-2 0 1 -1 -1 0 -2 -1)
1969/12/31/18:00:19.492,(-2 -1 -2 -3 -1 0 -2 -2)
1969/12/31/18:00:19.493,(-1 -2 -3 -2 0 0 -1 1)
1969/12/31/18:00:19.493,(-1 -3 -4 -4 -3 -1 1 -1)
1969/12/31/18:00:19.515,(0 1 2 1 0 -1 0 0)
1969/12/31/18:00:19.515,(0 0 -2 -2 -1 -1 -1 -2)
1969/12/31/18:00:19.515,(-2 -2 -3 -1 0 -1 -1 -2)
1969/12/31/18:00:19.515,(-1 -1 1 2 -1 0 0 1)
1969/12/31/18:00:19.537,(0 -1 -1 -1 1 0 -1 0)
1969/12/31/18:00:19.537,(0 1 2 1 -1 0 -2 0)
1969/12/31/18:00:19.545,(0 -2 -4 -2 -2 -2 -2 -1)
1969/12/31/18:00:19.545,(-2 0 -1 -1 -2 0 -2 1)
1969/12/31/18:00:19.552,(-1 -1 -2 -3 -5 -2 -2 -2)
1969/12/31/18:00:19.552,(-2 -2 -2 0 -3 -2 -1 -2)
1969/12/31/18:00:19.553,(-1 0 0 0 1 0 1 -1)
1969/12/31/18:00:19.553,(2 -1 -2 0 0 -1 -1 1)
1969/12/31/18:00:19.575,(0 -3 -2 -2 0 -2 1 -1)
1969/12/31/18:00:19.575,(1 -1 -2 -4 -1 0 0 1)
1969/12/31/18:00:19.575,(1 -1 -2 2 -1 -1 -1 2)
1969/12/31/18:00:19.575,(-1 -4 -2 0 -1 0 0 0)
1969/12/31/18:00:19.598,(0 -1 -1 1 1 -2 1 1)
1969/12/31/18:00:19.598,(-3 -1 -2 -1 -2 -2 -2 -4)
1969/12/31/18:00:19.599,(-3 1 1 -2 -2 -2 -1 -3)
1969/12/31/18:00:19.599,(0 0 1 -1 0 0 0 -2)
