time,.data
1969/12/31/18:00:12.300000,(-7 -4 -6 -10 -34 -54 -22 -18)
1969/12/31/18:00:12.300000,(-2 0 -4 -1 6 13 14 4)
1969/12/31/18:00:12.307000,(1 5 17 11 22 1 -25 -7)
1969/12/31/18:00:12.307000,(4 1 -2 5 -7 18 4 1)
1969/12/31/18:00:12.309000,(1 1 0 -4 -12 -24 13 10)
1969/12/31/18:00:12.309000,(-1 -5 -6 -1 -15 8 2 3)
1969/12/31/18:00:12.330000,(3 4 -5 -8 -10 1 23 -6)
1969/12/31/18:00:12.330000,(-10 -4 -5 -4 7 5 -13 0)
1969/12/31/18:00:12.336000,(16 8 3 3 -8 -1 27 19)
1969/12/31/18:00:12.336000,(-2 -1 0 1 7 -28 -3 -1)
1969/12/31/18:00:12.344000,(0 -4 0 2 2 -6 2 3)
1969/12/31/18:00:12.344000,(-1 0 -4 -4 -4 16 11 -15)
1969/12/31/18:00:12.353000,(-4 -2 7 4 17 34 -8 1)
1969/12/31/18:00:12.353000,(-4 5 1 -1 -12 -25 -5 -8)
1969/12/31/18:00:12.367000,(1 -1 -2 -4 1 8 2 13)
1969/12/31/18:00:12.367000,(-6 -6 -11 -9 -13 -21 -3 -8)
1969/12/31/18:00:12.369000,(-8 -9 -7 -3 3 22 -3 4)
1969/12/31/18:00:12.369000,(9 2 11 10 16 2 -1 6)
1969/12/31/18:00:12.406000,(-5 -5 -9 -9 -16 -11 -1 -16)
1969/12/31/18:00:12.406000,(5 6 9 3 2 -1 -7 7)
1969/12/31/18:00:12.407000,(9 4 -2 1 6 5 0 24)
1969/12/31/18:00:12.407000,(-17 -10 -5 -3 0 1 -3 -39)
1969/12/31/18:00:12.408000,(-5 -6 -9 -6 -5 -5 5 5)
1969/12/31/18:00:12.408000,(0 3 3 3 -4 -12 -7 -2)
1969/12/31/18:00:12.412000,(1 2 4 4 10 20 1 -17)
1969/12/31/18:00:12.412000,(-1 -4 -8 -4 1 0 3 24)
1969/12/31/18:00:12.427000,(-1 8 8 3 -7 -16 -14 -12)
1969/12/31/18:00:12.427000,(-1 -8 1 -3 4 9 16 9)
1969/12/31/18:00:12.434000,(-1 -2 -3 -3 -4 1 -7 -10)
1969/12/31/18:00:12.434000,(4 3 4 2 3 -1 -1 10)
1969/12/31/18:00:12.450000,(-6 -3 -8 -4 -1 -5 3 2)
1969/12/31/18:00:12.450000,(1 -4 -4 0 -2 -1 5 7)
1969/12/31/18:00:12.456000,(-5 -2 -4 -3 3 6 -4 -12)
1969/12/31/18:00:12.456000,(5 -21 -27 -8 -4 -5 -1 8)
1969/12/31/18:00:12.473000,(-4 2 2 -2 -1 0 1 -3)
1969/12/31/18:00:12.473000,(-5 19 23 8 -4 -10 -22 -27)
1969/12/31/18:00:12.474000,(-2 3 0 -1 4 6 2 9)
1969/12/31/18:00:12.474000,(1 3 3 0 1 1 -2 -9)
1969/12/31/18:00:12.487000,(1 -10 -14 -2 -2 -1 5 8)
1969/12/31/18:00:12.487000,(1 -8 -11 -6 -1 -2 0 2)
1969/12/31/18:00:12.494000,(1 -4 -3 -1 0 2 1 1)
1969/12/31/18:00:12.494000,(4 -10 -13 -6 -1 1 1 4)
1969/12/31/18:00:12.534000,(-6 -13 0 -5 -2 -2 -1 2)
1969/12/31/18:00:12.534000,(-4 11 12 7 1 -4 0 -5)
1969/12/31/18:00:12.535000,(-9 16 15 2 -1 0 3 2)
1969/12/31/18:00:12.535000,(0 9 2 0 1 3 0 3)
1969/12/31/18:00:12.536000,(-3 -10 -16 -9 -7 -4 -3 -7)
1969/12/31/18:00:12.536000,(15 -13 -14 -9 -4 0 7 24)
1969/12/31/18:00:12.540000,(-31 -48 -29 -15 -13 -3 11 -25)
1969/12/31/18:00:12.540000,(13 14 -8 -6 -2 -4 -14 0)
1969/12/31/18:00:12.547000,(-6 46 73 28 8 0 -5 -7)
1969/12/31/18:00:12.547000,(-7 -8 -8 -3 -2 1 9 6)
1969/12/31/18:00:12.554000,(0 4 1 3 2 7 7 -1)
1969/12/31/18:00:12.554000,(13 0 5 4 -1 -12 -23 -11)
1969/12/31/18:00:12.570000,(2 -4 -16 -5 0 2 -1 0)
1969/12/31/18:00:12.570000,(6 3 1 -2 1 0 -2 2)
1969/12/31/18:00:12.572000,(26 13 5 5 6 2 -11 -5)
1969/12/31/18:00:12.572000,(-11 6 14 8 5 6 1 -12)
1969/12/31/18:00:12.592000,(-21 -24 -23 -14 -13 -14 -15 -12)
1969/12/31/18:00:12.592000,(-25 -12 -2 1 0 -4 -12 -25)
1969/12/31/18:00:12.594000,(35 12 -1 -1 3 -1 -10 14)
1969/12/31/18:00:12.594000,(6 1 3 1 0 2 12 15)
1969/12/31/18:00:12.607000,(-15 2 -1 0 -2 0 6 -3)
1969/12/31/18:00:12.607000,(71 24 1 0 0 1 7 53)
1969/12/31/18:00:12.614000,(-67 -22 -4 -5 -4 -6 -17 -56)
1969/12/31/18:00:12.614000,(-65 -27 -4 -4 -2 -7 -19 -13)
1969/12/31/18:00:12.630000,(17 -1 -6 -2 -3 -8 0 -8)
1969/12/31/18:00:12.630000,(37 20 6 2 3 3 8 10)
1969/12/31/18:00:12.632000,(84 23 7 3 -2 -11 6 48)
1969/12/31/18:00:12.632000,(-37 -17 7 2 12 45 16 7)
1969/12/31/18:00:12.674000,(-18 -8 -9 -3 -10 -33 5 -31)
1969/12/31/18:00:12.674000,(-95 -38 -16 -10 -7 -3 -23 -53)
1969/12/31/18:00:12.685000,(29 25 9 3 6 26 9 9)
1969/12/31/18:00:12.685000,(40 14 -2 -3 -8 -18 -2 -9)
1969/12/31/18:00:12.686000,(94 38 19 12 18 65 53 97)
1969/12/31/18:00:12.686000,(-75 -36 -2 6 -9 -62 -40 -7)
1969/12/31/18:00:12.691000,(-80 -21 -23 -17 -15 -14 -38 -89)
1969/12/31/18:00:12.691000,(-38 -17 -1 -7 -4 19 25 -8)
1969/12/31/18:00:12.692000,(83 40 10 7 7 9 -6 62)
1969/12/31/18:00:12.692000,(56 36 6 3 5 15 10 10)
1969/12/31/18:00:12.693000,(-54 -36 -10 -3 1 9 3 -10)
1969/12/31/18:00:12.693000,(80 29 19 13 4 -22 13 70)
1969/12/31/18:00:12.712000,(-124 -80 -25 -14 -8 -4 -30 -97)
1969/12/31/18:00:12.712000,(4 3 -4 -6 -3 2 -7 -41)
1969/12/31/18:00:12.714000,(19 24 16 13 9 -9 -16 8)
1969/12/31/18:00:12.714000,(57 25 -2 -3 -3 4 -6 -21)
1969/12/31/18:00:12.726000,(1 0 9 10 4 5 33 23)
1969/12/31/18:00:12.726000,(-50 -24 -16 -10 -3 5 -29 -42)
1969/12/31/18:00:12.735000,(-3 -3 -7 -7 -7 4 2 -26)
1969/12/31/18:00:12.735000,(28 8 6 4 2 -10 8 31)
1969/12/31/18:00:12.750000,(-33 -9 -5 -4 -6 -17 -9 -11)
1969/12/31/18:00:12.750000,(37 17 8 4 9 41 12 24)
1969/12/31/18:00:12.752000,(19 -14 -8 -6 -11 -49 25 47)
1969/12/31/18:00:12.752000,(-80 -59 -17 -3 4 22 -2 -30)
1969/12/31/18:00:12.772000,(4 -2 -15 -16 -20 -49 -40 -42)
1969/12/31/18:00:12.772000,(50 30 3 -3 -7 -10 36 39)
1969/12/31/18:00:12.774000,(-15 -34 -5 -3 0 -1 -12 -7)
1969/12/31/18:00:12.774000,(7 35 13 5 -1 -5 12 33)
1969/12/31/18:00:12.810000,(9 2 -1 3 4 11 -15 -19)
1969/12/31/18:00:12.810000,(42 29 10 6 5 1 15 45)
1969/12/31/18:00:12.820000,(-18 1 7 5 2 4 16 38)
1969/12/31/18:00:12.820000,(-17 -7 -4 -3 -6 -29 -33 -90)
1969/12/31/18:00:12.821000,(-1 -1 -2 -4 0 2 14 11)
1969/12/31/18:00:12.821000,(-32 -14 0 -1 -9 -16 -10 -4)
1969/12/31/18:00:12.824000,(37 6 -8 -6 -4 15 14 36)
1969/12/31/18:00:12.824000,(-9 -5 -6 -5 -5 -45 -55 -52)
1969/12/31/18:00:12.832000,(15 9 6 1 3 26 22 26)
1969/12/31/18:00:12.832000,(9 -2 -2 0 6 29 17 -22)
1969/12/31/18:00:12.834000,(6 21 10 6 4 -11 0 30)
1969/12/31/18:00:12.834000,(23 13 2 0 7 64 46 66)
1969/12/31/18:00:12.855000,(48 1 4 5 4 -21 16 82)
1969/12/31/18:00:12.855000,(-17 -10 -14 -13 -11 4 -26 -52)
1969/12/31/18:00:12.856000,(-33 -5 -2 -4 -3 -11 -1 0)
1969/12/31/18:00:12.856000,(6 16 9 4 6 27 9 18)
1969/12/31/18:00:12.870000,(27 6 4 4 5 -1 -22 -28)
1969/12/31/18:00:12.870000,(-2 -5 2 5 8 9 45 69)
1969/12/31/18:00:12.872000,(-2 -2 -1 -3 -7 -17 -32 -35)
1969/12/31/18:00:12.872000,(-54 -25 -17 -10 -6 10 5 -11)
1969/12/31/18:00:12.892000,(-11 6 4 1 5 11 -22 0)
1969/12/31/18:00:12.892000,(-44 -24 -6 -7 -22 -109 -42 -50)
1969/12/31/18:00:12.894000,(28 9 1 0 5 45 33 -9)
1969/12/31/18:00:12.894000,(8 19 14 13 10 -20 41 50)
1969/12/31/18:00:12.906000,(-44 -21 -12 -5 1 42 16 -77)
1969/12/31/18:00:12.906000,(25 7 8 7 2 -21 -20 12)
1969/12/31/18:00:12.915000,(10 21 9 7 21 64 23 31)
1969/12/31/18:00:12.915000,(78 30 10 4 -6 -54 13 46)
1969/12/31/18:00:12.961000,(-47 -20 -3 -3 -4 1 2 -6)
1969/12/31/18:00:12.961000,(-42 -29 -20 -14 -4 17 -13 -78)
1969/12/31/18:00:12.963000,(-32 -21 -1 -1 -10 -29 9 -47)
1969/12/31/18:00:12.963000,(-28 -2 -7 -6 -5 11 -27 -30)
1969/12/31/18:00:12.964000,(-5 8 1 -2 -4 -13 -23 -17)
1969/12/31/18:00:12.964000,(-2 -7 6 9 7 10 13 25)
1969/12/31/18:00:12.968000,(54 27 2 1 4 17 17 39)
1969/12/31/18:00:12.968000,(-40 -44 -12 -10 -9 -4 -12 -10)
1969/12/31/18:00:12.969000,(-10 -6 -9 -6 -11 -27 1 15)
1969/12/31/18:00:12.969000,(-32 -9 -4 -5 -2 16 -11 -73)
1969/12/31/18:00:12.975000,(-3 -4 1 -1 -4 -49 -26 -1)
1969/12/31/18:00:12.975000,(-20 -3 -8 -9 -9 0 -33 -65)
1969/12/31/18:00:12.990000,(27 3 -3 -3 -11 -36 -43 1)
1969/12/31/18:00:12.990000,(50 15 2 1 4 24 14 57)
1969/12/31/18:00:12.992000,(-65 -30 -11 -7 -9 -23 -12 -32)
1969/12/31/18:00:12.992000,(23 -1 -6 -5 -6 -14 -19 -50)
1969/12/31/18:00:13.012000,(17 2 6 9 12 35 34 -2)
1969/12/31/18:00:13.012000,(-6 3 6 2 1 -14 7 27)
1969/12/31/18:00:13.014000,(55 13 -1 -3 -5 5 -12 16)
1969/12/31/18:00:13.014000,(-54 -23 -10 -6 -8 -13 -23 -29)
1969/12/31/18:00:13.026000,(22 16 8 6 6 8 22 41)
1969/12/31/18:00:13.026000,(-4 -3 -2 -3 -1 12 12 -11)
1969/12/31/18:00:13.035000,(4 6 5 5 4 7 -19 -8)
1969/12/31/18:00:13.035000,(2 10 0 2 3 9 24 1)
1969/12/31/18:00:13.050000,(-15 -18 -11 -7 -5 -22 1 47)
1969/12/31/18:00:13.050000,(-5 -2 -4 -3 0 28 -20 12)
1969/12/31/18:00:13.056000,(6 0 -1 -2 1 -3 12 19)
1969/12/31/18:00:13.056000,(26 3 5 3 2 3 -8 15)
1969/12/31/18:00:13.097000,(-4 10 2 -2 -7 -8 8 6)
1969/12/31/18:00:13.097000,(9 3 1 0 -1 3 -5 -22)
1969/12/31/18:00:13.099000,(-4 -6 -4 -3 0 14 10 17)
1969/12/31/18:00:13.099000,(25 10 3 4 3 -7 1 6)
1969/12/31/18:00:13.099000,(-28 -1 -2 0 2 7 -11 -48)
1969/12/31/18:00:13.099000,(3 -6 0 4 5 9 36 33)
1969/12/31/18:00:13.103000,(60 50 20 16 10 6 7 29)
1969/12/31/18:00:13.103000,(-58 -37 -12 -10 -10 -11 -11 -24)
1969/12/31/18:00:13.110000,(0 5 4 0 3 5 14 15)
1969/12/31/18:00:13.110000,(8 5 -1 4 21 1 -15 -5)
1969/12/31/18:00:13.112000,(-12 -8 -1 11 16 0 11 -6)
1969/12/31/18:00:13.112000,(51 35 11 0 -31 -1 -17 24)
1969/12/31/18:00:13.132000,(-49 -19 -19 -17 26 18 -23 -70)
1969/12/31/18:00:13.132000,(-23 -45 -14 -8 3 47 4 -21)
1969/12/31/18:00:13.134000,(-8 -4 -2 -27 -86 -93 -40 -52)
1969/12/31/18:00:13.134000,(12 5 5 3 15 25 -3 28)
1969/12/31/18:00:13.146000,(15 11 2 -1 -21 -19 -3 -3)
1969/12/31/18:00:13.146000,(23 19 10 14 37 12 17 49)
1969/12/31/18:00:13.155000,(-13 -10 -3 6 29 19 -10 -49)
1969/12/31/18:00:13.155000,(-16 -11 -5 0 -3 -4 1 -9)
1969/12/31/18:00:13.170000,(-31 -2 0 3 -5 -7 -25 -16)
1969/12/31/18:00:13.170000,(7 -2 -2 4 25 15 32 31)
1969/12/31/18:00:13.172000,(0 -4 -3 -1 -9 -7 21 48)
1969/12/31/18:00:13.172000,(50 22 9 4 -10 -39 16 43)
1969/12/31/18:00:13.194000,(9 -2 0 24 72 56 -7 -15)
1969/12/31/18:00:13.194000,(-26 -22 -9 -18 -96 -63 -1 -1)
1969/12/31/18:00:13.195000,(-52 -22 -15 -13 17 2 -40 -62)
1969/12/31/18:00:13.195000,(-10 -12 -8 -16 -40 21 -3 -38)
1969/12/31/18:00:13.230000,(-2 8 7 -7 -35 -41 24 11)
1969/12/31/18:00:13.230000,(-39 -18 -14 -17 -12 -50 -45 -60)
1969/12/31/18:00:13.240000,(34 20 9 2 -24 4 7 11)
1969/12/31/18:00:13.240000,(-53 -22 -9 -1 43 17 0 -30)
1969/12/31/18:00:13.240000,(15 -15 3 10 11 26 11 9)
1969/12/31/18:00:13.240000,(15 14 3 15 40 18 15 26)
1969/12/31/18:00:13.244000,(5 10 -5 -3 -4 1 -21 -31)
1969/12/31/18:00:13.244000,(-23 -14 10 -4 -17 -13 1 -9)
1969/12/31/18:00:13.252000,(-8 13 8 1 -33 -16 12 -31)
1969/12/31/18:00:13.252000,(7 -8 4 19 78 41 -24 -49)
1969/12/31/18:00:13.254000,(11 -19 -28 -14 -36 -20 -4 -5)
1969/12/31/18:00:13.254000,(-61 25 80 11 -43 -39 -20 -61)
1969/12/31/18:00:13.266000,(-8 -7 -1 -7 0 1 -1 -11)
1969/12/31/18:00:13.266000,(9 17 4 0 -25 -6 43 39)
1969/12/31/18:00:13.275000,(19 -20 -43 -4 39 53 25 64)
1969/12/31/18:00:13.275000,(-33 -3 19 5 23 -9 10 38)
1969/12/31/18:00:13.290000,(1 -36 -16 -9 -32 -44 -26 28)
1969/12/31/18:00:13.290000,(9 36 -18 -9 0 7 -25 -30)
1969/12/31/18:00:13.291000,(-12 11 56 21 12 13 43 73)
1969/12/31/18:00:13.292000,(1 -6 -12 -10 -23 -3 26 119)
1969/12/31/18:00:13.313000,(8 -4 4 5 23 13 -17 0)
1969/12/31/18:00:13.313000,(17 -52 -43 3 25 23 14 58)
1969/12/31/18:00:13.314000,(16 11 -23 -16 -22 1 30 14)
1969/12/31/18:00:13.314000,(-21 -22 -41 -28 -24 -47 -57 -90)
1969/12/31/18:00:13.326000,(-46 -37 -18 -8 -41 -32 -48 15)
1969/12/31/18:00:13.326000,(21 115 107 37 39 14 -37 -72)
1969/12/31/18:00:13.335000,(-52 -28 -8 -9 -38 -43 8 16)
1969/12/31/18:00:13.335000,(52 -36 -52 2 56 61 13 -60)
1969/12/31/18:00:13.365000,(-7 -87 -105 -36 -18 -19 1 -12)
1969/12/31/18:00:13.365000,(-89 36 59 -3 -110 -56 -82 -32)
1969/12/31/18:00:13.367000,(-35 20 -18 -2 47 21 -41 -82)
1969/12/31/18:00:13.367000,(12 120 110 62 31 3 -4 54)
1969/12/31/18:00:13.373000,(83 -49 -59 -11 23 23 27 25)
1969/12/31/18:00:13.373000,(56 -112 -105 -28 16 18 45 66)
1969/12/31/18:00:13.374000,(23 103 113 31 -6 -28 -43 -71)
1969/12/31/18:00:13.374000,(27 -56 -53 -6 -8 -11 27 29)
1969/12/31/18:00:13.386000,(83 113 104 43 24 16 1 16)
1969/12/31/18:00:13.386000,(-16 -76 -33 7 73 24 0 -66)
1969/12/31/18:00:13.395000,(-65 -33 -15 -11 -43 -2 10 -16)
1969/12/31/18:00:13.395000,(25 17 -7 0 52 41 19 4)
1969/12/31/18:00:13.409000,(58 40 33 7 -57 0 51 112)
1969/12/31/18:00:13.409000,(8 4 -21 -30 -78 -85 -24 -67)
1969/12/31/18:00:13.416000,(-23 -119 -86 -21 18 -5 -58 -82)
1969/12/31/18:00:13.416000,(-51 34 43 11 18 3 -3 -45)
1969/12/31/18:00:13.432000,(-28 28 20 -3 15 17 -2 -8)
1969/12/31/18:00:13.432000,(47 0 12 22 44 44 43 85)
1969/12/31/18:00:13.434000,(-16 -53 -45 -15 -12 -24 -23 -38)
1969/12/31/18:00:13.434000,(-53 73 74 6 -26 -3 0 -11)
1969/12/31/18:00:13.455000,(-1 -14 -1 6 39 19 19 15)
1969/12/31/18:00:13.455000,(-29 47 47 27 64 41 -27 -66)
1969/12/31/18:00:13.457000,(37 18 30 30 9 7 71 98)
1969/12/31/18:00:13.457000,(-6 -110 -99 -71 -114 -63 -26 -32)
1969/12/31/18:00:13.469000,(-17 -14 -1 -23 -19 -20 6 -14)
1969/12/31/18:00:13.469000,(-12 -12 -37 -16 -4 -13 -5 32)
1969/12/31/18:00:13.476000,(57 1 8 20 55 56 55 106)
1969/12/31/18:00:13.476000,(-15 18 -2 1 19 -2 -28 -63)
1969/12/31/18:00:13.508000,(-34 88 61 19 8 -3 -22 -60)
1969/12/31/18:00:13.508000,(63 -85 -71 -19 -26 -4 36 99)
1969/12/31/18:00:13.509000,(-27 97 97 34 42 26 -6 -71)
1969/12/31/18:00:13.509000,(72 -60 -74 -12 -28 -10 -13 11)
1969/12/31/18:00:13.515000,(-40 -101 -102 -48 14 14 -10 -17)
1969/12/31/18:00:13.515000,(-41 127 125 16 -93 -54 -30 -64)
1969/12/31/18:00:13.517000,(3 -11 -31 -29 -14 -10 11 17)
1969/12/31/18:00:13.517000,(75 -46 -61 0 49 34 -25 78)
1969/12/31/18:00:13.529000,(0 68 80 47 24 22 38 -17)
1969/12/31/18:00:13.529000,(-25 -65 -24 -20 2 -11 -9 -1)
1969/12/31/18:00:13.536000,(4 -2 -24 12 36 -1 -61 -12)
1969/12/31/18:00:13.536000,(-17 -22 -5 -25 -70 -25 59 7)
1969/12/31/18:00:13.552000,(14 -34 -48 -31 -9 -5 -33 0)
1969/12/31/18:00:13.552000,(27 4 -22 -4 -8 6 36 28)
1969/12/31/18:00:13.554000,(-1 -4 23 3 15 -2 -13 7)
1969/12/31/18:00:13.554000,(-66 -14 6 39 105 69 3 -50)
1969/12/31/18:00:13.575000,(-27 27 13 -27 -111 -111 -41 -35)
1969/12/31/18:00:13.575000,(7 127 99 3 10 31 29 30)
1969/12/31/18:00:13.577000,(0 -78 -54 -12 -8 -10 0 -11)
1969/12/31/18:00:13.577000,(57 -73 -96 -14 50 48 62 70)
1969/12/31/18:00:13.589000,(-39 46 74 31 25 8 -35 -46)
1969/12/31/18:00:13.589000,(-37 -2 4 2 -26 -27 -39 -30)
1969/12/31/18:00:13.596000,(-3 -83 -64 -16 25 57 45 17)
1969/12/31/18:00:13.596000,(-6 127 116 15 -59 -66 -6 25)
1969/12/31/18:00:13.613000,(-8 -30 -36 -1 20 12 -9 -46)
1969/12/31/18:00:13.613000,(59 -89 -91 -32 -29 -7 27 28)
1969/12/31/18:00:13.614000,(-51 7 38 32 47 10 -33 -5)
1969/12/31/18:00:13.614000,(19 52 48 -34 -96 -61 -15 -37)
1969/12/31/18:00:13.643000,(-37 -68 -44 -22 14 6 2 17)
1969/12/31/18:00:13.643000,(39 8 -20 7 35 24 33 38)
1969/12/31/18:00:13.644000,(36 29 -6 -8 -1 -4 -14 13)
1969/12/31/18:00:13.644000,(-13 35 44 38 44 19 9 -10)
1969/12/31/18:00:13.649000,(46 -58 -68 -12 -9 1 20 44)
1969/12/31/18:00:13.649000,(-60 23 64 -6 -23 -19 -5 -47)
1969/12/31/18:00:13.656000,(16 32 2 8 10 8 16 22)
1969/12/31/18:00:13.656000,(37 -51 -55 -13 -17 -12 -39 12)
1969/12/31/18:00:13.672000,(-6 69 73 24 12 4 -38 -7)
1969/12/31/18:00:13.672000,(9 -33 -19 14 36 30 11 36)
1969/12/31/18:00:13.674000,(-36 5 15 -32 -102 -65 -37 -62)
1969/12/31/18:00:13.674000,(19 36 31 26 21 31 39 49)
1969/12/31/18:00:13.695000,(17 -48 -54 -1 62 25 -10 -17)
1969/12/31/18:00:13.695000,(-33 -38 -49 -22 -50 -54 11 -14)
1969/12/31/18:00:13.696000,(11 11 19 -10 -2 6 -29 15)
1969/12/31/18:00:13.696000,(50 -34 -53 -2 -27 -32 16 45)
1969/12/31/18:00:13.717000,(6 1 5 -18 -22 13 20 24)
1969/12/31/18:00:13.718000,(-52 62 63 14 -4 -42 -50 -45)
1969/12/31/18:00:13.719000,(50 17 -4 7 14 17 61 6)
1969/12/31/18:00:13.719000,(-98 -50 -2 7 42 25 -70 -100)
1969/12/31/18:00:13.733000,(22 4 -26 -2 6 19 44 39)
1969/12/31/18:00:13.733000,(29 -24 -36 -30 -52 -37 -14 1)
1969/12/31/18:00:13.734000,(0 12 21 -22 -40 -4 25 6)
1969/12/31/18:00:13.734000,(14 31 26 16 48 24 -27 -3)
1969/12/31/18:00:13.755000,(33 5 -16 19 21 4 41 25)
1969/12/31/18:00:13.755000,(-52 46 80 22 -30 -26 -46 -71)
1969/12/31/18:00:13.756000,(9 -42 -42 -26 -13 -19 -17 25)
1969/12/31/18:00:13.756000,(39 -30 -43 -1 49 58 55 50)
1969/12/31/18:00:13.794000,(-13 21 37 13 -4 -48 -65 -22)
1969/12/31/18:00:13.794000,(4 -45 -42 -21 -55 -14 13 49)
1969/12/31/18:00:13.795000,(5 52 33 12 19 15 -11 -8)
1969/12/31/18:00:13.795000,(-20 -13 -22 -17 0 21 18 -31)
1969/12/31/18:00:13.796000,(-6 -15 -8 -2 10 10 -4 -17)
1969/12/31/18:00:13.796000,(-12 -32 -41 13 91 56 47 33)
1969/12/31/18:00:13.800000,(-53 26 46 4 -96 -104 -97 -34)
1969/12/31/18:00:13.800000,(12 7 -18 -28 -10 14 37 48)
1969/12/31/18:00:13.822000,(-18 57 72 32 21 26 8 -25)
1969/12/31/18:00:13.822000,(50 -31 -54 10 90 49 1 11)
1969/12/31/18:00:13.824000,(0 -5 -6 2 -14 19 42 6)
1969/12/31/18:00:13.824000,(26 -4 48 48 37 -5 -54 -29)
1969/12/31/18:00:13.829000,(-48 36 -1 -50 -95 -65 -32 -83)
1969/12/31/18:00:13.829000,(6 -51 -31 12 28 46 32 37)
1969/12/31/18:00:13.838000,(14 44 52 23 44 5 -28 -10)
1969/12/31/18:00:13.838000,(-5 4 -3 -11 -54 -37 -23 -24)
1969/12/31/18:00:13.852000,(21 -16 -27 -6 1 2 51 57)
1969/12/31/18:00:13.852000,(12 -77 -45 -19 -13 4 -92 -63)
1969/12/31/18:00:13.854000,(-37 -57 -70 -18 9 -15 33 -4)
1969/12/31/18:00:13.854000,(-50 99 81 23 -2 8 -6 -40)
1969/12/31/18:00:13.875000,(-3 -39 -13 3 30 40 15 -1)
1969/12/31/18:00:13.875000,(0 -77 -60 -36 -78 -52 -1 1)
1969/12/31/18:00:13.876000,(39 8 -10 17 47 44 19 43)
1969/12/31/18:00:13.877000,(-7 -50 -40 -16 6 -24 -39 -26)
1969/12/31/18:00:13.889000,(-9 17 -1 0 -13 -2 6 -36)
1969/12/31/18:00:13.889000,(-42 121 117 26 10 17 16 0)
1969/12/31/18:00:13.922000,(-66 -74 -56 -28 -34 -49 -39 -77)
1969/12/31/18:00:13.922000,(55 -32 -28 7 28 7 29 69)
1969/12/31/18:00:13.923000,(-16 -37 -41 -9 33 16 4 -30)
1969/12/31/18:00:13.923000,(-6 53 34 -23 -68 -38 -55 -49)
1969/12/31/18:00:13.926000,(-25 -5 13 21 55 48 26 56)
1969/12/31/18:00:13.926000,(-47 -52 -47 -27 -55 -23 25 -62)
1969/12/31/18:00:13.935000,(45 65 44 -9 -56 -60 -11 53)
1969/12/31/18:00:13.935000,(6 5 -1 15 83 50 28 11)
1969/12/31/18:00:13.937000,(33 -19 -47 -28 -59 -28 16 -9)
1969/12/31/18:00:13.937000,(-20 60 95 41 29 9 13 38)
1969/12/31/18:00:13.948000,(4 -47 -32 -4 12 25 4 -3)
1969/12/31/18:00:13.949000,(24 54 -22 5 40 43 50 27)
1969/12/31/18:00:13.958000,(20 84 83 41 -6 -18 -34 -45)
1969/12/31/18:00:13.958000,(10 -33 -43 -16 11 5 25 -17)
1969/12/31/18:00:13.972000,(3 -2 6 -4 -45 -25 -16 43)
1969/12/31/18:00:13.972000,(25 -42 -15 -8 1 -11 19 36)
1969/12/31/18:00:13.974000,(2 -65 -79 -43 -21 -3 -20 -12)
1969/12/31/18:00:13.974000,(-24 7 3 5 54 31 -23 -40)
1969/12/31/18:00:13.995000,(-7 -60 -53 -11 -35 -19 -14 -11)
1969/12/31/18:00:13.995000,(-21 49 66 10 -22 -43 -10 -23)
1969/12/31/18:00:13.997000,(1 12 16 9 28 21 41 69)
1969/12/31/18:00:13.997000,(-35 -15 -15 -28 -100 -57 -13 6)
1969/12/31/18:00:14.009000,(21 -51 -24 10 84 64 43 22)
1969/12/31/18:00:14.009000,(26 13 -10 15 34 32 21 22)
1969/12/31/18:00:14.024000,(-5 -2 5 -1 -11 -12 -10 -1)
1969/12/31/18:00:14.024000,(-31 45 30 -8 -24 -31 -46 -40)
1969/12/31/18:00:14.033000,(-2 7 17 22 55 40 43 15)
1969/12/31/18:00:14.033000,(7 -1 -19 -5 -51 -22 11 36)
1969/12/31/18:00:14.034000,(9 89 58 14 22 41 32 -14)
1969/12/31/18:00:14.034000,(48 -93 -47 -6 5 -18 -7 32)
1969/12/31/18:00:14.063000,(16 20 -5 5 29 26 -11 -15)
1969/12/31/18:00:14.063000,(-40 10 41 13 -19 -23 -10 -43)
1969/12/31/18:00:14.064000,(10 -31 -41 -31 -53 -29 -16 -15)
1969/12/31/18:00:14.064000,(18 13 -4 1 39 29 40 50)
1969/12/31/18:00:14.069000,(-20 21 30 27 41 14 -1 -4)
1969/12/31/18:00:14.069000,(15 -57 -58 -49 -79 -54 23 17)
1969/12/31/18:00:14.078000,(40 29 13 -3 9 13 -36 9)
1969/12/31/18:00:14.078000,(11 -17 -18 -1 5 18 -2 7)
1969/12/31/18:00:14.093000,(42 101 87 41 21 -4 42 83)
1969/12/31/18:00:14.093000,(-37 -30 -12 8 27 19 -15 -43)
1969/12/31/18:00:14.094000,(-23 -3 1 1 -14 -7 -13 -2)
1969/12/31/18:00:14.094000,(-20 10 17 -5 6 3 -4 -19)
1969/12/31/18:00:14.115000,(28 -63 -78 -11 21 19 -3 39)
1969/12/31/18:00:14.115000,(-67 40 58 -1 -42 -16 -27 -25)
1969/12/31/18:00:14.117000,(27 5 4 0 7 -15 2 9)
1969/12/31/18:00:14.117000,(-3 32 8 -1 -25 -7 3 -12)
1969/12/31/18:00:14.129000,(-16 -78 -49 -28 -35 -39 5 3)
1969/12/31/18:00:14.129000,(-39 -29 -18 -3 -8 -8 -29 -42)
1969/12/31/18:00:14.138000,(-6 0 -2 8 37 40 30 -7)
1969/12/31/18:00:14.138000,(-31 -69 -34 -7 -26 -15 26 12)
1969/12/31/18:00:14.152000,(-27 3 16 -1 36 1 -49 -42)
1969/12/31/18:00:14.152000,(81 73 41 30 40 13 14 39)
1969/12/31/18:00:14.154000,(-18 -36 -19 7 0 19 9 10)
1969/12/31/18:00:14.154000,(26 33 -9 -14 -35 -24 10 20)
1969/12/31/18:00:14.199000,(-29 28 4 -29 -70 -44 -33 -43)
1969/12/31/18:00:14.199000,(18 -13 7 20 51 21 13 16)
1969/12/31/18:00:14.200000,(19 5 -6 7 26 32 26 5)
1969/12/31/18:00:14.200000,(-36 -12 6 7 32 -7 -67 -46)
1969/12/31/18:00:14.201000,(-13 -8 -12 -20 -111 -83 -45 -10)
1969/12/31/18:00:14.201000,(18 -48 -44 -15 32 20 -3 -13)
1969/12/31/18:00:14.205000,(8 35 23 -7 -36 -16 -3 16)
1969/12/31/18:00:14.205000,(13 23 15 13 39 21 14 10)
1969/12/31/18:00:14.212000,(5 4 12 9 37 25 -4 19)
1969/12/31/18:00:14.213000,(-51 -55 -55 -27 -59 -53 -53 -95)
1969/12/31/18:00:14.214000,(6 -21 8 1 7 -9 0 39)
1969/12/31/18:00:14.214000,(12 -21 -24 -18 -6 -1 -7 1)
1969/12/31/18:00:14.235000,(-1 21 35 11 -4 -2 4 -9)
1969/12/31/18:00:14.235000,(52 72 16 15 19 23 30 53)
1969/12/31/18:00:14.236000,(-30 -52 -33 -7 35 18 10 -24)
1969/12/31/18:00:14.237000,(-5 -3 -15 -8 -18 -9 -14 -46)
1969/12/31/18:00:14.249000,(-11 47 27 17 23 25 -4 -4)
1969/12/31/18:00:14.249000,(-19 -11 13 -2 -19 -19 0 16)
1969/12/31/18:00:14.258000,(-29 -5 2 8 15 8 4 -12)
1969/12/31/18:00:14.258000,(11 -35 -32 -13 -20 -10 8 27)
1969/12/31/18:00:14.272000,(58 18 -12 -14 -28 -21 4 25)
1969/12/31/18:00:14.273000,(-50 -33 1 7 18 33 38 9)
1969/12/31/18:00:14.274000,(23 31 8 3 -1 -19 -59 -7)
1969/12/31/18:00:14.274000,(-45 -67 -30 -15 11 24 21 1)
1969/12/31/18:00:14.295000,(51 54 20 17 13 32 9 25)
1969/12/31/18:00:14.295000,(-34 14 8 1 12 -41 -51 -66)
1969/12/31/18:00:14.297000,(8 -34 -8 -5 -49 -28 15 36)
1969/12/31/18:00:14.297000,(6 -12 -11 -2 10 15 4 4)
1969/12/31/18:00:14.309000,(-9 -14 -15 -15 -21 -12 -5 -18)
1969/12/31/18:00:14.309000,(-37 -52 -9 0 9 23 11 25)
1969/12/31/18:00:14.342000,(37 37 6 8 23 13 14 17)
1969/12/31/18:00:14.342000,(31 83 70 32 4 -2 1 10)
1969/12/31/18:00:14.343000,(-43 -45 -25 -18 -21 -11 -10 -63)
1969/12/31/18:00:14.343000,(58 20 0 4 12 3 -39 -25)
1969/12/31/18:00:14.346000,(-25 -31 -22 -92 -107 -91 -6 -25)
1969/12/31/18:00:14.346000,(29 27 9 52 94 94 45 46)
1969/12/31/18:00:14.355000,(-26 -8 13 55 13 -54 -50 -29)
1969/12/31/18:00:14.355000,(24 20 1 11 3 11 18 30)
1969/12/31/18:00:14.356000,(-36 -11 -6 13 -18 -10 0 -61)
1969/12/31/18:00:14.356000,(-6 -3 1 -29 -22 7 14 23)
1969/12/31/18:00:14.377000,(15 17 4 -25 -30 -20 0 15)
1969/12/31/18:00:14.377000,(44 7 -4 1 5 11 18 41)
1969/12/31/18:00:14.379000,(-76 -41 -27 -15 -8 -18 -36 -95)
1969/12/31/18:00:14.379000,(-49 11 4 -14 -15 -22 -45 -40)
1969/12/31/18:00:14.392000,(-20 -32 -4 6 20 17 4 -21)
1969/12/31/18:00:14.392000,(46 36 11 -7 -18 -6 6 18)
1969/12/31/18:00:14.399000,(-13 -17 6 16 29 35 16 31)
1969/12/31/18:00:14.399000,(36 8 4 8 -2 -7 33 38)
1969/12/31/18:00:14.415000,(-28 -10 -5 -8 -15 -4 6 -29)
1969/12/31/18:00:14.415000,(44 21 -4 -10 -6 2 -5 17)
1969/12/31/18:00:14.416000,(-8 -6 5 17 27 20 10 -10)
1969/12/31/18:00:14.416000,(-13 -9 -7 0 -17 -27 -2 31)
1969/12/31/18:00:14.438000,(-40 -21 -4 -8 8 22 -7 12)
1969/12/31/18:00:14.438000,(24 14 3 -1 -9 4 42 38)
1969/12/31/18:00:14.439000,(-1 -13 2 16 17 4 7 5)
1969/12/31/18:00:14.439000,(-19 1 -1 -10 -30 -34 -25 -26)
1969/12/31/18:00:14.476000,(20 -6 -4 -12 11 37 34 13)
1969/12/31/18:00:14.476000,(-24 1 3 10 7 -9 -34 -3)
1969/12/31/18:00:14.478000,(-44 -18 -12 -5 -4 7 -8 -16)
1969/12/31/18:00:14.478000,(15 14 1 -2 -7 -11 21 37)
1969/12/31/18:00:14.479000,(44 17 12 7 9 8 2 49)
1969/12/31/18:00:14.479000,(32 -6 -1 -11 -4 26 21 41)
1969/12/31/18:00:14.483000,(-78 -41 -16 -5 -3 -12 -34 -49)
1969/12/31/18:00:14.483000,(67 15 7 6 4 11 -20 18)
1969/12/31/18:00:14.497000,(-66 -4 0 8 -12 -26 14 -46)
1969/12/31/18:00:14.497000,(15 11 -2 -6 -4 -8 -3 -19)
1969/12/31/18:00:14.499000,(10 -11 9 15 13 3 10 18)
1969/12/31/18:00:14.499000,(9 26 -4 -8 -4 5 -20 -33)
1969/12/31/18:00:14.512000,(9 -30 -15 -10 -10 2 19 109)
1969/12/31/18:00:14.512000,(23 22 5 -2 -2 -5 8 28)
1969/12/31/18:00:14.519000,(60 37 15 12 21 70 44 67)
1969/12/31/18:00:14.519000,(27 8 8 6 -4 -51 -19 -16)
1969/12/31/18:00:14.535000,(-72 -32 -11 -16 -17 -9 -24 -92)
1969/12/31/18:00:14.535000,(49 14 -1 0 3 -3 -5 27)
1969/12/31/18:00:14.537000,(77 37 15 12 12 8 27 76)
1969/12/31/18:00:14.537000,(-46 -44 -20 -13 -12 36 14 -16)
1969/12/31/18:00:14.558000,(-2 3 -2 -4 -9 -61 -37 -80)
1969/12/31/18:00:14.558000,(-22 -23 -4 0 5 18 3 -7)
1969/12/31/18:00:14.559000,(1 19 -1 -1 -9 -18 -24 -62)
1969/12/31/18:00:14.559000,(11 -2 6 3 2 7 16 13)
1969/12/31/18:00:14.572000,(26 -1 -7 -2 2 16 12 31)
1969/12/31/18:00:14.572000,(-39 -30 -20 -13 -8 -15 -26 -35)
1969/12/31/18:00:14.579000,(45 16 16 15 13 13 23 85)
1969/12/31/18:00:14.579000,(-96 -34 -13 -7 -10 -14 -6 1)
1969/12/31/18:00:14.626000,(1 2 1 -1 1 4 -27 -57)
1969/12/31/18:00:14.626000,(10 20 8 5 2 3 18 43)
1969/12/31/18:00:14.628000,(27 0 0 -2 -5 -3 -2 10)
1969/12/31/18:00:14.628000,(13 19 13 9 8 -1 2 3)
1969/12/31/18:00:14.629000,(25 11 -3 -2 -3 8 5 -13)
1969/12/31/18:00:14.629000,(-2 -7 3 3 1 6 9 9)
1969/12/31/18:00:14.633000,(18 2 -3 -1 -3 -9 -6 -22)
1969/12/31/18:00:14.633000,(-6 -7 -4 -4 -5 -10 -7 -4)
1969/12/31/18:00:14.634000,(45 35 14 9 11 21 28 81)
1969/12/31/18:00:14.634000,(-28 -15 -11 -8 -9 -16 -26 -62)
1969/12/31/18:00:14.640000,(-26 -19 -10 -8 -6 -12 -17 -27)
1969/12/31/18:00:14.640000,(32 15 5 0 -1 0 3 1)
1969/12/31/18:00:14.655000,(-3 4 3 3 1 12 6 8)
1969/12/31/18:00:14.655000,(-16 -19 -4 -3 1 -2 -2 5)
1969/12/31/18:00:14.656000,(-46 -12 -2 -4 -5 -11 -19 -71)
1969/12/31/18:00:14.657000,(9 8 -1 -3 -5 -6 -9 -12)
1969/12/31/18:00:14.676000,(5 6 -3 -2 1 6 8 15)
1969/12/31/18:00:14.676000,(-26 -14 -10 -2 -3 -4 -9 -18)
1969/12/31/18:00:14.685000,(-2 -12 -16 -7 -8 -10 -9 -2)
1969/12/31/18:00:14.685000,(3 0 16 5 3 3 9 -2)
1969/12/31/18:00:14.691000,(-9 14 11 5 2 0 -13 -29)
1969/12/31/18:00:14.691000,(-13 -10 -6 -4 -3 -7 2 -11)
1969/12/31/18:00:14.700000,(24 13 2 1 2 4 2 23)
1969/12/31/18:00:14.700000,(-22 -4 -4 0 -2 -4 -11 -40)
1969/12/31/18:00:14.715000,(25 -8 -13 -8 -6 2 10 16)
1969/12/31/18:00:14.715000,(-30 7 11 1 -1 -5 -9 -4)
1969/12/31/18:00:14.717000,(2 -11 -5 3 6 8 22 37)
1969/12/31/18:00:14.717000,(-8 -41 -27 -12 -11 -14 -48 -46)
1969/12/31/18:00:14.753000,(-1 28 16 3 -1 2 0 1)
1969/12/31/18:00:14.754000,(-3 15 9 2 -2 -2 -7 -15)
1969/12/31/18:00:14.755000,(4 -5 -25 -11 -1 3 -2 5)
1969/12/31/18:00:14.755000,(5 43 38 11 -1 -2 18 24)
1969/12/31/18:00:14.759000,(-8 -18 5 8 4 4 -1 15)
1969/12/31/18:00:14.759000,(-5 -56 -54 -21 -12 -9 -14 -19)
1969/12/31/18:00:14.760000,(9 0 -5 -4 -3 -1 11 9)
1969/12/31/18:00:14.760000,(6 67 65 22 11 6 -10 -4)
1969/12/31/18:00:14.774000,(-3 -14 -19 -7 -4 -3 15 4)
1969/12/31/18:00:14.774000,(-6 13 20 8 6 3 -6 0)
1969/12/31/18:00:14.775000,(-2 -8 -9 -6 -4 -1 5 -1)
1969/12/31/18:00:14.775000,(12 -17 -24 -7 -2 1 3 12)
1969/12/31/18:00:14.797000,(-7 3 1 -6 -8 -5 -14 -10)
1969/12/31/18:00:14.797000,(-1 -47 -46 -12 -1 7 18 6)
1969/12/31/18:00:14.797000,(-1 40 54 20 6 -3 1 -3)
1969/12/31/18:00:14.797000,(3 -14 -34 -14 -8 -6 -14 1)
1969/12/31/18:00:14.819000,(-12 38 54 21 10 4 0 1)
1969/12/31/18:00:14.819000,(6 -8 -9 -2 -3 -6 8 5)
1969/12/31/18:00:14.820000,(2 10 9 3 0 2 -4 -7)
1969/12/31/18:00:14.820000,(4 -8 -5 0 1 0 4 2)
1969/12/31/18:00:14.834000,(-4 -41 -30 -10 -5 -3 13 -2)
1969/12/31/18:00:14.834000,(-3 20 10 -1 -1 -2 -14 -7)
1969/12/31/18:00:14.835000,(1 4 2 -3 -5 -7 -5 2)
1969/12/31/18:00:14.835000,(-2 11 8 2 1 0 -4 1)
1969/12/31/18:00:14.857000,(-2 -36 -34 -15 -8 -3 2 2)
1969/12/31/18:00:14.857000,(-1 12 22 11 4 4 0 -2)
1969/12/31/18:00:14.858000,(0 13 7 -2 -1 -1 -1 2)
1969/12/31/18:00:14.858000,(3 -32 -25 -9 -2 6 14 12)
1969/12/31/18:00:14.904000,(4 -30 -25 -8 -3 -4 3 3)
1969/12/31/18:00:14.904000,(-5 88 60 20 5 1 -1 -8)
1969/12/31/18:00:14.905000,(-2 -43 -26 -15 -9 -6 -14 -7)
1969/12/31/18:00:14.905000,(-1 25 5 9 0 -3 0 -5)
1969/12/31/18:00:14.906000,(0 6 4 2 -3 5 1 3)
1969/12/31/18:00:14.906000,(-4 -38 -27 -16 -7 -7 -9 -6)
1969/12/31/18:00:14.909000,(-2 2 -2 6 2 3 3 -2)
1969/12/31/18:00:14.909000,(-2 -5 1 -3 -5 -2 3 5)
1969/12/31/18:00:14.917000,(5 -9 -29 -14 -4 -2 -8 2)
1969/12/31/18:00:14.917000,(-1 -32 1 5 -1 4 0 -1)
1969/12/31/18:00:14.917000,(-16 22 16 7 -1 -3 -5 -11)
1969/12/31/18:00:14.917000,(1 -4 1 -2 -2 0 3 1)
1969/12/31/18:00:14.939000,(2 5 4 4 1 0 -11 -3)
1969/12/31/18:00:14.939000,(6 0 -4 -2 1 3 3 1)
1969/12/31/18:00:14.940000,(-4 -16 -8 -1 -2 -5 -8 -3)
1969/12/31/18:00:14.940000,(-1 1 2 -4 0 -2 6 7)
1969/12/31/18:00:14.954000,(-5 1 1 -1 0 -6 -2 2)
1969/12/31/18:00:14.954000,(2 9 -13 -5 3 -2 8 2)
1969/12/31/18:00:14.955000,(12 -6 -41 -20 -7 -10 -5 2)
1969/12/31/18:00:14.955000,(0 0 3 11 8 0 3 0)
1969/12/31/18:00:14.977000,(-1 -2 7 3 4 3 8 6)
1969/12/31/18:00:14.977000,(-13 -12 -18 -14 -7 -3 0 -4)
1969/12/31/18:00:14.977000,(5 14 8 1 -2 -5 -6 -5)
1969/12/31/18:00:14.977000,(7 -4 -1 8 5 0 6 4)
1969/12/31/18:00:14.999000,(-1 10 12 8 2 -1 -1 2)
1969/12/31/18:00:14.999000,(4 -2 -2 -2 -4 -2 1 2)
1969/12/31/18:00:15.000000,(-10 -8 5 -8 -5 -5 -7 -10)
1969/12/31/18:00:15.000000,(-7 -22 -49 -22 -10 -8 -6 -6)
1969/12/31/18:00:15.031000,(4 54 54 23 9 7 6 -2)
1969/12/31/18:00:15.031000,(1 -8 -21 -11 -4 -2 -8 0)
1969/12/31/18:00:15.032000,(1 -24 6 3 0 3 3 4)
1969/12/31/18:00:15.032000,(-4 30 21 -3 -5 -3 -5 -4)
1969/12/31/18:00:15.037000,(-1 -20 -16 -10 -5 -4 -8 -3)
1969/12/31/18:00:15.037000,(-7 -30 -9 1 -2 -2 0 -3)
1969/12/31/18:00:15.038000,(9 33 23 13 4 3 0 3)
1969/12/31/18:00:15.038000,(-10 -40 2 3 2 4 1 -2)
1969/12/31/18:00:15.067000,(-2 -4 -9 -12 -8 -3 -4 -2)
1969/12/31/18:00:15.067000,(1 10 16 11 6 5 2 -1)
1969/12/31/18:00:15.068000,(-6 -13 -18 -9 -5 -4 -5 -4)
1969/12/31/18:00:15.068000,(2 -4 7 4 1 1 2 0)
1969/12/31/18:00:15.074000,(-11 -17 -16 -11 -6 0 -3 -5)
1969/12/31/18:00:15.074000,(-2 -13 1 13 3 1 -2 -2)
1969/12/31/18:00:15.075000,(3 0 -7 -1 1 3 2 4)
1969/12/31/18:00:15.075000,(-1 2 3 0 -1 1 2 3)
1969/12/31/18:00:15.097000,(0 5 2 0 1 -1 -2 -1)
1969/12/31/18:00:15.097000,(-6 -8 -3 -5 -3 -4 2 2)
1969/12/31/18:00:15.098000,(1 9 3 1 1 -1 1 2)
1969/12/31/18:00:15.098000,(-2 -2 -8 -5 -2 -4 -1 -2)
1969/12/31/18:00:15.122000,(1 -6 -3 0 1 0 1 3)
1969/12/31/18:00:15.122000,(1 12 5 -1 0 -3 -2 -2)
1969/12/31/18:00:15.123000,(-2 5 9 4 1 -1 1 -2)
1969/12/31/18:00:15.123000,(-1 6 0 -4 -1 -1 -2 -2)
1969/12/31/18:00:15.123000,(-3 -3 -3 -4 -4 -1 -1 -1)
1969/12/31/18:00:15.123000,(0 -3 0 3 1 -1 -1 -2)
1969/12/31/18:00:15.124000,(-2 -2 -3 0 1 0 0 0)
1969/12/31/18:00:15.124000,(-1 0 3 0 1 -1 1 2)
1969/12/31/18:00:15.177000,(1 2 0 -1 -2 -3 -1 1)
1969/12/31/18:00:15.177000,(2 0 0 1 -1 0 -1 -2)
1969/12/31/18:00:15.178000,(-3 -6 -9 -10 -5 -2 -3 -4)
1969/12/31/18:00:15.178000,(0 -4 -3 -6 -3 -1 -3 -1)
1969/12/31/18:00:15.179000,(2 5 7 10 2 -1 1 0)
1969/12/31/18:00:15.179000,(-1 3 4 4 1 0 -1 1)
1969/12/31/18:00:15.184000,(0 4 8 8 1 0 0 1)
1969/12/31/18:00:15.184000,(-3 -12 -11 -9 -5 -1 1 -1)
1969/12/31/18:00:15.186000,(-3 2 -6 -12 -6 -3 -2 -3)
1969/12/31/18:00:15.186000,(-4 -8 -13 -17 -5 -3 -2 -1)
1969/12/31/18:00:15.187000,(2 8 9 14 2 3 1 1)
1969/12/31/18:00:15.187000,(3 12 20 16 6 2 1 3)
1969/12/31/18:00:15.197000,(-3 -7 7 2 0 -2 -3 -1)
1969/12/31/18:00:15.197000,(-4 -9 -27 -18 -5 -5 -3 -2)
1969/12/31/18:00:15.205000,(-7 -23 -34 -40 -14 -6 -2 -1)
1969/12/31/18:00:15.205000,(-2 5 -10 -11 -6 -2 1 3)
1969/12/31/18:00:15.220000,(2 11 41 38 12 1 -5 -9)
1969/12/31/18:00:15.220000,(10 -2 30 29 11 6 5 8)
1969/12/31/18:00:15.228000,(3 42 29 17 9 4 2 -3)
1969/12/31/18:00:15.228000,(-3 -14 -29 -22 -5 -1 2 3)
1969/12/31/18:00:15.243000,(-5 -14 -24 -8 -12 -6 -5 -7)
1969/12/31/18:00:15.243000,(0 0 -3 9 3 -2 -7 -5)
1969/12/31/18:00:15.244000,(0 -4 35 -4 -3 -2 -1 -4)
1969/12/31/18:00:15.244000,(4 3 -2 10 3 1 1 7)
1969/12/31/18:00:15.257000,(-6 -13 -43 -46 -9 -2 1 2)
1969/12/31/18:00:15.257000,(-12 -16 -50 -11 -7 -2 -2 -4)
1969/12/31/18:00:15.265000,(-4 -18 -6 -28 -8 -6 -5 -3)
1969/12/31/18:00:15.265000,(4 25 66 33 7 3 -1 -2)
1969/12/31/18:00:15.280000,(5 7 -1 7 4 2 3 3)
1969/12/31/18:00:15.280000,(7 25 40 35 9 3 3 4)
1969/12/31/18:00:15.310000,(-2 2 10 -10 -2 2 -1 1)
1969/12/31/18:00:15.310000,(-5 -15 -5 4 -4 -3 -5 -6)
1969/12/31/18:00:15.321000,(3 14 6 44 14 2 -1 -3)
1969/12/31/18:00:15.321000,(2 5 10 -4 0 0 0 -1)
1969/12/31/18:00:15.322000,(8 17 -6 19 12 3 3 5)
1969/12/31/18:00:15.322000,(-12 -24 -17 -29 -14 -7 -2 -6)
1969/12/31/18:00:15.325000,(-9 -30 -60 -67 -23 -12 -13 -11)
1969/12/31/18:00:15.325000,(-15 -31 -80 -70 -24 -11 -7 -8)
1969/12/31/18:00:15.326000,(6 4 28 41 14 5 4 3)
1969/12/31/18:00:15.326000,(15 49 82 73 22 6 3 5)
1969/12/31/18:00:15.340000,(-1 -8 -68 -30 -7 1 2 5)
1969/12/31/18:00:15.340000,(-1 8 97 21 -1 -4 -7 -6)
1969/12/31/18:00:15.348000,(-1 -8 -38 7 -2 -1 -2 -1)
1969/12/31/18:00:15.348000,(-4 -10 -28 -15 -3 -2 -4 -5)
1969/12/31/18:00:15.363000,(-5 -9 -21 -17 -3 3 8 8)
1969/12/31/18:00:15.363000,(3 2 1 18 0 -4 -5 -4)
1969/12/31/18:00:15.364000,(-4 0 35 17 6 0 0 -1)
1969/12/31/18:00:15.364000,(-4 -5 -10 -16 -4 -3 -5 -7)
1969/12/31/18:00:15.377000,(4 -2 -5 1 1 1 3 11)
1969/12/31/18:00:15.377000,(-11 -20 -52 -38 -10 -3 -3 -8)
1969/12/31/18:00:15.385000,(-5 4 -5 -11 -5 -2 -1 -5)
1969/12/31/18:00:15.385000,(-5 -11 -45 -1 -5 -5 -6 -6)
1969/12/31/18:00:15.400000,(6 7 106 39 6 0 -3 0)
1969/12/31/18:00:15.400000,(3 18 -5 5 7 6 7 8)
1969/12/31/18:00:15.408000,(5 16 7 17 -1 -1 1 3)
1969/12/31/18:00:15.408000,(8 19 7 0 6 4 5 4)
1969/12/31/18:00:15.447000,(-4 -7 -5 4 -2 -2 0 -2)
1969/12/31/18:00:15.447000,(-8 -49 -1 -5 -7 -2 -2 -3)
1969/12/31/18:00:15.448000,(2 23 -26 -7 -3 -4 -8 -8)
1969/12/31/18:00:15.448000,(-8 -19 -20 -19 -6 0 0 -1)
1969/12/31/18:00:15.454000,(6 16 31 19 5 3 -1 -4)
1969/12/31/18:00:15.454000,(1 9 8 2 1 0 -3 -1)
1969/12/31/18:00:15.454000,(-6 -19 -33 -28 -12 -3 -5 -5)
1969/12/31/18:00:15.454000,(-2 -6 -2 0 -2 0 0 1)
1969/12/31/18:00:15.460000,(2 5 20 10 0 1 -2 -3)
1969/12/31/18:00:15.460000,(1 10 -11 -8 -1 1 0 1)
1969/12/31/18:00:15.468000,(-4 -21 -6 0 -2 -1 -2 -1)
1969/12/31/18:00:15.468000,(-2 0 12 4 1 -1 -3 -4)
1969/12/31/18:00:15.482000,(-2 1 -14 -10 -1 -1 -2 -4)
1969/12/31/18:00:15.482000,(5 10 4 6 0 -1 2 1)
1969/12/31/18:00:15.490000,(-3 -6 2 3 1 1 2 0)
1969/12/31/18:00:15.490000,(-4 -8 -13 -13 -5 -4 2 2)
1969/12/31/18:00:15.497000,(1 6 -4 -3 0 -1 -5 -7)
1969/12/31/18:00:15.497000,(2 4 8 9 4 -1 2 3)
1969/12/31/18:00:15.505000,(-1 -9 -3 -4 -4 -3 5 3)
1969/12/31/18:00:15.505000,(0 -2 -14 -12 -2 -4 -4 -3)
1969/12/31/18:00:15.520000,(-6 -5 -2 -1 -2 -1 4 2)
1969/12/31/18:00:15.520000,(4 11 12 6 2 0 0 0)
1969/12/31/18:00:15.528000,(7 -8 -15 -13 -4 -3 -4 0)
1969/12/31/18:00:15.528000,(6 3 3 2 0 2 -4 -1)
1969/12/31/18:00:15.542000,(-12 -2 7 5 1 -5 -7 -12)
1969/12/31/18:00:15.542000,(-4 4 3 0 0 0 1 1)
1969/12/31/18:00:15.550000,(5 -2 -6 -4 -3 -1 3 6)
1969/12/31/18:00:15.550000,(-24 -12 -10 -2 -2 -1 -3 -10)
1969/12/31/18:00:15.588000,(17 9 6 1 1 3 9 18)
1969/12/31/18:00:15.588000,(7 4 -3 0 0 0 4 10)
1969/12/31/18:00:15.589000,(-21 -16 -8 -7 -7 -8 -7 -17)
1969/12/31/18:00:15.589000,(-14 -3 2 4 4 -4 -12 -11)
1969/12/31/18:00:15.598000,(-10 -2 -6 -4 -1 2 3 -6)
1969/12/31/18:00:15.598000,(11 4 -1 -1 3 1 0 -1)
1969/12/31/18:00:15.599000,(-10 -10 -5 -5 -7 -12 0 0)
1969/12/31/18:00:15.599000,(42 12 3 -1 5 9 0 21)
1969/12/31/18:00:15.602000,(15 12 5 3 0 -23 -11 -6)
1969/12/31/18:00:15.602000,(-23 -4 3 2 -1 12 -12 -23)
1969/12/31/18:00:15.610000,(43 10 7 3 4 6 -1 20)
1969/12/31/18:00:15.610000,(-10 -6 -8 -5 -3 33 41 1)
1969/12/31/18:00:15.625000,(10 -4 -7 -5 -8 -33 -10 12)
1969/12/31/18:00:15.626000,(-51 -14 -3 1 8 -4 -26 -25)
1969/12/31/18:00:15.626000,(28 16 4 0 4 -20 14 -1)
1969/12/31/18:00:15.626000,(20 7 4 -2 -11 -14 -25 6)
1969/12/31/18:00:15.640000,(22 4 6 2 -6 -9 8 15)
1969/12/31/18:00:15.640000,(1 -4 1 2 6 49 2 -28)
1969/12/31/18:00:15.648000,(-7 -2 3 2 -12 -69 -48 -13)
1969/12/31/18:00:15.648000,(8 -9 -8 -5 -3 54 4 3)
1969/12/31/18:00:15.662000,(-27 -4 2 3 -1 -22 12 3)
1969/12/31/18:00:15.662000,(-5 -26 -12 -7 -6 9 7 27)
1969/12/31/18:00:15.670000,(37 26 13 8 3 50 10 -18)
1969/12/31/18:00:15.670000,(-37 -13 -15 -6 14 -11 6 7)
1969/12/31/18:00:15.693000,(-26 -9 5 8 0 -46 -48 -41)
1969/12/31/18:00:15.693000,(38 20 5 -9 -36 33 19 21)
1969/12/31/18:00:15.694000,(22 13 5 13 8 -34 -16 21)
1969/12/31/18:00:15.694000,(-1 14 11 16 52 34 16 -25)
1969/12/31/18:00:15.724000,(-23 -4 -9 -5 13 19 -25 -6)
1969/12/31/18:00:15.724000,(14 -14 4 -4 -63 -35 -1 -4)
1969/12/31/18:00:15.725000,(-9 -8 -6 -7 -4 26 10 -15)
1969/12/31/18:00:15.725000,(29 -1 -4 9 57 -11 -12 19)
1969/12/31/18:00:15.726000,(-38 -30 -19 -11 8 27 5 -23)
1969/12/31/18:00:15.726000,(-48 -19 -16 -14 -27 -52 0 -26)
1969/12/31/18:00:15.730000,(-19 -12 -6 -8 -12 35 -12 7)
1969/12/31/18:00:15.731000,(-2 -5 -3 -15 -49 -81 -3 -5)
1969/12/31/18:00:15.745000,(38 2 3 -2 -9 68 9 22)
1969/12/31/18:00:15.745000,(13 10 4 10 40 -32 25 32)
1969/12/31/18:00:15.746000,(-7 13 13 17 8 23 -69 -76)
1969/12/31/18:00:15.746000,(-43 1 0 -2 10 -9 12 45)
1969/12/31/18:00:15.760000,(1 -12 -15 -20 -29 -39 15 1)
1969/12/31/18:00:15.760000,(15 20 10 10 10 -18 -14 11)
1969/12/31/18:00:15.768000,(-23 -1 -10 -3 22 43 40 13)
1969/12/31/18:00:15.768000,(15 -10 3 -3 -28 14 -37 -19)
1969/12/31/18:00:15.782000,(-59 -32 -1 0 -16 -18 19 9)
1969/12/31/18:00:15.782000,(4 9 -11 -9 18 2 -14 -26)
1969/12/31/18:00:15.790000,(-49 -32 -10 -7 2 -18 22 -19)
1969/12/31/18:00:15.790000,(28 18 -3 -8 -21 -14 -25 -28)
1969/12/31/18:00:15.805000,(-25 -20 -10 -5 13 70 47 37)
1969/12/31/18:00:15.805000,(17 15 12 15 18 -46 -39 -28)
1969/12/31/18:00:15.806000,(-9 -7 -2 -3 1 94 40 30)
1969/12/31/18:00:15.806000,(7 8 2 -2 -24 -38 9 45)
1969/12/31/18:00:15.820000,(3 -7 -1 4 12 -35 -6 -33)
1969/12/31/18:00:15.820000,(23 8 2 -2 5 13 -8 9)
1969/12/31/18:00:15.828000,(-7 9 2 -5 -17 -67 -32 34)
1969/12/31/18:00:15.828000,(-13 -18 -6 0 7 15 21 -28)
1969/12/31/18:00:15.867000,(24 16 -2 -2 -5 20 -14 -28)
1969/12/31/18:00:15.867000,(-69 -29 -15 -10 -29 43 20 -16)
1969/12/31/18:00:15.868000,(6 -6 -4 -3 7 -74 -13 22)
1969/12/31/18:00:15.868000,(-31 -17 -5 -5 -5 20 -32 -38)
1969/12/31/18:00:15.869000,(-7 23 16 13 8 -21 -1 -8)
1969/12/31/18:00:15.869000,(63 32 13 9 9 47 6 17)
1969/12/31/18:00:15.873000,(-32 -56 -25 -16 -19 -68 -24 5)
1969/12/31/18:00:15.873000,(3 12 8 3 -8 -13 49 14)
1969/12/31/18:00:15.880000,(24 1 -2 -3 -4 21 -43 21)
1969/12/31/18:00:15.880000,(-14 0 -6 -3 4 -46 -14 38)
1969/12/31/18:00:15.888000,(-40 -18 -5 0 0 2 7 -56)
1969/12/31/18:00:15.888000,(9 -5 -2 1 -4 -30 10 23)
1969/12/31/18:00:15.902000,(12 8 1 0 13 76 -2 -4)
1969/12/31/18:00:15.902000,(16 7 -2 -2 0 -17 5 1)
1969/12/31/18:00:15.910000,(38 13 3 -2 -2 -9 17 42)
1969/12/31/18:00:15.910000,(-11 0 2 -1 -10 -17 -16 -35)
1969/12/31/18:00:15.925000,(-24 -13 -4 -4 -7 -28 -56 -67)
1969/12/31/18:00:15.925000,(-7 -9 -8 -5 2 -40 -14 15)
1969/12/31/18:00:15.934000,(1 7 6 -3 -9 50 26 14)
1969/12/31/18:00:15.934000,(-24 -3 -1 9 15 42 -19 -65)
1969/12/31/18:00:15.947000,(30 26 6 2 -2 -9 45 7)
1969/12/31/18:00:15.947000,(-6 -3 1 1 2 -7 -6 23)
1969/12/31/18:00:15.956000,(-17 -13 -5 -3 2 -8 3 -75)
1969/12/31/18:00:15.956000,(23 23 8 1 -2 31 0 28)
1969/12/31/18:00:15.971000,(-72 -38 -11 -6 -11 -32 8 -32)
1969/12/31/18:00:15.971000,(-27 -7 2 3 12 46 29 3)
1969/12/31/18:00:15.973000,(31 27 4 -1 -8 17 27 53)
1969/12/31/18:00:15.973000,(-1 -21 -1 0 -2 -3 20 67)
1969/12/31/18:00:16.002000,(35 10 -12 -10 -7 -6 -43 10)
1969/12/31/18:00:16.002000,(-14 -10 0 -3 -5 -6 28 -9)
1969/12/31/18:00:16.003000,(21 17 2 -1 -1 -2 -14 -7)
1969/12/31/18:00:16.003000,(18 11 3 -16 -82 -14 -1 1)
1969/12/31/18:00:16.007000,(35 12 12 29 82 -16 36 39)
1969/12/31/18:00:16.007000,(27 -6 0 7 16 40 14 90)
1969/12/31/18:00:16.016000,(-42 -29 -14 -4 6 10 -18 -37)
1969/12/31/18:00:16.016000,(15 8 0 -6 -2 17 38 -1)
1969/12/31/18:00:16.031000,(36 27 8 -8 -44 -29 -38 32)
1969/12/31/18:00:16.031000,(7 -11 -4 -4 5 35 -30 -47)
1969/12/31/18:00:16.032000,(-19 0 0 -1 0 -27 8 10)
1969/12/31/18:00:16.032000,(8 -4 -2 5 19 5 -14 -15)
1969/12/31/18:00:16.054000,(-3 8 6 3 2 23 16 10)
1969/12/31/18:00:16.054000,(21 20 4 -1 -27 -28 -14 -24)
1969/12/31/18:00:16.055000,(6 3 2 2 28 11 1 8)
1969/12/31/18:00:16.055000,(0 2 2 3 1 8 5 43)
1969/12/31/18:00:16.076000,(44 0 -1 1 27 -28 12 9)
1969/12/31/18:00:16.076000,(-48 -26 -6 -3 -6 -3 0 -10)
1969/12/31/18:00:16.078000,(-22 -11 -4 4 9 -22 -20 -60)
1969/12/31/18:00:16.078000,(-17 -8 -5 10 13 69 22 -34)
1969/12/31/18:00:16.091000,(-13 21 -1 -30 -76 -35 -18 28)
1969/12/31/18:00:16.091000,(7 -10 -4 -5 -9 -76 11 7)
1969/12/31/18:00:16.092000,(3 -1 -2 11 44 62 -5 -4)
1969/12/31/18:00:16.092000,(3 -8 -5 -3 12 -56 -31 -19)
1969/12/31/18:00:16.114000,(48 25 11 0 -41 10 39 68)
1969/12/31/18:00:16.114000,(-36 -27 -19 -16 11 8 -25 -106)
1969/12/31/18:00:16.115000,(21 25 13 7 -13 -12 0 51)
1969/12/31/18:00:16.115000,(51 22 12 4 -11 -31 4 44)
1969/12/31/18:00:16.144000,(-4 1 3 17 58 54 16 -14)
1969/12/31/18:00:16.144000,(-22 -19 -6 -4 -5 -1 -8 -24)
1969/12/31/18:00:16.146000,(23 10 5 4 2 -43 24 37)
1969/12/31/18:00:16.146000,(-41 -10 -4 2 3 75 -3 -92)
1969/12/31/18:00:16.151000,(-17 5 -6 -8 -12 -60 -35 -30)
1969/12/31/18:00:16.151000,(28 23 11 -3 -67 32 35 58)
1969/12/31/18:00:16.152000,(-21 -10 -9 -1 51 10 -10 -22)
1969/12/31/18:00:16.152000,(-52 -43 -25 -29 -5 -50 -59 -62)
1969/12/31/18:00:16.174000,(-36 -19 -2 11 48 46 32 3)
1969/12/31/18:00:16.174000,(17 23 8 10 -17 -13 -8 -12)
1969/12/31/18:00:16.175000,(42 25 7 2 -35 16 44 51)
1969/12/31/18:00:16.175000,(-11 -27 -10 -5 10 -8 -15 -20)
1969/12/31/18:00:16.187000,(-1 -6 -8 -20 -53 -30 -16 -20)
1969/12/31/18:00:16.187000,(-34 -19 -5 0 58 6 -16 -52)
1969/12/31/18:00:16.196000,(33 43 8 14 9 60 24 31)
1969/12/31/18:00:16.196000,(-29 -48 -14 0 -23 -25 3 19)
1969/12/31/18:00:16.211000,(25 34 11 -3 -24 12 7 5)
1969/12/31/18:00:16.211000,(12 -31 -26 -17 -7 9 7 19)
1969/12/31/18:00:16.213000,(-46 -46 -27 -16 -22 -31 -38 -90)
1969/12/31/18:00:16.213000,(53 103 100 49 39 22 17 29)
1969/12/31/18:00:16.234000,(4 -42 -55 -16 1 12 -3 7)
1969/12/31/18:00:16.234000,(34 1 -36 -10 7 -13 15 39)
1969/12/31/18:00:16.235000,(-10 13 79 35 40 23 -12 4)
1969/12/31/18:00:16.235000,(0 20 -30 -15 -21 -6 -12 -29)
1969/12/31/18:00:16.247000,(3 -5 25 -5 -23 -3 9 -26)
1969/12/31/18:00:16.247000,(-15 26 -23 -9 -10 -45 -12 -50)
1969/12/31/18:00:16.281000,(9 -101 -89 -68 -93 -34 -14 30)
1969/12/31/18:00:16.281000,(-23 -20 14 10 -14 -35 -14 -4)
1969/12/31/18:00:16.281000,(-15 34 21 12 40 46 17 -25)
1969/12/31/18:00:16.281000,(-77 -36 19 12 2 14 11 -21)
1969/12/31/18:00:16.285000,(-4 63 15 -11 -21 -18 -11 -11)
1969/12/31/18:00:16.285000,(14 -46 -41 -12 8 -7 -2 12)
1969/12/31/18:00:16.294000,(11 -5 -52 -8 17 14 12 -11)
1969/12/31/18:00:16.294000,(-20 58 127 71 51 25 13 42)
1969/12/31/18:00:16.295000,(-20 -64 -38 -13 -31 -14 1 4)
1969/12/31/18:00:16.295000,(34 78 -43 -15 23 10 17 67)
1969/12/31/18:00:16.307000,(75 22 73 31 35 21 35 77)
1969/12/31/18:00:16.307000,(-35 -78 -93 -16 -14 23 -3 -65)
1969/12/31/18:00:16.316000,(-23 95 72 -5 -48 -55 -43 -37)
1969/12/31/18:00:16.316000,(22 -5 11 5 24 17 7 10)
1969/12/31/18:00:16.331000,(24 -56 -116 -54 -62 -54 -31 14)
1969/12/31/18:00:16.331000,(29 102 125 54 56 41 27 58)
1969/12/31/18:00:16.333000,(-36 -115 -96 -41 -31 -20 -35 -74)
1969/12/31/18:00:16.333000,(-28 -22 -31 -21 -8 4 -4 -17)
1969/12/31/18:00:16.354000,(-12 105 92 37 16 21 14 23)
1969/12/31/18:00:16.354000,(58 -76 -75 -26 -55 -40 -22 28)
1969/12/31/18:00:16.355000,(67 64 4 -9 -4 3 23 95)
1969/12/31/18:00:16.355000,(-37 62 83 45 44 6 2 22)
1969/12/31/18:00:16.367000,(-58 -128 -49 -5 6 12 -1 -55)
1969/12/31/18:00:16.367000,(-4 46 -63 -35 -4 -6 -36 -58)
1969/12/31/18:00:16.376000,(-12 -36 67 40 43 30 15 -9)
1969/12/31/18:00:16.376000,(23 -56 -92 -44 -37 -27 10 53)
1969/12/31/18:00:16.391000,(-2 101 111 45 21 19 10 28)
1969/12/31/18:00:16.391000,(-72 -26 -8 -25 -16 -15 -27 -20)
1969/12/31/18:00:16.393000,(22 44 -7 10 50 30 -7 -91)
1969/12/31/18:00:16.393000,(18 -81 -55 -17 -38 -35 -16 65)
1969/12/31/18:00:16.430000,(-43 -26 5 -5 -8 -2 -37 -87)
1969/12/31/18:00:16.430000,(48 -2 -9 0 -10 -3 -14 1)
1969/12/31/18:00:16.431000,(1 20 -10 -19 -54 4 54 45)
1969/12/31/18:00:16.431000,(-39 96 107 16 -28 -19 -10 -65)
1969/12/31/18:00:16.432000,(34 -96 -101 -19 11 2 -8 54)
1969/12/31/18:00:16.432000,(3 57 46 15 21 -3 -30 -64)
1969/12/31/18:00:16.436000,(-14 -3 15 49 73 36 17 53)
1969/12/31/18:00:16.436000,(79 -65 -65 -31 -14 3 -5 21)
1969/12/31/18:00:16.451000,(-29 -53 -36 -16 -2 3 9 28)
1969/12/31/18:00:16.451000,(39 104 58 15 0 9 41 72)
1969/12/31/18:00:16.452000,(-28 -44 -36 -9 -10 -20 -34 -39)
1969/12/31/18:00:16.452000,(-13 -10 -12 5 13 18 23 21)
1969/12/31/18:00:16.474000,(-53 -23 -10 1 13 -4 5 -30)
1969/12/31/18:00:16.474000,(22 -118 -104 -41 12 31 10 19)
1969/12/31/18:00:16.475000,(-3 87 97 53 31 19 22 33)
1969/12/31/18:00:16.475000,(-37 9 20 -18 -61 -17 -8 -74)
1969/12/31/18:00:16.487000,(9 36 0 -16 -20 -1 -21 -77)
1969/12/31/18:00:16.487000,(-16 41 28 16 18 5 11 -20)
1969/12/31/18:00:16.496000,(19 -47 -5 -1 -33 -41 -14 -5)
1969/12/31/18:00:16.496000,(24 -31 -13 11 31 1 -51 -43)
1969/12/31/18:00:16.511000,(-4 19 -2 8 31 11 14 22)
1969/12/31/18:00:16.511000,(9 -7 13 -16 -7 -8 -33 -6)
1969/12/31/18:00:16.513000,(21 -91 -106 -25 -21 0 20 52)
1969/12/31/18:00:16.513000,(-5 98 62 13 22 7 19 40)
1969/12/31/18:00:16.558000,(25 -3 -28 -2 -19 -14 -6 18)
1969/12/31/18:00:16.558000,(-1 -21 16 10 21 2 10 42)
1969/12/31/18:00:16.559000,(-31 -49 -13 7 18 27 21 27)
1969/12/31/18:00:16.559000,(-18 -55 -93 -43 -2 -12 -21 -55)
1969/12/31/18:00:16.560000,(-14 32 54 21 -17 -5 6 12)
1969/12/31/18:00:16.560000,(-13 23 57 13 -17 10 24 2)
1969/12/31/18:00:16.564000,(-6 -39 -49 -18 -12 -45 -18 -22)
1969/12/31/18:00:16.564000,(-20 -39 -3 21 88 45 15 -27)
1969/12/31/18:00:16.571000,(18 46 17 -5 -26 9 -10 -3)
1969/12/31/18:00:16.571000,(8 -46 -56 -23 -30 -7 -13 -1)
1969/12/31/18:00:16.577000,(-5 8 17 4 26 11 6 -5)
1969/12/31/18:00:16.577000,(-6 29 48 20 -31 -15 -7 6)
1969/12/31/18:00:16.594000,(-10 44 35 7 26 -24 -23 -10)
1969/12/31/18:00:16.594000,(-25 -2 -12 -4 3 -3 6 -15)
1969/12/31/18:00:16.595000,(-7 -13 -51 -45 -65 -26 -26 -47)
1969/12/31/18:00:16.595000,(-5 13 48 28 33 22 37 47)
1969/12/31/18:00:16.616000,(48 -60 -57 -9 -3 -8 -3 3)
1969/12/31/18:00:16.616000,(0 80 79 44 47 14 -18 -2)
1969/12/31/18:00:16.618000,(-11 92 76 28 42 38 -6 -45)
1969/12/31/18:00:16.618000,(36 -53 -64 -47 -83 -66 -21 -7)
1969/12/31/18:00:16.631000,(-69 -36 -21 -20 -59 -44 -3 -63)
1969/12/31/18:00:16.631000,(-7 -60 -37 -23 -40 -29 2 37)
1969/12/31/18:00:16.637000,(10 -4 -26 -13 28 34 13 -10)
1969/12/31/18:00:16.637000,(38 49 30 27 23 24 30 38)
1969/12/31/18:00:16.654000,(-40 -73 -7 4 16 6 -5 -13)
1969/12/31/18:00:16.654000,(12 39 -28 -9 21 2 23 21)
1969/12/31/18:00:16.655000,(-18 51 20 -6 -65 -30 -11 -21)
1969/12/31/18:00:16.655000,(-37 -17 16 3 -8 -2 -13 -19)
1969/12/31/18:00:16.700000,(36 64 34 15 35 23 12 8)
1969/12/31/18:00:16.700000,(26 0 4 1 -22 -3 19 55)
1969/12/31/18:00:16.701000,(13 -48 -16 3 27 -2 -3 25)
1969/12/31/18:00:16.702000,(-35 12 -12 -3 -1 0 -38 -81)
1969/12/31/18:00:16.702000,(-19 -15 -6 5 -2 0 -16 -19)
1969/12/31/18:00:16.702000,(-24 -1 11 2 20 17 9 -21)
1969/12/31/18:00:16.706000,(34 60 15 8 -3 -14 7 7)
1969/12/31/18:00:16.706000,(3 30 26 20 3 11 5 -4)
1969/12/31/18:00:16.714000,(65 -19 6 25 58 15 -15 27)
1969/12/31/18:00:16.714000,(-36 -26 -38 -40 -81 -43 -29 -63)
1969/12/31/18:00:16.715000,(35 -47 -51 -4 103 71 32 18)
1969/12/31/18:00:16.715000,(-25 -86 -62 -40 -89 -65 11 34)
1969/12/31/18:00:16.736000,(13 127 122 46 7 4 -12 45)
1969/12/31/18:00:16.736000,(4 -69 -38 6 21 8 27 28)
1969/12/31/18:00:16.738000,(13 -7 3 4 12 -4 -30 -4)
1969/12/31/18:00:16.738000,(2 64 67 31 69 83 42 71)
1969/12/31/18:00:16.751000,(35 -27 -49 -28 -70 -59 3 18)
1969/12/31/18:00:16.751000,(39 19 13 5 14 3 -21 -14)
1969/12/31/18:00:16.757000,(-59 -6 33 11 -34 0 37 53)
1969/12/31/18:00:16.757000,(-26 17 -24 -20 7 4 -9 1)
1969/12/31/18:00:16.774000,(-36 -30 2 1 14 32 -1 -33)
1969/12/31/18:00:16.774000,(-14 -27 -23 18 36 -25 4 -23)
1969/12/31/18:00:16.775000,(39 19 -25 -34 -95 -43 -47 12)
1969/12/31/18:00:16.775000,(-33 -43 7 3 -3 -19 12 -10)
1969/12/31/18:00:16.796000,(12 0 -19 -13 38 41 1 -40)
1969/12/31/18:00:16.796000,(23 -19 -10 4 33 23 2 12)
1969/12/31/18:00:16.798000,(4 -2 -15 6 -34 -39 -9 2)
1969/12/31/18:00:16.798000,(-20 15 -1 -9 21 12 -32 -49)
1969/12/31/18:00:16.835000,(0 56 37 -1 -64 -49 -10 -4)
1969/12/31/18:00:16.835000,(-33 -10 -18 -17 -19 9 -2 -14)
1969/12/31/18:00:16.837000,(40 67 38 39 80 53 57 64)
1969/12/31/18:00:16.837000,(-7 -91 -58 -19 -65 -58 -26 -46)
1969/12/31/18:00:16.838000,(-10 14 -3 -26 -15 -20 -27 -5)
1969/12/31/18:00:16.838000,(-5 49 29 13 5 14 2 12)
1969/12/31/18:00:16.841000,(20 -67 -48 -7 20 25 32 23)
1969/12/31/18:00:16.841000,(32 70 26 -16 -42 -43 -51 -11)
1969/12/31/18:00:16.856000,(-54 -110 -71 -16 35 17 5 -45)
1969/12/31/18:00:16.856000,(35 -14 11 31 -10 -22 7 51)
1969/12/31/18:00:16.857000,(-3 105 75 3 21 33 -12 -60)
1969/12/31/18:00:16.857000,(-1 -67 -26 -27 -42 -33 -20 30)
1969/12/31/18:00:16.870000,(55 -11 -60 -13 7 0 40 58)
1969/12/31/18:00:16.870000,(-54 50 73 -1 -18 11 -17 -33)
1969/12/31/18:00:16.879000,(-2 -45 -39 -11 30 26 3 -1)
1969/12/31/18:00:16.879000,(3 20 25 48 73 31 9 2)
1969/12/31/18:00:16.893000,(11 37 40 18 -36 -18 13 36)
1969/12/31/18:00:16.893000,(-7 -11 0 4 13 7 -11 -48)
1969/12/31/18:00:16.895000,(3 -5 -7 -15 -36 -42 -16 -8)
1969/12/31/18:00:16.895000,(1 46 48 18 70 70 38 33)
1969/12/31/18:00:16.916000,(-42 -40 -50 -11 -33 -14 16 -19)
1969/12/31/18:00:16.916000,(22 -27 -36 -19 -28 -1 -3 23)
1969/12/31/18:00:16.918000,(-70 -5 38 -7 6 -33 -58 -71)
1969/12/31/18:00:16.918000,(33 -13 -25 6 -4 6 14 22)
1969/12/31/18:00:16.930000,(-9 -32 -26 -16 -1 17 23 20)
1969/12/31/18:00:16.930000,(89 13 -30 -18 -6 -3 -16 64)
1969/12/31/18:00:16.939000,(-94 -31 -23 -19 -31 -25 -14 -69)
1969/12/31/18:00:16.939000,(32 54 52 37 44 38 24 40)
1969/12/31/18:00:16.985000,(-43 64 52 25 37 -6 -7 -21)
1969/12/31/18:00:16.985000,(-25 -59 -26 -20 -70 -39 20 13)
1969/12/31/18:00:16.986000,(65 -17 -13 17 29 21 9 52)
1969/12/31/18:00:16.986000,(-38 -53 -52 -38 -21 18 1 -44)
1969/12/31/18:00:16.987000,(-14 -29 -27 -26 -15 -31 2 -2)
1969/12/31/18:00:16.987000,(-7 73 56 11 -22 -8 7 -21)
1969/12/31/18:00:16.992000,(-33 -19 -2 5 12 -5 33 35)
1969/12/31/18:00:16.992000,(4 19 15 3 -13 -12 -42 -34)
1969/12/31/18:00:16.993000,(59 46 17 15 53 66 20 81)
1969/12/31/18:00:16.993000,(-29 -64 -55 -33 -27 -10 33 -19)
1969/12/31/18:00:16.999000,(38 45 46 33 62 49 -4 3)
1969/12/31/18:00:16.999000,(14 -117 -69 -34 -66 -30 32 40)
1969/12/31/18:00:17.014000,(-13 28 -11 -4 -23 -26 -30 -24)
1969/12/31/18:00:17.014000,(10 127 102 56 53 33 34 36)
1969/12/31/18:00:17.015000,(29 5 9 5 -12 -14 -20 -8)
1969/12/31/18:00:17.015000,(-6 -49 -13 6 18 11 3 48)
1969/12/31/18:00:17.036000,(-25 -63 -32 -11 -6 -21 -19 -44)
1969/12/31/18:00:17.036000,(-12 -55 -33 -16 8 -9 -26 -23)
1969/12/31/18:00:17.037000,(10 -31 -52 -35 -57 -8 13 50)
1969/12/31/18:00:17.037000,(-22 76 41 28 59 4 -14 -44)
1969/12/31/18:00:17.050000,(18 18 28 20 29 50 51 43)
1969/12/31/18:00:17.050000,(-85 -95 -65 -29 -37 -38 -36 -99)
1969/12/31/18:00:17.059000,(4 -20 -16 -18 -38 -17 16 9)
1969/12/31/18:00:17.059000,(14 -1 -30 -7 27 3 -8 -14)
1969/12/31/18:00:17.074000,(-20 -27 -13 -17 -45 -29 7 10)
1969/12/31/18:00:17.074000,(-6 92 106 47 37 23 -26 -29)
1969/12/31/18:00:17.075000,(-20 23 -9 -22 -47 -25 -13 -29)
1969/12/31/18:00:17.075000,(-44 -24 -7 0 -5 -23 11 -64)
1969/12/31/18:00:17.112000,(24 -30 -27 -10 17 21 -33 -19)
1969/12/31/18:00:17.112000,(28 -65 -89 -12 35 16 15 40)
1969/12/31/18:00:17.114000,(-43 62 124 61 10 -2 -4 -10)
1969/12/31/18:00:17.114000,(26 49 19 -5 2 26 4 -9)
1969/12/31/18:00:17.115000,(-49 -62 -25 -6 -12 -50 -35 -48)
1969/12/31/18:00:17.115000,(12 -30 -67 -41 -39 -21 2 8)
1969/12/31/18:00:17.119000,(-15 22 19 -2 1 8 -28 5)
1969/12/31/18:00:17.119000,(42 -30 -23 15 35 10 5 8)
1969/12/31/18:00:17.134000,(-2 52 45 -10 -40 -10 -9 18)
1969/12/31/18:00:17.134000,(-7 6 3 3 -3 16 17 -25)
1969/12/31/18:00:17.135000,(53 -2 -37 -22 -40 -49 -15 41)
1969/12/31/18:00:17.135000,(-32 -59 -23 -15 -10 4 -3 6)
1969/12/31/18:00:17.156000,(56 69 55 30 39 8 -2 2)
1969/12/31/18:00:17.156000,(-43 -23 -21 -14 -1 -10 -12 -7)
1969/12/31/18:00:17.157000,(15 -22 4 21 65 51 15 -4)
1969/12/31/18:00:17.157000,(70 84 15 2 -84 -56 -3 57)
1969/12/31/18:00:17.170000,(-23 -66 -30 -12 -2 7 -20 -19)
1969/12/31/18:00:17.170000,(26 25 50 29 36 17 -8 43)
1969/12/31/18:00:17.179000,(-22 35 21 16 27 8 15 -32)
1969/12/31/18:00:17.179000,(-21 -6 -11 3 15 7 -5 -17)
1969/12/31/18:00:17.193000,(-24 3 0 -24 -70 -5 26 -3)
1969/12/31/18:00:17.193000,(33 -15 -24 -27 -41 -23 4 21)
1969/12/31/18:00:17.195000,(-45 -52 -49 -24 23 1 -21 -60)
1969/12/31/18:00:17.195000,(-23 44 52 19 16 21 -15 -37)
1969/12/31/18:00:17.216000,(34 15 6 40 32 -8 4 31)
1969/12/31/18:00:17.216000,(39 13 6 12 28 14 -17 -12)
1969/12/31/18:00:17.218000,(28 -20 -31 -6 -46 -27 0 8)
1969/12/31/18:00:17.218000,(28 60 36 -1 -15 -16 3 5)
1969/12/31/18:00:17.270000,(-32 -22 8 3 25 35 19 -2)
1969/12/31/18:00:17.270000,(11 16 7 8 -4 -9 26 20)
1969/12/31/18:00:17.271000,(-10 -21 -18 -19 -13 -8 -27 -36)
1969/12/31/18:00:17.271000,(17 -14 -25 -14 5 6 12 10)
1969/12/31/18:00:17.272000,(56 17 5 9 49 38 14 46)
1969/12/31/18:00:17.272000,(4 15 17 7 -33 -18 -4 11)
1969/12/31/18:00:17.278000,(-4 10 -1 -39 -64 -5 19 -25)
1969/12/31/18:00:17.278000,(-43 -46 -22 -27 9 -15 -11 -31)
1969/12/31/18:00:17.279000,(-9 2 5 21 -9 -15 -19 -19)
1969/12/31/18:00:17.279000,(-8 -3 -10 28 86 35 1 14)
1969/12/31/18:00:17.282000,(0 -8 21 18 10 7 10 15)
1969/12/31/18:00:17.282000,(-13 -6 -9 -10 -45 -18 10 25)
1969/12/31/18:00:17.290000,(-9 8 1 -20 -3 -8 -5 -21)
1969/12/31/18:00:17.290000,(-16 -31 -18 -20 -19 -12 -2 -3)
1969/12/31/18:00:17.299000,(22 12 -12 -8 -11 -1 -18 21)
1969/12/31/18:00:17.299000,(-7 -28 -7 -2 15 9 16 22)
1969/12/31/18:00:17.314000,(-3 11 4 -5 -6 -10 -6 -5)
1969/12/31/18:00:17.314000,(-32 26 39 2 -10 7 -6 -29)
1969/12/31/18:00:17.315000,(27 9 2 -24 -25 -31 -9 44)
1969/12/31/18:00:17.315000,(44 39 21 67 88 86 35 59)
1969/12/31/18:00:17.336000,(-47 -45 -25 -10 -44 -32 16 -48)
1969/12/31/18:00:17.336000,(17 -5 -6 -20 -51 -4 -22 -18)
1969/12/31/18:00:17.337000,(-2 -3 -2 -3 5 4 -25 -17)
1969/12/31/18:00:17.337000,(17 7 -5 -10 -6 -27 28 18)
1969/12/31/18:00:17.350000,(-34 -29 -12 14 31 56 1 -24)
1969/12/31/18:00:17.350000,(3 7 2 -10 -24 -57 3 14)
1969/12/31/18:00:17.389000,(23 5 -1 -3 5 -11 15 26)
1969/12/31/18:00:17.389000,(-21 -14 -10 -16 -28 -18 -28 -33)
1969/12/31/18:00:17.390000,(15 15 15 23 24 26 12 14)
1969/12/31/18:00:17.390000,(17 6 -3 -1 12 16 7 12)
1969/12/31/18:00:17.392000,(-4 -24 -12 28 23 -3 17 -18)
1969/12/31/18:00:17.392000,(1 12 11 -9 -21 14 -25 13)
1969/12/31/18:00:17.396000,(14 12 6 -14 -12 -22 -31 5)
1969/12/31/18:00:17.396000,(37 19 4 4 23 19 14 72)
1969/12/31/18:00:17.398000,(-38 -32 -12 -10 -9 13 14 -4)
1969/12/31/18:00:17.398000,(9 0 -2 -2 0 -7 -1 6)
1969/12/31/18:00:17.410000,(-37 -20 -10 -19 -19 -50 -26 -2)
1969/12/31/18:00:17.410000,(21 16 7 5 23 108 30 25)
1969/12/31/18:00:17.419000,(11 22 3 12 14 -13 -13 0)
1969/12/31/18:00:17.419000,(-10 -6 -1 -1 -22 -28 2 -7)
1969/12/31/18:00:17.434000,(21 -2 -3 -14 -9 -2 19 50)
1969/12/31/18:00:17.434000,(-53 -47 -26 -45 -25 3 -23 -47)
1969/12/31/18:00:17.435000,(-5 14 23 66 54 -49 -46 -20)
1969/12/31/18:00:17.435000,(-21 8 3 12 -9 -13 24 -28)
1969/12/31/18:00:17.456000,(62 24 9 12 1 0 14 59)
1969/12/31/18:00:17.456000,(-8 -14 1 27 18 -9 3 12)
1969/12/31/18:00:17.458000,(6 -6 -13 -31 -26 -12 14 -12)
1969/12/31/18:00:17.458000,(-2 7 -8 -17 -7 -4 -19 6)
1969/12/31/18:00:17.470000,(-40 6 3 -6 -6 4 -8 -52)
1969/12/31/18:00:17.470000,(26 9 10 3 5 -6 1 13)
1969/12/31/18:00:17.479000,(-34 -6 0 2 4 5 1 12)
1969/12/31/18:00:17.479000,(-17 2 3 3 3 8 0 -50)
1969/12/31/18:00:17.493000,(-96 -61 -20 -18 -12 -4 11 -34)
1969/12/31/18:00:17.493000,(46 34 3 7 12 14 -7 -24)
1969/12/31/18:00:17.500000,(18 3 8 3 -2 1 8 48)
1969/12/31/18:00:17.500000,(26 -11 -3 -10 -8 -11 -21 -4)
1969/12/31/18:00:17.540000,(47 19 -7 -11 -6 8 -12 -4)
1969/12/31/18:00:17.540000,(-75 -17 11 18 15 17 -7 -43)
1969/12/31/18:00:17.542000,(-85 -44 -37 -28 -26 -17 -27 -58)
1969/12/31/18:00:17.542000,(-37 -11 -4 -8 -8 1 3 8)
1969/12/31/18:00:17.542000,(1 -2 1 3 2 -27 -21 -31)
1969/12/31/18:00:17.542000,(65 13 7 4 6 6 9 25)
1969/12/31/18:00:17.546000,(19 12 6 -4 -4 25 9 -2)
1969/12/31/18:00:17.546000,(-15 -9 -8 -4 -1 -13 -20 -15)
1969/12/31/18:00:17.553000,(10 6 4 4 1 9 4 14)
1969/12/31/18:00:17.553000,(-2 11 -3 -5 -6 -27 -11 -22)
1969/12/31/18:00:17.561000,(-7 -8 2 0 -1 21 7 1)
1969/12/31/18:00:17.561000,(1 -6 2 3 3 -3 10 13)
1969/12/31/18:00:17.577000,(68 28 12 7 3 8 7 57)
1969/12/31/18:00:17.577000,(-23 1 -17 -13 -13 -26 -12 -36)
1969/12/31/18:00:17.579000,(-29 -17 -3 -2 0 0 2 -10)
1969/12/31/18:00:17.579000,(20 5 -6 -7 -8 -1 -12 -1)
1969/12/31/18:00:17.599000,(2 -7 2 2 1 3 5 3)
1969/12/31/18:00:17.599000,(-28 -15 0 2 0 -18 -10 -7)
1969/12/31/18:00:17.600000,(12 -3 -2 -1 -3 11 5 7)
1969/12/31/18:00:17.600000,(3 13 2 0 1 5 0 -10)
1969/12/31/18:00:17.613000,(-9 -1 -1 0 0 3 -4 -10)
1969/12/31/18:00:17.613000,(1 -4 -2 4 -2 -17 5 8)
1969/12/31/18:00:17.620000,(-1 6 3 0 1 7 -3 -11)
1969/12/31/18:00:17.620000,(-5 -13 -2 1 0 2 7 27)
1969/12/31/18:00:17.636000,(-15 -5 -5 -6 -3 -7 -5 -17)
1969/12/31/18:00:17.636000,(26 2 -10 -8 -4 -10 -8 1)
1969/12/31/18:00:17.638000,(22 14 11 3 2 7 8 18)
1969/12/31/18:00:17.638000,(-7 -2 1 1 0 -3 -4 -6)
1969/12/31/18:00:17.667000,(-12 -11 -7 -3 0 0 -1 -3)
1969/12/31/18:00:17.667000,(6 -5 -7 -4 -1 -4 2 4)
1969/12/31/18:00:17.668000,(19 5 1 -1 -1 7 2 7)
1969/12/31/18:00:17.668000,(-24 3 4 3 1 -3 -4 -22)
1969/12/31/18:00:17.673000,(4 11 10 3 0 -2 -3 -8)
1969/12/31/18:00:17.673000,(-2 -9 -7 -3 -4 -4 -5 7)
1969/12/31/18:00:17.680000,(15 -9 -8 -3 0 0 7 27)
1969/12/31/18:00:17.680000,(-1 -19 -18 -10 -3 2 3 -7)
1969/12/31/18:00:17.696000,(7 13 3 2 -1 -1 4 5)
1969/12/31/18:00:17.696000,(-8 1 7 2 -2 -9 -21 -22)
1969/12/31/18:00:17.698000,(0 -23 -25 -9 -7 -1 1 3)
1969/12/31/18:00:17.698000,(12 34 40 16 4 1 0 2)
1969/12/31/18:00:17.719000,(-1 10 9 3 3 6 21 7)
1969/12/31/18:00:17.719000,(-4 -18 -23 -10 -5 -6 -14 -4)
1969/12/31/18:00:17.720000,(6 45 59 23 6 3 -5 -15)
1969/12/31/18:00:17.720000,(3 -12 -10 1 4 3 0 3)
1969/12/31/18:00:17.733000,(2 -35 -44 -19 -7 -7 -2 -2)
1969/12/31/18:00:17.733000,(-15 -1 12 10 4 -4 -7 -6)
1969/12/31/18:00:17.740000,(-2 2 -17 -12 -6 2 7 5)
1969/12/31/18:00:17.740000,(2 -2 -15 -8 -4 0 -2 2)
1969/12/31/18:00:17.756000,(-5 2 12 4 -2 0 -7 -4)
1969/12/31/18:00:17.756000,(-4 -22 -17 -9 -4 -4 2 4)
1969/12/31/18:00:17.758000,(1 -29 -27 -7 -1 3 8 -5)
1969/12/31/18:00:17.758000,(0 44 38 8 1 -3 -6 -4)
1969/12/31/18:00:17.779000,(-2 -13 -35 -11 -4 -9 -24 -16)
1969/12/31/18:00:17.779000,(4 14 5 -4 -1 6 24 8)
1969/12/31/18:00:17.780000,(-10 18 51 21 4 -2 -20 -15)
1969/12/31/18:00:17.780000,(8 -19 -17 -2 1 9 17 11)
1969/12/31/18:00:17.818000,(3 -3 -12 -11 -6 -4 -2 1)
1969/12/31/18:00:17.818000,(-4 38 45 13 3 -6 -30 -12)
1969/12/31/18:00:17.819000,(-9 -63 -47 -8 2 5 10 -2)
1969/12/31/18:00:17.820000,(3 31 27 7 -1 -3 2 0)
1969/12/31/18:00:17.820000,(-5 4 12 6 -1 -1 -2 -4)
1969/12/31/18:00:17.820000,(-4 -16 -6 -2 -1 0 12 6)
1969/12/31/18:00:17.824000,(3 -32 -28 -16 -7 -1 3 6)
1969/12/31/18:00:17.824000,(-8 6 -17 -8 -7 -8 -22 -13)
1969/12/31/18:00:17.839000,(-7 -3 -5 -2 1 3 10 2)
1969/12/31/18:00:17.839000,(-1 -18 -14 -3 -1 0 1 -2)
1969/12/31/18:00:17.840000,(11 77 70 21 6 -3 -8 -4)
1969/12/31/18:00:17.840000,(-17 -33 -14 -4 -3 -4 2 -4)
1969/12/31/18:00:17.852000,(5 -45 -30 -9 -2 -1 -2 -1)
1969/12/31/18:00:17.852000,(-2 30 12 3 0 0 -2 2)
1969/12/31/18:00:17.861000,(-9 -22 -9 -2 -1 1 3 -4)
1969/12/31/18:00:17.861000,(13 31 24 9 3 -2 14 4)
1969/12/31/18:00:17.876000,(-6 -4 5 2 -3 -10 -48 -18)
1969/12/31/18:00:17.876000,(4 -9 -9 -6 0 5 9 3)
1969/12/31/18:00:17.877000,(-5 1 -12 -4 -1 -1 1 0)
1969/12/31/18:00:17.877000,(12 -7 3 8 7 6 7 8)
1969/12/31/18:00:17.898000,(-25 5 18 4 -3 -2 -1 -7)
1969/12/31/18:00:17.898000,(0 3 5 8 3 1 8 4)
1969/12/31/18:00:17.900000,(4 9 -8 -7 -1 0 -6 -1)
1969/12/31/18:00:17.900000,(-6 -27 -24 -16 -4 -1 -3 -5)
1969/12/31/18:00:17.945000,(9 29 32 17 5 4 9 5)
1969/12/31/18:00:17.945000,(-5 -13 -11 -8 -4 -6 0 -1)
1969/12/31/18:00:17.946000,(-3 6 -1 -1 0 -1 4 0)
1969/12/31/18:00:17.946000,(2 -5 -11 -10 -5 -5 -11 -5)
1969/12/31/18:00:17.947000,(3 2 1 1 3 4 5 1)
1969/12/31/18:00:17.947000,(-3 -15 -4 -2 -2 1 2 -1)
1969/12/31/18:00:17.947000,(0 -2 -3 -4 0 -1 -1 -1)
1969/12/31/18:00:17.947000,(-2 -3 -3 -3 -1 0 -2 -3)
1969/12/31/18:00:17.948000,(0 0 0 0 2 -1 -1 1)
1969/12/31/18:00:17.948000,(1 1 -1 -1 -1 -1 -1 1)
1969/12/31/18:00:17.970000,(-4 -3 -3 -3 -1 -1 -1 -3)
1969/12/31/18:00:17.970000,(-1 -2 -3 -4 -3 0 1 -1)
1969/12/31/18:00:17.971000,(0 0 1 0 -1 -1 -1 0)
1969/12/31/18:00:17.971000,(-3 -2 -2 -1 0 -1 -1 0)
1969/12/31/18:00:17.984000,(-2 -1 -1 1 -1 0 0 0)
1969/12/31/18:00:17.984000,(-2 1 1 0 -2 -2 -3 -1)
1969/12/31/18:00:17.992000,(-1 0 0 1 0 0 -1 -1)
1969/12/31/18:00:17.992000,(0 0 -3 -3 -1 -1 -1 1)
1969/12/31/18:00:18.039000,(-2 -1 0 -1 -1 -2 1 -1)
1969/12/31/18:00:18.039000,(-2 0 1 -1 -2 -2 -1 0)
1969/12/31/18:00:18.040000,(0 -1 -4 -5 -2 -2 -2 -2)
1969/12/31/18:00:18.040000,(0 0 1 2 -1 -1 -2 -1)
1969/12/31/18:00:18.041000,(0 0 0 1 0 1 -1 0)
1969/12/31/18:00:18.041000,(0 -1 -1 0 0 0 -2 0)
1969/12/31/18:00:18.054000,(0 -2 -1 2 -1 1 0 0)
1969/12/31/18:00:18.054000,(-2 -2 -4 -1 -2 -2 -2 0)
1969/12/31/18:00:18.055000,(-1 -2 -2 -3 -2 0 -3 0)
1969/12/31/18:00:18.055000,(0 -1 -1 -1 1 -1 0 -1)
1969/12/31/18:00:18.056000,(0 2 0 1 1 0 0 0)
1969/12/31/18:00:18.056000,(-2 -2 -1 0 -1 -1 -1 -1)
1969/12/31/18:00:18.067000,(1 -1 1 -1 -1 -1 -1 0)
1969/12/31/18:00:18.067000,(-1 -1 -1 -2 1 -1 -3 -2)
1969/12/31/18:00:18.067000,(-1 -2 -2 -2 -2 -1 -2 -1)
1969/12/31/18:00:18.067000,(0 -2 -2 0 -1 0 -1 -2)
1969/12/31/18:00:18.091000,(0 0 0 0 0 -3 -1 -2)
1969/12/31/18:00:18.091000,(0 0 -1 1 0 -1 0 -1)
1969/12/31/18:00:18.092000,(-2 -3 -2 -3 0 -1 0 -2)
1969/12/31/18:00:18.092000,(-1 -3 -2 -1 -1 -1 -1 -2)
1969/12/31/18:00:18.112000,(-2 -3 -4 -2 -1 -1 -1 0)
1969/12/31/18:00:18.112000,(-2 -1 -1 1 -1 -2 -3 -2)
1969/12/31/18:00:18.113000,(0 0 1 1 -1 -1 -2 -1)
1969/12/31/18:00:18.114000,(0 -1 -1 -1 -1 -2 -1 -1)
1969/12/31/18:00:18.127000,(-1 0 0 -2 -1 0 -1 0)
1969/12/31/18:00:18.127000,(-3 -6 -6 -4 -4 -1 0 0)
1969/12/31/18:00:18.128000,(-1 0 0 1 -1 -1 -1 -2)
1969/12/31/18:00:18.128000,(-2 0 1 -1 -1 -1 -1 -2)
1969/12/31/18:00:18.150000,(0 0 2 0 -1 0 -2 -1)
1969/12/31/18:00:18.150000,(-1 -1 -2 0 -1 0 1 1)
1969/12/31/18:00:18.151000,(-2 -3 -2 -3 -1 0 3 1)
1969/12/31/18:00:18.151000,(0 0 1 1 0 -3 0 -2)
1969/12/31/18:00:18.187000,(-3 -5 -6 -3 0 2 2 -2)
1969/12/31/18:00:18.187000,(-1 -3 -5 -4 -3 -1 -1 -3)
1969/12/31/18:00:18.196000,(2 3 1 4 1 -1 -1 0)
1969/12/31/18:00:18.196000,(1 3 5 4 2 3 3 3)
1969/12/31/18:00:18.198000,(0 3 4 2 -1 -9 -11 -2)
1969/12/31/18:00:18.198000,(-4 -4 -3 -3 -3 1 3 -2)
1969/12/31/18:00:18.199000,(-2 -3 -5 -4 -3 -3 -1 0)
1969/12/31/18:00:18.199000,(-3 -4 -5 -2 -3 -1 -2 -1)
1969/12/31/18:00:18.218000,(0 -2 -3 -3 -1 2 -1 -2)
1969/12/31/18:00:18.218000,(2 3 0 -2 -1 0 0 0)
1969/12/31/18:00:18.218000,(-1 0 10 1 -2 -6 -6 -1)
1969/12/31/18:00:18.218000,(1 -1 -3 -4 -1 -2 -1 -1)
1969/12/31/18:00:18.224000,(-1 1 -2 -5 -2 -3 -2 -3)
1969/12/31/18:00:18.224000,(1 1 1 5 3 2 2 0)
1969/12/31/18:00:18.232000,(-1 -4 -7 -3 -3 3 1 2)
1969/12/31/18:00:18.232000,(1 3 -5 0 1 1 0 0)
1969/12/31/18:00:18.247000,(-3 -2 16 5 -4 -5 6 -4)
1969/12/31/18:00:18.247000,(-1 1 -3 -2 0 0 -1 -3)
1969/12/31/18:00:18.248000,(0 1 -1 0 1 0 -2 0)
1969/12/31/18:00:18.248000,(-3 -5 -9 -10 -4 1 -5 -2)
1969/12/31/18:00:18.277000,(1 -1 -6 -3 -2 3 -2 1)
1969/12/31/18:00:18.277000,(-1 -5 2 -1 -1 -1 -1 5)
1969/12/31/18:00:18.278000,(-3 -2 -1 -2 -1 3 6 -3)
1969/12/31/18:00:18.278000,(-2 -3 -4 -3 -3 -8 -21 -3)
1969/12/31/18:00:18.284000,(-2 1 1 2 2 11 6 2)
1969/12/31/18:00:18.284000,(0 3 10 3 -2 -13 -4 1)
1969/12/31/18:00:18.317000,(3 -2 -11 -19 -6 6 3 -6)
1969/12/31/18:00:18.317000,(2 4 7 22 3 -19 -14 -3)
1969/12/31/18:00:18.318000,(0 1 12 24 7 15 11 4)
1969/12/31/18:00:18.318000,(-3 -3 -6 -5 -1 1 -4 0)
1969/12/31/18:00:18.319000,(-2 3 -2 -3 -1 -1 -1 1)
1969/12/31/18:00:18.319000,(-6 0 -4 -11 -6 -2 -3 -19)
1969/12/31/18:00:18.330000,(0 -7 -12 -10 -5 -8 -9 -6)
1969/12/31/18:00:18.330000,(-2 -8 -17 -18 -6 -1 -1 -1)
1969/12/31/18:00:18.331000,(1 4 18 11 -1 -7 -7 -5)
1969/12/31/18:00:18.331000,(2 2 -6 -1 2 8 11 8)
1969/12/31/18:00:18.344000,(-2 -1 1 1 1 2 3 16)
1969/12/31/18:00:18.344000,(1 0 1 -4 -5 -5 -7 -7)
1969/12/31/18:00:18.352000,(-5 -6 -3 4 1 -2 -4 -4)
1969/12/31/18:00:18.352000,(8 3 -4 -2 -4 -2 -5 -1)
1969/12/31/18:00:18.367000,(6 10 36 28 7 6 18 3)
1969/12/31/18:00:18.367000,(-4 -7 -17 -5 0 1 5 -3)
1969/12/31/18:00:18.368000,(-17 -11 -20 -20 -9 -16 -28 -27)
1969/12/31/18:00:18.368000,(3 9 1 9 7 2 6 3)
1969/12/31/18:00:18.390000,(2 0 -9 -9 -3 -8 4 -2)
1969/12/31/18:00:18.390000,(0 5 25 20 6 -1 0 -1)
1969/12/31/18:00:18.391000,(-1 -8 -17 -4 1 0 6 5)
1969/12/31/18:00:18.391000,(-6 -8 -15 -20 -7 2 6 6)
1969/12/31/18:00:18.404000,(2 6 4 -3 -1 -7 -11 -3)
1969/12/31/18:00:18.404000,(2 3 1 2 3 3 4 5)
1969/12/31/18:00:18.412000,(-2 -4 3 4 1 2 4 5)
1969/12/31/18:00:18.412000,(-4 -9 -1 -4 -1 1 3 3)
1969/12/31/18:00:18.427000,(-2 -5 -6 -2 0 1 -1 4)
1969/12/31/18:00:18.427000,(4 1 4 -1 -4 -3 -9 -8)
1969/12/31/18:00:18.428000,(1 -1 0 2 0 3 3 7)
1969/12/31/18:00:18.428000,(-7 -2 11 6 1 4 1 -5)
1969/12/31/18:00:18.459000,(-4 -7 -12 -9 -7 -7 -11 -9)
1969/12/31/18:00:18.459000,(-3 -3 -2 1 -1 2 -1 0)
1969/12/31/18:00:18.460000,(2 6 4 5 -1 0 0 2)
1969/12/31/18:00:18.460000,(0 -3 5 3 1 2 6 7)
1969/12/31/18:00:18.464000,(-1 -1 -10 -6 -3 -3 -5 -2)
1969/12/31/18:00:18.464000,(1 -7 -15 -6 -1 -1 0 2)
1969/12/31/18:00:18.472000,(4 4 3 4 0 1 3 3)
1969/12/31/18:00:18.472000,(-5 -9 9 4 0 0 4 0)
1969/12/31/18:00:18.487000,(-2 -5 -21 -10 -3 -4 -5 -6)
1969/12/31/18:00:18.487000,(0 14 16 6 2 0 -2 -3)
1969/12/31/18:00:18.488000,(2 2 -4 0 1 -2 0 1)
1969/12/31/18:00:18.488000,(2 -3 -2 -3 -3 -2 -1 -2)
1969/12/31/18:00:18.510000,(-1 -5 -7 -5 -1 -2 -3 -2)
1969/12/31/18:00:18.510000,(-1 -1 -7 -2 -4 0 5 4)
1969/12/31/18:00:18.511000,(3 11 19 12 6 1 -1 -4)
1969/12/31/18:00:18.511000,(-31 -14 -7 -5 -4 -4 -5 2)
1969/12/31/18:00:18.524000,(5 3 2 0 0 -1 -5 -11)
1969/12/31/18:00:18.524000,(0 -1 -1 -2 0 -2 1 -1)
1969/12/31/18:00:18.532000,(2 6 2 -1 1 2 0 -2)
1969/12/31/18:00:18.532000,(7 -1 -2 -2 -2 -3 4 8)
1969/12/31/18:00:18.547000,(-45 -12 -3 -6 -2 -1 -1 -17)
1969/12/31/18:00:18.547000,(7 -2 -3 -3 -4 -5 -3 19)
1969/12/31/18:00:18.548000,(-4 -8 -6 -1 -3 -3 -5 -8)
1969/12/31/18:00:18.548000,(17 9 5 2 0 0 -3 0)
1969/12/31/18:00:18.593000,(14 4 -2 -1 0 2 4 11)
1969/12/31/18:00:18.593000,(4 -3 -4 -1 -2 0 -1 -9)
1969/12/31/18:00:18.594000,(0 3 2 1 2 2 7 9)
1969/12/31/18:00:18.594000,(-20 -1 -5 -1 0 0 0 -27)
1969/12/31/18:00:18.600000,(-11 -2 -4 -2 0 -3 7 7)
1969/12/31/18:00:18.600000,(-11 -6 -6 -2 2 -2 3 4)
1969/12/31/18:00:18.601000,(-7 -6 -8 -6 -5 -10 -10 -19)
1969/12/31/18:00:18.601000,(14 9 10 0 0 4 1 19)
1969/12/31/18:00:18.606000,(18 0 9 2 -1 2 -7 -3)
1969/12/31/18:00:18.606000,(-1 -2 12 7 -1 4 -2 -2)
1969/12/31/18:00:18.615000,(26 4 3 0 -2 18 3 22)
1969/12/31/18:00:18.615000,(19 8 7 4 -4 -6 8 18)
1969/12/31/18:00:18.630000,(-24 -3 -2 -2 -5 -1 0 -15)
1969/12/31/18:00:18.630000,(2 4 6 6 3 5 6 6)
1969/12/31/18:00:18.632000,(21 -7 -2 1 1 5 1 41)
1969/12/31/18:00:18.632000,(-12 -8 -3 2 -2 -5 -2 -11)
1969/12/31/18:00:18.653000,(-5 -6 -5 -1 3 16 -6 -12)
1969/12/31/18:00:18.653000,(-11 4 -2 -1 -5 -17 -10 -12)
1969/12/31/18:00:18.654000,(20 14 2 0 -3 1 16 9)
1969/12/31/18:00:18.654000,(4 0 0 1 4 -7 -2 -18)
1969/12/31/18:00:18.666000,(22 -1 -13 -9 -2 21 1 37)
1969/12/31/18:00:18.666000,(-62 -15 -1 1 1 8 9 -33)
1969/12/31/18:00:18.675000,(-16 1 -1 1 -3 -7 -6 -1)
1969/12/31/18:00:18.675000,(59 23 1 -4 -6 -14 -2 37)
1969/12/31/18:00:18.691000,(-8 1 -3 -1 4 9 -2 -12)
1969/12/31/18:00:18.691000,(4 -31 -9 -7 -16 -58 -11 8)
1969/12/31/18:00:18.692000,(-35 -19 -8 -7 -5 -13 -22 -42)
1969/12/31/18:00:18.693000,(-6 -19 -8 -10 -5 -2 -9 -15)
1969/12/31/18:00:18.744000,(-21 5 2 0 -2 0 7 -25)
1969/12/31/18:00:18.744000,(32 35 -1 -5 0 9 -17 -11)
1969/12/31/18:00:18.745000,(3 -2 3 5 1 -4 16 5)
1969/12/31/18:00:18.745000,(19 14 6 3 5 10 2 -8)
1969/12/31/18:00:18.746000,(-4 -15 -8 -8 -6 -15 -7 30)
1969/12/31/18:00:18.746000,(8 -6 0 1 6 59 -5 -28)
1969/12/31/18:00:18.752000,(-108 -44 -19 -13 -9 -33 -22 -82)
1969/12/31/18:00:18.752000,(22 19 10 6 5 15 6 10)
1969/12/31/18:00:18.753000,(28 16 4 0 -10 -62 -19 42)
1969/12/31/18:00:18.753000,(0 -5 2 2 20 84 35 33)
1969/12/31/18:00:18.756000,(14 -11 -7 -6 -21 -71 -35 -17)
1969/12/31/18:00:18.756000,(-5 -4 -2 0 2 37 8 -6)
1969/12/31/18:00:18.773000,(-10 -7 5 6 -2 -33 5 15)
1969/12/31/18:00:18.773000,(24 13 -2 -5 -4 -11 11 26)
1969/12/31/18:00:18.774000,(10 9 6 3 7 17 -1 15)
1969/12/31/18:00:18.774000,(-32 -8 -4 -2 0 -8 -11 -21)
1969/12/31/18:00:18.787000,(-25 -24 -9 -6 -3 29 7 -23)
1969/12/31/18:00:18.787000,(33 10 2 4 2 -13 2 43)
1969/12/31/18:00:18.794000,(18 15 8 8 15 40 9 -6)
1969/12/31/18:00:18.794000,(-16 -6 -9 -5 -8 -23 -21 -24)
1969/12/31/18:00:18.810000,(-21 -3 0 1 6 22 0 -21)
1969/12/31/18:00:18.810000,(4 4 0 -1 -6 -35 -1 44)
1969/12/31/18:00:18.812000,(25 16 3 1 3 -1 14 7)
1969/12/31/18:00:18.812000,(-12 -4 11 14 20 68 -22 61)
1969/12/31/18:00:18.840000,(22 11 -3 -2 -10 -80 -59 -47)
1969/12/31/18:00:18.840000,(-48 -29 -3 0 -2 20 5 -5)
1969/12/31/18:00:18.841000,(30 18 0 -4 -2 -5 -42 -6)
1969/12/31/18:00:18.841000,(-14 4 0 -1 -3 -6 19 -39)
1969/12/31/18:00:18.846000,(24 2 2 1 3 23 14 39)
1969/12/31/18:00:18.846000,(-9 -3 -1 -1 -5 -14 -14 -40)
1969/12/31/18:00:18.872000,(30 22 6 2 2 7 16 16)
1969/12/31/18:00:18.872000,(-8 -17 -11 -6 0 2 21 -11)
1969/12/31/18:00:18.873000,(-19 -14 -6 -4 -2 -4 -28 -24)
1969/12/31/18:00:18.873000,(29 4 -3 -5 -3 9 -22 -16)
1969/12/31/18:00:18.876000,(-13 -8 3 3 -1 -8 31 31)
1969/12/31/18:00:18.876000,(-25 0 -2 -6 -8 -29 -7 -4)
1969/12/31/18:00:18.893000,(25 33 16 10 5 9 27 32)
1969/12/31/18:00:18.893000,(-6 -15 -8 -4 -3 -5 -25 -39)
1969/12/31/18:00:18.894000,(32 15 4 2 2 42 39 -7)
1969/12/31/18:00:18.894000,(-24 -24 -18 -12 -11 -23 -29 -1)
1969/12/31/18:00:18.906000,(-1 3 -2 -1 -2 -11 10 4)
1969/12/31/18:00:18.906000,(-25 -8 -1 1 1 -12 -3 5)
1969/12/31/18:00:18.915000,(28 2 6 8 8 32 8 31)
1969/12/31/18:00:18.915000,(20 6 1 -1 -11 -40 7 2)
1969/12/31/18:00:18.930000,(-20 -27 -15 -10 2 71 30 -68)
1969/12/31/18:00:18.930000,(9 7 2 -2 -5 -42 -12 -3)
1969/12/31/18:00:18.932000,(-45 -13 -14 -11 -5 -6 -26 -72)
1969/12/31/18:00:18.932000,(-5 -7 5 6 6 16 -23 -12)
1969/12/31/18:00:18.953000,(20 14 1 -1 2 9 -9 6)
1969/12/31/18:00:18.953000,(17 9 3 0 -2 -12 13 13)
1969/12/31/18:00:18.954000,(7 6 2 2 3 16 12 2)
1969/12/31/18:00:18.954000,(-2 -6 -6 -7 -5 12 12 -6)
1969/12/31/18:00:18.966000,(35 18 16 10 7 0 13 50)
1969/12/31/18:00:18.966000,(-21 -19 -9 -6 -8 -9 -8 -49)
1969/12/31/18:00:18.975000,(31 19 12 13 17 23 33 75)
1969/12/31/18:00:18.975000,(-32 -14 -6 -4 2 31 -15 -53)
1969/12/31/18:00:19.021000,(-18 -14 -5 -7 -12 -37 -11 -4)
1969/12/31/18:00:19.021000,(30 19 7 6 7 22 20 32)
1969/12/31/18:00:19.023000,(-6 -12 -7 -4 -7 -5 25 14)
1969/12/31/18:00:19.023000,(11 13 8 5 6 10 -2 -6)
1969/12/31/18:00:19.024000,(-43 -14 -14 -9 -10 -17 -39 -38)
1969/12/31/18:00:19.024000,(36 11 4 3 7 13 22 37)
1969/12/31/18:00:19.028000,(-43 -24 -7 -2 4 59 2 -47)
1969/12/31/18:00:19.028000,(3 7 0 -1 -17 -118 -34 38)
1969/12/31/18:00:19.029000,(32 20 10 13 33 69 32 29)
1969/12/31/18:00:19.029000,(-62 -33 -11 -6 -19 -22 -12 -27)
1969/12/31/18:00:19.035000,(4 -13 -8 -8 0 -13 18 62)
1969/12/31/18:00:19.035000,(72 27 4 2 -20 -3 49 107)
1969/12/31/18:00:19.050000,(11 2 12 5 1 20 -14 -5)
1969/12/31/18:00:19.050000,(-49 -14 -5 -4 0 -46 -31 -13)
1969/12/31/18:00:19.051000,(19 11 3 -9 -28 -5 -8 0)
1969/12/31/18:00:19.051000,(-48 -13 -8 0 33 -11 -66 -51)
1969/12/31/18:00:19.073000,(25 5 -1 3 11 5 10 0)
1969/12/31/18:00:19.073000,(9 5 0 4 19 67 25 -29)
1969/12/31/18:00:19.074000,(-34 -14 -1 9 30 -26 -18 -13)
1969/12/31/18:00:19.074000,(10 11 1 -6 -34 8 31 19)
1969/12/31/18:00:19.086000,(30 11 1 -10 -47 -13 -23 5)
1969/12/31/18:00:19.086000,(-11 9 4 0 -4 -36 -32 -35)
1969/12/31/18:00:19.095000,(17 11 1 0 -7 -18 -14 -13)
1969/12/31/18:00:19.095000,(-19 -18 -10 -14 10 36 29 -17)
1969/12/31/18:00:19.110000,(-27 -25 -9 -6 -3 -24 -13 -14)
1969/12/31/18:00:19.110000,(0 10 4 12 12 -14 -1 5)
1969/12/31/18:00:19.111000,(-9 -17 -13 -4 36 -10 -24 -55)
1969/12/31/18:00:19.111000,(-3 10 1 -3 -27 -18 9 19)
1969/12/31/18:00:19.149000,(-14 -5 -1 -19 -75 -15 11 -43)
1969/12/31/18:00:19.149000,(19 10 3 4 31 24 21 38)
1969/12/31/18:00:19.150000,(-11 -3 1 0 -31 -31 -17 20)
1969/12/31/18:00:19.150000,(-5 -16 -7 -14 -13 -40 -9 -23)
1969/12/31/18:00:19.151000,(2 14 7 10 41 17 17 33)
1969/12/31/18:00:19.151000,(3 -6 -5 -2 6 21 -6 -16)
1969/12/31/18:00:19.155000,(-6 -3 1 19 52 32 14 8)
1969/12/31/18:00:19.155000,(16 -1 -8 -17 -66 -29 -4 -11)
1969/12/31/18:00:19.170000,(-28 -5 12 3 -10 -17 11 28)
1969/12/31/18:00:19.170000,(-1 8 -4 3 25 27 12 0)
1969/12/31/18:00:19.171000,(16 31 -4 -2 4 7 -2 28)
1969/12/31/18:00:19.171000,(-52 -64 -10 2 28 27 7 -42)
1969/12/31/18:00:19.193000,(-38 5 2 3 7 -21 -8 -22)
1969/12/31/18:00:19.193000,(-20 -17 -7 -14 -33 -40 4 14)
1969/12/31/18:00:19.194000,(47 14 -12 -10 -33 28 25 97)
1969/12/31/18:00:19.194000,(-1 0 2 0 1 6 12 -10)
1969/12/31/18:00:19.206000,(-17 -29 -15 -19 -26 -33 -9 -51)
1969/12/31/18:00:19.206000,(3 19 28 10 -5 -7 -16 -76)
1969/12/31/18:00:19.215000,(-52 -9 6 -14 -25 -41 -17 -71)
1969/12/31/18:00:19.215000,(11 20 0 13 53 51 15 17)
1969/12/31/18:00:19.230000,(-10 -25 -7 28 85 29 -2 0)
1969/12/31/18:00:19.230000,(23 -25 -35 -36 -118 -42 15 53)
1969/12/31/18:00:19.231000,(1 -4 -1 -11 -28 -27 -15 -21)
1969/12/31/18:00:19.231000,(-13 49 62 19 9 47 20 29)
1969/12/31/18:00:19.253000,(46 25 5 6 23 4 22 84)
1969/12/31/18:00:19.253000,(-39 -36 8 29 78 58 11 35)
1969/12/31/18:00:19.254000,(-19 -78 -55 -19 -34 -23 1 21)
1969/12/31/18:00:19.254000,(35 13 -25 -22 -33 -26 -14 13)
1969/12/31/18:00:19.291000,(-47 8 52 17 -18 -9 -17 27)
1969/12/31/18:00:19.291000,(77 77 28 8 31 25 28 94)
1969/12/31/18:00:19.293000,(-92 -89 -22 2 32 20 -26 -75)
1969/12/31/18:00:19.293000,(23 17 3 16 17 -7 18 26)
1969/12/31/18:00:19.294000,(64 43 -44 -26 -33 -13 2 49)
1969/12/31/18:00:19.294000,(-5 6 35 -19 -84 -18 -27 -40)
1969/12/31/18:00:19.298000,(30 55 0 8 9 -27 -24 15)
1969/12/31/18:00:19.298000,(-24 -18 20 3 -3 -8 -37 -40)
1969/12/31/18:00:19.312000,(9 -57 -59 -2 107 82 40 -7)
1969/12/31/18:00:19.313000,(12 15 -25 -12 -83 -68 1 31)
1969/12/31/18:00:19.314000,(-77 -40 35 5 -3 9 -2 -72)
1969/12/31/18:00:19.314000,(34 26 -14 8 16 6 18 24)
1969/12/31/18:00:19.326000,(13 8 0 -13 -18 3 3 -29)
1969/12/31/18:00:19.326000,(-44 56 46 62 123 71 -17 -66)
1969/12/31/18:00:19.335000,(23 -90 -75 -50 -113 -97 -29 7)
1969/12/31/18:00:19.335000,(-8 -15 -23 -14 -9 15 30 22)
1969/12/31/18:00:19.350000,(12 14 26 -7 -8 -22 -25 -17)
1969/12/31/18:00:19.350000,(-9 -88 -65 -19 33 4 38 -11)
1969/12/31/18:00:19.351000,(59 64 37 23 31 24 4 47)
1969/12/31/18:00:19.351000,(-38 -75 -35 0 6 -24 -48 -128)
1969/12/31/18:00:19.372000,(2 83 48 -7 -89 3 -3 -19)
1969/12/31/18:00:19.372000,(32 27 35 5 0 -26 15 69)
1969/12/31/18:00:19.374000,(-52 -26 -19 9 57 26 -33 -94)
1969/12/31/18:00:19.374000,(45 -98 -91 -18 21 6 14 64)
1969/12/31/18:00:19.386000,(-57 -86 -44 -29 -33 -8 -2 -49)
1969/12/31/18:00:19.386000,(-28 78 40 10 -15 -15 -41 -71)
1969/12/31/18:00:19.426000,(33 79 34 15 12 30 48 67)
1969/12/31/18:00:19.426000,(8 33 43 24 31 -1 -20 -17)
1969/12/31/18:00:19.426000,(-54 -36 -59 -7 14 -9 -3 -48)
1969/12/31/18:00:19.426000,(-21 -42 -19 -39 -19 12 -25 -45)
1969/12/31/18:00:19.428000,(-15 -35 -20 -28 -87 -60 -16 5)
1969/12/31/18:00:19.428000,(-8 -5 -6 7 12 1 5 -23)
1969/12/31/18:00:19.432000,(7 95 101 46 26 -6 8 33)
1969/12/31/18:00:19.432000,(7 -29 -29 0 48 47 24 8)
1969/12/31/18:00:19.434000,(11 13 -4 -13 -30 -7 1 10)
1969/12/31/18:00:19.434000,(0 -1 10 0 -9 6 3 1)
1969/12/31/18:00:19.446000,(4 -128 -119 -32 -5 -20 -6 2)
1969/12/31/18:00:19.446000,(52 91 51 14 13 36 14 35)
1969/12/31/18:00:19.455000,(-12 59 77 66 80 21 9 -6)
1969/12/31/18:00:19.455000,(14 10 -22 -38 -64 3 11 14)
1969/12/31/18:00:19.470000,(25 -37 -17 -2 14 -40 -40 -53)
1969/12/31/18:00:19.470000,(-31 -57 -31 -19 -65 -34 -35 -32)
1969/12/31/18:00:19.476000,(20 28 12 -6 12 8 12 5)
1969/12/31/18:00:19.476000,(-7 -7 -18 12 50 15 9 -11)
1969/12/31/18:00:19.494000,(30 65 66 23 3 22 9 24)
1969/12/31/18:00:19.494000,(-48 -34 0 -19 -41 -20 1 -38)
1969/12/31/18:00:19.495000,(18 -15 -25 -18 -20 -27 -38 -9)
1969/12/31/18:00:19.495000,(-4 -74 -50 5 26 17 11 16)
1969/12/31/18:00:19.515000,(-1 45 40 -2 -12 -6 -10 -3)
1969/12/31/18:00:19.515000,(-21 35 8 13 15 -10 -3 -17)
1969/12/31/18:00:19.516000,(38 6 1 5 8 36 52 72)
1969/12/31/18:00:19.516000,(24 -34 -2 -5 14 7 -20 8)
1969/12/31/18:00:19.530000,(76 34 -20 14 13 10 68 74)
1969/12/31/18:00:19.530000,(-9 59 82 26 -8 -28 -82 -74)
1969/12/31/18:00:19.536000,(-73 -29 6 -8 -27 -3 10 -46)
1969/12/31/18:00:19.536000,(-11 11 -25 -16 -17 -23 -17 -7)
1969/12/31/18:00:19.567000,(24 8 -36 -24 -36 -1 18 23)
1969/12/31/18:00:19.567000,(19 -4 44 46 87 32 32 50)
1969/12/31/18:00:19.577000,(36 -6 -41 14 59 39 26 9)
1969/12/31/18:00:19.577000,(-71 88 91 -10 -107 -60 -47 -49)
1969/12/31/18:00:19.578000,(-47 -76 -47 -11 42 49 -20 -3)
1969/12/31/18:00:19.578000,(-4 -71 -82 -29 -26 -47 10 -7)
1969/12/31/18:00:19.581000,(13 11 0 -2 2 -25 -46 -24)
1969/12/31/18:00:19.581000,(13 50 58 12 -43 -10 13 19)
1969/12/31/18:00:19.590000,(27 45 33 18 11 -2 -5 4)
1969/12/31/18:00:19.590000,(-19 -87 -107 -43 -20 -3 -11 0)
1969/12/31/18:00:19.596000,(15 3 49 21 29 29 0 2)
1969/12/31/18:00:19.596000,(7 32 -30 -7 1 -8 -21 -3)
1969/12/31/18:00:19.613000,(-68 48 79 20 35 13 -15 -61)
1969/12/31/18:00:19.613000,(26 -11 -7 2 -23 -11 19 55)
1969/12/31/18:00:19.614000,(9 3 -9 5 -29 -30 5 2)
1969/12/31/18:00:19.614000,(3 -59 -43 -48 -47 -27 18 27)
1969/12/31/18:00:19.635000,(9 2 15 24 39 37 6 1)
1969/12/31/18:00:19.635000,(-7 -13 -29 -14 -27 -18 -25 -36)
1969/12/31/18:00:19.637000,(12 -44 -53 -30 -14 5 20 39)
1969/12/31/18:00:19.637000,(13 69 58 29 50 21 34 15)
1969/12/31/18:00:19.649000,(10 26 14 22 0 -6 26 51)
1969/12/31/18:00:19.649000,(7 -18 -10 -3 69 64 16 -4)
1969/12/31/18:00:19.656000,(-34 31 60 20 -69 -52 -33 -43)
1969/12/31/18:00:19.656000,(-39 -70 -55 -11 12 -13 -50 -47)
1969/12/31/18:00:19.672000,(31 -71 -78 -34 -4 -1 -2 30)
1969/12/31/18:00:19.672000,(3 25 17 -6 -5 -11 8 6)
1969/12/31/18:00:19.674000,(-1 18 6 3 19 45 10 -6)
1969/12/31/18:00:19.674000,(-15 43 44 26 31 10 -8 -42)
1969/12/31/18:00:19.703000,(-5 15 29 21 16 10 -6 1)
1969/12/31/18:00:19.703000,(-60 -59 -30 -14 -11 14 -14 -50)
1969/12/31/18:00:19.704000,(19 -17 -38 -13 29 -21 -12 -12)
1969/12/31/18:00:19.704000,(46 51 23 2 -35 7 22 39)
1969/12/31/18:00:19.709000,(-10 -45 -44 4 60 13 8 15)
1969/12/31/18:00:19.709000,(-6 -14 -13 -57 -111 -95 -57 -36)
1969/12/31/18:00:19.716000,(-20 39 33 -11 13 15 7 -3)
1969/12/31/18:00:19.716000,(-27 -46 -21 -2 34 17 -15 -22)
1969/12/31/18:00:19.732000,(17 -68 -67 -16 26 34 -3 -13)
1969/12/31/18:00:19.732000,(63 91 74 41 -16 0 68 115)
1969/12/31/18:00:19.734000,(-21 -3 -10 5 13 -3 -48 -79)
1969/12/31/18:00:19.734000,(-50 -14 39 17 4 3 22 -12)
1969/12/31/18:00:19.755000,(-25 -9 18 0 -5 2 -8 -16)
1969/12/31/18:00:19.755000,(50 -3 -50 -11 -2 -12 -4 19)
1969/12/31/18:00:19.756000,(68 38 1 -10 -15 2 25 66)
1969/12/31/18:00:19.756000,(-10 10 23 48 89 53 29 32)
1969/12/31/18:00:19.769000,(-18 -46 -51 -64 -128 -121 -60 -47)
1969/12/31/18:00:19.769000,(-73 3 8 -9 13 21 -1 -56)
1969/12/31/18:00:19.776000,(3 -17 -7 -7 -19 -19 -26 17)
1969/12/31/18:00:19.776000,(13 -15 -29 6 64 51 24 42)
1969/12/31/18:00:19.793000,(-5 33 30 -5 -83 -69 -30 -21)
1969/12/31/18:00:19.793000,(0 -16 -33 -16 10 7 -25 -20)
1969/12/31/18:00:19.794000,(2 -7 -9 9 61 62 47 33)
1969/12/31/18:00:19.794000,(26 -3 0 11 -14 -46 -21 11)
1969/12/31/18:00:19.815000,(-45 27 49 0 -39 16 -14 -19)
1969/12/31/18:00:19.815000,(65 -20 -42 0 5 9 18 57)
1969/12/31/18:00:19.816000,(1 -34 -16 1 42 24 -2 -7)
1969/12/31/18:00:19.816000,(19 53 61 41 38 25 40 47)
1969/12/31/18:00:19.854000,(-24 6 -19 -44 -96 -96 -54 -69)
1969/12/31/18:00:19.854000,(19 -40 -39 -13 4 -3 -7 -22)
1969/12/31/18:00:19.855000,(12 -11 28 30 51 46 24 11)
1969/12/31/18:00:19.855000,(0 -37 -62 -8 68 43 -2 56)
1969/12/31/18:00:19.856000,(-10 39 38 4 -57 -68 -18 37)
1969/12/31/18:00:19.856000,(-16 37 49 14 25 4 7 -7)
1969/12/31/18:00:19.860000,(5 -44 -49 -13 52 27 -8 14)
1969/12/31/18:00:19.860000,(13 10 -24 -15 -86 -48 8 -26)
1969/12/31/18:00:19.875000,(6 -10 56 17 64 78 12 9)
1969/12/31/18:00:19.875000,(-20 -21 -38 5 22 -8 -8 6)
1969/12/31/18:00:19.877000,(-41 52 44 -10 -61 -57 -38 -19)
1969/12/31/18:00:19.877000,(-34 7 17 -5 12 27 30 11)
1969/12/31/18:00:19.889000,(58 -36 -43 11 -11 11 47 40)
1969/12/31/18:00:19.889000,(2 54 49 25 44 21 8 -10)
1969/12/31/18:00:19.898000,(-50 -50 -25 -27 -55 -17 -23 -16)
1969/12/31/18:00:19.898000,(31 -4 -32 -26 -26 -15 -17 -42)
1969/12/31/18:00:19.913000,(-22 8 25 19 91 67 39 -13)
1969/12/31/18:00:19.913000,(-34 -33 6 6 -28 -32 -39 -34)
1969/12/31/18:00:19.914000,(36 32 -21 -7 -19 -8 18 27)
1969/12/31/18:00:19.914000,(-11 -18 17 11 56 55 12 5)
1969/12/31/18:00:19.935000,(31 0 -18 0 -63 -55 24 29)
1969/12/31/18:00:19.935000,(-4 -33 -21 -15 -9 -9 -23 -33)
1969/12/31/18:00:19.936000,(0 53 38 12 -19 -19 21 30)
1969/12/31/18:00:19.936000,(5 36 -3 -26 -19 -19 -45 -42)
1969/12/31/18:00:19.981000,(0 -14 22 31 89 74 38 22)
1969/12/31/18:00:19.981000,(58 25 -11 6 -16 -14 12 47)
1969/12/31/18:00:19.983000,(-36 63 88 50 76 65 50 29)
1969/12/31/18:00:19.983000,(32 -30 -18 -35 -118 -107 -54 -3)
1969/12/31/18:00:19.984000,(10 -10 -34 -13 40 32 -11 -12)
1969/12/31/18:00:19.984000,(-41 -28 -4 -13 -1 -7 -40 -57)
1969/12/31/18:00:19.988000,(-4 -56 -53 -25 -12 -5 2 -30)
1969/12/31/18:00:19.988000,(15 3 -12 9 42 33 42 39)
1969/12/31/18:00:19.995000,(-27 22 53 41 57 35 -23 -37)
1969/12/31/18:00:19.995000,(90 39 5 -4 -33 8 81 113)
1969/12/31/18:00:19.997000,(-43 -31 3 14 -24 -14 -6 -43)
1969/12/31/18:00:19.997000,(-57 -40 -29 -24 -12 -30 -66 -118)
1969/12/31/18:00:20.009000,(-18 -66 -81 -51 -71 -57 -10 -4)
1969/12/31/18:00:20.009000,(19 27 17 10 61 61 33 27)
1969/12/31/18:00:20.018000,(46 111 97 68 72 79 34 62)
1969/12/31/18:00:20.018000,(4 -61 -34 -1 9 -43 -18 7)
1969/12/31/18:00:20.032000,(79 -18 -26 -38 -53 -2 21 76)
1969/12/31/18:00:20.032000,(-105 11 33 25 39 -13 -70 -113)
1969/12/31/18:00:20.034000,(11 -64 -92 -71 -101 -79 -25 9)
1969/12/31/18:00:20.034000,(39 25 66 44 44 53 35 72)
1969/12/31/18:00:20.055000,(41 15 -11 10 34 4 16 1)
1969/12/31/18:00:20.055000,(-16 2 -2 -1 4 9 1 1)
1969/12/31/18:00:20.056000,(7 8 -16 -8 -7 -5 -1 -6)
1969/12/31/18:00:20.056000,(12 45 37 34 112 94 29 -6)
1969/12/31/18:00:20.069000,(-105 -42 -26 -50 -98 -105 -94 -103)
1969/12/31/18:00:20.069000,(53 7 8 14 34 17 31 65)
1969/12/31/18:00:20.078000,(11 -31 -15 -15 -7 -13 14 14)
1969/12/31/18:00:20.078000,(11 21 -33 -30 -23 19 24 17)
1969/12/31/18:00:20.093000,(-42 12 40 26 27 25 10 0)
1969/12/31/18:00:20.093000,(10 -38 -20 -1 20 4 14 3)
1969/12/31/18:00:20.094000,(-39 -21 -25 11 61 53 -25 -63)
1969/12/31/18:00:20.094000,(59 50 21 -12 -96 -94 -1 66)
1969/12/31/18:00:20.131000,(47 36 1 10 45 18 35 71)
1969/12/31/18:00:20.131000,(-19 -25 19 -14 -103 -55 -46 -51)
1969/12/31/18:00:20.132000,(-24 -40 -33 -8 16 -22 -35 -81)
1969/12/31/18:00:20.132000,(-24 -7 15 -4 -41 -15 -8 15)
1969/12/31/18:00:20.133000,(58 54 9 21 73 57 22 42)
1969/12/31/18:00:20.133000,(61 25 -15 -8 8 9 27 43)
1969/12/31/18:00:20.138000,(-10 -55 14 14 -7 -15 -1 21)
1969/12/31/18:00:20.138000,(-28 1 -20 -8 9 -2 -23 -64)
1969/12/31/18:00:20.160000,(-31 6 38 11 -9 -10 8 -6)
1969/12/31/18:00:20.160000,(2 -21 -37 -12 3 18 15 14)
1969/12/31/18:00:20.161000,(27 118 99 57 50 44 7 39)
1969/12/31/18:00:20.161000,(17 0 4 34 78 33 52 36)
1969/12/31/18:00:20.175000,(-25 -20 -30 -55 -88 -87 -80 -69)
1969/12/31/18:00:20.175000,(-6 -16 -33 -26 -13 -3 -2 -7)
1969/12/31/18:00:20.176000,(-17 -42 -41 -41 -19 -16 -9 -30)
1969/12/31/18:00:20.176000,(2 0 -2 -12 2 17 2 10)
1969/12/31/18:00:20.189000,(17 53 20 43 49 33 36 12)
1969/12/31/18:00:20.189000,(-53 -17 36 38 96 51 0 -28)
1969/12/31/18:00:20.198000,(-6 -34 -44 -35 -84 -71 -28 -17)
1969/12/31/18:00:20.198000,(-8 0 10 -12 -62 2 15 24)
1969/12/31/18:00:20.213000,(-40 -27 -28 -14 -20 -52 -36 -102)
1969/12/31/18:00:20.213000,(5 -58 -53 -35 -33 -10 -11 14)
1969/12/31/18:00:20.214000,(31 87 87 45 62 42 30 20)
1969/12/31/18:00:20.214000,(-33 8 6 -3 -16 -8 -10 1)
1969/12/31/18:00:20.257000,(18 -2 14 13 15 28 4 19)
1969/12/31/18:00:20.258000,(9 -6 -1 12 9 5 35 59)
1969/12/31/18:00:20.266000,(-13 -49 -49 -29 -26 -29 -14 -61)
1969/12/31/18:00:20.266000,(65 5 -7 -10 -25 -22 -35 -11)
1969/12/31/18:00:20.266000,(-16 10 5 9 21 33 28 41)
1969/12/31/18:00:20.266000,(-5 10 9 1 10 2 19 28)
1969/12/31/18:00:20.268000,(-2 -14 -20 -27 -27 -15 -35 -17)
1969/12/31/18:00:20.268000,(-21 -3 1 -3 -15 -39 0 -23)
1969/12/31/18:00:20.273000,(33 0 -1 9 50 50 -9 19)
1969/12/31/18:00:20.273000,(-1 19 26 76 65 51 20 -12)
1969/12/31/18:00:20.274000,(-13 -3 -11 -32 -112 -94 -19 5)
1969/12/31/18:00:20.274000,(-10 -37 -18 -15 7 2 -7 3)
1969/12/31/18:00:20.303000,(-32 -14 9 -8 0 -3 -4 -33)
1969/12/31/18:00:20.303000,(34 70 40 11 16 24 20 49)
1969/12/31/18:00:20.304000,(-14 -23 -8 12 41 27 -7 4)
1969/12/31/18:00:20.304000,(-2 -8 -7 -3 -11 0 -3 -27)
1969/12/31/18:00:20.309000,(59 24 2 7 2 9 12 60)
1969/12/31/18:00:20.309000,(-71 -9 -6 -23 -38 -34 -23 -48)
1969/12/31/18:00:20.318000,(-6 -24 -15 -3 3 3 16 11)
1969/12/31/18:00:20.318000,(-26 -16 -8 -14 -19 -9 -10 -1)
1969/12/31/18:00:20.333000,(2 0 -3 7 18 17 10 8)
1969/12/31/18:00:20.333000,(24 20 16 1 -20 2 3 -9)
1969/12/31/18:00:20.334000,(18 17 4 0 -7 -15 -12 21)
1969/12/31/18:00:20.334000,(-14 -24 -16 -10 -3 -11 -22 -29)
1969/12/31/18:00:20.355000,(1 -3 -4 3 31 42 34 23)
1969/12/31/18:00:20.355000,(-10 -9 -5 -12 -39 -36 -10 -15)
1969/12/31/18:00:20.356000,(-10 -2 -12 -4 -7 -12 -20 -22)
1969/12/31/18:00:20.356000,(-3 -4 12 15 11 11 -8 -22)
1969/12/31/18:00:20.369000,(-35 -9 -8 1 -16 -16 -7 -10)
1969/12/31/18:00:20.369000,(35 17 -3 -27 -25 -5 -5 33)
1969/12/31/18:00:20.402000,(-17 -18 -15 -22 11 -24 -21 -50)
1969/12/31/18:00:20.402000,(-16 9 14 34 28 73 -1 -66)
1969/12/31/18:00:20.403000,(-18 -2 0 5 -4 -8 17 14)
1969/12/31/18:00:20.403000,(47 0 -3 -4 -8 -53 -45 2)
1969/12/31/18:00:20.406000,(-46 -13 -7 -13 -5 26 7 10)
1969/12/31/18:00:20.406000,(-26 -14 -15 -18 -20 -36 26 2)
1969/12/31/18:00:20.415000,(-10 -13 -13 -15 -17 -22 -4 -25)
1969/12/31/18:00:20.415000,(16 13 16 12 10 20 41 35)
1969/12/31/18:00:20.417000,(72 42 14 12 12 16 6 6)
1969/12/31/18:00:20.417000,(-35 -39 -22 -17 -12 -25 -35 -42)
1969/12/31/18:00:20.429000,(15 2 0 -5 -24 -13 10 49)
1969/12/31/18:00:20.429000,(-48 -31 -14 -10 13 52 -4 -24)
1969/12/31/18:00:20.438000,(34 10 7 15 28 17 56 55)
1969/12/31/18:00:20.438000,(0 11 3 -4 -23 13 -45 -24)
1969/12/31/18:00:20.453000,(91 44 24 11 9 -9 36 55)
1969/12/31/18:00:20.453000,(54 15 -6 10 3 -28 -38 33)
1969/12/31/18:00:20.454000,(-71 -54 -30 -13 -16 -37 -29 -59)
1969/12/31/18:00:20.454000,(29 21 9 8 15 16 25 33)
1969/12/31/18:00:20.475000,(25 17 18 11 7 -4 11 61)
1969/12/31/18:00:20.475000,(-63 -8 -2 -9 -8 1 -23 -64)
1969/12/31/18:00:20.477000,(-15 -25 -8 -5 -10 -11 -18 6)
1969/12/31/18:00:20.477000,(20 7 7 2 -3 -42 40 107)
1969/12/31/18:00:20.498000,(-21 -12 -7 -9 1 28 -11 -54)
1969/12/31/18:00:20.498000,(-24 0 16 14 12 -7 27 49)
1969/12/31/18:00:20.500000,(116 45 6 4 2 40 11 60)
1969/12/31/18:00:20.500000,(-62 -33 -18 -16 -4 -1 -20 -44)
1969/12/31/18:00:20.536000,(26 17 0 2 1 -13 -4 -7)
1969/12/31/18:00:20.536000,(3 -5 2 -1 -6 -9 -5 -22)
1969/12/31/18:00:20.538000,(-61 -10 4 9 7 5 3 -26)
1969/12/31/18:00:20.538000,(11 26 23 20 24 32 40 61)
1969/12/31/18:00:20.539000,(-99 -64 -39 -26 -20 -17 2 -58)
1969/12/31/18:00:20.539000,(27 17 1 -5 -12 -10 -29 -51)
1969/12/31/18:00:20.543000,(-51 -34 -18 -13 -9 -28 -9 -24)
1969/12/31/18:00:20.543000,(29 19 8 7 7 -19 5 -10)
1969/12/31/18:00:20.557000,(-4 -7 -7 -3 -7 1 -10 13)
1969/12/31/18:00:20.558000,(14 -7 -2 -3 -6 -10 11 30)
1969/12/31/18:00:20.559000,(-10 9 7 8 9 19 8 6)
1969/12/31/18:00:20.559000,(49 22 3 0 3 16 9 30)
1969/12/31/18:00:20.572000,(-3 -12 -3 0 -2 -10 -19 6)
1969/12/31/18:00:20.572000,(26 7 -1 -4 -4 12 11 34)
1969/12/31/18:00:20.580000,(11 12 9 8 4 6 16 5)
1969/12/31/18:00:20.580000,(0 -5 -3 -1 -1 -8 -17 37)
1969/12/31/18:00:20.595000,(-33 -3 2 3 1 1 -32 -60)
1969/12/31/18:00:20.595000,(-28 3 -6 -7 -7 -10 -4 -44)
1969/12/31/18:00:20.597000,(44 2 -1 -4 -2 6 -2 32)
1969/12/31/18:00:20.597000,(-17 -3 -2 -6 -7 -8 -5 -17)
1969/12/31/18:00:20.618000,(15 6 6 6 7 7 -6 12)
1969/12/31/18:00:20.618000,(-9 -3 -2 2 -1 5 8 0)
1969/12/31/18:00:20.619000,(10 -3 -4 -2 -1 -3 0 3)
1969/12/31/18:00:20.619000,(9 -9 0 -1 1 6 -4 -9)
1969/12/31/18:00:20.632000,(5 -1 -7 -4 -2 -2 -4 -3)
1969/12/31/18:00:20.632000,(19 7 2 1 -1 -4 -6 -7)
1969/12/31/18:00:20.639000,(4 7 6 0 -1 4 4 -1)
1969/12/31/18:00:20.639000,(-20 -3 1 2 2 -3 -2 -2)
1969/12/31/18:00:20.679000,(-4 -1 2 1 1 3 -6 -10)
1969/12/31/18:00:20.679000,(-11 -17 -6 -6 -3 -5 5 13)
1969/12/31/18:00:20.680000,(10 10 -1 1 1 1 -2 1)
1969/12/31/18:00:20.680000,(5 5 -4 -5 -1 2 -1 -20)
1969/12/31/18:00:20.681000,(-13 -7 -1 -3 -3 -3 -9 -12)
1969/12/31/18:00:20.681000,(-15 -16 -4 1 -2 -3 1 -6)
1969/12/31/18:00:20.685000,(-6 -2 3 2 1 2 3 -1)
1969/12/31/18:00:20.685000,(26 25 2 0 2 -2 -7 -16)
1969/12/31/18:00:20.693000,(-16 -6 0 1 2 2 0 -9)
1969/12/31/18:00:20.693000,(-24 -24 -7 -4 -3 -8 -10 -7)
1969/12/31/18:00:20.700000,(-2 3 6 5 3 5 -1 -7)
1969/12/31/18:00:20.700000,(-5 -4 -6 -4 -3 -1 -3 -4)
1969/12/31/18:00:20.715000,(5 4 -1 1 0 2 0 3)
1969/12/31/18:00:20.715000,(3 -10 -17 -9 -6 -4 1 8)
1969/12/31/18:00:20.717000,(4 -7 -20 -9 -4 0 11 8)
1969/12/31/18:00:20.717000,(-5 4 38 20 6 0 -1 1)
1969/12/31/18:00:20.738000,(9 20 11 4 -3 -6 -14 -11)
1969/12/31/18:00:20.738000,(-28 -17 -11 -6 -4 -5 -11 -27)
1969/12/31/18:00:20.739000,(12 -22 -41 -19 -7 -3 -5 -3)
1969/12/31/18:00:20.739000,(-18 10 34 13 5 3 6 -6)
1969/12/31/18:00:20.752000,(11 10 -5 -4 -1 -3 15 13)
1969/12/31/18:00:20.752000,(-11 8 13 4 0 -2 -30 -14)
1969/12/31/18:00:20.760000,(5 15 13 5 0 4 8 -5)
1969/12/31/18:00:20.760000,(-5 -28 -32 -16 -7 -3 -3 -1)
1969/12/31/18:00:20.775000,(-4 -8 -6 -3 -1 0 5 8)
1969/12/31/18:00:20.775000,(11 2 -18 -5 1 2 4 4)
1969/12/31/18:00:20.789000,(5 11 25 10 5 0 -1 6)
1969/12/31/18:00:20.789000,(-21 -18 -19 -8 -4 -2 -8 -11)
1969/12/31/18:00:20.813000,(9 -9 -4 -5 -3 -4 -6 1)
1969/12/31/18:00:20.813000,(-3 23 28 11 4 -1 7 -6)
1969/12/31/18:00:20.815000,(5 10 -9 -11 -2 2 -2 4)
1969/12/31/18:00:20.815000,(-8 0 8 2 -5 -3 13 -7)
1969/12/31/18:00:20.815000,(4 52 67 27 7 -4 -44 -15)
1969/12/31/18:00:20.816000,(-1 -19 -17 -5 0 6 14 4)
1969/12/31/18:00:20.820000,(-6 -1 3 3 -1 -7 -2 -4)
1969/12/31/18:00:20.820000,(6 -19 -28 -16 -4 0 -4 1)
1969/12/31/18:00:20.835000,(-4 -33 -44 -22 -7 -2 10 4)
1969/12/31/18:00:20.835000,(6 33 41 18 8 2 -2 -1)
1969/12/31/18:00:20.836000,(-5 1 8 4 1 3 3 2)
1969/12/31/18:00:20.836000,(6 -19 -39 -20 -11 -8 -8 -7)
1969/12/31/18:00:20.858000,(-6 14 31 14 6 2 11 2)
1969/12/31/18:00:20.858000,(-1 -27 -23 -10 -3 -2 -8 6)
1969/12/31/18:00:20.859000,(-2 7 4 -2 1 1 -4 -7)
1969/12/31/18:00:20.859000,(-4 44 40 13 3 -1 -4 -6)
1969/12/31/18:00:20.871000,(1 -2 -8 0 -3 -2 -1 -1)
1969/12/31/18:00:20.871000,(-2 -21 -12 -4 -3 2 14 5)
1969/12/31/18:00:20.880000,(-1 -5 4 3 1 -3 3 2)
1969/12/31/18:00:20.880000,(-5 -57 -48 -21 -7 -4 -9 -2)
1969/12/31/18:00:20.895000,(3 41 14 1 -1 -2 3 -4)
1969/12/31/18:00:20.895000,(8 16 6 5 1 3 7 1)
1969/12/31/18:00:20.897000,(-6 -10 8 6 2 1 -3 -2)
1969/12/31/18:00:20.897000,(-1 0 7 1 1 -1 1 2)
1969/12/31/18:00:20.918000,(-8 -8 -15 -6 -5 0 0 1)
1969/12/31/18:00:20.918000,(1 -17 -14 -3 -1 -2 2 -3)
1969/12/31/18:00:20.919000,(4 21 11 2 1 0 0 -3)
1969/12/31/18:00:20.919000,(-3 -43 -30 -13 -5 -2 -12 1)
1969/12/31/18:00:20.957000,(-8 10 3 -4 -2 -4 -2 -8)
1969/12/31/18:00:20.957000,(15 20 7 9 3 0 -5 -3)
1969/12/31/18:00:20.958000,(-7 -14 0 2 -3 -1 -5 -2)
1969/12/31/18:00:20.958000,(9 29 10 2 1 1 5 1)
1969/12/31/18:00:20.959000,(-13 -44 -36 -18 -4 2 -7 -4)
1969/12/31/18:00:20.959000,(-4 5 21 9 2 2 -1 -4)
1969/12/31/18:00:20.962000,(15 12 3 3 -3 -1 -2 3)
1969/12/31/18:00:20.962000,(3 8 0 0 -2 0 2 3)
1969/12/31/18:00:20.978000,(-17 -10 11 8 2 -1 -3 -8)
1969/12/31/18:00:20.978000,(-13 -14 -9 -6 -1 -3 7 5)
1969/12/31/18:00:20.979000,(-13 -59 -52 -32 -9 -7 -3 -2)
1969/12/31/18:00:20.979000,(11 79 47 20 9 -4 -1 -1)
1969/12/31/18:00:20.991000,(17 22 36 18 9 1 9 7)
1969/12/31/18:00:20.991000,(9 29 4 -1 0 -2 3 8)
1969/12/31/18:00:21.000000,(2 -25 -7 5 3 -3 2 3)
1969/12/31/18:00:21.000000,(-21 -34 -4 -6 -2 0 1 -3)
1969/12/31/18:00:21.015000,(4 -14 -32 -17 -5 -4 1 -1)
1969/12/31/18:00:21.015000,(-14 1 2 -5 -1 -2 -1 -3)
1969/12/31/18:00:21.016000,(5 16 -3 -9 -3 0 -2 0)
1969/12/31/18:00:21.016000,(0 -2 -7 -2 -2 -2 -6 -5)
1969/12/31/18:00:21.038000,(-3 -16 -17 -9 -5 0 -2 -1)
1969/12/31/18:00:21.038000,(6 -2 2 -3 -5 -1 -1 -1)
1969/12/31/18:00:21.039000,(11 66 43 21 5 0 -6 -6)
1969/12/31/18:00:21.039000,(1 -5 -4 1 1 3 2 4)
1969/12/31/18:00:21.051000,(3 -43 -24 -14 -6 -3 -3 3)
1969/12/31/18:00:21.051000,(-6 20 42 27 8 3 1 -3)
1969/12/31/18:00:21.060000,(-7 -8 -1 0 0 -1 -1 -1)
1969/12/31/18:00:21.060000,(4 18 2 3 0 -1 -2 -5)
1969/12/31/18:00:21.090000,(0 -16 -13 -9 -4 -2 0 0)
1969/12/31/18:00:21.090000,(-3 -19 -26 -15 -5 -4 -4 -1)
1969/12/31/18:00:21.092000,(-4 3 4 4 3 3 1 1)
1969/12/31/18:00:21.092000,(-3 -13 -3 -1 -2 -1 3 2)
1969/12/31/18:00:21.098000,(1 -1 -8 -2 -1 -3 -3 -2)
1969/12/31/18:00:21.098000,(-2 -8 -12 -10 -5 -2 4 2)
1969/12/31/18:00:21.099000,(-5 11 6 6 1 -5 -8 -5)
1969/12/31/18:00:21.099000,(13 -1 -5 -1 1 -1 -8 -6)
1969/12/31/18:00:21.111000,(2 22 26 15 4 3 2 1)
1969/12/31/18:00:21.111000,(-17 -18 -17 -13 -8 1 17 11)
1969/12/31/18:00:21.120000,(5 2 2 2 3 -2 -15 -11)
1969/12/31/18:00:21.120000,(7 8 4 2 0 -2 -16 -14)
1969/12/31/18:00:21.135000,(-5 -2 -5 -3 -4 1 8 4)
1969/12/31/18:00:21.135000,(0 -11 -17 -6 -3 -6 -12 -8)
1969/12/31/18:00:21.136000,(-3 15 1 -3 -2 3 6 4)
1969/12/31/18:00:21.136000,(-7 -36 -6 0 4 1 2 4)
1969/12/31/18:00:21.157000,(6 0 -6 5 3 2 -1 -3)
1969/12/31/18:00:21.157000,(-6 3 2 1 -1 -1 -5 -5)
1969/12/31/18:00:21.159000,(-4 -18 -7 -8 -5 -1 0 -1)
1969/12/31/18:00:21.159000,(-3 7 4 0 -2 2 1 -1)
1969/12/31/18:00:21.171000,(-2 -6 2 -2 -3 2 1 3)
1969/12/31/18:00:21.171000,(0 -9 5 2 -2 1 -7 -5)
1969/12/31/18:00:21.180000,(1 5 -3 1 -4 -2 -7 -6)
1969/12/31/18:00:21.180000,(-9 -4 -4 -2 -4 4 6 3)
1969/12/31/18:00:21.194000,(-2 -2 3 2 -2 -2 -6 -7)
1969/12/31/18:00:21.194000,(10 13 3 2 2 -9 -16 -12)
1969/12/31/18:00:21.201000,(-6 -14 -8 -2 -1 -10 7 5)
1969/12/31/18:00:21.201000,(5 13 2 1 -2 -10 3 5)
1969/12/31/18:00:21.226000,(-4 2 -8 -6 -1 0 0 1)
1969/12/31/18:00:21.226000,(4 7 -6 -3 1 4 2 0)
1969/12/31/18:00:21.228000,(-6 -8 6 3 2 6 6 4)
1969/12/31/18:00:21.228000,(-4 -11 -14 -6 -1 0 2 1)
1969/12/31/18:00:21.240000,(-1 -1 -5 -3 -1 -5 -3 -2)
1969/12/31/18:00:21.240000,(0 -3 7 1 2 0 -3 -4)
1969/12/31/18:00:21.242000,(2 5 2 -5 -2 2 1 -2)
1969/12/31/18:00:21.242000,(-2 3 2 1 -2 -1 2 2)
1969/12/31/18:00:21.255000,(0 -2 2 -5 -2 0 -1 1)
1969/12/31/18:00:21.255000,(-4 4 1 -1 -2 -1 -1 -2)
1969/12/31/18:00:21.257000,(0 -3 -1 3 -1 -3 -10 -5)
1969/12/31/18:00:21.257000,(1 8 4 1 0 0 -1 -2)
1969/12/31/18:00:21.277000,(-2 -3 -9 -3 0 -1 -1 0)
1969/12/31/18:00:21.278000,(-2 -2 -9 -9 -4 -2 0 1)
1969/12/31/18:00:21.279000,(0 2 8 7 3 1 3 1)
1969/12/31/18:00:21.279000,(0 -3 2 0 -3 -3 -2 -1)
1969/12/31/18:00:21.300000,(-3 2 3 2 0 -1 -3 -2)
1969/12/31/18:00:21.300000,(2 3 1 1 0 -1 -1 0)
1969/12/31/18:00:21.308000,(-5 -11 -12 -6 -2 1 1 1)
1969/12/31/18:00:21.308000,(3 5 4 6 -1 0 -1 0)
1969/12/31/18:00:21.315000,(-2 -2 2 1 0 -1 -2 -4)
1969/12/31/18:00:21.315000,(-3 -7 -3 -2 -1 -2 1 0)
1969/12/31/18:00:21.316000,(-5 -8 -4 -3 -3 -1 -1 0)
1969/12/31/18:00:21.316000,(0 -3 -4 -4 -1 -1 -2 -1)
1969/12/31/18:00:21.338000,(5 11 3 1 -1 -1 -4 -2)
1969/12/31/18:00:21.338000,(-6 -10 5 1 0 1 3 -1)
1969/12/31/18:00:21.339000,(-2 -1 -2 0 1 -1 0 -3)
1969/12/31/18:00:21.339000,(-6 -5 -5 -3 -2 -3 2 4)
1969/12/31/18:00:21.368000,(3 0 -5 -6 -2 0 0 1)
1969/12/31/18:00:21.368000,(-1 -3 -9 -6 -5 -3 -2 2)
1969/12/31/18:00:21.370000,(-5 -10 -10 -7 -5 -2 -1 -3)
1969/12/31/18:00:21.370000,(-5 -9 -6 -4 -3 -3 -1 -2)
1969/12/31/18:00:21.375000,(-2 9 4 0 0 -1 -3 -2)
1969/12/31/18:00:21.375000,(2 4 3 0 -2 -1 -1 0)
1969/12/31/18:00:21.376000,(1 -2 0 2 -2 0 4 2)
1969/12/31/18:00:21.376000,(0 -1 -3 -2 0 -1 -2 -3)
1969/12/31/18:00:21.398000,(-1 -6 -2 0 0 -2 -1 -2)
1969/12/31/18:00:21.398000,(0 0 -2 0 0 0 -2 -2)
1969/12/31/18:00:21.399000,(-1 1 2 -1 -1 -2 -1 -3)
1969/12/31/18:00:21.399000,(3 1 3 0 0 -1 -1 -2)
1969/12/31/18:00:21.420000,(-1 -3 0 1 0 0 -3 -1)
1969/12/31/18:00:21.420000,(-2 -1 2 -1 -1 -1 -1 -1)
1969/12/31/18:00:21.421000,(0 -4 -5 -4 -2 2 0 -1)
1969/12/31/18:00:21.421000,(-2 1 0 0 -1 0 -1 -1)
1969/12/31/18:00:21.435000,(0 0 0 0 -3 -2 0 0)
1969/12/31/18:00:21.435000,(0 0 -3 -2 -1 0 0 2)
1969/12/31/18:00:21.436000,(-4 -6 -6 -1 0 0 -2 -2)
1969/12/31/18:00:21.437000,(0 -3 -5 -4 -2 -3 -2 -2)
1969/12/31/18:00:21.457000,(0 11 19 10 5 -1 -1 -2)
1969/12/31/18:00:21.457000,(1 -2 2 5 3 0 1 1)
1969/12/31/18:00:21.459000,(3 4 5 4 1 -1 0 1)
1969/12/31/18:00:21.459000,(4 5 6 6 3 1 1 1)
1969/12/31/18:00:21.480000,(-3 -6 -7 -4 -3 -3 0 -1)
1969/12/31/18:00:21.480000,(0 0 -1 -2 -2 -1 -1 0)
1969/12/31/18:00:21.481000,(0 1 1 0 -2 -2 1 1)
1969/12/31/18:00:21.481000,(1 2 4 2 1 1 -1 0)
1969/12/31/18:00:21.520000,(-1 -5 -5 -2 -1 0 0 0)
1969/12/31/18:00:21.520000,(-2 -4 -4 -4 0 1 -1 -3)
1969/12/31/18:00:21.521000,(-2 4 2 2 1 -1 -3 1)
1969/12/31/18:00:21.521000,(-2 0 -1 -2 -2 -1 -2 -2)
1969/12/31/18:00:21.522000,(-1 -6 -5 -3 -3 -1 0 -1)
1969/12/31/18:00:21.522000,(-1 -2 -6 -4 -2 0 0 0)
1969/12/31/18:00:21.525000,(-2 -5 -7 -5 -1 -1 -1 -1)
1969/12/31/18:00:21.525000,(1 10 10 5 2 1 0 0)
1969/12/31/18:00:21.540000,(-2 1 1 2 -1 -1 -1 -2)
1969/12/31/18:00:21.540000,(0 -3 -4 -3 -2 -4 0 -1)
1969/12/31/18:00:21.542000,(-1 -3 -2 -3 -1 -1 -2 -1)
1969/12/31/18:00:21.542000,(1 1 -1 1 0 0 -1 -2)
1969/12/31/18:00:21.555000,(-5 -8 -5 -2 -1 0 0 -1)
1969/12/31/18:00:21.555000,(-1 3 2 0 0 -2 0 0)
1969/12/31/18:00:21.556000,(-3 2 -1 -2 -1 -2 -1 -2)
1969/12/31/18:00:21.557000,(-1 -6 -4 -5 -2 0 -1 -2)
1969/12/31/18:00:21.578000,(1 2 2 -2 1 0 -2 0)
1969/12/31/18:00:21.578000,(-3 -2 -5 -3 -3 -1 -1 -2)
1969/12/31/18:00:21.579000,(1 2 6 4 -1 1 2 2)
1969/12/31/18:00:21.579000,(-3 -5 -9 -6 -2 -2 -1 -2)
1969/12/31/18:00:21.600000,(0 1 -1 -2 -2 -4 -2 -2)
1969/12/31/18:00:21.600000,(1 2 2 4 2 0 -2 -1)
1969/12/31/18:00:21.602000,(-1 -5 -7 -8 -2 -3 -3 -2)
1969/12/31/18:00:21.602000,(-1 2 4 0 -1 -1 1 -1)
1969/12/31/18:00:21.646000,(0 -2 -2 3 0 0 0 0)
1969/12/31/18:00:21.646000,(-2 0 4 5 1 -2 -2 1)
1969/12/31/18:00:21.648000,(-1 -1 0 0 0 1 0 -1)
1969/12/31/18:00:21.648000,(-1 -3 -2 1 1 0 0 1)
1969/12/31/18:00:21.649000,(-2 -1 -3 -5 -2 -2 -2 -2)
1969/12/31/18:00:21.649000,(-2 -5 -2 -1 0 -1 -1 -3)
1969/12/31/18:00:21.653000,(0 6 7 2 -1 0 0 0)
1969/12/31/18:00:21.653000,(2 3 -1 -4 -3 -2 -3 0)
1969/12/31/18:00:21.660000,(-1 -6 -1 7 3 2 2 0)
1969/12/31/18:00:21.660000,(0 -2 -4 -5 -4 -1 1 -2)
1969/12/31/18:00:21.662000,(-2 -6 -3 -4 -2 -3 -2 0)
1969/12/31/18:00:21.662000,(-2 1 -1 3 0 -1 0 -2)
1969/12/31/18:00:21.674000,(1 5 0 -2 0 1 0 1)
1969/12/31/18:00:21.674000,(-2 -4 -5 -3 -1 -1 -1 -3)
1969/12/31/18:00:21.681000,(-3 -4 -1 -1 1 0 1 -2)
1969/12/31/18:00:21.681000,(-3 -2 -2 -2 0 0 1 -2)
1969/12/31/18:00:21.681000,(-2 -2 -5 -3 -1 -1 0 -3)
1969/12/31/18:00:21.681000,(-1 1 1 2 0 -1 -2 -2)
1969/12/31/18:00:21.681000,(-1 -1 -1 -4 -3 0 0 0)
1969/12/31/18:00:21.681000,(-1 -2 -2 -7 -2 3 -5 -3)
1969/12/31/18:00:21.687000,(1 1 1 1 0 -10 -5 -2)
1969/12/31/18:00:21.687000,(-1 -3 -4 -6 -2 16 3 -1)
1969/12/31/18:00:21.688000,(1 4 2 6 6 7 4 3)
1969/12/31/18:00:21.688000,(-2 -3 -3 -11 -10 -10 -6 -4)
1969/12/31/18:00:21.702000,(0 0 1 2 -4 -3 -1 -2)
1969/12/31/18:00:21.702000,(-1 -2 -3 1 3 -7 -3 -2)
1969/12/31/18:00:21.703000,(-3 -3 -7 -5 -6 -5 -3 -3)
1969/12/31/18:00:21.703000,(0 1 5 9 2 1 -2 0)
1969/12/31/18:00:21.725000,(1 1 -1 -3 -1 2 0 0)
1969/12/31/18:00:21.725000,(0 0 -2 -4 -5 -5 0 -1)
1969/12/31/18:00:21.726000,(0 -1 -2 0 1 2 1 -1)
1969/12/31/18:00:21.726000,(-2 -2 -5 0 0 -2 1 -1)
1969/12/31/18:00:21.747000,(-1 1 0 -2 -2 2 -3 1)
1969/12/31/18:00:21.747000,(0 0 -2 0 -1 0 1 1)
1969/12/31/18:00:21.748000,(-1 -3 -2 -3 -1 -4 -2 0)
1969/12/31/18:00:21.748000,(-2 0 0 0 1 -1 0 -1)
1969/12/31/18:00:21.771000,(1 1 0 -4 -1 1 1 0)
1969/12/31/18:00:21.771000,(1 3 3 5 2 -2 -1 0)
1969/12/31/18:00:21.771000,(-2 -4 -1 -6 -9 -4 -1 -1)
1969/12/31/18:00:21.771000,(-3 -2 3 6 7 1 1 0)
1969/12/31/18:00:21.810000,(-3 -8 -10 -14 -6 4 1 0)
1969/12/31/18:00:21.810000,(2 2 -2 7 8 1 4 0)
1969/12/31/18:00:21.811000,(1 2 12 13 2 -5 -5 0)
1969/12/31/18:00:21.811000,(-1 2 0 2 3 0 0 -2)
1969/12/31/18:00:21.812000,(-1 -2 1 1 -2 0 1 2)
1969/12/31/18:00:21.812000,(-8 -10 -12 -12 -8 0 -2 -6)
1969/12/31/18:00:21.815000,(-3 -6 -13 -19 -7 -4 -4 -2)
1969/12/31/18:00:21.815000,(5 11 15 14 2 1 2 3)
1969/12/31/18:00:21.822000,(1 1 5 3 3 3 -1 -2)
1969/12/31/18:00:21.823000,(0 0 2 -3 -4 -6 -2 2)
1969/12/31/18:00:21.823000,(-2 -4 -4 1 2 4 -2 -2)
1969/12/31/18:00:21.823000,(-2 -6 -9 -10 -8 -2 -1 -2)
1969/12/31/18:00:21.845000,(-2 0 -5 -1 0 1 0 -2)
1969/12/31/18:00:21.845000,(-1 -2 -1 -1 -4 -3 -4 0)
1969/12/31/18:00:21.845000,(2 5 5 4 1 -1 -2 -1)
1969/12/31/18:00:21.845000,(-2 -5 -12 -6 -2 2 2 0)
1969/12/31/18:00:21.867000,(0 2 10 5 -3 -4 -2 -2)
1969/12/31/18:00:21.867000,(-1 1 1 -3 0 0 -1 2)
1969/12/31/18:00:21.868000,(-1 -8 -14 -7 -4 -5 -4 -5)
1969/12/31/18:00:21.868000,(1 8 8 1 0 6 2 2)
1969/12/31/18:00:21.883000,(-3 -7 -5 -14 -11 -6 -5 -3)
1969/12/31/18:00:21.883000,(6 8 25 31 17 26 18 16)
1969/12/31/18:00:21.883000,(9 8 9 20 9 -11 -12 -3)
1969/12/31/18:00:21.883000,(-14 -19 -27 -34 -11 -15 -5 -3)
1969/12/31/18:00:21.905000,(3 2 -25 -5 7 19 3 3)
1969/12/31/18:00:21.905000,(0 5 46 27 -8 -24 7 6)
1969/12/31/18:00:21.906000,(0 5 0 4 9 20 -1 -5)
1969/12/31/18:00:21.906000,(0 -5 0 7 -2 -5 1 -2)
1969/12/31/18:00:21.959000,(-3 -5 -15 -18 -1 1 -4 1)
1969/12/31/18:00:21.960000,(-5 -10 -29 -30 -10 -2 -11 -8)
1969/12/31/18:00:21.960000,(-1 4 10 3 0 -1 5 4)
1969/12/31/18:00:21.960000,(1 2 1 0 -3 -3 -5 -4)
1969/12/31/18:00:21.961000,(-2 -6 0 -2 -2 -4 1 0)
1969/12/31/18:00:21.962000,(0 -1 -11 -7 -2 -7 -11 -16)
1969/12/31/18:00:21.966000,(-5 -3 1 -5 -4 -9 1 -1)
1969/12/31/18:00:21.966000,(4 4 0 -2 6 6 6 7)
1969/12/31/18:00:21.968000,(1 5 11 12 2 -8 -2 -3)
1969/12/31/18:00:21.968000,(-6 0 -4 -1 2 1 -3 -6)
1969/12/31/18:00:21.969000,(0 -3 -5 -9 -7 3 -1 4)
1969/12/31/18:00:21.969000,(2 -1 3 1 -2 4 -5 -2)
1969/12/31/18:00:21.988000,(0 2 11 15 4 3 1 2)
1969/12/31/18:00:21.988000,(-4 -6 -9 -11 -4 -1 -7 -4)
1969/12/31/18:00:21.989000,(-5 -1 -5 -5 -4 2 -1 -6)
1969/12/31/18:00:21.989000,(-2 -2 0 6 -1 2 1 2)
1969/12/31/18:00:22.002000,(-1 1 11 5 1 -3 -3 -2)
1969/12/31/18:00:22.003000,(1 -3 -8 -8 -1 5 -3 0)
1969/12/31/18:00:22.003000,(-1 3 -6 -3 -3 -3 0 -2)
1969/12/31/18:00:22.003000,(-5 -6 8 11 2 -3 0 -2)
1969/12/31/18:00:22.025000,(7 -27 -23 -6 -4 -4 0 1)
1969/12/31/18:00:22.025000,(-9 12 9 -4 -3 -6 0 0)
1969/12/31/18:00:22.026000,(-1 4 -13 -2 4 -2 7 0)
1969/12/31/18:00:22.026000,(-5 1 -4 -4 -1 -5 2 2)
1969/12/31/18:00:22.047000,(3 16 13 3 0 -4 -1 -3)
1969/12/31/18:00:22.047000,(-4 -37 -17 -3 -1 -2 1 6)
1969/12/31/18:00:22.048000,(-4 -8 -5 -3 -1 -2 -2 -4)
1969/12/31/18:00:22.048000,(1 -15 -11 -5 0 3 3 12)
1969/12/31/18:00:22.087000,(-4 10 -11 -5 -3 -6 -7 -19)
1969/12/31/18:00:22.087000,(-4 11 13 5 2 -1 6 -3)
1969/12/31/18:00:22.088000,(2 2 9 -1 -2 -1 1 9)
1969/12/31/18:00:22.088000,(10 7 6 7 4 -1 -14 -12)
1969/12/31/18:00:22.089000,(-3 -7 -6 -4 -4 -3 4 9)
1969/12/31/18:00:22.089000,(-1 2 -6 -4 4 4 -1 -4)
1969/12/31/18:00:22.092000,(-4 -4 2 0 -2 0 1 -4)
1969/12/31/18:00:22.092000,(-3 -2 -3 -3 0 4 4 -2)
1969/12/31/18:00:22.107000,(-5 -1 4 1 -2 -2 2 5)
1969/12/31/18:00:22.107000,(0 -1 -7 -8 -6 -5 5 7)
1969/12/31/18:00:22.108000,(14 5 2 6 4 -1 2 12)
1969/12/31/18:00:22.108000,(-16 -8 -8 -8 -8 -10 -9 -19)
1969/12/31/18:00:22.124000,(7 7 6 2 1 -1 2 10)
1969/12/31/18:00:22.124000,(-6 -11 -10 -5 -5 -6 -4 -16)
1969/12/31/18:00:22.125000,(1 0 -1 -4 1 -1 5 12)
1969/12/31/18:00:22.125000,(-13 7 3 1 1 5 21 12)
1969/12/31/18:00:22.145000,(3 -5 -6 -5 -8 -12 -22 -31)
1969/12/31/18:00:22.145000,(41 12 -1 1 1 2 5 31)
1969/12/31/18:00:22.146000,(-47 -18 -4 -6 -8 -7 -16 -41)
1969/12/31/18:00:22.146000,(1 6 13 5 4 1 -8 -7)
1969/12/31/18:00:22.167000,(16 12 9 5 14 51 21 4)
1969/12/31/18:00:22.167000,(-35 -11 -5 -3 -19 -56 -36 -18)
1969/12/31/18:00:22.168000,(20 -7 0 1 0 3 -12 -10)
1969/12/31/18:00:22.168000,(-3 -2 2 -1 -4 -4 -6 -17)
1969/12/31/18:00:22.183000,(-1 2 6 5 1 12 7 27)
1969/12/31/18:00:22.183000,(41 22 8 6 5 22 6 8)
1969/12/31/18:00:22.183000,(-12 2 5 2 -2 -9 -9 -14)
1969/12/31/18:00:22.183000,(6 -1 -3 -4 -3 20 10 20)
1969/12/31/18:00:22.229000,(-6 -21 -4 -1 0 -16 -11 -33)
1969/12/31/18:00:22.229000,(-47 -16 -13 -7 -1 10 -4 -20)
1969/12/31/18:00:22.230000,(20 12 2 1 -2 -4 16 24)
1969/12/31/18:00:22.230000,(40 15 2 2 6 16 5 26)
1969/12/31/18:00:22.232000,(-14 -20 -9 -7 -6 -16 -27 -29)
1969/12/31/18:00:22.232000,(14 10 0 -1 -7 -1 4 -18)
1969/12/31/18:00:22.235000,(-5 -7 -1 -1 5 16 -6 -27)
1969/12/31/18:00:22.235000,(12 11 0 -4 -13 -42 10 26)
1969/12/31/18:00:22.242000,(-27 -3 -2 -1 2 13 0 -10)
1969/12/31/18:00:22.242000,(14 1 2 -1 -2 -4 16 33)
1969/12/31/18:00:22.243000,(8 21 -3 -5 -1 8 6 -7)
1969/12/31/18:00:22.243000,(23 -2 10 9 9 8 -21 -10)
1969/12/31/18:00:22.265000,(6 -6 -7 -4 -5 -24 -12 2)
1969/12/31/18:00:22.265000,(-12 -9 5 7 12 16 -9 0)
1969/12/31/18:00:22.266000,(27 10 -1 -2 -2 1 21 25)
1969/12/31/18:00:22.266000,(-73 -33 -14 -6 -6 -20 -22 -34)
1969/12/31/18:00:22.287000,(14 18 5 2 -6 -9 7 35)
1969/12/31/18:00:22.287000,(8 -8 -8 -4 2 9 6 48)
1969/12/31/18:00:22.288000,(-3 1 2 3 1 -25 1 0)
1969/12/31/18:00:22.288000,(21 4 0 2 7 29 12 14)
1969/12/31/18:00:22.302000,(8 21 7 2 0 -1 12 30)
1969/12/31/18:00:22.302000,(-17 0 -7 -7 -6 -3 -10 -19)
1969/12/31/18:00:22.310000,(13 -14 -1 0 1 22 -2 12)
1969/12/31/18:00:22.310000,(17 23 9 7 5 -13 -34 -40)
1969/12/31/18:00:22.325000,(-6 -1 4 3 9 41 6 -1)
1969/12/31/18:00:22.325000,(42 28 6 4 13 7 27 76)
1969/12/31/18:00:22.325000,(-50 -25 -4 -1 -12 -43 -30 -65)
1969/12/31/18:00:22.325000,(0 -19 -6 -6 -1 1 17 46)
1969/12/31/18:00:22.365000,(-15 7 -5 -5 -8 -22 0 -55)
1969/12/31/18:00:22.365000,(37 11 6 2 6 51 2 20)
1969/12/31/18:00:22.366000,(-5 2 5 2 5 16 19 12)
1969/12/31/18:00:22.366000,(-16 -5 -3 -2 -2 -4 -5 3)
1969/12/31/18:00:22.371000,(42 -2 -2 2 0 -13 24 56)
1969/12/31/18:00:22.371000,(-54 -6 -2 -2 -2 -15 -20 -52)
1969/12/31/18:00:22.371000,(7 -23 -10 -5 -4 -1 4 21)
1969/12/31/18:00:22.371000,(-7 5 -3 -3 -3 3 2 -21)
1969/12/31/18:00:22.385000,(0 4 9 8 15 90 18 29)
1969/12/31/18:00:22.385000,(-9 3 0 0 -11 -54 11 -17)
1969/12/31/18:00:22.385000,(29 20 9 7 13 28 -19 18)
1969/12/31/18:00:22.385000,(-23 -16 -14 -11 -13 -6 42 -10)
1969/12/31/18:00:22.408000,(0 -7 -6 -6 -20 -94 -47 -41)
1969/12/31/18:00:22.408000,(10 -10 -1 0 6 40 -12 -20)
1969/12/31/18:00:22.409000,(10 7 1 2 2 -11 -11 25)
1969/12/31/18:00:22.409000,(14 21 8 5 7 26 42 -3)
1969/12/31/18:00:22.422000,(20 -5 2 2 3 -2 -3 27)
1969/12/31/18:00:22.422000,(-32 -10 0 1 -3 -23 -18 -53)
1969/12/31/18:00:22.430000,(-8 -19 -17 -15 -15 -17 -29 -89)
1969/12/31/18:00:22.430000,(11 8 2 0 2 2 -27 -9)
1969/12/31/18:00:22.445000,(-1 0 -2 -6 -6 -17 14 14)
1969/12/31/18:00:22.445000,(-13 -15 -1 0 1 -5 -17 -18)
1969/12/31/18:00:22.445000,(4 10 4 0 -1 12 5 24)
1969/12/31/18:00:22.446000,(5 1 1 2 1 -4 -2 38)
1969/12/31/18:00:22.468000,(-7 3 2 1 3 -6 -9 -23)
1969/12/31/18:00:22.468000,(15 -19 -19 -16 -15 -8 44 26)
1969/12/31/18:00:22.469000,(-35 -12 1 5 15 100 45 58)
1969/12/31/18:00:22.469000,(-13 -16 -7 -9 -29 -109 -7 44)
1969/12/31/18:00:22.491000,(8 4 0 -4 -3 3 9 21)
1969/12/31/18:00:22.491000,(-14 -3 -2 0 -1 -19 -13 5)
1969/12/31/18:00:22.492000,(21 12 2 2 2 17 7 23)
1969/12/31/18:00:22.492000,(-9 3 0 -1 1 7 -9 -66)
1969/12/31/18:00:22.513000,(-40 -21 -9 -5 0 11 -17 -43)
1969/12/31/18:00:22.513000,(24 9 2 2 -1 -10 -5 1)
1969/12/31/18:00:22.514000,(-35 -3 -1 0 -4 -38 -1 -9)
1969/12/31/18:00:22.514000,(13 0 1 3 8 19 -15 -10)
1969/12/31/18:00:22.528000,(-31 4 1 3 0 -3 -3 -1)
1969/12/31/18:00:22.528000,(13 -4 -3 0 1 8 -20 30)
1969/12/31/18:00:22.529000,(-25 3 -1 -2 -12 -67 -14 -23)
1969/12/31/18:00:22.529000,(13 -8 -2 1 7 41 2 5)
1969/12/31/18:00:22.542000,(-22 -9 -3 -4 -4 -10 -11 -29)
1969/12/31/18:00:22.542000,(17 6 5 3 6 18 12 -5)
1969/12/31/18:00:22.550000,(24 21 12 9 5 -6 -1 -24)
1969/12/31/18:00:22.550000,(-16 -19 -20 -19 -17 -21 -40 -42)
1969/12/31/18:00:22.565000,(-1 5 5 6 8 32 4 -14)
1969/12/31/18:00:22.565000,(-13 7 6 5 -4 -58 -22 -42)
1969/12/31/18:00:22.566000,(36 11 3 2 12 80 -12 -21)
1969/12/31/18:00:22.566000,(-4 -2 0 -1 -8 -60 16 39)
1969/12/31/18:00:22.588000,(-56 -23 -12 -8 -11 -48 -30 -56)
1969/12/31/18:00:22.588000,(-9 8 2 0 4 53 47 -8)
1969/12/31/18:00:22.589000,(-7 -9 -3 0 0 3 19 50)
1969/12/31/18:00:22.589000,(-39 -7 3 2 5 33 -28 -63)
1969/12/31/18:00:22.602000,(50 20 3 -8 -13 9 19 56)
1969/12/31/18:00:22.602000,(25 0 2 13 26 -87 38 41)
1969/12/31/18:00:22.642000,(-27 -7 -1 5 18 47 -51 -24)
1969/12/31/18:00:22.642000,(54 17 4 11 13 11 51 80)
1969/12/31/18:00:22.643000,(-3 1 -1 -6 -13 -13 -16 -6)
1969/12/31/18:00:22.643000,(-38 -12 -1 -9 -16 19 -32 -44)
1969/12/31/18:00:22.644000,(-12 -19 -11 -8 -8 6 1 -12)
1969/12/31/18:00:22.644000,(-18 -3 2 6 15 -10 -15 -42)
1969/12/31/18:00:22.649000,(32 3 -8 -10 -8 18 -31 24)
1969/12/31/18:00:22.649000,(6 5 3 2 -8 -12 -12 28)
1969/12/31/18:00:22.650000,(7 0 -4 -10 -13 -38 6 1)
1969/12/31/18:00:22.650000,(27 5 1 6 14 34 7 56)
1969/12/31/18:00:22.670000,(-6 -20 -7 4 15 24 30 -24)
1969/12/31/18:00:22.670000,(3 5 2 3 24 9 -15 42)
1969/12/31/18:00:22.671000,(14 4 -8 -18 -64 -36 -33 -13)
1969/12/31/18:00:22.671000,(6 6 -4 -11 -18 12 33 2)
1969/12/31/18:00:22.693000,(-11 -20 0 9 24 26 23 -2)
1969/12/31/18:00:22.693000,(-13 -7 -5 -10 -25 -16 -12 -10)
1969/12/31/18:00:22.694000,(55 17 3 -1 9 -2 60 74)
1969/12/31/18:00:22.694000,(-19 -7 -7 -15 -25 -60 -28 -16)
1969/12/31/18:00:22.708000,(49 32 14 6 17 111 49 81)
1969/12/31/18:00:22.708000,(-31 -32 -21 -5 36 -65 -15 -19)
1969/12/31/18:00:22.709000,(-21 -10 3 7 11 11 11 6)
1969/12/31/18:00:22.709000,(10 21 13 8 -2 -3 -2 -16)
1969/12/31/18:00:22.730000,(-23 -29 -22 -14 -9 -43 -12 -30)
1969/12/31/18:00:22.730000,(-4 -4 2 2 -11 33 0 -30)
1969/12/31/18:00:22.731000,(25 4 1 1 0 -7 1 18)
1969/12/31/18:00:22.731000,(-12 -6 -3 5 62 49 6 -2)
1969/12/31/18:00:22.745000,(16 33 21 19 -25 -18 -7 17)
1969/12/31/18:00:22.745000,(-9 -5 -7 -18 -64 -55 1 -7)
1969/12/31/18:00:22.746000,(-38 -26 -17 -18 -11 -17 -41 -49)
1969/12/31/18:00:22.746000,(22 5 5 16 53 42 9 28)
1969/12/31/18:00:22.792000,(5 6 1 -11 -46 -65 -27 -22)
1969/12/31/18:00:22.792000,(-5 -12 0 1 11 50 -12 -25)
1969/12/31/18:00:22.792000,(-7 6 -1 -12 -28 -47 4 12)
1969/12/31/18:00:22.792000,(-6 -11 -11 -23 -24 -11 -27 -16)
1969/12/31/18:00:22.794000,(-30 8 0 3 30 10 3 -51)
1969/12/31/18:00:22.794000,(5 -11 6 16 17 51 13 2)
1969/12/31/18:00:22.797000,(9 5 1 19 40 12 33 7)
1969/12/31/18:00:22.797000,(-15 16 10 12 -13 19 -6 11)
1969/12/31/18:00:22.805000,(33 22 21 27 54 -16 12 55)
1969/12/31/18:00:22.805000,(-1 -3 -24 -33 -84 -8 -21 -20)
1969/12/31/18:00:22.806000,(17 -20 -2 -12 -14 -35 3 18)
1969/12/31/18:00:22.806000,(21 -7 -25 -20 -23 5 -5 13)
1969/12/31/18:00:22.828000,(-51 -7 33 14 9 -22 -15 -48)
1969/12/31/18:00:22.828000,(1 15 9 14 51 32 1 6)
1969/12/31/18:00:22.829000,(-21 9 -12 -10 -19 4 18 -39)
1969/12/31/18:00:22.829000,(-6 -20 32 10 -18 -11 0 -22)
1969/12/31/18:00:22.851000,(28 32 23 11 24 21 8 72)
1969/12/31/18:00:22.851000,(-31 -1 -28 4 34 21 -1 -80)
1969/12/31/18:00:22.851000,(-9 -18 15 0 -37 -38 -18 41)
1969/12/31/18:00:22.851000,(3 -67 -65 -27 5 20 24 32)
1969/12/31/18:00:22.865000,(-72 -58 -17 -5 0 -28 -34 -99)
1969/12/31/18:00:22.865000,(1 98 88 28 28 72 71 112)
1969/12/31/18:00:22.866000,(-30 -12 -26 0 23 -36 -55 -78)
1969/12/31/18:00:22.866000,(-7 13 -2 8 -25 -29 -32 -44)
1969/12/31/18:00:22.888000,(63 -55 -40 -14 -37 -5 -16 62)
1969/12/31/18:00:22.888000,(-54 -96 -76 -37 4 -7 -39 -57)
1969/12/31/18:00:22.889000,(-23 95 122 62 34 8 35 0)
1969/12/31/18:00:22.889000,(23 97 49 4 -13 -34 -22 -40)
1969/12/31/18:00:22.918000,(6 -70 -80 -21 40 29 15 -12)
1969/12/31/18:00:22.919000,(12 19 -21 0 -13 -11 -5 -19)
1969/12/31/18:00:22.919000,(65 -25 -75 -23 -3 22 5 66)
1969/12/31/18:00:22.919000,(-84 -16 34 -8 -13 -8 14 10)
1969/12/31/18:00:22.925000,(25 92 52 20 -17 -12 17 36)
1969/12/31/18:00:22.925000,(50 77 76 18 11 13 10 -52)
1969/12/31/18:00:22.925000,(-4 -99 -71 -5 26 -19 -33 0)
1969/12/31/18:00:22.925000,(68 -8 -15 -4 -20 2 9 33)
1969/12/31/18:00:22.949000,(-36 -71 -80 -33 6 13 -7 -38)
1969/12/31/18:00:22.949000,(-33 35 29 -12 -43 -30 -53 -43)
1969/12/31/18:00:22.950000,(13 31 32 13 3 5 22 12)
1969/12/31/18:00:22.950000,(25 18 -26 -3 39 -3 -49 -17)
1969/12/31/18:00:22.971000,(-93 1 41 -1 -57 -35 9 -84)
1969/12/31/18:00:22.971000,(47 -19 -37 -20 -13 -9 -1 71)
1969/12/31/18:00:22.971000,(12 -29 -32 -38 -31 14 38 50)
1969/12/31/18:00:22.971000,(-10 43 13 23 25 27 20 42)
1969/12/31/18:00:22.985000,(46 60 61 31 22 -19 4 51)
1969/12/31/18:00:22.985000,(20 31 31 22 26 0 13 35)
1969/12/31/18:00:22.985000,(9 28 49 17 -4 6 -2 5)
1969/12/31/18:00:22.985000,(-19 -74 -54 4 21 26 34 26)
1969/12/31/18:00:23.008000,(-8 -38 -18 -16 11 4 -13 -2)
1969/12/31/18:00:23.008000,(-24 -43 -58 -45 -51 -52 -21 -21)
1969/12/31/18:00:23.009000,(-72 33 32 -2 -20 -29 -42 -83)
1969/12/31/18:00:23.009000,(58 72 55 34 -7 -1 10 16)
1969/12/31/18:00:23.031000,(-3 10 12 11 32 36 36 36)
1969/12/31/18:00:23.031000,(37 -65 -43 -14 50 42 -2 31)
1969/12/31/18:00:23.031000,(-29 -15 -13 -12 -41 -8 -1 -38)
1969/12/31/18:00:23.032000,(-43 -41 -37 -37 4 -33 -11 -28)
1969/12/31/18:00:23.061000,(-8 -26 -54 -29 -84 -40 -26 -70)
1969/12/31/18:00:23.061000,(54 74 91 43 25 32 40 66)
1969/12/31/18:00:23.061000,(20 -11 -11 10 42 27 3 -25)
1969/12/31/18:00:23.061000,(22 3 22 0 6 15 34 18)
1969/12/31/18:00:23.068000,(-46 -36 -95 -27 22 0 -33 -81)
1969/12/31/18:00:23.068000,(-53 -33 35 15 -21 -18 -8 19)
1969/12/31/18:00:23.069000,(86 34 -37 -6 -2 -10 21 59)
1969/12/31/18:00:23.069000,(-10 -41 24 0 -6 -15 0 13)
1969/12/31/18:00:23.091000,(-6 86 61 23 -16 -7 -15 67)
1969/12/31/18:00:23.091000,(-14 -22 -28 6 15 13 -7 -40)
1969/12/31/18:00:23.091000,(-46 -78 -58 -8 -2 13 5 -22)
1969/12/31/18:00:23.091000,(22 -40 -46 -37 -23 6 32 58)
1969/12/31/18:00:23.105000,(-14 51 17 -6 -31 -34 -33 -59)
1969/12/31/18:00:23.105000,(-6 15 17 12 32 33 34 3)
1969/12/31/18:00:23.105000,(4 -12 -7 -7 -11 -12 -19 11)
1969/12/31/18:00:23.105000,(-22 -76 -50 -9 15 2 7 -13)
1969/12/31/18:00:23.128000,(0 -68 -45 -23 -45 -23 -13 5)
1969/12/31/18:00:23.128000,(38 38 -19 18 59 27 3 1)
1969/12/31/18:00:23.129000,(-8 61 74 21 5 25 39 20)
1969/12/31/18:00:23.129000,(-97 -5 8 -1 -28 -31 -101 -116)
1969/12/31/18:00:23.151000,(33 28 72 26 60 58 53 70)
1969/12/31/18:00:23.151000,(37 -26 -54 -19 -48 -24 -4 11)
1969/12/31/18:00:23.152000,(-57 -88 -72 -28 2 -37 -26 -52)
1969/12/31/18:00:23.152000,(-23 28 22 -16 -76 -11 -8 -55)
1969/12/31/18:00:23.197000,(19 58 36 45 93 30 12 3)
1969/12/31/18:00:23.197000,(-15 -25 -10 -37 -70 -31 -50 -20)
1969/12/31/18:00:23.198000,(23 -11 -11 2 43 32 27 13)
1969/12/31/18:00:23.198000,(-26 -6 0 -3 -56 -69 -42 -20)
1969/12/31/18:00:23.199000,(5 -94 -111 -57 -26 14 1 34)
1969/12/31/18:00:23.199000,(-27 21 34 26 17 -10 14 9)
1969/12/31/18:00:23.203000,(35 97 61 24 10 17 12 42)
1969/12/31/18:00:23.203000,(0 5 18 32 85 60 21 -41)
1969/12/31/18:00:23.211000,(64 17 -16 14 27 37 57 89)
1969/12/31/18:00:23.211000,(-44 36 52 -3 -81 -69 -64 -77)
1969/12/31/18:00:23.212000,(11 -112 -89 -40 27 21 7 42)
1969/12/31/18:00:23.212000,(-9 127 121 51 -35 -45 -9 -25)
1969/12/31/18:00:23.224000,(-46 -39 -30 -32 -35 2 12 -52)
1969/12/31/18:00:23.224000,(10 -65 -55 -5 55 35 21 46)
1969/12/31/18:00:23.233000,(-43 19 -23 -5 -6 -13 -28 -80)
1969/12/31/18:00:23.233000,(-6 -32 -20 -2 1 8 -5 7)
1969/12/31/18:00:23.247000,(48 6 -24 -32 -13 15 20 46)
1969/12/31/18:00:23.247000,(-70 -46 16 10 45 21 34 -23)
1969/12/31/18:00:23.254000,(71 110 97 52 -8 8 12 48)
1969/12/31/18:00:23.254000,(6 -42 -45 -18 -17 -60 -39 26)
1969/12/31/18:00:23.270000,(6 35 -12 -17 -37 -17 14 23)
1969/12/31/18:00:23.270000,(86 57 5 16 29 37 45 59)
1969/12/31/18:00:23.272000,(-16 -35 -29 -17 29 -5 -36 -57)
1969/12/31/18:00:23.272000,(-41 75 61 29 6 28 30 -9)
1969/12/31/18:00:23.284000,(87 -84 -69 -4 -16 -8 10 71)
1969/12/31/18:00:23.284000,(-59 6 -15 -32 -18 5 -28 -97)
1969/12/31/18:00:23.293000,(-26 -7 8 -1 -67 -85 -36 4)
1969/12/31/18:00:23.293000,(48 -36 -98 -60 -49 -9 34 13)
1969/12/31/18:00:23.308000,(-68 -31 66 14 5 -14 -15 -15)
1969/12/31/18:00:23.308000,(-22 -13 -50 12 60 -4 -24 16)
1969/12/31/18:00:23.309000,(-3 47 37 2 -6 19 -57 -62)
1969/12/31/18:00:23.309000,(20 0 14 -6 7 6 33 31)
1969/12/31/18:00:23.338000,(12 -13 -29 -7 -35 -19 3 -1)
1969/12/31/18:00:23.338000,(-34 -109 -51 -13 -6 -6 18 19)
1969/12/31/18:00:23.340000,(-7 31 50 18 35 29 18 -20)
1969/12/31/18:00:23.340000,(41 27 19 19 15 17 -5 65)
1969/12/31/18:00:23.353000,(-8 1 -29 -3 28 -16 -47 -57)
1969/12/31/18:00:23.353000,(7 -1 4 13 -17 -17 -24 -16)
1969/12/31/18:00:23.355000,(48 28 24 -19 -24 4 12 27)
1969/12/31/18:00:23.355000,(-19 -11 -15 -5 -31 -30 14 2)
1969/12/31/18:00:23.383000,(-92 -22 4 -10 14 10 -25 -52)
1969/12/31/18:00:23.383000,(62 -67 -60 -7 11 24 51 72)
1969/12/31/18:00:23.385000,(-48 64 39 -1 -57 -32 -38 -28)
1969/12/31/18:00:23.385000,(1 -16 -6 7 40 27 17 -4)
1969/12/31/18:00:23.390000,(-18 -1 -1 22 71 -2 -42 -61)
1969/12/31/18:00:23.390000,(13 -44 -41 -55 -114 -83 3 15)
1969/12/31/18:00:23.392000,(-5 -83 -82 -40 4 21 41 2)
1969/12/31/18:00:23.392000,(31 97 71 37 33 30 -2 35)
1969/12/31/18:00:23.404000,(11 3 -3 8 27 7 -4 -14)
1969/12/31/18:00:23.404000,(7 89 98 63 53 34 14 32)
1969/12/31/18:00:23.413000,(1 26 26 10 -10 -24 -12 -1)
1969/12/31/18:00:23.413000,(-47 -117 -61 -21 17 23 9 -13)
1969/12/31/18:00:23.428000,(43 49 17 33 21 13 -15 0)
1969/12/31/18:00:23.428000,(-66 30 30 -18 -69 -49 -16 -80)
1969/12/31/18:00:23.430000,(-24 -23 -28 -14 -5 -14 -19 -25)
1969/12/31/18:00:23.430000,(14 -6 -6 26 39 13 29 37)
1969/12/31/18:00:23.474000,(20 3 8 -25 -6 14 -26 17)
1969/12/31/18:00:23.474000,(39 -2 -7 -7 -19 -13 7 35)
1969/12/31/18:00:23.476000,(-22 -45 -28 0 -25 -36 -11 -3)
1969/12/31/18:00:23.476000,(25 -47 -72 -13 5 16 13 14)
1969/12/31/18:00:23.477000,(-80 33 94 10 -64 -53 -63 -89)
1969/12/31/18:00:23.477000,(32 41 -5 -6 29 7 16 46)
1969/12/31/18:00:23.481000,(22 -25 -13 4 36 45 34 46)
1969/12/31/18:00:23.481000,(53 18 -11 15 22 14 0 26)
1969/12/31/18:00:23.488000,(1 13 47 22 -2 11 30 41)
1969/12/31/18:00:23.488000,(-6 15 2 13 18 19 -5 -16)
1969/12/31/18:00:23.490000,(-65 -19 11 13 10 -9 -18 -50)
1969/12/31/18:00:23.490000,(-19 -25 10 -12 7 3 -7 -1)
1969/12/31/18:00:23.510000,(26 41 -11 -17 -46 -26 16 41)
1969/12/31/18:00:23.510000,(-26 -35 3 9 65 58 7 5)
1969/12/31/18:00:23.517000,(67 -55 -64 -41 -75 -35 26 83)
1969/12/31/18:00:23.517000,(-48 24 32 2 -15 -73 -67 -61)
1969/12/31/18:00:23.524000,(-1 13 8 1 36 52 70 25)
1969/12/31/18:00:23.524000,(29 -10 -24 -12 -38 -56 -43 15)
1969/12/31/18:00:23.533000,(-10 -24 -27 5 74 81 -19 -32)
1969/12/31/18:00:23.533000,(16 32 1 -14 -42 -15 14 -6)
1969/12/31/18:00:23.547000,(-58 -32 12 18 62 9 11 -42)
1969/12/31/18:00:23.547000,(-14 56 33 7 -99 -56 -20 -32)
1969/12/31/18:00:23.554000,(8 10 11 -4 12 0 2 7)
1969/12/31/18:00:23.554000,(19 11 -42 -20 -1 7 -11 -19)
1969/12/31/18:00:23.571000,(-32 17 31 8 12 5 -5 -21)
1969/12/31/18:00:23.571000,(29 -16 -36 8 40 36 24 2)
