time,.data
1969/12/31/18:00:36.974,(-3 -1 1 -1 1 -3 -3 -3)
1969/12/31/18:00:36.974,(6 -1 -2 3 3 2 5 5)
1969/12/31/18:00:36.975,(0 0 0 1 -1 -3 -3 0)
1969/12/31/18:00:36.975,(4 2 1 2 0 -2 0 1)
1969/12/31/18:00:36.997,(-4 -1 -2 -2 -1 0 -2 -2)
1969/12/31/18:00:36.997,(-4 -1 1 -2 -17 -5 -3 -6)
1969/12/31/18:00:36.998,(0 0 0 0 14 1 0 1)
1969/12/31/18:00:36.998,(3 3 1 -3 -2 2 2 5)
1969/12/31/18:00:37.012,(-2 -1 -2 4 1 1 0 -2)
1969/12/31/18:00:37.012,(-1 -2 -1 0 2 -1 -1 -1)
1969/12/31/18:00:37.012,(-6 -2 -1 -2 -10 -4 -3 -4)
1969/12/31/18:00:37.012,(-1 -2 -2 -3 1 1 -1 1)
1969/12/31/18:00:37.042,(4 -1 2 1 2 1 4 4)
1969/12/31/18:00:37.042,(-3 -3 -1 -1 -1 -2 -2 -3)
1969/12/31/18:00:37.043,(4 2 0 -4 -4 -1 2 3)
1969/12/31/18:00:37.043,(-1 -1 1 -1 3 -1 -2 -2)
1969/12/31/18:00:37.057,(-1 -1 -3 -2 -8 0 -2 0)
1969/12/31/18:00:37.057,(1 -2 -6 -6 3 -3 1 0)
1969/12/31/18:00:37.058,(-2 -1 -4 -21 -7 -2 -1 -1)
1969/12/31/18:00:37.058,(-4 -1 1 15 -3 -5 -5 -6)
1969/12/31/18:00:37.072,(1 -1 2 5 6 5 4 3)
1969/12/31/18:00:37.072,(3 5 1 -26 -11 -3 -1 1)
1969/12/31/18:00:37.072,(-5 -2 6 51 23 4 -1 -4)
1969/12/31/18:00:37.072,(5 4 11 26 25 7 3 5)
1969/12/31/18:00:37.094,(-7 -5 3 3 1 0 -3 -4)
1969/12/31/18:00:37.094,(-3 0 -8 -6 -6 -4 -8 -5)
1969/12/31/18:00:37.095,(3 -7 -13 -60 -30 -11 1 2)
1969/12/31/18:00:37.095,(0 1 -22 -25 -11 -7 -2 0)
1969/12/31/18:00:37.117,(-1 -6 -7 -61 -67 -15 3 1)
1969/12/31/18:00:37.117,(-1 8 2 25 23 -2 -11 -4)
1969/12/31/18:00:37.118,(0 -5 43 106 78 36 11 6)
1969/12/31/18:00:37.118,(-8 7 43 45 40 17 6 -5)
1969/12/31/18:00:37.132,(8 2 -26 5 6 -3 -5 0)
1969/12/31/18:00:37.132,(-6 -4 -12 -73 -48 -12 -4 -6)
1969/12/31/18:00:37.132,(3 1 -30 -79 -68 -26 -1 3)
1969/12/31/18:00:37.132,(-4 -13 -27 -65 -49 -13 -8 -4)
1969/12/31/18:00:37.156,(-6 4 25 73 59 11 2 -4)
1969/12/31/18:00:37.156,(-1 2 31 72 33 17 7 -1)
1969/12/31/18:00:37.162,(-5 -4 -34 -80 8 -14 -17 -9)
1969/12/31/18:00:37.162,(-4 -19 -34 -65 -82 -24 -7 -5)
1969/12/31/18:00:37.177,(4 10 27 67 7 14 12 5)
1969/12/31/18:00:37.177,(5 20 75 125 104 31 15 9)
1969/12/31/18:00:37.178,(9 17 21 11 -15 13 7 4)
1969/12/31/18:00:37.178,(8 -3 -66 -112 -17 -5 -2 2)
1969/12/31/18:00:37.192,(-8 -21 -55 -56 -57 -25 -17 -9)
1969/12/31/18:00:37.192,(1 -9 -1 -4 -49 -9 9 4)
1969/12/31/18:00:37.192,(-6 1 13 9 -10 -9 0 -3)
1969/12/31/18:00:37.192,(0 4 -7 -59 -50 -12 -2 -2)
1969/12/31/18:00:37.214,(2 -1 -7 -11 68 11 -5 0)
1969/12/31/18:00:37.214,(-3 -1 37 68 94 30 9 3)
1969/12/31/18:00:37.215,(-15 -4 29 -1 -68 -6 -4 -12)
1969/12/31/18:00:37.215,(-3 0 13 66 30 1 -1 0)
1969/12/31/18:00:37.237,(-2 9 60 84 82 27 11 0)
1969/12/31/18:00:37.237,(16 4 -57 -35 -44 -7 0 12)
1969/12/31/18:00:37.238,(-4 -14 -35 -58 -38 -16 -6 -5)
1969/12/31/18:00:37.238,(-6 -4 10 78 -30 -11 -3 -2)
1969/12/31/18:00:37.252,(-9 -8 -8 -86 -51 -19 -8 -7)
1969/12/31/18:00:37.252,(1 -5 -16 34 9 2 0 0)
1969/12/31/18:00:37.252,(2 5 -6 -39 -3 -2 -1 0)
1969/12/31/18:00:37.252,(5 1 -27 -75 -37 -11 -2 2)
1969/12/31/18:00:37.275,(3 1 -15 -67 -60 -12 -2 0)
1969/12/31/18:00:37.275,(-4 -2 14 14 -16 -8 -6 -4)
1969/12/31/18:00:37.276,(2 2 16 59 75 23 4 3)
1969/12/31/18:00:37.276,(-3 3 36 89 112 40 12 1)
1969/12/31/18:00:37.297,(2 2 -13 -88 -19 -1 1 1)
1969/12/31/18:00:37.297,(-6 -6 -16 -18 -40 -17 -6 -4)
1969/12/31/18:00:37.298,(2 1 -5 41 -22 -3 -1 1)
1969/12/31/18:00:37.298,(5 7 40 74 -1 6 3 5)
1969/12/31/18:00:37.312,(-2 2 6 79 77 13 1 -2)
1969/12/31/18:00:37.312,(-7 -11 -34 -112 -52 -17 -4 -5)
1969/12/31/18:00:37.312,(2 0 -2 -20 23 3 0 2)
1969/12/31/18:00:37.312,(3 5 8 47 36 11 6 2)
1969/12/31/18:00:37.335,(0 -2 -8 -22 -38 -9 -2 0)
1969/12/31/18:00:37.335,(-3 -1 0 -19 -8 -5 -3 -5)
1969/12/31/18:00:37.343,(0 -1 -5 23 29 2 1 0)
1969/12/31/18:00:37.343,(1 -1 1 -45 -15 -6 -3 0)
1969/12/31/18:00:37.357,(4 5 10 -8 -25 -1 4 4)
1969/12/31/18:00:37.357,(0 1 3 21 26 0 -3 -2)
1969/12/31/18:00:37.358,(-3 -6 -10 4 -14 -1 1 -1)
1969/12/31/18:00:37.358,(-2 0 2 -25 -11 -3 -1 -1)
1969/12/31/18:00:37.371,(4 0 0 18 10 2 -2 3)
1969/12/31/18:00:37.371,(-1 -2 -11 -30 -16 -2 0 0)
1969/12/31/18:00:37.372,(-1 0 5 3 -5 -3 0 3)
1969/12/31/18:00:37.372,(-6 -6 1 -19 7 3 0 -4)
1969/12/31/18:00:37.394,(-3 1 7 38 13 5 -1 -4)
1969/12/31/18:00:37.394,(3 -4 -6 -22 -12 -6 -1 2)
1969/12/31/18:00:37.402,(8 2 2 11 3 3 3 3)
1969/12/31/18:00:37.402,(-3 -1 -3 -2 12 -3 -7 -9)
1969/12/31/18:00:37.417,(-2 -4 -9 -13 -19 -3 -1 1)
1969/12/31/18:00:37.417,(3 5 -2 -18 -9 -1 0 5)
1969/12/31/18:00:37.418,(10 3 4 17 17 3 2 5)
1969/12/31/18:00:37.418,(-9 -6 -1 2 5 -1 -4 -6)
1969/12/31/18:00:37.431,(2 0 -4 4 -1 0 0 2)
1969/12/31/18:00:37.431,(-7 -2 6 3 -5 -2 1 -3)
1969/12/31/18:00:37.432,(-4 4 5 6 -3 -1 0 3)
1969/12/31/18:00:37.432,(15 -3 -2 3 3 -3 2 9)
1969/12/31/18:00:37.455,(-17 3 -7 1 -8 4 0 -19)
1969/12/31/18:00:37.455,(-9 -11 -8 -15 4 -4 -6 -4)
1969/12/31/18:00:37.456,(8 7 2 4 1 4 6 5)
1969/12/31/18:00:37.456,(-8 -5 -2 3 -9 -7 -8 -7)
1969/12/31/18:00:37.477,(9 2 0 -3 3 -1 2 9)
1969/12/31/18:00:37.477,(-20 -15 -6 -5 -2 0 -3 -7)
1969/12/31/18:00:37.478,(28 23 9 0 -3 5 1 6)
1969/12/31/18:00:37.478,(-8 -3 -4 1 2 -3 -9 -10)
1969/12/31/18:00:37.491,(8 5 5 5 -1 1 1 3)
1969/12/31/18:00:37.491,(-14 -4 -3 3 0 1 -5 -9)
1969/12/31/18:00:37.500,(7 -4 -14 -30 -23 -10 0 8)
1969/12/31/18:00:37.500,(-2 0 -4 -47 -6 1 7 8)
1969/12/31/18:00:37.514,(17 22 23 74 28 5 -2 -4)
1969/12/31/18:00:37.514,(10 -11 -6 -45 -18 -5 1 13)
1969/12/31/18:00:37.521,(-55 -31 -7 48 33 7 -7 -31)
1969/12/31/18:00:37.521,(55 32 18 22 9 11 17 38)
1969/12/31/18:00:37.539,(-49 -27 -10 -12 -14 -9 -18 -33)
1969/12/31/18:00:37.539,(-7 9 3 -18 -7 -7 -9 -14)
1969/12/31/18:00:37.540,(6 -6 11 26 -2 6 15 26)
1969/12/31/18:00:37.540,(-48 -43 -13 -15 -2 -6 -6 -22)
1969/12/31/18:00:37.551,(51 32 -16 -20 -7 -2 2 1)
1969/12/31/18:00:37.551,(105 76 13 19 11 -1 27 87)
1969/12/31/18:00:37.567,(-104 -79 -43 -60 -37 -1 -1 -88)
1969/12/31/18:00:37.567,(96 64 19 39 27 4 -3 66)
1969/12/31/18:00:37.574,(73 34 12 -35 -22 -40 -48 27)
1969/12/31/18:00:37.574,(-55 -49 -18 -30 -19 25 28 -30)
1969/12/31/18:00:37.581,(68 55 8 -34 3 -6 -5 39)
1969/12/31/18:00:37.581,(-84 -55 -47 -93 -81 -20 -8 -52)
1969/12/31/18:00:37.597,(-46 -14 33 89 71 61 80 11)
1969/12/31/18:00:37.597,(57 65 89 100 90 13 -21 18)
1969/12/31/18:00:37.599,(-37 -36 -1 -39 -35 -16 -28 -26)
1969/12/31/18:00:37.599,(-43 6 8 -21 0 -4 -15 -20)
1969/12/31/18:00:37.611,(50 6 -38 -107 -53 -3 5 29)
1969/12/31/18:00:37.611,(-36 -43 -52 -52 -50 -25 -25 -46)
1969/12/31/18:00:37.620,(19 37 6 34 30 26 37 18)
1969/12/31/18:00:37.620,(58 20 21 25 8 0 2 24)
1969/12/31/18:00:37.635,(-52 -20 -26 -23 -34 -20 -6 -24)
1969/12/31/18:00:37.635,(-36 -18 13 30 25 15 17 -1)
1969/12/31/18:00:37.636,(7 15 -18 -26 -15 -15 -22 -15)
1969/12/31/18:00:37.636,(-22 -30 4 17 -2 1 2 -9)
1969/12/31/18:00:37.657,(-27 -8 14 8 9 7 2 0)
1969/12/31/18:00:37.657,(65 37 -46 -39 -58 -32 -29 11)
1969/12/31/18:00:37.664,(16 13 37 90 47 6 3 12)
1969/12/31/18:00:37.664,(-24 -4 31 50 49 20 12 -14)
1969/12/31/18:00:37.671,(-11 -20 15 56 13 11 12 0)
1969/12/31/18:00:37.671,(-11 -12 1 -39 -3 3 3 0)
1969/12/31/18:00:37.680,(2 1 -28 -67 -36 -12 -2 8)
1969/12/31/18:00:37.680,(-47 -33 -6 8 10 3 -9 -37)
1969/12/31/18:00:37.694,(72 54 42 44 39 36 46 70)
1969/12/31/18:00:37.694,(-37 -34 -55 -105 -84 -59 -68 -66)
1969/12/31/18:00:37.701,(-10 -24 -16 37 -12 -9 -3 2)
1969/12/31/18:00:37.701,(-32 -47 15 58 33 12 6 -14)
1969/12/31/18:00:37.717,(0 7 -4 1 9 7 8 16)
1969/12/31/18:00:37.717,(56 67 26 37 28 18 12 25)
1969/12/31/18:00:37.719,(2 -19 -13 -79 -21 -11 -19 -2)
1969/12/31/18:00:37.719,(29 30 -40 -128 -83 -27 -8 13)
1969/12/31/18:00:37.731,(-44 -47 -6 73 -2 -19 -22 -29)
1969/12/31/18:00:37.731,(-21 -17 30 93 45 28 33 3)
1969/12/31/18:00:37.740,(11 19 10 21 20 1 -2 4)
1969/12/31/18:00:37.740,(8 4 -8 -74 -37 -10 -4 1)
1969/12/31/18:00:37.754,(-6 -3 2 37 -36 -13 -9 -12)
1969/12/31/18:00:37.754,(-24 -13 14 31 65 20 9 -5)
1969/12/31/18:00:37.761,(-4 -19 -10 -24 4 5 -3 -1)
1969/12/31/18:00:37.761,(24 61 6 60 29 13 12 16)
1969/12/31/18:00:37.777,(-6 -57 -17 -71 -15 3 6 8)
1969/12/31/18:00:37.777,(-7 -7 -37 -51 -65 -36 -25 -12)
1969/12/31/18:00:37.779,(-4 -31 3 -11 -4 -3 -2 -6)
1969/12/31/18:00:37.779,(8 43 0 19 16 6 6 0)
1969/12/31/18:00:37.791,(14 14 -15 -79 -28 -18 -20 -5)
1969/12/31/18:00:37.791,(-10 -12 3 31 2 4 7 5)
1969/12/31/18:00:37.800,(-9 -4 32 56 26 12 8 4)
1969/12/31/18:00:37.800,(8 -13 -4 -14 -12 -9 -1 5)
1969/12/31/18:00:37.814,(-5 5 -15 10 -2 -15 -12 -12)
1969/12/31/18:00:37.814,(-17 -18 23 41 25 18 13 2)
1969/12/31/18:00:37.821,(11 26 10 21 16 10 5 4)
1969/12/31/18:00:37.821,(12 -1 -11 -32 -9 4 5 4)
1969/12/31/18:00:37.837,(-16 0 0 -1 6 -6 -14 -16)
1969/12/31/18:00:37.837,(6 5 -2 -14 -13 3 11 8)
1969/12/31/18:00:37.839,(-26 2 4 24 -1 -7 -7 -16)
1969/12/31/18:00:37.839,(61 40 3 3 4 -3 3 34)
1969/12/31/18:00:37.860,(-51 -29 -21 -72 -16 -6 -20 -49)
1969/12/31/18:00:37.860,(9 7 -5 -7 -16 -7 -3 3)
1969/12/31/18:00:37.861,(14 11 0 -3 -4 1 4 10)
1969/12/31/18:00:37.861,(-35 -34 0 28 0 -2 -9 -22)
1969/12/31/18:00:37.874,(13 22 8 12 17 4 6 11)
1969/12/31/18:00:37.874,(5 -1 5 12 17 8 6 7)
1969/12/31/18:00:37.881,(-6 -4 -15 -104 -47 -4 3 -5)
1969/12/31/18:00:37.881,(9 6 10 62 5 13 14 8)
1969/12/31/18:00:37.897,(7 4 3 77 61 -8 -13 0)
1969/12/31/18:00:37.897,(-44 -41 -12 11 11 -12 -19 -29)
1969/12/31/18:00:37.899,(8 7 -7 -45 -13 -6 0 7)
1969/12/31/18:00:37.899,(-7 -8 1 -21 -25 0 2 -3)
1969/12/31/18:00:37.920,(8 19 17 11 -15 8 8 5)
1969/12/31/18:00:37.920,(-1 -2 -4 -8 10 5 3 1)
1969/12/31/18:00:37.921,(-4 2 3 14 7 1 1 0)
1969/12/31/18:00:37.921,(-50 -55 -10 2 2 -3 -5 -16)
1969/12/31/18:00:37.934,(34 33 1 -20 -2 14 20 30)
1969/12/31/18:00:37.934,(-47 -43 -2 -13 -1 10 15 -5)
1969/12/31/18:00:37.941,(31 31 1 18 -9 -11 -16 -2)
1969/12/31/18:00:37.941,(-46 -40 -13 9 5 -19 -35 -48)
1969/12/31/18:00:37.957,(-9 -14 -8 -26 -12 -4 0 0)
1969/12/31/18:00:37.957,(25 23 3 -11 -8 4 5 14)
1969/12/31/18:00:37.959,(-22 -25 1 4 -2 3 5 -9)
1969/12/31/18:00:37.959,(27 15 -1 -16 1 12 19 26)
1969/12/31/18:00:37.980,(10 5 -10 -35 -28 -11 -6 2)
1969/12/31/18:00:37.980,(0 5 5 6 -8 -7 -6 -3)
1969/12/31/18:00:37.981,(-14 -12 16 88 65 5 -4 -6)
1969/12/31/18:00:37.981,(20 24 18 43 26 8 3 8)
1969/12/31/18:00:37.993,(-14 -8 -5 -46 -21 -4 -1 -7)
1969/12/31/18:00:37.993,(-3 0 -5 -29 -24 -1 0 -4)
1969/12/31/18:00:38.003,(3 2 -10 -16 -24 -6 -1 7)
1969/12/31/18:00:38.003,(4 -10 -11 -49 -15 -7 -1 9)
1969/12/31/18:00:38.017,(-49 -36 17 89 32 12 4 -19)
1969/12/31/18:00:38.017,(98 94 28 30 28 18 30 63)
1969/12/31/18:00:38.019,(-13 -9 -6 -2 -6 -11 -20 -22)
1969/12/31/18:00:38.019,(-10 -6 -4 -16 -5 -2 -2 -7)
1969/12/31/18:00:38.040,(6 -4 -10 -34 -21 -4 -3 2)
1969/12/31/18:00:38.040,(-5 -13 -11 -21 2 0 3 3)
1969/12/31/18:00:38.041,(5 4 0 -3 -18 2 8 11)
1969/12/31/18:00:38.041,(0 8 1 5 0 -8 -7 -7)
1969/12/31/18:00:38.053,(6 -2 -7 -38 -10 5 1 7)
1969/12/31/18:00:38.053,(-7 -1 20 99 55 13 3 -5)
1969/12/31/18:00:38.062,(4 2 3 -10 19 4 1 1)
1969/12/31/18:00:38.062,(-12 -8 -8 -4 -32 -12 -9 -9)
1969/12/31/18:00:38.077,(0 5 11 33 0 -8 -7 -6)
1969/12/31/18:00:38.077,(-13 -13 -2 -10 9 7 0 -7)
1969/12/31/18:00:38.079,(4 3 6 14 6 7 8 9)
1969/12/31/18:00:38.079,(2 -10 -9 -17 3 -4 -1 4)
1969/12/31/18:00:38.100,(2 6 -8 -35 -15 0 3 0)
1969/12/31/18:00:38.100,(-19 -28 -15 -24 -29 -10 -7 -16)
1969/12/31/18:00:38.101,(-12 12 4 15 10 7 7 0)
1969/12/31/18:00:38.101,(5 4 0 7 -2 -6 -8 -10)
1969/12/31/18:00:38.113,(-2 -5 -10 -42 -22 -11 -2 1)
1969/12/31/18:00:38.113,(-11 -16 -16 -7 -28 -8 -8 -9)
1969/12/31/18:00:38.122,(9 3 16 43 43 14 11 12)
1969/12/31/18:00:38.122,(8 10 13 26 42 27 17 13)
1969/12/31/18:00:38.137,(0 4 13 -19 -12 5 -1 -3)
1969/12/31/18:00:38.137,(-3 7 -4 7 2 -9 -3 -1)
1969/12/31/18:00:38.139,(11 -7 -21 -22 -26 -15 -3 6)
1969/12/31/18:00:38.139,(-6 -2 1 13 -7 -11 -6 -6)
1969/12/31/18:00:38.160,(7 6 0 -4 12 -6 -8 0)
1969/12/31/18:00:38.160,(-34 -40 -9 -45 -28 -6 -8 -16)
1969/12/31/18:00:38.162,(8 25 3 -9 -15 0 3 8)
1969/12/31/18:00:38.162,(57 55 25 41 34 22 19 21)
1969/12/31/18:00:38.173,(-6 -13 -7 1 -3 -6 -11 -7)
1969/12/31/18:00:38.173,(8 4 -3 -23 -10 0 5 6)
1969/12/31/18:00:38.182,(-11 -20 -8 5 -7 -2 -5 -6)
1969/12/31/18:00:38.182,(-15 -17 4 12 6 3 5 2)
1969/12/31/18:00:38.197,(8 18 8 25 18 8 6 12)
1969/12/31/18:00:38.197,(3 7 -2 -6 -1 -4 -10 -15)
1969/12/31/18:00:38.199,(-6 -16 -49 -124 -110 -55 -23 -10)
1969/12/31/18:00:38.199,(5 2 14 82 16 0 2 6)
1969/12/31/18:00:38.220,(-5 -1 42 107 106 55 15 1)
1969/12/31/18:00:38.220,(-3 -1 3 -8 46 33 10 6)
1969/12/31/18:00:38.221,(5 8 16 -7 6 15 6 0)
1969/12/31/18:00:38.221,(-10 -11 -24 -79 -65 -28 -14 -12)
1969/12/31/18:00:38.234,(-34 -30 -22 -17 -47 -32 -12 -17)
1969/12/31/18:00:38.234,(33 44 15 -14 -6 -3 13 31)
1969/12/31/18:00:38.241,(-58 -43 -28 -23 -18 -18 -34 -47)
1969/12/31/18:00:38.241,(-9 -2 -5 0 -3 -3 -4 -2)
1969/12/31/18:00:38.257,(7 9 4 6 14 7 7 3)
1969/12/31/18:00:38.257,(-7 -9 -10 -20 -21 -11 -10 -7)
1969/12/31/18:00:38.259,(7 1 10 28 15 8 10 12)
1969/12/31/18:00:38.259,(20 12 11 14 19 10 4 7)
1969/12/31/18:00:38.280,(-12 -15 -18 -34 -17 -10 -12 -15)
1969/12/31/18:00:38.280,(-7 -5 -3 2 -10 -6 -3 -8)
1969/12/31/18:00:38.281,(17 10 5 -31 -6 5 12 18)
1969/12/31/18:00:38.281,(-11 -2 11 58 36 10 3 -6)
1969/12/31/18:00:38.293,(13 13 14 35 3 -4 0 6)
1969/12/31/18:00:38.293,(-3 -1 -1 13 0 -1 -4 -4)
1969/12/31/18:00:38.302,(7 0 6 26 41 21 14 11)
1969/12/31/18:00:38.302,(-8 -2 -16 -69 -24 -1 -3 -2)
1969/12/31/18:00:38.317,(-3 -1 -13 -18 -27 -12 -3 1)
1969/12/31/18:00:38.317,(10 1 1 0 -8 -11 -8 -1)
1969/12/31/18:00:38.319,(-16 -9 7 13 4 2 -2 -15)
1969/12/31/18:00:38.319,(32 34 -2 -23 -11 -2 9 27)
1969/12/31/18:00:38.340,(-26 -41 1 11 7 0 -7 -12)
1969/12/31/18:00:38.340,(-1 10 -3 -5 -8 -7 -5 -7)
1969/12/31/18:00:38.341,(17 15 3 -8 3 5 5 7)
1969/12/31/18:00:38.341,(-12 -9 -2 20 0 -2 -4 -6)
1969/12/31/18:00:38.353,(8 7 -2 -26 3 4 6 8)
1969/12/31/18:00:38.353,(2 0 -6 -7 -8 2 1 2)
1969/12/31/18:00:38.362,(8 6 13 55 13 -1 2 10)
1969/12/31/18:00:38.362,(-12 -10 11 19 27 7 1 -5)
1969/12/31/18:00:38.377,(9 9 -14 -50 -40 -9 -3 2)
1969/12/31/18:00:38.377,(-11 -13 -16 -25 -18 -8 -1 -4)
1969/12/31/18:00:38.379,(10 13 16 69 39 11 4 4)
1969/12/31/18:00:38.379,(-15 -9 15 33 34 11 -1 -11)
1969/12/31/18:00:38.400,(6 6 -3 -15 2 4 2 1)
1969/12/31/18:00:38.400,(-15 -11 -8 -15 -16 -4 -4 -5)
1969/12/31/18:00:38.401,(-5 -3 -6 -25 -24 -8 -4 1)
1969/12/31/18:00:38.401,(5 6 -9 -25 -18 -10 -7 -4)
1969/12/31/18:00:38.413,(-9 -13 -8 -8 -5 -8 -9 -11)
1969/12/31/18:00:38.413,(24 25 8 9 9 6 12 17)
1969/12/31/18:00:38.422,(-15 -9 -2 6 6 -5 -14 -19)
1969/12/31/18:00:38.422,(-15 -19 -4 -3 -5 0 -2 -5)
1969/12/31/18:00:38.437,(12 18 -4 -12 -5 -2 1 5)
1969/12/31/18:00:38.437,(-10 -13 -5 8 1 -3 -4 -7)
1969/12/31/18:00:38.439,(10 7 4 4 -2 2 11 10)
1969/12/31/18:00:38.439,(1 2 -3 -8 -1 -1 -2 -1)
1969/12/31/18:00:38.460,(0 -2 7 47 21 1 -1 0)
1969/12/31/18:00:38.460,(-4 -2 5 -39 -13 1 1 0)
1969/12/31/18:00:38.461,(4 -2 -3 33 12 0 -1 1)
1969/12/31/18:00:38.461,(-3 -4 10 17 3 4 2 2)
1969/12/31/18:00:38.473,(-2 2 -2 -10 0 -2 -2 -6)
1969/12/31/18:00:38.473,(-3 -4 2 11 9 2 2 3)
1969/12/31/18:00:38.482,(2 0 -14 -58 -34 -9 -3 1)
1969/12/31/18:00:38.482,(-1 -5 -5 4 -13 -9 -5 -3)
1969/12/31/18:00:38.497,(1 4 17 50 34 8 3 1)
1969/12/31/18:00:38.497,(-4 -1 2 23 6 3 1 -3)
1969/12/31/18:00:38.499,(-6 -8 -5 -29 -12 3 3 1)
1969/12/31/18:00:38.499,(11 12 -8 -18 -8 -5 -2 2)
1969/12/31/18:00:38.520,(0 -4 -5 -30 -19 -7 -5 -2)
1969/12/31/18:00:38.520,(-2 -5 -10 -31 -17 -5 -1 -2)
1969/12/31/18:00:38.521,(5 5 10 48 30 5 2 5)
1969/12/31/18:00:38.521,(-5 -2 12 43 25 8 1 -4)
1969/12/31/18:00:38.533,(-6 1 2 2 7 4 0 -6)
1969/12/31/18:00:38.533,(0 -4 -8 -17 -12 1 4 7)
1969/12/31/18:00:38.542,(-20 -15 -4 -8 -8 -4 -5 -11)
1969/12/31/18:00:38.542,(18 17 3 -5 -6 -11 -9 -3)
1969/12/31/18:00:38.557,(2 -6 -10 -15 -12 -3 -2 1)
1969/12/31/18:00:38.557,(3 1 1 -1 6 -1 3 8)
1969/12/31/18:00:38.559,(1 1 4 6 1 3 2 0)
1969/12/31/18:00:38.559,(-6 -8 -3 8 -7 2 4 3)
1969/12/31/18:00:38.580,(-3 -1 -7 -33 -11 -1 5 0)
1969/12/31/18:00:38.580,(-1 -2 -6 -32 -26 -11 -14 -10)
1969/12/31/18:00:38.581,(5 4 9 47 32 5 2 4)
1969/12/31/18:00:38.581,(-5 -4 5 8 28 11 6 3)
1969/12/31/18:00:38.593,(1 1 3 3 -12 0 0 2)
1969/12/31/18:00:38.593,(1 0 9 22 18 5 4 1)
1969/12/31/18:00:38.602,(1 2 -17 -51 -25 -9 -5 -5)
1969/12/31/18:00:38.602,(11 9 0 3 -18 -1 7 13)
1969/12/31/18:00:38.617,(1 -1 -12 -26 2 -3 -4 0)
1969/12/31/18:00:38.617,(-5 -4 2 16 2 -1 0 0)
1969/12/31/18:00:38.619,(-6 -1 15 29 20 12 7 -1)
1969/12/31/18:00:38.619,(-2 2 -4 -13 -2 -4 -7 -10)
1969/12/31/18:00:38.640,(25 11 -6 0 -9 -7 2 19)
1969/12/31/18:00:38.640,(-39 -23 -4 -7 -2 -3 -14 -36)
1969/12/31/18:00:38.641,(12 8 -2 -13 -12 -3 3 11)
1969/12/31/18:00:38.641,(-12 -14 -10 -1 -7 -4 -4 -2)
1969/12/31/18:00:38.653,(-5 -2 0 15 8 -4 -10 -13)
1969/12/31/18:00:38.654,(13 8 2 14 3 2 4 9)
1969/12/31/18:00:38.662,(-5 -3 3 1 9 4 4 1)
1969/12/31/18:00:38.662,(-17 -13 -4 -23 -12 -10 -11 -13)
1969/12/31/18:00:38.677,(13 10 -2 -28 -12 4 9 9)
1969/12/31/18:00:38.677,(-1 -2 6 63 30 3 -1 0)
1969/12/31/18:00:38.679,(10 6 0 -23 -10 0 3 7)
1969/12/31/18:00:38.679,(12 21 -1 -13 -12 -2 2 8)
1969/12/31/18:00:38.700,(-31 -26 1 33 9 -5 -11 -24)
1969/12/31/18:00:38.700,(1 10 14 19 13 5 -1 -3)
1969/12/31/18:00:38.702,(-8 -5 -12 -20 -15 -10 -10 -10)
1969/12/31/18:00:38.702,(0 -7 -10 -29 -10 -1 3 1)
1969/12/31/18:00:38.713,(-2 2 -2 -12 -3 1 1 0)
1969/12/31/18:00:38.713,(23 11 6 17 2 2 9 25)
1969/12/31/18:00:38.722,(-19 -36 -3 -5 -8 -3 -4 -12)
1969/12/31/18:00:38.722,(9 24 2 0 12 0 4 0)
1969/12/31/18:00:38.737,(-7 -3 -3 5 -2 -3 -5 -1)
1969/12/31/18:00:38.737,(-12 -9 -3 -8 0 -1 -6 -15)
1969/12/31/18:00:38.743,(8 8 -13 -75 -29 -6 0 5)
1969/12/31/18:00:38.743,(6 -1 2 39 0 3 6 7)
1969/12/31/18:00:38.760,(-8 -8 17 47 40 9 4 1)
1969/12/31/18:00:38.760,(-11 -4 5 9 5 -1 -3 -8)
1969/12/31/18:00:38.761,(0 5 0 -4 -4 -1 1 -1)
1969/12/31/18:00:38.761,(-15 -26 -18 -49 -20 -6 -5 -11)
1969/12/31/18:00:38.774,(76 64 14 16 -1 12 27 43)
1969/12/31/18:00:38.774,(-8 -9 0 0 6 -1 -2 -4)
1969/12/31/18:00:38.788,(2 8 3 21 -1 -4 -8 -5)
1969/12/31/18:00:38.788,(-31 -52 -5 -13 -2 -2 -6 -16)
1969/12/31/18:00:38.797,(19 36 9 14 10 12 15 16)
1969/12/31/18:00:38.797,(20 24 -2 -14 -8 -4 3 16)
1969/12/31/18:00:38.803,(-31 -21 -1 5 -3 -9 -13 -28)
1969/12/31/18:00:38.804,(2 1 3 2 3 3 5 7)
1969/12/31/18:00:38.820,(-8 -17 -9 -21 -16 -3 -2 -1)
1969/12/31/18:00:38.820,(-19 -39 -10 -20 4 -3 -5 -8)
1969/12/31/18:00:38.821,(36 44 7 41 13 10 17 27)
1969/12/31/18:00:38.821,(-11 4 2 -5 1 -7 -14 -19)
1969/12/31/18:00:38.842,(-38 -30 -7 -13 -16 -11 -14 -25)
1969/12/31/18:00:38.842,(23 15 -1 -19 -11 3 12 16)
1969/12/31/18:00:38.844,(1 -8 5 20 19 5 3 4)
1969/12/31/18:00:38.844,(22 16 -1 -8 1 3 5 11)
1969/12/31/18:00:38.857,(-25 -22 -11 -19 -11 -9 -14 -21)
1969/12/31/18:00:38.857,(6 0 1 19 5 3 7 12)
1969/12/31/18:00:38.859,(26 27 21 47 18 1 2 14)
1969/12/31/18:00:38.859,(-16 -4 3 7 5 2 -1 -10)
1969/12/31/18:00:38.880,(-2 -1 -4 -3 -6 -9 -10 -7)
1969/12/31/18:00:38.880,(-37 -39 -13 -18 -11 -3 2 -10)
1969/12/31/18:00:38.881,(47 56 -2 -33 -13 1 0 10)
1969/12/31/18:00:38.881,(4 3 5 9 3 2 6 4)
1969/12/31/18:00:38.902,(-14 -20 -2 -2 4 8 7 -3)
1969/12/31/18:00:38.903,(6 0 -5 0 0 -1 -4 -1)
1969/12/31/18:00:38.904,(-18 -20 0 5 0 -2 -5 -5)
1969/12/31/18:00:38.904,(-13 -20 -6 -11 -3 3 2 -2)
1969/12/31/18:00:38.917,(7 2 1 5 0 -2 3 7)
1969/12/31/18:00:38.917,(-4 15 2 -3 -9 -6 -9 -11)
1969/12/31/18:00:38.919,(-15 -19 -1 7 14 0 -4 -12)
1969/12/31/18:00:38.919,(16 18 -6 -36 -18 -1 5 9)
1969/12/31/18:00:38.940,(-8 -24 2 14 -1 -5 -4 2)
1969/12/31/18:00:38.940,(24 41 12 31 21 8 5 8)
1969/12/31/18:00:38.941,(-15 -9 1 0 -7 -5 -5 -8)
1969/12/31/18:00:38.941,(-9 -18 -9 13 8 -5 -11 -5)
1969/12/31/18:00:38.962,(27 36 2 -14 -7 2 6 5)
1969/12/31/18:00:38.962,(-17 -24 -13 -12 -15 -18 -24 -21)
1969/12/31/18:00:38.964,(-18 -14 -5 -22 -7 2 2 -10)
1969/12/31/18:00:38.964,(-7 -3 -5 -9 -10 -11 -6 2)
1969/12/31/18:00:38.976,(-17 -15 -2 19 8 3 1 -7)
1969/12/31/18:00:38.976,(42 35 11 7 13 5 6 19)
1969/12/31/18:00:38.983,(2 4 -5 -6 -4 -2 -3 -3)
1969/12/31/18:00:38.983,(-7 -10 -2 -24 -16 -2 0 -4)
1969/12/31/18:00:39.000,(-9 -5 -12 -51 -11 -7 -4 -4)
1969/12/31/18:00:39.000,(-4 -4 10 55 10 6 5 0)
1969/12/31/18:00:39.001,(-9 -20 3 20 20 5 2 5)
1969/12/31/18:00:39.001,(-23 -13 6 16 4 -1 -4 -9)
1969/12/31/18:00:39.022,(37 39 15 9 10 14 18 25)
1969/12/31/18:00:39.022,(-24 -13 -16 -50 -26 -13 -15 -26)
1969/12/31/18:00:39.024,(29 12 -3 -11 -8 -1 7 17)
1969/12/31/18:00:39.024,(9 -3 -7 6 7 4 0 1)
1969/12/31/18:00:39.037,(-32 -23 -3 -4 -9 -13 -16 -13)
1969/12/31/18:00:39.037,(19 30 -2 -19 -1 4 3 5)
1969/12/31/18:00:39.043,(-13 -8 5 35 5 -1 -5 -13)
1969/12/31/18:00:39.043,(14 13 5 18 13 3 3 6)
1969/12/31/18:00:39.060,(-12 -31 -6 -11 -8 0 -1 0)
1969/12/31/18:00:39.060,(14 13 1 -17 -16 1 3 4)
1969/12/31/18:00:39.061,(2 3 -2 -23 9 1 0 1)
1969/12/31/18:00:39.061,(-6 -9 16 55 13 3 -1 -3)
1969/12/31/18:00:39.082,(13 24 7 40 13 -7 -2 16)
1969/12/31/18:00:39.082,(-27 -20 -2 -13 1 1 -11 -37)
1969/12/31/18:00:39.084,(7 8 -13 -34 -22 -4 3 9)
1969/12/31/18:00:39.084,(11 3 -8 -40 -10 0 4 6)
1969/12/31/18:00:39.097,(-7 -6 -8 -1 -7 -8 -10 -12)
1969/12/31/18:00:39.097,(-6 -1 5 12 6 2 3 4)
1969/12/31/18:00:39.104,(8 -9 3 2 2 6 15 24)
1969/12/31/18:00:39.104,(-4 -5 -6 -6 -3 -6 -9 -6)
1969/12/31/18:00:39.120,(5 6 -1 -8 -3 3 0 -3)
1969/12/31/18:00:39.120,(-4 -10 0 -7 -4 -6 0 2)
1969/12/31/18:00:39.122,(-6 -6 -2 15 4 -5 -8 -9)
1969/12/31/18:00:39.122,(16 19 8 -11 7 16 23 19)
1969/12/31/18:00:39.142,(16 9 6 16 3 1 -2 -1)
1969/12/31/18:00:39.142,(-23 -8 8 28 24 5 5 6)
1969/12/31/18:00:39.144,(7 -1 6 11 -4 -3 -8 -18)
1969/12/31/18:00:39.144,(17 6 3 1 -2 0 4 13)
1969/12/31/18:00:39.156,(-9 -4 -10 -19 -9 0 0 -7)
1969/12/31/18:00:39.156,(2 -11 -8 -16 -11 -7 -5 3)
1969/12/31/18:00:39.165,(0 4 0 -8 -2 2 3 7)
1969/12/31/18:00:39.165,(-7 -1 2 4 2 -2 -3 -7)
1969/12/31/18:00:39.180,(5 1 -7 -22 -12 -5 -2 -2)
1969/12/31/18:00:39.180,(-5 -21 14 60 21 3 2 7)
1969/12/31/18:00:39.181,(1 20 0 6 5 2 1 -2)
1969/12/31/18:00:39.181,(0 6 -5 -8 -13 -11 -13 -11)
1969/12/31/18:00:39.202,(-16 -24 7 3 11 8 7 0)
1969/12/31/18:00:39.202,(-4 -42 -18 -21 2 9 10 17)
1969/12/31/18:00:39.204,(1 44 0 -17 -15 -2 -9 -27)
1969/12/31/18:00:39.204,(-8 -9 -5 4 3 -8 -11 -8)
1969/12/31/18:00:39.216,(-7 2 5 8 1 0 0 -1)
1969/12/31/18:00:39.216,(16 12 0 -27 -26 -11 -6 0)
1969/12/31/18:00:39.225,(-8 -7 -5 5 17 3 1 3)
1969/12/31/18:00:39.225,(-9 -5 7 24 9 2 -3 -8)
1969/12/31/18:00:39.240,(6 -1 -1 -7 -6 -5 -3 0)
1969/12/31/18:00:39.240,(22 24 3 11 8 11 15 16)
1969/12/31/18:00:39.241,(-17 -25 -8 -23 -11 -6 -3 0)
1969/12/31/18:00:39.241,(-11 -3 -8 -11 -5 -4 -6 -12)
1969/12/31/18:00:39.262,(20 -1 5 20 15 8 9 16)
1969/12/31/18:00:39.262,(6 27 -1 -14 -8 -10 -16 -17)
1969/12/31/18:00:39.264,(-8 -1 -3 -7 -8 -7 -4 -6)
1969/12/31/18:00:39.264,(-4 -4 7 5 1 -1 0 -3)
1969/12/31/18:00:39.276,(13 9 1 1 -3 -1 2 13)
1969/12/31/18:00:39.276,(-5 -15 -9 -9 0 5 9 9)
1969/12/31/18:00:39.285,(10 2 0 7 4 8 8 7)
1969/12/31/18:00:39.285,(-3 -4 -3 -3 -3 -2 -5 -5)
1969/12/31/18:00:39.300,(0 16 5 3 1 -1 -2 -3)
1969/12/31/18:00:39.300,(-3 -4 7 8 5 5 9 9)
1969/12/31/18:00:39.302,(-24 -28 -11 -2 -9 -11 -13 -9)
1969/12/31/18:00:39.302,(11 14 3 -6 0 8 10 3)
1969/12/31/18:00:39.322,(-1 -1 -8 -5 3 -5 -6 -5)
1969/12/31/18:00:39.322,(10 3 3 9 13 7 3 4)
1969/12/31/18:00:39.324,(-11 -16 -1 -3 -5 -7 -7 -3)
1969/12/31/18:00:39.324,(3 25 -1 -5 -4 -1 -1 0)
1969/12/31/18:00:39.336,(-2 -12 -1 4 -4 -4 -1 6)
1969/12/31/18:00:39.336,(-33 -45 -2 -4 -5 -8 -16 -25)
1969/12/31/18:00:39.345,(5 35 -3 -2 -3 -3 -2 -4)
1969/12/31/18:00:39.345,(1 -11 -7 -5 -3 -2 -2 0)
1969/12/31/18:00:39.360,(-8 -8 -11 -5 3 6 8 -1)
1969/12/31/18:00:39.360,(0 3 2 3 -4 -4 -5 -3)
1969/12/31/18:00:39.361,(14 0 11 8 10 10 14 18)
1969/12/31/18:00:39.361,(-26 -65 -11 -6 -6 -5 -1 3)
1969/12/31/18:00:39.382,(22 44 6 -26 -14 3 -1 -10)
1969/12/31/18:00:39.382,(11 22 3 22 11 -9 -11 0)
1969/12/31/18:00:39.384,(5 -5 11 11 10 10 5 3)
1969/12/31/18:00:39.384,(-2 18 -1 3 -3 0 0 -4)
1969/12/31/18:00:39.412,(-4 -21 -4 -9 -5 -1 1 1)
1969/12/31/18:00:39.412,(7 19 0 -12 -9 -1 -1 1)
1969/12/31/18:00:39.414,(2 -6 -6 3 4 0 -1 0)
1969/12/31/18:00:39.414,(8 3 -1 -3 2 2 6 8)
1969/12/31/18:00:39.420,(-6 -19 -3 1 -3 -1 0 1)
1969/12/31/18:00:39.420,(-21 2 -6 -5 -5 0 0 -5)
1969/12/31/18:00:39.421,(38 23 19 14 12 15 14 13)
1969/12/31/18:00:39.421,(-5 -17 -4 -7 -5 -8 -9 -4)
1969/12/31/18:00:39.442,(-7 8 -13 -16 -7 -7 -10 -12)
1969/12/31/18:00:39.442,(9 -24 -2 12 11 12 12 21)
1969/12/31/18:00:39.444,(-9 -5 -7 -6 -12 -18 -18 -15)
1969/12/31/18:00:39.444,(17 16 5 -3 6 11 11 11)
1969/12/31/18:00:39.456,(-34 -37 -5 3 -1 -5 -8 -20)
1969/12/31/18:00:39.456,(15 20 -4 4 -15 -5 -2 1)
1969/12/31/18:00:39.465,(-15 -17 0 9 4 -3 -4 -6)
1969/12/31/18:00:39.465,(-1 18 -1 -13 -4 0 -4 2)
1969/12/31/18:00:39.480,(-23 -25 -5 11 14 -9 -16 -17)
1969/12/31/18:00:39.480,(10 18 10 2 6 19 17 1)
1969/12/31/18:00:39.481,(-18 -12 -6 -5 -11 -9 -8 -9)
1969/12/31/18:00:39.481,(4 4 -1 10 4 -1 -1 6)
1969/12/31/18:00:39.502,(-29 -33 -4 -6 0 -1 -6 -14)
1969/12/31/18:00:39.502,(31 41 1 -12 -5 -5 3 7)
1969/12/31/18:00:39.504,(-21 -33 -7 -9 -12 -15 -22 -14)
1969/12/31/18:00:39.504,(8 10 1 -6 -4 2 9 5)
1969/12/31/18:00:39.516,(18 23 6 9 1 2 4 11)
1969/12/31/18:00:39.516,(-14 -13 -5 4 6 0 -4 -8)
1969/12/31/18:00:39.525,(-20 -45 -9 -14 -7 5 9 9)
1969/12/31/18:00:39.525,(26 56 9 -8 -2 0 -2 -5)
1969/12/31/18:00:39.539,(5 11 8 18 4 2 1 0)
1969/12/31/18:00:39.539,(-4 -2 -3 5 -7 -10 -8 -7)
1969/12/31/18:00:39.546,(2 -2 8 19 17 13 15 12)
1969/12/31/18:00:39.546,(-16 -20 4 9 1 -7 -10 -9)
1969/12/31/18:00:39.563,(14 18 3 -3 -2 3 8 11)
1969/12/31/18:00:39.563,(-3 -7 -3 -15 1 5 7 4)
1969/12/31/18:00:39.564,(0 -15 -13 -12 -7 -9 -14 -4)
1969/12/31/18:00:39.564,(28 6 -6 -3 -6 -6 -4 2)
1969/12/31/18:00:39.576,(-44 1 5 8 2 1 -9 -36)
1969/12/31/18:00:39.576,(10 -3 -8 -14 -14 -28 -36 -15)
1969/12/31/18:00:39.585,(-4 17 1 1 2 6 11 3)
1969/12/31/18:00:39.585,(-6 -26 -8 -7 -1 2 1 7)
1969/12/31/18:00:39.599,(13 4 -3 -15 -20 -4 -3 2)
1969/12/31/18:00:39.599,(6 4 -3 8 15 13 18 16)
1969/12/31/18:00:39.606,(9 15 8 19 1 0 -2 0)
1969/12/31/18:00:39.606,(-36 -32 -5 -17 -2 -6 -12 -23)
1969/12/31/18:00:39.622,(45 37 9 23 21 19 25 37)
1969/12/31/18:00:39.622,(-27 -21 6 9 2 1 -2 -10)
1969/12/31/18:00:39.624,(32 28 -5 -19 3 5 10 9)
1969/12/31/18:00:39.624,(-1 0 -1 0 -13 -10 -5 3)
1969/12/31/18:00:39.636,(16 27 -5 -7 -8 -4 0 0)
1969/12/31/18:00:39.636,(-6 -11 -1 -9 -3 -4 -3 5)
1969/12/31/18:00:39.645,(-15 -32 -8 -7 0 4 6 0)
1969/12/31/18:00:39.645,(7 18 4 3 1 4 5 2)
1969/12/31/18:00:39.659,(-9 -21 -7 4 -3 -8 -9 1)
1969/12/31/18:00:39.659,(-14 -1 3 1 -3 -3 -5 -13)
1969/12/31/18:00:39.666,(-1 6 2 -2 -1 4 6 7)
1969/12/31/18:00:39.666,(-6 -20 -7 4 2 1 3 3)
1969/12/31/18:00:39.683,(-20 -14 -1 1 -1 -2 -5 -13)
1969/12/31/18:00:39.683,(39 49 8 -8 -2 9 12 15)
1969/12/31/18:00:39.684,(2 2 4 12 3 1 0 -4)
1969/12/31/18:00:39.684,(-7 -15 -1 8 13 0 -3 0)
1969/12/31/18:00:39.696,(8 13 3 20 1 -7 -6 0)
1969/12/31/18:00:39.696,(-15 -18 -4 -6 5 9 9 -4)
1969/12/31/18:00:39.721,(10 8 -9 -15 -16 -11 -9 -2)
1969/12/31/18:00:39.721,(10 24 3 1 -4 -4 -11 -8)
1969/12/31/18:00:39.722,(-43 -45 -1 -3 0 -5 -10 -14)
1969/12/31/18:00:39.722,(-1 -22 -5 -3 -4 0 5 11)
1969/12/31/18:00:39.726,(-3 16 -11 -10 -6 -6 -12 -23)
1969/12/31/18:00:39.726,(-11 -18 -1 0 -4 -4 -7 -11)
1969/12/31/18:00:39.742,(18 2 2 -2 4 3 6 10)
1969/12/31/18:00:39.742,(13 22 -3 2 -5 -9 -12 -11)
1969/12/31/18:00:39.744,(-17 -23 -5 -4 -4 -7 -3 -4)
1969/12/31/18:00:39.744,(19 23 4 -18 -5 10 18 18)
1969/12/31/18:00:39.765,(3 -3 2 6 -3 -4 -6 -1)
1969/12/31/18:00:39.765,(6 -4 3 5 5 9 10 10)
1969/12/31/18:00:39.767,(-1 0 1 -1 4 -4 -3 -3)
1969/12/31/18:00:39.767,(-13 0 -4 9 -4 -5 -6 -10)
1969/12/31/18:00:39.779,(19 10 -3 1 5 8 14 18)
1969/12/31/18:00:39.779,(-11 -20 6 27 14 3 3 -3)
1969/12/31/18:00:39.794,(6 21 21 14 22 21 20 17)
1969/12/31/18:00:39.794,(-34 -27 -12 -15 -19 -15 -17 -20)
1969/12/31/18:00:39.802,(36 29 -1 -18 -2 7 12 15)
1969/12/31/18:00:39.802,(2 8 3 -13 -15 -11 -10 -4)
1969/12/31/18:00:39.804,(-13 -17 -12 -7 -10 -9 -9 -4)
1969/12/31/18:00:39.804,(15 13 7 5 8 10 17 22)
1969/12/31/18:00:39.825,(2 12 -1 2 6 1 -1 -6)
1969/12/31/18:00:39.825,(-5 -12 -11 -10 -2 -1 -4 -1)
1969/12/31/18:00:39.826,(-10 -5 -1 -2 -8 -6 -9 -9)
1969/12/31/18:00:39.826,(-2 1 6 7 9 10 10 6)
1969/12/31/18:00:39.839,(-9 -9 -1 2 1 -3 -7 -5)
1969/12/31/18:00:39.839,(-7 0 -4 -3 -4 -4 -4 -3)
1969/12/31/18:00:39.846,(-2 -2 -3 -7 -6 -6 -5 -2)
1969/12/31/18:00:39.846,(-3 -2 -1 13 6 3 1 -9)
1969/12/31/18:00:39.862,(3 1 8 -1 2 4 4 11)
1969/12/31/18:00:39.862,(-11 0 0 -4 1 0 2 -7)
1969/12/31/18:00:39.864,(25 13 14 21 10 13 18 21)
1969/12/31/18:00:39.864,(2 -11 -9 5 13 4 -1 -1)
1969/12/31/18:00:39.885,(-2 7 -1 -4 -8 -4 -6 -8)
1969/12/31/18:00:39.885,(-10 -10 -4 -6 -9 -10 -10 -2)
1969/12/31/18:00:39.886,(-42 -22 -8 -10 -13 -10 -15 -35)
1969/12/31/18:00:39.886,(42 25 4 -7 0 7 18 29)
1969/12/31/18:00:39.899,(-13 -22 -14 -25 -17 -6 -8 -7)
1969/12/31/18:00:39.899,(9 6 1 -3 -7 -3 -1 3)
1969/12/31/18:00:39.906,(5 0 4 42 24 7 4 7)
1969/12/31/18:00:39.906,(-26 -15 9 27 13 -4 -12 -16)
1969/12/31/18:00:39.922,(4 5 1 5 4 4 3 -2)
1969/12/31/18:00:39.922,(-6 -7 -9 -23 -9 -5 1 8)
1969/12/31/18:00:39.924,(19 18 6 -13 -8 -9 -16 -15)
1969/12/31/18:00:39.924,(-40 -52 -6 4 -3 -5 -10 -15)
1969/12/31/18:00:39.945,(35 57 6 1 4 10 18 26)
1969/12/31/18:00:39.945,(12 16 3 -4 -4 -1 -3 -6)
1969/12/31/18:00:39.946,(-12 -24 -7 -12 -9 -11 -9 -6)
1969/12/31/18:00:39.946,(-11 1 2 -3 1 5 7 4)
1969/12/31/18:00:39.959,(6 -9 -3 3 5 0 -2 -2)
1969/12/31/18:00:39.959,(-12 -11 -10 -6 -3 -5 -17 -19)
1969/12/31/18:00:39.966,(9 12 -5 -29 -12 2 7 11)
1969/12/31/18:00:39.966,(3 7 0 8 2 -7 -7 -5)
1969/12/31/18:00:39.983,(-19 -16 0 18 2 -5 -1 -1)
1969/12/31/18:00:39.983,(3 10 9 18 21 15 9 6)
1969/12/31/18:00:39.984,(-17 -18 -8 -7 -7 -11 -23 -21)
1969/12/31/18:00:39.984,(-17 -23 -10 -31 -15 -3 2 -1)
1969/12/31/18:00:40.005,(19 35 7 0 -3 -7 -12 -12)
1969/12/31/18:00:40.005,(-8 -14 5 26 7 -4 -6 -5)
1969/12/31/18:00:40.007,(-4 14 2 -6 0 9 13 7)
1969/12/31/18:00:40.007,(3 -8 -7 -4 1 5 0 1)
1969/12/31/18:00:40.027,(-17 -16 -4 -2 2 2 2 -1)
1969/12/31/18:00:40.027,(-7 -23 -10 -12 -6 -9 -16 -18)
1969/12/31/18:00:40.029,(-1 5 -3 0 -6 -3 -2 0)
1969/12/31/18:00:40.029,(28 27 5 3 0 5 7 12)
1969/12/31/18:00:40.042,(-32 -38 -4 -8 -5 -5 -8 -13)
1969/12/31/18:00:40.042,(12 26 0 -11 -6 5 10 10)
1969/12/31/18:00:40.044,(21 15 -2 -5 -2 0 5 17)
1969/12/31/18:00:40.044,(-3 5 8 26 9 -3 -7 -11)
1969/12/31/18:00:40.064,(-9 -13 6 21 16 4 1 -1)
1969/12/31/18:00:40.064,(-12 -19 -7 -7 0 3 9 5)
1969/12/31/18:00:40.073,(56 48 10 -2 0 4 8 22)
1969/12/31/18:00:40.073,(-1 27 3 -9 -6 0 1 -7)
1969/12/31/18:00:40.079,(-29 -43 -6 -6 -11 -2 1 -10)
1969/12/31/18:00:40.079,(-28 -62 -9 4 7 5 6 4)
1969/12/31/18:00:40.086,(53 77 2 -3 5 10 20 29)
1969/12/31/18:00:40.086,(4 2 -5 -22 -17 -10 -12 -6)
1969/12/31/18:00:40.102,(1 5 0 -9 -11 -9 -6 -4)
1969/12/31/18:00:40.102,(-12 -5 4 17 8 -2 -1 -6)
1969/12/31/18:00:40.104,(-13 -34 2 16 19 11 12 7)
1969/12/31/18:00:40.104,(19 10 2 10 5 4 6 13)
1969/12/31/18:00:40.125,(-4 -1 -8 -29 -6 0 -2 -6)
1969/12/31/18:00:40.125,(7 17 3 -1 -13 -6 -3 1)
1969/12/31/18:00:40.126,(-9 -13 4 11 6 1 0 0)
1969/12/31/18:00:40.126,(-28 -17 -3 0 -3 -4 -2 -11)
1969/12/31/18:00:40.139,(45 25 2 0 6 4 7 25)
1969/12/31/18:00:40.139,(-19 23 1 -5 -5 -6 -13 -27)
1969/12/31/18:00:40.146,(-23 -30 -6 1 1 -4 -11 -17)
1969/12/31/18:00:40.146,(-5 -15 -6 -3 0 1 -3 -1)
1969/12/31/18:00:40.162,(-5 -21 -1 1 -4 1 6 7)
1969/12/31/18:00:40.162,(15 33 1 -2 -1 -1 -2 4)
1969/12/31/18:00:40.164,(5 14 12 3 4 12 14 6)
1969/12/31/18:00:40.164,(10 3 -3 0 5 2 -4 -2)
1969/12/31/18:00:40.185,(-15 -8 -7 -5 -10 -10 -11 -13)
1969/12/31/18:00:40.185,(8 0 3 -9 -10 -1 4 8)
1969/12/31/18:00:40.186,(-28 -30 -9 4 10 -5 -10 -10)
1969/12/31/18:00:40.186,(21 19 9 8 10 11 9 12)
1969/12/31/18:00:40.198,(12 12 9 2 -6 5 8 10)
1969/12/31/18:00:40.198,(5 -12 0 17 19 0 0 3)
1969/12/31/18:00:40.213,(-21 3 -7 -8 -12 -9 -7 -16)
1969/12/31/18:00:40.213,(20 6 9 4 7 4 11 19)
1969/12/31/18:00:40.222,(-23 0 -8 -8 -7 -17 -32 -32)
1969/12/31/18:00:40.222,(13 -3 -4 -19 -11 4 15 17)
1969/12/31/18:00:40.224,(-3 -21 -15 -6 -10 -11 -15 -6)
1969/12/31/18:00:40.224,(-8 -6 2 2 6 10 18 8)
1969/12/31/18:00:40.245,(-4 2 4 5 2 1 -9 -12)
1969/12/31/18:00:40.245,(-6 -7 -3 -3 -5 -5 -6 -6)
1969/12/31/18:00:40.246,(16 8 7 4 5 7 12 15)
1969/12/31/18:00:40.246,(-4 -11 -7 -9 -9 -7 -9 -6)
1969/12/31/18:00:40.258,(9 6 -4 -3 2 2 6 6)
1969/12/31/18:00:40.258,(-7 -2 4 10 5 2 -3 -7)
1969/12/31/18:00:40.268,(3 -4 -4 -22 -9 1 4 8)
1969/12/31/18:00:40.268,(5 8 3 17 5 2 0 -1)
1969/12/31/18:00:40.282,(-5 2 6 29 13 0 -4 -6)
1969/12/31/18:00:40.282,(22 15 3 4 8 5 9 19)
1969/12/31/18:00:40.284,(12 26 9 4 3 9 13 4)
1969/12/31/18:00:40.284,(-12 -4 -8 -18 -15 -15 -23 -24)
1969/12/31/18:00:40.305,(-4 -10 1 -8 5 5 9 11)
1969/12/31/18:00:40.305,(9 6 -2 1 -6 -3 -2 1)
1969/12/31/18:00:40.306,(12 4 2 0 -3 -2 3 10)
1969/12/31/18:00:40.306,(-5 -3 -3 -4 -1 -4 -8 -8)
1969/12/31/18:00:40.319,(-2 -7 -3 4 4 0 0 1)
1969/12/31/18:00:40.319,(-34 -38 -5 -4 0 3 2 -5)
1969/12/31/18:00:40.328,(36 32 -1 -1 1 1 0 8)
1969/12/31/18:00:40.328,(-4 -4 -2 0 0 -3 -4 -2)
1969/12/31/18:00:40.342,(-2 -1 -3 -8 -10 -3 -1 -5)
1969/12/31/18:00:40.342,(-8 -10 -9 -28 -23 -9 -5 -5)
1969/12/31/18:00:40.344,(-7 -11 -5 12 7 3 4 7)
1969/12/31/18:00:40.344,(-6 5 7 0 8 -1 -12 -19)
1969/12/31/18:00:40.364,(6 1 1 17 9 4 1 5)
1969/12/31/18:00:40.364,(-15 -1 2 8 2 -4 -9 -13)
1969/12/31/18:00:40.373,(-6 -14 -8 -13 -15 -8 3 7)
1969/12/31/18:00:40.373,(20 15 -6 -9 -5 -1 -2 9)
1969/12/31/18:00:40.378,(-9 -17 -1 -7 -6 -3 0 -7)
1969/12/31/18:00:40.378,(20 23 -2 -1 0 -1 -3 3)
1969/12/31/18:00:40.387,(-25 -24 -5 -4 -2 -3 -7 -14)
1969/12/31/18:00:40.387,(3 -1 -1 0 -5 -1 10 13)
1969/12/31/18:00:40.402,(25 23 7 -7 1 9 12 15)
1969/12/31/18:00:40.402,(-5 -6 -4 -4 -1 1 -3 -7)
1969/12/31/18:00:40.408,(-11 -10 2 3 3 -3 -6 -8)
1969/12/31/18:00:40.408,(1 10 7 25 8 2 4 3)
1969/12/31/18:00:40.425,(-1 -3 4 6 1 0 3 6)
1969/12/31/18:00:40.425,(5 14 7 7 15 14 12 0)
1969/12/31/18:00:40.427,(-14 -13 -5 -7 -5 -3 -9 -8)
1969/12/31/18:00:40.427,(-5 -15 0 -11 -10 -6 -1 1)
1969/12/31/18:00:40.439,(-21 -13 -17 -13 -12 -11 -9 -11)
1969/12/31/18:00:40.439,(26 43 16 14 20 22 24 13)
1969/12/31/18:00:40.448,(-6 -23 -7 4 -3 -3 -8 -1)
1969/12/31/18:00:40.448,(-8 -17 -11 -3 -2 -1 -4 -12)
1969/12/31/18:00:40.463,(-11 -19 -7 -6 -6 -7 -11 -11)
1969/12/31/18:00:40.463,(-9 -9 0 -2 -6 -5 -6 -3)
1969/12/31/18:00:40.464,(7 8 5 7 7 3 0 0)
1969/12/31/18:00:40.464,(3 5 2 -16 -5 5 10 9)
1969/12/31/18:00:40.485,(-5 -1 -1 -4 -12 -1 0 1)
1969/12/31/18:00:40.485,(-2 -7 -1 9 7 -11 -11 -7)
1969/12/31/18:00:40.486,(14 15 3 -3 1 7 8 6)
1969/12/31/18:00:40.486,(4 8 13 34 16 4 1 6)
1969/12/31/18:00:40.498,(18 15 5 5 18 9 6 7)
1969/12/31/18:00:40.498,(-15 -18 -6 -5 -10 -6 -7 -9)
1969/12/31/18:00:40.508,(-10 -5 -1 -8 -8 -10 -8 -12)
1969/12/31/18:00:40.508,(0 1 -14 -33 -22 -13 -5 5)
1969/12/31/18:00:40.522,(-36 -6 10 9 6 10 6 -19)
1969/12/31/18:00:40.522,(36 25 4 3 4 2 5 26)
1969/12/31/18:00:40.522,(-3 -1 -11 -12 -8 -9 -16 -17)
1969/12/31/18:00:40.522,(-9 -13 -7 -24 -16 -5 -7 -7)
1969/12/31/18:00:40.552,(-1 -2 -1 17 5 -1 -2 1)
1969/12/31/18:00:40.552,(-17 -12 0 9 6 1 0 -3)
1969/12/31/18:00:40.553,(-6 -1 10 8 5 3 2 0)
1969/12/31/18:00:40.553,(13 18 5 6 9 9 10 9)
1969/12/31/18:00:40.567,(-6 -12 -10 -19 -10 -7 -7 -2)
1969/12/31/18:00:40.567,(-18 -11 -4 -8 -15 -11 -14 -18)
1969/12/31/18:00:40.567,(36 21 6 13 9 15 19 26)
1969/12/31/18:00:40.567,(-4 -6 -2 9 6 0 -3 -4)
1969/12/31/18:00:40.582,(11 19 10 5 8 10 6 7)
1969/12/31/18:00:40.582,(-8 -14 -5 -3 -3 -6 -13 -14)
1969/12/31/18:00:40.583,(-9 -11 0 -7 -8 -6 2 4)
1969/12/31/18:00:40.583,(-17 8 -3 -3 -4 -1 2 -1)
1969/12/31/18:00:40.604,(5 -3 -5 6 6 5 2 -5)
1969/12/31/18:00:40.604,(15 7 -2 -8 -3 -6 -4 1)
1969/12/31/18:00:40.605,(-23 -18 1 3 0 0 -6 -11)
1969/12/31/18:00:40.605,(3 -5 -5 -9 -2 0 1 2)
1969/12/31/18:00:40.627,(9 5 0 0 -3 -6 0 10)
1969/12/31/18:00:40.627,(1 4 4 9 7 5 6 6)
1969/12/31/18:00:40.628,(-9 -9 -1 0 -3 -7 -7 -9)
1969/12/31/18:00:40.628,(11 12 2 -5 -4 1 3 3)
1969/12/31/18:00:40.642,(0 0 -4 -7 -4 -6 -5 -4)
1969/12/31/18:00:40.642,(-3 -8 -3 8 12 2 2 1)
1969/12/31/18:00:40.642,(3 5 5 9 3 1 -2 2)
1969/12/31/18:00:40.642,(-15 -11 4 3 0 -6 -8 -11)
1969/12/31/18:00:40.664,(28 -4 -5 -6 -3 5 18 39)
1969/12/31/18:00:40.664,(-8 14 -3 -8 -6 -4 -15 -29)
1969/12/31/18:00:40.665,(-13 -9 0 0 2 -4 -6 -8)
1969/12/31/18:00:40.665,(-8 -3 -2 1 -5 -4 -7 -8)
1969/12/31/18:00:40.686,(-35 -29 -9 -6 -4 -1 5 -3)
1969/12/31/18:00:40.686,(32 15 3 -1 -1 -2 -3 12)
1969/12/31/18:00:40.687,(-8 -5 -7 -5 -3 -3 -3 -7)
1969/12/31/18:00:40.687,(28 13 4 2 10 10 11 17)
1969/12/31/18:00:40.701,(-12 -4 1 2 0 -2 -5 -9)
1969/12/31/18:00:40.701,(-8 -5 0 -2 -5 0 9 5)
1969/12/31/18:00:40.702,(-1 5 -2 -12 -5 -1 -4 -5)
1969/12/31/18:00:40.702,(-24 -20 -2 10 -2 -10 -11 -12)
1969/12/31/18:00:40.724,(24 23 5 3 10 9 8 11)
1969/12/31/18:00:40.724,(4 2 6 15 8 8 8 7)
1969/12/31/18:00:40.725,(3 0 -1 4 5 -1 -1 -1)
1969/12/31/18:00:40.725,(0 1 -3 -5 -5 -4 -3 0)
1969/12/31/18:00:40.747,(12 11 3 -6 -5 -4 -8 -1)
1969/12/31/18:00:40.747,(-26 -25 -1 -3 -2 2 2 -9)
1969/12/31/18:00:40.748,(-10 14 2 2 0 1 -1 -12)
1969/12/31/18:00:40.748,(43 26 7 2 0 4 10 30)
1969/12/31/18:00:40.762,(-5 11 -1 -4 -5 -13 -17 -20)
1969/12/31/18:00:40.762,(20 -7 -4 -10 0 8 16 24)
1969/12/31/18:00:40.762,(3 -6 -4 4 3 4 5 10)
1969/12/31/18:00:40.762,(-17 -2 4 3 3 2 -2 -14)
1969/12/31/18:00:40.784,(-11 -11 -2 -1 -4 -8 -10 -10)
1969/12/31/18:00:40.784,(4 1 -4 -3 -2 -1 2 6)
1969/12/31/18:00:40.785,(11 7 2 -1 1 9 7 8)
1969/12/31/18:00:40.785,(5 3 -1 3 5 1 1 0)
1969/12/31/18:00:40.807,(-5 -5 -1 -2 -6 -3 -3 -2)
1969/12/31/18:00:40.807,(-10 5 -1 -3 -9 -6 -6 -8)
1969/12/31/18:00:40.808,(3 1 -2 3 4 -4 0 2)
1969/12/31/18:00:40.808,(1 -5 -1 0 5 3 2 2)
1969/12/31/18:00:40.822,(-20 -34 4 28 2 -2 -7 -7)
1969/12/31/18:00:40.822,(28 57 9 -9 2 9 18 24)
1969/12/31/18:00:40.823,(26 9 -3 -6 -4 -3 -12 -5)
1969/12/31/18:00:40.823,(-7 -3 -5 -5 -4 -3 1 -2)
1969/12/31/18:00:40.844,(-19 -7 -9 -11 -5 -8 -9 -14)
1969/12/31/18:00:40.844,(21 2 6 1 -1 -3 -1 10)
1969/12/31/18:00:40.845,(-11 -9 -2 -3 -3 0 4 1)
1969/12/31/18:00:40.845,(0 5 1 -3 -2 3 2 -3)
1969/12/31/18:00:40.867,(4 4 -3 -1 -2 -2 -4 -5)
1969/12/31/18:00:40.867,(-17 -15 -1 7 4 -2 -4 -8)
1969/12/31/18:00:40.868,(1 6 4 6 4 2 4 5)
1969/12/31/18:00:40.868,(0 -4 0 1 0 -1 -3 -2)
1969/12/31/18:00:40.882,(8 9 1 -7 -3 0 3 4)
1969/12/31/18:00:40.882,(-17 -15 -13 -23 -24 -9 -11 -16)
1969/12/31/18:00:40.882,(-3 -3 -1 -14 -3 -5 -1 -2)
1969/12/31/18:00:40.882,(-4 -5 7 43 21 7 -1 0)
1969/12/31/18:00:40.904,(1 -11 7 28 24 5 3 6)
1969/12/31/18:00:40.904,(17 41 6 5 8 11 14 13)
1969/12/31/18:00:40.905,(-14 -12 -15 -21 -24 -20 -22 -17)
1969/12/31/18:00:40.905,(-19 -14 -4 -20 -13 0 -2 -14)
1969/12/31/18:00:40.928,(-12 -21 -7 -11 -8 -5 -5 -1)
1969/12/31/18:00:40.928,(26 24 1 4 2 -1 -2 8)
1969/12/31/18:00:40.928,(-9 -11 -3 -3 -4 -3 -6 -6)
1969/12/31/18:00:40.928,(7 10 -5 -22 -7 -4 2 3)
1969/12/31/18:00:40.942,(5 2 -1 7 4 2 2 1)
1969/12/31/18:00:40.942,(-26 -28 0 -3 1 -4 -5 -10)
1969/12/31/18:00:40.943,(19 20 15 37 24 15 18 18)
1969/12/31/18:00:40.943,(0 0 1 10 2 0 -3 -3)
1969/12/31/18:00:40.964,(0 9 0 -17 -7 1 -1 -4)
1969/12/31/18:00:40.964,(-19 -23 -9 -14 -8 -8 -8 -10)
1969/12/31/18:00:40.965,(1 8 5 7 -2 0 1 0)
1969/12/31/18:00:40.965,(1 -29 -3 1 2 -2 2 10)
1969/12/31/18:00:40.988,(25 47 0 -6 2 3 5 3)
1969/12/31/18:00:40.988,(-28 -25 -5 5 2 -7 -18 -28)
1969/12/31/18:00:40.988,(-11 -9 -1 -18 -11 -4 -3 -11)
1969/12/31/18:00:40.988,(-1 -4 -5 -2 -10 -8 -3 2)
1969/12/31/18:00:41.002,(-1 -4 2 6 5 3 7 9)
1969/12/31/18:00:41.002,(13 -19 5 7 9 6 4 7)
1969/12/31/18:00:41.002,(16 32 -5 -4 -2 -4 -4 2)
1969/12/31/18:00:41.002,(-3 3 -2 -9 -2 1 1 -9)
1969/12/31/18:00:41.024,(6 6 -1 -11 -8 -3 1 0)
1969/12/31/18:00:41.024,(-12 -13 -3 5 -2 2 4 1)
1969/12/31/18:00:41.025,(-14 -21 1 4 2 1 2 0)
1969/12/31/18:00:41.025,(8 14 0 -1 5 2 2 5)
1969/12/31/18:00:41.047,(4 7 9 19 9 2 0 0)
1969/12/31/18:00:41.047,(-4 -3 -1 1 -3 -3 -5 -3)
1969/12/31/18:00:41.048,(3 -6 -4 -4 -2 1 3 6)
1969/12/31/18:00:41.048,(6 16 -2 -5 -5 0 0 2)
1969/12/31/18:00:41.062,(-15 -14 -2 -4 -1 6 7 -3)
1969/12/31/18:00:41.062,(-4 -2 -4 -6 -2 1 2 0)
1969/12/31/18:00:41.063,(-2 -3 -1 -2 1 -2 -2 -3)
1969/12/31/18:00:41.063,(10 12 6 7 7 5 5 6)
1969/12/31/18:00:41.084,(-10 -15 -6 -4 -2 -2 -5 -2)
1969/12/31/18:00:41.084,(46 58 12 3 6 6 15 22)
1969/12/31/18:00:41.085,(-18 -13 -5 -1 -6 -8 -10 -18)
1969/12/31/18:00:41.085,(16 10 5 2 5 10 13 17)
1969/12/31/18:00:41.107,(7 -8 -12 -7 -1 3 1 4)
1969/12/31/18:00:41.107,(-16 -19 -4 -1 -8 -7 -6 -7)
1969/12/31/18:00:41.108,(-4 3 7 11 3 -1 -3 -1)
1969/12/31/18:00:41.108,(12 8 7 14 17 8 8 9)
1969/12/31/18:00:41.122,(4 3 0 -3 -1 -1 1 4)
1969/12/31/18:00:41.122,(-17 -14 -6 -8 -3 -6 -9 -16)
1969/12/31/18:00:41.123,(2 -4 -2 -12 -13 -3 3 2)
1969/12/31/18:00:41.123,(-16 -11 -4 8 3 -8 -10 -10)
1969/12/31/18:00:41.144,(13 11 5 5 4 2 2 6)
1969/12/31/18:00:41.144,(-6 -12 0 6 6 0 -4 -6)
1969/12/31/18:00:41.145,(3 3 -3 -3 -2 2 3 3)
1969/12/31/18:00:41.145,(-17 0 -3 -7 -8 -4 -7 -13)
1969/12/31/18:00:41.167,(29 28 6 -3 -4 0 1 10)
1969/12/31/18:00:41.168,(-5 -10 -2 -3 -10 -6 -5 -3)
1969/12/31/18:00:41.168,(7 -1 -4 -3 2 3 5 12)
1969/12/31/18:00:41.168,(1 -5 8 7 4 6 5 4)
1969/12/31/18:00:41.190,(2 2 -3 -4 1 4 3 3)
1969/12/31/18:00:41.190,(-7 -9 -6 3 0 -1 -1 0)
1969/12/31/18:00:41.191,(-8 -7 1 -1 1 0 -7 -6)
1969/12/31/18:00:41.191,(13 6 -1 -2 0 2 4 8)
1969/12/31/18:00:41.204,(-10 -24 7 0 -7 -8 -2 5)
1969/12/31/18:00:41.204,(7 30 -8 -3 0 -2 -7 -14)
1969/12/31/18:00:41.205,(-17 -18 -8 -3 -2 -7 -10 -16)
1969/12/31/18:00:41.205,(-7 -10 -2 -10 -16 -8 -5 -4)
1969/12/31/18:00:41.227,(-1 5 -2 -1 4 -2 -1 -3)
1969/12/31/18:00:41.227,(-5 -13 1 4 3 4 5 6)
1969/12/31/18:00:41.228,(10 8 5 9 10 6 3 2)
1969/12/31/18:00:41.228,(-10 -7 -6 -5 -9 -9 -11 -15)
1969/12/31/18:00:41.242,(-6 -5 0 -5 -5 1 -1 -5)
1969/12/31/18:00:41.242,(-4 -6 1 -2 -3 -2 -2 3)
1969/12/31/18:00:41.242,(-1 6 1 5 -1 -2 -1 -1)
1969/12/31/18:00:41.242,(-7 -15 -7 -4 -4 -4 -2 -5)
1969/12/31/18:00:41.264,(-4 -1 -3 -2 -1 -1 -3 -5)
1969/12/31/18:00:41.264,(4 2 -6 -21 -19 -8 -4 -3)
1969/12/31/18:00:41.265,(-7 -9 4 16 1 -2 -1 0)
1969/12/31/18:00:41.265,(-13 -7 3 20 23 6 -3 -4)
1969/12/31/18:00:41.287,(9 12 4 11 16 9 7 7)
1969/12/31/18:00:41.287,(8 6 3 -4 1 6 3 4)
1969/12/31/18:00:41.288,(1 0 -3 -21 -8 0 3 1)
1969/12/31/18:00:41.288,(-2 -1 -4 -7 -17 -10 -6 -3)
1969/12/31/18:00:41.302,(-7 -3 -4 -4 -8 -6 -6 -8)
1969/12/31/18:00:41.302,(-11 -17 2 7 10 2 1 1)
1969/12/31/18:00:41.302,(17 23 0 -2 -2 -2 2 11)
1969/12/31/18:00:41.302,(-12 3 3 4 1 -3 -13 -17)
1969/12/31/18:00:41.324,(1 -7 -7 -14 -8 -1 0 -4)
1969/12/31/18:00:41.324,(3 3 2 6 2 -1 3 3)
1969/12/31/18:00:41.325,(7 -2 2 1 2 2 3 6)
1969/12/31/18:00:41.325,(3 0 -3 -7 -2 2 4 7)
1969/12/31/18:00:41.347,(-3 2 -1 -1 -4 -4 -3 -4)
1969/12/31/18:00:41.347,(-7 -9 1 9 2 -4 -6 -5)
1969/12/31/18:00:41.348,(-4 -7 -2 1 8 7 6 -1)
1969/12/31/18:00:41.348,(7 6 2 -6 -4 -1 0 3)
1969/12/31/18:00:41.361,(6 8 5 0 -3 -2 2 4)
1969/12/31/18:00:41.361,(4 4 1 -2 0 -1 2 1)
1969/12/31/18:00:41.369,(-3 -7 -3 -4 -1 0 -1 -2)
1969/12/31/18:00:41.369,(-3 -3 -3 -1 -13 -6 -3 -2)
1969/12/31/18:00:41.384,(-9 -9 -1 7 10 1 -4 -6)
1969/12/31/18:00:41.384,(11 12 7 4 8 10 6 8)
1969/12/31/18:00:41.385,(-7 -8 -1 1 5 0 -1 -4)
1969/12/31/18:00:41.385,(12 11 7 0 3 10 13 12)
1969/12/31/18:00:41.407,(-6 -2 -3 -5 -10 -6 -4 -7)
1969/12/31/18:00:41.407,(-6 0 -6 -4 -5 -6 -4 -6)
1969/12/31/18:00:41.408,(-4 -11 4 2 0 1 7 9)
1969/12/31/18:00:41.408,(-3 -16 -8 -5 -2 -7 -10 -9)
1969/12/31/18:00:41.421,(15 28 0 -1 0 2 5 6)
1969/12/31/18:00:41.421,(-1 -4 1 0 1 1 0 1)
1969/12/31/18:00:41.429,(2 -2 -3 1 0 0 -2 0)
1969/12/31/18:00:41.429,(5 2 1 -3 1 2 5 5)
1969/12/31/18:00:41.444,(-5 -6 -1 -3 -3 0 -3 -1)
1969/12/31/18:00:41.444,(-1 -4 -10 -32 -31 -15 -7 -5)
1969/12/31/18:00:41.445,(-3 5 2 14 5 0 -3 -5)
1969/12/31/18:00:41.445,(-7 0 10 27 32 11 1 -3)
1969/12/31/18:00:41.467,(2 -5 5 19 24 19 12 6)
1969/12/31/18:00:41.467,(13 11 7 2 6 4 6 9)
1969/12/31/18:00:41.468,(-5 -7 -9 -19 -20 -10 -7 -5)
1969/12/31/18:00:41.468,(-2 -1 -10 -20 -19 -11 -4 -5)
1969/12/31/18:00:41.481,(-5 -6 -2 -4 -9 -9 -4 -4)
1969/12/31/18:00:41.481,(-7 -7 -1 6 4 0 -1 -6)
1969/12/31/18:00:41.489,(3 6 1 -3 -2 2 1 -1)
1969/12/31/18:00:41.489,(-7 -9 -5 -2 0 -2 -5 -4)
1969/12/31/18:00:41.504,(-7 -12 -4 -7 -7 -6 -6 -2)
1969/12/31/18:00:41.504,(22 28 13 12 11 16 23 18)
1969/12/31/18:00:41.505,(-4 2 -1 0 1 -5 -11 -13)
1969/12/31/18:00:41.505,(1 1 -1 -6 -2 0 3 5)
1969/12/31/18:00:41.527,(-13 -15 -12 -16 -14 -8 -7 -9)
1969/12/31/18:00:41.527,(-8 -10 -2 13 1 -4 -2 -1)
1969/12/31/18:00:41.528,(18 16 14 22 21 13 10 13)
1969/12/31/18:00:41.528,(-8 -4 3 4 1 0 -2 -10)
1969/12/31/18:00:41.541,(7 5 -3 -20 -14 -2 2 9)
1969/12/31/18:00:41.541,(-5 -7 -6 3 3 -3 -4 -5)
1969/12/31/18:00:41.549,(-6 -4 0 9 7 1 0 -1)
1969/12/31/18:00:41.549,(8 -2 -6 -8 -5 -2 3 8)
1969/12/31/18:00:41.564,(6 16 9 3 3 2 -1 -5)
1969/12/31/18:00:41.564,(-11 -8 -3 -10 -16 -7 -8 -10)
1969/12/31/18:00:41.565,(-10 -9 -4 4 -1 -5 -3 -7)
1969/12/31/18:00:41.565,(-7 -11 0 6 3 -2 -4 1)
1969/12/31/18:00:41.588,(-4 14 0 6 15 11 15 8)
1969/12/31/18:00:41.588,(-2 -4 -2 -5 2 -2 -13 -20)
1969/12/31/18:00:41.588,(-7 3 3 -7 -10 -3 -1 5)
1969/12/31/18:00:41.588,(7 4 -9 -9 -12 -8 -8 -8)
1969/12/31/18:00:41.601,(-11 -17 0 2 -1 -2 -2 -1)
1969/12/31/18:00:41.601,(-14 -11 -2 5 1 -3 -7 -4)
1969/12/31/18:00:41.609,(4 0 0 -9 3 8 11 9)
1969/12/31/18:00:41.609,(-5 -9 -3 -4 -3 -4 -5 -1)
1969/12/31/18:00:41.624,(6 12 9 4 0 3 1 -4)
1969/12/31/18:00:41.624,(-6 -6 -1 0 2 0 -2 0)
1969/12/31/18:00:41.625,(1 1 -2 -6 -5 -4 -5 -4)
1969/12/31/18:00:41.625,(-5 2 1 2 -2 -4 1 0)
1969/12/31/18:00:41.647,(9 -2 -5 4 2 -2 2 5)
1969/12/31/18:00:41.647,(7 4 -1 4 9 9 10 10)
1969/12/31/18:00:41.648,(3 -1 -4 -1 0 2 0 0)
1969/12/31/18:00:41.648,(4 11 5 -3 -2 0 0 1)
1969/12/31/18:00:41.670,(-5 -5 -4 -12 -10 -9 -9 -6)
1969/12/31/18:00:41.670,(-2 -2 -1 -9 -8 -5 -1 -1)
1969/12/31/18:00:41.671,(0 -1 -4 -4 -5 -1 -1 0)
1969/12/31/18:00:41.671,(0 3 7 18 11 7 10 5)
1969/12/31/18:00:41.685,(-2 -3 14 36 12 0 -5 -6)
1969/12/31/18:00:41.685,(0 0 -4 -20 -20 -9 -3 0)
1969/12/31/18:00:41.685,(4 -1 1 -2 -1 -7 -5 -2)
1969/12/31/18:00:41.685,(-3 3 28 73 47 18 8 1)
1969/12/31/18:00:41.707,(0 6 9 25 26 14 4 0)
1969/12/31/18:00:41.707,(11 5 -8 -11 0 5 8 8)
1969/12/31/18:00:41.708,(-5 -10 -41 -89 -43 -8 -4 -3)
1969/12/31/18:00:41.708,(1 -2 -17 -54 -42 -23 -9 -3)
1969/12/31/18:00:41.730,(-6 -12 -27 4 -5 -16 -7 -4)
1969/12/31/18:00:41.730,(0 9 33 50 34 21 11 2)
1969/12/31/18:00:41.731,(4 8 14 27 14 3 1 3)
1969/12/31/18:00:41.731,(5 4 7 12 6 -1 -2 2)
1969/12/31/18:00:41.744,(-10 -19 -36 -29 -18 -7 -6 -8)
1969/12/31/18:00:41.744,(-7 -8 5 -19 -23 -10 -8 -6)
1969/12/31/18:00:41.745,(-4 2 14 24 12 5 6 1)
1969/12/31/18:00:41.745,(4 5 -4 18 11 4 4 4)
1969/12/31/18:00:41.768,(3 11 15 2 3 -4 -4 -1)
1969/12/31/18:00:41.768,(-2 0 -12 -89 -35 1 -1 -1)
1969/12/31/18:00:41.774,(9 9 28 57 3 6 6 3)
1969/12/31/18:00:41.774,(2 3 -7 39 41 7 0 0)
1969/12/31/18:00:41.790,(1 -9 -11 13 -1 -4 0 3)
1969/12/31/18:00:41.790,(-8 -9 -7 6 20 -4 -5 -6)
1969/12/31/18:00:41.791,(-5 -7 -9 -47 -30 -9 -2 -4)
1969/12/31/18:00:41.791,(-1 -1 -4 -48 -37 -6 0 0)
1969/12/31/18:00:41.804,(5 8 21 3 -3 2 0 2)
1969/12/31/18:00:41.804,(0 1 -10 11 6 0 -2 -3)
1969/12/31/18:00:41.805,(-4 -5 -2 -26 -12 -3 -3 -3)
1969/12/31/18:00:41.805,(-4 -2 -11 3 -2 1 3 -1)
1969/12/31/18:00:41.827,(3 4 12 21 12 0 -2 3)
1969/12/31/18:00:41.827,(-4 -4 3 16 -1 -8 -5 -3)
1969/12/31/18:00:41.828,(1 4 1 20 14 0 -2 -1)
1969/12/31/18:00:41.828,(6 10 16 -27 -16 6 6 3)
1969/12/31/18:00:41.850,(5 1 -25 -16 -14 3 3 2)
1969/12/31/18:00:41.850,(1 -4 3 9 9 -6 -5 -1)
1969/12/31/18:00:41.851,(-5 -6 -16 17 18 3 0 -1)
1969/12/31/18:00:41.851,(-9 -10 3 -30 -13 -5 -5 -3)
1969/12/31/18:00:41.864,(-3 5 10 -3 -5 5 3 -1)
1969/12/31/18:00:41.864,(2 4 -1 21 14 -1 -2 0)
1969/12/31/18:00:41.865,(1 0 0 -17 -10 -5 -2 -3)
1969/12/31/18:00:41.865,(5 2 -5 16 10 7 0 1)
1969/12/31/18:00:41.888,(-1 -1 4 -12 -7 -2 1 3)
1969/12/31/18:00:41.888,(2 -1 -10 7 0 0 0 3)
1969/12/31/18:00:41.888,(1 3 8 6 7 2 -2 -1)
1969/12/31/18:00:41.888,(4 -1 -12 -8 -3 -2 0 1)
1969/12/31/18:00:41.910,(-5 -5 -1 -4 -8 -10 -8 -6)
1969/12/31/18:00:41.910,(-2 -4 4 7 10 6 3 0)
1969/12/31/18:00:41.911,(-2 0 4 2 3 5 3 1)
1969/12/31/18:00:41.911,(-2 -4 -10 -2 -3 -5 -3 -2)
1969/12/31/18:00:41.923,(0 1 -1 -17 -3 1 1 0)
1969/12/31/18:00:41.923,(4 3 -2 -7 -15 -8 1 3)
1969/12/31/18:00:41.933,(0 -1 -6 24 9 -2 -2 0)
1969/12/31/18:00:41.933,(-7 -6 17 34 31 11 2 -1)
1969/12/31/18:00:41.955,(-4 1 7 -29 -13 -5 -1 -1)
1969/12/31/18:00:41.955,(2 1 -14 -9 -14 -3 0 -1)
1969/12/31/18:00:41.956,(2 -2 1 2 -1 5 4 3)
1969/12/31/18:00:41.956,(0 1 -5 -25 -16 -4 -3 -2)
1969/12/31/18:00:41.970,(8 6 -3 -7 9 7 5 4)
1969/12/31/18:00:41.970,(3 -2 11 36 4 -5 -1 2)
1969/12/31/18:00:41.972,(-25 -15 0 -35 -8 -12 -14 -18)
1969/12/31/18:00:41.972,(7 6 -10 6 -17 -7 1 6)
1969/12/31/18:00:41.983,(-3 -3 8 11 7 6 -4 -4)
1969/12/31/18:00:41.983,(-4 0 1 -14 3 -6 2 -3)
1969/12/31/18:00:41.992,(14 10 -6 -8 -6 1 7 10)
1969/12/31/18:00:41.992,(1 0 15 60 49 28 6 5)
1969/12/31/18:00:42.007,(-8 -10 -10 -12 1 3 -2 -6)
1969/12/31/18:00:42.007,(-1 -2 -10 -4 -17 -9 -5 -1)
1969/12/31/18:00:42.009,(-7 -2 8 -5 -31 -23 -13 -10)
1969/12/31/18:00:42.009,(0 1 -7 -33 -10 -8 1 1)
1969/12/31/18:00:42.030,(10 5 -1 22 19 19 10 8)
1969/12/31/18:00:42.030,(-3 -3 7 9 29 22 2 -1)
1969/12/31/18:00:42.032,(4 2 -5 -2 14 5 2 3)
1969/12/31/18:00:42.032,(-2 -4 -6 -22 -32 -18 -9 -6)
1969/12/31/18:00:42.043,(-6 0 7 2 -10 -12 -7 -7)
1969/12/31/18:00:42.043,(2 -5 -10 -5 -9 -6 4 2)
1969/12/31/18:00:42.052,(0 -2 3 9 7 3 3 0)
1969/12/31/18:00:42.052,(-8 2 12 4 -7 -8 -3 -6)
1969/12/31/18:00:42.075,(16 -5 -22 0 7 1 13 16)
1969/12/31/18:00:42.075,(-3 3 -2 -5 -5 -1 -3 -5)
1969/12/31/18:00:42.077,(-1 -1 -2 13 6 3 -3 -2)
1969/12/31/18:00:42.077,(-13 -7 -1 -13 -5 -2 -5 -9)
1969/12/31/18:00:42.090,(-10 -1 8 -2 -9 -8 -8 -11)
1969/12/31/18:00:42.090,(8 6 -4 0 0 6 4 7)
1969/12/31/18:00:42.091,(-1 -2 -2 5 9 6 -1 0)
1969/12/31/18:00:42.091,(-4 -2 3 -3 -2 -3 -2 -3)
1969/12/31/18:00:42.104,(2 0 -9 -8 -7 -2 0 1)
1969/12/31/18:00:42.104,(1 0 2 9 2 2 -3 2)
1969/12/31/18:00:42.120,(3 3 3 4 7 4 0 2)
1969/12/31/18:00:42.120,(4 -2 -7 -17 -11 -2 -1 3)
1969/12/31/18:00:42.127,(0 0 4 1 -10 -6 -4 -2)
1969/12/31/18:00:42.127,(1 4 6 7 6 5 2 0)
1969/12/31/18:00:42.129,(0 1 -1 1 3 -2 0 2)
1969/12/31/18:00:42.129,(6 1 -8 -17 -23 -5 -1 2)
1969/12/31/18:00:42.150,(-5 -5 5 6 27 7 2 -1)
1969/12/31/18:00:42.150,(-2 -1 -9 -18 -16 -11 -5 -1)
1969/12/31/18:00:42.151,(2 2 7 16 7 -1 5 4)
1969/12/31/18:00:42.151,(0 2 10 29 23 9 2 -3)
1969/12/31/18:00:42.163,(-4 1 9 9 -1 2 -1 -2)
1969/12/31/18:00:42.163,(-2 1 -3 -8 -6 -4 0 -3)
1969/12/31/18:00:42.173,(0 -6 -12 -14 -6 -6 -1 -3)
1969/12/31/18:00:42.173,(-9 -6 -8 -18 -18 -10 -2 -10)
1969/12/31/18:00:42.187,(-8 -7 -3 -8 -15 -8 -6 -6)
1969/12/31/18:00:42.187,(14 7 2 4 8 6 6 14)
1969/12/31/18:00:42.189,(-3 -1 -3 -1 -6 -2 -4 -5)
1969/12/31/18:00:42.189,(0 -2 -5 -2 2 2 -1 0)
1969/12/31/18:00:42.210,(-3 2 2 0 -1 -1 -1 -3)
1969/12/31/18:00:42.210,(-5 -2 3 7 4 0 -3 -5)
1969/12/31/18:00:42.211,(3 1 1 2 -3 0 2 2)
1969/12/31/18:00:42.211,(10 5 -3 0 6 6 8 9)
1969/12/31/18:00:42.224,(0 -2 -3 0 3 3 1 1)
1969/12/31/18:00:42.224,(-2 0 3 -2 -6 -2 -2 -2)
1969/12/31/18:00:42.233,(-1 -1 -2 -1 1 3 2 -1)
1969/12/31/18:00:42.233,(-4 -2 0 -2 -7 -2 -7 -5)
1969/12/31/18:00:42.247,(1 -3 0 5 17 -2 0 0)
1969/12/31/18:00:42.247,(-5 -2 2 3 0 -3 -5 -8)
1969/12/31/18:00:42.249,(0 -2 -2 0 2 2 3 0)
1969/12/31/18:00:42.249,(1 0 -1 -2 0 2 3 6)
1969/12/31/18:00:42.270,(2 2 1 -4 -9 -3 -2 0)
1969/12/31/18:00:42.270,(-7 -4 3 3 2 2 0 -2)
1969/12/31/18:00:42.272,(9 4 -4 0 4 6 6 9)
1969/12/31/18:00:42.272,(2 0 -3 -3 -3 -3 -3 -2)
1969/12/31/18:00:42.283,(2 2 1 1 -6 -1 0 3)
1969/12/31/18:00:42.283,(-2 0 1 2 4 0 -5 -4)
1969/12/31/18:00:42.293,(-3 -1 -2 -2 -6 -4 -2 -4)
1969/12/31/18:00:42.293,(0 -1 1 2 3 0 0 -1)
1969/12/31/18:00:42.306,(-2 -2 -2 0 0 2 -2 -1)
1969/12/31/18:00:42.306,(-3 -2 0 1 -3 -1 -2 -4)
1969/12/31/18:00:42.315,(-1 1 2 -1 -2 1 -3 -2)
1969/12/31/18:00:42.315,(4 0 -1 0 4 4 11 16)
1969/12/31/18:00:42.330,(-1 -2 -2 -3 -6 -5 -3 -4)
1969/12/31/18:00:42.330,(-1 0 0 0 1 1 -2 -1)
1969/12/31/18:00:42.332,(-1 -1 0 -1 -1 -1 -1 -3)
1969/12/31/18:00:42.332,(-3 -1 1 0 4 -2 -6 -3)
1969/12/31/18:00:42.344,(2 2 2 -1 -6 -5 2 -1)
1969/12/31/18:00:42.344,(-1 -1 -1 -1 -1 2 2 3)
1969/12/31/18:00:42.353,(5 1 -2 -1 2 1 2 0)
1969/12/31/18:00:42.353,(-2 -1 -1 0 0 -1 1 -2)
1969/12/31/18:00:42.368,(0 -2 0 1 0 0 0 0)
1969/12/31/18:00:42.368,(-4 -1 -1 -2 -2 -4 -4 -5)
1969/12/31/18:00:42.369,(-1 0 2 0 -2 0 0 0)
1969/12/31/18:00:42.369,(0 -1 0 -2 -1 -3 -3 -3)
1969/12/31/18:00:42.398,(-1 0 -1 -2 -2 0 0 0)
1969/12/31/18:00:42.398,(4 2 1 1 1 -1 3 2)
1969/12/31/18:00:42.399,(-2 -1 1 0 -1 -1 0 0)
1969/12/31/18:00:42.399,(-1 0 -2 0 0 -3 -1 -4)
1969/12/31/18:00:42.404,(-4 -1 -2 -2 -2 -2 -2 -3)
1969/12/31/18:00:42.404,(1 -1 -2 0 2 1 1 5)
1969/12/31/18:00:42.413,(-2 -1 -1 0 0 0 -1 -1)
1969/12/31/18:00:42.413,(-2 -1 -2 -3 0 -3 -6 -6)
1969/12/31/18:00:42.427,(0 -1 -2 1 -1 0 0 0)
1969/12/31/18:00:42.427,(0 0 0 0 -1 -1 -1 -1)
1969/12/31/18:00:42.435,(-3 -2 -1 0 -1 -1 -1 -2)
1969/12/31/18:00:42.435,(-1 -1 0 0 3 1 -1 -1)
1969/12/31/18:00:42.450,(-1 0 -1 0 -2 0 1 3)
1969/12/31/18:00:42.450,(2 1 -2 -2 -1 1 1 2)
1969/12/31/18:00:42.452,(-2 -1 -1 0 -1 -1 -2 0)
1969/12/31/18:00:42.452,(-1 -1 -2 -1 -2 -3 -2 -2)
1969/12/31/18:00:42.473,(-1 0 0 0 0 1 0 -1)
1969/12/31/18:00:42.473,(-1 0 0 0 -2 -1 0 0)
1969/12/31/18:00:42.474,(-2 0 0 0 -1 -3 -1 -1)
1969/12/31/18:00:42.474,(-3 -3 0 -2 -2 0 0 0)
1969/12/31/18:00:42.488,(1 -1 -2 -1 1 0 3 0)
1969/12/31/18:00:42.488,(0 -1 0 0 1 1 4 1)
1969/12/31/18:00:42.489,(-1 -2 -3 -1 -1 -2 -4 -4)
1969/12/31/18:00:42.489,(-2 1 1 1 -1 -1 1 -2)
