time,.data
1969/12/31/18:00:25.701,(5 -4 -4 -6 0 -2 -2 -1)
1969/12/31/18:00:25.701,(-12 -7 -16 2 -3 -3 -5 -6)
1969/12/31/18:00:25.709,(8 5 14 13 7 4 2 -1)
1969/12/31/18:00:25.709,(7 -8 -31 -51 -16 -2 -1 6)
1969/12/31/18:00:25.724,(-9 0 0 16 3 -5 -1 0)
1969/12/31/18:00:25.724,(-4 1 22 17 6 10 5 0)
1969/12/31/18:00:25.725,(-8 -12 -21 -21 -7 -3 -7 -3)
1969/12/31/18:00:25.725,(-4 7 4 39 12 1 -1 -5)
1969/12/31/18:00:25.755,(-8 1 32 -6 0 4 -5 -19)
1969/12/31/18:00:25.755,(2 -5 -5 31 -4 -8 -4 -2)
1969/12/31/18:00:25.755,(-6 -4 -64 -63 -12 -2 0 0)
1969/12/31/18:00:25.755,(7 3 43 19 1 1 3 2)
1969/12/31/18:00:25.761,(12 12 8 38 10 2 2 9)
1969/12/31/18:00:25.761,(2 4 15 -7 -3 0 2 1)
1969/12/31/18:00:25.785,(-8 -10 -17 -17 -8 -4 -2 -2)
1969/12/31/18:00:25.785,(-10 -16 -35 -50 -15 -7 -7 -10)
1969/12/31/18:00:25.792,(-1 6 13 3 4 1 -1 -1)
1969/12/31/18:00:25.792,(6 4 -7 8 1 3 1 1)
1969/12/31/18:00:25.793,(7 7 42 24 4 1 3 6)
1969/12/31/18:00:25.793,(-11 -9 -3 23 0 -3 -4 -9)
1969/12/31/18:00:25.807,(-6 -11 -51 -46 -13 -3 -2 -1)
1969/12/31/18:00:25.807,(6 14 28 -7 1 1 0 2)
1969/12/31/18:00:25.807,(6 5 23 22 5 1 1 2)
1969/12/31/18:00:25.807,(-6 -5 -7 -33 -7 -3 -4 -6)
1969/12/31/18:00:25.821,(-3 -10 -7 27 -4 -1 0 -1)
1969/12/31/18:00:25.821,(-1 -5 -17 -16 -3 -2 -3 -2)
1969/12/31/18:00:25.829,(-1 -8 -24 -25 -4 0 3 5)
1969/12/31/18:00:25.829,(-1 7 10 41 1 -6 -13 -14)
1969/12/31/18:00:25.844,(3 1 4 18 12 9 7 8)
1969/12/31/18:00:25.844,(-6 -9 -28 -45 -15 -11 -12 -6)
1969/12/31/18:00:25.845,(1 3 1 34 12 5 4 0)
1969/12/31/18:00:25.845,(7 12 11 -35 -7 4 12 14)
1969/12/31/18:00:25.867,(-8 -8 -6 19 -1 -6 -10 -13)
1969/12/31/18:00:25.867,(-2 -3 5 17 0 1 2 1)
1969/12/31/18:00:25.868,(-4 -10 -21 -39 -15 -7 -10 -4)
1969/12/31/18:00:25.868,(-8 -20 -65 -66 -9 1 2 2)
1969/12/31/18:00:25.881,(6 22 15 12 9 -4 -9 -14)
1969/12/31/18:00:25.881,(8 19 66 77 22 6 5 3)
1969/12/31/18:00:25.889,(-2 -5 -1 -27 -6 0 2 4)
1969/12/31/18:00:25.889,(-6 -6 5 24 4 -1 -5 -5)
1969/12/31/18:00:25.904,(-3 -7 -24 -29 -11 -3 2 1)
1969/12/31/18:00:25.904,(-2 0 7 -6 2 -2 0 0)
1969/12/31/18:00:25.905,(4 3 11 22 1 -4 -3 -3)
1969/12/31/18:00:25.905,(-1 3 14 26 11 4 -3 -3)
1969/12/31/18:00:25.927,(-8 -28 -45 -68 -22 -2 9 10)
1969/12/31/18:00:25.927,(4 5 3 -4 2 -7 -13 -13)
1969/12/31/18:00:25.927,(2 9 17 25 3 0 -6 -7)
1969/12/31/18:00:25.927,(-3 1 -7 -10 -5 -2 -5 -6)
1969/12/31/18:00:25.941,(3 11 26 36 8 0 6 10)
1969/12/31/18:00:25.941,(-4 -5 -24 -33 -11 1 1 1)
1969/12/31/18:00:25.949,(1 3 1 10 1 0 2 3)
1969/12/31/18:00:25.949,(2 5 -8 4 -1 -2 0 0)
1969/12/31/18:00:25.964,(-2 -4 7 -16 -3 -1 -4 -3)
1969/12/31/18:00:25.964,(-3 -9 -28 -6 -7 -3 4 3)
1969/12/31/18:00:25.965,(0 -2 10 -3 2 0 -2 -3)
1969/12/31/18:00:25.965,(0 -3 -12 2 0 1 2 3)
1969/12/31/18:00:25.987,(17 64 81 34 9 4 3 2)
1969/12/31/18:00:25.987,(-4 -12 -19 -17 -6 -3 -1 0)
1969/12/31/18:00:25.987,(-11 -60 -48 -13 -9 -5 1 1)
1969/12/31/18:00:25.987,(-7 -37 -16 -2 0 -1 1 0)
1969/12/31/18:00:26.001,(-5 -4 -17 4 1 0 -6 -7)
1969/12/31/18:00:26.001,(20 53 35 15 4 5 6 8)
1969/12/31/18:00:26.009,(-4 -3 7 6 0 2 0 -3)
1969/12/31/18:00:26.009,(3 -23 -9 9 -1 -2 -1 1)
1969/12/31/18:00:26.024,(-20 -55 -42 -25 -8 0 -1 0)
1969/12/31/18:00:26.024,(-9 -18 -13 -8 -4 -2 -3 -1)
1969/12/31/18:00:26.025,(0 8 0 6 0 -2 0 2)
1969/12/31/18:00:26.025,(-4 4 8 6 2 0 0 -3)
1969/12/31/18:00:26.047,(3 10 12 3 0 -2 0 1)
1969/12/31/18:00:26.047,(-1 -8 -9 -9 -3 -2 8 9)
1969/12/31/18:00:26.048,(2 14 17 8 5 0 -6 -11)
1969/12/31/18:00:26.048,(2 17 12 6 2 0 3 6)
1969/12/31/18:00:26.070,(19 -2 8 -5 -2 -3 -8 -3)
1969/12/31/18:00:26.070,(-14 -25 -23 -7 -3 -2 -7 -9)
1969/12/31/18:00:26.071,(-13 -4 -4 -6 -3 -3 -2 -3)
1969/12/31/18:00:26.071,(-3 13 14 5 2 1 3 3)
1969/12/31/18:00:26.084,(23 10 -2 -4 0 3 11 10)
1969/12/31/18:00:26.084,(-7 -1 -4 -3 1 4 2 7)
1969/12/31/18:00:26.085,(-28 -4 1 0 -3 -6 -6 -15)
1969/12/31/18:00:26.085,(25 28 17 9 3 -1 -2 2)
1969/12/31/18:00:26.107,(-2 -9 -8 -6 -5 -4 2 -4)
1969/12/31/18:00:26.107,(5 -3 -6 -4 -3 -2 -4 -3)
1969/12/31/18:00:26.108,(-32 3 8 3 3 1 -3 -9)
1969/12/31/18:00:26.108,(7 -5 -1 -2 -2 0 3 1)
1969/12/31/18:00:26.130,(12 12 2 -4 1 1 -1 5)
1969/12/31/18:00:26.130,(-30 -25 -14 -11 -9 -7 -10 -26)
1969/12/31/18:00:26.131,(34 10 5 4 3 1 10 45)
1969/12/31/18:00:26.131,(-14 -4 0 -4 -5 0 4 -8)
1969/12/31/18:00:26.144,(-10 9 11 7 3 -10 -25 -14)
1969/12/31/18:00:26.144,(-12 -3 -10 -5 -3 -8 -10 -46)
1969/12/31/18:00:26.145,(24 1 2 1 6 21 -9 37)
1969/12/31/18:00:26.145,(-37 -2 3 2 -3 -19 -4 3)
1969/12/31/18:00:26.167,(41 17 -2 -2 -1 0 -3 -12)
1969/12/31/18:00:26.167,(36 -1 -7 -3 -1 -3 8 33)
1969/12/31/18:00:26.167,(-5 3 1 -2 -2 -5 1 -14)
1969/12/31/18:00:26.167,(7 0 4 5 3 11 1 -3)
1969/12/31/18:00:26.190,(-67 -33 -5 -1 -2 -2 -1 4)
1969/12/31/18:00:26.190,(29 31 6 5 2 0 -1 0)
1969/12/31/18:00:26.191,(6 -2 -10 -9 -6 1 12 0)
1969/12/31/18:00:26.191,(7 -6 2 3 2 5 0 10)
1969/12/31/18:00:26.204,(-43 -10 -2 -3 -1 -4 -8 -55)
1969/12/31/18:00:26.204,(19 4 2 -3 -2 7 0 4)
1969/12/31/18:00:26.205,(19 -5 0 4 1 -12 3 26)
1969/12/31/18:00:26.205,(-27 -12 -7 -5 -2 1 1 -31)
1969/12/31/18:00:26.227,(7 -10 -10 -6 -6 -6 4 0)
1969/12/31/18:00:26.227,(-15 2 3 0 -1 1 5 11)
1969/12/31/18:00:26.228,(-3 -1 1 -1 -1 -4 -4 -24)
1969/12/31/18:00:26.228,(18 20 15 15 11 11 3 12)
1969/12/31/18:00:26.250,(-23 -3 -5 -4 -2 -9 -11 -47)
1969/12/31/18:00:26.250,(32 -3 -10 -5 -2 5 7 28)
1969/12/31/18:00:26.251,(-29 -5 -2 -2 -2 -8 -8 -21)
1969/12/31/18:00:26.251,(-35 -11 2 1 0 -4 -12 -41)
1969/12/31/18:00:26.264,(5 -5 3 5 5 11 5 30)
1969/12/31/18:00:26.264,(-10 9 -2 -5 -3 -6 -1 2)
1969/12/31/18:00:26.265,(12 4 4 -1 -2 2 10 7)
1969/12/31/18:00:26.265,(-1 -10 -6 -2 -3 -2 26 -12)
1969/12/31/18:00:26.287,(-4 -15 -10 -7 -4 -10 -47 -6)
1969/12/31/18:00:26.287,(-3 -3 5 2 3 -4 25 12)
1969/12/31/18:00:26.287,(3 -17 -13 -6 -5 9 -15 -6)
1969/12/31/18:00:26.287,(-16 15 8 3 3 5 -13 -25)
1969/12/31/18:00:26.310,(41 2 -8 -8 -7 -5 26 34)
1969/12/31/18:00:26.310,(0 6 5 2 3 0 -4 31)
1969/12/31/18:00:26.311,(-39 -21 -4 -1 0 -1 -7 -44)
1969/12/31/18:00:26.311,(-15 -10 -7 -4 -5 -9 -21 -12)
1969/12/31/18:00:26.324,(45 24 5 -1 0 4 19 26)
1969/12/31/18:00:26.324,(26 39 12 4 -2 -6 -28 -21)
1969/12/31/18:00:26.325,(27 9 6 6 4 -4 0 -1)
1969/12/31/18:00:26.325,(-5 -6 0 -1 -2 1 1 25)
1969/12/31/18:00:26.347,(-48 -18 -4 3 5 9 -3 -22)
1969/12/31/18:00:26.347,(-9 -16 -9 -5 -6 -6 6 12)
1969/12/31/18:00:26.348,(24 26 10 4 2 -3 4 8)
1969/12/31/18:00:26.348,(34 20 4 0 2 20 -4 27)
1969/12/31/18:00:26.371,(-25 -35 -5 0 -2 -28 13 20)
1969/12/31/18:00:26.371,(-17 1 2 1 4 34 18 -18)
1969/12/31/18:00:26.371,(-6 -20 -5 -1 6 10 19 34)
1969/12/31/18:00:26.371,(48 18 -4 -6 -8 -19 -40 -1)
1969/12/31/18:00:26.384,(10 21 12 3 0 0 -7 -8)
1969/12/31/18:00:26.384,(-29 -28 -6 -2 -3 -5 -5 -21)
1969/12/31/18:00:26.385,(-14 18 5 -1 0 1 5 -22)
1969/12/31/18:00:26.385,(-6 -9 1 4 4 6 8 6)
1969/12/31/18:00:26.407,(5 -1 -6 -6 -8 -2 -13 -7)
1969/12/31/18:00:26.407,(-11 -25 -5 -1 3 -4 7 -3)
1969/12/31/18:00:26.407,(51 19 -7 -5 -6 -1 -1 32)
1969/12/31/18:00:26.407,(-31 17 4 1 1 -1 -16 -88)
1969/12/31/18:00:26.430,(-8 -21 -9 -8 -9 -10 -4 0)
1969/12/31/18:00:26.430,(11 10 -10 -8 0 23 -2 -26)
1969/12/31/18:00:26.431,(-30 3 7 3 -2 -11 -9 -5)
1969/12/31/18:00:26.431,(-13 -20 -3 -2 -4 -2 11 14)
1969/12/31/18:00:26.444,(1 1 -5 -2 -3 -7 10 -17)
1969/12/31/18:00:26.444,(-29 -7 12 8 7 -10 -12 -5)
1969/12/31/18:00:26.445,(-2 -3 -1 1 1 2 -25 -42)
1969/12/31/18:00:26.445,(49 10 -5 -9 -10 -5 17 57)
1969/12/31/18:00:26.467,(-57 -10 4 2 4 13 14 -12)
1969/12/31/18:00:26.467,(6 -14 -19 -10 -6 -5 -6 23)
1969/12/31/18:00:26.467,(-1 -1 0 -3 -6 -19 13 14)
1969/12/31/18:00:26.467,(-10 5 4 1 -1 2 -8 -28)
1969/12/31/18:00:26.490,(-9 -2 5 4 4 13 2 -7)
1969/12/31/18:00:26.490,(31 16 8 6 1 -1 18 32)
1969/12/31/18:00:26.490,(48 -19 -22 -15 -15 -20 -27 54)
1969/12/31/18:00:26.490,(22 2 -7 -6 -2 -16 16 33)
1969/12/31/18:00:26.505,(41 24 18 13 10 15 17 38)
1969/12/31/18:00:26.505,(-6 -19 -9 -6 -3 6 2 10)
1969/12/31/18:00:26.505,(-16 -5 3 2 2 3 6 -14)
1969/12/31/18:00:26.505,(10 24 13 5 0 -10 -7 0)
1969/12/31/18:00:26.527,(21 -15 -17 -7 0 11 4 18)
1969/12/31/18:00:26.527,(-53 -15 -5 -5 -7 -18 -24 -17)
1969/12/31/18:00:26.528,(45 17 3 2 1 12 22 37)
1969/12/31/18:00:26.528,(-21 -7 0 5 6 11 18 6)
1969/12/31/18:00:26.550,(-21 -14 -10 -7 -3 -5 -17 -35)
1969/12/31/18:00:26.550,(-15 -4 4 2 0 -11 -14 -18)
1969/12/31/18:00:26.551,(-28 0 5 1 4 13 12 -22)
1969/12/31/18:00:26.551,(-21 -10 -12 -7 -6 -11 -24 -46)
1969/12/31/18:00:26.564,(28 19 2 -1 -5 -6 -1 17)
1969/12/31/18:00:26.564,(-11 -14 -8 -3 -1 2 11 5)
1969/12/31/18:00:26.565,(-29 5 8 4 2 -4 -29 -41)
1969/12/31/18:00:26.565,(-2 -18 -2 0 0 2 31 43)
1969/12/31/18:00:26.587,(-11 5 3 2 3 9 -8 -2)
1969/12/31/18:00:26.587,(82 23 6 1 -2 -12 18 68)
1969/12/31/18:00:26.587,(16 -3 -1 -3 -1 2 2 3)
1969/12/31/18:00:26.587,(11 10 2 -1 2 3 4 -1)
1969/12/31/18:00:26.618,(-4 -1 -4 -5 -2 0 3 20)
1969/12/31/18:00:26.618,(-35 11 15 12 8 7 -14 -41)
1969/12/31/18:00:26.618,(34 12 -5 -4 -4 11 28 25)
1969/12/31/18:00:26.618,(-5 -22 -13 -10 -10 -13 -11 3)
1969/12/31/18:00:26.632,(11 15 8 3 5 0 6 9)
1969/12/31/18:00:26.632,(-20 -11 -4 -2 1 6 -8 -17)
1969/12/31/18:00:26.633,(-47 -19 -5 -3 -2 -7 -10 -34)
1969/12/31/18:00:26.633,(26 -2 0 0 1 5 14 52)
1969/12/31/18:00:26.647,(10 8 4 0 2 5 18 23)
1969/12/31/18:00:26.647,(-7 6 5 0 -2 -5 -19 -9)
1969/12/31/18:00:26.647,(-8 -4 1 1 0 3 15 0)
1969/12/31/18:00:26.647,(-13 -9 -9 -9 -7 -13 -15 -16)
1969/12/31/18:00:26.670,(12 8 8 5 -1 -13 -10 17)
1969/12/31/18:00:26.670,(11 -2 0 0 5 4 29 -5)
1969/12/31/18:00:26.670,(24 2 -3 -5 -6 -16 -10 5)
1969/12/31/18:00:26.670,(38 4 -1 0 0 3 -8 36)
1969/12/31/18:00:26.683,(-34 -8 4 23 36 17 -12 -62)
1969/12/31/18:00:26.683,(-28 -5 -6 -5 -21 -34 -28 -77)
1969/12/31/18:00:26.691,(-11 0 -10 -30 -13 48 11 38)
1969/12/31/18:00:26.692,(16 -2 -4 -9 -10 -31 37 -41)
1969/12/31/18:00:26.707,(-1 -1 1 -5 -17 -20 -74 -28)
1969/12/31/18:00:26.707,(27 7 0 8 16 16 18 38)
1969/12/31/18:00:26.707,(-11 -6 -1 9 8 -17 -5 -14)
1969/12/31/18:00:26.707,(-29 -9 -1 -1 -2 3 -6 -10)
1969/12/31/18:00:26.730,(5 9 -1 -3 1 6 -1 -14)
1969/12/31/18:00:26.730,(-8 0 3 1 7 19 -5 -22)
1969/12/31/18:00:26.731,(18 19 2 3 -7 5 -14 9)
1969/12/31/18:00:26.731,(0 -21 -8 -13 -18 -9 -31 37)
1969/12/31/18:00:26.744,(-43 -23 -18 -23 -35 -31 -56 -81)
1969/12/31/18:00:26.744,(35 11 3 1 31 34 13 20)
1969/12/31/18:00:26.752,(-36 -14 -1 8 -15 -18 -11 -27)
1969/12/31/18:00:26.752,(0 13 3 -10 0 -15 -16 -11)
1969/12/31/18:00:26.767,(6 4 5 6 6 34 68 50)
1969/12/31/18:00:26.767,(-33 -3 -3 -2 2 -5 -14 -29)
1969/12/31/18:00:26.768,(-1 15 17 21 37 -5 -13 -17)
1969/12/31/18:00:26.768,(-30 -4 -5 -6 -14 9 -39 -46)
1969/12/31/18:00:26.790,(-9 -10 -6 -8 -15 -20 18 3)
1969/12/31/18:00:26.790,(-11 7 3 8 5 -7 -7 -35)
1969/12/31/18:00:26.791,(14 -10 2 0 -2 -5 13 31)
1969/12/31/18:00:26.791,(17 -5 -2 -6 0 28 28 15)
1969/12/31/18:00:26.804,(8 -2 -2 1 25 39 30 15)
1969/12/31/18:00:26.804,(-15 -19 -10 -12 -42 -53 -18 4)
1969/12/31/18:00:26.812,(3 12 7 3 -7 -35 -23 -8)
1969/12/31/18:00:26.812,(0 2 -5 0 23 36 27 -10)
1969/12/31/18:00:26.827,(-3 -6 -6 5 7 -19 -5 12)
1969/12/31/18:00:26.827,(-4 -9 1 0 -31 -16 -14 -8)
1969/12/31/18:00:26.828,(-2 -24 -13 -9 -5 1 19 14)
1969/12/31/18:00:26.828,(-18 10 10 18 12 2 -2 -35)
1969/12/31/18:00:26.850,(103 24 -3 -8 -5 4 25 92)
1969/12/31/18:00:26.850,(0 -19 -16 -14 -5 10 0 8)
1969/12/31/18:00:26.851,(-12 -3 -3 -7 -8 -1 -10 -15)
1969/12/31/18:00:26.851,(-24 -25 -20 3 15 7 -8 -16)
1969/12/31/18:00:26.863,(14 -8 -19 0 38 -3 3 14)
1969/12/31/18:00:26.863,(22 45 27 -6 -23 10 11 -7)
1969/12/31/18:00:26.872,(38 11 43 17 4 21 12 9)
1969/12/31/18:00:26.872,(-20 8 -24 -4 -4 1 6 0)
1969/12/31/18:00:26.895,(-48 -24 -4 -2 -15 -22 -32 -58)
1969/12/31/18:00:26.895,(4 7 -18 -9 3 -21 -4 -24)
1969/12/31/18:00:26.896,(0 32 40 22 30 33 1 -7)
1969/12/31/18:00:26.896,(-22 -82 -80 -26 -23 -1 -2 -22)
1969/12/31/18:00:26.910,(-12 -4 -13 -7 -26 -30 -7 4)
1969/12/31/18:00:26.910,(5 41 46 11 21 40 26 54)
1969/12/31/18:00:26.911,(17 -40 -66 -17 0 -30 6 5)
1969/12/31/18:00:26.911,(18 48 38 -3 -10 -5 -21 17)
1969/12/31/18:00:26.924,(-17 -70 -21 -5 -4 44 23 10)
1969/12/31/18:00:26.924,(-27 -46 -77 -35 -1 -1 -13 -3)
1969/12/31/18:00:26.932,(38 73 107 53 29 11 17 40)
1969/12/31/18:00:26.932,(25 25 -45 -18 -9 -27 2 12)
1969/12/31/18:00:26.947,(30 112 127 57 9 -16 6 21)
1969/12/31/18:00:26.947,(-20 -94 -89 -32 -22 -3 -9 26)
1969/12/31/18:00:26.947,(-59 -79 -90 -30 0 -9 -9 -27)
1969/12/31/18:00:26.947,(1 24 92 14 -16 -7 -14 -19)
1969/12/31/18:00:26.969,(71 67 -57 -36 -23 -9 13 27)
1969/12/31/18:00:26.969,(12 127 127 108 46 20 12 -5)
1969/12/31/18:00:26.977,(-41 -112 -128 -48 -22 3 4 -21)
1969/12/31/18:00:26.977,(-44 -40 -58 13 25 -2 -20 -39)
1969/12/31/18:00:26.992,(-45 -88 -55 -35 -33 -54 -28 -16)
1969/12/31/18:00:26.992,(46 67 56 -1 4 33 -11 -58)
1969/12/31/18:00:26.994,(-6 3 -12 -3 6 25 -6 -18)
1969/12/31/18:00:26.994,(51 66 23 9 5 -5 26 89)
1969/12/31/18:00:27.006,(-116 48 94 38 12 7 -21 -101)
1969/12/31/18:00:27.006,(59 23 17 22 21 -36 -14 13)
1969/12/31/18:00:27.015,(-79 -17 11 -15 -33 -9 -21 -71)
1969/12/31/18:00:27.015,(-39 -128 -94 -56 -24 4 24 14)
1969/12/31/18:00:27.030,(63 18 -54 -42 2 18 13 37)
1969/12/31/18:00:27.030,(-21 98 91 52 27 17 29 31)
1969/12/31/18:00:27.031,(46 70 53 33 3 -1 -10 -22)
1969/12/31/18:00:27.031,(15 -78 -25 11 3 -7 6 46)
1969/12/31/18:00:27.053,(11 -71 -100 -31 -8 15 14 44)
1969/12/31/18:00:27.053,(-28 -97 -101 -48 -19 -21 -26 -39)
1969/12/31/18:00:27.054,(47 83 62 16 -4 -26 -19 -34)
1969/12/31/18:00:27.054,(-29 -48 -42 -5 17 27 19 -8)
1969/12/31/18:00:27.066,(3 -23 40 9 -6 4 -5 53)
1969/12/31/18:00:27.066,(24 27 27 19 25 -9 -12 -39)
1969/12/31/18:00:27.075,(-20 -9 7 -15 -56 -11 -1 2)
1969/12/31/18:00:27.075,(2 -18 -17 6 -6 -22 -14 10)
1969/12/31/18:00:27.090,(-18 47 -13 -1 -3 0 -14 -38)
1969/12/31/18:00:27.090,(-13 -32 -21 -15 15 49 30 36)
1969/12/31/18:00:27.091,(0 31 9 4 21 -11 -21 -5)
1969/12/31/18:00:27.091,(32 66 70 28 12 15 6 -5)
1969/12/31/18:00:27.112,(-40 -128 -82 -16 -11 -16 -2 -12)
1969/12/31/18:00:27.112,(-51 -117 -97 -44 -34 -31 -22 -3)
1969/12/31/18:00:27.114,(13 11 -68 -29 19 23 47 77)
1969/12/31/18:00:27.114,(24 63 76 51 11 15 3 -11)
1969/12/31/18:00:27.126,(4 -49 -16 12 5 -2 -7 -14)
1969/12/31/18:00:27.126,(21 106 52 4 -14 -14 1 10)
1969/12/31/18:00:27.135,(-33 -128 -124 -46 -15 -21 -2 0)
1969/12/31/18:00:27.135,(9 115 87 21 17 13 -2 -2)
1969/12/31/18:00:27.150,(38 127 127 56 18 -3 4 2)
1969/12/31/18:00:27.150,(-20 -87 -45 -37 -33 15 28 35)
1969/12/31/18:00:27.151,(-26 -51 -41 -14 -14 -18 -7 -15)
1969/12/31/18:00:27.151,(3 -59 -35 7 46 9 -5 7)
1969/12/31/18:00:27.173,(-10 -9 -15 -18 -29 -15 -18 -2)
1969/12/31/18:00:27.173,(22 66 37 7 -12 -11 11 17)
1969/12/31/18:00:27.174,(-6 74 63 23 8 1 2 -9)
1969/12/31/18:00:27.174,(-5 -31 -31 -19 -8 -5 -1 -22)
1969/12/31/18:00:27.186,(-25 -26 -12 -8 10 4 -2 -12)
1969/12/31/18:00:27.186,(-23 -53 -34 5 11 -12 -12 -5)
1969/12/31/18:00:27.195,(-60 71 48 5 -25 -10 2 -11)
1969/12/31/18:00:27.195,(-8 -24 -36 -18 -12 -3 -18 -13)
1969/12/31/18:00:27.211,(14 97 85 32 10 9 -2 -5)
1969/12/31/18:00:27.211,(-17 -73 -52 -12 -19 -8 -3 6)
1969/12/31/18:00:27.213,(20 -11 23 22 15 22 6 10)
1969/12/31/18:00:27.213,(5 -13 -8 -12 -14 -17 16 23)
1969/12/31/18:00:27.240,(-20 -106 -69 -14 14 10 -23 -59)
1969/12/31/18:00:27.240,(26 87 38 1 -20 -15 9 9)
1969/12/31/18:00:27.242,(8 -100 -72 -29 15 27 -1 30)
1969/12/31/18:00:27.242,(-18 43 12 1 -28 -26 -11 -32)
1969/12/31/18:00:27.246,(53 -13 6 6 13 14 28 55)
1969/12/31/18:00:27.246,(-13 -71 -68 -13 1 -6 -12 -15)
1969/12/31/18:00:27.255,(16 -80 -20 -7 -11 13 3 11)
1969/12/31/18:00:27.255,(-23 55 6 -21 -26 -26 13 5)
1969/12/31/18:00:27.270,(-29 -33 -36 -7 11 31 -8 -40)
1969/12/31/18:00:27.270,(44 24 9 9 24 -3 5 54)
1969/12/31/18:00:27.271,(29 18 -7 -2 -5 -4 -14 9)
1969/12/31/18:00:27.271,(12 -63 -46 -8 4 0 -6 19)
1969/12/31/18:00:27.292,(11 127 109 39 10 -9 3 -14)
1969/12/31/18:00:27.292,(-27 -84 -60 -18 -14 -4 -7 -37)
1969/12/31/18:00:27.294,(21 48 46 8 4 10 5 -5)
1969/12/31/18:00:27.294,(15 -13 -4 11 21 2 -13 12)
1969/12/31/18:00:27.306,(-10 -28 -32 -15 -14 -7 15 23)
1969/12/31/18:00:27.306,(-24 -103 -58 -28 -23 -9 -5 -13)
1969/12/31/18:00:27.315,(-3 71 44 18 32 9 7 -3)
1969/12/31/18:00:27.315,(-2 25 29 14 2 -21 -1 -10)
1969/12/31/18:00:27.337,(-16 -77 -68 -37 -42 -7 -6 3)
1969/12/31/18:00:27.337,(-4 38 41 22 25 21 -12 -37)
1969/12/31/18:00:27.339,(-73 24 45 10 4 16 17 -37)
1969/12/31/18:00:27.339,(71 -13 -13 21 33 37 13 51)
1969/12/31/18:00:27.360,(-10 -29 -51 -13 5 -17 3 -5)
1969/12/31/18:00:27.360,(-23 76 41 16 5 -18 -22 -28)
1969/12/31/18:00:27.362,(0 13 10 28 -2 -17 -18 -15)
1969/12/31/18:00:27.362,(-18 -86 -82 -30 -19 16 12 12)
1969/12/31/18:00:27.375,(27 56 45 8 2 -25 -13 14)
1969/12/31/18:00:27.375,(24 -75 -56 -23 1 23 6 44)
1969/12/31/18:00:27.376,(-17 -34 -26 -21 -3 -17 11 -1)
1969/12/31/18:00:27.377,(13 120 127 52 18 20 -19 -44)
1969/12/31/18:00:27.390,(-4 -128 -115 -38 1 14 35 50)
1969/12/31/18:00:27.390,(10 98 67 23 -2 -5 -14 -48)
1969/12/31/18:00:27.391,(19 14 35 13 15 -11 10 49)
1969/12/31/18:00:27.392,(-30 -106 -63 -25 -9 17 -13 -22)
1969/12/31/18:00:27.412,(2 37 -46 -32 -16 1 -5 1)
1969/12/31/18:00:27.412,(-30 10 35 37 15 6 8 -20)
1969/12/31/18:00:27.414,(0 -2 -6 1 0 -10 -14 -13)
1969/12/31/18:00:27.414,(-10 -60 -43 -32 -22 -29 -2 7)
1969/12/31/18:00:27.426,(-32 -82 -73 -41 -12 5 -13 11)
1969/12/31/18:00:27.426,(-6 28 -67 -24 -23 -20 -25 -39)
1969/12/31/18:00:27.435,(50 -21 -15 34 15 -2 -21 4)
1969/12/31/18:00:27.435,(-34 -14 -22 2 -5 4 28 -9)
1969/12/31/18:00:27.450,(-4 15 33 14 -12 1 -7 -31)
1969/12/31/18:00:27.450,(-2 -126 -88 -44 13 9 6 22)
1969/12/31/18:00:27.451,(4 -25 -20 -12 -32 -25 1 8)
1969/12/31/18:00:27.451,(14 -28 -21 -15 6 -8 -18 10)
1969/12/31/18:00:27.472,(36 83 92 101 40 18 21 44)
1969/12/31/18:00:27.472,(2 -27 -17 1 -11 0 17 -5)
1969/12/31/18:00:27.474,(-23 -88 -94 -26 -11 -5 -6 -8)
1969/12/31/18:00:27.474,(-11 8 -17 -20 1 -5 0 -2)
1969/12/31/18:00:27.486,(35 -2 -10 -19 -19 -17 -10 37)
1969/12/31/18:00:27.486,(-5 44 -17 -19 -14 -5 18 31)
1969/12/31/18:00:27.495,(14 67 92 68 43 37 19 4)
1969/12/31/18:00:27.495,(-51 -111 -84 -42 -43 -42 -24 -48)
1969/12/31/18:00:27.510,(-34 -49 -30 11 25 13 -7 -42)
1969/12/31/18:00:27.510,(27 33 34 22 29 19 12 32)
1969/12/31/18:00:27.511,(11 -69 -91 -63 -20 26 24 40)
1969/12/31/18:00:27.511,(-3 21 41 15 10 -21 -26 -40)
1969/12/31/18:00:27.532,(19 27 46 36 17 0 -20 -23)
1969/12/31/18:00:27.532,(-35 -67 -48 -32 -27 -25 -3 2)
1969/12/31/18:00:27.534,(-3 73 52 7 -9 -15 -7 -11)
1969/12/31/18:00:27.534,(20 60 35 22 -2 10 0 14)
1969/12/31/18:00:27.546,(-29 -68 -63 -27 -9 -6 -3 -17)
1969/12/31/18:00:27.546,(10 -49 -24 -10 -9 -8 -13 3)
1969/12/31/18:00:27.555,(-47 -27 1 3 11 11 1 -4)
1969/12/31/18:00:27.555,(-29 53 38 13 -6 -6 -10 -27)
1969/12/31/18:00:27.570,(8 26 -6 -10 -17 -6 3 -23)
1969/12/31/18:00:27.570,(-1 71 72 34 29 -8 -1 22)
1969/12/31/18:00:27.571,(-3 -6 -37 -25 -19 9 -16 -37)
1969/12/31/18:00:27.571,(-16 -122 -78 -20 -13 -13 7 27)
1969/12/31/18:00:27.592,(6 123 77 14 17 23 11 -11)
1969/12/31/18:00:27.592,(5 41 59 10 -17 -3 5 8)
1969/12/31/18:00:27.594,(44 70 24 11 2 -12 3 38)
1969/12/31/18:00:27.594,(14 61 16 9 4 0 -5 -14)
1969/12/31/18:00:27.606,(-11 -29 7 30 17 -16 -12 17)
1969/12/31/18:00:27.606,(44 -83 -53 -24 -12 13 16 23)
1969/12/31/18:00:27.615,(-44 -58 -18 -21 -23 -9 -35 -34)
1969/12/31/18:00:27.615,(0 -62 -58 -22 7 26 14 18)
1969/12/31/18:00:27.637,(8 78 50 17 0 -2 7 4)
1969/12/31/18:00:27.637,(-48 -117 -105 -32 -7 -4 -5 -16)
1969/12/31/18:00:27.639,(49 100 67 37 15 3 7 10)
1969/12/31/18:00:27.639,(30 65 66 20 4 3 2 29)
1969/12/31/18:00:27.652,(5 -108 -65 -19 1 15 19 18)
1969/12/31/18:00:27.652,(1 -60 -37 -5 -13 -21 -3 13)
1969/12/31/18:00:27.654,(28 56 49 38 23 -5 -4 5)
1969/12/31/18:00:27.654,(-4 35 8 7 -13 -10 3 -26)
1969/12/31/18:00:27.666,(20 6 -10 -35 -20 -16 -11 8)
1969/12/31/18:00:27.666,(3 37 45 13 -8 22 -9 -8)
1969/12/31/18:00:27.675,(-40 -128 -85 -40 -11 -22 -5 -17)
1969/12/31/18:00:27.675,(43 127 110 50 33 30 13 14)
1969/12/31/18:00:27.697,(-35 -128 -104 -21 3 -27 10 15)
1969/12/31/18:00:27.697,(9 82 104 42 14 23 -6 -1)
1969/12/31/18:00:27.699,(-5 -1 -51 -23 -10 1 -10 -32)
1969/12/31/18:00:27.699,(43 4 11 3 -5 -4 1 44)
1969/12/31/18:00:27.712,(-18 -11 -23 -22 -5 -5 -12 -42)
1969/12/31/18:00:27.712,(-6 25 16 6 -3 -19 -3 -9)
1969/12/31/18:00:27.714,(-12 -26 -62 -5 9 -1 -2 -11)
1969/12/31/18:00:27.714,(-18 -68 -35 -15 -27 7 8 9)
1969/12/31/18:00:27.726,(-20 64 70 8 -3 26 -10 -42)
1969/12/31/18:00:27.726,(-13 -112 -99 -44 -18 -27 -19 -13)
1969/12/31/18:00:27.735,(41 110 121 46 18 1 6 -2)
1969/12/31/18:00:27.735,(-21 -52 -50 -10 6 -2 8 -1)
1969/12/31/18:00:27.750,(32 -35 -16 -1 -34 -29 -15 3)
1969/12/31/18:00:27.750,(-23 7 29 9 11 44 13 -8)
1969/12/31/18:00:27.751,(-28 -56 -64 -38 -14 -19 -20 -12)
1969/12/31/18:00:27.751,(-2 -67 -51 -15 7 6 30 60)
1969/12/31/18:00:27.780,(22 111 93 35 12 -6 -9 -4)
1969/12/31/18:00:27.780,(-13 -79 -79 -37 -8 -7 -4 -7)
1969/12/31/18:00:27.782,(8 65 64 56 9 7 21 42)
1969/12/31/18:00:27.782,(18 -54 -60 -31 -8 -8 -2 21)
1969/12/31/18:00:27.786,(-67 -5 -23 -9 2 8 -7 -59)
1969/12/31/18:00:27.786,(5 2 30 18 18 0 7 5)
1969/12/31/18:00:27.795,(-12 -36 -48 -31 -6 11 13 -19)
1969/12/31/18:00:27.795,(-37 -19 -29 -7 -8 -15 -52 -84)
1969/12/31/18:00:27.817,(13 27 0 -5 8 21 19 25)
1969/12/31/18:00:27.817,(19 -21 13 7 14 -13 -2 8)
1969/12/31/18:00:27.819,(6 5 -15 -9 6 0 1 6)
1969/12/31/18:00:27.819,(-28 -16 35 11 -15 -6 6 -11)
1969/12/31/18:00:27.832,(69 50 -14 -11 9 15 26 63)
1969/12/31/18:00:27.832,(-43 26 43 36 15 1 2 -17)
1969/12/31/18:00:27.834,(54 -53 -53 -29 -9 7 -20 18)
1969/12/31/18:00:27.834,(14 10 14 3 4 -6 5 45)
1969/12/31/18:00:27.846,(-24 -20 -8 0 12 13 -2 -29)
1969/12/31/18:00:27.846,(-6 -79 -49 -24 -30 -8 8 11)
1969/12/31/18:00:27.855,(-11 70 54 19 1 -3 -1 -5)
1969/12/31/18:00:27.855,(9 8 -7 -8 -11 0 3 -12)
1969/12/31/18:00:27.870,(-10 -3 4 0 5 -1 7 31)
1969/12/31/18:00:27.870,(39 7 -29 1 19 15 -16 7)
1969/12/31/18:00:27.871,(-2 14 44 7 -14 -4 4 -13)
1969/12/31/18:00:27.871,(3 -8 -21 -18 -21 -8 -7 14)
1969/12/31/18:00:27.892,(-20 -93 -57 -16 -5 -14 -8 -19)
1969/12/31/18:00:27.892,(13 124 104 55 19 5 3 -9)
1969/12/31/18:00:27.894,(-8 -91 -51 -8 -4 -11 5 23)
1969/12/31/18:00:27.894,(-9 -10 -11 -20 1 16 4 -7)
1969/12/31/18:00:27.906,(2 19 33 13 -7 -5 -3 -5)
1969/12/31/18:00:27.906,(-11 -16 -38 -15 -15 -14 -2 -13)
1969/12/31/18:00:27.915,(-1 3 -4 6 18 12 -17 -18)
1969/12/31/18:00:27.915,(-2 11 22 22 27 22 26 12)
1969/12/31/18:00:27.929,(0 -12 -23 -18 -19 -16 -11 -11)
1969/12/31/18:00:27.929,(11 32 26 8 15 0 1 1)
1969/12/31/18:00:27.936,(16 25 6 1 -4 8 7 33)
1969/12/31/18:00:27.936,(-15 24 27 6 -2 -4 -16 -40)
1969/12/31/18:00:27.952,(13 -53 -55 -20 -10 -9 6 23)
1969/12/31/18:00:27.952,(6 47 43 10 -6 -9 -21 -20)
1969/12/31/18:00:27.954,(1 -24 -11 -2 4 -6 20 15)
1969/12/31/18:00:27.954,(-5 10 13 1 -17 -13 -16 -26)
1969/12/31/18:00:27.975,(12 106 100 32 -6 8 10 9)
1969/12/31/18:00:27.975,(-5 -42 -58 -29 -14 -15 -7 -7)
1969/12/31/18:00:27.977,(-28 -54 -14 9 0 -9 0 -22)
1969/12/31/18:00:27.977,(11 21 1 8 21 13 -21 -26)
1969/12/31/18:00:27.989,(-32 -67 -26 -14 -13 -12 11 8)
1969/12/31/18:00:27.989,(7 11 -44 -22 -9 12 15 29)
1969/12/31/18:00:28.003,(-47 4 3 -5 1 4 -12 -47)
1969/12/31/18:00:28.003,(-3 -1 12 19 19 -24 -15 -35)
1969/12/31/18:00:28.012,(15 -6 -5 5 -2 27 -13 -7)
1969/12/31/18:00:28.012,(-25 -20 -10 -9 -16 -19 -10 7)
1969/12/31/18:00:28.014,(3 -26 -45 -19 -11 6 9 1)
1969/12/31/18:00:28.014,(15 26 15 -10 -13 -14 6 17)
1969/12/31/18:00:28.035,(-23 24 35 19 14 -6 1 12)
1969/12/31/18:00:28.035,(-13 15 0 6 18 31 3 -43)
1969/12/31/18:00:28.036,(19 -21 -10 -11 -18 -35 -20 8)
1969/12/31/18:00:28.036,(12 15 3 -6 -19 3 1 12)
1969/12/31/18:00:28.057,(-11 -109 -70 -33 -9 -5 -1 -11)
1969/12/31/18:00:28.057,(30 83 37 29 15 11 4 9)
1969/12/31/18:00:28.059,(-43 -58 -24 -14 -7 -6 -5 -7)
1969/12/31/18:00:28.059,(12 13 -17 -11 -12 -3 -2 -3)
1969/12/31/18:00:28.072,(-8 -13 7 36 46 18 11 13)
1969/12/31/18:00:28.072,(-11 -34 -11 -6 -5 -9 -4 0)
1969/12/31/18:00:28.074,(-3 -25 -31 -17 -4 1 -5 -22)
1969/12/31/18:00:28.074,(13 58 34 5 -10 -8 -4 3)
1969/12/31/18:00:28.095,(-13 -3 -28 -32 -20 0 17 -16)
1969/12/31/18:00:28.095,(-10 -30 1 11 7 -7 -21 -14)
1969/12/31/18:00:28.097,(-4 11 11 1 0 2 19 21)
1969/12/31/18:00:28.097,(-31 -8 9 19 23 5 -4 6)
1969/12/31/18:00:28.109,(13 32 13 -4 -10 -7 -9 -6)
1969/12/31/18:00:28.109,(39 10 9 1 -8 19 3 12)
1969/12/31/18:00:28.118,(1 -4 -6 -6 16 -1 4 16)
1969/12/31/18:00:28.118,(6 29 5 -30 -54 -49 13 20)
1969/12/31/18:00:28.132,(-31 -31 -5 36 57 60 -4 -27)
1969/12/31/18:00:28.132,(-72 -24 8 12 23 18 -18 -24)
1969/12/31/18:00:28.134,(6 0 -8 6 -8 -25 -7 -21)
1969/12/31/18:00:28.134,(13 -47 -12 5 18 10 -21 -13)
1969/12/31/18:00:28.155,(28 38 11 -15 -23 -19 1 21)
1969/12/31/18:00:28.155,(73 38 20 8 4 22 42 56)
1969/12/31/18:00:28.157,(-1 -7 -13 -13 -18 -26 -28 -15)
1969/12/31/18:00:28.157,(-58 -20 -15 -5 12 32 9 -27)
1969/12/31/18:00:28.169,(54 5 9 3 -12 -26 -22 15)
1969/12/31/18:00:28.169,(-15 -10 0 -1 2 -3 7 -2)
1969/12/31/18:00:28.178,(8 19 8 1 -3 5 -3 -1)
1969/12/31/18:00:28.178,(-63 -68 -33 -9 -5 5 5 -25)
1969/12/31/18:00:28.192,(39 38 4 -4 -8 -37 -1 13)
1969/12/31/18:00:28.192,(13 19 11 3 4 15 12 -7)
1969/12/31/18:00:28.194,(45 12 7 1 3 27 -6 -6)
1969/12/31/18:00:28.194,(-86 -23 4 14 13 1 -23 -37)
1969/12/31/18:00:28.215,(13 10 3 2 1 8 3 -1)
1969/12/31/18:00:28.215,(5 -2 -8 -17 -25 13 41 14)
1969/12/31/18:00:28.216,(-48 4 -2 8 7 -46 -56 -20)
1969/12/31/18:00:28.216,(13 -36 -2 7 6 -4 62 66)
1969/12/31/18:00:28.237,(-58 -31 -28 -19 -18 -29 -87 -86)
1969/12/31/18:00:28.237,(42 3 -4 -10 -13 -20 16 34)
1969/12/31/18:00:28.239,(-45 -19 19 11 11 44 35 51)
1969/12/31/18:00:28.239,(74 34 0 7 8 3 9 20)
1969/12/31/18:00:28.252,(33 44 -7 -17 -18 -14 9 1)
1969/12/31/18:00:28.252,(-61 -43 -12 0 7 -15 -37 -38)
1969/12/31/18:00:28.254,(-3 17 10 4 1 13 21 -21)
1969/12/31/18:00:28.254,(63 11 9 5 9 -4 -1 29)
1969/12/31/18:00:28.275,(0 -35 -6 -5 -8 9 12 13)
1969/12/31/18:00:28.275,(-5 1 -20 -18 -11 -15 -13 16)
1969/12/31/18:00:28.281,(-69 -43 -20 -14 -15 -12 -10 -40)
1969/12/31/18:00:28.281,(5 32 2 -7 -9 1 -12 -27)
1969/12/31/18:00:28.289,(-7 -2 7 12 6 5 2 0)
1969/12/31/18:00:28.289,(3 -11 -5 -2 0 -10 -1 -1)
1969/12/31/18:00:28.298,(20 11 -7 -7 -6 0 1 3)
1969/12/31/18:00:28.298,(11 11 3 -3 -3 2 -11 15)
1969/12/31/18:00:28.313,(-24 -2 2 -1 1 3 14 13)
1969/12/31/18:00:28.313,(-28 -17 -5 -1 0 -10 -6 -8)
1969/12/31/18:00:28.315,(30 19 14 3 9 13 9 17)
1969/12/31/18:00:28.315,(-3 9 1 9 2 2 -12 -25)
1969/12/31/18:00:28.335,(-24 -9 10 5 3 1 8 2)
1969/12/31/18:00:28.335,(-5 0 -1 0 0 -1 -4 -7)
1969/12/31/18:00:28.337,(22 4 -12 -7 -2 0 -4 -8)
1969/12/31/18:00:28.337,(3 2 13 4 -1 1 4 24)
1969/12/31/18:00:28.349,(4 7 2 1 2 2 10 31)
1969/12/31/18:00:28.349,(9 6 0 -3 -4 -5 -10 -16)
1969/12/31/18:00:28.358,(10 5 10 -4 -3 -1 0 5)
1969/12/31/18:00:28.358,(-8 5 0 2 6 1 -1 -20)
1969/12/31/18:00:28.372,(7 -13 -22 -9 -4 0 2 12)
1969/12/31/18:00:28.372,(4 13 20 4 3 -3 -6 2)
1969/12/31/18:00:28.374,(7 20 18 11 4 0 0 -9)
1969/12/31/18:00:28.374,(-7 3 -1 -4 0 4 -4 -3)
1969/12/31/18:00:28.395,(-26 2 6 8 6 6 9 -26)
1969/12/31/18:00:28.395,(-15 -36 -30 -17 -12 -9 -7 9)
1969/12/31/18:00:28.396,(16 -6 -17 -6 -6 -1 7 16)
1969/12/31/18:00:28.396,(4 24 15 11 8 9 1 23)
1969/12/31/18:00:28.408,(-14 -4 2 0 -6 -11 -16 -30)
1969/12/31/18:00:28.408,(-4 -40 -21 -8 -5 -5 -6 -5)
1969/12/31/18:00:28.418,(21 39 8 1 0 2 9 10)
1969/12/31/18:00:28.418,(4 35 48 23 10 4 -15 -17)
1969/12/31/18:00:28.440,(-5 -19 -21 -12 -5 4 16 20)
1969/12/31/18:00:28.440,(-10 16 11 2 -5 -9 -15 -45)
1969/12/31/18:00:28.441,(9 -27 -14 -9 -7 -6 -5 6)
1969/12/31/18:00:28.441,(2 -10 -8 -3 3 2 6 -4)
1969/12/31/18:00:28.455,(-2 14 -1 0 1 5 -10 -10)
1969/12/31/18:00:28.455,(12 7 -1 5 6 5 6 8)
1969/12/31/18:00:28.456,(-7 -12 -14 -4 -3 -1 -4 -2)
1969/12/31/18:00:28.456,(3 5 -5 -8 -8 -11 4 2)
1969/12/31/18:00:28.469,(0 -18 -5 3 6 5 3 2)
1969/12/31/18:00:28.469,(0 -8 -9 -8 -2 1 -2 1)
1969/12/31/18:00:28.477,(2 23 17 14 4 2 -7 -5)
1969/12/31/18:00:28.478,(-13 -51 -35 -14 -6 -3 -2 -10)
1969/12/31/18:00:28.492,(10 31 5 0 -1 -2 0 3)
1969/12/31/18:00:28.492,(4 28 41 18 4 0 -3 1)
1969/12/31/18:00:28.494,(1 -9 -1 1 3 6 6 5)
1969/12/31/18:00:28.494,(-7 -15 -16 -11 -4 -3 -8 -15)
1969/12/31/18:00:28.515,(-4 -36 -32 -13 -6 -5 0 3)
1969/12/31/18:00:28.515,(6 26 10 0 1 2 4 2)
1969/12/31/18:00:28.516,(-3 -9 -7 -1 -4 -3 -2 2)
1969/12/31/18:00:28.516,(1 8 0 3 2 3 4 -5)
1969/12/31/18:00:28.529,(3 14 17 4 4 1 -6 0)
1969/12/31/18:00:28.529,(-2 -12 -13 -2 -2 -3 1 3)
1969/12/31/18:00:28.537,(0 -2 3 -1 -2 0 0 -2)
1969/12/31/18:00:28.537,(-2 -3 -8 -8 -6 -6 -1 3)
1969/12/31/18:00:28.552,(-1 3 14 9 7 -1 -9 -11)
1969/12/31/18:00:28.552,(0 -1 -20 -7 -2 0 8 6)
1969/12/31/18:00:28.559,(0 -1 3 7 2 2 3 2)
1969/12/31/18:00:28.559,(-1 4 1 1 0 -1 -2 3)
1969/12/31/18:00:28.575,(2 7 9 3 -2 -1 4 6)
1969/12/31/18:00:28.575,(-4 -13 -9 -5 -3 -3 -4 -2)
1969/12/31/18:00:28.576,(1 2 10 -1 1 0 4 2)
1969/12/31/18:00:28.576,(-3 -3 1 6 4 1 -8 -8)
1969/12/31/18:00:28.589,(-8 -18 -6 -11 -5 -4 1 -3)
1969/12/31/18:00:28.589,(11 30 6 0 3 -1 -1 3)
1969/12/31/18:00:28.597,(-14 -38 -26 -11 -7 -1 -2 -4)
1969/12/31/18:00:28.597,(0 -4 -5 0 -2 -3 -2 -2)
1969/12/31/18:00:28.612,(4 28 4 2 0 -1 2 2)
1969/12/31/18:00:28.612,(-3 -18 -28 -11 -5 -2 -3 -2)
1969/12/31/18:00:28.614,(9 33 55 25 12 4 3 1)
1969/12/31/18:00:28.614,(1 -16 -6 -6 -5 -1 3 4)
1969/12/31/18:00:28.635,(-14 -15 -5 4 -1 -2 -5 -9)
1969/12/31/18:00:28.635,(-7 -15 -19 -16 -7 -4 -3 -5)
1969/12/31/18:00:28.637,(-2 -19 -14 -4 -2 -1 1 3)
1969/12/31/18:00:28.637,(-3 8 -4 -9 -4 -4 -6 -7)
1969/12/31/18:00:28.649,(6 4 8 4 4 4 6 7)
1969/12/31/18:00:28.649,(-6 -9 10 1 -4 -4 -4 -4)
1969/12/31/18:00:28.658,(2 20 -13 -6 -1 -3 -7 -7)
1969/12/31/18:00:28.658,(9 13 0 4 4 1 1 4)
1969/12/31/18:00:28.672,(-7 -12 -4 -4 -4 3 7 2)
1969/12/31/18:00:28.672,(-1 2 -34 -7 -1 -4 -7 -8)
1969/12/31/18:00:28.679,(1 22 9 0 -1 0 2 2)
1969/12/31/18:00:28.679,(-5 -29 -30 -16 -6 -4 -5 -4)
1969/12/31/18:00:28.695,(7 24 34 20 4 0 1 0)
1969/12/31/18:00:28.695,(-1 -13 9 9 5 3 5 6)
1969/12/31/18:00:28.697,(-5 -18 -14 -8 -6 -4 -5 -9)
1969/12/31/18:00:28.697,(-8 -9 2 0 -5 -2 -1 -2)
1969/12/31/18:00:28.709,(-2 -2 2 -3 -2 -4 -3 -3)
1969/12/31/18:00:28.709,(2 4 9 3 1 2 2 2)
1969/12/31/18:00:28.718,(-3 -9 -6 -4 -2 -2 -1 1)
1969/12/31/18:00:28.718,(-7 -14 1 -1 0 -1 -2 -5)
1969/12/31/18:00:28.732,(-1 -19 -6 1 -1 -2 -1 0)
1969/12/31/18:00:28.732,(4 17 18 11 5 5 2 5)
1969/12/31/18:00:28.746,(6 10 -4 -3 -1 0 0 3)
1969/12/31/18:00:28.746,(-3 -9 -6 -2 2 0 1 3)
1969/12/31/18:00:28.755,(-2 -7 -12 -1 0 -3 -6 -3)
1969/12/31/18:00:28.755,(-4 -3 -6 -5 -5 -4 -5 -9)
1969/12/31/18:00:28.757,(-6 -22 -9 -1 0 1 1 1)
1969/12/31/18:00:28.757,(4 7 9 -1 0 -2 0 3)
1969/12/31/18:00:28.769,(4 28 20 -3 -4 -3 -1 0)
1969/12/31/18:00:28.769,(3 8 10 6 2 0 0 0)
1969/12/31/18:00:28.778,(-2 -3 -1 0 -4 -2 -3 -2)
1969/12/31/18:00:28.778,(0 7 -1 2 2 -1 1 1)
1969/12/31/18:00:28.792,(-1 -1 -9 -7 -1 1 1 0)
1969/12/31/18:00:28.792,(-2 -3 2 1 1 -1 -1 -3)
1969/12/31/18:00:28.798,(-4 -5 -2 -3 -2 -1 -1 -1)
1969/12/31/18:00:28.799,(3 10 -10 -3 -2 -1 0 1)
1969/12/31/18:00:28.815,(-3 -17 1 3 0 -2 2 -1)
1969/12/31/18:00:28.815,(2 11 8 0 -2 -2 -2 -2)
1969/12/31/18:00:28.816,(2 4 4 2 3 0 0 2)
1969/12/31/18:00:28.816,(-4 -2 6 -1 -2 0 -1 -3)
1969/12/31/18:00:28.837,(1 -3 -7 -3 -2 -2 -4 -1)
1969/12/31/18:00:28.837,(-2 3 5 -1 -4 0 -1 -1)
1969/12/31/18:00:28.839,(-1 0 0 -1 0 -1 -1 -2)
1969/12/31/18:00:28.839,(4 -1 -2 2 3 1 3 4)
1969/12/31/18:00:28.852,(4 11 10 1 -1 1 0 2)
1969/12/31/18:00:28.852,(-6 -9 -8 -6 -3 -5 -3 -7)
1969/12/31/18:00:28.866,(-2 -9 -7 -3 -1 0 -1 -1)
1969/12/31/18:00:28.866,(-5 4 -10 -3 2 0 -2 -8)
1969/12/31/18:00:28.890,(-2 -4 2 1 -4 -3 -2 0)
1969/12/31/18:00:28.890,(1 -2 -2 2 0 0 0 2)
1969/12/31/18:00:28.892,(-2 3 8 2 -1 -2 0 -1)
1969/12/31/18:00:28.892,(1 3 1 0 -2 -2 -2 -1)
1969/12/31/18:00:28.897,(-2 -9 -17 -9 -3 -1 -2 -1)
1969/12/31/18:00:28.897,(0 -1 7 6 3 1 -1 -2)
1969/12/31/18:00:28.899,(-2 -7 -10 -6 -4 -1 -2 -3)
1969/12/31/18:00:28.899,(2 9 12 5 1 1 0 1)
1969/12/31/18:00:28.920,(-3 -4 -10 -5 0 1 -1 -2)
1969/12/31/18:00:28.920,(-3 -5 0 -1 -2 0 -2 -1)
1969/12/31/18:00:28.921,(1 -2 -6 -6 -3 -2 0 0)
1969/12/31/18:00:28.922,(-4 -3 7 2 -1 0 0 -2)
1969/12/31/18:00:28.935,(-2 5 5 2 -1 -1 -2 -4)
1969/12/31/18:00:28.935,(-2 -4 -7 -3 -3 -1 -2 -1)
1969/12/31/18:00:28.936,(-2 4 2 3 0 -2 -3 -1)
1969/12/31/18:00:28.936,(3 5 4 2 0 -1 0 1)
1969/12/31/18:00:28.957,(1 3 -2 -2 -1 -1 2 1)
1969/12/31/18:00:28.957,(2 2 -1 0 0 1 2 3)
1969/12/31/18:00:28.959,(-3 -9 -6 -4 -5 -1 0 -4)
1969/12/31/18:00:28.959,(-2 -1 -2 -1 0 0 -4 -2)
1969/12/31/18:00:28.972,(0 -1 -4 -2 -1 -1 -1 -1)
1969/12/31/18:00:28.972,(0 -1 3 0 -1 1 -1 0)
1969/12/31/18:00:28.980,(-2 -5 -6 -5 -1 -3 -2 -1)
1969/12/31/18:00:28.980,(-2 0 6 0 -2 -2 -2 0)
1969/12/31/18:00:29.002,(1 -2 -7 -4 2 -1 -2 0)
1969/12/31/18:00:29.002,(-4 -2 -9 -9 -3 -3 -3 -3)
1969/12/31/18:00:29.004,(1 3 -5 1 -2 -1 -2 1)
1969/12/31/18:00:29.004,(-2 -1 2 -1 1 1 2 0)
1969/12/31/18:00:29.017,(-2 -6 -6 -3 -2 -3 -2 -3)
1969/12/31/18:00:29.017,(-4 -8 -4 -4 -2 -2 -1 -4)
1969/12/31/18:00:29.019,(-1 -1 -9 -4 -1 1 -2 -2)
1969/12/31/18:00:29.019,(2 4 6 3 -1 -1 -1 0)
1969/12/31/18:00:29.032,(0 -1 -1 -1 -2 0 0 0)
1969/12/31/18:00:29.032,(0 0 0 1 -1 0 0 0)
1969/12/31/18:00:29.039,(-3 -3 1 -1 1 -1 2 1)
1969/12/31/18:00:29.039,(0 1 1 3 4 0 1 3)
1969/12/31/18:00:29.063,(-2 -3 -2 -1 1 -4 -1 -1)
1969/12/31/18:00:29.063,(-4 -5 0 1 -1 -5 -2 -3)
1969/12/31/18:00:29.064,(-1 -1 2 -1 -1 -1 -2 -3)
1969/12/31/18:00:29.064,(-1 -2 -3 -4 -5 -3 -3 -2)
1969/12/31/18:00:29.077,(-1 2 1 -1 -3 1 0 -1)
1969/12/31/18:00:29.077,(-1 1 0 0 1 0 2 0)
1969/12/31/18:00:29.079,(-1 1 3 2 0 -1 -1 -2)
1969/12/31/18:00:29.079,(0 -1 -1 0 -3 -3 -2 -1)
1969/12/31/18:00:29.092,(-1 -2 2 2 0 1 -2 -2)
1969/12/31/18:00:29.092,(0 1 1 -2 -2 -3 -3 -1)
1969/12/31/18:00:29.099,(2 2 4 1 1 0 2 2)
1969/12/31/18:00:29.099,(0 2 0 -2 -1 0 -1 0)
1969/12/31/18:00:29.115,(-2 -1 2 -1 -3 -1 0 0)
1969/12/31/18:00:29.115,(-1 0 1 3 3 1 -2 -3)
1969/12/31/18:00:29.116,(0 0 -5 -5 -1 -2 -2 -2)
1969/12/31/18:00:29.116,(1 6 12 9 5 1 1 -1)
1969/12/31/18:00:29.145,(-2 -7 -8 -2 0 0 -1 1)
1969/12/31/18:00:29.145,(2 4 3 -1 -2 -2 0 -1)
1969/12/31/18:00:29.147,(-4 -5 1 -1 0 0 -2 -2)
1969/12/31/18:00:29.147,(-2 -2 -2 -1 0 0 -1 0)
1969/12/31/18:00:29.160,(1 2 3 1 1 0 1 1)
1969/12/31/18:00:29.160,(0 -2 0 -1 -2 -2 -2 0)
1969/12/31/18:00:29.162,(-1 -1 -3 -3 -3 -3 -1 -2)
1969/12/31/18:00:29.162,(-2 -2 -1 -3 -3 -2 -3 -2)
1969/12/31/18:00:29.177,(0 1 1 -2 0 -1 -1 -3)
1969/12/31/18:00:29.177,(-2 -1 -3 -4 -2 -2 0 0)
1969/12/31/18:00:29.178,(-2 0 0 0 1 1 0 -1)
1969/12/31/18:00:29.178,(-1 0 -1 0 -2 0 -1 -1)
1969/12/31/18:00:29.197,(-2 -1 0 -1 0 -2 0 1)
1969/12/31/18:00:29.198,(-2 -3 -5 -4 -3 -1 -2 -1)
1969/12/31/18:00:29.199,(-1 0 1 -1 -3 -3 -2 -1)
1969/12/31/18:00:29.199,(1 -4 -2 -2 -1 -1 -1 -1)
1969/12/31/18:00:29.211,(-1 5 -1 -3 0 -1 -2 -2)
1969/12/31/18:00:29.211,(-1 -3 0 1 -1 0 -1 -1)
1969/12/31/18:00:29.221,(1 -1 0 1 1 -2 -1 0)
1969/12/31/18:00:29.221,(-1 -1 -2 -2 -1 -1 -1 2)
1969/12/31/18:00:29.243,(-3 -3 -3 -1 -4 -5 -3 -7)
1969/12/31/18:00:29.243,(-2 -1 -1 0 0 0 -2 1)
1969/12/31/18:00:29.244,(-1 0 0 0 -1 0 -1 1)
1969/12/31/18:00:29.244,(0 -1 -4 -3 -2 -1 -1 -2)
1969/12/31/18:00:29.265,(0 0 -2 -4 -6 -1 0 1)
1969/12/31/18:00:29.265,(-1 -3 1 2 5 1 1 2)
1969/12/31/18:00:29.267,(-1 7 4 3 3 0 -1 -2)
1969/12/31/18:00:29.267,(-3 -6 -9 -4 -5 -4 -1 0)
1969/12/31/18:00:29.272,(-3 -4 -3 -3 -1 -1 -1 -4)
1969/12/31/18:00:29.272,(0 -1 -1 -2 -3 0 0 -1)
1969/12/31/18:00:29.279,(0 1 2 2 2 -1 1 -1)
1969/12/31/18:00:29.279,(-3 -1 -2 -1 -1 -2 -2 -4)
1969/12/31/18:00:29.295,(2 3 6 6 5 2 2 1)
1969/12/31/18:00:29.295,(-3 -3 -5 -2 -2 -2 -1 -1)
1969/12/31/18:00:29.297,(0 -1 3 0 0 -1 0 1)
1969/12/31/18:00:29.297,(0 2 -1 -1 -1 -1 0 -2)
1969/12/31/18:00:29.317,(-4 -4 -4 -2 0 -1 -1 0)
1969/12/31/18:00:29.317,(0 1 -2 0 0 -1 -1 0)
1969/12/31/18:00:29.319,(-3 -4 -2 -2 -3 -1 -3 -2)
1969/12/31/18:00:29.319,(0 0 0 -1 0 0 1 0)
1969/12/31/18:00:29.332,(3 2 1 2 1 0 1 2)
1969/12/31/18:00:29.332,(-2 1 0 0 0 1 -2 -2)
1969/12/31/18:00:29.338,(-3 -5 -8 0 2 0 0 -2)
1969/12/31/18:00:29.338,(-1 0 -1 -1 -4 -1 -3 -2)
1969/12/31/18:00:29.355,(-1 -1 -2 -2 -3 0 -2 -1)
1969/12/31/18:00:29.355,(-1 -1 0 -2 -3 -3 -3 -2)
1969/12/31/18:00:29.357,(-2 -2 -1 -2 -1 -1 0 0)
1969/12/31/18:00:29.357,(-2 -2 -2 -2 -1 -1 0 0)
1969/12/31/18:00:29.377,(-1 0 -1 0 0 0 -1 1)
1969/12/31/18:00:29.377,(-1 2 1 -1 -3 0 -2 0)
1969/12/31/18:00:29.379,(-1 -1 -1 -3 -4 0 0 -2)
1969/12/31/18:00:29.379,(-3 -3 -1 1 2 1 0 0)
1969/12/31/18:00:29.391,(-1 -3 -1 -1 -2 -1 -1 1)
1969/12/31/18:00:29.391,(2 1 0 -2 -1 -1 -1 -1)
1969/12/31/18:00:29.400,(0 -2 -3 -1 -1 -1 -2 0)
1969/12/31/18:00:29.400,(-3 1 1 1 0 0 -2 -2)
1969/12/31/18:00:29.422,(-1 -2 0 1 0 1 0 -2)
1969/12/31/18:00:29.423,(-1 0 -2 1 1 0 -1 -1)
1969/12/31/18:00:29.424,(0 -1 -2 -1 -1 -1 0 -1)
1969/12/31/18:00:29.424,(0 0 -1 0 1 -1 -2 0)
1969/12/31/18:00:29.437,(-2 1 -2 -1 -1 -2 -4 -4)
1969/12/31/18:00:29.437,(-3 -1 -3 0 0 -2 -1 -3)
1969/12/31/18:00:29.439,(-2 2 1 1 1 0 -2 -1)
1969/12/31/18:00:29.439,(-1 0 -1 -2 -2 0 0 0)
1969/12/31/18:00:29.467,(-1 1 3 0 0 -1 -1 1)
1969/12/31/18:00:29.467,(-2 -2 -2 -3 -2 -2 0 -1)
1969/12/31/18:00:29.476,(-1 -1 -1 1 0 -1 -2 0)
1969/12/31/18:00:29.476,(-1 -2 0 0 1 0 0 -3)
1969/12/31/18:00:29.477,(-1 -2 -2 -1 -1 -1 -1 -1)
1969/12/31/18:00:29.477,(0 0 -2 -1 -3 -1 0 0)
1969/12/31/18:00:29.478,(-1 0 1 -2 -2 -1 -2 1)
1969/12/31/18:00:29.478,(-2 0 0 -1 -1 -2 -1 -2)
1969/12/31/18:00:29.505,(0 -1 1 -1 0 -1 0 0)
1969/12/31/18:00:29.505,(-2 -2 -1 0 0 0 0 -1)
1969/12/31/18:00:29.507,(0 2 -1 -2 -3 0 0 0)
1969/12/31/18:00:29.507,(3 1 -1 -1 -2 0 0 1)
1969/12/31/18:00:29.511,(-5 -9 -6 -2 -2 -2 -2 -5)
1969/12/31/18:00:29.511,(-2 -3 -2 -3 -1 0 -1 -2)
1969/12/31/18:00:29.520,(0 -1 -3 -4 -2 -3 -1 -2)
1969/12/31/18:00:29.520,(-3 -4 -2 -3 -2 -1 -3 -2)
1969/12/31/18:00:29.535,(2 5 2 1 0 0 0 2)
1969/12/31/18:00:29.535,(-2 -2 -1 -2 -3 -4 -2 -1)
1969/12/31/18:00:29.536,(2 1 1 2 -1 0 -1 0)
1969/12/31/18:00:29.536,(-2 0 1 2 1 0 2 1)
1969/12/31/18:00:29.558,(-1 -2 -4 -2 -1 -1 -2 -2)
1969/12/31/18:00:29.558,(0 -1 0 -1 -1 0 1 -1)
1969/12/31/18:00:29.559,(-4 -5 -5 -1 -2 -2 -1 -2)
1969/12/31/18:00:29.559,(0 -1 -1 0 -1 -1 0 -2)
1969/12/31/18:00:29.571,(-4 -1 -3 -1 -3 -3 -3 -2)
1969/12/31/18:00:29.571,(0 0 -3 0 -1 0 0 1)
1969/12/31/18:00:29.580,(1 -1 -2 -4 -3 -4 -1 0)
1969/12/31/18:00:29.580,(-1 -2 -1 -1 -2 -2 0 -3)
