time,.data
1969-12-31 18:00:05.451000000,(1 1 2 0 -1 0 0 0)
1969-12-31 18:00:05.451000000,(1 0 1 1 1 -1 -2 1)
1969-12-31 18:00:05.451789221,(-3 -9 -7 -1 0 1 -1 -2)
1969-12-31 18:00:05.451789221,(-2 2 2 -1 -1 -2 -1 -3)
1969-12-31 18:00:05.469152094,(0 -2 -6 0 2 0 0 2)
1969-12-31 18:00:05.469152094,(0 2 7 -3 -2 0 1 0)
1969-12-31 18:00:05.469941316,(-1 2 -1 1 1 -2 -3 -3)
1969-12-31 18:00:05.469941316,(-2 0 -5 -3 -4 -4 -3 -2)
1969-12-31 18:00:05.481779638,(-1 0 7 2 0 -1 -2 -1)
1969-12-31 18:00:05.481779638,(0 -1 4 2 -1 1 0 0)
1969-12-31 18:00:05.492828739,(3 5 6 2 0 0 1 -1)
1969-12-31 18:00:05.492828739,(0 -2 2 -4 -4 -2 -1 -1)
1969-12-31 18:00:05.499142511,(-2 -8 -18 -5 -2 -4 -2 -3)
1969-12-31 18:00:05.499142511,(3 4 1 -7 -6 -3 -1 0)
1969-12-31 18:00:05.499142511,(0 -1 1 2 3 0 -1 0)
1969-12-31 18:00:05.499142511,(-1 1 1 5 4 0 1 -1)
1969-12-31 18:00:05.516505384,(-1 2 1 -2 -2 -1 -1 0)
1969-12-31 18:00:05.516505384,(-1 -2 0 0 -1 -1 -1 -3)
1969-12-31 18:00:05.517294605,(-3 -5 -9 -6 -5 -1 -1 -3)
1969-12-31 18:00:05.517294605,(1 3 0 0 0 2 -1 1)
1969-12-31 18:00:05.528343706,(2 8 8 1 0 1 -1 1)
1969-12-31 18:00:05.528343706,(-4 -6 -6 0 3 -1 -1 0)
1969-12-31 18:00:05.534657478,(-2 -1 -1 -2 -3 0 -1 1)
1969-12-31 18:00:05.534657478,(-2 -4 -5 0 1 1 0 -1)
1969-12-31 18:00:05.546495800,(0 2 8 3 3 1 1 2)
1969-12-31 18:00:05.546495800,(-1 1 -7 -2 -2 -2 -2 -2)
1969-12-31 18:00:05.547285022,(-1 -5 3 0 0 -2 0 2)
1969-12-31 18:00:05.547285022,(1 4 1 -1 -2 0 -1 0)
1969-12-31 18:00:05.563858673,(-4 -8 -7 -4 -2 -2 0 -3)
1969-12-31 18:00:05.563858673,(-1 1 -1 -2 0 -3 -2 -1)
1969-12-31 18:00:05.569383223,(-1 -5 -2 2 0 0 1 2)
1969-12-31 18:00:05.569383223,(-4 -2 1 0 0 -1 0 -2)
1969-12-31 18:00:05.577275437,(-1 -2 0 -1 1 0 0 1)
1969-12-31 18:00:05.577275437,(0 -1 1 1 1 -1 -2 0)
1969-12-31 18:00:05.578064660,(0 0 -1 -1 -1 -1 -2 -2)
1969-12-31 18:00:05.578064660,(1 1 4 1 0 -1 -1 1)
1969-12-31 18:00:05.593849090,(0 0 -2 -1 -3 -1 0 -1)
1969-12-31 18:00:05.593849090,(-2 -3 -1 -2 -1 1 -1 0)
1969-12-31 18:00:05.593849090,(-1 1 -1 1 0 0 0 0)
1969-12-31 18:00:05.594638311,(1 -3 -1 1 1 0 -1 -1)
1969-12-31 18:00:05.611211962,(-1 3 1 2 1 -1 -2 -1)
1969-12-31 18:00:05.611211962,(-1 -1 -5 -4 -2 0 -1 -2)
1969-12-31 18:00:05.612001184,(0 0 2 0 0 -1 0 -1)
1969-12-31 18:00:05.612001184,(1 1 11 4 2 0 0 -1)
1969-12-31 18:00:05.623050285,(-1 -2 -7 -3 -4 -1 -1 -1)
1969-12-31 18:00:05.623050285,(-1 3 4 2 0 0 -1 0)
1969-12-31 18:00:05.623839506,(-3 -6 -6 -2 -1 -2 -3 -3)
1969-12-31 18:00:05.623839506,(-1 3 -9 -5 -2 -2 0 -1)
1969-12-31 18:00:05.641202379,(6 11 17 6 1 1 2 4)
1969-12-31 18:00:05.641202379,(-9 -14 -11 -4 -1 -1 -4 -6)
1969-12-31 18:00:05.646726929,(0 2 -2 -1 2 2 0 0)
1969-12-31 18:00:05.646726929,(1 2 -4 0 -1 -1 1 1)
1969-12-31 18:00:05.658565252,(0 0 2 1 1 -1 1 1)
1969-12-31 18:00:05.658565252,(0 1 -3 1 -1 0 1 1)
1969-12-31 18:00:05.659354473,(-3 -5 -6 -7 -3 -3 -3 -1)
1969-12-31 18:00:05.659354473,(-1 -2 0 -5 -2 -2 -3 -2)
1969-12-31 18:00:05.670403574,(-1 -4 -7 -4 -2 -1 0 1)
1969-12-31 18:00:05.670403574,(1 -1 10 8 3 -3 -1 -1)
1969-12-31 18:00:05.676717346,(-2 4 -3 -3 -2 -1 0 -1)
1969-12-31 18:00:05.676717346,(-2 -2 0 5 -2 -1 -1 -2)
1969-12-31 18:00:05.688555668,(-1 -4 -2 -2 1 2 -3 -4)
1969-12-31 18:00:05.688555668,(-1 -4 -8 -5 -3 -1 -2 -1)
1969-12-31 18:00:05.689344890,(2 0 0 -3 -2 0 -1 0)
1969-12-31 18:00:05.689344890,(2 3 4 2 0 -1 -1 0)
1969-12-31 18:00:05.712232313,(-1 -1 0 2 -1 0 -1 1)
1969-12-31 18:00:05.712232313,(-2 -3 -5 -4 -1 0 0 -2)
1969-12-31 18:00:05.713021534,(-4 -6 -5 0 -1 0 -1 -2)
1969-12-31 18:00:05.713021534,(-9 -10 -8 -7 -5 -4 -6 -8)
1969-12-31 18:00:05.716967642,(3 8 6 -3 -2 -2 0 1)
1969-12-31 18:00:05.716967642,(3 -1 -1 -5 -2 -2 0 1)
1969-12-31 18:00:05.736698179,(15 26 24 9 5 3 5 7)
1969-12-31 18:00:05.736698179,(-16 -30 -24 -8 -5 -3 -4 -6)
1969-12-31 18:00:05.737487401,(-3 -1 -3 10 6 0 1 -2)
1969-12-31 18:00:05.737487401,(4 4 6 3 1 1 0 2)
1969-12-31 18:00:05.738276622,(7 6 -1 -5 -3 -2 -1 2)
1969-12-31 18:00:05.738276622,(-8 -10 -9 -13 -9 -7 4 -4)
1969-12-31 18:00:05.753271830,(7 13 23 15 7 20 19 4)
1969-12-31 18:00:05.753271830,(1 10 25 36 12 -7 -28 -2)
1969-12-31 18:00:05.754061052,(0 -10 -11 -12 -5 -6 5 0)
1969-12-31 18:00:05.754061052,(3 -1 -4 3 10 -2 -11 3)
1969-12-31 18:00:05.764320931,(-6 -12 -18 -9 -9 -4 2 -3)
1969-12-31 18:00:05.764320931,(-2 -1 -16 -32 -10 0 5 -4)
1969-12-31 18:00:05.776948475,(-10 -6 3 8 -7 -7 2 -5)
1969-12-31 18:00:05.776948475,(0 -4 -17 -33 -7 3 -5 -4)
1969-12-31 18:00:05.783262247,(-1 -5 -19 -28 -11 -10 -12 -1)
1969-12-31 18:00:05.783262247,(2 3 20 -4 4 6 8 2)
1969-12-31 18:00:05.783262247,(-11 -16 -36 -1 -3 1 0 -5)
1969-12-31 18:00:05.783262247,(12 25 65 77 15 0 0 4)
1969-12-31 18:00:05.800625120,(2 0 -9 3 7 10 -3 3)
1969-12-31 18:00:05.800625120,(0 12 16 21 3 -16 5 -5)
1969-12-31 18:00:05.801414341,(-11 -18 -26 -41 -9 12 -20 -8)
1969-12-31 18:00:05.801414341,(5 4 9 8 -2 -8 2 7)
1969-12-31 18:00:05.813252664,(-11 -15 -21 -23 -13 -9 -1 -8)
1969-12-31 18:00:05.813252664,(5 6 -21 -15 0 6 -5 2)
1969-12-31 18:00:05.818777214,(4 12 30 37 19 3 6 1)
1969-12-31 18:00:05.818777214,(-3 -8 -31 -48 -15 0 2 2)
1969-12-31 18:00:05.830615536,(-6 -11 1 19 -11 -13 -9 0)
1969-12-31 18:00:05.830615536,(-4 0 2 -6 7 6 1 -7)
1969-12-31 18:00:05.830615536,(-3 10 13 36 9 2 3 -3)
1969-12-31 18:00:05.830615536,(-1 5 20 21 10 7 2 -1)
1969-12-31 18:00:05.847978409,(0 -9 -20 -10 -3 -1 5 4)
1969-12-31 18:00:05.847978409,(-6 -5 -52 -59 -22 -7 -12 -15)
1969-12-31 18:00:05.848767631,(9 5 50 41 6 -1 3 10)
1969-12-31 18:00:05.848767631,(1 0 21 7 4 4 11 10)
1969-12-31 18:00:05.859816731,(-2 -13 -12 -11 3 7 13 13)
1969-12-31 18:00:05.859816731,(5 -5 0 3 -10 -5 -3 2)
1969-12-31 18:00:05.866130503,(-10 -14 -29 -33 -10 -3 -4 -6)
1969-12-31 18:00:05.866130503,(6 16 -11 2 -11 -13 -8 -12)
1969-12-31 18:00:05.877179604,(6 17 37 32 23 5 -9 -11)
1969-12-31 18:00:05.877968826,(-9 -36 -23 4 5 15 23 29)
1969-12-31 18:00:05.877968826,(8 15 2 -33 -17 -13 -11 -8)
1969-12-31 18:00:05.877968826,(-9 -18 -26 -22 -10 -2 2 -2)
1969-12-31 18:00:05.895331699,(1 4 2 0 -1 7 7 17)
1969-12-31 18:00:05.895331699,(2 13 25 18 6 -1 -7 -16)
1969-12-31 18:00:05.896120920,(-6 -9 -9 1 7 1 1 -5)
1969-12-31 18:00:05.896120920,(2 0 -4 1 3 8 6 10)
1969-12-31 18:00:05.906380799,(1 -3 6 -7 -8 -10 -9 -8)
1969-12-31 18:00:05.906380799,(-2 -3 -7 -5 -4 -3 0 -5)
1969-12-31 18:00:05.913483793,(1 -3 4 1 -1 1 4 8)
1969-12-31 18:00:05.913483793,(3 4 -7 -1 -1 1 -5 -4)
1969-12-31 18:00:05.931635887,(-1 6 -8 -19 -4 -3 -4 -4)
1969-12-31 18:00:05.931635887,(2 7 11 10 -1 1 2 6)
1969-12-31 18:00:05.932425109,(2 3 -5 4 -1 -4 -7 -7)
1969-12-31 18:00:05.932425109,(-2 -4 -2 -15 -1 2 0 1)
1969-12-31 18:00:05.943474209,(-5 -1 2 6 1 -3 -4 -8)
1969-12-31 18:00:05.943474209,(-7 -14 -2 11 0 -2 -2 -1)
1969-12-31 18:00:05.944263431,(0 0 -1 -6 -3 -2 0 0)
1969-12-31 18:00:05.944263431,(-3 14 2 0 3 3 -3 -7)
1969-12-31 18:00:05.960837082,(-5 -11 3 7 -1 -2 -1 -4)
1969-12-31 18:00:05.960837082,(-6 -35 -16 1 -3 -3 0 0)
1969-12-31 18:00:05.961626304,(-7 -16 -25 -18 -6 1 5 3)
1969-12-31 18:00:05.961626304,(10 26 22 15 6 1 -3 -5)
1969-12-31 18:00:05.984513727,(0 1 -4 2 0 -5 -6 -5)
1969-12-31 18:00:05.984513727,(4 20 17 2 0 2 2 2)
1969-12-31 18:00:05.985302948,(-9 -22 -12 -1 0 -2 -1 -2)
1969-12-31 18:00:05.985302948,(4 13 12 3 -1 -1 -2 -5)
1969-12-31 18:00:05.990038277,(10 -7 -9 -8 -5 -4 -3 4)
1969-12-31 18:00:05.990038277,(-4 -6 -1 1 2 3 2 1)
1969-12-31 18:00:05.990827499,(-4 -23 -13 -9 -5 -5 -7 -10)
1969-12-31 18:00:05.990827499,(-26 -2 -16 -2 3 4 3 -1)
1969-12-31 18:00:06.014504143,(7 83 60 8 -1 -2 -4 -10)
1969-12-31 18:00:06.014504143,(14 1 -2 2 -2 -1 2 12)
1969-12-31 18:00:06.015293365,(-14 11 3 0 -6 -8 -13 -19)
1969-12-31 18:00:06.015293365,(33 -16 -7 -5 -1 1 7 17)
1969-12-31 18:00:06.020028694,(-58 -54 -31 -12 -6 -6 -9 -19)
1969-12-31 18:00:06.020028694,(5 28 12 4 2 1 3 8)
1969-12-31 18:00:06.020028694,(18 5 5 -1 0 1 -1 -11)
1969-12-31 18:00:06.020028694,(19 6 -2 -3 2 1 5 19)
1969-12-31 18:00:06.037391567,(-20 -17 -10 -7 -6 -6 -8 -17)
1969-12-31 18:00:06.037391567,(-25 -9 4 2 -1 -2 -3 -10)
1969-12-31 18:00:06.038180788,(-11 3 2 1 6 5 9 7)
1969-12-31 18:00:06.038180788,(-4 -19 -7 -5 -6 -5 -4 9)
1969-12-31 18:00:06.056332882,(-4 -18 -14 -7 -6 -3 -8 -20)
1969-12-31 18:00:06.056332882,(3 5 -6 -4 -1 0 0 -9)
1969-12-31 18:00:06.056332882,(41 17 8 3 2 3 6 29)
1969-12-31 18:00:06.056332882,(-5 5 -2 -2 -4 -4 2 3)
1969-12-31 18:00:06.073695755,(13 0 -2 3 4 5 9 7)
1969-12-31 18:00:06.073695755,(-36 -7 0 1 1 3 -4 -20)
1969-12-31 18:00:06.074484977,(-18 -7 -1 -2 -2 -12 -30 -30)
1969-12-31 18:00:06.074484977,(0 2 7 3 3 -7 21 38)
1969-12-31 18:00:06.084744856,(17 6 -6 -2 -2 -11 -32 -36)
1969-12-31 18:00:06.084744856,(-17 -33 -10 -7 1 19 36 15)
1969-12-31 18:00:06.085534077,(24 24 7 4 2 3 -4 8)
1969-12-31 18:00:06.085534077,(-8 -14 -11 -10 -8 2 -8 -23)
1969-12-31 18:00:06.102896950,(-10 10 10 8 4 1 13 16)
1969-12-31 18:00:06.103686172,(34 15 6 6 -2 -3 5 7)
1969-12-31 18:00:06.103686172,(-82 -37 -15 -5 1 -4 -4 -17)
1969-12-31 18:00:06.103686172,(-10 -13 -6 -4 -3 -2 -10 -12)
1969-12-31 18:00:06.114735273,(25 17 9 6 3 7 9 13)
1969-12-31 18:00:06.114735273,(7 4 -2 -1 -2 0 -8 -2)
1969-12-31 18:00:06.114735273,(7 -9 -4 -2 -3 1 13 13)
1969-12-31 18:00:06.114735273,(-3 9 4 3 3 0 -5 -20)
1969-12-31 18:00:06.132098145,(20 19 9 7 6 5 4 10)
1969-12-31 18:00:06.132098145,(-1 -3 -2 -4 -5 -9 -7 -9)
1969-12-31 18:00:06.132887367,(17 -2 -2 -3 -4 -6 -9 9)
1969-12-31 18:00:06.132887367,(-23 -1 -2 -4 -3 -4 -15 -44)
1969-12-31 18:00:06.156564012,(35 -14 -14 -7 -7 0 2 61)
1969-12-31 18:00:06.156564012,(-21 13 9 8 2 -2 -10 -23)
1969-12-31 18:00:06.157353233,(7 -7 -5 -3 -1 2 7 8)
1969-12-31 18:00:06.157353233,(-7 -20 -8 -5 -1 -2 -9 -12)
1969-12-31 18:00:06.162088562,(-7 -3 4 5 4 3 8 -25)
1969-12-31 18:00:06.162088562,(17 29 5 1 1 -5 -4 0)
1969-12-31 18:00:06.162877783,(22 -7 2 0 -2 9 18 44)
1969-12-31 18:00:06.162877783,(-14 17 9 7 1 -24 -9 -20)
1969-12-31 18:00:06.179451435,(-4 -22 -11 -5 1 12 -21 -5)
1969-12-31 18:00:06.179451435,(1 -2 -6 -4 -3 -3 5 13)
1969-12-31 18:00:06.180240656,(-2 0 0 1 2 1 -2 -16)
1969-12-31 18:00:06.180240656,(10 0 0 1 1 6 13 45)
1969-12-31 18:00:06.197603529,(-8 5 9 7 4 1 12 1)
1969-12-31 18:00:06.197603529,(10 -11 -12 -7 -7 -10 -10 20)
1969-12-31 18:00:06.198392750,(-11 -5 -4 -2 -2 1 20 18)
1969-12-31 18:00:06.198392750,(2 -10 -7 -4 -7 3 -9 9)
1969-12-31 18:00:06.209441851,(2 14 5 1 0 -4 -24 -18)
1969-12-31 18:00:06.209441851,(-40 -24 -4 -2 -4 -2 -12 -38)
1969-12-31 18:00:06.209441851,(45 22 3 -2 0 10 34 24)
1969-12-31 18:00:06.209441851,(-63 -24 -2 2 -1 -24 -12 -39)
1969-12-31 18:00:06.226804724,(-4 -1 -6 -5 1 21 29 -12)
1969-12-31 18:00:06.226804724,(22 6 -3 -4 -2 6 2 4)
1969-12-31 18:00:06.227593946,(21 8 4 2 -2 -6 -12 26)
1969-12-31 18:00:06.227593946,(29 19 9 3 4 10 -3 -17)
1969-12-31 18:00:06.244956818,(-13 -2 -4 -4 -3 -8 -4 -15)
1969-12-31 18:00:06.244956818,(-27 -32 -16 -8 -8 -10 -1 -10)
1969-12-31 18:00:06.245746040,(6 7 -9 -9 -4 8 24 13)
1969-12-31 18:00:06.245746040,(10 7 15 14 12 31 11 8)
1969-12-31 18:00:06.256795141,(0 -6 -10 -9 -7 -27 -20 15)
1969-12-31 18:00:06.256795141,(7 -4 6 4 1 -7 -1 5)
1969-12-31 18:00:06.256795141,(16 9 -5 -4 -5 -15 -23 13)
1969-12-31 18:00:06.257584362,(3 -12 -18 -16 -15 -1 25 -5)
1969-12-31 18:00:06.274158013,(0 4 1 0 1 8 19 31)
1969-12-31 18:00:06.274158013,(1 -8 -6 -1 2 1 3 7)
1969-12-31 18:00:06.274947235,(-13 13 17 12 13 16 -24 -45)
1969-12-31 18:00:06.274947235,(-35 -5 -3 -2 -6 -28 15 -23)
1969-12-31 18:00:06.298623880,(18 -16 -8 -5 -5 -5 -4 10)
1969-12-31 18:00:06.298623880,(38 46 2 -8 -11 -14 -9 18)
1969-12-31 18:00:06.299413101,(-28 -29 -1 2 1 -5 -28 -39)
1969-12-31 18:00:06.299413101,(10 7 -4 -3 -1 12 16 70)
1969-12-31 18:00:06.304148430,(-58 -29 -5 -2 -2 -9 -16 -43)
1969-12-31 18:00:06.304148430,(34 22 13 6 7 10 23 18)
1969-12-31 18:00:06.304148430,(-11 15 8 8 10 -14 16 -28)
1969-12-31 18:00:06.304148430,(15 1 -3 -4 -2 -3 -94 -50)
1969-12-31 18:00:06.321511303,(40 24 15 6 1 -6 24 46)
1969-12-31 18:00:06.321511303,(-54 -20 -1 5 5 1 -25 -43)
1969-12-31 18:00:06.322300524,(26 5 9 2 -4 -10 28 98)
1969-12-31 18:00:06.322300524,(42 12 -11 -5 1 -4 8 -66)
1969-12-31 18:00:06.340452619,(36 23 1 -3 -2 6 3 23)
1969-12-31 18:00:06.340452619,(-6 0 7 5 5 15 -49 -31)
1969-12-31 18:00:06.340452619,(-20 -15 -7 -10 -12 -15 1 -44)
1969-12-31 18:00:06.340452619,(-21 -13 -8 -6 -5 -8 -12 -7)
1969-12-31 18:00:06.351501719,(-4 -4 7 7 6 13 6 -10)
1969-12-31 18:00:06.351501719,(10 -63 -38 -21 -15 -7 10 46)
1969-12-31 18:00:06.351501719,(-34 -12 -4 2 4 16 -2 -37)
1969-12-31 18:00:06.351501719,(52 1 1 -1 0 6 1 -5)
1969-12-31 18:00:06.368864592,(2 28 10 1 -3 -16 -10 -11)
1969-12-31 18:00:06.368864592,(-42 1 -1 -3 -3 -7 -4 -38)
1969-12-31 18:00:06.369653814,(-36 -5 -1 -1 0 4 -10 -26)
1969-12-31 18:00:06.369653814,(-3 19 5 2 4 6 17 22)
1969-12-31 18:00:06.387805908,(39 10 13 10 9 3 -30 39)
1969-12-31 18:00:06.387805908,(-19 -26 -14 -3 3 -1 0 -24)
1969-12-31 18:00:06.388595129,(49 9 0 -4 -7 0 2 20)
1969-12-31 18:00:06.388595129,(-35 -13 -6 -8 -8 1 -6 -21)
1969-12-31 18:00:06.398855009,(0 -5 4 4 0 -5 -4 -12)
1969-12-31 18:00:06.398855009,(-3 8 5 2 1 2 -1 1)
1969-12-31 18:00:06.398855009,(34 19 4 -1 -2 -6 -19 -25)
1969-12-31 18:00:06.398855009,(-47 -13 2 2 7 21 29 45)
1969-12-31 18:00:06.416217882,(54 2 -5 -8 -6 -5 10 41)
1969-12-31 18:00:06.416217882,(-12 9 5 3 6 10 7 -43)
1969-12-31 18:00:06.417007103,(-44 36 4 -10 -18 -20 -36 -61)
1969-12-31 18:00:06.417007103,(47 -25 -11 -3 -3 -9 5 23)
1969-12-31 18:00:06.434369976,(-95 -39 -19 -7 -3 3 -9 -27)
1969-12-31 18:00:06.434369976,(-31 27 23 13 9 -3 24 -15)
1969-12-31 18:00:06.435159197,(38 -5 -14 -9 -7 -7 0 1)
1969-12-31 18:00:06.435159197,(-60 -13 8 6 3 -35 -50 -23)
1969-12-31 18:00:06.446208298,(-12 12 -7 -6 -10 -19 -8 -50)
1969-12-31 18:00:06.446208298,(21 -7 -1 1 5 -2 -8 -6)
1969-12-31 18:00:06.446208298,(60 6 7 3 -4 -20 26 38)
1969-12-31 18:00:06.446208298,(32 4 -8 -7 1 18 7 32)
1969-12-31 18:00:06.469884943,(-32 10 8 3 1 -10 -13 -27)
1969-12-31 18:00:06.469884943,(-37 -14 -2 -4 -9 -24 -3 12)
1969-12-31 18:00:06.470674164,(43 14 1 2 4 14 9 42)
1969-12-31 18:00:06.470674164,(-30 3 -2 -2 -1 28 36 16)
1969-12-31 18:00:06.481723265,(37 3 1 1 5 41 -24 -56)
1969-12-31 18:00:06.481723265,(40 31 7 1 -7 -6 13 40)
1969-12-31 18:00:06.482512487,(-36 -24 -10 -4 0 5 -20 -24)
1969-12-31 18:00:06.482512487,(-7 -10 -10 -9 -10 -6 20 27)
1969-12-31 18:00:06.492772366,(-27 -4 -3 0 2 7 9 10)
1969-12-31 18:00:06.492772366,(7 15 3 1 1 5 20 58)
1969-12-31 18:00:06.499086138,(-25 -26 1 9 13 0 -28 -12)
1969-12-31 18:00:06.499086138,(18 34 18 12 8 25 48 22)
1969-12-31 18:00:06.510924460,(53 -12 -11 -9 -11 -37 8 68)
1969-12-31 18:00:06.510924460,(10 6 -1 -4 -3 12 -28 -33)
1969-12-31 18:00:06.511713682,(67 6 0 1 -1 16 52 98)
1969-12-31 18:00:06.511713682,(-1 -5 -7 -6 -2 10 -10 -10)
1969-12-31 18:00:06.529076554,(-13 -12 -3 15 29 -17 21 -39)
1969-12-31 18:00:06.529076554,(18 -12 -8 -21 -51 6 2 31)
1969-12-31 18:00:06.529865776,(-31 2 4 1 -13 0 4 -7)
1969-12-31 18:00:06.529865776,(40 35 7 -6 -9 -19 -28 9)
1969-12-31 18:00:06.540125655,(-37 -60 -16 -13 2 13 56 -1)
1969-12-31 18:00:06.540125655,(-11 3 -2 7 17 3 -21 -41)
1969-12-31 18:00:06.546439427,(-21 3 -2 1 -1 7 35 18)
1969-12-31 18:00:06.546439427,(-21 -21 -4 4 2 -12 -7 -49)
1969-12-31 18:00:06.558277750,(-11 14 11 16 14 21 -7 8)
1969-12-31 18:00:06.558277750,(14 10 0 -4 0 -10 -4 0)
1969-12-31 18:00:06.559066971,(-2 -3 3 1 -4 12 12 -1)
1969-12-31 18:00:06.559066971,(-9 -13 -5 4 12 -5 -7 -6)
1969-12-31 18:00:06.577219064,(-13 -6 -3 -3 -3 4 1 8)
1969-12-31 18:00:06.577219064,(-7 -5 3 8 4 9 5 2)
1969-12-31 18:00:06.577219064,(-59 -9 -1 -7 -15 -11 -15 -51)
1969-12-31 18:00:06.577219064,(-31 -16 -4 4 -7 -21 2 -74)
1969-12-31 18:00:06.587478945,(-24 9 -4 -8 -8 -4 -40 -80)
1969-12-31 18:00:06.587478945,(13 4 1 -9 4 5 11 13)
1969-12-31 18:00:06.593792717,(43 18 -2 -2 -6 -37 -35 -53)
1969-12-31 18:00:06.593792717,(20 -2 1 16 38 40 0 36)
1969-12-31 18:00:06.606420260,(-40 2 2 -7 -27 -1 -1 -15)
1969-12-31 18:00:06.606420260,(26 -17 -9 -15 -11 -6 0 -11)
1969-12-31 18:00:06.607209482,(-27 -10 -6 -8 -11 -17 2 4)
1969-12-31 18:00:06.607209482,(-10 4 3 -3 -3 1 -8 0)
1969-12-31 18:00:06.623783133,(32 -1 -9 9 21 11 6 24)
1969-12-31 18:00:06.623783133,(-14 20 10 2 -18 -11 5 10)
1969-12-31 18:00:06.624572355,(-24 -40 -19 -10 0 9 -22 -23)
1969-12-31 18:00:06.624572355,(15 -6 -1 -2 -10 -8 14 5)
1969-12-31 18:00:06.634832234,(-13 16 11 5 -1 -10 -6 -36)
1969-12-31 18:00:06.634832234,(-29 -18 -15 14 16 -35 -15 -30)
1969-12-31 18:00:06.641146006,(-23 -21 -3 7 -4 -13 9 22)
1969-12-31 18:00:06.641146006,(-6 7 -2 -34 -25 24 1 3)
1969-12-31 18:00:06.652984328,(59 1 -10 -19 -22 24 18 47)
1969-12-31 18:00:06.652984328,(16 6 7 8 10 -4 3 7)
1969-12-31 18:00:06.653773550,(-11 -6 0 15 17 -7 -36 -29)
1969-12-31 18:00:06.653773550,(1 4 3 6 5 -6 -16 -5)
1969-12-31 18:00:06.671136423,(-14 -11 -5 -13 -21 -6 13 33)
1969-12-31 18:00:06.671136423,(-9 6 5 5 9 2 -11 -31)
1969-12-31 18:00:06.671925644,(-5 41 10 6 14 3 -15 -43)
1969-12-31 18:00:06.671925644,(-8 -37 -5 -1 1 14 0 2)
1969-12-31 18:00:06.682185523,(-3 3 -5 -15 -23 -20 -2 32)
1969-12-31 18:00:06.682185523,(-30 -36 -16 5 24 10 2 -18)
1969-12-31 18:00:06.689288517,(-8 24 -6 -10 2 -8 -5 -23)
1969-12-31 18:00:06.689288517,(33 -28 -17 -2 -23 -2 -12 27)
1969-12-31 18:00:06.700337618,(58 54 60 28 19 11 7 -12)
1969-12-31 18:00:06.700337618,(74 -20 -42 -27 -3 18 -4 11)
1969-12-31 18:00:06.706651389,(-26 16 17 -8 -11 1 3 10)
1969-12-31 18:00:06.706651389,(2 -62 -92 -20 7 -6 -5 -7)
1969-12-31 18:00:06.719278933,(-9 78 66 36 16 -5 1 -1)
1969-12-31 18:00:06.719278933,(39 57 47 35 5 1 2 16)
1969-12-31 18:00:06.720068155,(4 -36 -57 -16 -6 3 3 45)
1969-12-31 18:00:06.720068155,(27 36 48 19 11 0 5 -10)
1969-12-31 18:00:06.736641806,(24 -77 -64 -25 -16 -8 -17 16)
1969-12-31 18:00:06.736641806,(-5 -15 -35 -29 -4 16 10 20)
1969-12-31 18:00:06.738220249,(-27 -54 -6 2 1 -1 11 -3)
1969-12-31 18:00:06.738220249,(74 94 67 23 14 -1 -13 33)
1969-12-31 18:00:06.747690907,(-48 -65 -32 -10 11 20 5 -20)
1969-12-31 18:00:06.747690907,(-44 12 14 -3 -46 -38 -1 5)
1969-12-31 18:00:06.754793900,(25 -12 -11 -10 17 25 -5 -20)
1969-12-31 18:00:06.754793900,(-13 -51 -29 -8 -24 -22 8 60)
1969-12-31 18:00:06.765843001,(39 -5 -65 -16 -1 2 5 36)
1969-12-31 18:00:06.765843001,(-31 59 56 21 9 -14 12 3)
1969-12-31 18:00:06.767421444,(-12 -14 4 15 -1 26 15 10)
1969-12-31 18:00:06.767421444,(-17 38 -5 7 5 12 1 -13)
1969-12-31 18:00:06.783995096,(-7 25 42 22 15 -3 3 6)
1969-12-31 18:00:06.783995096,(-13 -99 -76 -12 19 16 0 17)
1969-12-31 18:00:06.784784317,(-15 -56 -66 -37 -29 -37 -22 -27)
1969-12-31 18:00:06.784784317,(-76 40 26 4 9 13 -1 -51)
1969-12-31 18:00:06.795833418,(-1 21 15 0 -13 -8 -2 -27)
1969-12-31 18:00:06.795833418,(45 -27 -27 -11 -12 3 8 38)
1969-12-31 18:00:06.797411861,(-57 21 39 17 -8 2 -2 -44)
1969-12-31 18:00:06.797411861,(-26 -31 -24 -22 -8 -21 -15 -25)
1969-12-31 18:00:06.813196291,(-7 26 12 16 18 -12 4 14)
1969-12-31 18:00:06.813196291,(-76 -54 -51 -32 -30 -6 -23 -54)
1969-12-31 18:00:06.814774734,(15 38 27 23 43 10 9 51)
1969-12-31 18:00:06.814774734,(40 7 -4 -15 -30 12 8 2)
1969-12-31 18:00:06.831348385,(29 53 63 16 8 7 7 28)
1969-12-31 18:00:06.831348385,(-3 21 44 34 19 6 -2 6)
1969-12-31 18:00:06.832137606,(27 -47 -54 -19 -13 -4 -8 -37)
1969-12-31 18:00:06.832926828,(-56 -21 -9 3 -10 -43 -6 -12)
1969-12-31 18:00:06.843186707,(17 21 9 -4 14 26 5 8)
1969-12-31 18:00:06.843186707,(-21 -61 -35 -27 -37 -21 -16 -33)
1969-12-31 18:00:06.844765150,(5 33 -15 -7 13 13 -1 -1)
1969-12-31 18:00:06.844765150,(69 73 89 45 42 21 26 66)
1969-12-31 18:00:06.860549580,(-50 -128 -128 -45 -46 -21 -8 15)
1969-12-31 18:00:06.860549580,(48 115 72 14 21 11 -6 -6)
1969-12-31 18:00:06.862128023,(-4 38 69 31 36 32 19 38)
1969-12-31 18:00:06.862128023,(3 -78 -67 -6 12 3 -5 -9)
1969-12-31 18:00:06.878701674,(-4 7 -1 -2 1 -8 7 8)
1969-12-31 18:00:06.878701674,(4 20 38 13 -8 -18 1 -7)
1969-12-31 18:00:06.879490896,(-22 -74 -83 -47 -9 -2 -27 -39)
1969-12-31 18:00:06.879490896,(-23 90 77 37 9 1 10 -4)
1969-12-31 18:00:06.889750775,(6 34 45 31 17 13 -12 11)
1969-12-31 18:00:06.889750775,(0 -28 -39 -30 -32 -3 2 3)
1969-12-31 18:00:06.895275326,(26 -31 -1 23 15 13 23 24)
1969-12-31 18:00:06.895275326,(-36 -97 -76 -46 -46 -30 -12 -18)
1969-12-31 18:00:06.907902869,(-55 -59 -75 -22 -4 -20 -21 -49)
1969-12-31 18:00:06.907902869,(8 30 41 23 17 5 12 32)
1969-12-31 18:00:06.909481312,(70 99 74 14 -3 9 8 54)
1969-12-31 18:00:06.909481312,(-37 -109 -78 -23 -6 -16 -19 -56)
1969-12-31 18:00:06.926054964,(57 72 16 8 4 -10 4 50)
1969-12-31 18:00:06.926054964,(36 67 44 21 29 28 1 1)
1969-12-31 18:00:06.927633407,(-26 12 28 5 -23 -16 -8 -8)
1969-12-31 18:00:06.927633407,(19 -24 -7 3 9 1 4 17)
1969-12-31 18:00:06.937104064,(-33 -73 -47 -24 -8 7 7 -44)
1969-12-31 18:00:06.937104064,(-9 -26 -38 -15 -23 -14 -7 12)
1969-12-31 18:00:06.942628615,(-8 3 23 16 -1 3 17 -5)
1969-12-31 18:00:06.942628615,(18 127 115 25 -19 -24 -10 18)
1969-12-31 18:00:06.956045380,(41 -27 -16 -5 -7 10 -10 14)
1969-12-31 18:00:06.956045380,(-33 -37 -38 18 47 -21 2 -18)
1969-12-31 18:00:06.956834601,(30 -93 -91 -46 -38 18 -3 -17)
1969-12-31 18:00:06.956834601,(-33 62 46 12 -2 10 10 -4)
1969-12-31 18:00:06.973408253,(5 11 7 -7 -9 -11 -20 -37)
1969-12-31 18:00:06.973408253,(-11 -31 -19 1 15 6 -7 -31)
1969-12-31 18:00:06.974986696,(4 -72 -40 -2 -1 -16 -4 12)
1969-12-31 18:00:06.974986696,(-3 -4 -91 -16 25 -9 -11 -17)
1969-12-31 18:00:06.984457354,(24 51 55 -6 -37 -9 -4 17)
1969-12-31 18:00:06.984457354,(-19 -31 7 20 -3 8 28 56)
1969-12-31 18:00:06.989981904,(22 84 13 2 5 1 16 44)
1969-12-31 18:00:06.989981904,(-14 -66 -19 4 0 -12 -28 -35)
1969-12-31 18:00:07.002609448,(-46 -54 -83 -22 -3 -11 -1 -18)
1969-12-31 18:00:07.002609448,(28 74 75 5 -4 -7 -5 22)
1969-12-31 18:00:07.004187891,(-55 1 -10 -3 -2 8 -10 -36)
1969-12-31 18:00:07.004187891,(50 82 97 18 3 18 19 13)
1969-12-31 18:00:07.020761542,(17 -30 -22 17 22 2 12 24)
1969-12-31 18:00:07.020761542,(-2 -91 -76 -33 -20 -6 -8 10)
1969-12-31 18:00:07.021550764,(29 -38 -29 -7 -3 -17 -10 -16)
1969-12-31 18:00:07.022339985,(-7 -43 -88 -15 -2 -34 -21 -37)
1969-12-31 18:00:07.031810643,(-96 -95 4 20 -1 23 0 -40)
1969-12-31 18:00:07.031810643,(35 88 -20 -30 -36 9 6 7)
1969-12-31 18:00:07.037335194,(-7 16 54 49 50 3 -5 18)
1969-12-31 18:00:07.037335194,(1 37 -12 -38 -46 31 19 8)
1969-12-31 18:00:07.049962737,(-63 -56 -35 -21 -16 -33 -27 -82)
1969-12-31 18:00:07.049962737,(-41 -85 -78 -19 -9 -20 -29 -46)
1969-12-31 18:00:07.051541180,(-28 37 7 0 -10 -23 -17 -13)
1969-12-31 18:00:07.051541180,(-3 19 66 36 35 20 7 20)
1969-12-31 18:00:07.068114832,(12 116 97 31 31 19 13 -4)
1969-12-31 18:00:07.068114832,(30 -73 -36 -16 -27 -11 -14 -23)
1969-12-31 18:00:07.068904053,(10 -72 -56 -16 -11 -12 -1 29)
1969-12-31 18:00:07.068904053,(-13 -95 -60 -20 -4 -1 6 16)
1969-12-31 18:00:07.079953154,(52 127 99 15 5 21 13 33)
1969-12-31 18:00:07.079953154,(-37 -102 -49 -3 11 -12 -8 -11)
1969-12-31 18:00:07.086266926,(-4 80 42 3 -10 -9 6 -8)
1969-12-31 18:00:07.086266926,(25 -9 -18 -8 3 9 -1 0)
1969-12-31 18:00:07.097316027,(14 -128 -113 -23 3 -6 15 42)
1969-12-31 18:00:07.097316027,(28 125 96 36 31 45 20 15)
1969-12-31 18:00:07.116257343,(-12 -38 0 14 2 -3 3 -6)
1969-12-31 18:00:07.116257343,(-15 -82 -72 -11 -3 -11 -3 6)
1969-12-31 18:00:07.116257343,(-15 -28 -19 -1 -1 -12 -9 2)
1969-12-31 18:00:07.116257343,(-28 96 50 -6 -26 -40 -2 -14)
1969-12-31 18:00:07.117835786,(-58 88 113 35 40 58 -5 -74)
1969-12-31 18:00:07.117835786,(1 -39 -16 -4 -4 10 2 -8)
1969-12-31 18:00:07.126517222,(-23 -64 -62 -8 -3 -18 -11 -22)
1969-12-31 18:00:07.126517222,(-16 -35 -25 -23 -22 -16 -21 -20)
1969-12-31 18:00:07.133620215,(11 25 16 14 14 -11 8 -7)
1969-12-31 18:00:07.133620215,(-20 -21 -9 -20 -34 -12 -6 4)
1969-12-31 18:00:07.144669316,(-3 10 -13 -10 -14 -21 -1 16)
1969-12-31 18:00:07.144669316,(1 -12 -6 25 57 43 23 6)
1969-12-31 18:00:07.146247759,(37 -37 -30 -61 -67 -8 -9 -6)
1969-12-31 18:00:07.146247759,(33 -73 -94 -24 -4 -5 11 61)
1969-12-31 18:00:07.162821410,(4 121 113 30 7 -4 -6 -9)
1969-12-31 18:00:07.162821410,(83 102 103 63 44 30 13 25)
1969-12-31 18:00:07.163610632,(19 -81 -51 -4 -1 -5 9 45)
1969-12-31 18:00:07.163610632,(-23 -44 -5 -7 -6 -8 -10 -26)
1969-12-31 18:00:07.173870511,(8 -32 -41 -14 -11 -13 1 4)
1969-12-31 18:00:07.173870511,(-12 -61 -47 -2 8 10 1 13)
1969-12-31 18:00:07.180973505,(-9 25 16 -3 -7 20 4 -5)
1969-12-31 18:00:07.180973505,(2 30 28 11 2 6 11 12)
1969-12-31 18:00:07.192022606,(-5 20 -16 -10 2 -7 -18 -35)
1969-12-31 18:00:07.192022606,(-31 -78 -46 -13 -20 -9 -5 -6)
1969-12-31 18:00:07.193601049,(-17 54 15 -3 -2 0 0 3)
1969-12-31 18:00:07.193601049,(-40 26 27 12 4 -18 -20 -46)
1969-12-31 18:00:07.210174700,(1 11 -1 -3 -6 6 13 43)
1969-12-31 18:00:07.210174700,(-45 -73 -33 -7 8 17 -1 -53)
1969-12-31 18:00:07.210963921,(24 -35 -75 -31 -28 -29 -24 -12)
1969-12-31 18:00:07.210963921,(13 58 55 12 9 -2 -5 -2)
1969-12-31 18:00:07.221223801,(-9 63 58 24 15 24 14 -10)
1969-12-31 18:00:07.221223801,(15 -25 -22 -4 4 -36 -15 -30)
1969-12-31 18:00:07.228326794,(-42 -13 -13 -9 -2 31 -4 -34)
1969-12-31 18:00:07.228326794,(-17 -70 -47 -17 -16 -25 -5 -20)
1969-12-31 18:00:07.239375895,(15 -19 -19 -2 -3 -12 -16 -27)
1969-12-31 18:00:07.239375895,(-13 -6 32 8 3 1 -12 7)
1969-12-31 18:00:07.240954338,(37 100 59 5 -2 -20 12 38)
1969-12-31 18:00:07.240954338,(15 3 4 10 10 16 -2 -11)
1969-12-31 18:00:07.257527989,(-18 -66 -31 -8 2 8 -8 -4)
1969-12-31 18:00:07.257527989,(36 22 13 11 1 -4 17 29)
1969-12-31 18:00:07.262263318,(12 -63 -39 5 -2 -21 2 49)
1969-12-31 18:00:07.262263318,(-12 42 34 -7 -17 -11 -16 -24)
1969-12-31 18:00:07.268577090,(-2 14 11 -6 -10 16 1 -9)
1969-12-31 18:00:07.268577090,(-22 14 -25 -24 -12 -1 -7 -22)
1969-12-31 18:00:07.275680083,(3 -85 -47 -1 8 -7 -6 -4)
1969-12-31 18:00:07.275680083,(32 83 45 1 4 -14 9 23)
1969-12-31 18:00:07.286729184,(-36 -61 -41 -7 3 -4 -38 -51)
1969-12-31 18:00:07.286729184,(-41 -51 -25 3 27 12 29 69)
1969-12-31 18:00:07.288307627,(-24 71 36 8 2 4 -19 -60)
1969-12-31 18:00:07.288307627,(-14 23 26 2 -7 26 2 4)
1969-12-31 18:00:07.304881279,(-10 -46 -36 -26 -29 -20 6 -3)
1969-12-31 18:00:07.304881279,(-3 -61 -43 -16 2 4 -10 2)
1969-12-31 18:00:07.306459722,(-26 -29 0 12 20 -16 5 16)
1969-12-31 18:00:07.306459722,(49 -4 -34 -7 -11 -8 -11 -13)
1969-12-31 18:00:07.315930379,(14 83 77 11 -3 15 26 37)
1969-12-31 18:00:07.315930379,(8 29 2 5 11 12 16 10)
1969-12-31 18:00:07.322244151,(-2 -36 -16 -5 -18 -19 -4 6)
1969-12-31 18:00:07.322244151,(6 -33 -16 -3 7 8 0 14)
1969-12-31 18:00:07.334871695,(-6 -81 -43 2 6 10 8 -9)
1969-12-31 18:00:07.334871695,(28 116 100 35 32 25 6 -6)
1969-12-31 18:00:07.335660917,(-4 -23 10 -12 -8 4 -12 -23)
1969-12-31 18:00:07.335660917,(11 36 23 1 -10 -8 17 66)
1969-12-31 18:00:07.352234568,(-6 -5 9 -6 -18 -33 -22 -43)
1969-12-31 18:00:07.352234568,(20 -18 -25 -11 -17 3 6 6)
1969-12-31 18:00:07.353023789,(3 -48 -45 -16 -5 1 7 34)
1969-12-31 18:00:07.353023789,(-44 41 32 11 14 -11 -5 -36)
1969-12-31 18:00:07.363283669,(-8 -36 -25 -10 -20 -8 2 7)
1969-12-31 18:00:07.363283669,(26 -15 -16 -10 0 16 -6 -1)
1969-12-31 18:00:07.369597441,(57 26 21 26 29 16 14 24)
1969-12-31 18:00:07.369597441,(-10 -66 -42 -13 -8 7 10 7)
1969-12-31 18:00:07.381435763,(33 63 35 16 13 -5 4 30)
1969-12-31 18:00:07.381435763,(-8 12 11 -4 -14 -17 -11 -25)
1969-12-31 18:00:07.392484864,(-1 -20 -4 -1 -26 -15 6 34)
1969-12-31 18:00:07.392484864,(-21 -74 -70 -7 26 28 0 -20)
1969-12-31 18:00:07.399587857,(15 127 127 40 9 5 18 -3)
1969-12-31 18:00:07.399587857,(-22 -120 -63 -24 -19 -27 -14 -10)
1969-12-31 18:00:07.400377079,(29 29 33 26 26 14 2 -5)
1969-12-31 18:00:07.401166300,(-33 2 16 -5 -12 -11 -6 -13)
1969-12-31 18:00:07.409847737,(-41 -128 -128 -35 -10 -1 4 -7)
1969-12-31 18:00:07.410636958,(9 37 -55 -38 -24 6 -2 10)
1969-12-31 18:00:07.417739952,(-1 71 81 45 17 2 13 -8)
1969-12-31 18:00:07.417739952,(-13 -115 -85 -10 -8 0 -12 -30)
1969-12-31 18:00:07.428789052,(29 21 14 11 2 -8 -4 -6)
1969-12-31 18:00:07.428789052,(-25 20 13 -8 -20 -6 -1 0)
1969-12-31 18:00:07.434313603,(-26 -64 -55 -39 -16 4 5 25)
1969-12-31 18:00:07.434313603,(31 -24 -35 6 5 -18 1 16)
1969-12-31 18:00:07.446941147,(-50 17 -2 -13 6 24 -16 -18)
1969-12-31 18:00:07.446941147,(21 26 57 42 21 12 21 26)
1969-12-31 18:00:07.448519590,(-43 -74 -82 -55 -49 -17 -20 -35)
1969-12-31 18:00:07.448519590,(29 103 90 22 11 -5 -5 -14)
1969-12-31 18:00:07.457990247,(35 -46 -49 -2 13 -3 24 60)
1969-12-31 18:00:07.457990247,(-9 118 127 37 21 6 -15 -36)
1969-12-31 18:00:07.465093241,(-18 -26 -44 -12 27 28 21 2)
1969-12-31 18:00:07.465093241,(-25 -36 -18 -13 -8 -6 -13 -5)
1969-12-31 18:00:07.476142342,(23 4 1 8 5 2 2 11)
1969-12-31 18:00:07.476142342,(-13 -39 -33 -31 -12 0 1 -8)
1969-12-31 18:00:07.482456114,(-19 -43 -11 14 11 -5 -1 -2)
1969-12-31 18:00:07.482456114,(13 76 47 26 22 -21 -21 -28)
1969-12-31 18:00:07.494294436,(12 28 4 -18 -14 17 -3 4)
1969-12-31 18:00:07.494294436,(7 -85 -62 -10 -9 -14 12 64)
1969-12-31 18:00:07.495872879,(6 39 17 -9 -9 -20 -15 -38)
1969-12-31 18:00:07.495872879,(6 29 15 -6 -22 17 11 18)
1969-12-31 18:00:07.511657309,(4 -42 -17 11 12 8 6 8)
1969-12-31 18:00:07.511657309,(5 30 -4 0 -9 -19 -19 -35)
1969-12-31 18:00:07.513235752,(-14 -61 -5 12 29 6 4 6)
1969-12-31 18:00:07.513235752,(4 3 -37 -19 -1 -12 2 15)
1969-12-31 18:00:07.523495631,(15 104 90 20 -22 -8 0 10)
1969-12-31 18:00:07.523495631,(-1 -77 -52 -18 -27 -21 -13 -19)
1969-12-31 18:00:07.525074074,(-17 -42 -33 -17 -13 12 8 12)
1969-12-31 18:00:07.525074074,(10 49 45 36 32 11 5 -16)
1969-12-31 18:00:07.541647725,(-37 -111 -88 -49 -26 17 -16 -28)
1969-12-31 18:00:07.541647725,(19 55 34 14 14 -1 13 11)
1969-12-31 18:00:07.543226168,(-12 17 12 3 9 3 -10 -27)
1969-12-31 18:00:07.543226168,(-10 -47 -37 -26 -41 -17 2 14)
1969-12-31 18:00:07.559799820,(32 -5 -9 7 32 -1 7 22)
1969-12-31 18:00:07.559799820,(0 32 35 14 -14 -19 2 7)
1969-12-31 18:00:07.560589041,(-8 -66 -53 -15 -4 16 0 -9)
1969-12-31 18:00:07.560589041,(48 93 77 27 31 26 22 27)
1969-12-31 18:00:07.570848920,(-5 -7 -5 9 23 -7 -19 -11)
1969-12-31 18:00:07.570848920,(-10 -26 4 -13 -22 -4 -15 -13)
1969-12-31 18:00:07.576373470,(29 -12 -16 2 -13 -11 4 26)
1969-12-31 18:00:07.576373470,(6 22 30 10 32 25 3 16)
1969-12-31 18:00:07.589001015,(-34 -56 -97 -37 -20 -1 -1 -15)
1969-12-31 18:00:07.589001015,(41 108 94 72 33 13 4 -6)
1969-12-31 18:00:07.590579458,(10 -47 -46 1 -4 -9 -5 -31)
1969-12-31 18:00:07.590579458,(-11 -84 -72 -25 -15 -15 -18 -18)
1969-12-31 18:00:07.606363887,(-2 28 45 20 27 13 3 -2)
1969-12-31 18:00:07.606363887,(-45 -127 -96 -50 -25 -13 -21 -36)
1969-12-31 18:00:07.607942330,(51 127 77 19 5 -3 0 18)
1969-12-31 18:00:07.607942330,(-17 -59 -1 11 9 24 17 -2)
1969-12-31 18:00:07.618202210,(18 -26 -16 -2 -4 -19 -8 4)
1969-12-31 18:00:07.618202210,(-6 -48 -54 -22 4 26 -3 7)
1969-12-31 18:00:07.623726760,(9 72 68 10 4 -5 -3 -6)
1969-12-31 18:00:07.623726760,(0 -30 -39 -22 -8 -7 -2 20)
1969-12-31 18:00:07.636354304,(-9 95 91 28 -3 -14 -14 -15)
1969-12-31 18:00:07.636354304,(-10 -35 -28 -7 5 -5 9 0)
1969-12-31 18:00:07.637143526,(-15 -1 22 26 10 15 7 7)
1969-12-31 18:00:07.637932747,(1 59 27 2 14 -5 -10 -11)
1969-12-31 18:00:07.653717177,(9 -7 21 2 -26 -17 -2 -13)
1969-12-31 18:00:07.653717177,(12 -30 -21 -5 2 17 23 48)
1969-12-31 18:00:07.655295620,(-19 -17 8 -1 -9 -8 -17 -2)
1969-12-31 18:00:07.655295620,(1 -5 -24 3 -3 -14 5 -3)
1969-12-31 18:00:07.665555499,(-33 -25 -11 -27 -6 13 -12 -7)
1969-12-31 18:00:07.665555499,(5 13 -12 -16 -14 -14 -1 -12)
1969-12-31 18:00:07.671080050,(-21 -96 -78 -27 -13 -10 -6 2)
1969-12-31 18:00:07.671080050,(25 58 65 26 16 13 2 14)
1969-12-31 18:00:07.683707593,(18 -34 -38 -5 4 -6 9 20)
1969-12-31 18:00:07.683707593,(1 75 43 13 12 -4 -20 -42)
1969-12-31 18:00:07.684496815,(2 62 49 12 -1 -13 6 -15)
1969-12-31 18:00:07.684496815,(-14 -127 -128 -52 -42 -3 -9 -5)
1969-12-31 18:00:07.701859688,(36 121 115 74 31 5 9 1)
1969-12-31 18:00:07.701859688,(-2 -117 -89 -10 -3 0 3 21)
1969-12-31 18:00:07.702648908,(-11 0 9 11 11 1 0 -29)
1969-12-31 18:00:07.702648908,(-8 -96 -41 -5 -2 -34 9 51)
1969-12-31 18:00:07.712119567,(7 51 13 -17 -5 41 5 -5)
1969-12-31 18:00:07.712119567,(14 3 -6 6 4 -4 12 3)
1969-12-31 18:00:07.719222560,(-5 0 -3 -21 -9 5 -2 5)
1969-12-31 18:00:07.719222560,(-26 -38 -9 4 -4 -4 1 -41)
1969-12-31 18:00:07.731060883,(-15 -14 -24 -1 21 6 0 -5)
1969-12-31 18:00:07.731060883,(-3 -10 -4 -11 -21 -17 -16 0)
1969-12-31 18:00:07.731850104,(-1 -6 18 23 6 11 7 17)
1969-12-31 18:00:07.731850104,(3 -16 15 -5 7 28 -7 -7)
1969-12-31 18:00:07.748423756,(2 64 27 22 11 -18 8 -19)
1969-12-31 18:00:07.748423756,(-17 -28 -68 -12 31 -7 -30 -45)
1969-12-31 18:00:07.750002199,(-10 -39 -23 -27 -33 10 3 8)
1969-12-31 18:00:07.750002199,(-39 -45 -2 0 -24 -14 -6 -34)
1969-12-31 18:00:07.759472856,(-20 -63 -67 -30 -13 -5 -15 -31)
1969-12-31 18:00:07.759472856,(1 18 45 24 7 -4 11 33)
1969-12-31 18:00:07.766575850,(24 37 -11 7 19 6 7 28)
1969-12-31 18:00:07.766575850,(54 44 13 6 -1 -12 -19 12)
1969-12-31 18:00:07.783938723,(-12 -8 21 -10 -19 17 13 2)
1969-12-31 18:00:07.783938723,(6 -3 1 -18 -34 -23 -4 10)
1969-12-31 18:00:07.785517166,(-11 -70 -60 -21 17 19 8 -6)
1969-12-31 18:00:07.785517166,(13 116 81 20 7 14 -2 -10)
1969-12-31 18:00:07.795777045,(-20 -128 -102 -24 -1 -22 -14 11)
1969-12-31 18:00:07.795777045,(3 120 101 40 1 -6 8 2)
1969-12-31 18:00:07.797355488,(-7 1 -4 -9 -1 11 -12 -32)
1969-12-31 18:00:07.797355488,(-9 108 63 17 7 -2 3 -3)
1969-12-31 18:00:07.806826146,(24 -88 -64 -4 13 -27 4 70)
1969-12-31 18:00:07.806826146,(7 7 14 -15 -30 9 2 -1)
1969-12-31 18:00:07.813929139,(-36 -80 -32 0 12 -11 6 1)
1969-12-31 18:00:07.813929139,(-52 -63 -35 -17 -23 -3 -19 -45)
1969-12-31 18:00:07.832081233,(29 27 -42 -27 -33 1 11 28)
1969-12-31 18:00:07.832081233,(6 22 41 24 42 22 0 12)
1969-12-31 18:00:07.832870455,(-28 -18 9 12 -11 -15 -7 -34)
1969-12-31 18:00:07.832870455,(3 -35 -52 -23 -22 9 6 15)
1969-12-31 18:00:07.843130334,(0 -32 -11 5 8 0 5 -6)
1969-12-31 18:00:07.843130334,(-14 11 -5 -23 -32 -8 -14 -27)
1969-12-31 18:00:07.844708777,(22 47 53 15 8 -7 -2 2)
1969-12-31 18:00:07.844708777,(-13 -5 -57 -15 7 -26 -1 -1)
1969-12-31 18:00:07.854968657,(18 65 66 46 25 23 -11 -25)
1969-12-31 18:00:07.854968657,(-37 -81 -38 0 -5 -9 2 -18)
1969-12-31 18:00:07.860493207,(-12 51 11 -9 -11 -1 -18 -15)
1969-12-31 18:00:07.860493207,(-12 -99 -57 -23 -8 14 17 2)
1969-12-31 18:00:07.879434523,(-29 -61 -44 -32 -20 -31 -15 -11)
1969-12-31 18:00:07.879434523,(0 -4 -31 -17 0 1 -16 -12)
1969-12-31 18:00:07.880223744,(35 80 71 52 20 -4 7 15)
1969-12-31 18:00:07.880223744,(13 -18 5 19 15 -3 1 3)
1969-12-31 18:00:07.890483624,(-27 -47 -31 -25 -26 4 3 -6)
1969-12-31 18:00:07.890483624,(-16 50 32 23 16 24 6 -8)
1969-12-31 18:00:07.892062067,(-9 -20 -41 -35 -21 -8 6 25)
1969-12-31 18:00:07.892062067,(3 -8 -2 -6 18 15 -7 -10)
1969-12-31 18:00:07.901532725,(16 56 102 44 39 24 22 26)
1969-12-31 18:00:07.901532725,(-3 -30 -69 -28 -11 -9 2 1)
1969-12-31 18:00:07.921263262,(-39 6 32 28 3 -26 -43 -60)
1969-12-31 18:00:07.921263262,(-13 89 72 3 -22 -31 0 -19)
1969-12-31 18:00:07.921263262,(-14 -23 -23 -24 -11 26 -17 -17)
1969-12-31 18:00:07.921263262,(22 -36 -44 -1 4 2 21 25)
1969-12-31 18:00:07.922841705,(60 4 2 -1 9 12 -2 14)
1969-12-31 18:00:07.922841705,(-31 -58 -33 -6 -3 -14 -7 -24)
1969-12-31 18:00:07.944150685,(1 53 11 -5 -7 -19 -21 -35)
1969-12-31 18:00:07.944150685,(72 116 126 63 26 32 30 50)
1969-12-31 18:00:07.944939906,(-16 -82 -92 -14 11 -10 -7 -9)
1969-12-31 18:00:07.944939906,(-45 -104 -57 -11 -23 -11 -10 -8)
1969-12-31 18:00:07.948886014,(34 76 49 3 1 26 18 23)
1969-12-31 18:00:07.948886014,(-38 -58 -46 -25 -19 -26 -20 -26)
1969-12-31 18:00:07.955989007,(6 9 4 -6 -19 1 11 17)
1969-12-31 18:00:07.955989007,(31 31 8 12 14 30 7 6)
1969-12-31 18:00:07.967827330,(-51 -5 19 25 17 1 1 -21)
1969-12-31 18:00:07.967827330,(21 49 23 -7 -16 -2 0 9)
1969-12-31 18:00:07.969405773,(-49 -107 -91 -32 6 -20 -8 2)
1969-12-31 18:00:07.969405773,(49 115 73 27 8 23 13 26)
1969-12-31 18:00:07.985979424,(-73 -59 -48 -23 -5 -8 -9 -58)
1969-12-31 18:00:07.985979424,(-24 -84 -9 19 31 7 -8 -45)
1969-12-31 18:00:07.987557866,(23 126 82 7 -38 4 4 8)
1969-12-31 18:00:07.987557866,(-4 -23 -14 -6 -19 -9 6 16)
1969-12-31 18:00:08.003342297,(-20 -18 -10 6 11 -28 -16 -17)
1969-12-31 18:00:08.003342297,(-36 -51 -22 -15 -18 -16 1 -3)
1969-12-31 18:00:08.004920740,(23 -29 -30 -15 -3 23 -12 -25)
1969-12-31 18:00:08.004920740,(7 10 17 18 16 8 6 15)
1969-12-31 18:00:08.015180619,(58 27 6 -7 -18 -12 7 35)
1969-12-31 18:00:08.015180619,(-13 -85 -75 -31 2 -2 -6 -3)
1969-12-31 18:00:08.015969840,(14 10 29 5 -10 -1 8 9)
1969-12-31 18:00:08.015969840,(9 57 -15 -7 -4 -16 -15 -10)
1969-12-31 18:00:08.032543492,(-5 20 61 29 22 -7 10 9)
1969-12-31 18:00:08.032543492,(62 -35 -78 -27 -14 -14 -18 18)
1969-12-31 18:00:08.034121935,(-38 -32 -31 -9 13 1 8 -13)
1969-12-31 18:00:08.034121935,(14 63 90 39 15 12 10 8)
1969-12-31 18:00:08.043592593,(-16 -59 -31 3 4 -6 -15 16)
1969-12-31 18:00:08.043592593,(-33 -47 -30 -18 -35 3 -19 -79)
1969-12-31 18:00:08.050695586,(-4 -12 1 -7 -9 -36 5 6)
1969-12-31 18:00:08.050695586,(-20 -38 -42 -28 -6 42 -5 -12)
1969-12-31 18:00:08.062533908,(8 -11 -31 -20 3 33 15 4)
1969-12-31 18:00:08.062533908,(-33 39 56 14 -18 -22 8 14)
1969-12-31 18:00:08.063323130,(24 -1 -24 2 30 12 -12 -2)
1969-12-31 18:00:08.063323130,(-10 -77 -49 -22 -11 -17 7 8)
1969-12-31 18:00:08.080686003,(-18 -70 1 12 -4 -6 -4 -11)
1969-12-31 18:00:08.080686003,(59 91 64 26 31 13 13 39)
1969-12-31 18:00:08.081475224,(19 -45 -50 -23 -15 0 8 8)
1969-12-31 18:00:08.081475224,(11 12 23 22 12 -2 6 24)
1969-12-31 18:00:08.090945882,(-15 18 19 -17 -40 -18 -22 -27)
1969-12-31 18:00:08.090945882,(-43 -92 -45 -17 14 11 2 0)
1969-12-31 18:00:08.098048875,(-4 42 -10 -3 -1 -2 -5 -12)
1969-12-31 18:00:08.098048875,(0 -37 -41 -4 9 -7 -10 -18)
1969-12-31 18:00:08.109887198,(83 -15 -57 7 10 -11 15 65)
1969-12-31 18:00:08.109887198,(-32 23 49 -4 -37 26 10 -16)
1969-12-31 18:00:08.110676419,(-61 -19 -10 -17 -19 -28 -14 -17)
1969-12-31 18:00:08.110676419,(33 -37 -22 -35 -22 -11 -7 6)
1969-12-31 18:00:08.127250070,(3 44 24 18 -1 -16 -10 -7)
1969-12-31 18:00:08.127250070,(23 26 -17 -4 26 17 9 19)
1969-12-31 18:00:08.128828513,(-16 6 20 17 19 20 6 -17)
1969-12-31 18:00:08.128828513,(-59 -9 14 4 -14 -36 -11 -26)
1969-12-31 18:00:08.138299171,(18 -9 -14 -10 -4 -5 0 -11)
1969-12-31 18:00:08.138299171,(10 -94 -59 -33 -7 0 5 21)
1969-12-31 18:00:08.145402165,(39 99 74 24 -8 -1 1 13)
1969-12-31 18:00:08.145402165,(8 -23 0 28 31 3 -3 12)
1969-12-31 18:00:08.156451266,(-16 -73 -68 -28 -19 -1 -6 -13)
1969-12-31 18:00:08.156451266,(41 30 14 29 18 6 13 19)
1969-12-31 18:00:08.161975816,(-5 -43 -22 -8 2 5 -1 -2)
1969-12-31 18:00:08.161975816,(13 11 -2 -23 -20 -16 -5 12)
1969-12-31 18:00:08.174603360,(-20 -31 0 -49 -58 -11 -18 -9)
1969-12-31 18:00:08.174603360,(30 41 25 70 87 43 39 19)
1969-12-31 18:00:08.176181803,(-9 23 20 8 -1 -1 -12 -12)
1969-12-31 18:00:08.176181803,(6 16 9 18 16 1 25 19)
1969-12-31 18:00:08.186441682,(-61 -40 -29 -14 -13 13 -31 -37)
1969-12-31 18:00:08.186441682,(29 42 17 -15 -22 -71 -39 -10)
1969-12-31 18:00:08.192755454,(23 -21 -12 3 -10 54 31 42)
1969-12-31 18:00:08.192755454,(-5 -6 -12 -21 -9 0 -2 -5)
1969-12-31 18:00:08.203804555,(35 31 21 10 6 -12 10 17)
1969-12-31 18:00:08.203804555,(-41 13 10 3 1 -5 -3 -6)
1969-12-31 18:00:08.209329105,(-2 32 24 22 10 -11 -11 -32)
1969-12-31 18:00:08.209329105,(-30 -56 -35 -26 -22 -3 -19 -20)
1969-12-31 18:00:08.221956649,(-18 17 10 24 36 27 18 -7)
1969-12-31 18:00:08.221956649,(-62 -14 2 6 -17 -28 -39 -67)
1969-12-31 18:00:08.223535092,(42 -21 -19 -18 -5 14 50 86)
1969-12-31 18:00:08.223535092,(17 11 15 18 9 -9 -8 3)
1969-12-31 18:00:08.233005750,(5 31 7 10 12 3 -11 -13)
1969-12-31 18:00:08.233005750,(-10 -17 -15 -25 -22 -4 -16 -14)
1969-12-31 18:00:08.240108743,(-72 -50 -22 -12 -12 -17 -8 -21)
1969-12-31 18:00:08.240108743,(-8 5 2 2 7 15 8 -7)
1969-12-31 18:00:08.251157844,(17 -6 -3 7 4 0 19 30)
1969-12-31 18:00:08.251157844,(-2 14 5 -16 -14 9 9 18)
1969-12-31 18:00:08.256682395,(-10 -12 -5 -2 7 -18 -24 -21)
1969-12-31 18:00:08.256682395,(-15 -21 -10 10 18 12 -4 -10)
1969-12-31 18:00:08.270099160,(9 23 7 8 5 -2 14 16)
1969-12-31 18:00:08.270099160,(67 26 8 -8 -14 9 11 28)
1969-12-31 18:00:08.270888382,(-20 -2 6 7 -1 -6 -21 -11)
1969-12-31 18:00:08.270888382,(-17 -42 -23 -1 15 6 23 2)
1969-12-31 18:00:08.287462033,(9 30 5 -3 -18 -18 -5 9)
1969-12-31 18:00:08.287462033,(18 -4 -4 8 18 3 -15 -9)
1969-12-31 18:00:08.289040476,(-61 -22 0 6 4 1 -2 -8)
1969-12-31 18:00:08.289040476,(-8 24 12 -14 -23 -16 -12 -20)
1969-12-31 18:00:08.298511134,(-49 -3 -3 8 0 -1 -26 -43)
1969-12-31 18:00:08.298511134,(-41 -24 -4 3 12 13 5 -51)
1969-12-31 18:00:08.304035684,(106 29 22 13 14 2 -6 71)
1969-12-31 18:00:08.304035684,(100 33 6 10 4 45 52 90)
1969-12-31 18:00:08.317452449,(-77 -16 -10 -22 -21 -35 -20 -55)
1969-12-31 18:00:08.317452449,(88 58 19 9 2 9 15 78)
1969-12-31 18:00:08.319030892,(-52 -71 -26 -8 -3 -14 -14 -42)
1969-12-31 18:00:08.319030892,(9 50 25 9 11 18 17 26)
1969-12-31 18:00:08.334815322,(81 -31 -39 -22 -8 -3 -7 22)
1969-12-31 18:00:08.334815322,(-37 6 2 -3 2 0 4 16)
1969-12-31 18:00:08.336393765,(50 50 17 5 1 7 23 30)
1969-12-31 18:00:08.336393765,(-17 -24 -10 -5 -2 -3 -21 -24)
1969-12-31 18:00:08.345864423,(-91 -49 -19 -3 8 1 -6 -37)
1969-12-31 18:00:08.345864423,(-50 -41 -17 -8 -11 -15 -16 -41)
1969-12-31 18:00:08.358491967,(18 8 -5 -17 -15 -14 2 -1)
1969-12-31 18:00:08.358491967,(-5 4 10 11 4 2 7 10)
1969-12-31 18:00:08.364016517,(31 35 25 24 31 27 14 12)
1969-12-31 18:00:08.364016517,(-119 -81 -43 -29 -25 0 -5 -57)
1969-12-31 18:00:08.365594960,(38 -2 -4 -1 -1 -1 -13 -20)
1969-12-31 18:00:08.365594960,(6 9 -6 -8 -8 -22 -23 -21)
1969-12-31 18:00:08.382168612,(9 -10 7 6 3 5 18 25)
1969-12-31 18:00:08.382168612,(76 92 27 9 1 4 11 29)
1969-12-31 18:00:08.382957833,(-57 -68 -27 -11 -7 -6 -12 -35)
1969-12-31 18:00:08.382957833,(-80 -21 -7 -8 -5 -13 -27 -65)
1969-12-31 18:00:08.393217712,(-25 -2 -1 -3 -3 -4 -1 -6)
1969-12-31 18:00:08.393217712,(8 -11 6 4 5 4 -2 3)
1969-12-31 18:00:08.405845256,(19 29 -6 -4 -6 -5 3 10)
1969-12-31 18:00:08.405845256,(9 -3 -4 -4 1 2 -1 1)
1969-12-31 18:00:08.412159028,(-2 4 22 17 8 6 -1 -20)
1969-12-31 18:00:08.412159028,(-13 -19 -5 0 2 -1 0 15)
1969-12-31 18:00:08.412948250,(12 23 9 3 1 -1 -5 -15)
1969-12-31 18:00:08.412948250,(2 -14 -17 -9 -4 -4 -8 -4)
1969-12-31 18:00:08.429521901,(32 9 1 -2 -3 -1 7 21)
1969-12-31 18:00:08.429521901,(-7 -5 -2 0 -2 -5 -11 -22)
1969-12-31 18:00:08.430311122,(-7 3 3 2 -1 2 6 5)
1969-12-31 18:00:08.430311122,(-16 -8 0 -2 4 1 -5 -18)
1969-12-31 18:00:08.447673995,(45 29 7 3 -4 -2 3 14)
1969-12-31 18:00:08.447673995,(-9 -18 -12 -12 -5 -3 -2 -2)
1969-12-31 18:00:08.448463217,(-31 2 9 17 7 2 -1 -11)
1969-12-31 18:00:08.448463217,(7 -1 0 3 -2 -7 -5 -6)
1969-12-31 18:00:08.465036868,(13 -4 -1 -3 0 1 6 16)
1969-12-31 18:00:08.465036868,(18 -5 -6 -9 -4 0 0 16)
1969-12-31 18:00:08.465826089,(-7 6 4 -3 -2 0 4 0)
1969-12-31 18:00:08.466615311,(-6 -5 3 6 1 -3 -3 4)
1969-12-31 18:00:08.483188962,(11 3 -4 0 -2 1 6 16)
1969-12-31 18:00:08.483188962,(-10 0 0 1 1 0 -2 -8)
1969-12-31 18:00:08.483978184,(16 -3 -7 -6 -1 0 1 8)
1969-12-31 18:00:08.483978184,(13 17 1 -5 -3 -1 1 9)
1969-12-31 18:00:08.487924291,(-7 -15 -4 -6 -3 -5 -14 -34)
1969-12-31 18:00:08.487924291,(8 27 28 14 8 4 7 9)
1969-12-31 18:00:08.494238063,(7 5 5 1 0 4 1 2)
1969-12-31 18:00:08.494238063,(-7 -16 -15 -10 -5 -3 0 0)
1969-12-31 18:00:08.506076385,(7 -2 -9 -5 -3 -5 -8 7)
1969-12-31 18:00:08.506076385,(-1 8 15 6 5 4 5 3)
1969-12-31 18:00:08.507654828,(-7 -20 3 5 0 -4 -1 -3)
1969-12-31 18:00:08.507654828,(15 11 -2 13 5 4 3 18)
1969-12-31 18:00:08.524228480,(-2 -30 -38 -20 -10 -9 1 2)
1969-12-31 18:00:08.524228480,(7 42 32 19 7 -1 -5 2)
1969-12-31 18:00:08.525806923,(14 30 27 7 5 5 -2 8)
1969-12-31 18:00:08.525806923,(-10 -5 -10 -14 -12 -8 -2 0)
1969-12-31 18:00:08.535277580,(8 -27 -3 -6 -5 -1 0 9)
1969-12-31 18:00:08.535277580,(-2 -16 -24 -2 2 2 9 19)
1969-12-31 18:00:08.542380574,(5 19 12 1 0 -2 -1 -1)
1969-12-31 18:00:08.542380574,(-7 -16 -17 -10 -7 -5 -9 -6)
1969-12-31 18:00:08.553429675,(0 13 4 1 2 2 3 2)
1969-12-31 18:00:08.554218896,(-4 -27 -15 -3 -5 -6 1 3)
1969-12-31 18:00:08.555008118,(-2 -7 -7 -4 -1 1 2 -4)
1969-12-31 18:00:08.555008118,(0 -17 -6 1 2 -2 -5 -10)
1969-12-31 18:00:08.571581769,(2 2 -12 -8 2 6 8 18)
1969-12-31 18:00:08.571581769,(-4 18 -13 -11 -7 -1 9 2)
1969-12-31 18:00:08.576317097,(-7 -1 2 4 0 0 -12 -13)
1969-12-31 18:00:08.576317097,(-2 -8 4 -4 -2 -1 0 -4)
1969-12-31 18:00:08.589733863,(2 9 4 5 6 1 -1 -2)
1969-12-31 18:00:08.589733863,(2 23 58 28 6 -4 -2 -2)
1969-12-31 18:00:08.590523085,(-2 -7 -22 -13 -6 -1 1 3)
1969-12-31 18:00:08.590523085,(4 3 0 0 0 -1 -2 -2)
1969-12-31 18:00:08.600782964,(-11 -22 -10 2 -3 -2 -4 -10)
1969-12-31 18:00:08.600782964,(-3 -19 -22 -16 -5 3 -7 -6)
1969-12-31 18:00:08.602361407,(-3 6 -10 -8 -5 -2 0 2)
1969-12-31 18:00:08.602361407,(1 3 11 5 3 2 0 0)
1969-12-31 18:00:08.618935058,(7 22 12 4 0 4 7 5)
1969-12-31 18:00:08.618935058,(-6 -10 -8 -3 -6 -5 -5 -10)
1969-12-31 18:00:08.620513501,(-3 -11 -3 1 2 0 -2 1)
1969-12-31 18:00:08.620513501,(0 -1 -13 -5 -2 0 2 -2)
1969-12-31 18:00:08.629984159,(-4 -8 3 -1 -5 -2 1 2)
1969-12-31 18:00:08.629984159,(1 15 2 -3 -1 -2 -6 -3)
1969-12-31 18:00:08.642611703,(3 5 6 9 4 4 9 6)
1969-12-31 18:00:08.642611703,(-2 -37 7 6 5 6 4 5)
1969-12-31 18:00:08.648136253,(2 63 30 8 1 -1 -4 -4)
1969-12-31 18:00:08.648136253,(0 2 -16 -10 -5 -2 0 -1)
1969-12-31 18:00:08.649714696,(-8 -3 -2 0 -3 -4 -7 -7)
1969-12-31 18:00:08.649714696,(1 -7 -1 0 -1 2 2 3)
1969-12-31 18:00:08.666288348,(-1 -26 0 0 0 -1 -1 3)
1969-12-31 18:00:08.666288348,(3 -5 -4 1 2 1 0 -1)
1969-12-31 18:00:08.667077569,(-10 3 2 -6 -3 -5 0 -4)
1969-12-31 18:00:08.667077569,(-1 15 10 6 1 0 -2 1)
1969-12-31 18:00:08.677337449,(-2 -9 -12 -6 -3 -1 -2 -4)
1969-12-31 18:00:08.677337449,(-1 -1 -11 -8 -5 -3 -5 -4)
1969-12-31 18:00:08.684440442,(-2 -18 -9 -7 -4 -2 -2 -1)
1969-12-31 18:00:08.684440442,(3 22 7 -1 0 -3 -2 -1)
1969-12-31 18:00:08.695489543,(2 -12 5 9 4 1 7 5)
1969-12-31 18:00:08.695489543,(-4 -3 -5 3 -3 -2 -5 -6)
1969-12-31 18:00:08.697067986,(11 -2 12 1 -1 0 0 0)
1969-12-31 18:00:08.697067986,(-4 10 -13 -7 -3 -2 -1 -1)
1969-12-31 18:00:08.713641636,(5 17 13 4 4 4 4 6)
1969-12-31 18:00:08.713641636,(-10 -23 9 4 -2 -3 -5 -5)
1969-12-31 18:00:08.715220080,(-8 -38 -65 -25 -6 -4 3 3)
1969-12-31 18:00:08.715220080,(18 48 41 22 7 3 3 3)
1969-12-31 18:00:08.724690738,(-1 -2 -8 -3 -3 -5 -4 -6)
1969-12-31 18:00:08.724690738,(-13 -33 -14 -10 -2 3 1 1)
1969-12-31 18:00:08.731004510,(-8 -10 -16 -12 -6 -4 -3 -2)
1969-12-31 18:00:08.731004510,(1 4 20 9 4 -2 1 3)
1969-12-31 18:00:08.742842832,(0 -14 -16 -6 -2 -2 -6 -3)
1969-12-31 18:00:08.742842832,(-7 -19 -10 -5 0 0 -1 -1)
1969-12-31 18:00:08.749156604,(2 5 -7 -4 -1 0 0 4)
1969-12-31 18:00:08.749156604,(5 18 -10 5 5 7 5 4)
1969-12-31 18:00:08.754681155,(-28 -60 8 -5 -6 -5 -3 -7)
1969-12-31 18:00:08.754681155,(36 88 82 39 13 2 0 3)
1969-12-31 18:00:08.756259597,(-3 0 7 11 5 2 2 -2)
1969-12-31 18:00:08.756259597,(-15 -38 -8 -14 -11 -4 -2 -1)
1969-12-31 18:00:08.765730255,(15 59 1 -7 0 -3 -5 -2)
1969-12-31 18:00:08.765730255,(-9 -35 -21 -3 1 0 5 2)
1969-12-31 18:00:08.772833249,(-1 1 0 3 0 0 -5 -8)
1969-12-31 18:00:08.772833249,(-2 5 11 0 -2 -3 -3 -2)
1969-12-31 18:00:08.783882350,(-4 -6 -29 -15 -8 -4 -1 -1)
1969-12-31 18:00:08.783882350,(-6 -17 3 -5 -2 -3 2 -2)
1969-12-31 18:00:08.795720672,(10 36 22 10 4 1 2 3)
1969-12-31 18:00:08.795720672,(-11 -24 -38 -19 -6 -3 -7 -8)
1969-12-31 18:00:08.802034444,(2 0 6 2 0 3 2 5)
1969-12-31 18:00:08.802034444,(9 26 9 9 4 -1 -1 1)
1969-12-31 18:00:08.807558994,(-16 -38 -7 -10 -8 -6 -3 -7)
1969-12-31 18:00:08.807558994,(6 39 42 9 0 -3 -3 -2)
1969-12-31 18:00:08.813083545,(11 24 26 23 12 5 4 4)
1969-12-31 18:00:08.813083545,(0 -4 -31 -12 -4 -3 -2 -3)
1969-12-31 18:00:08.820186538,(-10 -13 11 1 -2 -2 -3 -3)
1969-12-31 18:00:08.820186538,(0 15 -11 -14 -10 -6 -9 -7)
1969-12-31 18:00:08.831235639,(0 -10 -22 -6 -1 -2 0 -2)
1969-12-31 18:00:08.831235639,(3 1 -2 -1 0 -1 -2 1)
1969-12-31 18:00:08.836760189,(-9 -17 -24 -14 -7 -5 -2 -4)
1969-12-31 18:00:08.836760189,(9 30 23 12 9 4 2 3)
1969-12-31 18:00:08.849387733,(-12 -24 -2 1 -2 -2 -2 -5)
1969-12-31 18:00:08.849387733,(-10 -32 -20 -14 -6 -2 -2 0)
1969-12-31 18:00:08.860436834,(11 52 14 2 2 -1 -1 -3)
1969-12-31 18:00:08.860436834,(-2 -22 0 0 -3 0 0 2)
1969-12-31 18:00:08.861226056,(2 4 -3 -2 0 1 1 1)
1969-12-31 18:00:08.861226056,(-3 -8 9 2 0 0 0 -1)
1969-12-31 18:00:08.867539827,(3 8 -8 -1 0 1 0 2)
1969-12-31 18:00:08.867539827,(-14 -49 -20 -8 -3 -3 0 -1)
1969-12-31 18:00:08.878588928,(17 68 19 0 4 -1 -3 -1)
1969-12-31 18:00:08.878588928,(-5 -10 -25 -7 -4 -2 -4 -4)
1969-12-31 18:00:08.884113479,(-2 -7 7 2 -3 -1 -1 -1)
1969-12-31 18:00:08.884113479,(-8 -15 -9 -24 -5 0 1 -5)
1969-12-31 18:00:08.896741023,(-6 -30 -15 9 2 -1 -1 -2)
1969-12-31 18:00:08.896741023,(-1 1 2 10 2 -1 -2 -2)
1969-12-31 18:00:08.902265573,(5 10 17 11 6 2 1 4)
1969-12-31 18:00:08.902265573,(6 16 3 4 2 -1 0 1)
1969-12-31 18:00:08.914893117,(-10 -28 -7 -16 -11 -6 -4 -4)
1969-12-31 18:00:08.914893117,(-2 15 -20 -17 -3 -2 -5 -5)
1969-12-31 18:00:08.915682338,(4 -1 34 25 10 3 5 3)
1969-12-31 18:00:08.915682338,(-3 -2 -26 -9 -2 -3 -2 -3)
1969-12-31 18:00:08.925942218,(-8 -36 -8 -4 -3 -1 1 1)
1969-12-31 18:00:08.925942218,(6 23 12 5 -1 0 -1 0)
1969-12-31 18:00:08.931466768,(-1 2 14 4 -2 -1 -3 -3)
1969-12-31 18:00:08.931466768,(-3 -8 -12 -4 0 0 -3 -3)
1969-12-31 18:00:08.944094312,(0 1 0 7 0 -1 -2 -1)
1969-12-31 18:00:08.944094312,(-6 -30 -17 -9 -3 1 2 -1)
1969-12-31 18:00:08.949618862,(2 11 -11 -15 -6 -4 -2 -1)
1969-12-31 18:00:08.949618862,(1 -6 -1 7 0 -1 1 0)
1969-12-31 18:00:08.967770957,(2 26 5 -1 -2 -4 -4 -3)
1969-12-31 18:00:08.967770957,(-3 -14 -8 -11 -5 -1 -2 -2)
1969-12-31 18:00:08.969349399,(3 0 -2 0 0 -1 -1 2)
1969-12-31 18:00:08.969349399,(3 -7 -22 5 1 -3 0 -1)
1969-12-31 18:00:08.973295507,(2 2 19 9 4 4 2 2)
1969-12-31 18:00:08.973295507,(2 13 -8 -2 -1 -2 -2 -2)
1969-12-31 18:00:08.978820058,(-1 -4 -14 -11 -3 -2 -1 -2)
1969-12-31 18:00:08.978820058,(-5 -8 -9 -4 -4 0 0 2)
1969-12-31 18:00:08.991447601,(-3 1 3 0 2 0 -2 -4)
1969-12-31 18:00:08.991447601,(-5 2 6 -1 -2 -3 -2 -5)
1969-12-31 18:00:08.996972152,(0 5 11 6 1 0 3 2)
1969-12-31 18:00:08.996972152,(2 0 13 6 2 2 1 1)
1969-12-31 18:00:09.015124246,(-4 -5 -5 -6 -3 -1 -2 -2)
1969-12-31 18:00:09.015124246,(-2 10 18 1 -1 -2 -3 -2)
1969-12-31 18:00:09.016702689,(-2 -4 -6 -2 -3 -1 -2 0)
1969-12-31 18:00:09.016702689,(0 -12 -3 1 -1 0 0 0)
1969-12-31 18:00:09.019859575,(4 19 6 2 -2 -1 0 1)
1969-12-31 18:00:09.019859575,(-6 -18 -11 -4 -2 -1 -5 -4)
1969-12-31 18:00:09.027751790,(-4 -9 -13 -18 -8 -3 -2 0)
1969-12-31 18:00:09.027751790,(2 8 -5 -1 -5 -2 -3 -2)
1969-12-31 18:00:09.038800891,(3 -1 13 20 7 4 3 3)
1969-12-31 18:00:09.038800891,(-2 -5 -4 2 0 -1 1 -2)
1969-12-31 18:00:09.049849992,(0 -1 -2 5 0 0 1 1)
1969-12-31 18:00:09.049849992,(-3 -3 1 -8 -6 -3 -4 -2)
1969-12-31 18:00:09.057742206,(-4 -6 -13 -14 -9 -6 -3 -4)
1969-12-31 18:00:09.057742206,(1 -4 -10 -6 -5 -3 -1 0)
1969-12-31 18:00:09.059320649,(-1 -5 -3 0 -3 0 -3 -1)
1969-12-31 18:00:09.059320649,(-3 0 0 -3 -3 -2 -3 -1)
1969-12-31 18:00:09.067212864,(-1 1 -2 1 2 -2 0 -2)
1969-12-31 18:00:09.067212864,(-2 -5 -1 -2 1 -1 -2 0)
1969-12-31 18:00:09.075105079,(-2 -7 -6 -1 1 -1 1 -2)
1969-12-31 18:00:09.075105079,(0 6 3 0 4 0 -1 -2)
1969-12-31 18:00:09.086154180,(1 0 -4 0 1 -2 -3 -1)
1969-12-31 18:00:09.086154180,(0 0 7 1 3 1 3 1)
1969-12-31 18:00:09.091678730,(-8 -27 -30 -15 -4 -4 -4 -7)
1969-12-31 18:00:09.091678730,(3 14 19 15 7 2 0 1)
1969-12-31 18:00:09.104306274,(-3 -7 -10 -9 0 -1 -1 0)
1969-12-31 18:00:09.104306274,(-3 -10 -5 -5 -1 0 -1 -1)
1969-12-31 18:00:09.105095496,(2 1 1 1 -1 -2 -5 -2)
1969-12-31 18:00:09.105095496,(0 0 -2 -1 1 1 2 0)
1969-12-31 18:00:09.114566154,(-8 -8 -40 -23 -5 -3 -3 -4)
1969-12-31 18:00:09.114566154,(-1 -8 3 7 0 1 1 1)
1969-12-31 18:00:09.122458369,(1 -7 12 6 3 3 2 4)
1969-12-31 18:00:09.122458369,(0 11 13 6 1 -1 -1 -4)
1969-12-31 18:00:09.145345792,(0 -5 -2 -6 -8 -3 -2 -2)
1969-12-31 18:00:09.145345792,(1 15 6 1 1 0 -1 0)
1969-12-31 18:00:09.146924235,(0 1 1 2 3 1 0 -2)
1969-12-31 18:00:09.146924235,(2 -5 -9 -3 0 1 1 2)
1969-12-31 18:00:09.151659564,(-3 -6 3 1 -2 -1 0 -1)
1969-12-31 18:00:09.151659564,(0 2 2 -1 -2 -2 0 -1)
1969-12-31 18:00:09.152448785,(2 9 2 3 -2 -1 0 0)
1969-12-31 18:00:09.152448785,(-2 -7 1 3 2 1 0 -1)
1969-12-31 18:00:09.169022436,(3 10 20 12 5 0 1 1)
1969-12-31 18:00:09.169022436,(-4 -10 -21 -13 -7 -3 -4 -6)
1969-12-31 18:00:09.169811658,(3 9 11 6 3 1 1 0)
1969-12-31 18:00:09.169811658,(-4 -7 -13 -5 -5 -3 -3 -4)
1969-12-31 18:00:09.180860759,(-2 3 11 1 -3 -2 -1 -2)
1969-12-31 18:00:09.180860759,(1 -7 -9 -3 -3 -2 -2 0)
1969-12-31 18:00:09.192699081,(0 2 -1 -2 -1 0 -1 0)
1969-12-31 18:00:09.192699081,(-4 -4 0 -1 -2 -3 -3 -2)
1969-12-31 18:00:09.198223632,(2 1 2 1 0 2 2 2)
1969-12-31 18:00:09.198223632,(1 4 6 3 -2 -1 -3 -3)
1969-12-31 18:00:09.199012853,(-3 -3 -5 -3 -4 -1 -2 -2)
1969-12-31 18:00:09.199012853,(-2 6 13 -3 -1 0 -1 0)
1969-12-31 18:00:09.216375726,(-1 0 -6 2 0 0 -1 -2)
1969-12-31 18:00:09.216375726,(-1 -4 -1 0 -1 0 1 0)
1969-12-31 18:00:09.216375726,(-1 6 3 1 0 -1 -1 -2)
1969-12-31 18:00:09.216375726,(-3 -6 -8 -2 -3 -1 -1 -2)
1969-12-31 18:00:09.229003270,(0 0 1 1 -1 1 0 0)
1969-12-31 18:00:09.229003270,(-2 -2 0 2 2 0 0 0)
1969-12-31 18:00:09.233738599,(-1 -2 1 -1 2 0 -2 -1)
1969-12-31 18:00:09.233738599,(0 -2 -3 0 -1 -1 0 0)
1969-12-31 18:00:09.245576921,(1 -1 6 2 -1 0 -4 -2)
1969-12-31 18:00:09.245576921,(0 0 1 0 1 -1 -1 -1)
1969-12-31 18:00:09.246366142,(-1 3 -4 2 1 -1 -1 1)
1969-12-31 18:00:09.246366142,(0 3 4 4 2 1 0 1)
1969-12-31 18:00:09.258204465,(0 -4 -3 -1 -2 -1 0 -2)
1969-12-31 18:00:09.258204465,(-2 2 -7 -3 -2 -2 -2 -1)
1969-12-31 18:00:09.262939794,(-5 -7 7 2 -1 -1 1 -2)
1969-12-31 18:00:09.262939794,(1 -3 -3 -1 -1 -1 -2 -1)
1969-12-31 18:00:09.262939794,(-12 -31 -74 -43 -20 -8 -2 -3)
1969-12-31 18:00:09.262939794,(4 26 56 33 11 3 1 1)
1969-12-31 18:00:09.263729015,(-12 -9 10 17 3 1 1 -2)
1969-12-31 18:00:09.263729015,(20 73 28 2 4 1 1 0)
1969-12-31 18:00:09.264518237,(-7 -30 -13 -22 -11 -6 -4 -2)
1969-12-31 18:00:09.264518237,(-11 -32 -35 -33 -16 -6 -4 -5)
1969-12-31 18:00:09.279513445,(-5 -6 12 45 12 3 0 -3)
1969-12-31 18:00:09.279513445,(-32 -116 -67 -43 -14 -5 -3 -3)
1969-12-31 18:00:09.280302666,(16 61 42 21 5 0 1 2)
1969-12-31 18:00:09.280302666,(13 17 1 -10 -3 1 3 6)
1969-12-31 18:00:09.297665539,(-2 -4 -16 -25 -6 -6 -5 -6)
1969-12-31 18:00:09.297665539,(-7 15 56 56 19 8 6 0)
1969-12-31 18:00:09.298454761,(-4 -40 -17 -42 -12 -5 -4 -3)
1969-12-31 18:00:09.298454761,(-7 8 -20 5 -12 -9 -7 -6)
1969-12-31 18:00:09.309503862,(7 12 44 57 18 6 1 2)
1969-12-31 18:00:09.309503862,(0 0 -29 -39 -7 0 1 2)
1969-12-31 18:00:09.309503862,(-3 -8 -10 -27 -8 -2 -3 -1)
1969-12-31 18:00:09.309503862,(4 34 58 20 9 6 4 5)
1969-12-31 18:00:09.326866734,(4 -13 -32 22 2 -2 -3 0)
1969-12-31 18:00:09.326866734,(11 17 -7 10 2 1 -1 1)
1969-12-31 18:00:09.327655956,(-20 -32 -5 12 0 -1 -1 -7)
1969-12-31 18:00:09.327655956,(12 3 -65 -48 -12 -3 -3 -2)
1969-12-31 18:00:09.345018829,(-9 -9 -18 -36 -8 -3 -1 -2)
1969-12-31 18:00:09.345018829,(-5 -2 26 28 5 1 0 -1)
1969-12-31 18:00:09.345018829,(4 3 -13 -12 -7 -5 -5 -3)
1969-12-31 18:00:09.345018829,(-26 -50 -16 5 2 -2 -4 -9)
1969-12-31 18:00:09.356067929,(15 31 28 28 11 6 3 5)
1969-12-31 18:00:09.356067929,(-1 19 4 -20 -8 -3 -5 -4)
1969-12-31 18:00:09.356857151,(-2 -2 -12 16 2 -1 0 0)
1969-12-31 18:00:09.356857151,(-10 -11 -9 1 3 0 0 -3)
1969-12-31 18:00:09.374220024,(-10 -8 8 -4 -5 -3 -2 -3)
1969-12-31 18:00:09.374220024,(10 -5 -16 -17 -6 -1 2 8)
1969-12-31 18:00:09.375009245,(36 37 14 11 5 2 0 2)
1969-12-31 18:00:09.375009245,(-27 -32 -24 -13 -8 -14 -10 -9)
1969-12-31 18:00:09.392372118,(-1 3 4 3 -1 3 10 1)
1969-12-31 18:00:09.392372118,(-2 9 9 -6 -2 1 7 -7)
1969-12-31 18:00:09.392372118,(3 5 5 2 4 1 -1 1)
1969-12-31 18:00:09.392372118,(15 10 -2 4 6 13 -29 -3)
1969-12-31 18:00:09.403421219,(-1 3 6 1 -5 -33 -21 -4)
1969-12-31 18:00:09.403421219,(22 19 0 -5 -2 -11 -31 7)
1969-12-31 18:00:09.404210440,(-39 -20 -6 1 1 30 49 -3)
1969-12-31 18:00:09.404210440,(19 -9 0 2 3 2 16 5)
1969-12-31 18:00:09.421573313,(4 28 7 4 6 12 -10 1)
1969-12-31 18:00:09.421573313,(-14 -38 -25 -14 -4 -9 -67 -40)
1969-12-31 18:00:09.422362535,(-5 10 11 3 -8 -28 -5 6)
1969-12-31 18:00:09.422362535,(-8 -17 -2 -1 1 -2 -5 -4)
1969-12-31 18:00:09.439725407,(-10 -2 -5 -5 3 33 63 9)
1969-12-31 18:00:09.439725407,(20 27 5 -3 -3 3 32 14)
1969-12-31 18:00:09.439725407,(7 -9 -2 -1 1 -10 -23 -5)
1969-12-31 18:00:09.439725407,(14 23 1 -3 -2 19 15 13)
1969-12-31 18:00:09.451563730,(6 -20 -12 -6 -3 -5 -20 9)
1969-12-31 18:00:09.451563730,(-33 -7 0 0 4 29 24 -16)
1969-12-31 18:00:09.451563730,(-10 6 8 5 4 4 20 -7)
1969-12-31 18:00:09.451563730,(22 12 2 1 1 -14 19 20)
1969-12-31 18:00:09.468926602,(-7 -14 -4 -3 -2 30 -37 -14)
1969-12-31 18:00:09.468926602,(15 8 -5 -8 -11 -45 -3 20)
1969-12-31 18:00:09.469715824,(7 7 9 3 0 -6 -3 -4)
1969-12-31 18:00:09.469715824,(-23 -8 -6 -1 1 21 -4 -27)
1969-12-31 18:00:09.487078697,(-16 -9 -2 -4 -4 -4 13 -7)
1969-12-31 18:00:09.487078697,(14 -7 -9 -8 -2 12 -14 23)
1969-12-31 18:00:09.487078697,(12 15 7 5 4 7 -1 -5)
1969-12-31 18:00:09.487078697,(-16 -12 -3 -2 -1 -16 4 3)
1969-12-31 18:00:09.505230791,(10 7 -5 -5 -5 -10 -10 -7)
1969-12-31 18:00:09.505230791,(-28 -1 6 3 -3 -13 19 -11)
1969-12-31 18:00:09.506020012,(14 -6 -10 -5 -10 -17 -21 -12)
1969-12-31 18:00:09.506020012,(22 7 3 5 5 1 -17 46)
1969-12-31 18:00:09.516279892,(-13 -11 -2 -3 -2 -5 -13 -17)
1969-12-31 18:00:09.516279892,(11 18 11 7 9 4 -14 -10)
1969-12-31 18:00:09.517069113,(-32 -6 1 1 4 27 36 -19)
1969-12-31 18:00:09.517069113,(-20 -19 -5 -3 -5 -13 39 16)
1969-12-31 18:00:09.534431986,(-2 5 0 -4 -7 -36 -52 -21)
1969-12-31 18:00:09.534431986,(14 19 -1 -3 -2 3 8 1)
1969-12-31 18:00:09.535221208,(-21 -18 -9 -3 -5 -26 -48 -20)
1969-12-31 18:00:09.535221208,(-11 -18 -8 -4 0 30 25 4)
1969-12-31 18:00:09.545481087,(-19 -11 2 4 3 -14 -14 -6)
1969-12-31 18:00:09.545481087,(-4 -2 -2 -5 -8 -18 32 -4)
1969-12-31 18:00:09.551794859,(69 21 3 2 4 4 -1 86)
1969-12-31 18:00:09.551794859,(1 8 -2 -4 -6 -19 -36 -56)
1969-12-31 18:00:09.563633181,(-43 -13 -7 -7 -6 6 41 -9)
1969-12-31 18:00:09.563633181,(8 -20 -10 -2 -1 13 -3 25)
1969-12-31 18:00:09.564422403,(-36 -5 6 5 3 -1 14 -1)
1969-12-31 18:00:09.564422403,(80 22 4 4 -5 -17 32 62)
1969-12-31 18:00:09.581785275,(39 12 0 -1 4 22 -10 13)
1969-12-31 18:00:09.581785275,(-22 -10 -1 -1 2 -13 -15 -21)
1969-12-31 18:00:09.582574497,(-9 2 0 -1 0 6 7 -6)
1969-12-31 18:00:09.582574497,(-24 15 13 2 2 0 -2 -16)
1969-12-31 18:00:09.592834376,(-1 -7 -10 -3 -5 -3 6 7)
1969-12-31 18:00:09.592834376,(-4 -3 1 1 2 18 34 -4)
1969-12-31 18:00:09.599148148,(-37 -13 -4 1 -4 -23 -19 -21)
1969-12-31 18:00:09.599148148,(38 21 -2 -3 1 2 -47 2)
1969-12-31 18:00:09.610986470,(48 8 3 1 -4 7 54 39)
1969-12-31 18:00:09.610986470,(-27 -17 -12 -9 0 -11 7 22)
1969-12-31 18:00:09.611775692,(69 35 18 12 13 57 -9 -7)
1969-12-31 18:00:09.611775692,(-71 -15 -1 -1 -10 -28 -14 -55)
1969-12-31 18:00:09.635452337,(9 1 -1 0 1 -2 0 36)
1969-12-31 18:00:09.635452337,(12 6 -5 -1 2 29 16 2)
1969-12-31 18:00:09.636241558,(-2 7 3 -2 -5 -29 -22 12)
1969-12-31 18:00:09.636241558,(-33 -42 -16 -9 -6 -2 -2 -25)
1969-12-31 18:00:09.647290659,(13 47 16 8 10 12 -36 -34)
1969-12-31 18:00:09.647290659,(-31 -25 -9 -4 -13 -46 -33 -38)
1969-12-31 18:00:09.648079880,(13 -1 -7 -6 14 64 17 5)
1969-12-31 18:00:09.648079880,(16 8 8 6 0 0 -18 25)
1969-12-31 18:00:09.658339760,(-102 -25 -7 -2 -2 -13 4 -47)
1969-12-31 18:00:09.658339760,(21 1 -1 -3 -6 -8 -15 -34)
1969-12-31 18:00:09.659128981,(-20 -34 -15 -6 -6 -8 -25 -20)
1969-12-31 18:00:09.659128981,(40 32 7 0 -1 1 8 35)
1969-12-31 18:00:09.676491854,(-20 -16 1 1 -8 -33 -16 -8)
1969-12-31 18:00:09.676491854,(-20 -13 -5 1 9 21 -38 -1)
1969-12-31 18:00:09.676491854,(40 0 -15 -10 -6 15 49 32)
1969-12-31 18:00:09.676491854,(2 -4 -10 -10 -6 3 32 25)
1969-12-31 18:00:09.687540955,(17 -10 8 9 6 -16 8 17)
1969-12-31 18:00:09.687540955,(-14 4 7 3 0 -1 3 -31)
1969-12-31 18:00:09.700168499,(-7 -4 2 2 1 -21 -1 10)
1969-12-31 18:00:09.700168499,(-58 -17 -9 -7 -6 5 -38 -75)
1969-12-31 18:00:09.705693049,(57 11 4 6 12 30 36 14)
1969-12-31 18:00:09.705693049,(12 3 -3 -2 -2 17 23 39)
1969-12-31 18:00:09.706482270,(-41 0 9 5 0 -12 8 -52)
1969-12-31 18:00:09.706482270,(21 24 -6 -10 -5 2 -14 21)
1969-12-31 18:00:09.723845143,(9 -14 -7 -7 -9 -25 -58 -27)
1969-12-31 18:00:09.723845143,(-6 1 -3 -5 -12 -4 -2 1)
1969-12-31 18:00:09.724634365,(51 -6 -8 -4 -4 2 -23 48)
1969-12-31 18:00:09.724634365,(-13 -3 9 7 5 8 2 -38)
1969-12-31 18:00:09.734894244,(-23 -11 -10 -9 1 35 35 19)
1969-12-31 18:00:09.734894244,(-3 15 9 2 -5 -78 -66 22)
1969-12-31 18:00:09.741208016,(26 1 -8 -11 -13 -35 -9 29)
1969-12-31 18:00:09.741208016,(53 16 11 11 12 31 36 26)
1969-12-31 18:00:09.753046339,(29 22 -7 -7 -14 -22 3 48)
1969-12-31 18:00:09.753046339,(-18 -39 -3 3 5 18 38 -7)
1969-12-31 18:00:09.753835560,(-35 0 10 7 8 10 27 37)
1969-12-31 18:00:09.753835560,(-52 -27 -12 -5 -9 -24 -23 -47)
1969-12-31 18:00:09.771198433,(27 -1 2 -2 0 10 -3 6)
1969-12-31 18:00:09.771198433,(65 66 15 7 6 -1 10 36)
1969-12-31 18:00:09.771987654,(-83 -55 -15 -2 5 34 19 -46)
1969-12-31 18:00:09.771987654,(-46 -3 5 3 -3 -30 -26 -20)
1969-12-31 18:00:09.782247534,(-19 -39 -15 -8 -6 16 55 11)
1969-12-31 18:00:09.782247534,(-17 -16 -5 -3 2 18 -18 -34)
1969-12-31 18:00:09.794875078,(33 23 4 -1 -4 -10 6 13)
1969-12-31 18:00:09.794875078,(19 25 8 2 1 -14 -22 -9)
1969-12-31 18:00:09.806713400,(-6 25 16 5 0 -1 -6 -17)
1969-12-31 18:00:09.806713400,(66 -9 -1 6 6 8 8 72)
1969-12-31 18:00:09.807502621,(-50 -11 1 3 1 -15 -11 -34)
1969-12-31 18:00:09.807502621,(26 -13 -8 -3 1 16 7 45)
1969-12-31 18:00:09.818551722,(-36 4 6 9 5 -13 4 22)
1969-12-31 18:00:09.818551722,(20 28 1 -6 -5 10 -4 -56)
1969-12-31 18:00:09.819340944,(-32 -6 -5 -5 -9 -13 -16 -23)
1969-12-31 18:00:09.819340944,(6 1 10 5 12 23 5 13)
1969-12-31 18:00:09.836703816,(-9 -20 -14 -3 -3 -10 -13 53)
1969-12-31 18:00:09.836703816,(-14 1 -2 0 0 6 11 -20)
1969-12-31 18:00:09.837493038,(27 17 9 4 2 14 -19 -2)
1969-12-31 18:00:09.837493038,(-29 -8 3 6 6 9 31 -26)
1969-12-31 18:00:09.854066689,(30 14 -10 -8 -7 -19 -27 -14)
1969-12-31 18:00:09.854066689,(-74 -34 -14 -10 -3 -4 5 3)
1969-12-31 18:00:09.854855911,(19 19 8 0 -1 -6 -10 -15)
1969-12-31 18:00:09.854855911,(26 28 7 4 1 -10 -3 48)
1969-12-31 18:00:09.865905012,(-51 -2 7 4 3 4 -17 -72)
1969-12-31 18:00:09.865905012,(47 -23 -13 -4 2 30 33 36)
1969-12-31 18:00:09.866694233,(-17 8 3 3 3 -8 -1 -31)
1969-12-31 18:00:09.866694233,(73 13 -5 -4 -1 2 -3 13)
1969-12-31 18:00:09.884057106,(10 7 3 0 0 16 26 -19)
1969-12-31 18:00:09.884057106,(43 15 0 -6 -12 -38 -37 -27)
1969-12-31 18:00:09.884846327,(-14 -19 2 3 -1 -6 -1 24)
1969-12-31 18:00:09.884846327,(-2 -14 -15 -9 -1 38 23 1)
1969-12-31 18:00:09.895895428,(53 26 9 3 3 10 1 10)
1969-12-31 18:00:09.895895428,(-83 -28 -1 0 1 3 -3 -48)
1969-12-31 18:00:09.901419979,(29 40 6 -4 -3 -5 -10 -12)
1969-12-31 18:00:09.901419979,(-62 -47 -7 -1 -8 -38 -13 -27)
1969-12-31 18:00:09.913258301,(23 13 -2 -2 6 40 18 3)
1969-12-31 18:00:09.913258301,(-29 -6 4 2 -3 -7 23 15)
1969-12-31 18:00:09.914047522,(53 -12 -17 -10 -14 -33 -18 18)
1969-12-31 18:00:09.914047522,(-63 -13 -4 -8 -4 9 7 0)
1969-12-31 18:00:09.931410395,(-10 6 -3 -6 -7 -22 -33 -65)
1969-12-31 18:00:09.931410395,(18 8 1 2 1 -6 -3 20)
1969-12-31 18:00:09.932199617,(-10 1 8 7 6 2 7 -22)
1969-12-31 18:00:09.932199617,(34 9 -1 -1 1 9 14 30)
1969-12-31 18:00:09.942459496,(-10 -32 -8 -4 -2 -3 -37 -12)
1969-12-31 18:00:09.942459496,(18 0 -5 -7 -7 -19 -27 62)
1969-12-31 18:00:09.943248718,(7 -9 -13 -13 9 6 -9 -13)
1969-12-31 18:00:09.943248718,(-14 13 11 10 -1 11 35 11)
1969-12-31 18:00:09.960611590,(18 41 12 1 -1 -6 27 17)
1969-12-31 18:00:09.960611590,(-43 -7 3 -1 -2 -1 -16 -59)
1969-12-31 18:00:09.961400812,(5 -27 -18 -11 -5 37 27 -29)
1969-12-31 18:00:09.961400812,(-63 -34 -19 -3 -1 -31 -2 -10)
1969-12-31 18:00:09.984288235,(-8 -11 0 0 -12 6 -8 -32)
1969-12-31 18:00:09.984288235,(61 44 4 -3 7 37 27 61)
1969-12-31 18:00:09.985077456,(19 31 23 3 -16 -82 -11 24)
1969-12-31 18:00:09.985077456,(-41 -42 -21 -12 11 102 34 -52)
1969-12-31 18:00:09.989812785,(-41 -6 3 13 5 -38 1 7)
1969-12-31 18:00:09.989812785,(28 9 1 1 -7 -19 -22 -3)
1969-12-31 18:00:09.990602007,(-21 -2 0 -1 6 4 1 -3)
1969-12-31 18:00:09.990602007,(15 10 6 1 -6 -29 8 -10)
1969-12-31 18:00:10.007964880,(18 -9 -11 -10 -3 -18 -32 -8)
1969-12-31 18:00:10.007964880,(25 7 3 0 7 47 1 -26)
1969-12-31 18:00:10.008754101,(7 -2 3 13 22 21 37 65)
1969-12-31 18:00:10.008754101,(-6 -7 -2 4 -12 -25 -30 -34)
1969-12-31 18:00:10.026116974,(18 27 1 -17 -44 -27 5 11)
1969-12-31 18:00:10.026116974,(-24 -30 -2 17 37 7 0 7)
1969-12-31 18:00:10.026906195,(-55 12 9 12 10 60 -10 -20)
1969-12-31 18:00:10.026906195,(54 21 1 -13 13 -1 -13 -2)
1969-12-31 18:00:10.037166075,(-17 -13 -6 -20 -18 -22 1 2)
1969-12-31 18:00:10.037166075,(7 -13 -4 -13 -21 -11 67 42)
1969-12-31 18:00:10.037955296,(-30 -2 -2 -5 -4 -27 -26 -17)
1969-12-31 18:00:10.037955296,(17 7 10 20 6 -42 -55 -10)
1969-12-31 18:00:10.055318169,(12 -13 1 22 36 55 29 40)
1969-12-31 18:00:10.055318169,(-21 9 8 5 4 -29 47 -20)
1969-12-31 18:00:10.056107390,(7 -6 -9 1 -18 29 -13 -3)
1969-12-31 18:00:10.056107390,(-14 -14 -11 -20 -13 -34 -18 35)
1969-12-31 18:00:10.073470263,(-23 10 0 -2 -13 9 -12 -31)
1969-12-31 18:00:10.073470263,(-21 -34 -8 30 46 10 0 7)
1969-12-31 18:00:10.074259485,(13 -8 -4 -33 -57 27 5 -1)
1969-12-31 18:00:10.074259485,(-21 2 -6 -14 -5 -9 8 10)
1969-12-31 18:00:10.084519364,(-5 3 2 -4 3 -8 -6 -11)
1969-12-31 18:00:10.084519364,(3 -3 1 -2 -11 -8 -37 -13)
1969-12-31 18:00:10.085308586,(-17 4 3 25 51 -24 4 -21)
1969-12-31 18:00:10.085308586,(17 7 5 5 -16 25 3 32)
1969-12-31 18:00:10.102671458,(-12 -8 -8 -9 -8 3 14 7)
1969-12-31 18:00:10.102671458,(-17 -24 -2 -8 -11 -13 -12 -18)
1969-12-31 18:00:10.103460680,(33 4 -8 -9 -5 -20 12 23)
1969-12-31 18:00:10.103460680,(-14 -4 5 5 4 -17 13 -12)
1969-12-31 18:00:10.120823553,(0 -10 -6 6 6 -19 -22 -28)
1969-12-31 18:00:10.120823553,(-52 10 -5 -3 -11 0 -15 -56)
1969-12-31 18:00:10.121612774,(5 -8 -4 -10 4 30 -1 24)
1969-12-31 18:00:10.121612774,(29 56 16 -9 -38 -33 -12 -33)
1969-12-31 18:00:10.138186425,(14 -44 -8 6 28 30 14 18)
1969-12-31 18:00:10.138186425,(-23 -12 -12 -6 -2 4 -24 -32)
1969-12-31 18:00:10.138975647,(7 -3 -8 -11 3 -2 -20 -17)
1969-12-31 18:00:10.138975647,(2 0 2 5 -23 -28 -13 -6)
1969-12-31 18:00:10.150024748,(14 15 10 24 11 -32 9 45)
1969-12-31 18:00:10.150024748,(31 9 -3 -19 -35 14 8 40)
1969-12-31 18:00:10.151603191,(-7 -13 -13 -14 18 22 5 -26)
1969-12-31 18:00:10.151603191,(25 12 0 -2 9 18 14 20)
1969-12-31 18:00:10.168176842,(5 46 41 4 -8 -8 1 47)
1969-12-31 18:00:10.168176842,(-28 -12 -2 13 16 5 -12 -24)
1969-12-31 18:00:10.168966063,(22 19 11 11 -17 -33 -11 -3)
1969-12-31 18:00:10.168966063,(-29 -56 -36 -12 -6 -37 -2 11)
1969-12-31 18:00:10.178436721,(-30 -40 -30 -7 9 54 9 4)
1969-12-31 18:00:10.178436721,(-16 76 64 8 23 13 -9 -24)
1969-12-31 18:00:10.185539715,(-9 -8 17 25 27 16 19 17)
1969-12-31 18:00:10.185539715,(44 12 -9 -15 10 26 15 28)
1969-12-31 18:00:10.197378037,(54 -15 -29 -21 -35 -41 -19 31)
1969-12-31 18:00:10.197378037,(14 -56 -47 -18 13 30 22 13)
1969-12-31 18:00:10.198956480,(2 92 51 21 -8 -40 -7 -5)
1969-12-31 18:00:10.198956480,(-3 -68 -11 21 -3 -21 -14 -7)
1969-12-31 18:00:10.215530131,(-25 -21 -57 -21 20 30 11 5)
1969-12-31 18:00:10.215530131,(-10 28 19 -13 -32 20 -13 -24)
1969-12-31 18:00:10.216319353,(1 -15 -12 18 -1 -20 6 30)
1969-12-31 18:00:10.216319353,(-6 2 -9 2 23 2 -18 -25)
1969-12-31 18:00:10.226579232,(6 -57 -34 -32 -47 -35 -7 -13)
1969-12-31 18:00:10.226579232,(52 38 0 2 19 -9 5 55)
1969-12-31 18:00:10.232893004,(-30 -91 -35 -15 5 32 23 0)
1969-12-31 18:00:10.232893004,(53 101 -19 -1 -14 -37 -8 26)
1969-12-31 18:00:10.244731326,(-14 43 84 35 16 8 15 -6)
1969-12-31 18:00:10.244731326,(3 -102 -125 -25 2 9 1 14)
1969-12-31 18:00:10.246309769,(-34 52 60 15 40 41 -4 -21)
1969-12-31 18:00:10.246309769,(10 41 69 20 10 35 19 -26)
1969-12-31 18:00:10.262883421,(-37 -47 -101 -27 -10 -66 -29 -29)
1969-12-31 18:00:10.262883421,(31 125 127 25 -9 37 -10 -43)
1969-12-31 18:00:10.263672642,(52 -126 -119 -57 -40 -13 15 60)
1969-12-31 18:00:10.263672642,(-25 53 18 7 18 14 -1 -45)
1969-12-31 18:00:10.273143300,(-40 127 127 54 27 9 -5 -25)
1969-12-31 18:00:10.273143300,(8 -107 -81 -12 -18 -70 2 -8)
1969-12-31 18:00:10.280246293,(-12 2 -76 -39 -61 -23 -18 -41)
1969-12-31 18:00:10.280246293,(-31 17 63 31 45 29 -10 -35)
1969-12-31 18:00:10.292873837,(46 -98 -87 -24 -8 22 18 39)
1969-12-31 18:00:10.292873837,(27 50 46 22 -15 -42 5 32)
1969-12-31 18:00:10.293663059,(-19 -119 -75 -46 -38 5 -19 -29)
1969-12-31 18:00:10.293663059,(-19 -31 -70 -38 -14 19 20 22)
1969-12-31 18:00:10.310236710,(49 -49 -55 -12 18 -16 -29 -20)
1969-12-31 18:00:10.310236710,(-33 89 86 63 31 42 3 -45)
1969-12-31 18:00:10.311025932,(45 6 29 35 8 -16 8 12)
1969-12-31 18:00:10.311025932,(-55 -121 -109 -33 -16 1 -28 -43)
1969-12-31 18:00:10.320496589,(-51 49 17 -17 -3 -17 -12 -37)
1969-12-31 18:00:10.320496589,(15 -61 -105 -44 -16 -15 6 51)
1969-12-31 18:00:10.327599583,(37 127 127 43 7 -5 -9 7)
1969-12-31 18:00:10.327599583,(14 -51 -26 0 -19 9 -4 -21)
1969-12-31 18:00:10.339437905,(-13 -81 -18 -8 -3 12 -9 -35)
1969-12-31 18:00:10.339437905,(-39 -54 -66 -24 -1 10 -1 -17)
1969-12-31 18:00:10.341016348,(-15 64 29 3 -8 -39 -18 1)
1969-12-31 18:00:10.341016348,(-26 36 31 3 -4 11 8 -7)
1969-12-31 18:00:10.357589999,(-6 -39 -10 2 -3 -14 0 13)
1969-12-31 18:00:10.357589999,(-24 -22 -17 -12 -5 0 -12 -49)
1969-12-31 18:00:10.359168442,(-16 -76 -45 -4 10 7 -10 -40)
1969-12-31 18:00:10.359168442,(-24 -86 -70 7 34 -25 -2 10)
1969-12-31 18:00:10.368639100,(49 127 73 -1 -34 38 18 34)
1969-12-31 18:00:10.368639100,(8 -58 -13 4 -1 -15 12 13)
1969-12-31 18:00:10.375742094,(-76 -43 -50 -28 -12 -1 5 -27)
1969-12-31 18:00:10.375742094,(19 99 69 36 15 -14 -11 48)
1969-12-31 18:00:10.386791195,(-55 -118 -70 -27 -37 -46 -22 -81)
1969-12-31 18:00:10.386791195,(56 121 79 8 2 37 17 46)
1969-12-31 18:00:10.388369638,(-13 14 40 26 5 -10 9 13)
1969-12-31 18:00:10.388369638,(-7 -96 -74 -27 -15 -23 2 0)
1969-12-31 18:00:10.404943289,(31 -6 -18 1 16 33 8 19)
1969-12-31 18:00:10.404943289,(-33 -46 -8 -4 -18 -22 -8 1)
1969-12-31 18:00:10.405732510,(-17 18 -41 -15 -3 -15 -15 -50)
1969-12-31 18:00:10.405732510,(3 45 91 19 7 23 12 19)
1969-12-31 18:00:10.415203168,(-16 32 31 32 22 -33 -8 -5)
1969-12-31 18:00:10.415203168,(-19 -86 -57 -37 -5 25 -5 -21)
1969-12-31 18:00:10.422306162,(8 -65 -74 6 49 54 42 91)
1969-12-31 18:00:10.422306162,(33 79 72 -11 -27 -13 -11 -36)
1969-12-31 18:00:10.434144484,(53 72 38 4 -17 -14 -9 18)
1969-12-31 18:00:10.434144484,(-1 -22 -7 18 9 -55 -2 0)
1969-12-31 18:00:10.439669034,(-16 -119 -41 -12 -7 20 -11 -30)
1969-12-31 18:00:10.439669034,(52 38 -51 -29 -15 -2 3 7)
1969-12-31 18:00:10.452296578,(43 90 81 46 45 9 15 14)
1969-12-31 18:00:10.452296578,(15 20 43 16 -8 -6 -8 -1)
1969-12-31 18:00:10.453875021,(9 -23 0 -6 -32 -18 -12 -23)
1969-12-31 18:00:10.453875021,(8 -66 -53 -12 2 10 13 72)
1969-12-31 18:00:10.463345679,(-8 3 13 3 -1 17 8 -8)
1969-12-31 18:00:10.463345679,(-15 -90 -100 -23 -4 -31 6 39)
1969-12-31 18:00:10.469659451,(21 127 72 33 15 21 -9 -3)
1969-12-31 18:00:10.469659451,(-1 -65 -36 4 -17 36 22 13)
1969-12-31 18:00:10.481497773,(-23 -121 -102 -36 -15 -23 -8 -2)
1969-12-31 18:00:10.481497773,(-6 27 31 15 24 52 2 5)
1969-12-31 18:00:10.487811545,(-25 -104 -42 -7 15 -27 -3 1)
1969-12-31 18:00:10.487811545,(-29 24 26 -4 -20 7 -11 -38)
1969-12-31 18:00:10.499649868,(6 8 -12 10 7 -7 11 0)
1969-12-31 18:00:10.499649868,(-25 20 -14 -37 -33 10 -28 -58)
1969-12-31 18:00:10.500439089,(58 127 121 40 -6 -37 13 5)
1969-12-31 18:00:10.500439089,(-2 -63 -17 15 15 3 13 12)
1969-12-31 18:00:10.517801962,(-12 -68 -99 -24 5 12 -6 12)
1969-12-31 18:00:10.517801962,(-5 67 78 20 -5 -16 -2 -7)
1969-12-31 18:00:10.519380405,(-81 -101 -114 -46 -16 -14 -7 -17)
1969-12-31 18:00:10.519380405,(34 127 88 18 3 -7 -45 -47)
1969-12-31 18:00:10.528851063,(-23 25 22 -2 -2 14 4 -2)
1969-12-31 18:00:10.528851063,(29 -11 20 36 19 -9 -3 31)
1969-12-31 18:00:10.534375613,(-25 -40 -2 -24 -25 9 1 -22)
1969-12-31 18:00:10.534375613,(-24 -102 -74 -14 22 -16 -8 -13)
1969-12-31 18:00:10.547003157,(-21 -50 -23 2 -8 13 11 63)
1969-12-31 18:00:10.547003157,(-20 27 0 -19 19 13 -17 -33)
1969-12-31 18:00:10.547792378,(35 -14 -14 -8 -15 -15 24 19)
1969-12-31 18:00:10.547792378,(-40 -16 -14 7 23 15 -16 -22)
1969-12-31 18:00:10.564366030,(32 38 46 11 -10 0 9 44)
1969-12-31 18:00:10.564366030,(-26 -49 -86 -14 19 15 13 4)
1969-12-31 18:00:10.565944473,(50 89 75 42 10 10 -8 20)
1969-12-31 18:00:10.565944473,(22 -12 28 9 12 -6 -11 0)
1969-12-31 18:00:10.576204351,(-15 -9 -44 -18 -11 13 16 5)
1969-12-31 18:00:10.576204351,(48 70 81 60 -5 -10 9 25)
1969-12-31 18:00:10.580939681,(19 -84 -127 -20 14 -15 -15 20)
1969-12-31 18:00:10.580939681,(-20 -39 -16 11 -3 -6 0 5)
1969-12-31 18:00:10.594356446,(-39 -83 -35 -5 -12 -14 -7 -27)
1969-12-31 18:00:10.594356446,(39 -59 -65 -29 0 -5 1 19)
1969-12-31 18:00:10.595934889,(16 33 23 7 9 22 19 32)
1969-12-31 18:00:10.595934889,(-3 103 112 49 13 -11 11 8)
1969-12-31 18:00:10.611719319,(-15 -2 -24 -15 11 17 7 5)
1969-12-31 18:00:10.611719319,(1 -107 -107 -40 -39 -20 -9 3)
1969-12-31 18:00:10.613297762,(15 107 69 23 6 -11 -19 -32)
1969-12-31 18:00:10.613297762,(-23 -58 -61 -34 -23 28 5 -14)
1969-12-31 18:00:10.623557641,(-15 33 2 18 16 6 -1 -39)
1969-12-31 18:00:10.623557641,(40 61 88 47 29 12 10 21)
1969-12-31 18:00:10.629082192,(-11 -63 -44 -23 -3 20 10 -4)
1969-12-31 18:00:10.629082192,(53 -56 -75 -17 14 -44 2 40)
1969-12-31 18:00:10.641709736,(-24 102 120 16 -37 -9 -20 -31)
1969-12-31 18:00:10.641709736,(-42 -38 -39 -41 -63 -27 -17 -36)
1969-12-31 18:00:10.643288179,(-35 -40 -27 -5 9 11 3 -16)
1969-12-31 18:00:10.643288179,(31 45 30 4 -2 41 27 27)
1969-12-31 18:00:10.659072608,(-30 -84 -20 12 58 16 -5 -27)
1969-12-31 18:00:10.659072608,(-2 -23 -98 -51 -32 -27 -13 3)
1969-12-31 18:00:10.660651051,(29 82 114 68 19 1 5 15)
1969-12-31 18:00:10.660651051,(-46 -98 -97 -14 -7 -12 -14 -19)
1969-12-31 18:00:10.670910931,(52 2 -45 -6 -3 -2 -5 9)
1969-12-31 18:00:10.670910931,(-23 -26 -18 -1 -9 -25 4 -6)
1969-12-31 18:00:10.676435481,(5 -33 -45 -35 -8 13 -24 -14)
1969-12-31 18:00:10.676435481,(45 118 113 32 3 -16 6 18)
1969-12-31 18:00:10.689852246,(25 -37 -21 -1 -9 -5 -2 17)
1969-12-31 18:00:10.689852246,(-20 -58 -54 -6 24 25 20 -2)
1969-12-31 18:00:10.690641468,(24 82 59 18 15 -4 0 27)
1969-12-31 18:00:10.690641468,(-50 -41 -47 -35 -14 -22 -16 -14)
1969-12-31 18:00:10.706425897,(-12 -88 -54 -19 -20 16 15 -3)
1969-12-31 18:00:10.706425897,(13 94 78 22 9 3 -1 -5)
1969-12-31 18:00:10.708004341,(-41 -105 -61 -23 -21 -20 -16 -37)
1969-12-31 18:00:10.708004341,(-2 -23 -24 -15 -3 -15 4 -20)
1969-12-31 18:00:10.717474999,(37 89 24 16 24 21 0 7)
1969-12-31 18:00:10.717474999,(24 20 50 24 14 17 15 30)
1969-12-31 18:00:10.724577992,(-46 -24 -9 -8 -15 -4 8 -12)
1969-12-31 18:00:10.724577992,(28 -62 -74 -16 -14 -18 -10 38)
1969-12-31 18:00:10.736416314,(20 3 5 -1 22 7 12 18)
1969-12-31 18:00:10.736416314,(-14 59 53 17 5 16 7 -6)
1969-12-31 18:00:10.737205536,(34 17 -8 1 12 1 3 33)
1969-12-31 18:00:10.737205536,(-12 -27 1 8 4 7 -26 -64)
1969-12-31 18:00:10.753779187,(-6 10 19 -7 -59 -26 0 -9)
1969-12-31 18:00:10.753779187,(4 30 12 2 10 -9 -6 13)
1969-12-31 18:00:10.755357630,(-6 -34 -15 -25 1 14 -6 -3)
1969-12-31 18:00:10.755357630,(-19 -18 -37 -2 7 25 17 4)
1969-12-31 18:00:10.764828288,(7 5 14 10 5 -38 -32 -7)
1969-12-31 18:00:10.764828288,(12 0 -33 -27 -13 12 -1 -36)
1969-12-31 18:00:10.771931281,(-20 80 82 46 27 -14 -25 -36)
1969-12-31 18:00:10.771931281,(18 -73 -65 -39 -42 4 9 51)
1969-12-31 18:00:10.783769604,(23 108 62 17 13 10 19 -10)
1969-12-31 18:00:10.783769604,(41 -7 23 13 3 -13 6 38)
1969-12-31 18:00:10.784558825,(-3 -46 -63 -18 -18 -3 3 -1)
1969-12-31 18:00:10.784558825,(-2 -9 -4 2 10 -9 -5 -46)
1969-12-31 18:00:10.801132476,(-18 -29 8 13 17 15 14 28)
1969-12-31 18:00:10.801132476,(-8 25 5 1 6 15 -13 -12)
1969-12-31 18:00:10.806657027,(6 6 5 -13 -33 -18 -6 -5)
1969-12-31 18:00:10.806657027,(12 17 14 8 2 -17 -2 21)
1969-12-31 18:00:10.812970799,(-35 -93 -61 -25 -13 -3 9 33)
1969-12-31 18:00:10.812970799,(-14 18 18 21 19 13 -17 -38)
1969-12-31 18:00:10.818495349,(28 -11 -24 -2 10 -6 6 18)
1969-12-31 18:00:10.818495349,(-46 -52 -19 -7 -18 2 4 -29)
1969-12-31 18:00:10.831122893,(26 46 23 5 1 9 17 31)
1969-12-31 18:00:10.831122893,(-36 -43 -46 -16 -15 -38 -31 -15)
1969-12-31 18:00:10.831912115,(-31 23 31 13 -12 -10 -1 -51)
1969-12-31 18:00:10.831912115,(-18 -16 -22 -10 -1 15 -7 -6)
1969-12-31 18:00:10.848485766,(15 54 48 18 10 0 -5 -34)
1969-12-31 18:00:10.848485766,(-23 -87 -61 -8 6 -20 -14 -52)
1969-12-31 18:00:10.850064209,(-15 25 28 -17 -15 32 2 3)
1969-12-31 18:00:10.850064209,(39 31 26 12 5 -14 15 37)
1969-12-31 18:00:10.859534867,(-43 -7 -20 -21 -6 -5 -30 -56)
1969-12-31 18:00:10.859534867,(0 54 61 23 1 22 34 28)
1969-12-31 18:00:10.866637860,(0 -96 -81 -18 -7 -35 -24 -22)
1969-12-31 18:00:10.866637860,(-7 81 69 3 26 9 1 -1)
1969-12-31 18:00:10.878476182,(-15 -52 -32 -10 -5 3 -10 -18)
1969-12-31 18:00:10.878476182,(-22 -38 -27 -20 -17 -15 -11 -16)
1969-12-31 18:00:10.879265404,(-6 -23 -20 5 24 18 9 19)
1969-12-31 18:00:10.879265404,(30 85 37 16 3 -4 7 49)
1969-12-31 18:00:10.895839055,(-5 18 34 10 -8 -12 -13 -47)
1969-12-31 18:00:10.895839055,(22 -50 -12 3 12 -15 -4 21)
1969-12-31 18:00:10.897417498,(-35 -29 4 -2 -14 8 5 -22)
1969-12-31 18:00:10.897417498,(10 -6 -59 -12 1 -3 7 27)
1969-12-31 18:00:10.906888156,(8 48 51 17 3 36 8 17)
1969-12-31 18:00:10.906888156,(-75 -6 -27 -31 -44 -25 -20 -56)
1969-12-31 18:00:10.918726478,(14 81 67 22 9 -49 -19 -9)
1969-12-31 18:00:10.918726478,(-16 -56 -27 -27 -20 20 -9 -18)
1969-12-31 18:00:10.925829472,(-11 -50 -58 -23 14 -9 -3 -4)
1969-12-31 18:00:10.925829472,(71 48 63 39 18 26 30 71)
1969-12-31 18:00:10.926618693,(1 -59 -85 -26 9 21 4 13)
1969-12-31 18:00:10.926618693,(-2 127 127 90 33 -9 -9 -27)
1969-12-31 18:00:10.943192345,(23 10 -27 -11 4 19 -4 3)
1969-12-31 18:00:10.943192345,(-19 -86 -62 -37 -34 -7 8 14)
1969-12-31 18:00:10.949506116,(-6 -45 -59 -15 4 -16 -13 -9)
1969-12-31 18:00:10.949506116,(32 86 78 35 14 22 23 46)
1969-12-31 18:00:10.954241445,(-7 -26 3 -7 -14 -11 -16 -32)
1969-12-31 18:00:10.954241445,(28 65 54 22 19 9 22 40)
1969-12-31 18:00:10.961344439,(12 27 5 -5 0 -3 -10 -23)
1969-12-31 18:00:10.961344439,(-53 -22 16 2 1 2 -8 -56)
1969-12-31 18:00:10.973182761,(-19 -21 -20 -2 -19 -41 -4 1)
1969-12-31 18:00:10.973182761,(37 4 -29 -15 -10 23 15 31)
1969-12-31 18:00:10.973971983,(20 47 84 36 49 78 28 34)
1969-12-31 18:00:10.973971983,(-11 -43 -43 -21 -15 -19 -14 -14)
1969-12-31 18:00:10.990545634,(3 -101 -72 -2 14 -21 16 34)
1969-12-31 18:00:10.990545634,(-16 54 42 8 -8 -5 -30 -82)
1969-12-31 18:00:10.992124077,(15 23 -3 -10 -7 14 27 41)
1969-12-31 18:00:10.992124077,(-12 12 46 16 -6 -1 5 -21)
1969-12-31 18:00:11.001594735,(-7 -94 -53 -14 5 3 -4 15)
1969-12-31 18:00:11.001594735,(-17 -46 -94 -31 -4 -27 -8 -3)
1969-12-31 18:00:11.008697728,(24 96 95 60 20 3 0 -12)
1969-12-31 18:00:11.008697728,(-10 -111 -117 -39 -37 -15 -21 -3)
1969-12-31 18:00:11.020536051,(-21 39 23 32 10 2 13 12)
1969-12-31 18:00:11.020536051,(-23 -76 -12 -6 -15 -1 -4 -37)
1969-12-31 18:00:11.021325272,(-1 -56 -71 -48 -37 -59 -19 -2)
1969-12-31 18:00:11.021325272,(30 78 81 6 -18 56 24 29)
1969-12-31 18:00:11.037898923,(-29 -100 -96 -38 -10 -2 -2 8)
1969-12-31 18:00:11.037898923,(-14 92 19 10 36 22 -12 -21)
1969-12-31 18:00:11.039477366,(19 77 99 35 5 -22 11 -6)
1969-12-31 18:00:11.039477366,(6 -128 -68 -9 15 12 3 23)
1969-12-31 18:00:11.048948024,(22 81 35 4 -24 -12 -4 -16)
1969-12-31 18:00:11.048948024,(-53 -122 -39 -17 1 7 -3 -18)
1969-12-31 18:00:11.056051018,(1 31 -38 3 -8 -23 -1 1)
1969-12-31 18:00:11.056051018,(-45 -40 -26 -6 14 -12 -10 -15)
1969-12-31 18:00:11.067889340,(54 75 61 7 -18 10 14 25)
1969-12-31 18:00:11.067889340,(-41 -75 -28 1 -17 -30 -30 -14)
1969-12-31 18:00:11.068678561,(-14 -95 -67 -43 -35 13 -11 -28)
1969-12-31 18:00:11.068678561,(31 80 61 13 6 -1 12 10)
1969-12-31 18:00:11.085252213,(-5 -5 2 10 13 10 2 -11)
1969-12-31 18:00:11.085252213,(-10 3 5 -3 -4 -3 17 20)
1969-12-31 18:00:11.086830656,(-39 -77 -59 -29 -6 8 2 7)
1969-12-31 18:00:11.086830656,(3 -66 -78 -28 -3 -16 1 -7)
1969-12-31 18:00:11.096301313,(30 98 54 13 2 0 -10 38)
1969-12-31 18:00:11.096301313,(49 108 81 47 6 -9 18 53)
1969-12-31 18:00:11.103404307,(-41 -85 -43 -27 -55 -5 -17 -32)
1969-12-31 18:00:11.103404307,(-2 -92 -27 -4 12 19 17 20)
1969-12-31 18:00:11.115242629,(65 65 11 -4 4 0 1 44)
1969-12-31 18:00:11.115242629,(9 -63 -23 3 15 -2 0 5)
1969-12-31 18:00:11.116031851,(18 -2 -13 9 13 -3 -8 -25)
1969-12-31 18:00:11.116031851,(57 98 68 0 -25 -18 -3 54)
1969-12-31 18:00:11.133394723,(-24 -96 -67 -20 -12 12 12 15)
1969-12-31 18:00:11.133394723,(3 34 21 -2 30 25 -4 -28)
1969-12-31 18:00:11.134183945,(5 -91 -50 -6 -4 -7 9 25)
1969-12-31 18:00:11.134183945,(-28 -12 -11 -3 -19 -20 -3 -36)
1969-12-31 18:00:11.143654603,(-10 91 80 17 17 17 -12 -30)
1969-12-31 18:00:11.143654603,(38 73 73 17 -1 -13 8 23)
1969-12-31 18:00:11.150757596,(-6 -35 -18 3 21 28 12 19)
1969-12-31 18:00:11.150757596,(-33 3 -39 -23 -18 -1 -7 -33)
1969-12-31 18:00:11.168120469,(43 -42 -9 13 18 -6 2 10)
1969-12-31 18:00:11.168909691,(4 32 7 -7 -12 -1 6 26)
1969-12-31 18:00:11.169698912,(-3 -21 5 -1 15 39 22 21)
1969-12-31 18:00:11.169698912,(-57 -46 -21 -14 -8 -50 -34 -50)
1969-12-31 18:00:11.179958791,(-19 5 -2 -2 -2 3 -2 -37)
1969-12-31 18:00:11.179958791,(20 -1 -4 8 -3 16 15 16)
1969-12-31 18:00:11.181537234,(26 24 -12 -9 -9 -20 -1 33)
1969-12-31 18:00:11.181537234,(1 0 28 23 23 29 17 37)
1969-12-31 18:00:11.191007892,(-65 -106 -74 -28 -24 -20 -9 -27)
1969-12-31 18:00:11.191007892,(13 42 26 5 -13 -34 -11 -1)
1969-12-31 18:00:11.198110886,(-5 38 23 14 17 18 5 5)
1969-12-31 18:00:11.198110886,(9 -40 -67 -30 -11 -21 -4 -4)
1969-12-31 18:00:11.215473758,(-52 -59 -11 5 -14 -6 -24 -68)
1969-12-31 18:00:11.215473758,(-27 13 7 -22 -29 -3 -26 -57)
1969-12-31 18:00:11.217052201,(26 -5 3 4 8 -12 14 51)
1969-12-31 18:00:11.217052201,(8 -12 -27 -9 -17 -8 6 15)
1969-12-31 18:00:11.227312081,(-21 9 15 15 45 30 15 6)
1969-12-31 18:00:11.227312081,(13 -52 -58 -16 -3 -34 -18 -28)
1969-12-31 18:00:11.233625853,(56 127 115 32 18 28 4 27)
1969-12-31 18:00:11.233625853,(-37 -7 6 0 -18 -21 -27 -52)
1969-12-31 18:00:11.238361182,(26 -31 -36 -20 -14 -3 1 -4)
1969-12-31 18:00:11.238361182,(-1 10 -14 5 16 17 13 32)
1969-12-31 18:00:11.245464175,(3 48 41 21 15 -6 -3 -5)
1969-12-31 18:00:11.245464175,(-1 -48 21 17 22 8 0 2)
1969-12-31 18:00:11.257302497,(10 25 -44 -15 -5 -1 -6 4)
1969-12-31 18:00:11.257302497,(17 -9 13 7 6 11 13 20)
1969-12-31 18:00:11.262037826,(-29 -76 -82 -22 -9 -17 -1 11)
1969-12-31 18:00:11.262037826,(60 94 83 27 10 26 17 26)
1969-12-31 18:00:11.274665370,(-10 -33 -31 -8 -8 -23 -29 -40)
1969-12-31 18:00:11.274665370,(11 7 8 -8 11 18 25 36)
1969-12-31 18:00:11.276243813,(-12 -43 -29 -23 1 -1 -13 -21)
1969-12-31 18:00:11.276243813,(0 46 26 14 0 -8 -5 -11)
1969-12-31 18:00:11.285714471,(27 50 59 4 -14 -6 13 23)
1969-12-31 18:00:11.285714471,(5 -2 -37 -2 6 16 21 21)
1969-12-31 18:00:11.292817464,(58 23 42 9 -11 -36 1 50)
1969-12-31 18:00:11.292817464,(-18 -54 -47 -10 22 53 0 -5)
1969-12-31 18:00:11.304655787,(0 5 -8 -8 -6 -13 -2 29)
1969-12-31 18:00:11.304655787,(-12 35 52 24 -11 8 -7 -11)
1969-12-31 18:00:11.306234230,(-31 -92 -57 -17 -17 -12 8 4)
1969-12-31 18:00:11.306234230,(10 47 -9 -16 -15 -19 -14 -11)
1969-12-31 18:00:11.322018659,(1 29 17 6 14 2 3 -3)
1969-12-31 18:00:11.322018659,(13 -37 -21 -7 -3 -1 -2 13)
1969-12-31 18:00:11.323597102,(-23 12 5 4 4 1 -8 -45)
1969-12-31 18:00:11.323597102,(9 -24 -33 -14 3 0 -6 7)
1969-12-31 18:00:11.340170754,(1 21 72 20 3 18 8 4)
1969-12-31 18:00:11.340170754,(12 -13 -5 5 19 5 -4 14)
1969-12-31 18:00:11.341749197,(-39 -17 -12 -11 -16 4 -2 -14)
1969-12-31 18:00:11.341749197,(18 19 -19 -8 -1 -20 -9 -19)
1969-12-31 18:00:11.352009076,(-25 -19 7 0 -17 -7 -18 -18)
1969-12-31 18:00:11.352009076,(2 -34 -21 -21 -18 -6 8 2)
1969-12-31 18:00:11.352798298,(-9 -31 -54 -13 -13 7 -8 -28)
1969-12-31 18:00:11.352798298,(-31 82 71 32 11 3 7 -12)
1969-12-31 18:00:11.369371949,(18 33 26 13 18 -5 -15 4)
1969-12-31 18:00:11.369371949,(-8 -57 -47 -15 -8 7 10 21)
1969-12-31 18:00:11.370950392,(-55 -50 -53 -29 -13 1 -14 -61)
1969-12-31 18:00:11.370950392,(-30 8 28 4 -5 -8 4 -19)
1969-12-31 18:00:11.387524043,(-16 -33 -34 -11 -15 -13 -9 -19)
1969-12-31 18:00:11.387524043,(-16 -14 5 4 21 10 -5 -11)
1969-12-31 18:00:11.389102486,(34 42 9 10 6 -19 -2 22)
1969-12-31 18:00:11.389102486,(14 -48 -37 -12 5 19 -3 15)
1969-12-31 18:00:11.398573144,(12 82 54 20 4 26 30 26)
1969-12-31 18:00:11.398573144,(-24 -30 -10 8 8 -18 12 51)
1969-12-31 18:00:11.404097694,(19 55 54 14 2 33 6 22)
1969-12-31 18:00:11.404097694,(7 -96 -57 -24 -4 -13 -7 -1)
1969-12-31 18:00:11.416725238,(-17 21 0 -6 12 -2 11 17)
1969-12-31 18:00:11.416725238,(-8 19 -4 -5 -15 -7 -14 -39)
1969-12-31 18:00:11.418303681,(10 56 55 21 -6 -13 7 -14)
1969-12-31 18:00:11.418303681,(33 -67 -26 3 1 6 12 44)
1969-12-31 18:00:11.434877332,(-8 -33 -44 -18 -20 0 -6 -21)
1969-12-31 18:00:11.434877332,(28 -15 9 -4 -5 4 1 -4)
1969-12-31 18:00:11.435666554,(-10 70 11 7 20 -2 4 10)
1969-12-31 18:00:11.435666554,(63 103 89 50 15 17 22 49)
1969-12-31 18:00:11.452240205,(-6 -128 -74 -13 3 -30 -8 -2)
1969-12-31 18:00:11.452240205,(22 27 16 0 4 12 -23 -25)
1969-12-31 18:00:11.453818648,(-4 -54 -14 -10 -13 -14 -6 -1)
1969-12-31 18:00:11.453818648,(-12 -31 -46 -35 -15 -2 -4 -9)
1969-12-31 18:00:11.465656971,(21 53 35 23 12 2 12 20)
1969-12-31 18:00:11.465656971,(-31 -18 -1 -7 -18 -11 -11 -30)
1969-12-31 18:00:11.466446192,(-20 -29 -15 11 24 -22 -15 -11)
1969-12-31 18:00:11.466446192,(-47 12 9 5 19 50 19 -14)
1969-12-31 18:00:11.482230622,(64 11 10 0 -10 -22 16 67)
1969-12-31 18:00:11.482230622,(-36 -15 -18 1 -28 -12 -25 -48)
1969-12-31 18:00:11.483019843,(30 8 -11 -23 8 29 17 0)
1969-12-31 18:00:11.483019843,(-19 -49 -54 -28 -22 -33 -24 -23)
1969-12-31 18:00:11.493279723,(4 53 49 16 15 23 13 4)
1969-12-31 18:00:11.493279723,(8 56 26 14 5 -18 11 15)
1969-12-31 18:00:11.499593495,(12 46 35 22 -3 -6 -11 -4)
1969-12-31 18:00:11.499593495,(3 -37 -6 11 7 4 4 10)
1969-12-31 18:00:11.511431817,(-38 -69 -60 -34 -21 -10 -25 -43)
1969-12-31 18:00:11.511431817,(-18 -11 -20 -8 1 -3 -2 -14)
1969-12-31 18:00:11.513010260,(-44 -23 4 -11 -14 -1 -15 -34)
1969-12-31 18:00:11.513010260,(22 17 -1 4 31 13 12 5)
1969-12-31 18:00:11.529583911,(-5 -11 -15 -22 -34 -8 2 -8)
1969-12-31 18:00:11.529583911,(-3 10 19 30 29 9 8 -4)
1969-12-31 18:00:11.530373133,(-11 -19 -1 4 5 6 -16 -8)
1969-12-31 18:00:11.530373133,(-17 14 -3 -4 -22 -9 1 -30)
1969-12-31 18:00:11.539843791,(-13 -14 3 7 11 3 -6 -10)
1969-12-31 18:00:11.539843791,(11 -7 -3 -10 3 2 2 0)
1969-12-31 18:00:11.546946784,(-26 -29 -18 -15 -22 -7 -2 9)
1969-12-31 18:00:11.546946784,(-8 22 14 4 -3 -6 11 -3)
1969-12-31 18:00:11.559574328,(7 17 5 5 9 4 -38 -11)
1969-12-31 18:00:11.559574328,(4 -10 -20 -17 -9 3 3 -5)
1969-12-31 18:00:11.561152771,(14 -25 -6 5 12 3 -1 27)
1969-12-31 18:00:11.561152771,(34 49 36 13 -7 -3 83 31)
1969-12-31 18:00:11.576937201,(-74 -50 -27 -10 -4 -30 -78 -59)
1969-12-31 18:00:11.576937201,(-55 -32 -4 0 -1 -14 12 -6)
1969-12-31 18:00:11.577726422,(17 20 -1 -3 1 63 38 5)
1969-12-31 18:00:11.577726422,(55 34 15 -15 -18 -34 12 21)
1969-12-31 18:00:11.587197080,(10 -45 2 31 30 26 35 -3)
1969-12-31 18:00:11.587197080,(-53 -42 -29 -9 1 1 22 -20)
1969-12-31 18:00:11.594300073,(-11 42 13 -20 -29 -58 -12 -8)
1969-12-31 18:00:11.594300073,(-32 -32 -15 16 15 14 -65 -11)
1969-12-31 18:00:11.606927617,(49 36 20 17 30 41 81 40)
1969-12-31 18:00:11.606927617,(48 46 22 13 -8 -35 29 9)
1969-12-31 18:00:11.607716839,(-48 -47 -9 0 0 16 5 -27)
1969-12-31 18:00:11.607716839,(-69 16 8 -2 -9 1 -77 -68)
1969-12-31 18:00:11.624290490,(-11 -34 -16 -17 -15 -9 -7 -4)
1969-12-31 18:00:11.624290490,(45 28 0 -6 -6 22 -4 30)
1969-12-31 18:00:11.625868933,(-11 0 2 7 7 -9 23 -15)
1969-12-31 18:00:11.625868933,(-89 -5 12 7 5 -10 -9 -49)
1969-12-31 18:00:11.635339591,(-6 -14 -6 -1 -1 4 -14 -45)
1969-12-31 18:00:11.635339591,(-22 -19 -7 -4 4 12 2 0)
1969-12-31 18:00:11.642442584,(76 44 19 14 3 -1 -13 4)
1969-12-31 18:00:11.642442584,(-32 -30 -20 -12 -3 3 -28 2)
1969-12-31 18:00:11.653491685,(-4 28 0 -6 -16 -10 7 11)
1969-12-31 18:00:11.653491685,(-9 -40 -16 -12 -6 -17 5 18)
1969-12-31 18:00:11.655070128,(48 22 16 13 22 31 -69 29)
1969-12-31 18:00:11.655070128,(14 -11 6 8 -5 8 56 25)
1969-12-31 18:00:11.671643779,(32 19 2 -3 -4 -11 26 7)
1969-12-31 18:00:11.671643779,(42 28 -1 -7 -4 -7 -46 23)
1969-12-31 18:00:11.672433001,(-29 -22 -8 -2 -3 -19 2 11)
1969-12-31 18:00:11.672433001,(42 -4 -8 -10 -3 4 11 15)
1969-12-31 18:00:11.681903659,(-7 2 0 1 -1 4 -22 6)
1969-12-31 18:00:11.681903659,(-58 -26 -8 -4 -3 0 -10 -56)
1969-12-31 18:00:11.689006652,(-2 0 3 1 -2 -1 34 25)
1969-12-31 18:00:11.689795873,(51 21 1 -1 2 -3 -4 39)
1969-12-31 18:00:11.700844974,(4 24 8 0 0 -4 4 -12)
1969-12-31 18:00:11.700844974,(7 -10 3 4 6 12 -8 11)
1969-12-31 18:00:11.702423416,(-15 -4 -3 -3 -4 0 8 -3)
1969-12-31 18:00:11.702423416,(1 10 1 3 -1 -13 -9 -13)
1969-12-31 18:00:11.718997068,(4 3 -5 -10 -7 -4 -15 6)
1969-12-31 18:00:11.718997068,(-7 -4 2 1 4 10 5 3)
1969-12-31 18:00:11.719786290,(7 8 -2 -1 -2 -6 -6 -3)
1969-12-31 18:00:11.719786290,(7 -2 -1 -1 0 -2 3 16)
1969-12-31 18:00:11.736359941,(-7 -10 -2 1 2 3 4 1)
1969-12-31 18:00:11.736359941,(18 12 1 -1 1 1 -10 -4)
1969-12-31 18:00:11.737938384,(-18 -5 -1 1 -4 -16 -2 -22)
1969-12-31 18:00:11.737938384,(1 -6 -5 -3 -6 -4 -9 -16)
1969-12-31 18:00:11.748198264,(-6 1 -1 1 2 6 7 14)
1969-12-31 18:00:11.748198264,(8 5 0 -2 0 1 1 2)
1969-12-31 18:00:11.749776707,(8 -2 1 1 -2 -9 -10 -9)
1969-12-31 18:00:11.749776707,(0 -4 -3 -2 0 1 3 3)
1969-12-31 18:00:11.766350358,(-1 3 0 -2 -2 -4 -12 -16)
1969-12-31 18:00:11.766350358,(5 0 1 0 1 0 -4 7)
1969-12-31 18:00:11.767139579,(4 -1 -2 -1 -1 3 18 4)
1969-12-31 18:00:11.767139579,(-2 2 1 -1 -2 -2 -2 1)
1969-12-31 18:00:11.777399459,(-12 -10 -7 -2 -2 -1 2 0)
1969-12-31 18:00:11.777399459,(12 13 8 2 0 0 -8 -9)
1969-12-31 18:00:11.784502452,(-8 -2 -2 -2 -1 -6 -9 -15)
1969-12-31 18:00:11.784502452,(-3 0 0 -3 -3 -1 -8 -8)
1969-12-31 18:00:11.796340775,(-4 -5 -2 3 0 -2 -4 0)
1969-12-31 18:00:11.796340775,(-20 -29 -24 -7 0 2 0 -6)
1969-12-31 18:00:11.797129996,(17 20 16 6 2 2 8 1)
1969-12-31 18:00:11.797129996,(-15 39 46 14 5 0 -7 -15)
1969-12-31 18:00:11.813703647,(11 -7 -7 -2 -3 -3 7 -18)
1969-12-31 18:00:11.813703647,(0 -7 -6 -4 -6 -7 -15 -14)
1969-12-31 18:00:11.814492869,(-2 -17 -19 -9 -3 -3 -4 12)
1969-12-31 18:00:11.814492869,(4 -5 -8 -4 -1 3 8 7)
1969-12-31 18:00:11.824752748,(-6 3 1 -3 -5 -5 -7 -5)
1969-12-31 18:00:11.824752748,(5 1 5 9 5 5 -14 -12)
1969-12-31 18:00:11.831855742,(5 14 1 -4 -7 0 16 21)
1969-12-31 18:00:11.831855742,(0 -19 -10 -3 0 -2 -12 -9)
1969-12-31 18:00:11.842904842,(1 5 2 -2 -2 3 14 19)
1969-12-31 18:00:11.842904842,(7 -4 -5 -1 3 7 -3 12)
1969-12-31 18:00:11.844483285,(-4 2 9 1 -2 -6 -10 -11)
1969-12-31 18:00:11.844483285,(2 -6 -12 -4 -2 -5 -3 1)
1969-12-31 18:00:11.861056937,(-15 -23 -11 0 1 0 4 -10)
1969-12-31 18:00:11.861056937,(6 20 14 0 -1 -1 0 2)
1969-12-31 18:00:11.861846158,(-5 6 10 2 0 -1 1 -8)
1969-12-31 18:00:11.862635380,(2 -14 -22 -10 -6 -3 -6 -2)
1969-12-31 18:00:11.872106038,(-1 -1 6 5 3 3 -9 -6)
1969-12-31 18:00:11.872106038,(2 3 -3 -2 2 4 5 0)
1969-12-31 18:00:11.879209031,(-8 -19 -12 -4 -2 -7 -5 -13)
1969-12-31 18:00:11.879209031,(6 5 0 -1 1 3 9 12)
1969-12-31 18:00:11.890258132,(-7 12 12 2 -5 -7 -7 3)
1969-12-31 18:00:11.890258132,(2 5 9 5 2 1 1 -4)
1969-12-31 18:00:11.891836575,(0 -8 -12 -8 -5 -8 -10 2)
1969-12-31 18:00:11.891836575,(2 -10 -8 -2 -5 0 6 5)
1969-12-31 18:00:11.908410226,(0 -1 -2 -4 0 4 6 11)
1969-12-31 18:00:11.908410226,(0 2 2 -1 -3 -7 -13 -17)
1969-12-31 18:00:11.909988669,(-4 -8 -4 -4 0 -3 3 -3)
1969-12-31 18:00:11.909988669,(4 3 0 10 3 1 -4 5)
1969-12-31 18:00:11.919459327,(-1 0 2 -6 -3 -3 -7 -1)
1969-12-31 18:00:11.919459327,(-2 -4 -8 -5 -4 -3 7 7)
1969-12-31 18:00:11.925773099,(1 -1 -4 2 3 2 4 0)
1969-12-31 18:00:11.925773099,(-2 1 3 0 -2 -5 -7 -9)
1969-12-31 18:00:11.937611421,(4 2 -3 -1 0 1 0 9)
1969-12-31 18:00:11.937611421,(-9 -24 -14 -5 -4 -2 -1 -5)
1969-12-31 18:00:11.943135972,(3 21 8 2 1 3 -4 -2)
1969-12-31 18:00:11.943135972,(-4 -5 -5 -5 0 -2 -4 -5)
1969-12-31 18:00:11.955763515,(-3 -7 -8 -3 -1 2 -2 2)
1969-12-31 18:00:11.955763515,(-2 4 6 1 0 -4 1 3)
1969-12-31 18:00:11.956552737,(2 -1 -6 1 -3 1 -4 -1)
1969-12-31 18:00:11.957341958,(-7 -8 -3 -6 -5 -7 -6 -9)
1969-12-31 18:00:11.966812615,(1 0 -7 -3 0 1 1 6)
1969-12-31 18:00:11.966812615,(-1 -12 1 1 0 1 4 3)
1969-12-31 18:00:11.973126388,(4 30 20 9 4 3 10 7)
1969-12-31 18:00:11.973126388,(-6 -7 2 3 -1 -6 -23 -26)
1969-12-31 18:00:11.984964711,(-2 1 -12 -8 -4 -2 0 -1)
1969-12-31 18:00:11.984964711,(0 1 -2 -4 -5 -6 -8 3)
1969-12-31 18:00:11.996013811,(-5 -13 -4 -4 -2 0 -1 -3)
1969-12-31 18:00:11.996013811,(2 -2 -4 -2 2 4 12 9)
1969-12-31 18:00:12.003116805,(-1 -4 -5 -1 0 -3 -4 -2)
1969-12-31 18:00:12.003116805,(-2 -4 -7 -2 -2 -2 -1 -6)
1969-12-31 18:00:12.003906026,(0 -14 -13 0 0 -3 -8 -5)
1969-12-31 18:00:12.003906026,(4 28 19 4 3 0 6 3)
1969-12-31 18:00:12.014165906,(-1 -17 -1 1 -2 -1 -2 -3)
1969-12-31 18:00:12.014165906,(1 11 3 0 0 2 4 1)
1969-12-31 18:00:12.021268899,(-5 -6 0 -6 -4 -2 -5 -6)
1969-12-31 18:00:12.021268899,(2 -3 -5 -5 -5 -3 0 2)
1969-12-31 18:00:12.032318000,(-3 -6 -5 1 2 1 1 4)
1969-12-31 18:00:12.032318000,(3 16 13 3 2 -3 -2 -2)
1969-12-31 18:00:12.037053329,(-1 -7 -3 0 -1 0 1 4)
1969-12-31 18:00:12.037053329,(-5 -9 -11 -5 -3 -5 -14 -15)
1969-12-31 18:00:12.050470094,(-5 -12 -5 -7 -8 0 2 0)
1969-12-31 18:00:12.050470094,(11 30 9 4 2 -1 -5 4)
1969-12-31 18:00:12.052048537,(-12 -14 -5 -7 -5 -4 -9 -18)
1969-12-31 18:00:12.052048537,(1 0 -8 -5 0 0 4 8)
1969-12-31 18:00:12.068622188,(3 -1 1 3 4 -3 -1 0)
1969-12-31 18:00:12.068622188,(-3 -7 6 3 0 4 3 0)
1969-12-31 18:00:12.069411410,(0 -10 -13 -5 -3 2 2 4)
1969-12-31 18:00:12.069411410,(5 16 19 7 5 -3 0 0)
1969-12-31 18:00:12.079671289,(1 3 6 3 0 1 -2 -4)
1969-12-31 18:00:12.079671289,(-3 -6 -5 2 -1 2 6 4)
1969-12-31 18:00:12.085195840,(2 8 -1 -7 -7 -5 -8 -2)
1969-12-31 18:00:12.085195840,(-7 -16 -12 7 21 11 10 1)
1969-12-31 18:00:12.097823384,(13 27 21 11 4 -2 2 12)
1969-12-31 18:00:12.097823384,(-12 -11 -11 -9 -5 -7 -12 -15)
1969-12-31 18:00:12.099401826,(-4 -12 -5 -5 0 -3 4 2)
1969-12-31 18:00:12.099401826,(10 7 -2 -14 -29 1 2 10)
1969-12-31 18:00:12.115975478,(-4 6 6 16 19 12 3 -4)
1969-12-31 18:00:12.115975478,(2 2 -1 4 6 1 1 -1)
1969-12-31 18:00:12.116764699,(0 -1 -7 -3 0 -4 -6 -5)
1969-12-31 18:00:12.116764699,(-3 -5 5 5 0 -1 4 5)
1969-12-31 18:00:12.127813800,(4 10 -3 -14 -10 -8 -1 -1)
1969-12-31 18:00:12.127813800,(-1 -11 -9 -7 -13 0 -3 -3)
1969-12-31 18:00:12.132549129,(-4 -9 1 4 14 9 3 1)
1969-12-31 18:00:12.132549129,(-1 5 -7 -9 -6 -5 -2 -6)
1969-12-31 18:00:12.145176673,(-9 -18 -7 -3 -8 -5 -4 -3)
1969-12-31 18:00:12.145176673,(1 5 -10 -5 -1 -4 -3 -5)
1969-12-31 18:00:12.146755116,(3 12 13 16 5 1 4 4)
1969-12-31 18:00:12.146755116,(-7 -18 -16 -7 -5 -1 1 -1)
1969-12-31 18:00:12.163328767,(-10 -3 8 -4 -7 -8 -14 -14)
1969-12-31 18:00:12.163328767,(3 2 1 8 5 1 6 9)
1969-12-31 18:00:12.164117989,(5 3 7 5 -2 0 -4 -1)
1969-12-31 18:00:12.164117989,(-4 -4 -3 0 -1 -5 -4 -3)
1969-12-31 18:00:12.173588646,(3 1 -2 3 5 6 7 7)
1969-12-31 18:00:12.173588646,(1 -1 -8 -15 -8 -3 -2 -2)
1969-12-31 18:00:12.180691640,(-9 -3 10 6 1 -2 -6 -10)
1969-12-31 18:00:12.180691640,(1 1 -4 7 3 0 0 -2)
1969-12-31 18:00:12.198843734,(3 2 1 -3 -3 -1 -3 1)
1969-12-31 18:00:12.198843734,(1 -4 4 3 2 0 1 4)
1969-12-31 18:00:12.199632956,(5 15 2 -5 -5 0 2 3)
1969-12-31 18:00:12.199632956,(2 -2 -9 -7 -2 -1 0 3)
1969-12-31 18:00:12.210682056,(-8 -6 -1 -10 -6 -5 -2 -5)
1969-12-31 18:00:12.210682056,(-5 -4 -17 -17 -9 -6 -6 -5)
1969-12-31 18:00:12.211471278,(3 -7 -14 4 8 2 3 1)
1969-12-31 18:00:12.211471278,(-2 -6 19 10 4 1 -9 -5)
1969-12-31 18:00:12.228044929,(14 37 7 1 2 6 13 13)
1969-12-31 18:00:12.228044929,(-6 -10 13 20 4 -1 -1 -6)
1969-12-31 18:00:12.229623372,(-17 -30 -59 -94 -40 -17 -12 -15)
1969-12-31 18:00:12.229623372,(0 -4 -45 13 1 -2 1 2)
1969-12-31 18:00:12.241461695,(21 35 96 96 56 23 14 15)
1969-12-31 18:00:12.241461695,(3 12 8 -3 2 4 4 7)
1969-12-31 18:00:12.242250916,(8 12 20 20 8 5 5 11)
1969-12-31 18:00:12.242250916,(-18 -29 -22 -36 -16 -10 -12 -21)
1969-12-31 18:00:12.263559896,(-13 -21 -46 -50 -24 -13 -8 -11)
1969-12-31 18:00:12.263559896,(5 8 6 11 10 4 6 4)
1969-12-31 18:00:12.264349118,(4 2 10 -6 -5 -1 -1 3)
1969-12-31 18:00:12.264349118,(2 6 3 -14 -3 -2 8 6)
1969-12-31 18:00:12.275398219,(-7 -13 -22 -10 -7 -8 -10 -13)
1969-12-31 18:00:12.275398219,(1 1 9 -1 4 3 1 1)
1969-12-31 18:00:12.276187440,(-8 -10 -14 -2 -4 -4 -3 -5)
1969-12-31 18:00:12.276187440,(3 14 30 10 6 2 -4 -5)
1969-12-31 18:00:12.287236541,(-4 -4 -16 -7 -8 -7 -11 -4)
1969-12-31 18:00:12.287236541,(-6 -14 -4 -12 -9 -2 6 1)
1969-12-31 18:00:12.288025762,(2 5 -5 8 1 -1 -1 -4)
1969-12-31 18:00:12.288025762,(3 4 16 18 9 3 1 2)
1969-12-31 18:00:12.305388635,(-14 -10 -18 -17 -9 -6 -8 -10)
1969-12-31 18:00:12.305388635,(-1 -7 -10 -8 -2 -1 3 4)
1969-12-31 18:00:12.306177857,(1 7 9 16 5 -7 -10 -7)
1969-12-31 18:00:12.306177857,(1 3 8 0 2 4 3 9)
1969-12-31 18:00:12.329065280,(1 -7 -11 -13 -7 0 7 0)
1969-12-31 18:00:12.329065280,(-3 -7 -8 -3 -1 3 8 3)
1969-12-31 18:00:12.329854501,(1 4 5 11 3 0 3 1)
1969-12-31 18:00:12.329854501,(1 0 8 -4 -2 1 -3 -1)
1969-12-31 18:00:12.334589830,(1 -2 -3 -2 -5 -7 -8 -2)
1969-12-31 18:00:12.334589830,(-1 0 -3 0 -1 -4 -7 -8)
1969-12-31 18:00:12.336168273,(-2 -16 -10 -15 -5 3 5 5)
1969-12-31 18:00:12.336168273,(2 13 -5 7 1 -2 1 4)
1969-12-31 18:00:12.351952703,(0 0 23 9 3 5 3 -1)
1969-12-31 18:00:12.351952703,(0 7 14 25 6 -3 -6 -4)
1969-12-31 18:00:12.353531146,(1 2 -6 -6 -3 1 -3 0)
1969-12-31 18:00:12.353531146,(-5 -12 -13 -12 -6 -3 1 0)
1969-12-31 18:00:12.363001804,(-10 -10 -18 -12 -9 -6 -3 -9)
1969-12-31 18:00:12.363001804,(-3 -8 -13 -24 -8 -4 -7 -4)
1969-12-31 18:00:12.370104797,(-3 4 15 14 2 -1 -2 -2)
1969-12-31 18:00:12.370104797,(-2 -3 -3 -1 0 0 3 -1)
1969-12-31 18:00:12.388256892,(4 3 5 4 3 2 2 6)
1969-12-31 18:00:12.388256892,(1 5 4 -4 -1 -3 -5 -4)
1969-12-31 18:00:12.389046113,(0 5 -6 2 0 0 3 0)
1969-12-31 18:00:12.389046113,(0 -3 11 1 -2 -2 1 1)
1969-12-31 18:00:12.399305992,(-4 -8 -11 -8 -5 -3 -6 -4)
1969-12-31 18:00:12.399305992,(-1 -1 -3 -1 -1 -1 -2 0)
1969-12-31 18:00:12.400884435,(-2 -2 3 8 6 1 1 0)
1969-12-31 18:00:12.400884435,(-2 3 1 -4 0 0 -1 -2)
1969-12-31 18:00:12.410355093,(0 -3 -6 -6 -2 0 0 2)
1969-12-31 18:00:12.410355093,(2 4 4 3 -1 0 1 -1)
1969-12-31 18:00:12.417458087,(-6 -10 -7 -3 -3 1 0 -2)
1969-12-31 18:00:12.417458087,(-2 1 2 2 3 -3 -6 -5)
1969-12-31 18:00:12.429296409,(-2 -2 -4 -1 -1 2 1 2)
1969-12-31 18:00:12.429296409,(3 2 0 1 2 1 0 1)
1969-12-31 18:00:12.430085631,(0 -2 3 1 -2 -1 -1 -3)
1969-12-31 18:00:12.430085631,(1 2 -1 -4 -4 1 3 1)
1969-12-31 18:00:12.446659282,(-2 -9 -3 1 1 -1 1 1)
1969-12-31 18:00:12.446659282,(-3 4 1 -5 -3 -1 -4 -4)
1969-12-31 18:00:12.448237725,(2 0 4 3 3 2 2 2)
1969-12-31 18:00:12.448237725,(-2 -2 -9 -5 -3 -2 -4 -6)
1969-12-31 18:00:12.457708383,(3 6 12 4 2 0 0 1)
1969-12-31 18:00:12.457708383,(-2 -3 -4 -2 0 -1 -1 -1)
1969-12-31 18:00:12.464811376,(-3 0 2 1 -1 -3 -3 -3)
1969-12-31 18:00:12.464811376,(0 -2 -3 -4 -3 -1 0 0)
1969-12-31 18:00:12.476649698,(3 3 -2 -1 -2 -2 0 1)
1969-12-31 18:00:12.476649698,(-1 -4 -8 -4 -2 -3 -1 -1)
1969-12-31 18:00:12.477438920,(1 5 11 3 1 0 0 1)
1969-12-31 18:00:12.477438920,(0 -2 -1 3 1 0 1 2)
1969-12-31 18:00:12.494012571,(0 2 -4 -2 -2 1 -1 -2)
1969-12-31 18:00:12.494801793,(-2 -4 -5 1 2 1 0 -1)
1969-12-31 18:00:12.495591014,(-1 0 -3 -2 0 0 -1 1)
1969-12-31 18:00:12.495591014,(-3 -3 -1 -4 -3 -1 -2 -3)
1969-12-31 18:00:12.505061672,(1 2 4 3 0 2 0 0)
1969-12-31 18:00:12.505061672,(-3 -5 -4 -3 0 -2 -2 -2)
1969-12-31 18:00:12.512164665,(-1 0 -2 -3 -2 0 -1 -2)
1969-12-31 18:00:12.512164665,(-1 0 3 0 1 0 -1 -1)
1969-12-31 18:00:12.524002988,(-3 -2 -4 -4 -2 -1 0 0)
1969-12-31 18:00:12.524002988,(-3 -2 1 -2 -5 0 -1 -2)
1969-12-31 18:00:12.524792209,(1 1 0 0 1 -2 0 -1)
1969-12-31 18:00:12.524792209,(1 -2 -1 -2 -1 1 0 0)
1969-12-31 18:00:12.542155082,(-3 -3 -4 -4 -3 -3 -3 -3)
1969-12-31 18:00:12.542155082,(-2 0 0 1 -1 -2 -1 1)
1969-12-31 18:00:12.542944304,(-3 -5 -4 -1 1 -1 -2 -4)
1969-12-31 18:00:12.542944304,(-1 -1 -1 -1 -1 0 0 -1)
1969-12-31 18:00:12.552414961,(0 0 -3 -1 0 -2 -1 0)
1969-12-31 18:00:12.552414961,(-2 -3 -1 -2 -2 -2 -1 -1)
1969-12-31 18:00:12.571356277,(3 4 3 0 -2 0 1 2)
1969-12-31 18:00:12.571356277,(-1 -2 1 -2 -2 0 -2 -3)
1969-12-31 18:00:12.572145499,(0 -2 -1 0 -1 -1 -1 1)
1969-12-31 18:00:12.572145499,(-2 -1 -2 -2 0 2 -1 -3)
1969-12-31 18:00:12.573723942,(-1 -4 -2 -1 -1 1 1 1)
1969-12-31 18:00:12.573723942,(1 1 4 0 -1 -1 -1 0)
1969-12-31 18:00:12.588719150,(4 6 3 2 1 3 4 4)
1969-12-31 18:00:12.588719150,(-4 -6 -5 -2 -3 -1 -4 -2)
1969-12-31 18:00:12.590297593,(-3 -3 -3 -2 -2 -1 -4 -3)
1969-12-31 18:00:12.590297593,(0 -1 -2 -3 0 0 0 2)
1969-12-31 18:00:12.599768251,(-4 -1 -1 -2 -1 -4 -4 -3)
1969-12-31 18:00:12.599768251,(1 2 1 2 1 -2 0 1)
1969-12-31 18:00:12.606871244,(-2 0 0 -1 -1 -1 -1 1)
1969-12-31 18:00:12.606871244,(0 2 2 3 3 0 -1 -2)
1969-12-31 18:00:12.618709566,(-4 -7 -5 -2 -1 -2 -3 -3)
1969-12-31 18:00:12.618709566,(-1 -2 0 -1 -1 -1 -2 -3)
1969-12-31 18:00:12.619498788,(-2 0 -3 -4 -3 -1 -3 -3)
1969-12-31 18:00:12.619498788,(0 2 2 2 1 1 -1 1)
1969-12-31 18:00:12.636072439,(-1 -3 -1 -2 1 -2 0 -1)
1969-12-31 18:00:12.636072439,(1 2 3 2 0 -1 0 -1)
1969-12-31 18:00:12.636072439,(1 -1 1 2 -1 -2 -1 -1)
1969-12-31 18:00:12.636072439,(-1 -3 -4 -2 -2 -2 0 -1)
1969-12-31 18:00:12.653435312,(-2 -4 -3 -7 -6 0 -2 -4)
1969-12-31 18:00:12.653435312,(2 1 -1 -1 -2 -3 -2 -1)
1969-12-31 18:00:12.654224534,(0 1 2 0 1 0 2 -1)
1969-12-31 18:00:12.654224534,(1 0 -1 -1 -1 -4 0 0)
1969-12-31 18:00:12.665273634,(3 3 -1 0 -2 1 1 2)
1969-12-31 18:00:12.665273634,(-1 -2 1 0 1 2 1 0)
1969-12-31 18:00:12.666062856,(-3 -3 -2 0 2 -2 -2 -3)
1969-12-31 18:00:12.666062856,(-2 -3 -3 -2 0 -1 -2 -1)
1969-12-31 18:00:12.683425729,(1 1 0 0 -1 -2 0 0)
1969-12-31 18:00:12.683425729,(2 2 0 0 0 -2 -1 1)
1969-12-31 18:00:12.684214950,(3 0 1 0 0 0 1 0)
1969-12-31 18:00:12.684214950,(3 6 5 2 1 1 1 2)
1969-12-31 18:00:12.701577822,(-10 -17 -13 -8 -3 -4 -5 -7)
1969-12-31 18:00:12.701577822,(-1 -1 0 -2 -3 -1 -2 0)
1969-12-31 18:00:12.701577822,(-3 -4 -4 -3 -3 0 -2 -2)
1969-12-31 18:00:12.701577822,(0 3 3 2 1 0 0 1)
1969-12-31 18:00:12.712626923,(1 1 0 1 -1 -1 -1 -1)
1969-12-31 18:00:12.712626923,(-4 -5 -4 -5 -3 0 -2 -2)
1969-12-31 18:00:12.713416145,(2 3 5 3 2 0 -2 0)
1969-12-31 18:00:12.713416145,(-3 -2 -2 -2 1 1 1 -1)
1969-12-31 18:00:12.731568239,(-2 -3 -3 -1 0 -2 0 -3)
1969-12-31 18:00:12.731568239,(-1 -2 -2 -1 -3 -2 -1 -1)
1969-12-31 18:00:12.732357461,(1 2 0 -2 -2 0 0 3)
1969-12-31 18:00:12.732357461,(-2 -3 -3 -2 -3 -1 -3 -2)
1969-12-31 18:00:12.742617340,(-1 0 2 0 1 -1 0 0)
1969-12-31 18:00:12.742617340,(1 2 6 5 6 2 3 1)
1969-12-31 18:00:12.747352669,(-1 -1 -1 -2 -2 -2 -3 -3)
1969-12-31 18:00:12.747352669,(-2 -3 -2 0 -3 -4 -3 -2)
1969-12-31 18:00:12.754455663,(1 1 2 -4 -3 -2 0 2)
1969-12-31 18:00:12.754455663,(-6 -4 -5 -3 0 -1 -3 -5)
1969-12-31 18:00:12.766293985,(-2 -4 -3 -1 -2 -1 -1 0)
1969-12-31 18:00:12.766293985,(-3 -2 -2 -1 0 0 -3 -3)
1969-12-31 18:00:12.771818535,(3 2 -1 -2 -1 -1 -1 0)
1969-12-31 18:00:12.771818535,(1 -1 -1 -1 -1 0 0 1)
1969-12-31 18:00:12.777343086,(-2 2 4 1 -1 -2 -2 -6)
1969-12-31 18:00:12.777343086,(0 -3 -3 -2 -1 -3 -1 0)
1969-12-31 18:00:12.789970630,(-3 -2 -2 -1 -1 0 0 -2)
1969-12-31 18:00:12.789970630,(-2 -1 0 0 0 -2 -1 -2)
1969-12-31 18:00:12.790759851,(1 0 -1 -2 0 -1 0 1)
1969-12-31 18:00:12.790759851,(0 0 1 -1 -1 -4 -2 -1)
1969-12-31 18:00:12.790759851,(5 -4 -4 -6 0 -2 -2 -1)
1969-12-31 18:00:12.790759851,(-12 -7 -16 2 -3 -3 -5 -6)
1969-12-31 18:00:12.797073623,(8 5 14 13 7 4 2 -1)
1969-12-31 18:00:12.797073623,(7 -8 -31 -51 -16 -2 -1 6)
1969-12-31 18:00:12.808911945,(-9 0 0 16 3 -5 -1 0)
1969-12-31 18:00:12.808911945,(-4 1 22 17 6 10 5 0)
1969-12-31 18:00:12.809701167,(-8 -12 -21 -21 -7 -3 -7 -3)
1969-12-31 18:00:12.809701167,(-4 7 4 39 12 1 -1 -5)
1969-12-31 18:00:12.833377812,(-8 1 32 -6 0 4 -5 -19)
1969-12-31 18:00:12.833377812,(2 -5 -5 31 -4 -8 -4 -2)
1969-12-31 18:00:12.833377812,(-6 -4 -64 -63 -12 -2 0 0)
1969-12-31 18:00:12.833377812,(7 3 43 19 1 1 3 2)
1969-12-31 18:00:12.838113141,(12 12 8 38 10 2 2 9)
1969-12-31 18:00:12.838113141,(2 4 15 -7 -3 0 2 1)
1969-12-31 18:00:12.857054456,(-8 -10 -17 -17 -8 -4 -2 -2)
1969-12-31 18:00:12.857054456,(-10 -16 -35 -50 -15 -7 -7 -10)
1969-12-31 18:00:12.862579007,(-1 6 13 3 4 1 -1 -1)
1969-12-31 18:00:12.862579007,(6 4 -7 8 1 3 1 1)
1969-12-31 18:00:12.863368228,(7 7 42 24 4 1 3 6)
1969-12-31 18:00:12.863368228,(-11 -9 -3 23 0 -3 -4 -9)
1969-12-31 18:00:12.874417329,(-6 -11 -51 -46 -13 -3 -2 -1)
1969-12-31 18:00:12.874417329,(6 14 28 -7 1 1 0 2)
1969-12-31 18:00:12.874417329,(6 5 23 22 5 1 1 2)
1969-12-31 18:00:12.874417329,(-6 -5 -7 -33 -7 -3 -4 -6)
1969-12-31 18:00:12.885466430,(-3 -10 -7 27 -4 -1 0 -1)
1969-12-31 18:00:12.885466430,(-1 -5 -17 -16 -3 -2 -3 -2)
1969-12-31 18:00:12.891780202,(-1 -8 -24 -25 -4 0 3 5)
1969-12-31 18:00:12.891780202,(-1 7 10 41 1 -6 -13 -14)
1969-12-31 18:00:12.903618524,(3 1 4 18 12 9 7 8)
1969-12-31 18:00:12.903618524,(-6 -9 -28 -45 -15 -11 -12 -6)
1969-12-31 18:00:12.904407746,(1 3 1 34 12 5 4 0)
1969-12-31 18:00:12.904407746,(7 12 11 -35 -7 4 12 14)
1969-12-31 18:00:12.921770618,(-8 -8 -6 19 -1 -6 -10 -13)
1969-12-31 18:00:12.921770618,(-2 -3 5 17 0 1 2 1)
1969-12-31 18:00:12.922559840,(-4 -10 -21 -39 -15 -7 -10 -4)
1969-12-31 18:00:12.922559840,(-8 -20 -65 -66 -9 1 2 2)
1969-12-31 18:00:12.932819719,(6 22 15 12 9 -4 -9 -14)
1969-12-31 18:00:12.932819719,(8 19 66 77 22 6 5 3)
1969-12-31 18:00:12.939133491,(-2 -5 -1 -27 -6 0 2 4)
1969-12-31 18:00:12.939133491,(-6 -6 5 24 4 -1 -5 -5)
1969-12-31 18:00:12.950971814,(-3 -7 -24 -29 -11 -3 2 1)
1969-12-31 18:00:12.950971814,(-2 0 7 -6 2 -2 0 0)
1969-12-31 18:00:12.951761035,(4 3 11 22 1 -4 -3 -3)
1969-12-31 18:00:12.951761035,(-1 3 14 26 11 4 -3 -3)
1969-12-31 18:00:12.969123907,(-8 -28 -45 -68 -22 -2 9 10)
1969-12-31 18:00:12.969123907,(4 5 3 -4 2 -7 -13 -13)
1969-12-31 18:00:12.969123907,(2 9 17 25 3 0 -6 -7)
1969-12-31 18:00:12.969123907,(-3 1 -7 -10 -5 -2 -5 -6)
1969-12-31 18:00:12.980173009,(3 11 26 36 8 0 6 10)
1969-12-31 18:00:12.980173009,(-4 -5 -24 -33 -11 1 1 1)
1969-12-31 18:00:12.986486781,(1 3 1 10 1 0 2 3)
1969-12-31 18:00:12.986486781,(2 5 -8 4 -1 -2 0 0)
1969-12-31 18:00:12.998325103,(-2 -4 7 -16 -3 -1 -4 -3)
1969-12-31 18:00:12.998325103,(-3 -9 -28 -6 -7 -3 4 3)
1969-12-31 18:00:12.999114324,(0 -2 10 -3 2 0 -2 -3)
1969-12-31 18:00:12.999114324,(0 -3 -12 2 0 1 2 3)
1969-12-31 18:00:13.016477197,(17 64 81 34 9 4 3 2)
1969-12-31 18:00:13.016477197,(-4 -12 -19 -17 -6 -3 -1 0)
1969-12-31 18:00:13.016477197,(-11 -60 -48 -13 -9 -5 1 1)
1969-12-31 18:00:13.016477197,(-7 -37 -16 -2 0 -1 1 0)
1969-12-31 18:00:13.027526298,(-5 -4 -17 4 1 0 -6 -7)
1969-12-31 18:00:13.027526298,(20 53 35 15 4 5 6 8)
1969-12-31 18:00:13.033840070,(-4 -3 7 6 0 2 0 -3)
1969-12-31 18:00:13.033840070,(3 -23 -9 9 -1 -2 -1 1)
1969-12-31 18:00:13.045678392,(-20 -55 -42 -25 -8 0 -1 0)
1969-12-31 18:00:13.045678392,(-9 -18 -13 -8 -4 -2 -3 -1)
1969-12-31 18:00:13.046467614,(0 8 0 6 0 -2 0 2)
1969-12-31 18:00:13.046467614,(-4 4 8 6 2 0 0 -3)
1969-12-31 18:00:13.063830486,(3 10 12 3 0 -2 0 1)
1969-12-31 18:00:13.063830486,(-1 -8 -9 -9 -3 -2 8 9)
1969-12-31 18:00:13.064619708,(2 14 17 8 5 0 -6 -11)
1969-12-31 18:00:13.064619708,(2 17 12 6 2 0 3 6)
1969-12-31 18:00:13.081982581,(19 -2 8 -5 -2 -3 -8 -3)
1969-12-31 18:00:13.081982581,(-14 -25 -23 -7 -3 -2 -7 -9)
1969-12-31 18:00:13.082771802,(-13 -4 -4 -6 -3 -3 -2 -3)
1969-12-31 18:00:13.082771802,(-3 13 14 5 2 1 3 3)
1969-12-31 18:00:13.093031682,(23 10 -2 -4 0 3 11 10)
1969-12-31 18:00:13.093031682,(-7 -1 -4 -3 1 4 2 7)
1969-12-31 18:00:13.093820903,(-28 -4 1 0 -3 -6 -6 -15)
1969-12-31 18:00:13.093820903,(25 28 17 9 3 -1 -2 2)
1969-12-31 18:00:13.111183776,(-2 -9 -8 -6 -5 -4 2 -4)
1969-12-31 18:00:13.111183776,(5 -3 -6 -4 -3 -2 -4 -3)
1969-12-31 18:00:13.111972997,(-32 3 8 3 3 1 -3 -9)
1969-12-31 18:00:13.111972997,(7 -5 -1 -2 -2 0 3 1)
1969-12-31 18:00:13.129335870,(12 12 2 -4 1 1 -1 5)
1969-12-31 18:00:13.129335870,(-30 -25 -14 -11 -9 -7 -10 -26)
1969-12-31 18:00:13.130125092,(34 10 5 4 3 1 10 45)
1969-12-31 18:00:13.130125092,(-14 -4 0 -4 -5 0 4 -8)
1969-12-31 18:00:13.140384971,(-10 9 11 7 3 -10 -25 -14)
1969-12-31 18:00:13.140384971,(-12 -3 -10 -5 -3 -8 -10 -46)
1969-12-31 18:00:13.141174192,(24 1 2 1 6 21 -9 37)
1969-12-31 18:00:13.141174192,(-37 -2 3 2 -3 -19 -4 3)
1969-12-31 18:00:13.158537065,(41 17 -2 -2 -1 0 -3 -12)
1969-12-31 18:00:13.158537065,(36 -1 -7 -3 -1 -3 8 33)
1969-12-31 18:00:13.158537065,(-5 3 1 -2 -2 -5 1 -14)
1969-12-31 18:00:13.158537065,(7 0 4 5 3 11 1 -3)
1969-12-31 18:00:13.176689159,(-67 -33 -5 -1 -2 -2 -1 4)
1969-12-31 18:00:13.176689159,(29 31 6 5 2 0 -1 0)
1969-12-31 18:00:13.177478381,(6 -2 -10 -9 -6 1 12 0)
1969-12-31 18:00:13.177478381,(7 -6 2 3 2 5 0 10)
1969-12-31 18:00:13.187738260,(-43 -10 -2 -3 -1 -4 -8 -55)
1969-12-31 18:00:13.187738260,(19 4 2 -3 -2 7 0 4)
1969-12-31 18:00:13.188527482,(19 -5 0 4 1 -12 3 26)
1969-12-31 18:00:13.188527482,(-27 -12 -7 -5 -2 1 1 -31)
1969-12-31 18:00:13.205890355,(7 -10 -10 -6 -6 -6 4 0)
1969-12-31 18:00:13.205890355,(-15 2 3 0 -1 1 5 11)
1969-12-31 18:00:13.206679576,(-3 -1 1 -1 -1 -4 -4 -24)
1969-12-31 18:00:13.206679576,(18 20 15 15 11 11 3 12)
1969-12-31 18:00:13.224042449,(-23 -3 -5 -4 -2 -9 -11 -47)
1969-12-31 18:00:13.224042449,(32 -3 -10 -5 -2 5 7 28)
1969-12-31 18:00:13.224831670,(-29 -5 -2 -2 -2 -8 -8 -21)
1969-12-31 18:00:13.224831670,(-35 -11 2 1 0 -4 -12 -41)
1969-12-31 18:00:13.235091550,(5 -5 3 5 5 11 5 30)
1969-12-31 18:00:13.235091550,(-10 9 -2 -5 -3 -6 -1 2)
1969-12-31 18:00:13.235880771,(12 4 4 -1 -2 2 10 7)
1969-12-31 18:00:13.235880771,(-1 -10 -6 -2 -3 -2 26 -12)
1969-12-31 18:00:13.253243644,(-4 -15 -10 -7 -4 -10 -47 -6)
1969-12-31 18:00:13.253243644,(-3 -3 5 2 3 -4 25 12)
1969-12-31 18:00:13.253243644,(3 -17 -13 -6 -5 9 -15 -6)
1969-12-31 18:00:13.253243644,(-16 15 8 3 3 5 -13 -25)
1969-12-31 18:00:13.271395738,(41 2 -8 -8 -7 -5 26 34)
1969-12-31 18:00:13.271395738,(0 6 5 2 3 0 -4 31)
1969-12-31 18:00:13.272184960,(-39 -21 -4 -1 0 -1 -7 -44)
1969-12-31 18:00:13.272184960,(-15 -10 -7 -4 -5 -9 -21 -12)
1969-12-31 18:00:13.282444839,(45 24 5 -1 0 4 19 26)
1969-12-31 18:00:13.282444839,(26 39 12 4 -2 -6 -28 -21)
1969-12-31 18:00:13.283234061,(27 9 6 6 4 -4 0 -1)
1969-12-31 18:00:13.283234061,(-5 -6 0 -1 -2 1 1 25)
1969-12-31 18:00:13.300596933,(-48 -18 -4 3 5 9 -3 -22)
1969-12-31 18:00:13.300596933,(-9 -16 -9 -5 -6 -6 6 12)
1969-12-31 18:00:13.301386155,(24 26 10 4 2 -3 4 8)
1969-12-31 18:00:13.301386155,(34 20 4 0 2 20 -4 27)
1969-12-31 18:00:13.319538249,(-25 -35 -5 0 -2 -28 13 20)
1969-12-31 18:00:13.319538249,(-17 1 2 1 4 34 18 -18)
1969-12-31 18:00:13.319538249,(-6 -20 -5 -1 6 10 19 34)
1969-12-31 18:00:13.319538249,(48 18 -4 -6 -8 -19 -40 -1)
1969-12-31 18:00:13.329798128,(10 21 12 3 0 0 -7 -8)
1969-12-31 18:00:13.329798128,(-29 -28 -6 -2 -3 -5 -5 -21)
1969-12-31 18:00:13.330587350,(-14 18 5 -1 0 1 5 -22)
1969-12-31 18:00:13.330587350,(-6 -9 1 4 4 6 8 6)
1969-12-31 18:00:13.347950223,(5 -1 -6 -6 -8 -2 -13 -7)
1969-12-31 18:00:13.347950223,(-11 -25 -5 -1 3 -4 7 -3)
1969-12-31 18:00:13.347950223,(51 19 -7 -5 -6 -1 -1 32)
1969-12-31 18:00:13.347950223,(-31 17 4 1 1 -1 -16 -88)
1969-12-31 18:00:13.366102317,(-8 -21 -9 -8 -9 -10 -4 0)
1969-12-31 18:00:13.366102317,(11 10 -10 -8 0 23 -2 -26)
1969-12-31 18:00:13.366891538,(-30 3 7 3 -2 -11 -9 -5)
1969-12-31 18:00:13.366891538,(-13 -20 -3 -2 -4 -2 11 14)
1969-12-31 18:00:13.377151418,(1 1 -5 -2 -3 -7 10 -17)
1969-12-31 18:00:13.377151418,(-29 -7 12 8 7 -10 -12 -5)
1969-12-31 18:00:13.377940639,(-2 -3 -1 1 1 2 -25 -42)
1969-12-31 18:00:13.377940639,(49 10 -5 -9 -10 -5 17 57)
1969-12-31 18:00:13.395303512,(-57 -10 4 2 4 13 14 -12)
1969-12-31 18:00:13.395303512,(6 -14 -19 -10 -6 -5 -6 23)
1969-12-31 18:00:13.395303512,(-1 -1 0 -3 -6 -19 13 14)
1969-12-31 18:00:13.395303512,(-10 5 4 1 -1 2 -8 -28)
1969-12-31 18:00:13.413455606,(-9 -2 5 4 4 13 2 -7)
1969-12-31 18:00:13.413455606,(31 16 8 6 1 -1 18 32)
1969-12-31 18:00:13.413455606,(48 -19 -22 -15 -15 -20 -27 54)
1969-12-31 18:00:13.413455606,(22 2 -7 -6 -2 -16 16 33)
1969-12-31 18:00:13.425293929,(41 24 18 13 10 15 17 38)
1969-12-31 18:00:13.425293929,(-6 -19 -9 -6 -3 6 2 10)
1969-12-31 18:00:13.425293929,(-16 -5 3 2 2 3 6 -14)
1969-12-31 18:00:13.425293929,(10 24 13 5 0 -10 -7 0)
1969-12-31 18:00:13.442656801,(21 -15 -17 -7 0 11 4 18)
1969-12-31 18:00:13.442656801,(-53 -15 -5 -5 -7 -18 -24 -17)
1969-12-31 18:00:13.443446023,(45 17 3 2 1 12 22 37)
1969-12-31 18:00:13.443446023,(-21 -7 0 5 6 11 18 6)
1969-12-31 18:00:13.460808896,(-21 -14 -10 -7 -3 -5 -17 -35)
1969-12-31 18:00:13.460808896,(-15 -4 4 2 0 -11 -14 -18)
1969-12-31 18:00:13.461598117,(-28 0 5 1 4 13 12 -22)
1969-12-31 18:00:13.461598117,(-21 -10 -12 -7 -6 -11 -24 -46)
1969-12-31 18:00:13.471857997,(28 19 2 -1 -5 -6 -1 17)
1969-12-31 18:00:13.471857997,(-11 -14 -8 -3 -1 2 11 5)
1969-12-31 18:00:13.472647218,(-29 5 8 4 2 -4 -29 -41)
1969-12-31 18:00:13.472647218,(-2 -18 -2 0 0 2 31 43)
1969-12-31 18:00:13.490010091,(-11 5 3 2 3 9 -8 -2)
1969-12-31 18:00:13.490010091,(82 23 6 1 -2 -12 18 68)
1969-12-31 18:00:13.490010091,(16 -3 -1 -3 -1 2 2 3)
1969-12-31 18:00:13.490010091,(11 10 2 -1 2 3 4 -1)
1969-12-31 18:00:13.514475957,(-4 -1 -4 -5 -2 0 3 20)
1969-12-31 18:00:13.514475957,(-35 11 15 12 8 7 -14 -41)
1969-12-31 18:00:13.514475957,(34 12 -5 -4 -4 11 28 25)
1969-12-31 18:00:13.514475957,(-5 -22 -13 -10 -10 -13 -11 3)
1969-12-31 18:00:13.525525058,(11 15 8 3 5 0 6 9)
1969-12-31 18:00:13.525525058,(-20 -11 -4 -2 1 6 -8 -17)
1969-12-31 18:00:13.526314279,(-47 -19 -5 -3 -2 -7 -10 -34)
1969-12-31 18:00:13.526314279,(26 -2 0 0 1 5 14 52)
1969-12-31 18:00:13.537363380,(10 8 4 0 2 5 18 23)
1969-12-31 18:00:13.537363380,(-7 6 5 0 -2 -5 -19 -9)
1969-12-31 18:00:13.537363380,(-8 -4 1 1 0 3 15 0)
1969-12-31 18:00:13.537363380,(-13 -9 -9 -9 -7 -13 -15 -16)
1969-12-31 18:00:13.555515474,(12 8 8 5 -1 -13 -10 17)
1969-12-31 18:00:13.555515474,(11 -2 0 0 5 4 29 -5)
1969-12-31 18:00:13.555515474,(24 2 -3 -5 -6 -16 -10 5)
1969-12-31 18:00:13.555515474,(38 4 -1 0 0 3 -8 36)
1969-12-31 18:00:13.565775354,(-34 -8 4 23 36 17 -12 -62)
1969-12-31 18:00:13.565775354,(-28 -5 -6 -5 -21 -34 -28 -77)
1969-12-31 18:00:13.572089126,(-11 0 -10 -30 -13 48 11 38)
1969-12-31 18:00:13.572878347,(16 -2 -4 -9 -10 -31 37 -41)
1969-12-31 18:00:13.584716669,(-1 -1 1 -5 -17 -20 -74 -28)
1969-12-31 18:00:13.584716669,(27 7 0 8 16 16 18 38)
1969-12-31 18:00:13.584716669,(-11 -6 -1 9 8 -17 -5 -14)
1969-12-31 18:00:13.584716669,(-29 -9 -1 -1 -2 3 -6 -10)
1969-12-31 18:00:13.602868764,(5 9 -1 -3 1 6 -1 -14)
1969-12-31 18:00:13.602868764,(-8 0 3 1 7 19 -5 -22)
1969-12-31 18:00:13.603657985,(18 19 2 3 -7 5 -14 9)
1969-12-31 18:00:13.603657985,(0 -21 -8 -13 -18 -9 -31 37)
1969-12-31 18:00:13.613917865,(-43 -23 -18 -23 -35 -31 -56 -81)
1969-12-31 18:00:13.613917865,(35 11 3 1 31 34 13 20)
1969-12-31 18:00:13.620231637,(-36 -14 -1 8 -15 -18 -11 -27)
1969-12-31 18:00:13.620231637,(0 13 3 -10 0 -15 -16 -11)
1969-12-31 18:00:13.632069959,(6 4 5 6 6 34 68 50)
1969-12-31 18:00:13.632069959,(-33 -3 -3 -2 2 -5 -14 -29)
1969-12-31 18:00:13.632859180,(-1 15 17 21 37 -5 -13 -17)
1969-12-31 18:00:13.632859180,(-30 -4 -5 -6 -14 9 -39 -46)
1969-12-31 18:00:13.650222053,(-9 -10 -6 -8 -15 -20 18 3)
1969-12-31 18:00:13.650222053,(-11 7 3 8 5 -7 -7 -35)
1969-12-31 18:00:13.651011275,(14 -10 2 0 -2 -5 13 31)
1969-12-31 18:00:13.651011275,(17 -5 -2 -6 0 28 28 15)
1969-12-31 18:00:13.661271154,(8 -2 -2 1 25 39 30 15)
1969-12-31 18:00:13.661271154,(-15 -19 -10 -12 -42 -53 -18 4)
1969-12-31 18:00:13.667584926,(3 12 7 3 -7 -35 -23 -8)
1969-12-31 18:00:13.667584926,(0 2 -5 0 23 36 27 -10)
1969-12-31 18:00:13.679423248,(-3 -6 -6 5 7 -19 -5 12)
1969-12-31 18:00:13.679423248,(-4 -9 1 0 -31 -16 -14 -8)
1969-12-31 18:00:13.680212470,(-2 -24 -13 -9 -5 1 19 14)
1969-12-31 18:00:13.680212470,(-18 10 10 18 12 2 -2 -35)
1969-12-31 18:00:13.697575342,(103 24 -3 -8 -5 4 25 92)
1969-12-31 18:00:13.697575342,(0 -19 -16 -14 -5 10 0 8)
1969-12-31 18:00:13.698364564,(-12 -3 -3 -7 -8 -1 -10 -15)
1969-12-31 18:00:13.698364564,(-24 -25 -20 3 15 7 -8 -16)
1969-12-31 18:00:13.707835221,(14 -8 -19 0 38 -3 3 14)
1969-12-31 18:00:13.707835221,(22 45 27 -6 -23 10 11 -7)
1969-12-31 18:00:13.714938214,(38 11 43 17 4 21 12 9)
1969-12-31 18:00:13.714938214,(-20 8 -24 -4 -4 1 6 0)
1969-12-31 18:00:13.733090309,(-48 -24 -4 -2 -15 -22 -32 -58)
1969-12-31 18:00:13.733090309,(4 7 -18 -9 3 -21 -4 -24)
1969-12-31 18:00:13.733879531,(0 32 40 22 30 33 1 -7)
1969-12-31 18:00:13.733879531,(-22 -82 -80 -26 -23 -1 -2 -22)
1969-12-31 18:00:13.744928632,(-12 -4 -13 -7 -26 -30 -7 4)
1969-12-31 18:00:13.744928632,(5 41 46 11 21 40 26 54)
1969-12-31 18:00:13.745717853,(17 -40 -66 -17 0 -30 6 5)
1969-12-31 18:00:13.745717853,(18 48 38 -3 -10 -5 -21 17)
1969-12-31 18:00:13.755977733,(-17 -70 -21 -5 -4 44 23 10)
1969-12-31 18:00:13.755977733,(-27 -46 -77 -35 -1 -1 -13 -3)
1969-12-31 18:00:13.762291505,(38 73 107 53 29 11 17 40)
1969-12-31 18:00:13.762291505,(25 25 -45 -18 -9 -27 2 12)
1969-12-31 18:00:13.774129827,(30 112 127 57 9 -16 6 21)
1969-12-31 18:00:13.774129827,(-20 -94 -89 -32 -22 -3 -9 26)
1969-12-31 18:00:13.774129827,(-59 -79 -90 -30 0 -9 -9 -27)
1969-12-31 18:00:13.774129827,(1 24 92 14 -16 -7 -14 -19)
1969-12-31 18:00:13.791492700,(71 67 -57 -36 -23 -9 13 27)
1969-12-31 18:00:13.791492700,(12 127 127 108 46 20 12 -5)
1969-12-31 18:00:13.797806472,(-41 -112 -128 -48 -22 3 4 -21)
1969-12-31 18:00:13.797806472,(-44 -40 -58 13 25 -2 -20 -39)
1969-12-31 18:00:13.809644794,(-45 -88 -55 -35 -33 -54 -28 -16)
1969-12-31 18:00:13.809644794,(46 67 56 -1 4 33 -11 -58)
1969-12-31 18:00:13.811223237,(-6 3 -12 -3 6 25 -6 -18)
1969-12-31 18:00:13.811223237,(51 66 23 9 5 -5 26 89)
1969-12-31 18:00:13.820693895,(-116 48 94 38 12 7 -21 -101)
1969-12-31 18:00:13.820693895,(59 23 17 22 21 -36 -14 13)
1969-12-31 18:00:13.827796888,(-79 -17 11 -15 -33 -9 -21 -71)
1969-12-31 18:00:13.827796888,(-39 -128 -94 -56 -24 4 24 14)
1969-12-31 18:00:13.839635211,(63 18 -54 -42 2 18 13 37)
1969-12-31 18:00:13.839635211,(-21 98 91 52 27 17 29 31)
1969-12-31 18:00:13.840424432,(46 70 53 33 3 -1 -10 -22)
1969-12-31 18:00:13.840424432,(15 -78 -25 11 3 -7 6 46)
1969-12-31 18:00:13.857787305,(11 -71 -100 -31 -8 15 14 44)
1969-12-31 18:00:13.857787305,(-28 -97 -101 -48 -19 -21 -26 -39)
1969-12-31 18:00:13.858576526,(47 83 62 16 -4 -26 -19 -34)
1969-12-31 18:00:13.858576526,(-29 -48 -42 -5 17 27 19 -8)
1969-12-31 18:00:13.868047184,(3 -23 40 9 -6 4 -5 53)
1969-12-31 18:00:13.868047184,(24 27 27 19 25 -9 -12 -39)
1969-12-31 18:00:13.875150178,(-20 -9 7 -15 -56 -11 -1 2)
1969-12-31 18:00:13.875150178,(2 -18 -17 6 -6 -22 -14 10)
1969-12-31 18:00:13.886988500,(-18 47 -13 -1 -3 0 -14 -38)
1969-12-31 18:00:13.886988500,(-13 -32 -21 -15 15 49 30 36)
1969-12-31 18:00:13.887777721,(0 31 9 4 21 -11 -21 -5)
1969-12-31 18:00:13.887777721,(32 66 70 28 12 15 6 -5)
1969-12-31 18:00:13.904351373,(-40 -128 -82 -16 -11 -16 -2 -12)
1969-12-31 18:00:13.904351373,(-51 -117 -97 -44 -34 -31 -22 -3)
