timestamp,_data,_check_fields
5500729941.0,"array('h', [1.513555339309112, 4.9750083159188465, 3.6136561579165716, 1.4337670550125265, 0.8143032969380107, 0.6577666419939321, 1.598698120435595, 1.3886871373197072])",False
5520755329.730159,"array('h', [0.7633286918443644, 2.69420345435819, 2.3010756525180716, 0.34550240307923424, 0.7337264099559685, 0.6466967970643901, 1.4994800964674375, 1.204421774658439])",False
5540780718.460318,"array('h', [0.9186593742595784, 3.315605909457819, 3.6234064255697507, 2.8602908783483523, 1.6134211458574466, 0.9213255291865732, 1.430582185440633, 0.8677054737915568])",False
5560806107.190476,"array('h', [1.1855994602094968, 3.3460132241375793, 4.942283674099089, 4.5813410971555655, 1.7203100250681365, 1.1085577468023398, 1.4622482559651167, 0.8227492482384285])",False
5580831495.920635,"array('h', [1.4088066924389409, 3.583866154659183, 5.101374136863178, 4.830435338038247, 1.7847551233534247, 1.3095723828209362, 1.3293948028140512, 1.0860955043654754])",False
5600856884.650794,"array('h', [1.3408040358125324, 3.305661579538496, 5.105117303460234, 4.797705550668558, 1.8193037564424772, 1.3927735041666085, 1.271129206846822, 1.0580530949434486])",False
5620882273.380953,"array('h', [1.422929914143421, 3.389703436930517, 5.430042922293879, 4.447086391458833, 1.641605405469774, 1.355434506774872, 1.1720630466126465, 0.9737258400927956])",False
5640907662.111111,"array('h', [1.600557933552542, 3.5289927877096003, 6.237184441336678, 5.697423936232265, 1.9357862851691532, 1.4842199801561402, 1.2344700370331032, 1.0230864977721412])",False
5660933050.8412695,"array('h', [1.6824821008317958, 3.823606181490277, 6.571666981896037, 6.536152059119087, 2.3376524279878534, 1.6115736641205998, 1.1826580531063333, 1.1908262548504773])",False
5680958439.571428,"array('h', [1.647883164242731, 3.5565867329723844, 5.993307450214686, 6.262808228983363, 2.337257808143404, 1.608659068888708, 1.138637585655547, 1.1182849375845452])",False
5700983828.301587,"array('h', [1.6342090289034983, 3.575859175496822, 6.190924756372902, 6.368311074776045, 2.2582561388623494, 1.5050931042302318, 1.1456035264912807, 1.0787825632241665])",False
5721009217.031746,"array('h', [1.6149904912712258, 3.4085249586962143, 6.561068562214344, 6.890998118186357, 2.3066972805275796, 1.5177786549608494, 1.1831121874321648, 1.0437017626299119])",False
5741034605.761905,"array('h', [1.6596672272304516, 3.5729500003277153, 6.89243694641791, 7.4371978787343584, 2.4018520554000484, 1.4251109944206033, 1.1583576196023215, 1.1004543209599102])",False
5761059994.492064,"array('h', [1.6462681621166848, 3.5066192647981285, 7.45710962354698, 7.740168927737552, 2.5805373026853045, 1.4877494200157741, 1.186917062971854, 1.0650109094960234])",False
5781085383.222222,"array('h', [1.8084830970375831, 3.9369795343846956, 8.967384562916129, 8.347561646532544, 2.824439464736605, 1.4859697943783996, 1.1699110717442742, 1.2110341479996731])",False
5801110771.952381,"array('h', [1.8671668845592213, 4.314533291602724, 9.318156490220776, 8.588356386935201, 2.978534365846512, 1.556299352886057, 1.2073647138511687, 1.2629201028749448])",False
5821136160.68254,"array('h', [1.9068814473457307, 5.696118123172908, 9.622308134299695, 9.557816702332508, 3.329651453643301, 1.571392261540126, 1.300663221662251, 1.439839288184231])",False
5841161549.412699,"array('h', [2.0709735030249745, 6.5549884465118025, 10.292517398545268, 9.988237512974782, 3.4362570982492433, 1.5655816386344568, 1.4502336166866265, 1.389698643448817])",False
5861186938.142858,"array('h', [2.1730560817698366, 6.939915783420616, 10.722575847465684, 10.644178207790143, 3.637362347994095, 1.699005861452943, 1.5825386542425022, 1.7180727671842004])",False
5881212326.873016,"array('h', [2.3233416901231427, 7.652148375053791, 11.962848676683482, 12.430770063093563, 4.403320245370061, 1.9436419180811109, 1.8940448519785191, 1.950467183129635])",False
5901237715.603174,"array('h', [2.5140130474630897, 8.801117999875412, 12.163407707039614, 11.928192511815556, 4.253739694513038, 1.8829262057869145, 1.9945517495599805, 2.0171223646394756])",False
5921263104.333333,"array('h', [2.7654440221279315, 9.66096613923908, 13.477846769164785, 12.409233786870566, 4.262609049022397, 1.8355611361214048, 2.074497548556812, 1.9587132287912066])",False
5941288493.063492,"array('h', [3.2383666240347964, 12.141077683088064, 15.443038849860182, 13.311161489579877, 4.525485396604716, 1.9448888472475252, 2.0974442702151515, 2.099215030583884])",False
5961313881.793651,"array('h', [3.339078181043563, 12.88511084593463, 15.565960929350776, 13.09592910631189, 4.592467420298402, 2.0405786216027924, 2.0960968409746714, 2.0875553112009904])",False
5981339270.523809,"array('h', [3.404962644445952, 13.516433602943518, 15.648574607610907, 12.630217116099375, 4.5706460199452374, 2.009620411317008, 2.1177352151165123, 2.161357591090091])",False
6001364659.253968,"array('h', [3.6540286270885662, 14.291371845892986, 15.645595836581403, 12.084786558986595, 4.422100573231214, 2.1409167645578377, 2.2516854688495096, 2.238319939099645])",False
6021390047.984127,"array('h', [3.9531474805313174, 15.14120472281938, 15.161940022614695, 11.907832536693297, 4.275838029980183, 2.1341680458268164, 2.312923417527363, 2.4335064594511278])",False
6041415436.714286,"array('h', [4.323239985436215, 15.526389842999475, 14.18677084131595, 11.289131522318263, 4.070263990957216, 2.1776712321907254, 2.4248314943387785, 2.477649731479419])",False
6061440825.444445,"array('h', [5.58407717734069, 15.479494551939602, 14.07021091458284, 10.395653744393197, 3.8896872039839123, 2.1643616264626235, 2.63606123465656, 3.111909282148404])",False
6081466214.174603,"array('h', [6.289761459194809, 14.417104589974933, 13.383561320313156, 9.175473118251738, 3.504107210639547, 2.176549870303682, 2.746204020402854, 3.4929846954717014])",False
6101491602.904762,"array('h', [8.252462711397946, 14.73811678799563, 13.191861761717538, 9.017612669895309, 3.5772970504811012, 2.780582638047219, 3.3188690543150883, 4.316621530641246])",False
6121516991.634921,"array('h', [9.744620075881597, 15.007546098475725, 12.026913985784908, 7.414354444945749, 3.1838619194343463, 3.572580379157947, 4.472836337622959, 4.608900180103361])",False
6141542380.36508,"array('h', [9.848735656236194, 14.26081375303357, 10.847326438792749, 5.84854225301405, 2.788762155037967, 4.522173356046379, 5.044292034889377, 5.009616872804034])",False
6161567769.095238,"array('h', [10.819256940152043, 14.263100001423712, 10.50011581612471, 5.617835574587879, 3.119226923082046, 6.265408479150217, 6.9740253783976955, 6.298133440093351])",False
6181593157.825397,"array('h', [12.298437913203726, 13.708735115192308, 9.012601891024254, 4.467595611118605, 2.9541589223080553, 7.569715658762543, 7.998955264654689, 8.703621208796479])",False
6201618546.555555,"array('h', [13.721878726596778, 12.536155938850793, 7.889775299421037, 3.9955670935779244, 3.2124574361840628, 9.507569833497211, 10.24828767621747, 11.525552811431433])",False
6221643935.285714,"array('h', [15.494730219531636, 13.588061549286405, 7.598913504934351, 3.7430283364639796, 3.600023594546068, 11.633509431646946, 13.159279906376925, 13.350068997152956])",False
6241669324.015873,"array('h', [16.692051661237915, 13.629762835649188, 7.40825663270294, 3.6209044126078123, 3.591023596612555, 12.78038186900724, 14.547651372183081, 15.50046686626271])",False
6261694712.746032,"array('h', [17.40252169441094, 13.832261092124016, 7.2074658999224575, 3.5503572106898376, 3.934490534193664, 14.64769802761421, 16.886686136009672, 16.75610387821352])",False
6281720101.476191,"array('h', [19.775017921910994, 13.349062757598068, 6.952702032480291, 3.8047694286886586, 4.6130667629671205, 15.65518142852977, 18.297328271711518, 17.544178491854797])",False
6301745490.206349,"array('h', [20.633337291481418, 13.62566970711122, 6.7261948902770134, 3.747341757962471, 4.551487556561711, 16.179394690954062, 19.508177083775138, 19.11332981757017])",False
6321770878.936508,"array('h', [21.1747879889618, 14.448227851490442, 7.06774673620246, 3.8168006766927123, 4.720688393055161, 17.07128881976626, 20.031165741633412, 20.29014772921296])",False
6341796267.666667,"array('h', [23.681999594914586, 15.357975644697337, 7.400645656242392, 3.956185721725636, 4.985257597347471, 17.32657731780859, 20.600094638492056, 22.21459287642852])",False
6361821656.396826,"array('h', [23.572968744810147, 15.482853070495336, 7.5024636102046545, 4.116559483173934, 5.192833310641006, 16.967643314053017, 20.5487661512195, 23.117229180497972])",False
6381847045.126984,"array('h', [25.011055235700958, 15.74601070111035, 7.6911272629422625, 4.436598295718229, 5.361341270967972, 16.450578808449585, 21.261037085018575, 25.908369088423523])",False
6401872433.857143,"array('h', [26.784248794132484, 17.229983332984105, 7.870241869621695, 4.592110652675395, 5.283718138755901, 15.692060032917778, 21.898959573415972, 27.157723329233875])",False
6421897822.587301,"array('h', [29.279662671221796, 18.899553438732426, 7.928900028566525, 4.61858902979631, 5.242773933825226, 14.964935113948366, 22.039346779891904, 26.99846480433014])",False
6441923211.31746,"array('h', [28.59999583352849, 18.388450715798648, 7.90793888112275, 4.895902649003147, 5.525564534301837, 13.984831696527749, 22.692908599194517, 25.563915722181463])",False
6461948600.047619,"array('h', [29.30688456101346, 18.5390779707018, 8.007479063093514, 4.8787568796006076, 5.135316586525699, 12.013231770074176, 20.171159948744492, 23.901718015615756])",False
6481973988.777778,"array('h', [28.647601311911593, 17.10017328544004, 7.5937991707119465, 4.716169831352354, 5.0568343834261, 11.166069781937813, 19.69163100079527, 22.813558432400956])",False
6501999377.5079365,"array('h', [28.970440835149443, 17.207968701802, 7.6248673528005435, 4.880551609514166, 5.390086129458261, 10.598678608351108, 19.254290895718928, 22.984846449187962])",False
6522024766.238095,"array('h', [30.298513830068366, 17.38229311644785, 7.267856806887905, 4.786041408246581, 4.949609651149935, 9.495626310735261, 18.52384775682442, 23.632636654592805])",False
6542050154.968254,"array('h', [28.787835022319985, 17.467441457196426, 7.389410897647893, 4.766259476690499, 4.604654735243684, 9.212322191253712, 17.82616934835479, 24.06536464220166])",False
6562075543.698413,"array('h', [28.1971828488907, 16.532454907819513, 7.5779742593208095, 4.953983328680384, 4.872395932969062, 9.054249007380683, 17.774963951728207, 23.80836827261931])",False
6582100932.428572,"array('h', [27.50262637609589, 16.273686262904725, 7.207131661502869, 4.780612619186641, 4.594311249664296, 8.667206070795944, 18.52470021265534, 23.955733535481958])",False
6602126321.1587305,"array('h', [26.28514881195348, 15.612554750722092, 6.907118175099349, 4.646426247759666, 4.481361345217815, 8.850085609401908, 18.92291104297857, 25.694277687045847])",False
6622151709.888889,"array('h', [25.176648089322526, 15.541264602285407, 7.184677465572327, 4.67727375643225, 4.163575861132816, 9.610206710326441, 19.504490402131008, 26.015949711247924])",False
6642177098.619047,"array('h', [25.341684374767592, 15.029295597196692, 6.937817126689694, 4.591241074178326, 4.493477856682785, 9.888745665615184, 20.936361131451836, 27.493761763047683])",False
6662202487.349207,"array('h', [24.172012959108343, 12.385818472143796, 6.463721325058793, 5.156535607392968, 4.839236706226693, 10.859192536940048, 20.78806470714181, 27.581271753082977])",False
6682227876.079365,"array('h', [23.41045672414373, 12.20310513113299, 6.440663813076047, 5.542131175032103, 6.000661979034729, 12.19108947405323, 19.698207079373777, 27.972796071174976])",False
6702253264.809524,"array('h', [24.572556982800947, 12.006131295167254, 6.177840129073462, 5.486173123222788, 6.211085815009632, 13.468681182078969, 20.549057070340098, 29.891852633926106])",False
6722278653.539682,"array('h', [23.294227631998503, 11.556900371160717, 6.11875987171136, 6.063896251383236, 7.248871451892903, 15.274693669470288, 20.704481671560657, 30.641004505652095])",False
6742304042.269841,"array('h', [24.786642532683363, 12.774863215198824, 6.171680742157052, 6.355703139225318, 8.307797653566464, 16.731060383939045, 20.1543924901297, 31.03452044264757])",False
6762329431.0,"array('h', [23.747981316324974, 12.520229065120528, 6.619680090591674, 6.94704381391186, 8.858154287962964, 16.862135361442423, 19.386956295888602, 29.61970162848147])",False
6782354819.730159,"array('h', [24.680621639936046, 14.098601968580278, 8.093723544210068, 8.1609203960935, 11.77400382409759, 18.300758526048874, 19.128051115661492, 30.679735243459238])",False
6802380208.460318,"array('h', [26.00925081687748, 16.784179570700967, 10.672701567422711, 9.042058231152232, 12.663281222282674, 18.838524081526227, 19.435483830608877, 30.483706761406147])",False
6822405597.190476,"array('h', [26.882262418860492, 20.148515062265403, 15.18082458028637, 10.65960454235053, 13.87106338412758, 19.848846250517113, 18.870838487253863, 32.0741410608676])",False
6842430985.920635,"array('h', [26.715150643449764, 23.210122652282656, 18.905868838744293, 11.865430693170978, 15.272067481881688, 20.926505148998523, 18.09954768299127, 30.135997092140528])",False
6862456374.650794,"array('h', [26.790839525734732, 28.326753257938957, 23.00443927462364, 13.396636154502701, 16.805611134550286, 21.90433136145244, 17.378362211231845, 27.884320632628476])",False
6882481763.380953,"array('h', [28.035319413335884, 32.40390521180502, 26.780473513357553, 14.606039353147278, 17.731840070523717, 22.332326903667823, 15.700543870569375, 26.553513731052206])",False
6902507152.111111,"array('h', [28.85626203717519, 38.87333378868149, 30.57317529358359, 15.620938243767988, 17.928773526205468, 22.59613523796561, 13.445958163802745, 25.51426876555077])",False
6922532540.84127,"array('h', [31.112572981193924, 46.65200914910798, 37.260484890142344, 17.334846038393035, 18.031192916190907, 21.701393148705527, 13.563883966261065, 26.676600618224132])",False
6942557929.571428,"array('h', [30.966150507129406, 53.361088089217496, 44.659445620850406, 20.327688773633227, 17.632507280794876, 21.15086634388187, 12.860068838487544, 25.608957108653083])",False
6962583318.301587,"array('h', [31.22231131005025, 57.463218897889035, 49.44673471428862, 22.700456069079905, 19.581740392012332, 21.337626571384877, 12.446444645695818, 25.487216910692016])",False
6982608707.031746,"array('h', [32.29560663345797, 59.83450149891834, 52.589067705125586, 23.495683928524283, 18.78287075290445, 19.457009495967906, 12.237180306191675, 26.253281435774376])",False
7002634095.761905,"array('h', [31.27098004690615, 64.70674620254036, 55.93481424221858, 24.762000889493688, 19.061919854012885, 19.4518440285954, 12.822399578420422, 28.047608524583367])",False
7022659484.492064,"array('h', [31.377182870020633, 69.59762909813928, 60.511393128196026, 24.321747833270262, 18.183876197638792, 19.173069326655984, 13.197957264301358, 28.75938285033239])",False
7042684873.222222,"array('h', [30.215267650757323, 70.54271536158757, 63.398122122612754, 25.51251995997235, 17.460687000940656, 18.432726510659787, 13.259094188907076, 28.83194562677618])",False
7062710261.952381,"array('h', [31.526119629334488, 69.35649111808819, 61.34491225126925, 25.326265843075948, 17.970654849471053, 18.21714923215291, 13.393872033691826, 30.188280671622184])",False
7082735650.68254,"array('h', [32.39188050717333, 71.22239212226064, 61.609917438302176, 26.139307908002188, 17.906169087045903, 18.692246377542624, 14.188544011173128, 29.885573158859334])",False
7102761039.412699,"array('h', [33.06213937269505, 69.0479736775315, 61.51211604910357, 27.479699501687676, 18.906529395274106, 18.33551837414626, 14.624571819971745, 31.70337156757989])",False
7122786428.142858,"array('h', [32.78111308260843, 66.38057077854121, 61.542219124503774, 27.12824945813982, 18.16953721299441, 16.99587980731368, 14.948066526451072, 32.770180097321976])",False
7142811816.873016,"array('h', [31.704948226982733, 64.55298584698423, 61.07144352868227, 26.537880177428708, 18.452621938973532, 17.703425331908747, 14.743718091859536, 31.169268840129245])",False
7162837205.603174,"array('h', [30.67957211480537, 60.133823418985976, 58.88664778248356, 25.091034230375055, 18.627640417595146, 17.233866962898816, 14.98628351406148, 31.4966428611671])",False
7182862594.333334,"array('h', [29.26608779082679, 56.21806238637896, 54.53995453087566, 23.679920361987815, 18.47565221155351, 16.909955607380965, 15.254739598907202, 31.687448337017223])",False
7202887983.063492,"array('h', [29.0461288969931, 52.130076137454274, 50.43685738202162, 21.298321515787983, 17.268560332217714, 15.773059430891658, 14.838783584775348, 31.11757652850074])",False
7222913371.793651,"array('h', [27.083935547416413, 51.491508442428746, 47.87186623672911, 20.51551513464782, 16.298240147068057, 16.986873726965722, 15.170704680156055, 30.697229064131076])",False
7242938760.523809,"array('h', [27.846194208694694, 48.76421504890545, 45.662441074912195, 19.326172184416656, 16.332833589341547, 17.515967825760992, 15.022139045243787, 29.374467343061916])",False
7262964149.253968,"array('h', [29.307935545362277, 47.569365160794774, 45.94667879549355, 20.226912260112677, 16.99671486517953, 17.14282626835482, 14.252944746913801, 28.567653075950854])",False
7282989537.984127,"array('h', [29.173441277024104, 47.252615114391105, 43.92935423716748, 19.651922544937854, 16.350382150715827, 16.87510499611338, 14.12462370397314, 28.321554706776286])",False
7303014926.714286,"array('h', [28.903401067448204, 50.29634852929433, 43.983083713131535, 18.673902456455632, 17.22107306526976, 18.58309185889952, 14.457869897390594, 26.458037992057733])",False
7323040315.444445,"array('h', [26.40716476427739, 50.07994480091102, 43.86388362303796, 19.656861027317216, 19.37820032607725, 19.537145700006906, 14.135522363047706, 24.815601295594345])",False
7343065704.174603,"array('h', [24.63608510975371, 50.12358064888415, 43.226429089790244, 18.146372439936265, 18.76016477087406, 18.054423649395595, 14.0022461017204, 24.51267227023554])",False
7363091092.904762,"array('h', [24.547701933681758, 52.757487296027236, 44.15598649770612, 18.46848906787006, 18.20967793308757, 19.252937234613942, 13.417571975344051, 22.92281213608339])",False
7383116481.634921,"array('h', [24.267668882069522, 52.05622043332171, 42.59080892307043, 18.138747367549204, 18.467704236891695, 19.261779131610176, 12.423693954884396, 22.759624188492868])",False
7403141870.36508,"array('h', [22.894543145494378, 55.856793005913914, 46.38459699902, 19.979173785016105, 18.02281339872472, 19.13843945254289, 12.70578916898678, 21.931716001571612])",False
7423167259.095238,"array('h', [23.035847555334243, 56.099670753768656, 47.007221177749294, 20.672935714514555, 18.767803770281972, 19.956637672983565, 11.98665695762116, 19.7436296897371])",False
7443192647.825397,"array('h', [22.8517202176297, 57.81712799970341, 47.026504754159916, 20.384791961914416, 19.949376003219815, 20.629603521116596, 12.306348873434137, 19.29000469462534])",False
7463218036.555555,"array('h', [23.620143705491042, 59.465964312052705, 49.6031822909234, 20.95001934771063, 20.044378006518485, 19.981904509761634, 12.061387628921066, 19.52217981050528])",False
7483243425.285714,"array('h', [23.810771090249887, 62.04467864742818, 53.60554508378548, 21.91882202561647, 20.502110210430967, 18.78617582610702, 11.38340643340458, 19.594232865582153])",False
7503268814.015873,"array('h', [23.121610465149462, 62.50377097814322, 53.96451090140766, 22.359162718511172, 21.707107218294546, 19.497019466657118, 11.454946356438239, 19.065651866457227])",False
7523294202.746032,"array('h', [22.94197391749127, 60.65023275714666, 52.54031313305695, 22.165905947407012, 22.118994941619793, 20.040632740657248, 11.5043996251762, 18.206620033296566])",False
7543319591.476191,"array('h', [22.43354124208558, 59.98242244011914, 53.149462016496244, 24.169442485547577, 23.191762009926446, 20.210000577844415, 11.19461536997504, 18.069688299556493])",False
7563344980.206349,"array('h', [24.02065142056751, 59.64787888448104, 54.920241730755656, 24.808790778355586, 21.175700286590917, 18.994898905743465, 11.387202418505352, 19.24984181897369])",False
7583370368.936508,"array('h', [25.899004184209147, 59.186042888626766, 54.99836242492808, 24.326997145640934, 19.193129803939446, 18.657084646324492, 11.222016803545614, 18.227664884058232])",False
7603395757.666667,"array('h', [26.958317662029597, 58.83831776284667, 54.989786060170395, 25.34969158673025, 20.581016717356103, 18.750002579332396, 11.69723074148936, 19.078515124536302])",False
7623421146.396826,"array('h', [26.49602637268553, 62.61718155992812, 57.62102077422353, 26.23729375208185, 21.494187111189753, 18.60772440340939, 12.47146454660441, 18.979928139365796])",False
7643446535.126985,"array('h', [27.420818249256133, 61.89011217464563, 57.08022906461641, 27.646492287319855, 23.614142362247733, 18.979140049665506, 12.787404168935591, 20.061995794098014])",False
7663471923.857143,"array('h', [26.30711962148456, 59.24478264195278, 54.34874362713316, 26.116447622631387, 24.84619448733794, 18.355456221545097, 12.396781165132229, 20.704729446711777])",False
7683497312.587301,"array('h', [24.533305664266216, 57.4996842628835, 54.49758236900902, 26.570288736551653, 24.732612629476876, 18.075692601792394, 11.97218655790397, 21.186338936631397])",False
7703522701.317461,"array('h', [25.781900795022388, 55.755192452772036, 54.74090050355291, 27.673490915262036, 24.22916223860547, 18.057878997407414, 11.96489421879638, 22.86020389040481])",False
7723548090.047619,"array('h', [26.529219537643534, 58.38346608951731, 54.53061157577529, 28.430066374849687, 25.901018272493303, 18.556638928066615, 12.447918198678206, 22.587349537052678])",False
7743573478.777778,"array('h', [26.9722192893702, 59.37149812181654, 53.730934026585764, 28.26593741898288, 25.305136481656497, 18.395194884731502, 12.399623413285546, 21.748985716334868])",False
7763598867.507936,"array('h', [26.13939777952679, 58.1467134738255, 52.66372563285146, 26.841397137998253, 24.027855491125678, 17.313886446968556, 12.431165307107145, 21.74705648770364])",False
7783624256.238095,"array('h', [25.4841707927906, 59.03614769775848, 54.09511987531686, 27.272766108998617, 25.13043503066539, 17.952536728348154, 13.312098829619075, 23.44050262989457])",False
7803649644.968254,"array('h', [24.63562002506045, 59.40938985987444, 54.3433998832642, 25.867328898549076, 23.35289410245354, 16.74180025225959, 12.152798087693476, 22.6529139181624])",False
7823675033.698413,"array('h', [22.583226496788107, 57.191943142291635, 52.760360952587, 25.45979058647575, 24.734355253166044, 16.471944912065727, 11.969540355724364, 22.928087391316048])",False
7843700422.428572,"array('h', [21.0346331316809, 57.67120513332796, 53.74053228077555, 25.463053473590115, 24.994886416139966, 17.786641591780313, 11.709030246476283, 22.121086670522235])",False
7863725811.15873,"array('h', [21.396799845118235, 54.32932694679651, 49.7430815376048, 23.1031789671521, 23.31370022813651, 17.27479358573132, 11.111779593160472, 22.288071620226837])",False
7883751199.888889,"array('h', [21.26227429951526, 50.84628300322682, 46.117746096982344, 21.402244042992013, 21.345959627990283, 16.140620370235137, 11.249740725980727, 23.431417058549826])",False
7903776588.619047,"array('h', [21.167765649707814, 52.730617887391986, 45.80331200287756, 20.802580475345472, 19.81677323888228, 15.483540281005883, 11.210353478778345, 21.986439141727903])",False
7923801977.349207,"array('h', [22.228577196821654, 52.21424183563488, 45.81271919881631, 21.101641984359976, 18.755390557225656, 15.562199282460858, 11.512305124404277, 22.789841239027467])",False
7943827366.079365,"array('h', [21.771282529844612, 53.17330213218719, 45.836334984434785, 19.923491685520176, 18.039555228276118, 15.42787300201667, 11.087295878841461, 20.407477246894093])",False
7963852754.809525,"array('h', [21.157225482379687, 51.03416238508155, 43.59612060616931, 18.220057858435354, 17.249832096825322, 16.528015252333645, 11.726252917920565, 20.203851151996652])",False
7983878143.539682,"array('h', [20.97213451697928, 47.76339335940284, 41.55683420063482, 16.70672549256991, 14.906435415217349, 16.3027621088798, 11.698907544715272, 21.31519971704921])",False
8003903532.269841,"array('h', [21.05671086401582, 49.26901604106852, 43.90767368480388, 18.077826993872947, 15.133493861636689, 15.991730920834584, 11.557200270817905, 21.79764389595258])",False
8023928921.0,"array('h', [21.770632061466966, 48.68755419640483, 42.43100361516361, 17.731443050196923, 13.230742206358348, 14.871461767066279, 10.181760294104663, 20.381338740053923])",False
8043954309.730159,"array('h', [22.094801888794063, 45.45892991267792, 38.980742155102554, 16.168424257489995, 12.566562172759472, 14.620021752236513, 10.190814979615768, 19.31452097391228])",False
8063979698.460318,"array('h', [23.35998026887294, 43.742675528982645, 38.2132446602007, 16.230088297027745, 12.614598046612791, 15.163883683261725, 10.662406573867571, 19.17590757881101])",False
8084005087.190476,"array('h', [24.590845550676306, 44.395926090483336, 36.99324109664933, 15.983170471371874, 11.561088077815988, 13.49179818546767, 9.890312662401737, 18.502951869706322])",False
8104030475.920635,"array('h', [23.43068244859742, 40.789071187852024, 34.62579121788716, 15.791514118157917, 10.826108527943212, 13.583581355441684, 9.389777642263155, 18.64534844326981])",False
8124055864.650794,"array('h', [23.094589406325184, 40.88442852806125, 33.801408195895874, 15.92432584119424, 11.001260631440609, 13.109328387262478, 8.856843113945805, 16.165022484245817])",False
8144081253.380953,"array('h', [22.782923388004406, 39.11180627470303, 33.32987101536225, 15.141982273842336, 10.556247344454587, 13.445546603344798, 8.992565276191128, 15.634205055378121])",False
8164106642.111111,"array('h', [23.272934012277535, 36.728329153998516, 31.83065762516158, 14.581161509729876, 9.66010345363047, 13.215703951792118, 8.637358303761394, 15.086275683017028])",False
8184132030.84127,"array('h', [23.08695774304619, 35.17030777562489, 29.66450975162937, 14.362936889940801, 9.742118683967984, 12.752342676477449, 8.788867660517125, 14.766072074780126])",False
8204157419.571428,"array('h', [22.95706110747326, 32.40354694566173, 26.85315204742343, 14.106413581451035, 10.042505039564888, 13.729372311063047, 10.002953490023904, 14.786806192457362])",False
8224182808.301588,"array('h', [21.65348153021756, 31.147463591641586, 25.603576011271716, 13.887830257048313, 10.11769812669783, 12.294659346700433, 9.752142548732287, 13.118813537236733])",False
8244208197.031746,"array('h', [20.78451294150697, 27.57320707090844, 22.503772289982475, 12.608860875243808, 10.062701856798961, 11.94154707134603, 9.964786780831071, 12.248152427377521])",False
8264233585.761905,"array('h', [19.975429636227094, 24.979468198126433, 19.413783995896807, 11.235077980123888, 9.823523523768056, 12.447629958867875, 11.043088246391614, 12.151777219385387])",False
8284258974.492063,"array('h', [20.032037026485522, 23.152718285927005, 18.325508663647977, 10.93964128702573, 9.31768654752381, 12.663919502397192, 12.203724247029463, 12.996648881113098])",False
8304284363.222222,"array('h', [20.380778146151513, 23.10561032148442, 16.1646037698829, 10.476285902723264, 8.78463653852834, 12.238121313915677, 12.513575793837719, 12.728149318678025])",False
8324309751.952381,"array('h', [19.856128352527925, 21.871415650950425, 14.416070950423755, 9.189003435907269, 7.943555233289252, 13.38983247551259, 14.263329432791727, 13.330752835284299])",False
8344335140.68254,"array('h', [21.263143993800433, 21.09979999944066, 12.621994098703539, 7.902923963907622, 7.340625541775483, 13.354998088083054, 15.306976986344198, 14.286711593130267])",False
8364360529.412699,"array('h', [22.179575762045584, 21.566838479980994, 12.498047242090845, 7.3173564307758685, 7.19000809573435, 13.12804081350314, 16.068687078174484, 15.736465187997668])",False
8384385918.142858,"array('h', [23.45002532783939, 21.92182068200279, 11.419010711421118, 7.035266590925752, 6.838956343816177, 13.27011548896997, 15.994407989182799, 17.557363142762863])",False
8404411306.873016,"array('h', [23.91386147069258, 20.883859249102983, 9.728324276918315, 6.904300705995798, 6.759685239186803, 12.30623227120789, 15.853861506773683, 18.69644923705776])",False
8424436695.603174,"array('h', [24.75589482698211, 19.680285713124686, 8.375928516535753, 6.217994304401019, 6.121491606471472, 12.131033703130699, 16.638817197394534, 20.342883122900503])",False
8444462084.333334,"array('h', [24.846841663659365, 19.948348722152126, 7.844794019948355, 5.55247052138458, 5.552475698838352, 10.66121049486588, 15.897696088619616, 21.42055700389748])",False
8464487473.063492,"array('h', [24.56853891056134, 20.176798412606153, 7.575452654763898, 5.344281561477363, 5.006615030937111, 8.90901636843721, 13.936802829528748, 20.723188069558695])",False
8484512861.793652,"array('h', [24.86586138058006, 20.72312534300832, 8.326050159114185, 5.600700447773777, 4.970623641980579, 8.619553331734284, 13.163911374617555, 20.31236105047106])",False
8504538250.523809,"array('h', [24.577292888467422, 20.17281304067185, 8.404273457231938, 5.7460810083769776, 4.689301726870372, 7.901879830323136, 12.382367913346108, 20.801532522046394])",False
8524563639.253968,"array('h', [23.967345058725126, 20.495859721242972, 9.091417490756076, 6.008025186198618, 4.686022215211846, 7.215401929871907, 11.148545649640315, 20.10575607758956])",False
8544589027.984127,"array('h', [22.058881577995397, 21.361240482620424, 10.50152838224869, 6.280912966701913, 4.591633801431151, 6.765717446721206, 10.171015248315744, 19.43973153109687])",False
8564614416.714286,"array('h', [20.504534631666985, 20.520991865059393, 10.967042124035164, 6.577707492715909, 4.456825444712129, 5.695966172037722, 8.608611838160257, 18.462680727224487])",False
8584639805.444445,"array('h', [18.495630516056288, 21.12861157788578, 12.585368741460018, 7.287177243508643, 4.514522654677919, 4.562811675509878, 6.639614063671554, 17.08642429978277])",False
8604665194.174603,"array('h', [16.921497207602492, 22.249224300434676, 14.049956132392554, 7.5618324081151576, 4.273558975360065, 3.7293227973562417, 6.181383712886616, 15.563666099295991])",False
8624690582.904762,"array('h', [14.6693969949616, 21.15233057377905, 14.937959301303273, 7.836831729904063, 4.2352782241336815, 3.2157415935635587, 5.8611766480887875, 13.371925575298135])",False
8644715971.63492,"array('h', [12.932178945404784, 21.089525953442635, 17.078120892201945, 8.417948104708488, 4.37247356546903, 3.4483158278717037, 5.957791856122495, 11.419065983635067])",False
8664741360.36508,"array('h', [10.925526615139008, 21.977557155316173, 18.12445049176839, 8.886501665930195, 4.461571371086808, 3.2701603949494227, 5.0646551535384985, 9.329739707513426])",False
8684766749.095238,"array('h', [9.009712787970912, 22.074697884593686, 18.930048205094632, 9.20582743295247, 4.511502949805398, 3.560656148710095, 4.846832608761683, 7.565059999776254])",False
8704792137.825397,"array('h', [8.106158645232123, 21.773835513211658, 19.045125538531877, 8.905459922013867, 4.3552507320548, 3.5395686568510403, 5.0228273309540015, 6.985009214699534])",False
8724817526.555555,"array('h', [6.996920113182814, 21.79827503122863, 19.543817595076245, 8.817692654040169, 4.350992482366844, 3.6296602757383547, 5.3246559567368745, 7.063224988175476])",False
8744842915.285715,"array('h', [6.550325905772948, 21.427097505433238, 19.814144869722686, 9.06102372318743, 4.316554077603507, 3.704729625995564, 5.412036362662712, 6.784919667179546])",False
8764868304.015873,"array('h', [5.669483469187887, 21.660231243906537, 20.514015600185957, 9.65572970957313, 4.4976300602155925, 3.92945934438995, 5.584294450796609, 6.257778539141991])",False
8784893692.746033,"array('h', [5.888500754969928, 20.398181870805622, 20.104633656278647, 9.813634430870534, 4.455811861286476, 3.836114630237185, 5.4992990529328365, 5.6389278577752435])",False
8804919081.47619,"array('h', [5.894220641133394, 19.43392177765406, 19.324663740908946, 9.231814810559218, 4.205532003202113, 3.6133462599217814, 5.41162806253385, 5.346065853091751])",False
8824944470.206348,"array('h', [6.146104145172612, 20.040080113446713, 19.04577751097416, 9.09110324042742, 4.133107263758608, 3.387406799858346, 5.3051316887962265, 5.190733801707897])",False
8844969858.936508,"array('h', [5.7713700310969065, 18.202341269624647, 17.511977878552376, 8.809037980581186, 3.997431400430419, 3.259132891894915, 5.0789599664845975, 4.7184082577782425])",False
8864995247.666668,"array('h', [5.3298788182574075, 16.824762425790535, 16.284831242888988, 8.396549970658683, 3.689897847300713, 3.0700395132453777, 4.5285531656325695, 4.151493852347642])",False
8885020636.396826,"array('h', [5.261718849760917, 16.399817850260348, 16.071187379816266, 8.041819771387964, 3.4941543632478225, 2.762770791386718, 4.140878090935581, 3.8900387064754818])",False
8905046025.126984,"array('h', [5.237276426509431, 15.525271835284608, 15.59694455896003, 7.756902974898833, 3.315294785998318, 2.5164185684807365, 3.722724954907915, 3.7425956749499796])",False
8925071413.857143,"array('h', [4.971906220352766, 14.377292408822044, 14.837408756724676, 7.5098875446235995, 3.1896965057506717, 2.4613874101314748, 3.6525655890740167, 3.621515736766019])",False
8945096802.587301,"array('h', [5.021287063388782, 13.631754818475132, 14.801031983638065, 7.539004800856721, 3.0999234335547055, 2.230952341310113, 3.1690908392502997, 3.32246703999833])",False
8965122191.317461,"array('h', [4.961281566067537, 12.866503352946852, 14.902366073667162, 7.861598457591443, 3.2395162185192583, 2.1340261195408727, 2.8180119257464376, 2.971442000746362])",False
8985147580.047619,"array('h', [4.657858285818171, 12.318508142956675, 14.268931479600907, 7.530156914617132, 3.083436817002463, 1.9582878974425129, 2.6146068672750746, 2.8497325471280566])",False
9005172968.777779,"array('h', [4.494440837300106, 11.691869620246122, 13.458934365928842, 6.956039711159091, 2.8960050789187517, 1.7660664287812498, 2.3040821484018807, 2.460892625908129])",False
9025198357.507936,"array('h', [4.530597540263428, 11.768465498946835, 12.86311251005273, 6.345109560397567, 2.5982245593661806, 1.5448909158189106, 1.975806432335362, 2.503366168496806])",False
9045223746.238094,"array('h', [4.16000088077871, 11.55471998290664, 12.047468462006865, 5.97923696703943, 2.429862652473096, 1.466562930625419, 1.7744393608746383, 2.4431865936792954])",False
9065249134.968254,"array('h', [3.9697216817901806, 11.092481147861392, 11.258431306912922, 5.848737550969036, 2.4148329769287877, 1.4478153930311355, 1.7599982355834882, 2.320211858609563])",False
9085274523.698414,"array('h', [3.484908080399635, 10.315500135552828, 10.183694679273792, 5.343967504340269, 2.302960737576563, 1.420475194279932, 1.734190581147329, 2.15864246904767])",False
9105299912.428572,"array('h', [3.425793503515067, 9.70271411876759, 9.471855604328265, 5.140856570260511, 2.3455272917676377, 1.3727702461956857, 1.677099126189773, 2.1528618210191195])",False
9125325301.15873,"array('h', [3.5984607213336566, 10.33007658265458, 9.378114026546708, 5.224169860314101, 2.3944551950304116, 1.3486518825068068, 1.719013678211698, 2.1618262659758125])",False
9145350689.88889,"array('h', [3.5562996735811994, 9.521527551912474, 7.9946304983867895, 4.904347109512278, 2.231686384862311, 1.309021004474728, 1.773480477472797, 2.317598102432913])",False
9165376078.619047,"array('h', [3.3020880067457057, 8.846183144244698, 7.127736100182695, 4.251346315754392, 2.1337316906647246, 1.2599356206288848, 1.7436244935387244, 2.1674597018079127])",False
9185401467.349209,"array('h', [3.095758979004521, 8.841799106788098, 6.763973930022658, 3.958614688418367, 2.0303240184140376, 1.1225090255611414, 1.6263564875774892, 2.106743520640391])",False
9205426856.079365,"array('h', [2.8154118654505664, 8.883131754089785, 6.344232052184345, 3.6515909577076027, 1.8556292757371775, 1.0820938317093498, 1.51353437896706, 1.897433856183643])",False
9225452244.809525,"array('h', [2.8948712590667296, 9.062193152206929, 6.309739318676779, 3.487721577220451, 1.5457055207917854, 0.9238174224809765, 1.3690668244878883, 1.819940350369407])",False
9245477633.539682,"array('h', [2.865576021138186, 8.698499297964435, 5.916117369409829, 3.532230317963872, 1.5717023964297205, 0.9301662815366493, 1.3817151819319755, 1.6025836600541268])",False
9265503022.269842,"array('h', [2.6329700903025874, 8.181546610910713, 5.293183365149543, 3.1671147143403355, 1.3745224250162893, 0.8809513164585195, 1.3868214370482184, 1.6048940625541555])",False
9285528411.0,"array('h', [2.310287344388587, 7.61470470849079, 4.931614208951596, 3.2208118575809475, 1.6008689159335487, 0.9464255687578231, 1.3514265004412398, 1.4718627471364294])",False
9285528412.0,"array('h', [4.471047630311344, 3.251548125159966, 4.355651312773523, 7.017305883453279, 3.2045849266202886, 1.5948291573917859, 5.078885451413836, 1.6044919314563384])",False
9305530536.171946,"array('h', [5.425851354537346, 2.9566244730925417, 5.329978067997172, 12.526583094294459, 4.576565409671767, 2.3908136994947995, 4.575773600816607, 4.017971601355104])",False
9325532660.343891,"array('h', [2.688265759584277, 2.63253021764618, 4.981307223354086, 8.933751189000285, 3.4095902244824376, 1.9431875073760847, 3.78575428515715, 4.383218668765034])",False
9345534784.515837,"array('h', [3.365530462886809, 2.7410649120778334, 5.336344901393805, 9.48378443077952, 3.7685427493600923, 2.16818823953782, 3.837164446259869, 5.041794578381476])",False
9365536908.687782,"array('h', [3.2274919771672814, 2.5837341687531357, 5.176252384371452, 8.077070735200989, 3.272257966664865, 1.7595232306805906, 3.465562793619857, 5.341818269066565])",False
9385539032.859728,"array('h', [3.4928500473751116, 2.304906598951714, 4.818576263164704, 7.707993789665341, 3.130819920961857, 1.712625879615149, 3.3834109758058046, 5.435802575804229])",False
9405541157.031672,"array('h', [3.0965596560016544, 2.6261337311171538, 4.375765615164784, 6.439910572362669, 2.6358863062696956, 1.4766337406740635, 2.7759915954425156, 5.083174291201044])",False
9425543281.20362,"array('h', [5.851856539749528, 3.6175837125972823, 4.578080177342548, 6.530691461746744, 2.7313940099730085, 1.7085915403507355, 3.0366623504211483, 6.185072810595796])",False
9445545405.375566,"array('h', [8.639738620590473, 4.206616024593245, 4.547620851351155, 6.016549428893926, 2.6690021963264985, 1.902725868267184, 3.9775912738712433, 8.462835104175426])",False
9465547529.547512,"array('h', [9.466890357116661, 4.40078942908721, 4.410413908910214, 5.8171942215705705, 2.7730896907149734, 2.3115361667025547, 4.645693052181801, 8.93492961763547])",False
9485549653.719458,"array('h', [11.819594144453204, 6.026850332303748, 4.394050803897679, 5.355341311026317, 2.8649357677364917, 2.6207296077600017, 5.511976740561733, 10.512171162987046])",False
9505551777.891403,"array('h', [15.60237569679334, 7.87423795565669, 4.4123936991141255, 5.377314090699358, 2.9925294972533596, 3.0349431243878233, 6.76594097215063, 13.485316156869972])",False
9525553902.063349,"array('h', [16.43672932836706, 8.866828792691212, 4.549839013134039, 4.965920692856705, 2.806299636370539, 3.011804080334839, 7.906091622105381, 14.722083347299835])",False
9545556026.235294,"array('h', [17.7967510568831, 10.024915340789061, 4.928137763136739, 4.836180030874905, 2.997895448803135, 4.064956658580333, 9.310680280013333, 17.2284083653976])",False
9565558150.40724,"array('h', [19.52951040703011, 11.504710332587003, 5.059784795539374, 4.257387543697175, 2.892002891983633, 4.922043390273818, 10.174390803579676, 19.00544332021618])",False
9585560274.579184,"array('h', [21.119915866795314, 11.948859820535848, 5.056071386441409, 4.217372806946725, 3.0470208676760184, 5.547994589278749, 10.655334966858549, 19.62871591743499])",False
9605562398.751131,"array('h', [22.61848835038753, 12.91644712080504, 5.281275080181161, 3.8443335961183274, 2.9027258155829374, 5.681390115568603, 11.490034542398716, 21.159508196179527])",False
9625564522.923077,"array('h', [24.1003686658386, 13.66462230773008, 5.319895599833033, 3.9041336534547484, 3.09113449843508, 6.034058478579107, 12.631047720738659, 23.0928534541805])",False
9645566647.095022,"array('h', [26.034318033627116, 15.023194586824335, 5.5643582905798095, 3.724628731877145, 2.9508335655812994, 6.475108700299552, 13.335401931213607, 23.893543596025168])",False
9665568771.266968,"array('h', [28.488336651923046, 15.349385308737196, 5.524394603316024, 3.894172048693804, 3.245094834279346, 6.85810153949753, 13.832157020727726, 26.789158086852392])",False
9685570895.438911,"array('h', [29.29191443150909, 16.792855544437316, 6.129340777910492, 4.003970354563752, 3.4270504248907305, 7.000375387320985, 13.589604315376073, 26.852425565688247])",False
9705573019.61086,"array('h', [29.241874636180025, 17.070071624164893, 6.506231024051872, 4.3573061070250425, 3.6373548523786305, 7.347715435743486, 13.586705816555028, 26.782619906304394])",False
9725575143.782806,"array('h', [29.193151154781987, 16.747997850513794, 6.5957749523458356, 4.338009421105795, 3.4073769931368205, 8.31046208169438, 14.53693935468372, 27.443899675061665])",False
9745577267.954752,"array('h', [27.899081442060112, 16.042763273993717, 6.333220360119308, 4.4524915739269995, 3.4044935954235735, 7.845513963687964, 13.420290904028391, 25.933902057142205])",False
9765579392.126698,"array('h', [26.517156870814933, 15.223033921340779, 6.43056173043654, 4.555032855655718, 3.409422807266267, 7.967718290430329, 12.578405078325671, 25.986127334403037])",False
9785581516.298643,"array('h', [27.613675856542674, 14.676433079091368, 6.256683911436965, 4.718494116037149, 3.7160089478480596, 7.726276998547398, 11.248944280528221, 24.990499254654758])",False
9805583640.470589,"array('h', [28.258805565928604, 13.55386263145038, 5.934387338476044, 4.653679024787715, 3.7710292013805855, 7.60341870161391, 11.113192147051967, 25.2163587584172])",False
9825585764.642534,"array('h', [28.480876645115274, 14.394959462627057, 6.364355174253992, 4.856410513524235, 3.7558909305652057, 7.536670042295053, 11.17367015989298, 25.984844339252295])",False
9845587888.81448,"array('h', [28.8896628193493, 14.810165150553155, 6.230031590063489, 4.606039149312683, 3.558954907675375, 7.485032693232855, 11.689978005050326, 26.06224190698375])",False
9865590012.986423,"array('h', [30.181035085990708, 14.847764423822294, 5.845181248451544, 4.498735478467359, 3.682663364000028, 7.91782936629655, 11.220090133538534, 24.91315914018022])",False
9885592137.158373,"array('h', [32.25729463768552, 14.49823215761809, 5.97074769306654, 4.725313921841995, 3.834025658773917, 7.63806587344652, 11.201567826942876, 26.348734604116217])",False
9905594261.330317,"array('h', [33.60240541575212, 14.589898839917995, 6.26700677313957, 4.97202311641779, 4.320627372637709, 8.379053909310406, 12.052416278275192, 26.71146181297833])",False
9925596385.502262,"array('h', [32.08767917700864, 14.447305185558328, 5.994994172497939, 4.698124565887275, 4.038501885668423, 8.375939846542323, 12.988637332223968, 26.155801897738776])",False
9945598509.674208,"array('h', [31.648209053469586, 13.01036965190995, 5.643668938049905, 4.752331372625508, 4.352266113957018, 9.049251999041267, 14.42359962712277, 28.06390481852439])",False
9965600633.846151,"array('h', [32.52857278531966, 14.097026858447402, 6.079338576842399, 5.061380764401134, 4.6752497021006985, 8.245400756452234, 13.881616080483782, 28.355732967198595])",False
9985602758.0181,"array('h', [33.93703610681925, 14.1933761204212, 6.5515050451704795, 5.345657745267588, 5.338793719768508, 7.912173751513446, 14.698206106571126, 30.113719040073217])",False
10005604882.190044,"array('h', [34.543748884017525, 14.221250352440794, 6.921448433068601, 5.258304098500797, 5.61768743576882, 9.393960965127741, 16.93789592762079, 29.57129910082481])",False
10025607006.361992,"array('h', [34.03852529677373, 13.645015210284114, 6.722449640609919, 5.580475219666477, 6.545510709497365, 11.10351325212603, 18.68074712860552, 29.269197861023354])",False
10045609130.533936,"array('h', [32.309853347482324, 13.931682848933495, 7.104700448909194, 6.285104784275654, 7.317176328575505, 11.964059720235667, 20.134651896719987, 29.496372923545344])",False
10065611254.705885,"array('h', [30.940114206137604, 13.973351262774106, 7.250924863609723, 6.753211625894714, 7.552698741743804, 12.109842307738655, 20.071116924294525, 28.244167348766346])",False
10085613378.877829,"array('h', [31.296032484877543, 14.034157917814552, 6.812323085958584, 6.906020262903444, 8.501470760463837, 13.097443315647153, 20.29730285823934, 29.164057299885172])",False
10105615503.049774,"array('h', [30.45147699652037, 13.846017175899066, 6.966358652369961, 7.651133538832511, 9.53096998408872, 13.184837053478144, 20.00917192489171, 29.16107285432497])",False
10125617627.22172,"array('h', [28.62433003698357, 14.32698771020064, 7.397150501792564, 7.809123187703736, 9.775300222541441, 14.400289696613108, 20.53636554784062, 28.77942332855052])",False
10145619751.393663,"array('h', [26.475916589127923, 14.13085086744353, 7.354336254635456, 8.513476001380681, 11.176123408012087, 15.685610733515134, 19.89425043530592, 28.479905327808115])",False
10165621875.56561,"array('h', [25.663232022608135, 15.163035434595622, 9.104028218506931, 10.13172359289632, 13.242848295482679, 17.390861649191518, 19.73609081918316, 28.21072574344828])",False
10185623999.737556,"array('h', [26.500463458494497, 17.765366918182078, 11.944652617348021, 11.683326195720385, 14.468125186524007, 18.435842949322854, 18.863141742989782, 27.922877322760897])",False
10205626123.909502,"array('h', [25.963831652700904, 18.894495858133595, 12.724127001434459, 12.689496422053667, 16.490853217256188, 18.979732162072985, 18.176422186925357, 26.11789193389])",False
10225628248.081448,"array('h', [27.03086404195108, 20.443389356140752, 13.568299766251643, 13.162824998989832, 18.26371354501321, 20.78942410738098, 17.661149336658507, 25.77192551864926])",False
10245630372.253391,"array('h', [26.047936924312594, 25.514771718207587, 16.70589663495287, 14.355884700618116, 19.136302138067062, 22.313322212554866, 16.085272778068425, 24.361404526297072])",False
10265632496.42534,"array('h', [28.05310259027069, 29.74208558729067, 20.41436372451942, 16.354903507298793, 20.290533181767476, 22.3512839627598, 14.5104122006144, 25.22432265447423])",False
10285634620.597284,"array('h', [29.80445973068957, 32.00760240805365, 23.867303495805015, 17.146374817278577, 20.303528928326898, 21.976542634837884, 13.120235930160378, 25.556233013164043])",False
10305636744.76923,"array('h', [30.60829463095257, 35.211003082091885, 29.199369671552386, 17.982683895282715, 21.011036022868744, 22.317944078755094, 11.657602179561637, 24.9826085029361])",False
10325638868.941175,"array('h', [32.203353938523456, 38.582919321097066, 35.460349238957455, 19.149230132187153, 21.788058371218188, 22.0627859721157, 11.953691179401162, 25.42604928731487])",False
10345640993.113125,"array('h', [33.31075106999425, 41.42002985363605, 38.131176892077335, 20.223374232497726, 22.510157485919287, 22.84888647653856, 11.89313225051885, 25.12571156173943])",False
10365643117.285069,"array('h', [33.84735422493871, 45.99222771440519, 42.20780604240851, 21.364230919644903, 23.054717098324968, 23.165591450434018, 12.1009043825694, 26.230565441565144])",False
10385645241.457014,"array('h', [34.06258463181323, 51.816811127352864, 44.82524840336664, 21.9575504851217, 24.19464767674846, 22.687086797054832, 11.87826357359215, 24.966682793179693])",False
10405647365.62896,"array('h', [35.098763153330744, 57.89713731970463, 48.14148218672353, 21.57869954272128, 23.261940837562033, 21.174668544774576, 12.368308964633018, 25.678601877601906])",False
10425649489.800903,"array('h', [34.78696554882379, 59.92299674253742, 49.11135765135629, 21.357666883078856, 23.357923374447147, 21.111412698430534, 12.362668869688019, 25.035228895433924])",False
10445651613.97285,"array('h', [34.79630867673041, 59.586405904425156, 48.06285728374509, 20.737316571372634, 21.956857313649376, 21.829757352896497, 12.577162207561388, 24.389980138615226])",False
10465653738.144796,"array('h', [34.12550963104693, 61.714468993152934, 50.57196779358452, 20.956560608667612, 20.158316584631827, 20.897041119548753, 12.64204473644054, 25.238788564193158])",False
10485655862.316742,"array('h', [31.739897013987957, 59.9189139269355, 50.17380101443532, 21.188355305205874, 19.69729056108837, 21.090339820576624, 12.489563580746932, 24.68028715740545])",False
10505657986.488688,"array('h', [29.171773717709517, 57.894781991916894, 49.71236159887603, 20.439125134085995, 19.246214991225802, 20.260179952888237, 12.344984965805121, 24.341939621221922])",False
10525660110.660631,"array('h', [27.13172382373831, 59.83873895476776, 50.671992829465665, 19.959516879558286, 18.942594887250866, 20.75625817086947, 12.274300300310223, 23.26653219400537])",False
10545662234.83258,"array('h', [27.56588544680833, 57.9964051554555, 47.96404905300254, 18.852557842190993, 18.372406490697763, 20.611838180877402, 12.837543367491229, 23.936653115299727])",False
10565664359.004524,"array('h', [28.28531308176821, 60.55183304416525, 45.38358355909376, 18.40454844342254, 17.983628123777663, 20.67324397195262, 13.374888369035485, 24.38937946743575])",False
10585666483.176472,"array('h', [27.31891574954645, 60.439136801327095, 44.630475932973, 18.653169573530544, 17.380177372417116, 21.516181498059144, 12.801784963699891, 22.936570324742778])",False
10605668607.348415,"array('h', [26.942460959777, 59.83408465142239, 44.168830812497426, 17.786619805263445, 16.406985526516547, 21.322797652417055, 12.586426007026821, 23.15188581953083])",False
10625670731.520365,"array('h', [27.195413982124474, 57.546872396978074, 43.1940537822317, 17.62914822437254, 16.254276300419384, 21.945232340733625, 12.261379883072646, 24.357840697425267])",False
10645672855.692308,"array('h', [27.02325133201082, 56.602587509834294, 44.695938875451276, 17.92332734159301, 16.729024703481137, 22.64430229577486, 12.62010234644889, 24.584306704222577])",False
10665674979.864254,"array('h', [27.320427490662812, 55.49268478974041, 44.6788433060437, 17.837980523801818, 16.026214373205793, 22.55905390194357, 13.085620595334737, 24.504850095090752])",False
10685677104.0362,"array('h', [26.537597468758737, 57.01679576808144, 46.47839275766015, 17.83498479580005, 15.456773702132468, 20.423809505453587, 12.40912785545626, 23.83236254085696])",False
10705679228.208143,"array('h', [26.604138009996483, 57.24461305318451, 46.11680816122934, 17.90497454838652, 16.29595930008248, 21.27281149201577, 12.299362518932599, 23.579001139300843])",False
10725681352.38009,"array('h', [26.800900473685896, 56.53985938137086, 44.29812041082904, 17.64370349709173, 16.51094353617637, 21.39184859734424, 12.45609091432561, 22.467251905304597])",False
10745683476.552036,"array('h', [27.603957256472, 58.43457691550045, 45.79383144496035, 17.281015287576903, 16.530613258518617, 20.798440744525006, 12.804136056179818, 22.453742037995482])",False
10765685600.723982,"array('h', [28.80576403488238, 57.480813737409775, 46.06283468764117, 17.61742958368319, 16.433055993998092, 20.94326139741242, 13.240664840218612, 22.362539636898667])",False
10785687724.895927,"array('h', [28.810227515663847, 59.55335585448923, 46.799470785435346, 18.57055641054203, 17.1515977910204, 20.222128130270157, 12.799150203545983, 22.01771231315976])",False
10805689849.067871,"array('h', [28.583510658166315, 58.01313553602905, 45.87146678214684, 18.731093809690194, 18.0945962277063, 19.86552889425975, 12.501831470839315, 21.0362161738086])",False
10825691973.23982,"array('h', [27.352064756670476, 55.37669013675962, 44.84770590755503, 18.046814489395054, 18.637095311267068, 19.512099950835996, 12.214453529686667, 20.009969162051306])",False
10845694097.411764,"array('h', [25.773302368482415, 54.28885248664738, 44.63732729168814, 17.469264489328527, 18.589769852527077, 19.302911643681178, 13.213374849954102, 20.189596497891138])",False
10865696221.58371,"array('h', [24.83068458865887, 52.20301166712092, 42.68014595583423, 17.671115737654095, 19.407334279742507, 18.937640072107673, 13.136886799051567, 17.827609486936783])",False
10885698345.755655,"array('h', [24.247262427850714, 52.701559204305504, 42.23750239104929, 17.552037834625636, 18.16876530250968, 17.63660372433259, 12.758761206855715, 16.635641149937026])",False
10905700469.9276,"array('h', [22.42101139239549, 50.04923597452543, 40.18724084273984, 16.942964195872097, 17.436677979088643, 17.2796620334603, 11.554704245547146, 15.860285880133004])",False
10925702594.099548,"array('h', [22.102994658455014, 50.64708379996881, 40.1357177294051, 17.194185761964807, 17.360835516077398, 17.9702337719873, 10.994813883948565, 16.018516748238532])",False
10945704718.271494,"array('h', [22.92522139994991, 50.99943829399689, 39.63467283564482, 16.942342435108205, 17.428455823936375, 17.706720953688567, 11.374513668037194, 16.557916134590375])",False
10965706842.44344,"array('h', [23.60914519818016, 54.023185491298975, 42.63685481880464, 16.778689280894245, 16.65480458101501, 17.050536390348654, 11.406692129737674, 17.177610861646595])",False
10985708966.615383,"array('h', [24.269169722185655, 53.085197358444944, 42.46438533163129, 16.80407395119206, 16.307495349402835, 17.17269791653808, 11.724904431668916, 18.665717212965056])",False
11005711090.78733,"array('h', [24.413061080229625, 53.81472292644317, 41.75421832549146, 16.943117735077617, 16.910951023310687, 16.361174606955984, 11.193897474204595, 18.754069554502614])",False
11025713214.959276,"array('h', [23.625700390717576, 51.26567509771095, 39.14694490621871, 16.358625092674618, 17.473377994092225, 15.573352238041238, 10.738278669664243, 17.72369823465073])",False
11045715339.131222,"array('h', [22.742939155841448, 52.56459504409997, 41.04827259732103, 17.58474435213262, 18.23705049395753, 15.415313121839652, 11.132840401665138, 17.539287596692606])",False
11065717463.303167,"array('h', [22.17413778005319, 53.605676498252976, 41.80503202481291, 18.360920751901006, 18.188160032487882, 15.26545580376608, 10.935436699059446, 17.564703686672814])",False
11085719587.475113,"array('h', [23.186727879943344, 55.158338114947746, 42.173081172541906, 18.620299943722213, 17.97423175100031, 14.042254378148872, 9.879683916918244, 17.9499038258774])",False
11105721711.647058,"array('h', [24.643802047125156, 60.564427843488254, 46.96979146712259, 19.356580300299704, 17.186502322258566, 13.040175489482529, 8.850786612903498, 17.96491178349543])",False
11125723835.819004,"array('h', [24.241842790348453, 60.445418165224126, 46.055392824050415, 18.28683587393459, 16.97579168697826, 13.193439435278265, 8.645386681238394, 18.207758515990687])",False
11145725959.99095,"array('h', [23.94651702864119, 59.20820207407409, 46.27019526474978, 18.098473083525622, 17.965521201541144, 14.701721001280845, 9.241401074937828, 18.532861033404142])",False
11165728084.162895,"array('h', [26.00647871466965, 62.580679683955644, 48.91304157565295, 19.05865450026158, 18.22329992738234, 14.009608737185902, 9.05232348587263, 18.061896686817608])",False
11185730208.334845,"array('h', [26.12333862345892, 61.637362297455375, 49.0323326665265, 19.212399942295256, 18.959678229032065, 13.593892116996571, 9.44540901890724, 18.243795160402303])",False
11205732332.506786,"array('h', [24.723111873371135, 57.870772606144676, 46.68577325419509, 18.6171131728374, 19.1761563166871, 13.201746183877622, 9.154663584278477, 19.471629408391774])",False
11225734456.678734,"array('h', [22.832841600932454, 57.90159252356253, 46.48823372812176, 19.193622546868987, 20.37264004286731, 12.600825486132644, 8.653709304465046, 18.35740566678366])",False
11245736580.85068,"array('h', [22.48816733649841, 58.428769051032305, 47.200959890992166, 19.756658544232664, 19.459633249217276, 11.789177905135908, 8.677138007543553, 17.700993672168522])",False
11265738705.022623,"array('h', [21.83057566364596, 58.45675516026105, 47.455815673677044, 19.3590942949452, 18.43731606733233, 11.700258780603102, 8.806390032625796, 18.189818267508052])",False
11285740829.19457,"array('h', [22.373763023089268, 59.8603793288845, 47.91480521203385, 18.61338436206482, 17.396736865140777, 12.357265783864113, 8.507560423396926, 19.24745174681222])",False
11305742953.366516,"array('h', [21.53184815300127, 57.39059021420551, 45.23691096836759, 17.431430171692778, 17.15459861314466, 12.874389886066059, 7.803736688201878, 18.677235523829275])",False
11325745077.53846,"array('h', [20.783744570261824, 58.44707284063455, 46.45690558338169, 17.170034996637636, 16.939771788421254, 12.417349096205001, 8.274828003143968, 18.88641291962761])",False
11345747201.710407,"array('h', [20.38781941424061, 56.37614305503231, 44.14128043890078, 16.855751945354754, 16.626522863466015, 12.488638169201575, 8.66553038164173, 19.727792753259873])",False
11365749325.882355,"array('h', [20.727704282067492, 53.359493233685264, 42.300562631679135, 16.726945462148382, 17.267639090693574, 13.059189162989027, 9.679050969703896, 20.979818995902214])",False
11385751450.054298,"array('h', [20.967308474532647, 53.486029785030944, 44.168608427857976, 17.79603724197126, 16.88816533608184, 12.103351901081293, 9.627352782704676, 20.57137511167211])",False
11405753574.226246,"array('h', [20.61940992002458, 50.56454804949988, 41.12773790842235, 17.3426172953771, 16.295920127881278, 11.017641714389336, 10.15578283160495, 21.593599055430435])",False
11425755698.39819,"array('h', [20.800179325589806, 45.03334050462957, 37.70541315341627, 15.922764403976693, 15.820988754151122, 11.161928831057075, 10.134383397183884, 21.580500397582558])",False
11445757822.570137,"array('h', [20.844128460119755, 48.82573915386027, 40.37124767482766, 16.29086172274053, 15.649560478364332, 11.153985703225185, 9.357727274982548, 20.186891104729998])",False
11465759946.74208,"array('h', [21.800917808706014, 49.13020343732162, 41.46891994978702, 16.26823925471274, 15.163522183622732, 11.811328827855178, 9.554117367355623, 20.20260979104369])",False
11485762070.914028,"array('h', [21.94406826100143, 48.86673170338306, 42.4040797856791, 16.20679454146612, 14.74127521443607, 11.357583942483904, 9.444428276614317, 21.132356276598514])",False
11505764195.085972,"array('h', [21.17191316659101, 48.82319157824978, 41.21467893955066, 15.706711698375761, 15.191837762371216, 12.160714250840917, 9.790099178600105, 21.95224010455742])",False
11525766319.25792,"array('h', [21.2246209888999, 45.41248401898107, 38.46790973013584, 15.16233378345071, 14.995307466831779, 11.314297156732128, 10.08519700179388, 22.038320797490176])",False
11545768443.429863,"array('h', [21.633421884216915, 47.10211781201458, 39.70202217063678, 14.993386165717867, 14.355629895071658, 11.338426183070759, 10.656669341449764, 22.007908422724565])",False
11565770567.60181,"array('h', [22.443272424141608, 49.820975946755304, 43.67268186498613, 16.246460945132352, 13.229334246617356, 12.345468420882918, 10.738750962934125, 22.116347200597392])",False
11585772691.773754,"array('h', [22.642485512739196, 46.98740904125957, 42.40453484591001, 15.919704459706344, 13.739230030840565, 12.726671585727372, 10.59603499821636, 21.197966782591934])",False
11605774815.945702,"array('h', [22.01071504165917, 47.57669400082317, 42.2751809697528, 14.900355771981348, 13.690624846827921, 12.985289457816108, 10.251159665434978, 20.067712173130005])",False
11625776940.117645,"array('h', [21.93277769285803, 48.889824729020184, 42.29459893602973, 14.611053015662304, 13.012151658999358, 13.507150735284547, 9.981743345390553, 20.343192054978907])",False
11645779064.289593,"array('h', [22.395192235074347, 49.49291709691202, 42.194318486053795, 14.98519644975222, 12.622497905287494, 13.245910092990895, 9.311218177082353, 20.420215215768742])",False
11665781188.46154,"array('h', [20.43840666573196, 50.07534807391227, 42.85958272922318, 15.520211046858043, 12.971362919587795, 12.705106093028835, 8.530106930676402, 18.51787749693762])",False
11685783312.633484,"array('h', [19.776380194197195, 51.076977690554706, 43.63302123084033, 15.31920035231686, 12.404569055157586, 12.481592825108448, 8.884925861470126, 19.39297985200453])",False
11705785436.805431,"array('h', [20.72057480201931, 49.70822027626181, 42.95206569018022, 15.967906616041098, 12.401338711490435, 12.096906817275007, 9.035582758132389, 19.361144677554915])",False
11725787560.977375,"array('h', [21.506878538809815, 51.37126016988414, 43.20647349815187, 15.867261096640878, 12.816689032909164, 11.897149599897448, 9.24423698444682, 19.12711509930267])",False
11745789685.149323,"array('h', [22.013764486359825, 49.155469232346576, 42.03645813623549, 15.805577881290455, 12.910979540032201, 11.773275248414212, 8.525371343620373, 17.35807624571208])",False
11765791809.321266,"array('h', [22.57500822110439, 50.87617303412528, 43.990582720170224, 16.938928708799164, 13.153903091073213, 11.630975951387631, 7.97886425332804, 16.149748833039226])",False
11785793933.493214,"array('h', [23.817103861873772, 55.048433397746315, 48.02923143182127, 18.858548327701953, 13.27559095517778, 12.338471677364982, 8.085502241335341, 15.637468919433028])",False
11805796057.665157,"array('h', [23.957644866776, 54.63591106077634, 47.51347380248115, 18.87816642648393, 13.216217929006778, 11.153334006924515, 7.914538199980924, 14.97731403264103])",False
11825798181.837105,"array('h', [23.241299022556557, 53.08945417157996, 44.38458257244467, 18.015759770398464, 13.20991762613042, 10.650928546177374, 7.782808455268952, 15.105992451669099])",False
11845800306.009048,"array('h', [23.267040613494487, 51.91571086411022, 42.67110297068015, 18.89611207434092, 13.212288780283428, 10.873307157667758, 7.681812609086977, 15.685071286290746])",False
11865802430.180996,"array('h', [23.348592617885373, 49.61180393015309, 40.8139221046619, 18.83205856545491, 12.935515439823723, 10.419435185775386, 7.11348539701777, 15.805712281552342])",False
11885804554.352943,"array('h', [24.516632645443323, 47.300320212300505, 39.074103446388996, 18.124210107919694, 12.72458057153457, 9.45372683033163, 7.138363952674099, 16.16081704183767])",False
11905806678.524887,"array('h', [24.406327291025594, 45.334052269191275, 38.01545614864995, 17.17982446582724, 12.2395878214493, 10.161341681904544, 7.1199732818348, 15.410781386470223])",False
11925808802.69683,"array('h', [24.656886426047596, 42.443083912305696, 34.61765008585482, 16.934379102333335, 12.114276285668431, 11.254444753799485, 8.406653655439545, 15.78894004506826])",False
11945810926.868778,"array('h', [26.704217298809517, 39.62188449386368, 31.007774853484612, 16.34609450472944, 12.432100556632607, 11.6653438725141, 10.608725592891727, 16.188858066096117])",False
11965813051.040726,"array('h', [28.039167128685676, 38.92308118488536, 29.08481217123265, 15.436654763617586, 11.589480866799256, 11.767786368400772, 10.995911247012744, 15.839689548386188])",False
11985815175.21267,"array('h', [27.91737991367927, 35.7648745427262, 25.602918568018328, 14.227919228003216, 10.687643578593581, 11.947560216169682, 11.316088169718437, 16.659336355891146])",False
12005817299.384617,"array('h', [30.868433936539077, 35.165783653689324, 24.496553670963447, 13.482832786328764, 10.189912130857586, 12.177422691492923, 12.60503156856988, 18.648066918277294])",False
12025819423.55656,"array('h', [32.313766486917984, 31.06419263197931, 20.43937198069563, 11.810115249155476, 9.77258593626677, 12.586753189666961, 12.691612362714851, 19.728532408093123])",False
12045821547.728508,"array('h', [32.38912880878971, 25.808844323484827, 15.395228694755337, 9.477065484865479, 8.89036950759444, 11.762521247946617, 12.984602518163788, 20.221476459492443])",False
12065823671.900452,"array('h', [34.85907296500358, 23.20324433464461, 11.937195834575798, 8.599379315834833, 8.574137540677652, 11.458791785817384, 12.930171089717566, 21.177206524326877])",False
12085825796.0724,"array('h', [36.705792441828294, 22.44514609070575, 11.360587316722395, 8.108403407310872, 7.917657336455018, 10.815815170031758, 12.862484299266114, 21.680245167685197])",False
12105827920.244343,"array('h', [36.380858494833404, 23.969715402637167, 12.769804762412141, 8.200557666909877, 7.6842530662754625, 10.042432196483599, 12.740859990174664, 20.753865859461484])",False
12125830044.41629,"array('h', [34.16658327124607, 24.029058655609834, 13.476734120621115, 8.388819986117314, 7.5288220487142, 9.611303458577693, 12.791306012753074, 19.937169222009288])",False
12145832168.588238,"array('h', [33.06196782924365, 24.495429533816093, 13.286733210860138, 8.286415229413212, 7.2166508938537035, 9.568887080191779, 12.617770558096675, 19.19083214324545])",False
12165834292.760181,"array('h', [32.96728463494417, 25.679155277878774, 14.270578929266383, 8.189034163678963, 6.840125136065276, 8.34463413402295, 12.037313173547153, 19.24488906178135])",False
12185836416.932129,"array('h', [30.898153681902706, 26.731459570021812, 15.342370338002013, 7.749250662270192, 6.029465243862044, 7.624712687177453, 9.723051498566218, 17.704888621201412])",False
12205838541.104076,"array('h', [27.01207249953208, 26.685744857576204, 16.017651875000958, 7.4528710986886795, 5.247238058979991, 6.904930570378288, 7.8806994435897115, 16.413177144061848])",False
12225840665.276016,"array('h', [24.904434743738022, 26.487253643510133, 17.23386231692263, 7.943503795918728, 5.16362784919836, 6.324182387246827, 7.60941355452634, 15.076707100389038])",False
12245842789.447964,"array('h', [22.868019324700672, 28.28931794537379, 19.638206197886568, 8.661727119493316, 5.372362303386193, 6.020302440429792, 6.6423511023113875, 13.255003398194898])",False
12265844913.619911,"array('h', [18.502227831039505, 26.51088303218744, 19.378027629217538, 8.094725476438073, 4.5331689418321615, 4.972189851765847, 5.7515708467183755, 11.248359230528065])",False
12285847037.791851,"array('h', [15.01646951199291, 27.107447635019387, 20.19896169260252, 8.002198840437293, 4.181494933940805, 4.324835585404737, 5.368230915375933, 9.691195168775584])",False
12305849161.963799,"array('h', [12.12256706559242, 25.60100804950322, 20.58082555395243, 8.166512591945077, 4.087170011206005, 4.209468156444269, 4.47929672458883, 8.466777313438369])",False
12325851286.135742,"array('h', [9.10743687535192, 24.979740296161832, 21.246462923384115, 8.07455033524814, 3.6941256629406545, 3.9484218482456592, 4.534712123850266, 7.020543597394971])",False
12345853410.307693,"array('h', [6.755756935802636, 24.088973202046525, 20.753324678225695, 7.719751161448218, 3.522957843237038, 3.8452193738644667, 4.254592276766923, 5.991930569453123])",False
12365855534.479641,"array('h', [6.998361235995265, 23.306917377521497, 20.112042228881315, 7.786333848535739, 3.6429961457933504, 3.8180396482052084, 4.672302011536534, 5.970529696797998])",False
12385857658.651585,"array('h', [6.939723711478371, 23.399142212621076, 19.742308543501686, 7.93266449789915, 3.859581126723116, 3.9383450329610823, 4.4947711067934435, 5.256738576774573])",False
12405859782.823528,"array('h', [6.576305652499626, 24.772876126024805, 20.9341168862248, 8.616452921839388, 4.049772152248466, 3.807437555866844, 4.428942688654916, 5.011959298117193])",False
12425861906.99548,"array('h', [5.859248712898377, 23.950846532017106, 21.312355003449948, 8.539806999701103, 4.115813813615602, 3.7496922696324244, 4.353477002514137, 4.72877428444481])",False
12445864031.16742,"array('h', [5.594315804732895, 21.987260472409496, 20.70287568637371, 8.395880003304152, 4.101612154068263, 3.580372957651318, 4.49512226166006, 4.880672438003361])",False
12465866155.339367,"array('h', [5.2418252597579755, 20.592177224662393, 19.48612652858818, 8.00997635950849, 4.162079659069607, 3.54763141053716, 4.371813645213654, 4.750416485736429])",False
12485868279.511314,"array('h', [5.127569986032318, 18.879333320939764, 18.243009046838402, 7.729650345534556, 3.776792859744076, 3.178511451328466, 4.053728586880544, 4.633057249765802])",False
12505870403.683254,"array('h', [5.322617902089413, 18.168526286776338, 16.78036390706546, 8.03402424426233, 4.395679286952269, 3.297526380874534, 3.8557523707395145, 4.475663263812742])",False
12525872527.855202,"array('h', [5.674832115817759, 17.991289295709667, 16.053477197282678, 8.332500132228427, 5.116125820920864, 3.124213276623882, 3.543136424402288, 4.410941613640801])",False
12545874652.02715,"array('h', [5.8036840553490086, 17.534159284700653, 15.181047868557517, 8.19908506614402, 5.001753576580111, 2.9332726065354398, 3.204747676329792, 4.3110968194452575])",False
12565876776.199097,"array('h', [5.776868980781765, 17.565029973320428, 14.651073101289088, 8.315219681249037, 5.2988561542262325, 2.900554890451234, 3.2531740128889566, 4.219648948993359])",False
12585878900.37104,"array('h', [5.704122851018962, 17.117362741014023, 14.105304688751305, 8.25089335411529, 5.688385765606891, 3.0547484345787033, 3.0372194451183563, 3.9699641130254886])",False
12605881024.542988,"array('h', [5.493419048963433, 15.491621892682781, 13.000767967660549, 7.812545474210688, 5.562201855019123, 2.9162051446997475, 2.874255409498052, 3.7992867079431623])",False
12625883148.714931,"array('h', [5.096239904988413, 14.226039532583236, 12.310587099492658, 7.183736864244002, 5.243100657432515, 2.754916593279886, 2.436887046163572, 3.289610161948417])",False
12645885272.886879,"array('h', [4.84973586577897, 11.653268109322589, 10.729523190618133, 6.387271977373438, 4.872708302808896, 2.7034396342319793, 2.607663860404851, 3.1944239776668266])",False
12665887397.058823,"array('h', [4.575942068591262, 9.471311009329176, 8.355800716922532, 5.663080337839342, 4.677871461631413, 2.738332290190931, 2.444825807197898, 2.9793666179395863])",False
12685889521.23077,"array('h', [4.431734218285093, 9.193064291152451, 7.410169390445793, 5.60807548650172, 4.731600452704383, 2.7231108822990038, 2.338167894873129, 2.824412366715946])",False
12705891645.402718,"array('h', [4.030110066046145, 8.50100334293863, 7.053110852951572, 5.486235009751635, 4.534624114958973, 2.70491633862845, 1.9710696818175497, 2.4875589575965122])",False
12725893769.574661,"array('h', [3.870101048905339, 8.165240707856496, 6.407426916257743, 5.2335666948309525, 4.474367939010675, 2.648320781580987, 2.0687701131012237, 2.422590565841137])",False
12745895893.746605,"array('h', [3.5115140680569232, 6.909837834345435, 5.469061879362132, 4.385606787231178, 4.189821182090289, 2.462264423812563, 2.016021099644257, 2.377288864325465])",False
12765898017.918552,"array('h', [3.1080164771097385, 6.2779491548330775, 5.820640574126402, 3.8817969246171224, 3.479373270316358, 2.260628237364708, 2.089374591333049, 2.2757446478218886])",False
12785900142.0905,"array('h', [2.653659630170353, 5.28220784544605, 5.438475528753672, 3.616840647661206, 3.095730899414358, 2.2520354505250015, 2.0181048988877595, 2.099458716151341])",False
12805902266.262444,"array('h', [2.354233393101333, 4.966823641948459, 5.1993064232123265, 3.2003197865901925, 2.9831530361826792, 2.1492886764343138, 1.9706844490549904, 1.9190178584633737])",False
12825904390.434387,"array('h', [2.1764025012088544, 4.307077453119134, 4.481756915027855, 2.659277194024354, 2.4670343025327464, 1.9634248694621774, 1.8207993939172082, 1.8557354893453328])",False
12845906514.60633,"array('h', [2.1508744339021044, 4.31192005343017, 4.648306961215149, 2.553957944319533, 2.3760782712407624, 1.897811917459993, 1.845451084433238, 1.857303668421209])",False
12865908638.778278,"array('h', [2.0320063791892387, 3.77795611105762, 4.2942364192684686, 2.406642128269264, 2.1583280283780892, 1.8269411809558231, 1.5771697311524904, 1.7961849022888068])",False
12885910762.950226,"array('h', [1.965092430468109, 3.8820448212033325, 4.621719027800561, 2.762818900865065, 2.86654843468335, 1.8560872904761956, 1.5020529739198571, 1.5992878541269162])",False
12905912887.122173,"array('h', [1.863538235984578, 3.4937437559475724, 4.083960890877644, 3.0713800723169964, 4.075831975530355, 2.1115232385251717, 1.3080508879544988, 1.4870226168501468])",False
12925915011.29412,"array('h', [1.8478220295369088, 3.622872676845045, 4.06205143259569, 3.2105000016665484, 4.221306882759348, 2.1008012013463437, 1.3855783969178617, 1.5199559607225726])",False
12945917135.466064,"array('h', [1.7557110869719021, 3.4893736620777993, 3.8315983442384853, 3.2765209970163713, 4.90247288581825, 2.129950036585374, 1.362718613846125, 1.4738283330173998])",False
12965919259.638008,"array('h', [1.719136747801955, 3.5609093852179563, 3.9744705655533075, 3.5863349515456537, 5.225942253590802, 2.0386044447592258, 1.4257915503619594, 1.4811690032961975])",False
12985921383.80996,"array('h', [1.5409619648548036, 3.2997180020814723, 3.4630935484573397, 3.1989790155379825, 4.938737233233271, 1.9593138258740335, 1.1554746439491421, 1.3883775178498312])",False
13005923507.9819,"array('h', [1.5107521447869812, 3.1945233146199383, 3.2454558642575564, 3.5182128933690238, 5.461540526219044, 2.1078945435503775, 1.2097829619622809, 1.4735418809357224])",False
13025925632.153847,"array('h', [1.5130792395088164, 3.103304628438548, 3.094768434210115, 3.7126198975307263, 6.143281279132148, 2.2186380007217146, 1.0690332920098513, 1.402131659514389])",False
13045927756.32579,"array('h', [1.6569299818456107, 3.2655478833569473, 3.071486086953175, 3.9234217960098787, 6.230133921286125, 2.0933603104623466, 1.0764119855524044, 1.3749299315025405])",False
13065929880.497738,"array('h', [1.5492979362403423, 2.889391151540347, 2.838549216658069, 3.8192285129561117, 6.441140095843903, 2.147674336770986, 1.0223689032777685, 1.3898397087838885])",False
13085932004.669685,"array('h', [1.5361956462842228, 2.823155483705994, 2.893227072190077, 3.8765006565989726, 6.487251203532685, 2.102571411952804, 1.0412619415984976, 1.4386394949122252])",False
13105934128.841629,"array('h', [1.3942756858509842, 2.526239446141255, 2.6862933368611825, 3.7988645875695988, 6.57095797472084, 2.012129196515998, 0.8854688247673359, 1.3807750296361043])",False
13125936253.013573,"array('h', [1.4282949842936943, 2.6964619781917727, 3.037405646847199, 4.004947752887992, 6.609432522004816, 1.9635590523064037, 1.0513789957117092, 1.375384407947619])",False
13145938377.18552,"array('h', [1.3291048330578423, 2.518999202854258, 2.6915606110138524, 3.369616528217723, 5.361154915038918, 1.722989662805431, 0.9786185606811437, 1.386384575841884])",False
13165940501.357468,"array('h', [1.3230953528208522, 2.6680073815645553, 2.7809499158327413, 3.1645934467273675, 4.765018228879988, 1.5823169852038212, 1.1324852653939514, 1.4436386861765143])",False
13185942625.529411,"array('h', [1.3481885413020729, 2.4722562318056114, 2.4905465385929824, 2.922328686100137, 4.431198303260067, 1.5562277391636545, 1.043652821713008, 1.3760998461765876])",False
13205944749.701359,"array('h', [1.4136543310169678, 2.68500336390236, 2.5336775984492625, 2.714377555913518, 3.7522098777129576, 1.406693906914583, 1.1102187354379518, 1.3918680221319188])",False
13225946873.873302,"array('h', [1.4084373738322902, 2.4333901553684854, 2.288417775114686, 2.7889289541050806, 3.8605085711530465, 1.464154341450302, 1.0634524342707496, 1.398252066980041])",False
13245948998.04525,"array('h', [1.4927003107301005, 2.4870701897923495, 2.421426208488512, 2.894594321571356, 3.7358225061433674, 1.4017088279742749, 1.1459179358466385, 1.3867374622212216])",False
13265951122.217197,"array('h', [1.3691865642919168, 2.348277695609244, 2.1782523482488143, 2.4546734561028445, 2.948489779335645, 1.1242805229215616, 1.0427359803556917, 1.3468931096995447])",False
13285953246.389141,"array('h', [1.2581261337633658, 2.3819846466175933, 2.2610606877191834, 2.432921151803968, 2.642633552823109, 1.0138523815285656, 1.095384915134322, 1.2932958728329027])",False
13305955370.561085,"array('h', [1.181382674541318, 2.2681743400849834, 2.0939953362948636, 2.161404834557539, 2.4467723371992385, 0.989655285525846, 0.9893584718400749, 1.2884928633890878])",False
13325957494.733032,"array('h', [1.240128404799325, 2.5117560030268073, 2.3849050720440244, 2.321685041816317, 2.2261526424059297, 0.9918579483834097, 1.0700881337009491, 1.319491023604345])",False
13345959618.904976,"array('h', [1.1604260417604295, 2.40117309309668, 2.2836659981071548, 2.1547396410604085, 2.0869364115440963, 1.006037856367329, 1.0412995550541033, 1.3102658797529074])",False
13365961743.076923,"array('h', [1.309963506189584, 2.5298486763272807, 2.2758953049590005, 2.3635149792212573, 1.871226653532766, 0.971323807889823, 1.1540746558621722, 1.3964232112151358])",False
13385963867.24887,"array('h', [1.328552203090543, 2.5402169704111954, 2.1890557876252377, 2.2666657828852097, 1.8963410975372506, 0.9587090933571946, 1.1005562109660172, 1.5307041567523585])",False
13405965991.42081,"array('h', [1.43241287916477, 2.7529701953444827, 2.4151159088903693, 2.399537586005373, 1.7506994236429965, 0.9212620514670968, 1.2397496994513266, 1.4490178217600476])",False
13425968115.592758,"array('h', [1.4343766627109729, 2.685751696991771, 2.3588023128763074, 2.2341769112719994, 1.7349739393832144, 0.8439050247387584, 1.1229543878489947, 1.5517793027369773])",False
13445970239.764706,"array('h', [1.4679626533751169, 2.803951713129935, 2.655546262631534, 2.5551032910104756, 1.788760030981791, 0.8255568331614641, 1.2565542315738056, 1.567911624634907])",False
13465972363.936653,"array('h', [1.4498006756346893, 2.651802910684402, 2.505551398060169, 2.2547579967413753, 1.7638878986669504, 0.8798585493109908, 1.1067727887882313, 1.6044966152469078])",False
13485974488.1086,"array('h', [1.442541287047742, 2.6921149857178808, 2.6341030638813447, 2.387777068731045, 1.7268256515106921, 0.8802219872494512, 1.2529132601880715, 1.5914430572823592])",False
13505976612.280544,"array('h', [1.3947091083811158, 2.686855412679852, 2.5953788187434252, 2.1982531552124622, 1.616176173105406, 0.8947527640696121, 1.1401230547345533, 1.5368284721515617])",False
13525978736.452488,"array('h', [1.5874363555111624, 2.845567141478705, 2.794222791674113, 2.275113087737599, 1.4570760906293838, 0.9123032414219187, 1.2989642449409122, 1.6027397263555878])",False
13545980860.624435,"array('h', [1.540313834256265, 2.7115440610683943, 2.7948341965896213, 2.149154591972327, 1.5692558158468666, 0.9537589054829156, 1.1719848237804977, 1.7358360953074257])",False
13565982984.79638,"array('h', [1.6680977349781583, 2.755917404025982, 3.010738028769653, 2.517029527724134, 1.6826695470933961, 0.9605519434666524, 1.338697552745806, 1.7319660640195422])",False
13585985108.968327,"array('h', [1.4917847022573432, 2.6024473861664457, 2.713406927212349, 2.1302074726676, 1.6601350278985867, 0.8885495067609602, 1.142700012773922, 1.6647448357503565])",False
13605987233.140278,"array('h', [1.7014638571605387, 2.8589991747887122, 3.124952502171658, 2.4728066165092732, 1.7541314230753249, 0.9957615181371336, 1.3636214372245512, 1.6865121782255172])",False
13625989357.312218,"array('h', [1.4301333660400906, 2.5415710362357844, 2.7195989896749735, 1.830874998064212, 1.6419568911790323, 0.9342078107322028, 1.075602633346541, 1.568640530038748])",False
13645991481.484161,"array('h', [1.5702510134247123, 2.6092955459769405, 2.8769987420917698, 2.3254564735110153, 1.7696714643559015, 0.9898002215188565, 1.2103786813790947, 1.505651399432983])",False
13665993605.656109,"array('h', [1.1700180744256738, 2.40471001973018, 2.456849909979452, 1.4447200483748859, 1.5966196760163411, 0.9227621932645962, 0.8778585357009796, 1.4992678078866717])",False
13685995729.828056,"array('h', [1.593255887482732, 2.462933843655408, 2.6406302722306796, 2.3883233639495294, 1.729424990070643, 1.1114780742612902, 1.256257415750734, 1.434666469821071])",False
13705997854.0,"array('h', [0.8302845913817866, 2.17598985081442, 2.0238220934342417, 0.6487507275147625, 1.2253218519028422, 0.8330575572250422, 0.6326049485725332, 1.2821341128060422])",False
13705997855.0,"array('h', [1.8318517922616335, 5.942008526321094, 7.999221532210792, 19.249969679648974, 16.789950578990265, 5.377152035675942, 1.7297847202107264, 1.8986179861266819])",False
13725888723.33023,"array('h', [3.0456215049919533, 5.809179419880386, 11.99920497630175, 21.02097658729887, 17.740923834677726, 6.302609504615075, 3.1545683422313826, 4.269309573419872])",False
13745779591.660465,"array('h', [2.685621207426055, 6.917941715500499, 8.730100762505337, 11.83985005860311, 10.508114271053849, 3.374161406785807, 3.5999480886886848, 4.292893039501099])",False
13765670459.990696,"array('h', [4.333982370384975, 8.700100993411459, 10.267383227397499, 14.801323371553105, 12.835264683509934, 4.350711516145087, 4.1390342817677155, 5.539618316164195])",False
13785561328.32093,"array('h', [6.878930479440311, 9.652114040172835, 9.272809908021634, 11.660244925555139, 10.08375696897222, 3.712390818087844, 5.028574053824834, 8.232443881440133])",False
13805452196.651161,"array('h', [7.3297545448574395, 9.941970453679021, 9.207197664341093, 12.225271316464058, 10.436455172618658, 3.681359097441484, 4.40931073634248, 8.88702135697034])",False
13825343064.9814,"array('h', [10.88078849837231, 12.145624534705615, 8.777176286111917, 10.07853629479177, 8.615219735771369, 3.4484515467133887, 5.445351949662402, 12.015907522065019])",False
13845233933.311623,"array('h', [12.160645429523866, 12.743343783567234, 8.738824893095654, 10.100438831213582, 8.661765712800447, 3.915687854784212, 6.522940496782722, 13.533357634430045])",False
13865124801.641861,"array('h', [13.739068869405749, 12.787999843166142, 7.908343142133502, 8.661882031144152, 7.23198731314188, 4.149489954820779, 7.07846562415992, 14.790224845600301])",False
13885015669.972092,"array('h', [16.275372199771216, 13.592565718392406, 7.9453765157832805, 8.869369091388796, 7.379805911490553, 4.384961663159126, 7.52373404623105, 15.751903212552982])",False
13904906538.302326,"array('h', [17.779308679263988, 14.241146393951917, 7.869576778911165, 7.779393108901733, 6.505884270559852, 5.265895214753098, 7.856775259112583, 16.628925988836162])",False
13924797406.63256,"array('h', [18.73186382016628, 15.60793767705269, 8.365167427948196, 8.105827171017046, 6.734551145989729, 6.1208206321213074, 8.245666205118427, 17.39449134863174])",False
13944688274.962791,"array('h', [19.259195038995603, 15.327158949720745, 7.876462941220685, 7.298001132952181, 6.036686802940952, 6.002098605375889, 8.322028437438796, 17.553754798011557])",False
13964579143.293022,"array('h', [20.82774491298729, 17.141653227266648, 8.10167808963315, 6.694181118046519, 5.498936449655457, 5.861792956964807, 8.955431620139821, 19.57479275824888])",False
13984470011.623257,"array('h', [21.84506250186901, 18.037251276761808, 7.788680413710914, 5.7047136895066854, 4.624138180618101, 5.95510956831852, 9.429262046750384, 20.664601304799323])",False
14004360879.953487,"array('h', [23.400684132551458, 17.959187775599105, 7.8041089788238045, 5.566088717818623, 4.455478032740722, 6.346845057189422, 9.987212799417211, 22.390058421187227])",False
14024251748.283718,"array('h', [24.032563234729555, 18.19599513060692, 7.165674183858834, 4.4309779314130235, 3.385635152718673, 6.98640470393357, 11.437410237149084, 22.278542686324514])",False
14044142616.613956,"array('h', [26.97016943576676, 17.9668300918858, 7.248712020818358, 4.546627954668902, 3.642847434023434, 7.9602037250334226, 12.046283538986687, 25.006518692323255])",False
14064033484.944187,"array('h', [30.170164657113244, 17.356520313389, 6.620640678288861, 3.821691143058797, 3.3472846434507724, 8.88926258886743, 14.099880526499414, 26.664606408102298])",False
14083924353.274418,"array('h', [31.78055858395629, 16.767084745115895, 6.527920318460437, 4.065432453496955, 3.7175014923424814, 10.123561459763291, 15.301501239996101, 25.96511824508681])",False
14103815221.604649,"array('h', [33.136459623139466, 16.88885306082737, 6.479514815159481, 3.7507049837986632, 3.739595892404858, 11.000754246191148, 15.563787375890623, 26.697267589313633])",False
14123706089.934883,"array('h', [33.69302008362076, 16.583255838549082, 6.790867361308192, 4.077377241931052, 4.174794460371312, 11.378031404438131, 16.680090698814002, 27.540932441516])",False
14143596958.265121,"array('h', [32.7136109921502, 16.90771180930605, 6.709784323294506, 3.825674630632439, 3.881329257063171, 11.623109773687307, 17.120720488968345, 27.57334916421044])",False
14163487826.595348,"array('h', [31.3478935167806, 16.3294464541081, 6.391736103655332, 4.002560767750477, 4.25766672731095, 11.922684393570679, 17.281244755886817, 26.215537534480884])",False
14183378694.925583,"array('h', [31.48912461734567, 15.469525267508129, 5.985721714136696, 3.670805482280213, 4.177659249502933, 12.231225741116655, 18.57810920283072, 27.56378599682295])",False
14203269563.255814,"array('h', [32.35864746040442, 15.897324759237756, 6.046694357633179, 3.8555237374224136, 4.466080354651973, 13.453578403039652, 19.77094247494841, 27.85924910790702])",False
14223160431.586048,"array('h', [32.95593570641736, 15.012061076971557, 5.290517093194885, 3.629337953797174, 4.257611032834487, 13.966556898820308, 19.33579872159826, 27.302024496165888])",False
14243051299.916279,"array('h', [32.660169342049635, 15.011544776452366, 5.213855144698226, 3.81993941216166, 4.442004031398787, 14.500097495707436, 19.768090244646277, 28.22212391095821])",False
14262942168.246517,"array('h', [32.861222499933156, 14.998673509741984, 5.390494075227384, 4.226303508150575, 4.627249028133786, 14.671507857174438, 20.03235201511416, 28.631347284603237])",False
14282833036.576744,"array('h', [31.55381062157294, 14.34988789728751, 5.521160015187215, 4.731336593776704, 5.0008560805717055, 13.921280312840649, 18.84764605572499, 27.92372808303231])",False
14302723904.906971,"array('h', [28.17994765145934, 14.698667415514949, 5.163751880913958, 4.300710829405447, 4.4710305720547305, 13.693673713475714, 18.261035540726006, 25.00087190746821])",False
14322614773.23721,"array('h', [26.59041899132441, 15.400795344070792, 5.6584857511070386, 4.485591899081595, 4.4038244282902745, 12.854953101252919, 16.16282201419463, 24.428400177410236])",False
14342505641.56744,"array('h', [26.732520867696607, 15.318080773095058, 5.705751376339164, 4.647440911719043, 4.330666540582753, 12.00650611456929, 15.80738736695329, 25.102684980276415])",False
14362396509.897675,"array('h', [25.434355058545403, 15.348400098145039, 6.226562161746467, 4.954821063436071, 4.245457148029283, 10.966402986211879, 15.416167738790307, 24.102257244270536])",False
14382287378.227905,"array('h', [25.09662238905777, 14.590842542718137, 5.953351163150799, 4.584772854909989, 4.148358378957502, 10.827888969156337, 14.216788801292736, 23.808099580963884])",False
14402178246.55814,"array('h', [26.29183707907086, 14.101019378838123, 6.211125175618743, 4.927265477776063, 4.603797487578306, 10.79944782838704, 14.759556788445783, 24.395141291201725])",False
14422069114.88837,"array('h', [26.706214584533434, 13.607236532385024, 5.897405483745335, 4.805195514271983, 4.59799291737967, 11.744327000773854, 15.988987831009817, 25.368295869385165])",False
14441959983.218605,"array('h', [26.3931010640825, 13.171543673946156, 6.175744863974907, 5.244805607256554, 5.361027954195302, 12.285047258508019, 14.38192362520274, 24.351442650278038])",False
14461850851.54884,"array('h', [24.98966034663938, 11.669887747468799, 6.130694188432668, 5.382814915811262, 5.852866182341124, 13.449311293912167, 14.948787593531856, 24.523213548347893])",False
14481741719.87907,"array('h', [25.521851803871993, 11.62433787793401, 6.876476890965291, 6.451024767573407, 7.238860594078009, 15.112351317942673, 16.22319311661648, 26.06678346114321])",False
14501632588.209301,"array('h', [25.847769828490872, 11.368731174121407, 6.511716961948256, 6.609468031376027, 7.859053951258839, 14.395716890935821, 15.023334957474779, 24.966522236416157])",False
14521523456.539536,"array('h', [25.726325251094057, 11.776482846960512, 6.689966732295572, 6.41377555771657, 8.66478840481025, 15.100417865127882, 14.966568649358027, 25.945993526013414])",False
14541414324.869766,"array('h', [27.710363759965222, 13.277658402072014, 6.992436873314812, 6.856304802843257, 9.503342248408748, 15.382156322809493, 15.527982873984078, 26.307392221244474])",False
14561305193.2,"array('h', [28.98431537248516, 13.056337782014799, 7.625814928017771, 7.902714369299664, 10.537093506554392, 15.952679527988453, 16.48681759427331, 28.100281716424174])",False
14581196061.530231,"array('h', [26.215709576653115, 12.819951780588235, 7.161374013612036, 8.256851379235496, 11.26506467625979, 15.983041213362233, 16.089660152811014, 26.913819977526707])",False
14601086929.860462,"array('h', [25.882878883336748, 14.26697774115103, 9.556598819008885, 8.776329565526426, 11.644301567445037, 16.50100957511425, 15.911717442730913, 27.1050126989098])",False
14620977798.190697,"array('h', [25.66502772369629, 15.323672580263114, 11.405490366243805, 9.601038406025367, 12.312728056468185, 17.130761988775262, 15.413873620070047, 26.736317520829534])",False
14640868666.520931,"array('h', [24.541984724934593, 18.821192567846825, 14.938584914351559, 11.301630855944477, 13.111982226218414, 16.906513734154508, 15.103462889807304, 25.641883401429936])",False
14660759534.851158,"array('h', [24.152452235195426, 20.825654793823986, 16.381330931857825, 12.3466921028087, 13.955347893925225, 15.849937575395359, 13.234043493208551, 25.58764822842103])",False
14680650403.1814,"array('h', [23.06382263609082, 23.35596004817389, 18.26389651914636, 12.656477971866277, 14.66635587402348, 14.210143134946586, 11.916025799475449, 24.079809782106487])",False
14700541271.511627,"array('h', [23.88702090259218, 27.727074152896115, 21.583383711277786, 12.597727412271798, 15.052357250735108, 13.414119796682492, 11.879940557294203, 23.682103404068535])",False
14720432139.841862,"array('h', [24.520765084717283, 32.52915345663498, 24.823489411853313, 12.739167444759666, 15.452823922022871, 12.009971120920039, 10.444135522213104, 22.575974334517195])",False
14740323008.172089,"array('h', [24.820539285704303, 36.18451435995846, 29.15379456451616, 12.983422009192457, 14.902174281000573, 11.777120825683873, 10.707359842003427, 21.096137409069495])",False
14760213876.502327,"array('h', [25.862873233684947, 40.06210051598504, 33.40270584663144, 13.450469247585739, 15.341233129969728, 12.217396195357836, 10.87325291697509, 21.085584268116513])",False
14780104744.832561,"array('h', [26.096256832302924, 43.132568693826265, 37.480914677549336, 13.455544802205452, 15.646255430343217, 12.438723051919233, 10.925825540175156, 21.813711249200328])",False
14799995613.162792,"array('h', [25.28129576664299, 46.353402321367355, 42.62623395730976, 14.641325672607065, 15.625992873127448, 13.141325085787631, 10.705864814253026, 20.72934383240192])",False
14819886481.493023,"array('h', [25.066928065214324, 50.88733500436038, 47.345998605277536, 15.420518228214629, 15.515346380216846, 12.54912812914236, 9.762166535307728, 20.066640965137747])",False
14839777349.823257,"array('h', [26.351101133749818, 54.20885937735225, 51.951316542646445, 16.674991803976855, 17.951313668370872, 14.49303280091304, 10.53334221125611, 20.962893127816233])",False
14859668218.153488,"array('h', [25.93505295816363, 57.88135370809504, 53.825969402186516, 17.05322131947066, 19.414814253123176, 15.590945491857491, 10.109099952533818, 19.40257186282542])",False
14879559086.483719,"array('h', [27.27914700548705, 61.04939896894974, 58.18490736184965, 19.394164896599072, 20.053787782084953, 16.497228447763543, 10.401102624346512, 21.06151313761115])",False
14899449954.813957,"array('h', [27.919771568632573, 65.53712440885849, 62.83017454055345, 21.425567101277096, 21.062138557672984, 18.007486632340708, 10.45622955190775, 20.66486980061417])",False
14919340823.144188,"array('h', [30.199399894992872, 67.62627223595953, 66.86608752254104, 22.249217592320264, 20.923030778845032, 18.10594204060794, 11.737238830935695, 22.607160185231216])",False
14939231691.474419,"array('h', [31.72331028617725, 66.06818833120361, 65.92387985969572, 22.818053557034183, 21.069242523342872, 19.3676986673807, 12.451940354860296, 23.81182509946397])",False
14959122559.80465,"array('h', [31.79531146251375, 66.21081262093357, 65.70153830362287, 24.281592124661962, 20.96183036490017, 19.288957313784984, 12.657309185670808, 23.690266426198566])",False
14979013428.134884,"array('h', [33.82613096517354, 65.61413395326795, 66.40550859705068, 26.108624591346278, 21.611245010478832, 19.787839549419672, 12.484824518380009, 24.01276482789899])",False
14998904296.465115,"array('h', [33.36824128973642, 64.91433489631135, 65.52699401257847, 27.040062141762256, 22.62547641559385, 19.897580293555876, 12.721139793311647, 24.189546671291442])",False
15018795164.79535,"array('h', [34.05851671445471, 66.71803851298598, 66.39332771294025, 28.689744043566186, 22.66693823281626, 19.54611193963766, 12.59469203406945, 23.816664832612627])",False
15038686033.12558,"array('h', [33.532173166972264, 68.69838939265608, 67.79841990889823, 29.962099057538627, 22.87207873704309, 19.000958607624277, 11.510526406065113, 23.19414555672579])",False
15058576901.45581,"array('h', [34.38398645062484, 67.57861141234245, 65.6086091407389, 29.800704367762762, 24.664208187722362, 19.90911106111078, 12.811689231181548, 25.584910595525365])",False
15078467769.786045,"array('h', [35.75250513597988, 69.812570776534, 67.77992330339569, 30.56037411283224, 25.074899837620173, 22.524468918445688, 14.624385839312685, 26.299752901988715])",False
15098358638.11628,"array('h', [35.39288579124305, 71.40698696627234, 68.00794721582876, 30.81712786146692, 22.36004950823004, 20.815320948960178, 14.791338207509806, 26.921331796024305])",False
15118249506.44651,"array('h', [37.53004472099039, 70.80819823442233, 65.10563520272294, 29.63308422504065, 21.580488333651203, 20.959454381818823, 15.428206774656196, 27.928801118174484])",False
15138140374.776745,"array('h', [38.220651131242676, 68.90242952734927, 62.49485059628695, 28.17290011719102, 19.819434440402613, 20.28103176568652, 15.978699715773441, 28.519285339160685])",False
15158031243.106976,"array('h', [37.07470380418023, 66.34522696483148, 59.81917879108356, 26.65950026125068, 18.51323470797592, 20.3229084144519, 15.953037030517358, 27.71377205840667])",False
15177922111.43721,"array('h', [35.45018286872035, 68.74080679651838, 58.83085821012989, 26.121185277918475, 18.299203386440027, 20.053271970028934, 14.782126057489421, 25.44709162460845])",False
15197812979.76744,"array('h', [33.625072851261635, 67.45770870959787, 57.92774899133622, 25.482778876385456, 17.438070119481537, 19.246308388023078, 14.29725485578619, 25.59191402193279])",False
15217703848.097675,"array('h', [32.34632649187054, 65.52003331085547, 55.80787355081218, 24.465998807107955, 17.670844979938202, 19.289541328731705, 13.961059684009793, 25.305548652264314])",False
15237594716.427902,"array('h', [31.591317542341283, 66.16701227587852, 55.91957967030179, 24.901625631810035, 17.639481251288046, 18.432164336720717, 13.58587102407433, 25.259953706123433])",False
15257485584.75814,"array('h', [31.0031278359271, 67.51423262873723, 57.467779761030194, 24.941577575499604, 18.668223396679632, 19.9332978096599, 13.315756913243538, 24.573264143034574])",False
15277376453.088371,"array('h', [30.039984875744736, 65.08809935786243, 53.64136532093478, 23.620262131577313, 18.402506563499397, 19.693143491016595, 14.133136170143382, 24.850449921963225])",False
15297267321.41861,"array('h', [29.174880410031925, 63.02310719019064, 50.59969622635219, 22.031747124349366, 17.561104680855475, 19.61334228181391, 14.251447536343711, 24.150944359988948])",False
15317158189.74884,"array('h', [27.338253501691746, 63.07594052951357, 51.53659301452663, 21.72633491139824, 16.157016437734104, 18.23623229761517, 12.904923679214734, 23.114969722783144])",False
15337049058.079071,"array('h', [28.1270700060505, 58.18120152011305, 45.58711227388985, 19.21848840646879, 15.661529803344836, 16.73133103665744, 11.595810345542, 23.77396124030531])",False
15356939926.409302,"array('h', [27.296782385991573, 55.20504942493406, 44.783265675676766, 19.74281241667478, 17.21539208041864, 16.94309585556597, 11.193395415698118, 22.407368770965423])",False
15376830794.739536,"array('h', [25.022095813651507, 55.49562417028255, 46.08033222925944, 21.004876565057007, 18.293619662953436, 16.616159317176376, 10.568468464080475, 20.68505487481755])",False
15396721663.069767,"array('h', [24.8116214183203, 54.17165447878869, 42.37943840654516, 19.811662869525467, 20.043006729466235, 16.387985165492783, 10.753455349146877, 21.013408165550203])",False
15416612531.400002,"array('h', [24.720829401724778, 54.28300485100601, 42.61742845366771, 20.93406861766494, 20.504719437513362, 16.05006869008782, 10.300649815062119, 21.87222264872567])",False
15436503399.730232,"array('h', [24.49461833550178, 54.370791691012684, 42.75310485510514, 21.075204957651476, 20.940025020162935, 15.83815646942476, 10.318756145800815, 21.501976680828562])",False
15456394268.060467,"array('h', [26.081725007146623, 58.745758529668464, 48.56259030421773, 23.39185780619712, 21.62106237973662, 16.066492104763228, 10.666506461500747, 22.050943286370853])",False
15476285136.390697,"array('h', [26.702582034773155, 62.810872672646326, 53.53088395457977, 23.736129415614425, 21.218253054330837, 15.700371950304664, 11.107841609156548, 22.454848944672555])",False
15496176004.720928,"array('h', [26.654606214802634, 62.1696392044814, 52.01500086269872, 22.66058102885615, 20.445584745511063, 15.357638133304881, 11.609053398586697, 23.786928531397525])",False
15516066873.051163,"array('h', [25.99566405791781, 61.275224539318785, 51.34412234380865, 22.712571493860978, 19.8023297088874, 14.377536920499567, 10.98727414477528, 23.694085478237362])",False
15535957741.381397,"array('h', [28.131622681134917, 63.86141435080817, 55.54240773277076, 24.530352922941667, 20.752781009309356, 14.1267050815082, 11.156245470052495, 24.418913892262548])",False
15555848609.711628,"array('h', [28.776273186254297, 62.53783521852229, 54.35520467014723, 23.63129206284534, 19.79669682228201, 13.336050811446553, 10.611387647724639, 24.17839154828063])",False
15575739478.041859,"array('h', [28.973870189485528, 59.582422176579655, 50.78431671087422, 22.963740338134272, 19.987558729449738, 12.317451278387786, 10.356986858099424, 22.600545606139818])",False
15595630346.372093,"array('h', [26.900174859567965, 59.38883115450482, 50.77853675837988, 23.005422035501272, 19.170376993119312, 12.615770129236456, 9.639252923696597, 21.185237412965186])",False
15615521214.702324,"array('h', [26.486529412867377, 60.28671104268475, 49.451971051800626, 21.327693690641496, 18.74777125688986, 11.929013457833038, 9.739180251471609, 23.031779030932633])",False
15635412083.032558,"array('h', [26.48320969253569, 57.64017339643611, 47.61090436243358, 19.71563107259448, 18.292447606580737, 10.804051223543402, 9.871043579204906, 22.691555242050722])",False
15655302951.36279,"array('h', [26.30220292025181, 56.84606594343962, 48.20653936388445, 19.44083942305492, 17.627351327375955, 10.772584939477696, 9.956818756809268, 22.16779459830063])",False
15675193819.693024,"array('h', [26.407129501294545, 54.132719929713105, 48.06842073613658, 20.188775894172313, 18.940228349975186, 12.593207013483442, 10.473726823416373, 21.45888911079662])",False
15695084688.02325,"array('h', [26.382218351721207, 55.768708430538545, 50.05119598358861, 20.875744386581655, 18.497587793471332, 12.672384353508436, 10.339187129009904, 22.122940549585977])",False
15714975556.353489,"array('h', [24.55731261234013, 51.742438353808446, 44.26176838111751, 18.856427941871857, 17.831045497617456, 12.605345743054915, 10.073855972506859, 21.638947320945483])",False
15734866424.68372,"array('h', [22.452392383228702, 46.00070303571619, 37.93318085071896, 17.76824827629617, 17.94929360566902, 13.322893675498944, 9.772196031174499, 20.626676504904744])",False
15754757293.013954,"array('h', [22.879886814237782, 48.41349390442182, 38.5997122561416, 17.70010403705191, 17.040033258219935, 12.814925293123483, 10.102854975663655, 20.85620433221684])",False
15774648161.344185,"array('h', [22.32427726679723, 48.16905424700442, 38.27602038140649, 16.461278218964452, 15.932356465586206, 14.047989725402402, 9.985930820487196, 20.71107255281607])",False
15794539029.67442,"array('h', [20.955728325456878, 46.3276179443644, 36.12679015890808, 15.426722138049628, 15.6605618674397, 15.108591357945853, 9.718975133147856, 20.002139591179535])",False
15814429898.00465,"array('h', [20.75892685826953, 50.592410078475346, 40.27146043439337, 17.281904441069376, 15.710828389421483, 15.69083494875687, 9.77918930052464, 19.760900954931557])",False
15834320766.334885,"array('h', [21.26361063461971, 57.96375801719334, 46.41282321128172, 19.17299991395261, 15.341746882239839, 16.022677429561195, 9.834989407619918, 19.68582144938313])",False
15854211634.665115,"array('h', [23.79274104504983, 59.61084768035261, 47.98516833638065, 20.737256571948382, 15.856179096871564, 16.12003353151125, 10.124875391183084, 19.183273053058397])",False
15874102502.99535,"array('h', [23.42727239587457, 58.217577552229784, 46.95886937451764, 21.011882977442603, 14.97437447973935, 17.18154265882854, 9.835821571111222, 17.647728896933224])",False
15893993371.32558,"array('h', [22.54787080592754, 59.321193956205, 46.85139200387593, 20.903399625350954, 14.199127426383264, 18.651365689735048, 9.368809322334895, 17.77074032618544])",False
15913884239.655811,"array('h', [21.959554663949863, 59.24779117692051, 45.44580153800322, 19.443390606699147, 13.255781236512975, 17.77278860311625, 8.998355708049722, 18.797177080699534])",False
15933775107.98605,"array('h', [22.451207635514816, 61.223223567610894, 45.93999830251131, 19.730145975498484, 12.597682996189594, 16.451855996161576, 8.538591322228214, 19.090022601106924])",False
15953665976.31628,"array('h', [22.959299734289946, 58.066928766339366, 42.52760865345566, 18.611679139866798, 12.701665442369272, 16.446803279503303, 8.330233214027313, 19.257842698059818])",False
15973556844.646511,"array('h', [23.63890476673125, 60.82243808871731, 45.95894585172061, 18.94458748665284, 12.461168885847055, 16.17938133675147, 8.42476289139798, 19.24537595745878])",False
15993447712.976746,"array('h', [24.50018303549002, 63.44081544514576, 49.83925825235037, 18.94496478388789, 12.103106650922635, 16.517139082734612, 8.052335764161835, 19.801726432173407])",False
16013338581.306976,"array('h', [25.363362501546753, 61.744496379586714, 48.75869763515818, 18.48178276583618, 11.831385268933401, 16.55623149019586, 7.943082583751907, 19.675732900809543])",False
16033229449.637207,"array('h', [25.510043147959856, 60.634484630225096, 46.721090543167534, 18.746970132435685, 11.321916068769228, 15.238674264542741, 7.918702000182417, 19.521792686454194])",False
16053120317.967442,"array('h', [24.505762161746496, 60.746111846323934, 45.94780775003438, 18.792289625821294, 10.801928120211409, 14.431380715360197, 7.720652106852786, 19.268298746640653])",False
16073011186.29768,"array('h', [25.100742406156005, 54.772846799567255, 41.23997443155296, 17.04400436660547, 11.038903118436023, 15.51482517389765, 7.514266890821164, 19.630018683246217])",False
16092902054.627907,"array('h', [23.944814614309323, 49.89522338092824, 37.5175963897496, 15.337926829280194, 11.023447962521919, 15.567378227427495, 7.321424418485858, 20.470293257569104])",False
16112792922.958138,"array('h', [23.227310948160508, 48.29353147436237, 37.865688424935705, 14.715756099097822, 10.56389008436239, 15.666781752876387, 7.187062647504279, 20.98261646587022])",False
16132683791.288368,"array('h', [24.341908531990757, 50.46171719686712, 41.30002597891805, 15.439486306927867, 10.833761026795546, 14.50934997260734, 7.072653832221361, 20.87305420391718])",False
16152574659.618607,"array('h', [25.881626061541372, 49.34799779354542, 42.07485552857688, 15.361400309615723, 11.21061713693438, 15.079329960920843, 7.283698293951542, 19.855089634802706])",False
16172465527.948841,"array('h', [26.38042037362997, 46.28963369087154, 40.205045352059386, 14.805999958148469, 11.333852976500207, 15.907229593153806, 7.644835802202385, 19.613637185049342])",False
16192356396.279068,"array('h', [24.97697429339029, 44.221162248089875, 38.72957680778842, 13.318352195657372, 10.783755029230909, 15.474398283147393, 7.95947477974354, 18.03734758417028])",False
16212247264.609303,"array('h', [24.90417781575129, 43.47393397690932, 38.38318992122362, 13.483705368818732, 10.893755327261063, 16.03005731144531, 8.09051915908963, 17.312843350541495])",False
16232138132.939533,"array('h', [24.398355106632962, 39.59834833661148, 33.79392637644899, 12.077911771048342, 10.445670304986411, 17.305874450723373, 8.808675567295527, 17.41330245324545])",False
16252029001.269768,"array('h', [23.670774775609214, 36.11036201763999, 29.80525739741341, 11.31217812499607, 10.357416717344213, 17.62561434156516, 9.652001828774733, 16.319980544071765])",False
16271919869.599998,"array('h', [22.838635674177752, 33.19585876312247, 27.663717298805867, 11.05297936083063, 10.924861329181399, 17.610950606623508, 12.591748825728228, 16.63863189414566])",False
16291810737.930237,"array('h', [23.29726020307379, 31.158575844039632, 26.627795870279357, 11.326727400699342, 12.131353457177331, 18.97618193476468, 14.289281704874373, 15.776824761204859])",False
16311701606.260464,"array('h', [26.281507468879827, 29.511762935729916, 24.83851521488142, 11.174655424796573, 12.763687280594608, 18.319409462224492, 15.428568834995973, 16.89709358372992])",False
16331592474.590698,"array('h', [28.084924593891166, 28.370253199907804, 23.55682132520574, 11.264189580973683, 12.224864159624762, 17.229802688918454, 16.673898539361584, 16.83501049826263])",False
16351483342.920929,"array('h', [29.098545000112015, 27.537815999047343, 22.369605763670272, 11.207708478300116, 11.654760043481387, 16.497011101654298, 18.464431677408278, 16.603948657665125])",False
16371374211.251163,"array('h', [28.553748544365618, 25.252700218054255, 18.91401167292749, 10.249109626345902, 10.962560696158437, 16.808374159885712, 20.35405300026508, 16.26023400440046])",False
16391265079.581394,"array('h', [27.6230694995429, 21.749361525815832, 14.887708814943347, 9.461195166321238, 10.879530751633311, 16.98656404412377, 20.853236274928467, 16.752922167087814])",False
16411155947.911629,"array('h', [27.77303421091453, 21.04455379085723, 13.993661686115908, 9.663230380165967, 10.1366239891515, 14.838824230489791, 21.47661798742063, 17.610702054908202])",False
16431046816.24186,"array('h', [28.258303918625575, 19.42005756824075, 12.8395833675889, 9.013883014235923, 9.34318039641534, 14.344305784251853, 21.462209686910523, 19.15946205717359])",False
16450937684.57209,"array('h', [31.717003005162102, 19.83613749444119, 11.763254217026033, 8.877242212925944, 8.966686816764287, 14.024969514746868, 22.705268484455306, 20.868167134065313])",False
16470828552.902325,"array('h', [32.646730530515974, 18.945821364112174, 10.7990589083478, 8.497064481056091, 8.337699677740128, 12.357267521226532, 23.689074051771716, 22.645202138089573])",False
16490719421.23256,"array('h', [33.78812472643782, 19.171517801309864, 10.906815757194357, 8.786874585192704, 8.290446746278342, 10.332788793484278, 23.733305860835006, 23.831689283773944])",False
16510610289.56279,"array('h', [34.11527630590435, 18.20192738947001, 10.355068723132508, 8.643814080551465, 7.978072525894653, 9.583954340579036, 22.00929868085033, 24.14679285179124])",False
16530501157.893024,"array('h', [32.7936792756325, 17.1741865303521, 9.632805988326078, 7.943272448745636, 6.875889561250056, 8.396353773083009, 18.547777829027094, 23.28967511496503])",False
16550392026.223251,"array('h', [31.704979034733608, 16.03098756134621, 9.258519270100253, 7.066395564425651, 5.544529383774632, 7.2923606388987325, 17.447053977327496, 23.022715831668542])",False
16570282894.55349,"array('h', [28.217221065010612, 17.152149148860463, 10.27976414283589, 7.529230451314479, 5.145631433657746, 6.783690987127007, 15.931482891345208, 21.59379350056218])",False
16590173762.88372,"array('h', [24.949059059403528, 17.985777383888497, 10.888602481259982, 7.033114116286632, 4.710926480342972, 6.1308363358320435, 14.688928043330835, 21.07462575639439])",False
16610064631.213955,"array('h', [23.436545480176566, 19.050514984896495, 12.392445664916137, 7.562322569792355, 4.967784410052785, 5.421449640599318, 12.547425079870196, 20.41926917969004])",False
16629955499.544186,"array('h', [23.025972734525656, 20.914478854331843, 14.53932917084897, 7.728577155854892, 4.774638291911609, 4.364185294364472, 11.377515314322167, 20.139197219029796])",False
16649846367.87442,"array('h', [21.26824906461161, 22.638744175106524, 16.377559249391727, 8.502835052633845, 4.923791141753968, 4.280392697842287, 10.5769201112931, 18.98048708210868])",False
16669737236.20465,"array('h', [19.752763649035824, 26.40069020099407, 19.325655821632438, 9.253980542452348, 5.014300185180915, 4.395279378784264, 9.979891391487438, 16.918103649594727])",False
16689628104.534882,"array('h', [17.53026578080659, 28.494863384839814, 23.052020795007124, 10.34700226666588, 5.039295340768299, 4.503600859682573, 9.319114511287122, 15.067651875178687])",False
16709518972.86512,"array('h', [13.049005028820119, 26.60662776991162, 23.32005598281537, 10.374972565371309, 5.086319804647431, 4.404158767323917, 7.378357722718081, 12.55009734777031])",False
16729409841.19535,"array('h', [11.314189781030198, 28.19971858964135, 25.374256659355364, 10.990014006092027, 5.039627962867084, 4.171467457497942, 6.038001695384681, 9.761743784238794])",False
16749300709.525581,"array('h', [9.049093922203644, 28.764930793557095, 26.665795351173273, 11.153493556292082, 4.936048800788314, 3.9480046061905565, 5.240302971222029, 7.90934103969421])",False
16769191577.855808,"array('h', [8.539762425520104, 29.645218931948573, 28.2420174088856, 11.74714555162322, 5.125205990852181, 4.117586425855956, 5.045983536098328, 6.825000123930437])",False
16789082446.186047,"array('h', [8.277461999679101, 29.94678051939813, 28.588553624218484, 11.746080378582212, 5.065370814244717, 4.109570643673376, 5.181689926268873, 6.83386334771465])",False
16808973314.516281,"array('h', [7.341000521856302, 29.835205565888497, 28.731750046626274, 11.72108419277561, 5.1655078759486095, 4.196970647897455, 4.9634958512212615, 6.237526141208885])",False
16828864182.846512,"array('h', [6.783049091201644, 29.284485779579533, 29.449028237897235, 11.86618311962174, 5.388695952489917, 4.259156992652567, 5.189502993438972, 5.720543252185605])",False
16848755051.176743,"array('h', [7.273298815314189, 28.174969001351002, 28.557558074507654, 12.390369771408876, 5.694519310618916, 4.454257300720375, 5.20668898243625, 5.621493555120105])",False
16868645919.506977,"array('h', [7.788280939178689, 28.122571523600545, 28.50765631693589, 12.754659781968579, 5.783764069784554, 4.337107699464711, 5.021149319593688, 5.611546753107918])",False
16888536787.837208,"array('h', [8.002983459973919, 27.240582647710937, 27.433418618327536, 13.30188515855381, 6.024437312501223, 4.337975541888845, 4.923632783384538, 5.446579280521844])",False
16908427656.167439,"array('h', [7.782007433861782, 24.711905400227007, 25.371510936324608, 12.498298447436758, 5.495505222604454, 3.9587134669638537, 4.6863083681013435, 5.278603722950204])",False
16928318524.497677,"array('h', [7.797809466172625, 21.93112993108151, 21.75233445549976, 11.589488866571282, 5.384586757574342, 3.695125696449983, 4.20075119726981, 4.911633532272268])",False
16948209392.827908,"array('h', [7.7427319442012426, 20.18472229847687, 18.882794502550983, 10.649574313164873, 5.24455917531876, 3.5400675608494905, 4.2093598291237875, 4.945893490976848])",False
16968100261.158138,"array('h', [7.746714849798775, 19.755092794591718, 18.355072342722252, 10.814507139910202, 5.247152518722427, 3.3182017565572055, 3.902586116397906, 4.943730114087427])",False
16987991129.488373,"array('h', [7.5408583061616925, 17.532193503429745, 16.33104561985391, 10.226929290259116, 4.9583159539525345, 3.1485341953742476, 3.5197249987275487, 4.6314637133044805])",False
17007881997.818604,"array('h', [7.139834376550382, 16.144371369460046, 15.126702032071307, 10.125030563520374, 4.892550574688766, 3.0322585549886534, 3.332012055688134, 4.338209944640978])",False
17027772866.148842,"array('h', [6.879933421106119, 14.832310990246503, 13.60334387311016, 9.219397800882177, 4.390058395561181, 2.6822295920004118, 3.099481769208167, 4.101477639343491])",False
17047663734.479069,"array('h', [6.765053374450935, 15.010336749452097, 14.24366007075275, 9.35404903159847, 4.502859564299259, 2.5937644503308346, 2.8555488809770306, 3.90306148278651])",False
17067554602.809303,"array('h', [6.495515250131956, 13.712373595084532, 12.543080826547412, 8.831335310523999, 4.233731554051628, 2.401542567176885, 2.754497977746128, 3.8062890758262267])",False
17087445471.13953,"array('h', [5.941374064922177, 12.267295191938658, 11.278930184818071, 8.61428187837333, 4.082948713911056, 2.217254330403481, 2.3270787085105704, 3.263579737553899])",False
17107336339.469769,"array('h', [4.954867961099475, 10.475011408360029, 9.889875363117254, 7.2712447937473925, 3.5106628429843645, 1.9848096553931067, 2.2185502629409273, 2.9765051707982426])",False
17127227207.8,"array('h', [3.9425413021437574, 8.158239854790931, 7.618413347353031, 6.028926840510973, 3.1841527373123544, 1.880467956066847, 2.114757148508986, 2.8186853914379726])",False
17147118076.130238,"array('h', [3.3585836203019612, 7.18463070820596, 6.611475450565221, 5.008778705179048, 2.922234450138334, 1.6785361081859371, 1.7751336601686067, 2.530705974529047])",False
17167008944.460464,"array('h', [3.116971402879826, 6.504544381268773, 5.986587950933744, 4.87505694798015, 3.0059051729865187, 1.7041121678114053, 1.6632226282671745, 2.2918944593634114])",False
17186899812.7907,"array('h', [2.5390723984923604, 5.3497802391150655, 5.261734949680615, 4.48484147709391, 2.8834717518173467, 1.5941451763922752, 1.5634876380389453, 2.167390469368862])",False
17206790681.12093,"array('h', [2.406842589788972, 4.88399987069645, 5.2601903676412345, 4.679210379645647, 2.994099747564626, 1.6849038150677254, 1.488739927318809, 1.9416384554600226])",False
17226681549.451164,"array('h', [2.0030775293692926, 3.8653096402347162, 4.26630743069772, 4.096551957554065, 2.852432837468843, 1.62466778748375, 1.4688133466744462, 1.9023607425056206])",False
17246572417.781395,"array('h', [1.8467410207164634, 3.728885486865743, 4.13528511903811, 4.008781250202856, 3.046937504830681, 1.624281399002367, 1.4421522754673994, 1.8318034469849271])",False
17266463286.111626,"array('h', [2.0170446033406217, 3.741988745141689, 4.191414816867473, 3.678514045234783, 3.3542044236534303, 1.8692366546353978, 1.510297279641698, 1.9370101875048162])",False
17286354154.44186,"array('h', [2.0699497537820983, 3.7637763685026626, 4.016017067805346, 4.043272182318167, 3.9986794430849613, 2.34100528332251, 1.5958661264649974, 1.9538033292972292])",False
17306245022.77209,"array('h', [2.021703178747876, 3.400069915488737, 3.373010190815935, 3.388935896254342, 3.598075739226859, 2.3350470695158325, 1.6031196409659438, 1.9366478627706298])",False
17326135891.102325,"array('h', [1.9146662590929058, 3.3887100141847504, 3.147430124417309, 3.3035323516351904, 3.776720691610071, 2.509776066096358, 1.6449595761208633, 1.981332621427666])",False
17346026759.43256,"array('h', [1.8059576353642741, 3.2187217279775533, 2.731746939528709, 2.791431890473772, 3.592974017952545, 2.379167465463453, 1.596931903539946, 1.905753746037141])",False
17365917627.76279,"array('h', [1.8559397571571574, 3.370691847752198, 2.96557004775565, 3.1364843852905726, 3.9365448016335027, 2.4698147587343624, 1.438712022081878, 1.756579535356894])",False
17385808496.09302,"array('h', [1.6879059669850884, 3.059305054653335, 2.8282447048263912, 2.6018570284026272, 3.5665047494151785, 2.4138215257582543, 1.4038734956816756, 1.724268976009757])",False
17405699364.423256,"array('h', [1.6558435465242614, 3.0947475294380427, 3.073992670221567, 2.8887666773903256, 3.756834486150809, 2.518112673093543, 1.459693271843682, 1.7437265162858357])",False
17425590232.753487,"array('h', [1.5570517679979352, 2.7929111803518807, 2.888882974419566, 2.3464142822015384, 3.2883997457802083, 2.345967039610559, 1.3318632531448154, 1.7366633686113793])",False
17445481101.08372,"array('h', [1.5851312260008035, 2.907571278705146, 3.1128399750065534, 2.446584701641959, 3.3218564688913617, 2.3833762838529764, 1.3264957071164563, 1.7425673053300559])",False
17465371969.41395,"array('h', [1.5039604165462548, 2.8162188001253314, 2.8977884352787644, 1.9106905999202375, 3.025895432981249, 2.246474078460504, 1.195601384032719, 1.6548993133433965])",False
17485262837.744183,"array('h', [1.5907724833708599, 3.031735078709346, 3.05707374621988, 2.085032917103971, 3.1466624410612107, 2.3487455554100527, 1.220971260725105, 1.5866566469109833])",False
17505153706.074417,"array('h', [1.31795186025268, 2.583374094962925, 2.492471438885161, 1.580885312493051, 2.654074194444666, 2.1210558202519247, 1.0951049185045332, 1.4171912552458514])",False
17525044574.40465,"array('h', [1.1379323411568771, 2.4899017637391263, 2.472564444970079, 1.674627517723753, 2.2261613224163392, 1.7830210475808064, 1.0675256756882947, 1.3931238494104918])",False
17544935442.73488,"array('h', [1.0111523865440242, 2.277257544505913, 2.2481279889880317, 1.2663936655591734, 1.8641662685461373, 1.481093143039882, 0.9224036096939238, 1.3553660726323395])",False
17564826311.06512,"array('h', [1.1109035807971317, 2.425233726067834, 2.36260574613232, 1.745123899227964, 2.1872442210470653, 1.564890916807061, 0.9478860033086393, 1.3824088137507478])",False
17584717179.395348,"array('h', [1.2690796265251794, 2.4333028029084947, 2.3516496692625695, 1.212820248146254, 1.59457695889337, 1.3682869277893077, 0.9263829983656389, 1.5180548792372972])",False
17604608047.725582,"array('h', [1.3486989679082484, 2.650347234738461, 2.619384447960806, 1.759423611166212, 1.970542075228976, 1.5068950173820455, 1.0287826277032697, 1.596068606559729])",False
17624498916.055813,"array('h', [1.2281655465986514, 2.574570567143348, 2.4505222398382176, 1.4603094407793757, 1.572012238787329, 1.2898041321929876, 0.9779697038820717, 1.481544607897101])",False
17644389784.386047,"array('h', [1.3069893636955863, 2.627565821232033, 2.4796957811122367, 1.972531089485445, 1.8742169013255754, 1.322036421822292, 1.0093384935389678, 1.4706467276443487])",False
17664280652.71628,"array('h', [1.2775224547228015, 2.549268041548349, 2.3425689477971217, 1.5247003225437272, 1.4819472876152686, 1.1482806933311622, 0.9385941932222261, 1.454582149348899])",False
17684171521.046516,"array('h', [1.317638517431456, 2.7015776794487483, 2.5010624264644927, 2.0933973904089322, 1.919277347329823, 1.24069584278112, 1.063750198848215, 1.4835048147222731])",False
17704062389.376743,"array('h', [1.204540727987737, 2.51287161844329, 2.304363863634681, 1.501863334639219, 1.4245239763460833, 1.0363483540396483, 1.0173421427720606, 1.4503178588824215])",False
