time,.data
1969/12/31/18:00:07.703,(-1 -2 -2 -1 0 -1 0 -2)
1969/12/31/18:00:07.703,(-2 -1 -3 -3 1 -2 -2 -3)
1969/12/31/18:00:07.724,(-1 -3 0 -2 0 1 0 -1)
1969/12/31/18:00:07.724,(-2 1 -2 0 0 -2 -3 0)
1969/12/31/18:00:07.725,(-1 1 1 -11 -4 0 -2 -1)
1969/12/31/18:00:07.725,(-3 -5 -8 0 -4 -2 -1 -3)
1969/12/31/18:00:07.741,(2 4 7 2 2 0 -1 1)
1969/12/31/18:00:07.741,(-1 -3 -3 3 2 0 0 -2)
1969/12/31/18:00:07.741,(0 0 4 5 1 0 2 0)
1969/12/31/18:00:07.741,(0 -1 -2 -3 -3 -2 -3 -2)
1969/12/31/18:00:07.762,(-2 -6 -8 -11 -6 -4 -1 -1)
1969/12/31/18:00:07.762,(-1 -3 0 0 1 0 0 0)
1969/12/31/18:00:07.762,(0 1 -8 -5 1 2 -1 0)
1969/12/31/18:00:07.762,(-1 2 15 2 -1 1 0 -1)
1969/12/31/18:00:07.784,(0 3 4 8 1 0 -2 -2)
1969/12/31/18:00:07.784,(-3 0 9 7 1 0 -2 -1)
1969/12/31/18:00:07.792,(-2 -4 -10 -11 -5 -3 -1 -3)
1969/12/31/18:00:07.792,(0 -1 -2 11 5 1 1 1)
1969/12/31/18:00:07.799,(-2 -5 -6 -13 -2 -1 -2 -2)
1969/12/31/18:00:07.799,(2 1 1 2 -2 0 1 1)
1969/12/31/18:00:07.800,(-1 -1 4 -7 -1 0 -1 0)
1969/12/31/18:00:07.800,(-1 -3 -17 -8 -6 -2 -3 -2)
1969/12/31/18:00:07.821,(-1 1 15 12 3 -2 0 0)
1969/12/31/18:00:07.821,(0 1 -1 2 -1 1 -1 -1)
1969/12/31/18:00:07.829,(1 3 9 8 3 0 0 2)
1969/12/31/18:00:07.829,(-1 -6 -9 -6 -2 0 1 3)
1969/12/31/18:00:07.844,(-4 -1 -16 -16 -6 -3 -4 -5)
1969/12/31/18:00:07.844,(1 2 10 -1 -2 -2 -2 -1)
1969/12/31/18:00:07.845,(1 3 3 7 2 -2 -2 -2)
1969/12/31/18:00:07.845,(-1 -3 -3 -9 -1 0 0 1)
1969/12/31/18:00:07.859,(-4 -7 -23 -8 -3 -2 0 -1)
1969/12/31/18:00:07.859,(4 9 12 3 -1 -2 -3 -2)
1969/12/31/18:00:07.860,(1 3 10 6 1 -1 -3 -2)
1969/12/31/18:00:07.860,(0 13 21 15 7 -4 -6 -6)
1969/12/31/18:00:07.882,(-1 -5 -5 -4 0 2 2 1)
1969/12/31/18:00:07.882,(-6 -11 -27 -28 -9 -2 -1 -2)
1969/12/31/18:00:07.882,(-2 -1 2 15 1 -2 -1 -3)
1969/12/31/18:00:07.882,(-5 -8 -22 -10 0 4 5 3)
1969/12/31/18:00:07.904,(4 10 37 23 4 2 -1 2)
1969/12/31/18:00:07.904,(-2 -3 -2 2 -2 0 2 1)
1969/12/31/18:00:07.905,(0 -5 -5 -4 0 4 6 6)
1969/12/31/18:00:07.905,(0 -4 -4 -9 -5 -3 -3 -2)
1969/12/31/18:00:07.919,(-1 -6 -18 -7 -1 -1 -1 -2)
1969/12/31/18:00:07.919,(-2 -7 -6 -5 -2 -1 1 1)
1969/12/31/18:00:07.920,(-1 -2 1 3 0 0 -2 -2)
1969/12/31/18:00:07.920,(0 -2 -2 1 -2 0 0 -1)
1969/12/31/18:00:07.942,(-1 3 -4 -4 -3 -4 -4 -4)
1969/12/31/18:00:07.942,(-3 -9 -7 -8 0 3 6 7)
1969/12/31/18:00:07.942,(3 7 8 5 -4 -6 -9 -7)
1969/12/31/18:00:07.942,(2 4 3 0 -3 -1 -1 -1)
1969/12/31/18:00:07.964,(0 -2 5 5 2 0 0 1)
1969/12/31/18:00:07.964,(-1 -3 -4 -3 -1 -2 0 -3)
1969/12/31/18:00:07.965,(-1 -4 -5 -7 -2 0 1 -1)
1969/12/31/18:00:07.965,(-1 2 3 -2 -1 -1 -2 0)
1969/12/31/18:00:07.979,(1 -2 2 1 0 0 1 5)
1969/12/31/18:00:07.979,(-1 0 -5 -1 -1 -2 -4 -3)
1969/12/31/18:00:07.980,(-1 1 -5 -7 -2 -2 1 1)
1969/12/31/18:00:07.980,(0 -4 1 0 -3 -1 0 -1)
1969/12/31/18:00:08.002,(-2 0 0 -3 -1 0 -2 -3)
1969/12/31/18:00:08.002,(1 5 3 3 1 -2 -4 -4)
1969/12/31/18:00:08.002,(-1 -3 -7 -3 -2 -1 -2 -3)
1969/12/31/18:00:08.002,(1 -1 0 -3 -2 -4 -2 1)
1969/12/31/18:00:08.024,(1 2 -2 -2 -3 1 5 -2)
1969/12/31/18:00:08.024,(-1 -1 -2 0 -2 -2 -2 0)
1969/12/31/18:00:08.025,(-3 -4 -3 -2 0 2 0 -1)
1969/12/31/18:00:08.025,(-2 0 -2 1 0 -4 -6 -5)
1969/12/31/18:00:08.039,(0 -1 0 1 -2 0 2 1)
1969/12/31/18:00:08.039,(-2 -1 -2 1 -2 0 -2 -2)
1969/12/31/18:00:08.047,(-3 -5 -3 1 -1 -1 -2 -6)
1969/12/31/18:00:08.047,(0 -3 0 2 0 -1 -1 1)
1969/12/31/18:00:08.062,(-2 0 0 0 1 0 -3 -1)
1969/12/31/18:00:08.062,(0 -3 -2 1 -3 0 -1 1)
1969/12/31/18:00:08.062,(0 1 2 3 1 1 -1 2)
1969/12/31/18:00:08.062,(-2 -4 -1 -1 -2 -2 -1 -3)
1969/12/31/18:00:08.085,(2 7 6 6 6 -1 -12 -11)
1969/12/31/18:00:08.085,(-1 0 -3 -1 -2 -1 2 0)
1969/12/31/18:00:08.086,(0 0 -1 0 1 -3 -7 -3)
1969/12/31/18:00:08.086,(2 3 5 4 4 3 3 1)
1969/12/31/18:00:08.099,(-8 -7 -8 -6 -7 -5 -7 -10)
1969/12/31/18:00:08.099,(7 -6 -13 -10 -8 -5 3 12)
1969/12/31/18:00:08.107,(-7 0 0 1 1 -1 0 -6)
1969/12/31/18:00:08.107,(-1 5 4 0 0 0 2 1)
1969/12/31/18:00:08.122,(-2 -5 -1 -3 -2 -2 4 6)
1969/12/31/18:00:08.122,(-3 0 1 -2 -2 -4 -8 -11)
1969/12/31/18:00:08.123,(-1 -8 -11 -10 -8 0 8 10)
1969/12/31/18:00:08.123,(0 2 4 7 3 0 -3 -4)
1969/12/31/18:00:08.145,(-7 -6 -5 -5 -2 -2 4 3)
1969/12/31/18:00:08.145,(-1 -6 0 0 -1 0 -1 0)
1969/12/31/18:00:08.146,(0 7 7 5 6 1 -2 -12)
1969/12/31/18:00:08.146,(-1 -1 -2 -2 0 3 16 42)
1969/12/31/18:00:08.167,(1 -1 -1 -1 -5 -10 -18 -11)
1969/12/31/18:00:08.167,(3 5 6 1 1 -5 -21 -29)
1969/12/31/18:00:08.168,(-43 -14 -5 0 3 0 -1 -44)
1969/12/31/18:00:08.168,(42 9 -1 -3 1 3 0 29)
1969/12/31/18:00:08.182,(-14 -6 -4 -5 -3 2 10 15)
1969/12/31/18:00:08.182,(10 6 4 2 4 2 1 15)
1969/12/31/18:00:08.182,(-5 18 19 13 9 0 -20 -61)
1969/12/31/18:00:08.182,(32 -3 -12 -11 -7 3 22 61)
1969/12/31/18:00:08.212,(-15 8 11 10 7 -4 -22 -35)
1969/12/31/18:00:08.212,(23 1 2 5 3 1 6 29)
1969/12/31/18:00:08.213,(-14 -22 -13 -10 -10 -5 -5 -2)
1969/12/31/18:00:08.213,(-19 -11 -8 -6 -2 0 2 -16)
1969/12/31/18:00:08.218,(23 17 4 1 1 -5 -7 -11)
1969/12/31/18:00:08.218,(-15 -9 -10 -10 -7 3 14 -4)
1969/12/31/18:00:08.227,(33 12 5 3 5 19 -13 41)
1969/12/31/18:00:08.227,(2 -5 1 3 2 -10 -12 -13)
1969/12/31/18:00:08.242,(-39 -16 4 5 -5 -18 13 -29)
1969/12/31/18:00:08.242,(53 31 12 6 2 -19 -36 18)
1969/12/31/18:00:08.242,(-3 4 -7 -5 -2 8 12 10)
1969/12/31/18:00:08.242,(-37 -2 0 -4 -2 8 4 -38)
1969/12/31/18:00:08.265,(-7 -22 -7 -4 1 3 -1 25)
1969/12/31/18:00:08.265,(-1 -5 -7 -3 -1 6 21 17)
1969/12/31/18:00:08.266,(57 31 3 -4 -10 -16 -5 10)
1969/12/31/18:00:08.266,(-25 6 7 4 1 -8 -19 -30)
1969/12/31/18:00:08.278,(43 -26 -22 -13 -3 17 39 40)
1969/12/31/18:00:08.278,(-4 4 7 4 0 -12 -16 3)
1969/12/31/18:00:08.287,(-38 -26 -10 -6 -3 2 15 0)
1969/12/31/18:00:08.287,(10 2 -4 -7 -6 -4 -22 -39)
1969/12/31/18:00:08.302,(-30 -14 -2 -3 -5 -3 3 18)
1969/12/31/18:00:08.302,(11 7 6 5 6 13 10 8)
1969/12/31/18:00:08.302,(-22 -9 -9 -11 -12 -15 8 19)
1969/12/31/18:00:08.302,(-9 15 9 6 3 -5 -16 -26)
1969/12/31/18:00:08.325,(3 13 0 2 1 6 -6 -22)
1969/12/31/18:00:08.325,(-28 -31 -14 -7 -5 -2 5 0)
1969/12/31/18:00:08.326,(12 34 20 14 10 4 17 -22)
1969/12/31/18:00:08.326,(22 -14 -16 -10 -7 -1 0 40)
1969/12/31/18:00:08.339,(26 26 6 0 -1 4 -3 13)
1969/12/31/18:00:08.339,(-36 -24 -9 -2 0 -1 -5 -32)
1969/12/31/18:00:08.347,(-18 -10 -2 -1 -3 -13 8 -10)
1969/12/31/18:00:08.347,(-49 -18 1 3 2 -3 15 -1)
1969/12/31/18:00:08.362,(22 20 7 2 -1 -5 -34 -32)
1969/12/31/18:00:08.362,(-13 -1 3 -1 1 15 4 -7)
1969/12/31/18:00:08.362,(12 -3 0 -2 2 9 -3 -2)
1969/12/31/18:00:08.362,(-27 -7 -12 -8 -7 -10 -25 -24)
1969/12/31/18:00:08.385,(-27 -12 0 3 4 0 10 -16)
1969/12/31/18:00:08.385,(24 11 -1 -5 -5 0 10 -6)
1969/12/31/18:00:08.386,(-11 -21 -10 -7 -4 -3 -26 -8)
1969/12/31/18:00:08.386,(-4 -11 -5 -4 -3 2 6 -16)
1969/12/31/18:00:08.407,(1 4 2 -3 0 -1 -8 -2)
1969/12/31/18:00:08.407,(-3 -2 1 3 1 0 8 28)
1969/12/31/18:00:08.408,(67 26 5 4 2 2 15 33)
1969/12/31/18:00:08.408,(-21 -5 0 -1 -3 -3 -7 -11)
1969/12/31/18:00:08.422,(-3 -6 -4 -4 -3 -3 5 6)
1969/12/31/18:00:08.422,(-13 -3 -1 1 0 -4 -5 -20)
1969/12/31/18:00:08.423,(-1 -14 -3 -1 0 -1 -6 20)
1969/12/31/18:00:08.423,(4 2 4 4 1 5 8 7)
1969/12/31/18:00:08.445,(3 11 2 -1 1 7 7 23)
1969/12/31/18:00:08.445,(8 2 -1 0 -2 -8 2 10)
1969/12/31/18:00:08.446,(-26 -19 -6 -3 -4 -12 -11 -21)
1969/12/31/18:00:08.446,(32 15 3 2 4 11 2 13)
1969/12/31/18:00:08.468,(-37 0 2 1 0 1 2 -29)
1969/12/31/18:00:08.468,(-8 -3 2 1 0 -8 -17 -8)
1969/12/31/18:00:08.469,(10 8 3 3 4 10 5 11)
1969/12/31/18:00:08.469,(20 6 7 2 -2 -12 -9 -11)
1969/12/31/18:00:08.482,(40 19 4 4 -2 -1 34 77)
1969/12/31/18:00:08.482,(-38 -18 -11 -7 -6 -4 -4 -27)
1969/12/31/18:00:08.482,(37 34 12 4 1 3 -2 13)
1969/12/31/18:00:08.483,(-22 -43 -20 -13 -9 -7 -7 -21)
1969/12/31/18:00:08.505,(-13 -3 -7 -4 -1 -1 -7 -4)
1969/12/31/18:00:08.505,(8 23 11 3 1 0 -2 3)
1969/12/31/18:00:08.506,(-18 -24 -7 -4 -4 -8 -3 8)
1969/12/31/18:00:08.506,(-4 -1 -5 -2 0 3 17 -5)
1969/12/31/18:00:08.528,(48 1 -3 -4 -4 -10 -28 4)
1969/12/31/18:00:08.528,(6 5 -1 -2 2 7 16 19)
1969/12/31/18:00:08.528,(-21 -4 2 2 2 8 -4 -24)
1969/12/31/18:00:08.528,(-3 8 -4 -2 -1 3 7 8)
1969/12/31/18:00:08.542,(-10 -12 -2 1 3 5 6 -9)
1969/12/31/18:00:08.542,(-23 16 5 1 2 7 6 -18)
1969/12/31/18:00:08.542,(14 -22 -10 -7 -7 -6 -3 20)
1969/12/31/18:00:08.542,(23 14 8 7 5 2 -1 16)
1969/12/31/18:00:08.565,(-40 -4 -6 -3 -3 -3 -2 -60)
1969/12/31/18:00:08.565,(8 2 -11 -11 -8 1 -7 -7)
1969/12/31/18:00:08.566,(5 10 11 7 1 -16 8 5)
1969/12/31/18:00:08.566,(34 24 12 7 5 9 6 6)
1969/12/31/18:00:08.587,(-21 -28 -12 -8 -4 -4 1 -3)
1969/12/31/18:00:08.587,(0 3 8 4 4 4 -3 -11)
1969/12/31/18:00:08.588,(-10 4 -8 -5 -1 4 -5 -9)
1969/12/31/18:00:08.588,(-19 -5 -3 -5 -3 -7 -2 -3)
1969/12/31/18:00:08.602,(49 -1 1 0 2 4 -5 23)
1969/12/31/18:00:08.602,(-13 -13 -3 -1 -1 -3 -11 -15)
1969/12/31/18:00:08.602,(-22 -6 -2 -2 1 2 10 10)
1969/12/31/18:00:08.603,(2 0 1 -1 -3 -8 -8 -39)
1969/12/31/18:00:08.625,(11 16 2 -2 0 5 -10 8)
1969/12/31/18:00:08.625,(17 -14 -5 -3 -4 -5 3 13)
1969/12/31/18:00:08.626,(-22 -7 -5 -3 -5 -6 -22 -35)
1969/12/31/18:00:08.626,(-41 -3 6 8 11 11 11 18)
1969/12/31/18:00:08.647,(21 -5 -8 -4 -2 0 -11 -43)
1969/12/31/18:00:08.647,(39 5 -3 -5 -7 -4 -1 4)
1969/12/31/18:00:08.648,(-7 -3 -2 -3 1 5 -1 -1)
1969/12/31/18:00:08.648,(-1 -13 -6 -7 -4 -5 1 15)
1969/12/31/18:00:08.662,(-5 17 8 5 2 1 3 7)
1969/12/31/18:00:08.662,(1 3 2 4 3 2 16 7)
1969/12/31/18:00:08.662,(-6 -2 -1 -2 -3 -8 -20 -2)
1969/12/31/18:00:08.662,(23 -8 -7 -4 -3 6 -11 13)
1969/12/31/18:00:08.685,(-8 -11 4 8 7 1 -2 10)
1969/12/31/18:00:08.685,(4 6 3 2 0 -1 -8 -11)
1969/12/31/18:00:08.686,(22 -1 1 2 0 3 8 26)
1969/12/31/18:00:08.686,(5 18 13 9 4 5 -4 -2)
1969/12/31/18:00:08.707,(-13 -8 -10 -9 -12 -38 -16 1)
1969/12/31/18:00:08.707,(-28 12 3 1 6 19 17 -15)
1969/12/31/18:00:08.708,(36 3 6 5 6 -4 -27 6)
1969/12/31/18:00:08.708,(-18 -11 -5 -4 -7 -20 35 8)
1969/12/31/18:00:08.722,(20 6 -1 -2 4 21 12 20)
1969/12/31/18:00:08.722,(-28 -6 -1 -1 -2 -1 -28 -38)
1969/12/31/18:00:08.722,(-9 12 -1 -2 -2 -18 -5 9)
1969/12/31/18:00:08.722,(31 3 -4 -6 -8 -8 -17 2)
1969/12/31/18:00:08.745,(21 13 10 8 1 27 41 12)
1969/12/31/18:00:08.745,(-5 1 -1 -4 -7 -21 24 17)
1969/12/31/18:00:08.746,(-35 -11 -2 -2 3 3 -36 -38)
1969/12/31/18:00:08.746,(-6 -12 -3 3 0 -13 -26 -1)
1969/12/31/18:00:08.767,(-21 -4 -1 -3 -1 5 12 0)
1969/12/31/18:00:08.767,(15 -2 1 3 0 -5 -18 -11)
1969/12/31/18:00:08.769,(-15 1 -5 -3 27 73 38 6)
1969/12/31/18:00:08.769,(-5 -6 -5 -6 -28 -36 -6 -13)
1969/12/31/18:00:08.781,(-11 -8 -6 -5 19 -28 -3 10)
1969/12/31/18:00:08.781,(10 3 -2 -3 -27 -6 0 8)
1969/12/31/18:00:08.790,(-10 2 -1 -3 2 12 -18 -16)
1969/12/31/18:00:08.790,(18 0 -1 5 24 -5 43 19)
1969/12/31/18:00:08.805,(-34 -20 -12 -9 -29 1 9 14)
1969/12/31/18:00:08.805,(-1 -11 -2 10 24 -15 -32 6)
1969/12/31/18:00:08.806,(-6 0 -6 -20 -28 25 16 -8)
1969/12/31/18:00:08.806,(-6 -8 -5 -8 -12 -22 -5 1)
1969/12/31/18:00:08.827,(-17 4 -1 -6 -10 -5 -35 -28)
1969/12/31/18:00:08.827,(5 -6 -1 -1 24 -5 11 5)
1969/12/31/18:00:08.829,(-25 -17 -3 12 -23 -42 1 -8)
1969/12/31/18:00:08.829,(-7 19 5 11 25 44 -11 -9)
1969/12/31/18:00:08.841,(-7 -33 -13 -15 -18 3 8 3)
1969/12/31/18:00:08.841,(-11 6 4 1 -3 0 -14 -11)
1969/12/31/18:00:08.850,(15 11 6 3 5 -3 9 5)
1969/12/31/18:00:08.850,(0 -1 -1 6 7 7 3 -7)
1969/12/31/18:00:08.865,(12 13 8 -7 -12 2 -9 -7)
1969/12/31/18:00:08.865,(-10 -1 3 6 15 -2 0 3)
1969/12/31/18:00:08.866,(27 9 3 1 -23 -14 6 9)
1969/12/31/18:00:08.866,(-12 -11 -3 3 11 8 3 2)
1969/12/31/18:00:08.887,(46 1 -9 4 -13 -11 -11 9)
1969/12/31/18:00:08.887,(-26 -11 -10 -21 -15 -5 11 8)
1969/12/31/18:00:08.889,(6 10 10 6 38 18 6 -8)
1969/12/31/18:00:08.889,(-10 1 -2 -3 -18 1 -23 -14)
1969/12/31/18:00:08.901,(17 -7 -12 10 28 22 19 22)
1969/12/31/18:00:08.901,(-7 -15 -22 -12 -22 -22 -1 3)
1969/12/31/18:00:08.910,(17 4 -1 -14 -18 -13 -8 -4)
1969/12/31/18:00:08.910,(15 11 -1 -8 2 14 -5 -19)
1969/12/31/18:00:08.924,(5 62 96 67 64 11 17 15)
1969/12/31/18:00:08.924,(22 -9 -18 -28 -59 -3 -21 -27)
1969/12/31/18:00:08.931,(-53 -78 -58 -30 -32 -22 0 -9)
1969/12/31/18:00:08.931,(-6 -38 -38 -21 -13 -2 -5 2)
1969/12/31/18:00:08.949,(-53 -61 -111 -42 11 -12 -10 -19)
1969/12/31/18:00:08.949,(-5 91 93 47 9 25 1 -24)
1969/12/31/18:00:08.950,(-32 -6 2 34 23 9 -6 -7)
1969/12/31/18:00:08.950,(25 -68 -22 -13 -17 -31 -35 -54)
1969/12/31/18:00:08.961,(-7 21 -23 -5 2 26 17 -13)
1969/12/31/18:00:08.961,(33 17 -2 -23 -2 -13 -17 0)
1969/12/31/18:00:08.970,(-61 -3 14 8 -5 -30 -9 -57)
1969/12/31/18:00:08.970,(14 -73 -22 8 17 31 22 49)
1969/12/31/18:00:08.985,(16 -9 -77 -66 -41 -20 -17 43)
1969/12/31/18:00:08.985,(29 84 81 76 33 21 13 -4)
1969/12/31/18:00:08.987,(-14 -44 -26 3 15 9 2 -8)
1969/12/31/18:00:08.987,(-20 -64 -86 -29 -15 6 -15 -29)
1969/12/31/18:00:09.007,(-84 -128 -84 -36 -13 -24 -19 -29)
1969/12/31/18:00:09.007,(-25 34 -84 -53 -19 -2 28 59)
1969/12/31/18:00:09.009,(65 127 126 96 43 -15 2 32)
1969/12/31/18:00:09.009,(35 -39 -63 -10 -20 17 33 74)
1969/12/31/18:00:09.021,(22 78 77 18 18 54 4 -19)
1969/12/31/18:00:09.021,(-36 -4 42 11 -12 -23 -5 -5)
1969/12/31/18:00:09.030,(-17 -118 -128 -61 5 22 23 33)
1969/12/31/18:00:09.030,(13 127 95 13 -19 -42 -27 -20)
1969/12/31/18:00:09.045,(47 87 74 49 18 22 44 30)
1969/12/31/18:00:09.045,(16 -128 -128 -48 2 -1 -4 49)
1969/12/31/18:00:09.046,(84 127 108 34 20 37 19 36)
1969/12/31/18:00:09.046,(-101 -83 -58 -36 -41 -48 -23 -54)
1969/12/31/18:00:09.067,(-13 0 -78 -38 -45 -51 -23 -4)
1969/12/31/18:00:09.067,(-3 16 100 63 61 35 17 28)
1969/12/31/18:00:09.069,(-1 5 -5 -21 -32 -8 -7 -11)
1969/12/31/18:00:09.069,(-37 -44 -36 -6 14 21 27 57)
1969/12/31/18:00:09.081,(9 63 -9 -5 -1 -18 -20 -47)
1969/12/31/18:00:09.081,(25 -9 -4 30 11 -8 8 53)
1969/12/31/18:00:09.090,(22 -42 -24 -26 -15 1 -8 21)
1969/12/31/18:00:09.090,(75 95 17 -10 -11 20 14 16)
1969/12/31/18:00:09.105,(-67 -12 73 50 8 -13 1 -34)
1969/12/31/18:00:09.105,(-58 -128 -128 -43 -2 -18 -39 -66)
1969/12/31/18:00:09.106,(-56 -52 -44 -38 -63 -18 -5 -27)
1969/12/31/18:00:09.106,(8 -98 -40 5 19 6 17 33)
1969/12/31/18:00:09.127,(14 42 -8 -17 -28 -12 -22 -37)
1969/12/31/18:00:09.127,(28 -24 -56 9 10 -17 -25 -73)
1969/12/31/18:00:09.129,(24 -95 -128 -38 -4 -51 -13 20)
1969/12/31/18:00:09.129,(9 126 102 63 25 52 21 1)
1969/12/31/18:00:09.141,(-88 -128 -119 -55 -17 -16 -21 -60)
1969/12/31/18:00:09.141,(55 121 109 32 22 64 31 -16)
1969/12/31/18:00:09.150,(10 33 -56 -5 -1 -17 -9 23)
1969/12/31/18:00:09.150,(34 102 67 37 47 23 -16 -39)
1969/12/31/18:00:09.165,(-24 -46 26 -1 -17 20 16 -2)
1969/12/31/18:00:09.165,(-49 -107 -74 -42 -30 -30 -18 -14)
1969/12/31/18:00:09.166,(-22 -45 -9 -29 -23 4 -2 -36)
1969/12/31/18:00:09.166,(-53 2 10 2 3 -37 -26 -39)
1969/12/31/18:00:09.187,(40 -53 6 32 28 3 18 64)
1969/12/31/18:00:09.187,(38 -26 -90 -33 6 39 21 26)
1969/12/31/18:00:09.189,(43 125 105 53 43 14 16 4)
1969/12/31/18:00:09.189,(-12 -105 -92 -27 -19 -18 -24 26)
1969/12/31/18:00:09.201,(60 95 44 22 2 9 9 20)
1969/12/31/18:00:09.201,(40 -128 -128 -42 -12 24 23 56)
1969/12/31/18:00:09.210,(43 127 127 64 14 -34 13 53)
1969/12/31/18:00:09.210,(0 56 55 7 -17 -22 0 -43)
1969/12/31/18:00:09.224,(10 -63 -24 -1 2 21 -3 32)
1969/12/31/18:00:09.224,(-7 5 -14 -14 -10 -11 -3 -9)
1969/12/31/18:00:09.231,(14 -22 1 11 6 37 15 2)
1969/12/31/18:00:09.231,(-54 -114 -99 -18 46 -25 -6 -28)
1969/12/31/18:00:09.247,(87 101 35 -19 -52 41 18 81)
1969/12/31/18:00:09.247,(-42 30 65 24 -20 1 5 -24)
1969/12/31/18:00:09.249,(-48 -128 -104 -26 11 -4 -14 -20)
1969/12/31/18:00:09.249,(40 -48 -41 -15 -24 3 17 32)
1969/12/31/18:00:09.261,(13 -36 8 12 -1 -18 -16 2)
1969/12/31/18:00:09.261,(-24 72 87 17 4 -7 6 -7)
1969/12/31/18:00:09.270,(-10 -58 -89 -30 -6 -11 -16 -24)
1969/12/31/18:00:09.270,(-12 102 82 18 9 11 -3 -9)
1969/12/31/18:00:09.284,(-43 -18 -17 8 10 -41 -13 -45)
1969/12/31/18:00:09.284,(29 23 -9 -23 -18 11 0 17)
1969/12/31/18:00:09.291,(-6 -29 32 22 2 -6 -9 3)
1969/12/31/18:00:09.291,(22 3 -46 -21 -22 -19 -5 7)
1969/12/31/18:00:09.307,(10 31 8 24 34 8 -8 -28)
1969/12/31/18:00:09.308,(-43 -47 -1 4 8 -33 -17 -5)
1969/12/31/18:00:09.309,(-94 -59 -50 -37 -30 -6 -24 -81)
1969/12/31/18:00:09.309,(68 -19 -7 10 1 26 23 77)
1969/12/31/18:00:09.330,(2 7 23 -9 -24 -21 -18 2)
1969/12/31/18:00:09.330,(-34 -5 -19 -14 16 5 -6 -13)
1969/12/31/18:00:09.331,(14 -35 -53 -20 8 -15 -5 -2)
1969/12/31/18:00:09.331,(17 25 12 12 15 40 17 33)
1969/12/31/18:00:09.344,(-68 63 49 17 -15 -39 -9 -25)
1969/12/31/18:00:09.344,(-43 4 12 12 -19 -6 -12 -31)
1969/12/31/18:00:09.351,(13 -30 -29 -8 9 14 -13 -43)
1969/12/31/18:00:09.351,(-12 11 8 -3 -24 -35 -14 -33)
1969/12/31/18:00:09.368,(72 22 32 20 54 35 19 45)
1969/12/31/18:00:09.368,(-2 43 31 18 10 -23 -12 5)
1969/12/31/18:00:09.369,(-60 -29 -40 -20 -7 21 7 -14)
1969/12/31/18:00:09.369,(-1 50 47 17 2 -9 18 44)
1969/12/31/18:00:09.390,(-44 -87 -71 -12 20 15 -13 -68)
1969/12/31/18:00:09.390,(32 49 51 11 -16 -10 6 44)
1969/12/31/18:00:09.391,(9 -29 -5 -4 -13 -19 -3 0)
1969/12/31/18:00:09.391,(7 -16 -13 1 35 44 17 20)
1969/12/31/18:00:09.405,(35 33 36 12 -2 -13 -23 -8)
1969/12/31/18:00:09.405,(19 -20 -52 -28 -19 -1 22 4)
1969/12/31/18:00:09.413,(1 25 19 31 40 13 10 48)
1969/12/31/18:00:09.413,(-23 1 25 -11 -57 -10 -18 -40)
1969/12/31/18:00:09.427,(9 -48 -42 -10 -10 -13 22 28)
1969/12/31/18:00:09.427,(11 -128 -45 0 -15 -15 4 17)
1969/12/31/18:00:09.429,(56 127 77 14 -9 24 -4 -1)
1969/12/31/18:00:09.429,(-11 5 24 23 21 6 -3 -20)
1969/12/31/18:00:09.450,(61 -28 1 15 27 10 15 51)
1969/12/31/18:00:09.450,(-40 -46 -31 -14 -3 -6 -14 -60)
1969/12/31/18:00:09.451,(-17 -67 -78 -45 -30 -27 17 42)
1969/12/31/18:00:09.451,(-34 43 73 34 32 5 -27 -48)
1969/12/31/18:00:09.464,(-36 10 -3 -3 -5 -23 -18 -26)
1969/12/31/18:00:09.464,(-48 -87 -86 -34 -19 35 32 18)
1969/12/31/18:00:09.471,(63 127 116 27 -8 29 20 42)
1969/12/31/18:00:09.471,(-27 -53 -65 -26 -8 -8 -15 -38)
1969/12/31/18:00:09.488,(5 11 4 1 -3 -4 8 12)
1969/12/31/18:00:09.488,(12 -16 19 34 55 17 -1 12)
1969/12/31/18:00:09.489,(-12 15 -66 -30 -46 -80 -5 13)
1969/12/31/18:00:09.489,(25 24 75 32 22 43 22 21)
1969/12/31/18:00:09.510,(-37 -64 -99 -35 0 -30 -18 -28)
1969/12/31/18:00:09.510,(34 113 96 36 -11 22 10 7)
1969/12/31/18:00:09.511,(-27 -126 -76 -18 2 -1 -2 8)
1969/12/31/18:00:09.511,(1 76 33 6 -4 -36 -15 -30)
1969/12/31/18:00:09.523,(57 -2 17 31 29 13 1 49)
1969/12/31/18:00:09.524,(-4 -84 -72 -56 -39 -13 -10 -24)
1969/12/31/18:00:09.532,(38 89 71 32 8 3 1 18)
1969/12/31/18:00:09.532,(-29 -10 -8 -8 0 -17 -11 -16)
1969/12/31/18:00:09.547,(-67 -111 -62 -31 -50 12 11 -10)
1969/12/31/18:00:09.547,(37 78 7 -3 -6 -70 -40 6)
1969/12/31/18:00:09.549,(-13 34 57 19 18 66 13 0)
1969/12/31/18:00:09.549,(-24 -91 -107 -37 -5 -12 -10 -6)
1969/12/31/18:00:09.576,(8 45 83 14 18 14 -4 -55)
1969/12/31/18:00:09.577,(-41 37 20 15 10 -4 -27 -68)
1969/12/31/18:00:09.586,(-51 -71 -34 0 27 -19 -14 -40)
1969/12/31/18:00:09.586,(0 45 40 -16 -35 15 18 22)
1969/12/31/18:00:09.587,(-13 -83 -100 -41 -21 3 8 6)
1969/12/31/18:00:09.587,(20 97 73 20 -7 -3 2 15)
1969/12/31/18:00:09.593,(51 -8 -8 18 15 -45 -4 13)
1969/12/31/18:00:09.593,(-2 -35 -28 3 19 40 -10 -1)
1969/12/31/18:00:09.607,(-15 12 3 -11 -25 -30 -4 -21)
1969/12/31/18:00:09.607,(-42 -39 -11 -19 -11 16 -10 -20)
1969/12/31/18:00:09.609,(-30 -66 -28 -15 -20 -10 -15 -26)
1969/12/31/18:00:09.609,(36 -15 -28 -8 -15 -33 -5 17)
1969/12/31/18:00:09.630,(15 89 31 0 1 -3 -24 -23)
1969/12/31/18:00:09.630,(-2 -55 -34 1 12 -7 16 28)
1969/12/31/18:00:09.631,(-9 -48 -2 9 52 60 9 -3)
1969/12/31/18:00:09.631,(29 23 -6 -27 -42 -32 -30 28)
1969/12/31/18:00:09.652,(-23 -9 -23 17 11 23 -5 -8)
1969/12/31/18:00:09.652,(35 66 35 19 11 -6 -3 14)
1969/12/31/18:00:09.660,(5 -52 -40 -39 -52 -50 -18 -28)
1969/12/31/18:00:09.660,(-26 -112 -66 1 33 35 12 -40)
1969/12/31/18:00:09.667,(5 50 24 -7 -21 1 12 16)
1969/12/31/18:00:09.667,(0 -98 -89 -37 -10 -32 -24 -22)
1969/12/31/18:00:09.669,(58 118 98 55 4 8 7 48)
1969/12/31/18:00:09.669,(58 6 12 18 26 9 22 22)
1969/12/31/18:00:09.690,(-16 -33 -42 -6 8 -17 -7 6)
1969/12/31/18:00:09.690,(36 -1 -6 -2 4 66 30 56)
1969/12/31/18:00:09.692,(-41 -54 -48 -16 -9 -9 -3 -12)
1969/12/31/18:00:09.692,(-2 90 46 9 -16 -28 -7 -9)
1969/12/31/18:00:09.712,(-56 -85 -42 -23 1 12 -8 -40)
1969/12/31/18:00:09.712,(-30 -4 6 -8 -4 -41 -29 -37)
1969/12/31/18:00:09.714,(55 127 120 56 34 38 23 11)
1969/12/31/18:00:09.714,(-68 17 14 2 -6 -30 -18 -25)
1969/12/31/18:00:09.727,(5 -97 -51 -6 -12 -68 -12 9)
1969/12/31/18:00:09.727,(13 -5 -10 -5 48 94 28 49)
1969/12/31/18:00:09.735,(-78 -28 -39 -41 -70 -25 -25 -78)
1969/12/31/18:00:09.735,(-60 -90 -85 -31 -9 7 -7 -22)
1969/12/31/18:00:09.750,(101 127 127 41 -10 -12 12 58)
1969/12/31/18:00:09.750,(21 -50 -5 32 30 4 9 10)
1969/12/31/18:00:09.751,(11 21 -11 -19 -23 5 -5 5)
1969/12/31/18:00:09.751,(-4 -61 -19 -6 3 -2 1 -1)
1969/12/31/18:00:09.764,(1 45 10 8 4 22 10 23)
1969/12/31/18:00:09.764,(-14 -16 12 5 -13 -26 0 -21)
1969/12/31/18:00:09.773,(29 39 -2 -8 -12 -5 16 36)
1969/12/31/18:00:09.773,(-5 -73 -59 -24 -15 -1 0 -1)
1969/12/31/18:00:09.787,(-20 30 37 14 24 25 17 17)
1969/12/31/18:00:09.788,(-11 113 104 41 9 -13 4 -32)
1969/12/31/18:00:09.789,(5 -43 -34 3 44 9 -23 -12)
1969/12/31/18:00:09.789,(43 30 29 7 -27 -11 26 32)
1969/12/31/18:00:09.810,(-35 -34 -29 -25 -33 -17 -17 -50)
1969/12/31/18:00:09.810,(-18 -94 -83 -20 19 6 3 -9)
1969/12/31/18:00:09.812,(0 56 16 -15 -38 -26 1 6)
1969/12/31/18:00:09.812,(-39 -6 3 24 25 -7 -24 -59)
1969/12/31/18:00:09.823,(53 35 -23 -26 1 46 24 24)
1969/12/31/18:00:09.824,(2 37 39 33 8 -9 0 19)
1969/12/31/18:00:09.832,(-18 -108 -84 -27 20 14 11 19)
1969/12/31/18:00:09.833,(71 96 54 21 21 25 9 8)
1969/12/31/18:00:09.847,(-21 -29 3 7 2 -15 -7 -19)
1969/12/31/18:00:09.847,(-8 -64 -71 -36 -40 -36 -21 -18)
1969/12/31/18:00:09.849,(4 20 32 28 43 25 9 3)
1969/12/31/18:00:09.849,(-6 -7 -20 -19 0 7 14 9)
1969/12/31/18:00:09.870,(-45 3 31 15 -14 40 11 11)
1969/12/31/18:00:09.870,(-20 -17 -2 -9 -15 1 -3 -15)
1969/12/31/18:00:09.876,(-19 -59 -45 -24 -20 -25 -27 -32)
1969/12/31/18:00:09.876,(-1 53 55 28 23 5 14 16)
1969/12/31/18:00:09.883,(11 -59 -37 12 29 15 15 44)
1969/12/31/18:00:09.883,(42 10 -40 -19 -1 -31 -27 -5)
1969/12/31/18:00:09.893,(71 86 90 39 17 65 41 50)
1969/12/31/18:00:09.893,(-50 -82 -77 -27 -28 -34 -17 -42)
1969/12/31/18:00:09.908,(0 69 84 30 20 16 -12 -30)
1969/12/31/18:00:09.908,(-33 -67 -54 -32 -21 -5 18 11)
1969/12/31/18:00:09.909,(-4 36 19 14 16 -8 6 12)
1969/12/31/18:00:09.909,(-11 -69 -21 17 40 16 -9 -21)
1969/12/31/18:00:09.937,(-10 26 16 -15 -30 -6 -4 17)
1969/12/31/18:00:09.937,(7 43 29 1 -19 -11 -1 -9)
1969/12/31/18:00:09.939,(-3 -53 -44 -4 4 -23 0 19)
1969/12/31/18:00:09.939,(-28 44 55 12 6 13 25 27)
1969/12/31/18:00:09.943,(-43 -126 -118 -43 0 19 -10 -29)
1969/12/31/18:00:09.943,(42 127 127 59 24 3 1 3)
1969/12/31/18:00:09.952,(-23 -81 -25 -2 -19 -6 -2 4)
1969/12/31/18:00:09.952,(-17 -49 -52 -6 19 4 6 7)
1969/12/31/18:00:09.967,(49 42 36 13 -4 2 15 6)
1969/12/31/18:00:09.967,(14 -8 -13 -20 -22 -15 -5 22)
1969/12/31/18:00:09.969,(-56 -72 -65 -17 3 -16 -17 -50)
1969/12/31/18:00:09.969,(36 115 96 26 -2 3 -13 -10)
1969/12/31/18:00:09.990,(-16 -12 4 13 10 -6 -6 -8)
1969/12/31/18:00:09.990,(-26 -86 -50 -10 12 26 4 -2)
1969/12/31/18:00:09.992,(38 70 33 5 -1 7 9 -29)
1969/12/31/18:00:09.992,(20 -67 -55 -22 -28 -23 -23 0)
1969/12/31/18:00:10.003,(55 1 -43 -20 -2 -13 12 49)
1969/12/31/18:00:10.003,(-2 21 44 34 18 7 -1 -19)
1969/12/31/18:00:10.013,(28 -41 -43 -32 -21 -3 -6 13)
1969/12/31/18:00:10.013,(37 9 5 8 16 -3 17 48)
1969/12/31/18:00:10.027,(-21 -10 -18 -12 -12 17 -26 -34)
1969/12/31/18:00:10.027,(-40 -26 -41 -24 -11 -10 12 -12)
1969/12/31/18:00:10.029,(-18 -1 15 8 2 -9 -13 -12)
1969/12/31/18:00:10.029,(-16 -57 -47 -8 -14 8 7 11)
1969/12/31/18:00:10.050,(-9 53 20 -2 -11 -30 -15 -15)
1969/12/31/18:00:10.050,(62 -12 -59 -10 13 24 10 37)
1969/12/31/18:00:10.051,(-12 61 85 25 4 53 29 27)
1969/12/31/18:00:10.052,(-34 -37 -17 -6 2 -41 -25 -14)
1969/12/31/18:00:10.063,(-57 -128 -99 -42 -11 14 0 -12)
1969/12/31/18:00:10.063,(15 117 79 16 -8 3 9 8)
1969/12/31/18:00:10.073,(8 44 -14 16 32 -15 -8 -8)
1969/12/31/18:00:10.073,(81 -9 -45 -19 -27 17 5 31)
1969/12/31/18:00:10.087,(43 60 107 32 17 -65 -20 -5)
1969/12/31/18:00:10.087,(-25 -20 -17 -16 -12 66 -10 -54)
1969/12/31/18:00:10.094,(-5 -54 -35 -30 -28 -29 -2 10)
1969/12/31/18:00:10.094,(-17 -15 -17 -8 -10 -11 0 -2)
1969/12/31/18:00:10.110,(-23 -5 -30 4 13 2 3 -3)
1969/12/31/18:00:10.110,(49 39 65 57 52 1 19 38)
1969/12/31/18:00:10.112,(-29 -32 -47 -16 -29 3 -22 -52)
1969/12/31/18:00:10.112,(-24 21 27 -13 -29 -22 -25 -33)
1969/12/31/18:00:10.123,(1 -32 -15 -8 -6 -15 -2 1)
1969/12/31/18:00:10.123,(-53 6 -5 -6 -9 -14 -10 -16)
1969/12/31/18:00:10.133,(53 16 16 26 27 17 19 55)
1969/12/31/18:00:10.133,(-1 -24 -25 -18 13 20 9 60)
1969/12/31/18:00:10.155,(-9 59 64 30 -3 2 10 -22)
1969/12/31/18:00:10.155,(3 -30 -23 0 1 -20 -13 -9)
1969/12/31/18:00:10.157,(1 -40 -31 -41 -46 -10 10 3)
1969/12/31/18:00:10.157,(-19 10 21 0 -1 -8 2 -10)
1969/12/31/18:00:10.170,(8 13 -26 2 12 34 -11 1)
1969/12/31/18:00:10.170,(-11 -30 -16 -13 -4 -15 -7 11)
1969/12/31/18:00:10.171,(-52 -19 3 3 12 16 -12 -10)
1969/12/31/18:00:10.172,(24 33 12 -2 -34 -31 3 -6)
1969/12/31/18:00:10.184,(-29 -61 -42 -17 -15 -8 -15 -32)
1969/12/31/18:00:10.184,(-40 -30 -28 -19 -12 -11 12 1)
1969/12/31/18:00:10.193,(-3 23 9 20 24 7 -2 -9)
1969/12/31/18:00:10.193,(29 63 50 -9 -12 15 -1 2)
1969/12/31/18:00:10.207,(-13 -56 -25 -15 -11 5 29 38)
1969/12/31/18:00:10.207,(-34 33 -7 13 13 -9 -19 -23)
1969/12/31/18:00:10.209,(-17 -22 16 22 16 -14 -2 -12)
1969/12/31/18:00:10.209,(-21 -14 -15 0 -12 2 -4 -19)
1969/12/31/18:00:10.230,(-5 7 -6 1 23 -1 3 -9)
1969/12/31/18:00:10.230,(0 -70 -52 -44 -36 42 9 17)
1969/12/31/18:00:10.232,(-10 58 77 27 1 -12 -5 -29)
1969/12/31/18:00:10.232,(19 15 -4 -21 0 6 -4 -1)
1969/12/31/18:00:10.244,(42 18 -12 0 0 -20 8 28)
1969/12/31/18:00:10.244,(-44 -36 2 -3 -9 -24 -5 -27)
1969/12/31/18:00:10.253,(-2 37 28 25 7 -1 -9 -6)
1969/12/31/18:00:10.253,(-17 -17 14 41 40 51 5 43)
1969/12/31/18:00:10.267,(23 -11 9 5 -4 -13 8 6)
1969/12/31/18:00:10.267,(-2 33 22 6 -8 -24 -24 -58)
1969/12/31/18:00:10.273,(31 11 -13 -20 -21 -21 13 18)
1969/12/31/18:00:10.273,(-22 -6 -6 -12 -3 -3 -23 -25)
1969/12/31/18:00:10.289,(-22 -20 -14 8 4 15 -9 -13)
1969/12/31/18:00:10.289,(-5 35 20 8 4 18 42 12)
1969/12/31/18:00:10.298,(-38 -49 -29 -23 -13 -23 -29 -5)
1969/12/31/18:00:10.298,(51 -2 -24 6 23 1 -11 47)
1969/12/31/18:00:10.312,(15 43 29 0 -10 0 -19 -5)
1969/12/31/18:00:10.312,(-48 -31 7 1 -8 -1 34 4)
1969/12/31/18:00:10.314,(20 0 -26 -18 0 -17 -42 -23)
1969/12/31/18:00:10.314,(-60 -12 0 11 28 0 53 17)
1969/12/31/18:00:10.327,(9 17 7 3 -11 27 -5 3)
1969/12/31/18:00:10.327,(20 -10 -2 -6 1 1 -10 22)
1969/12/31/18:00:10.334,(39 -7 -13 -10 1 16 48 24)
1969/12/31/18:00:10.334,(5 26 14 5 -2 7 -1 -29)
1969/12/31/18:00:10.350,(-42 -28 -8 -3 2 -39 -26 -29)
1969/12/31/18:00:10.350,(22 0 -9 -6 -4 3 -4 7)
1969/12/31/18:00:10.351,(34 20 5 4 7 -9 4 26)
1969/12/31/18:00:10.351,(-12 -17 -8 -6 -11 -1 -35 -41)
1969/12/31/18:00:10.372,(-6 27 14 7 5 1 38 20)
1969/12/31/18:00:10.372,(30 17 21 12 9 10 -23 5)
1969/12/31/18:00:10.374,(-14 -20 -15 -19 -13 -21 -34 -41)
1969/12/31/18:00:10.374,(22 12 -3 16 19 21 83 23)
1969/12/31/18:00:10.387,(23 12 0 -6 -21 -31 -73 -44)
1969/12/31/18:00:10.387,(-4 -23 -21 -20 -3 13 48 10)
1969/12/31/18:00:10.389,(-84 -34 6 20 27 -1 8 -25)
1969/12/31/18:00:10.389,(69 3 1 -4 -15 9 7 26)
1969/12/31/18:00:10.410,(14 50 32 21 21 22 47 9)
1969/12/31/18:00:10.410,(27 45 -4 -9 -19 -45 -99 -49)
1969/12/31/18:00:10.411,(-13 -25 -26 -26 -16 17 22 33)
1969/12/31/18:00:10.411,(-28 -15 7 0 -4 -17 -7 -25)
1969/12/31/18:00:10.433,(40 -2 -9 -8 3 14 14 25)
1969/12/31/18:00:10.433,(17 -26 -9 -14 -11 -39 -50 -5)
1969/12/31/18:00:10.434,(33 28 -1 8 5 20 27 48)
1969/12/31/18:00:10.434,(-52 1 3 -2 -6 -4 -19 -30)
1969/12/31/18:00:10.447,(-4 1 1 -2 3 -10 13 46)
1969/12/31/18:00:10.447,(27 -18 3 -8 8 20 35 9)
1969/12/31/18:00:10.454,(52 -11 -28 4 -2 -6 -27 -14)
1969/12/31/18:00:10.454,(-21 9 47 28 8 7 43 16)
1969/12/31/18:00:10.470,(-55 -4 -1 12 1 6 -17 -73)
1969/12/31/18:00:10.470,(33 11 0 6 3 -2 4 33)
1969/12/31/18:00:10.472,(-40 -3 -5 -7 -10 -5 -26 8)
1969/12/31/18:00:10.472,(-6 -6 -17 -13 -10 1 0 21)
1969/12/31/18:00:10.493,(-42 -71 -13 -9 3 9 17 5)
1969/12/31/18:00:10.493,(49 74 10 -6 4 1 4 32)
1969/12/31/18:00:10.494,(11 2 13 -1 -2 4 -2 -10)
1969/12/31/18:00:10.494,(6 -2 0 2 1 2 -5 -5)
1969/12/31/18:00:10.515,(-17 -15 -30 -12 -10 -8 -10 12)
1969/12/31/18:00:10.515,(-47 -33 16 31 15 5 2 8)
1969/12/31/18:00:10.516,(1 19 -3 -41 -14 3 15 -16)
1969/12/31/18:00:10.516,(5 -3 -10 14 -1 -10 -16 -6)
1969/12/31/18:00:10.530,(15 11 29 21 12 2 1 0)
1969/12/31/18:00:10.530,(-9 1 -9 8 0 3 7 6)
1969/12/31/18:00:10.531,(9 17 16 16 7 7 4 -3)
1969/12/31/18:00:10.531,(-42 -39 -24 -33 -11 -15 -24 -33)
1969/12/31/18:00:10.552,(-3 8 -6 -12 -6 -1 -11 -30)
1969/12/31/18:00:10.552,(-50 -10 -6 -1 0 3 1 -47)
1969/12/31/18:00:10.554,(9 -26 -20 -14 -5 -3 -1 8)
1969/12/31/18:00:10.554,(38 3 -18 -10 -6 -8 -7 8)
1969/12/31/18:00:10.566,(3 17 16 1 -1 2 4 7)
1969/12/31/18:00:10.566,(-1 14 14 12 4 1 1 -6)
1969/12/31/18:00:10.575,(-6 -30 -10 5 6 0 4 6)
1969/12/31/18:00:10.575,(19 23 5 -1 -5 0 4 45)
1969/12/31/18:00:10.590,(3 -20 -12 3 1 1 4 2)
1969/12/31/18:00:10.590,(-13 -12 -12 -14 -9 -7 -10 -13)
1969/12/31/18:00:10.591,(-5 5 30 19 5 1 -8 -9)
1969/12/31/18:00:10.591,(6 38 13 3 5 5 10 -3)
1969/12/31/18:00:10.612,(-5 -7 16 21 8 1 -7 9)
1969/12/31/18:00:10.612,(18 -29 -30 -13 -4 4 16 33)
1969/12/31/18:00:10.614,(-11 -4 -19 -10 -7 -6 -3 -7)
1969/12/31/18:00:10.614,(-1 -3 -18 -21 -13 -12 -11 -14)
1969/12/31/18:00:10.626,(14 22 11 6 6 6 4 8)
1969/12/31/18:00:10.626,(-4 -33 -9 4 1 4 11 6)
1969/12/31/18:00:10.635,(-6 19 2 -1 -1 1 -5 -11)
1969/12/31/18:00:10.635,(-14 -40 -20 -10 -9 -8 -17 -24)
1969/12/31/18:00:10.650,(3 5 -35 -23 -8 -4 9 9)
1969/12/31/18:00:10.650,(6 34 49 19 3 -3 -15 -3)
1969/12/31/18:00:10.651,(-14 -22 -21 -10 -3 0 7 -1)
1969/12/31/18:00:10.651,(-9 6 5 4 -2 1 -3 -17)
1969/12/31/18:00:10.672,(-2 -39 -29 -10 -5 -7 -16 -27)
1969/12/31/18:00:10.672,(6 30 10 -3 0 3 6 3)
1969/12/31/18:00:10.674,(-4 -21 -8 -11 -2 2 -3 -3)
1969/12/31/18:00:10.674,(-1 8 14 27 6 -2 -1 -4)
1969/12/31/18:00:10.686,(6 19 16 0 1 2 -1 5)
1969/12/31/18:00:10.686,(4 19 10 8 2 -1 4 1)
1969/12/31/18:00:10.695,(0 -18 -20 1 3 2 -5 -7)
1969/12/31/18:00:10.695,(-7 2 -1 -15 -6 -5 1 2)
1969/12/31/18:00:10.710,(-1 4 10 -2 -3 -2 -8 4)
1969/12/31/18:00:10.710,(-5 -22 -19 -7 -2 -6 -6 -3)
1969/12/31/18:00:10.711,(8 30 33 13 5 4 8 7)
1969/12/31/18:00:10.711,(-3 -19 -32 -12 -3 1 1 1)
1969/12/31/18:00:10.732,(5 14 8 0 -1 2 8 10)
1969/12/31/18:00:10.732,(-10 -21 -11 -11 -5 -4 -10 -15)
1969/12/31/18:00:10.734,(-10 -27 -27 -14 -7 -6 0 -1)
1969/12/31/18:00:10.734,(9 34 17 14 6 -1 -6 -4)
1969/12/31/18:00:10.746,(3 -4 -11 -1 0 2 7 8)
1969/12/31/18:00:10.746,(-4 -4 -5 -21 -10 -2 0 -1)
1969/12/31/18:00:10.756,(9 44 28 21 8 -1 0 1)
1969/12/31/18:00:10.756,(0 -12 0 14 5 -2 -5 -3)
1969/12/31/18:00:10.770,(-2 3 19 4 -1 0 1 3)
1969/12/31/18:00:10.770,(-4 -31 -34 -4 1 -1 1 3)
1969/12/31/18:00:10.771,(-2 -6 3 -9 -5 -2 -1 -3)
1969/12/31/18:00:10.771,(-4 0 -38 -32 -11 -7 -8 -9)
1969/12/31/18:00:10.792,(7 38 40 27 10 6 5 5)
1969/12/31/18:00:10.792,(1 -6 -5 -4 -3 -1 0 -1)
1969/12/31/18:00:10.794,(-15 -34 0 -2 1 1 -1 -3)
1969/12/31/18:00:10.794,(13 30 19 6 1 2 7 7)
1969/12/31/18:00:10.806,(-6 -15 -5 -4 0 -3 -11 -8)
1969/12/31/18:00:10.806,(7 41 27 14 3 3 4 4)
1969/12/31/18:00:10.815,(-4 -25 -25 -13 -4 0 1 6)
1969/12/31/18:00:10.815,(1 -11 13 14 5 2 -2 -5)
1969/12/31/18:00:10.830,(2 -4 -6 -13 -9 -4 -3 -2)
1969/12/31/18:00:10.830,(-6 3 3 -28 -12 -5 -2 -6)
1969/12/31/18:00:10.832,(5 8 -9 22 10 3 3 2)
1969/12/31/18:00:10.832,(-2 -6 29 27 9 6 4 4)
1969/12/31/18:00:10.852,(-2 -11 -14 -12 -8 -5 -2 -2)
1969/12/31/18:00:10.852,(-10 -22 -15 -24 -8 -3 -4 -5)
1969/12/31/18:00:10.854,(-6 -4 -3 5 -6 -5 -3 -5)
1969/12/31/18:00:10.854,(-13 3 28 -5 -4 -6 -9 -9)
1969/12/31/18:00:10.875,(25 32 -14 -4 0 0 1 4)
1969/12/31/18:00:10.875,(-2 -19 7 37 16 6 3 1)
1969/12/31/18:00:10.877,(-9 6 3 -13 -3 3 0 -1)
1969/12/31/18:00:10.877,(0 -14 -20 -3 0 -3 -3 -2)
1969/12/31/18:00:10.890,(-12 -20 -7 -7 -6 -3 -1 -5)
1969/12/31/18:00:10.890,(-1 -7 -17 -18 -9 -5 -4 -3)
1969/12/31/18:00:10.891,(22 77 20 9 6 1 1 2)
1969/12/31/18:00:10.891,(-7 -37 -17 -6 -4 -2 -2 -1)
1969/12/31/18:00:10.912,(3 20 8 -14 -4 -3 0 2)
1969/12/31/18:00:10.912,(-3 2 -12 -1 2 1 -1 -3)
1969/12/31/18:00:10.914,(-1 -14 20 22 1 2 0 -1)
1969/12/31/18:00:10.914,(-1 1 13 2 2 1 2 0)
1969/12/31/18:00:10.926,(-3 -7 7 2 0 2 4 3)
1969/12/31/18:00:10.926,(7 24 2 15 4 1 -1 1)
1969/12/31/18:00:10.935,(-4 -8 4 -12 -7 -6 -4 0)
1969/12/31/18:00:10.935,(1 5 -25 -24 -7 -2 -4 -4)
1969/12/31/18:00:10.950,(0 1 36 25 9 2 3 1)
1969/12/31/18:00:10.950,(-10 -18 -6 -2 -4 -3 -2 -2)
1969/12/31/18:00:10.951,(-1 -1 -22 -19 -6 -4 -5 -4)
1969/12/31/18:00:10.951,(6 16 9 6 2 1 1 1)
1969/12/31/18:00:10.974,(-12 -28 -27 -7 -1 -4 -3 -5)
1969/12/31/18:00:10.974,(-1 -3 5 2 1 0 0 2)
1969/12/31/18:00:10.975,(1 7 -7 -2 1 -2 0 1)
1969/12/31/18:00:10.975,(-3 -4 2 -1 -2 -1 -5 -4)
1969/12/31/18:00:10.986,(-6 -4 -3 -5 -7 -5 -5 -4)
1969/12/31/18:00:10.986,(6 10 18 22 9 1 1 1)
1969/12/31/18:00:10.995,(-2 1 11 7 4 3 0 -4)
1969/12/31/18:00:10.995,(-1 -3 5 1 -4 -2 0 -2)
1969/12/31/18:00:11.017,(-3 -8 -23 -19 -6 0 -1 0)
1969/12/31/18:00:11.017,(2 5 2 -1 0 1 1 1)
1969/12/31/18:00:11.019,(-5 -13 -4 -2 1 -1 -2 -3)
1969/12/31/18:00:11.019,(-3 -2 -6 -2 -3 -4 -3 -3)
1969/12/31/18:00:11.033,(-6 -12 -17 -9 -2 0 1 0)
1969/12/31/18:00:11.033,(4 4 20 17 5 1 1 2)
1969/12/31/18:00:11.034,(-6 -17 -12 -11 -4 -1 0 1)
1969/12/31/18:00:11.034,(12 69 35 7 5 1 0 -1)
1969/12/31/18:00:11.047,(-1 -1 7 9 6 -3 -7 -9)
1969/12/31/18:00:11.047,(-11 -19 -19 -7 -6 -2 3 2)
1969/12/31/18:00:11.063,(16 29 33 16 7 2 -7 -7)
1969/12/31/18:00:11.063,(-6 -23 -19 -25 -9 -3 -5 -3)
1969/12/31/18:00:11.069,(-2 1 -4 14 0 0 0 -1)
1969/12/31/18:00:11.069,(0 7 2 -8 -1 -2 -1 0)
1969/12/31/18:00:11.076,(-3 -12 -6 2 -2 -3 1 0)
1969/12/31/18:00:11.076,(-1 -14 -11 -10 -3 1 4 3)
1969/12/31/18:00:11.092,(-1 0 0 -1 -4 -1 1 -5)
1969/12/31/18:00:11.092,(-1 -3 0 1 -1 -3 -4 -4)
1969/12/31/18:00:11.094,(-2 1 -3 2 1 2 4 5)
1969/12/31/18:00:11.094,(0 0 -4 -2 -2 -2 1 3)
1969/12/31/18:00:11.106,(-6 -11 1 -4 -2 2 3 0)
1969/12/31/18:00:11.106,(5 13 18 8 1 -1 0 0)
1969/12/31/18:00:11.115,(-4 -9 -18 -12 -6 -4 0 -2)
1969/12/31/18:00:11.115,(1 -4 2 7 1 1 3 3)
1969/12/31/18:00:11.129,(3 5 10 11 4 2 0 4)
1969/12/31/18:00:11.129,(2 12 -7 -4 0 0 -5 -3)
1969/12/31/18:00:11.136,(0 9 22 5 0 2 2 1)
1969/12/31/18:00:11.136,(1 -5 -8 -1 -2 0 -1 -1)
1969/12/31/18:00:11.152,(-5 -16 -16 -10 -3 -1 -2 -3)
1969/12/31/18:00:11.152,(2 21 15 1 -2 -2 -3 -2)
1969/12/31/18:00:11.154,(-3 -5 -9 -2 -2 -1 0 -1)
1969/12/31/18:00:11.154,(-3 -11 4 3 0 -2 -3 -3)
1969/12/31/18:00:11.166,(2 2 -7 -20 -2 -1 1 2)
1969/12/31/18:00:11.166,(-3 -5 -7 10 -3 -1 0 0)
1969/12/31/18:00:11.182,(2 1 1 2 2 0 1 -1)
1969/12/31/18:00:11.182,(0 0 5 5 0 1 0 1)
1969/12/31/18:00:11.189,(-3 -3 -7 2 -2 -2 -4 -2)
1969/12/31/18:00:11.189,(-2 -8 -5 -12 -4 0 2 1)
1969/12/31/18:00:11.196,(1 4 0 1 -2 -2 -3 -1)
1969/12/31/18:00:11.196,(-6 -11 -3 -3 -4 0 -1 -4)
1969/12/31/18:00:11.212,(0 1 -10 -10 -4 -2 1 0)
1969/12/31/18:00:11.212,(-2 -6 -3 0 -1 -1 -3 -1)
1969/12/31/18:00:11.214,(0 4 11 6 3 2 1 1)
1969/12/31/18:00:11.214,(-2 -7 -18 -13 -4 -1 -1 0)
1969/12/31/18:00:11.234,(0 0 -4 -1 -3 -2 -2 1)
1969/12/31/18:00:11.234,(1 3 13 4 2 -1 2 3)
1969/12/31/18:00:11.243,(-2 -3 -2 -9 -8 -2 -2 -1)
1969/12/31/18:00:11.243,(-6 -8 -19 -12 -3 -2 -4 -5)
1969/12/31/18:00:11.249,(-3 -2 4 4 -2 -2 -2 -2)
1969/12/31/18:00:11.249,(-3 -16 -9 -1 -1 -1 -1 0)
1969/12/31/18:00:11.256,(-1 -4 -3 -3 0 -1 0 0)
1969/12/31/18:00:11.256,(0 11 9 4 1 -2 -1 -3)
1969/12/31/18:00:11.272,(-1 0 -3 1 0 -1 0 -1)
1969/12/31/18:00:11.272,(-1 1 9 1 -1 0 0 -2)
1969/12/31/18:00:11.274,(-3 -9 -6 -3 -2 -1 -2 -2)
1969/12/31/18:00:11.274,(-2 -5 0 1 -1 -3 0 1)
1969/12/31/18:00:11.295,(-2 0 2 -3 -1 0 1 -2)
1969/12/31/18:00:11.295,(-2 -2 1 -1 2 1 -2 -2)
1969/12/31/18:00:11.296,(0 1 -3 0 -1 -1 0 0)
1969/12/31/18:00:11.296,(-1 -2 2 5 0 -1 -1 -1)
1969/12/31/18:00:11.309,(-3 -5 2 -2 -2 -2 -2 -2)
1969/12/31/18:00:11.309,(1 1 -17 -9 -3 -4 -2 -3)
1969/12/31/18:00:11.316,(-3 -1 -1 1 0 -1 0 -1)
1969/12/31/18:00:11.316,(1 3 -1 -2 -3 -2 -2 0)
1969/12/31/18:00:11.332,(-1 -4 3 3 1 -2 1 1)
1969/12/31/18:00:11.332,(-2 2 4 2 2 0 -2 -1)
1969/12/31/18:00:11.334,(1 2 2 1 -2 0 -1 -2)
1969/12/31/18:00:11.334,(-1 1 5 1 0 -3 -1 -3)
1969/12/31/18:00:11.355,(-4 -8 -13 -7 -3 0 -1 -2)
1969/12/31/18:00:11.355,(-1 -5 -11 2 7 3 1 2)
1969/12/31/18:00:11.356,(-1 0 0 0 1 -1 -1 -2)
1969/12/31/18:00:11.356,(0 -3 3 8 4 2 -1 1)
1969/12/31/18:00:11.369,(0 0 0 0 2 1 -1 -1)
1969/12/31/18:00:11.369,(-4 -12 -12 -14 -9 -3 -1 0)
1969/12/31/18:00:11.376,(-3 0 2 1 1 1 -3 -3)
1969/12/31/18:00:11.376,(2 -1 -2 -4 -4 0 1 1)
1969/12/31/18:00:11.392,(-1 0 1 3 3 2 -1 -2)
1969/12/31/18:00:11.393,(-4 -5 -4 -3 -5 -2 -3 -4)
1969/12/31/18:00:11.394,(0 1 -1 1 2 0 -1 1)
1969/12/31/18:00:11.394,(-2 -3 1 2 -1 -2 -2 -3)
1969/12/31/18:00:11.415,(2 4 0 1 -2 0 0 1)
1969/12/31/18:00:11.415,(0 0 8 -1 -1 0 1 0)
1969/12/31/18:00:11.417,(-2 -3 -2 3 3 1 -1 -2)
1969/12/31/18:00:11.417,(-2 -4 -1 -3 0 1 -2 0)
1969/12/31/18:00:11.429,(0 -3 -8 -3 -3 -2 -1 2)
1969/12/31/18:00:11.429,(1 4 -4 3 7 4 2 2)
1969/12/31/18:00:11.438,(1 6 13 5 -1 -1 0 1)
1969/12/31/18:00:11.438,(-3 -6 -3 -1 -3 -1 -1 -1)
1969/12/31/18:00:11.452,(-1 -3 -10 -9 -3 -1 -2 -3)
1969/12/31/18:00:11.452,(-4 4 12 2 0 -2 -1 -2)
1969/12/31/18:00:11.454,(-1 -3 -6 -6 -3 -3 -2 -2)
1969/12/31/18:00:11.454,(-2 -5 -6 -3 0 -3 -1 -1)
1969/12/31/18:00:11.475,(-1 4 9 8 -1 -3 1 -3)
1969/12/31/18:00:11.475,(-1 -7 -2 -1 -1 -1 -1 -1)
1969/12/31/18:00:11.476,(-4 -14 -8 -7 -1 -1 0 -1)
1969/12/31/18:00:11.476,(2 14 6 6 5 2 -1 -1)
1969/12/31/18:00:11.488,(-1 -4 -3 -3 -3 -1 -1 -1)
1969/12/31/18:00:11.488,(1 2 -3 -4 -3 -1 0 2)
1969/12/31/18:00:11.497,(1 3 -3 -2 -3 -1 -1 -1)
1969/12/31/18:00:11.498,(-4 -10 -7 -3 -2 -1 -1 -3)
1969/12/31/18:00:11.512,(-4 -9 -10 -7 -2 -1 0 -3)
1969/12/31/18:00:11.512,(4 19 20 14 6 1 -1 0)
1969/12/31/18:00:11.514,(-3 -2 -4 -3 -3 -1 0 2)
1969/12/31/18:00:11.514,(-1 0 -3 -5 -3 -2 0 -2)
1969/12/31/18:00:11.535,(0 1 0 0 0 -1 -3 0)
1969/12/31/18:00:11.535,(-6 -16 -13 -10 -9 -2 -3 -5)
1969/12/31/18:00:11.536,(0 2 -6 -8 -4 -2 -1 0)
1969/12/31/18:00:11.536,(0 0 2 6 4 1 2 1)
1969/12/31/18:00:11.549,(0 0 7 9 5 1 0 0)
1969/12/31/18:00:11.549,(-1 3 -1 1 -2 -2 -3 -3)
1969/12/31/18:00:11.556,(-2 1 1 -2 -2 -2 -1 -1)
1969/12/31/18:00:11.556,(-3 -8 -9 -9 -6 -1 -2 -1)
