time,.data
1969/12/31/18:00:25.351,(-1 1 3 0 -1 -1 -1 -1)
1969/12/31/18:00:25.351,(-1 2 1 0 0 2 0 -1)
1969/12/31/18:00:25.363,(-1 1 -2 0 -2 1 2 0)
1969/12/31/18:00:25.363,(-2 -4 -5 -3 -2 -3 -2 -3)
1969/12/31/18:00:25.372,(0 -1 -1 -2 -1 -2 1 -3)
1969/12/31/18:00:25.372,(-4 -3 -3 -5 -4 -3 -3 -4)
1969/12/31/18:00:25.387,(2 1 0 0 -1 -1 -2 0)
1969/12/31/18:00:25.387,(0 1 2 4 1 0 0 1)
1969/12/31/18:00:25.393,(-1 -1 -3 -1 -2 -2 -1 -1)
1969/12/31/18:00:25.393,(0 -1 1 1 1 0 0 1)
1969/12/31/18:00:25.417,(-1 -3 -3 -3 -1 2 -1 -1)
1969/12/31/18:00:25.417,(-5 -5 -6 -2 -4 -1 -3 -4)
1969/12/31/18:00:25.419,(1 2 4 4 4 3 2 4)
1969/12/31/18:00:25.419,(-2 1 0 -3 0 0 -1 0)
1969/12/31/18:00:25.432,(-2 -2 -1 1 -1 -1 -1 -1)
1969/12/31/18:00:25.432,(1 3 4 2 0 1 0 0)
1969/12/31/18:00:25.434,(-1 -1 -1 -2 -2 0 0 -2)
1969/12/31/18:00:25.434,(0 -3 -3 0 0 0 -1 0)
1969/12/31/18:00:25.447,(-2 -4 -9 -9 -3 -1 0 -3)
1969/12/31/18:00:25.447,(0 1 1 -1 -2 -2 -2 -2)
1969/12/31/18:00:25.449,(-2 0 0 6 1 -2 -3 -1)
1969/12/31/18:00:25.449,(-1 0 -1 -2 0 -1 -1 0)
1969/12/31/18:00:25.470,(-2 -1 2 1 -2 -2 -4 -1)
1969/12/31/18:00:25.470,(0 -3 -4 -1 2 0 -1 0)
1969/12/31/18:00:25.471,(-1 2 -1 -5 -4 -4 1 0)
1969/12/31/18:00:25.471,(0 -2 -3 -2 -3 8 6 1)
1969/12/31/18:00:25.492,(-1 0 1 -2 3 -16 -16 -7)
1969/12/31/18:00:25.492,(0 -1 -4 0 2 0 11 4)
1969/12/31/18:00:25.494,(0 -6 -7 -23 -16 -10 -5 1)
1969/12/31/18:00:25.494,(3 6 12 29 15 10 -11 -3)
1969/12/31/18:00:25.507,(0 1 -4 0 4 9 7 2)
1969/12/31/18:00:25.507,(2 2 15 16 5 4 -5 2)
1969/12/31/18:00:25.513,(-4 -6 -13 -20 -10 8 22 1)
1969/12/31/18:00:25.513,(-7 -4 -7 -16 -12 -2 5 -6)
1969/12/31/18:00:25.530,(-3 -3 2 15 2 -25 -47 -13)
1969/12/31/18:00:25.530,(9 1 -16 -16 -3 -12 0 14)
1969/12/31/18:00:25.531,(-2 4 19 13 7 18 3 -14)
1969/12/31/18:00:25.531,(-1 -4 -2 -3 -1 -2 15 16)
1969/12/31/18:00:25.552,(16 2 -14 -9 -5 6 3 5)
1969/12/31/18:00:25.552,(-30 -3 12 4 -4 -2 -13 -35)
1969/12/31/18:00:25.554,(51 12 16 14 10 5 7 53)
1969/12/31/18:00:25.554,(3 -6 -9 -22 -9 -9 -9 -5)
1969/12/31/18:00:25.566,(-22 -11 -8 4 -8 -3 9 -3)
1969/12/31/18:00:25.566,(5 2 5 -3 1 0 -4 -1)
1969/12/31/18:00:25.575,(-17 -16 -24 -42 -8 -1 -2 -9)
1969/12/31/18:00:25.575,(-14 4 6 36 10 -3 -13 -23)
1969/12/31/18:00:25.590,(8 0 20 -20 -6 4 7 10)
1969/12/31/18:00:25.590,(1 5 4 38 8 4 1 -3)
1969/12/31/18:00:25.591,(-23 -14 -16 -5 1 -3 -7 -19)
1969/12/31/18:00:25.591,(6 -1 -11 -24 -9 -4 -2 8)
1969/12/31/18:00:25.612,(-5 -1 3 -2 0 3 1 -10)
1969/12/31/18:00:25.612,(3 3 13 -2 -7 0 3 2)
1969/12/31/18:00:25.614,(0 -2 -7 8 0 -8 -8 -2)
1969/12/31/18:00:25.614,(3 0 0 16 6 0 0 3)
1969/12/31/18:00:25.626,(1 1 -10 3 4 7 11 7)
1969/12/31/18:00:25.626,(-1 -8 -14 -31 -9 -2 0 3)
1969/12/31/18:00:25.635,(-5 1 2 17 -2 -6 -6 -3)
1969/12/31/18:00:25.635,(-4 -3 -15 -18 -3 -4 -4 -6)
1969/12/31/18:00:25.650,(-6 0 19 14 6 7 8 -1)
1969/12/31/18:00:25.650,(5 5 -3 -8 -7 -10 -9 1)
1969/12/31/18:00:25.651,(-8 0 -12 -11 -1 -5 -4 -10)
1969/12/31/18:00:25.651,(0 3 24 13 1 1 3 3)
1969/12/31/18:00:25.673,(2 -7 -9 1 -3 -2 1 1)
1969/12/31/18:00:25.673,(-4 -18 -32 -23 -5 1 1 3)
1969/12/31/18:00:25.674,(0 20 31 16 5 1 -2 -1)
1969/12/31/18:00:25.674,(-10 -47 -53 -17 -7 -8 -8 -7)
1969/12/31/18:00:25.686,(18 88 83 20 10 4 3 3)
1969/12/31/18:00:25.686,(-5 -23 -40 -9 -2 2 1 -2)
1969/12/31/18:00:25.695,(-7 22 30 4 -1 -3 -6 -8)
1969/12/31/18:00:25.695,(8 10 33 6 2 1 2 6)
1969/12/31/18:00:25.710,(-6 -15 13 5 0 -1 -1 -8)
1969/12/31/18:00:25.710,(0 0 -35 -10 -1 0 3 7)
1969/12/31/18:00:25.711,(3 70 66 36 11 1 -11 -19)
1969/12/31/18:00:25.711,(8 37 31 2 -4 -2 2 3)
1969/12/31/18:00:25.732,(-3 -31 -34 -11 -8 0 4 7)
1969/12/31/18:00:25.732,(-15 -25 12 11 1 0 -4 -13)
1969/12/31/18:00:25.734,(-9 -75 -62 -26 -14 -6 -1 -2)
1969/12/31/18:00:25.734,(-2 2 -8 -3 0 -1 -2 -5)
1969/12/31/18:00:25.762,(-2 -7 -20 -3 -1 -2 -3 -3)
1969/12/31/18:00:25.762,(5 10 13 3 1 -2 1 -2)
1969/12/31/18:00:25.764,(-8 -15 -21 -8 -4 -2 2 8)
1969/12/31/18:00:25.764,(3 -7 0 4 4 -2 -5 2)
1969/12/31/18:00:25.769,(-8 -7 -15 -12 -8 -4 -3 -13)
1969/12/31/18:00:25.769,(-6 -1 3 1 1 0 0 9)
1969/12/31/18:00:25.777,(13 9 7 5 4 2 2 8)
1969/12/31/18:00:25.777,(6 2 2 -1 -4 1 4 7)
1969/12/31/18:00:25.792,(-8 -18 -20 -6 -1 0 -3 -3)
1969/12/31/18:00:25.792,(8 18 12 2 -2 0 1 0)
1969/12/31/18:00:25.794,(-6 -12 -8 2 -2 -3 -6 -13)
1969/12/31/18:00:25.794,(-39 -17 -13 -5 -2 -5 -7 -20)
1969/12/31/18:00:25.806,(15 -2 -11 -6 -5 0 3 12)
1969/12/31/18:00:25.806,(7 17 23 8 3 1 -2 -6)
1969/12/31/18:00:25.815,(43 12 -6 -2 -4 -15 -4 21)
1969/12/31/18:00:25.815,(-14 -14 -6 -5 3 23 5 -5)
1969/12/31/18:00:25.830,(-48 -27 -14 -10 -7 -13 -14 -22)
1969/12/31/18:00:25.830,(2 12 11 2 -2 -9 4 -6)
1969/12/31/18:00:25.831,(24 13 1 6 7 9 1 15)
1969/12/31/18:00:25.831,(19 13 6 0 1 14 2 -5)
1969/12/31/18:00:25.852,(3 8 5 4 -1 -17 8 13)
1969/12/31/18:00:25.852,(-74 -37 -9 -3 1 14 -7 -41)
1969/12/31/18:00:25.854,(23 -24 -18 -9 -10 -22 -3 40)
1969/12/31/18:00:25.854,(23 22 -1 -3 1 6 -5 6)
1969/12/31/18:00:25.866,(5 -2 -5 0 4 17 -4 -13)
1969/12/31/18:00:25.866,(49 25 6 5 5 7 23 41)
1969/12/31/18:00:25.875,(-26 -7 1 -1 -7 -8 -8 -19)
1969/12/31/18:00:25.875,(-36 -19 -5 0 -4 -22 -20 -26)
1969/12/31/18:00:25.890,(-11 -25 -19 -11 -3 19 19 19)
1969/12/31/18:00:25.890,(2 13 10 6 4 7 -16 -25)
1969/12/31/18:00:25.891,(-29 -9 -5 -5 -7 -25 -21 -1)
1969/12/31/18:00:25.891,(42 -1 -9 2 -3 -10 19 25)
1969/12/31/18:00:25.912,(23 18 10 6 3 -11 18 26)
1969/12/31/18:00:25.912,(20 -1 -3 -1 -1 7 19 27)
1969/12/31/18:00:25.914,(-4 -8 2 2 17 56 50 -13)
1969/12/31/18:00:25.914,(-39 -9 4 2 -13 -32 -46 -13)
1969/12/31/18:00:25.926,(-15 18 9 7 2 -7 -21 -32)
1969/12/31/18:00:25.926,(-3 -32 -18 -13 -8 -10 -18 -20)
1969/12/31/18:00:25.935,(17 21 1 -3 -3 -10 11 27)
1969/12/31/18:00:25.935,(-7 -1 2 -1 2 14 25 9)
1969/12/31/18:00:25.950,(-23 -20 -5 1 -7 -6 -14 -29)
1969/12/31/18:00:25.950,(-4 10 6 2 14 -8 -15 1)
1969/12/31/18:00:25.951,(-57 -38 -21 -9 -7 -9 -26 -37)
1969/12/31/18:00:25.951,(20 4 -11 -9 -1 25 24 -16)
1969/12/31/18:00:25.972,(10 8 5 -1 -5 1 29 21)
1969/12/31/18:00:25.972,(-24 -14 -9 -3 -5 -13 -17 -16)
1969/12/31/18:00:25.974,(55 32 11 3 7 34 2 17)
1969/12/31/18:00:25.974,(-11 -21 -4 1 -2 -21 -16 1)
1969/12/31/18:00:25.986,(6 -3 -1 4 14 33 1 -6)
1969/12/31/18:00:25.986,(18 21 13 6 -8 -13 13 18)
1969/12/31/18:00:25.995,(11 -19 -15 -11 -10 -39 -37 10)
1969/12/31/18:00:25.995,(8 6 0 -7 -1 40 44 11)
1969/12/31/18:00:26.010,(14 4 3 4 -2 -33 -74 -13)
1969/12/31/18:00:26.010,(-9 -11 -9 -4 0 14 7 0)
1969/12/31/18:00:26.012,(-23 -5 0 3 -1 5 -5 -13)
1969/12/31/18:00:26.012,(-13 -5 -4 -2 -2 -26 -11 -12)
1969/12/31/18:00:26.032,(-8 9 1 -4 -4 -3 32 -7)
1969/12/31/18:00:26.032,(25 1 2 2 3 30 39 96)
1969/12/31/18:00:26.034,(-17 2 2 0 -5 -15 -23 -30)
1969/12/31/18:00:26.034,(20 5 2 1 4 4 8 11)
1969/12/31/18:00:26.046,(-12 -12 -8 -3 0 7 35 -27)
1969/12/31/18:00:26.046,(34 43 14 6 -4 -34 -45 0)
1969/12/31/18:00:26.055,(-46 -28 -10 -6 -7 16 33 -7)
1969/12/31/18:00:26.055,(-1 -1 9 10 17 -22 -41 -1)
1969/12/31/18:00:26.070,(62 11 -2 -3 -4 -19 14 76)
1969/12/31/18:00:26.070,(0 -5 2 -1 2 16 19 -13)
1969/12/31/18:00:26.071,(42 22 7 4 3 12 -9 0)
1969/12/31/18:00:26.071,(-26 -9 -8 -5 -7 -7 -8 -35)
1969/12/31/18:00:26.092,(20 6 -2 -3 -2 -9 -33 1)
1969/12/31/18:00:26.092,(28 -4 -7 -8 -4 -12 -20 11)
1969/12/31/18:00:26.094,(-33 -25 2 8 15 39 25 -2)
1969/12/31/18:00:26.094,(23 23 4 -4 -14 -40 30 18)
1969/12/31/18:00:26.115,(1 27 20 14 14 17 12 -17)
1969/12/31/18:00:26.115,(-43 -36 -18 -13 -12 -6 -21 -34)
1969/12/31/18:00:26.116,(-35 16 5 4 4 1 22 5)
1969/12/31/18:00:26.116,(53 5 4 5 5 11 -5 27)
1969/12/31/18:00:26.128,(-35 -14 -21 -18 -14 -8 -20 -48)
1969/12/31/18:00:26.128,(14 3 0 -2 -3 0 22 -1)
1969/12/31/18:00:26.138,(14 10 10 5 4 -11 2 5)
1969/12/31/18:00:26.138,(-59 -15 -7 -6 -4 11 23 23)
1969/12/31/18:00:26.152,(-7 -2 -2 0 -6 5 -14 -63)
1969/12/31/18:00:26.152,(2 -9 -6 0 3 6 7 16)
1969/12/31/18:00:26.154,(-17 -40 -37 -21 -15 -15 -13 -27)
1969/12/31/18:00:26.154,(-13 11 12 10 8 13 -23 0)
1969/12/31/18:00:26.166,(-13 44 65 26 12 11 14 5)
1969/12/31/18:00:26.166,(0 3 -1 0 -4 -4 6 -15)
1969/12/31/18:00:26.175,(6 -8 -11 -10 -9 -18 -12 14)
1969/12/31/18:00:26.175,(23 2 0 8 7 5 -5 -6)
1969/12/31/18:00:26.189,(-67 -60 -37 -16 -8 -12 -21 -6)
1969/12/31/18:00:26.189,(-14 7 2 -2 -4 -19 40 -10)
1969/12/31/18:00:26.196,(8 9 10 3 4 -25 -47 -29)
1969/12/31/18:00:26.196,(-24 -29 -26 -18 -9 12 16 -12)
1969/12/31/18:00:26.212,(32 19 6 4 2 -12 -22 8)
1969/12/31/18:00:26.212,(-41 -25 -7 -2 -2 5 -37 -45)
1969/12/31/18:00:26.214,(15 3 1 1 -1 -7 23 22)
1969/12/31/18:00:26.214,(-49 -13 -4 -7 -9 19 21 -12)
1969/12/31/18:00:26.226,(35 -14 -17 -8 -4 -15 -40 20)
1969/12/31/18:00:26.226,(-6 -7 -1 -2 0 7 5 11)
1969/12/31/18:00:26.235,(31 24 9 5 3 -1 0 -1)
1969/12/31/18:00:26.235,(-47 -6 -2 -1 -2 -6 -35 -29)
1969/12/31/18:00:26.249,(16 -17 -14 -10 -6 19 27 40)
1969/12/31/18:00:26.249,(-21 -8 -4 -4 4 16 -17 -28)
1969/12/31/18:00:26.256,(-18 3 5 3 25 56 -26 -47)
1969/12/31/18:00:26.256,(35 23 0 -7 -39 -87 -14 -9)
1969/12/31/18:00:26.272,(5 -16 -19 -13 0 -4 15 38)
1969/12/31/18:00:26.272,(-8 -1 9 3 -10 1 -24 -16)
1969/12/31/18:00:26.274,(-24 9 10 3 5 41 -5 4)
1969/12/31/18:00:26.274,(34 -2 -8 2 37 73 19 12)
1969/12/31/18:00:26.286,(-27 -16 -3 0 -18 -37 -22 -21)
1969/12/31/18:00:26.286,(15 11 0 -3 -14 -40 -12 12)
1969/12/31/18:00:26.295,(9 5 4 4 -2 3 23 30)
1969/12/31/18:00:26.295,(32 5 7 3 2 -36 9 21)
1969/12/31/18:00:26.310,(-31 35 9 5 4 13 -12 -20)
1969/12/31/18:00:26.310,(-14 -46 -11 3 23 27 5 -14)
1969/12/31/18:00:26.316,(5 -5 -2 11 8 -40 31 0)
1969/12/31/18:00:26.316,(8 12 5 -16 -52 -27 -24 7)
1969/12/31/18:00:26.332,(-14 15 5 -2 -10 -2 -10 -30)
1969/12/31/18:00:26.332,(-3 -4 -11 -16 -25 -23 34 40)
1969/12/31/18:00:26.334,(13 7 4 -2 13 6 -18 -24)
1969/12/31/18:00:26.334,(-16 -13 6 22 35 10 -2 -6)
1969/12/31/18:00:26.355,(55 12 7 14 -4 37 25 44)
1969/12/31/18:00:26.355,(10 0 -8 9 90 47 27 19)
1969/12/31/18:00:26.356,(-8 -5 -9 -23 -99 -32 -10 0)
1969/12/31/18:00:26.356,(-18 -2 -1 -18 -29 -48 -25 -4)
1969/12/31/18:00:26.369,(1 -19 -14 -5 7 -10 21 11)
1969/12/31/18:00:26.369,(0 49 59 26 -4 -11 -21 -18)
1969/12/31/18:00:26.376,(7 4 -4 5 48 34 25 4)
1969/12/31/18:00:26.376,(14 17 10 6 15 26 -1 0)
1969/12/31/18:00:26.392,(-37 -49 -22 -9 -13 -6 -2 -14)
1969/12/31/18:00:26.392,(36 0 -12 4 1 8 4 17)
1969/12/31/18:00:26.394,(-12 -4 6 20 39 -9 -7 9)
1969/12/31/18:00:26.394,(-2 -1 -5 -10 -43 -28 1 -1)
1969/12/31/18:00:26.415,(0 7 -5 -4 18 24 9 5)
1969/12/31/18:00:26.415,(-22 15 5 -10 -5 20 -1 -9)
1969/12/31/18:00:26.416,(-2 -3 8 -4 -11 -19 -9 -7)
1969/12/31/18:00:26.416,(-2 -16 -30 -6 3 0 -4 -15)
1969/12/31/18:00:26.430,(-2 30 58 48 38 13 11 -5)
1969/12/31/18:00:26.430,(25 36 7 -32 -56 -20 -12 14)
1969/12/31/18:00:26.436,(-10 -9 -22 -9 11 29 21 13)
1969/12/31/18:00:26.436,(-14 3 10 7 21 12 -6 -10)
1969/12/31/18:00:26.452,(-16 -7 3 -5 -10 -36 -9 -13)
1969/12/31/18:00:26.452,(13 -4 -1 17 2 -10 -6 17)
1969/12/31/18:00:26.454,(-25 -30 -5 -11 -20 -13 13 20)
1969/12/31/18:00:26.454,(43 -21 -26 -4 8 28 8 15)
1969/12/31/18:00:26.475,(-9 -44 -73 -33 -6 15 4 3)
1969/12/31/18:00:26.475,(34 87 88 28 4 -15 -2 1)
1969/12/31/18:00:26.476,(-8 -81 -48 -11 6 10 -15 -28)
1969/12/31/18:00:26.476,(-4 90 53 45 28 -11 15 -5)
1969/12/31/18:00:26.489,(62 101 90 30 -4 18 20 40)
1969/12/31/18:00:26.489,(-57 -93 -81 -23 -22 2 0 -27)
1969/12/31/18:00:26.496,(40 10 -3 4 6 -14 6 72)
1969/12/31/18:00:26.496,(-7 -77 -68 -48 -6 -7 -36 -33)
1969/12/31/18:00:26.512,(-19 -57 -71 -35 -17 -3 -19 -24)
1969/12/31/18:00:26.512,(-9 30 31 17 4 12 22 1)
1969/12/31/18:00:26.514,(-25 -70 -72 -24 -36 -28 -12 -15)
1969/12/31/18:00:26.514,(46 -17 -14 1 14 14 23 57)
1969/12/31/18:00:26.535,(-14 63 46 16 26 -1 0 4)
1969/12/31/18:00:26.535,(69 27 -5 -25 -12 -19 -35 -6)
1969/12/31/18:00:26.536,(-16 -8 64 39 -21 -1 -18 -39)
1969/12/31/18:00:26.536,(-41 -23 -27 0 8 22 1 -38)
1969/12/31/18:00:26.548,(-5 11 1 -6 -5 -7 -6 -23)
1969/12/31/18:00:26.548,(-20 -64 -34 -4 15 1 2 0)
1969/12/31/18:00:26.557,(29 -4 -52 -28 -4 -9 8 10)
1969/12/31/18:00:26.557,(52 80 102 45 -8 5 23 69)
1969/12/31/18:00:26.572,(0 -42 23 12 11 9 12 -10)
1969/12/31/18:00:26.572,(-41 -35 -99 -57 -12 -17 -19 -16)
1969/12/31/18:00:26.574,(10 119 114 76 19 -4 -7 -27)
1969/12/31/18:00:26.574,(-105 -128 -107 -16 34 19 8 -38)
1969/12/31/18:00:26.595,(31 -45 -77 -37 -65 -21 -20 -3)
1969/12/31/18:00:26.595,(7 11 33 32 -2 -2 23 18)
1969/12/31/18:00:26.596,(-48 -124 -128 -60 -14 -13 -20 -26)
1969/12/31/18:00:26.596,(33 127 54 22 14 4 11 47)
1969/12/31/18:00:26.608,(-21 -32 7 8 8 -4 1 -12)
1969/12/31/18:00:26.608,(-32 -52 -43 -27 -31 -7 -10 -21)
1969/12/31/18:00:26.617,(27 127 127 64 25 15 2 -10)
1969/12/31/18:00:26.617,(8 -128 -110 -51 -32 -6 -12 5)
1969/12/31/18:00:26.632,(15 67 8 11 0 -26 -6 11)
1969/12/31/18:00:26.632,(-24 -65 -32 22 9 8 -6 -8)
1969/12/31/18:00:26.634,(-41 -90 -115 -94 10 11 -1 18)
1969/12/31/18:00:26.634,(78 117 127 116 30 13 3 -9)
1969/12/31/18:00:26.655,(40 -105 -112 -19 1 -1 9 45)
1969/12/31/18:00:26.655,(-20 -52 -18 -8 0 -13 -19 -41)
1969/12/31/18:00:26.656,(15 -64 -13 25 12 6 39 43)
1969/12/31/18:00:26.656,(-65 -116 -108 -105 -72 22 -16 -39)
1969/12/31/18:00:26.668,(35 113 112 31 18 10 13 35)
1969/12/31/18:00:26.668,(74 113 75 67 49 -12 13 51)
1969/12/31/18:00:26.677,(62 56 4 -6 -26 5 7 9)
1969/12/31/18:00:26.677,(7 -15 10 6 1 -11 11 12)
1969/12/31/18:00:26.692,(-21 -22 -45 -10 -10 -9 -31 -25)
1969/12/31/18:00:26.692,(-55 -123 -52 -6 17 17 28 37)
1969/12/31/18:00:26.694,(-22 111 60 11 -18 -7 -20 -40)
1969/12/31/18:00:26.694,(35 -45 -50 -18 -8 -21 -13 -3)
1969/12/31/18:00:26.715,(1 -68 -28 -19 -2 17 7 -1)
1969/12/31/18:00:26.715,(26 63 21 2 7 -13 -12 -17)
1969/12/31/18:00:26.716,(-48 -128 -121 -33 -8 -5 -9 -27)
1969/12/31/18:00:26.716,(-11 17 -1 -18 -28 -21 -11 -21)
1969/12/31/18:00:26.730,(-6 40 69 45 59 47 23 18)
1969/12/31/18:00:26.730,(-33 -47 -94 -40 -21 32 6 2)
1969/12/31/18:00:26.737,(107 90 75 97 70 -12 14 76)
1969/12/31/18:00:26.737,(-67 -114 -102 -59 -53 -26 -10 -52)
1969/12/31/18:00:26.752,(-41 -81 -83 -23 17 11 -2 -30)
1969/12/31/18:00:26.752,(-18 -11 22 -4 -22 -5 18 4)
1969/12/31/18:00:26.754,(32 -104 -61 -37 -27 -26 -16 -3)
1969/12/31/18:00:26.754,(48 72 3 5 24 32 27 87)
1969/12/31/18:00:26.775,(14 13 15 30 13 -58 -55 -61)
1969/12/31/18:00:26.775,(12 -80 -69 9 14 -8 5 -21)
1969/12/31/18:00:26.776,(-1 106 114 18 -2 82 29 13)
1969/12/31/18:00:26.776,(3 -37 -16 -1 -3 -13 1 -19)
1969/12/31/18:00:26.788,(-22 -53 -29 -22 -28 12 14 -8)
1969/12/31/18:00:26.788,(14 -10 -13 -5 12 -26 -19 1)
1969/12/31/18:00:26.797,(-40 -68 -30 -26 -31 -25 4 -7)
1969/12/31/18:00:26.797,(3 21 -35 -18 -10 -8 -20 -9)
1969/12/31/18:00:26.812,(-3 108 92 44 11 15 15 61)
1969/12/31/18:00:26.812,(-52 -13 16 17 -10 -29 -28 -67)
1969/12/31/18:00:26.814,(9 -24 -53 -23 12 15 -13 3)
1969/12/31/18:00:26.814,(-40 -39 12 11 -2 -17 -25 -33)
1969/12/31/18:00:26.842,(-35 -11 1 -14 6 -13 0 -15)
1969/12/31/18:00:26.842,(4 47 17 -19 -35 25 13 8)
1969/12/31/18:00:26.844,(-18 14 8 26 20 4 -10 -26)
1969/12/31/18:00:26.844,(-14 -11 23 31 35 -16 -6 -48)
1969/12/31/18:00:26.848,(0 -89 -75 -65 -87 -6 4 14)
1969/12/31/18:00:26.848,(45 127 110 33 -2 5 -17 -12)
1969/12/31/18:00:26.865,(20 3 6 14 17 5 8 4)
1969/12/31/18:00:26.865,(20 -29 -5 11 33 -19 0 27)
1969/12/31/18:00:26.872,(-31 -88 -75 -8 -5 0 -16 -31)
1969/12/31/18:00:26.872,(51 63 61 18 -1 10 16 17)
1969/12/31/18:00:26.874,(3 -45 -67 -50 -39 -23 -17 14)
1969/12/31/18:00:26.874,(-22 -32 -34 -3 15 12 3 15)
1969/12/31/18:00:26.894,(46 81 61 12 1 -8 12 63)
1969/12/31/18:00:26.894,(14 20 -2 6 16 1 1 12)
1969/12/31/18:00:26.895,(-55 -14 28 20 2 -5 -2 -24)
1969/12/31/18:00:26.895,(27 1 -9 -7 7 -19 -2 16)
1969/12/31/18:00:26.917,(-50 -67 -43 -15 5 63 35 -11)
1969/12/31/18:00:26.917,(22 15 -4 -12 -18 -31 -15 7)
1969/12/31/18:00:26.917,(-35 -32 -30 -18 -20 -12 -2 -13)
1969/12/31/18:00:26.917,(-9 96 83 34 17 11 3 19)
1969/12/31/18:00:26.931,(-56 -111 -98 -21 17 -22 -15 -35)
1969/12/31/18:00:26.932,(11 70 15 -13 18 60 26 31)
1969/12/31/18:00:26.932,(-37 -24 -10 7 -2 -10 -9 -40)
1969/12/31/18:00:26.932,(34 -68 -69 -40 -32 33 21 31)
1969/12/31/18:00:26.954,(40 127 127 63 15 -11 9 8)
1969/12/31/18:00:26.954,(-32 -122 -88 -30 -34 -49 -33 -30)
1969/12/31/18:00:26.955,(24 44 20 5 4 -6 4 13)
1969/12/31/18:00:26.955,(-37 -28 -5 12 18 10 -12 -36)
1969/12/31/18:00:26.977,(10 -62 -52 -31 -22 -14 2 -12)
1969/12/31/18:00:26.977,(-6 -19 -8 8 27 22 11 -4)
1969/12/31/18:00:26.977,(15 119 109 18 -4 10 -11 -45)
1969/12/31/18:00:26.977,(-27 -31 10 13 16 -8 -2 -6)
1969/12/31/18:00:26.991,(7 -35 -54 -22 0 -4 -1 -19)
1969/12/31/18:00:26.991,(-21 -44 -21 -19 -31 4 -11 6)
1969/12/31/18:00:26.992,(-18 -17 -54 -13 5 0 -23 -18)
1969/12/31/18:00:26.992,(26 46 71 32 -6 18 18 16)
1969/12/31/18:00:27.014,(6 -6 -15 -9 10 -9 -10 -5)
1969/12/31/18:00:27.014,(-22 -38 -39 5 10 -7 5 -2)
1969/12/31/18:00:27.015,(-11 -42 -25 0 -19 -30 5 2)
1969/12/31/18:00:27.015,(-17 30 24 -8 -12 3 -1 -4)
1969/12/31/18:00:27.037,(19 21 5 9 17 -2 -10 -7)
1969/12/31/18:00:27.037,(16 -49 -52 -22 -12 3 -17 -10)
1969/12/31/18:00:27.037,(-64 -7 -3 -27 -26 5 19 18)
1969/12/31/18:00:27.037,(43 117 101 46 19 -5 -7 -47)
1969/12/31/18:00:27.061,(15 -36 -43 -4 1 3 8 29)
1969/12/31/18:00:27.061,(-3 98 99 36 8 -3 -3 -6)
1969/12/31/18:00:27.062,(-12 -118 -85 -21 5 -3 -3 9)
1969/12/31/18:00:27.062,(-26 -14 -50 -21 -9 -31 -15 15)
1969/12/31/18:00:27.075,(26 66 72 31 18 33 14 -3)
1969/12/31/18:00:27.075,(-38 -97 -69 -6 -14 -38 -18 -37)
1969/12/31/18:00:27.075,(42 51 -41 -25 -20 3 -6 16)
1969/12/31/18:00:27.075,(21 35 58 10 20 29 16 17)
1969/12/31/18:00:27.096,(-24 -98 -58 -14 -7 -10 -15 -16)
1969/12/31/18:00:27.096,(-30 21 5 -2 6 18 -6 -10)
1969/12/31/18:00:27.097,(20 -17 30 27 33 -4 12 16)
1969/12/31/18:00:27.097,(2 -40 -76 -34 -18 13 5 3)
1969/12/31/18:00:27.111,(29 113 80 14 -24 -32 1 34)
1969/12/31/18:00:27.111,(62 70 83 27 7 -21 -1 9)
1969/12/31/18:00:27.112,(-20 -63 -36 -14 17 18 13 34)
1969/12/31/18:00:27.112,(-52 -74 -64 -25 -4 17 -23 -64)
1969/12/31/18:00:27.135,(3 16 52 24 3 -13 3 21)
1969/12/31/18:00:27.135,(-15 -69 -48 -28 -20 -14 -13 -5)
1969/12/31/18:00:27.135,(77 123 83 32 10 -21 6 32)
1969/12/31/18:00:27.135,(-41 -7 26 15 5 11 5 -36)
1969/12/31/18:00:27.157,(9 -70 -106 -40 -7 -11 -22 -19)
1969/12/31/18:00:27.157,(-24 7 37 16 9 -6 -11 -17)
1969/12/31/18:00:27.157,(43 -49 -24 3 -9 19 -3 9)
1969/12/31/18:00:27.157,(-4 -35 -49 -33 -35 -34 -8 0)
1969/12/31/18:00:27.171,(-42 -48 -4 -5 -8 8 0 -24)
1969/12/31/18:00:27.171,(35 81 51 3 0 17 22 42)
1969/12/31/18:00:27.172,(-9 -82 -50 -2 42 7 -14 -30)
1969/12/31/18:00:27.172,(6 32 28 5 -9 -24 -1 19)
1969/12/31/18:00:27.194,(-49 -87 -16 -11 -3 -4 -11 -3)
1969/12/31/18:00:27.194,(-8 31 -26 -13 -10 19 24 4)
1969/12/31/18:00:27.195,(-3 20 -4 1 -13 -39 -29 -50)
1969/12/31/18:00:27.195,(10 5 0 9 20 59 28 31)
1969/12/31/18:00:27.216,(23 31 -5 17 29 28 6 43)
1969/12/31/18:00:27.216,(-36 -128 -83 -43 -37 -22 -20 -53)
1969/12/31/18:00:27.217,(-46 -56 -48 -23 -13 -11 -14 -39)
1969/12/31/18:00:27.217,(0 78 60 9 3 -22 0 26)
1969/12/31/18:00:27.231,(54 -30 -42 -9 6 3 12 20)
1969/12/31/18:00:27.231,(-8 23 8 -11 -14 24 2 -16)
1969/12/31/18:00:27.232,(2 32 20 5 -1 1 18 33)
1969/12/31/18:00:27.232,(-8 -27 28 19 3 -15 -25 -36)
1969/12/31/18:00:27.254,(-24 -21 -33 -15 -10 -27 -14 -56)
1969/12/31/18:00:27.254,(-43 28 31 20 42 23 10 30)
1969/12/31/18:00:27.255,(14 95 103 11 -16 18 25 35)
1969/12/31/18:00:27.255,(-3 -58 -68 -18 5 21 -15 -10)
1969/12/31/18:00:27.277,(34 70 56 5 1 19 25 38)
1969/12/31/18:00:27.277,(3 22 41 42 8 -13 0 -9)
1969/12/31/18:00:27.277,(-22 -56 -25 14 16 11 -18 -57)
1969/12/31/18:00:27.277,(16 21 -10 -11 -20 -10 -10 0)
1969/12/31/18:00:27.291,(-20 23 28 20 16 -27 -3 -18)
1969/12/31/18:00:27.291,(-19 -128 -128 -63 -32 -3 8 40)
1969/12/31/18:00:27.293,(34 127 127 51 20 9 21 38)
1969/12/31/18:00:27.293,(15 -6 -4 -10 -15 -20 -15 -11)
1969/12/31/18:00:27.314,(-66 -13 -2 8 16 5 -15 -69)
1969/12/31/18:00:27.314,(9 -68 -64 -25 -21 -15 -5 3)
1969/12/31/18:00:27.315,(-4 30 8 -6 -13 -10 3 2)
1969/12/31/18:00:27.315,(-16 -5 -17 -10 -29 -20 10 6)
1969/12/31/18:00:27.337,(-13 -13 -50 -38 -1 25 -7 3)
1969/12/31/18:00:27.337,(-12 14 -25 4 16 -12 -4 -1)
1969/12/31/18:00:27.337,(18 -66 -56 1 7 15 2 -6)
1969/12/31/18:00:27.337,(-1 -3 -65 -21 -23 -32 -6 18)
1969/12/31/18:00:27.360,(6 117 127 64 25 7 20 -6)
1969/12/31/18:00:27.360,(3 -37 -37 2 29 34 -1 36)
1969/12/31/18:00:27.361,(-16 -42 -60 -60 -60 -17 -10 -33)
1969/12/31/18:00:27.361,(13 -14 40 31 20 11 20 29)
1969/12/31/18:00:27.374,(14 -112 -98 -49 -51 -34 -6 28)
1969/12/31/18:00:27.374,(39 92 85 27 14 8 11 16)
1969/12/31/18:00:27.375,(-5 -21 -29 -10 11 -3 -12 5)
1969/12/31/18:00:27.375,(-4 86 102 63 40 25 8 0)
1969/12/31/18:00:27.397,(2 6 15 3 -20 -12 -11 2)
1969/12/31/18:00:27.397,(6 19 49 39 29 19 32 19)
1969/12/31/18:00:27.397,(22 -49 -64 -29 -18 -5 -7 -6)
1969/12/31/18:00:27.397,(6 -52 -76 -34 -10 -15 -19 -25)
1969/12/31/18:00:27.411,(-23 2 15 -2 -24 9 11 7)
1969/12/31/18:00:27.411,(31 40 22 10 21 12 -7 2)
1969/12/31/18:00:27.419,(-38 -36 -1 0 -5 -20 -6 -16)
1969/12/31/18:00:27.419,(-4 -59 -41 2 15 34 25 33)
1969/12/31/18:00:27.434,(21 58 3 -9 -24 -17 -17 -14)
1969/12/31/18:00:27.434,(-4 -44 -15 2 4 3 15 27)
1969/12/31/18:00:27.435,(-77 -25 -16 -13 -14 -8 -21 -57)
1969/12/31/18:00:27.435,(-8 3 9 -7 11 -1 1 -8)
1969/12/31/18:00:27.457,(19 -32 -33 -4 -6 -1 -5 8)
1969/12/31/18:00:27.457,(19 -34 -47 -21 -1 -14 -1 -10)
1969/12/31/18:00:27.458,(-7 46 24 18 14 6 -3 14)
1969/12/31/18:00:27.458,(-14 56 87 33 3 4 12 17)
1969/12/31/18:00:27.472,(-17 6 -31 -5 3 -12 -3 -26)
1969/12/31/18:00:27.472,(-31 49 5 -6 -9 12 -1 -28)
1969/12/31/18:00:27.473,(30 -47 0 14 11 -27 -22 -48)
1969/12/31/18:00:27.473,(19 61 30 -11 -27 -2 -5 1)
1969/12/31/18:00:27.502,(-10 -34 -15 -10 4 22 20 21)
1969/12/31/18:00:27.502,(3 -17 -41 -16 -16 -33 -30 -14)
1969/12/31/18:00:27.503,(-14 2 15 5 7 8 21 45)
1969/12/31/18:00:27.503,(-15 -108 -87 -37 -19 -12 -8 -17)
1969/12/31/18:00:27.517,(11 35 4 -9 -4 7 -16 -28)
1969/12/31/18:00:27.517,(-29 -60 1 -15 7 5 16 38)
1969/12/31/18:00:27.518,(48 94 74 38 2 -6 13 22)
1969/12/31/18:00:27.518,(68 27 29 23 23 13 -5 18)
1969/12/31/18:00:27.532,(-48 -30 -63 -34 -32 -13 3 -2)
1969/12/31/18:00:27.532,(28 -49 -14 10 -2 -2 -7 -9)
1969/12/31/18:00:27.533,(-15 -79 -85 -21 -9 -35 -10 16)
1969/12/31/18:00:27.533,(8 64 42 -3 -2 24 17 14)
1969/12/31/18:00:27.554,(-17 13 48 50 37 8 5 34)
1969/12/31/18:00:27.554,(-60 -30 -13 -45 -37 -24 -34 -57)
1969/12/31/18:00:27.555,(12 16 3 -2 7 33 8 10)
1969/12/31/18:00:27.555,(-29 -102 -102 -40 -22 -23 -15 -38)
1969/12/31/18:00:27.577,(4 43 42 11 23 12 -1 -12)
1969/12/31/18:00:27.577,(21 87 90 58 7 5 19 5)
1969/12/31/18:00:27.577,(5 -94 -93 -36 -14 8 6 34)
1969/12/31/18:00:27.577,(-24 88 51 10 4 -18 -25 -30)
1969/12/31/18:00:27.592,(20 -84 -52 7 30 18 7 25)
1969/12/31/18:00:27.592,(-20 -28 -33 -25 -29 -28 -16 -29)
1969/12/31/18:00:27.592,(-13 7 -1 -14 -19 2 13 20)
1969/12/31/18:00:27.592,(-68 -95 -93 -30 5 19 -4 -42)
1969/12/31/18:00:27.614,(55 113 102 66 6 -11 -5 6)
1969/12/31/18:00:27.614,(-19 -84 -91 -24 3 0 -3 -18)
1969/12/31/18:00:27.615,(-34 -46 2 1 5 9 -9 -47)
1969/12/31/18:00:27.615,(-26 55 51 27 0 -37 -11 -12)
1969/12/31/18:00:27.637,(-49 -56 -60 -34 -12 -30 -47 -65)
1969/12/31/18:00:27.637,(53 65 58 11 -11 18 -2 -20)
1969/12/31/18:00:27.637,(21 41 40 -1 -21 -39 2 11)
1969/12/31/18:00:27.637,(2 -88 -53 -8 18 22 0 13)
1969/12/31/18:00:27.652,(-12 -44 -27 -10 13 4 16 5)
1969/12/31/18:00:27.652,(30 11 28 9 21 -2 -4 12)
1969/12/31/18:00:27.653,(19 -6 -53 -24 4 37 4 -3)
1969/12/31/18:00:27.653,(28 127 127 57 0 -20 10 29)
1969/12/31/18:00:27.674,(43 -11 -26 -12 -7 -7 -4 15)
1969/12/31/18:00:27.674,(-35 -79 -97 -35 -9 -11 -3 -19)
1969/12/31/18:00:27.675,(-16 127 112 51 34 2 -4 -23)
1969/12/31/18:00:27.675,(25 -65 -71 -24 -5 10 1 15)
1969/12/31/18:00:27.697,(1 -4 14 3 -7 16 21 17)
1969/12/31/18:00:27.697,(-45 -43 -22 -6 -1 0 10 -8)
1969/12/31/18:00:27.698,(-23 -28 -38 -5 -1 8 -3 -12)
1969/12/31/18:00:27.698,(-17 -41 -6 -10 -26 -6 -3 7)
1969/12/31/18:00:27.712,(-53 -28 -25 -9 0 -5 -24 -60)
1969/12/31/18:00:27.712,(60 14 15 6 -9 6 -9 -30)
1969/12/31/18:00:27.712,(8 0 -4 -5 -7 1 21 11)
1969/12/31/18:00:27.712,(5 -25 -8 8 33 -6 8 20)
1969/12/31/18:00:27.734,(13 -8 -17 -23 -28 2 14 12)
1969/12/31/18:00:27.734,(-3 -12 -4 5 10 -24 -4 21)
1969/12/31/18:00:27.735,(-16 28 -15 -9 -1 9 -30 -18)
1969/12/31/18:00:27.735,(74 55 62 40 17 10 38 53)
1969/12/31/18:00:27.757,(-9 -77 -20 -12 -3 -2 5 7)
1969/12/31/18:00:27.757,(-18 31 -20 -7 6 14 11 33)
1969/12/31/18:00:27.757,(-19 -48 -18 -3 12 -14 -16 -26)
1969/12/31/18:00:27.757,(-68 48 33 -2 -8 1 -5 -59)
1969/12/31/18:00:27.772,(92 23 1 4 -1 -3 3 47)
1969/12/31/18:00:27.772,(9 -3 23 9 12 -3 2 8)
1969/12/31/18:00:27.772,(7 -2 0 10 7 19 19 33)
1969/12/31/18:00:27.772,(10 -15 -28 -18 -14 7 0 -6)
1969/12/31/18:00:27.794,(-34 17 -23 0 7 -4 3 -16)
1969/12/31/18:00:27.794,(-6 12 32 23 9 1 2 1)
1969/12/31/18:00:27.795,(32 -7 20 16 29 32 30 56)
1969/12/31/18:00:27.795,(23 -31 -29 -26 -25 7 -15 -3)
1969/12/31/18:00:27.817,(-48 -84 -47 -39 -20 -18 -8 -17)
1969/12/31/18:00:27.817,(-13 -12 -46 -17 -9 -7 -4 1)
1969/12/31/18:00:27.817,(-3 90 88 42 4 -7 15 23)
1969/12/31/18:00:27.817,(-31 -103 -68 -16 -9 -18 -24 -31)
1969/12/31/18:00:27.832,(11 96 38 6 3 6 -13 -26)
1969/12/31/18:00:27.832,(-42 -99 -59 -17 -8 -11 7 -4)
1969/12/31/18:00:27.832,(47 59 54 15 -1 -9 -9 22)
1969/12/31/18:00:27.832,(-12 25 33 15 16 14 13 18)
1969/12/31/18:00:27.854,(43 1 -24 -13 -11 -11 -15 7)
1969/12/31/18:00:27.854,(-1 -7 6 -5 -1 -3 -7 -9)
1969/12/31/18:00:27.855,(-9 -36 -28 -12 -7 42 23 -1)
1969/12/31/18:00:27.855,(-21 -32 -34 -16 -3 -33 3 -15)
1969/12/31/18:00:27.877,(-32 18 36 12 0 -23 -29 -2)
1969/12/31/18:00:27.877,(1 24 6 3 -7 6 6 -28)
1969/12/31/18:00:27.877,(10 -46 -18 -2 4 16 3 -4)
1969/12/31/18:00:27.877,(34 34 5 -7 -7 5 -5 19)
1969/12/31/18:00:27.892,(32 15 21 19 17 36 32 28)
1969/12/31/18:00:27.892,(9 53 43 15 5 -22 -13 3)
1969/12/31/18:00:27.892,(-20 -50 -39 -15 1 -16 17 -6)
1969/12/31/18:00:27.892,(7 -19 -18 -1 -5 -16 -16 -17)
1969/12/31/18:00:27.914,(28 48 38 12 1 -22 47 54)
1969/12/31/18:00:27.914,(35 2 5 4 -7 4 -77 -15)
1969/12/31/18:00:27.915,(23 15 -6 -8 6 25 -20 -50)
1969/12/31/18:00:27.915,(12 -17 -16 0 -8 -19 5 -6)
1969/12/31/18:00:27.937,(-40 -10 10 3 -14 -27 -22 -28)
1969/12/31/18:00:27.937,(89 110 58 31 17 18 54 91)
1969/12/31/18:00:27.938,(-45 -52 -34 -22 -18 -34 -52 -9)
1969/12/31/18:00:27.938,(30 32 7 1 17 12 -6 3)
1969/12/31/18:00:27.951,(-44 -33 -18 -14 -11 11 40 -50)
1969/12/31/18:00:27.951,(10 42 35 20 10 -7 -36 -9)
1969/12/31/18:00:27.959,(17 -26 -36 -26 -20 5 -17 -28)
1969/12/31/18:00:27.959,(-92 -21 -2 8 12 15 11 1)
1969/12/31/18:00:27.975,(59 41 18 3 3 18 9 17)
1969/12/31/18:00:27.975,(-65 -38 -19 -15 -14 -14 7 -51)
1969/12/31/18:00:27.975,(-65 -56 -10 3 7 -29 -5 -3)
1969/12/31/18:00:27.975,(40 36 24 13 13 48 12 28)
1969/12/31/18:00:27.997,(-103 -18 -13 -12 -14 -7 -45 -43)
1969/12/31/18:00:27.997,(73 9 -17 -18 -13 10 62 46)
1969/12/31/18:00:27.997,(-73 -61 -14 -1 -11 -53 -34 -73)
1969/12/31/18:00:27.997,(50 31 10 -2 -3 7 40 74)
1969/12/31/18:00:28.011,(3 -29 -3 3 1 3 17 20)
1969/12/31/18:00:28.011,(47 34 -14 -15 -4 39 56 68)
1969/12/31/18:00:28.019,(61 61 38 23 14 8 32 41)
1969/12/31/18:00:28.019,(-47 -71 -30 -15 -9 -8 -13 -17)
1969/12/31/18:00:28.034,(13 47 9 2 -3 -11 -3 -16)
1969/12/31/18:00:28.034,(-109 -33 10 9 5 -4 -25 -46)
1969/12/31/18:00:28.035,(-17 -40 -23 -11 -5 2 2 -7)
1969/12/31/18:00:28.035,(38 -11 6 8 10 2 22 53)
1969/12/31/18:00:28.057,(22 44 -5 -11 -7 -1 -28 -9)
1969/12/31/18:00:28.057,(44 23 18 9 11 9 12 40)
1969/12/31/18:00:28.058,(9 18 11 15 1 4 2 47)
1969/12/31/18:00:28.058,(-19 -7 -12 -6 6 -3 -13 -48)
1969/12/31/18:00:28.080,(-40 -64 -12 7 -2 2 -8 -15)
1969/12/31/18:00:28.080,(20 8 4 1 -1 4 -2 18)
1969/12/31/18:00:28.081,(58 35 -10 -10 -4 -4 10 10)
1969/12/31/18:00:28.081,(-58 -54 -31 -40 -25 -24 -28 -37)
1969/12/31/18:00:28.094,(45 86 42 44 21 17 17 44)
1969/12/31/18:00:28.094,(-55 27 45 8 5 -6 -21 -45)
1969/12/31/18:00:28.095,(6 -2 -1 5 2 3 1 17)
1969/12/31/18:00:28.095,(-10 -7 -21 3 -8 -8 -14 -38)
1969/12/31/18:00:28.117,(-18 -72 -52 -35 -13 -5 -13 -9)
1969/12/31/18:00:28.117,(-17 -16 16 19 13 7 5 20)
1969/12/31/18:00:28.118,(-12 -11 -24 -20 -16 -12 -12 -20)
1969/12/31/18:00:28.118,(12 12 -10 -4 3 5 0 6)
1969/12/31/18:00:28.131,(-2 5 52 42 11 13 18 18)
1969/12/31/18:00:28.131,(8 11 -16 -9 -7 -6 -9 -21)
1969/12/31/18:00:28.139,(0 0 -15 -21 -12 -9 -12 -4)
1969/12/31/18:00:28.139,(-2 3 4 -8 -6 -11 -9 -2)
1969/12/31/18:00:28.154,(20 7 -9 -1 10 15 14 16)
1969/12/31/18:00:28.154,(-26 1 28 11 -1 -5 -22 -35)
1969/12/31/18:00:28.155,(-16 -7 -7 7 5 0 -2 -11)
1969/12/31/18:00:28.155,(-11 -13 -9 1 -3 -8 -8 -16)
1969/12/31/18:00:28.177,(-20 -69 -43 -37 -13 -7 -9 -11)
1969/12/31/18:00:28.177,(21 76 61 19 8 4 7 23)
1969/12/31/18:00:28.178,(-21 9 19 8 0 -1 -6 -10)
1969/12/31/18:00:28.178,(7 -1 2 8 -3 -3 1 4)
1969/12/31/18:00:28.191,(11 23 -7 -8 0 -4 -19 -8)
1969/12/31/18:00:28.191,(-30 -90 -67 -22 -5 5 6 -15)
1969/12/31/18:00:28.199,(2 -5 -21 -16 -15 -11 -2 7)
1969/12/31/18:00:28.199,(8 48 52 22 7 6 3 -8)
1969/12/31/18:00:28.214,(-4 -7 -6 -6 -2 4 10 13)
1969/12/31/18:00:28.214,(-11 -36 -13 -1 1 -3 -8 -10)
1969/12/31/18:00:28.215,(2 43 40 12 4 1 -10 -22)
1969/12/31/18:00:28.215,(1 -23 -20 -9 -3 0 -1 2)
1969/12/31/18:00:28.237,(1 9 18 3 1 -5 -3 2)
1969/12/31/18:00:28.237,(-7 -27 -45 -16 -8 -4 -6 -8)
1969/12/31/18:00:28.238,(4 23 18 13 4 5 10 9)
1969/12/31/18:00:28.238,(-15 -34 -29 -13 -10 -11 -24 -30)
1969/12/31/18:00:28.260,(13 43 55 17 7 5 4 11)
1969/12/31/18:00:28.260,(-6 -28 -40 -15 -7 -5 -7 -9)
1969/12/31/18:00:28.261,(-10 -32 -24 -11 -3 4 10 8)
1969/12/31/18:00:28.261,(5 51 34 17 7 0 -2 1)
1969/12/31/18:00:28.274,(-9 -28 -24 -11 -8 -10 -3 -5)
1969/12/31/18:00:28.274,(-3 -8 -4 -3 -3 -7 -6 -2)
1969/12/31/18:00:28.275,(5 5 5 5 4 9 14 10)
1969/12/31/18:00:28.275,(1 7 2 1 -2 -3 -3 1)
1969/12/31/18:00:28.297,(-2 -7 -10 -7 -2 -3 -4 -3)
1969/12/31/18:00:28.298,(-5 -4 1 0 0 -2 0 -5)
1969/12/31/18:00:28.298,(4 -6 -1 0 0 -3 -3 0)
1969/12/31/18:00:28.298,(0 -5 -10 -10 -3 0 11 7)
1969/12/31/18:00:28.320,(1 25 13 6 0 -3 -11 -9)
1969/12/31/18:00:28.320,(0 -13 0 -1 0 -2 1 2)
1969/12/31/18:00:28.321,(-6 2 -13 -4 -2 -2 -6 -9)
1969/12/31/18:00:28.321,(5 2 5 2 -1 3 5 4)
1969/12/31/18:00:28.334,(5 10 -9 0 0 0 1 5)
1969/12/31/18:00:28.334,(0 -9 6 1 0 0 -3 -4)
1969/12/31/18:00:28.335,(-2 0 -1 -3 4 4 5 -3)
1969/12/31/18:00:28.335,(0 4 -11 3 3 1 -1 2)
