time,.data
1969/12/31/18:00:16.619,(-3 1 3 1 -6 1 -2 -2)
1969/12/31/18:00:16.619,(-3 -4 14 32 16 5 -1 -3)
1969/12/31/18:00:16.620,(-2 -1 -12 -4 -1 -2 1 -1)
1969/12/31/18:00:16.620,(2 -2 -21 -69 -19 -3 1 1)
1969/12/31/18:00:16.632,(0 3 16 32 13 4 -2 -2)
1969/12/31/18:00:16.632,(-2 1 21 55 23 7 0 0)
1969/12/31/18:00:16.641,(-1 -3 -12 -17 0 -1 -1 1)
1969/12/31/18:00:16.641,(1 0 -7 -23 -11 -2 0 1)
1969/12/31/18:00:16.657,(-1 -1 0 7 0 1 0 1)
1969/12/31/18:00:16.657,(-6 -3 3 15 12 2 0 -4)
1969/12/31/18:00:16.662,(2 -1 -7 -16 -14 -7 -1 2)
1969/12/31/18:00:16.662,(1 1 -3 -12 -5 -3 -1 0)
1969/12/31/18:00:16.679,(0 1 5 15 5 1 0 -3)
1969/12/31/18:00:16.679,(2 2 4 3 5 1 0 0)
1969/12/31/18:00:16.680,(1 -3 -7 -6 -5 -5 -2 0)
1969/12/31/18:00:16.680,(-7 -4 2 6 2 3 3 -2)
1969/12/31/18:00:16.692,(0 -1 2 5 3 -1 -2 -2)
1969/12/31/18:00:16.692,(0 2 -1 3 -3 -1 -3 -3)
1969/12/31/18:00:16.708,(0 -1 -2 -9 -4 -1 -2 0)
1969/12/31/18:00:16.708,(-1 1 1 0 3 1 1 -4)
1969/12/31/18:00:16.715,(-6 -9 -6 4 0 -3 -5 -2)
1969/12/31/18:00:16.715,(0 -1 0 -6 -2 0 3 5)
1969/12/31/18:00:16.722,(-3 1 -1 0 0 3 -1 -3)
1969/12/31/18:00:16.722,(3 1 -4 -2 -6 -2 -1 2)
1969/12/31/18:00:16.740,(0 1 -3 -2 2 1 1 2)
1969/12/31/18:00:16.740,(3 -1 1 -4 -2 1 3 4)
1969/12/31/18:00:16.741,(-3 0 7 21 6 -2 -3 -2)
1969/12/31/18:00:16.741,(11 7 -3 -6 -8 -4 0 4)
1969/12/31/18:00:16.752,(6 -2 -1 1 0 0 2 7)
1969/12/31/18:00:16.752,(2 2 6 10 13 5 3 -4)
1969/12/31/18:00:16.761,(-21 -16 -7 -15 -4 -7 -12 -15)
1969/12/31/18:00:16.761,(15 9 -1 -3 -3 -3 -4 3)
1969/12/31/18:00:16.775,(-14 -10 -1 7 -1 -1 -2 -6)
1969/12/31/18:00:16.775,(-2 -3 -2 -7 -7 -6 -3 -2)
1969/12/31/18:00:16.782,(-7 3 4 5 5 5 2 -6)
1969/12/31/18:00:16.782,(2 -8 -4 -2 -2 -1 2 4)
1969/12/31/18:00:16.799,(1 10 2 3 8 3 0 -6)
1969/12/31/18:00:16.799,(-18 -17 -3 4 -5 -3 -1 -1)
1969/12/31/18:00:16.800,(22 5 -7 -5 -3 -1 -3 5)
1969/12/31/18:00:16.800,(3 6 -7 -18 -9 -6 3 7)
1969/12/31/18:00:16.812,(-7 -7 -11 -59 -32 -7 -5 -8)
1969/12/31/18:00:16.812,(4 4 21 93 44 8 2 2)
1969/12/31/18:00:16.821,(5 3 5 -4 5 3 2 -2)
1969/12/31/18:00:16.821,(-13 -3 7 30 12 7 -1 -8)
1969/12/31/18:00:16.835,(-5 -6 1 11 2 -4 -7 -6)
1969/12/31/18:00:16.835,(-3 5 -10 -37 -21 -3 1 -2)
1969/12/31/18:00:16.842,(15 4 -6 -14 -6 0 5 17)
1969/12/31/18:00:16.842,(-1 -4 -4 -5 -3 -3 -2 3)
1969/12/31/18:00:16.859,(7 20 5 0 4 1 -4 -4)
1969/12/31/18:00:16.859,(-12 -9 -2 -7 -6 -4 1 -7)
1969/12/31/18:00:16.860,(12 12 1 -3 -4 0 1 2)
1969/12/31/18:00:16.860,(-2 -14 -10 -18 -9 -4 -8 -9)
1969/12/31/18:00:16.881,(-22 1 5 17 7 0 -1 -7)
1969/12/31/18:00:16.881,(23 -2 -4 -11 -3 2 7 25)
1969/12/31/18:00:16.882,(-13 5 -3 -3 -3 -1 -2 -13)
1969/12/31/18:00:16.882,(-13 -22 -37 -111 -63 -13 -6 -5)
1969/12/31/18:00:16.895,(24 9 7 84 27 0 9 19)
1969/12/31/18:00:16.895,(-11 10 51 94 59 15 -4 -13)
1969/12/31/18:00:16.904,(0 4 21 35 42 17 10 8)
1969/12/31/18:00:16.904,(1 5 9 1 17 2 -1 -1)
1969/12/31/18:00:16.919,(-1 -9 -25 -87 -46 -6 2 -1)
1969/12/31/18:00:16.919,(-10 -14 -31 -81 -43 -20 -12 -9)
1969/12/31/18:00:16.920,(-7 -9 3 28 2 -3 -3 -8)
1969/12/31/18:00:16.920,(-9 3 5 26 18 12 12 10)
1969/12/31/18:00:16.941,(30 8 0 -16 -3 1 0 3)
1969/12/31/18:00:16.941,(1 7 -4 -6 -9 -8 -4 4)
1969/12/31/18:00:16.943,(-1 -21 -15 -31 -13 3 6 -4)
1969/12/31/18:00:16.943,(-5 10 23 27 17 8 11 16)
1969/12/31/18:00:16.955,(-11 -9 -4 8 3 -4 -12 -22)
1969/12/31/18:00:16.955,(29 21 7 2 8 9 11 19)
1969/12/31/18:00:16.964,(-7 -5 -15 -24 -18 -11 -13 -8)
1969/12/31/18:00:16.964,(-4 -4 -8 -37 -15 -3 1 -5)
1969/12/31/18:00:16.978,(-1 3 17 48 21 11 11 12)
1969/12/31/18:00:16.978,(-6 0 3 4 6 4 -1 -5)
1969/12/31/18:00:16.980,(0 3 3 12 3 -3 -1 1)
1969/12/31/18:00:16.980,(0 -4 -1 -12 6 -3 -5 -11)
1969/12/31/18:00:17.001,(3 1 -3 -4 -16 -5 1 7)
1969/12/31/18:00:17.001,(-6 -8 -8 8 0 2 2 -3)
1969/12/31/18:00:17.002,(17 15 7 13 9 6 8 11)
1969/12/31/18:00:17.002,(-2 0 4 26 5 -14 -20 -2)
1969/12/31/18:00:17.015,(-30 -4 -1 -16 -1 -10 -26 -38)
1969/12/31/18:00:17.015,(-15 -24 -13 -25 -19 0 8 6)
1969/12/31/18:00:17.024,(-1 -1 -6 -3 -6 -6 -7 1)
1969/12/31/18:00:17.024,(-3 -7 -7 -1 -9 -8 -8 -9)
1969/12/31/18:00:17.039,(11 -2 -7 -28 -11 -1 3 8)
1969/12/31/18:00:17.039,(5 -1 -28 -88 -20 -5 0 0)
1969/12/31/18:00:17.040,(-14 -7 13 47 14 -2 -2 -4)
1969/12/31/18:00:17.040,(-3 5 22 65 15 8 2 -5)
1969/12/31/18:00:17.061,(0 -3 16 36 27 6 5 7)
1969/12/31/18:00:17.061,(-3 2 -5 -10 -5 -4 -9 -12)
1969/12/31/18:00:17.062,(-3 -6 -19 -75 -31 -11 -1 0)
1969/12/31/18:00:17.063,(15 5 -27 -78 -72 -19 -3 4)
1969/12/31/18:00:17.075,(2 3 12 86 20 3 5 5)
1969/12/31/18:00:17.075,(7 10 26 78 88 25 7 5)
1969/12/31/18:00:17.084,(-5 5 20 43 48 28 8 1)
1969/12/31/18:00:17.084,(-2 -4 10 29 25 14 5 2)
1969/12/31/18:00:17.098,(-10 -10 -24 -80 -42 -12 -3 -9)
1969/12/31/18:00:17.098,(20 1 -4 -28 -43 -13 4 16)
1969/12/31/18:00:17.100,(33 29 -7 -12 -21 -19 -11 6)
1969/12/31/18:00:17.100,(-27 -14 -8 -2 5 -7 -12 -20)
1969/12/31/18:00:17.121,(10 7 -6 -22 -10 -6 -9 -4)
1969/12/31/18:00:17.121,(-6 -6 -6 -2 -9 -7 -6 -4)
1969/12/31/18:00:17.123,(6 0 -1 -16 -6 7 8 6)
1969/12/31/18:00:17.123,(8 7 6 24 15 3 4 6)
1969/12/31/18:00:17.135,(-6 -6 7 22 20 6 6 8)
1969/12/31/18:00:17.135,(-9 2 6 16 -3 -4 -8 -12)
1969/12/31/18:00:17.144,(-13 -13 -4 -19 -13 -4 -3 -6)
1969/12/31/18:00:17.144,(1 2 -4 -1 3 1 2 -3)
1969/12/31/18:00:17.159,(-2 -5 1 1 2 4 5 4)
1969/12/31/18:00:17.159,(4 5 -6 -35 -19 -4 -4 -3)
1969/12/31/18:00:17.160,(-9 -9 -10 10 3 -3 -4 -4)
1969/12/31/18:00:17.160,(27 23 11 33 12 4 6 16)
1969/12/31/18:00:17.181,(-32 -20 3 14 14 -3 -15 -24)
1969/12/31/18:00:17.181,(-33 -15 -11 -10 -16 -13 -18 -28)
1969/12/31/18:00:17.183,(40 30 12 -9 2 15 28 42)
1969/12/31/18:00:17.183,(-16 -4 -7 -5 -2 -14 -35 -35)
1969/12/31/18:00:17.195,(5 1 -4 -11 -5 1 13 8)
1969/12/31/18:00:17.195,(-19 -23 -9 -3 -4 7 23 14)
1969/12/31/18:00:17.204,(10 3 1 -1 -1 5 10 11)
1969/12/31/18:00:17.204,(4 1 7 7 10 6 6 7)
1969/12/31/18:00:17.219,(6 4 0 -13 -8 -2 -5 1)
1969/12/31/18:00:17.219,(7 8 6 11 0 -2 -7 -7)
1969/12/31/18:00:17.220,(-16 -5 -2 0 -2 -6 -6 -12)
1969/12/31/18:00:17.220,(-1 -1 2 -2 3 0 1 0)
1969/12/31/18:00:17.241,(5 4 -1 -4 -2 2 7 9)
1969/12/31/18:00:17.241,(11 12 3 10 4 7 8 11)
1969/12/31/18:00:17.243,(-11 -10 -2 5 -12 -6 -9 -8)
1969/12/31/18:00:17.243,(-7 -7 -6 -16 5 2 3 -5)
1969/12/31/18:00:17.255,(-9 -8 -1 9 6 1 -3 -4)
1969/12/31/18:00:17.255,(22 22 11 24 11 4 8 15)
1969/12/31/18:00:17.264,(-9 -4 0 3 5 -9 -21 -19)
1969/12/31/18:00:17.264,(-3 0 2 -6 -7 1 9 3)
1969/12/31/18:00:17.279,(-12 -17 -2 5 5 8 11 6)
1969/12/31/18:00:17.279,(3 9 -2 -15 -5 2 -1 -4)
1969/12/31/18:00:17.280,(20 9 1 1 2 -1 2 8)
1969/12/31/18:00:17.280,(-14 -7 -2 -2 4 -1 -1 -7)
1969/12/31/18:00:17.301,(6 3 -1 -9 -6 -2 4 6)
1969/12/31/18:00:17.301,(21 20 -2 -3 0 1 2 14)
1969/12/31/18:00:17.303,(-13 -13 -5 -7 -6 -4 -5 -9)
1969/12/31/18:00:17.303,(11 7 2 3 -1 2 6 11)
1969/12/31/18:00:17.315,(3 3 -7 -26 -16 -3 -4 -2)
1969/12/31/18:00:17.315,(-5 -5 1 9 1 -5 -5 -3)
1969/12/31/18:00:17.324,(-9 -4 5 6 -2 1 -1 -4)
1969/12/31/18:00:17.324,(3 1 8 27 19 12 4 7)
1969/12/31/18:00:17.339,(-4 -3 4 -5 19 4 0 -4)
1969/12/31/18:00:17.339,(-5 -13 2 11 -7 0 0 -2)
1969/12/31/18:00:17.340,(-24 -16 -6 -6 -3 -3 -7 -19)
1969/12/31/18:00:17.340,(1 -3 -5 -10 -8 0 9 11)
1969/12/31/18:00:17.362,(3 5 0 -5 -1 -2 -1 7)
1969/12/31/18:00:17.362,(-8 -14 -11 -35 -16 -7 -8 -9)
1969/12/31/18:00:17.363,(-2 -3 -9 -6 -12 -8 -4 -6)
1969/12/31/18:00:17.363,(22 26 13 51 12 8 16 24)
1969/12/31/18:00:17.375,(15 -6 8 21 20 11 8 13)
1969/12/31/18:00:17.375,(-10 -4 -2 7 1 -3 -7 -11)
1969/12/31/18:00:17.384,(-16 -10 -3 -8 -9 0 -1 -6)
1969/12/31/18:00:17.384,(-13 -16 -11 -36 -5 -5 -5 -7)
1969/12/31/18:00:17.398,(14 16 -4 1 -3 -2 -1 3)
1969/12/31/18:00:17.398,(-10 -7 4 16 -2 -7 -7 -10)
1969/12/31/18:00:17.405,(32 16 1 -8 -5 -2 6 18)
1969/12/31/18:00:17.405,(-28 -17 2 8 10 0 -10 -21)
1969/12/31/18:00:17.421,(7 10 -2 -19 -10 -3 -2 0)
1969/12/31/18:00:17.421,(-7 -8 -3 -2 -8 -1 -1 -6)
1969/12/31/18:00:17.423,(-6 -5 -1 7 -2 -8 -8 -3)
1969/12/31/18:00:17.423,(-2 -1 9 13 13 7 1 -6)
1969/12/31/18:00:17.435,(-2 9 1 2 -2 -2 -9 -11)
1969/12/31/18:00:17.435,(3 4 -2 -11 3 2 2 4)
1969/12/31/18:00:17.444,(-9 -12 -3 -3 -2 1 3 0)
1969/12/31/18:00:17.444,(0 -5 -8 -41 -31 -11 -9 -6)
1969/12/31/18:00:17.459,(-2 -1 -1 19 12 0 2 2)
1969/12/31/18:00:17.459,(5 1 5 13 8 4 4 7)
1969/12/31/18:00:17.460,(-3 -2 -2 12 12 8 6 1)
1969/12/31/18:00:17.460,(0 -2 -5 -15 -4 -3 -2 1)
1969/12/31/18:00:17.481,(-2 -1 -6 -13 -22 -13 -8 -8)
1969/12/31/18:00:17.481,(2 2 -5 -27 1 3 3 3)
1969/12/31/18:00:17.483,(-1 4 8 15 6 7 8 5)
1969/12/31/18:00:17.483,(-3 -4 10 37 15 13 19 6)
1969/12/31/18:00:17.495,(17 19 13 26 15 1 -6 9)
1969/12/31/18:00:17.495,(3 -2 -5 2 0 -1 0 2)
1969/12/31/18:00:17.504,(0 -3 -11 -54 -21 -7 -3 -3)
1969/12/31/18:00:17.504,(-2 -8 -17 -25 -16 -6 -2 -1)
1969/12/31/18:00:17.518,(11 7 5 21 13 5 12 14)
1969/12/31/18:00:17.518,(-20 -13 7 11 0 0 -5 -15)
1969/12/31/18:00:17.525,(-2 1 1 5 8 1 1 1)
1969/12/31/18:00:17.525,(19 13 -2 6 -1 0 -2 5)
1969/12/31/18:00:17.541,(-6 2 -1 -25 -3 11 18 20)
1969/12/31/18:00:17.541,(13 7 -4 5 9 -1 -3 1)
1969/12/31/18:00:17.543,(-13 -13 -6 4 -4 -8 -9 -13)
1969/12/31/18:00:17.543,(18 20 4 -7 -4 -5 -4 6)
1969/12/31/18:00:17.555,(-38 -27 -1 -7 -9 -8 -16 -31)
1969/12/31/18:00:17.555,(6 6 -3 -8 -6 3 6 4)
1969/12/31/18:00:17.564,(2 3 -3 -10 2 2 4 4)
1969/12/31/18:00:17.564,(-14 -20 -12 -23 -10 -15 -12 -13)
1969/12/31/18:00:17.578,(10 4 6 29 1 1 2 10)
1969/12/31/18:00:17.578,(24 18 20 44 18 6 0 6)
1969/12/31/18:00:17.585,(-18 -24 5 24 7 -2 -5 -11)
1969/12/31/18:00:17.585,(-11 -3 -2 -9 5 4 -5 -11)
1969/12/31/18:00:17.601,(-12 -15 -20 -46 -26 -6 -3 -9)
1969/12/31/18:00:17.601,(1 10 -8 -15 -6 -7 -3 -1)
1969/12/31/18:00:17.603,(7 0 3 20 11 1 3 11)
1969/12/31/18:00:17.603,(-8 -17 17 21 13 10 14 17)
1969/12/31/18:00:17.615,(35 31 -3 -7 -2 -4 -10 7)
1969/12/31/18:00:17.615,(-27 -43 -6 -7 -4 -6 -9 -8)
1969/12/31/18:00:17.624,(14 31 -2 -15 -9 -1 0 0)
1969/12/31/18:00:17.624,(-3 -2 -8 -4 -7 0 4 0)
1969/12/31/18:00:17.638,(-22 -1 2 5 -2 1 2 -11)
1969/12/31/18:00:17.638,(25 6 1 3 2 5 12 19)
1969/12/31/18:00:17.645,(-9 -9 -1 3 3 -2 -8 -11)
1969/12/31/18:00:17.645,(8 8 -1 -8 -12 -3 0 -2)
1969/12/31/18:00:17.661,(-23 -22 -5 -14 -1 -2 -4 -17)
1969/12/31/18:00:17.661,(-3 11 -2 3 1 -7 -9 -7)
1969/12/31/18:00:17.663,(1 6 11 40 10 -1 -3 -2)
1969/12/31/18:00:17.663,(-21 -31 -5 13 13 2 -3 -4)
1969/12/31/18:00:17.675,(25 7 11 -11 7 20 30 38)
1969/12/31/18:00:17.675,(-13 -14 -12 -24 -11 -5 -3 -7)
1969/12/31/18:00:17.684,(48 58 5 -6 -9 -2 9 28)
1969/12/31/18:00:17.684,(-18 -12 -5 -6 -1 -5 -9 -11)
1969/12/31/18:00:17.698,(-6 -14 -10 -8 -9 -9 -14 -11)
1969/12/31/18:00:17.698,(-12 -5 -14 -44 -22 -9 -12 -19)
1969/12/31/18:00:17.705,(-19 -22 -14 -13 -23 -7 -6 -11)
1969/12/31/18:00:17.705,(34 28 16 56 48 10 12 20)
1969/12/31/18:00:17.721,(-24 -12 2 18 -15 -4 -8 -20)
1969/12/31/18:00:17.721,(11 15 19 51 21 2 4 9)
1969/12/31/18:00:17.723,(-7 -10 -7 -47 4 3 2 -4)
1969/12/31/18:00:17.723,(7 10 -13 -25 -13 -2 -1 1)
1969/12/31/18:00:17.735,(-4 -11 -4 15 5 0 -1 -1)
1969/12/31/18:00:17.735,(-14 -11 1 4 -4 0 -5 -10)
1969/12/31/18:00:17.744,(-2 -2 21 64 32 9 4 0)
1969/12/31/18:00:17.744,(15 15 7 -17 -4 7 6 8)
1969/12/31/18:00:17.758,(28 7 -12 -15 -3 -8 -6 12)
1969/12/31/18:00:17.758,(-30 -15 -20 -60 -30 -4 -4 -19)
1969/12/31/18:00:17.765,(1 0 -4 -25 -10 -8 -5 -1)
1969/12/31/18:00:17.765,(-24 -20 -6 16 -15 -14 -17 -22)
1969/12/31/18:00:17.781,(50 47 2 -36 11 8 18 36)
1969/12/31/18:00:17.781,(-23 9 -2 38 -5 -10 -16 -29)
1969/12/31/18:00:17.783,(23 1 2 -32 3 11 18 29)
1969/12/31/18:00:17.783,(-15 -13 -14 -32 -31 -14 -15 -16)
1969/12/31/18:00:17.795,(-15 -19 0 33 8 -1 -1 -8)
1969/12/31/18:00:17.795,(-20 -13 19 60 54 10 0 -6)
1969/12/31/18:00:17.804,(-8 1 2 -8 -7 1 -4 -11)
1969/12/31/18:00:17.804,(28 20 1 -20 -10 4 13 23)
1969/12/31/18:00:17.818,(-23 -13 -3 8 -12 -12 -10 -16)
1969/12/31/18:00:17.818,(21 10 3 -14 -3 18 24 31)
1969/12/31/18:00:17.825,(-17 -18 -8 21 2 -7 -9 -13)
1969/12/31/18:00:17.825,(13 13 5 2 2 0 -4 5)
1969/12/31/18:00:17.841,(-33 -44 -12 -30 -3 -10 -13 -23)
1969/12/31/18:00:17.841,(16 38 5 20 1 -1 5 2)
1969/12/31/18:00:17.843,(-21 -21 0 3 2 -3 -13 -14)
1969/12/31/18:00:17.843,(17 25 3 1 -1 3 7 6)
1969/12/31/18:00:17.864,(9 2 2 8 8 11 10 13)
1969/12/31/18:00:17.864,(5 0 -8 -37 -18 -11 -5 5)
1969/12/31/18:00:17.865,(-28 -28 -20 -53 -18 -11 -6 -13)
1969/12/31/18:00:17.865,(0 1 6 44 5 2 -3 -8)
1969/12/31/18:00:17.877,(-17 -1 15 37 13 -3 -12 -20)
1969/12/31/18:00:17.877,(0 -13 -8 -36 -23 1 5 6)
1969/12/31/18:00:17.886,(20 16 10 53 21 10 9 14)
1969/12/31/18:00:17.886,(-24 -28 11 23 37 4 -1 -4)
1969/12/31/18:00:17.901,(51 79 10 10 7 7 9 18)
1969/12/31/18:00:17.901,(-2 -13 -2 -11 -1 5 2 1)
1969/12/31/18:00:17.903,(5 -4 -11 -31 -23 -7 -3 1)
1969/12/31/18:00:17.903,(-14 -13 -14 -39 -25 -8 -4 -7)
1969/12/31/18:00:17.931,(3 5 1 15 10 -3 -3 -2)
1969/12/31/18:00:17.931,(-4 -5 2 8 6 5 5 5)
1969/12/31/18:00:17.933,(27 29 3 2 -1 -1 1 13)
1969/12/31/18:00:17.933,(-9 -5 -3 3 -1 -9 -15 -16)
1969/12/31/18:00:17.937,(-16 -12 -4 -33 -10 1 4 -1)
1969/12/31/18:00:17.937,(4 -11 -3 2 9 6 9 11)
1969/12/31/18:00:17.946,(-20 -14 6 16 0 9 7 -3)
1969/12/31/18:00:17.946,(13 7 11 23 17 7 16 22)
1969/12/31/18:00:17.961,(5 1 -3 -8 -5 1 4 9)
1969/12/31/18:00:17.961,(-2 -13 -9 -25 -19 -10 -12 -5)
1969/12/31/18:00:17.963,(-8 -2 6 22 12 -3 -6 -11)
1969/12/31/18:00:17.963,(-1 12 5 -6 -5 0 4 5)
1969/12/31/18:00:17.984,(4 -2 -1 -3 -1 4 6 7)
1969/12/31/18:00:17.984,(-16 -16 -4 9 3 -10 -15 -14)
1969/12/31/18:00:17.985,(-19 -39 -11 -14 -10 -4 -1 -9)
1969/12/31/18:00:17.985,(31 30 1 -9 0 10 7 7)
1969/12/31/18:00:17.997,(5 -7 -3 2 -3 -6 -6 2)
1969/12/31/18:00:17.997,(-17 -8 7 9 5 0 -3 -9)
1969/12/31/18:00:18.006,(7 12 -3 -13 0 -5 -8 -9)
1969/12/31/18:00:18.006,(-5 -14 -11 -16 -21 -3 0 1)
1969/12/31/18:00:18.021,(-8 -10 1 8 -2 -5 -4 -10)
1969/12/31/18:00:18.021,(27 19 15 29 23 9 12 21)
1969/12/31/18:00:18.023,(-5 10 7 11 4 -5 -8 -5)
1969/12/31/18:00:18.023,(13 9 -5 -10 3 5 14 18)
1969/12/31/18:00:18.044,(-12 -5 -4 -12 -10 0 -1 -9)
1969/12/31/18:00:18.044,(2 5 -7 -6 -6 -9 -7 -4)
1969/12/31/18:00:18.045,(6 7 -9 -59 -23 0 9 7)
1969/12/31/18:00:18.045,(-7 -20 0 42 11 -1 -9 -8)
1969/12/31/18:00:18.057,(-20 -16 10 32 29 17 9 -9)
1969/12/31/18:00:18.057,(15 17 6 12 5 -3 -5 5)
1969/12/31/18:00:18.066,(-29 -3 1 -8 -9 -8 -9 -18)
1969/12/31/18:00:18.066,(-33 -43 -17 -25 -14 -9 -10 -23)
1969/12/31/18:00:18.081,(26 8 4 0 -3 10 15 15)
1969/12/31/18:00:18.081,(22 17 -6 -2 4 2 3 14)
1969/12/31/18:00:18.083,(4 4 -1 0 -9 -1 1 2)
1969/12/31/18:00:18.083,(-23 -6 0 -6 0 -4 -6 -10)
1969/12/31/18:00:18.103,(-3 1 6 11 8 3 2 -1)
1969/12/31/18:00:18.103,(12 0 -2 -11 -5 1 3 9)
1969/12/31/18:00:18.105,(5 5 -1 13 4 3 0 -4)
1969/12/31/18:00:18.105,(-1 10 -3 2 -4 -3 -4 -5)
1969/12/31/18:00:18.117,(-22 -17 2 -10 2 -2 -8 -12)
1969/12/31/18:00:18.117,(19 14 -1 -4 -14 -7 -7 -2)
1969/12/31/18:00:18.126,(2 1 3 16 8 6 8 7)
1969/12/31/18:00:18.126,(11 9 6 6 10 3 2 5)
1969/12/31/18:00:18.141,(4 30 -6 -20 -10 -2 0 -2)
1969/12/31/18:00:18.141,(-12 -10 -4 -5 -4 -2 -4 0)
1969/12/31/18:00:18.142,(-13 -13 -7 1 -12 -17 -19 -15)
1969/12/31/18:00:18.142,(0 -1 4 7 18 22 21 10)
1969/12/31/18:00:18.164,(11 -1 -1 -13 -42 -17 -3 9)
1969/12/31/18:00:18.164,(-20 -19 -4 1 9 -3 -14 -19)
1969/12/31/18:00:18.165,(-14 -19 5 22 34 17 3 7)
1969/12/31/18:00:18.165,(1 16 2 -4 8 1 -7 -19)
1969/12/31/18:00:18.177,(-1 22 -2 -13 -2 1 10 6)
1969/12/31/18:00:18.177,(25 -27 -4 -6 -23 -6 0 10)
1969/12/31/18:00:18.186,(5 -2 -7 8 -11 -17 -18 -6)
1969/12/31/18:00:18.186,(-4 1 1 -18 -5 -7 -11 -9)
1969/12/31/18:00:18.201,(5 -14 -5 23 10 8 8 13)
1969/12/31/18:00:18.201,(-8 8 2 -14 -7 -3 2 -2)
1969/12/31/18:00:18.203,(7 9 -3 -2 18 -2 -4 -2)
1969/12/31/18:00:18.203,(7 -3 8 11 -16 4 14 19)
1969/12/31/18:00:18.223,(-20 -47 -10 -8 -4 -11 -15 -15)
1969/12/31/18:00:18.224,(52 83 13 7 19 12 16 20)
1969/12/31/18:00:18.225,(10 4 1 -7 -4 3 -1 2)
1969/12/31/18:00:18.225,(-16 -9 -4 -1 -3 -10 -11 -13)
1969/12/31/18:00:18.237,(11 -5 3 -2 4 3 7 19)
1969/12/31/18:00:18.237,(-21 -12 -7 3 2 6 4 -10)
1969/12/31/18:00:18.246,(-9 5 5 3 -3 2 6 -2)
1969/12/31/18:00:18.246,(44 2 1 -8 -2 7 21 34)
1969/12/31/18:00:18.261,(7 14 -1 -5 -7 -13 -22 -9)
1969/12/31/18:00:18.261,(-21 -22 -3 10 10 7 6 -8)
1969/12/31/18:00:18.263,(-4 6 0 -12 -14 4 12 6)
1969/12/31/18:00:18.263,(-50 -42 -9 7 -2 -20 -29 -27)
1969/12/31/18:00:18.283,(-5 6 15 23 20 18 14 1)
1969/12/31/18:00:18.283,(20 13 4 -2 1 -1 0 5)
1969/12/31/18:00:18.285,(2 -8 -9 -5 -8 -7 -8 -5)
1969/12/31/18:00:18.285,(-23 -16 -2 -6 -6 -6 -8 -13)
1969/12/31/18:00:18.297,(-6 -3 -10 -24 -8 0 1 -1)
1969/12/31/18:00:18.297,(8 12 5 4 -6 -2 0 3)
1969/12/31/18:00:18.306,(0 0 6 17 23 10 12 6)
1969/12/31/18:00:18.306,(-11 2 0 10 -6 -5 -11 -12)
1969/12/31/18:00:18.321,(-9 16 -1 -1 -3 -9 -17 -22)
1969/12/31/18:00:18.321,(4 7 -5 -12 6 9 9 -4)
1969/12/31/18:00:18.322,(-6 -15 -3 -4 -5 -2 -3 -5)
1969/12/31/18:00:18.322,(17 20 -5 -28 -14 0 5 6)
1969/12/31/18:00:18.344,(-38 -36 -4 15 4 -13 -17 -20)
1969/12/31/18:00:18.344,(-14 -14 0 9 2 -4 -4 -2)
1969/12/31/18:00:18.345,(7 8 -3 -15 -11 -2 -2 -4)
1969/12/31/18:00:18.345,(21 10 6 23 9 7 7 14)
1969/12/31/18:00:18.357,(-23 -3 10 18 9 3 -3 -17)
1969/12/31/18:00:18.357,(8 -8 -14 -1 9 6 2 7)
1969/12/31/18:00:18.366,(-3 -27 2 2 1 1 -1 -1)
1969/12/31/18:00:18.366,(26 19 3 -10 1 12 17 23)
1969/12/31/18:00:18.381,(14 2 -8 -24 -22 -11 -1 3)
1969/12/31/18:00:18.381,(-12 -4 -8 -53 -56 -35 -12 -10)
1969/12/31/18:00:18.382,(9 4 6 31 12 6 4 7)
1969/12/31/18:00:18.382,(-33 -22 2 34 39 9 -8 -19)
1969/12/31/18:00:18.404,(23 25 16 37 55 37 17 22)
1969/12/31/18:00:18.404,(-16 -24 1 5 15 11 0 -6)
1969/12/31/18:00:18.405,(7 13 -4 -29 -31 -12 0 6)
1969/12/31/18:00:18.405,(32 25 -3 -22 -29 -17 4 22)
1969/12/31/18:00:18.417,(-17 -19 -17 -9 -11 -16 -17 -17)
1969/12/31/18:00:18.417,(-14 4 4 0 -4 3 2 -15)
1969/12/31/18:00:18.426,(1 2 -1 0 2 3 4 7)
1969/12/31/18:00:18.426,(-21 -21 -6 -1 -2 -10 -16 -17)
1969/12/31/18:00:18.440,(-14 -17 -5 -16 -12 0 1 -7)
1969/12/31/18:00:18.440,(-8 -3 2 27 3 -2 -4 0)
1969/12/31/18:00:18.447,(-11 -6 1 13 16 -1 -8 -14)
1969/12/31/18:00:18.447,(4 4 -5 -17 -13 -1 3 2)
1969/12/31/18:00:18.464,(14 0 -4 -17 -22 -4 2 13)
1969/12/31/18:00:18.464,(-3 -4 -3 9 23 6 -1 4)
1969/12/31/18:00:18.465,(0 18 -6 -42 -15 4 5 -1)
1969/12/31/18:00:18.465,(20 9 9 45 19 2 2 10)
1969/12/31/18:00:18.477,(3 -6 16 37 21 7 4 2)
1969/12/31/18:00:18.477,(-1 34 8 17 3 -9 -14 -13)
1969/12/31/18:00:18.486,(-39 -28 -14 -16 -11 -14 -21 -33)
1969/12/31/18:00:18.486,(-7 -9 -15 -40 -23 -7 -3 -9)
1969/12/31/18:00:18.500,(6 -2 -7 -19 -15 -5 12 29)
1969/12/31/18:00:18.500,(8 16 -5 -10 -6 -9 -11 -10)
1969/12/31/18:00:18.507,(16 12 4 6 -3 2 8 13)
1969/12/31/18:00:18.507,(-8 -3 4 -8 -10 -9 -9 -13)
1969/12/31/18:00:18.523,(-10 -28 -8 -20 7 1 8 2)
1969/12/31/18:00:18.523,(-3 -18 -6 -5 -3 8 7 10)
1969/12/31/18:00:18.525,(2 -6 -7 3 8 5 9 11)
1969/12/31/18:00:18.525,(23 32 15 44 30 15 6 14)
1969/12/31/18:00:18.537,(-2 4 -3 -14 -9 -5 -8 -14)
1969/12/31/18:00:18.537,(-3 -11 0 -22 -19 -2 3 4)
1969/12/31/18:00:18.546,(29 34 11 39 9 -2 4 15)
1969/12/31/18:00:18.546,(-51 -55 0 16 21 3 -4 -19)
1969/12/31/18:00:18.560,(42 54 2 0 1 8 8 3)
1969/12/31/18:00:18.560,(18 2 0 -18 -6 -1 3 15)
1969/12/31/18:00:18.567,(-16 -12 -7 -12 -21 -15 -18 -19)
1969/12/31/18:00:18.567,(-5 -11 -9 -19 -13 -6 -5 -2)
1969/12/31/18:00:18.583,(-7 -2 -2 -1 3 0 1 2)
1969/12/31/18:00:18.583,(21 4 12 23 14 14 14 9)
1969/12/31/18:00:18.585,(-5 -34 -3 7 8 2 -2 5)
1969/12/31/18:00:18.585,(5 20 0 -12 -6 -3 2 5)
1969/12/31/18:00:18.597,(-19 -15 -9 -15 -19 -17 -21 -23)
1969/12/31/18:00:18.597,(-13 -9 -7 -37 -25 -21 -12 -12)
1969/12/31/18:00:18.606,(8 1 4 23 -4 1 11 15)
1969/12/31/18:00:18.606,(19 18 0 2 26 19 9 8)
1969/12/31/18:00:18.621,(-2 3 12 44 39 16 2 5)
1969/12/31/18:00:18.621,(-16 -17 1 -6 -18 -13 -5 -5)
1969/12/31/18:00:18.623,(9 17 6 2 -22 -4 0 2)
1969/12/31/18:00:18.623,(-12 -9 2 4 26 4 0 -4)
1969/12/31/18:00:18.644,(4 31 14 21 23 20 28 18)
1969/12/31/18:00:18.644,(-22 -29 -17 -3 8 -2 -14 -17)
1969/12/31/18:00:18.645,(1 5 -6 -28 -19 -6 -4 -9)
1969/12/31/18:00:18.645,(21 1 3 -9 -26 -5 11 27)
1969/12/31/18:00:18.657,(-20 -20 -8 -8 2 6 5 -6)
1969/12/31/18:00:18.657,(0 8 0 11 2 1 2 3)
1969/12/31/18:00:18.666,(3 -1 2 -11 14 7 7 8)
1969/12/31/18:00:18.666,(-17 -6 1 6 1 -8 -14 -19)
1969/12/31/18:00:18.681,(11 1 -3 -13 -31 -17 -16 -4)
1969/12/31/18:00:18.681,(8 10 4 9 7 8 9 11)
1969/12/31/18:00:18.682,(6 1 -4 -28 -24 -18 -1 0)
1969/12/31/18:00:18.682,(7 8 -3 8 7 1 -4 -3)
1969/12/31/18:00:18.703,(11 4 1 4 14 5 3 4)
1969/12/31/18:00:18.703,(-3 -1 5 24 18 22 13 1)
1969/12/31/18:00:18.705,(-24 -35 1 12 35 15 -11 -14)
1969/12/31/18:00:18.705,(53 55 11 -14 -21 -7 9 30)
1969/12/31/18:00:18.717,(-18 -24 -12 -12 -28 -22 -21 -20)
1969/12/31/18:00:18.717,(-16 -10 -1 5 7 -6 -8 -13)
1969/12/31/18:00:18.726,(5 4 -2 1 -5 2 8 8)
1969/12/31/18:00:18.726,(-10 -10 -9 -22 -52 -32 -11 -9)
1969/12/31/18:00:18.740,(6 2 0 1 -4 -5 -9 -3)
1969/12/31/18:00:18.740,(6 1 1 4 21 17 9 9)
1969/12/31/18:00:18.747,(2 11 2 10 36 17 3 -3)
1969/12/31/18:00:18.747,(-6 -5 0 3 4 12 2 -5)
1969/12/31/18:00:18.763,(3 2 -1 -7 -50 -20 2 7)
1969/12/31/18:00:18.763,(-7 -6 -1 -1 -1 -7 -6 -6)
1969/12/31/18:00:18.765,(5 8 5 25 64 36 13 6)
1969/12/31/18:00:18.765,(-12 -3 0 12 42 21 7 -2)
1969/12/31/18:00:18.786,(5 -4 -3 -2 4 -10 -15 -6)
1969/12/31/18:00:18.786,(-10 -5 5 -1 -29 -2 17 3)
1969/12/31/18:00:18.787,(52 54 10 -6 -29 -24 -10 17)
1969/12/31/18:00:18.788,(-12 -12 -6 -11 -11 -13 -13 -15)
1969/12/31/18:00:18.800,(-3 -13 -6 -11 -10 -5 5 6)
1969/12/31/18:00:18.800,(23 13 5 3 -4 -1 6 12)
1969/12/31/18:00:18.809,(-18 -11 -8 -9 -6 -4 -1 -7)
1969/12/31/18:00:18.809,(-11 -19 -6 -4 2 0 -6 -16)
1969/12/31/18:00:18.824,(8 3 3 1 8 10 3 6)
1969/12/31/18:00:18.824,(-5 -5 -1 3 8 -3 -8 -5)
1969/12/31/18:00:18.825,(-21 -16 -5 1 -10 -7 -7 -13)
1969/12/31/18:00:18.825,(12 5 1 -7 -8 4 7 10)
1969/12/31/18:00:18.846,(9 9 3 7 16 7 7 0)
1969/12/31/18:00:18.846,(19 -8 -4 -5 -1 -5 -7 15)
1969/12/31/18:00:18.848,(49 82 14 3 -8 -7 2 18)
1969/12/31/18:00:18.848,(-18 -5 -5 -6 -11 -6 -11 -15)
1969/12/31/18:00:18.859,(22 -10 11 14 31 30 40 39)
1969/12/31/18:00:18.859,(-5 3 -9 -6 -7 -13 -18 -15)
1969/12/31/18:00:18.869,(-16 -29 -1 -2 -7 -1 4 -1)
1969/12/31/18:00:18.869,(6 3 3 0 4 7 9 7)
1969/12/31/18:00:18.883,(-2 14 -1 -1 -7 -13 -16 -10)
1969/12/31/18:00:18.883,(4 4 0 -9 11 3 4 3)
1969/12/31/18:00:18.890,(-20 -31 -13 -15 -29 -7 -3 -7)
1969/12/31/18:00:18.890,(1 5 -1 15 13 3 4 4)
1969/12/31/18:00:18.906,(-5 -1 10 22 12 1 -9 -9)
1969/12/31/18:00:18.906,(-13 -7 4 10 7 3 -4 -9)
1969/12/31/18:00:18.907,(-11 -8 -5 -7 1 2 1 -5)
1969/12/31/18:00:18.907,(-7 -10 -8 -17 -18 -9 -5 -4)
1969/12/31/18:00:18.920,(36 49 -3 -11 -5 3 8 19)
1969/12/31/18:00:18.920,(-2 -4 1 -9 -1 -3 -5 -5)
1969/12/31/18:00:18.929,(-2 -7 -7 -3 -3 -2 1 -1)
1969/12/31/18:00:18.929,(1 4 -3 -14 -20 -5 -2 -3)
1969/12/31/18:00:18.944,(-10 -15 -8 -4 -12 -11 -8 -6)
1969/12/31/18:00:18.944,(-10 2 1 -1 16 -9 -11 -11)
1969/12/31/18:00:18.945,(2 1 5 -9 -11 1 4 2)
1969/12/31/18:00:18.945,(5 1 21 55 17 36 18 9)
1969/12/31/18:00:18.966,(-9 0 10 39 58 30 8 -3)
1969/12/31/18:00:18.966,(-1 -1 2 12 12 -3 -3 1)
1969/12/31/18:00:18.968,(-18 -16 8 -2 -40 -28 -20 -18)
1969/12/31/18:00:18.968,(7 12 13 -26 -16 4 9 8)
1969/12/31/18:00:18.988,(3 -15 -78 -101 -122 -76 -22 -2)
1969/12/31/18:00:18.988,(-18 -28 -35 11 30 4 -15 -15)
1969/12/31/18:00:18.989,(6 17 41 25 103 50 26 16)
1969/12/31/18:00:18.989,(0 7 4 61 65 38 5 0)
1969/12/31/18:00:19.003,(3 2 7 -1 0 14 4 1)
1969/12/31/18:00:19.003,(-8 -11 -5 -24 -68 -34 -4 -5)
1969/12/31/18:00:19.004,(-4 -7 -10 -76 -103 -41 -15 -7)
1969/12/31/18:00:19.004,(10 12 11 43 40 -4 -2 5)
1969/12/31/18:00:19.026,(-10 1 18 18 62 26 0 -8)
1969/12/31/18:00:19.026,(4 0 -12 5 2 9 7 6)
1969/12/31/18:00:19.027,(-6 -12 3 12 7 13 3 -2)
1969/12/31/18:00:19.027,(-9 -8 -27 -54 -88 -43 -13 -8)
1969/12/31/18:00:19.048,(-3 -11 -16 -57 -91 -54 -17 -3)
1969/12/31/18:00:19.048,(0 8 28 52 52 29 5 -1)
1969/12/31/18:00:19.048,(3 1 -17 67 109 51 14 6)
1969/12/31/18:00:19.048,(2 -5 -16 -45 52 23 6 3)
1969/12/31/18:00:19.063,(-11 -5 10 21 -1 7 -1 -10)
1969/12/31/18:00:19.063,(7 16 40 13 -39 -5 5 3)
1969/12/31/18:00:19.064,(10 8 4 27 -22 -20 -1 6)
1969/12/31/18:00:19.064,(-3 -10 -12 -20 -32 -26 -12 -6)
1969/12/31/18:00:19.086,(-4 -1 8 -20 1 1 -2 -5)
1969/12/31/18:00:19.086,(17 21 4 -24 -9 9 11 12)
1969/12/31/18:00:19.086,(1 -7 -25 15 9 2 -5 -4)
1969/12/31/18:00:19.086,(-2 -3 16 -19 -14 -6 2 1)
1969/12/31/18:00:19.108,(-19 -21 -41 -2 5 -3 -11 -13)
1969/12/31/18:00:19.108,(-8 -13 -12 -8 11 -4 -6 -3)
1969/12/31/18:00:19.109,(-8 3 21 -7 -14 -7 -5 -10)
1969/12/31/18:00:19.109,(5 7 8 6 0 0 1 3)
1969/12/31/18:00:19.123,(5 6 20 20 16 15 6 1)
1969/12/31/18:00:19.123,(0 1 -14 -20 -13 -2 3 2)
1969/12/31/18:00:19.124,(3 -2 -9 -16 -16 -7 -1 2)
1969/12/31/18:00:19.124,(-4 3 14 28 16 0 -4 -2)
1969/12/31/18:00:19.145,(0 3 14 28 31 15 6 3)
1969/12/31/18:00:19.145,(-2 -4 -13 -11 -4 -2 -2 -2)
1969/12/31/18:00:19.146,(-2 -1 3 -27 -18 -4 3 0)
1969/12/31/18:00:19.146,(1 -2 -8 -1 -12 -7 -3 -2)
1969/12/31/18:00:19.169,(0 -5 -14 11 -7 -3 1 1)
1969/12/31/18:00:19.169,(1 -3 5 -2 15 3 -1 -1)
1969/12/31/18:00:19.169,(-5 1 7 0 16 10 0 -3)
1969/12/31/18:00:19.169,(0 -4 -16 10 -2 -3 -1 0)
1969/12/31/18:00:19.183,(0 3 13 -9 3 5 2 1)
1969/12/31/18:00:19.183,(3 3 -10 1 -17 -6 0 1)
1969/12/31/18:00:19.184,(-1 -8 -11 4 1 -7 -2 0)
1969/12/31/18:00:19.184,(-8 -6 1 -4 -3 -4 -4 -8)
1969/12/31/18:00:19.207,(4 3 8 3 4 7 7 8)
1969/12/31/18:00:19.207,(-1 3 3 -6 -4 0 -1 -1)
1969/12/31/18:00:19.208,(4 -1 -5 7 9 0 -4 1)
1969/12/31/18:00:19.208,(-3 -2 -14 -24 -14 -5 -2 -4)
1969/12/31/18:00:19.229,(8 4 3 14 -6 4 5 5)
1969/12/31/18:00:19.229,(-15 -9 -2 3 24 -5 -12 -12)
1969/12/31/18:00:19.229,(7 7 2 -2 -1 4 7 8)
1969/12/31/18:00:19.229,(2 -1 2 0 -10 2 1 1)
1969/12/31/18:00:19.243,(-1 2 9 15 19 8 0 -1)
1969/12/31/18:00:19.243,(-1 0 0 1 -4 2 3 2)
1969/12/31/18:00:19.244,(-2 -1 3 4 -5 -11 -8 -4)
1969/12/31/18:00:19.244,(0 2 5 7 5 1 0 0)
1969/12/31/18:00:19.265,(2 -2 -13 -17 -8 4 4 1)
1969/12/31/18:00:19.265,(11 14 14 -5 -3 17 14 11)
1969/12/31/18:00:19.266,(-5 -2 12 32 30 -5 -13 -7)
1969/12/31/18:00:19.266,(-7 -12 -13 -10 -8 -4 -1 -3)
1969/12/31/18:00:19.289,(0 8 10 6 7 0 -3 -4)
1969/12/31/18:00:19.289,(1 0 -13 -7 -11 -3 3 -1)
1969/12/31/18:00:19.289,(0 -6 -19 -39 -26 -7 2 0)
1969/12/31/18:00:19.289,(10 5 6 7 12 4 -1 7)
1969/12/31/18:00:19.303,(-13 -7 9 -13 -17 -14 -10 -13)
1969/12/31/18:00:19.303,(1 2 4 38 16 6 3 2)
1969/12/31/18:00:19.304,(-1 1 -4 -23 -5 -2 -1 -1)
1969/12/31/18:00:19.304,(-3 0 10 30 25 10 3 1)
1969/12/31/18:00:19.325,(-12 -3 7 -23 0 -3 -6 -9)
1969/12/31/18:00:19.325,(13 3 -9 30 9 0 1 7)
1969/12/31/18:00:19.326,(-7 -7 -1 -1 -21 -3 -1 -4)
1969/12/31/18:00:19.326,(0 -2 -12 -25 -12 -2 2 0)
1969/12/31/18:00:19.340,(-5 -8 -14 -12 -3 -7 -6 -5)
1969/12/31/18:00:19.340,(0 6 13 2 -9 -6 -3 -1)
1969/12/31/18:00:19.348,(1 -2 -3 11 19 15 6 2)
1969/12/31/18:00:19.348,(-2 1 4 -5 -3 -3 -4 -5)
1969/12/31/18:00:19.371,(3 -3 -3 16 12 5 3 4)
1969/12/31/18:00:19.371,(-6 -3 -7 -27 -18 -12 -8 -7)
1969/12/31/18:00:19.372,(2 -2 -12 -20 -20 -4 1 0)
1969/12/31/18:00:19.372,(-3 0 11 22 22 5 2 -2)
1969/12/31/18:00:19.385,(3 5 3 15 -1 2 4 5)
1969/12/31/18:00:19.385,(2 -2 -2 -4 6 4 4 3)
1969/12/31/18:00:19.386,(-3 1 9 14 1 0 -5 -6)
1969/12/31/18:00:19.386,(3 -6 -23 -32 -18 -9 -1 3)
1969/12/31/18:00:19.400,(-3 -6 -12 -12 -5 -10 -6 -3)
1969/12/31/18:00:19.400,(-10 -6 2 0 -21 -8 -2 -5)
1969/12/31/18:00:19.408,(7 9 12 -3 24 11 7 8)
1969/12/31/18:00:19.408,(1 7 7 26 0 -1 -3 -2)
1969/12/31/18:00:19.423,(1 0 0 -1 12 3 -3 -2)
1969/12/31/18:00:19.423,(-3 -5 2 6 5 1 -1 0)
1969/12/31/18:00:19.424,(0 -2 -14 -11 -17 -10 -4 0)
1969/12/31/18:00:19.424,(-3 -8 -20 -49 -26 -9 -3 0)
1969/12/31/18:00:19.445,(3 3 -2 -23 -1 2 4 3)
1969/12/31/18:00:19.445,(-6 -2 14 18 1 4 -2 -7)
1969/12/31/18:00:19.446,(1 5 10 53 33 7 7 4)
1969/12/31/18:00:19.446,(-1 -4 -7 -16 -24 -11 -8 -7)
1969/12/31/18:00:19.460,(2 2 0 -9 -20 -3 0 1)
1969/12/31/18:00:19.460,(-3 -3 -3 -4 7 -3 0 -1)
1969/12/31/18:00:19.468,(10 3 -8 -19 -11 1 5 8)
1969/12/31/18:00:19.468,(7 8 15 57 64 19 9 9)
1969/12/31/18:00:19.483,(-3 -3 2 11 14 2 0 -1)
1969/12/31/18:00:19.483,(-7 -2 -5 -20 -6 -1 -8 -8)
1969/12/31/18:00:19.484,(-12 -8 -5 -5 -28 -12 -10 -8)
1969/12/31/18:00:19.484,(5 0 -2 -16 -13 1 8 7)
1969/12/31/18:00:19.505,(1 4 1 1 5 2 2 -2)
1969/12/31/18:00:19.505,(12 4 -1 3 3 6 9 15)
1969/12/31/18:00:19.506,(-9 -7 -11 -15 -11 -10 -10 -9)
1969/12/31/18:00:19.506,(-9 -6 1 -11 -10 -6 -8 -9)
1969/12/31/18:00:19.529,(-1 1 3 19 5 1 0 1)
1969/12/31/18:00:19.529,(-4 -4 -5 -8 -12 -3 7 5)
1969/12/31/18:00:19.529,(2 1 4 -3 19 5 3 2)
1969/12/31/18:00:19.529,(-1 -1 0 1 -1 1 2 0)
1969/12/31/18:00:19.543,(-1 0 3 8 2 1 -3 -5)
1969/12/31/18:00:19.543,(1 2 -3 -1 -2 -2 -5 -5)
1969/12/31/18:00:19.550,(3 1 0 -17 -5 0 4 2)
1969/12/31/18:00:19.550,(-2 -1 6 27 -6 3 0 0)
1969/12/31/18:00:19.565,(-2 -1 4 11 14 0 -1 -1)
1969/12/31/18:00:19.565,(4 2 -3 -11 0 -2 -3 -1)
1969/12/31/18:00:19.566,(-2 0 0 8 1 3 2 1)
1969/12/31/18:00:19.566,(1 0 -4 -13 0 -1 -2 0)
1969/12/31/18:00:19.589,(-1 -5 -2 -5 -10 -2 -2 -2)
1969/12/31/18:00:19.589,(2 0 -3 -6 -2 -1 3 6)
1969/12/31/18:00:19.589,(1 0 -1 5 -1 -1 -2 -4)
1969/12/31/18:00:19.589,(-6 0 1 -8 -13 -9 -6 -4)
1969/12/31/18:00:19.603,(1 1 1 1 3 2 3 5)
1969/12/31/18:00:19.603,(0 1 1 5 10 3 1 0)
1969/12/31/18:00:19.604,(-2 -3 -4 -5 -19 -5 -5 -4)
1969/12/31/18:00:19.604,(-3 -2 -2 -10 21 1 -2 -3)
