time,.data
1969/12/31/18:00:07.230,(-2 2 6 3 -1 -1 -1 -2)
1969/12/31/18:00:07.230,(-2 0 2 3 0 -1 -1 -1)
1969/12/31/18:00:07.240,(2 1 -2 1 0 1 0 -1)
1969/12/31/18:00:07.240,(-3 -6 -2 -2 -2 -3 -4 -2)
1969/12/31/18:00:07.248,(-5 -5 -6 -3 1 2 0 -1)
1969/12/31/18:00:07.248,(8 8 -3 -6 -2 -2 -3 1)
1969/12/31/18:00:07.253,(-2 -2 0 -7 -4 -2 -1 -1)
1969/12/31/18:00:07.253,(2 2 7 15 7 3 2 3)
1969/12/31/18:00:07.274,(-2 -3 -4 2 -1 -2 -1 -1)
1969/12/31/18:00:07.274,(-7 -8 -2 -2 -3 0 -2 -5)
1969/12/31/18:00:07.275,(-2 -5 -9 -8 -3 0 0 -1)
1969/12/31/18:00:07.275,(-2 -1 -3 -11 -3 -2 -1 -3)
1969/12/31/18:00:07.280,(7 7 12 8 2 1 1 1)
1969/12/31/18:00:07.280,(-6 -4 -5 -1 -1 -2 -1 -1)
1969/12/31/18:00:07.291,(-2 -3 -9 -7 -2 -2 -1 -2)
1969/12/31/18:00:07.291,(1 1 3 -3 -4 -2 -2 -1)
1969/12/31/18:00:07.305,(-6 -2 -7 -6 -5 -4 -4 -6)
1969/12/31/18:00:07.305,(4 5 5 13 9 3 3 2)
1969/12/31/18:00:07.305,(0 0 14 11 -2 -2 1 0)
1969/12/31/18:00:07.305,(1 2 -4 0 14 5 3 5)
1969/12/31/18:00:07.311,(-7 -12 -18 -16 -11 -6 -2 -3)
1969/12/31/18:00:07.311,(0 0 7 7 3 2 1 1)
1969/12/31/18:00:07.324,(-3 -2 -15 -2 0 -6 -3 -3)
1969/12/31/18:00:07.324,(3 10 27 18 2 6 5 4)
1969/12/31/18:00:07.331,(0 -7 -10 -21 -9 0 0 0)
1969/12/31/18:00:07.331,(-5 -1 -13 -16 -4 -3 -5 -7)
1969/12/31/18:00:07.342,(4 7 31 45 6 4 1 3)
1969/12/31/18:00:07.342,(-4 -9 -12 -10 -1 0 -1 -3)
1969/12/31/18:00:07.349,(0 -4 -5 0 3 0 -1 0)
1969/12/31/18:00:07.349,(-3 -7 -12 -16 -7 -3 -2 -2)
1969/12/31/18:00:07.354,(-3 -3 -11 -23 -4 -1 1 2)
1969/12/31/18:00:07.354,(-2 -1 -6 1 -6 -7 -5 -5)
1969/12/31/18:00:07.362,(1 1 5 4 4 4 1 0)
1969/12/31/18:00:07.362,(0 2 3 1 -3 -8 -4 -2)
1969/12/31/18:00:07.374,(0 2 -2 -6 -4 0 -2 -1)
1969/12/31/18:00:07.374,(-4 -5 -1 -1 1 -1 -3 -2)
1969/12/31/18:00:07.381,(-1 -7 -11 -10 -3 -1 1 2)
1969/12/31/18:00:07.381,(7 9 9 4 -1 -2 -2 3)
1969/12/31/18:00:07.392,(-11 -11 2 8 3 1 -4 -7)
1969/12/31/18:00:07.392,(-4 0 -9 -8 -4 -3 -3 -4)
1969/12/31/18:00:07.406,(3 11 3 7 2 0 -1 1)
1969/12/31/18:00:07.406,(4 5 -4 -2 -4 1 2 2)
1969/12/31/18:00:07.406,(0 2 -5 -10 -2 -1 -2 0)
1969/12/31/18:00:07.406,(2 2 -2 -3 -2 -2 -1 -2)
1969/12/31/18:00:07.413,(-1 0 3 8 3 -1 -1 -2)
1969/12/31/18:00:07.413,(-3 -6 0 4 0 1 0 1)
1969/12/31/18:00:07.424,(0 -4 -4 -2 1 1 0 1)
1969/12/31/18:00:07.424,(-4 -5 -1 -1 -7 -1 -3 -4)
1969/12/31/18:00:07.432,(-1 -2 5 3 -2 -2 -3 -1)
1969/12/31/18:00:07.432,(-3 -3 -1 1 0 -2 -1 -3)
1969/12/31/18:00:07.451,(-2 -3 -3 -4 -1 -2 -1 0)
1969/12/31/18:00:07.451,(1 -2 -3 -1 -3 -2 -1 0)
1969/12/31/18:00:07.452,(0 2 4 -1 -1 -1 0 0)
1969/12/31/18:00:07.452,(-5 -3 -4 -1 0 2 0 -3)
1969/12/31/18:00:07.456,(-4 -8 5 8 7 3 4 3)
1969/12/31/18:00:07.456,(-2 -3 -3 -2 -1 -2 -3 -1)
1969/12/31/18:00:07.470,(-6 -16 -10 -5 -4 -3 -3 -2)
1969/12/31/18:00:07.470,(-1 20 18 6 0 0 -2 -5)
1969/12/31/18:00:07.475,(0 0 -4 -7 -5 -4 -2 -3)
1969/12/31/18:00:07.475,(0 0 -4 -2 0 -2 -1 -3)
1969/12/31/18:00:07.482,(1 -22 -12 -5 2 2 1 4)
1969/12/31/18:00:07.482,(-5 -30 -26 -13 -5 -6 -8 -3)
1969/12/31/18:00:07.494,(1 32 26 5 5 0 0 -7)
1969/12/31/18:00:07.494,(14 7 1 -4 -1 -1 -2 6)
1969/12/31/18:00:07.500,(-2 11 4 3 2 -1 -2 -6)
1969/12/31/18:00:07.500,(-28 -40 -23 -12 -8 -3 6 10)
1969/12/31/18:00:07.506,(0 -3 -5 0 1 -4 -12 -10)
1969/12/31/18:00:07.506,(-2 6 11 4 0 2 3 -12)
1969/12/31/18:00:07.521,(-13 -7 -5 -4 -5 -3 7 15)
1969/12/31/18:00:07.521,(25 24 17 9 5 1 -10 -13)
1969/12/31/18:00:07.526,(-11 -10 -11 -7 -6 -1 5 1)
1969/12/31/18:00:07.526,(-18 -1 2 1 1 -1 -6 -13)
1969/12/31/18:00:07.533,(17 10 3 3 -1 -3 -6 -3)
1969/12/31/18:00:07.533,(6 9 9 3 1 1 4 2)
1969/12/31/18:00:07.545,(-9 -11 -12 -6 -5 -3 -5 -6)
1969/12/31/18:00:07.545,(2 -14 -13 -4 -5 -2 3 2)
1969/12/31/18:00:07.550,(-4 8 4 1 0 -1 1 2)
1969/12/31/18:00:07.550,(7 7 5 2 1 0 5 15)
1969/12/31/18:00:07.557,(8 1 0 0 2 2 2 10)
1969/12/31/18:00:07.557,(-2 -1 2 2 2 -5 -15 -23)
1969/12/31/18:00:07.569,(-3 -1 2 -2 -1 0 9 29)
1969/12/31/18:00:07.569,(5 9 9 5 4 -1 -6 0)
1969/12/31/18:00:07.575,(4 11 -1 -6 -4 3 9 -21)
1969/12/31/18:00:07.575,(8 -1 1 1 1 -4 -12 14)
1969/12/31/18:00:07.589,(-39 -26 -8 -4 -2 1 0 -22)
1969/12/31/18:00:07.589,(-8 -17 -5 -3 -3 -3 -3 -9)
1969/12/31/18:00:07.596,(-16 -7 -11 -9 -10 -5 -7 -6)
1969/12/31/18:00:07.596,(-2 13 10 4 4 3 12 9)
1969/12/31/18:00:07.601,(32 32 6 3 7 29 -12 2)
1969/12/31/18:00:07.601,(-3 -1 0 -2 -7 -28 16 2)
1969/12/31/18:00:07.607,(-3 2 6 7 9 5 5 -12)
1969/12/31/18:00:07.607,(-8 -16 -5 -3 -4 -20 -10 3)
1969/12/31/18:00:07.615,(-11 11 17 13 7 -7 -30 -49)
1969/12/31/18:00:07.615,(44 20 7 1 5 20 15 31)
1969/12/31/18:00:07.627,(-9 -14 -8 -6 -7 -9 -21 -5)
1969/12/31/18:00:07.627,(-6 -9 -5 0 2 10 22 -4)
1969/12/31/18:00:07.640,(32 12 3 0 1 -1 35 62)
1969/12/31/18:00:07.640,(-44 -15 -8 -4 -6 -9 -40 -21)
1969/12/31/18:00:07.646,(22 14 4 1 1 -11 4 15)
1969/12/31/18:00:07.646,(1 0 -8 -8 -7 15 -7 -30)
1969/12/31/18:00:07.652,(-38 -39 -15 -8 -4 -15 -3 0)
1969/12/31/18:00:07.652,(14 6 -3 -4 -6 11 30 25)
1969/12/31/18:00:07.666,(5 -25 -11 -6 -1 12 3 -6)
1969/12/31/18:00:07.666,(-13 -2 -4 3 2 -32 -56 -47)
1969/12/31/18:00:07.667,(-18 1 -2 -7 -6 5 21 3)
1969/12/31/18:00:07.667,(-15 -12 6 1 -4 -10 -17 -31)
1969/12/31/18:00:07.691,(-13 -4 6 4 2 -1 0 4)
1969/12/31/18:00:07.691,(3 -1 -5 -2 0 8 27 16)
1969/12/31/18:00:07.692,(10 0 7 6 2 -5 -35 -30)
1969/12/31/18:00:07.692,(4 -8 -9 -3 1 3 7 36)
1969/12/31/18:00:07.697,(29 18 5 1 -3 -7 17 14)
1969/12/31/18:00:07.697,(-22 -17 -6 -2 0 10 13 -1)
1969/12/31/18:00:07.703,(13 0 -8 -7 -5 2 -5 25)
1969/12/31/18:00:07.703,(-22 -20 -8 -4 0 8 23 5)
1969/12/31/18:00:07.722,(66 46 16 9 5 2 5 27)
1969/12/31/18:00:07.722,(-94 -11 -4 -2 -3 1 0 -53)
1969/12/31/18:00:07.724,(6 -19 -6 -5 -6 -15 -36 -77)
1969/12/31/18:00:07.724,(3 13 -2 -6 -7 3 9 2)
1969/12/31/18:00:07.728,(-32 -25 -8 -1 2 -6 -11 -16)
1969/12/31/18:00:07.728,(16 17 9 3 2 2 1 26)
1969/12/31/18:00:07.736,(1 19 3 0 -2 1 25 24)
1969/12/31/18:00:07.736,(7 -16 -8 -4 -2 -6 -22 -12)
1969/12/31/18:00:07.754,(-15 8 6 4 2 10 2 -15)
1969/12/31/18:00:07.754,(38 7 -2 -4 -6 -12 2 56)
1969/12/31/18:00:07.756,(79 7 -8 -9 -1 20 23 69)
1969/12/31/18:00:07.756,(29 -4 -8 -5 -7 -18 12 73)
1969/12/31/18:00:07.766,(-35 -4 3 -1 -4 -6 -10 -9)
1969/12/31/18:00:07.766,(-17 -20 -13 -6 0 9 -7 1)
1969/12/31/18:00:07.774,(20 27 -1 -6 -8 -11 7 3)
1969/12/31/18:00:07.774,(41 -3 -2 4 6 5 -1 19)
1969/12/31/18:00:07.785,(-38 -30 -10 -8 -4 6 3 -2)
1969/12/31/18:00:07.785,(-15 -14 0 2 1 -2 -3 -15)
1969/12/31/18:00:07.791,(33 14 2 4 1 2 22 37)
1969/12/31/18:00:07.791,(-5 0 4 2 4 9 -4 -29)
1969/12/31/18:00:07.811,(-10 16 4 1 0 -6 -10 -12)
1969/12/31/18:00:07.811,(45 -5 -7 -12 -11 -4 17 20)
1969/12/31/18:00:07.812,(-57 -19 5 7 3 -8 -23 -43)
1969/12/31/18:00:07.812,(-27 -15 -11 -6 -1 7 2 -13)
1969/12/31/18:00:07.823,(33 16 6 3 5 0 7 36)
1969/12/31/18:00:07.823,(20 21 18 11 5 -13 -25 -4)
1969/12/31/18:00:07.825,(41 18 -6 -7 -4 -1 -20 -25)
1969/12/31/18:00:07.825,(-30 9 8 4 4 23 26 -50)
1969/12/31/18:00:07.836,(-47 -40 -21 -12 -9 27 41 -1)
1969/12/31/18:00:07.836,(-6 18 9 4 3 -19 -47 27)
1969/12/31/18:00:07.842,(28 -23 2 2 2 -10 -1 -6)
1969/12/31/18:00:07.842,(24 32 9 8 8 -6 -34 -2)
1969/12/31/18:00:07.855,(-3 -21 -20 -17 -18 -20 -20 -22)
1969/12/31/18:00:07.855,(24 53 15 2 1 10 19 22)
1969/12/31/18:00:07.856,(-52 -52 -17 -5 -3 11 -19 -108)
1969/12/31/18:00:07.856,(-7 28 19 9 2 -12 -15 -26)
1969/12/31/18:00:07.874,(16 -27 -4 8 9 7 7 51)
1969/12/31/18:00:07.874,(-33 -6 -11 -8 -8 -5 -11 -60)
1969/12/31/18:00:07.876,(-38 5 0 -2 0 -8 -1 -2)
1969/12/31/18:00:07.876,(23 9 1 1 0 9 21 21)
1969/12/31/18:00:07.886,(10 -15 -9 -7 -7 -6 -17 14)
1969/12/31/18:00:07.886,(-35 -19 6 8 8 11 14 -37)
1969/12/31/18:00:07.893,(41 26 -8 -15 -16 -10 -21 -21)
1969/12/31/18:00:07.893,(-50 -33 -14 -12 -13 -17 -27 -53)
1969/12/31/18:00:07.906,(-21 6 2 6 13 13 13 -11)
1969/12/31/18:00:07.906,(20 6 -3 -5 -2 8 30 23)
1969/12/31/18:00:07.908,(-60 -31 6 12 12 12 -9 -8)
1969/12/31/18:00:07.908,(39 24 -4 -6 -12 -36 8 55)
1969/12/31/18:00:07.925,(7 7 2 2 8 13 -41 -68)
1969/12/31/18:00:07.925,(110 8 -4 2 -4 -7 14 64)
1969/12/31/18:00:07.926,(-40 -8 4 3 5 0 10 43)
1969/12/31/18:00:07.926,(-7 12 -5 -6 -6 -15 -32 -45)
1969/12/31/18:00:07.936,(-33 -19 -1 2 0 -4 2 -11)
1969/12/31/18:00:07.936,(-24 -6 -1 -3 -1 2 5 -26)
1969/12/31/18:00:07.944,(59 42 17 10 7 5 20 65)
1969/12/31/18:00:07.944,(-71 -39 -12 -3 -1 0 -35 -81)
1969/12/31/18:00:07.957,(97 51 8 -4 -9 -16 -9 22)
1969/12/31/18:00:07.957,(-87 -45 -14 -2 -1 0 -16 -80)
1969/12/31/18:00:07.958,(-3 5 -2 0 0 -3 6 75)
1969/12/31/18:00:07.958,(-10 -23 1 1 6 20 26 -16)
1969/12/31/18:00:07.982,(1 4 -3 -5 -4 5 17 20)
1969/12/31/18:00:07.982,(15 25 12 5 -2 -24 -39 11)
1969/12/31/18:00:07.988,(2 -11 -8 -3 -2 -3 2 7)
1969/12/31/18:00:07.988,(-2 -5 10 6 4 5 -3 44)
1969/12/31/18:00:07.988,(-23 -25 -13 -8 -6 -19 -3 -13)
1969/12/31/18:00:07.988,(16 -6 -5 -1 0 15 51 46)
1969/12/31/18:00:08.000,(14 8 2 3 -1 -22 -19 -5)
1969/12/31/18:00:08.000,(-38 -7 6 7 11 31 4 -2)
1969/12/31/18:00:08.007,(-10 23 6 -2 -1 11 4 -33)
1969/12/31/18:00:08.007,(10 33 8 3 6 -15 1 35)
1969/12/31/18:00:08.008,(5 -41 -4 5 0 -8 13 -34)
1969/12/31/18:00:08.008,(42 -5 -10 -8 3 42 16 35)
1969/12/31/18:00:08.025,(11 1 5 5 -23 -44 -2 35)
1969/12/31/18:00:08.025,(-37 3 -5 -8 -4 -16 -36 -70)
1969/12/31/18:00:08.033,(-48 15 17 19 16 9 3 -51)
1969/12/31/18:00:08.033,(-17 6 8 5 7 -9 -12 -5)
1969/12/31/18:00:08.038,(-11 -34 -14 -9 -4 41 13 -15)
1969/12/31/18:00:08.038,(2 7 -6 -10 -7 14 7 9)
1969/12/31/18:00:08.045,(46 1 -1 -8 -9 5 26 71)
1969/12/31/18:00:08.045,(0 -25 -16 -9 -4 -18 4 2)
1969/12/31/18:00:08.059,(-29 9 12 21 30 -5 -6 1)
1969/12/31/18:00:08.059,(-16 -15 -7 -10 -36 -14 -3 -9)
1969/12/31/18:00:08.060,(26 3 5 27 46 6 -19 -36)
1969/12/31/18:00:08.060,(40 45 17 -4 -21 -1 16 -6)
1969/12/31/18:00:08.077,(7 -11 -25 -39 -13 12 -14 -27)
1969/12/31/18:00:08.077,(18 -24 -16 -22 -23 -1 -2 11)
1969/12/31/18:00:08.078,(-28 -10 -10 -5 3 9 2 -12)
1969/12/31/18:00:08.078,(-4 22 12 16 2 -26 -14 -8)
1969/12/31/18:00:08.088,(8 -26 -1 9 0 -16 -9 -23)
1969/12/31/18:00:08.088,(0 -5 -2 2 5 17 -11 -18)
1969/12/31/18:00:08.096,(-39 6 -1 -1 -1 -10 -6 -12)
1969/12/31/18:00:08.096,(-17 11 11 18 14 8 23 26)
1969/12/31/18:00:08.108,(18 23 2 -15 -15 -11 3 80)
1969/12/31/18:00:08.109,(35 -18 -7 3 6 2 9 -1)
1969/12/31/18:00:08.114,(6 -3 1 6 -3 2 15 37)
1969/12/31/18:00:08.114,(-25 -1 -5 -17 -11 7 -17 -49)
1969/12/31/18:00:08.127,(-38 9 -2 1 9 -4 -16 -55)
1969/12/31/18:00:08.127,(-10 -23 -8 -13 -8 11 14 30)
1969/12/31/18:00:08.129,(-15 4 -1 -12 -28 -27 -10 -37)
1969/12/31/18:00:08.129,(1 -14 -9 27 49 9 5 11)
1969/12/31/18:00:08.139,(45 27 10 -9 -17 22 5 11)
1969/12/31/18:00:08.139,(14 30 11 4 17 14 10 -11)
1969/12/31/18:00:08.152,(-8 -21 -15 -21 -25 -5 -2 -13)
1969/12/31/18:00:08.152,(-5 -14 -4 -5 -13 -18 -9 -2)
1969/12/31/18:00:08.166,(-10 -22 -5 12 14 -18 0 9)
1969/12/31/18:00:08.166,(-30 -4 -3 11 20 3 -1 -43)
1969/12/31/18:00:08.167,(0 35 15 3 -6 11 14 35)
1969/12/31/18:00:08.167,(-17 -8 -4 -5 -13 -22 -5 -4)
1969/12/31/18:00:08.179,(-30 11 7 2 16 9 -1 -18)
1969/12/31/18:00:08.179,(-8 -32 0 -8 -6 9 2 7)
1969/12/31/18:00:08.180,(5 7 -8 -1 11 4 0 3)
1969/12/31/18:00:08.180,(28 17 2 -6 -10 0 5 4)
1969/12/31/18:00:08.189,(-6 -23 -8 2 -16 -22 -5 -11)
1969/12/31/18:00:08.189,(0 9 -6 2 0 -7 -11 16)
1969/12/31/18:00:08.197,(-4 40 20 -6 -14 -25 -10 -12)
1969/12/31/18:00:08.197,(-1 -22 0 -2 -1 13 12 35)
1969/12/31/18:00:08.210,(-17 9 6 7 26 42 2 -10)
1969/12/31/18:00:08.210,(60 -52 -37 -2 -9 -32 8 56)
1969/12/31/18:00:08.211,(36 37 -3 -8 12 12 -11 -6)
1969/12/31/18:00:08.211,(24 43 44 4 -9 17 25 45)
1969/12/31/18:00:08.228,(39 3 -22 -5 -6 -9 -5 -5)
1969/12/31/18:00:08.228,(-13 35 39 12 6 10 5 13)
1969/12/31/18:00:08.230,(28 -38 -31 -23 -34 -32 -2 33)
1969/12/31/18:00:08.230,(-23 -77 -48 -9 -4 -45 -6 -11)
1969/12/31/18:00:08.248,(20 25 -9 4 11 25 0 10)
1969/12/31/18:00:08.248,(-17 -29 -28 -20 1 35 -6 -50)
1969/12/31/18:00:08.249,(-18 -4 -3 0 -13 -11 2 -13)
1969/12/31/18:00:08.249,(22 110 78 14 8 12 -12 -7)
1969/12/31/18:00:08.260,(-25 21 52 30 11 -16 -16 -47)
1969/12/31/18:00:08.260,(-33 -27 -19 0 0 4 16 12)
1969/12/31/18:00:08.262,(-58 -101 -43 -12 0 -4 -15 -12)
1969/12/31/18:00:08.262,(20 -66 -110 -40 -37 -33 4 27)
1969/12/31/18:00:08.280,(-22 -9 14 24 25 -8 -7 -8)
1969/12/31/18:00:08.280,(28 110 67 6 14 45 8 25)
1969/12/31/18:00:08.281,(8 36 39 6 -8 31 30 15)
1969/12/31/18:00:08.281,(1 -34 -31 -15 -4 -6 -29 -53)
1969/12/31/18:00:08.291,(0 -72 -48 -29 -35 -37 6 -9)
1969/12/31/18:00:08.291,(-5 22 24 17 8 -23 -3 16)
1969/12/31/18:00:08.298,(-5 7 -22 0 17 8 -9 -38)
1969/12/31/18:00:08.298,(-19 -27 10 3 2 15 6 -11)
1969/12/31/18:00:08.311,(37 25 -34 -14 -8 3 25 69)
1969/12/31/18:00:08.311,(20 48 61 20 5 -8 -16 -11)
1969/12/31/18:00:08.313,(-17 30 45 7 -8 -24 -10 1)
1969/12/31/18:00:08.313,(-25 -23 -30 -8 17 20 2 -15)
1969/12/31/18:00:08.336,(-6 51 35 -4 -17 4 -4 9)
1969/12/31/18:00:08.336,(-4 -30 -37 -5 5 -10 -8 8)
1969/12/31/18:00:08.338,(-8 11 10 11 14 17 7 -1)
1969/12/31/18:00:08.338,(-7 -94 -38 -20 -35 -33 -10 80)
1969/12/31/18:00:08.341,(-30 -80 -54 -15 15 8 24 4)
1969/12/31/18:00:08.341,(-60 54 13 -13 -41 -51 -37 -78)
1969/12/31/18:00:08.349,(-5 -24 -3 -1 2 3 -18 -4)
1969/12/31/18:00:08.349,(-4 -66 -86 -23 6 20 12 -27)
1969/12/31/18:00:08.361,(17 105 103 34 16 22 -13 -1)
1969/12/31/18:00:08.361,(43 26 -5 5 23 13 30 44)
1969/12/31/18:00:08.368,(-73 -69 -10 -2 1 17 -8 -30)
1969/12/31/18:00:08.368,(17 39 -34 -15 -20 -19 -13 -8)
1969/12/31/18:00:08.379,(-24 15 29 9 0 -7 -28 -54)
1969/12/31/18:00:08.379,(-14 -123 -68 -24 -11 -8 13 6)
1969/12/31/18:00:08.387,(-44 45 10 3 18 9 -7 -30)
1969/12/31/18:00:08.387,(-18 -13 4 -1 0 -4 -2 -13)
1969/12/31/18:00:08.392,(8 -25 -8 -1 -25 -40 -21 -3)
1969/12/31/18:00:08.392,(98 78 60 30 8 11 11 53)
1969/12/31/18:00:08.400,(5 -70 -57 -1 71 17 -28 -48)
1969/12/31/18:00:08.400,(-46 73 80 6 -38 47 7 -14)
1969/12/31/18:00:08.418,(-23 -75 -54 -45 -38 -27 -7 0)
1969/12/31/18:00:08.418,(-21 -2 -28 -16 -16 3 -3 -37)
1969/12/31/18:00:08.420,(6 42 49 14 -6 -15 0 -6)
1969/12/31/18:00:08.420,(43 80 60 35 26 -31 3 5)
1969/12/31/18:00:08.431,(12 -48 -29 4 18 18 11 22)
1969/12/31/18:00:08.431,(-80 -89 -37 -4 4 10 19 18)
1969/12/31/18:00:08.432,(86 98 23 3 1 9 15 29)
1969/12/31/18:00:08.432,(-1 52 41 9 5 -9 -10 -31)
1969/12/31/18:00:08.443,(-1 -45 -44 -18 -15 13 37 23)
1969/12/31/18:00:08.443,(-66 -88 -41 -5 -9 -32 -11 -46)
1969/12/31/18:00:08.457,(-17 32 50 11 -1 -6 -26 -7)
1969/12/31/18:00:08.457,(24 99 68 16 13 15 -14 -12)
1969/12/31/18:00:08.463,(12 105 55 14 -2 -6 6 7)
1969/12/31/18:00:08.463,(-17 -54 -53 -11 3 -4 -26 -14)
1969/12/31/18:00:08.464,(-10 -16 8 5 -22 0 35 51)
1969/12/31/18:00:08.464,(23 -47 -33 -6 3 -22 -2 37)
1969/12/31/18:00:08.481,(-40 -29 -3 -1 27 24 0 -29)
1969/12/31/18:00:08.481,(16 -16 -44 -22 -27 -31 18 32)
1969/12/31/18:00:08.483,(-3 59 55 19 0 17 -7 -11)
1969/12/31/18:00:08.483,(-44 -81 -46 -8 -6 -10 -5 -39)
1969/12/31/18:00:08.501,(-13 -64 -88 -29 -18 -21 -29 -10)
1969/12/31/18:00:08.501,(46 103 108 47 23 15 7 2)
1969/12/31/18:00:08.502,(-5 -110 -80 -28 -22 -24 -17 -36)
1969/12/31/18:00:08.502,(11 -23 -21 -6 -2 11 7 12)
1969/12/31/18:00:08.513,(-43 16 53 17 5 -17 -30 -28)
1969/12/31/18:00:08.513,(22 -90 -81 -29 -6 2 -4 27)
1969/12/31/18:00:08.515,(19 11 -20 -11 3 16 -2 20)
1969/12/31/18:00:08.515,(66 59 103 57 33 21 14 30)
1969/12/31/18:00:08.532,(-32 -54 -48 -14 -20 -11 -7 -43)
1969/12/31/18:00:08.532,(38 36 11 7 35 36 17 31)
1969/12/31/18:00:08.534,(-42 -85 -38 -13 -3 -11 3 -10)
1969/12/31/18:00:08.534,(-21 -29 -49 -21 18 24 -13 -20)
1969/12/31/18:00:08.544,(19 13 18 5 -12 -7 26 48)
1969/12/31/18:00:08.544,(-7 -12 1 -6 -12 2 -12 -41)
1969/12/31/18:00:08.551,(35 64 44 32 23 8 8 7)
1969/12/31/18:00:08.551,(-41 -99 -53 -17 -14 -14 -4 -22)
1969/12/31/18:00:08.563,(27 58 3 -1 9 7 -2 9)
1969/12/31/18:00:08.563,(36 94 83 19 -2 -1 10 43)
1969/12/31/18:00:08.569,(-15 -119 -77 -32 -27 -14 9 -13)
1969/12/31/18:00:08.569,(17 45 0 -7 9 6 15 36)
1969/12/31/18:00:08.583,(26 33 46 33 27 11 4 16)
1969/12/31/18:00:08.583,(-25 -53 -107 -44 -17 11 14 32)
1969/12/31/18:00:08.584,(19 60 68 19 -10 -16 -5 -3)
1969/12/31/18:00:08.584,(-53 -72 -48 -13 -19 -9 -7 -28)
1969/12/31/18:00:08.602,(-39 -20 -8 -7 -9 -5 -8 -35)
1969/12/31/18:00:08.602,(-28 -1 27 9 7 2 -25 -35)
1969/12/31/18:00:08.604,(28 -11 -30 -19 -8 -9 2 23)
1969/12/31/18:00:08.604,(6 29 19 14 24 12 5 -3)
1969/12/31/18:00:08.614,(10 -50 -41 -22 -35 -14 -15 -3)
1969/12/31/18:00:08.614,(-9 17 10 7 3 -12 -2 -12)
1969/12/31/18:00:08.620,(-34 -128 -107 -41 -28 2 5 -12)
1969/12/31/18:00:08.620,(22 100 69 36 6 -11 -6 -9)
1969/12/31/18:00:08.633,(61 -74 -42 11 24 8 16 67)
1969/12/31/18:00:08.633,(-31 -63 -32 -6 -18 -4 10 -2)
1969/12/31/18:00:08.635,(-13 81 45 7 -9 11 -14 -32)
1969/12/31/18:00:08.635,(17 0 -32 -14 13 7 -5 1)
1969/12/31/18:00:08.653,(50 -30 -5 -1 15 7 20 38)
1969/12/31/18:00:08.653,(-50 -128 -80 4 3 0 -7 -20)
1969/12/31/18:00:08.654,(46 78 66 15 -1 4 -6 14)
1969/12/31/18:00:08.654,(23 5 47 -9 -20 9 25 15)
1969/12/31/18:00:08.664,(-52 3 2 -3 6 -15 -36 -76)
1969/12/31/18:00:08.664,(-8 -57 -10 0 2 -4 -7 -25)
1969/12/31/18:00:08.677,(8 -3 -24 2 -8 -14 -23 -21)
1969/12/31/18:00:08.677,(-10 -35 -8 3 17 22 11 29)
1969/12/31/18:00:08.691,(25 39 36 16 -12 -22 -1 15)
1969/12/31/18:00:08.691,(1 -14 -56 -37 -19 -10 -13 -18)
1969/12/31/18:00:08.692,(-8 84 34 16 28 5 -9 -4)
1969/12/31/18:00:08.692,(-27 -98 -50 -13 -16 -26 -4 1)
1969/12/31/18:00:08.703,(-48 86 51 2 -23 -4 -4 -23)
1969/12/31/18:00:08.703,(36 126 114 38 5 -17 -12 -22)
1969/12/31/18:00:08.705,(38 -107 -98 -11 -1 -8 16 60)
1969/12/31/18:00:08.705,(-34 89 43 -9 -14 -10 -2 -13)
1969/12/31/18:00:08.715,(35 -47 -43 -7 14 29 -11 19)
1969/12/31/18:00:08.715,(-5 -17 -16 -13 8 4 0 -13)
1969/12/31/18:00:08.721,(-54 -90 -52 -23 -38 -26 5 -6)
1969/12/31/18:00:08.721,(38 65 63 27 6 13 -5 -30)
1969/12/31/18:00:08.734,(-3 -70 -28 -14 -8 -16 6 48)
1969/12/31/18:00:08.734,(-8 61 73 28 22 19 -4 -21)
1969/12/31/18:00:08.736,(-28 -128 -95 -19 11 7 -3 -12)
1969/12/31/18:00:08.736,(69 -5 -24 -1 -11 -6 1 26)
1969/12/31/18:00:08.754,(12 65 19 -6 -7 -2 -17 -36)
1969/12/31/18:00:08.754,(4 84 41 14 9 7 1 17)
1969/12/31/18:00:08.756,(-7 16 45 8 1 -22 13 5)
1969/12/31/18:00:08.756,(55 -27 -31 1 11 33 8 43)
1969/12/31/18:00:08.766,(-33 -39 -21 -21 -21 -16 -7 -29)
1969/12/31/18:00:08.766,(20 -107 -86 -23 -1 -16 -9 17)
1969/12/31/18:00:08.773,(12 104 97 24 13 22 0 -15)
1969/12/31/18:00:08.773,(-47 -117 -74 3 8 -23 -20 -15)
1969/12/31/18:00:08.785,(39 88 67 10 6 30 12 5)
1969/12/31/18:00:08.785,(9 14 33 10 -11 -8 -3 3)
1969/12/31/18:00:08.787,(-10 -14 -11 -13 -10 -2 6 -16)
1969/12/31/18:00:08.787,(-45 -77 -24 -4 20 7 13 -21)
1969/12/31/18:00:08.804,(17 -119 -119 -30 -14 -14 15 44)
1969/12/31/18:00:08.804,(0 120 114 41 11 -12 -27 -41)
1969/12/31/18:00:08.806,(7 -6 -26 -7 1 40 23 23)
1969/12/31/18:00:08.806,(-37 -104 -58 -22 -23 -35 -20 -17)
1969/12/31/18:00:08.816,(35 62 4 12 21 18 20 21)
1969/12/31/18:00:08.816,(16 97 99 28 16 14 23 23)
1969/12/31/18:00:08.824,(22 -91 -74 -24 -27 -31 -12 5)
1969/12/31/18:00:08.824,(-19 19 -13 1 25 -5 -20 -30)
1969/12/31/18:00:08.837,(-7 63 99 40 16 41 24 14)
1969/12/31/18:00:08.837,(-10 -113 -85 -39 -47 -6 9 11)
1969/12/31/18:00:08.837,(-18 20 30 8 2 -12 -13 -7)
1969/12/31/18:00:08.837,(16 20 -9 8 -7 0 24 23)
1969/12/31/18:00:08.855,(-22 -48 -18 -6 10 2 -27 -24)
1969/12/31/18:00:08.855,(4 -18 -57 -21 -8 0 -15 0)
1969/12/31/18:00:08.856,(25 39 37 20 42 28 12 16)
1969/12/31/18:00:08.856,(-17 -58 -25 -23 -67 -20 1 -12)
1969/12/31/18:00:08.867,(36 115 47 15 8 -10 27 41)
1969/12/31/18:00:08.867,(47 -44 -5 15 1 -3 2 28)
1969/12/31/18:00:08.874,(-19 -74 -52 -17 -12 -29 -4 12)
1969/12/31/18:00:08.874,(-5 -11 -33 -9 16 17 -16 -9)
1969/12/31/18:00:08.886,(1 50 59 21 11 11 -2 -12)
1969/12/31/18:00:08.887,(-74 -128 -82 -32 -11 -16 -21 -47)
1969/12/31/18:00:08.888,(13 106 62 17 -8 12 15 19)
1969/12/31/18:00:08.888,(13 11 17 -4 4 -7 -10 -13)
1969/12/31/18:00:08.906,(-60 -128 -92 -23 16 4 -8 -30)
1969/12/31/18:00:08.906,(56 127 84 26 -3 -12 12 13)
1969/12/31/18:00:08.907,(-9 -68 -42 -4 24 -4 -15 -27)
1969/12/31/18:00:08.907,(-63 17 21 20 29 17 4 -3)
1969/12/31/18:00:08.917,(-67 -114 -84 -38 -9 50 -14 -47)
1969/12/31/18:00:08.917,(-12 19 -10 -22 -41 -24 -8 -31)
1969/12/31/18:00:08.925,(-20 5 -17 -16 -15 -5 -7 -14)
1969/12/31/18:00:08.925,(5 110 98 31 27 4 4 13)
1969/12/31/18:00:08.937,(22 -21 0 10 1 -54 -13 -3)
1969/12/31/18:00:08.937,(16 -3 -7 15 10 27 13 30)
1969/12/31/18:00:08.939,(-2 -75 -83 -39 -21 -16 8 27)
1969/12/31/18:00:08.939,(-4 42 74 15 -16 5 -29 -50)
1969/12/31/18:00:08.956,(-17 -57 -83 -26 -5 -15 -2 5)
1969/12/31/18:00:08.956,(22 39 72 38 22 21 24 55)
1969/12/31/18:00:08.958,(-14 -49 -48 -1 0 4 -4 -14)
1969/12/31/18:00:08.958,(-31 -39 -56 -21 31 -31 -6 4)
1969/12/31/18:00:08.968,(2 47 57 21 -54 21 13 22)
1969/12/31/18:00:08.968,(-35 -90 -52 -22 -11 -9 -14 -11)
1969/12/31/18:00:08.976,(-43 -26 -9 -28 -17 -3 -12 -28)
1969/12/31/18:00:08.976,(24 -13 -66 -20 7 6 16 11)
1969/12/31/18:00:08.988,(20 46 46 19 2 -5 6 12)
1969/12/31/18:00:08.988,(-40 -68 -71 -27 15 0 -2 -1)
1969/12/31/18:00:08.989,(23 66 91 35 10 16 13 16)
1969/12/31/18:00:08.989,(24 30 21 11 5 0 -7 9)
1969/12/31/18:00:09.007,(-1 -24 -26 -29 -46 -52 -10 -13)
1969/12/31/18:00:09.007,(36 69 44 7 0 17 14 25)
1969/12/31/18:00:09.009,(3 -20 -58 -22 -11 12 -5 -3)
1969/12/31/18:00:09.009,(38 107 107 44 -19 -19 -1 17)
1969/12/31/18:00:09.025,(59 -71 -72 11 35 11 1 12)
1969/12/31/18:00:09.025,(-24 61 78 40 35 28 10 -22)
1969/12/31/18:00:09.027,(-17 -49 -56 -21 -33 -28 -10 -32)
1969/12/31/18:00:09.027,(21 -57 -22 -8 -12 7 -7 2)
1969/12/31/18:00:09.038,(0 -40 -15 2 11 2 -8 -3)
1969/12/31/18:00:09.038,(4 -36 -24 -21 4 -5 10 -1)
1969/12/31/18:00:09.040,(34 72 76 34 10 9 1 28)
1969/12/31/18:00:09.040,(-12 -88 -68 -25 -2 3 23 36)
1969/12/31/18:00:09.058,(-26 82 92 21 10 7 -13 -36)
1969/12/31/18:00:09.058,(-13 -128 -116 -30 -3 -4 -5 12)
1969/12/31/18:00:09.058,(20 127 107 25 29 -8 -12 -6)
1969/12/31/18:00:09.058,(-27 -54 -66 -25 -20 41 0 -8)
1969/12/31/18:00:09.069,(40 12 0 -9 -16 -11 -1 23)
1969/12/31/18:00:09.069,(-25 14 19 11 -11 -13 -21 -18)
1969/12/31/18:00:09.077,(1 11 24 22 6 1 18 -2)
1969/12/31/18:00:09.077,(32 -80 -62 -14 35 10 4 11)
1969/12/31/18:00:09.090,(-12 27 -7 -5 -7 -35 -1 -27)
1969/12/31/18:00:09.090,(33 33 47 8 -25 46 21 30)
1969/12/31/18:00:09.090,(-29 -45 -21 -6 -3 11 -2 -16)
1969/12/31/18:00:09.091,(-86 -47 -39 -29 -15 -12 9 -19)
1969/12/31/18:00:09.107,(-34 3 45 17 8 -6 -15 -40)
1969/12/31/18:00:09.107,(20 -14 -46 -16 17 -13 -6 -6)
1969/12/31/18:00:09.108,(13 -57 -50 -13 6 14 14 37)
1969/12/31/18:00:09.108,(0 82 86 21 -24 -16 5 7)
1969/12/31/18:00:09.127,(-40 -128 -114 -42 4 14 -4 2)
1969/12/31/18:00:09.127,(-24 103 69 17 -4 -18 -14 -31)
1969/12/31/18:00:09.127,(9 -24 -20 16 13 19 11 9)
1969/12/31/18:00:09.127,(-4 -87 -88 -19 19 -7 -18 -13)
1969/12/31/18:00:09.139,(-21 -60 -11 11 -17 4 22 8)
1969/12/31/18:00:09.139,(1 61 59 2 -7 -11 -13 1)
1969/12/31/18:00:09.139,(40 -1 6 -7 -10 -25 6 46)
1969/12/31/18:00:09.140,(-5 4 31 22 7 -6 -21 -50)
1969/12/31/18:00:09.158,(-33 -23 -41 -40 -15 14 -29 -27)
1969/12/31/18:00:09.158,(-14 -92 -73 -10 16 34 38 19)
1969/12/31/18:00:09.159,(-17 -13 20 19 19 3 -4 -9)
1969/12/31/18:00:09.159,(27 89 55 18 -8 -3 -9 0)
1969/12/31/18:00:09.177,(5 -35 -41 -9 21 17 23 24)
1969/12/31/18:00:09.177,(19 62 55 15 3 -15 -23 -20)
1969/12/31/18:00:09.178,(18 73 60 7 -14 -3 7 11)
1969/12/31/18:00:09.178,(36 -39 -24 0 -10 -9 7 19)
1969/12/31/18:00:09.190,(3 29 25 15 13 13 6 6)
1969/12/31/18:00:09.190,(16 -117 -107 -30 -9 -20 8 31)
1969/12/31/18:00:09.190,(-13 -1 -59 -28 -3 2 1 -15)
1969/12/31/18:00:09.191,(-16 21 22 12 -7 13 5 -4)
1969/12/31/18:00:09.209,(38 75 55 11 -12 -44 -18 -1)
1969/12/31/18:00:09.209,(-21 -126 -128 -28 41 55 13 25)
1969/12/31/18:00:09.209,(33 66 84 42 -20 -8 6 -6)
1969/12/31/18:00:09.209,(1 -47 -32 -34 -44 -33 -18 -20)
1969/12/31/18:00:09.228,(-19 -59 -51 -9 9 25 1 16)
1969/12/31/18:00:09.228,(15 65 78 18 -7 -25 2 -15)
1969/12/31/18:00:09.229,(-22 -86 -43 5 29 21 -15 -17)
1969/12/31/18:00:09.229,(-33 -65 -81 -42 -19 1 6 13)
1969/12/31/18:00:09.241,(48 107 113 101 11 -22 14 7)
1969/12/31/18:00:09.241,(-23 -121 -102 -29 -16 -1 -8 -8)
1969/12/31/18:00:09.241,(7 -91 -100 -37 -15 -21 -22 -13)
1969/12/31/18:00:09.241,(29 114 113 18 -14 -3 -5 2)
1969/12/31/18:00:09.259,(4 67 24 -6 15 -6 4 6)
1969/12/31/18:00:09.259,(5 -10 -28 -5 -8 -18 -15 -13)
1969/12/31/18:00:09.260,(-16 -56 -37 -4 24 26 10 23)
1969/12/31/18:00:09.260,(26 56 71 42 -17 -28 -12 -9)
1969/12/31/18:00:09.279,(-45 -99 -83 -47 -20 17 -1 -40)
1969/12/31/18:00:09.279,(-11 4 26 15 9 -11 -5 -12)
1969/12/31/18:00:09.279,(-49 -128 -106 -38 14 16 -1 0)
1969/12/31/18:00:09.279,(-21 41 16 -8 -9 -19 -20 -25)
1969/12/31/18:00:09.291,(-22 24 27 -1 -12 -5 5 2)
1969/12/31/18:00:09.291,(-28 -113 -76 -14 15 25 5 -17)
1969/12/31/18:00:09.292,(83 103 82 33 -4 -7 -1 36)
1969/12/31/18:00:09.292,(3 -13 -21 11 50 26 15 36)
1969/12/31/18:00:09.310,(25 -46 -28 -22 -34 6 -11 -5)
1969/12/31/18:00:09.310,(-32 -72 -38 -31 -28 -38 -8 -15)
1969/12/31/18:00:09.311,(-15 -27 -28 -10 -1 -1 -20 -19)
1969/12/31/18:00:09.311,(-14 46 12 17 18 25 4 -16)
1969/12/31/18:00:09.329,(42 46 17 10 20 -4 24 42)
1969/12/31/18:00:09.329,(-41 -81 -45 -24 -50 -13 -9 0)
1969/12/31/18:00:09.330,(-17 23 33 29 63 53 33 -12)
1969/12/31/18:00:09.330,(-41 -128 -95 -53 -65 -30 -36 -26)
1969/12/31/18:00:09.342,(0 -47 -50 -27 8 8 16 17)
1969/12/31/18:00:09.342,(37 127 127 93 32 -3 -3 -6)
1969/12/31/18:00:09.343,(12 -43 -32 -17 -5 -34 -3 20)
1969/12/31/18:00:09.343,(19 -41 -18 10 -2 41 24 55)
1969/12/31/18:00:09.368,(-26 -110 -91 -37 -10 -4 -18 -28)
1969/12/31/18:00:09.368,(23 16 38 -3 -8 3 -8 -2)
1969/12/31/18:00:09.368,(8 72 29 5 5 11 1 -2)
1969/12/31/18:00:09.368,(42 46 61 47 12 14 30 32)
1969/12/31/18:00:09.380,(-52 -75 -71 -11 -9 -24 -24 -22)
1969/12/31/18:00:09.380,(12 3 0 9 22 18 12 3)
1969/12/31/18:00:09.380,(-52 -128 -89 -36 -43 -39 -28 -19)
1969/12/31/18:00:09.380,(-2 63 29 1 15 8 -2 -41)
1969/12/31/18:00:09.393,(-15 -14 26 6 -9 14 4 -18)
1969/12/31/18:00:09.393,(14 -31 -31 -1 8 -11 5 18)
1969/12/31/18:00:09.394,(-26 -36 -11 0 -13 -4 3 -16)
1969/12/31/18:00:09.394,(-12 -65 -58 -33 9 -13 -17 -4)
1969/12/31/18:00:09.411,(-5 67 58 13 -41 -32 -13 -13)
1969/12/31/18:00:09.411,(0 6 -12 -10 -4 19 2 23)
1969/12/31/18:00:09.412,(38 15 21 -5 -6 3 18 13)
1969/12/31/18:00:09.412,(0 16 40 15 1 -14 -5 -9)
1969/12/31/18:00:09.430,(21 86 22 12 37 9 -4 4)
1969/12/31/18:00:09.430,(24 79 84 39 5 -16 -15 -2)
1969/12/31/18:00:09.436,(-14 -65 -66 -26 -58 -19 5 -2)
1969/12/31/18:00:09.436,(-10 57 16 9 18 8 13 -4)
1969/12/31/18:00:09.443,(-1 -61 -35 -12 3 15 17 50)
1969/12/31/18:00:09.443,(-34 -99 -120 -44 16 -8 -29 -45)
1969/12/31/18:00:09.443,(14 118 127 59 -22 -6 36 23)
1969/12/31/18:00:09.444,(39 16 -8 -28 -34 -25 -29 -15)
1969/12/31/18:00:09.462,(4 10 43 43 24 -7 -2 -33)
1969/12/31/18:00:09.462,(-14 24 -14 -19 -35 -1 8 -6)
1969/12/31/18:00:09.462,(-32 -63 -42 -17 18 -14 -35 -44)
1969/12/31/18:00:09.462,(-8 -128 -85 -32 -14 -6 19 47)
1969/12/31/18:00:09.481,(19 117 86 41 27 7 0 8)
1969/12/31/18:00:09.481,(6 -50 -47 -32 -12 -2 0 -11)
1969/12/31/18:00:09.481,(9 101 100 24 14 9 -12 -10)
1969/12/31/18:00:09.482,(-10 -89 -73 -26 -16 -3 8 20)
1969/12/31/18:00:09.494,(32 63 73 61 38 19 8 18)
1969/12/31/18:00:09.494,(14 -73 -61 -9 14 2 -5 18)
1969/12/31/18:00:09.495,(-60 -77 -90 -33 2 -1 -13 -36)
1969/12/31/18:00:09.495,(10 47 53 25 -18 -14 -14 -33)
1969/12/31/18:00:09.512,(-42 -32 -62 -13 9 38 15 -13)
1969/12/31/18:00:09.512,(-27 -32 -35 -26 -48 -34 -41 -36)
1969/12/31/18:00:09.513,(17 44 20 13 15 21 6 1)
1969/12/31/18:00:09.513,(-8 -44 -38 -22 3 -15 -7 -9)
1969/12/31/18:00:09.532,(-19 -32 -53 -25 5 -10 -13 -19)
1969/12/31/18:00:09.532,(-23 72 112 47 -13 -22 -1 -8)
1969/12/31/18:00:09.532,(11 -79 -64 -29 -3 26 -3 -17)
1969/12/31/18:00:09.532,(-5 -47 -34 -21 -30 -37 -19 -19)
1969/12/31/18:00:09.544,(-2 -15 -32 -32 -11 -7 7 22)
1969/12/31/18:00:09.544,(28 71 61 48 54 44 25 16)
1969/12/31/18:00:09.545,(0 -67 -50 -17 -19 -21 -12 15)
1969/12/31/18:00:09.545,(38 126 111 54 40 27 23 10)
1969/12/31/18:00:09.563,(-33 -69 -37 -19 -4 -4 -3 -8)
1969/12/31/18:00:09.563,(-25 -93 -74 -32 -21 -9 -10 -6)
1969/12/31/18:00:09.564,(27 112 60 18 -12 -28 -1 11)
1969/12/31/18:00:09.564,(-17 -16 -9 -5 -3 5 -9 3)
1969/12/31/18:00:09.582,(-14 -63 -55 -14 11 18 10 -4)
1969/12/31/18:00:09.582,(-21 -5 17 2 -23 -38 -1 -8)
1969/12/31/18:00:09.582,(-21 -91 -55 -28 -9 -3 -12 -13)
1969/12/31/18:00:09.583,(15 35 11 18 7 -20 4 8)
1969/12/31/18:00:09.595,(13 -29 -30 -13 -11 -8 -9 0)
1969/12/31/18:00:09.595,(33 -10 1 -3 17 8 5 6)
1969/12/31/18:00:09.595,(0 21 11 18 -1 29 21 7)
1969/12/31/18:00:09.595,(30 -54 -79 -28 12 0 6 25)
1969/12/31/18:00:09.613,(37 50 76 34 -4 -4 -10 2)
1969/12/31/18:00:09.613,(-6 -63 -68 -30 -12 17 11 12)
1969/12/31/18:00:09.614,(3 105 106 35 20 -16 -11 -6)
1969/12/31/18:00:09.614,(-13 -85 -82 -23 10 19 10 11)
1969/12/31/18:00:09.634,(-25 106 78 25 3 -5 -4 -14)
1969/12/31/18:00:09.634,(-50 -56 -33 -3 -6 -2 -5 -16)
1969/12/31/18:00:09.635,(17 -48 -49 -19 -4 8 6 10)
1969/12/31/18:00:09.635,(-40 -35 -13 9 29 -13 0 -18)
1969/12/31/18:00:09.646,(11 -15 0 4 -19 7 -11 1)
1969/12/31/18:00:09.646,(7 39 1 -75 -67 -13 1 23)
1969/12/31/18:00:09.647,(-5 14 27 42 39 -2 16 7)
1969/12/31/18:00:09.647,(-4 -1 23 41 41 41 4 6)
1969/12/31/18:00:09.664,(-7 -80 -68 -26 -16 -26 -5 -7)
1969/12/31/18:00:09.664,(34 52 15 25 30 4 17 27)
1969/12/31/18:00:09.665,(-16 27 20 -9 2 7 -3 -21)
1969/12/31/18:00:09.665,(-2 12 34 -6 -38 -16 -24 -19)
1969/12/31/18:00:09.683,(41 81 36 16 15 15 8 18)
1969/12/31/18:00:09.683,(20 -66 -58 -1 9 15 18 8)
1969/12/31/18:00:09.684,(8 118 98 19 -5 -10 -1 33)
1969/12/31/18:00:09.684,(7 -15 -5 3 4 4 3 -24)
1969/12/31/18:00:09.696,(-44 -93 -54 -36 -21 -14 -14 -14)
1969/12/31/18:00:09.696,(15 76 42 14 8 -11 9 -6)
1969/12/31/18:00:09.696,(-8 -81 -54 -8 -15 -8 -11 3)
1969/12/31/18:00:09.696,(13 26 12 5 6 30 -2 6)
1969/12/31/18:00:09.715,(43 75 74 3 -19 -2 20 31)
1969/12/31/18:00:09.715,(-20 -49 -17 2 46 27 -5 -10)
1969/12/31/18:00:09.716,(5 -43 -60 -4 -24 -8 7 -2)
1969/12/31/18:00:09.716,(1 70 75 34 -11 6 17 6)
1969/12/31/18:00:09.734,(13 -38 -42 -8 -3 -13 1 43)
1969/12/31/18:00:09.734,(32 46 50 26 11 5 0 18)
1969/12/31/18:00:09.735,(19 -10 -25 -29 -26 -13 -8 -1)
1969/12/31/18:00:09.735,(-20 -34 -35 -33 6 0 -11 -24)
1969/12/31/18:00:09.746,(-3 -32 -2 27 24 10 14 18)
1969/12/31/18:00:09.747,(-13 -25 -20 13 15 1 -5 -16)
1969/12/31/18:00:09.747,(71 48 44 28 18 12 12 33)
1969/12/31/18:00:09.747,(10 91 64 0 -16 -2 4 11)
1969/12/31/18:00:09.765,(-15 -9 -5 -15 -7 -13 -15 -30)
1969/12/31/18:00:09.765,(0 -37 -29 -19 -11 -5 6 17)
1969/12/31/18:00:09.766,(-16 -51 -34 -14 -14 -1 -13 -18)
1969/12/31/18:00:09.766,(-39 -25 -26 -2 26 3 4 -3)
1969/12/31/18:00:09.791,(49 6 -9 -21 -10 -4 -13 -5)
1969/12/31/18:00:09.791,(-11 -4 17 27 -1 5 -3 -18)
1969/12/31/18:00:09.792,(-44 42 39 13 9 -1 -5 -11)
1969/12/31/18:00:09.792,(10 -21 -18 -2 -9 7 8 32)
1969/12/31/18:00:09.797,(-38 -36 -31 -24 -10 -10 -19 -46)
1969/12/31/18:00:09.797,(71 60 30 -3 -16 -17 43 40)
1969/12/31/18:00:09.798,(-72 -69 -29 8 19 -16 -35 -40)
1969/12/31/18:00:09.798,(-29 -37 -17 29 54 43 34 -1)
1969/12/31/18:00:09.816,(-35 1 -3 -1 -22 -41 -49 -77)
1969/12/31/18:00:09.816,(-5 10 12 -1 9 20 2 5)
1969/12/31/18:00:09.817,(-14 -17 1 -3 -6 17 12 16)
1969/12/31/18:00:09.817,(62 7 -11 -19 -22 -21 -11 0)
1969/12/31/18:00:09.835,(-7 3 -17 -10 -7 2 1 18)
1969/12/31/18:00:09.835,(35 42 35 14 9 3 12 12)
1969/12/31/18:00:09.835,(-24 -31 -27 -17 -4 -6 -7 -18)
1969/12/31/18:00:09.835,(-38 -48 -25 -7 -6 0 -9 -17)
1969/12/31/18:00:09.848,(-7 -5 15 10 7 6 17 15)
1969/12/31/18:00:09.848,(-38 10 -7 -8 -13 -3 -21 -18)
1969/12/31/18:00:09.849,(9 -29 -11 3 11 11 19 16)
1969/12/31/18:00:09.849,(65 35 -7 -13 -20 -19 7 9)
1969/12/31/18:00:09.874,(17 4 7 3 4 7 8 26)
1969/12/31/18:00:09.874,(-49 -17 -5 -4 -4 7 19 -32)
1969/12/31/18:00:09.874,(18 1 -2 -3 -6 -22 -49 -6)
1969/12/31/18:00:09.874,(-33 -40 -5 -7 -5 7 25 1)
1969/12/31/18:00:09.886,(19 41 1 15 16 1 -20 -35)
1969/12/31/18:00:09.886,(3 44 10 4 -1 -1 -2 7)
1969/12/31/18:00:09.887,(32 24 6 -1 -3 -16 21 25)
1969/12/31/18:00:09.887,(-35 -54 -17 -11 -14 -12 -14 -12)
1969/12/31/18:00:09.898,(41 26 24 14 14 16 28 47)
1969/12/31/18:00:09.898,(-64 -40 -30 -33 -40 -20 -41 -46)
1969/12/31/18:00:09.904,(30 6 1 9 32 14 30 20)
1969/12/31/18:00:09.904,(-15 -18 -4 15 13 5 -22 -11)
1969/12/31/18:00:09.917,(20 -8 6 -1 0 7 17 30)
1969/12/31/18:00:09.917,(27 -11 3 4 0 -11 -8 -1)
1969/12/31/18:00:09.918,(-2 41 10 -9 -21 -3 -5 -1)
1969/12/31/18:00:09.918,(-22 -38 -20 -21 -15 -14 -27 -30)
1969/12/31/18:00:09.937,(-57 -30 0 12 14 9 13 -5)
1969/12/31/18:00:09.937,(-27 15 -4 -5 -5 -8 -14 -24)
1969/12/31/18:00:09.937,(114 18 -1 -4 -2 5 14 35)
1969/12/31/18:00:09.937,(-46 20 2 -2 -7 -7 -13 -19)
1969/12/31/18:00:09.948,(28 -45 -27 -15 -12 -5 6 12)
1969/12/31/18:00:09.948,(2 32 29 13 9 0 -5 2)
1969/12/31/18:00:09.955,(-50 -31 -1 4 0 4 -1 -14)
1969/12/31/18:00:09.955,(29 41 6 1 -2 -2 6 13)
1969/12/31/18:00:09.975,(-9 -37 -27 -21 -15 -6 -11 -2)
1969/12/31/18:00:09.975,(-2 -7 0 6 8 2 -12 -7)
1969/12/31/18:00:09.975,(-22 18 7 4 2 0 -4 -20)
1969/12/31/18:00:09.975,(11 5 4 -6 -9 -3 0 4)
1969/12/31/18:00:09.987,(-15 -2 1 0 -1 3 8 3)
1969/12/31/18:00:09.987,(6 -15 -6 1 2 1 -1 8)
1969/12/31/18:00:09.988,(-10 -1 -4 -4 -6 -3 -4 -9)
1969/12/31/18:00:09.988,(13 3 -4 -4 0 2 4 5)
1969/12/31/18:00:09.999,(-7 -4 1 2 1 -1 -1 -4)
1969/12/31/18:00:09.999,(3 4 0 2 3 -2 -3 -1)
1969/12/31/18:00:10.006,(-1 -15 -4 -6 -4 0 -1 -7)
1969/12/31/18:00:10.006,(-4 7 -2 2 0 0 0 5)
1969/12/31/18:00:10.018,(-7 6 -2 -5 -4 -6 -6 -14)
1969/12/31/18:00:10.018,(2 -3 3 0 -3 -2 0 5)
1969/12/31/18:00:10.019,(-6 -10 -5 2 4 3 3 6)
1969/12/31/18:00:10.019,(14 15 11 5 2 1 -2 5)
1969/12/31/18:00:10.038,(-14 -5 0 -1 -5 -3 -3 -9)
1969/12/31/18:00:10.038,(11 -9 -7 -5 -1 0 2 2)
1969/12/31/18:00:10.039,(-22 -4 -4 -5 -5 -3 -3 -10)
1969/12/31/18:00:10.039,(12 0 -6 -2 -2 -2 -2 0)
1969/12/31/18:00:10.050,(-8 -23 -12 -8 -4 -4 -6 -7)
1969/12/31/18:00:10.050,(10 35 23 10 8 5 7 15)
1969/12/31/18:00:10.056,(-8 6 -8 -3 -3 -1 -5 -14)
1969/12/31/18:00:10.056,(-3 -7 5 4 1 0 -1 2)
1969/12/31/18:00:10.076,(-3 0 0 0 0 -1 -1 -4)
1969/12/31/18:00:10.076,(-3 -39 -24 -10 -4 -3 0 -1)
1969/12/31/18:00:10.077,(2 38 26 2 -1 -4 -6 -4)
1969/12/31/18:00:10.077,(2 -29 -24 -9 -1 1 0 2)
1969/12/31/18:00:10.088,(-3 20 9 4 -1 -1 -1 -8)
1969/12/31/18:00:10.088,(-2 -2 3 6 3 2 0 4)
1969/12/31/18:00:10.089,(7 3 -3 -2 0 0 0 18)
1969/12/31/18:00:10.089,(-8 -9 -10 -6 -4 1 5 -6)
1969/12/31/18:00:10.100,(1 8 12 4 4 3 4 2)
1969/12/31/18:00:10.100,(-1 -19 -19 -8 -6 -5 -2 0)
1969/12/31/18:00:10.107,(-5 -7 2 2 0 -2 1 -1)
1969/12/31/18:00:10.107,(0 4 -3 -1 1 -2 -2 1)
1969/12/31/18:00:10.120,(4 1 -4 -7 -3 -1 1 3)
1969/12/31/18:00:10.120,(-4 1 -2 -4 -2 0 5 4)
1969/12/31/18:00:10.126,(-2 2 6 4 3 -2 -16 -21)
1969/12/31/18:00:10.126,(-1 -1 3 0 0 0 0 1)
1969/12/31/18:00:10.139,(0 -14 -17 -6 -4 -4 -4 -3)
1969/12/31/18:00:10.139,(1 23 27 9 4 2 2 -1)
1969/12/31/18:00:10.139,(-5 -14 -11 -5 -5 0 0 -5)
1969/12/31/18:00:10.139,(1 4 2 -1 -4 -3 1 5)
1969/12/31/18:00:10.151,(0 -2 -3 1 0 1 1 3)
1969/12/31/18:00:10.151,(-1 -8 -4 4 3 -2 -2 -7)
1969/12/31/18:00:10.158,(-1 -6 -13 -12 -6 -1 -5 -4)
1969/12/31/18:00:10.158,(0 13 24 12 5 2 12 4)
1969/12/31/18:00:10.170,(-1 2 -4 -5 -5 -6 -3 0)
1969/12/31/18:00:10.170,(0 -7 -4 -3 -2 -1 1 2)
1969/12/31/18:00:10.171,(3 -2 -6 -2 -1 6 15 11)
1969/12/31/18:00:10.171,(-2 -1 -2 0 2 -3 -25 -13)
1969/12/31/18:00:10.190,(-1 5 6 1 0 0 3 -2)
1969/12/31/18:00:10.190,(0 -3 -8 -2 0 -2 -1 0)
1969/12/31/18:00:10.190,(-8 -11 -8 -7 -3 -5 -5 -9)
1969/12/31/18:00:10.190,(0 2 2 -5 -5 -1 7 9)
1969/12/31/18:00:10.209,(2 3 3 5 3 3 1 2)
1969/12/31/18:00:10.209,(0 7 5 0 2 -2 -12 -8)
1969/12/31/18:00:10.210,(0 -7 -6 0 -6 0 7 8)
1969/12/31/18:00:10.210,(1 11 8 -2 0 -3 -2 -2)
1969/12/31/18:00:10.221,(0 2 0 1 3 -2 -10 -7)
1969/12/31/18:00:10.221,(-2 -24 -13 -3 0 7 12 9)
1969/12/31/18:00:10.222,(3 14 3 -5 1 1 1 -3)
1969/12/31/18:00:10.222,(1 10 3 5 2 -3 -2 -1)
1969/12/31/18:00:10.247,(-5 -11 -7 -8 -5 -3 -2 1)
1969/12/31/18:00:10.247,(3 9 2 -1 -9 -12 -13 -7)
1969/12/31/18:00:10.248,(-2 -15 -12 -3 0 7 13 3)
1969/12/31/18:00:10.248,(-1 -5 -8 -4 5 5 -5 4)
1969/12/31/18:00:10.260,(7 7 5 6 2 6 20 14)
1969/12/31/18:00:10.260,(-6 -7 -6 -1 3 2 -35 -24)
1969/12/31/18:00:10.260,(-6 -4 2 -1 -2 -5 7 -5)
1969/12/31/18:00:10.260,(-2 1 0 -7 -10 -9 -5 -4)
1969/12/31/18:00:10.271,(-2 -2 1 1 0 0 -1 -1)
1969/12/31/18:00:10.271,(4 2 -1 0 0 -3 0 8)
1969/12/31/18:00:10.272,(-1 1 0 2 4 -1 -4 -2)
1969/12/31/18:00:10.272,(0 0 4 -1 0 4 12 5)
1969/12/31/18:00:10.291,(-2 -5 -3 5 2 -3 -14 -8)
1969/12/31/18:00:10.291,(-5 -2 -4 -8 -6 -3 2 -3)
1969/12/31/18:00:10.292,(-1 1 5 3 4 -3 -8 0)
1969/12/31/18:00:10.292,(2 -4 -4 1 0 6 9 2)
1969/12/31/18:00:10.310,(-6 -2 -4 -14 -12 -6 -8 -10)
1969/12/31/18:00:10.310,(-5 0 0 0 3 4 3 -5)
1969/12/31/18:00:10.311,(0 0 1 -1 -3 -3 6 10)
1969/12/31/18:00:10.311,(2 0 3 3 2 1 2 5)
1969/12/31/18:00:10.329,(-3 3 4 9 0 -8 -5 -14)
1969/12/31/18:00:10.329,(-3 -1 -1 -3 -5 3 1 -1)
1969/12/31/18:00:10.330,(3 -5 -5 -4 1 5 3 2)
1969/12/31/18:00:10.330,(-7 -6 -7 -14 -21 -8 -7 -8)
1969/12/31/18:00:10.341,(2 6 8 14 29 0 -13 -7)
1969/12/31/18:00:10.342,(3 0 2 2 -1 3 17 14)
1969/12/31/18:00:10.342,(-6 -6 -2 -2 -2 -9 -19 -24)
1969/12/31/18:00:10.342,(-1 -3 -4 12 10 7 2 0)
1969/12/31/18:00:10.361,(2 -5 -7 -19 -27 -5 7 11)
1969/12/31/18:00:10.361,(-2 2 1 0 18 0 5 -2)
1969/12/31/18:00:10.362,(0 2 7 7 5 2 -10 2)
1969/12/31/18:00:10.362,(-2 -4 -8 -18 -27 -11 -9 -3)
1969/12/31/18:00:10.373,(-2 0 2 16 31 10 9 4)
1969/12/31/18:00:10.373,(4 1 -5 -9 -10 6 9 6)
1969/12/31/18:00:10.374,(-1 -6 -7 -5 -14 -14 3 0)
1969/12/31/18:00:10.374,(1 4 3 8 11 -3 -4 0)
1969/12/31/18:00:10.399,(7 1 -2 -9 -9 5 9 10)
1969/12/31/18:00:10.399,(-13 -4 3 6 6 1 -24 -25)
1969/12/31/18:00:10.400,(-1 2 1 -2 -1 -13 0 1)
1969/12/31/18:00:10.400,(0 0 1 6 3 -9 -7 -9)
1969/12/31/18:00:10.412,(-2 -4 -7 -31 -44 -9 4 6)
1969/12/31/18:00:10.412,(4 6 0 16 33 26 27 5)
1969/12/31/18:00:10.412,(-5 -2 1 7 16 -12 -49 -11)
1969/12/31/18:00:10.412,(-8 -6 -6 -1 3 9 7 -2)
1969/12/31/18:00:10.431,(3 3 1 -2 -2 -9 -9 0)
1969/12/31/18:00:10.431,(1 0 2 -3 -20 -6 -3 0)
1969/12/31/18:00:10.431,(0 -2 -3 -7 -9 8 13 1)
1969/12/31/18:00:10.431,(3 1 0 -1 2 0 5 5)
1969/12/31/18:00:10.444,(-1 0 1 10 17 3 -6 -3)
1969/12/31/18:00:10.444,(-6 -6 -9 -21 -28 -14 -9 -5)
1969/12/31/18:00:10.444,(3 3 3 -1 -2 3 6 0)
1969/12/31/18:00:10.444,(-1 1 1 2 1 2 -6 -7)
1969/12/31/18:00:10.462,(-8 -9 -5 -4 -6 -3 -7 -10)
1969/12/31/18:00:10.462,(4 -1 0 -4 -1 -9 -1 8)
1969/12/31/18:00:10.463,(-2 0 1 4 -5 7 3 -4)
1969/12/31/18:00:10.463,(0 -1 2 0 2 -6 -6 -4)
1969/12/31/18:00:10.475,(-3 -2 1 -3 -3 0 1 -2)
1969/12/31/18:00:10.475,(2 -3 -11 0 1 0 2 7)
1969/12/31/18:00:10.476,(4 3 2 -3 4 -3 -5 0)
1969/12/31/18:00:10.476,(7 7 7 16 6 13 18 11)
1969/12/31/18:00:10.493,(-8 -6 -2 4 6 1 4 -4)
1969/12/31/18:00:10.493,(1 2 4 0 -3 -7 -10 -4)
1969/12/31/18:00:10.494,(-7 -5 -7 -8 -6 1 6 -2)
1969/12/31/18:00:10.494,(-1 -2 -5 -5 1 -5 -6 -3)
1969/12/31/18:00:10.513,(4 4 -1 -2 -4 5 2 4)
1969/12/31/18:00:10.513,(2 3 3 5 0 -3 -1 -1)
1969/12/31/18:00:10.514,(4 2 0 2 1 4 8 8)
1969/12/31/18:00:10.514,(-12 -12 -7 -13 -7 -5 -9 -12)
1969/12/31/18:00:10.525,(0 2 -2 1 2 -2 -2 2)
1969/12/31/18:00:10.525,(1 0 3 2 1 -2 0 -1)
1969/12/31/18:00:10.525,(0 -2 -5 -4 -4 -1 2 1)
1969/12/31/18:00:10.525,(-1 -4 -4 -16 -6 -2 -1 -1)
1969/12/31/18:00:10.544,(0 1 -3 10 0 -2 0 -3)
1969/12/31/18:00:10.544,(6 7 8 11 7 2 3 6)
1969/12/31/18:00:10.545,(-4 0 7 5 1 3 0 -1)
1969/12/31/18:00:10.545,(-14 -17 -12 3 -1 -6 -6 -7)
1969/12/31/18:00:10.569,(0 -2 -2 -2 -3 -1 -4 -3)
1969/12/31/18:00:10.569,(-3 -3 1 -7 -6 -3 -2 -4)
1969/12/31/18:00:10.570,(-1 -5 -2 10 8 4 7 7)
1969/12/31/18:00:10.570,(4 11 -1 -11 -6 -3 -9 -7)
1969/12/31/18:00:10.583,(-13 -31 -12 -13 -3 -5 -3 -3)
1969/12/31/18:00:10.583,(3 16 3 7 2 -1 -1 0)
1969/12/31/18:00:10.583,(1 -7 -10 -5 -3 2 4 0)
1969/12/31/18:00:10.583,(0 -13 -9 -1 0 -2 1 2)
1969/12/31/18:00:10.595,(4 20 14 6 0 -1 0 4)
1969/12/31/18:00:10.595,(-14 -37 -16 -14 -5 -4 -5 -11)
1969/12/31/18:00:10.595,(-3 0 -15 -9 -5 -3 -4 -5)
1969/12/31/18:00:10.595,(4 9 16 14 7 2 3 4)
1969/12/31/18:00:10.614,(6 26 -6 -2 -1 -1 0 -1)
1969/12/31/18:00:10.614,(-8 -26 -15 -12 -5 -5 -1 0)
1969/12/31/18:00:10.615,(7 29 30 7 5 3 -1 1)
1969/12/31/18:00:10.615,(-4 -15 -12 1 1 1 0 -2)
1969/12/31/18:00:10.626,(8 14 10 4 5 2 3 6)
1969/12/31/18:00:10.626,(-3 5 -1 -2 -2 -1 0 1)
1969/12/31/18:00:10.627,(-11 -31 -12 -5 -4 -3 -5 -7)
1969/12/31/18:00:10.627,(-4 0 -10 -8 -1 -3 0 -1)
1969/12/31/18:00:10.645,(6 1 6 2 -1 0 0 -1)
1969/12/31/18:00:10.645,(11 30 8 2 1 -1 1 1)
1969/12/31/18:00:10.651,(-2 -19 -11 -6 -5 -2 -2 -1)
1969/12/31/18:00:10.651,(-5 2 9 5 4 1 3 1)
1969/12/31/18:00:10.665,(-7 -12 -4 -2 0 0 1 -2)
1969/12/31/18:00:10.665,(3 12 8 1 -4 -4 -3 1)
1969/12/31/18:00:10.666,(5 9 3 2 4 3 2 1)
1969/12/31/18:00:10.666,(-3 -2 5 2 -2 0 -2 -1)
1969/12/31/18:00:10.676,(-2 -5 -4 -6 -4 -2 -2 -4)
1969/12/31/18:00:10.676,(1 -2 -7 -1 -2 -1 -2 1)
1969/12/31/18:00:10.684,(1 9 6 -4 -2 -2 -3 -1)
1969/12/31/18:00:10.684,(-3 -15 -10 0 -1 -1 0 1)
1969/12/31/18:00:10.697,(5 3 -3 -3 -1 -1 -1 2)
1969/12/31/18:00:10.697,(2 3 9 3 0 1 0 2)
1969/12/31/18:00:10.697,(-7 -10 -7 -3 -1 -1 -4 -6)
1969/12/31/18:00:10.697,(3 10 1 -4 -3 -3 0 -3)
1969/12/31/18:00:10.729,(-4 -3 5 -2 -1 -2 -2 -2)
1969/12/31/18:00:10.729,(-2 -7 0 3 1 1 0 1)
1969/12/31/18:00:10.730,(4 8 5 3 -3 0 1 5)
1969/12/31/18:00:10.730,(0 3 2 0 1 0 -1 -1)
1969/12/31/18:00:10.730,(-4 -10 -9 -5 -3 -2 -1 -2)
1969/12/31/18:00:10.730,(2 4 4 1 1 -2 -3 0)
1969/12/31/18:00:10.735,(-4 -3 -3 -1 -3 -2 1 -2)
1969/12/31/18:00:10.735,(2 4 4 2 -2 -3 -1 1)
1969/12/31/18:00:10.746,(-3 -7 -5 -2 -2 -1 0 0)
1969/12/31/18:00:10.746,(-5 -9 -7 -6 -4 -1 -3 -2)
1969/12/31/18:00:10.752,(-1 0 -2 1 2 -1 -2 -2)
1969/12/31/18:00:10.752,(2 3 -1 -5 -1 1 1 2)
1969/12/31/18:00:10.773,(-2 -3 0 1 2 0 -1 -2)
1969/12/31/18:00:10.773,(4 3 4 1 0 0 1 3)
1969/12/31/18:00:10.773,(-9 -13 -10 -2 -2 -2 -6 -10)
1969/12/31/18:00:10.773,(-2 0 0 -3 -1 2 0 -2)
1969/12/31/18:00:10.784,(-3 -2 0 1 4 2 -2 -2)
1969/12/31/18:00:10.784,(-3 -3 0 -1 1 2 -1 0)
1969/12/31/18:00:10.786,(4 5 2 1 0 -1 1 1)
1969/12/31/18:00:10.786,(0 0 -1 0 -4 -1 -2 0)
1969/12/31/18:00:10.798,(-3 -5 -3 -4 -2 -1 -2 -3)
1969/12/31/18:00:10.798,(-2 -2 -3 -2 0 -2 0 -1)
1969/12/31/18:00:10.799,(5 4 4 8 4 1 2 5)
1969/12/31/18:00:10.800,(-1 2 4 1 -3 -1 -2 -2)
1969/12/31/18:00:10.817,(-1 -1 -1 -4 -4 -1 -2 -1)
1969/12/31/18:00:10.817,(-3 -3 -2 3 2 -1 -2 -1)
1969/12/31/18:00:10.818,(-2 -2 -1 -3 -1 -2 -1 -2)
1969/12/31/18:00:10.818,(-1 -1 -3 -7 -4 -2 -2 -3)
1969/12/31/18:00:10.818,(-3 -1 -4 -2 -2 0 -1 0)
1969/12/31/18:00:10.818,(0 -5 1 3 2 0 0 -2)
1969/12/31/18:00:10.820,(-5 -8 -12 -7 -4 -2 -1 -3)
1969/12/31/18:00:10.820,(1 0 1 2 1 1 1 1)
1969/12/31/18:00:10.837,(-4 -4 2 -1 -3 -2 -2 -4)
1969/12/31/18:00:10.837,(0 1 -2 4 0 -2 -2 0)
1969/12/31/18:00:10.843,(0 12 4 1 -2 -2 -2 1)
1969/12/31/18:00:10.843,(-3 -9 -6 0 -2 -2 -3 -4)
1969/12/31/18:00:10.855,(-2 -3 -5 -3 0 -1 -2 1)
1969/12/31/18:00:10.855,(-5 -9 -5 -9 -5 -4 -3 -5)
1969/12/31/18:00:10.863,(2 4 4 5 2 1 2 0)
1969/12/31/18:00:10.863,(0 2 1 0 0 -2 0 0)
1969/12/31/18:00:10.869,(0 1 5 6 2 0 1 2)
1969/12/31/18:00:10.869,(-4 0 -4 -4 -2 -3 0 -1)
1969/12/31/18:00:10.870,(-1 -3 -5 -7 -6 -2 -1 0)
1969/12/31/18:00:10.870,(-2 -3 -6 -6 -2 0 -1 -2)
1969/12/31/18:00:10.881,(5 10 14 7 1 -2 0 0)
1969/12/31/18:00:10.881,(-1 -4 0 9 3 1 -1 0)
1969/12/31/18:00:10.888,(1 -1 0 -3 -1 0 0 0)
1969/12/31/18:00:10.888,(-1 -1 4 10 2 -1 0 -1)
1969/12/31/18:00:10.901,(-4 -7 -12 -19 -5 -2 -2 -1)
1969/12/31/18:00:10.901,(0 2 3 7 -1 0 -1 1)
1969/12/31/18:00:10.902,(-2 -2 -3 -2 0 0 1 -2)
1969/12/31/18:00:10.902,(0 1 8 1 -4 -2 -2 -2)
1969/12/31/18:00:10.925,(1 0 1 -1 1 1 1 -1)
1969/12/31/18:00:10.925,(-3 -6 -4 -3 0 -1 0 -3)
1969/12/31/18:00:10.927,(-2 -7 -9 -18 -6 -1 0 -1)
1969/12/31/18:00:10.927,(3 1 -17 0 0 1 -1 2)
1969/12/31/18:00:10.939,(-4 -7 7 -11 -3 -1 -1 -2)
1969/12/31/18:00:10.939,(2 8 -14 0 2 -1 -1 1)
1969/12/31/18:00:10.940,(3 15 61 61 12 4 1 3)
1969/12/31/18:00:10.940,(-2 -1 -10 -29 -1 -2 -1 0)
1969/12/31/18:00:10.957,(-2 -3 -10 10 2 -2 -3 -2)
1969/12/31/18:00:10.957,(-5 -6 2 -12 -4 -2 -1 -1)
1969/12/31/18:00:10.959,(-1 -4 -6 22 4 -2 -2 -2)
1969/12/31/18:00:10.959,(-1 3 9 7 -3 -2 0 -1)
1969/12/31/18:00:10.977,(-2 -5 -7 -6 1 1 -1 0)
1969/12/31/18:00:10.977,(-1 -4 -13 -22 -7 1 8 1)
1969/12/31/18:00:10.978,(-6 -8 -15 -26 -6 -4 -4 -6)
1969/12/31/18:00:10.978,(-12 -16 3 2 -9 -5 -5 -8)
1969/12/31/18:00:10.982,(-3 -11 -9 -7 4 1 -8 4)
1969/12/31/18:00:10.982,(14 27 7 19 5 -8 5 -12)
1969/12/31/18:00:10.988,(0 -3 -23 -58 -11 -7 -1 4)
1969/12/31/18:00:10.988,(-7 4 11 41 13 1 10 -6)
1969/12/31/18:00:11.028,(8 8 34 30 -1 20 27 18)
1969/12/31/18:00:11.028,(-6 -7 12 25 17 -5 -59 -27)
1969/12/31/18:00:11.029,(4 -3 -28 -30 -12 3 19 5)
1969/12/31/18:00:11.029,(-8 -14 -22 -19 -19 -17 -14 -11)
1969/12/31/18:00:11.030,(-6 -3 -43 -12 -1 -3 9 -2)
1969/12/31/18:00:11.030,(-1 7 77 40 9 12 18 16)
1969/12/31/18:00:11.034,(1 1 -1 -5 -3 -1 -15 -12)
1969/12/31/18:00:11.034,(-8 -19 -28 -31 -11 -3 -8 -1)
1969/12/31/18:00:11.035,(4 16 0 6 -2 -4 -1 -11)
1969/12/31/18:00:11.035,(3 -4 9 15 2 7 -6 7)
1969/12/31/18:00:11.040,(-2 -3 -1 -5 6 4 6 4)
1969/12/31/18:00:11.040,(8 14 34 34 11 3 3 5)
1969/12/31/18:00:11.058,(-2 -10 -25 -2 -6 -3 -7 -3)
1969/12/31/18:00:11.058,(-7 -1 -3 -41 -18 -12 -6 -12)
1969/12/31/18:00:11.059,(-3 0 14 34 14 1 2 -1)
1969/12/31/18:00:11.060,(2 -3 -31 -33 -8 7 3 4)
1969/12/31/18:00:11.071,(3 1 30 -3 -1 -8 -11 -5)
1969/12/31/18:00:11.071,(-4 -3 -26 -1 -6 -4 5 1)
1969/12/31/18:00:11.073,(4 7 31 51 12 3 -2 1)
1969/12/31/18:00:11.073,(-1 -3 -4 -21 -5 0 2 -1)
1969/12/31/18:00:11.083,(-6 -9 -35 -37 -10 -10 -9 -5)
1969/12/31/18:00:11.083,(4 2 15 34 9 7 13 10)
1969/12/31/18:00:11.091,(-7 -11 -12 -12 -10 -1 -2 -1)
1969/12/31/18:00:11.091,(4 9 -1 4 6 -2 -6 -6)
1969/12/31/18:00:11.102,(-3 -7 5 -6 0 -1 -2 -3)
1969/12/31/18:00:11.102,(-8 -19 -33 -49 -17 -3 3 -1)
1969/12/31/18:00:11.108,(4 11 -2 11 3 -4 -7 -2)
1969/12/31/18:00:11.108,(6 15 24 32 16 7 7 7)
1969/12/31/18:00:11.122,(0 7 5 4 -2 -2 -2 -1)
1969/12/31/18:00:11.122,(1 5 -7 -6 -1 -2 2 0)
1969/12/31/18:00:11.123,(-5 -6 -15 -21 -7 -3 -4 -2)
1969/12/31/18:00:11.123,(0 -2 -4 -12 -3 -1 1 1)
1969/12/31/18:00:11.134,(2 6 24 18 3 1 0 -1)
1969/12/31/18:00:11.134,(-1 -6 -15 -2 1 1 0 1)
1969/12/31/18:00:11.141,(-7 -11 -13 -17 -10 -5 -3 -3)
1969/12/31/18:00:11.141,(0 0 11 8 1 1 -1 0)
1969/12/31/18:00:11.153,(-4 -5 -1 7 -2 -2 -2 -1)
1969/12/31/18:00:11.153,(-2 -5 -5 -8 0 1 3 1)
1969/12/31/18:00:11.165,(-2 -3 0 2 0 0 -2 -2)
1969/12/31/18:00:11.165,(0 -2 3 2 -1 0 -1 -1)
1969/12/31/18:00:11.172,(-2 -3 -1 -1 -1 0 -3 0)
1969/12/31/18:00:11.172,(-2 -8 -16 -12 -7 -3 0 0)
1969/12/31/18:00:11.179,(-3 -8 2 6 4 2 1 -1)
1969/12/31/18:00:11.179,(-6 -1 4 4 1 1 0 0)
1969/12/31/18:00:11.192,(3 8 5 0 -1 -1 0 -2)
1969/12/31/18:00:11.192,(9 10 7 6 3 3 2 -1)
1969/12/31/18:00:11.193,(-8 -10 -6 -1 -1 -2 -2 8)
1969/12/31/18:00:11.193,(11 1 -3 -5 -1 -2 0 3)
1969/12/31/18:00:11.204,(-1 -18 -8 -7 -3 -1 -3 0)
1969/12/31/18:00:11.204,(-7 10 2 0 0 -1 -3 -7)
1969/12/31/18:00:11.209,(4 29 5 1 2 2 -1 -1)
1969/12/31/18:00:11.209,(-19 -30 -11 -11 -7 -2 5 -3)
1969/12/31/18:00:11.223,(36 23 16 13 9 7 7 27)
1969/12/31/18:00:11.223,(-35 -32 -22 -13 -11 -11 -16 -18)
1969/12/31/18:00:11.225,(3 -2 4 -1 -1 -2 -1 3)
1969/12/31/18:00:11.225,(-21 9 3 0 -3 -2 -4 -12)
1969/12/31/18:00:11.242,(5 5 -1 2 0 1 5 1)
1969/12/31/18:00:11.242,(-8 7 4 4 2 2 4 -6)
1969/12/31/18:00:11.244,(61 23 7 2 4 1 0 20)
1969/12/31/18:00:11.244,(25 0 -3 -4 -5 -9 -8 -4)
1969/12/31/18:00:11.255,(-4 20 10 3 1 11 9 -13)
1969/12/31/18:00:11.255,(-35 -43 -10 0 2 -7 -2 23)
1969/12/31/18:00:11.260,(-52 -31 -12 -7 -7 -9 -11 -24)
1969/12/31/18:00:11.260,(27 6 0 -2 3 16 12 17)
1969/12/31/18:00:11.274,(-20 -18 -11 -10 -11 -20 -30 -36)
1969/12/31/18:00:11.274,(4 25 9 1 0 2 10 -2)
1969/12/31/18:00:11.275,(0 -5 -6 -6 -6 -2 13 16)
1969/12/31/18:00:11.275,(-25 -25 -9 -2 2 0 -14 -21)
1969/12/31/18:00:11.293,(7 15 5 0 1 6 16 15)
1969/12/31/18:00:11.293,(15 -10 -9 -7 -6 3 15 31)
1969/12/31/18:00:11.294,(-11 2 5 2 4 -12 -8 -9)
1969/12/31/18:00:11.294,(-13 -7 -2 0 4 -2 0 -5)
1969/12/31/18:00:11.304,(10 12 12 4 1 -2 -21 -7)
1969/12/31/18:00:11.304,(8 2 -4 -1 -1 -5 22 -5)
1969/12/31/18:00:11.312,(1 -2 -7 -3 -2 10 3 18)
1969/12/31/18:00:11.312,(21 -9 -1 -1 -2 -17 2 9)
1969/12/31/18:00:11.331,(-55 -10 -3 1 2 4 3 -4)
1969/12/31/18:00:11.331,(18 -18 -7 -7 -1 3 -12 2)
1969/12/31/18:00:11.332,(20 29 19 12 5 -7 -9 -29)
1969/12/31/18:00:11.332,(2 13 4 0 0 3 13 31)
1969/12/31/18:00:11.344,(10 4 1 -1 -8 -15 -7 -20)
1969/12/31/18:00:11.344,(-37 -31 -9 1 9 14 -19 -45)
1969/12/31/18:00:11.344,(52 6 -17 -13 -11 -1 13 50)
1969/12/31/18:00:11.344,(-50 -9 9 4 -1 -1 -15 -30)
1969/12/31/18:00:11.355,(78 -7 -6 3 5 4 10 66)
1969/12/31/18:00:11.355,(15 45 17 4 -1 2 45 13)
1969/12/31/18:00:11.362,(-36 -14 1 -1 -2 -14 -35 -31)
1969/12/31/18:00:11.362,(9 5 -3 1 1 19 14 7)
1969/12/31/18:00:11.375,(8 0 -8 -7 -8 -19 7 -12)
1969/12/31/18:00:11.375,(42 7 2 -2 -2 -5 3 34)
1969/12/31/18:00:11.377,(-5 11 2 1 -1 -1 -5 -11)
1969/12/31/18:00:11.377,(5 38 25 15 5 -1 -11 -28)
1969/12/31/18:00:11.400,(-37 -45 -26 -9 -1 4 6 6)
1969/12/31/18:00:11.400,(1 -16 -12 -5 -3 -9 -41 -20)
1969/12/31/18:00:11.402,(-40 -10 3 0 -1 2 2 -42)
1969/12/31/18:00:11.402,(8 -1 -9 -7 -9 -10 25 12)
1969/12/31/18:00:11.405,(-43 7 1 0 1 3 -28 -21)
1969/12/31/18:00:11.405,(-14 -8 6 4 1 -1 -16 -4)
1969/12/31/18:00:11.413,(15 10 -4 -1 -1 4 -2 -28)
1969/12/31/18:00:11.413,(-1 6 10 7 5 1 5 14)
1969/12/31/18:00:11.425,(-5 -4 -11 -7 -7 -14 -16 -28)
1969/12/31/18:00:11.425,(-13 0 -3 -3 -3 7 7 3)
1969/12/31/18:00:11.427,(-16 -43 -3 1 0 -10 -13 -3)
1969/12/31/18:00:11.427,(-10 21 2 -4 -2 5 6 -13)
1969/12/31/18:00:11.444,(-71 -8 -5 -3 -3 11 -22 -73)
1969/12/31/18:00:11.444,(7 11 11 5 -2 -15 5 28)
1969/12/31/18:00:11.446,(24 6 1 2 2 22 26 -24)
1969/12/31/18:00:11.446,(6 -7 -6 0 1 -37 -24 -27)
1969/12/31/18:00:11.463,(-13 -6 5 -1 -3 16 -14 1)
1969/12/31/18:00:11.463,(13 -10 -9 -3 3 21 24 14)
1969/12/31/18:00:11.465,(-54 0 6 6 1 -16 -2 -12)
1969/12/31/18:00:11.465,(41 -11 -5 -6 -1 2 0 36)
1969/12/31/18:00:11.476,(7 20 10 11 10 20 50 47)
1969/12/31/18:00:11.476,(17 -14 -7 -8 -8 2 12 -27)
1969/12/31/18:00:11.478,(5 16 8 3 -1 -3 14 41)
1969/12/31/18:00:11.478,(-32 -25 -9 -2 -4 -4 -14 -17)
1969/12/31/18:00:11.495,(16 14 2 -2 -1 -5 16 8)
1969/12/31/18:00:11.495,(-68 -44 -15 -4 -3 2 -8 -20)
1969/12/31/18:00:11.496,(26 7 -1 0 1 5 16 32)
1969/12/31/18:00:11.496,(13 23 -2 -6 -7 -4 -26 -24)
1969/12/31/18:00:11.506,(-9 -9 -5 -6 -7 -7 8 0)
1969/12/31/18:00:11.506,(-40 -10 1 2 2 -7 -21 -80)
1969/12/31/18:00:11.514,(30 13 -6 -9 -9 -13 -10 -54)
1969/12/31/18:00:11.514,(5 -8 0 0 5 3 -22 6)
1969/12/31/18:00:11.527,(18 24 12 4 4 4 -8 4)
1969/12/31/18:00:11.527,(-85 -8 2 3 1 -8 -19 -22)
1969/12/31/18:00:11.528,(-13 -37 -23 -14 -11 -4 -29 -65)
1969/12/31/18:00:11.528,(11 -6 -5 -3 -4 4 18 22)
1969/12/31/18:00:11.545,(35 -10 -14 -14 -15 -23 1 26)
1969/12/31/18:00:11.545,(5 27 15 7 4 -7 6 10)
1969/12/31/18:00:11.547,(23 15 2 -2 -5 -14 -18 46)
1969/12/31/18:00:11.547,(-53 5 1 1 5 19 17 -2)
1969/12/31/18:00:11.557,(-63 -50 -9 1 -6 -18 -62 -106)
1969/12/31/18:00:11.557,(75 20 -13 -16 -14 -6 -1 23)
1969/12/31/18:00:11.565,(-5 -9 0 -1 0 3 -6 34)
1969/12/31/18:00:11.565,(-14 -5 -3 -2 -4 -5 1 -2)
1969/12/31/18:00:11.584,(58 11 6 5 5 6 25 89)
1969/12/31/18:00:11.584,(34 26 14 10 8 1 7 31)
1969/12/31/18:00:11.585,(-54 -12 3 7 17 64 21 -102)
1969/12/31/18:00:11.585,(64 20 3 -3 -18 -68 -37 22)
1969/12/31/18:00:11.596,(-33 -19 -6 -6 2 15 12 22)
1969/12/31/18:00:11.596,(54 54 11 1 -3 -10 -15 16)
1969/12/31/18:00:11.598,(-15 -35 -2 6 5 -6 17 16)
1969/12/31/18:00:11.598,(20 -1 -3 0 7 27 36 4)
1969/12/31/18:00:11.608,(-47 -20 -5 -4 -7 -18 -17 -21)
1969/12/31/18:00:11.608,(40 12 -2 -2 -2 -3 -1 53)
1969/12/31/18:00:11.615,(22 12 4 -3 -3 -5 -3 15)
1969/12/31/18:00:11.615,(-33 6 2 1 -2 4 -2 -32)
1969/12/31/18:00:11.627,(44 -3 1 3 4 -5 1 16)
1969/12/31/18:00:11.627,(-20 -12 0 0 2 20 13 -28)
1969/12/31/18:00:11.635,(-32 6 0 -4 -6 -12 -5 26)
1969/12/31/18:00:11.635,(51 -9 -3 0 0 4 15 17)
1969/12/31/18:00:11.646,(-1 6 -8 -7 0 3 -16 -41)
1969/12/31/18:00:11.646,(-74 -35 -10 -6 -7 -11 -16 -43)
1969/12/31/18:00:11.648,(93 16 -2 -3 -3 -6 19 94)
1969/12/31/18:00:11.648,(-92 16 18 8 4 5 -27 -55)
1969/12/31/18:00:11.666,(6 -23 -10 -5 -4 3 73 -10)
1969/12/31/18:00:11.666,(11 -14 -5 0 5 -9 -21 10)
1969/12/31/18:00:11.668,(29 32 9 4 3 43 -35 17)
1969/12/31/18:00:11.668,(-37 -16 -5 -5 -8 -12 -22 -34)
1969/12/31/18:00:11.679,(-48 -3 7 11 10 -5 -1 -75)
1969/12/31/18:00:11.679,(81 13 -10 -11 -10 -5 -31 -16)
1969/12/31/18:00:11.680,(3 -9 -2 -2 -1 -10 26 57)
1969/12/31/18:00:11.680,(60 16 4 7 10 17 -4 42)
1969/12/31/18:00:11.698,(11 17 4 -5 -2 5 -22 -46)
1969/12/31/18:00:11.698,(-26 0 5 8 1 -12 6 -19)
1969/12/31/18:00:11.699,(31 -41 -20 -9 0 -14 10 7)
1969/12/31/18:00:11.699,(35 -18 -7 -6 2 12 5 27)
1969/12/31/18:00:11.709,(26 36 19 23 19 16 -9 47)
1969/12/31/18:00:11.709,(13 5 7 -1 -13 -19 36 24)
1969/12/31/18:00:11.716,(-19 25 1 -12 -14 -19 -45 -44)
1969/12/31/18:00:11.716,(-11 -17 2 3 3 19 13 -12)
1969/12/31/18:00:11.729,(50 -22 -24 -17 -17 -26 46 56)
1969/12/31/18:00:11.729,(-5 -7 -11 1 6 12 8 41)
1969/12/31/18:00:11.731,(-37 -4 4 8 16 19 -6 -31)
1969/12/31/18:00:11.731,(-34 -4 -10 -26 -36 -28 7 -20)
1969/12/31/18:00:11.749,(-18 12 8 5 4 32 -5 30)
1969/12/31/18:00:11.749,(41 43 10 -3 -1 6 -12 17)
1969/12/31/18:00:11.749,(-26 -31 -8 5 -4 -22 30 29)
1969/12/31/18:00:11.749,(-17 31 18 29 29 -11 -21 -10)
1969/12/31/18:00:11.760,(41 -16 -3 2 -6 -32 -1 52)
1969/12/31/18:00:11.760,(-40 -15 -2 20 40 4 -3 -9)
1969/12/31/18:00:11.767,(-23 -3 0 -21 -43 -3 -17 -55)
1969/12/31/18:00:11.767,(16 9 -7 -16 18 60 26 36)
1969/12/31/18:00:11.780,(4 -2 6 -15 5 -6 -31 -13)
1969/12/31/18:00:11.780,(7 18 -1 -6 -8 -2 -13 -66)
1969/12/31/18:00:11.781,(9 -17 0 20 24 2 36 28)
1969/12/31/18:00:11.781,(-5 -38 -14 5 -13 -35 -7 -8)
1969/12/31/18:00:11.798,(-19 11 3 4 -4 -7 -2 21)
1969/12/31/18:00:11.798,(-51 -12 15 4 -22 0 -7 -26)
1969/12/31/18:00:11.800,(59 34 7 17 21 4 8 -8)
1969/12/31/18:00:11.800,(-28 -42 -14 -3 3 -5 -6 -36)
1969/12/31/18:00:11.819,(-7 -9 -19 -37 -45 22 12 10)
1969/12/31/18:00:11.819,(-15 -4 -3 -10 -20 -36 -3 -24)
1969/12/31/18:00:11.820,(-14 4 -2 -8 -2 -9 -39 -12)
1969/12/31/18:00:11.820,(37 34 16 14 17 7 5 25)
1969/12/31/18:00:11.830,(-35 -9 -5 9 13 -14 -2 -26)
1969/12/31/18:00:11.830,(4 -23 3 5 18 33 4 -9)
1969/12/31/18:00:11.835,(0 -23 -22 -17 8 31 15 -26)
1969/12/31/18:00:11.835,(-1 -1 -11 -18 -39 -24 -18 -21)
1969/12/31/18:00:11.849,(78 26 7 4 1 -21 4 26)
1969/12/31/18:00:11.849,(40 14 -4 -3 -3 -2 -3 12)
1969/12/31/18:00:11.851,(-8 14 8 4 -4 19 -8 -15)
1969/12/31/18:00:11.851,(-25 -29 -14 -22 -10 17 14 12)
1969/12/31/18:00:11.861,(-15 13 12 26 22 -3 -2 -29)
1969/12/31/18:00:11.861,(24 -4 -13 -35 -40 -8 6 39)
1969/12/31/18:00:11.868,(-5 -39 -31 -8 11 -8 -11 -14)
1969/12/31/18:00:11.868,(20 22 -31 -15 -6 1 9 22)
1969/12/31/18:00:11.887,(-25 39 73 25 -3 2 -15 -40)
1969/12/31/18:00:11.888,(17 -16 -8 18 34 -8 10 51)
1969/12/31/18:00:11.889,(-18 28 17 -2 -35 -6 -1 -3)
1969/12/31/18:00:11.889,(-15 -39 -34 -28 -23 -24 -8 -21)
1969/12/31/18:00:11.900,(1 -30 -28 -4 25 34 -8 -5)
1969/12/31/18:00:11.900,(-12 -46 -43 -21 -16 14 15 9)
1969/12/31/18:00:11.901,(-58 4 -5 -7 -11 -46 -11 -9)
1969/12/31/18:00:11.901,(8 -21 13 30 24 9 24 47)
1969/12/31/18:00:11.911,(3 86 79 33 23 12 -7 0)
1969/12/31/18:00:11.911,(9 50 58 16 -20 -2 -8 -20)
1969/12/31/18:00:11.919,(-29 -14 -28 -16 -2 -8 -9 3)
1969/12/31/18:00:11.919,(-13 -6 1 3 -2 10 3 -7)
1969/12/31/18:00:11.932,(-42 -124 -100 -50 -17 16 -9 -32)
1969/12/31/18:00:11.932,(-15 11 -32 -6 37 29 1 -16)
1969/12/31/18:00:11.937,(35 110 121 62 19 -19 8 27)
1969/12/31/18:00:11.937,(-11 -58 -60 -29 -32 -37 -22 -18)
1969/12/31/18:00:11.956,(3 20 2 -1 3 9 13 16)
1969/12/31/18:00:11.956,(-28 -58 4 14 8 -4 6 0)
1969/12/31/18:00:11.983,(-35 -24 -60 -17 0 -2 2 -6)
1969/12/31/18:00:11.983,(28 127 118 42 42 7 -14 -36)
1969/12/31/18:00:11.984,(22 19 -14 -19 -62 -52 -1 10)
1969/12/31/18:00:11.984,(-14 -44 -30 -28 25 58 9 0)
1969/12/31/18:00:11.986,(-23 -78 -43 -24 -36 -10 -3 -12)
1969/12/31/18:00:11.986,(-17 -27 -18 26 53 8 11 21)
1969/12/31/18:00:11.989,(14 11 1 -22 -44 -7 -2 6)
1969/12/31/18:00:11.989,(2 23 16 4 -6 -3 -1 5)
1969/12/31/18:00:11.990,(-20 -59 -35 -15 3 -20 0 -3)
1969/12/31/18:00:11.990,(5 -113 -122 -38 3 2 -16 -11)
1969/12/31/18:00:12.001,(-30 73 27 12 8 -2 -10 -47)
1969/12/31/18:00:12.001,(67 38 23 20 -27 -28 -2 30)
1969/12/31/18:00:12.002,(-28 -73 -72 -22 3 32 14 -8)
1969/12/31/18:00:12.002,(68 122 104 47 18 40 18 25)
1969/12/31/18:00:12.019,(-47 -110 -53 -13 11 -7 -1 10)
1969/12/31/18:00:12.019,(-58 -59 -110 -42 -29 -26 -27 -63)
1969/12/31/18:00:12.027,(29 127 127 50 18 -3 10 -17)
1969/12/31/18:00:12.027,(-16 -36 -27 -6 4 -8 -23 -55)
1969/12/31/18:00:12.033,(8 -47 -77 -17 23 29 -18 -4)
1969/12/31/18:00:12.033,(1 57 112 20 -17 -47 9 22)
1969/12/31/18:00:12.034,(54 -42 -53 -31 -33 11 4 54)
1969/12/31/18:00:12.035,(-27 15 16 -4 -57 -16 4 11)
1969/12/31/18:00:12.051,(16 106 93 28 42 21 14 -19)
1969/12/31/18:00:12.052,(-31 -94 -60 -7 32 32 9 -36)
1969/12/31/18:00:12.053,(-48 -43 -26 -1 8 -1 4 6)
1969/12/31/18:00:12.053,(-26 21 29 6 -29 -37 -8 -43)
1969/12/31/18:00:12.071,(-32 -126 -114 -14 6 1 -3 0)
1969/12/31/18:00:12.071,(40 102 42 13 7 -34 2 30)
1969/12/31/18:00:12.072,(-10 19 59 0 -15 40 10 -10)
1969/12/31/18:00:12.072,(30 -8 -34 -19 24 54 29 41)
1969/12/31/18:00:12.083,(-50 -28 -78 -10 -32 -102 -34 -32)
1969/12/31/18:00:12.083,(5 77 79 40 10 39 -19 -73)
1969/12/31/18:00:12.089,(0 1 -1 42 49 -9 21 67)
1969/12/31/18:00:12.089,(26 60 89 10 1 18 -17 -32)
1969/12/31/18:00:12.103,(-47 -52 10 -1 -14 13 16 5)
1969/12/31/18:00:12.103,(37 -47 -99 -18 32 -21 -23 -3)
1969/12/31/18:00:12.105,(88 107 88 7 3 8 -3 -7)
1969/12/31/18:00:12.105,(-67 -115 -58 -15 -9 8 -1 -3)
1969/12/31/18:00:12.121,(46 39 32 -12 -16 13 32 56)
1969/12/31/18:00:12.121,(-26 -98 -72 -28 -44 -69 -30 -23)
1969/12/31/18:00:12.123,(44 89 69 53 61 73 2 4)
1969/12/31/18:00:12.123,(-43 -89 -108 -55 -13 32 35 0)
1969/12/31/18:00:12.134,(51 101 81 39 9 1 -3 8)
1969/12/31/18:00:12.134,(-23 -16 -29 -4 -33 -27 8 63)
1969/12/31/18:00:12.139,(-8 -74 -64 -23 -8 -33 -22 -21)
1969/12/31/18:00:12.139,(-18 -46 -65 -26 -33 -15 10 14)
1969/12/31/18:00:12.153,(56 83 89 67 40 31 -20 -43)
1969/12/31/18:00:12.153,(28 -94 -76 -30 -23 5 40 73)
1969/12/31/18:00:12.154,(-60 11 24 1 -13 -12 -26 -67)
1969/12/31/18:00:12.154,(-45 -101 -64 2 15 -37 -20 -12)
1969/12/31/18:00:12.172,(-14 -40 -35 -17 22 34 -3 9)
1969/12/31/18:00:12.172,(14 84 66 -1 -51 -31 1 -5)
1969/12/31/18:00:12.174,(4 -41 -34 -15 31 56 36 40)
1969/12/31/18:00:12.174,(50 42 52 52 9 -42 -5 33)
1969/12/31/18:00:12.184,(-20 6 -19 -41 -63 -29 -21 -53)
1969/12/31/18:00:12.184,(9 -22 48 23 36 66 9 13)
1969/12/31/18:00:12.191,(16 -23 -85 -25 -22 -55 -17 -27)
1969/12/31/18:00:12.191,(-30 29 48 4 6 -13 16 16)
1969/12/31/18:00:12.204,(11 -56 -32 5 11 11 8 26)
1969/12/31/18:00:12.204,(44 87 14 17 -5 -45 -1 48)
1969/12/31/18:00:12.205,(-38 3 9 -15 -41 10 -21 -20)
1969/12/31/18:00:12.205,(38 15 -4 0 13 51 39 30)
1969/12/31/18:00:12.223,(5 -117 -78 -13 -24 -16 32 89)
1969/12/31/18:00:12.223,(-63 47 -6 -11 33 33 -28 -60)
1969/12/31/18:00:12.223,(3 -25 14 16 -10 -55 -15 8)
1969/12/31/18:00:12.223,(-27 12 18 3 -12 -11 -24 -1)
1969/12/31/18:00:12.234,(27 -33 -22 4 34 7 4 14)
1969/12/31/18:00:12.234,(-61 -43 9 10 3 -10 9 -36)
1969/12/31/18:00:12.241,(3 -53 -83 -35 7 72 6 0)
1969/12/31/18:00:12.242,(7 101 78 -17 -50 -60 -38 -37)
1969/12/31/18:00:12.254,(26 27 6 5 14 52 25 20)
1969/12/31/18:00:12.254,(-73 -70 -3 5 20 18 14 -28)
1969/12/31/18:00:12.256,(-46 -110 -110 -22 -3 -46 -39 -74)
1969/12/31/18:00:12.256,(13 62 41 2 -2 -8 -28 -32)
1969/12/31/18:00:12.273,(-9 -35 -22 2 -21 -34 -2 5)
1969/12/31/18:00:12.273,(-5 127 107 41 38 3 -11 -54)
1969/12/31/18:00:12.275,(46 -13 0 2 -3 20 27 52)
1969/12/31/18:00:12.275,(-6 -72 -58 -14 -33 -5 -3 8)
1969/12/31/18:00:12.293,(-25 -1 15 -9 -9 -45 -5 -34)
1969/12/31/18:00:12.293,(32 -77 -46 -20 -47 22 -4 -2)
1969/12/31/18:00:12.293,(-26 56 41 -3 8 -6 1 -23)
1969/12/31/18:00:12.293,(58 -26 -26 -1 9 -9 -10 -1)
1969/12/31/18:00:12.304,(1 98 66 18 9 3 -31 -42)
1969/12/31/18:00:12.304,(16 -128 -126 -30 -17 -12 15 46)
1969/12/31/18:00:12.306,(-4 125 107 53 8 -26 -1 11)
1969/12/31/18:00:12.306,(33 91 58 28 40 42 18 18)
1969/12/31/18:00:12.324,(-13 10 11 -6 -16 11 16 0)
1969/12/31/18:00:12.324,(33 -31 -38 -4 14 13 -2 1)
1969/12/31/18:00:12.325,(60 -28 8 42 59 20 26 68)
1969/12/31/18:00:12.325,(-50 -13 -64 -90 -77 -5 -17 -55)
1969/12/31/18:00:12.336,(10 29 57 33 11 -14 0 9)
1969/12/31/18:00:12.336,(-33 -5 -12 -3 0 10 -9 -13)
1969/12/31/18:00:12.343,(53 3 -14 4 -8 -24 -6 12)
1969/12/31/18:00:12.343,(-25 -128 -77 -1 9 -5 15 32)
1969/12/31/18:00:12.355,(-13 19 -26 -31 -5 9 -11 -17)
1969/12/31/18:00:12.355,(-24 19 19 9 17 8 -11 -29)
1969/12/31/18:00:12.357,(-16 -98 -74 -21 -10 32 21 21)
1969/12/31/18:00:12.357,(-35 60 65 44 56 6 -8 -13)
1969/12/31/18:00:12.374,(15 24 55 -1 -40 -3 -6 -13)
1969/12/31/18:00:12.374,(20 36 9 -13 -31 -32 -2 42)
1969/12/31/18:00:12.375,(-68 -22 -12 0 -2 -31 -12 -67)
1969/12/31/18:00:12.375,(-33 -41 -49 -26 -8 10 -11 -14)
1969/12/31/18:00:12.386,(-26 18 22 1 7 11 4 -5)
1969/12/31/18:00:12.386,(-20 -51 -48 -7 -7 6 1 -1)
1969/12/31/18:00:12.394,(58 66 43 -3 -14 -9 -3 2)
1969/12/31/18:00:12.394,(9 -20 -2 16 12 19 20 26)
1969/12/31/18:00:12.407,(0 -3 -28 -24 9 5 1 2)
1969/12/31/18:00:12.407,(-42 -26 3 12 10 -14 -22 -38)
1969/12/31/18:00:12.407,(12 56 19 -20 -31 -19 -13 2)
1969/12/31/18:00:12.407,(16 -12 8 19 8 -21 -15 -7)
1969/12/31/18:00:12.431,(-13 -32 -28 2 29 -13 -14 -4)
1969/12/31/18:00:12.431,(11 31 -3 2 1 40 26 14)
1969/12/31/18:00:12.433,(34 61 82 23 -3 -3 28 57)
1969/12/31/18:00:12.433,(19 -51 -52 -8 0 -3 -22 -7)
1969/12/31/18:00:12.437,(-15 -30 -17 -13 23 61 32 32)
1969/12/31/18:00:12.437,(-18 -64 -51 -13 -4 -23 -24 -56)
1969/12/31/18:00:12.444,(-55 2 -9 -13 -19 -30 -24 -54)
1969/12/31/18:00:12.444,(13 119 115 43 17 17 11 22)
1969/12/31/18:00:12.456,(14 -69 -78 -12 -6 -24 -7 -2)
1969/12/31/18:00:12.456,(18 29 58 11 6 3 23 8)
1969/12/31/18:00:12.458,(12 -54 -49 -8 -11 24 8 19)
1969/12/31/18:00:12.458,(-4 -65 -55 -30 -9 -6 11 4)
1969/12/31/18:00:12.476,(-28 0 -63 -19 -19 -44 -35 -62)
1969/12/31/18:00:12.476,(78 122 58 7 6 25 20 60)
1969/12/31/18:00:12.477,(-66 -106 -64 -32 -42 -32 -7 -28)
1969/12/31/18:00:12.477,(2 108 69 56 65 14 -14 -31)
1969/12/31/18:00:12.488,(31 -68 -41 13 8 1 12 45)
1969/12/31/18:00:12.488,(-84 -95 -77 -48 -64 -15 -19 -30)
1969/12/31/18:00:12.501,(51 111 107 58 33 -36 -15 10)
1969/12/31/18:00:12.501,(-13 -89 -46 -49 -37 33 42 69)
1969/12/31/18:00:12.507,(-15 15 4 6 13 10 -6 -28)
1969/12/31/18:00:12.507,(20 -39 31 39 51 16 -3 7)
1969/12/31/18:00:12.509,(-23 -28 -55 -50 -15 24 -5 -12)
1969/12/31/18:00:12.509,(20 26 0 -12 -18 -40 -18 -8)
1969/12/31/18:00:12.526,(14 -49 3 25 19 10 11 31)
1969/12/31/18:00:12.526,(-30 -29 -33 -25 -5 -4 -2 -1)
1969/12/31/18:00:12.528,(12 -46 -67 -5 -10 -5 5 2)
1969/12/31/18:00:12.528,(13 75 53 43 38 -10 0 5)
1969/12/31/18:00:12.538,(10 -55 -24 -36 -65 5 -9 -3)
1969/12/31/18:00:12.538,(27 74 -3 -10 -11 3 0 -16)
1969/12/31/18:00:12.546,(-1 -29 17 19 31 11 7 10)
1969/12/31/18:00:12.546,(4 -64 -48 -25 -38 -15 -1 31)
1969/12/31/18:00:12.558,(4 -12 -15 10 15 2 23 24)
1969/12/31/18:00:12.558,(-48 3 39 7 16 16 -15 -21)
1969/12/31/18:00:12.559,(-17 34 -23 -21 -4 9 -12 -35)
1969/12/31/18:00:12.559,(40 -5 14 22 26 5 11 3)
1969/12/31/18:00:12.577,(-23 -13 -44 -23 -27 0 1 0)
1969/12/31/18:00:12.577,(-6 -5 32 7 -3 -5 10 32)
1969/12/31/18:00:12.579,(-11 -60 -62 -7 6 18 20 33)
1969/12/31/18:00:12.579,(39 63 61 9 -16 -4 -3 -43)
1969/12/31/18:00:12.589,(-1 -76 -37 -4 28 -53 -17 3)
1969/12/31/18:00:12.589,(24 -55 -42 -14 -1 63 19 30)
1969/12/31/18:00:12.596,(-22 -37 -11 -5 4 21 20 4)
1969/12/31/18:00:12.596,(12 62 37 17 -4 -6 2 21)
1969/12/31/18:00:12.615,(-9 12 38 11 9 5 -5 -24)
1969/12/31/18:00:12.615,(58 68 9 12 17 -19 -14 3)
1969/12/31/18:00:12.617,(14 -73 2 11 5 1 -3 23)
1969/12/31/18:00:12.617,(4 55 5 -3 -12 -8 -8 -23)
1969/12/31/18:00:12.628,(58 -33 -1 10 24 16 5 28)
1969/12/31/18:00:12.628,(-15 -25 -16 -32 -62 -63 -20 -17)
1969/12/31/18:00:12.629,(-11 102 87 31 53 33 10 -17)
1969/12/31/18:00:12.629,(-27 -23 -20 -8 -24 1 -6 -8)
1969/12/31/18:00:12.639,(-29 -42 -30 -24 -30 -17 -11 -8)
1969/12/31/18:00:12.639,(20 85 96 56 38 -26 -7 -3)
1969/12/31/18:00:12.647,(13 -45 -40 -17 -11 3 -13 -16)
1969/12/31/18:00:12.647,(-53 -110 -111 -56 -40 -20 -24 -38)
1969/12/31/18:00:12.659,(38 126 126 92 77 46 27 21)
1969/12/31/18:00:12.659,(-20 -81 -72 -6 -8 11 3 -5)
1969/12/31/18:00:12.665,(-22 0 13 -4 -35 -34 -17 -53)
1969/12/31/18:00:12.665,(-44 -128 -86 -11 12 1 -2 2)
1969/12/31/18:00:12.678,(-23 -56 -76 -37 -33 7 -8 -2)
1969/12/31/18:00:12.678,(-7 78 19 -1 25 10 9 -4)
1969/12/31/18:00:12.680,(15 108 98 25 13 -12 -23 -10)
1969/12/31/18:00:12.680,(-12 -79 -57 -9 -13 22 24 36)
1969/12/31/18:00:12.690,(-9 63 17 -28 -49 -25 -8 -19)
1969/12/31/18:00:12.690,(-8 -29 4 9 17 -8 6 10)
1969/12/31/18:00:12.698,(-14 -56 -54 -22 -30 -9 -5 16)
1969/12/31/18:00:12.698,(14 -64 -59 -16 25 13 20 33)
1969/12/31/18:00:12.709,(35 127 127 76 19 0 -4 -4)
1969/12/31/18:00:12.709,(7 -128 -124 -43 -44 -12 2 11)
1969/12/31/18:00:12.715,(7 70 16 -4 5 19 14 27)
1969/12/31/18:00:12.715,(47 127 107 44 29 1 1 5)
1969/12/31/18:00:12.735,(-40 -104 -65 -25 -6 0 -10 -26)
1969/12/31/18:00:12.735,(-32 -65 8 5 21 1 6 -20)
1969/12/31/18:00:12.736,(5 11 -25 -4 -16 -24 -19 -22)
1969/12/31/18:00:12.736,(57 55 34 2 -9 11 21 42)
1969/12/31/18:00:12.741,(-32 -55 -28 -18 19 -8 -11 -7)
1969/12/31/18:00:12.741,(-17 -27 -19 -8 -30 -9 -8 2)
1969/12/31/18:00:12.748,(-15 -44 -15 -9 -12 -12 -19 -49)
1969/12/31/18:00:12.748,(4 30 18 13 10 4 -3 -11)
1969/12/31/18:00:12.760,(-24 22 -7 -1 32 34 14 -3)
1969/12/31/18:00:12.760,(-32 -91 -43 -11 12 -3 -16 -23)
1969/12/31/18:00:12.766,(11 54 19 13 4 6 20 33)
1969/12/31/18:00:12.766,(22 64 66 41 19 -22 -19 -6)
1969/12/31/18:00:12.779,(-74 -110 -81 -53 -52 -10 -5 -10)
1969/12/31/18:00:12.779,(73 127 84 35 29 17 0 -19)
1969/12/31/18:00:12.781,(-6 -128 -102 -37 -29 -42 -18 -15)
1969/12/31/18:00:12.781,(-36 -6 -23 -8 21 18 1 -19)
1969/12/31/18:00:12.798,(-6 5 -22 -13 -17 -1 5 -10)
1969/12/31/18:00:12.798,(15 74 65 11 -19 2 12 36)
1969/12/31/18:00:12.805,(-30 -18 -9 14 12 -18 -10 -10)
1969/12/31/18:00:12.805,(-9 -51 -33 -2 16 15 21 7)
1969/12/31/18:00:12.811,(15 13 30 16 19 30 -13 -13)
1969/12/31/18:00:12.811,(53 -29 -25 -18 18 -18 -7 24)
1969/12/31/18:00:12.817,(-8 -43 -22 4 -19 7 5 19)
1969/12/31/18:00:12.817,(-27 29 1 -8 -14 -7 1 -13)
1969/12/31/18:00:12.830,(-26 -62 -87 -30 4 -4 8 -3)
1969/12/31/18:00:12.830,(44 127 116 91 17 9 12 26)
1969/12/31/18:00:12.832,(18 -84 -73 -5 14 2 -2 10)
1969/12/31/18:00:12.832,(-42 -102 -107 -28 -9 1 -5 0)
1969/12/31/18:00:12.849,(26 37 38 -15 -42 -25 7 23)
1969/12/31/18:00:12.849,(-14 59 20 10 23 9 -5 -33)
1969/12/31/18:00:12.850,(26 83 67 1 -41 -12 5 23)
1969/12/31/18:00:12.850,(-32 -94 -26 -17 -23 -25 -61 -87)
1969/12/31/18:00:12.861,(12 15 4 -33 -55 -36 -22 -21)
1969/12/31/18:00:12.861,(-19 -61 -44 -14 13 23 30 26)
1969/12/31/18:00:12.867,(-6 11 7 6 21 18 9 5)
1969/12/31/18:00:12.867,(-4 -74 -65 -34 -5 -3 -6 -10)
1969/12/31/18:00:12.881,(-12 98 64 46 3 -4 -9 -6)
1969/12/31/18:00:12.881,(-18 -72 -80 -46 -42 -44 -24 -18)
1969/12/31/18:00:12.882,(-53 -31 -8 14 51 27 -5 -12)
1969/12/31/18:00:12.882,(-2 9 7 -10 -41 -1 19 14)
1969/12/31/18:00:12.900,(29 16 7 15 11 -15 -1 -1)
1969/12/31/18:00:12.900,(39 -8 21 1 -8 11 10 44)
1969/12/31/18:00:12.901,(-17 -95 -69 -46 -23 -9 11 -1)
1969/12/31/18:00:12.901,(-8 74 42 27 31 4 -3 -6)
1969/12/31/18:00:12.911,(13 -8 20 21 3 -1 7 23)
1969/12/31/18:00:12.911,(-29 5 -22 -16 -11 24 8 -1)
1969/12/31/18:00:12.918,(25 -97 -63 -19 -7 0 15 46)
1969/12/31/18:00:12.918,(32 104 85 17 7 11 3 -10)
1969/12/31/18:00:12.930,(15 100 70 17 11 -17 -13 -16)
1969/12/31/18:00:12.930,(1 28 18 13 20 -4 -14 -4)
1969/12/31/18:00:12.931,(-24 -54 -55 -15 7 23 19 5)
1969/12/31/18:00:12.931,(-5 44 -16 -30 -29 -7 -9 7)
1969/12/31/18:00:12.950,(28 17 -6 31 24 -10 9 31)
1969/12/31/18:00:12.950,(2 -106 -86 -52 -51 -12 -5 2)
1969/12/31/18:00:12.951,(-28 -38 -15 -11 -2 -4 -15 -31)
1969/12/31/18:00:12.951,(50 49 1 17 15 2 10 26)
1969/12/31/18:00:12.970,(-23 -103 -61 1 5 -7 -9 -9)
1969/12/31/18:00:12.971,(-21 -73 -45 0 -1 -7 -13 -34)
1969/12/31/18:00:12.971,(25 31 40 0 -26 3 9 24)
1969/12/31/18:00:12.971,(-15 -86 -48 -9 21 11 8 20)
1969/12/31/18:00:12.981,(-39 -99 -97 -24 -17 -24 -17 -13)
1969/12/31/18:00:12.981,(51 127 127 40 -14 -4 29 31)
1969/12/31/18:00:12.982,(9 -44 -19 -13 -3 22 -8 -16)
1969/12/31/18:00:12.982,(-32 40 30 29 30 -21 -35 -41)
1969/12/31/18:00:13.000,(32 45 38 -10 -23 3 5 -14)
1969/12/31/18:00:13.000,(-29 -74 -85 -34 21 23 14 31)
1969/12/31/18:00:13.000,(-1 -8 -26 -29 -25 -34 -14 -26)
1969/12/31/18:00:13.000,(41 65 96 60 23 14 19 27)
1969/12/31/18:00:13.013,(20 -6 3 9 30 16 -3 6)
1969/12/31/18:00:13.013,(-8 -24 -47 -4 -28 -28 -6 -6)
1969/12/31/18:00:13.014,(48 127 122 42 6 6 10 13)
1969/12/31/18:00:13.014,(-23 -120 -52 -9 7 -3 -1 -1)
1969/12/31/18:00:13.038,(-11 -68 -50 -38 -13 17 -10 -19)
1969/12/31/18:00:13.039,(-28 -9 13 3 -4 -6 -9 -21)
1969/12/31/18:00:13.039,(-19 -23 -42 -15 2 -12 -11 -14)
1969/12/31/18:00:13.039,(42 70 75 34 -12 -15 9 19)
1969/12/31/18:00:13.051,(-1 -13 3 25 40 17 -6 -13)
1969/12/31/18:00:13.051,(-64 -53 -34 -9 17 36 -6 -37)
1969/12/31/18:00:13.052,(-1 -4 -26 -15 -30 -23 4 22)
1969/12/31/18:00:13.052,(11 -12 -15 -29 -38 -19 -16 -10)
1969/12/31/18:00:13.064,(-10 -83 -83 -40 12 22 11 5)
1969/12/31/18:00:13.064,(-7 65 33 20 15 2 -3 -22)
1969/12/31/18:00:13.065,(19 31 38 49 43 19 6 5)
1969/12/31/18:00:13.065,(-19 -117 -107 -34 -27 -3 10 10)
1969/12/31/18:00:13.082,(13 91 58 26 -20 -19 -3 10)
1969/12/31/18:00:13.082,(-5 -48 -71 -34 -14 -25 -16 -5)
1969/12/31/18:00:13.083,(20 39 49 31 17 18 20 29)
1969/12/31/18:00:13.083,(-29 -44 -18 -14 -33 -14 -10 -14)
1969/12/31/18:00:13.108,(-25 -46 -3 -20 2 -1 -1 -8)
1969/12/31/18:00:13.108,(23 74 49 -5 -29 1 8 14)
1969/12/31/18:00:13.109,(-2 -6 -17 10 15 -7 -15 -26)
1969/12/31/18:00:13.109,(-18 -34 -14 3 14 2 11 -1)
1969/12/31/18:00:13.113,(39 56 26 8 1 -3 16 46)
1969/12/31/18:00:13.113,(10 -4 5 5 6 13 -4 -11)
1969/12/31/18:00:13.120,(1 -3 -8 -21 -30 -21 -26 -25)
1969/12/31/18:00:13.120,(-15 -29 -32 -14 4 21 21 13)
1969/12/31/18:00:13.135,(19 33 17 14 1 -10 -6 -1)
1969/12/31/18:00:13.135,(-11 -15 -34 -27 -11 -11 -9 -16)
1969/12/31/18:00:13.135,(36 90 80 37 19 15 9 17)
1969/12/31/18:00:13.135,(-10 68 69 25 15 3 0 -3)
1969/12/31/18:00:13.152,(-32 -103 -83 -27 -10 -2 6 0)
1969/12/31/18:00:13.152,(52 71 77 40 25 1 -2 12)
1969/12/31/18:00:13.152,(-17 -29 -45 -35 -20 -4 -6 -9)
1969/12/31/18:00:13.152,(-25 -51 -19 8 14 -7 -13 -20)
1969/12/31/18:00:13.164,(23 42 36 5 -2 12 12 18)
1969/12/31/18:00:13.164,(-8 -51 -50 15 19 -4 -1 18)
1969/12/31/18:00:13.171,(-13 -16 7 8 -5 -11 18 15)
1969/12/31/18:00:13.171,(-5 10 11 11 24 34 -1 -15)
1969/12/31/18:00:13.183,(6 -28 -32 -49 -65 -24 -3 -12)
1969/12/31/18:00:13.183,(-32 0 0 -24 -2 -2 -4 -17)
1969/12/31/18:00:13.184,(-21 14 5 13 20 -1 3 -9)
1969/12/31/18:00:13.184,(14 -7 -20 0 0 -3 -2 17)
1969/12/31/18:00:13.203,(-23 9 20 18 20 13 8 4)
1969/12/31/18:00:13.203,(-11 17 1 -6 -16 -7 -2 -28)
1969/12/31/18:00:13.204,(50 -33 -2 3 2 -3 8 42)
1969/12/31/18:00:13.204,(-23 -11 -22 -22 -17 -7 -27 -44)
1969/12/31/18:00:13.221,(12 15 10 0 -1 7 7 7)
1969/12/31/18:00:13.221,(44 21 20 26 16 4 9 26)
1969/12/31/18:00:13.222,(-66 -70 -40 -15 1 3 -9 -25)
1969/12/31/18:00:13.222,(-3 51 -1 -7 -6 -9 -5 -16)
1969/12/31/18:00:13.234,(10 20 13 -8 -21 -16 -10 -19)
1969/12/31/18:00:13.234,(17 -14 -1 2 7 8 -2 14)
1969/12/31/18:00:13.235,(-23 -10 -1 15 27 5 6 -15)
1969/12/31/18:00:13.235,(21 13 2 -9 -24 7 19 33)
1969/12/31/18:00:13.253,(-22 0 8 31 38 -6 -37 -32)
1969/12/31/18:00:13.253,(-64 -46 -12 6 14 -2 -5 -13)
1969/12/31/18:00:13.253,(13 7 -19 -22 -24 3 -23 -23)
1969/12/31/18:00:13.253,(-18 -15 0 -9 -17 -21 -10 7)
1969/12/31/18:00:13.265,(28 8 -1 -2 -4 -2 40 17)
1969/12/31/18:00:13.265,(-15 -18 -4 -3 3 15 6 -3)
1969/12/31/18:00:13.272,(3 27 9 2 -9 -8 -13 5)
1969/12/31/18:00:13.272,(29 -8 -4 -9 0 -17 3 1)
1969/12/31/18:00:13.285,(-28 -5 13 16 13 15 -47 11)
1969/12/31/18:00:13.285,(17 14 0 -2 -8 -13 -5 -10)
1969/12/31/18:00:13.286,(10 17 0 -4 -7 -4 -3 -8)
1969/12/31/18:00:13.286,(-44 -44 -11 0 7 11 18 8)
1969/12/31/18:00:13.304,(17 16 -4 -5 -2 -7 -8 -18)
1969/12/31/18:00:13.304,(-20 -24 -1 5 3 1 -11 -10)
1969/12/31/18:00:13.304,(39 45 -2 -4 -1 -3 -7 -6)
1969/12/31/18:00:13.305,(17 0 2 -4 -8 -1 8 18)
1969/12/31/18:00:13.316,(-42 -15 5 5 4 5 21 2)
1969/12/31/18:00:13.316,(20 -9 1 5 7 11 15 40)
1969/12/31/18:00:13.323,(-6 7 3 -7 -7 -6 -9 -36)
1969/12/31/18:00:13.323,(16 20 9 11 8 3 -5 -2)
1969/12/31/18:00:13.336,(-35 -39 -22 -13 -7 1 -3 -11)
1969/12/31/18:00:13.336,(37 36 9 7 3 0 1 16)
1969/12/31/18:00:13.336,(-25 -37 -18 -10 -8 -4 5 18)
1969/12/31/18:00:13.336,(-57 -15 -6 -3 -6 -8 -25 -67)
1969/12/31/18:00:13.355,(-27 -7 1 1 6 6 2 -6)
1969/12/31/18:00:13.355,(-34 -28 -5 -2 -5 -8 -4 -21)
1969/12/31/18:00:13.361,(36 19 7 9 8 8 17 43)
1969/12/31/18:00:13.361,(-21 16 10 4 -1 5 1 7)
1969/12/31/18:00:13.374,(64 0 -20 -13 -11 -8 -1 7)
1969/12/31/18:00:13.374,(-10 14 2 -1 -2 -5 -6 -18)
1969/12/31/18:00:13.375,(-17 -29 -6 -5 1 2 -4 -11)
1969/12/31/18:00:13.375,(-27 -34 -5 7 4 4 0 11)
1969/12/31/18:00:13.386,(23 62 45 20 7 6 7 7)
1969/12/31/18:00:13.386,(19 13 0 -4 -4 -4 3 7)
1969/12/31/18:00:13.387,(-16 -23 -7 -2 -1 -1 -5 -5)
1969/12/31/18:00:13.387,(38 4 -12 -11 -4 -5 -2 11)
1969/12/31/18:00:13.405,(10 6 2 1 2 2 8 6)
1969/12/31/18:00:13.405,(4 -9 -3 -1 -3 -2 -5 -7)
1969/12/31/18:00:13.405,(-15 -1 3 1 1 0 2 -3)
1969/12/31/18:00:13.405,(18 7 -3 -2 0 -1 1 -1)
1969/12/31/18:00:13.417,(-7 -1 4 2 2 1 4 7)
1969/12/31/18:00:13.417,(0 -7 -2 -2 0 -1 -2 -5)
1969/12/31/18:00:13.424,(2 16 3 1 2 1 0 -7)
1969/12/31/18:00:13.424,(14 -9 -5 -4 -2 -2 -1 11)
1969/12/31/18:00:13.437,(-10 3 0 1 0 2 0 -4)
1969/12/31/18:00:13.437,(-16 -19 -6 -4 -4 -4 -1 -3)
1969/12/31/18:00:13.437,(17 18 8 6 1 2 1 -2)
1969/12/31/18:00:13.437,(21 14 0 -2 -2 -1 -2 2)
1969/12/31/18:00:13.457,(-27 -15 -4 -3 -2 0 4 7)
1969/12/31/18:00:13.457,(12 -5 -4 -2 -1 -2 -2 6)
1969/12/31/18:00:13.458,(-11 -7 -7 -3 -2 -4 -4 -3)
1969/12/31/18:00:13.458,(18 3 5 2 1 0 0 13)
1969/12/31/18:00:13.468,(1 23 23 5 1 -1 -3 -15)
1969/12/31/18:00:13.468,(16 22 7 -1 -2 -3 3 24)
1969/12/31/18:00:13.474,(-14 -10 14 8 1 -1 1 -5)
1969/12/31/18:00:13.474,(1 0 -5 1 2 6 -1 -9)
1969/12/31/18:00:13.487,(28 -9 -9 3 3 5 5 20)
1969/12/31/18:00:13.487,(-12 -6 -8 -6 -4 -1 1 20)
1969/12/31/18:00:13.488,(-6 -1 -1 -4 -2 -2 0 -3)
1969/12/31/18:00:13.488,(9 0 -6 -4 -3 -3 -7 4)
1969/12/31/18:00:13.507,(-1 -41 -30 -7 -5 -4 0 -3)
1969/12/31/18:00:13.507,(-2 20 8 -8 -2 -1 -3 -4)
1969/12/31/18:00:13.507,(-8 -10 -5 7 7 5 4 -4)
1969/12/31/18:00:13.507,(-5 5 1 -6 -7 -5 -10 -30)
1969/12/31/18:00:13.526,(16 62 63 17 5 3 2 8)
1969/12/31/18:00:13.526,(-1 -27 -22 -5 -4 -6 -5 -8)
1969/12/31/18:00:13.527,(-19 -7 -16 -12 -7 -6 -8 -23)
1969/12/31/18:00:13.527,(7 -18 -1 3 2 -1 -4 11)
1969/12/31/18:00:13.538,(-6 -29 -29 -15 -6 -4 -1 -1)
1969/12/31/18:00:13.538,(1 16 -8 -1 1 0 -4 -16)
1969/12/31/18:00:13.539,(19 59 69 22 8 6 9 13)
1969/12/31/18:00:13.539,(-14 -1 -6 1 1 -2 -12 -9)
1969/12/31/18:00:13.557,(-13 -30 -15 -3 -4 -2 3 -1)
1969/12/31/18:00:13.557,(-4 2 -11 -1 1 3 0 -1)
1969/12/31/18:00:13.558,(4 -9 -21 -12 -5 -4 -1 6)
1969/12/31/18:00:13.558,(-8 1 9 0 -1 -1 1 2)
1969/12/31/18:00:13.577,(6 -6 -5 -2 -1 1 0 -4)
1969/12/31/18:00:13.577,(1 13 14 4 1 2 2 -7)
1969/12/31/18:00:13.577,(-8 -6 -17 -7 -6 -6 -20 -21)
1969/12/31/18:00:13.577,(3 -10 -6 -5 0 4 14 13)
1969/12/31/18:00:13.588,(-7 10 0 -1 -1 -1 -8 -5)
1969/12/31/18:00:13.588,(-3 -16 -4 -1 -1 -2 2 -8)
1969/12/31/18:00:13.589,(4 -6 -6 -6 -3 -2 1 10)
1969/12/31/18:00:13.589,(7 11 6 -2 -3 -3 -4 4)
1969/12/31/18:00:13.608,(-11 -11 -11 -1 0 -1 -7 -12)
1969/12/31/18:00:13.608,(1 2 1 -2 -5 -4 -1 -3)
1969/12/31/18:00:13.609,(-4 -12 -3 -3 -3 -4 -4 2)
1969/12/31/18:00:13.609,(2 -5 -12 0 2 -1 2 1)
1969/12/31/18:00:13.627,(-2 14 -5 -6 -2 2 5 2)
1969/12/31/18:00:13.627,(1 -9 -3 5 2 2 1 1)
1969/12/31/18:00:13.628,(-3 -7 -13 -6 -5 -3 -5 -7)
1969/12/31/18:00:13.628,(4 4 0 0 0 1 9 7)
1969/12/31/18:00:13.639,(-4 2 -3 -2 0 -2 -9 -3)
1969/12/31/18:00:13.640,(-3 -11 3 0 0 -4 -11 -8)
1969/12/31/18:00:13.640,(1 -11 -15 -4 1 3 5 3)
1969/12/31/18:00:13.640,(5 7 0 -1 -3 -4 0 2)
1969/12/31/18:00:13.658,(0 9 9 0 -1 -1 0 2)
1969/12/31/18:00:13.658,(-6 -17 -3 -2 0 3 2 -2)
1969/12/31/18:00:13.659,(0 3 -3 -3 -4 -5 -4 -4)
1969/12/31/18:00:13.659,(3 10 11 10 2 0 -3 -3)
1969/12/31/18:00:13.678,(-4 -24 -16 -7 -3 1 4 4)
1969/12/31/18:00:13.678,(-1 16 15 2 -4 -3 -2 -2)
1969/12/31/18:00:13.679,(11 26 20 10 5 2 2 3)
1969/12/31/18:00:13.679,(-5 -13 -9 -2 -1 -2 1 -1)
1969/12/31/18:00:13.690,(6 2 -4 0 -1 1 1 6)
1969/12/31/18:00:13.690,(-15 -22 -15 -10 -9 -6 -8 -12)
1969/12/31/18:00:13.690,(-6 -15 -8 -5 -4 0 -1 -2)
1969/12/31/18:00:13.690,(1 3 -7 -8 -4 1 2 3)
1969/12/31/18:00:13.709,(-1 3 -3 1 7 1 -1 2)
1969/12/31/18:00:13.709,(9 14 19 13 5 1 -2 1)
1969/12/31/18:00:13.709,(-3 -20 -16 -6 -4 -1 1 0)
1969/12/31/18:00:13.709,(0 24 19 3 -1 0 -2 -2)
1969/12/31/18:00:13.728,(-3 -12 -8 -9 -6 -1 2 -2)
1969/12/31/18:00:13.728,(-2 -10 -12 -5 1 -1 2 -3)
1969/12/31/18:00:13.742,(2 8 -4 -2 0 1 1 5)
1969/12/31/18:00:13.742,(-8 -19 -1 2 0 -2 -5 -8)
1969/12/31/18:00:13.743,(-6 -8 -4 -9 -6 -6 -7 -10)
1969/12/31/18:00:13.743,(8 26 18 11 6 6 10 8)
1969/12/31/18:00:13.744,(-10 -23 -6 -8 -5 -5 -8 -7)
1969/12/31/18:00:13.744,(9 13 -5 2 1 1 3 5)
1969/12/31/18:00:13.766,(-3 13 16 7 1 1 2 1)
1969/12/31/18:00:13.766,(-4 -5 -6 -8 -6 -6 -3 -4)
1969/12/31/18:00:13.767,(1 -14 -4 10 8 1 4 4)
1969/12/31/18:00:13.767,(1 4 6 -2 -2 -1 0 4)
1969/12/31/18:00:13.779,(1 -7 -15 -9 -5 -6 -4 -4)
1969/12/31/18:00:13.779,(-1 -5 1 6 3 2 2 0)
1969/12/31/18:00:13.780,(-1 0 9 -1 -2 1 0 -2)
1969/12/31/18:00:13.780,(2 6 2 -1 -2 -2 -3 -2)
1969/12/31/18:00:13.791,(-9 -8 -5 -1 -4 -2 0 -1)
1969/12/31/18:00:13.791,(-2 -5 -2 -13 -6 -2 -4 0)
1969/12/31/18:00:13.792,(7 17 -16 -5 -1 1 -2 0)
1969/12/31/18:00:13.792,(-12 -45 1 0 1 -1 2 -1)
1969/12/31/18:00:13.810,(22 58 25 21 9 4 1 5)
1969/12/31/18:00:13.810,(-5 -15 -6 2 0 1 0 0)
1969/12/31/18:00:13.811,(-15 -19 -8 -10 -4 -5 -6 -10)
1969/12/31/18:00:13.811,(1 1 -7 -5 -3 -1 -1 -2)
1969/12/31/18:00:13.830,(-7 -13 4 -1 -4 -2 -1 -3)
1969/12/31/18:00:13.830,(6 1 6 1 2 -1 0 3)
1969/12/31/18:00:13.830,(-4 -1 1 -3 -3 -1 1 0)
1969/12/31/18:00:13.830,(-5 7 -9 -10 -3 -3 -6 -7)
1969/12/31/18:00:13.841,(7 -3 2 1 -1 -2 -2 -2)
1969/12/31/18:00:13.841,(-3 -8 -20 -1 2 3 3 1)
1969/12/31/18:00:13.842,(-4 -12 15 3 -1 -1 2 2)
1969/12/31/18:00:13.842,(8 28 -34 -13 -4 -3 0 1)
1969/12/31/18:00:13.861,(2 5 18 12 5 2 3 0)
1969/12/31/18:00:13.861,(-1 -7 -15 -9 -5 -1 -1 0)
1969/12/31/18:00:13.868,(-8 -15 -1 2 3 2 -1 0)
1969/12/31/18:00:13.868,(2 8 10 -6 -4 -1 -2 -2)
1969/12/31/18:00:13.881,(0 -6 -8 1 0 0 -1 0)
1969/12/31/18:00:13.881,(1 5 -2 1 1 -2 -4 -3)
1969/12/31/18:00:13.881,(-5 -10 -7 -4 0 0 2 2)
1969/12/31/18:00:13.881,(0 -8 1 -5 -4 -4 -3 -4)
1969/12/31/18:00:13.892,(-5 1 -1 1 5 2 1 0)
1969/12/31/18:00:13.892,(0 2 18 7 1 -1 1 0)
1969/12/31/18:00:13.899,(10 22 2 2 0 0 1 1)
1969/12/31/18:00:13.899,(-7 -18 -2 0 -2 -3 -2 0)
1969/12/31/18:00:13.918,(-3 4 5 -4 -2 0 0 1)
1969/12/31/18:00:13.918,(-1 -3 -11 -4 -1 -2 -3 -1)
1969/12/31/18:00:13.919,(4 10 8 6 1 -1 -1 1)
1969/12/31/18:00:13.919,(-1 -6 -9 -2 -1 1 0 -1)
1969/12/31/18:00:13.931,(-4 -10 4 4 3 1 2 -2)
1969/12/31/18:00:13.931,(1 4 -1 1 -1 0 0 0)
1969/12/31/18:00:13.932,(5 12 4 4 -1 0 1 0)
1969/12/31/18:00:13.932,(-5 -10 1 2 0 -1 -2 -2)
1969/12/31/18:00:13.950,(-3 -6 -9 -12 -9 -3 -4 -2)
1969/12/31/18:00:13.950,(0 -3 2 -2 0 0 0 -5)
1969/12/31/18:00:13.950,(2 13 10 2 -3 -1 -1 -3)
1969/12/31/18:00:13.950,(2 -6 -1 17 9 2 2 3)
1969/12/31/18:00:13.962,(-3 -4 -2 3 1 1 0 0)
1969/12/31/18:00:13.962,(5 8 5 0 -1 1 1 5)
1969/12/31/18:00:13.962,(-5 -8 -7 -7 -5 -1 -3 -5)
1969/12/31/18:00:13.962,(-2 -3 0 -5 -1 -1 -1 -3)
1969/12/31/18:00:13.983,(-3 -1 -11 -9 -4 -4 -5 -4)
1969/12/31/18:00:13.983,(-5 -7 -5 -3 -3 -2 -2 -3)
1969/12/31/18:00:13.983,(5 9 -1 -1 1 3 2 3)
1969/12/31/18:00:13.983,(1 4 6 1 0 1 1 2)
1969/12/31/18:00:13.993,(-1 -6 -6 0 3 0 0 -1)
1969/12/31/18:00:13.993,(-4 -3 -7 -7 -3 -4 -3 -3)
1969/12/31/18:00:13.994,(1 1 2 2 1 1 -1 1)
1969/12/31/18:00:13.994,(-4 -8 -10 -9 -5 -1 -2 -2)
1969/12/31/18:00:14.013,(3 9 10 6 -2 -2 -1 1)
1969/12/31/18:00:14.013,(-4 -7 2 2 2 -1 -2 -2)
1969/12/31/18:00:14.013,(-5 -9 -14 -8 -4 -3 -2 -3)
1969/12/31/18:00:14.013,(-1 -1 7 1 -1 -2 -1 -1)
1969/12/31/18:00:14.032,(3 4 -5 -5 -3 -2 -1 -1)
1969/12/31/18:00:14.032,(5 11 10 7 1 2 1 3)
1969/12/31/18:00:14.033,(-9 -11 -11 -5 -5 -4 -4 -9)
1969/12/31/18:00:14.033,(-2 -2 -3 -2 -1 -2 -2 -1)
1969/12/31/18:00:14.044,(-4 -9 -7 -9 -5 -2 -1 -2)
1969/12/31/18:00:14.044,(1 3 -1 -1 0 -2 -1 1)
1969/12/31/18:00:14.051,(2 1 1 -2 0 1 0 1)
1969/12/31/18:00:14.051,(1 5 2 0 -1 -2 0 -2)
1969/12/31/18:00:14.072,(-3 -4 -4 -2 0 -1 0 -1)
1969/12/31/18:00:14.072,(-2 0 -2 -2 -1 0 -2 -1)
1969/12/31/18:00:14.073,(1 3 3 3 2 1 1 2)
1969/12/31/18:00:14.073,(-1 1 0 2 4 0 1 -1)
1969/12/31/18:00:14.084,(2 -1 0 -1 -3 -3 -1 1)
1969/12/31/18:00:14.084,(-4 -6 -6 -6 -2 -2 -1 -5)
1969/12/31/18:00:14.084,(2 4 2 -1 -1 -3 -2 0)
1969/12/31/18:00:14.084,(2 7 7 7 3 1 0 2)
1969/12/31/18:00:14.095,(-2 -6 -3 2 2 0 0 -1)
1969/12/31/18:00:14.095,(0 0 -1 0 -1 -1 0 0)
1969/12/31/18:00:14.101,(-1 0 2 -1 0 0 -3 -1)
1969/12/31/18:00:14.101,(-2 -1 -1 -4 -3 0 0 0)
1969/12/31/18:00:14.121,(-1 -3 -4 -2 -1 1 -1 -4)
1969/12/31/18:00:14.121,(1 0 0 0 -2 0 0 2)
1969/12/31/18:00:14.122,(-3 0 -6 -2 -2 -3 -3 -3)
1969/12/31/18:00:14.122,(-5 -13 -3 -4 -4 -3 -3 -4)
1969/12/31/18:00:14.133,(0 1 2 0 0 0 -1 0)
1969/12/31/18:00:14.134,(-3 -4 -9 -7 -3 -2 -4 -5)
1969/12/31/18:00:14.134,(1 0 1 -1 -3 -1 -1 0)
1969/12/31/18:00:14.134,(3 9 0 0 1 -1 -1 0)
1969/12/31/18:00:14.134,(-1 -5 0 0 -3 -3 -1 -3)
1969/12/31/18:00:14.134,(-2 -2 4 6 2 0 3 1)
1969/12/31/18:00:14.142,(-2 -7 -10 -7 -1 -1 -1 -1)
1969/12/31/18:00:14.142,(-6 -8 0 2 1 -4 -4 -5)
1969/12/31/18:00:14.154,(-2 -1 1 3 -1 0 1 0)
1969/12/31/18:00:14.154,(0 -7 -3 -2 -1 -2 -1 2)
1969/12/31/18:00:14.156,(-4 -7 -3 1 1 -1 -1 -3)
1969/12/31/18:00:14.156,(-3 0 -1 -1 0 0 0 -2)
1969/12/31/18:00:14.174,(0 -2 0 -2 1 0 0 -2)
1969/12/31/18:00:14.174,(2 3 -4 -3 -1 -1 -2 0)
1969/12/31/18:00:14.175,(13 8 1 -2 0 0 -2 -3)
1969/12/31/18:00:14.175,(-2 2 3 1 -3 -1 2 13)
1969/12/31/18:00:14.185,(-20 -13 -7 -7 -4 -4 -4 -8)
1969/12/31/18:00:14.185,(-5 3 4 4 1 -1 -1 0)
1969/12/31/18:00:14.192,(1 5 -4 -3 -3 -3 -3 -10)
1969/12/31/18:00:14.192,(9 2 -1 -3 -4 0 2 -2)
1969/12/31/18:00:14.205,(-4 -1 1 3 4 -1 -8 -5)
1969/12/31/18:00:14.205,(11 8 0 -1 -3 0 0 -7)
1969/12/31/18:00:14.207,(-13 -6 15 10 9 3 -6 -4)
1969/12/31/18:00:14.207,(-3 -4 -10 -9 -5 -5 -5 -11)
1969/12/31/18:00:14.224,(2 4 2 -1 -2 12 15 12)
1969/12/31/18:00:14.224,(-3 -8 0 0 1 -14 -6 8)
1969/12/31/18:00:14.225,(10 14 2 -1 1 6 21 -23)
1969/12/31/18:00:14.225,(4 5 1 2 2 -9 -21 -14)
1969/12/31/18:00:14.235,(15 5 6 2 3 13 -2 5)
1969/12/31/18:00:14.235,(7 -7 -8 -6 -3 14 13 18)
1969/12/31/18:00:14.243,(-50 -15 -6 -6 -9 -23 -13 3)
1969/12/31/18:00:14.243,(-3 -6 -3 0 -1 1 0 -12)
1969/12/31/18:00:14.256,(25 0 0 3 2 0 4 46)
1969/12/31/18:00:14.256,(-21 20 4 -2 -2 3 11 -13)
1969/12/31/18:00:14.257,(45 15 8 3 0 3 -5 11)
1969/12/31/18:00:14.257,(-25 -55 -25 -11 -4 2 3 1)
1969/12/31/18:00:14.274,(-23 3 -5 -7 -7 -13 -10 -17)
1969/12/31/18:00:14.274,(-17 1 5 3 -4 -26 -18 -9)
1969/12/31/18:00:14.276,(0 19 1 -3 2 30 25 -6)
1969/12/31/18:00:14.276,(28 21 20 12 10 7 12 30)
1969/12/31/18:00:14.286,(-18 -12 -1 3 4 11 5 -46)
1969/12/31/18:00:14.286,(-15 -21 -13 -8 -9 -18 -29 -16)
1969/12/31/18:00:14.294,(-5 0 1 5 1 -11 -19 -25)
1969/12/31/18:00:14.294,(30 40 15 3 2 5 11 24)
1969/12/31/18:00:14.306,(2 -15 -6 -2 1 -3 -13 -8)
1969/12/31/18:00:14.306,(1 17 1 -2 -4 8 9 -2)
1969/12/31/18:00:14.307,(27 11 1 1 1 -3 6 36)
1969/12/31/18:00:14.307,(-60 -39 -13 -8 -6 0 -11 -27)
1969/12/31/18:00:14.325,(23 9 2 2 1 -7 1 13)
1969/12/31/18:00:14.325,(-48 -20 -4 0 1 2 -3 -41)
1969/12/31/18:00:14.327,(-13 -1 2 2 1 13 -1 3)
1969/12/31/18:00:14.327,(30 22 1 1 -1 -7 -9 -6)
1969/12/31/18:00:14.337,(1 9 -5 -7 -8 -8 7 -21)
1969/12/31/18:00:14.337,(10 -3 10 8 5 4 6 14)
1969/12/31/18:00:14.344,(-51 -30 -11 -3 2 0 -5 -29)
1969/12/31/18:00:14.344,(4 -11 1 -2 -3 6 13 15)
1969/12/31/18:00:14.357,(-63 1 3 4 0 2 -7 -56)
1969/12/31/18:00:14.357,(87 13 -10 -6 -5 -10 0 66)
1969/12/31/18:00:14.359,(2 -21 -7 -8 -6 -4 19 26)
1969/12/31/18:00:14.359,(15 8 1 1 -1 -7 3 -2)
1969/12/31/18:00:14.375,(41 21 10 5 8 17 -1 29)
1969/12/31/18:00:14.375,(-70 -43 -7 1 2 14 25 -21)
1969/12/31/18:00:14.377,(72 31 -4 -9 -9 -8 -13 29)
1969/12/31/18:00:14.377,(-49 -37 -20 -9 -11 -18 -13 -12)
1969/12/31/18:00:14.387,(-53 -10 5 2 1 4 0 -16)
1969/12/31/18:00:14.387,(42 4 -2 -3 -1 3 -17 -3)
1969/12/31/18:00:14.395,(26 -3 -5 -3 -4 -14 3 12)
1969/12/31/18:00:14.395,(3 37 11 4 1 11 2 -25)
1969/12/31/18:00:14.407,(-40 -7 15 10 5 -1 24 -40)
1969/12/31/18:00:14.407,(1 -5 -17 -7 0 6 -12 6)
1969/12/31/18:00:14.408,(-103 -24 -3 -3 -6 -42 -53 -97)
1969/12/31/18:00:14.408,(106 26 1 -3 -2 31 16 39)
1969/12/31/18:00:14.426,(6 -18 -8 -2 -4 -16 -4 23)
1969/12/31/18:00:14.426,(-22 18 14 6 5 4 -13 -31)
1969/12/31/18:00:14.433,(-14 2 3 3 6 44 15 -5)
1969/12/31/18:00:14.433,(-2 -14 -5 -4 -7 -27 -9 41)
1969/12/31/18:00:14.438,(15 2 -8 -5 -7 3 24 -7)
1969/12/31/18:00:14.438,(25 3 2 -2 -5 -10 -1 -22)
1969/12/31/18:00:14.445,(20 -8 0 0 3 4 -1 36)
1969/12/31/18:00:14.445,(-23 25 4 1 3 5 4 -11)
1969/12/31/18:00:14.457,(24 -23 -7 1 3 2 12 47)
1969/12/31/18:00:14.457,(26 12 3 0 -1 -6 -11 4)
1969/12/31/18:00:14.465,(-35 4 0 -2 -1 -3 1 -31)
1969/12/31/18:00:14.465,(-86 -52 -4 5 5 0 -10 -45)
1969/12/31/18:00:14.477,(32 -5 -13 -10 -7 -14 -21 -2)
1969/12/31/18:00:14.477,(17 13 6 3 5 -3 -5 -21)
1969/12/31/18:00:14.478,(33 16 -6 -4 -3 6 -3 -3)
1969/12/31/18:00:14.478,(3 2 1 -5 -6 -7 1 7)
1969/12/31/18:00:14.488,(-27 18 10 4 0 0 7 -7)
1969/12/31/18:00:14.488,(-43 -9 3 5 5 9 13 33)
1969/12/31/18:00:14.503,(-49 -20 -2 0 -3 -20 -38 -86)
1969/12/31/18:00:14.503,(33 1 -13 -15 -18 -15 -4 9)
1969/12/31/18:00:14.508,(25 18 -1 -2 1 4 -6 17)
1969/12/31/18:00:14.508,(-43 -36 -10 -8 -4 -1 3 4)
1969/12/31/18:00:14.514,(7 -21 -9 0 -1 7 23 31)
1969/12/31/18:00:14.514,(-64 -16 -3 1 3 -5 -30 -49)
1969/12/31/18:00:14.527,(21 38 15 6 1 -1 -1 2)
1969/12/31/18:00:14.527,(-31 5 -8 -7 -10 -18 -34 -77)
1969/12/31/18:00:14.529,(64 -12 -5 -3 8 46 76 127)
1969/12/31/18:00:14.529,(-9 -18 -8 -3 0 -23 -64 -44)
1969/12/31/18:00:14.539,(-6 -12 -6 -7 -7 -13 -58 5)
1969/12/31/18:00:14.539,(3 -11 -4 0 3 10 44 36)
1969/12/31/18:00:14.547,(-33 4 7 10 -4 -34 -31 -73)
1969/12/31/18:00:14.547,(36 16 6 -2 -4 -8 49 46)
1969/12/31/18:00:14.558,(25 14 4 -2 -5 39 -17 1)
1969/12/31/18:00:14.559,(-26 -4 4 10 15 12 -11 -25)
1969/12/31/18:00:14.571,(-29 -25 -18 -12 -4 -10 1 25)
1969/12/31/18:00:14.571,(7 -9 2 3 10 39 32 16)
1969/12/31/18:00:14.578,(-8 7 -7 -10 -15 -31 0 53)
1969/12/31/18:00:14.578,(26 18 13 3 -3 -11 2 -39)
1969/12/31/18:00:14.580,(-14 -17 -6 -2 8 0 7 -20)
1969/12/31/18:00:14.580,(-25 -3 0 0 -6 6 15 -15)
1969/12/31/18:00:14.590,(4 1 -6 -6 -8 -19 -37 -10)
1969/12/31/18:00:14.590,(43 18 5 5 0 8 -17 -5)
1969/12/31/18:00:14.597,(12 11 -2 -5 0 -23 4 42)
1969/12/31/18:00:14.597,(-5 16 5 -1 1 6 11 -14)
1969/12/31/18:00:14.617,(-42 -23 0 9 9 -14 -3 -39)
1969/12/31/18:00:14.617,(36 -17 -21 -14 -1 40 47 53)
1969/12/31/18:00:14.618,(5 37 21 9 -6 -39 -51 -25)
1969/12/31/18:00:14.618,(67 8 -9 -9 13 32 5 31)
1969/12/31/18:00:14.629,(-20 -40 -19 -11 -20 -13 2 -32)
1969/12/31/18:00:14.629,(8 18 7 4 0 -8 13 30)
1969/12/31/18:00:14.630,(49 23 9 6 18 41 32 32)
1969/12/31/18:00:14.630,(-39 18 13 10 -4 -6 -35 -22)
1969/12/31/18:00:14.640,(-11 -26 -14 -5 -2 -30 24 -15)
1969/12/31/18:00:14.640,(20 7 8 2 -6 -4 30 53)
1969/12/31/18:00:14.648,(22 -5 -4 -3 0 2 -3 35)
1969/12/31/18:00:14.648,(-40 -1 2 8 -1 13 -3 -23)
1969/12/31/18:00:14.666,(73 17 -6 -6 -7 -43 -20 20)
1969/12/31/18:00:14.666,(-80 -33 -12 -12 -11 12 -18 -84)
1969/12/31/18:00:14.668,(21 30 12 5 15 -16 -11 -3)
1969/12/31/18:00:14.668,(-17 -8 -3 1 4 9 12 -9)
1969/12/31/18:00:14.679,(22 19 12 13 -2 13 20 24)
1969/12/31/18:00:14.679,(-10 -2 2 0 18 15 9 13)
1969/12/31/18:00:14.681,(-49 -35 -11 1 4 0 -14 -43)
1969/12/31/18:00:14.681,(23 -12 -6 2 16 -22 5 25)
1969/12/31/18:00:14.699,(-38 -6 0 -8 -32 -3 39 -2)
1969/12/31/18:00:14.699,(25 15 -6 -15 -7 -22 -73 6)
1969/12/31/18:00:14.700,(-58 -11 0 -3 -15 -3 2 -12)
1969/12/31/18:00:14.700,(26 8 4 0 8 -5 3 -25)
1969/12/31/18:00:14.710,(3 5 5 9 8 23 27 30)
1969/12/31/18:00:14.710,(-90 -29 -6 10 10 -1 -22 -68)
1969/12/31/18:00:14.716,(37 -11 -6 -9 -24 -34 -10 -5)
1969/12/31/18:00:14.716,(-22 -2 0 2 6 -4 -15 -6)
1969/12/31/18:00:14.736,(38 15 3 -10 6 7 -16 7)
1969/12/31/18:00:14.736,(25 8 0 -2 0 3 26 24)
1969/12/31/18:00:14.737,(-2 0 -6 -8 -15 10 -41 -62)
1969/12/31/18:00:14.738,(7 30 8 9 1 -20 -8 -1)
1969/12/31/18:00:14.749,(-75 -38 4 9 1 37 10 -29)
1969/12/31/18:00:14.749,(7 4 -1 -1 3 -19 6 30)
1969/12/31/18:00:14.751,(6 -7 -11 -7 10 19 -2 -4)
1969/12/31/18:00:14.751,(-2 -18 -13 -16 -20 -15 17 7)
1969/12/31/18:00:14.761,(-17 12 -1 -4 1 11 -25 -31)
1969/12/31/18:00:14.761,(10 5 3 4 -6 -17 -5 13)
1969/12/31/18:00:14.767,(4 29 10 3 -6 16 10 2)
1969/12/31/18:00:14.767,(-4 -36 -14 -11 -5 10 -2 -22)
1969/12/31/18:00:14.781,(11 -3 -4 8 5 -26 -19 22)
1969/12/31/18:00:14.781,(13 1 3 4 -1 -5 16 13)
1969/12/31/18:00:14.782,(-12 3 -3 -11 -23 -20 1 -1)
1969/12/31/18:00:14.782,(8 10 5 9 41 43 -16 6)
1969/12/31/18:00:14.807,(1 -1 -8 -18 -31 -2 14 -5)
1969/12/31/18:00:14.807,(7 4 2 -3 16 37 -4 -1)
1969/12/31/18:00:14.807,(4 -18 0 3 -25 -33 6 2)
1969/12/31/18:00:14.807,(-31 4 0 -6 -15 -9 17 16)
1969/12/31/18:00:14.812,(24 -6 -6 -2 17 -20 -23 -24)
1969/12/31/18:00:14.812,(-13 -6 -13 1 6 -12 -8 -12)
1969/12/31/18:00:14.817,(18 -22 6 1 8 22 26 71)
1969/12/31/18:00:14.817,(32 20 -19 -6 -17 -38 -12 11)
1969/12/31/18:00:14.832,(0 46 66 21 13 21 6 -23)
1969/12/31/18:00:14.832,(31 38 7 4 7 1 -1 6)
1969/12/31/18:00:14.833,(-38 -43 4 7 5 12 13 1)
1969/12/31/18:00:14.833,(-40 -94 -62 -35 -39 -26 -24 -13)
1969/12/31/18:00:14.850,(-59 -30 -38 -4 27 23 20 -7)
1969/12/31/18:00:14.850,(53 108 56 -7 -19 -6 -16 16)
1969/12/31/18:00:14.852,(-6 -44 -30 3 0 -48 -15 42)
1969/12/31/18:00:14.852,(-12 31 41 12 21 46 5 -21)
1969/12/31/18:00:14.862,(-9 -34 -34 -17 -11 -2 12 11)
1969/12/31/18:00:14.862,(-56 -26 -18 -5 0 -5 -17 -40)
1969/12/31/18:00:14.870,(60 16 -16 -3 -30 -27 13 34)
1969/12/31/18:00:14.870,(24 15 23 2 -13 -10 3 30)
1969/12/31/18:00:14.882,(13 -18 -36 -16 10 4 -11 10)
1969/12/31/18:00:14.882,(-25 -43 -21 -3 -7 -5 1 -16)
1969/12/31/18:00:14.883,(-13 1 -32 -24 -19 0 -8 -25)
1969/12/31/18:00:14.883,(-6 -52 15 22 18 2 2 6)
1969/12/31/18:00:14.902,(29 43 -78 -51 -36 -22 -3 35)
1969/12/31/18:00:14.902,(20 81 104 77 25 14 12 21)
1969/12/31/18:00:14.903,(-33 54 -1 19 11 9 -22 -67)
1969/12/31/18:00:14.903,(69 31 -2 22 19 14 10 42)
1969/12/31/18:00:14.913,(-15 -79 -27 -2 12 37 18 -6)
1969/12/31/18:00:14.913,(7 -128 -128 -69 -25 -51 -6 28)
1969/12/31/18:00:14.920,(-7 122 80 15 25 39 -3 -7)
1969/12/31/18:00:14.920,(10 49 72 33 8 10 31 8)
1969/12/31/18:00:14.932,(-31 -25 1 -14 -30 -47 -40 -46)
1969/12/31/18:00:14.932,(-8 -45 -13 -16 -22 7 4 4)
1969/12/31/18:00:14.934,(-18 -66 -21 5 36 35 16 -22)
1969/12/31/18:00:14.934,(-43 -39 -50 -24 -23 -36 -28 -46)
1969/12/31/18:00:14.952,(13 -46 -44 -8 3 6 -2 -15)
1969/12/31/18:00:14.952,(2 8 58 27 6 -13 1 -12)
1969/12/31/18:00:14.953,(31 28 -33 -20 2 16 39 52)
1969/12/31/18:00:14.953,(14 120 100 39 5 13 -15 -12)
1969/12/31/18:00:14.963,(-12 -34 1 -2 -7 -14 -4 0)
1969/12/31/18:00:14.963,(-35 -50 -90 -23 -32 -34 6 9)
1969/12/31/18:00:14.969,(24 35 74 29 56 52 -19 -62)
1969/12/31/18:00:14.969,(-36 -71 -52 -27 -18 -2 1 -21)
1969/12/31/18:00:14.984,(0 19 18 20 25 22 -7 5)
1969/12/31/18:00:14.984,(-23 -72 -38 -12 -10 4 3 -3)
1969/12/31/18:00:14.985,(-9 -38 -36 -12 -32 -39 -2 22)
1969/12/31/18:00:14.985,(-42 -15 -27 18 38 -34 -22 -52)
1969/12/31/18:00:15.002,(20 70 32 -20 -29 14 2 0)
1969/12/31/18:00:15.002,(-16 45 59 6 -13 -9 -39 -63)
1969/12/31/18:00:15.004,(-21 -107 -72 -25 -10 0 18 48)
1969/12/31/18:00:15.004,(18 26 -58 -31 3 -8 -11 -3)
1969/12/31/18:00:15.014,(-26 -82 -49 -1 -3 -3 4 -3)
1969/12/31/18:00:15.014,(0 121 51 30 20 35 30 12)
1969/12/31/18:00:15.028,(22 48 54 23 14 -15 -23 -25)
1969/12/31/18:00:15.028,(5 -95 -52 -11 -5 18 30 43)
1969/12/31/18:00:15.040,(-4 -23 -52 -12 6 -11 -24 -42)
1969/12/31/18:00:15.040,(-18 24 34 5 -12 -1 5 -8)
1969/12/31/18:00:15.042,(-3 -38 3 32 31 -18 8 40)
1969/12/31/18:00:15.042,(8 13 36 -16 -25 44 28 29)
1969/12/31/18:00:15.053,(27 114 58 5 2 3 11 12)
1969/12/31/18:00:15.053,(29 -9 -3 0 26 34 9 32)
1969/12/31/18:00:15.055,(-35 -40 -34 -20 -27 -18 -11 -12)
1969/12/31/18:00:15.055,(-32 -81 -53 -8 1 -6 6 -5)
1969/12/31/18:00:15.065,(18 14 56 31 4 -3 5 -4)
1969/12/31/18:00:15.065,(10 -45 -60 -9 -7 -22 11 34)
1969/12/31/18:00:15.072,(-34 -57 -31 -9 13 -6 -24 -29)
1969/12/31/18:00:15.072,(-13 79 61 -2 -18 21 -14 -49)
1969/12/31/18:00:15.084,(-14 55 74 6 -11 -2 -6 -40)
1969/12/31/18:00:15.084,(20 -39 -13 1 15 0 0 -4)
1969/12/31/18:00:15.086,(2 -66 -50 -11 -18 6 -6 -42)
1969/12/31/18:00:15.086,(66 37 19 10 9 -12 15 58)
1969/12/31/18:00:15.103,(7 119 99 47 31 -1 -11 5)
1969/12/31/18:00:15.103,(20 5 37 3 -22 -14 -17 14)
1969/12/31/18:00:15.105,(-34 51 19 0 9 28 16 -16)
1969/12/31/18:00:15.105,(-23 -113 -77 -44 -54 -83 -35 -37)
1969/12/31/18:00:15.116,(26 53 4 12 54 82 25 88)
1969/12/31/18:00:15.116,(35 71 74 24 -2 -8 15 -8)
1969/12/31/18:00:15.123,(-5 -81 -62 -10 -13 10 -3 19)
1969/12/31/18:00:15.123,(-82 5 -49 -17 -16 -42 -21 -71)
1969/12/31/18:00:15.135,(29 -21 18 22 37 26 35 52)
1969/12/31/18:00:15.135,(-90 -128 -128 -63 -22 22 11 24)
1969/12/31/18:00:15.136,(54 127 121 28 0 -27 -12 -27)
1969/12/31/18:00:15.136,(14 -69 -16 19 7 26 22 68)
1969/12/31/18:00:15.156,(-55 -128 -128 -30 14 -13 -42 -61)
1969/12/31/18:00:15.156,(51 127 127 77 26 23 7 -1)
1969/12/31/18:00:15.157,(3 -43 -31 -17 -41 -29 1 -6)
1969/12/31/18:00:15.157,(63 -84 -79 -15 7 3 6 98)
1969/12/31/18:00:15.166,(-35 -128 -76 -15 -18 -12 7 -12)
1969/12/31/18:00:15.166,(-26 -50 -65 -38 -14 -15 -14 -28)
1969/12/31/18:00:15.173,(32 81 20 3 -6 -7 -12 -4)
1969/12/31/18:00:15.173,(-47 -21 12 1 10 -3 1 -36)
1969/12/31/18:00:15.185,(6 -67 -38 -24 -27 -31 1 30)
1969/12/31/18:00:15.185,(80 63 10 -20 -26 15 19 -51)
1969/12/31/18:00:15.187,(-41 -122 -72 13 52 4 -34 -46)
1969/12/31/18:00:15.187,(9 -15 4 -17 -26 11 4 18)
1969/12/31/18:00:15.205,(-51 -121 -103 -46 -43 -6 -12 -50)
1969/12/31/18:00:15.205,(22 47 32 20 27 13 9 34)
1969/12/31/18:00:15.206,(63 32 4 0 -7 12 39 78)
1969/12/31/18:00:15.206,(37 32 31 23 22 -1 -3 6)
1969/12/31/18:00:15.216,(15 6 -52 -10 -29 -36 -29 -26)
1969/12/31/18:00:15.216,(-69 65 76 39 32 -6 -20 -55)
1969/12/31/18:00:15.224,(41 101 83 32 19 53 18 6)
1969/12/31/18:00:15.224,(-23 6 2 14 2 -5 -2 -6)
1969/12/31/18:00:15.236,(32 -32 -1 -2 -11 -13 -3 0)
1969/12/31/18:00:15.236,(-52 -128 -122 -44 -5 0 -7 -1)
1969/12/31/18:00:15.238,(9 61 59 11 -9 -23 6 49)
1969/12/31/18:00:15.238,(-42 -21 -17 -11 -9 -12 -21 -77)
1969/12/31/18:00:15.255,(21 127 95 33 18 18 -27 -73)
1969/12/31/18:00:15.255,(44 48 54 50 7 -6 0 24)
1969/12/31/18:00:15.257,(-55 -128 -104 -36 -20 -3 -5 -24)
1969/12/31/18:00:15.257,(-15 -61 -73 -18 3 11 -7 3)
1969/12/31/18:00:15.281,(-29 46 -13 -11 -39 -80 -28 -50)
1969/12/31/18:00:15.281,(46 -101 -43 9 56 56 15 62)
1969/12/31/18:00:15.282,(-9 57 20 -24 -35 23 16 -11)
1969/12/31/18:00:15.282,(2 -1 10 6 -2 0 11 12)
1969/12/31/18:00:15.287,(11 -88 -47 -8 -7 -8 10 65)
1969/12/31/18:00:15.287,(16 -16 -29 6 21 -25 -16 20)
1969/12/31/18:00:15.288,(-26 -102 -125 -81 -43 -40 -16 10)
1969/12/31/18:00:15.288,(83 111 87 85 48 42 25 22)
1969/12/31/18:00:15.306,(12 -22 3 29 3 4 18 28)
1969/12/31/18:00:15.306,(-2 -102 -99 -28 -8 -7 -5 -9)
1969/12/31/18:00:15.308,(-48 -116 -61 -10 -3 -3 -13 -18)
1969/12/31/18:00:15.308,(-29 34 14 -17 -17 -14 -8 -29)
1969/12/31/18:00:15.318,(-12 -79 -34 -26 1 -1 -1 30)
1969/12/31/18:00:15.318,(-5 91 26 4 -20 -23 -21 -59)
1969/12/31/18:00:15.325,(19 49 62 35 19 16 16 -13)
1969/12/31/18:00:15.325,(16 -75 -77 -11 -16 -27 -29 48)
1969/12/31/18:00:15.344,(1 17 60 30 88 120 41 -2)
1969/12/31/18:00:15.344,(-21 -38 -61 -53 -54 -52 -26 -2)
1969/12/31/18:00:15.345,(28 1 -11 -1 15 12 16 26)
1969/12/31/18:00:15.345,(-37 -37 -22 -11 13 -4 -22 -61)
1969/12/31/18:00:15.357,(1 60 -33 -11 -35 -41 -21 2)
1969/12/31/18:00:15.357,(11 0 18 14 -14 -1 18 25)
1969/12/31/18:00:15.358,(-12 -70 -33 -1 -2 6 10 6)
1969/12/31/18:00:15.358,(0 -40 17 7 24 18 15 11)
1969/12/31/18:00:15.368,(-20 -128 -128 -48 -19 -14 -9 3)
1969/12/31/18:00:15.368,(35 100 90 37 20 14 11 3)
1969/12/31/18:00:15.376,(-12 -9 34 37 17 -6 -20 -27)
1969/12/31/18:00:15.376,(10 -85 -92 -46 -13 19 10 22)
1969/12/31/18:00:15.388,(3 42 31 17 11 -12 2 -14)
1969/12/31/18:00:15.388,(26 76 79 34 -5 -39 -33 -24)
1969/12/31/18:00:15.394,(-5 -26 -30 -13 -8 16 -2 -7)
1969/12/31/18:00:15.394,(-4 13 13 -15 -3 34 20 -4)
1969/12/31/18:00:15.407,(-10 1 31 12 -16 -2 32 38)
1969/12/31/18:00:15.407,(-46 -116 -107 -38 1 5 -7 -36)
1969/12/31/18:00:15.409,(4 -46 1 20 43 -23 -11 4)
1969/12/31/18:00:15.409,(-13 52 21 -20 -23 20 -16 -47)
1969/12/31/18:00:15.427,(80 114 89 32 -16 2 24 43)
1969/12/31/18:00:15.427,(-29 -66 -37 -9 17 12 8 3)
1969/12/31/18:00:15.432,(-19 -83 -90 -47 -49 -21 3 10)
1969/12/31/18:00:15.432,(38 101 -2 21 25 -14 -2 56)
1969/12/31/18:00:15.438,(-31 -31 51 39 36 12 -8 -51)
1969/12/31/18:00:15.438,(-7 -73 -48 -14 -19 14 24 31)
1969/12/31/18:00:15.444,(4 16 10 5 13 -2 1 -2)
1969/12/31/18:00:15.444,(20 -76 -78 -34 -18 -21 -8 15)
1969/12/31/18:00:15.458,(-19 75 60 13 4 1 -6 -11)
1969/12/31/18:00:15.458,(16 -43 -28 -16 4 0 -23 -9)
1969/12/31/18:00:15.459,(-27 19 14 8 -15 -18 28 -8)
1969/12/31/18:00:15.459,(-7 -8 14 22 13 11 -3 -30)
1969/12/31/18:00:15.476,(-10 -56 -43 -42 -8 13 0 36)
1969/12/31/18:00:15.476,(-40 -11 -22 -22 0 20 5 -28)
1969/12/31/18:00:15.478,(31 105 94 45 15 -4 -13 10)
1969/12/31/18:00:15.478,(-7 -28 2 8 -6 -12 19 2)
1969/12/31/18:00:15.489,(0 -29 -16 21 16 -11 -27 -16)
1969/12/31/18:00:15.489,(-16 -80 -77 -28 -22 -31 -3 23)
1969/12/31/18:00:15.495,(-40 -101 -102 -41 -11 30 6 -9)
1969/12/31/18:00:15.495,(27 127 116 58 28 -10 -28 -34)
1969/12/31/18:00:15.515,(-13 -99 -63 -23 -14 -10 7 14)
1969/12/31/18:00:15.515,(1 65 57 12 -3 8 -6 -25)
1969/12/31/18:00:15.516,(26 -40 -47 6 7 3 18 10)
1969/12/31/18:00:15.516,(-18 53 72 -14 -23 -21 -28 -37)
1969/12/31/18:00:15.528,(-24 -75 -42 -19 -11 -21 -2 -13)
1969/12/31/18:00:15.528,(7 38 10 -6 -28 8 -7 -3)
1969/12/31/18:00:15.529,(9 20 15 2 7 -14 -13 -16)
1969/12/31/18:00:15.529,(-25 -128 -64 2 17 27 14 31)
1969/12/31/18:00:15.540,(-16 65 17 0 3 17 3 -17)
1969/12/31/18:00:15.540,(7 41 28 28 11 -19 2 11)
1969/12/31/18:00:15.545,(1 46 44 4 -8 11 -35 -40)
1969/12/31/18:00:15.545,(7 -52 -82 -34 -36 -40 20 21)
1969/12/31/18:00:15.566,(-21 2 41 16 16 1 -17 -23)
1969/12/31/18:00:15.566,(-14 -128 -99 -16 12 14 33 52)
1969/12/31/18:00:15.567,(25 56 53 3 8 16 17 71)
1969/12/31/18:00:15.567,(-2 63 35 8 -10 -7 3 -13)
1969/12/31/18:00:15.578,(-8 -1 2 9 -1 -13 -13 -22)
1969/12/31/18:00:15.578,(21 51 12 -3 15 45 15 -1)
1969/12/31/18:00:15.579,(41 80 48 19 15 -7 -13 -8)
1969/12/31/18:00:15.579,(-9 -105 -55 -20 -9 -3 -11 15)
1969/12/31/18:00:15.590,(20 100 45 17 4 6 16 17)
1969/12/31/18:00:15.590,(-23 -69 -14 -2 -18 -13 -5 -9)
1969/12/31/18:00:15.596,(-6 71 48 10 -15 10 22 26)
1969/12/31/18:00:15.596,(4 -10 -19 4 5 6 -19 -17)
1969/12/31/18:00:15.610,(-8 2 23 12 9 4 17 15)
1969/12/31/18:00:15.610,(25 21 -11 -5 -8 -26 -10 -12)
1969/12/31/18:00:15.611,(3 -8 5 -8 18 51 26 11)
1969/12/31/18:00:15.611,(-18 -24 -12 -13 -13 -26 -15 -19)
1969/12/31/18:00:15.629,(37 -20 -19 -13 -7 1 12 40)
1969/12/31/18:00:15.629,(12 59 39 17 13 -11 -19 -31)
1969/12/31/18:00:15.630,(34 50 46 16 -1 -13 -1 3)
1969/12/31/18:00:15.630,(-72 -52 -56 -7 3 14 3 -22)
1969/12/31/18:00:15.641,(16 25 -23 0 2 -3 -5 -29)
1969/12/31/18:00:15.641,(-21 38 0 -37 -22 -15 -17 -14)
1969/12/31/18:00:15.646,(29 49 43 33 -2 -36 -12 -3)
1969/12/31/18:00:15.646,(37 57 54 14 21 42 9 2)
1969/12/31/18:00:15.660,(-27 -127 -74 -42 -31 -3 9 8)
1969/12/31/18:00:15.660,(-6 29 -6 15 17 12 -2 -20)
1969/12/31/18:00:15.662,(-38 15 36 1 31 47 10 -15)
1969/12/31/18:00:15.662,(23 37 25 29 20 -23 4 13)
1969/12/31/18:00:15.679,(-12 -14 -17 -34 -66 -29 -16 -3)
1969/12/31/18:00:15.679,(6 -49 -17 -16 -15 -32 -9 0)
1969/12/31/18:00:15.680,(-46 -94 -64 -29 -19 2 -16 -18)
1969/12/31/18:00:15.680,(-1 48 48 24 18 9 8 -14)
1969/12/31/18:00:15.698,(14 15 6 34 36 16 3 14)
1969/12/31/18:00:15.698,(-24 5 40 -12 -15 7 9 13)
1969/12/31/18:00:15.700,(-11 -128 -128 -41 -26 -38 -22 -29)
1969/12/31/18:00:15.700,(19 31 0 -15 -8 5 3 15)
1969/12/31/18:00:15.711,(-8 1 18 13 6 -2 1 -9)
1969/12/31/18:00:15.711,(52 -109 -74 5 2 7 -5 42)
1969/12/31/18:00:15.713,(-2 98 69 24 4 -15 -5 -25)
1969/12/31/18:00:15.713,(23 -7 9 20 22 33 -11 -2)
1969/12/31/18:00:15.736,(-41 -65 -51 -61 -62 -29 1 -11)
1969/12/31/18:00:15.736,(-37 -37 6 7 13 23 4 1)
1969/12/31/18:00:15.738,(-15 -114 -110 -34 -6 6 2 12)
1969/12/31/18:00:15.738,(17 5 -5 -20 -24 -23 5 15)
1969/12/31/18:00:15.741,(36 93 64 28 35 11 -9 11)
1969/12/31/18:00:15.741,(-25 -28 -19 -9 -25 -4 -20 -54)
1969/12/31/18:00:15.749,(-16 -65 -118 -31 10 5 1 44)
1969/12/31/18:00:15.749,(62 91 94 59 1 -14 19 5)
1969/12/31/18:00:15.774,(18 -121 -83 2 9 6 19 44)
1969/12/31/18:00:15.774,(-24 -47 -54 -21 -10 -9 -2 -3)
1969/12/31/18:00:15.776,(29 81 77 49 32 5 -14 -19)
1969/12/31/18:00:15.776,(-37 -128 -128 -47 -8 3 -4 10)
1969/12/31/18:00:15.780,(27 127 113 45 12 8 0 -16)
1969/12/31/18:00:15.780,(31 -22 0 19 19 3 11 24)
1969/12/31/18:00:15.782,(-23 -97 -55 -24 -21 -41 -20 -43)
1969/12/31/18:00:15.782,(-10 46 56 22 23 29 10 7)
1969/12/31/18:00:15.799,(12 -27 -23 -21 -26 -5 -3 2)
1969/12/31/18:00:15.799,(-24 -33 -23 -14 0 9 1 6)
1969/12/31/18:00:15.800,(-9 2 1 -9 15 23 13 23)
1969/12/31/18:00:15.800,(-26 -76 -67 -50 -48 -39 -10 -26)
1969/12/31/18:00:15.812,(37 89 56 31 32 2 -10 19)
1969/12/31/18:00:15.812,(24 118 127 60 37 20 25 18)
1969/12/31/18:00:15.814,(15 -91 -96 -40 -44 -28 -8 5)
1969/12/31/18:00:15.814,(-7 41 72 37 15 -10 -15 -20)
1969/12/31/18:00:15.837,(-41 -128 -109 -40 10 28 9 -17)
1969/12/31/18:00:15.837,(-2 -5 -58 -20 -12 -29 -12 -18)
1969/12/31/18:00:15.839,(-3 26 45 32 5 21 35 35)
1969/12/31/18:00:15.839,(46 20 -19 -1 8 -11 -18 6)
1969/12/31/18:00:15.842,(-39 44 24 26 39 -34 -26 -46)
1969/12/31/18:00:15.842,(25 31 31 -16 -56 31 22 32)
1969/12/31/18:00:15.850,(-34 -41 -19 -56 -61 -27 -24 -42)
1969/12/31/18:00:15.850,(-1 -5 -1 31 31 9 29 26)
1969/12/31/18:00:15.863,(-4 -113 -77 -2 71 33 20 12)
1969/12/31/18:00:15.863,(-19 -1 -16 -26 -53 -65 -58 -43)
1969/12/31/18:00:15.864,(-19 42 44 28 7 8 2 -3)
1969/12/31/18:00:15.864,(1 -87 -67 -38 -35 -5 4 27)
1969/12/31/18:00:15.881,(-18 48 16 14 -3 -2 -4 -22)
1969/12/31/18:00:15.881,(40 78 74 53 38 15 22 -16)
1969/12/31/18:00:15.883,(88 -83 -93 -29 3 17 13 86)
1969/12/31/18:00:15.883,(-68 84 78 40 -3 -36 -29 -61)
1969/12/31/18:00:15.893,(10 -59 -64 -33 -42 1 12 -1)
1969/12/31/18:00:15.893,(-27 -69 -70 -18 8 4 -9 -22)
1969/12/31/18:00:15.901,(-39 -34 18 8 -2 -14 -18 -46)
1969/12/31/18:00:15.901,(-18 -14 -64 -32 7 13 -11 -28)
1969/12/31/18:00:15.913,(24 49 63 20 -21 -21 -1 14)
1969/12/31/18:00:15.913,(-3 -41 -17 -9 -6 -8 -13 18)
1969/12/31/18:00:15.915,(11 -17 -19 11 30 39 34 39)
1969/12/31/18:00:15.915,(-46 -128 -100 -47 -26 -32 -23 -32)
1969/12/31/18:00:15.932,(-13 72 29 4 -29 -9 -16 -34)
1969/12/31/18:00:15.932,(25 2 5 3 11 -9 -3 3)
1969/12/31/18:00:15.934,(-15 -55 -34 8 21 -3 -3 4)
1969/12/31/18:00:15.934,(30 40 73 14 -13 23 21 0)
1969/12/31/18:00:15.944,(13 61 48 7 -6 -7 -1 38)
1969/12/31/18:00:15.944,(-30 -24 -8 13 22 14 16 4)
1969/12/31/18:00:15.951,(40 28 -18 -16 -19 -19 -19 -29)
1969/12/31/18:00:15.951,(-23 -114 -85 -26 6 12 11 -13)
1969/12/31/18:00:15.964,(26 38 40 25 9 -25 -8 21)
1969/12/31/18:00:15.964,(-68 -57 -43 -21 -9 16 14 1)
1969/12/31/18:00:15.966,(-11 38 26 0 0 18 -10 -32)
1969/12/31/18:00:15.966,(1 1 -6 6 7 -7 -3 3)
1969/12/31/18:00:15.982,(-24 -128 -118 -34 9 2 -2 7)
1969/12/31/18:00:15.982,(19 101 53 28 29 13 13 0)
1969/12/31/18:00:15.984,(11 56 42 22 -16 -17 -1 16)
1969/12/31/18:00:15.984,(18 -69 -90 -35 -14 -2 -5 23)
1969/12/31/18:00:15.994,(2 85 101 43 26 23 29 5)
1969/12/31/18:00:15.994,(1 -31 -39 -9 -14 -27 -25 -16)
1969/12/31/18:00:16.002,(-67 -98 -78 -9 29 17 20 -7)
1969/12/31/18:00:16.002,(32 127 73 3 -37 -15 0 52)
1969/12/31/18:00:16.015,(-16 -43 -17 3 1 10 0 -15)
1969/12/31/18:00:16.015,(-23 -118 -86 -33 -11 4 0 -41)
1969/12/31/18:00:16.016,(6 75 55 31 18 -14 -46 -40)
1969/12/31/18:00:16.016,(-12 -21 -25 -19 14 19 15 6)
1969/12/31/18:00:16.033,(3 -50 -51 -32 -38 -12 1 20)
1969/12/31/18:00:16.033,(23 13 41 39 15 -20 -10 3)
1969/12/31/18:00:16.035,(-42 -80 -54 -71 -63 -16 1 -18)
1969/12/31/18:00:16.035,(10 7 10 20 47 43 0 4)
1969/12/31/18:00:16.045,(31 104 101 49 8 6 -9 -35)
1969/12/31/18:00:16.045,(22 -80 -44 3 10 6 25 35)
1969/12/31/18:00:16.052,(-3 15 28 19 16 -1 -5 -25)
1969/12/31/18:00:16.052,(17 46 -5 7 -32 -14 13 13)
1969/12/31/18:00:16.066,(-36 -128 -100 -33 16 15 3 -2)
1969/12/31/18:00:16.066,(6 52 -27 -41 -57 -49 -34 -11)
1969/12/31/18:00:16.067,(46 90 102 61 18 11 9 13)
1969/12/31/18:00:16.067,(2 -84 -46 3 6 3 0 6)
1969/12/31/18:00:16.084,(6 -46 -41 6 20 6 -2 2)
1969/12/31/18:00:16.084,(-34 -53 -37 -22 -25 -7 -22 -34)
1969/12/31/18:00:16.084,(-49 -70 -36 12 23 -7 -19 0)
1969/12/31/18:00:16.084,(11 101 106 -1 -45 -28 -2 -37)
1969/12/31/18:00:16.102,(-29 -31 -52 -50 -29 -10 -4 -17)
1969/12/31/18:00:16.102,(7 75 53 14 16 9 7 14)
1969/12/31/18:00:16.103,(28 20 0 15 -2 -9 -8 4)
1969/12/31/18:00:16.103,(-2 6 14 23 19 14 13 6)
1969/12/31/18:00:16.115,(-40 -107 -68 -13 23 14 -12 -15)
1969/12/31/18:00:16.115,(19 114 60 -8 -14 5 -20 -40)
1969/12/31/18:00:16.116,(1 -29 -43 -9 -12 0 9 4)
1969/12/31/18:00:16.116,(-20 -115 -58 14 30 -8 -1 15)
1969/12/31/18:00:16.141,(-6 9 31 14 -12 -6 -10 -51)
1969/12/31/18:00:16.141,(-20 -92 -73 -21 3 11 14 -5)
1969/12/31/18:00:16.142,(30 14 -8 -30 -32 -15 -13 -20)
1969/12/31/18:00:16.142,(18 72 70 7 2 2 6 14)
1969/12/31/18:00:16.153,(-30 -92 -78 -30 -15 5 -4 -10)
1969/12/31/18:00:16.153,(29 95 79 38 31 12 10 19)
1969/12/31/18:00:16.154,(13 -36 -40 -14 -14 -7 19 42)
1969/12/31/18:00:16.154,(9 28 16 3 -7 -10 -9 -12)
1969/12/31/18:00:16.174,(16 11 -12 5 13 -8 -8 -7)
1969/12/31/18:00:16.174,(-8 -40 -23 -24 -28 16 20 33)
1969/12/31/18:00:16.175,(-19 -103 -92 -47 -13 -1 14 27)
1969/12/31/18:00:16.175,(-27 42 -31 3 12 6 -26 -22)
1969/12/31/18:00:16.185,(32 -22 -21 -11 -31 -16 0 32)
1969/12/31/18:00:16.185,(-33 -69 -52 -2 11 2 -13 -29)
1969/12/31/18:00:16.185,(67 127 119 57 25 -3 5 41)
1969/12/31/18:00:16.185,(-6 -95 -53 -22 -1 -1 -9 -8)
1969/12/31/18:00:16.203,(3 5 4 -3 -33 -12 -8 -3)
1969/12/31/18:00:16.203,(1 -50 -55 -27 -3 0 10 41)
1969/12/31/18:00:16.204,(-15 41 80 27 28 19 9 -4)
1969/12/31/18:00:16.204,(39 -24 -18 -19 -31 -17 22 46)
1969/12/31/18:00:16.216,(8 42 -11 -10 -10 -13 -14 -25)
1969/12/31/18:00:16.216,(49 -1 15 31 29 21 23 104)
1969/12/31/18:00:16.217,(-30 -99 -76 -14 2 -9 -13 -47)
1969/12/31/18:00:16.217,(-32 -38 -6 -2 -6 2 20 5)
1969/12/31/18:00:16.236,(23 84 84 27 16 16 3 11)
1969/12/31/18:00:16.236,(-26 -118 -73 -17 7 -16 3 5)
1969/12/31/18:00:16.236,(29 105 36 14 -4 3 -11 -15)
1969/12/31/18:00:16.236,(-41 -76 -125 -85 -41 -27 -42 -52)
1969/12/31/18:00:16.254,(14 53 96 24 4 9 25 29)
1969/12/31/18:00:16.254,(-33 -2 37 31 11 -13 -1 -17)
1969/12/31/18:00:16.255,(-11 -93 -92 -24 4 -10 -27 -16)
1969/12/31/18:00:16.255,(41 76 96 32 23 37 19 -12)
1969/12/31/18:00:16.267,(-49 -76 -70 -6 13 0 -5 13)
1969/12/31/18:00:16.267,(67 83 71 23 5 -1 12 59)
1969/12/31/18:00:16.268,(-24 -20 -16 -7 -3 2 -2 -42)
1969/12/31/18:00:16.268,(9 9 4 9 12 0 -1 15)
1969/12/31/18:00:16.286,(16 47 -24 -16 -13 4 21 18)
1969/12/31/18:00:16.286,(26 53 64 33 8 3 -25 -16)
1969/12/31/18:00:16.287,(-32 22 -8 20 5 -9 8 -8)
1969/12/31/18:00:16.287,(66 61 63 40 38 18 -20 14)
1969/12/31/18:00:16.306,(-47 -90 -50 -49 -52 -10 16 -21)
1969/12/31/18:00:16.306,(-21 -20 -16 -12 -2 -14 -20 -24)
1969/12/31/18:00:16.306,(-5 57 8 -3 -6 -2 14 -4)
1969/12/31/18:00:16.306,(-21 -18 6 25 20 3 -4 -13)
1969/12/31/18:00:16.317,(21 -41 -30 -15 -5 20 1 10)
1969/12/31/18:00:16.317,(20 85 62 19 0 5 16 -4)
1969/12/31/18:00:16.318,(-44 -107 -35 5 13 -4 -1 8)
1969/12/31/18:00:16.318,(2 43 -12 -10 -12 10 0 14)
1969/12/31/18:00:16.337,(9 -40 -46 -23 -18 -19 -17 -14)
1969/12/31/18:00:16.337,(19 46 38 9 -9 -5 -3 -13)
1969/12/31/18:00:16.338,(8 -6 -3 -8 3 3 12 35)
1969/12/31/18:00:16.338,(-17 -65 -45 -9 -2 1 20 42)
1969/12/31/18:00:16.355,(-7 42 44 26 13 -12 -32 -49)
1969/12/31/18:00:16.355,(-29 -31 -51 -28 -11 8 4 -32)
1969/12/31/18:00:16.356,(-8 -99 -70 -24 21 22 -14 -14)
1969/12/31/18:00:16.356,(5 58 37 15 -26 -20 24 52)
1969/12/31/18:00:16.369,(27 59 36 7 -13 -20 8 12)
1969/12/31/18:00:16.369,(-23 -61 -53 -16 9 30 13 0)
1969/12/31/18:00:16.369,(9 -16 -6 -27 -25 -10 -4 -11)
1969/12/31/18:00:16.369,(-46 -65 -31 -6 8 6 -6 -45)
1969/12/31/18:00:16.387,(23 42 11 33 35 -2 -6 7)
1969/12/31/18:00:16.387,(-15 -29 -2 7 5 -4 -7 -23)
1969/12/31/18:00:16.388,(11 75 58 4 -11 1 8 2)
1969/12/31/18:00:16.388,(15 -23 -19 -15 -11 -5 -6 -1)
1969/12/31/18:00:16.406,(6 11 28 16 10 2 3 23)
1969/12/31/18:00:16.406,(-32 -86 -87 -32 -10 -5 -4 -5)
1969/12/31/18:00:16.407,(24 76 53 13 -5 -15 -7 8)
1969/12/31/18:00:16.407,(-36 -16 -11 5 8 7 -7 -34)
1969/12/31/18:00:16.419,(-2 -22 -16 -12 3 4 -1 -15)
1969/12/31/18:00:16.419,(10 33 18 5 -2 2 11 7)
1969/12/31/18:00:16.419,(-8 -5 -2 -4 1 10 -16 -39)
1969/12/31/18:00:16.419,(-6 -12 16 13 -14 -28 -3 1)
1969/12/31/18:00:16.438,(13 25 20 8 9 13 11 21)
1969/12/31/18:00:16.438,(7 19 18 11 19 -14 3 2)
1969/12/31/18:00:16.439,(9 14 12 -15 -42 12 -25 7)
1969/12/31/18:00:16.439,(-17 -26 -11 12 37 -2 2 -20)
1969/12/31/18:00:16.457,(-36 -49 -21 -13 -5 5 -2 -8)
1969/12/31/18:00:16.457,(9 40 -11 -1 5 -1 -1 6)
1969/12/31/18:00:16.457,(39 32 35 27 13 -2 19 34)
1969/12/31/18:00:16.457,(3 12 18 -15 -21 0 -7 -2)
1969/12/31/18:00:16.470,(9 14 18 2 4 -4 -7 -3)
1969/12/31/18:00:16.470,(-10 -21 -7 2 -5 -3 -4 -3)
1969/12/31/18:00:16.471,(8 -31 -38 -14 -9 -10 1 -6)
1969/12/31/18:00:16.471,(-21 3 3 -2 -7 2 0 -6)
1969/12/31/18:00:16.489,(-1 32 25 9 4 -10 -8 -6)
1969/12/31/18:00:16.489,(10 -1 -26 -13 -12 6 -2 4)
1969/12/31/18:00:16.489,(0 -10 6 -10 -7 -6 7 8)
1969/12/31/18:00:16.489,(-4 -18 -1 -1 2 0 -4 9)
1969/12/31/18:00:16.507,(20 3 -4 5 5 0 -20 21)
1969/12/31/18:00:16.507,(11 16 1 4 6 7 4 5)
1969/12/31/18:00:16.508,(42 2 11 -1 -11 -18 -15 1)
1969/12/31/18:00:16.508,(-73 -41 -19 -5 4 15 14 -41)
1969/12/31/18:00:16.520,(1 -5 -21 -12 -9 1 -5 23)
1969/12/31/18:00:16.520,(-28 5 3 -8 -13 -15 -13 -41)
1969/12/31/18:00:16.521,(-18 3 3 0 -2 -8 4 -16)
1969/12/31/18:00:16.521,(17 4 -12 -8 -9 -2 9 1)
1969/12/31/18:00:16.539,(60 24 4 -4 -13 -5 18 18)
1969/12/31/18:00:16.539,(-49 -37 -6 -1 24 43 -20 -15)
1969/12/31/18:00:16.540,(-17 -2 7 34 26 -1 0 16)
1969/12/31/18:00:16.540,(37 18 -7 -3 -7 -21 -20 -21)
1969/12/31/18:00:16.558,(-75 -33 -12 0 2 -3 0 -23)
1969/12/31/18:00:16.558,(59 25 18 -3 -15 7 30 38)
1969/12/31/18:00:16.559,(57 12 0 -7 -2 -1 23 30)
1969/12/31/18:00:16.559,(-51 -28 -10 -3 2 2 -14 -11)
1969/12/31/18:00:16.570,(27 22 4 -5 -8 3 0 -2)
1969/12/31/18:00:16.570,(26 6 -13 -16 -16 -22 -9 8)
1969/12/31/18:00:16.571,(-36 -26 -1 6 11 13 5 -7)
1969/12/31/18:00:16.571,(0 2 18 15 9 11 32 71)
1969/12/31/18:00:16.590,(74 21 -14 -12 -5 6 6 -2)
1969/12/31/18:00:16.590,(-46 -15 -3 1 -1 -7 -7 -33)
1969/12/31/18:00:16.591,(15 -7 -15 -13 -14 -14 1 6)
1969/12/31/18:00:16.591,(10 0 13 5 4 10 5 13)
1969/12/31/18:00:16.609,(5 -8 -4 3 8 6 10 16)
1969/12/31/18:00:16.609,(-31 -18 1 8 1 -6 -9 -1)
1969/12/31/18:00:16.609,(34 40 5 -1 -6 -4 -1 -2)
1969/12/31/18:00:16.609,(2 -17 -22 -17 -14 -8 -3 46)
1969/12/31/18:00:16.622,(-48 -31 3 10 11 4 -9 -23)
1969/12/31/18:00:16.622,(57 11 1 1 -5 -8 8 19)
1969/12/31/18:00:16.622,(-46 -23 3 4 7 10 6 11)
1969/12/31/18:00:16.622,(8 14 -8 -8 -7 -10 -23 -36)
1969/12/31/18:00:16.640,(-12 1 -3 0 -2 -7 -7 -11)
1969/12/31/18:00:16.640,(0 -9 -2 -4 -2 0 7 22)
1969/12/31/18:00:16.641,(-35 -9 -10 -4 -4 2 -5 -12)
1969/12/31/18:00:16.641,(36 28 12 5 5 2 -6 -13)
1969/12/31/18:00:16.659,(-11 -16 0 1 1 1 9 9)
1969/12/31/18:00:16.659,(-24 -18 -3 2 1 -4 -8 -24)
1969/12/31/18:00:16.660,(-3 0 -4 -3 -1 0 -2 -3)
1969/12/31/18:00:16.660,(4 10 -1 -3 -5 -6 -9 -20)
1969/12/31/18:00:16.672,(-5 -9 -3 0 2 2 1 -2)
1969/12/31/18:00:16.672,(-3 -8 -3 -2 -3 -2 -2 6)
1969/12/31/18:00:16.678,(-5 5 5 2 2 -3 -5 -10)
1969/12/31/18:00:16.678,(15 5 4 1 0 2 -1 1)
1969/12/31/18:00:16.698,(-15 -5 -2 -1 0 0 -3 -6)
1969/12/31/18:00:16.698,(-4 -4 1 -2 -2 -4 -8 -10)
1969/12/31/18:00:16.699,(6 7 0 -1 1 3 6 3)
1969/12/31/18:00:16.699,(0 3 -5 -3 -1 1 -1 -9)
1969/12/31/18:00:16.710,(6 11 4 3 2 2 3 3)
1969/12/31/18:00:16.710,(-15 -12 -5 -1 -5 -7 -9 -9)
1969/12/31/18:00:16.710,(-3 -14 -2 -1 0 1 -3 -4)
1969/12/31/18:00:16.710,(-5 -1 -6 -3 -2 -3 -7 -14)
1969/12/31/18:00:16.722,(17 7 1 0 -1 -2 -3 2)
1969/12/31/18:00:16.722,(-27 -15 -5 0 -2 0 2 -4)
1969/12/31/18:00:16.723,(-15 -9 -7 -5 -5 -4 -13 -8)
1969/12/31/18:00:16.723,(10 12 8 1 3 4 16 10)
1969/12/31/18:00:16.742,(-12 -31 -30 -13 -5 -5 -17 -14)
1969/12/31/18:00:16.742,(10 36 40 20 9 4 8 4)
1969/12/31/18:00:16.743,(-13 -12 -9 -2 -1 -4 -9 -19)
1969/12/31/18:00:16.743,(-1 1 -16 -9 -9 -7 -4 -6)
1969/12/31/18:00:16.760,(-7 -2 3 0 -2 -3 1 -7)
1969/12/31/18:00:16.760,(14 -15 -19 -5 0 0 1 11)
1969/12/31/18:00:16.761,(-4 4 -4 -6 -5 0 -1 -5)
1969/12/31/18:00:16.761,(3 14 -3 -1 -2 -4 -8 -9)
1969/12/31/18:00:16.773,(1 14 18 7 5 3 6 13)
1969/12/31/18:00:16.773,(5 -2 -6 -1 0 1 0 6)
1969/12/31/18:00:16.780,(-10 -2 3 1 -4 -5 -5 -9)
1969/12/31/18:00:16.780,(3 -20 -9 -2 -1 -1 0 1)
1969/12/31/18:00:16.799,(-9 4 2 -2 0 1 2 -1)
1969/12/31/18:00:16.799,(1 2 3 -2 -2 -3 -3 -5)
1969/12/31/18:00:16.800,(5 5 6 5 6 3 11 15)
1969/12/31/18:00:16.800,(0 0 -1 -2 -3 -1 -10 -6)
1969/12/31/18:00:16.811,(-4 -2 -6 -1 0 1 7 2)
1969/12/31/18:00:16.811,(-5 -37 -5 4 0 -3 -2 -3)
1969/12/31/18:00:16.812,(20 66 45 10 6 5 -3 6)
1969/12/31/18:00:16.812,(-2 -12 -2 1 1 -1 -1 -2)
1969/12/31/18:00:16.823,(-5 10 0 0 -2 -4 0 -4)
1969/12/31/18:00:16.823,(1 -15 -23 -11 -5 -4 -2 -1)
1969/12/31/18:00:16.830,(-7 -30 -19 -6 -3 -1 4 5)
1969/12/31/18:00:16.830,(2 23 20 5 2 3 9 6)
1969/12/31/18:00:16.850,(-2 -10 -5 -1 -2 -1 -10 -9)
1969/12/31/18:00:16.850,(4 8 -4 -4 -1 0 -7 -2)
1969/12/31/18:00:16.850,(-10 -7 -2 0 -3 -5 1 -10)
1969/12/31/18:00:16.850,(-1 2 0 -6 -3 -1 -6 -5)
1969/12/31/18:00:16.861,(-4 -12 -8 -3 -1 0 16 8)
1969/12/31/18:00:16.861,(1 14 4 -4 -3 -1 -11 -5)
1969/12/31/18:00:16.862,(-2 -4 -6 -3 -1 -1 -3 -4)
1969/12/31/18:00:16.862,(-1 -8 0 1 -5 -6 -2 1)
1969/12/31/18:00:16.874,(5 11 12 8 8 8 5 9)
1969/12/31/18:00:16.874,(-2 -2 -5 -5 -4 0 6 -3)
1969/12/31/18:00:16.881,(-6 -12 -8 -6 -2 -2 -8 -7)
1969/12/31/18:00:16.881,(-2 -10 -12 -5 -3 -5 -6 -7)
1969/12/31/18:00:16.894,(1 19 14 2 -2 -5 -4 -5)
1969/12/31/18:00:16.894,(1 7 12 5 1 4 5 6)
1969/12/31/18:00:16.894,(-5 -12 -10 -3 0 1 2 5)
1969/12/31/18:00:16.894,(4 10 10 6 2 0 -5 -1)
1969/12/31/18:00:16.912,(1 -5 -8 -1 -1 0 1 -1)
1969/12/31/18:00:16.912,(-2 -8 -12 -8 -4 -4 -7 -9)
1969/12/31/18:00:16.913,(-4 -12 -5 -4 -5 -2 -2 0)
1969/12/31/18:00:16.913,(1 14 7 3 3 1 -1 -2)
1969/12/31/18:00:16.925,(0 -5 1 1 0 -2 -4 -1)
1969/12/31/18:00:16.925,(1 0 -6 -3 0 3 15 11)
1969/12/31/18:00:16.931,(-3 -4 -1 -1 -3 -6 -11 -2)
1969/12/31/18:00:16.931,(-2 -3 3 0 0 3 4 2)
1969/12/31/18:00:16.944,(-11 -32 -18 -7 -5 -2 -2 -6)
1969/12/31/18:00:16.944,(8 43 15 5 4 0 -2 1)
1969/12/31/18:00:16.945,(0 -7 -9 -3 0 0 8 6)
1969/12/31/18:00:16.945,(4 2 -1 0 2 -1 -2 -2)
1969/12/31/18:00:16.964,(0 1 12 2 -1 3 3 5)
1969/12/31/18:00:16.964,(-3 -17 -8 0 -1 -1 0 2)
1969/12/31/18:00:16.964,(-2 0 -7 -6 -2 -1 0 -7)
1969/12/31/18:00:16.964,(0 -2 5 4 3 -3 -2 2)
1969/12/31/18:00:16.975,(-5 -5 -4 -4 -4 -7 -9 -9)
1969/12/31/18:00:16.975,(0 1 -1 -2 0 -1 -1 -4)
1969/12/31/18:00:16.982,(3 4 0 1 -4 -2 0 7)
1969/12/31/18:00:16.982,(-1 -2 -3 -11 -4 0 -4 -4)
1969/12/31/18:00:16.995,(-6 0 -1 10 5 6 3 -2)
1969/12/31/18:00:16.995,(-3 -6 -8 -6 -4 -14 -15 -4)
1969/12/31/18:00:16.996,(2 4 7 -13 -16 -1 -2 -9)
1969/12/31/18:00:16.996,(-8 -6 -2 17 25 12 2 -6)
1969/12/31/18:00:17.013,(4 4 -7 -8 -11 -5 5 8)
1969/12/31/18:00:17.013,(-1 -2 3 -3 -6 2 2 -1)
1969/12/31/18:00:17.014,(2 -3 -1 5 6 -2 1 2)
1969/12/31/18:00:17.014,(2 2 -2 -8 -11 2 1 2)
1969/12/31/18:00:17.026,(-5 2 2 15 14 -9 -12 -4)
1969/12/31/18:00:17.026,(-5 -4 -2 -12 -10 -9 -10 -7)
1969/12/31/18:00:17.033,(1 0 -4 13 27 30 27 9)
1969/12/31/18:00:17.033,(1 2 2 1 -9 -13 -14 -3)
1969/12/31/18:00:17.045,(-2 -2 -7 -10 -1 0 -2 -2)
1969/12/31/18:00:17.045,(1 -2 -1 -2 -11 -6 1 1)
1969/12/31/18:00:17.046,(1 5 1 0 1 -11 -13 -4)
1969/12/31/18:00:17.046,(-7 -6 -3 -1 -3 2 16 3)
1969/12/31/18:00:17.064,(-2 -1 1 -1 0 0 -23 -7)
1969/12/31/18:00:17.064,(-4 -1 -7 -20 -17 9 33 2)
1969/12/31/18:00:17.065,(-4 -2 0 3 12 -9 -43 -14)
1969/12/31/18:00:17.065,(0 -3 -2 -3 -11 -14 -5 0)
1969/12/31/18:00:17.084,(-1 3 0 0 0 5 14 5)
1969/12/31/18:00:17.084,(2 3 3 13 17 5 -1 -1)
1969/12/31/18:00:17.084,(-4 -4 -1 6 -1 11 14 -1)
1969/12/31/18:00:17.084,(-1 -4 -8 -10 -13 -15 -2 2)
1969/12/31/18:00:17.103,(4 5 6 8 6 2 -4 2)
1969/12/31/18:00:17.103,(1 -2 -1 2 1 13 7 1)
1969/12/31/18:00:17.104,(-2 -2 -2 -10 -10 -10 -6 7)
1969/12/31/18:00:17.104,(-2 -3 -4 -11 -3 16 9 -3)
1969/12/31/18:00:17.121,(2 1 4 10 6 -14 4 -1)
1969/12/31/18:00:17.121,(1 -1 -2 3 7 -22 -19 -1)
1969/12/31/18:00:17.127,(-5 -4 -1 3 -2 8 7 -9)
1969/12/31/18:00:17.127,(-2 -1 -3 -10 -8 -5 6 1)
1969/12/31/18:00:17.134,(0 1 -3 -8 -2 1 -5 -4)
1969/12/31/18:00:17.134,(0 -1 0 -3 -9 -8 -1 0)
1969/12/31/18:00:17.148,(1 1 -2 -8 -1 -10 -1 -1)
1969/12/31/18:00:17.148,(-2 0 1 4 7 4 -8 -3)
1969/12/31/18:00:17.150,(1 -2 -2 -10 -10 1 6 -1)
1969/12/31/18:00:17.150,(1 1 5 10 14 6 -18 -4)
1969/12/31/18:00:17.152,(3 0 -1 -2 -7 0 12 7)
1969/12/31/18:00:17.152,(-2 -2 -1 3 1 3 -7 -5)
1969/12/31/18:00:17.165,(-3 0 5 -3 -1 2 -4 0)
1969/12/31/18:00:17.165,(-4 -1 0 -3 -4 -1 5 -2)
1969/12/31/18:00:17.166,(-2 -6 -14 -1 0 -4 -7 -4)
1969/12/31/18:00:17.166,(2 6 11 6 2 0 3 3)
1969/12/31/18:00:17.185,(3 -5 -7 -6 -5 -1 0 -1)
1969/12/31/18:00:17.185,(3 1 -1 4 6 3 0 1)
1969/12/31/18:00:17.185,(2 5 11 -2 -4 -4 6 4)
1969/12/31/18:00:17.185,(-3 -7 -4 5 7 5 -7 -1)
1969/12/31/18:00:17.204,(-10 -5 -5 -8 -6 -2 -3 -11)
1969/12/31/18:00:17.204,(-2 0 0 0 0 2 0 -1)
1969/12/31/18:00:17.205,(2 1 -4 -5 -3 1 -4 2)
1969/12/31/18:00:17.205,(3 1 -1 -6 -1 -2 4 3)
1969/12/31/18:00:17.217,(-4 -7 -8 -4 -2 -1 -3 -3)
1969/12/31/18:00:17.217,(-5 -15 -8 -12 -9 -5 -2 -2)
1969/12/31/18:00:17.217,(6 27 12 10 1 -3 -1 0)
1969/12/31/18:00:17.217,(6 4 -4 7 8 3 1 2)
1969/12/31/18:00:17.236,(-6 -7 -5 -7 -4 0 1 -3)
1969/12/31/18:00:17.236,(-4 -4 3 10 6 3 -1 -3)
1969/12/31/18:00:17.236,(-7 -20 -20 -17 -15 -8 -4 -4)
1969/12/31/18:00:17.236,(1 2 1 3 1 -1 -4 -3)
1969/12/31/18:00:17.248,(-7 -69 -31 -11 -6 -1 -3 -1)
1969/12/31/18:00:17.248,(8 62 20 7 0 -1 0 2)
1969/12/31/18:00:17.249,(4 4 17 18 12 7 3 2)
1969/12/31/18:00:17.249,(-15 -62 -79 -36 -18 -10 -6 -6)
1969/12/31/18:00:17.268,(24 110 106 47 15 6 6 4)
1969/12/31/18:00:17.268,(-12 -77 -45 -14 -8 -5 -7 -3)
1969/12/31/18:00:17.268,(0 18 -12 -5 -1 -4 -3 -3)
1969/12/31/18:00:17.268,(2 -2 6 6 3 1 0 0)
1969/12/31/18:00:17.287,(-9 -31 -31 -15 -10 -5 -3 -1)
1969/12/31/18:00:17.287,(6 28 8 1 3 2 -1 0)
1969/12/31/18:00:17.287,(-18 -32 -2 -5 -2 -1 -5 -12)
1969/12/31/18:00:17.287,(0 -21 -8 -8 -5 -4 -1 2)
1969/12/31/18:00:17.319,(1 9 -6 -4 -2 0 0 2)
1969/12/31/18:00:17.319,(1 4 7 4 0 1 2 4)
1969/12/31/18:00:17.320,(-7 -26 -14 -10 -5 -1 -1 -3)
1969/12/31/18:00:17.320,(1 50 30 6 3 2 -4 -4)
