time,.data
1969/12/31/18:00:06.075,(5 32 13 -4 0 -2 0 0)
1969/12/31/18:00:06.075,(1 5 6 0 -5 -1 -1 0)
1969/12/31/18:00:06.076,(-7 -28 -32 -27 -12 -5 -4 -4)
1969/12/31/18:00:06.076,(4 22 17 9 4 -2 -4 -2)
1969/12/31/18:00:06.097,(-5 -22 -25 -10 -1 0 -2 -4)
1969/12/31/18:00:06.097,(-4 -7 -2 -36 -16 -5 -1 0)
1969/12/31/18:00:06.099,(2 19 2 25 7 3 0 3)
1969/12/31/18:00:06.099,(-13 -49 4 10 1 -2 -1 -4)
1969/12/31/18:00:06.112,(10 58 18 -11 7 4 0 2)
1969/12/31/18:00:06.112,(-1 0 30 16 2 -1 0 1)
1969/12/31/18:00:06.127,(6 30 2 42 7 0 -5 -7)
1969/12/31/18:00:06.127,(-10 -31 -34 -42 -16 -7 -4 -7)
1969/12/31/18:00:06.136,(0 -9 0 35 2 -2 0 2)
1969/12/31/18:00:06.136,(2 13 29 -26 11 11 8 3)
1969/12/31/18:00:06.137,(-7 -31 -18 7 0 1 8 8)
1969/12/31/18:00:06.137,(2 23 9 -10 -8 -3 -4 -4)
1969/12/31/18:00:06.159,(-7 -41 -52 -34 -14 -1 1 -1)
1969/12/31/18:00:06.159,(16 40 32 40 18 2 -2 4)
1969/12/31/18:00:06.161,(6 -21 29 13 19 13 11 13)
1969/12/31/18:00:06.161,(3 19 50 77 25 10 3 1)
1969/12/31/18:00:06.173,(-16 -56 -60 -99 -39 -16 -8 -7)
1969/12/31/18:00:06.173,(-20 -31 -61 -72 -33 -19 -11 -15)
1969/12/31/18:00:06.182,(10 40 38 57 14 2 4 4)
1969/12/31/18:00:06.182,(9 15 25 19 7 1 1 0)
1969/12/31/18:00:06.198,(16 71 101 90 30 11 7 6)
1969/12/31/18:00:06.198,(-3 -14 7 20 -1 -2 -2 0)
1969/12/31/18:00:06.199,(2 1 15 -23 -8 -3 -4 -3)
1969/12/31/18:00:06.199,(2 9 -10 1 -3 -1 3 6)
1969/12/31/18:00:06.220,(-8 -30 -38 -19 -4 0 -2 -4)
1969/12/31/18:00:06.220,(-5 -5 -19 -18 -9 0 -1 -4)
1969/12/31/18:00:06.223,(-8 -12 -38 -43 -16 -6 -8 -9)
1969/12/31/18:00:06.223,(4 6 2 16 9 5 2 4)
1969/12/31/18:00:06.235,(-8 -19 -17 -17 -5 -6 -6 -6)
1969/12/31/18:00:06.235,(-1 -2 -19 8 -1 -3 -4 -5)
1969/12/31/18:00:06.244,(2 9 18 13 2 -1 0 2)
1969/12/31/18:00:06.244,(-6 -18 -50 -88 -19 -7 -4 -3)
1969/12/31/18:00:06.260,(0 0 33 71 11 -1 0 1)
1969/12/31/18:00:06.260,(6 12 -6 15 7 5 3 3)
1969/12/31/18:00:06.261,(-4 -11 5 -7 -4 0 -2 -4)
1969/12/31/18:00:06.261,(2 5 -2 -10 -3 -4 0 -2)
1969/12/31/18:00:06.282,(-5 -5 -19 -20 -6 -7 -8 -6)
1969/12/31/18:00:06.282,(0 -1 3 14 4 4 13 3)
1969/12/31/18:00:06.284,(-2 -4 -5 -10 -2 0 -1 -5)
1969/12/31/18:00:06.284,(-3 -3 -18 -7 -6 -3 -3 -2)
1969/12/31/18:00:06.298,(3 6 10 2 1 6 8 2)
1969/12/31/18:00:06.298,(-1 -4 -1 14 3 -4 -8 -1)
1969/12/31/18:00:06.306,(-5 -6 -8 -27 -10 -5 -3 -2)
1969/12/31/18:00:06.306,(3 11 2 7 2 4 1 1)
1969/12/31/18:00:06.320,(0 -4 8 9 3 4 -5 -1)
1969/12/31/18:00:06.320,(-4 -4 4 -1 1 3 -4 2)
1969/12/31/18:00:06.327,(-6 -4 -14 -12 -4 2 7 -3)
1969/12/31/18:00:06.327,(0 1 4 8 1 0 13 2)
1969/12/31/18:00:06.344,(0 2 6 7 -1 -6 -21 -2)
1969/12/31/18:00:06.344,(7 3 -7 -3 -5 -5 -6 -3)
1969/12/31/18:00:06.346,(1 2 2 -3 1 -1 -5 -2)
1969/12/31/18:00:06.346,(-3 -6 -2 5 -2 -9 -6 0)
1969/12/31/18:00:06.358,(-12 -8 1 -3 3 16 31 3)
1969/12/31/18:00:06.358,(2 1 -3 -2 -1 -6 -17 -4)
1969/12/31/18:00:06.367,(-3 -3 -1 -3 -5 -5 -11 -3)
1969/12/31/18:00:06.367,(10 9 4 3 4 9 7 0)
1969/12/31/18:00:06.382,(2 1 -3 -4 -2 -6 -7 -3)
1969/12/31/18:00:06.382,(-9 -8 -1 1 -2 -1 13 2)
1969/12/31/18:00:06.389,(-1 -1 -4 -5 -2 -1 -8 -2)
1969/12/31/18:00:06.389,(2 -2 -4 0 1 4 -16 -1)
1969/12/31/18:00:06.406,(6 4 1 -2 -6 -27 -6 -2)
1969/12/31/18:00:06.406,(-1 -4 -5 1 1 7 0 -1)
1969/12/31/18:00:06.412,(-23 -14 -4 -10 -3 -7 -1 -8)
1969/12/31/18:00:06.412,(-2 2 -1 0 -1 11 -1 -1)
1969/12/31/18:00:06.420,(0 0 0 1 0 -3 -7 -3)
1969/12/31/18:00:06.420,(7 2 1 0 0 2 8 4)
1969/12/31/18:00:06.429,(15 3 -5 -3 -2 -8 0 -1)
1969/12/31/18:00:06.429,(-6 -3 2 2 1 3 -6 -8)
1969/12/31/18:00:06.444,(-19 -14 -1 2 2 7 10 1)
1969/12/31/18:00:06.444,(14 -2 -10 -9 -5 -6 -4 0)
1969/12/31/18:00:06.451,(5 8 5 0 1 2 1 2)
1969/12/31/18:00:06.451,(25 -3 -3 -1 -3 -5 3 12)
1969/12/31/18:00:06.468,(-33 -7 5 2 7 2 -13 -24)
1969/12/31/18:00:06.468,(-11 3 4 1 2 4 1 1)
1969/12/31/18:00:06.469,(1 6 3 2 1 1 4 4)
1969/12/31/18:00:06.469,(27 14 5 4 3 -6 -7 4)
1969/12/31/18:00:06.482,(26 14 2 3 -1 -1 14 7)
1969/12/31/18:00:06.482,(-49 -32 -14 -7 -6 -9 -13 -20)
1969/12/31/18:00:06.498,(9 8 3 1 2 6 11 13)
1969/12/31/18:00:06.498,(-21 -11 3 5 2 2 0 2)
1969/12/31/18:00:06.505,(45 27 5 -2 -2 -1 -4 12)
1969/12/31/18:00:06.505,(-25 2 3 -1 1 3 11 1)
1969/12/31/18:00:06.512,(-36 -41 -30 -19 -16 -1 -18 -35)
1969/12/31/18:00:06.512,(26 44 13 0 -4 -13 14 10)
1969/12/31/18:00:06.529,(-23 -2 6 5 6 16 3 1)
1969/12/31/18:00:06.529,(-8 -23 -20 -11 -7 -12 5 -7)
1969/12/31/18:00:06.531,(10 12 18 10 7 0 10 13)
1969/12/31/18:00:06.531,(-3 -18 -17 -12 -6 -2 -13 -1)
1969/12/31/18:00:06.553,(8 31 11 -1 -6 -4 -2 -3)
1969/12/31/18:00:06.553,(7 -5 -2 -1 1 -9 -15 -5)
1969/12/31/18:00:06.555,(-20 -11 -2 9 11 33 22 -4)
1969/12/31/18:00:06.555,(-34 -27 -2 0 -3 -42 -15 -14)
1969/12/31/18:00:06.567,(22 10 2 1 -6 -12 -11 13)
1969/12/31/18:00:06.567,(41 44 21 14 10 -3 -16 -15)
1969/12/31/18:00:06.574,(10 -6 -5 -7 -3 18 3 10)
1969/12/31/18:00:06.574,(31 19 -2 -4 -3 4 2 6)
1969/12/31/18:00:06.591,(-26 -30 -15 -8 4 30 33 5)
1969/12/31/18:00:06.591,(-26 -19 -4 -1 -8 -32 -43 0)
1969/12/31/18:00:06.593,(-1 12 0 -7 -13 -36 -31 -42)
1969/12/31/18:00:06.593,(-31 28 5 1 7 32 -7 -16)
1969/12/31/18:00:06.614,(-18 -77 -22 -3 0 -20 -24 -16)
1969/12/31/18:00:06.614,(21 28 2 -1 -1 20 32 9)
1969/12/31/18:00:06.615,(-29 -14 9 6 3 -12 4 15)
1969/12/31/18:00:06.615,(-19 -18 -7 -2 2 21 3 -9)
1969/12/31/18:00:06.637,(26 4 -1 -2 -6 -20 -21 -7)
1969/12/31/18:00:06.637,(-50 -18 -14 -4 -2 19 65 3)
1969/12/31/18:00:06.639,(27 5 -3 1 3 -8 -51 -2)
1969/12/31/18:00:06.639,(-38 -11 -3 -6 -9 -22 -7 -24)
1969/12/31/18:00:06.652,(33 43 14 13 18 48 34 19)
1969/12/31/18:00:06.652,(-34 -48 -15 -9 -16 -52 -77 -49)
1969/12/31/18:00:06.654,(-1 9 4 -1 0 2 -12 -9)
1969/12/31/18:00:06.654,(-41 -52 -28 -12 -8 -3 -7 12)
1969/12/31/18:00:06.676,(0 -9 2 2 8 12 12 -1)
1969/12/31/18:00:06.676,(-19 -4 -12 -11 -15 -14 21 -17)
1969/12/31/18:00:06.677,(21 37 7 -4 -1 -1 3 28)
1969/12/31/18:00:06.677,(63 -23 -9 -2 -4 3 14 60)
1969/12/31/18:00:06.689,(-14 13 -6 -11 -10 -13 -66 -95)
1969/12/31/18:00:06.689,(-23 -28 4 4 1 -12 -5 5)
1969/12/31/18:00:06.699,(-5 -1 -5 -1 5 46 86 11)
1969/12/31/18:00:06.699,(4 33 18 12 6 -19 -2 9)
1969/12/31/18:00:06.714,(-20 15 4 2 0 20 1 4)
1969/12/31/18:00:06.714,(105 2 -2 4 5 -3 -2 20)
1969/12/31/18:00:06.716,(26 -4 1 3 4 17 13 0)
1969/12/31/18:00:06.716,(44 34 7 -1 -2 19 26 12)
1969/12/31/18:00:06.738,(-51 -44 -26 -18 -16 -47 -3 -28)
1969/12/31/18:00:06.738,(-30 13 5 -2 6 11 -51 -63)
1969/12/31/18:00:06.739,(-22 -24 -2 3 -6 -28 -16 10)
1969/12/31/18:00:06.739,(-38 -28 -6 0 1 14 -26 -81)
1969/12/31/18:00:06.751,(72 37 3 -4 -14 -17 0 46)
1969/12/31/18:00:06.751,(4 -3 4 5 14 38 -11 52)
1969/12/31/18:00:06.760,(0 2 -8 -7 -3 21 29 -28)
1969/12/31/18:00:06.760,(-16 5 13 10 6 -18 -5 -1)
1969/12/31/18:00:06.776,(-76 -64 -24 -8 -4 -7 3 43)
1969/12/31/18:00:06.776,(39 30 0 -6 -10 6 -1 -31)
1969/12/31/18:00:06.778,(-48 -3 0 -5 -4 -17 -31 -38)
1969/12/31/18:00:06.778,(24 13 2 -3 -8 -31 -1 22)
1969/12/31/18:00:06.799,(-22 -8 5 5 9 38 9 -30)
1969/12/31/18:00:06.799,(34 3 -4 3 4 24 65 53)
1969/12/31/18:00:06.800,(-3 14 2 -3 1 -4 -15 -9)
1969/12/31/18:00:06.800,(-46 -44 -19 -12 -14 -55 -35 -45)
1969/12/31/18:00:06.813,(36 16 4 3 5 15 32 46)
1969/12/31/18:00:06.813,(11 16 13 4 -1 -14 -2 13)
1969/12/31/18:00:06.822,(-43 -41 -4 5 0 -15 -5 22)
1969/12/31/18:00:06.822,(22 50 16 8 11 44 35 -18)
1969/12/31/18:00:06.837,(-66 -40 -21 -16 -14 -2 -18 -20)
1969/12/31/18:00:06.837,(7 44 22 13 9 27 15 -2)
1969/12/31/18:00:06.839,(-63 -33 -18 -11 -13 -40 -37 -72)
1969/12/31/18:00:06.839,(14 3 3 2 2 15 33 26)
1969/12/31/18:00:06.861,(0 -2 3 1 0 -16 3 35)
1969/12/31/18:00:06.861,(-29 -4 3 3 7 18 14 -24)
1969/12/31/18:00:06.862,(102 64 18 10 4 4 7 75)
1969/12/31/18:00:06.862,(37 -3 -13 -8 -7 -3 -20 20)
1969/12/31/18:00:06.874,(18 -12 -10 -10 -13 -16 8 -33)
1969/12/31/18:00:06.874,(-25 -15 -3 -2 1 -7 -15 3)
1969/12/31/18:00:06.900,(25 5 5 2 1 8 31 21)
1969/12/31/18:00:06.900,(26 16 14 8 6 7 18 38)
1969/12/31/18:00:06.900,(12 -14 -3 4 9 8 -15 -11)
1969/12/31/18:00:06.901,(-17 -1 3 -1 -9 -46 -17 -44)
1969/12/31/18:00:06.902,(10 -6 -7 -3 2 12 -18 34)
1969/12/31/18:00:06.902,(70 35 7 1 2 17 45 95)
1969/12/31/18:00:06.923,(-38 1 10 1 -4 -25 -48 -71)
1969/12/31/18:00:06.923,(8 -12 -3 3 9 22 5 1)
1969/12/31/18:00:06.924,(-25 28 6 -1 -1 12 6 -36)
1969/12/31/18:00:06.924,(64 -59 -22 -4 -10 -3 11 56)
1969/12/31/18:00:06.936,(20 18 2 -1 0 3 -5 14)
1969/12/31/18:00:06.936,(-26 -9 -12 -8 -11 -15 -15 -13)
1969/12/31/18:00:06.945,(28 3 -4 -8 -3 -16 -5 -33)
1969/12/31/18:00:06.945,(-49 -35 -20 -12 -8 8 -28 -44)
1969/12/31/18:00:06.961,(-9 19 22 19 15 2 11 -6)
1969/12/31/18:00:06.961,(69 5 -5 -11 -11 1 16 54)
1969/12/31/18:00:06.963,(-16 8 4 4 4 2 53 -10)
1969/12/31/18:00:06.963,(-41 7 -4 -9 -5 5 -42 -26)
1969/12/31/18:00:06.984,(15 44 10 4 3 -17 -44 -22)
1969/12/31/18:00:06.984,(-23 -61 -13 -5 -6 -8 -14 -11)
1969/12/31/18:00:06.986,(18 -11 -4 -2 4 1 16 25)
1969/12/31/18:00:06.986,(-34 26 24 16 27 5 7 -15)
1969/12/31/18:00:06.998,(-15 -6 -5 -2 -19 -4 -5 5)
1969/12/31/18:00:06.998,(-43 -18 -10 -4 -8 -2 -12 -35)
1969/12/31/18:00:07.007,(36 -9 -13 -3 1 7 22 60)
1969/12/31/18:00:07.007,(-26 2 -3 -7 -4 -6 -18 -27)
1969/12/31/18:00:07.022,(25 21 5 -5 3 16 40 46)
1969/12/31/18:00:07.022,(-19 27 21 17 13 7 25 50)
1969/12/31/18:00:07.024,(74 3 -4 -8 -17 -21 -39 -36)
1969/12/31/18:00:07.024,(-5 25 5 1 0 -11 -11 -14)
1969/12/31/18:00:07.046,(-26 -43 -8 0 5 12 18 22)
1969/12/31/18:00:07.046,(15 19 11 6 6 0 9 10)
1969/12/31/18:00:07.047,(28 12 9 8 2 -10 -23 22)
1969/12/31/18:00:07.047,(-27 -1 9 12 6 4 30 30)
1969/12/31/18:00:07.059,(12 -11 -16 -13 -11 -10 -29 -41)
1969/12/31/18:00:07.059,(83 42 3 -4 3 4 74 31)
1969/12/31/18:00:07.069,(-8 22 6 1 -1 4 6 35)
1969/12/31/18:00:07.069,(-5 -54 -6 5 10 14 3 31)
1969/12/31/18:00:07.083,(-66 -23 -8 -1 -5 -43 -7 -45)
1969/12/31/18:00:07.083,(-9 11 6 -2 -7 15 -3 2)
1969/12/31/18:00:07.090,(-98 -60 -20 10 37 16 -13 -62)
1969/12/31/18:00:07.090,(28 2 -12 -21 -52 -70 -8 -8)
1969/12/31/18:00:07.108,(33 10 -3 -14 -17 60 18 13)
1969/12/31/18:00:07.108,(-4 2 3 2 24 15 3 24)
1969/12/31/18:00:07.109,(-64 -18 -9 -21 -33 -11 -23 -45)
1969/12/31/18:00:07.109,(35 27 10 6 28 20 -17 -28)
1969/12/31/18:00:07.121,(51 4 1 8 7 -19 23 50)
1969/12/31/18:00:07.121,(-15 -63 -37 -18 -28 -24 -6 62)
1969/12/31/18:00:07.130,(-9 -21 -10 -7 -5 41 4 -26)
1969/12/31/18:00:07.130,(-17 5 5 17 14 -11 -10 -23)
1969/12/31/18:00:07.146,(41 39 8 12 15 -1 12 -6)
1969/12/31/18:00:07.146,(13 21 21 34 37 6 3 21)
1969/12/31/18:00:07.148,(4 -4 -5 -36 -66 -38 -19 -3)
1969/12/31/18:00:07.148,(-29 -9 -23 -40 -24 6 11 -18)
1969/12/31/18:00:07.169,(-4 6 12 14 -17 -48 0 -2)
1969/12/31/18:00:07.169,(-29 0 14 38 54 19 -19 -67)
1969/12/31/18:00:07.170,(-14 -13 -8 -13 -13 23 -10 -7)
1969/12/31/18:00:07.170,(-10 1 -3 -14 8 7 8 -22)
1969/12/31/18:00:07.183,(7 6 -1 -8 2 6 5 4)
1969/12/31/18:00:07.183,(-23 -25 -5 13 -15 -70 -32 -28)
1969/12/31/18:00:07.192,(21 34 14 9 13 16 15 17)
1969/12/31/18:00:07.192,(11 -1 -1 -14 -32 24 -1 6)
1969/12/31/18:00:07.207,(25 -18 -7 -4 -8 18 15 74)
1969/12/31/18:00:07.207,(10 21 3 21 35 0 -24 -47)
1969/12/31/18:00:07.209,(5 4 10 11 5 -10 2 -19)
1969/12/31/18:00:07.209,(32 7 7 1 -6 -13 -14 33)
1969/12/31/18:00:07.238,(-4 22 -1 -19 -21 4 44 3)
1969/12/31/18:00:07.238,(8 -3 -6 -24 -33 29 -23 -14)
1969/12/31/18:00:07.240,(-13 -12 2 22 28 -26 -13 -12)
1969/12/31/18:00:07.240,(-34 -2 9 59 73 -3 -30 -50)
1969/12/31/18:00:07.244,(-5 20 11 -10 -19 -1 -6 -39)
1969/12/31/18:00:07.244,(1 -16 -22 -44 -39 5 4 -25)
1969/12/31/18:00:07.254,(14 1 -3 -4 9 15 4 44)
1969/12/31/18:00:07.254,(18 -13 -5 -5 -10 -5 27 49)
1969/12/31/18:00:07.269,(-25 -6 7 31 44 15 -28 -24)
1969/12/31/18:00:07.269,(-18 -83 -62 -28 -36 1 14 16)
1969/12/31/18:00:07.271,(29 42 -4 -23 -23 -32 0 40)
1969/12/31/18:00:07.271,(-48 82 82 44 10 7 -5 -86)
1969/12/31/18:00:07.292,(0 -23 -6 3 9 -4 0 14)
1969/12/31/18:00:07.292,(8 25 14 1 1 -10 -24 -4)
1969/12/31/18:00:07.309,(-7 -102 -94 -22 -8 -15 10 -2)
1969/12/31/18:00:07.309,(-21 3 -24 -8 -6 6 -4 -37)
1969/12/31/18:00:07.309,(18 71 67 22 27 11 -5 19)
1969/12/31/18:00:07.309,(-41 -10 -9 -9 -16 3 6 -2)
1969/12/31/18:00:07.315,(6 21 31 6 -20 -8 -9 -22)
1969/12/31/18:00:07.315,(-17 -36 -41 -30 -30 -13 1 6)
1969/12/31/18:00:07.330,(55 5 -23 -5 -2 -39 -18 -24)
1969/12/31/18:00:07.330,(-3 11 18 17 26 19 -4 -8)
1969/12/31/18:00:07.337,(-46 -8 -1 15 -18 -34 5 -32)
1969/12/31/18:00:07.337,(-50 -88 -42 -31 -41 20 12 -3)
1969/12/31/18:00:07.354,(-23 -1 -28 -37 -9 18 -6 -5)
1969/12/31/18:00:07.354,(27 12 -6 -1 14 8 12 24)
1969/12/31/18:00:07.355,(-39 -95 -95 -43 -24 -23 -19 -18)
1969/12/31/18:00:07.355,(58 102 102 57 27 -1 2 0)
1969/12/31/18:00:07.368,(-8 -2 61 42 4 -14 -19 -28)
1969/12/31/18:00:07.368,(-15 -25 -49 -20 0 4 0 -7)
1969/12/31/18:00:07.377,(2 37 69 34 25 12 1 14)
1969/12/31/18:00:07.377,(11 -107 -125 -49 -25 -21 -4 1)
1969/12/31/18:00:07.391,(-27 -84 -42 -7 11 9 16 23)
1969/12/31/18:00:07.391,(57 62 -24 0 -7 -6 8 45)
1969/12/31/18:00:07.399,(108 102 109 48 19 27 24 87)
1969/12/31/18:00:07.399,(20 -24 -12 1 10 -26 -33 -10)
1969/12/31/18:00:07.416,(-70 16 23 4 45 37 22 -24)
1969/12/31/18:00:07.416,(-27 -56 -40 -39 -36 12 25 -10)
1969/12/31/18:00:07.417,(-42 -43 -44 0 2 -26 -27 -72)
1969/12/31/18:00:07.417,(1 -41 -48 -36 -10 9 1 -3)
1969/12/31/18:00:07.439,(-7 -112 -109 -30 -6 -10 -13 15)
1969/12/31/18:00:07.439,(9 4 -37 -8 14 -15 1 43)
1969/12/31/18:00:07.441,(12 127 113 71 30 23 2 15)
1969/12/31/18:00:07.441,(6 -50 -19 11 2 -6 -3 9)
1969/12/31/18:00:07.454,(-25 -100 -113 -52 -50 -10 4 -13)
1969/12/31/18:00:07.454,(1 106 100 45 9 -10 -11 -18)
1969/12/31/18:00:07.456,(-10 -58 -41 -20 2 1 -11 -32)
1969/12/31/18:00:07.456,(-16 84 32 28 34 4 20 9)
1969/12/31/18:00:07.478,(4 -33 16 35 -23 -40 -27 -44)
1969/12/31/18:00:07.478,(4 -33 -78 -48 -3 73 21 -5)
1969/12/31/18:00:07.479,(58 38 7 -12 7 -2 30 95)
1969/12/31/18:00:07.479,(-40 32 89 20 9 35 -10 -61)
1969/12/31/18:00:07.500,(-22 -43 -28 -3 9 -33 -4 13)
1969/12/31/18:00:07.500,(-11 -93 -64 -40 -58 -43 -34 -57)
1969/12/31/18:00:07.502,(-6 40 41 26 4 13 -6 -42)
1969/12/31/18:00:07.502,(69 -63 -61 -2 -3 -9 19 82)
1969/12/31/18:00:07.516,(-18 17 -55 6 38 18 -3 17)
1969/12/31/18:00:07.516,(15 34 104 43 0 2 8 14)
1969/12/31/18:00:07.518,(-18 -128 -128 -83 -14 2 3 25)
1969/12/31/18:00:07.518,(1 127 86 50 -4 -19 -6 -45)
1969/12/31/18:00:07.539,(21 -51 28 41 24 34 17 9)
1969/12/31/18:00:07.539,(35 -96 -79 -15 21 7 -3 5)
1969/12/31/18:00:07.541,(-84 -72 -63 -27 -11 -26 -54 -91)
1969/12/31/18:00:07.541,(5 -56 -36 -8 12 8 0 1)
1969/12/31/18:00:07.562,(39 71 -10 -25 -17 -5 -10 -5)
1969/12/31/18:00:07.562,(68 127 108 35 -29 9 64 65)
1969/12/31/18:00:07.564,(-57 -32 -17 -18 -14 -14 -21 -13)
1969/12/31/18:00:07.564,(-31 -128 -125 -55 -12 -60 33 66)
1969/12/31/18:00:07.578,(17 93 -8 -25 8 94 -13 9)
1969/12/31/18:00:07.578,(-45 -18 38 39 14 -11 -4 -35)
1969/12/31/18:00:07.584,(81 98 24 36 23 19 33 32)
1969/12/31/18:00:07.584,(-13 -25 14 10 0 -28 -17 7)
1969/12/31/18:00:07.602,(-60 -112 -100 -41 -30 -28 -15 -23)
1969/12/31/18:00:07.602,(-103 9 0 -2 -2 -27 -36 -76)
1969/12/31/18:00:07.604,(37 75 56 11 -5 15 23 35)
1969/12/31/18:00:07.604,(-59 -90 -122 -56 5 22 3 8)
1969/12/31/18:00:07.624,(-34 127 81 25 12 17 25 -46)
1969/12/31/18:00:07.624,(-19 -68 -70 4 12 -1 -24 -61)
1969/12/31/18:00:07.626,(-26 -118 -125 -36 -9 -10 -22 -29)
1969/12/31/18:00:07.626,(68 127 127 88 51 7 -52 -51)
1969/12/31/18:00:07.638,(-37 -128 -94 -9 -30 -17 9 5)
1969/12/31/18:00:07.638,(30 -24 -21 -9 -5 -20 13 68)
1969/12/31/18:00:07.647,(37 -74 -35 3 7 47 26 27)
1969/12/31/18:00:07.647,(-5 -54 -47 -36 7 41 42 39)
1969/12/31/18:00:07.663,(61 -27 -5 -7 -3 -6 -2 51)
1969/12/31/18:00:07.663,(-17 127 110 23 -5 -17 -20 -34)
1969/12/31/18:00:07.664,(-9 9 7 -1 9 -18 -18 -4)
1969/12/31/18:00:07.664,(-89 -89 -87 -30 -56 -34 -14 -46)
1969/12/31/18:00:07.685,(60 114 57 22 -2 -2 16 -8)
1969/12/31/18:00:07.685,(0 -2 -37 -14 17 18 -14 17)
1969/12/31/18:00:07.688,(0 121 96 54 42 13 10 3)
1969/12/31/18:00:07.688,(-17 -27 -5 -9 -23 9 -5 -50)
1969/12/31/18:00:07.700,(6 -73 -42 -18 -2 0 -6 6)
1969/12/31/18:00:07.700,(-40 -128 -128 -32 32 -14 -19 -10)
1969/12/31/18:00:07.709,(3 96 100 17 -39 -8 -28 -28)
1969/12/31/18:00:07.709,(57 75 74 47 -11 -52 4 36)
1969/12/31/18:00:07.725,(42 -73 -24 34 52 40 -6 8)
1969/12/31/18:00:07.725,(4 -61 -40 -50 -31 54 12 3)
1969/12/31/18:00:07.726,(-41 -103 -70 -30 9 7 23 51)
1969/12/31/18:00:07.726,(-19 -79 -57 -24 -5 -5 -4 -10)
1969/12/31/18:00:07.755,(-35 -33 6 -11 -5 -30 -17 -33)
1969/12/31/18:00:07.755,(61 93 84 44 20 -20 6 59)
1969/12/31/18:00:07.756,(45 50 55 63 27 25 19 -1)
1969/12/31/18:00:07.756,(-16 -70 -48 -16 -12 16 -9 -2)
1969/12/31/18:00:07.762,(26 21 8 14 -4 -28 3 12)
1969/12/31/18:00:07.762,(-77 -128 -106 -44 -20 -3 -3 -12)
1969/12/31/18:00:07.771,(76 39 -36 -12 9 -10 20 57)
1969/12/31/18:00:07.771,(-47 90 92 18 10 37 -11 -26)
1969/12/31/18:00:07.786,(4 2 -6 -28 -20 -15 14 33)
1969/12/31/18:00:07.786,(-2 -13 -10 23 -10 -13 9 -6)
1969/12/31/18:00:07.792,(-35 -119 -98 -45 -29 -23 -12 -10)
1969/12/31/18:00:07.792,(28 37 4 8 29 17 12 23)
1969/12/31/18:00:07.809,(21 90 92 22 -4 5 7 -4)
1969/12/31/18:00:07.809,(-14 17 -41 -22 1 -9 -12 -25)
1969/12/31/18:00:07.811,(-9 -34 12 -8 -36 -2 7 -16)
1969/12/31/18:00:07.811,(4 -91 -68 -17 -9 -13 -21 2)
1969/12/31/18:00:07.823,(-50 -61 -34 -33 -44 -29 2 -15)
1969/12/31/18:00:07.823,(53 -82 -46 26 44 -4 -7 7)
1969/12/31/18:00:07.840,(19 26 44 12 -1 -7 3 18)
1969/12/31/18:00:07.840,(86 127 105 22 3 5 -6 -30)
1969/12/31/18:00:07.848,(-16 -47 -13 27 31 1 2 26)
1969/12/31/18:00:07.848,(-46 -92 -64 -38 -38 -18 -25 -52)
1969/12/31/18:00:07.849,(-63 -20 -40 -8 39 62 11 -32)
1969/12/31/18:00:07.849,(57 85 75 23 -30 12 15 24)
1969/12/31/18:00:07.871,(30 -83 -62 -18 -14 -28 -19 12)
1969/12/31/18:00:07.871,(-11 -13 -4 32 35 15 9 -1)
1969/12/31/18:00:07.873,(-32 -33 -17 -33 -36 -27 -35 -48)
1969/12/31/18:00:07.873,(-14 -76 -92 -27 -2 16 31 42)
1969/12/31/18:00:07.885,(-38 54 48 13 16 21 -20 -64)
1969/12/31/18:00:07.885,(24 111 106 31 -20 -30 1 20)
1969/12/31/18:00:07.894,(-7 -118 -74 2 30 12 6 20)
1969/12/31/18:00:07.894,(-32 33 -37 15 39 16 24 -30)
1969/12/31/18:00:07.910,(6 -85 -62 -47 -55 -2 -27 13)
1969/12/31/18:00:07.910,(28 14 -14 -2 5 -9 14 25)
1969/12/31/18:00:07.911,(32 124 82 35 11 -8 -18 -36)
1969/12/31/18:00:07.911,(-32 -57 -1 3 -6 22 13 10)
1969/12/31/18:00:07.932,(32 -43 -46 -5 19 -13 -5 10)
1969/12/31/18:00:07.932,(-29 -75 -75 -48 -17 -1 -12 -26)
1969/12/31/18:00:07.934,(20 -1 7 14 3 14 5 24)
1969/12/31/18:00:07.934,(15 42 -30 -28 -38 -26 -16 21)
1969/12/31/18:00:07.947,(-13 -17 -42 -9 -1 -2 4 21)
1969/12/31/18:00:07.947,(41 123 101 55 25 27 6 0)
1969/12/31/18:00:07.956,(-40 -55 5 -33 -45 -18 26 25)
1969/12/31/18:00:07.956,(31 -68 -98 -52 -3 -10 -15 1)
1969/12/31/18:00:07.971,(41 127 127 94 21 13 10 5)
1969/12/31/18:00:07.971,(-39 -128 -128 -54 -16 -24 -15 -15)
1969/12/31/18:00:07.972,(-21 -62 -84 -15 11 1 -4 -11)
1969/12/31/18:00:07.972,(-1 78 92 65 21 3 0 2)
1969/12/31/18:00:07.995,(-42 -105 -102 -42 -11 -12 0 -34)
1969/12/31/18:00:07.995,(79 127 107 47 15 11 9 40)
1969/12/31/18:00:08.000,(-26 -97 -57 1 12 -8 -24 -74)
1969/12/31/18:00:08.000,(6 -86 -59 -56 -51 -10 -17 -1)
1969/12/31/18:00:08.008,(-10 115 104 30 13 10 9 -5)
1969/12/31/18:00:08.008,(-29 -15 15 -3 -15 -25 -12 -14)
1969/12/31/18:00:08.018,(-10 -75 -28 -15 -3 -32 -11 9)
1969/12/31/18:00:08.018,(-28 -128 -128 -34 21 45 16 8)
1969/12/31/18:00:08.032,(1 88 -6 0 -30 -9 -3 -9)
1969/12/31/18:00:08.032,(6 -55 0 13 -14 14 29 15)
1969/12/31/18:00:08.033,(-19 -85 -121 -62 -12 -36 -29 4)
1969/12/31/18:00:08.033,(45 107 127 107 44 16 14 -3)
1969/12/31/18:00:08.055,(-66 -128 -128 -59 -28 -30 -32 -39)
1969/12/31/18:00:08.055,(-28 -16 -25 6 31 14 -11 -33)
1969/12/31/18:00:08.056,(15 -29 -16 6 -15 3 28 42)
1969/12/31/18:00:08.056,(-43 -38 -13 -28 -10 -27 -42 -32)
1969/12/31/18:00:08.078,(16 26 43 4 -22 0 6 22)
1969/12/31/18:00:08.078,(42 -22 -40 -14 9 34 33 30)
1969/12/31/18:00:08.079,(-35 107 115 37 -15 -15 -6 -29)
1969/12/31/18:00:08.079,(-6 -31 -17 -26 -21 -39 -20 -45)
1969/12/31/18:00:08.094,(5 -37 -35 10 36 21 28 43)
1969/12/31/18:00:08.094,(-50 -128 -92 -50 -27 4 -1 10)
1969/12/31/18:00:08.095,(86 121 103 43 10 -6 -8 41)
1969/12/31/18:00:08.095,(35 110 112 49 26 -2 10 6)
1969/12/31/18:00:08.116,(-11 -63 -20 15 39 56 5 -16)
1969/12/31/18:00:08.116,(-68 -94 -87 -73 -57 -1 0 -17)
1969/12/31/18:00:08.117,(12 46 -54 -33 -7 17 31 35)
1969/12/31/18:00:08.117,(-9 -34 -32 4 3 -38 -18 -17)
1969/12/31/18:00:08.140,(-10 -3 63 24 23 -17 -19 -21)
1969/12/31/18:00:08.140,(58 108 125 61 17 14 22 31)
1969/12/31/18:00:08.141,(-66 -128 -86 -44 -33 -26 -19 -51)
1969/12/31/18:00:08.141,(10 31 -91 -41 3 17 14 30)
1969/12/31/18:00:08.155,(36 36 49 48 18 12 17 33)
1969/12/31/18:00:08.155,(-24 -71 -55 -26 -30 -23 -30 -38)
1969/12/31/18:00:08.156,(-45 -92 -43 12 31 -8 -32 -51)
1969/12/31/18:00:08.156,(-15 -128 -127 -69 -48 -21 -12 -5)
1969/12/31/18:00:08.179,(16 90 82 18 22 29 17 21)
1969/12/31/18:00:08.179,(35 46 39 31 5 -14 4 35)
1969/12/31/18:00:08.180,(-30 -96 -33 -10 -8 -2 -5 -14)
1969/12/31/18:00:08.180,(-15 -32 -26 -11 -11 3 -11 -9)
1969/12/31/18:00:08.202,(19 -2 -45 -23 -11 -11 -16 -5)
1969/12/31/18:00:08.202,(2 101 69 19 19 5 8 21)
1969/12/31/18:00:08.203,(14 49 58 36 4 -28 -7 -19)
1969/12/31/18:00:08.203,(-39 -75 -34 -15 -9 58 27 24)
1969/12/31/18:00:08.217,(39 28 -23 -22 -26 -18 16 18)
1969/12/31/18:00:08.217,(3 -58 -37 -6 18 -8 -24 -19)
1969/12/31/18:00:08.218,(20 3 8 -7 -6 7 -21 -18)
1969/12/31/18:00:08.218,(1 54 32 13 19 -15 -1 11)
1969/12/31/18:00:08.241,(-12 51 59 25 0 4 -8 -44)
1969/12/31/18:00:08.241,(45 1 -32 -3 7 10 15 42)
1969/12/31/18:00:08.241,(-20 -32 -38 -9 -10 6 4 -7)
1969/12/31/18:00:08.241,(-5 -41 37 21 21 -7 4 4)
1969/12/31/18:00:08.263,(0 39 -10 -5 39 26 13 39)
1969/12/31/18:00:08.263,(-14 -64 -16 -18 -15 -17 5 16)
1969/12/31/18:00:08.263,(15 127 90 41 -22 -9 -1 -24)
1969/12/31/18:00:08.263,(35 -67 -60 -12 16 16 4 47)
1969/12/31/18:00:08.279,(-7 -80 -52 -37 -43 -21 -8 -29)
1969/12/31/18:00:08.279,(-26 -61 -23 -10 1 -28 -32 -54)
1969/12/31/18:00:08.280,(14 52 48 29 27 5 28 36)
1969/12/31/18:00:08.280,(-1 62 17 12 29 6 -1 -10)
1969/12/31/18:00:08.301,(18 34 27 -13 -63 -22 8 9)
1969/12/31/18:00:08.301,(-42 -76 -56 -26 12 34 -20 -35)
1969/12/31/18:00:08.302,(5 27 -40 -7 24 17 8 9)
1969/12/31/18:00:08.302,(19 84 112 44 -5 -2 4 21)
1969/12/31/18:00:08.326,(2 50 7 -5 4 -4 -2 -6)
1969/12/31/18:00:08.326,(-27 -39 -9 -1 -9 -22 -5 -18)
1969/12/31/18:00:08.327,(-12 -23 -83 -32 -12 -23 -13 9)
1969/12/31/18:00:08.327,(10 -25 2 12 10 24 -1 13)
1969/12/31/18:00:08.340,(-31 -67 -35 -7 1 -5 -1 -6)
1969/12/31/18:00:08.340,(29 64 60 22 5 -6 7 -13)
1969/12/31/18:00:08.341,(-20 -107 -74 -41 -34 17 -18 -4)
1969/12/31/18:00:08.341,(-27 77 43 -12 -15 -21 -4 -42)
1969/12/31/18:00:08.364,(-39 -76 -31 16 33 5 -17 -42)
1969/12/31/18:00:08.364,(18 8 -18 -4 -8 -9 2 15)
1969/12/31/18:00:08.364,(-17 -59 11 5 -5 -5 -25 -32)
1969/12/31/18:00:08.364,(-28 -9 0 -17 -25 -21 -9 -9)
1969/12/31/18:00:08.387,(-17 -113 -96 -23 30 9 -4 -3)
1969/12/31/18:00:08.387,(33 127 101 17 -47 9 19 15)
1969/12/31/18:00:08.388,(33 22 -11 8 1 -13 18 12)
1969/12/31/18:00:08.388,(12 -4 14 17 -12 -11 -1 1)
1969/12/31/18:00:08.402,(-45 -92 -94 -45 -6 -1 -7 1)
1969/12/31/18:00:08.402,(0 57 54 46 42 10 -1 -12)
1969/12/31/18:00:08.403,(33 80 76 10 -6 10 13 16)
1969/12/31/18:00:08.403,(9 -80 -64 -23 4 6 9 14)
1969/12/31/18:00:08.425,(27 40 36 34 26 -7 7 9)
1969/12/31/18:00:08.425,(-2 -9 -4 -11 -46 -15 -17 3)
1969/12/31/18:00:08.426,(0 23 38 37 88 45 -3 -4)
1969/12/31/18:00:08.426,(-83 -87 -74 -52 -50 -39 -5 -40)
1969/12/31/18:00:08.448,(-4 -18 -93 -44 -17 8 2 18)
1969/12/31/18:00:08.448,(-19 -41 -15 20 52 33 5 -45)
1969/12/31/18:00:08.449,(-6 1 -1 -22 -52 -28 -21 1)
1969/12/31/18:00:08.449,(-48 -111 -96 -17 5 2 17 9)
1969/12/31/18:00:08.465,(32 44 19 18 -9 -10 -1 12)
1969/12/31/18:00:08.465,(33 86 33 6 -10 -14 2 9)
1969/12/31/18:00:08.466,(14 -93 -47 14 24 9 14 19)
1969/12/31/18:00:08.466,(-35 -96 -38 -15 -26 -6 -16 -25)
1969/12/31/18:00:08.486,(29 30 27 -12 -17 2 20 49)
1969/12/31/18:00:08.486,(-47 -75 -42 -12 36 22 -2 8)
1969/12/31/18:00:08.487,(7 29 41 8 -17 -1 7 4)
1969/12/31/18:00:08.487,(8 -3 -46 -15 -13 -6 -8 -7)
1969/12/31/18:00:08.510,(1 54 63 32 9 -22 -8 -13)
1969/12/31/18:00:08.510,(1 -24 -13 -7 7 9 -9 -30)
1969/12/31/18:00:08.511,(29 -33 -42 -28 -1 16 15 36)
1969/12/31/18:00:08.511,(-11 -59 -17 -2 0 -10 -4 -14)
1969/12/31/18:00:08.525,(22 99 82 27 6 5 -10 2)
1969/12/31/18:00:08.525,(18 22 43 41 18 -20 2 5)
1969/12/31/18:00:08.526,(-18 -71 -93 -41 -50 -6 5 -2)
1969/12/31/18:00:08.526,(54 124 85 28 19 9 1 3)
1969/12/31/18:00:08.548,(16 18 44 -4 -21 -16 -3 -5)
1969/12/31/18:00:08.548,(-26 -64 -61 -29 -21 -36 -26 -4)
1969/12/31/18:00:08.549,(-30 -76 -72 10 53 27 40 26)
1969/12/31/18:00:08.549,(10 119 103 44 -2 15 -7 -8)
1969/12/31/18:00:08.572,(-32 -128 -95 -12 6 0 6 -6)
1969/12/31/18:00:08.572,(11 54 8 -10 -52 -21 1 86)
1969/12/31/18:00:08.573,(-24 -32 0 -6 8 7 -5 -56)
1969/12/31/18:00:08.573,(-33 -110 -128 -54 -21 -26 -14 -2)
1969/12/31/18:00:08.587,(25 117 127 78 19 23 14 15)
1969/12/31/18:00:08.587,(41 16 -9 5 10 5 2 -17)
1969/12/31/18:00:08.588,(37 -66 -21 -5 -6 -15 -17 15)
1969/12/31/18:00:08.588,(-28 -57 -7 -6 -2 -30 -11 -6)
1969/12/31/18:00:08.611,(-34 -120 -128 -33 17 13 -12 -22)
1969/12/31/18:00:08.611,(8 78 81 -1 -33 40 24 -13)
1969/12/31/18:00:08.612,(0 -32 -29 -10 -3 -1 13 30)
1969/12/31/18:00:08.612,(71 67 27 25 27 33 3 10)
1969/12/31/18:00:08.635,(-35 -128 -118 -36 -24 -40 -12 15)
1969/12/31/18:00:08.635,(-10 65 50 17 53 24 3 7)
1969/12/31/18:00:08.636,(6 80 20 24 3 0 -2 -26)
1969/12/31/18:00:08.636,(-15 12 8 11 7 8 0 0)
1969/12/31/18:00:08.649,(9 -87 -43 -30 -19 -14 -16 -26)
1969/12/31/18:00:08.649,(24 77 77 35 19 4 10 5)
1969/12/31/18:00:08.650,(-29 -52 -30 -17 -15 -26 -19 30)
1969/12/31/18:00:08.650,(38 19 31 3 1 23 33 55)
1969/12/31/18:00:08.672,(-4 -33 -12 -22 -24 -19 -22 -31)
1969/12/31/18:00:08.672,(-15 -128 -100 -19 16 4 -6 -8)
1969/12/31/18:00:08.672,(20 127 127 61 16 35 21 11)
1969/12/31/18:00:08.672,(-23 -56 -93 -24 -27 -10 -18 -22)
1969/12/31/18:00:08.695,(52 127 101 33 11 -2 14 19)
1969/12/31/18:00:08.695,(-33 -128 -101 -33 -23 -32 -7 4)
1969/12/31/18:00:08.696,(-14 -65 -52 -24 2 -9 -21 -39)
1969/12/31/18:00:08.696,(46 117 127 70 32 16 18 8)
1969/12/31/18:00:08.710,(49 25 25 1 -42 1 14 61)
1969/12/31/18:00:08.710,(33 -31 -71 -13 -22 -44 -9 12)
1969/12/31/18:00:08.710,(-33 -1 1 -28 -8 33 -10 -49)
1969/12/31/18:00:08.711,(-9 -103 -30 3 19 2 4 19)
1969/12/31/18:00:08.734,(32 76 47 6 0 17 19 -22)
1969/12/31/18:00:08.734,(12 114 81 23 1 -10 -30 -19)
1969/12/31/18:00:08.741,(1 -53 -34 -22 -16 -21 17 27)
1969/12/31/18:00:08.741,(22 1 -6 -13 -9 2 -5 17)
1969/12/31/18:00:08.757,(-51 -97 -59 -9 12 12 0 -11)
1969/12/31/18:00:08.757,(-24 -126 -99 -32 4 10 25 31)
1969/12/31/18:00:08.758,(-9 65 57 4 -11 -15 -23 -46)
1969/12/31/18:00:08.758,(-19 -38 -32 8 15 -34 -10 -10)
1969/12/31/18:00:08.772,(71 81 98 44 14 8 17 7)
1969/12/31/18:00:08.772,(-8 -106 -61 -64 -47 15 6 24)
1969/12/31/18:00:08.773,(35 -11 -24 15 5 3 7 32)
1969/12/31/18:00:08.773,(-81 -91 -81 -11 17 11 5 -35)
1969/12/31/18:00:08.795,(-108 -40 7 3 -3 -18 -43 -100)
1969/12/31/18:00:08.795,(11 92 91 30 10 -23 -18 -25)
1969/12/31/18:00:08.796,(37 58 60 16 -1 -4 16 17)
1969/12/31/18:00:08.796,(4 -26 -11 -10 -17 5 -7 -16)
1969/12/31/18:00:08.818,(-9 -48 -53 -29 1 2 3 9)
1969/12/31/18:00:08.818,(-41 -55 -51 -24 -4 4 -1 -29)
1969/12/31/18:00:08.819,(12 46 17 12 -4 -4 -6 -3)
1969/12/31/18:00:08.819,(40 -29 -35 0 1 -5 -2 17)
1969/12/31/18:00:08.834,(-17 67 60 7 13 -7 10 12)
1969/12/31/18:00:08.834,(-34 -51 -21 -14 -13 3 -19 -48)
1969/12/31/18:00:08.835,(8 -72 -66 -14 -5 -9 2 21)
1969/12/31/18:00:08.835,(18 2 -9 -1 7 12 5 4)
1969/12/31/18:00:08.866,(6 42 20 8 2 -4 -4 2)
1969/12/31/18:00:08.866,(34 4 -19 5 0 -6 5 20)
1969/12/31/18:00:08.866,(-31 13 36 25 -3 5 -2 -23)
1969/12/31/18:00:08.866,(-29 38 28 36 44 -6 -22 -21)
1969/12/31/18:00:08.881,(21 -63 -47 -28 -11 11 0 7)
1969/12/31/18:00:08.881,(20 16 10 6 4 4 10 30)
1969/12/31/18:00:08.881,(-39 -20 -18 -23 -13 -24 -1 -26)
1969/12/31/18:00:08.881,(10 24 31 -7 -21 11 8 5)
1969/12/31/18:00:08.895,(-27 -48 -32 6 12 -14 -7 -14)
1969/12/31/18:00:08.895,(-35 -15 -5 7 2 4 -14 -27)
1969/12/31/18:00:08.897,(34 -21 -39 -20 2 -4 10 51)
1969/12/31/18:00:08.897,(49 127 127 37 7 -2 -1 9)
1969/12/31/18:00:08.918,(-9 -71 -46 -26 -21 10 2 7)
1969/12/31/18:00:08.918,(16 -47 -29 -5 -8 -13 -9 -7)
1969/12/31/18:00:08.919,(-38 -7 -30 -32 -8 -5 -22 -29)
1969/12/31/18:00:08.919,(12 53 61 73 37 24 29 7)
1969/12/31/18:00:08.942,(0 -10 10 5 -19 -1 -25 7)
1969/12/31/18:00:08.942,(-39 -14 -12 -1 31 -4 -3 -13)
1969/12/31/18:00:08.942,(12 8 -15 -11 -17 -10 -26 -5)
1969/12/31/18:00:08.943,(-7 -14 -27 -76 -77 -18 29 18)
1969/12/31/18:00:08.957,(-34 11 19 72 81 35 -56 -53)
1969/12/31/18:00:08.957,(3 7 11 12 -17 12 16 1)
1969/12/31/18:00:08.958,(-19 -21 7 14 29 -29 -30 -19)
1969/12/31/18:00:08.958,(8 55 1 -8 3 2 -17 -19)
1969/12/31/18:00:08.980,(-3 -53 -27 -34 -26 -13 1 13)
1969/12/31/18:00:08.980,(-31 0 -16 -21 -3 22 -3 -64)
1969/12/31/18:00:08.981,(-6 4 25 21 10 1 5 2)
1969/12/31/18:00:08.981,(70 38 13 -12 -15 -5 7 24)
1969/12/31/18:00:09.003,(11 19 -17 -15 -5 -10 3 -2)
1969/12/31/18:00:09.003,(-24 -1 3 11 16 19 4 0)
1969/12/31/18:00:09.011,(24 31 36 13 3 4 18 20)
1969/12/31/18:00:09.011,(-6 -51 -27 -4 11 -8 -49 -19)
1969/12/31/18:00:09.019,(6 0 -13 -11 -8 2 29 23)
1969/12/31/18:00:09.019,(-2 15 12 5 -5 -9 -4 14)
1969/12/31/18:00:09.020,(9 3 4 3 4 7 6 -5)
1969/12/31/18:00:09.020,(-11 -23 -19 -15 -11 -1 7 1)
1969/12/31/18:00:09.042,(5 0 -9 -2 -8 3 7 14)
1969/12/31/18:00:09.042,(13 16 18 2 -6 -13 2 13)
1969/12/31/18:00:09.042,(36 16 18 19 21 17 12 19)
1969/12/31/18:00:09.042,(-44 -26 -25 -14 -7 -7 -15 -25)
1969/12/31/18:00:09.067,(22 35 29 3 -12 -12 4 -10)
1969/12/31/18:00:09.067,(41 41 13 13 10 3 15 24)
1969/12/31/18:00:09.068,(-28 -33 -16 -5 -1 7 -4 -7)
1969/12/31/18:00:09.068,(38 -5 -6 -7 2 7 16 34)
1969/12/31/18:00:09.079,(15 -58 -34 -11 -3 3 14 12)
1969/12/31/18:00:09.079,(2 24 0 -1 -8 -12 -14 -6)
1969/12/31/18:00:09.096,(-3 29 19 7 5 8 2 5)
1969/12/31/18:00:09.096,(-41 -5 0 0 -4 -6 -10 -40)
1969/12/31/18:00:09.103,(36 9 9 10 12 13 31 51)
1969/12/31/18:00:09.103,(-92 -110 -61 -23 -13 -12 -24 -49)
1969/12/31/18:00:09.104,(3 6 -18 -22 -15 -7 -6 -9)
1969/12/31/18:00:09.104,(9 -3 9 13 9 2 10 8)
1969/12/31/18:00:09.127,(77 18 -22 -16 -12 -6 -4 5)
1969/12/31/18:00:09.127,(-61 2 14 10 5 -2 -5 -7)
1969/12/31/18:00:09.128,(-10 4 16 12 5 7 -3 -56)
1969/12/31/18:00:09.128,(-71 -37 -26 -24 -17 -10 -14 -23)
1969/12/31/18:00:09.141,(40 59 31 17 12 9 8 16)
1969/12/31/18:00:09.141,(-26 -46 -17 -15 -16 -13 -11 -16)
1969/12/31/18:00:09.149,(10 -13 -8 -22 0 4 5 19)
1969/12/31/18:00:09.149,(10 -14 -9 -6 -1 3 7 14)
1969/12/31/18:00:09.165,(-34 0 -23 -21 1 -5 -5 -14)
1969/12/31/18:00:09.165,(48 53 51 36 4 7 20 35)
1969/12/31/18:00:09.166,(-11 -44 37 49 26 9 8 20)
1969/12/31/18:00:09.166,(23 37 -1 23 9 4 0 7)
1969/12/31/18:00:09.188,(-20 43 57 7 -11 -11 -10 1)
1969/12/31/18:00:09.188,(9 -17 -29 -34 -5 -1 9 11)
1969/12/31/18:00:09.188,(-3 -17 -53 -47 -26 -16 -21 -12)
1969/12/31/18:00:09.188,(5 -33 -20 6 1 1 12 4)
1969/12/31/18:00:09.203,(-45 -28 9 24 5 6 -6 -21)
1969/12/31/18:00:09.203,(21 26 -3 -12 -10 -9 -15 -2)
1969/12/31/18:00:09.212,(-3 -10 -4 -9 -6 2 13 8)
1969/12/31/18:00:09.212,(-23 -8 -22 -22 -8 -16 -12 -20)
1969/12/31/18:00:09.228,(-21 -7 0 6 -1 -4 -3 7)
1969/12/31/18:00:09.228,(40 23 26 27 14 7 -10 -5)
1969/12/31/18:00:09.228,(-6 -9 -13 -9 -5 8 38 30)
1969/12/31/18:00:09.228,(-25 -11 -6 -14 -15 -20 -46 -41)
1969/12/31/18:00:09.250,(-3 -7 -8 -12 -3 2 12 15)
1969/12/31/18:00:09.250,(34 -1 -8 -1 -1 4 -3 29)
1969/12/31/18:00:09.251,(0 6 -2 2 -3 -4 9 2)
1969/12/31/18:00:09.251,(11 4 -2 5 12 16 -1 0)
1969/12/31/18:00:09.265,(-14 -7 3 -5 -10 -9 3 10)
1969/12/31/18:00:09.265,(-2 7 -1 -4 0 -2 -8 -14)
1969/12/31/18:00:09.273,(-3 -22 -16 0 -2 0 4 6)
1969/12/31/18:00:09.273,(11 37 22 -1 -2 -1 16 20)
1969/12/31/18:00:09.288,(-8 -28 -3 7 7 4 -10 5)
1969/12/31/18:00:09.288,(-7 26 1 -2 -4 -11 15 -17)
1969/12/31/18:00:09.289,(0 18 16 1 3 -2 -13 -12)
1969/12/31/18:00:09.289,(-16 -28 -10 3 -8 -5 -17 -30)
1969/12/31/18:00:09.313,(-20 -40 -49 -32 -13 0 -5 -19)
1969/12/31/18:00:09.313,(15 31 37 19 11 7 18 24)
1969/12/31/18:00:09.313,(0 -7 -17 -15 -10 -5 -19 -5)
1969/12/31/18:00:09.313,(2 4 11 3 3 0 15 1)
1969/12/31/18:00:09.326,(-15 -12 -6 1 -2 -7 4 -5)
1969/12/31/18:00:09.326,(3 -1 18 10 5 10 -5 3)
1969/12/31/18:00:09.334,(10 22 11 13 7 -4 -5 9)
1969/12/31/18:00:09.334,(5 -2 11 -3 2 9 10 13)
1969/12/31/18:00:09.351,(-4 -3 -9 -2 -4 -3 -8 -19)
1969/12/31/18:00:09.351,(19 5 16 9 5 1 21 31)
1969/12/31/18:00:09.351,(-35 1 2 4 4 2 -31 -45)
1969/12/31/18:00:09.352,(-4 -14 -14 -5 -4 -2 1 -2)
1969/12/31/18:00:09.375,(-2 4 1 -9 -4 -3 6 0)
1969/12/31/18:00:09.375,(12 2 -13 -1 10 4 2 8)
1969/12/31/18:00:09.375,(13 -8 6 -18 -11 -2 8 20)
1969/12/31/18:00:09.375,(-24 -26 -38 -23 -12 -5 -10 -10)
1969/12/31/18:00:09.397,(6 28 28 37 10 3 5 -5)
1969/12/31/18:00:09.397,(4 2 -1 7 5 0 -7 8)
1969/12/31/18:00:09.398,(6 7 39 16 10 6 6 3)
1969/12/31/18:00:09.398,(10 12 6 12 3 0 8 11)
1969/12/31/18:00:09.412,(-10 -24 -39 -19 -7 1 -4 -8)
1969/12/31/18:00:09.412,(-5 -17 -12 0 -4 -2 -10 -12)
1969/12/31/18:00:09.413,(-9 -3 -2 -29 -11 -5 -4 -4)
1969/12/31/18:00:09.413,(7 -13 -23 7 9 0 4 11)
1969/12/31/18:00:09.436,(10 54 85 61 18 7 5 2)
1969/12/31/18:00:09.436,(-15 -10 -25 -21 -12 -7 -9 -13)
1969/12/31/18:00:09.436,(10 -11 -29 -25 -5 1 6 9)
1969/12/31/18:00:09.436,(-33 -36 -25 -39 -11 -8 -11 -18)
1969/12/31/18:00:09.467,(-3 -15 -55 -13 -6 -5 -7 -8)
1969/12/31/18:00:09.467,(-16 -44 51 39 1 2 2 -3)
1969/12/31/18:00:09.468,(22 69 -5 -27 -8 -10 -9 -3)
1969/12/31/18:00:09.468,(30 50 85 67 22 13 16 24)
1969/12/31/18:00:09.475,(-6 -18 -39 -39 -11 -3 -7 -11)
1969/12/31/18:00:09.475,(-3 -19 -26 6 5 -2 -5 -1)
1969/12/31/18:00:09.476,(-2 5 -5 9 3 4 3 -3)
1969/12/31/18:00:09.476,(-17 -23 -1 -19 -10 -6 -9 -11)
1969/12/31/18:00:09.498,(-8 -22 -33 -30 -14 -12 -16 -17)
1969/12/31/18:00:09.498,(-17 -56 0 -24 5 11 12 14)
1969/12/31/18:00:09.498,(38 101 72 86 19 3 0 4)
1969/12/31/18:00:09.498,(-15 -14 -17 -28 -4 2 3 -1)
1969/12/31/18:00:09.521,(-15 -52 -89 -97 -51 -26 -17 -17)
1969/12/31/18:00:09.521,(31 80 89 84 48 17 13 10)
1969/12/31/18:00:09.522,(-6 -35 11 17 20 9 4 4)
1969/12/31/18:00:09.522,(21 58 26 16 14 4 2 4)
1969/12/31/18:00:09.535,(-16 -14 -8 -34 -16 -6 -3 -6)
1969/12/31/18:00:09.535,(-19 -73 -110 -62 -24 -9 -1 -2)
1969/12/31/18:00:09.536,(9 41 59 20 1 -4 -5 -4)
1969/12/31/18:00:09.536,(0 -28 -19 3 1 3 5 6)
1969/12/31/18:00:09.560,(-13 -40 -24 -30 -8 -3 -4 -3)
1969/12/31/18:00:09.560,(27 78 57 34 9 3 -2 1)
1969/12/31/18:00:09.560,(-31 -80 -39 1 -4 -4 -2 -5)
1969/12/31/18:00:09.560,(4 -6 -39 -62 -23 -11 -5 2)
1969/12/31/18:00:09.582,(11 35 44 63 33 13 8 9)
1969/12/31/18:00:09.582,(-18 -28 24 12 -8 -5 1 0)
1969/12/31/18:00:09.583,(-9 11 -92 -88 -36 -15 -12 -14)
1969/12/31/18:00:09.583,(15 50 51 77 22 6 1 1)
1969/12/31/18:00:09.583,(4 10 0 0 -1 2 0 0)
1969/12/31/18:00:09.583,(-13 12 20 5 0 1 2 1)
1969/12/31/18:00:09.592,(-2 -5 0 5 3 0 -2 -4)
1969/12/31/18:00:09.592,(-9 -3 -4 -2 -4 -4 -3 0)
1969/12/31/18:00:09.608,(13 -4 -6 -10 -4 -2 1 3)
1969/12/31/18:00:09.608,(16 7 -1 0 -1 -1 2 4)
1969/12/31/18:00:09.609,(-34 -16 -3 1 0 -1 -1 -3)
1969/12/31/18:00:09.609,(-8 -1 -1 -2 2 0 -1 0)
1969/12/31/18:00:09.631,(10 1 2 -2 -1 -1 -2 0)
1969/12/31/18:00:09.631,(26 15 0 0 -1 -2 2 3)
1969/12/31/18:00:09.633,(-13 -3 -2 -2 -3 -2 0 -2)
1969/12/31/18:00:09.633,(0 -7 -3 -4 -3 -2 -3 -3)
1969/12/31/18:00:09.645,(-26 -8 4 1 0 -1 -3 -6)
1969/12/31/18:00:09.645,(7 -3 -5 -1 2 3 5 5)
1969/12/31/18:00:09.654,(9 12 7 1 0 0 0 4)
1969/12/31/18:00:09.654,(29 7 0 4 2 2 3 9)
1969/12/31/18:00:09.685,(-20 -14 -9 -6 -6 -4 -5 -9)
1969/12/31/18:00:09.685,(-21 -24 -21 -16 -9 -10 -16 -26)
1969/12/31/18:00:09.686,(2 -9 -5 -4 -2 0 2 6)
1969/12/31/18:00:09.686,(-13 6 6 4 1 0 -1 -7)
1969/12/31/18:00:09.692,(-27 -26 7 7 4 7 5 -3)
1969/12/31/18:00:09.692,(16 30 -2 -1 -4 -2 4 12)
1969/12/31/18:00:09.694,(10 -2 -6 -7 -4 0 -1 -5)
1969/12/31/18:00:09.694,(-25 -9 -7 -6 -6 -9 -14 -13)
1969/12/31/18:00:09.707,(7 9 6 4 3 2 6 0)
1969/12/31/18:00:09.707,(-34 -20 -1 3 0 1 -5 -8)
1969/12/31/18:00:09.716,(10 1 1 6 5 5 11 19)
1969/12/31/18:00:09.716,(24 16 -4 -7 -9 -3 -3 0)
1969/12/31/18:00:09.730,(-19 0 0 0 2 0 -2 -1)
1969/12/31/18:00:09.730,(-24 -4 9 8 6 -10 -17 -51)
1969/12/31/18:00:09.737,(82 17 -1 2 -1 16 33 81)
1969/12/31/18:00:09.737,(-48 -18 -3 -3 -1 -1 -10 -28)
1969/12/31/18:00:09.754,(4 10 9 7 1 2 -1 -2)
1969/12/31/18:00:09.754,(14 1 -21 -15 -9 3 -3 12)
1969/12/31/18:00:09.756,(-20 -26 -14 -11 -13 -45 -12 -45)
1969/12/31/18:00:09.756,(41 4 7 3 6 7 4 37)
1969/12/31/18:00:09.768,(2 -11 -9 -8 -5 -6 -1 -2)
1969/12/31/18:00:09.768,(-20 9 14 10 7 6 5 21)
1969/12/31/18:00:09.778,(-7 9 -2 -1 -3 -5 -20 -32)
1969/12/31/18:00:09.778,(-16 -11 -2 3 0 -10 2 6)
1969/12/31/18:00:09.792,(26 18 -3 -3 -3 2 29 24)
1969/12/31/18:00:09.792,(17 -8 0 0 -1 -2 2 9)
1969/12/31/18:00:09.799,(-10 20 6 2 0 6 -5 -17)
1969/12/31/18:00:09.799,(-51 -7 4 1 -3 -6 -26 -67)
1969/12/31/18:00:09.816,(62 -5 -11 -6 -5 2 9 71)
1969/12/31/18:00:09.816,(-26 -3 -5 -5 -6 -7 0 -13)
1969/12/31/18:00:09.818,(-25 -28 -5 0 3 5 -9 -15)
1969/12/31/18:00:09.818,(1 -2 -6 -6 -2 0 -3 -21)
1969/12/31/18:00:09.839,(-34 -13 9 6 6 -8 -15 -27)
1969/12/31/18:00:09.839,(65 20 1 2 4 27 17 36)
1969/12/31/18:00:09.840,(-65 -22 -2 0 -3 -14 -34 -21)
1969/12/31/18:00:09.840,(11 13 11 10 10 6 10 9)
1969/12/31/18:00:09.854,(-8 -9 -16 -16 -12 1 -15 -20)
1969/12/31/18:00:09.854,(7 25 13 4 -6 6 32 15)
1969/12/31/18:00:09.861,(-19 -48 -22 -8 1 12 1 -14)
1969/12/31/18:00:09.861,(-8 -7 -3 -3 -7 -23 -12 -5)
1969/12/31/18:00:09.877,(5 19 8 3 -1 -5 -17 -15)
1969/12/31/18:00:09.877,(48 6 -4 -2 2 8 25 56)
1969/12/31/18:00:09.879,(3 18 7 1 -3 -6 -7 -12)
1969/12/31/18:00:09.879,(55 53 8 1 1 13 22 21)
1969/12/31/18:00:09.901,(-77 -38 8 8 6 9 -12 -27)
1969/12/31/18:00:09.901,(-14 -23 -20 -13 -13 -40 -30 -22)
1969/12/31/18:00:09.902,(80 16 7 5 4 12 25 29)
1969/12/31/18:00:09.902,(30 54 17 8 8 0 -14 19)
1969/12/31/18:00:09.915,(26 -12 -3 -1 4 34 16 8)
1969/12/31/18:00:09.915,(-30 -16 -8 -2 2 11 11 4)
1969/12/31/18:00:09.922,(24 8 7 5 1 -16 -19 26)
1969/12/31/18:00:09.922,(-32 -24 -9 -6 -6 -2 19 -7)
1969/12/31/18:00:09.939,(62 37 5 0 -4 -26 1 9)
1969/12/31/18:00:09.939,(-40 -9 7 8 15 59 32 -14)
1969/12/31/18:00:09.939,(30 12 -6 -11 -13 -36 -38 -40)
1969/12/31/18:00:09.939,(-7 -33 -15 -8 -5 -5 10 10)
1969/12/31/18:00:09.970,(-18 10 3 2 -3 -45 -10 -28)
1969/12/31/18:00:09.970,(-14 -18 -6 3 14 45 -31 -21)
1969/12/31/18:00:09.971,(-43 2 4 1 -3 -5 -15 -2)
1969/12/31/18:00:09.971,(19 -25 -9 -1 3 19 6 12)
1969/12/31/18:00:09.976,(-32 8 -1 -5 -7 -28 -13 -4)
1969/12/31/18:00:09.976,(-14 8 7 0 -4 -33 -9 -52)
1969/12/31/18:00:09.984,(-14 -4 3 4 11 40 20 21)
1969/12/31/18:00:09.984,(52 -1 -14 -7 -9 -25 -21 16)
1969/12/31/18:00:10.001,(14 10 8 2 1 27 4 41)
1969/12/31/18:00:10.001,(4 -13 -7 -5 -8 -29 -23 -57)
1969/12/31/18:00:10.001,(-7 -18 -1 -1 -2 -7 -4 7)
1969/12/31/18:00:10.001,(-29 -1 6 8 11 21 7 -24)
1969/12/31/18:00:10.023,(-13 6 -8 -9 -5 4 -5 -29)
1969/12/31/18:00:10.023,(-12 -17 -3 -5 -6 -18 -12 8)
1969/12/31/18:00:10.024,(-1 10 3 2 -3 -26 26 6)
1969/12/31/18:00:10.024,(47 14 12 7 9 43 38 37)
1969/12/31/18:00:10.038,(-30 -6 -10 -5 -4 0 -44 -47)
1969/12/31/18:00:10.038,(6 23 4 -3 -7 -32 -28 2)
1969/12/31/18:00:10.054,(-27 0 0 -2 0 11 -7 -26)
1969/12/31/18:00:10.054,(-26 -9 -2 -1 -4 -24 -8 -6)
1969/12/31/18:00:10.062,(43 -27 -3 4 7 16 21 43)
1969/12/31/18:00:10.062,(-63 1 9 9 6 6 -5 -73)
1969/12/31/18:00:10.062,(41 -10 -20 -11 -9 2 11 27)
1969/12/31/18:00:10.062,(3 22 5 -8 -7 6 4 1)
1969/12/31/18:00:10.085,(30 25 3 2 0 -4 6 48)
1969/12/31/18:00:10.085,(-9 -9 4 3 2 4 -6 -10)
1969/12/31/18:00:10.086,(30 -2 -4 -2 -2 0 5 26)
1969/12/31/18:00:10.086,(-5 -17 -8 -4 -2 0 9 6)
1969/12/31/18:00:10.099,(-16 -6 -4 -1 -2 -28 -19 -17)
1969/12/31/18:00:10.099,(2 -12 -7 -5 3 23 57 44)
1969/12/31/18:00:10.108,(-77 -18 -6 -3 -1 3 -17 -56)
1969/12/31/18:00:10.108,(-11 -18 -9 -3 -5 -10 -10 0)
1969/12/31/18:00:10.124,(-9 9 13 9 6 4 18 -12)
1969/12/31/18:00:10.124,(66 19 3 3 0 -11 -4 76)
1969/12/31/18:00:10.124,(27 19 -2 -6 -2 16 14 9)
1969/12/31/18:00:10.124,(-5 3 6 5 -1 -32 -57 -47)
1969/12/31/18:00:10.147,(-29 5 1 2 4 10 22 -25)
1969/12/31/18:00:10.147,(42 -4 -8 -8 -7 -5 -31 36)
1969/12/31/18:00:10.148,(-1 8 9 3 7 17 8 29)
1969/12/31/18:00:10.148,(-17 -4 -4 0 -5 -35 -23 -47)
1969/12/31/18:00:10.161,(45 -14 -17 -14 -7 30 52 52)
1969/12/31/18:00:10.161,(-17 15 19 12 2 -20 -36 -22)
1969/12/31/18:00:10.169,(-51 -27 -9 -4 -4 -11 -8 -24)
1969/12/31/18:00:10.169,(42 31 12 8 6 17 21 55)
1969/12/31/18:00:10.194,(-25 -15 -2 -1 0 1 9 17)
1969/12/31/18:00:10.194,(62 -5 -6 -7 -7 4 30 77)
1969/12/31/18:00:10.194,(-1 4 -2 2 -3 -21 -33 -34)
1969/12/31/18:00:10.195,(-46 -24 -7 -5 -1 22 41 -7)
1969/12/31/18:00:10.208,(36 20 1 -1 -4 -5 -16 2)
1969/12/31/18:00:10.208,(15 3 -3 -3 -2 -2 13 32)
1969/12/31/18:00:10.209,(-6 33 20 12 8 4 -29 -23)
1969/12/31/18:00:10.209,(20 -25 -16 -7 -5 0 22 39)
1969/12/31/18:00:10.223,(13 5 -8 -8 -6 3 -11 15)
1969/12/31/18:00:10.223,(-66 -20 5 4 -2 -13 -4 -68)
1969/12/31/18:00:10.231,(45 7 -2 -6 -5 2 21 13)
1969/12/31/18:00:10.231,(-49 7 11 6 7 14 -8 -54)
1969/12/31/18:00:10.256,(6 -25 -20 -10 -12 -25 -5 6)
1969/12/31/18:00:10.256,(-6 1 1 3 3 -13 -4 -20)
1969/12/31/18:00:10.257,(-10 7 6 4 5 23 13 16)
1969/12/31/18:00:10.257,(10 -22 -14 -9 -9 11 -12 36)
1969/12/31/18:00:10.270,(-47 16 7 5 2 -11 -23 -52)
1969/12/31/18:00:10.270,(3 -28 -11 -8 -7 -5 11 21)
1969/12/31/18:00:10.271,(-12 -15 -3 1 2 -3 0 -24)
1969/12/31/18:00:10.271,(-6 16 5 -2 -5 -7 -18 -5)
1969/12/31/18:00:10.284,(-39 -6 0 0 2 2 -15 -87)
1969/12/31/18:00:10.284,(-5 19 3 3 -4 9 17 13)
1969/12/31/18:00:10.294,(-13 -7 -1 -3 -4 -4 -13 -23)
1969/12/31/18:00:10.294,(-14 -15 -10 -8 -5 -6 -39 7)
1969/12/31/18:00:10.309,(-14 -6 8 12 21 4 13 3)
1969/12/31/18:00:10.309,(-23 -4 -7 -7 -20 -16 -30 -41)
1969/12/31/18:00:10.309,(44 20 1 -1 6 3 17 5)
1969/12/31/18:00:10.309,(-30 -7 8 5 -11 2 1 6)
1969/12/31/18:00:10.332,(-13 -18 -19 -28 -27 -17 -19 -18)
1969/12/31/18:00:10.332,(24 23 10 9 17 -7 -13 -17)
1969/12/31/18:00:10.333,(-7 0 1 7 15 27 20 20)
1969/12/31/18:00:10.333,(27 17 -4 -8 -3 -17 -16 -6)
1969/12/31/18:00:10.346,(7 0 9 -1 -4 4 -23 2)
1969/12/31/18:00:10.346,(-13 -15 -8 -8 -1 9 72 50)
1969/12/31/18:00:10.354,(28 12 -2 -6 -10 29 103 53)
1969/12/31/18:00:10.354,(-32 7 3 15 26 4 -53 -57)
1969/12/31/18:00:10.370,(-30 -35 -3 14 0 -21 -10 17)
1969/12/31/18:00:10.370,(18 14 -6 -21 -23 -14 -12 11)
1969/12/31/18:00:10.371,(17 -24 -7 -3 -3 -12 -27 -2)
1969/12/31/18:00:10.371,(10 8 -5 -8 -9 -3 31 10)
1969/12/31/18:00:10.393,(16 4 5 7 14 19 -3 10)
1969/12/31/18:00:10.393,(-45 -11 11 22 31 43 42 23)
1969/12/31/18:00:10.394,(-7 0 -6 -13 -30 -41 -51 -36)
1969/12/31/18:00:10.394,(-6 -4 4 6 17 -9 -14 -26)
1969/12/31/18:00:10.408,(25 12 1 -10 -10 12 -2 -4)
1969/12/31/18:00:10.408,(-29 -27 -8 -1 4 -7 -19 -59)
1969/12/31/18:00:10.424,(11 12 6 10 11 -5 -14 19)
1969/12/31/18:00:10.424,(18 11 5 -1 -29 13 49 36)
1969/12/31/18:00:10.432,(10 -3 -1 -18 -21 -20 -9 2)
1969/12/31/18:00:10.432,(-8 7 -1 -2 9 28 -4 -26)
1969/12/31/18:00:10.432,(-28 -23 -11 -2 4 5 17 -22)
1969/12/31/18:00:10.432,(6 1 1 7 11 -11 -34 -29)
1969/12/31/18:00:10.455,(0 26 10 12 -1 -9 32 19)
1969/12/31/18:00:10.455,(60 -19 -25 -24 -23 -10 -17 49)
1969/12/31/18:00:10.456,(-10 -6 8 25 29 -11 4 51)
1969/12/31/18:00:10.456,(14 5 -4 -19 -13 23 33 43)
1969/12/31/18:00:10.469,(25 16 7 -5 -10 16 6 13)
1969/12/31/18:00:10.469,(-24 -11 -5 -4 -4 -15 -9 -21)
1969/12/31/18:00:10.479,(-14 -9 -2 9 5 -19 -13 -28)
1969/12/31/18:00:10.479,(11 16 4 -3 4 -14 5 -2)
1969/12/31/18:00:10.494,(7 -18 2 4 1 6 15 33)
1969/12/31/18:00:10.494,(-17 2 -4 1 -8 -14 -17 -11)
1969/12/31/18:00:10.494,(-1 19 8 0 10 0 -9 -19)
1969/12/31/18:00:10.494,(16 2 -4 4 4 2 -6 -8)
1969/12/31/18:00:10.517,(-32 -12 -15 -17 -5 4 21 -9)
1969/12/31/18:00:10.517,(16 20 8 -1 -1 1 -17 3)
1969/12/31/18:00:10.518,(60 43 20 21 8 -17 7 44)
1969/12/31/18:00:10.518,(-53 -65 -20 -3 -18 -28 -5 -4)
1969/12/31/18:00:10.531,(3 7 -11 -29 -22 15 1 -3)
1969/12/31/18:00:10.531,(14 -1 7 11 5 8 6 -2)
1969/12/31/18:00:10.539,(-38 2 -6 -17 2 32 -3 -16)
1969/12/31/18:00:10.540,(11 16 11 8 22 -16 -8 -19)
1969/12/31/18:00:10.555,(28 10 7 26 7 0 18 23)
1969/12/31/18:00:10.555,(9 -20 -1 12 10 -18 -25 4)
1969/12/31/18:00:10.556,(2 -11 -14 -31 -18 28 -8 5)
1969/12/31/18:00:10.556,(-10 -3 2 8 25 17 26 18)
1969/12/31/18:00:10.578,(-2 6 -3 -9 -7 2 -7 -36)
1969/12/31/18:00:10.578,(-1 1 -6 -13 -18 -21 -23 -8)
1969/12/31/18:00:10.579,(-31 -30 -8 8 6 -14 8 -1)
1969/12/31/18:00:10.579,(-26 -9 -4 -5 -12 3 -5 -43)
1969/12/31/18:00:10.593,(28 25 4 -3 -10 -15 -2 36)
1969/12/31/18:00:10.593,(-43 -27 -2 2 1 8 -11 -18)
1969/12/31/18:00:10.601,(32 -12 -10 -3 3 -3 18 25)
1969/12/31/18:00:10.601,(-17 6 1 -3 -18 -3 -17 -8)
1969/12/31/18:00:10.626,(20 -34 -18 8 31 21 17 37)
1969/12/31/18:00:10.626,(29 5 -37 -16 -14 -42 -22 -33)
1969/12/31/18:00:10.627,(14 60 84 28 15 12 -16 -5)
1969/12/31/18:00:10.627,(44 36 19 4 3 32 30 39)
1969/12/31/18:00:10.640,(-3 15 13 10 0 -29 -31 -30)
1969/12/31/18:00:10.640,(-23 -39 -30 -34 -24 19 19 7)
1969/12/31/18:00:10.641,(-14 -17 -33 -12 -21 -21 -7 -17)
1969/12/31/18:00:10.641,(5 -33 -15 -8 2 -29 -10 7)
1969/12/31/18:00:10.654,(-36 -19 1 16 37 33 -9 -11)
1969/12/31/18:00:10.654,(24 6 -15 17 15 -14 -1 -15)
1969/12/31/18:00:10.664,(44 45 46 -5 -22 3 1 17)
1969/12/31/18:00:10.664,(-11 -34 -28 -22 -23 -3 2 -4)
1969/12/31/18:00:10.678,(-46 -22 -23 -8 4 -11 -20 -46)
1969/12/31/18:00:10.679,(17 53 73 35 26 19 19 14)
1969/12/31/18:00:10.679,(-27 -48 -71 -24 -19 -17 -21 -47)
1969/12/31/18:00:10.679,(28 86 86 34 19 -6 -19 -44)
1969/12/31/18:00:10.702,(9 2 3 14 1 -12 -13 -16)
1969/12/31/18:00:10.702,(-22 -11 -18 -23 -33 23 16 -11)
1969/12/31/18:00:10.703,(-7 -38 -45 -21 2 8 14 0)
1969/12/31/18:00:10.703,(-56 7 28 30 45 12 -5 -21)
1969/12/31/18:00:10.716,(65 28 -4 -25 -65 -38 -22 -16)
1969/12/31/18:00:10.716,(0 5 22 6 12 11 11 7)
1969/12/31/18:00:10.725,(-46 -63 -40 -11 -11 -15 -14 -33)
1969/12/31/18:00:10.725,(-17 -46 -70 -18 10 22 12 20)
1969/12/31/18:00:10.741,(-3 14 35 12 4 9 -8 -15)
1969/12/31/18:00:10.741,(48 85 79 18 -1 -2 0 26)
1969/12/31/18:00:10.741,(-6 -13 -4 -3 -3 -1 -1 -8)
1969/12/31/18:00:10.741,(36 30 -1 6 -7 -8 9 37)
1969/12/31/18:00:10.763,(-18 -41 -6 4 32 10 14 31)
1969/12/31/18:00:10.763,(-24 -7 -33 -18 -30 -7 7 23)
1969/12/31/18:00:10.764,(-46 -90 -64 12 15 -10 1 22)
1969/12/31/18:00:10.764,(55 91 -29 -37 -42 10 -17 -35)
1969/12/31/18:00:10.787,(12 73 67 31 6 -2 25 9)
1969/12/31/18:00:10.787,(-25 -45 -40 -7 1 9 -14 -29)
1969/12/31/18:00:10.788,(19 10 30 13 23 -2 -1 19)
1969/12/31/18:00:10.788,(-52 -107 -59 -20 -25 -21 -7 1)
1969/12/31/18:00:10.803,(-13 -70 -67 -19 -3 -4 13 8)
1969/12/31/18:00:10.803,(-19 -53 -47 -4 47 13 -8 -14)
1969/12/31/18:00:10.803,(-45 87 56 3 -22 16 1 -56)
1969/12/31/18:00:10.803,(40 8 16 2 12 9 -3 -9)
1969/12/31/18:00:10.825,(17 -18 -21 5 8 4 -9 2)
1969/12/31/18:00:10.825,(-25 0 29 0 -27 -23 1 31)
1969/12/31/18:00:10.826,(-13 -9 -42 -28 -8 1 -8 -28)
1969/12/31/18:00:10.826,(15 23 49 5 -21 -4 18 24)
1969/12/31/18:00:10.849,(-37 43 33 15 -5 -8 -11 -21)
1969/12/31/18:00:10.849,(38 2 -8 26 37 14 11 21)
1969/12/31/18:00:10.850,(2 -43 -30 -28 -3 13 3 -9)
1969/12/31/18:00:10.850,(26 47 33 -2 -16 -6 -12 13)
1969/12/31/18:00:10.864,(30 -29 -27 -1 -1 -5 16 41)
1969/12/31/18:00:10.864,(-22 -45 -34 -17 -15 -12 -31 -42)
1969/12/31/18:00:10.864,(4 40 35 24 1 -24 -19 -48)
1969/12/31/18:00:10.864,(-17 -123 -91 -6 22 11 19 4)
1969/12/31/18:00:10.887,(16 19 -30 -33 -28 -13 -8 6)
1969/12/31/18:00:10.887,(-14 44 31 -4 -26 1 3 -19)
1969/12/31/18:00:10.888,(5 27 35 9 16 20 14 40)
1969/12/31/18:00:10.888,(-41 -85 -33 6 6 -2 -3 -8)
1969/12/31/18:00:10.910,(4 7 -21 -3 4 -12 -8 -9)
1969/12/31/18:00:10.910,(-23 -91 -97 -15 7 3 3 -30)
1969/12/31/18:00:10.911,(-18 104 92 42 29 28 -3 -7)
1969/12/31/18:00:10.911,(22 -6 -5 -6 18 36 30 14)
1969/12/31/18:00:10.925,(-24 109 104 45 4 -3 -11 -17)
1969/12/31/18:00:10.925,(-2 -22 10 -12 -18 -29 18 83)
1969/12/31/18:00:10.926,(-61 -78 -65 -8 8 -23 -28 -65)
1969/12/31/18:00:10.926,(38 -1 10 -11 -33 -14 -19 24)
1969/12/31/18:00:10.948,(25 -48 -45 -19 -1 14 22 23)
1969/12/31/18:00:10.948,(-36 -19 -22 -12 6 1 -8 -19)
1969/12/31/18:00:10.950,(53 -78 -56 -10 -6 -10 12 82)
1969/12/31/18:00:10.950,(-9 110 75 25 22 -8 -10 -15)
1969/12/31/18:00:10.974,(-46 -71 -6 -21 -30 -6 -4 -38)
1969/12/31/18:00:10.974,(11 -33 -25 -15 -20 7 -19 -23)
1969/12/31/18:00:10.975,(33 61 -10 -20 -19 6 12 23)
1969/12/31/18:00:10.975,(-14 -26 30 40 36 9 -4 -45)
1969/12/31/18:00:10.987,(-20 -19 -72 -7 25 0 -15 -28)
1969/12/31/18:00:10.987,(16 127 127 54 -1 -9 -9 -26)
1969/12/31/18:00:10.988,(19 -62 -68 -31 -4 10 -11 1)
1969/12/31/18:00:10.988,(-33 -14 -25 -8 -9 -57 -5 -15)
1969/12/31/18:00:11.010,(-41 24 61 5 -52 18 -8 -20)
1969/12/31/18:00:11.010,(65 91 78 19 25 24 17 20)
1969/12/31/18:00:11.011,(-22 -26 16 29 12 2 24 39)
1969/12/31/18:00:11.011,(75 -47 -60 -29 -34 -35 -5 61)
1969/12/31/18:00:11.034,(-14 -95 -67 -24 19 -2 -22 -25)
1969/12/31/18:00:11.034,(-18 -128 -128 -44 10 1 6 -21)
1969/12/31/18:00:11.035,(45 127 127 45 1 29 -5 -7)
1969/12/31/18:00:11.035,(-112 -81 -59 5 -14 12 8 -20)
1969/12/31/18:00:11.049,(35 8 1 24 31 -42 -13 -46)
1969/12/31/18:00:11.049,(-6 -8 -9 3 -4 13 3 -1)
1969/12/31/18:00:11.050,(-61 -110 -108 -60 -59 -40 -19 -30)
1969/12/31/18:00:11.050,(-10 49 -77 -64 -32 1 -32 -57)
1969/12/31/18:00:11.072,(34 43 58 66 28 0 7 25)
1969/12/31/18:00:11.072,(21 -29 -34 1 2 -3 17 53)
1969/12/31/18:00:11.073,(-39 -85 -36 6 -8 -29 -8 -31)
1969/12/31/18:00:11.073,(-36 -128 -97 -59 -19 16 -3 0)
1969/12/31/18:00:11.096,(7 62 46 -7 -15 8 20 51)
1969/12/31/18:00:11.096,(32 25 -7 34 72 9 -11 -42)
1969/12/31/18:00:11.097,(50 99 96 13 -54 -21 5 20)
1969/12/31/18:00:11.097,(-31 -77 -33 -5 -1 -8 -2 -19)
1969/12/31/18:00:11.111,(-61 -115 -128 -69 4 22 2 -46)
1969/12/31/18:00:11.111,(-36 59 76 68 14 -7 10 30)
1969/12/31/18:00:11.112,(14 -65 -36 48 61 8 3 -22)
1969/12/31/18:00:11.112,(23 -23 -19 -9 -50 -32 -4 2)
1969/12/31/18:00:11.134,(-2 -128 -79 -27 -14 41 -7 -4)
1969/12/31/18:00:11.134,(-8 -83 -85 -64 -62 -30 -14 -21)
1969/12/31/18:00:11.135,(15 9 -82 -43 -2 22 28 62)
1969/12/31/18:00:11.135,(57 121 127 108 67 28 35 52)
1969/12/31/18:00:11.157,(14 -108 -88 -9 16 -19 -12 11)
1969/12/31/18:00:11.157,(28 -94 -86 -62 -28 -13 2 90)
1969/12/31/18:00:11.158,(36 77 63 20 -25 -8 -9 -12)
1969/12/31/18:00:11.158,(-15 20 40 7 18 12 19 -6)
1969/12/31/18:00:11.172,(49 109 97 21 -7 -1 4 36)
1969/12/31/18:00:11.173,(15 -7 15 8 10 16 19 27)
1969/12/31/18:00:11.173,(-31 -116 -80 -18 8 -22 -27 -31)
1969/12/31/18:00:11.173,(-24 13 -8 -24 -1 17 -2 -19)
1969/12/31/18:00:11.195,(-31 -47 -76 -13 -11 -35 9 10)
1969/12/31/18:00:11.195,(4 93 101 102 33 11 -23 -68)
1969/12/31/18:00:11.196,(64 -91 -60 -37 2 44 9 56)
1969/12/31/18:00:11.196,(-27 -37 -23 7 -21 -6 -21 -38)
1969/12/31/18:00:11.219,(14 -117 -90 -31 4 -6 -2 16)
1969/12/31/18:00:11.219,(-38 -37 -53 -19 -13 -23 9 13)
1969/12/31/18:00:11.220,(-27 87 30 1 8 -3 -20 -15)
1969/12/31/18:00:11.220,(44 81 79 9 -13 6 -14 -15)
1969/12/31/18:00:11.233,(1 -23 2 0 -7 1 24 27)
1969/12/31/18:00:11.233,(-14 -42 -29 -16 0 9 -13 -17)
1969/12/31/18:00:11.234,(-53 -59 -29 0 2 -5 19 3)
1969/12/31/18:00:11.234,(-8 -88 -60 -10 16 -10 -21 -14)
1969/12/31/18:00:11.257,(-62 60 -24 -42 -66 -32 -11 -63)
1969/12/31/18:00:11.257,(62 90 112 75 38 28 17 38)
1969/12/31/18:00:11.258,(-7 -71 -93 -42 -30 -10 16 -14)
1969/12/31/18:00:11.258,(-3 68 58 20 8 10 10 1)
1969/12/31/18:00:11.281,(-23 -85 -50 6 5 -21 -25 -24)
1969/12/31/18:00:11.281,(26 48 11 -10 -7 8 4 18)
1969/12/31/18:00:11.282,(24 99 121 46 24 7 -6 -24)
1969/12/31/18:00:11.282,(6 -52 -77 -17 -13 -19 -4 25)
1969/12/31/18:00:11.304,(23 48 56 29 24 17 34 44)
1969/12/31/18:00:11.304,(-55 -128 -68 -38 -41 -20 -34 -65)
1969/12/31/18:00:11.305,(-23 -100 -125 -49 -16 -10 -4 11)
1969/12/31/18:00:11.305,(-5 94 98 56 31 13 12 7)
1969/12/31/18:00:11.319,(20 14 31 20 25 25 9 20)
1969/12/31/18:00:11.319,(-21 -51 -61 -20 -17 -32 -25 -65)
1969/12/31/18:00:11.320,(9 -62 34 48 46 -22 -24 -12)
1969/12/31/18:00:11.320,(22 23 -58 -49 -29 42 41 45)
1969/12/31/18:00:11.343,(53 -33 -8 16 -1 1 -11 10)
1969/12/31/18:00:11.343,(-34 -33 -75 -31 6 11 10 14)
1969/12/31/18:00:11.343,(-20 15 59 23 -9 -6 5 -5)
1969/12/31/18:00:11.343,(0 -128 -113 -26 8 -27 -9 11)
1969/12/31/18:00:11.366,(28 117 89 35 18 20 -11 -19)
1969/12/31/18:00:11.366,(-27 -68 -16 -9 8 -4 -5 -37)
1969/12/31/18:00:11.366,(-10 -32 -65 -38 -24 -7 7 8)
1969/12/31/18:00:11.366,(42 90 106 47 70 39 5 -1)
1969/12/31/18:00:11.380,(-28 -66 -69 -36 -52 0 -7 8)
1969/12/31/18:00:11.380,(-3 28 79 21 -7 -18 -5 -11)
1969/12/31/18:00:11.381,(4 104 -1 13 29 -4 -4 -1)
1969/12/31/18:00:11.381,(-10 -21 50 -13 -14 22 13 -12)
1969/12/31/18:00:11.404,(-8 47 7 -4 -9 -12 5 -1)
1969/12/31/18:00:11.404,(38 94 68 6 0 4 7 22)
1969/12/31/18:00:11.405,(-15 -128 -72 -16 -15 -12 -11 -6)
1969/12/31/18:00:11.405,(13 6 -10 12 22 -14 -2 18)
1969/12/31/18:00:11.418,(-27 -13 -10 -1 1 16 2 21)
1969/12/31/18:00:11.418,(-65 -73 -68 -34 -43 -36 -13 -58)
1969/12/31/18:00:11.427,(31 57 61 27 51 61 18 21)
1969/12/31/18:00:11.427,(14 -81 -68 -23 -18 -26 -12 16)
1969/12/31/18:00:11.442,(15 69 70 38 22 -10 11 46)
1969/12/31/18:00:11.442,(2 -48 -55 -19 23 54 29 10)
1969/12/31/18:00:11.443,(-11 32 20 18 24 0 -10 -7)
1969/12/31/18:00:11.443,(-17 -80 -36 -23 -70 -16 -7 -24)
1969/12/31/18:00:11.466,(16 77 50 5 -4 -19 9 6)
1969/12/31/18:00:11.466,(28 17 -6 12 12 -8 -21 -4)
1969/12/31/18:00:11.467,(-8 -90 -46 -5 4 23 11 -10)
1969/12/31/18:00:11.467,(-68 -27 -58 -19 -12 -18 -23 3)
1969/12/31/18:00:11.480,(-36 -42 -19 0 19 -21 -11 -47)
1969/12/31/18:00:11.480,(2 34 25 -7 -8 33 6 -13)
1969/12/31/18:00:11.488,(25 68 43 23 0 -24 -2 29)
1969/12/31/18:00:11.488,(-12 -50 -57 -21 -14 2 0 0)
1969/12/31/18:00:11.504,(-34 -72 -34 -11 -1 4 -3 -17)
1969/12/31/18:00:11.504,(11 36 1 -6 25 26 -6 1)
1969/12/31/18:00:11.505,(-11 31 55 25 4 2 5 3)
1969/12/31/18:00:11.505,(2 20 53 24 30 7 -1 -21)
1969/12/31/18:00:11.527,(28 14 -15 9 22 8 -9 1)
1969/12/31/18:00:11.527,(-52 -102 -43 -22 -48 -50 -6 16)
1969/12/31/18:00:11.528,(22 84 22 -9 -16 18 -4 -12)
1969/12/31/18:00:11.528,(6 -16 6 13 35 -20 4 -1)
1969/12/31/18:00:11.542,(5 38 47 16 11 24 1 6)
1969/12/31/18:00:11.542,(-12 -92 -70 -11 20 -9 -11 4)
1969/12/31/18:00:11.550,(-15 -37 -17 -49 -69 -20 -1 -9)
1969/12/31/18:00:11.550,(29 51 -9 -4 -20 -27 -3 11)
1969/12/31/18:00:11.565,(39 -68 -45 -6 31 16 9 38)
1969/12/31/18:00:11.565,(-16 95 89 26 -27 -29 -18 -17)
1969/12/31/18:00:11.566,(-15 -56 -57 -13 27 28 6 6)
1969/12/31/18:00:11.566,(-18 7 4 -22 -8 8 6 -6)
1969/12/31/18:00:11.589,(0 -9 -32 -9 -8 2 1 -14)
1969/12/31/18:00:11.589,(-27 -41 -22 1 12 -4 11 5)
1969/12/31/18:00:11.590,(-4 -13 48 19 -3 -12 -28 -79)
1969/12/31/18:00:11.590,(-19 69 45 31 -8 -29 -9 -14)
1969/12/31/18:00:11.603,(11 6 -9 -21 -25 36 0 13)
1969/12/31/18:00:11.603,(-37 -41 -20 -16 1 14 23 3)
1969/12/31/18:00:11.612,(-9 11 12 15 18 -14 -15 -4)
1969/12/31/18:00:11.612,(33 -31 -37 -17 -5 21 5 19)
1969/12/31/18:00:11.627,(-3 -29 -20 -3 0 -28 -1 -14)
1969/12/31/18:00:11.627,(57 98 55 23 0 1 -10 5)
1969/12/31/18:00:11.628,(29 46 50 19 8 15 13 16)
1969/12/31/18:00:11.628,(-67 -64 -52 -20 0 9 -11 -20)
1969/12/31/18:00:11.651,(36 69 27 5 2 8 8 11)
1969/12/31/18:00:11.651,(30 -50 -32 -9 -2 6 9 24)
1969/12/31/18:00:11.652,(3 -21 -48 -14 -8 -19 -2 19)
1969/12/31/18:00:11.652,(-12 -43 0 34 37 -1 2 -8)
1969/12/31/18:00:11.665,(15 48 75 16 -7 16 -13 0)
1969/12/31/18:00:11.665,(-6 -54 -58 -44 -33 -14 -5 2)
1969/12/31/18:00:11.681,(34 9 29 5 -8 -16 -17 12)
1969/12/31/18:00:11.681,(-10 -104 -60 -11 -11 -1 -11 -21)
1969/12/31/18:00:11.689,(-25 -128 -112 -27 14 -2 5 18)
1969/12/31/18:00:11.689,(57 127 119 59 48 16 -16 -28)
1969/12/31/18:00:11.690,(-29 -84 -53 -19 -49 -34 -20 -18)
1969/12/31/18:00:11.690,(10 -97 -105 -32 -2 9 15 31)
1969/12/31/18:00:11.712,(-32 86 31 3 -17 -13 -10 -32)
1969/12/31/18:00:11.712,(1 -14 -8 0 0 -10 5 0)
1969/12/31/18:00:11.713,(-42 -107 -105 -38 4 10 -11 -16)
1969/12/31/18:00:11.713,(-6 89 12 -8 -10 -3 12 8)
1969/12/31/18:00:11.736,(-23 28 49 37 14 -16 -19 -41)
1969/12/31/18:00:11.736,(8 -79 -68 -16 -23 -32 2 39)
1969/12/31/18:00:11.736,(17 -34 -17 9 32 25 -9 -1)
1969/12/31/18:00:11.737,(7 73 50 35 -13 -42 -5 -7)
1969/12/31/18:00:11.750,(-49 -88 -68 -53 -9 17 -22 -64)
1969/12/31/18:00:11.750,(0 85 -10 -20 -25 -15 -11 -12)
1969/12/31/18:00:11.751,(35 76 85 48 9 0 10 15)
1969/12/31/18:00:11.751,(6 -62 -36 -4 14 14 5 20)
1969/12/31/18:00:11.774,(7 -30 -7 4 -29 -23 6 5)
1969/12/31/18:00:11.774,(-29 -95 -29 -14 2 -6 -7 -13)
1969/12/31/18:00:11.775,(-58 -35 -63 -36 -19 11 -2 -22)
1969/12/31/18:00:11.775,(-9 -44 -25 -28 -22 -3 -6 -22)
1969/12/31/18:00:11.798,(24 70 88 68 44 17 16 30)
1969/12/31/18:00:11.798,(14 -20 -100 -23 -10 2 8 19)
1969/12/31/18:00:11.799,(81 127 127 42 23 17 27 39)
1969/12/31/18:00:11.799,(-31 -39 6 15 13 5 -27 -31)
1969/12/31/18:00:11.811,(11 -107 -97 -42 -9 5 26 64)
1969/12/31/18:00:11.811,(3 58 76 45 38 15 -17 -48)
1969/12/31/18:00:11.820,(-15 17 11 9 12 -10 0 -16)
1969/12/31/18:00:11.820,(20 -32 -19 -22 -42 -4 6 20)
1969/12/31/18:00:11.836,(-10 -16 -25 -7 7 -32 -38 -59)
1969/12/31/18:00:11.836,(-7 23 65 8 -17 14 11 13)
1969/12/31/18:00:11.838,(-15 -46 -65 -36 -28 -7 0 8)
1969/12/31/18:00:11.838,(24 -59 -10 24 58 35 23 28)
1969/12/31/18:00:11.859,(29 67 19 6 9 -18 -2 33)
1969/12/31/18:00:11.859,(-2 -33 18 12 -22 -16 -1 0)
1969/12/31/18:00:11.860,(-12 -94 -95 -45 -23 14 6 5)
1969/12/31/18:00:11.860,(26 127 97 25 -22 26 16 -20)
1969/12/31/18:00:11.873,(-20 -46 -13 3 -9 -5 8 -14)
1969/12/31/18:00:11.873,(38 -60 -59 -10 9 -2 -1 38)
1969/12/31/18:00:11.882,(19 -32 -47 -20 -15 -30 -6 -4)
1969/12/31/18:00:11.882,(-57 -53 -27 -12 -15 -16 -19 -29)
1969/12/31/18:00:11.897,(22 106 40 -8 -7 18 -6 -29)
1969/12/31/18:00:11.897,(-28 5 51 38 45 12 -12 -13)
1969/12/31/18:00:11.899,(10 -37 -49 -23 -22 5 15 2)
1969/12/31/18:00:11.899,(28 41 34 -2 0 -3 0 -5)
1969/12/31/18:00:11.921,(-18 -86 -46 -18 -6 -6 -2 -4)
1969/12/31/18:00:11.921,(-22 -47 -48 -3 3 -20 0 -3)
1969/12/31/18:00:11.922,(5 102 84 51 39 10 -7 3)
1969/12/31/18:00:11.922,(46 -37 -44 -16 -7 25 23 29)
1969/12/31/18:00:11.934,(-11 82 97 -9 -40 -17 -13 -31)
1969/12/31/18:00:11.934,(31 -53 -19 3 18 30 21 46)
1969/12/31/18:00:11.944,(-22 -61 -39 -19 -20 -23 1 11)
1969/12/31/18:00:11.944,(36 88 27 50 47 4 4 47)
1969/12/31/18:00:11.967,(-54 -10 -5 -13 1 2 -14 -43)
1969/12/31/18:00:11.967,(-4 -88 -94 -31 -25 2 1 5)
1969/12/31/18:00:11.968,(-15 127 127 73 35 7 5 -37)
1969/12/31/18:00:11.968,(21 -25 -20 -15 -2 -14 11 49)
1969/12/31/18:00:11.983,(-57 -115 -87 -3 10 0 -13 -21)
1969/12/31/18:00:11.983,(35 122 92 27 15 -4 13 2)
1969/12/31/18:00:11.984,(-67 -128 -128 -57 -65 -11 6 13)
1969/12/31/18:00:11.984,(13 39 21 16 9 -2 -1 -5)
1969/12/31/18:00:11.996,(30 36 26 20 39 33 24 40)
1969/12/31/18:00:11.996,(-51 -32 -18 -32 -16 15 2 -38)
1969/12/31/18:00:12.005,(30 8 -5 -2 -5 -8 6 19)
1969/12/31/18:00:12.005,(-40 -101 -57 -21 -15 -35 -23 -27)
1969/12/31/18:00:12.021,(0 25 12 -9 -12 -10 3 5)
1969/12/31/18:00:12.021,(52 109 103 56 43 17 -5 -8)
1969/12/31/18:00:12.027,(24 28 49 15 -15 -10 -4 17)
1969/12/31/18:00:12.027,(-61 -80 -85 -91 -55 -38 -15 -23)
1969/12/31/18:00:12.043,(14 48 28 23 12 57 27 17)
1969/12/31/18:00:12.043,(-15 -114 -91 14 28 -11 -6 0)
1969/12/31/18:00:12.052,(-6 -73 -56 -15 -14 -31 -12 -11)
1969/12/31/18:00:12.052,(-15 -38 -19 18 12 12 -10 -14)
1969/12/31/18:00:12.058,(-12 -78 -89 -27 -8 -9 -1 1)
1969/12/31/18:00:12.058,(1 109 81 6 -25 0 16 52)
1969/12/31/18:00:12.067,(10 19 19 14 29 7 7 -5)
1969/12/31/18:00:12.067,(-37 -67 -38 -12 17 17 -8 7)
1969/12/31/18:00:12.083,(47 63 58 -1 -17 -10 11 19)
1969/12/31/18:00:12.083,(-7 -51 -40 -28 -16 -4 -13 -22)
1969/12/31/18:00:12.089,(4 88 68 11 3 -20 -13 -14)
1969/12/31/18:00:12.089,(10 31 20 38 51 26 10 -12)
1969/12/31/18:00:12.106,(-41 -16 -5 -5 -27 11 -18 -32)
1969/12/31/18:00:12.106,(-7 41 28 16 -11 -20 3 -1)
1969/12/31/18:00:12.112,(28 -37 -25 -14 -1 5 -10 13)
1969/12/31/18:00:12.112,(15 -12 -5 -1 -10 14 21 2)
1969/12/31/18:00:12.119,(-2 -80 -82 -4 26 -15 4 23)
1969/12/31/18:00:12.119,(10 -11 -17 -48 -46 -20 -9 -2)
1969/12/31/18:00:12.129,(-3 -17 -38 0 29 27 -3 -4)
1969/12/31/18:00:12.129,(27 84 87 39 21 -3 -1 15)
1969/12/31/18:00:12.144,(6 -90 -67 -19 -37 -13 -7 10)
1969/12/31/18:00:12.144,(-21 -16 15 -3 23 18 23 3)
1969/12/31/18:00:12.146,(-58 -6 -28 -9 -6 -8 -12 -59)
1969/12/31/18:00:12.146,(49 66 70 17 5 -2 -12 -3)
1969/12/31/18:00:12.168,(-45 -128 -78 -12 9 -7 7 16)
1969/12/31/18:00:12.168,(15 99 2 -18 -35 -25 -30 -54)
1969/12/31/18:00:12.174,(2 82 100 72 31 25 19 9)
1969/12/31/18:00:12.174,(-6 -73 -87 -29 -15 -5 -7 -4)
1969/12/31/18:00:12.190,(29 -26 -57 -12 0 -3 -1 14)
1969/12/31/18:00:12.190,(13 7 39 8 -11 12 8 13)
1969/12/31/18:00:12.192,(-24 -118 -100 -33 -14 -23 -9 -1)
1969/12/31/18:00:12.192,(3 127 127 32 11 15 2 -12)
1969/12/31/18:00:12.206,(15 -22 -10 -19 -28 -17 -6 7)
1969/12/31/18:00:12.206,(-7 -46 -53 4 19 -9 -9 -14)
1969/12/31/18:00:12.208,(-40 -101 -62 -31 -21 8 9 -11)
1969/12/31/18:00:12.208,(46 103 73 22 3 -6 14 50)
1969/12/31/18:00:12.229,(-5 45 62 29 33 21 -2 -14)
1969/12/31/18:00:12.229,(8 -32 -28 -2 12 6 -3 27)
1969/12/31/18:00:12.230,(-16 -36 -44 -33 -17 -11 -21 -26)
1969/12/31/18:00:12.230,(-36 -128 -93 -33 -26 -14 2 -2)
1969/12/31/18:00:12.253,(-7 23 25 8 13 -20 -2 -7)
1969/12/31/18:00:12.253,(6 87 75 23 -22 23 3 -12)
1969/12/31/18:00:12.254,(51 -28 -28 -7 8 7 11 47)
1969/12/31/18:00:12.254,(-23 22 4 4 -4 -8 4 -4)
1969/12/31/18:00:12.267,(-20 -28 1 7 1 -9 -18 -63)
1969/12/31/18:00:12.267,(-17 -61 -57 -17 -3 -18 -10 -28)
1969/12/31/18:00:12.270,(5 14 23 -6 -17 0 -2 15)
1969/12/31/18:00:12.270,(-9 -40 -40 -23 -19 -4 -14 -35)
1969/12/31/18:00:12.291,(-9 -13 -9 -5 -15 -12 13 37)
1969/12/31/18:00:12.291,(-17 -71 -45 -11 14 4 -3 6)
1969/12/31/18:00:12.292,(27 90 42 8 2 3 9 -3)
1969/12/31/18:00:12.292,(14 71 61 26 21 9 2 0)
1969/12/31/18:00:12.304,(38 -10 1 14 -12 -18 -5 25)
1969/12/31/18:00:12.304,(55 -38 -21 -26 -4 28 15 45)
1969/12/31/18:00:12.314,(5 84 74 22 2 -2 10 15)
1969/12/31/18:00:12.314,(-24 4 22 18 25 21 -8 -12)
1969/12/31/18:00:12.329,(24 11 -10 -21 -18 -12 -15 -44)
1969/12/31/18:00:12.329,(-39 -58 -39 -1 -18 -23 -15 -16)
1969/12/31/18:00:12.331,(-10 -50 -12 -1 14 6 -1 -2)
1969/12/31/18:00:12.331,(-31 -35 -26 -5 -7 -5 -27 -38)
1969/12/31/18:00:12.353,(0 29 16 -1 30 18 17 11)
1969/12/31/18:00:12.353,(16 36 29 -8 -43 -19 -6 -3)
1969/12/31/18:00:12.354,(3 43 9 -11 7 6 -17 -18)
1969/12/31/18:00:12.355,(-19 -90 -60 -8 -14 -17 -4 -14)
1969/12/31/18:00:12.366,(-28 20 -23 12 23 7 -6 -14)
1969/12/31/18:00:12.366,(30 78 66 30 16 12 7 8)
1969/12/31/18:00:12.375,(4 33 17 3 -4 -2 10 14)
1969/12/31/18:00:12.375,(-31 -81 -58 -30 -24 -9 -1 11)
1969/12/31/18:00:12.391,(83 104 106 34 -4 -2 6 54)
1969/12/31/18:00:12.391,(-35 -90 -74 -13 17 -3 16 10)
1969/12/31/18:00:12.393,(4 -2 0 11 -3 -3 -11 10)
1969/12/31/18:00:12.393,(39 -30 -51 -28 3 22 8 6)
1969/12/31/18:00:12.422,(-40 32 54 6 -8 2 3 -11)
1969/12/31/18:00:12.422,(-22 -55 -81 -18 12 -1 1 -5)
1969/12/31/18:00:12.424,(40 41 75 33 13 -6 0 28)
1969/12/31/18:00:12.424,(28 74 42 43 15 -24 -10 18)
1969/12/31/18:00:12.428,(-7 -29 -15 -18 -26 19 16 50)
1969/12/31/18:00:12.428,(15 -69 -54 -27 -8 -2 2 2)
1969/12/31/18:00:12.437,(17 35 36 11 5 4 -1 22)
1969/12/31/18:00:12.437,(-25 -22 -34 -21 -18 -16 -9 -18)
1969/12/31/18:00:12.453,(-18 -78 -45 -25 -19 -30 -14 -8)
1969/12/31/18:00:12.453,(2 60 23 32 40 24 13 -1)
1969/12/31/18:00:12.459,(16 -20 -32 -7 -10 3 6 0)
1969/12/31/18:00:12.459,(14 30 28 -4 -12 6 15 14)
1969/12/31/18:00:12.477,(1 -58 -33 -8 -7 -15 -2 0)
1969/12/31/18:00:12.477,(-29 -24 12 1 7 4 -7 -20)
1969/12/31/18:00:12.482,(21 -27 -44 -5 16 9 -4 -6)
1969/12/31/18:00:12.482,(17 45 45 7 -14 -13 -15 -26)
1969/12/31/18:00:12.490,(-68 -60 -69 -15 2 -8 -17 -68)
1969/12/31/18:00:12.490,(0 -6 8 -6 -17 -7 -10 2)
1969/12/31/18:00:12.499,(-37 -105 -76 -35 -13 5 6 -9)
1969/12/31/18:00:12.499,(13 73 43 5 -5 -1 8 20)
1969/12/31/18:00:12.514,(51 106 77 36 22 15 4 8)
1969/12/31/18:00:12.514,(14 126 99 37 6 -5 -1 -1)
1969/12/31/18:00:12.516,(4 15 15 8 4 -5 4 8)
1969/12/31/18:00:12.516,(-24 -120 -79 -29 -9 1 -3 -6)
1969/12/31/18:00:12.538,(-41 -41 -55 -17 -2 6 8 4)
1969/12/31/18:00:12.538,(-56 -17 19 8 7 -3 -20 -30)
1969/12/31/18:00:12.539,(38 -22 -46 -14 -1 -3 15 30)
1969/12/31/18:00:12.539,(-2 93 71 19 -19 -7 -1 -10)
1969/12/31/18:00:12.551,(46 14 3 0 0 20 13 20)
1969/12/31/18:00:12.551,(7 -53 -52 -18 2 -5 -2 13)
1969/12/31/18:00:12.560,(-41 -53 -32 -23 -22 -16 -22 -39)
1969/12/31/18:00:12.560,(-24 -16 -14 9 26 -3 -1 -13)
1969/12/31/18:00:12.576,(-5 -60 -56 -29 -21 2 2 9)
1969/12/31/18:00:12.576,(35 86 86 46 22 22 16 8)
1969/12/31/18:00:12.578,(-10 -38 -22 1 -22 -18 -8 -13)
1969/12/31/18:00:12.578,(-5 -25 -21 -14 21 26 12 6)
1969/12/31/18:00:12.600,(-11 -57 -4 -4 1 -10 -10 -9)
1969/12/31/18:00:12.600,(46 56 29 21 9 9 10 24)
1969/12/31/18:00:12.601,(1 17 -2 -25 -36 -17 -6 -5)
1969/12/31/18:00:12.601,(-22 -41 -28 16 32 4 -3 -5)
1969/12/31/18:00:12.613,(15 17 19 -1 -8 4 5 6)
1969/12/31/18:00:12.613,(-30 -59 -36 -21 -2 -13 -13 -20)
1969/12/31/18:00:12.622,(-6 19 7 -13 -17 3 -2 -10)
1969/12/31/18:00:12.622,(-4 11 -12 -4 -15 -16 -10 -2)
1969/12/31/18:00:12.638,(-11 -2 13 10 6 -2 -16 -28)
1969/12/31/18:00:12.638,(-7 -2 2 12 13 -11 -5 -20)
1969/12/31/18:00:12.640,(-8 -14 -5 13 15 23 10 -9)
1969/12/31/18:00:12.640,(19 -9 -7 -5 -11 -15 -43 44)
1969/12/31/18:00:12.661,(-17 37 19 -7 -6 -6 10 -25)
1969/12/31/18:00:12.661,(-6 -26 -32 -26 -25 -1 0 5)
1969/12/31/18:00:12.662,(-50 -17 3 9 22 19 13 -18)
1969/12/31/18:00:12.662,(88 35 8 -1 -3 0 8 21)
1969/12/31/18:00:12.675,(28 38 26 8 -2 -7 -11 15)
1969/12/31/18:00:12.675,(-11 -46 -36 -23 -7 5 -2 12)
1969/12/31/18:00:12.684,(-42 -7 -6 6 11 -3 8 -20)
1969/12/31/18:00:12.684,(-22 6 14 -9 -25 -14 -8 -20)
1969/12/31/18:00:12.698,(11 0 1 -3 15 18 8 -9)
1969/12/31/18:00:12.698,(-11 -53 -27 9 10 4 0 -6)
1969/12/31/18:00:12.707,(66 52 20 11 6 1 3 43)
1969/12/31/18:00:12.707,(-2 24 18 5 2 4 0 -17)
1969/12/31/18:00:12.723,(-37 -26 -19 -12 -11 -2 16 -26)
1969/12/31/18:00:12.723,(-39 -18 -13 -16 -14 -14 -6 2)
1969/12/31/18:00:12.724,(-18 -8 0 1 8 -2 -24 -26)
1969/12/31/18:00:12.724,(-4 -4 11 1 -4 8 10 9)
1969/12/31/18:00:12.746,(-27 17 12 16 10 -1 -14 -10)
1969/12/31/18:00:12.746,(35 -10 -6 -4 -2 5 20 20)
1969/12/31/18:00:12.752,(7 22 -2 0 1 -4 -15 -10)
1969/12/31/18:00:12.752,(54 24 14 7 7 0 0 -15)
1969/12/31/18:00:12.761,(-23 47 21 7 4 -9 -21 -30)
1969/12/31/18:00:12.761,(16 -21 -24 -16 -14 -9 -17 -18)
1969/12/31/18:00:12.763,(-16 -17 5 1 1 -3 1 -8)
1969/12/31/18:00:12.763,(27 -25 -2 10 8 9 22 29)
1969/12/31/18:00:12.784,(-42 -23 4 10 8 1 3 17)
1969/12/31/18:00:12.785,(2 33 -1 -8 -12 -2 -10 -10)
1969/12/31/18:00:12.786,(29 8 -5 -4 1 1 13 18)
1969/12/31/18:00:12.786,(66 61 12 4 4 4 15 32)
1969/12/31/18:00:12.807,(-5 -67 -21 -8 -12 -4 -4 12)
1969/12/31/18:00:12.807,(3 7 -2 -4 5 1 4 1)
1969/12/31/18:00:12.809,(-3 -2 5 5 3 -1 2 6)
1969/12/31/18:00:12.809,(-33 -38 -11 -7 -4 -5 -7 -15)
1969/12/31/18:00:12.823,(14 40 9 5 0 0 -4 1)
1969/12/31/18:00:12.823,(20 -20 -20 -9 -4 4 8 28)
1969/12/31/18:00:12.829,(-18 36 24 8 2 -10 -17 -26)
1969/12/31/18:00:12.829,(-57 -28 0 -3 -1 0 3 5)
1969/12/31/18:00:12.846,(34 -6 1 6 5 5 12 41)
1969/12/31/18:00:12.846,(-5 25 1 -8 -9 -4 -2 0)
1969/12/31/18:00:12.847,(37 6 0 5 5 0 4 18)
1969/12/31/18:00:12.847,(-24 -7 -8 -5 -6 -3 8 10)
1969/12/31/18:00:12.869,(3 0 4 4 3 0 -4 -11)
1969/12/31/18:00:12.869,(3 -8 -3 4 2 3 2 4)
1969/12/31/18:00:12.871,(-2 -23 -4 1 -2 0 5 5)
1969/12/31/18:00:12.871,(-4 8 -13 -26 -11 -6 -8 -10)
1969/12/31/18:00:12.884,(12 0 -3 2 -1 -3 -4 -4)
1969/12/31/18:00:12.884,(3 10 16 16 8 3 2 1)
1969/12/31/18:00:12.890,(-1 7 9 18 7 3 1 3)
1969/12/31/18:00:12.890,(-21 -18 -5 -7 -5 -2 -5 -17)
1969/12/31/18:00:12.908,(0 -2 -19 -22 -7 -4 -3 1)
1969/12/31/18:00:12.908,(-11 2 8 6 4 0 0 -7)
1969/12/31/18:00:12.909,(1 -7 -8 -8 -3 -1 1 4)
1969/12/31/18:00:12.909,(0 4 23 29 16 6 0 -16)
1969/12/31/18:00:12.931,(9 0 -3 -5 -5 -1 -6 -5)
1969/12/31/18:00:12.931,(-3 4 -5 -1 -7 -3 -2 4)
1969/12/31/18:00:12.933,(-6 -16 -19 -35 -11 -3 -3 -2)
1969/12/31/18:00:12.933,(-13 -24 -21 -1 -6 -3 -4 -11)
1969/12/31/18:00:12.946,(1 4 -6 3 4 -1 -2 0)
1969/12/31/18:00:12.946,(-6 -1 17 15 6 5 0 -7)
1969/12/31/18:00:12.952,(-6 -10 -5 3 -2 -2 -1 -1)
1969/12/31/18:00:12.952,(-16 -10 -8 -14 -8 -6 -4 -11)
1969/12/31/18:00:12.970,(2 -16 -1 -10 -6 -8 -1 2)
1969/12/31/18:00:12.970,(-1 23 10 -2 -2 -3 -10 -11)
1969/12/31/18:00:12.971,(-2 -2 -6 -2 4 11 21 11)
1969/12/31/18:00:12.971,(-5 -18 -25 -6 -4 -6 -10 0)
1969/12/31/18:00:12.992,(-4 -59 -22 8 -3 -2 -3 -1)
1969/12/31/18:00:12.992,(1 46 28 9 5 -1 -3 -3)
1969/12/31/18:00:12.994,(2 11 16 11 3 0 1 5)
1969/12/31/18:00:12.994,(-5 -13 -36 -15 -6 -4 -11 -11)
1969/12/31/18:00:13.007,(16 79 99 32 15 9 5 7)
1969/12/31/18:00:13.007,(-18 -53 -50 -23 -12 -5 -6 -14)
1969/12/31/18:00:13.016,(-5 -12 -5 -4 -5 -5 -4 0)
1969/12/31/18:00:13.016,(4 10 4 0 1 1 -2 -3)
1969/12/31/18:00:13.031,(-7 -7 -32 -15 -7 -5 4 2)
1969/12/31/18:00:13.031,(2 -9 -3 -5 -2 1 2 6)
1969/12/31/18:00:13.032,(-5 -17 -7 -11 -3 -7 -10 -5)
1969/12/31/18:00:13.032,(-2 -7 -14 1 -2 -2 5 3)
1969/12/31/18:00:13.054,(10 48 40 22 12 7 7 4)
1969/12/31/18:00:13.054,(-8 -22 -25 -8 -4 -4 -1 -2)
1969/12/31/18:00:13.056,(3 27 31 9 4 2 1 4)
1969/12/31/18:00:13.056,(-10 -29 -17 -15 -10 -7 -3 -10)
1969/12/31/18:00:13.068,(4 22 2 -5 1 2 1 3)
1969/12/31/18:00:13.068,(-8 -47 -36 -12 -9 -4 -3 -2)
1969/12/31/18:00:13.078,(14 68 42 12 6 -1 -1 4)
1969/12/31/18:00:13.078,(0 1 28 13 11 11 5 -1)
1969/12/31/18:00:13.093,(-7 -11 -19 -7 -8 -9 -2 -9)
1969/12/31/18:00:13.093,(-3 -10 -1 -5 -7 -3 -12 -7)
1969/12/31/18:00:13.094,(-9 -24 -28 -6 -6 -4 0 -4)
1969/12/31/18:00:13.094,(1 11 15 -1 0 1 7 8)
1969/12/31/18:00:13.116,(6 10 -6 -3 -2 -1 2 5)
1969/12/31/18:00:13.116,(-2 -1 4 -2 -1 -1 -4 -1)
1969/12/31/18:00:13.118,(-7 -20 -15 2 1 0 0 -2)
1969/12/31/18:00:13.118,(-1 13 10 7 5 4 3 1)
1969/12/31/18:00:13.130,(-6 -23 -22 -12 -5 -2 -6 -6)
1969/12/31/18:00:13.130,(1 13 0 -3 -2 -2 2 2)
1969/12/31/18:00:13.139,(-1 -18 -11 -6 -4 0 -4 -1)
1969/12/31/18:00:13.139,(5 6 9 3 -3 -2 4 7)
1969/12/31/18:00:13.155,(-3 -2 -1 2 2 0 -4 -6)
1969/12/31/18:00:13.155,(-4 2 9 6 6 5 8 4)
1969/12/31/18:00:13.156,(-7 -11 -17 -8 -3 -3 -2 -5)
1969/12/31/18:00:13.156,(-2 -1 -5 -4 -4 -4 -5 -6)
1969/12/31/18:00:13.177,(6 9 -1 -3 0 0 -4 1)
1969/12/31/18:00:13.177,(-9 -28 -12 -9 -5 -3 3 3)
1969/12/31/18:00:13.179,(-12 -17 13 11 2 -5 -13 -16)
1969/12/31/18:00:13.179,(-6 20 10 -4 -3 -2 -3 -4)
1969/12/31/18:00:13.192,(19 29 2 -1 0 4 1 8)
1969/12/31/18:00:13.192,(-14 -24 -3 0 -2 -5 -7 -16)
1969/12/31/18:00:13.201,(5 25 -2 -4 -3 0 0 2)
1969/12/31/18:00:13.201,(2 -7 2 4 2 -1 0 1)
1969/12/31/18:00:13.216,(-13 -32 9 2 0 -1 -3 -5)
1969/12/31/18:00:13.216,(20 42 7 -1 0 1 3 9)
1969/12/31/18:00:13.218,(-14 -26 -18 -3 -2 -2 -6 -9)
1969/12/31/18:00:13.218,(5 31 18 0 -1 -2 -1 -1)
1969/12/31/18:00:13.247,(-8 -29 4 13 7 5 4 2)
1969/12/31/18:00:13.247,(7 28 8 -1 -3 -2 -3 -1)
1969/12/31/18:00:13.248,(-1 -6 -25 -21 -12 -7 -5 -3)
1969/12/31/18:00:13.248,(-4 -25 -5 21 7 3 3 -2)
1969/12/31/18:00:13.263,(-21 -23 12 -1 -5 -4 -5 -10)
1969/12/31/18:00:13.263,(14 63 18 0 -1 -3 -3 1)
1969/12/31/18:00:13.269,(10 8 -5 9 7 1 0 -1)
1969/12/31/18:00:13.269,(-29 -80 6 -14 -6 -1 0 2)
1969/12/31/18:00:13.278,(28 106 46 24 11 1 -2 -4)
1969/12/31/18:00:13.278,(-4 -18 -49 -22 -3 -2 -1 -6)
1969/12/31/18:00:13.279,(-11 -17 19 -5 -8 -2 -1 -1)
1969/12/31/18:00:13.279,(14 36 -54 -31 -12 -11 -6 -3)
1969/12/31/18:00:13.301,(-7 -45 -20 23 15 8 5 1)
1969/12/31/18:00:13.301,(-14 -44 25 18 3 4 2 4)
1969/12/31/18:00:13.303,(49 105 0 14 11 3 2 6)
1969/12/31/18:00:13.303,(-14 -38 -38 -26 -9 -7 -11 -13)
1969/12/31/18:00:13.315,(-15 -55 -47 -37 -19 -9 -1 2)
1969/12/31/18:00:13.315,(7 38 33 19 6 -2 -1 -1)
1969/12/31/18:00:13.324,(-21 -50 -7 -7 -3 2 3 -1)
1969/12/31/18:00:13.324,(-28 -88 -51 -34 -17 -9 -6 -3)
1969/12/31/18:00:13.340,(36 79 61 25 10 5 4 9)
1969/12/31/18:00:13.340,(-9 -14 44 36 14 5 3 -2)
1969/12/31/18:00:13.346,(1 -10 -4 -10 -3 -3 -1 3)
1969/12/31/18:00:13.346,(2 22 8 15 6 0 -4 -6)
1969/12/31/18:00:13.362,(-12 -29 -10 -10 -8 -3 1 4)
1969/12/31/18:00:13.362,(0 17 -35 -24 -10 -5 -6 -10)
1969/12/31/18:00:13.364,(-8 -22 -12 -32 -12 -7 -2 -4)
1969/12/31/18:00:13.364,(14 10 -1 -9 -5 4 7 9)
1969/12/31/18:00:13.377,(22 64 16 38 16 5 0 -5)
1969/12/31/18:00:13.377,(-3 -16 -14 44 15 4 3 0)
1969/12/31/18:00:13.393,(7 -4 6 15 5 5 3 5)
1969/12/31/18:00:13.393,(4 21 47 27 8 2 -2 -1)
1969/12/31/18:00:13.401,(-13 -33 -37 -43 -19 -9 -7 -7)
1969/12/31/18:00:13.401,(-7 -28 -33 -34 -14 -7 -3 -2)
1969/12/31/18:00:13.402,(-1 6 10 0 0 -1 0 0)
1969/12/31/18:00:13.402,(0 -17 -18 -14 -3 0 0 2)
1969/12/31/18:00:13.424,(-16 -24 -14 -13 -5 -3 -4 -7)
1969/12/31/18:00:13.424,(6 -1 14 -7 -6 -2 0 4)
1969/12/31/18:00:13.430,(-1 -19 -21 -3 -1 -2 -1 1)
1969/12/31/18:00:13.430,(11 47 46 26 11 4 3 2)
1969/12/31/18:00:13.438,(-5 -23 -25 -10 -4 -3 -3 0)
1969/12/31/18:00:13.438,(3 6 12 -1 -2 3 1 2)
1969/12/31/18:00:13.448,(-5 -23 -5 1 0 -2 1 1)
1969/12/31/18:00:13.448,(10 30 23 15 8 3 4 5)
1969/12/31/18:00:13.463,(-5 9 13 -2 -5 -4 -7 -13)
1969/12/31/18:00:13.463,(-3 -17 0 -15 -7 -2 1 2)
1969/12/31/18:00:13.464,(-1 -1 -24 -3 -1 2 -2 -2)
1969/12/31/18:00:13.464,(5 20 32 31 14 6 4 1)
1969/12/31/18:00:13.486,(-4 -19 -16 -10 -4 -1 2 2)
1969/12/31/18:00:13.486,(-1 -11 -14 -7 -3 -3 0 1)
1969/12/31/18:00:13.488,(-9 -20 7 -2 -5 -5 -3 -4)
1969/12/31/18:00:13.488,(5 31 29 -3 1 -2 -1 -1)
1969/12/31/18:00:13.500,(7 7 12 27 10 3 3 5)
1969/12/31/18:00:13.500,(1 1 3 4 3 2 1 1)
1969/12/31/18:00:13.509,(-8 -10 -6 -3 -4 -2 -4 -3)
1969/12/31/18:00:13.509,(-4 -7 -18 -11 -4 -4 -4 -8)
1969/12/31/18:00:13.524,(-4 -13 -16 -16 -8 -3 -1 0)
1969/12/31/18:00:13.524,(5 7 -6 -2 1 -1 -1 0)
1969/12/31/18:00:13.531,(-2 -2 -2 4 5 3 2 1)
1969/12/31/18:00:13.531,(9 16 12 4 -1 -1 2 4)
1969/12/31/18:00:13.547,(-17 -28 -29 -9 -1 -3 -5 -8)
1969/12/31/18:00:13.547,(-6 -14 -12 -3 -2 -1 -4 -5)
1969/12/31/18:00:13.563,(4 7 10 -4 0 0 2 4)
1969/12/31/18:00:13.563,(0 5 15 19 6 -1 0 2)
1969/12/31/18:00:13.563,(2 -9 0 -1 -3 0 1 5)
1969/12/31/18:00:13.563,(-7 -13 -8 -9 -4 -5 -2 -5)
1969/12/31/18:00:13.571,(-1 8 4 4 -1 0 -3 -4)
1969/12/31/18:00:13.571,(-3 -14 -24 -13 -4 -2 -2 -3)
1969/12/31/18:00:13.585,(-3 -10 -6 -10 -4 -3 0 0)
1969/12/31/18:00:13.585,(1 6 15 5 3 2 1 1)
1969/12/31/18:00:13.593,(1 6 17 6 2 0 -1 -2)
1969/12/31/18:00:13.593,(-1 -4 -12 -3 -2 0 0 0)
1969/12/31/18:00:13.609,(-4 -10 -11 -11 -7 -4 -5 -6)
1969/12/31/18:00:13.609,(1 6 -4 0 2 1 -2 0)
1969/12/31/18:00:13.611,(-3 -1 -10 -4 -2 -1 -1 -2)
1969/12/31/18:00:13.611,(-1 -8 -9 -1 0 2 0 1)
1969/12/31/18:00:13.634,(0 8 2 -2 -1 -1 1 -1)
1969/12/31/18:00:13.634,(-2 -3 2 -3 -4 -1 0 0)
1969/12/31/18:00:13.635,(-2 1 1 3 -2 0 -2 -1)
1969/12/31/18:00:13.635,(-4 -12 -18 -7 -7 -3 -1 -1)
1969/12/31/18:00:13.647,(2 13 13 5 1 -1 -1 -1)
1969/12/31/18:00:13.647,(0 3 -1 -3 1 0 -2 0)
1969/12/31/18:00:13.654,(0 -1 -1 -1 -2 -2 1 0)
1969/12/31/18:00:13.654,(-4 -8 -6 1 0 1 -1 -4)
1969/12/31/18:00:13.670,(-2 -7 -9 -4 -1 -2 -1 -1)
1969/12/31/18:00:13.670,(-6 -7 -8 -6 -4 -5 -5 -6)
1969/12/31/18:00:13.679,(2 5 7 4 1 -1 -1 0)
1969/12/31/18:00:13.679,(-1 -2 -3 -6 -6 -5 -3 -2)
1969/12/31/18:00:13.694,(-3 -3 -2 -2 -4 -3 -3 -1)
1969/12/31/18:00:13.694,(3 4 3 0 -2 1 1 2)
1969/12/31/18:00:13.695,(0 1 -5 -2 2 1 0 1)
1969/12/31/18:00:13.695,(-2 -8 -3 4 5 2 0 -1)
1969/12/31/18:00:13.709,(2 -2 -3 1 0 1 1 1)
1969/12/31/18:00:13.709,(0 1 3 -1 0 -3 -1 0)
1969/12/31/18:00:13.716,(0 3 8 10 2 2 0 -1)
1969/12/31/18:00:13.716,(0 2 -4 -4 -3 -2 -4 -1)
1969/12/31/18:00:13.732,(0 0 3 3 6 4 2 -1)
1969/12/31/18:00:13.732,(-2 -4 -2 -3 1 0 -2 -2)
1969/12/31/18:00:13.735,(-1 -1 2 5 5 0 1 0)
1969/12/31/18:00:13.735,(2 3 2 0 -1 0 2 1)
1969/12/31/18:00:13.763,(-3 -5 -6 -4 -2 -1 -2 -3)
1969/12/31/18:00:13.763,(-1 -2 -2 -1 -2 -2 0 0)
1969/12/31/18:00:13.765,(-1 -1 -2 -2 1 -1 -3 0)
1969/12/31/18:00:13.765,(-1 -4 -5 -5 -6 -3 -3 -2)
1969/12/31/18:00:13.769,(-1 0 1 -2 -3 -2 -2 -2)
1969/12/31/18:00:13.769,(-1 1 -1 -3 -3 -2 -3 -3)
1969/12/31/18:00:13.779,(-3 -4 -2 -1 -2 -2 -2 -2)
1969/12/31/18:00:13.779,(1 4 -3 0 3 1 0 0)
1969/12/31/18:00:13.794,(-4 -8 -1 0 0 -2 -3 -2)
1969/12/31/18:00:13.794,(0 5 -1 0 1 0 0 0)
1969/12/31/18:00:13.796,(-4 -6 1 1 0 -1 -2 -2)
1969/12/31/18:00:13.796,(1 1 -1 1 1 1 -1 -1)
1969/12/31/18:00:13.818,(3 3 4 7 5 2 2 2)
1969/12/31/18:00:13.818,(0 -1 2 2 -1 -1 -2 -1)
1969/12/31/18:00:13.819,(-1 0 -1 -1 -3 -2 0 -1)
1969/12/31/18:00:13.819,(-4 -4 -3 -6 -5 -3 -4 -1)
1969/12/31/18:00:13.832,(0 1 2 1 2 -1 0 1)
1969/12/31/18:00:13.832,(-1 -3 2 2 -1 -1 0 -1)
1969/12/31/18:00:13.847,(1 1 1 -2 -1 2 1 0)
1969/12/31/18:00:13.847,(-2 -2 1 -1 -1 0 1 0)
1969/12/31/18:00:13.856,(-2 -1 0 -3 -2 -2 -3 -2)
1969/12/31/18:00:13.856,(0 -1 -2 0 0 1 3 0)
1969/12/31/18:00:13.857,(-1 -5 -8 -10 -5 -4 -3 -4)
1969/12/31/18:00:13.857,(-2 -2 -2 -1 1 0 1 -3)
1969/12/31/18:00:13.879,(-1 0 0 -4 -3 -1 -2 -3)
1969/12/31/18:00:13.879,(0 -2 0 -1 0 -1 0 -1)
1969/12/31/18:00:13.880,(-3 -4 -8 -4 -4 -3 0 -2)
1969/12/31/18:00:13.880,(2 -1 1 1 2 -1 -2 -1)
1969/12/31/18:00:13.894,(-1 1 -5 -3 -2 -1 -1 0)
1969/12/31/18:00:13.894,(-1 -3 -4 -4 -5 -3 -1 -1)
1969/12/31/18:00:13.901,(0 0 -5 -1 -1 -1 0 -2)
1969/12/31/18:00:13.901,(1 5 10 3 -2 -2 -2 -2)
1969/12/31/18:00:13.918,(-2 -1 -2 -3 -1 0 -2 -2)
1969/12/31/18:00:13.918,(-2 0 -2 -3 0 0 -1 1)
1969/12/31/18:00:13.920,(-3 -3 -2 -3 -5 -2 -1 -3)
1969/12/31/18:00:13.920,(-1 -2 -4 1 2 0 0 -1)
1969/12/31/18:00:13.941,(0 -2 0 -2 -4 -1 -1 -2)
1969/12/31/18:00:13.941,(-1 0 1 0 -3 -1 -1 0)
1969/12/31/18:00:13.942,(0 3 3 3 3 2 0 3)
1969/12/31/18:00:13.942,(-4 -4 -1 1 0 -1 -1 -4)
1969/12/31/18:00:13.942,(-15 -30 -40 -25 -4 -2 -6 -11)
1969/12/31/18:00:13.942,(4 -13 -43 -6 3 1 3 7)
1969/12/31/18:00:13.943,(7 56 106 90 22 6 -1 -4)
1969/12/31/18:00:13.943,(-6 -14 4 -27 -6 -1 0 0)
1969/12/31/18:00:13.966,(-8 -22 -25 -16 -10 -5 -4 -8)
1969/12/31/18:00:13.966,(-4 -18 -64 -43 -12 -6 -5 -5)
1969/12/31/18:00:13.967,(-6 -29 -57 -25 -7 -4 -1 -1)
1969/12/31/18:00:13.967,(13 78 113 57 18 5 1 1)
1969/12/31/18:00:13.980,(1 3 28 8 0 -2 0 1)
1969/12/31/18:00:13.980,(-13 -33 -47 -37 -12 -4 -1 -3)
1969/12/31/18:00:13.981,(0 -3 -5 -4 -1 0 1 1)
1969/12/31/18:00:13.981,(3 11 40 27 7 1 2 3)
1969/12/31/18:00:14.003,(-5 -19 -20 -20 -13 -4 -4 -5)
1969/12/31/18:00:14.003,(-1 6 -13 -21 -1 -2 -2 -3)
1969/12/31/18:00:14.004,(2 -3 -7 13 1 1 -1 1)
1969/12/31/18:00:14.004,(-6 -17 -10 -28 -3 -1 -2 -1)
1969/12/31/18:00:14.028,(3 25 44 36 3 -1 -2 0)
1969/12/31/18:00:14.028,(3 15 4 9 4 0 0 -2)
1969/12/31/18:00:14.029,(-1 -1 4 3 0 0 0 -1)
1969/12/31/18:00:14.029,(0 -6 -5 3 -1 1 3 3)
1969/12/31/18:00:14.042,(-6 -18 -32 -28 -8 -3 -4 -3)
1969/12/31/18:00:14.042,(-1 8 0 -18 -8 -3 -3 -3)
1969/12/31/18:00:14.043,(4 8 6 9 2 -1 1 0)
1969/12/31/18:00:14.043,(-4 -19 1 12 1 2 1 -1)
1969/12/31/18:00:14.066,(0 5 -2 -15 -4 -2 -4 -4)
1969/12/31/18:00:14.066,(-2 -5 -2 1 -2 -1 1 0)
1969/12/31/18:00:14.066,(-2 1 4 2 2 1 2 2)
1969/12/31/18:00:14.067,(-2 -5 -6 2 0 0 1 -1)
1969/12/31/18:00:14.089,(-2 -4 3 -2 1 -1 -3 -2)
1969/12/31/18:00:14.089,(-2 3 7 -4 -3 0 -2 -2)
1969/12/31/18:00:14.090,(-2 -6 -16 -9 -4 -3 -3 -2)
1969/12/31/18:00:14.090,(0 4 4 9 1 0 0 1)
1969/12/31/18:00:14.106,(4 4 5 1 2 -3 0 -1)
1969/12/31/18:00:14.106,(4 -2 -8 -11 -5 0 -1 -2)
1969/12/31/18:00:14.106,(-7 0 1 -2 -1 2 6 2)
1969/12/31/18:00:14.106,(-11 -5 7 13 6 3 -3 -3)
1969/12/31/18:00:14.128,(-9 -7 -3 -5 -5 -15 -13 -1)
1969/12/31/18:00:14.128,(30 3 -8 -7 -3 6 14 1)
1969/12/31/18:00:14.128,(7 1 0 1 1 16 -15 -1)
1969/12/31/18:00:14.128,(29 12 11 9 4 -13 15 14)
1969/12/31/18:00:14.151,(-42 -16 -6 -4 -2 -10 -34 -13)
1969/12/31/18:00:14.151,(-13 0 -4 -6 -4 18 21 -1)
1969/12/31/18:00:14.152,(-10 -31 -22 -9 -9 -24 -12 -2)
1969/12/31/18:00:14.152,(-23 -4 3 6 3 9 -10 -21)
1969/12/31/18:00:14.165,(14 9 2 -2 4 19 -3 5)
1969/12/31/18:00:14.165,(4 -9 -4 -7 -12 -22 -6 -2)
1969/12/31/18:00:14.166,(-7 4 7 2 5 28 12 1)
1969/12/31/18:00:14.166,(-7 -5 -7 -5 -16 -44 -9 -3)
1969/12/31/18:00:14.189,(1 6 8 6 6 -2 -4 7)
1969/12/31/18:00:14.189,(-20 -6 -4 0 5 20 -3 -21)
1969/12/31/18:00:14.190,(4 9 -7 -4 -1 18 17 -1)
1969/12/31/18:00:14.190,(-7 -10 2 5 8 21 0 -2)
1969/12/31/18:00:14.213,(-5 4 0 -6 -16 -51 0 0)
1969/12/31/18:00:14.213,(29 4 6 0 -1 -1 12 13)
1969/12/31/18:00:14.214,(-19 0 -3 7 9 -4 14 -3)
1969/12/31/18:00:14.214,(-20 -25 -20 -14 -9 19 22 -5)
1969/12/31/18:00:14.227,(-13 7 7 1 0 -8 -35 -54)
1969/12/31/18:00:14.227,(35 3 6 -6 -9 -52 58 60)
1969/12/31/18:00:14.228,(-17 -23 -4 -2 -5 15 -52 -31)
1969/12/31/18:00:14.228,(22 27 2 -2 -11 -12 -1 -11)
1969/12/31/18:00:14.251,(-10 -21 -2 14 -1 66 31 24)
1969/12/31/18:00:14.251,(-18 15 5 -5 38 -15 -35 -25)
1969/12/31/18:00:14.252,(-5 5 5 10 -52 -15 33 18)
1969/12/31/18:00:14.252,(4 -7 -6 1 34 8 -40 8)
1969/12/31/18:00:14.274,(-10 -16 -12 1 23 24 27 -15)
1969/12/31/18:00:14.274,(27 10 -3 2 -6 -12 -10 9)
1969/12/31/18:00:14.274,(-44 -23 -5 -15 -11 -23 -4 -23)
1969/12/31/18:00:14.274,(-2 10 0 -7 -5 -27 -41 -8)
1969/12/31/18:00:14.289,(-2 -3 -12 -8 -1 -1 6 -6)
1969/12/31/18:00:14.289,(-108 -37 -4 0 -7 24 -33 -55)
1969/12/31/18:00:14.290,(101 42 5 0 13 -15 28 49)
1969/12/31/18:00:14.290,(7 -21 0 6 -9 7 40 50)
1969/12/31/18:00:14.312,(23 44 18 8 16 13 -14 -20)
1969/12/31/18:00:14.312,(33 3 -6 1 -10 0 -6 -22)
1969/12/31/18:00:14.313,(-37 1 5 -6 -8 -9 15 -8)
1969/12/31/18:00:14.313,(-33 -11 -5 -2 -1 -18 -43 -72)
1969/12/31/18:00:14.336,(-35 -21 -4 -7 -12 16 58 18)
1969/12/31/18:00:14.336,(-12 14 4 -3 -15 -37 -101 -34)
1969/12/31/18:00:14.336,(49 -1 -3 5 18 -2 16 24)
1969/12/31/18:00:14.336,(-19 -1 3 -1 -1 16 -18 -14)
1969/12/31/18:00:14.350,(36 4 -7 -11 -9 -28 0 28)
1969/12/31/18:00:14.350,(14 3 3 8 7 29 33 35)
1969/12/31/18:00:14.351,(-38 1 5 6 14 16 -30 -66)
1969/12/31/18:00:14.351,(-21 -3 9 10 -3 -11 -6 -15)
1969/12/31/18:00:14.374,(42 19 -6 -12 -9 7 20 67)
1969/12/31/18:00:14.374,(-44 -34 -14 -4 -1 2 6 -51)
1969/12/31/18:00:14.375,(3 -15 -5 -4 1 2 -16 46)
1969/12/31/18:00:14.375,(0 11 -3 -5 -10 -6 -7 -59)
1969/12/31/18:00:14.398,(15 -2 7 4 2 -9 2 -4)
1969/12/31/18:00:14.398,(21 0 -5 -2 1 21 -27 31)
1969/12/31/18:00:14.398,(2 36 7 0 2 -15 -8 -4)
1969/12/31/18:00:14.398,(0 -17 -11 -5 -1 20 57 55)
1969/12/31/18:00:14.412,(1 -52 -20 -7 -6 -2 -25 34)
1969/12/31/18:00:14.412,(10 16 2 -4 -6 13 12 -9)
1969/12/31/18:00:14.413,(-9 -1 -2 -6 -11 -32 -17 -30)
1969/12/31/18:00:14.413,(9 19 5 2 -3 13 16 5)
1969/12/31/18:00:14.436,(15 2 2 2 -5 -19 3 22)
1969/12/31/18:00:14.436,(-15 -15 -7 1 -1 0 8 -14)
1969/12/31/18:00:14.437,(23 8 7 3 12 27 12 8)
1969/12/31/18:00:14.437,(16 8 11 12 1 -58 -21 18)
1969/12/31/18:00:14.459,(26 23 -1 -7 -9 2 -26 -55)
1969/12/31/18:00:14.459,(2 16 11 5 2 -28 5 2)
1969/12/31/18:00:14.460,(-2 -18 -9 -2 3 23 8 -6)
1969/12/31/18:00:14.460,(-5 1 -1 1 3 15 21 -6)
1969/12/31/18:00:14.474,(-45 -23 -9 -2 1 11 10 -5)
1969/12/31/18:00:14.475,(-3 6 -2 -4 -2 -26 -29 -6)
1969/12/31/18:00:14.475,(-68 -36 -3 3 0 -19 11 -37)
1969/12/31/18:00:14.475,(112 40 4 -1 3 42 41 118)
1969/12/31/18:00:14.497,(-7 29 11 4 0 -4 11 -18)
1969/12/31/18:00:14.497,(-62 -31 -9 -5 -3 11 -9 -45)
1969/12/31/18:00:14.498,(39 -16 -11 -7 -1 -5 -5 31)
1969/12/31/18:00:14.498,(-44 -10 -6 -10 -13 -5 -18 -50)
1969/12/31/18:00:14.521,(17 -7 1 -2 -6 -20 14 28)
1969/12/31/18:00:14.521,(16 9 5 7 8 12 -27 7)
1969/12/31/18:00:14.522,(-14 14 10 6 3 3 30 11)
1969/12/31/18:00:14.522,(-19 -23 -13 -8 -10 -3 15 -13)
1969/12/31/18:00:14.534,(-4 5 0 2 4 -10 -33 -35)
1969/12/31/18:00:14.534,(45 8 10 4 -2 5 65 73)
1969/12/31/18:00:14.545,(19 -10 -10 0 4 5 -15 17)
1969/12/31/18:00:14.545,(22 11 -2 -8 -5 -13 4 38)
1969/12/31/18:00:14.560,(21 19 4 -1 -3 15 24 17)
1969/12/31/18:00:14.560,(-27 -35 -16 -11 -7 6 -19 0)
1969/12/31/18:00:14.562,(-6 11 9 1 1 3 -9 3)
1969/12/31/18:00:14.562,(-7 8 4 4 2 -8 -21 -25)
1969/12/31/18:00:14.583,(-40 -27 -11 -3 -3 7 18 -16)
1969/12/31/18:00:14.583,(9 24 11 2 2 0 -2 -8)
1969/12/31/18:00:14.584,(31 2 4 7 5 11 15 59)
1969/12/31/18:00:14.584,(-77 -12 -7 -5 -2 2 16 -23)
1969/12/31/18:00:14.596,(44 19 0 -7 -12 -6 -18 -3)
1969/12/31/18:00:14.596,(-16 -23 -12 -5 -4 -5 -24 -21)
1969/12/31/18:00:14.605,(-44 -12 -2 -3 -3 -8 -24 -67)
1969/12/31/18:00:14.605,(-36 -10 -6 -4 0 3 12 -14)
1969/12/31/18:00:14.621,(-8 -48 -12 -1 4 -5 7 11)
1969/12/31/18:00:14.621,(-8 18 7 1 4 4 22 20)
1969/12/31/18:00:14.623,(27 16 6 5 2 2 10 50)
1969/12/31/18:00:14.623,(-11 -1 6 8 9 9 -23 -11)
1969/12/31/18:00:14.644,(31 28 -4 -9 -11 -25 -4 32)
1969/12/31/18:00:14.644,(10 4 -1 -3 -4 1 -6 -30)
1969/12/31/18:00:14.645,(-28 -17 -3 -2 0 2 2 -22)
1969/12/31/18:00:14.645,(-1 -6 -1 0 2 4 -2 -22)
1969/12/31/18:00:14.658,(-28 -10 2 3 4 2 -16 -37)
1969/12/31/18:00:14.659,(-9 -5 0 2 0 0 21 16)
1969/12/31/18:00:14.667,(8 17 6 1 4 4 1 -4)
1969/12/31/18:00:14.667,(21 27 11 5 -2 -32 -33 -14)
1969/12/31/18:00:14.683,(-7 -50 -17 -6 -3 16 7 13)
1969/12/31/18:00:14.683,(46 13 -4 -2 -2 -4 20 50)
1969/12/31/18:00:14.689,(-26 5 -5 -4 6 -11 -47 -66)
1969/12/31/18:00:14.689,(-44 -51 -16 4 -9 8 15 -1)
1969/12/31/18:00:14.706,(22 19 13 3 1 4 17 58)
1969/12/31/18:00:14.706,(35 42 13 7 4 -1 -19 -67)
1969/12/31/18:00:14.707,(10 -23 -8 -17 -20 -14 -8 14)
1969/12/31/18:00:14.707,(37 11 2 11 20 7 7 17)
1969/12/31/18:00:14.719,(-18 10 1 1 -4 -7 -9 -37)
1969/12/31/18:00:14.719,(-59 -6 -3 -10 -5 10 8 -10)
1969/12/31/18:00:14.737,(-21 -14 -7 -3 -4 -7 -6 -25)
1969/12/31/18:00:14.737,(17 1 -5 -10 -9 -3 -5 -2)
1969/12/31/18:00:14.744,(2 -1 -1 8 12 3 -6 -5)
1969/12/31/18:00:14.744,(22 22 11 4 -3 -8 -2 14)
1969/12/31/18:00:14.746,(-1 3 -1 1 4 15 29 0)
1969/12/31/18:00:14.746,(10 -23 -8 0 3 -3 -59 20)
1969/12/31/18:00:14.768,(15 3 3 4 6 -36 48 76)
1969/12/31/18:00:14.768,(-38 -27 -14 -12 -48 -20 -3 2)
1969/12/31/18:00:14.769,(22 29 6 -13 13 -3 16 30)
1969/12/31/18:00:14.769,(49 -6 -5 -8 -9 31 15 -52)
1969/12/31/18:00:14.790,(-28 10 0 3 7 15 -39 -56)
1969/12/31/18:00:14.790,(26 30 14 16 31 6 -19 14)
1969/12/31/18:00:14.792,(-12 -41 -13 2 -11 -28 -6 -15)
1969/12/31/18:00:14.792,(-14 20 5 -20 -26 -13 13 -7)
1969/12/31/18:00:14.805,(-23 -27 -19 -20 -24 -19 -13 -35)
1969/12/31/18:00:14.805,(-6 -26 -21 -14 -4 48 44 -21)
1969/12/31/18:00:14.820,(-10 13 5 9 -1 -22 -44 -63)
1969/12/31/18:00:14.820,(9 6 5 11 33 10 8 22)
1969/12/31/18:00:14.829,(-7 -4 4 5 -5 -9 1 -1)
1969/12/31/18:00:14.829,(5 8 4 3 2 -37 -50 -11)
1969/12/31/18:00:14.830,(3 10 1 3 3 10 10 16)
1969/12/31/18:00:14.831,(-39 -15 6 16 12 31 25 10)
1969/12/31/18:00:14.843,(28 16 -3 -13 -19 -15 -10 1)
1969/12/31/18:00:14.844,(16 3 4 0 11 -7 1 14)
1969/12/31/18:00:14.852,(-26 5 7 5 -20 -18 -37 -8)
1969/12/31/18:00:14.852,(-73 -33 -14 8 16 21 -9 -85)
1969/12/31/18:00:14.867,(-31 0 1 -11 20 44 4 -32)
1969/12/31/18:00:14.867,(2 -9 -2 10 10 -2 16 12)
1969/12/31/18:00:14.874,(14 3 -6 -26 -63 -45 -17 -22)
1969/12/31/18:00:14.874,(39 35 12 7 15 -9 12 32)
1969/12/31/18:00:14.891,(-20 -25 -20 -39 -70 -25 -8 -13)
1969/12/31/18:00:14.891,(-6 -11 -5 -11 16 34 4 13)
1969/12/31/18:00:14.893,(-35 10 4 14 38 39 11 -6)
1969/12/31/18:00:14.893,(21 2 -5 5 0 -29 -31 -48)
1969/12/31/18:00:14.904,(-6 15 9 20 29 17 -25 -14)
1969/12/31/18:00:14.904,(-36 -21 -2 -6 -54 -50 -9 -11)
1969/12/31/18:00:14.915,(34 0 -6 -3 -1 5 2 49)
1969/12/31/18:00:14.915,(-20 1 -1 -14 -5 -19 -12 14)
1969/12/31/18:00:14.929,(6 -13 -4 -3 -17 -1 5 -2)
1969/12/31/18:00:14.929,(-16 0 0 1 8 -2 -10 -37)
1969/12/31/18:00:14.935,(-10 -6 2 39 73 21 16 -12)
1969/12/31/18:00:14.935,(10 -5 -11 -47 -48 54 6 32)
1969/12/31/18:00:14.953,(4 41 22 6 -16 -2 10 32)
1969/12/31/18:00:14.953,(12 -27 -1 6 6 11 8 23)
1969/12/31/18:00:14.954,(-26 -29 -21 -27 -17 -24 18 -5)
1969/12/31/18:00:14.954,(10 7 8 37 49 -17 -12 -2)
1969/12/31/18:00:14.975,(-19 -9 -10 -27 -16 5 -4 -19)
1969/12/31/18:00:14.975,(18 16 5 13 21 1 11 10)
1969/12/31/18:00:14.977,(27 13 2 -7 -32 2 0 26)
1969/12/31/18:00:14.977,(39 -44 -43 -17 10 6 25 63)
1969/12/31/18:00:14.991,(12 49 34 22 11 6 -4 -8)
1969/12/31/18:00:14.991,(18 31 21 7 9 -4 -4 -13)
1969/12/31/18:00:14.997,(-36 -47 -14 -3 5 2 -20 -26)
1969/12/31/18:00:14.997,(-10 20 14 3 -20 -8 1 -6)
1969/12/31/18:00:15.013,(-11 -14 -21 22 28 -26 -18 -39)
1969/12/31/18:00:15.013,(-31 -86 -40 -18 -10 -7 -1 3)
1969/12/31/18:00:15.022,(-49 12 -16 -12 11 37 17 5)
1969/12/31/18:00:15.022,(10 48 64 3 -35 -21 9 0)
1969/12/31/18:00:15.037,(-14 6 17 -1 -6 8 21 3)
1969/12/31/18:00:15.037,(21 25 20 32 39 7 11 2)
1969/12/31/18:00:15.039,(18 0 1 11 -11 -3 -10 4)
1969/12/31/18:00:15.039,(-33 -65 -53 -32 -24 -4 8 2)
1969/12/31/18:00:15.052,(0 11 -25 10 31 -18 -13 -10)
1969/12/31/18:00:15.052,(11 -8 29 6 0 51 21 54)
1969/12/31/18:00:15.059,(-12 -4 -58 -43 -47 -13 3 -8)
1969/12/31/18:00:15.059,(43 80 102 36 48 34 7 18)
1969/12/31/18:00:15.076,(33 26 86 43 9 -2 7 22)
1969/12/31/18:00:15.076,(13 -10 6 4 4 -7 -1 -7)
1969/12/31/18:00:15.077,(26 40 5 1 -16 -28 -24 -12)
1969/12/31/18:00:15.077,(16 -7 -8 3 -5 -13 1 10)
1969/12/31/18:00:15.099,(-54 -85 -94 -21 31 -9 3 -5)
1969/12/31/18:00:15.099,(-37 66 75 -8 -29 22 -7 -12)
1969/12/31/18:00:15.101,(-17 7 17 23 2 -18 12 -1)
1969/12/31/18:00:15.101,(-22 -15 -19 -17 -39 -11 -10 -49)
1969/12/31/18:00:15.114,(53 -52 -39 -15 18 25 12 81)
1969/12/31/18:00:15.114,(-17 -27 -77 -23 -8 -9 -11 -26)
1969/12/31/18:00:15.121,(-27 -33 -6 -7 5 7 3 -9)
1969/12/31/18:00:15.121,(-6 -23 -12 4 -17 -48 -4 -3)
1969/12/31/18:00:15.138,(-21 16 23 2 -8 16 -8 -53)
1969/12/31/18:00:15.138,(40 65 10 1 -7 -16 28 72)
1969/12/31/18:00:15.139,(39 59 76 29 19 2 -11 -21)
1969/12/31/18:00:15.139,(24 -56 -54 -2 22 -3 -1 24)
1969/12/31/18:00:15.161,(-28 80 67 26 -2 11 -4 -35)
1969/12/31/18:00:15.161,(1 -31 -30 2 4 -11 9 29)
1969/12/31/18:00:15.162,(80 -41 -61 -50 8 22 13 55)
1969/12/31/18:00:15.162,(-7 83 80 39 32 23 0 -8)
1969/12/31/18:00:15.175,(-16 -83 -87 -40 -5 9 -20 -50)
1969/12/31/18:00:15.175,(-8 34 39 18 14 4 -7 -16)
1969/12/31/18:00:15.184,(-24 -47 -11 16 -16 -10 -10 -4)
1969/12/31/18:00:15.184,(-16 -103 -105 -66 -50 -19 -11 -4)
1969/12/31/18:00:15.199,(-39 -77 -50 -8 21 -11 29 63)
1969/12/31/18:00:15.199,(-13 10 -2 -19 -23 -12 -17 -32)
1969/12/31/18:00:15.201,(26 -19 -4 8 16 8 9 -18)
1969/12/31/18:00:15.201,(81 65 17 4 12 10 18 70)
1969/12/31/18:00:15.222,(-11 50 65 26 -13 -11 -14 -24)
1969/12/31/18:00:15.222,(-17 -128 -128 -74 -16 -8 24 58)
1969/12/31/18:00:15.224,(1 127 127 82 24 -18 -10 -34)
1969/12/31/18:00:15.224,(-52 -43 -59 -10 -25 11 -11 -55)
1969/12/31/18:00:15.238,(28 82 30 4 -22 -4 0 -12)
1969/12/31/18:00:15.238,(-8 -67 -36 -10 -6 -11 -25 -15)
1969/12/31/18:00:15.245,(9 -105 -128 -35 9 -12 -2 42)
1969/12/31/18:00:15.245,(-12 106 73 -14 20 54 10 -29)
1969/12/31/18:00:15.261,(106 21 32 37 13 -21 0 41)
1969/12/31/18:00:15.261,(-23 -48 -30 1 -11 23 0 -45)
1969/12/31/18:00:15.262,(-53 -34 -16 -30 -37 -1 12 -29)
1969/12/31/18:00:15.262,(11 -80 -48 -22 -13 -24 -14 -2)
1969/12/31/18:00:15.285,(-76 -106 -125 -47 6 6 -1 -41)
1969/12/31/18:00:15.285,(17 127 121 73 25 -6 5 60)
1969/12/31/18:00:15.286,(87 -55 -92 -35 -19 -35 -40 -24)
1969/12/31/18:00:15.286,(-81 14 22 14 3 -1 12 12)
1969/12/31/18:00:15.298,(20 126 127 45 2 8 10 -12)
1969/12/31/18:00:15.299,(5 -109 -105 -10 -4 -47 -19 -25)
1969/12/31/18:00:15.308,(-42 94 106 49 41 82 20 -16)
1969/12/31/18:00:15.308,(24 17 -19 -16 -8 -35 -8 -8)
1969/12/31/18:00:15.323,(-9 -16 -66 -27 -38 -12 -26 12)
1969/12/31/18:00:15.323,(-54 44 75 31 7 5 24 -34)
1969/12/31/18:00:15.324,(10 -41 -23 -37 -35 -2 1 19)
1969/12/31/18:00:15.324,(45 -39 -24 17 29 34 39 71)
1969/12/31/18:00:15.346,(-80 -99 -29 -24 -17 -30 -22 -58)
1969/12/31/18:00:15.346,(46 -17 -12 -4 -10 -27 -36 -23)
1969/12/31/18:00:15.348,(-14 -65 -60 -53 -53 -58 -24 -17)
1969/12/31/18:00:15.348,(-18 84 106 80 87 79 30 3)
1969/12/31/18:00:15.360,(69 -39 -42 -26 -9 9 19 47)
1969/12/31/18:00:15.360,(-10 -25 1 -12 -11 2 -18 -46)
1969/12/31/18:00:15.369,(-10 -17 -24 13 18 -9 13 52)
1969/12/31/18:00:15.369,(-21 -30 -9 2 -22 -44 -20 -27)
1969/12/31/18:00:15.392,(48 17 -15 2 16 37 -2 21)
1969/12/31/18:00:15.392,(-7 53 58 18 14 3 -12 -39)
1969/12/31/18:00:15.394,(14 -97 -55 21 59 30 17 -12)
1969/12/31/18:00:15.394,(-54 -6 -73 -71 -76 -47 -14 -46)
1969/12/31/18:00:15.407,(50 8 38 1 -17 19 13 65)
1969/12/31/18:00:15.407,(-7 18 -17 -16 7 2 10 23)
1969/12/31/18:00:15.409,(-51 -52 -36 -15 -15 16 -14 -31)
1969/12/31/18:00:15.409,(22 36 67 32 34 4 -16 -26)
1969/12/31/18:00:15.422,(-18 79 24 9 8 -5 4 -17)
1969/12/31/18:00:15.422,(-5 -77 -65 -27 -3 -2 9 12)
1969/12/31/18:00:15.431,(-19 -19 -23 -1 16 12 5 24)
1969/12/31/18:00:15.431,(23 57 67 29 -52 -40 -12 27)
1969/12/31/18:00:15.446,(-40 -111 -46 -8 -1 3 -11 -21)
1969/12/31/18:00:15.446,(12 72 26 17 29 9 1 -1)
1969/12/31/18:00:15.448,(29 81 34 -21 -24 3 8 17)
1969/12/31/18:00:15.448,(-34 -111 -50 -12 -7 -5 -22 -9)
1969/12/31/18:00:15.470,(-16 -61 -51 0 10 -27 22 39)
1969/12/31/18:00:15.470,(1 68 69 36 26 41 -1 -29)
1969/12/31/18:00:15.471,(18 25 49 7 -23 -27 -8 -1)
1969/12/31/18:00:15.471,(35 -4 -65 -13 28 -19 1 19)
1969/12/31/18:00:15.483,(-4 21 63 -19 -12 33 8 -20)
1969/12/31/18:00:15.483,(-50 -55 -36 -8 -8 -9 8 8)
1969/12/31/18:00:15.492,(-46 -40 -77 -38 -17 -9 -12 -16)
1969/12/31/18:00:15.492,(87 116 119 114 61 17 12 31)
1969/12/31/18:00:15.509,(-89 -128 -125 -25 -21 -38 -27 -38)
1969/12/31/18:00:15.509,(-13 15 -5 -33 -26 6 15 10)
1969/12/31/18:00:15.514,(7 49 43 22 37 53 7 -4)
1969/12/31/18:00:15.514,(-54 -117 -88 -46 -31 -23 -15 -50)
1969/12/31/18:00:15.531,(10 14 -3 14 12 -16 -17 -6)
1969/12/31/18:00:15.531,(28 10 27 2 -4 2 -2 -1)
1969/12/31/18:00:15.533,(-20 -26 2 10 11 12 28 34)
1969/12/31/18:00:15.533,(7 -74 -48 4 35 -16 -27 -40)
1969/12/31/18:00:15.545,(25 117 45 -48 -75 -5 3 -2)
1969/12/31/18:00:15.545,(46 47 46 19 12 5 -7 42)
1969/12/31/18:00:15.554,(-25 -44 -20 17 57 21 41 33)
1969/12/31/18:00:15.554,(27 43 27 -24 -12 8 -12 -13)
1969/12/31/18:00:15.570,(-39 -49 -34 0 36 32 -2 -26)
1969/12/31/18:00:15.570,(-10 5 -4 -1 -15 -17 -10 -35)
1969/12/31/18:00:15.571,(54 67 39 31 -20 -35 -4 9)
1969/12/31/18:00:15.571,(-42 16 24 -7 -18 10 22 27)
1969/12/31/18:00:15.592,(21 -15 -12 -6 2 -5 6 2)
1969/12/31/18:00:15.592,(-65 -87 -76 -15 -12 3 6 -42)
1969/12/31/18:00:15.594,(79 63 90 25 -24 -21 -21 -4)
1969/12/31/18:00:15.594,(21 -14 -57 -16 -5 -13 -1 18)
1969/12/31/18:00:15.607,(-44 -42 3 7 3 -15 -3 22)
1969/12/31/18:00:15.607,(42 48 34 22 22 27 20 29)
1969/12/31/18:00:15.616,(-53 -53 -55 -28 -18 -28 -25 -33)
1969/12/31/18:00:15.616,(20 87 63 11 3 -4 22 -8)
1969/12/31/18:00:15.631,(9 66 49 42 63 62 9 -2)
1969/12/31/18:00:15.631,(-11 -13 -22 -28 -70 -53 -40 -40)
1969/12/31/18:00:15.632,(16 -96 -84 -42 -31 7 14 29)
1969/12/31/18:00:15.633,(2 90 67 17 40 9 -19 -14)
1969/12/31/18:00:15.654,(-54 -35 -42 -6 3 -2 12 0)
1969/12/31/18:00:15.654,(31 -113 -98 -27 -14 -19 -8 1)
1969/12/31/18:00:15.656,(38 127 127 65 12 -7 -6 -8)
1969/12/31/18:00:15.656,(-32 -121 -84 -2 -16 -1 12 35)
1969/12/31/18:00:15.668,(-1 -34 -21 6 12 3 -13 -37)
1969/12/31/18:00:15.668,(-38 -89 -25 -10 -2 2 2 5)
1969/12/31/18:00:15.678,(4 6 -2 6 25 -15 2 21)
1969/12/31/18:00:15.678,(67 66 9 -7 -36 2 24 57)
1969/12/31/18:00:15.693,(10 22 64 33 4 3 -9 -15)
1969/12/31/18:00:15.693,(21 -68 -73 -22 48 39 17 42)
1969/12/31/18:00:15.694,(-17 -28 3 -53 -50 -13 -22 -42)
1969/12/31/18:00:15.694,(-6 49 40 15 1 -2 -3 -1)
1969/12/31/18:00:15.716,(-18 -54 -79 -6 6 -35 -9 3)
1969/12/31/18:00:15.716,(26 116 86 19 46 32 -11 -28)
1969/12/31/18:00:15.718,(15 11 7 -8 -47 23 20 23)
1969/12/31/18:00:15.718,(-1 -57 -28 -7 11 -19 -14 -44)
1969/12/31/18:00:15.730,(33 66 40 -9 -58 -16 0 -4)
1969/12/31/18:00:15.730,(-36 -56 -93 -14 -11 -13 -4 -36)
1969/12/31/18:00:15.739,(45 96 85 64 40 7 -4 3)
1969/12/31/18:00:15.739,(-33 -128 -99 -45 -18 -22 -27 -14)
1969/12/31/18:00:15.754,(41 -27 -24 7 -8 -6 20 51)
1969/12/31/18:00:15.754,(-21 -2 3 -4 -2 -13 -4 1)
1969/12/31/18:00:15.762,(-54 -94 -57 -29 -6 14 8 -9)
1969/12/31/18:00:15.762,(-4 50 -16 4 8 6 -13 -14)
1969/12/31/18:00:15.777,(53 40 23 23 40 6 19 24)
1969/12/31/18:00:15.777,(-11 109 117 22 -32 -24 -14 -24)
1969/12/31/18:00:15.779,(-13 89 27 -4 -28 -11 -15 -27)
1969/12/31/18:00:15.779,(-23 -64 1 11 1 23 13 14)
1969/12/31/18:00:15.792,(35 -52 -60 -58 -6 12 18 37)
1969/12/31/18:00:15.792,(34 -45 -41 -19 -24 -29 -22 4)
1969/12/31/18:00:15.801,(-35 59 53 57 36 -29 -20 -5)
1969/12/31/18:00:15.801,(-34 -109 -118 -62 -40 -9 -41 -97)
1969/12/31/18:00:15.815,(48 127 127 40 23 47 18 21)
1969/12/31/18:00:15.815,(-1 -128 -73 -7 -6 -7 31 49)
1969/12/31/18:00:15.822,(-26 -77 -54 -2 37 16 -15 -17)
1969/12/31/18:00:15.822,(-27 -106 -87 -18 -4 -13 -3 10)
1969/12/31/18:00:15.839,(-7 42 45 17 -5 -18 -19 -13)
1969/12/31/18:00:15.839,(67 67 81 10 3 -1 -2 20)
1969/12/31/18:00:15.841,(45 85 15 5 24 21 11 -4)
1969/12/31/18:00:15.841,(-60 -18 45 6 9 30 4 -37)
1969/12/31/18:00:15.853,(-6 -128 -128 -29 13 -47 -32 -56)
1969/12/31/18:00:15.853,(42 127 117 37 8 34 13 32)
1969/12/31/18:00:15.863,(-44 -128 -88 -25 -19 -10 -2 -9)
1969/12/31/18:00:15.863,(52 4 -36 -16 -18 12 13 39)
1969/12/31/18:00:15.877,(5 88 72 29 4 -7 -9 -8)
1969/12/31/18:00:15.877,(-80 -128 -91 -25 9 -25 1 2)
1969/12/31/18:00:15.884,(3 -19 -24 4 29 20 -4 -19)
1969/12/31/18:00:15.884,(44 95 47 4 -27 9 34 59)
1969/12/31/18:00:15.901,(-32 -93 -14 29 38 -37 -16 0)
1969/12/31/18:00:15.901,(-2 -22 -64 -60 -49 39 -9 -35)
1969/12/31/18:00:15.903,(25 38 -39 -49 -28 -16 15 62)
1969/12/31/18:00:15.903,(0 22 72 72 30 -5 4 9)
1969/12/31/18:00:15.915,(44 1 4 -6 -9 11 -1 -2)
1969/12/31/18:00:15.915,(-4 -31 -31 -4 -1 -6 13 45)
1969/12/31/18:00:15.924,(-44 -46 9 6 24 24 1 -13)
1969/12/31/18:00:15.924,(1 -61 -57 -20 0 -19 -16 -27)
1969/12/31/18:00:15.939,(21 81 4 -9 -17 13 7 24)
1969/12/31/18:00:15.939,(-36 13 54 49 23 2 10 -39)
1969/12/31/18:00:15.946,(42 -34 -27 -14 -26 -27 -32 -15)
1969/12/31/18:00:15.946,(-34 17 47 21 67 26 12 6)
1969/12/31/18:00:15.963,(-81 -116 -90 -55 -43 30 7 -16)
1969/12/31/18:00:15.963,(24 31 -17 -6 -11 -10 -9 -5)
1969/12/31/18:00:15.964,(-16 49 63 41 47 15 18 9)
1969/12/31/18:00:15.964,(-6 -15 -29 -29 -38 -1 -4 -19)
1969/12/31/18:00:15.986,(-31 -76 -31 -4 -4 -31 -14 -5)
1969/12/31/18:00:15.986,(40 126 83 41 36 8 -2 48)
1969/12/31/18:00:15.987,(-4 -90 -71 -17 -15 -19 -23 -59)
1969/12/31/18:00:15.987,(-1 91 45 -6 -11 18 31 24)
1969/12/31/18:00:16.000,(24 121 100 33 5 8 6 28)
1969/12/31/18:00:16.000,(-15 -83 -48 0 4 -26 -11 -31)
1969/12/31/18:00:16.008,(21 39 -74 -27 0 2 0 27)
1969/12/31/18:00:16.008,(44 49 64 63 29 17 25 28)
1969/12/31/18:00:16.024,(-24 -86 -121 -36 -28 -23 -17 -35)
1969/12/31/18:00:16.024,(-22 -48 -45 24 25 7 6 9)
1969/12/31/18:00:16.026,(-7 -19 -35 -31 -5 3 3 1)
1969/12/31/18:00:16.026,(-7 -50 -65 -38 -17 -12 -12 9)
1969/12/31/18:00:16.048,(27 115 127 42 30 30 -2 -13)
1969/12/31/18:00:16.048,(-27 -69 -48 -13 -11 -23 -21 -16)
1969/12/31/18:00:16.049,(-19 -62 -9 17 22 12 36 43)
1969/12/31/18:00:16.049,(-48 -7 -34 -68 -46 16 -7 -22)
1969/12/31/18:00:16.062,(33 -13 12 7 -4 -15 -1 -2)
1969/12/31/18:00:16.062,(32 -60 -54 -33 -26 -12 -8 37)
1969/12/31/18:00:16.069,(72 124 76 41 33 28 29 34)
1969/12/31/18:00:16.069,(-8 45 45 27 22 -28 -22 1)
1969/12/31/18:00:16.086,(-3 -35 -19 -12 -9 9 1 6)
1969/12/31/18:00:16.086,(-26 -54 -67 -27 -35 -23 9 -21)
1969/12/31/18:00:16.088,(-22 -10 23 8 -23 -19 -9 -10)
1969/12/31/18:00:16.088,(40 -45 -24 -6 3 4 -3 30)
1969/12/31/18:00:16.109,(-24 0 -21 -12 -12 1 -7 -32)
1969/12/31/18:00:16.109,(-14 15 12 5 10 -1 21 15)
1969/12/31/18:00:16.111,(4 4 3 0 -1 -2 -23 -25)
1969/12/31/18:00:16.111,(-40 -113 -105 -33 -4 -22 -5 -27)
1969/12/31/18:00:16.124,(34 125 124 61 23 38 9 31)
1969/12/31/18:00:16.124,(7 -69 -30 -3 -4 -5 -2 7)
1969/12/31/18:00:16.132,(-8 -34 -19 1 -3 -23 -21 -5)
1969/12/31/18:00:16.133,(-17 -43 -8 -25 -24 -3 2 -8)
1969/12/31/18:00:16.148,(16 12 -30 21 22 -7 0 1)
1969/12/31/18:00:16.148,(-4 10 5 -6 -4 28 18 24)
1969/12/31/18:00:16.149,(32 62 31 -8 -12 15 2 7)
1969/12/31/18:00:16.149,(-42 -49 12 23 20 -25 -23 -37)
1969/12/31/18:00:16.171,(-34 -98 -86 -37 -36 -33 -14 -15)
1969/12/31/18:00:16.171,(-38 -25 -23 -8 -1 9 -4 -40)
1969/12/31/18:00:16.172,(-20 40 56 0 -16 4 -5 -33)
1969/12/31/18:00:16.172,(27 -10 -7 3 -7 -3 -1 -8)
1969/12/31/18:00:16.185,(-18 -60 -51 -7 30 2 -10 -18)
1969/12/31/18:00:16.185,(-34 -1 6 5 19 1 -11 -19)
1969/12/31/18:00:16.194,(-15 -128 -100 -44 -36 -10 5 0)
1969/12/31/18:00:16.194,(15 127 117 52 18 7 2 2)
1969/12/31/18:00:16.209,(-6 -45 -38 -12 -11 9 5 11)
1969/12/31/18:00:16.209,(3 80 87 27 22 -2 -8 -18)
1969/12/31/18:00:16.211,(-19 -38 0 22 17 15 -1 -10)
1969/12/31/18:00:16.211,(27 37 -18 -4 -8 18 3 20)
1969/12/31/18:00:16.233,(-28 -25 -6 -42 -79 -1 14 17)
1969/12/31/18:00:16.233,(38 60 17 -3 -4 23 9 -20)
1969/12/31/18:00:16.235,(-64 -73 -26 -4 4 -18 -17 -23)
1969/12/31/18:00:16.235,(-13 46 25 2 -6 -11 -24 -35)
1969/12/31/18:00:16.247,(-10 -32 -15 15 34 -10 21 -2)
1969/12/31/18:00:16.247,(8 -65 -57 -43 -28 -2 21 67)
1969/12/31/18:00:16.255,(11 32 15 6 -5 0 -8 2)
1969/12/31/18:00:16.255,(3 -5 -12 -23 -10 1 13 9)
1969/12/31/18:00:16.271,(21 -94 -30 23 4 3 8 23)
1969/12/31/18:00:16.271,(42 65 33 8 27 15 4 21)
1969/12/31/18:00:16.273,(-7 -12 -40 -16 -14 -8 -1 8)
1969/12/31/18:00:16.273,(20 9 22 19 17 8 13 29)
1969/12/31/18:00:16.294,(18 116 61 22 19 -9 -7 -7)
1969/12/31/18:00:16.294,(-8 -41 -15 -8 -32 -19 -21 -20)
1969/12/31/18:00:16.295,(-8 -88 -58 -22 -6 0 23 11)
1969/12/31/18:00:16.295,(42 84 51 17 28 28 29 52)
1969/12/31/18:00:16.318,(-21 -33 -9 -17 -14 -18 -46 -37)
1969/12/31/18:00:16.318,(-27 -66 -60 -20 -11 11 24 13)
1969/12/31/18:00:16.319,(36 116 85 31 8 0 6 -5)
1969/12/31/18:00:16.319,(-45 -128 -91 -7 -11 -18 -20 -27)
1969/12/31/18:00:16.332,(-2 1 16 -3 26 6 -6 -11)
1969/12/31/18:00:16.332,(18 -82 -47 -38 -41 -6 -15 23)
1969/12/31/18:00:16.334,(8 66 -16 -3 -13 -4 12 -6)
1969/12/31/18:00:16.334,(8 -5 11 14 2 -4 4 21)
1969/12/31/18:00:16.356,(-16 -45 -30 -12 -5 -12 -1 6)
1969/12/31/18:00:16.356,(-5 103 65 35 21 -3 -29 -70)
1969/12/31/18:00:16.357,(-11 -47 -28 -15 -2 7 23 37)
1969/12/31/18:00:16.357,(22 25 17 17 1 -9 -7 9)
1969/12/31/18:00:16.379,(-9 -46 -24 -28 -7 -1 6 8)
1969/12/31/18:00:16.379,(-15 -55 -27 -19 -1 -15 -30 -27)
1969/12/31/18:00:16.381,(12 65 32 9 3 15 18 16)
1969/12/31/18:00:16.381,(-24 -23 -23 -18 -17 -12 -13 -13)
1969/12/31/18:00:16.395,(3 29 28 29 13 20 21 9)
1969/12/31/18:00:16.395,(22 7 10 59 82 32 13 22)
1969/12/31/18:00:16.396,(17 -44 -11 -17 1 28 -4 5)
1969/12/31/18:00:16.396,(-14 -128 -128 -74 -45 -49 -25 -9)
1969/12/31/18:00:16.418,(54 114 90 49 19 15 3 13)
1969/12/31/18:00:16.418,(23 32 71 22 -4 -5 4 9)
1969/12/31/18:00:16.420,(-14 -88 -55 -7 5 -12 -18 1)
1969/12/31/18:00:16.420,(-19 -16 0 4 5 19 13 -10)
1969/12/31/18:00:16.431,(8 -8 -70 -27 -5 -17 4 17)
1969/12/31/18:00:16.431,(-11 52 40 15 8 0 -5 -14)
1969/12/31/18:00:16.440,(-8 -77 -31 -14 -17 -12 -7 -4)
1969/12/31/18:00:16.440,(-67 62 60 27 14 6 5 -23)
1969/12/31/18:00:16.456,(13 1 -13 -19 -14 -17 -10 2)
1969/12/31/18:00:16.456,(-21 -56 -34 -5 -23 13 11 0)
1969/12/31/18:00:16.458,(-28 81 61 10 -5 -23 -10 -28)
1969/12/31/18:00:16.458,(17 -23 -32 9 30 19 -12 -5)
1969/12/31/18:00:16.479,(-10 -21 -3 -10 -25 -29 2 -21)
1969/12/31/18:00:16.479,(-5 -44 -61 -51 4 25 -3 29)
1969/12/31/18:00:16.481,(51 61 74 41 32 19 1 -9)
1969/12/31/18:00:16.481,(40 58 35 17 3 -6 0 8)
1969/12/31/18:00:16.494,(-28 -25 11 20 15 12 4 4)
1969/12/31/18:00:16.494,(-51 -117 -105 -47 -38 -38 -13 -20)
1969/12/31/18:00:16.503,(-24 32 34 17 7 2 -5 -1)
1969/12/31/18:00:16.503,(61 99 58 17 11 13 7 30)
1969/12/31/18:00:16.517,(-64 -36 -9 -2 -1 4 0 -18)
1969/12/31/18:00:16.517,(-24 -42 -64 -18 -19 -25 -31 -80)
1969/12/31/18:00:16.532,(10 37 40 7 0 6 -6 -3)
1969/12/31/18:00:16.532,(0 -46 -24 -16 -13 -4 0 -10)
1969/12/31/18:00:16.541,(3 -1 -12 -13 -12 1 5 11)
1969/12/31/18:00:16.541,(2 26 30 23 19 10 13 19)
1969/12/31/18:00:16.542,(-4 -41 -42 -19 -3 -19 -14 -17)
1969/12/31/18:00:16.542,(-31 -77 -43 0 -9 -7 -6 -15)
1969/12/31/18:00:16.554,(21 -10 -17 -13 -6 -2 -7 2)
1969/12/31/18:00:16.554,(22 62 48 36 27 -2 10 10)
1969/12/31/18:00:16.565,(31 36 19 -1 -26 -15 13 22)
1969/12/31/18:00:16.565,(-24 11 29 -4 -1 30 18 12)
1969/12/31/18:00:16.580,(-46 -74 -80 -44 -26 -22 -15 -28)
1969/12/31/18:00:16.580,(20 82 94 29 1 -3 -7 -25)
1969/12/31/18:00:16.581,(-15 61 33 16 14 -13 -7 3)
1969/12/31/18:00:16.581,(-46 -100 -45 -4 1 -5 3 25)
1969/12/31/18:00:16.603,(27 44 -13 -13 -2 15 3 -8)
1969/12/31/18:00:16.603,(19 106 77 24 10 5 8 6)
1969/12/31/18:00:16.604,(9 -61 -32 -4 0 -11 -8 -1)
1969/12/31/18:00:16.604,(41 50 29 -32 -49 -1 -2 12)
1969/12/31/18:00:16.617,(-9 -43 -3 30 6 18 -3 -10)
1969/12/31/18:00:16.617,(0 -48 -41 -2 59 -6 6 24)
1969/12/31/18:00:16.625,(-42 -43 -21 21 9 30 4 -12)
1969/12/31/18:00:16.625,(33 -13 -20 -6 -21 -11 4 13)
1969/12/31/18:00:16.641,(15 11 6 0 9 -1 -2 8)
1969/12/31/18:00:16.641,(29 31 -7 -31 -48 -11 -5 2)
1969/12/31/18:00:16.643,(-33 -8 12 -14 2 -2 -3 -6)
1969/12/31/18:00:16.643,(-32 -33 -32 20 39 8 8 4)
1969/12/31/18:00:16.664,(23 11 12 -10 -33 -2 6 -11)
1969/12/31/18:00:16.664,(15 -18 -11 5 -5 3 19 42)
1969/12/31/18:00:16.665,(10 21 30 -4 -10 -10 -3 2)
1969/12/31/18:00:16.665,(17 -18 -21 -8 -7 -12 -13 -5)
1969/12/31/18:00:16.679,(1 19 21 11 21 9 3 15)
1969/12/31/18:00:16.679,(-82 -46 -19 -10 -13 -6 -16 -64)
1969/12/31/18:00:16.688,(78 -59 -61 -12 -3 3 3 23)
1969/12/31/18:00:16.688,(15 60 16 1 13 -17 -27 -40)
1969/12/31/18:00:16.704,(-20 -10 3 -19 -46 -15 12 1)
1969/12/31/18:00:16.704,(-7 13 6 2 34 20 -34 -12)
1969/12/31/18:00:16.705,(-49 -37 -22 -4 -29 -11 -33 -22)
1969/12/31/18:00:16.705,(48 34 14 -11 -5 3 8 11)
1969/12/31/18:00:16.733,(58 36 28 43 75 4 21 42)
1969/12/31/18:00:16.733,(40 24 2 -5 -30 -19 7 25)
1969/12/31/18:00:16.735,(-77 -52 -35 -18 -5 12 19 -20)
1969/12/31/18:00:16.735,(43 23 -3 -1 9 -28 -42 -18)
1969/12/31/18:00:16.740,(-17 -32 -1 -15 -26 23 40 23)
1969/12/31/18:00:16.740,(-2 -6 7 17 17 19 -10 34)
1969/12/31/18:00:16.750,(41 -1 -1 -4 5 21 19 -1)
1969/12/31/18:00:16.750,(-42 -51 -32 -23 -27 -35 21 7)
1969/12/31/18:00:16.764,(31 57 16 -3 0 -13 -4 31)
1969/12/31/18:00:16.764,(-40 14 6 4 -7 -7 -3 -31)
1969/12/31/18:00:16.771,(-9 -28 -38 -22 -9 -10 1 6)
1969/12/31/18:00:16.771,(-56 -27 7 11 3 13 -3 -11)
1969/12/31/18:00:16.788,(-26 -51 -15 4 18 11 -2 -13)
1969/12/31/18:00:16.788,(43 31 30 13 -3 6 20 23)
1969/12/31/18:00:16.789,(0 -15 -86 -36 -18 -17 -17 -4)
1969/12/31/18:00:16.789,(16 94 91 51 19 16 11 -7)
1969/12/31/18:00:16.801,(-70 -52 -22 -10 -6 -14 -37 -44)
1969/12/31/18:00:16.802,(2 -31 -14 -7 -10 4 11 -7)
1969/12/31/18:00:16.811,(12 -67 -60 -13 1 -6 -1 5)
1969/12/31/18:00:16.811,(29 102 72 36 15 15 9 16)
1969/12/31/18:00:16.825,(-15 -6 -18 -10 -6 -7 -13 -22)
1969/12/31/18:00:16.825,(36 -31 -5 -2 -6 -2 10 18)
1969/12/31/18:00:16.834,(-34 -14 1 6 10 3 -4 -25)
1969/12/31/18:00:16.834,(-66 -100 -76 -35 -15 -5 -10 -12)
1969/12/31/18:00:16.850,(79 62 33 5 -1 -5 -13 -14)
1969/12/31/18:00:16.850,(-43 -21 -10 -8 -5 -5 -3 -22)
1969/12/31/18:00:16.851,(-7 37 31 7 -1 -7 -8 -6)
1969/12/31/18:00:16.851,(3 -24 -28 -19 -8 4 4 3)
1969/12/31/18:00:16.863,(-2 21 16 8 5 3 -1 2)
1969/12/31/18:00:16.863,(-3 7 -1 4 2 0 0 -2)
1969/12/31/18:00:16.872,(10 9 24 14 7 4 7 9)
1969/12/31/18:00:16.873,(-6 -19 -11 -11 -4 1 -1 -7)
1969/12/31/18:00:16.888,(4 -8 -24 -1 -2 -4 -6 7)
1969/12/31/18:00:16.888,(-2 -2 2 1 1 3 17 31)
1969/12/31/18:00:16.895,(19 36 26 15 6 0 2 29)
1969/12/31/18:00:16.895,(7 -20 0 9 2 3 -3 -33)
1969/12/31/18:00:16.911,(-38 -6 -3 1 4 2 -5 -23)
1969/12/31/18:00:16.911,(-9 11 5 -3 -7 -5 -4 -12)
1969/12/31/18:00:16.913,(14 13 7 -7 -3 -4 -9 -11)
1969/12/31/18:00:16.913,(5 -27 -33 -15 -4 0 0 7)
1969/12/31/18:00:16.934,(2 11 3 -3 2 1 4 7)
1969/12/31/18:00:16.934,(-14 -8 -5 -1 -6 -3 -4 -3)
1969/12/31/18:00:16.936,(20 22 20 5 4 1 3 16)
1969/12/31/18:00:16.936,(-13 -36 -28 -9 -5 -3 0 -10)
1969/12/31/18:00:16.949,(-5 31 30 -2 -2 0 -2 6)
1969/12/31/18:00:16.949,(24 7 6 3 2 -1 3 5)
1969/12/31/18:00:16.956,(-12 -18 -20 -13 -4 -6 -7 -14)
1969/12/31/18:00:16.956,(-8 36 19 -13 -2 0 2 0)
1969/12/31/18:00:16.973,(-5 -21 -2 18 3 8 4 0)
1969/12/31/18:00:16.973,(4 -1 9 18 8 4 5 4)
1969/12/31/18:00:16.975,(17 12 27 21 8 1 0 26)
1969/12/31/18:00:16.975,(-18 -17 -22 -4 -3 -7 -18 -59)
1969/12/31/18:00:16.997,(5 -12 -24 -23 -6 1 13 20)
1969/12/31/18:00:16.997,(-2 -2 -14 -15 -6 -4 -6 -7)
1969/12/31/18:00:16.999,(-20 -42 -33 -13 -9 -5 -7 -18)
1969/12/31/18:00:16.999,(24 48 41 1 0 2 9 32)
1969/12/31/18:00:17.010,(-1 -10 6 6 4 3 -3 2)
1969/12/31/18:00:17.010,(3 -9 -19 -1 -1 2 2 -10)
1969/12/31/18:00:17.019,(4 44 54 20 7 3 3 4)
1969/12/31/18:00:17.019,(7 -19 5 8 4 7 11 26)
1969/12/31/18:00:17.035,(-24 -96 -80 -35 -18 -14 -12 -12)
1969/12/31/18:00:17.035,(16 71 -5 -6 -3 -6 -6 1)
1969/12/31/18:00:17.036,(4 19 30 19 5 4 -6 -12)
1969/12/31/18:00:17.036,(5 -14 -24 -1 4 11 14 17)
1969/12/31/18:00:17.058,(5 20 28 6 0 0 -2 -5)
1969/12/31/18:00:17.058,(-16 -70 -48 -31 -16 -12 -8 -1)
1969/12/31/18:00:17.059,(5 37 25 7 4 1 6 -3)
1969/12/31/18:00:17.059,(3 3 6 13 2 1 -4 2)
1969/12/31/18:00:17.073,(-14 -43 -32 -15 -6 -13 -16 -9)
1969/12/31/18:00:17.073,(9 43 31 7 4 11 12 6)
1969/12/31/18:00:17.079,(1 -1 2 3 5 3 4 3)
1969/12/31/18:00:17.079,(-2 -47 -38 -13 -2 -1 -1 6)
1969/12/31/18:00:17.096,(23 104 88 38 14 4 6 7)
1969/12/31/18:00:17.096,(-7 -42 -28 -12 -4 -4 -2 -1)
1969/12/31/18:00:17.102,(-15 -55 -46 -25 -17 -10 -10 -15)
1969/12/31/18:00:17.102,(18 76 65 37 15 5 10 8)
1969/12/31/18:00:17.120,(0 -4 -18 -7 -5 -6 -10 1)
1969/12/31/18:00:17.120,(3 21 28 21 9 8 1 -3)
1969/12/31/18:00:17.121,(-8 -26 -25 -14 -4 0 3 5)
1969/12/31/18:00:17.121,(-7 -49 -44 -18 -6 -4 -4 -6)
1969/12/31/18:00:17.133,(2 15 23 9 -2 -4 -5 -7)
1969/12/31/18:00:17.133,(5 21 0 1 2 2 2 4)
1969/12/31/18:00:17.142,(3 -5 -25 -6 -4 -2 -3 -3)
1969/12/31/18:00:17.142,(-5 -24 -28 -13 -4 0 4 8)
1969/12/31/18:00:17.158,(3 30 22 5 1 -1 -6 -8)
1969/12/31/18:00:17.158,(-13 -8 13 -4 -5 -5 -9 -10)
1969/12/31/18:00:17.160,(-2 -30 -8 -5 -1 -1 1 -1)
1969/12/31/18:00:17.160,(11 62 18 7 3 -2 -4 -2)
1969/12/31/18:00:17.181,(-15 -70 -50 -21 -7 0 3 3)
1969/12/31/18:00:17.181,(4 -8 -8 -9 -6 -6 -5 0)
1969/12/31/18:00:17.183,(14 94 67 36 10 2 0 0)
1969/12/31/18:00:17.183,(-8 -32 -12 -2 -5 -3 -5 -3)
1969/12/31/18:00:17.195,(-13 -45 -15 -1 -1 2 0 1)
1969/12/31/18:00:17.195,(8 50 14 -6 -7 -2 -2 1)
1969/12/31/18:00:17.204,(-1 -21 -18 -3 1 0 5 6)
1969/12/31/18:00:17.204,(-19 -44 -22 -15 -9 -5 -9 -10)
1969/12/31/18:00:17.220,(18 39 -56 -13 2 0 3 5)
1969/12/31/18:00:17.221,(4 -16 4 11 4 2 1 1)
1969/12/31/18:00:17.226,(-18 -63 -42 -22 -8 -2 -14 -12)
1969/12/31/18:00:17.226,(24 78 38 14 4 0 -1 -4)
1969/12/31/18:00:17.242,(-15 -31 -18 -11 -1 1 5 1)
1969/12/31/18:00:17.242,(21 41 -46 -28 -9 -9 -5 2)
1969/12/31/18:00:17.244,(10 13 28 25 14 9 5 3)
1969/12/31/18:00:17.244,(-32 -100 -29 -10 -4 1 2 2)
1969/12/31/18:00:17.257,(49 114 40 22 8 1 1 3)
1969/12/31/18:00:17.257,(-2 -41 -15 10 6 3 4 3)
1969/12/31/18:00:17.266,(-19 -31 -17 -16 -8 -4 0 -3)
1969/12/31/18:00:17.266,(5 -20 -27 -18 -8 -4 -6 -2)
1969/12/31/18:00:17.288,(-32 -58 -9 -11 -7 -3 2 -2)
1969/12/31/18:00:17.288,(8 79 86 34 13 2 -3 -10)
1969/12/31/18:00:17.291,(7 -29 -52 -30 -10 -3 -1 5)
1969/12/31/18:00:17.291,(-11 4 49 33 11 5 2 1)
1969/12/31/18:00:17.305,(13 3 38 19 4 3 -1 -5)
1969/12/31/18:00:17.305,(-16 -37 -12 -7 -8 -3 -5 -5)
1969/12/31/18:00:17.311,(-8 -35 -16 -7 -5 -7 -4 -2)
1969/12/31/18:00:17.311,(4 15 -12 3 4 2 2 4)
1969/12/31/18:00:17.328,(-2 -17 8 1 -3 -1 3 7)
1969/12/31/18:00:17.328,(4 11 -30 -16 -6 0 0 -1)
1969/12/31/18:00:17.343,(-7 3 27 2 -4 -8 -5 -8)
1969/12/31/18:00:17.343,(-8 -33 -47 -18 -5 -4 -7 -11)
1969/12/31/18:00:17.344,(16 40 34 37 14 10 9 6)
1969/12/31/18:00:17.344,(-15 -57 -1 13 6 3 1 -2)
1969/12/31/18:00:17.346,(4 20 -7 -10 -4 -1 -1 1)
1969/12/31/18:00:17.346,(3 9 -13 -20 -13 -8 -8 -5)
1969/12/31/18:00:17.366,(-14 -36 -43 -32 -13 -7 -10 -9)
1969/12/31/18:00:17.366,(-5 -2 20 -5 -5 -2 0 3)
1969/12/31/18:00:17.368,(16 32 4 14 13 8 6 9)
1969/12/31/18:00:17.368,(-4 9 11 8 2 0 -3 -4)
1969/12/31/18:00:17.380,(-6 -12 -8 -5 -4 -1 -2 -1)
1969/12/31/18:00:17.380,(-6 -13 -15 -12 -7 -6 -3 -3)
1969/12/31/18:00:17.389,(-5 7 2 -4 -5 -4 -4 -8)
1969/12/31/18:00:17.389,(5 -6 -10 -4 -3 -3 1 6)
1969/12/31/18:00:17.405,(5 19 6 -3 -1 0 -1 3)
1969/12/31/18:00:17.405,(-7 -15 -19 -8 -1 -1 0 0)
1969/12/31/18:00:17.406,(-1 2 13 9 1 0 2 6)
1969/12/31/18:00:17.406,(3 9 4 -2 -1 -1 0 0)
1969/12/31/18:00:17.428,(-5 -3 -4 -9 -3 -3 -1 -1)
1969/12/31/18:00:17.428,(2 -4 4 4 0 1 0 1)
1969/12/31/18:00:17.429,(-1 0 6 2 -2 1 -3 -8)
1969/12/31/18:00:17.429,(-1 0 4 -2 -1 -1 1 1)
1969/12/31/18:00:17.442,(-4 -3 0 -3 -2 -3 -7 -7)
1969/12/31/18:00:17.442,(-5 -14 -13 -4 3 1 0 0)
1969/12/31/18:00:17.451,(6 6 -15 -11 -1 0 3 4)
1969/12/31/18:00:17.451,(-6 -17 -9 5 0 2 -2 -7)
1969/12/31/18:00:17.451,(-14 -44 50 42 11 21 8 6)
1969/12/31/18:00:17.451,(-30 -70 -85 -80 3 -7 -18 -91)
1969/12/31/18:00:17.459,(19 104 104 57 -7 -11 -14 -21)
1969/12/31/18:00:17.459,(30 -116 -100 -1 -20 -25 -31 -19)
1969/12/31/18:00:17.475,(-5 -29 -57 -24 -16 -5 21 -20)
1969/12/31/18:00:17.475,(18 32 52 52 44 6 13 36)
1969/12/31/18:00:17.476,(-3 -76 -100 -71 -45 -11 -24 -3)
1969/12/31/18:00:17.476,(74 27 -42 -15 -10 -4 15 5)
1969/12/31/18:00:17.497,(-97 -4 10 -8 -1 8 -7 -34)
1969/12/31/18:00:17.497,(-23 -23 -21 -18 -28 -19 -4 -2)
1969/12/31/18:00:17.499,(33 79 58 10 -10 -45 -33 -13)
1969/12/31/18:00:17.499,(-42 -94 -46 30 53 49 8 -13)
1969/12/31/18:00:17.512,(28 25 -97 -86 -50 7 27 66)
1969/12/31/18:00:17.512,(-16 127 127 79 23 10 20 17)
1969/12/31/18:00:17.521,(81 57 18 27 15 11 13 23)
1969/12/31/18:00:17.521,(-39 -57 -33 -14 -5 -12 -5 10)
1969/12/31/18:00:17.536,(-41 -46 -16 7 11 -24 -28 -29)
1969/12/31/18:00:17.536,(15 30 10 -5 3 20 4 2)
1969/12/31/18:00:17.537,(-27 -101 -47 1 9 -5 -23 -44)
1969/12/31/18:00:17.537,(-95 77 28 -22 -35 -12 -16 -43)
1969/12/31/18:00:17.559,(24 26 48 25 13 6 30 88)
1969/12/31/18:00:17.559,(24 -5 -4 15 3 -10 -7 14)
1969/12/31/18:00:17.561,(-3 -37 -23 -3 24 12 14 37)
1969/12/31/18:00:17.561,(3 10 2 -18 -25 8 3 -29)
1969/12/31/18:00:17.573,(-4 25 41 15 -10 -18 5 18)
1969/12/31/18:00:17.573,(-3 -38 -18 -5 3 6 -18 -15)
1969/12/31/18:00:17.583,(-23 -1 -19 -21 -5 -1 2 12)
1969/12/31/18:00:17.583,(-57 29 40 16 -3 -11 -11 -20)
1969/12/31/18:00:17.598,(99 -57 -29 -2 -5 -3 -7 -21)
1969/12/31/18:00:17.598,(15 -10 -78 -35 -8 -13 -8 -16)
1969/12/31/18:00:17.599,(-25 106 115 35 -4 2 -1 -9)
1969/12/31/18:00:17.599,(0 15 12 5 -7 -22 -9 -26)
1969/12/31/18:00:17.621,(-24 -42 -13 7 4 -25 -15 -5)
1969/12/31/18:00:17.621,(-11 -56 -58 -20 -17 19 -6 -26)
1969/12/31/18:00:17.623,(-11 98 90 34 22 -11 4 4)
1969/12/31/18:00:17.623,(-1 -2 2 -15 -16 7 -6 -11)
1969/12/31/18:00:17.635,(-19 -27 -29 -8 -9 -6 1 0)
1969/12/31/18:00:17.635,(-3 -6 -1 2 -9 -11 -2 10)
1969/12/31/18:00:17.644,(-9 -50 -27 -5 -3 -4 6 -6)
1969/12/31/18:00:17.644,(-23 -95 -88 0 66 12 -18 -42)
1969/12/31/18:00:17.660,(63 99 64 -4 -52 10 21 73)
1969/12/31/18:00:17.660,(45 64 70 10 -31 -41 12 33)
1969/12/31/18:00:17.661,(16 -38 -44 -11 3 37 3 26)
1969/12/31/18:00:17.661,(3 -51 -17 3 5 2 13 28)
1969/12/31/18:00:17.682,(-33 -93 -88 -26 18 -6 -10 -26)
1969/12/31/18:00:17.682,(8 13 5 2 1 -1 -6 12)
1969/12/31/18:00:17.684,(21 65 47 5 -8 -17 3 -11)
1969/12/31/18:00:17.684,(-29 -99 -61 -22 -13 2 14 34)
1969/12/31/18:00:17.697,(13 102 27 14 12 11 -3 -3)
1969/12/31/18:00:17.697,(23 78 91 41 -3 -7 -4 -10)
1969/12/31/18:00:17.706,(6 -50 -56 -16 5 9 -3 -41)
1969/12/31/18:00:17.706,(-2 18 8 12 -15 -28 -2 -12)
1969/12/31/18:00:17.720,(-28 -45 -4 8 7 3 -35 -30)
1969/12/31/18:00:17.720,(1 3 -1 -18 11 21 4 -16)
1969/12/31/18:00:17.727,(26 -90 -91 -41 -32 -14 -4 40)
1969/12/31/18:00:17.727,(43 127 98 27 20 20 14 26)
1969/12/31/18:00:17.744,(-27 -8 37 26 11 -19 -7 -25)
1969/12/31/18:00:17.744,(-39 1 -2 0 -1 -24 -16 -28)
1969/12/31/18:00:17.750,(9 38 4 -7 -6 18 7 19)
1969/12/31/18:00:17.751,(-15 -9 -7 -9 -19 -6 -2 -13)
1969/12/31/18:00:17.758,(-9 -33 -37 4 37 5 11 17)
1969/12/31/18:00:17.758,(-37 -53 -26 -12 -13 5 -21 -37)
1969/12/31/18:00:17.768,(-17 28 17 11 2 -7 13 1)
1969/12/31/18:00:17.768,(-17 -9 34 10 7 25 -2 -17)
1969/12/31/18:00:17.782,(-18 7 -3 -13 -20 -8 -7 4)
1969/12/31/18:00:17.782,(-14 -91 -76 -20 4 10 1 -5)
1969/12/31/18:00:17.789,(2 21 -1 -21 -7 -4 18 14)
1969/12/31/18:00:17.789,(25 51 50 23 7 -6 16 26)
1969/12/31/18:00:17.806,(11 58 56 17 1 8 4 0)
1969/12/31/18:00:17.806,(5 -31 -21 36 47 1 -7 -11)
1969/12/31/18:00:17.808,(-14 -62 -62 -73 -74 7 -5 6)
1969/12/31/18:00:17.808,(-11 -22 -13 -14 -5 4 -10 -20)
1969/12/31/18:00:17.820,(-6 -22 -27 -13 -8 -17 -2 9)
1969/12/31/18:00:17.820,(3 13 -4 1 9 -3 4 3)
1969/12/31/18:00:17.835,(-7 5 15 28 32 10 3 9)
1969/12/31/18:00:17.835,(48 -18 -30 -9 3 8 8 25)
1969/12/31/18:00:17.844,(-17 40 30 -1 -8 -7 0 -16)
1969/12/31/18:00:17.844,(-17 -9 3 -9 -14 2 -4 -8)
1969/12/31/18:00:17.851,(-11 25 31 25 14 -3 4 -15)
1969/12/31/18:00:17.851,(20 -14 -21 -21 0 8 1 37)
1969/12/31/18:00:17.867,(5 -48 -34 -5 -9 -4 6 8)
1969/12/31/18:00:17.867,(22 39 15 -3 6 1 14 -8)
1969/12/31/18:00:17.869,(-23 -59 -27 -7 -17 -35 -46 -54)
1969/12/31/18:00:17.869,(1 106 65 19 -8 15 -9 -24)
1969/12/31/18:00:17.891,(17 -10 3 5 13 5 5 26)
1969/12/31/18:00:17.891,(-19 -66 -54 -23 -12 1 -13 -13)
1969/12/31/18:00:17.892,(-6 14 11 9 9 -12 2 11)
1969/12/31/18:00:17.892,(-6 -106 -66 -20 -14 -19 0 24)
1969/12/31/18:00:17.905,(2 80 -12 -16 -12 -5 -10 -25)
1969/12/31/18:00:17.905,(7 78 85 21 -7 0 3 -6)
1969/12/31/18:00:17.913,(4 -59 -49 -6 11 8 9 18)
1969/12/31/18:00:17.913,(-16 -20 -2 7 15 3 -11 -14)
1969/12/31/18:00:17.929,(-9 -42 -26 -10 5 6 7 13)
1969/12/31/18:00:17.929,(0 -20 -28 -12 -3 -2 2 14)
1969/12/31/18:00:17.931,(14 44 33 22 30 -1 3 3)
1969/12/31/18:00:17.931,(-2 11 14 0 -23 -9 -17 -18)
1969/12/31/18:00:17.953,(25 -29 -14 -3 -9 14 9 7)
1969/12/31/18:00:17.953,(-9 27 7 -7 -4 -5 -4 -19)
1969/12/31/18:00:17.954,(26 -35 -19 -6 3 4 2 30)
1969/12/31/18:00:17.954,(22 47 23 13 4 -15 -20 -7)
1969/12/31/18:00:17.967,(17 -28 -19 6 14 -2 1 11)
1969/12/31/18:00:17.967,(-6 72 79 17 0 11 18 28)
1969/12/31/18:00:17.974,(-4 -14 -4 0 -2 -11 -6 -16)
1969/12/31/18:00:17.974,(-9 -30 -45 -14 7 2 6 2)
1969/12/31/18:00:17.991,(10 28 32 3 0 7 2 0)
1969/12/31/18:00:17.991,(-21 -52 -42 -11 -5 -7 2 4)
1969/12/31/18:00:17.993,(8 3 -7 7 10 7 -11 -14)
1969/12/31/18:00:17.993,(-10 -7 6 2 -1 1 -1 -15)
1969/12/31/18:00:18.014,(2 -51 -38 -8 -3 -9 -5 -3)
1969/12/31/18:00:18.014,(-28 13 -14 -12 3 5 -15 -36)
1969/12/31/18:00:18.015,(8 13 9 10 -2 -8 -9 -16)
1969/12/31/18:00:18.015,(-43 -34 -29 -19 -15 -3 -3 -33)
1969/12/31/18:00:18.029,(-5 43 51 35 37 28 20 -4)
1969/12/31/18:00:18.029,(46 -32 -42 -20 -40 -31 -10 29)
1969/12/31/18:00:18.037,(7 1 10 1 3 12 19 28)
1969/12/31/18:00:18.037,(14 25 -1 -10 -9 -2 3 12)
1969/12/31/18:00:18.052,(-45 -40 -23 -6 -2 -6 -6 -26)
1969/12/31/18:00:18.052,(-8 3 18 18 25 14 -2 -7)
1969/12/31/18:00:18.054,(-31 28 19 -5 -16 -7 -18 -49)
1969/12/31/18:00:18.054,(23 -13 4 9 -4 -3 12 19)
1969/12/31/18:00:18.076,(11 25 24 -5 -5 12 3 16)
1969/12/31/18:00:18.076,(-22 -80 -76 -37 -13 -3 4 -6)
1969/12/31/18:00:18.077,(2 93 78 34 11 -6 3 19)
1969/12/31/18:00:18.077,(-2 -18 -5 3 8 5 -2 -9)
1969/12/31/18:00:18.089,(-6 -8 -23 -7 -4 -19 -27 -19)
1969/12/31/18:00:18.089,(13 -1 13 7 13 11 14 26)
1969/12/31/18:00:18.100,(2 -12 -21 -10 -5 5 7 15)
1969/12/31/18:00:18.100,(3 28 11 2 2 -12 -15 -17)
1969/12/31/18:00:18.114,(-17 -56 -13 -1 5 -4 -4 -10)
1969/12/31/18:00:18.114,(-15 -35 -31 -14 -26 -9 -9 -15)
1969/12/31/18:00:18.116,(-15 -5 11 1 -1 5 10 2)
1969/12/31/18:00:18.116,(11 70 55 18 8 -3 -10 5)
1969/12/31/18:00:18.138,(22 10 -7 -4 1 0 -3 4)
1969/12/31/18:00:18.138,(-46 5 9 0 -2 -10 -20 -57)
1969/12/31/18:00:18.139,(0 -6 10 17 15 5 1 -10)
1969/12/31/18:00:18.139,(4 -24 -26 -23 -13 8 0 17)
1969/12/31/18:00:18.151,(9 19 26 11 10 0 16 30)
1969/12/31/18:00:18.151,(3 -13 -14 -6 2 7 6 22)
1969/12/31/18:00:18.160,(13 -75 -67 -25 -5 -9 -4 8)
1969/12/31/18:00:18.160,(13 41 37 16 2 5 24 16)
1969/12/31/18:00:18.176,(-34 25 23 0 -7 -10 -18 -48)
1969/12/31/18:00:18.176,(38 32 19 11 5 -1 6 26)
1969/12/31/18:00:18.177,(14 -3 -16 -6 9 18 9 5)
1969/12/31/18:00:18.177,(-13 -18 1 3 13 -2 11 25)
