time,.data
1969/12/31/18:00:05.774,(0 0 0 1 -1 0 -1 0)
1969/12/31/18:00:05.774,(-2 -3 -3 -2 -1 -1 -1 -1)
1969/12/31/18:00:05.776,(-2 -1 2 -1 0 1 -2 -1)
1969/12/31/18:00:05.776,(-1 0 0 0 1 0 -1 1)
1969/12/31/18:00:05.790,(0 0 1 0 -2 -2 -1 0)
1969/12/31/18:00:05.790,(0 0 -1 -1 0 -1 -1 0)
1969/12/31/18:00:05.805,(-1 1 -1 1 -2 -1 2 2)
1969/12/31/18:00:05.805,(-2 0 2 5 2 -1 -1 -1)
1969/12/31/18:00:05.815,(-1 -2 -5 -5 -5 -3 -4 -6)
1969/12/31/18:00:05.815,(2 3 5 -2 0 0 -2 -1)
1969/12/31/18:00:05.817,(-1 -2 -4 -4 -4 -1 1 -1)
1969/12/31/18:00:05.817,(0 -1 -3 -3 -1 -1 0 -1)
1969/12/31/18:00:05.840,(0 -1 -2 0 -1 0 1 1)
1969/12/31/18:00:05.840,(-3 -3 -4 -2 -1 -2 -1 -2)
1969/12/31/18:00:05.843,(1 1 2 -2 -1 -2 -2 -3)
1969/12/31/18:00:05.843,(-3 -6 -9 -9 -2 -2 0 0)
1969/12/31/18:00:05.865,(0 1 2 0 -1 0 -2 1)
1969/12/31/18:00:05.865,(-3 -2 0 0 1 -2 -4 -3)
1969/12/31/18:00:05.866,(0 2 -5 -3 -1 -3 0 -1)
1969/12/31/18:00:05.866,(-2 2 12 10 3 0 -1 -1)
1969/12/31/18:00:05.881,(0 2 2 2 1 0 2 0)
1969/12/31/18:00:05.881,(2 1 -3 -6 -1 -1 -2 -1)
1969/12/31/18:00:05.882,(-5 -6 1 0 -5 -8 -2 -4)
1969/12/31/18:00:05.882,(2 2 -2 3 4 1 2 2)
1969/12/31/18:00:05.905,(-2 -5 -9 -6 -1 3 2 1)
1969/12/31/18:00:05.905,(-1 1 3 -2 -6 -7 -8 -11)
1969/12/31/18:00:05.907,(-2 -5 -9 2 1 1 3 1)
1969/12/31/18:00:05.907,(-1 -1 4 3 -1 -2 1 1)
1969/12/31/18:00:05.920,(1 3 6 3 -2 -2 -2 -3)
1969/12/31/18:00:05.920,(-4 -9 -19 -15 -3 4 4 5)
1969/12/31/18:00:05.930,(3 5 6 -2 -3 -3 -2 -2)
1969/12/31/18:00:05.930,(-4 -1 5 3 -6 -4 -2 -4)
1969/12/31/18:00:05.947,(-1 -1 -10 1 10 2 4 3)
1969/12/31/18:00:05.947,(1 4 26 21 4 -2 -2 -5)
1969/12/31/18:00:05.949,(-1 -3 -8 2 7 5 9 13)
1969/12/31/18:00:05.949,(0 -8 -21 -25 -10 -8 -2 -2)
1969/12/31/18:00:05.970,(-2 -3 -7 -3 -2 -6 5 3)
1969/12/31/18:00:05.971,(2 3 -8 -2 0 -3 2 4)
1969/12/31/18:00:05.997,(1 2 15 4 2 -2 0 1)
1969/12/31/18:00:05.997,(1 4 -1 5 4 3 0 -2)
1969/12/31/18:00:05.998,(0 -4 -11 -16 -6 1 -4 0)
1969/12/31/18:00:05.998,(-4 -6 5 0 -3 6 1 0)
1969/12/31/18:00:05.999,(3 3 8 7 -6 2 -14 -11)
1969/12/31/18:00:05.999,(-3 -2 -7 -6 -4 6 -6 -4)
1969/12/31/18:00:06.011,(0 3 21 9 -3 4 -4 -2)
1969/12/31/18:00:06.011,(-2 0 4 5 -1 5 1 2)
1969/12/31/18:00:06.019,(-1 -7 -7 -10 -5 2 1 4)
1969/12/31/18:00:06.019,(0 -3 -8 -8 -3 -4 -5 -2)
1969/12/31/18:00:06.037,(0 3 14 9 -4 -7 -5 -2)
1969/12/31/18:00:06.037,(-1 -6 -8 -3 7 8 2 -1)
1969/12/31/18:00:06.039,(-6 4 1 0 -1 -4 -2 -5)
1969/12/31/18:00:06.039,(1 -1 9 2 0 0 -4 -7)
1969/12/31/18:00:06.052,(-3 -1 -5 -5 -2 -3 -3 -5)
1969/12/31/18:00:06.052,(-1 0 -6 -1 -3 -7 4 9)
1969/12/31/18:00:06.062,(-1 -2 -15 -3 6 -3 -2 -3)
1969/12/31/18:00:06.062,(-1 1 -7 -4 2 0 10 6)
1969/12/31/18:00:06.078,(-6 -2 -7 -3 -2 -10 2 0)
1969/12/31/18:00:06.078,(-1 -1 -5 -2 -1 -8 -1 -1)
1969/12/31/18:00:06.079,(-3 -4 -4 -5 1 -2 2 0)
1969/12/31/18:00:06.079,(-1 2 6 2 -3 -4 -5 -4)
1969/12/31/18:00:06.104,(4 0 4 5 3 7 0 -1)
1969/12/31/18:00:06.104,(-2 -2 -3 -6 -10 -7 -17 -13)
1969/12/31/18:00:06.105,(-1 -3 5 -2 -5 4 -6 -6)
1969/12/31/18:00:06.105,(-2 -1 3 2 -2 2 -4 -2)
1969/12/31/18:00:06.118,(0 -3 -1 2 -1 1 -4 -3)
1969/12/31/18:00:06.118,(0 -6 -4 -2 -2 3 3 3)
1969/12/31/18:00:06.128,(-4 3 1 -2 -1 0 -1 -4)
1969/12/31/18:00:06.128,(0 1 6 6 1 0 -1 -1)
1969/12/31/18:00:06.145,(0 -2 -5 -4 -2 0 4 3)
1969/12/31/18:00:06.145,(-1 0 -1 0 0 -1 0 -2)
1969/12/31/18:00:06.146,(1 -6 -9 -4 -3 -6 -1 -2)
1969/12/31/18:00:06.146,(7 -15 -23 -9 -1 -2 6 8)
1969/12/31/18:00:06.168,(-11 5 6 -4 -3 -6 4 -1)
1969/12/31/18:00:06.168,(13 14 3 4 8 -2 -10 -7)
1969/12/31/18:00:06.170,(-11 10 24 9 3 1 0 -2)
1969/12/31/18:00:06.170,(-8 -14 -4 -5 -6 -1 6 7)
1969/12/31/18:00:06.184,(0 -9 -5 2 0 0 -8 -6)
1969/12/31/18:00:06.184,(6 1 -3 -1 -2 1 3 12)
1969/12/31/18:00:06.193,(-1 -12 -15 -8 -5 -1 -3 -3)
1969/12/31/18:00:06.193,(7 12 0 3 1 -2 -9 -6)
1969/12/31/18:00:06.210,(-2 -1 -3 -1 1 0 4 1)
1969/12/31/18:00:06.210,(-4 -1 -1 -3 0 -6 4 7)
1969/12/31/18:00:06.212,(9 4 -9 -4 1 -1 11 11)
1969/12/31/18:00:06.212,(-3 -6 0 0 1 -2 5 -9)
1969/12/31/18:00:06.234,(0 4 -4 -4 -2 -3 0 -3)
1969/12/31/18:00:06.234,(-29 -8 -3 0 -1 -3 2 -14)
1969/12/31/18:00:06.236,(-21 -11 -8 -4 -3 -12 -10 -8)
1969/12/31/18:00:06.236,(41 17 -1 -2 3 -5 10 33)
1969/12/31/18:00:06.249,(16 8 1 3 7 0 11 -4)
1969/12/31/18:00:06.249,(-54 -24 -6 -7 -4 -4 -7 -12)
1969/12/31/18:00:06.259,(22 13 13 3 -2 10 0 -5)
1969/12/31/18:00:06.259,(-10 3 16 6 -3 10 -16 -1)
1969/12/31/18:00:06.276,(6 -13 4 -3 -12 5 -21 -29)
1969/12/31/18:00:06.276,(-5 0 10 4 -6 9 -5 3)
1969/12/31/18:00:06.278,(-24 -13 2 1 -4 4 -9 -13)
1969/12/31/18:00:06.278,(31 18 10 2 1 7 3 18)
1969/12/31/18:00:06.301,(-24 -4 3 2 1 -1 -12 -25)
1969/12/31/18:00:06.301,(8 -1 -5 -4 -2 -1 -1 -5)
1969/12/31/18:00:06.302,(32 19 3 1 2 7 17 23)
1969/12/31/18:00:06.303,(-18 -3 -3 0 0 -5 -2 -12)
1969/12/31/18:00:06.315,(3 1 1 3 2 1 5 46)
1969/12/31/18:00:06.315,(-49 -33 -14 -8 -1 5 -3 -36)
1969/12/31/18:00:06.325,(45 17 4 4 4 -3 8 37)
1969/12/31/18:00:06.325,(-10 11 1 1 -2 -27 -10 -29)
1969/12/31/18:00:06.342,(-31 -13 -7 0 7 33 24 -17)
1969/12/31/18:00:06.342,(6 -11 -12 -11 -4 4 -49 -25)
1969/12/31/18:00:06.344,(-11 -5 0 -2 -2 -20 -3 8)
1969/12/31/18:00:06.344,(-12 -1 -1 -1 -2 -24 -12 -23)
1969/12/31/18:00:06.366,(12 -2 -1 1 12 48 11 40)
1969/12/31/18:00:06.366,(40 20 2 1 -6 -63 6 29)
1969/12/31/18:00:06.368,(-30 -28 -7 -3 -8 19 8 -23)
1969/12/31/18:00:06.368,(-16 7 -4 -8 -9 -56 -32 -20)
1969/12/31/18:00:06.381,(-26 -22 -4 -4 -5 -9 -1 -19)
1969/12/31/18:00:06.381,(27 21 6 1 7 65 23 -11)
1969/12/31/18:00:06.391,(32 16 7 10 10 15 18 37)
1969/12/31/18:00:06.391,(-39 -33 -15 -11 -10 -4 17 6)
1969/12/31/18:00:06.407,(20 4 -2 -3 -2 -18 -2 33)
1969/12/31/18:00:06.407,(-8 8 6 2 -4 -29 -17 -41)
1969/12/31/18:00:06.410,(10 -1 -2 2 4 19 19 13)
1969/12/31/18:00:06.410,(59 34 16 13 16 57 27 41)
1969/12/31/18:00:06.433,(-18 -22 -21 -14 -18 -69 -18 -28)
1969/12/31/18:00:06.433,(8 14 10 6 2 -31 12 14)
1969/12/31/18:00:06.434,(11 19 -3 0 6 39 5 10)
1969/12/31/18:00:06.434,(-11 -22 -9 -9 -12 -9 -21 -22)
1969/12/31/18:00:06.447,(-5 -5 -4 1 10 95 7 22)
1969/12/31/18:00:06.447,(3 -2 3 5 -6 -74 8 -1)
1969/12/31/18:00:06.457,(-13 3 -6 -8 -5 23 -10 -16)
1969/12/31/18:00:06.457,(-47 -23 -10 -4 -9 -36 -49 -72)
1969/12/31/18:00:06.473,(29 24 10 0 -7 -36 -16 28)
1969/12/31/18:00:06.473,(-10 -10 -9 -6 -10 -2 7 -2)
1969/12/31/18:00:06.475,(-19 -7 2 3 15 51 21 -28)
1969/12/31/18:00:06.475,(53 24 15 12 0 -21 20 70)
1969/12/31/18:00:06.497,(5 0 -6 -3 0 1 20 13)
1969/12/31/18:00:06.497,(39 1 -1 -4 3 41 -12 -4)
1969/12/31/18:00:06.499,(-15 -6 4 6 -1 -32 8 -5)
1969/12/31/18:00:06.499,(-26 -17 -9 -6 -1 4 -14 -33)
1969/12/31/18:00:06.513,(40 23 7 5 14 28 19 53)
1969/12/31/18:00:06.513,(1 -7 -2 1 -4 -4 17 53)
1969/12/31/18:00:06.522,(37 12 3 3 1 -29 -20 13)
1969/12/31/18:00:06.522,(-53 -38 -8 -7 -3 54 23 -20)
1969/12/31/18:00:06.538,(-20 17 -1 -3 0 16 -46 -60)
1969/12/31/18:00:06.538,(-6 10 9 8 14 24 -6 -48)
1969/12/31/18:00:06.554,(-65 -31 -20 -18 -26 -61 -42 -108)
1969/12/31/18:00:06.554,(7 5 -1 -3 2 -7 -11 23)
1969/12/31/18:00:06.563,(10 11 11 5 3 12 36 3)
1969/12/31/18:00:06.563,(0 -1 -5 -8 -11 3 -56 -4)
1969/12/31/18:00:06.565,(19 6 -2 3 0 -27 -31 -7)
1969/12/31/18:00:06.565,(-10 2 1 -1 -2 5 1 -24)
1969/12/31/18:00:06.588,(-30 -32 -14 -14 -16 -24 -2 -29)
1969/12/31/18:00:06.588,(19 15 4 -3 -2 -69 -3 36)
1969/12/31/18:00:06.590,(-11 -13 -3 5 17 76 3 4)
1969/12/31/18:00:06.590,(-35 -18 -3 5 4 -8 11 9)
1969/12/31/18:00:06.604,(40 36 6 4 -2 -31 7 6)
1969/12/31/18:00:06.604,(-11 -12 -11 -9 -10 -13 -9 -12)
1969/12/31/18:00:06.611,(14 11 6 0 8 37 -3 38)
1969/12/31/18:00:06.611,(-8 0 3 1 2 28 29 6)
1969/12/31/18:00:06.631,(-20 -12 1 2 3 43 1 -7)
1969/12/31/18:00:06.631,(-9 -2 1 1 -2 -27 -18 -10)
1969/12/31/18:00:06.633,(-13 9 -4 -5 -3 -8 14 47)
1969/12/31/18:00:06.633,(24 -1 -1 -2 -1 -9 3 45)
1969/12/31/18:00:06.646,(4 -5 2 1 -9 -39 -20 0)
1969/12/31/18:00:06.646,(-39 -12 -17 -14 -7 89 33 -13)
1969/12/31/18:00:06.649,(-12 -10 1 -1 -10 -69 -20 -2)
1969/12/31/18:00:06.649,(11 5 0 0 7 15 -39 -13)
1969/12/31/18:00:06.661,(-8 -9 -7 -8 -13 -32 -6 -26)
1969/12/31/18:00:06.661,(7 5 2 4 14 35 1 -1)
1969/12/31/18:00:06.671,(5 -3 1 -1 -9 -31 26 31)
1969/12/31/18:00:06.671,(-13 -9 -7 -6 -7 -5 -18 -20)
1969/12/31/18:00:06.686,(18 16 5 3 8 5 0 32)
1969/12/31/18:00:06.686,(-2 -21 -1 1 11 29 59 13)
1969/12/31/18:00:06.696,(-2 -12 -7 -7 -13 1 -21 -36)
1969/12/31/18:00:06.696,(-9 -4 -6 -8 -2 27 37 0)
1969/12/31/18:00:06.712,(23 9 8 7 -1 -11 -11 4)
1969/12/31/18:00:06.712,(-2 -4 -1 -11 -3 30 3 12)
1969/12/31/18:00:06.713,(-3 -1 1 7 14 16 15 1)
1969/12/31/18:00:06.713,(-39 3 10 17 3 -82 -65 -67)
1969/12/31/18:00:06.726,(-11 -18 -12 -7 -8 -43 63 32)
1969/12/31/18:00:06.726,(21 16 -1 1 -28 -68 -59 -31)
1969/12/31/18:00:06.743,(-39 -12 -6 -7 17 43 -14 -47)
1969/12/31/18:00:06.743,(20 10 4 3 -6 14 9 6)
1969/12/31/18:00:06.752,(-8 -5 -4 -5 -5 0 -25 -22)
1969/12/31/18:00:06.752,(6 -1 7 18 49 -13 12 18)
1969/12/31/18:00:06.762,(20 11 4 -1 -17 -7 38 25)
1969/12/31/18:00:06.762,(10 6 -6 -11 -27 -27 -9 18)
1969/12/31/18:00:06.778,(-24 -13 1 3 19 -4 -35 -24)
1969/12/31/18:00:06.778,(-4 -9 -3 -3 -83 -31 6 10)
1969/12/31/18:00:06.779,(3 2 -3 -9 -3 -19 -21 -11)
1969/12/31/18:00:06.779,(18 7 -1 -12 -40 8 22 15)
1969/12/31/18:00:06.792,(-9 1 -3 -6 8 18 -34 -48)
1969/12/31/18:00:06.792,(3 11 3 12 62 42 -14 19)
1969/12/31/18:00:06.802,(-11 -21 -9 4 25 -30 2 3)
1969/12/31/18:00:06.802,(14 0 -3 4 39 38 23 7)
1969/12/31/18:00:06.817,(1 6 5 17 26 -20 14 7)
1969/12/31/18:00:06.817,(7 2 3 9 13 5 -18 -4)
1969/12/31/18:00:06.827,(-7 -4 -6 -19 -101 -87 -16 -21)
1969/12/31/18:00:06.827,(13 5 1 -12 -56 -60 -18 17)
1969/12/31/18:00:06.843,(-9 -6 -5 -10 -10 13 -11 -21)
1969/12/31/18:00:06.843,(-4 0 6 5 22 19 16 23)
1969/12/31/18:00:06.849,(2 3 -1 -1 71 89 4 -3)
1969/12/31/18:00:06.850,(8 4 2 11 -30 -4 18 10)
1969/12/31/18:00:06.858,(0 -3 -3 -13 -46 -39 -15 7)
1969/12/31/18:00:06.858,(-12 -9 -11 -16 4 16 8 -38)
1969/12/31/18:00:06.868,(2 -7 7 10 42 42 15 24)
1969/12/31/18:00:06.868,(-2 -7 1 26 72 25 15 4)
1969/12/31/18:00:06.882,(1 -1 -2 4 3 13 1 15)
1969/12/31/18:00:06.882,(36 15 -35 -38 -87 -50 2 25)
1969/12/31/18:00:06.892,(-14 -16 12 -2 13 -4 -9 -10)
1969/12/31/18:00:06.892,(-6 20 42 26 39 18 7 9)
1969/12/31/18:00:06.908,(7 10 10 16 -7 9 -5 -15)
1969/12/31/18:00:06.908,(7 -6 -13 -4 17 19 0 12)
1969/12/31/18:00:06.911,(19 -7 -68 -18 -3 -11 8 2)
1969/12/31/18:00:06.911,(1 35 81 26 3 31 15 22)
1969/12/31/18:00:06.924,(-54 -3 32 -3 -26 -37 -8 -22)
1969/12/31/18:00:06.924,(-5 10 14 2 -1 8 12 5)
1969/12/31/18:00:06.934,(30 7 -23 0 -12 -28 -21 -20)
1969/12/31/18:00:06.934,(14 -66 -91 -32 15 10 -1 -9)
1969/12/31/18:00:06.949,(37 37 14 3 21 32 16 27)
1969/12/31/18:00:06.949,(-20 60 74 28 -17 -4 5 16)
1969/12/31/18:00:06.958,(-27 -2 27 3 -20 -35 -22 -45)
1969/12/31/18:00:06.959,(-19 -6 0 -4 10 10 -8 4)
1969/12/31/18:00:06.974,(37 -58 -105 -25 5 19 8 -12)
1969/12/31/18:00:06.974,(-20 -64 10 5 36 7 32 28)
1969/12/31/18:00:06.976,(8 43 9 -2 -46 -19 8 22)
1969/12/31/18:00:06.976,(7 2 -8 -18 -38 -35 -58 -92)
1969/12/31/18:00:06.990,(39 -30 -41 -8 1 1 19 84)
1969/12/31/18:00:06.990,(-53 40 41 32 71 41 22 4)
1969/12/31/18:00:06.999,(48 44 25 -2 -83 -56 -7 32)
1969/12/31/18:00:06.999,(-14 6 -2 -25 -22 0 5 4)
1969/12/31/18:00:07.015,(8 -22 -36 -4 36 11 -20 -33)
1969/12/31/18:00:07.015,(7 -102 -95 -25 1 37 24 17)
1969/12/31/18:00:07.025,(-68 32 46 4 -32 -46 -45 -26)
1969/12/31/18:00:07.025,(28 9 -36 -14 -3 -16 -1 -49)
1969/12/31/18:00:07.041,(-60 107 127 51 7 -3 -7 -21)
1969/12/31/18:00:07.041,(50 30 29 24 36 30 -7 -10)
1969/12/31/18:00:07.042,(-17 -117 -94 -22 10 25 25 5)
1969/12/31/18:00:07.042,(-4 -53 -102 -63 -42 -26 24 9)
1969/12/31/18:00:07.056,(-51 38 82 27 22 22 -42 -26)
1969/12/31/18:00:07.056,(-15 26 18 8 -20 -34 -23 -34)
1969/12/31/18:00:07.065,(-14 -47 -8 14 43 19 -2 -21)
1969/12/31/18:00:07.065,(40 87 43 20 33 28 -9 5)
1969/12/31/18:00:07.080,(-30 -48 -30 -15 -75 -61 27 -6)
1969/12/31/18:00:07.081,(36 -64 -50 -39 -76 -67 -16 18)
1969/12/31/18:00:07.090,(5 -14 -14 -3 62 49 -4 63)
1969/12/31/18:00:07.090,(-50 -2 20 10 5 21 31 -2)
1969/12/31/18:00:07.107,(19 86 18 15 37 14 -10 -47)
1969/12/31/18:00:07.107,(10 20 11 -33 -93 -85 -21 -3)
1969/12/31/18:00:07.108,(25 -44 -86 -33 28 20 19 -25)
1969/12/31/18:00:07.108,(-65 80 107 64 32 -3 -22 -65)
1969/12/31/18:00:07.121,(37 -12 -49 -2 28 33 5 -6)
1969/12/31/18:00:07.121,(-18 -13 -31 -4 12 2 12 -20)
1969/12/31/18:00:07.131,(-2 -98 -72 -17 3 32 28 19)
1969/12/31/18:00:07.131,(-24 75 11 2 -7 7 52 127)
1969/12/31/18:00:07.146,(72 87 80 33 36 26 -5 15)
1969/12/31/18:00:07.146,(-40 -52 -43 -7 -9 -3 -31 -101)
1969/12/31/18:00:07.156,(4 29 64 23 -6 -44 -15 0)
1969/12/31/18:00:07.156,(59 -102 -82 -32 -20 30 -4 20)
1969/12/31/18:00:07.172,(-55 -10 -29 -35 -51 -47 37 10)
1969/12/31/18:00:07.173,(21 88 47 8 1 2 -61 -3)
1969/12/31/18:00:07.174,(13 37 63 22 -5 32 0 -13)
1969/12/31/18:00:07.174,(7 -87 -56 -11 35 -19 -20 -5)
1969/12/31/18:00:07.187,(-22 -89 -12 -8 10 6 31 23)
1969/12/31/18:00:07.187,(2 39 -27 -15 -3 37 42 41)
1969/12/31/18:00:07.197,(-41 -11 49 14 -32 -36 -34 -27)
1969/12/31/18:00:07.197,(-12 21 14 -1 -3 -18 -25 -32)
1969/12/31/18:00:07.212,(12 22 -10 -9 32 43 -1 -10)
1969/12/31/18:00:07.212,(32 4 -1 24 20 -24 8 27)
1969/12/31/18:00:07.222,(23 -17 -18 -12 -17 11 25 52)
1969/12/31/18:00:07.222,(6 -55 -46 -13 49 59 8 -3)
1969/12/31/18:00:07.237,(-30 1 36 18 -39 -53 -11 20)
1969/12/31/18:00:07.237,(29 10 25 16 3 23 19 42)
1969/12/31/18:00:07.240,(-21 42 -31 -41 -26 -24 -38 -74)
1969/12/31/18:00:07.240,(22 -65 -22 1 19 -28 0 1)
1969/12/31/18:00:07.253,(-12 20 2 19 55 64 9 -19)
1969/12/31/18:00:07.254,(-2 -40 -46 -33 -78 -76 -20 27)
1969/12/31/18:00:07.271,(-4 91 84 13 -13 -14 -15 -16)
1969/12/31/18:00:07.271,(24 56 29 13 24 37 0 10)
1969/12/31/18:00:07.278,(32 -82 -103 -42 13 -5 24 49)
1969/12/31/18:00:07.278,(-56 98 92 41 3 -5 -26 -62)
1969/12/31/18:00:07.286,(12 -27 -59 2 36 26 22 23)
1969/12/31/18:00:07.286,(-1 12 65 32 -44 -39 -7 20)
1969/12/31/18:00:07.303,(18 -38 -21 -5 -6 18 30 12)
1969/12/31/18:00:07.303,(-3 -73 -46 -3 81 58 -8 7)
1969/12/31/18:00:07.305,(5 7 -50 -23 -69 -68 -40 -58)
1969/12/31/18:00:07.305,(-36 71 92 12 -2 5 -16 -45)
1969/12/31/18:00:07.319,(3 -41 -39 -15 -16 -3 -38 -13)
1969/12/31/18:00:07.319,(9 -16 -17 -9 2 -8 15 -15)
1969/12/31/18:00:07.328,(7 45 69 36 44 36 1 46)
1969/12/31/18:00:07.328,(8 -71 -52 -29 -52 -29 47 47)
1969/12/31/18:00:07.344,(-36 7 -9 -32 -75 -45 -36 -4)
1969/12/31/18:00:07.344,(-5 97 44 11 39 14 1 -29)
1969/12/31/18:00:07.351,(-19 -47 14 19 60 29 -12 -7)
1969/12/31/18:00:07.351,(43 51 -38 8 30 32 25 59)
1969/12/31/18:00:07.369,(-22 -26 27 -4 -36 -11 11 -18)
1969/12/31/18:00:07.369,(-1 -33 -9 2 8 31 5 -15)
1969/12/31/18:00:07.385,(-6 -61 -30 -3 -4 -21 1 0)
1969/12/31/18:00:07.385,(-17 25 -17 -14 -18 -21 -25 -48)
1969/12/31/18:00:07.387,(5 63 42 22 19 0 7 4)
1969/12/31/18:00:07.387,(37 -35 -21 -3 10 -14 -18 -1)
1969/12/31/18:00:07.394,(-7 -50 -21 10 30 23 27 30)
1969/12/31/18:00:07.394,(3 -7 -11 -19 -32 -15 -14 -5)
1969/12/31/18:00:07.418,(3 -11 -28 -26 -36 -10 27 2)
1969/12/31/18:00:07.418,(-20 -28 6 14 32 15 -14 -11)
1969/12/31/18:00:07.421,(13 61 -9 -7 -19 -6 5 4)
1969/12/31/18:00:07.421,(13 27 20 25 72 77 44 19)
1969/12/31/18:00:07.435,(-39 27 45 3 -82 -89 -72 -63)
1969/12/31/18:00:07.435,(7 18 20 0 -9 10 9 7)
1969/12/31/18:00:07.442,(35 -90 -55 0 69 28 0 14)
1969/12/31/18:00:07.442,(-35 61 24 21 -17 -10 1 -28)
1969/12/31/18:00:07.460,(47 72 60 -1 -37 -27 -28 13)
1969/12/31/18:00:07.460,(-6 -23 -33 -2 20 18 27 26)
1969/12/31/18:00:07.461,(-38 -37 -10 -16 -28 -18 -2 -20)
1969/12/31/18:00:07.461,(25 -49 -30 -27 -29 -23 -13 42)
1969/12/31/18:00:07.475,(-41 -67 -57 6 74 45 16 -24)
1969/12/31/18:00:07.475,(-8 -6 6 -9 -25 -18 4 22)
1969/12/31/18:00:07.491,(21 80 29 22 26 32 33 12)
1969/12/31/18:00:07.492,(-17 -118 -87 -62 -99 -85 -3 21)
1969/12/31/18:00:07.501,(15 82 79 51 59 19 -16 -26)
1969/12/31/18:00:07.501,(-13 71 36 14 15 13 -9 -36)
1969/12/31/18:00:07.508,(-29 -1 -1 2 9 17 5 -8)
1969/12/31/18:00:07.508,(-10 22 67 24 5 4 47 47)
1969/12/31/18:00:07.527,(-6 -34 -49 -18 -24 -55 -30 -16)
1969/12/31/18:00:07.527,(18 -41 -31 -21 -27 17 3 28)
1969/12/31/18:00:07.529,(-19 68 46 5 -41 -35 -25 -29)
1969/12/31/18:00:07.529,(-6 -21 17 30 45 27 -11 -22)
1969/12/31/18:00:07.541,(34 -27 -30 -12 9 18 20 40)
1969/12/31/18:00:07.541,(-13 57 53 15 -6 -21 -22 19)
1969/12/31/18:00:07.557,(26 -46 -46 -31 -46 -23 26 70)
1969/12/31/18:00:07.557,(-9 -9 -10 -6 28 9 -63 -80)
1969/12/31/18:00:07.566,(-17 -30 -15 9 38 29 20 -13)
1969/12/31/18:00:07.566,(16 -84 -94 -37 -20 17 17 20)
1969/12/31/18:00:07.574,(-7 35 45 5 -7 -13 12 9)
1969/12/31/18:00:07.574,(10 76 52 34 2 -11 17 33)
1969/12/31/18:00:07.592,(17 -57 -38 -14 -7 -9 -17 -19)
1969/12/31/18:00:07.592,(31 38 28 5 12 32 14 25)
1969/12/31/18:00:07.594,(-47 80 96 55 42 38 25 11)
1969/12/31/18:00:07.594,(-12 -49 -31 -13 -13 -36 -60 -45)
1969/12/31/18:00:07.616,(-9 -4 4 -13 -39 -13 23 -5)
1969/12/31/18:00:07.616,(9 -47 -37 -18 -11 -15 -24 -3)
1969/12/31/18:00:07.623,(28 -8 -53 -7 57 59 33 -3)
1969/12/31/18:00:07.623,(-22 12 46 35 56 30 29 32)
1969/12/31/18:00:07.641,(-34 -6 -6 -13 -51 -33 -42 -23)
1969/12/31/18:00:07.641,(-4 -8 -4 -3 -9 -42 7 7)
1969/12/31/18:00:07.643,(-6 -13 -14 -25 -40 -1 -17 4)
1969/12/31/18:00:07.643,(15 -36 -58 -21 -37 -31 2 -19)
1969/12/31/18:00:07.665,(1 -34 -12 -2 55 62 20 46)
1969/12/31/18:00:07.665,(-57 42 72 35 -1 -17 -4 -45)
1969/12/31/18:00:07.667,(15 5 22 4 -13 -26 -40 -18)
1969/12/31/18:00:07.667,(20 -19 -68 -33 0 22 11 4)
1969/12/31/18:00:07.682,(47 51 25 15 27 -3 -11 60)
1969/12/31/18:00:07.682,(-23 -6 12 19 -7 0 20 31)
1969/12/31/18:00:07.688,(16 20 16 -8 -22 -19 0 -15)
1969/12/31/18:00:07.689,(-46 17 67 0 -11 -4 -20 -37)
1969/12/31/18:00:07.707,(8 -70 -81 -27 35 50 50 35)
1969/12/31/18:00:07.707,(32 38 -21 10 26 24 7 20)
1969/12/31/18:00:07.709,(16 -10 -13 -15 -33 -26 -14 16)
1969/12/31/18:00:07.709,(19 23 20 8 -21 -57 9 32)
1969/12/31/18:00:07.731,(8 71 95 77 16 18 32 74)
1969/12/31/18:00:07.731,(-13 -40 -41 -46 -64 -39 -20 -19)
1969/12/31/18:00:07.733,(-30 -43 -54 -19 28 45 21 -13)
1969/12/31/18:00:07.733,(25 12 -20 -15 -11 -18 -39 -11)
1969/12/31/18:00:07.747,(-16 -57 -38 -14 12 12 40 14)
1969/12/31/18:00:07.747,(16 -5 -15 -4 2 -6 -18 -22)
1969/12/31/18:00:07.750,(-4 7 19 -9 -42 -33 -20 -51)
1969/12/31/18:00:07.750,(-42 -25 -6 5 40 59 30 6)
1969/12/31/18:00:07.773,(16 1 -23 -17 -27 -32 8 -7)
1969/12/31/18:00:07.773,(-14 -28 -41 -26 -31 1 21 -9)
1969/12/31/18:00:07.775,(13 -3 6 27 78 -6 -37 9)
1969/12/31/18:00:07.775,(7 39 54 28 4 21 17 2)
1969/12/31/18:00:07.797,(24 74 57 32 33 36 -8 -14)
1969/12/31/18:00:07.797,(11 -47 -56 -26 -29 -24 44 1)
1969/12/31/18:00:07.799,(-46 -12 28 -6 -34 -14 -22 -36)
1969/12/31/18:00:07.799,(-30 -89 -108 -34 39 39 -12 -36)
1969/12/31/18:00:07.822,(-48 47 58 10 -86 -74 -39 -38)
1969/12/31/18:00:07.822,(-20 15 28 0 -1 -6 -34 -47)
1969/12/31/18:00:07.824,(31 27 -12 0 -9 -17 27 27)
1969/12/31/18:00:07.824,(8 -62 -27 7 68 73 4 4)
1969/12/31/18:00:07.838,(10 8 -31 -37 -35 -29 5 -23)
1969/12/31/18:00:07.838,(-11 46 65 20 -4 -7 -6 14)
1969/12/31/18:00:07.839,(-22 -28 -13 2 9 11 12 -2)
1969/12/31/18:00:07.839,(42 30 7 -7 -37 -9 0 6)
1969/12/31/18:00:07.864,(23 3 -3 -5 31 30 14 38)
1969/12/31/18:00:07.864,(33 29 38 40 47 8 -20 -34)
1969/12/31/18:00:07.866,(-28 -25 -32 -25 -23 0 37 -30)
1969/12/31/18:00:07.866,(-3 1 2 -20 -94 -73 -55 -1)
1969/12/31/18:00:07.879,(-2 -4 2 45 89 19 -8 -14)
1969/12/31/18:00:07.879,(26 -31 -54 -25 -9 -2 -43 -5)
1969/12/31/18:00:07.886,(6 11 28 51 83 76 17 5)
1969/12/31/18:00:07.886,(5 108 84 2 -102 -112 -14 -12)
1969/12/31/18:00:07.904,(46 -18 -10 -18 -27 8 15 48)
1969/12/31/18:00:07.904,(-37 -7 4 -14 10 9 5 2)
1969/12/31/18:00:07.905,(-5 -19 -30 -12 1 -5 -36 -31)
1969/12/31/18:00:07.905,(-23 -57 -35 -4 30 26 8 -11)
1969/12/31/18:00:07.928,(4 19 13 -6 -35 -21 -27 -7)
1969/12/31/18:00:07.928,(22 -12 -6 14 37 45 70 90)
1969/12/31/18:00:07.930,(45 31 8 6 12 11 24 56)
1969/12/31/18:00:07.930,(-19 -10 -4 1 -17 -25 -36 -3)
1969/12/31/18:00:07.953,(-74 -73 -52 -52 -52 -65 -70 -76)
1969/12/31/18:00:07.953,(4 -21 -23 -27 8 0 -3 -9)
1969/12/31/18:00:07.955,(5 6 -5 -26 -69 -49 -3 6)
1969/12/31/18:00:07.956,(35 20 6 15 19 40 37 27)
1969/12/31/18:00:07.970,(-3 2 -10 18 26 29 20 12)
1969/12/31/18:00:07.970,(-10 11 20 16 10 -7 -21 -21)
1969/12/31/18:00:07.971,(-2 -3 15 20 10 7 6 31)
1969/12/31/18:00:07.972,(24 45 28 10 25 19 23 16)
1969/12/31/18:00:07.994,(-30 -36 -14 -14 -15 -2 -32 -40)
1969/12/31/18:00:07.994,(4 10 -3 -6 -13 -17 8 -5)
1969/12/31/18:00:07.996,(5 -22 -21 -24 -15 -5 -13 -18)
1969/12/31/18:00:07.996,(-31 -39 -40 -6 71 75 42 38)
1969/12/31/18:00:08.011,(46 21 1 6 -50 -48 -9 44)
1969/12/31/18:00:08.011,(8 32 35 -1 -9 -16 -39 24)
1969/12/31/18:00:08.017,(-32 -28 -3 4 22 -8 -9 -18)
1969/12/31/18:00:08.017,(45 18 4 3 -8 -21 -10 -1)
1969/12/31/18:00:08.036,(-10 -12 -24 -34 6 43 33 17)
1969/12/31/18:00:08.036,(24 4 -14 -4 9 10 19 14)
1969/12/31/18:00:08.037,(-25 -3 31 19 -24 -18 -12 -5)
1969/12/31/18:00:08.037,(5 9 11 16 22 12 -2 -19)
1969/12/31/18:00:08.060,(-28 12 10 20 25 13 -7 -47)
1969/12/31/18:00:08.060,(-30 -19 11 8 -24 -24 2 -22)
1969/12/31/18:00:08.062,(38 43 8 -10 -1 -7 -24 -10)
1969/12/31/18:00:08.062,(-29 -93 -49 -26 -16 -14 -42 -31)
1969/12/31/18:00:08.076,(44 48 6 -7 -7 -14 -2 -8)
1969/12/31/18:00:08.076,(-26 -6 11 21 75 56 21 20)
1969/12/31/18:00:08.084,(29 22 21 13 -45 -13 11 14)
1969/12/31/18:00:08.084,(-7 -16 -22 -33 -46 -47 -19 -26)
1969/12/31/18:00:08.102,(-21 -29 -12 14 6 -17 -19 -29)
1969/12/31/18:00:08.102,(-24 -7 2 8 2 -22 -15 -25)
1969/12/31/18:00:08.103,(3 15 -1 -6 -10 -21 -13 -7)
1969/12/31/18:00:08.103,(4 7 -3 -8 -32 -5 13 16)
1969/12/31/18:00:08.126,(-26 14 22 -6 -1 -4 10 0)
1969/12/31/18:00:08.126,(40 -22 -36 -35 -22 2 -15 -8)
1969/12/31/18:00:08.128,(-39 -33 -6 5 12 6 -1 -1)
1969/12/31/18:00:08.128,(8 30 17 11 7 6 6 -7)
1969/12/31/18:00:08.141,(-13 -20 2 16 45 33 24 20)
1969/12/31/18:00:08.141,(-49 -37 -13 16 -1 2 8 -13)
1969/12/31/18:00:08.151,(2 9 -5 -3 -18 -4 -3 6)
1969/12/31/18:00:08.151,(0 70 63 17 10 4 -5 -5)
1969/12/31/18:00:08.167,(3 -2 0 0 7 18 17 32)
1969/12/31/18:00:08.167,(40 -10 -19 -16 -22 -14 -11 -3)
1969/12/31/18:00:08.170,(-13 -30 -38 -26 -8 0 4 20)
1969/12/31/18:00:08.170,(-10 -15 -10 4 35 15 -8 -22)
1969/12/31/18:00:08.191,(1 4 3 15 47 42 42 8)
1969/12/31/18:00:08.191,(-19 4 -1 -13 -96 -97 -60 -26)
1969/12/31/18:00:08.194,(-25 -7 3 -17 -13 -9 2 -13)
1969/12/31/18:00:08.194,(11 1 -4 0 -6 -10 7 19)
1969/12/31/18:00:08.207,(15 -6 -8 -23 1 23 -7 2)
1969/12/31/18:00:08.207,(-49 -20 -1 19 65 54 26 -9)
1969/12/31/18:00:08.217,(30 26 13 35 17 5 8 14)
1969/12/31/18:00:08.217,(43 28 15 6 -5 -4 -4 2)
1969/12/31/18:00:08.233,(-78 -29 -5 -10 -20 -15 -20 -30)
1969/12/31/18:00:08.233,(-8 -2 11 11 5 10 18 9)
1969/12/31/18:00:08.234,(19 9 -12 -6 -5 -2 -6 8)
1969/12/31/18:00:08.234,(16 15 4 -4 16 9 13 17)
1969/12/31/18:00:08.257,(-2 -3 4 -5 -25 -22 14 -28)
1969/12/31/18:00:08.257,(0 11 0 -6 -16 -10 -23 -19)
1969/12/31/18:00:08.259,(-1 9 -3 -5 32 26 16 -32)
1969/12/31/18:00:08.259,(-35 -39 -12 7 -5 -6 -23 1)
1969/12/31/18:00:08.273,(42 24 -5 -7 -17 -1 2 8)
1969/12/31/18:00:08.273,(-14 -7 6 11 4 -14 29 17)
1969/12/31/18:00:08.282,(24 -19 0 -21 -79 -71 -77 -28)
1969/12/31/18:00:08.282,(-27 11 3 -1 10 15 29 -2)
1969/12/31/18:00:08.299,(21 14 -9 -7 -13 -13 -20 -6)
1969/12/31/18:00:08.299,(-50 -63 -14 -3 27 37 -2 -12)
1969/12/31/18:00:08.301,(15 47 15 -15 0 13 18 23)
1969/12/31/18:00:08.301,(-22 -41 -5 30 11 -7 9 8)
1969/12/31/18:00:08.323,(18 5 5 7 5 4 -23 -9)
1969/12/31/18:00:08.323,(52 44 13 7 26 22 36 44)
1969/12/31/18:00:08.325,(37 15 -1 16 4 10 15 15)
1969/12/31/18:00:08.325,(-91 -53 -29 -37 -31 -28 -51 -70)
1969/12/31/18:00:08.338,(-2 -14 -9 -1 1 -6 7 -2)
1969/12/31/18:00:08.338,(26 23 11 -3 -8 -11 -6 3)
1969/12/31/18:00:08.348,(44 17 9 -9 -16 25 8 48)
1969/12/31/18:00:08.348,(-22 11 6 21 24 -4 32 -14)
1969/12/31/18:00:08.365,(21 -12 -5 -22 -29 -11 -19 -1)
1969/12/31/18:00:08.365,(-38 -11 -9 -22 -14 11 35 10)
1969/12/31/18:00:08.367,(10 6 2 38 49 -18 -39 -23)
1969/12/31/18:00:08.367,(-28 -5 -1 11 10 -3 -2 -13)
1969/12/31/18:00:08.389,(-47 -13 1 -11 0 -5 -2 2)
1969/12/31/18:00:08.389,(15 8 12 8 -18 3 6 7)
1969/12/31/18:00:08.391,(-98 -34 -22 -18 -10 -29 32 -48)
1969/12/31/18:00:08.391,(16 3 1 26 30 58 -46 -3)
1969/12/31/18:00:08.404,(-42 -10 3 1 -9 -29 -9 -31)
1969/12/31/18:00:08.404,(50 55 4 -4 2 14 -8 17)
1969/12/31/18:00:08.414,(-102 -63 -4 -3 14 15 -4 -42)
1969/12/31/18:00:08.414,(74 5 -14 -24 -35 -25 0 -3)
1969/12/31/18:00:08.431,(67 42 22 20 24 38 54 72)
1969/12/31/18:00:08.431,(-63 -36 -22 -11 -9 -15 -54 -89)
1969/12/31/18:00:08.432,(38 11 2 -1 5 15 34 60)
1969/12/31/18:00:08.432,(-54 -27 -4 -17 -14 -15 10 -18)
1969/12/31/18:00:08.455,(84 45 -1 8 10 10 5 32)
1969/12/31/18:00:08.455,(-20 -17 7 13 11 -3 15 17)
1969/12/31/18:00:08.457,(10 11 0 -2 -6 -10 -16 -29)
1969/12/31/18:00:08.457,(-35 -23 -14 -16 -8 3 6 -3)
1969/12/31/18:00:08.470,(20 -3 3 8 4 -2 -3 22)
1969/12/31/18:00:08.470,(-49 -23 -18 -14 -21 -25 -32 -81)
1969/12/31/18:00:08.480,(16 2 2 -7 1 3 -12 10)
1969/12/31/18:00:08.480,(90 51 23 12 11 22 35 78)
1969/12/31/18:00:08.496,(-78 -39 -18 -8 -10 -21 -40 -115)
1969/12/31/18:00:08.496,(12 10 5 0 4 1 -6 -14)
1969/12/31/18:00:08.497,(10 -1 3 1 2 4 4 4)
1969/12/31/18:00:08.497,(5 10 3 -2 -5 -7 3 -3)
1969/12/31/18:00:08.520,(14 2 4 1 0 -1 2 22)
1969/12/31/18:00:08.520,(-2 -8 -6 -2 -2 0 -1 22)
1969/12/31/18:00:08.523,(10 8 -5 -8 -1 0 1 3)
1969/12/31/18:00:08.523,(19 18 7 -5 -7 -7 2 16)
1969/12/31/18:00:08.536,(-38 -27 2 9 6 3 -7 -3)
1969/12/31/18:00:08.536,(23 5 1 2 3 5 19 34)
1969/12/31/18:00:08.546,(5 10 5 6 7 2 -14 0)
1969/12/31/18:00:08.546,(-4 8 -5 -7 -5 -6 -5 -1)
1969/12/31/18:00:08.562,(28 0 -10 -7 -3 -1 2 21)
1969/12/31/18:00:08.562,(-15 -10 5 3 2 5 12 18)
1969/12/31/18:00:08.564,(-9 1 3 7 -1 -2 2 -6)
1969/12/31/18:00:08.564,(10 -4 -4 -5 -4 -2 0 11)
1969/12/31/18:00:08.586,(-10 -5 -5 0 0 -1 -5 0)
1969/12/31/18:00:08.586,(24 11 1 -1 1 1 16 27)
1969/12/31/18:00:08.588,(-12 -10 -3 -4 -4 -3 -5 1)
1969/12/31/18:00:08.588,(-6 2 2 2 0 1 -2 -15)
1969/12/31/18:00:08.602,(-5 -9 -8 -7 -3 -3 4 8)
1969/12/31/18:00:08.602,(16 16 6 3 4 7 15 6)
1969/12/31/18:00:08.611,(-5 -12 -6 -6 -5 -5 -13 6)
1969/12/31/18:00:08.611,(5 12 1 2 0 -4 0 -12)
1969/12/31/18:00:08.627,(-10 -5 -1 -3 -5 -6 -14 -12)
1969/12/31/18:00:08.627,(9 -7 0 3 1 6 1 -2)
1969/12/31/18:00:08.634,(-3 5 0 1 3 1 1 -4)
1969/12/31/18:00:08.634,(-2 -9 -12 -11 -9 -10 -17 -2)
1969/12/31/18:00:08.652,(-21 -16 0 -1 2 2 -1 -25)
1969/12/31/18:00:08.652,(-7 14 3 -2 1 0 -1 -1)
1969/12/31/18:00:08.654,(17 11 3 7 7 1 -3 0)
1969/12/31/18:00:08.654,(4 -7 1 2 -2 0 2 -9)
1969/12/31/18:00:08.677,(-13 2 -2 4 3 0 2 6)
1969/12/31/18:00:08.677,(12 11 16 7 1 0 -4 -1)
1969/12/31/18:00:08.678,(-4 -7 -10 -8 -5 -3 7 5)
1969/12/31/18:00:08.678,(-1 -1 0 -7 -2 2 -2 6)
1969/12/31/18:00:08.693,(1 -5 -10 -8 -6 -3 8 2)
1969/12/31/18:00:08.693,(9 0 -12 -4 0 0 -12 6)
1969/12/31/18:00:08.700,(-16 1 14 6 2 -1 0 -5)
1969/12/31/18:00:08.700,(6 3 -2 0 0 5 14 12)
1969/12/31/18:00:08.718,(4 -16 -12 -2 -3 -5 -9 1)
1969/12/31/18:00:08.718,(-8 26 36 14 3 -2 1 -14)
1969/12/31/18:00:08.720,(2 -20 -24 -9 -3 1 15 10)
1969/12/31/18:00:08.720,(1 24 33 10 4 3 -4 1)
1969/12/31/18:00:08.743,(-3 -7 -13 -9 -5 -6 3 6)
1969/12/31/18:00:08.743,(6 -19 -25 -9 -3 0 4 8)
1969/12/31/18:00:08.745,(-6 0 6 3 -1 -6 -15 -15)
1969/12/31/18:00:08.745,(3 0 -15 -4 0 -1 15 10)
1969/12/31/18:00:08.758,(-12 2 24 10 4 7 -11 -7)
1969/12/31/18:00:08.758,(1 0 -10 -5 -2 -2 -4 -2)
1969/12/31/18:00:08.774,(6 -9 -3 -2 1 10 23 17)
1969/12/31/18:00:08.774,(-2 -29 -34 -13 -6 -3 -6 -2)
1969/12/31/18:00:08.784,(-7 41 41 8 -1 -9 -4 -10)
1969/12/31/18:00:08.784,(13 -8 -11 1 0 -4 -7 -1)
1969/12/31/18:00:08.786,(-8 14 0 -4 0 3 -14 -11)
1969/12/31/18:00:08.786,(-5 -41 -29 -5 -1 -2 6 4)
1969/12/31/18:00:08.810,(-4 33 46 14 5 -2 -22 -9)
1969/12/31/18:00:08.810,(6 1 -1 3 -3 -4 10 5)
1969/12/31/18:00:08.812,(12 -5 -20 -10 -7 -7 -4 -1)
1969/12/31/18:00:08.812,(-6 4 9 4 1 4 -5 -1)
1969/12/31/18:00:08.824,(-4 -21 -20 -11 -4 -2 10 7)
1969/12/31/18:00:08.824,(7 3 -4 -5 1 6 -2 4)
1969/12/31/18:00:08.832,(0 24 27 16 3 -4 -3 -3)
1969/12/31/18:00:08.832,(0 11 -4 -2 1 -1 1 -3)
1969/12/31/18:00:08.849,(-2 -16 -12 -3 -2 0 -4 -1)
1969/12/31/18:00:08.849,(-19 -18 -6 -6 -2 -4 -4 -9)
1969/12/31/18:00:08.852,(11 -14 -38 -20 -4 2 -2 4)
1969/12/31/18:00:08.852,(-11 7 37 20 7 5 3 -2)
1969/12/31/18:00:08.875,(-4 -49 -33 -11 -7 2 6 4)
1969/12/31/18:00:08.875,(-2 3 -35 -19 -7 -6 4 1)
1969/12/31/18:00:08.876,(-17 36 21 15 5 0 -11 -12)
1969/12/31/18:00:08.877,(6 -17 -11 -3 -2 3 4 1)
1969/12/31/18:00:08.889,(25 36 12 -3 -1 -2 -9 5)
1969/12/31/18:00:08.889,(-22 -10 31 33 12 14 23 4)
1969/12/31/18:00:08.898,(-13 -22 6 -5 -2 0 -1 -3)
1969/12/31/18:00:08.898,(-2 15 3 -3 -2 -5 -9 -4)
1969/12/31/18:00:08.915,(-5 -41 -41 -15 -7 -5 -6 -5)
1969/12/31/18:00:08.915,(3 -22 -41 -38 -15 -5 -9 -6)
1969/12/31/18:00:08.916,(-2 58 62 23 6 1 3 -4)
1969/12/31/18:00:08.916,(10 -1 -1 11 4 2 -10 2)
1969/12/31/18:00:08.939,(6 12 1 -2 -1 6 6 2)
1969/12/31/18:00:08.939,(-16 -39 -34 -17 -9 -5 -21 -12)
1969/12/31/18:00:08.948,(36 35 25 21 7 8 2 7)
1969/12/31/18:00:08.948,(7 -16 7 2 -1 1 -1 0)
1969/12/31/18:00:08.955,(13 21 -42 -26 -13 -1 -9 -2)
1969/12/31/18:00:08.955,(4 40 61 44 16 9 -7 -6)
1969/12/31/18:00:08.963,(-12 -61 -26 -15 -6 -1 6 1)
1969/12/31/18:00:08.963,(-1 -8 -48 -24 -8 -14 2 0)
1969/12/31/18:00:08.980,(-5 9 5 19 9 -2 19 9)
1969/12/31/18:00:08.980,(-8 -1 -11 -14 -6 -20 9 14)
1969/12/31/18:00:08.981,(-4 -23 -47 -21 -3 -21 7 6)
1969/12/31/18:00:08.981,(0 2 -3 -1 0 -15 5 7)
1969/12/31/18:00:09.005,(-13 -9 -3 -3 2 -4 2 -2)
1969/12/31/18:00:09.005,(1 -22 -7 -8 -5 -3 -1 1)
1969/12/31/18:00:09.006,(-2 36 13 -5 -4 1 -5 -6)
1969/12/31/18:00:09.006,(-2 -13 9 -4 -3 1 -15 -10)
1969/12/31/18:00:09.020,(-11 -17 4 5 -1 5 -9 -8)
1969/12/31/18:00:09.020,(0 -14 -18 -6 -3 4 -5 1)
1969/12/31/18:00:09.029,(0 -31 -10 1 -2 2 -1 -1)
1969/12/31/18:00:09.029,(-9 7 8 -2 -4 2 -3 -4)
1969/12/31/18:00:09.048,(11 31 24 14 4 2 0 -1)
1969/12/31/18:00:09.048,(-1 -22 -4 0 -1 -2 1 0)
1969/12/31/18:00:09.049,(-9 -14 -8 -10 -2 -2 0 0)
1969/12/31/18:00:09.049,(3 23 10 0 -2 -3 -1 1)
1969/12/31/18:00:09.071,(-8 -22 -4 -2 4 0 4 1)
1969/12/31/18:00:09.071,(9 25 8 0 -1 -3 -2 2)
1969/12/31/18:00:09.072,(-1 -4 -3 0 0 -1 0 0)
1969/12/31/18:00:09.072,(-5 8 14 8 1 -1 -2 -3)
1969/12/31/18:00:09.086,(-3 -11 -14 -14 -5 -1 -5 -3)
1969/12/31/18:00:09.086,(7 30 20 7 -2 2 -4 -3)
1969/12/31/18:00:09.095,(8 13 5 12 3 3 1 0)
1969/12/31/18:00:09.095,(-5 -19 -12 -5 -3 3 2 0)
1969/12/31/18:00:09.113,(-1 -2 12 -1 -2 0 1 -3)
1969/12/31/18:00:09.113,(8 19 4 2 2 2 -6 -3)
1969/12/31/18:00:09.114,(-8 -5 15 4 -3 1 -5 -7)
1969/12/31/18:00:09.114,(-2 -3 -4 -1 -2 2 -4 -3)
1969/12/31/18:00:09.137,(-1 4 1 -4 -5 -1 -6 -5)
1969/12/31/18:00:09.137,(5 10 20 12 4 4 -2 -2)
1969/12/31/18:00:09.138,(0 -14 -13 -10 -6 0 -3 -1)
1969/12/31/18:00:09.138,(-2 2 -3 -5 -2 1 -4 -5)
1969/12/31/18:00:09.152,(-3 -19 8 9 3 3 -4 -3)
1969/12/31/18:00:09.152,(3 7 4 -1 -3 0 -2 1)
1969/12/31/18:00:09.161,(-7 -13 -16 -10 -2 -2 0 -3)
1969/12/31/18:00:09.161,(5 25 9 9 4 0 6 6)
1969/12/31/18:00:09.186,(-2 -1 -12 -1 -1 -5 6 3)
1969/12/31/18:00:09.186,(-3 -11 -11 -5 1 -7 3 1)
1969/12/31/18:00:09.195,(-4 0 -6 -5 0 -8 5 2)
1969/12/31/18:00:09.195,(-1 5 4 -4 0 -8 4 3)
1969/12/31/18:00:09.202,(-3 -13 -5 -3 1 -6 -2 0)
1969/12/31/18:00:09.202,(2 15 15 4 1 0 -3 -1)
1969/12/31/18:00:09.204,(1 3 7 3 -2 5 0 -1)
1969/12/31/18:00:09.204,(-5 -10 -3 -5 -3 3 -10 -9)
1969/12/31/18:00:09.218,(4 18 11 5 0 5 -2 -1)
1969/12/31/18:00:09.218,(-9 -26 -17 -6 -2 0 -1 -3)
1969/12/31/18:00:09.228,(4 17 8 4 -1 -2 -2 -4)
1969/12/31/18:00:09.228,(-3 -4 -7 -1 -2 -3 -2 -4)
1969/12/31/18:00:09.244,(-2 -23 -6 -5 -5 -2 -2 -3)
1969/12/31/18:00:09.244,(6 59 30 13 3 -1 -2 -2)
1969/12/31/18:00:09.244,(0 -2 -5 0 1 3 0 4)
1969/12/31/18:00:09.245,(-3 -7 -8 -8 -3 -1 1 1)
1969/12/31/18:00:09.268,(-2 3 3 1 -1 -1 -1 -2)
1969/12/31/18:00:09.268,(-4 -24 -9 -6 -1 -2 0 0)
1969/12/31/18:00:09.269,(-4 -6 0 1 0 -1 0 0)
1969/12/31/18:00:09.269,(3 17 10 6 0 -1 0 0)
1969/12/31/18:00:09.295,(0 -5 -7 -3 0 0 0 1)
1969/12/31/18:00:09.295,(-1 -4 5 2 1 -2 1 0)
1969/12/31/18:00:09.296,(0 1 1 1 1 -2 -1 1)
1969/12/31/18:00:09.296,(-3 -13 -4 -6 -5 -2 -3 -1)
1969/12/31/18:00:09.310,(2 10 2 -1 -2 -3 -2 0)
1969/12/31/18:00:09.310,(0 -4 -1 1 0 -2 -1 -2)
1969/12/31/18:00:09.311,(-6 -9 -7 -5 -1 0 0 -2)
1969/12/31/18:00:09.311,(-3 -5 -3 -4 1 1 2 0)
1969/12/31/18:00:09.334,(1 9 9 5 2 0 0 0)
1969/12/31/18:00:09.334,(1 2 -3 0 -2 -1 -1 0)
1969/12/31/18:00:09.335,(-4 -11 -3 -2 -1 -1 -2 -2)
1969/12/31/18:00:09.335,(-2 -5 -13 -12 -8 -3 -2 0)
1969/12/31/18:00:09.351,(2 15 14 6 1 0 0 -2)
1969/12/31/18:00:09.351,(-4 -4 3 -2 -1 -1 0 0)
1969/12/31/18:00:09.359,(1 1 -2 1 0 -1 0 0)
1969/12/31/18:00:09.359,(-3 -7 -2 2 3 0 -2 0)
1969/12/31/18:00:09.375,(0 0 -6 -5 -3 -1 -1 -1)
1969/12/31/18:00:09.376,(-2 -7 -6 -3 -1 0 0 0)
1969/12/31/18:00:09.376,(-1 -3 5 5 0 -1 -1 0)
1969/12/31/18:00:09.376,(-1 5 8 3 1 -2 -2 -4)
1969/12/31/18:00:09.401,(-2 -5 -6 -4 -2 -2 -2 -2)
1969/12/31/18:00:09.401,(-2 -3 -1 -2 0 -1 -3 -3)
1969/12/31/18:00:09.402,(-3 -6 -6 -4 -3 -2 -1 0)
1969/12/31/18:00:09.402,(0 -3 -1 0 0 3 4 4)
1969/12/31/18:00:09.426,(2 1 2 3 2 -1 -2 -2)
1969/12/31/18:00:09.426,(-2 -7 -8 -4 -3 -1 -1 -4)
1969/12/31/18:00:09.427,(0 1 -1 -2 -2 -1 -1 -2)
1969/12/31/18:00:09.427,(-3 -5 -7 -7 -3 -4 -1 -4)
1969/12/31/18:00:09.435,(-1 0 2 5 3 2 2 0)
1969/12/31/18:00:09.435,(-3 -4 -7 -3 0 3 -1 0)
1969/12/31/18:00:09.440,(0 -1 -2 0 -1 0 -1 0)
1969/12/31/18:00:09.440,(1 3 2 3 -1 -3 -1 -2)
1969/12/31/18:00:09.457,(-3 1 -2 -2 -2 -1 -1 -1)
1969/12/31/18:00:09.457,(1 -3 -2 -1 0 -4 -1 -2)
1969/12/31/18:00:09.466,(0 -3 -2 0 1 0 -1 1)
1969/12/31/18:00:09.466,(-3 -5 -1 0 -1 -1 0 -2)
1969/12/31/18:00:09.484,(0 -1 -9 -8 -3 -4 -1 1)
1969/12/31/18:00:09.484,(-1 1 10 9 3 0 3 -2)
1969/12/31/18:00:09.485,(-1 -7 -1 -3 -2 1 1 -2)
1969/12/31/18:00:09.485,(0 9 6 5 1 0 -2 1)
1969/12/31/18:00:09.497,(-4 -5 -4 -2 -3 0 0 -1)
1969/12/31/18:00:09.497,(-1 0 -5 -3 -2 -3 -1 -1)
1969/12/31/18:00:09.506,(-1 -1 -2 -2 -3 -4 -2 -2)
1969/12/31/18:00:09.506,(2 -2 3 5 4 3 1 0)
1969/12/31/18:00:09.523,(-2 -1 -6 -3 -2 -5 0 1)
1969/12/31/18:00:09.523,(-1 -3 -2 -5 -1 -2 -3 0)
1969/12/31/18:00:09.540,(-2 0 0 2 0 -2 -1 -1)
1969/12/31/18:00:09.540,(-2 -4 -4 -3 0 0 1 -1)
1969/12/31/18:00:09.542,(0 0 1 4 2 1 -1 0)
1969/12/31/18:00:09.542,(-1 -2 -3 -2 -1 0 -3 -3)
1969/12/31/18:00:09.548,(-1 -1 -4 -6 -2 -2 -2 -2)
1969/12/31/18:00:09.548,(1 3 5 2 1 -1 -2 -1)
1969/12/31/18:00:09.563,(-1 -1 0 -2 -2 0 -2 -3)
1969/12/31/18:00:09.564,(-2 -4 -1 -1 -4 -3 -4 -2)
1969/12/31/18:00:09.572,(0 2 0 1 0 2 -2 0)
1969/12/31/18:00:09.572,(-1 -2 1 0 -3 0 0 0)
1969/12/31/18:00:09.588,(-3 -3 -5 -1 1 -5 -3 -4)
1969/12/31/18:00:09.588,(0 -1 -4 -3 -2 -2 -1 1)
1969/12/31/18:00:09.596,(-2 1 -5 -5 -5 -2 0 0)
1969/12/31/18:00:09.596,(1 -1 6 7 1 2 1 2)
1969/12/31/18:00:09.622,(-2 5 0 -2 -2 2 -1 -3)
1969/12/31/18:00:09.622,(-3 -5 -3 -2 -3 0 -1 -2)
1969/12/31/18:00:09.624,(-2 -1 -1 -1 -1 -2 -1 -1)
1969/12/31/18:00:09.624,(-1 0 1 -1 -4 -4 -2 0)
1969/12/31/18:00:09.629,(0 -1 1 -2 -1 0 1 1)
1969/12/31/18:00:09.629,(1 1 1 -1 0 -2 0 -1)
1969/12/31/18:00:09.638,(2 3 0 -2 -1 0 -1 -3)
1969/12/31/18:00:09.638,(-2 -5 -5 -2 -2 -2 -1 -1)
1969/12/31/18:00:09.638,(-1 -1 -3 -2 0 -1 -1 -2)
1969/12/31/18:00:09.638,(-2 -2 -4 -3 -3 -2 0 -1)
1969/12/31/18:00:09.639,(-2 -3 -4 -7 -2 -2 -1 -3)
1969/12/31/18:00:09.639,(-1 1 1 3 -1 -1 1 0)
1969/12/31/18:00:09.672,(0 0 -1 -1 -1 -1 0 -2)
1969/12/31/18:00:09.672,(0 1 1 -1 -2 -2 -1 0)
1969/12/31/18:00:09.672,(-1 -1 0 2 0 0 1 -1)
1969/12/31/18:00:09.672,(1 -2 -2 -3 -1 0 -2 -1)
1969/12/31/18:00:09.688,(-3 -2 -4 -5 -2 -1 -3 -2)
1969/12/31/18:00:09.688,(-3 -1 -2 -2 0 0 -2 -2)
1969/12/31/18:00:09.689,(0 -2 -2 -4 -2 -1 -1 -1)
1969/12/31/18:00:09.689,(-2 -3 -1 1 -1 -3 -1 -2)
1969/12/31/18:00:09.704,(2 4 1 1 0 0 1 3)
1969/12/31/18:00:09.705,(-1 -2 1 -1 -2 0 -4 -2)
1969/12/31/18:00:09.705,(-3 0 -2 2 -1 -1 0 -1)
1969/12/31/18:00:09.705,(-1 -4 -3 -6 -3 -2 -1 -3)
1969/12/31/18:00:09.729,(0 0 1 4 -1 0 0 -2)
1969/12/31/18:00:09.729,(-2 -3 -3 -2 -1 -2 0 1)
1969/12/31/18:00:09.730,(-1 1 -1 0 -1 0 -2 -2)
1969/12/31/18:00:09.730,(-2 -5 -14 -12 -4 -1 -2 -2)
1969/12/31/18:00:09.754,(1 2 11 4 -2 0 -2 -1)
1969/12/31/18:00:09.754,(2 0 6 11 6 3 -1 -2)
1969/12/31/18:00:09.755,(-3 -4 -5 -8 -2 -1 -1 0)
1969/12/31/18:00:09.755,(-1 1 -5 3 0 -1 -1 1)
1969/12/31/18:00:09.769,(-1 0 10 -1 -3 -1 -2 0)
1969/12/31/18:00:09.769,(1 2 0 1 -3 -7 -2 -1)
1969/12/31/18:00:09.771,(-1 -5 -8 -5 -1 9 -1 -4)
1969/12/31/18:00:09.771,(-1 -2 -3 -3 2 -1 -1 -2)
1969/12/31/18:00:09.795,(-2 -2 -11 -5 0 5 1 2)
1969/12/31/18:00:09.795,(-2 -6 -5 -6 -4 -7 5 -2)
1969/12/31/18:00:09.796,(4 7 10 5 1 -4 -7 1)
1969/12/31/18:00:09.796,(-2 -2 -1 -3 -1 -7 -2 -1)
1969/12/31/18:00:09.820,(-5 -7 -9 -1 0 -6 -11 -11)
1969/12/31/18:00:09.820,(2 7 8 -1 1 -1 3 1)
1969/12/31/18:00:09.821,(0 -3 -7 -3 -1 0 3 3)
1969/12/31/18:00:09.821,(-8 -2 5 4 -2 2 -1 -6)
1969/12/31/18:00:09.853,(4 2 4 5 2 0 8 19)
1969/12/31/18:00:09.853,(1 -4 -16 -9 -5 -2 -9 -14)
1969/12/31/18:00:09.854,(-2 0 7 0 -4 -6 -6 -8)
1969/12/31/18:00:09.854,(0 1 3 1 1 1 4 16)
1969/12/31/18:00:09.860,(-6 -3 -6 -7 -3 -5 -6 -31)
1969/12/31/18:00:09.860,(4 -1 1 1 3 5 6 17)
1969/12/31/18:00:09.862,(-8 -3 -5 -4 -3 -2 -7 -16)
1969/12/31/18:00:09.862,(3 -23 -28 -17 -5 0 1 5)
1969/12/31/18:00:09.886,(6 25 24 11 2 -1 1 10)
1969/12/31/18:00:09.886,(0 8 20 16 5 8 2 3)
1969/12/31/18:00:09.887,(2 -3 -4 2 -1 -7 -10 -19)
1969/12/31/18:00:09.887,(-5 -20 -16 -5 -1 3 -1 -6)
1969/12/31/18:00:09.900,(-6 -13 -23 -16 -8 -3 -2 4)
1969/12/31/18:00:09.900,(-6 -8 -7 -3 -3 0 -5 -5)
1969/12/31/18:00:09.909,(7 22 24 10 7 4 7 9)
1969/12/31/18:00:09.909,(4 2 6 5 2 -1 -3 0)
1969/12/31/18:00:09.926,(-3 -15 -20 -7 -3 -1 -3 -1)
1969/12/31/18:00:09.926,(-4 4 7 0 -3 -5 -5 -6)
1969/12/31/18:00:09.927,(-4 -7 5 3 -2 -1 5 6)
1969/12/31/18:00:09.927,(0 4 3 3 2 0 -1 -3)
1969/12/31/18:00:09.959,(-5 -9 -8 -2 0 4 3 -4)
1969/12/31/18:00:09.959,(3 -2 -6 -5 -3 -1 3 7)
1969/12/31/18:00:09.960,(0 -3 -17 -10 -3 -6 -1 -1)
1969/12/31/18:00:09.960,(5 7 9 4 1 -2 1 1)
1969/12/31/18:00:09.966,(-5 -7 -1 2 1 -5 1 -1)
1969/12/31/18:00:09.966,(1 0 -17 -9 0 -2 3 5)
1969/12/31/18:00:09.976,(-2 0 -3 -1 0 -4 4 7)
1969/12/31/18:00:09.976,(-1 7 16 4 1 -3 1 -1)
1969/12/31/18:00:09.991,(2 8 -6 -2 1 -4 2 4)
1969/12/31/18:00:09.991,(-2 -5 -10 -3 -5 -5 0 -3)
1969/12/31/18:00:09.992,(-2 5 6 4 2 -1 4 6)
1969/12/31/18:00:09.992,(-1 4 3 -1 0 -2 -4 -6)
1969/12/31/18:00:10.017,(-3 -17 -7 -4 -1 1 -2 1)
1969/12/31/18:00:10.017,(-1 -1 -2 -2 -2 0 -5 -5)
1969/12/31/18:00:10.018,(2 2 -8 -2 -3 2 -2 5)
1969/12/31/18:00:10.018,(-6 2 5 2 -2 3 -5 -7)
1969/12/31/18:00:10.033,(-5 -11 -1 -1 -2 2 -2 -1)
1969/12/31/18:00:10.033,(2 20 17 6 1 1 -13 -14)
1969/12/31/18:00:10.041,(-1 -13 6 2 -2 3 2 12)
1969/12/31/18:00:10.041,(0 13 8 0 -4 0 3 6)
1969/12/31/18:00:10.058,(6 2 -7 -3 2 -1 -3 -8)
1969/12/31/18:00:10.058,(-9 -8 16 3 0 1 3 5)
1969/12/31/18:00:10.059,(1 -3 -10 -4 -1 -1 -5 -13)
1969/12/31/18:00:10.059,(8 4 -1 -1 -3 -3 4 12)
1969/12/31/18:00:10.083,(-26 -6 3 0 -3 -3 -6 -18)
1969/12/31/18:00:10.083,(-5 -9 -7 -5 -2 0 0 -3)
1969/12/31/18:00:10.084,(-21 -7 -2 -2 -2 -2 -4 -12)
1969/12/31/18:00:10.084,(4 2 -1 0 -1 1 0 0)
1969/12/31/18:00:10.098,(27 14 8 4 1 3 6 18)
1969/12/31/18:00:10.098,(31 9 -3 -1 1 -1 3 15)
1969/12/31/18:00:10.107,(-70 -34 -12 -7 -4 -8 -14 -39)
1969/12/31/18:00:10.107,(4 1 -2 -2 2 0 1 -2)
1969/12/31/18:00:10.124,(11 10 4 0 -3 -8 -4 -3)
1969/12/31/18:00:10.124,(4 6 -1 0 0 2 8 12)
1969/12/31/18:00:10.124,(23 1 -8 -3 0 -15 0 6)
1969/12/31/18:00:10.124,(-19 -3 -4 -4 -1 3 1 3)
1969/12/31/18:00:10.148,(11 9 5 2 2 -2 2 7)
1969/12/31/18:00:10.148,(-70 -19 -4 -2 -2 -1 -2 -40)
1969/12/31/18:00:10.165,(43 5 -5 -5 -3 -10 -6 16)
1969/12/31/18:00:10.165,(17 3 -4 -2 -1 -7 2 5)
1969/12/31/18:00:10.166,(5 8 0 0 5 29 2 -13)
1969/12/31/18:00:10.166,(3 -4 -6 -7 -10 -19 -13 1)
1969/12/31/18:00:10.173,(5 8 12 5 3 -2 -6 -4)
1969/12/31/18:00:10.173,(-6 -10 0 -3 -1 34 -8 15)
1969/12/31/18:00:10.189,(30 9 9 2 -11 -38 8 -2)
1969/12/31/18:00:10.189,(9 -3 -3 0 1 18 12 13)
1969/12/31/18:00:10.189,(-27 -16 4 5 4 27 12 -6)
1969/12/31/18:00:10.191,(-1 5 0 1 -2 2 9 1)
1969/12/31/18:00:10.215,(-43 -17 -4 -3 -2 0 -14 -18)
1969/12/31/18:00:10.215,(4 12 6 3 5 12 19 2)
1969/12/31/18:00:10.216,(15 11 3 1 0 -35 -28 -16)
1969/12/31/18:00:10.216,(-1 -12 -10 -4 -6 24 -10 -51)
1969/12/31/18:00:10.239,(32 14 -4 -7 -3 -21 17 67)
1969/12/31/18:00:10.239,(-47 -14 -3 -4 -4 -15 -19 -51)
1969/12/31/18:00:10.240,(19 -3 -3 2 9 56 32 15)
1969/12/31/18:00:10.240,(-1 2 6 1 -4 -92 -35 -11)
1969/12/31/18:00:10.255,(-8 -8 -4 -3 1 59 2 10)
1969/12/31/18:00:10.255,(60 39 8 10 6 5 12 35)
1969/12/31/18:00:10.255,(-63 -28 -22 -14 -1 32 -43 -56)
1969/12/31/18:00:10.255,(-8 0 3 0 -14 -59 28 14)
1969/12/31/18:00:10.280,(21 9 2 0 2 -38 -41 1)
1969/12/31/18:00:10.280,(48 11 2 0 5 59 47 49)
1969/12/31/18:00:10.282,(-7 -15 -12 -9 -14 -37 -26 -15)
1969/12/31/18:00:10.282,(-12 -2 -2 2 9 34 -5 -6)
1969/12/31/18:00:10.305,(11 5 -2 -1 0 19 33 21)
1969/12/31/18:00:10.305,(-32 -9 0 -3 -6 -15 -34 -64)
1969/12/31/18:00:10.306,(23 0 3 4 7 83 68 58)
1969/12/31/18:00:10.306,(-20 -12 -8 -7 -11 -66 -52 -43)
1969/12/31/18:00:10.321,(-19 2 9 3 -1 -1 7 -24)
1969/12/31/18:00:10.321,(-59 -40 -19 -12 -10 -28 -12 -1)
1969/12/31/18:00:10.322,(8 2 -5 -5 -3 -2 1 -9)
1969/12/31/18:00:10.322,(22 14 9 8 15 32 49 55)
1969/12/31/18:00:10.346,(15 -2 -3 -3 -3 29 -9 17)
1969/12/31/18:00:10.346,(-14 6 3 1 -10 -52 -31 -25)
1969/12/31/18:00:10.347,(-34 -26 -11 -10 -17 -55 3 -17)
1969/12/31/18:00:10.347,(40 20 9 9 12 57 -28 -26)
1969/12/31/18:00:10.371,(-16 -7 -8 -6 -10 -27 -10 -37)
1969/12/31/18:00:10.371,(-22 -23 -11 -5 1 1 -20 -1)
1969/12/31/18:00:10.371,(47 25 10 6 1 -21 11 37)
1969/12/31/18:00:10.371,(-12 -1 -4 -3 5 25 7 -2)
1969/12/31/18:00:10.387,(-1 0 8 4 1 -25 3 -3)
1969/12/31/18:00:10.387,(10 -8 -6 -1 13 78 0 -7)
1969/12/31/18:00:10.388,(-6 10 6 3 -7 -33 10 24)
1969/12/31/18:00:10.388,(-34 -17 -11 -5 2 42 -13 -29)
1969/12/31/18:00:10.412,(-2 -1 1 -3 -5 17 -8 -39)
1969/12/31/18:00:10.412,(45 26 4 2 -3 -33 13 57)
1969/12/31/18:00:10.413,(2 14 6 5 10 8 -7 17)
1969/12/31/18:00:10.413,(-8 -13 -10 -10 -13 36 15 3)
1969/12/31/18:00:10.436,(-6 -7 -6 -6 -11 -81 -17 30)
1969/12/31/18:00:10.436,(0 -6 1 1 -3 -36 -16 -40)
1969/12/31/18:00:10.437,(6 21 9 6 4 11 4 -58)
1969/12/31/18:00:10.437,(2 -16 3 6 -1 -23 4 31)
1969/12/31/18:00:10.453,(-51 -14 -12 -12 -6 17 -45 -36)
1969/12/31/18:00:10.453,(6 -5 -4 -4 12 25 44 20)
1969/12/31/18:00:10.454,(8 20 12 15 9 -13 -4 22)
1969/12/31/18:00:10.454,(-36 -12 -12 -11 -15 -33 -9 -68)
1969/12/31/18:00:10.478,(-18 -19 -6 1 5 17 -8 -23)
1969/12/31/18:00:10.478,(21 11 7 1 -3 -15 8 5)
1969/12/31/18:00:10.479,(-31 -23 -17 -18 -18 -38 -40 -50)
1969/12/31/18:00:10.479,(39 12 4 4 8 -1 53 91)
1969/12/31/18:00:10.502,(12 -2 2 3 10 38 37 11)
1969/12/31/18:00:10.502,(16 2 -1 -1 -12 -54 -25 -5)
1969/12/31/18:00:10.503,(-4 7 7 6 14 37 -7 17)
1969/12/31/18:00:10.503,(44 14 4 1 -1 40 0 61)
1969/12/31/18:00:10.517,(-10 -10 -4 -2 -1 -40 -13 -19)
1969/12/31/18:00:10.517,(18 9 5 2 1 21 6 24)
1969/12/31/18:00:10.527,(24 21 8 3 9 47 49 52)
1969/12/31/18:00:10.527,(-1 -16 -5 -4 -12 -75 -33 -27)
1969/12/31/18:00:10.544,(-21 -13 -3 1 -7 -39 -31 -17)
1969/12/31/18:00:10.544,(-32 -20 -7 -3 0 33 7 -55)
1969/12/31/18:00:10.546,(-6 -5 -10 -9 -19 -94 -76 -27)
1969/12/31/18:00:10.546,(-9 8 4 -2 2 -4 6 -13)
1969/12/31/18:00:10.569,(-15 -10 0 2 5 26 13 13)
1969/12/31/18:00:10.569,(-23 -12 -3 -1 -7 -19 25 7)
1969/12/31/18:00:10.570,(21 12 2 0 -3 14 6 -8)
1969/12/31/18:00:10.570,(-4 1 -1 0 3 8 -10 -14)
1969/12/31/18:00:10.583,(8 15 7 3 11 7 19 -25)
1969/12/31/18:00:10.583,(7 2 0 0 22 70 -4 48)
1969/12/31/18:00:10.593,(1 -19 -4 -2 -5 -6 17 -32)
1969/12/31/18:00:10.593,(-4 2 4 5 13 32 8 8)
1969/12/31/18:00:10.609,(24 16 3 -1 -35 -57 -7 2)
1969/12/31/18:00:10.609,(26 13 -1 1 1 -6 1 28)
1969/12/31/18:00:10.611,(-10 -8 -1 2 -12 8 3 -11)
1969/12/31/18:00:10.611,(-29 -2 3 14 33 16 10 0)
1969/12/31/18:00:10.634,(-17 -17 -8 -18 -34 20 24 -20)
1969/12/31/18:00:10.634,(-17 -17 -10 -11 -11 -9 -61 -56)
1969/12/31/18:00:10.636,(11 -2 -3 -6 51 21 7 28)
1969/12/31/18:00:10.636,(-21 1 -2 4 -30 -17 16 12)
1969/12/31/18:00:10.649,(-18 0 2 -1 -21 -15 -25 -27)
1969/12/31/18:00:10.649,(-14 -2 1 1 0 -9 2 1)
1969/12/31/18:00:10.659,(1 3 2 10 20 16 15 11)
1969/12/31/18:00:10.659,(16 11 9 24 70 39 10 3)
1969/12/31/18:00:10.675,(15 9 -6 -33 -84 -97 -43 13)
1969/12/31/18:00:10.675,(1 3 0 -9 0 25 23 5)
1969/12/31/18:00:10.676,(6 2 6 4 -2 -30 -26 -1)
1969/12/31/18:00:10.676,(8 -3 0 0 27 13 -9 0)
1969/12/31/18:00:10.699,(10 -3 0 22 37 54 48 41)
1969/12/31/18:00:10.699,(-2 -1 2 14 17 -28 25 21)
1969/12/31/18:00:10.702,(5 6 -1 -1 -24 -2 -7 4)
1969/12/31/18:00:10.702,(27 6 -1 -10 -32 -47 -22 8)
1969/12/31/18:00:10.715,(15 5 -1 -6 31 74 34 25)
1969/12/31/18:00:10.715,(16 4 3 8 15 0 15 16)
1969/12/31/18:00:10.725,(-7 12 3 6 -45 -62 -8 -12)
1969/12/31/18:00:10.725,(5 -9 -2 -11 -21 -4 1 -4)
1969/12/31/18:00:10.741,(-3 -8 -8 -24 -43 -6 2 23)
1969/12/31/18:00:10.741,(-5 3 1 9 55 63 -14 0)
1969/12/31/18:00:10.743,(0 -11 -5 -2 -16 -56 3 5)
1969/12/31/18:00:10.743,(-10 -2 -7 -5 6 21 -5 -50)
1969/12/31/18:00:10.765,(17 6 -1 18 24 -11 -7 13)
1969/12/31/18:00:10.765,(-9 3 6 -3 -32 -15 -3 14)
1969/12/31/18:00:10.767,(-1 -3 -3 6 61 74 28 6)
1969/12/31/18:00:10.767,(-16 0 4 -19 -78 -35 -18 0)
1969/12/31/18:00:10.780,(-8 -4 0 6 23 -34 -18 -11)
1969/12/31/18:00:10.780,(11 15 8 -7 -51 -57 -12 -12)
1969/12/31/18:00:10.790,(-6 -4 8 1 19 35 8 9)
1969/12/31/18:00:10.790,(25 11 -14 4 29 10 0 24)
1969/12/31/18:00:10.807,(17 4 -35 16 108 97 32 13)
1969/12/31/18:00:10.807,(-27 -11 39 -7 -92 -71 -37 -22)
1969/12/31/18:00:10.809,(25 1 -38 -26 -35 -2 0 30)
1969/12/31/18:00:10.809,(-34 1 47 -7 -8 -1 -6 -26)
1969/12/31/18:00:10.831,(-9 2 9 12 18 -6 -8 10)
1969/12/31/18:00:10.832,(19 -11 -54 -14 41 34 24 39)
1969/12/31/18:00:10.833,(3 17 33 9 -36 -19 3 35)
1969/12/31/18:00:10.833,(54 14 -56 -9 9 -2 4 24)
1969/12/31/18:00:10.846,(6 -73 -34 -14 11 -4 9 33)
1969/12/31/18:00:10.846,(-25 77 94 38 17 22 -5 -56)
1969/12/31/18:00:10.856,(28 52 12 30 47 36 -15 4)
1969/12/31/18:00:10.856,(-52 -89 -52 -38 -81 -90 -23 -3)
1969/12/31/18:00:10.873,(-12 15 -20 -15 -40 -20 -10 -36)
1969/12/31/18:00:10.873,(59 -105 -87 -44 -30 2 22 57)
1969/12/31/18:00:10.874,(1 25 5 -2 36 37 -13 -28)
1969/12/31/18:00:10.874,(-23 93 96 32 8 2 -3 -46)
1969/12/31/18:00:10.897,(-13 -54 -93 -28 9 7 -16 -55)
1969/12/31/18:00:10.898,(-37 91 105 28 10 -4 -2 -37)
1969/12/31/18:00:10.899,(-46 -42 -23 -3 8 -3 -10 -25)
1969/12/31/18:00:10.899,(14 -66 -96 -14 81 92 38 -38)
1969/12/31/18:00:10.912,(-4 96 127 32 -89 -82 -44 26)
1969/12/31/18:00:10.912,(11 -10 -67 -12 21 -9 -7 59)
1969/12/31/18:00:10.922,(-12 -80 -69 -10 1 17 39 -25)
1969/12/31/18:00:10.922,(15 92 61 20 -3 2 -24 62)
1969/12/31/18:00:10.938,(39 -81 -75 -8 30 29 28 -2)
1969/12/31/18:00:10.938,(-24 -58 -48 -40 -62 -7 14 11)
1969/12/31/18:00:10.941,(-31 91 108 19 -36 -44 -20 -38)
1969/12/31/18:00:10.941,(36 -108 -98 -33 -15 -8 4 45)
1969/12/31/18:00:10.961,(-1 32 31 17 40 32 -15 -19)
1969/12/31/18:00:10.963,(-30 -30 -26 11 45 1 -5 -29)
1969/12/31/18:00:10.971,(-1 -128 -128 -53 -48 -28 -43 -69)
1969/12/31/18:00:10.971,(10 119 111 37 -23 -31 10 53)
1969/12/31/18:00:10.978,(-6 34 37 21 65 48 21 -23)
1969/12/31/18:00:10.978,(-4 -29 -28 1 4 2 3 -9)
1969/12/31/18:00:10.988,(-34 24 46 1 -54 -22 -7 -26)
1969/12/31/18:00:10.988,(0 -128 -122 -46 -15 -2 -10 -8)
1969/12/31/18:00:11.003,(-15 102 95 23 -15 -15 -7 -8)
1969/12/31/18:00:11.003,(69 -58 -98 -27 24 32 12 15)
1969/12/31/18:00:11.013,(6 -40 -47 -12 73 49 7 23)
1969/12/31/18:00:11.013,(-36 52 105 59 -2 -29 -15 -33)
1969/12/31/18:00:11.029,(-24 -22 -8 3 11 -5 15 16)
1969/12/31/18:00:11.029,(51 14 36 12 -50 -23 15 42)
1969/12/31/18:00:11.030,(52 47 27 0 -42 -53 -24 6)
1969/12/31/18:00:11.030,(-46 -25 4 -8 9 11 -15 9)
1969/12/31/18:00:11.044,(-12 -113 -109 -35 6 30 -7 -25)
1969/12/31/18:00:11.044,(-7 119 108 29 19 15 -38 -8)
1969/12/31/18:00:11.055,(33 -25 -32 1 -12 -48 14 10)
1969/12/31/18:00:11.055,(2 -19 -27 -11 -5 -4 20 4)
1969/12/31/18:00:11.069,(40 -68 -59 -25 17 14 -2 29)
1969/12/31/18:00:11.069,(-51 38 -8 16 52 28 19 -8)
1969/12/31/18:00:11.078,(-76 61 52 34 -8 45 29 5)
1969/12/31/18:00:11.078,(89 31 -8 17 3 -13 -8 -31)
1969/12/31/18:00:11.094,(-26 -69 -88 -64 -41 -2 10 31)
1969/12/31/18:00:11.095,(-44 33 43 -6 -77 -59 -46 -69)
1969/12/31/18:00:11.096,(-29 31 15 6 53 32 28 38)
1969/12/31/18:00:11.096,(-15 -64 -57 1 9 -12 12 12)
1969/12/31/18:00:11.109,(2 2 -1 0 -41 1 11 12)
1969/12/31/18:00:11.109,(9 -27 -40 7 49 14 7 -17)
1969/12/31/18:00:11.119,(-20 -4 13 -12 -22 -3 -33 -50)
1969/12/31/18:00:11.119,(-3 -33 -17 -20 21 -2 3 7)
1969/12/31/18:00:11.135,(14 -47 -14 2 -16 -16 24 27)
1969/12/31/18:00:11.135,(-27 -16 6 -32 -95 -45 -46 -30)
1969/12/31/18:00:11.142,(43 14 -21 -13 10 5 -6 22)
1969/12/31/18:00:11.142,(-12 51 39 14 42 30 -17 -57)
1969/12/31/18:00:11.160,(5 -40 5 23 -9 -27 -16 -9)
1969/12/31/18:00:11.160,(-37 17 16 20 28 6 14 -32)
1969/12/31/18:00:11.162,(38 21 13 45 98 105 49 87)
1969/12/31/18:00:11.162,(-28 -33 -24 -47 -111 -92 -56 -68)
1969/12/31/18:00:11.186,(-8 83 48 2 -4 2 9 -25)
1969/12/31/18:00:11.187,(5 -74 -50 -19 21 -6 -14 -21)
1969/12/31/18:00:11.188,(8 -46 -18 -12 39 17 47 45)
1969/12/31/18:00:11.188,(19 15 -14 22 51 47 -8 -16)
1969/12/31/18:00:11.200,(2 46 50 36 20 -3 3 37)
1969/12/31/18:00:11.200,(13 -36 -51 -27 -53 2 52 3)
1969/12/31/18:00:11.208,(20 11 -16 -24 -55 -23 -22 8)
1969/12/31/18:00:11.208,(-23 40 58 25 -6 -43 0 -17)
1969/12/31/18:00:11.227,(-14 25 22 1 41 21 -22 -25)
1969/12/31/18:00:11.227,(25 -69 -63 29 40 5 19 46)
1969/12/31/18:00:11.228,(-28 103 90 -13 -56 -50 3 -11)
1969/12/31/18:00:11.228,(11 -5 12 2 -7 6 16 35)
1969/12/31/18:00:11.251,(41 -26 -50 0 31 15 -29 -17)
1969/12/31/18:00:11.251,(-37 44 47 -10 3 0 -26 -6)
1969/12/31/18:00:11.257,(-7 -128 -72 -13 10 -3 -17 -74)
1969/12/31/18:00:11.257,(13 -30 -51 -26 -42 -5 15 23)
1969/12/31/18:00:11.266,(-9 118 101 38 24 8 9 -10)
1969/12/31/18:00:11.267,(45 34 17 36 81 48 12 29)
1969/12/31/18:00:11.274,(29 -53 -73 -33 -80 -61 -16 8)
1969/12/31/18:00:11.274,(-41 38 48 -1 -24 2 2 -6)
1969/12/31/18:00:11.291,(-5 -53 -55 -21 -45 -21 11 15)
1969/12/31/18:00:11.291,(7 -60 -65 -38 -28 -18 -7 -18)
1969/12/31/18:00:11.300,(6 104 109 75 103 60 12 -6)
1969/12/31/18:00:11.300,(-23 -23 -38 11 -20 -13 2 -31)
1969/12/31/18:00:11.317,(-4 -57 -55 -20 -28 -13 10 19)
1969/12/31/18:00:11.317,(-19 45 -9 -28 -31 -20 -4 4)
1969/12/31/18:00:11.318,(35 14 -24 11 81 20 -10 22)
1969/12/31/18:00:11.318,(-3 -29 -11 -25 -66 -33 -8 15)
1969/12/31/18:00:11.332,(-29 -36 29 -1 5 -13 -3 -11)
1969/12/31/18:00:11.332,(-22 -104 -81 -31 -19 42 -15 -56)
1969/12/31/18:00:11.340,(-2 1 2 4 -7 -1 8 7)
1969/12/31/18:00:11.340,(35 121 108 18 20 -4 2 -5)
1969/12/31/18:00:11.358,(13 -67 -64 -22 -65 -48 -3 12)
1969/12/31/18:00:11.358,(-21 3 61 13 -33 -77 -68 4)
1969/12/31/18:00:11.361,(-14 -63 -69 -27 22 65 38 25)
1969/12/31/18:00:11.361,(-27 10 11 24 68 50 8 -30)
1969/12/31/18:00:11.382,(62 67 59 38 32 5 4 30)
1969/12/31/18:00:11.382,(-32 -49 -26 0 24 26 31 -12)
1969/12/31/18:00:11.385,(-2 5 -13 -32 -88 -82 -79 -74)
1969/12/31/18:00:11.385,(-49 -70 -32 -8 44 58 12 25)
1969/12/31/18:00:11.398,(-34 12 -26 -34 -46 -19 9 -4)
1969/12/31/18:00:11.398,(-9 97 107 48 0 -51 14 32)
1969/12/31/18:00:11.406,(87 1 -13 7 66 95 38 62)
1969/12/31/18:00:11.406,(25 24 -17 14 -52 -90 2 36)
1969/12/31/18:00:11.423,(-79 4 29 13 43 25 -52 -92)
1969/12/31/18:00:11.423,(66 -54 -42 -33 -33 6 27 8)
1969/12/31/18:00:11.425,(-55 1 23 1 3 21 11 19)
1969/12/31/18:00:11.425,(-44 -21 -31 -14 30 34 15 -31)
1969/12/31/18:00:11.448,(35 -14 -13 1 -21 -14 17 41)
1969/12/31/18:00:11.448,(10 -7 -1 12 62 44 17 37)
1969/12/31/18:00:11.449,(-46 -85 -77 -53 -112 -111 -40 -43)
1969/12/31/18:00:11.449,(43 63 60 19 7 8 -11 -5)
1969/12/31/18:00:11.464,(-12 -17 14 2 18 15 -7 -8)
1969/12/31/18:00:11.464,(-6 -14 2 -5 8 12 -32 -17)
1969/12/31/18:00:11.490,(-4 -10 -38 24 52 34 13 -6)
1969/12/31/18:00:11.490,(20 -74 -65 -34 -59 -29 7 66)
1969/12/31/18:00:11.491,(8 127 127 46 39 28 -1 17)
1969/12/31/18:00:11.491,(-28 -26 -40 -18 -27 -12 14 -3)
1969/12/31/18:00:11.495,(-32 -59 -6 -4 4 11 -1 24)
1969/12/31/18:00:11.495,(-12 -54 -51 -25 7 -25 -11 -25)
1969/12/31/18:00:11.514,(19 3 -72 -9 38 12 -23 -24)
1969/12/31/18:00:11.514,(8 127 114 58 -19 3 39 31)
1969/12/31/18:00:11.515,(11 39 15 -2 -59 -40 -14 -36)
1969/12/31/18:00:11.515,(-3 -64 -44 -10 62 72 0 -4)
1969/12/31/18:00:11.528,(0 -44 -43 -9 -29 -18 24 19)
1969/12/31/18:00:11.528,(18 -18 -22 -11 6 -21 -23 -41)
1969/12/31/18:00:11.538,(12 63 83 43 32 -6 -13 -7)
1969/12/31/18:00:11.538,(62 51 44 18 4 29 -4 36)
1969/12/31/18:00:11.555,(-24 -87 -13 -10 4 1 0 -7)
1969/12/31/18:00:11.555,(-21 -21 -36 -6 39 32 -34 -46)
1969/12/31/18:00:11.557,(-30 -84 -94 -42 -35 -26 35 15)
1969/12/31/18:00:11.557,(45 87 82 54 15 -4 12 56)
1969/12/31/18:00:11.580,(-16 -51 -15 -12 -18 10 4 -56)
1969/12/31/18:00:11.580,(11 -61 -44 -11 -24 -37 -7 23)
1969/12/31/18:00:11.581,(-11 -16 8 -20 2 18 3 34)
1969/12/31/18:00:11.581,(-27 -51 -50 -12 65 47 19 -9)
1969/12/31/18:00:11.604,(-3 34 3 7 -40 -38 -17 -13)
1969/12/31/18:00:11.604,(8 26 46 19 -7 15 4 -9)
1969/12/31/18:00:11.606,(67 83 31 14 3 5 -8 -5)
1969/12/31/18:00:11.606,(-56 -58 -29 -21 -53 -65 -1 0)
1969/12/31/18:00:11.622,(-24 23 33 10 44 24 -31 -28)
1969/12/31/18:00:11.622,(13 -42 -47 -15 13 -8 10 56)
1969/12/31/18:00:11.623,(-3 -27 8 -7 -35 -15 -9 -3)
1969/12/31/18:00:11.623,(0 -18 -30 -21 6 27 4 -13)
1969/12/31/18:00:11.646,(-10 -6 -41 -2 47 18 -11 -22)
1969/12/31/18:00:11.646,(27 99 100 30 -27 -16 12 50)
1969/12/31/18:00:11.648,(-51 -10 9 29 24 -6 9 -20)
1969/12/31/18:00:11.648,(18 -35 -16 -24 -15 19 -15 -11)
1969/12/31/18:00:11.670,(40 16 -31 -24 -50 -42 1 39)
1969/12/31/18:00:11.670,(-12 5 21 6 5 14 -3 -31)
1969/12/31/18:00:11.672,(-17 61 89 15 -45 -55 -1 19)
1969/12/31/18:00:11.672,(33 -29 -32 -9 11 0 2 -10)
1969/12/31/18:00:11.686,(-30 -47 -42 -26 -17 -5 -9 3)
1969/12/31/18:00:11.686,(17 0 -37 -15 46 30 -23 -6)
1969/12/31/18:00:11.688,(16 -94 -78 14 38 53 52 63)
1969/12/31/18:00:11.688,(10 102 102 12 -70 -41 8 31)
1969/12/31/18:00:11.711,(50 94 37 -3 -4 6 -8 -13)
1969/12/31/18:00:11.711,(-52 3 35 15 -12 -36 -23 -57)
1969/12/31/18:00:11.713,(-38 -72 -39 -21 17 16 -22 -22)
1969/12/31/18:00:11.713,(4 -40 -77 -15 12 9 19 8)
1969/12/31/18:00:11.727,(-2 -37 -17 13 23 10 34 52)
1969/12/31/18:00:11.727,(5 -10 0 16 60 41 -29 -28)
1969/12/31/18:00:11.737,(-36 111 114 8 -106 -106 -68 -77)
1969/12/31/18:00:11.737,(-29 -8 -9 -12 42 18 -4 7)
1969/12/31/18:00:11.753,(-30 -55 -31 -3 -6 -11 3 -14)
1969/12/31/18:00:11.753,(2 -53 -75 -31 10 21 9 0)
1969/12/31/18:00:11.754,(43 41 40 33 71 64 33 37)
1969/12/31/18:00:11.754,(3 5 -1 -8 -60 -55 -24 -57)
1969/12/31/18:00:11.777,(-14 -34 -9 -4 -8 14 12 3)
1969/12/31/18:00:11.777,(52 59 -15 0 17 16 35 53)
1969/12/31/18:00:11.778,(0 18 21 14 2 6 5 5)
1969/12/31/18:00:11.778,(21 20 18 13 20 14 10 23)
1969/12/31/18:00:11.801,(-45 -17 -4 -13 -26 -20 -15 -54)
1969/12/31/18:00:11.801,(22 -23 -52 -17 -16 -13 -11 -26)
1969/12/31/18:00:11.804,(-17 30 54 8 12 11 4 4)
1969/12/31/18:00:11.804,(-8 1 -2 8 57 51 1 -23)
1969/12/31/18:00:11.818,(37 42 10 -3 -66 -53 11 41)
1969/12/31/18:00:11.818,(29 -22 -31 14 54 39 21 9)
1969/12/31/18:00:11.820,(-56 4 40 -12 -89 -83 -56 -94)
1969/12/31/18:00:11.820,(9 27 26 -12 -71 -56 -5 19)
1969/12/31/18:00:11.843,(1 16 21 9 40 38 -18 2)
1969/12/31/18:00:11.843,(-13 -16 -21 -32 -39 -14 16 19)
1969/12/31/18:00:11.845,(55 -85 -110 -24 52 32 -2 38)
1969/12/31/18:00:11.845,(41 69 61 43 31 20 18 25)
1969/12/31/18:00:11.858,(-6 7 34 10 2 7 -4 -20)
1969/12/31/18:00:11.858,(-20 10 11 4 -3 -19 -27 -3)
1969/12/31/18:00:11.868,(-10 -47 -58 -58 -21 -3 13 15)
1969/12/31/18:00:11.868,(-24 -59 -89 -13 -5 -4 -27 -24)
1969/12/31/18:00:11.885,(-8 -49 -3 8 19 15 39 20)
1969/12/31/18:00:11.885,(15 82 95 51 21 46 5 7)
1969/12/31/18:00:11.886,(29 58 39 53 67 14 33 56)
1969/12/31/18:00:11.886,(31 77 58 -15 -58 -62 -33 23)
1969/12/31/18:00:11.909,(-13 -2 5 -13 -36 56 28 -17)
1969/12/31/18:00:11.909,(-38 -83 -50 -36 -35 -72 -33 -23)
1969/12/31/18:00:11.911,(34 -40 -88 -29 19 22 7 16)
1969/12/31/18:00:11.911,(-41 -41 -1 21 114 83 -6 -19)
1969/12/31/18:00:11.924,(-17 13 -16 -24 -97 -110 -30 -11)
1969/12/31/18:00:11.924,(10 -26 -11 -29 -39 -13 9 18)
1969/12/31/18:00:11.934,(-22 6 -11 1 14 14 -18 -33)
1969/12/31/18:00:11.934,(5 -10 -25 8 44 52 32 8)
1969/12/31/18:00:11.949,(7 21 27 21 50 -6 -7 18)
1969/12/31/18:00:11.949,(-20 8 4 -32 -79 -34 -18 -29)
1969/12/31/18:00:11.952,(14 -27 -35 -36 -36 -40 -17 21)
1969/12/31/18:00:11.952,(-54 -36 -13 -27 -31 -25 -18 -60)
1969/12/31/18:00:11.975,(11 45 49 71 83 79 18 2)
1969/12/31/18:00:11.975,(-15 9 8 37 33 -12 -1 -11)
1969/12/31/18:00:11.976,(3 -7 3 6 -15 16 -4 -22)
1969/12/31/18:00:11.976,(-2 4 -5 -17 -16 -2 -2 15)
1969/12/31/18:00:11.990,(69 25 11 10 22 20 14 57)
1969/12/31/18:00:11.990,(-63 -23 -6 -16 -15 -22 -28 -68)
1969/12/31/18:00:11.999,(-1 7 15 -1 -7 13 16 7)
1969/12/31/18:00:11.999,(-10 -7 -3 7 -6 -5 -2 -17)
1969/12/31/18:00:12.016,(38 34 -13 -12 0 -11 6 31)
1969/12/31/18:00:12.016,(-44 -26 15 13 10 18 37 19)
1969/12/31/18:00:12.017,(-11 4 14 0 4 -1 -4 3)
1969/12/31/18:00:12.017,(-33 -29 -21 -3 -13 -34 -20 -45)
1969/12/31/18:00:12.040,(9 14 -1 -4 10 31 -9 -16)
1969/12/31/18:00:12.040,(16 0 -8 -15 -4 14 33 40)
1969/12/31/18:00:12.043,(10 3 2 5 10 -9 20 37)
1969/12/31/18:00:12.043,(-3 -8 5 7 -11 30 1 10)
1969/12/31/18:00:12.056,(-46 -28 -4 -14 -17 -20 7 0)
1969/12/31/18:00:12.056,(48 28 -4 -7 2 -2 -28 -19)
1969/12/31/18:00:12.065,(8 -18 -23 -42 -8 29 33 19)
1969/12/31/18:00:12.065,(-37 -17 4 50 20 -13 -8 -25)
1969/12/31/18:00:12.082,(-60 -25 -2 1 1 27 -5 -45)
1969/12/31/18:00:12.082,(24 25 19 35 20 -76 -43 2)
1969/12/31/18:00:12.083,(58 23 5 3 -12 2 -3 25)
1969/12/31/18:00:12.083,(-3 -7 -5 -26 -15 37 31 5)
1969/12/31/18:00:12.106,(12 5 -2 -22 -15 1 -29 -12)
1969/12/31/18:00:12.106,(-39 -4 14 34 44 51 59 51)
1969/12/31/18:00:12.108,(-7 -17 -10 -8 -15 -48 -34 63)
1969/12/31/18:00:12.108,(-18 11 6 -7 -11 -40 -60 -84)
1969/12/31/18:00:12.122,(63 25 1 4 3 4 7 19)
1969/12/31/18:00:12.122,(-59 -59 -22 -29 -26 -31 -9 -37)
1969/12/31/18:00:12.131,(-7 0 3 12 12 18 25 29)
1969/12/31/18:00:12.131,(58 18 2 3 7 12 40 55)
1969/12/31/18:00:12.148,(2 5 -2 -8 -9 -34 -12 -29)
1969/12/31/18:00:12.148,(1 6 2 -4 0 22 -7 -21)
1969/12/31/18:00:12.149,(-28 9 16 23 13 8 -28 -31)
1969/12/31/18:00:12.149,(11 -15 -23 -17 -22 -36 8 -3)
1969/12/31/18:00:12.171,(15 -7 2 -1 10 31 16 34)
1969/12/31/18:00:12.171,(14 11 1 -3 -9 -32 -24 -17)
1969/12/31/18:00:12.180,(-96 -27 -13 -2 -8 -20 -34 -98)
1969/12/31/18:00:12.180,(65 48 35 19 17 26 37 72)
1969/12/31/18:00:12.187,(-48 -42 -20 -8 0 -1 8 38)
1969/12/31/18:00:12.187,(51 6 -8 -9 -6 9 -5 25)
1969/12/31/18:00:12.196,(-44 4 7 6 2 0 3 -41)
1969/12/31/18:00:12.197,(14 3 -3 -3 1 0 -6 40)
1969/12/31/18:00:12.221,(-8 2 8 4 4 -7 12 14)
1969/12/31/18:00:12.221,(66 31 7 2 0 14 6 11)
1969/12/31/18:00:12.222,(4 -10 -1 1 -1 -6 -11 -39)
1969/12/31/18:00:12.222,(-1 -2 -4 -2 -1 5 7 26)
1969/12/31/18:00:12.238,(-23 -7 -2 4 0 -13 -17 -46)
1969/12/31/18:00:12.238,(-2 26 10 6 6 22 19 9)
1969/12/31/18:00:12.239,(5 -18 -11 -6 -8 -1 -4 -8)
1969/12/31/18:00:12.239,(-45 -16 -10 -5 -5 -12 -24 -31)
1969/12/31/18:00:12.262,(41 7 0 -4 -3 -8 1 41)
1969/12/31/18:00:12.262,(-29 -12 -2 0 4 12 3 21)
1969/12/31/18:00:12.264,(29 10 0 -2 -3 -3 7 -8)
1969/12/31/18:00:12.264,(-56 -30 -11 -6 -7 -10 -14 -28)
1969/12/31/18:00:12.278,(-23 3 -1 -4 -5 -13 -18 -31)
1969/12/31/18:00:12.278,(-5 -8 -3 -3 1 10 5 13)
1969/12/31/18:00:12.285,(15 0 3 1 0 1 2 6)
1969/12/31/18:00:12.285,(-17 1 -5 -5 -6 -8 -14 -36)
1969/12/31/18:00:12.304,(6 4 1 1 1 -2 -1 -1)
1969/12/31/18:00:12.304,(-38 -23 -11 -5 -1 0 -1 -10)
1969/12/31/18:00:12.306,(31 13 1 0 -1 -2 0 -2)
1969/12/31/18:00:12.306,(26 14 10 1 -1 -2 1 6)
1969/12/31/18:00:12.328,(-22 -28 -11 -4 -2 -5 -1 -5)
1969/12/31/18:00:12.328,(-17 -10 -6 -6 -5 -2 -7 -43)
1969/12/31/18:00:12.330,(-2 11 12 8 2 1 6 22)
1969/12/31/18:00:12.330,(30 10 -12 -5 -3 1 -1 -18)
1969/12/31/18:00:12.344,(13 8 16 6 0 -2 -4 7)
1969/12/31/18:00:12.344,(-4 -7 -7 -3 2 4 4 19)
1969/12/31/18:00:12.352,(18 16 1 -1 2 2 5 14)
1969/12/31/18:00:12.352,(-11 -20 7 2 0 -1 0 5)
1969/12/31/18:00:12.369,(-7 4 -9 -4 -2 -7 -10 -21)
1969/12/31/18:00:12.369,(-1 -3 -4 -4 -3 -1 -4 0)
1969/12/31/18:00:12.371,(-18 -21 -17 -5 -3 -3 3 -4)
1969/12/31/18:00:12.371,(20 17 -1 2 3 0 -5 16)
1969/12/31/18:00:12.397,(6 14 14 2 0 1 5 3)
1969/12/31/18:00:12.397,(-6 -11 -6 0 -2 -1 -6 -7)
1969/12/31/18:00:12.399,(-10 -21 -10 -7 -6 -6 -7 -6)
1969/12/31/18:00:12.399,(1 9 16 6 0 1 6 -6)
1969/12/31/18:00:12.410,(-6 8 4 0 -5 -5 -10 10)
1969/12/31/18:00:12.410,(43 25 8 3 1 1 3 2)
1969/12/31/18:00:12.419,(-27 -22 -19 -9 -7 -6 -15 -44)
1969/12/31/18:00:12.419,(-14 -27 -16 -7 -2 1 0 -6)
1969/12/31/18:00:12.435,(11 4 -13 -7 -2 0 4 0)
1969/12/31/18:00:12.435,(-8 23 46 19 9 5 11 5)
1969/12/31/18:00:12.436,(14 10 -5 -2 -1 -2 -17 0)
1969/12/31/18:00:12.436,(-4 -5 0 -1 -1 2 5 8)
1969/12/31/18:00:12.459,(-21 -3 5 1 -1 -8 -13 -17)
1969/12/31/18:00:12.459,(23 -9 -32 -13 -4 0 5 14)
1969/12/31/18:00:12.462,(-9 22 39 16 7 3 7 -3)
1969/12/31/18:00:12.462,(-2 8 0 -4 -2 2 0 1)
1969/12/31/18:00:12.476,(1 -28 -25 -8 -2 -2 -3 -2)
1969/12/31/18:00:12.476,(-8 6 -5 -9 -6 1 3 -4)
1969/12/31/18:00:12.482,(3 15 17 9 2 0 10 4)
1969/12/31/18:00:12.482,(-2 -12 -9 -1 -3 -3 -8 -1)
1969/12/31/18:00:12.501,(2 4 2 2 3 2 4 10)
1969/12/31/18:00:12.501,(3 -3 -11 -8 -6 -4 -8 -4)
1969/12/31/18:00:12.502,(-3 -15 -8 -4 -1 0 2 -5)
1969/12/31/18:00:12.502,(-4 -4 -1 2 2 2 1 7)
1969/12/31/18:00:12.526,(8 26 18 6 0 0 14 0)
1969/12/31/18:00:12.526,(-9 -2 5 7 4 0 -13 1)
1969/12/31/18:00:12.527,(10 -33 -23 -13 -4 -1 1 7)
1969/12/31/18:00:12.527,(5 36 19 3 -2 -6 -7 10)
1969/12/31/18:00:12.542,(-18 -22 -6 1 0 -4 -10 -22)
1969/12/31/18:00:12.542,(2 -23 -28 -12 -5 -2 11 4)
1969/12/31/18:00:12.548,(5 56 57 18 7 3 -1 0)
1969/12/31/18:00:12.548,(0 -19 -22 -9 0 3 3 8)
1969/12/31/18:00:12.567,(-3 3 10 6 2 2 -9 -2)
1969/12/31/18:00:12.567,(0 -8 -15 -10 -7 -5 -2 2)
1969/12/31/18:00:12.569,(-8 -3 14 12 4 2 -2 -1)
1969/12/31/18:00:12.569,(2 -11 -10 -2 -1 0 4 0)
1969/12/31/18:00:12.592,(7 13 8 6 2 2 0 0)
1969/12/31/18:00:12.592,(-14 -11 -2 -2 -1 0 -3 -10)
1969/12/31/18:00:12.593,(3 -18 -25 -10 -3 -1 8 7)
1969/12/31/18:00:12.593,(-5 -3 1 -3 -1 -1 -7 -3)
1969/12/31/18:00:12.607,(7 25 9 0 -1 0 1 -1)
1969/12/31/18:00:12.607,(2 13 20 16 8 5 0 4)
1969/12/31/18:00:12.615,(5 -10 -23 -7 -4 0 -2 0)
1969/12/31/18:00:12.615,(-9 -11 8 2 0 -1 -1 -5)
1969/12/31/18:00:12.633,(-4 -72 -43 -24 -11 -5 -3 0)
1969/12/31/18:00:12.633,(0 46 52 16 6 1 -2 -4)
1969/12/31/18:00:12.634,(7 37 9 0 -1 3 1 0)
1969/12/31/18:00:12.634,(-7 -1 16 5 2 1 1 -8)
1969/12/31/18:00:12.658,(-4 -18 -17 -5 -6 -2 -2 -3)
1969/12/31/18:00:12.658,(-8 -12 7 -5 -2 1 -3 -4)
1969/12/31/18:00:12.659,(25 15 -18 0 2 1 -2 6)
1969/12/31/18:00:12.659,(6 -12 -2 1 -2 -3 -2 0)
1969/12/31/18:00:12.673,(6 47 8 -3 -2 -3 -1 0)
1969/12/31/18:00:12.673,(-5 -31 -7 6 3 -2 1 1)
1969/12/31/18:00:12.681,(0 11 -1 3 3 1 1 3)
1969/12/31/18:00:12.681,(-16 -30 -29 -19 -9 -4 -3 -4)
1969/12/31/18:00:12.698,(18 60 30 10 0 -1 0 -1)
1969/12/31/18:00:12.698,(-22 -25 -24 -13 -7 -3 -5 -6)
1969/12/31/18:00:12.707,(-10 -25 -34 -32 -13 -3 0 0)
1969/12/31/18:00:12.707,(27 63 47 37 14 4 -2 5)
1969/12/31/18:00:12.723,(-23 -43 3 12 6 0 6 1)
1969/12/31/18:00:12.723,(8 19 6 -3 -1 -6 5 7)
1969/12/31/18:00:12.725,(-10 5 18 6 2 -5 2 -3)
1969/12/31/18:00:12.725,(-1 4 -17 -14 -4 -4 4 4)
1969/12/31/18:00:12.749,(-3 -21 -37 -22 -4 -2 0 2)
1969/12/31/18:00:12.749,(-3 -19 -4 6 -2 -2 -3 -3)
1969/12/31/18:00:12.751,(-24 -40 -59 -45 -18 -10 -11 -8)
1969/12/31/18:00:12.751,(21 24 41 36 16 9 2 2)
1969/12/31/18:00:12.755,(3 18 32 28 10 8 1 -1)
1969/12/31/18:00:12.755,(0 -16 -17 -8 -4 0 -2 2)
1969/12/31/18:00:12.763,(4 12 7 11 0 1 -2 -4)
1969/12/31/18:00:12.763,(-11 -26 -25 -21 -11 -6 -3 -3)
1969/12/31/18:00:12.781,(-1 -15 -22 -14 -5 -4 1 4)
1969/12/31/18:00:12.781,(1 8 6 2 2 0 3 2)
1969/12/31/18:00:12.782,(2 4 17 7 1 -1 -3 -3)
1969/12/31/18:00:12.782,(-6 6 0 -4 -3 -2 -3 -5)
1969/12/31/18:00:12.796,(10 13 21 6 -1 3 -3 -2)
1969/12/31/18:00:12.796,(1 3 0 -1 0 4 -7 -4)
1969/12/31/18:00:12.806,(0 -1 13 10 3 4 -7 -4)
1969/12/31/18:00:12.806,(-3 -11 -4 -1 0 4 -5 -5)
1969/12/31/18:00:12.821,(-7 -11 -12 -12 -5 2 -5 -2)
1969/12/31/18:00:12.821,(2 8 -2 -2 -1 2 -4 -4)
1969/12/31/18:00:12.829,(-5 -10 9 8 3 5 -4 -8)
1969/12/31/18:00:12.829,(-6 -8 -1 -6 -4 3 -3 3)
1969/12/31/18:00:12.846,(0 -3 -1 -3 -2 5 -1 4)
1969/12/31/18:00:12.846,(1 11 3 0 -2 -5 1 -8)
1969/12/31/18:00:12.848,(-1 -5 1 6 2 -16 7 6)
1969/12/31/18:00:12.848,(-7 -3 -18 -9 -3 -23 9 1)
1969/12/31/18:00:12.861,(-1 0 -12 -4 2 -22 11 10)
1969/12/31/18:00:12.861,(0 0 -19 -10 1 -18 9 10)
1969/12/31/18:00:12.872,(-6 -20 -19 -8 1 -13 11 9)
1969/12/31/18:00:12.872,(2 27 1 -1 1 -6 6 5)
1969/12/31/18:00:12.887,(-2 -5 -7 -4 0 0 2 1)
1969/12/31/18:00:12.887,(-1 -3 -8 -8 -7 7 -1 0)
1969/12/31/18:00:12.894,(-1 -6 2 2 0 13 -3 -1)
1969/12/31/18:00:12.894,(-3 -6 -6 -8 -3 15 -7 -4)
1969/12/31/18:00:12.912,(5 6 16 4 0 16 -6 -6)
1969/12/31/18:00:12.913,(1 -3 -1 0 1 12 -10 -7)
1969/12/31/18:00:12.914,(1 2 13 5 2 8 -7 -5)
1969/12/31/18:00:12.914,(-1 -11 6 4 -1 0 -7 -7)
1969/12/31/18:00:12.928,(-1 -2 -2 -3 -4 -3 -7 -8)
1969/12/31/18:00:12.928,(-3 -8 0 0 -2 -1 -4 -4)
1969/12/31/18:00:12.945,(3 7 17 6 -3 3 -7 -3)
1969/12/31/18:00:12.945,(-2 -9 -4 -4 0 4 -4 -5)
1969/12/31/18:00:12.953,(-2 -3 -1 0 -4 -1 -2 -4)
1969/12/31/18:00:12.953,(2 11 10 9 1 -2 2 1)
1969/12/31/18:00:12.959,(1 1 3 3 -1 -3 2 -1)
1969/12/31/18:00:12.959,(-1 -3 -4 -4 -2 -2 1 1)
1969/12/31/18:00:12.977,(-3 -2 -5 -6 -1 -3 2 0)
1969/12/31/18:00:12.977,(2 2 2 2 4 -1 2 4)
1969/12/31/18:00:12.985,(-1 2 -2 -2 -1 -3 0 1)
1969/12/31/18:00:12.985,(-5 -5 -4 -1 2 -2 -1 1)
1969/12/31/18:00:13.002,(-2 -5 -3 -3 0 0 -1 -2)
1969/12/31/18:00:13.003,(1 3 2 0 -2 -1 -1 0)
1969/12/31/18:00:13.004,(0 -3 -9 -8 -4 -2 -3 -2)
1969/12/31/18:00:13.004,(0 -6 2 5 1 -1 1 -1)
1969/12/31/18:00:13.019,(-2 1 -4 0 -1 -3 -2 -2)
1969/12/31/18:00:13.019,(0 7 6 7 1 -1 2 3)
1969/12/31/18:00:13.026,(2 8 6 4 2 -5 -2 -4)
1969/12/31/18:00:13.026,(-4 -6 -6 1 -2 -3 1 1)
1969/12/31/18:00:13.043,(-1 -5 -7 -4 -2 -5 2 3)
1969/12/31/18:00:13.043,(-4 -11 -8 -6 -5 -4 6 6)
1969/12/31/18:00:13.050,(0 8 1 1 -1 0 0 -1)
1969/12/31/18:00:13.050,(-4 -5 -6 -2 -3 -1 1 -3)
1969/12/31/18:00:13.058,(-2 -1 3 1 -2 -3 -1 -2)
1969/12/31/18:00:13.059,(1 0 -4 -11 -50 -32 -7 0)
1969/12/31/18:00:13.068,(-2 -7 -3 3 51 35 3 2)
1969/12/31/18:00:13.068,(-6 -3 -3 -5 -4 0 2 3)
1969/12/31/18:00:13.084,(-2 -1 -2 2 8 8 0 -1)
1969/12/31/18:00:13.084,(0 3 1 2 3 2 -1 -4)
1969/12/31/18:00:13.100,(-1 -6 -4 -4 -25 -19 0 0)
1969/12/31/18:00:13.100,(0 3 2 2 2 1 -3 -2)
1969/12/31/18:00:13.109,(1 -1 -1 1 -2 -1 -1 -1)
1969/12/31/18:00:13.109,(-1 -2 1 -1 -1 0 -3 -3)
1969/12/31/18:00:13.116,(-2 -1 -1 -1 -7 -3 -1 -3)
1969/12/31/18:00:13.116,(-1 -1 -1 0 4 4 0 -2)
1969/12/31/18:00:13.124,(0 -2 2 0 -8 -5 -3 -1)
1969/12/31/18:00:13.124,(3 4 5 4 12 8 -1 -3)
1969/12/31/18:00:13.134,(-2 -7 -3 -4 -5 -2 -3 -3)
1969/12/31/18:00:13.134,(-1 0 -3 -5 -3 -2 -5 -3)
1969/12/31/18:00:13.150,(-1 -3 2 0 -2 -2 -1 -3)
1969/12/31/18:00:13.150,(-1 -1 1 1 11 6 -1 -2)
1969/12/31/18:00:13.158,(-3 -4 -6 -5 -6 -3 -3 -1)
1969/12/31/18:00:13.158,(-1 -1 0 -1 -6 -6 -4 -3)
1969/12/31/18:00:13.176,(-3 1 -4 -3 2 2 -1 -1)
1969/12/31/18:00:13.176,(-2 -1 -3 2 9 6 -1 -1)
1969/12/31/18:00:13.191,(-1 0 -2 1 -9 -5 1 -1)
1969/12/31/18:00:13.191,(0 1 -2 -1 -2 -4 0 1)
1969/12/31/18:00:13.208,(-2 -3 1 -1 2 0 0 2)
1969/12/31/18:00:13.208,(-1 1 0 1 1 0 1 0)
1969/12/31/18:00:13.209,(-1 0 1 -2 -5 -3 0 1)
1969/12/31/18:00:13.209,(-1 0 0 1 0 1 1 0)
1969/12/31/18:00:13.225,(-3 0 -1 0 1 -1 -1 0)
1969/12/31/18:00:13.225,(-1 -2 -2 2 0 0 -1 -1)
1969/12/31/18:00:13.227,(-2 -3 -1 -2 -2 -1 -2 -3)
1969/12/31/18:00:13.227,(1 1 2 4 0 -1 -2 0)
1969/12/31/18:00:13.240,(-1 0 -1 1 -6 -3 -1 -3)
1969/12/31/18:00:13.240,(0 1 -1 1 3 1 -2 -1)
1969/12/31/18:00:13.248,(-1 0 -2 1 1 -2 0 2)
1969/12/31/18:00:13.248,(-1 -2 0 0 -1 0 1 -2)
1969/12/31/18:00:13.274,(-1 -1 -2 -5 -4 -3 -2 0)
1969/12/31/18:00:13.274,(-2 -1 0 -3 1 0 -2 0)
1969/12/31/18:00:13.275,(-1 -2 1 0 0 -2 0 -1)
1969/12/31/18:00:13.276,(-2 -1 -1 -3 -2 -1 -1 -2)
1969/12/31/18:00:13.282,(-1 2 4 3 4 0 0 -1)
1969/12/31/18:00:13.282,(-1 0 -1 -3 3 0 -1 -1)
1969/12/31/18:00:13.289,(0 0 0 0 -1 -3 -1 1)
1969/12/31/18:00:13.289,(-2 0 -1 -5 -2 -2 -1 -2)
1969/12/31/18:00:13.306,(0 -2 -2 -4 -2 0 -2 0)
1969/12/31/18:00:13.306,(-2 -1 0 -4 -1 0 1 -2)
1969/12/31/18:00:13.314,(-2 -1 -1 -2 1 -1 -2 -1)
1969/12/31/18:00:13.314,(-1 -1 -1 -2 0 1 1 0)
1969/12/31/18:00:13.332,(-1 -1 -1 3 2 1 0 -1)
1969/12/31/18:00:13.332,(-1 -2 -1 -1 0 -2 -2 0)
1969/12/31/18:00:13.339,(-1 0 -1 0 0 -1 0 -1)
1969/12/31/18:00:13.339,(1 0 -1 -2 -1 -1 0 -2)
1969/12/31/18:00:13.348,(-1 -1 0 -1 -2 0 0 -1)
1969/12/31/18:00:13.348,(-2 -4 -5 0 -1 -2 -2 -3)
1969/12/31/18:00:13.355,(-1 -2 -2 -2 0 1 0 0)
1969/12/31/18:00:13.355,(-1 2 4 3 1 -2 -1 2)
1969/12/31/18:00:13.372,(-2 -1 -3 -2 -1 -3 -1 -1)
1969/12/31/18:00:13.372,(-1 -1 -3 -4 0 1 -2 -1)
1969/12/31/18:00:13.379,(1 0 1 -1 -2 0 -2 -2)
1969/12/31/18:00:13.379,(-2 -1 -1 -2 0 1 -2 -2)
1969/12/31/18:00:13.397,(-1 -1 -2 -3 -2 0 0 -1)
1969/12/31/18:00:13.397,(-2 1 1 0 0 -1 -1 0)
1969/12/31/18:00:13.399,(-1 -2 -3 -1 -1 -2 -1 0)
1969/12/31/18:00:13.399,(-2 -2 -4 -1 -3 -4 -1 -1)
1969/12/31/18:00:13.413,(-1 -2 -1 0 -1 -1 0 -1)
1969/12/31/18:00:13.413,(-1 -1 -2 -2 -3 0 1 -2)
1969/12/31/18:00:13.421,(-2 -1 -1 -4 -4 -1 0 -1)
1969/12/31/18:00:13.421,(0 0 -2 -2 -1 0 -1 -1)
1969/12/31/18:00:13.421,(-3 -3 1 -1 -3 -4 -2 -2)
1969/12/31/18:00:13.421,(-13 -6 -12 -7 -4 -1 -5 -28)
1969/12/31/18:00:13.422,(12 3 2 -6 -2 -2 2 14)
1969/12/31/18:00:13.422,(-1 6 6 4 2 0 -1 -1)
1969/12/31/18:00:13.445,(-2 -4 1 -1 -1 2 -4 -7)
1969/12/31/18:00:13.445,(-7 -8 -11 -2 0 -1 -4 -18)
1969/12/31/18:00:13.446,(-4 -1 -11 -7 -3 -2 -1 -1)
1969/12/31/18:00:13.446,(-3 5 20 11 -2 -3 -9 -20)
1969/12/31/18:00:13.462,(1 3 7 9 2 4 4 13)
1969/12/31/18:00:13.462,(5 -2 2 -2 -4 -2 -2 6)
1969/12/31/18:00:13.463,(-1 -5 -7 -2 -1 -1 -6 -8)
1969/12/31/18:00:13.463,(-4 -11 -21 -22 -6 1 2 4)
1969/12/31/18:00:13.487,(-5 -7 -8 -10 -3 -3 1 -2)
1969/12/31/18:00:13.487,(10 18 21 22 7 0 0 8)
1969/12/31/18:00:13.488,(-3 0 9 -6 -1 3 2 4)
1969/12/31/18:00:13.488,(4 4 0 -5 -2 0 0 0)
1969/12/31/18:00:13.512,(-4 -2 4 22 5 -2 -6 -6)
1969/12/31/18:00:13.512,(-1 -6 -9 -8 -1 1 -1 1)
1969/12/31/18:00:13.513,(-1 -4 -3 6 -1 0 1 2)
1969/12/31/18:00:13.513,(-4 2 -6 -6 -6 -8 -10 -15)
1969/12/31/18:00:13.530,(-3 1 -7 -14 -4 -1 10 9)
1969/12/31/18:00:13.530,(6 4 -3 1 -1 -5 2 11)
1969/12/31/18:00:13.531,(-8 -8 -11 -6 -6 -6 1 -2)
1969/12/31/18:00:13.531,(-2 -5 -5 -8 -5 -5 -4 -2)
1969/12/31/18:00:13.553,(-3 -2 -4 0 1 -5 -3 -2)
1969/12/31/18:00:13.553,(-1 -3 0 -3 -3 -8 -10 -2)
1969/12/31/18:00:13.554,(4 6 2 -2 0 -3 -1 2)
1969/12/31/18:00:13.554,(-1 -4 -2 4 1 6 11 7)
1969/12/31/18:00:13.577,(5 6 11 2 -1 2 2 2)
1969/12/31/18:00:13.577,(-6 -4 2 -3 -4 6 1 -3)
1969/12/31/18:00:13.578,(-4 -2 4 -1 -4 0 -18 -27)
1969/12/31/18:00:13.578,(3 -1 4 6 1 4 -4 1)
1969/12/31/18:00:13.593,(2 1 6 2 0 1 -4 -4)
1969/12/31/18:00:13.593,(-1 -2 -1 -4 -2 1 -3 -2)
1969/12/31/18:00:13.594,(-1 -2 -4 0 0 3 5 5)
1969/12/31/18:00:13.594,(-2 -5 0 3 1 1 -3 -6)
1969/12/31/18:00:13.618,(1 4 0 -2 -1 -1 -4 -3)
1969/12/31/18:00:13.618,(2 -4 -4 -4 -2 -2 -1 1)
1969/12/31/18:00:13.620,(-3 -3 -11 -4 0 -4 0 0)
1969/12/31/18:00:13.620,(-1 1 8 5 1 -5 4 3)
1969/12/31/18:00:13.651,(-2 -4 -4 -4 -1 -5 0 4)
1969/12/31/18:00:13.652,(7 -11 -27 -9 -3 -3 3 7)
1969/12/31/18:00:13.652,(-2 37 47 12 5 1 8 4)
1969/12/31/18:00:13.652,(-4 -4 -8 -1 2 0 -8 -1)
1969/12/31/18:00:13.659,(-3 -6 -4 -2 -2 0 1 1)
1969/12/31/18:00:13.659,(0 -1 2 1 0 1 4 4)
1969/12/31/18:00:13.660,(3 -6 -13 -4 -4 -1 2 -3)
1969/12/31/18:00:13.660,(-5 -15 -11 -2 2 -2 -9 -4)
1969/12/31/18:00:13.684,(-2 10 7 1 -1 -2 0 -8)
1969/12/31/18:00:13.684,(-7 -12 -11 -5 -1 -2 -4 2)
1969/12/31/18:00:13.685,(7 -7 -9 2 5 -1 -9 -9)
1969/12/31/18:00:13.685,(4 8 -1 -3 -5 -4 7 17)
1969/12/31/18:00:13.708,(-4 -14 -16 -6 -3 -1 -1 -4)
1969/12/31/18:00:13.708,(10 12 12 7 2 5 6 -2)
1969/12/31/18:00:13.709,(-14 -18 -11 -4 -4 -7 -8 -7)
1969/12/31/18:00:13.709,(-3 24 17 5 4 -1 2 -5)
1969/12/31/18:00:13.724,(3 3 0 -4 -1 -1 6 5)
1969/12/31/18:00:13.724,(4 -1 2 -3 -2 -3 12 20)
1969/12/31/18:00:13.734,(-18 -17 -10 -3 -3 -1 -3 1)
1969/12/31/18:00:13.734,(5 -3 -6 -1 -3 3 -8 -11)
1969/12/31/18:00:13.750,(-5 -1 -3 -2 -2 -4 -11 4)
1969/12/31/18:00:13.750,(-13 -2 0 1 -2 -2 4 5)
1969/12/31/18:00:13.751,(10 3 -3 0 3 3 12 18)
1969/12/31/18:00:13.751,(-2 2 -1 -3 -3 -1 -7 -15)
1969/12/31/18:00:13.774,(-14 1 11 3 2 8 -5 -23)
1969/12/31/18:00:13.774,(17 0 1 -2 -1 -12 -21 -4)
1969/12/31/18:00:13.775,(-18 -11 -9 -3 1 -5 -11 -14)
1969/12/31/18:00:13.775,(-18 1 -9 -2 6 -12 13 7)
1969/12/31/18:00:13.789,(41 20 -1 6 15 35 1 -13)
1969/12/31/18:00:13.789,(-7 0 -1 -3 -14 -44 -3 21)
1969/12/31/18:00:13.799,(-10 -16 6 -7 -18 9 -8 -13)
1969/12/31/18:00:13.799,(22 7 19 6 -3 6 -41 -31)
1969/12/31/18:00:13.817,(-1 -2 18 6 -5 11 2 -15)
1969/12/31/18:00:13.817,(-11 0 7 1 0 20 -6 -26)
1969/12/31/18:00:13.818,(27 16 11 6 3 10 7 14)
1969/12/31/18:00:13.818,(-6 -14 -1 0 -1 -2 4 4)
1969/12/31/18:00:13.840,(-8 -8 -13 -9 -9 -14 -4 13)
1969/12/31/18:00:13.840,(23 7 8 6 8 11 9 2)
1969/12/31/18:00:13.841,(-4 -1 2 4 8 -3 2 13)
1969/12/31/18:00:13.841,(25 6 -13 -10 1 17 5 -3)
1969/12/31/18:00:13.855,(-89 -51 -17 -10 -10 -28 -6 -20)
1969/12/31/18:00:13.855,(20 8 -6 -5 -2 0 3 14)
1969/12/31/18:00:13.865,(9 3 -5 1 2 1 -2 11)
1969/12/31/18:00:13.865,(15 9 2 0 1 -7 17 39)
1969/12/31/18:00:13.882,(29 11 5 5 -2 -2 -6 -15)
1969/12/31/18:00:13.882,(-18 -10 -5 -3 -1 -1 -3 -10)
1969/12/31/18:00:13.883,(-17 -2 -6 -3 -4 4 11 -20)
1969/12/31/18:00:13.883,(-4 -8 -2 2 -2 -7 1 12)
1969/12/31/18:00:13.906,(48 22 6 10 3 -1 17 73)
1969/12/31/18:00:13.906,(-73 -22 -5 4 0 -7 -20 -58)
1969/12/31/18:00:13.907,(28 21 5 7 6 1 -15 -5)
1969/12/31/18:00:13.907,(9 4 -7 -9 -8 -16 15 21)
1969/12/31/18:00:13.922,(-24 -18 -3 -6 2 29 15 -18)
1969/12/31/18:00:13.922,(26 4 -3 -5 -2 12 8 11)
1969/12/31/18:00:13.931,(-13 -8 -5 -7 -1 10 23 19)
1969/12/31/18:00:13.931,(-13 4 4 2 9 24 -9 -3)
1969/12/31/18:00:13.947,(28 15 5 1 -4 -43 41 65)
1969/12/31/18:00:13.947,(-18 -5 2 -5 1 11 8 -4)
1969/12/31/18:00:13.947,(-9 -7 -12 -13 -8 -4 -48 -67)
1969/12/31/18:00:13.947,(-29 -11 1 0 -5 -23 7 -27)
1969/12/31/18:00:13.972,(12 14 2 -2 -2 -15 -20 -7)
1969/12/31/18:00:13.972,(-14 -17 -3 -2 0 14 11 3)
1969/12/31/18:00:13.973,(8 -4 8 8 0 -11 3 12)
1969/12/31/18:00:13.973,(-1 -1 -6 -5 -7 -10 -16 -18)
1969/12/31/18:00:13.987,(-4 9 2 1 8 22 -9 -57)
1969/12/31/18:00:13.988,(-12 -20 -13 -11 -13 -39 -11 -33)
1969/12/31/18:00:13.997,(3 11 9 6 17 60 22 34)
1969/12/31/18:00:13.997,(5 4 1 2 -6 -11 -9 -8)
1969/12/31/18:00:14.022,(9 -7 -7 -8 1 38 15 9)
1969/12/31/18:00:14.022,(42 24 12 15 11 3 -32 27)
1969/12/31/18:00:14.023,(-17 -10 -7 -6 -11 -46 -8 -23)
1969/12/31/18:00:14.023,(-30 -11 1 3 0 -10 7 21)
1969/12/31/18:00:14.037,(-9 -2 -3 -5 -10 -3 -28 -68)
1969/12/31/18:00:14.037,(71 33 11 4 0 -13 29 70)
1969/12/31/18:00:14.038,(-39 -43 -23 -9 -8 11 -2 -10)
1969/12/31/18:00:14.038,(-13 -14 -3 -4 -2 21 -4 0)
1969/12/31/18:00:14.053,(20 12 1 2 -2 -31 -36 37)
1969/12/31/18:00:14.054,(-7 -7 -5 -3 -4 5 10 -2)
1969/12/31/18:00:14.063,(0 14 8 8 4 10 27 23)
1969/12/31/18:00:14.063,(-27 -24 -13 -9 -9 -33 -33 -47)
1969/12/31/18:00:14.079,(10 6 6 6 9 10 11 35)
1969/12/31/18:00:14.079,(-4 1 3 -2 -4 14 -12 -21)
1969/12/31/18:00:14.079,(18 25 14 12 15 -20 -5 39)
1969/12/31/18:00:14.079,(-7 -11 -8 -3 -3 32 31 -9)
1969/12/31/18:00:14.103,(-34 -16 -8 -9 -10 -50 17 12)
1969/12/31/18:00:14.103,(23 8 4 5 10 40 -29 4)
1969/12/31/18:00:14.104,(-13 -6 -1 -2 -8 -37 -12 -25)
1969/12/31/18:00:14.104,(33 19 9 8 8 32 26 6)
1969/12/31/18:00:14.128,(-3 -2 -6 -5 -5 -11 -30 -20)
1969/12/31/18:00:14.128,(-7 2 1 1 4 -7 5 9)
1969/12/31/18:00:14.136,(16 -3 0 -2 2 -1 18 42)
1969/12/31/18:00:14.136,(37 9 -3 -3 -4 -18 -1 39)
1969/12/31/18:00:14.145,(31 13 5 2 -2 -7 10 20)
1969/12/31/18:00:14.145,(-43 -16 -5 -2 -2 7 -16 -33)
1969/12/31/18:00:14.145,(40 20 11 8 -1 -36 17 69)
1969/12/31/18:00:14.145,(-37 -11 -8 -6 2 54 29 -42)
1969/12/31/18:00:14.169,(-11 -7 3 7 9 26 10 35)
1969/12/31/18:00:14.169,(3 8 0 -2 3 -14 -5 -15)
1969/12/31/18:00:14.170,(-19 -4 -4 -6 -22 -16 5 -61)
1969/12/31/18:00:14.170,(1 -6 -6 -7 -13 -29 -32 -3)
1969/12/31/18:00:14.194,(-15 -7 4 1 0 18 25 5)
1969/12/31/18:00:14.194,(-39 -24 -7 -7 -4 10 -12 -37)
1969/12/31/18:00:14.195,(4 5 3 0 6 -66 -21 -6)
1969/12/31/18:00:14.195,(14 6 2 -1 -7 6 -2 10)
1969/12/31/18:00:14.211,(-24 -2 -3 -2 -10 -36 -15 -35)
1969/12/31/18:00:14.211,(46 6 -4 0 -4 -30 16 54)
1969/12/31/18:00:14.211,(-23 -10 -15 -27 -5 34 -20 -32)
1969/12/31/18:00:14.212,(0 3 2 -2 -1 21 7 -3)
1969/12/31/18:00:14.235,(9 9 6 24 -6 -91 14 -38)
1969/12/31/18:00:14.235,(4 4 5 14 34 28 9 4)
1969/12/31/18:00:14.236,(-11 -12 -3 9 2 65 -14 -20)
1969/12/31/18:00:14.236,(26 7 -5 -15 6 4 -15 3)
1969/12/31/18:00:14.260,(-61 -29 -16 -18 -21 -17 -16 -56)
1969/12/31/18:00:14.261,(10 2 12 24 25 38 73 43)
1969/12/31/18:00:14.261,(-21 1 -3 -16 -36 -41 -57 -66)
1969/12/31/18:00:14.261,(-13 2 8 15 8 -4 27 3)
1969/12/31/18:00:14.276,(42 25 11 8 17 61 -22 16)
1969/12/31/18:00:14.276,(-21 -21 -11 -16 -22 -46 -3 0)
1969/12/31/18:00:14.276,(16 8 -8 -17 -9 1 25 0)
1969/12/31/18:00:14.276,(1 -5 -10 -13 -11 19 -19 1)
1969/12/31/18:00:14.300,(-17 -4 10 26 33 22 -18 -18)
1969/12/31/18:00:14.300,(-32 -4 -5 -4 -9 32 25 -16)
1969/12/31/18:00:14.302,(24 6 3 12 13 25 15 25)
1969/12/31/18:00:14.302,(7 5 0 -15 -5 33 -3 5)
1969/12/31/18:00:14.328,(22 13 3 2 -11 -53 2 18)
1969/12/31/18:00:14.328,(-4 -2 -3 -19 -24 -66 24 18)
1969/12/31/18:00:14.329,(-7 -22 -7 26 39 79 -49 -33)
1969/12/31/18:00:14.329,(-21 0 5 12 4 -23 8 -7)
1969/12/31/18:00:14.342,(3 -4 -4 -15 -23 -17 7 23)
1969/12/31/18:00:14.342,(-7 -13 -7 -14 -4 11 -37 -42)
1969/12/31/18:00:14.342,(-12 -4 -6 -3 13 11 11 13)
1969/12/31/18:00:14.342,(11 2 4 3 -13 -63 3 -8)
1969/12/31/18:00:14.366,(-3 -4 -12 -44 -30 36 -57 -25)
1969/12/31/18:00:14.366,(0 10 4 21 13 7 7 -17)
1969/12/31/18:00:14.367,(8 2 6 20 20 10 40 37)
1969/12/31/18:00:14.367,(-6 -8 4 20 38 12 -12 -7)
1969/12/31/18:00:14.391,(-5 -9 -6 2 16 20 10 13)
1969/12/31/18:00:14.391,(-5 6 -3 -17 -25 5 20 -9)
1969/12/31/18:00:14.399,(-2 0 0 -5 -24 -29 -24 2)
1969/12/31/18:00:14.399,(-7 -2 -5 -7 -5 -21 -1 17)
1969/12/31/18:00:14.408,(-1 -11 -10 -6 -11 4 19 -7)
1969/12/31/18:00:14.408,(-5 7 6 9 5 -37 -42 -22)
1969/12/31/18:00:14.408,(11 9 9 12 21 -39 12 15)
1969/12/31/18:00:14.408,(-7 -7 -6 -14 -37 20 13 4)
1969/12/31/18:00:14.434,(-8 -11 -10 -14 -6 13 19 1)
1969/12/31/18:00:14.434,(2 5 5 12 54 93 10 14)
1969/12/31/18:00:14.434,(-21 -18 -2 8 19 18 -8 -45)
1969/12/31/18:00:14.434,(13 1 -5 -18 -80 -86 -21 -1)
1969/12/31/18:00:14.457,(-12 -10 -6 -4 -13 -39 -50 -11)
1969/12/31/18:00:14.457,(10 5 5 19 8 -13 2 31)
1969/12/31/18:00:14.458,(9 7 -1 -11 41 60 32 23)
1969/12/31/18:00:14.458,(-1 1 4 25 60 37 7 12)
1969/12/31/18:00:14.474,(-1 -1 -2 -7 -76 -54 -3 -7)
1969/12/31/18:00:14.474,(13 2 -7 -22 -45 -41 -18 7)
1969/12/31/18:00:14.474,(6 0 -3 -9 -8 27 38 19)
1969/12/31/18:00:14.474,(-12 -7 -3 -9 -31 -61 -37 -22)
1969/12/31/18:00:14.498,(4 8 14 29 77 50 11 4)
1969/12/31/18:00:14.498,(1 5 -13 -12 -29 -30 -25 -28)
1969/12/31/18:00:14.499,(5 -13 -8 -27 -54 -19 16 41)
1969/12/31/18:00:14.499,(3 21 18 18 24 39 9 5)
1969/12/31/18:00:14.523,(8 -21 -19 -11 5 1 5 -13)
1969/12/31/18:00:14.523,(17 33 62 41 50 46 13 30)
1969/12/31/18:00:14.524,(-12 -48 -67 -15 -10 -18 -19 -54)
1969/12/31/18:00:14.524,(-15 11 27 1 0 5 12 8)
1969/12/31/18:00:14.548,(45 49 28 22 11 10 -21 30)
1969/12/31/18:00:14.548,(-11 -48 -40 -32 -13 -18 -32 -67)
1969/12/31/18:00:14.549,(-8 27 69 35 8 -1 14 31)
1969/12/31/18:00:14.549,(16 -2 0 17 51 28 17 32)
1969/12/31/18:00:14.564,(4 -36 -30 -8 -4 25 23 7)
1969/12/31/18:00:14.564,(-29 -1 -47 -24 -29 -43 -18 -36)
1969/12/31/18:00:14.565,(-41 -18 0 -13 -4 -29 -32 -33)
1969/12/31/18:00:14.565,(-17 17 36 16 -28 -33 -17 -32)
1969/12/31/18:00:14.589,(0 21 23 -3 5 38 28 18)
1969/12/31/18:00:14.589,(-4 -16 -1 5 15 -4 -20 11)
1969/12/31/18:00:14.590,(27 -40 -73 -18 -24 -4 28 14)
1969/12/31/18:00:14.590,(11 62 72 25 40 28 8 -22)
1969/12/31/18:00:14.605,(-3 -83 -77 -25 -15 -7 6 24)
1969/12/31/18:00:14.605,(-52 34 41 4 0 4 9 -67)
1969/12/31/18:00:14.605,(14 45 20 4 9 -4 -32 0)
1969/12/31/18:00:14.605,(-6 23 53 17 3 11 3 29)
1969/12/31/18:00:14.629,(25 28 -15 -8 9 6 -19 -19)
1969/12/31/18:00:14.629,(44 -70 -67 -16 44 37 36 61)
1969/12/31/18:00:14.638,(15 -16 -22 0 -46 -60 -4 63)
1969/12/31/18:00:14.638,(32 -52 -62 -1 19 24 5 14)
1969/12/31/18:00:14.663,(-74 92 113 -2 -86 -50 -27 -43)
1969/12/31/18:00:14.663,(5 -33 -38 -18 -22 -15 -7 -32)
1969/12/31/18:00:14.665,(32 30 29 -1 -1 21 14 27)
1969/12/31/18:00:14.665,(17 63 49 45 55 11 -13 -9)
1969/12/31/18:00:14.671,(109 -57 -55 18 53 46 33 90)
1969/12/31/18:00:14.671,(7 -3 -9 -7 17 14 -1 47)
1969/12/31/18:00:14.671,(-31 5 28 37 66 43 -9 -7)
1969/12/31/18:00:14.671,(-52 -66 -39 -58 -116 -103 -54 -84)
1969/12/31/18:00:14.696,(33 23 -35 -32 32 17 -1 19)
1969/12/31/18:00:14.696,(-27 57 67 25 1 -11 25 -9)
1969/12/31/18:00:14.697,(-7 1 2 5 42 30 -16 0)
1969/12/31/18:00:14.697,(-18 -30 -45 -9 -1 9 -5 -56)
1969/12/31/18:00:14.720,(-29 -112 -90 -23 -21 -10 16 45)
1969/12/31/18:00:14.720,(7 81 35 -3 -3 10 -27 -70)
1969/12/31/18:00:14.722,(0 72 51 34 -6 -1 36 23)
1969/12/31/18:00:14.722,(6 -8 -15 21 90 52 -2 15)
1969/12/31/18:00:14.736,(-9 -29 -7 -4 -51 1 5 -30)
1969/12/31/18:00:14.736,(31 -101 -61 -6 -1 6 31 54)
1969/12/31/18:00:14.745,(-19 -28 -11 -13 -34 -82 -50 -66)
1969/12/31/18:00:14.745,(56 -64 -128 -94 -93 -32 9 55)
1969/12/31/18:00:14.762,(-95 116 110 61 34 22 14 -79)
1969/12/31/18:00:14.762,(56 10 -4 25 54 46 -1 51)
1969/12/31/18:00:14.762,(-12 5 -18 -30 -73 -35 -3 -40)
1969/12/31/18:00:14.762,(-28 -21 -17 1 14 -3 3 -21)
1969/12/31/18:00:14.787,(67 -43 -28 -7 37 16 4 9)
1969/12/31/18:00:14.787,(-23 -17 -23 19 11 12 20 41)
1969/12/31/18:00:14.787,(-2 40 29 -25 -22 20 7 -24)
1969/12/31/18:00:14.787,(-13 -56 -49 -26 -3 -13 4 20)
1969/12/31/18:00:14.802,(-28 41 41 14 -31 -44 -16 -5)
1969/12/31/18:00:14.802,(2 -2 -7 -8 -22 -33 -43 -30)
1969/12/31/18:00:14.810,(35 13 29 35 51 43 2 16)
1969/12/31/18:00:14.810,(6 17 -22 -30 -92 -67 4 -6)
1969/12/31/18:00:14.828,(-67 -30 32 4 31 16 -7 21)
1969/12/31/18:00:14.828,(-21 25 -8 -6 2 -20 -8 -34)
1969/12/31/18:00:14.829,(-17 -17 -37 -17 -13 17 5 3)
1969/12/31/18:00:14.829,(19 91 108 43 20 52 16 -12)
1969/12/31/18:00:14.854,(0 -82 -58 -10 16 -36 1 -8)
1969/12/31/18:00:14.854,(-11 -111 -105 -56 -53 -28 -40 -12)
1969/12/31/18:00:14.855,(-19 60 58 24 41 17 10 0)
1969/12/31/18:00:14.855,(-27 28 30 19 0 -8 -7 -6)
1969/12/31/18:00:14.867,(18 2 -51 -22 -26 -15 -21 -3)
1969/12/31/18:00:14.867,(-56 91 127 72 64 38 31 -28)
1969/12/31/18:00:14.877,(54 -100 -94 -24 -30 -14 -19 21)
1969/12/31/18:00:14.877,(26 -73 -89 -31 49 23 -7 36)
1969/12/31/18:00:14.893,(-59 61 56 9 -18 17 7 -45)
1969/12/31/18:00:14.893,(26 60 40 12 -49 -38 -15 -7)
1969/12/31/18:00:14.903,(41 -56 -69 -15 69 58 50 63)
1969/12/31/18:00:14.903,(-48 11 72 22 -47 -61 -38 -22)
1969/12/31/18:00:14.918,(21 42 19 2 -4 -5 5 -14)
1969/12/31/18:00:14.918,(8 -92 -60 -12 17 32 10 55)
1969/12/31/18:00:14.920,(32 53 40 5 -14 -33 10 1)
1969/12/31/18:00:14.920,(52 -71 -92 -31 4 35 -1 26)
1969/12/31/18:00:14.933,(-12 -49 -30 8 48 17 6 -1)
1969/12/31/18:00:14.933,(18 117 92 27 -24 -2 11 41)
1969/12/31/18:00:14.943,(-10 30 18 3 -7 -13 -19 -42)
1969/12/31/18:00:14.943,(-37 -48 -21 -8 0 1 27 -1)
1969/12/31/18:00:14.957,(11 1 7 -20 -39 -9 -32 4)
1969/12/31/18:00:14.957,(4 -34 -26 20 86 28 8 -11)
1969/12/31/18:00:14.968,(-4 -24 -29 -28 -113 -113 -46 -10)
1969/12/31/18:00:14.968,(-10 0 -20 -34 -37 -15 -18 8)
1969/12/31/18:00:14.984,(10 5 21 12 14 9 44 17)
1969/12/31/18:00:14.984,(-3 69 47 1 2 14 -10 -25)
1969/12/31/18:00:14.986,(2 34 22 7 30 48 33 28)
1969/12/31/18:00:14.986,(-43 -40 -9 20 37 8 -8 -42)
1969/12/31/18:00:14.999,(43 91 71 35 4 -19 -13 1)
1969/12/31/18:00:14.999,(-44 -99 -72 -40 -50 -9 13 -5)
1969/12/31/18:00:15.009,(47 -55 -28 -4 5 4 -4 -11)
1969/12/31/18:00:15.009,(28 99 21 9 27 21 24 0)
1969/12/31/18:00:15.034,(-23 -2 -1 4 15 33 9 -26)
1969/12/31/18:00:15.034,(-39 -11 29 11 -5 -12 -69 -40)
1969/12/31/18:00:15.035,(-15 -128 -107 -5 107 74 31 -4)
1969/12/31/18:00:15.035,(-28 27 -2 -30 -82 -72 -57 -56)
1969/12/31/18:00:15.051,(-42 50 30 0 -4 12 -21 -29)
1969/12/31/18:00:15.051,(33 -1 -37 -4 33 18 33 42)
1969/12/31/18:00:15.052,(35 -103 -90 -23 59 21 -24 23)
1969/12/31/18:00:15.052,(-13 99 101 62 -7 25 11 -25)
1969/12/31/18:00:15.065,(9 -12 -42 -26 -59 -66 -23 -25)
1969/12/31/18:00:15.065,(11 -5 26 1 -6 21 23 -2)
1969/12/31/18:00:15.075,(-26 -53 -15 15 17 -27 2 -5)
1969/12/31/18:00:15.075,(19 -42 -29 -22 -19 -33 -16 48)
1969/12/31/18:00:15.090,(-13 -59 -49 -21 20 17 11 1)
1969/12/31/18:00:15.090,(-23 -15 -19 -14 -21 -14 19 -17)
1969/12/31/18:00:15.098,(-20 113 80 15 13 31 -8 -3)
1969/12/31/18:00:15.098,(-10 17 38 27 34 16 -2 13)
1969/12/31/18:00:15.115,(-21 -55 -24 -27 -41 -13 13 -22)
1969/12/31/18:00:15.116,(43 40 -8 3 15 10 -25 52)
1969/12/31/18:00:15.117,(-17 17 28 7 25 11 -20 -22)
1969/12/31/18:00:15.117,(-10 -33 -14 -22 -82 -47 29 49)
1969/12/31/18:00:15.140,(20 -51 -66 -4 80 94 49 33)
1969/12/31/18:00:15.140,(-3 -55 -22 4 -35 -53 -7 0)
1969/12/31/18:00:15.143,(-7 69 19 -26 -95 -82 -26 -2)
1969/12/31/18:00:15.143,(2 78 84 60 115 105 24 -30)
1969/12/31/18:00:15.156,(24 -68 -69 -41 -44 -44 -17 14)
1969/12/31/18:00:15.156,(-27 -12 -13 -19 -25 -11 16 14)
1969/12/31/18:00:15.163,(-42 63 65 51 73 74 20 -21)
1969/12/31/18:00:15.163,(44 -38 -84 -33 -75 -76 -16 0)
1969/12/31/18:00:15.181,(-20 51 84 36 27 12 19 24)
1969/12/31/18:00:15.181,(-9 -33 -45 -48 -31 -8 -29 -86)
1969/12/31/18:00:15.183,(26 -51 -37 -20 -39 -35 10 36)
1969/12/31/18:00:15.183,(3 -31 -29 0 77 68 33 47)
1969/12/31/18:00:15.206,(13 2 -44 10 18 -12 -18 -9)
1969/12/31/18:00:15.206,(14 37 73 12 -54 -14 -19 8)
1969/12/31/18:00:15.207,(-8 58 53 22 64 56 39 28)
1969/12/31/18:00:15.207,(50 32 4 16 -50 -43 15 38)
1969/12/31/18:00:15.222,(-39 49 82 7 -53 -63 -42 -23)
1969/12/31/18:00:15.222,(7 -37 -38 3 40 14 61 69)
1969/12/31/18:00:15.229,(49 20 -27 -13 -2 3 -70 -37)
1969/12/31/18:00:15.229,(-49 -128 -44 -20 -12 4 50 14)
1969/12/31/18:00:15.247,(-26 43 15 -12 -20 -1 -41 -44)
1969/12/31/18:00:15.247,(51 66 4 2 -6 5 18 30)
1969/12/31/18:00:15.249,(-18 -77 -22 -13 -45 -40 11 4)
1969/12/31/18:00:15.249,(-14 9 1 13 66 30 -9 -6)
1969/12/31/18:00:15.272,(16 -7 -4 21 71 76 33 66)
1969/12/31/18:00:15.272,(-40 -2 25 -1 -54 -45 -29 -58)
1969/12/31/18:00:15.274,(26 19 -10 -8 -23 -21 -5 -40)
1969/12/31/18:00:15.274,(-11 -25 -2 -8 -4 -2 -28 -22)
1969/12/31/18:00:15.287,(4 -38 -22 5 44 67 13 5)
1969/12/31/18:00:15.287,(-1 89 50 14 11 -4 16 -7)
1969/12/31/18:00:15.295,(-49 -38 -24 -22 -80 -69 -22 16)
1969/12/31/18:00:15.295,(31 16 -2 4 71 45 -17 -26)
1969/12/31/18:00:15.314,(54 0 1 29 46 12 54 65)
1969/12/31/18:00:15.314,(-8 -38 11 -4 -59 -72 -77 -8)
1969/12/31/18:00:15.315,(-77 -13 -17 -56 -87 -52 -21 -59)
1969/12/31/18:00:15.315,(34 43 1 -3 36 30 29 -6)
1969/12/31/18:00:15.338,(-16 -22 -28 6 33 14 -21 10)
1969/12/31/18:00:15.338,(-4 17 13 16 24 47 42 19)
1969/12/31/18:00:15.339,(0 25 32 23 -2 -11 -7 -17)
1969/12/31/18:00:15.339,(-1 -24 -16 -19 -40 -26 -27 -9)
1969/12/31/18:00:15.353,(-8 -88 -73 -26 7 -16 -5 -8)
1969/12/31/18:00:15.353,(-5 9 14 12 3 2 1 -14)
1969/12/31/18:00:15.361,(29 101 50 17 14 53 55 88)
1969/12/31/18:00:15.361,(-19 25 33 36 81 47 -6 -28)
1969/12/31/18:00:15.380,(-12 -49 -22 -36 -118 -83 -6 -33)
1969/12/31/18:00:15.380,(10 -12 -45 -8 39 23 -7 11)
1969/12/31/18:00:15.381,(-2 -57 -49 -15 -3 -3 -19 -54)
1969/12/31/18:00:15.381,(-8 90 96 57 8 6 22 70)
1969/12/31/18:00:15.404,(11 11 -28 9 23 -13 -29 -14)
1969/12/31/18:00:15.404,(-23 31 36 -23 -57 -59 -50 -50)
1969/12/31/18:00:15.405,(1 -49 -36 -3 29 19 10 0)
1969/12/31/18:00:15.405,(-41 -87 -64 -36 -46 -27 23 -1)
1969/12/31/18:00:15.420,(35 77 26 22 50 30 -38 -28)
1969/12/31/18:00:15.420,(-63 -51 20 16 0 -3 1 -8)
1969/12/31/18:00:15.427,(64 83 15 8 0 -3 4 0)
1969/12/31/18:00:15.427,(-27 -49 -3 2 0 -4 -19 11)
1969/12/31/18:00:15.444,(16 17 -3 -4 17 19 20 -17)
1969/12/31/18:00:15.445,(-8 -25 -31 -8 1 -6 -15 -12)
1969/12/31/18:00:15.446,(9 9 17 1 -12 0 13 37)
1969/12/31/18:00:15.446,(50 11 -36 -12 -5 -11 2 29)
1969/12/31/18:00:15.469,(-27 -24 24 17 49 50 29 16)
1969/12/31/18:00:15.469,(4 -23 -37 -23 -50 -39 -31 -25)
1969/12/31/18:00:15.471,(-57 -8 18 0 -33 -22 16 -13)
1969/12/31/18:00:15.471,(58 58 9 -2 12 -3 -49 -39)
1969/12/31/18:00:15.485,(-6 11 14 1 -4 2 2 16)
1969/12/31/18:00:15.485,(-23 -4 -7 9 76 48 -1 -15)
1969/12/31/18:00:15.494,(5 -82 -63 -20 -52 -35 -2 1)
1969/12/31/18:00:15.494,(-10 12 -13 -22 -15 0 9 3)
1969/12/31/18:00:15.510,(-11 -32 -33 -34 -42 -30 -14 -13)
1969/12/31/18:00:15.510,(9 12 44 35 40 24 34 15)
1969/12/31/18:00:15.512,(-1 41 37 15 8 -9 -48 -12)
1969/12/31/18:00:15.512,(-6 -31 -22 -27 -34 -2 6 6)
1969/12/31/18:00:15.535,(13 -23 -25 -7 -29 -31 -1 -19)
1969/12/31/18:00:15.535,(14 27 20 -13 20 41 46 34)
1969/12/31/18:00:15.536,(30 15 8 17 29 -1 -9 11)
1969/12/31/18:00:15.536,(31 19 12 -1 -64 -42 -15 5)
1969/12/31/18:00:15.551,(-49 -49 -11 15 74 42 -3 -6)
1969/12/31/18:00:15.551,(16 -19 -63 -28 -62 -61 -5 -12)
1969/12/31/18:00:15.560,(15 -28 -26 -21 -20 9 -12 9)
1969/12/31/18:00:15.560,(-17 24 67 11 8 2 -6 -1)
1969/12/31/18:00:15.577,(43 23 -17 -16 -44 -33 6 33)
1969/12/31/18:00:15.577,(33 45 44 40 67 50 17 36)
1969/12/31/18:00:15.578,(-24 -18 -1 -28 24 26 15 -1)
1969/12/31/18:00:15.578,(-16 -31 -25 39 19 -1 15 10)
1969/12/31/18:00:15.601,(-7 29 16 8 -3 -2 -16 -30)
1969/12/31/18:00:15.601,(4 -39 -43 -8 5 4 -3 -12)
1969/12/31/18:00:15.602,(-36 -4 19 6 -3 -5 -1 -13)
1969/12/31/18:00:15.602,(15 18 5 -7 10 8 2 -21)
1969/12/31/18:00:15.616,(-27 39 52 23 5 12 5 8)
1969/12/31/18:00:15.616,(-3 -30 -32 -18 -16 6 20 35)
1969/12/31/18:00:15.626,(-25 -17 -6 -7 -27 -37 -29 -25)
1969/12/31/18:00:15.626,(76 25 -12 -1 29 15 6 16)
1969/12/31/18:00:15.643,(-13 -2 15 -6 -28 -16 -4 3)
1969/12/31/18:00:15.643,(20 -9 -31 -37 -30 -4 3 11)
1969/12/31/18:00:15.644,(-29 -1 10 16 46 49 -11 -42)
1969/12/31/18:00:15.644,(-32 2 14 42 35 -27 -11 -7)
1969/12/31/18:00:15.667,(48 23 5 -25 -53 -24 -5 5)
1969/12/31/18:00:15.667,(-68 -41 -17 49 43 8 -7 -30)
1969/12/31/18:00:15.668,(15 16 14 10 9 12 13 8)
1969/12/31/18:00:15.668,(1 -2 -13 -17 -6 5 -11 -17)
1969/12/31/18:00:15.682,(7 -23 2 -10 -16 -11 6 29)
1969/12/31/18:00:15.682,(-18 6 -3 -17 -4 6 -6 -13)
1969/12/31/18:00:15.692,(13 1 5 8 0 -6 32 21)
1969/12/31/18:00:15.692,(-20 -10 -10 -14 -1 6 4 -21)
1969/12/31/18:00:15.708,(47 20 2 -6 -11 -24 7 71)
1969/12/31/18:00:15.708,(47 11 5 -2 -2 38 29 22)
1969/12/31/18:00:15.710,(-58 -36 -21 -7 -4 -33 -25 4)
1969/12/31/18:00:15.710,(11 1 2 -7 6 41 38 22)
1969/12/31/18:00:15.733,(45 43 24 15 7 -16 -20 15)
1969/12/31/18:00:15.733,(-83 -41 -20 -17 -13 -43 10 -55)
1969/12/31/18:00:15.734,(18 0 -9 -23 -4 32 -15 -39)
1969/12/31/18:00:15.735,(-25 -13 4 45 32 -8 0 -2)
1969/12/31/18:00:15.748,(5 14 7 0 0 12 -7 -19)
1969/12/31/18:00:15.748,(70 39 10 -4 -19 21 13 60)
1969/12/31/18:00:15.758,(-22 -23 -7 9 7 -29 -6 -22)
1969/12/31/18:00:15.758,(-108 -54 -15 -11 0 13 -17 -27)
1969/12/31/18:00:15.773,(-11 -2 -4 -6 2 6 -2 -53)
1969/12/31/18:00:15.774,(23 8 -1 1 -8 -24 -14 16)
1969/12/31/18:00:15.775,(56 30 18 13 6 -3 23 37)
1969/12/31/18:00:15.775,(29 14 -1 -12 -10 -1 9 22)
1969/12/31/18:00:15.798,(-35 -12 -9 1 -2 -9 1 -14)
1969/12/31/18:00:15.798,(18 18 1 -9 -2 -3 4 47)
1969/12/31/18:00:15.800,(-30 -1 2 7 3 7 -17 -35)
1969/12/31/18:00:15.800,(-34 -37 -16 -17 -12 3 -3 -28)
1969/12/31/18:00:15.814,(-40 -15 9 5 -4 -15 1 -10)
1969/12/31/18:00:15.814,(30 43 11 6 13 14 -7 6)
1969/12/31/18:00:15.824,(24 -4 -5 2 -3 11 15 37)
1969/12/31/18:00:15.824,(80 31 10 -1 -2 -9 6 49)
1969/12/31/18:00:15.840,(-90 -22 -16 -15 -18 -11 -26 -88)
1969/12/31/18:00:15.840,(-38 -27 -6 2 7 3 -12 -19)
1969/12/31/18:00:15.841,(0 7 9 10 5 6 14 11)
1969/12/31/18:00:15.841,(48 30 -6 -19 -12 -9 -9 4)
1969/12/31/18:00:15.864,(27 3 12 12 10 15 18 31)
1969/12/31/18:00:15.864,(-32 -22 -6 -2 -1 -5 -13 -30)
1969/12/31/18:00:15.865,(0 0 1 -3 -2 -5 5 0)
1969/12/31/18:00:15.865,(8 -11 -15 -14 -6 2 -1 5)
1969/12/31/18:00:15.880,(38 43 29 17 9 11 12 28)
1969/12/31/18:00:15.880,(-24 -19 -12 -8 -3 -12 -17 -27)
1969/12/31/18:00:15.889,(13 8 -2 -1 -1 5 4 13)
1969/12/31/18:00:15.889,(10 12 7 2 0 4 2 -4)
1969/12/31/18:00:15.906,(-14 -27 -16 -5 -6 -8 -4 -8)
1969/12/31/18:00:15.906,(-1 -6 -2 -3 -3 -6 -6 -7)
1969/12/31/18:00:15.907,(1 -4 4 7 5 6 3 12)
1969/12/31/18:00:15.907,(4 3 -10 -10 -8 -3 -2 3)
1969/12/31/18:00:15.930,(-15 -8 -6 -5 -7 -8 -4 -12)
1969/12/31/18:00:15.930,(16 5 6 6 7 6 2 2)
1969/12/31/18:00:15.931,(-14 -4 -4 -2 -1 3 -1 -6)
1969/12/31/18:00:15.931,(-13 -5 1 -3 -4 -4 -6 -7)
1969/12/31/18:00:15.955,(-7 -6 0 -2 1 2 7 5)
1969/12/31/18:00:15.955,(11 3 -7 -3 1 -2 -8 -9)
1969/12/31/18:00:15.956,(5 8 1 1 -1 -5 -7 6)
1969/12/31/18:00:15.956,(-28 -17 -4 -5 -8 -10 -14 -26)
1969/12/31/18:00:15.971,(32 13 5 4 2 5 11 33)
1969/12/31/18:00:15.972,(0 3 -4 -2 -2 -2 -6 -31)
1969/12/31/18:00:15.973,(-31 -20 -5 -2 -1 -1 -7 -35)
1969/12/31/18:00:15.973,(8 6 7 1 3 3 0 13)
1969/12/31/18:00:16.003,(-4 -6 -3 -6 -1 -1 4 9)
1969/12/31/18:00:16.005,(21 11 4 1 1 1 6 19)
1969/12/31/18:00:16.006,(0 2 3 0 -1 -2 -3 0)
1969/12/31/18:00:16.006,(-21 -17 -11 -4 -2 -5 -5 -17)
1969/12/31/18:00:16.029,(8 6 -8 -5 0 0 0 -9)
1969/12/31/18:00:16.029,(6 5 14 5 0 4 2 14)
1969/12/31/18:00:16.031,(17 9 -10 -8 -3 0 5 0)
1969/12/31/18:00:16.031,(-19 2 22 7 5 3 3 -3)
1969/12/31/18:00:16.036,(1 5 0 -2 -1 -1 0 -5)
1969/12/31/18:00:16.036,(-9 -29 -32 -17 -7 -3 -20 -8)
1969/12/31/18:00:16.044,(10 11 12 3 2 -3 5 14)
1969/12/31/18:00:16.044,(-8 -12 -22 -9 -5 -8 -18 -15)
1969/12/31/18:00:16.062,(-11 28 45 20 0 0 5 -10)
1969/12/31/18:00:16.062,(7 -35 -44 -18 -9 -6 -4 3)
1969/12/31/18:00:16.063,(1 43 53 24 6 3 11 -3)
1969/12/31/18:00:16.064,(-8 -12 -19 -11 -4 4 -2 -4)
1969/12/31/18:00:16.077,(-10 -19 -12 -2 -1 -1 -7 -14)
1969/12/31/18:00:16.077,(1 -25 -21 -9 -4 -7 0 5)
1969/12/31/18:00:16.087,(-2 0 -29 -16 -6 -6 -11 -1)
1969/12/31/18:00:16.087,(-6 29 34 11 3 2 15 0)
1969/12/31/18:00:16.102,(0 -32 -29 -8 0 -1 -4 2)
1969/12/31/18:00:16.102,(-6 39 54 21 5 1 0 -12)
1969/12/31/18:00:16.110,(5 -43 -52 -18 -4 1 4 10)
1969/12/31/18:00:16.110,(-6 8 9 5 -2 -7 -16 -7)
1969/12/31/18:00:16.127,(7 3 -13 -9 -2 3 -3 2)
1969/12/31/18:00:16.127,(-1 1 -5 -3 -2 -2 7 2)
1969/12/31/18:00:16.130,(-12 34 68 29 11 4 0 -5)
1969/12/31/18:00:16.130,(5 -5 -13 -5 -4 -1 -8 -3)
1969/12/31/18:00:16.152,(-1 -16 -13 -2 -3 -5 -3 -1)
1969/12/31/18:00:16.153,(7 4 -8 -7 -3 -2 1 2)
1969/12/31/18:00:16.154,(-2 2 2 6 2 2 -2 -3)
1969/12/31/18:00:16.154,(3 29 36 15 5 2 9 8)
1969/12/31/18:00:16.168,(3 -5 -15 -8 -4 -4 -11 -6)
1969/12/31/18:00:16.168,(-6 -17 -12 -9 -1 1 7 4)
1969/12/31/18:00:16.175,(-7 -11 8 9 7 9 21 7)
1969/12/31/18:00:16.176,(2 -13 -21 -11 -5 -8 -28 -5)
1969/12/31/18:00:16.193,(-3 2 7 3 1 1 -5 -4)
1969/12/31/18:00:16.193,(-16 -12 1 -4 -5 1 7 -3)
1969/12/31/18:00:16.194,(9 -22 -37 -23 -12 -6 -15 -2)
1969/12/31/18:00:16.194,(-1 35 15 7 2 1 11 -4)
1969/12/31/18:00:16.217,(0 -29 -15 -5 -3 4 8 8)
1969/12/31/18:00:16.217,(11 22 -4 -3 -3 -6 -14 -4)
1969/12/31/18:00:16.219,(-2 12 34 27 10 6 5 3)
1969/12/31/18:00:16.219,(-12 -20 -5 -4 -2 1 -1 -3)
1969/12/31/18:00:16.234,(-1 -15 -25 -23 -7 -1 -5 -3)
1969/12/31/18:00:16.234,(18 23 28 19 7 3 2 1)
1969/12/31/18:00:16.249,(4 -1 -20 -5 -4 -4 -5 0)
1969/12/31/18:00:16.249,(9 -3 -3 3 1 2 0 -1)
1969/12/31/18:00:16.267,(-9 -20 0 -1 1 0 6 3)
1969/12/31/18:00:16.267,(-10 -17 -18 -10 -4 -3 -5 -4)
1969/12/31/18:00:16.269,(3 7 -11 -12 -8 -4 -9 -9)
1969/12/31/18:00:16.269,(-24 -67 -38 -12 -7 -2 -1 -5)
1969/12/31/18:00:16.283,(4 29 19 7 2 -4 0 -4)
1969/12/31/18:00:16.284,(0 -19 -12 -6 3 2 -1 3)
1969/12/31/18:00:16.285,(-21 10 15 -3 -6 -6 -7 -11)
1969/12/31/18:00:16.285,(40 5 -22 1 0 -3 10 12)
1969/12/31/18:00:16.300,(-7 5 3 3 -1 -5 -3 -4)
1969/12/31/18:00:16.300,(-5 18 9 3 3 -4 6 6)
1969/12/31/18:00:16.306,(-2 -36 -65 -27 -3 -11 -3 2)
1969/12/31/18:00:16.306,(-9 8 -4 -5 3 -7 10 5)
1969/12/31/18:00:16.325,(-4 2 -3 -8 -1 -10 7 8)
1969/12/31/18:00:16.325,(12 58 22 10 1 -5 4 5)
1969/12/31/18:00:16.326,(7 -10 -1 -1 0 -3 1 5)
1969/12/31/18:00:16.326,(-6 -6 6 0 -3 -3 -1 1)
1969/12/31/18:00:16.349,(0 34 10 -9 -7 -3 -10 -7)
1969/12/31/18:00:16.349,(-12 -27 -19 -8 -2 5 -4 -5)
1969/12/31/18:00:16.351,(-2 -12 -9 -15 -8 1 -3 -1)
1969/12/31/18:00:16.351,(8 37 45 32 10 6 -3 -4)
1969/12/31/18:00:16.364,(-9 -13 -3 13 5 4 -1 -2)
1969/12/31/18:00:16.364,(-2 -5 9 0 -3 -2 0 -2)
1969/12/31/18:00:16.364,(-6 -5 -9 3 -4 -3 -4 -4)
1969/12/31/18:00:16.364,(0 -11 -43 6 -4 0 1 5)
1969/12/31/18:00:16.365,(5 23 65 64 20 3 -1 -5)
1969/12/31/18:00:16.365,(10 24 69 33 10 6 1 3)
1969/12/31/18:00:16.369,(-4 -10 -33 -17 -7 1 0 -2)
1969/12/31/18:00:16.369,(-4 -3 -11 -14 -5 0 -2 -4)
1969/12/31/18:00:16.378,(-4 -10 -21 -23 -12 -3 -3 -1)
1969/12/31/18:00:16.378,(-4 -2 21 10 11 6 5 4)
1969/12/31/18:00:16.380,(4 2 -10 -16 -7 -5 -5 -5)
1969/12/31/18:00:16.380,(-4 -5 -10 -11 -4 0 -2 -5)
1969/12/31/18:00:16.404,(0 -4 -10 -14 -5 -2 1 0)
1969/12/31/18:00:16.404,(-1 -10 -39 -12 -12 -5 -6 -5)
1969/12/31/18:00:16.405,(1 8 46 2 3 3 2 2)
1969/12/31/18:00:16.405,(4 9 25 40 14 7 4 5)
1969/12/31/18:00:16.418,(3 -3 -12 -12 -1 0 -6 -5)
1969/12/31/18:00:16.418,(-4 -10 -9 3 -2 3 0 -1)
1969/12/31/18:00:16.428,(-4 -12 -33 -33 -17 -3 -2 -3)
1969/12/31/18:00:16.428,(-2 4 27 -18 -30 -13 -7 -9)
1969/12/31/18:00:16.444,(0 1 4 27 21 1 8 8)
1969/12/31/18:00:16.444,(-5 -1 -24 22 24 -3 9 5)
1969/12/31/18:00:16.445,(-3 -6 -18 5 12 -12 -4 -8)
1969/12/31/18:00:16.445,(-2 -1 5 -11 -2 -9 5 4)
1969/12/31/18:00:16.468,(-6 -9 -30 -35 -21 -11 2 4)
1969/12/31/18:00:16.468,(-2 -1 -11 -8 -3 -5 -4 -3)
1969/12/31/18:00:16.477,(-1 5 11 13 -1 4 4 4)
1969/12/31/18:00:16.477,(1 2 10 0 4 3 -1 3)
1969/12/31/18:00:16.484,(-2 -7 -14 -8 -7 -1 -6 -7)
1969/12/31/18:00:16.484,(3 6 1 3 -1 0 -2 -1)
1969/12/31/18:00:16.494,(2 3 14 -3 -3 3 -3 -1)
1969/12/31/18:00:16.494,(-1 -10 -9 2 -3 1 -5 -5)
1969/12/31/18:00:16.510,(1 15 20 15 4 3 -1 -4)
1969/12/31/18:00:16.510,(1 -5 -3 -10 -10 -2 -4 -2)
1969/12/31/18:00:16.511,(-6 -7 8 6 2 0 -1 -1)
1969/12/31/18:00:16.511,(2 10 -6 2 4 2 -1 -3)
1969/12/31/18:00:16.534,(-2 -7 -14 -10 -5 -2 -3 -1)
1969/12/31/18:00:16.534,(-2 12 27 4 -2 0 -3 -5)
1969/12/31/18:00:16.536,(0 1 -8 0 -2 2 0 0)
1969/12/31/18:00:16.536,(9 -2 -5 1 0 -3 1 3)
1969/12/31/18:00:16.550,(-15 6 20 0 -1 -2 -4 -6)
1969/12/31/18:00:16.550,(2 -5 -15 -10 -5 -2 0 1)
1969/12/31/18:00:16.559,(-11 -8 -1 2 1 1 3 1)
1969/12/31/18:00:16.559,(5 1 8 6 4 1 1 1)
1969/12/31/18:00:16.576,(4 -3 -16 -11 -6 -3 5 5)
1969/12/31/18:00:16.576,(2 0 -7 -4 -3 -4 -2 -3)
1969/12/31/18:00:16.577,(12 0 -3 -2 -3 -1 15 15)
1969/12/31/18:00:16.577,(18 9 6 5 6 -2 -10 1)
1969/12/31/18:00:16.601,(-53 -21 -11 -7 -2 -5 -7 -14)
1969/12/31/18:00:16.601,(2 0 -2 -3 -2 -4 -5 -3)
1969/12/31/18:00:16.602,(2 -3 -6 -4 0 -3 2 5)
1969/12/31/18:00:16.602,(21 9 2 -1 0 -1 9 10)
1969/12/31/18:00:16.615,(-29 -14 -13 -4 1 -1 8 2)
1969/12/31/18:00:16.615,(-24 -14 -11 -9 -8 -8 -7 -13)
1969/12/31/18:00:16.625,(-28 1 -1 0 -1 1 -10 -27)
1969/12/31/18:00:16.625,(4 -10 1 -1 -2 1 6 19)
1969/12/31/18:00:16.642,(44 16 7 6 4 9 0 -4)
1969/12/31/18:00:16.642,(3 -1 -6 -5 -2 -2 0 -1)
1969/12/31/18:00:16.643,(17 7 -10 -3 4 3 3 19)
1969/12/31/18:00:16.643,(-64 -20 -4 -1 -1 -23 2 -35)
1969/12/31/18:00:16.666,(35 1 1 -1 8 -2 -11 39)
1969/12/31/18:00:16.666,(-22 -14 6 -4 -12 18 7 -25)
1969/12/31/18:00:16.668,(44 23 21 7 -2 8 0 3)
1969/12/31/18:00:16.668,(-12 4 20 9 -1 44 7 -8)
1969/12/31/18:00:16.681,(-20 -11 0 0 0 -7 -25 -31)
1969/12/31/18:00:16.681,(-1 6 0 -1 -2 -16 -30 -4)
1969/12/31/18:00:16.700,(-5 -14 0 -2 -5 -6 6 4)
1969/12/31/18:00:16.700,(21 20 8 5 5 13 -1 -9)
1969/12/31/18:00:16.707,(1 -16 -7 -1 -1 -47 -5 24)
1969/12/31/18:00:16.707,(-57 -25 -9 -3 -1 27 23 -32)
1969/12/31/18:00:16.709,(25 20 -2 -3 -4 -23 -53 -25)
1969/12/31/18:00:16.709,(-31 -22 -9 -8 -2 -14 6 -13)
1969/12/31/18:00:16.732,(22 12 4 3 5 27 8 -5)
1969/12/31/18:00:16.732,(41 20 -3 2 10 21 3 11)
1969/12/31/18:00:16.734,(-19 -40 -20 -15 -13 -48 -7 -16)
1969/12/31/18:00:16.734,(-4 11 5 2 9 55 3 8)
1969/12/31/18:00:16.747,(-26 -7 -3 -1 -7 -34 38 24)
1969/12/31/18:00:16.747,(-19 -20 -8 -4 -1 -22 -27 -22)
1969/12/31/18:00:16.757,(-26 13 7 4 10 14 0 -27)
1969/12/31/18:00:16.757,(61 7 -3 -2 -5 -22 -15 58)
1969/12/31/18:00:16.773,(18 24 2 3 12 63 20 -7)
1969/12/31/18:00:16.773,(-2 3 2 -1 -10 -53 -8 -10)
1969/12/31/18:00:16.775,(5 -3 -4 4 10 40 11 22)
1969/12/31/18:00:16.775,(-15 0 -1 2 -5 -33 -4 -18)
1969/12/31/18:00:16.797,(25 0 -3 -6 -6 19 34 17)
1969/12/31/18:00:16.798,(42 23 10 8 6 -9 10 58)
1969/12/31/18:00:16.800,(-21 18 11 7 9 67 31 -31)
1969/12/31/18:00:16.800,(-52 -26 -16 -12 -5 -45 -61 -86)
1969/12/31/18:00:16.813,(18 -11 -10 -8 -11 -7 -6 45)
1969/12/31/18:00:16.813,(21 29 11 9 13 8 -33 15)
1969/12/31/18:00:16.823,(4 -17 -6 -7 -16 -37 6 30)
1969/12/31/18:00:16.823,(10 13 6 6 -2 -21 -29 -10)
1969/12/31/18:00:16.839,(-6 5 -2 -3 -5 15 12 -42)
1969/12/31/18:00:16.839,(-18 -19 -4 0 7 34 -13 0)
1969/12/31/18:00:16.841,(19 16 4 2 1 0 -17 16)
1969/12/31/18:00:16.841,(-6 1 4 2 2 12 31 1)
1969/12/31/18:00:16.863,(-19 2 -7 -7 -10 -43 -38 -64)
1969/12/31/18:00:16.864,(21 -13 -9 -3 2 27 28 37)
1969/12/31/18:00:16.865,(5 9 -3 -4 -6 17 16 11)
1969/12/31/18:00:16.865,(31 -1 -4 -12 -14 -35 14 6)
1969/12/31/18:00:16.879,(-24 -20 5 22 13 25 -17 12)
1969/12/31/18:00:16.879,(14 17 4 4 2 25 35 -4)
1969/12/31/18:00:16.888,(-13 0 -5 -3 -3 -23 -5 15)
1969/12/31/18:00:16.888,(12 1 3 -1 8 59 30 32)
1969/12/31/18:00:16.905,(20 14 3 -11 -4 -2 5 9)
1969/12/31/18:00:16.905,(-9 -16 -4 1 -6 -41 -8 -10)
1969/12/31/18:00:16.907,(-11 -3 5 13 14 23 1 7)
1969/12/31/18:00:16.907,(4 11 2 4 -3 6 0 0)
1969/12/31/18:00:16.929,(15 8 1 9 4 -43 5 43)
1969/12/31/18:00:16.929,(2 -2 -5 -5 -3 4 5 10)
1969/12/31/18:00:16.931,(-8 -10 -6 -5 -2 -28 -50 -9)
1969/12/31/18:00:16.931,(7 -2 -7 -5 -3 18 25 40)
1969/12/31/18:00:16.944,(-3 -12 3 5 -12 -83 -49 -15)
1969/12/31/18:00:16.944,(16 15 -2 -4 4 72 34 23)
1969/12/31/18:00:16.961,(-39 -9 3 2 -2 -47 -33 -75)
1969/12/31/18:00:16.961,(2 -7 -5 -6 -1 15 -1 2)
1969/12/31/18:00:16.971,(13 9 -1 -7 -1 0 -44 -7)
1969/12/31/18:00:16.971,(-23 -16 -8 -6 -3 -16 -12 46)
1969/12/31/18:00:16.973,(23 -11 -3 -4 0 11 26 7)
1969/12/31/18:00:16.973,(17 6 0 2 6 -2 13 4)
1969/12/31/18:00:16.995,(-10 22 4 -1 -16 2 22 -48)
1969/12/31/18:00:16.995,(9 -11 -3 -11 -10 7 -42 -31)
1969/12/31/18:00:17.001,(-4 -1 2 16 6 -27 50 49)
1969/12/31/18:00:17.001,(-10 -8 -3 -1 -6 -34 -26 -21)
1969/12/31/18:00:17.010,(1 -6 2 5 17 52 28 25)
1969/12/31/18:00:17.010,(-14 10 2 -6 -18 -62 23 0)
1969/12/31/18:00:17.020,(9 4 0 -6 -4 11 -3 29)
1969/12/31/18:00:17.020,(-19 0 -12 -11 -7 -43 -63 -93)
1969/12/31/18:00:17.036,(-17 -11 -6 -13 -7 -21 14 3)
1969/12/31/18:00:17.036,(-28 -16 -1 3 19 74 -50 -26)
1969/12/31/18:00:17.039,(19 10 0 -5 -11 -27 67 14)
1969/12/31/18:00:17.039,(9 20 13 15 14 27 37 45)
1969/12/31/18:00:17.062,(3 -3 -7 -15 3 51 -48 -9)
1969/12/31/18:00:17.062,(-29 -30 -6 2 4 -17 -3 -34)
1969/12/31/18:00:17.063,(23 11 7 8 11 56 -27 -3)
1969/12/31/18:00:17.063,(-39 -12 1 4 -1 -4 3 -32)
1969/12/31/18:00:17.076,(23 17 3 3 1 7 5 -16)
1969/12/31/18:00:17.076,(5 15 -2 -3 -8 24 10 -4)
1969/12/31/18:00:17.086,(-22 -4 0 -2 3 20 -1 -2)
1969/12/31/18:00:17.086,(16 -16 -9 -6 -5 -10 28 56)
1969/12/31/18:00:17.101,(-10 4 2 -3 -6 -17 -10 -25)
1969/12/31/18:00:17.101,(-2 -16 -7 -4 6 -8 18 39)
1969/12/31/18:00:17.109,(-23 -4 1 -2 -1 10 -4 -31)
1969/12/31/18:00:17.109,(16 13 1 -4 -3 34 -15 4)
1969/12/31/18:00:17.126,(-13 -14 -6 1 -10 -7 24 12)
1969/12/31/18:00:17.126,(33 19 7 6 0 -32 -20 12)
1969/12/31/18:00:17.129,(-15 -10 -7 -7 3 -29 -17 -15)
1969/12/31/18:00:17.129,(12 10 6 8 11 36 61 59)
1969/12/31/18:00:17.152,(-12 -12 -1 -4 -7 -23 -40 -36)
1969/12/31/18:00:17.152,(33 12 9 13 10 -15 39 49)
1969/12/31/18:00:17.154,(-59 -33 -20 -16 3 -44 -60 -82)
1969/12/31/18:00:17.154,(3 4 5 13 17 27 -37 -13)
1969/12/31/18:00:17.168,(13 5 -5 -28 -43 -2 35 54)
1969/12/31/18:00:17.168,(16 9 6 11 -2 -38 26 9)
1969/12/31/18:00:17.175,(16 6 1 -12 -47 -31 12 11)
1969/12/31/18:00:17.175,(-9 -15 -4 3 25 -3 -44 -4)
1969/12/31/18:00:17.192,(1 4 8 25 32 36 33 3)
1969/12/31/18:00:17.192,(-10 0 -1 -15 -24 -18 -46 -13)
1969/12/31/18:00:17.194,(-1 -13 -10 -14 6 17 46 21)
1969/12/31/18:00:17.194,(-18 5 6 13 49 12 -36 -31)
1969/12/31/18:00:17.217,(-10 -14 -5 -3 -10 -12 0 -11)
1969/12/31/18:00:17.217,(-31 7 -4 -14 -31 -34 -24 -26)
1969/12/31/18:00:17.218,(11 -11 0 20 -17 -36 -8 11)
1969/12/31/18:00:17.218,(0 1 -6 -29 -41 25 15 2)
1969/12/31/18:00:17.233,(-5 9 -3 -11 -1 -7 -7 -29)
1969/12/31/18:00:17.233,(-3 -9 -6 1 10 -10 11 -8)
1969/12/31/18:00:17.240,(-7 -2 1 3 10 -29 -62 -34)
1969/12/31/18:00:17.240,(4 0 3 5 6 4 67 26)
1969/12/31/18:00:17.259,(2 11 6 6 21 51 -40 -22)
1969/12/31/18:00:17.259,(-13 -12 -2 -3 -17 -18 -11 -27)
1969/12/31/18:00:17.260,(14 8 1 -2 10 -1 5 11)
1969/12/31/18:00:17.260,(-6 -8 -5 -4 -9 3 -11 -4)
1969/12/31/18:00:17.283,(-3 -9 -4 11 23 -37 7 20)
1969/12/31/18:00:17.283,(3 -5 -7 -28 -96 -75 16 4)
1969/12/31/18:00:17.285,(5 -1 -3 -8 18 9 -40 -3)
1969/12/31/18:00:17.285,(2 9 1 -4 6 -17 -10 -13)
1969/12/31/18:00:17.299,(-14 -18 -2 12 37 22 16 8)
1969/12/31/18:00:17.299,(19 -3 4 14 34 67 24 46)
1969/12/31/18:00:17.306,(-4 -5 -8 -18 -78 -32 -5 -17)
1969/12/31/18:00:17.306,(8 19 3 -6 -2 -19 -9 -12)
1969/12/31/18:00:17.325,(32 18 11 8 27 38 -4 9)
1969/12/31/18:00:17.325,(-14 -34 -11 4 12 -9 0 -17)
1969/12/31/18:00:17.326,(-36 -7 -6 4 29 89 14 -13)
1969/12/31/18:00:17.326,(-12 -25 -8 -11 -18 -39 7 10)
1969/12/31/18:00:17.350,(-3 44 36 12 -9 3 0 -9)
1969/12/31/18:00:17.350,(21 23 -2 -3 -36 -20 -19 5)
1969/12/31/18:00:17.352,(-8 -34 -3 -16 -9 36 17 11)
1969/12/31/18:00:17.352,(7 2 -8 11 2 -45 -3 20)
1969/12/31/18:00:17.364,(-7 -6 -13 -9 26 22 5 -22)
1969/12/31/18:00:17.364,(18 15 -18 -6 -4 9 14 44)
1969/12/31/18:00:17.372,(-66 -30 4 15 37 4 2 -40)
1969/12/31/18:00:17.372,(-5 21 1 5 -23 8 -18 -17)
1969/12/31/18:00:17.390,(31 -51 -45 -24 -22 -29 -1 46)
1969/12/31/18:00:17.390,(-21 52 45 32 86 52 6 -19)
1969/12/31/18:00:17.407,(46 35 8 14 8 -4 -1 20)
1969/12/31/18:00:17.407,(-25 -17 -12 -19 -83 -43 2 0)
1969/12/31/18:00:17.415,(-14 -7 17 -11 -25 -16 -5 -3)
1969/12/31/18:00:17.415,(28 -56 -91 -23 36 10 -8 -2)
1969/12/31/18:00:17.417,(16 -34 10 8 40 14 -4 1)
1969/12/31/18:00:17.417,(-18 73 85 41 -2 17 4 -6)
1969/12/31/18:00:17.430,(15 84 92 50 40 23 1 22)
1969/12/31/18:00:17.430,(-18 -2 29 -3 -39 -14 17 -1)
1969/12/31/18:00:17.440,(26 -46 -65 -27 -5 -8 -9 9)
1969/12/31/18:00:17.440,(31 -86 -122 -32 18 -3 9 16)
1969/12/31/18:00:17.455,(-38 22 29 -13 -48 -7 42 18)
1969/12/31/18:00:17.455,(3 -13 -23 -3 25 -1 -35 -37)
1969/12/31/18:00:17.458,(64 63 32 27 74 43 -4 37)
1969/12/31/18:00:17.458,(-36 -49 27 -11 -64 -36 11 -28)
1969/12/31/18:00:17.482,(-7 -96 -115 -54 -66 -46 -36 33)
1969/12/31/18:00:17.482,(2 88 90 42 20 -2 -54 -71)
1969/12/31/18:00:17.482,(10 51 24 18 42 49 72 34)
1969/12/31/18:00:17.482,(66 36 27 11 43 51 13 46)
1969/12/31/18:00:17.505,(-19 9 13 17 -35 -11 -1 -79)
1969/12/31/18:00:17.505,(10 -94 -63 -44 -32 -19 30 -22)
1969/12/31/18:00:17.506,(-27 -87 -48 -8 -30 -46 -65 -61)
1969/12/31/18:00:17.506,(-34 104 82 6 -31 -11 -1 14)
1969/12/31/18:00:17.521,(-11 36 1 27 41 32 28 12)
1969/12/31/18:00:17.521,(-42 -21 -2 9 86 54 -41 -86)
1969/12/31/18:00:17.522,(39 43 29 -12 -102 -53 21 56)
1969/12/31/18:00:17.522,(-85 -91 -23 -13 -11 -38 -42 -106)
1969/12/31/18:00:17.545,(8 -69 -90 -20 14 6 -10 -5)
1969/12/31/18:00:17.545,(-31 19 11 -15 -6 1 -4 -14)
1969/12/31/18:00:17.546,(-19 7 8 0 3 11 14 7)
1969/12/31/18:00:17.546,(53 0 -13 -2 11 11 23 86)
1969/12/31/18:00:17.570,(-1 -60 -38 -4 97 67 9 3)
1969/12/31/18:00:17.572,(70 74 8 5 -81 -36 30 33)
1969/12/31/18:00:17.572,(-94 -94 -21 -5 0 -32 0 -4)
1969/12/31/18:00:17.572,(-23 74 42 -9 -56 -38 -44 -42)
1969/12/31/18:00:17.596,(3 -10 11 -6 17 26 9 11)
1969/12/31/18:00:17.596,(28 -73 -58 -18 29 32 25 36)
1969/12/31/18:00:17.597,(41 -42 -72 -39 -81 -42 6 33)
1969/12/31/18:00:17.597,(-16 69 62 45 81 41 16 28)
1969/12/31/18:00:17.611,(43 83 80 33 -14 -32 -3 27)
1969/12/31/18:00:17.611,(-73 -16 29 -5 -22 -15 -31 -83)
1969/12/31/18:00:17.612,(28 -14 -53 -13 -12 -5 -22 -28)
1969/12/31/18:00:17.612,(-21 -128 -106 11 126 69 27 37)
1969/12/31/18:00:17.636,(-9 108 98 6 -106 -52 -16 -60)
1969/12/31/18:00:17.636,(60 29 9 -17 -27 -18 16 88)
1969/12/31/18:00:17.637,(-23 -3 0 4 -1 -5 0 -21)
1969/12/31/18:00:17.637,(13 -10 -12 -7 32 36 18 -57)
1969/12/31/18:00:17.653,(-50 -87 -67 -45 -47 -44 -55 -47)
1969/12/31/18:00:17.653,(-19 -2 5 17 15 -1 20 13)
1969/12/31/18:00:17.654,(34 3 -45 -24 -8 29 29 32)
1969/12/31/18:00:17.654,(-5 88 87 20 -34 -12 9 9)
1969/12/31/18:00:17.677,(-80 -61 -7 -6 -8 -23 -12 -63)
1969/12/31/18:00:17.677,(20 -35 -15 -4 9 -15 -31 -7)
1969/12/31/18:00:17.678,(-8 67 17 0 31 13 0 -31)
1969/12/31/18:00:17.678,(10 15 3 17 -9 -16 -5 16)
1969/12/31/18:00:17.693,(22 -41 -65 -22 2 6 0 -20)
1969/12/31/18:00:17.693,(-14 -93 -49 -5 -19 -31 -8 -26)
1969/12/31/18:00:17.701,(-6 93 124 56 48 30 -1 27)
1969/12/31/18:00:17.701,(31 -104 -70 -26 -2 15 0 79)
1969/12/31/18:00:17.719,(-21 -4 -46 -13 -21 -27 -4 -26)
1969/12/31/18:00:17.719,(2 6 -15 -14 -46 -9 20 44)
1969/12/31/18:00:17.720,(5 29 89 45 64 44 4 -16)
1969/12/31/18:00:17.720,(3 12 -14 -30 -90 -63 -41 -70)
1969/12/31/18:00:17.745,(45 -68 -41 -6 62 30 14 79)
1969/12/31/18:00:17.745,(-9 92 31 7 -4 -2 6 -13)
1969/12/31/18:00:17.745,(13 26 24 5 11 9 -1 27)
1969/12/31/18:00:17.745,(-19 -23 -69 -30 -6 -41 -21 -31)
1969/12/31/18:00:17.759,(-1 -15 29 8 -20 -8 9 -1)
1969/12/31/18:00:17.759,(2 10 21 15 15 13 1 3)
1969/12/31/18:00:17.767,(3 -65 -65 -31 -16 10 1 34)
1969/12/31/18:00:17.767,(-24 -28 11 33 83 41 -9 -12)
1969/12/31/18:00:17.785,(19 120 94 19 -91 -62 -4 -9)
1969/12/31/18:00:17.785,(-11 -30 -26 -11 22 38 11 36)
1969/12/31/18:00:17.787,(-32 69 105 34 -3 -45 -24 -62)
1969/12/31/18:00:17.787,(38 -85 -68 -22 -7 8 12 19)
1969/12/31/18:00:17.808,(7 -11 -8 29 100 51 -3 7)
1969/12/31/18:00:17.808,(-1 -1 18 -17 -76 -53 -25 -34)
1969/12/31/18:00:17.810,(-17 -84 -80 -13 28 10 0 -17)
1969/12/31/18:00:17.810,(15 58 7 -30 -51 -18 19 1)
1969/12/31/18:00:17.825,(-15 38 54 5 4 31 23 19)
1969/12/31/18:00:17.825,(2 -25 -57 -8 20 16 -24 -17)
1969/12/31/18:00:17.833,(-16 13 1 -4 -22 -13 21 -13)
1969/12/31/18:00:17.833,(-33 -16 58 20 3 -25 -11 -16)
1969/12/31/18:00:17.850,(30 16 -37 -6 9 -3 1 14)
1969/12/31/18:00:17.850,(-1 15 11 -5 -28 -19 16 -2)
1969/12/31/18:00:17.851,(-23 -28 5 -8 -24 -16 -39 -57)
1969/12/31/18:00:17.851,(27 16 -1 13 33 43 25 27)
1969/12/31/18:00:17.884,(25 -63 -78 -22 20 0 1 -6)
1969/12/31/18:00:17.884,(12 61 94 39 14 6 5 39)
1969/12/31/18:00:17.884,(11 59 22 6 8 8 -2 11)
1969/12/31/18:00:17.884,(-59 -36 -37 -18 -1 9 9 -41)
1969/12/31/18:00:17.891,(40 26 40 18 5 -19 -6 28)
1969/12/31/18:00:17.891,(0 -51 -57 -23 -15 20 11 -18)
1969/12/31/18:00:17.898,(29 14 41 39 34 -18 3 42)
1969/12/31/18:00:17.898,(-19 84 47 -32 -82 -44 -30 -46)
1969/12/31/18:00:17.916,(2 -42 -27 -4 34 18 21 32)
1969/12/31/18:00:17.916,(-3 1 -11 -4 9 -3 -22 11)
1969/12/31/18:00:17.917,(4 -41 -60 -14 55 34 -1 -15)
1969/12/31/18:00:17.917,(21 -34 -9 -7 -66 -38 -24 -7)
1969/12/31/18:00:17.940,(-11 -44 -63 -32 -49 -20 -15 -29)
1969/12/31/18:00:17.940,(-11 26 40 15 49 29 36 40)
1969/12/31/18:00:17.941,(8 45 -8 10 -2 16 0 16)
1969/12/31/18:00:17.941,(8 -12 -7 6 11 3 -22 -6)
1969/12/31/18:00:17.956,(21 77 81 16 -21 -6 9 17)
1969/12/31/18:00:17.956,(-24 -59 -82 -11 45 34 14 16)
1969/12/31/18:00:17.965,(-50 -102 -24 -15 -56 -53 -36 -29)
1969/12/31/18:00:17.965,(17 107 56 16 25 19 9 10)
1969/12/31/18:00:17.982,(-12 -48 -35 -2 1 3 -26 -13)
1969/12/31/18:00:17.982,(-16 27 28 30 69 33 13 -16)
1969/12/31/18:00:17.983,(47 -31 -33 -36 -88 -22 -7 34)
1969/12/31/18:00:17.983,(37 73 41 24 84 60 48 49)
1969/12/31/18:00:18.006,(-41 -73 -25 -7 -27 -39 -19 39)
1969/12/31/18:00:18.006,(-36 1 27 -17 -80 -62 -42 -57)
1969/12/31/18:00:18.007,(-4 -36 -62 -30 -9 -18 -17 -31)
1969/12/31/18:00:18.007,(30 -28 -30 -8 -24 -34 -14 17)
1969/12/31/18:00:18.022,(-24 101 95 27 49 44 9 -27)
1969/12/31/18:00:18.022,(24 -78 -46 13 17 15 19 21)
1969/12/31/18:00:18.031,(43 110 42 0 -23 -24 18 63)
1969/12/31/18:00:18.031,(-36 -61 -36 -2 56 19 -31 -86)
1969/12/31/18:00:18.047,(-5 59 37 29 17 11 12 3)
1969/12/31/18:00:18.047,(-43 -55 -12 -26 -58 -29 -5 -15)
1969/12/31/18:00:18.049,(27 -64 -46 -9 16 36 21 1)
1969/12/31/18:00:18.049,(-9 79 69 40 65 31 -4 -33)
1969/12/31/18:00:18.072,(-33 -16 -8 -21 -63 -66 -16 -40)
1969/12/31/18:00:18.072,(-14 -59 -50 -34 -19 10 -24 -4)
1969/12/31/18:00:18.073,(-2 19 10 -5 2 -9 31 0)
1969/12/31/18:00:18.073,(2 -26 -24 0 -61 -65 -23 25)
1969/12/31/18:00:18.088,(14 -22 -4 -3 20 -10 -10 2)
1969/12/31/18:00:18.088,(14 17 17 -4 7 28 24 -2)
1969/12/31/18:00:18.097,(-63 8 6 10 22 8 0 -42)
1969/12/31/18:00:18.097,(-10 -8 -15 -4 3 3 5 41)
1969/12/31/18:00:18.113,(-1 -42 8 5 -8 3 -21 -9)
1969/12/31/18:00:18.113,(28 72 -4 -2 -8 -18 5 5)
1969/12/31/18:00:18.114,(-22 -54 -23 -6 18 26 5 -5)
1969/12/31/18:00:18.114,(1 81 64 15 -15 2 13 -33)
1969/12/31/18:00:18.137,(58 -8 -33 -14 -6 2 29 69)
1969/12/31/18:00:18.137,(-46 60 107 58 75 14 -60 -75)
1969/12/31/18:00:18.139,(-13 7 2 9 -7 8 16 -8)
1969/12/31/18:00:18.139,(-4 -103 -66 -21 6 8 11 42)
1969/12/31/18:00:18.163,(-22 -19 -39 -33 26 44 14 -12)
1969/12/31/18:00:18.163,(39 -19 -30 9 -28 -29 12 9)
1969/12/31/18:00:18.170,(-31 -2 24 -10 -54 -28 -10 3)
1969/12/31/18:00:18.170,(20 57 21 -2 -27 0 9 6)
1969/12/31/18:00:18.179,(-18 -8 14 3 16 29 -3 -36)
1969/12/31/18:00:18.179,(-1 -6 -35 -15 14 4 6 22)
1969/12/31/18:00:18.180,(-16 -89 -32 -2 8 -5 -13 -8)
1969/12/31/18:00:18.180,(78 70 11 17 25 37 65 75)
1969/12/31/18:00:18.203,(-33 21 51 19 7 -6 -36 -50)
1969/12/31/18:00:18.203,(-28 -16 -8 0 -19 -18 11 -2)
1969/12/31/18:00:18.212,(55 -34 -17 -19 -13 -16 -12 -5)
1969/12/31/18:00:18.212,(-38 -27 -37 -24 -3 -9 -31 -43)
1969/12/31/18:00:18.228,(9 10 -10 -5 -22 -18 -6 18)
1969/12/31/18:00:18.228,(42 -36 -43 -20 7 13 16 25)
1969/12/31/18:00:18.230,(-16 55 62 33 15 20 19 4)
1969/12/31/18:00:18.230,(-6 13 40 28 12 -21 -45 -13)
1969/12/31/18:00:18.245,(27 29 16 -8 -42 -22 24 49)
1969/12/31/18:00:18.245,(-13 -5 19 8 22 5 -27 -20)
1969/12/31/18:00:18.246,(13 -8 -38 -26 -34 -9 9 13)
1969/12/31/18:00:18.246,(-44 -112 -107 -63 -30 -5 -26 -42)
1969/12/31/18:00:18.270,(-1 52 63 52 75 33 19 -8)
1969/12/31/18:00:18.270,(27 67 59 45 92 79 35 9)
1969/12/31/18:00:18.270,(20 -3 -21 -31 -101 -104 -69 -2)
1969/12/31/18:00:18.270,(-4 -39 -39 -22 4 -23 -2 -3)
1969/12/31/18:00:18.294,(-6 -32 -54 -10 30 15 1 -16)
1969/12/31/18:00:18.294,(-1 60 52 23 16 11 9 -17)
1969/12/31/18:00:18.295,(-40 36 105 64 83 60 19 -4)
1969/12/31/18:00:18.295,(17 -41 -39 -29 -50 -10 -7 14)
1969/12/31/18:00:18.319,(29 -18 -45 -28 -35 -13 2 20)
1969/12/31/18:00:18.319,(-40 -37 -36 -17 -28 -26 -9 -25)
1969/12/31/18:00:18.321,(2 -11 -22 -7 26 30 15 10)
1969/12/31/18:00:18.321,(-19 -39 15 14 16 -13 0 3)
1969/12/31/18:00:18.335,(51 37 -19 18 54 81 25 30)
1969/12/31/18:00:18.335,(-46 -15 11 -53 -110 -104 -46 -21)
1969/12/31/18:00:18.336,(-40 -19 -37 -26 -3 -42 -34 -60)
1969/12/31/18:00:18.336,(10 -35 -20 -6 6 11 8 16)
1969/12/31/18:00:18.360,(1 72 78 36 23 12 26 19)
1969/12/31/18:00:18.360,(42 11 -10 16 27 28 18 40)
1969/12/31/18:00:18.361,(-38 -2 9 -12 10 15 -9 -57)
1969/12/31/18:00:18.361,(-29 -77 -87 -22 -27 -5 14 8)
1969/12/31/18:00:18.376,(55 73 66 26 -5 -2 1 14)
1969/12/31/18:00:18.376,(9 11 62 31 7 -20 -18 -17)
1969/12/31/18:00:18.378,(26 39 54 23 -23 -7 13 26)
1969/12/31/18:00:18.378,(-17 -36 -9 -10 11 25 -13 -19)
1969/12/31/18:00:18.401,(-16 -89 -84 -66 -10 2 -5 -1)
1969/12/31/18:00:18.401,(-11 -13 -8 64 49 0 18 21)
1969/12/31/18:00:18.402,(10 5 -16 7 27 49 24 13)
1969/12/31/18:00:18.402,(16 42 31 -5 -47 -51 -20 -32)
1969/12/31/18:00:18.427,(-26 -35 -36 -42 -68 -69 -44 -23)
1969/12/31/18:00:18.427,(3 1 10 28 73 61 26 23)
1969/12/31/18:00:18.427,(2 15 -16 -10 -3 15 25 27)
1969/12/31/18:00:18.427,(21 37 24 25 20 18 4 -12)
1969/12/31/18:00:18.442,(-25 -24 23 11 5 -7 -7 4)
1969/12/31/18:00:18.442,(-20 -11 -46 -44 -32 -10 -5 -21)
1969/12/31/18:00:18.443,(2 -3 11 22 54 27 -7 1)
1969/12/31/18:00:18.443,(18 17 -1 -9 -49 -23 16 13)
1969/12/31/18:00:18.466,(12 43 43 29 10 -3 3 5)
1969/12/31/18:00:18.466,(-19 -16 -7 -15 -27 -20 -26 -38)
1969/12/31/18:00:18.475,(29 13 -15 -23 -13 -3 -3 23)
1969/12/31/18:00:18.475,(-8 0 11 2 25 8 12 -7)
1969/12/31/18:00:18.492,(-25 -45 -42 -37 -29 3 13 6)
1969/12/31/18:00:18.492,(23 2 -7 -9 -11 -8 -10 18)
1969/12/31/18:00:18.493,(-17 11 8 17 7 -17 -24 -24)
1969/12/31/18:00:18.493,(3 10 28 43 43 8 -20 -13)
1969/12/31/18:00:18.517,(-17 -27 -25 11 -9 -9 -7 -15)
1969/12/31/18:00:18.517,(38 43 18 -1 -9 6 2 5)
1969/12/31/18:00:18.518,(6 -2 -10 -26 -29 -16 -4 -2)
1969/12/31/18:00:18.518,(33 21 9 -29 -8 -1 5 20)
1969/12/31/18:00:18.532,(-59 -31 -7 36 14 0 -6 -21)
1969/12/31/18:00:18.532,(-3 13 7 3 2 6 16 8)
1969/12/31/18:00:18.533,(68 17 11 26 29 21 40 56)
1969/12/31/18:00:18.533,(-23 4 5 0 -8 4 -12 -8)
1969/12/31/18:00:18.557,(-57 -36 -29 -40 -24 -31 -42 -62)
1969/12/31/18:00:18.557,(-28 -21 -10 -15 -14 15 12 -8)
1969/12/31/18:00:18.558,(10 16 6 3 -10 8 38 42)
1969/12/31/18:00:18.558,(20 23 25 13 15 -4 2 9)
1969/12/31/18:00:18.574,(65 17 3 5 4 5 22 39)
1969/12/31/18:00:18.574,(-2 -1 -12 -50 -38 -15 -10 5)
1969/12/31/18:00:18.575,(-67 -63 -33 -10 10 -22 -29 -19)
1969/12/31/18:00:18.575,(-3 -10 -5 -15 -22 27 21 29)
1969/12/31/18:00:18.598,(-31 -4 14 91 57 -7 -6 -19)
1969/12/31/18:00:18.598,(-34 -21 -7 6 -1 -7 -4 -17)
1969/12/31/18:00:18.599,(58 37 11 -14 -18 3 8 19)
1969/12/31/18:00:18.599,(9 2 -6 -7 0 -11 5 21)
1969/12/31/18:00:18.625,(-30 -8 -5 -16 -10 16 4 -15)
1969/12/31/18:00:18.625,(30 -1 0 -13 -13 -4 -5 15)
1969/12/31/18:00:18.625,(-49 -16 -6 -5 1 -20 -30 -53)
1969/12/31/18:00:18.625,(15 47 18 25 22 1 -2 -28)
1969/12/31/18:00:18.640,(-33 -68 -47 -54 -31 -10 -19 -9)
1969/12/31/18:00:18.640,(-10 8 12 14 20 7 14 33)
1969/12/31/18:00:18.641,(-10 -1 -5 -3 -3 -3 -7 -7)
1969/12/31/18:00:18.641,(-48 -11 14 11 4 3 -13 -38)
1969/12/31/18:00:18.664,(81 42 14 -3 -5 5 7 41)
1969/12/31/18:00:18.664,(4 2 -18 -11 -8 -13 -13 -34)
1969/12/31/18:00:18.665,(13 -24 -11 5 2 8 8 27)
1969/12/31/18:00:18.665,(-63 -26 -7 -5 -4 2 -2 -17)
1969/12/31/18:00:18.689,(45 49 25 6 5 -2 3 -9)
1969/12/31/18:00:18.689,(-36 -21 0 2 -4 -10 -20 -59)
1969/12/31/18:00:18.690,(38 44 14 0 -1 6 5 6)
1969/12/31/18:00:18.690,(-2 -31 -32 -14 -6 -12 -12 9)
1969/12/31/18:00:18.705,(-38 -30 -37 -22 -7 -5 -2 -14)
1969/12/31/18:00:18.705,(23 -9 8 0 0 3 7 24)
1969/12/31/18:00:18.707,(15 44 29 15 3 3 -4 5)
1969/12/31/18:00:18.707,(-14 -10 9 10 6 1 4 -11)
1969/12/31/18:00:18.730,(25 22 10 8 5 7 9 21)
1969/12/31/18:00:18.730,(1 -4 -6 -2 -1 2 -5 -21)
1969/12/31/18:00:18.731,(-62 -36 -23 -11 -8 -13 -5 -16)
1969/12/31/18:00:18.731,(40 18 9 8 9 4 12 28)
1969/12/31/18:00:18.755,(-4 3 2 -4 -3 5 3 -3)
1969/12/31/18:00:18.755,(15 0 -2 -1 4 2 4 14)
1969/12/31/18:00:18.756,(-20 -11 -3 -3 -4 0 -8 -21)
1969/12/31/18:00:18.756,(-2 -1 -1 -1 4 2 8 19)
1969/12/31/18:00:18.770,(7 -8 -11 -12 -7 -5 2 7)
1969/12/31/18:00:18.770,(-17 -13 6 5 4 -4 -7 -9)
1969/12/31/18:00:18.779,(55 37 4 0 -4 -5 -11 4)
1969/12/31/18:00:18.779,(-17 -7 -2 -3 -2 1 2 -5)
1969/12/31/18:00:18.796,(5 -1 -4 -4 -1 -3 -2 -4)
1969/12/31/18:00:18.796,(17 5 7 8 6 7 2 11)
1969/12/31/18:00:18.798,(-25 -12 -10 -8 -4 0 2 -7)
1969/12/31/18:00:18.798,(10 1 11 7 3 1 -5 -1)
1969/12/31/18:00:18.821,(9 -4 -4 -4 -2 0 16 26)
1969/12/31/18:00:18.821,(2 26 22 11 2 -3 11 22)
1969/12/31/18:00:18.822,(9 0 -12 -5 -8 -10 -19 -21)
1969/12/31/18:00:18.822,(2 -9 -11 -5 -3 -5 -9 -11)
1969/12/31/18:00:18.836,(-11 -12 0 -2 -3 2 2 -4)
1969/12/31/18:00:18.836,(4 -10 -18 -9 -3 -1 2 18)
