time,.data
1969/12/31/18:00:18.284,(5 8 -28 -24 -2 1 -2 3)
1969/12/31/18:00:18.284,(1 2 42 19 13 3 2 2)
1969/12/31/18:00:18.285,(-2 2 -10 -44 -17 -4 -3 -2)
1969/12/31/18:00:18.285,(12 23 73 123 36 10 7 7)
1969/12/31/18:00:18.307,(-3 -9 -20 -32 0 -1 -2 -3)
1969/12/31/18:00:18.307,(-9 -13 -40 -26 -20 -10 -9 -8)
1969/12/31/18:00:18.307,(-8 -15 -35 -44 -16 -4 -3 -5)
1969/12/31/18:00:18.307,(-5 -4 -17 -6 0 -3 -3 -3)
1969/12/31/18:00:18.322,(2 7 41 45 3 1 2 1)
1969/12/31/18:00:18.322,(-5 -8 -23 -41 -11 -4 -4 -2)
1969/12/31/18:00:18.322,(-3 -4 -7 18 -1 -3 -2 -3)
1969/12/31/18:00:18.322,(-4 -8 -43 -94 -22 -4 -3 -5)
1969/12/31/18:00:18.344,(0 2 -6 8 0 -1 -1 -1)
1969/12/31/18:00:18.344,(8 14 62 86 21 9 5 8)
1969/12/31/18:00:18.345,(3 7 8 14 4 -1 0 3)
1969/12/31/18:00:18.345,(4 3 5 16 4 2 -1 1)
1969/12/31/18:00:18.367,(5 8 25 -1 -1 1 1 2)
1969/12/31/18:00:18.367,(-10 -12 -29 -44 -13 -3 -1 -5)
1969/12/31/18:00:18.367,(-2 -25 -37 0 -1 -1 2 7)
1969/12/31/18:00:18.367,(4 11 11 -16 -5 -2 -1 1)
1969/12/31/18:00:18.382,(-8 -11 -24 -78 -15 -8 -6 -5)
1969/12/31/18:00:18.382,(-11 -10 -23 13 -13 -7 -16 -18)
1969/12/31/18:00:18.382,(15 28 93 118 33 7 4 8)
1969/12/31/18:00:18.382,(-11 -16 -17 -19 -4 3 6 3)
1969/12/31/18:00:18.404,(6 12 15 19 2 1 -2 -1)
1969/12/31/18:00:18.404,(-1 -1 -15 -39 2 4 9 1)
1969/12/31/18:00:18.405,(-7 -8 -11 -22 -22 -4 0 -10)
1969/12/31/18:00:18.405,(-3 4 -6 -20 11 -2 -6 -7)
1969/12/31/18:00:18.427,(-3 2 8 49 9 -4 -9 -6)
1969/12/31/18:00:18.427,(7 6 -6 14 7 2 3 6)
1969/12/31/18:00:18.427,(-8 -25 -48 -49 -12 -4 -4 -3)
1969/12/31/18:00:18.427,(6 21 25 17 -3 -1 -1 -6)
1969/12/31/18:00:18.442,(0 16 27 23 6 5 7 2)
1969/12/31/18:00:18.442,(3 18 -6 -29 -9 -9 -7 -6)
1969/12/31/18:00:18.442,(-4 -1 0 -19 -7 -2 -5 -5)
1969/12/31/18:00:18.442,(-10 -32 -27 -7 -10 -5 -7 -4)
1969/12/31/18:00:18.472,(-2 -18 -9 22 5 -1 -1 -3)
1969/12/31/18:00:18.472,(3 -20 23 14 3 3 7 6)
1969/12/31/18:00:18.473,(6 16 -7 -4 3 0 4 3)
1969/12/31/18:00:18.473,(2 20 15 6 0 0 -4 -2)
1969/12/31/18:00:18.487,(0 8 -16 -10 -4 -1 0 -2)
1969/12/31/18:00:18.487,(4 10 5 -4 -1 -2 0 4)
1969/12/31/18:00:18.487,(-2 -2 -2 6 4 0 -1 -3)
1969/12/31/18:00:18.487,(-3 -6 -5 -6 0 -3 -1 -1)
1969/12/31/18:00:18.502,(1 -1 10 5 0 2 3 4)
1969/12/31/18:00:18.502,(-6 -16 -12 -11 -3 0 -1 -3)
1969/12/31/18:00:18.502,(-1 3 -1 2 2 -1 -3 -4)
1969/12/31/18:00:18.502,(1 1 14 11 0 0 1 2)
1969/12/31/18:00:18.524,(-3 -9 -8 -8 -3 -2 0 1)
1969/12/31/18:00:18.524,(1 0 2 -3 0 1 -4 -4)
1969/12/31/18:00:18.525,(-6 0 4 5 1 -1 -2 -1)
1969/12/31/18:00:18.525,(1 -8 5 5 -2 0 0 0)
1969/12/31/18:00:18.547,(1 -7 -4 -1 -1 0 -1 2)
1969/12/31/18:00:18.547,(-3 0 -4 -8 1 0 -2 -2)
1969/12/31/18:00:18.547,(0 1 4 5 0 -1 -1 -2)
1969/12/31/18:00:18.547,(-3 -1 -1 2 0 -3 -4 -6)
1969/12/31/18:00:18.570,(-1 -6 -9 -4 -2 -2 -1 7)
1969/12/31/18:00:18.570,(-1 12 7 6 3 4 3 -9)
1969/12/31/18:00:18.571,(-5 -5 -6 -5 -2 -4 -7 -14)
1969/12/31/18:00:18.571,(23 5 2 1 -2 -1 7 41)
1969/12/31/18:00:18.576,(24 -8 -8 -6 -5 -5 -6 -7)
1969/12/31/18:00:18.576,(-62 -29 -12 -12 -9 -9 -11 -24)
1969/12/31/18:00:18.583,(-11 -4 2 2 0 -1 -2 -5)
1969/12/31/18:00:18.583,(-15 0 -1 0 0 1 3 -8)
1969/12/31/18:00:18.599,(3 9 2 0 -3 -1 -2 1)
1969/12/31/18:00:18.599,(40 17 1 -1 1 1 5 21)
1969/12/31/18:00:18.600,(5 9 4 1 1 1 1 -2)
1969/12/31/18:00:18.600,(-37 -20 -5 -5 -3 2 -3 -12)
1969/12/31/18:00:18.615,(7 5 3 0 1 -7 3 13)
1969/12/31/18:00:18.615,(54 19 7 6 4 7 4 19)
1969/12/31/18:00:18.621,(-28 -19 -14 -10 -8 -9 -3 -12)
1969/12/31/18:00:18.621,(5 8 6 1 1 13 1 -2)
1969/12/31/18:00:18.636,(-48 -16 0 2 -2 -9 5 -26)
1969/12/31/18:00:18.636,(4 -4 -4 -2 1 2 3 21)
1969/12/31/18:00:18.643,(38 10 2 2 -1 1 2 21)
1969/12/31/18:00:18.643,(7 -2 -2 -3 -4 -16 -8 3)
1969/12/31/18:00:18.659,(-36 -7 1 1 8 31 12 -35)
1969/12/31/18:00:18.659,(8 0 -2 -4 -8 -15 -3 47)
1969/12/31/18:00:18.660,(13 -2 -8 -8 -6 1 12 15)
1969/12/31/18:00:18.660,(-32 2 5 4 3 -6 -11 -25)
1969/12/31/18:00:18.675,(58 20 4 1 0 4 9 32)
1969/12/31/18:00:18.675,(-14 -7 0 3 4 9 15 -15)
1969/12/31/18:00:18.681,(-14 -20 -9 -3 4 -1 -30 -7)
1969/12/31/18:00:18.681,(-8 -15 1 5 5 24 32 -9)
1969/12/31/18:00:18.696,(-25 -20 -7 -6 -10 -22 4 24)
1969/12/31/18:00:18.696,(11 25 6 2 -1 -6 -17 -29)
1969/12/31/18:00:18.703,(24 28 5 -4 -4 6 26 16)
1969/12/31/18:00:18.703,(26 1 -8 -4 -1 4 -13 3)
1969/12/31/18:00:18.719,(-23 -30 -5 -1 1 -9 -14 -9)
1969/12/31/18:00:18.719,(-13 -13 0 2 2 21 27 1)
1969/12/31/18:00:18.720,(-38 6 3 0 -8 -29 -13 -70)
1969/12/31/18:00:18.720,(8 -9 -6 -3 -2 -2 -38 -9)
1969/12/31/18:00:18.743,(18 8 -1 -4 -4 1 -10 0)
1969/12/31/18:00:18.743,(-64 -19 -7 -7 -8 -26 -17 -20)
1969/12/31/18:00:18.749,(36 4 9 8 7 15 18 40)
1969/12/31/18:00:18.749,(34 19 3 1 2 20 24 28)
1969/12/31/18:00:18.756,(-72 -19 -5 -1 0 -7 -33 -73)
1969/12/31/18:00:18.756,(27 14 1 -1 -3 -6 -21 -23)
1969/12/31/18:00:18.763,(8 0 -6 -4 -6 -4 3 7)
1969/12/31/18:00:18.763,(12 -9 -1 -3 -5 -29 -12 11)
1969/12/31/18:00:18.779,(21 16 4 0 3 3 20 39)
1969/12/31/18:00:18.779,(-4 4 2 2 7 30 23 -17)
1969/12/31/18:00:18.780,(-4 9 11 9 7 10 14 48)
1969/12/31/18:00:18.780,(-61 -39 -7 0 -4 -23 -12 -15)
1969/12/31/18:00:18.795,(54 9 -11 -12 -10 -3 16 20)
1969/12/31/18:00:18.795,(-26 -13 -5 -4 -5 -24 -12 -18)
1969/12/31/18:00:18.801,(13 12 9 5 6 31 30 -3)
1969/12/31/18:00:18.801,(61 30 1 -1 -2 -7 11 41)
1969/12/31/18:00:18.816,(-23 -7 5 3 3 5 6 -8)
1969/12/31/18:00:18.816,(41 23 2 -2 -1 3 22 35)
1969/12/31/18:00:18.824,(-16 -36 -9 -3 -3 -16 -41 -26)
1969/12/31/18:00:18.824,(-39 -18 -10 -8 -8 -5 -8 -12)
1969/12/31/18:00:18.839,(19 -3 -5 1 0 -4 -10 -2)
1969/12/31/18:00:18.839,(32 15 4 0 1 7 14 27)
1969/12/31/18:00:18.840,(4 15 13 9 6 0 -1 17)
1969/12/31/18:00:18.840,(-29 -21 -9 -3 -1 -12 6 -15)
1969/12/31/18:00:18.855,(16 -11 -9 -6 -3 4 10 65)
1969/12/31/18:00:18.855,(-9 2 -2 -4 -10 -10 -9 -19)
1969/12/31/18:00:18.861,(23 16 3 3 7 12 3 16)
1969/12/31/18:00:18.861,(-9 13 13 9 3 -13 -6 -33)
1969/12/31/18:00:18.876,(-95 -31 -11 -7 -5 5 -36 -91)
1969/12/31/18:00:18.876,(-4 -27 -10 -4 2 33 1 13)
1969/12/31/18:00:18.883,(-9 10 7 0 -4 -53 -25 -26)
1969/12/31/18:00:18.883,(-37 -20 -9 -2 2 8 6 1)
1969/12/31/18:00:18.899,(8 28 10 3 0 -14 -20 -35)
1969/12/31/18:00:18.899,(14 12 2 1 2 -2 -5 -1)
1969/12/31/18:00:18.900,(-46 -34 -10 -4 -1 6 -5 -12)
1969/12/31/18:00:18.900,(-13 -13 -7 -5 -1 10 -2 -8)
1969/12/31/18:00:18.915,(20 35 9 3 0 -3 4 -5)
1969/12/31/18:00:18.915,(-34 -42 -1 3 5 -1 8 3)
1969/12/31/18:00:18.921,(30 11 -7 -4 -2 7 -10 -24)
1969/12/31/18:00:18.921,(18 33 12 2 -3 -5 9 12)
1969/12/31/18:00:18.936,(24 10 5 4 3 10 8 9)
1969/12/31/18:00:18.936,(-7 -2 2 4 5 -2 -3 -2)
1969/12/31/18:00:18.943,(-14 -10 -6 -5 -9 -18 -4 -14)
1969/12/31/18:00:18.943,(17 7 1 -1 6 26 14 -28)
1969/12/31/18:00:18.968,(44 -14 -5 -1 -5 -8 2 59)
1969/12/31/18:00:18.968,(-25 -7 -2 -1 -6 -34 -47 -32)
1969/12/31/18:00:18.969,(-12 -4 -9 -9 -4 18 28 24)
1969/12/31/18:00:18.969,(43 10 -1 -3 -3 -6 -25 -33)
1969/12/31/18:00:18.975,(21 24 12 3 6 16 25 18)
1969/12/31/18:00:18.975,(-23 -22 -12 -5 -5 -18 -2 -12)
1969/12/31/18:00:18.981,(-24 -18 3 8 9 10 10 22)
1969/12/31/18:00:18.981,(5 9 0 -4 -8 -5 -7 7)
1969/12/31/18:00:18.996,(-2 3 5 5 5 -3 3 16)
1969/12/31/18:00:18.996,(34 5 -7 -8 -8 3 -4 -23)
1969/12/31/18:00:19.003,(-8 9 4 0 0 6 6 37)
1969/12/31/18:00:19.003,(-6 -23 -12 -4 -4 -9 3 33)
1969/12/31/18:00:19.019,(-2 13 12 12 12 14 5 7)
1969/12/31/18:00:19.019,(-43 -26 -18 -12 -11 -5 -25 -68)
1969/12/31/18:00:19.020,(30 2 -3 -2 -2 -8 7 14)
1969/12/31/18:00:19.020,(13 9 4 1 11 68 22 9)
1969/12/31/18:00:19.034,(-38 -23 -18 -16 -24 -50 -33 -35)
1969/12/31/18:00:19.034,(24 28 14 9 7 3 23 69)
1969/12/31/18:00:19.049,(-25 -10 -5 0 -2 -10 -18 -70)
1969/12/31/18:00:19.049,(-14 -15 2 4 6 8 -22 -2)
1969/12/31/18:00:19.056,(26 23 5 7 5 10 47 43)
1969/12/31/18:00:19.056,(-19 -24 -3 0 3 19 -5 -30)
1969/12/31/18:00:19.063,(-25 -5 -3 -4 -8 1 -16 -39)
1969/12/31/18:00:19.063,(1 13 1 -1 -7 -18 -11 -5)
1969/12/31/18:00:19.079,(-13 -26 -14 -9 -3 6 6 41)
1969/12/31/18:00:19.079,(2 37 8 0 -4 -16 3 0)
1969/12/31/18:00:19.080,(6 -7 0 -5 -4 -3 -12 10)
1969/12/31/18:00:19.080,(6 5 12 12 11 -2 15 23)
1969/12/31/18:00:19.093,(-58 -28 -9 -5 -3 5 -4 -62)
1969/12/31/18:00:19.093,(33 1 -9 -6 -9 -25 -5 49)
1969/12/31/18:00:19.101,(11 27 9 6 10 41 -6 3)
1969/12/31/18:00:19.101,(-5 -11 -4 -6 -9 -30 13 -32)
1969/12/31/18:00:19.116,(3 -12 -5 -1 4 12 5 1)
1969/12/31/18:00:19.116,(-1 -2 1 2 0 -12 -1 27)
1969/12/31/18:00:19.123,(-18 12 9 7 8 2 12 24)
1969/12/31/18:00:19.123,(35 16 1 -5 -6 -14 -3 -18)
1969/12/31/18:00:19.139,(16 11 4 2 0 4 -10 -23)
1969/12/31/18:00:19.139,(-64 1 -5 -6 -6 -12 -8 -86)
1969/12/31/18:00:19.140,(22 -18 -7 0 3 -7 2 16)
1969/12/31/18:00:19.140,(-26 -7 -5 -6 -11 9 19 -1)
1969/12/31/18:00:19.153,(12 0 -1 -2 -1 -3 -33 -17)
1969/12/31/18:00:19.153,(-35 -12 -1 2 3 -12 14 -13)
1969/12/31/18:00:19.161,(-40 -17 -7 -6 4 8 -28 -63)
1969/12/31/18:00:19.161,(28 -4 -11 -2 -11 1 -25 -32)
1969/12/31/18:00:19.184,(-11 11 4 -3 -7 -22 -17 -27)
1969/12/31/18:00:19.184,(13 6 5 0 -5 1 -17 18)
1969/12/31/18:00:19.185,(24 18 5 10 17 9 7 20)
1969/12/31/18:00:19.185,(-26 -28 -2 -4 -19 -29 2 10)
1969/12/31/18:00:19.199,(30 4 -4 -3 3 41 -8 23)
1969/12/31/18:00:19.199,(11 -15 -10 -1 8 56 17 -8)
1969/12/31/18:00:19.200,(-24 -17 -7 -6 -20 -41 20 -13)
1969/12/31/18:00:19.200,(21 4 -10 -16 6 23 -8 24)
1969/12/31/18:00:19.213,(-34 6 9 3 -13 -17 0 -18)
1969/12/31/18:00:19.213,(8 -5 -3 -3 1 -15 22 -9)
1969/12/31/18:00:19.221,(30 3 -1 12 5 28 -3 -1)
1969/12/31/18:00:19.221,(5 19 10 14 21 17 13 23)
1969/12/31/18:00:19.236,(-81 -16 2 15 20 -43 -27 -50)
1969/12/31/18:00:19.236,(70 40 3 -12 -38 -14 -27 -35)
1969/12/31/18:00:19.243,(-4 -31 -19 -42 -35 8 3 14)
1969/12/31/18:00:19.243,(-16 -3 3 3 4 -24 0 15)
1969/12/31/18:00:19.259,(28 -1 -6 -10 31 60 -15 -15)
1969/12/31/18:00:19.259,(16 2 12 40 32 20 14 40)
1969/12/31/18:00:19.260,(19 15 14 32 46 -25 -1 5)
1969/12/31/18:00:19.260,(-13 -10 -21 -56 -79 1 -1 3)
1969/12/31/18:00:19.273,(21 -9 -6 0 -39 -58 4 15)
1969/12/31/18:00:19.273,(-24 3 0 -27 -8 -7 -17 18)
1969/12/31/18:00:19.281,(4 -7 -4 1 26 35 24 -17)
1969/12/31/18:00:19.281,(23 2 0 14 18 -18 -44 7)
1969/12/31/18:00:19.296,(86 17 5 17 32 3 23 53)
1969/12/31/18:00:19.296,(-13 -20 -4 -9 -52 -11 -17 9)
1969/12/31/18:00:19.303,(6 19 9 -1 -21 -19 -4 -1)
1969/12/31/18:00:19.303,(-14 8 11 13 12 5 29 3)
1969/12/31/18:00:19.318,(6 0 -2 9 25 21 -21 41)
1969/12/31/18:00:19.318,(9 -9 -13 -21 -16 -48 -10 40)
1969/12/31/18:00:19.326,(5 -9 -5 -7 -3 17 -5 16)
1969/12/31/18:00:19.326,(1 24 10 -2 -20 -18 6 -9)
1969/12/31/18:00:19.333,(-10 -24 -6 -5 -17 -14 15 3)
1969/12/31/18:00:19.333,(-49 -5 6 18 38 26 18 21)
1969/12/31/18:00:19.341,(-7 6 4 21 8 -29 -26 -34)
1969/12/31/18:00:19.341,(-32 -31 -15 -25 -23 8 -17 -59)
1969/12/31/18:00:19.356,(-5 28 9 -9 -10 5 17 -1)
1969/12/31/18:00:19.356,(-23 -18 -5 -4 -2 7 -20 -34)
1969/12/31/18:00:19.363,(33 -2 -2 1 -2 -22 11 34)
1969/12/31/18:00:19.363,(-3 -5 0 23 19 -5 -9 6)
1969/12/31/18:00:19.378,(-44 -6 -7 5 30 19 -2 -43)
1969/12/31/18:00:19.378,(39 -6 -15 -31 -25 25 25 43)
1969/12/31/18:00:19.386,(4 22 11 -2 -4 19 9 -9)
1969/12/31/18:00:19.386,(7 6 2 8 27 5 6 12)
1969/12/31/18:00:19.393,(-35 -45 -25 -19 -28 -20 -15 -8)
1969/12/31/18:00:19.393,(19 -13 -23 13 27 -13 1 -2)
1969/12/31/18:00:19.401,(-8 21 17 3 -6 -21 -15 6)
1969/12/31/18:00:19.401,(-22 -17 9 13 33 35 20 19)
1969/12/31/18:00:19.416,(17 8 -16 -19 -38 -15 -7 -26)
1969/12/31/18:00:19.416,(69 32 16 15 11 -2 13 70)
1969/12/31/18:00:19.423,(-16 -85 -58 -17 -16 -9 -16 -20)
1969/12/31/18:00:19.423,(6 39 7 -8 9 22 8 0)
1969/12/31/18:00:19.438,(63 92 87 29 4 -6 15 38)
1969/12/31/18:00:19.438,(-26 -49 -19 23 49 23 -3 -14)
1969/12/31/18:00:19.447,(-13 8 -11 -21 -46 -35 -12 -36)
1969/12/31/18:00:19.447,(-31 2 4 -5 2 12 -19 -71)
1969/12/31/18:00:19.461,(-22 -57 -52 -28 -11 2 14 5)
1969/12/31/18:00:19.461,(-12 4 -22 -17 4 -10 -31 -36)
1969/12/31/18:00:19.469,(-104 19 73 54 62 19 -4 -30)
1969/12/31/18:00:19.469,(24 -35 -43 -6 -46 -21 26 54)
1969/12/31/18:00:19.484,(18 -21 9 -8 13 51 23 16)
1969/12/31/18:00:19.484,(20 -41 -69 -28 -28 -43 -5 -7)
1969/12/31/18:00:19.485,(-4 -25 -63 -21 5 16 -4 -1)
1969/12/31/18:00:19.485,(8 113 104 57 31 10 8 -5)
1969/12/31/18:00:19.507,(-12 -68 -2 21 11 -7 -4 -12)
1969/12/31/18:00:19.507,(-14 47 7 9 -4 17 6 -13)
1969/12/31/18:00:19.508,(45 -93 -49 -20 -17 -5 7 26)
1969/12/31/18:00:19.508,(2 72 -5 -18 1 -19 -30 -5)
1969/12/31/18:00:19.530,(91 127 106 45 17 -6 -1 -25)
1969/12/31/18:00:19.530,(21 -53 -29 3 20 17 7 42)
1969/12/31/18:00:19.530,(-45 -53 -27 -32 -39 19 -8 -18)
1969/12/31/18:00:19.530,(-35 -60 -41 -24 -31 -40 -12 -37)
1969/12/31/18:00:19.544,(-19 -114 -96 -35 2 -22 -29 48)
1969/12/31/18:00:19.544,(25 75 46 14 -16 12 5 -11)
1969/12/31/18:00:19.545,(70 70 46 20 13 -12 35 52)
1969/12/31/18:00:19.545,(-1 -73 -47 -25 -24 -8 -6 15)
1969/12/31/18:00:19.567,(-18 -49 -49 -12 -2 19 16 14)
1969/12/31/18:00:19.567,(-43 15 -65 -34 -16 -16 -5 -40)
1969/12/31/18:00:19.568,(-3 52 75 51 28 18 8 20)
1969/12/31/18:00:19.568,(-18 -84 -61 14 18 -41 -15 -8)
1969/12/31/18:00:19.590,(17 127 102 33 6 40 -3 1)
1969/12/31/18:00:19.590,(-32 -122 -72 -37 -2 17 6 3)
1969/12/31/18:00:19.590,(11 66 9 -5 -13 -32 -10 -36)
1969/12/31/18:00:19.590,(88 116 127 73 36 49 39 75)
1969/12/31/18:00:19.604,(-43 -128 -128 -53 -24 -50 -22 -40)
1969/12/31/18:00:19.604,(43 112 127 56 43 41 25 23)
1969/12/31/18:00:19.605,(8 48 8 -29 -44 -14 -8 12)
1969/12/31/18:00:19.605,(17 -33 -38 -19 -9 -12 14 30)
1969/12/31/18:00:19.627,(18 -13 -20 -2 5 8 4 22)
1969/12/31/18:00:19.627,(16 -61 -15 -8 -26 -23 -7 -29)
1969/12/31/18:00:19.628,(-8 -73 -67 -25 -15 -25 -12 2)
1969/12/31/18:00:19.628,(-23 -82 -52 -18 34 25 -1 -17)
1969/12/31/18:00:19.650,(1 -5 -82 -34 -35 -2 16 13)
1969/12/31/18:00:19.650,(15 34 59 37 13 -10 21 60)
1969/12/31/18:00:19.650,(-28 22 60 34 13 38 0 -46)
1969/12/31/18:00:19.650,(50 114 33 3 -6 7 12 22)
1969/12/31/18:00:19.664,(2 18 25 12 6 -16 -4 -44)
1969/12/31/18:00:19.665,(-33 -51 -23 -6 -7 -14 -27 -10)
1969/12/31/18:00:19.665,(98 -95 -102 -65 -21 -6 -10 6)
1969/12/31/18:00:19.665,(-51 37 59 48 20 -2 -10 -54)
1969/12/31/18:00:19.687,(-32 -5 28 37 9 8 26 18)
1969/12/31/18:00:19.687,(-22 -53 -49 -5 1 6 -13 -24)
1969/12/31/18:00:19.688,(-62 -85 -68 -32 -43 4 -2 -11)
1969/12/31/18:00:19.688,(61 -128 -113 -57 -65 -90 -39 -72)
1969/12/31/18:00:19.710,(-14 -50 -42 -2 28 29 0 19)
1969/12/31/18:00:19.710,(-5 127 126 46 11 32 29 -1)
1969/12/31/18:00:19.710,(-49 -117 -76 -31 -13 -35 -36 -52)
1969/12/31/18:00:19.710,(-60 17 -18 21 68 35 -16 -10)
1969/12/31/18:00:19.724,(69 106 111 2 -90 -24 18 15)
1969/12/31/18:00:19.724,(-65 -128 -128 -55 -10 -8 -19 -44)
1969/12/31/18:00:19.725,(49 41 -13 1 10 14 23 53)
1969/12/31/18:00:19.725,(29 81 102 47 4 -13 12 55)
1969/12/31/18:00:19.748,(-76 -128 -105 -23 14 8 -4 -42)
1969/12/31/18:00:19.748,(88 127 116 88 48 29 17 45)
1969/12/31/18:00:19.748,(16 -86 -96 -19 -34 -39 8 80)
1969/12/31/18:00:19.748,(-69 -55 -24 5 19 30 -10 -27)
1969/12/31/18:00:19.770,(-4 -21 -28 -15 19 15 20 -14)
1969/12/31/18:00:19.770,(17 -29 -31 -29 -24 -39 -13 4)
1969/12/31/18:00:19.770,(-31 40 66 33 38 23 7 21)
1969/12/31/18:00:19.771,(-19 -128 -128 -72 -44 -30 -4 8)
1969/12/31/18:00:19.785,(1 107 98 48 18 24 -20 -34)
1969/12/31/18:00:19.785,(71 -105 -89 -36 -41 -2 30 47)
1969/12/31/18:00:19.792,(47 124 72 33 13 -17 -9 -21)
1969/12/31/18:00:19.792,(-35 -128 -89 -26 16 29 18 -3)
1969/12/31/18:00:19.815,(-10 32 -64 -27 -23 -31 -17 -3)
1969/12/31/18:00:19.815,(8 127 109 72 9 -17 -5 -15)
1969/12/31/18:00:19.815,(-51 -57 -9 -21 -6 -7 -23 -73)
1969/12/31/18:00:19.815,(11 -46 -48 -39 -29 24 19 10)
1969/12/31/18:00:19.830,(1 66 84 51 33 -5 4 26)
1969/12/31/18:00:19.830,(-70 -128 -119 -46 -21 -29 -30 -44)
1969/12/31/18:00:19.830,(33 -3 -31 14 46 9 2 48)
1969/12/31/18:00:19.830,(3 108 93 32 -19 25 14 -33)
1969/12/31/18:00:19.844,(-31 -108 -60 -28 -16 -17 -29 -102)
1969/12/31/18:00:19.844,(11 -60 -61 -12 8 1 -12 -7)
1969/12/31/18:00:19.845,(49 88 84 47 -9 10 34 47)
1969/12/31/18:00:19.845,(-47 -116 -58 -27 24 11 -1 28)
1969/12/31/18:00:19.867,(-18 -18 11 3 -3 -4 6 16)
1969/12/31/18:00:19.867,(-49 79 81 24 6 -7 9 30)
1969/12/31/18:00:19.868,(-35 -128 -112 -18 12 -6 -5 17)
1969/12/31/18:00:19.868,(38 22 -52 -40 -43 2 -2 -14)
1969/12/31/18:00:19.890,(60 94 111 54 18 4 13 43)
1969/12/31/18:00:19.890,(-67 -121 -74 -13 -9 5 -6 -79)
1969/12/31/18:00:19.890,(1 127 32 2 -19 6 6 32)
1969/12/31/18:00:19.890,(4 27 73 20 -3 -11 0 3)
1969/12/31/18:00:19.903,(-58 -128 -128 -52 -1 -21 -18 -17)
1969/12/31/18:00:19.903,(82 127 80 9 -2 -2 1 29)
1969/12/31/18:00:19.912,(-12 -36 28 19 31 31 0 -49)
1969/12/31/18:00:19.912,(7 -45 -24 -4 -13 -15 -16 -23)
1969/12/31/18:00:19.927,(-19 -22 0 5 2 -3 -1 13)
1969/12/31/18:00:19.927,(19 2 -3 -4 3 -21 -2 10)
1969/12/31/18:00:19.929,(-75 -80 -60 -42 1 28 -16 -72)
1969/12/31/18:00:19.929,(-28 127 103 39 25 17 6 -56)
1969/12/31/18:00:19.950,(10 -99 -62 -20 -15 -9 -3 -5)
1969/12/31/18:00:19.950,(-13 50 29 15 26 -9 -13 13)
1969/12/31/18:00:19.951,(14 -96 -67 -37 -9 14 0 -10)
1969/12/31/18:00:19.951,(-17 81 53 3 -19 -12 -7 -24)
1969/12/31/18:00:19.963,(-8 78 54 19 10 -3 -20 -36)
1969/12/31/18:00:19.963,(-46 -39 14 8 22 10 14 -2)
1969/12/31/18:00:19.972,(17 23 -30 -10 -23 -25 -14 -18)
1969/12/31/18:00:19.972,(30 -33 -10 22 22 -11 -5 19)
1969/12/31/18:00:19.987,(21 -5 -2 -16 -44 -1 9 17)
1969/12/31/18:00:19.987,(-21 -35 -14 -73 -19 47 -5 -26)
1969/12/31/18:00:19.989,(-22 -21 -13 69 59 -6 3 1)
1969/12/31/18:00:19.989,(20 35 1 -32 -56 -4 -6 14)
1969/12/31/18:00:20.010,(-26 9 18 50 79 -20 -6 -22)
1969/12/31/18:00:20.010,(-3 -53 -48 -9 -19 -8 -16 -31)
1969/12/31/18:00:20.011,(-17 -40 -6 -26 -13 16 19 10)
1969/12/31/18:00:20.011,(-44 -96 -90 -6 8 -18 -15 0)
1969/12/31/18:00:20.024,(47 118 101 1 -16 11 6 30)
1969/12/31/18:00:20.024,(-32 -13 -14 2 -10 1 23 53)
1969/12/31/18:00:20.032,(-17 -33 -28 -21 -11 -19 -7 -15)
1969/12/31/18:00:20.032,(33 90 37 38 32 -14 6 -8)
1969/12/31/18:00:20.047,(-46 -65 -34 -42 -36 23 -12 -32)
1969/12/31/18:00:20.047,(-24 -78 -93 -32 -29 12 16 -23)
1969/12/31/18:00:20.049,(-5 89 92 21 -8 -16 -10 -12)
1969/12/31/18:00:20.049,(-9 -62 -43 -2 15 -3 -1 2)
1969/12/31/18:00:20.077,(-32 -44 -40 11 11 4 33 79)
1969/12/31/18:00:20.077,(-18 80 79 35 28 -19 -30 -71)
1969/12/31/18:00:20.079,(-31 -37 -29 -58 -57 21 18 10)
1969/12/31/18:00:20.079,(19 -98 -62 -41 -35 -24 -12 13)
1969/12/31/18:00:20.083,(35 103 76 29 34 26 11 18)
1969/12/31/18:00:20.083,(20 14 0 23 6 -2 -12 -3)
1969/12/31/18:00:20.092,(19 -40 -6 22 18 -21 -6 23)
1969/12/31/18:00:20.092,(6 68 7 1 20 29 1 -18)
1969/12/31/18:00:20.107,(8 -124 -74 -30 -34 -14 5 53)
1969/12/31/18:00:20.107,(62 41 8 -6 6 7 0 2)
1969/12/31/18:00:20.109,(-33 78 62 15 -12 -8 -23 -36)
1969/12/31/18:00:20.109,(-50 -87 -41 -5 8 2 -10 -36)
1969/12/31/18:00:20.137,(26 -28 -43 -28 -28 -23 -18 -34)
1969/12/31/18:00:20.137,(16 87 35 3 -6 -12 -10 -8)
1969/12/31/18:00:20.139,(22 20 14 30 35 13 27 25)
1969/12/31/18:00:20.139,(-61 -68 -10 -13 -20 -12 -6 -12)
1969/12/31/18:00:20.143,(11 -42 -47 -12 7 8 3 -7)
1969/12/31/18:00:20.143,(-43 -11 2 9 -5 7 -2 -3)
1969/12/31/18:00:20.152,(-11 -22 -43 -37 -9 -9 -5 -17)
1969/12/31/18:00:20.152,(51 116 89 43 12 -15 -1 34)
1969/12/31/18:00:20.167,(-41 -52 -10 9 18 20 -3 -43)
1969/12/31/18:00:20.167,(18 -110 -66 -28 -19 4 16 23)
1969/12/31/18:00:20.169,(-7 -6 -23 -3 -7 -16 -16 -5)
1969/12/31/18:00:20.169,(49 91 69 16 12 6 -3 9)
1969/12/31/18:00:20.190,(-4 -85 -42 -14 -3 -15 -6 -7)
1969/12/31/18:00:20.190,(24 92 77 20 2 -6 -19 -9)
1969/12/31/18:00:20.191,(13 -48 -29 -2 5 12 12 18)
1969/12/31/18:00:20.191,(-26 -72 -26 7 12 9 13 36)
1969/12/31/18:00:20.203,(-9 50 16 -2 -10 -15 -29 -46)
1969/12/31/18:00:20.203,(-16 -122 -80 -30 5 8 22 23)
1969/12/31/18:00:20.229,(35 122 91 39 36 29 2 39)
1969/12/31/18:00:20.229,(-10 -15 -19 -23 -19 26 8 7)
1969/12/31/18:00:20.230,(0 -68 -90 -25 -10 -4 11 36)
1969/12/31/18:00:20.230,(-4 69 50 8 1 -15 -29 -41)
1969/12/31/18:00:20.233,(-18 19 19 13 15 -8 14 2)
1969/12/31/18:00:20.233,(-5 -31 6 15 1 -19 -18 -30)
1969/12/31/18:00:20.250,(1 -54 -35 -26 -3 3 6 7)
1969/12/31/18:00:20.250,(5 -17 -8 -4 0 5 7 21)
1969/12/31/18:00:20.251,(42 -35 -8 -7 -32 -11 4 8)
1969/12/31/18:00:20.251,(59 95 79 45 57 48 14 36)
1969/12/31/18:00:20.263,(-24 31 0 -12 -51 -22 -11 -16)
1969/12/31/18:00:20.263,(9 -54 -48 -20 -14 12 18 14)
1969/12/31/18:00:20.272,(-3 -2 -6 8 3 -22 -19 -4)
1969/12/31/18:00:20.272,(-9 -40 -14 -12 -2 4 2 35)
1969/12/31/18:00:20.287,(5 21 18 -14 -18 -19 -10 -5)
1969/12/31/18:00:20.287,(-17 -7 -23 52 57 19 8 -6)
1969/12/31/18:00:20.289,(29 25 21 -24 -25 5 2 14)
1969/12/31/18:00:20.289,(28 -60 -48 -16 -17 -25 1 21)
1969/12/31/18:00:20.310,(62 108 27 -6 -8 16 7 29)
1969/12/31/18:00:20.310,(-52 -37 4 -2 -12 -15 -10 -35)
1969/12/31/18:00:20.311,(25 18 21 16 13 2 -1 21)
1969/12/31/18:00:20.311,(-1 -11 -34 -10 1 1 6 23)
1969/12/31/18:00:20.323,(7 45 55 37 9 1 -2 -13)
1969/12/31/18:00:20.323,(-11 -128 -117 -52 1 24 15 -11)
1969/12/31/18:00:20.332,(10 116 70 26 -14 -14 -11 -36)
1969/12/31/18:00:20.332,(-16 -33 -15 -6 -3 3 -1 -8)
1969/12/31/18:00:20.347,(-16 -70 -32 13 20 -2 -7 -7)
1969/12/31/18:00:20.347,(5 -2 30 21 23 14 21 58)
1969/12/31/18:00:20.349,(-96 -74 -26 -9 -8 0 -20 -84)
1969/12/31/18:00:20.349,(10 -48 -59 -22 -30 -34 8 7)
1969/12/31/18:00:20.370,(-11 -9 -48 -22 10 11 -6 17)
1969/12/31/18:00:20.370,(36 114 102 10 -14 1 4 8)
1969/12/31/18:00:20.371,(35 -120 -85 -18 5 8 12 40)
1969/12/31/18:00:20.371,(7 28 -28 -2 -4 -30 -14 -8)
1969/12/31/18:00:20.384,(36 111 111 47 25 23 22 17)
1969/12/31/18:00:20.384,(16 -38 -34 -23 -31 -5 -13 2)
1969/12/31/18:00:20.392,(-60 -59 -78 -30 2 0 -5 -30)
1969/12/31/18:00:20.392,(65 80 92 72 34 7 2 -4)
1969/12/31/18:00:20.407,(-38 -120 -65 -6 -5 -3 7 -12)
1969/12/31/18:00:20.407,(-20 -28 -58 -5 14 -4 -8 26)
1969/12/31/18:00:20.409,(36 65 91 29 -14 -4 4 4)
1969/12/31/18:00:20.409,(-87 -102 -82 -50 -37 -17 -9 -42)
1969/12/31/18:00:20.430,(-19 -3 -20 2 12 -14 -15 0)
1969/12/31/18:00:20.430,(40 68 85 -9 -24 15 21 30)
1969/12/31/18:00:20.431,(-31 -73 -75 -14 21 -3 -11 -22)
1969/12/31/18:00:20.431,(-4 58 45 -1 -2 7 -14 -9)
1969/12/31/18:00:20.443,(27 42 53 19 6 1 14 21)
1969/12/31/18:00:20.443,(-51 -128 -121 -33 -19 -30 -23 -54)
1969/12/31/18:00:20.452,(-20 96 64 6 0 1 0 -14)
1969/12/31/18:00:20.452,(83 55 65 53 37 13 16 27)
1969/12/31/18:00:20.467,(-36 -91 -106 -39 -30 -4 -6 -10)
1969/12/31/18:00:20.467,(25 120 114 38 -6 -21 -3 -23)
1969/12/31/18:00:20.473,(-2 -100 -89 -30 -10 0 -5 -1)
1969/12/31/18:00:20.473,(-14 -33 -23 -2 0 -9 -5 -10)
1969/12/31/18:00:20.489,(-22 0 20 7 30 4 -3 -17)
1969/12/31/18:00:20.489,(10 104 53 17 -9 11 1 15)
1969/12/31/18:00:20.497,(21 6 31 10 -3 -2 9 14)
1969/12/31/18:00:20.497,(-28 -59 -65 -21 -9 2 -11 1)
1969/12/31/18:00:20.504,(1 20 9 -6 10 7 32 19)
1969/12/31/18:00:20.504,(-16 41 51 13 3 0 -19 -18)
1969/12/31/18:00:20.512,(27 -3 -11 -6 -27 -25 -12 -4)
1969/12/31/18:00:20.512,(-59 -40 -8 -19 -12 17 2 -9)
1969/12/31/18:00:20.527,(60 10 -6 15 27 27 21 58)
1969/12/31/18:00:20.527,(-20 -106 -72 -20 -6 -16 -17 -10)
1969/12/31/18:00:20.533,(-6 42 1 1 -2 -4 -3 2)
1969/12/31/18:00:20.533,(8 83 61 16 13 15 6 -13)
1969/12/31/18:00:20.550,(3 -16 9 -7 -17 -9 -17 -34)
1969/12/31/18:00:20.550,(-4 63 37 7 5 -10 6 6)
1969/12/31/18:00:20.551,(-25 -21 -38 -8 8 3 0 0)
1969/12/31/18:00:20.551,(-21 -108 -78 -29 -14 -10 -6 6)
1969/12/31/18:00:20.580,(2 112 81 29 14 9 18 8)
1969/12/31/18:00:20.580,(-4 -70 -66 -12 -2 -4 -13 -8)
1969/12/31/18:00:20.581,(23 -34 -1 8 17 13 11 31)
1969/12/31/18:00:20.581,(31 96 43 -3 -27 -11 -1 14)
1969/12/31/18:00:20.587,(-24 -60 -38 -12 13 -10 -19 -47)
1969/12/31/18:00:20.587,(-45 -49 -52 -34 -49 -23 -20 -73)
1969/12/31/18:00:20.601,(21 27 36 14 19 23 15 20)
1969/12/31/18:00:20.601,(-13 -128 -102 -38 -19 -11 3 12)
1969/12/31/18:00:20.610,(-24 42 63 31 15 -6 -15 -27)
1969/12/31/18:00:20.610,(23 81 44 30 20 27 23 18)
1969/12/31/18:00:20.611,(-8 58 12 0 -14 -9 -20 -42)
1969/12/31/18:00:20.611,(-57 -72 -46 -1 16 10 2 -13)
1969/12/31/18:00:20.633,(-20 -48 -60 -37 -55 -31 -21 -6)
1969/12/31/18:00:20.633,(7 -12 7 21 25 -12 -1 -18)
1969/12/31/18:00:20.634,(-37 -115 -99 -33 -8 14 3 0)
1969/12/31/18:00:20.634,(45 127 115 25 14 16 13 0)
1969/12/31/18:00:20.646,(4 11 -14 -7 -2 -7 -1 -19)
1969/12/31/18:00:20.646,(-20 -118 -99 -32 9 14 6 27)
1969/12/31/18:00:20.653,(6 21 40 28 6 -16 -14 22)
1969/12/31/18:00:20.653,(17 -2 -7 -8 -29 -1 14 20)
1969/12/31/18:00:20.670,(21 -5 -22 -21 -24 -5 3 -7)
1969/12/31/18:00:20.670,(23 -35 -5 -11 -3 -8 -9 -3)
1969/12/31/18:00:20.671,(31 87 75 25 12 0 19 21)
1969/12/31/18:00:20.671,(-47 -88 -49 2 21 5 -15 -21)
1969/12/31/18:00:20.692,(-9 0 -32 -4 7 1 -18 -12)
1969/12/31/18:00:20.692,(3 66 58 4 -19 -13 5 9)
1969/12/31/18:00:20.694,(-4 -19 -12 5 12 1 -4 -3)
1969/12/31/18:00:20.694,(14 -35 -39 -14 1 23 6 4)
1969/12/31/18:00:20.706,(3 79 77 10 -4 1 3 1)
1969/12/31/18:00:20.706,(12 -57 -35 -8 1 -10 -10 -1)
1969/12/31/18:00:20.715,(22 29 32 12 18 3 17 24)
1969/12/31/18:00:20.715,(8 -47 -33 -7 3 -12 -7 -3)
1969/12/31/18:00:20.730,(15 43 13 -10 -21 7 -13 19)
1969/12/31/18:00:20.730,(5 12 -9 -5 -1 -4 -1 -15)
1969/12/31/18:00:20.731,(1 13 41 27 3 -19 -2 -15)
1969/12/31/18:00:20.731,(-31 -38 -23 -2 -8 7 6 -10)
1969/12/31/18:00:20.752,(27 35 26 15 17 2 -3 5)
1969/12/31/18:00:20.752,(18 14 -3 0 8 -7 -4 15)
1969/12/31/18:00:20.754,(-69 -64 -41 -31 -17 -8 -12 -30)
1969/12/31/18:00:20.754,(15 73 17 -4 5 5 -13 -15)
1969/12/31/18:00:20.775,(-47 -89 -45 -3 -4 7 11 6)
1969/12/31/18:00:20.775,(41 7 12 8 5 8 14 29)
1969/12/31/18:00:20.776,(46 49 39 18 3 1 -4 -4)
1969/12/31/18:00:20.776,(-6 -16 -10 -8 -10 -22 -5 19)
1969/12/31/18:00:20.797,(-9 5 21 8 8 10 -14 -26)
1969/12/31/18:00:20.797,(-9 -32 -36 -5 -10 -7 1 3)
1969/12/31/18:00:20.799,(4 -40 -18 -9 11 18 11 25)
1969/12/31/18:00:20.799,(-44 59 66 11 -9 -17 -9 -8)
1969/12/31/18:00:20.812,(25 -13 -15 -4 -3 -14 -19 -11)
1969/12/31/18:00:20.812,(-42 -45 -47 -13 5 3 -6 -46)
1969/12/31/18:00:20.814,(6 68 43 7 -8 0 -3 -14)
1969/12/31/18:00:20.814,(37 -21 0 15 20 18 10 27)
1969/12/31/18:00:20.826,(-6 -51 -89 -48 -51 -58 -15 10)
1969/12/31/18:00:20.826,(-35 8 53 19 40 31 -7 -10)
1969/12/31/18:00:20.835,(-7 -6 -3 -12 -25 -13 -4 2)
1969/12/31/18:00:20.835,(-8 21 -2 3 4 -3 -4 -53)
1969/12/31/18:00:20.849,(-2 -44 -29 0 5 4 -8 6)
1969/12/31/18:00:20.849,(62 56 31 9 -10 -12 2 37)
1969/12/31/18:00:20.857,(0 -40 -35 -16 -10 2 2 -2)
1969/12/31/18:00:20.857,(-12 -45 -39 -27 -24 -18 -17 -16)
1969/12/31/18:00:20.872,(3 40 53 7 8 10 11 0)
1969/12/31/18:00:20.872,(-47 -6 -1 11 11 -8 -17 -26)
1969/12/31/18:00:20.874,(5 -83 -80 -9 10 15 8 17)
1969/12/31/18:00:20.874,(15 108 92 24 0 -4 1 0)
1969/12/31/18:00:20.886,(11 63 56 13 3 -5 7 4)
1969/12/31/18:00:20.886,(27 -28 -11 -1 9 21 19 32)
1969/12/31/18:00:20.895,(-8 -42 -23 -5 3 -1 1 23)
1969/12/31/18:00:20.895,(-20 43 3 0 4 3 -8 -28)
1969/12/31/18:00:20.910,(55 -8 9 6 -3 -13 2 37)
1969/12/31/18:00:20.910,(-15 -2 7 -1 -12 -3 5 1)
1969/12/31/18:00:20.911,(-17 -23 -29 -25 -18 2 -9 -21)
1969/12/31/18:00:20.911,(4 -73 -40 -4 15 -4 2 2)
1969/12/31/18:00:20.932,(-33 49 58 29 8 1 19 3)
1969/12/31/18:00:20.932,(23 -3 -22 11 17 1 3 1)
1969/12/31/18:00:20.934,(-48 31 22 -20 -19 -8 -3 -19)
1969/12/31/18:00:20.934,(24 11 -3 -1 -12 -3 -10 -17)
1969/12/31/18:00:20.946,(-35 -45 -45 -17 8 29 -2 -42)
1969/12/31/18:00:20.946,(-21 -53 -14 -5 -7 -10 4 11)
1969/12/31/18:00:20.955,(7 15 -17 -13 9 3 -14 -23)
1969/12/31/18:00:20.955,(24 24 30 21 -4 -23 -11 13)
1969/12/31/18:00:20.970,(33 62 54 35 34 14 25 36)
1969/12/31/18:00:20.970,(7 30 -10 -24 -35 11 -10 -19)
1969/12/31/18:00:20.971,(20 3 22 25 20 -3 -4 -1)
1969/12/31/18:00:20.971,(-31 -48 -44 -28 -29 -1 10 7)
1969/12/31/18:00:20.992,(13 -24 -50 -13 -10 -2 -3 7)
1969/12/31/18:00:20.992,(-28 44 73 21 -1 -47 -6 -5)
1969/12/31/18:00:20.994,(-16 -7 -18 -2 -13 12 -11 -25)
1969/12/31/18:00:20.994,(33 15 27 11 11 24 20 37)
1969/12/31/18:00:21.006,(-16 -14 -13 -13 -5 2 13 -8)
1969/12/31/18:00:21.006,(25 24 6 0 8 0 -6 -21)
1969/12/31/18:00:21.015,(-53 -94 -73 -2 12 -38 -37 -43)
1969/12/31/18:00:21.015,(-6 107 90 -2 -40 1 15 1)
1969/12/31/18:00:21.030,(-35 -37 -47 -17 -18 -8 -14 -22)
1969/12/31/18:00:21.030,(54 14 -3 12 -7 12 20 39)
1969/12/31/18:00:21.031,(47 20 9 5 -8 -15 -12 5)
1969/12/31/18:00:21.031,(2 1 24 22 24 4 -8 5)
1969/12/31/18:00:21.052,(-11 -72 -62 -38 -13 1 3 -6)
1969/12/31/18:00:21.052,(25 28 -2 -11 -4 12 -8 13)
1969/12/31/18:00:21.054,(13 86 77 25 14 10 13 8)
1969/12/31/18:00:21.054,(-14 -70 -77 -16 3 -11 -2 -1)
1969/12/31/18:00:21.066,(27 63 97 38 10 -2 0 10)
1969/12/31/18:00:21.066,(-30 -97 -73 -21 -8 2 5 4)
1969/12/31/18:00:21.075,(10 55 31 -1 -3 12 10 5)
1969/12/31/18:00:21.075,(-24 -116 -73 -19 8 -11 -15 -7)
1969/12/31/18:00:21.090,(45 97 69 29 1 15 7 11)
1969/12/31/18:00:21.090,(-1 -51 -36 -3 -17 -3 3 -2)
1969/12/31/18:00:21.091,(-12 -63 -55 -27 -4 -2 1 12)
1969/12/31/18:00:21.091,(72 0 10 1 -2 1 3 17)
1969/12/31/18:00:21.112,(-28 -67 -43 -12 16 12 -1 5)
1969/12/31/18:00:21.112,(-13 -93 -49 -12 -3 -3 2 1)
1969/12/31/18:00:21.114,(18 110 59 21 -4 -7 3 6)
1969/12/31/18:00:21.114,(26 76 78 44 37 22 5 17)
1969/12/31/18:00:21.126,(-16 -60 -29 -21 -25 -16 1 -2)
1969/12/31/18:00:21.126,(6 0 -14 -23 -10 -4 -8 3)
1969/12/31/18:00:21.135,(-65 -123 -76 -19 -4 3 9 -6)
1969/12/31/18:00:21.135,(3 11 -7 2 7 -7 -10 -22)
1969/12/31/18:00:21.150,(10 28 13 8 7 7 0 15)
1969/12/31/18:00:21.150,(11 74 31 7 3 -12 -11 -10)
1969/12/31/18:00:21.151,(-6 -62 -19 -13 -14 5 7 13)
1969/12/31/18:00:21.151,(-54 -96 -59 -17 -6 2 0 -13)
1969/12/31/18:00:21.172,(26 71 72 39 16 1 -6 -12)
1969/12/31/18:00:21.172,(47 33 36 6 4 -7 -5 14)
1969/12/31/18:00:21.174,(23 44 14 14 1 -5 -3 -5)
1969/12/31/18:00:21.174,(5 12 -18 -20 8 35 14 11)
1969/12/31/18:00:21.186,(-48 -128 -128 -52 -41 -12 -6 -3)
1969/12/31/18:00:21.186,(-21 103 58 32 14 -6 -5 -20)
1969/12/31/18:00:21.195,(31 -27 -35 2 -1 -11 -2 9)
1969/12/31/18:00:21.195,(-9 -39 -19 -10 -10 -3 0 -3)
1969/12/31/18:00:21.210,(9 -24 -10 -1 -4 -4 -8 3)
1969/12/31/18:00:21.210,(-48 -28 -31 -3 12 14 12 -12)
1969/12/31/18:00:21.211,(13 -95 -59 -41 -23 -10 -4 4)
1969/12/31/18:00:21.211,(9 99 67 22 -2 -8 2 10)
1969/12/31/18:00:21.232,(16 15 9 9 7 -4 0 4)
1969/12/31/18:00:21.232,(-90 -61 -24 -7 6 -26 -46 -65)
1969/12/31/18:00:21.234,(-1 30 37 11 22 50 18 -28)
1969/12/31/18:00:21.234,(21 -99 -105 -51 -31 -25 -17 -2)
1969/12/31/18:00:21.246,(14 93 97 43 21 7 2 10)
1969/12/31/18:00:21.246,(31 -6 -5 4 -3 -2 9 12)
1969/12/31/18:00:21.255,(-3 68 30 6 0 -8 -9 -4)
1969/12/31/18:00:21.255,(-23 19 43 15 7 -7 -8 -4)
1969/12/31/18:00:21.270,(-12 -26 -37 2 19 5 8 -9)
1969/12/31/18:00:21.270,(8 -29 -18 -36 -27 19 12 24)
1969/12/31/18:00:21.271,(6 -7 5 3 -19 -25 -5 18)
1969/12/31/18:00:21.271,(-2 19 -4 -6 15 -5 32 8)
1969/12/31/18:00:21.292,(26 -8 3 27 19 25 -4 7)
1969/12/31/18:00:21.292,(-26 0 12 27 23 0 6 2)
1969/12/31/18:00:21.294,(-33 -20 -7 -12 -21 -1 -2 -21)
1969/12/31/18:00:21.294,(-39 -11 -8 -4 3 -9 -9 -21)
1969/12/31/18:00:21.306,(-53 -30 -23 -24 -9 7 -11 -31)
1969/12/31/18:00:21.306,(-17 -30 -20 -12 -7 5 26 -20)
1969/12/31/18:00:21.315,(-2 -9 2 -3 -11 -4 -34 -15)
1969/12/31/18:00:21.315,(14 6 9 14 6 9 -4 13)
1969/12/31/18:00:21.330,(-47 -4 -4 -7 -2 -20 -16 -19)
1969/12/31/18:00:21.330,(-14 3 3 0 -8 1 -13 5)
1969/12/31/18:00:21.337,(36 36 27 18 19 -8 9 34)
1969/12/31/18:00:21.337,(-17 -39 -13 -7 -9 -13 -17 -10)
1969/12/31/18:00:21.352,(-17 -10 -19 -10 -1 6 -20 -32)
1969/12/31/18:00:21.352,(-42 -13 -6 -13 -19 -31 -4 -37)
1969/12/31/18:00:21.359,(5 -2 0 1 6 23 -18 -4)
1969/12/31/18:00:21.359,(26 12 6 7 6 9 15 45)
1969/12/31/18:00:21.366,(36 43 7 -4 -5 -8 -4 6)
1969/12/31/18:00:21.366,(-26 -29 -5 5 7 20 10 20)
1969/12/31/18:00:21.375,(-56 -35 -10 -15 -8 -11 -15 -36)
1969/12/31/18:00:21.375,(-15 -3 3 17 8 23 6 -26)
1969/12/31/18:00:21.390,(-35 -42 -26 -15 -11 -12 -2 -3)
1969/12/31/18:00:21.390,(61 56 9 -8 -12 -22 -18 11)
1969/12/31/18:00:21.391,(60 20 14 10 11 17 29 58)
1969/12/31/18:00:21.391,(-4 28 14 7 0 -4 -2 -15)
1969/12/31/18:00:21.412,(14 -30 -15 -10 -3 12 40 28)
1969/12/31/18:00:21.412,(67 44 11 6 7 8 2 54)
1969/12/31/18:00:21.414,(-53 -33 -4 1 2 -7 2 -20)
1969/12/31/18:00:21.414,(-23 -3 -3 -3 -6 -14 -5 -12)
1969/12/31/18:00:21.426,(30 -22 -17 -12 -9 -11 -22 -8)
1969/12/31/18:00:21.426,(-2 -4 10 6 4 9 -1 -10)
1969/12/31/18:00:21.442,(45 39 16 13 9 8 22 21)
1969/12/31/18:00:21.442,(-86 -20 -20 -13 -13 -13 -29 -49)
1969/12/31/18:00:21.450,(37 40 -7 -7 -6 -4 6 13)
1969/12/31/18:00:21.450,(-62 -71 -16 -8 -9 -3 -13 -23)
1969/12/31/18:00:21.451,(23 9 -3 -1 -1 -9 0 -10)
1969/12/31/18:00:21.451,(56 6 -3 -1 1 5 16 36)
1969/12/31/18:00:21.472,(-27 8 11 3 2 -1 0 -17)
1969/12/31/18:00:21.472,(-45 -17 -3 -2 0 -4 -7 -28)
1969/12/31/18:00:21.474,(17 18 12 10 10 10 21 41)
1969/12/31/18:00:21.474,(48 31 1 -2 -5 -7 -9 1)
1969/12/31/18:00:21.495,(-9 -12 -4 -5 -3 -1 4 6)
1969/12/31/18:00:21.495,(54 10 3 5 2 7 10 36)
1969/12/31/18:00:21.496,(-11 -31 -16 -8 -6 -5 2 7)
1969/12/31/18:00:21.496,(-8 2 7 3 4 9 13 28)
1969/12/31/18:00:21.509,(11 -5 -13 -12 -14 -13 -24 -61)
1969/12/31/18:00:21.509,(9 10 12 10 11 4 0 1)
1969/12/31/18:00:21.523,(-24 4 -1 0 0 1 -2 -9)
1969/12/31/18:00:21.523,(14 -2 5 2 2 -2 -2 2)
1969/12/31/18:00:21.532,(-17 -16 -10 -4 -6 -5 -5 -4)
1969/12/31/18:00:21.532,(-12 5 8 7 7 4 2 -3)
1969/12/31/18:00:21.534,(7 8 0 3 0 -4 -2 -11)
1969/12/31/18:00:21.534,(3 -14 -13 -11 -7 -4 -4 -2)
1969/12/31/18:00:21.562,(-2 -21 -8 -3 1 0 5 23)
1969/12/31/18:00:21.562,(16 22 -10 -5 -5 2 1 -1)
1969/12/31/18:00:21.564,(4 32 42 19 7 -2 1 1)
1969/12/31/18:00:21.564,(3 3 17 7 0 0 -2 -3)
1969/12/31/18:00:21.569,(-11 -16 -7 -2 0 -2 2 8)
1969/12/31/18:00:21.569,(11 -3 -9 -6 -5 -3 -4 -5)
1969/12/31/18:00:21.576,(2 8 -5 -5 -3 -3 -4 2)
1969/12/31/18:00:21.576,(-10 -9 -8 -8 -10 -13 -15 -15)
1969/12/31/18:00:21.592,(14 6 10 7 5 3 7 14)
1969/12/31/18:00:21.592,(3 -3 -3 0 5 14 13 14)
1969/12/31/18:00:21.594,(-18 -41 -30 -17 -14 -11 -14 -21)
1969/12/31/18:00:21.594,(7 24 8 0 -1 4 3 3)
1969/12/31/18:00:21.615,(1 6 9 2 0 -5 -9 1)
1969/12/31/18:00:21.615,(-1 -2 -3 -3 -4 -8 -6 -6)
1969/12/31/18:00:21.616,(-5 -8 -31 -13 -6 0 3 0)
1969/12/31/18:00:21.616,(4 31 63 22 6 -4 -2 -7)
1969/12/31/18:00:21.630,(-1 -13 -9 7 4 4 1 2)
1969/12/31/18:00:21.630,(9 51 44 19 11 11 17 10)
1969/12/31/18:00:21.636,(-6 -37 -29 -13 -10 -10 -8 -9)
1969/12/31/18:00:21.636,(-5 -10 -19 -13 -8 -6 -7 1)
1969/12/31/18:00:21.652,(0 6 3 -5 -5 -4 2 7)
1969/12/31/18:00:21.652,(4 -30 -25 -7 -2 -1 -9 6)
1969/12/31/18:00:21.654,(4 41 33 11 7 5 12 6)
1969/12/31/18:00:21.654,(-12 -66 -53 -22 -12 -5 -7 -8)
1969/12/31/18:00:21.675,(17 92 90 36 16 9 3 6)
1969/12/31/18:00:21.675,(-4 -11 -13 -7 -6 -6 -6 -4)
1969/12/31/18:00:21.676,(-9 -26 -12 -4 -1 -1 -1 -4)
1969/12/31/18:00:21.676,(-1 -4 -8 3 6 1 -2 2)
1969/12/31/18:00:21.690,(-2 -26 -29 -11 -8 -2 3 1)
1969/12/31/18:00:21.690,(-1 14 -2 -10 -11 -12 -3 1)
1969/12/31/18:00:21.696,(3 7 14 14 11 8 -7 -10)
1969/12/31/18:00:21.696,(-5 -7 -15 -8 0 3 0 -9)
1969/12/31/18:00:21.712,(-6 -25 -22 -13 -6 -3 0 1)
1969/12/31/18:00:21.712,(-2 6 5 1 -2 -3 -2 -6)
1969/12/31/18:00:21.714,(0 -9 -4 -4 -6 -9 -2 2)
1969/12/31/18:00:21.714,(5 6 -3 0 -1 -2 3 8)
1969/12/31/18:00:21.735,(-3 7 3 4 3 4 2 0)
1969/12/31/18:00:21.735,(-8 -13 -9 -9 -7 -6 -5 -9)
1969/12/31/18:00:21.736,(6 19 25 6 3 0 0 0)
1969/12/31/18:00:21.736,(1 3 -9 4 3 1 0 0)
1969/12/31/18:00:21.748,(-3 -10 2 -4 -3 -4 0 0)
1969/12/31/18:00:21.749,(0 -1 -8 -4 1 4 0 -3)
1969/12/31/18:00:21.757,(-5 -15 -14 -12 -4 -2 -2 1)
1969/12/31/18:00:21.757,(3 12 6 6 1 1 3 2)
1969/12/31/18:00:21.772,(-1 -9 -11 -2 1 -5 -2 -2)
1969/12/31/18:00:21.772,(-7 -1 10 1 -6 -3 -6 -9)
1969/12/31/18:00:21.774,(-11 -21 -27 -14 -5 0 -1 -4)
1969/12/31/18:00:21.774,(4 3 -6 0 1 2 -1 2)
1969/12/31/18:00:21.795,(4 -5 -6 0 3 0 1 1)
1969/12/31/18:00:21.795,(3 8 13 5 -2 5 3 3)
1969/12/31/18:00:21.796,(-12 9 12 2 -7 -3 -3 -5)
1969/12/31/18:00:21.796,(-9 -9 0 -10 -4 -4 -4 -8)
1969/12/31/18:00:21.808,(-1 -10 -7 -3 1 -2 -1 -1)
1969/12/31/18:00:21.808,(5 10 -9 1 4 1 0 0)
1969/12/31/18:00:21.817,(-2 -9 -14 -12 -7 -2 0 -3)
1969/12/31/18:00:21.817,(11 24 31 18 7 5 5 9)
1969/12/31/18:00:21.833,(-10 -12 0 6 3 -1 0 -3)
1969/12/31/18:00:21.833,(-4 -2 -9 -2 -1 -6 -5 -4)
1969/12/31/18:00:21.838,(-3 -6 -10 -7 -5 -1 -1 0)
1969/12/31/18:00:21.838,(4 3 -9 -5 -2 -2 -1 0)
1969/12/31/18:00:21.855,(-3 -7 -14 -6 0 -2 -4 -5)
1969/12/31/18:00:21.855,(-1 -6 8 2 1 3 1 -1)
1969/12/31/18:00:21.856,(0 6 -17 -8 -1 -4 -4 -4)
1969/12/31/18:00:21.856,(-1 -13 6 9 3 1 1 2)
1969/12/31/18:00:21.868,(-2 -12 -7 -8 -3 2 4 8)
1969/12/31/18:00:21.868,(-9 -16 6 2 -2 -5 -12 -13)
1969/12/31/18:00:21.885,(18 58 32 11 3 1 -1 0)
1969/12/31/18:00:21.885,(-2 -12 -21 -7 -1 -2 2 3)
1969/12/31/18:00:21.892,(-2 6 2 -2 -3 -1 -1 -4)
1969/12/31/18:00:21.892,(-3 -2 -12 -7 -3 -3 -1 -3)
1969/12/31/18:00:21.894,(-2 4 22 12 4 0 -2 -2)
1969/12/31/18:00:21.894,(-3 4 6 -1 -5 -1 -3 -3)
1969/12/31/18:00:21.915,(3 6 -15 -11 -3 -2 -3 -3)
1969/12/31/18:00:21.915,(-6 -21 -20 -4 1 -2 -1 -3)
1969/12/31/18:00:21.916,(2 2 11 6 0 2 0 2)
1969/12/31/18:00:21.916,(-7 -15 -17 -6 -4 -2 -4 -2)
1969/12/31/18:00:21.928,(-3 -13 -8 -6 -6 -3 -3 -2)
1969/12/31/18:00:21.928,(3 8 9 1 -1 -1 1 4)
1969/12/31/18:00:21.937,(2 -10 -13 1 4 2 2 0)
1969/12/31/18:00:21.937,(-7 -7 3 -2 -1 -5 -3 -5)
1969/12/31/18:00:21.952,(-1 -4 -4 -5 -5 -1 -1 -1)
1969/12/31/18:00:21.952,(2 7 6 1 -1 1 2 4)
1969/12/31/18:00:21.954,(6 1 9 7 3 1 0 4)
1969/12/31/18:00:21.954,(-5 0 4 -6 -4 -2 -4 -6)
1969/12/31/18:00:21.975,(-2 5 9 12 2 -2 -5 -4)
1969/12/31/18:00:21.975,(1 -1 -3 1 0 1 2 -1)
1969/12/31/18:00:21.976,(0 -7 5 2 -1 -1 1 2)
1969/12/31/18:00:21.976,(-1 1 -7 -9 -7 -5 -3 -4)
1969/12/31/18:00:21.988,(3 6 5 1 1 0 0 2)
1969/12/31/18:00:21.988,(-2 0 0 1 4 4 0 0)
1969/12/31/18:00:21.997,(-4 -13 -5 0 1 2 1 2)
1969/12/31/18:00:21.997,(3 6 2 2 1 0 1 4)
1969/12/31/18:00:22.020,(-5 -2 3 -2 -3 -3 -3 -5)
1969/12/31/18:00:22.020,(4 9 4 -4 -2 -2 -2 -1)
1969/12/31/18:00:22.021,(-3 -6 -1 1 0 0 5 5)
1969/12/31/18:00:22.021,(3 9 -2 6 4 1 1 0)
1969/12/31/18:00:22.036,(-2 -5 -4 0 -1 0 -4 -4)
1969/12/31/18:00:22.036,(4 1 -6 -4 -1 -3 -1 -1)
1969/12/31/18:00:22.037,(-4 -4 -4 -2 0 -3 -5 -8)
1969/12/31/18:00:22.037,(-9 -11 -4 -6 -4 -1 -4 -7)
1969/12/31/18:00:22.049,(2 0 -6 -2 -3 0 2 6)
1969/12/31/18:00:22.049,(-2 2 3 -1 -5 -3 -2 -3)
1969/12/31/18:00:22.057,(0 -2 -5 3 3 3 2 0)
1969/12/31/18:00:22.057,(1 3 -1 -4 -4 -3 -2 -1)
1969/12/31/18:00:22.080,(-5 -7 -6 -6 -5 -5 -2 -6)
1969/12/31/18:00:22.080,(-2 -6 -4 3 1 1 0 0)
1969/12/31/18:00:22.081,(3 -2 -2 0 2 0 1 2)
1969/12/31/18:00:22.081,(-1 1 -3 0 1 1 0 -3)
1969/12/31/18:00:22.095,(2 2 11 2 -2 1 0 0)
1969/12/31/18:00:22.095,(1 3 4 -2 -4 -4 -2 -1)
1969/12/31/18:00:22.109,(-2 -9 -15 -6 -3 -3 -1 0)
1969/12/31/18:00:22.109,(5 4 15 9 3 3 0 1)
1969/12/31/18:00:22.110,(-2 8 -1 -3 0 -1 -3 -5)
1969/12/31/18:00:22.110,(-5 -14 -6 -4 -1 0 0 2)
1969/12/31/18:00:22.133,(3 15 -18 -8 -4 -2 -4 -4)
1969/12/31/18:00:22.133,(-1 -6 2 1 0 -2 -5 0)
1969/12/31/18:00:22.134,(1 -2 0 -1 -2 -2 -1 0)
1969/12/31/18:00:22.134,(0 5 5 1 0 -1 -3 -4)
1969/12/31/18:00:22.138,(-2 -7 -3 -5 0 -1 0 1)
1969/12/31/18:00:22.138,(-1 -8 -8 -6 -2 -2 1 -2)
1969/12/31/18:00:22.154,(5 17 26 15 6 3 1 2)
1969/12/31/18:00:22.154,(1 1 -4 1 1 1 1 3)
1969/12/31/18:00:22.162,(-3 -4 3 -4 -4 -3 -4 -4)
1969/12/31/18:00:22.162,(-2 -3 -1 3 1 -3 -1 -3)
1969/12/31/18:00:22.168,(0 -1 -4 -2 -1 0 1 0)
1969/12/31/18:00:22.168,(-2 -3 -1 -4 -5 -2 -1 -3)
1969/12/31/18:00:22.177,(1 2 5 7 5 3 1 0)
1969/12/31/18:00:22.177,(-3 1 5 -2 -3 -3 -1 -2)
1969/12/31/18:00:22.192,(1 -5 -15 -1 4 -1 2 1)
1969/12/31/18:00:22.192,(-3 3 3 -1 -3 -3 -3 -5)
1969/12/31/18:00:22.194,(-5 -4 8 2 -4 -2 -3 -3)
1969/12/31/18:00:22.194,(-3 1 -9 -6 -3 -1 -1 1)
1969/12/31/18:00:22.215,(-1 -6 -4 -3 -3 -2 -2 0)
1969/12/31/18:00:22.215,(0 -3 -3 0 1 1 0 2)
1969/12/31/18:00:22.216,(-1 1 1 0 0 -2 0 0)
1969/12/31/18:00:22.216,(-2 -7 -5 -2 -1 1 -1 -2)
1969/12/31/18:00:22.228,(-1 0 1 -7 -5 -1 -2 0)
1969/12/31/18:00:22.228,(-3 -4 -4 -2 0 1 -2 0)
1969/12/31/18:00:22.237,(-1 0 5 3 0 -3 -2 -2)
1969/12/31/18:00:22.237,(1 2 1 0 -1 -1 -1 1)
1969/12/31/18:00:22.252,(-3 -4 -6 -1 -2 -2 -2 -3)
1969/12/31/18:00:22.252,(0 -3 -3 -1 1 -1 0 -3)
1969/12/31/18:00:22.254,(-3 -6 -6 -4 -2 -1 -1 -2)
1969/12/31/18:00:22.254,(1 2 2 2 -1 0 1 1)
1969/12/31/18:00:22.275,(0 2 7 2 2 1 -1 0)
1969/12/31/18:00:22.275,(-1 -3 0 -1 -1 -1 1 -2)
1969/12/31/18:00:22.276,(-1 2 1 0 -2 -3 -1 -3)
1969/12/31/18:00:22.276,(0 -1 -5 -2 0 -1 -1 0)
1969/12/31/18:00:22.288,(0 -2 -3 -2 -1 -3 -3 -1)
1969/12/31/18:00:22.288,(-1 -1 6 2 1 1 -2 0)
1969/12/31/18:00:22.297,(-3 -1 0 -3 -3 -1 -2 -1)
1969/12/31/18:00:22.297,(-1 -1 -2 -3 -3 -1 -1 -1)
1969/12/31/18:00:22.312,(-2 1 0 1 -1 -1 0 -1)
1969/12/31/18:00:22.312,(-4 -4 -4 -2 -2 0 0 -2)
1969/12/31/18:00:22.318,(1 -4 0 0 -2 -1 0 0)
1969/12/31/18:00:22.318,(0 5 1 -2 0 0 -1 -1)
1969/12/31/18:00:22.335,(1 -2 -4 0 -1 -1 1 1)
1969/12/31/18:00:22.335,(-2 -2 -3 0 -2 -1 -1 -2)
1969/12/31/18:00:22.336,(-1 1 -1 0 3 1 1 0)
1969/12/31/18:00:22.336,(0 -1 -1 -1 1 0 -1 1)
1969/12/31/18:00:22.348,(-1 -1 -5 -1 0 -2 -1 -3)
1969/12/31/18:00:22.348,(-3 0 4 0 1 -2 -2 -1)
1969/12/31/18:00:22.357,(-1 -2 -5 -1 -2 -2 1 -1)
1969/12/31/18:00:22.357,(0 0 2 2 0 -1 0 -1)
1969/12/31/18:00:22.371,(1 2 3 2 1 0 1 1)
1969/12/31/18:00:22.371,(-1 0 -5 -3 -1 0 -1 1)
1969/12/31/18:00:22.378,(-2 -3 -3 -5 -3 0 -2 0)
1969/12/31/18:00:22.378,(1 2 0 3 2 -2 -1 0)
1969/12/31/18:00:22.395,(-3 -4 -3 -5 -4 -2 -3 -3)
1969/12/31/18:00:22.395,(-2 -1 -3 1 -2 -2 -1 -3)
1969/12/31/18:00:22.396,(0 1 5 5 0 -1 -2 2)
1969/12/31/18:00:22.396,(0 2 1 -1 -2 -1 1 -3)
1969/12/31/18:00:22.417,(-2 -3 -3 -3 -2 -3 -3 -2)
1969/12/31/18:00:22.417,(0 2 0 1 0 0 1 -1)
1969/12/31/18:00:22.419,(1 -1 -3 -3 -2 0 -1 0)
1969/12/31/18:00:22.419,(-2 -3 -3 -3 -4 -2 -2 -2)
1969/12/31/18:00:22.432,(-2 -2 2 0 -3 -2 -2 -2)
1969/12/31/18:00:22.432,(2 3 -5 -1 -1 -2 -1 0)
1969/12/31/18:00:22.438,(-3 -3 -2 0 2 0 -2 -2)
1969/12/31/18:00:22.438,(0 -1 1 -1 1 1 -1 0)
1969/12/31/18:00:22.455,(-3 -4 3 0 -1 0 -1 -2)
1969/12/31/18:00:22.455,(-2 -4 -5 -3 -3 -3 -2 -1)
1969/12/31/18:00:22.456,(-1 -1 -3 -5 -3 -1 -1 -1)
1969/12/31/18:00:22.456,(-5 -6 -11 -7 -4 -1 -1 -1)
1969/12/31/18:00:22.477,(1 6 3 7 5 0 0 -1)
1969/12/31/18:00:22.477,(0 -2 -1 -1 0 -2 -1 -1)
1969/12/31/18:00:22.479,(0 -1 0 0 -2 -1 0 -3)
1969/12/31/18:00:22.479,(-1 -3 -3 -2 -1 0 -1 -3)
1969/12/31/18:00:22.492,(1 -1 -4 -4 -6 -1 1 2)
1969/12/31/18:00:22.492,(-2 0 1 4 4 0 -2 -1)
1969/12/31/18:00:22.498,(-1 -1 -1 -1 -1 -2 -2 -2)
1969/12/31/18:00:22.498,(0 -3 -1 -1 0 0 0 3)
