time,.data
1969/12/31/18:00:05.850,(3 -3 -2 -5 -1 -9 -10 6)
1969/12/31/18:00:05.850,(1 1 4 -3 -1 11 9 11)
1969/12/31/18:00:05.857,(-6 -1 1 2 0 -9 -14 -19)
1969/12/31/18:00:05.857,(-3 2 1 -1 0 1 1 -5)
1969/12/31/18:00:05.873,(10 2 3 1 0 0 5 7)
1969/12/31/18:00:05.873,(-16 -9 -8 -5 -1 2 0 -9)
1969/12/31/18:00:05.874,(1 0 -5 -5 -1 -5 0 8)
1969/12/31/18:00:05.874,(-7 0 7 1 -1 4 -1 -7)
1969/12/31/18:00:05.896,(-1 1 5 8 1 -6 -4 -1)
1969/12/31/18:00:05.896,(-1 -4 -4 -2 0 0 -2 -8)
1969/12/31/18:00:05.898,(1 0 1 -1 -2 -2 1 10)
1969/12/31/18:00:05.898,(-7 -2 -12 -3 -3 6 -1 -11)
1969/12/31/18:00:05.909,(-5 -1 2 0 -1 -9 -6 -3)
1969/12/31/18:00:05.909,(4 2 -3 2 2 3 -1 0)
1969/12/31/18:00:05.935,(0 1 5 -1 -2 -1 -1 4)
1969/12/31/18:00:05.935,(1 -2 -1 3 1 2 7 25)
1969/12/31/18:00:05.936,(-1 1 -3 -3 -5 -7 -7 -14)
1969/12/31/18:00:05.936,(1 -7 -5 -4 2 8 7 8)
1969/12/31/18:00:05.939,(2 4 -4 -7 -7 -9 -8 -4)
1969/12/31/18:00:05.939,(-3 4 5 6 1 -3 -9 -14)
1969/12/31/18:00:05.955,(-7 -7 1 -1 -3 -2 -2 1)
1969/12/31/18:00:05.955,(7 8 5 9 1 4 8 12)
1969/12/31/18:00:05.957,(-1 -10 -8 -3 2 1 -3 0)
1969/12/31/18:00:05.957,(-3 -2 -9 -6 -6 -6 -7 -9)
1969/12/31/18:00:05.970,(-9 -11 -13 -6 -2 -4 1 -6)
1969/12/31/18:00:05.970,(-3 6 12 7 6 2 -3 -11)
1969/12/31/18:00:05.976,(3 -14 -12 -3 0 4 6 8)
1969/12/31/18:00:05.977,(2 -29 -41 -17 -7 1 1 -1)
1969/12/31/18:00:05.993,(-9 13 23 14 13 6 3 7)
1969/12/31/18:00:05.993,(4 18 24 0 -10 -6 -4 -2)
1969/12/31/18:00:05.995,(-4 31 28 8 9 3 2 1)
1969/12/31/18:00:05.995,(-1 -29 -31 -2 2 -1 -1 2)
1969/12/31/18:00:06.015,(-5 33 47 -3 -14 6 30 26)
1969/12/31/18:00:06.015,(-3 -17 -27 -7 -13 -13 -23 -23)
1969/12/31/18:00:06.017,(1 16 14 16 18 5 9 10)
1969/12/31/18:00:06.017,(2 -8 10 8 17 6 -3 -1)
1969/12/31/18:00:06.030,(4 -21 -29 -16 -16 -5 13 19)
1969/12/31/18:00:06.030,(-13 -5 -13 -9 -5 -4 -7 -19)
1969/12/31/18:00:06.037,(9 -9 -14 -23 -44 -20 -21 -19)
1969/12/31/18:00:06.037,(-21 -4 -9 -9 -8 -10 2 -11)
1969/12/31/18:00:06.068,(10 -11 -17 0 11 -8 -24 -11)
1969/12/31/18:00:06.068,(-4 7 6 0 8 1 14 11)
1969/12/31/18:00:06.084,(-7 -8 -20 2 7 2 3 9)
1969/12/31/18:00:06.084,(9 19 22 9 8 6 7 10)
1969/12/31/18:00:06.084,(6 -4 -16 -6 -1 0 -6 -7)
1969/12/31/18:00:06.084,(-1 -36 -42 -17 -6 -4 5 8)
1969/12/31/18:00:06.086,(-6 28 47 17 6 2 2 -1)
1969/12/31/18:00:06.086,(0 8 11 5 -1 7 -2 0)
1969/12/31/18:00:06.089,(-4 15 9 -1 -3 -2 -9 -13)
1969/12/31/18:00:06.089,(-1 -20 -6 3 -1 5 -6 -5)
1969/12/31/18:00:06.098,(5 -27 -20 -4 -1 6 -6 -4)
1969/12/31/18:00:06.098,(7 12 13 5 0 -2 -26 -21)
1969/12/31/18:00:06.113,(2 -2 -2 3 -1 -2 -12 -12)
1969/12/31/18:00:06.113,(5 11 9 4 4 1 -6 -5)
1969/12/31/18:00:06.114,(-3 -12 -15 -9 -4 0 5 6)
1969/12/31/18:00:06.114,(-9 -3 -3 -4 -6 -3 8 5)
1969/12/31/18:00:06.135,(0 -7 -7 1 3 0 -4 -5)
1969/12/31/18:00:06.136,(-1 25 22 5 2 3 3 3)
1969/12/31/18:00:06.137,(-8 -19 -8 -3 -1 -3 0 -3)
1969/12/31/18:00:06.137,(7 13 8 1 -1 2 0 -1)
1969/12/31/18:00:06.149,(-3 -10 -8 -1 -1 -5 -13 -16)
1969/12/31/18:00:06.149,(36 16 11 2 2 5 18 48)
1969/12/31/18:00:06.158,(-20 1 0 4 3 -2 -8 -22)
1969/12/31/18:00:06.158,(-23 -10 -4 -7 -4 -6 -9 -18)
1969/12/31/18:00:06.188,(-2 -3 -3 -5 -1 1 1 -3)
1969/12/31/18:00:06.188,(-19 -12 -6 -2 -4 -4 -10 -14)
1969/12/31/18:00:06.189,(63 15 3 0 3 4 15 37)
1969/12/31/18:00:06.189,(-36 7 8 1 -3 0 1 -12)
1969/12/31/18:00:06.212,(-23 -18 -9 -6 -7 -10 -14 -26)
1969/12/31/18:00:06.212,(1 2 2 0 -1 -1 -2 -25)
1969/12/31/18:00:06.213,(7 -3 -4 -5 -2 -1 6 43)
1969/12/31/18:00:06.213,(26 3 -1 -7 -4 3 6 4)
1969/12/31/18:00:06.214,(32 5 -2 2 2 9 11 27)
1969/12/31/18:00:06.214,(-86 -24 -3 0 1 -10 -12 -42)
1969/12/31/18:00:06.225,(0 -3 0 -2 -4 -21 -29 -30)
1969/12/31/18:00:06.225,(35 19 5 0 -1 0 7 23)
1969/12/31/18:00:06.233,(15 4 0 3 7 27 6 9)
1969/12/31/18:00:06.233,(41 14 6 4 2 12 27 25)
1969/12/31/18:00:06.234,(4 4 -1 -1 -1 1 17 15)
1969/12/31/18:00:06.234,(-89 -33 -8 -6 -8 -21 -9 -48)
1969/12/31/18:00:06.256,(36 -2 -4 -1 -1 7 13 52)
1969/12/31/18:00:06.256,(-15 -6 1 -3 1 23 -12 -16)
1969/12/31/18:00:06.257,(-26 -12 -9 -4 -6 -14 6 -17)
1969/12/31/18:00:06.258,(53 18 6 3 7 20 20 45)
1969/12/31/18:00:06.269,(-18 9 -6 -4 -8 -22 -16 -45)
1969/12/31/18:00:06.269,(-19 -21 -4 -1 4 16 9 16)
1969/12/31/18:00:06.295,(5 8 -4 -3 1 8 21 -6)
1969/12/31/18:00:06.295,(-6 -12 -4 -5 -11 -13 -3 -9)
1969/12/31/18:00:06.296,(-25 -16 -3 0 3 7 26 23)
1969/12/31/18:00:06.296,(17 8 0 0 -6 -21 -22 -17)
1969/12/31/18:00:06.299,(1 10 4 0 2 19 -18 -22)
1969/12/31/18:00:06.299,(-2 14 10 7 5 -14 -1 10)
1969/12/31/18:00:06.315,(27 5 2 2 3 8 -5 19)
1969/12/31/18:00:06.315,(13 4 -10 -6 -6 -8 -3 -8)
1969/12/31/18:00:06.317,(-46 -21 -3 -2 5 37 13 10)
1969/12/31/18:00:06.317,(19 -3 -8 -5 -11 -51 -16 14)
1969/12/31/18:00:06.329,(7 6 4 2 1 33 16 1)
1969/12/31/18:00:06.329,(-7 -11 1 2 -3 -3 -14 37)
1969/12/31/18:00:06.346,(22 19 0 -2 -9 -44 -15 -62)
1969/12/31/18:00:06.346,(-19 -3 1 0 3 26 -15 -2)
1969/12/31/18:00:06.360,(6 8 7 6 -4 -44 4 17)
1969/12/31/18:00:06.360,(-22 -14 -9 -5 -3 -14 3 2)
1969/12/31/18:00:06.362,(18 -9 -3 -1 3 50 4 21)
1969/12/31/18:00:06.362,(-6 -9 -2 1 12 60 9 -25)
1969/12/31/18:00:06.375,(7 6 3 0 -14 -96 -11 -9)
1969/12/31/18:00:06.375,(-2 11 4 4 6 19 -9 -18)
1969/12/31/18:00:06.377,(12 9 0 -10 -29 -27 22 23)
1969/12/31/18:00:06.377,(34 -3 -2 6 25 22 -21 -6)
1969/12/31/18:00:06.389,(-33 -9 1 3 5 -14 -9 -6)
1969/12/31/18:00:06.389,(19 14 6 2 2 3 -1 13)
1969/12/31/18:00:06.398,(-45 -31 -16 -10 -16 -50 -29 -25)
1969/12/31/18:00:06.398,(23 5 -2 -7 -11 -10 6 -3)
1969/12/31/18:00:06.413,(-10 8 7 3 5 25 12 6)
1969/12/31/18:00:06.413,(79 38 14 10 6 4 13 71)
1969/12/31/18:00:06.415,(-79 -36 -7 -3 0 11 4 -44)
1969/12/31/18:00:06.415,(8 3 2 1 4 20 17 14)
1969/12/31/18:00:06.435,(-29 -18 -12 -8 -3 -34 -31 -30)
1969/12/31/18:00:06.435,(14 22 10 4 -5 -62 18 11)
1969/12/31/18:00:06.437,(0 -2 -4 0 12 35 -35 -7)
1969/12/31/18:00:06.437,(13 -3 5 2 -12 -45 41 32)
1969/12/31/18:00:06.457,(25 14 -5 -9 -10 -7 -18 -17)
1969/12/31/18:00:06.457,(-13 -15 -11 -12 -8 19 0 -14)
1969/12/31/18:00:06.458,(6 19 12 8 -2 11 -3 -22)
1969/12/31/18:00:06.458,(-17 -24 -16 -13 -7 16 -36 -22)
1969/12/31/18:00:06.474,(-20 6 4 5 -5 -9 -4 -35)
1969/12/31/18:00:06.474,(-29 -26 -8 -4 -6 -13 -47 -72)
1969/12/31/18:00:06.474,(4 -2 -4 -2 -5 -18 2 32)
1969/12/31/18:00:06.474,(12 31 14 12 7 30 27 17)
1969/12/31/18:00:06.495,(-24 -27 -11 -5 -2 15 -20 -10)
1969/12/31/18:00:06.495,(43 24 10 6 4 -26 11 50)
1969/12/31/18:00:06.495,(-39 -17 -2 1 5 -4 -26 -60)
1969/12/31/18:00:06.496,(14 10 13 13 17 64 50 40)
1969/12/31/18:00:06.517,(-9 -12 -12 -11 -13 -50 -42 -37)
1969/12/31/18:00:06.517,(17 5 6 5 3 3 -9 39)
1969/12/31/18:00:06.518,(2 0 -3 -5 -3 -36 20 13)
1969/12/31/18:00:06.518,(-1 10 5 2 1 -4 -3 -14)
1969/12/31/18:00:06.534,(2 1 5 1 4 52 5 -4)
1969/12/31/18:00:06.534,(5 4 0 0 2 23 41 12)
1969/12/31/18:00:06.535,(-1 -22 -8 -1 2 -7 -24 6)
1969/12/31/18:00:06.535,(-25 -10 -10 -5 -4 2 6 11)
1969/12/31/18:00:06.555,(27 -1 4 1 2 2 -17 -16)
1969/12/31/18:00:06.555,(-64 -13 -10 -8 -9 -16 -4 -64)
1969/12/31/18:00:06.555,(33 20 8 6 13 25 20 38)
1969/12/31/18:00:06.555,(-20 -4 -8 -7 -13 -43 -28 -49)
1969/12/31/18:00:06.577,(8 5 1 0 6 32 19 19)
1969/12/31/18:00:06.577,(28 10 11 5 4 21 22 37)
1969/12/31/18:00:06.578,(-2 -17 -17 -3 1 10 5 9)
1969/12/31/18:00:06.578,(8 -24 -11 -14 -16 -25 -26 5)
1969/12/31/18:00:06.594,(-30 3 7 2 -1 2 11 -14)
1969/12/31/18:00:06.594,(4 -2 -14 -7 1 13 -6 -6)
1969/12/31/18:00:06.595,(3 -1 16 8 -2 -27 -23 -49)
1969/12/31/18:00:06.595,(18 25 5 -4 -10 -21 14 37)
1969/12/31/18:00:06.623,(-19 -12 -11 -7 1 13 9 7)
1969/12/31/18:00:06.623,(21 -1 -2 1 1 9 26 51)
1969/12/31/18:00:06.624,(18 7 -6 -2 0 -52 -6 13)
1969/12/31/18:00:06.624,(11 6 4 2 5 18 23 4)
1969/12/31/18:00:06.637,(-11 1 0 1 4 21 -13 -37)
1969/12/31/18:00:06.637,(-29 -26 -13 -13 -23 -84 22 -1)
1969/12/31/18:00:06.638,(11 7 -1 1 -2 34 2 37)
1969/12/31/18:00:06.638,(-18 -6 1 16 48 -5 -11 -36)
1969/12/31/18:00:06.654,(-28 -31 -17 -16 -19 13 13 5)
1969/12/31/18:00:06.654,(-2 -2 -2 -2 15 36 -25 -25)
1969/12/31/18:00:06.655,(16 11 7 11 28 47 20 -8)
1969/12/31/18:00:06.655,(-19 12 -5 -21 -54 -43 -12 -23)
1969/12/31/18:00:06.675,(22 4 3 15 62 64 1 46)
1969/12/31/18:00:06.675,(-24 -8 -2 -8 -56 -55 -29 -40)
1969/12/31/18:00:06.676,(-6 -2 -4 -19 -51 -29 -19 -14)
1969/12/31/18:00:06.676,(15 5 3 16 44 31 10 52)
1969/12/31/18:00:06.697,(24 15 1 -9 -17 -14 35 -8)
1969/12/31/18:00:06.697,(-11 -1 1 -15 -20 4 -31 -26)
1969/12/31/18:00:06.698,(-5 -11 -5 15 85 86 41 31)
1969/12/31/18:00:06.698,(10 -17 -7 -6 -76 -45 27 49)
1969/12/31/18:00:06.714,(-30 -8 -9 -13 -17 -37 -31 -28)
1969/12/31/18:00:06.714,(-19 -4 6 20 44 29 0 -15)
1969/12/31/18:00:06.714,(6 2 -1 3 1 -21 -12 9)
1969/12/31/18:00:06.714,(-1 -3 4 6 44 74 5 -11)
1969/12/31/18:00:06.735,(3 2 1 4 8 7 19 -1)
1969/12/31/18:00:06.735,(5 7 -6 -17 -70 -50 -24 -8)
1969/12/31/18:00:06.736,(3 6 2 -18 -21 4 26 29)
1969/12/31/18:00:06.736,(-18 -9 -19 7 63 -2 -28 -44)
1969/12/31/18:00:06.765,(29 -5 -14 -10 -78 -48 -17 18)
1969/12/31/18:00:06.766,(-2 7 49 31 11 -4 11 14)
1969/12/31/18:00:06.766,(3 1 -13 12 69 42 7 11)
1969/12/31/18:00:06.766,(-26 0 31 -26 -124 -110 -37 -24)
1969/12/31/18:00:06.781,(12 32 8 -5 3 28 8 3)
1969/12/31/18:00:06.781,(35 16 -6 3 35 43 19 18)
1969/12/31/18:00:06.781,(23 36 -23 -5 27 -8 -15 -12)
1969/12/31/18:00:06.781,(-27 -58 -24 -21 -30 4 -13 -15)
1969/12/31/18:00:06.795,(-1 2 11 16 50 31 4 33)
1969/12/31/18:00:06.795,(25 -7 -15 13 -2 -10 12 12)
1969/12/31/18:00:06.796,(-6 15 13 12 43 11 5 4)
1969/12/31/18:00:06.796,(-58 24 25 25 12 8 -14 -66)
1969/12/31/18:00:06.817,(39 35 -32 -54 -73 -42 -9 20)
1969/12/31/18:00:06.817,(17 -39 0 -1 4 -4 11 33)
1969/12/31/18:00:06.818,(-37 -42 -19 -23 -51 -39 -38 -31)
1969/12/31/18:00:06.818,(72 23 -37 -7 -13 0 28 82)
1969/12/31/18:00:06.832,(-13 75 114 46 33 -1 -6 5)
1969/12/31/18:00:06.832,(14 -59 -97 -35 25 55 22 43)
1969/12/31/18:00:06.833,(-3 17 79 28 -19 -21 9 19)
1969/12/31/18:00:06.833,(-68 -38 53 29 30 22 8 -54)
1969/12/31/18:00:06.855,(54 1 -61 -3 45 21 -8 77)
1969/12/31/18:00:06.855,(-56 -23 29 26 78 32 -31 -107)
1969/12/31/18:00:06.856,(38 -14 -96 -55 -127 -61 37 69)
1969/12/31/18:00:06.856,(-79 7 18 -36 -30 -46 -52 -89)
1969/12/31/18:00:06.877,(-22 22 53 28 -4 -30 6 -16)
1969/12/31/18:00:06.877,(19 -46 -50 -23 28 19 -18 -24)
1969/12/31/18:00:06.878,(41 13 4 23 11 5 12 28)
1969/12/31/18:00:06.878,(39 -31 -46 -2 2 -13 -44 -8)
1969/12/31/18:00:06.900,(2 -90 -78 -24 22 3 11 39)
1969/12/31/18:00:06.900,(-63 108 127 44 -34 2 8 -20)
1969/12/31/18:00:06.901,(-54 -70 -39 -31 -10 4 -22 -45)
1969/12/31/18:00:06.901,(57 23 -42 -3 2 -1 32 27)
1969/12/31/18:00:06.915,(-4 -15 15 11 15 -28 -41 -53)
1969/12/31/18:00:06.915,(9 42 54 16 -14 20 15 23)
1969/12/31/18:00:06.916,(56 97 54 12 -48 -44 2 31)
1969/12/31/18:00:06.916,(52 -18 -28 10 64 47 28 42)
1969/12/31/18:00:06.937,(-71 -76 -18 -31 -41 -15 -2 -12)
1969/12/31/18:00:06.937,(52 18 -37 -16 33 23 16 73)
1969/12/31/18:00:06.938,(-37 8 -10 -4 -25 -23 -28 -45)
1969/12/31/18:00:06.938,(36 67 87 22 -25 -27 -6 52)
1969/12/31/18:00:06.954,(-15 -12 -28 7 10 0 0 -53)
1969/12/31/18:00:06.954,(12 -85 -102 -53 43 48 -4 19)
1969/12/31/18:00:06.954,(-5 -4 41 31 25 1 12 45)
1969/12/31/18:00:06.954,(-38 52 19 -3 -41 -27 -33 -57)
1969/12/31/18:00:06.983,(27 21 26 6 -46 0 28 40)
1969/12/31/18:00:06.983,(-26 48 81 26 -20 -33 -31 -44)
1969/12/31/18:00:06.984,(47 -71 -89 -20 56 36 -1 1)
1969/12/31/18:00:06.984,(18 -46 -60 -9 63 48 30 60)
1969/12/31/18:00:06.997,(-41 -40 14 24 60 38 -15 -43)
1969/12/31/18:00:06.997,(34 54 8 -36 -115 -99 16 21)
1969/12/31/18:00:06.998,(17 50 39 -6 12 -11 -3 0)
1969/12/31/18:00:06.998,(-66 -32 -22 -23 -16 -17 -26 -64)
1969/12/31/18:00:07.020,(8 -2 -19 5 36 35 15 -16)
1969/12/31/18:00:07.020,(27 -73 -99 1 107 89 18 11)
1969/12/31/18:00:07.021,(-77 44 122 43 -70 -61 12 -31)
1969/12/31/18:00:07.021,(16 61 24 -7 -41 -13 -41 12)
1969/12/31/18:00:07.043,(13 -47 8 18 59 36 22 52)
1969/12/31/18:00:07.043,(-19 46 29 -18 -100 -77 -46 -80)
1969/12/31/18:00:07.044,(22 16 -23 7 94 71 19 -11)
1969/12/31/18:00:07.044,(25 -89 -73 -30 -44 -19 20 11)
1969/12/31/18:00:07.057,(-40 14 4 -10 -20 -9 -6 -74)
1969/12/31/18:00:07.057,(14 12 29 36 -5 -10 7 47)
1969/12/31/18:00:07.058,(-26 55 33 -5 -43 -39 -50 -38)
1969/12/31/18:00:07.058,(4 -10 33 26 54 22 16 14)
1969/12/31/18:00:07.072,(34 -11 -43 -27 -26 -9 -1 25)
1969/12/31/18:00:07.072,(0 -29 -17 4 36 33 41 33)
1969/12/31/18:00:07.073,(23 -90 -124 -33 24 31 3 -22)
1969/12/31/18:00:07.073,(-46 28 73 24 -1 -8 -28 -27)
1969/12/31/18:00:07.095,(-7 56 36 -6 -68 -47 18 11)
1969/12/31/18:00:07.095,(-17 2 0 -5 -23 -24 -2 -1)
1969/12/31/18:00:07.096,(23 -15 4 19 38 25 -5 49)
1969/12/31/18:00:07.096,(27 -1 -23 -14 15 31 21 0)
1969/12/31/18:00:07.117,(18 7 -39 4 70 33 4 19)
1969/12/31/18:00:07.117,(-79 -21 -2 -2 -27 -15 -13 -58)
1969/12/31/18:00:07.118,(13 18 48 -1 -7 -17 -5 21)
1969/12/31/18:00:07.118,(-37 -25 -28 -22 -28 -24 -22 -65)
1969/12/31/18:00:07.134,(10 4 -4 8 15 -4 9 -12)
1969/12/31/18:00:07.134,(-13 24 28 -18 -106 -93 -25 -13)
1969/12/31/18:00:07.135,(-11 8 8 19 43 37 7 -17)
1969/12/31/18:00:07.135,(30 -58 -54 -13 16 4 15 30)
1969/12/31/18:00:07.155,(-32 10 17 4 17 9 -39 -50)
1969/12/31/18:00:07.155,(18 10 -11 19 58 42 11 -9)
1969/12/31/18:00:07.156,(1 -18 -17 -14 -7 13 7 -6)
1969/12/31/18:00:07.156,(-2 5 43 21 15 14 13 3)
1969/12/31/18:00:07.177,(20 -13 -40 -10 -14 -31 7 32)
1969/12/31/18:00:07.177,(12 -48 -33 -8 21 30 -16 5)
1969/12/31/18:00:07.178,(-60 37 33 -11 -60 -45 -12 -34)
1969/12/31/18:00:07.178,(11 -2 -35 -16 -14 4 35 29)
1969/12/31/18:00:07.194,(28 13 23 -14 -40 -2 8 21)
1969/12/31/18:00:07.194,(-3 -35 -22 -8 14 -21 1 7)
1969/12/31/18:00:07.200,(-15 -6 16 9 38 16 -29 -23)
1969/12/31/18:00:07.200,(29 12 -15 7 2 19 16 34)
1969/12/31/18:00:07.215,(-11 42 50 13 -32 3 8 12)
1969/12/31/18:00:07.215,(24 17 3 6 89 30 13 28)
1969/12/31/18:00:07.216,(46 -73 -53 41 74 92 22 33)
1969/12/31/18:00:07.216,(-22 23 29 -21 -84 -110 -46 -8)
1969/12/31/18:00:07.237,(-15 32 35 8 18 22 2 -29)
1969/12/31/18:00:07.237,(2 -2 -30 -6 16 24 -2 -6)
1969/12/31/18:00:07.238,(-12 -36 -21 -21 -13 -20 26 68)
1969/12/31/18:00:07.238,(-23 24 35 37 58 22 -45 -55)
1969/12/31/18:00:07.252,(55 -15 -25 -6 -12 -7 10 59)
1969/12/31/18:00:07.252,(-101 -37 -18 -36 -67 -50 -42 -111)
1969/12/31/18:00:07.260,(-5 13 21 0 -26 -12 -1 -10)
1969/12/31/18:00:07.260,(7 -12 -23 -21 -18 -41 -31 1)
1969/12/31/18:00:07.275,(-7 -17 -21 -10 -13 -18 -4 -15)
1969/12/31/18:00:07.275,(67 18 -44 18 66 49 13 32)
1969/12/31/18:00:07.276,(-109 -16 40 -11 -39 -39 -23 -67)
1969/12/31/18:00:07.276,(25 39 20 20 19 13 49 58)
1969/12/31/18:00:07.298,(-22 -65 -57 -20 -32 -31 -54 -39)
1969/12/31/18:00:07.298,(-32 20 30 17 26 7 1 -33)
1969/12/31/18:00:07.313,(53 -60 -96 -56 -91 -50 -28 3)
1969/12/31/18:00:07.313,(17 18 58 16 68 95 50 90)
1969/12/31/18:00:07.315,(-63 75 92 41 -16 -64 -13 -16)
1969/12/31/18:00:07.315,(-10 -25 -23 -11 1 19 2 -19)
1969/12/31/18:00:07.327,(-21 -9 -3 5 13 -9 -2 -26)
1969/12/31/18:00:07.327,(29 -17 -41 -8 8 10 23 26)
1969/12/31/18:00:07.335,(26 -25 -39 -9 17 37 11 39)
1969/12/31/18:00:07.335,(-22 -12 26 4 -2 4 -4 8)
1969/12/31/18:00:07.335,(42 54 -26 -7 14 -15 15 37)
1969/12/31/18:00:07.335,(-45 -12 41 24 37 62 12 -39)
1969/12/31/18:00:07.365,(17 56 43 -6 -84 -52 6 5)
1969/12/31/18:00:07.365,(-23 -20 2 -5 -28 -34 -16 -17)
1969/12/31/18:00:07.366,(47 -14 -28 4 30 24 3 -1)
1969/12/31/18:00:07.366,(14 6 -21 -6 10 -12 -1 20)
1969/12/31/18:00:07.382,(-10 -58 -53 -12 46 51 -2 -32)
1969/12/31/18:00:07.382,(-9 116 127 74 33 1 2 20)
1969/12/31/18:00:07.383,(-10 -18 -15 -8 -22 24 -23 -36)
1969/12/31/18:00:07.383,(18 -11 -17 -35 -74 -102 -26 -18)
1969/12/31/18:00:07.403,(-22 -23 -15 -5 38 10 -10 -17)
1969/12/31/18:00:07.403,(57 -17 -32 -18 -11 2 13 37)
1969/12/31/18:00:07.404,(-14 18 14 23 75 64 -9 -11)
1969/12/31/18:00:07.404,(-13 13 -9 5 -33 -41 -31 -40)
1969/12/31/18:00:07.417,(4 -58 -34 -16 3 16 22 25)
1969/12/31/18:00:07.417,(-15 13 20 -8 -73 -50 -17 -10)
1969/12/31/18:00:07.418,(8 44 46 6 -21 -6 21 30)
1969/12/31/18:00:07.418,(59 -5 -29 -13 18 44 29 55)
1969/12/31/18:00:07.433,(17 -16 -31 -8 10 -2 -14 -20)
1969/12/31/18:00:07.433,(-11 -11 16 18 79 36 10 15)
1969/12/31/18:00:07.440,(-24 -8 -7 -14 -73 -58 -6 -21)
1969/12/31/18:00:07.440,(8 -22 -23 -9 -23 7 10 -32)
1969/12/31/18:00:07.470,(-4 18 -6 -2 13 3 4 12)
1969/12/31/18:00:07.470,(-17 47 29 8 22 32 -3 -6)
1969/12/31/18:00:07.471,(15 8 27 12 8 -35 -38 -62)
1969/12/31/18:00:07.471,(-42 -29 -31 8 85 55 8 -26)
1969/12/31/18:00:07.477,(56 -25 -35 -15 -73 -6 30 75)
1969/12/31/18:00:07.477,(7 38 51 4 -26 -21 -3 29)
1969/12/31/18:00:07.478,(-40 -13 10 4 -5 2 27 -11)
1969/12/31/18:00:07.478,(0 21 20 15 10 9 55 76)
1969/12/31/18:00:07.493,(-9 -43 -55 -22 21 -28 -69 -93)
1969/12/31/18:00:07.493,(-7 -6 14 6 4 17 16 38)
1969/12/31/18:00:07.507,(50 13 1 5 1 10 18 55)
1969/12/31/18:00:07.507,(-79 -48 -22 -38 -77 -52 -64 -67)
1969/12/31/18:00:07.515,(36 69 42 20 7 5 46 42)
1969/12/31/18:00:07.515,(78 -20 -38 -4 50 51 16 47)
1969/12/31/18:00:07.515,(-27 -14 14 -5 -48 -34 -11 6)
1969/12/31/18:00:07.515,(-4 -9 1 5 13 6 -18 -50)
1969/12/31/18:00:07.537,(-17 23 32 21 11 9 -9 9)
1969/12/31/18:00:07.537,(22 -30 -69 -46 -20 -19 -44 -57)
1969/12/31/18:00:07.538,(23 36 1 15 44 32 30 24)
1969/12/31/18:00:07.538,(54 42 58 7 -33 -36 -33 35)
1969/12/31/18:00:07.560,(-64 2 45 22 19 14 6 -29)
1969/12/31/18:00:07.560,(-12 -45 -59 -23 -19 -14 10 6)
1969/12/31/18:00:07.561,(-37 -14 33 22 58 53 15 -9)
1969/12/31/18:00:07.561,(3 19 -10 7 30 41 14 22)
1969/12/31/18:00:07.575,(26 30 20 -13 -69 -74 0 8)
1969/12/31/18:00:07.575,(12 11 -2 7 -11 -6 10 10)
1969/12/31/18:00:07.575,(-52 -61 -45 -26 -1 -12 -14 -4)
1969/12/31/18:00:07.575,(21 44 31 25 48 56 41 8)
1969/12/31/18:00:07.605,(-40 -28 -9 -12 -13 20 -18 -30)
1969/12/31/18:00:07.605,(-28 -57 -40 -17 -29 -4 21 33)
1969/12/31/18:00:07.606,(74 77 23 8 -10 -39 6 68)
1969/12/31/18:00:07.606,(-67 13 43 10 -21 -49 -42 -31)
1969/12/31/18:00:07.620,(90 26 -21 -1 46 59 69 96)
1969/12/31/18:00:07.620,(-53 -23 14 2 -36 -28 -24 -32)
1969/12/31/18:00:07.621,(25 18 29 24 71 67 50 41)
1969/12/31/18:00:07.621,(6 -30 -46 -15 -15 -12 -4 41)
1969/12/31/18:00:07.635,(16 14 28 11 -17 -26 11 34)
1969/12/31/18:00:07.635,(-25 -21 -24 -14 21 5 -18 -28)
1969/12/31/18:00:07.635,(-12 -34 -16 0 13 -9 -11 -23)
1969/12/31/18:00:07.635,(11 4 -23 -29 -16 33 -2 -4)
1969/12/31/18:00:07.658,(2 15 14 21 52 48 20 -1)
1969/12/31/18:00:07.658,(13 18 9 -17 -86 -54 11 -4)
1969/12/31/18:00:07.659,(5 -2 1 -9 -21 -13 22 53)
1969/12/31/18:00:07.659,(-60 -23 -18 4 24 -9 -36 -97)
1969/12/31/18:00:07.680,(2 -27 -31 -16 30 28 -19 7)
1969/12/31/18:00:07.680,(24 17 1 3 -4 -10 0 -9)
1969/12/31/18:00:07.681,(-6 -16 -13 -18 -45 -26 -25 -22)
1969/12/31/18:00:07.681,(14 40 10 11 24 5 -15 -25)
1969/12/31/18:00:07.695,(-52 -10 24 24 71 59 15 -27)
1969/12/31/18:00:07.695,(-24 -38 -40 -19 -59 -53 -15 -40)
1969/12/31/18:00:07.695,(27 2 -12 -17 -22 -8 -10 13)
1969/12/31/18:00:07.695,(-20 -17 -2 6 19 10 -8 -46)
1969/12/31/18:00:07.733,(-7 -11 -12 -8 10 1 -22 -19)
1969/12/31/18:00:07.733,(-5 13 7 5 7 -4 -1 1)
1969/12/31/18:00:07.734,(-15 -16 -17 -15 -18 -8 -2 -37)
1969/12/31/18:00:07.734,(18 2 12 12 23 24 41 33)
1969/12/31/18:00:07.741,(-9 11 14 7 -47 -25 2 -20)
1969/12/31/18:00:07.741,(9 -1 2 -15 69 44 0 16)
1969/12/31/18:00:07.741,(13 15 9 30 6 35 19 0)
1969/12/31/18:00:07.741,(-26 -31 -17 -13 -85 -98 -19 -42)
1969/12/31/18:00:07.755,(-74 -32 -25 -31 -49 -20 -9 -71)
1969/12/31/18:00:07.755,(-7 0 14 18 39 30 -6 -8)
1969/12/31/18:00:07.755,(-21 2 -7 -18 2 21 -17 -30)
1969/12/31/18:00:07.755,(22 -5 -12 -8 14 1 21 36)
1969/12/31/18:00:07.777,(28 20 16 17 13 -13 -26 15)
1969/12/31/18:00:07.777,(-8 14 2 -16 -44 -21 -21 -46)
1969/12/31/18:00:07.778,(-28 -10 -5 -1 21 0 -17 -22)
1969/12/31/18:00:07.778,(45 1 -3 0 -13 13 29 117)
1969/12/31/18:00:07.800,(-24 -12 -5 -12 -18 13 12 -12)
1969/12/31/18:00:07.800,(14 3 8 7 13 -30 -41 -46)
1969/12/31/18:00:07.801,(54 34 15 19 11 -7 14 41)
1969/12/31/18:00:07.801,(61 12 2 9 22 -20 5 15)
1969/12/31/18:00:07.815,(-52 -23 -3 -4 -14 13 -30 -53)
1969/12/31/18:00:07.815,(23 -7 -8 -5 -15 -55 -21 -3)
1969/12/31/18:00:07.816,(-37 -21 -14 -9 12 59 -2 -40)
1969/12/31/18:00:07.816,(49 42 17 6 -15 -53 23 36)
1969/12/31/18:00:07.838,(65 48 27 11 14 5 3 59)
1969/12/31/18:00:07.838,(-41 -29 -13 3 -6 -2 -12 -2)
1969/12/31/18:00:07.839,(-5 -30 -16 -29 -25 -50 -46 -53)
1969/12/31/18:00:07.839,(-45 -10 2 15 15 53 -5 -6)
1969/12/31/18:00:07.860,(66 21 11 22 36 79 25 -1)
1969/12/31/18:00:07.860,(-68 -16 -4 -4 -17 -66 -38 -46)
1969/12/31/18:00:07.861,(49 17 6 9 -2 -36 13 74)
1969/12/31/18:00:07.861,(-61 -24 -13 -18 -12 -16 24 -41)
1969/12/31/18:00:07.875,(4 13 5 1 10 -1 -10 7)
1969/12/31/18:00:07.875,(42 24 10 6 -11 75 26 33)
1969/12/31/18:00:07.882,(-25 -26 -10 -8 -7 -22 34 14)
1969/12/31/18:00:07.882,(-22 -14 0 -2 3 11 -39 -25)
1969/12/31/18:00:07.898,(25 20 -6 -4 6 -11 6 -30)
1969/12/31/18:00:07.898,(63 14 9 7 2 -43 29 102)
1969/12/31/18:00:07.899,(-50 -30 -14 -10 -15 7 -35 -71)
1969/12/31/18:00:07.899,(51 39 10 4 11 61 58 41)
1969/12/31/18:00:07.920,(-14 -35 -20 -16 -23 -92 -33 25)
1969/12/31/18:00:07.920,(-53 -15 5 6 17 63 15 -1)
1969/12/31/18:00:07.921,(43 33 11 8 1 -24 -22 -8)
1969/12/31/18:00:07.921,(-34 -40 -17 -13 -9 -24 -50 -93)
1969/12/31/18:00:07.935,(-33 6 4 2 -5 -23 19 14)
1969/12/31/18:00:07.935,(-3 -6 -6 -3 1 7 18 -32)
1969/12/31/18:00:07.942,(-7 4 6 -1 -3 -28 -7 -1)
1969/12/31/18:00:07.942,(50 31 11 9 15 37 20 19)
1969/12/31/18:00:07.958,(12 4 -4 -4 -14 -20 4 40)
1969/12/31/18:00:07.958,(4 -8 -4 -5 -3 0 -12 -52)
1969/12/31/18:00:07.959,(-107 -40 -12 -8 -6 -6 -32 -90)
1969/12/31/18:00:07.959,(92 40 11 5 0 -1 -3 62)
1969/12/31/18:00:07.980,(22 -9 -8 -5 -4 6 12 29)
1969/12/31/18:00:07.980,(-37 -27 -18 -12 3 25 21 33)
1969/12/31/18:00:07.981,(3 -4 1 -11 -22 -17 -23 -9)
1969/12/31/18:00:07.981,(-35 -18 -30 -11 -7 -8 -16 -30)
1969/12/31/18:00:07.995,(2 22 38 20 18 19 10 -14)
1969/12/31/18:00:07.995,(58 35 18 7 7 1 -1 -16)
1969/12/31/18:00:07.996,(-54 -35 -55 -25 -12 -1 -9 -46)
1969/12/31/18:00:07.996,(-13 -18 -23 -18 1 -1 0 27)
1969/12/31/18:00:08.018,(23 3 64 30 -14 -23 -14 20)
1969/12/31/18:00:08.018,(37 47 20 44 31 25 21 2)
1969/12/31/18:00:08.019,(13 24 43 31 8 12 13 20)
1969/12/31/18:00:08.019,(-19 -11 -8 5 1 3 -9 -4)
1969/12/31/18:00:08.041,(-14 -15 -37 -34 -11 -9 -11 -21)
1969/12/31/18:00:08.041,(-26 -19 -7 -18 -10 1 2 3)
1969/12/31/18:00:08.041,(42 15 -8 -11 4 14 16 52)
1969/12/31/18:00:08.041,(-56 -33 -19 -21 -8 -10 -10 -42)
1969/12/31/18:00:08.054,(-26 -17 -12 -7 -9 -13 -7 -24)
1969/12/31/18:00:08.054,(5 3 6 -2 2 5 4 17)
1969/12/31/18:00:08.062,(35 19 -2 3 6 9 18 22)
1969/12/31/18:00:08.062,(8 4 20 7 1 -1 -3 4)
1969/12/31/18:00:08.085,(-30 -26 -22 -6 -4 -4 -11 -32)
1969/12/31/18:00:08.085,(16 17 5 5 4 9 8 15)
1969/12/31/18:00:08.086,(16 11 5 5 2 5 4 16)
1969/12/31/18:00:08.086,(-13 -36 -14 -8 -9 -8 -9 -3)
1969/12/31/18:00:08.100,(8 18 11 9 6 6 3 5)
1969/12/31/18:00:08.101,(-9 11 15 5 1 1 -2 0)
1969/12/31/18:00:08.101,(12 29 34 14 5 2 0 7)
1969/12/31/18:00:08.101,(-4 8 11 6 -2 -2 -3 2)
1969/12/31/18:00:08.115,(4 -2 -14 -2 -5 -2 2 -4)
1969/12/31/18:00:08.115,(-2 -47 -51 -21 -4 4 4 7)
1969/12/31/18:00:08.116,(5 40 74 22 4 -1 -1 -4)
1969/12/31/18:00:08.116,(-10 -5 -8 -3 -1 -1 -9 -2)
1969/12/31/18:00:08.138,(-9 -17 -25 -10 -5 -3 -6 -13)
1969/12/31/18:00:08.138,(-14 10 15 4 -2 3 4 0)
1969/12/31/18:00:08.139,(14 -16 -25 -11 -5 -4 -1 12)
1969/12/31/18:00:08.139,(8 -3 -13 -5 0 0 11 10)
1969/12/31/18:00:08.161,(-3 19 33 21 8 4 -14 -2)
1969/12/31/18:00:08.161,(-4 -29 -33 -19 -12 -8 -1 -4)
1969/12/31/18:00:08.161,(10 -21 -29 -8 -1 0 1 6)
1969/12/31/18:00:08.161,(-4 47 65 26 9 5 -7 -11)
1969/12/31/18:00:08.183,(-15 -27 -41 -19 -8 -5 9 4)
1969/12/31/18:00:08.183,(-2 23 29 14 -1 -8 -12 -11)
1969/12/31/18:00:08.184,(4 -17 -24 -11 3 12 15 20)
1969/12/31/18:00:08.184,(-4 -12 -14 -8 -9 -11 -20 -15)
1969/12/31/18:00:08.198,(3 -8 -21 -16 -6 -2 -2 -9)
1969/12/31/18:00:08.198,(5 18 -1 7 3 2 -5 6)
1969/12/31/18:00:08.199,(-10 11 34 11 1 -6 -2 -4)
1969/12/31/18:00:08.199,(11 -1 -4 7 7 7 17 14)
1969/12/31/18:00:08.220,(-1 38 26 11 4 0 -18 -8)
1969/12/31/18:00:08.220,(-8 -23 -4 -3 0 3 18 8)
1969/12/31/18:00:08.227,(1 -11 -26 -13 -3 5 20 8)
1969/12/31/18:00:08.227,(-15 -33 -30 -16 -8 -15 -45 -7)
1969/12/31/18:00:08.234,(3 33 45 21 2 -4 9 -4)
1969/12/31/18:00:08.234,(7 11 14 7 7 3 -1 4)
1969/12/31/18:00:08.243,(-8 -5 3 3 -2 -3 -11 -8)
1969/12/31/18:00:08.243,(-3 -42 -48 -19 -1 6 32 15)
1969/12/31/18:00:08.257,(14 59 12 -7 -5 -4 -7 -1)
1969/12/31/18:00:08.257,(-17 -39 26 22 8 -2 -5 -12)
1969/12/31/18:00:08.264,(4 -17 -25 -11 -7 -5 -24 -9)
1969/12/31/18:00:08.264,(-20 -23 13 7 0 0 11 -10)
