time,.data
1969/12/31/18:00:36.922,(-8 -13 -17 -5 -10 -10 -7 -1)
1969/12/31/18:00:36.922,(-20 -13 -5 -66 -33 -9 -9 -15)
1969/12/31/18:00:36.935,(9 -2 -39 -104 -3 -8 -1 2)
1969/12/31/18:00:36.935,(-1 -1 21 64 -31 -12 -4 -3)
1969/12/31/18:00:36.943,(-2 0 11 -57 -18 -5 -4 -3)
1969/12/31/18:00:36.943,(19 24 40 98 84 33 16 17)
1969/12/31/18:00:36.958,(-5 -16 -26 -59 -37 -7 -3 -2)
1969/12/31/18:00:36.958,(-6 -9 -60 -102 -39 -14 -10 -9)
1969/12/31/18:00:36.959,(2 -2 33 101 39 2 -2 2)
1969/12/31/18:00:36.959,(-5 4 5 -72 -21 3 0 -3)
1969/12/31/18:00:36.981,(-1 7 75 127 100 22 3 -1)
1969/12/31/18:00:36.981,(-5 -2 -17 -128 -35 -14 -4 -6)
1969/12/31/18:00:36.981,(12 5 -14 56 7 9 12 12)
1969/12/31/18:00:36.981,(-12 -15 2 -58 -18 -12 -9 -8)
1969/12/31/18:00:37.005,(-7 -1 -41 -82 -50 -13 -7 -6)
1969/12/31/18:00:37.005,(15 8 3 7 27 13 7 9)
1969/12/31/18:00:37.006,(1 16 6 -38 -66 -11 -2 -4)
1969/12/31/18:00:37.006,(13 6 -3 81 29 8 4 7)
1969/12/31/18:00:37.020,(-14 -15 -16 -104 17 -3 -7 -10)
1969/12/31/18:00:37.020,(0 5 31 89 31 4 4 3)
1969/12/31/18:00:37.021,(2 5 22 79 19 10 5 1)
1969/12/31/18:00:37.021,(-3 -2 -4 18 59 14 3 -1)
1969/12/31/18:00:37.041,(2 4 6 -29 -34 -6 1 4)
1969/12/31/18:00:37.041,(-2 -6 -32 -26 0 -5 0 0)
1969/12/31/18:00:37.042,(-4 -9 -10 -63 -46 -13 -5 -3)
1969/12/31/18:00:37.042,(-9 -7 3 7 -1 -13 -10 -7)
1969/12/31/18:00:37.056,(-2 0 11 62 0 2 0 -2)
1969/12/31/18:00:37.056,(5 6 5 8 -5 1 3 8)
1969/12/31/18:00:37.057,(-1 -5 -22 -45 -8 -2 -1 0)
1969/12/31/18:00:37.057,(-2 1 6 1 -10 -5 -3 -4)
1969/12/31/18:00:37.078,(3 5 5 21 7 6 4 4)
1969/12/31/18:00:37.078,(1 1 0 -26 -9 4 -2 -1)
1969/12/31/18:00:37.079,(-4 -4 -1 31 14 2 -3 -2)
1969/12/31/18:00:37.079,(0 1 -1 -15 3 0 0 -1)
1969/12/31/18:00:37.101,(3 -1 -6 -13 -12 0 3 1)
1969/12/31/18:00:37.101,(0 0 9 5 -4 1 -1 0)
1969/12/31/18:00:37.102,(-4 -2 8 30 19 2 -2 -4)
1969/12/31/18:00:37.102,(0 0 -3 -16 -6 -3 -1 1)
1969/12/31/18:00:37.116,(-3 -5 -5 4 -11 -5 -2 -1)
1969/12/31/18:00:37.116,(0 -2 0 -11 -7 -4 0 -1)
1969/12/31/18:00:37.117,(0 -1 -2 15 8 -1 -1 0)
1969/12/31/18:00:37.117,(-1 -2 -5 -16 -8 -4 -1 -1)
1969/12/31/18:00:37.140,(0 -2 -1 7 -3 -1 -1 0)
1969/12/31/18:00:37.140,(0 0 4 5 7 2 -1 -1)
1969/12/31/18:00:37.141,(0 -1 -6 -12 -6 -1 -1 -3)
1969/12/31/18:00:37.141,(3 2 -1 -8 -3 -1 1 2)
1969/12/31/18:00:37.161,(-1 2 4 4 0 2 -1 -3)
1969/12/31/18:00:37.161,(0 1 1 6 2 4 -1 1)
1969/12/31/18:00:37.162,(0 -1 -4 -4 -3 2 0 -1)
1969/12/31/18:00:37.162,(-6 -2 0 -8 0 2 1 -1)
1969/12/31/18:00:37.176,(-1 -1 5 10 0 -1 0 -2)
1969/12/31/18:00:37.176,(2 3 1 4 1 -2 -1 -4)
1969/12/31/18:00:37.176,(-2 -3 -6 2 -1 -4 0 1)
1969/12/31/18:00:37.177,(2 0 -3 -5 -2 -2 -1 0)
1969/12/31/18:00:37.198,(-6 -3 -2 -2 -3 -3 -1 1)
1969/12/31/18:00:37.198,(-1 -3 0 -1 -3 -1 -1 0)
1969/12/31/18:00:37.199,(0 0 1 8 6 5 0 -1)
1969/12/31/18:00:37.199,(0 3 3 1 4 3 1 -2)
1969/12/31/18:00:37.221,(2 2 3 5 1 3 2 0)
1969/12/31/18:00:37.221,(-1 -1 0 -3 -2 -1 -2 -1)
1969/12/31/18:00:37.222,(3 0 -5 -13 -4 -2 1 2)
1969/12/31/18:00:37.222,(2 -1 1 3 0 0 2 3)
1969/12/31/18:00:37.236,(-4 -2 0 3 -1 -6 -3 -2)
1969/12/31/18:00:37.236,(-17 -7 2 6 0 -5 -4 -11)
1969/12/31/18:00:37.237,(-12 -11 -7 -10 -5 -5 -1 -3)
1969/12/31/18:00:37.237,(37 26 11 8 9 9 9 17)
1969/12/31/18:00:37.258,(-6 -7 -7 -7 -10 -8 -7 -7)
1969/12/31/18:00:37.258,(6 2 -1 -1 0 2 1 4)
1969/12/31/18:00:37.259,(-8 -2 -4 -12 -7 -3 -3 -4)
1969/12/31/18:00:37.259,(-10 -8 -6 -12 -19 -2 -1 -1)
1969/12/31/18:00:37.282,(8 6 9 33 40 14 7 5)
1969/12/31/18:00:37.282,(-4 0 2 1 1 0 -1 0)
1969/12/31/18:00:37.282,(7 5 2 3 4 1 -2 -3)
1969/12/31/18:00:37.282,(-9 -8 -6 -16 -9 -3 -2 0)
1969/12/31/18:00:37.296,(-1 -3 -13 -50 -28 -7 -1 0)
1969/12/31/18:00:37.296,(-3 -2 4 26 7 3 0 -1)
1969/12/31/18:00:37.296,(6 4 13 39 30 7 3 2)
1969/12/31/18:00:37.296,(-3 -4 -5 -9 -10 -10 -8 -7)
1969/12/31/18:00:37.318,(-9 -3 0 3 -1 4 5 1)
1969/12/31/18:00:37.318,(7 1 1 -1 4 -2 3 4)
1969/12/31/18:00:37.319,(-10 1 -3 -14 -13 0 -4 -10)
1969/12/31/18:00:37.319,(-6 -5 -1 4 4 -4 -6 -6)
1969/12/31/18:00:37.349,(11 6 1 -2 -4 -6 -5 -2)
1969/12/31/18:00:37.349,(-6 -6 -5 -14 -8 -5 -5 -4)
1969/12/31/18:00:37.350,(8 3 -2 3 -2 -2 -1 5)
1969/12/31/18:00:37.350,(3 -3 -2 2 5 2 4 2)
1969/12/31/18:00:37.356,(-6 -2 -2 -11 -16 -2 -2 -1)
1969/12/31/18:00:37.356,(-5 0 1 9 3 -3 -4 -9)
1969/12/31/18:00:37.356,(-2 -1 -8 -23 -11 0 5 5)
1969/12/31/18:00:37.356,(-10 -9 -35 -104 -24 -7 -5 -8)
1969/12/31/18:00:37.380,(7 4 22 96 23 2 0 3)
1969/12/31/18:00:37.380,(0 8 37 86 48 14 6 2)
1969/12/31/18:00:37.381,(-11 -8 -1 -4 0 -2 -3 -7)
1969/12/31/18:00:37.381,(-22 1 4 -3 -5 3 3 -4)
1969/12/31/18:00:37.401,(35 11 -13 -49 -14 3 12 18)
1969/12/31/18:00:37.401,(12 -5 -27 -57 -30 -18 -18 -8)
1969/12/31/18:00:37.401,(-24 -5 0 3 -3 -4 -4 -3)
1969/12/31/18:00:37.401,(32 -18 5 17 6 1 -1 -2)
1969/12/31/18:00:37.424,(-13 0 -3 -14 -5 -2 -5 -1)
1969/12/31/18:00:37.424,(-1 5 3 4 0 5 10 9)
1969/12/31/18:00:37.425,(12 3 -3 -5 -2 0 1 5)
1969/12/31/18:00:37.425,(-22 -7 -2 0 -5 -7 -6 -8)
1969/12/31/18:00:37.446,(-10 -5 6 19 9 -1 -3 -8)
1969/12/31/18:00:37.446,(15 5 0 -7 -5 1 2 1)
1969/12/31/18:00:37.447,(-8 -9 -6 -9 -3 -1 0 2)
1969/12/31/18:00:37.447,(-6 10 15 36 12 -2 -4 -7)
1969/12/31/18:00:37.461,(14 -4 -4 -34 -13 -1 -1 1)
1969/12/31/18:00:37.461,(-3 -1 -15 -42 -22 -8 -9 -5)
1969/12/31/18:00:37.462,(9 -4 -4 32 10 -3 0 0)
1969/12/31/18:00:37.462,(-22 -5 10 51 27 6 3 4)
1969/12/31/18:00:37.476,(-4 4 4 -1 2 4 -6 -19)
1969/12/31/18:00:37.476,(51 22 0 -12 -9 -7 0 18)
1969/12/31/18:00:37.476,(-4 -6 -3 -29 -15 -5 -7 -10)
1969/12/31/18:00:37.476,(-24 -15 -5 -8 -6 -5 -11 -9)
1969/12/31/18:00:37.498,(-20 -5 -2 6 6 1 0 -3)
1969/12/31/18:00:37.498,(-1 -3 -9 -45 -9 5 10 11)
1969/12/31/18:00:37.499,(7 6 4 26 -4 -2 2 5)
1969/12/31/18:00:37.499,(10 16 15 29 10 7 6 2)
1969/12/31/18:00:37.521,(-2 -3 2 11 20 10 7 3)
1969/12/31/18:00:37.521,(-11 -10 -17 -43 -6 0 -4 -8)
1969/12/31/18:00:37.522,(7 2 -1 -10 -11 -5 1 4)
1969/12/31/18:00:37.522,(-3 -1 17 57 15 -2 -4 -6)
1969/12/31/18:00:37.536,(-6 2 6 16 4 1 -1 -3)
1969/12/31/18:00:37.536,(-11 -9 -2 1 0 -3 -5 -4)
1969/12/31/18:00:37.536,(-10 -6 -13 -41 -14 -1 -2 -8)
1969/12/31/18:00:37.537,(12 3 -11 -39 -21 -4 2 4)
1969/12/31/18:00:37.558,(-7 -5 0 33 17 -4 -2 -1)
1969/12/31/18:00:37.558,(-3 0 6 28 16 8 7 5)
1969/12/31/18:00:37.559,(-3 0 -1 -12 -2 0 0 -3)
1969/12/31/18:00:37.559,(-3 -11 -19 -65 -25 -12 -2 5)
1969/12/31/18:00:37.581,(24 21 -11 -37 -19 2 3 3)
1969/12/31/18:00:37.581,(-18 -8 15 46 -5 -3 -3 -12)
1969/12/31/18:00:37.582,(13 5 15 13 13 9 5 8)
1969/12/31/18:00:37.582,(3 0 -9 19 25 6 1 1)
1969/12/31/18:00:37.604,(-4 -4 8 28 8 -3 -1 4)
1969/12/31/18:00:37.604,(-1 3 8 14 10 7 4 1)
1969/12/31/18:00:37.605,(-2 -2 -8 -17 -10 -1 -1 -2)
1969/12/31/18:00:37.605,(9 4 0 2 1 1 2 6)
1969/12/31/18:00:37.627,(-5 -8 -14 -56 -16 -6 -4 -3)
1969/12/31/18:00:37.627,(-11 -3 -4 4 -7 -3 -2 -6)
1969/12/31/18:00:37.627,(-2 5 12 27 13 4 2 8)
1969/12/31/18:00:37.627,(31 5 -3 -19 -6 4 3 4)
1969/12/31/18:00:37.641,(-3 -4 -1 10 -9 -9 -9 -11)
1969/12/31/18:00:37.641,(-25 -17 -5 -32 -7 -4 2 8)
1969/12/31/18:00:37.641,(-8 0 -2 9 3 4 2 -3)
1969/12/31/18:00:37.642,(42 23 9 32 12 7 5 6)
1969/12/31/18:00:37.656,(-5 -7 0 -7 0 -3 -4 2)
1969/12/31/18:00:37.656,(-13 -3 3 13 -7 1 -1 -13)
1969/12/31/18:00:37.657,(1 -4 -11 -27 -1 -3 0 7)
1969/12/31/18:00:37.657,(-13 -6 -25 -90 -30 0 5 2)
1969/12/31/18:00:37.678,(-4 -10 -19 -8 -42 -14 -3 -3)
1969/12/31/18:00:37.678,(11 8 35 88 40 14 4 4)
1969/12/31/18:00:37.679,(-2 11 46 122 101 25 2 -5)
1969/12/31/18:00:37.679,(-7 1 7 -3 6 7 -4 -6)
1969/12/31/18:00:37.702,(1 -2 -5 -17 -1 -1 -2 3)
1969/12/31/18:00:37.702,(1 -4 -27 -75 -42 -16 -7 -3)
1969/12/31/18:00:37.703,(6 -1 -10 -6 -29 -13 -5 -2)
1969/12/31/18:00:37.703,(-11 -5 1 0 5 -6 -3 -3)
1969/12/31/18:00:37.716,(-5 -6 -6 -19 -11 -3 -1 0)
1969/12/31/18:00:37.716,(10 4 -9 -3 -7 -3 1 3)
1969/12/31/18:00:37.717,(0 -4 -6 -49 -15 0 3 -1)
1969/12/31/18:00:37.717,(-3 -2 -8 3 -1 -4 -1 1)
1969/12/31/18:00:37.738,(0 4 12 7 -5 2 3 3)
1969/12/31/18:00:37.738,(-3 2 3 23 10 -1 -3 -8)
1969/12/31/18:00:37.739,(3 -2 -8 -16 5 -1 -1 0)
1969/12/31/18:00:37.739,(-3 -2 4 8 -10 1 2 1)
1969/12/31/18:00:37.762,(1 2 12 27 16 8 4 2)
1969/12/31/18:00:37.762,(0 4 13 20 20 4 -1 -1)
1969/12/31/18:00:37.762,(0 -1 -2 8 -13 -8 -6 -3)
1969/12/31/18:00:37.762,(-8 -3 -2 9 -8 -3 -3 -4)
1969/12/31/18:00:37.775,(-4 -4 0 6 8 1 -2 -2)
1969/12/31/18:00:37.775,(6 1 -10 -38 -2 4 6 7)
1969/12/31/18:00:37.783,(-3 -8 -15 -14 -23 -15 -15 -15)
1969/12/31/18:00:37.783,(-1 -2 5 11 1 -3 -4 -2)
1969/12/31/18:00:37.799,(-9 -2 2 0 11 4 -2 -5)
1969/12/31/18:00:37.799,(3 -3 -11 -6 -3 -1 5 9)
1969/12/31/18:00:37.800,(-5 -4 -6 -26 -9 0 -3 -9)
1969/12/31/18:00:37.800,(6 1 -17 -51 -16 -3 3 7)
1969/12/31/18:00:37.829,(1 5 19 74 14 2 0 0)
1969/12/31/18:00:37.829,(-5 2 17 38 11 4 -5 -9)
1969/12/31/18:00:37.830,(0 0 3 8 0 2 3 2)
1969/12/31/18:00:37.830,(3 0 1 -2 1 -2 1 2)
1969/12/31/18:00:37.835,(-7 1 -15 -40 -4 -1 0 -4)
1969/12/31/18:00:37.835,(4 -4 6 5 6 4 1 3)
1969/12/31/18:00:37.843,(-4 -1 2 3 -2 0 4 3)
1969/12/31/18:00:37.843,(-10 -2 3 16 -4 -10 -12 -11)
1969/12/31/18:00:37.858,(7 -6 -5 -21 0 7 15 22)
1969/12/31/18:00:37.858,(-16 12 -2 -16 3 4 -3 -13)
1969/12/31/18:00:37.859,(-37 -25 -17 -21 -17 -13 -12 -18)
1969/12/31/18:00:37.859,(34 11 5 25 13 11 12 22)
1969/12/31/18:00:37.882,(-24 -12 -3 3 -3 -9 -16 -19)
1969/12/31/18:00:37.882,(31 16 0 -13 -6 0 6 11)
1969/12/31/18:00:37.882,(-13 -14 -4 -24 -1 5 6 4)
1969/12/31/18:00:37.882,(-18 -8 -1 36 5 -4 -3 -12)
1969/12/31/18:00:37.895,(3 6 4 -10 2 3 5 3)
1969/12/31/18:00:37.895,(4 -3 -2 8 -2 -1 1 4)
1969/12/31/18:00:37.903,(9 16 22 23 3 -1 -1 3)
1969/12/31/18:00:37.903,(-56 -23 15 23 4 -1 -10 -25)
1969/12/31/18:00:37.918,(97 53 12 20 12 18 27 49)
1969/12/31/18:00:37.918,(-36 -33 -21 -18 -16 -25 -32 -31)
1969/12/31/18:00:37.919,(74 30 -4 -16 -1 5 12 25)
1969/12/31/18:00:37.919,(-109 -48 -16 -22 -12 -13 -20 -37)
1969/12/31/18:00:37.942,(65 31 5 -1 3 8 10 16)
1969/12/31/18:00:37.942,(32 11 1 -19 -8 -1 3 22)
1969/12/31/18:00:37.942,(18 1 4 24 11 9 13 14)
1969/12/31/18:00:37.942,(-1 -5 7 5 0 3 3 3)
1969/12/31/18:00:37.964,(3 10 -12 -15 0 -6 -3 3)
1969/12/31/18:00:37.964,(-1 -8 -22 -37 -9 4 6 5)
1969/12/31/18:00:37.965,(-3 10 17 23 -6 -1 0 0)
1969/12/31/18:00:37.965,(27 17 16 28 21 13 12 12)
1969/12/31/18:00:37.979,(-69 -41 10 35 8 -6 -11 -12)
1969/12/31/18:00:37.979,(44 39 11 21 3 -3 1 -2)
1969/12/31/18:00:37.979,(-84 -51 -29 -24 -8 1 -5 -24)
1969/12/31/18:00:37.979,(110 73 -4 -37 -8 0 9 32)
1969/12/31/18:00:38.001,(-82 -46 -19 -24 -16 -19 -25 -40)
1969/12/31/18:00:38.001,(-21 10 13 21 -1 -2 6 6)
1969/12/31/18:00:38.002,(-28 -48 -15 5 4 3 2 -15)
1969/12/31/18:00:38.002,(33 20 4 -11 -4 -5 1 22)
1969/12/31/18:00:38.024,(46 45 -3 -22 -5 -5 -11 -9)
1969/12/31/18:00:38.024,(-37 -15 1 -17 -10 -1 -1 -6)
1969/12/31/18:00:38.025,(7 -3 -1 7 -6 -15 -20 -10)
1969/12/31/18:00:38.025,(-54 -30 -8 -18 3 10 10 -7)
1969/12/31/18:00:38.038,(25 5 -2 11 -2 2 12 24)
1969/12/31/18:00:38.038,(-25 -22 -5 7 2 0 -4 -17)
1969/12/31/18:00:38.039,(18 23 6 -2 9 10 9 13)
1969/12/31/18:00:38.039,(-14 -4 25 79 20 -4 -11 -14)
1969/12/31/18:00:38.062,(-12 0 19 70 27 4 1 -6)
1969/12/31/18:00:38.062,(8 1 8 5 -3 2 4 2)
1969/12/31/18:00:38.062,(-39 -8 -6 -49 -22 -11 -8 -8)
1969/12/31/18:00:38.062,(-5 -5 -22 -23 -5 2 -1 -9)
1969/12/31/18:00:38.075,(38 28 3 -41 -7 10 16 16)
1969/12/31/18:00:38.075,(41 -10 -5 -5 7 9 13 16)
1969/12/31/18:00:38.083,(9 38 -2 -15 -11 -11 -12 2)
1969/12/31/18:00:38.083,(-18 -21 -14 -16 -16 -14 -13 -22)
1969/12/31/18:00:38.108,(-31 -25 -5 -2 1 1 -2 -9)
1969/12/31/18:00:38.108,(-18 -6 -3 -19 1 7 8 6)
1969/12/31/18:00:38.109,(28 20 12 23 9 7 9 11)
1969/12/31/18:00:38.109,(6 -4 0 0 1 6 7 6)
1969/12/31/18:00:38.122,(-32 -20 -1 6 3 -3 -7 -15)
1969/12/31/18:00:38.122,(5 12 15 26 6 1 -3 2)
1969/12/31/18:00:38.122,(-13 -17 -5 18 2 -6 -7 -9)
1969/12/31/18:00:38.122,(7 -4 -4 -25 -11 4 10 14)
1969/12/31/18:00:38.144,(-10 5 -5 -9 7 17 15 4)
1969/12/31/18:00:38.144,(-17 -16 1 6 3 -5 -3 8)
1969/12/31/18:00:38.145,(75 53 11 0 2 -3 -9 -3)
1969/12/31/18:00:38.145,(-45 -38 -10 -21 -7 -2 3 -3)
1969/12/31/18:00:38.166,(36 28 -2 -9 -13 -6 -5 4)
1969/12/31/18:00:38.166,(14 2 0 3 8 9 12 18)
1969/12/31/18:00:38.167,(-9 -4 4 2 4 3 4 2)
1969/12/31/18:00:38.167,(40 25 3 2 -2 -10 -9 2)
1969/12/31/18:00:38.182,(-45 -32 3 -2 -3 -5 -1 -14)
1969/12/31/18:00:38.182,(-5 2 -5 0 1 0 0 -7)
1969/12/31/18:00:38.183,(20 9 1 -2 0 4 10 21)
1969/12/31/18:00:38.183,(-18 -4 4 16 4 2 -11 -24)
1969/12/31/18:00:38.204,(-40 -24 2 -4 -4 -4 -4 -10)
1969/12/31/18:00:38.204,(47 27 -15 -18 -6 -1 9 14)
1969/12/31/18:00:38.205,(4 -12 -4 3 -2 -11 -12 -3)
1969/12/31/18:00:38.205,(-27 -13 0 8 9 8 13 2)
1969/12/31/18:00:38.218,(25 22 1 -5 -5 -6 -11 -3)
1969/12/31/18:00:38.218,(-85 -63 -17 -8 -15 -22 -33 -46)
1969/12/31/18:00:38.219,(-38 27 6 -2 7 18 22 0)
1969/12/31/18:00:38.219,(119 61 2 -1 -2 -5 6 43)
1969/12/31/18:00:38.242,(-34 -17 -9 -13 -10 -10 -11 -14)
1969/12/31/18:00:38.242,(-14 -4 5 8 4 -1 -1 -8)
1969/12/31/18:00:38.242,(-26 -22 4 5 2 -1 -5 -5)
1969/12/31/18:00:38.242,(-4 3 5 -2 -3 -2 -1 0)
1969/12/31/18:00:38.264,(-23 -20 -8 -5 -7 -8 -10 -15)
1969/12/31/18:00:38.264,(0 7 5 4 4 7 7 6)
1969/12/31/18:00:38.265,(16 -6 -12 -8 0 6 11 16)
1969/12/31/18:00:38.265,(1 11 2 5 7 8 4 1)
1969/12/31/18:00:38.278,(0 -21 -4 -2 0 5 12 17)
1969/12/31/18:00:38.278,(14 6 5 1 -6 -11 -16 -8)
1969/12/31/18:00:38.279,(-77 -56 -20 -2 3 0 4 -13)
1969/12/31/18:00:38.279,(38 34 9 -1 -3 -10 -22 3)
1969/12/31/18:00:38.302,(-27 -7 -3 -2 1 0 0 -8)
1969/12/31/18:00:38.302,(7 23 -4 -4 -5 -1 4 21)
1969/12/31/18:00:38.302,(-96 -48 -5 -6 -13 -28 -45 -81)
1969/12/31/18:00:38.302,(74 34 14 13 23 42 73 92)
1969/12/31/18:00:38.324,(-85 -82 -20 -13 -15 -25 -48 -77)
1969/12/31/18:00:38.324,(91 73 13 3 11 22 34 73)
1969/12/31/18:00:38.325,(50 26 8 9 10 8 10 17)
1969/12/31/18:00:38.325,(-44 -12 0 1 -2 -2 -7 -23)
1969/12/31/18:00:38.338,(23 14 5 -2 -4 0 8 14)
1969/12/31/18:00:38.338,(-53 -38 0 8 5 1 -3 -25)
1969/12/31/18:00:38.339,(21 14 5 4 2 2 2 11)
1969/12/31/18:00:38.339,(-31 -24 -10 -6 -8 -8 -6 -6)
1969/12/31/18:00:38.362,(9 4 9 8 14 20 25 19)
1969/12/31/18:00:38.362,(49 9 -5 -2 -10 -19 -16 18)
1969/12/31/18:00:38.363,(23 28 0 -3 -5 -13 -17 -12)
1969/12/31/18:00:38.363,(-97 -67 -7 3 -3 -10 -24 -52)
1969/12/31/18:00:38.384,(83 79 4 2 13 23 33 59)
1969/12/31/18:00:38.384,(-32 -14 -9 -9 -5 -4 -14 -22)
1969/12/31/18:00:38.386,(24 -6 0 -1 -4 1 6 22)
1969/12/31/18:00:38.386,(0 3 3 3 1 -3 0 3)
1969/12/31/18:00:38.398,(-47 -27 -1 0 -10 -11 -23 -30)
1969/12/31/18:00:38.398,(22 10 -2 -13 10 20 24 26)
1969/12/31/18:00:38.407,(67 48 7 -5 -1 7 9 37)
1969/12/31/18:00:38.407,(-83 -51 5 8 -3 -8 -22 -50)
1969/12/31/18:00:38.422,(91 68 14 1 3 10 22 42)
1969/12/31/18:00:38.422,(-49 -15 6 13 -3 -15 -12 -35)
1969/12/31/18:00:38.423,(-1 -13 -2 1 8 5 10 11)
1969/12/31/18:00:38.423,(15 -8 -15 -7 -8 -9 -1 6)
1969/12/31/18:00:38.444,(-13 -8 -4 -10 -13 -27 -31 -21)
1969/12/31/18:00:38.444,(-8 -3 -6 3 6 7 2 -19)
1969/12/31/18:00:38.446,(-51 -41 -6 -1 -9 -10 -9 -23)
1969/12/31/18:00:38.446,(-9 -2 -1 4 1 -1 -1 3)
1969/12/31/18:00:38.474,(27 -9 -8 -3 -7 -7 -4 10)
1969/12/31/18:00:38.474,(-45 -33 -20 -11 -13 -16 -18 -28)
1969/12/31/18:00:38.476,(-66 -39 -3 2 4 5 -3 -18)
1969/12/31/18:00:38.476,(23 10 3 -1 -17 -24 -35 -33)
1969/12/31/18:00:38.482,(23 8 -3 -1 19 32 36 32)
1969/12/31/18:00:38.482,(-53 -22 -4 -5 -9 -12 -30 -62)
1969/12/31/18:00:38.483,(0 13 5 4 5 7 -6 -12)
1969/12/31/18:00:38.483,(-13 0 8 -5 -8 -8 -10 -5)
1969/12/31/18:00:38.504,(-21 -6 -1 -4 -6 -8 -11 -14)
1969/12/31/18:00:38.504,(-8 -1 -7 -12 0 7 7 1)
1969/12/31/18:00:38.505,(-16 -38 -14 -7 -12 -12 -15 -11)
1969/12/31/18:00:38.505,(12 49 -8 -22 -4 2 -6 -17)
1969/12/31/18:00:38.518,(-63 -31 9 10 -10 -18 -21 -40)
1969/12/31/18:00:38.518,(-6 -28 1 1 9 12 16 30)
1969/12/31/18:00:38.527,(-3 2 -4 -4 -1 6 13 3)
1969/12/31/18:00:38.527,(13 4 1 1 -2 -8 -4 6)
1969/12/31/18:00:38.541,(-72 -51 -10 -5 -12 -19 -24 -42)
1969/12/31/18:00:38.541,(3 16 -3 -2 14 18 10 -20)
1969/12/31/18:00:38.543,(12 11 -2 6 -6 -11 -7 4)
1969/12/31/18:00:38.543,(-33 -29 -7 -9 -2 0 -1 -7)
1969/12/31/18:00:38.564,(23 41 15 11 17 17 14 30)
1969/12/31/18:00:38.564,(-1 12 6 6 9 19 20 25)
1969/12/31/18:00:38.566,(5 9 -3 -2 3 0 0 3)
1969/12/31/18:00:38.566,(-10 -15 -3 7 4 1 7 -4)
1969/12/31/18:00:38.578,(37 36 7 12 2 -3 10 21)
1969/12/31/18:00:38.578,(-9 -29 -2 0 -5 -7 -1 3)
1969/12/31/18:00:38.586,(18 11 -4 -3 -2 -10 -5 1)
1969/12/31/18:00:38.586,(19 7 2 7 -2 -4 1 5)
1969/12/31/18:00:38.602,(-10 -32 -11 -1 1 6 13 16)
1969/12/31/18:00:38.602,(11 24 0 8 4 7 4 -3)
1969/12/31/18:00:38.603,(26 10 -1 -5 -13 -17 -18 -7)
1969/12/31/18:00:38.603,(-14 -22 -11 -22 -15 -9 -7 -7)
1969/12/31/18:00:38.625,(37 21 -6 -10 5 14 15 25)
1969/12/31/18:00:38.625,(-68 -68 3 24 -6 -22 -32 -45)
1969/12/31/18:00:38.626,(114 109 36 31 34 55 80 112)
1969/12/31/18:00:38.626,(-42 -7 1 8 0 -10 -23 -31)
1969/12/31/18:00:38.646,(-9 -4 -8 -15 -11 -9 -14 -25)
1969/12/31/18:00:38.646,(-6 -8 -2 -15 -7 -1 -1 7)
1969/12/31/18:00:38.648,(-16 -20 -1 -2 -6 -6 -9 -14)
1969/12/31/18:00:38.648,(18 6 -3 -12 -4 6 10 17)
1969/12/31/18:00:38.661,(-4 3 -4 -11 -3 -4 -5 -6)
1969/12/31/18:00:38.661,(17 2 -7 5 2 -3 1 7)
1969/12/31/18:00:38.663,(-45 -24 -3 -1 -7 -15 -27 -39)
1969/12/31/18:00:38.663,(42 43 18 35 19 31 36 39)
1969/12/31/18:00:38.684,(-2 -28 4 12 1 -7 -9 -7)
1969/12/31/18:00:38.684,(71 30 11 7 2 2 6 28)
1969/12/31/18:00:38.685,(-2 -16 -13 -24 -5 -6 -8 -8)
1969/12/31/18:00:38.686,(22 10 6 2 13 19 21 5)
1969/12/31/18:00:38.698,(86 75 11 -7 -2 17 29 49)
1969/12/31/18:00:38.698,(17 14 14 6 7 4 -1 4)
1969/12/31/18:00:38.707,(8 23 0 -5 -8 -15 -25 -26)
1969/12/31/18:00:38.707,(5 -10 -10 -8 2 4 8 15)
1969/12/31/18:00:38.721,(-29 -22 -2 7 -6 -12 -16 -26)
1969/12/31/18:00:38.721,(-3 9 -5 -39 -22 -2 11 12)
1969/12/31/18:00:38.723,(-18 -11 1 14 3 -2 -2 -7)
1969/12/31/18:00:38.723,(-27 -4 3 7 -2 -11 -16 -9)
1969/12/31/18:00:38.744,(-54 -30 0 8 11 0 -17 -38)
1969/12/31/18:00:38.744,(22 8 -12 -9 -14 -15 -13 10)
1969/12/31/18:00:38.746,(-63 -43 -2 2 -2 0 -8 -30)
1969/12/31/18:00:38.746,(33 16 -3 -12 1 1 4 19)
1969/12/31/18:00:38.758,(-4 -10 1 3 -1 3 3 -3)
1969/12/31/18:00:38.758,(-18 -13 2 9 -2 -7 -5 1)
1969/12/31/18:00:38.767,(-74 -57 -24 -17 -14 -15 -26 -62)
1969/12/31/18:00:38.767,(-62 -53 -4 4 -7 -14 -20 -31)
1969/12/31/18:00:38.781,(61 58 -2 -5 12 19 24 34)
1969/12/31/18:00:38.782,(56 34 15 14 20 30 48 66)
1969/12/31/18:00:38.783,(66 30 5 1 2 8 15 30)
1969/12/31/18:00:38.783,(1 2 -1 -1 5 2 -4 -10)
1969/12/31/18:00:38.804,(-55 -46 -14 -6 -20 -21 -29 -38)
1969/12/31/18:00:38.804,(-25 -13 -6 -9 -7 -15 -19 -27)
1969/12/31/18:00:38.806,(23 19 1 -4 3 10 21 33)
1969/12/31/18:00:38.806,(13 3 -15 -32 0 8 10 16)
1969/12/31/18:00:38.818,(-5 -19 -9 -8 -22 -11 -2 4)
1969/12/31/18:00:38.818,(-15 1 16 37 18 -1 -9 -21)
1969/12/31/18:00:38.826,(-8 10 25 37 7 1 -3 -5)
1969/12/31/18:00:38.827,(-25 -10 11 39 22 8 3 -7)
1969/12/31/18:00:38.840,(60 39 15 4 24 31 49 79)
1969/12/31/18:00:38.840,(23 27 -14 -39 -18 -13 -23 -33)
1969/12/31/18:00:38.849,(-18 -35 -17 -27 -20 -10 -2 -11)
1969/12/31/18:00:38.849,(11 -21 -4 -6 1 5 9 23)
1969/12/31/18:00:38.864,(-32 -26 4 -2 10 11 8 1)
1969/12/31/18:00:38.864,(-2 14 -3 -1 -5 -2 -5 -3)
1969/12/31/18:00:38.866,(8 3 3 4 8 5 6 12)
1969/12/31/18:00:38.866,(9 8 1 0 -5 -3 -3 -12)
1969/12/31/18:00:38.878,(-7 -9 -2 -1 -2 -7 3 3)
1969/12/31/18:00:38.878,(-32 -17 1 5 -2 -9 -18 -25)
1969/12/31/18:00:38.887,(2 3 -4 -3 1 3 5 7)
1969/12/31/18:00:38.887,(-5 3 0 -7 0 7 8 12)
1969/12/31/18:00:38.901,(-11 -2 -5 -4 -13 -15 -21 -26)
1969/12/31/18:00:38.901,(-21 -16 -8 -19 -51 -27 -11 -12)
1969/12/31/18:00:38.908,(0 4 1 4 18 10 11 9)
1969/12/31/18:00:38.908,(-5 0 1 9 30 10 0 -6)
1969/12/31/18:00:38.924,(-11 -10 3 21 36 16 -2 -10)
1969/12/31/18:00:38.924,(23 28 4 6 9 7 1 -1)
1969/12/31/18:00:38.926,(8 -6 -4 -6 -16 -3 2 11)
1969/12/31/18:00:38.926,(-1 -2 -5 -7 -25 -18 -14 -12)
1969/12/31/18:00:38.938,(-14 -4 -6 -6 -12 -12 -12 -17)
1969/12/31/18:00:38.938,(-39 -33 -10 -5 1 -2 -2 -11)
1969/12/31/18:00:38.947,(58 53 16 4 7 19 38 48)
1969/12/31/18:00:38.947,(46 35 7 0 -2 -3 1 3)
1969/12/31/18:00:38.961,(-75 -44 -19 -9 -13 -18 -27 -46)
1969/12/31/18:00:38.961,(24 6 -6 1 4 1 0 -1)
1969/12/31/18:00:38.968,(-66 -31 -5 0 -3 -12 -24 -40)
1969/12/31/18:00:38.968,(-14 -12 -3 0 -3 2 2 -3)
1969/12/31/18:00:38.984,(0 3 3 0 -5 -3 1 5)
1969/12/31/18:00:38.984,(-10 -7 -1 -5 -4 -9 -9 -10)
1969/12/31/18:00:38.986,(46 18 -1 2 18 26 34 48)
1969/12/31/18:00:38.986,(31 10 2 0 -4 0 12 28)
1969/12/31/18:00:38.998,(-2 1 0 -4 -10 -15 -22 -30)
1969/12/31/18:00:38.998,(-34 -18 -1 2 1 -7 -13 -18)
1969/12/31/18:00:39.007,(40 27 9 -3 7 15 21 45)
1969/12/31/18:00:39.007,(-16 8 -3 -6 -8 -8 -13 -20)
1969/12/31/18:00:39.021,(17 8 3 6 1 0 6 14)
1969/12/31/18:00:39.021,(21 11 9 4 12 18 21 25)
1969/12/31/18:00:39.028,(-44 -30 -10 -5 -12 -18 -27 -43)
1969/12/31/18:00:39.028,(45 23 7 6 5 5 17 34)
1969/12/31/18:00:39.044,(-7 8 1 1 0 -5 -12 -20)
1969/12/31/18:00:39.044,(-3 6 11 10 8 11 15 14)
1969/12/31/18:00:39.046,(-3 1 18 13 12 19 30 27)
1969/12/31/18:00:39.046,(12 30 -3 -4 4 10 18 22)
1969/12/31/18:00:39.067,(-32 -22 -3 -11 -14 -15 -15 -23)
1969/12/31/18:00:39.067,(15 6 -2 9 17 14 13 16)
1969/12/31/18:00:39.068,(-35 -34 -8 -1 -4 -4 -8 -23)
1969/12/31/18:00:39.068,(-20 -15 2 0 0 2 -6 -10)
1969/12/31/18:00:39.089,(-55 -56 -5 0 -12 -18 -25 -30)
1969/12/31/18:00:39.089,(14 26 -1 -3 6 7 8 -2)
1969/12/31/18:00:39.091,(-11 -1 1 1 -8 -16 -22 -28)
1969/12/31/18:00:39.091,(13 6 0 0 -1 -4 -3 1)
1969/12/31/18:00:39.104,(19 1 -3 -3 2 3 5 6)
1969/12/31/18:00:39.104,(-16 -18 -5 0 -2 -4 -6 -6)
1969/12/31/18:00:39.106,(-11 -5 -5 -2 -4 -8 -15 -15)
1969/12/31/18:00:39.106,(-46 -23 -3 0 -3 -4 -12 -29)
1969/12/31/18:00:39.126,(22 21 -1 -1 3 8 14 21)
1969/12/31/18:00:39.126,(28 19 9 5 9 9 15 25)
1969/12/31/18:00:39.128,(16 13 -1 -5 -4 -4 -6 -1)
1969/12/31/18:00:39.128,(-8 -14 -4 -2 -6 -8 -6 -4)
1969/12/31/18:00:39.140,(4 6 -3 -3 -1 7 15 11)
1969/12/31/18:00:39.140,(-19 -30 -3 -4 -4 -4 -6 -7)
1969/12/31/18:00:39.149,(-17 -9 -4 -2 -4 -9 -13 -20)
1969/12/31/18:00:39.149,(46 26 9 8 2 4 17 45)
1969/12/31/18:00:39.164,(20 26 13 10 8 4 3 14)
1969/12/31/18:00:39.164,(-12 -6 -1 -2 1 2 4 2)
1969/12/31/18:00:39.166,(12 7 -1 -1 2 5 6 9)
1969/12/31/18:00:39.166,(-34 -28 -9 -6 -10 -13 -17 -24)
1969/12/31/18:00:39.186,(40 28 8 5 10 16 21 29)
1969/12/31/18:00:39.187,(7 2 0 -1 -3 -3 0 6)
1969/12/31/18:00:39.188,(-18 -11 -6 0 -3 -4 -9 -14)
1969/12/31/18:00:39.188,(-9 -3 -5 -4 -2 -1 -5 -11)
1969/12/31/18:00:39.200,(-10 -10 -5 -4 -5 -7 -7 -8)
1969/12/31/18:00:39.200,(-9 -1 -3 0 1 1 -2 -6)
1969/12/31/18:00:39.217,(-3 -3 -2 0 -5 -8 -8 -6)
1969/12/31/18:00:39.217,(-9 -4 2 -2 1 0 -1 -8)
1969/12/31/18:00:39.224,(10 9 3 0 1 3 4 7)
1969/12/31/18:00:39.224,(-4 -4 -2 -6 -5 -4 -3 -2)
1969/12/31/18:00:39.226,(-4 -4 -2 2 -3 -5 -6 -6)
1969/12/31/18:00:39.226,(6 8 6 -2 -3 -5 -3 1)
1969/12/31/18:00:39.247,(-8 -11 -4 7 9 11 6 -2)
1969/12/31/18:00:39.247,(-4 0 -1 -4 -6 -8 -6 -6)
1969/12/31/18:00:39.248,(4 2 0 -5 -1 0 0 3)
1969/12/31/18:00:39.248,(-16 -10 -5 -2 -3 -5 -7 -15)
1969/12/31/18:00:39.271,(-4 -3 -4 -6 -7 -5 -6 -4)
1969/12/31/18:00:39.271,(-9 -6 -13 -28 -9 -7 -7 -6)
1969/12/31/18:00:39.272,(8 4 4 20 8 9 11 9)
1969/12/31/18:00:39.272,(2 4 4 -9 -9 1 1 2)
1969/12/31/18:00:39.275,(0 1 3 0 8 1 2 2)
1969/12/31/18:00:39.275,(0 1 11 39 1 5 2 1)
1969/12/31/18:00:39.293,(2 -1 -8 -28 -10 -8 -4 0)
1969/12/31/18:00:39.293,(-14 -12 2 63 17 -4 -9 -13)
1969/12/31/18:00:39.294,(3 4 14 18 16 5 3 3)
1969/12/31/18:00:39.294,(-8 -8 -11 -7 4 0 -3 -8)
1969/12/31/18:00:39.305,(2 3 -2 -20 -9 -3 -2 -1)
1969/12/31/18:00:39.305,(-4 -2 2 -34 -11 3 3 0)
1969/12/31/18:00:39.313,(8 0 -19 -28 -17 -8 -1 4)
1969/12/31/18:00:39.313,(-3 -8 -2 -24 -14 -11 -4 -1)
1969/12/31/18:00:39.322,(-6 -5 -10 30 -2 -4 -6 -3)
1969/12/31/18:00:39.322,(0 -6 -16 4 7 -1 -1 -1)
1969/12/31/18:00:39.335,(-9 1 6 -53 -24 -5 -9 -9)
1969/12/31/18:00:39.335,(6 5 -16 -44 -4 1 4 4)
1969/12/31/18:00:39.344,(9 3 5 29 0 4 4 9)
1969/12/31/18:00:39.344,(0 7 41 99 30 11 1 -1)
1969/12/31/18:00:39.358,(-2 7 25 61 21 9 2 -2)
1969/12/31/18:00:39.358,(-4 -1 2 0 8 5 0 -4)
1969/12/31/18:00:39.365,(-1 -4 -15 -62 -14 -7 -2 -1)
1969/12/31/18:00:39.365,(-5 -8 -23 -52 -17 -8 -3 -4)
1969/12/31/18:00:39.373,(4 -1 -5 -4 -6 -4 4 6)
1969/12/31/18:00:39.373,(2 2 -1 -7 -8 -3 1 1)
1969/12/31/18:00:39.382,(-2 -2 2 11 6 1 -1 -2)
1969/12/31/18:00:39.382,(1 2 -1 -18 -10 -2 2 1)
1969/12/31/18:00:39.395,(-2 -10 -24 -16 -10 -9 -3 -2)
1969/12/31/18:00:39.395,(-6 -9 -1 21 3 -6 -6 -7)
1969/12/31/18:00:39.404,(2 10 17 15 9 5 0 2)
1969/12/31/18:00:39.404,(4 8 12 -42 -6 10 4 2)
1969/12/31/18:00:39.419,(7 13 2 25 10 14 7 6)
1969/12/31/18:00:39.419,(1 -6 -15 7 10 -2 -4 0)
1969/12/31/18:00:39.421,(-12 -12 -12 -23 -19 -13 -12 -14)
1969/12/31/18:00:39.421,(-3 -2 -8 -85 -19 -5 -2 0)
1969/12/31/18:00:39.433,(2 6 14 28 8 -1 0 0)
1969/12/31/18:00:39.433,(3 11 43 116 39 16 6 3)
1969/12/31/18:00:39.442,(-2 -2 8 30 25 5 3 -1)
1969/12/31/18:00:39.442,(-1 -2 -11 -27 -11 -1 0 0)
1969/12/31/18:00:39.455,(-4 -9 -27 -83 -26 -4 -2 1)
1969/12/31/18:00:39.455,(-2 3 2 -13 -9 -1 0 -1)
1969/12/31/18:00:39.464,(3 3 -4 5 14 7 4 1)
1969/12/31/18:00:39.464,(1 -4 -4 5 -3 -4 -2 2)
1969/12/31/18:00:39.479,(-1 -2 -2 -4 -9 -10 -5 -2)
1969/12/31/18:00:39.479,(-5 3 20 -18 -9 -3 -6 -5)
1969/12/31/18:00:39.481,(8 12 9 -9 -8 6 5 6)
1969/12/31/18:00:39.481,(2 -5 -25 17 14 2 0 2)
1969/12/31/18:00:39.493,(0 4 7 17 8 6 1 -2)
1969/12/31/18:00:39.493,(-6 -17 -26 -38 -7 -9 -3 -3)
1969/12/31/18:00:39.502,(-6 4 6 -24 -18 -4 -3 -2)
1969/12/31/18:00:39.502,(1 3 17 42 3 1 0 -1)
1969/12/31/18:00:39.515,(2 -1 13 2 17 2 2 3)
1969/12/31/18:00:39.515,(-1 4 5 -4 -9 1 1 -2)
1969/12/31/18:00:39.524,(8 2 -9 31 25 7 5 3)
1969/12/31/18:00:39.524,(-4 -5 -4 3 9 2 1 0)
1969/12/31/18:00:39.539,(-3 3 8 4 -3 3 -1 -1)
1969/12/31/18:00:39.539,(6 3 1 -32 -12 -11 -3 4)
1969/12/31/18:00:39.541,(-6 -11 -25 -37 -25 -8 -2 -2)
1969/12/31/18:00:39.541,(1 0 7 18 1 -5 -3 -1)
1969/12/31/18:00:39.553,(-3 2 2 -2 1 -2 -3 -2)
1969/12/31/18:00:39.553,(-2 -7 -20 -2 -1 8 2 0)
1969/12/31/18:00:39.562,(4 2 16 15 10 -1 1 5)
1969/12/31/18:00:39.562,(-17 -8 -5 -18 -14 -17 -13 -15)
1969/12/31/18:00:39.575,(0 -6 -8 -14 -3 -3 -1 0)
1969/12/31/18:00:39.575,(-1 3 3 -5 -26 -4 1 2)
1969/12/31/18:00:39.584,(1 2 10 24 37 7 2 0)
1969/12/31/18:00:39.584,(0 -3 -4 18 12 7 2 1)
1969/12/31/18:00:39.599,(4 0 -10 -17 0 9 7 5)
1969/12/31/18:00:39.599,(-2 4 5 2 -5 -6 -7 -4)
1969/12/31/18:00:39.601,(-1 -2 -1 11 -3 -4 -4 -2)
1969/12/31/18:00:39.601,(1 4 0 -11 -6 -1 0 -1)
