time,.data
1969/12/31/18:00:32.348,(6 8 -16 -12 30 9 2 2)
1969/12/31/18:00:32.348,(20 9 28 125 32 5 2 12)
1969/12/31/18:00:32.349,(-19 -20 -8 7 15 4 -6 -13)
1969/12/31/18:00:32.349,(-1 -10 -34 -80 -13 2 1 1)
1969/12/31/18:00:32.370,(5 7 27 100 50 13 3 5)
1969/12/31/18:00:32.370,(-11 2 12 -40 -5 -5 -3 -8)
1969/12/31/18:00:32.371,(9 11 8 -7 -22 -6 0 6)
1969/12/31/18:00:32.371,(10 23 47 47 19 13 9 6)
1969/12/31/18:00:32.383,(1 -12 -48 -89 -53 -7 1 3)
1969/12/31/18:00:32.383,(-9 -12 -20 -53 40 2 -3 -5)
1969/12/31/18:00:32.392,(-4 4 18 45 15 1 -1 -1)
1969/12/31/18:00:32.392,(-5 -9 5 33 24 -4 -5 -5)
1969/12/31/18:00:32.407,(-8 -4 -37 -116 -70 -22 -5 -6)
1969/12/31/18:00:32.407,(12 12 35 60 -28 -5 1 6)
1969/12/31/18:00:32.409,(1 -3 9 32 37 18 7 1)
1969/12/31/18:00:32.409,(-3 1 -9 -29 27 2 0 -2)
1969/12/31/18:00:32.430,(-3 5 23 97 -9 -6 -5 -3)
1969/12/31/18:00:32.430,(0 -8 -36 -82 -47 -14 2 1)
1969/12/31/18:00:32.431,(4 2 10 -1 3 3 6 3)
1969/12/31/18:00:32.431,(1 -2 8 27 50 4 -3 -2)
1969/12/31/18:00:32.443,(-6 -5 -4 12 -12 -3 -4 -4)
1969/12/31/18:00:32.443,(-4 -1 -14 -58 -26 -5 -4 -1)
1969/12/31/18:00:32.452,(6 7 -1 30 1 6 4 3)
1969/12/31/18:00:32.452,(-1 -7 -12 -33 -34 -5 -2 0)
1969/12/31/18:00:32.466,(-4 -3 -3 -12 10 -2 -2 -2)
1969/12/31/18:00:32.466,(0 5 20 43 23 4 -1 -3)
1969/12/31/18:00:32.473,(1 -2 -10 -8 -8 1 3 2)
1969/12/31/18:00:32.473,(-3 -9 -18 -30 -3 -5 -4 -3)
1969/12/31/18:00:32.489,(-2 -1 -2 -30 -24 -7 -2 1)
1969/12/31/18:00:32.489,(7 7 13 47 23 9 4 4)
1969/12/31/18:00:32.491,(-2 2 7 15 16 4 -1 -3)
1969/12/31/18:00:32.491,(-3 -3 -5 16 -2 -4 -3 -2)
1969/12/31/18:00:32.503,(-4 -2 5 -9 4 -2 -3 -2)
1969/12/31/18:00:32.503,(3 0 -14 -19 -17 -3 1 4)
1969/12/31/18:00:32.512,(-2 -6 -13 -33 -17 -5 -1 -1)
1969/12/31/18:00:32.512,(-5 -3 5 32 18 -2 -5 -6)
1969/12/31/18:00:32.527,(-2 0 4 -4 -12 -2 -2 -2)
1969/12/31/18:00:32.527,(2 1 -7 -11 -2 0 2 2)
1969/12/31/18:00:32.534,(-1 -1 -1 7 2 -2 -2 0)
1969/12/31/18:00:32.534,(1 0 2 15 1 0 -1 0)
1969/12/31/18:00:32.551,(-3 -1 2 -4 -1 -2 -2 -3)
1969/12/31/18:00:32.551,(-2 -1 -2 7 4 3 0 0)
1969/12/31/18:00:32.551,(2 1 0 -6 -2 1 0 0)
1969/12/31/18:00:32.551,(2 0 -1 4 -3 0 3 4)
1969/12/31/18:00:32.571,(-2 -3 0 -11 -5 2 2 -1)
1969/12/31/18:00:32.571,(-1 3 0 3 3 2 1 0)
1969/12/31/18:00:32.579,(0 1 -3 -4 -8 -2 -2 0)
1969/12/31/18:00:32.579,(-2 2 1 1 1 0 -1 1)
1969/12/31/18:00:32.586,(-1 -1 1 6 5 1 -1 -3)
1969/12/31/18:00:32.586,(2 1 1 2 0 1 0 0)
1969/12/31/18:00:32.594,(3 0 -5 -13 -3 0 0 2)
1969/12/31/18:00:32.594,(-2 -2 3 8 -1 -1 -2 0)
1969/12/31/18:00:32.609,(0 3 2 -1 7 2 3 -1)
1969/12/31/18:00:32.609,(-1 -1 -3 1 0 -2 -3 -5)
1969/12/31/18:00:32.610,(-5 -5 -5 -8 -2 -4 -4 -2)
1969/12/31/18:00:32.610,(1 2 -3 4 6 -1 2 1)
1969/12/31/18:00:32.632,(-3 -1 -1 -7 -5 7 3 3)
1969/12/31/18:00:32.632,(5 2 -2 -16 3 4 2 5)
1969/12/31/18:00:32.632,(0 1 1 9 -8 1 -2 -3)
1969/12/31/18:00:32.632,(-1 3 5 7 12 8 3 3)
1969/12/31/18:00:32.647,(7 3 3 0 1 3 2 4)
1969/12/31/18:00:32.647,(-9 -5 -2 3 -1 -2 -3 -3)
1969/12/31/18:00:32.647,(-6 -4 -4 -8 0 -4 -5 -5)
1969/12/31/18:00:32.647,(3 0 -2 -15 -10 -1 5 2)
1969/12/31/18:00:32.669,(-4 -3 -5 -9 -17 -7 -4 -7)
1969/12/31/18:00:32.669,(-1 -3 -6 -20 -4 -3 -3 -3)
1969/12/31/18:00:32.670,(0 2 13 42 29 0 0 -3)
1969/12/31/18:00:32.670,(1 -2 -12 -54 -9 -2 2 3)
1969/12/31/18:00:32.693,(5 5 26 97 27 7 6 5)
1969/12/31/18:00:32.693,(-4 -3 1 8 -5 -3 -3 -4)
1969/12/31/18:00:32.699,(-4 -1 -8 -45 -22 -5 -3 -1)
1969/12/31/18:00:32.699,(-1 -5 -8 -4 -3 -4 -2 -1)
1969/12/31/18:00:32.706,(1 -2 -5 -10 2 1 1 1)
1969/12/31/18:00:32.706,(-7 -3 5 14 3 -1 -2 -5)
1969/12/31/18:00:32.707,(0 0 1 1 2 0 1 1)
1969/12/31/18:00:32.707,(-10 -7 -6 -7 -8 -4 -4 -4)
1969/12/31/18:00:32.729,(18 5 -5 -33 -12 3 3 5)
1969/12/31/18:00:32.729,(-2 5 -7 -41 -8 5 5 4)
1969/12/31/18:00:32.730,(-11 -7 -5 30 11 -7 -3 -9)
1969/12/31/18:00:32.730,(4 -2 -6 -56 -23 -7 -3 1)
1969/12/31/18:00:32.751,(-9 -2 1 30 -1 -6 -5 -7)
1969/12/31/18:00:32.751,(8 3 -11 -22 13 3 6 7)
1969/12/31/18:00:32.752,(-1 -3 -1 12 -1 1 -1 0)
1969/12/31/18:00:32.752,(-1 6 30 64 17 2 -1 -5)
1969/12/31/18:00:32.766,(-4 2 36 72 26 2 -5 -3)
1969/12/31/18:00:32.766,(9 3 6 6 2 4 3 4)
1969/12/31/18:00:32.767,(-1 -4 -19 -36 -11 2 4 3)
1969/12/31/18:00:32.767,(-10 -8 -25 -28 -11 -4 -6 -11)
1969/12/31/18:00:32.789,(4 -4 -19 -55 -18 -13 -12 -1)
1969/12/31/18:00:32.789,(23 16 10 30 10 15 25 24)
1969/12/31/18:00:32.790,(5 -2 -5 -11 -7 -3 -8 -7)
1969/12/31/18:00:32.790,(3 0 4 23 6 9 14 15)
1969/12/31/18:00:32.811,(-21 -11 -11 -27 -9 -8 -14 -19)
1969/12/31/18:00:32.811,(-30 -9 6 20 2 -4 -9 -16)
1969/12/31/18:00:32.812,(20 4 6 -4 -3 5 7 8)
1969/12/31/18:00:32.812,(34 17 3 6 1 -3 0 21)
1969/12/31/18:00:32.826,(-10 -12 -22 -70 -24 -7 -5 -8)
1969/12/31/18:00:32.826,(0 1 6 54 6 -5 -3 -2)
1969/12/31/18:00:32.827,(-15 0 25 54 28 7 0 -8)
1969/12/31/18:00:32.827,(-3 0 6 26 11 5 -1 -1)
1969/12/31/18:00:32.849,(7 1 -17 -69 -7 2 5 6)
1969/12/31/18:00:32.849,(-10 -15 -29 -35 -23 -12 -10 -10)
1969/12/31/18:00:32.850,(5 9 23 31 -8 1 5 5)
1969/12/31/18:00:32.850,(-1 2 22 63 26 -1 -4 -8)
1969/12/31/18:00:32.871,(-2 -1 1 4 9 1 1 -1)
1969/12/31/18:00:32.871,(-7 -9 -7 -28 -12 -5 -4 -5)
1969/12/31/18:00:32.872,(14 5 -12 -27 -5 -3 0 5)
1969/12/31/18:00:32.872,(-1 -3 -12 -17 -8 -1 -1 -1)
1969/12/31/18:00:32.887,(4 -2 0 4 3 11 14 13)
1969/12/31/18:00:32.887,(-1 -1 2 5 -2 -5 -11 -6)
1969/12/31/18:00:32.887,(-22 -10 -7 -16 -9 -6 -11 -12)
1969/12/31/18:00:32.887,(10 8 2 -12 -5 0 1 -1)
1969/12/31/18:00:32.910,(9 -1 -20 -42 8 -7 -5 5)
1969/12/31/18:00:32.910,(7 3 17 41 -13 2 4 5)
1969/12/31/18:00:32.916,(-6 0 16 10 15 2 0 2)
1969/12/31/18:00:32.916,(-14 -3 -2 14 2 -5 -9 -21)
1969/12/31/18:00:32.931,(-3 -1 -11 -48 -10 -2 4 0)
1969/12/31/18:00:32.931,(10 0 -18 -41 -7 -1 4 6)
1969/12/31/18:00:32.932,(-6 -4 -8 9 -3 -1 0 1)
1969/12/31/18:00:32.932,(1 5 28 49 26 7 3 2)
1969/12/31/18:00:32.946,(-1 4 23 78 26 11 1 -1)
1969/12/31/18:00:32.947,(-7 -3 3 2 11 -2 -5 -8)
1969/12/31/18:00:32.947,(6 -3 -21 -37 -14 -2 -1 1)
1969/12/31/18:00:32.947,(-19 -11 -16 -33 -15 -5 2 4)
1969/12/31/18:00:32.969,(29 20 1 -11 -18 -3 -2 5)
1969/12/31/18:00:32.969,(13 -2 -4 -24 -4 6 9 10)
1969/12/31/18:00:32.970,(-5 0 -4 -4 0 -10 -5 -1)
1969/12/31/18:00:32.970,(-2 -6 -16 -42 -40 -14 -10 -6)
1969/12/31/18:00:32.992,(-20 -10 4 28 -3 -2 -6 -11)
1969/12/31/18:00:32.992,(-4 3 11 65 83 17 4 1)
1969/12/31/18:00:32.992,(28 19 20 27 -9 18 12 16)
1969/12/31/18:00:32.992,(-13 -9 1 15 2 -5 -11 -16)
1969/12/31/18:00:33.006,(-8 -6 -4 -12 -10 -9 -8 -7)
1969/12/31/18:00:33.006,(1 -2 -15 -69 -47 -19 -15 -8)
1969/12/31/18:00:33.007,(-16 -12 -18 -13 -16 -11 0 -7)
1969/12/31/18:00:33.007,(3 -3 -39 -105 5 11 9 6)
1969/12/31/18:00:33.029,(7 9 32 103 26 21 17 14)
1969/12/31/18:00:33.029,(-3 7 42 99 44 16 0 -6)
1969/12/31/18:00:33.030,(-4 0 8 4 22 3 -2 -4)
1969/12/31/18:00:33.030,(2 1 -5 -10 -28 -9 -5 5)
1969/12/31/18:00:33.051,(-3 -5 -18 -46 -10 -13 -11 -7)
1969/12/31/18:00:33.051,(-4 -3 -15 -54 -29 -7 7 3)
1969/12/31/18:00:33.052,(2 -6 -29 -75 -11 -3 5 10)
1969/12/31/18:00:33.052,(1 -2 24 112 7 4 1 -2)
1969/12/31/18:00:33.068,(2 9 19 40 32 9 3 6)
1969/12/31/18:00:33.068,(-11 -5 6 22 -4 -6 -16 -21)
1969/12/31/18:00:33.069,(-10 -1 -6 -32 -3 -6 -11 -16)
1969/12/31/18:00:33.069,(5 -2 -16 -41 6 1 1 3)
1969/12/31/18:00:33.089,(-20 -12 -4 -14 -20 -15 -14 -11)
1969/12/31/18:00:33.089,(11 3 -3 -6 -12 -13 -14 -1)
1969/12/31/18:00:33.090,(-11 -5 -3 -1 0 4 20 -1)
1969/12/31/18:00:33.090,(7 -3 -9 -47 -22 8 24 28)
1969/12/31/18:00:33.111,(3 0 4 29 8 14 8 3)
1969/12/31/18:00:33.111,(2 6 4 -18 27 17 1 4)
1969/12/31/18:00:33.112,(3 3 24 88 27 1 -17 -8)
1969/12/31/18:00:33.112,(-2 6 26 58 15 -2 -5 -3)
1969/12/31/18:00:33.126,(-3 -3 -10 -41 -22 -16 -7 -7)
1969/12/31/18:00:33.126,(-2 -7 -34 -94 -27 -11 -2 -1)
1969/12/31/18:00:33.127,(4 0 -3 3 -13 -1 1 5)
1969/12/31/18:00:33.127,(-1 4 18 8 2 0 -3 -8)
1969/12/31/18:00:33.149,(-3 -1 -2 35 14 3 1 2)
1969/12/31/18:00:33.149,(16 9 4 22 2 3 4 2)
1969/12/31/18:00:33.150,(-5 -3 4 3 0 0 -1 0)
1969/12/31/18:00:33.150,(-8 1 2 -1 8 0 -4 -7)
1969/12/31/18:00:33.171,(13 3 -2 -19 -1 -2 -2 5)
1969/12/31/18:00:33.171,(3 -2 -6 9 -2 -3 6 9)
1969/12/31/18:00:33.172,(3 -2 -8 -43 -24 -2 6 2)
1969/12/31/18:00:33.172,(3 -2 -6 41 38 5 -4 -2)
1969/12/31/18:00:33.186,(-9 -3 8 3 -13 6 7 -1)
1969/12/31/18:00:33.187,(2 3 11 13 -13 -12 -5 3)
1969/12/31/18:00:33.187,(-5 -7 -26 -68 -24 -7 2 -2)
1969/12/31/18:00:33.187,(-6 -7 -1 9 8 1 -5 -8)
1969/12/31/18:00:33.209,(4 7 19 54 39 20 12 4)
1969/12/31/18:00:33.209,(-4 -1 18 43 19 5 -8 -5)
1969/12/31/18:00:33.210,(3 7 14 26 2 0 -2 9)
1969/12/31/18:00:33.210,(-10 -12 -18 -40 -24 -12 -4 -14)
1969/12/31/18:00:33.231,(12 -2 -22 -43 -19 -12 -7 1)
1969/12/31/18:00:33.231,(13 13 6 -6 -8 3 8 6)
1969/12/31/18:00:33.232,(-6 -5 -8 -25 0 -5 -8 -7)
1969/12/31/18:00:33.232,(-3 -2 -1 3 -4 -1 -2 3)
1969/12/31/18:00:33.262,(2 3 6 6 -3 0 1 2)
1969/12/31/18:00:33.262,(-13 -10 -2 2 -3 -6 -3 -6)
1969/12/31/18:00:33.263,(14 2 -5 -40 13 7 5 11)
1969/12/31/18:00:33.263,(-16 -4 2 40 -7 -5 -13 -17)
1969/12/31/18:00:33.269,(-4 1 7 0 1 -2 4 4)
1969/12/31/18:00:33.269,(-2 4 5 16 6 4 2 -5)
1969/12/31/18:00:33.276,(-1 -4 2 15 8 -2 -3 5)
1969/12/31/18:00:33.276,(7 2 -4 -19 0 0 0 2)
1969/12/31/18:00:33.291,(-14 -8 -13 -31 -12 -5 -3 -10)
1969/12/31/18:00:33.291,(3 -6 -9 -19 -10 -1 5 9)
1969/12/31/18:00:33.292,(28 12 11 37 10 3 5 12)
1969/12/31/18:00:33.292,(-9 -7 -6 -28 -5 -8 -13 -13)
1969/12/31/18:00:33.306,(-2 -4 -5 3 -9 -2 -1 -1)
1969/12/31/18:00:33.307,(4 4 13 21 10 6 4 4)
1969/12/31/18:00:33.307,(-19 -10 4 23 5 -1 -6 -14)
1969/12/31/18:00:33.307,(7 7 -2 -25 -7 -4 4 6)
1969/12/31/18:00:33.329,(32 7 -13 -8 -3 -7 0 15)
1969/12/31/18:00:33.329,(-31 -13 -13 -17 -11 -6 -9 -21)
1969/12/31/18:00:33.330,(-11 -13 -11 -19 -8 -3 -2 1)
1969/12/31/18:00:33.330,(-2 -3 0 27 4 2 1 -6)
1969/12/31/18:00:33.351,(11 15 3 -23 5 2 6 14)
1969/12/31/18:00:33.351,(-3 -6 -8 -5 -4 -2 -2 -4)
1969/12/31/18:00:33.359,(-5 -1 -2 37 2 -5 -8 -6)
1969/12/31/18:00:33.359,(6 7 25 17 8 12 7 4)
1969/12/31/18:00:33.366,(-7 -3 -17 -80 -5 3 0 -10)
1969/12/31/18:00:33.366,(-11 -1 13 94 -1 -6 -1 4)
1969/12/31/18:00:33.375,(-8 3 7 7 6 -2 -8 -12)
1969/12/31/18:00:33.375,(15 24 -3 1 4 3 5 8)
1969/12/31/18:00:33.389,(-11 -21 -4 3 -1 -1 1 6)
1969/12/31/18:00:33.389,(14 8 -20 -68 -16 -8 -10 -9)
1969/12/31/18:00:33.390,(-32 -19 3 -6 -4 4 0 -15)
1969/12/31/18:00:33.390,(-26 -16 2 14 3 -4 -1 -2)
1969/12/31/18:00:33.412,(17 21 2 -13 -7 5 7 5)
1969/12/31/18:00:33.412,(19 9 -18 -32 -1 2 8 17)
1969/12/31/18:00:33.413,(30 16 6 20 -1 6 6 13)
1969/12/31/18:00:33.413,(-1 -8 -7 -25 -7 -4 -1 0)
1969/12/31/18:00:33.426,(-44 -22 22 75 12 -7 -15 -29)
1969/12/31/18:00:33.426,(-2 14 32 51 20 12 7 3)
1969/12/31/18:00:33.434,(17 16 9 12 13 5 5 2)
1969/12/31/18:00:33.434,(-5 -10 -14 -34 -3 -1 4 12)
1969/12/31/18:00:33.449,(6 -4 -24 -47 -20 -11 -10 -11)
1969/12/31/18:00:33.449,(-13 -8 0 9 9 12 15 13)
1969/12/31/18:00:33.450,(0 -4 -4 -9 -3 1 -1 -4)
1969/12/31/18:00:33.450,(-12 -12 -1 0 -9 -8 -10 -10)
1969/12/31/18:00:33.474,(16 13 -3 2 0 -2 -1 5)
1969/12/31/18:00:33.474,(-5 -1 -5 -15 -1 3 6 5)
1969/12/31/18:00:33.474,(-23 -16 -5 -15 -11 -6 -8 -16)
1969/12/31/18:00:33.474,(43 17 -7 -22 -6 -2 2 17)
1969/12/31/18:00:33.486,(-21 6 33 78 15 0 -6 -20)
1969/12/31/18:00:33.486,(14 5 -3 -2 1 1 4 5)
1969/12/31/18:00:33.494,(-11 2 5 15 5 3 -2 -6)
1969/12/31/18:00:33.494,(-6 -7 -4 -19 3 -6 -10 -11)
1969/12/31/18:00:33.509,(6 -5 -18 -41 -23 -5 -2 5)
1969/12/31/18:00:33.509,(-19 -15 -2 22 6 -4 -11 -23)
1969/12/31/18:00:33.510,(-2 5 12 21 5 6 7 13)
1969/12/31/18:00:33.510,(20 13 -1 6 19 16 15 16)
1969/12/31/18:00:33.532,(-5 -9 -13 -28 -9 5 0 -1)
1969/12/31/18:00:33.532,(-7 -11 -15 -31 -16 -2 -2 -5)
1969/12/31/18:00:33.533,(11 9 16 23 5 -1 2 7)
1969/12/31/18:00:33.533,(-33 -7 23 50 15 -1 -3 -11)
1969/12/31/18:00:33.546,(28 12 2 10 4 -3 -3 5)
1969/12/31/18:00:33.546,(-11 4 -4 -27 -15 -10 -11 -13)
1969/12/31/18:00:33.554,(6 -22 -22 -35 -6 -5 -1 10)
1969/12/31/18:00:33.554,(20 22 -3 3 -2 4 1 -4)
1969/12/31/18:00:33.569,(-32 -32 -5 9 4 5 7 -10)
1969/12/31/18:00:33.569,(37 22 11 -4 5 -3 6 29)
1969/12/31/18:00:33.570,(2 18 -8 -10 -13 -21 -14 -10)
1969/12/31/18:00:33.570,(-20 -19 -3 -4 -5 2 2 -9)
1969/12/31/18:00:33.592,(-10 -10 -2 13 0 -3 -5 -2)
1969/12/31/18:00:33.592,(13 15 7 8 9 13 14 9)
1969/12/31/18:00:33.593,(-23 -1 2 -16 -2 -2 -8 -21)
1969/12/31/18:00:33.593,(16 -1 -6 -1 -4 -1 7 21)
1969/12/31/18:00:33.606,(26 15 6 8 7 7 6 5)
1969/12/31/18:00:33.606,(-13 -17 1 3 -1 -9 -7 -4)
1969/12/31/18:00:33.614,(15 2 -5 -1 -4 0 1 6)
1969/12/31/18:00:33.614,(-83 -15 7 -4 2 5 1 -27)
1969/12/31/18:00:33.629,(65 8 1 -8 0 -6 -1 33)
1969/12/31/18:00:33.629,(-70 -49 -10 3 -5 -2 -2 -19)
1969/12/31/18:00:33.630,(81 52 4 -9 -4 5 9 17)
1969/12/31/18:00:33.630,(-18 -30 -11 -2 -7 -9 -15 -17)
1969/12/31/18:00:33.652,(-11 2 1 0 0 5 5 4)
1969/12/31/18:00:33.652,(-27 -13 -5 -13 -16 -16 -19 -14)
1969/12/31/18:00:33.653,(-23 -20 -6 0 5 8 9 -8)
1969/12/31/18:00:33.653,(30 15 3 2 -3 -10 -4 9)
1969/12/31/18:00:33.666,(-11 -3 1 11 8 -4 -5 -5)
1969/12/31/18:00:33.666,(11 9 -3 -8 1 4 8 11)
1969/12/31/18:00:33.674,(-8 -8 1 7 6 4 0 4)
1969/12/31/18:00:33.674,(16 6 2 -6 -6 -6 -9 -3)
1969/12/31/18:00:33.689,(-29 -11 -4 -21 -13 -9 -7 -11)
1969/12/31/18:00:33.689,(9 11 5 27 9 -2 0 1)
1969/12/31/18:00:33.690,(-18 -3 3 13 6 -1 -9 -8)
1969/12/31/18:00:33.690,(49 11 -8 -8 2 15 23 32)
1969/12/31/18:00:33.712,(-45 -18 -6 -9 -2 6 7 3)
1969/12/31/18:00:33.712,(-3 -11 -8 -18 -9 -5 -11 -11)
1969/12/31/18:00:33.713,(17 11 -4 -3 -4 -5 -5 -6)
1969/12/31/18:00:33.713,(6 10 6 6 2 6 11 24)
1969/12/31/18:00:33.742,(-14 -4 -2 4 3 -3 -11 -26)
1969/12/31/18:00:33.742,(26 7 0 -3 0 3 3 5)
1969/12/31/18:00:33.743,(-24 -21 -8 -3 -2 -3 -3 -4)
1969/12/31/18:00:33.743,(23 9 -1 -10 0 11 8 12)
1969/12/31/18:00:33.749,(-13 3 7 4 3 12 12 3)
1969/12/31/18:00:33.749,(16 20 9 -1 0 1 -8 -12)
1969/12/31/18:00:33.750,(-25 -40 -7 -13 -11 -14 -15 -16)
1969/12/31/18:00:33.750,(12 14 0 1 4 1 5 -11)
1969/12/31/18:00:33.772,(-1 -2 -11 -5 -4 -33 -26 -14)
1969/12/31/18:00:33.772,(-49 -41 -6 5 3 -8 -3 -21)
1969/12/31/18:00:33.773,(-21 -16 -9 2 -9 -21 -16 -11)
1969/12/31/18:00:33.773,(-7 0 3 13 2 -5 -12 -21)
1969/12/31/18:00:33.795,(25 13 7 8 2 10 11 14)
1969/12/31/18:00:33.795,(26 16 -1 -2 6 10 11 22)
1969/12/31/18:00:33.795,(13 7 -4 -3 0 4 9 13)
1969/12/31/18:00:33.795,(1 4 2 5 -6 -2 1 9)
1969/12/31/18:00:33.809,(-31 -19 -4 2 -10 -13 -21 -29)
1969/12/31/18:00:33.809,(10 7 -2 -15 -10 5 4 14)
1969/12/31/18:00:33.816,(-2 -4 -3 13 5 7 -4 -5)
1969/12/31/18:00:33.816,(-4 1 -2 8 3 3 -6 -5)
1969/12/31/18:00:33.832,(16 0 -1 6 4 7 3 10)
1969/12/31/18:00:33.832,(-25 -28 -1 -3 -8 -9 -8 -10)
1969/12/31/18:00:33.833,(5 18 -1 -7 -4 5 20 32)
1969/12/31/18:00:33.833,(-43 -10 0 -10 -13 -11 -16 -35)
1969/12/31/18:00:33.855,(15 7 -3 -6 3 8 7 5)
1969/12/31/18:00:33.855,(-13 -8 -2 5 0 -2 -3 -9)
1969/12/31/18:00:33.855,(9 8 6 0 8 10 14 11)
1969/12/31/18:00:33.855,(-1 -5 0 -10 -3 3 7 9)
1969/12/31/18:00:33.869,(-8 0 -6 6 -1 0 -1 -4)
1969/12/31/18:00:33.869,(24 14 -4 -14 4 7 8 12)
1969/12/31/18:00:33.870,(17 18 24 31 12 10 9 7)
1969/12/31/18:00:33.870,(-11 -17 1 16 -10 -11 -8 -1)
1969/12/31/18:00:33.892,(-8 -2 4 2 5 -3 -7 -16)
1969/12/31/18:00:33.892,(-7 7 -10 -19 -17 -27 -32 -34)
1969/12/31/18:00:33.893,(78 53 12 -5 23 41 54 65)
1969/12/31/18:00:33.893,(-6 1 -3 -2 3 -8 -11 -7)
1969/12/31/18:00:33.915,(5 7 1 -10 -7 -2 4 10)
1969/12/31/18:00:33.915,(-9 -6 2 4 -1 1 -1 -7)
1969/12/31/18:00:33.915,(-23 -23 -6 -13 -14 -12 -12 -17)
1969/12/31/18:00:33.915,(16 21 2 2 -1 2 8 10)
1969/12/31/18:00:33.929,(4 5 1 -1 0 0 -3 0)
1969/12/31/18:00:33.929,(1 1 -4 -40 -15 3 7 10)
1969/12/31/18:00:33.930,(-24 -17 0 16 0 -9 -13 -16)
1969/12/31/18:00:33.930,(11 -1 4 11 15 15 17 18)
1969/12/31/18:00:33.952,(-15 -13 -5 4 18 -1 -4 -6)
1969/12/31/18:00:33.952,(20 11 -2 9 0 9 13 16)
1969/12/31/18:00:33.953,(-33 -19 0 8 -11 -19 -25 -27)
1969/12/31/18:00:33.953,(18 16 14 16 3 3 6 7)
1969/12/31/18:00:33.975,(19 13 7 12 4 7 11 14)
1969/12/31/18:00:33.975,(-34 -31 -13 -3 -6 -14 -19 -23)
1969/12/31/18:00:33.976,(-9 6 -10 -14 3 11 9 -7)
1969/12/31/18:00:33.976,(55 33 9 -7 12 12 14 33)
1969/12/31/18:00:33.990,(-2 -16 -2 -10 -4 6 14 14)
1969/12/31/18:00:33.990,(21 16 2 5 1 -2 2 6)
1969/12/31/18:00:33.997,(-33 -31 -7 -14 -13 -16 -20 -23)
1969/12/31/18:00:33.997,(67 47 0 -5 1 3 8 15)
1969/12/31/18:00:34.019,(-23 -12 -1 -8 -6 -4 -7 -18)
1969/12/31/18:00:34.019,(17 12 5 12 10 7 10 15)
1969/12/31/18:00:34.021,(2 5 2 9 7 -1 3 4)
1969/12/31/18:00:34.021,(-34 -28 -2 10 1 -6 -9 -18)
1969/12/31/18:00:34.035,(11 8 -6 -26 -9 -7 -1 3)
1969/12/31/18:00:34.035,(8 6 5 10 4 4 3 4)
1969/12/31/18:00:34.036,(12 7 6 15 6 -2 -9 2)
1969/12/31/18:00:34.036,(-24 -12 2 7 10 14 7 -1)
1969/12/31/18:00:34.048,(2 0 -3 6 -3 2 -2 -1)
1969/12/31/18:00:34.048,(-8 -9 -3 -3 -3 -2 0 -2)
1969/12/31/18:00:34.057,(-7 -7 -13 -37 -8 0 0 -1)
1969/12/31/18:00:34.057,(0 5 -6 3 -13 -15 -2 8)
1969/12/31/18:00:34.071,(-41 -7 5 17 7 -4 -15 -21)
1969/12/31/18:00:34.071,(45 21 7 10 13 22 26 29)
1969/12/31/18:00:34.080,(-16 -15 -5 -3 -5 -7 -7 -9)
1969/12/31/18:00:34.080,(-14 -12 -8 -16 -2 -5 -4 -6)
1969/12/31/18:00:34.095,(-11 -5 1 -2 -6 -2 -3 -7)
1969/12/31/18:00:34.095,(9 8 1 5 6 1 3 8)
1969/12/31/18:00:34.096,(-9 -7 -5 -5 -7 -9 -10 -10)
1969/12/31/18:00:34.096,(-22 -22 -4 -8 2 -6 -11 -17)
1969/12/31/18:00:34.108,(25 12 1 7 -4 12 19 26)
1969/12/31/18:00:34.108,(-3 -1 4 16 10 4 1 0)
1969/12/31/18:00:34.117,(18 11 0 8 8 12 11 11)
1969/12/31/18:00:34.117,(-29 -22 -8 -23 -11 -12 -17 -24)
1969/12/31/18:00:34.132,(16 10 2 -5 -8 -10 -6 2)
1969/12/31/18:00:34.132,(11 9 -16 -15 0 9 16 20)
1969/12/31/18:00:34.134,(6 7 1 -19 0 1 1 -1)
1969/12/31/18:00:34.134,(-42 -28 9 37 -2 -7 -11 -14)
1969/12/31/18:00:34.155,(53 41 20 40 20 17 21 19)
1969/12/31/18:00:34.155,(-41 -32 -1 -3 -7 -20 -30 -39)
1969/12/31/18:00:34.156,(-6 -6 -13 -29 -13 -8 -4 -2)
1969/12/31/18:00:34.156,(0 -3 -6 -11 -5 -2 -1 -1)
1969/12/31/18:00:34.168,(-55 -33 -2 7 3 3 -1 -8)
1969/12/31/18:00:34.168,(71 43 10 8 5 8 19 47)
1969/12/31/18:00:34.177,(-13 -6 0 -1 4 3 -2 -12)
1969/12/31/18:00:34.177,(-26 -20 -20 -48 -21 -14 -10 -16)
1969/12/31/18:00:34.192,(-12 -4 -1 -9 -14 -8 -5 -10)
1969/12/31/18:00:34.192,(9 13 12 26 12 1 1 3)
1969/12/31/18:00:34.194,(1 2 4 21 20 12 2 4)
1969/12/31/18:00:34.194,(18 6 1 8 6 8 9 9)
1969/12/31/18:00:34.215,(7 2 -2 -5 -5 -5 -7 -2)
1969/12/31/18:00:34.215,(-40 -31 -8 -29 -12 -8 -13 -21)
1969/12/31/18:00:34.216,(-4 -4 5 19 -2 0 12 12)
1969/12/31/18:00:34.216,(51 37 9 10 9 11 10 17)
1969/12/31/18:00:34.228,(6 2 -9 -17 -8 -7 -7 0)
1969/12/31/18:00:34.228,(-20 -12 -5 1 -3 -4 -7 -12)
1969/12/31/18:00:34.237,(-18 -11 -9 -27 -10 0 0 -2)
1969/12/31/18:00:34.237,(3 0 -2 10 4 1 3 7)
1969/12/31/18:00:34.252,(9 6 7 6 9 5 1 2)
1969/12/31/18:00:34.253,(-1 -2 6 22 9 8 2 0)
1969/12/31/18:00:34.254,(19 9 -9 -35 -13 -2 -1 6)
1969/12/31/18:00:34.254,(-12 -6 -8 -6 -5 -1 -3 -5)
1969/12/31/18:00:34.275,(17 11 2 -3 -9 -4 0 6)
1969/12/31/18:00:34.275,(-20 -6 14 32 2 -4 -8 -15)
1969/12/31/18:00:34.276,(10 7 3 8 1 -4 -3 -1)
1969/12/31/18:00:34.276,(0 1 -6 -17 -10 -7 -1 2)
1969/12/31/18:00:34.289,(-49 -31 0 2 11 2 -4 -16)
1969/12/31/18:00:34.289,(17 16 0 -10 -3 -1 1 -3)
1969/12/31/18:00:34.297,(64 30 12 6 3 4 9 19)
1969/12/31/18:00:34.297,(39 23 1 -2 6 8 12 31)
1969/12/31/18:00:34.312,(-22 -9 -7 -10 -4 -9 -18 -30)
1969/12/31/18:00:34.312,(-20 -13 -1 -7 -6 -4 -1 -1)
1969/12/31/18:00:34.314,(-9 -3 1 15 -5 -7 -8 -7)
1969/12/31/18:00:34.314,(-11 -7 0 2 -1 -3 -8 -14)
1969/12/31/18:00:34.335,(5 -3 -3 -2 2 6 11 19)
1969/12/31/18:00:34.335,(12 2 -6 -10 -3 0 -2 0)
1969/12/31/18:00:34.336,(-25 -14 -5 12 0 -3 -4 -8)
1969/12/31/18:00:34.336,(-17 -5 3 -4 -7 -7 -10 -12)
1969/12/31/18:00:34.348,(18 12 -1 -5 1 1 3 9)
1969/12/31/18:00:34.348,(-35 -16 -2 -6 -1 -6 -15 -29)
1969/12/31/18:00:34.357,(4 -4 1 -3 -2 4 1 4)
1969/12/31/18:00:34.357,(-17 -13 -7 0 3 -2 -5 -17)
1969/12/31/18:00:34.371,(-61 -40 -2 5 -1 -6 -5 -11)
1969/12/31/18:00:34.371,(17 18 2 6 5 1 0 4)
1969/12/31/18:00:34.378,(2 4 0 -5 -6 -6 -4 -3)
1969/12/31/18:00:34.378,(-2 5 2 7 10 12 12 10)
1969/12/31/18:00:34.395,(0 -2 -5 -1 3 3 5 2)
1969/12/31/18:00:34.395,(-11 -11 -7 -9 0 6 12 11)
1969/12/31/18:00:34.396,(-20 -7 -3 -3 -10 -8 -10 -15)
1969/12/31/18:00:34.396,(-4 -5 -2 -11 -6 -5 0 0)
1969/12/31/18:00:34.408,(31 21 -3 0 4 3 5 14)
1969/12/31/18:00:34.408,(-3 -5 4 11 17 0 -6 -3)
1969/12/31/18:00:34.417,(9 8 4 2 -16 -1 0 -1)
1969/12/31/18:00:34.417,(4 3 7 12 2 -2 1 1)
1969/12/31/18:00:34.431,(22 10 2 4 3 4 5 7)
1969/12/31/18:00:34.431,(-4 0 -3 -9 -4 -7 -13 -12)
1969/12/31/18:00:34.438,(-7 -7 -4 -29 -2 -1 -2 -1)
1969/12/31/18:00:34.438,(-6 -12 -8 0 -3 1 2 1)
1969/12/31/18:00:34.455,(15 7 -3 -2 -3 0 4 6)
1969/12/31/18:00:34.455,(9 0 -1 4 -4 -1 4 6)
1969/12/31/18:00:34.456,(-4 -1 -2 5 -9 -6 1 -2)
1969/12/31/18:00:34.456,(-5 2 12 -18 5 6 1 -3)
1969/12/31/18:00:34.468,(19 16 11 17 11 3 1 5)
1969/12/31/18:00:34.468,(-1 -3 7 15 -4 1 -1 0)
1969/12/31/18:00:34.477,(-13 -4 -1 11 27 3 -4 -5)
1969/12/31/18:00:34.477,(-2 -8 -34 -35 -36 -11 -4 -3)
1969/12/31/18:00:34.491,(-11 -12 -14 -46 -48 -22 -8 -6)
1969/12/31/18:00:34.491,(-2 0 0 40 42 10 4 6)
1969/12/31/18:00:34.498,(-3 3 29 43 34 20 7 1)
1969/12/31/18:00:34.498,(-5 4 -6 15 35 9 -1 -2)
1969/12/31/18:00:34.515,(10 4 1 -18 -10 1 3 3)
1969/12/31/18:00:34.515,(-3 1 10 -9 -38 -13 -5 -3)
1969/12/31/18:00:34.516,(14 5 -10 -17 -6 -2 7 11)
1969/12/31/18:00:34.516,(-7 -7 2 7 2 -9 -5 -8)
1969/12/31/18:00:34.528,(-5 -12 -22 -6 -19 -16 -12 -8)
1969/12/31/18:00:34.528,(-6 -10 -14 -25 -10 -10 -5 -4)
1969/12/31/18:00:34.537,(2 13 20 -1 6 5 3 5)
1969/12/31/18:00:34.537,(8 15 27 -1 -9 10 8 10)
1969/12/31/18:00:34.552,(8 6 -10 -15 36 19 11 6)
1969/12/31/18:00:34.552,(5 4 4 69 -13 3 4 4)
1969/12/31/18:00:34.558,(-5 -7 -5 41 10 -1 -3 -5)
1969/12/31/18:00:34.558,(-4 -12 -36 -80 -33 -12 -5 -3)
1969/12/31/18:00:34.582,(-9 -3 23 61 18 -5 -9 -10)
1969/12/31/18:00:34.582,(2 -1 -9 -35 10 0 -2 2)
1969/12/31/18:00:34.583,(1 8 21 25 -3 1 -3 -1)
1969/12/31/18:00:34.584,(1 9 33 17 2 4 3 0)
1969/12/31/18:00:34.588,(4 -1 -34 -28 2 3 3 4)
1969/12/31/18:00:34.588,(1 -3 -4 -21 -17 -6 3 3)
1969/12/31/18:00:34.597,(1 -3 -17 -10 -16 -11 -5 -4)
1969/12/31/18:00:34.597,(-5 -13 1 1 9 1 -3 -3)
1969/12/31/18:00:34.611,(0 3 -9 1 -5 -2 -4 -3)
1969/12/31/18:00:34.611,(3 12 39 45 29 7 4 0)
1969/12/31/18:00:34.618,(1 -3 -10 -6 17 4 3 1)
1969/12/31/18:00:34.618,(-2 -7 -9 41 -9 3 2 -2)
1969/12/31/18:00:34.635,(0 -1 14 -6 -4 -7 -3 -1)
1969/12/31/18:00:34.635,(-6 -5 -24 -92 -23 -10 -7 -7)
1969/12/31/18:00:34.636,(-2 -6 -7 14 -4 -3 -1 2)
1969/12/31/18:00:34.636,(-1 0 -12 -41 2 0 -2 -1)
1969/12/31/18:00:34.657,(3 9 16 63 10 7 5 4)
1969/12/31/18:00:34.657,(5 10 27 12 12 10 8 4)
1969/12/31/18:00:34.659,(10 4 -15 -17 -1 -2 4 7)
1969/12/31/18:00:34.659,(-8 -7 9 -23 -13 -6 -6 -7)
1969/12/31/18:00:34.671,(-4 2 -1 26 -6 -6 -5 -5)
1969/12/31/18:00:34.671,(-1 -8 -21 -3 6 -3 -3 1)
1969/12/31/18:00:34.678,(-3 -2 -2 -11 -14 2 1 -2)
1969/12/31/18:00:34.678,(0 4 -5 26 -4 0 -2 1)
1969/12/31/18:00:34.694,(-1 6 14 -32 6 12 3 0)
1969/12/31/18:00:34.695,(3 16 26 25 18 17 8 4)
1969/12/31/18:00:34.696,(3 -2 -8 -7 2 -1 1 2)
1969/12/31/18:00:34.696,(-7 -8 -9 0 5 -8 -3 -6)
1969/12/31/18:00:34.717,(-2 -10 -10 -27 -17 -9 -1 1)
1969/12/31/18:00:34.717,(-5 -10 -29 -73 -45 -18 -7 -2)
1969/12/31/18:00:34.719,(3 -2 1 77 29 1 0 1)
1969/12/31/18:00:34.719,(3 11 34 60 21 9 -2 0)
1969/12/31/18:00:34.740,(7 11 18 -27 -16 10 5 5)
1969/12/31/18:00:34.740,(9 -5 -40 -25 -17 -4 -1 4)
1969/12/31/18:00:34.741,(-7 -7 4 -32 -6 -4 -3 -2)
1969/12/31/18:00:34.741,(4 11 9 45 21 13 6 1)
1969/12/31/18:00:34.755,(-6 -12 -8 -28 7 -2 -3 -3)
1969/12/31/18:00:34.755,(-8 3 13 12 -2 6 0 -4)
1969/12/31/18:00:34.756,(5 9 6 -18 -8 8 6 4)
1969/12/31/18:00:34.756,(2 2 -9 7 9 8 5 3)
1969/12/31/18:00:34.777,(1 -1 9 -1 7 1 0 -1)
1969/12/31/18:00:34.777,(-5 -4 -9 -29 -6 -1 0 -1)
1969/12/31/18:00:34.779,(-6 -1 -1 -8 -3 -5 -3 -3)
1969/12/31/18:00:34.779,(-2 -1 0 -28 -9 -11 -4 -4)
1969/12/31/18:00:34.791,(7 2 -7 32 4 -1 4 3)
1969/12/31/18:00:34.791,(-6 -7 4 10 12 -7 -2 -6)
1969/12/31/18:00:34.800,(-5 -1 8 21 -4 -9 -6 -4)
1969/12/31/18:00:34.800,(2 2 10 11 23 6 3 2)
1969/12/31/18:00:34.815,(-5 -5 1 0 2 -14 -11 -5)
1969/12/31/18:00:34.815,(-8 -7 -12 -2 -8 -5 -6 -6)
1969/12/31/18:00:34.816,(1 2 -2 -22 -6 2 -2 0)
1969/12/31/18:00:34.816,(8 -1 -6 -20 -12 -4 1 4)
1969/12/31/18:00:34.837,(-5 -3 -10 8 2 1 -2 -4)
1969/12/31/18:00:34.837,(4 0 6 8 5 4 3 2)
1969/12/31/18:00:34.844,(-11 -8 0 -20 -7 -4 -5 -7)
1969/12/31/18:00:34.844,(-2 -5 -14 -1 -14 -10 0 1)
1969/12/31/18:00:34.867,(-15 -2 30 18 27 8 1 -10)
1969/12/31/18:00:34.867,(14 21 16 30 -4 -11 0 7)
1969/12/31/18:00:34.869,(4 -19 -22 -16 -1 2 4 6)
1969/12/31/18:00:34.869,(-5 -6 -8 7 -4 -5 -6 -6)
1969/12/31/18:00:34.875,(1 0 -9 -14 -9 1 1 0)
1969/12/31/18:00:34.875,(-6 0 0 -9 -2 1 -1 -3)
1969/12/31/18:00:34.876,(2 9 7 2 -7 0 0 1)
1969/12/31/18:00:34.876,(0 -1 -8 -25 -9 1 0 1)
1969/12/31/18:00:34.897,(-3 0 0 1 -23 -1 -3 -2)
1969/12/31/18:00:34.897,(5 3 11 54 38 13 5 2)
1969/12/31/18:00:34.899,(1 -5 -7 -3 -3 3 5 4)
1969/12/31/18:00:34.899,(-5 -4 -4 -12 -7 -7 -8 -6)
1969/12/31/18:00:34.911,(2 -2 1 -3 -2 2 0 3)
1969/12/31/18:00:34.911,(-3 -4 -2 -3 1 2 -1 -3)
1969/12/31/18:00:34.920,(2 -1 -13 -40 -8 0 0 1)
1969/12/31/18:00:34.920,(-4 2 6 5 -11 -2 -1 -4)
1969/12/31/18:00:34.935,(5 7 8 51 17 4 4 2)
1969/12/31/18:00:34.935,(4 -2 -6 9 3 5 7 5)
1969/12/31/18:00:34.936,(0 6 11 0 0 1 0 -2)
1969/12/31/18:00:34.936,(-2 -3 -5 -27 -12 -2 -2 0)
1969/12/31/18:00:34.957,(0 1 -13 -34 -13 -4 -1 0)
1969/12/31/18:00:34.957,(-4 -4 -5 -20 -5 1 -2 -5)
1969/12/31/18:00:34.959,(-3 1 -7 -17 -14 -4 -5 -6)
1969/12/31/18:00:34.959,(0 3 18 51 15 2 -2 -1)
1969/12/31/18:00:34.972,(1 1 7 28 22 1 3 1)
1969/12/31/18:00:34.972,(-3 -5 -7 -6 -11 -6 -4 0)
1969/12/31/18:00:34.981,(-3 -3 -3 -9 8 -6 -4 -3)
1969/12/31/18:00:34.981,(0 -1 -3 -7 -10 -3 0 1)
1969/12/31/18:00:34.995,(0 -5 -11 -26 -2 0 1 0)
1969/12/31/18:00:34.995,(-5 -6 -9 -35 -14 -5 -2 -3)
1969/12/31/18:00:34.996,(1 5 20 70 15 2 1 0)
1969/12/31/18:00:34.996,(-4 -8 -9 -5 1 -2 -3 -4)
1969/12/31/18:00:35.017,(1 -1 -6 -10 4 -3 -2 -1)
1969/12/31/18:00:35.017,(2 2 6 25 3 1 2 3)
1969/12/31/18:00:35.019,(4 5 9 15 -1 7 3 5)
1969/12/31/18:00:35.019,(-2 1 6 4 6 0 -1 -1)
1969/12/31/18:00:35.031,(-1 -4 -18 -38 -20 0 -1 -1)
1969/12/31/18:00:35.031,(1 0 -5 -19 -5 -3 -1 1)
1969/12/31/18:00:35.040,(-3 -1 2 7 6 1 -3 -4)
1969/12/31/18:00:35.040,(-1 1 3 17 8 2 0 -1)
1969/12/31/18:00:35.055,(4 -1 -8 -8 -22 -6 3 3)
1969/12/31/18:00:35.055,(-1 -1 2 -22 6 -1 1 -1)
1969/12/31/18:00:35.056,(0 3 10 28 13 5 3 -1)
1969/12/31/18:00:35.056,(-1 -3 -2 -4 -1 -3 -2 0)
1969/12/31/18:00:35.077,(-2 -3 -9 -4 1 0 0 -1)
1969/12/31/18:00:35.077,(3 2 1 -6 -22 -1 2 2)
1969/12/31/18:00:35.079,(3 6 15 19 13 6 -1 2)
1969/12/31/18:00:35.079,(-1 -3 -4 -4 8 1 -1 0)
1969/12/31/18:00:35.091,(-3 -2 10 9 -1 -1 -5 -2)
1969/12/31/18:00:35.091,(-3 0 -6 -15 -7 -2 -1 -2)
1969/12/31/18:00:35.114,(-2 -2 -13 -32 -8 -6 -2 -1)
1969/12/31/18:00:35.114,(1 4 3 18 1 2 3 2)
1969/12/31/18:00:35.130,(2 0 5 5 5 0 4 2)
1969/12/31/18:00:35.130,(0 -3 -3 2 -1 -1 0 1)
1969/12/31/18:00:35.131,(-2 -3 -7 -14 -9 -4 1 -3)
1969/12/31/18:00:35.131,(1 0 0 1 2 -2 -1 -1)
1969/12/31/18:00:35.137,(0 0 0 -1 -4 -1 0 1)
1969/12/31/18:00:35.137,(-3 -1 2 9 6 -1 -1 0)
1969/12/31/18:00:35.139,(-4 -2 -5 1 -1 -4 -3 -4)
1969/12/31/18:00:35.139,(1 -1 -3 -9 -3 -2 1 2)
1969/12/31/18:00:35.151,(0 1 3 2 2 1 -5 -3)
1969/12/31/18:00:35.151,(-1 -1 1 17 8 4 2 2)
1969/12/31/18:00:35.160,(-1 -2 -6 -13 -7 -4 -3 0)
1969/12/31/18:00:35.160,(0 -2 0 -3 0 -1 -2 -1)
1969/12/31/18:00:35.175,(2 2 5 7 2 2 2 2)
1969/12/31/18:00:35.175,(0 -3 -2 8 -1 -8 -4 -1)
1969/12/31/18:00:35.176,(-4 -4 -3 -11 -7 -3 -3 -3)
1969/12/31/18:00:35.176,(1 0 -2 -3 -1 1 0 -3)
1969/12/31/18:00:35.197,(0 0 1 7 3 1 0 0)
1969/12/31/18:00:35.197,(-1 1 -1 0 1 3 -1 -2)
1969/12/31/18:00:35.199,(0 1 -2 -8 -4 1 3 2)
1969/12/31/18:00:35.199,(-1 -1 -1 4 0 -2 0 -1)
1969/12/31/18:00:35.211,(-1 -1 2 1 2 0 1 0)
1969/12/31/18:00:35.211,(1 -1 0 2 1 1 0 -1)
1969/12/31/18:00:35.220,(-1 -1 -2 -5 -5 -4 -3 -2)
1969/12/31/18:00:35.220,(-3 -4 -1 -4 -2 0 -1 -1)
1969/12/31/18:00:35.235,(2 1 -1 -4 -2 -2 -1 1)
1969/12/31/18:00:35.235,(-1 -3 -4 2 4 1 -2 -2)
1969/12/31/18:00:35.236,(-1 0 1 -1 2 -2 -3 -2)
1969/12/31/18:00:35.236,(-2 1 -2 -3 -6 0 0 -1)
1969/12/31/18:00:35.257,(-2 -3 -1 2 0 0 0 -1)
1969/12/31/18:00:35.257,(5 1 3 5 1 0 5 1)
1969/12/31/18:00:35.259,(0 -2 -3 -3 -4 -1 1 1)
1969/12/31/18:00:35.259,(1 0 -1 -2 -1 -2 -1 -2)
1969/12/31/18:00:35.271,(1 0 0 3 1 1 0 -1)
1969/12/31/18:00:35.271,(-4 -3 -3 2 1 1 -2 -3)
1969/12/31/18:00:35.280,(3 1 0 2 1 2 3 4)
1969/12/31/18:00:35.280,(-2 -1 -2 -4 -4 -4 -1 0)
1969/12/31/18:00:35.294,(0 0 -2 0 -2 -3 0 -1)
1969/12/31/18:00:35.294,(0 0 2 -1 -1 -2 -1 -3)
1969/12/31/18:00:35.301,(5 0 -2 0 -1 4 3 2)
1969/12/31/18:00:35.301,(0 1 2 1 2 2 -1 -2)
1969/12/31/18:00:35.317,(-1 -2 -2 0 2 3 0 0)
1969/12/31/18:00:35.317,(1 0 0 2 4 3 0 1)
1969/12/31/18:00:35.319,(-3 -3 -1 -2 0 -7 0 0)
1969/12/31/18:00:35.319,(1 0 0 -2 0 0 -1 1)
1969/12/31/18:00:35.331,(-2 -1 -3 -1 0 -1 0 -3)
1969/12/31/18:00:35.331,(0 0 -1 1 -2 3 3 1)
1969/12/31/18:00:35.340,(2 6 10 3 -1 1 1 2)
1969/12/31/18:00:35.340,(-2 -1 -5 0 -1 0 -1 -2)
1969/12/31/18:00:35.354,(-5 -6 -2 -6 -4 -3 -4 -1)
1969/12/31/18:00:35.354,(-3 0 2 -2 -1 -2 -2 -1)
1969/12/31/18:00:35.361,(2 0 -5 -3 -3 0 -2 -2)
1969/12/31/18:00:35.361,(2 2 1 3 0 1 2 2)
1969/12/31/18:00:35.377,(2 3 0 5 -2 -2 -1 1)
1969/12/31/18:00:35.377,(-2 -2 0 0 1 -2 -3 -1)
1969/12/31/18:00:35.379,(-3 -2 -2 -4 -2 -1 0 -1)
1969/12/31/18:00:35.379,(0 -1 0 0 2 1 -1 -1)
1969/12/31/18:00:35.391,(0 -1 -2 2 -2 1 -1 -1)
1969/12/31/18:00:35.391,(-1 -1 -2 -1 -3 -1 -2 -2)
1969/12/31/18:00:35.400,(0 -2 -3 -2 -1 -1 -2 -3)
1969/12/31/18:00:35.400,(-2 -1 0 -2 0 -1 0 0)
1969/12/31/18:00:35.414,(-2 0 1 0 2 -2 -1 -1)
1969/12/31/18:00:35.414,(-1 -1 -1 -1 0 1 0 -1)
1969/12/31/18:00:35.421,(0 0 -2 0 -1 -3 -2 1)
1969/12/31/18:00:35.421,(1 1 -1 -2 -4 0 2 1)
1969/12/31/18:00:35.437,(1 1 0 -2 -1 -2 1 2)
1969/12/31/18:00:35.437,(-2 0 -1 0 0 -4 -2 -2)
1969/12/31/18:00:35.439,(-2 -5 -2 -2 1 2 -1 -2)
1969/12/31/18:00:35.439,(-4 -2 2 0 2 -1 -3 -3)
1969/12/31/18:00:35.451,(-1 -2 0 -3 -1 0 3 0)
1969/12/31/18:00:35.451,(3 1 -1 1 1 2 1 -1)
