time,.data
1969/12/31/18:00:14.571,(-1 -1 -3 -2 0 -1 -1 -2)
1969/12/31/18:00:14.571,(-2 -2 -4 -3 -3 -2 0 -1)
1969/12/31/18:00:14.572,(-2 -3 -4 -7 -2 -2 -1 -3)
1969/12/31/18:00:14.572,(-1 1 1 3 -1 -1 1 0)
1969/12/31/18:00:14.602,(0 0 -1 -1 -1 -1 0 -2)
1969/12/31/18:00:14.602,(0 1 1 -1 -2 -2 -1 0)
1969/12/31/18:00:14.602,(-1 -1 0 2 0 0 1 -1)
1969/12/31/18:00:14.602,(1 -2 -2 -3 -1 0 -2 -1)
1969/12/31/18:00:14.617,(-3 -2 -4 -5 -2 -1 -3 -2)
1969/12/31/18:00:14.617,(-3 -1 -2 -2 0 0 -2 -2)
1969/12/31/18:00:14.618,(0 -2 -2 -4 -2 -1 -1 -1)
1969/12/31/18:00:14.618,(-2 -3 -1 1 -1 -3 -1 -2)
1969/12/31/18:00:14.631,(2 4 1 1 0 0 1 3)
1969/12/31/18:00:14.632,(-1 -2 1 -1 -2 0 -4 -2)
1969/12/31/18:00:14.632,(-3 0 -2 2 -1 -1 0 -1)
1969/12/31/18:00:14.632,(-1 -4 -3 -6 -3 -2 -1 -3)
1969/12/31/18:00:14.654,(0 0 1 4 -1 0 0 -2)
1969/12/31/18:00:14.654,(-2 -3 -3 -2 -1 -2 0 1)
1969/12/31/18:00:14.655,(-1 1 -1 0 -1 0 -2 -2)
1969/12/31/18:00:14.655,(-2 -5 -14 -12 -4 -1 -2 -2)
1969/12/31/18:00:14.677,(1 2 11 4 -2 0 -2 -1)
1969/12/31/18:00:14.677,(2 0 6 11 6 3 -1 -2)
1969/12/31/18:00:14.678,(-3 -4 -5 -8 -2 -1 -1 0)
1969/12/31/18:00:14.678,(-1 1 -5 3 0 -1 -1 1)
1969/12/31/18:00:14.691,(-1 0 10 -1 -3 -1 -2 0)
1969/12/31/18:00:14.691,(1 2 0 1 -3 -7 -2 -1)
1969/12/31/18:00:14.692,(-1 -5 -8 -5 -1 9 -1 -4)
1969/12/31/18:00:14.692,(-1 -2 -3 -3 2 -1 -1 -2)
1969/12/31/18:00:14.714,(-2 -2 -11 -5 0 5 1 2)
1969/12/31/18:00:14.714,(-2 -6 -5 -6 -4 -7 5 -2)
1969/12/31/18:00:14.715,(4 7 10 5 1 -4 -7 1)
1969/12/31/18:00:14.715,(-2 -2 -1 -3 -1 -7 -2 -1)
1969/12/31/18:00:14.737,(-5 -7 -9 -1 0 -6 -11 -11)
1969/12/31/18:00:14.737,(2 7 8 -1 1 -1 3 1)
1969/12/31/18:00:14.738,(0 -3 -7 -3 -1 0 3 3)
1969/12/31/18:00:14.738,(-8 -2 5 4 -2 2 -1 -6)
1969/12/31/18:00:14.767,(4 2 4 5 2 0 8 19)
1969/12/31/18:00:14.767,(1 -4 -16 -9 -5 -2 -9 -14)
1969/12/31/18:00:14.768,(-2 0 7 0 -4 -6 -6 -8)
1969/12/31/18:00:14.768,(0 1 3 1 1 1 4 16)
1969/12/31/18:00:14.774,(-6 -3 -6 -7 -3 -5 -6 -31)
1969/12/31/18:00:14.774,(4 -1 1 1 3 5 6 17)
1969/12/31/18:00:14.775,(-8 -3 -5 -4 -3 -2 -7 -16)
1969/12/31/18:00:14.775,(3 -23 -28 -17 -5 0 1 5)
1969/12/31/18:00:14.797,(6 25 24 11 2 -1 1 10)
1969/12/31/18:00:14.797,(0 8 20 16 5 8 2 3)
1969/12/31/18:00:14.798,(2 -3 -4 2 -1 -7 -10 -19)
1969/12/31/18:00:14.798,(-5 -20 -16 -5 -1 3 -1 -6)
1969/12/31/18:00:14.810,(-6 -13 -23 -16 -8 -3 -2 4)
1969/12/31/18:00:14.810,(-6 -8 -7 -3 -3 0 -5 -5)
1969/12/31/18:00:14.818,(7 22 24 10 7 4 7 9)
1969/12/31/18:00:14.818,(4 2 6 5 2 -1 -3 0)
1969/12/31/18:00:14.834,(-3 -15 -20 -7 -3 -1 -3 -1)
1969/12/31/18:00:14.834,(-4 4 7 0 -3 -5 -5 -6)
1969/12/31/18:00:14.835,(-4 -7 5 3 -2 -1 5 6)
1969/12/31/18:00:14.835,(0 4 3 3 2 0 -1 -3)
1969/12/31/18:00:14.864,(-5 -9 -8 -2 0 4 3 -4)
1969/12/31/18:00:14.864,(3 -2 -6 -5 -3 -1 3 7)
1969/12/31/18:00:14.865,(0 -3 -17 -10 -3 -6 -1 -1)
1969/12/31/18:00:14.865,(5 7 9 4 1 -2 1 1)
1969/12/31/18:00:14.870,(-5 -7 -1 2 1 -5 1 -1)
1969/12/31/18:00:14.870,(1 0 -17 -9 0 -2 3 5)
1969/12/31/18:00:14.879,(-2 0 -3 -1 0 -4 4 7)
1969/12/31/18:00:14.879,(-1 7 16 4 1 -3 1 -1)
1969/12/31/18:00:14.893,(2 8 -6 -2 1 -4 2 4)
1969/12/31/18:00:14.893,(-2 -5 -10 -3 -5 -5 0 -3)
1969/12/31/18:00:14.894,(-2 5 6 4 2 -1 4 6)
1969/12/31/18:00:14.894,(-1 4 3 -1 0 -2 -4 -6)
1969/12/31/18:00:14.917,(-3 -17 -7 -4 -1 1 -2 1)
1969/12/31/18:00:14.917,(-1 -1 -2 -2 -2 0 -5 -5)
1969/12/31/18:00:14.918,(2 2 -8 -2 -3 2 -2 5)
1969/12/31/18:00:14.918,(-6 2 5 2 -2 3 -5 -7)
1969/12/31/18:00:14.931,(-5 -11 -1 -1 -2 2 -2 -1)
1969/12/31/18:00:14.931,(2 20 17 6 1 1 -13 -14)
1969/12/31/18:00:14.939,(-1 -13 6 2 -2 3 2 12)
1969/12/31/18:00:14.939,(0 13 8 0 -4 0 3 6)
1969/12/31/18:00:14.954,(6 2 -7 -3 2 -1 -3 -8)
1969/12/31/18:00:14.954,(-9 -8 16 3 0 1 3 5)
1969/12/31/18:00:14.955,(1 -3 -10 -4 -1 -1 -5 -13)
1969/12/31/18:00:14.955,(8 4 -1 -1 -3 -3 4 12)
1969/12/31/18:00:14.977,(-26 -6 3 0 -3 -3 -6 -18)
1969/12/31/18:00:14.977,(-5 -9 -7 -5 -2 0 0 -3)
1969/12/31/18:00:14.978,(-21 -7 -2 -2 -2 -2 -4 -12)
1969/12/31/18:00:14.978,(4 2 -1 0 -1 1 0 0)
1969/12/31/18:00:14.991,(27 14 8 4 1 3 6 18)
1969/12/31/18:00:14.991,(31 9 -3 -1 1 -1 3 15)
1969/12/31/18:00:14.999,(-70 -34 -12 -7 -4 -8 -14 -39)
1969/12/31/18:00:14.999,(4 1 -2 -2 2 0 1 -2)
1969/12/31/18:00:15.014,(11 10 4 0 -3 -8 -4 -3)
1969/12/31/18:00:15.014,(4 6 -1 0 0 2 8 12)
1969/12/31/18:00:15.014,(23 1 -8 -3 0 -15 0 6)
1969/12/31/18:00:15.014,(-19 -3 -4 -4 -1 3 1 3)
1969/12/31/18:00:15.036,(11 9 5 2 2 -2 2 7)
1969/12/31/18:00:15.036,(-70 -19 -4 -2 -2 -1 -2 -40)
1969/12/31/18:00:15.052,(43 5 -5 -5 -3 -10 -6 16)
1969/12/31/18:00:15.052,(17 3 -4 -2 -1 -7 2 5)
1969/12/31/18:00:15.053,(5 8 0 0 5 29 2 -13)
1969/12/31/18:00:15.053,(3 -4 -6 -7 -10 -19 -13 1)
1969/12/31/18:00:15.059,(5 8 12 5 3 -2 -6 -4)
1969/12/31/18:00:15.059,(-6 -10 0 -3 -1 34 -8 15)
1969/12/31/18:00:15.074,(30 9 9 2 -11 -38 8 -2)
1969/12/31/18:00:15.074,(9 -3 -3 0 1 18 12 13)
1969/12/31/18:00:15.074,(-27 -16 4 5 4 27 12 -6)
1969/12/31/18:00:15.075,(-1 5 0 1 -2 2 9 1)
1969/12/31/18:00:15.097,(-43 -17 -4 -3 -2 0 -14 -18)
1969/12/31/18:00:15.097,(4 12 6 3 5 12 19 2)
1969/12/31/18:00:15.098,(15 11 3 1 0 -35 -28 -16)
1969/12/31/18:00:15.098,(-1 -12 -10 -4 -6 24 -10 -51)
1969/12/31/18:00:15.119,(32 14 -4 -7 -3 -21 17 67)
1969/12/31/18:00:15.119,(-47 -14 -3 -4 -4 -15 -19 -51)
1969/12/31/18:00:15.120,(19 -3 -3 2 9 56 32 15)
1969/12/31/18:00:15.120,(-1 2 6 1 -4 -92 -35 -11)
1969/12/31/18:00:15.134,(-8 -8 -4 -3 1 59 2 10)
1969/12/31/18:00:15.134,(60 39 8 10 6 5 12 35)
1969/12/31/18:00:15.134,(-63 -28 -22 -14 -1 32 -43 -56)
1969/12/31/18:00:15.134,(-8 0 3 0 -14 -59 28 14)
1969/12/31/18:00:15.157,(21 9 2 0 2 -38 -41 1)
1969/12/31/18:00:15.157,(48 11 2 0 5 59 47 49)
1969/12/31/18:00:15.158,(-7 -15 -12 -9 -14 -37 -26 -15)
1969/12/31/18:00:15.158,(-12 -2 -2 2 9 34 -5 -6)
1969/12/31/18:00:15.179,(11 5 -2 -1 0 19 33 21)
1969/12/31/18:00:15.179,(-32 -9 0 -3 -6 -15 -34 -64)
1969/12/31/18:00:15.180,(23 0 3 4 7 83 68 58)
1969/12/31/18:00:15.180,(-20 -12 -8 -7 -11 -66 -52 -43)
1969/12/31/18:00:15.194,(-19 2 9 3 -1 -1 7 -24)
1969/12/31/18:00:15.194,(-59 -40 -19 -12 -10 -28 -12 -1)
1969/12/31/18:00:15.195,(8 2 -5 -5 -3 -2 1 -9)
1969/12/31/18:00:15.195,(22 14 9 8 15 32 49 55)
1969/12/31/18:00:15.217,(15 -2 -3 -3 -3 29 -9 17)
1969/12/31/18:00:15.217,(-14 6 3 1 -10 -52 -31 -25)
1969/12/31/18:00:15.218,(-34 -26 -11 -10 -17 -55 3 -17)
1969/12/31/18:00:15.218,(40 20 9 9 12 57 -28 -26)
1969/12/31/18:00:15.240,(-16 -7 -8 -6 -10 -27 -10 -37)
1969/12/31/18:00:15.240,(-22 -23 -11 -5 1 1 -20 -1)
1969/12/31/18:00:15.240,(47 25 10 6 1 -21 11 37)
1969/12/31/18:00:15.240,(-12 -1 -4 -3 5 25 7 -2)
1969/12/31/18:00:15.254,(-1 0 8 4 1 -25 3 -3)
1969/12/31/18:00:15.254,(10 -8 -6 -1 13 78 0 -7)
1969/12/31/18:00:15.255,(-6 10 6 3 -7 -33 10 24)
1969/12/31/18:00:15.255,(-34 -17 -11 -5 2 42 -13 -29)
1969/12/31/18:00:15.277,(-2 -1 1 -3 -5 17 -8 -39)
1969/12/31/18:00:15.277,(45 26 4 2 -3 -33 13 57)
1969/12/31/18:00:15.278,(2 14 6 5 10 8 -7 17)
1969/12/31/18:00:15.278,(-8 -13 -10 -10 -13 36 15 3)
1969/12/31/18:00:15.299,(-6 -7 -6 -6 -11 -81 -17 30)
1969/12/31/18:00:15.299,(0 -6 1 1 -3 -36 -16 -40)
1969/12/31/18:00:15.300,(6 21 9 6 4 11 4 -58)
1969/12/31/18:00:15.300,(2 -16 3 6 -1 -23 4 31)
1969/12/31/18:00:15.314,(-51 -14 -12 -12 -6 17 -45 -36)
1969/12/31/18:00:15.314,(6 -5 -4 -4 12 25 44 20)
1969/12/31/18:00:15.315,(8 20 12 15 9 -13 -4 22)
1969/12/31/18:00:15.315,(-36 -12 -12 -11 -15 -33 -9 -68)
1969/12/31/18:00:15.337,(-18 -19 -6 1 5 17 -8 -23)
1969/12/31/18:00:15.337,(21 11 7 1 -3 -15 8 5)
1969/12/31/18:00:15.338,(-31 -23 -17 -18 -18 -38 -40 -50)
1969/12/31/18:00:15.338,(39 12 4 4 8 -1 53 91)
1969/12/31/18:00:15.359,(12 -2 2 3 10 38 37 11)
1969/12/31/18:00:15.359,(16 2 -1 -1 -12 -54 -25 -5)
1969/12/31/18:00:15.360,(-4 7 7 6 14 37 -7 17)
1969/12/31/18:00:15.360,(44 14 4 1 -1 40 0 61)
1969/12/31/18:00:15.373,(-10 -10 -4 -2 -1 -40 -13 -19)
1969/12/31/18:00:15.373,(18 9 5 2 1 21 6 24)
1969/12/31/18:00:15.382,(24 21 8 3 9 47 49 52)
1969/12/31/18:00:15.382,(-1 -16 -5 -4 -12 -75 -33 -27)
1969/12/31/18:00:15.397,(-21 -13 -3 1 -7 -39 -31 -17)
1969/12/31/18:00:15.397,(-32 -20 -7 -3 0 33 7 -55)
1969/12/31/18:00:15.399,(-6 -5 -10 -9 -19 -94 -76 -27)
1969/12/31/18:00:15.399,(-9 8 4 -2 2 -4 6 -13)
1969/12/31/18:00:15.420,(-15 -10 0 2 5 26 13 13)
1969/12/31/18:00:15.420,(-23 -12 -3 -1 -7 -19 25 7)
1969/12/31/18:00:15.421,(21 12 2 0 -3 14 6 -8)
1969/12/31/18:00:15.421,(-4 1 -1 0 3 8 -10 -14)
1969/12/31/18:00:15.433,(8 15 7 3 11 7 19 -25)
1969/12/31/18:00:15.433,(7 2 0 0 22 70 -4 48)
1969/12/31/18:00:15.442,(1 -19 -4 -2 -5 -6 17 -32)
1969/12/31/18:00:15.442,(-4 2 4 5 13 32 8 8)
1969/12/31/18:00:15.457,(24 16 3 -1 -35 -57 -7 2)
1969/12/31/18:00:15.457,(26 13 -1 1 1 -6 1 28)
1969/12/31/18:00:15.458,(-10 -8 -1 2 -12 8 3 -11)
1969/12/31/18:00:15.458,(-29 -2 3 14 33 16 10 0)
1969/12/31/18:00:15.479,(-17 -17 -8 -18 -34 20 24 -20)
1969/12/31/18:00:15.479,(-17 -17 -10 -11 -11 -9 -61 -56)
1969/12/31/18:00:15.481,(11 -2 -3 -6 51 21 7 28)
1969/12/31/18:00:15.481,(-21 1 -2 4 -30 -17 16 12)
1969/12/31/18:00:15.493,(-18 0 2 -1 -21 -15 -25 -27)
1969/12/31/18:00:15.493,(-14 -2 1 1 0 -9 2 1)
1969/12/31/18:00:15.502,(1 3 2 10 20 16 15 11)
1969/12/31/18:00:15.502,(16 11 9 24 70 39 10 3)
1969/12/31/18:00:15.517,(15 9 -6 -33 -84 -97 -43 13)
1969/12/31/18:00:15.517,(1 3 0 -9 0 25 23 5)
1969/12/31/18:00:15.518,(6 2 6 4 -2 -30 -26 -1)
1969/12/31/18:00:15.518,(8 -3 0 0 27 13 -9 0)
1969/12/31/18:00:15.539,(10 -3 0 22 37 54 48 41)
1969/12/31/18:00:15.539,(-2 -1 2 14 17 -28 25 21)
1969/12/31/18:00:15.541,(5 6 -1 -1 -24 -2 -7 4)
1969/12/31/18:00:15.541,(27 6 -1 -10 -32 -47 -22 8)
1969/12/31/18:00:15.553,(15 5 -1 -6 31 74 34 25)
1969/12/31/18:00:15.553,(16 4 3 8 15 0 15 16)
1969/12/31/18:00:15.562,(-7 12 3 6 -45 -62 -8 -12)
1969/12/31/18:00:15.562,(5 -9 -2 -11 -21 -4 1 -4)
1969/12/31/18:00:15.577,(-3 -8 -8 -24 -43 -6 2 23)
1969/12/31/18:00:15.577,(-5 3 1 9 55 63 -14 0)
1969/12/31/18:00:15.579,(0 -11 -5 -2 -16 -56 3 5)
1969/12/31/18:00:15.579,(-10 -2 -7 -5 6 21 -5 -50)
1969/12/31/18:00:15.599,(17 6 -1 18 24 -11 -7 13)
1969/12/31/18:00:15.599,(-9 3 6 -3 -32 -15 -3 14)
1969/12/31/18:00:15.601,(-1 -3 -3 6 61 74 28 6)
1969/12/31/18:00:15.601,(-16 0 4 -19 -78 -35 -18 0)
1969/12/31/18:00:15.613,(-8 -4 0 6 23 -34 -18 -11)
1969/12/31/18:00:15.613,(11 15 8 -7 -51 -57 -12 -12)
1969/12/31/18:00:15.622,(-6 -4 8 1 19 35 8 9)
1969/12/31/18:00:15.622,(25 11 -14 4 29 10 0 24)
1969/12/31/18:00:15.637,(17 4 -35 16 108 97 32 13)
1969/12/31/18:00:15.637,(-27 -11 39 -7 -92 -71 -37 -22)
1969/12/31/18:00:15.639,(25 1 -38 -26 -35 -2 0 30)
1969/12/31/18:00:15.639,(-34 1 47 -7 -8 -1 -6 -26)
1969/12/31/18:00:15.659,(-9 2 9 12 18 -6 -8 10)
1969/12/31/18:00:15.660,(19 -11 -54 -14 41 34 24 39)
1969/12/31/18:00:15.661,(3 17 33 9 -36 -19 3 35)
1969/12/31/18:00:15.661,(54 14 -56 -9 9 -2 4 24)
1969/12/31/18:00:15.673,(6 -73 -34 -14 11 -4 9 33)
1969/12/31/18:00:15.673,(-25 77 94 38 17 22 -5 -56)
1969/12/31/18:00:15.682,(28 52 12 30 47 36 -15 4)
1969/12/31/18:00:15.682,(-52 -89 -52 -38 -81 -90 -23 -3)
1969/12/31/18:00:15.697,(-12 15 -20 -15 -40 -20 -10 -36)
1969/12/31/18:00:15.697,(59 -105 -87 -44 -30 2 22 57)
1969/12/31/18:00:15.698,(1 25 5 -2 36 37 -13 -28)
1969/12/31/18:00:15.698,(-23 93 96 32 8 2 -3 -46)
1969/12/31/18:00:15.719,(-13 -54 -93 -28 9 7 -16 -55)
1969/12/31/18:00:15.720,(-37 91 105 28 10 -4 -2 -37)
1969/12/31/18:00:15.721,(-46 -42 -23 -3 8 -3 -10 -25)
1969/12/31/18:00:15.721,(14 -66 -96 -14 81 92 38 -38)
1969/12/31/18:00:15.733,(-4 96 127 32 -89 -82 -44 26)
1969/12/31/18:00:15.733,(11 -10 -67 -12 21 -9 -7 59)
1969/12/31/18:00:15.742,(-12 -80 -69 -10 1 17 39 -25)
1969/12/31/18:00:15.742,(15 92 61 20 -3 2 -24 62)
1969/12/31/18:00:15.757,(39 -81 -75 -8 30 29 28 -2)
1969/12/31/18:00:15.757,(-24 -58 -48 -40 -62 -7 14 11)
1969/12/31/18:00:15.759,(-31 91 108 19 -36 -44 -20 -38)
1969/12/31/18:00:15.759,(36 -108 -98 -33 -15 -8 4 45)
1969/12/31/18:00:15.778,(-1 32 31 17 40 32 -15 -19)
1969/12/31/18:00:15.779,(-30 -30 -26 11 45 1 -5 -29)
1969/12/31/18:00:15.787,(-1 -128 -128 -53 -48 -28 -43 -69)
1969/12/31/18:00:15.787,(10 119 111 37 -23 -31 10 53)
1969/12/31/18:00:15.793,(-6 34 37 21 65 48 21 -23)
1969/12/31/18:00:15.793,(-4 -29 -28 1 4 2 3 -9)
1969/12/31/18:00:15.802,(-34 24 46 1 -54 -22 -7 -26)
1969/12/31/18:00:15.802,(0 -128 -122 -46 -15 -2 -10 -8)
1969/12/31/18:00:15.816,(-15 102 95 23 -15 -15 -7 -8)
1969/12/31/18:00:15.816,(69 -58 -98 -27 24 32 12 15)
1969/12/31/18:00:15.825,(6 -40 -47 -12 73 49 7 23)
1969/12/31/18:00:15.825,(-36 52 105 59 -2 -29 -15 -33)
1969/12/31/18:00:15.840,(-24 -22 -8 3 11 -5 15 16)
1969/12/31/18:00:15.840,(51 14 36 12 -50 -23 15 42)
1969/12/31/18:00:15.841,(52 47 27 0 -42 -53 -24 6)
1969/12/31/18:00:15.841,(-46 -25 4 -8 9 11 -15 9)
1969/12/31/18:00:15.853,(-12 -113 -109 -35 6 30 -7 -25)
1969/12/31/18:00:15.853,(-7 119 108 29 19 15 -38 -8)
1969/12/31/18:00:15.863,(33 -25 -32 1 -12 -48 14 10)
1969/12/31/18:00:15.863,(2 -19 -27 -11 -5 -4 20 4)
1969/12/31/18:00:15.876,(40 -68 -59 -25 17 14 -2 29)
1969/12/31/18:00:15.876,(-51 38 -8 16 52 28 19 -8)
1969/12/31/18:00:15.884,(-76 61 52 34 -8 45 29 5)
1969/12/31/18:00:15.884,(89 31 -8 17 3 -13 -8 -31)
1969/12/31/18:00:15.899,(-26 -69 -88 -64 -41 -2 10 31)
1969/12/31/18:00:15.900,(-44 33 43 -6 -77 -59 -46 -69)
1969/12/31/18:00:15.901,(-29 31 15 6 53 32 28 38)
1969/12/31/18:00:15.901,(-15 -64 -57 1 9 -12 12 12)
1969/12/31/18:00:15.913,(2 2 -1 0 -41 1 11 12)
1969/12/31/18:00:15.913,(9 -27 -40 7 49 14 7 -17)
1969/12/31/18:00:15.922,(-20 -4 13 -12 -22 -3 -33 -50)
1969/12/31/18:00:15.922,(-3 -33 -17 -20 21 -2 3 7)
1969/12/31/18:00:15.936,(14 -47 -14 2 -16 -16 24 27)
1969/12/31/18:00:15.936,(-27 -16 6 -32 -95 -45 -46 -30)
1969/12/31/18:00:15.943,(43 14 -21 -13 10 5 -6 22)
1969/12/31/18:00:15.943,(-12 51 39 14 42 30 -17 -57)
1969/12/31/18:00:15.959,(5 -40 5 23 -9 -27 -16 -9)
1969/12/31/18:00:15.959,(-37 17 16 20 28 6 14 -32)
1969/12/31/18:00:15.961,(38 21 13 45 98 105 49 87)
1969/12/31/18:00:15.961,(-28 -33 -24 -47 -111 -92 -56 -68)
1969/12/31/18:00:15.983,(-8 83 48 2 -4 2 9 -25)
1969/12/31/18:00:15.984,(5 -74 -50 -19 21 -6 -14 -21)
1969/12/31/18:00:15.985,(8 -46 -18 -12 39 17 47 45)
1969/12/31/18:00:15.985,(19 15 -14 22 51 47 -8 -16)
1969/12/31/18:00:15.996,(2 46 50 36 20 -3 3 37)
1969/12/31/18:00:15.996,(13 -36 -51 -27 -53 2 52 3)
1969/12/31/18:00:16.003,(20 11 -16 -24 -55 -23 -22 8)
1969/12/31/18:00:16.003,(-23 40 58 25 -6 -43 0 -17)
1969/12/31/18:00:16.020,(-14 25 22 1 41 21 -22 -25)
1969/12/31/18:00:16.020,(25 -69 -63 29 40 5 19 46)
1969/12/31/18:00:16.021,(-28 103 90 -13 -56 -50 3 -11)
1969/12/31/18:00:16.021,(11 -5 12 2 -7 6 16 35)
1969/12/31/18:00:16.042,(41 -26 -50 0 31 15 -29 -17)
1969/12/31/18:00:16.042,(-37 44 47 -10 3 0 -26 -6)
1969/12/31/18:00:16.048,(-7 -128 -72 -13 10 -3 -17 -74)
1969/12/31/18:00:16.048,(13 -30 -51 -26 -42 -5 15 23)
1969/12/31/18:00:16.056,(-9 118 101 38 24 8 9 -10)
1969/12/31/18:00:16.057,(45 34 17 36 81 48 12 29)
1969/12/31/18:00:16.063,(29 -53 -73 -33 -80 -61 -16 8)
1969/12/31/18:00:16.063,(-41 38 48 -1 -24 2 2 -6)
1969/12/31/18:00:16.079,(-5 -53 -55 -21 -45 -21 11 15)
1969/12/31/18:00:16.079,(7 -60 -65 -38 -28 -18 -7 -18)
1969/12/31/18:00:16.087,(6 104 109 75 103 60 12 -6)
1969/12/31/18:00:16.087,(-23 -23 -38 11 -20 -13 2 -31)
1969/12/31/18:00:16.102,(-4 -57 -55 -20 -28 -13 10 19)
1969/12/31/18:00:16.102,(-19 45 -9 -28 -31 -20 -4 4)
1969/12/31/18:00:16.103,(35 14 -24 11 81 20 -10 22)
1969/12/31/18:00:16.103,(-3 -29 -11 -25 -66 -33 -8 15)
1969/12/31/18:00:16.116,(-29 -36 29 -1 5 -13 -3 -11)
1969/12/31/18:00:16.116,(-22 -104 -81 -31 -19 42 -15 -56)
1969/12/31/18:00:16.123,(-2 1 2 4 -7 -1 8 7)
1969/12/31/18:00:16.123,(35 121 108 18 20 -4 2 -5)
1969/12/31/18:00:16.140,(13 -67 -64 -22 -65 -48 -3 12)
1969/12/31/18:00:16.140,(-21 3 61 13 -33 -77 -68 4)
1969/12/31/18:00:16.142,(-14 -63 -69 -27 22 65 38 25)
1969/12/31/18:00:16.142,(-27 10 11 24 68 50 8 -30)
1969/12/31/18:00:16.162,(62 67 59 38 32 5 4 30)
1969/12/31/18:00:16.162,(-32 -49 -26 0 24 26 31 -12)
1969/12/31/18:00:16.164,(-2 5 -13 -32 -88 -82 -79 -74)
1969/12/31/18:00:16.164,(-49 -70 -32 -8 44 58 12 25)
1969/12/31/18:00:16.176,(-34 12 -26 -34 -46 -19 9 -4)
1969/12/31/18:00:16.176,(-9 97 107 48 0 -51 14 32)
1969/12/31/18:00:16.183,(87 1 -13 7 66 95 38 62)
1969/12/31/18:00:16.183,(25 24 -17 14 -52 -90 2 36)
1969/12/31/18:00:16.199,(-79 4 29 13 43 25 -52 -92)
1969/12/31/18:00:16.199,(66 -54 -42 -33 -33 6 27 8)
1969/12/31/18:00:16.201,(-55 1 23 1 3 21 11 19)
1969/12/31/18:00:16.201,(-44 -21 -31 -14 30 34 15 -31)
1969/12/31/18:00:16.222,(35 -14 -13 1 -21 -14 17 41)
1969/12/31/18:00:16.222,(10 -7 -1 12 62 44 17 37)
1969/12/31/18:00:16.223,(-46 -85 -77 -53 -112 -111 -40 -43)
1969/12/31/18:00:16.223,(43 63 60 19 7 8 -11 -5)
1969/12/31/18:00:16.236,(-12 -17 14 2 18 15 -7 -8)
1969/12/31/18:00:16.236,(-6 -14 2 -5 8 12 -32 -17)
1969/12/31/18:00:16.260,(-4 -10 -38 24 52 34 13 -6)
1969/12/31/18:00:16.260,(20 -74 -65 -34 -59 -29 7 66)
1969/12/31/18:00:16.261,(8 127 127 46 39 28 -1 17)
1969/12/31/18:00:16.261,(-28 -26 -40 -18 -27 -12 14 -3)
1969/12/31/18:00:16.265,(-32 -59 -6 -4 4 11 -1 24)
1969/12/31/18:00:16.265,(-12 -54 -51 -25 7 -25 -11 -25)
1969/12/31/18:00:16.282,(19 3 -72 -9 38 12 -23 -24)
1969/12/31/18:00:16.282,(8 127 114 58 -19 3 39 31)
1969/12/31/18:00:16.283,(11 39 15 -2 -59 -40 -14 -36)
1969/12/31/18:00:16.283,(-3 -64 -44 -10 62 72 0 -4)
1969/12/31/18:00:16.295,(0 -44 -43 -9 -29 -18 24 19)
1969/12/31/18:00:16.295,(18 -18 -22 -11 6 -21 -23 -41)
1969/12/31/18:00:16.304,(12 63 83 43 32 -6 -13 -7)
1969/12/31/18:00:16.304,(62 51 44 18 4 29 -4 36)
1969/12/31/18:00:16.319,(-24 -87 -13 -10 4 1 0 -7)
1969/12/31/18:00:16.319,(-21 -21 -36 -6 39 32 -34 -46)
1969/12/31/18:00:16.321,(-30 -84 -94 -42 -35 -26 35 15)
1969/12/31/18:00:16.321,(45 87 82 54 15 -4 12 56)
1969/12/31/18:00:16.342,(-16 -51 -15 -12 -18 10 4 -56)
1969/12/31/18:00:16.342,(11 -61 -44 -11 -24 -37 -7 23)
1969/12/31/18:00:16.343,(-11 -16 8 -20 2 18 3 34)
1969/12/31/18:00:16.343,(-27 -51 -50 -12 65 47 19 -9)
1969/12/31/18:00:16.364,(-3 34 3 7 -40 -38 -17 -13)
1969/12/31/18:00:16.364,(8 26 46 19 -7 15 4 -9)
1969/12/31/18:00:16.366,(67 83 31 14 3 5 -8 -5)
1969/12/31/18:00:16.366,(-56 -58 -29 -21 -53 -65 -1 0)
1969/12/31/18:00:16.380,(-24 23 33 10 44 24 -31 -28)
1969/12/31/18:00:16.380,(13 -42 -47 -15 13 -8 10 56)
1969/12/31/18:00:16.381,(-3 -27 8 -7 -35 -15 -9 -3)
1969/12/31/18:00:16.381,(0 -18 -30 -21 6 27 4 -13)
1969/12/31/18:00:16.402,(-10 -6 -41 -2 47 18 -11 -22)
1969/12/31/18:00:16.402,(27 99 100 30 -27 -16 12 50)
1969/12/31/18:00:16.404,(-51 -10 9 29 24 -6 9 -20)
1969/12/31/18:00:16.404,(18 -35 -16 -24 -15 19 -15 -11)
1969/12/31/18:00:16.424,(40 16 -31 -24 -50 -42 1 39)
1969/12/31/18:00:16.424,(-12 5 21 6 5 14 -3 -31)
1969/12/31/18:00:16.426,(-17 61 89 15 -45 -55 -1 19)
1969/12/31/18:00:16.426,(33 -29 -32 -9 11 0 2 -10)
1969/12/31/18:00:16.439,(-30 -47 -42 -26 -17 -5 -9 3)
1969/12/31/18:00:16.439,(17 0 -37 -15 46 30 -23 -6)
1969/12/31/18:00:16.441,(16 -94 -78 14 38 53 52 63)
1969/12/31/18:00:16.441,(10 102 102 12 -70 -41 8 31)
1969/12/31/18:00:16.462,(50 94 37 -3 -4 6 -8 -13)
1969/12/31/18:00:16.462,(-52 3 35 15 -12 -36 -23 -57)
1969/12/31/18:00:16.463,(-38 -72 -39 -21 17 16 -22 -22)
1969/12/31/18:00:16.463,(4 -40 -77 -15 12 9 19 8)
1969/12/31/18:00:16.476,(-2 -37 -17 13 23 10 34 52)
1969/12/31/18:00:16.476,(5 -10 0 16 60 41 -29 -28)
1969/12/31/18:00:16.485,(-36 111 114 8 -106 -106 -68 -77)
1969/12/31/18:00:16.485,(-29 -8 -9 -12 42 18 -4 7)
1969/12/31/18:00:16.500,(-30 -55 -31 -3 -6 -11 3 -14)
1969/12/31/18:00:16.500,(2 -53 -75 -31 10 21 9 0)
1969/12/31/18:00:16.501,(43 41 40 33 71 64 33 37)
1969/12/31/18:00:16.501,(3 5 -1 -8 -60 -55 -24 -57)
1969/12/31/18:00:16.522,(-14 -34 -9 -4 -8 14 12 3)
1969/12/31/18:00:16.522,(52 59 -15 0 17 16 35 53)
1969/12/31/18:00:16.523,(0 18 21 14 2 6 5 5)
1969/12/31/18:00:16.523,(21 20 18 13 20 14 10 23)
1969/12/31/18:00:16.544,(-45 -17 -4 -13 -26 -20 -15 -54)
1969/12/31/18:00:16.544,(22 -23 -52 -17 -16 -13 -11 -26)
1969/12/31/18:00:16.546,(-17 30 54 8 12 11 4 4)
1969/12/31/18:00:16.546,(-8 1 -2 8 57 51 1 -23)
1969/12/31/18:00:16.559,(37 42 10 -3 -66 -53 11 41)
1969/12/31/18:00:16.559,(29 -22 -31 14 54 39 21 9)
1969/12/31/18:00:16.561,(-56 4 40 -12 -89 -83 -56 -94)
1969/12/31/18:00:16.561,(9 27 26 -12 -71 -56 -5 19)
1969/12/31/18:00:16.582,(1 16 21 9 40 38 -18 2)
1969/12/31/18:00:16.582,(-13 -16 -21 -32 -39 -14 16 19)
1969/12/31/18:00:16.584,(55 -85 -110 -24 52 32 -2 38)
1969/12/31/18:00:16.584,(41 69 61 43 31 20 18 25)
1969/12/31/18:00:16.596,(-6 7 34 10 2 7 -4 -20)
1969/12/31/18:00:16.596,(-20 10 11 4 -3 -19 -27 -3)
1969/12/31/18:00:16.605,(-10 -47 -58 -58 -21 -3 13 15)
1969/12/31/18:00:16.605,(-24 -59 -89 -13 -5 -4 -27 -24)
1969/12/31/18:00:16.620,(-8 -49 -3 8 19 15 39 20)
1969/12/31/18:00:16.620,(15 82 95 51 21 46 5 7)
1969/12/31/18:00:16.621,(29 58 39 53 67 14 33 56)
1969/12/31/18:00:16.621,(31 77 58 -15 -58 -62 -33 23)
1969/12/31/18:00:16.642,(-13 -2 5 -13 -36 56 28 -17)
1969/12/31/18:00:16.642,(-38 -83 -50 -36 -35 -72 -33 -23)
1969/12/31/18:00:16.644,(34 -40 -88 -29 19 22 7 16)
1969/12/31/18:00:16.644,(-41 -41 -1 21 114 83 -6 -19)
1969/12/31/18:00:16.656,(-17 13 -16 -24 -97 -110 -30 -11)
1969/12/31/18:00:16.656,(10 -26 -11 -29 -39 -13 9 18)
1969/12/31/18:00:16.665,(-22 6 -11 1 14 14 -18 -33)
1969/12/31/18:00:16.665,(5 -10 -25 8 44 52 32 8)
1969/12/31/18:00:16.679,(7 21 27 21 50 -6 -7 18)
1969/12/31/18:00:16.679,(-20 8 4 -32 -79 -34 -18 -29)
1969/12/31/18:00:16.681,(14 -27 -35 -36 -36 -40 -17 21)
1969/12/31/18:00:16.681,(-54 -36 -13 -27 -31 -25 -18 -60)
1969/12/31/18:00:16.702,(11 45 49 71 83 79 18 2)
1969/12/31/18:00:16.702,(-15 9 8 37 33 -12 -1 -11)
1969/12/31/18:00:16.703,(3 -7 3 6 -15 16 -4 -22)
1969/12/31/18:00:16.703,(-2 4 -5 -17 -16 -2 -2 15)
1969/12/31/18:00:16.716,(69 25 11 10 22 20 14 57)
1969/12/31/18:00:16.716,(-63 -23 -6 -16 -15 -22 -28 -68)
1969/12/31/18:00:16.724,(-1 7 15 -1 -7 13 16 7)
1969/12/31/18:00:16.724,(-10 -7 -3 7 -6 -5 -2 -17)
1969/12/31/18:00:16.740,(38 34 -13 -12 0 -11 6 31)
1969/12/31/18:00:16.740,(-44 -26 15 13 10 18 37 19)
1969/12/31/18:00:16.741,(-11 4 14 0 4 -1 -4 3)
1969/12/31/18:00:16.741,(-33 -29 -21 -3 -13 -34 -20 -45)
1969/12/31/18:00:16.762,(9 14 -1 -4 10 31 -9 -16)
1969/12/31/18:00:16.762,(16 0 -8 -15 -4 14 33 40)
1969/12/31/18:00:16.764,(10 3 2 5 10 -9 20 37)
1969/12/31/18:00:16.764,(-3 -8 5 7 -11 30 1 10)
1969/12/31/18:00:16.776,(-46 -28 -4 -14 -17 -20 7 0)
1969/12/31/18:00:16.776,(48 28 -4 -7 2 -2 -28 -19)
1969/12/31/18:00:16.784,(8 -18 -23 -42 -8 29 33 19)
1969/12/31/18:00:16.784,(-37 -17 4 50 20 -13 -8 -25)
1969/12/31/18:00:16.800,(-60 -25 -2 1 1 27 -5 -45)
1969/12/31/18:00:16.800,(24 25 19 35 20 -76 -43 2)
1969/12/31/18:00:16.801,(58 23 5 3 -12 2 -3 25)
1969/12/31/18:00:16.801,(-3 -7 -5 -26 -15 37 31 5)
1969/12/31/18:00:16.822,(12 5 -2 -22 -15 1 -29 -12)
1969/12/31/18:00:16.822,(-39 -4 14 34 44 51 59 51)
1969/12/31/18:00:16.824,(-7 -17 -10 -8 -15 -48 -34 63)
1969/12/31/18:00:16.824,(-18 11 6 -7 -11 -40 -60 -84)
1969/12/31/18:00:16.836,(63 25 1 4 3 4 7 19)
1969/12/31/18:00:16.836,(-59 -59 -22 -29 -26 -31 -9 -37)
1969/12/31/18:00:16.845,(-7 0 3 12 12 18 25 29)
1969/12/31/18:00:16.845,(58 18 2 3 7 12 40 55)
1969/12/31/18:00:16.860,(2 5 -2 -8 -9 -34 -12 -29)
1969/12/31/18:00:16.860,(1 6 2 -4 0 22 -7 -21)
1969/12/31/18:00:16.861,(-28 9 16 23 13 8 -28 -31)
1969/12/31/18:00:16.861,(11 -15 -23 -17 -22 -36 8 -3)
1969/12/31/18:00:16.881,(15 -7 2 -1 10 31 16 34)
1969/12/31/18:00:16.881,(14 11 1 -3 -9 -32 -24 -17)
1969/12/31/18:00:16.889,(-96 -27 -13 -2 -8 -20 -34 -98)
1969/12/31/18:00:16.889,(65 48 35 19 17 26 37 72)
1969/12/31/18:00:16.896,(-48 -42 -20 -8 0 -1 8 38)
1969/12/31/18:00:16.896,(51 6 -8 -9 -6 9 -5 25)
1969/12/31/18:00:16.904,(-44 4 7 6 2 0 3 -41)
1969/12/31/18:00:16.905,(14 3 -3 -3 1 0 -6 40)
1969/12/31/18:00:16.927,(-8 2 8 4 4 -7 12 14)
1969/12/31/18:00:16.927,(66 31 7 2 0 14 6 11)
1969/12/31/18:00:16.928,(4 -10 -1 1 -1 -6 -11 -39)
1969/12/31/18:00:16.928,(-1 -2 -4 -2 -1 5 7 26)
1969/12/31/18:00:16.942,(-23 -7 -2 4 0 -13 -17 -46)
1969/12/31/18:00:16.942,(-2 26 10 6 6 22 19 9)
1969/12/31/18:00:16.943,(5 -18 -11 -6 -8 -1 -4 -8)
1969/12/31/18:00:16.943,(-45 -16 -10 -5 -5 -12 -24 -31)
1969/12/31/18:00:16.964,(41 7 0 -4 -3 -8 1 41)
1969/12/31/18:00:16.964,(-29 -12 -2 0 4 12 3 21)
1969/12/31/18:00:16.966,(29 10 0 -2 -3 -3 7 -8)
1969/12/31/18:00:16.966,(-56 -30 -11 -6 -7 -10 -14 -28)
1969/12/31/18:00:16.979,(-23 3 -1 -4 -5 -13 -18 -31)
1969/12/31/18:00:16.979,(-5 -8 -3 -3 1 10 5 13)
1969/12/31/18:00:16.985,(15 0 3 1 0 1 2 6)
1969/12/31/18:00:16.985,(-17 1 -5 -5 -6 -8 -14 -36)
1969/12/31/18:00:17.002,(6 4 1 1 1 -2 -1 -1)
1969/12/31/18:00:17.002,(-38 -23 -11 -5 -1 0 -1 -10)
1969/12/31/18:00:17.004,(31 13 1 0 -1 -2 0 -2)
1969/12/31/18:00:17.004,(26 14 10 1 -1 -2 1 6)
1969/12/31/18:00:17.024,(-22 -28 -11 -4 -2 -5 -1 -5)
1969/12/31/18:00:17.024,(-17 -10 -6 -6 -5 -2 -7 -43)
1969/12/31/18:00:17.026,(-2 11 12 8 2 1 6 22)
1969/12/31/18:00:17.026,(30 10 -12 -5 -3 1 -1 -18)
1969/12/31/18:00:17.039,(13 8 16 6 0 -2 -4 7)
1969/12/31/18:00:17.039,(-4 -7 -7 -3 2 4 4 19)
1969/12/31/18:00:17.046,(18 16 1 -1 2 2 5 14)
1969/12/31/18:00:17.046,(-11 -20 7 2 0 -1 0 5)
1969/12/31/18:00:17.062,(-7 4 -9 -4 -2 -7 -10 -21)
1969/12/31/18:00:17.062,(-1 -3 -4 -4 -3 -1 -4 0)
1969/12/31/18:00:17.063,(-18 -21 -17 -5 -3 -3 3 -4)
1969/12/31/18:00:17.063,(20 17 -1 2 3 0 -5 16)
1969/12/31/18:00:17.087,(6 14 14 2 0 1 5 3)
1969/12/31/18:00:17.087,(-6 -11 -6 0 -2 -1 -6 -7)
1969/12/31/18:00:17.089,(-10 -21 -10 -7 -6 -6 -7 -6)
1969/12/31/18:00:17.089,(1 9 16 6 0 1 6 -6)
1969/12/31/18:00:17.099,(-6 8 4 0 -5 -5 -10 10)
1969/12/31/18:00:17.099,(43 25 8 3 1 1 3 2)
1969/12/31/18:00:17.107,(-27 -22 -19 -9 -7 -6 -15 -44)
1969/12/31/18:00:17.107,(-14 -27 -16 -7 -2 1 0 -6)
1969/12/31/18:00:17.122,(11 4 -13 -7 -2 0 4 0)
1969/12/31/18:00:17.122,(-8 23 46 19 9 5 11 5)
1969/12/31/18:00:17.123,(14 10 -5 -2 -1 -2 -17 0)
1969/12/31/18:00:17.123,(-4 -5 0 -1 -1 2 5 8)
1969/12/31/18:00:17.144,(-21 -3 5 1 -1 -8 -13 -17)
1969/12/31/18:00:17.144,(23 -9 -32 -13 -4 0 5 14)
1969/12/31/18:00:17.146,(-9 22 39 16 7 3 7 -3)
1969/12/31/18:00:17.146,(-2 8 0 -4 -2 2 0 1)
1969/12/31/18:00:17.159,(1 -28 -25 -8 -2 -2 -3 -2)
1969/12/31/18:00:17.159,(-8 6 -5 -9 -6 1 3 -4)
1969/12/31/18:00:17.165,(3 15 17 9 2 0 10 4)
1969/12/31/18:00:17.165,(-2 -12 -9 -1 -3 -3 -8 -1)
1969/12/31/18:00:17.182,(2 4 2 2 3 2 4 10)
1969/12/31/18:00:17.182,(3 -3 -11 -8 -6 -4 -8 -4)
1969/12/31/18:00:17.183,(-3 -15 -8 -4 -1 0 2 -5)
1969/12/31/18:00:17.183,(-4 -4 -1 2 2 2 1 7)
1969/12/31/18:00:17.205,(8 26 18 6 0 0 14 0)
1969/12/31/18:00:17.205,(-9 -2 5 7 4 0 -13 1)
1969/12/31/18:00:17.206,(10 -33 -23 -13 -4 -1 1 7)
1969/12/31/18:00:17.206,(5 36 19 3 -2 -6 -7 10)
1969/12/31/18:00:17.219,(-18 -22 -6 1 0 -4 -10 -22)
1969/12/31/18:00:17.219,(2 -23 -28 -12 -5 -2 11 4)
1969/12/31/18:00:17.225,(5 56 57 18 7 3 -1 0)
1969/12/31/18:00:17.225,(0 -19 -22 -9 0 3 3 8)
1969/12/31/18:00:17.242,(-3 3 10 6 2 2 -9 -2)
1969/12/31/18:00:17.242,(0 -8 -15 -10 -7 -5 -2 2)
1969/12/31/18:00:17.244,(-8 -3 14 12 4 2 -2 -1)
1969/12/31/18:00:17.244,(2 -11 -10 -2 -1 0 4 0)
1969/12/31/18:00:17.265,(7 13 8 6 2 2 0 0)
1969/12/31/18:00:17.265,(-14 -11 -2 -2 -1 0 -3 -10)
1969/12/31/18:00:17.266,(3 -18 -25 -10 -3 -1 8 7)
1969/12/31/18:00:17.266,(-5 -3 1 -3 -1 -1 -7 -3)
1969/12/31/18:00:17.279,(7 25 9 0 -1 0 1 -1)
1969/12/31/18:00:17.279,(2 13 20 16 8 5 0 4)
1969/12/31/18:00:17.286,(5 -10 -23 -7 -4 0 -2 0)
1969/12/31/18:00:17.286,(-9 -11 8 2 0 -1 -1 -5)
1969/12/31/18:00:17.302,(-4 -72 -43 -24 -11 -5 -3 0)
1969/12/31/18:00:17.302,(0 46 52 16 6 1 -2 -4)
1969/12/31/18:00:17.303,(7 37 9 0 -1 3 1 0)
1969/12/31/18:00:17.303,(-7 -1 16 5 2 1 1 -8)
1969/12/31/18:00:17.325,(-4 -18 -17 -5 -6 -2 -2 -3)
1969/12/31/18:00:17.325,(-8 -12 7 -5 -2 1 -3 -4)
1969/12/31/18:00:17.326,(25 15 -18 0 2 1 -2 6)
1969/12/31/18:00:17.326,(6 -12 -2 1 -2 -3 -2 0)
1969/12/31/18:00:17.339,(6 47 8 -3 -2 -3 -1 0)
1969/12/31/18:00:17.339,(-5 -31 -7 6 3 -2 1 1)
1969/12/31/18:00:17.346,(0 11 -1 3 3 1 1 3)
1969/12/31/18:00:17.346,(-16 -30 -29 -19 -9 -4 -3 -4)
1969/12/31/18:00:17.362,(18 60 30 10 0 -1 0 -1)
1969/12/31/18:00:17.362,(-22 -25 -24 -13 -7 -3 -5 -6)
1969/12/31/18:00:17.370,(-10 -25 -34 -32 -13 -3 0 0)
1969/12/31/18:00:17.370,(27 63 47 37 14 4 -2 5)
1969/12/31/18:00:17.384,(-23 -43 3 12 6 0 6 1)
1969/12/31/18:00:17.384,(8 19 6 -3 -1 -6 5 7)
1969/12/31/18:00:17.386,(-10 5 18 6 2 -5 2 -3)
1969/12/31/18:00:17.386,(-1 4 -17 -14 -4 -4 4 4)
1969/12/31/18:00:17.408,(-3 -21 -37 -22 -4 -2 0 2)
1969/12/31/18:00:17.408,(-3 -19 -4 6 -2 -2 -3 -3)
1969/12/31/18:00:17.410,(-24 -40 -59 -45 -18 -10 -11 -8)
1969/12/31/18:00:17.410,(21 24 41 36 16 9 2 2)
1969/12/31/18:00:17.414,(3 18 32 28 10 8 1 -1)
1969/12/31/18:00:17.414,(0 -16 -17 -8 -4 0 -2 2)
1969/12/31/18:00:17.421,(4 12 7 11 0 1 -2 -4)
1969/12/31/18:00:17.421,(-11 -26 -25 -21 -11 -6 -3 -3)
1969/12/31/18:00:17.437,(-1 -15 -22 -14 -5 -4 1 4)
1969/12/31/18:00:17.437,(1 8 6 2 2 0 3 2)
1969/12/31/18:00:17.438,(2 4 17 7 1 -1 -3 -3)
1969/12/31/18:00:17.438,(-6 6 0 -4 -3 -2 -3 -5)
1969/12/31/18:00:17.451,(10 13 21 6 -1 3 -3 -2)
1969/12/31/18:00:17.451,(1 3 0 -1 0 4 -7 -4)
1969/12/31/18:00:17.460,(0 -1 13 10 3 4 -7 -4)
1969/12/31/18:00:17.460,(-3 -11 -4 -1 0 4 -5 -5)
1969/12/31/18:00:17.474,(-7 -11 -12 -12 -5 2 -5 -2)
1969/12/31/18:00:17.474,(2 8 -2 -2 -1 2 -4 -4)
1969/12/31/18:00:17.481,(-5 -10 9 8 3 5 -4 -8)
1969/12/31/18:00:17.481,(-6 -8 -1 -6 -4 3 -3 3)
1969/12/31/18:00:17.497,(0 -3 -1 -3 -2 5 -1 4)
1969/12/31/18:00:17.497,(1 11 3 0 -2 -5 1 -8)
1969/12/31/18:00:17.498,(-1 -5 1 6 2 -16 7 6)
1969/12/31/18:00:17.498,(-7 -3 -18 -9 -3 -23 9 1)
1969/12/31/18:00:17.510,(-1 0 -12 -4 2 -22 11 10)
1969/12/31/18:00:17.510,(0 0 -19 -10 1 -18 9 10)
1969/12/31/18:00:17.520,(-6 -20 -19 -8 1 -13 11 9)
1969/12/31/18:00:17.520,(2 27 1 -1 1 -6 6 5)
1969/12/31/18:00:17.534,(-2 -5 -7 -4 0 0 2 1)
1969/12/31/18:00:17.534,(-1 -3 -8 -8 -7 7 -1 0)
1969/12/31/18:00:17.540,(-1 -6 2 2 0 13 -3 -1)
1969/12/31/18:00:17.540,(-3 -6 -6 -8 -3 15 -7 -4)
1969/12/31/18:00:17.557,(5 6 16 4 0 16 -6 -6)
1969/12/31/18:00:17.558,(1 -3 -1 0 1 12 -10 -7)
1969/12/31/18:00:17.559,(1 2 13 5 2 8 -7 -5)
1969/12/31/18:00:17.559,(-1 -11 6 4 -1 0 -7 -7)
1969/12/31/18:00:17.571,(-1 -2 -2 -3 -4 -3 -7 -8)
1969/12/31/18:00:17.571,(-3 -8 0 0 -2 -1 -4 -4)
1969/12/31/18:00:17.587,(3 7 17 6 -3 3 -7 -3)
1969/12/31/18:00:17.587,(-2 -9 -4 -4 0 4 -4 -5)
1969/12/31/18:00:17.594,(-2 -3 -1 0 -4 -1 -2 -4)
1969/12/31/18:00:17.594,(2 11 10 9 1 -2 2 1)
1969/12/31/18:00:17.600,(1 1 3 3 -1 -3 2 -1)
1969/12/31/18:00:17.600,(-1 -3 -4 -4 -2 -2 1 1)
1969/12/31/18:00:17.616,(-3 -2 -5 -6 -1 -3 2 0)
1969/12/31/18:00:17.616,(2 2 2 2 4 -1 2 4)
1969/12/31/18:00:17.623,(-1 2 -2 -2 -1 -3 0 1)
1969/12/31/18:00:17.623,(-5 -5 -4 -1 2 -2 -1 1)
1969/12/31/18:00:17.639,(-2 -5 -3 -3 0 0 -1 -2)
1969/12/31/18:00:17.640,(1 3 2 0 -2 -1 -1 0)
1969/12/31/18:00:17.641,(0 -3 -9 -8 -4 -2 -3 -2)
1969/12/31/18:00:17.641,(0 -6 2 5 1 -1 1 -1)
1969/12/31/18:00:17.654,(-2 1 -4 0 -1 -3 -2 -2)
1969/12/31/18:00:17.654,(0 7 6 7 1 -1 2 3)
1969/12/31/18:00:17.661,(2 8 6 4 2 -5 -2 -4)
1969/12/31/18:00:17.661,(-4 -6 -6 1 -2 -3 1 1)
1969/12/31/18:00:17.676,(-1 -5 -7 -4 -2 -5 2 3)
1969/12/31/18:00:17.676,(-4 -11 -8 -6 -5 -4 6 6)
1969/12/31/18:00:17.683,(0 8 1 1 -1 0 0 -1)
1969/12/31/18:00:17.683,(-4 -5 -6 -2 -3 -1 1 -3)
1969/12/31/18:00:17.690,(-2 -1 3 1 -2 -3 -1 -2)
1969/12/31/18:00:17.691,(1 0 -4 -11 -50 -32 -7 0)
1969/12/31/18:00:17.699,(-2 -7 -3 3 51 35 3 2)
1969/12/31/18:00:17.699,(-6 -3 -3 -5 -4 0 2 3)
1969/12/31/18:00:17.714,(-2 -1 -2 2 8 8 0 -1)
1969/12/31/18:00:17.714,(0 3 1 2 3 2 -1 -4)
1969/12/31/18:00:17.728,(-1 -6 -4 -4 -25 -19 0 0)
1969/12/31/18:00:17.728,(0 3 2 2 2 1 -3 -2)
1969/12/31/18:00:17.736,(1 -1 -1 1 -2 -1 -1 -1)
1969/12/31/18:00:17.736,(-1 -2 1 -1 -1 0 -3 -3)
1969/12/31/18:00:17.743,(-2 -1 -1 -1 -7 -3 -1 -3)
1969/12/31/18:00:17.743,(-1 -1 -1 0 4 4 0 -2)
1969/12/31/18:00:17.750,(0 -2 2 0 -8 -5 -3 -1)
1969/12/31/18:00:17.750,(3 4 5 4 12 8 -1 -3)
1969/12/31/18:00:17.759,(-2 -7 -3 -4 -5 -2 -3 -3)
1969/12/31/18:00:17.759,(-1 0 -3 -5 -3 -2 -5 -3)
1969/12/31/18:00:17.774,(-1 -3 2 0 -2 -2 -1 -3)
1969/12/31/18:00:17.774,(-1 -1 1 1 11 6 -1 -2)
1969/12/31/18:00:17.781,(-3 -4 -6 -5 -6 -3 -3 -1)
1969/12/31/18:00:17.781,(-1 -1 0 -1 -6 -6 -4 -3)
1969/12/31/18:00:17.798,(-3 1 -4 -3 2 2 -1 -1)
1969/12/31/18:00:17.798,(-2 -1 -3 2 9 6 -1 -1)
1969/12/31/18:00:17.811,(-1 0 -2 1 -9 -5 1 -1)
1969/12/31/18:00:17.811,(0 1 -2 -1 -2 -4 0 1)
1969/12/31/18:00:17.827,(-2 -3 1 -1 2 0 0 2)
1969/12/31/18:00:17.827,(-1 1 0 1 1 0 1 0)
1969/12/31/18:00:17.828,(-1 0 1 -2 -5 -3 0 1)
1969/12/31/18:00:17.828,(-1 0 0 1 0 1 1 0)
1969/12/31/18:00:17.842,(-3 0 -1 0 1 -1 -1 0)
1969/12/31/18:00:17.842,(-1 -2 -2 2 0 0 -1 -1)
1969/12/31/18:00:17.844,(-2 -3 -1 -2 -2 -1 -2 -3)
1969/12/31/18:00:17.844,(1 1 2 4 0 -1 -2 0)
1969/12/31/18:00:17.856,(-1 0 -1 1 -6 -3 -1 -3)
1969/12/31/18:00:17.856,(0 1 -1 1 3 1 -2 -1)
1969/12/31/18:00:17.863,(-1 0 -2 1 1 -2 0 2)
1969/12/31/18:00:17.863,(-1 -2 0 0 -1 0 1 -2)
1969/12/31/18:00:17.887,(-1 -1 -2 -5 -4 -3 -2 0)
1969/12/31/18:00:17.887,(-2 -1 0 -3 1 0 -2 0)
1969/12/31/18:00:17.888,(-1 -2 1 0 0 -2 0 -1)
1969/12/31/18:00:17.889,(-2 -1 -1 -3 -2 -1 -1 -2)
1969/12/31/18:00:17.894,(-1 2 4 3 4 0 0 -1)
1969/12/31/18:00:17.894,(-1 0 -1 -3 3 0 -1 -1)
1969/12/31/18:00:17.901,(0 0 0 0 -1 -3 -1 1)
1969/12/31/18:00:17.901,(-2 0 -1 -5 -2 -2 -1 -2)
1969/12/31/18:00:17.916,(0 -2 -2 -4 -2 0 -2 0)
1969/12/31/18:00:17.916,(-2 -1 0 -4 -1 0 1 -2)
1969/12/31/18:00:17.923,(-2 -1 -1 -2 1 -1 -2 -1)
1969/12/31/18:00:17.923,(-1 -1 -1 -2 0 1 1 0)
1969/12/31/18:00:17.940,(-1 -1 -1 3 2 1 0 -1)
1969/12/31/18:00:17.940,(-1 -2 -1 -1 0 -2 -2 0)
1969/12/31/18:00:17.946,(-1 0 -1 0 0 -1 0 -1)
1969/12/31/18:00:17.946,(1 0 -1 -2 -1 -1 0 -2)
1969/12/31/18:00:17.954,(-1 -1 0 -1 -2 0 0 -1)
1969/12/31/18:00:17.954,(-2 -4 -5 0 -1 -2 -2 -3)
1969/12/31/18:00:17.961,(-1 -2 -2 -2 0 1 0 0)
1969/12/31/18:00:17.961,(-1 2 4 3 1 -2 -1 2)
1969/12/31/18:00:17.976,(-2 -1 -3 -2 -1 -3 -1 -1)
1969/12/31/18:00:17.976,(-1 -1 -3 -4 0 1 -2 -1)
1969/12/31/18:00:17.983,(1 0 1 -1 -2 0 -2 -2)
1969/12/31/18:00:17.983,(-2 -1 -1 -2 0 1 -2 -2)
1969/12/31/18:00:17.999,(-1 -1 -2 -3 -2 0 0 -1)
1969/12/31/18:00:17.999,(-2 1 1 0 0 -1 -1 0)
1969/12/31/18:00:18.001,(-1 -2 -3 -1 -1 -2 -1 0)
1969/12/31/18:00:18.001,(-2 -2 -4 -1 -3 -4 -1 -1)
1969/12/31/18:00:18.014,(-1 -2 -1 0 -1 -1 0 -1)
1969/12/31/18:00:18.014,(-1 -1 -2 -2 -3 0 1 -2)
1969/12/31/18:00:18.021,(-2 -1 -1 -4 -4 -1 0 -1)
1969/12/31/18:00:18.021,(0 0 -2 -2 -1 0 -1 -1)
