time,.data
1969/12/31/18:00:16.595,(4 4 2 29 1 1 5 4)
1969/12/31/18:00:16.595,(-1 -5 -12 9 -10 -11 -2 0)
1969/12/31/18:00:16.604,(-2 0 2 15 19 -2 -1 0)
1969/12/31/18:00:16.604,(-4 -8 -17 -10 -8 -4 -2 -2)
1969/12/31/18:00:16.619,(2 1 0 -40 -21 -1 1 1)
1969/12/31/18:00:16.619,(2 3 20 63 33 5 1 2)
1969/12/31/18:00:16.625,(-1 -4 1 -10 8 -3 -3 -3)
1969/12/31/18:00:16.625,(-6 -7 -5 12 -12 -5 -2 -3)
1969/12/31/18:00:16.649,(3 1 3 19 3 -1 2 3)
1969/12/31/18:00:16.649,(-1 -2 -9 -36 -12 -5 -3 -1)
1969/12/31/18:00:16.651,(-2 -1 -7 -12 -4 -3 -1 -3)
1969/12/31/18:00:16.651,(-4 -2 0 20 3 -1 -1 -6)
1969/12/31/18:00:16.655,(-1 -2 0 17 3 -2 -1 -3)
1969/12/31/18:00:16.655,(-1 -1 -2 -46 -16 -6 -1 -1)
1969/12/31/18:00:16.664,(3 1 -1 21 21 3 2 4)
1969/12/31/18:00:16.664,(-1 1 2 26 9 2 2 -1)
1969/12/31/18:00:16.679,(-1 0 3 1 -1 -1 1 1)
1969/12/31/18:00:16.679,(-1 -4 -11 -31 -14 -3 -1 -1)
1969/12/31/18:00:16.685,(1 -3 -6 -17 -2 1 -1 1)
1969/12/31/18:00:16.685,(1 4 18 57 11 7 2 -1)
1969/12/31/18:00:16.709,(-1 -2 -2 4 4 -1 -1 0)
1969/12/31/18:00:16.709,(-5 -3 -3 -2 -1 -4 -4 -3)
1969/12/31/18:00:16.711,(2 3 1 -4 0 -1 0 1)
1969/12/31/18:00:16.711,(-1 -3 -5 -21 -7 0 -2 0)
1969/12/31/18:00:16.724,(1 0 -1 -6 -4 2 1 0)
1969/12/31/18:00:16.724,(0 -2 -2 9 1 2 -2 -1)
1969/12/31/18:00:16.726,(-1 1 -1 -15 -3 1 0 1)
1969/12/31/18:00:16.726,(1 0 -1 5 -1 1 1 1)
1969/12/31/18:00:16.739,(2 3 3 0 4 2 1 -1)
1969/12/31/18:00:16.739,(-1 -1 -2 -13 -1 0 0 0)
1969/12/31/18:00:16.745,(-1 0 1 11 -4 1 1 -3)
1969/12/31/18:00:16.745,(-3 -2 1 7 12 1 -2 0)
1969/12/31/18:00:16.762,(2 0 0 -6 -1 2 -1 0)
1969/12/31/18:00:16.762,(-1 0 -2 -9 -1 1 -2 -2)
1969/12/31/18:00:16.763,(1 1 0 -6 -1 2 0 1)
1969/12/31/18:00:16.763,(-2 1 2 -1 -3 1 -2 -2)
1969/12/31/18:00:16.784,(2 3 1 -1 0 1 0 1)
1969/12/31/18:00:16.784,(-2 -2 -1 -7 -2 -2 -1 1)
1969/12/31/18:00:16.786,(-1 -2 1 8 2 -2 0 -1)
1969/12/31/18:00:16.786,(3 2 -3 -8 -2 -3 2 2)
1969/12/31/18:00:16.799,(-9 -6 -5 -2 -3 -3 -5 -7)
1969/12/31/18:00:16.799,(6 2 -1 -7 -6 0 1 2)
1969/12/31/18:00:16.805,(-3 -3 1 16 12 1 -2 -2)
1969/12/31/18:00:16.805,(4 0 -3 -15 -4 1 2 3)
1969/12/31/18:00:16.822,(0 0 -4 -15 -24 -5 -1 0)
1969/12/31/18:00:16.822,(-3 -1 -1 -4 12 0 -1 -3)
1969/12/31/18:00:16.824,(2 2 11 31 16 6 1 -2)
1969/12/31/18:00:16.824,(2 2 10 37 13 5 0 1)
1969/12/31/18:00:16.852,(-2 -2 -2 12 3 1 -1 -2)
1969/12/31/18:00:16.852,(3 -1 -7 -17 -14 -2 1 0)
1969/12/31/18:00:16.854,(-3 -5 -10 -32 -13 -4 -3 -1)
1969/12/31/18:00:16.854,(-6 -2 -5 -21 -9 -3 0 -5)
1969/12/31/18:00:16.858,(3 1 3 1 2 0 0 -2)
1969/12/31/18:00:16.858,(10 4 2 5 1 0 3 7)
1969/12/31/18:00:16.867,(1 -9 -7 -8 -5 -5 -1 9)
1969/12/31/18:00:16.867,(-2 13 15 9 8 12 4 -7)
1969/12/31/18:00:16.882,(-11 -15 -8 -6 -3 -11 -12 -11)
1969/12/31/18:00:16.882,(-6 -3 -1 -11 0 1 1 -1)
1969/12/31/18:00:16.883,(2 3 -1 11 -2 -1 0 0)
1969/12/31/18:00:16.883,(5 -3 -3 -7 -4 -3 6 12)
1969/12/31/18:00:16.904,(-5 0 0 -17 -12 -2 -3 -3)
1969/12/31/18:00:16.904,(-3 -1 0 4 5 0 0 -3)
1969/12/31/18:00:16.905,(4 1 7 32 11 2 4 5)
1969/12/31/18:00:16.906,(-8 -7 -8 -16 -6 -1 -2 -7)
1969/12/31/18:00:16.918,(13 10 5 10 7 2 -1 -1)
1969/12/31/18:00:16.918,(-7 -6 -5 -8 -7 -5 1 10)
1969/12/31/18:00:16.927,(1 7 1 -25 -16 -8 -14 -16)
1969/12/31/18:00:16.927,(2 -3 -3 11 3 -4 -7 -3)
1969/12/31/18:00:16.942,(-18 -5 -23 -61 -14 0 1 -7)
1969/12/31/18:00:16.942,(0 -7 -6 0 -10 -5 -3 -2)
1969/12/31/18:00:16.943,(-5 5 24 62 31 7 4 -1)
1969/12/31/18:00:16.943,(1 0 12 36 13 -2 -3 0)
1969/12/31/18:00:16.988,(5 2 6 11 4 -2 -1 5)
1969/12/31/18:00:16.988,(-10 -4 -6 -21 -7 -2 -6 -8)
1969/12/31/18:00:16.990,(4 -2 -11 -28 -16 -3 3 3)
1969/12/31/18:00:16.990,(-2 -9 -12 -23 -10 -5 -6 -4)
1969/12/31/18:00:16.990,(-1 2 -9 -39 -11 1 11 12)
1969/12/31/18:00:16.990,(-2 0 7 36 6 0 2 -3)
1969/12/31/18:00:16.994,(-50 -7 10 10 5 -5 -10 -13)
1969/12/31/18:00:16.994,(66 14 4 13 12 16 25 37)
1969/12/31/18:00:17.001,(-9 -7 5 22 9 -3 -11 -5)
1969/12/31/18:00:17.001,(-13 -9 -9 -18 -10 -6 -11 -15)
1969/12/31/18:00:17.003,(7 3 -8 -17 -8 1 7 2)
1969/12/31/18:00:17.003,(-18 -11 -27 -45 -20 -14 -10 -8)
1969/12/31/18:00:17.024,(11 4 -2 -15 0 3 8 12)
1969/12/31/18:00:17.024,(12 10 28 67 6 5 5 5)
1969/12/31/18:00:17.026,(-7 -3 20 67 29 4 0 -4)
1969/12/31/18:00:17.026,(-7 6 13 9 9 1 -1 -1)
1969/12/31/18:00:17.038,(9 -3 -2 13 6 -1 -1 0)
1969/12/31/18:00:17.038,(-12 -6 -19 -50 -12 -8 -9 -8)
1969/12/31/18:00:17.047,(14 -2 -30 -72 -38 -3 6 6)
1969/12/31/18:00:17.047,(-6 1 17 42 7 -1 -1 -5)
1969/12/31/18:00:17.061,(-4 4 13 19 16 5 1 -2)
1969/12/31/18:00:17.061,(4 6 7 -4 -3 1 1 1)
1969/12/31/18:00:17.063,(8 -3 -26 -62 -8 -4 -1 4)
1969/12/31/18:00:17.063,(-5 -3 5 37 2 0 0 -2)
1969/12/31/18:00:17.084,(-11 -2 16 54 12 -2 -6 -8)
1969/12/31/18:00:17.084,(16 1 1 6 5 4 5 11)
1969/12/31/18:00:17.086,(-11 -3 2 -22 1 7 2 -10)
1969/12/31/18:00:17.086,(-15 -12 -21 -47 -22 -12 -9 -5)
1969/12/31/18:00:17.098,(-12 1 4 5 3 2 0 -4)
1969/12/31/18:00:17.098,(20 14 2 0 2 1 -3 -6)
1969/12/31/18:00:17.107,(11 0 -2 -2 -4 -1 1 7)
1969/12/31/18:00:17.107,(-6 -3 -5 -23 -11 -7 -5 -4)
1969/12/31/18:00:17.121,(-6 -7 -7 -10 -9 0 -2 1)
1969/12/31/18:00:17.121,(-2 -5 -14 -20 14 4 1 4)
1969/12/31/18:00:17.123,(6 6 24 65 11 6 3 5)
1969/12/31/18:00:17.123,(-2 3 15 21 12 8 2 -2)
1969/12/31/18:00:17.152,(8 -2 -5 -8 -7 -3 -2 -2)
1969/12/31/18:00:17.152,(-5 8 -5 -18 -12 1 12 6)
1969/12/31/18:00:17.153,(-3 -13 -14 -37 -1 -2 -3 -3)
1969/12/31/18:00:17.153,(-19 -6 -5 5 -4 -4 -7 -8)
1969/12/31/18:00:17.167,(-2 1 6 15 7 1 -1 -4)
1969/12/31/18:00:17.167,(32 14 3 9 0 0 1 15)
1969/12/31/18:00:17.168,(3 2 -4 -29 -22 -7 -3 -2)
1969/12/31/18:00:17.168,(-2 -3 -13 -45 -6 -3 -1 -3)
1969/12/31/18:00:17.181,(-2 -10 -26 -51 -22 -6 0 4)
1969/12/31/18:00:17.181,(-9 -3 23 77 -2 0 0 -2)
1969/12/31/18:00:17.183,(0 10 35 103 62 15 7 2)
1969/12/31/18:00:17.183,(3 10 33 64 36 11 -2 -5)
1969/12/31/18:00:17.204,(8 5 3 2 15 6 5 1)
1969/12/31/18:00:17.204,(-12 -15 -28 -73 -23 -8 -6 -5)
1969/12/31/18:00:17.205,(-3 -9 -19 -38 -33 -14 -10 -4)
1969/12/31/18:00:17.205,(32 29 -4 -16 -1 11 20 23)
1969/12/31/18:00:17.219,(-8 -15 -7 -6 -5 -10 -9 -6)
1969/12/31/18:00:17.219,(-5 0 5 -6 4 5 6 1)
1969/12/31/18:00:17.227,(-13 -10 -5 -9 -10 -9 -10 -13)
1969/12/31/18:00:17.227,(9 0 -8 -42 -16 -2 4 7)
1969/12/31/18:00:17.249,(-7 -1 -5 -31 -2 7 11 5)
1969/12/31/18:00:17.249,(23 11 4 48 9 -1 -2 2)
1969/12/31/18:00:17.251,(-16 -4 -1 -10 1 3 -1 -3)
1969/12/31/18:00:17.251,(15 0 1 28 5 -2 -6 1)
1969/12/31/18:00:17.265,(12 12 17 31 8 3 3 9)
1969/12/31/18:00:17.265,(-18 -14 -8 -23 -8 -3 -5 -8)
1969/12/31/18:00:17.266,(1 2 -10 -29 -8 -2 4 3)
1969/12/31/18:00:17.266,(-8 -6 0 2 -6 -7 -6 -6)
1969/12/31/18:00:17.278,(4 -1 -11 -23 -14 -4 -2 1)
1969/12/31/18:00:17.278,(-8 -1 6 15 16 1 1 -3)
1969/12/31/18:00:17.287,(12 5 12 29 5 2 -3 -3)
1969/12/31/18:00:17.287,(-16 -8 -2 -3 1 -2 -5 -10)
1969/12/31/18:00:17.302,(9 3 -1 7 1 1 4 5)
1969/12/31/18:00:17.302,(-6 -7 -13 -19 0 0 -2 -2)
1969/12/31/18:00:17.304,(3 -2 -11 -74 -23 -5 0 1)
1969/12/31/18:00:17.304,(-6 -4 4 46 -13 -3 -1 -2)
1969/12/31/18:00:17.324,(-15 -4 14 52 28 -1 -7 -12)
1969/12/31/18:00:17.324,(7 3 4 2 8 3 2 0)
1969/12/31/18:00:17.326,(9 1 -3 2 1 -1 -3 6)
1969/12/31/18:00:17.326,(5 10 1 -20 1 5 4 -4)
1969/12/31/18:00:17.338,(-3 -6 -22 -42 -21 -8 -4 -3)
1969/12/31/18:00:17.338,(-7 -4 15 44 2 -2 -2 -1)
1969/12/31/18:00:17.347,(3 3 13 43 11 1 0 2)
1969/12/31/18:00:17.347,(-16 -11 -1 -17 7 5 6 1)
1969/12/31/18:00:17.362,(22 14 2 9 -1 3 2 8)
1969/12/31/18:00:17.362,(-17 -6 -10 -57 -9 -4 -6 -15)
1969/12/31/18:00:17.363,(2 -2 -10 6 -4 -2 -2 2)
1969/12/31/18:00:17.363,(-14 -9 -10 -20 -10 -7 -4 -6)
1969/12/31/18:00:17.392,(16 10 14 8 11 10 13 13)
1969/12/31/18:00:17.392,(-2 -6 -3 7 -3 -3 -1 2)
1969/12/31/18:00:17.393,(-35 -8 1 -8 -2 -1 -5 -14)
1969/12/31/18:00:17.393,(26 6 -1 30 8 -1 -5 -4)
1969/12/31/18:00:17.398,(-9 -5 6 12 3 0 -1 -7)
1969/12/31/18:00:17.398,(-26 -10 -11 -23 -9 -7 -3 -8)
1969/12/31/18:00:17.407,(43 25 -3 -7 -4 7 13 25)
1969/12/31/18:00:17.407,(6 0 -4 -34 -5 -1 -1 -1)
1969/12/31/18:00:17.421,(-7 -7 0 23 -1 -8 -5 -1)
1969/12/31/18:00:17.421,(-8 -4 16 32 10 2 -3 -8)
1969/12/31/18:00:17.423,(-40 -15 -3 -3 5 0 -7 -16)
1969/12/31/18:00:17.423,(42 24 -5 -28 -4 3 11 25)
1969/12/31/18:00:17.444,(-6 -3 -3 13 -11 -7 -12 -12)
1969/12/31/18:00:17.444,(0 2 -11 -13 3 2 4 10)
1969/12/31/18:00:17.446,(17 8 11 25 5 1 -4 -6)
1969/12/31/18:00:17.446,(-10 -11 -4 -6 -7 -4 -4 3)
1969/12/31/18:00:17.458,(-6 -4 3 -9 -1 -2 -5 -9)
1969/12/31/18:00:17.458,(-30 -17 -1 16 2 -6 -11 -22)
1969/12/31/18:00:17.466,(68 36 2 -4 0 9 21 40)
1969/12/31/18:00:17.466,(-15 -3 -4 -4 -3 -2 -2 -5)
1969/12/31/18:00:17.481,(7 -2 -3 -13 -4 0 -1 2)
1969/12/31/18:00:17.481,(10 6 -3 -12 -4 -5 -5 -3)
1969/12/31/18:00:17.488,(-21 -4 4 10 0 -3 -4 -14)
1969/12/31/18:00:17.488,(-6 -14 -5 -9 -5 -3 1 5)
1969/12/31/18:00:17.504,(-5 -4 2 13 6 5 6 -6)
1969/12/31/18:00:17.504,(7 8 3 -11 2 2 8 14)
1969/12/31/18:00:17.505,(-50 -38 -17 -15 -10 -18 -26 -30)
1969/12/31/18:00:17.505,(-44 -15 4 9 -5 -8 -11 -19)
1969/12/31/18:00:17.543,(75 51 2 -8 -1 1 -1 3)
1969/12/31/18:00:17.543,(-7 -6 -2 20 -1 0 -5 -10)
1969/12/31/18:00:17.544,(13 -5 -17 -37 -9 3 11 12)
1969/12/31/18:00:17.544,(-7 1 12 50 19 4 -3 -2)
1969/12/31/18:00:17.545,(-75 -51 4 9 5 0 -1 -8)
1969/12/31/18:00:17.545,(91 51 -11 -32 -6 5 13 30)
1969/12/31/18:00:17.549,(-29 -7 18 44 3 -7 -19 -31)
1969/12/31/18:00:17.549,(5 -4 -11 -38 -9 -5 -1 4)
1969/12/31/18:00:17.564,(4 2 3 18 4 10 11 18)
1969/12/31/18:00:17.564,(-12 -12 2 3 -1 -6 -10 -15)
1969/12/31/18:00:17.565,(-29 -10 2 -13 4 6 9 6)
1969/12/31/18:00:17.565,(69 41 1 0 6 14 23 29)
1969/12/31/18:00:17.578,(-32 -34 -13 -17 -8 -13 -18 -18)
1969/12/31/18:00:17.578,(-84 -40 -8 -11 -7 -3 -2 -14)
1969/12/31/18:00:17.586,(75 41 0 -2 -4 -6 -8 1)
1969/12/31/18:00:17.586,(-2 -2 7 8 -2 -3 -6 -5)
1969/12/31/18:00:17.609,(27 28 -11 -21 -10 -11 -11 1)
1969/12/31/18:00:17.609,(-18 -19 5 11 6 8 8 2)
1969/12/31/18:00:17.611,(-26 -25 -5 5 2 1 -1 -2)
1969/12/31/18:00:17.611,(-24 -3 3 -12 -3 4 1 -11)
1969/12/31/18:00:17.624,(-25 -13 3 28 2 -2 0 -5)
1969/12/31/18:00:17.624,(6 6 8 18 11 4 2 4)
1969/12/31/18:00:17.625,(3 -1 -1 -22 3 3 5 7)
1969/12/31/18:00:17.625,(17 14 -1 1 -8 -9 -11 -15)
1969/12/31/18:00:17.637,(23 24 15 10 9 15 25 32)
1969/12/31/18:00:17.638,(-90 -56 -5 15 -5 -12 -23 -48)
1969/12/31/18:00:17.646,(89 63 7 -2 7 18 29 40)
1969/12/31/18:00:17.646,(-29 -39 -21 -20 -13 -17 -16 -8)
1969/12/31/18:00:17.669,(10 10 -2 -16 -9 -9 -13 -10)
1969/12/31/18:00:17.669,(-10 -22 -3 0 3 -3 -3 2)
1969/12/31/18:00:17.671,(-7 13 0 -1 -1 6 13 3)
1969/12/31/18:00:17.671,(13 11 0 -4 8 14 13 11)
1969/12/31/18:00:17.684,(8 7 5 9 2 -2 -2 -1)
1969/12/31/18:00:17.684,(1 -3 2 -6 -2 -4 -5 -2)
1969/12/31/18:00:17.685,(-26 -21 -2 2 -4 -6 -3 -9)
1969/12/31/18:00:17.685,(14 -8 -8 -7 -4 2 9 13)
1969/12/31/18:00:17.707,(-33 -8 11 19 6 2 -11 -42)
1969/12/31/18:00:17.707,(63 46 9 6 6 4 11 44)
1969/12/31/18:00:17.708,(-16 -24 0 11 -2 -12 -19 -19)
1969/12/31/18:00:17.708,(-21 -12 -9 -12 -8 -11 -8 -7)
1969/12/31/18:00:17.721,(35 12 -5 -18 -3 5 13 23)
1969/12/31/18:00:17.721,(4 6 -1 -22 -10 2 3 -4)
1969/12/31/18:00:17.728,(-3 -4 -8 16 6 -4 -4 -6)
1969/12/31/18:00:17.728,(-25 -18 6 8 9 6 5 2)
1969/12/31/18:00:17.744,(-52 -18 2 -5 -1 2 3 -5)
1969/12/31/18:00:17.744,(97 58 4 -9 -8 -2 3 20)
1969/12/31/18:00:17.745,(16 7 -3 -7 6 11 11 15)
1969/12/31/18:00:17.745,(-17 -5 10 20 7 -3 -11 -19)
1969/12/31/18:00:17.766,(-7 -1 1 -18 3 9 14 16)
1969/12/31/18:00:17.766,(8 -5 -3 20 0 -1 0 9)
1969/12/31/18:00:17.768,(-1 -9 -3 -11 -4 0 -4 -5)
1969/12/31/18:00:17.768,(-25 9 1 -11 -9 -8 -14 -22)
1969/12/31/18:00:17.781,(23 4 0 3 2 -1 5 7)
1969/12/31/18:00:17.781,(-17 -14 0 -2 1 1 3 -4)
1969/12/31/18:00:17.787,(51 18 -4 -18 -5 -2 8 20)
1969/12/31/18:00:17.788,(-28 -14 -7 -13 -12 -16 -16 -24)
1969/12/31/18:00:17.811,(21 2 -18 -34 11 5 10 18)
1969/12/31/18:00:17.811,(-32 -14 12 46 -2 -1 -4 -15)
1969/12/31/18:00:17.813,(-48 -20 26 54 19 3 -6 -17)
1969/12/31/18:00:17.813,(49 22 -5 -8 8 12 16 28)
1969/12/31/18:00:17.827,(-26 -6 -1 -3 -2 4 -2 -15)
1969/12/31/18:00:17.827,(-27 -12 -10 -18 -8 -10 -14 -26)
1969/12/31/18:00:17.828,(0 -6 -5 -11 6 11 15 19)
1969/12/31/18:00:17.828,(10 -21 8 11 3 5 8 20)
1969/12/31/18:00:17.840,(19 32 -12 0 -8 -8 -10 -5)
1969/12/31/18:00:17.840,(57 25 0 -4 6 2 0 2)
1969/12/31/18:00:17.849,(-53 -41 -1 -1 -14 -7 -9 -19)
1969/12/31/18:00:17.849,(52 51 7 4 10 12 18 36)
1969/12/31/18:00:17.864,(-53 -42 -7 1 -18 -29 -42 -44)
1969/12/31/18:00:17.864,(-6 2 7 6 13 14 14 14)
1969/12/31/18:00:17.866,(18 3 -17 -20 -13 -8 -6 7)
1969/12/31/18:00:17.866,(-5 -5 1 6 -3 3 6 3)
1969/12/31/18:00:17.887,(9 -7 -9 -17 -8 1 4 6)
1969/12/31/18:00:17.887,(6 12 5 -21 -10 -9 -8 -2)
1969/12/31/18:00:17.889,(-21 -2 6 12 -15 -21 -17 -22)
1969/12/31/18:00:17.889,(-41 -20 6 36 10 10 -1 -10)
1969/12/31/18:00:17.900,(21 11 9 8 23 26 20 16)
1969/12/31/18:00:17.900,(36 23 -1 -13 14 7 1 24)
1969/12/31/18:00:17.909,(-42 -15 -8 -5 6 -21 -60 -51)
1969/12/31/18:00:17.909,(27 31 -18 -19 -10 -5 11 -2)
1969/12/31/18:00:17.924,(-24 -15 8 12 -7 7 35 -7)
1969/12/31/18:00:17.924,(70 30 -2 0 -2 23 45 73)
1969/12/31/18:00:17.926,(4 7 -5 -14 -17 -15 -10 -6)
1969/12/31/18:00:17.926,(-31 -24 -7 -9 -19 -33 -49 -35)
1969/12/31/18:00:17.954,(2 3 3 9 -1 -13 -19 -4)
1969/12/31/18:00:17.954,(-35 -18 -6 4 7 0 4 -15)
1969/12/31/18:00:17.956,(1 0 3 -2 -14 -5 1 7)
1969/12/31/18:00:17.956,(2 5 -3 -15 -1 1 -1 -8)
1969/12/31/18:00:17.961,(14 3 1 2 10 11 12 18)
1969/12/31/18:00:17.961,(-23 -11 7 23 4 -4 -12 -16)
1969/12/31/18:00:17.969,(16 18 13 17 20 20 16 12)
1969/12/31/18:00:17.969,(-33 -28 -11 -11 -10 -7 -9 -16)
1969/12/31/18:00:17.984,(16 19 0 -13 -8 -5 -8 0)
1969/12/31/18:00:17.984,(-73 -62 -4 -4 -15 -19 -26 -41)
1969/12/31/18:00:17.986,(115 102 11 6 22 37 63 97)
1969/12/31/18:00:17.986,(-108 -62 -10 -3 -9 -17 -21 -53)
1969/12/31/18:00:18.007,(78 56 -1 3 8 10 6 46)
1969/12/31/18:00:18.007,(-12 -3 -8 -4 8 8 -6 -26)
1969/12/31/18:00:18.008,(-20 -20 2 -1 -2 -1 5 -8)
1969/12/31/18:00:18.008,(14 9 12 1 -6 -3 0 6)
1969/12/31/18:00:18.020,(-24 -20 -9 -11 -6 -8 -8 -8)
1969/12/31/18:00:18.020,(16 20 4 12 20 15 16 17)
1969/12/31/18:00:18.035,(20 -9 -9 -9 -15 2 8 11)
1969/12/31/18:00:18.035,(8 15 17 29 24 4 -2 4)
1969/12/31/18:00:18.044,(-42 -35 1 11 -8 -9 -16 -22)
1969/12/31/18:00:18.044,(-33 -30 -5 -11 -1 0 6 0)
1969/12/31/18:00:18.045,(-60 -35 -27 -25 -20 -23 -27 -45)
1969/12/31/18:00:18.045,(33 32 -4 -17 -23 -26 -24 -10)
1969/12/31/18:00:18.067,(12 0 7 5 -4 1 15 28)
1969/12/31/18:00:18.067,(-45 -36 -22 -17 -27 -46 -60 -63)
1969/12/31/18:00:18.068,(4 -1 5 12 17 20 24 23)
1969/12/31/18:00:18.068,(30 12 8 4 5 12 14 20)
1969/12/31/18:00:18.089,(-6 9 0 -1 6 14 4 0)
1969/12/31/18:00:18.089,(13 16 -6 -17 -10 -4 -6 6)
1969/12/31/18:00:18.091,(-34 -27 -9 -14 1 -11 -18 -28)
1969/12/31/18:00:18.091,(2 3 11 17 -4 -1 6 6)
1969/12/31/18:00:18.104,(27 5 9 40 26 22 32 33)
1969/12/31/18:00:18.104,(7 4 10 11 -14 -11 2 3)
1969/12/31/18:00:18.106,(11 18 5 -3 1 -12 -6 -4)
1969/12/31/18:00:18.106,(-81 -63 -12 1 17 -8 -21 -43)
1969/12/31/18:00:18.127,(-60 -40 -8 9 23 20 14 6)
1969/12/31/18:00:18.127,(-3 27 -6 -9 -3 -1 -18 -38)
1969/12/31/18:00:18.128,(-10 -8 -7 -14 -11 0 5 7)
1969/12/31/18:00:18.128,(7 1 -7 -18 -13 1 1 -5)
1969/12/31/18:00:18.140,(-103 -58 -5 -7 -19 -27 -31 -46)
1969/12/31/18:00:18.140,(63 34 4 0 1 7 19 35)
1969/12/31/18:00:18.149,(-5 -12 0 3 -2 -1 -3 -4)
1969/12/31/18:00:18.149,(23 11 -2 -4 -12 8 8 11)
1969/12/31/18:00:18.164,(19 12 2 -15 -30 -20 -17 -13)
1969/12/31/18:00:18.164,(4 -3 0 3 12 1 8 13)
1969/12/31/18:00:18.165,(-5 -6 5 16 31 22 9 1)
1969/12/31/18:00:18.165,(18 21 0 18 34 23 10 6)
1969/12/31/18:00:18.186,(55 59 30 15 18 30 35 40)
1969/12/31/18:00:18.186,(-37 -19 -10 -22 -25 -22 -19 -22)
1969/12/31/18:00:18.188,(-18 -22 -6 0 -9 -15 -18 -22)
1969/12/31/18:00:18.188,(-25 -20 -7 -1 -2 0 -2 -9)
1969/12/31/18:00:18.200,(69 51 11 3 10 11 15 22)
1969/12/31/18:00:18.200,(9 4 4 5 -3 -3 -2 9)
1969/12/31/18:00:18.209,(-20 -5 2 0 -7 -3 2 -6)
1969/12/31/18:00:18.209,(22 5 -4 -4 2 5 11 17)
1969/12/31/18:00:18.232,(-31 -27 -22 -32 -30 -32 -38 -43)
1969/12/31/18:00:18.232,(30 22 11 4 20 31 35 39)
1969/12/31/18:00:18.233,(19 10 2 9 0 0 0 5)
1969/12/31/18:00:18.234,(0 3 20 38 2 1 6 10)
1969/12/31/18:00:18.246,(-22 -18 2 15 -6 -18 -27 -34)
1969/12/31/18:00:18.246,(-26 -19 5 7 17 5 2 -3)
1969/12/31/18:00:18.248,(55 63 1 -14 6 13 23 38)
1969/12/31/18:00:18.248,(30 13 -3 -16 -5 -4 -6 -2)
1969/12/31/18:00:18.260,(-10 -18 -12 -6 -6 -2 -4 -6)
1969/12/31/18:00:18.260,(-10 -17 -9 -10 -6 5 11 -5)
1969/12/31/18:00:18.269,(-113 -106 -20 -16 -19 -25 -28 -25)
1969/12/31/18:00:18.269,(3 18 -3 -16 -6 -1 -4 -15)
1969/12/31/18:00:18.284,(-9 -13 -24 -54 -56 -20 -9 -7)
1969/12/31/18:00:18.284,(-2 2 3 6 15 -9 -8 -1)
1969/12/31/18:00:18.286,(-4 -7 16 41 21 13 1 -10)
1969/12/31/18:00:18.286,(18 13 17 40 37 29 25 29)
1969/12/31/18:00:18.306,(-5 -11 3 14 10 -2 -9 -11)
1969/12/31/18:00:18.306,(-4 -8 -14 -22 -22 -2 2 -3)
1969/12/31/18:00:18.308,(0 1 -14 -36 -35 -18 -14 -14)
1969/12/31/18:00:18.308,(10 8 3 -10 0 -4 5 15)
1969/12/31/18:00:18.320,(-11 7 1 18 13 -4 -6 -11)
1969/12/31/18:00:18.320,(46 32 32 38 32 32 37 61)
1969/12/31/18:00:18.329,(-19 -9 -1 3 3 -5 -11 -19)
1969/12/31/18:00:18.329,(3 -7 -10 -24 -18 -11 -11 -5)
1969/12/31/18:00:18.343,(-21 -14 -13 -21 -10 -12 -14 -20)
1969/12/31/18:00:18.343,(-21 -9 0 -3 -7 -5 -6 -8)
1969/12/31/18:00:18.375,(25 2 5 7 17 22 29 33)
1969/12/31/18:00:18.375,(-8 -10 -7 -6 -2 4 3 2)
1969/12/31/18:00:18.375,(-3 -12 1 -11 -4 -5 -3 -2)
1969/12/31/18:00:18.375,(8 5 -15 -37 -4 1 2 1)
1969/12/31/18:00:18.377,(30 31 14 41 -4 -1 1 5)
1969/12/31/18:00:18.377,(-3 2 19 40 29 16 15 11)
1969/12/31/18:00:18.380,(11 2 11 28 16 2 -2 3)
1969/12/31/18:00:18.380,(-16 -7 -7 -15 -11 -1 3 2)
1969/12/31/18:00:18.389,(24 8 -9 -32 -11 -3 1 6)
1969/12/31/18:00:18.389,(66 43 -4 -15 -11 -4 11 31)
1969/12/31/18:00:18.403,(-20 -24 -16 -6 -2 -11 -14 -19)
1969/12/31/18:00:18.403,(75 47 14 9 10 22 35 52)
1969/12/31/18:00:18.411,(-30 -27 -5 -7 3 3 -2 -10)
1969/12/31/18:00:18.411,(-24 -14 -3 -2 -5 -4 -5 -10)
1969/12/31/18:00:18.426,(5 -2 -6 -6 2 0 0 3)
1969/12/31/18:00:18.426,(-34 -25 -8 0 -18 -24 -29 -40)
1969/12/31/18:00:18.427,(42 32 8 21 26 28 33 38)
1969/12/31/18:00:18.427,(-5 -1 -4 -14 -11 -10 -10 -10)
1969/12/31/18:00:18.449,(-2 0 -2 6 6 5 1 -2)
1969/12/31/18:00:18.449,(-33 -18 0 10 -9 -15 -20 -28)
1969/12/31/18:00:18.450,(-10 3 0 -4 -3 -8 -8 -14)
1969/12/31/18:00:18.450,(-19 -16 -5 -10 -9 -10 -4 -1)
1969/12/31/18:00:18.463,(14 12 4 10 16 21 25 18)
1969/12/31/18:00:18.463,(70 64 20 17 13 15 29 79)
1969/12/31/18:00:18.471,(-62 -19 -3 -8 -5 -8 -19 -45)
1969/12/31/18:00:18.471,(-46 -26 -5 -6 -8 -6 -7 -17)
1969/12/31/18:00:18.486,(0 6 5 5 -1 -5 -7 -5)
1969/12/31/18:00:18.486,(-39 -35 -19 -9 -12 -20 -23 -39)
1969/12/31/18:00:18.487,(6 5 2 2 -2 -3 -4 2)
1969/12/31/18:00:18.487,(0 -1 -3 -8 -5 -2 1 4)
1969/12/31/18:00:18.510,(7 5 6 4 8 11 10 10)
1969/12/31/18:00:18.510,(-20 -20 -13 -43 -24 -11 -10 -23)
1969/12/31/18:00:18.511,(14 6 2 14 1 0 6 11)
1969/12/31/18:00:18.511,(-18 -14 5 27 14 -1 -14 -25)
1969/12/31/18:00:18.523,(11 13 15 15 11 6 2 8)
1969/12/31/18:00:18.523,(-6 -2 -2 5 6 10 8 1)
1969/12/31/18:00:18.531,(1 -5 -7 -24 -26 -27 -28 -25)
1969/12/31/18:00:18.531,(13 9 -3 -27 -22 2 10 15)
1969/12/31/18:00:18.546,(-20 -20 -9 -9 -18 -13 -9 -11)
1969/12/31/18:00:18.546,(20 39 6 19 24 8 12 15)
1969/12/31/18:00:18.547,(13 16 13 9 26 15 6 8)
1969/12/31/18:00:18.547,(-14 -9 0 13 18 14 3 -3)
1969/12/31/18:00:18.568,(-11 -8 -4 -15 -24 -14 -15 -15)
1969/12/31/18:00:18.568,(-23 -22 -3 3 -11 -4 -3 -16)
1969/12/31/18:00:18.569,(3 -2 -4 -4 -7 -7 2 9)
1969/12/31/18:00:18.569,(2 1 -6 -9 1 -1 0 1)
1969/12/31/18:00:18.583,(-1 7 5 -3 -7 0 -2 1)
1969/12/31/18:00:18.583,(-6 -11 2 13 21 9 2 -3)
1969/12/31/18:00:18.584,(13 8 5 12 12 8 5 6)
1969/12/31/18:00:18.584,(-26 -29 -7 -6 -3 -6 -9 -12)
1969/12/31/18:00:18.606,(20 31 -10 -11 -8 -5 -1 4)
1969/12/31/18:00:18.606,(-47 -19 -6 0 -2 2 -7 -22)
1969/12/31/18:00:18.607,(-5 -2 -2 -10 -15 -10 -11 -7)
1969/12/31/18:00:18.607,(-6 -1 -1 -9 -13 -13 -11 -14)
1969/12/31/18:00:18.653,(5 -6 -6 2 13 10 14 14)
1969/12/31/18:00:18.653,(11 1 2 5 -2 2 2 4)
1969/12/31/18:00:18.654,(1 5 0 -4 -1 2 2 -2)
1969/12/31/18:00:18.654,(7 -2 -3 2 7 6 12 22)
1969/12/31/18:00:18.655,(2 1 -5 -22 -3 -7 -5 0)
1969/12/31/18:00:18.656,(-4 -7 -3 -18 -25 -12 -10 -12)
1969/12/31/18:00:18.659,(-13 -12 4 22 7 -3 -2 -9)
1969/12/31/18:00:18.659,(22 21 23 46 45 18 10 10)
1969/12/31/18:00:18.666,(-4 -3 8 15 17 11 5 1)
1969/12/31/18:00:18.666,(-31 -36 -14 -16 -16 -12 -12 -9)
1969/12/31/18:00:18.667,(-41 -21 -10 -18 -15 -4 -8 -21)
1969/12/31/18:00:18.667,(10 14 -11 -23 -18 -6 2 2)
1969/12/31/18:00:18.688,(-25 -12 -9 -3 0 -6 -4 -15)
1969/12/31/18:00:18.689,(-17 -24 -1 1 -7 -11 -16 -23)
1969/12/31/18:00:18.689,(30 8 1 2 5 11 16 28)
1969/12/31/18:00:18.689,(9 11 5 2 2 6 11 15)
1969/12/31/18:00:18.703,(-73 -65 -6 -4 -8 -10 -17 -36)
1969/12/31/18:00:18.703,(120 102 20 20 14 23 34 66)
1969/12/31/18:00:18.711,(2 4 1 -5 -5 -10 -6 -2)
1969/12/31/18:00:18.711,(-27 -22 -11 -6 -5 -9 -14 -22)
1969/12/31/18:00:18.726,(27 11 0 -17 -3 10 16 27)
1969/12/31/18:00:18.726,(46 31 5 7 5 9 22 44)
1969/12/31/18:00:18.727,(21 22 -15 -56 -4 7 13 13)
1969/12/31/18:00:18.727,(14 -3 8 51 5 -5 -4 7)
1969/12/31/18:00:18.748,(-17 -7 5 22 -3 -1 -3 -9)
1969/12/31/18:00:18.748,(-8 5 39 102 28 6 -3 -5)
1969/12/31/18:00:18.749,(-34 -13 17 30 14 -2 -16 -30)
1969/12/31/18:00:18.749,(-13 4 -12 -52 -9 10 23 26)
1969/12/31/18:00:18.763,(12 9 -11 -23 -12 -4 -1 8)
1969/12/31/18:00:18.763,(-41 -28 -22 -49 -29 -22 -26 -34)
1969/12/31/18:00:18.787,(-4 -13 -15 -1 -4 -5 -3 -3)
1969/12/31/18:00:18.787,(-14 -7 6 -19 4 -3 -9 -13)
1969/12/31/18:00:18.789,(29 22 11 24 12 11 10 16)
1969/12/31/18:00:18.789,(-22 -18 -9 -38 -2 3 -2 -14)
1969/12/31/18:00:18.790,(-26 -20 7 25 -10 -11 -15 -17)
1969/12/31/18:00:18.790,(6 2 -2 5 -9 -6 -7 -6)
1969/12/31/18:00:18.808,(23 22 6 5 20 10 12 17)
1969/12/31/18:00:18.808,(-10 -16 -16 -33 -23 -6 -5 -11)
1969/12/31/18:00:18.809,(19 6 -19 -49 -34 -11 5 15)
1969/12/31/18:00:18.809,(-4 2 11 50 16 -2 -9 -10)
1969/12/31/18:00:18.824,(14 11 9 10 35 15 7 5)
1969/12/31/18:00:18.824,(-22 -11 7 41 41 6 -7 -14)
1969/12/31/18:00:18.824,(11 5 6 -11 -20 11 11 13)
1969/12/31/18:00:18.824,(2 0 -12 -14 -33 -13 -2 1)
1969/12/31/18:00:18.846,(-10 -5 6 -3 -4 -13 -10 -9)
1969/12/31/18:00:18.846,(0 -4 -7 0 16 10 7 3)
1969/12/31/18:00:18.846,(1 1 1 -1 8 -1 0 0)
1969/12/31/18:00:18.846,(1 -1 1 0 -9 -3 -3 -4)
1969/12/31/18:00:18.868,(3 -2 -25 -52 -20 -6 -2 1)
1969/12/31/18:00:18.868,(-4 -3 2 4 -4 -3 1 1)
1969/12/31/18:00:18.869,(12 12 18 43 17 7 7 12)
1969/12/31/18:00:18.869,(-9 -6 -9 -12 10 1 -5 -11)
1969/12/31/18:00:18.883,(8 9 10 9 -8 -1 -1 4)
1969/12/31/18:00:18.883,(-4 -5 -9 -17 -7 -3 -2 -5)
1969/12/31/18:00:18.891,(-5 -7 -2 -1 5 1 0 -1)
1969/12/31/18:00:18.891,(1 -3 -8 -31 -5 -3 -4 -3)
1969/12/31/18:00:18.922,(2 3 4 34 -3 -4 -3 -2)
1969/12/31/18:00:18.922,(-6 -7 3 15 8 2 0 -2)
1969/12/31/18:00:18.923,(8 8 8 18 13 8 6 6)
1969/12/31/18:00:18.923,(0 0 -1 -11 -6 -3 -3 -3)
1969/12/31/18:00:18.928,(-1 -4 -11 -18 -6 -2 1 -1)
1969/12/31/18:00:18.928,(-3 -1 -3 -15 -11 -6 -5 -5)
1969/12/31/18:00:18.929,(-3 -5 -18 -55 -4 -3 -4 -2)
1969/12/31/18:00:18.929,(5 3 5 41 1 2 4 6)
1969/12/31/18:00:18.943,(-2 0 16 25 2 -1 -1 0)
1969/12/31/18:00:18.943,(-3 -2 1 -1 4 1 0 -3)
1969/12/31/18:00:18.951,(-2 -2 -3 13 4 -2 -1 -3)
1969/12/31/18:00:18.951,(4 4 1 -27 -8 1 2 2)
1969/12/31/18:00:18.966,(1 1 3 23 2 -1 -1 0)
1969/12/31/18:00:18.966,(-3 -1 3 11 4 -1 -3 -3)
1969/12/31/18:00:18.967,(-2 -3 -14 -15 -3 -3 -3 -3)
1969/12/31/18:00:18.967,(4 1 -5 -16 -16 -2 4 3)
1969/12/31/18:00:18.988,(1 -1 7 22 10 3 1 0)
1969/12/31/18:00:18.988,(-3 -3 1 -20 -6 -3 -1 -4)
1969/12/31/18:00:18.989,(-5 -6 -7 18 4 -1 0 -4)
1969/12/31/18:00:18.989,(1 0 6 33 5 0 0 1)
1969/12/31/18:00:19.003,(-2 4 9 2 4 4 5 1)
1969/12/31/18:00:19.003,(-1 -4 -14 -14 -4 -2 -1 0)
1969/12/31/18:00:19.004,(7 -2 -28 -52 -15 -12 -3 3)
1969/12/31/18:00:19.004,(-9 -9 5 15 1 -8 -8 -7)
1969/12/31/18:00:19.026,(5 10 20 17 2 6 0 1)
1969/12/31/18:00:19.026,(-1 -2 -6 0 12 10 -1 -2)
1969/12/31/18:00:19.026,(0 0 16 37 -3 7 0 3)
1969/12/31/18:00:19.026,(1 6 8 -16 6 6 0 0)
1969/12/31/18:00:19.057,(-4 -3 -18 -28 -6 1 -2 -2)
1969/12/31/18:00:19.057,(1 3 2 -1 -2 0 3 2)
1969/12/31/18:00:19.057,(3 6 1 4 5 4 3 3)
1969/12/31/18:00:19.057,(1 0 -1 9 6 2 0 0)
1969/12/31/18:00:19.063,(-6 -2 5 -24 -13 -4 -2 -3)
1969/12/31/18:00:19.063,(-2 -4 -19 -16 -3 6 2 -1)
1969/12/31/18:00:19.064,(3 -3 9 69 22 -5 -3 0)
1969/12/31/18:00:19.064,(-15 -5 11 17 5 -7 -9 -11)
1969/12/31/18:00:19.094,(4 -2 -19 -46 -5 -6 -1 0)
1969/12/31/18:00:19.094,(1 8 26 -11 -14 -2 2 0)
1969/12/31/18:00:19.095,(4 3 3 28 10 9 4 2)
1969/12/31/18:00:19.095,(-2 -9 -16 -3 8 -1 -2 0)
1969/12/31/18:00:19.108,(-8 -2 13 -3 -4 -6 -3 -4)
1969/12/31/18:00:19.108,(-1 -6 -14 9 -8 -15 -4 -1)
1969/12/31/18:00:19.109,(-8 -10 -5 -30 -11 -14 -4 -6)
1969/12/31/18:00:19.109,(4 1 -7 14 9 0 2 2)
1969/12/31/18:00:19.132,(5 0 -3 12 1 -3 1 1)
1969/12/31/18:00:19.132,(2 5 15 14 -3 -2 -3 -1)
1969/12/31/18:00:19.133,(-2 3 6 -36 -9 3 -2 -2)
1969/12/31/18:00:19.133,(6 1 -18 -13 -7 11 4 4)
1969/12/31/18:00:19.146,(8 2 1 36 20 12 4 8)
1969/12/31/18:00:19.146,(-1 4 -2 -17 3 4 -3 -3)
1969/12/31/18:00:19.146,(-4 -4 -18 -64 -16 -5 -3 -2)
1969/12/31/18:00:19.146,(-5 5 22 -2 -18 5 1 -3)
1969/12/31/18:00:19.168,(9 16 19 102 58 18 7 6)
1969/12/31/18:00:19.168,(-4 -14 -9 -6 3 -2 -4 -1)
1969/12/31/18:00:19.169,(-8 -4 4 -13 -5 0 -2 -6)
1969/12/31/18:00:19.169,(0 -2 -21 -81 -24 -5 1 1)
1969/12/31/18:00:19.208,(1 2 5 -13 -18 -5 1 1)
1969/12/31/18:00:19.208,(1 1 2 50 15 -2 -1 0)
1969/12/31/18:00:19.209,(8 5 4 2 12 5 4 4)
1969/12/31/18:00:19.209,(-3 2 10 -4 1 2 -1 0)
1969/12/31/18:00:19.210,(-7 -8 -15 -29 -14 -5 -5 -7)
1969/12/31/18:00:19.210,(-2 6 3 -19 -6 -2 0 -2)
1969/12/31/18:00:19.213,(2 1 6 13 -1 5 2 2)
1969/12/31/18:00:19.213,(1 3 3 13 16 3 5 1)
1969/12/31/18:00:19.229,(-5 -2 -6 -21 -9 -4 -2 1)
1969/12/31/18:00:19.229,(7 -7 -13 -15 -15 -3 2 5)
1969/12/31/18:00:19.230,(-8 -2 4 18 17 2 -1 -4)
1969/12/31/18:00:19.230,(-5 6 20 40 14 0 -2 -4)
1969/12/31/18:00:19.252,(3 -15 -26 -27 -11 -8 -3 0)
1969/12/31/18:00:19.252,(-2 2 5 -5 -10 -10 -6 -1)
1969/12/31/18:00:19.252,(0 -8 -12 -4 -6 -5 -1 0)
1969/12/31/18:00:19.252,(-6 -8 -9 -33 -11 -4 -1 -5)
1969/12/31/18:00:19.266,(-7 -1 16 17 5 -1 -2 -7)
1969/12/31/18:00:19.266,(6 3 4 24 13 -2 0 1)
1969/12/31/18:00:19.267,(1 0 2 10 6 -1 1 -2)
1969/12/31/18:00:19.267,(1 -2 -6 3 -2 -8 -2 -1)
1969/12/31/18:00:19.297,(-7 -8 -12 -41 -30 -9 -3 -4)
1969/12/31/18:00:19.297,(-1 -4 1 4 5 1 -2 -2)
1969/12/31/18:00:19.297,(-11 6 19 25 6 1 -3 -8)
1969/12/31/18:00:19.298,(14 2 1 19 19 6 4 9)
1969/12/31/18:00:19.303,(7 2 -6 2 -1 0 0 4)
1969/12/31/18:00:19.303,(-8 1 0 -7 -8 -2 -3 -5)
1969/12/31/18:00:19.311,(8 -3 -10 -11 -10 -1 -1 5)
1969/12/31/18:00:19.311,(1 2 -5 -14 -10 -3 -1 0)
1969/12/31/18:00:19.341,(-2 -2 -5 -15 -7 -7 -2 -2)
1969/12/31/18:00:19.341,(-4 -2 8 11 5 1 -1 -2)
1969/12/31/18:00:19.350,(1 0 0 12 4 0 1 -2)
1969/12/31/18:00:19.351,(5 1 1 9 6 5 2 3)
1969/12/31/18:00:19.352,(-5 -4 -8 -6 -4 -5 -6 -3)
1969/12/31/18:00:19.352,(-4 -2 -5 -20 -15 1 -1 -1)
1969/12/31/18:00:19.353,(1 4 2 -32 -11 -2 -3 1)
1969/12/31/18:00:19.353,(1 0 7 46 12 5 1 2)
1969/12/31/18:00:19.363,(3 1 1 15 15 9 3 3)
1969/12/31/18:00:19.363,(-1 3 2 4 -3 4 4 -1)
1969/12/31/18:00:19.371,(-2 -6 -9 -1 -4 -3 -4 0)
1969/12/31/18:00:19.371,(4 6 10 -11 6 0 2 2)
1969/12/31/18:00:19.385,(-4 -5 -2 -8 -9 -5 -4 -3)
1969/12/31/18:00:19.386,(-1 -4 0 9 -6 -5 0 -1)
1969/12/31/18:00:19.386,(-1 -2 0 -2 12 0 -2 -2)
1969/12/31/18:00:19.387,(-3 -5 -8 -10 -10 -5 -3 -3)
1969/12/31/18:00:19.409,(0 3 3 9 4 4 1 1)
1969/12/31/18:00:19.409,(1 4 -4 -8 -3 3 2 2)
1969/12/31/18:00:19.410,(-3 4 7 2 -6 -2 0 -2)
1969/12/31/18:00:19.410,(0 2 -3 -7 -3 2 -3 -1)
1969/12/31/18:00:19.423,(-1 0 1 8 7 5 1 0)
1969/12/31/18:00:19.423,(-3 -2 -4 -9 -7 -6 -4 -3)
1969/12/31/18:00:19.431,(1 6 4 0 -2 2 3 3)
1969/12/31/18:00:19.431,(5 1 4 17 7 1 0 0)
1969/12/31/18:00:19.446,(-7 -9 -11 -24 -23 -14 -9 -6)
1969/12/31/18:00:19.446,(-3 -5 -5 1 10 1 0 0)
1969/12/31/18:00:19.446,(-1 1 9 -1 -6 2 1 0)
1969/12/31/18:00:19.446,(-1 -1 4 24 20 5 1 1)
1969/12/31/18:00:19.477,(4 3 7 9 11 7 4 1)
1969/12/31/18:00:19.477,(-2 -4 -2 0 -2 -2 1 0)
1969/12/31/18:00:19.478,(0 -1 -8 -8 -7 -5 -1 1)
1969/12/31/18:00:19.478,(-5 -7 -11 -24 -18 -8 -3 -3)
1969/12/31/18:00:19.492,(1 0 0 2 -2 -5 -2 -1)
1969/12/31/18:00:19.492,(1 0 1 0 6 -1 -1 -1)
1969/12/31/18:00:19.493,(2 -1 1 9 -2 0 3 2)
1969/12/31/18:00:19.493,(-1 -1 -5 -8 -5 -4 -2 -2)
1969/12/31/18:00:19.507,(0 -1 1 4 5 1 -1 -1)
1969/12/31/18:00:19.507,(-14 -12 13 10 2 1 -4 -8)
1969/12/31/18:00:19.507,(0 7 0 10 8 5 1 2)
1969/12/31/18:00:19.507,(16 10 -14 -20 -14 -3 5 8)
1969/12/31/18:00:19.530,(4 2 -7 -13 -5 -3 0 1)
1969/12/31/18:00:19.530,(9 4 -3 -9 -5 -4 3 7)
1969/12/31/18:00:19.532,(-7 -10 5 20 8 -1 -4 -6)
1969/12/31/18:00:19.532,(-7 -4 5 -3 2 -1 -3 -4)
1969/12/31/18:00:19.560,(0 2 2 2 2 0 1 -1)
1969/12/31/18:00:19.560,(-7 -3 1 2 1 -3 -5 -4)
1969/12/31/18:00:19.561,(-1 -1 2 8 1 0 -2 -2)
1969/12/31/18:00:19.561,(-1 -1 -4 -13 -8 -4 -1 0)
1969/12/31/18:00:19.566,(-2 0 0 3 2 1 -1 -3)
1969/12/31/18:00:19.566,(3 3 -3 1 0 2 3 4)
1969/12/31/18:00:19.567,(2 1 -3 -4 -3 1 -1 1)
1969/12/31/18:00:19.567,(-3 -1 1 -3 -3 0 -3 -3)
1969/12/31/18:00:19.589,(-2 -1 1 3 0 -2 -1 -2)
1969/12/31/18:00:19.589,(0 1 -1 0 3 3 -2 -1)
1969/12/31/18:00:19.590,(4 0 -3 -3 -5 1 4 4)
1969/12/31/18:00:19.590,(-3 -1 1 2 -1 1 0 -2)
1969/12/31/18:00:19.619,(0 -1 2 -1 0 1 -1 -1)
1969/12/31/18:00:19.619,(1 2 0 -4 -4 2 -1 1)
1969/12/31/18:00:19.620,(0 -1 -1 -2 -1 1 0 1)
1969/12/31/18:00:19.620,(-2 -3 0 -2 1 -2 -3 -2)
1969/12/31/18:00:19.627,(-2 0 0 -5 -3 1 1 0)
1969/12/31/18:00:19.627,(3 1 0 -2 1 2 1 -1)
1969/12/31/18:00:19.628,(-1 -2 -2 0 0 -1 0 -1)
1969/12/31/18:00:19.628,(-4 -4 -1 0 1 0 -1 -2)
