time,.data
1969-12-31 18:00:03.136000000,(2 -4 -13 -16 -55 -19 -6 2)
1969-12-31 18:00:03.136000000,(-9 -10 -13 -25 -38 -12 -6 -6)
1969-12-31 18:00:03.153860397,(3 -2 2 -10 64 17 7 6)
1969-12-31 18:00:03.153860397,(-10 -3 -3 -9 29 1 -7 -6)
1969-12-31 18:00:03.162790596,(4 6 30 82 7 6 5 4)
1969-12-31 18:00:03.162790596,(-4 -2 -21 -40 -29 -9 -5 -5)
1969-12-31 18:00:03.184478221,(-8 -16 -14 -26 -31 -6 -6 -5)
1969-12-31 18:00:03.184478221,(-9 -9 -20 -97 -40 -20 -7 -9)
1969-12-31 18:00:03.185753964,(-1 -7 -29 -99 -16 -2 2 1)
1969-12-31 18:00:03.185753964,(8 11 32 97 30 7 5 6)
1969-12-31 18:00:03.201062876,(4 16 50 81 36 6 1 0)
1969-12-31 18:00:03.201062876,(1 -7 -22 -64 -17 -12 -6 0)
1969-12-31 18:00:03.222750501,(-3 -9 -31 -112 -45 -7 -1 -1)
1969-12-31 18:00:03.222750501,(5 -6 -35 -69 -46 -10 -2 3)
1969-12-31 18:00:03.230404957,(-3 13 53 69 94 16 2 -4)
1969-12-31 18:00:03.230404957,(8 9 11 19 67 24 10 6)
1969-12-31 18:00:03.239335156,(-3 -9 -9 -87 -50 -1 -2 -2)
1969-12-31 18:00:03.239335156,(-2 5 16 73 29 5 2 -2)
1969-12-31 18:00:03.261022781,(8 11 15 53 -2 5 6 5)
1969-12-31 18:00:03.261022781,(-2 -8 -18 -22 -18 -9 -3 -2)
1969-12-31 18:00:03.262298524,(-2 -5 -1 1 -4 2 0 -1)
1969-12-31 18:00:03.262298524,(-5 -8 -3 5 1 0 -2 -3)
1969-12-31 18:00:03.289089120,(-1 0 -16 -54 -39 -11 -3 -1)
1969-12-31 18:00:03.289089120,(4 3 -2 4 -4 -1 3 4)
1969-12-31 18:00:03.291640605,(1 0 -10 5 17 0 -2 -1)
1969-12-31 18:00:03.291640605,(-1 0 10 11 -1 0 -1 0)
1969-12-31 18:00:03.306949517,(-3 -2 -11 -21 -15 -3 -1 -4)
1969-12-31 18:00:03.306949517,(5 3 1 7 -1 3 3 5)
1969-12-31 18:00:03.315879716,(-5 -2 5 20 12 -3 -2 -4)
1969-12-31 18:00:03.315879716,(-1 1 15 11 13 4 0 -1)
1969-12-31 18:00:03.336291598,(-2 -3 -14 -37 -23 -6 -2 -1)
1969-12-31 18:00:03.336291598,(-1 -4 -4 2 -5 -6 -2 -3)
1969-12-31 18:00:03.338843084,(3 4 17 46 18 1 1 4)
1969-12-31 18:00:03.338843084,(-6 -5 -5 -1 4 1 -1 -1)
1969-12-31 18:00:03.365633680,(7 -2 -18 -57 -25 -8 -2 2)
1969-12-31 18:00:03.365633680,(2 3 7 27 0 -1 -1 0)
1969-12-31 18:00:03.368185165,(-2 7 16 36 26 10 1 -2)
1969-12-31 18:00:03.368185165,(-22 -15 -9 -17 -8 -4 -6 -13)
1969-12-31 18:00:03.383494077,(-6 -5 -12 -29 -21 -9 -5 -1)
1969-12-31 18:00:03.383494077,(30 1 7 23 10 5 5 8)
1969-12-31 18:00:03.394975761,(-3 10 -1 5 5 4 0 -7)
1969-12-31 18:00:03.394975761,(1 -1 -1 -2 2 3 0 0)
1969-12-31 18:00:03.414111901,(11 4 -3 -14 -10 0 4 9)
1969-12-31 18:00:03.414111901,(-2 -3 -2 2 -4 -2 -1 3)
1969-12-31 18:00:03.415387644,(0 10 4 1 8 8 6 -1)
1969-12-31 18:00:03.415387644,(-52 -21 -3 6 1 -5 -8 -17)
1969-12-31 18:00:03.442178239,(36 4 -4 -12 -7 -2 -3 -3)
1969-12-31 18:00:03.442178239,(32 27 6 2 6 17 19 26)
1969-12-31 18:00:03.444729725,(-12 -13 -3 2 -1 -5 -5 -4)
1969-12-31 18:00:03.444729725,(21 1 1 7 3 0 0 5)
1969-12-31 18:00:03.472796063,(-36 -4 -4 -12 -5 -2 -4 -12)
1969-12-31 18:00:03.472796063,(-16 -8 -5 -4 -4 -1 -2 -5)
1969-12-31 18:00:03.475347549,(16 0 2 4 0 -3 -2 4)
1969-12-31 18:00:03.475347549,(-2 7 4 3 4 4 4 2)
1969-12-31 18:00:03.490656461,(-1 -3 -5 -22 -7 -1 0 2)
1969-12-31 18:00:03.490656461,(3 1 4 11 0 -1 -6 -8)
1969-12-31 18:00:03.491932203,(-16 -8 1 -3 -4 -2 -3 -4)
1969-12-31 18:00:03.491932203,(11 0 -2 12 12 0 5 13)
1969-12-31 18:00:03.518722799,(35 26 15 6 7 8 4 4)
1969-12-31 18:00:03.518722799,(-21 -9 -5 -3 -3 -6 -5 -9)
1969-12-31 18:00:03.521274285,(-19 -12 -3 -6 -4 -7 -7 -7)
1969-12-31 18:00:03.521274285,(3 -3 -5 -10 -5 0 0 -3)
1969-12-31 18:00:03.536583197,(9 11 6 5 -2 -1 8 12)
1969-12-31 18:00:03.536583197,(-18 -11 -13 -36 -7 -12 -9 -6)
1969-12-31 18:00:03.548064881,(22 0 -3 15 -1 -2 -1 7)
1969-12-31 18:00:03.548064881,(-22 1 0 -7 2 8 2 -11)
1969-12-31 18:00:03.567201021,(-17 -10 -3 18 6 0 0 -3)
1969-12-31 18:00:03.567201021,(6 8 19 36 3 -1 -1 -5)
1969-12-31 18:00:03.568476763,(-14 -11 -18 -38 -17 -8 -4 -4)
1969-12-31 18:00:03.568476763,(19 8 6 -13 10 7 4 10)
1969-12-31 18:00:03.596543102,(-14 -8 20 34 9 1 -7 -12)
1969-12-31 18:00:03.596543102,(-9 -4 -6 20 5 2 1 1)
1969-12-31 18:00:03.597818845,(26 20 22 35 19 11 9 12)
1969-12-31 18:00:03.597818845,(-8 -14 -18 -31 -18 -17 -12 -3)
1969-12-31 18:00:03.614403499,(0 4 -23 -60 -20 -2 -3 -8)
1969-12-31 18:00:03.614403499,(-68 -31 -13 -6 -15 -8 -9 -28)
1969-12-31 18:00:03.624609440,(79 34 10 6 15 20 34 56)
1969-12-31 18:00:03.624609440,(15 0 -8 -9 -18 -28 -31 -16)
1969-12-31 18:00:03.643745580,(-11 -19 -11 -4 -9 -17 -22 -28)
1969-12-31 18:00:03.643745580,(0 6 10 8 19 31 31 22)
1969-12-31 18:00:03.645021323,(-39 -27 -15 -11 -14 -16 -20 -19)
1969-12-31 18:00:03.645021323,(11 5 3 5 1 10 12 14)
1969-12-31 18:00:03.671811919,(-7 -3 -1 5 2 -3 -1 2)
1969-12-31 18:00:03.671811919,(7 1 -7 -23 -9 -11 -11 -8)
1969-12-31 18:00:03.674363404,(-10 -6 -10 -43 -20 1 3 -11)
1969-12-31 18:00:03.674363404,(6 7 17 81 30 7 7 4)
1969-12-31 18:00:03.689672316,(-14 -8 -4 8 8 -6 -6 -9)
1969-12-31 18:00:03.689672316,(-7 -3 14 28 -1 -7 -13 -15)
1969-12-31 18:00:03.701154000,(2 1 1 -9 10 3 4 10)
1969-12-31 18:00:03.701154000,(-32 -7 0 -9 0 13 10 -16)
1969-12-31 18:00:03.720290140,(88 37 -3 0 -9 -3 10 41)
1969-12-31 18:00:03.720290140,(-3 -15 -9 -22 -6 -18 -15 -5)
1969-12-31 18:00:03.721565883,(-66 -34 -10 2 -1 -6 -14 -39)
1969-12-31 18:00:03.721565883,(50 45 12 -9 -8 12 23 34)
1969-12-31 18:00:03.748356479,(2 -17 -11 -5 -3 -18 -21 -2)
1969-12-31 18:00:03.748356479,(-15 -11 -4 -5 -3 4 3 2)
1969-12-31 18:00:03.750907964,(52 27 3 7 -3 -10 -6 8)
1969-12-31 18:00:03.750907964,(-16 -20 -51 -84 -30 1 7 -4)
1969-12-31 18:00:03.766216876,(-11 4 27 53 24 15 15 5)
1969-12-31 18:00:03.766216876,(19 16 32 83 29 2 -8 -3)
1969-12-31 18:00:03.777698560,(-23 -8 20 69 6 9 1 -9)
1969-12-31 18:00:03.777698560,(21 12 19 12 16 8 6 12)
1969-12-31 18:00:03.796834700,(-27 -17 -18 -52 -20 -4 -4 -8)
1969-12-31 18:00:03.796834700,(42 10 -20 -50 -12 -1 9 20)
1969-12-31 18:00:03.798110443,(-9 11 7 11 9 10 7 1)
1969-12-31 18:00:03.798110443,(-23 -14 -1 0 -16 -29 -35 -34)
1969-12-31 18:00:03.824901039,(-83 -45 -18 -12 -3 5 3 -26)
1969-12-31 18:00:03.824901039,(-10 22 5 -1 6 4 -3 -4)
1969-12-31 18:00:03.827452524,(-10 -7 -9 -19 -9 -16 -22 -26)
1969-12-31 18:00:03.827452524,(-10 -7 -2 1 11 2 6 2)
1969-12-31 18:00:03.842761436,(-18 -7 -9 -18 -17 -6 -8 -15)
1969-12-31 18:00:03.842761436,(11 -5 -28 -89 -30 3 16 17)
1969-12-31 18:00:03.854243120,(17 9 12 56 14 2 4 6)
1969-12-31 18:00:03.854243120,(-15 -2 44 108 36 4 -10 -16)
1969-12-31 18:00:03.873379260,(10 16 45 71 36 21 14 11)
1969-12-31 18:00:03.873379260,(-2 2 3 9 3 0 -3 -7)
1969-12-31 18:00:03.874655003,(9 -2 -29 -80 -25 -9 0 8)
1969-12-31 18:00:03.874655003,(9 -2 -22 -70 -38 -18 -3 7)
1969-12-31 18:00:03.901445599,(11 6 -25 -32 21 8 9 15)
1969-12-31 18:00:03.901445599,(8 -2 11 44 -4 13 5 5)
1969-12-31 18:00:03.903997084,(-28 -12 23 41 28 8 -1 -8)
1969-12-31 18:00:03.903997084,(51 28 7 6 13 6 5 23)
1969-12-31 18:00:03.919305996,(-48 -27 -21 -46 -33 -23 -26 -43)
1969-12-31 18:00:03.919305996,(-69 -44 -26 -53 -8 -13 -12 -27)
1969-12-31 18:00:03.930787680,(43 31 2 11 3 7 9 14)
1969-12-31 18:00:03.930787680,(-34 -22 0 1 -12 -6 -10 -20)
1969-12-31 18:00:03.948648077,(3 -1 -10 -37 -21 -18 -16 -10)
1969-12-31 18:00:03.948648077,(8 2 -4 1 1 -5 0 2)
1969-12-31 18:00:03.957578276,(-11 -12 4 16 -10 -7 -1 1)
1969-12-31 18:00:03.957578276,(4 3 -2 -9 4 12 6 2)
1969-12-31 18:00:03.977990159,(9 6 0 -2 -3 4 4 7)
1969-12-31 18:00:03.977990159,(3 3 20 49 27 7 3 1)
1969-12-31 18:00:03.979265901,(0 4 3 -26 -15 -4 -1 -4)
1969-12-31 18:00:03.980541644,(6 2 4 29 -25 -3 1 2)
1969-12-31 18:00:03.995850556,(10 6 16 30 17 25 19 19)
1969-12-31 18:00:03.995850556,(17 14 4 8 29 11 3 6)
1969-12-31 18:00:04.007332240,(2 -20 -11 -7 13 0 -3 1)
1969-12-31 18:00:04.007332240,(8 14 -7 -26 3 5 9 25)
1969-12-31 18:00:04.026468380,(15 14 -2 -3 -27 -10 4 -3)
1969-12-31 18:00:04.026468380,(12 13 -2 -7 -20 -16 -15 -2)
1969-12-31 18:00:04.027744122,(5 -11 -4 -34 3 12 29 24)
1969-12-31 18:00:04.027744122,(-7 -23 -11 2 0 5 5 8)
1969-12-31 18:00:04.054534718,(20 14 7 -9 5 8 17 29)
1969-12-31 18:00:04.054534718,(9 13 -19 -25 -16 -3 0 3)
1969-12-31 18:00:04.057086204,(-1 5 22 47 -16 -21 -29 -19)
1969-12-31 18:00:04.057086204,(-13 -3 2 0 13 -3 -8 -15)
1969-12-31 18:00:04.072395116,(10 9 17 34 33 21 12 11)
1969-12-31 18:00:04.072395116,(-2 -5 28 84 26 10 1 -2)
1969-12-31 18:00:04.083876800,(14 0 -11 4 1 0 -3 6)
1969-12-31 18:00:04.083876800,(-53 -9 8 14 -1 -8 -18 -49)
1969-12-31 18:00:04.111943138,(5 7 -15 -57 -28 -13 -7 -8)
1969-12-31 18:00:04.111943138,(2 -13 -18 -37 0 -7 2 4)
1969-12-31 18:00:04.114494624,(0 2 -13 -12 -6 -5 -11 -9)
1969-12-31 18:00:04.114494624,(-9 -6 1 2 -19 4 5 0)
1969-12-31 18:00:04.131079278,(-7 -9 -5 1 11 3 6 2)
1969-12-31 18:00:04.131079278,(1 2 0 -28 -20 -2 10 17)
1969-12-31 18:00:04.133630764,(-12 8 5 2 17 2 -3 -10)
1969-12-31 18:00:04.133630764,(10 -2 -20 -33 -3 -6 -5 0)
1969-12-31 18:00:04.148939676,(-6 -5 24 66 -2 1 2 1)
1969-12-31 18:00:04.148939676,(1 6 21 35 16 6 2 2)
1969-12-31 18:00:04.160421360,(12 3 -4 0 12 9 10 9)
1969-12-31 18:00:04.160421360,(-21 -12 -11 -27 10 -1 -3 -11)
1969-12-31 18:00:04.178281757,(-4 -13 -17 -13 -44 -18 -7 0)
1969-12-31 18:00:04.178281757,(-4 6 11 20 12 -5 -11 -14)
1969-12-31 18:00:04.187211956,(-10 -5 1 12 19 6 -8 -12)
1969-12-31 18:00:04.187211956,(32 15 4 0 7 3 1 3)
1969-12-31 18:00:04.207623838,(-32 -14 -7 -12 17 -6 -7 -6)
1969-12-31 18:00:04.207623838,(15 14 -7 -13 -36 1 10 -3)
1969-12-31 18:00:04.210175323,(-22 -4 1 -47 -18 6 22 16)
1969-12-31 18:00:04.210175323,(16 -1 -4 -8 0 -4 -3 7)
1969-12-31 18:00:04.225484235,(-3 0 -12 15 18 0 -6 -6)
1969-12-31 18:00:04.225484235,(-13 -6 17 21 5 -4 -12 -13)
1969-12-31 18:00:04.236965919,(-10 -2 -7 -47 -33 -16 -11 -12)
1969-12-31 18:00:04.236965919,(25 9 -11 9 8 2 14 27)
1969-12-31 18:00:04.256102059,(9 5 7 27 39 17 8 5)
1969-12-31 18:00:04.256102059,(7 1 3 -10 -14 13 8 6)
1969-12-31 18:00:04.257377802,(15 10 27 78 26 3 -1 1)
1969-12-31 18:00:04.257377802,(-40 -21 8 -12 -7 -3 -3 -11)
1969-12-31 18:00:04.284168398,(14 5 -11 -32 -19 -5 3 8)
1969-12-31 18:00:04.284168398,(15 4 -15 -19 3 -7 -1 0)
1969-12-31 18:00:04.286719883,(-21 -15 -19 -47 -28 -10 -11 -9)
1969-12-31 18:00:04.286719883,(15 8 -13 -31 -21 -8 -5 2)
1969-12-31 18:00:04.302028795,(4 3 12 37 11 -2 -1 1)
1969-12-31 18:00:04.302028795,(-2 0 13 20 1 1 0 3)
1969-12-31 18:00:04.313510479,(-3 4 0 13 21 14 11 6)
1969-12-31 18:00:04.313510479,(-4 -6 -3 2 5 1 -1 -3)
1969-12-31 18:00:04.331370877,(23 7 -11 -54 -22 -8 -7 0)
1969-12-31 18:00:04.331370877,(-17 -14 -9 1 -11 -9 -5 -10)
1969-12-31 18:00:04.349231274,(-19 -7 11 41 6 -3 -8 -13)
1969-12-31 18:00:04.349231274,(-1 -4 20 40 31 15 5 -4)
1969-12-31 18:00:04.360712958,(15 0 3 18 -6 3 3 5)
1969-12-31 18:00:04.360712958,(-3 -10 -35 -78 -15 -12 -5 3)
1969-12-31 18:00:04.363264443,(6 -2 -15 -4 -15 -2 5 5)
1969-12-31 18:00:04.363264443,(-17 -6 11 22 31 -2 -8 -11)
1969-12-31 18:00:04.378573355,(23 18 25 45 -15 7 4 8)
1969-12-31 18:00:04.378573355,(20 23 9 13 7 -1 -1 -6)
1969-12-31 18:00:04.390055038,(9 2 -12 -22 -3 -8 -5 2)
1969-12-31 18:00:04.390055038,(-2 0 -8 -20 -9 -6 -6 -4)
1969-12-31 18:00:04.407915436,(9 -1 -12 -23 -1 -8 -6 2)
1969-12-31 18:00:04.407915436,(1 -4 -7 -9 -1 2 0 -1)
1969-12-31 18:00:04.416845635,(-39 -28 4 -2 1 6 7 -1)
1969-12-31 18:00:04.416845635,(49 37 1 2 -12 -7 -4 15)
1969-12-31 18:00:04.437257518,(-24 -18 -15 -47 -11 -14 -18 -13)
1969-12-31 18:00:04.437257518,(-5 -4 3 31 -2 0 -1 -5)
1969-12-31 18:00:04.444911974,(2 -2 -6 -21 3 2 2 6)
1969-12-31 18:00:04.444911974,(-4 -6 11 18 -1 7 7 3)
1969-12-31 18:00:04.466599599,(-14 -1 7 -12 -1 3 2 -4)
1969-12-31 18:00:04.466599599,(9 11 12 39 14 -3 -5 3)
1969-12-31 18:00:04.467875342,(-42 -19 -12 -23 -3 -8 -14 -25)
1969-12-31 18:00:04.467875342,(-1 -12 -11 7 -9 11 13 10)
1969-12-31 18:00:04.484459996,(12 17 14 22 12 5 5 4)
1969-12-31 18:00:04.484459996,(0 -14 0 -5 2 -3 3 13)
1969-12-31 18:00:04.494665938,(23 30 4 -9 -4 -1 5 1)
1969-12-31 18:00:04.494665938,(-25 -13 -11 -20 -19 -15 -21 -26)
1969-12-31 18:00:04.513802078,(-7 -5 -7 -4 9 13 12 9)
1969-12-31 18:00:04.513802078,(-6 -9 -8 -16 -9 -10 -13 -9)
1969-12-31 18:00:04.513802078,(-31 -18 5 7 -9 -10 -10 -21)
1969-12-31 18:00:04.513802078,(100 88 14 -1 10 18 46 101)
1969-12-31 18:00:04.543144159,(-90 -43 -27 -4 -11 -26 -49 -83)
1969-12-31 18:00:04.543144159,(-16 -7 -2 -7 9 14 12 8)
1969-12-31 18:00:04.544419902,(18 2 -12 0 8 11 11 14)
1969-12-31 18:00:04.544419902,(-23 -20 13 18 -11 -13 -20 -32)
1969-12-31 18:00:04.559728814,(11 6 18 17 8 6 10 18)
1969-12-31 18:00:04.559728814,(18 17 -9 -42 -5 4 9 13)
1969-12-31 18:00:04.569934755,(-3 -7 -3 28 12 4 -3 -7)
1969-12-31 18:00:04.569934755,(-12 -7 15 39 5 -2 -6 -11)
1969-12-31 18:00:04.589070895,(5 8 11 19 -1 -1 3 9)
1969-12-31 18:00:04.589070895,(-7 -5 8 5 8 5 4 -3)
1969-12-31 18:00:04.590346638,(20 10 -9 -27 -5 -1 4 12)
1969-12-31 18:00:04.590346638,(-11 -14 -16 -23 -5 -5 -4 -8)
1969-12-31 18:00:04.618412976,(-18 -11 -3 -11 5 -2 -2 -10)
1969-12-31 18:00:04.618412976,(35 21 -9 -31 -13 9 17 26)
1969-12-31 18:00:04.619688719,(12 10 -6 -11 1 7 8 10)
1969-12-31 18:00:04.619688719,(-9 -13 -25 -42 -10 -7 -8 -6)
1969-12-31 18:00:04.636273372,(8 10 21 36 8 9 9 9)
1969-12-31 18:00:04.636273372,(-10 13 40 70 19 -7 -12 -14)
1969-12-31 18:00:04.646479315,(-7 -16 -26 -54 -19 -5 0 0)
1969-12-31 18:00:04.646479315,(-11 -9 10 21 9 11 7 -5)
1969-12-31 18:00:04.666891197,(5 5 19 81 20 0 -1 6)
1969-12-31 18:00:04.666891197,(-11 -4 4 30 8 2 1 -3)
1969-12-31 18:00:04.668166940,(-5 1 18 13 -3 -8 -10 -10)
1969-12-31 18:00:04.668166940,(-15 -22 -37 -88 -15 -8 -6 -7)
1969-12-31 18:00:04.705163477,(15 -6 -53 -128 -40 -2 9 16)
1969-12-31 18:00:04.706439220,(-4 -2 16 46 -19 -3 3 -1)
1969-12-31 18:00:04.706439220,(6 13 35 89 34 1 -6 -7)
1969-12-31 18:00:04.706439220,(-20 -12 14 40 14 -7 -10 -12)
1969-12-31 18:00:04.712817933,(-5 2 4 -6 21 16 12 4)
1969-12-31 18:00:04.712817933,(-20 -22 -61 -128 -45 -10 -5 -10)
1969-12-31 18:00:04.724299617,(14 4 -6 16 -16 -2 7 13)
1969-12-31 18:00:04.724299617,(-5 5 14 56 15 0 -6 -10)
1969-12-31 18:00:04.743435757,(1 -5 6 20 12 1 1 3)
1969-12-31 18:00:04.743435757,(-16 -5 17 35 23 12 10 6)
1969-12-31 18:00:04.744711500,(-8 -1 -8 -30 -10 2 -3 -10)
1969-12-31 18:00:04.744711500,(-6 -1 14 -2 -3 1 2 -3)
1969-12-31 18:00:04.771502096,(-10 -1 -3 -12 -16 -13 -13 -12)
1969-12-31 18:00:04.771502096,(9 -1 -9 -14 8 6 9 11)
1969-12-31 18:00:04.772777839,(35 16 -1 -21 3 4 12 25)
1969-12-31 18:00:04.772777839,(-8 -3 -11 5 7 2 0 -9)
1969-12-31 18:00:04.789362493,(15 3 -10 -21 -24 -4 6 15)
1969-12-31 18:00:04.789362493,(-19 -5 13 43 13 -11 -20 -27)
1969-12-31 18:00:04.799568434,(-14 -10 -16 -47 -19 -10 -7 -6)
1969-12-31 18:00:04.799568434,(3 -4 -7 -7 -10 2 5 5)
1969-12-31 18:00:04.818704574,(14 11 21 58 26 4 4 8)
1969-12-31 18:00:04.818704574,(2 0 5 25 -2 -3 -8 -3)
1969-12-31 18:00:04.819980317,(7 4 21 37 11 -7 -12 -9)
1969-12-31 18:00:04.819980317,(-43 -14 5 -10 3 11 7 -12)
1969-12-31 18:00:04.848046656,(31 9 -18 -25 1 5 11 23)
1969-12-31 18:00:04.848046656,(-59 -21 -3 -15 -7 -9 -24 -45)
1969-12-31 18:00:04.849322398,(45 18 -5 -9 -1 2 4 15)
1969-12-31 18:00:04.849322398,(-1 -9 -6 -6 -9 -12 -10 0)
1969-12-31 18:00:04.865907053,(-24 -20 -6 -1 -8 -13 -22 -21)
1969-12-31 18:00:04.865907053,(-7 5 -1 -13 1 2 6 4)
1969-12-31 18:00:04.876112994,(20 11 14 17 10 10 16 27)
1969-12-31 18:00:04.876112994,(-5 -8 -16 -10 -9 -11 -15 -17)
1969-12-31 18:00:04.895249134,(4 8 14 3 4 8 10 3)
1969-12-31 18:00:04.895249134,(15 3 -5 -7 8 0 2 8)
1969-12-31 18:00:04.896524877,(-27 -11 1 2 -10 3 2 -8)
1969-12-31 18:00:04.896524877,(30 20 13 28 11 8 13 19)
1969-12-31 18:00:04.924591216,(-9 -3 -3 -11 -4 -7 -10 -12)
1969-12-31 18:00:04.924591216,(15 5 -1 -10 2 -1 2 7)
1969-12-31 18:00:04.925866958,(-5 -7 -5 12 12 13 20 18)
1969-12-31 18:00:04.925866958,(-14 -6 -5 -21 -9 -5 -11 -19)
1969-12-31 18:00:04.942451613,(5 8 10 21 2 3 6 7)
1969-12-31 18:00:04.942451613,(-10 -16 -4 0 7 -2 -5 0)
1969-12-31 18:00:04.952657554,(2 12 -3 -5 -5 2 -5 -16)
1969-12-31 18:00:04.952657554,(10 4 6 10 -4 2 4 14)
1969-12-31 18:00:04.973069437,(-24 -14 -6 -5 9 1 -1 -8)
1969-12-31 18:00:04.973069437,(23 11 -2 13 2 6 9 15)
1969-12-31 18:00:04.973069437,(-1 -1 -6 -17 -17 -12 -12 -5)
1969-12-31 18:00:04.973069437,(-12 -1 10 10 9 6 7 -3)
1969-12-31 18:00:05.001135775,(12 10 2 6 0 -2 -5 -8)
1969-12-31 18:00:05.001135775,(-1 -9 -12 -16 -4 -2 0 6)
1969-12-31 18:00:05.002411518,(-32 -20 -18 -6 -5 -18 -32 -45)
1969-12-31 18:00:05.002411518,(-16 4 4 0 1 10 16 7)
1969-12-31 18:00:05.030477857,(-13 -23 -7 -9 -11 -8 -9 -9)
1969-12-31 18:00:05.030477857,(22 22 -1 -11 -10 -10 -8 -7)
1969-12-31 18:00:05.031753599,(-2 -9 6 9 7 5 11 19)
1969-12-31 18:00:05.031753599,(6 17 6 2 -2 -6 -6 -1)
1969-12-31 18:00:05.059819938,(-8 7 -6 -5 6 13 7 -7)
1969-12-31 18:00:05.059819938,(66 19 7 7 5 16 34 64)
1969-12-31 18:00:05.061095681,(-34 -12 0 2 -5 -15 -27 -39)
1969-12-31 18:00:05.061095681,(10 -3 -6 -7 -6 -8 -10 -5)
1969-12-31 18:00:05.077680335,(0 6 3 -1 -2 3 6 8)
1969-12-31 18:00:05.077680335,(-12 -8 -4 -12 -8 -3 -1 -7)
1969-12-31 18:00:05.078956078,(11 4 1 6 14 7 10 17)
1969-12-31 18:00:05.078956078,(13 9 9 22 -8 -1 0 6)
1969-12-31 18:00:05.095540733,(-4 1 8 10 4 -3 -3 -4)
1969-12-31 18:00:05.095540733,(-16 -17 -3 3 1 -2 -2 -8)
1969-12-31 18:00:05.107022417,(29 27 7 -3 5 3 2 3)
1969-12-31 18:00:05.107022417,(-33 -15 -12 -17 -1 1 -3 -13)
1969-12-31 18:00:05.126158557,(-42 -6 7 8 9 18 9 -19)
1969-12-31 18:00:05.126158557,(24 2 12 2 1 -4 4 20)
1969-12-31 18:00:05.126158557,(-7 -7 -3 -4 -4 -1 3 11)
1969-12-31 18:00:05.126158557,(-2 -11 -10 -13 0 -2 -1 -2)
1969-12-31 18:00:05.154224895,(15 4 -18 -33 -15 -8 1 8)
1969-12-31 18:00:05.154224895,(-5 7 6 19 6 5 2 -7)
1969-12-31 18:00:05.155500638,(-46 -26 17 34 4 0 -6 -14)
1969-12-31 18:00:05.155500638,(35 18 7 1 6 13 19 15)
1969-12-31 18:00:05.173361035,(6 -5 -14 -15 4 -8 -4 9)
1969-12-31 18:00:05.173361035,(16 12 -2 12 -11 -1 -3 -1)
1969-12-31 18:00:05.174636778,(-6 -16 -9 -5 -2 -5 -5 1)
1969-12-31 18:00:05.174636778,(22 27 1 -9 0 6 5 6)
1969-12-31 18:00:05.202703116,(13 4 -11 -38 -7 -1 0 -1)
1969-12-31 18:00:05.202703116,(-18 -9 3 19 1 -3 -8 -13)
1969-12-31 18:00:05.202703116,(21 20 21 30 3 -9 -5 4)
1969-12-31 18:00:05.202703116,(-47 -21 2 10 4 -3 -13 -28)
1969-12-31 18:00:05.230769455,(-8 -16 -3 -2 -5 -5 -2 1)
1969-12-31 18:00:05.230769455,(33 14 -7 -24 -2 10 14 18)
1969-12-31 18:00:05.232045198,(11 3 -11 -9 -9 -3 2 5)
1969-12-31 18:00:05.232045198,(0 -7 -4 -7 -4 -9 -9 -2)
1969-12-31 18:00:05.248629852,(3 -2 -15 -38 -20 -5 -3 -1)
1969-12-31 18:00:05.248629852,(-37 -18 -5 -4 1 -7 -16 -28)
1969-12-31 18:00:05.260111536,(-17 -12 22 48 7 14 13 7)
1969-12-31 18:00:05.260111536,(74 51 24 39 24 22 32 41)
1969-12-31 18:00:05.277971934,(-10 -10 3 25 -1 -17 -22 -8)
1969-12-31 18:00:05.277971934,(-32 -1 -10 -34 -7 -4 -5 -20)
1969-12-31 18:00:05.279247676,(-26 -32 -21 -48 -4 2 5 1)
1969-12-31 18:00:05.279247676,(-6 -23 -21 -9 -15 -13 -10 -8)
1969-12-31 18:00:05.307314015,(0 3 7 8 0 4 2 -3)
1969-12-31 18:00:05.307314015,(-10 -4 -8 -21 -7 -4 -6 -7)
1969-12-31 18:00:05.308589758,(-6 5 -2 4 -6 -12 -10 -11)
1969-12-31 18:00:05.308589758,(-2 -5 12 19 4 -3 -4 2)
1969-12-31 18:00:05.325174412,(1 2 15 24 19 16 11 0)
1969-12-31 18:00:05.325174412,(25 17 -2 -2 -3 -6 -9 -6)
1969-12-31 18:00:05.335380354,(12 9 0 -23 -7 5 13 12)
1969-12-31 18:00:05.335380354,(-3 -6 -10 -9 0 2 2 6)
1969-12-31 18:00:05.354516494,(37 19 4 11 -2 0 2 7)
1969-12-31 18:00:05.354516494,(-19 -15 -5 -4 3 4 2 -4)
1969-12-31 18:00:05.355792236,(-5 -1 -4 -13 -7 -8 -11 -13)
1969-12-31 18:00:05.355792236,(-3 2 2 2 5 6 12 23)
1969-12-31 18:00:05.383858575,(-22 -8 -1 -4 0 -12 -18 -22)
1969-12-31 18:00:05.383858575,(-64 -28 3 19 -9 -4 -11 -41)
1969-12-31 18:00:05.385134317,(117 87 24 14 22 24 38 78)
1969-12-31 18:00:05.385134317,(-18 -31 -23 -34 -24 -27 -31 -30)
1969-12-31 18:00:05.423406597,(-8 -1 -2 14 9 14 11 7)
1969-12-31 18:00:05.423406597,(9 3 -2 -1 3 3 3 8)
1969-12-31 18:00:05.423406597,(-25 -19 -14 -28 -13 -6 -10 -20)
1969-12-31 18:00:05.423406597,(3 4 4 1 -7 0 1 0)
1969-12-31 18:00:05.432336796,(15 12 6 15 6 0 3 10)
1969-12-31 18:00:05.432336796,(8 -1 0 -9 0 -4 -3 3)
1969-12-31 18:00:05.432336796,(-23 -12 3 27 4 2 -5 -14)
1969-12-31 18:00:05.432336796,(12 9 9 12 11 7 5 7)
1969-12-31 18:00:05.460403135,(-7 -8 -10 -14 -15 -10 -6 -5)
1969-12-31 18:00:05.460403135,(1 -4 -7 -18 7 2 3 7)
1969-12-31 18:00:05.461678877,(-1 -4 -9 -29 -20 -3 -2 -5)
1969-12-31 18:00:05.461678877,(-8 -7 -3 5 -2 -3 -3 -3)
1969-12-31 18:00:05.478263532,(-15 -6 15 31 20 10 5 -5)
1969-12-31 18:00:05.478263532,(92 61 7 10 3 1 13 43)
1969-12-31 18:00:05.488469473,(-39 -20 -16 -10 -4 -15 -25 -44)
1969-12-31 18:00:05.488469473,(-15 -14 -7 -17 -13 -11 -14 -14)
1969-12-31 18:00:05.507605613,(7 15 2 -1 0 11 12 3)
1969-12-31 18:00:05.507605613,(10 -9 0 10 -3 -9 -5 15)
1969-12-31 18:00:05.508881356,(-11 -12 -18 -49 -12 0 2 -4)
1969-12-31 18:00:05.508881356,(13 10 1 14 2 3 4 6)
1969-12-31 18:00:05.538223437,(-3 0 12 28 1 -10 -12 -10)
1969-12-31 18:00:05.538223437,(-21 -7 12 26 14 5 -1 -12)
1969-12-31 18:00:05.538223437,(-3 -3 -1 -3 0 0 -2 -1)
1969-12-31 18:00:05.538223437,(1 3 -3 -8 9 7 7 8)
1969-12-31 18:00:05.554808092,(7 0 -8 -25 -22 -5 1 11)
1969-12-31 18:00:05.554808092,(-44 -39 -7 3 -6 -9 -8 -10)
1969-12-31 18:00:05.565014033,(24 41 19 23 21 13 5 -10)
1969-12-31 18:00:05.565014033,(-3 -6 -11 -19 -6 -8 -9 -11)
1969-12-31 18:00:05.584150173,(-8 -2 -2 -2 -3 -3 -5 -12)
1969-12-31 18:00:05.584150173,(52 19 16 4 5 14 27 66)
1969-12-31 18:00:05.585425916,(-21 -24 -5 5 4 -3 -2 -2)
1969-12-31 18:00:05.585425916,(-2 0 0 0 3 5 3 3)
1969-12-31 18:00:05.613492254,(9 7 1 -2 2 0 -2 3)
1969-12-31 18:00:05.613492254,(-31 -14 -6 -22 -25 -10 -6 -21)
1969-12-31 18:00:05.614767997,(6 -2 -8 -11 -15 -5 3 10)
1969-12-31 18:00:05.614767997,(12 10 12 29 19 11 8 10)
1969-12-31 18:00:05.642834336,(-1 -4 6 12 26 15 3 5)
1969-12-31 18:00:05.642834336,(-21 -8 1 20 14 2 -10 -27)
1969-12-31 18:00:05.644110077,(21 11 3 5 5 7 18 28)
1969-12-31 18:00:05.644110077,(-2 -5 -34 -105 -58 -24 -12 -10)
1969-12-31 18:00:05.660694733,(2 -4 3 43 5 -6 0 8)
1969-12-31 18:00:05.660694733,(-8 5 22 52 20 6 -4 -13)
1969-12-31 18:00:05.661970476,(-20 -12 7 29 14 -5 -13 -18)
1969-12-31 18:00:05.661970476,(-18 -24 -6 -8 -7 -8 -1 7)
1969-12-31 18:00:05.692588300,(35 28 -3 -42 -11 6 6 3)
1969-12-31 18:00:05.692588300,(-16 -14 -17 -31 -17 -10 -8 -14)
1969-12-31 18:00:05.692588300,(-6 -5 0 7 -2 0 1 0)
1969-12-31 18:00:05.692588300,(-5 -2 4 11 7 1 0 -2)
1969-12-31 18:00:05.719378896,(-2 -5 -7 -17 -13 -5 1 8)
1969-12-31 18:00:05.719378896,(6 7 1 2 0 2 2 -2)
1969-12-31 18:00:05.720654638,(-2 -2 -1 -4 4 0 -2 -3)
1969-12-31 18:00:05.720654638,(6 6 7 16 9 8 6 4)
1969-12-31 18:00:05.737239293,(-7 -8 -10 -46 -19 -11 -7 -4)
1969-12-31 18:00:05.737239293,(-5 -2 -6 -2 -8 0 -1 -6)
1969-12-31 18:00:05.738515036,(-4 -4 10 32 18 4 1 3)
1969-12-31 18:00:05.738515036,(3 11 21 47 18 5 -1 -4)
1969-12-31 18:00:05.766581374,(-16 -11 2 6 0 -6 -7 -7)
1969-12-31 18:00:05.766581374,(36 9 -15 -35 -8 -2 4 21)
1969-12-31 18:00:05.767857117,(-42 -19 -7 -13 -7 2 -9 -33)
1969-12-31 18:00:05.767857117,(2 2 -1 3 1 0 0 2)
1969-12-31 18:00:05.795923455,(1 0 -1 0 1 0 -1 1)
1969-12-31 18:00:05.795923455,(2 -2 -6 -10 -6 -7 -7 0)
1969-12-31 18:00:05.797199198,(13 11 -1 0 -3 -2 4 14)
1969-12-31 18:00:05.797199198,(-19 -10 -6 -9 -6 -5 -13 -27)
1969-12-31 18:00:05.815059595,(-2 -3 -7 -27 -1 -3 -1 2)
1969-12-31 18:00:05.815059595,(-21 -7 7 50 12 5 -1 -16)
1969-12-31 18:00:05.815059595,(15 11 17 33 2 0 6 23)
1969-12-31 18:00:05.815059595,(-7 -4 -1 -5 4 -3 -8 -9)
1969-12-31 18:00:05.843125934,(14 10 -1 -7 -3 3 11 15)
1969-12-31 18:00:05.843125934,(-6 -3 -7 -24 -4 -7 -8 -9)
1969-12-31 18:00:05.844401677,(-6 -10 -18 -32 -5 0 -2 -6)
1969-12-31 18:00:05.844401677,(14 3 6 28 2 0 2 7)
1969-12-31 18:00:05.872468015,(19 21 12 29 5 -1 1 11)
1969-12-31 18:00:05.872468015,(-23 -7 8 1 6 3 -3 -19)
1969-12-31 18:00:05.873743758,(15 6 -1 -8 4 11 15 18)
1969-12-31 18:00:05.873743758,(-74 -45 -10 -14 -8 -2 2 -8)
1969-12-31 18:00:05.890328413,(72 37 4 7 6 12 15 31)
1969-12-31 18:00:05.890328413,(2 2 0 -5 -4 -3 1 6)
1969-12-31 18:00:05.891604155,(9 4 -7 -5 -3 -5 -3 -1)
1969-12-31 18:00:05.891604155,(-7 -5 -1 -6 -2 0 -1 -7)
1969-12-31 18:00:05.920946237,(-29 -20 0 7 -2 -1 -3 -9)
1969-12-31 18:00:05.920946237,(12 9 2 5 7 9 13 19)
1969-12-31 18:00:05.920946237,(-6 -6 3 -14 -7 -11 -16 -16)
1969-12-31 18:00:05.920946237,(14 13 2 5 0 -6 -5 3)
1969-12-31 18:00:05.949012575,(-14 -9 -5 7 5 2 1 -8)
1969-12-31 18:00:05.949012575,(11 3 -2 -9 2 7 5 5)
1969-12-31 18:00:05.950288318,(0 -3 -4 5 -1 0 -2 0)
1969-12-31 18:00:05.950288318,(25 30 17 18 10 19 23 25)
1969-12-31 18:00:05.966872972,(21 8 -1 -6 -9 -10 -9 1)
1969-12-31 18:00:05.966872972,(-20 -12 0 2 -3 -9 -9 -16)
1969-12-31 18:00:05.968148715,(8 4 3 -3 1 0 1 3)
1969-12-31 18:00:05.968148715,(12 6 -5 -11 -1 0 5 5)
1969-12-31 18:00:05.997490796,(-17 -15 -6 4 1 5 2 -2)
1969-12-31 18:00:05.997490796,(4 1 -15 -38 -3 1 1 5)
1969-12-31 18:00:05.997490796,(2 -1 2 10 -16 -10 -6 -4)
1969-12-31 18:00:05.997490796,(16 11 9 1 2 0 -3 0)
1969-12-31 18:00:06.025557135,(-29 -17 -2 8 12 -1 -3 -12)
1969-12-31 18:00:06.025557135,(-2 0 7 22 -12 -5 -7 -6)
1969-12-31 18:00:06.026832878,(-2 1 1 -24 3 -1 -1 -2)
1969-12-31 18:00:06.026832878,(2 -5 -10 2 -3 -3 -2 0)
1969-12-31 18:00:06.044693275,(-8 2 20 2 -14 -2 -1 -5)
1969-12-31 18:00:06.044693275,(10 17 26 32 16 13 12 10)
1969-12-31 18:00:06.044693275,(11 4 3 8 45 23 12 10)
1969-12-31 18:00:06.044693275,(-2 -5 -11 11 10 10 -1 -6)
1969-12-31 18:00:06.075311099,(-19 -25 -51 -69 -35 -33 -19 -15)
1969-12-31 18:00:06.075311099,(-8 -23 -63 -85 -40 -17 -7 -5)
1969-12-31 18:00:06.076586842,(-11 -5 21 65 -39 -21 -8 -7)
1969-12-31 18:00:06.076586842,(6 14 48 39 40 2 -3 0)
1969-12-31 18:00:06.102101695,(-3 13 13 27 34 17 3 -2)
1969-12-31 18:00:06.102101695,(8 5 -6 6 2 11 12 9)
1969-12-31 18:00:06.103377438,(-8 -24 -45 -29 -4 -5 -4 -5)
1969-12-31 18:00:06.103377438,(-8 -11 -16 -36 -30 -13 -7 -6)
1969-12-31 18:00:06.119962092,(-12 -5 7 -2 -19 -15 -7 -7)
1969-12-31 18:00:06.119962092,(5 12 22 3 14 0 -2 -2)
1969-12-31 18:00:06.121237835,(12 14 5 2 3 11 7 9)
1969-12-31 18:00:06.121237835,(7 4 10 25 4 11 7 7)
1969-12-31 18:00:06.149304174,(3 -1 5 21 19 11 3 3)
1969-12-31 18:00:06.149304174,(-9 -8 2 1 -7 -11 -8 -7)
1969-12-31 18:00:06.150579916,(-5 -1 3 1 -5 -5 -2 -4)
1969-12-31 18:00:06.150579916,(0 -2 -8 -28 -8 -5 -1 0)
1969-12-31 18:00:06.178646255,(3 7 8 4 5 11 7 6)
1969-12-31 18:00:06.178646255,(1 -8 -20 10 4 -5 -5 -1)
1969-12-31 18:00:06.179921997,(-6 -4 5 1 2 -2 -4 -4)
1969-12-31 18:00:06.179921997,(2 1 -20 -7 1 -2 -1 0)
1969-12-31 18:00:06.196506652,(-4 -9 -10 -7 -9 -6 -4 -3)
1969-12-31 18:00:06.196506652,(-8 -7 1 10 -3 -5 -4 -4)
1969-12-31 18:00:06.197782395,(-5 -2 0 -18 -3 -4 -3 -3)
1969-12-31 18:00:06.197782395,(8 14 26 8 1 11 8 6)
1969-12-31 18:00:06.225848733,(7 8 4 22 5 2 4 4)
1969-12-31 18:00:06.225848733,(-1 -6 -8 -13 -3 -3 0 -1)
1969-12-31 18:00:06.227124476,(-5 -9 -43 -60 -18 -9 -6 -6)
1969-12-31 18:00:06.227124476,(0 -6 7 29 -8 -9 -2 1)
1969-12-31 18:00:06.255190815,(-8 -2 18 30 15 1 -5 -6)
1969-12-31 18:00:06.255190815,(-1 1 4 11 9 7 4 3)
1969-12-31 18:00:06.257742300,(5 4 8 6 6 5 5 2)
1969-12-31 18:00:06.257742300,(5 4 2 -19 -10 2 4 3)
1969-12-31 18:00:06.273051212,(4 8 8 -8 -7 1 2 4)
1969-12-31 18:00:06.273051212,(5 8 25 14 8 6 0 -1)
1969-12-31 18:00:06.274326955,(-5 -12 -34 -21 3 1 -2 -3)
1969-12-31 18:00:06.274326955,(-5 -6 -26 -31 -23 -9 -6 -5)
1969-12-31 18:00:06.303669036,(-3 -2 6 22 2 1 2 0)
1969-12-31 18:00:06.303669036,(-4 5 17 13 18 6 -2 -3)
1969-12-31 18:00:06.303669036,(4 14 31 11 2 11 5 4)
1969-12-31 18:00:06.303669036,(7 8 1 -5 6 5 1 3)
1969-12-31 18:00:06.331735375,(0 -11 -16 -14 -8 3 0 1)
1969-12-31 18:00:06.331735375,(-8 -1 -5 -37 -13 -5 -3 -6)
1969-12-31 18:00:06.334286860,(-3 -3 -7 -1 -15 -8 -3 -2)
1969-12-31 18:00:06.334286860,(-3 -4 1 43 23 -4 -4 -4)
1969-12-31 18:00:06.349595772,(-1 -6 3 13 10 4 3 1)
1969-12-31 18:00:06.349595772,(-3 5 13 22 9 2 2 -1)
1969-12-31 18:00:06.361077456,(3 -3 -2 -9 5 4 3 2)
1969-12-31 18:00:06.361077456,(-2 -5 -12 -49 -26 -11 -4 -1)
1969-12-31 18:00:06.380213596,(0 0 -8 -1 0 -5 -2 -4)
1969-12-31 18:00:06.380213596,(3 -3 -11 7 0 -2 0 4)
1969-12-31 18:00:06.381489338,(0 3 -4 8 2 -4 -3 0)
1969-12-31 18:00:06.381489338,(-9 -15 -6 -10 7 -4 -3 -5)
1969-12-31 18:00:06.417210133,(-3 -1 0 1 -5 0 -1 -3)
1969-12-31 18:00:06.417210133,(3 3 1 -12 -11 7 7 3)
1969-12-31 18:00:06.419761618,(-3 4 10 -4 -4 -9 -8 -6)
1969-12-31 18:00:06.419761618,(-3 -7 -7 36 17 4 -4 -2)
1969-12-31 18:00:06.426140332,(3 -8 -11 -6 -4 4 6 4)
1969-12-31 18:00:06.426140332,(-9 1 6 -12 -4 -8 -7 -9)
1969-12-31 18:00:06.437622016,(11 11 22 50 32 16 11 8)
1969-12-31 18:00:06.437622016,(-3 2 2 -15 0 -1 0 -2)
1969-12-31 18:00:06.455482413,(-4 -11 -4 -12 -11 -12 -11 -6)
1969-12-31 18:00:06.455482413,(-4 -2 -4 -5 -15 -11 -5 -1)
1969-12-31 18:00:06.458033898,(-3 -4 -2 -20 -13 -3 -2 -3)
1969-12-31 18:00:06.458033898,(-6 2 -5 -7 -3 0 -2 -4)
1969-12-31 18:00:06.484824494,(9 14 8 16 5 4 4 6)
1969-12-31 18:00:06.484824494,(3 -10 -16 -23 -12 -6 -1 3)
1969-12-31 18:00:06.486100237,(-7 -2 6 27 17 4 -2 -3)
1969-12-31 18:00:06.486100237,(8 5 -4 -9 -2 4 3 4)
1969-12-31 18:00:06.502684892,(-8 -2 -6 -11 -3 7 6 -1)
1969-12-31 18:00:06.502684892,(8 8 17 35 16 2 0 3)
1969-12-31 18:00:06.512890833,(-4 -4 -4 -12 -12 -8 -6 -5)
1969-12-31 18:00:06.514166576,(-1 1 4 17 3 6 8 3)
1969-12-31 18:00:06.532026973,(5 -9 -18 -37 -16 -9 -3 3)
1969-12-31 18:00:06.532026973,(-3 -1 -6 -3 -1 -4 -2 -4)
1969-12-31 18:00:06.540957171,(4 0 1 -3 -6 -4 1 1)
1969-12-31 18:00:06.540957171,(-7 -1 1 -4 -3 -2 -3 -3)
1969-12-31 18:00:06.560093311,(-8 0 -1 -21 -7 -5 -7 -8)
1969-12-31 18:00:06.560093311,(-1 1 8 35 14 4 0 -1)
1969-12-31 18:00:06.571574995,(2 -5 -1 17 5 -1 -2 -1)
1969-12-31 18:00:06.571574995,(3 0 -4 -4 -3 -3 1 -1)
1969-12-31 18:00:06.579229451,(1 0 -4 -8 -10 -1 3 3)
1969-12-31 18:00:06.579229451,(-2 -4 -6 -6 7 2 -2 -4)
1969-12-31 18:00:06.590711135,(-2 0 -3 -33 -27 -4 -4 -2)
1969-12-31 18:00:06.590711135,(3 0 -11 0 9 1 -3 3)
1969-12-31 18:00:06.608571533,(1 3 4 6 14 4 2 1)
1969-12-31 18:00:06.608571533,(-1 5 15 28 6 6 1 -2)
1969-12-31 18:00:06.617501731,(-1 2 7 16 9 5 6 4)
1969-12-31 18:00:06.617501731,(3 -3 -12 -17 -15 -5 0 5)
1969-12-31 18:00:06.637913614,(-5 -3 -5 -29 -15 -7 -2 -5)
1969-12-31 18:00:06.637913614,(3 2 12 42 13 4 2 1)
1969-12-31 18:00:06.640465099,(-2 -3 0 -8 -4 -2 -2 -3)
1969-12-31 18:00:06.640465099,(0 2 7 9 0 -3 -6 -5)
1969-12-31 18:00:06.640465099,(25 8 4 14 -6 -6 2 14)
1969-12-31 18:00:06.640465099,(13 1 -33 -114 -35 -17 -9 -6)
1969-12-31 18:00:06.641740842,(-26 -19 -10 48 -11 -5 -5 -5)
1969-12-31 18:00:06.641740842,(16 22 51 104 46 23 18 17)
1969-12-31 18:00:06.657049754,(-11 -9 14 29 26 10 -1 -5)
1969-12-31 18:00:06.657049754,(-2 10 5 6 5 1 -4 -8)
1969-12-31 18:00:06.668531438,(11 -6 -8 -26 -10 -11 -1 10)
1969-12-31 18:00:06.668531438,(-63 -28 -15 -18 -17 -13 -22 -42)
1969-12-31 18:00:06.687667578,(82 39 8 14 9 20 35 55)
1969-12-31 18:00:06.687667578,(-37 -26 -19 -25 -17 -23 -33 -41)
1969-12-31 18:00:06.690219063,(-7 -8 -7 -22 -11 -5 -6 -6)
1969-12-31 18:00:06.690219063,(8 3 -4 -2 -3 0 5 7)
1969-12-31 18:00:06.717009659,(0 -5 -5 -14 0 7 15 17)
1969-12-31 18:00:06.717009659,(-23 -2 6 16 0 -9 -12 -5)
1969-12-31 18:00:06.718285402,(-19 -12 -14 -54 -22 -11 -12 -20)
1969-12-31 18:00:06.718285402,(20 7 -12 -30 -39 -20 2 10)
1969-12-31 18:00:06.733594314,(-34 -26 -17 -14 -29 -7 -12 -17)
1969-12-31 18:00:06.734870056,(48 36 48 114 107 50 33 36)
1969-12-31 18:00:06.745075998,(1 4 -2 -12 37 17 3 -4)
1969-12-31 18:00:06.745075998,(-2 0 30 74 -1 3 2 2)
1969-12-31 18:00:06.764212138,(-15 -2 5 6 -6 -13 -15 -18)
1969-12-31 18:00:06.764212138,(-2 -4 -3 -8 -22 -1 -4 -9)
1969-12-31 18:00:06.765487880,(6 -1 3 -2 17 23 33 40)
1969-12-31 18:00:06.766763623,(47 25 -22 -62 1 5 10 16)
1969-12-31 18:00:06.793554219,(-53 -24 -12 -16 -28 -20 -14 -20)
1969-12-31 18:00:06.793554219,(25 13 -7 -18 -15 -6 3 2)
1969-12-31 18:00:06.794829962,(-10 -13 -6 -16 -36 -20 -12 -11)
1969-12-31 18:00:06.794829962,(11 5 -6 -8 14 7 11 20)
1969-12-31 18:00:06.810138874,(-8 -6 -10 2 -55 -31 -10 -6)
1969-12-31 18:00:06.810138874,(-6 -5 -16 -62 35 19 3 3)
1969-12-31 18:00:06.821620558,(-1 5 20 80 19 4 -1 -5)
1969-12-31 18:00:06.821620558,(6 10 46 117 78 52 17 6)
1969-12-31 18:00:06.843308183,(-10 9 30 48 80 46 5 -21)
1969-12-31 18:00:06.843308183,(7 2 2 6 -13 11 21 27)
1969-12-31 18:00:06.844583926,(-20 -24 -39 -76 -71 -64 -52 -46)
1969-12-31 18:00:06.844583926,(-37 -27 -30 -69 -51 -28 -15 -27)
1969-12-31 18:00:06.870098779,(31 13 0 -14 -6 -32 -9 38)
1969-12-31 18:00:06.870098779,(5 32 -8 -13 -51 -35 -26 -12)
1969-12-31 18:00:06.871374522,(-87 -24 1 -6 8 3 -12 -42)
1969-12-31 18:00:06.871374522,(-23 -16 -17 -33 -29 -9 13 3)
1969-12-31 18:00:06.886683434,(7 0 -19 -48 -1 22 32 17)
1969-12-31 18:00:06.887959176,(6 -12 20 31 14 -4 -9 2)
1969-12-31 18:00:06.908371059,(29 23 48 104 -17 17 5 10)
1969-12-31 18:00:06.908371059,(21 22 27 84 65 21 2 5)
1969-12-31 18:00:06.917301258,(-13 -13 7 31 97 33 0 -16)
1969-12-31 18:00:06.917301258,(-7 -8 -3 9 22 4 0 -6)
1969-12-31 18:00:06.919852743,(12 4 -4 -1 -19 -10 -2 6)
1969-12-31 18:00:06.919852743,(-3 -9 -30 -87 -33 -14 -3 -1)
1969-12-31 18:00:06.946643339,(11 1 -10 -36 -72 -13 4 10)
1969-12-31 18:00:06.946643339,(-19 -14 -13 -1 9 -15 -24 -23)
1969-12-31 18:00:06.947919081,(26 23 19 -6 1 13 28 38)
1969-12-31 18:00:06.947919081,(-29 -24 -11 13 1 -5 -14 -22)
1969-12-31 18:00:06.963227993,(-12 -4 -6 -29 -34 -29 -17 -15)
1969-12-31 18:00:06.963227993,(-24 -18 -18 -24 -36 3 35 0)
1969-12-31 18:00:06.974709677,(3 -13 -19 -17 15 -2 -4 0)
1969-12-31 18:00:06.974709677,(-10 -1 11 24 53 23 1 -2)
1969-12-31 18:00:06.993845817,(15 16 22 32 25 17 -4 0)
1969-12-31 18:00:06.993845817,(-12 -9 -36 -86 -52 -30 -17 -16)
1969-12-31 18:00:06.996397303,(11 5 18 92 107 19 10 10)
1969-12-31 18:00:06.996397303,(3 8 33 70 46 22 1 2)
1969-12-31 18:00:07.023187899,(-4 2 22 44 36 21 1 -8)
1969-12-31 18:00:07.023187899,(12 5 -1 -38 -58 -13 -3 10)
1969-12-31 18:00:07.024463641,(6 -6 -38 -128 -98 -35 -5 2)
1969-12-31 18:00:07.024463641,(27 10 -23 -103 -1 -20 -2 14)
1969-12-31 18:00:07.041048296,(-13 -5 11 97 33 11 0 -9)
1969-12-31 18:00:07.041048296,(-3 2 16 52 42 21 8 3)
1969-12-31 18:00:07.051254237,(-1 -2 -2 -6 10 1 -7 -8)
1969-12-31 18:00:07.051254237,(7 1 -5 -23 -53 -17 -4 1)
1969-12-31 18:00:07.070390377,(-32 -29 -18 -46 -37 -14 -7 -16)
1969-12-31 18:00:07.070390377,(80 73 22 29 52 33 32 40)
1969-12-31 18:00:07.072941863,(-12 -6 -2 -6 -70 -20 -24 -24)
1969-12-31 18:00:07.072941863,(7 1 -18 -53 29 -17 -4 3)
1969-12-31 18:00:07.099732459,(5 -5 -29 -14 38 5 -1 5)
1969-12-31 18:00:07.099732459,(-15 -7 34 46 27 21 12 2)
1969-12-31 18:00:07.101008201,(4 7 6 1 -27 12 10 4)
1969-12-31 18:00:07.101008201,(11 10 17 62 6 -3 1 5)
1969-12-31 18:00:07.116317113,(-2 -1 -8 -108 -34 -13 -7 -1)
1969-12-31 18:00:07.116317113,(-14 -15 5 77 7 -5 -9 -11)
1969-12-31 18:00:07.127798797,(7 10 20 9 31 20 20 15)
1969-12-31 18:00:07.127798797,(-25 -20 -15 -33 -41 -15 -10 -12)
1969-12-31 18:00:07.157140878,(5 4 -17 -7 -2 -15 -10 -5)
1969-12-31 18:00:07.157140878,(-9 -9 -8 -31 -33 -11 -9 -6)
1969-12-31 18:00:07.158416621,(-1 -5 -13 -14 12 -5 0 -5)
1969-12-31 18:00:07.158416621,(-5 13 10 16 9 15 8 2)
1969-12-31 18:00:07.176277018,(-35 -18 7 9 5 12 10 -10)
1969-12-31 18:00:07.176277018,(58 34 4 -17 -8 4 17 40)
1969-12-31 18:00:07.177552761,(-2 -8 -7 20 7 0 -2 2)
1969-12-31 18:00:07.177552761,(-3 -3 -4 -30 -7 -1 0 -2)
1969-12-31 18:00:07.192861673,(8 0 -24 -43 -67 -29 -12 -5)
1969-12-31 18:00:07.192861673,(-32 -24 -5 10 0 -4 -8 -12)
1969-12-31 18:00:07.204343357,(-2 9 31 65 78 31 10 4)
1969-12-31 18:00:07.204343357,(20 11 7 11 29 17 10 13)
1969-12-31 18:00:07.223479497,(7 7 17 29 -14 3 3 5)
1969-12-31 18:00:07.223479497,(-10 -11 -5 -15 -22 -16 -10 -9)
1969-12-31 18:00:07.231133953,(3 -1 -13 -26 -11 -10 -6 3)
1969-12-31 18:00:07.231133953,(-20 -22 -18 -25 -42 -24 -24 -28)
1969-12-31 18:00:07.252821578,(1 13 -8 0 7 -6 -6 -8)
1969-12-31 18:00:07.252821578,(-16 -18 -10 -11 3 4 2 -5)
1969-12-31 18:00:07.254097321,(22 21 2 6 15 12 3 -2)
1969-12-31 18:00:07.254097321,(29 18 1 6 -9 -2 4 17)
1969-12-31 18:00:07.269406233,(3 -1 0 1 3 -4 -1 3)
1969-12-31 18:00:07.269406233,(-13 -15 5 14 4 2 0 -3)
1969-12-31 18:00:07.280887917,(21 15 -1 -9 12 3 1 -1)
1969-12-31 18:00:07.280887917,(19 11 -10 -8 -8 10 24 35)
1969-12-31 18:00:07.300024057,(-1 -6 4 3 -6 -6 -9 -12)
1969-12-31 18:00:07.300024057,(-37 -14 3 15 -2 -4 -11 -34)
1969-12-31 18:00:07.307678513,(-37 -25 -11 14 1 -13 -15 -17)
1969-12-31 18:00:07.307678513,(-15 10 23 52 -2 10 9 -5)
1969-12-31 18:00:07.329366138,(-14 -4 15 28 13 -8 -25 -21)
1969-12-31 18:00:07.329366138,(-12 -37 -16 -26 -7 -16 -15 -14)
1969-12-31 18:00:07.330641881,(-5 -1 -18 -32 4 18 24 4)
1969-12-31 18:00:07.330641881,(32 30 10 -4 1 14 23 28)
1969-12-31 18:00:07.345950793,(-20 -30 -9 10 16 27 41 45)
1969-12-31 18:00:07.345950793,(-10 -12 -6 -19 -19 -39 -46 -26)
1969-12-31 18:00:07.357432477,(17 14 2 -5 -10 -15 -13 -13)
1969-12-31 18:00:07.357432477,(16 0 -5 -12 -10 -7 -3 11)
1969-12-31 18:00:07.376568617,(-13 -9 -10 -12 6 15 16 -9)
1969-12-31 18:00:07.376568617,(39 23 -4 -45 -6 21 34 48)
1969-12-31 18:00:07.394429014,(32 19 -14 -14 -30 -11 7 29)
1969-12-31 18:00:07.394429014,(-56 -23 35 105 40 0 -29 -56)
1969-12-31 18:00:07.405910698,(34 29 48 79 48 10 -8 7)
1969-12-31 18:00:07.405910698,(-27 -20 14 35 27 15 3 -11)
1969-12-31 18:00:07.407186441,(26 34 8 -25 8 17 19 14)
1969-12-31 18:00:07.407186441,(-9 -16 -36 -90 -47 -24 -15 -8)
1969-12-31 18:00:07.433977037,(-53 -28 -37 -48 -25 -20 -12 -27)
1969-12-31 18:00:07.433977037,(98 58 3 8 2 25 40 66)
1969-12-31 18:00:07.436528522,(-71 -51 -7 -16 -11 -17 -29 -41)
1969-12-31 18:00:07.436528522,(-18 -11 0 18 -4 -1 4 -3)
1969-12-31 18:00:07.453113177,(23 16 -14 -46 13 14 10 16)
1969-12-31 18:00:07.453113177,(-50 -32 -22 -41 -4 -11 -7 -24)
1969-12-31 18:00:07.460767633,(56 37 29 93 12 18 20 35)
1969-12-31 18:00:07.460767633,(-17 -4 34 57 -8 -2 -18 -28)
1969-12-31 18:00:07.482455258,(10 12 15 -6 7 -3 -8 -3)
1969-12-31 18:00:07.482455258,(-22 -20 -63 -105 -39 -5 0 -6)
1969-12-31 18:00:07.483731001,(-15 -18 0 58 32 -7 -7 -5)
1969-12-31 18:00:07.483731001,(3 2 26 47 34 7 0 4)
1969-12-31 18:00:07.510521597,(44 21 14 42 -9 2 10 14)
1969-12-31 18:00:07.510521597,(2 27 10 6 14 2 -3 -7)
1969-12-31 18:00:07.513073082,(-80 -62 -34 -116 -29 -3 -12 -37)
1969-12-31 18:00:07.513073082,(23 21 -25 -23 -1 1 12 19)
1969-12-31 18:00:07.529657736,(11 -8 -2 -8 -15 -4 1 22)
1969-12-31 18:00:07.529657736,(-33 -10 8 32 -16 -13 -22 -39)
1969-12-31 18:00:07.537312192,(78 40 25 22 14 13 26 78)
1969-12-31 18:00:07.537312192,(-50 -48 -57 -128 -36 -19 -14 -26)
1969-12-31 18:00:07.558999818,(6 9 5 68 -10 -2 -1 -3)
1969-12-31 18:00:07.558999818,(8 18 58 127 49 11 0 3)
1969-12-31 18:00:07.560275560,(-20 -13 28 -7 13 12 4 -10)
1969-12-31 18:00:07.560275560,(34 19 -3 -8 14 12 9 20)
1969-12-31 18:00:07.587066156,(15 7 -15 -16 -1 -6 2 9)
1969-12-31 18:00:07.587066156,(4 -1 -20 -4 14 -9 -5 -5)
1969-12-31 18:00:07.589617642,(-19 -8 1 -34 -39 -9 -10 -21)
1969-12-31 18:00:07.589617642,(4 -7 -35 -79 -41 -9 -6 -1)
1969-12-31 18:00:07.604926554,(-11 0 9 66 -9 -12 -4 -9)
1969-12-31 18:00:07.604926554,(6 7 28 77 35 10 1 8)
1969-12-31 18:00:07.616408238,(-22 -4 4 1 57 14 -5 -16)
1969-12-31 18:00:07.616408238,(9 1 5 28 17 18 14 15)
1969-12-31 18:00:07.635544378,(36 14 2 -37 -27 5 14 32)
1969-12-31 18:00:07.635544378,(-12 2 -16 -65 -26 -20 -23 -27)
1969-12-31 18:00:07.636820120,(-13 -17 -26 -20 -21 -20 -12 -10)
1969-12-31 18:00:07.636820120,(-6 -3 14 21 -9 -3 -2 -8)
1969-12-31 18:00:07.663610716,(3 3 -7 -22 8 -3 -1 -1)
1969-12-31 18:00:07.663610716,(8 -4 -2 -17 13 6 12 17)
1969-12-31 18:00:07.666162202,(5 3 -8 -18 -32 -6 -3 -1)
1969-12-31 18:00:07.666162202,(-5 -3 1 -27 -24 -15 -14 -11)
1969-12-31 18:00:07.692952798,(-18 -16 14 64 39 12 6 -4)
1969-12-31 18:00:07.692952798,(50 40 7 11 8 7 15 40)
1969-12-31 18:00:07.694228540,(-53 -33 -15 -1 -7 -26 -44 -52)
1969-12-31 18:00:07.694228540,(3 -2 -8 -18 -5 -2 4 8)
1969-12-31 18:00:07.712088937,(3 2 -9 -49 -15 -1 0 3)
1969-12-31 18:00:07.712088937,(-28 -28 -12 -14 -15 1 8 3)
1969-12-31 18:00:07.713364680,(-23 -4 7 27 10 5 4 -12)
1969-12-31 18:00:07.713364680,(106 41 16 33 8 8 22 68)
1969-12-31 18:00:07.760567159,(-87 -46 -20 -40 -10 -16 -33 -66)
1969-12-31 18:00:07.760567159,(-3 5 7 4 -5 4 7 11)
1969-12-31 18:00:07.763118644,(-11 -19 -3 8 0 -10 -10 -16)
1969-12-31 18:00:07.763118644,(-33 -16 -5 13 14 9 4 -14)
1969-12-31 18:00:07.763118644,(-3 -3 3 -5 8 16 25 13)
1969-12-31 18:00:07.763118644,(79 29 6 -7 -7 2 17 51)
1969-12-31 18:00:07.769497357,(-12 -2 -4 4 -7 -12 -9 -11)
1969-12-31 18:00:07.769497357,(-24 -5 1 9 11 -3 -5 -19)
1969-12-31 18:00:07.788633497,(-3 -9 -2 -15 -13 -7 -10 -5)
1969-12-31 18:00:07.788633497,(-21 -8 -5 -8 -9 2 -4 -24)
1969-12-31 18:00:07.789909240,(30 22 5 10 5 7 25 54)
1969-12-31 18:00:07.789909240,(-39 -31 -6 10 -2 -18 -30 -45)
1969-12-31 18:00:07.816699836,(80 82 11 -6 7 12 17 36)
1969-12-31 18:00:07.816699836,(-11 -10 -6 -9 -7 -6 -10 -19)
1969-12-31 18:00:07.819251321,(-15 -4 0 2 0 -3 0 6)
1969-12-31 18:00:07.819251321,(7 11 0 3 7 12 4 -9)
1969-12-31 18:00:07.834560233,(10 1 0 -3 -8 -10 -11 4)
1969-12-31 18:00:07.834560233,(-23 -17 -7 -5 -7 -11 -12 -13)
1969-12-31 18:00:07.846041917,(26 15 2 2 3 4 3 1)
1969-12-31 18:00:07.846041917,(-29 -13 2 6 -7 -2 3 -2)
1969-12-31 18:00:07.865178057,(5 1 10 3 13 22 21 6)
1969-12-31 18:00:07.865178057,(-2 7 1 6 2 -10 -19 -1)
1969-12-31 18:00:07.866453800,(-8 -9 -9 -6 -11 -16 -19 -18)
1969-12-31 18:00:07.866453800,(-9 -1 -1 0 0 4 7 4)
1969-12-31 18:00:07.893244396,(4 -5 -2 -5 -5 -7 -11 2)
1969-12-31 18:00:07.893244396,(-35 -21 1 -1 -3 0 4 -14)
1969-12-31 18:00:07.893244396,(39 23 5 7 11 20 24 24)
1969-12-31 18:00:07.893244396,(-9 3 4 3 1 -1 -3 -3)
1969-12-31 18:00:07.921310734,(-16 -17 -11 -8 -3 -4 4 4)
1969-12-31 18:00:07.921310734,(-16 -6 5 3 3 9 3 -2)
1969-12-31 18:00:07.922586477,(28 18 2 -1 7 2 -2 15)
1969-12-31 18:00:07.922586477,(4 6 6 10 10 0 -3 3)
1969-12-31 18:00:07.940446874,(-65 -57 -14 -6 -10 -17 -21 -52)
1969-12-31 18:00:07.940446874,(51 60 18 2 6 21 39 57)
1969-12-31 18:00:07.941722617,(-52 -30 -6 5 2 8 2 -22)
1969-12-31 18:00:07.941722617,(15 7 -12 -29 -4 -1 1 12)
1969-12-31 18:00:07.968513213,(-10 -3 10 16 -9 -5 -10 -10)
1969-12-31 18:00:07.968513213,(5 -5 3 22 2 -7 -5 -9)
1969-12-31 18:00:07.969788956,(11 4 2 7 7 4 2 0)
1969-12-31 18:00:07.969788956,(-6 -3 1 -3 -5 -3 -1 -5)
1969-12-31 18:00:07.997855294,(24 14 -17 -34 -13 -9 -4 8)
1969-12-31 18:00:07.997855294,(-10 -14 1 3 6 11 13 1)
1969-12-31 18:00:07.999131037,(-6 -5 0 14 11 13 6 1)
1969-12-31 18:00:07.999131037,(-1 11 8 17 7 -5 -6 -5)
1969-12-31 18:00:08.016991434,(-37 -7 -10 -12 -10 -12 -17 -30)
1969-12-31 18:00:08.016991434,(-56 -39 -9 -9 -12 -13 -19 -27)
1969-12-31 18:00:08.018267177,(22 25 0 -9 -1 5 12 24)
1969-12-31 18:00:08.018267177,(11 3 -2 3 -1 -2 1 13)
1969-12-31 18:00:08.046333516,(9 12 -2 -21 -2 12 18 20)
1969-12-31 18:00:08.046333516,(-14 -10 -6 8 9 -1 -8 -17)
1969-12-31 18:00:08.046333516,(1 -4 8 6 5 8 9 6)
1969-12-31 18:00:08.046333516,(6 7 13 33 1 7 10 6)
1969-12-31 18:00:08.074399854,(24 14 10 20 10 1 -1 10)
1969-12-31 18:00:08.074399854,(-3 -8 -9 -17 -8 -13 -12 -14)
1969-12-31 18:00:08.075675597,(6 -2 -13 -39 -15 -11 -8 0)
1969-12-31 18:00:08.075675597,(15 8 -3 -7 -4 2 2 7)
1969-12-31 18:00:08.113947877,(-7 -1 12 39 12 0 -3 -6)
1969-12-31 18:00:08.113947877,(9 0 1 10 6 3 3 13)
1969-12-31 18:00:08.115223619,(-12 -16 -1 15 16 23 24 11)
1969-12-31 18:00:08.115223619,(34 41 7 -14 -2 1 13 29)
1969-12-31 18:00:08.122878075,(-7 -9 -12 -35 -18 -7 -7 -6)
1969-12-31 18:00:08.122878075,(-3 1 -16 -21 -9 -5 -3 -8)
1969-12-31 18:00:08.122878075,(22 10 9 10 -1 -1 7 19)
1969-12-31 18:00:08.122878075,(-6 -11 1 19 12 12 4 -4)
1969-12-31 18:00:08.152220156,(3 11 10 -7 -8 -6 1 12)
1969-12-31 18:00:08.152220156,(9 4 -21 -69 -42 -15 -8 -3)
1969-12-31 18:00:08.152220156,(-7 -5 3 36 29 3 0 -6)
1969-12-31 18:00:08.152220156,(-10 -4 23 66 29 12 -3 -11)
1969-12-31 18:00:08.170080554,(3 11 19 49 25 10 4 0)
1969-12-31 18:00:08.170080554,(-20 -15 -7 -18 -9 -8 -14 -18)
1969-12-31 18:00:08.171356297,(-30 -24 -19 -52 -39 -28 -23 -27)
1969-12-31 18:00:08.171356297,(-9 -8 -17 -25 -3 6 15 10)
1969-12-31 18:00:08.199422635,(65 36 2 -11 6 16 27 33)
1969-12-31 18:00:08.199422635,(-26 -12 -5 3 -9 -20 -35 -36)
1969-12-31 18:00:08.199422635,(-14 -12 -6 2 0 3 -3 -11)
1969-12-31 18:00:08.199422635,(34 29 0 -19 -8 -5 3 11)
1969-12-31 18:00:08.228764717,(-7 -5 -10 9 5 1 0 -2)
1969-12-31 18:00:08.228764717,(4 4 19 23 15 9 8 9)
1969-12-31 18:00:08.230040459,(39 28 6 11 -6 -11 -9 -2)
1969-12-31 18:00:08.230040459,(-33 -34 -29 -60 -23 -14 -19 -28)
1969-12-31 18:00:08.246625114,(-2 -5 -5 -6 1 3 12 12)
1969-12-31 18:00:08.246625114,(16 20 27 62 12 11 8 5)
1969-12-31 18:00:08.247900857,(-15 -3 11 24 20 2 -9 -9)
1969-12-31 18:00:08.247900857,(-5 -6 -2 -12 -8 -1 3 2)
1969-12-31 18:00:08.275967195,(-14 -15 -13 -22 -1 -5 -7 -11)
1969-12-31 18:00:08.275967195,(-5 -7 -9 -9 -1 -3 -1 -1)
1969-12-31 18:00:08.275967195,(57 26 4 -6 -9 6 22 44)
1969-12-31 18:00:08.275967195,(-40 -9 -6 -6 -13 -28 -40 -55)
1969-12-31 18:00:08.305309276,(-5 -7 1 5 6 7 5 6)
1969-12-31 18:00:08.305309276,(38 29 -1 0 3 8 7 3)
1969-12-31 18:00:08.305309276,(-16 -14 -5 -7 -3 -2 -5 -8)
1969-12-31 18:00:08.305309276,(-6 -9 3 4 -1 1 2 1)
1969-12-31 18:00:08.323169674,(-25 -16 -2 -4 -8 -10 -11 -10)
1969-12-31 18:00:08.323169674,(55 40 -1 -1 0 -4 4 22)
1969-12-31 18:00:08.324445416,(-26 -25 -7 -13 -6 -7 -9 -17)
1969-12-31 18:00:08.324445416,(35 25 8 9 5 6 7 23)
1969-12-31 18:00:08.352511755,(-19 -8 -2 -16 -6 -4 -12 -20)
1969-12-31 18:00:08.352511755,(-12 -19 -21 -25 -11 1 4 5)
1969-12-31 18:00:08.352511755,(11 14 6 10 6 -1 2 7)
1969-12-31 18:00:08.352511755,(-1 3 20 49 8 6 3 3)
1969-12-31 18:00:08.381853836,(3 2 15 34 14 -2 -5 -2)
1969-12-31 18:00:08.381853836,(-11 -3 8 22 1 1 -1 -3)
1969-12-31 18:00:08.381853836,(-11 -2 -11 -27 -6 -4 -5 -8)
1969-12-31 18:00:08.381853836,(-15 -20 -17 -28 -7 -1 1 -1)
1969-12-31 18:00:08.399714234,(0 5 -4 -12 -6 -4 -1 -2)
1969-12-31 18:00:08.399714234,(-19 9 -14 -20 -8 -15 -15 -3)
1969-12-31 18:00:08.400989976,(-110 -53 -7 -1 -3 -2 -27 -81)
1969-12-31 18:00:08.400989976,(0 -5 3 -3 2 3 14 29)
1969-12-31 18:00:08.427780572,(13 0 -2 -2 -2 -3 -2 0)
1969-12-31 18:00:08.427780572,(20 6 4 3 6 2 3 12)
1969-12-31 18:00:08.429056315,(9 11 2 3 -4 -3 -4 0)
1969-12-31 18:00:08.429056315,(-32 -18 -2 3 3 4 4 -9)
1969-12-31 18:00:08.467328595,(0 -10 -5 -4 -3 -4 -11 -9)
1969-12-31 18:00:08.467328595,(-17 -22 0 0 -4 0 3 -8)
1969-12-31 18:00:08.468604338,(24 9 -10 -34 -9 -3 6 18)
1969-12-31 18:00:08.468604338,(4 -3 -7 -16 -7 0 -1 -5)
1969-12-31 18:00:08.476258794,(13 12 12 37 31 15 13 17)
1969-12-31 18:00:08.476258794,(-22 -10 26 72 34 14 -2 -17)
1969-12-31 18:00:08.477534536,(31 26 13 17 -1 1 4 13)
1969-12-31 18:00:08.477534536,(19 -1 -12 -18 -13 -13 -3 13)
1969-12-31 18:00:08.505600875,(5 5 -13 -44 -26 -15 -7 -2)
1969-12-31 18:00:08.505600875,(-9 -6 -6 -23 -4 3 9 0)
1969-12-31 18:00:08.505600875,(-4 -7 -1 3 -4 -8 -5 0)
1969-12-31 18:00:08.505600875,(-8 -1 1 -5 -5 -1 -2 -7)
1969-12-31 18:00:08.523461272,(3 1 -4 7 -2 12 17 19)
1969-12-31 18:00:08.523461272,(-5 -8 -3 -16 2 -2 0 -4)
1969-12-31 18:00:08.533667213,(60 58 11 18 11 7 9 32)
1969-12-31 18:00:08.533667213,(-37 -21 4 13 5 -7 -18 -29)
1969-12-31 18:00:08.552803353,(-23 -5 0 3 -3 -5 -6 -13)
1969-12-31 18:00:08.552803353,(-8 -16 -3 -7 -11 -9 -12 -8)
1969-12-31 18:00:08.554079096,(-25 -25 -13 -15 -7 -2 -1 -6)
1969-12-31 18:00:08.554079096,(-22 0 7 9 12 8 5 -9)
1969-12-31 18:00:08.580869692,(-17 -13 -2 2 1 -2 -4 -8)
1969-12-31 18:00:08.580869692,(-14 -9 -4 -9 -4 3 0 -3)
1969-12-31 18:00:08.582145435,(7 -1 0 0 -2 -4 -1 3)
1969-12-31 18:00:08.582145435,(-3 -9 1 3 1 0 0 1)
1969-12-31 18:00:08.611487516,(46 38 -3 -5 -3 0 6 13)
1969-12-31 18:00:08.611487516,(11 5 -3 -4 -2 -2 -3 2)
1969-12-31 18:00:08.612763259,(-3 -3 3 6 1 2 0 -4)
1969-12-31 18:00:08.612763259,(10 2 -8 -19 -5 0 2 2)
1969-12-31 18:00:08.629347913,(-20 -7 -3 -6 -1 -1 -4 -13)
1969-12-31 18:00:08.629347913,(25 21 11 29 8 6 9 13)
1969-12-31 18:00:08.630623656,(-6 -4 8 20 2 -2 -2 -6)
1969-12-31 18:00:08.630623656,(-5 1 2 10 6 -4 -10 -11)
1969-12-31 18:00:08.657414252,(2 -4 -6 -15 -6 -6 -2 7)
1969-12-31 18:00:08.657414252,(-35 -30 -14 -20 -7 -7 -11 -26)
1969-12-31 18:00:08.658689995,(69 56 3 -7 -1 9 17 41)
1969-12-31 18:00:08.658689995,(27 -2 1 3 2 11 18 27)
1969-12-31 18:00:08.688032076,(4 -4 -4 -1 2 -1 -4 1)
1969-12-31 18:00:08.688032076,(4 -1 1 -2 3 2 1 4)
1969-12-31 18:00:08.689307818,(-25 -19 -4 -3 -1 -2 -2 -8)
1969-12-31 18:00:08.689307818,(4 5 -2 3 1 -1 -2 1)
1969-12-31 18:00:08.705892473,(4 3 4 4 1 4 3 2)
1969-12-31 18:00:08.705892473,(3 5 4 -10 -1 4 7 7)
1969-12-31 18:00:08.707168216,(-12 -11 -2 4 2 -4 -5 -9)
1969-12-31 18:00:08.707168216,(-17 -3 1 3 0 1 -5 -13)
1969-12-31 18:00:08.733958812,(-22 -20 -3 5 -2 -9 -11 -11)
1969-12-31 18:00:08.733958812,(-1 15 8 1 7 13 21 26)
1969-12-31 18:00:08.735234554,(-52 -22 3 1 0 1 -6 -23)
1969-12-31 18:00:08.735234554,(77 44 8 -1 0 4 12 27)
1969-12-31 18:00:08.763300893,(18 3 0 0 -1 0 1 8)
1969-12-31 18:00:08.763300893,(-6 -7 -5 -7 -6 -11 -7 -5)
1969-12-31 18:00:08.764576636,(10 4 -3 -2 2 4 1 -1)
1969-12-31 18:00:08.764576636,(-31 -18 -5 -1 -3 -5 -9 -15)
1969-12-31 18:00:08.782437033,(-13 -9 1 1 -3 0 2 -4)
1969-12-31 18:00:08.782437033,(16 9 -1 -4 0 2 3 7)
1969-12-31 18:00:08.783712776,(-14 -13 -1 -2 -2 -6 -6 -9)
1969-12-31 18:00:08.783712776,(4 2 -5 -3 -4 -3 0 -1)
1969-12-31 18:00:08.811779114,(6 9 6 6 2 1 2 -1)
1969-12-31 18:00:08.811779114,(-13 -11 -5 1 2 1 -3 -9)
1969-12-31 18:00:08.811779114,(0 4 3 0 -3 -2 -1 -1)
1969-12-31 18:00:08.811779114,(-6 -4 -5 -8 -3 -1 -2 -3)
1969-12-31 18:00:08.841121196,(-2 2 2 -1 -5 -2 0 -2)
1969-12-31 18:00:08.841121196,(-4 -2 -9 -25 5 -1 -1 0)
1969-12-31 18:00:08.841121196,(5 -2 4 20 4 7 4 5)
1969-12-31 18:00:08.841121196,(-3 3 8 19 -5 -3 -5 -6)
1969-12-31 18:00:08.858981593,(-17 -10 1 2 0 -2 -6 -11)
1969-12-31 18:00:08.858981593,(6 3 0 5 6 2 0 1)
1969-12-31 18:00:08.860257336,(4 -3 -4 -6 6 -1 0 1)
1969-12-31 18:00:08.860257336,(-2 -1 -4 -8 5 3 3 2)
1969-12-31 18:00:08.887047931,(0 9 19 0 -29 -5 2 2)
1969-12-31 18:00:08.887047931,(-1 1 8 11 11 4 -1 -5)
1969-12-31 18:00:08.888323674,(14 -4 -38 -12 13 -1 4 11)
1969-12-31 18:00:08.888323674,(-31 -33 -27 -8 -6 -14 -18 -22)
1969-12-31 18:00:08.917665755,(-9 -1 8 -2 7 2 -2 -5)
1969-12-31 18:00:08.917665755,(6 13 27 10 -9 8 9 6)
1969-12-31 18:00:08.918941498,(2 4 -4 -14 -17 -1 4 4)
1969-12-31 18:00:08.918941498,(7 -3 -39 -40 -9 -10 -2 4)
1969-12-31 18:00:08.935526153,(-3 -5 9 25 -2 -8 -5 -3)
1969-12-31 18:00:08.935526153,(-9 7 28 36 14 4 -7 -12)
1969-12-31 18:00:08.936801895,(5 11 36 39 22 16 9 3)
1969-12-31 18:00:08.936801895,(5 4 2 5 2 6 2 6)
1969-12-31 18:00:08.963592491,(-7 -12 -25 -32 -6 -4 -3 -3)
1969-12-31 18:00:08.963592491,(5 4 6 -23 -7 4 9 5)
1969-12-31 18:00:08.964868234,(-3 -8 -20 -8 -25 -24 -12 -4)
1969-12-31 18:00:08.964868234,(-3 -1 28 25 18 0 -3 -4)
1969-12-31 18:00:08.994210315,(-5 4 -6 5 10 10 0 -4)
1969-12-31 18:00:08.994210315,(3 -7 -35 0 13 7 4 3)
1969-12-31 18:00:08.995486058,(-6 -11 -9 -21 -7 -4 -3 -4)
1969-12-31 18:00:08.995486058,(3 -2 -4 -13 -22 -13 -2 0)
1969-12-31 18:00:09.012070713,(-3 6 25 8 7 3 -2 -3)
1969-12-31 18:00:09.012070713,(2 6 8 -2 -9 -1 -3 -2)
1969-12-31 18:00:09.013346455,(8 15 33 3 -2 13 11 7)
1969-12-31 18:00:09.013346455,(6 2 -26 14 8 1 1 3)
1969-12-31 18:00:09.041412794,(-6 -21 -36 -35 -11 -18 -9 -3)
1969-12-31 18:00:09.041412794,(-10 -6 -1 -9 -14 -11 -9 -10)
1969-12-31 18:00:09.041412794,(-2 -4 3 33 7 4 2 0)
1969-12-31 18:00:09.041412794,(-4 8 51 44 19 11 2 -6)
1969-12-31 18:00:09.070754875,(13 15 1 35 19 13 10 8)
1969-12-31 18:00:09.070754875,(0 -21 -48 -45 -20 -16 -3 1)
1969-12-31 18:00:09.070754875,(-12 -5 8 -26 -10 -9 -5 -7)
1969-12-31 18:00:09.072030618,(6 16 11 -4 -6 4 5 3)
1969-12-31 18:00:09.088615272,(5 -4 -8 -6 5 8 5 4)
1969-12-31 18:00:09.088615272,(1 3 23 22 6 4 1 1)
1969-12-31 18:00:09.089891015,(-3 -2 -8 -20 -3 2 0 -2)
1969-12-31 18:00:09.089891015,(-4 -12 -28 -8 -11 -11 -8 -3)
1969-12-31 18:00:09.116681611,(-6 -7 -8 -11 -7 -16 -10 -5)
1969-12-31 18:00:09.117957354,(0 2 1 5 -1 -3 -2 -3)
1969-12-31 18:00:09.117957354,(2 10 24 11 3 7 2 1)
1969-12-31 18:00:09.117957354,(6 3 -9 -10 3 10 7 6)
1969-12-31 18:00:09.146023692,(-1 -4 0 3 2 0 4 2)
1969-12-31 18:00:09.146023692,(-2 7 24 0 -8 -6 -3 -4)
1969-12-31 18:00:09.147299435,(-3 -10 -32 -8 2 -6 -3 -5)
1969-12-31 18:00:09.147299435,(-4 -3 6 15 2 0 -2 -2)
1969-12-31 18:00:09.165159832,(10 7 6 10 10 9 6 6)
1969-12-31 18:00:09.165159832,(-10 -13 -17 -8 1 0 -4 -5)
1969-12-31 18:00:09.166435575,(-1 5 4 -14 -6 1 -3 0)
1969-12-31 18:00:09.166435575,(1 3 -3 -11 -3 4 1 3)
1969-12-31 18:00:09.194501914,(-1 -2 5 -4 -5 -1 0 -3)
1969-12-31 18:00:09.194501914,(3 9 4 5 -1 1 -1 2)
1969-12-31 18:00:09.194501914,(5 2 2 -1 2 3 2 2)
1969-12-31 18:00:09.194501914,(-3 2 1 -15 0 8 3 0)
1969-12-31 18:00:09.223843995,(3 4 5 -5 -4 1 0 2)
1969-12-31 18:00:09.223843995,(3 -3 -9 -3 -5 -4 2 -1)
1969-12-31 18:00:09.225119738,(-9 -8 -14 22 15 2 -3 -5)
1969-12-31 18:00:09.225119738,(-2 6 22 -16 -2 -2 2 -1)
1969-12-31 18:00:09.241704392,(-3 1 -4 8 0 3 2 -1)
1969-12-31 18:00:09.241704392,(3 -4 -4 11 4 -5 -2 3)
1969-12-31 18:00:09.242980135,(-6 -5 1 -7 -7 -10 -7 -6)
1969-12-31 18:00:09.242980135,(-4 -5 6 0 0 -7 0 -2)
1969-12-31 18:00:09.269770731,(5 -8 -24 -7 -7 -3 -1 3)
1969-12-31 18:00:09.269770731,(-8 -10 -16 3 14 -7 -5 -5)
1969-12-31 18:00:09.271046473,(0 1 4 -1 2 2 2 2)
1969-12-31 18:00:09.271046473,(3 0 -3 1 -5 -2 -1 2)
1969-12-31 18:00:09.300388555,(0 6 8 -2 -3 -4 -2 -4)
1969-12-31 18:00:09.300388555,(0 -2 -4 -1 -13 -7 -4 -3)
1969-12-31 18:00:09.300388555,(1 -2 -3 9 2 -2 -2 -1)
1969-12-31 18:00:09.300388555,(-8 -1 2 -6 -3 -7 -8 -6)
1969-12-31 18:00:09.318248952,(2 -1 -3 -7 -3 10 10 8)
1969-12-31 18:00:09.318248952,(-1 0 1 5 4 7 1 2)
1969-12-31 18:00:09.319524695,(2 6 7 -8 -1 2 -1 1)
1969-12-31 18:00:09.319524695,(5 0 -11 12 0 4 0 4)
1969-12-31 18:00:09.347591033,(-2 -2 10 -6 4 0 -2 0)
1969-12-31 18:00:09.347591033,(-7 -2 3 -16 -10 -7 -7 -6)
1969-12-31 18:00:09.347591033,(0 -2 2 33 7 3 5 3)
1969-12-31 18:00:09.347591033,(-3 -6 -8 -16 -7 3 4 -1)
1969-12-31 18:00:09.385863313,(-3 -3 -4 8 -13 -5 -5 -5)
1969-12-31 18:00:09.385863313,(1 -1 4 19 28 11 6 2)
1969-12-31 18:00:09.387139056,(2 -4 -14 -24 -2 -2 -3 0)
1969-12-31 18:00:09.387139056,(1 -3 -1 4 4 1 1 0)
1969-12-31 18:00:09.404999453,(-5 1 0 -5 -9 -4 -3 -3)
1969-12-31 18:00:09.404999453,(-1 -2 -3 -9 -13 -8 -5 -1)
1969-12-31 18:00:09.406275196,(-1 1 0 -5 -8 -7 -6 -2)
1969-12-31 18:00:09.406275196,(-2 0 1 -2 1 1 0 -1)
1969-12-31 18:00:09.422859851,(-3 0 6 -3 -2 -4 -3 -2)
1969-12-31 18:00:09.424135593,(3 1 0 10 -6 -3 -1 -2)
1969-12-31 18:00:09.424135593,(0 -2 -3 -12 7 1 4 -1)
1969-12-31 18:00:09.424135593,(10 4 5 23 10 3 3 5)
1969-12-31 18:00:09.453477675,(-2 -1 6 15 9 1 1 -2)
1969-12-31 18:00:09.453477675,(3 3 -5 -7 1 -1 -2 -2)
1969-12-31 18:00:09.453477675,(-2 -2 3 -10 -12 0 1 -2)
1969-12-31 18:00:09.453477675,(-3 -4 -8 -15 -20 -9 -7 -6)
1969-12-31 18:00:09.470062329,(2 4 6 16 27 4 3 3)
1969-12-31 18:00:09.470062329,(-4 -2 -6 -6 -10 -2 -2 1)
1969-12-31 18:00:09.481544013,(-3 -2 -8 -32 -15 -1 0 0)
1969-12-31 18:00:09.481544013,(0 7 16 43 15 8 2 0)
1969-12-31 18:00:09.499404410,(-5 1 2 1 12 4 -1 -5)
1969-12-31 18:00:09.499404410,(4 2 -1 -1 5 7 6 5)
1969-12-31 18:00:09.500680153,(-1 -3 -8 -20 -11 -4 -3 -1)
1969-12-31 18:00:09.500680153,(0 0 -1 -8 -7 -4 -3 -1)
1969-12-31 18:00:09.530022234,(-1 1 2 -3 -9 1 2 1)
1969-12-31 18:00:09.530022234,(2 -1 -4 -13 -6 3 0 0)
1969-12-31 18:00:09.531297977,(0 2 2 9 -4 -1 0 0)
1969-12-31 18:00:09.531297977,(-7 -5 -7 -21 -8 3 2 -2)
1969-12-31 18:00:09.546606889,(7 7 12 9 28 9 1 4)
1969-12-31 18:00:09.546606889,(-1 3 15 35 8 4 1 -2)
1969-12-31 18:00:09.558088573,(-1 -1 -2 1 3 -1 -2 -2)
1969-12-31 18:00:09.558088573,(-3 -2 -5 -8 -11 -9 -3 -3)
1969-12-31 18:00:09.575948970,(-5 -8 -21 -56 -21 -7 -1 -1)
1969-12-31 18:00:09.575948970,(0 -1 2 18 2 -4 -1 0)
1969-12-31 18:00:09.577224713,(-6 -1 14 49 19 1 -3 -5)
1969-12-31 18:00:09.577224713,(-3 -4 -1 -5 1 -5 -4 -3)
1969-12-31 18:00:09.606566794,(-2 -3 -7 -2 -7 -3 -1 -3)
1969-12-31 18:00:09.606566794,(-1 -2 -6 -19 -6 -3 -1 0)
1969-12-31 18:00:09.606566794,(0 -3 -3 -5 -4 -5 0 0)
1969-12-31 18:00:09.606566794,(2 0 0 4 4 -1 -2 1)
1969-12-31 18:00:09.623151449,(-1 -1 -3 -2 -12 0 1 0)
1969-12-31 18:00:09.623151449,(1 -2 -5 -8 1 -8 -2 -1)
1969-12-31 18:00:09.634633133,(3 -1 -11 -18 -26 -3 -2 2)
1969-12-31 18:00:09.634633133,(-1 -1 -3 -11 18 -4 -6 -3)
1969-12-31 18:00:09.652493530,(1 7 25 50 13 9 0 1)
1969-12-31 18:00:09.652493530,(-3 1 8 28 24 14 1 -2)
1969-12-31 18:00:09.653769273,(-1 -1 4 3 3 3 0 -1)
1969-12-31 18:00:09.653769273,(2 -1 -5 -20 -13 -2 0 -1)
1969-12-31 18:00:09.683111354,(-3 -4 -12 -23 -12 -8 -4 -3)
1969-12-31 18:00:09.683111354,(-2 0 0 -8 -10 -3 -2 -1)
1969-12-31 18:00:09.683111354,(-1 0 -3 -2 6 1 0 -1)
1969-12-31 18:00:09.683111354,(0 0 -2 0 -4 1 3 1)
1969-12-31 18:00:09.699696009,(1 -1 -1 3 2 -1 2 -1)
1969-12-31 18:00:09.699696009,(1 0 -2 -3 -4 1 1 2)
1969-12-31 18:00:09.711177693,(-2 -1 0 0 0 0 -1 -2)
1969-12-31 18:00:09.711177693,(0 1 4 3 2 1 2 3)
1969-12-31 18:00:09.729038090,(-2 -3 -3 5 2 0 -1 -3)
1969-12-31 18:00:09.729038090,(0 1 -2 -14 -7 -2 0 -2)
1969-12-31 18:00:09.740519774,(0 -1 -2 3 4 1 2 3)
1969-12-31 18:00:09.740519774,(-2 2 5 12 6 0 -3 -3)
1969-12-31 18:00:09.759655914,(2 0 -3 -8 -5 0 4 5)
1969-12-31 18:00:09.759655914,(-2 -1 -2 -4 -5 -1 0 1)
1969-12-31 18:00:09.760931657,(0 0 1 0 1 -2 -1 0)
1969-12-31 18:00:09.760931657,(-1 0 1 3 0 1 1 -1)
1969-12-31 18:00:09.787722253,(-2 -3 -2 -1 -2 -2 -4 -3)
1969-12-31 18:00:09.787722253,(1 -1 -3 -7 -3 -1 0 1)
1969-12-31 18:00:09.790273738,(1 1 3 5 3 -1 -4 -2)
1969-12-31 18:00:09.790273738,(2 -1 -1 -1 0 3 5 3)
1969-12-31 18:00:09.805582650,(2 -1 -1 -3 -2 -2 -1 1)
1969-12-31 18:00:09.805582650,(-1 -1 0 -1 -1 1 0 1)
1969-12-31 18:00:09.815788591,(0 1 0 2 2 0 -1 -1)
1969-12-31 18:00:09.815788591,(-1 1 0 -1 -1 1 -1 0)
1969-12-31 18:00:09.836200474,(-3 0 -1 -1 -1 -1 -3 -1)
1969-12-31 18:00:09.836200474,(-1 -1 0 1 0 -2 -3 -2)
1969-12-31 18:00:09.837476217,(1 1 0 -1 0 -2 0 1)
1969-12-31 18:00:09.837476217,(1 2 1 0 0 1 1 0)
1969-12-31 18:00:09.864266812,(-4 -4 0 0 3 -2 -4 -4)
1969-12-31 18:00:09.864266812,(2 0 -2 -5 -2 -1 1 2)
1969-12-31 18:00:09.866818298,(0 -3 0 0 0 -4 -2 -1)
1969-12-31 18:00:09.866818298,(-1 0 0 3 -1 -1 0 1)
1969-12-31 18:00:09.882127210,(-3 -1 -2 0 0 -2 -7 -5)
1969-12-31 18:00:09.882127210,(-3 -2 -2 -1 0 -3 -6 -5)
1969-12-31 18:00:09.893608894,(3 0 -1 -2 -1 2 5 4)
1969-12-31 18:00:09.893608894,(-1 -1 1 0 0 0 0 -2)
1969-12-31 18:00:09.912745034,(0 -1 -1 -1 -1 -1 -2 -1)
1969-12-31 18:00:09.912745034,(-1 -1 -1 -1 -2 -2 -1 1)
1969-12-31 18:00:09.914020776,(-2 0 0 1 -1 1 1 2)
1969-12-31 18:00:09.914020776,(1 1 1 0 1 0 -3 1)
1969-12-31 18:00:09.940811372,(0 0 -1 -3 -2 0 0 0)
1969-12-31 18:00:09.940811372,(1 1 1 1 0 1 0 1)
1969-12-31 18:00:09.943362858,(-3 -3 0 1 2 -2 -2 -2)
1969-12-31 18:00:09.943362858,(1 -1 -1 -1 -1 0 3 4)
1969-12-31 18:00:09.958671770,(-1 0 -2 0 1 -2 -2 -1)
1969-12-31 18:00:09.958671770,(-1 0 -1 -1 0 -1 -2 -2)
1969-12-31 18:00:09.970153454,(2 -1 -1 -2 -2 4 7 3)
1969-12-31 18:00:09.970153454,(-2 -1 1 2 1 -1 -3 -2)
1969-12-31 18:00:09.989289594,(3 -1 -2 -1 -1 -1 2 2)
1969-12-31 18:00:09.989289594,(-1 -3 -2 -2 1 -1 -1 -2)
1969-12-31 18:00:09.990565336,(-2 0 -2 1 0 -1 -4 -3)
1969-12-31 18:00:09.990565336,(1 -1 1 -1 0 -3 -2 0)
1969-12-31 18:00:10.016080190,(1 -1 -1 -2 -1 2 2 2)
1969-12-31 18:00:10.016080190,(0 -1 0 1 2 -1 0 0)
1969-12-31 18:00:10.027561874,(-1 -1 0 -1 -1 -3 -4 -3)
1969-12-31 18:00:10.027561874,(-1 0 -1 -1 0 -1 -1 -3)
1969-12-31 18:00:10.035216330,(2 1 0 -1 -3 1 4 3)
1969-12-31 18:00:10.035216330,(-1 -2 -1 -2 -3 -1 4 3)
1969-12-31 18:00:10.046698013,(-1 -1 -3 -1 1 -1 -4 -3)
1969-12-31 18:00:10.046698013,(-1 0 0 -1 -2 0 2 0)
1969-12-31 18:00:10.065834153,(-2 -2 0 -2 -2 0 -2 -2)
1969-12-31 18:00:10.065834153,(1 1 -1 -1 -1 0 -1 0)
1969-12-31 18:00:10.067109896,(-1 0 -1 -1 -1 -1 1 0)
1969-12-31 18:00:10.067109896,(0 -1 0 1 1 2 -2 -1)
1969-12-31 18:00:10.093900492,(-2 -2 -2 0 0 0 -3 -2)
1969-12-31 18:00:10.093900492,(1 0 1 1 2 0 -1 0)
1969-12-31 18:00:10.095176235,(0 -2 -1 0 0 1 0 -2)
1969-12-31 18:00:10.096451977,(-1 0 -2 -1 -1 -3 1 1)
1969-12-31 18:00:10.111760889,(2 0 0 1 -1 -2 0 1)
1969-12-31 18:00:10.111760889,(-3 -2 -1 0 -1 0 -1 0)
1969-12-31 18:00:10.123242573,(1 -1 0 1 0 -1 1 0)
1969-12-31 18:00:10.123242573,(-1 -1 0 -1 -2 -1 -3 -4)
1969-12-31 18:00:10.123242573,(-1 1 -5 -40 -19 2 0 1)
1969-12-31 18:00:10.123242573,(2 4 -6 9 11 1 1 -2)
1969-12-31 18:00:10.125794059,(2 -7 -14 -28 -22 -6 1 0)
1969-12-31 18:00:10.125794059,(-3 -4 1 9 3 -4 -2 -3)
1969-12-31 18:00:10.150033169,(-3 -1 13 10 11 -2 -1 -3)
1969-12-31 18:00:10.150033169,(5 2 -7 21 18 4 4 6)
1969-12-31 18:00:10.152584655,(-1 -9 -11 -21 -18 -8 -4 1)
1969-12-31 18:00:10.152584655,(-5 4 9 11 11 -5 -4 -4)
1969-12-31 18:00:10.167893566,(-1 8 12 24 0 5 1 -4)
1969-12-31 18:00:10.167893566,(-1 -10 -5 3 4 0 -1 1)
1969-12-31 18:00:10.179375251,(-6 -13 -17 -30 -19 -8 -3 4)
1969-12-31 18:00:10.179375251,(3 5 8 14 6 4 4 0)
1969-12-31 18:00:10.198511391,(18 16 13 13 5 6 3 3)
1969-12-31 18:00:10.198511391,(-25 -18 -10 1 4 -6 -8 -14)
1969-12-31 18:00:10.199787132,(-20 -11 -5 -7 -6 -7 -8 -13)
1969-12-31 18:00:10.199787132,(15 3 3 9 0 -1 2 6)
1969-12-31 18:00:10.226577729,(34 6 2 2 -1 3 5 15)
1969-12-31 18:00:10.226577729,(-5 5 -2 4 9 1 6 5)
1969-12-31 18:00:10.229129215,(3 -12 -6 -6 -12 -9 -3 -4)
1969-12-31 18:00:10.229129215,(-20 17 13 14 11 12 1 -17)
1969-12-31 18:00:10.244438126,(10 -2 -2 -5 -6 -3 -3 -2)
1969-12-31 18:00:10.244438126,(3 2 0 -2 4 5 1 7)
1969-12-31 18:00:10.254644068,(10 3 0 -8 -4 6 2 2)
1969-12-31 18:00:10.255919810,(-15 -13 -3 -5 -2 0 -1 -4)
1969-12-31 18:00:10.273780208,(3 11 3 1 6 9 5 6)
1969-12-31 18:00:10.273780208,(-1 2 2 6 6 4 0 0)
1969-12-31 18:00:10.276331693,(10 11 -2 -7 -6 -1 1 2)
1969-12-31 18:00:10.276331693,(0 -6 -2 -1 -3 -3 1 6)
1969-12-31 18:00:10.303122289,(-21 -16 -3 0 -4 -3 -2 -7)
1969-12-31 18:00:10.303122289,(12 12 1 3 0 -4 -6 -7)
1969-12-31 18:00:10.305673774,(5 6 1 -5 0 -2 -3 -4)
1969-12-31 18:00:10.305673774,(6 -2 -1 1 -1 -3 -2 4)
1969-12-31 18:00:10.320982686,(-24 -8 0 4 0 2 0 -8)
1969-12-31 18:00:10.320982686,(14 12 0 -1 3 1 2 1)
1969-12-31 18:00:10.332464370,(-20 -19 -17 -44 -33 -8 1 0)
1969-12-31 18:00:10.332464370,(11 -2 -5 -39 -16 -6 1 8)
1969-12-31 18:00:10.352876253,(-13 1 25 97 68 16 1 -9)
1969-12-31 18:00:10.352876253,(0 4 3 6 10 6 1 -3)
1969-12-31 18:00:10.355427738,(0 5 5 9 4 -1 -3 -3)
1969-12-31 18:00:10.355427738,(3 -10 -24 -86 -21 -8 0 4)
1969-12-31 18:00:10.379666849,(-3 4 -17 -48 -46 -11 -2 1)
1969-12-31 18:00:10.379666849,(14 7 33 109 38 7 3 3)
1969-12-31 18:00:10.382218334,(-28 -6 11 35 26 4 -3 -6)
1969-12-31 18:00:10.382218334,(9 6 9 17 2 8 6 5)
1969-12-31 18:00:10.397527246,(-12 -2 -9 -50 -8 -3 -2 -9)
1969-12-31 18:00:10.397527246,(25 -16 -19 -50 -23 -14 -10 7)
1969-12-31 18:00:10.409008930,(-9 6 -1 -6 -11 -11 -6 -8)
1969-12-31 18:00:10.409008930,(-13 -6 2 16 8 -2 -1 -4)
1969-12-31 18:00:10.428145070,(-18 -13 -9 -15 -14 -15 -15 -17)
1969-12-31 18:00:10.428145070,(-9 -1 -12 -24 -10 3 8 11)
1969-12-31 18:00:10.429420813,(28 5 5 -5 7 10 8 15)
1969-12-31 18:00:10.429420813,(-16 2 12 39 17 7 2 -4)
1969-12-31 18:00:10.456211409,(12 -3 -8 6 -5 -1 1 5)
1969-12-31 18:00:10.456211409,(-32 -1 4 2 -5 -3 -4 -18)
1969-12-31 18:00:10.458762894,(49 9 7 -2 11 7 10 27)
1969-12-31 18:00:10.458762894,(-28 -6 2 9 -7 -11 -21 -29)
1969-12-31 18:00:10.474071806,(30 -1 -16 -45 -13 0 10 19)
1969-12-31 18:00:10.474071806,(17 14 -7 -6 -7 -5 4 13)
1969-12-31 18:00:10.485553490,(-14 -15 -9 -3 1 0 -3 -2)
1969-12-31 18:00:10.485553490,(-10 -9 13 40 5 -4 -2 -4)
1969-12-31 18:00:10.504689630,(-30 -2 13 20 4 -1 -9 -26)
1969-12-31 18:00:10.504689630,(-11 -16 -11 -13 2 -2 0 -1)
1969-12-31 18:00:10.505965373,(24 14 -5 -34 -10 -10 -8 -5)
1969-12-31 18:00:10.505965373,(22 1 -1 26 1 -2 1 8)
1969-12-31 18:00:10.532755969,(14 7 -5 -12 -6 -4 0 5)
1969-12-31 18:00:10.532755969,(-29 -13 3 -3 -5 -1 -5 -13)
1969-12-31 18:00:10.535307454,(-21 -11 2 25 9 7 4 -11)
1969-12-31 18:00:10.535307454,(72 35 8 -26 1 7 7 23)
1969-12-31 18:00:10.550616366,(10 1 -5 20 1 -6 -2 3)
1969-12-31 18:00:10.550616366,(-5 3 0 -5 -10 -5 3 7)
1969-12-31 18:00:10.560822307,(-14 -5 1 18 7 4 -1 -5)
1969-12-31 18:00:10.562098050,(-13 -7 -26 -88 -22 -1 7 6)
1969-12-31 18:00:10.581234190,(-5 -6 -1 36 -18 -2 3 2)
1969-12-31 18:00:10.581234190,(19 14 29 69 23 6 3 8)
1969-12-31 18:00:10.582509933,(-17 -2 -4 -41 8 2 -2 -7)
1969-12-31 18:00:10.582509933,(0 2 13 73 19 8 3 3)
1969-12-31 18:00:10.609300529,(-1 4 30 33 23 6 -3 1)
1969-12-31 18:00:10.609300529,(-33 -18 -8 -15 -12 -7 -7 -20)
1969-12-31 18:00:10.611852014,(45 21 -3 -2 -13 -1 8 26)
1969-12-31 18:00:10.611852014,(-24 -13 -22 -53 -10 -2 -6 -14)
1969-12-31 18:00:10.638642610,(14 1 -14 -25 -7 0 10 20)
1969-12-31 18:00:10.638642610,(-10 -8 -12 -28 -7 -5 -6 -11)
1969-12-31 18:00:10.639918352,(1 -8 1 12 -5 -4 -3 -2)
1969-12-31 18:00:10.639918352,(1 1 1 -11 4 6 12 8)
1969-12-31 18:00:10.656503006,(-37 -13 1 14 2 0 -6 -15)
1969-12-31 18:00:10.656503006,(32 15 -1 -44 -9 6 6 10)
1969-12-31 18:00:10.665433206,(-9 -2 -12 -16 -8 -7 -7 -7)
1969-12-31 18:00:10.665433206,(1 -2 11 62 2 -2 -1 1)
1969-12-31 18:00:10.685845088,(-3 2 21 48 35 9 4 1)
1969-12-31 18:00:10.685845088,(-10 -5 0 -2 8 3 -5 -9)
1969-12-31 18:00:10.688396574,(23 13 -6 -35 -19 -3 -3 2)
1969-12-31 18:00:10.688396574,(-11 -8 -5 -9 -16 -14 -12 -9)
1969-12-31 18:00:10.703705486,(1 -2 -13 -32 -24 -10 -1 1)
1969-12-31 18:00:10.703705486,(8 0 -8 -6 -11 -17 -4 2)
1969-12-31 18:00:10.715187170,(-16 -8 -15 -49 -6 4 -5 -5)
1969-12-31 18:00:10.715187170,(0 1 14 44 60 25 11 0)
1969-12-31 18:00:10.733047567,(-5 -1 11 15 20 28 10 -1)
1969-12-31 18:00:10.733047567,(28 13 25 44 -3 8 11 16)
1969-12-31 18:00:10.741977766,(2 14 10 26 0 -8 -5 -1)
1969-12-31 18:00:10.741977766,(-7 -8 -17 -33 -40 -30 -23 -16)
1969-12-31 18:00:10.762389648,(30 12 -12 -40 -8 -6 12 22)
1969-12-31 18:00:10.762389648,(-12 -13 -13 -24 -15 -6 1 -12)
1969-12-31 18:00:10.764941134,(-20 -8 3 18 -11 -11 -16 -10)
1969-12-31 18:00:10.764941134,(9 1 -14 -60 -4 3 12 10)
1969-12-31 18:00:10.780250046,(-2 0 1 32 10 13 9 5)
1969-12-31 18:00:10.780250046,(1 5 12 36 29 11 0 1)
1969-12-31 18:00:10.791731730,(-2 2 15 44 3 -11 -13 -8)
1969-12-31 18:00:10.791731730,(-4 -4 -5 -24 -28 -15 -11 -10)
1969-12-31 18:00:10.819798068,(-7 -6 -7 -29 11 -2 -6 -4)
1969-12-31 18:00:10.819798068,(5 8 -1 -4 19 11 -3 -1)
1969-12-31 18:00:10.822349553,(-11 -7 3 16 19 10 0 -6)
1969-12-31 18:00:10.822349553,(-3 -5 1 -3 3 16 30 13)
1969-12-31 18:00:10.838934208,(8 -1 -21 -41 -41 -10 5 12)
1969-12-31 18:00:10.838934208,(2 -7 -40 -74 -19 -8 -4 0)
1969-12-31 18:00:10.841485693,(-3 4 40 98 5 0 -5 -4)
1969-12-31 18:00:10.841485693,(-4 10 40 74 24 1 -16 -12)
1969-12-31 18:00:10.856794605,(-3 0 8 15 14 0 -4 -9)
1969-12-31 18:00:10.856794605,(-5 -5 -14 -56 -6 -2 -3 1)
1969-12-31 18:00:10.868276289,(-2 -7 -25 -31 -9 -6 2 0)
1969-12-31 18:00:10.868276289,(-2 -2 -7 1 -12 -2 5 7)
1969-12-31 18:00:10.886136687,(-2 -8 -1 -6 -7 -10 -8 0)
1969-12-31 18:00:10.886136687,(-4 3 2 -6 4 5 0 -10)
1969-12-31 18:00:10.895066885,(-4 -5 -10 -38 -20 -6 4 -2)
1969-12-31 18:00:10.895066885,(5 2 1 22 12 4 1 3)
1969-12-31 18:00:10.915478768,(-5 -2 7 26 3 2 -6 -6)
1969-12-31 18:00:10.915478768,(-1 0 9 30 13 1 0 5)
1969-12-31 18:00:10.918030253,(11 6 3 7 6 9 9 8)
1969-12-31 18:00:10.918030253,(4 1 -7 -29 6 1 -1 6)
1969-12-31 18:00:10.933339165,(-2 -4 -6 -16 -24 -20 -18 -15)
1969-12-31 18:00:10.933339165,(-13 -4 -2 -34 -18 -5 -2 -7)
1969-12-31 18:00:10.944820849,(12 1 -20 10 13 6 10 8)
1969-12-31 18:00:10.944820849,(-7 2 11 34 5 3 2 1)
1969-12-31 18:00:10.962681247,(-14 -2 18 20 4 -3 -10 -18)
1969-12-31 18:00:10.962681247,(2 5 6 25 3 -2 5 14)
1969-12-31 18:00:10.971611445,(15 5 2 -25 7 3 0 -4)
1969-12-31 18:00:10.971611445,(-11 -12 -17 -22 -11 -6 -8 -9)
1969-12-31 18:00:10.992023328,(26 13 -4 1 0 2 4 12)
1969-12-31 18:00:10.992023328,(-22 -15 -8 -5 -6 -8 -8 -10)
1969-12-31 18:00:10.994574813,(-5 -4 0 -14 -4 2 7 6)
1969-12-31 18:00:10.994574813,(17 12 8 18 -1 0 0 5)
1969-12-31 18:00:11.021365409,(-16 -6 2 1 5 2 -1 -5)
1969-12-31 18:00:11.021365409,(9 0 -3 -5 -3 -5 -8 -5)
1969-12-31 18:00:11.022641152,(-2 -1 -9 -11 -4 0 5 1)
1969-12-31 18:00:11.022641152,(-5 11 20 35 17 14 11 1)
1969-12-31 18:00:11.039225806,(-25 -15 -2 -12 -1 -9 -10 -11)
1969-12-31 18:00:11.039225806,(37 16 -3 9 -2 0 2 8)
1969-12-31 18:00:11.057086204,(-13 -9 -4 -1 -1 -2 -2 -3)
1969-12-31 18:00:11.057086204,(8 -4 -10 -22 -8 -6 -9 -4)
1969-12-31 18:00:11.068567888,(-16 -3 -2 -12 -1 3 8 5)
1969-12-31 18:00:11.068567888,(27 28 6 17 2 7 4 3)
1969-12-31 18:00:11.071119373,(1 -13 0 -3 -3 -4 -5 4)
1969-12-31 18:00:11.071119373,(-28 -10 -5 -3 0 -1 -1 -8)
1969-12-31 18:00:11.097909969,(-8 -9 -8 -30 -7 -7 -8 -8)
1969-12-31 18:00:11.097909969,(-7 -8 0 21 -1 -4 -3 -5)
1969-12-31 18:00:11.099185712,(1 9 7 21 6 2 1 0)
1969-12-31 18:00:11.099185712,(-18 -21 -10 -27 -10 -3 -3 1)
1969-12-31 18:00:11.115770366,(19 18 6 21 12 14 19 17)
1969-12-31 18:00:11.115770366,(-7 -7 3 -1 1 -1 -10 -16)
1969-12-31 18:00:11.125976308,(-39 -14 7 12 6 2 -6 -26)
1969-12-31 18:00:11.125976308,(73 31 13 13 5 5 16 41)
1969-12-31 18:00:11.145112448,(-71 -47 -13 -22 -13 -7 -9 -15)
1969-12-31 18:00:11.145112448,(29 28 -9 -5 -4 -7 -7 -5)
1969-12-31 18:00:11.147663933,(2 0 -10 -7 -3 1 7 11)
1969-12-31 18:00:11.147663933,(-1 0 3 2 4 0 1 -6)
1969-12-31 18:00:11.174454529,(-22 -14 -10 -9 -8 -12 -11 -11)
1969-12-31 18:00:11.174454529,(0 2 10 13 7 7 5 -2)
1969-12-31 18:00:11.175730272,(-9 -7 -5 -10 -2 4 8 12)
1969-12-31 18:00:11.175730272,(-1 13 0 2 -5 -4 -7 -9)
1969-12-31 18:00:11.192314926,(48 20 -5 -7 0 -2 -3 13)
1969-12-31 18:00:11.192314926,(-33 -19 2 3 -5 -8 -7 -12)
1969-12-31 18:00:11.203796610,(14 5 4 8 2 3 5 9)
1969-12-31 18:00:11.203796610,(-19 -19 -19 -40 -11 -8 -8 -10)
1969-12-31 18:00:11.221657007,(31 33 18 42 8 5 5 6)
1969-12-31 18:00:11.221657007,(-23 -18 8 10 0 -5 -7 -11)
1969-12-31 18:00:11.224208493,(-29 -15 1 -1 -7 -13 -16 -20)
1969-12-31 18:00:11.224208493,(34 6 -15 4 7 4 6 17)
1969-12-31 18:00:11.250999089,(-3 5 -1 -13 -1 0 -5 -17)
1969-12-31 18:00:11.250999089,(-13 -4 -5 -18 -4 6 9 9)
1969-12-31 18:00:11.252274831,(32 21 -7 -5 -10 -14 -10 6)
1969-12-31 18:00:11.252274831,(-84 -24 8 9 5 3 -10 -50)
1969-12-31 18:00:11.279065427,(9 -6 -18 -43 -7 0 2 10)
1969-12-31 18:00:11.279065427,(2 -11 -22 -34 -3 -2 5 15)
1969-12-31 18:00:11.281616913,(3 8 28 58 1 9 8 5)
1969-12-31 18:00:11.281616913,(12 8 14 39 9 -8 -11 1)
1969-12-31 18:00:11.298201567,(14 13 37 92 22 12 13 8)
1969-12-31 18:00:11.298201567,(-11 -4 9 21 10 -2 -5 -8)
1969-12-31 18:00:11.300753053,(8 -2 -36 -85 -24 -4 1 3)
1969-12-31 18:00:11.300753053,(1 -5 -7 17 2 -2 -1 3)
1969-12-31 18:00:11.327543649,(-2 -2 9 20 19 5 -2 -2)
1969-12-31 18:00:11.327543649,(-5 -6 6 28 5 2 -1 1)
1969-12-31 18:00:11.328819391,(23 12 -3 -10 5 8 11 18)
1969-12-31 18:00:11.328819391,(7 0 -9 -35 -17 -1 1 3)
1969-12-31 18:00:11.345404046,(-5 -9 -26 -59 -19 -6 -1 -1)
1969-12-31 18:00:11.345404046,(-1 -4 -6 -23 -10 0 6 6)
1969-12-31 18:00:11.355609987,(-12 -7 12 25 9 1 -6 -11)
1969-12-31 18:00:11.355609987,(11 13 -1 -13 -3 -3 -4 3)
1969-12-31 18:00:11.374746127,(11 2 -15 -35 -3 1 1 4)
1969-12-31 18:00:11.374746127,(1 -4 -17 -41 -18 -1 3 3)
1969-12-31 18:00:11.377297613,(4 6 36 91 12 5 5 3)
1969-12-31 18:00:11.377297613,(-12 -4 21 58 36 11 7 5)
1969-12-31 18:00:11.413018407,(-5 -6 -1 -19 -12 -3 -4 -4)
1969-12-31 18:00:11.413018407,(28 15 0 -4 15 14 22 28)
1969-12-31 18:00:11.415569892,(-23 -18 -24 -50 -10 -13 -21 -27)
1969-12-31 18:00:11.415569892,(2 -3 -2 -6 -15 -3 -1 3)
1969-12-31 18:00:11.420672863,(5 7 -9 -19 0 -1 0 -2)
1969-12-31 18:00:11.420672863,(-2 0 3 -14 -12 1 4 7)
1969-12-31 18:00:11.432154547,(10 3 -1 -18 0 -2 0 3)
1969-12-31 18:00:11.432154547,(-35 -28 -3 32 5 -5 -6 -12)
1969-12-31 18:00:11.451290687,(-10 4 5 -6 -4 -2 0 1)
1969-12-31 18:00:11.451290687,(82 33 2 21 13 18 25 36)
1969-12-31 18:00:11.458945143,(-20 -4 -2 -3 -3 -11 -17 -27)
1969-12-31 18:00:11.458945143,(1 -2 -10 -35 -11 -3 0 0)
1969-12-31 18:00:11.480632768,(-18 -16 -12 -21 -2 -3 0 -2)
1969-12-31 18:00:11.480632768,(-14 -7 3 28 -8 -12 -12 -12)
1969-12-31 18:00:11.481908511,(-3 2 9 4 14 9 8 7)
1969-12-31 18:00:11.481908511,(17 13 5 9 1 4 11 18)
1969-12-31 18:00:11.497217423,(-4 -2 4 20 1 -8 -9 -16)
1969-12-31 18:00:11.497217423,(-25 -10 -8 -26 -7 -7 -10 -13)
1969-12-31 18:00:11.508699107,(13 4 -11 -27 -12 -4 -1 4)
1969-12-31 18:00:11.508699107,(-55 -27 14 60 -12 -19 -29 -40)
1969-12-31 18:00:11.527835247,(75 58 23 51 39 33 40 64)
1969-12-31 18:00:11.527835247,(-69 -32 -14 -5 -6 -16 -30 -49)
1969-12-31 18:00:11.529110990,(-32 -13 -7 -35 -7 -10 -12 -22)
1969-12-31 18:00:11.530386732,(68 39 -8 -35 6 25 40 62)
1969-12-31 18:00:11.557177328,(-70 -34 -11 -6 -26 -34 -48 -62)
1969-12-31 18:00:11.557177328,(-2 11 1 -3 2 4 1 0)
1969-12-31 18:00:11.558453071,(15 0 2 11 5 7 8 13)
1969-12-31 18:00:11.558453071,(-16 -11 -4 -20 -13 -15 -19 -27)
1969-12-31 18:00:11.573761983,(16 2 5 8 1 4 8 10)
1969-12-31 18:00:11.573761983,(6 6 6 5 4 6 8 12)
1969-12-31 18:00:11.585243667,(-22 -10 -2 18 -2 -7 -6 -12)
1969-12-31 18:00:11.585243667,(7 10 3 10 7 2 2 4)
1969-12-31 18:00:11.604379807,(-19 -17 -6 -11 -5 0 3 2)
1969-12-31 18:00:11.604379807,(-4 2 8 2 1 -3 -7 -13)
1969-12-31 18:00:11.606931292,(16 9 -2 4 0 1 3 15)
1969-12-31 18:00:11.606931292,(-31 -13 -7 -25 -4 1 -10 -27)
1969-12-31 18:00:11.633721888,(45 15 -4 10 -3 -1 10 27)
1969-12-31 18:00:11.633721888,(-47 -14 8 21 -8 -35 -50 -55)
1969-12-31 18:00:11.634997631,(9 -5 0 -11 -1 4 5 2)
1969-12-31 18:00:11.634997631,(50 26 -1 -7 0 6 12 29)
1969-12-31 18:00:11.650306543,(-26 -18 -10 -13 -12 -10 -16 -30)
1969-12-31 18:00:11.650306543,(20 5 -2 -1 6 15 24 31)
1969-12-31 18:00:11.661788227,(-14 -1 0 -7 4 6 6 6)
1969-12-31 18:00:11.661788227,(-7 -11 -13 -19 -16 -11 -16 -19)
1969-12-31 18:00:11.680924367,(4 4 2 -2 6 7 8 9)
1969-12-31 18:00:11.680924367,(-12 -10 15 53 -1 1 3 7)
1969-12-31 18:00:11.683475852,(8 20 7 25 21 6 5 1)
1969-12-31 18:00:11.683475852,(-6 -11 -5 -23 -11 -6 -3 -5)
1969-12-31 18:00:11.710266448,(-17 -8 -9 -12 -8 -10 -14 -19)
1969-12-31 18:00:11.710266448,(2 -6 -15 -26 -3 -2 5 6)
1969-12-31 18:00:11.711542191,(-77 -42 -9 -17 -18 -13 -13 -27)
1969-12-31 18:00:11.711542191,(96 71 21 42 29 26 43 79)
1969-12-31 18:00:11.740884272,(-52 -25 -11 -1 -1 -14 -30 -41)
1969-12-31 18:00:11.740884272,(55 33 9 3 4 19 35 46)
1969-12-31 18:00:11.742160015,(-21 -12 -6 -18 -15 -17 -19 -22)
1969-12-31 18:00:11.742160015,(-20 -16 -11 -28 -12 -10 -13 -18)
1969-12-31 18:00:11.767674868,(4 5 10 11 -1 6 9 7)
1969-12-31 18:00:11.767674868,(11 -1 0 6 7 6 5 13)
1969-12-31 18:00:11.768950611,(19 8 1 11 6 7 7 10)
1969-12-31 18:00:11.768950611,(-22 -11 -1 -11 -3 -3 -4 -10)
1969-12-31 18:00:11.786811008,(13 4 -3 -15 -12 -3 3 12)
1969-12-31 18:00:11.786811008,(-22 -15 8 25 10 -2 -4 -12)
1969-12-31 18:00:11.788086751,(5 26 6 14 7 0 -2 1)
1969-12-31 18:00:11.788086751,(-100 -33 2 11 -1 -15 -40 -77)
1969-12-31 18:00:11.803395662,(7 14 6 -8 4 12 22 21)
1969-12-31 18:00:11.803395662,(9 0 -16 -29 -7 0 5 7)
1969-12-31 18:00:11.814877346,(-10 -14 0 17 7 8 1 -9)
1969-12-31 18:00:11.814877346,(39 23 8 -3 -1 2 14 36)
1969-12-31 18:00:11.834013486,(3 8 -1 0 -1 -3 -2 -4)
1969-12-31 18:00:11.834013486,(-30 -16 -8 -12 -5 -10 -18 -25)
1969-12-31 18:00:11.836564972,(44 17 -20 -59 -10 9 22 33)
1969-12-31 18:00:11.836564972,(-12 -10 8 39 -1 0 -1 -9)
1969-12-31 18:00:11.863355568,(-41 -17 27 58 21 -1 -6 -16)
1969-12-31 18:00:11.863355568,(-4 -4 3 23 7 -4 -9 -12)
1969-12-31 18:00:11.864631310,(15 2 1 -12 3 7 10 15)
1969-12-31 18:00:11.864631310,(10 -2 -20 -44 -9 2 5 6)
1969-12-31 18:00:11.890146164,(14 1 -6 -11 -14 -6 2 10)
1969-12-31 18:00:11.890146164,(-23 8 24 17 13 16 15 -4)
1969-12-31 18:00:11.891421906,(-4 -5 -1 4 -3 -2 -4 -3)
1969-12-31 18:00:11.891421906,(8 -5 -8 -16 1 11 12 13)
1969-12-31 18:00:11.909282304,(20 4 -3 2 -3 -6 -10 4)
1969-12-31 18:00:11.909282304,(-16 -19 -31 -66 -26 -8 -7 -11)
1969-12-31 18:00:11.919488245,(18 8 2 18 7 3 6 11)
1969-12-31 18:00:11.919488245,(-52 -33 24 92 11 -4 -9 -17)
1969-12-31 18:00:11.938624385,(69 37 12 31 29 13 13 27)
1969-12-31 18:00:11.938624385,(4 5 -4 -3 -8 -4 -9 -12)
1969-12-31 18:00:11.939900128,(-4 3 -14 -40 -13 -3 -3 -4)
1969-12-31 18:00:11.939900128,(-14 -15 -11 -30 -13 -10 -10 -13)
1969-12-31 18:00:11.966690724,(19 4 0 9 -6 -4 3 16)
1969-12-31 18:00:11.966690724,(-46 -18 4 5 5 -6 -12 -25)
1969-12-31 18:00:11.967966466,(17 2 1 12 3 4 6 11)
1969-12-31 18:00:11.967966466,(11 8 -6 -20 -2 -1 1 5)
1969-12-31 18:00:11.987102606,(3 -1 -8 -23 -11 0 2 6)
1969-12-31 18:00:11.987102606,(26 14 2 -19 -6 -2 5 18)
1969-12-31 18:00:11.988378349,(-1 -2 -9 -11 -1 5 8 7)
1969-12-31 18:00:11.988378349,(-29 -21 20 58 6 -7 -14 -19)
1969-12-31 18:00:12.015168945,(-2 9 18 33 18 10 1 -9)
1969-12-31 18:00:12.015168945,(22 0 1 8 9 11 13 20)
1969-12-31 18:00:12.016444687,(-16 -12 -15 -44 -17 -8 -10 -12)
1969-12-31 18:00:12.016444687,(2 3 2 -7 0 0 -2 -2)
1969-12-31 18:00:12.044511026,(-23 -14 6 27 1 -5 -10 -13)
1969-12-31 18:00:12.044511026,(-8 10 14 32 23 12 -1 -13)
1969-12-31 18:00:12.044511026,(18 16 11 9 6 11 14 13)
1969-12-31 18:00:12.044511026,(4 -4 -19 -41 -11 -6 -5 0)
1969-12-31 18:00:12.063647166,(-13 -14 -3 -27 -11 -3 2 6)
1969-12-31 18:00:12.063647166,(18 24 -17 -13 -12 -7 -3 5)
1969-12-31 18:00:12.063647166,(67 33 20 25 12 14 24 46)
1969-12-31 18:00:12.063647166,(-15 -9 -13 -12 -4 -11 -18 -20)
1969-12-31 18:00:12.091713505,(-5 2 -5 -14 0 5 4 -3)
1969-12-31 18:00:12.091713505,(-25 -22 -4 -9 -14 -12 -12 -8)
1969-12-31 18:00:12.092989247,(-7 -2 3 8 -4 4 6 2)
1969-12-31 18:00:12.092989247,(30 24 8 14 13 7 10 17)
1969-12-31 18:00:12.121055586,(-3 -6 -6 -5 -4 -3 -3 -4)
1969-12-31 18:00:12.121055586,(16 6 6 10 10 4 8 15)
1969-12-31 18:00:12.121055586,(-25 -12 5 23 3 -5 -12 -17)
1969-12-31 18:00:12.121055586,(5 1 -12 -28 -10 0 -1 3)
1969-12-31 18:00:12.140191726,(-14 -7 -13 -26 -8 -4 -4 -9)
1969-12-31 18:00:12.140191726,(7 4 3 -2 -7 -6 -5 -1)
1969-12-31 18:00:12.140191726,(3 9 9 23 9 0 1 1)
1969-12-31 18:00:12.140191726,(0 -1 -7 -29 -6 0 4 3)
1969-12-31 18:00:12.168258065,(-8 -5 3 15 3 -1 -3 -3)
1969-12-31 18:00:12.168258065,(28 20 15 15 5 -1 5 16)
1969-12-31 18:00:12.169533807,(-9 -16 1 14 7 5 4 13)
1969-12-31 18:00:12.169533807,(54 26 -6 -14 -4 -5 -10 -10)
1969-12-31 18:00:12.196324403,(-14 -18 -19 -30 -17 -13 -15 -21)
1969-12-31 18:00:12.196324403,(-18 -23 -52 -97 -48 -13 -7 -8)
1969-12-31 18:00:12.197600146,(-23 -12 28 92 12 -7 -10 -13)
1969-12-31 18:00:12.197600146,(-7 15 36 85 43 17 10 4)
1969-12-31 18:00:12.215460543,(1 3 14 20 17 9 1 -3)
1969-12-31 18:00:12.215460543,(-4 -13 -10 -11 3 -3 -4 -3)
1969-12-31 18:00:12.216736286,(0 0 -20 -64 -17 -5 -4 -7)
1969-12-31 18:00:12.216736286,(1 -1 -9 -30 -18 -4 2 7)
1969-12-31 18:00:12.244802624,(9 10 -2 -9 -4 0 7 7)
1969-12-31 18:00:12.244802624,(-10 -6 2 9 4 -3 -2 -2)
1969-12-31 18:00:12.246078367,(1 3 -3 -6 -1 -2 -5 -5)
1969-12-31 18:00:12.246078367,(-16 -13 1 3 -1 -2 -2 -5)
1969-12-31 18:00:12.274144706,(3 0 -4 -18 -1 4 6 8)
1969-12-31 18:00:12.274144706,(21 22 14 32 10 7 10 15)
1969-12-31 18:00:12.275420448,(-11 -6 -4 -2 -7 -12 -19 -23)
1969-12-31 18:00:12.275420448,(-2 -6 -17 -38 -12 -6 -3 -1)
1969-12-31 18:00:12.293280846,(-20 -24 -5 7 -6 -8 -10 -11)
1969-12-31 18:00:12.293280846,(57 72 44 60 24 22 24 31)
1969-12-31 18:00:12.293280846,(-49 -24 -6 1 1 -14 -23 -33)
1969-12-31 18:00:12.293280846,(-15 -6 -7 -21 -10 -2 -1 -3)
1969-12-31 18:00:12.321347184,(22 12 -5 -16 0 13 21 25)
1969-12-31 18:00:12.321347184,(-20 -21 -3 6 -1 -9 -13 -14)
1969-12-31 18:00:12.322622927,(8 4 3 -6 -3 3 5 9)
1969-12-31 18:00:12.322622927,(12 10 0 -5 -1 -2 -1 1)
1969-12-31 18:00:12.349413523,(-12 -6 0 -3 -4 -4 1 -4)
1969-12-31 18:00:12.349413523,(-9 -11 -1 8 5 2 0 -3)
1969-12-31 18:00:12.350689266,(-2 2 1 -2 -1 -2 -5 -7)
1969-12-31 18:00:12.350689266,(-2 -6 -1 1 1 -1 3 4)
1969-12-31 18:00:12.369825406,(12 14 4 8 4 5 3 3)
1969-12-31 18:00:12.369825406,(-13 -9 -5 -8 -5 -3 -5 -9)
1969-12-31 18:00:12.371101148,(20 7 -3 -2 3 4 6 8)
1969-12-31 18:00:12.371101148,(-1 -1 4 8 -1 -3 -4 -6)
1969-12-31 18:00:12.397891743,(2 12 7 1 2 10 18 23)
1969-12-31 18:00:12.397891743,(-17 -23 -13 -19 -6 -14 -21 -23)
1969-12-31 18:00:12.399167486,(21 28 22 27 10 12 13 14)
1969-12-31 18:00:12.399167486,(-23 -9 5 16 7 3 -7 -20)
1969-12-31 18:00:12.425958083,(-4 -4 -14 -32 -18 -14 -4 -5)
1969-12-31 18:00:12.427233825,(1 -8 -19 -37 -21 -10 -2 2)
1969-12-31 18:00:12.427233825,(-7 -6 5 8 8 6 5 6)
1969-12-31 18:00:12.427233825,(8 5 16 57 37 25 13 14)
1969-12-31 18:00:12.445094223,(4 8 19 46 39 16 -1 -10)
1969-12-31 18:00:12.445094223,(-17 -12 6 6 -4 1 2 -2)
1969-12-31 18:00:12.446369965,(-2 -8 -13 -25 -19 -17 -11 -7)
1969-12-31 18:00:12.446369965,(8 4 -12 -34 -25 -15 -2 5)
1969-12-31 18:00:12.475712047,(-15 -13 -12 -16 -17 -10 -8 -12)
1969-12-31 18:00:12.475712047,(-5 -6 -2 -1 -1 -4 -3 -4)
1969-12-31 18:00:12.475712047,(3 1 -5 -11 -2 4 7 8)
1969-12-31 18:00:12.475712047,(8 3 -1 -2 1 1 4 9)
1969-12-31 18:00:12.502502643,(-2 -1 -5 -17 -8 -2 -2 -2)
1969-12-31 18:00:12.502502643,(-1 -6 -3 -9 -1 1 1 -1)
1969-12-31 18:00:12.503778385,(20 8 7 31 1 1 5 16)
1969-12-31 18:00:12.503778385,(-29 -14 -3 -3 -2 -13 -20 -29)
1969-12-31 18:00:12.521638783,(2 2 -3 -5 -4 -3 -5 -3)
1969-12-31 18:00:12.521638783,(-10 -5 1 4 7 3 1 -4)
1969-12-31 18:00:12.522914525,(2 -7 -7 -11 -2 -4 -3 0)
1969-12-31 18:00:12.522914525,(10 6 -1 -16 -8 1 9 13)
1969-12-31 18:00:12.550980864,(-4 -1 -2 -3 -3 -5 -4 -4)
1969-12-31 18:00:12.550980864,(5 -2 -25 -78 -36 -11 -3 2)
1969-12-31 18:00:12.552256607,(-10 -3 13 60 25 3 -2 -8)
1969-12-31 18:00:12.552256607,(1 5 31 70 19 11 2 0)
1969-12-31 18:00:12.579047202,(-2 2 11 23 23 8 1 -3)
1969-12-31 18:00:12.579047202,(-2 -1 2 6 5 4 1 0)
1969-12-31 18:00:12.580322945,(0 -4 -22 -52 -13 0 4 4)
1969-12-31 18:00:12.580322945,(0 -4 -18 -39 -16 -6 0 2)
1969-12-31 18:00:12.598183342,(1 -1 -2 -2 -12 -5 -5 -1)
1969-12-31 18:00:12.598183342,(-4 -2 1 20 9 -1 -3 -3)
1969-12-31 18:00:12.599459085,(11 1 -7 -18 -10 -11 -12 0)
1969-12-31 18:00:12.599459085,(-39 -14 2 9 11 13 5 -29)
1969-12-31 18:00:12.627525424,(-34 -21 0 -8 -7 -8 -11 -12)
1969-12-31 18:00:12.627525424,(45 23 3 18 10 7 9 11)
1969-12-31 18:00:12.628801166,(-11 -9 -1 0 -5 -14 -18 -15)
1969-12-31 18:00:12.628801166,(24 11 -3 -20 -4 4 12 24)
1969-12-31 18:00:12.655591762,(9 3 0 12 -1 -2 -2 -2)
1969-12-31 18:00:12.655591762,(-15 -7 5 22 15 3 -1 -5)
1969-12-31 18:00:12.656867505,(2 4 5 0 -9 7 8 6)
1969-12-31 18:00:12.656867505,(2 -5 -10 -33 -19 -9 -6 0)
1969-12-31 18:00:12.674727902,(26 15 -2 4 3 5 10 16)
1969-12-31 18:00:12.674727902,(-3 -7 8 37 9 -5 -6 3)
1969-12-31 18:00:12.676003645,(1 3 0 7 13 6 -2 -12)
1969-12-31 18:00:12.676003645,(-18 -9 -5 -14 -8 -4 -3 -3)
1969-12-31 18:00:12.704069984,(17 8 -6 -15 -16 -7 -1 4)
1969-12-31 18:00:12.704069984,(-11 -14 -10 -5 -12 -22 -30 -20)
1969-12-31 18:00:12.705345726,(-19 -6 -8 -19 -2 1 8 9)
1969-12-31 18:00:12.705345726,(-25 -18 -7 -3 -6 -8 -15 -24)
1969-12-31 18:00:12.733412065,(-15 -6 1 -1 2 9 5 -3)
1969-12-31 18:00:12.733412065,(44 28 3 3 2 4 6 12)
1969-12-31 18:00:12.734687808,(-54 -28 -1 -7 -6 -10 -16 -39)
1969-12-31 18:00:12.734687808,(28 12 0 4 4 -1 5 17)
1969-12-31 18:00:12.752548205,(-14 -4 1 3 5 5 4 -1)
1969-12-31 18:00:12.752548205,(9 1 8 8 3 9 13 22)
1969-12-31 18:00:12.752548205,(7 0 0 -1 -3 -3 -3 -2)
1969-12-31 18:00:12.752548205,(14 10 -4 -7 -4 0 3 8)
1969-12-31 18:00:12.780614543,(6 -6 0 -1 2 0 0 1)
1969-12-31 18:00:12.780614543,(-13 -11 1 8 1 2 -1 -1)
1969-12-31 18:00:12.781890286,(75 44 10 7 5 7 6 5)
1969-12-31 18:00:12.781890286,(-21 -22 -9 -5 -8 -16 -23 -22)
1969-12-31 18:00:12.809956625,(2 3 -6 -11 -5 -5 -4 -3)
1969-12-31 18:00:12.809956625,(-18 -4 1 -5 1 6 6 -7)
1969-12-31 18:00:12.811232367,(-37 -32 -7 2 4 5 7 6)
1969-12-31 18:00:12.811232367,(40 25 0 1 0 -1 -2 9)
1969-12-31 18:00:12.827817022,(1 -2 1 4 -2 -1 -6 -8)
1969-12-31 18:00:12.827817022,(-10 0 -4 -27 -9 -3 -4 -10)
1969-12-31 18:00:12.829092765,(-11 -8 -4 2 -6 -3 0 1)
1969-12-31 18:00:12.829092765,(12 7 12 43 21 16 21 19)
1969-12-31 18:00:12.857159103,(-19 -9 6 27 11 -1 -6 -6)
1969-12-31 18:00:12.857159103,(6 10 13 17 12 5 4 7)
1969-12-31 18:00:12.858434846,(0 2 -5 -27 -15 -7 -5 -4)
1969-12-31 18:00:12.858434846,(-6 -6 -10 -34 -17 -7 1 1)
1969-12-31 18:00:12.886501185,(9 7 -4 -6 -8 0 0 1)
1969-12-31 18:00:12.886501185,(-11 -4 1 18 21 8 2 -5)
1969-12-31 18:00:12.887776927,(-2 -2 -7 -14 4 4 0 -3)
1969-12-31 18:00:12.887776927,(-1 1 6 20 1 0 0 3)
1969-12-31 18:00:12.904361582,(2 7 11 -17 -2 1 2 2)
1969-12-31 18:00:12.904361582,(3 4 2 -8 -10 2 6 4)
1969-12-31 18:00:12.905637325,(-10 -9 -1 1 -39 -21 -5 -1)
1969-12-31 18:00:12.905637325,(2 -4 -37 -19 0 -7 -3 5)
1969-12-31 18:00:12.933703663,(-6 -5 -4 -40 5 -3 -8 -5)
1969-12-31 18:00:12.933703663,(4 8 7 64 43 24 13 5)
1969-12-31 18:00:12.934979406,(-2 -1 17 56 42 23 4 -2)
1969-12-31 18:00:12.934979406,(-7 -7 -12 -32 0 -3 -2 0)
1969-12-31 18:00:12.963045744,(-1 -4 -8 15 -20 -10 -3 -1)
1969-12-31 18:00:12.963045744,(0 9 25 -2 -26 -11 -4 -1)
1969-12-31 18:00:12.964321487,(1 10 17 11 3 -4 -3 -2)
1969-12-31 18:00:12.964321487,(15 24 56 -12 7 23 20 13)
1969-12-31 18:00:12.980906142,(6 -2 -43 -5 4 -5 -2 2)
1969-12-31 18:00:12.980906142,(-5 -23 -42 -36 -19 -17 -7 -5)
1969-12-31 18:00:12.991112083,(-15 -15 -30 -16 -19 -22 -15 -15)
1969-12-31 18:00:12.991112083,(-11 -13 -13 -15 -8 -9 -8 -7)
1969-12-31 18:00:13.010248223,(-1 17 53 10 9 14 7 0)
1969-12-31 18:00:13.010248223,(12 21 27 32 15 19 13 10)
1969-12-31 18:00:13.011523966,(13 6 -7 -6 17 20 15 12)
1969-12-31 18:00:13.011523966,(-8 -24 -43 -19 -13 -19 -11 -6)
1969-12-31 18:00:13.039590304,(-13 -15 6 -11 -23 -16 -7 -10)
1969-12-31 18:00:13.039590304,(-12 -6 -6 -2 -5 -5 -8 -12)
1969-12-31 18:00:13.040866047,(5 -1 -14 0 8 -6 1 6)
1969-12-31 18:00:13.040866047,(-2 7 17 10 0 2 -1 -2)
1969-12-31 18:00:13.057450702,(10 6 -14 57 9 1 3 6)
1969-12-31 18:00:13.057450702,(-6 -8 22 -11 -11 -9 -8 -8)
1969-12-31 18:00:13.067656643,(6 11 4 -71 -24 9 9 5)
1969-12-31 18:00:13.067656643,(15 18 46 112 36 14 12 12)
1969-12-31 18:00:13.086792783,(-7 -14 -28 22 23 2 -7 -7)
1969-12-31 18:00:13.086792783,(-10 -21 -30 -3 6 -5 -6 -7)
1969-12-31 18:00:13.088068526,(-12 -2 11 -27 -20 -7 -5 -6)
1969-12-31 18:00:13.088068526,(5 6 -5 -45 -24 -3 0 3)
1969-12-31 18:00:13.116134864,(9 9 7 -29 -6 4 7 8)
1969-12-31 18:00:13.116134864,(-1 1 6 -1 -5 2 1 1)
1969-12-31 18:00:13.117410607,(-2 -6 -24 4 4 -4 -7 -4)
1969-12-31 18:00:13.117410607,(0 2 17 -1 2 7 5 1)
1969-12-31 18:00:13.133995262,(1 -3 -15 -32 -6 -1 1 0)
1969-12-31 18:00:13.133995262,(3 1 -1 26 -1 -4 0 5)
1969-12-31 18:00:13.144201203,(3 -2 -2 29 17 -1 -1 1)
1969-12-31 18:00:13.144201203,(-16 -5 12 8 -1 -3 -9 -14)
1969-12-31 18:00:13.163337343,(8 7 0 -4 -5 9 6 6)
1969-12-31 18:00:13.163337343,(-1 -8 -18 -41 -6 -3 0 2)
1969-12-31 18:00:13.182473483,(-8 -2 0 -9 -14 -4 -7 -5)
1969-12-31 18:00:13.182473483,(7 2 -10 17 13 8 4 7)
1969-12-31 18:00:13.192679424,(-2 6 19 0 -2 2 -1 -1)
1969-12-31 18:00:13.192679424,(0 4 -4 -21 -6 4 3 0)
1969-12-31 18:00:13.193955167,(5 5 15 27 21 15 5 4)
1969-12-31 18:00:13.193955167,(-7 -10 -22 -9 -15 -12 -9 -6)
1969-12-31 18:00:13.210539821,(-1 7 11 -34 -25 -4 -1 -2)
1969-12-31 18:00:13.210539821,(5 3 1 27 32 12 7 6)
1969-12-31 18:00:13.220745763,(-4 -4 -10 -29 -8 -7 -3 -4)
1969-12-31 18:00:13.220745763,(-9 -8 -4 -10 -8 -9 -5 -7)
1969-12-31 18:00:13.239881903,(-2 3 24 42 24 3 4 -2)
1969-12-31 18:00:13.239881903,(1 0 -7 -11 -6 -3 1 0)
1969-12-31 18:00:13.241157645,(-1 -3 5 5 -2 -4 0 1)
1969-12-31 18:00:13.241157645,(-2 -5 -20 -15 -12 -12 0 2)
1969-12-31 18:00:13.269223983,(-5 -12 -20 -15 0 -9 -4 -3)
1969-12-31 18:00:13.269223983,(-8 -5 -3 -10 -23 -20 -11 -9)
1969-12-31 18:00:13.270499727,(8 -1 -2 14 -7 -8 2 6)
1969-12-31 18:00:13.270499727,(0 8 14 19 40 20 4 -1)
1969-12-31 18:00:13.298566065,(0 -5 -6 19 21 6 2 2)
1969-12-31 18:00:13.298566065,(7 4 -6 -21 -9 3 3 2)
1969-12-31 18:00:13.299841808,(11 4 8 35 7 6 7 7)
1969-12-31 18:00:13.299841808,(-15 -12 -11 -18 -18 -12 -10 -14)
1969-12-31 18:00:13.316426463,(11 6 7 7 -3 -3 5 7)
1969-12-31 18:00:13.316426463,(0 2 -2 -13 -9 -5 -4 -1)
1969-12-31 18:00:13.317702205,(1 3 8 8 3 1 1 0)
1969-12-31 18:00:13.317702205,(6 3 -9 -13 -7 4 2 4)
1969-12-31 18:00:13.345768544,(-6 -3 -4 -2 -1 3 -4 -2)
1969-12-31 18:00:13.345768544,(-4 8 13 9 -1 1 -2 -2)
1969-12-31 18:00:13.347044286,(3 -4 -9 -15 -12 0 3 1)
1969-12-31 18:00:13.347044286,(-3 -1 -2 -2 11 3 -5 -3)
1969-12-31 18:00:13.363628941,(9 10 7 5 -6 5 6 7)
1969-12-31 18:00:13.363628941,(-3 -8 -3 -2 -10 1 0 -1)
1969-12-31 18:00:13.373834882,(-7 0 7 3 17 5 -5 -6)
1969-12-31 18:00:13.373834882,(0 -2 2 0 2 1 2 1)
1969-12-31 18:00:13.392971022,(2 0 -10 -2 -4 -5 -1 -1)
1969-12-31 18:00:13.392971022,(-10 -7 6 2 4 -5 -5 -6)
1969-12-31 18:00:13.394246765,(3 3 -1 -3 -2 1 3 1)
1969-12-31 18:00:13.394246765,(5 -1 -4 0 -8 -2 -1 2)
1969-12-31 18:00:13.432519045,(-2 -2 -4 -11 -2 -1 -2 -2)
1969-12-31 18:00:13.432519045,(-2 -2 -9 -10 -4 0 0 0)
1969-12-31 18:00:13.433794788,(-6 -5 0 -38 -14 -11 -5 -6)
1969-12-31 18:00:13.433794788,(6 9 24 70 18 4 8 2)
1969-12-31 18:00:13.451655185,(-2 -4 4 24 8 -4 -5 -5)
1969-12-31 18:00:13.451655185,(1 -1 -3 19 15 -2 -1 0)
1969-12-31 18:00:13.451655185,(-2 -1 -11 -21 -12 -6 -2 0)
1969-12-31 18:00:13.451655185,(2 0 -6 -46 -13 -2 2 3)
1969-12-31 18:00:13.469515582,(-3 -1 7 42 -6 1 -1 0)
1969-12-31 18:00:13.469515582,(1 3 4 9 15 9 2 1)
1969-12-31 18:00:13.470791325,(1 2 -3 6 6 6 -1 0)
1969-12-31 18:00:13.470791325,(-1 -4 -7 -15 -13 0 1 0)
1969-12-31 18:00:13.498857664,(-2 -3 -3 -19 -5 -5 -3 -2)
1969-12-31 18:00:13.498857664,(-2 -2 2 -8 -10 -7 0 0)
1969-12-31 18:00:13.500133406,(-4 -2 -2 7 2 -5 -2 -4)
1969-12-31 18:00:13.500133406,(5 1 -7 -11 -23 -4 3 4)
1969-12-31 18:00:13.537129944,(-2 -3 -7 -20 10 1 -3 -2)
1969-12-31 18:00:13.537129944,(8 6 4 15 3 6 4 4)
1969-12-31 18:00:13.538405686,(-1 2 12 10 10 7 2 0)
1969-12-31 18:00:13.538405686,(2 5 7 16 6 5 2 0)
1969-12-31 18:00:13.546060142,(1 -3 -8 -13 -7 -3 -1 0)
1969-12-31 18:00:13.546060142,(-5 -1 2 -11 -7 -1 1 0)
1969-12-31 18:00:13.547335885,(-1 0 -4 3 -5 -3 0 0)
1969-12-31 18:00:13.547335885,(0 -2 -4 -13 10 1 0 0)
1969-12-31 18:00:13.575402223,(-4 -6 -3 -6 -16 -5 0 -1)
1969-12-31 18:00:13.575402223,(1 1 7 1 24 3 -1 -2)
1969-12-31 18:00:13.576677966,(-1 3 14 41 12 3 1 0)
1969-12-31 18:00:13.576677966,(-3 0 -1 6 4 -2 -2 -1)
1969-12-31 18:00:13.604744305,(0 -2 -6 -13 -3 1 -1 0)
1969-12-31 18:00:13.604744305,(1 -3 -9 -19 -14 -5 1 2)
1969-12-31 18:00:13.606020047,(-2 -3 -4 -3 -1 -6 -4 -2)
1969-12-31 18:00:13.606020047,(1 -1 -1 0 0 -1 -1 1)
1969-12-31 18:00:13.622604702,(1 1 -2 -6 2 -1 0 0)
1969-12-31 18:00:13.622604702,(-3 -2 1 6 -2 0 -3 -3)
1969-12-31 18:00:13.623880445,(0 -3 -3 -5 1 -1 -4 -4)
1969-12-31 18:00:13.623880445,(4 -1 0 -1 -13 -3 0 2)
1969-12-31 18:00:13.623880445,(-4 0 6 19 5 -1 -4 -4)
1969-12-31 18:00:13.623880445,(5 -2 -4 -8 -4 -4 1 7)
1969-12-31 18:00:13.632810643,(-3 6 3 -1 5 7 4 -5)
1969-12-31 18:00:13.632810643,(-6 -5 -5 -15 -10 -9 -8 -7)
1969-12-31 18:00:13.653222525,(-3 -1 -2 0 -1 -3 2 -2)
1969-12-31 18:00:13.653222525,(-4 -4 -3 11 -1 -4 -4 -6)
1969-12-31 18:00:13.654498268,(5 0 1 -1 8 2 3 4)
1969-12-31 18:00:13.654498268,(0 2 11 20 15 6 3 -1)
1969-12-31 18:00:13.681288865,(-2 -1 -1 -10 -12 -1 -1 1)
1969-12-31 18:00:13.681288865,(1 0 3 8 6 2 2 3)
1969-12-31 18:00:13.683840350,(-3 -5 -4 8 0 -3 -5 -3)
1969-12-31 18:00:13.683840350,(-3 -3 -16 -46 -10 -2 0 1)
1969-12-31 18:00:13.700425005,(17 12 16 19 5 6 6 9)
1969-12-31 18:00:13.700425005,(-2 -3 -4 6 -2 -6 -6 -7)
1969-12-31 18:00:13.708079461,(-9 0 8 5 -1 8 7 3)
1969-12-31 18:00:13.708079461,(23 7 3 5 3 2 4 5)
1969-12-31 18:00:13.729767086,(-62 -26 -14 -14 -7 -11 -14 -27)
1969-12-31 18:00:13.729767086,(47 16 3 -3 -3 -1 2 12)
1969-12-31 18:00:13.731042829,(-4 -3 -6 -8 -5 -12 -15 -13)
1969-12-31 18:00:13.731042829,(-5 -5 -6 -10 -8 -1 1 2)
1969-12-31 18:00:13.757833424,(6 -1 -16 -59 -31 0 3 5)
1969-12-31 18:00:13.757833424,(-24 -1 12 44 20 1 -2 -12)
1969-12-31 18:00:13.760384910,(1 3 20 63 30 8 2 7)
1969-12-31 18:00:13.760384910,(1 -1 5 -4 -6 2 3 3)
1969-12-31 18:00:13.775693822,(-2 -2 -2 -2 3 -8 -11 -7)
1969-12-31 18:00:13.775693822,(-12 -9 -14 -20 -15 -3 -2 -1)
1969-12-31 18:00:13.796105704,(13 2 -7 -28 -15 -5 1 7)
1969-12-31 18:00:13.796105704,(-2 7 16 38 14 8 3 -2)
1969-12-31 18:00:13.806311646,(-4 -8 -4 1 9 2 1 -3)
1969-12-31 18:00:13.806311646,(-29 -15 -2 -12 -5 -3 -2 -15)
1969-12-31 18:00:13.813966102,(8 22 -15 -23 -12 -7 -13 -9)
1969-12-31 18:00:13.813966102,(-19 -17 -13 -10 -7 -6 -4 0)
1969-12-31 18:00:13.834377984,(2 6 0 7 -3 -17 -21 -12)
1969-12-31 18:00:13.834377984,(-28 -17 1 0 3 6 -1 -16)
1969-12-31 18:00:13.836929470,(-6 -5 0 -4 -6 0 7 1)
1969-12-31 18:00:13.836929470,(11 -3 -6 -38 -9 0 3 9)
1969-12-31 18:00:13.852238382,(-3 -7 -11 -10 -3 -3 -1 -6)
1969-12-31 18:00:13.852238382,(15 10 2 -26 -7 1 6 14)
1969-12-31 18:00:13.863720066,(-2 -2 16 75 30 5 2 2)
1969-12-31 18:00:13.863720066,(5 14 34 70 18 7 1 0)
1969-12-31 18:00:13.882856206,(8 2 9 15 16 6 9 9)
1969-12-31 18:00:13.882856206,(-12 -11 -10 -17 -8 0 2 -2)
1969-12-31 18:00:13.884131948,(-12 -10 -15 -46 -15 3 10 6)
1969-12-31 18:00:13.884131948,(39 12 -13 -23 -9 -11 -6 9)
1969-12-31 18:00:13.910922544,(-10 -7 -3 13 -3 -6 -10 -9)
1969-12-31 18:00:13.910922544,(-35 -10 -6 -8 -4 -4 -8 -13)
1969-12-31 18:00:13.913474030,(2 -12 -9 -14 -6 2 2 -5)
1969-12-31 18:00:13.913474030,(14 15 3 5 0 5 9 6)
1969-12-31 18:00:13.928782941,(11 6 2 -8 -4 3 8 8)
1969-12-31 18:00:13.928782941,(11 11 7 15 0 3 1 5)
1969-12-31 18:00:13.940264625,(-21 -27 -70 -124 -52 -28 -12 -12)
1969-12-31 18:00:13.940264625,(-7 3 24 95 -15 -1 0 3)
1969-12-31 18:00:13.960676508,(22 25 54 100 73 31 16 15)
1969-12-31 18:00:13.960676508,(2 6 22 61 60 26 4 -5)
1969-12-31 18:00:13.963227993,(6 2 -3 -24 -1 4 1 7)
1969-12-31 18:00:13.963227993,(-10 -7 -2 -10 -20 -13 -10 -13)
1969-12-31 18:00:13.987467104,(-10 -5 -8 -11 -21 -11 -2 -4)
1969-12-31 18:00:13.987467104,(17 6 0 -18 -1 -4 3 16)
1969-12-31 18:00:13.990018589,(-5 -3 -2 -7 -14 -5 -9 -8)
1969-12-31 18:00:13.990018589,(8 4 -29 -62 -12 6 16 16)
1969-12-31 18:00:14.005327501,(-36 -15 17 37 4 -2 -7 -20)
1969-12-31 18:00:14.005327501,(41 20 -3 -38 -6 -1 8 27)
1969-12-31 18:00:14.016809185,(-11 -8 -11 -46 -11 -10 -11 -17)
1969-12-31 18:00:14.016809185,(-18 -14 -29 -41 -2 -6 -6 -8)
1969-12-31 18:00:14.035945325,(1 0 -6 6 -15 1 4 2)
1969-12-31 18:00:14.035945325,(-7 2 25 65 -67 -35 -7 -8)
1969-12-31 18:00:14.037221068,(6 16 51 101 52 15 3 3)
1969-12-31 18:00:14.037221068,(1 7 22 -25 53 29 16 13)
1969-12-31 18:00:14.064011664,(8 1 -25 -7 18 18 2 0)
1969-12-31 18:00:14.064011664,(-24 -19 -13 -4 21 14 8 -15)
1969-12-31 18:00:14.066563149,(54 20 17 45 -12 -26 -9 28)
1969-12-31 18:00:14.066563149,(-35 -24 -41 -65 -40 -32 -29 -37)
1969-12-31 18:00:14.081872061,(12 3 -6 -36 -13 4 12 15)
1969-12-31 18:00:14.081872061,(11 6 -11 -34 -19 -4 1 9)
1969-12-31 18:00:14.093353745,(-33 -17 -3 -2 3 34 23 -19)
1969-12-31 18:00:14.093353745,(19 14 19 32 19 1 9 28)
1969-12-31 18:00:14.112489885,(-15 -14 -29 -56 -64 -52 -45 -34)
1969-12-31 18:00:14.112489885,(4 2 -2 13 -17 14 14 11)
1969-12-31 18:00:14.113765628,(6 5 -8 -50 44 15 10 12)
1969-12-31 18:00:14.113765628,(-11 -5 9 -18 0 21 3 -11)
1969-12-31 18:00:14.141831966,(10 18 78 121 42 23 15 11)
1969-12-31 18:00:14.141831966,(-1 5 28 40 54 -3 -14 -4)
1969-12-31 18:00:14.143107709,(-11 -3 0 -2 -3 -13 -23 -23)
1969-12-31 18:00:14.143107709,(2 -12 -34 -67 -3 -2 17 9)
1969-12-31 18:00:14.158416621,(6 -8 -35 -63 -31 6 17 16)
1969-12-31 18:00:14.158416621,(-14 -4 -15 -26 -29 -15 -11 -13)
1969-12-31 18:00:14.169898305,(9 -6 -16 -15 -21 -20 -11 2)
1969-12-31 18:00:14.169898305,(-25 -8 7 36 5 -2 -22 -27)
1969-12-31 18:00:14.189034445,(-2 1 -8 -27 -3 -9 13 7)
1969-12-31 18:00:14.189034445,(-5 -5 -11 -48 24 23 21 9)
1969-12-31 18:00:14.190310188,(10 14 14 50 -27 -17 -10 2)
1969-12-31 18:00:14.190310188,(-6 -3 -9 -32 -14 -8 -8 -3)
1969-12-31 18:00:14.217100784,(2 -7 8 44 13 6 2 0)
1969-12-31 18:00:14.217100784,(18 18 10 0 16 15 6 3)
1969-12-31 18:00:14.219652269,(-48 -20 1 18 8 -35 -74 -46)
1969-12-31 18:00:14.219652269,(-3 9 10 35 -8 0 4 -5)
1969-12-31 18:00:14.234961181,(54 5 -22 -69 -10 3 34 38)
1969-12-31 18:00:14.234961181,(22 -1 -26 -24 -20 -3 16 19)
1969-12-31 18:00:14.246442865,(5 3 15 29 10 17 25 12)
1969-12-31 18:00:14.246442865,(-16 -2 22 48 -20 -25 -41 -21)
1969-12-31 18:00:14.264303262,(-26 -2 10 29 44 -24 -101 -63)
1969-12-31 18:00:14.265579005,(-6 -6 -5 -4 24 31 73 17)
1969-12-31 18:00:14.266854748,(19 0 -18 -35 -19 27 54 50)
1969-12-31 18:00:14.266854748,(9 1 -2 -40 -11 2 5 -4)
1969-12-31 18:00:14.293645344,(4 10 16 72 18 3 -6 5)
1969-12-31 18:00:14.293645344,(-3 -4 8 21 -17 -31 -75 -41)
1969-12-31 18:00:14.296196829,(0 8 -1 -32 27 13 26 12)
1969-12-31 18:00:14.296196829,(2 -8 -6 1 -25 1 27 19)
1969-12-31 18:00:14.311505741,(5 2 -6 -29 -14 -10 0 9)
1969-12-31 18:00:14.311505741,(-18 -12 -20 -23 4 -15 -26 -20)
1969-12-31 18:00:14.322987425,(7 -1 1 -17 -43 -9 7 3)
1969-12-31 18:00:14.322987425,(5 4 1 31 25 6 -5 -2)
1969-12-31 18:00:14.342123565,(0 9 25 44 33 22 16 8)
1969-12-31 18:00:14.342123565,(-7 -1 17 47 25 3 -7 -6)
1969-12-31 18:00:14.343399307,(2 0 2 -2 -1 -2 -11 -4)
1969-12-31 18:00:14.343399307,(-9 -10 -21 -31 -16 -10 3 -9)
1969-12-31 18:00:14.370189903,(-9 -8 -22 -42 -25 5 20 2)
1969-12-31 18:00:14.370189903,(9 3 -7 -26 -13 -3 -1 9)
1969-12-31 18:00:14.372741389,(8 4 1 10 -7 -12 -8 4)
1969-12-31 18:00:14.372741389,(-20 -10 4 8 9 0 -13 -18)
1969-12-31 18:00:14.388050300,(13 6 4 13 10 13 25 15)
1969-12-31 18:00:14.388050300,(28 16 8 26 2 -6 -9 12)
1969-12-31 18:00:14.399531985,(-25 -14 -2 -1 4 -10 -18 -30)
1969-12-31 18:00:14.399531985,(4 2 5 5 2 -2 -6 1)
1969-12-31 18:00:14.418668125,(-1 -3 -16 -51 -31 -10 8 7)
1969-12-31 18:00:14.418668125,(-13 -12 -15 -24 -3 -5 -7 -5)
1969-12-31 18:00:14.419943867,(15 11 10 35 29 22 12 11)
1969-12-31 18:00:14.419943867,(-11 0 20 56 29 7 -4 -9)
1969-12-31 18:00:14.446734463,(-10 -7 -10 -54 -32 -2 12 -1)
1969-12-31 18:00:14.446734463,(-2 0 -5 11 -26 -9 -7 -3)
1969-12-31 18:00:14.449285949,(1 3 18 28 13 8 6 0)
1969-12-31 18:00:14.449285949,(10 8 9 13 19 6 0 3)
1969-12-31 18:00:14.464594861,(2 -1 -13 -40 -7 -5 1 11)
1969-12-31 18:00:14.464594861,(-11 -7 1 9 -15 -4 -2 -8)
1969-12-31 18:00:14.476076545,(1 -3 -11 -38 -6 -8 -9 -1)
1969-12-31 18:00:14.476076545,(-13 -10 1 23 7 -5 -7 -12)
1969-12-31 18:00:14.495212685,(30 20 6 16 12 12 31 27)
1969-12-31 18:00:14.495212685,(-7 -5 -7 -23 0 10 13 1)
1969-12-31 18:00:14.496488427,(-17 -8 -5 -8 -17 -5 -5 4)
1969-12-31 18:00:14.496488427,(4 1 -6 -1 -7 -9 -13 -8)
1969-12-31 18:00:14.523279023,(-7 -3 -4 -12 -2 -4 -12 -10)
1969-12-31 18:00:14.523279023,(-1 0 13 37 19 9 17 9)
1969-12-31 18:00:14.525830508,(6 2 2 -1 6 8 0 -4)
1969-12-31 18:00:14.525830508,(12 5 -4 -10 -2 3 12 15)
1969-12-31 18:00:14.541139420,(-5 -7 -11 -13 -1 -3 -9 -3)
1969-12-31 18:00:14.541139420,(-5 -3 5 12 -6 -10 -11 -10)
1969-12-31 18:00:14.552621104,(14 6 0 -7 -6 10 18 23)
1969-12-31 18:00:14.552621104,(21 13 12 15 13 8 12 24)
1969-12-31 18:00:14.570481502,(-1 -3 0 15 5 -11 -29 -30)
1969-12-31 18:00:14.570481502,(-15 -6 -4 -22 -1 1 0 -6)
1969-12-31 18:00:14.579411700,(-6 -4 -8 -16 -5 -4 0 -10)
1969-12-31 18:00:14.579411700,(-1 -4 -11 -31 -12 -1 2 0)
1969-12-31 18:00:14.599823583,(17 8 0 24 6 -2 -2 17)
1969-12-31 18:00:14.599823583,(-8 -7 1 0 -3 -1 -3 -7)
1969-12-31 18:00:14.602375068,(9 8 19 55 9 -2 -10 -7)
1969-12-31 18:00:14.602375068,(-11 -4 2 -33 -6 -1 -4 -10)
1969-12-31 18:00:14.617683980,(-12 -5 -1 21 4 -1 -3 -6)
1969-12-31 18:00:14.617683980,(13 6 -13 -30 -6 -3 1 10)
1969-12-31 18:00:14.629165664,(-7 -10 -16 -50 -26 -12 0 -2)
1969-12-31 18:00:14.629165664,(-2 -4 7 31 13 2 0 0)
1969-12-31 18:00:14.648301804,(-4 2 14 24 26 15 5 -1)
1969-12-31 18:00:14.648301804,(18 13 6 23 29 15 6 9)
1969-12-31 18:00:14.649577547,(-10 -6 0 -7 -11 -6 -10 -9)
1969-12-31 18:00:14.649577547,(-9 -8 -11 -21 -17 -9 0 -6)
1969-12-31 18:00:14.676368143,(-5 -10 -10 -20 -23 -17 -13 -6)
1969-12-31 18:00:14.676368143,(-26 -9 1 3 -10 -15 -21 -32)
1969-12-31 18:00:14.678919628,(16 6 -4 2 7 6 7 1)
1969-12-31 18:00:14.678919628,(1 7 2 3 6 14 18 23)
1969-12-31 18:00:14.694228540,(-9 -8 -11 -14 -5 -6 -12 -11)
1969-12-31 18:00:14.694228540,(-3 -7 0 -18 -11 -9 -12 -6)
1969-12-31 18:00:14.705710224,(2 13 11 30 14 15 18 11)
1969-12-31 18:00:14.705710224,(-3 -2 2 15 5 3 -3 -7)
1969-12-31 18:00:14.723570621,(-7 1 10 18 7 7 4 -1)
1969-12-31 18:00:14.723570621,(2 2 -2 -18 -6 -4 -4 1)
1969-12-31 18:00:14.732500820,(-20 -17 -17 -32 -5 -7 -9 -17)
1969-12-31 18:00:14.732500820,(22 9 -2 11 -1 2 5 15)
1969-12-31 18:00:14.752912703,(-1 4 8 -1 1 6 8 4)
1969-12-31 18:00:14.752912703,(7 4 4 9 3 8 14 18)
1969-12-31 18:00:14.755464188,(1 0 8 28 10 -2 -6 -6)
1969-12-31 18:00:14.755464188,(-1 7 -1 -9 -7 -8 -7 -6)
1969-12-31 18:00:14.770773100,(-4 -12 -16 -21 -16 -20 -23 -21)
1969-12-31 18:00:14.770773100,(-21 -14 -5 -4 -5 -3 -4 -8)
1969-12-31 18:00:14.782254784,(-69 -52 -13 -5 -6 -11 -17 -31)
1969-12-31 18:00:14.782254784,(66 53 10 -2 8 19 26 48)
1969-12-31 18:00:14.800115181,(15 6 0 13 6 2 -2 -6)
1969-12-31 18:00:14.800115181,(12 10 0 -2 0 -1 -2 5)
1969-12-31 18:00:14.809045380,(-29 -14 -6 -11 -4 -5 -4 -16)
1969-12-31 18:00:14.809045380,(10 1 -5 -8 -4 3 5 2)
1969-12-31 18:00:14.829457263,(4 6 25 8 11 10 12 11)
1969-12-31 18:00:14.829457263,(9 11 17 53 0 -4 0 7)
1969-12-31 18:00:14.832008748,(26 16 -9 -29 1 8 9 17)
1969-12-31 18:00:14.832008748,(-13 -22 -11 -14 -6 -10 -12 -17)
1969-12-31 18:00:14.858799344,(-3 2 0 3 12 5 7 8)
1969-12-31 18:00:14.858799344,(-9 -10 10 20 -6 -3 -8 -10)
1969-12-31 18:00:14.860075087,(40 33 6 2 -4 -2 2 18)
1969-12-31 18:00:14.860075087,(-52 -35 -21 -23 6 7 7 -10)
1969-12-31 18:00:14.875383999,(10 0 -15 -24 -10 1 4 4)
1969-12-31 18:00:14.875383999,(26 13 8 -5 8 10 25 40)
1969-12-31 18:00:14.886865683,(13 21 -9 -10 -6 -11 -11 -6)
1969-12-31 18:00:14.886865683,(-31 -20 -7 -22 -15 -20 -23 -28)
1969-12-31 18:00:14.906001822,(-5 -10 -10 -58 -12 4 10 6)
1969-12-31 18:00:14.906001822,(31 22 9 75 5 0 0 3)
1969-12-31 18:00:14.908553308,(9 4 33 75 31 15 11 14)
1969-12-31 18:00:14.908553308,(-5 -1 14 -14 4 -4 -10 -10)
1969-12-31 18:00:14.935343904,(-7 -3 -2 39 -5 2 8 8)
1969-12-31 18:00:14.935343904,(-31 -25 -44 -128 -7 -18 -14 -19)
1969-12-31 18:00:14.944274102,(8 -1 5 47 -19 8 16 14)
1969-12-31 18:00:14.944274102,(13 17 29 84 23 8 -1 -3)
1969-12-31 18:00:14.963410242,(-22 -5 10 2 9 -9 -19 -23)
1969-12-31 18:00:14.963410242,(9 -4 -27 -53 -12 7 13 14)
1969-12-31 18:00:14.964685985,(9 3 -14 -39 -11 -10 -7 -1)
1969-12-31 18:00:14.964685985,(-10 -16 -4 -5 -9 -8 -5 -2)
1969-12-31 18:00:14.981270640,(-5 13 9 20 12 23 22 14)
1969-12-31 18:00:14.981270640,(-9 -4 6 48 13 -2 -10 -19)
1969-12-31 18:00:14.982546382,(-46 -30 -24 -69 -4 -5 -8 -20)
1969-12-31 18:00:14.982546382,(48 23 11 6 -21 -10 -9 14)
1969-12-31 18:00:15.010612721,(-16 -12 4 -2 -7 -13 -11 -12)
1969-12-31 18:00:15.010612721,(-16 -12 -7 -32 -7 -3 -5 -8)
1969-12-31 18:00:15.011888464,(-1 -3 -6 14 -6 2 -1 -3)
1969-12-31 18:00:15.011888464,(0 6 7 23 -5 2 4 3)
1969-12-31 18:00:15.039954802,(-2 -2 10 42 30 5 -1 -2)
1969-12-31 18:00:15.039954802,(19 14 -5 -15 -12 -1 1 4)
1969-12-31 18:00:15.041230545,(11 8 8 -4 2 -4 -2 2)
1969-12-31 18:00:15.041230545,(-10 -8 -7 -31 -4 -2 2 0)
1969-12-31 18:00:15.057815200,(13 14 6 17 -8 -5 -4 3)
1969-12-31 18:00:15.059090942,(-2 -1 2 -7 1 4 5 6)
1969-12-31 18:00:15.059090942,(-5 -10 -15 -37 -1 0 -3 -4)
1969-12-31 18:00:15.059090942,(-5 -4 -12 -83 -13 4 7 -1)
1969-12-31 18:00:15.087157281,(-15 -10 6 47 7 -5 -6 -9)
1969-12-31 18:00:15.087157281,(-59 -32 20 33 11 -2 -14 -27)
1969-12-31 18:00:15.088433024,(52 50 23 48 17 7 11 20)
1969-12-31 18:00:15.088433024,(-1 -3 -15 -1 1 4 5 9)
1969-12-31 18:00:15.116499362,(12 5 -18 -60 -21 -6 -6 -5)
1969-12-31 18:00:15.116499362,(-21 -12 -23 -33 -3 -1 -2 -7)
1969-12-31 18:00:15.117775105,(-4 -9 16 38 -7 -2 0 2)
1969-12-31 18:00:15.117775105,(-12 -4 11 35 14 -4 -7 -12)
1969-12-31 18:00:15.135635502,(12 10 1 -2 3 2 8 12)
1969-12-31 18:00:15.135635502,(18 11 0 1 -7 -10 -6 2)
1969-12-31 18:00:15.135635502,(-3 -6 -7 -33 -4 -2 0 -3)
1969-12-31 18:00:15.136911245,(14 3 -6 -3 1 2 4 9)
1969-12-31 18:00:15.163701841,(-14 -9 -2 14 33 -1 -5 -5)
1969-12-31 18:00:15.163701841,(6 -1 5 11 -29 -1 -3 0)
1969-12-31 18:00:15.164977583,(-16 -4 5 3 7 13 20 18)
1969-12-31 18:00:15.164977583,(-31 -9 -11 5 6 -3 -5 -12)
1969-12-31 18:00:15.193043922,(10 -3 -20 -42 -16 -7 -12 -6)
1969-12-31 18:00:15.193043922,(20 15 9 -2 9 8 18 26)
1969-12-31 18:00:15.194319665,(-33 -16 5 15 1 -11 -21 -25)
1969-12-31 18:00:15.194319665,(-21 -13 5 10 6 12 16 5)
1969-12-31 18:00:15.212180062,(56 36 0 -17 -10 -2 -3 3)
1969-12-31 18:00:15.212180062,(22 9 -1 10 -1 1 1 6)
1969-12-31 18:00:15.212180062,(-2 -9 -3 0 -5 -2 -7 -11)
1969-12-31 18:00:15.212180062,(0 -1 -3 -5 4 -4 -2 -5)
1969-12-31 18:00:15.240246401,(-14 -15 -10 3 -14 -8 -6 -4)
1969-12-31 18:00:15.240246401,(7 4 9 14 8 4 4 3)
1969-12-31 18:00:15.241522143,(34 27 1 -5 7 2 5 10)
1969-12-31 18:00:15.241522143,(7 -2 -5 1 2 1 3 4)
1969-12-31 18:00:15.269588482,(-19 -5 3 -9 -11 -5 -8 -13)
1969-12-31 18:00:15.269588482,(-6 -3 -1 -5 -9 -9 -7 -6)
1969-12-31 18:00:15.270864225,(32 23 7 15 22 26 29 29)
1969-12-31 18:00:15.270864225,(-2 -5 -8 7 -5 -11 -11 -7)
1969-12-31 18:00:15.288724622,(-5 7 5 11 2 5 8 -3)
1969-12-31 18:00:15.288724622,(19 11 8 4 11 2 2 8)
1969-12-31 18:00:15.288724622,(-11 -14 -9 -19 -11 -15 -15 -8)
1969-12-31 18:00:15.288724622,(8 3 0 -1 -6 -4 -3 0)
1969-12-31 18:00:15.316790960,(11 3 1 -6 1 5 11 15)
1969-12-31 18:00:15.316790960,(-9 -5 -4 4 8 5 4 0)
1969-12-31 18:00:15.318066703,(-4 -3 -4 -19 -13 -11 -14 -13)
1969-12-31 18:00:15.318066703,(-18 -6 -6 -1 0 3 2 -3)
1969-12-31 18:00:15.334651358,(-11 -14 -5 1 -2 -4 -4 4)
1969-12-31 18:00:15.334651358,(-30 -5 11 11 -4 -6 -8 -16)
1969-12-31 18:00:15.346133042,(-27 -22 2 12 5 -1 -5 -14)
1969-12-31 18:00:15.346133042,(9 7 3 6 1 -1 -4 0)
1969-12-31 18:00:15.365269182,(8 4 -11 -21 -12 -2 1 5)
1969-12-31 18:00:15.365269182,(3 -3 -13 -16 -7 -10 -14 -10)
1969-12-31 18:00:15.365269182,(5 -6 -3 -12 6 4 9 15)
1969-12-31 18:00:15.366544924,(-30 -10 3 -6 -16 -5 -8 -12)
1969-12-31 18:00:15.393335519,(2 -12 2 18 2 0 6 16)
1969-12-31 18:00:15.393335519,(-18 0 6 12 9 4 -3 -9)
1969-12-31 18:00:15.394611262,(12 3 0 12 5 2 -2 -7)
1969-12-31 18:00:15.394611262,(-27 -15 -6 -13 -3 -9 -13 -18)
1969-12-31 18:00:15.411195918,(7 10 8 2 2 9 6 -2)
1969-12-31 18:00:15.412471660,(-8 -8 -4 -10 -6 -3 -2 -2)
1969-12-31 18:00:15.422677602,(11 0 -13 -11 -3 -2 -3 4)
1969-12-31 18:00:15.422677602,(-7 -6 -1 7 1 2 3 -2)
1969-12-31 18:00:15.440537999,(23 10 1 -1 -6 -8 -6 2)
1969-12-31 18:00:15.441813742,(8 -3 -9 -6 -5 -7 -8 -9)
1969-12-31 18:00:15.441813742,(42 20 -2 -1 -4 -1 -1 10)
1969-12-31 18:00:15.441813742,(-18 -2 9 9 6 5 1 -16)
1969-12-31 18:00:15.469880080,(-50 -29 -10 -3 0 -4 -5 -15)
1969-12-31 18:00:15.469880080,(53 24 10 8 14 20 23 29)
1969-12-31 18:00:15.471155823,(15 11 2 -10 -7 -4 -4 0)
1969-12-31 18:00:15.471155823,(24 7 -2 7 0 -1 5 16)
1969-12-31 18:00:15.487740477,(-17 -7 3 2 2 -4 -9 -10)
1969-12-31 18:00:15.487740477,(-36 -14 -5 -5 -7 -8 -15 -26)
1969-12-31 18:00:15.497946419,(-17 -9 -1 -4 1 7 9 5)
1969-12-31 18:00:15.499222161,(21 12 1 -12 0 -1 -1 3)
1969-12-31 18:00:15.518358301,(-35 -7 8 28 9 5 1 -15)
1969-12-31 18:00:15.518358301,(50 19 7 10 2 3 17 48)
1969-12-31 18:00:15.518358301,(-12 -21 -5 -2 -6 -7 -6 -6)
1969-12-31 18:00:15.518358301,(1 -9 -3 -7 2 2 3 7)
1969-12-31 18:00:15.546424640,(-2 1 -13 -21 -11 -5 -7 -13)
1969-12-31 18:00:15.546424640,(-24 -18 -7 -6 -5 -9 -11 -14)
1969-12-31 18:00:15.547700383,(-16 -3 1 6 1 0 -3 -14)
1969-12-31 18:00:15.547700383,(16 5 -16 -53 -7 2 6 11)
1969-12-31 18:00:15.566836523,(6 -9 2 21 0 2 5 13)
1969-12-31 18:00:15.566836523,(-7 11 22 49 1 -1 -4 -14)
1969-12-31 18:00:15.575766721,(21 15 5 13 20 13 18 22)
1969-12-31 18:00:15.575766721,(-26 -13 -1 14 4 -4 -10 -19)
1969-12-31 18:00:15.593627119,(5 -5 -9 -28 -3 -6 -3 0)
1969-12-31 18:00:15.594902861,(-37 -9 -17 -31 -8 -1 -5 -23)
1969-12-31 18:00:15.594902861,(21 11 -1 8 -11 -14 -15 0)
1969-12-31 18:00:15.594902861,(30 25 7 4 -1 -1 1 13)
1969-12-31 18:00:15.622969200,(-1 0 0 -7 8 20 25 18)
1969-12-31 18:00:15.622969200,(-31 -24 -7 -20 -9 -7 -11 -16)
1969-12-31 18:00:15.624244943,(-47 -24 -3 15 11 13 12 -6)
1969-12-31 18:00:15.624244943,(58 39 10 21 7 0 -2 11)
1969-12-31 18:00:15.643381082,(19 12 11 5 5 5 4 8)
1969-12-31 18:00:15.643381082,(25 18 3 -1 5 8 15 17)
1969-12-31 18:00:15.651035539,(-44 -21 -5 -15 -8 -9 -16 -31)
1969-12-31 18:00:15.651035539,(-20 -12 1 -7 -11 -8 -2 -6)
1969-12-31 18:00:15.671447421,(2 -7 -2 -6 -6 -4 0 12)
1969-12-31 18:00:15.671447421,(15 -3 -14 -7 16 10 2 -4)
1969-12-31 18:00:15.671447421,(15 10 -8 -32 -20 -3 1 7)
1969-12-31 18:00:15.671447421,(-4 -3 13 51 2 -2 -5 -6)
1969-12-31 18:00:15.699513760,(-1 4 16 30 17 -3 -9 -5)
1969-12-31 18:00:15.699513760,(-12 -3 6 5 4 -1 -1 -3)
1969-12-31 18:00:15.700789502,(-16 -15 -5 -4 2 0 0 -1)
1969-12-31 18:00:15.700789502,(-37 -22 -9 -21 -12 -6 -1 -8)
1969-12-31 18:00:15.717374157,(18 2 -8 -14 -6 3 1 6)
1969-12-31 18:00:15.717374157,(7 -3 -25 -74 -23 -6 2 8)
1969-12-31 18:00:15.728855841,(-5 0 4 26 10 0 -1 -5)
1969-12-31 18:00:15.728855841,(-9 -14 11 38 -2 -4 -5 -7)
1969-12-31 18:00:15.747991981,(58 68 18 31 21 8 9 19)
1969-12-31 18:00:15.747991981,(-26 -18 1 2 6 6 1 -6)
1969-12-31 18:00:15.747991981,(-22 -15 -10 -34 -17 -9 -12 -12)
1969-12-31 18:00:15.747991981,(-7 -11 -4 -6 -1 -3 0 1)
1969-12-31 18:00:15.776058320,(34 24 2 9 -2 -3 -1 5)
1969-12-31 18:00:15.776058320,(12 4 0 -1 -5 -3 3 11)
1969-12-31 18:00:15.777334062,(2 2 -10 -37 5 9 9 6)
1969-12-31 18:00:15.777334062,(-5 -1 3 13 -3 7 2 -3)
1969-12-31 18:00:15.793918717,(-17 -14 -11 -35 -20 -4 -1 -5)
1969-12-31 18:00:15.793918717,(0 6 17 57 15 -4 -5 -3)
1969-12-31 18:00:15.804124658,(17 6 19 54 22 3 3 8)
1969-12-31 18:00:15.804124658,(3 12 10 9 18 10 6 9)
1969-12-31 18:00:15.823260798,(-69 -49 -30 -61 -25 -12 -18 -41)
1969-12-31 18:00:15.823260798,(-26 -12 -8 -1 -8 -4 0 -2)
1969-12-31 18:00:15.824536541,(41 29 3 2 -4 1 2 12)
1969-12-31 18:00:15.824536541,(-7 -15 -7 -14 -5 -5 -4 -4)
1969-12-31 18:00:15.852602880,(29 22 -7 -5 -4 -1 3 6)
1969-12-31 18:00:15.852602880,(-35 -21 -17 -35 -12 -15 -22 -30)
1969-12-31 18:00:15.853878622,(3 3 6 21 7 8 7 6)
1969-12-31 18:00:15.853878622,(2 2 4 12 8 5 2 0)
1969-12-31 18:00:15.870463277,(-2 -2 6 17 0 -3 -3 2)
1969-12-31 18:00:15.870463277,(14 8 5 -13 -1 -3 -5 -5)
1969-12-31 18:00:15.881944961,(-3 -6 -14 -28 7 -3 -3 -1)
1969-12-31 18:00:15.881944961,(8 4 -4 10 -18 -2 -4 -3)
1969-12-31 18:00:15.901081101,(12 0 15 32 12 -1 1 2)
1969-12-31 18:00:15.901081101,(25 22 16 28 16 15 20 27)
1969-12-31 18:00:15.902356843,(-13 -5 3 4 -4 -4 -7 -14)
1969-12-31 18:00:15.902356843,(6 -7 -31 -78 -16 -11 -6 2)
1969-12-31 18:00:15.929147439,(1 5 1 12 1 1 3 4)
1969-12-31 18:00:15.929147439,(-30 -27 10 29 5 6 3 -1)
1969-12-31 18:00:15.930423182,(58 41 16 15 4 11 16 23)
1969-12-31 18:00:15.930423182,(2 0 -5 -3 5 -2 -6 -4)
1969-12-31 18:00:15.947007837,(-13 -12 -7 -23 -12 -6 -7 -6)
1969-12-31 18:00:15.947007837,(-3 -6 -9 -16 -7 -1 -2 -3)
1969-12-31 18:00:15.957213778,(-17 -7 5 12 -4 -2 0 1)
1969-12-31 18:00:15.957213778,(7 5 -3 -7 5 2 2 2)
1969-12-31 18:00:15.977625661,(-9 -11 -14 -15 0 3 5 3)
1969-12-31 18:00:15.977625661,(25 17 8 30 -3 3 5 11)
1969-12-31 18:00:15.978901403,(-23 -13 6 19 -13 -13 -15 -18)
1969-12-31 18:00:15.978901403,(15 12 9 18 19 8 7 6)
1969-12-31 18:00:16.005691999,(-24 -16 -5 -9 -4 0 -6 -9)
1969-12-31 18:00:16.005691999,(24 8 -10 -21 -1 -4 -1 8)
1969-12-31 18:00:16.006967742,(-18 -2 -3 -19 -18 -7 -5 -12)
1969-12-31 18:00:16.006967742,(0 -8 1 11 1 2 3 9)
1969-12-31 18:00:16.023552397,(-30 -20 1 9 5 -6 -8 -12)
1969-12-31 18:00:16.023552397,(67 44 7 0 10 16 22 32)
1969-12-31 18:00:16.035034081,(-15 -18 -6 -4 -7 -10 -10 -9)
1969-12-31 18:00:16.035034081,(2 1 0 -5 -2 1 3 2)
1969-12-31 18:00:16.052894478,(-11 -7 0 -7 -3 -1 -2 -5)
1969-12-31 18:00:16.054170221,(4 3 -2 5 0 -3 0 5)
1969-12-31 18:00:16.054170221,(-5 -4 -10 -28 -8 -4 -3 -2)
1969-12-31 18:00:16.054170221,(-3 0 -6 -27 -14 -11 -3 -4)
1969-12-31 18:00:16.083512302,(13 7 3 -7 -28 0 5 10)
1969-12-31 18:00:16.083512302,(-17 -5 16 62 57 10 -5 -13)
1969-12-31 18:00:16.083512302,(2 8 26 74 52 24 8 3)
1969-12-31 18:00:16.083512302,(-5 -1 0 17 12 -1 -10 -12)
1969-12-31 18:00:16.111578640,(2 -3 -15 -40 -16 -6 -3 -1)
1969-12-31 18:00:16.111578640,(-1 -8 -17 -55 -44 -15 -4 -2)
1969-12-31 18:00:16.112854383,(-5 -8 -12 -30 -14 -5 2 4)
1969-12-31 18:00:16.112854383,(9 9 1 -8 -3 1 2 7)
1969-12-31 18:00:16.130714780,(-5 -5 1 12 -2 -1 -2 -5)
1969-12-31 18:00:16.130714780,(-13 -10 -4 -15 -12 -6 -5 -11)
1969-12-31 18:00:16.130714780,(18 11 7 17 13 4 11 26)
1969-12-31 18:00:16.130714780,(-30 -5 -1 7 0 3 -8 -36)
1969-12-31 18:00:16.158781119,(2 -1 1 10 14 6 4 0)
1969-12-31 18:00:16.158781119,(-12 -10 -5 -5 1 -5 -5 -7)
1969-12-31 18:00:16.160056862,(-15 -17 -15 -27 -31 -14 -15 -14)
1969-12-31 18:00:16.160056862,(13 4 -2 -4 -8 -2 4 12)
1969-12-31 18:00:16.188123200,(7 8 3 -8 10 5 3 2)
1969-12-31 18:00:16.188123200,(-5 -2 1 24 4 -1 -2 -6)
1969-12-31 18:00:16.189398943,(7 6 6 3 -1 -3 0 4)
1969-12-31 18:00:16.189398943,(5 -1 0 3 -17 -11 -1 2)
1969-12-31 18:00:16.207259340,(2 4 4 10 21 8 3 1)
1969-12-31 18:00:16.207259340,(6 2 -1 -4 18 15 5 7)
1969-12-31 18:00:16.208535083,(-5 -2 -1 7 19 10 4 -5)
1969-12-31 18:00:16.208535083,(4 1 -1 -1 -5 -2 -3 1)
1969-12-31 18:00:16.235325679,(-7 -7 -6 -5 -21 -14 -4 2)
1969-12-31 18:00:16.235325679,(19 14 6 1 -10 -2 8 10)
1969-12-31 18:00:16.236601422,(-23 -15 -8 -12 -11 -14 -19 -29)
1969-12-31 18:00:16.236601422,(11 4 0 11 8 8 11 18)
1969-12-31 18:00:16.274873701,(8 1 3 15 14 11 15 18)
1969-12-31 18:00:16.274873701,(-11 -10 -9 -11 -9 -8 -8 -11)
1969-12-31 18:00:16.276149444,(3 1 -2 -5 4 -3 -2 1)
1969-12-31 18:00:16.276149444,(2 2 -1 -21 -17 -2 0 3)
1969-12-31 18:00:16.294009841,(8 6 4 15 7 -4 -4 0)
1969-12-31 18:00:16.294009841,(1 3 5 4 2 1 -1 -1)
1969-12-31 18:00:16.295285584,(3 -4 -12 -38 -25 -9 4 5)
1969-12-31 18:00:16.295285584,(1 -7 -32 -72 -26 -15 -7 0)
1969-12-31 18:00:16.313145981,(1 4 14 69 12 8 3 1)
1969-12-31 18:00:16.313145981,(-4 7 33 70 63 23 2 -5)
1969-12-31 18:00:16.313145981,(-25 -11 19 48 27 9 -6 -11)
1969-12-31 18:00:16.313145981,(30 8 -2 -5 2 1 0 10)
1969-12-31 18:00:16.341212320,(-20 -9 -20 -58 -40 -20 -23 -34)
1969-12-31 18:00:16.341212320,(-2 -4 -16 -34 -37 -19 -6 1)
1969-12-31 18:00:16.342488063,(32 12 -9 -13 -5 2 5 12)
1969-12-31 18:00:16.342488063,(-59 -36 2 13 12 5 1 -16)
1969-12-31 18:00:16.370554401,(71 46 2 -4 2 2 6 25)
1969-12-31 18:00:16.370554401,(-12 -8 -3 -8 -13 -10 -11 -11)
1969-12-31 18:00:16.371830144,(3 5 -2 -22 -8 -3 -1 0)
1969-12-31 18:00:16.371830144,(-4 -4 -3 0 -25 -13 -5 -4)
1969-12-31 18:00:16.398620740,(-10 -8 2 11 23 6 1 1)
1969-12-31 18:00:16.398620740,(-3 1 -4 -11 11 12 7 3)
1969-12-31 18:00:16.399896483,(6 5 16 40 24 13 6 6)
1969-12-31 18:00:16.399896483,(10 13 22 46 18 9 3 4)
1969-12-31 18:00:16.417756880,(-18 -14 -1 -15 -12 -7 -5 -6)
1969-12-31 18:00:16.417756880,(-4 -9 -15 -30 -27 -15 -8 -3)
1969-12-31 18:00:16.419032623,(13 3 -10 -21 -16 0 8 10)
1969-12-31 18:00:16.419032623,(-2 0 1 7 15 7 2 -5)
1969-12-31 18:00:16.436893020,(10 5 0 -2 1 3 6 12)
1969-12-31 18:00:16.436893020,(7 7 1 -7 -7 -4 -1 4)
1969-12-31 18:00:16.436893020,(-27 -15 -1 2 -5 -5 -2 -6)
1969-12-31 18:00:16.436893020,(30 17 4 8 10 3 3 4)
1969-12-31 18:00:16.466235101,(6 0 1 -2 6 5 7 14)
1969-12-31 18:00:16.466235101,(-8 -7 3 1 -9 -5 -4 -2)
1969-12-31 18:00:16.467510844,(18 17 -1 -3 -1 0 3 3)
1969-12-31 18:00:16.467510844,(7 2 -5 6 8 2 0 5)
1969-12-31 18:00:16.504507381,(-22 -9 1 -3 -2 0 -2 -9)
1969-12-31 18:00:16.504507381,(16 10 3 5 -1 5 10 14)
1969-12-31 18:00:16.505783124,(-8 -6 -5 -8 -11 -8 -9 -9)
1969-12-31 18:00:16.505783124,(-7 -4 2 -1 0 -1 0 0)
1969-12-31 18:00:16.512161837,(2 -13 3 4 1 -2 -1 10)
1969-12-31 18:00:16.512161837,(44 42 -5 3 8 12 14 9)
1969-12-31 18:00:16.513437580,(31 4 -2 -8 -6 -3 4 15)
1969-12-31 18:00:16.513437580,(6 5 6 6 10 10 1 -2)
1969-12-31 18:00:16.542779661,(-16 -12 -3 -2 -6 -9 -6 0)
1969-12-31 18:00:16.542779661,(-5 -10 -5 -7 -8 -10 -12 -11)
1969-12-31 18:00:16.544055404,(-7 -13 -5 1 0 1 3 -1)
1969-12-31 18:00:16.544055404,(-2 2 2 0 -3 -5 -9 -10)
1969-12-31 18:00:16.570846000,(-16 -6 -2 3 5 3 -1 -7)
1969-12-31 18:00:16.570846000,(-18 -13 0 -2 -4 -1 -3 -5)
1969-12-31 18:00:16.572121742,(-4 3 -1 0 -3 0 -3 -8)
1969-12-31 18:00:16.572121742,(-15 -9 0 3 4 4 3 1)
1969-12-31 18:00:16.589982140,(0 2 1 -2 -2 -6 -8 -13)
1969-12-31 18:00:16.589982140,(-8 -8 -1 3 2 1 2 1)
1969-12-31 18:00:16.589982140,(-8 -1 0 -6 -2 -1 -2 -3)
1969-12-31 18:00:16.589982140,(8 5 -2 -6 -3 -3 0 6)
1969-12-31 18:00:16.628254420,(-1 3 1 4 2 2 -2 -6)
1969-12-31 18:00:16.628254420,(1 -6 -10 -26 -9 -3 -2 -2)
1969-12-31 18:00:16.629530162,(-5 0 9 30 14 4 3 2)
1969-12-31 18:00:16.629530162,(-7 1 10 17 -16 0 -4 -4)
1969-12-31 18:00:16.647390560,(1 4 5 13 0 2 1 -3)
1969-12-31 18:00:16.647390560,(-12 -7 -1 2 23 2 -1 -3)
1969-12-31 18:00:16.648666301,(-6 -3 -6 -12 -9 -2 -3 -6)
1969-12-31 18:00:16.648666301,(0 -2 -5 -8 10 -1 1 1)
1969-12-31 18:00:16.665250957,(-4 -3 -5 -16 -13 -1 -2 -4)
1969-12-31 18:00:16.665250957,(1 0 0 -20 -16 -1 1 -1)
1969-12-31 18:00:16.666526699,(5 9 10 15 12 11 8 8)
1969-12-31 18:00:16.666526699,(9 5 -6 16 7 -1 0 4)
1969-12-31 18:00:16.695868781,(-4 -3 4 1 -3 -9 -7 -9)
1969-12-31 18:00:16.695868781,(-7 -6 -9 13 0 -5 -7 -6)
1969-12-31 18:00:16.697144523,(-10 -15 -12 -9 -3 -6 -6 -9)
1969-12-31 18:00:16.697144523,(-13 -11 -21 -34 -9 -11 -8 -8)
1969-12-31 18:00:16.723935119,(3 0 -7 -8 0 0 0 2)
1969-12-31 18:00:16.723935119,(-6 0 17 25 16 1 -3 -6)
1969-12-31 18:00:16.725210862,(0 6 12 3 -24 0 2 1)
1969-12-31 18:00:16.725210862,(6 3 0 -11 -11 1 5 6)
1969-12-31 18:00:16.743071259,(3 4 1 -9 10 4 3 1)
1969-12-31 18:00:16.743071259,(5 0 -10 -1 11 3 0 1)
1969-12-31 18:00:16.743071259,(-3 3 22 29 11 5 1 -1)
1969-12-31 18:00:16.743071259,(3 4 6 7 7 3 4 2)
1969-12-31 18:00:16.769861855,(5 12 23 -16 -6 5 5 3)
1969-12-31 18:00:16.769861855,(2 -7 -33 -16 -16 -9 -2 2)
1969-12-31 18:00:16.781343539,(-9 -27 -27 -7 -7 -13 -10 -8)
1969-12-31 18:00:16.781343539,(-13 -2 -4 15 10 -3 -8 -11)
1969-12-31 18:00:16.800479679,(-6 -8 -6 1 6 1 0 -3)
1969-12-31 18:00:16.800479679,(2 14 41 -7 -4 8 6 3)
1969-12-31 18:00:16.803031165,(9 13 1 3 2 4 5 7)
1969-12-31 18:00:16.803031165,(9 -1 -5 1 -4 -5 0 4)
1969-12-31 18:00:16.818340077,(-9 -7 -5 5 -3 -3 -7 -8)
1969-12-31 18:00:16.818340077,(-3 -4 -8 -7 -10 -2 0 -1)
1969-12-31 18:00:16.829821761,(1 0 -13 -96 -22 -6 0 1)
1969-12-31 18:00:16.829821761,(1 1 15 47 -15 2 3 1)
1969-12-31 18:00:16.847682158,(8 17 42 73 38 14 9 6)
1969-12-31 18:00:16.847682158,(-3 -3 -4 23 -2 -4 -7 -6)
1969-12-31 18:00:16.856612356,(-6 -15 -51 -57 5 -12 -6 -4)
1969-12-31 18:00:16.856612356,(-6 -8 0 -9 -1 3 -2 -4)
1969-12-31 18:00:16.877024239,(-4 -4 -4 23 21 1 -3 -1)
1969-12-31 18:00:16.877024239,(-8 -2 24 28 -8 6 -2 -4)
1969-12-31 18:00:16.879575724,(3 13 18 0 5 5 1 1)
1969-12-31 18:00:16.879575724,(8 5 -15 -39 -3 -2 2 7)
1969-12-31 18:00:16.894884636,(2 -10 -32 -33 -25 -4 2 2)
1969-12-31 18:00:16.894884636,(2 -2 -3 -5 0 0 3 5)
1969-12-31 18:00:16.906366320,(-1 7 7 -2 -7 0 -2 -3)
1969-12-31 18:00:16.906366320,(-1 -3 -10 -3 5 -1 -2 0)
1969-12-31 18:00:16.925502460,(3 7 33 30 -4 2 3 3)
1969-12-31 18:00:16.925502460,(-1 1 -29 -6 13 3 -1 -2)
1969-12-31 18:00:16.926778203,(-3 -22 -23 -1 -13 -16 -8 -3)
1969-12-31 18:00:16.926778203,(-20 -4 13 -26 -9 -5 -10 -15)
1969-12-31 18:00:16.953568799,(6 4 -5 -6 3 -1 1 3)
1969-12-31 18:00:16.953568799,(4 8 31 -11 -14 6 5 2)
1969-12-31 18:00:16.956120284,(9 13 15 59 21 12 8 7)
1969-12-31 18:00:16.956120284,(5 -2 -4 15 16 4 1 3)
1969-12-31 18:00:16.971429196,(-7 -10 -11 -28 -6 -8 -5 -6)
