time,.data
1969/12/31/18:00:08.325000,(-2 -5 -4 -7 -18 -7 -1 -2)
1969/12/31/18:00:08.325000,(0 1 1 1 1 -2 -14 -8)
1969/12/31/18:00:08.326000,(-1 -3 -5 -6 -5 -1 -1 -2)
1969/12/31/18:00:08.326000,(-1 2 1 2 10 3 1 0)
1969/12/31/18:00:08.348000,(-6 -8 -9 -14 -24 -5 -6 -5)
1969/12/31/18:00:08.348000,(1 1 2 6 13 3 5 1)
1969/12/31/18:00:08.355000,(-3 0 0 0 -7 -3 -1 -3)
1969/12/31/18:00:08.355000,(1 -4 -3 2 15 2 -3 -2)
1969/12/31/18:00:08.362000,(-3 -3 -2 -17 -19 -5 -2 -3)
1969/12/31/18:00:08.362000,(-1 -4 -1 19 3 0 -3 -1)
1969/12/31/18:00:08.370000,(-3 -7 -23 -30 -11 -3 0 -3)
1969/12/31/18:00:08.370000,(-2 0 -8 -41 -26 -15 -11 -4)
1969/12/31/18:00:08.385000,(6 10 27 57 52 38 43 13)
1969/12/31/18:00:08.385000,(2 4 3 -5 -25 -20 -51 -9)
1969/12/31/18:00:08.386000,(3 7 19 67 68 3 3 -1)
1969/12/31/18:00:08.386000,(1 2 9 17 2 14 20 10)
1969/12/31/18:00:08.408000,(-5 -8 -16 -42 -46 -15 -11 -4)
1969/12/31/18:00:08.408000,(-1 -2 -5 -12 -2 13 29 7)
1969/12/31/18:00:08.409000,(-1 -2 -3 -45 -84 -24 7 -1)
1969/12/31/18:00:08.409000,(-2 1 4 53 96 17 -5 -7)
1969/12/31/18:00:08.422000,(-5 -9 -7 -33 -39 -20 -53 -16)
1969/12/31/18:00:08.422000,(-3 -5 -13 16 15 14 13 -2)
1969/12/31/18:00:08.430000,(-1 -5 -35 -38 -33 -8 5 2)
1969/12/31/18:00:08.430000,(5 13 47 -8 -10 -4 7 1)
1969/12/31/18:00:08.445000,(2 1 -13 1 -72 -44 -3 6)
1969/12/31/18:00:08.445000,(2 10 49 28 38 27 -14 -9)
1969/12/31/18:00:08.446000,(0 -1 4 50 74 42 18 8)
1969/12/31/18:00:08.446000,(0 -3 -33 -26 -17 5 -16 -2)
1969/12/31/18:00:08.468000,(-4 -3 7 1 14 27 29 -2)
1969/12/31/18:00:08.468000,(-2 -6 -24 -18 -2 -67 14 8)
1969/12/31/18:00:08.469000,(-7 -8 -21 -39 7 19 -52 -14)
1969/12/31/18:00:08.469000,(7 9 27 60 68 25 25 16)
1969/12/31/18:00:08.482000,(-4 -7 -7 -6 -43 -9 -2 -5)
1969/12/31/18:00:08.482000,(0 0 -13 -3 27 13 -1 3)
1969/12/31/18:00:08.490000,(-1 3 39 16 -17 -34 -21 -7)
1969/12/31/18:00:08.490000,(-5 -7 -17 -26 -25 -6 -7 -9)
1969/12/31/18:00:08.506000,(-3 -2 -5 9 28 4 -12 -7)
1969/12/31/18:00:08.506000,(-4 -11 -25 -29 -37 -9 13 2)
1969/12/31/18:00:08.506000,(-4 -5 -8 -19 -9 -9 -2 1)
1969/12/31/18:00:08.506000,(-5 -7 5 -1 -17 -9 -18 -8)
1969/12/31/18:00:08.528000,(4 1 -53 -11 -29 -4 21 9)
1969/12/31/18:00:08.528000,(9 17 93 72 57 31 11 13)
1969/12/31/18:00:08.536000,(-2 9 -19 -13 -10 -8 -1 -16)
1969/12/31/18:00:08.536000,(-4 -1 27 -12 4 -8 -6 -9)
1969/12/31/18:00:08.542000,(-2 -15 -14 -5 -28 -4 -2 12)
1969/12/31/18:00:08.542000,(1 1 -15 5 8 -6 30 -2)
1969/12/31/18:00:08.550000,(-8 -17 -13 -5 -14 11 -21 -3)
1969/12/31/18:00:08.550000,(-1 11 -10 4 10 2 -4 -7)
1969/12/31/18:00:08.565000,(-2 1 13 -3 12 -15 -11 -5)
1969/12/31/18:00:08.565000,(-2 -4 -16 -20 -27 3 -2 1)
1969/12/31/18:00:08.566000,(3 1 14 6 -3 -1 17 7)
1969/12/31/18:00:08.566000,(-2 -9 -26 -14 -21 -9 1 0)
1969/12/31/18:00:08.588000,(6 11 29 19 30 9 -6 3)
1969/12/31/18:00:08.588000,(-2 0 -9 -9 -13 4 -4 -2)
1969/12/31/18:00:08.589000,(-3 0 -2 0 3 -3 10 -3)
1969/12/31/18:00:08.589000,(-3 -6 -4 1 -5 -3 -9 -2)
1969/12/31/18:00:08.619000,(-2 -6 3 1 22 6 5 -3)
1969/12/31/18:00:08.619000,(-1 -4 -3 -13 -11 -7 -17 -7)
1969/12/31/18:00:08.619000,(7 4 6 7 3 0 0 7)
1969/12/31/18:00:08.619000,(-2 -1 -10 -2 -9 -4 7 2)
1969/12/31/18:00:08.625000,(-1 12 8 -3 11 -2 -5 -7)
1969/12/31/18:00:08.625000,(-3 -1 -17 -18 -14 -3 -3 -2)
1969/12/31/18:00:08.626000,(3 8 10 8 1 4 5 6)
1969/12/31/18:00:08.626000,(2 2 1 8 -4 0 4 1)
1969/12/31/18:00:08.648000,(-5 -2 -3 -7 11 2 -3 -3)
1969/12/31/18:00:08.648000,(-1 -5 -5 -5 -6 -3 -8 -1)
1969/12/31/18:00:08.649000,(3 -3 0 7 1 0 7 5)
1969/12/31/18:00:08.649000,(0 -8 -1 2 -4 -4 0 1)
1969/12/31/18:00:08.671000,(-21 -3 1 -4 2 -2 -18 -29)
1969/12/31/18:00:08.671000,(15 -4 -2 -1 -5 0 4 23)
1969/12/31/18:00:08.672000,(8 16 10 9 4 0 3 -2)
1969/12/31/18:00:08.672000,(5 4 -3 -2 -6 -3 5 14)
1969/12/31/18:00:08.701000,(-45 -26 1 2 8 6 4 -7)
1969/12/31/18:00:08.701000,(77 44 16 10 2 8 14 22)
1969/12/31/18:00:08.702000,(-52 -47 -21 -12 -8 -23 -25 -35)
1969/12/31/18:00:08.702000,(34 25 13 7 5 -7 60 28)
1969/12/31/18:00:08.708000,(12 22 6 5 13 35 20 -1)
1969/12/31/18:00:08.708000,(-3 -7 3 3 1 -34 -65 -18)
1969/12/31/18:00:08.709000,(9 -22 -29 -21 -16 3 -4 16)
1969/12/31/18:00:08.709000,(-29 2 8 8 7 12 4 -19)
1969/12/31/18:00:08.731000,(19 -7 -15 -13 -10 -23 18 5)
1969/12/31/18:00:08.731000,(-59 -5 19 17 17 -31 0 -21)
1969/12/31/18:00:08.732000,(35 15 4 3 -10 1 -11 -9)
1969/12/31/18:00:08.732000,(-34 -42 -26 -17 -12 -15 -22 -31)
1969/12/31/18:00:08.745000,(17 6 2 3 6 2 -35 8)
1969/12/31/18:00:08.745000,(-22 -5 -13 -15 -14 -3 6 -3)
1969/12/31/18:00:08.746000,(24 15 16 10 12 -1 16 18)
1969/12/31/18:00:08.746000,(-1 18 0 -1 3 13 -3 -17)
1969/12/31/18:00:08.768000,(16 3 -2 -1 -2 -10 2 25)
1969/12/31/18:00:08.768000,(-9 -39 -20 -12 -7 13 5 12)
1969/12/31/18:00:08.769000,(-11 4 6 2 -1 -10 0 7)
1969/12/31/18:00:08.769000,(6 -5 -2 -1 -2 4 4 -3)
1969/12/31/18:00:08.791000,(-14 1 6 3 3 17 -9 -15)
1969/12/31/18:00:08.791000,(-36 -30 -13 -7 -2 33 -3 -30)
1969/12/31/18:00:08.792000,(1 28 11 6 0 36 17 21)
1969/12/31/18:00:08.792000,(12 -16 -16 -9 -18 -60 -31 -35)
1969/12/31/18:00:08.814000,(7 -7 5 3 4 23 -12 5)
1969/12/31/18:00:08.814000,(38 40 6 1 0 6 1 0)
1969/12/31/18:00:08.814000,(-53 -35 6 11 5 10 6 -30)
1969/12/31/18:00:08.814000,(8 -6 -12 -6 0 13 6 22)
1969/12/31/18:00:08.829000,(5 1 -12 -13 -9 -16 -3 2)
1969/12/31/18:00:08.829000,(-1 -15 -9 -8 -11 -5 16 0)
1969/12/31/18:00:08.829000,(-8 15 8 5 9 5 -7 -14)
1969/12/31/18:00:08.829000,(17 9 11 8 2 -6 11 34)
1969/12/31/18:00:08.851000,(-30 -13 -12 -8 -7 -7 -2 -29)
1969/12/31/18:00:08.851000,(31 14 -3 -4 -6 -12 10 55)
1969/12/31/18:00:08.852000,(51 16 -4 -3 0 2 11 26)
1969/12/31/18:00:08.852000,(-58 -15 5 4 4 7 -16 -20)
1969/12/31/18:00:08.865000,(5 9 0 2 1 3 24 4)
1969/12/31/18:00:08.865000,(-13 3 -1 -5 -2 -7 -17 -34)
1969/12/31/18:00:08.866000,(5 15 11 6 3 7 -8 14)
1969/12/31/18:00:08.866000,(-26 -32 -14 -9 -6 3 -1 -11)
1969/12/31/18:00:08.888000,(6 21 12 6 3 5 16 -7)
1969/12/31/18:00:08.888000,(2 -6 -8 -3 0 25 4 25)
1969/12/31/18:00:08.889000,(-29 -32 -9 -6 -2 -9 6 -2)
1969/12/31/18:00:08.889000,(19 12 1 0 -2 -2 -24 3)
1969/12/31/18:00:08.911000,(-16 0 3 2 4 8 12 -15)
1969/12/31/18:00:08.911000,(11 -1 -5 -3 -5 -13 15 59)
1969/12/31/18:00:08.912000,(33 2 -5 -1 1 -16 -14 -25)
1969/12/31/18:00:08.912000,(-18 -2 1 0 2 8 -6 -6)
1969/12/31/18:00:08.925000,(16 -5 8 6 5 -4 -4 23)
1969/12/31/18:00:08.925000,(20 20 5 -4 -8 -13 13 21)
1969/12/31/18:00:08.926000,(-55 8 12 4 5 12 7 -45)
1969/12/31/18:00:08.926000,(-16 9 -2 3 3 11 3 -4)
1969/12/31/18:00:08.949000,(68 -10 -6 -2 -4 -34 -5 51)
1969/12/31/18:00:08.949000,(-37 0 0 0 3 -4 -34 -40)
1969/12/31/18:00:08.949000,(-43 -31 -13 -5 -5 -23 2 -29)
1969/12/31/18:00:08.949000,(-67 -29 -4 -3 -3 1 -20 -68)
1969/12/31/18:00:08.979000,(42 53 10 -4 -5 12 -27 -6)
1969/12/31/18:00:08.979000,(-55 -32 -4 5 4 -13 -17 -41)
1969/12/31/18:00:08.980000,(10 -2 -11 -10 -8 -16 -52 -32)
1969/12/31/18:00:08.980000,(9 -6 4 2 1 8 10 37)
1969/12/31/18:00:08.985000,(9 13 9 5 3 -2 6 27)
1969/12/31/18:00:08.985000,(51 15 1 -1 2 26 22 14)
1969/12/31/18:00:08.986000,(-1 -9 -4 0 -3 -10 -14 -5)
1969/12/31/18:00:08.986000,(19 -12 -12 -5 -1 5 26 22)
1969/12/31/18:00:09.008000,(-52 -14 7 6 6 3 -6 -54)
1969/12/31/18:00:09.008000,(10 2 -4 -8 -12 -16 -21 -62)
1969/12/31/18:00:09.009000,(-10 -4 -4 -5 -2 -2 -3 13)
1969/12/31/18:00:09.009000,(15 14 5 -1 -2 -3 6 -5)
1969/12/31/18:00:09.031000,(6 9 7 9 6 -10 9 0)
1969/12/31/18:00:09.031000,(-65 -12 -5 -2 0 5 -7 -50)
1969/12/31/18:00:09.032000,(21 -6 0 -3 0 4 2 17)
1969/12/31/18:00:09.032000,(-1 5 -7 -7 -9 -6 -32 -24)
1969/12/31/18:00:09.045000,(-3 -15 -8 -5 -4 -19 -8 20)
1969/12/31/18:00:09.045000,(27 -9 -3 -2 0 -11 21 19)
1969/12/31/18:00:09.046000,(1 6 4 7 4 24 26 26)
1969/12/31/18:00:09.046000,(58 36 16 13 10 7 8 55)
1969/12/31/18:00:09.069000,(-59 -31 -13 -4 -3 -8 -14 -36)
1969/12/31/18:00:09.069000,(2 -2 -2 -3 -3 12 3 -20)
1969/12/31/18:00:09.069000,(29 58 17 4 3 -2 21 12)
1969/12/31/18:00:09.069000,(-82 -52 -14 -5 -8 -22 -49 -106)
1969/12/31/18:00:09.092000,(30 -34 -24 -12 -6 6 10 46)
1969/12/31/18:00:09.092000,(-24 -6 -3 -6 -3 -3 -4 -7)
1969/12/31/18:00:09.092000,(27 33 14 5 2 -2 5 12)
1969/12/31/18:00:09.092000,(-19 0 -2 -1 1 7 23 17)
1969/12/31/18:00:09.105000,(-3 -8 -7 -3 -2 -8 -35 -8)
1969/12/31/18:00:09.105000,(5 -22 -13 -8 -6 -1 0 -11)
1969/12/31/18:00:09.106000,(-17 2 2 5 2 -9 -26 -38)
1969/12/31/18:00:09.106000,(36 -5 -12 -14 -1 22 5 28)
1969/12/31/18:00:09.128000,(-16 2 6 4 1 -8 33 23)
1969/12/31/18:00:09.128000,(40 27 10 7 0 4 19 9)
1969/12/31/18:00:09.130000,(-21 -18 -6 -3 -2 -12 -34 -11)
1969/12/31/18:00:09.130000,(17 4 2 4 3 27 -3 18)
1969/12/31/18:00:09.151000,(2 1 2 -1 -1 13 5 6)
1969/12/31/18:00:09.151000,(-17 8 6 7 6 -9 -32 -3)
1969/12/31/18:00:09.153000,(-17 -29 -19 -12 -10 -11 15 -33)
1969/12/31/18:00:09.153000,(9 30 12 6 3 -4 6 16)
1969/12/31/18:00:09.165000,(22 -16 -5 -3 -4 -27 -7 13)
1969/12/31/18:00:09.165000,(11 3 4 4 6 36 16 59)
1969/12/31/18:00:09.174000,(-35 -36 -12 -6 -6 -2 -9 -53)
1969/12/31/18:00:09.174000,(48 14 -2 -2 -2 -8 12 35)
1969/12/31/18:00:09.188000,(11 33 4 -5 -6 -7 2 -33)
1969/12/31/18:00:09.188000,(-27 -35 -12 -6 -2 2 -6 3)
1969/12/31/18:00:09.190000,(2 11 11 15 18 12 4 24)
1969/12/31/18:00:09.190000,(19 -8 -11 -12 -17 -34 29 51)
1969/12/31/18:00:09.211000,(-33 3 3 1 1 9 -11 -4)
1969/12/31/18:00:09.211000,(50 32 9 5 5 -11 33 37)
1969/12/31/18:00:09.213000,(-39 -14 -1 1 3 15 -45 -23)
1969/12/31/18:00:09.213000,(5 -2 -8 -10 -13 -14 -52 -31)
1969/12/31/18:00:09.225000,(-81 -39 -18 -7 -3 42 -13 -23)
1969/12/31/18:00:09.225000,(58 14 0 -1 -18 -61 32 48)
1969/12/31/18:00:09.234000,(-16 12 2 -4 -7 -15 43 5)
1969/12/31/18:00:09.234000,(13 -8 3 1 -1 -12 -27 -12)
1969/12/31/18:00:09.249000,(-16 -14 -8 -1 3 9 10 -26)
1969/12/31/18:00:09.249000,(-30 -9 -1 12 30 69 -18 -35)
1969/12/31/18:00:09.250000,(19 5 3 6 4 -6 32 46)
1969/12/31/18:00:09.250000,(-1 14 12 -1 -22 -9 31 16)
1969/12/31/18:00:09.271000,(26 12 -4 -18 -17 -28 -20 -48)
1969/12/31/18:00:09.271000,(-33 -3 4 -2 16 22 -9 -11)
1969/12/31/18:00:09.273000,(90 -2 -6 1 -13 -36 -6 107)
1969/12/31/18:00:09.273000,(-29 -4 3 23 36 28 30 -27)
1969/12/31/18:00:09.285000,(-10 7 9 7 -15 -9 -40 -40)
1969/12/31/18:00:09.285000,(-31 -19 -15 -22 -20 -7 -18 -25)
1969/12/31/18:00:09.294000,(25 21 4 7 4 19 15 20)
1969/12/31/18:00:09.294000,(17 -14 -13 -37 -35 -16 -21 7)
1969/12/31/18:00:09.308000,(21 19 8 -1 11 0 6 30)
1969/12/31/18:00:09.308000,(17 6 8 6 -8 -31 -39 -5)
1969/12/31/18:00:09.310000,(22 6 -6 -8 8 69 44 33)
1969/12/31/18:00:09.310000,(-52 -14 4 27 30 3 8 -48)
1969/12/31/18:00:09.331000,(14 2 1 4 -3 2 -17 28)
1969/12/31/18:00:09.331000,(-20 1 -1 -10 -34 -45 -19 -34)
1969/12/31/18:00:09.332000,(-20 -9 -1 1 4 -37 -70 -40)
1969/12/31/18:00:09.333000,(-4 12 2 -5 -9 -1 11 -6)
1969/12/31/18:00:09.345000,(-18 -6 -7 8 37 20 -15 -23)
1969/12/31/18:00:09.345000,(17 -1 2 -9 -19 -13 8 44)
1969/12/31/18:00:09.354000,(72 37 -4 -8 0 -9 10 23)
1969/12/31/18:00:09.354000,(-47 -53 -6 5 17 7 9 -2)
1969/12/31/18:00:09.368000,(-8 0 5 9 -13 -12 25 -4)
1969/12/31/18:00:09.368000,(-20 -2 -1 15 15 11 39 -28)
1969/12/31/18:00:09.370000,(-4 1 -2 -5 -12 -2 -9 -11)
1969/12/31/18:00:09.370000,(13 5 -3 -9 0 8 -3 11)
1969/12/31/18:00:09.398000,(18 -6 1 14 28 16 28 31)
1969/12/31/18:00:09.398000,(-9 11 2 -10 -24 -9 2 -1)
1969/12/31/18:00:09.400000,(-25 -25 0 0 -11 -30 -2 -18)
1969/12/31/18:00:09.400000,(13 26 -1 -3 21 35 -1 0)
1969/12/31/18:00:09.405000,(-9 -16 -10 -17 -11 -33 -7 -11)
1969/12/31/18:00:09.405000,(33 8 2 13 1 33 15 42)
1969/12/31/18:00:09.414000,(-19 -1 1 4 9 -12 -9 -25)
1969/12/31/18:00:09.414000,(2 -4 -1 7 -15 -4 -26 -13)
1969/12/31/18:00:09.428000,(58 -3 -8 -23 2 19 14 21)
1969/12/31/18:00:09.428000,(19 17 6 11 24 -11 -9 -12)
1969/12/31/18:00:09.442000,(-30 -19 -9 -16 -18 0 5 -9)
1969/12/31/18:00:09.442000,(6 2 -1 0 17 21 13 17)
1969/12/31/18:00:09.451000,(-21 11 4 -2 -40 -38 -13 -9)
1969/12/31/18:00:09.451000,(-60 -6 -3 -2 13 18 12 -26)
1969/12/31/18:00:09.452000,(21 -19 -5 7 13 -19 8 3)
1969/12/31/18:00:09.452000,(38 13 -11 -12 18 31 -10 34)
1969/12/31/18:00:09.465000,(-8 5 19 22 -21 -24 1 18)
1969/12/31/18:00:09.465000,(-14 -13 -12 -14 -17 -14 -9 1)
1969/12/31/18:00:09.474000,(-19 -68 -78 -24 -19 5 11 -4)
1969/12/31/18:00:09.474000,(22 93 27 -4 -14 -13 -2 2)
1969/12/31/18:00:09.488000,(-12 11 17 18 21 22 7 -18)
1969/12/31/18:00:09.488000,(21 -15 18 22 17 -1 4 35)
1969/12/31/18:00:09.495000,(-32 -36 -25 -10 -27 -13 -8 -12)
1969/12/31/18:00:09.495000,(-32 -62 -18 -8 -9 8 3 -17)
1969/12/31/18:00:09.511000,(20 44 -35 -26 -4 -14 -18 -15)
1969/12/31/18:00:09.511000,(-17 5 25 20 13 -3 -16 -9)
1969/12/31/18:00:09.512000,(-5 47 44 12 19 25 17 5)
1969/12/31/18:00:09.512000,(4 22 24 9 -18 -22 -15 -28)
1969/12/31/18:00:09.534000,(-11 -6 -8 -12 -13 -11 16 -6)
1969/12/31/18:00:09.534000,(8 -42 -41 -6 45 42 -24 -10)
1969/12/31/18:00:09.535000,(0 -8 -24 10 -2 -12 10 -38)
1969/12/31/18:00:09.535000,(-17 -77 -47 -28 -19 22 11 -13)
1969/12/31/18:00:09.548000,(-7 -52 -30 -20 -29 4 13 22)
1969/12/31/18:00:09.548000,(-13 -23 -34 -28 -22 -21 -20 -24)
1969/12/31/18:00:09.555000,(-1 52 14 2 5 4 -6 -14)
1969/12/31/18:00:09.555000,(-6 44 41 41 40 -20 -3 -11)
1969/12/31/18:00:09.579000,(7 -5 -14 -19 -32 -15 -17 -11)
1969/12/31/18:00:09.579000,(-42 4 22 0 -30 -12 11 -12)
1969/12/31/18:00:09.580000,(-1 -22 15 9 27 25 2 29)
1969/12/31/18:00:09.580000,(-2 -34 -26 -9 -6 -38 5 4)
1969/12/31/18:00:09.594000,(-40 -1 8 23 48 18 -26 -49)
1969/12/31/18:00:09.594000,(43 77 27 11 13 4 -7 -15)
1969/12/31/18:00:09.595000,(12 -8 -29 -40 -37 17 9 12)
1969/12/31/18:00:09.595000,(32 -51 -33 -20 -26 -18 -26 -1)
1969/12/31/18:00:09.608000,(-23 19 66 47 45 28 26 29)
1969/12/31/18:00:09.608000,(-3 -4 -44 -20 -30 -43 -15 -28)
1969/12/31/18:00:09.610000,(27 102 127 58 45 56 36 54)
1969/12/31/18:00:09.610000,(-37 -21 -11 -6 -13 -28 -1 -7)
1969/12/31/18:00:09.631000,(-14 -61 -50 -21 -9 -8 -18 -36)
1969/12/31/18:00:09.631000,(-48 -104 -77 -32 -25 -31 -12 -22)
1969/12/31/18:00:09.632000,(-32 -128 -128 -51 -12 -9 -19 -13)
1969/12/31/18:00:09.632000,(50 127 103 35 3 20 0 10)
1969/12/31/18:00:09.654000,(-5 33 64 65 41 -1 37 55)
1969/12/31/18:00:09.654000,(-4 13 -31 6 25 42 -7 -7)
1969/12/31/18:00:09.655000,(19 84 74 -1 -28 -24 9 23)
1969/12/31/18:00:09.655000,(-17 -101 -84 -26 -7 -39 -15 -2)
1969/12/31/18:00:09.668000,(-25 -2 -69 -36 -12 17 17 23)
1969/12/31/18:00:09.668000,(51 -1 66 40 19 2 26 62)
1969/12/31/18:00:09.675000,(-62 66 25 -10 -20 1 4 29)
1969/12/31/18:00:09.675000,(38 36 29 16 36 -2 -5 16)
1969/12/31/18:00:09.691000,(8 -38 -27 -19 -32 4 8 -17)
1969/12/31/18:00:09.691000,(39 -49 -42 -21 5 -3 -3 -43)
1969/12/31/18:00:09.693000,(-85 -116 -40 31 21 -45 -29 -94)
1969/12/31/18:00:09.693000,(38 4 -24 -46 -18 85 11 33)
1969/12/31/18:00:09.721000,(-3 31 -15 -29 -38 -36 -15 -16)
1969/12/31/18:00:09.721000,(-24 118 116 29 15 29 19 -4)
1969/12/31/18:00:09.729000,(52 -36 0 14 8 -25 -16 3)
1969/12/31/18:00:09.729000,(-120 -119 -116 -46 -16 -38 3 -6)
1969/12/31/18:00:09.730000,(45 72 52 21 13 19 -27 -17)
1969/12/31/18:00:09.730000,(17 80 85 45 -7 -8 -5 -23)
1969/12/31/18:00:09.736000,(-40 -74 -9 11 8 -2 -11 -21)
1969/12/31/18:00:09.736000,(13 -29 -38 16 -1 -6 9 59)
1969/12/31/18:00:09.751000,(17 -56 -24 -13 5 18 11 26)
1969/12/31/18:00:09.751000,(-32 -124 -128 -51 -29 -44 1 84)
1969/12/31/18:00:09.752000,(-17 127 91 34 43 39 13 -4)
1969/12/31/18:00:09.752000,(12 -6 36 -4 -30 6 -20 -43)
1969/12/31/18:00:09.774000,(35 4 -20 -20 -11 -5 10 62)
1969/12/31/18:00:09.774000,(4 25 44 17 2 -9 3 11)
1969/12/31/18:00:09.775000,(47 -74 -79 -23 -5 -11 -17 -51)
1969/12/31/18:00:09.775000,(-18 -53 -42 19 43 -2 27 14)
1969/12/31/18:00:09.787000,(27 76 48 8 -34 16 -5 -1)
1969/12/31/18:00:09.787000,(54 -41 -22 -16 -27 -10 -7 15)
1969/12/31/18:00:09.796000,(-48 -71 -81 -37 -19 2 -13 -20)
1969/12/31/18:00:09.796000,(8 127 111 46 23 -12 7 -20)
1969/12/31/18:00:09.811000,(5 -74 -33 6 22 11 8 4)
1969/12/31/18:00:09.811000,(-76 -109 -126 -57 -11 -6 -28 -48)
1969/12/31/18:00:09.813000,(127 93 14 0 -13 16 46 127)
1969/12/31/18:00:09.813000,(-2 64 73 33 17 21 2 17)
1969/12/31/18:00:09.834000,(-23 -111 -86 -22 -17 -41 -26 -33)
1969/12/31/18:00:09.834000,(1 127 101 42 17 20 -29 -59)
1969/12/31/18:00:09.835000,(-34 -91 -34 -14 8 -11 6 5)
1969/12/31/18:00:09.835000,(-33 -92 -92 -31 -27 -4 -25 -49)
1969/12/31/18:00:09.847000,(12 -5 4 9 -2 19 12 19)
1969/12/31/18:00:09.847000,(-8 -57 -18 8 24 10 32 43)
1969/12/31/18:00:09.856000,(-34 -23 -17 -16 -19 20 -6 -81)
1969/12/31/18:00:09.856000,(12 41 9 -19 -9 -29 -11 24)
1969/12/31/18:00:09.871000,(36 8 22 5 16 -2 13 10)
1969/12/31/18:00:09.871000,(-12 -128 -128 -36 -22 -6 -4 -28)
1969/12/31/18:00:09.873000,(-8 127 76 22 17 10 -10 -4)
1969/12/31/18:00:09.873000,(19 33 60 54 19 12 16 -3)
1969/12/31/18:00:09.895000,(-53 -96 -76 -7 20 -1 -7 -35)
1969/12/31/18:00:09.895000,(13 63 -18 -24 -12 -22 -9 26)
1969/12/31/18:00:09.897000,(94 55 76 87 46 49 27 51)
1969/12/31/18:00:09.897000,(-29 -117 -126 -29 -20 -14 -6 -15)
1969/12/31/18:00:09.907000,(-48 -7 -20 -1 2 2 -15 -32)
1969/12/31/18:00:09.907000,(-38 -103 -64 -24 -19 -12 0 -11)
1969/12/31/18:00:09.916000,(5 -48 -102 -48 -7 -20 -23 -5)
1969/12/31/18:00:09.916000,(58 126 127 43 12 42 26 20)
1969/12/31/18:00:09.931000,(8 -27 -19 0 1 -25 -16 9)
1969/12/31/18:00:09.931000,(8 -81 -9 3 -9 22 8 18)
1969/12/31/18:00:09.932000,(-47 -115 -85 -33 3 -34 -1 -20)
1969/12/31/18:00:09.932000,(-41 -39 -35 -18 8 19 -15 -25)
1969/12/31/18:00:09.954000,(33 30 15 -25 -24 -26 -11 -6)
1969/12/31/18:00:09.954000,(-6 -22 -7 13 5 -1 -9 -5)
1969/12/31/18:00:09.955000,(19 94 98 62 30 23 17 20)
1969/12/31/18:00:09.955000,(-10 -116 -43 -2 18 -1 22 6)
1969/12/31/18:00:09.967000,(36 56 -42 -31 -43 -39 -12 3)
1969/12/31/18:00:09.967000,(3 103 113 17 -13 37 15 -4)
1969/12/31/18:00:09.976000,(4 -128 -128 -60 -42 -27 -3 24)
1969/12/31/18:00:09.976000,(4 122 66 33 7 21 4 8)
1969/12/31/18:00:09.991000,(15 23 28 28 33 17 23 5)
1969/12/31/18:00:09.991000,(-63 -68 -43 -7 -6 -38 -40 -52)
1969/12/31/18:00:09.992000,(-2 -66 -27 -26 -29 -2 -9 3)
1969/12/31/18:00:09.992000,(-29 -35 -28 -12 15 -12 8 -5)
1969/12/31/18:00:10.014000,(9 16 45 6 -11 -9 -4 -15)
1969/12/31/18:00:10.014000,(36 -45 -74 -29 -4 -10 9 41)
1969/12/31/18:00:10.015000,(-39 124 116 42 35 42 17 -24)
1969/12/31/18:00:10.015000,(-10 -15 -1 -1 -11 -19 -19 -12)
1969/12/31/18:00:10.027000,(-59 -89 -75 -9 -5 2 10 3)
1969/12/31/18:00:10.027000,(3 127 98 24 28 37 -2 -31)
1969/12/31/18:00:10.044000,(-16 -44 -32 -11 1 -8 1 7)
1969/12/31/18:00:10.044000,(45 -71 -91 -31 -9 -2 7 46)
1969/12/31/18:00:10.051000,(-53 -17 44 18 -11 -1 5 4)
1969/12/31/18:00:10.051000,(2 -128 -63 21 40 22 5 16)
1969/12/31/18:00:10.053000,(60 118 82 20 19 3 23 6)
1969/12/31/18:00:10.053000,(12 -12 17 -20 -69 -34 -12 -12)
1969/12/31/18:00:10.074000,(-1 -63 -53 -18 12 15 1 16)
1969/12/31/18:00:10.074000,(-48 -46 -24 -3 -3 0 10 -5)
1969/12/31/18:00:10.075000,(-11 -32 -35 -16 -19 2 -6 5)
1969/12/31/18:00:10.075000,(3 -40 -21 -3 8 -13 -9 -8)
1969/12/31/18:00:10.087000,(-1 36 2 -11 -7 5 1 7)
1969/12/31/18:00:10.087000,(29 35 13 -2 -15 -8 0 1)
1969/12/31/18:00:10.096000,(-1 62 63 27 -1 -20 -9 -2)
1969/12/31/18:00:10.096000,(-11 13 -30 -5 -13 0 7 -20)
1969/12/31/18:00:10.111000,(35 50 24 5 10 14 3 27)
1969/12/31/18:00:10.111000,(-33 -29 5 8 4 3 13 30)
1969/12/31/18:00:10.112000,(-17 -92 -123 -42 -15 -21 -13 7)
1969/12/31/18:00:10.112000,(-5 23 30 5 -13 -15 -7 -15)
1969/12/31/18:00:10.134000,(1 36 62 19 13 8 -3 -1)
1969/12/31/18:00:10.134000,(31 127 56 32 21 10 13 10)
1969/12/31/18:00:10.135000,(-26 -84 -41 -20 -62 -18 -4 -11)
1969/12/31/18:00:10.135000,(-14 -72 -80 -33 8 -3 -7 28)
1969/12/31/18:00:10.147000,(14 87 93 23 -2 -16 -45 -90)
1969/12/31/18:00:10.147000,(-4 -80 -46 -19 -4 5 7 -2)
1969/12/31/18:00:10.156000,(-20 13 -16 -2 -2 8 14 -10)
1969/12/31/18:00:10.156000,(-25 0 0 -11 -1 -19 -11 -36)
1969/12/31/18:00:10.171000,(-27 -36 -23 2 -5 11 -4 -4)
1969/12/31/18:00:10.171000,(32 45 20 -6 -3 -24 -18 -7)
1969/12/31/18:00:10.172000,(20 -34 -2 10 10 0 -11 5)
1969/12/31/18:00:10.172000,(-2 60 19 6 -24 -24 -3 -14)
1969/12/31/18:00:10.194000,(-21 -106 -74 -4 24 35 19 16)
1969/12/31/18:00:10.194000,(-15 45 -34 -26 -19 -25 3 43)
1969/12/31/18:00:10.195000,(11 56 80 16 2 8 -31 -45)
1969/12/31/18:00:10.195000,(-38 -106 -57 8 31 12 -4 -43)
1969/12/31/18:00:10.207000,(19 14 -61 -48 -40 -10 7 11)
1969/12/31/18:00:10.207000,(7 44 70 42 10 13 4 -2)
1969/12/31/18:00:10.216000,(-10 -79 -76 -6 42 14 4 13)
1969/12/31/18:00:10.216000,(49 -35 -52 -54 -57 -1 23 39)
1969/12/31/18:00:10.231000,(-67 51 72 37 13 -13 12 8)
1969/12/31/18:00:10.231000,(49 79 12 -14 -18 -14 -22 -27)
1969/12/31/18:00:10.233000,(-8 23 39 11 9 -21 -11 -4)
1969/12/31/18:00:10.233000,(33 -4 28 39 31 -10 1 13)
1969/12/31/18:00:10.254000,(-13 -128 -128 -41 7 38 13 10)
1969/12/31/18:00:10.254000,(20 107 98 12 -2 16 10 -3)
1969/12/31/18:00:10.255000,(-59 -44 -15 -8 -13 -29 -19 -45)
1969/12/31/18:00:10.255000,(19 38 28 24 9 2 -5 11)
1969/12/31/18:00:10.267000,(21 9 2 -6 -15 -18 -22 -32)
1969/12/31/18:00:10.267000,(-35 -19 -3 7 19 -8 -7 -30)
1969/12/31/18:00:10.276000,(-3 -72 -54 -22 -10 19 -15 -5)
1969/12/31/18:00:10.276000,(-40 1 -28 -14 -9 6 23 20)
1969/12/31/18:00:10.291000,(12 120 121 51 15 -28 -17 -63)
1969/12/31/18:00:10.291000,(44 -107 -51 -9 -9 -5 7 18)
1969/12/31/18:00:10.292000,(18 41 -38 -2 5 4 7 28)
1969/12/31/18:00:10.292000,(-25 32 17 -37 -47 -14 -20 -11)
1969/12/31/18:00:10.314000,(18 -8 -5 5 13 8 -2 24)
1969/12/31/18:00:10.314000,(-63 -90 -92 -30 -30 -28 -9 -52)
1969/12/31/18:00:10.315000,(40 65 28 -12 -13 1 -2 12)
1969/12/31/18:00:10.315000,(17 97 89 26 24 18 14 23)
1969/12/31/18:00:10.327000,(33 -5 2 -6 9 -14 -4 12)
1969/12/31/18:00:10.327000,(4 20 30 25 10 7 -12 -8)
1969/12/31/18:00:10.336000,(18 -8 24 19 9 8 25 15)
1969/12/31/18:00:10.336000,(-56 -52 -45 -12 -9 -12 -41 -50)
1969/12/31/18:00:10.350000,(-14 -81 -17 -1 3 13 3 7)
1969/12/31/18:00:10.350000,(-36 -62 -58 -28 8 -7 10 14)
1969/12/31/18:00:10.374000,(-15 127 120 34 -7 10 9 -10)
1969/12/31/18:00:10.374000,(81 44 46 26 31 -10 16 47)
1969/12/31/18:00:10.375000,(-24 -127 -100 -40 -36 23 -21 -30)
1969/12/31/18:00:10.375000,(-4 20 -20 -25 -12 -11 -1 7)
1969/12/31/18:00:10.377000,(-1 26 54 38 17 -2 15 24)
1969/12/31/18:00:10.377000,(-4 -51 -24 7 24 5 -6 -26)
1969/12/31/18:00:10.387000,(-51 -19 -69 -32 7 -20 -3 -4)
1969/12/31/18:00:10.387000,(48 97 101 26 -31 11 7 -9)
1969/12/31/18:00:10.404000,(-24 -125 -128 -44 47 17 -17 -10)
1969/12/31/18:00:10.404000,(-26 127 110 45 -38 3 -3 -34)
1969/12/31/18:00:10.411000,(25 11 34 8 9 3 6 12)
1969/12/31/18:00:10.411000,(-24 -46 -61 -18 14 18 12 0)
1969/12/31/18:00:10.419000,(0 64 91 19 -2 2 9 10)
1969/12/31/18:00:10.419000,(2 -128 -128 -35 11 11 9 7)
1969/12/31/18:00:10.433000,(9 127 108 30 3 1 8 37)
1969/12/31/18:00:10.433000,(3 -17 -5 4 4 9 -6 -10)
1969/12/31/18:00:10.435000,(85 40 4 -10 -30 -39 -16 18)
1969/12/31/18:00:10.435000,(-22 -38 -24 -13 10 15 -2 -4)
1969/12/31/18:00:10.447000,(-13 -57 -29 -15 -16 -23 -5 -14)
1969/12/31/18:00:10.447000,(-10 -79 -14 19 54 26 2 -6)
1969/12/31/18:00:10.456000,(11 51 54 19 -13 -8 5 -4)
1969/12/31/18:00:10.456000,(38 -32 -22 -17 -27 -17 4 21)
1969/12/31/18:00:10.470000,(-11 -8 -63 -25 -16 12 -1 -13)
1969/12/31/18:00:10.470000,(-1 67 80 47 45 9 -12 3)
1969/12/31/18:00:10.477000,(-74 -128 -128 -64 -30 -4 -2 -33)
1969/12/31/18:00:10.477000,(60 125 35 32 30 1 9 46)
1969/12/31/18:00:10.493000,(3 74 89 20 -6 -11 1 2)
1969/12/31/18:00:10.493000,(-6 -97 -90 -25 -28 -22 -6 -24)
1969/12/31/18:00:10.495000,(-29 -61 -30 8 -1 0 -12 -4)
1969/12/31/18:00:10.495000,(-48 23 14 -25 -8 22 -2 -35)
1969/12/31/18:00:10.516000,(28 -32 -59 -9 3 -12 8 25)
1969/12/31/18:00:10.516000,(-42 -17 11 -7 -11 -6 -19 -52)
1969/12/31/18:00:10.518000,(10 -53 -47 -21 -17 -63 -13 10)
1969/12/31/18:00:10.518000,(-2 20 57 34 29 43 -11 -9)
1969/12/31/18:00:10.530000,(2 45 58 29 17 31 24 12)
1969/12/31/18:00:10.530000,(19 62 33 3 -3 0 5 8)
1969/12/31/18:00:10.537000,(-19 -96 -84 -19 6 1 -9 -14)
1969/12/31/18:00:10.537000,(21 16 25 29 34 11 2 5)
1969/12/31/18:00:10.561000,(36 2 -17 -13 -2 -19 -10 1)
1969/12/31/18:00:10.561000,(12 -66 -32 -12 -29 12 28 72)
1969/12/31/18:00:10.563000,(84 92 101 30 0 24 41 26)
1969/12/31/18:00:10.563000,(-12 -76 -82 -31 -10 -26 -23 3)
1969/12/31/18:00:10.576000,(23 87 51 39 31 23 38 87)
1969/12/31/18:00:10.576000,(-83 -128 -73 -14 3 -22 -29 -56)
1969/12/31/18:00:10.578000,(24 106 43 8 -12 21 -10 8)
1969/12/31/18:00:10.578000,(20 -22 24 9 -9 -15 9 8)
1969/12/31/18:00:10.590000,(-40 -128 -92 -24 -6 -25 -14 -11)
1969/12/31/18:00:10.591000,(-7 21 -13 -16 3 26 10 4)
1969/12/31/18:00:10.597000,(-24 -64 -26 -2 -6 -7 -16 -38)
1969/12/31/18:00:10.597000,(5 48 7 -5 16 3 2 19)
1969/12/31/18:00:10.614000,(-23 -65 -35 -7 -12 -15 -21 -43)
1969/12/31/18:00:10.614000,(20 74 12 -28 -35 8 11 19)
1969/12/31/18:00:10.615000,(-32 12 21 9 2 -10 -16 -35)
1969/12/31/18:00:10.615000,(-32 -127 -88 -24 -6 -3 -2 -21)
1969/12/31/18:00:10.636000,(33 77 33 6 -5 -8 -4 11)
1969/12/31/18:00:10.636000,(17 29 55 21 10 -9 -24 -26)
1969/12/31/18:00:10.638000,(3 93 71 21 17 40 33 34)
1969/12/31/18:00:10.638000,(-30 -6 -8 -11 -20 -33 -5 -17)
1969/12/31/18:00:10.650000,(-27 -99 -37 -11 -3 17 -13 -30)
1969/12/31/18:00:10.650000,(19 -24 -27 -5 6 -3 16 30)
1969/12/31/18:00:10.657000,(-25 -55 -48 -3 15 2 0 26)
1969/12/31/18:00:10.657000,(-36 -12 0 -7 -38 -7 3 -25)
1969/12/31/18:00:10.674000,(15 10 2 -5 4 8 18 8)
1969/12/31/18:00:10.674000,(9 24 47 4 2 1 -8 5)
1969/12/31/18:00:10.675000,(-20 -63 -52 -10 -5 -28 -9 9)
1969/12/31/18:00:10.675000,(41 68 61 29 36 38 9 -7)
1969/12/31/18:00:10.696000,(20 7 -7 17 -12 -6 12 19)
1969/12/31/18:00:10.696000,(1 -7 -7 3 -8 -5 12 46)
1969/12/31/18:00:10.698000,(-50 -115 -65 -33 -19 -13 -25 -49)
1969/12/31/18:00:10.698000,(4 41 -8 14 19 -1 6 33)
1969/12/31/18:00:10.719000,(28 -19 18 14 -1 -10 -19 -17)
1969/12/31/18:00:10.719000,(13 -59 -60 -8 4 15 14 1)
1969/12/31/18:00:10.720000,(-15 -90 -36 -4 2 -10 -19 -6)
1969/12/31/18:00:10.720000,(16 -34 -58 -16 3 4 -9 -28)
1969/12/31/18:00:10.734000,(9 83 65 8 -12 9 6 7)
1969/12/31/18:00:10.734000,(32 -2 15 0 -6 -20 7 19)
1969/12/31/18:00:10.735000,(13 -2 -13 -12 -15 1 -1 6)
1969/12/31/18:00:10.735000,(-25 -116 -66 -25 18 10 0 21)
1969/12/31/18:00:10.756000,(-47 54 -41 -12 -38 -10 -19 -47)
1969/12/31/18:00:10.756000,(-15 -23 -26 8 1 12 -4 -45)
1969/12/31/18:00:10.758000,(16 88 66 30 5 -7 11 13)
1969/12/31/18:00:10.758000,(24 -38 -13 -6 -12 -11 -10 -4)
1969/12/31/18:00:10.771000,(-36 -12 27 9 26 1 1 -24)
1969/12/31/18:00:10.771000,(-14 -92 -114 -42 -15 -16 -14 7)
1969/12/31/18:00:10.777000,(25 47 50 19 6 8 3 -8)
1969/12/31/18:00:10.777000,(-31 14 -14 -11 -22 -11 -11 -55)
1969/12/31/18:00:10.794000,(69 -7 28 18 17 6 23 60)
1969/12/31/18:00:10.794000,(-12 -45 -36 -26 -14 -4 -15 -8)
1969/12/31/18:00:10.795000,(21 18 3 10 15 21 11 15)
1969/12/31/18:00:10.795000,(-61 -66 -27 -14 0 -11 -1 -13)
1969/12/31/18:00:10.816000,(-7 40 11 -2 -1 6 0 -3)
1969/12/31/18:00:10.816000,(-23 -8 35 23 16 -8 -14 -3)
1969/12/31/18:00:10.817000,(-28 -55 -80 -40 -33 1 -3 -11)
1969/12/31/18:00:10.817000,(-3 -81 -48 -17 -7 0 8 22)
1969/12/31/18:00:10.838000,(54 62 82 85 42 -13 5 15)
1969/12/31/18:00:10.839000,(23 -54 -75 9 33 23 0 -2)
1969/12/31/18:00:10.840000,(-39 -90 -81 -30 -16 -3 3 -2)
1969/12/31/18:00:10.840000,(-13 103 97 28 -23 5 -13 -40)
1969/12/31/18:00:10.853000,(-22 -28 -18 -26 -10 -19 -10 -21)
1969/12/31/18:00:10.853000,(6 -20 -17 -9 0 -18 -4 1)
1969/12/31/18:00:10.855000,(-6 -22 -11 11 16 4 -17 -27)
1969/12/31/18:00:10.855000,(27 19 32 3 9 17 28 28)
1969/12/31/18:00:10.883000,(-83 -86 -68 -49 -29 -11 -35 -62)
1969/12/31/18:00:10.883000,(19 127 107 33 -12 2 29 27)
1969/12/31/18:00:10.885000,(4 -10 -18 -19 -8 -9 -6 -1)
1969/12/31/18:00:10.885000,(32 11 -9 5 -5 -6 16 47)
1969/12/31/18:00:10.890000,(-54 -83 -47 -24 -26 -39 -62 -70)
1969/12/31/18:00:10.890000,(-13 -78 -29 -11 2 20 16 12)
1969/12/31/18:00:10.897000,(-5 83 57 1 -4 -13 -2 -6)
1969/12/31/18:00:10.897000,(53 119 124 59 19 -16 3 6)
1969/12/31/18:00:10.913000,(22 -46 -85 -17 23 44 28 36)
1969/12/31/18:00:10.913000,(-2 4 -2 3 -12 -15 -1 4)
1969/12/31/18:00:10.921000,(70 6 -9 5 20 25 18 38)
1969/12/31/18:00:10.921000,(-71 -89 -49 -3 -7 -10 -37 -56)
1969/12/31/18:00:10.935000,(20 36 53 -4 -10 13 29 17)
1969/12/31/18:00:10.935000,(-34 -41 -12 -6 5 6 4 -8)
1969/12/31/18:00:10.944000,(-1 -1 -36 -17 -1 -24 -16 -9)
1969/12/31/18:00:10.944000,(27 69 55 13 -23 -8 5 30)
1969/12/31/18:00:10.950000,(-11 -38 -32 -8 4 -6 -3 4)
1969/12/31/18:00:10.950000,(20 18 18 8 4 12 12 8)
1969/12/31/18:00:10.957000,(24 57 67 26 10 -3 -2 1)
1969/12/31/18:00:10.957000,(-46 -121 -112 -49 -10 -1 -15 -19)
1969/12/31/18:00:10.973000,(30 111 114 45 18 18 18 23)
1969/12/31/18:00:10.973000,(77 119 80 35 13 2 19 45)
1969/12/31/18:00:10.975000,(-47 -50 -25 11 18 13 -3 -31)
1969/12/31/18:00:10.975000,(-3 -96 -84 -23 -5 -15 -7 20)
1969/12/31/18:00:10.996000,(63 27 -2 -4 5 -2 2 7)
1969/12/31/18:00:10.996000,(-32 49 37 1 -24 -50 -51 -62)
1969/12/31/18:00:10.998000,(31 19 29 7 4 41 36 36)
1969/12/31/18:00:10.998000,(-1 -53 -27 -22 -9 -1 3 5)
1969/12/31/18:00:11.010000,(-6 -85 -50 21 28 10 22 30)
1969/12/31/18:00:11.010000,(13 46 12 6 8 -4 -6 16)
1969/12/31/18:00:11.036000,(-4 -23 -7 -25 -32 -5 -9 -19)
1969/12/31/18:00:11.036000,(7 -20 -10 -4 10 12 4 2)
1969/12/31/18:00:11.036000,(28 -1 -35 -11 3 -1 -3 16)
1969/12/31/18:00:11.036000,(35 100 64 28 10 -6 -9 -9)
1969/12/31/18:00:11.040000,(-50 -79 -18 -8 -8 1 3 -4)
1969/12/31/18:00:11.040000,(38 44 -11 -10 -9 0 7 31)
1969/12/31/18:00:11.057000,(-45 -11 -3 -9 -5 -14 -19 -46)
1969/12/31/18:00:11.057000,(-3 -15 -36 -7 1 -8 -3 10)
1969/12/31/18:00:11.062000,(9 -13 -31 -5 7 25 3 11)
1969/12/31/18:00:11.062000,(17 35 50 19 10 10 13 16)
1969/12/31/18:00:11.070000,(-85 -128 -88 -43 -24 -9 -25 -35)
1969/12/31/18:00:11.070000,(5 39 4 -11 -4 7 20 9)
1969/12/31/18:00:11.079000,(16 115 103 57 17 -13 5 -9)
1969/12/31/18:00:11.079000,(18 13 2 20 17 -2 -29 -19)
1969/12/31/18:00:11.094000,(36 -17 5 -1 -24 4 17 45)
1969/12/31/18:00:11.094000,(-50 -128 -99 -45 -22 -4 -6 -18)
1969/12/31/18:00:11.095000,(21 51 18 -1 -2 -15 3 21)
1969/12/31/18:00:11.095000,(2 -6 -11 -4 6 0 -11 -32)
1969/12/31/18:00:11.116000,(43 97 97 38 16 10 19 28)
1969/12/31/18:00:11.116000,(-21 -37 -2 15 23 9 -9 -17)
1969/12/31/18:00:11.117000,(-7 -7 -19 -27 -43 -14 -2 2)
1969/12/31/18:00:11.117000,(3 -4 4 -8 -18 -26 -9 6)
1969/12/31/18:00:11.130000,(-18 -35 -36 5 10 7 0 -7)
1969/12/31/18:00:11.130000,(-74 -28 -28 -35 -25 2 0 -36)
1969/12/31/18:00:11.139000,(11 -12 -17 21 37 -2 -5 3)
1969/12/31/18:00:11.139000,(-11 11 17 -2 -10 -5 -5 -4)
1969/12/31/18:00:11.153000,(-7 43 46 20 -1 -6 -1 -1)
1969/12/31/18:00:11.153000,(76 127 73 36 14 17 3 17)
1969/12/31/18:00:11.159000,(-79 -88 -66 -49 -47 -24 -17 -8)
1969/12/31/18:00:11.159000,(-13 -27 -11 -13 -7 -9 -7 -22)
1969/12/31/18:00:11.176000,(14 -20 -21 -13 -1 -1 3 12)
1969/12/31/18:00:11.176000,(-1 -40 -16 -1 5 4 4 -1)
1969/12/31/18:00:11.190000,(2 12 -2 -5 3 1 6 12)
1969/12/31/18:00:11.190000,(38 66 32 21 11 6 4 7)
1969/12/31/18:00:11.191000,(-87 -80 -46 -41 -27 -9 -13 -40)
1969/12/31/18:00:11.191000,(23 -2 -6 -2 6 -8 1 29)
1969/12/31/18:00:11.199000,(-7 0 11 21 5 11 11 -4)
1969/12/31/18:00:11.199000,(13 27 7 -9 2 12 7 13)
1969/12/31/18:00:11.213000,(0 -16 -15 5 17 8 13 7)
1969/12/31/18:00:11.213000,(-28 -31 -15 -5 -3 0 -5 -18)
1969/12/31/18:00:11.215000,(17 9 7 1 -10 -25 -6 1)
1969/12/31/18:00:11.215000,(-18 21 21 9 7 0 -1 8)
1969/12/31/18:00:11.236000,(-1 -19 -28 -39 -32 -2 -22 -34)
1969/12/31/18:00:11.236000,(-21 -12 -1 7 3 0 -5 -4)
1969/12/31/18:00:11.238000,(42 -1 -5 -2 8 4 3 6)
1969/12/31/18:00:11.238000,(-48 -9 3 11 1 -8 2 -25)
1969/12/31/18:00:11.250000,(62 1 2 16 18 5 36 66)
1969/12/31/18:00:11.250000,(9 29 -7 -12 -17 -7 -9 -13)
1969/12/31/18:00:11.259000,(-42 -30 -17 -12 -7 -7 -1 2)
1969/12/31/18:00:11.259000,(-21 2 4 -2 -4 -8 -23 -37)
1969/12/31/18:00:11.272000,(-34 -22 7 9 6 7 -8 -5)
1969/12/31/18:00:11.272000,(68 36 11 8 3 2 17 27)
1969/12/31/18:00:11.281000,(24 47 6 -10 -5 -7 -14 -7)
1969/12/31/18:00:11.281000,(-9 16 15 12 7 11 12 25)
1969/12/31/18:00:11.296000,(-31 -43 -13 -1 7 5 -1 -5)
1969/12/31/18:00:11.296000,(-1 -28 0 3 0 0 -8 -14)
1969/12/31/18:00:11.298000,(13 12 1 1 4 -4 -13 -17)
1969/12/31/18:00:11.298000,(19 -6 -5 5 0 12 16 28)
1969/12/31/18:00:11.310000,(-8 -17 -5 0 2 -4 -2 -7)
1969/12/31/18:00:11.310000,(13 4 0 -6 0 -1 4 21)
1969/12/31/18:00:11.318000,(35 24 7 8 0 -2 1 4)
1969/12/31/18:00:11.318000,(22 14 1 -1 -1 4 4 15)
1969/12/31/18:00:11.333000,(57 35 19 8 5 2 8 28)
1969/12/31/18:00:11.333000,(-24 -14 -15 -10 -8 -8 -13 -26)
1969/12/31/18:00:11.339000,(8 2 9 4 8 7 1 -3)
1969/12/31/18:00:11.339000,(-27 -32 -9 2 1 4 5 0)
1969/12/31/18:00:11.356000,(-22 11 -10 -10 -9 -13 -15 -25)
1969/12/31/18:00:11.356000,(32 5 4 4 2 7 11 42)
1969/12/31/18:00:11.357000,(35 8 4 5 4 3 5 9)
1969/12/31/18:00:11.357000,(9 1 -6 -6 -4 -2 -1 3)
1969/12/31/18:00:11.370000,(16 22 -1 -5 -5 -4 -5 -7)
1969/12/31/18:00:11.370000,(-80 -46 -16 -10 -7 -5 -8 -22)
1969/12/31/18:00:11.379000,(-11 -4 7 3 1 0 -1 4)
1969/12/31/18:00:11.379000,(-17 -6 -4 -1 -4 -4 -7 -24)
1969/12/31/18:00:11.393000,(20 10 -3 -4 1 -2 -3 -3)
1969/12/31/18:00:11.393000,(-21 9 6 1 1 3 2 -5)
1969/12/31/18:00:11.400000,(-36 -31 -3 7 6 2 -4 -11)
1969/12/31/18:00:11.400000,(0 3 4 2 -2 -5 -3 -13)
1969/12/31/18:00:11.416000,(-15 -1 -6 -2 -8 -9 -12 -21)
1969/12/31/18:00:11.416000,(6 3 0 3 3 2 -1 -5)
1969/12/31/18:00:11.418000,(-35 -36 -16 -12 -7 -1 -3 -13)
1969/12/31/18:00:11.418000,(11 -18 -21 -22 -7 1 1 9)
1969/12/31/18:00:11.439000,(-5 22 12 15 4 0 -1 4)
1969/12/31/18:00:11.439000,(10 -33 -19 -17 -7 -6 -5 -7)
1969/12/31/18:00:11.440000,(2 31 4 7 2 0 0 -4)
1969/12/31/18:00:11.441000,(6 25 26 11 6 3 2 8)
1969/12/31/18:00:11.453000,(-7 -17 -17 -4 -1 -1 -4 -6)
1969/12/31/18:00:11.453000,(1 25 27 11 -1 0 0 -2)
1969/12/31/18:00:11.460000,(-14 -18 -11 -8 -3 -3 -4 -11)
1969/12/31/18:00:11.460000,(-3 -21 -19 -14 -8 -7 -8 -4)
1969/12/31/18:00:11.477000,(-6 5 4 1 0 -5 -8 -5)
1969/12/31/18:00:11.477000,(0 -8 -13 5 8 12 24 17)
1969/12/31/18:00:11.478000,(-10 -11 -2 -11 -14 -11 -23 -22)
1969/12/31/18:00:11.478000,(-6 -10 -11 -7 -3 -2 0 1)
1969/12/31/18:00:11.499000,(1 0 -7 -11 -6 -3 1 4)
1969/12/31/18:00:11.499000,(-18 -34 2 -1 -4 -4 -11 -21)
1969/12/31/18:00:11.500000,(22 51 0 -2 6 5 12 20)
1969/12/31/18:00:11.500000,(-4 18 48 30 8 4 3 3)
1969/12/31/18:00:11.513000,(-12 -33 -24 -11 -12 -7 -7 -6)
1969/12/31/18:00:11.513000,(3 13 -24 -12 -5 -8 1 3)
1969/12/31/18:00:11.520000,(2 25 63 32 18 8 4 -5)
1969/12/31/18:00:11.520000,(4 -15 -36 -12 -6 -2 -1 -2)
1969/12/31/18:00:11.543000,(4 31 34 14 8 8 8 3)
1969/12/31/18:00:11.543000,(-3 -14 -7 -4 -3 1 4 5)
1969/12/31/18:00:11.545000,(-9 -40 -40 -20 -9 -9 -7 2)
1969/12/31/18:00:11.545000,(6 25 38 13 3 -1 -3 2)
1969/12/31/18:00:11.558000,(-6 -18 -11 -3 -2 0 -7 -12)
1969/12/31/18:00:11.558000,(-4 16 7 4 0 -2 -14 -17)
1969/12/31/18:00:11.560000,(-10 -23 -16 -6 -6 -3 4 2)
1969/12/31/18:00:11.560000,(3 -17 -23 -7 -3 3 4 1)
1969/12/31/18:00:11.573000,(0 -5 -33 -17 -5 -3 2 7)
1969/12/31/18:00:11.573000,(4 13 11 2 -1 0 3 1)
1969/12/31/18:00:11.587000,(-8 -17 0 0 1 2 -3 -2)
1969/12/31/18:00:11.587000,(3 -5 -17 -4 0 -2 7 7)
1969/12/31/18:00:11.596000,(1 -3 -1 -2 0 2 2 -4)
1969/12/31/18:00:11.596000,(-3 18 6 4 3 0 -6 -3)
1969/12/31/18:00:11.598000,(-12 -35 -3 -1 -4 -2 4 -7)
1969/12/31/18:00:11.598000,(18 13 -13 -6 -3 -1 0 3)
1969/12/31/18:00:11.619000,(-5 -20 0 3 1 0 9 9)
1969/12/31/18:00:11.619000,(5 41 38 11 3 -1 -16 -16)
1969/12/31/18:00:11.620000,(-4 -7 -15 -9 -2 1 -1 -8)
1969/12/31/18:00:11.620000,(-11 -3 6 4 0 -4 -12 -10)
1969/12/31/18:00:11.632000,(10 16 13 1 0 -4 -3 -1)
1969/12/31/18:00:11.632000,(-3 -20 -32 -9 0 1 7 6)
1969/12/31/18:00:11.641000,(8 3 9 3 2 1 -2 8)
1969/12/31/18:00:11.641000,(-9 -25 -11 -11 -9 0 0 -3)
1969/12/31/18:00:11.663000,(-10 32 19 10 5 -2 -7 -9)
1969/12/31/18:00:11.663000,(-8 -21 -15 1 5 2 0 1)
1969/12/31/18:00:11.670000,(0 14 2 -1 -1 -1 -1 -1)
1969/12/31/18:00:11.670000,(8 -2 -7 -9 -3 -1 2 5)
1969/12/31/18:00:11.678000,(-4 -10 6 4 0 1 1 3)
1969/12/31/18:00:11.678000,(-3 -20 -11 -7 -7 -7 -5 -3)
1969/12/31/18:00:11.680000,(4 10 3 6 5 4 5 2)
1969/12/31/18:00:11.680000,(-16 -35 -16 -15 -7 -2 -3 -4)
1969/12/31/18:00:11.692000,(3 24 -21 -9 -1 0 -2 -1)
1969/12/31/18:00:11.692000,(16 48 49 22 8 0 1 2)
1969/12/31/18:00:11.701000,(-5 -31 -14 -5 -5 -3 -2 -2)
1969/12/31/18:00:11.701000,(-5 8 23 7 1 0 0 -1)
1969/12/31/18:00:11.716000,(-1 -3 -20 -13 -5 -3 -5 -4)
1969/12/31/18:00:11.716000,(-15 -21 -8 -12 -6 -1 2 0)
1969/12/31/18:00:11.718000,(29 61 -22 1 5 -1 2 7)
1969/12/31/18:00:11.718000,(-5 -6 -2 8 5 4 2 1)
1969/12/31/18:00:11.739000,(-7 -6 8 0 -2 -3 -2 -6)
1969/12/31/18:00:11.739000,(-3 -17 -14 -3 0 0 -2 0)
1969/12/31/18:00:11.740000,(-17 -52 -2 -7 -6 -3 -4 -6)
1969/12/31/18:00:11.740000,(9 57 22 9 5 2 0 3)
1969/12/31/18:00:11.762000,(3 -6 -4 -2 -2 0 -1 1)
1969/12/31/18:00:11.762000,(-16 -36 -39 -16 -7 -5 -5 -9)
1969/12/31/18:00:11.767000,(-6 -8 0 3 -1 -1 -1 -4)
1969/12/31/18:00:11.767000,(13 15 -36 -10 1 1 1 4)
1969/12/31/18:00:11.776000,(3 7 27 13 6 4 3 4)
1969/12/31/18:00:11.776000,(-5 -36 -15 -11 -6 -3 -1 1)
1969/12/31/18:00:11.778000,(5 30 18 3 -1 1 3 4)
1969/12/31/18:00:11.778000,(-8 -13 0 -1 -4 -7 -9 -12)
1969/12/31/18:00:11.799000,(-4 -2 -8 -4 -2 -2 -4 -4)
1969/12/31/18:00:11.799000,(1 7 16 5 4 1 -1 1)
1969/12/31/18:00:11.800000,(-3 -14 -5 -2 -1 0 -1 1)
1969/12/31/18:00:11.800000,(-3 -8 7 1 1 1 3 2)
1969/12/31/18:00:11.812000,(6 6 -1 -12 -7 -6 -2 -1)
1969/12/31/18:00:11.812000,(-1 5 -2 5 -1 -1 -3 -4)
1969/12/31/18:00:11.821000,(-6 -1 0 -8 -5 -4 -2 -4)
1969/12/31/18:00:11.821000,(-13 -20 17 3 -2 1 -2 -6)
1969/12/31/18:00:11.836000,(13 32 -9 7 4 1 2 1)
1969/12/31/18:00:11.836000,(5 8 -1 2 1 2 3 7)
1969/12/31/18:00:11.838000,(0 9 -2 -4 -2 1 -1 -3)
1969/12/31/18:00:11.838000,(-2 -8 -16 -9 -3 -1 0 0)
1969/12/31/18:00:11.858000,(-5 -11 17 9 4 -1 -2 0)
1969/12/31/18:00:11.858000,(3 11 7 -1 -1 -1 -1 -1)
1969/12/31/18:00:11.865000,(-2 -3 7 6 4 2 -1 -3)
1969/12/31/18:00:11.865000,(0 -4 -5 -3 -3 -2 0 1)
1969/12/31/18:00:11.872000,(-9 -20 0 -4 -5 -2 -1 -1)
1969/12/31/18:00:11.872000,(3 19 23 9 2 1 -1 -1)
1969/12/31/18:00:11.881000,(-7 -9 0 -5 -3 0 0 -1)
1969/12/31/18:00:11.881000,(1 2 -4 0 0 -1 3 2)
1969/12/31/18:00:11.898000,(0 0 -1 1 1 -2 -1 -2)
1969/12/31/18:00:11.898000,(-4 -16 -9 -6 -4 -3 -3 -4)
1969/12/31/18:00:11.899000,(-3 -4 -6 -3 -2 -2 -3 -2)
1969/12/31/18:00:11.899000,(3 4 7 4 3 2 1 1)
1969/12/31/18:00:11.926000,(-3 -4 4 -4 -2 0 -1 0)
1969/12/31/18:00:11.926000,(4 18 12 1 1 -1 0 1)
1969/12/31/18:00:11.928000,(-2 -2 -6 1 -2 -2 -2 -1)
1969/12/31/18:00:11.928000,(4 12 6 9 7 2 0 1)
1969/12/31/18:00:11.932000,(-4 -15 -11 -7 -4 -1 0 -2)
1969/12/31/18:00:11.932000,(-1 2 4 3 -1 -2 -1 -3)
1969/12/31/18:00:11.947000,(3 12 19 9 4 3 0 -1)
1969/12/31/18:00:11.947000,(-4 -11 -6 -6 -3 -2 0 -1)
1969/12/31/18:00:11.956000,(-1 2 -2 -1 -1 0 1 1)
1969/12/31/18:00:11.956000,(0 -12 -1 -1 -2 -2 1 0)
1969/12/31/18:00:11.958000,(-3 -2 0 -2 -1 0 0 0)
1969/12/31/18:00:11.958000,(5 22 4 3 -2 -1 -1 0)
1969/12/31/18:00:11.979000,(-3 -4 -1 -3 -2 2 1 -1)
1969/12/31/18:00:11.979000,(2 6 -1 0 -1 0 -1 2)
1969/12/31/18:00:11.980000,(-6 -16 -16 -8 -2 -4 -2 -2)
1969/12/31/18:00:11.980000,(-3 -10 -4 -4 -3 -2 0 0)
1969/12/31/18:00:11.992000,(0 5 3 0 -1 -1 0 -1)
1969/12/31/18:00:11.992000,(-3 -5 -10 -5 -2 -1 -2 -1)
1969/12/31/18:00:12.001000,(-1 -4 -6 -1 2 -2 -1 -2)
1969/12/31/18:00:12.001000,(-4 -3 2 -5 -4 -3 0 -2)
1969/12/31/18:00:12.016000,(0 3 4 6 3 -1 -3 -2)
1969/12/31/18:00:12.016000,(-5 -10 -12 -6 -4 -2 -2 -2)
1969/12/31/18:00:12.018000,(4 11 14 6 2 1 0 1)
1969/12/31/18:00:12.018000,(-1 1 4 2 1 -1 -4 -3)
1969/12/31/18:00:12.039000,(-5 -7 -5 -2 -2 1 0 0)
1969/12/31/18:00:12.039000,(-1 -8 -4 -2 -1 -2 1 0)
1969/12/31/18:00:12.040000,(-3 -3 -1 -4 -3 -1 3 1)
1969/12/31/18:00:12.040000,(-3 3 -1 -4 -2 0 -1 -3)
1969/12/31/18:00:12.053000,(-2 -12 -17 -5 -3 -3 -2 -1)
1969/12/31/18:00:12.053000,(8 29 27 16 6 2 2 2)
1969/12/31/18:00:12.061000,(-7 -35 -19 -7 -3 -1 1 0)
1969/12/31/18:00:12.061000,(5 14 3 0 -1 -1 -2 0)
1969/12/31/18:00:12.076000,(-5 -10 1 -2 0 -2 -4 -5)
1969/12/31/18:00:12.076000,(-3 -6 -16 -6 -2 -1 -1 -2)
1969/12/31/18:00:12.078000,(-1 -5 0 -3 -3 -2 -3 -4)
1969/12/31/18:00:12.078000,(-1 -4 2 4 1 1 1 0)
1969/12/31/18:00:12.099000,(2 3 2 -1 0 0 -1 1)
1969/12/31/18:00:12.099000,(-3 -5 -10 -5 -4 -3 -2 -3)
1969/12/31/18:00:12.105000,(1 10 6 1 0 0 0 0)
1969/12/31/18:00:12.105000,(-3 -8 -9 -5 -1 0 1 3)
1969/12/31/18:00:12.112000,(0 6 0 0 -1 -3 -2 -4)
1969/12/31/18:00:12.112000,(-1 -5 -3 -4 -3 0 2 0)
1969/12/31/18:00:12.121000,(-2 -2 -8 -6 -4 -2 3 1)
1969/12/31/18:00:12.121000,(-5 -9 -14 -5 -1 -1 -3 -5)
1969/12/31/18:00:12.135000,(3 9 9 6 4 1 2 3)
1969/12/31/18:00:12.135000,(-2 -11 -4 -5 -6 -4 -3 -2)
1969/12/31/18:00:12.144000,(4 14 14 8 4 0 -1 0)
1969/12/31/18:00:12.144000,(-2 -5 -7 -7 -1 -3 -2 -3)
1969/12/31/18:00:12.159000,(-2 5 6 4 0 0 1 3)
1969/12/31/18:00:12.159000,(-3 -7 -9 -9 -4 -2 -2 -4)
1969/12/31/18:00:12.160000,(-3 2 -3 5 1 -1 -2 -4)
1969/12/31/18:00:12.160000,(-6 -12 -3 -2 -2 -2 -3 -4)
1969/12/31/18:00:12.172000,(0 -2 -3 -2 -4 -1 -1 1)
1969/12/31/18:00:12.172000,(-1 10 10 2 1 -1 -2 0)
1969/12/31/18:00:12.181000,(0 -2 0 -1 0 2 -1 0)
1969/12/31/18:00:12.181000,(2 3 3 1 0 0 0 1)
1969/12/31/18:00:12.196000,(-4 -7 -4 -3 -2 0 -1 -2)
1969/12/31/18:00:12.196000,(1 1 -3 2 1 0 -1 1)
1969/12/31/18:00:12.197000,(-1 1 -9 -7 -2 -3 -2 -4)
1969/12/31/18:00:12.197000,(1 0 4 6 3 0 1 0)
1969/12/31/18:00:12.218000,(-2 2 0 1 2 -1 3 -2)
1969/12/31/18:00:12.218000,(-1 -2 4 -1 -1 -1 -4 -1)
1969/12/31/18:00:12.220000,(-1 1 -7 -1 -2 -3 -1 -1)
1969/12/31/18:00:12.220000,(0 2 0 6 1 0 -1 -1)
1969/12/31/18:00:12.232000,(-3 -12 -6 -5 -3 -2 -2 -2)
1969/12/31/18:00:12.232000,(-5 -9 -16 -9 -3 -1 -3 -2)
1969/12/31/18:00:12.241000,(2 9 15 7 6 1 -1 0)
1969/12/31/18:00:12.241000,(0 -4 -7 -3 -3 -1 -3 -1)
1969/12/31/18:00:12.256000,(0 -1 1 -1 -2 -3 -1 0)
1969/12/31/18:00:12.256000,(-1 -6 -6 2 1 0 1 0)
1969/12/31/18:00:12.258000,(0 3 -1 -5 -4 1 0 1)
1969/12/31/18:00:12.258000,(-7 -7 -2 -3 -1 -2 -4 -6)
1969/12/31/18:00:12.279000,(-2 -6 2 1 0 0 -1 -3)
1969/12/31/18:00:12.279000,(1 4 0 -1 0 -1 -1 1)
1969/12/31/18:00:12.280000,(1 0 -3 0 1 -2 0 1)
1969/12/31/18:00:12.280000,(2 6 8 4 3 2 0 1)
1969/12/31/18:00:12.300000,(-3 0 -3 -3 -2 -2 -2 -1)
1969/12/31/18:00:12.300000,(0 -1 -2 -3 -1 -2 0 -1)
1969/12/31/18:00:12.301000,(1 1 -5 0 -2 -1 -2 1)
1969/12/31/18:00:12.301000,(-3 -4 1 -2 -1 -2 -1 -3)
1969/12/31/18:00:12.315000,(-2 -1 -2 -2 -2 -1 -1 -1)
1969/12/31/18:00:12.315000,(0 4 8 6 1 1 1 0)
1969/12/31/18:00:12.323000,(-4 -3 -2 -4 -2 -1 -2 -3)
1969/12/31/18:00:12.323000,(-3 -9 -7 -4 -3 0 -1 -2)
1969/12/31/18:00:12.338000,(3 15 5 1 -2 -1 -1 0)
1969/12/31/18:00:12.338000,(-2 -8 8 5 1 0 0 0)
1969/12/31/18:00:12.339000,(-2 -3 -4 -2 -1 -1 0 -1)
1969/12/31/18:00:12.339000,(0 -2 -5 -2 0 -2 0 0)
1969/12/31/18:00:12.360000,(-1 0 -1 -4 -1 0 0 1)
1969/12/31/18:00:12.360000,(-2 -1 -5 -1 -2 -1 -1 -2)
1969/12/31/18:00:12.361000,(1 -1 3 -2 -1 -1 -2 -2)
1969/12/31/18:00:12.361000,(-2 -5 -5 -1 -3 0 -1 -2)
1969/12/31/18:00:12.375000,(2 1 8 5 3 0 2 1)
1969/12/31/18:00:12.375000,(-3 -5 -5 -2 -1 -1 0 -2)
1969/12/31/18:00:12.383000,(-1 0 -1 0 -2 -3 -1 -1)
1969/12/31/18:00:12.383000,(0 2 3 2 -1 0 -1 2)
1969/12/31/18:00:12.398000,(0 -4 -5 -2 -1 -1 -1 -1)
1969/12/31/18:00:12.398000,(-1 0 -2 -3 0 0 -2 -2)
1969/12/31/18:00:12.399000,(-2 -5 -3 0 1 1 -2 -3)
1969/12/31/18:00:12.399000,(1 0 -1 -5 -2 -3 -2 0)
1969/12/31/18:00:12.421000,(-1 -1 -3 -2 -2 -1 -4 -1)
1969/12/31/18:00:12.421000,(0 0 -1 1 1 1 1 0)
1969/12/31/18:00:12.422000,(-2 -1 -1 -2 -2 -2 -1 -2)
1969/12/31/18:00:12.422000,(0 2 5 0 2 0 1 0)
1969/12/31/18:00:12.435000,(0 -5 -5 -3 0 0 -1 -3)
1969/12/31/18:00:12.435000,(1 5 3 1 -2 0 0 1)
1969/12/31/18:00:12.443000,(-2 -7 -1 -1 -2 -2 -2 -1)
1969/12/31/18:00:12.443000,(-3 -3 -8 -4 -4 -1 -2 0)
1969/12/31/18:00:12.458000,(-3 -2 1 2 1 -1 0 -1)
1969/12/31/18:00:12.458000,(0 4 2 -3 -2 -1 0 0)
1969/12/31/18:00:12.459000,(-2 -7 -10 -3 -2 -1 -2 -1)
1969/12/31/18:00:12.459000,(0 3 14 6 3 0 0 -2)
1969/12/31/18:00:12.481000,(-1 3 -4 1 0 -1 -3 -2)
1969/12/31/18:00:12.481000,(1 -1 -3 -5 -5 -2 -3 1)
1969/12/31/18:00:12.481000,(0 0 2 2 1 1 -1 0)
1969/12/31/18:00:12.481000,(0 0 -7 -3 -3 -3 1 0)
1969/12/31/18:00:12.504000,(0 -2 -1 -1 -3 -1 0 -1)
1969/12/31/18:00:12.504000,(-3 0 -2 -1 -1 -1 -2 -1)
1969/12/31/18:00:12.504000,(-2 -1 0 -1 -2 -1 -2 -2)
1969/12/31/18:00:12.504000,(1 0 -2 -2 0 0 0 -2)
1969/12/31/18:00:12.518000,(-2 -4 -4 -3 -4 -2 -1 -1)
1969/12/31/18:00:12.518000,(1 4 5 2 1 0 0 0)
1969/12/31/18:00:12.519000,(-2 -2 1 -1 2 -2 -2 1)
1969/12/31/18:00:12.519000,(2 1 0 2 -1 1 1 1)
1969/12/31/18:00:12.541000,(-3 -1 -3 -4 -3 -3 -1 -4)
1969/12/31/18:00:12.541000,(-2 -4 -2 -1 1 -1 -2 0)
1969/12/31/18:00:12.541000,(0 1 -1 -1 -2 1 0 0)
1969/12/31/18:00:12.541000,(-2 1 -1 -1 -2 -2 0 -1)
1969/12/31/18:00:12.541000,(-4 -2 14 -47 -7 10 18 1)
1969/12/31/18:00:12.541000,(4 5 -4 -17 -24 -5 2 8)
1969/12/31/18:00:12.550000,(0 2 30 43 26 6 -1 -6)
1969/12/31/18:00:12.550000,(-6 -16 -57 -92 -29 -2 15 3)
1969/12/31/18:00:12.564000,(8 27 70 85 20 3 -17 -4)
1969/12/31/18:00:12.564000,(2 -2 28 59 20 14 14 9)
1969/12/31/18:00:12.565000,(-3 -6 -38 -61 -17 -5 -4 -6)
1969/12/31/18:00:12.565000,(2 13 52 51 13 4 2 -3)
1969/12/31/18:00:12.587000,(-7 -28 -87 -51 -14 -7 -6 2)
1969/12/31/18:00:12.587000,(1 10 2 -32 -8 4 0 -2)
1969/12/31/18:00:12.588000,(10 29 104 91 35 10 -3 -5)
1969/12/31/18:00:12.588000,(-11 -23 -49 -37 -10 -10 -4 -3)
1969/12/31/18:00:12.603000,(-2 -4 -21 0 -10 -1 -9 -8)
1969/12/31/18:00:12.603000,(-1 2 11 -16 -1 1 3 2)
1969/12/31/18:00:12.610000,(-8 -20 -56 -38 -20 -8 0 -1)
1969/12/31/18:00:12.610000,(0 7 26 -8 -10 1 1 2)
1969/12/31/18:00:12.624000,(5 11 13 35 22 9 3 4)
1969/12/31/18:00:12.625000,(-5 -11 -17 -13 -4 -3 -1 -3)
1969/12/31/18:00:12.625000,(-4 -4 -12 -18 -13 -6 -4 -2)
1969/12/31/18:00:12.625000,(1 -2 12 20 12 6 2 3)
1969/12/31/18:00:12.647000,(-3 -9 -10 -46 -67 -10 -4 -4)
1969/12/31/18:00:12.647000,(1 1 0 21 68 10 -1 -1)
1969/12/31/18:00:12.648000,(4 3 -2 12 9 2 1 3)
1969/12/31/18:00:12.648000,(4 8 18 29 18 6 4 4)
1969/12/31/18:00:12.661000,(-3 -4 -13 -21 -6 -5 -5 -3)
1969/12/31/18:00:12.661000,(-10 -19 -11 -33 -41 -10 -2 -4)
1969/12/31/18:00:12.669000,(-3 -11 -3 6 1 8 7 7)
1969/12/31/18:00:12.669000,(4 -1 21 34 17 3 1 2)
1969/12/31/18:00:12.685000,(-3 -1 -14 -49 -14 -13 -15 -14)
1969/12/31/18:00:12.685000,(6 15 -2 15 -3 0 -1 0)
1969/12/31/18:00:12.685000,(1 12 1 3 7 2 2 2)
1969/12/31/18:00:12.685000,(4 15 -5 -5 -17 -6 -3 -1)
1969/12/31/18:00:12.707000,(2 5 18 15 20 9 7 5)
1969/12/31/18:00:12.707000,(-3 -4 -21 -26 -13 -6 -3 -3)
1969/12/31/18:00:12.708000,(-1 -9 -12 -2 -2 -2 -4 -3)
1969/12/31/18:00:12.708000,(-4 -29 -3 -3 -6 -2 -1 -1)
1969/12/31/18:00:12.730000,(0 23 3 -1 9 3 0 1)
1969/12/31/18:00:12.730000,(6 29 28 10 5 1 -1 -1)
1969/12/31/18:00:12.731000,(-5 -4 -1 -4 -9 -2 -3 -3)
1969/12/31/18:00:12.731000,(1 1 17 13 2 2 3 3)
1969/12/31/18:00:12.745000,(-16 -48 -31 -2 7 1 0 0)
1969/12/31/18:00:12.745000,(-16 -61 -17 -16 -14 -5 -4 -3)
1969/12/31/18:00:12.746000,(12 34 3 0 0 1 0 3)
1969/12/31/18:00:12.746000,(-7 30 10 7 1 0 -1 -9)
1969/12/31/18:00:12.767000,(22 15 8 7 5 4 14 17)
1969/12/31/18:00:12.767000,(26 14 -1 -1 0 -4 -13 13)
1969/12/31/18:00:12.768000,(-54 -53 -34 -16 -6 -3 -5 -23)
1969/12/31/18:00:12.768000,(24 7 8 7 2 -6 -10 -2)
1969/12/31/18:00:12.781000,(-14 4 0 -2 -1 0 7 7)
1969/12/31/18:00:12.781000,(-6 -14 -8 -11 -8 -2 -12 -25)
1969/12/31/18:00:12.789000,(-14 -3 -6 -1 -2 -1 11 11)
1969/12/31/18:00:12.789000,(23 16 4 0 -6 -5 -5 -5)
1969/12/31/18:00:12.804000,(50 20 13 9 8 5 -1 20)
1969/12/31/18:00:12.804000,(-13 -3 -17 -17 -13 -7 -2 2)
1969/12/31/18:00:12.805000,(10 -9 2 4 1 -10 -8 -16)
1969/12/31/18:00:12.805000,(-90 -28 2 -1 4 11 -1 -40)
1969/12/31/18:00:12.827000,(4 0 2 1 5 9 -20 -19)
1969/12/31/18:00:12.827000,(22 11 1 1 13 -2 30 27)
1969/12/31/18:00:12.828000,(21 39 23 8 1 -29 -50 -21)
1969/12/31/18:00:12.828000,(39 23 7 3 -5 -17 5 8)
1969/12/31/18:00:12.850000,(9 -17 -4 0 6 25 -12 1)
1969/12/31/18:00:12.850000,(-42 -16 -1 -4 -2 5 -1 -33)
1969/12/31/18:00:12.851000,(19 5 5 0 0 -6 -11 9)
1969/12/31/18:00:12.851000,(8 -29 -33 -20 -12 -5 -5 29)
1969/12/31/18:00:12.865000,(-10 4 1 -3 -4 -16 26 20)
1969/12/31/18:00:12.865000,(-47 -23 -3 -2 -4 4 -36 -65)
1969/12/31/18:00:12.865000,(-4 -5 -11 -8 -7 0 -9 -23)
1969/12/31/18:00:12.865000,(-16 28 11 6 2 6 12 14)
1969/12/31/18:00:12.887000,(-78 -78 -21 -9 -3 -4 9 -44)
1969/12/31/18:00:12.887000,(42 16 -1 -3 -4 6 2 49)
1969/12/31/18:00:12.888000,(-8 12 9 3 4 13 10 -58)
1969/12/31/18:00:12.888000,(-13 7 7 6 -5 -66 -11 -37)
1969/12/31/18:00:12.910000,(0 4 1 5 16 61 -2 -9)
1969/12/31/18:00:12.910000,(13 -16 -4 0 -3 -10 28 79)
1969/12/31/18:00:12.911000,(43 74 26 9 0 -3 1 8)
1969/12/31/18:00:12.911000,(-28 -45 -11 -1 7 35 -8 14)
1969/12/31/18:00:12.924000,(58 27 6 2 -1 -24 8 14)
1969/12/31/18:00:12.924000,(-95 -64 -28 -17 -14 -22 -22 -64)
1969/12/31/18:00:12.925000,(70 39 6 0 6 28 28 30)
1969/12/31/18:00:12.925000,(-55 -73 -21 -9 -11 -33 -34 -36)
1969/12/31/18:00:12.947000,(-1 7 -6 -7 -4 20 -7 -19)
1969/12/31/18:00:12.947000,(-27 -3 2 1 -2 8 -13 -29)
1969/12/31/18:00:12.948000,(-21 4 9 7 2 -8 18 18)
1969/12/31/18:00:12.948000,(-46 18 -15 -17 -12 4 -11 -30)
1969/12/31/18:00:12.970000,(-11 -3 9 8 -7 -82 -26 29)
1969/12/31/18:00:12.970000,(58 29 6 6 15 56 11 9)
1969/12/31/18:00:12.971000,(8 -13 3 2 6 39 50 31)
1969/12/31/18:00:12.971000,(-27 -31 2 9 6 -16 -13 -60)
1969/12/31/18:00:12.985000,(67 33 8 -1 -2 1 -13 32)
1969/12/31/18:00:12.985000,(15 10 1 2 5 -12 29 14)
1969/12/31/18:00:12.985000,(-106 -47 -9 4 0 -11 2 -28)
1969/12/31/18:00:12.985000,(42 9 8 8 11 27 5 4)
1969/12/31/18:00:13.007000,(43 40 2 -2 -7 -4 22 3)
1969/12/31/18:00:13.007000,(-27 -4 -3 -8 -10 -13 7 11)
1969/12/31/18:00:13.008000,(-49 -18 -8 -2 2 -1 -18 -68)
1969/12/31/18:00:13.008000,(54 35 16 5 1 5 21 51)
1969/12/31/18:00:13.030000,(-34 5 3 3 4 -5 -9 -14)
1969/12/31/18:00:13.030000,(58 44 4 -3 -7 -10 -7 16)
1969/12/31/18:00:13.031000,(-12 -47 -26 -16 -14 -16 -10 60)
1969/12/31/18:00:13.031000,(21 -1 -11 -11 -8 11 19 59)
1969/12/31/18:00:13.044000,(-2 -4 5 3 3 -14 -2 -12)
1969/12/31/18:00:13.045000,(69 34 9 6 8 52 48 39)
1969/12/31/18:00:13.045000,(-31 -28 -12 -5 -7 -34 -42 -7)
1969/12/31/18:00:13.045000,(68 48 22 16 8 3 27 37)
1969/12/31/18:00:13.067000,(-112 -49 -17 -7 3 20 24 -32)
1969/12/31/18:00:13.067000,(-3 11 3 -5 -8 -33 -28 -42)
1969/12/31/18:00:13.068000,(-39 -18 -6 -2 0 6 1 14)
1969/12/31/18:00:13.068000,(36 47 17 6 2 4 10 29)
1969/12/31/18:00:13.098000,(41 -35 -24 -13 -11 -5 14 61)
1969/12/31/18:00:13.098000,(-41 -22 -1 2 0 -15 -20 -35)
1969/12/31/18:00:13.098000,(95 36 1 -2 -4 10 3 34)
1969/12/31/18:00:13.098000,(19 12 16 12 10 12 9 -26)
1969/12/31/18:00:13.106000,(34 13 5 0 -3 0 -31 57)
1969/12/31/18:00:13.106000,(8 -24 -13 -8 -6 8 4 19)
1969/12/31/18:00:13.107000,(3 4 9 4 4 5 -6 -45)
1969/12/31/18:00:13.107000,(-25 -10 -4 3 6 19 24 29)
1969/12/31/18:00:13.127000,(-24 -11 -3 0 2 5 -39 -84)
1969/12/31/18:00:13.127000,(32 17 11 9 2 -33 -27 4)
1969/12/31/18:00:13.128000,(25 12 -4 -5 0 4 55 50)
1969/12/31/18:00:13.128000,(-28 -33 -16 -12 -11 -23 -41 -53)
1969/12/31/18:00:13.150000,(-33 -8 -3 -3 -2 25 16 -5)
1969/12/31/18:00:13.150000,(7 33 15 8 2 -15 31 14)
1969/12/31/18:00:13.151000,(-59 -50 -7 1 1 16 -34 -81)
1969/12/31/18:00:13.151000,(20 0 -7 -7 -6 1 17 55)
1969/12/31/18:00:13.164000,(2 -11 9 8 7 -4 15 19)
1969/12/31/18:00:13.164000,(-39 6 6 3 3 5 -19 -62)
1969/12/31/18:00:13.165000,(20 3 -13 -6 -2 -3 -6 -2)
1969/12/31/18:00:13.165000,(-31 -6 0 -2 0 1 -11 -33)
1969/12/31/18:00:13.187000,(-7 8 0 0 -4 -6 1 25)
1969/12/31/18:00:13.187000,(10 3 12 12 11 9 -5 -22)
1969/12/31/18:00:13.188000,(60 55 17 8 3 -2 5 11)
1969/12/31/18:00:13.188000,(64 7 -12 -13 -15 -15 -18 -3)
1969/12/31/18:00:13.210000,(-49 -38 -10 -3 6 16 1 18)
1969/12/31/18:00:13.210000,(-65 1 1 -1 -1 -18 9 -23)
1969/12/31/18:00:13.211000,(-19 -10 2 5 4 -2 -43 -41)
1969/12/31/18:00:13.211000,(69 20 4 2 3 7 7 62)
1969/12/31/18:00:13.224000,(45 16 -8 -9 -12 -11 -26 -76)
1969/12/31/18:00:13.224000,(-61 -13 8 3 4 11 -2 26)
1969/12/31/18:00:13.225000,(70 -7 -18 -16 -16 -18 31 69)
1969/12/31/18:00:13.225000,(-83 -13 9 10 11 10 9 -18)
1969/12/31/18:00:13.247000,(36 21 -1 0 1 7 46 11)
1969/12/31/18:00:13.247000,(49 -18 -14 -15 -12 -2 -18 1)
1969/12/31/18:00:13.248000,(1 20 -6 -8 -9 -14 4 31)
1969/12/31/18:00:13.248000,(-25 -57 -16 -6 -7 -9 -18 -33)
1969/12/31/18:00:13.270000,(-17 21 9 5 0 -18 2 -21)
1969/12/31/18:00:13.270000,(48 12 -5 1 0 11 24 82)
1969/12/31/18:00:13.271000,(-53 -20 6 8 8 7 -29 -74)
1969/12/31/18:00:13.271000,(38 43 2 -7 -8 -9 0 12)
1969/12/31/18:00:13.284000,(-3 6 14 11 10 6 2 32)
1969/12/31/18:00:13.284000,(-53 -22 -5 -6 -6 -8 -27 -47)
1969/12/31/18:00:13.285000,(-8 13 1 -2 -5 -8 -21 -52)
1969/12/31/18:00:13.285000,(-49 -11 7 13 18 22 9 -61)
1969/12/31/18:00:13.307000,(3 4 -5 -10 -10 -6 -27 -100)
1969/12/31/18:00:13.307000,(-22 -6 1 3 2 -13 -20 1)
1969/12/31/18:00:13.308000,(64 1 -5 -3 7 48 51 28)
1969/12/31/18:00:13.308000,(-52 19 21 13 13 0 44 -19)
1969/12/31/18:00:13.330000,(31 -6 -16 -11 -7 3 -8 -22)
1969/12/31/18:00:13.330000,(-31 -3 1 0 2 13 14 -21)
1969/12/31/18:00:13.331000,(-1 -10 2 5 6 -6 -1 51)
1969/12/31/18:00:13.331000,(-39 -30 -18 -13 -12 -17 -26 -53)
1969/12/31/18:00:13.345000,(-100 8 19 16 19 16 -3 -52)
1969/12/31/18:00:13.345000,(49 -19 -31 -24 -27 -32 -34 -42)
1969/12/31/18:00:13.345000,(-4 28 19 8 5 -11 1 24)
1969/12/31/18:00:13.345000,(16 -20 -9 -3 -2 32 -1 -12)
1969/12/31/18:00:13.367000,(-4 12 7 2 1 -20 -17 7)
1969/12/31/18:00:13.367000,(-25 -18 -2 1 -1 -6 -6 -64)
1969/12/31/18:00:13.368000,(-39 1 -8 -10 -8 -20 -19 -27)
1969/12/31/18:00:13.368000,(28 19 7 5 1 -8 -25 -10)
1969/12/31/18:00:13.390000,(21 1 7 3 -4 9 34 40)
1969/12/31/18:00:13.390000,(10 18 3 3 13 13 -31 0)
1969/12/31/18:00:13.391000,(-7 -8 -3 -4 -2 -15 -27 9)
1969/12/31/18:00:13.391000,(-58 -42 -12 -8 -5 6 13 -13)
1969/12/31/18:00:13.405000,(-22 -6 -12 -9 -13 -41 -47 -58)
1969/12/31/18:00:13.405000,(45 9 1 5 9 12 22 83)
1969/12/31/18:00:13.405000,(-10 -15 1 2 -8 -2 -4 -34)
1969/12/31/18:00:13.405000,(17 39 8 15 12 -2 -7 17)
1969/12/31/18:00:13.435000,(-16 -21 -12 -26 -34 -7 1 -15)
1969/12/31/18:00:13.435000,(-23 -16 -1 -3 -1 37 42 23)
1969/12/31/18:00:13.436000,(13 -28 -14 -14 -15 -26 -33 -21)
1969/12/31/18:00:13.436000,(-4 -6 -3 0 12 2 7 32)
1969/12/31/18:00:13.451000,(76 21 9 15 8 11 70 81)
1969/12/31/18:00:13.451000,(-12 3 0 -2 2 -17 -39 -60)
1969/12/31/18:00:13.451000,(61 -5 -17 -20 -16 5 19 66)
1969/12/31/18:00:13.451000,(33 27 13 7 2 3 -1 2)
1969/12/31/18:00:13.464000,(-22 -43 -23 -18 -21 -11 -28 16)
1969/12/31/18:00:13.464000,(28 14 6 9 4 -11 22 17)
1969/12/31/18:00:13.472000,(-11 5 13 21 20 17 21 1)
1969/12/31/18:00:13.472000,(-10 -1 -8 -19 -17 -4 -26 8)
1969/12/31/18:00:13.487000,(-28 -4 1 5 12 -4 5 10)
1969/12/31/18:00:13.487000,(46 11 -7 -14 -16 -7 -3 43)
1969/12/31/18:00:13.488000,(-23 -14 -8 -7 7 26 -7 -40)
1969/12/31/18:00:13.488000,(18 -1 -5 -5 -20 -19 -4 23)
1969/12/31/18:00:13.510000,(3 -5 15 27 38 19 27 17)
1969/12/31/18:00:13.510000,(-24 -2 0 4 -11 -27 -22 -19)
1969/12/31/18:00:13.511000,(-65 -18 -5 -6 -1 -4 7 -17)
1969/12/31/18:00:13.511000,(30 7 -10 -27 -22 17 16 11)
1969/12/31/18:00:13.524000,(-39 -8 -6 -12 -19 -4 -12 -38)
1969/12/31/18:00:13.524000,(45 22 13 32 38 27 24 43)
1969/12/31/18:00:13.533000,(18 -16 -4 -4 5 -22 -4 36)
1969/12/31/18:00:13.533000,(-25 -1 -1 -11 -37 -34 -2 -32)
1969/12/31/18:00:13.547000,(10 10 5 19 43 5 -13 -6)
1969/12/31/18:00:13.547000,(-7 21 -2 -22 -46 -11 -1 -23)
1969/12/31/18:00:13.548000,(-43 -36 -10 1 28 21 14 -24)
1969/12/31/18:00:13.548000,(0 -3 9 19 24 31 20 33)
1969/12/31/18:00:13.570000,(38 22 8 -4 -8 -2 -10 19)
1969/12/31/18:00:13.570000,(-24 -14 -10 -16 -12 -19 0 -22)
1969/12/31/18:00:13.571000,(44 13 6 0 -23 4 7 24)
1969/12/31/18:00:13.571000,(-18 2 3 2 4 -16 -28 -50)
1969/12/31/18:00:13.584000,(-13 -12 -14 -5 -4 -4 -14 9)
1969/12/31/18:00:13.584000,(8 -11 -6 15 26 -5 -13 25)
1969/12/31/18:00:13.592000,(17 -19 -43 -35 -27 -2 4 -6)
1969/12/31/18:00:13.592000,(-25 6 30 16 14 -8 -11 -16)
1969/12/31/18:00:13.607000,(-53 22 9 -17 -38 -2 -9 -10)
1969/12/31/18:00:13.607000,(3 -1 -1 -17 -8 8 -5 -22)
1969/12/31/18:00:13.608000,(23 16 17 18 -4 -18 -14 20)
1969/12/31/18:00:13.608000,(-9 -34 -46 1 19 2 5 14)
1969/12/31/18:00:13.630000,(-63 22 41 6 -3 0 13 -5)
1969/12/31/18:00:13.630000,(-8 -26 -12 -15 -24 -32 -26 -58)
1969/12/31/18:00:13.631000,(-21 -47 -46 -1 33 35 13 8)
1969/12/31/18:00:13.631000,(38 72 64 13 6 26 16 25)
1969/12/31/18:00:13.644000,(-16 -1 -20 -3 6 9 1 9)
1969/12/31/18:00:13.644000,(-66 -26 -2 10 16 -8 -16 -42)
1969/12/31/18:00:13.652000,(-2 41 2 7 2 3 2 7)
1969/12/31/18:00:13.652000,(-22 -5 25 4 -1 -8 -11 -47)
1969/12/31/18:00:13.667000,(42 -44 -41 -19 -22 -3 20 28)
1969/12/31/18:00:13.667000,(-72 14 16 -1 -10 21 20 -15)
1969/12/31/18:00:13.668000,(65 50 30 7 -7 -26 -1 38)
1969/12/31/18:00:13.668000,(-4 -69 -55 -9 0 -11 0 36)
1969/12/31/18:00:13.690000,(94 66 31 22 23 5 -19 9)
1969/12/31/18:00:13.690000,(-22 -73 -44 -7 6 -2 6 -15)
1969/12/31/18:00:13.691000,(8 -36 -7 -11 -47 -14 14 31)
1969/12/31/18:00:13.691000,(-39 96 38 5 33 27 24 13)
1969/12/31/18:00:13.704000,(29 37 73 35 16 6 -9 -5)
1969/12/31/18:00:13.704000,(-20 -26 -48 -36 -5 13 9 1)
1969/12/31/18:00:13.712000,(-52 -35 -5 -11 1 1 -18 -46)
1969/12/31/18:00:13.712000,(13 -125 -82 -15 -13 0 6 37)
1969/12/31/18:00:13.727000,(-16 65 18 5 14 -18 7 -22)
1969/12/31/18:00:13.727000,(26 64 59 30 18 16 -10 -13)
1969/12/31/18:00:13.728000,(-52 -27 9 -1 -21 -20 -7 -40)
1969/12/31/18:00:13.728000,(-49 -84 -93 -15 -9 -13 -9 -20)
1969/12/31/18:00:13.757000,(24 27 33 -4 -17 -1 -1 22)
1969/12/31/18:00:13.757000,(0 -54 -52 -28 -14 -11 25 34)
1969/12/31/18:00:13.758000,(-75 62 -5 6 18 -3 -22 -46)
1969/12/31/18:00:13.758000,(26 84 80 12 2 16 9 -16)
1969/12/31/18:00:13.773000,(52 -69 -56 -7 -4 19 9 42)
1969/12/31/18:00:13.773000,(44 -46 -54 -22 -11 16 4 26)
1969/12/31/18:00:13.773000,(38 20 45 5 -5 -37 -21 7)
1969/12/31/18:00:13.773000,(-37 -107 -98 -8 19 -12 -12 -14)
1969/12/31/18:00:13.787000,(-29 118 83 -13 -47 -22 -30 -68)
1969/12/31/18:00:13.787000,(25 -19 36 33 8 23 47 85)
1969/12/31/18:00:13.794000,(-8 -85 -111 -37 3 -7 -17 -7)
1969/12/31/18:00:13.794000,(5 127 127 66 22 -3 -14 -66)
1969/12/31/18:00:13.810000,(-9 -69 -22 -6 18 10 5 43)
1969/12/31/18:00:13.810000,(11 -53 -80 -27 -27 -9 -1 26)
1969/12/31/18:00:13.811000,(-46 86 58 27 -6 0 -23 -105)
1969/12/31/18:00:13.811000,(108 -52 -65 -28 -19 -16 4 58)
1969/12/31/18:00:13.833000,(-64 -96 -97 -52 -3 -15 -14 -17)
1969/12/31/18:00:13.833000,(10 127 127 47 15 19 3 -4)
1969/12/31/18:00:13.833000,(-6 -93 -28 6 -1 -12 10 9)
1969/12/31/18:00:13.833000,(67 76 -23 -11 -4 9 -7 14)
1969/12/31/18:00:13.856000,(-3 81 78 58 20 -8 14 -29)
1969/12/31/18:00:13.856000,(8 -39 -31 -19 -2 -8 -43 -45)
1969/12/31/18:00:13.858000,(0 -18 -19 -11 7 28 39 40)
1969/12/31/18:00:13.858000,(-33 -127 -121 -72 -28 -34 -17 11)
1969/12/31/18:00:13.870000,(22 19 41 -1 -13 19 -12 -7)
1969/12/31/18:00:13.870000,(22 127 127 92 40 12 41 36)
1969/12/31/18:00:13.872000,(58 -56 -69 2 21 28 24 42)
1969/12/31/18:00:13.872000,(-71 45 46 -2 -22 -42 -84 -96)
1969/12/31/18:00:13.893000,(-37 -42 -20 36 68 -16 45 35)
1969/12/31/18:00:13.893000,(65 -33 -78 -109 -68 18 8 44)
1969/12/31/18:00:13.894000,(-4 118 127 41 -12 2 5 0)
1969/12/31/18:00:13.894000,(-26 -74 -46 -16 2 27 27 28)
1969/12/31/18:00:13.906000,(-53 -77 -44 -8 -13 -8 -25 -49)
1969/12/31/18:00:13.906000,(-53 -39 -64 15 6 -42 -14 -29)
1969/12/31/18:00:13.915000,(22 65 36 14 36 21 11 16)
1969/12/31/18:00:13.915000,(-34 -61 -9 -14 -44 -19 -4 -19)
1969/12/31/18:00:13.930000,(7 1 -9 -13 -11 -12 -16 -24)
1969/12/31/18:00:13.930000,(-37 -107 -63 -15 7 4 3 -15)
1969/12/31/18:00:13.932000,(-31 -84 -77 -26 -6 5 4 15)
1969/12/31/18:00:13.932000,(15 53 63 56 21 -6 20 54)
1969/12/31/18:00:13.953000,(75 61 44 -10 -12 10 -3 -10)
1969/12/31/18:00:13.953000,(-45 -93 -18 -5 -5 -4 -9 -15)
1969/12/31/18:00:13.955000,(-8 -13 -26 -20 -29 -12 -19 7)
1969/12/31/18:00:13.955000,(-15 -67 -30 -8 2 27 30 0)
1969/12/31/18:00:13.966000,(-31 -51 -62 0 -2 -10 -1 -6)
1969/12/31/18:00:13.966000,(33 -43 -67 -22 16 -16 -20 16)
1969/12/31/18:00:13.975000,(65 115 115 88 55 5 4 1)
1969/12/31/18:00:13.975000,(-3 -125 -110 -48 -36 13 12 40)
1969/12/31/18:00:13.991000,(21 53 -5 -19 -33 -6 -20 -17)
1969/12/31/18:00:13.991000,(-14 25 48 26 23 2 -6 -25)
1969/12/31/18:00:13.992000,(-22 -77 -62 3 2 -48 -6 15)
1969/12/31/18:00:13.992000,(7 -52 -65 -45 -32 17 -11 9)
1969/12/31/18:00:14.013000,(39 63 55 43 51 43 14 22)
1969/12/31/18:00:14.013000,(23 43 58 31 2 4 20 16)
1969/12/31/18:00:14.014000,(-28 -116 -85 -19 -6 -5 2 -7)
1969/12/31/18:00:14.014000,(-1 -37 -3 17 -1 -21 -13 -32)
1969/12/31/18:00:14.026000,(-28 -75 -99 -32 -13 -12 1 27)
1969/12/31/18:00:14.026000,(-61 -106 -110 -41 -22 -11 -14 -41)
1969/12/31/18:00:14.035000,(75 127 119 45 0 2 0 10)
1969/12/31/18:00:14.035000,(34 -4 27 49 45 -8 -9 -7)
1969/12/31/18:00:14.050000,(-21 -115 -94 -13 22 43 38 8)
1969/12/31/18:00:14.050000,(-15 -38 1 1 8 33 2 -20)
1969/12/31/18:00:14.052000,(-14 -51 -43 -52 -44 -2 4 -7)
1969/12/31/18:00:14.052000,(-25 23 2 -13 -4 -22 -29 -22)
1969/12/31/18:00:14.073000,(-29 -65 -34 -14 -29 -16 -20 -69)
1969/12/31/18:00:14.073000,(-10 -67 -69 -21 -7 -18 -11 -7)
1969/12/31/18:00:14.074000,(-26 41 26 -20 -2 18 12 3)
1969/12/31/18:00:14.074000,(70 127 127 68 25 4 19 18)
1969/12/31/18:00:14.086000,(-20 -91 -37 -6 -22 -21 -18 9)
1969/12/31/18:00:14.086000,(25 -57 -43 -18 -17 -15 3 11)
1969/12/31/18:00:14.095000,(-12 -91 -128 -47 17 8 1 4)
1969/12/31/18:00:14.095000,(68 114 107 47 -2 18 9 22)
1969/12/31/18:00:14.110000,(1 -90 -55 -2 -16 -32 -2 -4)
1969/12/31/18:00:14.110000,(-34 -9 -47 28 39 4 7 -9)
1969/12/31/18:00:14.112000,(22 45 64 -5 -28 14 -8 8)
1969/12/31/18:00:14.112000,(-25 15 0 -35 -22 -3 -9 -25)
1969/12/31/18:00:14.133000,(-13 -69 -27 -6 24 43 21 71)
1969/12/31/18:00:14.133000,(4 13 -38 -28 -28 -17 -25 -30)
1969/12/31/18:00:14.134000,(-24 2 -9 16 20 4 7 -8)
1969/12/31/18:00:14.134000,(-36 -113 -104 -35 -9 -11 0 -30)
1969/12/31/18:00:14.146000,(57 127 127 56 3 -13 -2 6)
1969/12/31/18:00:14.146000,(13 -21 21 14 16 1 -7 9)
1969/12/31/18:00:14.155000,(-30 -107 -93 -16 1 -20 -7 0)
1969/12/31/18:00:14.155000,(7 -104 -85 -23 -25 7 12 44)
1969/12/31/18:00:14.178000,(-8 36 -7 14 10 4 -7 -17)
1969/12/31/18:00:14.178000,(4 6 -2 -5 -17 3 20 14)
1969/12/31/18:00:14.179000,(6 -76 -41 11 13 34 -15 -32)
1969/12/31/18:00:14.179000,(-2 47 15 -2 3 -31 9 11)
1969/12/31/18:00:14.193000,(-13 -96 -71 -39 -19 2 -14 -3)
1969/12/31/18:00:14.193000,(-32 9 -14 -6 6 -25 -20 -34)
1969/12/31/18:00:14.194000,(40 65 104 34 -19 -11 -4 -13)
1969/12/31/18:00:14.194000,(-55 -128 -117 -31 15 26 -4 -21)
1969/12/31/18:00:14.207000,(47 127 112 47 17 -4 13 1)
1969/12/31/18:00:14.207000,(25 -36 -1 11 -10 -4 8 62)
1969/12/31/18:00:14.215000,(-53 -124 -128 -64 -2 -40 -39 -28)
1969/12/31/18:00:14.215000,(58 127 127 18 -5 7 6 22)
1969/12/31/18:00:14.230000,(-1 -128 -62 -24 -3 -2 3 2)
1969/12/31/18:00:14.230000,(-14 -46 -2 2 -2 30 4 10)
1969/12/31/18:00:14.232000,(-15 -24 -24 -25 -25 6 15 7)
1969/12/31/18:00:14.232000,(-12 13 22 9 -7 -37 -20 -31)
1969/12/31/18:00:14.253000,(-40 -121 -122 -34 8 11 1 14)
1969/12/31/18:00:14.253000,(64 127 127 73 16 -8 7 17)
1969/12/31/18:00:14.255000,(5 -33 15 24 20 24 15 6)
1969/12/31/18:00:14.255000,(-23 -96 -92 -18 0 19 -3 -15)
1969/12/31/18:00:14.275000,(24 71 61 23 -11 -7 14 10)
1969/12/31/18:00:14.275000,(48 21 -97 -31 2 -11 -22 10)
1969/12/31/18:00:14.277000,(11 127 127 55 33 23 -2 -27)
1969/12/31/18:00:14.277000,(-10 -65 -7 17 24 0 16 6)
1969/12/31/18:00:14.290000,(-20 -90 -71 -17 -9 -24 -33 -24)
1969/12/31/18:00:14.290000,(15 -65 -36 -31 -21 14 19 8)
1969/12/31/18:00:14.296000,(-6 -18 -37 -26 -13 12 -6 4)
1969/12/31/18:00:14.296000,(25 4 51 25 21 -4 18 23)
1969/12/31/18:00:14.320000,(17 100 73 36 15 14 3 -7)
1969/12/31/18:00:14.320000,(3 -48 -2 5 -3 -8 6 37)
1969/12/31/18:00:14.322000,(14 -40 -94 -43 -14 -9 -6 28)
1969/12/31/18:00:14.322000,(23 49 72 71 44 -2 -5 3)
1969/12/31/18:00:14.326000,(12 -95 -96 -58 -63 2 3 25)
1969/12/31/18:00:14.326000,(-55 -15 9 -5 -9 -2 17 -17)
1969/12/31/18:00:14.335000,(23 -15 8 31 20 -16 -11 -23)
1969/12/31/18:00:14.335000,(-21 -37 -77 -48 -26 -12 -16 -15)
1969/12/31/18:00:14.350000,(1 -37 -5 5 10 -7 0 6)
1969/12/31/18:00:14.350000,(0 77 -2 -10 5 37 9 -12)
1969/12/31/18:00:14.352000,(-23 -46 -11 9 -20 -33 -2 -6)
1969/12/31/18:00:14.352000,(-4 -85 -90 -13 -11 2 -9 -13)
1969/12/31/18:00:14.373000,(-83 -99 -56 -15 7 -12 -14 -50)
1969/12/31/18:00:14.373000,(-17 -72 -98 -45 -18 -30 -28 -26)
1969/12/31/18:00:14.374000,(44 94 107 105 44 28 34 10)
1969/12/31/18:00:14.374000,(45 -68 -62 -3 2 19 24 18)
1969/12/31/18:00:14.386000,(-41 -99 -70 -30 -16 -11 -10 -21)
1969/12/31/18:00:14.386000,(40 -65 -43 -13 8 -3 5 33)
1969/12/31/18:00:14.395000,(-52 68 74 -9 -17 -28 -28 -37)
1969/12/31/18:00:14.395000,(24 97 18 3 -1 20 6 7)
1969/12/31/18:00:14.411000,(19 18 1 -20 19 49 22 18)
1969/12/31/18:00:14.411000,(-19 -32 20 26 -3 -28 -15 -5)
1969/12/31/18:00:14.412000,(6 -30 -47 -33 -5 0 -17 -5)
1969/12/31/18:00:14.412000,(-26 7 57 16 -18 -3 -2 -14)
1969/12/31/18:00:14.433000,(-3 127 27 17 24 10 21 -4)
1969/12/31/18:00:14.433000,(-4 7 102 43 2 0 -3 -12)
1969/12/31/18:00:14.434000,(2 -128 -108 -44 -22 -2 4 23)
1969/12/31/18:00:14.434000,(-26 -66 -29 -20 11 0 -17 -25)
1969/12/31/18:00:14.446000,(-1 -41 -55 -19 -3 16 -10 -3)
1969/12/31/18:00:14.446000,(-29 -46 6 5 1 -5 31 31)
1969/12/31/18:00:14.455000,(34 91 97 41 25 24 3 18)
1969/12/31/18:00:14.455000,(12 58 51 19 7 -1 14 15)
1969/12/31/18:00:14.470000,(42 -71 -25 -7 -17 -21 -11 14)
1969/12/31/18:00:14.470000,(-45 -57 -39 -7 6 2 -7 -30)
1969/12/31/18:00:14.472000,(-39 -128 -104 -43 -26 -20 -12 -24)
1969/12/31/18:00:14.472000,(-8 -77 -55 -25 -16 3 13 36)
1969/12/31/18:00:14.493000,(-12 79 9 3 -12 -19 2 39)
1969/12/31/18:00:14.493000,(28 92 90 70 49 33 -4 -31)
1969/12/31/18:00:14.495000,(8 -128 -82 13 11 -37 10 29)
1969/12/31/18:00:14.495000,(-19 -48 -65 -50 -35 17 -25 -39)
1969/12/31/18:00:14.507000,(-53 -128 -125 -50 -47 -22 -25 -29)
1969/12/31/18:00:14.507000,(26 106 89 48 18 36 9 2)
1969/12/31/18:00:14.515000,(9 -5 -42 -14 13 11 14 -6)
1969/12/31/18:00:14.515000,(-11 9 50 49 34 7 21 14)
1969/12/31/18:00:14.538000,(74 107 87 37 15 -15 -22 -3)
1969/12/31/18:00:14.538000,(5 -3 -11 -18 -11 -8 -9 -6)
1969/12/31/18:00:14.539000,(-20 -52 -17 -13 -14 17 7 -15)
1969/12/31/18:00:14.539000,(-58 -122 -104 -50 -36 -52 -32 -25)
1969/12/31/18:00:14.553000,(14 25 43 28 21 23 6 -12)
1969/12/31/18:00:14.553000,(50 95 78 28 -1 -29 -26 -22)
1969/12/31/18:00:14.554000,(-15 -75 -32 -16 -4 2 8 1)
1969/12/31/18:00:14.554000,(34 -19 -28 6 21 55 24 26)
1969/12/31/18:00:14.566000,(27 -27 -13 4 -9 -23 0 9)
1969/12/31/18:00:14.566000,(-74 -128 -128 -85 -35 -17 -32 -40)
1969/12/31/18:00:14.575000,(53 120 104 52 22 -4 9 33)
1969/12/31/18:00:14.575000,(15 48 62 21 -10 -15 -3 -5)
1969/12/31/18:00:14.589000,(-1 -76 -87 -18 16 -2 -3 -7)
1969/12/31/18:00:14.589000,(68 73 78 31 13 33 22 52)
1969/12/31/18:00:14.598000,(-34 -82 -66 -25 -29 -36 -4 -13)
1969/12/31/18:00:14.598000,(-14 -55 -88 -29 24 -6 -8 6)
1969/12/31/18:00:14.613000,(42 101 118 93 30 53 21 9)
1969/12/31/18:00:14.613000,(7 -128 -85 -9 -8 -8 18 28)
1969/12/31/18:00:14.629000,(-12 -66 -68 -25 -21 4 -1 2)
1969/12/31/18:00:14.629000,(34 59 56 21 -1 -27 1 11)
1969/12/31/18:00:14.629000,(-49 -128 -114 -57 -27 -36 -10 -4)
1969/12/31/18:00:14.629000,(46 114 92 48 15 27 8 2)
1969/12/31/18:00:14.641000,(-11 -72 -22 -3 -2 14 -4 -10)
1969/12/31/18:00:14.641000,(9 19 -47 -27 -11 -10 -8 -11)
1969/12/31/18:00:14.649000,(-2 23 40 24 35 5 -3 -12)
1969/12/31/18:00:14.650000,(-25 -85 -66 -32 -36 -12 -5 -6)
1969/12/31/18:00:14.656000,(40 85 14 -17 4 31 11 9)
1969/12/31/18:00:14.656000,(-22 38 44 18 -11 -6 -20 -28)
1969/12/31/18:00:14.673000,(-11 -1 9 12 37 0 16 12)
1969/12/31/18:00:14.673000,(-34 -118 -90 -49 -54 -1 -1 18)
1969/12/31/18:00:14.674000,(21 64 38 33 10 10 22 26)
1969/12/31/18:00:14.674000,(37 91 51 8 -4 9 15 34)
1969/12/31/18:00:14.687000,(-1 -42 9 1 -23 -27 -19 -22)
1969/12/31/18:00:14.687000,(-18 34 -7 -1 34 -12 -8 -4)
1969/12/31/18:00:14.695000,(-19 -121 -97 -32 1 6 -12 -3)
1969/12/31/18:00:14.695000,(-32 13 33 8 -31 9 18 13)
1969/12/31/18:00:14.710000,(56 115 93 59 16 0 7 8)
1969/12/31/18:00:14.710000,(-67 -128 -112 -29 -5 -16 -9 -27)
1969/12/31/18:00:14.717000,(28 17 9 11 10 2 -12 -9)
1969/12/31/18:00:14.717000,(-38 -84 -40 -26 10 24 9 -21)
1969/12/31/18:00:14.733000,(-20 -81 -70 -24 -14 -22 -15 -6)
1969/12/31/18:00:14.733000,(-17 13 8 -3 3 -7 -10 -26)
1969/12/31/18:00:14.734000,(-8 73 64 24 7 -7 -22 -28)
1969/12/31/18:00:14.734000,(-13 -35 -9 11 17 0 13 12)
1969/12/31/18:00:14.762000,(-4 -96 -77 -62 -49 0 -13 -9)
1969/12/31/18:00:14.762000,(30 123 40 10 21 0 -3 -5)
1969/12/31/18:00:14.772000,(9 26 51 24 1 11 12 19)
1969/12/31/18:00:14.772000,(-77 -122 -128 -69 -28 -29 -21 -44)
1969/12/31/18:00:14.773000,(23 127 115 47 3 14 -5 -35)
1969/12/31/18:00:14.773000,(-13 -83 -40 0 -3 -17 0 -15)
1969/12/31/18:00:14.776000,(-36 -114 -94 -36 -18 -5 -7 -13)
1969/12/31/18:00:14.776000,(10 -86 -69 -7 11 4 -16 -12)
1969/12/31/18:00:14.793000,(-10 -34 -15 1 -15 -40 -2 13)
1969/12/31/18:00:14.793000,(45 102 84 29 16 20 5 23)
1969/12/31/18:00:14.794000,(-15 -3 28 -20 -31 6 13 -4)
1969/12/31/18:00:14.794000,(0 -63 -12 5 12 0 -2 9)
1969/12/31/18:00:14.815000,(13 -75 -68 -21 9 7 15 31)
1969/12/31/18:00:14.815000,(-59 -82 -33 -13 -9 -10 -22 -70)
1969/12/31/18:00:14.816000,(45 61 23 13 7 -18 -1 18)
1969/12/31/18:00:14.816000,(1 -7 -21 23 -1 10 -5 -9)
1969/12/31/18:00:14.830000,(6 79 82 31 -6 -13 2 20)
1969/12/31/18:00:14.830000,(-52 -65 -49 -2 1 -5 -22 -48)
1969/12/31/18:00:14.837000,(-88 -116 -110 -57 -20 -32 -27 -20)
1969/12/31/18:00:14.837000,(31 84 87 51 26 -6 13 -19)
1969/12/31/18:00:14.853000,(-37 -43 -38 -24 -1 14 -12 -27)
1969/12/31/18:00:14.853000,(24 -5 -24 -7 -2 7 1 31)
1969/12/31/18:00:14.854000,(-2 -39 7 16 41 33 14 16)
1969/12/31/18:00:14.854000,(16 -5 -21 -24 -26 1 2 11)
1969/12/31/18:00:14.875000,(-67 9 6 4 15 5 2 -17)
1969/12/31/18:00:14.875000,(17 -85 -60 -22 -10 -25 0 11)
1969/12/31/18:00:14.877000,(26 77 46 4 -2 -15 -13 -15)
1969/12/31/18:00:14.877000,(-17 -42 -7 7 -1 18 -2 11)
1969/12/31/18:00:14.890000,(39 88 29 2 -4 12 29 33)
1969/12/31/18:00:14.890000,(-16 -68 -48 -29 -19 -1 6 23)
1969/12/31/18:00:14.896000,(-20 43 42 24 -1 -12 -5 -5)
1969/12/31/18:00:14.896000,(20 -73 -62 -11 7 7 17 18)
1969/12/31/18:00:14.913000,(25 25 30 9 6 5 -2 -2)
1969/12/31/18:00:14.913000,(11 12 8 14 14 -7 -8 2)
1969/12/31/18:00:14.914000,(-5 -51 -57 -18 -7 -10 0 14)
1969/12/31/18:00:14.914000,(35 101 93 34 13 -5 -7 5)
1969/12/31/18:00:14.936000,(0 -128 -99 -47 -13 32 13 25)
1969/12/31/18:00:14.936000,(18 51 49 15 7 4 3 -6)
1969/12/31/18:00:14.941000,(-13 -128 -128 -49 -25 -35 -9 -2)
1969/12/31/18:00:14.941000,(18 82 81 61 32 23 -3 -2)
1969/12/31/18:00:14.950000,(19 -41 -30 -1 -12 -17 2 5)
1969/12/31/18:00:14.950000,(52 108 63 6 -9 6 9 27)
1969/12/31/18:00:14.956000,(9 -45 -7 5 -2 7 4 3)
1969/12/31/18:00:14.956000,(-47 -126 -104 -42 -10 -19 0 -8)
1969/12/31/18:00:14.973000,(35 25 -16 13 35 1 4 13)
1969/12/31/18:00:14.973000,(26 65 43 11 -16 24 10 4)
1969/12/31/18:00:14.974000,(24 39 14 -4 -22 -25 -6 9)
1969/12/31/18:00:14.974000,(25 66 59 22 26 9 1 -4)
1969/12/31/18:00:14.995000,(-24 -85 -64 -33 4 22 2 8)
1969/12/31/18:00:14.995000,(-28 -84 -52 -17 -27 -25 1 -1)
1969/12/31/18:00:14.996000,(15 59 56 29 31 37 24 22)
1969/12/31/18:00:14.997000,(6 -16 -35 -22 -14 -23 -12 -3)
1969/12/31/18:00:15.009000,(-77 -95 -24 9 17 3 -5 -48)
1969/12/31/18:00:15.010000,(35 16 -7 -3 -2 -38 -17 14)
1969/12/31/18:00:15.016000,(16 75 94 34 -8 15 -13 -12)
1969/12/31/18:00:15.016000,(2 -9 -37 -18 -19 -3 -2 9)
1969/12/31/18:00:15.040000,(3 -59 -33 -16 -7 -4 -6 -10)
1969/12/31/18:00:15.040000,(-16 14 -21 -2 7 0 5 -4)
1969/12/31/18:00:15.047000,(-34 -99 -52 -25 -11 -9 -11 -17)
1969/12/31/18:00:15.047000,(-2 -38 -36 -21 -6 1 12 21)
1969/12/31/18:00:15.055000,(-21 105 57 20 -10 -7 -10 -18)
1969/12/31/18:00:15.055000,(9 0 26 20 13 12 8 20)
1969/12/31/18:00:15.057000,(-19 -58 -52 -17 -4 -11 -6 -8)
1969/12/31/18:00:15.057000,(-8 -65 -21 -10 3 16 -4 -8)
1969/12/31/18:00:15.070000,(-19 -18 -61 -9 11 -17 -10 -15)
1969/12/31/18:00:15.070000,(-46 -62 -10 -2 -15 -4 0 -7)
1969/12/31/18:00:15.077000,(19 22 14 4 -1 31 23 3)
1969/12/31/18:00:15.077000,(-6 -54 -15 -8 -21 -40 -6 -19)
1969/12/31/18:00:15.093000,(24 70 28 -16 -12 28 -4 19)
1969/12/31/18:00:15.093000,(-5 24 45 23 28 4 5 -1)
1969/12/31/18:00:15.094000,(24 46 12 15 17 -5 -1 9)
1969/12/31/18:00:15.094000,(-50 23 14 -9 -4 -7 -11 -24)
1969/12/31/18:00:15.115000,(9 -83 -69 -19 -17 -18 -6 1)
1969/12/31/18:00:15.115000,(18 111 79 21 10 10 3 2)
1969/12/31/18:00:15.117000,(-12 -60 -43 -10 -5 -1 1 -3)
1969/12/31/18:00:15.117000,(19 68 43 17 6 6 2 12)
1969/12/31/18:00:15.130000,(-32 -51 -1 7 -4 -11 -5 -11)
1969/12/31/18:00:15.130000,(0 70 38 -4 -2 6 -17 -34)
1969/12/31/18:00:15.137000,(-26 -30 -24 -9 -4 -7 0 1)
1969/12/31/18:00:15.137000,(13 -2 -27 -6 -7 -13 -11 -7)
1969/12/31/18:00:15.153000,(9 11 42 15 6 -9 5 10)
1969/12/31/18:00:15.153000,(-43 -70 -48 -11 -8 8 -5 -22)
1969/12/31/18:00:15.154000,(3 -51 -55 -31 -19 11 6 4)
1969/12/31/18:00:15.154000,(16 -4 10 7 8 -6 -5 7)
1969/12/31/18:00:15.176000,(-13 90 75 30 -1 -26 -22 -42)
1969/12/31/18:00:15.176000,(28 -74 -52 -5 16 26 21 47)
1969/12/31/18:00:15.177000,(-7 -37 -14 -7 -7 -3 1 0)
1969/12/31/18:00:15.177000,(-39 -24 -48 -26 -12 7 -1 -12)
1969/12/31/18:00:15.198000,(62 86 78 39 15 1 9 26)
1969/12/31/18:00:15.198000,(-20 -34 -29 -6 -6 -19 -12 -16)
1969/12/31/18:00:15.200000,(-16 -32 7 11 12 5 -3 -11)
1969/12/31/18:00:15.200000,(4 -43 -39 -19 -8 -6 -3 3)
1969/12/31/18:00:15.213000,(-14 -64 -32 -13 -18 2 -8 -9)
1969/12/31/18:00:15.213000,(9 79 41 3 0 -5 -5 -9)
1969/12/31/18:00:15.214000,(-10 5 12 5 5 1 4 11)
1969/12/31/18:00:15.214000,(34 38 25 40 50 -1 2 2)
1969/12/31/18:00:15.235000,(-52 -45 -34 -39 -53 2 -12 -36)
1969/12/31/18:00:15.235000,(26 -128 -128 -55 -23 -2 23 34)
1969/12/31/18:00:15.237000,(28 127 111 60 29 9 -8 -20)
1969/12/31/18:00:15.237000,(14 -81 -67 -15 -30 -26 -11 -19)
1969/12/31/18:00:15.249000,(9 92 94 35 23 14 15 17)
1969/12/31/18:00:15.249000,(-17 -71 -44 -5 2 -8 -13 -18)
1969/12/31/18:00:15.258000,(-26 -58 -61 -23 -12 -10 -4 -13)
1969/12/31/18:00:15.258000,(40 118 112 32 0 11 9 20)
1969/12/31/18:00:15.273000,(22 -86 -72 -16 8 4 7 30)
1969/12/31/18:00:15.273000,(-16 16 13 -1 -4 0 -1 -10)
1969/12/31/18:00:15.274000,(32 20 15 9 7 2 8 20)
1969/12/31/18:00:15.274000,(-27 -27 -16 -8 0 9 -3 -4)
1969/12/31/18:00:15.296000,(-20 -56 -60 -27 -9 -5 -1 -3)
1969/12/31/18:00:15.296000,(19 75 60 -15 -11 -6 5 16)
1969/12/31/18:00:15.301000,(8 5 -6 17 13 18 5 9)
1969/12/31/18:00:15.301000,(5 12 22 54 57 18 6 5)
1969/12/31/18:00:15.309000,(-16 5 -6 0 -1 3 0 -20)
1969/12/31/18:00:15.309000,(-59 -50 -20 -2 8 3 -5 -17)
1969/12/31/18:00:15.325000,(0 22 9 -24 -35 -22 -17 -15)
1969/12/31/18:00:15.325000,(1 8 -8 -16 -4 -17 -1 -5)
1969/12/31/18:00:15.333000,(-38 -35 -1 15 9 1 -25 -22)
1969/12/31/18:00:15.333000,(32 25 8 8 -2 3 15 8)
1969/12/31/18:00:15.335000,(3 9 -1 -4 -4 0 0 5)
1969/12/31/18:00:15.335000,(-33 -14 7 -5 -9 3 3 3)
1969/12/31/18:00:15.355000,(-1 5 -19 -18 -12 -11 -3 -10)
1969/12/31/18:00:15.355000,(-28 -23 -5 6 6 3 8 -13)
1969/12/31/18:00:15.357000,(-5 24 17 -2 -5 -12 -25 -20)
1969/12/31/18:00:15.357000,(38 13 0 -7 -12 7 14 11)
1969/12/31/18:00:15.369000,(-5 6 4 -2 6 8 -15 12)
1969/12/31/18:00:15.369000,(-47 -19 -13 -4 -17 0 42 -35)
1969/12/31/18:00:15.378000,(-23 -9 0 4 8 -19 -26 -17)
1969/12/31/18:00:15.378000,(3 -14 -6 -15 -17 3 2 4)
1969/12/31/18:00:15.393000,(-5 -1 -5 -1 3 -3 3 8)
1969/12/31/18:00:15.393000,(111 69 41 27 23 16 15 56)
1969/12/31/18:00:15.394000,(-44 -18 -13 -9 -8 2 17 3)
1969/12/31/18:00:15.394000,(-116 -64 -29 -20 -22 -18 -50 -79)
1969/12/31/18:00:15.416000,(36 4 -5 -6 -4 -1 18 16)
1969/12/31/18:00:15.416000,(-18 -36 -6 3 4 -1 -22 3)
1969/12/31/18:00:15.417000,(109 72 24 9 3 23 35 43)
1969/12/31/18:00:15.417000,(-8 -14 3 7 6 -10 -4 17)
1969/12/31/18:00:15.429000,(-13 10 -13 -12 -5 13 -10 -16)
1969/12/31/18:00:15.429000,(-30 -18 -9 -6 -5 -5 7 -17)
1969/12/31/18:00:15.438000,(32 1 6 2 -1 -5 -29 17)
1969/12/31/18:00:15.438000,(56 34 12 6 10 10 20 23)
1969/12/31/18:00:15.453000,(-46 -34 -10 -4 -7 -28 -8 -9)
1969/12/31/18:00:15.453000,(2 -8 -12 -2 6 24 -14 -7)
1969/12/31/18:00:15.454000,(-29 -24 -13 -8 -7 -7 4 7)
1969/12/31/18:00:15.454000,(5 2 10 5 0 10 5 8)
1969/12/31/18:00:15.475000,(69 17 11 4 1 -2 22 61)
1969/12/31/18:00:15.475000,(116 37 5 4 1 -4 -1 50)
1969/12/31/18:00:15.477000,(-113 -41 -28 -18 -12 -18 -24 -65)
1969/12/31/18:00:15.477000,(32 -8 -4 -8 -11 -2 -15 -12)
1969/12/31/18:00:15.489000,(34 22 0 -2 -1 4 6 -6)
1969/12/31/18:00:15.489000,(-29 -12 5 5 6 0 -4 10)
1969/12/31/18:00:15.498000,(0 0 11 12 10 6 1 -5)
1969/12/31/18:00:15.498000,(-35 2 7 2 1 5 11 5)
1969/12/31/18:00:15.520000,(97 53 19 9 4 7 22 58)
1969/12/31/18:00:15.520000,(-2 4 -6 -4 -3 -10 -14 -11)
1969/12/31/18:00:15.522000,(-27 -18 -2 3 4 -2 0 -14)
1969/12/31/18:00:15.522000,(1 11 -3 -4 -6 0 -4 -1)
1969/12/31/18:00:15.535000,(-6 -5 8 7 8 7 10 -1)
1969/12/31/18:00:15.535000,(-22 1 4 6 2 -1 -10 -11)
1969/12/31/18:00:15.537000,(33 17 4 3 3 2 12 27)
1969/12/31/18:00:15.537000,(27 17 -6 -13 -10 -6 -2 -1)
1969/12/31/18:00:15.549000,(-47 -11 -5 -5 -2 -2 -13 -31)
1969/12/31/18:00:15.549000,(-25 -28 -8 -4 -3 -7 -9 -8)
1969/12/31/18:00:15.558000,(1 -11 -2 1 3 3 10 6)
1969/12/31/18:00:15.558000,(27 9 -3 -2 -4 -2 -2 6)
1969/12/31/18:00:15.572000,(-33 -17 -1 -3 -3 0 5 13)
1969/12/31/18:00:15.572000,(-8 -11 -17 -13 -8 -10 -18 -27)
1969/12/31/18:00:15.579000,(59 37 17 7 4 5 12 23)
1969/12/31/18:00:15.579000,(-17 8 21 5 3 1 -1 1)
1969/12/31/18:00:15.602000,(6 -2 -9 -3 -3 -2 -2 -11)
1969/12/31/18:00:15.602000,(1 17 10 8 3 2 2 6)
1969/12/31/18:00:15.604000,(22 20 0 3 6 11 18 28)
1969/12/31/18:00:15.604000,(-40 -32 -14 -9 -9 -11 -17 -35)
1969/12/31/18:00:15.609000,(-10 -21 0 -1 -2 -3 -3 2)
1969/12/31/18:00:15.609000,(7 2 1 2 2 1 2 6)
1969/12/31/18:00:15.618000,(8 11 -1 -3 -1 0 1 9)
1969/12/31/18:00:15.618000,(-10 -18 -9 -5 -3 1 3 7)
1969/12/31/18:00:15.632000,(-38 -25 -14 -8 0 -3 -12 -43)
1969/12/31/18:00:15.632000,(18 28 18 3 -3 -3 -2 16)
1969/12/31/18:00:15.639000,(-25 -6 -4 0 -2 -5 -7 -15)
1969/12/31/18:00:15.639000,(6 34 28 13 6 5 8 13)
1969/12/31/18:00:15.656000,(-6 -31 -17 -6 -3 -3 -5 -9)
1969/12/31/18:00:15.656000,(1 26 14 1 -2 0 -2 -3)
1969/12/31/18:00:15.657000,(-21 -37 -20 -8 -2 1 -6 -27)
1969/12/31/18:00:15.657000,(25 11 2 6 1 4 14 23)
1969/12/31/18:00:15.669000,(-14 14 13 -2 -7 -12 -28 -30)
1969/12/31/18:00:15.669000,(-6 -42 -46 -14 -6 -4 0 -9)
1969/12/31/18:00:15.678000,(-19 24 27 2 -1 -2 1 -2)
1969/12/31/18:00:15.678000,(8 52 70 33 16 11 -2 2)
1969/12/31/18:00:15.692000,(-4 -20 -20 -9 -7 -3 12 15)
1969/12/31/18:00:15.692000,(1 7 24 9 8 3 -5 4)
1969/12/31/18:00:15.699000,(-1 2 -11 -5 -6 -3 -12 -29)
1969/12/31/18:00:15.699000,(-12 -70 -66 -15 -6 -4 -1 -3)
1969/12/31/18:00:15.715000,(9 34 -24 -5 2 0 0 0)
1969/12/31/18:00:15.715000,(-25 -89 -45 -17 -9 -5 -6 -10)
1969/12/31/18:00:15.717000,(20 73 42 24 15 10 19 12)
1969/12/31/18:00:15.717000,(-4 14 0 -6 -8 -5 -10 -15)
1969/12/31/18:00:15.738000,(-2 -42 -40 -11 -7 -3 -4 1)
1969/12/31/18:00:15.738000,(-16 -52 -49 -22 -9 -5 3 -3)
1969/12/31/18:00:15.739000,(4 30 29 13 8 5 1 11)
1969/12/31/18:00:15.739000,(4 0 -5 -2 5 4 7 3)
1969/12/31/18:00:15.760000,(-2 -28 1 0 -1 2 -4 1)
1969/12/31/18:00:15.760000,(-3 52 27 2 2 -4 -15 -14)
1969/12/31/18:00:15.762000,(-1 7 8 2 -3 -4 -8 -10)
1969/12/31/18:00:15.762000,(3 11 -6 -3 -4 -5 3 2)
1969/12/31/18:00:15.775000,(5 2 18 9 5 6 9 9)
1969/12/31/18:00:15.775000,(-7 -3 3 1 -2 -1 2 3)
1969/12/31/18:00:15.777000,(-2 -29 -36 -13 -6 -2 0 4)
1969/12/31/18:00:15.777000,(-5 -6 6 1 0 2 -3 -8)
1969/12/31/18:00:15.798000,(-12 4 10 -4 -4 -3 -4 -10)
1969/12/31/18:00:15.798000,(1 11 8 6 0 -3 -3 -2)
1969/12/31/18:00:15.799000,(-8 -42 -44 -20 -11 -8 0 -1)
1969/12/31/18:00:15.799000,(-4 8 36 11 2 -2 -9 -4)
1969/12/31/18:00:15.812000,(15 24 20 10 8 11 15 10)
1969/12/31/18:00:15.812000,(6 31 18 12 1 3 8 7)
1969/12/31/18:00:15.826000,(-22 -67 -26 -17 -7 -11 -29 -36)
1969/12/31/18:00:15.826000,(8 54 -9 -9 -3 0 0 1)
1969/12/31/18:00:15.835000,(-4 -7 13 8 0 -3 -7 -7)
1969/12/31/18:00:15.835000,(0 8 20 10 5 3 4 2)
1969/12/31/18:00:15.836000,(1 -4 -22 -10 -8 -2 4 8)
1969/12/31/18:00:15.836000,(-4 -26 -19 -8 -3 -5 -5 -5)
1969/12/31/18:00:15.857000,(2 -1 -16 -7 -2 -2 0 0)
1969/12/31/18:00:15.858000,(3 22 22 5 3 1 2 -1)
1969/12/31/18:00:15.859000,(-7 -16 3 7 1 -1 1 1)
1969/12/31/18:00:15.859000,(-7 -34 -29 -12 -4 -4 -4 -4)
1969/12/31/18:00:15.880000,(10 40 40 16 5 5 7 5)
1969/12/31/18:00:15.880000,(-10 -48 -14 -14 -9 -3 -2 -3)
1969/12/31/18:00:15.882000,(14 42 9 9 4 2 1 6)
1969/12/31/18:00:15.882000,(-5 -10 -10 -3 -1 -1 -4 -8)
1969/12/31/18:00:15.895000,(-5 -8 -8 -1 2 1 2 0)
1969/12/31/18:00:15.895000,(-12 -20 -33 -16 -6 -3 -7 -10)
1969/12/31/18:00:15.896000,(7 29 66 26 9 4 9 5)
1969/12/31/18:00:15.897000,(-2 0 -9 -6 -5 -2 -4 1)
1969/12/31/18:00:15.918000,(-10 -34 -23 -35 -17 -10 -10 -7)
1969/12/31/18:00:15.918000,(16 45 18 25 11 4 2 -3)
1969/12/31/18:00:15.919000,(8 -16 -25 -1 1 4 6 13)
1969/12/31/18:00:15.919000,(3 -6 -19 -11 -6 -1 6 4)
1969/12/31/18:00:15.931000,(-1 -4 24 18 6 3 0 5)
1969/12/31/18:00:15.931000,(-19 -43 -26 -13 -6 -3 -7 -9)
1969/12/31/18:00:15.940000,(-6 24 -37 -21 -8 -8 -9 -15)
1969/12/31/18:00:15.940000,(-13 -29 12 -5 -5 -4 -1 -5)
1969/12/31/18:00:15.963000,(6 2 -11 -14 -5 -2 1 4)
1969/12/31/18:00:15.963000,(3 15 -8 -20 -9 -3 -1 3)
1969/12/31/18:00:15.964000,(18 46 94 67 23 8 4 5)
1969/12/31/18:00:15.964000,(2 -2 -5 2 -1 0 4 5)
1969/12/31/18:00:15.978000,(-1 7 -13 0 -2 0 1 0)
1969/12/31/18:00:15.978000,(-11 1 -19 -13 -6 -6 -9 -12)
1969/12/31/18:00:15.979000,(-13 -45 -22 -24 -8 -4 -4 -4)
1969/12/31/18:00:15.979000,(-12 -29 -10 -12 -6 -3 0 -1)
1969/12/31/18:00:15.991000,(23 51 78 39 13 4 5 8)
1969/12/31/18:00:15.991000,(-6 -19 18 17 6 2 -1 -1)
1969/12/31/18:00:16.000000,(-6 -28 -32 -22 -9 -5 -3 -2)
1969/12/31/18:00:16.000000,(9 20 -3 0 3 0 2 4)
1969/12/31/18:00:16.015000,(-18 -19 -39 -17 -7 -6 -8 -15)
1969/12/31/18:00:16.015000,(4 7 3 2 1 -1 3 3)
1969/12/31/18:00:16.017000,(-2 -1 -9 -7 -3 -1 -3 -5)
1969/12/31/18:00:16.017000,(-7 -21 -8 -7 -3 0 0 -2)
1969/12/31/18:00:16.038000,(-2 -7 -15 -8 -5 -2 -2 -3)
1969/12/31/18:00:16.038000,(12 25 -5 3 7 2 2 3)
1969/12/31/18:00:16.044000,(-7 -36 -9 -11 -7 -2 -1 2)
1969/12/31/18:00:16.044000,(-2 9 5 13 6 3 -1 -1)
1969/12/31/18:00:16.051000,(5 16 0 0 0 -3 -2 1)
1969/12/31/18:00:16.051000,(-11 -17 4 1 -3 0 -3 -6)
1969/12/31/18:00:16.077000,(19 29 -9 -2 1 0 2 5)
1969/12/31/18:00:16.077000,(-19 -44 -43 -25 -8 -6 -6 -6)
1969/12/31/18:00:16.078000,(2 18 11 2 3 3 0 -1)
1969/12/31/18:00:16.078000,(-5 -25 -16 0 -2 0 1 3)
1969/12/31/18:00:16.081000,(-8 6 21 10 4 -1 -1 -2)
1969/12/31/18:00:16.081000,(12 13 1 6 3 2 2 4)
1969/12/31/18:00:16.098000,(-6 -12 -6 2 0 -1 2 1)
1969/12/31/18:00:16.098000,(-5 -1 -5 -8 -6 -5 -3 -3)
1969/12/31/18:00:16.099000,(-7 -11 -9 -13 -7 -2 -3 -4)
1969/12/31/18:00:16.099000,(7 22 18 9 1 1 3 2)
1969/12/31/18:00:16.111000,(0 -11 -9 -6 -1 0 -3 -1)
1969/12/31/18:00:16.111000,(6 21 15 3 2 2 0 2)
1969/12/31/18:00:16.126000,(-9 -14 -12 -4 -3 -2 -5 -7)
1969/12/31/18:00:16.127000,(5 13 16 6 2 3 3 2)
1969/12/31/18:00:16.135000,(0 3 -3 -2 -2 -2 -2 -3)
1969/12/31/18:00:16.135000,(0 0 -1 -1 -1 -2 0 0)
1969/12/31/18:00:16.137000,(-4 -3 4 -7 -2 0 0 -1)
1969/12/31/18:00:16.137000,(8 17 18 15 5 -2 -1 1)
1969/12/31/18:00:16.158000,(-10 -5 -7 2 -3 -3 -5 -9)
1969/12/31/18:00:16.158000,(-4 -10 -12 -5 -3 -3 -1 1)
1969/12/31/18:00:16.159000,(0 -4 2 -4 -1 -2 0 -1)
1969/12/31/18:00:16.159000,(2 -1 -3 -2 1 1 0 0)
1969/12/31/18:00:16.171000,(2 6 10 7 4 2 1 3)
1969/12/31/18:00:16.171000,(4 12 11 5 0 -2 -1 -1)
1969/12/31/18:00:16.180000,(-5 -13 -19 -9 -3 -2 -1 0)
1969/12/31/18:00:16.180000,(-3 2 1 -1 -3 -1 -2 -3)
1969/12/31/18:00:16.195000,(-2 -3 -5 0 0 -2 -2 -2)
1969/12/31/18:00:16.195000,(-1 0 2 -3 -2 1 1 -1)
1969/12/31/18:00:16.197000,(2 2 3 3 -1 4 0 -1)
1969/12/31/18:00:16.197000,(-2 6 6 4 -1 -1 -1 -2)
1969/12/31/18:00:16.225000,(-1 -8 -10 -4 -3 -4 -1 0)
1969/12/31/18:00:16.225000,(3 8 11 5 1 -4 1 1)
1969/12/31/18:00:16.227000,(-3 -3 -5 -3 -5 -6 -2 -1)
1969/12/31/18:00:16.227000,(0 2 -2 -1 -2 -1 -1 1)
1969/12/31/18:00:16.231000,(-4 -8 -12 -9 -6 -3 -3 -4)
1969/12/31/18:00:16.231000,(4 3 -9 -4 0 -1 0 2)
1969/12/31/18:00:16.241000,(-3 2 4 5 2 0 0 0)
1969/12/31/18:00:16.241000,(-1 -1 -1 -4 -1 1 -2 -1)
1969/12/31/18:00:16.264000,(-1 0 6 3 1 -2 -2 -1)
1969/12/31/18:00:16.264000,(2 4 7 6 3 3 3 2)
1969/12/31/18:00:16.266000,(-2 -13 -6 -6 -5 -2 -3 0)
1969/12/31/18:00:16.266000,(-8 -6 -8 -9 -4 -2 -3 -8)
1969/12/31/18:00:16.278000,(1 3 -3 4 4 1 1 2)
1969/12/31/18:00:16.278000,(2 7 8 4 1 0 -2 -2)
1969/12/31/18:00:16.279000,(-5 -11 -9 -6 -1 -2 0 -4)
1969/12/31/18:00:16.279000,(-1 -2 2 0 1 -2 0 0)
1969/12/31/18:00:16.291000,(0 -1 -2 0 -1 0 0 0)
1969/12/31/18:00:16.291000,(-4 -5 -3 -3 0 -2 -2 -3)
1969/12/31/18:00:16.300000,(0 2 5 3 0 -1 0 0)
1969/12/31/18:00:16.300000,(1 2 0 5 4 1 -1 0)
1969/12/31/18:00:16.315000,(-1 2 0 1 0 -1 -1 -1)
1969/12/31/18:00:16.315000,(0 0 1 2 0 -1 0 0)
1969/12/31/18:00:16.322000,(1 8 -6 -3 0 0 -1 0)
1969/12/31/18:00:16.322000,(0 -9 1 3 1 -1 0 0)
1969/12/31/18:00:16.338000,(-3 -14 -6 -3 -3 -2 -2 -1)
1969/12/31/18:00:16.338000,(-1 -1 -4 -2 0 0 -1 -2)
1969/12/31/18:00:16.339000,(2 11 12 5 2 1 0 1)
1969/12/31/18:00:16.339000,(1 5 0 -2 -3 -1 1 0)
1969/12/31/18:00:16.351000,(-6 -9 -5 -4 -6 -1 -2 -2)
1969/12/31/18:00:16.351000,(-5 -7 -3 -4 -2 -3 -1 -3)
1969/12/31/18:00:16.360000,(0 -1 -8 -1 0 1 -1 -2)
1969/12/31/18:00:16.360000,(2 1 5 2 1 1 0 1)
1969/12/31/18:00:16.375000,(-1 0 1 0 1 -1 -1 -1)
1969/12/31/18:00:16.375000,(-3 2 0 -3 -3 -1 -3 -1)
1969/12/31/18:00:16.377000,(-1 -2 0 -1 1 0 1 -1)
1969/12/31/18:00:16.377000,(-2 0 1 0 1 -1 -2 -1)
1969/12/31/18:00:16.398000,(-1 -1 -6 -2 0 -1 -1 -1)
1969/12/31/18:00:16.398000,(0 -1 0 1 2 1 0 0)
1969/12/31/18:00:16.399000,(-2 -5 -1 -1 -2 -3 0 -2)
1969/12/31/18:00:16.399000,(-2 -3 -4 -3 -2 0 -4 -3)
1969/12/31/18:00:16.411000,(1 0 1 -3 -2 0 -1 -1)
1969/12/31/18:00:16.411000,(1 -1 1 1 -2 -2 0 -2)
1969/12/31/18:00:16.420000,(-1 -3 -2 -2 -1 0 -2 -2)
1969/12/31/18:00:16.420000,(-2 3 -2 -1 -3 -1 0 -1)
1969/12/31/18:00:16.435000,(-3 -3 -9 -7 -2 -1 0 0)
1969/12/31/18:00:16.435000,(0 3 6 6 1 0 -1 -2)
1969/12/31/18:00:16.441000,(-3 -4 2 -2 -3 -2 -4 -2)
1969/12/31/18:00:16.441000,(-3 2 2 1 1 -2 -1 -2)
1969/12/31/18:00:16.458000,(0 -2 -4 -2 -3 0 -1 -2)
1969/12/31/18:00:16.458000,(-1 -4 -11 -6 -3 -1 1 1)
1969/12/31/18:00:16.459000,(-5 2 1 0 0 -1 -1 -3)
1969/12/31/18:00:16.459000,(-2 -5 0 1 1 0 -1 -1)
1969/12/31/18:00:16.471000,(0 -3 -6 -5 -4 -1 -1 -1)
1969/12/31/18:00:16.471000,(-5 -8 -7 -8 -2 7 -2 -2)
1969/12/31/18:00:16.480000,(4 7 9 9 3 2 0 1)
1969/12/31/18:00:16.480000,(-2 -6 -7 -4 -2 -3 -1 -2)
1969/12/31/18:00:16.495000,(0 -1 4 0 0 -5 1 -1)
1969/12/31/18:00:16.495000,(0 14 24 13 4 -7 -2 -3)
1969/12/31/18:00:16.501000,(1 -3 -6 -3 -2 -3 2 1)
1969/12/31/18:00:16.501000,(-4 -2 2 0 -2 -2 -1 -3)
1969/12/31/18:00:16.501000,(6 5 7 5 1 2 2 5)
1969/12/31/18:00:16.501000,(1 -1 10 6 4 1 -1 -1)
1969/12/31/18:00:16.502000,(2 5 -6 -5 -3 -1 0 0)
1969/12/31/18:00:16.502000,(-4 -8 -6 -3 -1 0 -3 -1)
1969/12/31/18:00:16.524000,(-5 -5 1 4 0 1 -1 -3)
1969/12/31/18:00:16.524000,(-5 -4 -12 -8 -5 -4 -4 -3)
1969/12/31/18:00:16.531000,(-3 7 2 -4 -2 -1 -5 -8)
1969/12/31/18:00:16.531000,(-6 -14 -10 1 2 0 -1 -5)
1969/12/31/18:00:16.546000,(4 2 11 5 2 1 1 4)
1969/12/31/18:00:16.546000,(2 3 2 -2 -3 -2 1 1)
1969/12/31/18:00:16.547000,(-1 -1 -5 -4 -2 -3 -1 0)
1969/12/31/18:00:16.547000,(1 3 4 0 1 0 -1 0)
1969/12/31/18:00:16.562000,(4 2 1 0 -2 -1 -2 -1)
1969/12/31/18:00:16.562000,(-3 1 1 0 -2 0 -2 -2)
1969/12/31/18:00:16.562000,(4 2 1 2 2 -1 1 1)
1969/12/31/18:00:16.562000,(-2 -2 -4 -3 -2 -4 -2 -2)
1969/12/31/18:00:16.584000,(-1 2 11 6 6 0 1 2)
1969/12/31/18:00:16.584000,(1 -3 -9 -3 -2 -3 -1 -2)
1969/12/31/18:00:16.585000,(-1 -2 -3 -4 -2 -1 -1 -3)
1969/12/31/18:00:16.585000,(-2 -2 0 -3 -5 0 -3 -2)
1969/12/31/18:00:16.606000,(1 -1 2 1 -2 0 2 0)
1969/12/31/18:00:16.606000,(-2 -1 -5 -18 -6 -3 -1 -4)
1969/12/31/18:00:16.607000,(-1 -1 2 13 4 1 0 0)
1969/12/31/18:00:16.607000,(-3 2 4 6 4 -1 -3 -5)
1969/12/31/18:00:16.622000,(-1 -4 -6 -1 -3 -2 -1 0)
1969/12/31/18:00:16.622000,(-4 -6 -21 -29 -8 -3 -4 -3)
1969/12/31/18:00:16.622000,(-3 -5 -2 -18 -13 -4 -2 -2)
1969/12/31/18:00:16.622000,(1 1 -14 3 2 -1 1 1)
1969/12/31/18:00:16.644000,(1 7 32 20 -5 -2 8 3)
1969/12/31/18:00:16.644000,(1 4 17 42 29 21 -12 -6)
1969/12/31/18:00:16.645000,(-3 -8 -36 -39 -7 -7 2 -1)
1969/12/31/18:00:16.645000,(-4 -8 14 16 -18 -8 -6 -2)
1969/12/31/18:00:16.675000,(5 5 -39 -6 18 -1 -5 0)
1969/12/31/18:00:16.675000,(2 3 46 34 0 -3 6 6)
1969/12/31/18:00:16.675000,(-3 -10 -19 -18 -14 -2 -8 -7)
1969/12/31/18:00:16.675000,(1 6 -19 -31 1 6 0 0)
1969/12/31/18:00:16.681000,(1 4 45 49 10 -1 2 0)
1969/12/31/18:00:16.681000,(-1 -1 -2 -24 -12 -3 3 1)
1969/12/31/18:00:16.682000,(-1 -1 13 26 14 6 -1 3)
1969/12/31/18:00:16.682000,(-3 -1 -16 -14 -7 -10 -4 -7)
1969/12/31/18:00:16.704000,(-11 -24 -32 -34 -12 0 -3 -6)
1969/12/31/18:00:16.704000,(-2 1 -27 -11 -5 -5 -3 -3)
1969/12/31/18:00:16.705000,(4 12 39 25 6 4 4 3)
1969/12/31/18:00:16.705000,(-1 -6 -1 -40 -7 0 0 1)
1969/12/31/18:00:16.727000,(-6 14 -5 24 -3 -8 -17 -19)
1969/12/31/18:00:16.727000,(5 15 23 57 18 3 2 1)
1969/12/31/18:00:16.727000,(3 8 26 -6 -2 0 4 6)
1969/12/31/18:00:16.727000,(1 2 13 23 3 -2 -3 -2)
1969/12/31/18:00:16.741000,(-4 -21 -8 -38 -5 6 9 11)
1969/12/31/18:00:16.741000,(-13 -25 -84 -82 -26 -14 -7 -11)
1969/12/31/18:00:16.742000,(0 2 13 -23 -2 2 5 5)
1969/12/31/18:00:16.742000,(8 8 17 86 20 6 7 5)
1969/12/31/18:00:16.764000,(-2 7 16 -12 -9 -6 -8 -10)
1969/12/31/18:00:16.764000,(2 -8 -3 -11 -19 -6 1 3)
1969/12/31/18:00:16.765000,(-10 -14 -22 -13 14 1 -4 -8)
1969/12/31/18:00:16.765000,(-8 -17 -17 -33 -9 -5 3 -4)
1969/12/31/18:00:16.786000,(2 -5 -41 -42 -16 -7 -15 -4)
1969/12/31/18:00:16.786000,(6 18 22 19 17 6 0 -3)
1969/12/31/18:00:16.787000,(18 26 72 91 14 2 6 12)
1969/12/31/18:00:16.787000,(-19 -13 -18 -30 -10 -5 -8 -16)
1969/12/31/18:00:16.810000,(2 3 5 13 0 2 1 3)
1969/12/31/18:00:16.810000,(-3 -12 -35 -45 -13 -5 -1 1)
1969/12/31/18:00:16.810000,(-6 -11 -35 -24 -8 -2 -3 -2)
1969/12/31/18:00:16.810000,(4 -3 49 37 8 4 7 12)
1969/12/31/18:00:16.824000,(2 -16 -10 -9 0 3 8 7)
1969/12/31/18:00:16.824000,(-5 -7 -2 -12 -7 -4 -6 -4)
1969/12/31/18:00:16.825000,(-2 10 -1 10 -4 -2 -2 -5)
1969/12/31/18:00:16.825000,(7 19 -10 -24 1 1 1 3)
1969/12/31/18:00:16.846000,(-3 12 1 5 -1 -3 -5 -10)
1969/12/31/18:00:16.846000,(2 8 5 11 6 2 3 0)
1969/12/31/18:00:16.847000,(1 12 1 7 1 0 -3 -5)
1969/12/31/18:00:16.847000,(3 5 -6 -16 -2 -2 -4 0)
1969/12/31/18:00:16.861000,(-1 -8 -2 -2 0 1 3 3)
1969/12/31/18:00:16.861000,(2 -1 12 19 6 1 4 4)
1969/12/31/18:00:16.862000,(-1 -11 -17 -14 -4 -2 -2 -1)
1969/12/31/18:00:16.862000,(0 -3 -2 -2 -2 -1 -2 -4)
1969/12/31/18:00:16.884000,(0 -1 5 7 4 1 4 3)
1969/12/31/18:00:16.884000,(-4 -4 10 17 4 -1 -2 0)
1969/12/31/18:00:16.891000,(-12 -12 -19 -21 -10 -4 -7 -8)
1969/12/31/18:00:16.892000,(-2 0 5 4 2 1 -3 1)
1969/12/31/18:00:16.915000,(4 0 4 7 2 -1 0 0)
1969/12/31/18:00:16.915000,(6 3 8 1 -1 1 0 0)
1969/12/31/18:00:16.915000,(16 15 4 4 3 2 -5 -18)
1969/12/31/18:00:16.915000,(-38 -26 -14 0 -2 0 4 22)
1969/12/31/18:00:16.921000,(18 0 -1 -3 -1 -4 -4 7)
1969/12/31/18:00:16.921000,(-6 -4 4 2 -3 -7 -11 -13)
1969/12/31/18:00:16.929000,(4 6 -3 -1 -2 -1 -1 1)
1969/12/31/18:00:16.929000,(-55 -15 -11 -5 -6 -11 -27 -72)
1969/12/31/18:00:16.944000,(16 4 2 -1 6 21 43 70)
1969/12/31/18:00:16.944000,(31 12 7 1 0 -13 -2 10)
1969/12/31/18:00:16.945000,(16 -5 -5 -2 -2 -9 -16 10)
1969/12/31/18:00:16.945000,(-33 -22 -7 -8 2 29 -7 -38)
1969/12/31/18:00:16.966000,(-3 18 15 11 4 -13 34 45)
1969/12/31/18:00:16.966000,(13 9 5 5 3 2 -1 8)
1969/12/31/18:00:16.967000,(10 2 -8 -6 -2 0 12 -8)
1969/12/31/18:00:16.967000,(10 10 1 -5 -2 -3 11 5)
1969/12/31/18:00:16.981000,(-13 -10 -2 -2 -2 22 3 -3)
1969/12/31/18:00:16.981000,(-14 -15 -4 0 -1 -21 -16 14)
1969/12/31/18:00:16.989000,(-4 -1 -3 -7 -7 -15 -8 -17)
1969/12/31/18:00:16.989000,(-8 27 13 4 -1 -8 -18 -41)
1969/12/31/18:00:17.004000,(59 -12 -13 -5 5 14 31 62)
1969/12/31/18:00:17.004000,(-33 -31 -21 -13 -14 1 44 2)
1969/12/31/18:00:17.005000,(-39 -27 -1 5 8 7 -11 -9)
1969/12/31/18:00:17.005000,(60 53 12 3 -1 -2 11 -7)
1969/12/31/18:00:17.026000,(-9 -10 3 5 5 -2 -3 6)
1969/12/31/18:00:17.026000,(54 30 5 1 3 12 -1 39)
1969/12/31/18:00:17.034000,(19 -3 -5 -3 0 24 62 40)
1969/12/31/18:00:17.034000,(-51 -16 -10 -6 -6 -20 -22 -15)
1969/12/31/18:00:17.041000,(-39 -31 -4 -8 -17 -56 -37 -46)
1969/12/31/18:00:17.041000,(54 36 9 3 6 17 32 49)
1969/12/31/18:00:17.049000,(-64 -50 -13 -8 -7 -16 -31 -17)
1969/12/31/18:00:17.049000,(72 42 21 13 12 39 48 59)
1969/12/31/18:00:17.064000,(-64 -62 -31 -13 -6 -4 -31 -56)
1969/12/31/18:00:17.064000,(1 -5 -1 -5 -8 10 17 2)
1969/12/31/18:00:17.065000,(-1 6 -3 1 -1 -16 -67 -15)
1969/12/31/18:00:17.065000,(-3 -33 -6 -1 -4 -15 -1 5)
1969/12/31/18:00:17.086000,(86 75 17 7 5 -9 -13 34)
1969/12/31/18:00:17.086000,(-102 -19 5 6 7 16 5 -90)
1969/12/31/18:00:17.087000,(67 35 9 5 4 -1 1 -2)
1969/12/31/18:00:17.087000,(25 -22 -1 1 2 19 15 67)
1969/12/31/18:00:17.101000,(13 42 12 6 1 -4 -7 -26)
1969/12/31/18:00:17.101000,(-66 -41 -10 -2 2 -3 -19 -31)
1969/12/31/18:00:17.109000,(-17 -14 -18 -11 -7 9 14 -17)
1969/12/31/18:00:17.109000,(53 18 26 22 16 -4 -2 14)
1969/12/31/18:00:17.124000,(-98 -42 -14 -5 0 18 -18 -67)
1969/12/31/18:00:17.124000,(105 61 12 3 -1 -6 -4 32)
1969/12/31/18:00:17.125000,(-62 0 4 -1 -4 -5 6 -9)
1969/12/31/18:00:17.125000,(-13 -3 -17 -10 -9 -33 6 -27)
1969/12/31/18:00:17.146000,(-37 -4 0 -6 -4 66 -27 -37)
1969/12/31/18:00:17.146000,(-11 -50 -20 -9 -15 -37 -19 -24)
1969/12/31/18:00:17.147000,(21 20 11 9 10 24 12 11)
1969/12/31/18:00:17.147000,(-11 2 -3 -4 -8 -39 -41 -21)
1969/12/31/18:00:17.161000,(29 -3 -9 -6 -2 23 36 35)
1969/12/31/18:00:17.161000,(20 21 10 1 0 1 6 23)
1969/12/31/18:00:17.169000,(6 -17 -14 -9 -8 -8 2 10)
1969/12/31/18:00:17.169000,(-28 -14 -4 -2 2 28 1 11)
1969/12/31/18:00:17.184000,(43 23 7 3 6 -29 -6 17)
1969/12/31/18:00:17.184000,(3 -1 3 5 5 9 15 39)
1969/12/31/18:00:17.185000,(6 6 -2 -1 -1 -9 0 -21)
1969/12/31/18:00:17.185000,(13 7 7 1 -1 4 -19 -48)
1969/12/31/18:00:17.206000,(65 5 -17 -16 -17 -26 9 90)
1969/12/31/18:00:17.206000,(7 16 30 25 20 4 -24 -33)
1969/12/31/18:00:17.207000,(-4 15 -3 -5 -4 2 -5 -14)
1969/12/31/18:00:17.207000,(-6 3 -4 -4 -5 -12 10 6)
1969/12/31/18:00:17.222000,(-19 -14 -5 -2 -1 6 35 -9)
1969/12/31/18:00:17.222000,(4 0 -4 -6 -4 -9 -30 -15)
1969/12/31/18:00:17.229000,(13 14 7 5 0 -2 13 19)
1969/12/31/18:00:17.229000,(-19 -2 2 1 0 0 -18 -22)
1969/12/31/18:00:17.244000,(-28 -34 -9 -1 2 -9 -8 -21)
1969/12/31/18:00:17.244000,(1 26 -1 -2 -2 34 38 3)
1969/12/31/18:00:17.245000,(-20 -25 -4 -1 -5 -17 -32 -9)
1969/12/31/18:00:17.245000,(-3 -15 -11 -9 -8 -10 -2 -10)
1969/12/31/18:00:17.266000,(-5 29 22 10 4 -3 -13 -33)
1969/12/31/18:00:17.266000,(-7 4 -7 -9 -11 -9 -10 -30)
1969/12/31/18:00:17.267000,(-1 -1 6 2 5 11 2 -13)
1969/12/31/18:00:17.267000,(-40 -41 -22 -8 0 11 12 9)
1969/12/31/18:00:17.290000,(-16 12 12 5 1 -19 -22 -49)
1969/12/31/18:00:17.290000,(-4 -16 -12 -5 -1 -6 -19 -49)
1969/12/31/18:00:17.291000,(-54 -21 2 2 2 -1 3 11)
1969/12/31/18:00:17.291000,(80 22 -7 -3 -3 -3 -2 -18)
1969/12/31/18:00:17.304000,(-28 25 -1 -5 -6 -13 -21 -62)
1969/12/31/18:00:17.304000,(-30 -31 -1 5 7 3 5 -3)
1969/12/31/18:00:17.305000,(-35 -12 -4 -4 -2 -2 -10 -50)
1969/12/31/18:00:17.305000,(34 -9 -1 3 1 -2 2 30)
1969/12/31/18:00:17.327000,(37 18 0 -6 -7 2 11 38)
1969/12/31/18:00:17.327000,(6 -11 -11 -12 -10 -4 -43 -21)
1969/12/31/18:00:17.328000,(-10 -21 -9 -2 0 4 1 7)
1969/12/31/18:00:17.328000,(-3 18 3 -5 -2 -6 -9 5)
1969/12/31/18:00:17.350000,(-36 -22 -3 -2 -1 1 -4 -10)
1969/12/31/18:00:17.350000,(-44 -16 -10 -6 -3 -5 3 30)
1969/12/31/18:00:17.350000,(17 -20 -5 -2 -2 -4 13 26)
1969/12/31/18:00:17.350000,(27 18 3 -2 -1 6 9 26)
1969/12/31/18:00:17.364000,(-35 -2 14 16 17 21 19 11)
1969/12/31/18:00:17.364000,(94 24 -1 -5 -9 -8 11 97)
1969/12/31/18:00:17.365000,(-46 -18 -14 -8 -7 -18 -42 -104)
1969/12/31/18:00:17.365000,(-13 6 3 -1 -1 2 10 3)
1969/12/31/18:00:17.387000,(35 -9 -12 -4 -5 -12 -1 5)
1969/12/31/18:00:17.387000,(-81 -8 10 8 8 9 17 17)
1969/12/31/18:00:17.387000,(18 7 -5 -5 -6 -3 9 23)
1969/12/31/18:00:17.387000,(-17 -5 0 0 -2 -8 -6 -26)
1969/12/31/18:00:17.410000,(-9 4 -1 -1 -5 -9 -11 -36)
1969/12/31/18:00:17.410000,(7 -40 -25 -11 -10 -10 -10 42)
1969/12/31/18:00:17.410000,(76 75 21 10 5 3 19 -2)
1969/12/31/18:00:17.410000,(-48 -7 -1 2 16 21 -11 -18)
1969/12/31/18:00:17.424000,(16 12 0 0 -6 -3 2 75)
1969/12/31/18:00:17.424000,(-3 2 12 10 7 4 10 10)
1969/12/31/18:00:17.425000,(3 -26 -15 -13 -11 -23 -25 3)
1969/12/31/18:00:17.425000,(29 10 5 3 8 27 14 50)
1969/12/31/18:00:17.446000,(-2 -15 0 0 -3 -10 34 -1)
1969/12/31/18:00:17.446000,(-24 6 6 7 3 0 -14 -67)
1969/12/31/18:00:17.447000,(20 10 2 3 6 -6 57 74)
1969/12/31/18:00:17.447000,(10 23 10 2 -3 -9 0 9)
1969/12/31/18:00:17.470000,(23 -44 -30 -22 -28 -34 5 59)
1969/12/31/18:00:17.470000,(25 19 11 20 27 0 8 -15)
1969/12/31/18:00:17.470000,(-12 -7 -3 -16 -37 -9 5 40)
1969/12/31/18:00:17.470000,(26 -7 -19 -24 -5 -1 16 73)
1969/12/31/18:00:17.484000,(20 36 18 16 14 22 19 -3)
1969/12/31/18:00:17.484000,(-23 -17 -6 -8 -21 -30 -32 -26)
1969/12/31/18:00:17.485000,(14 -9 -4 12 19 64 10 27)
1969/12/31/18:00:17.485000,(-7 5 8 10 19 2 18 -1)
1969/12/31/18:00:17.507000,(-3 10 -3 -16 -11 11 -10 5)
1969/12/31/18:00:17.507000,(2 -16 1 12 25 27 -38 1)
1969/12/31/18:00:17.508000,(1 4 -10 -16 -13 50 73 1)
1969/12/31/18:00:17.508000,(-23 -27 -3 7 -22 -42 -68 -17)
1969/12/31/18:00:17.530000,(-20 3 6 0 18 35 17 -19)
1969/12/31/18:00:17.530000,(10 19 2 -20 -32 -39 12 -18)
1969/12/31/18:00:17.530000,(7 25 13 8 21 30 2 23)
1969/12/31/18:00:17.530000,(-11 -27 -13 -1 -9 -22 -16 -34)
1969/12/31/18:00:17.544000,(42 3 -1 8 8 -48 -36 4)
1969/12/31/18:00:17.544000,(0 4 2 19 19 23 42 16)
1969/12/31/18:00:17.545000,(-16 -1 5 -18 -59 -48 -27 -11)
1969/12/31/18:00:17.545000,(-28 14 8 9 10 1 18 -56)
1969/12/31/18:00:17.567000,(-11 -29 -3 -21 -1 62 -1 51)
1969/12/31/18:00:17.567000,(-18 15 -3 -18 -11 -2 -10 -51)
1969/12/31/18:00:17.568000,(-23 -28 -3 13 24 -13 -13 -4)
1969/12/31/18:00:17.568000,(55 -1 -8 1 -6 -26 10 73)
1969/12/31/18:00:17.590000,(-29 -16 1 10 -6 -26 -35 -49)
1969/12/31/18:00:17.590000,(-3 23 12 8 16 60 41 0)
1969/12/31/18:00:17.590000,(-8 7 0 4 15 -24 -46 -31)
1969/12/31/18:00:17.590000,(-25 -22 3 1 -7 8 14 -18)
1969/12/31/18:00:17.612000,(-24 -7 2 33 45 -14 -4 -39)
1969/12/31/18:00:17.612000,(2 2 -6 -37 -74 -25 5 23)
1969/12/31/18:00:17.613000,(0 -1 -1 0 17 -2 -39 -48)
1969/12/31/18:00:17.613000,(-14 -13 -12 -16 -15 40 29 1)
1969/12/31/18:00:17.635000,(26 18 1 -2 -5 -4 12 11)
1969/12/31/18:00:17.635000,(-42 -14 -5 11 25 15 19 -9)
1969/12/31/18:00:17.635000,(15 9 4 2 -14 -20 2 13)
1969/12/31/18:00:17.635000,(-34 -2 3 -1 12 28 -6 -29)
1969/12/31/18:00:17.650000,(16 11 7 0 -15 25 34 22)
1969/12/31/18:00:17.650000,(-12 -13 -5 14 31 8 -6 -22)
1969/12/31/18:00:17.651000,(3 -11 -9 -22 -6 -42 -1 10)
1969/12/31/18:00:17.651000,(21 5 4 19 18 9 -3 5)
1969/12/31/18:00:17.664000,(-8 24 4 -16 -33 -28 -33 -56)
1969/12/31/18:00:17.664000,(15 23 21 7 -2 -22 5 48)
1969/12/31/18:00:17.665000,(32 -35 -29 -2 17 34 -11 -39)
1969/12/31/18:00:17.665000,(-42 28 19 -8 -16 -24 -7 -51)
1969/12/31/18:00:17.687000,(-19 -29 -3 -2 1 7 1 -18)
1969/12/31/18:00:17.687000,(6 6 -3 2 -4 -20 -17 -13)
1969/12/31/18:00:17.688000,(11 10 4 12 6 -7 7 8)
1969/12/31/18:00:17.688000,(-15 -37 -16 14 0 -43 -7 -1)
1969/12/31/18:00:17.709000,(-17 -15 -34 -29 35 78 -11 -2)
1969/12/31/18:00:17.709000,(52 84 65 0 -37 0 7 32)
1969/12/31/18:00:17.716000,(-1 32 65 37 31 17 24 27)
1969/12/31/18:00:17.716000,(-16 -33 -30 -24 -24 -25 -8 0)
1969/12/31/18:00:17.724000,(-19 -36 -75 5 4 -34 -21 -29)
1969/12/31/18:00:17.724000,(-16 63 52 23 24 12 -3 -22)
1969/12/31/18:00:17.725000,(65 -17 -20 -3 -16 -4 24 81)
1969/12/31/18:00:17.725000,(61 -19 -27 5 -27 -58 -13 18)
1969/12/31/18:00:17.747000,(25 4 -3 -11 15 9 -2 4)
1969/12/31/18:00:17.747000,(-17 -59 -34 -31 -12 18 6 38)
1969/12/31/18:00:17.748000,(38 60 50 28 23 21 3 -4)
1969/12/31/18:00:17.748000,(5 -11 18 10 23 18 1 4)
1969/12/31/18:00:17.770000,(3 -125 -107 -42 -49 -31 7 66)
1969/12/31/18:00:17.770000,(13 -9 -62 -30 -37 -22 0 19)
1969/12/31/18:00:17.770000,(-41 97 87 31 2 -7 -8 -21)
1969/12/31/18:00:17.770000,(52 35 42 13 19 29 4 24)
1969/12/31/18:00:17.783000,(0 39 44 12 -37 -17 7 -15)
1969/12/31/18:00:17.783000,(3 -128 -105 -23 -1 -5 -9 -9)
1969/12/31/18:00:17.792000,(-51 -128 -114 -23 61 78 -7 -25)
1969/12/31/18:00:17.792000,(-73 0 -39 -16 -6 -5 1 9)
1969/12/31/18:00:17.807000,(54 127 127 81 26 -13 14 20)
1969/12/31/18:00:17.807000,(21 13 1 0 10 20 -14 -14)
1969/12/31/18:00:17.808000,(-1 67 19 -23 -51 -15 0 -20)
1969/12/31/18:00:17.808000,(-17 -92 -49 -29 -3 22 8 46)
1969/12/31/18:00:17.837000,(-8 -14 -21 -15 -10 -45 -13 -21)
1969/12/31/18:00:17.837000,(-59 -127 -97 -20 7 -3 0 -42)
1969/12/31/18:00:17.839000,(2 80 52 29 27 -7 -2 14)
1969/12/31/18:00:17.839000,(12 90 79 44 36 41 9 -15)
1969/12/31/18:00:17.843000,(-8 -52 -32 -6 -12 3 22 38)
1969/12/31/18:00:17.843000,(-7 -51 -11 22 26 -11 -19 -39)
1969/12/31/18:00:17.852000,(-35 -128 -128 -66 -24 -36 -24 3)
1969/12/31/18:00:17.852000,(-17 78 -12 -19 -27 -25 -24 -46)
1969/12/31/18:00:17.867000,(-18 2 64 24 19 34 8 -21)
1969/12/31/18:00:17.867000,(33 125 59 3 -5 -3 3 23)
1969/12/31/18:00:17.869000,(-25 -14 21 1 4 56 6 -34)
1969/12/31/18:00:17.869000,(-23 25 24 6 -27 -46 -10 -10)
1969/12/31/18:00:17.890000,(14 -65 -46 -5 21 -4 -16 40)
1969/12/31/18:00:17.890000,(-24 19 -54 -15 -5 -9 -17 -50)
1969/12/31/18:00:17.891000,(21 33 49 61 13 -6 16 -6)
1969/12/31/18:00:17.891000,(8 -83 -66 -37 -4 24 1 2)
1969/12/31/18:00:17.903000,(-58 -94 -79 -27 -10 6 -4 -44)
1969/12/31/18:00:17.903000,(15 5 -8 -1 30 -41 -7 23)
1969/12/31/18:00:17.912000,(-25 -41 -7 -29 -58 -24 -8 11)
1969/12/31/18:00:17.912000,(20 98 18 -13 -12 -6 -7 -28)
1969/12/31/18:00:17.927000,(-33 35 54 20 15 22 5 -43)
1969/12/31/18:00:17.927000,(-7 -32 -9 17 9 -25 -15 -35)
1969/12/31/18:00:17.929000,(26 -49 -35 7 -10 -34 -8 0)
1969/12/31/18:00:17.929000,(-37 -128 -127 -73 -13 44 14 -6)
1969/12/31/18:00:17.950000,(17 100 82 27 -16 -32 -19 5)
1969/12/31/18:00:17.950000,(-54 -34 25 27 6 -13 6 -12)
1969/12/31/18:00:17.951000,(0 -17 -16 -22 -14 -23 -16 -5)
1969/12/31/18:00:17.951000,(40 59 83 42 5 48 28 9)
1969/12/31/18:00:17.972000,(56 42 0 3 -2 -14 5 11)
1969/12/31/18:00:17.972000,(14 -42 3 -12 -35 -7 -2 23)
1969/12/31/18:00:17.974000,(-1 -83 -51 5 40 23 11 19)
1969/12/31/18:00:17.974000,(-18 -128 -128 -56 -10 -29 -22 -9)
1969/12/31/18:00:17.987000,(-3 100 -15 -27 0 14 -22 -69)
1969/12/31/18:00:17.987000,(-8 -34 66 53 42 31 30 25)
1969/12/31/18:00:17.989000,(6 25 -20 10 -30 -29 6 30)
1969/12/31/18:00:17.989000,(45 -60 -18 5 -14 -9 -9 5)
1969/12/31/18:00:18.010000,(-107 -120 -127 -25 -2 -6 -29 -87)
1969/12/31/18:00:18.010000,(91 87 22 -54 -41 11 15 43)
1969/12/31/18:00:18.011000,(38 127 110 47 40 47 30 54)
1969/12/31/18:00:18.011000,(-38 9 57 39 88 93 10 -46)
1969/12/31/18:00:18.023000,(-5 -82 -16 11 -17 -60 -7 14)
1969/12/31/18:00:18.023000,(-15 -10 -20 -21 -2 11 -15 10)
1969/12/31/18:00:18.038000,(-38 -42 -44 -27 -14 -37 -8 -6)
1969/12/31/18:00:18.038000,(-4 10 -66 -15 -31 -60 -19 1)
1969/12/31/18:00:18.047000,(71 79 96 75 29 13 6 48)
1969/12/31/18:00:18.047000,(-60 -110 -93 -13 22 77 34 -42)
1969/12/31/18:00:18.049000,(26 0 -96 -19 -8 1 8 16)
1969/12/31/18:00:18.049000,(44 70 96 71 0 -18 8 11)
1969/12/31/18:00:18.070000,(-7 -126 -128 -13 34 17 13 4)
1969/12/31/18:00:18.070000,(-30 -40 -80 -46 -64 -50 -22 17)
1969/12/31/18:00:18.071000,(61 39 60 43 31 14 -20 -23)
1969/12/31/18:00:18.071000,(-34 -121 -110 -4 -5 -19 2 3)
1969/12/31/18:00:18.083000,(-44 -52 -81 -71 -11 -11 -47 -55)
1969/12/31/18:00:18.083000,(61 87 120 49 -13 -17 23 32)
1969/12/31/18:00:18.092000,(-81 -86 -29 -21 46 16 -19 -76)
1969/12/31/18:00:18.092000,(52 -26 1 -5 -8 -8 -12 56)
1969/12/31/18:00:18.106000,(10 85 58 -11 -9 35 27 17)
1969/12/31/18:00:18.106000,(-58 -89 -81 -34 -10 -44 -35 -51)
1969/12/31/18:00:18.115000,(-2 -62 -26 -11 -22 -4 2 5)
1969/12/31/18:00:18.115000,(-68 -5 -39 -5 23 -8 -5 -83)
1969/12/31/18:00:18.130000,(-46 15 49 17 61 82 18 -8)
1969/12/31/18:00:18.130000,(77 116 64 32 8 -2 -4 8)
1969/12/31/18:00:18.131000,(6 -20 -9 19 1 3 22 10)
1969/12/31/18:00:18.131000,(-30 -128 -84 -7 -4 -35 -10 25)
1969/12/31/18:00:18.152000,(31 53 -76 -82 -70 -48 -27 20)
1969/12/31/18:00:18.152000,(60 21 78 84 87 96 44 56)
1969/12/31/18:00:18.154000,(-3 -3 -28 11 -21 -49 -19 -23)
1969/12/31/18:00:18.154000,(-50 -94 -52 -26 -3 31 -17 -41)
1969/12/31/18:00:18.167000,(34 -61 -47 -32 -26 -30 14 23)
1969/12/31/18:00:18.167000,(-26 -53 -50 3 7 -20 -26 -31)
1969/12/31/18:00:18.173000,(17 64 57 2 -30 8 -6 -5)
1969/12/31/18:00:18.173000,(-6 -43 -26 1 41 9 15 62)
1969/12/31/18:00:18.199000,(28 76 61 40 -35 -37 3 13)
1969/12/31/18:00:18.199000,(-29 -29 -37 -34 -20 18 0 -10)
1969/12/31/18:00:18.200000,(-63 -85 -67 -25 -3 -7 2 -6)
1969/12/31/18:00:18.200000,(-21 41 -7 -3 -25 -47 -22 -58)
1969/12/31/18:00:18.213000,(48 17 80 45 87 74 16 21)
1969/12/31/18:00:18.213000,(-11 -40 -27 14 -4 24 12 -3)
1969/12/31/18:00:18.214000,(48 17 80 45 87 74 16 21)
1969/12/31/18:00:18.214000,(-11 -40 -27 14 -4 24 12 -3)
1969/12/31/18:00:18.215000,(38 127 110 47 40 47 30 54)
1969/12/31/18:00:18.215000,(-38 9 57 39 88 93 10 -46)
1969/12/31/18:00:18.216000,(-5 -82 -16 11 -17 -60 -7 14)
1969/12/31/18:00:18.216000,(-15 -10 -20 -21 -2 11 -15 10)
1969/12/31/18:00:18.221000,(-38 -42 -44 -27 -14 -37 -8 -6)
1969/12/31/18:00:18.221000,(-4 10 -66 -15 -31 -60 -19 1)
1969/12/31/18:00:18.222000,(71 79 96 75 29 13 6 48)
1969/12/31/18:00:18.222000,(-60 -110 -93 -13 22 77 34 -42)
1969/12/31/18:00:18.226000,(-72 -128 -128 -60 -27 -40 -16 -24)
1969/12/31/18:00:18.227000,(19 87 61 29 11 -22 -5 -8)
1969/12/31/18:00:18.250000,(-18 61 28 -24 -20 13 -4 -15)
1969/12/31/18:00:18.250000,(14 28 27 -3 -29 -23 9 24)
1969/12/31/18:00:18.251000,(-4 -57 -34 -2 -9 16 5 -2)
1969/12/31/18:00:18.251000,(31 -2 -37 -19 -10 -7 18 76)
1969/12/31/18:00:18.257000,(29 67 76 72 37 -15 -16 -10)
1969/12/31/18:00:18.257000,(52 15 -5 -36 -10 17 16 7)
1969/12/31/18:00:18.280000,(-21 -4 8 15 -38 -41 -6 -8)
1969/12/31/18:00:18.280000,(-41 -79 -65 -38 22 66 5 -26)
1969/12/31/18:00:18.281000,(-50 -128 -73 -5 34 -32 -5 0)
1969/12/31/18:00:18.281000,(14 127 38 -9 -48 5 -10 -2)
1969/12/31/18:00:18.286000,(53 -14 31 52 23 12 17 56)
1969/12/31/18:00:18.286000,(-58 -128 -98 -27 -30 -51 -24 -31)
1969/12/31/18:00:18.295000,(-34 -62 -108 -55 -40 -13 -22 -40)
1969/12/31/18:00:18.295000,(45 113 127 57 48 44 24 28)
1969/12/31/18:00:18.309000,(-24 -128 -115 -36 -37 -25 -31 -65)
1969/12/31/18:00:18.309000,(38 109 96 23 -11 -18 -3 -2)
1969/12/31/18:00:18.311000,(0 -28 -56 -35 -12 3 -9 -22)
1969/12/31/18:00:18.311000,(-60 -80 -36 -14 -11 -23 -20 -41)
1969/12/31/18:00:18.332000,(-32 -6 -36 -12 -15 -7 -17 -42)
1969/12/31/18:00:18.332000,(7 -4 4 60 68 -11 -15 -3)
1969/12/31/18:00:18.348000,(-4 -86 -96 -84 -79 26 8 -1)
1969/12/31/18:00:18.348000,(4 38 60 17 -9 -6 8 12)
1969/12/31/18:00:18.349000,(33 123 127 39 -18 -11 25 33)
1969/12/31/18:00:18.349000,(-49 -103 -104 -52 3 12 -20 -43)
1969/12/31/18:00:18.355000,(11 90 75 57 35 -14 0 10)
1969/12/31/18:00:18.355000,(-5 -46 -33 -6 3 -4 9 -10)
1969/12/31/18:00:18.369000,(-40 -104 -76 -16 4 1 -9 5)
1969/12/31/18:00:18.369000,(44 109 29 -24 -49 -57 -19 3)
1969/12/31/18:00:18.371000,(23 -44 3 21 9 -2 5 -14)
1969/12/31/18:00:18.371000,(-77 -63 -118 -93 -9 36 15 9)
1969/12/31/18:00:18.392000,(56 127 127 113 63 18 -1 -3)
1969/12/31/18:00:18.392000,(16 -128 -127 -22 -9 12 7 5)
1969/12/31/18:00:18.394000,(-54 -69 -88 -54 -13 -13 -10 -5)
1969/12/31/18:00:18.394000,(15 71 7 31 23 -18 -18 -18)
1969/12/31/18:00:18.406000,(28 -20 -24 -10 -23 6 14 27)
1969/12/31/18:00:18.406000,(35 -72 -57 -2 6 3 3 27)
1969/12/31/18:00:18.415000,(22 61 -27 7 17 28 31 79)
1969/12/31/18:00:18.415000,(32 19 29 29 -2 -38 -8 11)
1969/12/31/18:00:18.429000,(-10 -20 -39 -12 32 26 0 -7)
1969/12/31/18:00:18.429000,(-59 -44 -30 -30 -48 24 2 -3)
1969/12/31/18:00:18.437000,(9 63 -11 -11 3 -27 -21 -35)
1969/12/31/18:00:18.437000,(-22 65 73 52 17 29 -10 -23)
1969/12/31/18:00:18.452000,(72 65 34 11 17 7 13 38)
1969/12/31/18:00:18.452000,(-40 -12 45 15 -4 -21 -6 -20)
1969/12/31/18:00:18.454000,(-29 -128 -117 -52 -8 -2 -2 0)
1969/12/31/18:00:18.454000,(43 63 22 10 13 12 18 40)
1969/12/31/18:00:18.466000,(26 38 62 51 3 8 14 6)
1969/12/31/18:00:18.466000,(-22 -100 -112 -15 1 -25 -11 -9)
1969/12/31/18:00:18.481000,(30 125 127 36 -9 -11 0 -21)
1969/12/31/18:00:18.481000,(45 48 67 16 -5 29 -3 10)
1969/12/31/18:00:18.490000,(-60 -128 -103 -36 7 -1 1 -14)
1969/12/31/18:00:18.490000,(-7 -25 32 -4 -8 6 19 -1)
1969/12/31/18:00:18.491000,(35 6 2 32 25 7 10 32)
1969/12/31/18:00:18.491000,(29 12 -6 15 21 -12 -4 10)
1969/12/31/18:00:18.512000,(-53 -44 -21 -27 -27 16 -7 -20)
1969/12/31/18:00:18.512000,(-30 -9 -26 9 50 -5 -7 -16)
1969/12/31/18:00:18.514000,(-12 0 42 -9 -43 44 14 -19)
1969/12/31/18:00:18.514000,(15 -128 -128 -65 -51 -37 -12 -12)
1969/12/31/18:00:18.526000,(-6 101 98 29 19 6 6 6)
1969/12/31/18:00:18.526000,(-88 -67 -91 -35 -21 -27 -34 -76)
1969/12/31/18:00:18.535000,(103 102 120 102 46 13 15 47)
1969/12/31/18:00:18.535000,(-18 -120 -104 -22 -14 -14 4 18)
1969/12/31/18:00:18.549000,(-51 -128 -128 -74 -40 -33 -12 -18)
1969/12/31/18:00:18.549000,(28 127 127 48 24 27 12 15)
1969/12/31/18:00:18.551000,(-28 28 -7 -9 10 10 5 -12)
1969/12/31/18:00:18.551000,(-9 -17 11 3 -9 -21 -15 -11)
1969/12/31/18:00:18.572000,(-4 -105 -102 -28 18 -10 -10 5)
1969/12/31/18:00:18.572000,(71 84 48 1 -22 28 12 58)
1969/12/31/18:00:18.574000,(18 42 31 2 18 12 15 30)
1969/12/31/18:00:18.574000,(15 35 38 5 -9 -12 -16 -24)
1969/12/31/18:00:18.586000,(-26 -96 -78 -4 18 -22 -19 -6)
1969/12/31/18:00:18.586000,(24 -9 -57 -39 -34 -12 21 44)
1969/12/31/18:00:18.595000,(-7 65 80 3 6 44 -4 0)
1969/12/31/18:00:18.595000,(-25 -40 29 13 -1 3 9 2)
1969/12/31/18:00:18.617000,(49 69 0 -17 -8 -18 0 29)
1969/12/31/18:00:18.617000,(-74 -11 35 22 26 11 -12 -48)
1969/12/31/18:00:18.619000,(-39 -128 -128 -43 -15 -36 -12 3)
1969/12/31/18:00:18.619000,(18 120 84 28 14 21 13 12)
1969/12/31/18:00:18.632000,(-37 -19 3 5 -4 25 11 -8)
1969/12/31/18:00:18.632000,(22 -28 -16 0 10 10 -5 -2)
1969/12/31/18:00:18.640000,(-21 -86 -48 -41 -48 -27 -8 -27)
1969/12/31/18:00:18.640000,(48 -19 -1 33 29 -27 -10 42)
1969/12/31/18:00:18.646000,(-38 -53 -41 -41 -67 -28 -33 -65)
1969/12/31/18:00:18.646000,(21 94 4 -22 -28 20 19 24)
1969/12/31/18:00:18.655000,(3 38 56 32 15 5 -13 -26)
1969/12/31/18:00:18.655000,(-12 -122 -113 -12 11 -15 -5 -7)
1969/12/31/18:00:18.670000,(4 -34 -25 -1 21 28 0 24)
1969/12/31/18:00:18.670000,(32 47 46 21 10 24 29 5)
1969/12/31/18:00:18.672000,(-48 -116 -95 -50 -26 -14 -5 -10)
1969/12/31/18:00:18.672000,(26 13 24 26 56 27 11 16)
1969/12/31/18:00:18.692000,(26 125 121 27 -24 -25 -10 1)
1969/12/31/18:00:18.692000,(3 -63 -16 9 -2 -19 -9 -8)
1969/12/31/18:00:18.700000,(36 -74 -98 -48 -17 4 24 56)
1969/12/31/18:00:18.700000,(-31 66 100 46 17 22 6 -23)
1969/12/31/18:00:18.706000,(10 6 -55 -24 5 10 -7 -26)
1969/12/31/18:00:18.706000,(57 85 80 44 18 -15 -9 4)
1969/12/31/18:00:18.715000,(-3 -20 18 4 -21 -26 -16 -11)
1969/12/31/18:00:18.715000,(-36 -128 -128 -87 -43 2 4 26)
1969/12/31/18:00:18.730000,(2 89 -8 -3 7 -1 -3 -10)
1969/12/31/18:00:18.730000,(-30 -63 -14 29 8 -22 -12 -14)
1969/12/31/18:00:18.737000,(8 -9 -90 -45 -61 -42 -31 -17)
1969/12/31/18:00:18.737000,(13 87 86 45 24 47 40 21)
1969/12/31/18:00:18.752000,(-43 -76 -68 -19 -4 -17 -3 -10)
1969/12/31/18:00:18.752000,(35 84 86 44 31 15 18 49)
1969/12/31/18:00:18.760000,(-26 -102 -57 -14 -1 -26 -29 -30)
1969/12/31/18:00:18.760000,(-27 -83 -128 -75 -29 16 1 -6)
1969/12/31/18:00:18.766000,(103 97 127 95 51 47 46 54)
1969/12/31/18:00:18.766000,(12 -128 -120 -35 -14 -25 -18 -4)
1969/12/31/18:00:18.775000,(-13 -49 -38 23 34 16 17 18)
1969/12/31/18:00:18.775000,(18 70 34 46 35 -10 -19 -22)
1969/12/31/18:00:18.790000,(-18 -56 -35 -43 -54 -28 10 10)
1969/12/31/18:00:18.790000,(-42 -102 -76 -46 -23 6 -27 -33)
1969/12/31/18:00:18.792000,(-16 112 70 28 33 10 1 -14)
1969/12/31/18:00:18.792000,(34 46 55 57 3 -6 -3 -14)
1969/12/31/18:00:18.812000,(15 16 -1 19 15 -1 9 21)
1969/12/31/18:00:18.812000,(6 -23 -7 -7 13 35 -1 -8)
1969/12/31/18:00:18.814000,(-42 -53 -11 -13 -15 -8 -12 -22)
1969/12/31/18:00:18.814000,(-8 -90 -71 -37 -31 -50 -25 7)
1969/12/31/18:00:18.826000,(13 -19 -5 12 44 91 55 40)
1969/12/31/18:00:18.826000,(20 69 -16 -40 -38 -45 -14 -13)
1969/12/31/18:00:18.835000,(23 123 127 86 47 22 22 7)
1969/12/31/18:00:18.835000,(-22 -80 -51 -6 -15 -39 -16 -15)
1969/12/31/18:00:18.849000,(-18 -66 -83 -69 -7 24 -24 2)
1969/12/31/18:00:18.849000,(38 43 52 59 25 2 12 -2)
1969/12/31/18:00:18.863000,(-24 -77 -83 1 15 -19 -4 -16)
1969/12/31/18:00:18.863000,(75 18 -8 -2 24 40 -7 40)
1969/12/31/18:00:18.880000,(-69 -92 -22 -9 -28 -18 3 -32)
1969/12/31/18:00:18.880000,(-36 -53 -50 -27 -5 0 -7 -20)
1969/12/31/18:00:18.881000,(-29 -50 6 -5 -24 -9 6 5)
1969/12/31/18:00:18.881000,(-24 7 -23 -18 -7 -4 -13 -32)
1969/12/31/18:00:18.886000,(11 -99 -52 -13 -15 -9 -4 -4)
1969/12/31/18:00:18.886000,(-9 97 30 -5 -2 -9 -9 -19)
1969/12/31/18:00:18.895000,(31 49 80 42 11 -22 1 15)
1969/12/31/18:00:18.895000,(-52 -87 -67 -40 10 46 8 -13)
1969/12/31/18:00:18.910000,(-6 -39 -26 -9 -50 -28 -9 6)
1969/12/31/18:00:18.910000,(-38 56 22 -9 -37 -17 3 -17)
1969/12/31/18:00:18.911000,(50 -71 -81 -26 19 29 11 20)
1969/12/31/18:00:18.911000,(-2 8 1 -3 -11 -1 -13 -28)
1969/12/31/18:00:18.932000,(9 20 50 35 34 -43 -16 -15)
1969/12/31/18:00:18.932000,(-44 -128 -128 -39 -35 -14 -20 -4)
1969/12/31/18:00:18.934000,(49 123 67 24 13 15 2 0)
1969/12/31/18:00:18.934000,(-15 5 12 -2 -26 -8 18 17)
1969/12/31/18:00:18.946000,(-3 23 28 36 27 -4 -8 -1)
1969/12/31/18:00:18.946000,(30 -61 -44 -4 2 -12 5 46)
1969/12/31/18:00:18.955000,(27 110 98 0 -5 49 -1 -10)
1969/12/31/18:00:18.955000,(20 46 67 24 3 -3 33 24)
1969/12/31/18:00:18.970000,(-11 -82 -58 -16 10 19 -10 -9)
1969/12/31/18:00:18.970000,(-43 -35 3 33 37 -14 -4 3)
1969/12/31/18:00:18.971000,(-79 -128 -110 -68 -32 -34 -16 -35)
1969/12/31/18:00:18.971000,(21 14 -70 -25 -26 -4 -16 2)
1969/12/31/18:00:18.993000,(-3 61 21 -9 -27 -4 15 -3)
1969/12/31/18:00:18.993000,(20 64 64 53 42 9 -7 -5)
1969/12/31/18:00:18.994000,(11 27 26 28 9 -11 7 13)
1969/12/31/18:00:18.994000,(-30 49 56 -15 -15 12 -10 -46)
1969/12/31/18:00:19.006000,(27 -32 -45 -10 0 -6 -5 9)
1969/12/31/18:00:19.006000,(28 -10 5 23 1 -28 -7 -2)
1969/12/31/18:00:19.015000,(-22 -82 -113 -44 -3 37 9 20)
1969/12/31/18:00:19.015000,(-5 -22 30 31 -3 -3 -3 -25)
1969/12/31/18:00:19.030000,(6 -65 -43 0 15 -19 -13 -2)
1969/12/31/18:00:19.030000,(-27 -112 -63 -50 -51 -7 10 5)
1969/12/31/18:00:19.032000,(-3 85 72 16 -17 -5 12 -7)
1969/12/31/18:00:19.032000,(28 -24 -29 -11 12 12 4 19)
1969/12/31/18:00:19.052000,(-6 51 32 11 27 -5 1 -2)
1969/12/31/18:00:19.052000,(4 -10 -7 -27 -11 28 12 12)
1969/12/31/18:00:19.054000,(50 64 34 29 14 -1 -7 14)
1969/12/31/18:00:19.054000,(-22 -66 -29 -19 -19 2 -1 4)
1969/12/31/18:00:19.066000,(0 8 10 6 -5 -19 2 -2)
1969/12/31/18:00:19.066000,(3 10 -18 -6 8 17 3 -17)
1969/12/31/18:00:19.075000,(15 -20 26 15 -1 -20 9 60)
1969/12/31/18:00:19.075000,(-18 -28 45 26 43 -2 -10 -38)
1969/12/31/18:00:19.089000,(-19 103 59 6 -40 -2 -30 -80)
1969/12/31/18:00:19.089000,(63 13 14 8 8 9 21 35)
1969/12/31/18:00:19.091000,(-23 -58 -45 3 11 3 -8 -7)
1969/12/31/18:00:19.091000,(-13 -120 -67 -10 4 -7 0 2)
1969/12/31/18:00:19.113000,(-93 -128 -63 -37 -17 -7 -10 -34)
1969/12/31/18:00:19.113000,(14 45 -1 11 9 -31 -3 6)
1969/12/31/18:00:19.114000,(5 20 21 -16 0 54 10 -25)
1969/12/31/18:00:19.114000,(4 75 35 2 -1 -21 -10 15)
1969/12/31/18:00:19.125000,(10 -25 -25 25 48 10 0 2)
1969/12/31/18:00:19.126000,(-32 -79 -83 -50 -38 14 18 9)
1969/12/31/18:00:19.134000,(70 45 63 83 34 -23 -12 -9)
1969/12/31/18:00:19.134000,(-79 -111 -61 4 4 20 -2 -22)
1969/12/31/18:00:19.149000,(7 -34 -32 -41 -59 -6 20 38)
1969/12/31/18:00:19.149000,(-19 -41 -30 1 13 -2 -2 32)
1969/12/31/18:00:19.151000,(-31 14 -7 -8 -18 -11 -6 -49)
1969/12/31/18:00:19.151000,(24 -25 -73 -37 -23 2 4 7)
1969/12/31/18:00:19.172000,(22 119 127 86 38 12 3 7)
1969/12/31/18:00:19.172000,(0 -64 -35 -16 -10 -6 -19 -17)
1969/12/31/18:00:19.174000,(-6 -62 -51 -16 -6 -56 -10 2)
1969/12/31/18:00:19.174000,(-8 -63 -54 -6 15 49 4 11)
1969/12/31/18:00:19.194000,(20 63 57 -17 -18 24 23 10)
1969/12/31/18:00:19.195000,(-34 5 5 0 -5 -5 -12 -20)
1969/12/31/18:00:19.196000,(-5 -107 -59 -15 -4 -6 -5 14)
1969/12/31/18:00:19.196000,(51 83 73 44 13 -26 -1 15)
1969/12/31/18:00:19.209000,(22 -17 -10 15 -7 -19 -7 6)
1969/12/31/18:00:19.209000,(-35 15 -45 -51 -35 8 -16 -40)
1969/12/31/18:00:19.211000,(32 28 61 42 15 -8 20 26)
1969/12/31/18:00:19.211000,(-16 -114 -123 -33 -4 -42 -9 1)
1969/12/31/18:00:19.232000,(-40 -81 -101 -33 1 56 -11 -12)
1969/12/31/18:00:19.232000,(85 107 127 100 30 2 19 28)
1969/12/31/18:00:19.234000,(-36 -91 -99 -41 -21 -22 -20 -24)
1969/12/31/18:00:19.234000,(7 28 18 -8 -8 5 15 18)
1969/12/31/18:00:19.255000,(20 -21 -11 -11 7 3 -7 8)
1969/12/31/18:00:19.255000,(-15 -62 -31 -3 -6 -16 14 4)
1969/12/31/18:00:19.256000,(-36 -7 13 -13 5 30 -2 -10)
1969/12/31/18:00:19.256000,(36 43 49 23 -8 -26 7 22)
1969/12/31/18:00:19.270000,(22 58 23 -23 -25 -20 5 18)
1969/12/31/18:00:19.270000,(-56 -105 -85 -19 7 5 -30 -50)
1969/12/31/18:00:19.271000,(76 111 86 22 15 32 30 72)
1969/12/31/18:00:19.271000,(-18 43 25 -14 -38 -31 -20 -33)
1969/12/31/18:00:19.292000,(-2 -19 -24 18 36 24 2 17)
1969/12/31/18:00:19.292000,(24 56 33 -6 3 13 9 14)
1969/12/31/18:00:19.294000,(-74 -128 -121 -31 -11 -28 -12 -11)
1969/12/31/18:00:19.294000,(4 60 41 22 20 24 -8 -20)
1969/12/31/18:00:19.315000,(35 4 11 4 -11 -11 8 62)
1969/12/31/18:00:19.315000,(36 -26 21 27 15 -13 1 3)
1969/12/31/18:00:19.316000,(-75 -128 -102 -56 -24 6 -20 -29)
1969/12/31/18:00:19.316000,(24 6 -56 -37 -16 4 18 20)
1969/12/31/18:00:19.337000,(-29 90 95 46 24 -12 -7 -34)
1969/12/31/18:00:19.337000,(-17 7 23 49 77 42 4 -26)
1969/12/31/18:00:19.339000,(-19 -64 -52 -62 -58 -11 -14 -24)
1969/12/31/18:00:19.339000,(-6 -27 -47 -9 -3 -11 1 19)
1969/12/31/18:00:19.353000,(66 83 80 3 -12 -4 7 6)
1969/12/31/18:00:19.353000,(-18 -93 -57 -31 -20 -11 -11 1)
1969/12/31/18:00:19.354000,(3 -27 -5 24 24 15 9 -3)
1969/12/31/18:00:19.354000,(-21 54 58 43 34 -25 -11 -13)
1969/12/31/18:00:19.375000,(-58 -128 -103 -59 -31 33 15 8)
1969/12/31/18:00:19.375000,(27 127 127 30 -9 0 9 8)
1969/12/31/18:00:19.376000,(-8 23 2 1 1 -1 -8 -19)
1969/12/31/18:00:19.376000,(15 -63 -44 -24 -21 -15 2 39)
1969/12/31/18:00:19.389000,(-10 36 33 24 8 -33 -17 -15)
1969/12/31/18:00:19.389000,(-34 -44 -37 -29 -23 -8 -9 -12)
1969/12/31/18:00:19.396000,(18 -25 -55 -10 23 24 9 2)
1969/12/31/18:00:19.396000,(25 89 76 29 7 0 5 7)
1969/12/31/18:00:19.413000,(-3 -58 -43 14 16 -11 6 -3)
1969/12/31/18:00:19.413000,(-15 -79 -82 -53 -41 10 3 -1)
1969/12/31/18:00:19.414000,(73 127 67 48 17 -14 17 39)
1969/12/31/18:00:19.414000,(-35 -100 -44 -29 -8 9 -17 -36)
1969/12/31/18:00:19.435000,(13 -23 -59 7 48 -1 2 -23)
1969/12/31/18:00:19.435000,(2 120 102 3 -49 -8 2 0)
1969/12/31/18:00:19.436000,(-7 -96 -50 -10 0 8 6 36)
1969/12/31/18:00:19.436000,(-15 -16 -23 -12 -23 -26 -16 -14)
1969/12/31/18:00:19.449000,(7 -5 24 13 0 -12 -2 0)
1969/12/31/18:00:19.449000,(-13 -68 -61 -9 48 27 1 4)
1969/12/31/18:00:19.456000,(-26 -46 -58 -38 -34 -9 -12 -32)
1969/12/31/18:00:19.456000,(15 74 76 47 10 17 7 -2)
1969/12/31/18:00:19.472000,(-6 -103 -80 -3 5 -30 -10 -7)
1969/12/31/18:00:19.472000,(65 6 0 10 -32 -4 3 35)
