time,.data
1969/12/31/18:00:15.900,(2 2 3 1 5 4 3 3)
1969/12/31/18:00:15.900,(-3 -1 0 2 -1 0 -2 -3)
1969/12/31/18:00:15.900,(0 0 0 -1 -2 -5 -1 -2)
1969/12/31/18:00:15.900,(-3 -2 1 2 3 0 -1 -2)
1969/12/31/18:00:15.913,(-2 -2 -3 -4 -3 -1 -2 -1)
1969/12/31/18:00:15.913,(1 0 -4 -2 -4 -3 1 2)
1969/12/31/18:00:15.922,(-1 1 -1 -1 0 -2 -1 -2)
1969/12/31/18:00:15.922,(-1 -2 -1 -1 0 -1 -2 -2)
1969/12/31/18:00:15.936,(-2 -2 0 1 1 -2 1 -1)
1969/12/31/18:00:15.936,(-1 -1 0 -3 -2 2 1 0)
1969/12/31/18:00:15.937,(0 -1 -3 -2 -3 1 -1 -2)
1969/12/31/18:00:15.937,(3 2 -3 -3 -4 -1 2 1)
1969/12/31/18:00:15.960,(-1 0 -1 3 3 1 -2 -1)
1969/12/31/18:00:15.960,(-1 -4 -1 -1 -1 -1 -2 0)
1969/12/31/18:00:15.961,(-3 -2 0 -2 1 0 1 1)
1969/12/31/18:00:15.961,(1 1 1 1 1 2 0 -2)
1969/12/31/18:00:15.982,(-1 -1 -2 -2 -2 -2 -3 -3)
1969/12/31/18:00:15.982,(0 1 1 -3 -3 -1 0 0)
1969/12/31/18:00:15.983,(1 0 -3 -3 -2 -2 -1 -1)
1969/12/31/18:00:15.983,(0 1 4 4 4 0 0 0)
1969/12/31/18:00:15.997,(-1 -2 2 3 1 2 0 -1)
1969/12/31/18:00:15.997,(-1 -2 -4 -4 -3 -1 -1 -3)
1969/12/31/18:00:15.997,(-2 -2 -1 -3 1 -1 0 0)
1969/12/31/18:00:15.997,(0 0 -2 -3 -4 -4 -1 0)
1969/12/31/18:00:16.020,(0 -1 -2 -6 -4 -4 -1 -2)
1969/12/31/18:00:16.020,(1 2 1 7 1 -2 -2 0)
1969/12/31/18:00:16.021,(-3 -3 -2 -1 0 3 0 -2)
1969/12/31/18:00:16.021,(0 2 3 1 -3 1 0 2)
1969/12/31/18:00:16.042,(0 0 -1 0 0 -1 -2 2)
1969/12/31/18:00:16.042,(1 0 0 -10 -7 -4 0 0)
1969/12/31/18:00:16.043,(-2 -1 -4 -6 -8 -4 -3 -4)
1969/12/31/18:00:16.043,(-3 -1 2 7 11 1 -2 -3)
1969/12/31/18:00:16.057,(5 5 8 13 16 11 6 4)
1969/12/31/18:00:16.057,(-1 -3 -7 -9 -7 -1 2 1)
1969/12/31/18:00:16.057,(-3 -2 0 -4 2 0 -2 -1)
1969/12/31/18:00:16.057,(-5 -2 -2 1 -23 -7 -2 -3)
1969/12/31/18:00:16.080,(-2 -7 -17 -28 -3 -5 -5 -3)
1969/12/31/18:00:16.080,(2 5 16 23 0 1 1 2)
1969/12/31/18:00:16.081,(3 6 11 34 27 12 5 3)
1969/12/31/18:00:16.081,(2 2 4 7 21 6 1 0)
1969/12/31/18:00:16.103,(-5 0 -5 -15 -23 -8 -2 -4)
1969/12/31/18:00:16.103,(0 -3 -18 -11 -15 -1 0 -2)
1969/12/31/18:00:16.104,(-5 -3 -1 -37 -1 -7 -8 -4)
1969/12/31/18:00:16.104,(4 3 2 28 7 3 1 2)
1969/12/31/18:00:16.117,(-1 -1 -1 -4 0 -2 3 0)
1969/12/31/18:00:16.117,(0 -3 -3 8 -4 -2 0 0)
1969/12/31/18:00:16.131,(5 3 7 15 6 2 1 3)
1969/12/31/18:00:16.131,(-11 -9 -9 -42 -6 -1 -3 -7)
1969/12/31/18:00:16.140,(1 2 2 -7 11 3 -1 2)
1969/12/31/18:00:16.140,(3 4 17 48 7 3 2 1)
1969/12/31/18:00:16.141,(3 -2 -23 6 -15 -6 5 0)
1969/12/31/18:00:16.141,(4 -1 12 14 24 4 -1 4)
1969/12/31/18:00:16.170,(-13 -7 -14 -61 -36 -17 -5 -9)
1969/12/31/18:00:16.170,(-4 2 -3 -63 -42 -11 -6 -5)
1969/12/31/18:00:16.171,(8 12 29 85 67 23 9 6)
1969/12/31/18:00:16.171,(-4 -12 -24 -57 -26 -11 -8 -5)
1969/12/31/18:00:16.176,(-5 -10 19 88 16 12 6 1)
1969/12/31/18:00:16.176,(3 13 9 -49 9 -1 -4 2)
1969/12/31/18:00:16.185,(1 -2 -5 40 0 -2 1 1)
1969/12/31/18:00:16.185,(5 13 5 17 -8 1 5 5)
1969/12/31/18:00:16.200,(6 6 -2 -20 -27 -13 -8 0)
1969/12/31/18:00:16.200,(-8 -11 -2 63 47 11 -1 -4)
1969/12/31/18:00:16.201,(-2 0 -28 -100 -43 -5 1 -3)
1969/12/31/18:00:16.201,(4 -2 -6 -8 9 -6 -8 1)
1969/12/31/18:00:16.222,(-2 -6 -7 -30 6 2 0 -2)
1969/12/31/18:00:16.222,(-2 -1 17 48 -5 -1 2 -3)
1969/12/31/18:00:16.224,(1 2 2 2 -19 -7 0 -1)
1969/12/31/18:00:16.224,(4 1 -26 -31 -31 -4 -1 1)
1969/12/31/18:00:16.236,(-3 -1 17 36 31 5 -2 2)
1969/12/31/18:00:16.236,(-2 -2 -22 -87 -29 -13 -3 -2)
1969/12/31/18:00:16.245,(4 2 16 59 27 4 -4 3)
1969/12/31/18:00:16.245,(-13 -4 39 36 4 12 4 -6)
1969/12/31/18:00:16.260,(1 2 -6 -2 15 5 0 -2)
1969/12/31/18:00:16.260,(6 2 -11 36 36 14 7 7)
1969/12/31/18:00:16.262,(2 0 -5 -33 -46 -22 -9 1)
1969/12/31/18:00:16.262,(-3 0 8 -21 -13 -8 -3 -4)
1969/12/31/18:00:16.282,(4 4 2 50 26 7 2 1)
1969/12/31/18:00:16.282,(-10 -11 -9 -44 -11 1 -2 -2)
1969/12/31/18:00:16.284,(-2 -6 -16 -33 -5 -3 -2 -3)
1969/12/31/18:00:16.284,(-1 0 4 33 -1 -3 -2 0)
1969/12/31/18:00:16.296,(-3 1 7 16 -2 1 0 0)
1969/12/31/18:00:16.296,(5 2 -7 -1 9 -3 -1 1)
1969/12/31/18:00:16.311,(-7 -8 -15 -29 -14 -3 -2 -3)
1969/12/31/18:00:16.311,(4 2 -6 -43 -12 -4 1 2)
1969/12/31/18:00:16.320,(0 3 7 16 -5 -2 1 -1)
1969/12/31/18:00:16.320,(-3 0 9 35 7 3 -3 -1)
1969/12/31/18:00:16.321,(-2 0 11 12 13 7 0 -1)
1969/12/31/18:00:16.321,(-1 -2 -13 -1 16 0 3 -2)
1969/12/31/18:00:16.342,(3 0 -8 -25 -22 -3 1 2)
1969/12/31/18:00:16.342,(0 -4 -4 1 -2 -2 -2 -3)
1969/12/31/18:00:16.344,(-3 -1 4 -41 -9 -1 0 -3)
1969/12/31/18:00:16.344,(0 -2 -6 20 5 0 3 0)
1969/12/31/18:00:16.356,(1 -2 -4 1 -7 -2 0 -1)
1969/12/31/18:00:16.356,(-1 -1 3 -3 5 -1 -1 2)
1969/12/31/18:00:16.365,(-1 -2 0 6 0 0 0 0)
1969/12/31/18:00:16.365,(-1 -1 -2 9 -4 2 0 0)
1969/12/31/18:00:16.380,(-4 -3 -2 6 9 -1 -4 -3)
1969/12/31/18:00:16.380,(0 0 0 -16 -13 -5 0 2)
1969/12/31/18:00:16.381,(2 2 2 5 0 2 1 0)
1969/12/31/18:00:16.381,(-2 -3 0 9 8 1 -2 0)
1969/12/31/18:00:16.402,(-1 -4 -12 -23 -15 -3 -1 -2)
1969/12/31/18:00:16.402,(1 2 2 -13 0 -1 0 0)
1969/12/31/18:00:16.404,(0 2 8 32 6 3 0 3)
1969/12/31/18:00:16.404,(0 0 0 5 4 3 0 2)
1969/12/31/18:00:16.416,(8 2 -6 -10 -8 -2 1 5)
1969/12/31/18:00:16.416,(-7 -4 -1 -2 -3 2 -1 -7)
1969/12/31/18:00:16.425,(-2 0 1 -5 1 -2 0 0)
1969/12/31/18:00:16.425,(-1 -1 -2 0 -4 -2 -2 -1)
1969/12/31/18:00:16.440,(0 1 -2 -15 -6 -3 -2 3)
1969/12/31/18:00:16.440,(1 0 0 11 4 0 -1 0)
1969/12/31/18:00:16.441,(-8 -6 -1 -11 -14 -5 -3 -4)
1969/12/31/18:00:16.441,(5 2 1 4 17 7 3 1)
1969/12/31/18:00:16.462,(-1 -2 0 8 1 1 -3 -3)
1969/12/31/18:00:16.462,(7 5 4 10 8 4 4 6)
1969/12/31/18:00:16.464,(-8 -6 -3 2 1 -3 -5 -6)
1969/12/31/18:00:16.464,(1 1 -1 -5 -6 -3 0 3)
1969/12/31/18:00:16.476,(-2 -1 1 -7 0 3 1 -3)
1969/12/31/18:00:16.476,(-3 -6 -2 3 -4 -4 -2 -2)
1969/12/31/18:00:16.485,(1 3 1 1 2 1 2 0)
1969/12/31/18:00:16.485,(1 -1 -3 -3 0 -1 1 1)
1969/12/31/18:00:16.499,(-1 0 0 -10 -5 -3 -2 1)
1969/12/31/18:00:16.499,(8 4 -1 4 -4 0 2 4)
1969/12/31/18:00:16.506,(4 -3 -2 -12 3 2 -1 2)
1969/12/31/18:00:16.506,(-8 -2 7 26 8 2 -2 -8)
1969/12/31/18:00:16.522,(-7 1 0 1 3 -1 -1 -3)
1969/12/31/18:00:16.522,(2 -2 -2 -1 0 2 4 10)
1969/12/31/18:00:16.524,(2 2 0 -12 -2 4 3 -2)
1969/12/31/18:00:16.524,(-5 -7 -6 -9 -8 -6 -6 -4)
1969/12/31/18:00:16.536,(7 7 -4 -2 -1 1 2 3)
1969/12/31/18:00:16.536,(-2 -1 2 -7 -2 -1 0 -3)
1969/12/31/18:00:16.545,(1 0 -2 2 1 -2 -3 -3)
1969/12/31/18:00:16.545,(-8 -5 -2 -3 -4 -1 -2 -4)
1969/12/31/18:00:16.560,(-15 -12 -4 -2 0 -1 3 3)
1969/12/31/18:00:16.560,(14 6 -3 -5 -15 -2 3 4)
1969/12/31/18:00:16.566,(-16 -3 2 -2 3 1 -1 -7)
1969/12/31/18:00:16.566,(36 27 11 10 25 11 9 8)
1969/12/31/18:00:16.582,(-20 -22 -25 -61 -42 -16 -17 -15)
1969/12/31/18:00:16.582,(1 1 8 43 33 8 7 4)
1969/12/31/18:00:16.584,(-19 -6 15 56 22 4 0 0)
1969/12/31/18:00:16.584,(12 1 6 13 10 7 6 10)
1969/12/31/18:00:16.596,(9 1 0 -16 0 -1 0 3)
1969/12/31/18:00:16.596,(-21 -2 -3 -13 -20 -1 0 -18)
1969/12/31/18:00:16.611,(1 0 -13 -25 -15 -8 -5 5)
1969/12/31/18:00:16.611,(-3 -2 4 -1 4 6 12 8)
1969/12/31/18:00:16.619,(21 3 1 3 0 -1 -4 2)
1969/12/31/18:00:16.619,(-29 -11 -3 -12 -7 -4 -1 -8)
1969/12/31/18:00:16.626,(56 31 1 0 10 6 7 22)
1969/12/31/18:00:16.626,(-10 -10 -11 -6 -12 -11 -9 -6)
1969/12/31/18:00:16.642,(-16 -4 1 6 5 2 -2 -7)
1969/12/31/18:00:16.642,(27 12 3 3 6 5 -1 3)
1969/12/31/18:00:16.644,(-16 -11 1 2 -1 -1 4 -1)
1969/12/31/18:00:16.644,(-16 -13 -12 -23 -17 -7 -9 -10)
1969/12/31/18:00:16.656,(-8 4 10 21 -1 2 6 -1)
1969/12/31/18:00:16.656,(7 0 0 -7 7 -2 -3 1)
1969/12/31/18:00:16.665,(-31 -21 -1 5 -8 -5 -7 -11)
1969/12/31/18:00:16.665,(55 30 6 -1 6 9 17 31)
1969/12/31/18:00:16.679,(-21 -13 -3 20 5 -10 -18 -22)
1969/12/31/18:00:16.679,(0 -1 -2 -8 -6 -2 -3 2)
1969/12/31/18:00:16.686,(11 0 -10 -11 -4 1 5 2)
1969/12/31/18:00:16.686,(-41 -13 7 11 1 -1 -11 -23)
1969/12/31/18:00:16.702,(11 4 1 10 9 1 -1 -2)
1969/12/31/18:00:16.702,(22 14 5 -2 -1 3 0 11)
1969/12/31/18:00:16.704,(-8 -20 -12 -16 -13 -11 -8 -2)
1969/12/31/18:00:16.704,(-54 -37 -9 -7 -6 2 0 -24)
1969/12/31/18:00:16.716,(80 59 17 12 17 17 29 55)
1969/12/31/18:00:16.716,(-23 -17 -19 -44 -26 -16 -19 -20)
1969/12/31/18:00:16.725,(9 13 -6 -32 -17 -2 4 2)
1969/12/31/18:00:16.725,(-10 -10 -3 2 -8 -3 -5 -5)
1969/12/31/18:00:16.739,(-3 4 21 70 39 9 5 -1)
1969/12/31/18:00:16.739,(-17 -12 13 47 30 10 2 -4)
1969/12/31/18:00:16.746,(5 7 3 -8 -1 1 -4 -3)
1969/12/31/18:00:16.746,(18 10 -12 -45 -29 -9 -6 4)
1969/12/31/18:00:16.762,(-15 -13 -7 -15 3 -3 -2 -6)
1969/12/31/18:00:16.762,(-20 -16 -1 10 -1 3 2 -1)
1969/12/31/18:00:16.764,(-5 13 -11 0 -7 -15 -11 -3)
1969/12/31/18:00:16.764,(-21 -12 -3 -11 -10 -8 -22 -44)
1969/12/31/18:00:16.792,(-33 -19 -9 -26 -23 -12 -16 -19)
1969/12/31/18:00:16.792,(-2 -5 -3 8 0 -2 0 0)
1969/12/31/18:00:16.794,(-16 -21 -2 1 3 0 -3 -9)
1969/12/31/18:00:16.794,(30 26 8 -1 -3 4 14 26)
1969/12/31/18:00:16.799,(14 4 -34 -114 -82 -11 4 8)
1969/12/31/18:00:16.799,(-7 -7 3 82 27 -8 -8 -12)
1969/12/31/18:00:16.806,(2 17 74 114 105 38 11 2)
1969/12/31/18:00:16.806,(13 13 5 33 34 14 10 15)
1969/12/31/18:00:16.822,(-13 -23 -15 -34 -1 -8 -5 -8)
1969/12/31/18:00:16.822,(-1 0 -26 -99 -60 -18 -9 1)
1969/12/31/18:00:16.824,(3 -7 -24 -66 -54 -15 0 1)
1969/12/31/18:00:16.824,(-4 -1 12 21 24 12 10 0)
1969/12/31/18:00:16.836,(-5 8 14 31 17 11 10 12)
1969/12/31/18:00:16.836,(20 15 -9 -25 -16 -14 -21 -8)
1969/12/31/18:00:16.845,(-1 -6 -2 16 5 0 -3 -8)
1969/12/31/18:00:16.845,(0 -2 -6 -23 -14 -5 -5 -1)
1969/12/31/18:00:16.859,(-27 -34 -2 23 6 6 6 -9)
1969/12/31/18:00:16.859,(-11 19 22 25 26 16 12 3)
1969/12/31/18:00:16.866,(12 7 -6 -26 -21 -10 -4 4)
1969/12/31/18:00:16.866,(-4 -3 -14 -35 -37 -17 -6 0)
1969/12/31/18:00:16.882,(-14 -15 -2 29 40 4 -7 -15)
1969/12/31/18:00:16.882,(9 2 12 22 19 16 10 9)
1969/12/31/18:00:16.884,(3 4 2 6 -3 5 7 9)
1969/12/31/18:00:16.884,(-11 -12 -14 -41 -18 -9 -6 -4)
1969/12/31/18:00:16.896,(15 15 14 42 10 -2 3 9)
1969/12/31/18:00:16.896,(3 1 6 5 6 1 -3 0)
1969/12/31/18:00:16.905,(-10 -3 -5 10 11 6 10 0)
1969/12/31/18:00:16.905,(-7 -9 3 21 8 -5 -5 4)
1969/12/31/18:00:16.919,(1 8 7 -17 -2 4 4 4)
1969/12/31/18:00:16.919,(0 -8 -23 -39 -25 -14 -11 -6)
1969/12/31/18:00:16.927,(-24 -22 -16 -25 -27 -14 -21 -26)
1969/12/31/18:00:16.927,(6 7 4 6 5 3 5 6)
1969/12/31/18:00:16.942,(-8 -9 -3 -10 -3 -1 -4 -5)
1969/12/31/18:00:16.942,(-18 -11 4 29 9 2 6 -3)
1969/12/31/18:00:16.944,(40 24 15 12 18 12 18 36)
1969/12/31/18:00:16.944,(-18 -17 -11 -13 -7 -9 -12 -16)
1969/12/31/18:00:16.964,(12 10 -18 -40 -56 -19 -6 -2)
1969/12/31/18:00:16.964,(7 3 4 52 11 4 9 7)
1969/12/31/18:00:16.972,(-6 0 35 93 75 28 7 -2)
1969/12/31/18:00:16.972,(-21 -8 19 51 55 23 7 -10)
1969/12/31/18:00:16.978,(43 36 19 -14 8 8 11 32)
1969/12/31/18:00:16.978,(-2 -5 -22 -84 -44 -18 -14 -13)
1969/12/31/18:00:16.988,(-17 -21 -32 -111 -75 -21 -1 -1)
1969/12/31/18:00:16.988,(29 16 -11 -4 -15 -9 5 18)
1969/12/31/18:00:17.002,(-12 -5 14 55 32 7 -3 -10)
1969/12/31/18:00:17.002,(-19 -23 6 17 26 16 16 5)
1969/12/31/18:00:17.004,(24 50 8 9 2 2 4 7)
1969/12/31/18:00:17.004,(-24 -21 -8 -24 -15 -13 -24 -26)
1969/12/31/18:00:17.025,(-6 -8 -14 -54 -22 -8 -6 -5)
1969/12/31/18:00:17.025,(21 13 -5 -1 3 -2 3 13)
1969/12/31/18:00:17.026,(-11 -15 5 48 -8 -1 0 -5)
1969/12/31/18:00:17.026,(12 11 1 -21 5 4 8 13)
1969/12/31/18:00:17.039,(4 10 5 51 20 3 -3 0)
1969/12/31/18:00:17.039,(-12 -10 7 -9 19 3 -5 -7)
1969/12/31/18:00:17.047,(-4 -5 -12 -20 -28 -12 -7 -6)
1969/12/31/18:00:17.047,(7 14 21 85 35 5 1 2)
1969/12/31/18:00:17.062,(-7 -8 8 2 11 8 1 -2)
1969/12/31/18:00:17.062,(-1 2 -16 -109 -35 -1 4 2)
1969/12/31/18:00:17.064,(-10 -12 -19 33 -12 -11 -9 -11)
1969/12/31/18:00:17.064,(19 8 14 23 5 8 13 21)
1969/12/31/18:00:17.085,(2 0 -1 -4 8 -8 -19 -14)
1969/12/31/18:00:17.085,(5 12 3 -5 -10 -3 3 5)
1969/12/31/18:00:17.086,(-8 -6 -11 -37 -2 -2 -5 -8)
1969/12/31/18:00:17.086,(-5 -10 -11 -28 -19 -7 -6 -7)
1969/12/31/18:00:17.099,(-3 3 5 11 1 11 23 10)
1969/12/31/18:00:17.099,(3 -2 0 12 5 -4 -6 1)
1969/12/31/18:00:17.108,(1 -6 0 -12 -16 0 0 1)
1969/12/31/18:00:17.108,(4 4 -8 -59 -34 -7 -1 0)
1969/12/31/18:00:17.122,(-8 -7 -7 -8 3 -4 -4 -6)
1969/12/31/18:00:17.122,(1 4 3 54 24 1 -1 -3)
1969/12/31/18:00:17.124,(4 5 21 56 54 12 6 4)
1969/12/31/18:00:17.124,(-1 2 13 33 11 8 2 -2)
1969/12/31/18:00:17.145,(-6 -1 -3 -41 -25 -3 -6 -9)
1969/12/31/18:00:17.145,(8 3 -8 7 4 -3 -1 6)
1969/12/31/18:00:17.146,(-19 -23 -10 -30 -3 -1 -1 -8)
1969/12/31/18:00:17.146,(0 6 -11 -19 -13 -8 -3 1)
1969/12/31/18:00:17.158,(-8 -13 -5 -8 -10 -9 -5 -6)
1969/12/31/18:00:17.158,(0 8 11 16 6 10 11 10)
1969/12/31/18:00:17.167,(33 30 4 -16 -4 1 5 17)
1969/12/31/18:00:17.167,(-34 -24 -12 -15 -8 -7 -9 -22)
1969/12/31/18:00:17.182,(1 -4 -2 19 2 2 0 2)
1969/12/31/18:00:17.182,(3 2 5 -1 -1 2 0 0)
1969/12/31/18:00:17.184,(1 -2 -1 -9 -6 -5 -4 3)
1969/12/31/18:00:17.184,(9 1 1 10 3 4 9 12)
1969/12/31/18:00:17.205,(2 3 -1 6 14 2 -1 0)
1969/12/31/18:00:17.205,(2 -3 0 10 7 0 -2 -1)
1969/12/31/18:00:17.206,(-3 -4 -4 -29 -11 -3 -4 -3)
1969/12/31/18:00:17.206,(1 3 3 48 9 -3 -2 -2)
1969/12/31/18:00:17.218,(-6 1 11 29 22 0 -4 -3)
1969/12/31/18:00:17.218,(-5 -6 6 9 1 0 0 -4)
1969/12/31/18:00:17.227,(11 11 -5 -25 -2 2 2 -1)
1969/12/31/18:00:17.227,(6 1 -9 -36 -23 -8 -3 3)
1969/12/31/18:00:17.242,(18 0 3 -5 -8 6 9 17)
1969/12/31/18:00:17.242,(1 17 0 -8 -8 -8 -10 -8)
1969/12/31/18:00:17.244,(-24 -20 -4 1 0 -4 -8 -15)
1969/12/31/18:00:17.244,(4 2 -2 -4 -1 -1 -1 0)
1969/12/31/18:00:17.265,(-1 -2 3 14 2 2 2 2)
1969/12/31/18:00:17.265,(8 3 -3 -15 -7 -2 0 3)
1969/12/31/18:00:17.266,(-7 -7 -5 2 -6 -2 -1 -1)
1969/12/31/18:00:17.266,(14 15 -3 -20 -4 -1 4 7)
1969/12/31/18:00:17.279,(-16 -13 1 35 18 0 -8 -10)
1969/12/31/18:00:17.279,(-7 -18 15 50 26 12 10 5)
1969/12/31/18:00:17.288,(16 42 17 35 24 12 10 11)
1969/12/31/18:00:17.288,(-9 -6 -4 -32 -13 -9 -11 -9)
1969/12/31/18:00:17.302,(-6 -1 -9 -33 -20 -3 6 0)
1969/12/31/18:00:17.302,(-29 -41 -17 -19 -21 -12 -11 -18)
1969/12/31/18:00:17.304,(15 18 -3 -17 -6 -8 -7 9)
1969/12/31/18:00:17.304,(-33 -40 -5 13 5 -3 -9 -17)
1969/12/31/18:00:17.325,(12 48 -3 -14 -9 -6 -4 -8)
1969/12/31/18:00:17.325,(-11 -12 -7 -13 -3 -6 -8 -8)
1969/12/31/18:00:17.326,(-8 -15 -3 -2 -9 0 0 -9)
1969/12/31/18:00:17.326,(5 4 -3 -30 -6 1 4 8)
1969/12/31/18:00:17.339,(7 0 5 46 7 0 -2 3)
1969/12/31/18:00:17.339,(8 5 10 11 18 10 7 7)
1969/12/31/18:00:17.347,(-16 -15 1 17 5 -2 -9 -8)
1969/12/31/18:00:17.347,(18 12 4 -5 -2 3 2 6)
1969/12/31/18:00:17.363,(-21 -36 -12 -14 -10 -7 -6 -11)
1969/12/31/18:00:17.363,(5 14 3 10 9 12 15 11)
1969/12/31/18:00:17.364,(7 -4 0 -9 -3 -6 -4 3)
1969/12/31/18:00:17.364,(6 31 1 13 3 3 3 -4)
1969/12/31/18:00:17.385,(14 -3 -3 -25 -12 -9 -12 0)
1969/12/31/18:00:17.385,(-15 -30 -14 -22 -22 -12 -8 -2)
1969/12/31/18:00:17.386,(17 15 -1 12 13 12 12 5)
1969/12/31/18:00:17.386,(-7 -14 16 30 19 11 10 10)
1969/12/31/18:00:17.398,(-37 -25 -6 -17 -9 -4 -1 -10)
1969/12/31/18:00:17.398,(35 47 5 6 1 1 -4 2)
1969/12/31/18:00:17.407,(20 13 -8 -21 3 10 14 23)
1969/12/31/18:00:17.407,(-3 -32 -16 -45 -25 -9 -10 -8)
1969/12/31/18:00:17.422,(15 31 16 67 25 6 0 -11)
1969/12/31/18:00:17.422,(12 32 26 48 27 11 17 25)
1969/12/31/18:00:17.424,(-48 -36 -22 -16 -21 -26 -34 -50)
1969/12/31/18:00:17.424,(6 -7 -6 -31 -5 -2 5 10)
1969/12/31/18:00:17.445,(-2 -4 -5 -18 -15 -3 -2 0)
1969/12/31/18:00:17.445,(-8 -11 -7 10 2 -2 -3 -8)
1969/12/31/18:00:17.446,(12 -13 -3 -26 -13 6 16 21)
1969/12/31/18:00:17.446,(5 20 6 47 3 -1 0 8)
1969/12/31/18:00:17.459,(-26 -10 1 -22 0 -3 -8 -20)
1969/12/31/18:00:17.459,(24 22 3 -6 4 8 8 12)
1969/12/31/18:00:17.473,(-19 -14 -2 12 17 -1 -6 -11)
1969/12/31/18:00:17.473,(0 -15 7 17 0 -2 1 7)
1969/12/31/18:00:17.482,(-25 -28 -15 -73 -30 -5 4 4)
1969/12/31/18:00:17.482,(5 -25 -10 15 -7 -9 -11 -9)
1969/12/31/18:00:17.484,(31 47 11 20 15 5 2 12)
1969/12/31/18:00:17.484,(-34 -6 9 28 16 6 -4 -31)
1969/12/31/18:00:17.512,(2 -42 0 12 6 7 12 20)
1969/12/31/18:00:17.512,(44 56 -1 -51 -26 -8 3 18)
1969/12/31/18:00:17.514,(-41 -49 -29 -56 -6 -13 -19 -30)
1969/12/31/18:00:17.514,(33 35 12 27 -16 7 21 32)
1969/12/31/18:00:17.519,(14 16 21 85 42 10 3 3)
1969/12/31/18:00:17.519,(-27 -29 -6 -35 -18 -4 -5 -13)
1969/12/31/18:00:17.527,(-1 -11 7 -12 -22 -9 -1 2)
1969/12/31/18:00:17.527,(25 27 -8 -5 26 4 0 7)
1969/12/31/18:00:17.542,(19 38 -9 -39 -1 -1 -1 2)
1969/12/31/18:00:17.542,(-31 -46 -8 10 -13 -6 -9 -12)
1969/12/31/18:00:17.544,(1 33 27 63 18 3 -2 6)
1969/12/31/18:00:17.544,(-20 -31 -7 6 2 -6 -10 -21)
1969/12/31/18:00:17.565,(-10 -4 -1 -13 -15 -1 -3 -9)
1969/12/31/18:00:17.565,(13 43 -11 -27 -13 -12 -13 -14)
1969/12/31/18:00:17.566,(4 -25 -8 -52 -10 6 14 20)
1969/12/31/18:00:17.566,(-6 24 0 44 0 3 3 1)
1969/12/31/18:00:17.579,(17 35 17 43 23 10 10 16)
1969/12/31/18:00:17.579,(-4 -27 -5 -3 -6 -10 -10 -4)
1969/12/31/18:00:17.587,(-34 -17 8 23 3 5 -4 -26)
1969/12/31/18:00:17.587,(1 -12 -2 -39 -1 -5 -7 0)
1969/12/31/18:00:17.602,(-1 -16 -10 -21 -5 1 6 7)
1969/12/31/18:00:17.602,(10 25 -13 -33 -36 -7 -3 -2)
1969/12/31/18:00:17.609,(10 7 9 37 20 3 3 1)
1969/12/31/18:00:17.609,(-5 -21 -1 2 12 5 3 -2)
1969/12/31/18:00:17.625,(1 9 5 18 9 -4 -6 -5)
1969/12/31/18:00:17.625,(-19 -26 -3 -41 -14 -2 3 4)
1969/12/31/18:00:17.626,(16 -3 -6 35 7 1 10 17)
1969/12/31/18:00:17.626,(-18 -26 2 10 2 -3 -13 -18)
1969/12/31/18:00:17.638,(19 47 -1 -8 -10 -5 -9 -3)
1969/12/31/18:00:17.638,(8 28 9 -10 6 11 11 -3)
1969/12/31/18:00:17.647,(-23 -37 -13 -25 -17 -13 -15 -13)
1969/12/31/18:00:17.647,(24 23 0 6 4 10 21 29)
1969/12/31/18:00:17.662,(-9 -28 -2 -9 -5 -7 -11 -9)
1969/12/31/18:00:17.662,(-17 -28 -3 12 10 0 -1 -4)
1969/12/31/18:00:17.669,(14 32 12 0 0 10 14 13)
1969/12/31/18:00:17.669,(-31 -28 -3 -1 -3 -2 -5 -15)
1969/12/31/18:00:17.685,(12 1 -2 3 -3 5 8 11)
1969/12/31/18:00:17.685,(15 25 7 27 7 2 3 7)
1969/12/31/18:00:17.686,(-26 14 -6 3 0 -2 -7 -14)
1969/12/31/18:00:17.686,(23 10 -3 -5 5 0 -4 1)
1969/12/31/18:00:17.699,(-1 -4 -4 -25 -13 -4 -5 -4)
1969/12/31/18:00:17.699,(-13 -19 -2 17 2 -14 -15 -14)
1969/12/31/18:00:17.708,(-7 -20 -5 -2 1 1 0 4)
1969/12/31/18:00:17.708,(20 38 0 -29 -9 3 10 12)
1969/12/31/18:00:17.722,(-5 -14 -8 -1 -8 -2 2 2)
1969/12/31/18:00:17.722,(-29 -19 5 26 18 1 -7 -13)
1969/12/31/18:00:17.728,(29 28 8 0 -2 1 7 17)
1969/12/31/18:00:17.728,(-24 1 -3 -11 -10 -12 -21 -26)
1969/12/31/18:00:17.745,(69 23 3 0 7 17 36 58)
1969/12/31/18:00:17.745,(-54 -44 -11 -9 -3 -6 -17 -31)
1969/12/31/18:00:17.746,(35 -6 -2 -3 -5 4 10 22)
1969/12/31/18:00:17.746,(5 11 1 -8 -6 -8 -10 -12)
1969/12/31/18:00:17.759,(-15 -6 -5 -7 -4 -7 -9 -9)
1969/12/31/18:00:17.759,(8 12 5 -2 -3 -2 -2 1)
1969/12/31/18:00:17.767,(-12 -22 2 15 6 -3 -2 -4)
1969/12/31/18:00:17.767,(-14 -41 -1 -3 -17 -2 0 5)
1969/12/31/18:00:17.782,(-4 16 13 57 38 10 2 -12)
1969/12/31/18:00:17.782,(35 30 1 1 11 8 11 18)
1969/12/31/18:00:17.789,(-44 -47 -12 -28 -20 -14 -26 -35)
1969/12/31/18:00:17.789,(20 49 3 -20 -4 0 9 4)
1969/12/31/18:00:17.805,(36 25 8 1 -3 6 20 37)
1969/12/31/18:00:17.805,(-29 -24 -10 -11 -8 -2 -10 -22)
1969/12/31/18:00:17.806,(26 31 8 1 5 6 10 11)
1969/12/31/18:00:17.806,(-7 -6 -2 4 0 -3 -1 -1)
1969/12/31/18:00:17.819,(-14 -22 -5 -19 -12 -8 -10 -7)
1969/12/31/18:00:17.819,(1 -5 -2 16 12 6 3 -1)
1969/12/31/18:00:17.827,(4 11 -2 -18 -8 -3 -1 -1)
1969/12/31/18:00:17.827,(5 -7 -4 -10 -4 4 1 5)
1969/12/31/18:00:17.842,(-38 -24 -5 7 -13 -15 -22 -31)
1969/12/31/18:00:17.842,(11 -1 10 25 21 9 12 20)
1969/12/31/18:00:17.848,(12 17 5 9 8 6 6 1)
1969/12/31/18:00:17.848,(-25 -18 -1 7 6 1 -3 -17)
1969/12/31/18:00:17.865,(15 7 0 -19 -4 4 8 17)
1969/12/31/18:00:17.865,(6 2 -2 -9 -7 -2 1 5)
1969/12/31/18:00:17.866,(8 -4 -5 5 1 2 5 9)
1969/12/31/18:00:17.866,(-9 -7 0 0 -1 -4 -5 -7)
1969/12/31/18:00:17.887,(-11 -11 -7 -11 -4 0 -2 -5)
1969/12/31/18:00:17.887,(19 22 4 5 4 5 7 6)
1969/12/31/18:00:17.889,(-15 -3 -1 -5 -7 -5 -6 -5)
1969/12/31/18:00:17.889,(2 -26 0 9 9 3 4 9)
1969/12/31/18:00:17.901,(7 31 1 -2 1 5 4 -9)
1969/12/31/18:00:17.901,(4 -3 5 2 -1 -1 0 4)
1969/12/31/18:00:17.910,(-12 -1 -3 -3 -5 -6 -8 -14)
1969/12/31/18:00:17.910,(10 7 0 4 3 2 7 11)
1969/12/31/18:00:17.925,(-18 -18 -2 1 2 -2 -7 -5)
1969/12/31/18:00:17.925,(-8 -4 -1 -6 -4 -1 -1 -8)
1969/12/31/18:00:17.926,(-3 -6 -5 -2 -5 -5 -2 -2)
1969/12/31/18:00:17.926,(-4 2 -4 1 5 -1 -2 -2)
1969/12/31/18:00:17.948,(24 15 9 -3 -4 0 3 10)
1969/12/31/18:00:17.948,(4 6 1 -4 -4 -2 -2 4)
1969/12/31/18:00:17.949,(-3 -2 -1 1 -1 -2 -4 -7)
1969/12/31/18:00:17.949,(-1 -2 -4 3 17 -4 -4 0)
1969/12/31/18:00:17.961,(-18 -10 -2 -4 -22 -8 -10 -16)
1969/12/31/18:00:17.961,(-8 -21 -3 -1 -1 -2 0 3)
1969/12/31/18:00:17.970,(4 3 5 2 7 10 9 4)
1969/12/31/18:00:17.970,(-23 -19 -5 -6 -1 0 -4 -12)
1969/12/31/18:00:17.985,(37 32 -3 -4 5 -1 -2 7)
1969/12/31/18:00:17.985,(-16 -1 -2 0 -7 -7 -7 -6)
1969/12/31/18:00:17.986,(24 7 -2 -7 -3 3 10 20)
1969/12/31/18:00:17.986,(-23 -25 -9 -1 -7 -8 -13 -15)
1969/12/31/18:00:18.008,(-14 -17 -1 -7 0 4 3 -7)
1969/12/31/18:00:18.008,(2 4 -1 -3 -3 -2 -2 -2)
1969/12/31/18:00:18.009,(5 -5 9 15 12 3 1 7)
1969/12/31/18:00:18.009,(71 95 10 7 2 7 12 29)
1969/12/31/18:00:18.021,(-47 -44 -7 -1 -3 -12 -21 -35)
1969/12/31/18:00:18.021,(18 16 3 -8 -1 2 5 8)
1969/12/31/18:00:18.030,(-14 -8 -4 -5 -4 -6 -11 -13)
1969/12/31/18:00:18.030,(-2 -11 0 3 -1 -1 3 4)
1969/12/31/18:00:18.045,(-3 -1 -4 -7 -3 -2 3 6)
1969/12/31/18:00:18.045,(-7 -3 -5 -4 2 2 -1 -10)
1969/12/31/18:00:18.046,(-9 -1 -3 0 -1 -3 -4 -9)
1969/12/31/18:00:18.046,(-12 -13 -2 1 -4 -3 -1 0)
1969/12/31/18:00:18.067,(-11 -27 -1 0 3 -2 -6 -14)
1969/12/31/18:00:18.067,(-3 -7 -9 3 1 0 7 11)
1969/12/31/18:00:18.069,(-4 -1 -5 -9 -6 -7 -13 -20)
1969/12/31/18:00:18.069,(-14 -17 -1 0 -2 -3 -5 -8)
1969/12/31/18:00:18.081,(11 11 -1 2 1 -1 3 6)
1969/12/31/18:00:18.081,(-9 -14 0 -1 0 2 1 -3)
1969/12/31/18:00:18.090,(11 11 1 -3 -1 6 10 12)
1969/12/31/18:00:18.090,(5 4 6 4 0 2 1 2)
1969/12/31/18:00:18.105,(-19 -13 -2 5 2 -3 -4 -6)
1969/12/31/18:00:18.105,(17 11 3 3 4 5 5 9)
1969/12/31/18:00:18.106,(-11 -14 -10 -6 -5 -7 -3 -1)
1969/12/31/18:00:18.107,(11 21 5 -13 -4 5 7 -2)
1969/12/31/18:00:18.127,(10 8 0 6 9 3 7 12)
1969/12/31/18:00:18.127,(1 -4 3 0 -2 -3 -3 3)
1969/12/31/18:00:18.129,(13 21 0 6 1 -2 0 5)
1969/12/31/18:00:18.129,(-8 -13 2 10 4 4 5 1)
1969/12/31/18:00:18.141,(0 8 -2 -6 -6 -4 -4 -4)
1969/12/31/18:00:18.141,(-9 -11 -7 -6 -3 -3 -2 -3)
1969/12/31/18:00:18.150,(6 7 0 -2 3 5 3 4)
1969/12/31/18:00:18.150,(-47 -54 -7 -1 -6 -8 -14 -19)
1969/12/31/18:00:18.165,(42 43 13 2 3 9 15 17)
1969/12/31/18:00:18.165,(16 5 -2 0 -6 -10 -15 3)
1969/12/31/18:00:18.166,(-11 -6 -2 -5 -6 -9 -12 -16)
1969/12/31/18:00:18.166,(2 0 -4 -6 -7 -2 0 -1)
1969/12/31/18:00:18.187,(-11 -14 1 10 8 -1 0 1)
1969/12/31/18:00:18.187,(-3 1 3 5 4 0 1 -1)
1969/12/31/18:00:18.189,(20 19 7 6 4 5 10 16)
1969/12/31/18:00:18.189,(-6 -7 -1 -1 19 6 6 4)
1969/12/31/18:00:18.201,(-18 -20 -12 -11 -20 -7 -8 -11)
1969/12/31/18:00:18.201,(10 18 11 8 6 7 10 6)
1969/12/31/18:00:18.210,(4 16 -1 -2 -1 -3 -3 -4)
1969/12/31/18:00:18.210,(27 8 8 3 3 7 16 28)
1969/12/31/18:00:18.225,(-1 0 -4 0 3 5 2 -2)
1969/12/31/18:00:18.225,(-15 -21 0 1 0 3 -2 -4)
1969/12/31/18:00:18.226,(8 6 0 -5 -4 0 4 6)
1969/12/31/18:00:18.226,(11 21 0 4 -2 -3 -5 -1)
1969/12/31/18:00:18.247,(0 -1 0 4 0 -4 -6 -2)
1969/12/31/18:00:18.247,(-4 3 -2 -5 -4 -1 1 -3)
1969/12/31/18:00:18.249,(-21 -22 0 4 5 4 0 -12)
1969/12/31/18:00:18.249,(14 13 -1 -6 -3 5 7 9)
1969/12/31/18:00:18.261,(-13 -20 -1 -2 -1 -4 -3 -3)
1969/12/31/18:00:18.261,(22 36 5 12 10 7 7 9)
1969/12/31/18:00:18.270,(-7 -8 -5 -4 -7 -7 -8 -2)
1969/12/31/18:00:18.270,(-1 -5 -2 -2 -15 -9 -10 -6)
1969/12/31/18:00:18.285,(-39 -27 4 8 3 9 6 -11)
1969/12/31/18:00:18.285,(6 -5 -7 -6 2 0 -1 1)
1969/12/31/18:00:18.287,(23 13 1 5 3 2 7 13)
1969/12/31/18:00:18.287,(14 14 3 -2 1 -3 -8 -4)
1969/12/31/18:00:18.307,(-17 -11 -7 -4 0 -3 -5 -13)
1969/12/31/18:00:18.307,(-4 -6 -1 -16 -16 -2 -1 -7)
1969/12/31/18:00:18.309,(-5 -7 -1 12 3 1 0 -2)
1969/12/31/18:00:18.309,(-12 -7 -2 7 9 -3 -10 -12)
1969/12/31/18:00:18.321,(20 17 3 -4 -10 2 7 14)
1969/12/31/18:00:18.321,(-3 0 4 15 12 4 1 -1)
1969/12/31/18:00:18.330,(-12 -10 -3 0 -5 -6 -5 -6)
1969/12/31/18:00:18.330,(-2 2 1 9 13 5 5 1)
1969/12/31/18:00:18.345,(-4 -6 4 -4 1 2 3 3)
1969/12/31/18:00:18.345,(18 10 -5 -14 -12 -6 1 8)
1969/12/31/18:00:18.346,(-30 -29 -8 -10 -4 -7 -15 -24)
1969/12/31/18:00:18.346,(-2 -8 -6 -8 -14 -12 -8 -2)
1969/12/31/18:00:18.367,(-1 5 -8 5 11 -1 -5 -6)
1969/12/31/18:00:18.367,(2 2 -4 -29 -13 0 4 4)
1969/12/31/18:00:18.369,(0 -8 2 13 0 2 3 7)
1969/12/31/18:00:18.369,(7 7 12 28 12 0 2 2)
1969/12/31/18:00:18.381,(-1 2 1 5 -1 -2 -5 -6)
1969/12/31/18:00:18.381,(-17 -16 -5 -1 12 -4 -6 -12)
1969/12/31/18:00:18.390,(11 15 3 -12 -14 3 6 11)
1969/12/31/18:00:18.390,(3 -4 -8 -16 -9 2 4 2)
1969/12/31/18:00:18.405,(4 26 3 14 9 -3 -4 -2)
1969/12/31/18:00:18.405,(18 21 6 6 10 10 9 11)
1969/12/31/18:00:18.407,(-10 -14 -7 -13 -4 -2 -1 -6)
1969/12/31/18:00:18.407,(-9 -4 -6 -7 -13 -7 -4 -7)
1969/12/31/18:00:18.427,(6 4 -1 -8 -3 -6 -5 4)
1969/12/31/18:00:18.428,(-19 -22 -1 6 0 4 10 10)
1969/12/31/18:00:18.429,(-7 -8 -9 -4 -2 -3 -15 -25)
1969/12/31/18:00:18.429,(3 -3 4 2 3 4 3 6)
1969/12/31/18:00:18.441,(-7 -13 -12 -29 -24 -9 -10 -11)
1969/12/31/18:00:18.441,(-16 -18 -3 9 0 -9 -9 -9)
1969/12/31/18:00:18.456,(18 25 14 3 0 4 13 15)
1969/12/31/18:00:18.456,(-1 3 -3 4 3 -2 0 -3)
1969/12/31/18:00:18.465,(-2 -12 3 25 12 4 0 2)
1969/12/31/18:00:18.465,(-3 2 7 14 8 2 -6 -9)
1969/12/31/18:00:18.467,(-21 -32 -3 0 0 -5 -5 -3)
1969/12/31/18:00:18.467,(12 23 9 -7 1 12 14 1)
1969/12/31/18:00:18.487,(0 -5 -10 -20 -10 -6 -7 -6)
1969/12/31/18:00:18.487,(-7 -3 -7 0 -8 -6 -7 -11)
1969/12/31/18:00:18.489,(0 2 3 3 7 1 -4 1)
1969/12/31/18:00:18.489,(-16 -12 -5 -9 -14 -9 -10 -6)
1969/12/31/18:00:18.501,(14 -8 -1 0 -6 -2 9 23)
1969/12/31/18:00:18.501,(-22 -9 1 3 4 4 -4 -22)
1969/12/31/18:00:18.510,(10 1 -8 -13 -9 -5 -5 -4)
1969/12/31/18:00:18.510,(-17 -12 -10 -11 -11 -7 -9 -12)
1969/12/31/18:00:18.524,(6 2 4 4 12 5 4 7)
1969/12/31/18:00:18.524,(-2 -6 -11 -8 -28 -6 -3 2)
1969/12/31/18:00:18.531,(6 14 13 41 32 7 8 7)
1969/12/31/18:00:18.531,(-10 -21 7 25 23 2 -4 -3)
1969/12/31/18:00:18.547,(16 26 2 4 9 5 3 -3)
1969/12/31/18:00:18.547,(0 -1 0 -19 -8 1 4 6)
1969/12/31/18:00:18.549,(11 14 -5 -20 -13 -2 2 4)
1969/12/31/18:00:18.549,(-7 -9 -4 -5 -13 -7 -10 -13)
1969/12/31/18:00:18.561,(-27 -28 -5 -4 -3 3 5 -6)
1969/12/31/18:00:18.561,(10 12 4 0 4 0 -4 0)
1969/12/31/18:00:18.570,(-4 -15 -10 -4 -6 -3 -3 0)
1969/12/31/18:00:18.570,(23 37 8 -5 5 4 10 13)
1969/12/31/18:00:18.584,(4 -2 -11 -25 -14 -2 4 4)
1969/12/31/18:00:18.584,(5 3 6 33 3 -3 -3 0)
1969/12/31/18:00:18.599,(-8 1 13 25 29 6 0 -2)
1969/12/31/18:00:18.599,(6 5 -2 1 8 5 3 5)
1969/12/31/18:00:18.607,(6 11 1 -4 14 4 0 1)
1969/12/31/18:00:18.607,(1 -7 -3 -13 -20 -6 -1 1)
1969/12/31/18:00:18.609,(8 9 -3 -7 -7 -4 1 6)
1969/12/31/18:00:18.609,(-9 -7 -5 -18 -13 -1 0 -5)
1969/12/31/18:00:18.621,(1 1 -2 -13 -16 -6 -3 -4)
1969/12/31/18:00:18.621,(-1 -3 2 21 14 1 1 1)
1969/12/31/18:00:18.630,(-2 3 5 15 15 5 0 -1)
1969/12/31/18:00:18.630,(4 -9 -6 -8 -8 -4 -1 7)
1969/12/31/18:00:18.644,(28 55 15 9 9 7 8 15)
1969/12/31/18:00:18.644,(-1 -4 -8 -13 -6 -2 -2 1)
1969/12/31/18:00:18.651,(-26 -22 -1 -9 -16 -7 -8 -13)
1969/12/31/18:00:18.651,(52 56 11 9 12 8 13 20)
1969/12/31/18:00:18.667,(-5 -11 -1 5 -2 3 3 4)
1969/12/31/18:00:18.667,(9 9 4 -2 7 0 3 7)
1969/12/31/18:00:18.669,(4 6 -11 -33 -24 -9 -2 -1)
1969/12/31/18:00:18.669,(-22 -22 -2 12 -3 -5 -6 -9)
1969/12/31/18:00:18.681,(-8 -12 5 26 25 1 -1 -1)
1969/12/31/18:00:18.681,(-15 -14 9 12 17 16 8 -4)
1969/12/31/18:00:18.690,(25 35 -5 -11 -8 -2 1 12)
1969/12/31/18:00:18.690,(10 7 -3 -10 -8 -4 -8 -8)
1969/12/31/18:00:18.705,(-15 -14 -2 -4 -12 -6 -6 -13)
1969/12/31/18:00:18.705,(0 -8 -2 -4 2 -2 0 1)
1969/12/31/18:00:18.706,(-8 -10 0 0 -2 1 -1 -1)
1969/12/31/18:00:18.706,(-8 -7 -6 -9 -17 -3 -3 0)
1969/12/31/18:00:18.727,(8 5 1 4 -3 -3 2 5)
1969/12/31/18:00:18.727,(6 14 -1 12 21 -3 -7 -2)
1969/12/31/18:00:18.729,(-4 -3 5 8 5 7 2 -3)
1969/12/31/18:00:18.729,(4 6 -1 5 10 3 4 5)
1969/12/31/18:00:18.741,(-9 -17 -2 -10 -10 -3 -4 -6)
1969/12/31/18:00:18.741,(0 1 -4 -17 -15 -4 0 0)
1969/12/31/18:00:18.750,(4 3 -2 -7 4 -2 0 -1)
1969/12/31/18:00:18.750,(-13 -15 -2 2 -7 -3 -5 -4)
1969/12/31/18:00:18.764,(0 1 -1 -1 8 -1 -2 3)
1969/12/31/18:00:18.764,(-1 -1 5 17 5 4 0 -3)
1969/12/31/18:00:18.771,(14 14 5 7 7 6 8 9)
1969/12/31/18:00:18.771,(-31 -32 -9 -14 -3 0 0 -5)
1969/12/31/18:00:18.788,(21 27 4 -1 -13 -4 -7 -1)
1969/12/31/18:00:18.788,(-37 -29 -13 -7 -5 -12 -21 -36)
1969/12/31/18:00:18.789,(19 19 11 6 7 8 10 10)
1969/12/31/18:00:18.789,(-16 -22 -3 -2 -6 -8 -4 -3)
1969/12/31/18:00:18.801,(13 10 -6 1 8 3 0 4)
1969/12/31/18:00:18.801,(6 -2 -4 -11 -7 -2 -1 3)
1969/12/31/18:00:18.810,(-6 -4 -2 -1 -6 -4 -2 -3)
1969/12/31/18:00:18.810,(-10 -9 -1 1 5 -2 -3 -7)
1969/12/31/18:00:18.824,(-20 -21 -1 4 -1 -1 -3 -8)
1969/12/31/18:00:18.824,(38 54 6 -4 1 6 13 24)
1969/12/31/18:00:18.831,(-12 -16 2 1 -5 -3 -8 -8)
1969/12/31/18:00:18.831,(13 16 2 5 11 3 4 2)
1969/12/31/18:00:18.847,(6 -6 -6 -8 -7 -9 -2 8)
1969/12/31/18:00:18.847,(-13 -10 -2 -4 -2 7 6 -4)
1969/12/31/18:00:18.849,(-10 -12 -6 -16 5 -2 0 -1)
1969/12/31/18:00:18.849,(14 13 5 14 -6 4 9 12)
1969/12/31/18:00:18.870,(-9 -9 1 10 -1 -7 -12 -11)
1969/12/31/18:00:18.870,(-3 -5 2 -6 -1 -3 -4 -3)
1969/12/31/18:00:18.871,(-2 -1 -4 9 6 1 0 0)
1969/12/31/18:00:18.871,(-1 -4 -5 -22 -7 -1 -2 -2)
1969/12/31/18:00:18.883,(0 0 0 10 4 1 5 -1)
1969/12/31/18:00:18.883,(2 -3 2 7 5 0 0 3)
1969/12/31/18:00:18.892,(-5 -4 -2 -18 -6 3 0 -3)
1969/12/31/18:00:18.892,(6 8 2 15 2 -1 -1 2)
1969/12/31/18:00:18.907,(-10 -2 7 14 -1 -1 -3 -7)
1969/12/31/18:00:18.907,(0 -4 -2 -4 0 -1 1 1)
1969/12/31/18:00:18.909,(-3 -5 -3 -3 -4 -4 -4 -4)
1969/12/31/18:00:18.909,(9 1 -3 -15 -3 5 5 6)
1969/12/31/18:00:18.930,(0 0 -7 -14 -4 3 5 4)
1969/12/31/18:00:18.930,(-5 -5 1 6 -6 -7 -6 -3)
1969/12/31/18:00:18.931,(1 2 9 5 -1 2 5 1)
1969/12/31/18:00:18.931,(2 3 -6 -56 -16 -4 0 -1)
1969/12/31/18:00:18.944,(-2 0 6 62 23 3 0 -1)
1969/12/31/18:00:18.944,(1 -1 1 8 14 -3 -5 -2)
1969/12/31/18:00:18.952,(-10 -10 -5 14 5 -2 -6 -8)
1969/12/31/18:00:18.953,(-2 2 18 -13 -17 4 1 -1)
1969/12/31/18:00:18.967,(-2 1 -15 -21 7 -3 -1 -1)
1969/12/31/18:00:18.967,(15 3 -14 -104 -39 -5 6 12)
1969/12/31/18:00:18.969,(-2 -3 -8 69 -13 -8 -3 -1)
1969/12/31/18:00:18.969,(-3 -2 2 71 36 5 0 -1)
1969/12/31/18:00:18.990,(-16 -3 44 30 17 12 1 -9)
1969/12/31/18:00:18.990,(10 14 -5 -5 -3 3 4 8)
1969/12/31/18:00:18.991,(-1 -11 -30 -61 -13 -14 -9 -2)
1969/12/31/18:00:18.991,(-18 -20 -19 -37 -28 -16 -9 -11)
1969/12/31/18:00:19.004,(4 4 0 -7 -16 -3 1 3)
1969/12/31/18:00:19.004,(-2 4 22 20 14 13 7 1)
1969/12/31/18:00:19.013,(12 18 29 8 4 15 11 10)
1969/12/31/18:00:19.013,(8 6 -6 41 16 5 1 4)
1969/12/31/18:00:19.027,(4 2 -2 -31 -14 -8 -2 1)
1969/12/31/18:00:19.027,(-9 -8 -9 4 -7 -6 -6 -7)
1969/12/31/18:00:19.029,(-3 -14 -28 -7 0 -11 -8 -4)
1969/12/31/18:00:19.029,(-16 -15 -14 -5 15 -6 -9 -11)
1969/12/31/18:00:19.050,(-1 0 13 4 -8 4 4 1)
1969/12/31/18:00:19.050,(4 6 13 15 2 3 5 2)
1969/12/31/18:00:19.051,(5 9 7 23 2 3 3 3)
1969/12/31/18:00:19.051,(4 1 2 -10 11 10 2 2)
1969/12/31/18:00:19.063,(0 -3 -17 -60 -29 -11 -4 1)
1969/12/31/18:00:19.063,(-5 -8 1 56 6 -4 -5 -3)
1969/12/31/18:00:19.072,(-3 2 17 25 28 1 -3 -4)
1969/12/31/18:00:19.072,(2 6 9 10 10 13 4 1)
1969/12/31/18:00:19.087,(3 -4 -21 -10 8 1 -1 0)
1969/12/31/18:00:19.087,(0 -1 -5 -20 -15 -1 1 3)
1969/12/31/18:00:19.089,(-1 -1 0 -24 -14 -2 3 1)
1969/12/31/18:00:19.089,(6 11 18 13 -8 -2 1 2)
1969/12/31/18:00:19.110,(2 -5 -8 -3 -5 -6 -4 -2)
1969/12/31/18:00:19.110,(-5 -13 -20 -8 -2 -6 -4 -2)
1969/12/31/18:00:19.111,(-8 -6 -10 -55 -16 0 -1 -5)
1969/12/31/18:00:19.111,(1 3 8 41 15 2 2 2)
1969/12/31/18:00:19.123,(4 6 18 24 15 10 6 2)
1969/12/31/18:00:19.123,(0 1 -3 6 2 -1 -3 -2)
1969/12/31/18:00:19.132,(1 -5 -9 -13 -4 -2 -2 0)
1969/12/31/18:00:19.132,(-5 5 17 1 -5 -3 -2 -3)
1969/12/31/18:00:19.146,(3 1 -21 7 12 6 2 1)
1969/12/31/18:00:19.146,(-5 -13 -5 -11 -2 -2 -2 0)
1969/12/31/18:00:19.147,(-9 -1 -2 -3 -14 -5 -5 -5)
1969/12/31/18:00:19.147,(4 -2 -8 -16 0 -9 -3 2)
1969/12/31/18:00:19.169,(-4 4 15 13 0 2 0 -2)
1969/12/31/18:00:19.169,(7 8 -1 19 10 5 -1 1)
1969/12/31/18:00:19.170,(4 -3 0 -6 8 5 4 6)
1969/12/31/18:00:19.170,(-4 0 1 -2 -7 -3 -4 -4)
1969/12/31/18:00:19.192,(-3 -10 -14 -9 -3 -6 -3 -1)
1969/12/31/18:00:19.192,(-3 3 7 -30 -20 -6 -1 -1)
1969/12/31/18:00:19.192,(2 4 8 26 -6 2 2 1)
1969/12/31/18:00:19.192,(2 3 -4 12 29 8 2 2)
1969/12/31/18:00:19.206,(-7 -7 6 7 7 0 -2 -5)
1969/12/31/18:00:19.206,(-1 7 16 -8 -7 -1 1 -3)
1969/12/31/18:00:19.207,(8 -2 -7 35 5 -4 -2 4)
1969/12/31/18:00:19.207,(-16 -12 -2 -33 -10 -4 -4 -9)
1969/12/31/18:00:19.229,(1 5 -11 -19 -10 -2 -2 0)
1969/12/31/18:00:19.229,(2 -4 -6 -4 -2 -6 -2 0)
1969/12/31/18:00:19.230,(-7 2 12 21 3 0 -2 -7)
1969/12/31/18:00:19.230,(11 4 -4 8 4 5 6 6)
1969/12/31/18:00:19.252,(0 -1 -4 -18 -3 0 0 0)
1969/12/31/18:00:19.252,(0 2 -3 1 -10 2 1 -1)
1969/12/31/18:00:19.252,(0 -3 -2 -6 20 12 6 -1)
1969/12/31/18:00:19.252,(3 1 -5 32 -4 -12 -2 7)
1969/12/31/18:00:19.267,(-9 -7 -2 -18 -8 -8 -8 -6)
1969/12/31/18:00:19.267,(-4 -5 -4 -9 -1 7 5 -2)
1969/12/31/18:00:19.267,(-3 -1 16 19 6 -9 -8 -2)
1969/12/31/18:00:19.267,(-8 -2 -1 -24 -14 -8 -5 -8)
1969/12/31/18:00:19.289,(5 -1 -11 -4 -4 1 1 3)
1969/12/31/18:00:19.289,(-5 -5 -11 2 1 2 1 -1)
1969/12/31/18:00:19.290,(6 -1 -13 -12 -1 1 3 3)
1969/12/31/18:00:19.290,(0 0 5 3 0 2 0 -3)
1969/12/31/18:00:19.312,(1 0 -6 -16 -8 -2 -1 0)
1969/12/31/18:00:19.312,(3 2 6 38 16 2 1 2)
1969/12/31/18:00:19.313,(-4 0 1 -21 -10 2 4 -2)
1969/12/31/18:00:19.313,(6 7 4 -3 -13 -6 1 5)
1969/12/31/18:00:19.327,(0 1 -1 10 4 3 2 -2)
1969/12/31/18:00:19.327,(4 1 14 33 28 11 4 5)
1969/12/31/18:00:19.328,(-3 -3 -9 -29 -5 -3 -2 0)
1969/12/31/18:00:19.328,(1 -3 -5 -3 0 2 0 -1)
1969/12/31/18:00:19.349,(-10 -5 4 2 -7 -5 -7 -9)
1969/12/31/18:00:19.349,(10 5 -18 -6 -10 -5 2 7)
1969/12/31/18:00:19.350,(5 6 5 -1 4 6 4 3)
1969/12/31/18:00:19.350,(4 -4 -9 -8 0 3 -1 1)
1969/12/31/18:00:19.372,(-1 1 5 7 7 2 -1 -2)
1969/12/31/18:00:19.372,(0 1 1 -4 -3 -4 -4 -3)
1969/12/31/18:00:19.373,(-7 -3 7 1 -7 -2 -4 -3)
1969/12/31/18:00:19.373,(1 -2 -10 -12 11 5 0 -1)
1969/12/31/18:00:19.388,(-1 0 0 12 0 2 0 1)
1969/12/31/18:00:19.388,(-5 -8 -12 -12 1 -4 -6 -7)
1969/12/31/18:00:19.389,(6 6 14 17 11 7 5 4)
1969/12/31/18:00:19.389,(-5 -3 0 -5 -11 -4 -2 -3)
1969/12/31/18:00:19.409,(5 4 2 7 -2 -2 1 5)
1969/12/31/18:00:19.409,(-6 -1 5 3 10 1 -2 -4)
1969/12/31/18:00:19.410,(-8 -8 -10 -16 -12 -9 -8 -8)
1969/12/31/18:00:19.410,(-4 -4 -7 -11 -3 -3 -3 -4)
1969/12/31/18:00:19.433,(4 1 0 -4 -10 -2 2 2)
1969/12/31/18:00:19.433,(1 2 3 11 2 1 0 1)
1969/12/31/18:00:19.433,(2 2 6 13 8 0 -1 -1)
1969/12/31/18:00:19.433,(-2 1 5 5 0 0 0 -2)
1969/12/31/18:00:19.455,(-3 -7 -10 -12 9 3 0 -2)
1969/12/31/18:00:19.455,(-1 0 1 -13 -10 -3 -3 -1)
1969/12/31/18:00:19.456,(1 1 -1 8 0 1 0 3)
1969/12/31/18:00:19.456,(-3 -4 -13 -20 -18 -6 -2 -3)
1969/12/31/18:00:19.469,(1 1 4 -13 -5 2 3 -1)
1969/12/31/18:00:19.469,(0 3 9 29 13 5 1 1)
1969/12/31/18:00:19.470,(2 0 -1 4 8 4 1 0)
1969/12/31/18:00:19.470,(-2 -1 5 8 4 1 -2 0)
1969/12/31/18:00:19.493,(-1 -3 -5 -8 -9 -4 0 -1)
1969/12/31/18:00:19.493,(-5 -6 -10 -22 -14 -7 -3 -5)
1969/12/31/18:00:19.493,(3 3 -4 4 3 0 1 2)
1969/12/31/18:00:19.493,(-1 -3 -1 -1 -3 1 -1 -1)
1969/12/31/18:00:19.507,(0 2 9 9 3 0 1 3)
1969/12/31/18:00:19.507,(1 4 3 -1 8 4 0 -1)
1969/12/31/18:00:19.507,(-3 -2 -3 -2 -2 -2 -1 -4)
1969/12/31/18:00:19.507,(-1 -1 -1 3 1 -1 -1 0)
1969/12/31/18:00:19.529,(0 -1 -3 4 2 -1 -1 0)
1969/12/31/18:00:19.529,(-1 -2 -2 -5 -6 -4 -4 -1)
1969/12/31/18:00:19.530,(1 0 -3 -6 -4 1 2 0)
1969/12/31/18:00:19.530,(1 2 4 10 7 2 2 2)
1969/12/31/18:00:19.553,(0 0 0 1 -4 -3 -3 -2)
1969/12/31/18:00:19.553,(-2 0 -1 -4 -2 -1 -1 0)
1969/12/31/18:00:19.553,(-1 -1 0 -4 -3 -1 -2 -1)
1969/12/31/18:00:19.553,(-2 -4 -3 -5 -8 -2 0 0)
1969/12/31/18:00:19.567,(-1 2 -3 0 -1 -2 -4 -1)
1969/12/31/18:00:19.567,(3 2 5 7 7 2 1 2)
1969/12/31/18:00:19.568,(-3 -2 0 -6 -4 -3 0 2)
1969/12/31/18:00:19.568,(2 1 0 5 5 -1 -2 -2)
1969/12/31/18:00:19.591,(-2 -1 -2 -7 -5 -1 1 0)
1969/12/31/18:00:19.591,(-1 -2 -8 -2 -7 -3 -2 -2)
1969/12/31/18:00:19.591,(-4 -2 7 5 6 3 0 -3)
1969/12/31/18:00:19.591,(-2 1 3 -1 -2 0 -1 2)
1969/12/31/18:00:19.603,(0 -1 1 8 6 2 0 -1)
1969/12/31/18:00:19.603,(-3 -2 -3 -12 -5 -4 -1 -2)
1969/12/31/18:00:19.612,(2 1 -7 -5 -6 -3 0 2)
1969/12/31/18:00:19.612,(1 -1 1 4 1 2 -2 -2)
1969/12/31/18:00:19.626,(1 -2 -1 0 -1 0 3 2)
1969/12/31/18:00:19.626,(0 1 1 1 0 0 0 -1)
1969/12/31/18:00:19.627,(0 -2 -2 -2 -2 0 0 -2)
1969/12/31/18:00:19.627,(0 0 -1 0 1 1 0 0)
1969/12/31/18:00:19.649,(-1 -3 -3 2 1 0 -2 -1)
1969/12/31/18:00:19.649,(-2 -4 -3 -6 -6 0 1 -1)
1969/12/31/18:00:19.650,(0 1 1 7 6 2 0 2)
1969/12/31/18:00:19.650,(0 3 1 -6 -1 -2 0 0)
1969/12/31/18:00:19.664,(0 -1 0 7 2 1 0 -1)
1969/12/31/18:00:19.664,(-3 -1 0 -2 1 -1 -1 -1)
1969/12/31/18:00:19.672,(-2 -2 -4 -5 -6 -2 -1 -3)
1969/12/31/18:00:19.672,(1 0 -3 0 -2 -2 0 -1)
1969/12/31/18:00:19.687,(3 -1 -4 -1 -1 1 2 4)
1969/12/31/18:00:19.687,(2 0 3 4 1 1 -2 -1)
1969/12/31/18:00:19.688,(-7 -5 0 -3 -2 -2 -3 -4)
1969/12/31/18:00:19.688,(-2 0 1 0 -2 -2 0 -1)
1969/12/31/18:00:19.709,(-2 1 1 -1 -2 -4 -2 -3)
1969/12/31/18:00:19.709,(0 1 -3 -2 -3 -1 1 0)
1969/12/31/18:00:19.710,(3 2 -1 0 -3 0 1 1)
1969/12/31/18:00:19.710,(0 -1 -1 1 2 0 0 0)
1969/12/31/18:00:19.726,(-2 -1 0 1 0 1 -2 -2)
1969/12/31/18:00:19.726,(1 1 -1 0 0 -2 0 0)
1969/12/31/18:00:19.732,(-2 0 1 -1 -2 -3 -2 -2)
1969/12/31/18:00:19.732,(2 -1 -1 -1 1 -1 1 -1)
1969/12/31/18:00:19.747,(0 1 0 3 1 1 0 -1)
1969/12/31/18:00:19.747,(-1 -1 3 1 3 0 -2 -3)
1969/12/31/18:00:19.747,(-2 -1 -3 -3 -3 0 -1 0)
1969/12/31/18:00:19.748,(-2 0 -1 -1 0 1 -1 1)
1969/12/31/18:00:19.771,(-2 -3 3 0 0 -3 -3 -1)
1969/12/31/18:00:19.771,(0 0 -1 -5 -4 0 4 1)
1969/12/31/18:00:19.777,(1 0 -1 0 -1 0 1 2)
1969/12/31/18:00:19.777,(0 0 0 0 0 -1 -3 0)
1969/12/31/18:00:19.792,(-2 1 1 3 0 1 -2 -1)
1969/12/31/18:00:19.792,(-1 0 -1 -1 1 1 -1 -1)
1969/12/31/18:00:19.793,(0 -1 -3 -5 -5 -4 -1 -1)
1969/12/31/18:00:19.793,(2 2 1 -1 -1 1 2 1)
1969/12/31/18:00:19.807,(-2 -2 -1 -2 0 -5 -2 -3)
1969/12/31/18:00:19.807,(0 0 2 4 3 2 -1 -1)
1969/12/31/18:00:19.808,(-1 0 -2 1 0 1 -1 0)
1969/12/31/18:00:19.808,(-1 0 -1 0 0 -1 -2 -1)
1969/12/31/18:00:19.830,(0 0 0 -2 -3 -4 -3 0)
1969/12/31/18:00:19.830,(-3 -3 0 -1 -1 -2 -1 -2)
1969/12/31/18:00:19.837,(-1 0 -1 0 -1 -2 -2 -3)
1969/12/31/18:00:19.837,(-2 -1 -1 -1 -2 1 -2 -1)
1969/12/31/18:00:19.852,(2 0 -2 -1 -1 2 1 0)
1969/12/31/18:00:19.852,(3 3 2 1 1 1 3 4)
1969/12/31/18:00:19.853,(-2 -3 2 0 -1 -4 -2 -3)
1969/12/31/18:00:19.853,(-1 -2 -3 -2 0 0 0 1)
1969/12/31/18:00:19.867,(-3 -2 0 1 -1 -2 0 1)
1969/12/31/18:00:19.867,(0 1 3 3 2 0 -2 -2)
1969/12/31/18:00:19.867,(0 0 -1 -3 -2 0 2 -2)
1969/12/31/18:00:19.868,(0 -1 0 1 -1 2 2 0)
1969/12/31/18:00:19.889,(0 0 1 -1 0 2 2 0)
1969/12/31/18:00:19.889,(-2 -2 -2 -3 -3 0 1 0)
1969/12/31/18:00:19.890,(-1 -1 -1 -3 -3 0 -2 1)
1969/12/31/18:00:19.890,(0 -2 -1 2 0 -2 -1 0)
1969/12/31/18:00:19.913,(1 0 -2 -2 -2 0 -1 1)
1969/12/31/18:00:19.913,(-1 -1 -3 -1 -4 -1 1 -1)
1969/12/31/18:00:19.913,(1 0 0 1 1 -4 -3 0)
1969/12/31/18:00:19.913,(-5 -1 1 0 -1 -1 -3 -4)
1969/12/31/18:00:19.927,(0 0 0 0 2 1 -1 0)
1969/12/31/18:00:19.927,(-1 0 -2 -4 -2 -1 -2 -1)
1969/12/31/18:00:19.928,(-1 -2 -4 -1 -2 -1 1 -1)
1969/12/31/18:00:19.928,(1 1 -2 -1 0 0 1 0)
1969/12/31/18:00:19.951,(0 -1 -5 -6 -5 1 3 -2)
1969/12/31/18:00:19.951,(2 2 3 9 6 -2 -1 2)
1969/12/31/18:00:19.951,(-6 -3 4 -3 1 2 -1 -3)
1969/12/31/18:00:19.951,(-1 -1 1 1 0 -1 0 -2)
1969/12/31/18:00:19.972,(-2 -2 -2 -1 -1 0 -1 -1)
1969/12/31/18:00:19.972,(1 1 -3 -3 -3 -1 -2 0)
1969/12/31/18:00:19.973,(4 1 -1 2 -1 1 -1 1)
1969/12/31/18:00:19.973,(-1 -2 0 -2 0 -2 0 -1)
1969/12/31/18:00:19.987,(-2 -2 -1 0 -2 -3 -1 -1)
1969/12/31/18:00:19.987,(-2 -4 0 -2 -2 1 0 -1)
1969/12/31/18:00:19.988,(-2 2 -1 -2 0 0 0 -2)
1969/12/31/18:00:19.988,(-3 0 -4 -2 -1 -1 -4 -2)
1969/12/31/18:00:20.009,(2 2 5 5 6 3 2 0)
1969/12/31/18:00:20.009,(-2 -2 -2 -1 0 -1 -2 -1)
1969/12/31/18:00:20.010,(0 -1 -2 -2 -1 -1 0 0)
1969/12/31/18:00:20.010,(2 1 -1 -1 0 -2 -1 0)
1969/12/31/18:00:20.033,(1 -2 0 -1 2 -2 -1 0)
1969/12/31/18:00:20.033,(-1 0 -1 -2 -1 -3 -2 -2)
1969/12/31/18:00:20.033,(1 -1 -1 -2 -3 -1 0 0)
1969/12/31/18:00:20.033,(-2 -3 -5 1 -1 -1 -1 -3)
1969/12/31/18:00:20.047,(1 2 2 1 1 0 1 2)
1969/12/31/18:00:20.047,(-3 -3 -1 -3 -4 -1 -1 -3)
1969/12/31/18:00:20.048,(0 -1 1 4 3 2 1 0)
1969/12/31/18:00:20.048,(-2 -2 1 -1 -1 0 -1 0)
1969/12/31/18:00:20.070,(-1 -1 -2 -2 -1 -1 1 -2)
1969/12/31/18:00:20.070,(0 1 -1 -1 -1 0 -3 -1)
1969/12/31/18:00:20.071,(-1 -2 -2 -1 -1 0 -1 -1)
1969/12/31/18:00:20.071,(1 -1 0 1 0 0 0 0)
1969/12/31/18:00:20.093,(-1 0 0 -2 1 1 -2 0)
1969/12/31/18:00:20.093,(-1 -3 0 0 -1 -1 -1 -1)
1969/12/31/18:00:20.093,(0 0 0 1 0 -1 1 -1)
1969/12/31/18:00:20.093,(1 2 1 -1 -1 0 1 -1)
1969/12/31/18:00:20.107,(-1 -2 -1 1 0 -1 -1 2)
1969/12/31/18:00:20.107,(-2 0 -1 0 0 1 -1 -2)
1969/12/31/18:00:20.107,(-1 -1 0 0 1 0 -1 -1)
1969/12/31/18:00:20.108,(-1 1 0 0 0 -1 2 2)
1969/12/31/18:00:20.129,(-1 0 -2 0 -1 -1 0 -3)
1969/12/31/18:00:20.129,(1 0 0 0 1 0 0 1)
1969/12/31/18:00:20.130,(0 1 -3 -1 -2 -1 0 -1)
1969/12/31/18:00:20.130,(0 2 -1 -1 -1 -3 0 -1)
1969/12/31/18:00:20.152,(-1 -1 -1 -1 -2 -1 -2 -1)
1969/12/31/18:00:20.152,(1 -1 -1 -1 0 -1 0 0)
1969/12/31/18:00:20.153,(2 1 -1 -2 -2 -1 -2 1)
1969/12/31/18:00:20.153,(0 0 -1 -1 -3 1 1 1)
1969/12/31/18:00:20.167,(-1 0 1 2 2 0 -1 -1)
1969/12/31/18:00:20.167,(1 1 0 0 1 1 -1 1)
1969/12/31/18:00:20.168,(-2 -1 -1 1 0 -2 -1 -1)
1969/12/31/18:00:20.168,(0 -1 0 0 2 0 0 -1)
1969/12/31/18:00:20.189,(-1 0 -1 0 -1 -2 0 0)
1969/12/31/18:00:20.189,(-1 -1 -2 -2 -2 0 -1 0)
1969/12/31/18:00:20.190,(-1 0 0 2 1 1 0 1)
1969/12/31/18:00:20.190,(1 -1 -2 -2 -2 -1 0 0)
1969/12/31/18:00:20.212,(0 -1 -2 0 -2 -1 1 0)
1969/12/31/18:00:20.212,(-1 0 -1 -3 -1 -3 0 0)
1969/12/31/18:00:20.213,(0 -1 -1 -1 0 0 -2 0)
1969/12/31/18:00:20.213,(-3 -2 -2 -3 0 0 -1 -1)
1969/12/31/18:00:20.227,(-2 0 1 -1 -1 0 1 -1)
1969/12/31/18:00:20.227,(2 0 1 0 -3 -1 0 -1)
1969/12/31/18:00:20.228,(-1 -2 1 0 -1 1 0 2)
1969/12/31/18:00:20.228,(0 0 1 1 0 1 -1 0)
1969/12/31/18:00:20.249,(-1 0 -2 1 0 0 -3 -1)
1969/12/31/18:00:20.249,(1 -1 -1 -1 -2 0 2 1)
1969/12/31/18:00:20.250,(0 0 -1 0 -2 1 -1 0)
1969/12/31/18:00:20.250,(-1 0 2 1 -3 0 -1 0)
