time,.data
1969/12/31/18:00:37.043,(-1 -1 -11 -32 -17 -8 -5 -3)
1969/12/31/18:00:37.043,(-5 -10 -25 -53 -36 -7 -3 -6)
1969/12/31/18:00:37.043,(6 2 -5 32 19 5 0 5)
1969/12/31/18:00:37.044,(1 9 30 15 16 3 2 2)
1969/12/31/18:00:37.057,(7 5 -11 9 15 -1 -2 2)
1969/12/31/18:00:37.057,(-4 -14 1 -12 -14 4 5 2)
1969/12/31/18:00:37.058,(-16 -9 16 -6 -1 -14 -10 -10)
1969/12/31/18:00:37.058,(5 4 -20 -13 19 5 0 4)
1969/12/31/18:00:37.080,(7 10 -1 -49 -55 -11 -3 1)
1969/12/31/18:00:37.080,(12 9 -12 31 26 2 5 7)
1969/12/31/18:00:37.081,(2 1 14 25 15 9 2 -1)
1969/12/31/18:00:37.081,(-15 -17 2 13 -2 -3 -6 -11)
1969/12/31/18:00:37.103,(-6 -4 10 4 -2 1 3 0)
1969/12/31/18:00:37.103,(0 6 -6 -12 -12 -8 -7 -4)
1969/12/31/18:00:37.103,(0 -5 -14 -18 -5 -4 -3 -3)
1969/12/31/18:00:37.103,(5 7 4 -30 -27 -8 -2 -1)
1969/12/31/18:00:37.117,(-1 1 -14 1 5 3 3 2)
1969/12/31/18:00:37.117,(-1 2 6 34 22 6 -1 -2)
1969/12/31/18:00:37.118,(-6 -11 -1 -18 -8 0 3 0)
1969/12/31/18:00:37.118,(7 12 11 0 -2 -5 -1 4)
1969/12/31/18:00:37.140,(1 1 36 76 35 10 0 1)
1969/12/31/18:00:37.140,(-8 -6 11 8 -1 1 5 -1)
1969/12/31/18:00:37.141,(1 -1 -13 7 18 6 -1 2)
1969/12/31/18:00:37.141,(-18 -20 -32 -41 -28 -10 -10 -10)
1969/12/31/18:00:37.162,(5 7 -10 -47 -28 -8 2 5)
1969/12/31/18:00:37.162,(5 3 -6 -25 -10 -3 2 4)
1969/12/31/18:00:37.163,(1 -1 -1 8 16 0 -4 -3)
1969/12/31/18:00:37.163,(7 7 9 1 -5 0 5 5)
1969/12/31/18:00:37.177,(-6 -5 16 30 13 7 2 -2)
1969/12/31/18:00:37.177,(2 3 1 8 -2 -9 -7 -3)
1969/12/31/18:00:37.177,(-2 -6 -28 -84 -48 -15 -1 0)
1969/12/31/18:00:37.177,(3 3 -5 -10 19 14 0 2)
1969/12/31/18:00:37.200,(-9 -9 25 96 19 2 -1 -5)
1969/12/31/18:00:37.200,(-4 1 14 5 22 5 -2 0)
1969/12/31/18:00:37.201,(-6 0 -9 22 0 -6 -6 -5)
1969/12/31/18:00:37.201,(3 -5 -17 -36 -18 -8 3 2)
1969/12/31/18:00:37.223,(2 0 -16 -41 -11 -2 -3 -3)
1969/12/31/18:00:37.223,(-9 -11 -9 -40 -17 -3 -6 -7)
1969/12/31/18:00:37.223,(2 10 18 5 -9 2 3 2)
1969/12/31/18:00:37.223,(8 9 10 72 34 11 9 6)
1969/12/31/18:00:37.237,(-8 -12 -21 -28 -11 -9 -3 -5)
1969/12/31/18:00:37.237,(6 1 -13 -61 -26 -8 -3 1)
1969/12/31/18:00:37.238,(3 3 8 39 9 2 0 2)
1969/12/31/18:00:37.238,(-3 -1 15 26 9 3 0 0)
1969/12/31/18:00:37.260,(-4 -1 2 26 24 6 1 -2)
1969/12/31/18:00:37.260,(-6 -5 -8 -14 0 -1 -1 -5)
1969/12/31/18:00:37.261,(4 2 -3 -35 -31 -3 -1 2)
1969/12/31/18:00:37.261,(3 2 6 18 7 3 1 0)
1969/12/31/18:00:37.283,(-5 -6 -20 -31 -8 -8 -5 -4)
1969/12/31/18:00:37.283,(4 4 -7 -32 -18 0 3 2)
1969/12/31/18:00:37.284,(6 7 13 40 -3 4 4 3)
1969/12/31/18:00:37.284,(-7 -7 -3 -17 18 3 -4 -4)
1969/12/31/18:00:37.297,(-2 2 11 34 5 -1 2 0)
1969/12/31/18:00:37.297,(-3 -3 2 16 4 -2 -3 -4)
1969/12/31/18:00:37.298,(2 -1 -1 -4 4 0 0 1)
1969/12/31/18:00:37.298,(-4 -4 -6 -13 -16 -5 -4 -3)
1969/12/31/18:00:37.320,(0 -1 -8 -24 -8 0 0 -1)
1969/12/31/18:00:37.320,(2 6 14 35 9 3 2 3)
1969/12/31/18:00:37.321,(-4 -3 -1 3 10 1 -1 -2)
1969/12/31/18:00:37.321,(-1 -1 -4 -17 -12 -4 0 2)
1969/12/31/18:00:37.343,(0 -1 -2 -9 3 2 -1 0)
1969/12/31/18:00:37.343,(2 0 2 20 12 -1 -1 1)
1969/12/31/18:00:37.343,(0 0 -1 -21 -3 0 -1 1)
1969/12/31/18:00:37.343,(-5 -5 -3 7 -1 1 -5 -3)
1969/12/31/18:00:37.356,(0 -1 -2 -8 2 -1 1 0)
1969/12/31/18:00:37.356,(-1 0 -1 5 0 1 -1 1)
1969/12/31/18:00:37.365,(0 0 -1 -15 -2 -3 1 1)
1969/12/31/18:00:37.365,(-3 0 2 19 1 1 -1 -3)
1969/12/31/18:00:37.378,(1 -1 1 -3 -2 -2 -4 -2)
1969/12/31/18:00:37.378,(-4 -5 -7 -5 0 1 -2 -2)
1969/12/31/18:00:37.388,(1 0 -1 -17 -21 -2 -1 -1)
1969/12/31/18:00:37.388,(1 2 5 18 24 5 2 2)
1969/12/31/18:00:37.403,(-2 -1 0 7 1 -2 -5 -3)
1969/12/31/18:00:37.403,(0 -2 -5 -17 -11 -4 1 3)
1969/12/31/18:00:37.404,(4 3 3 4 4 0 2 1)
1969/12/31/18:00:37.404,(-3 -1 0 13 0 -4 -3 -3)
1969/12/31/18:00:37.416,(2 2 -7 -28 -11 -3 3 0)
1969/12/31/18:00:37.416,(-3 1 1 5 -1 1 2 1)
1969/12/31/18:00:37.425,(-3 -1 2 15 12 4 -3 -1)
1969/12/31/18:00:37.425,(-1 -2 -4 -3 -5 -2 0 1)
1969/12/31/18:00:37.440,(0 -1 -2 -9 -2 1 0 -1)
1969/12/31/18:00:37.440,(2 2 2 10 0 -1 1 -2)
1969/12/31/18:00:37.441,(-7 -7 -3 3 11 3 2 2)
1969/12/31/18:00:37.441,(11 6 -3 -7 -7 -1 7 11)
1969/12/31/18:00:37.462,(0 5 4 -5 0 1 -9 -13)
1969/12/31/18:00:37.462,(-10 -5 0 16 4 -4 -10 -15)
1969/12/31/18:00:37.464,(-5 -2 -1 -2 3 -2 -3 -3)
1969/12/31/18:00:37.464,(-5 -9 -1 3 -4 0 3 3)
1969/12/31/18:00:37.476,(26 12 -7 -15 -4 -5 5 21)
1969/12/31/18:00:37.476,(1 6 -4 -7 3 0 1 -4)
1969/12/31/18:00:37.485,(-17 -14 -12 -51 -32 -10 -12 -20)
1969/12/31/18:00:37.485,(-7 1 15 76 33 9 1 -5)
1969/12/31/18:00:37.500,(-18 -8 10 38 32 13 1 -3)
1969/12/31/18:00:37.500,(23 9 4 -1 1 5 9 19)
1969/12/31/18:00:37.502,(3 -2 -7 -18 -5 -3 5 11)
1969/12/31/18:00:37.502,(3 -4 -9 -27 -38 -13 -2 0)
1969/12/31/18:00:37.524,(-28 -3 2 -2 7 9 -1 -26)
1969/12/31/18:00:37.524,(-16 -10 -5 5 2 -9 -17 -20)
1969/12/31/18:00:37.529,(5 2 -1 2 4 3 1 7)
1969/12/31/18:00:37.529,(-4 -12 -11 -25 -9 -5 -6 -3)
1969/12/31/18:00:37.536,(4 -3 1 5 -5 -1 5 15)
1969/12/31/18:00:37.536,(20 15 -8 -21 -9 1 6 12)
1969/12/31/18:00:37.545,(-13 -1 1 -2 -9 -5 -10 -14)
1969/12/31/18:00:37.545,(13 10 9 36 26 6 5 5)
1969/12/31/18:00:37.560,(-10 -5 6 10 5 -2 0 -3)
1969/12/31/18:00:37.560,(3 -5 1 -5 -7 0 4 10)
1969/12/31/18:00:37.566,(11 8 -4 -1 5 3 3 1)
1969/12/31/18:00:37.566,(-7 -1 4 -15 -7 -3 -5 -6)
1969/12/31/18:00:37.583,(-9 -7 -11 -26 -19 -12 -8 -4)
1969/12/31/18:00:37.583,(7 -16 0 11 3 3 10 12)
1969/12/31/18:00:37.584,(-2 9 9 21 10 -4 -14 -22)
1969/12/31/18:00:37.584,(-26 -15 -6 -14 -3 2 2 0)
1969/12/31/18:00:37.596,(51 25 8 0 0 0 -2 5)
1969/12/31/18:00:37.596,(1 0 -10 -12 -10 -10 -7 3)
1969/12/31/18:00:37.605,(-3 -1 3 16 12 7 7 5)
1969/12/31/18:00:37.605,(23 14 -3 -16 -14 -5 -3 -2)
1969/12/31/18:00:37.620,(-18 -9 -6 -18 -9 -7 -5 0)
1969/12/31/18:00:37.620,(-4 4 2 -10 -6 3 3 -1)
1969/12/31/18:00:37.622,(6 0 7 28 26 1 0 3)
1969/12/31/18:00:37.622,(-10 -1 8 27 3 3 -2 -3)
1969/12/31/18:00:37.642,(9 3 -1 -10 3 9 14 11)
1969/12/31/18:00:37.642,(-19 -7 6 16 10 -1 -10 -14)
1969/12/31/18:00:37.644,(-33 -28 -11 -14 -8 -4 -4 1)
1969/12/31/18:00:37.644,(45 47 10 -5 6 11 15 7)
1969/12/31/18:00:37.665,(2 -7 -18 -20 -19 -13 -13 -8)
1969/12/31/18:00:37.665,(14 24 -6 -8 -6 -3 1 0)
1969/12/31/18:00:37.667,(-19 -21 4 8 3 2 8 5)
1969/12/31/18:00:37.667,(-8 -24 -7 -26 -5 -7 -4 -3)
1969/12/31/18:00:37.680,(-5 -6 -6 24 -3 -1 -1 -1)
1969/12/31/18:00:37.680,(7 10 8 9 18 11 8 3)
1969/12/31/18:00:37.682,(11 3 -5 0 -2 1 6 12)
1969/12/31/18:00:37.682,(-25 -14 -4 -20 -20 -14 -11 -12)
1969/12/31/18:00:37.703,(26 19 -1 -10 -23 -3 5 6)
1969/12/31/18:00:37.703,(-16 -11 -1 3 12 -8 -6 -2)
1969/12/31/18:00:37.704,(25 21 1 3 16 20 10 7)
1969/12/31/18:00:37.704,(-8 -4 4 21 43 13 2 -2)
1969/12/31/18:00:37.716,(-15 -8 7 11 15 2 -3 -5)
1969/12/31/18:00:37.716,(-9 -7 -10 -5 -17 -3 0 -1)
1969/12/31/18:00:37.725,(26 12 -8 -47 -29 -13 6 17)
1969/12/31/18:00:37.725,(-41 -11 11 40 -12 -6 -13 -30)
1969/12/31/18:00:37.740,(13 -1 0 11 20 5 -1 7)
1969/12/31/18:00:37.740,(-8 2 13 13 13 19 18 -5)
1969/12/31/18:00:37.741,(16 5 -8 -13 -11 -12 -9 11)
1969/12/31/18:00:37.741,(19 3 -10 -22 -10 2 5 8)
1969/12/31/18:00:37.763,(-9 -2 -4 -10 -11 -9 -4 -5)
1969/12/31/18:00:37.763,(-5 -11 -1 -12 -7 -4 -4 -1)
1969/12/31/18:00:37.769,(-5 -6 -1 5 -3 3 5 -5)
1969/12/31/18:00:37.769,(2 6 -4 -22 -22 -11 -2 5)
1969/12/31/18:00:37.776,(-14 -11 2 6 4 1 -2 -5)
1969/12/31/18:00:37.776,(6 3 9 30 46 19 2 -1)
1969/12/31/18:00:37.785,(-1 5 11 33 11 10 6 1)
1969/12/31/18:00:37.785,(17 7 1 10 3 -7 -7 6)
1969/12/31/18:00:37.799,(-41 -20 -5 -23 -13 0 0 -15)
1969/12/31/18:00:37.799,(16 6 2 -18 -23 -9 3 6)
1969/12/31/18:00:37.806,(20 20 -8 -2 -7 -13 -15 -9)
1969/12/31/18:00:37.806,(-10 -7 -9 -26 -3 1 -1 -9)
1969/12/31/18:00:37.822,(10 -3 -3 13 0 1 4 8)
1969/12/31/18:00:37.822,(-7 3 9 11 1 0 -4 -4)
1969/12/31/18:00:37.824,(-24 -16 5 16 5 -3 -14 -16)
1969/12/31/18:00:37.824,(15 4 -10 -26 -7 -2 6 12)
1969/12/31/18:00:37.836,(-3 2 2 -3 -2 -3 0 -1)
1969/12/31/18:00:37.836,(-6 -6 -2 9 -15 -10 -6 -7)
1969/12/31/18:00:37.845,(1 1 5 0 12 8 7 0)
1969/12/31/18:00:37.845,(-2 -4 -4 -4 13 9 -2 1)
1969/12/31/18:00:37.859,(6 4 -2 9 6 -3 1 8)
1969/12/31/18:00:37.859,(-34 -46 -1 -6 -29 -13 -1 -6)
1969/12/31/18:00:37.866,(39 65 14 3 -24 4 16 18)
1969/12/31/18:00:37.866,(-13 -12 -10 8 51 5 -18 -20)
1969/12/31/18:00:37.883,(2 -3 5 13 39 19 9 8)
1969/12/31/18:00:37.883,(2 -2 -5 -8 -11 -3 -2 3)
1969/12/31/18:00:37.889,(-26 -29 -8 -7 -13 -10 -4 -5)
1969/12/31/18:00:37.889,(0 3 6 1 -22 -5 8 8)
1969/12/31/18:00:37.896,(11 11 3 -11 -12 -5 -4 -2)
1969/12/31/18:00:37.896,(-11 -6 -10 -8 -2 -9 -11 -7)
1969/12/31/18:00:37.905,(-13 -13 -9 -59 -20 -9 -6 -11)
1969/12/31/18:00:37.905,(10 8 7 49 0 4 -1 4)
1969/12/31/18:00:37.919,(2 -2 9 18 34 14 8 4)
1969/12/31/18:00:37.919,(14 13 2 -1 16 12 6 9)
1969/12/31/18:00:37.934,(1 -6 -4 8 6 -6 -5 -3)
1969/12/31/18:00:37.934,(-3 -8 -5 -27 -44 -17 -6 -3)
1969/12/31/18:00:37.942,(-10 -2 -5 -7 -5 -5 -4 -5)
1969/12/31/18:00:37.942,(-1 5 4 10 33 9 -1 -1)
1969/12/31/18:00:37.944,(5 0 4 18 28 17 7 2)
1969/12/31/18:00:37.944,(-13 -15 -4 -8 -16 -7 -2 -2)
1969/12/31/18:00:37.965,(-19 -23 -4 -7 -29 -11 -4 -10)
1969/12/31/18:00:37.965,(37 49 4 -10 -8 0 10 26)
1969/12/31/18:00:37.967,(-38 -33 -13 2 0 -13 -23 -31)
1969/12/31/18:00:37.967,(20 9 2 5 6 6 4 9)
1969/12/31/18:00:37.979,(0 6 -2 -13 -16 -6 -1 1)
1969/12/31/18:00:37.979,(-1 -14 -10 -7 -3 -7 -9 -9)
1969/12/31/18:00:37.986,(-6 -5 8 18 14 9 11 5)
1969/12/31/18:00:37.986,(3 6 1 -17 -9 -4 3 3)
1969/12/31/18:00:38.002,(7 3 -30 -118 -83 -47 -18 -6)
1969/12/31/18:00:38.002,(-8 -9 -3 73 -13 5 -4 -5)
1969/12/31/18:00:38.004,(12 17 38 96 100 52 23 14)
1969/12/31/18:00:38.004,(-4 -1 21 54 70 31 6 -6)
1969/12/31/18:00:38.025,(7 4 12 16 17 16 15 14)
1969/12/31/18:00:38.025,(-12 -9 -15 -57 -49 -30 -16 -15)
1969/12/31/18:00:38.026,(-14 -29 -19 -51 -65 -33 -10 -5)
1969/12/31/18:00:38.026,(6 25 -7 -9 -7 -5 1 7)
1969/12/31/18:00:38.039,(20 6 -5 -3 -7 -12 -16 -8)
1969/12/31/18:00:38.039,(-6 -9 -5 -15 -5 2 2 0)
1969/12/31/18:00:38.046,(1 7 2 16 19 6 1 -5)
1969/12/31/18:00:38.046,(-2 -10 -2 -12 0 1 5 11)
1969/12/31/18:00:38.063,(-3 -1 -1 16 0 3 1 -1)
1969/12/31/18:00:38.063,(-5 -1 1 -3 6 0 -4 -9)
1969/12/31/18:00:38.064,(-6 -3 -2 -14 -16 -9 -6 -6)
1969/12/31/18:00:38.064,(7 8 1 2 -1 2 1 4)
1969/12/31/18:00:38.085,(5 8 5 22 22 11 8 6)
1969/12/31/18:00:38.085,(-2 -4 6 7 13 3 1 -1)
1969/12/31/18:00:38.087,(-11 -8 -8 -14 -19 -7 -7 -8)
1969/12/31/18:00:38.087,(5 -2 -4 -13 -13 -5 2 5)
1969/12/31/18:00:38.099,(9 7 5 20 16 13 8 10)
1969/12/31/18:00:38.099,(6 0 -1 -4 8 0 -2 1)
1969/12/31/18:00:38.108,(7 9 -1 -9 -13 -5 0 4)
1969/12/31/18:00:38.108,(-2 0 -8 -9 -15 -11 -6 -5)
1969/12/31/18:00:38.122,(-25 -16 4 16 13 6 -7 -19)
1969/12/31/18:00:38.122,(-9 -10 9 8 13 6 2 -2)
1969/12/31/18:00:38.124,(0 3 -2 1 0 3 9 4)
1969/12/31/18:00:38.124,(-6 -10 -3 -5 -6 -4 -8 -13)
1969/12/31/18:00:38.145,(3 1 -7 -19 -25 -7 0 7)
1969/12/31/18:00:38.145,(2 2 -6 -7 4 2 0 -2)
1969/12/31/18:00:38.147,(-3 -9 -1 29 14 2 -9 0)
1969/12/31/18:00:38.147,(0 8 15 24 17 16 16 5)
1969/12/31/18:00:38.159,(10 9 -1 -15 -12 -6 1 2)
1969/12/31/18:00:38.159,(7 5 -1 -10 -19 -4 -2 2)
1969/12/31/18:00:38.168,(-1 -10 -24 -64 11 -1 -1 -3)
1969/12/31/18:00:38.168,(1 -1 2 23 1 -1 0 3)
1969/12/31/18:00:38.182,(4 7 25 56 8 9 4 1)
1969/12/31/18:00:38.182,(-5 1 6 19 20 4 2 0)
1969/12/31/18:00:38.184,(-3 -6 1 -1 -4 -2 -3 -2)
1969/12/31/18:00:38.184,(1 0 -8 -26 -6 -2 0 4)
1969/12/31/18:00:38.205,(-16 -22 -8 -14 -6 -6 -6 -12)
1969/12/31/18:00:38.205,(22 27 -6 -8 -14 -3 7 14)
1969/12/31/18:00:38.206,(-35 -35 6 5 -6 -5 -8 -16)
1969/12/31/18:00:38.206,(13 17 -9 -9 -4 -4 3 12)
1969/12/31/18:00:38.227,(1 -1 -2 5 1 -1 -6 -4)
1969/12/31/18:00:38.227,(2 -7 1 -7 2 3 5 3)
1969/12/31/18:00:38.229,(34 33 -1 -27 -7 1 6 10)
1969/12/31/18:00:38.229,(-36 -39 -2 11 -16 -10 -9 -12)
1969/12/31/18:00:38.242,(15 17 8 28 24 11 6 9)
1969/12/31/18:00:38.242,(0 1 2 -3 21 7 6 2)
1969/12/31/18:00:38.244,(22 28 4 1 -22 -8 -9 4)
1969/12/31/18:00:38.244,(-34 -42 12 20 9 12 12 -10)
1969/12/31/18:00:38.265,(-5 0 -9 -41 6 -1 -8 -12)
1969/12/31/18:00:38.265,(-8 -13 2 29 -3 -3 -3 1)
1969/12/31/18:00:38.267,(8 17 8 8 -1 1 3 -1)
1969/12/31/18:00:38.267,(-13 -20 -4 1 -3 -10 -12 0)
1969/12/31/18:00:38.278,(28 10 4 8 9 10 12 16)
1969/12/31/18:00:38.278,(6 18 -13 -26 -13 -7 -4 1)
1969/12/31/18:00:38.288,(25 19 17 11 10 16 25 23)
1969/12/31/18:00:38.288,(-18 -49 -18 -19 -11 -11 -13 -17)
1969/12/31/18:00:38.303,(33 63 11 -4 -2 3 10 22)
1969/12/31/18:00:38.303,(-20 -26 -2 19 9 1 2 -5)
1969/12/31/18:00:38.304,(14 16 14 5 3 5 8 15)
1969/12/31/18:00:38.304,(20 21 -8 8 8 2 -3 -2)
1969/12/31/18:00:38.325,(-63 -88 -12 -6 -7 -10 -15 -27)
1969/12/31/18:00:38.325,(56 82 28 7 8 16 27 43)
1969/12/31/18:00:38.326,(-46 -32 -14 3 -9 -11 -14 -27)
1969/12/31/18:00:38.326,(48 32 1 -17 0 4 10 27)
1969/12/31/18:00:38.338,(-36 -33 -8 -1 -3 -4 -10 -25)
1969/12/31/18:00:38.338,(2 -11 -8 -10 -3 1 0 0)
1969/12/31/18:00:38.348,(-10 -12 3 16 6 -3 -7 -7)
1969/12/31/18:00:38.348,(-15 -7 -6 -14 -9 -11 -21 -17)
1969/12/31/18:00:38.363,(8 19 -1 6 -2 -3 -2 -3)
1969/12/31/18:00:38.363,(-6 -17 -1 -3 1 -1 -4 -5)
1969/12/31/18:00:38.364,(-2 1 -3 0 -1 -2 -4 -2)
1969/12/31/18:00:38.364,(8 12 3 -7 -7 -2 3 4)
1969/12/31/18:00:38.385,(-2 0 1 5 1 -2 1 3)
1969/12/31/18:00:38.385,(-16 -10 -4 -9 -4 -2 -7 -12)
1969/12/31/18:00:38.387,(-9 -16 -10 1 -5 -5 -8 -6)
1969/12/31/18:00:38.387,(11 22 13 7 8 8 8 3)
1969/12/31/18:00:38.399,(0 -6 -2 -1 1 3 5 4)
1969/12/31/18:00:38.399,(-7 -17 -9 -11 -9 -8 -9 -8)
1969/12/31/18:00:38.415,(10 25 0 3 0 0 6 9)
1969/12/31/18:00:38.415,(-18 -7 -2 -2 -6 -12 -17 -25)
1969/12/31/18:00:38.430,(8 -8 -9 -2 10 14 16 18)
1969/12/31/18:00:38.430,(-18 -5 7 5 1 0 -6 -14)
1969/12/31/18:00:38.432,(24 -8 -8 -5 1 5 10 20)
1969/12/31/18:00:38.432,(4 18 4 -1 0 1 4 3)
1969/12/31/18:00:38.445,(-1 7 0 -2 -6 -6 -7 -6)
1969/12/31/18:00:38.445,(-16 -18 -3 1 -2 -2 -2 -6)
1969/12/31/18:00:38.447,(-3 -4 -3 -3 -4 -4 -1 -2)
1969/12/31/18:00:38.447,(9 11 2 -1 3 4 3 5)
1969/12/31/18:00:38.458,(10 7 0 -2 1 5 3 8)
1969/12/31/18:00:38.458,(-7 -6 -3 -5 -7 -2 -4 -9)
1969/12/31/18:00:38.468,(-10 -2 -4 -5 -3 -8 -8 -8)
1969/12/31/18:00:38.468,(4 2 3 23 11 4 4 1)
1969/12/31/18:00:38.482,(-1 3 4 12 6 3 4 4)
1969/12/31/18:00:38.482,(3 4 1 4 4 1 -3 -3)
1969/12/31/18:00:38.484,(-5 -3 0 -4 -4 -5 -6 -7)
1969/12/31/18:00:38.484,(-12 -11 -6 -15 -6 -1 0 -2)
1969/12/31/18:00:38.505,(-7 -3 1 -5 -5 -9 -5 -3)
1969/12/31/18:00:38.505,(-1 -19 -6 -10 -6 -4 -2 0)
1969/12/31/18:00:38.506,(44 46 1 2 1 0 1 22)
1969/12/31/18:00:38.506,(-62 -41 4 9 6 1 -10 -39)
1969/12/31/18:00:38.518,(55 51 9 0 4 10 11 21)
1969/12/31/18:00:38.518,(-9 -4 -3 -2 -1 -5 -8 -9)
1969/12/31/18:00:38.528,(-4 -12 -1 -4 -4 1 2 2)
1969/12/31/18:00:38.528,(16 4 -2 -1 -2 1 4 11)
1969/12/31/18:00:38.542,(-12 -1 1 -2 -9 -6 -6 -6)
1969/12/31/18:00:38.542,(-9 -6 -4 -8 2 -4 -4 -5)
1969/12/31/18:00:38.544,(0 -7 -5 -9 -6 2 4 3)
1969/12/31/18:00:38.544,(6 8 0 0 -8 -1 1 5)
1969/12/31/18:00:38.565,(-19 -19 2 16 14 -3 -5 -12)
1969/12/31/18:00:38.565,(15 16 10 16 6 4 3 7)
1969/12/31/18:00:38.571,(-19 -13 3 10 -2 -3 -5 -11)
1969/12/31/18:00:38.571,(10 8 1 2 18 6 8 10)
1969/12/31/18:00:38.578,(8 7 -4 -11 -8 -1 -3 2)
1969/12/31/18:00:38.578,(13 14 -2 -9 -5 -1 0 2)
1969/12/31/18:00:38.587,(-16 -12 -5 -12 -7 -6 -11 -16)
1969/12/31/18:00:38.587,(-1 3 0 -10 -10 -2 2 2)
1969/12/31/18:00:38.602,(-27 -23 -5 5 -5 -11 -16 -23)
1969/12/31/18:00:38.602,(9 13 -5 -4 0 2 4 9)
1969/12/31/18:00:38.604,(13 1 0 8 10 8 6 3)
1969/12/31/18:00:38.604,(10 11 -3 -1 -4 -5 -4 6)
1969/12/31/18:00:38.625,(-10 -11 -6 -5 -2 -3 -1 -3)
1969/12/31/18:00:38.625,(-13 -15 -2 -4 -5 -2 -3 -7)
1969/12/31/18:00:38.627,(3 3 -3 -4 -3 -4 -1 1)
1969/12/31/18:00:38.627,(2 -2 -1 -20 -12 0 4 1)
1969/12/31/18:00:38.647,(-1 1 -6 -45 -24 -6 -2 1)
1969/12/31/18:00:38.648,(1 2 12 67 29 4 0 -2)
1969/12/31/18:00:38.649,(-8 -3 13 24 16 7 4 -1)
1969/12/31/18:00:38.649,(1 -1 5 27 14 1 -1 -2)
1969/12/31/18:00:38.662,(3 -4 -4 -10 -4 -3 -1 1)
1969/12/31/18:00:38.662,(2 4 -7 -34 -20 -5 8 7)
1969/12/31/18:00:38.668,(-23 -30 -8 -12 -7 -2 -9 -16)
1969/12/31/18:00:38.668,(13 16 1 -8 -6 -3 -3 2)
1969/12/31/18:00:38.685,(22 25 1 6 2 1 6 11)
1969/12/31/18:00:38.685,(-13 -11 -4 -2 -1 -2 -6 -8)
1969/12/31/18:00:38.686,(-8 -3 1 8 4 -1 -2 -3)
1969/12/31/18:00:38.686,(14 3 -4 -13 -6 4 9 15)
1969/12/31/18:00:38.698,(6 9 8 14 10 7 8 8)
1969/12/31/18:00:38.698,(-2 3 5 -2 -3 -5 -6 -7)
1969/12/31/18:00:38.707,(-5 -2 -2 -5 -6 -3 -3 -2)
1969/12/31/18:00:38.707,(-21 -13 -4 -1 -7 -7 -13 -17)
1969/12/31/18:00:38.722,(24 13 1 1 4 8 13 24)
1969/12/31/18:00:38.722,(3 -6 -5 -2 6 4 4 3)
1969/12/31/18:00:38.728,(-4 6 2 2 2 -1 1 0)
1969/12/31/18:00:38.728,(-8 -12 -7 -5 8 -1 -7 -11)
1969/12/31/18:00:38.745,(-15 -5 5 19 0 -1 3 -2)
1969/12/31/18:00:38.745,(-24 -19 1 1 -5 -4 -10 -16)
1969/12/31/18:00:38.746,(22 11 -1 -1 4 8 9 15)
1969/12/31/18:00:38.746,(7 3 -2 -2 -5 -4 0 6)
1969/12/31/18:00:38.759,(-38 -27 0 1 2 0 -2 -19)
1969/12/31/18:00:38.759,(31 27 -1 -13 -8 0 1 5)
1969/12/31/18:00:38.767,(11 15 7 10 7 4 4 8)
1969/12/31/18:00:38.768,(-8 -6 -2 -1 -5 -5 -7 -12)
1969/12/31/18:00:38.790,(11 -1 -10 -2 -1 -1 -3 5)
1969/12/31/18:00:38.790,(-23 -16 1 1 -1 2 3 -7)
1969/12/31/18:00:38.791,(4 6 3 -4 -4 -2 0 -1)
1969/12/31/18:00:38.791,(25 22 4 -7 1 10 15 19)
1969/12/31/18:00:38.813,(-23 -20 -7 -1 -7 -14 -18 -16)
1969/12/31/18:00:38.813,(3 -2 -3 -1 5 -1 0 3)
1969/12/31/18:00:38.814,(-8 -4 5 7 6 2 1 -4)
1969/12/31/18:00:38.814,(2 4 5 12 -1 2 -3 -4)
1969/12/31/18:00:38.818,(-2 -2 1 6 2 -1 -2 -1)
1969/12/31/18:00:38.818,(-2 -4 2 -10 -5 -3 -2 4)
1969/12/31/18:00:38.835,(3 12 1 0 0 1 2 -1)
1969/12/31/18:00:38.835,(-15 -18 -9 -6 -3 -5 -6 -4)
1969/12/31/18:00:38.842,(25 23 9 4 5 5 1 -3)
1969/12/31/18:00:38.842,(-8 -13 -14 -3 -5 -4 -9 -7)
1969/12/31/18:00:38.849,(5 0 3 -7 -3 1 5 4)
1969/12/31/18:00:38.849,(1 0 -2 -3 0 -1 5 5)
1969/12/31/18:00:38.865,(-1 1 5 -4 1 4 6 7)
1969/12/31/18:00:38.865,(11 11 1 4 2 -3 -4 0)
1969/12/31/18:00:38.866,(-14 -12 -1 3 -6 -7 -6 -9)
1969/12/31/18:00:38.866,(9 14 7 -3 -1 3 6 7)
1969/12/31/18:00:38.879,(9 4 -5 2 3 -1 1 5)
1969/12/31/18:00:38.879,(-16 -18 5 8 -2 -7 -6 -5)
1969/12/31/18:00:38.888,(16 12 -1 4 9 10 13 19)
1969/12/31/18:00:38.888,(-4 10 5 8 3 -3 -9 -15)
1969/12/31/18:00:38.902,(-6 -11 -13 -14 -7 -1 -1 -2)
1969/12/31/18:00:38.902,(-3 0 0 -3 -3 1 0 -3)
1969/12/31/18:00:38.909,(-13 -14 -7 -8 -10 -12 -11 -8)
1969/12/31/18:00:38.909,(3 0 2 1 2 1 7 10)
1969/12/31/18:00:38.925,(-15 -12 1 0 -2 -4 -9 -15)
1969/12/31/18:00:38.925,(-4 -1 -4 -3 -3 -4 -3 -2)
1969/12/31/18:00:38.926,(6 5 -3 -3 1 5 8 5)
1969/12/31/18:00:38.926,(6 0 -1 3 6 5 3 2)
1969/12/31/18:00:38.947,(-1 6 1 1 0 0 0 -9)
1969/12/31/18:00:38.947,(15 15 3 -3 0 2 1 6)
1969/12/31/18:00:38.949,(-11 -20 -9 -4 -4 -5 -7 -8)
1969/12/31/18:00:38.949,(-1 -4 -1 3 2 0 1 2)
1969/12/31/18:00:38.963,(-4 0 0 0 -4 -3 1 5)
1969/12/31/18:00:38.963,(-2 -2 5 2 5 4 4 1)
1969/12/31/18:00:38.964,(2 3 -3 0 -4 -3 -3 -1)
1969/12/31/18:00:38.964,(-1 3 3 -3 -3 -2 6 5)
1969/12/31/18:00:38.985,(-4 -7 -1 1 3 3 -1 -3)
1969/12/31/18:00:38.985,(5 2 -2 -2 -2 0 2 5)
1969/12/31/18:00:38.986,(8 5 1 5 5 5 3 -1)
1969/12/31/18:00:38.986,(-5 -7 0 2 -4 -8 -17 -17)
1969/12/31/18:00:39.008,(6 0 -6 -3 -5 -5 0 8)
1969/12/31/18:00:39.008,(-13 -5 3 1 2 1 1 -10)
1969/12/31/18:00:39.009,(-7 -12 -3 -6 -1 1 1 5)
1969/12/31/18:00:39.009,(27 28 4 2 2 3 7 14)
1969/12/31/18:00:39.022,(-6 -8 -2 -1 -3 -4 -5 -4)
1969/12/31/18:00:39.022,(-4 -3 -2 -2 -4 -5 -8 -6)
1969/12/31/18:00:39.024,(-11 -10 2 5 3 3 3 -1)
1969/12/31/18:00:39.024,(2 20 -6 -2 -1 -4 -4 -5)
1969/12/31/18:00:39.045,(6 7 8 3 8 7 3 5)
1969/12/31/18:00:39.045,(-2 -2 -3 -3 -5 1 2 -1)
1969/12/31/18:00:39.046,(9 10 1 -10 -5 -3 -1 4)
1969/12/31/18:00:39.046,(-23 -25 -5 -10 -11 -4 -5 -10)
1969/12/31/18:00:39.067,(9 12 2 10 7 -1 -1 1)
1969/12/31/18:00:39.067,(1 3 0 6 6 2 2 4)
1969/12/31/18:00:39.069,(-2 -1 1 1 -3 -5 -8 -7)
1969/12/31/18:00:39.069,(-14 -23 -5 1 2 1 6 6)
1969/12/31/18:00:39.081,(2 12 6 -5 -7 -1 -3 -6)
1969/12/31/18:00:39.081,(-8 -20 -1 -7 -6 -5 -4 -7)
1969/12/31/18:00:39.090,(15 14 -11 -3 0 0 5 8)
1969/12/31/18:00:39.090,(-1 -1 -1 0 2 -1 -4 -3)
1969/12/31/18:00:39.105,(-15 -17 -9 -1 -2 -3 -4 -5)
1969/12/31/18:00:39.105,(-8 -4 1 3 0 -2 -1 -1)
1969/12/31/18:00:39.111,(-3 -5 -2 0 -2 -5 -4 -5)
1969/12/31/18:00:39.111,(2 -3 -1 0 0 2 3 6)
1969/12/31/18:00:39.128,(0 -3 0 -3 -3 -3 0 2)
1969/12/31/18:00:39.128,(-1 6 -2 -1 -3 -2 -5 -6)
1969/12/31/18:00:39.134,(-2 -6 -4 -10 -4 0 -2 -4)
1969/12/31/18:00:39.134,(2 -2 -1 4 9 3 3 2)
1969/12/31/18:00:39.141,(-1 1 3 16 8 -3 -5 -2)
1969/12/31/18:00:39.141,(24 18 -1 -2 -1 2 7 18)
1969/12/31/18:00:39.150,(-16 -4 1 2 1 -3 -6 -12)
1969/12/31/18:00:39.150,(-28 -28 -3 -7 -6 -5 -11 -21)
1969/12/31/18:00:39.165,(3 -13 -13 -13 -8 -2 4 10)
1969/12/31/18:00:39.165,(-3 7 1 7 8 4 -3 -11)
1969/12/31/18:00:39.166,(10 5 2 -5 -8 -3 1 8)
1969/12/31/18:00:39.166,(18 21 11 8 10 9 10 14)
1969/12/31/18:00:39.187,(-15 -23 -9 -10 -9 -9 -12 -13)
1969/12/31/18:00:39.187,(7 11 0 0 6 10 10 9)
1969/12/31/18:00:39.189,(-10 -13 -7 -8 -9 -6 -11 -12)
1969/12/31/18:00:39.189,(-3 -3 -1 -4 -6 -5 -3 -4)
1969/12/31/18:00:39.201,(10 17 7 8 3 -2 4 8)
1969/12/31/18:00:39.201,(3 6 -1 4 2 -3 -4 2)
1969/12/31/18:00:39.210,(-2 -5 3 11 17 16 11 3)
1969/12/31/18:00:39.210,(-7 -12 -5 -3 -6 -3 -7 -7)
1969/12/31/18:00:39.233,(-29 -14 -3 -7 -5 -2 -5 -14)
1969/12/31/18:00:39.233,(29 16 -4 -12 -3 6 16 22)
1969/12/31/18:00:39.234,(-9 -10 -4 0 -6 -9 -13 -10)
1969/12/31/18:00:39.234,(-1 -5 -1 3 2 3 5 2)
1969/12/31/18:00:39.247,(12 11 6 5 3 6 9 10)
1969/12/31/18:00:39.247,(-10 -13 -2 0 -1 0 -4 -5)
1969/12/31/18:00:39.249,(-12 -8 -3 4 -1 -4 -2 -1)
1969/12/31/18:00:39.249,(9 5 -1 -7 1 5 5 6)
1969/12/31/18:00:39.261,(22 22 -6 -4 -3 -3 0 7)
1969/12/31/18:00:39.261,(-5 8 4 -8 -6 2 5 -3)
1969/12/31/18:00:39.277,(-9 -15 -2 7 7 -3 -2 -8)
1969/12/31/18:00:39.277,(-17 -9 -5 -1 -8 -10 -10 -14)
1969/12/31/18:00:39.285,(4 -1 2 -2 14 10 9 9)
1969/12/31/18:00:39.285,(0 -6 2 19 3 1 -3 2)
1969/12/31/18:00:39.286,(15 18 7 7 4 6 7 9)
1969/12/31/18:00:39.286,(-3 -3 3 0 -4 -3 -1 -1)
1969/12/31/18:00:39.307,(-8 -8 -2 -8 -7 -3 1 3)
1969/12/31/18:00:39.307,(11 6 -3 -11 -6 -9 -11 -11)
1969/12/31/18:00:39.309,(-4 1 1 -8 -4 -3 -3 -4)
1969/12/31/18:00:39.309,(-4 -7 -3 4 3 1 2 2)
1969/12/31/18:00:39.321,(-7 -4 1 0 -3 -1 -4 -11)
1969/12/31/18:00:39.321,(12 20 5 -4 -1 -3 -3 -2)
1969/12/31/18:00:39.330,(0 -8 -4 -2 -4 -2 -1 1)
1969/12/31/18:00:39.330,(7 8 -4 -2 3 2 0 3)
1969/12/31/18:00:39.345,(-2 -5 3 -2 -4 -2 -1 1)
1969/12/31/18:00:39.345,(-14 -13 -4 -5 -7 -3 -4 -2)
1969/12/31/18:00:39.346,(5 11 5 4 0 -1 -1 -3)
1969/12/31/18:00:39.347,(10 10 6 9 14 3 0 6)
1969/12/31/18:00:39.367,(-6 -2 -1 4 1 1 -2 -7)
1969/12/31/18:00:39.367,(-3 -1 3 3 0 0 6 4)
1969/12/31/18:00:39.369,(6 -1 -4 -13 -1 7 6 9)
1969/12/31/18:00:39.369,(6 2 -15 -60 -33 -6 -2 2)
1969/12/31/18:00:39.381,(-9 -10 0 29 9 -1 -5 -10)
1969/12/31/18:00:39.381,(-2 -2 9 44 28 4 -3 1)
1969/12/31/18:00:39.398,(-2 3 14 38 24 3 -4 0)
1969/12/31/18:00:39.398,(-11 -6 -2 0 -4 -2 -3 -9)
1969/12/31/18:00:39.405,(7 12 -1 -31 -19 -3 -1 5)
1969/12/31/18:00:39.405,(-7 -9 -5 -16 1 4 5 -3)
1969/12/31/18:00:39.411,(-7 -15 -4 7 -9 -8 -8 -2)
1969/12/31/18:00:39.411,(21 34 5 3 4 5 7 9)
1969/12/31/18:00:39.427,(-8 -19 -3 -9 -7 -1 -1 2)
1969/12/31/18:00:39.427,(-2 1 -4 -5 -2 2 5 -1)
1969/12/31/18:00:39.429,(-8 -5 -2 -7 -1 -2 -4 -8)
1969/12/31/18:00:39.429,(5 -1 -1 2 1 3 6 7)
1969/12/31/18:00:39.441,(-8 -9 -7 -4 -2 -5 -3 -3)
1969/12/31/18:00:39.441,(7 8 5 -1 -1 2 2 5)
1969/12/31/18:00:39.450,(-1 4 1 -4 -1 -3 -2 -4)
1969/12/31/18:00:39.450,(4 -1 1 8 5 2 3 6)
1969/12/31/18:00:39.465,(5 8 2 7 2 0 -4 -6)
1969/12/31/18:00:39.465,(-7 -13 -12 -26 -17 -5 -3 -4)
1969/12/31/18:00:39.466,(-3 2 -4 -4 -4 -6 -4 -6)
1969/12/31/18:00:39.466,(-13 -12 5 45 19 0 -5 -4)
1969/12/31/18:00:39.487,(15 19 16 21 24 11 4 4)
1969/12/31/18:00:39.487,(6 10 -6 -9 -9 -5 -1 12)
1969/12/31/18:00:39.489,(-20 -7 -7 -20 -16 -8 -18 -32)
1969/12/31/18:00:39.489,(-18 -15 -7 -13 -13 -10 -3 -5)
1969/12/31/18:00:39.501,(4 4 -5 -7 -3 1 7 2)
1969/12/31/18:00:39.501,(-9 -23 -11 -9 -7 -7 -10 -4)
1969/12/31/18:00:39.510,(12 8 -1 -2 1 5 6 13)
1969/12/31/18:00:39.510,(2 4 1 1 3 4 3 -1)
1969/12/31/18:00:39.525,(-9 -9 -4 -2 -10 -8 -9 -7)
1969/12/31/18:00:39.525,(-1 0 3 8 9 1 4 2)
1969/12/31/18:00:39.526,(6 1 -6 -14 -10 -1 6 8)
1969/12/31/18:00:39.526,(9 5 -1 -12 -5 -1 -1 2)
1969/12/31/18:00:39.548,(1 3 5 20 9 5 3 2)
1969/12/31/18:00:39.548,(-13 -4 11 31 25 0 -5 -11)
1969/12/31/18:00:39.549,(17 10 3 8 8 6 10 13)
1969/12/31/18:00:39.549,(-14 -7 3 -2 -1 1 -2 -8)
1969/12/31/18:00:39.561,(2 3 -6 -21 -12 -6 -3 -2)
1969/12/31/18:00:39.561,(-8 -8 -9 -18 -23 -16 -6 -6)
1969/12/31/18:00:39.570,(-4 -3 -3 -9 -33 -10 -5 0)
1969/12/31/18:00:39.570,(6 7 2 9 39 8 2 3)
1969/12/31/18:00:39.585,(2 3 4 9 17 14 7 4)
1969/12/31/18:00:39.585,(-1 -4 -1 6 5 7 2 -1)
1969/12/31/18:00:39.586,(-7 -12 2 2 6 3 4 2)
1969/12/31/18:00:39.586,(10 9 -5 -7 -25 -12 -4 -1)
1969/12/31/18:00:39.607,(-1 4 4 -1 -3 -7 -10 -11)
1969/12/31/18:00:39.607,(-9 -20 -7 -16 -5 -4 -4 -2)
1969/12/31/18:00:39.609,(19 26 -3 1 -4 -2 5 9)
1969/12/31/18:00:39.609,(-11 -5 2 16 5 -3 -9 -11)
1969/12/31/18:00:39.621,(-29 -21 0 0 4 -1 -5 -18)
1969/12/31/18:00:39.621,(17 10 -2 -9 -11 5 7 12)
1969/12/31/18:00:39.630,(-11 -12 0 -2 3 -3 -5 -7)
1969/12/31/18:00:39.630,(-3 -3 -1 -7 -2 -2 -4 -4)
1969/12/31/18:00:39.653,(12 11 -9 -14 -15 -4 4 11)
1969/12/31/18:00:39.653,(-6 -5 -1 10 7 3 1 -2)
1969/12/31/18:00:39.654,(7 5 4 0 10 8 6 4)
1969/12/31/18:00:39.654,(-7 3 16 47 18 2 1 -2)
1969/12/31/18:00:39.667,(-9 -7 4 4 -1 -5 -4 -4)
1969/12/31/18:00:39.667,(6 8 -2 -11 0 5 7 8)
1969/12/31/18:00:39.669,(11 6 -7 -23 -5 -3 -2 6)
1969/12/31/18:00:39.669,(-2 -11 -11 -27 -21 -5 -2 -4)
1969/12/31/18:00:39.681,(5 5 -5 6 -4 -8 -9 -5)
1969/12/31/18:00:39.681,(-9 -2 6 2 7 -1 -2 -6)
1969/12/31/18:00:39.697,(22 15 11 26 8 3 3 1)
1969/12/31/18:00:39.697,(-13 -7 7 2 1 -3 -6 -8)
1969/12/31/18:00:39.704,(2 -8 -8 -5 6 11 12 12)
1969/12/31/18:00:39.704,(1 -7 -8 -18 -10 -1 -4 -2)
1969/12/31/18:00:39.711,(-5 -1 -2 2 4 0 3 4)
1969/12/31/18:00:39.711,(3 -2 -7 -18 -9 -1 2 4)
1969/12/31/18:00:39.727,(-4 1 12 38 3 -7 -6 -5)
1969/12/31/18:00:39.727,(4 10 6 -2 2 -1 0 0)
1969/12/31/18:00:39.729,(-1 -12 -8 -13 -7 6 7 8)
1969/12/31/18:00:39.729,(2 1 -3 4 -5 -2 -4 -3)
1969/12/31/18:00:39.741,(2 -4 -6 -4 -2 2 5 4)
1969/12/31/18:00:39.741,(-5 0 5 15 3 -3 -5 -7)
1969/12/31/18:00:39.750,(-12 -5 1 -6 7 -1 -3 -8)
1969/12/31/18:00:39.750,(9 -1 -10 -22 9 13 14 12)
1969/12/31/18:00:39.772,(6 5 5 6 -7 0 4 6)
1969/12/31/18:00:39.772,(5 9 17 21 5 4 6 3)
1969/12/31/18:00:39.774,(-3 -4 -8 25 7 -1 -4 -3)
1969/12/31/18:00:39.774,(-6 -11 -10 -24 -10 -10 -10 -6)
1969/12/31/18:00:39.787,(-3 0 12 21 14 2 -2 -3)
1969/12/31/18:00:39.787,(1 1 -11 -1 13 6 3 2)
1969/12/31/18:00:39.789,(-3 -1 -8 -15 -3 -2 -3 -3)
1969/12/31/18:00:39.789,(3 -3 2 -5 -21 -5 1 0)
1969/12/31/18:00:39.801,(0 1 -4 -39 -32 -6 -2 -3)
1969/12/31/18:00:39.801,(2 -2 -11 -15 2 -6 -4 0)
1969/12/31/18:00:39.810,(-4 -4 10 24 8 -6 -3 -1)
1969/12/31/18:00:39.810,(-1 1 6 12 4 7 -2 -1)
1969/12/31/18:00:39.824,(4 2 -7 -9 16 6 3 4)
1969/12/31/18:00:39.824,(-2 -5 -5 -7 -12 6 3 0)
1969/12/31/18:00:39.831,(-1 -6 -23 -11 -2 -4 -3 0)
1969/12/31/18:00:39.831,(-8 -3 5 -6 -5 -10 1 -3)
1969/12/31/18:00:39.847,(2 4 5 7 -6 2 2 5)
1969/12/31/18:00:39.847,(5 6 1 -5 3 0 -3 3)
1969/12/31/18:00:39.849,(-3 6 24 3 6 4 4 -2)
1969/12/31/18:00:39.849,(4 7 12 30 14 6 1 1)
1969/12/31/18:00:39.877,(8 6 11 -3 3 5 6 4)
1969/12/31/18:00:39.877,(1 -2 -24 -14 -13 -12 -8 -2)
1969/12/31/18:00:39.879,(-8 -10 -12 -7 -15 -7 -7 -5)
1969/12/31/18:00:39.879,(-8 -8 -8 -7 -3 -4 -3 -5)
1969/12/31/18:00:39.884,(-4 -5 -10 -9 3 -3 -1 0)
1969/12/31/18:00:39.884,(-1 2 19 10 0 6 4 -1)
1969/12/31/18:00:39.891,(1 11 19 13 4 2 2 2)
1969/12/31/18:00:39.891,(4 1 -18 -11 -11 -4 -1 2)
1969/12/31/18:00:39.907,(-4 -10 -11 -14 -7 -10 -7 -4)
1969/12/31/18:00:39.907,(-2 -2 5 6 13 1 2 1)
1969/12/31/18:00:39.909,(-5 -6 0 9 10 7 1 -3)
1969/12/31/18:00:39.909,(4 9 19 18 10 6 3 2)
1969/12/31/18:00:39.930,(7 8 -4 -5 -5 -2 1 3)
1969/12/31/18:00:39.930,(1 -7 -17 -14 -9 -3 2 4)
1969/12/31/18:00:39.931,(-4 -2 6 -10 -1 -1 -1 -5)
1969/12/31/18:00:39.931,(2 5 -2 5 -3 -5 -1 2)
1969/12/31/18:00:39.944,(-2 -1 -7 -4 3 -1 -2 0)
1969/12/31/18:00:39.944,(1 -4 -5 1 -2 1 1 1)
1969/12/31/18:00:39.951,(-3 -4 -1 -5 -2 -6 -2 -2)
1969/12/31/18:00:39.951,(-4 -2 4 -1 -1 3 -1 -2)
1969/12/31/18:00:39.975,(4 5 -1 5 2 -1 0 1)
1969/12/31/18:00:39.975,(0 0 2 5 -1 1 -2 -1)
1969/12/31/18:00:39.977,(-3 -4 -4 -4 -3 0 0 0)
1969/12/31/18:00:39.977,(2 1 -4 -1 0 1 2 0)
1969/12/31/18:00:39.990,(0 -1 -2 2 5 0 -2 0)
1969/12/31/18:00:39.990,(-1 -2 -1 -2 -8 -6 -4 -3)
1969/12/31/18:00:39.991,(2 1 -5 -1 0 1 2 1)
1969/12/31/18:00:39.991,(6 7 -2 3 6 3 2 2)
1969/12/31/18:00:40.004,(-1 -12 -17 0 5 -1 -4 -2)
1969/12/31/18:00:40.004,(-19 -10 14 -9 -10 -9 -7 -10)
1969/12/31/18:00:40.012,(-3 -1 1 -3 -5 0 0 -1)
1969/12/31/18:00:40.012,(0 -1 -7 -8 -4 3 0 0)
1969/12/31/18:00:40.027,(5 3 6 9 7 5 4 3)
1969/12/31/18:00:40.027,(0 -3 -10 -10 -11 -2 0 1)
1969/12/31/18:00:40.029,(2 2 4 7 8 3 2 2)
1969/12/31/18:00:40.029,(-10 -9 -5 -3 -4 -10 -8 -7)
1969/12/31/18:00:40.065,(-7 -1 7 -2 2 2 -2 -4)
1969/12/31/18:00:40.066,(-1 -1 -7 -1 -4 1 0 -1)
1969/12/31/18:00:40.067,(10 7 4 6 6 3 5 7)
1969/12/31/18:00:40.067,(-2 -6 -8 -20 -22 -3 0 -1)
1969/12/31/18:00:40.068,(6 8 1 -15 3 2 2 3)
1969/12/31/18:00:40.068,(-1 0 0 12 10 0 -4 -4)
1969/12/31/18:00:40.072,(-5 -4 -13 -1 -1 -1 -5 -6)
1969/12/31/18:00:40.072,(-2 -2 23 31 9 -2 2 3)
1969/12/31/18:00:40.087,(-6 -1 8 0 -20 -13 -1 -2)
1969/12/31/18:00:40.087,(5 7 7 1 13 8 4 5)
1969/12/31/18:00:40.089,(-3 -3 -20 -33 -6 2 -4 -3)
1969/12/31/18:00:40.089,(3 2 -7 14 15 2 0 0)
1969/12/31/18:00:40.110,(-8 -7 9 13 -2 -4 -4 -4)
1969/12/31/18:00:40.110,(5 9 -3 -24 -18 -3 2 3)
1969/12/31/18:00:40.111,(-9 -3 11 13 6 4 -3 -8)
1969/12/31/18:00:40.111,(28 19 -9 -1 -6 2 8 17)
1969/12/31/18:00:40.123,(-6 -17 -16 1 16 4 0 -3)
1969/12/31/18:00:40.123,(-4 -3 5 7 -2 -7 -5 -4)
1969/12/31/18:00:40.132,(-4 -5 -3 -20 -18 -10 -1 -2)
1969/12/31/18:00:40.132,(-12 -2 2 -25 -17 -8 -3 -10)
1969/12/31/18:00:40.147,(9 4 -16 -9 -1 4 6 8)
1969/12/31/18:00:40.147,(1 -3 9 42 24 9 3 -1)
1969/12/31/18:00:40.149,(-4 0 1 -10 -9 0 -4 -4)
1969/12/31/18:00:40.149,(2 -3 -9 4 2 5 0 1)
1969/12/31/18:00:40.170,(4 14 25 12 -1 -3 -6 0)
1969/12/31/18:00:40.170,(1 -3 -2 -17 -6 4 4 1)
1969/12/31/18:00:40.171,(4 2 1 5 2 -3 -3 3)
1969/12/31/18:00:40.171,(-5 -7 -4 -5 1 -5 0 -3)
1969/12/31/18:00:40.193,(-13 -5 -2 -14 -6 -2 -2 -8)
1969/12/31/18:00:40.193,(-4 4 -2 2 3 -4 -3 -3)
1969/12/31/18:00:40.194,(-2 -5 5 15 0 -4 3 2)
1969/12/31/18:00:40.194,(3 -4 -9 -6 7 5 7 7)
1969/12/31/18:00:40.207,(-3 -5 -10 -7 -5 -3 1 -3)
1969/12/31/18:00:40.207,(-3 -3 3 8 5 1 0 0)
1969/12/31/18:00:40.209,(-6 -5 -14 -7 -12 -6 -2 -4)
1969/12/31/18:00:40.209,(1 4 4 1 11 8 0 2)
1969/12/31/18:00:40.230,(-3 -2 4 15 6 3 -7 -5)
1969/12/31/18:00:40.230,(5 6 4 -4 -9 1 -1 1)
1969/12/31/18:00:40.232,(4 4 4 -3 2 1 -1 0)
1969/12/31/18:00:40.232,(-5 -4 3 0 1 -1 -5 -5)
1969/12/31/18:00:40.243,(4 0 -20 -16 -13 -2 0 -1)
1969/12/31/18:00:40.243,(5 4 8 7 3 4 1 2)
1969/12/31/18:00:40.252,(4 2 6 19 23 8 1 4)
1969/12/31/18:00:40.252,(-8 0 21 12 2 -5 -6 -6)
1969/12/31/18:00:40.268,(0 -1 -7 -8 -3 -3 -1 0)
1969/12/31/18:00:40.268,(-3 -5 -7 -9 -11 -7 -1 0)
1969/12/31/18:00:40.274,(5 -1 -6 -5 -12 -2 1 4)
1969/12/31/18:00:40.274,(4 0 -6 3 16 0 0 1)
1969/12/31/18:00:40.290,(-1 0 3 -2 -1 0 0 -1)
1969/12/31/18:00:40.290,(-4 0 -4 0 0 -5 -1 -4)
1969/12/31/18:00:40.296,(-1 0 5 -1 -6 -2 0 -2)
1969/12/31/18:00:40.296,(-4 -3 -4 -6 -9 -4 -3 -5)
1969/12/31/18:00:40.303,(0 4 3 2 1 0 1 1)
1969/12/31/18:00:40.304,(2 -1 -3 6 1 2 2 4)
1969/12/31/18:00:40.312,(-1 -3 -3 -5 0 1 2 2)
1969/12/31/18:00:40.312,(-6 -4 -3 -2 -4 -1 -3 -6)
1969/12/31/18:00:40.327,(-3 -3 4 3 3 -1 1 -2)
1969/12/31/18:00:40.327,(2 5 -7 -9 -6 -1 -1 1)
1969/12/31/18:00:40.329,(1 1 -3 -2 -2 -1 2 2)
1969/12/31/18:00:40.329,(1 -3 1 2 3 0 0 2)
1969/12/31/18:00:40.349,(-3 0 3 3 3 2 -2 -3)
1969/12/31/18:00:40.349,(-4 -5 -1 0 -3 -6 -6 -7)
1969/12/31/18:00:40.350,(-3 -2 -3 -2 -3 -3 0 -2)
1969/12/31/18:00:40.350,(3 5 0 2 4 1 0 4)
1969/12/31/18:00:40.372,(2 -2 -1 -5 -4 -1 0 2)
1969/12/31/18:00:40.372,(-2 -1 1 0 1 -2 3 0)
1969/12/31/18:00:40.372,(0 -1 2 3 5 1 -2 -3)
1969/12/31/18:00:40.372,(-6 -6 0 -2 -5 -2 -3 -4)
1969/12/31/18:00:40.396,(0 -5 -14 -6 -10 -2 2 1)
1969/12/31/18:00:40.396,(9 5 7 7 13 4 -3 4)
1969/12/31/18:00:40.397,(-1 3 7 1 -3 2 4 1)
1969/12/31/18:00:40.397,(0 0 0 5 12 5 2 1)
1969/12/31/18:00:40.409,(-5 -1 5 -2 -3 -1 -1 -4)
1969/12/31/18:00:40.409,(-6 -6 -6 -7 -9 -7 -6 -6)
1969/12/31/18:00:40.410,(5 -2 -4 2 4 2 1 4)
1969/12/31/18:00:40.410,(2 4 2 -5 -10 -3 2 -1)
1969/12/31/18:00:40.432,(5 2 -3 -2 2 -4 -8 1)
1969/12/31/18:00:40.432,(-5 1 2 1 -2 -3 0 -13)
1969/12/31/18:00:40.433,(0 0 2 -3 -1 2 13 13)
1969/12/31/18:00:40.433,(6 2 1 1 0 6 5 9)
1969/12/31/18:00:40.447,(-1 -3 3 2 2 3 2 1)
1969/12/31/18:00:40.447,(-1 -1 -2 -3 -3 -3 -9 -2)
1969/12/31/18:00:40.447,(-7 -4 -1 0 1 -4 -12 -13)
1969/12/31/18:00:40.447,(-1 -2 -3 0 0 -1 0 -1)
1969/12/31/18:00:40.469,(0 0 2 0 1 0 1 2)
1969/12/31/18:00:40.469,(-3 -3 2 1 4 5 0 0)
1969/12/31/18:00:40.470,(5 6 -5 -1 -3 -3 0 1)
1969/12/31/18:00:40.470,(-4 -4 -1 -3 -8 -8 -5 -2)
1969/12/31/18:00:40.492,(-1 4 5 1 2 1 -2 -4)
1969/12/31/18:00:40.492,(4 -1 -4 3 6 5 5 7)
1969/12/31/18:00:40.492,(-5 -6 2 -2 0 -4 -3 -3)
1969/12/31/18:00:40.492,(-2 2 1 0 -4 -2 -2 -4)
1969/12/31/18:00:40.507,(-5 -2 -1 -3 -2 -4 -6 -10)
1969/12/31/18:00:40.507,(-2 -2 1 3 -2 2 14 12)
1969/12/31/18:00:40.507,(6 3 -3 -1 1 2 -1 4)
1969/12/31/18:00:40.507,(-6 -4 -4 0 -1 -2 -3 -6)
1969/12/31/18:00:40.529,(1 0 0 -2 -1 0 0 3)
1969/12/31/18:00:40.529,(-1 0 -1 -1 -2 -3 -5 -6)
1969/12/31/18:00:40.530,(-3 -1 1 -2 -3 -2 -3 -2)
1969/12/31/18:00:40.530,(-3 -4 -3 -4 -3 -1 -2 -2)
1969/12/31/18:00:40.552,(-1 -1 0 3 1 2 4 6)
1969/12/31/18:00:40.552,(4 1 -1 -2 -1 0 2 3)
1969/12/31/18:00:40.552,(-2 1 3 2 0 -2 -3 -2)
1969/12/31/18:00:40.552,(0 -1 1 -2 -3 -1 -1 -1)
1969/12/31/18:00:40.567,(-1 -2 -2 -2 -1 -1 0 -2)
1969/12/31/18:00:40.567,(4 3 -1 0 0 1 0 3)
1969/12/31/18:00:40.568,(0 -5 -1 -1 -2 -3 -3 -2)
1969/12/31/18:00:40.568,(-1 -2 -3 1 -1 0 -1 -3)
1969/12/31/18:00:40.597,(0 -1 4 1 3 -2 -3 -1)
1969/12/31/18:00:40.597,(-4 -3 2 -1 1 3 1 1)
1969/12/31/18:00:40.598,(0 3 2 -1 -2 1 3 1)
1969/12/31/18:00:40.598,(0 -3 -3 -1 -3 0 -1 0)
1969/12/31/18:00:40.612,(2 1 -3 -2 1 0 3 3)
1969/12/31/18:00:40.612,(-2 -1 -1 -1 -1 -2 -4 -2)
1969/12/31/18:00:40.612,(-4 -5 -1 -2 -2 0 -3 -5)
1969/12/31/18:00:40.612,(3 4 3 0 1 1 4 3)
1969/12/31/18:00:40.627,(-1 -1 -4 -1 0 -3 -3 -2)
1969/12/31/18:00:40.627,(0 0 -1 -2 -3 1 -1 -1)
1969/12/31/18:00:40.627,(1 2 -1 0 1 1 1 2)
1969/12/31/18:00:40.628,(-2 -1 -1 -4 -1 -2 0 -1)
1969/12/31/18:00:40.649,(-1 -1 3 2 1 0 -1 -1)
1969/12/31/18:00:40.649,(-4 -3 -2 -3 -3 -1 -3 -4)
1969/12/31/18:00:40.650,(-1 0 1 0 1 0 -2 -1)
1969/12/31/18:00:40.650,(0 -2 0 0 2 2 -2 -2)
1969/12/31/18:00:40.672,(2 -1 -3 2 2 6 4 3)
1969/12/31/18:00:40.672,(-1 -5 -2 -2 -2 -2 -1 0)
1969/12/31/18:00:40.672,(-2 -1 1 -1 0 -1 -4 -3)
1969/12/31/18:00:40.672,(0 0 -1 -1 -1 -1 0 2)
1969/12/31/18:00:40.686,(-3 -2 -2 0 -1 1 1 1)
1969/12/31/18:00:40.686,(0 1 0 -1 -1 -2 -3 -1)
1969/12/31/18:00:40.694,(0 1 -1 0 0 2 4 2)
1969/12/31/18:00:40.694,(0 -1 -1 -3 -1 0 0 0)
1969/12/31/18:00:40.709,(0 1 0 0 -1 0 -2 0)
1969/12/31/18:00:40.709,(2 0 -1 -1 -2 -2 -2 3)
1969/12/31/18:00:40.710,(-1 -3 0 3 0 0 -2 -3)
1969/12/31/18:00:40.710,(1 0 0 3 3 -1 -2 -1)
1969/12/31/18:00:40.732,(-4 0 2 -5 -3 1 -1 -1)
1969/12/31/18:00:40.732,(2 2 -1 -2 2 4 2 -1)
1969/12/31/18:00:40.732,(1 1 -1 -2 -2 -1 0 2)
1969/12/31/18:00:40.732,(-1 -1 1 -1 -2 -3 -5 -3)
1969/12/31/18:00:40.747,(-2 -3 0 1 1 0 -1 -4)
1969/12/31/18:00:40.747,(-2 -3 -4 -2 -3 -5 0 -2)
1969/12/31/18:00:40.747,(0 1 -1 0 2 3 3 1)
1969/12/31/18:00:40.747,(0 -1 -1 -1 1 4 2 2)
1969/12/31/18:00:40.769,(1 -2 -2 -2 -1 -2 -2 0)
1969/12/31/18:00:40.769,(-3 -1 0 2 2 -2 -1 -1)
1969/12/31/18:00:40.770,(-3 -2 1 -2 0 -2 -4 -5)
1969/12/31/18:00:40.770,(-2 -2 -3 -3 -2 -3 1 -1)
1969/12/31/18:00:40.792,(1 1 0 0 -2 -2 -1 1)
1969/12/31/18:00:40.792,(0 -1 1 0 0 2 -1 2)
1969/12/31/18:00:40.793,(-1 -2 0 0 0 0 -1 -1)
1969/12/31/18:00:40.793,(-1 -2 0 -2 -2 -2 2 -1)
1969/12/31/18:00:40.807,(1 1 0 -1 -1 -1 2 2)
1969/12/31/18:00:40.807,(1 0 0 -2 -1 0 0 -2)
1969/12/31/18:00:40.807,(-1 -1 -3 -1 -3 -4 -2 -1)
1969/12/31/18:00:40.807,(-1 -1 -1 0 0 0 -3 -1)
1969/12/31/18:00:40.829,(1 2 -1 4 1 0 -1 1)
1969/12/31/18:00:40.829,(0 -2 -4 -4 -2 -1 2 2)
1969/12/31/18:00:40.830,(-4 -3 -3 0 1 -2 -3 -3)
1969/12/31/18:00:40.830,(-2 -1 0 -3 -2 0 -2 -1)
1969/12/31/18:00:40.852,(-2 -1 -1 -1 1 -2 -4 -5)
1969/12/31/18:00:40.852,(-1 -1 -1 0 0 0 0 -1)
1969/12/31/18:00:40.853,(2 2 0 -1 -2 0 2 0)
1969/12/31/18:00:40.853,(-2 -3 -3 0 0 1 -1 1)
1969/12/31/18:00:40.867,(-1 0 0 -1 0 -3 0 0)
1969/12/31/18:00:40.867,(1 1 1 2 1 0 -2 -1)
1969/12/31/18:00:40.867,(-1 -1 -1 1 1 1 0 -1)
1969/12/31/18:00:40.867,(1 -1 0 1 0 -2 -2 1)
1969/12/31/18:00:40.889,(0 0 -1 -4 -1 3 3 2)
1969/12/31/18:00:40.889,(0 -1 1 -2 -1 1 3 1)
1969/12/31/18:00:40.890,(-3 0 -2 -1 -2 -1 -2 -2)
1969/12/31/18:00:40.890,(1 1 -1 -1 -2 -3 1 0)
1969/12/31/18:00:40.911,(1 -1 0 1 1 -2 -4 -2)
1969/12/31/18:00:40.911,(-1 -2 -1 0 0 1 2 1)
1969/12/31/18:00:40.919,(1 0 -2 -2 1 -1 -1 1)
1969/12/31/18:00:40.919,(0 2 0 2 1 2 2 -1)
1969/12/31/18:00:40.927,(-2 -3 -1 0 -3 -3 -1 -3)
1969/12/31/18:00:40.927,(-1 2 -1 -1 2 -1 -2 -2)
1969/12/31/18:00:40.927,(0 -1 -2 -2 1 -2 -2 0)
1969/12/31/18:00:40.927,(0 -1 -1 1 0 1 -1 1)
1969/12/31/18:00:40.949,(1 1 -1 -2 -1 1 -1 0)
1969/12/31/18:00:40.949,(-1 1 0 2 -1 0 -3 -4)
1969/12/31/18:00:40.950,(0 -1 -2 -2 -2 1 2 1)
1969/12/31/18:00:40.950,(0 2 -1 -1 -1 -1 -2 0)
