time,.data
1969-12-31 18:00:08.196000000,(0 3 5 8 2 0 1 0)
1969-12-31 18:00:08.196000000,(1 -1 -1 -1 0 -2 2 3)
1969-12-31 18:00:08.204700381,(3 2 0 1 0 -1 -3 -4)
1969-12-31 18:00:08.204700381,(-1 -2 -2 0 -1 -1 -2 0)
1969-12-31 18:00:08.219926047,(-2 0 -1 -2 -2 -1 0 -3)
1969-12-31 18:00:08.219926047,(-3 -3 -2 -3 -3 0 -1 -1)
1969-12-31 18:00:08.228626427,(-1 0 0 -1 -2 1 -2 -2)
1969-12-31 18:00:08.228626427,(1 -1 0 3 0 1 0 0)
1969-12-31 18:00:08.238414356,(-1 -2 -1 -2 -3 0 0 0)
1969-12-31 18:00:08.238414356,(-3 -1 -2 -1 -2 -1 -3 -1)
1969-12-31 18:00:08.239501903,(-5 -5 -7 -7 -4 -2 -1 -3)
1969-12-31 18:00:08.239501903,(-3 0 -3 -4 -1 -1 -2 -2)
1969-12-31 18:00:08.261252855,(0 -1 -3 -3 0 1 -2 0)
1969-12-31 18:00:08.261252855,(0 0 -1 -1 -1 -2 -1 -1)
1969-12-31 18:00:08.268865688,(-1 -1 1 -1 0 -1 0 -1)
1969-12-31 18:00:08.268865688,(-2 -3 -2 -1 -1 -1 0 -1)
1969-12-31 18:00:08.285178902,(1 1 2 4 1 0 -1 1)
1969-12-31 18:00:08.285178902,(1 0 1 0 0 0 -2 1)
1969-12-31 18:00:08.293879282,(-1 -1 0 0 1 0 0 -1)
1969-12-31 18:00:08.293879282,(0 0 -1 -1 -1 -2 0 -1)
1969-12-31 18:00:08.311280044,(-2 -1 -2 -2 -1 -3 -1 -2)
1969-12-31 18:00:08.311280044,(0 -1 0 -1 -1 0 1 -2)
1969-12-31 18:00:08.312367591,(-1 -2 0 -1 -1 -1 1 0)
1969-12-31 18:00:08.312367591,(1 0 1 1 0 1 0 0)
1969-12-31 18:00:08.335206090,(-2 -2 -1 -2 -1 -2 -2 -2)
1969-12-31 18:00:08.335206090,(-1 1 -1 0 -2 -3 0 -2)
1969-12-31 18:00:08.336293638,(-1 -1 0 1 0 -1 0 1)
1969-12-31 18:00:08.336293638,(-1 0 -1 1 -1 -2 0 -3)
1969-12-31 18:00:08.351519304,(-1 -3 -3 -2 -2 1 -1 -1)
1969-12-31 18:00:08.351519304,(-1 -1 -1 0 0 0 1 0)
1969-12-31 18:00:08.359132137,(-3 -1 -1 -1 0 -2 -3 1)
1969-12-31 18:00:08.359132137,(0 0 -1 -2 -4 -2 -4 -1)
1969-12-31 18:00:08.366744970,(-3 -1 0 0 -1 -1 -2 1)
1969-12-31 18:00:08.367832518,(0 0 -1 0 -2 2 -1 -1)
1969-12-31 18:00:08.367832518,(-1 -1 -1 -1 -2 -1 1 -1)
1969-12-31 18:00:08.367832518,(1 2 5 4 0 1 1 1)
1969-12-31 18:00:08.392846112,(-2 -4 -7 -5 -1 -2 -4 -2)
1969-12-31 18:00:08.392846112,(-2 -4 -3 -8 -6 7 -2 -2)
1969-12-31 18:00:08.393933660,(2 5 3 9 7 -6 -8 -3)
1969-12-31 18:00:08.393933660,(-1 -1 7 5 -2 -14 3 0)
1969-12-31 18:00:08.416772159,(0 3 3 4 -2 -4 1 2)
1969-12-31 18:00:08.416772159,(0 -1 0 2 4 1 4 2)
1969-12-31 18:00:08.424384992,(-4 -6 -11 -11 -7 2 5 0)
1969-12-31 18:00:08.424384992,(-4 -3 -2 -8 -5 -4 -21 -6)
1969-12-31 18:00:08.441785753,(0 1 -14 -12 -2 0 0 -1)
1969-12-31 18:00:08.441785753,(-1 0 19 3 2 2 5 1)
1969-12-31 18:00:08.442873301,(3 7 19 23 6 10 23 4)
1969-12-31 18:00:08.442873301,(-2 0 -2 8 6 -4 -8 1)
1969-12-31 18:00:08.457011419,(-2 -5 -5 -20 -9 -10 -7 -3)
1969-12-31 18:00:08.457011419,(1 -1 -14 -10 -11 1 4 0)
1969-12-31 18:00:08.458098967,(-2 -2 3 -1 1 0 -7 -1)
1969-12-31 18:00:08.458098967,(-2 -5 -9 -14 -4 1 17 9)
1969-12-31 18:00:08.490725394,(-2 -3 -6 4 -1 2 -7 -7)
1969-12-31 18:00:08.490725394,(-2 -8 -20 -18 -3 -6 12 2)
1969-12-31 18:00:08.491812942,(-4 0 7 -4 -6 -9 -17 -5)
1969-12-31 18:00:08.491812942,(4 3 9 15 -1 -12 -12 1)
1969-12-31 18:00:08.498338227,(-2 0 -19 -7 2 -3 -23 -13)
1969-12-31 18:00:08.498338227,(3 6 36 20 15 34 20 5)
1969-12-31 18:00:08.498338227,(-3 -9 -42 -18 -8 -26 2 7)
1969-12-31 18:00:08.498338227,(4 6 17 -7 -2 -4 2 -1)
1969-12-31 18:00:08.522264274,(4 2 10 18 3 -12 3 6)
1969-12-31 18:00:08.522264274,(-3 -7 -23 -10 -3 -9 -14 -5)
1969-12-31 18:00:08.523351822,(0 0 -4 -6 1 -2 -3 -3)
1969-12-31 18:00:08.523351822,(-9 -11 -21 -13 -6 -3 2 -4)
1969-12-31 18:00:08.547277868,(1 1 8 -2 2 3 7 3)
1969-12-31 18:00:08.547277868,(3 9 15 25 9 -2 -5 -1)
1969-12-31 18:00:08.549452964,(-3 0 7 -2 2 14 2 0)
1969-12-31 18:00:08.549452964,(-5 -3 -17 -11 -5 8 -1 -3)
1969-12-31 18:00:08.562503535,(-3 -4 7 -12 -4 14 6 -3)
1969-12-31 18:00:08.562503535,(-1 2 0 10 -2 -8 -6 -1)
1969-12-31 18:00:08.564678630,(4 8 19 7 -1 -2 -3 -4)
1969-12-31 18:00:08.564678630,(-5 -5 -13 -1 1 7 -1 -13)
1969-12-31 18:00:08.587517129,(-2 1 12 -4 -3 1 4 -3)
1969-12-31 18:00:08.587517129,(2 5 12 -2 -8 -11 -15 -10)
1969-12-31 18:00:08.603830343,(-4 -7 -5 3 0 4 -3 -7)
1969-12-31 18:00:08.603830343,(-3 -4 -2 -2 -3 8 3 -3)
1969-12-31 18:00:08.612530723,(-1 -3 -10 -9 -4 0 4 2)
1969-12-31 18:00:08.612530723,(-3 4 7 6 -3 -6 -5 -2)
1969-12-31 18:00:08.620143556,(3 -1 3 4 1 8 3 5)
1969-12-31 18:00:08.620143556,(3 -7 -16 -11 -8 -3 -5 -7)
1969-12-31 18:00:08.627756389,(1 -4 9 25 6 1 3 7)
1969-12-31 18:00:08.627756389,(-3 0 -9 -10 0 3 0 3)
1969-12-31 18:00:08.636456770,(0 9 11 4 -1 6 7 9)
1969-12-31 18:00:08.636456770,(-3 0 1 0 1 1 -4 -6)
1969-12-31 18:00:08.652769984,(-7 -2 -8 -6 -6 -4 -3 -9)
1969-12-31 18:00:08.652769984,(6 1 -10 -4 -1 2 -1 2)
1969-12-31 18:00:08.653857531,(-3 -14 -16 -10 -5 -6 -5 -7)
1969-12-31 18:00:08.653857531,(-4 1 3 0 1 -2 0 -3)
1969-12-31 18:00:08.677783578,(1 2 6 5 1 -2 -1 2)
1969-12-31 18:00:08.677783578,(-1 -16 -17 -6 -1 -9 -2 1)
1969-12-31 18:00:08.678871126,(2 3 -1 -8 -3 -5 0 3)
1969-12-31 18:00:08.678871126,(0 -9 -15 -1 2 0 3 10)
1969-12-31 18:00:08.693009244,(6 13 13 6 3 -6 0 5)
1969-12-31 18:00:08.693009244,(-2 12 20 4 2 -4 -1 1)
1969-12-31 18:00:08.701709625,(-4 -9 -14 -6 0 -1 -2 -1)
1969-12-31 18:00:08.701709625,(8 7 7 5 4 -3 1 2)
1969-12-31 18:00:08.719110386,(-15 -16 -3 1 3 0 1 -5)
1969-12-31 18:00:08.719110386,(0 4 -10 -9 -2 -4 -2 -3)
1969-12-31 18:00:08.720197934,(2 19 34 16 2 0 -4 -5)
1969-12-31 18:00:08.720197934,(3 11 9 4 3 4 4 7)
1969-12-31 18:00:08.743036433,(1 -24 -29 -14 -7 -1 -1 6)
1969-12-31 18:00:08.743036433,(10 50 45 7 2 -1 -2 0)
1969-12-31 18:00:08.744123980,(-8 -16 -10 -4 -3 0 -3 -4)
1969-12-31 18:00:08.744123980,(1 7 5 0 1 4 8 4)
1969-12-31 18:00:08.758262099,(-2 -4 0 0 -2 4 -7 -23)
1969-12-31 18:00:08.758262099,(2 -22 -16 -4 -3 -4 -6 -13)
1969-12-31 18:00:08.766962480,(-9 3 -3 -3 -2 1 6 11)
1969-12-31 18:00:08.766962480,(-5 -4 2 -3 -4 1 2 4)
1969-12-31 18:00:08.784363241,(-1 9 7 7 5 4 -6 -12)
1969-12-31 18:00:08.784363241,(-5 -16 -14 -3 -2 1 2 4)
1969-12-31 18:00:08.785450788,(36 9 1 -4 -4 -1 -1 -1)
1969-12-31 18:00:08.785450788,(-15 -2 3 5 2 1 0 -6)
1969-12-31 18:00:08.808289288,(5 3 0 -4 -4 -3 9 22)
1969-12-31 18:00:08.808289288,(11 1 -5 -1 -1 -5 -21 -26)
1969-12-31 18:00:08.809376835,(-15 -13 -9 -3 -2 -4 -3 -9)
1969-12-31 18:00:08.809376835,(66 14 5 0 -1 2 6 14)
1969-12-31 18:00:08.823514954,(-52 -4 3 1 3 3 12 12)
1969-12-31 18:00:08.823514954,(-74 -41 -19 -13 -11 -19 -18 -36)
1969-12-31 18:00:08.832215334,(37 12 0 1 5 20 12 24)
1969-12-31 18:00:08.832215334,(-52 -23 -5 -4 -1 8 -16 -40)
1969-12-31 18:00:08.849616096,(37 17 1 -2 -9 -43 -15 12)
1969-12-31 18:00:08.849616096,(-4 -13 -14 -5 -5 8 17 0)
1969-12-31 18:00:08.850703643,(2 18 6 7 4 -16 -10 2)
1969-12-31 18:00:08.850703643,(4 -2 -8 -7 -7 8 24 25)
1969-12-31 18:00:08.872454595,(22 2 2 10 14 7 -15 35)
1969-12-31 18:00:08.872454595,(-12 -5 -11 -9 4 28 -2 -22)
1969-12-31 18:00:08.881154976,(-18 -3 9 -2 -6 -41 -22 -20)
1969-12-31 18:00:08.881154976,(-21 2 13 8 5 -15 -33 -35)
1969-12-31 18:00:08.898555737,(36 4 -4 -8 -4 31 3 27)
1969-12-31 18:00:08.898555737,(54 24 11 3 -11 -30 23 39)
1969-12-31 18:00:08.905081022,(-14 -12 -11 -8 -3 3 -7 5)
1969-12-31 18:00:08.905081022,(-34 4 13 10 10 20 -22 -75)
1969-12-31 18:00:08.913781403,(0 5 0 -4 -11 7 -23 -49)
1969-12-31 18:00:08.913781403,(8 -4 -2 -1 -7 -45 2 18)
1969-12-31 18:00:08.922481784,(-11 -13 -7 -5 4 60 13 -16)
1969-12-31 18:00:08.922481784,(0 -18 -7 -2 0 -4 13 39)
1969-12-31 18:00:08.938794997,(18 19 0 -2 -5 -8 12 18)
1969-12-31 18:00:08.938794997,(-14 -16 -7 0 2 -1 3 36)
1969-12-31 18:00:08.940970092,(-29 -29 -12 -7 -8 -23 -12 -37)
1969-12-31 18:00:08.940970092,(-21 -12 -13 -7 -4 -21 -26 -22)
1969-12-31 18:00:08.954020663,(-8 -4 12 8 1 7 39 22)
1969-12-31 18:00:08.954020663,(50 24 8 6 10 5 -10 85)
1969-12-31 18:00:08.963808592,(10 -1 -5 -4 -5 -4 -14 -64)
1969-12-31 18:00:08.963808592,(-36 -9 -4 -4 -6 -9 -5 1)
1969-12-31 18:00:08.979034258,(8 9 1 3 5 -47 -42 -3)
1969-12-31 18:00:08.979034258,(-6 2 2 1 7 68 44 -21)
1969-12-31 18:00:08.987734638,(19 9 -1 4 4 12 56 89)
1969-12-31 18:00:08.987734638,(-30 -17 -10 -10 -14 -28 -35 -35)
1969-12-31 18:00:09.004047852,(-27 -19 -7 -4 3 17 14 10)
1969-12-31 18:00:09.004047852,(-9 -4 -2 -2 -5 -41 -29 -36)
1969-12-31 18:00:09.006222947,(1 12 4 4 -4 -2 16 -12)
1969-12-31 18:00:09.006222947,(38 14 4 7 27 71 -17 21)
1969-12-31 18:00:09.027973899,(-16 -3 -1 -1 -13 -49 27 -18)
1969-12-31 18:00:09.027973899,(-1 0 3 5 11 38 -49 -44)
1969-12-31 18:00:09.045374660,(-45 -3 -8 -9 2 13 -10 -94)
1969-12-31 18:00:09.045374660,(98 36 22 15 -2 -63 44 97)
1969-12-31 18:00:09.046462208,(-43 -26 -15 -15 0 60 -39 -60)
1969-12-31 18:00:09.046462208,(-11 -1 4 3 -4 -28 23 18)
1969-12-31 18:00:09.051899946,(18 1 -7 -6 -10 -32 -9 71)
1969-12-31 18:00:09.051899946,(-1 4 5 3 2 7 20 -3)
1969-12-31 18:00:09.069300707,(27 2 -3 0 2 18 10 -33)
1969-12-31 18:00:09.069300707,(-57 -5 -9 -9 -11 -15 7 -41)
1969-12-31 18:00:09.071475802,(43 6 8 4 8 23 0 63)
1969-12-31 18:00:09.071475802,(-31 -50 -27 -15 -7 52 -9 6)
1969-12-31 18:00:09.094314301,(-4 14 15 8 -2 -25 40 33)
1969-12-31 18:00:09.094314301,(-22 -7 -4 0 2 22 14 41)
1969-12-31 18:00:09.096489396,(6 8 0 -2 -3 -1 -3 -27)
1969-12-31 18:00:09.096489396,(-19 2 1 -7 -15 -25 -16 -43)
1969-12-31 18:00:09.109539967,(10 -16 -2 4 6 16 30 59)
1969-12-31 18:00:09.109539967,(22 0 -4 -5 -2 8 -50 -71)
1969-12-31 18:00:09.117152800,(-23 4 8 10 6 -5 11 17)
1969-12-31 18:00:09.117152800,(-2 4 -5 -6 -7 -8 -15 -19)
1969-12-31 18:00:09.134553562,(-27 -14 -14 -12 -8 -31 -8 -14)
1969-12-31 18:00:09.134553562,(-12 -10 -1 -2 -3 5 16 -19)
1969-12-31 18:00:09.136728657,(-15 -19 -9 -4 0 17 -30 -76)
1969-12-31 18:00:09.136728657,(11 9 2 2 -3 -19 2 69)
1969-12-31 18:00:09.159567156,(30 7 -3 -2 -3 29 7 -32)
1969-12-31 18:00:09.159567156,(30 18 5 5 4 -37 -29 59)
1969-12-31 18:00:09.160654704,(-61 -32 -18 -14 -13 -28 -18 -50)
1969-12-31 18:00:09.160654704,(13 12 -3 -2 -3 13 19 -61)
1969-12-31 18:00:09.174792822,(7 2 1 -1 2 -13 -58 -74)
1969-12-31 18:00:09.174792822,(47 17 8 9 6 19 42 32)
1969-12-31 18:00:09.191106036,(-39 -21 -11 -6 -8 -5 -8 4)
1969-12-31 18:00:09.191106036,(10 8 8 5 3 16 -10 12)
1969-12-31 18:00:09.199806417,(-7 -13 -6 -3 -9 -51 22 47)
1969-12-31 18:00:09.199806417,(17 -2 0 4 7 13 -4 -24)
1969-12-31 18:00:09.201981512,(29 3 -1 -2 -3 4 -4 37)
1969-12-31 18:00:09.201981512,(21 17 4 -1 -2 -4 -2 -31)
1969-12-31 18:00:09.224820011,(-18 8 2 -2 -3 2 -22 -54)
1969-12-31 18:00:09.224820011,(21 -2 -3 -2 -3 19 22 99)
1969-12-31 18:00:09.225907558,(14 16 17 14 10 -9 8 -1)
1969-12-31 18:00:09.225907558,(-17 -10 -9 -9 -4 5 -2 -27)
1969-12-31 18:00:09.240045677,(22 18 6 1 1 5 -1 29)
1969-12-31 18:00:09.240045677,(-59 -26 -7 -1 3 12 -3 -27)
1969-12-31 18:00:09.247658510,(19 -7 -9 -8 -7 -16 -2 37)
1969-12-31 18:00:09.247658510,(-72 -20 -3 0 -6 -30 -17 -59)
1969-12-31 18:00:09.265059271,(-31 -10 0 2 7 16 1 24)
1969-12-31 18:00:09.265059271,(-4 9 -5 -8 -11 -8 -12 -38)
1969-12-31 18:00:09.267234367,(-38 -16 -4 -3 -4 -9 1 -30)
1969-12-31 18:00:09.267234367,(35 6 3 2 8 16 37 58)
1969-12-31 18:00:09.290072866,(24 20 5 5 3 5 5 27)
1969-12-31 18:00:09.290072866,(7 1 -3 -4 -5 -8 -20 4)
1969-12-31 18:00:09.291160413,(-47 -28 -13 -10 -9 0 -4 -28)
1969-12-31 18:00:09.292247961,(9 7 3 0 2 9 6 5)
1969-12-31 18:00:09.304210984,(-3 -14 -9 -7 -10 -21 -24 -50)
1969-12-31 18:00:09.304210984,(26 5 6 7 9 45 35 27)
1969-12-31 18:00:09.315086460,(-12 7 2 0 6 -8 -20 -57)
1969-12-31 18:00:09.315086460,(-12 -11 -8 -5 -16 -21 3 8)
1969-12-31 18:00:09.330312126,(5 21 8 11 38 89 4 -12)
1969-12-31 18:00:09.330312126,(17 -11 -4 -8 -39 -74 -23 -11)
1969-12-31 18:00:09.345537792,(-4 5 5 5 -7 -11 55 56)
1969-12-31 18:00:09.345537792,(23 27 8 4 3 -26 -50 7)
1969-12-31 18:00:09.355325721,(1 -4 5 2 -12 0 15 13)
1969-12-31 18:00:09.355325721,(-19 -6 -9 -10 3 1 -4 -33)
1969-12-31 18:00:09.356413268,(42 25 7 11 15 25 19 87)
1969-12-31 18:00:09.356413268,(-5 -4 4 4 6 7 43 19)
1969-12-31 18:00:09.369463839,(22 13 3 4 24 23 14 68)
1969-12-31 18:00:09.370551387,(-43 -12 -4 0 18 15 -7 -73)
1969-12-31 18:00:09.380339315,(14 7 4 -2 -37 -76 -60 -33)
1969-12-31 18:00:09.380339315,(43 21 9 14 24 13 27 59)
1969-12-31 18:00:09.395564981,(-68 -34 -13 -5 -34 -37 -15 -27)
1969-12-31 18:00:09.395564981,(-7 -22 -14 -26 -14 30 26 20)
1969-12-31 18:00:09.397740076,(41 19 5 7 21 48 13 31)
1969-12-31 18:00:09.397740076,(-5 -8 -7 -22 -71 -97 -29 -31)
1969-12-31 18:00:09.420578575,(3 8 3 5 21 28 -8 -17)
1969-12-31 18:00:09.420578575,(14 15 7 9 0 -5 8 17)
1969-12-31 18:00:09.421666123,(-18 -13 -5 6 50 45 -15 -27)
1969-12-31 18:00:09.422753670,(-9 -8 6 35 105 59 9 8)
1969-12-31 18:00:09.435804241,(-36 -23 -20 -40 -114 -56 -30 -69)
1969-12-31 18:00:09.435804241,(3 23 11 2 1 -5 13 35)
1969-12-31 18:00:09.444504622,(25 7 -2 -12 -13 -15 -7 2)
1969-12-31 18:00:09.444504622,(-1 -1 -3 -1 -1 16 14 2)
1969-12-31 18:00:09.460817835,(30 23 18 36 68 -23 -4 3)
1969-12-31 18:00:09.460817835,(7 -9 -2 0 -36 -12 -19 8)
1969-12-31 18:00:09.462992931,(-13 -10 -10 -33 -70 -32 -10 -41)
1969-12-31 18:00:09.462992931,(-26 -9 -6 -17 -14 6 -6 -23)
1969-12-31 18:00:09.484743883,(29 9 -2 -1 28 24 41 95)
1969-12-31 18:00:09.484743883,(9 7 9 21 49 6 -12 -6)
1969-12-31 18:00:09.501057096,(15 16 9 26 35 14 9 2)
1969-12-31 18:00:09.501057096,(-24 -19 -12 -11 -12 2 10 -7)
1969-12-31 18:00:09.509757477,(14 -1 -2 -7 -26 -4 13 17)
1969-12-31 18:00:09.509757477,(-25 -4 -2 1 10 -31 -28 -41)
1969-12-31 18:00:09.511932572,(9 5 -1 1 6 18 11 11)
1969-12-31 18:00:09.511932572,(43 20 6 0 -4 13 11 27)
1969-12-31 18:00:09.526070691,(-28 -20 -12 -12 -12 -12 -10 -40)
1969-12-31 18:00:09.526070691,(-2 -5 -12 -5 38 26 -7 -9)
1969-12-31 18:00:09.528245786,(-7 -14 23 5 -64 -55 1 6)
1969-12-31 18:00:09.528245786,(-23 -6 -4 -14 -38 -29 -6 -19)
1969-12-31 18:00:09.551084285,(18 23 10 10 14 0 -3 -3)
1969-12-31 18:00:09.551084285,(-41 -28 -11 1 8 4 -4 -11)
1969-12-31 18:00:09.552171833,(15 0 -12 -7 34 23 39 37)
1969-12-31 18:00:09.553259380,(31 30 -7 -11 -53 -25 -30 8)
1969-12-31 18:00:09.565222403,(-31 -55 -21 -15 -5 -5 -4 -29)
1969-12-31 18:00:09.565222403,(8 18 33 12 28 31 29 38)
1969-12-31 18:00:09.576097879,(1 -4 -4 0 -29 -38 -14 -16)
1969-12-31 18:00:09.576097879,(-23 -4 9 15 51 48 14 -15)
1969-12-31 18:00:09.591323545,(24 -33 -74 -33 -32 -24 -7 -5)
1969-12-31 18:00:09.591323545,(19 16 -23 -14 13 -11 -4 8)
1969-12-31 18:00:09.593498641,(-18 12 60 25 -36 0 -20 -24)
1969-12-31 18:00:09.593498641,(1 22 23 7 11 9 21 -10)
1969-12-31 18:00:09.616337140,(-48 17 43 32 64 30 -22 -66)
1969-12-31 18:00:09.616337140,(22 -8 -30 -20 -80 -59 -32 -47)
1969-12-31 18:00:09.617424687,(13 6 -42 -23 18 5 -4 -5)
1969-12-31 18:00:09.617424687,(13 -7 27 19 31 44 -4 16)
1969-12-31 18:00:09.631562806,(11 -23 -25 10 38 -1 21 46)
1969-12-31 18:00:09.631562806,(-47 -12 -8 -19 -63 -45 -23 -70)
1969-12-31 18:00:09.646788472,(-42 12 -1 -8 6 10 6 -22)
1969-12-31 18:00:09.646788472,(-11 -46 -41 -9 41 35 14 18)
1969-12-31 18:00:09.656576400,(51 39 9 -9 -67 -55 4 39)
1969-12-31 18:00:09.656576400,(-15 37 71 25 -6 -23 -31 -35)
1969-12-31 18:00:09.658751495,(50 13 13 11 25 22 -22 -8)
1969-12-31 18:00:09.658751495,(-89 -52 -18 -13 -2 -8 -10 -63)
1969-12-31 18:00:09.681589995,(19 9 8 8 -28 7 7 15)
1969-12-31 18:00:09.681589995,(12 -1 -59 -34 -25 -27 10 10)
1969-12-31 18:00:09.682677542,(-39 -19 22 16 70 51 2 5)
1969-12-31 18:00:09.682677542,(20 21 28 20 -4 -19 8 50)
1969-12-31 18:00:09.696815660,(3 29 23 11 19 44 7 2)
1969-12-31 18:00:09.696815660,(-22 8 9 -14 -40 -18 8 -5)
1969-12-31 18:00:09.706603589,(31 -63 -56 -11 34 -8 -17 10)
1969-12-31 18:00:09.706603589,(-8 24 3 -10 -58 -32 -24 -22)
1969-12-31 18:00:09.721829255,(-20 26 36 12 -18 -23 -18 -13)
1969-12-31 18:00:09.721829255,(-19 -22 -45 -7 45 44 31 21)
1969-12-31 18:00:09.724004350,(4 35 39 14 33 24 10 32)
1969-12-31 18:00:09.724004350,(7 -100 -71 -23 3 -7 -24 -3)
1969-12-31 18:00:09.746842849,(41 -46 -89 -44 -26 -7 54 55)
1969-12-31 18:00:09.746842849,(-15 88 117 48 -3 -9 -48 -22)
1969-12-31 18:00:09.747930397,(-6 40 -29 8 27 36 43 27)
1969-12-31 18:00:09.747930397,(38 121 95 18 -62 -61 -37 -38)
1969-12-31 18:00:09.760980968,(11 -2 24 23 75 46 -12 9)
1969-12-31 18:00:09.760980968,(34 -71 -95 -44 -46 -22 8 50)
1969-12-31 18:00:09.771856444,(-19 -52 -29 -14 -6 6 3 -25)
1969-12-31 18:00:09.771856444,(7 10 -21 -4 -3 16 26 13)
1969-12-31 18:00:09.785994562,(-35 26 46 -3 -40 -42 -32 -86)
1969-12-31 18:00:09.785994562,(24 -39 -10 18 71 45 -2 18)
1969-12-31 18:00:09.802307776,(-25 -8 5 -14 -88 -100 -47 32)
1969-12-31 18:00:09.802307776,(-17 -83 -94 -43 0 14 14 30)
1969-12-31 18:00:09.812095704,(-49 -19 22 5 26 18 -1 -41)
1969-12-31 18:00:09.812095704,(22 66 35 14 -17 11 -4 3)
1969-12-31 18:00:09.813183252,(40 -29 -50 -12 34 33 36 29)
1969-12-31 18:00:09.813183252,(11 -43 -29 -17 -44 -59 -32 -35)
1969-12-31 18:00:09.827321370,(-39 62 24 11 28 24 -10 -8)
1969-12-31 18:00:09.827321370,(84 72 100 53 1 5 39 114)
1969-12-31 18:00:09.837109299,(-46 3 -36 -11 63 72 -8 -76)
1969-12-31 18:00:09.837109299,(-13 -93 -12 -3 -48 -48 -5 36)
1969-12-31 18:00:09.852334965,(28 46 -3 -20 -48 -38 -5 -15)
1969-12-31 18:00:09.852334965,(-26 -31 -6 -13 -6 -26 -29 -1)
1969-12-31 18:00:09.854510060,(20 9 20 15 14 18 29 19)
1969-12-31 18:00:09.854510060,(15 -33 -43 -17 35 17 -21 -19)
1969-12-31 18:00:09.877348559,(57 34 37 13 -46 -41 -20 59)
1969-12-31 18:00:09.878436107,(-92 -57 -44 -14 -6 25 15 -37)
1969-12-31 18:00:09.883873844,(48 -48 -38 -34 -82 -59 -3 84)
1969-12-31 18:00:09.883873844,(0 93 83 45 36 3 -6 31)
1969-12-31 18:00:09.892574225,(90 14 -19 1 21 28 43 12)
1969-12-31 18:00:09.892574225,(-28 30 -17 -23 5 -41 -68 -117)
1969-12-31 18:00:09.902362153,(-50 47 80 42 8 32 0 -20)
1969-12-31 18:00:09.902362153,(-31 -84 -98 -24 21 66 30 -21)
1969-12-31 18:00:09.918675367,(-12 52 68 32 8 -15 13 29)
1969-12-31 18:00:09.918675367,(-20 -89 -68 -26 4 18 9 -49)
1969-12-31 18:00:09.919762915,(-48 -30 -7 5 16 -4 18 -33)
1969-12-31 18:00:09.919762915,(22 90 82 30 -1 -27 -15 -13)
1969-12-31 18:00:09.941513866,(-57 -87 -81 -33 0 18 -21 -43)
1969-12-31 18:00:09.941513866,(18 -8 20 5 -16 -46 14 24)
1969-12-31 18:00:09.950214247,(18 -12 -19 6 57 40 16 45)
1969-12-31 18:00:09.950214247,(-49 20 6 -37 -91 -87 -25 -59)
1969-12-31 18:00:09.967615008,(14 -1 -15 -19 7 9 -23 9)
1969-12-31 18:00:09.967615008,(38 8 11 12 75 88 38 58)
1969-12-31 18:00:09.968702556,(-31 49 41 16 3 -6 -3 -32)
1969-12-31 18:00:09.968702556,(34 5 -12 14 61 70 35 46)
1969-12-31 18:00:09.982840674,(-47 -103 -48 -9 -3 -2 -4 -13)
1969-12-31 18:00:09.982840674,(-13 1 -44 -21 -41 -39 -14 -9)
1969-12-31 18:00:09.990453507,(26 80 56 23 7 -2 -3 -22)
1969-12-31 18:00:09.990453507,(-12 66 99 34 15 16 15 21)
1969-12-31 18:00:10.007854269,(15 -4 5 -11 -57 -48 -14 3)
1969-12-31 18:00:10.007854269,(17 -71 -44 15 88 51 31 40)
1969-12-31 18:00:10.010029364,(4 8 -25 -37 -109 -55 -37 -56)
1969-12-31 18:00:10.010029364,(69 36 4 19 63 55 48 81)
1969-12-31 18:00:10.033955411,(-56 -2 40 6 -47 -29 -3 -17)
1969-12-31 18:00:10.033955411,(-41 -27 -5 -5 18 -20 -48 -58)
1969-12-31 18:00:10.036130506,(58 -20 -56 -31 -55 -49 -9 30)
1969-12-31 18:00:10.036130506,(12 41 43 21 27 -21 -12 3)
1969-12-31 18:00:10.048093529,(-5 -54 -54 -19 0 16 10 -23)
1969-12-31 18:00:10.048093529,(37 -30 -13 -4 60 79 29 5)
1969-12-31 18:00:10.055706362,(1 41 23 -15 -113 -88 -40 -42)
1969-12-31 18:00:10.055706362,(30 -28 -41 -12 43 33 14 12)
1969-12-31 18:00:10.073107123,(-37 -23 22 24 30 48 19 3)
1969-12-31 18:00:10.073107123,(-6 64 41 9 -53 -54 -13 -27)
1969-12-31 18:00:10.074194671,(0 32 25 14 7 -43 -37 -3)
1969-12-31 18:00:10.074194671,(8 -19 -16 0 -10 5 0 -19)
1969-12-31 18:00:10.095945623,(-6 -76 -53 3 81 45 -7 -18)
1969-12-31 18:00:10.095945623,(-3 4 -10 -11 -39 -8 -1 5)
1969-12-31 18:00:10.105733551,(7 -8 -17 -33 -46 13 27 34)
1969-12-31 18:00:10.105733551,(1 33 47 23 2 -12 3 13)
1969-12-31 18:00:10.113346384,(-3 -28 -81 -16 63 42 0 -40)
1969-12-31 18:00:10.113346384,(15 113 113 37 -37 -12 14 39)
1969-12-31 18:00:10.120959217,(13 -32 -19 6 15 13 -3 11)
1969-12-31 18:00:10.120959217,(-44 -63 -67 -35 -7 25 17 -9)
1969-12-31 18:00:10.145972811,(-14 -22 8 -1 -14 -10 -7 18)
1969-12-31 18:00:10.145972811,(57 -25 -49 -11 32 -8 22 44)
1969-12-31 18:00:10.148147906,(-42 47 75 24 -27 5 3 -17)
1969-12-31 18:00:10.148147906,(-4 -15 -22 -7 -10 -3 0 -3)
1969-12-31 18:00:10.162286025,(42 -26 -36 -7 2 -8 -2 38)
1969-12-31 18:00:10.162286025,(-46 24 45 14 1 -3 -2 -17)
1969-12-31 18:00:10.164461120,(1 -12 -22 -2 57 39 -1 -15)
1969-12-31 18:00:10.164461120,(5 -4 12 -5 -65 -47 -40 -19)
1969-12-31 18:00:10.178599239,(-9 19 10 -3 0 -5 6 -2)
1969-12-31 18:00:10.178599239,(-9 3 -4 3 -13 5 36 18)
1969-12-31 18:00:10.186212072,(-5 -35 -31 -6 61 81 14 4)
1969-12-31 18:00:10.186212072,(-37 -42 -21 -4 -1 -33 -14 -16)
1969-12-31 18:00:10.203612833,(45 61 -15 -26 -36 -32 -9 -1)
1969-12-31 18:00:10.203612833,(-32 55 93 54 65 59 30 -12)
1969-12-31 18:00:10.205787928,(-23 -58 -28 -11 -35 -4 32 13)
1969-12-31 18:00:10.205787928,(30 23 -38 -27 -36 -20 -43 -1)
1969-12-31 18:00:10.227538880,(5 80 98 51 32 -6 14 -8)
1969-12-31 18:00:10.227538880,(-1 -110 -111 -49 -42 -20 -32 -25)
1969-12-31 18:00:10.242764546,(-10 40 56 18 72 41 17 8)
1969-12-31 18:00:10.242764546,(85 -36 -58 -26 -48 -35 -4 48)
1969-12-31 18:00:10.253640022,(-35 -32 6 6 22 -6 -8 -20)
1969-12-31 18:00:10.253640022,(-44 -26 -20 -24 -58 -40 -38 -4)
1969-12-31 18:00:10.254727569,(44 65 52 35 19 -16 -7 12)
1969-12-31 18:00:10.254727569,(-31 -10 -21 -18 6 8 -15 -42)
1969-12-31 18:00:10.268865688,(11 -43 -60 -15 -7 0 8 24)
1969-12-31 18:00:10.268865688,(-1 31 26 10 9 -2 3 4)
1969-12-31 18:00:10.271040783,(15 -90 -70 -20 -19 -24 -26 11)
1969-12-31 18:00:10.271040783,(-55 32 66 56 127 68 30 -22)
1969-12-31 18:00:10.292791735,(-4 30 -31 -40 -109 -40 -9 -41)
1969-12-31 18:00:10.293879282,(-26 -43 -21 -26 -59 -50 -53 -54)
1969-12-31 18:00:10.294966830,(2 -29 -13 -1 53 18 19 0)
1969-12-31 18:00:10.294966830,(13 3 9 2 -13 1 32 13)
1969-12-31 18:00:10.309104948,(32 -4 -29 -2 47 44 -28 44)
1969-12-31 18:00:10.309104948,(-76 49 75 3 -66 -71 -31 8)
1969-12-31 18:00:10.315630234,(29 111 102 55 31 28 35 53)
1969-12-31 18:00:10.315630234,(4 2 -8 4 -18 -23 22 0)
1969-12-31 18:00:10.334118543,(10 -56 -40 -18 7 21 -18 -18)
1969-12-31 18:00:10.334118543,(36 -23 -14 6 18 24 27 45)
1969-12-31 18:00:10.335206090,(-60 -113 -128 -52 -2 -7 -15 -40)
1969-12-31 18:00:10.335206090,(-10 97 115 43 5 20 26 22)
1969-12-31 18:00:10.358044589,(-18 60 29 6 -22 -11 28 27)
1969-12-31 18:00:10.358044589,(41 -33 -70 -13 26 23 3 -23)
1969-12-31 18:00:10.360219685,(9 -1 -1 4 7 -13 -14 6)
1969-12-31 18:00:10.360219685,(18 -21 -6 1 18 29 3 2)
1969-12-31 18:00:10.373270256,(-66 -72 -63 -40 -51 -10 -10 -48)
1969-12-31 18:00:10.373270256,(-16 91 86 64 49 -9 -4 -9)
1969-12-31 18:00:10.389583469,(21 -68 -108 -20 13 13 14 22)
1969-12-31 18:00:10.389583469,(-76 -8 -8 -49 -109 -64 -26 -86)
1969-12-31 18:00:10.398283850,(61 109 113 43 53 24 -3 19)
1969-12-31 18:00:10.398283850,(35 -128 -128 -40 40 40 49 22)
1969-12-31 18:00:10.415684611,(-18 -21 -10 -1 -58 -49 -38 -13)
1969-12-31 18:00:10.415684611,(20 -37 -2 9 38 20 -19 16)
1969-12-31 18:00:10.423297444,(30 12 9 11 12 13 22 46)
1969-12-31 18:00:10.423297444,(-43 32 22 -1 -2 -14 -35 -55)
1969-12-31 18:00:10.425472539,(5 42 56 10 17 24 16 -4)
1969-12-31 18:00:10.425472539,(5 15 -42 -9 -7 -8 -1 13)
1969-12-31 18:00:10.438523110,(-10 -49 4 -2 -9 -17 -10 -5)
1969-12-31 18:00:10.438523110,(95 -12 -67 -2 19 50 38 62)
1969-12-31 18:00:10.448311039,(-48 10 45 8 -30 -36 -15 -7)
1969-12-31 18:00:10.448311039,(10 96 89 43 16 2 -7 -8)
1969-12-31 18:00:10.464624252,(-23 -9 14 4 -24 -6 7 -1)
1969-12-31 18:00:10.464624252,(38 -15 -25 12 84 31 23 34)
1969-12-31 18:00:10.466799347,(14 -74 -83 -50 -88 26 25 22)
1969-12-31 18:00:10.466799347,(-4 -46 -31 -13 -31 -58 -16 -7)
1969-12-31 18:00:10.488550299,(-11 46 41 18 19 11 -14 -11)
1969-12-31 18:00:10.488550299,(-17 4 13 -7 0 -11 -17 -8)
1969-12-31 18:00:10.490725394,(8 -15 -14 0 16 3 6 26)
1969-12-31 18:00:10.490725394,(-14 38 26 13 61 59 9 -11)
1969-12-31 18:00:10.503775965,(-14 -73 -62 -15 -34 -33 13 19)
1969-12-31 18:00:10.503775965,(47 25 -12 -11 -21 -8 -11 5)
1969-12-31 18:00:10.521176726,(12 117 100 37 -11 -39 -47 -44)
1969-12-31 18:00:10.521176726,(16 -122 -99 -36 -22 6 22 28)
1969-12-31 18:00:10.528789560,(-9 27 -22 1 -7 2 18 1)
1969-12-31 18:00:10.528789560,(-21 -15 20 -9 25 11 -12 -9)
1969-12-31 18:00:10.545102773,(12 -75 -55 -6 28 12 9 2)
1969-12-31 18:00:10.545102773,(-23 84 64 11 -10 -17 -12 -10)
1969-12-31 18:00:10.554890701,(12 56 43 -20 -38 -25 -22 -26)
1969-12-31 18:00:10.554890701,(1 -18 -7 4 -12 -26 7 15)
1969-12-31 18:00:10.557065797,(11 -38 -44 -8 21 4 -36 -22)
1969-12-31 18:00:10.557065797,(7 -128 -110 -10 71 49 20 54)
1969-12-31 18:00:10.569028820,(-17 -14 15 3 -49 -34 -14 8)
1969-12-31 18:00:10.569028820,(2 49 18 -29 -77 -31 12 1)
1969-12-31 18:00:10.578816748,(-7 -5 -11 -4 20 16 16 -18)
1969-12-31 18:00:10.578816748,(-38 83 95 38 4 -29 -28 -55)
1969-12-31 18:00:10.595129962,(26 -13 -29 -6 35 1 -22 -7)
1969-12-31 18:00:10.595129962,(67 -67 -70 -14 7 22 5 30)
1969-12-31 18:00:10.596217510,(-29 55 78 23 -16 -21 2 -46)
1969-12-31 18:00:10.596217510,(-7 15 7 10 -14 21 26 7)
1969-12-31 18:00:10.619056009,(-4 18 31 12 40 11 -10 -14)
1969-12-31 18:00:10.619056009,(-10 -38 -74 -22 -26 -12 10 -8)
1969-12-31 18:00:10.621231104,(-3 -69 -16 -6 3 -4 -21 12)
1969-12-31 18:00:10.621231104,(23 7 -5 5 31 27 6 8)
1969-12-31 18:00:10.634281675,(-39 53 78 12 -29 -29 -26 -17)
1969-12-31 18:00:10.634281675,(-1 47 20 0 -15 5 15 -2)
1969-12-31 18:00:10.644069603,(-15 -65 -65 -18 19 13 22 17)
1969-12-31 18:00:10.644069603,(-20 5 1 3 -26 -1 -14 -38)
1969-12-31 18:00:10.659295269,(20 -91 -52 20 107 36 15 41)
1969-12-31 18:00:10.659295269,(4 -88 -65 -61 -105 -56 -25 -12)
1969-12-31 18:00:10.667995650,(7 127 127 40 24 -11 24 9)
1969-12-31 18:00:10.667995650,(6 -47 -51 -44 -65 -37 -64 -36)
1969-12-31 18:00:10.683221316,(-1 -13 -22 -8 21 37 28 2)
1969-12-31 18:00:10.683221316,(-27 -74 1 30 20 28 13 7)
1969-12-31 18:00:10.699534530,(17 -38 -74 -27 1 -6 0 14)
1969-12-31 18:00:10.699534530,(-12 -39 -56 -22 -7 -6 -21 -12)
1969-12-31 18:00:10.708234910,(-17 73 50 5 -22 -15 -10 -29)
1969-12-31 18:00:10.708234910,(-23 90 96 46 53 35 16 1)
1969-12-31 18:00:10.718022838,(-13 -50 -56 -45 -97 -50 -35 -24)
1969-12-31 18:00:10.718022838,(43 -24 -17 -10 30 12 4 45)
1969-12-31 18:00:10.725635671,(37 48 17 22 -31 -7 12 7)
1969-12-31 18:00:10.725635671,(-69 25 42 21 46 25 -11 -28)
1969-12-31 18:00:10.726723218,(-8 -24 -29 -27 -37 -15 24 16)
1969-12-31 18:00:10.726723218,(6 9 7 -10 -23 -26 11 9)
1969-12-31 18:00:10.749561718,(-1 -4 38 26 19 1 -18 -6)
1969-12-31 18:00:10.749561718,(33 113 91 58 47 39 21 27)
1969-12-31 18:00:10.751736813,(47 127 101 25 16 15 14 19)
1969-12-31 18:00:10.751736813,(-41 -108 -78 -27 -13 -6 2 -1)
1969-12-31 18:00:10.764787384,(58 -8 -16 2 14 10 25 56)
1969-12-31 18:00:10.764787384,(10 -5 -67 -30 -7 -1 8 -13)
1969-12-31 18:00:10.774575313,(-64 -120 0 -1 27 -3 -42 -52)
1969-12-31 18:00:10.774575313,(26 115 46 45 44 15 36 34)
1969-12-31 18:00:10.789800979,(17 23 -8 -13 -50 -19 -17 -21)
1969-12-31 18:00:10.789800979,(-24 -91 -45 -50 -74 -45 -7 3)
1969-12-31 18:00:10.797413812,(-6 -60 -82 -35 30 1 -22 -6)
1969-12-31 18:00:10.797413812,(6 44 12 11 33 22 20 1)
1969-12-31 18:00:10.814814573,(-39 -30 41 37 50 39 4 -18)
1969-12-31 18:00:10.814814573,(-9 17 39 10 -28 -24 -5 -4)
1969-12-31 18:00:10.816989668,(2 -71 -60 -21 -7 34 10 9)
1969-12-31 18:00:10.816989668,(46 42 2 32 -1 -12 21 45)
1969-12-31 18:00:10.830040239,(-3 57 -4 -16 -14 -9 -6 -40)
1969-12-31 18:00:10.830040239,(-64 36 66 28 41 26 4 -18)
1969-12-31 18:00:10.846353453,(27 -14 -11 17 31 22 15 19)
1969-12-31 18:00:10.846353453,(5 43 68 -9 -65 -60 -44 -17)
1969-12-31 18:00:10.856141381,(-2 -128 -109 -54 -28 -21 -2 12)
1969-12-31 18:00:10.856141381,(51 44 -10 0 14 9 5 30)
1969-12-31 18:00:10.857228929,(25 18 3 12 12 32 4 7)
1969-12-31 18:00:10.857228929,(-14 -48 -12 -29 -31 -26 -29 -21)
1969-12-31 18:00:10.881154976,(-46 -43 -48 -30 -15 13 23 -24)
1969-12-31 18:00:10.881154976,(31 14 -21 -6 -12 -23 -19 0)
1969-12-31 18:00:10.883330071,(-50 102 95 45 -4 -30 -39 -41)
1969-12-31 18:00:10.883330071,(-11 -112 -63 -9 27 6 -14 -9)
1969-12-31 18:00:10.895293094,(61 56 46 23 -6 8 28 64)
1969-12-31 18:00:10.895293094,(15 33 37 8 22 42 9 -31)
1969-12-31 18:00:10.905081022,(5 -49 -48 -38 -81 -79 -7 11)
1969-12-31 18:00:10.905081022,(-54 35 8 -7 6 5 -21 -43)
1969-12-31 18:00:10.921394236,(-6 -40 -64 -8 32 11 21 10)
1969-12-31 18:00:10.921394236,(10 -86 -38 -14 -15 9 2 21)
1969-12-31 18:00:10.923569331,(7 111 85 54 58 0 -2 -3)
1969-12-31 18:00:10.923569331,(-28 -53 -29 -11 13 33 18 -25)
1969-12-31 18:00:10.945320283,(-41 -30 -54 -27 -29 -26 -34 -41)
1969-12-31 18:00:10.945320283,(5 34 38 24 46 53 19 8)
1969-12-31 18:00:10.947495378,(-3 -15 -8 -14 -71 -49 6 25)
1969-12-31 18:00:10.947495378,(-27 -52 -49 -41 11 -1 -15 -27)
1969-12-31 18:00:10.960545949,(10 -22 -19 3 35 23 14 24)
1969-12-31 18:00:10.960545949,(-13 53 56 15 -42 -37 -14 -22)
1969-12-31 18:00:10.970333877,(3 -21 14 26 71 56 27 26)
1969-12-31 18:00:10.970333877,(19 1 1 36 48 37 25 21)
1969-12-31 18:00:10.985559543,(-23 60 10 -26 -106 -83 -39 -36)
1969-12-31 18:00:10.985559543,(-9 -60 -19 -19 -3 -19 -10 13)
1969-12-31 18:00:11.001872757,(15 38 35 9 11 15 19 2)
1969-12-31 18:00:11.001872757,(13 -49 -36 -18 -19 -3 -2 9)
1969-12-31 18:00:11.010573138,(54 23 29 18 65 41 30 47)
1969-12-31 18:00:11.011660685,(-33 -6 -19 16 -7 -32 -37 -69)
1969-12-31 18:00:11.012748233,(0 -53 -53 -28 -10 2 -7 17)
1969-12-31 18:00:11.012748233,(2 47 52 6 -24 0 15 18)
1969-12-31 18:00:11.025798804,(38 -10 -12 7 82 43 17 98)
1969-12-31 18:00:11.025798804,(19 11 -1 6 -80 -66 -6 35)
1969-12-31 18:00:11.035586732,(-3 -14 -12 12 52 26 -15 -28)
1969-12-31 18:00:11.035586732,(-18 -34 -75 -59 -79 -32 -6 -24)
1969-12-31 18:00:11.051899946,(-12 88 106 35 5 7 3 -6)
1969-12-31 18:00:11.051899946,(20 18 -12 -3 31 17 1 3)
1969-12-31 18:00:11.052987493,(0 -14 -20 6 7 -2 -2 -10)
1969-12-31 18:00:11.052987493,(6 4 0 11 -4 8 20 47)
1969-12-31 18:00:11.075825992,(-18 -17 -36 -46 -49 -30 -37 -63)
1969-12-31 18:00:11.075825992,(-70 -114 -86 -31 10 6 -20 -31)
1969-12-31 18:00:11.078001088,(39 127 49 9 -52 -14 5 7)
1969-12-31 18:00:11.078001088,(2 32 73 59 53 18 1 -18)
1969-12-31 18:00:11.100839587,(-41 -45 5 14 17 -3 -14 -41)
1969-12-31 18:00:11.100839587,(-5 -47 -51 -34 -14 -12 -9 6)
1969-12-31 18:00:11.101927134,(-25 -49 -53 -42 -21 -2 4 4)
1969-12-31 18:00:11.101927134,(10 31 26 6 -25 -21 -9 -6)
1969-12-31 18:00:11.116065253,(17 -5 -13 7 24 11 21 18)
1969-12-31 18:00:11.116065253,(16 12 -6 -8 -31 -10 -4 -1)
1969-12-31 18:00:11.123678086,(-24 -73 -34 -16 18 5 -19 -16)
1969-12-31 18:00:11.123678086,(-2 24 4 10 14 -7 -16 -14)
1969-12-31 18:00:11.139991300,(-5 20 -8 27 -9 -6 -2 -15)
1969-12-31 18:00:11.139991300,(32 40 8 -3 14 12 13 15)
1969-12-31 18:00:11.156304513,(-32 -16 -2 -21 -44 -18 4 -4)
1969-12-31 18:00:11.156304513,(48 -36 -44 -52 -8 11 16 33)
1969-12-31 18:00:11.166092442,(-41 -43 -15 35 23 -1 -12 -20)
1969-12-31 18:00:11.166092442,(-22 15 36 21 0 -7 -9 -18)
1969-12-31 18:00:11.167179989,(-3 12 -4 8 42 35 9 -4)
1969-12-31 18:00:11.167179989,(35 22 24 19 6 6 17 34)
1969-12-31 18:00:11.182405655,(-19 3 4 -16 -41 -26 -38 -25)
1969-12-31 18:00:11.182405655,(16 3 7 16 16 6 32 3)
1969-12-31 18:00:11.190018488,(42 0 -10 -15 -21 -21 -31 -45)
1969-12-31 18:00:11.190018488,(-5 1 -3 -12 -7 2 4 13)
1969-12-31 18:00:11.207419250,(-65 -93 -57 -26 14 24 1 -37)
1969-12-31 18:00:11.207419250,(36 47 58 33 22 11 9 26)
1969-12-31 18:00:11.208506797,(36 68 72 28 13 -5 7 24)
1969-12-31 18:00:11.208506797,(-24 -5 2 9 6 4 -12 -38)
1969-12-31 18:00:11.231345296,(38 1 -15 -12 -13 -8 -17 29)
1969-12-31 18:00:11.231345296,(-16 -49 -46 -32 -38 -44 -36 -30)
1969-12-31 18:00:11.233520392,(12 13 4 1 9 11 23 15)
1969-12-31 18:00:11.233520392,(-31 1 -12 -29 -11 -15 -13 -21)
1969-12-31 18:00:11.246570962,(-18 -7 28 63 50 17 25 5)
1969-12-31 18:00:11.246570962,(25 -1 -9 -30 3 31 22 41)
1969-12-31 18:00:11.254183796,(-2 15 8 32 12 -19 -28 -31)
1969-12-31 18:00:11.254183796,(16 -18 -11 -14 -35 -14 33 45)
1969-12-31 18:00:11.271584557,(2 -13 -21 -31 16 38 -28 -19)
1969-12-31 18:00:11.271584557,(-16 9 3 11 20 -17 4 -37)
1969-12-31 18:00:11.273759652,(-20 -7 -9 -30 -38 -42 5 17)
1969-12-31 18:00:11.273759652,(52 16 8 -3 -3 12 9 23)
1969-12-31 18:00:11.295510604,(22 26 22 14 7 3 32 17)
1969-12-31 18:00:11.295510604,(52 18 5 16 11 8 -61 21)
1969-12-31 18:00:11.311823817,(-78 -52 -31 -16 -5 -2 -16 -20)
1969-12-31 18:00:11.311823817,(-3 -7 -1 13 14 8 -2 0)
1969-12-31 18:00:11.320524198,(3 2 15 -9 -25 -26 -9 -12)
1969-12-31 18:00:11.320524198,(-19 -30 -23 -17 3 9 19 10)
1969-12-31 18:00:11.322699292,(84 44 6 11 5 13 21 50)
1969-12-31 18:00:11.322699292,(-33 16 4 9 7 -12 -35 -54)
1969-12-31 18:00:11.336837412,(-75 -54 -15 -22 -28 -16 -6 -20)
1969-12-31 18:00:11.336837412,(20 18 9 10 3 4 16 14)
1969-12-31 18:00:11.339012507,(28 3 -2 4 2 15 11 33)
1969-12-31 18:00:11.339012507,(69 31 15 11 7 3 3 15)
1969-12-31 18:00:11.361851006,(8 14 -2 -12 -5 -13 2 12)
1969-12-31 18:00:11.361851006,(-75 -44 -21 -8 -10 -3 -17 -66)
1969-12-31 18:00:11.362938554,(49 4 4 10 9 14 17 34)
1969-12-31 18:00:11.362938554,(-66 -27 -4 -3 -3 -10 -19 -34)
1969-12-31 18:00:11.377076672,(47 11 0 -8 -15 -9 5 17)
1969-12-31 18:00:11.377076672,(2 -12 -2 1 6 1 0 5)
1969-12-31 18:00:11.386864600,(32 33 16 11 8 15 18 39)
1969-12-31 18:00:11.386864600,(-1 -17 -20 -11 -11 -16 -28 -46)
1969-12-31 18:00:11.402090266,(-8 6 7 3 -4 0 2 -2)
1969-12-31 18:00:11.402090266,(-69 -23 -5 -7 -5 -1 0 -18)
1969-12-31 18:00:11.404265362,(7 3 -1 -2 1 1 0 -2)
1969-12-31 18:00:11.404265362,(37 14 7 14 15 12 13 19)
1969-12-31 18:00:11.427103861,(-30 3 -8 -7 -12 -13 -14 -28)
1969-12-31 18:00:11.427103861,(38 8 4 -1 1 2 9 35)
1969-12-31 18:00:11.429278956,(-36 -12 1 1 0 -2 -9 -37)
1969-12-31 18:00:11.429278956,(-15 -3 -1 -1 1 2 2 2)
1969-12-31 18:00:11.442329527,(19 3 -6 -12 -8 -2 -2 1)
1969-12-31 18:00:11.442329527,(13 8 3 12 4 3 6 13)
1969-12-31 18:00:11.458642741,(-37 -22 7 7 1 -2 -12 -27)
1969-12-31 18:00:11.458642741,(-9 8 12 14 8 5 7 10)
1969-12-31 18:00:11.467343121,(64 24 3 0 -3 -2 7 19)
1969-12-31 18:00:11.467343121,(-39 -18 -15 -10 -2 1 -1 -7)
1969-12-31 18:00:11.469518216,(-33 -10 -9 -8 -2 -3 -4 -19)
1969-12-31 18:00:11.469518216,(26 -7 -10 -9 -4 -2 4 15)
1969-12-31 18:00:11.492356716,(-31 -32 -16 -11 -7 -2 1 -2)
1969-12-31 18:00:11.492356716,(25 37 10 8 2 -1 -4 -7)
1969-12-31 18:00:11.493444263,(-1 5 24 5 -4 -2 -1 -3)
1969-12-31 18:00:11.494531811,(-10 -12 2 12 9 5 6 10)
1969-12-31 18:00:11.507582382,(4 10 10 2 -4 -4 -8 -4)
1969-12-31 18:00:11.507582382,(11 -15 -23 -10 -4 -3 1 2)
1969-12-31 18:00:11.517370310,(-29 5 2 0 0 3 20 -1)
1969-12-31 18:00:11.517370310,(-46 -49 -9 -10 -8 -11 -34 -21)
1969-12-31 18:00:11.532595976,(0 -2 -6 1 0 0 -4 -6)
1969-12-31 18:00:11.533683524,(6 5 -2 -12 -4 1 13 4)
1969-12-31 18:00:11.534771071,(-2 -23 -38 -15 -9 -6 -5 -10)
1969-12-31 18:00:11.534771071,(-4 42 36 9 7 6 28 11)
1969-12-31 18:00:11.557609570,(-4 14 27 13 2 0 -21 -9)
1969-12-31 18:00:11.557609570,(-6 -8 -1 1 -1 -5 -18 -17)
1969-12-31 18:00:11.558697118,(7 -10 -12 -6 2 -1 -8 4)
1969-12-31 18:00:11.558697118,(-7 -17 -34 -12 -6 -2 6 -4)
1969-12-31 18:00:11.572835237,(-20 -52 -34 -22 -13 -9 -10 -11)
1969-12-31 18:00:11.572835237,(11 23 48 24 10 7 21 9)
1969-12-31 18:00:11.581535617,(3 74 56 21 7 1 -17 -3)
1969-12-31 18:00:11.581535617,(1 -1 -9 -1 -4 -5 6 7)
1969-12-31 18:00:11.596761283,(4 3 -4 -3 -1 0 13 8)
1969-12-31 18:00:11.596761283,(-13 -52 -43 -18 -8 -8 -24 -8)
1969-12-31 18:00:11.613074497,(-6 -37 -30 -13 -4 4 17 -6)
1969-12-31 18:00:11.613074497,(4 10 17 2 -4 -10 -22 -6)
1969-12-31 18:00:11.622862425,(6 21 14 8 0 0 3 -5)
1969-12-31 18:00:11.622862425,(-1 -24 -37 -20 -6 -3 4 8)
1969-12-31 18:00:11.623949973,(2 17 41 20 7 0 -8 -7)
1969-12-31 18:00:11.623949973,(0 -16 -29 -7 2 12 18 8)
1969-12-31 18:00:11.638088091,(0 17 16 0 0 2 13 3)
1969-12-31 18:00:11.638088091,(-1 3 6 7 0 -5 -8 -5)
1969-12-31 18:00:11.646788472,(-5 12 4 -1 2 -3 -6 -5)
1969-12-31 18:00:11.647876020,(-4 -16 -5 1 -2 1 0 -1)
1969-12-31 18:00:11.663101686,(20 60 37 15 6 3 10 15)
1969-12-31 18:00:11.663101686,(-4 -37 -6 7 6 4 -10 -9)
1969-12-31 18:00:11.665276781,(-21 -47 -47 -25 -13 -5 -6 -9)
1969-12-31 18:00:11.665276781,(0 26 32 10 2 -4 -9 -2)
1969-12-31 18:00:11.688115280,(3 -7 -10 0 5 7 25 6)
1969-12-31 18:00:11.688115280,(6 20 7 -9 -7 -7 -26 -11)
1969-12-31 18:00:11.689202828,(-4 -54 -69 -28 -12 -4 -2 5)
1969-12-31 18:00:11.689202828,(-6 38 51 22 8 6 -12 -12)
1969-12-31 18:00:11.703340946,(4 -9 -10 -8 -6 -4 -7 -5)
1969-12-31 18:00:11.703340946,(-4 4 4 1 -1 0 2 0)
1969-12-31 18:00:11.713128873,(2 3 -2 10 4 6 3 -5)
1969-12-31 18:00:11.713128873,(-13 -19 2 -13 -5 6 6 1)
1969-12-31 18:00:11.728354541,(2 -48 -24 -7 -1 0 -1 -3)
1969-12-31 18:00:11.728354541,(-7 30 25 11 0 3 -15 -12)
1969-12-31 18:00:11.730529636,(5 13 2 -2 -5 -3 -5 -3)
1969-12-31 18:00:11.730529636,(-14 -75 -39 -20 -9 -3 12 8)
1969-12-31 18:00:11.752280587,(7 48 4 0 1 -7 -17 -4)
1969-12-31 18:00:11.752280587,(-16 -34 -11 -6 -4 -9 18 13)
1969-12-31 18:00:11.768593801,(19 32 28 19 9 -11 -8 -2)
1969-12-31 18:00:11.768593801,(5 -13 -21 22 11 -2 -3 0)
1969-12-31 18:00:11.769681349,(-30 -76 -40 -28 -12 -10 -2 2)
1969-12-31 18:00:11.769681349,(22 57 -2 -3 4 -4 5 -2)
1969-12-31 18:00:11.778381729,(-37 -24 -16 -13 -4 1 1 1)
1969-12-31 18:00:11.778381729,(9 -9 15 7 6 3 8 3)
1969-12-31 18:00:11.793607395,(26 89 29 18 4 -3 -6 -5)
1969-12-31 18:00:11.794694943,(-6 -7 -18 -7 -2 3 4 0)
1969-12-31 18:00:11.795782490,(5 -15 -7 -13 -9 -3 -5 0)
1969-12-31 18:00:11.795782490,(-9 0 -10 -12 -4 1 -3 -7)
1969-12-31 18:00:11.818620990,(-28 -55 -25 -12 -7 1 1 -2)
1969-12-31 18:00:11.818620990,(14 4 -29 -31 -15 -7 -8 -4)
1969-12-31 18:00:11.819708537,(3 -17 9 19 7 6 4 -5)
1969-12-31 18:00:11.819708537,(-1 -36 -48 -15 -6 -3 -12 1)
1969-12-31 18:00:11.833846656,(-6 -16 21 15 2 1 -4 -9)
1969-12-31 18:00:11.833846656,(-7 3 30 10 -1 5 8 0)
1969-12-31 18:00:11.843634584,(11 36 17 4 0 4 -1 -2)
1969-12-31 18:00:11.843634584,(-7 -9 5 3 -5 -1 -5 -13)
1969-12-31 18:00:11.859947798,(-11 -30 -28 -28 -16 -1 -1 3)
1969-12-31 18:00:11.859947798,(7 29 34 28 9 5 0 -1)
1969-12-31 18:00:11.861035345,(-13 -35 -11 -10 -6 0 4 4)
1969-12-31 18:00:11.861035345,(17 64 54 8 3 -2 -4 -2)
1969-12-31 18:00:11.883873844,(13 39 25 20 10 2 -3 -2)
1969-12-31 18:00:11.883873844,(-18 -51 -9 2 1 3 5 1)
1969-12-31 18:00:11.884961392,(14 37 13 12 5 4 1 2)
1969-12-31 18:00:11.886048940,(-13 -19 -11 -12 -7 -4 0 -1)
1969-12-31 18:00:11.898011963,(13 12 10 8 3 1 2 9)
1969-12-31 18:00:11.898011963,(-4 -11 -18 -6 -3 -5 -4 -6)
1969-12-31 18:00:11.914325177,(-10 -37 -20 -12 -5 -10 1 4)
1969-12-31 18:00:11.914325177,(14 18 -18 -5 1 -12 1 11)
1969-12-31 18:00:11.924113105,(3 -24 -34 -3 0 -13 4 15)
1969-12-31 18:00:11.924113105,(3 -7 -10 -3 3 -12 3 14)
1969-12-31 18:00:11.926288200,(9 -20 -30 -10 1 -18 1 16)
1969-12-31 18:00:11.926288200,(7 38 -4 -7 0 -12 3 10)
1969-12-31 18:00:11.949126699,(-9 -23 -18 -14 3 -9 0 1)
1969-12-31 18:00:11.949126699,(1 28 20 16 13 0 4 1)
1969-12-31 18:00:11.950214247,(-11 -22 5 -3 1 -2 -1 -11)
1969-12-31 18:00:11.950214247,(7 17 6 6 3 6 2 -5)
1969-12-31 18:00:11.964352365,(-8 -8 -12 -13 -10 3 -5 -11)
1969-12-31 18:00:11.964352365,(-6 -17 -8 -8 -4 8 0 -10)
1969-12-31 18:00:11.974140294,(3 16 10 3 -4 8 -2 -6)
1969-12-31 18:00:11.974140294,(-9 -21 -11 -4 -4 5 -3 -9)
1969-12-31 18:00:11.989365960,(0 8 18 7 2 4 -1 -3)
1969-12-31 18:00:11.989365960,(-1 -7 8 0 0 5 0 0)
1969-12-31 18:00:11.996978793,(4 34 13 0 -2 -4 -7 -7)
1969-12-31 18:00:11.996978793,(-2 -13 0 5 1 -3 -2 2)
1969-12-31 18:00:12.014379554,(1 -3 2 5 0 1 0 0)
1969-12-31 18:00:12.014379554,(7 36 22 7 0 1 0 -2)
1969-12-31 18:00:12.015467102,(-2 -14 -9 -6 -3 3 -2 -2)
1969-12-31 18:00:12.015467102,(5 5 -5 -4 -4 1 -4 -2)
1969-12-31 18:00:12.029605220,(-3 7 8 1 -1 1 -1 -3)
1969-12-31 18:00:12.029605220,(-8 -12 -12 -7 -2 0 -2 -5)
1969-12-31 18:00:12.045918434,(8 13 30 17 4 5 0 1)
1969-12-31 18:00:12.045918434,(-5 -8 4 6 3 3 -1 -1)
1969-12-31 18:00:12.054618815,(2 8 6 2 -4 -1 -4 -3)
1969-12-31 18:00:12.054618815,(-8 -11 -9 -6 -6 1 -5 -9)
1969-12-31 18:00:12.063319195,(-3 -11 1 6 -1 0 -4 -6)
1969-12-31 18:00:12.063319195,(-5 -8 -2 -3 -3 3 2 -2)
1969-12-31 18:00:12.078544861,(0 1 1 0 -2 2 -6 -7)
1969-12-31 18:00:12.078544861,(6 1 -2 -2 0 -1 -2 1)
1969-12-31 18:00:12.088332790,(0 0 -2 -2 -1 -2 -4 -1)
1969-12-31 18:00:12.088332790,(4 7 5 4 1 0 -2 -2)
1969-12-31 18:00:12.103558456,(0 -2 -5 1 -2 -1 5 2)
1969-12-31 18:00:12.103558456,(-3 -4 -4 -2 -2 -3 -3 -2)
1969-12-31 18:00:12.105733551,(-4 -6 -9 -2 1 -2 -2 -4)
1969-12-31 18:00:12.105733551,(-3 -4 -4 -5 -3 -1 2 0)
1969-12-31 18:00:12.118784122,(4 7 0 -2 0 -1 -2 0)
1969-12-31 18:00:12.118784122,(-1 -9 -7 -6 -2 -2 0 1)
1969-12-31 18:00:12.143797716,(-5 -8 -8 -5 -3 -1 0 0)
1969-12-31 18:00:12.143797716,(3 13 3 0 3 3 0 0)
1969-12-31 18:00:12.143797716,(53 11 -10 -8 -2 -4 10 59)
1969-12-31 18:00:12.143797716,(-20 -1 -3 -1 3 -5 -6 -22)
1969-12-31 18:00:12.152498097,(-7 -4 1 0 2 -3 -5 -12)
1969-12-31 18:00:12.152498097,(7 -16 -8 -7 -3 -6 6 12)
1969-12-31 18:00:12.160110930,(-34 0 5 3 1 8 -7 -32)
1969-12-31 18:00:12.160110930,(11 -3 -6 -7 -3 -2 5 7)
1969-12-31 18:00:12.161198477,(44 20 8 3 4 4 -20 15)
1969-12-31 18:00:12.161198477,(-10 -1 -1 -5 -3 23 39 -1)
1969-12-31 18:00:12.185124524,(6 4 6 1 -4 -39 -46 -9)
1969-12-31 18:00:12.185124524,(16 10 3 1 0 -1 0 14)
1969-12-31 18:00:12.186212072,(-19 -8 -2 0 -1 -11 -5 -20)
1969-12-31 18:00:12.186212072,(8 -8 0 3 3 13 -8 8)
1969-12-31 18:00:12.200350190,(-10 -3 -1 -1 1 15 14 -7)
1969-12-31 18:00:12.200350190,(-25 -15 -5 3 4 18 -6 16)
1969-12-31 18:00:12.217750952,(-19 -8 -5 -9 -17 -35 -1 -43)
1969-12-31 18:00:12.217750952,(38 21 5 1 6 15 -4 18)
1969-12-31 18:00:12.225363785,(-28 6 9 6 1 10 15 -50)
1969-12-31 18:00:12.225363785,(-6 -13 -13 -8 0 -1 -5 17)
1969-12-31 18:00:12.226451332,(-7 -7 7 5 5 12 7 20)
1969-12-31 18:00:12.226451332,(-15 30 6 0 -3 -11 3 -2)
1969-12-31 18:00:12.251464927,(10 -10 -3 -1 -1 -15 -9 -5)
1969-12-31 18:00:12.251464927,(57 -1 -10 -10 -3 6 6 2)
1969-12-31 18:00:12.251464927,(4 8 6 5 3 4 1 12)
1969-12-31 18:00:12.251464927,(-47 -27 -7 -6 -7 -10 0 -24)
1969-12-31 18:00:12.265603045,(14 24 5 -1 -2 3 1 24)
1969-12-31 18:00:12.265603045,(-4 1 -3 -5 -5 -5 -15 -26)
1969-12-31 18:00:12.274303426,(-14 -24 -2 0 2 -10 36 44)
1969-12-31 18:00:12.274303426,(63 46 22 18 17 7 -66 1)
1969-12-31 18:00:12.290616639,(-20 -21 -13 -8 -3 25 31 5)
1969-12-31 18:00:12.290616639,(27 21 9 4 4 6 -7 27)
1969-12-31 18:00:12.299317020,(10 -3 -3 -2 -6 -31 -26 -39)
1969-12-31 18:00:12.299317020,(-31 -31 -8 -6 -5 2 25 19)
1969-12-31 18:00:12.315630234,(-13 -2 4 1 -2 0 22 -21)
1969-12-31 18:00:12.315630234,(-5 17 6 -1 -5 1 14 1)
1969-12-31 18:00:12.316717781,(14 7 -1 3 7 30 -12 -15)
1969-12-31 18:00:12.316717781,(-22 -28 -15 -12 -3 2 2 14)
1969-12-31 18:00:12.330855900,(-25 -9 -11 -10 -23 -91 -64 -30)
1969-12-31 18:00:12.330855900,(-24 4 8 2 -1 0 12 -30)
1969-12-31 18:00:12.339556281,(0 1 -13 -6 -5 2 -12 -1)
1969-12-31 18:00:12.339556281,(-18 -35 -14 -8 -9 -15 8 0)
1969-12-31 18:00:12.355869494,(-18 -13 -13 -11 1 53 8 9)
1969-12-31 18:00:12.355869494,(16 21 14 5 -8 -81 -5 18)
1969-12-31 18:00:12.356957042,(-54 -47 -16 -5 4 53 -21 -27)
1969-12-31 18:00:12.356957042,(2 -6 -4 -4 -2 -19 -1 10)
1969-12-31 18:00:12.381970636,(23 19 11 12 17 11 6 -8)
1969-12-31 18:00:12.381970636,(-25 -24 -11 -7 -10 6 -2 0)
1969-12-31 18:00:12.381970636,(25 22 6 3 0 -15 -4 25)
1969-12-31 18:00:12.381970636,(16 20 16 12 9 15 35 33)
1969-12-31 18:00:12.396108755,(19 5 -1 3 3 -9 -13 -45)
1969-12-31 18:00:12.396108755,(1 2 5 4 5 22 0 -21)
1969-12-31 18:00:12.404809135,(1 7 8 2 4 6 10 11)
1969-12-31 18:00:12.404809135,(20 15 -8 -8 -8 -19 -20 -39)
1969-12-31 18:00:12.421122349,(-5 -10 -1 -2 4 15 11 64)
1969-12-31 18:00:12.421122349,(-6 -7 -2 1 6 19 -4 -39)
1969-12-31 18:00:12.422209897,(-25 16 5 1 2 25 11 -13)
1969-12-31 18:00:12.422209897,(18 -17 -12 -4 0 0 25 74)
1969-12-31 18:00:12.445048396,(-4 4 7 1 -7 -2 -6 -38)
1969-12-31 18:00:12.445048396,(14 -7 -7 -7 -8 5 -3 45)
1969-12-31 18:00:12.453748776,(5 0 1 -1 -2 10 31 15)
1969-12-31 18:00:12.453748776,(6 15 7 4 9 33 -10 34)
1969-12-31 18:00:12.471149538,(37 11 1 3 0 -3 18 16)
1969-12-31 18:00:12.471149538,(2 -9 -2 2 -1 -8 -5 18)
1969-12-31 18:00:12.472237085,(0 14 0 -2 1 25 -1 -52)
1969-12-31 18:00:12.472237085,(24 20 8 -2 -14 -56 5 3)
1969-12-31 18:00:12.486375204,(-27 -11 -10 -5 20 104 38 -42)
1969-12-31 18:00:12.486375204,(19 3 9 5 -2 -27 -9 -24)
1969-12-31 18:00:12.487462751,(9 -13 -10 -9 -12 -65 -30 -20)
1969-12-31 18:00:12.487462751,(-6 6 5 2 0 23 3 -67)
1969-12-31 18:00:12.511388798,(-58 -17 -8 -8 -14 -32 6 -6)
1969-12-31 18:00:12.511388798,(-21 -4 10 10 9 4 5 -13)
1969-12-31 18:00:12.512476346,(20 1 -4 -4 -5 -19 -40 5)
1969-12-31 18:00:12.512476346,(18 0 2 3 5 18 15 25)
1969-12-31 18:00:12.536402393,(31 11 8 8 1 -11 -18 67)
1969-12-31 18:00:12.536402393,(-10 -3 -9 -8 -1 43 14 8)
1969-12-31 18:00:12.537489940,(-12 6 5 4 1 -16 15 0)
1969-12-31 18:00:12.537489940,(1 1 -2 -4 -5 -7 8 24)
1969-12-31 18:00:12.552715606,(64 27 17 14 16 12 0 63)
1969-12-31 18:00:12.552715606,(-49 -39 -20 -12 -5 -17 -14 -17)
1969-12-31 18:00:12.552715606,(30 35 10 4 1 6 35 44)
1969-12-31 18:00:12.552715606,(-4 1 2 2 -2 9 -16 -25)
1969-12-31 18:00:12.577729201,(-25 -26 -12 -7 -6 7 -28 -36)
1969-12-31 18:00:12.577729201,(-42 -13 -4 -4 -8 -2 -4 -41)
1969-12-31 18:00:12.578816748,(-9 -6 -5 -6 -4 -3 14 58)
1969-12-31 18:00:12.578816748,(-4 5 -3 -2 -5 21 64 -27)
1969-12-31 18:00:12.600567700,(-21 0 -4 -5 -9 -40 -37 -35)
1969-12-31 18:00:12.600567700,(40 37 11 4 1 -10 9 20)
1969-12-31 18:00:12.610355628,(-50 -51 -14 -4 4 33 -3 -16)
1969-12-31 18:00:12.610355628,(9 -2 -5 -1 -3 -12 -8 19)
1969-12-31 18:00:12.616880914,(88 3 -1 0 0 -2 4 60)
1969-12-31 18:00:12.617968461,(1 18 5 0 0 3 -3 41)
1969-12-31 18:00:12.617968461,(45 33 12 5 -6 -21 12 -7)
1969-12-31 18:00:12.617968461,(-39 -21 -7 -3 -1 -14 -36 -62)
1969-12-31 18:00:12.642982055,(-12 5 7 4 1 2 -1 2)
1969-12-31 18:00:12.642982055,(-55 -20 -1 5 8 16 8 -73)
1969-12-31 18:00:12.642982055,(-11 -17 -11 -7 -5 -9 -41 -18)
1969-12-31 18:00:12.642982055,(-6 8 9 7 2 -28 -50 -47)
1969-12-31 18:00:12.666908102,(-9 -2 -6 -6 2 29 25 -8)
1969-12-31 18:00:12.666908102,(-64 -46 -13 -7 -6 1 -31 -7)
1969-12-31 18:00:12.667995650,(44 24 0 -4 2 -5 21 50)
1969-12-31 18:00:12.667995650,(-46 -39 -18 -9 3 34 -1 -3)
1969-12-31 18:00:12.682133768,(-64 -64 -33 -32 -38 -51 -71 -61)
1969-12-31 18:00:12.682133768,(54 28 15 7 6 19 1 4)
1969-12-31 18:00:12.683221316,(-2 4 3 1 4 -14 4 -17)
1969-12-31 18:00:12.683221316,(0 7 0 7 10 50 33 12)
1969-12-31 18:00:12.707147362,(25 19 9 -3 -17 -52 -2 35)
1969-12-31 18:00:12.707147362,(-37 -30 -15 -5 11 21 27 7)
1969-12-31 18:00:12.708234910,(-17 5 3 -4 -12 -5 -16 0)
1969-12-31 18:00:12.708234910,(44 25 12 13 35 67 18 8)
1969-12-31 18:00:12.731073409,(-17 0 -4 -11 -80 -86 -16 -43)
1969-12-31 18:00:12.731073409,(1 -15 -7 1 38 24 -12 11)
1969-12-31 18:00:12.738686243,(43 30 21 27 43 32 48 35)
1969-12-31 18:00:12.739773790,(-55 -25 -18 -33 -74 -53 -52 -23)
1969-12-31 18:00:12.756087004,(-92 -35 -18 -14 -3 2 -23 -55)
1969-12-31 18:00:12.756087004,(30 -1 -1 7 23 -25 11 43)
1969-12-31 18:00:12.757174551,(2 -1 -2 -6 -45 -26 -17 -38)
1969-12-31 18:00:12.757174551,(3 -30 -13 -4 30 -10 6 62)
1969-12-31 18:00:12.772400218,(26 27 13 8 -1 12 12 18)
1969-12-31 18:00:12.772400218,(21 22 0 -11 -25 5 36 27)
1969-12-31 18:00:12.773487765,(-40 -26 -7 -13 2 27 -13 -17)
1969-12-31 18:00:12.773487765,(17 28 11 7 18 -24 20 44)
1969-12-31 18:00:12.797413812,(21 37 13 28 122 127 54 6)
1969-12-31 18:00:12.797413812,(-15 -41 -10 2 -23 -19 -37 -31)
1969-12-31 18:00:12.798501359,(6 7 3 -4 -70 -86 -54 -21)
1969-12-31 18:00:12.798501359,(2 -6 6 12 13 1 -2 -6)
1969-12-31 18:00:12.812639478,(18 9 6 10 4 9 13 19)
1969-12-31 18:00:12.812639478,(7 -2 -10 -7 17 24 -6 -8)
1969-12-31 18:00:12.813727026,(0 -4 -9 -18 5 17 25 10)
1969-12-31 18:00:12.813727026,(11 36 12 -9 -54 -82 -18 0)
1969-12-31 18:00:12.837653072,(-30 -62 -13 11 61 32 17 33)
1969-12-31 18:00:12.837653072,(21 21 -1 2 -14 -31 6 -18)
1969-12-31 18:00:12.839828167,(-9 4 4 6 23 18 -2 -44)
1969-12-31 18:00:12.839828167,(-27 0 -4 -3 -18 -43 -13 -13)
1969-12-31 18:00:12.862666667,(9 -20 -4 -13 -42 -4 5 16)
1969-12-31 18:00:12.862666667,(6 17 7 -2 1 -3 -16 -15)
1969-12-31 18:00:12.863754214,(17 5 -13 10 26 15 1 19)
1969-12-31 18:00:12.863754214,(1 -6 6 -5 14 18 5 -22)
1969-12-31 18:00:12.876804785,(-6 35 19 4 -23 -37 -20 -72)
1969-12-31 18:00:12.876804785,(-36 -23 -18 2 8 17 6 8)
1969-12-31 18:00:12.894205546,(11 -9 -32 -19 2 11 19 1)
1969-12-31 18:00:12.894205546,(9 -6 1 5 11 3 -36 -5)
1969-12-31 18:00:12.902905927,(19 37 26 -2 -55 -33 16 76)
1969-12-31 18:00:12.902905927,(11 -30 -16 2 51 6 -2 -38)
1969-12-31 18:00:12.911606308,(14 21 -3 -10 -27 4 33 48)
1969-12-31 18:00:12.911606308,(39 -1 -4 1 -22 -7 -20 12)
1969-12-31 18:00:12.927919521,(-50 -5 17 4 -11 -20 -28 -30)
1969-12-31 18:00:12.927919521,(64 46 -15 -1 21 1 -7 1)
1969-12-31 18:00:12.929007069,(-46 -60 -41 -32 -56 -54 -37 -41)
1969-12-31 18:00:12.929007069,(-79 -20 71 48 51 25 9 -40)
1969-12-31 18:00:12.943145188,(-28 -43 -27 -15 -27 4 -4 -25)
1969-12-31 18:00:12.943145188,(1 28 -12 -10 -7 -5 -1 38)
1969-12-31 18:00:12.951845568,(4 -54 -48 -8 40 44 34 87)
1969-12-31 18:00:12.951845568,(-28 58 45 1 -16 -5 -8 -61)
1969-12-31 18:00:12.968158782,(22 -5 -17 -6 0 -2 -1 -24)
1969-12-31 18:00:12.968158782,(-32 50 2 -8 -1 4 7 29)
1969-12-31 18:00:12.970333877,(-47 -16 49 29 7 13 6 -43)
1969-12-31 18:00:12.970333877,(28 -63 -78 -16 55 46 6 45)
1969-12-31 18:00:12.993172376,(-44 -24 -6 5 -36 -46 6 -30)
1969-12-31 18:00:12.993172376,(21 -4 -42 -39 -102 -65 -8 -5)
1969-12-31 18:00:12.994259924,(31 108 123 62 76 48 13 50)
1969-12-31 18:00:12.994259924,(-81 -67 -79 -64 -71 18 45 -65)
1969-12-31 18:00:13.007310495,(-49 -73 -27 -13 34 -23 -77 -53)
1969-12-31 18:00:13.007310495,(2 -3 -17 -29 -68 -45 -17 -48)
1969-12-31 18:00:13.018185971,(16 21 15 17 -4 -25 -23 2)
1969-12-31 18:00:13.018185971,(-3 95 53 43 34 15 13 -37)
1969-12-31 18:00:13.033411637,(33 3 -19 -7 53 54 39 60)
1969-12-31 18:00:13.033411637,(30 -53 25 16 -9 -3 37 67)
1969-12-31 18:00:13.048637303,(48 94 25 23 8 -4 -27 38)
1969-12-31 18:00:13.048637303,(-24 -82 11 -3 -3 -43 -65 -83)
1969-12-31 18:00:13.058425231,(20 72 17 -2 -23 -1 2 10)
1969-12-31 18:00:13.058425231,(-23 -35 15 14 52 40 11 10)
1969-12-31 18:00:13.059512779,(0 -48 -81 -22 15 12 -1 -62)
1969-12-31 18:00:13.059512779,(69 46 32 8 3 36 41 110)
1969-12-31 18:00:13.072563350,(5 -43 -53 -55 -89 -54 -12 -29)
1969-12-31 18:00:13.072563350,(-53 43 79 29 -2 3 6 -54)
1969-12-31 18:00:13.083438825,(1 -35 -29 -9 8 -35 -39 -87)
1969-12-31 18:00:13.083438825,(5 -91 -90 -17 23 9 3 48)
1969-12-31 18:00:13.099752039,(26 111 99 59 80 86 48 46)
1969-12-31 18:00:13.099752039,(-28 -18 -18 -12 -14 -36 -41 -16)
1969-12-31 18:00:13.100839587,(28 -11 -41 -21 -16 -6 14 99)
1969-12-31 18:00:13.100839587,(32 65 99 55 18 10 19 23)
1969-12-31 18:00:13.123678086,(34 -27 -61 -9 23 21 -3 -24)
1969-12-31 18:00:13.123678086,(-22 -8 -9 -2 -22 -13 -18 -56)
1969-12-31 18:00:13.124765633,(-3 9 24 -26 14 23 -8 6)
1969-12-31 18:00:13.124765633,(23 42 -4 -2 -41 -9 28 74)
1969-12-31 18:00:13.138903752,(39 -21 -37 -12 -8 -10 20 35)
1969-12-31 18:00:13.138903752,(-15 -43 -13 12 8 4 -11 5)
1969-12-31 18:00:13.148691680,(-51 -74 -49 -23 -8 -27 -35 -84)
1969-12-31 18:00:13.148691680,(-6 25 -18 -26 -22 -10 38 3)
1969-12-31 18:00:13.163917346,(40 -36 -22 -2 21 21 28 63)
1969-12-31 18:00:13.163917346,(-35 7 -26 -11 41 46 -5 -6)
1969-12-31 18:00:13.166092442,(-6 62 65 53 -12 -34 5 -13)
1969-12-31 18:00:13.166092442,(2 -91 -112 -44 -59 -43 -29 -51)
1969-12-31 18:00:13.187843393,(-18 25 35 17 -4 -10 -28 -30)
1969-12-31 18:00:13.187843393,(83 -20 -71 -66 -19 -7 26 51)
1969-12-31 18:00:13.204156607,(-93 24 61 23 -3 26 0 -42)
1969-12-31 18:00:13.204156607,(34 3 -19 11 3 -36 -43 -37)
1969-12-31 18:00:13.221557368,(-67 -106 -15 1 67 23 4 -27)
1969-12-31 18:00:13.221557368,(48 114 42 15 -40 -19 -2 -32)
1969-12-31 18:00:13.223732463,(-30 -22 22 -10 -23 -4 -8 -29)
1969-12-31 18:00:13.223732463,(-19 35 28 -3 -3 -6 -15 -45)
1969-12-31 18:00:13.229170201,(31 -5 -27 -5 -3 -3 8 17)
1969-12-31 18:00:13.229170201,(-6 -8 19 46 125 50 -9 -1)
1969-12-31 18:00:13.231345296,(29 -118 -84 -26 -50 0 34 90)
1969-12-31 18:00:13.231345296,(-60 53 18 -28 -62 -59 -28 -57)
1969-12-31 18:00:13.254183796,(7 27 0 -4 3 -18 -27 -21)
1969-12-31 18:00:13.254183796,(10 101 78 53 45 27 15 6)
1969-12-31 18:00:13.256358891,(29 -36 -10 -21 -88 -31 13 37)
1969-12-31 18:00:13.256358891,(-18 -83 -45 -6 61 45 -2 11)
1969-12-31 18:00:13.269409462,(7 -31 -55 -16 68 27 -11 11)
1969-12-31 18:00:13.269409462,(-21 36 60 9 -122 -83 -27 -6)
1969-12-31 18:00:13.279197390,(-2 2 -21 -11 18 -6 -4 -28)
1969-12-31 18:00:13.279197390,(41 -32 -31 10 37 13 16 36)
1969-12-31 18:00:13.295510604,(26 100 127 63 6 32 10 12)
1969-12-31 18:00:13.295510604,(-54 -56 -53 -49 -27 -32 -9 -40)
1969-12-31 18:00:13.302035889,(67 -19 -28 2 32 33 17 75)
1969-12-31 18:00:13.302035889,(-34 29 9 -12 -11 -21 -14 -26)
1969-12-31 18:00:13.319436650,(17 -40 -40 -25 -123 -68 -17 11)
1969-12-31 18:00:13.319436650,(-12 -63 -49 2 100 72 27 18)
1969-12-31 18:00:13.321611746,(-18 54 50 7 0 -29 -41 -58)
1969-12-31 18:00:13.321611746,(-35 -39 -4 -4 19 7 -19 -49)
1969-12-31 18:00:13.334662316,(-20 45 24 10 -12 -18 10 2)
1969-12-31 18:00:13.334662316,(36 -19 -12 25 38 67 63 64)
1969-12-31 18:00:13.350975530,(6 0 -46 -41 -28 -53 -36 -36)
1969-12-31 18:00:13.350975530,(6 42 69 -7 -81 -46 20 64)
1969-12-31 18:00:13.359675911,(11 -14 -38 -4 -21 -5 -22 6)
1969-12-31 18:00:13.359675911,(22 56 72 34 49 41 35 -2)
1969-12-31 18:00:13.361851006,(19 -34 -38 6 -21 24 -19 18)
1969-12-31 18:00:13.361851006,(1 -90 -54 -18 5 25 -15 -8)
1969-12-31 18:00:13.384689505,(-23 24 -15 -6 -17 -35 16 -9)
1969-12-31 18:00:13.384689505,(11 48 18 -17 -93 -26 -40 -22)
1969-12-31 18:00:13.385777053,(6 -12 -5 -1 32 16 19 -29)
1969-12-31 18:00:13.385777053,(39 5 -9 4 53 22 29 42)
1969-12-31 18:00:13.399915171,(-23 -28 -24 -10 14 2 -6 8)
1969-12-31 18:00:13.399915171,(-71 -120 -69 -35 -88 -50 -12 -17)
1969-12-31 18:00:13.408615552,(34 22 -34 -6 63 41 38 12)
1969-12-31 18:00:13.408615552,(-76 79 83 48 38 3 -71 -71)
1969-12-31 18:00:13.424928766,(65 -48 -71 -19 39 32 30 42)
1969-12-31 18:00:13.424928766,(-8 66 93 36 -13 -29 -8 1)
1969-12-31 18:00:13.431454051,(-18 -11 -32 -26 -82 -35 11 20)
1969-12-31 18:00:13.431454051,(26 80 44 60 29 30 13 42)
1969-12-31 18:00:13.449942359,(15 32 24 6 -15 0 29 3)
1969-12-31 18:00:13.449942359,(-79 -88 -71 -51 -85 -66 -75 -77)
1969-12-31 18:00:13.451029908,(13 -91 -113 -17 69 53 46 38)
1969-12-31 18:00:13.451029908,(29 30 6 -28 -56 -6 -6 2)
1969-12-31 18:00:13.473868407,(-41 4 65 31 -11 -17 7 -37)
1969-12-31 18:00:13.473868407,(20 9 -25 -25 9 -3 4 18)
1969-12-31 18:00:13.476043502,(-32 77 89 44 39 11 -15 -36)
1969-12-31 18:00:13.476043502,(11 -25 -42 -31 -44 -15 22 14)
1969-12-31 18:00:13.489094073,(7 9 13 -11 -24 -19 -45 -14)
1969-12-31 18:00:13.489094073,(-2 -128 -128 -14 58 13 -4 -36)
1969-12-31 18:00:13.505407287,(-33 46 102 21 -44 -22 -16 -14)
1969-12-31 18:00:13.505407287,(39 69 48 19 30 9 24 50)
1969-12-31 18:00:13.515195215,(32 -50 -59 -17 -17 7 12 43)
1969-12-31 18:00:13.515195215,(11 17 45 20 49 25 -1 38)
1969-12-31 18:00:13.516282762,(10 23 -5 -12 -38 -20 0 -1)
1969-12-31 18:00:13.516282762,(-52 -68 -94 -43 -30 -3 14 -49)
1969-12-31 18:00:13.540208809,(3 3 42 36 61 32 12 47)
1969-12-31 18:00:13.540208809,(-19 2 3 3 -9 -6 -16 -71)
1969-12-31 18:00:13.541296357,(-2 33 39 6 -10 -9 -9 -3)
1969-12-31 18:00:13.541296357,(35 -60 -54 -15 -9 -6 13 28)
1969-12-31 18:00:13.555434475,(-4 22 -17 -15 -15 -6 3 1)
1969-12-31 18:00:13.555434475,(46 15 23 19 28 47 50 57)
1969-12-31 18:00:13.561959761,(-9 54 20 23 42 10 -57 -41)
1969-12-31 18:00:13.561959761,(9 -47 -67 -52 -94 -47 7 4)
1969-12-31 18:00:13.580448070,(-43 6 29 -5 10 -3 -31 -52)
1969-12-31 18:00:13.580448070,(49 38 35 16 -13 25 27 67)
1969-12-31 18:00:13.581535617,(4 -7 -9 4 33 4 19 -24)
1969-12-31 18:00:13.581535617,(51 31 45 42 56 0 -16 71)
1969-12-31 18:00:13.604374116,(-8 50 25 11 -18 22 19 -24)
1969-12-31 18:00:13.604374116,(-21 -52 -13 -15 0 -18 -11 27)
1969-12-31 18:00:13.606549212,(-35 -77 -93 -43 -71 -20 -16 -8)
1969-12-31 18:00:13.606549212,(25 93 86 25 23 33 10 0)
1969-12-31 18:00:13.620687330,(-27 -47 -58 -40 -26 -35 -19 -21)
1969-12-31 18:00:13.620687330,(39 84 60 34 42 23 1 -13)
1969-12-31 18:00:13.635912996,(-13 -28 -16 6 -4 0 -10 53)
1969-12-31 18:00:13.635912996,(22 -91 -106 -18 36 47 33 63)
1969-12-31 18:00:13.644613377,(-44 104 119 67 0 -30 -35 -70)
1969-12-31 18:00:13.644613377,(-11 -20 -22 -13 41 -1 -9 -37)
1969-12-31 18:00:13.660926591,(-46 -63 -30 -20 -50 -13 -13 -26)
1969-12-31 18:00:13.660926591,(-23 8 -2 3 24 3 -10 -32)
1969-12-31 18:00:13.670714519,(-16 -67 -52 -28 -66 -43 16 21)
1969-12-31 18:00:13.670714519,(12 -8 -24 -20 66 56 5 11)
1969-12-31 18:00:13.671802066,(-30 16 9 11 -59 -48 -32 -42)
1969-12-31 18:00:13.671802066,(-77 -61 2 5 -16 -10 -18 -54)
1969-12-31 18:00:13.685940185,(44 55 -17 -4 47 23 5 -33)
1969-12-31 18:00:13.685940185,(-35 60 83 17 -61 -41 -3 2)
1969-12-31 18:00:13.692465470,(3 -12 -27 -11 35 30 35 38)
1969-12-31 18:00:13.692465470,(59 27 15 19 13 15 -4 36)
1969-12-31 18:00:13.710953778,(9 -63 -60 -33 3 3 -13 11)
1969-12-31 18:00:13.710953778,(-9 -3 27 6 -50 -28 -17 -8)
1969-12-31 18:00:13.713128873,(6 -19 -24 -12 38 30 10 8)
1969-12-31 18:00:13.713128873,(2 79 50 34 7 -6 27 27)
1969-12-31 18:00:13.734879826,(-1 5 16 13 40 37 15 6)
1969-12-31 18:00:13.735967374,(25 -35 -33 -25 -69 -49 -25 7)
1969-12-31 18:00:13.737054921,(49 13 -22 -5 3 7 0 13)
1969-12-31 18:00:13.737054921,(-65 -2 7 -26 37 21 5 -44)
1969-12-31 18:00:13.751193040,(-13 -56 0 -25 -61 -50 -33 -8)
1969-12-31 18:00:13.751193040,(7 76 6 28 -83 -20 41 -1)
1969-12-31 18:00:13.758805873,(0 -21 25 58 91 11 -28 -10)
1969-12-31 18:00:13.758805873,(-12 -22 -49 -32 -81 -33 -19 -13)
1969-12-31 18:00:13.776206634,(11 6 8 14 35 16 -6 -33)
1969-12-31 18:00:13.776206634,(-3 -48 -74 -28 -16 -17 4 12)
1969-12-31 18:00:13.778381729,(30 -7 18 -16 -9 4 48 93)
1969-12-31 18:00:13.778381729,(24 75 30 -15 -15 -4 -7 10)
1969-12-31 18:00:13.800132681,(-34 -69 -52 -42 15 -7 -4 1)
1969-12-31 18:00:13.800132681,(43 -61 -35 -6 1 -15 -26 3)
1969-12-31 18:00:13.826233823,(11 125 26 34 44 36 29 5)
1969-12-31 18:00:13.826233823,(-26 -36 25 25 27 29 -17 -22)
1969-12-31 18:00:13.827321370,(57 -37 -41 -10 -47 -21 32 57)
1969-12-31 18:00:13.827321370,(-27 114 100 34 47 14 -14 -27)
1969-12-31 18:00:13.828408918,(-36 -36 12 -46 -98 -69 -26 -71)
1969-12-31 18:00:13.828408918,(28 -33 -36 23 71 15 -2 19)
1969-12-31 18:00:13.841459489,(-46 -51 -21 -20 -27 -14 -18 -45)
1969-12-31 18:00:13.841459489,(5 -86 -114 -40 44 40 26 44)
1969-12-31 18:00:13.843634584,(3 28 37 45 19 11 19 -12)
1969-12-31 18:00:13.843634584,(-53 -9 54 32 45 -13 -6 -28)
1969-12-31 18:00:13.866473083,(12 -48 -49 -12 11 36 8 77)
1969-12-31 18:00:13.866473083,(52 86 85 32 21 -20 10 -8)
1969-12-31 18:00:13.867560631,(-56 -21 -23 -19 0 1 -28 -26)
1969-12-31 18:00:13.867560631,(18 -60 -88 -28 -29 -1 18 13)
1969-12-31 18:00:13.881698749,(-29 16 73 14 -5 -1 -6 15)
1969-12-31 18:00:13.881698749,(-26 -43 -84 -31 12 9 -30 -63)
1969-12-31 18:00:13.889311582,(24 66 47 2 -70 -43 13 -2)
1969-12-31 18:00:13.889311582,(26 -10 18 20 40 29 -1 12)
1969-12-31 18:00:13.906712344,(-40 8 -13 -10 -28 -11 -5 -67)
1969-12-31 18:00:13.906712344,(13 -6 7 -10 38 -2 -23 25)
1969-12-31 18:00:13.908887439,(4 -19 -13 4 94 42 23 14)
1969-12-31 18:00:13.908887439,(-14 -16 -36 16 -31 -7 -18 -28)
1969-12-31 18:00:13.931725938,(14 52 29 -6 -21 -15 -3 -32)
1969-12-31 18:00:13.931725938,(-76 -26 44 40 27 14 -11 -60)
1969-12-31 18:00:13.932813486,(38 -33 -39 -58 -108 -49 -5 -2)
1969-12-31 18:00:13.932813486,(24 14 -20 -24 -28 -5 -11 3)
1969-12-31 18:00:13.946951604,(16 74 -3 22 24 17 8 43)
1969-12-31 18:00:13.946951604,(-39 -12 40 5 -35 -22 3 -19)
1969-12-31 18:00:13.962177270,(-4 -39 -8 7 14 11 9 53)
1969-12-31 18:00:13.962177270,(-9 -45 -54 -49 -53 -41 -20 -58)
1969-12-31 18:00:13.971965198,(-54 -15 -32 -9 3 -6 -36 -39)
1969-12-31 18:00:13.971965198,(99 74 -24 -3 -13 18 50 83)
1969-12-31 18:00:13.974140294,(-54 -6 64 34 78 52 3 -59)
1969-12-31 18:00:13.974140294,(7 16 49 14 -71 -61 -26 32)
1969-12-31 18:00:13.996978793,(38 6 -41 -19 4 7 6 -26)
1969-12-31 18:00:13.996978793,(22 -46 -16 8 5 4 19 64)
1969-12-31 18:00:13.998066340,(9 25 -45 -22 4 12 3 4)
1969-12-31 18:00:13.998066340,(-4 94 102 30 -1 13 21 15)
1969-12-31 18:00:14.012204459,(8 26 35 16 28 -6 1 -6)
1969-12-31 18:00:14.012204459,(29 -14 -42 -18 -64 -12 2 37)
1969-12-31 18:00:14.018729744,(-43 -99 -62 -21 1 -29 -34 -46)
1969-12-31 18:00:14.019817292,(10 39 -20 0 13 -3 -7 -33)
1969-12-31 18:00:14.037218053,(12 68 115 48 50 37 39 44)
1969-12-31 18:00:14.037218053,(52 13 -11 4 -13 3 14 70)
1969-12-31 18:00:14.039393148,(23 10 8 -9 -20 -26 -39 -59)
1969-12-31 18:00:14.039393148,(-30 -69 -43 -26 3 11 23 12)
1969-12-31 18:00:14.062231648,(9 4 -22 -15 15 9 -25 -23)
1969-12-31 18:00:14.062231648,(-5 -53 -52 -39 -45 -40 -7 5)
1969-12-31 18:00:14.063319195,(-18 3 52 52 44 45 23 25)
1969-12-31 18:00:14.063319195,(50 44 23 18 -4 -25 -6 31)
1969-12-31 18:00:14.076369766,(19 58 45 53 39 28 43 33)
1969-12-31 18:00:14.076369766,(-64 -54 -17 -63 -95 -69 -75 -78)
1969-12-31 18:00:14.086157694,(59 48 21 -4 -29 -14 21 63)
1969-12-31 18:00:14.086157694,(-56 -66 -56 -42 7 18 -14 -55)
1969-12-31 18:00:14.101383361,(44 -28 -61 -8 22 -2 9 30)
1969-12-31 18:00:14.101383361,(-75 -26 29 35 52 26 -6 -51)
1969-12-31 18:00:14.116609027,(15 11 57 18 -13 -1 9 18)
1969-12-31 18:00:14.117696574,(39 20 -1 -3 13 6 -12 -14)
1969-12-31 18:00:14.127484502,(-75 -30 -19 -2 -22 0 -3 17)
1969-12-31 18:00:14.127484502,(-1 33 13 0 -2 -2 -18 -46)
1969-12-31 18:00:14.128572050,(21 5 -22 -5 27 15 -3 10)
1969-12-31 18:00:14.128572050,(-11 -68 -29 -12 -6 0 26 41)
1969-12-31 18:00:14.141622621,(-5 -8 18 -8 -46 -31 -50 -41)
1969-12-31 18:00:14.141622621,(-20 23 5 -10 66 13 6 -10)
1969-12-31 18:00:14.151410549,(-4 -7 -17 14 40 19 1 10)
1969-12-31 18:00:14.151410549,(-40 16 18 47 47 17 1 -20)
1969-12-31 18:00:14.167723763,(37 -38 -49 7 8 0 -14 -8)
1969-12-31 18:00:14.167723763,(1 1 11 19 -2 13 27 55)
1969-12-31 18:00:14.168811310,(-35 23 45 -10 7 27 14 -14)
1969-12-31 18:00:14.169898858,(-7 45 29 0 9 -40 -38 -60)
1969-12-31 18:00:14.191649810,(-19 -9 11 -26 -71 -7 16 18)
1969-12-31 18:00:14.191649810,(-26 -32 -69 -42 -31 -32 -8 -31)
1969-12-31 18:00:14.193824905,(-16 -37 -49 -20 -2 6 1 4)
1969-12-31 18:00:14.193824905,(8 -13 6 -1 -2 17 16 15)
1969-12-31 18:00:14.206875476,(5 27 17 7 20 16 30 40)
1969-12-31 18:00:14.206875476,(31 10 8 18 30 16 13 28)
1969-12-31 18:00:14.216663404,(-11 2 -7 -27 -46 -7 -12 -31)
1969-12-31 18:00:14.216663404,(12 2 -3 -3 49 19 7 11)
1969-12-31 18:00:14.232976618,(23 12 25 21 33 -5 -4 -8)
1969-12-31 18:00:14.232976618,(-24 -21 -14 12 9 13 -18 -17)
1969-12-31 18:00:14.235151713,(6 -52 -68 -26 -14 -12 -7 -6)
1969-12-31 18:00:14.235151713,(-31 -26 -20 -33 -31 -14 -1 12)
1969-12-31 18:00:14.256902664,(92 101 90 69 40 11 11 23)
1969-12-31 18:00:14.256902664,(43 52 64 51 36 16 1 31)
1969-12-31 18:00:14.265603045,(10 -9 16 24 29 -6 3 12)
1969-12-31 18:00:14.265603045,(-2 -36 -37 -37 -60 -19 -29 -21)
1969-12-31 18:00:14.272128331,(-25 -46 -61 -48 -27 -11 19 23)
1969-12-31 18:00:14.272128331,(5 -8 1 -13 -7 5 12 13)
1969-12-31 18:00:14.281916259,(49 54 22 2 -28 -16 -23 5)
1969-12-31 18:00:14.281916259,(-12 -9 0 2 2 7 31 36)
1969-12-31 18:00:14.298229473,(-20 8 14 4 1 0 -35 -23)
1969-12-31 18:00:14.298229473,(10 4 -12 -8 -22 -17 -16 -38)
1969-12-31 18:00:14.299317020,(58 17 4 2 8 18 38 58)
1969-12-31 18:00:14.299317020,(-52 -39 -8 1 -7 -16 -30 -50)
1969-12-31 18:00:14.322155519,(-3 -29 -13 -16 -26 -11 -2 -2)
1969-12-31 18:00:14.322155519,(-40 -8 0 9 15 32 11 -23)
1969-12-31 18:00:14.324330614,(18 22 -3 3 7 -13 -25 -8)
1969-12-31 18:00:14.324330614,(55 42 31 27 17 21 49 52)
1969-12-31 18:00:14.337381185,(41 -14 -21 -9 -13 -17 -7 0)
1969-12-31 18:00:14.337381185,(-74 -28 -8 -26 -21 -13 -16 -33)
1969-12-31 18:00:14.347169114,(-10 11 22 16 -7 -1 -4 -19)
1969-12-31 18:00:14.347169114,(-1 -2 0 6 -15 -12 -19 -21)
1969-12-31 18:00:14.363482327,(-27 7 5 -8 4 7 -9 -8)
1969-12-31 18:00:14.363482327,(23 -6 -17 -8 0 -5 13 5)
1969-12-31 18:00:14.365657423,(-19 -10 -12 1 3 0 -10 -24)
1969-12-31 18:00:14.365657423,(-59 -19 0 -12 -17 -6 -1 -29)
1969-12-31 18:00:14.388495922,(-21 -15 2 -3 -3 0 -5 12)
1969-12-31 18:00:14.388495922,(11 18 1 2 1 -2 -3 -35)
1969-12-31 18:00:14.389583469,(-2 4 8 -2 -10 -5 7 8)
1969-12-31 18:00:14.389583469,(39 10 -6 12 11 16 5 10)
1969-12-31 18:00:14.402634040,(4 7 -10 -9 -4 -5 -1 -4)
1969-12-31 18:00:14.402634040,(19 -26 1 1 1 5 21 104)
1969-12-31 18:00:14.418947254,(-23 -8 -7 -10 -8 -11 -7 -66)
1969-12-31 18:00:14.418947254,(25 14 5 6 34 8 -25 -4)
1969-12-31 18:00:14.427647635,(-14 2 4 6 7 12 28 -13)
1969-12-31 18:00:14.427647635,(116 57 24 12 4 7 18 64)
1969-12-31 18:00:14.435260468,(-69 -45 -22 -2 -1 4 -7 -38)
1969-12-31 18:00:14.435260468,(34 6 -4 -18 -25 -16 -5 9)
1969-12-31 18:00:14.452661229,(5 1 7 1 -4 -3 -6 -13)
1969-12-31 18:00:14.452661229,(74 15 4 15 19 17 15 30)
1969-12-31 18:00:14.454836324,(7 11 2 -3 -5 -12 -3 11)
1969-12-31 18:00:14.454836324,(-58 -20 -2 0 -5 -3 -8 -34)
1969-12-31 18:00:14.467886895,(22 24 -7 -14 -3 2 -1 22)
1969-12-31 18:00:14.467886895,(-25 -14 -9 -5 -9 -8 -8 -24)
1969-12-31 18:00:14.477674823,(-9 -1 2 3 -2 -7 -9 -1)
1969-12-31 18:00:14.477674823,(14 25 27 24 13 14 34 84)
1969-12-31 18:00:14.493988037,(-7 -8 -1 9 8 5 -3 -27)
1969-12-31 18:00:14.493988037,(4 21 1 -4 -1 -2 -5 -16)
1969-12-31 18:00:14.500513322,(-61 -47 -27 -25 -15 -12 -11 -12)
1969-12-31 18:00:14.500513322,(13 4 -4 -6 0 2 1 -1)
1969-12-31 18:00:14.517914084,(0 0 2 12 7 5 3 3)
1969-12-31 18:00:14.517914084,(-42 -14 13 8 0 0 -7 -25)
1969-12-31 18:00:14.520089179,(49 40 17 8 5 6 7 17)
1969-12-31 18:00:14.520089179,(34 17 1 0 -4 -2 4 5)
1969-12-31 18:00:14.541840131,(-30 -30 1 3 1 -4 -10 -16)
1969-12-31 18:00:14.541840131,(-37 -8 -16 -12 -7 -8 -12 -31)
1969-12-31 18:00:14.558153344,(61 24 14 18 12 10 16 50)
1969-12-31 18:00:14.558153344,(-48 -28 -14 -15 -14 -9 -10 -35)
1969-12-31 18:00:14.567941272,(7 -18 -12 -11 -8 -4 -3 6)
1969-12-31 18:00:14.567941272,(8 18 -3 -2 -1 -3 -1 6)
1969-12-31 18:00:14.569028820,(5 -1 -10 -7 -4 -2 3 11)
1969-12-31 18:00:14.569028820,(6 26 31 10 0 0 -2 -1)
1969-12-31 18:00:14.583166939,(-22 -19 -2 -2 -1 -2 -6 -18)
1969-12-31 18:00:14.583166939,(-22 -40 -25 -13 -6 -3 -1 -5)
1969-12-31 18:00:14.591867319,(8 -9 -39 -16 -3 -8 -8 -8)
1969-12-31 18:00:14.591867319,(24 50 69 33 8 4 -1 -3)
1969-12-31 18:00:14.608180533,(13 1 -23 -4 -8 0 3 5)
1969-12-31 18:00:14.608180533,(8 35 54 17 7 5 6 5)
1969-12-31 18:00:14.610355628,(-17 -34 -25 -12 -7 -9 -14 -15)
1969-12-31 18:00:14.610355628,(6 -59 -55 -28 -7 0 4 4)
1969-12-31 18:00:14.623406199,(2 43 15 4 5 6 6 2)
1969-12-31 18:00:14.623406199,(-24 1 -8 -4 -9 -11 -21 -24)
1969-12-31 18:00:14.631019032,(-3 -3 10 6 1 -2 -3 -6)
1969-12-31 18:00:14.631019032,(16 40 45 25 6 3 14 8)
1969-12-31 18:00:14.648419793,(-9 -57 -55 -19 -10 -7 -13 -8)
1969-12-31 18:00:14.649507341,(-6 -33 -34 -13 -1 1 -11 -2)
1969-12-31 18:00:14.650594889,(-13 4 12 -1 2 4 18 15)
1969-12-31 18:00:14.650594889,(-3 -52 -73 -30 -13 -11 -15 -10)
1969-12-31 18:00:14.673433388,(-1 35 29 0 -2 -7 -7 -11)
1969-12-31 18:00:14.673433388,(-12 -17 1 8 0 -5 -7 -9)
1969-12-31 18:00:14.675608483,(6 33 47 31 14 13 7 11)
1969-12-31 18:00:14.675608483,(-1 -44 -52 -18 -6 3 6 2)
1969-12-31 18:00:14.688659054,(-2 50 54 3 -2 -4 -2 -4)
1969-12-31 18:00:14.688659054,(2 5 11 13 3 3 4 1)
1969-12-31 18:00:14.696271887,(-15 -22 -14 -12 -7 -6 2 -10)
1969-12-31 18:00:14.696271887,(2 17 -6 10 3 -2 -8 5)
1969-12-31 18:00:14.712585101,(-4 -30 -16 -9 -2 7 17 5)
1969-12-31 18:00:14.712585101,(-2 5 7 -1 0 0 -16 -10)
1969-12-31 18:00:14.722373029,(-10 -20 -11 -5 -6 -4 -10 -13)
1969-12-31 18:00:14.722373029,(-2 17 2 -4 1 2 -7 -2)
1969-12-31 18:00:14.738686243,(0 16 27 19 0 -5 2 0)
1969-12-31 18:00:14.738686243,(-2 -34 -43 -15 -5 0 1 0)
1969-12-31 18:00:14.740861338,(5 21 26 5 2 2 0 -3)
1969-12-31 18:00:14.740861338,(-13 15 29 3 -1 -2 1 -1)
1969-12-31 18:00:14.753911909,(6 8 -7 -4 0 3 -2 -1)
1969-12-31 18:00:14.753911909,(10 26 -17 -25 -8 3 11 2)
1969-12-31 18:00:14.761524742,(-1 6 30 35 14 4 -6 1)
1969-12-31 18:00:14.761524742,(0 0 16 7 0 1 1 -1)
1969-12-31 18:00:14.778925503,(-14 -56 -30 -15 -6 2 -6 -3)
1969-12-31 18:00:14.780013051,(-4 29 5 6 -1 -3 -6 -9)
1969-12-31 18:00:14.781100598,(-4 -12 -28 -19 -11 1 -5 -11)
1969-12-31 18:00:14.781100598,(0 9 7 -2 -3 2 -8 -9)
1969-12-31 18:00:14.803939097,(-1 -38 -32 -6 -5 0 -3 -9)
1969-12-31 18:00:14.803939097,(-8 -14 11 1 -4 -6 18 8)
1969-12-31 18:00:14.806114192,(19 55 8 10 5 -4 -3 9)
1969-12-31 18:00:14.806114192,(-14 -32 -51 -39 -14 -18 -5 1)
1969-12-31 18:00:14.819164763,(1 -15 21 17 9 -3 -9 0)
1969-12-31 18:00:14.819164763,(1 -45 -6 5 4 3 15 12)
1969-12-31 18:00:14.843090810,(19 100 87 50 23 10 6 3)
1969-12-31 18:00:14.844178358,(14 -26 27 24 9 2 0 3)
1969-12-31 18:00:14.851791191,(-11 -9 -20 -27 -12 -8 -9 -3)
1969-12-31 18:00:14.851791191,(3 3 1 -4 -2 -2 -2 -5)
1969-12-31 18:00:14.869191952,(-19 -34 -13 -5 -3 1 4 -1)
1969-12-31 18:00:14.869191952,(5 18 -6 -17 -7 -1 -1 -2)
1969-12-31 18:00:14.870279500,(-19 -32 -34 -23 -8 -6 0 -3)
1969-12-31 18:00:14.870279500,(-1 31 82 32 8 -2 -6 -7)
1969-12-31 18:00:14.872454595,(6 30 48 34 10 0 -5 -2)
1969-12-31 18:00:14.872454595,(2 16 13 20 8 7 17 5)
1969-12-31 18:00:14.884417618,(-15 -16 -21 -15 -11 -8 -9 0)
1969-12-31 18:00:14.884417618,(17 4 -4 2 2 0 3 8)
1969-12-31 18:00:14.894205546,(-13 -26 -13 -11 -1 -1 -6 -9)
1969-12-31 18:00:14.894205546,(-2 47 3 -16 -6 -4 -6 -4)
1969-12-31 18:00:14.918131593,(21 78 56 42 17 6 7 0)
1969-12-31 18:00:14.918131593,(-1 14 -11 -5 -7 -6 -11 -9)
1969-12-31 18:00:14.919219141,(-24 -49 -21 -17 -6 2 1 -4)
1969-12-31 18:00:14.919219141,(-3 -15 -13 0 0 2 -5 -4)
1969-12-31 18:00:14.934444807,(-7 -4 -27 -27 -9 2 -1 -4)
1969-12-31 18:00:14.934444807,(7 18 -9 0 3 4 -2 1)
1969-12-31 18:00:14.935532355,(-1 -33 -15 -10 -7 0 -1 -5)
1969-12-31 18:00:14.936619902,(-13 -31 -16 -9 -5 3 -5 -6)
1969-12-31 18:00:14.948582926,(2 18 18 9 5 7 -5 -9)
1969-12-31 18:00:14.948582926,(-11 -28 -11 -1 -2 8 -1 -8)
1969-12-31 18:00:14.958370854,(0 10 -15 -11 -6 4 0 -1)
1969-12-31 18:00:14.958370854,(-10 -29 -23 -19 -8 8 -3 -6)
1969-12-31 18:00:14.983384448,(8 32 40 25 7 15 2 -6)
1969-12-31 18:00:14.983384448,(-3 7 6 13 5 14 2 -7)
1969-12-31 18:00:14.989909734,(3 -22 -29 -15 -14 -4 1 3)
1969-12-31 18:00:14.989909734,(10 5 3 10 -2 -8 1 6)
1969-12-31 18:00:14.998610114,(3 -17 -33 -9 -4 -11 3 10)
1969-12-31 18:00:14.998610114,(-5 -27 -34 -17 -6 -29 -5 8)
1969-12-31 18:00:15.023623709,(2 -23 -42 -24 -4 -27 -5 8)
1969-12-31 18:00:15.023623709,(9 16 11 22 15 -15 6 14)
1969-12-31 18:00:15.024711256,(-9 -23 -12 -8 2 -14 3 10)
1969-12-31 18:00:15.024711256,(3 46 7 -3 5 -15 -5 -4)
1969-12-31 18:00:15.032324089,(-4 -5 -6 -5 1 -21 -2 3)
1969-12-31 18:00:15.032324089,(-1 -2 -6 -9 2 -11 -1 0)
1969-12-31 18:00:15.039936922,(2 9 6 6 3 -4 -4 -2)
1969-12-31 18:00:15.039936922,(-1 -9 -6 -4 -1 8 -2 9)
1969-12-31 18:00:15.055162588,(0 -9 -12 -4 -2 11 -1 4)
1969-12-31 18:00:15.055162588,(2 1 -7 -3 -3 1 -3 3)
1969-12-31 18:00:15.063862969,(4 1 -3 1 1 -3 5 6)
1969-12-31 18:00:15.063862969,(0 -10 -17 -10 -3 -3 12 10)
1969-12-31 18:00:15.080176183,(-4 -7 -10 -10 1 3 8 4)
1969-12-31 18:00:15.080176183,(-2 3 7 2 4 6 6 0)
1969-12-31 18:00:15.081263730,(-5 -5 0 -8 -3 5 -1 -8)
1969-12-31 18:00:15.081263730,(-11 -28 -12 -20 -9 -1 -2 -7)
1969-12-31 18:00:15.097576944,(4 25 27 21 9 3 4 -4)
1969-12-31 18:00:15.097576944,(3 4 12 4 -3 -13 -7 -12)
1969-12-31 18:00:15.106277325,(1 1 1 1 -1 -7 -2 -2)
1969-12-31 18:00:15.106277325,(-4 -6 7 2 -2 1 -3 -4)
1969-12-31 18:00:15.108452420,(-4 -8 -7 -13 -9 5 -7 -9)
1969-12-31 18:00:15.108452420,(-4 4 8 1 1 20 -6 -11)
1969-12-31 18:00:15.130203371,(3 4 20 13 4 20 -1 -3)
1969-12-31 18:00:15.130203371,(-6 -5 6 4 -1 8 -8 -12)
1969-12-31 18:00:15.131290919,(-1 -8 -8 -5 -5 2 -3 -5)
1969-12-31 18:00:15.131290919,(3 7 5 9 -1 1 -1 -3)
1969-12-31 18:00:15.154129418,(-3 -8 -9 -10 -5 -6 -5 -3)
1969-12-31 18:00:15.154129418,(-2 8 5 3 1 1 -1 -4)
1969-12-31 18:00:15.172617727,(-3 4 2 2 -2 -1 -3 -4)
1969-12-31 18:00:15.172617727,(-7 -9 -2 -7 -7 -4 -2 -1)
1969-12-31 18:00:15.173705275,(-4 -4 4 5 -3 -1 -2 -3)
1969-12-31 18:00:15.173705275,(3 9 3 3 -1 0 -8 -10)
1969-12-31 18:00:15.174792822,(-3 -12 3 -1 -6 0 -3 -2)
1969-12-31 18:00:15.174792822,(0 -2 1 0 -4 2 1 3)
1969-12-31 18:00:15.195456226,(1 1 2 2 -1 0 2 -1)
1969-12-31 18:00:15.195456226,(0 -2 -6 2 0 -1 1 2)
1969-12-31 18:00:15.196543774,(4 -4 -6 -7 -3 -2 1 3)
1969-12-31 18:00:15.196543774,(2 10 0 7 2 -1 -1 0)
1969-12-31 18:00:15.196543774,(-11 -17 -33 -38 -33 -19 -14 -9)
1969-12-31 18:00:15.196543774,(-5 -8 5 -4 -20 3 10 4)
1969-12-31 18:00:15.206331702,(-6 -26 -83 -57 -9 -5 -10 -1)
1969-12-31 18:00:15.206331702,(10 15 38 30 22 -3 7 8)
1969-12-31 18:00:15.222644916,(22 29 67 106 38 11 24 36)
1969-12-31 18:00:15.222644916,(8 11 -36 -26 -18 -37 -5 6)
1969-12-31 18:00:15.223732463,(-4 -6 4 -19 1 6 10 11)
1969-12-31 18:00:15.223732463,(-11 -29 -90 -56 3 -12 -7 -13)
1969-12-31 18:00:15.245483415,(-11 -11 -10 -38 -30 -23 0 -3)
1969-12-31 18:00:15.245483415,(-15 -36 -57 -39 -9 -5 -6 -9)
1969-12-31 18:00:15.271584557,(9 39 63 85 28 26 1 -5)
1969-12-31 18:00:15.271584557,(9 36 63 37 12 4 4 4)
1969-12-31 18:00:15.272672104,(-6 2 -26 -5 -13 5 -6 -18)
1969-12-31 18:00:15.272672104,(-9 -2 -40 -18 -5 8 -3 -12)
1969-12-31 18:00:15.273759652,(-11 -22 -7 -13 -11 8 -10 -17)
1969-12-31 18:00:15.273759652,(-35 -56 -116 -103 -30 -9 -19 -30)
1969-12-31 18:00:15.286810223,(6 -10 76 38 -11 8 1 5)
1969-12-31 18:00:15.286810223,(35 80 115 108 53 25 8 1)
1969-12-31 18:00:15.288985318,(6 24 28 -4 -6 5 1 -2)
1969-12-31 18:00:15.288985318,(5 9 4 20 7 13 9 15)
1969-12-31 18:00:15.311823817,(-16 -28 -83 -72 -25 -8 -19 -26)
1969-12-31 18:00:15.311823817,(-14 -38 -46 -52 -29 -17 -12 -10)
1969-12-31 18:00:15.313998912,(8 9 36 37 9 9 4 7)
1969-12-31 18:00:15.313998912,(-1 -8 -18 -12 4 7 8 10)
1969-12-31 18:00:15.336837412,(-2 -2 -17 -21 -2 -2 1 6)
1969-12-31 18:00:15.336837412,(6 2 31 24 -6 -13 0 5)
1969-12-31 18:00:15.337924959,(4 4 -1 17 7 -5 1 2)
1969-12-31 18:00:15.337924959,(-2 -12 -33 -17 0 -9 2 6)
1969-12-31 18:00:15.352063078,(0 5 -13 -8 0 -12 3 6)
1969-12-31 18:00:15.352063078,(0 8 26 25 8 -5 2 5)
1969-12-31 18:00:15.354238173,(-2 -8 -15 -11 -1 -2 4 8)
1969-12-31 18:00:15.354238173,(4 -1 -2 -3 2 -8 2 4)
1969-12-31 18:00:15.377076672,(2 9 6 16 8 -2 3 1)
1969-12-31 18:00:15.377076672,(-4 -3 -4 -10 -1 -5 1 1)
1969-12-31 18:00:15.383601958,(-5 -7 -11 -14 -4 -1 -2 -5)
1969-12-31 18:00:15.383601958,(2 8 21 12 4 3 -1 -4)
1969-12-31 18:00:15.391214791,(14 10 -2 0 3 6 -1 -1)
1969-12-31 18:00:15.391214791,(-12 -3 1 -8 -5 6 1 -3)
1969-12-31 18:00:15.407528004,(-14 -10 -1 -4 -6 -1 -8 -26)
1969-12-31 18:00:15.407528004,(11 13 20 19 6 7 1 3)
1969-12-31 18:00:15.417315933,(26 9 -10 -3 -1 6 7 15)
1969-12-31 18:00:15.417315933,(-47 -30 -13 -15 -15 -14 -21 -46)
1969-12-31 18:00:15.423841218,(-5 -3 7 12 0 4 7 30)
1969-12-31 18:00:15.423841218,(-7 -5 -5 2 -1 -6 -12 -21)
1969-12-31 18:00:15.442329527,(1 -7 -20 -14 -6 -6 -4 7)
1969-12-31 18:00:15.442329527,(38 19 16 8 3 2 12 27)
1969-12-31 18:00:15.443417074,(-15 8 8 10 7 -2 -17 -24)
1969-12-31 18:00:15.443417074,(-16 -14 -6 -5 -5 -5 11 9)
1969-12-31 18:00:15.456467645,(5 -5 -3 1 3 3 -10 13)
1969-12-31 18:00:15.456467645,(25 17 11 9 5 16 18 13)
1969-12-31 18:00:15.466255574,(-26 -13 -12 -3 -4 -9 -10 19)
1969-12-31 18:00:15.466255574,(-1 -6 -6 -3 -1 3 10 -24)
1969-12-31 18:00:15.482568787,(-28 3 3 5 5 0 -20 -9)
1969-12-31 18:00:15.482568787,(-17 -33 -11 -8 -9 -39 -11 -10)
1969-12-31 18:00:15.484743883,(14 10 6 -1 2 11 4 9)
1969-12-31 18:00:15.484743883,(39 21 13 7 9 28 -14 4)
1969-12-31 18:00:15.507582382,(-43 -6 -5 -3 -7 3 21 -14)
1969-12-31 18:00:15.507582382,(2 -1 0 -4 -3 7 5 33)
1969-12-31 18:00:15.508669929,(8 11 2 2 -4 -8 2 -50)
1969-12-31 18:00:15.508669929,(-19 -9 3 4 0 -1 -2 -14)
1969-12-31 18:00:15.521720500,(16 9 5 4 4 5 5 6)
1969-12-31 18:00:15.521720500,(-14 -8 -12 -11 -9 -12 2 13)
1969-12-31 18:00:15.531508428,(-22 -19 -9 -8 -8 -7 -24 -34)
1969-12-31 18:00:15.531508428,(40 13 6 8 9 24 30 88)
1969-12-31 18:00:15.546734095,(-36 -19 -14 -12 -10 -15 -18 -83)
1969-12-31 18:00:15.546734095,(20 10 10 8 5 19 16 10)
1969-12-31 18:00:15.573922784,(48 24 13 8 6 -8 -2 28)
1969-12-31 18:00:15.573922784,(10 9 -13 -11 -5 -14 -11 7)
1969-12-31 18:00:15.575010332,(-3 -13 3 2 4 11 -2 32)
1969-12-31 18:00:15.575010332,(-20 1 -2 -5 -7 -22 -16 -32)
1969-12-31 18:00:15.576097879,(26 15 9 7 19 42 -14 8)
1969-12-31 18:00:15.576097879,(-9 -7 1 3 3 -5 10 13)
1969-12-31 18:00:15.596761283,(-14 -13 -6 -4 -8 17 -21 -69)
1969-12-31 18:00:15.596761283,(3 6 1 -6 -18 -84 -28 -13)
1969-12-31 18:00:15.596761283,(-3 -9 -5 5 26 82 38 24)
1969-12-31 18:00:15.596761283,(-37 -16 -3 1 6 -11 15 1)
1969-12-31 18:00:15.613074497,(0 -2 -3 -7 -8 -22 4 42)
1969-12-31 18:00:15.613074497,(11 7 8 6 9 23 4 -9)
1969-12-31 18:00:15.613074497,(3 4 -10 -13 -20 -35 -10 -10)
1969-12-31 18:00:15.613074497,(-54 -26 -7 -2 -6 2 -13 -23)
1969-12-31 18:00:15.637000544,(2 -10 -13 -12 -4 -3 20 16)
1969-12-31 18:00:15.637000544,(13 10 7 7 9 19 -13 -4)
1969-12-31 18:00:15.638088091,(-43 -14 -3 -1 -13 -61 -19 -21)
1969-12-31 18:00:15.638088091,(20 2 0 -1 5 21 24 22)
1969-12-31 18:00:15.662014138,(38 21 13 8 3 -12 -24 35)
1969-12-31 18:00:15.662014138,(-16 -3 -2 0 3 5 37 32)
1969-12-31 18:00:15.663101686,(-11 -44 -26 -20 -18 -18 8 51)
1969-12-31 18:00:15.663101686,(25 27 14 7 2 16 -21 36)
1969-12-31 18:00:15.679414899,(8 -2 -4 -3 -3 -36 -19 6)
1969-12-31 18:00:15.679414899,(-8 8 -1 -6 -2 27 2 -20)
1969-12-31 18:00:15.680502447,(9 14 10 3 2 18 28 23)
1969-12-31 18:00:15.680502447,(32 22 4 1 -13 -57 -5 28)
1969-12-31 18:00:15.702253399,(-46 -10 -4 -5 -7 2 -14 -70)
1969-12-31 18:00:15.702253399,(-39 -29 -1 8 22 25 -10 19)
1969-12-31 18:00:15.710953778,(0 7 3 0 -10 -32 -12 -53)
1969-12-31 18:00:15.710953778,(22 -7 -12 -12 -7 -4 8 -14)
1969-12-31 18:00:15.727266993,(-73 -37 -1 4 2 7 20 -23)
1969-12-31 18:00:15.727266993,(72 50 4 -2 -4 -5 -27 9)
1969-12-31 18:00:15.727266993,(-8 -18 -7 -4 -1 19 -6 -5)
1969-12-31 18:00:15.727266993,(-13 28 14 6 -2 -47 14 -29)
1969-12-31 18:00:15.743580207,(20 -21 -15 -6 -5 13 36 9)
1969-12-31 18:00:15.743580207,(-18 -24 -7 -4 -1 13 -14 -9)
1969-12-31 18:00:15.744667754,(1 2 3 3 4 9 -22 -29)
1969-12-31 18:00:15.744667754,(0 2 -3 -3 -2 38 8 16)
1969-12-31 18:00:15.767506253,(43 40 11 1 5 -4 -57 -16)
1969-12-31 18:00:15.767506253,(-7 -11 -5 -4 -8 -8 22 -30)
1969-12-31 18:00:15.768593801,(14 16 2 -3 -6 -26 6 23)
1969-12-31 18:00:15.768593801,(-46 -34 -2 4 7 4 -7 -25)
1969-12-31 18:00:15.792519848,(-25 5 -6 -7 0 25 -8 -20)
1969-12-31 18:00:15.792519848,(16 -13 -5 -3 -2 5 -17 -3)
1969-12-31 18:00:15.792519848,(-5 -6 -3 -1 1 2 12 13)
1969-12-31 18:00:15.792519848,(-17 -17 0 -2 1 5 -12 6)
1969-12-31 18:00:15.817533442,(4 1 -5 -6 -2 14 31 24)
1969-12-31 18:00:15.817533442,(23 9 -1 2 -1 -9 0 29)
1969-12-31 18:00:15.818620990,(-3 -4 -2 0 1 5 18 11)
1969-12-31 18:00:15.818620990,(-33 -30 -5 -3 -4 -11 -14 -64)
1969-12-31 18:00:15.832759108,(37 16 6 5 2 -13 6 45)
1969-12-31 18:00:15.832759108,(-6 10 3 -1 -1 19 8 0)
1969-12-31 18:00:15.833846656,(-26 -30 -10 -7 5 76 75 -11)
1969-12-31 18:00:15.833846656,(3 15 -2 -4 -10 -49 -18 -21)
1969-12-31 18:00:15.857772703,(-9 -27 -6 -3 -3 -2 2 -18)
1969-12-31 18:00:15.857772703,(12 10 3 -1 -8 -18 -1 8)
1969-12-31 18:00:15.866473083,(22 26 9 7 8 21 21 25)
1969-12-31 18:00:15.866473083,(-20 -6 -2 -2 3 13 6 -24)
1969-12-31 18:00:15.874085916,(26 4 -2 -1 -1 -10 -4 9)
1969-12-31 18:00:15.874085916,(-47 -13 -1 2 4 7 7 -19)
1969-12-31 18:00:15.875173464,(4 8 5 2 -1 -15 -1 21)
1969-12-31 18:00:15.875173464,(27 19 -4 -6 -8 -14 -31 -43)
1969-12-31 18:00:15.898011963,(21 8 10 8 4 -20 -13 -10)
1969-12-31 18:00:15.898011963,(-18 -22 -8 -8 -9 -21 -4 -4)
1969-12-31 18:00:15.899099511,(14 -7 -4 0 2 -14 -11 64)
1969-12-31 18:00:15.899099511,(1 5 2 -3 -5 -20 -24 -8)
1969-12-31 18:00:15.923025557,(-2 1 -4 -3 3 57 39 29)
1969-12-31 18:00:15.923025557,(-2 1 5 9 8 -11 5 0)
1969-12-31 18:00:15.924113105,(-6 -14 -6 -4 -2 -3 2 -18)
1969-12-31 18:00:15.924113105,(23 7 3 3 1 -4 15 43)
1969-12-31 18:00:15.939338771,(-1 33 13 8 -2 -27 -18 -13)
1969-12-31 18:00:15.939338771,(13 -28 -14 -8 2 -13 23 37)
1969-12-31 18:00:15.940426319,(-16 -4 -9 -4 0 1 -76 -63)
1969-12-31 18:00:15.940426319,(-17 -25 -7 -12 -18 3 20 -24)
1969-12-31 18:00:15.963264818,(20 31 6 6 3 -12 -9 17)
1969-12-31 18:00:15.963264818,(-30 -18 -14 -15 -18 -15 -12 -33)
1969-12-31 18:00:15.964352365,(-2 -9 1 8 13 4 10 -3)
1969-12-31 18:00:15.964352365,(11 -1 -4 0 8 15 9 10)
1969-12-31 18:00:15.988278412,(2 5 6 6 7 72 -4 7)
1969-12-31 18:00:15.988278412,(-6 11 -1 -7 -26 30 4 -12)
1969-12-31 18:00:15.995891245,(17 6 -2 0 11 -21 6 29)
1969-12-31 18:00:15.995891245,(15 7 8 8 15 3 -3 9)
1969-12-31 18:00:16.013292007,(26 7 9 17 71 26 -2 21)
1969-12-31 18:00:16.013292007,(-13 0 -2 -1 -40 -15 -4 -13)
1969-12-31 18:00:16.014379554,(-19 -14 -10 -43 -92 -55 -21 -20)
1969-12-31 18:00:16.014379554,(-18 5 1 2 -6 3 -17 -32)
1969-12-31 18:00:16.028517673,(-4 -9 -7 -9 -5 -7 33 12)
1969-12-31 18:00:16.028517673,(-3 0 0 12 75 53 -2 0)
1969-12-31 18:00:16.029605220,(26 11 9 20 38 35 41 55)
1969-12-31 18:00:16.029605220,(-10 -6 -8 -9 -19 -19 7 21)
1969-12-31 18:00:16.053531267,(-26 -19 -10 -5 -32 -47 -25 -25)
1969-12-31 18:00:16.053531267,(12 14 14 19 44 4 17 -2)
1969-12-31 18:00:16.053531267,(5 3 -6 -23 -100 -74 -32 -22)
1969-12-31 18:00:16.054618815,(19 4 -8 -29 -16 126 56 32)
1969-12-31 18:00:16.069844481,(-8 -2 2 -6 -44 -105 -8 -19)
1969-12-31 18:00:16.069844481,(-12 -16 -10 -11 -9 22 -13 11)
1969-12-31 18:00:16.070932028,(-4 3 8 43 93 41 -5 -9)
1969-12-31 18:00:16.070932028,(8 2 4 25 58 56 24 13)
1969-12-31 18:00:16.093770527,(-18 -22 -7 11 59 70 6 -19)
1969-12-31 18:00:16.093770527,(20 15 0 -19 -72 -76 -24 2)
1969-12-31 18:00:16.094858075,(2 10 -4 -32 -86 -90 -34 -23)
1969-12-31 18:00:16.094858075,(-23 -22 -2 -16 -28 -17 -41 -48)
1969-12-31 18:00:16.127484502,(-5 -4 -5 0 57 77 1 37)
1969-12-31 18:00:16.127484502,(-2 0 0 15 69 -10 -22 -28)
1969-12-31 18:00:16.128572050,(0 20 8 15 9 -5 -3 -23)
1969-12-31 18:00:16.128572050,(-9 -22 -14 -17 -58 -34 -57 -3)
1969-12-31 18:00:16.135097336,(1 -6 -2 -8 -28 -48 67 47)
1969-12-31 18:00:16.135097336,(17 14 11 3 1 66 1 12)
1969-12-31 18:00:16.135097336,(-6 -7 -2 9 56 -44 -14 -17)
1969-12-31 18:00:16.135097336,(-3 5 2 22 79 53 11 -8)
1969-12-31 18:00:16.159023382,(0 -2 -1 -7 -29 -6 5 -2)
1969-12-31 18:00:16.159023382,(1 5 -5 -26 -69 -64 -17 0)
1969-12-31 18:00:16.167723763,(5 -6 -3 -2 42 46 17 -5)
1969-12-31 18:00:16.167723763,(13 12 4 3 -28 -78 -23 17)
1969-12-31 18:00:16.184036977,(-4 -5 -1 4 19 8 2 -10)
1969-12-31 18:00:16.184036977,(3 4 -4 -16 -46 -48 2 3)
1969-12-31 18:00:16.185124524,(1 18 8 7 28 48 2 1)
1969-12-31 18:00:16.185124524,(-7 -23 -3 5 24 0 5 8)
1969-12-31 18:00:16.200350190,(18 18 7 4 -2 9 7 18)
1969-12-31 18:00:16.200350190,(-28 -26 -17 -22 -49 -61 -31 -29)
1969-12-31 18:00:16.201437738,(-12 -19 -2 14 72 118 47 12)
1969-12-31 18:00:16.201437738,(7 9 1 -3 -62 -105 -27 -1)
1969-12-31 18:00:16.224276237,(0 3 1 -4 0 21 -5 -19)
1969-12-31 18:00:16.224276237,(-1 -1 -1 -4 -24 -9 7 5)
1969-12-31 18:00:16.225363785,(-6 -5 -5 3 24 -3 -4 -5)
1969-12-31 18:00:16.225363785,(6 6 -5 10 49 32 5 6)
1969-12-31 18:00:16.249289831,(10 13 1 9 33 43 7 -5)
1969-12-31 18:00:16.249289831,(-20 -17 -1 -34 -80 -78 -43 -22)
1969-12-31 18:00:16.250377379,(9 25 8 -17 -17 9 7 8)
1969-12-31 18:00:16.250377379,(-6 -34 -18 -8 27 25 16 26)
1969-12-31 18:00:16.264515498,(1 -15 -23 4 28 -16 -10 -4)
1969-12-31 18:00:16.264515498,(-35 -13 19 18 35 78 37 -3)
1969-12-31 18:00:16.273215878,(14 -10 -17 -12 -32 -43 -38 11)
1969-12-31 18:00:16.273215878,(22 5 -18 -11 -2 19 14 2)
1969-12-31 18:00:16.289529092,(-43 17 60 26 7 -19 -14 -49)
1969-12-31 18:00:16.289529092,(33 38 16 27 21 10 0 5)
1969-12-31 18:00:16.298229473,(-29 -31 -17 -18 -40 -19 -6 -51)
1969-12-31 18:00:16.298229473,(1 26 23 11 5 -14 -3 4)
1969-12-31 18:00:16.314542686,(-4 -58 -57 -31 -11 17 -6 -25)
1969-12-31 18:00:16.314542686,(4 18 5 3 -1 -9 6 -12)
1969-12-31 18:00:16.315630234,(1 41 44 27 42 38 -2 4)
1969-12-31 18:00:16.315630234,(22 -8 -42 -19 -13 2 2 11)
1969-12-31 18:00:16.329768352,(-21 -70 -54 -34 -57 -85 -33 -14)
1969-12-31 18:00:16.329768352,(-1 28 38 16 22 29 22 18)
1969-12-31 18:00:16.339556281,(-51 -37 -7 2 1 -13 -15 -51)
1969-12-31 18:00:16.339556281,(-11 45 28 3 -16 -10 -8 -10)
1969-12-31 18:00:16.354781947,(0 -20 -3 -9 -14 2 16 20)
1969-12-31 18:00:16.354781947,(5 31 25 20 46 17 -18 -38)
1969-12-31 18:00:16.355869494,(5 -11 -10 -2 -25 -20 -5 -8)
1969-12-31 18:00:16.355869494,(6 -18 26 20 41 28 10 2)
1969-12-31 18:00:16.379795541,(-20 -56 -51 -23 -50 -28 -15 14)
1969-12-31 18:00:16.379795541,(42 78 37 22 36 18 45 59)
1969-12-31 18:00:16.380883089,(7 5 17 9 35 39 3 5)
1969-12-31 18:00:16.380883089,(-29 -11 7 -10 -92 -95 -15 -37)
1969-12-31 18:00:16.395021207,(17 -29 -41 -9 72 47 -7 11)
1969-12-31 18:00:16.395021207,(29 -36 -1 2 -65 -26 0 35)
1969-12-31 18:00:16.403721588,(19 62 21 -10 -24 -35 -32 -8)
1969-12-31 18:00:16.403721588,(-21 61 51 33 55 45 30 28)
1969-12-31 18:00:16.420034802,(62 17 -31 -23 -41 3 34 30)
1969-12-31 18:00:16.420034802,(-57 11 67 37 60 33 -32 -53)
1969-12-31 18:00:16.421122349,(50 -26 -37 -6 -13 -16 12 15)
1969-12-31 18:00:16.421122349,(-31 -61 -72 -25 79 68 -23 -42)
1969-12-31 18:00:16.445048396,(32 83 67 37 -75 -69 33 35)
1969-12-31 18:00:16.445048396,(-48 -67 -69 -49 -22 -38 -28 -55)
1969-12-31 18:00:16.452661229,(-7 50 39 20 -10 15 31 12)
1969-12-31 18:00:16.452661229,(24 -11 -11 -3 0 -14 -33 -38)
1969-12-31 18:00:16.470061990,(-14 -65 -23 -12 20 22 -1 -14)
1969-12-31 18:00:16.470061990,(28 -45 -82 -20 30 35 31 74)
1969-12-31 18:00:16.471149538,(-41 39 85 14 -53 -36 -30 -25)
1969-12-31 18:00:16.471149538,(49 33 12 0 3 -5 38 66)
1969-12-31 18:00:16.485287656,(-3 -54 -74 -27 4 26 -20 -86)
1969-12-31 18:00:16.485287656,(-54 -85 -42 -17 69 28 -21 -53)
1969-12-31 18:00:16.486375204,(33 74 62 53 -13 -28 -4 28)
1969-12-31 18:00:16.486375204,(-20 -84 -67 -50 -107 -20 -2 14)
1969-12-31 18:00:16.510301251,(31 127 120 26 -21 -32 -14 -3)
1969-12-31 18:00:16.510301251,(24 -97 -92 -23 17 29 26 35)
1969-12-31 18:00:16.511388798,(-32 -128 -128 -57 41 36 21 -3)
1969-12-31 18:00:16.511388798,(-12 127 108 58 7 -40 -72 -48)
1969-12-31 18:00:16.525526917,(-15 -90 -73 -30 -23 -10 -12 -42)
1969-12-31 18:00:16.525526917,(-9 20 0 8 49 43 5 -2)
1969-12-31 18:00:16.534227297,(26 3 18 0 -58 -50 7 28)
1969-12-31 18:00:16.534227297,(39 -48 -48 -24 -13 8 38 56)
1969-12-31 18:00:16.550540511,(-50 33 38 4 23 16 -14 -22)
1969-12-31 18:00:16.551628059,(27 83 51 22 -13 -13 5 46)
1969-12-31 18:00:16.551628059,(28 10 4 8 9 6 -4 -27)
1969-12-31 18:00:16.551628059,(-21 -78 -38 -10 13 12 29 7)
1969-12-31 18:00:16.575554105,(66 36 -29 14 53 32 13 81)
1969-12-31 18:00:16.575554105,(-24 47 71 7 -40 -7 -1 -3)
1969-12-31 18:00:16.575554105,(-20 -8 -20 -15 4 27 24 9)
1969-12-31 18:00:16.575554105,(20 23 8 3 -55 -68 -28 -26)
1969-12-31 18:00:16.590779772,(-36 -44 -7 -5 -1 -9 -8 2)
1969-12-31 18:00:16.590779772,(-6 -63 -57 -26 -17 -26 -3 -43)
1969-12-31 18:00:16.599480152,(-8 20 -5 -11 5 -15 -36 -34)
1969-12-31 18:00:16.599480152,(-3 48 26 9 33 39 13 -18)
1969-12-31 18:00:16.616880914,(-1 67 82 22 -64 -25 -1 12)
1969-12-31 18:00:16.616880914,(0 -39 -40 12 40 32 19 23)
1969-12-31 18:00:16.616880914,(13 -43 13 -3 -25 -5 7 33)
1969-12-31 18:00:16.616880914,(25 9 -20 -14 4 -16 -14 30)
1969-12-31 18:00:16.640806960,(10 99 70 29 30 5 -20 -6)
1969-12-31 18:00:16.640806960,(5 -10 -7 -3 -14 -5 4 -1)
1969-12-31 18:00:16.641894508,(23 -98 -91 -22 24 20 15 45)
1969-12-31 18:00:16.641894508,(7 62 88 51 25 19 12 1)
1969-12-31 18:00:16.665820555,(-32 -28 -7 -5 -9 -2 11 22)
1969-12-31 18:00:16.665820555,(14 -34 -32 -9 15 8 -7 -8)
1969-12-31 18:00:16.666908102,(14 28 -3 9 -2 16 4 -3)
1969-12-31 18:00:16.666908102,(15 38 52 32 32 11 18 31)
1969-12-31 18:00:16.683221316,(-6 -61 -75 -38 -35 -29 6 -26)
1969-12-31 18:00:16.683221316,(3 125 120 38 -32 -30 -28 -33)
1969-12-31 18:00:16.683221316,(-36 -37 -41 -4 21 6 -1 3)
1969-12-31 18:00:16.683221316,(0 -56 -38 -34 -47 12 1 17)
1969-12-31 18:00:16.706059815,(-4 -13 16 30 78 38 14 10)
1969-12-31 18:00:16.706059815,(32 -49 -53 -26 -36 -25 6 8)
1969-12-31 18:00:16.707147362,(-8 -58 -18 11 35 22 19 17)
1969-12-31 18:00:16.707147362,(-31 43 10 -13 -9 -25 -29 -37)
1969-12-31 18:00:16.731073409,(-15 -8 6 -2 -21 -40 -20 -15)
1969-12-31 18:00:16.731073409,(13 -36 -64 -28 25 19 -9 14)
1969-12-31 18:00:16.732160957,(-39 11 38 8 -54 -47 -8 -29)
1969-12-31 18:00:16.732160957,(19 21 43 9 -27 -21 -20 -44)
1969-12-31 18:00:16.746299076,(-19 -52 14 7 5 14 0 2)
1969-12-31 18:00:16.746299076,(10 -3 5 5 -4 -2 0 -2)
1969-12-31 18:00:16.754999456,(5 -55 -57 -16 33 23 10 32)
1969-12-31 18:00:16.754999456,(-30 -128 -128 -51 -10 -9 -22 -41)
1969-12-31 18:00:16.771312670,(2 127 86 42 41 37 25 25)
1969-12-31 18:00:16.771312670,(13 65 43 18 -49 -30 -26 -10)
1969-12-31 18:00:16.772400218,(-9 -52 -38 -37 -15 -7 10 16)
1969-12-31 18:00:16.772400218,(-8 7 -7 1 11 -1 -8 -8)
1969-12-31 18:00:16.796326264,(26 3 -15 -13 -33 -3 6 9)
1969-12-31 18:00:16.796326264,(-3 -90 -89 -22 49 32 20 20)
1969-12-31 18:00:16.797413812,(-25 127 127 55 12 -21 -29 -44)
1969-12-31 18:00:16.797413812,(-5 -62 -31 -4 -22 -34 -3 1)
1969-12-31 18:00:16.811551930,(10 -37 -40 -26 -36 -7 -14 3)
1969-12-31 18:00:16.811551930,(22 72 49 13 2 14 26 31)
1969-12-31 18:00:16.812639478,(-11 -11 -35 -18 -25 -9 2 -15)
1969-12-31 18:00:16.812639478,(3 -17 8 5 32 14 0 8)
1969-12-31 18:00:16.836565525,(-9 -78 -74 -21 12 4 4 48)
1969-12-31 18:00:16.836565525,(-48 48 50 4 -21 -24 -28 -57)
1969-12-31 18:00:16.837653072,(10 -14 -11 2 11 8 -13 -14)
1969-12-31 18:00:16.837653072,(0 -28 -36 9 49 52 33 18)
1969-12-31 18:00:16.861579119,(-15 64 48 9 -40 -30 -6 -27)
1969-12-31 18:00:16.861579119,(-5 -8 -33 -25 3 8 -4 26)
1969-12-31 18:00:16.862666667,(9 46 30 32 4 -4 9 -9)
1969-12-31 18:00:16.862666667,(-25 74 69 0 -41 -15 7 -10)
1969-12-31 18:00:16.876804785,(6 -90 -48 -6 38 -11 -26 -27)
1969-12-31 18:00:16.876804785,(5 -32 -40 -21 -28 -3 9 20)
1969-12-31 18:00:16.877892333,(29 64 52 19 22 42 10 6)
1969-12-31 18:00:16.877892333,(-53 -36 -2 -5 2 3 5 -29)
1969-12-31 18:00:16.901818380,(5 6 16 20 53 27 -16 -31)
1969-12-31 18:00:16.901818380,(24 -47 -18 -5 -31 -25 23 29)
1969-12-31 18:00:16.909431213,(-15 -52 -61 -39 -32 -53 -49 -1)
1969-12-31 18:00:16.909431213,(38 -2 -10 -1 -12 3 -3 9)
1969-12-31 18:00:16.926831974,(-26 73 73 20 3 3 15 3)
1969-12-31 18:00:16.926831974,(16 -4 -12 7 23 14 7 5)
1969-12-31 18:00:16.927919521,(3 -29 -25 -5 29 31 17 3)
1969-12-31 18:00:16.927919521,(-2 -5 -32 1 34 20 12 46)
1969-12-31 18:00:16.942057640,(-3 -18 0 -2 -44 -12 14 -13)
1969-12-31 18:00:16.942057640,(-7 -45 -13 -2 19 5 0 12)
1969-12-31 18:00:16.943145188,(11 -1 -14 -18 -27 -14 -1 37)
1969-12-31 18:00:16.943145188,(-9 72 55 20 -28 -21 4 -17)
1969-12-31 18:00:16.967071234,(37 -103 -94 -31 -8 -15 -20 53)
1969-12-31 18:00:16.967071234,(-41 105 41 -12 -39 -40 -40 -82)
1969-12-31 18:00:16.968158782,(-43 21 33 22 15 19 11 -7)
1969-12-31 18:00:16.968158782,(-12 -122 -107 -28 17 16 -8 -44)
1969-12-31 18:00:16.992084829,(7 38 33 23 18 31 21 26)
1969-12-31 18:00:16.992084829,(10 -59 -19 1 -9 -29 -8 -32)
1969-12-31 18:00:16.993172376,(4 -46 -57 -37 -39 -20 -11 18)
1969-12-31 18:00:16.993172376,(-23 21 38 5 -3 -14 -4 -9)
1969-12-31 18:00:17.007310495,(-11 82 61 19 -13 -13 -18 -37)
1969-12-31 18:00:17.007310495,(-20 16 2 8 1 11 12 3)
1969-12-31 18:00:17.008398042,(18 -54 -24 -9 24 19 8 27)
1969-12-31 18:00:17.008398042,(19 -9 -17 -17 -13 -5 4 12)
1969-12-31 18:00:17.032324089,(-9 0 -23 -3 65 23 28 0)
1969-12-31 18:00:17.032324089,(5 1 33 -9 -73 -43 -34 2)
1969-12-31 18:00:17.033411637,(10 65 57 24 4 -11 8 -4)
1969-12-31 18:00:17.033411637,(7 -101 -77 -31 5 5 16 10)
1969-12-31 18:00:17.056250136,(-27 -97 -74 -29 23 16 -11 -14)
1969-12-31 18:00:17.056250136,(27 127 127 81 39 23 19 4)
1969-12-31 18:00:17.063862969,(-19 -48 -25 -20 -5 6 0 -27)
1969-12-31 18:00:17.063862969,(-8 -13 24 16 -15 -17 -7 -3)
1969-12-31 18:00:17.083438825,(71 -65 -80 -25 -22 0 24 56)
1969-12-31 18:00:17.083438825,(-88 -13 6 3 19 20 -20 -66)
1969-12-31 18:00:17.084526373,(22 -13 -37 -21 -18 -16 -2 21)
1969-12-31 18:00:17.084526373,(19 64 35 35 25 2 -17 -8)
1969-12-31 18:00:17.097576944,(-55 20 40 -14 -69 -47 -35 -36)
1969-12-31 18:00:17.097576944,(20 -105 -91 -32 41 41 22 23)
1969-12-31 18:00:17.098664492,(13 -51 -91 -17 46 22 15 22)
1969-12-31 18:00:17.098664492,(-30 127 119 55 -30 -7 -7 -17)
1969-12-31 18:00:17.122590538,(26 23 3 -7 -45 -37 -6 0)
1969-12-31 18:00:17.122590538,(-2 -42 -8 2 -29 2 3 10)
1969-12-31 18:00:17.123678086,(-6 -42 -21 -1 49 14 15 6)
1969-12-31 18:00:17.123678086,(13 -120 -111 -33 6 -3 -23 21)
1969-12-31 18:00:17.147604133,(-8 -26 -38 -28 -21 0 -4 -27)
1969-12-31 18:00:17.147604133,(-3 99 84 73 21 -3 -11 13)
1969-12-31 18:00:17.148691680,(39 22 -1 18 -5 14 41 26)
1969-12-31 18:00:17.148691680,(-11 -19 -26 -11 15 11 -8 -6)
1969-12-31 18:00:17.162829799,(-30 -83 -41 -22 -46 -46 -35 -49)
1969-12-31 18:00:17.162829799,(56 -13 -72 -25 45 24 12 48)
1969-12-31 18:00:17.162829799,(4 42 63 20 -38 -42 -10 17)
1969-12-31 18:00:17.162829799,(-8 29 56 11 5 2 -35 -41)
1969-12-31 18:00:17.187843393,(-15 71 54 8 -23 0 24 3)
1969-12-31 18:00:17.187843393,(10 -19 -19 -12 2 -1 -9 14)
1969-12-31 18:00:17.188930941,(-1 3 19 11 29 23 8 -2)
1969-12-31 18:00:17.188930941,(24 -35 -67 -35 -21 2 30 44)
1969-12-31 18:00:17.203069059,(-9 -72 -57 -15 -5 -24 -9 -9)
1969-12-31 18:00:17.203069059,(-3 66 86 24 0 -17 -4 27)
1969-12-31 18:00:17.211769440,(8 34 20 18 17 11 11 -2)
1969-12-31 18:00:17.211769440,(-19 32 41 -14 -63 -28 -4 -11)
1969-12-31 18:00:17.228082654,(7 -29 -23 2 33 35 7 4)
1969-12-31 18:00:17.228082654,(28 -88 -128 -43 -1 6 25 23)
1969-12-31 18:00:17.229170201,(-17 78 89 42 31 22 -22 -14)
1969-12-31 18:00:17.229170201,(-2 -75 -79 -23 -7 -10 19 8)
1969-12-31 18:00:17.253096248,(-3 127 127 41 -22 -14 -26 -4)
1969-12-31 18:00:17.253096248,(-3 -41 -25 7 26 -3 12 1)
1969-12-31 18:00:17.254183796,(-21 -79 -48 -29 -48 -42 -14 -17)
1969-12-31 18:00:17.254183796,(11 -6 -25 -15 25 14 -19 -27)
1969-12-31 18:00:17.268321914,(31 -72 -65 -13 30 25 12 -5)
1969-12-31 18:00:17.268321914,(-51 57 74 34 -6 -15 -3 -20)
1969-12-31 18:00:17.269409462,(-20 4 -6 -1 -1 17 7 -43)
1969-12-31 18:00:17.269409462,(23 10 2 12 29 5 -12 10)
1969-12-31 18:00:17.292247961,(15 -93 -90 -30 -22 2 9 34)
1969-12-31 18:00:17.292247961,(13 68 51 3 -8 -7 8 10)
1969-12-31 18:00:17.302035889,(-18 30 36 8 -11 0 -3 -16)
1969-12-31 18:00:17.302035889,(-8 -46 -4 20 64 22 11 28)
1969-12-31 18:00:17.318349103,(6 117 101 16 -49 -32 -18 -25)
1969-12-31 18:00:17.318349103,(-17 -84 -50 -26 -29 -18 -11 -23)
1969-12-31 18:00:17.319436650,(-12 -23 -15 -11 -42 -36 -22 -20)
1969-12-31 18:00:17.319436650,(-7 -27 -9 -1 35 34 25 16)
1969-12-31 18:00:17.333574769,(-19 -100 -66 -14 47 17 -6 10)
1969-12-31 18:00:17.333574769,(14 65 25 17 12 9 28 18)
1969-12-31 18:00:17.342275150,(29 65 52 41 47 23 -42 -11)
1969-12-31 18:00:17.342275150,(-26 -63 -48 -38 -101 -86 -43 -36)
1969-12-31 18:00:17.358588363,(-45 17 8 9 12 10 12 -18)
1969-12-31 18:00:17.358588363,(32 -44 -45 -23 -3 9 5 19)
1969-12-31 18:00:17.374901577,(-8 -79 -34 -17 23 13 -10 -2)
1969-12-31 18:00:17.374901577,(15 102 42 25 5 3 31 16)
1969-12-31 18:00:17.384689505,(0 127 127 58 9 -6 -18 -45)
1969-12-31 18:00:17.384689505,(-12 -73 -44 -16 27 33 -5 -18)
1969-12-31 18:00:17.386864600,(-28 -56 -21 -25 -46 -22 -14 -23)
1969-12-31 18:00:17.386864600,(7 39 22 9 10 13 10 31)
1969-12-31 18:00:17.398827624,(-7 -71 -54 -6 35 10 16 28)
1969-12-31 18:00:17.398827624,(19 37 18 5 -40 -18 -7 2)
1969-12-31 18:00:17.407528004,(-10 -68 -74 -43 -19 -11 2 -15)
1969-12-31 18:00:17.407528004,(11 9 -10 3 10 9 10 19)
1969-12-31 18:00:17.423841218,(-30 90 70 5 -5 7 -29 -62)
1969-12-31 18:00:17.423841218,(-15 15 34 20 21 -2 7 -9)
1969-12-31 18:00:17.424928766,(21 -41 -69 -24 -28 -19 11 25)
1969-12-31 18:00:17.424928766,(-22 -26 -1 -2 12 2 -22 -47)
1969-12-31 18:00:17.448854811,(29 51 21 35 44 32 36 41)
1969-12-31 18:00:17.448854811,(12 -49 -18 -18 -36 -12 -35 1)
1969-12-31 18:00:17.449942359,(-29 78 78 26 5 -1 2 -7)
1969-12-31 18:00:17.449942359,(26 -26 -13 8 12 9 17 29)
1969-12-31 18:00:17.464080478,(-11 -46 -39 -27 -2 5 -4 4)
1969-12-31 18:00:17.464080478,(0 -119 -128 -60 -37 -31 -7 -6)
1969-12-31 18:00:17.472780859,(21 83 84 38 -10 -28 -24 -26)
1969-12-31 18:00:17.472780859,(-23 42 78 42 78 57 -1 -16)
1969-12-31 18:00:17.490181620,(8 -81 -49 -17 -63 -37 -7 7)
1969-12-31 18:00:17.490181620,(-8 -102 -93 -33 -47 -29 8 -6)
1969-12-31 18:00:17.490181620,(43 46 54 34 39 50 34 100)
1969-12-31 18:00:17.490181620,(-27 10 -6 -11 -15 -10 32 -27)
1969-12-31 18:00:17.513020120,(-6 20 10 -6 16 -7 -25 -16)
1969-12-31 18:00:17.513020120,(-21 11 7 7 31 30 4 -10)
1969-12-31 18:00:17.521720500,(3 -22 -25 -12 -22 -27 3 2)
1969-12-31 18:00:17.521720500,(23 12 0 7 8 15 4 18)
1969-12-31 18:00:17.529333333,(17 -41 -11 5 21 17 17 29)
1969-12-31 18:00:17.529333333,(-4 51 8 8 14 2 -17 -23)
1969-12-31 18:00:17.539121262,(-18 58 49 19 -19 13 50 57)
1969-12-31 18:00:17.539121262,(22 -75 -60 -27 -22 -32 -21 1)
1969-12-31 18:00:17.553259380,(-12 -28 -14 -4 9 -7 -31 -47)
1969-12-31 18:00:17.553259380,(0 -65 -32 -18 -4 17 10 10)
1969-12-31 18:00:17.563047308,(25 -23 -75 -55 -47 -58 -46 -15)
1969-12-31 18:00:17.563047308,(-12 115 106 47 -26 -10 16 16)
1969-12-31 18:00:17.579360522,(-14 -75 -63 -9 18 -10 -6 5)
1969-12-31 18:00:17.579360522,(31 91 50 33 45 27 18 15)
1969-12-31 18:00:17.581535617,(-33 -64 -19 7 28 32 8 -26)
1969-12-31 18:00:17.581535617,(64 91 78 16 -47 -17 -27 -7)
1969-12-31 18:00:17.594586188,(6 83 33 20 1 4 -7 -16)
1969-12-31 18:00:17.594586188,(23 -63 -3 -9 -4 -12 -24 -3)
1969-12-31 18:00:17.604374116,(-26 -51 -65 -19 18 13 -1 -22)
1969-12-31 18:00:17.604374116,(16 -52 -56 -18 -14 -7 10 40)
1969-12-31 18:00:17.620687330,(-3 57 50 15 28 16 30 26)
1969-12-31 18:00:17.620687330,(-23 -24 -8 -12 -9 -2 -24 -20)
1969-12-31 18:00:17.621774878,(26 -53 -64 -36 -27 -24 -24 -16)
1969-12-31 18:00:17.621774878,(-65 -13 -14 1 35 17 -3 -22)
1969-12-31 18:00:17.644613377,(37 30 32 28 12 32 18 35)
1969-12-31 18:00:17.644613377,(-20 -49 -19 -2 2 1 16 3)
1969-12-31 18:00:17.646788472,(0 2 14 -8 -40 -15 -9 -33)
1969-12-31 18:00:17.646788472,(-34 44 35 9 -9 -18 -4 -4)
1969-12-31 18:00:17.668539424,(39 -124 -128 -53 -23 -2 28 61)
1969-12-31 18:00:17.668539424,(-3 127 127 54 39 18 -13 -35)
1969-12-31 18:00:17.677239804,(17 -4 -13 17 47 41 2 12)
1969-12-31 18:00:17.677239804,(7 -55 -60 -50 -67 -48 -25 -6)
1969-12-31 18:00:17.684852637,(-3 -5 41 16 6 18 53 35)
1969-12-31 18:00:17.685940185,(-38 -67 -51 -8 4 -12 -14 -11)
1969-12-31 18:00:17.687027732,(24 14 -13 -13 -19 -26 -20 -5)
1969-12-31 18:00:17.687027732,(-1 -6 0 5 18 21 30 3)
1969-12-31 18:00:17.709866232,(13 11 2 -2 -3 -25 -51 -34)
1969-12-31 18:00:17.709866232,(-18 -21 -34 -26 0 28 43 12)
1969-12-31 18:00:17.710953778,(-16 -66 -63 -20 0 -4 8 -13)
1969-12-31 18:00:17.710953778,(29 87 74 35 -4 -10 -22 8)
1969-12-31 18:00:17.733792278,(-4 47 45 15 22 18 10 25)
1969-12-31 18:00:17.734879826,(4 20 36 21 5 1 3 -3)
1969-12-31 18:00:17.735967374,(11 -49 -30 -21 -22 -7 11 23)
1969-12-31 18:00:17.735967374,(-50 -128 -122 -52 -12 -19 -39 -31)
1969-12-31 18:00:17.750105492,(27 37 35 14 8 0 2 0)
1969-12-31 18:00:17.750105492,(2 43 24 -1 16 7 -2 3)
1969-12-31 18:00:17.757718325,(1 89 89 33 -25 -3 11 5)
1969-12-31 18:00:17.757718325,(-3 -71 -49 -11 15 -16 -22 -5)
1969-12-31 18:00:17.775119086,(-42 -13 -15 -32 -45 4 -3 -49)
1969-12-31 18:00:17.775119086,(9 -9 -2 41 28 6 13 30)
1969-12-31 18:00:17.776206634,(4 -9 -9 4 21 4 4 12)
1969-12-31 18:00:17.776206634,(-40 -70 -41 -22 4 3 9 -21)
1969-12-31 18:00:17.799045133,(2 3 -36 -14 -29 -22 -27 -13)
1969-12-31 18:00:17.799045133,(58 23 0 -8 -10 -5 9 24)
1969-12-31 18:00:17.815358347,(-54 -45 21 15 21 20 5 -16)
1969-12-31 18:00:17.815358347,(39 24 5 -2 -13 2 -2 2)
1969-12-31 18:00:17.824058728,(-1 -6 6 -3 2 -6 15 47)
1969-12-31 18:00:17.824058728,(8 -14 -40 -19 -9 -2 -25 -55)
1969-12-31 18:00:17.825146275,(18 59 53 22 6 -12 -10 -1)
1969-12-31 18:00:17.825146275,(-22 -56 -63 -24 10 14 9 -2)
1969-12-31 18:00:17.840371941,(-33 8 -6 0 2 4 18 -33)
1969-12-31 18:00:17.840371941,(-8 35 65 26 -21 -38 -35 8)
1969-12-31 18:00:17.841459489,(-32 -35 -35 -27 -29 -8 -22 -42)
1969-12-31 18:00:17.841459489,(25 11 3 9 38 40 19 6)
1969-12-31 18:00:17.864297988,(1 -26 -8 -5 -51 -55 -24 4)
1969-12-31 18:00:17.864297988,(-29 -5 -1 -11 8 5 -4 -26)
1969-12-31 18:00:17.866473083,(-16 -23 -26 -38 -25 -11 -21 -27)
1969-12-31 18:00:17.866473083,(24 32 30 28 63 44 23 14)
1969-12-31 18:00:17.880611202,(-2 -1 3 50 44 19 15 15)
1969-12-31 18:00:17.880611202,(10 -39 -30 -8 -31 -13 7 18)
1969-12-31 18:00:17.888224035,(-28 -6 8 17 27 2 -4 -2)
1969-12-31 18:00:17.888224035,(-28 18 17 -18 -27 -3 9 -8)
1969-12-31 18:00:17.905624796,(14 3 0 -10 -11 -12 -18 -8)
1969-12-31 18:00:17.905624796,(-6 -1 -2 -6 3 0 10 11)
1969-12-31 18:00:17.907799891,(16 8 -6 0 4 18 19 41)
1969-12-31 18:00:17.907799891,(8 -22 -13 -4 -22 -16 -9 -28)
1969-12-31 18:00:17.930638390,(-18 -3 -21 -24 -6 -10 -16 -17)
1969-12-31 18:00:17.930638390,(0 45 66 32 9 13 7 4)
1969-12-31 18:00:17.931725938,(22 13 0 7 5 -15 -10 1)
1969-12-31 18:00:17.931725938,(-27 -7 7 7 -3 12 31 22)
1969-12-31 18:00:17.944776509,(33 -6 -21 -4 15 10 -5 0)
1969-12-31 18:00:17.944776509,(20 -16 -8 -7 -1 7 10 16)
1969-12-31 18:00:17.961089723,(-37 10 8 6 -3 -11 -9 -28)
1969-12-31 18:00:17.961089723,(-4 -6 13 4 0 -9 -5 -2)
1969-12-31 18:00:17.969790103,(3 -16 -11 -3 7 10 -1 -3)
1969-12-31 18:00:17.969790103,(-36 -13 -10 -9 -14 -14 -19 -22)
1969-12-31 18:00:17.987190865,(68 17 -9 -54 -31 -5 4 17)
1969-12-31 18:00:17.987190865,(-37 0 10 56 18 5 -5 -14)
1969-12-31 18:00:17.994803698,(4 5 12 19 -3 -4 17 17)
1969-12-31 18:00:17.995891245,(-37 -28 -31 -3 30 0 -34 -42)
1969-12-31 18:00:17.996978793,(12 -14 -7 8 -2 -5 4 10)
1969-12-31 18:00:17.996978793,(58 51 24 -23 -18 -3 -6 11)
1969-12-31 18:00:18.010029364,(11 3 6 -1 -1 -10 -18 15)
1969-12-31 18:00:18.010029364,(-54 -54 -33 -15 -20 4 27 -28)
1969-12-31 18:00:18.019817292,(-46 -16 -5 -2 7 5 -15 -23)
1969-12-31 18:00:18.019817292,(27 26 13 0 0 -5 1 15)
1969-12-31 18:00:18.036130506,(-2 -11 -4 -1 -6 -2 -6 -15)
1969-12-31 18:00:18.036130506,(18 10 -1 -6 -2 0 2 16)
1969-12-31 18:00:18.038305601,(7 20 17 20 18 9 12 14)
1969-12-31 18:00:18.038305601,(41 27 6 0 -12 -7 -3 7)
1969-12-31 18:00:18.061144100,(-55 -39 -21 -16 4 -2 -12 -48)
1969-12-31 18:00:18.061144100,(-22 -25 -9 -12 -13 -7 -6 3)
1969-12-31 18:00:18.062231648,(-2 2 2 12 9 0 2 0)
1969-12-31 18:00:18.062231648,(12 5 2 -2 -2 -2 3 19)
1969-12-31 18:00:18.075282219,(45 35 19 7 7 13 17 24)
1969-12-31 18:00:18.075282219,(-23 -23 -17 -9 -9 -13 -27 -39)
1969-12-31 18:00:18.085070147,(11 -7 -6 8 1 -3 -10 -21)
1969-12-31 18:00:18.085070147,(-16 5 3 -5 -2 0 0 -4)
1969-12-31 18:00:18.100295813,(69 19 6 0 5 8 11 41)
1969-12-31 18:00:18.100295813,(-67 -32 -16 -7 -11 -9 -4 -15)
1969-12-31 18:00:18.116609027,(-19 -27 -13 -6 1 -1 -1 -4)
1969-12-31 18:00:18.116609027,(-9 3 7 3 -2 -3 -6 -14)
1969-12-31 18:00:18.126396955,(-15 -14 1 3 5 7 9 12)
1969-12-31 18:00:18.126396955,(127 85 22 14 5 10 22 70)
1969-12-31 18:00:18.127484502,(-79 -53 -11 -4 -2 -6 -16 -44)
1969-12-31 18:00:18.127484502,(-44 -19 -18 -14 -8 -8 -10 -32)
1969-12-31 18:00:18.140535073,(-19 -23 0 0 -4 0 -1 -2)
1969-12-31 18:00:18.140535073,(23 6 3 1 3 5 5 10)
1969-12-31 18:00:18.150323002,(71 45 5 1 1 2 7 40)
1969-12-31 18:00:18.150323002,(-25 -5 11 11 9 8 9 13)
1969-12-31 18:00:18.174249048,(-29 -16 -15 -14 -8 -6 -7 -29)
1969-12-31 18:00:18.175336596,(21 8 0 -2 -3 -2 -3 2)
1969-12-31 18:00:18.176424144,(4 -1 7 13 8 11 15 23)
1969-12-31 18:00:18.176424144,(-26 -16 -20 -13 -9 -8 -10 -15)
1969-12-31 18:00:18.190562262,(-3 -6 -4 -3 -5 -2 -5 -7)
1969-12-31 18:00:18.190562262,(-8 8 7 2 1 -1 3 1)
1969-12-31 18:00:18.192737357,(38 14 5 7 7 7 12 20)
1969-12-31 18:00:18.192737357,(3 -1 -10 -10 -6 -6 -5 -8)
1969-12-31 18:00:18.205787928,(-63 -11 5 0 -4 -3 -5 -27)
1969-12-31 18:00:18.205787928,(15 2 -7 -7 -7 -5 -6 0)
1969-12-31 18:00:18.215575856,(-4 -8 -6 0 -1 -4 -7 -10)
1969-12-31 18:00:18.215575856,(-2 -12 -2 -3 -1 1 1 1)
1969-12-31 18:00:18.231889070,(6 9 3 1 1 -2 -4 0)
1969-12-31 18:00:18.231889070,(-4 2 -2 -2 1 2 1 -2)
1969-12-31 18:00:18.234064165,(-3 5 12 3 -2 -4 -3 -5)
1969-12-31 18:00:18.234064165,(9 8 4 2 1 0 1 5)
1969-12-31 18:00:18.255815117,(1 5 2 6 4 2 0 -1)
1969-12-31 18:00:18.255815117,(6 -1 4 4 2 2 5 15)
1969-12-31 18:00:18.272128331,(4 2 -8 -5 0 0 -4 -17)
1969-12-31 18:00:18.272128331,(-6 -10 -4 -2 -1 -2 -3 11)
1969-12-31 18:00:18.280828711,(-10 -15 -6 -11 -7 -6 -11 -4)
1969-12-31 18:00:18.280828711,(11 -2 -9 -7 -4 -6 -4 -2)
1969-12-31 18:00:18.281916259,(-14 0 -6 -6 0 2 3 -2)
1969-12-31 18:00:18.281916259,(15 13 22 10 2 -1 -5 -1)
1969-12-31 18:00:18.297141925,(1 -15 -16 -1 0 -1 -3 5)
1969-12-31 18:00:18.297141925,(-15 9 13 0 -2 -1 2 0)
1969-12-31 18:00:18.298229473,(-1 0 0 2 0 1 6 23)
1969-12-31 18:00:18.298229473,(17 11 -5 -7 -3 -3 0 -8)
1969-12-31 18:00:18.322155519,(-4 -17 -13 -8 -3 4 2 4)
1969-12-31 18:00:18.322155519,(-1 -8 0 7 3 -1 -9 0)
1969-12-31 18:00:18.323243066,(0 13 10 2 3 2 4 5)
1969-12-31 18:00:18.323243066,(3 -7 -7 -5 -3 3 14 13)
1969-12-31 18:00:18.336293638,(-7 4 -4 -3 -2 -7 -15 -20)
1969-12-31 18:00:18.336293638,(0 3 -3 -4 -2 -1 0 -1)
1969-12-31 18:00:18.354781947,(4 1 7 2 -2 -7 -10 -14)
1969-12-31 18:00:18.354781947,(-13 -23 -12 -4 0 3 1 -3)
1969-12-31 18:00:18.362394780,(13 32 27 9 6 5 6 -7)
1969-12-31 18:00:18.362394780,(-11 -14 -11 -4 -2 0 8 5)
1969-12-31 18:00:18.364569875,(2 -3 -16 -6 -2 -3 -10 0)
1969-12-31 18:00:18.364569875,(-6 0 11 11 1 -4 -9 -15)
1969-12-31 18:00:18.386320827,(4 1 -5 -1 1 3 11 9)
1969-12-31 18:00:18.386320827,(-8 -8 -6 -7 -6 -5 -13 -11)
1969-12-31 18:00:18.388495922,(-9 -45 -32 -15 -4 -1 3 1)
1969-12-31 18:00:18.388495922,(10 43 28 9 4 -4 0 4)
1969-12-31 18:00:18.401546493,(-4 4 0 3 3 3 0 1)
1969-12-31 18:00:18.401546493,(-5 2 7 5 -1 -1 1 -6)
1969-12-31 18:00:18.417859706,(0 2 4 -1 -3 -3 0 -8)
1969-12-31 18:00:18.417859706,(3 -15 -16 -12 -5 -2 -1 1)
1969-12-31 18:00:18.427647635,(1 -4 -4 -3 -2 -3 4 5)
1969-12-31 18:00:18.427647635,(1 3 3 3 6 4 1 4)
1969-12-31 18:00:18.429822730,(-1 14 0 0 -2 -9 -24 -16)
1969-12-31 18:00:18.429822730,(6 6 9 4 2 6 10 9)
1969-12-31 18:00:18.452661229,(-10 -8 -10 -9 -6 -4 0 -4)
1969-12-31 18:00:18.452661229,(-5 -7 0 -4 -8 -2 1 -8)
1969-12-31 18:00:18.453748776,(14 7 -13 -10 0 9 10 12)
1969-12-31 18:00:18.453748776,(-23 6 21 18 5 -4 -7 -10)
1969-12-31 18:00:18.466799347,(7 -41 -32 -11 -5 -8 -10 -5)
1969-12-31 18:00:18.466799347,(6 73 60 31 14 6 -4 -3)
1969-12-31 18:00:18.476587276,(-9 -13 -1 -3 -3 -3 1 -6)
1969-12-31 18:00:18.476587276,(-4 -68 -44 -23 -5 4 2 -3)
1969-12-31 18:00:18.491812942,(7 58 23 1 -4 -4 -5 1)
1969-12-31 18:00:18.491812942,(-16 -40 -31 -6 0 1 0 -4)
1969-12-31 18:00:18.499425775,(1 18 22 12 3 2 5 4)
1969-12-31 18:00:18.499425775,(0 -2 4 0 0 4 -8 -6)
1969-12-31 18:00:18.517914084,(12 -7 -7 -10 -6 -2 5 5)
1969-12-31 18:00:18.517914084,(-16 -20 -20 -7 -5 -6 -10 -13)
1969-12-31 18:00:18.519001631,(-4 5 13 9 4 8 12 -1)
1969-12-31 18:00:18.519001631,(0 1 1 -2 -3 -5 -15 -9)
1969-12-31 18:00:18.532052202,(5 -3 1 5 -1 -2 -6 -4)
1969-12-31 18:00:18.532052202,(5 -4 -11 -16 -7 4 10 12)
1969-12-31 18:00:18.541840131,(-6 22 33 13 3 -2 -5 -8)
1969-12-31 18:00:18.541840131,(6 0 -9 -3 -1 0 -2 5)
1969-12-31 18:00:18.557065797,(-6 -25 0 5 0 1 -4 -3)
1969-12-31 18:00:18.557065797,(3 39 7 -3 -1 0 -3 0)
1969-12-31 18:00:18.573379010,(3 20 32 15 3 4 3 -3)
1969-12-31 18:00:18.573379010,(2 0 -9 -4 -4 -6 3 8)
1969-12-31 18:00:18.583166939,(-10 18 9 -6 -6 -5 -6 -10)
1969-12-31 18:00:18.583166939,(5 -70 -36 4 5 2 6 12)
1969-12-31 18:00:18.584254486,(0 17 -16 1 3 3 0 0)
1969-12-31 18:00:18.584254486,(4 14 18 10 3 -4 -2 -2)
1969-12-31 18:00:18.597305057,(-9 -41 -25 4 4 3 6 4)
1969-12-31 18:00:18.597305057,(7 38 37 4 -2 -7 -5 -1)
1969-12-31 18:00:18.607092985,(-5 -11 -26 -20 -9 -11 -7 -4)
1969-12-31 18:00:18.607092985,(4 14 -28 -23 -6 -9 0 -1)
1969-12-31 18:00:18.622318651,(-1 -11 -2 5 4 -2 0 6)
1969-12-31 18:00:18.622318651,(-5 -16 -13 -4 0 -3 4 3)
1969-12-31 18:00:18.629931485,(-6 -10 5 1 1 -3 0 0)
1969-12-31 18:00:18.629931485,(7 3 -12 -2 2 0 5 8)
1969-12-31 18:00:18.648419793,(9 27 14 1 2 -3 1 1)
1969-12-31 18:00:18.648419793,(5 17 7 4 4 -1 3 6)
1969-12-31 18:00:18.649507341,(-10 -36 -17 -9 -2 -5 -4 0)
1969-12-31 18:00:18.649507341,(-9 -5 3 -9 -2 -2 1 -3)
1969-12-31 18:00:18.662557912,(2 27 22 17 9 1 -3 -8)
1969-12-31 18:00:18.662557912,(-6 -11 4 5 2 2 4 -2)
1969-12-31 18:00:18.672345840,(0 -3 -6 -9 -3 0 -5 -3)
1969-12-31 18:00:18.672345840,(-6 -5 3 -1 -3 2 -3 -4)
1969-12-31 18:00:18.687571506,(-8 0 2 -4 -4 2 -5 -11)
1969-12-31 18:00:18.687571506,(-4 -3 -5 -13 -5 1 -5 -8)
1969-12-31 18:00:18.695184339,(-1 -9 -4 3 -4 -1 -5 -5)
1969-12-31 18:00:18.695184339,(4 8 13 10 2 3 -1 0)
1969-12-31 18:00:18.712585101,(-6 -15 -10 -11 -7 -2 -5 -6)
1969-12-31 18:00:18.712585101,(1 -4 -10 -3 -4 -2 -5 -6)
1969-12-31 18:00:18.727810766,(4 5 11 11 2 4 1 -2)
1969-12-31 18:00:18.727810766,(1 4 1 2 -2 3 -2 -3)
1969-12-31 18:00:18.737598695,(-6 -1 3 1 0 5 -1 -3)
1969-12-31 18:00:18.737598695,(-4 1 -4 -10 -7 6 -6 -8)
1969-12-31 18:00:18.738686243,(-1 -5 0 3 -2 2 -3 -3)
1969-12-31 18:00:18.738686243,(2 6 3 9 0 -2 0 3)
1969-12-31 18:00:18.753911909,(0 -10 -4 -2 -2 -4 -2 -1)
1969-12-31 18:00:18.753911909,(2 0 -6 2 2 -6 3 8)
1969-12-31 18:00:18.769137575,(-2 -6 -15 -9 -4 -10 -3 3)
1969-12-31 18:00:18.769137575,(-1 -15 -9 -3 1 -5 2 7)
1969-12-31 18:00:18.777837955,(2 7 -13 -9 -1 3 3 12)
1969-12-31 18:00:18.777837955,(1 -14 -9 -1 3 12 3 8)
1969-12-31 18:00:18.780013051,(5 8 -8 -5 3 8 3 10)
1969-12-31 18:00:18.780013051,(2 0 -6 -2 4 -9 6 11)
1969-12-31 18:00:18.801764002,(3 3 0 5 7 -16 8 10)
1969-12-31 18:00:18.801764002,(-2 4 -1 -7 2 -29 5 5)
1969-12-31 18:00:18.818077216,(-10 -9 -8 -10 1 -18 2 -7)
1969-12-31 18:00:18.818077216,(-4 -3 -3 -11 -3 -10 -1 -5)
1969-12-31 18:00:18.827865144,(-5 2 2 -10 -4 -9 -4 -10)
1969-12-31 18:00:18.827865144,(-7 -1 4 -1 -3 -1 -3 -11)
1969-12-31 18:00:18.828952692,(3 9 15 7 -1 13 -4 -5)
1969-12-31 18:00:18.828952692,(-3 1 11 7 -2 14 -8 -11)
1969-12-31 18:00:18.844178358,(1 4 7 1 -4 15 -5 -5)
1969-12-31 18:00:18.844178358,(-1 -1 -2 -2 -7 6 -8 -7)
1969-12-31 18:00:18.846353453,(-2 -9 -5 -4 -6 -3 -5 -5)
1969-12-31 18:00:18.846353453,(1 2 3 6 -3 5 0 -3)
1969-12-31 18:00:18.867016857,(-3 -5 -3 -3 -2 2 2 0)
1969-12-31 18:00:18.867016857,(-1 2 5 4 -1 -2 -5 -4)
1969-12-31 18:00:18.884417618,(-3 -6 -12 -20 -4 -2 2 0)
1969-12-31 18:00:18.884417618,(-5 -5 -5 -1 -3 2 0 1)
1969-12-31 18:00:18.885505166,(-4 -6 -10 -9 -7 -2 -4 -5)
1969-12-31 18:00:18.885505166,(7 7 19 18 10 8 4 2)
1969-12-31 18:00:18.890942904,(6 10 18 31 9 7 3 4)
1969-12-31 18:00:18.890942904,(-1 1 -2 -7 -5 -3 -1 -1)
1969-12-31 18:00:18.908343665,(-8 -17 -30 -23 -11 -6 -3 -7)
1969-12-31 18:00:18.908343665,(-3 5 1 -22 -9 -3 -3 -3)
1969-12-31 18:00:18.910518760,(3 3 20 34 9 2 2 5)
1969-12-31 18:00:18.910518760,(3 6 10 10 8 2 1 0)
1969-12-31 18:00:18.932269712,(0 2 6 11 4 1 -2 0)
1969-12-31 18:00:18.932269712,(-5 -14 -20 -19 -6 2 5 7)
1969-12-31 18:00:18.942057640,(-3 -5 -13 -21 -6 -6 -3 -3)
1969-12-31 18:00:18.942057640,(-3 -3 -5 -4 -3 -3 -5 -6)
1969-12-31 18:00:18.948582926,(0 0 4 0 2 1 0 3)
1969-12-31 18:00:18.948582926,(-2 -6 -2 1 -1 -1 6 8)
1969-12-31 18:00:18.956195759,(1 4 3 0 0 0 -2 -2)
1969-12-31 18:00:18.956195759,(-1 -4 -5 -2 1 0 -1 -1)
1969-12-31 18:00:18.973596520,(3 5 9 6 4 0 -1 -1)
1969-12-31 18:00:18.973596520,(1 4 2 8 2 -2 -2 0)
1969-12-31 18:00:18.975771615,(-3 -4 -8 -6 -5 -2 6 3)
1969-12-31 18:00:18.975771615,(0 -1 -1 -3 -1 -2 -3 -4)
1969-12-31 18:00:18.998610114,(0 -1 3 6 3 0 2 3)
1969-12-31 18:00:18.998610114,(3 8 8 6 0 -2 -2 -1)
1969-12-31 18:00:18.999697662,(-7 -13 -9 -2 0 -2 -2 -2)
1969-12-31 18:00:18.999697662,(-4 -5 -8 -8 -3 -2 3 2)
1969-12-31 18:00:19.013835780,(2 5 10 9 1 0 1 1)
1969-12-31 18:00:19.013835780,(1 1 1 6 3 1 -3 -4)
1969-12-31 18:00:19.030148994,(-2 -2 -8 -14 -4 -2 -4 -1)
1969-12-31 18:00:19.030148994,(-1 -1 1 1 1 -1 -2 -1)
1969-12-31 18:00:19.041024470,(0 -2 2 5 0 -2 -3 -3)
1969-12-31 18:00:19.041024470,(1 -1 -1 -2 -1 -1 -3 -2)
1969-12-31 18:00:19.043199565,(0 1 -2 -4 -2 -3 -1 -2)
1969-12-31 18:00:19.043199565,(-1 -2 -3 0 -2 -3 -1 -1)
1969-12-31 18:00:19.063862969,(-1 -4 -4 -4 -1 -1 0 0)
1969-12-31 18:00:19.063862969,(-1 -2 -2 1 -1 -2 -1 -1)
1969-12-31 18:00:19.066038064,(3 2 2 1 0 0 2 -1)
1969-12-31 18:00:19.066038064,(-1 2 3 0 2 -1 -3 -1)
1969-12-31 18:00:19.079088635,(1 0 0 -3 -1 -1 0 0)
1969-12-31 18:00:19.079088635,(-1 -2 0 1 0 0 0 1)
1969-12-31 18:00:19.113890158,(-1 1 0 -2 -1 -1 -4 -2)
1969-12-31 18:00:19.113890158,(0 -1 0 1 -2 -3 -1 -2)
1969-12-31 18:00:19.114977705,(-1 3 1 2 1 0 0 -1)
1969-12-31 18:00:19.114977705,(-4 -4 -1 4 2 0 -1 -2)
1969-12-31 18:00:19.116065253,(-1 -2 -4 -4 -3 -3 -2 -3)
1969-12-31 18:00:19.116065253,(-2 -3 -4 -2 -1 -2 -2 -2)
1969-12-31 18:00:19.129115824,(-3 3 0 1 -2 -2 -2 -2)
1969-12-31 18:00:19.129115824,(4 -1 -1 2 -1 1 1 2)
1969-12-31 18:00:19.137816204,(-8 -4 -5 -4 -3 0 -2 -7)
1969-12-31 18:00:19.137816204,(-1 -2 0 0 -1 0 0 -1)
1969-12-31 18:00:19.143253942,(-4 -1 -3 -1 0 -3 -1 -4)
1969-12-31 18:00:19.143253942,(-2 -1 -2 -3 -1 -1 -1 -7)
1969-12-31 18:00:19.160654704,(2 0 1 2 2 2 -1 1)
1969-12-31 18:00:19.160654704,(1 11 6 4 1 2 1 1)
1969-12-31 18:00:19.169355084,(-1 -3 -1 -3 -4 -1 0 0)
1969-12-31 18:00:19.169355084,(0 0 -2 -3 -1 -1 0 1)
1969-12-31 18:00:19.184580750,(3 1 -2 -3 -1 -2 0 0)
1969-12-31 18:00:19.184580750,(-2 -5 -3 -1 -2 -1 -1 -2)
1969-12-31 18:00:19.194368679,(1 -1 -3 0 -1 0 -1 1)
1969-12-31 18:00:19.194368679,(-3 -1 -2 1 -3 -3 -2 -3)
1969-12-31 18:00:19.196543774,(-3 -3 -1 -1 0 -1 0 -2)
1969-12-31 18:00:19.196543774,(-1 -2 -1 -3 -1 0 0 0)
1969-12-31 18:00:19.209594345,(-2 -1 0 -3 -2 -2 0 -2)
1969-12-31 18:00:19.209594345,(-2 -3 -1 -1 0 -1 -2 0)
1969-12-31 18:00:19.217207178,(-2 0 -3 -3 -2 -1 -1 0)
1969-12-31 18:00:19.217207178,(-1 -3 -3 -5 -2 -1 0 -2)
1969-12-31 18:00:19.235695487,(0 2 0 -5 -4 -1 -2 0)
1969-12-31 18:00:19.235695487,(4 7 9 8 5 1 2 3)
1969-12-31 18:00:19.237870582,(-1 -3 1 2 0 1 3 3)
1969-12-31 18:00:19.237870582,(-4 -2 -3 -1 -2 -3 -3 -2)
1969-12-31 18:00:19.259621532,(1 -3 -2 1 0 -3 -3 -2)
1969-12-31 18:00:19.259621532,(-1 -1 -3 -5 -3 -3 -1 0)
1969-12-31 18:00:19.261796628,(1 2 -4 -4 -3 -2 0 1)
1969-12-31 18:00:19.261796628,(1 1 1 0 1 -2 -2 -1)
1969-12-31 18:00:19.273759652,(-2 -1 -1 -4 -2 -1 0 1)
1969-12-31 18:00:19.273759652,(-4 -5 -4 -4 -4 -3 -3 -3)
1969-12-31 18:00:19.283547580,(-4 -7 -10 -8 -6 -3 -1 0)
1969-12-31 18:00:19.283547580,(-2 -6 -8 -7 -2 -2 -2 -3)
1969-12-31 18:00:19.299860794,(-1 1 2 1 -1 -1 -2 -2)
1969-12-31 18:00:19.299860794,(-4 -3 -2 0 -3 0 -2 -3)
1969-12-31 18:00:19.302035889,(-2 -2 -2 -3 -1 -1 -1 -2)
1969-12-31 18:00:19.302035889,(-1 -1 -1 -3 -3 1 1 -1)
1969-12-31 18:00:19.323786841,(-1 -1 -1 -2 1 1 0 -1)
1969-12-31 18:00:19.323786841,(-1 -3 -1 -3 0 0 2 1)
1969-12-31 18:00:19.333574769,(-2 -2 -1 0 -1 -1 2 2)
1969-12-31 18:00:19.333574769,(2 3 4 4 0 0 -1 0)
1969-12-31 18:00:19.340100054,(-1 0 1 2 0 -1 0 -2)
1969-12-31 18:00:19.340100054,(-2 1 2 0 0 -2 -2 -2)
1969-12-31 18:00:19.349887983,(-4 -6 -2 -1 1 -1 1 0)
1969-12-31 18:00:19.349887983,(-1 0 -1 0 1 -2 -3 -3)
1969-12-31 18:00:19.366201196,(-2 -2 -4 -1 0 0 -1 1)
1969-12-31 18:00:19.366201196,(3 3 1 0 -1 -1 -2 0)
1969-12-31 18:00:19.367288744,(4 7 6 2 -1 -2 -4 -1)
1969-12-31 18:00:19.367288744,(2 0 5 4 0 -1 0 -1)
1969-12-31 18:00:19.389039695,(0 0 0 -2 -1 -2 -1 -2)
1969-12-31 18:00:19.389039695,(-2 -2 -2 -1 -2 -1 -1 -3)
1969-12-31 18:00:19.398827624,(0 0 -1 0 -2 0 -1 -2)
1969-12-31 18:00:19.398827624,(0 -1 2 2 1 0 1 2)
1969-12-31 18:00:19.415140837,(-4 -3 -1 -2 -1 -1 -1 -1)
1969-12-31 18:00:19.415140837,(0 2 1 -1 -1 -2 0 -1)
1969-12-31 18:00:19.416228385,(0 -1 1 3 0 1 -3 -1)
1969-12-31 18:00:19.416228385,(-2 -1 -2 -2 -1 -3 0 0)
1969-12-31 18:00:19.430366504,(0 -3 -2 -2 0 0 0 0)
1969-12-31 18:00:19.430366504,(1 -2 -2 -3 -2 0 -1 -3)
1969-12-31 18:00:19.430366504,(-48 -35 -22 -14 -8 -16 -33 -36)
1969-12-31 18:00:19.430366504,(2 13 8 5 1 8 -5 -54)
1969-12-31 18:00:19.431454051,(45 8 -5 -1 -3 -16 4 88)
1969-12-31 18:00:19.431454051,(0 -3 -3 -7 1 46 10 -26)
1969-12-31 18:00:19.445592170,(10 -17 -4 -6 -11 -42 -41 30)
1969-12-31 18:00:19.445592170,(-24 -4 -8 -9 -8 32 -3 22)
1969-12-31 18:00:19.460817835,(6 -1 2 3 2 -19 -7 7)
1969-12-31 18:00:19.460817835,(32 27 14 13 14 62 31 30)
1969-12-31 18:00:19.470605764,(-2 -16 -12 -12 -15 -42 -1 8)
1969-12-31 18:00:19.470605764,(20 6 5 5 -2 -23 47 44)
1969-12-31 18:00:19.472780859,(-20 -9 1 2 7 54 10 -70)
1969-12-31 18:00:19.472780859,(-42 -7 -6 -2 -1 -35 -25 -29)
1969-12-31 18:00:19.495619358,(27 1 0 4 8 50 35 74)
1969-12-31 18:00:19.495619358,(-31 -16 -7 -9 -3 -23 -41 -38)
1969-12-31 18:00:19.496706906,(-8 -7 -11 -11 -12 -37 -10 9)
1969-12-31 18:00:19.496706906,(15 15 10 9 2 -6 -13 2)
1969-12-31 18:00:19.510845024,(29 18 12 11 13 17 10 25)
1969-12-31 18:00:19.510845024,(-51 -27 -17 -12 -7 4 1 -38)
1969-12-31 18:00:19.518457858,(-21 -6 -2 0 -1 29 35 67)
1969-12-31 18:00:19.518457858,(19 2 -2 -5 -2 7 -58 -57)
1969-12-31 18:00:19.535858619,(-9 11 5 3 -4 -20 8 -39)
1969-12-31 18:00:19.535858619,(29 14 2 0 0 23 45 55)
1969-12-31 18:00:19.536946166,(-13 7 7 6 4 -21 -13 -20)
1969-12-31 18:00:19.538033714,(-44 -39 -6 0 -5 -25 15 -31)
1969-12-31 18:00:19.560872213,(-2 0 -5 -2 10 60 -14 -42)
1969-12-31 18:00:19.560872213,(17 4 5 4 5 27 7 38)
1969-12-31 18:00:19.561959761,(13 5 -1 -3 -9 -73 -51 -11)
1969-12-31 18:00:19.561959761,(21 10 -3 -3 -4 13 51 39)
1969-12-31 18:00:19.575010332,(1 -13 -10 -5 23 8 26 2)
1969-12-31 18:00:19.575010332,(1 -4 1 7 -10 -17 -5 20)
1969-12-31 18:00:19.584798260,(4 0 -2 -11 -31 -16 -11 14)
1969-12-31 18:00:19.584798260,(14 17 4 1 -3 8 -23 -19)
1969-12-31 18:00:19.600023926,(26 1 3 0 -7 0 3 51)
1969-12-31 18:00:19.600023926,(51 17 5 5 28 52 35 61)
1969-12-31 18:00:19.616337140,(-83 -9 0 4 22 79 37 24)
1969-12-31 18:00:19.616337140,(-12 -11 -8 -9 -11 -74 -35 -10)
1969-12-31 18:00:19.626125068,(-39 -16 -6 -7 -33 -19 -17 -59)
1969-12-31 18:00:19.626125068,(-19 -19 -7 -6 -7 -50 -32 -11)
1969-12-31 18:00:19.627212616,(21 7 1 4 5 8 -24 8)
1969-12-31 18:00:19.627212616,(26 5 3 2 -8 7 36 59)
1969-12-31 18:00:19.640263187,(-1 16 9 18 64 88 18 -20)
1969-12-31 18:00:19.640263187,(2 10 2 -1 -29 31 -4 -13)
1969-12-31 18:00:19.650051115,(-34 -36 -25 -27 -15 -44 -28 -71)
1969-12-31 18:00:19.650051115,(23 16 5 11 11 96 48 -5)
1969-12-31 18:00:19.666364328,(-49 -34 -20 -26 -44 -64 -43 -54)
1969-12-31 18:00:19.666364328,(-6 -8 -2 7 42 -13 27 -18)
1969-12-31 18:00:19.668539424,(27 9 8 13 -9 -9 9 18)
1969-12-31 18:00:19.668539424,(49 1 -10 -27 -87 -62 -14 18)
1969-12-31 18:00:19.690290375,(-12 -9 -1 -12 -9 -4 -14 -16)
1969-12-31 18:00:19.690290375,(7 8 4 9 38 15 -8 -12)
1969-12-31 18:00:19.691377923,(12 11 1 -7 -6 9 18 33)
1969-12-31 18:00:19.691377923,(-4 -19 1 11 23 -26 -3 -2)
1969-12-31 18:00:19.714216421,(6 -2 0 2 -5 -17 -7 -18)
1969-12-31 18:00:19.714216421,(-14 4 -1 -4 5 -3 1 8)
1969-12-31 18:00:19.715303969,(3 -1 3 19 49 24 14 7)
1969-12-31 18:00:19.715303969,(-21 -4 -5 -8 -2 -1 -7 -21)
1969-12-31 18:00:19.730529636,(11 11 -2 -11 -30 4 16 29)
1969-12-31 18:00:19.730529636,(-9 -10 -5 -4 16 46 -1 4)
1969-12-31 18:00:19.731617183,(15 11 10 32 84 70 16 0)
1969-12-31 18:00:19.731617183,(-22 -6 -2 1 -28 -29 -4 2)
1969-12-31 18:00:19.755543230,(2 -1 -9 -36 -83 -58 14 17)
1969-12-31 18:00:19.755543230,(21 -5 -1 -23 -48 -63 0 46)
