time,.data
1969/12/31/18:00:07.713,(2 -1 -16 -11 -5 -2 -2 -14)
1969/12/31/18:00:07.713,(2 -11 -20 -10 -4 -4 -10 -18)
1969/12/31/18:00:07.714,(-8 -6 14 5 1 4 -4 -3)
1969/12/31/18:00:07.714,(5 12 8 14 7 2 -18 -15)
1969/12/31/18:00:07.744,(-6 -7 1 -3 -5 0 0 0)
1969/12/31/18:00:07.744,(4 2 5 4 1 5 3 19)
1969/12/31/18:00:07.747,(4 -6 -5 1 -2 -3 -11 -25)
1969/12/31/18:00:07.747,(-17 -8 -3 -1 -3 4 2 -21)
1969/12/31/18:00:07.777,(11 -1 6 -1 0 3 17 61)
1969/12/31/18:00:07.777,(6 -2 -10 -4 -2 -4 -16 -38)
1969/12/31/18:00:07.778,(12 14 12 6 5 6 11 43)
1969/12/31/18:00:07.780,(-1 -5 1 -2 -2 -2 3 0)
1969/12/31/18:00:07.798,(7 10 3 0 0 -3 -4 -16)
1969/12/31/18:00:07.798,(-2 6 2 4 0 3 5 0)
1969/12/31/18:00:07.801,(-25 -23 -15 -8 -8 -7 -5 -9)
1969/12/31/18:00:07.801,(26 9 3 0 -1 0 8 37)
1969/12/31/18:00:07.830,(16 17 11 5 6 5 -7 -15)
1969/12/31/18:00:07.830,(-69 -35 -11 -9 -11 -12 -24 -32)
1969/12/31/18:00:07.833,(-25 -10 -8 -6 -5 -1 -2 -17)
1969/12/31/18:00:07.833,(5 2 2 -2 0 1 -2 3)
1969/12/31/18:00:07.850,(60 19 3 3 4 -1 10 59)
1969/12/31/18:00:07.850,(-12 -6 4 5 6 20 17 19)
1969/12/31/18:00:07.860,(-25 -10 -8 -3 -5 -13 -6 -8)
1969/12/31/18:00:07.860,(16 1 -3 -7 -8 -16 -9 -5)
1969/12/31/18:00:07.883,(-10 -1 1 0 5 48 8 -8)
1969/12/31/18:00:07.883,(9 12 9 3 -11 -57 6 -10)
1969/12/31/18:00:07.894,(0 -1 2 4 3 24 39 44)
1969/12/31/18:00:07.894,(-25 -16 -11 -5 -3 -4 -31 -28)
1969/12/31/18:00:07.916,(7 16 3 2 2 -20 -11 -5)
1969/12/31/18:00:07.916,(18 -5 -4 -4 -1 8 -8 -14)
1969/12/31/18:00:07.919,(10 9 1 -1 1 -21 -24 9)
1969/12/31/18:00:07.919,(8 13 8 5 3 28 9 -19)
1969/12/31/18:00:07.936,(10 8 3 3 -6 -22 1 -32)
1969/12/31/18:00:07.936,(-38 -25 -11 -10 -8 -12 -22 -27)
1969/12/31/18:00:07.949,(32 -3 -7 -6 -2 24 12 7)
1969/12/31/18:00:07.949,(-34 -9 -7 -5 0 12 26 12)
1969/12/31/18:00:07.982,(-16 -12 1 2 2 -13 -12 23)
1969/12/31/18:00:07.982,(35 18 2 -3 -4 29 16 13)
1969/12/31/18:00:07.985,(8 -7 -3 -4 -3 -36 -5 42)
1969/12/31/18:00:07.985,(-22 -4 -6 -3 -1 4 36 -10)
1969/12/31/18:00:08.003,(-15 -5 0 -1 0 -2 -2 -11)
1969/12/31/18:00:08.003,(32 16 10 7 8 -17 -31 32)
1969/12/31/18:00:08.006,(-44 -8 -4 -1 -5 -10 -18 -15)
1969/12/31/18:00:08.006,(18 -2 6 4 6 15 17 44)
1969/12/31/18:00:08.022,(-39 -19 -13 -14 -13 -5 20 -36)
1969/12/31/18:00:08.022,(-17 -3 -2 0 2 13 -1 -39)
1969/12/31/18:00:08.035,(31 5 0 5 17 71 4 8)
1969/12/31/18:00:08.035,(-6 15 8 4 -14 -101 -33 -14)
1969/12/31/18:00:08.056,(10 6 0 -1 5 18 -25 -15)
1969/12/31/18:00:08.056,(-43 -36 -14 -7 3 33 18 -8)
1969/12/31/18:00:08.058,(33 16 8 4 -6 -28 8 -16)
1969/12/31/18:00:08.058,(27 15 -1 -2 -5 -22 0 -3)
1969/12/31/18:00:08.088,(-47 -9 -1 2 -4 -58 -31 -11)
1969/12/31/18:00:08.088,(-4 -5 -1 -2 0 -3 -5 -5)
1969/12/31/18:00:08.091,(29 15 11 13 13 28 18 11)
1969/12/31/18:00:08.091,(-6 -27 -11 -5 -4 -12 -14 4)
1969/12/31/18:00:08.121,(-2 8 5 3 2 -8 7 9)
1969/12/31/18:00:08.121,(34 18 1 1 9 91 43 48)
1969/12/31/18:00:08.122,(-21 -7 -9 -7 -16 -83 -30 -61)
1969/12/31/18:00:08.122,(-64 -22 -7 -5 -4 -12 -37 -22)
1969/12/31/18:00:08.142,(15 6 -4 -3 4 53 13 14)
1969/12/31/18:00:08.142,(-18 -4 -1 -7 -9 -76 -19 -24)
1969/12/31/18:00:08.144,(4 -5 -5 -2 2 7 -11 12)
1969/12/31/18:00:08.144,(-1 -8 -2 -1 -9 31 20 0)
1969/12/31/18:00:08.174,(-55 -33 -11 -8 0 -8 -12 -25)
1969/12/31/18:00:08.174,(2 24 18 13 17 43 20 -37)
1969/12/31/18:00:08.177,(-8 -12 -17 -12 6 85 -1 -26)
1969/12/31/18:00:08.177,(-13 7 2 -4 -12 -43 11 -54)
1969/12/31/18:00:08.194,(-29 -17 -12 -11 -4 66 -6 -69)
1969/12/31/18:00:08.194,(51 22 9 1 -9 -80 -8 25)
1969/12/31/18:00:08.207,(-42 -2 1 -6 -17 -61 -45 -47)
1969/12/31/18:00:08.207,(6 7 3 4 11 77 16 -15)
1969/12/31/18:00:08.228,(11 -19 -7 -1 3 -13 23 19)
1969/12/31/18:00:08.228,(-7 14 6 2 -8 -71 -40 -29)
1969/12/31/18:00:08.230,(2 -11 -5 4 4 -28 43 68)
1969/12/31/18:00:08.230,(13 -13 -1 7 0 -11 -23 0)
1969/12/31/18:00:08.260,(-6 5 3 0 -6 -23 -19 -33)
1969/12/31/18:00:08.260,(15 0 -7 -4 15 108 21 2)
1969/12/31/18:00:08.263,(31 9 0 -9 -9 -36 -4 24)
1969/12/31/18:00:08.263,(43 39 21 12 20 15 24 45)
1969/12/31/18:00:08.280,(-31 -50 -23 -14 -12 -23 -7 25)
1969/12/31/18:00:08.280,(41 43 10 2 0 15 -2 46)
1969/12/31/18:00:08.293,(3 -14 -2 1 4 27 -3 -15)
1969/12/31/18:00:08.293,(-67 -31 -18 -17 9 105 7 -63)
1969/12/31/18:00:08.314,(51 35 10 2 -11 -86 15 33)
1969/12/31/18:00:08.314,(0 -12 4 7 2 -11 -33 9)
1969/12/31/18:00:08.316,(-12 1 -12 -21 -20 -25 -16 -41)
1969/12/31/18:00:08.316,(2 -2 6 16 25 57 31 23)
1969/12/31/18:00:08.346,(-11 -3 -2 -5 -14 15 11 42)
1969/12/31/18:00:08.346,(-10 -4 0 -7 -7 -28 25 10)
1969/12/31/18:00:08.349,(37 33 22 26 23 -4 -1 9)
1969/12/31/18:00:08.349,(-61 -44 -18 -6 -6 -26 -23 -12)
1969/12/31/18:00:08.366,(4 26 11 -1 -6 17 5 8)
1969/12/31/18:00:08.366,(-6 -23 -15 -8 -4 -19 9 37)
1969/12/31/18:00:08.379,(26 23 11 3 1 20 11 24)
1969/12/31/18:00:08.379,(23 13 1 -6 -12 -39 -34 7)
1969/12/31/18:00:08.400,(-2 -12 -8 -16 -7 8 -48 -17)
1969/12/31/18:00:08.400,(4 0 4 22 7 -35 -6 1)
1969/12/31/18:00:08.402,(-49 -22 -9 -1 -1 26 -8 -47)
1969/12/31/18:00:08.402,(17 -3 -2 2 -7 -57 -25 -23)
1969/12/31/18:00:08.432,(9 13 7 9 14 25 20 5)
1969/12/31/18:00:08.432,(-10 -22 -11 -12 -10 -38 1 4)
1969/12/31/18:00:08.435,(-9 5 3 2 3 23 32 41)
1969/12/31/18:00:08.435,(7 -12 -21 -20 -14 -17 29 10)
1969/12/31/18:00:08.452,(10 -13 -5 -2 -1 -10 -28 41)
1969/12/31/18:00:08.452,(10 4 -2 -5 -9 -21 -3 -14)
1969/12/31/18:00:08.465,(-16 3 1 0 0 5 0 -28)
1969/12/31/18:00:08.465,(-41 -44 -21 -22 -22 -48 -4 2)
1969/12/31/18:00:08.486,(33 24 8 10 13 25 49 22)
1969/12/31/18:00:08.486,(-9 -1 0 -3 -6 8 -8 0)
1969/12/31/18:00:08.488,(-12 -2 0 -1 -4 -43 -1 14)
1969/12/31/18:00:08.488,(27 21 8 4 1 52 33 9)
1969/12/31/18:00:08.518,(12 5 7 13 13 34 26 32)
1969/12/31/18:00:08.518,(-12 -3 -7 -5 2 -47 -6 -20)
1969/12/31/18:00:08.521,(-1 -10 -1 3 41 48 18 -9)
1969/12/31/18:00:08.521,(30 25 18 8 7 0 -11 24)
1969/12/31/18:00:08.538,(-7 -7 -4 -6 -37 -62 -11 -27)
1969/12/31/18:00:08.538,(11 10 6 -4 -26 -9 -14 5)
1969/12/31/18:00:08.551,(-28 -30 -12 -17 -38 -24 1 -1)
1969/12/31/18:00:08.551,(24 18 2 7 60 72 1 18)
1969/12/31/18:00:08.572,(-13 -14 -5 -3 -3 18 7 -3)
1969/12/31/18:00:08.572,(17 11 3 -1 -17 -4 -8 -7)
1969/12/31/18:00:08.574,(9 2 -3 0 6 -32 -30 -6)
1969/12/31/18:00:08.574,(12 15 5 -7 -24 27 6 17)
1969/12/31/18:00:08.604,(-12 -10 -9 -7 17 -2 -18 -44)
1969/12/31/18:00:08.604,(20 -3 -1 6 -2 -1 16 32)
1969/12/31/18:00:08.607,(-1 -2 3 23 74 97 40 -4)
1969/12/31/18:00:08.607,(14 14 5 -2 -47 -74 -43 -4)
1969/12/31/18:00:08.624,(-12 -11 -8 -32 -83 -79 -36 -10)
1969/12/31/18:00:08.624,(-15 -8 1 8 67 64 25 22)
1969/12/31/18:00:08.637,(-5 -7 -3 -7 -44 -33 -12 -16)
1969/12/31/18:00:08.637,(-2 13 11 25 54 27 -26 -28)
1969/12/31/18:00:08.658,(13 -3 -11 -20 -48 17 6 17)
1969/12/31/18:00:08.658,(-36 -15 -3 -14 3 32 -16 -47)
1969/12/31/18:00:08.660,(15 10 3 5 16 11 3 3)
1969/12/31/18:00:08.660,(6 -3 0 3 -13 -45 -23 0)
1969/12/31/18:00:08.691,(-26 -2 2 19 26 -3 12 -17)
1969/12/31/18:00:08.691,(2 3 1 16 57 56 1 -4)
1969/12/31/18:00:08.693,(6 1 -5 -14 -21 -15 -10 12)
1969/12/31/18:00:08.693,(-27 -18 -10 -4 -16 -31 4 -7)
1969/12/31/18:00:08.710,(49 43 16 12 -7 4 -4 14)
1969/12/31/18:00:08.710,(-76 -45 -21 -32 -69 -39 -19 -34)
1969/12/31/18:00:08.723,(-5 -6 8 0 -18 -9 -14 -27)
1969/12/31/18:00:08.723,(-8 -11 -5 -13 11 22 11 11)
1969/12/31/18:00:08.744,(10 8 -7 14 52 -3 -8 -19)
1969/12/31/18:00:08.744,(18 -4 -2 12 13 34 12 15)
1969/12/31/18:00:08.746,(-21 2 7 17 40 24 18 8)
1969/12/31/18:00:08.746,(1 2 2 -18 -80 -87 -15 -10)
1969/12/31/18:00:08.776,(24 13 7 -6 4 22 8 42)
1969/12/31/18:00:08.776,(22 20 3 1 -13 -16 -9 -28)
1969/12/31/18:00:08.779,(12 -6 -27 -13 6 -9 -17 3)
1969/12/31/18:00:08.779,(17 -9 -2 15 89 67 24 14)
1969/12/31/18:00:08.809,(-14 1 20 22 -28 -27 -4 -25)
1969/12/31/18:00:08.809,(-26 -4 -8 -30 -62 -36 1 -20)
1969/12/31/18:00:08.810,(11 0 5 -10 -9 13 13 18)
1969/12/31/18:00:08.810,(50 25 -34 1 18 17 2 42)
1969/12/31/18:00:08.829,(-19 -13 37 0 9 -15 0 -13)
1969/12/31/18:00:08.829,(15 47 1 0 10 9 2 11)
1969/12/31/18:00:08.839,(-27 -16 37 28 57 52 -6 -39)
1969/12/31/18:00:08.839,(-37 -34 -23 -10 -86 -78 -35 -31)
1969/12/31/18:00:08.862,(-22 -15 29 10 12 -3 -13 -3)
1969/12/31/18:00:08.862,(41 10 -32 -3 -4 -6 12 41)
1969/12/31/18:00:08.865,(-47 -36 -27 -25 -20 -10 -39 -81)
1969/12/31/18:00:08.865,(8 56 48 17 52 59 52 85)
1969/12/31/18:00:08.895,(5 -17 -44 -6 -2 -52 -49 -74)
1969/12/31/18:00:08.895,(-19 41 58 17 -17 2 -5 -26)
1969/12/31/18:00:08.896,(22 -63 -57 -33 -79 -42 15 14)
1969/12/31/18:00:08.896,(-21 -71 -62 -23 -11 -17 -17 -38)
1969/12/31/18:00:08.915,(-8 25 8 -5 24 29 8 4)
1969/12/31/18:00:08.915,(-2 -117 -74 -7 97 61 32 53)
1969/12/31/18:00:08.925,(-2 86 77 49 3 23 27 45)
1969/12/31/18:00:08.925,(-16 92 48 -5 -93 -86 -3 -15)
1969/12/31/18:00:08.949,(38 10 7 2 4 6 -5 28)
1969/12/31/18:00:08.949,(50 29 10 18 20 5 -22 -32)
1969/12/31/18:00:08.951,(-36 -90 -59 -28 -23 -4 24 4)
1969/12/31/18:00:08.951,(-19 -92 -102 -44 55 64 4 -53)
1969/12/31/18:00:08.982,(18 93 78 58 31 25 10 -18)
1969/12/31/18:00:08.982,(-75 -23 -10 -9 -32 -44 -42 -53)
1969/12/31/18:00:08.984,(-28 0 -7 -34 -69 -51 -12 -59)
1969/12/31/18:00:08.985,(82 52 60 16 -47 -39 6 95)
1969/12/31/18:00:09.001,(-15 -94 -59 -11 76 74 9 -30)
1969/12/31/18:00:09.001,(-16 3 -4 5 17 12 1 -42)
1969/12/31/18:00:09.011,(-24 -40 -49 -29 -51 -99 -94 -21)
1969/12/31/18:00:09.011,(59 46 46 16 1 4 47 81)
1969/12/31/18:00:09.034,(28 27 8 8 -12 -4 51 76)
1969/12/31/18:00:09.034,(74 44 50 32 43 56 19 88)
1969/12/31/18:00:09.037,(-25 -40 -25 -8 7 -10 -2 -59)
1969/12/31/18:00:09.037,(-29 -72 -16 -8 -14 -12 -27 -4)
1969/12/31/18:00:09.077,(-63 -1 -4 -20 14 5 2 -24)
1969/12/31/18:00:09.077,(41 89 45 22 9 -8 0 -14)
1969/12/31/18:00:09.080,(55 38 43 52 36 38 9 82)
1969/12/31/18:00:09.080,(-18 37 42 14 45 41 26 -72)
1969/12/31/18:00:09.087,(9 40 28 17 17 15 -10 49)
1969/12/31/18:00:09.087,(-49 -128 -114 -55 -54 -35 -29 -19)
1969/12/31/18:00:09.097,(17 59 46 1 -12 -13 36 36)
1969/12/31/18:00:09.097,(-51 -62 -36 -22 -48 -27 -37 -55)
1969/12/31/18:00:09.120,(4 -21 -47 -13 -32 -14 2 -1)
1969/12/31/18:00:09.120,(22 -5 -40 -18 58 38 11 33)
1969/12/31/18:00:09.123,(6 19 17 0 -3 14 15 29)
1969/12/31/18:00:09.123,(0 -25 -20 0 20 17 2 31)
1969/12/31/18:00:09.153,(-26 7 35 -5 -56 -79 -45 -21)
1969/12/31/18:00:09.153,(-3 35 45 9 -26 -31 -20 -69)
1969/12/31/18:00:09.154,(3 -45 -55 -8 47 28 20 32)
1969/12/31/18:00:09.154,(7 12 -32 2 25 19 -13 -16)
1969/12/31/18:00:09.173,(48 -3 -36 -16 -7 29 46 47)
1969/12/31/18:00:09.173,(-51 12 105 45 -5 -10 -20 9)
1969/12/31/18:00:09.184,(-5 8 -7 -11 -33 -2 -6 -15)
1969/12/31/18:00:09.184,(4 -7 -22 -8 10 6 47 -14)
1969/12/31/18:00:09.206,(-47 -57 -1 7 5 13 -50 -63)
1969/12/31/18:00:09.206,(-8 -5 -41 -35 -73 -61 0 3)
1969/12/31/18:00:09.209,(31 2 12 4 27 -14 -11 23)
1969/12/31/18:00:09.209,(-8 33 26 16 7 7 4 2)
1969/12/31/18:00:09.237,(9 -10 -39 -3 31 17 28 39)
1969/12/31/18:00:09.237,(1 -12 1 9 36 54 20 2)
1969/12/31/18:00:09.240,(-20 -25 -31 -16 -5 8 -35 -45)
1969/12/31/18:00:09.240,(-11 0 3 -14 -68 -76 -29 -26)
1969/12/31/18:00:09.257,(-12 -17 5 2 30 11 14 11)
1969/12/31/18:00:09.257,(-11 -17 -9 -3 -19 -11 -13 4)
1969/12/31/18:00:09.270,(48 63 28 8 27 31 51 38)
1969/12/31/18:00:09.270,(22 -82 -54 3 52 39 3 34)
1969/12/31/18:00:09.292,(-35 62 54 -12 -70 -34 -43 -76)
1969/12/31/18:00:09.292,(26 17 0 13 74 66 85 97)
1969/12/31/18:00:09.294,(22 -11 -27 -7 -28 -29 -50 -7)
1969/12/31/18:00:09.294,(-27 36 37 4 -8 -17 -32 -35)
1969/12/31/18:00:09.325,(53 -33 -34 3 27 15 37 45)
1969/12/31/18:00:09.325,(-41 -54 -30 -12 -8 -23 -22 -56)
1969/12/31/18:00:09.326,(44 107 91 33 -4 -5 20 68)
1969/12/31/18:00:09.326,(-1 -20 -3 16 84 97 35 -11)
1969/12/31/18:00:09.345,(22 -14 -69 -25 -82 -56 -33 33)
1969/12/31/18:00:09.345,(25 29 42 5 3 -22 18 55)
1969/12/31/18:00:09.368,(-21 -31 -39 -13 -51 -27 -70 -93)
1969/12/31/18:00:09.368,(-46 1 30 -10 -42 -63 -70 -39)
1969/12/31/18:00:09.379,(44 39 -5 5 43 36 35 45)
1969/12/31/18:00:09.379,(13 -12 1 14 30 22 35 22)
1969/12/31/18:00:09.382,(-64 -7 -5 -31 -46 11 7 -44)
1969/12/31/18:00:09.382,(36 -9 -21 -8 -28 -46 14 37)
1969/12/31/18:00:09.411,(22 -21 -25 -7 31 21 -28 -26)
1969/12/31/18:00:09.411,(-13 -57 -1 -3 -49 -31 -21 -40)
1969/12/31/18:00:09.413,(-13 12 -14 10 103 60 44 67)
1969/12/31/18:00:09.413,(-16 31 11 -8 -65 -25 -32 15)
1969/12/31/18:00:09.429,(11 9 11 -6 -14 -18 2 -15)
1969/12/31/18:00:09.431,(-22 25 -4 3 20 7 -7 -11)
1969/12/31/18:00:09.444,(71 -47 -51 -18 -11 12 30 3)
1969/12/31/18:00:09.444,(-67 -39 12 14 36 32 -17 -12)
1969/12/31/18:00:09.464,(53 72 59 31 30 8 28 50)
1969/12/31/18:00:09.464,(-24 -21 -20 -14 -25 -61 -70 -76)
1969/12/31/18:00:09.466,(-9 23 21 -11 -64 -38 26 10)
1969/12/31/18:00:09.466,(2 -4 -9 7 53 33 37 6)
1969/12/31/18:00:09.497,(-12 -62 -43 -8 -6 6 -33 -42)
1969/12/31/18:00:09.497,(32 -9 -23 -30 -66 -5 -9 -20)
1969/12/31/18:00:09.498,(3 34 37 5 5 -22 39 62)
1969/12/31/18:00:09.498,(52 117 104 44 3 -9 -38 -51)
1969/12/31/18:00:09.515,(-72 -81 -39 -17 26 23 13 -9)
1969/12/31/18:00:09.515,(66 37 -12 24 73 67 23 68)
1969/12/31/18:00:09.528,(-27 -62 -3 25 7 -54 -12 -12)
1969/12/31/18:00:09.528,(-42 -63 -50 -53 -47 4 -7 -22)
1969/12/31/18:00:09.551,(16 57 21 -9 -17 -24 -2 -6)
1969/12/31/18:00:09.551,(-57 -2 10 0 -35 -4 -7 -2)
1969/12/31/18:00:09.552,(3 15 8 10 33 18 -26 -29)
1969/12/31/18:00:09.552,(32 15 -11 7 29 24 47 32)
1969/12/31/18:00:09.583,(-40 -46 1 -5 -2 9 5 57)
1969/12/31/18:00:09.583,(11 -70 -58 -23 2 -10 -15 34)
1969/12/31/18:00:09.584,(-15 6 -11 -4 22 18 1 5)
1969/12/31/18:00:09.585,(-45 16 14 7 -47 -7 52 9)
1969/12/31/18:00:09.603,(-24 -31 -18 -1 18 -9 -20 -73)
1969/12/31/18:00:09.603,(38 69 52 0 -69 -52 -29 6)
1969/12/31/18:00:09.615,(-3 -5 13 18 83 74 37 44)
1969/12/31/18:00:09.615,(33 -3 -61 -11 18 3 3 -30)
1969/12/31/18:00:09.636,(-27 -34 -13 -2 11 -13 -22 0)
1969/12/31/18:00:09.636,(-27 70 91 8 -84 -73 -9 -9)
1969/12/31/18:00:09.638,(19 -45 -46 -27 0 -2 -31 -56)
1969/12/31/18:00:09.638,(52 30 9 9 56 33 18 55)
1969/12/31/18:00:09.668,(-20 -8 13 8 -31 -12 39 72)
1969/12/31/18:00:09.668,(-14 -4 -19 5 30 42 14 -43)
1969/12/31/18:00:09.671,(7 40 23 5 -13 -17 -7 22)
1969/12/31/18:00:09.671,(35 -13 22 17 23 15 22 49)
1969/12/31/18:00:09.687,(-18 -21 -55 -33 15 29 -35 -75)
1969/12/31/18:00:09.687,(-20 -11 -9 6 8 -4 58 56)
1969/12/31/18:00:09.701,(-39 30 35 -5 -61 -65 -76 -77)
1969/12/31/18:00:09.701,(-29 -53 -46 -20 4 -1 -42 -38)
1969/12/31/18:00:09.722,(14 3 -22 -31 -75 -29 3 -19)
1969/12/31/18:00:09.722,(-3 -38 -7 3 65 56 39 35)
1969/12/31/18:00:09.724,(-3 35 17 16 -17 -25 -2 -35)
1969/12/31/18:00:09.724,(5 12 22 4 -14 -22 -64 -14)
1969/12/31/18:00:09.764,(2 11 -16 -4 -10 -21 5 2)
1969/12/31/18:00:09.764,(-26 -23 -5 1 31 23 24 -39)
1969/12/31/18:00:09.767,(-12 -2 -5 -4 -61 -51 -1 -7)
1969/12/31/18:00:09.767,(43 67 60 4 -16 -5 -7 33)
1969/12/31/18:00:09.773,(-32 -23 2 21 79 72 -49 -51)
1969/12/31/18:00:09.773,(14 0 -6 4 -25 -14 1 19)
1969/12/31/18:00:09.787,(47 11 1 2 -13 -29 -4 54)
1969/12/31/18:00:09.787,(-38 -26 -27 -17 -31 -17 -6 -40)
1969/12/31/18:00:09.809,(8 -3 12 16 67 68 26 -9)
1969/12/31/18:00:09.809,(-6 14 -8 -14 -59 -69 -50 -16)
1969/12/31/18:00:09.812,(30 -5 -24 2 42 47 30 54)
1969/12/31/18:00:09.812,(-53 -42 13 6 -29 -51 -18 -9)
1969/12/31/18:00:09.840,(14 32 0 -9 -5 3 42 -7)
1969/12/31/18:00:09.840,(31 27 18 17 50 45 -26 0)
1969/12/31/18:00:09.843,(-3 -1 -5 -38 -91 -38 -23 -32)
1969/12/31/18:00:09.843,(9 -6 -22 -2 31 27 7 8)
1969/12/31/18:00:09.859,(25 -14 -18 2 -8 -47 18 11)
1969/12/31/18:00:09.859,(-6 -23 -15 -22 -62 -41 -62 -56)
1969/12/31/18:00:09.873,(-16 -3 6 10 61 33 4 11)
1969/12/31/18:00:09.873,(5 32 18 38 72 54 74 5)
1969/12/31/18:00:09.893,(-64 -29 36 -11 -80 -43 -73 -66)
1969/12/31/18:00:09.895,(121 82 -16 -15 -38 -20 24 55)
1969/12/31/18:00:09.896,(-59 -60 -18 -6 20 1 -37 -80)
1969/12/31/18:00:09.896,(-23 -6 -13 -3 13 23 32 21)
1969/12/31/18:00:09.926,(19 26 4 2 12 -5 -22 16)
1969/12/31/18:00:09.926,(-67 6 21 13 22 9 1 -43)
1969/12/31/18:00:09.928,(46 57 48 24 22 44 47 34)
1969/12/31/18:00:09.928,(34 -2 -7 14 57 69 8 74)
1969/12/31/18:00:09.945,(-2 17 19 2 -58 -100 -44 -13)
1969/12/31/18:00:09.945,(-34 -77 -70 -58 -2 27 17 -22)
1969/12/31/18:00:09.958,(-27 2 29 27 107 58 -34 -18)
1969/12/31/18:00:09.958,(-17 -21 -11 -6 -80 -23 -7 -62)
1969/12/31/18:00:09.979,(-13 7 17 -6 -30 -16 5 -30)
1969/12/31/18:00:09.979,(-3 -11 -22 -3 10 -18 1 -2)
1969/12/31/18:00:09.982,(10 -43 -37 -20 -29 -21 7 12)
1969/12/31/18:00:09.982,(9 57 35 23 37 10 20 52)
1969/12/31/18:00:10.014,(45 41 28 13 2 19 33 44)
1969/12/31/18:00:10.014,(-106 -59 -12 -10 -23 -33 -45 -126)
1969/12/31/18:00:10.017,(1 -25 -27 -8 12 23 4 -13)
1969/12/31/18:00:10.017,(9 -7 -12 -16 -9 -26 -18 -2)
1969/12/31/18:00:10.031,(-1 13 -7 9 38 65 43 14)
1969/12/31/18:00:10.031,(44 -17 -7 -9 -19 -38 -3 54)
1969/12/31/18:00:10.045,(-30 22 19 11 -24 -33 -5 -56)
1969/12/31/18:00:10.045,(15 -5 -8 -15 -41 -30 -52 -16)
1969/12/31/18:00:10.077,(-31 -7 -10 -37 -68 -47 -49 -49)
1969/12/31/18:00:10.077,(-16 18 28 37 121 127 64 39)
1969/12/31/18:00:10.078,(-9 -21 -18 -5 -26 -39 34 -9)
1969/12/31/18:00:10.078,(27 9 1 -15 -17 -32 -42 -30)
1969/12/31/18:00:10.098,(-10 0 -20 8 50 43 37 2)
1969/12/31/18:00:10.098,(19 0 -11 0 -7 -6 -23 9)
1969/12/31/18:00:10.101,(17 20 41 18 15 18 19 16)
1969/12/31/18:00:10.101,(-45 -28 -17 -8 -7 -4 12 -13)
1969/12/31/18:00:10.118,(63 58 47 21 17 32 12 43)
1969/12/31/18:00:10.118,(-42 2 18 7 -2 -25 22 52)
1969/12/31/18:00:10.131,(2 1 -8 1 -6 13 7 69)
1969/12/31/18:00:10.131,(42 -4 -12 -10 8 22 30 -7)
1969/12/31/18:00:10.163,(-47 -40 -17 -16 -29 -55 -65 -19)
1969/12/31/18:00:10.163,(55 54 32 46 72 69 40 59)
1969/12/31/18:00:10.164,(11 -8 -13 -7 -41 -26 31 62)
1969/12/31/18:00:10.164,(-35 -24 -9 -24 -18 -4 -27 0)
1969/12/31/18:00:10.184,(10 -5 -1 0 -12 -1 25 10)
1969/12/31/18:00:10.184,(3 12 7 -17 -13 -20 -13 -17)
1969/12/31/18:00:10.186,(37 18 -24 8 16 11 -20 -18)
1969/12/31/18:00:10.186,(-48 -40 -18 -6 21 19 26 0)
1969/12/31/18:00:10.204,(46 51 62 23 2 -2 8 24)
1969/12/31/18:00:10.204,(-45 -17 -8 -16 -20 -15 -28 -37)
1969/12/31/18:00:10.217,(-20 -13 1 -1 14 19 -20 5)
1969/12/31/18:00:10.217,(11 1 -5 2 -14 -20 7 14)
1969/12/31/18:00:10.237,(18 -23 -30 -8 11 10 11 13)
1969/12/31/18:00:10.237,(11 15 14 -15 -17 13 -5 -37)
1969/12/31/18:00:10.247,(-38 -30 -27 -10 -1 -65 -85 -81)
1969/12/31/18:00:10.247,(41 35 23 -2 -12 50 61 19)
1969/12/31/18:00:10.270,(11 -7 -2 0 -1 -20 -47 -6)
1969/12/31/18:00:10.270,(68 25 8 38 17 -9 14 19)
1969/12/31/18:00:10.273,(-24 -4 3 8 14 58 -2 -2)
1969/12/31/18:00:10.273,(25 9 2 9 -6 -97 -21 -2)
1969/12/31/18:00:10.303,(-68 -35 -16 -3 -1 -2 22 -28)
1969/12/31/18:00:10.303,(15 12 -4 -19 -20 39 42 32)
1969/12/31/18:00:10.305,(-8 -7 1 2 15 -14 -32 -4)
1969/12/31/18:00:10.305,(7 -6 -2 -12 -16 -40 -20 6)
1969/12/31/18:00:10.323,(12 6 -8 -10 16 99 45 14)
1969/12/31/18:00:10.323,(39 10 2 0 -18 -63 -8 45)
1969/12/31/18:00:10.332,(-49 -25 -1 -7 1 -2 37 -16)
1969/12/31/18:00:10.332,(-51 -14 -5 1 10 11 -30 -54)
1969/12/31/18:00:10.356,(21 -4 -11 -5 -8 -30 -13 17)
1969/12/31/18:00:10.356,(-8 -24 -10 -1 3 3 -29 -45)
1969/12/31/18:00:10.359,(48 17 7 -4 -10 2 18 10)
1969/12/31/18:00:10.359,(74 44 20 9 2 9 46 56)
1969/12/31/18:00:10.389,(-95 -26 -2 13 14 19 6 -55)
1969/12/31/18:00:10.389,(-41 -9 2 0 -1 -15 14 11)
1969/12/31/18:00:10.391,(-13 -6 -15 -18 -20 -5 -21 -32)
1969/12/31/18:00:10.391,(-68 -60 -15 3 6 14 -28 -49)
1969/12/31/18:00:10.409,(-17 -5 -3 -2 -5 -21 -4 -13)
1969/12/31/18:00:10.409,(62 0 -8 -7 3 25 17 76)
1969/12/31/18:00:10.412,(-35 -15 -5 -14 -8 2 -6 -36)
1969/12/31/18:00:10.412,(69 47 27 24 21 25 40 96)
1969/12/31/18:00:10.442,(29 30 11 5 3 -13 -13 3)
1969/12/31/18:00:10.442,(67 31 -4 -1 -2 5 22 67)
1969/12/31/18:00:10.445,(-1 -32 3 8 9 4 9 73)
1969/12/31/18:00:10.445,(-40 9 -1 1 1 3 -4 40)
1969/12/31/18:00:10.474,(-29 -25 -4 1 1 -6 -1 -52)
1969/12/31/18:00:10.474,(9 9 4 -2 -10 -3 -12 -40)
1969/12/31/18:00:10.477,(47 26 1 -3 0 3 17 32)
1969/12/31/18:00:10.477,(-23 4 -11 -11 -5 -7 -31 -70)
1969/12/31/18:00:10.495,(27 5 9 9 10 13 29 66)
1969/12/31/18:00:10.495,(-15 -18 -4 -1 -3 -10 -16 4)
1969/12/31/18:00:10.504,(-64 -10 1 4 7 5 -15 -94)
1969/12/31/18:00:10.504,(-15 -20 -14 -17 -21 -24 -39 -56)
1969/12/31/18:00:10.528,(19 7 -3 2 3 0 8 31)
1969/12/31/18:00:10.528,(-54 -31 -8 -4 -3 -3 -7 -21)
1969/12/31/18:00:10.531,(84 38 8 3 -1 2 3 6)
1969/12/31/18:00:10.531,(-1 -9 -6 -4 3 7 6 16)
1969/12/31/18:00:10.560,(18 8 1 -5 -2 -4 4 3)
1969/12/31/18:00:10.560,(-36 -15 2 3 2 2 -8 -24)
1969/12/31/18:00:10.563,(-2 -1 -5 -5 -6 -3 -12 -32)
1969/12/31/18:00:10.563,(10 2 -4 -4 -3 -1 -6 1)
1969/12/31/18:00:10.581,(1 -1 -4 -2 -3 -5 -1 4)
1969/12/31/18:00:10.581,(-45 -37 -9 -8 -7 -8 -19 -40)
1969/12/31/18:00:10.590,(9 8 2 -2 0 2 9 33)
1969/12/31/18:00:10.591,(-3 -5 -4 -3 -8 -11 -8 -14)
1969/12/31/18:00:10.614,(3 -13 -1 -2 3 -3 -1 13)
1969/12/31/18:00:10.614,(-4 13 2 3 -4 -2 -2 -35)
1969/12/31/18:00:10.616,(8 5 -7 -4 -3 -3 0 -17)
1969/12/31/18:00:10.616,(-2 -6 1 1 1 3 -2 -8)
1969/12/31/18:00:10.646,(2 7 -7 -5 -5 -4 0 8)
1969/12/31/18:00:10.646,(-4 -2 -7 -4 0 -1 -3 -16)
1969/12/31/18:00:10.649,(4 22 34 16 9 7 9 36)
1969/12/31/18:00:10.649,(8 8 2 3 1 -4 -7 -6)
1969/12/31/18:00:10.666,(-21 -13 -5 -3 -3 -6 -7 -41)
1969/12/31/18:00:10.666,(-29 -36 -20 -14 -12 -11 -19 -60)
1969/12/31/18:00:10.679,(15 20 -6 -6 -1 1 5 14)
1969/12/31/18:00:10.679,(-13 -8 6 6 1 5 4 -10)
1969/12/31/18:00:10.700,(9 6 10 4 0 -4 1 23)
1969/12/31/18:00:10.700,(-2 -3 -3 3 1 0 -9 13)
1969/12/31/18:00:10.703,(-7 -19 -5 -5 -4 1 5 6)
1969/12/31/18:00:10.703,(-10 -7 -6 0 0 -1 -2 -9)
1969/12/31/18:00:10.733,(2 21 15 -1 2 0 4 0)
1969/12/31/18:00:10.733,(1 -9 -15 -6 0 1 0 4)
1969/12/31/18:00:10.736,(10 -8 -16 -11 -1 1 8 40)
1969/12/31/18:00:10.736,(-13 15 43 23 10 6 13 2)
1969/12/31/18:00:10.752,(14 -11 -25 -9 -4 -6 -22 -11)
1969/12/31/18:00:10.752,(-15 38 44 15 3 0 0 0)
1969/12/31/18:00:10.765,(-1 13 24 13 2 -1 -5 -4)
1969/12/31/18:00:10.765,(-3 -26 -33 -18 -11 -5 -9 -1)
1969/12/31/18:00:10.786,(-7 18 17 6 2 3 14 4)
1969/12/31/18:00:10.786,(5 -10 -6 4 5 -2 -20 8)
1969/12/31/18:00:10.788,(5 -11 -11 -3 2 5 12 10)
1969/12/31/18:00:10.788,(8 -27 -33 -18 -3 -6 -7 -3)
1969/12/31/18:00:10.819,(-11 28 50 21 5 1 2 -4)
1969/12/31/18:00:10.819,(-1 -7 -9 -6 -2 0 -2 4)
1969/12/31/18:00:10.821,(6 -22 -17 -3 -2 3 1 -1)
1969/12/31/18:00:10.821,(7 52 27 7 -4 -5 -12 -14)
1969/12/31/18:00:10.838,(-10 -56 -59 -29 -8 2 5 2)
1969/12/31/18:00:10.838,(3 9 4 7 -1 -3 10 8)
1969/12/31/18:00:10.851,(-3 -16 -19 -10 -4 -4 -4 -4)
1969/12/31/18:00:10.851,(-2 -7 -11 -7 -6 -2 -3 -12)
1969/12/31/18:00:10.872,(5 27 31 17 2 3 -3 4)
1969/12/31/18:00:10.872,(-4 4 15 1 -3 3 20 7)
1969/12/31/18:00:10.875,(-2 -26 -32 -12 0 1 -2 -2)
1969/12/31/18:00:10.875,(4 41 30 5 2 -4 -15 -6)
1969/12/31/18:00:10.904,(-14 -39 -34 -20 -6 -7 -3 -3)
1969/12/31/18:00:10.904,(-1 -24 19 20 8 2 7 1)
1969/12/31/18:00:10.907,(32 51 16 2 1 -1 1 11)
1969/12/31/18:00:10.907,(2 27 34 21 10 8 0 1)
1969/12/31/18:00:10.924,(-22 -27 -29 -12 -7 -5 -8 -10)
1969/12/31/18:00:10.924,(9 31 20 -1 -5 -5 -10 -3)
1969/12/31/18:00:10.937,(-5 -24 -21 -11 -9 -4 -6 -8)
1969/12/31/18:00:10.937,(-1 22 4 -10 -5 -2 -1 5)
1969/12/31/18:00:10.970,(8 -16 15 11 -3 -4 -5 -3)
1969/12/31/18:00:10.970,(-19 -10 0 -3 0 11 12 0)
1969/12/31/18:00:10.971,(-25 -62 -30 -14 -3 2 -19 -8)
1969/12/31/18:00:10.971,(4 13 14 5 4 1 0 -7)
1969/12/31/18:00:10.990,(14 -8 -16 4 0 2 6 7)
1969/12/31/18:00:10.990,(-1 -35 -20 -6 0 -3 9 4)
1969/12/31/18:00:10.993,(17 88 41 23 13 2 -6 -4)
1969/12/31/18:00:10.993,(-18 -37 -16 -4 4 -1 9 1)
1969/12/31/18:00:11.010,(-11 -84 -77 -45 -12 -9 -5 9)
1969/12/31/18:00:11.010,(9 108 88 54 22 4 19 6)
1969/12/31/18:00:11.023,(-13 -43 -35 -18 -8 -10 11 6)
1969/12/31/18:00:11.023,(20 61 -45 -28 -6 -14 -6 2)
1969/12/31/18:00:11.023,(-1 -2 0 -2 -2 -4 -8 -10)
1969/12/31/18:00:11.023,(-2 0 1 6 1 -1 -3 -2)
1969/12/31/18:00:11.031,(1 -1 -3 -2 2 2 6 8)
1969/12/31/18:00:11.031,(1 2 1 0 0 1 -4 -7)
1969/12/31/18:00:11.034,(-2 -8 -9 -5 -1 2 2 2)
1969/12/31/18:00:11.034,(1 5 -6 -4 -2 -1 -4 -5)
1969/12/31/18:00:11.064,(-3 12 20 6 3 4 8 3)
1969/12/31/18:00:11.064,(-5 2 6 5 -1 -5 -11 -6)
1969/12/31/18:00:11.067,(-1 -11 -8 -4 -3 -2 0 -1)
1969/12/31/18:00:11.067,(-3 3 10 5 0 -3 -1 -3)
1969/12/31/18:00:11.084,(3 -15 -26 -11 -3 -5 -1 3)
1969/12/31/18:00:11.084,(0 12 -8 -4 0 -2 7 9)
1969/12/31/18:00:11.097,(-4 -8 4 -2 0 -2 -3 -5)
1969/12/31/18:00:11.097,(-6 -15 -12 -3 -2 -4 -1 5)
1969/12/31/18:00:11.117,(-3 5 6 3 1 1 3 -2)
1969/12/31/18:00:11.117,(-5 -10 -3 -4 -2 -2 4 5)
1969/12/31/18:00:11.120,(0 6 -7 0 2 -1 -2 -7)
1969/12/31/18:00:11.120,(1 -25 -26 -13 -8 -3 15 28)
1969/12/31/18:00:11.150,(-6 38 29 7 2 -6 -12 -30)
1969/12/31/18:00:11.150,(10 1 -20 -9 1 -5 -11 -12)
1969/12/31/18:00:11.152,(4 16 29 11 4 2 5 21)
1969/12/31/18:00:11.152,(-4 -3 8 4 2 2 -5 -16)
1969/12/31/18:00:11.170,(8 -8 -10 -3 1 3 3 18)
1969/12/31/18:00:11.170,(-6 -11 -6 -7 -6 -4 -1 -2)
1969/12/31/18:00:11.182,(-1 4 0 0 -1 -1 -3 -16)
1969/12/31/18:00:11.182,(2 4 -3 1 2 -2 -6 -6)
1969/12/31/18:00:11.203,(1 -10 -14 -6 -3 -3 1 18)
1969/12/31/18:00:11.203,(23 19 13 7 4 3 5 7)
1969/12/31/18:00:11.206,(23 -1 -6 0 5 0 -3 9)
1969/12/31/18:00:11.206,(-65 -6 -1 -4 -3 -4 -6 -35)
1969/12/31/18:00:11.236,(-14 -15 -11 -9 -7 -9 -10 -18)
1969/12/31/18:00:11.236,(9 -2 -2 -2 -1 -5 6 3)
1969/12/31/18:00:11.239,(33 18 1 -2 -1 0 10 14)
1969/12/31/18:00:11.239,(-38 -15 4 1 -1 4 -9 -16)
1969/12/31/18:00:11.256,(-18 -14 7 1 -4 6 -8 -5)
1969/12/31/18:00:11.256,(7 -4 11 8 -3 7 -20 -14)
1969/12/31/18:00:11.278,(21 11 11 4 -3 5 -1 12)
1969/12/31/18:00:11.278,(35 18 12 8 5 25 13 -7)
1969/12/31/18:00:11.289,(-60 -32 -13 -5 -1 6 -9 -9)
1969/12/31/18:00:11.289,(-11 -10 2 -3 -6 -3 15 11)
1969/12/31/18:00:11.298,(-12 -5 -7 0 2 -22 -18 2)
1969/12/31/18:00:11.299,(34 17 3 -1 -3 -31 0 6)
1969/12/31/18:00:11.332,(25 5 1 5 10 34 3 -7)
1969/12/31/18:00:11.332,(-3 1 -5 -4 -4 0 20 7)
1969/12/31/18:00:11.335,(-82 -33 -5 -4 -1 43 -6 -10)
1969/12/31/18:00:11.335,(10 6 -10 -9 -9 -45 -32 -4)
1969/12/31/18:00:11.354,(45 24 4 3 -2 4 17 -12)
1969/12/31/18:00:11.354,(-62 -32 -14 -8 -4 -18 -25 0)
1969/12/31/18:00:11.357,(-3 -4 -3 -5 -7 -23 -2 -23)
1969/12/31/18:00:11.357,(-8 -5 -6 -4 1 19 13 3)
1969/12/31/18:00:11.375,(7 8 8 4 -3 -53 -12 -17)
1969/12/31/18:00:11.375,(44 23 2 6 17 69 35 84)
1969/12/31/18:00:11.385,(15 -3 -8 -6 -2 -13 -10 -24)
1969/12/31/18:00:11.385,(-39 -28 -9 -4 3 23 13 39)
1969/12/31/18:00:11.408,(34 14 7 5 -7 -49 -17 -2)
1969/12/31/18:00:11.408,(-8 6 1 0 -1 -5 13 -10)
1969/12/31/18:00:11.410,(-11 0 -3 -4 1 8 8 -1)
1969/12/31/18:00:11.410,(47 25 10 6 -1 -16 -13 18)
1969/12/31/18:00:11.440,(-21 -23 -13 -6 -5 5 9 16)
1969/12/31/18:00:11.440,(-12 -3 5 3 5 9 -11 -51)
1969/12/31/18:00:11.442,(11 -19 -20 -15 -15 7 14 27)
1969/12/31/18:00:11.442,(16 17 16 12 5 -40 -14 -6)
1969/12/31/18:00:11.461,(-28 -8 -13 -10 -5 42 -10 -42)
1969/12/31/18:00:11.461,(37 12 6 1 -6 -20 -6 -7)
1969/12/31/18:00:11.471,(-32 -4 2 8 16 13 24 21)
1969/12/31/18:00:11.471,(14 0 -2 0 5 26 22 41)
1969/12/31/18:00:11.494,(-30 -17 -11 -9 -14 -11 12 -19)
1969/12/31/18:00:11.494,(-8 1 -2 0 7 34 -45 -35)
1969/12/31/18:00:11.496,(37 30 13 6 -1 -7 18 24)
1969/12/31/18:00:11.496,(-58 -37 -3 5 9 61 -8 32)
1969/12/31/18:00:11.526,(11 9 -7 -6 3 -7 20 25)
1969/12/31/18:00:11.526,(4 3 1 0 -3 -17 -37 -26)
1969/12/31/18:00:11.527,(-41 -24 -13 -11 -14 -16 -19 -58)
1969/12/31/18:00:11.527,(15 -4 -8 -10 -7 7 14 -14)
1969/12/31/18:00:11.546,(18 3 2 0 1 18 13 29)
1969/12/31/18:00:11.546,(26 17 9 6 1 -14 30 41)
1969/12/31/18:00:11.557,(14 11 4 2 -2 -21 -46 -24)
1969/12/31/18:00:11.557,(3 -9 -8 -6 2 58 26 -44)
1969/12/31/18:00:11.581,(-47 4 6 8 10 18 -1 -47)
1969/12/31/18:00:11.581,(-33 -28 -8 -10 -16 -47 -41 -7)
1969/12/31/18:00:11.583,(21 17 4 5 9 5 29 46)
1969/12/31/18:00:11.583,(-32 -17 -5 -3 3 -22 4 -10)
1969/12/31/18:00:11.612,(30 3 0 -2 -1 23 -17 18)
1969/12/31/18:00:11.612,(-10 12 12 3 -10 -38 8 6)
1969/12/31/18:00:11.613,(27 21 9 10 4 29 0 -12)
1969/12/31/18:00:11.613,(-68 -42 -13 -4 -6 -49 -74 -66)
1969/12/31/18:00:11.635,(-13 16 -3 -6 -3 -8 13 -6)
1969/12/31/18:00:11.635,(-6 -11 -9 -5 -4 -10 0 -42)
1969/12/31/18:00:11.679,(-4 -7 -8 -11 -9 32 -19 -30)
1969/12/31/18:00:11.679,(76 53 20 11 -2 -30 37 49)
1969/12/31/18:00:11.680,(-11 -29 -5 0 2 -8 -28 -4)
1969/12/31/18:00:11.680,(-14 -23 -13 -8 1 39 5 -7)
1969/12/31/18:00:11.682,(-28 3 8 7 6 -9 7 4)
1969/12/31/18:00:11.682,(28 10 -5 -9 -16 -35 26 26)
1969/12/31/18:00:11.698,(-23 -13 -4 -5 -8 -14 -36 -3)
1969/12/31/18:00:11.698,(9 20 3 1 -3 -25 12 18)
1969/12/31/18:00:11.699,(-18 -30 -7 -1 -1 37 17 18)
1969/12/31/18:00:11.699,(54 15 4 5 7 11 33 54)
1969/12/31/18:00:11.732,(-19 -17 -7 -5 -13 -67 -18 -33)
1969/12/31/18:00:11.732,(7 1 2 1 7 9 27 30)
1969/12/31/18:00:11.733,(18 20 9 7 9 26 -8 33)
1969/12/31/18:00:11.733,(-24 -9 -11 -13 -9 14 14 -6)
1969/12/31/18:00:11.751,(20 -5 6 7 3 30 27 21)
1969/12/31/18:00:11.751,(-19 -14 -10 -8 -12 -25 -56 -50)
1969/12/31/18:00:11.752,(9 4 -3 -6 -9 -21 8 0)
1969/12/31/18:00:11.752,(5 3 0 -3 -1 15 -23 -25)
1969/12/31/18:00:11.784,(6 5 0 -3 0 -29 25 1)
1969/12/31/18:00:11.784,(5 -7 2 10 3 -13 -26 28)
1969/12/31/18:00:11.784,(-6 -7 -1 5 19 -1 25 -9)
1969/12/31/18:00:11.784,(-24 2 -5 -3 13 26 -10 -26)
1969/12/31/18:00:11.816,(7 -1 2 16 17 -12 -22 66)
1969/12/31/18:00:11.816,(-17 -18 -9 -10 -33 -17 41 -1)
1969/12/31/18:00:11.818,(13 2 -8 -20 -60 -92 -52 -44)
1969/12/31/18:00:11.818,(-3 -7 -4 -15 -10 44 29 -8)
1969/12/31/18:00:11.837,(17 10 -3 -15 17 24 52 23)
1969/12/31/18:00:11.837,(10 13 9 23 52 2 27 8)
1969/12/31/18:00:11.838,(9 6 5 10 12 -6 -9 13)
1969/12/31/18:00:11.838,(-34 -19 -5 -6 -37 -29 -56 -70)
1969/12/31/18:00:11.881,(35 13 5 -10 -51 -18 -15 2)
1969/12/31/18:00:11.881,(-6 -6 -3 -4 19 34 -7 -10)
1969/12/31/18:00:11.882,(6 6 9 19 39 17 15 -3)
1969/12/31/18:00:11.882,(40 16 9 7 37 33 11 9)
1969/12/31/18:00:11.890,(-26 -9 -4 6 52 35 -41 -37)
1969/12/31/18:00:11.890,(-17 -1 -2 -8 -68 -60 -11 -25)
1969/12/31/18:00:11.901,(-13 -11 -9 -16 -40 -25 -4 10)
1969/12/31/18:00:11.901,(10 10 6 6 -56 -87 -22 5)
1969/12/31/18:00:11.924,(27 11 1 2 0 -28 -18 20)
1969/12/31/18:00:11.924,(5 8 6 8 39 70 37 13)
1969/12/31/18:00:11.944,(-11 -27 -15 -16 -8 -1 -9 -17)
1969/12/31/18:00:11.944,(-26 0 -1 -13 -48 -28 -10 1)
1969/12/31/18:00:11.955,(21 -3 -13 -5 10 3 14 4)
1969/12/31/18:00:11.955,(-2 8 22 23 61 50 -2 -1)
1969/12/31/18:00:11.957,(4 -6 -9 12 51 20 9 0)
1969/12/31/18:00:11.957,(-24 -4 33 5 -45 -71 -41 -30)
1969/12/31/18:00:11.976,(-3 -5 -9 -24 -50 -17 11 29)
1969/12/31/18:00:11.976,(-3 -12 -16 -17 -22 3 20 14)
1969/12/31/18:00:11.987,(26 -7 -37 -3 51 35 -33 -10)
1969/12/31/18:00:11.987,(26 48 50 38 84 44 31 51)
1969/12/31/18:00:12.009,(-19 -17 2 -10 -67 -20 -16 -12)
1969/12/31/18:00:12.009,(-25 -3 11 0 13 2 -28 -36)
1969/12/31/18:00:12.010,(-32 2 34 16 -9 -4 20 -16)
1969/12/31/18:00:12.010,(4 -37 -49 -29 -1 4 -13 10)
1969/12/31/18:00:12.041,(15 12 -16 -3 26 37 24 -11)
1969/12/31/18:00:12.041,(53 24 -39 -24 -33 -26 -22 45)
1969/12/31/18:00:12.043,(-59 -26 31 9 14 3 1 -42)
1969/12/31/18:00:12.043,(30 46 28 40 75 49 16 33)
1969/12/31/18:00:12.062,(-78 -3 32 4 -83 -46 -22 -62)
1969/12/31/18:00:12.062,(41 -36 -41 -25 -17 -22 4 12)
1969/12/31/18:00:12.073,(-45 44 41 17 -17 -6 -12 -16)
1969/12/31/18:00:12.073,(7 26 7 -5 -3 14 -5 -17)
1969/12/31/18:00:12.094,(54 -18 -64 -12 49 31 -5 5)
1969/12/31/18:00:12.094,(-43 25 41 35 33 7 30 3)
1969/12/31/18:00:12.096,(-22 -14 11 -9 -53 -24 -15 -57)
1969/12/31/18:00:12.096,(18 -30 35 24 53 45 10 40)
1969/12/31/18:00:12.127,(3 59 26 8 -40 -43 -2 -20)
1969/12/31/18:00:12.127,(28 -82 -86 -44 -8 10 -4 -25)
1969/12/31/18:00:12.127,(7 -61 -94 -28 71 48 56 52)
1969/12/31/18:00:12.127,(-52 86 76 42 -30 -6 -58 -76)
1969/12/31/18:00:12.148,(32 14 35 -17 -82 -69 49 83)
1969/12/31/18:00:12.148,(51 55 -15 -13 -51 -66 -13 77)
1969/12/31/18:00:12.159,(1 79 102 61 32 1 -8 -34)
1969/12/31/18:00:12.159,(20 -79 -125 -37 42 24 13 -20)
1969/12/31/18:00:12.182,(-49 -82 -51 -15 65 63 -12 -13)
1969/12/31/18:00:12.182,(-18 34 32 22 -7 20 16 -20)
1969/12/31/18:00:12.185,(69 -36 -87 -26 -20 -14 27 99)
1969/12/31/18:00:12.185,(-46 55 100 41 2 -6 -13 -27)
1969/12/31/18:00:12.213,(24 78 19 17 49 31 6 -47)
1969/12/31/18:00:12.213,(-25 -114 -87 -53 13 12 -4 -95)
1969/12/31/18:00:12.213,(-80 35 82 38 -101 -65 -26 30)
1969/12/31/18:00:12.213,(-40 -42 -100 -34 -46 -49 -24 -90)
1969/12/31/18:00:12.233,(19 0 -14 -18 -28 -39 -39 -23)
1969/12/31/18:00:12.233,(-16 87 84 48 84 28 -10 12)
1969/12/31/18:00:12.281,(11 -55 -57 -52 -47 -22 -20 -27)
1969/12/31/18:00:12.281,(70 -33 -85 -41 27 45 77 67)
1969/12/31/18:00:12.282,(-44 65 84 54 10 20 2 11)
1969/12/31/18:00:12.282,(-1 -38 35 13 8 46 5 -12)
1969/12/31/18:00:12.284,(34 -8 -40 -21 -40 -38 26 77)
1969/12/31/18:00:12.284,(-35 -57 -10 -13 -43 -59 -23 5)
1969/12/31/18:00:12.299,(9 24 -5 11 50 37 19 -15)
1969/12/31/18:00:12.299,(-37 -48 -24 -13 -22 -21 -22 -33)
1969/12/31/18:00:12.301,(38 62 28 5 46 43 1 2)
1969/12/31/18:00:12.301,(43 -3 -54 -19 44 39 26 20)
1969/12/31/18:00:12.319,(9 -21 21 19 1 -23 -24 50)
1969/12/31/18:00:12.319,(-24 56 61 28 -42 0 27 33)
1969/12/31/18:00:12.331,(-17 -35 -13 -25 -19 11 -13 -35)
1969/12/31/18:00:12.331,(18 5 -9 -10 -36 -57 -13 18)
1969/12/31/18:00:12.352,(17 -84 -62 -12 66 61 0 3)
1969/12/31/18:00:12.352,(-12 51 26 0 -5 -21 6 -9)
1969/12/31/18:00:12.354,(-5 -12 -66 -42 -65 -37 -76 -40)
1969/12/31/18:00:12.354,(17 -48 -18 12 82 59 23 36)
1969/12/31/18:00:12.385,(-64 94 107 36 -76 -69 -43 -36)
1969/12/31/18:00:12.385,(68 20 -44 -16 -17 -8 7 14)
1969/12/31/18:00:12.385,(3 -20 1 10 58 16 -41 -81)
1969/12/31/18:00:12.385,(24 31 -9 -1 -6 37 60 49)
1969/12/31/18:00:12.418,(-47 -110 -64 -35 -8 -15 -12 -5)
1969/12/31/18:00:12.418,(-59 36 64 24 -23 -33 -39 -72)
1969/12/31/18:00:12.420,(-2 25 9 1 21 11 4 -45)
1969/12/31/18:00:12.420,(-49 -37 -1 23 87 53 -26 -63)
1969/12/31/18:00:12.438,(42 -40 -49 -23 -75 -58 45 27)
1969/12/31/18:00:12.438,(36 46 19 -10 -3 -5 -18 60)
1969/12/31/18:00:12.440,(25 7 2 9 51 -2 9 -51)
1969/12/31/18:00:12.440,(-14 -25 -14 -12 -2 1 -30 11)
1969/12/31/18:00:12.471,(24 70 47 28 65 65 33 -1)
1969/12/31/18:00:12.471,(-15 -57 -39 4 12 24 20 33)
1969/12/31/18:00:12.473,(-26 2 3 3 29 17 22 0)
1969/12/31/18:00:12.473,(-13 46 53 -11 -128 -112 -41 25)
1969/12/31/18:00:12.504,(-16 -35 -39 -5 66 44 18 -30)
1969/12/31/18:00:12.504,(39 5 -27 -26 -87 -50 -26 -30)
1969/12/31/18:00:12.506,(-11 -1 41 14 16 27 59 71)
1969/12/31/18:00:12.506,(9 28 8 5 -1 -6 -7 17)
1969/12/31/18:00:12.524,(-10 -38 -15 -7 25 18 -18 -8)
1969/12/31/18:00:12.524,(7 -32 -51 -7 32 26 21 7)
1969/12/31/18:00:12.526,(-77 13 45 17 -55 -36 3 4)
1969/12/31/18:00:12.526,(-48 2 29 9 0 -7 -30 -63)
1969/12/31/18:00:12.557,(101 -68 -96 -51 -11 -14 -14 19)
1969/12/31/18:00:12.557,(-82 24 50 3 -11 -25 -8 -33)
1969/12/31/18:00:12.559,(61 45 23 12 -21 -32 -15 41)
1969/12/31/18:00:12.559,(4 -5 10 8 28 24 39 25)
1969/12/31/18:00:12.577,(-21 -20 -26 -9 -34 3 -31 -45)
1969/12/31/18:00:12.577,(32 -13 -27 -15 21 10 2 -3)
1969/12/31/18:00:12.589,(-15 -30 -59 -21 31 26 19 38)
1969/12/31/18:00:12.589,(26 3 27 16 13 47 17 7)
1969/12/31/18:00:12.610,(-13 66 53 7 -28 -59 6 30)
1969/12/31/18:00:12.610,(17 -23 0 -3 -9 -15 -19 -17)
1969/12/31/18:00:12.612,(-28 13 31 22 64 58 2 -8)
1969/12/31/18:00:12.612,(45 -29 -57 -32 -37 -32 18 -24)
1969/12/31/18:00:12.655,(27 19 5 4 9 32 7 16)
1969/12/31/18:00:12.655,(-52 42 96 45 23 4 -2 22)
1969/12/31/18:00:12.656,(78 -37 -61 -16 6 15 14 41)
1969/12/31/18:00:12.656,(18 -40 -55 -36 -38 -41 -31 -27)
1969/12/31/18:00:12.676,(-31 53 97 35 -22 -38 -3 -37)
1969/12/31/18:00:12.676,(15 -31 -29 -10 38 39 -41 -33)
1969/12/31/18:00:12.678,(11 15 -25 -9 -26 -26 7 26)
1969/12/31/18:00:12.678,(-36 31 49 10 -23 -9 1 -32)
1969/12/31/18:00:12.696,(26 -10 -39 -19 -1 8 10 7)
1969/12/31/18:00:12.696,(-10 -4 -3 8 47 28 41 35)
1969/12/31/18:00:12.698,(21 -9 -4 11 31 38 -9 -8)
1969/12/31/18:00:12.698,(-21 -20 0 -16 -88 -64 -24 -2)
1969/12/31/18:00:12.729,(-24 0 8 9 33 11 14 23)
1969/12/31/18:00:12.729,(0 5 -26 -6 -7 15 -11 -20)
1969/12/31/18:00:12.731,(7 -34 -25 -11 15 4 23 43)
1969/12/31/18:00:12.731,(17 49 31 7 -27 -33 -14 -13)
1969/12/31/18:00:12.762,(25 -3 -24 -15 15 37 30 19)
1969/12/31/18:00:12.762,(-65 -42 2 -2 14 -12 -29 -53)
1969/12/31/18:00:12.764,(-4 9 16 6 -33 -30 -4 43)
1969/12/31/18:00:12.764,(11 8 -4 19 24 1 -4 -9)
1969/12/31/18:00:12.782,(-29 -23 -48 -51 -64 -41 3 7)
1969/12/31/18:00:12.782,(3 55 78 48 94 70 13 -14)
1969/12/31/18:00:12.784,(37 11 -29 -11 -48 -21 40 46)
1969/12/31/18:00:12.784,(-44 -19 11 4 37 -8 -50 -40)
1969/12/31/18:00:12.815,(-30 -17 -8 7 -34 -30 -59 -52)
1969/12/31/18:00:12.815,(15 -32 -45 -19 -28 -3 28 42)
1969/12/31/18:00:12.817,(25 24 21 13 49 46 17 7)
1969/12/31/18:00:12.817,(2 -21 -19 -31 -55 -55 -41 -42)
1969/12/31/18:00:12.850,(-34 -12 0 18 64 50 31 45)
1969/12/31/18:00:12.850,(17 -15 -37 -37 -63 -47 -10 -5)
1969/12/31/18:00:12.851,(-18 31 20 6 -8 -12 -17 -40)
1969/12/31/18:00:12.851,(3 17 37 17 29 30 17 -6)
1969/12/31/18:00:12.868,(13 28 24 26 107 73 -15 -3)
1969/12/31/18:00:12.868,(25 -13 -65 -30 -75 -60 12 -12)
1969/12/31/18:00:12.870,(-15 -35 14 -6 -40 -40 -26 -6)
1969/12/31/18:00:12.870,(-33 1 8 -5 16 41 13 5)
1969/12/31/18:00:12.901,(40 70 15 23 59 21 21 12)
1969/12/31/18:00:12.901,(23 11 40 39 45 31 -2 -18)
1969/12/31/18:00:12.903,(2 -5 -24 -25 -23 -2 -40 -47)
1969/12/31/18:00:12.903,(-8 -16 -20 -32 -69 -45 70 37)
1969/12/31/18:00:12.934,(-30 -37 -9 -1 28 32 -57 -73)
1969/12/31/18:00:12.934,(3 -6 -14 0 -12 6 -6 27)
1969/12/31/18:00:12.936,(-15 -7 1 -7 -38 -33 6 -15)
1969/12/31/18:00:12.936,(27 66 17 21 37 30 16 26)
1969/12/31/18:00:12.954,(-22 -39 -16 -12 -23 -34 -15 -4)
1969/12/31/18:00:12.954,(-1 4 21 7 10 4 9 29)
1969/12/31/18:00:12.956,(-12 -14 4 2 -10 -10 -2 23)
1969/12/31/18:00:12.956,(-40 -22 -30 -11 -1 7 -19 -46)
1969/12/31/18:00:12.987,(37 9 -7 -1 -23 -6 43 76)
1969/12/31/18:00:12.987,(29 -10 -5 3 23 -9 -23 -5)
1969/12/31/18:00:12.987,(28 -10 -9 -2 34 35 -15 -8)
1969/12/31/18:00:12.987,(-52 18 33 5 -42 -34 18 8)
1969/12/31/18:00:13.020,(5 32 21 6 -29 -6 -1 15)
1969/12/31/18:00:13.020,(2 -21 -10 1 44 30 26 28)
1969/12/31/18:00:13.022,(-10 -2 -5 -13 -39 -31 -16 -50)
1969/12/31/18:00:13.022,(30 -17 -17 -2 34 28 10 42)
1969/12/31/18:00:13.053,(-54 -22 4 4 -3 -9 -6 -24)
1969/12/31/18:00:13.053,(30 7 -10 -7 -4 16 29 35)
1969/12/31/18:00:13.053,(6 19 -10 -16 -15 -17 -21 -25)
1969/12/31/18:00:13.053,(15 -15 2 5 25 11 -3 29)
1969/12/31/18:00:13.073,(8 -5 17 11 21 34 2 2)
1969/12/31/18:00:13.073,(-2 7 -8 6 7 -7 13 14)
1969/12/31/18:00:13.073,(-36 -11 1 -12 -37 -44 -52 -19)
1969/12/31/18:00:13.073,(9 9 -10 -10 -11 6 34 8)
1969/12/31/18:00:13.106,(18 0 0 -2 0 4 -8 13)
1969/12/31/18:00:13.106,(10 7 1 -13 -25 -16 13 5)
1969/12/31/18:00:13.108,(14 11 7 0 43 16 8 15)
1969/12/31/18:00:13.108,(6 2 4 28 50 9 -3 44)
1969/12/31/18:00:13.126,(23 -10 -1 24 -13 -41 24 -4)
1969/12/31/18:00:13.126,(-93 -26 -17 -46 -60 13 -22 -89)
1969/12/31/18:00:13.128,(-39 -15 -2 29 42 -5 -33 -16)
1969/12/31/18:00:13.128,(2 12 6 15 25 20 2 0)
1969/12/31/18:00:13.159,(-55 -39 -19 -26 -39 -50 -34 -25)
1969/12/31/18:00:13.159,(30 -12 -17 -12 -12 64 54 61)
1969/12/31/18:00:13.169,(-66 -30 -7 -26 -25 -23 -21 -64)
1969/12/31/18:00:13.169,(98 45 8 -3 9 5 9 83)
1969/12/31/18:00:13.192,(8 18 3 4 6 -5 -10 -5)
1969/12/31/18:00:13.192,(-52 -16 -5 -12 -18 -27 -22 -37)
1969/12/31/18:00:13.194,(38 18 15 3 -26 21 22 22)
1969/12/31/18:00:13.194,(26 5 13 16 -9 2 15 62)
1969/12/31/18:00:13.212,(-54 -21 -14 -7 55 12 -3 -20)
1969/12/31/18:00:13.212,(65 21 -3 5 1 -3 -19 6)
1969/12/31/18:00:13.214,(-74 -32 2 15 19 -34 27 -7)
1969/12/31/18:00:13.214,(-61 -17 -21 -3 79 95 -36 -114)
1969/12/31/18:00:13.245,(103 26 18 -11 -114 -36 22 74)
1969/12/31/18:00:13.245,(46 27 25 32 88 -15 -11 14)
1969/12/31/18:00:13.245,(-61 -39 -24 -12 -1 -4 -26 -28)
1969/12/31/18:00:13.247,(1 -31 -14 -18 -43 -6 20 17)
1969/12/31/18:00:13.278,(-8 -1 -9 -19 -45 -24 -32 -73)
1969/12/31/18:00:13.278,(54 23 24 19 -2 2 17 65)
1969/12/31/18:00:13.280,(-16 15 3 5 -10 11 12 -6)
1969/12/31/18:00:13.280,(-10 -25 -11 -7 -3 -25 -2 1)
1969/12/31/18:00:13.298,(92 41 2 2 18 27 14 60)
1969/12/31/18:00:13.298,(-47 -27 4 4 -25 -43 -29 -44)
1969/12/31/18:00:13.300,(55 26 5 0 26 29 22 28)
1969/12/31/18:00:13.300,(-128 -52 -17 -12 -31 -24 -48 -92)
1969/12/31/18:00:13.331,(82 78 24 23 34 17 40 75)
1969/12/31/18:00:13.331,(-52 -46 -13 -9 -17 -4 -6 -16)
1969/12/31/18:00:13.331,(29 13 0 1 -3 13 20 15)
1969/12/31/18:00:13.331,(3 9 6 -1 2 -5 3 18)
1969/12/31/18:00:13.364,(9 -2 -6 -6 -10 -2 1 -20)
1969/12/31/18:00:13.364,(-109 -33 -15 -10 -13 -26 -26 -38)
1969/12/31/18:00:13.366,(40 20 6 8 8 20 18 28)
1969/12/31/18:00:13.366,(68 24 0 0 -6 -14 6 76)
1969/12/31/18:00:13.384,(-25 7 41 20 25 17 13 1)
1969/12/31/18:00:13.384,(0 9 -4 -7 -21 -9 -5 -8)
1969/12/31/18:00:13.386,(37 7 8 5 8 2 1 24)
1969/12/31/18:00:13.386,(-5 0 -13 -5 -3 3 -3 -41)
1969/12/31/18:00:13.417,(-24 -22 -8 -1 -4 0 1 -2)
1969/12/31/18:00:13.417,(5 9 -3 -3 -1 -4 -5 -12)
1969/12/31/18:00:13.419,(24 7 2 1 -2 0 -2 -4)
1969/12/31/18:00:13.419,(8 11 5 3 1 -3 -2 3)
1969/12/31/18:00:13.450,(-68 -41 -24 -17 -6 -7 -26 -102)
1969/12/31/18:00:13.450,(28 12 9 7 -2 -5 18 74)
1969/12/31/18:00:13.451,(-12 -2 -8 -3 4 7 4 8)
1969/12/31/18:00:13.451,(-7 -7 -2 -3 -6 -5 -9 -17)
1969/12/31/18:00:13.470,(-4 -8 -1 -1 3 -1 1 11)
1969/12/31/18:00:13.470,(3 5 -4 -3 -5 -3 -4 -21)
1969/12/31/18:00:13.472,(-1 -7 -8 -11 -11 -1 -4 -12)
1969/12/31/18:00:13.472,(20 8 7 6 0 -5 -10 4)
1969/12/31/18:00:13.503,(-9 -5 -5 -2 0 3 14 27)
1969/12/31/18:00:13.503,(18 -6 -8 -8 -4 -6 -5 25)
1969/12/31/18:00:13.505,(1 -6 -1 -1 -2 -2 -8 -6)
1969/12/31/18:00:13.505,(15 25 22 11 7 2 14 17)
1969/12/31/18:00:13.536,(-37 -12 -4 -4 -1 -2 0 -8)
1969/12/31/18:00:13.536,(16 3 -12 -4 -4 -3 -23 -12)
1969/12/31/18:00:13.537,(6 -1 3 -1 0 -3 -1 -19)
1969/12/31/18:00:13.537,(-17 -34 -22 -13 -5 -2 -3 -8)
1969/12/31/18:00:13.555,(-3 -1 6 1 -1 -1 3 5)
1969/12/31/18:00:13.555,(17 22 8 6 6 8 9 8)
1969/12/31/18:00:13.568,(3 0 7 8 3 8 17 18)
1969/12/31/18:00:13.568,(5 -6 -14 -11 -10 -12 -9 -8)
1969/12/31/18:00:13.589,(-9 -14 -21 -6 -2 3 4 -1)
1969/12/31/18:00:13.589,(1 -11 13 4 0 -4 -7 -4)
1969/12/31/18:00:13.590,(1 10 -6 1 3 5 11 4)
1969/12/31/18:00:13.590,(10 32 33 10 2 2 -8 -3)
1969/12/31/18:00:13.622,(3 -52 -46 -17 -8 -7 -9 5)
1969/12/31/18:00:13.622,(-4 71 51 19 9 10 16 6)
1969/12/31/18:00:13.623,(-7 -27 -10 -3 -1 0 -5 -4)
1969/12/31/18:00:13.623,(2 -11 -23 -12 -3 1 16 7)
1969/12/31/18:00:13.654,(-12 1 11 -2 -5 -6 -27 -7)
1969/12/31/18:00:13.654,(6 -39 -28 -7 -3 -5 -3 -2)
1969/12/31/18:00:13.655,(2 10 0 0 3 4 4 8)
1969/12/31/18:00:13.655,(0 26 16 3 -1 -8 -19 -6)
1969/12/31/18:00:13.675,(-11 -22 -22 -7 -1 5 17 -3)
1969/12/31/18:00:13.675,(-1 7 -4 -6 -3 -5 2 0)
1969/12/31/18:00:13.675,(2 3 -6 0 1 0 0 4)
1969/12/31/18:00:13.675,(-8 -56 -41 -1 2 4 8 6)
1969/12/31/18:00:13.708,(8 67 70 17 3 -2 -22 -15)
1969/12/31/18:00:13.708,(-9 -17 5 8 3 7 -3 -5)
1969/12/31/18:00:13.709,(-3 -31 -23 -13 -8 -6 -10 -6)
1969/12/31/18:00:13.709,(4 27 6 -3 -2 -8 8 6)
1969/12/31/18:00:13.728,(-4 -9 -11 -4 0 -6 0 3)
1969/12/31/18:00:13.728,(-4 -20 -17 -6 -2 1 2 -3)
1969/12/31/18:00:13.740,(6 -2 -4 -4 -3 5 2 7)
1969/12/31/18:00:13.740,(-1 11 8 -2 -1 7 -9 -3)
1969/12/31/18:00:13.761,(-2 16 33 22 5 1 -4 -7)
1969/12/31/18:00:13.761,(2 3 -23 -21 -8 -2 -4 -6)
1969/12/31/18:00:13.761,(-7 -42 -16 -7 -5 5 -17 -13)
1969/12/31/18:00:13.761,(-4 13 38 5 -3 5 -7 -13)
1969/12/31/18:00:13.794,(16 14 -34 0 -2 -2 2 7)
1969/12/31/18:00:13.794,(0 0 -2 13 9 -3 13 16)
1969/12/31/18:00:13.795,(5 33 28 9 8 -11 15 7)
1969/12/31/18:00:13.795,(-13 -10 -25 -14 -1 -14 -8 -3)
1969/12/31/18:00:13.813,(-13 -43 -54 -37 -7 -15 9 6)
1969/12/31/18:00:13.813,(-6 11 -1 -10 0 -7 19 10)
1969/12/31/18:00:13.825,(-4 9 -24 -18 -5 -12 -3 2)
1969/12/31/18:00:13.825,(7 -7 -15 -1 -1 -1 2 8)
1969/12/31/18:00:13.847,(-2 3 32 9 2 8 7 1)
1969/12/31/18:00:13.847,(-5 -30 -21 -8 -10 -6 -25 -20)
1969/12/31/18:00:13.848,(7 48 56 17 3 7 -3 -6)
1969/12/31/18:00:13.848,(-9 -25 -17 -10 -9 -4 -19 -15)
1969/12/31/18:00:13.880,(19 22 5 17 6 6 12 11)
1969/12/31/18:00:13.880,(-13 -8 9 6 -1 0 -12 -8)
1969/12/31/18:00:13.881,(-11 -31 -15 -12 -4 0 -3 -7)
1969/12/31/18:00:13.881,(-4 2 2 2 3 4 9 3)
1969/12/31/18:00:13.900,(4 12 16 5 3 3 -3 2)
1969/12/31/18:00:13.900,(10 15 6 -3 -3 -5 -4 1)
1969/12/31/18:00:13.911,(-2 4 5 1 -1 1 5 7)
1969/12/31/18:00:13.911,(-5 4 12 2 -2 -1 1 -4)
1969/12/31/18:00:13.933,(-6 -16 2 6 4 5 -5 -6)
1969/12/31/18:00:13.933,(3 -12 -6 -3 -3 1 -1 -2)
1969/12/31/18:00:13.933,(-6 0 -4 0 -3 0 -6 -5)
1969/12/31/18:00:13.933,(3 -7 6 5 -3 1 5 -3)
1969/12/31/18:00:13.966,(0 7 0 0 -4 0 -10 -6)
1969/12/31/18:00:13.966,(-1 1 9 0 -3 2 -1 -4)
1969/12/31/18:00:13.967,(-4 5 14 12 -1 -2 -13 -13)
1969/12/31/18:00:13.967,(5 -5 6 2 0 6 0 1)
1969/12/31/18:00:13.999,(-4 -8 -1 -3 -2 1 -4 -5)
1969/12/31/18:00:13.999,(5 21 9 2 0 -1 -2 -2)
1969/12/31/18:00:14.000,(3 -10 -6 1 1 -3 -1 -2)
1969/12/31/18:00:14.000,(1 -19 -4 -3 -2 -3 0 2)
1969/12/31/18:00:14.018,(-6 -5 -7 -3 1 0 6 4)
1969/12/31/18:00:14.018,(9 8 -4 5 5 1 9 9)
1969/12/31/18:00:14.030,(-4 2 -11 1 4 -5 8 7)
1969/12/31/18:00:14.030,(8 2 -15 -7 5 -8 8 9)
1969/12/31/18:00:14.052,(-13 -26 -31 -21 -3 -14 6 6)
1969/12/31/18:00:14.052,(-26 0 -9 -7 4 -10 6 0)
1969/12/31/18:00:14.053,(-6 -10 -19 -11 0 -1 7 6)
1969/12/31/18:00:14.053,(7 9 4 1 -1 1 -4 2)
1969/12/31/18:00:14.085,(10 7 14 4 -5 4 -8 -3)
1969/12/31/18:00:14.085,(11 0 8 3 -1 9 -2 -3)
1969/12/31/18:00:14.086,(-9 0 3 -1 -4 -2 -9 -11)
1969/12/31/18:00:14.086,(-3 2 -4 1 -2 -1 5 2)
1969/12/31/18:00:14.103,(-5 -1 -9 -6 3 -7 5 5)
1969/12/31/18:00:14.103,(-1 -4 -6 -5 -2 -6 0 1)
1969/12/31/18:00:14.116,(5 8 2 -3 -1 2 2 3)
1969/12/31/18:00:14.116,(1 -2 10 10 1 2 -7 -6)
1969/12/31/18:00:14.138,(-6 -16 -6 -6 -8 3 -11 -11)
1969/12/31/18:00:14.138,(4 5 8 4 -6 1 -14 -10)
1969/12/31/18:00:14.141,(5 -5 9 6 -3 3 -11 -8)
1969/12/31/18:00:14.141,(2 5 1 6 -2 5 -4 -7)
1969/12/31/18:00:14.171,(-2 15 11 4 -4 3 -8 -6)
1969/12/31/18:00:14.171,(-4 -11 0 -5 -8 -3 -4 -1)
1969/12/31/18:00:14.172,(7 28 9 10 3 1 -4 -3)
1969/12/31/18:00:14.172,(-3 0 -1 0 -1 3 2 -1)
1969/12/31/18:00:14.189,(-1 -2 0 0 3 1 1 -1)
1969/12/31/18:00:14.189,(3 3 1 -2 0 0 3 1)
1969/12/31/18:00:14.202,(0 -12 0 -2 0 -2 1 2)
1969/12/31/18:00:14.202,(-5 0 -1 -1 1 -6 0 -1)
1969/12/31/18:00:14.224,(0 4 3 7 3 -2 4 2)
1969/12/31/18:00:14.224,(2 -4 0 5 6 -1 4 2)
1969/12/31/18:00:14.225,(-5 -8 -8 -9 1 -3 -1 1)
1969/12/31/18:00:14.225,(-3 -3 -8 -5 3 -3 3 0)
1969/12/31/18:00:14.267,(3 5 12 13 8 1 3 5)
1969/12/31/18:00:14.267,(0 3 2 2 3 -1 1 1)
1969/12/31/18:00:14.270,(-2 -7 -9 -8 0 -2 0 -1)
1969/12/31/18:00:14.270,(-4 1 -3 -3 1 -2 -1 -1)
1969/12/31/18:00:14.275,(-3 -5 -9 -8 -5 -2 -3 -2)
1969/12/31/18:00:14.275,(1 -1 0 -1 -1 -1 -4 -1)
1969/12/31/18:00:14.288,(3 2 1 4 1 0 0 1)
1969/12/31/18:00:14.288,(-3 -8 -1 -7 -4 -5 -2 -6)
1969/12/31/18:00:14.320,(-5 -9 -15 -9 -5 -2 -1 -3)
1969/12/31/18:00:14.320,(2 2 6 4 -2 1 0 -2)
1969/12/31/18:00:14.323,(-1 -5 -1 -2 -4 -1 -4 -1)
1969/12/31/18:00:14.323,(-1 3 7 6 1 2 0 1)
1969/12/31/18:00:14.323,(1 -5 22 17 2 1 -6 -6)
1969/12/31/18:00:14.323,(-3 -24 -13 -10 -6 4 -5 -3)
1969/12/31/18:00:14.334,(-10 -26 -28 -9 -4 0 -4 -5)
1969/12/31/18:00:14.334,(1 -13 -21 -4 -4 -4 -4 -6)
1969/12/31/18:00:14.344,(7 68 80 28 10 2 0 -2)
1969/12/31/18:00:14.344,(2 1 -6 -3 -1 1 3 2)
1969/12/31/18:00:14.346,(-4 -15 -9 -4 -3 -4 3 3)
1969/12/31/18:00:14.346,(-7 -14 -1 6 2 -1 7 2)
1969/12/31/18:00:14.377,(-10 -25 -30 -18 -9 -7 16 22)
1969/12/31/18:00:14.377,(3 20 -2 -6 0 -4 -4 -12)
1969/12/31/18:00:14.379,(4 11 5 1 0 -4 -2 -3)
1969/12/31/18:00:14.379,(5 8 3 2 4 1 -7 -7)
1969/12/31/18:00:14.410,(-7 -18 -7 -6 -5 -3 -1 -3)
1969/12/31/18:00:14.410,(0 2 6 1 0 0 5 9)
1969/12/31/18:00:14.412,(4 0 -6 0 3 0 -9 -4)
1969/12/31/18:00:14.412,(-3 5 5 1 -3 -2 -1 -4)
1969/12/31/18:00:14.442,(0 -3 -3 -2 0 3 -1 1)
1969/12/31/18:00:14.442,(14 10 6 6 6 2 -13 -21)
1969/12/31/18:00:14.443,(8 -11 -12 -10 -3 -2 6 23)
1969/12/31/18:00:14.443,(-12 3 10 4 1 6 8 4)
1969/12/31/18:00:14.463,(12 8 1 1 -1 -3 -7 11)
1969/12/31/18:00:14.463,(10 5 -2 -1 -1 0 8 3)
1969/12/31/18:00:14.465,(-47 -14 -6 -4 -1 -5 3 -11)
1969/12/31/18:00:14.465,(-2 -8 -2 -3 -1 -8 1 4)
1969/12/31/18:00:14.496,(9 7 -13 -5 2 -6 8 -2)
1969/12/31/18:00:14.496,(14 13 -11 -7 1 -5 17 31)
1969/12/31/18:00:14.498,(-26 -27 -13 -10 -3 6 -6 1)
1969/12/31/18:00:14.498,(-48 -12 14 4 -4 -10 -25 -20)
1969/12/31/18:00:14.518,(16 -1 16 9 -3 27 5 9)
1969/12/31/18:00:14.518,(-39 -10 17 4 -10 2 -39 -46)
1969/12/31/18:00:14.519,(11 -1 10 5 -3 20 -17 -29)
1969/12/31/18:00:14.519,(17 8 8 1 -15 -20 16 13)
1969/12/31/18:00:14.549,(-3 -3 0 2 -1 -27 -26 -42)
1969/12/31/18:00:14.549,(3 5 6 5 8 24 -10 15)
1969/12/31/18:00:14.552,(31 11 -1 -2 -4 -27 8 23)
1969/12/31/18:00:14.552,(-13 -10 0 1 4 -4 -8 -26)
1969/12/31/18:00:14.594,(7 12 -4 -2 3 4 5 11)
1969/12/31/18:00:14.594,(-17 -9 -16 -11 -9 -12 7 -33)
1969/12/31/18:00:14.602,(-4 -10 -6 -2 3 -5 2 28)
1969/12/31/18:00:14.602,(47 34 3 2 4 8 10 19)
1969/12/31/18:00:14.604,(-12 -15 -6 -4 -3 0 -8 -29)
1969/12/31/18:00:14.604,(-13 -13 -6 -3 5 28 -4 6)
1969/12/31/18:00:14.614,(-19 -3 -2 2 -4 -5 30 18)
1969/12/31/18:00:14.614,(-32 -10 -3 -1 2 23 8 6)
1969/12/31/18:00:14.635,(17 18 -1 1 3 14 -3 -18)
1969/12/31/18:00:14.637,(-46 -26 -9 -5 -4 -36 -3 38)
1969/12/31/18:00:14.638,(-6 7 3 1 2 -2 -7 -36)
1969/12/31/18:00:14.638,(9 2 5 8 10 11 -8 -17)
1969/12/31/18:00:14.668,(8 3 -6 -3 -1 0 -4 -21)
1969/12/31/18:00:14.668,(2 15 13 11 -2 -26 -19 -3)
1969/12/31/18:00:14.670,(-1 6 -3 -1 -4 9 -11 -26)
1969/12/31/18:00:14.670,(29 19 6 2 1 8 8 6)
1969/12/31/18:00:14.687,(-36 -28 0 -1 5 8 -29 2)
1969/12/31/18:00:14.687,(4 -10 -8 -9 -7 -25 14 4)
1969/12/31/18:00:14.701,(-35 8 5 3 11 53 -5 -65)
1969/12/31/18:00:14.701,(52 14 -5 -7 -24 -96 -21 32)
1969/12/31/18:00:14.720,(-30 -29 -7 -2 -9 -49 15 19)
1969/12/31/18:00:14.720,(12 0 3 3 12 38 17 -31)
1969/12/31/18:00:14.733,(17 5 3 -1 -1 -3 -21 17)
1969/12/31/18:00:14.733,(-19 -10 -4 -5 -3 22 2 -33)
1969/12/31/18:00:14.754,(18 23 2 0 2 14 39 44)
1969/12/31/18:00:14.754,(1 -2 2 2 2 -30 27 31)
1969/12/31/18:00:14.757,(24 0 -3 0 0 -4 -46 21)
1969/12/31/18:00:14.757,(-8 0 -1 -2 0 23 -4 2)
1969/12/31/18:00:14.774,(-79 -42 -17 -10 -10 -26 -44 -92)
1969/12/31/18:00:14.774,(5 5 -1 -8 -20 -47 36 8)
1969/12/31/18:00:14.787,(-7 -18 -16 -5 -4 4 17 -23)
1969/12/31/18:00:14.787,(14 18 8 6 4 6 -4 18)
1969/12/31/18:00:14.807,(-55 -32 -12 -7 -1 33 11 -9)
1969/12/31/18:00:14.809,(54 36 4 -2 -2 -43 -26 23)
1969/12/31/18:00:14.810,(27 14 15 14 22 51 66 70)
1969/12/31/18:00:14.810,(-19 -35 -2 5 7 4 -17 -75)
1969/12/31/18:00:14.840,(33 26 1 -5 -13 -67 18 23)
1969/12/31/18:00:14.840,(6 10 7 3 -1 11 -45 -85)
1969/12/31/18:00:14.843,(19 9 -1 -5 -5 -31 -8 18)
1969/12/31/18:00:14.843,(-5 4 4 6 10 46 14 26)
1969/12/31/18:00:14.860,(26 11 9 12 8 -7 -51 1)
1969/12/31/18:00:14.860,(-10 1 -5 -2 1 35 18 10)
1969/12/31/18:00:14.883,(8 -5 -3 -6 -12 -38 -11 -19)
1969/12/31/18:00:14.883,(0 0 -2 0 11 16 -13 38)
1969/12/31/18:00:14.905,(-9 4 0 -3 -1 8 13 -32)
1969/12/31/18:00:14.905,(15 -10 -5 -2 -3 -7 -31 9)
1969/12/31/18:00:14.907,(-1 -1 3 4 5 4 29 -6)
1969/12/31/18:00:14.907,(4 -2 -4 -6 11 94 19 52)
1969/12/31/18:00:14.926,(7 5 4 1 1 -42 -16 4)
1969/12/31/18:00:14.926,(-7 -13 -9 -4 1 23 46 24)
1969/12/31/18:00:14.927,(4 15 7 3 12 47 24 3)
1969/12/31/18:00:14.927,(-10 -12 -6 -8 -7 -1 49 2)
1969/12/31/18:00:14.959,(12 5 -2 -1 -8 18 18 23)
1969/12/31/18:00:14.959,(-17 -8 -3 -20 -44 -31 -56 -22)
1969/12/31/18:00:14.962,(-3 -4 3 16 33 -27 11 -4)
1969/12/31/18:00:14.962,(-10 -10 -13 -3 1 -63 -20 -7)
1969/12/31/18:00:14.979,(10 5 1 1 10 98 78 40)
1969/12/31/18:00:14.979,(-1 -26 -9 9 37 50 57 87)
1969/12/31/18:00:14.982,(-2 3 -7 -14 -27 -30 -15 -29)
1969/12/31/18:00:14.982,(-28 -5 -6 -10 -14 -45 -68 -69)
1969/12/31/18:00:15.012,(1 -13 -12 -8 -6 13 -54 -23)
1969/12/31/18:00:15.012,(26 8 7 4 7 8 24 34)
1969/12/31/18:00:15.013,(22 30 9 3 1 -2 -8 31)
1969/12/31/18:00:15.013,(-16 -3 1 -1 -45 -81 -10 -29)
1969/12/31/18:00:15.032,(7 -16 -2 3 39 85 17 18)
1969/12/31/18:00:15.032,(5 11 2 -4 -60 -112 -75 -9)
1969/12/31/18:00:15.055,(-13 -22 -5 -9 -8 3 -45 -51)
1969/12/31/18:00:15.055,(7 14 -3 1 40 37 19 -42)
1969/12/31/18:00:15.066,(25 11 3 -8 -52 -91 -25 29)
1969/12/31/18:00:15.066,(18 7 5 8 25 54 -18 -28)
1969/12/31/18:00:15.068,(-1 1 0 3 -9 -25 11 9)
1969/12/31/18:00:15.068,(3 1 2 -1 1 32 1 33)
1969/12/31/18:00:15.098,(-3 -4 -4 -3 10 3 4 -17)
1969/12/31/18:00:15.098,(-14 0 -1 6 21 2 -47 -63)
1969/12/31/18:00:15.099,(23 3 -2 -2 -37 -40 -8 68)
1969/12/31/18:00:15.099,(6 -19 -5 -1 16 21 21 1)
1969/12/31/18:00:15.118,(9 19 -7 5 13 19 29 17)
1969/12/31/18:00:15.118,(-16 -11 6 -6 -21 -40 -10 -21)
1969/12/31/18:00:15.142,(-10 -2 20 8 8 18 -9 8)
1969/12/31/18:00:15.142,(25 3 -11 -7 -10 -8 8 22)
1969/12/31/18:00:15.152,(-12 16 28 9 -13 -28 3 36)
1969/12/31/18:00:15.152,(-27 -21 -2 -1 17 38 37 24)
1969/12/31/18:00:15.154,(2 -21 -54 -23 5 7 4 -4)
1969/12/31/18:00:15.154,(-25 -31 38 25 42 30 13 3)
1969/12/31/18:00:15.183,(-15 11 -13 7 13 14 -10 -65)
1969/12/31/18:00:15.183,(15 7 -47 -6 34 11 17 17)
1969/12/31/18:00:15.194,(-70 -15 90 14 -73 -25 -16 -7)
1969/12/31/18:00:15.194,(0 -5 -18 -12 -39 -36 6 13)
1969/12/31/18:00:15.204,(54 20 -24 -8 40 26 3 18)
1969/12/31/18:00:15.204,(-44 -39 -16 -23 -59 -28 -16 -91)
1969/12/31/18:00:15.225,(10 -16 -62 -8 35 10 13 3)
1969/12/31/18:00:15.225,(16 58 48 18 -2 -7 -13 -2)
1969/12/31/18:00:15.237,(-14 -24 2 10 3 -16 -41 -39)
1969/12/31/18:00:15.237,(10 14 -75 -49 -16 -13 17 30)
1969/12/31/18:00:15.240,(-30 5 90 42 18 2 7 -1)
1969/12/31/18:00:15.240,(-24 -13 -5 -1 -9 15 15 6)
1969/12/31/18:00:15.270,(-35 18 -3 -11 -8 -18 -10 -58)
1969/12/31/18:00:15.270,(40 -29 -39 -2 34 35 9 23)
1969/12/31/18:00:15.279,(-11 -27 -1 -9 -38 -14 7 -1)
1969/12/31/18:00:15.279,(-2 15 17 7 11 -8 7 77)
1969/12/31/18:00:15.290,(59 61 12 9 -6 -14 -15 -1)
1969/12/31/18:00:15.290,(13 11 19 13 43 46 -2 -61)
1969/12/31/18:00:15.301,(21 37 41 7 -34 3 49 79)
1969/12/31/18:00:15.301,(-33 -65 -79 -20 40 -4 -43 -61)
1969/12/31/18:00:15.324,(-6 -24 -5 -21 -15 28 7 -8)
1969/12/31/18:00:15.324,(-57 45 44 11 -51 -53 14 3)
1969/12/31/18:00:15.326,(68 15 -64 -33 -24 -19 -26 16)
1969/12/31/18:00:15.326,(-5 48 86 28 -1 5 9 -29)
1969/12/31/18:00:15.356,(-16 -41 -21 2 13 0 25 102)
1969/12/31/18:00:15.356,(-1 -24 11 11 33 39 0 -52)
1969/12/31/18:00:15.359,(-31 -14 -12 -1 27 12 -3 -26)
1969/12/31/18:00:15.359,(33 11 -22 -10 -31 -26 19 52)
1969/12/31/18:00:15.376,(-13 -5 -26 -13 5 -1 -23 -39)
1969/12/31/18:00:15.376,(55 -1 8 11 4 9 12 85)
1969/12/31/18:00:15.387,(-53 -26 -3 -8 -3 -21 -21 -85)
1969/12/31/18:00:15.387,(3 -5 -25 -9 -9 -10 2 24)
1969/12/31/18:00:15.409,(47 65 56 22 9 2 18 56)
1969/12/31/18:00:15.409,(-41 -14 3 9 14 46 44 0)
1969/12/31/18:00:15.412,(14 7 -44 -10 26 -3 -30 -36)
1969/12/31/18:00:15.412,(29 11 -9 0 16 59 21 -6)
1969/12/31/18:00:15.442,(-26 -108 -53 -34 -31 -78 -10 6)
1969/12/31/18:00:15.442,(-30 71 48 -9 -91 -64 -17 -30)
1969/12/31/18:00:15.443,(1 47 54 18 9 15 4 -1)
1969/12/31/18:00:15.443,(11 36 0 1 9 -1 -32 -48)
1969/12/31/18:00:15.462,(45 44 -17 0 6 20 11 11)
1969/12/31/18:00:15.462,(-57 -90 -16 12 52 27 -14 -30)
1969/12/31/18:00:15.498,(-8 -23 -16 -2 18 12 -5 8)
1969/12/31/18:00:15.498,(-3 -32 -23 -4 8 28 40 61)
1969/12/31/18:00:15.499,(-10 10 -6 -7 -1 -17 -18 -58)
1969/12/31/18:00:15.499,(-47 55 99 26 -50 -50 -44 -34)
1969/12/31/18:00:15.505,(23 28 -19 -16 6 7 -15 -32)
1969/12/31/18:00:15.505,(26 -31 -32 -12 -29 -41 -3 34)
1969/12/31/18:00:15.528,(-15 -40 9 25 69 65 33 8)
1969/12/31/18:00:15.528,(55 -12 -59 -28 -22 -21 10 69)
1969/12/31/18:00:15.529,(-47 82 87 36 -5 -1 -32 -19)
1969/12/31/18:00:15.529,(4 -40 -49 -28 -31 -37 -25 -73)
1969/12/31/18:00:15.581,(2 -22 -4 -4 -1 19 -1 33)
1969/12/31/18:00:15.581,(19 -18 -34 1 43 25 17 17)
1969/12/31/18:00:15.595,(-8 -8 1 -4 -1 -25 -20 -49)
1969/12/31/18:00:15.595,(-8 22 30 6 -12 -9 5 0)
1969/12/31/18:00:15.597,(-47 23 43 13 -50 -31 -1 -17)
1969/12/31/18:00:15.597,(42 -11 -40 -9 22 19 -9 23)
1969/12/31/18:00:15.601,(-12 -74 -75 -29 6 12 30 5)
1969/12/31/18:00:15.601,(-39 -49 -3 8 65 28 -14 -28)
1969/12/31/18:00:15.615,(12 48 72 21 -65 -26 50 67)
1969/12/31/18:00:15.615,(29 30 25 7 19 20 9 20)
1969/12/31/18:00:15.617,(29 -19 -32 -8 -15 5 22 62)
1969/12/31/18:00:15.617,(0 3 -20 -10 -1 -11 -21 -14)
1969/12/31/18:00:15.645,(20 -25 -27 -17 -12 -4 13 40)
1969/12/31/18:00:15.645,(36 1 -50 -15 6 -1 9 1)
1969/12/31/18:00:15.648,(-38 37 86 27 -8 -14 -10 -22)
1969/12/31/18:00:15.648,(35 -3 -24 11 61 54 11 70)
1969/12/31/18:00:15.667,(-46 -58 -39 -24 -51 -17 -21 -77)
1969/12/31/18:00:15.667,(2 71 68 24 9 -18 -20 -26)
1969/12/31/18:00:15.677,(58 -30 -68 -16 51 17 45 30)
1969/12/31/18:00:15.677,(-55 54 76 -2 -110 -86 -66 -26)
1969/12/31/18:00:15.700,(-24 -8 24 -2 8 -30 -50 -39)
1969/12/31/18:00:15.700,(-4 -102 -94 -33 15 30 15 -1)
1969/12/31/18:00:15.703,(14 -31 -36 -11 -19 -14 -15 -12)
1969/12/31/18:00:15.703,(13 10 -36 -15 27 62 10 -38)
1969/12/31/18:00:15.731,(-13 28 43 2 -22 -65 -27 -3)
1969/12/31/18:00:15.731,(-17 15 38 25 43 71 30 20)
1969/12/31/18:00:15.734,(72 -6 -51 -18 -13 -18 20 37)
1969/12/31/18:00:15.734,(-57 -39 -12 -11 -68 -74 -58 -76)
1969/12/31/18:00:15.753,(6 52 29 10 12 29 9 43)
1969/12/31/18:00:15.753,(25 -13 -29 -16 0 1 3 9)
1969/12/31/18:00:15.763,(-74 -27 19 12 31 29 -29 -62)
1969/12/31/18:00:15.763,(54 -30 -55 10 78 59 48 42)
1969/12/31/18:00:15.787,(-16 31 57 7 -61 -29 -17 -19)
1969/12/31/18:00:15.787,(-30 22 9 -22 -27 -24 9 -7)
1969/12/31/18:00:15.790,(60 -35 -68 -24 4 29 30 39)
1969/12/31/18:00:15.790,(-64 38 116 30 -28 -77 -59 -3)
1969/12/31/18:00:15.817,(19 -31 -52 6 57 48 -8 -21)
1969/12/31/18:00:15.817,(4 -48 -25 -6 -15 -30 1 -27)
1969/12/31/18:00:15.820,(-20 17 33 18 -10 22 13 22)
1969/12/31/18:00:15.820,(-7 29 26 7 5 6 -11 -17)
1969/12/31/18:00:15.839,(55 47 -13 -1 5 9 24 32)
1969/12/31/18:00:15.839,(-48 -30 -15 -18 -15 18 5 8)
1969/12/31/18:00:15.849,(-2 34 49 21 32 -16 -21 -27)
1969/12/31/18:00:15.849,(-14 -2 -16 -14 -42 -17 -20 -19)
1969/12/31/18:00:15.872,(-33 -29 -19 -10 -8 -24 -24 -36)
1969/12/31/18:00:15.872,(58 -53 -101 -29 26 33 12 79)
1969/12/31/18:00:15.875,(-88 -5 64 9 -39 -54 -22 -43)
1969/12/31/18:00:15.875,(18 102 83 16 -18 3 32 2)
1969/12/31/18:00:15.905,(32 18 -14 -6 9 4 -10 -48)
1969/12/31/18:00:15.905,(27 -13 -2 21 34 34 8 29)
1969/12/31/18:00:15.906,(16 -38 -27 -16 -12 -2 -14 -3)
1969/12/31/18:00:15.906,(-21 -51 -40 -10 -25 -73 -8 22)
1969/12/31/18:00:15.925,(32 6 -17 4 39 54 55 96)
1969/12/31/18:00:15.925,(-7 51 53 8 -71 -54 -51 -47)
1969/12/31/18:00:15.935,(6 35 44 23 10 15 -11 -5)
1969/12/31/18:00:15.935,(-15 -87 -70 -44 -30 -9 24 -14)
1969/12/31/18:00:15.969,(50 -42 -40 -19 23 25 -15 22)
1969/12/31/18:00:15.969,(-26 83 65 28 0 -23 -7 -36)
1969/12/31/18:00:15.971,(14 -2 -4 -5 10 28 9 12)
1969/12/31/18:00:15.971,(28 -35 -17 11 62 64 9 17)
1969/12/31/18:00:15.989,(-1 9 -17 -7 -15 -41 23 16)
1969/12/31/18:00:15.991,(-81 -63 -21 -17 -65 -51 -49 -96)
1969/12/31/18:00:15.992,(0 18 -12 0 25 -3 -19 -5)
1969/12/31/18:00:15.992,(11 16 0 -1 27 47 71 31)
1969/12/31/18:00:16.009,(-11 -66 -33 -19 -66 -38 -18 -38)
1969/12/31/18:00:16.009,(-4 71 47 4 -18 -43 -59 -18)
1969/12/31/18:00:16.022,(6 -20 -20 2 42 68 44 38)
1969/12/31/18:00:16.022,(59 -20 -44 -16 -30 -45 3 55)
1969/12/31/18:00:16.044,(-64 -14 43 31 60 65 21 -17)
1969/12/31/18:00:16.044,(49 41 26 9 -26 -22 47 75)
1969/12/31/18:00:16.045,(10 -4 -34 -21 -25 -19 -60 -51)
1969/12/31/18:00:16.045,(-19 16 20 13 28 17 -7 -20)
1969/12/31/18:00:16.075,(5 -14 -1 -2 -30 -4 24 -3)
1969/12/31/18:00:16.075,(13 4 8 8 19 2 3 14)
1969/12/31/18:00:16.078,(-6 -93 -58 -18 7 38 51 66)
1969/12/31/18:00:16.078,(-5 32 14 -7 -31 -39 -14 -36)
1969/12/31/18:00:16.095,(20 106 56 24 26 22 -13 -17)
1969/12/31/18:00:16.095,(-22 -8 10 14 47 46 11 23)
1969/12/31/18:00:16.108,(-21 17 19 -1 -49 -74 -43 -63)
1969/12/31/18:00:16.108,(-20 -33 -17 -2 11 42 29 -8)
1969/12/31/18:00:16.130,(-32 -66 -43 -42 -56 -78 -78 -50)
1969/12/31/18:00:16.130,(13 -45 -49 -19 30 38 33 10)
1969/12/31/18:00:16.131,(13 83 33 4 -27 -40 -19 -3)
1969/12/31/18:00:16.131,(18 46 67 37 34 30 26 37)
1969/12/31/18:00:16.161,(-74 -38 -16 -9 19 9 -1 -80)
1969/12/31/18:00:16.163,(-3 -23 -12 -2 -9 -3 -18 -6)
1969/12/31/18:00:16.164,(-1 -71 -71 -24 3 -5 14 23)
1969/12/31/18:00:16.164,(33 50 47 17 1 12 -6 3)
1969/12/31/18:00:16.181,(-6 72 80 37 22 9 20 11)
1969/12/31/18:00:16.181,(9 11 9 15 27 26 24 6)
1969/12/31/18:00:16.194,(-24 -11 19 14 -10 -12 -44 -30)
1969/12/31/18:00:16.194,(13 -16 -33 -20 2 -6 22 35)
1969/12/31/18:00:16.216,(-33 -46 -56 -32 -74 -85 -62 -48)
1969/12/31/18:00:16.216,(3 -28 -6 -4 22 48 11 -15)
1969/12/31/18:00:16.217,(-2 45 26 5 -14 -30 28 52)
1969/12/31/18:00:16.217,(40 3 -32 -4 21 37 35 8)
1969/12/31/18:00:16.247,(30 31 51 23 33 14 20 67)
1969/12/31/18:00:16.249,(-1 9 15 3 -18 1 -10 -32)
1969/12/31/18:00:16.250,(9 2 -12 -7 9 10 -36 -31)
1969/12/31/18:00:16.250,(-13 -29 -41 -18 -9 -10 -29 -10)
1969/12/31/18:00:16.269,(43 -15 -19 -3 25 25 28 24)
1969/12/31/18:00:16.269,(-50 3 28 17 5 1 -2 -2)
1969/12/31/18:00:16.279,(14 24 25 11 7 18 36 24)
1969/12/31/18:00:16.279,(-30 -13 -5 -9 -26 -43 -22 -21)
1969/12/31/18:00:16.302,(31 -5 -28 -9 3 11 -4 15)
1969/12/31/18:00:16.302,(9 -4 3 -1 -2 -17 0 18)
1969/12/31/18:00:16.303,(-12 0 -5 -3 7 11 14 -19)
1969/12/31/18:00:16.303,(-3 17 18 9 10 14 -2 -45)
1969/12/31/18:00:16.335,(-49 -28 -19 -13 -3 13 -20 -42)
1969/12/31/18:00:16.335,(-1 3 3 4 -11 -23 14 9)
1969/12/31/18:00:16.336,(1 5 -12 -26 -60 -64 -51 -28)
1969/12/31/18:00:16.336,(-9 5 0 -12 -13 -9 -9 -30)
1969/12/31/18:00:16.366,(-17 -36 -14 15 36 19 9 31)
1969/12/31/18:00:16.366,(19 20 19 13 29 40 16 13)
1969/12/31/18:00:16.369,(9 -4 -10 5 11 2 33 38)
1969/12/31/18:00:16.369,(14 3 4 -1 -17 -12 2 17)
1969/12/31/18:00:16.388,(19 15 0 1 17 47 -28 -1)
1969/12/31/18:00:16.388,(4 4 3 -7 -27 -106 -30 8)
1969/12/31/18:00:16.389,(7 5 4 0 8 44 57 22)
1969/12/31/18:00:16.389,(21 5 1 -2 13 20 3 16)
1969/12/31/18:00:16.421,(13 15 11 17 10 3 13 8)
1969/12/31/18:00:16.421,(4 6 0 0 -14 -13 -32 -36)
1969/12/31/18:00:16.422,(-89 -57 -26 -16 -4 -8 -10 -29)
1969/12/31/18:00:16.422,(44 20 11 7 -5 -18 -17 6)
1969/12/31/18:00:16.439,(-68 -35 -17 -16 -14 -4 18 1)
1969/12/31/18:00:16.439,(36 11 11 4 4 35 18 73)
1969/12/31/18:00:16.452,(-46 12 0 -1 -5 -12 -9 -67)
1969/12/31/18:00:16.452,(-33 -27 -5 -3 -11 -41 -42 -39)
1969/12/31/18:00:16.474,(53 28 0 -4 -3 26 -7 7)
1969/12/31/18:00:16.474,(-5 -3 2 2 4 -16 -26 -11)
1969/12/31/18:00:16.475,(81 29 10 10 25 56 43 86)
1969/12/31/18:00:16.475,(-104 -33 -1 4 -5 9 -9 -29)
1969/12/31/18:00:16.505,(46 0 -18 -15 -15 -31 -2 -12)
1969/12/31/18:00:16.505,(-64 -26 -14 -16 -20 -11 -25 -37)
1969/12/31/18:00:16.508,(64 13 7 12 17 -6 20 5)
1969/12/31/18:00:16.508,(-21 -2 0 -2 0 28 -16 -60)
1969/12/31/18:00:16.525,(31 9 7 -3 -8 -21 -38 62)
1969/12/31/18:00:16.525,(17 18 4 -9 6 41 35 -5)
1969/12/31/18:00:16.538,(37 13 -4 21 8 -28 -5 32)
1969/12/31/18:00:16.538,(-57 -55 -6 8 5 -2 3 47)
1969/12/31/18:00:16.560,(57 13 -2 7 7 -14 21 28)
1969/12/31/18:00:16.560,(27 13 -4 -12 -18 -27 -22 -35)
1969/12/31/18:00:16.562,(-24 4 14 2 5 27 -7 -6)
1969/12/31/18:00:16.562,(48 -4 -25 -20 -17 -4 0 -23)
1969/12/31/18:00:16.591,(-27 -2 11 4 7 0 -4 -23)
1969/12/31/18:00:16.591,(-33 -19 -3 -1 1 -10 -17 -41)
1969/12/31/18:00:16.594,(46 24 7 3 3 14 31 90)
1969/12/31/18:00:16.594,(-31 -8 -10 -5 -9 -8 -24 -60)
1969/12/31/18:00:16.611,(31 13 12 4 4 3 31 51)
1969/12/31/18:00:16.611,(21 14 6 9 7 18 34 47)
1969/12/31/18:00:16.633,(-99 -48 -26 -20 -12 -20 -43 -92)
1969/12/31/18:00:16.633,(41 21 13 2 3 -3 7 47)
1969/12/31/18:00:16.646,(-43 -17 -8 -5 -2 -3 -10 -11)
1969/12/31/18:00:16.646,(-12 0 8 9 2 -2 15 -4)
1969/12/31/18:00:16.647,(0 11 12 8 6 17 2 -9)
1969/12/31/18:00:16.647,(22 3 -9 -7 -1 -3 8 49)
1969/12/31/18:00:16.677,(31 14 1 -1 1 7 24 13)
1969/12/31/18:00:16.677,(-14 -13 -8 -3 -3 2 0 -1)
1969/12/31/18:00:16.680,(1 1 4 1 1 -6 -5 5)
1969/12/31/18:00:16.680,(35 25 7 4 3 8 11 -3)
1969/12/31/18:00:16.697,(3 -3 -2 0 1 0 6 21)
1969/12/31/18:00:16.697,(-11 -9 -7 -6 -9 -4 -6 0)
1969/12/31/18:00:16.710,(-2 -6 -3 -5 -7 -6 -9 -1)
1969/12/31/18:00:16.710,(3 7 8 6 6 1 10 12)
1969/12/31/18:00:16.732,(-17 -1 0 -2 -2 5 -3 -22)
1969/12/31/18:00:16.732,(-6 -3 -4 0 1 -3 -1 7)
1969/12/31/18:00:16.734,(1 -13 -13 -8 -5 -5 -9 -12)
1969/12/31/18:00:16.734,(3 9 9 7 5 5 9 19)
1969/12/31/18:00:16.764,(-26 -13 -7 -5 -7 -10 -9 -32)
1969/12/31/18:00:16.764,(28 6 -2 -3 -1 2 8 33)
1969/12/31/18:00:16.766,(5 12 5 1 0 0 5 13)
1969/12/31/18:00:16.766,(-5 -5 -6 -5 -1 -1 -4 -10)
1969/12/31/18:00:16.783,(-3 -10 -4 -2 -2 -4 -6 -15)
1969/12/31/18:00:16.783,(-25 -18 -7 -3 -1 0 -1 -10)
1969/12/31/18:00:16.796,(13 11 4 4 -1 3 0 -7)
1969/12/31/18:00:16.796,(-8 1 -5 -4 -3 -3 -4 -1)
1969/12/31/18:00:16.816,(-14 -13 -5 -3 -2 0 -3 -15)
1969/12/31/18:00:16.816,(16 8 2 6 3 -1 -2 0)
1969/12/31/18:00:16.826,(1 -5 0 -2 -4 -7 -8 7)
1969/12/31/18:00:16.826,(6 -13 -11 -6 -5 -2 0 9)
1969/12/31/18:00:16.849,(-14 11 4 0 1 -1 1 0)
1969/12/31/18:00:16.849,(-6 -10 -11 -7 -5 -2 -1 -3)
1969/12/31/18:00:16.852,(-8 -15 -7 -5 -6 -4 -8 -12)
1969/12/31/18:00:16.852,(2 -6 -7 -3 1 2 4 -1)
1969/12/31/18:00:16.869,(2 -12 -14 -6 -4 -3 0 4)
1969/12/31/18:00:16.869,(1 18 12 7 4 -1 -4 -6)
1969/12/31/18:00:16.882,(9 12 3 0 -2 -2 -2 -8)
1969/12/31/18:00:16.882,(-4 -26 -15 -4 1 3 3 0)
1969/12/31/18:00:16.902,(-6 21 20 9 3 1 5 7)
1969/12/31/18:00:16.902,(-4 -15 -25 -13 -7 -6 -16 -21)
1969/12/31/18:00:16.912,(-8 -21 -18 -9 -2 -1 5 -9)
1969/12/31/18:00:16.912,(-13 32 39 18 5 -2 -10 -14)
1969/12/31/18:00:16.938,(5 0 -2 0 -3 -1 3 15)
1969/12/31/18:00:16.938,(-2 0 12 4 0 0 6 9)
1969/12/31/18:00:16.939,(1 -6 -14 -5 -1 -2 -5 1)
1969/12/31/18:00:16.939,(8 -21 -23 -12 -6 -2 7 5)
1969/12/31/18:00:16.968,(2 23 11 1 1 -1 -5 -5)
1969/12/31/18:00:16.968,(-5 -28 -2 -2 1 1 -3 0)
1969/12/31/18:00:16.971,(8 15 -7 -11 -3 -2 0 -12)
1969/12/31/18:00:16.971,(-5 18 29 14 5 0 -10 5)
1969/12/31/18:00:16.988,(-11 -7 8 9 1 0 3 -7)
1969/12/31/18:00:16.988,(5 -11 -21 -10 -6 -2 -9 -2)
1969/12/31/18:00:16.998,(-4 -35 -32 -11 -7 -1 5 -1)
1969/12/31/18:00:16.998,(12 45 36 8 4 3 7 3)
1969/12/31/18:00:17.022,(-5 20 25 14 4 -2 -8 -11)
1969/12/31/18:00:17.022,(0 11 13 8 3 5 5 -2)
1969/12/31/18:00:17.024,(-2 -6 1 1 -1 -3 -11 -2)
1969/12/31/18:00:17.024,(-1 -18 -25 -14 -8 -2 3 0)
1969/12/31/18:00:17.054,(-7 -28 -19 -17 -9 -2 -1 -5)
1969/12/31/18:00:17.054,(8 27 21 10 3 -1 1 2)
1969/12/31/18:00:17.057,(-2 -9 -6 -3 2 5 14 5)
1969/12/31/18:00:17.057,(3 -1 -17 -4 -3 -4 -28 -7)
1969/12/31/18:00:17.074,(-13 1 11 6 -1 1 -2 -10)
1969/12/31/18:00:17.074,(-8 -52 -43 -22 -9 -4 3 0)
1969/12/31/18:00:17.084,(10 55 46 19 5 3 -11 -4)
1969/12/31/18:00:17.084,(7 24 -2 -1 -5 3 5 -3)
1969/12/31/18:00:17.107,(-10 -40 -10 5 3 5 -4 -11)
1969/12/31/18:00:17.107,(7 15 16 7 5 4 2 4)
1969/12/31/18:00:17.110,(-4 -15 -14 -4 -3 -4 -9 -7)
1969/12/31/18:00:17.110,(-5 8 12 1 -1 3 2 -1)
1969/12/31/18:00:17.140,(0 -5 -9 0 1 0 2 -1)
1969/12/31/18:00:17.140,(2 -1 -8 -3 -3 -3 1 0)
1969/12/31/18:00:17.143,(-8 -52 -47 -29 -10 -2 -2 0)
1969/12/31/18:00:17.143,(-1 32 50 36 13 0 4 -7)
1969/12/31/18:00:17.160,(16 6 -10 -2 2 1 -3 1)
1969/12/31/18:00:17.160,(-25 -26 -38 -21 -13 -11 -6 -5)
1969/12/31/18:00:17.170,(-3 24 38 7 0 -11 2 2)
1969/12/31/18:00:17.170,(-1 -16 -32 -9 3 -7 11 11)
1969/12/31/18:00:17.193,(-3 -9 -44 -33 -5 -10 8 7)
1969/12/31/18:00:17.193,(-9 -8 -35 -10 4 -7 4 2)
1969/12/31/18:00:17.196,(11 25 8 11 3 -5 4 8)
1969/12/31/18:00:17.196,(-13 -35 -19 -15 -3 -4 5 2)
1969/12/31/18:00:17.226,(-6 4 -5 0 0 -5 0 -2)
1969/12/31/18:00:17.226,(1 -10 -13 -6 -2 0 0 2)
1969/12/31/18:00:17.229,(2 8 14 6 -1 4 0 -3)
1969/12/31/18:00:17.229,(8 -20 -43 -28 -10 1 0 2)
1969/12/31/18:00:17.246,(-1 -17 4 10 0 5 -6 -6)
1969/12/31/18:00:17.246,(5 21 32 11 0 2 -12 -10)
1969/12/31/18:00:17.256,(3 7 16 7 1 4 -2 -6)
1969/12/31/18:00:17.256,(-9 -51 -26 -11 -5 1 6 6)
1969/12/31/18:00:17.280,(-5 9 20 -1 -3 -4 -11 -11)
1969/12/31/18:00:17.280,(10 14 31 23 6 2 6 4)
1969/12/31/18:00:17.282,(-3 -5 -8 1 2 2 -6 2)
1969/12/31/18:00:17.282,(-5 -6 7 -4 -4 -3 5 0)
1969/12/31/18:00:17.312,(4 6 -2 -6 -2 -2 6 5)
1969/12/31/18:00:17.312,(2 19 14 2 1 -3 -3 -3)
1969/12/31/18:00:17.315,(-8 -29 -22 -13 -5 -1 2 -1)
1969/12/31/18:00:17.315,(-2 8 8 7 -1 1 -7 -8)
1969/12/31/18:00:17.332,(1 1 18 10 2 2 0 0)
1969/12/31/18:00:17.332,(2 12 13 3 -3 3 -6 -4)
1969/12/31/18:00:17.345,(-4 -18 -7 -2 -1 -2 -1 -2)
1969/12/31/18:00:17.345,(3 19 6 -2 -2 -2 -8 -5)
1969/12/31/18:00:17.376,(-1 9 2 4 0 -1 -1 -3)
1969/12/31/18:00:17.376,(-4 -19 -5 -7 -4 -1 2 2)
1969/12/31/18:00:17.379,(1 14 21 10 2 1 -6 -6)
1969/12/31/18:00:17.379,(-1 3 7 6 4 5 -3 -2)
1969/12/31/18:00:17.398,(-7 -31 -31 -19 -10 -5 -2 -2)
1969/12/31/18:00:17.398,(6 16 16 14 5 1 0 3)
1969/12/31/18:00:17.401,(0 0 2 3 0 -1 0 1)
1969/12/31/18:00:17.401,(4 25 8 -2 -3 -4 -7 -5)
1969/12/31/18:00:17.418,(-4 -6 -3 -5 -4 1 -6 -4)
1969/12/31/18:00:17.418,(1 8 11 3 4 4 3 2)
1969/12/31/18:00:17.431,(-2 10 5 1 0 -1 -1 -1)
1969/12/31/18:00:17.431,(3 -28 -14 -7 -5 -4 0 1)
1969/12/31/18:00:17.452,(1 2 2 3 0 -2 0 -3)
1969/12/31/18:00:17.452,(-6 7 1 -1 -1 -1 -5 -7)
1969/12/31/18:00:17.454,(-3 0 -6 -4 1 0 1 -1)
1969/12/31/18:00:17.454,(-4 -1 0 -3 1 0 2 1)
1969/12/31/18:00:17.494,(3 6 -3 -2 0 3 4 5)
1969/12/31/18:00:17.494,(3 -2 -3 -2 3 3 4 3)
1969/12/31/18:00:17.497,(-2 5 -5 -7 -1 -2 2 1)
1969/12/31/18:00:17.497,(0 2 -1 0 -2 -5 0 3)
1969/12/31/18:00:17.504,(-2 -6 -1 6 1 -2 1 2)
1969/12/31/18:00:17.504,(-5 -11 -15 -11 -8 -7 -2 -1)
1969/12/31/18:00:17.517,(-1 -3 -4 -2 -4 -4 -3 -2)
1969/12/31/18:00:17.517,(1 2 9 6 0 -3 -5 -2)
1969/12/31/18:00:17.537,(0 8 8 -3 0 4 -1 -3)
1969/12/31/18:00:17.538,(-2 7 -3 -2 -5 -1 -6 -6)
1969/12/31/18:00:17.540,(3 5 10 4 -2 -1 -3 -4)
1969/12/31/18:00:17.540,(-3 -4 5 2 -3 -2 -3 -3)
1969/12/31/18:00:17.580,(-3 -10 3 -1 -2 -3 1 0)
1969/12/31/18:00:17.580,(-2 14 1 2 1 -3 2 0)
1969/12/31/18:00:17.583,(3 12 -1 -3 1 1 1 1)
1969/12/31/18:00:17.583,(-4 -4 -1 -1 -1 1 2 2)
1969/12/31/18:00:17.590,(-2 -5 2 -1 -2 -1 -2 -2)
1969/12/31/18:00:17.590,(1 -3 1 -1 -3 -2 -3 -4)
1969/12/31/18:00:17.601,(-1 -2 -2 1 0 -1 -3 -3)
1969/12/31/18:00:17.601,(0 -1 -3 -3 -1 0 -1 -3)
1969/12/31/18:00:17.623,(-1 0 -4 -3 2 -3 -2 -2)
1969/12/31/18:00:17.623,(-1 -4 -1 1 -2 -1 1 0)
1969/12/31/18:00:17.626,(-2 -1 -4 0 -1 -1 1 0)
1969/12/31/18:00:17.626,(-3 -3 -4 1 -1 0 0 -2)
1969/12/31/18:00:17.626,(0 -1 1 -1 -2 0 -2 1)
1969/12/31/18:00:17.626,(0 0 0 -3 -3 0 -1 -2)
1969/12/31/18:00:17.639,(-3 2 2 0 0 0 0 -1)
1969/12/31/18:00:17.639,(-4 -2 -2 -1 0 -1 -3 0)
1969/12/31/18:00:17.660,(-1 -1 1 3 0 0 -1 2)
1969/12/31/18:00:17.660,(0 0 0 2 -1 -3 0 0)
1969/12/31/18:00:17.663,(-2 -4 -6 -3 1 -1 -1 -1)
1969/12/31/18:00:17.663,(2 2 2 2 -1 -2 1 0)
1969/12/31/18:00:17.692,(2 1 -1 -4 -1 -3 1 -1)
1969/12/31/18:00:17.692,(-2 -1 1 0 1 0 0 1)
1969/12/31/18:00:17.694,(0 -1 0 1 0 -1 1 0)
1969/12/31/18:00:17.694,(-2 -3 -5 0 -2 0 -1 -1)
1969/12/31/18:00:17.712,(-2 -3 -3 -2 -3 -3 -1 -2)
1969/12/31/18:00:17.712,(0 -3 -4 -3 -2 0 -1 0)
1969/12/31/18:00:17.725,(-3 -1 2 -1 -4 0 -4 -1)
1969/12/31/18:00:17.725,(0 3 1 0 -1 -2 -1 0)
1969/12/31/18:00:17.746,(0 0 2 1 0 1 -1 0)
1969/12/31/18:00:17.746,(-1 -1 1 1 1 -13 -7 -2)
1969/12/31/18:00:17.749,(-2 -4 -3 -3 -1 14 8 -2)
1969/12/31/18:00:17.749,(-2 -4 -4 -4 -4 -7 -4 -2)
1969/12/31/18:00:17.779,(-3 -1 -4 -3 -4 -7 -3 -2)
1969/12/31/18:00:17.779,(-1 1 1 0 -2 -8 -5 0)
1969/12/31/18:00:17.780,(2 2 4 -4 -3 -17 5 2)
1969/12/31/18:00:17.780,(-2 -1 1 -6 -3 23 -30 -10)
1969/12/31/18:00:17.798,(0 0 -1 6 5 14 32 13)
1969/12/31/18:00:17.798,(1 0 1 4 2 -53 -21 -2)
1969/12/31/18:00:17.811,(0 3 -5 2 0 13 19 0)
1969/12/31/18:00:17.811,(3 2 14 12 5 -8 23 8)
1969/12/31/18:00:17.832,(-3 -1 -5 -8 -4 -2 -19 -10)
1969/12/31/18:00:17.832,(-5 -2 -3 -7 -10 -22 -23 -10)
1969/12/31/18:00:17.833,(1 -1 -6 -11 -2 44 24 9)
1969/12/31/18:00:17.833,(-4 -4 -10 -10 4 -20 -60 -14)
1969/12/31/18:00:17.865,(-5 -1 3 17 12 -2 -38 -22)
1969/12/31/18:00:17.865,(1 2 0 -8 -10 -19 31 6)
1969/12/31/18:00:17.866,(-4 -1 1 9 5 -10 -16 -5)
1969/12/31/18:00:17.866,(2 2 1 4 -8 12 54 13)
1969/12/31/18:00:17.897,(5 -1 -2 -7 9 38 -27 19)
1969/12/31/18:00:17.897,(-9 -3 -2 3 16 -27 -42 -34)
1969/12/31/18:00:17.899,(-9 -5 -9 -24 -35 16 16 -10)
1969/12/31/18:00:17.899,(-6 -1 2 7 -3 -9 -22 -10)
1969/12/31/18:00:17.917,(2 4 1 -11 -12 -18 43 9)
1969/12/31/18:00:17.917,(2 -1 -1 6 11 78 50 16)
1969/12/31/18:00:17.927,(-3 -1 10 36 35 -32 -69 -11)
1969/12/31/18:00:17.927,(-1 -2 -3 5 -11 -18 7 -4)
1969/12/31/18:00:17.950,(-1 -5 -6 -10 -16 -9 3 -1)
1969/12/31/18:00:17.951,(-3 -6 -11 -24 -27 4 -12 1)
1969/12/31/18:00:17.952,(2 0 -5 -17 1 -18 1 -3)
1969/12/31/18:00:17.952,(-7 3 19 8 23 14 12 -5)
1969/12/31/18:00:17.970,(6 2 5 14 -15 -6 -6 1)
1969/12/31/18:00:17.970,(4 -1 -3 -1 -9 5 33 15)
1969/12/31/18:00:17.993,(-4 -6 -6 -4 2 14 -36 -11)
1969/12/31/18:00:17.993,(-2 -8 -13 -17 -20 -82 -44 -5)
1969/12/31/18:00:18.004,(-6 -1 -1 -7 4 34 -5 -9)
1969/12/31/18:00:18.004,(0 -7 -9 -14 -1 4 -36 -8)
1969/12/31/18:00:18.007,(8 13 16 9 -4 -20 4 5)
1969/12/31/18:00:18.007,(-3 -11 -13 -8 8 63 34 4)
1969/12/31/18:00:18.036,(0 4 -4 0 2 1 9 9)
1969/12/31/18:00:18.036,(4 11 36 39 4 -12 -14 -7)
1969/12/31/18:00:18.047,(0 -2 -8 -10 -5 16 31 3)
1969/12/31/18:00:18.047,(6 8 3 18 13 -22 -28 1)
1969/12/31/18:00:18.068,(-3 -6 5 -8 -1 11 3 -2)
1969/12/31/18:00:18.068,(-5 -7 -35 -31 -5 -2 -14 -3)
1969/12/31/18:00:18.071,(-2 1 21 24 -3 -4 13 1)
1969/12/31/18:00:18.071,(5 11 12 14 1 11 18 5)
1969/12/31/18:00:18.090,(-3 -7 -10 -5 0 -4 -16 -11)
1969/12/31/18:00:18.090,(-3 -3 2 -5 3 12 12 1)
1969/12/31/18:00:18.093,(2 -1 -12 -11 -3 -9 2 3)
1969/12/31/18:00:18.093,(-4 0 -1 -4 -1 17 6 9)
1969/12/31/18:00:18.122,(2 1 7 5 2 -24 -3 -8)
1969/12/31/18:00:18.122,(-3 -8 -5 -3 1 14 11 3)
1969/12/31/18:00:18.124,(1 -4 -8 -12 -4 -10 -5 -1)
1969/12/31/18:00:18.124,(-2 0 4 9 2 9 8 1)
1969/12/31/18:00:18.177,(-4 -3 -13 -18 -3 -9 3 0)
1969/12/31/18:00:18.177,(1 2 -3 9 1 2 7 2)
1969/12/31/18:00:18.180,(0 3 30 24 5 5 -5 2)
1969/12/31/18:00:18.180,(2 3 -5 -6 -2 -2 -1 -4)
1969/12/31/18:00:18.182,(-3 -5 -3 0 -1 -9 4 3)
1969/12/31/18:00:18.182,(2 -2 -11 -7 -1 3 -6 -4)
1969/12/31/18:00:18.187,(-3 -7 -10 -7 1 -3 2 7)
1969/12/31/18:00:18.187,(-1 0 -1 -8 -3 3 3 -1)
1969/12/31/18:00:18.209,(1 4 3 5 0 -10 -5 -5)
1969/12/31/18:00:18.209,(-1 3 9 4 4 6 3 -2)
1969/12/31/18:00:18.210,(0 1 -2 -1 -1 -1 -1 0)
1969/12/31/18:00:18.210,(-1 -7 -6 -8 -7 0 3 -3)
1969/12/31/18:00:18.228,(-1 2 -5 -1 1 -1 -1 2)
1969/12/31/18:00:18.228,(-1 4 9 6 0 2 2 1)
1969/12/31/18:00:18.240,(-1 -1 -4 -5 -3 -6 -3 -5)
1969/12/31/18:00:18.240,(-1 -11 -13 -9 -3 1 0 3)
1969/12/31/18:00:18.261,(4 -3 -22 -6 -1 -7 -4 -3)
1969/12/31/18:00:18.261,(-5 3 11 2 1 2 4 3)
1969/12/31/18:00:18.271,(-4 8 1 2 4 -1 -1 0)
1969/12/31/18:00:18.271,(-2 0 0 -1 -1 0 0 -3)
1969/12/31/18:00:18.293,(1 -11 -5 1 0 -3 4 4)
1969/12/31/18:00:18.293,(13 3 -21 -11 -4 -1 1 4)
1969/12/31/18:00:18.305,(-16 7 24 4 -1 -2 -4 -5)
1969/12/31/18:00:18.305,(-2 -2 -4 -3 -2 0 3 1)
1969/12/31/18:00:18.326,(-12 -6 1 -1 -6 -2 20 12)
1969/12/31/18:00:18.326,(11 4 4 8 9 1 -15 -14)
1969/12/31/18:00:18.329,(1 -17 -17 -8 -7 -9 -4 0)
1969/12/31/18:00:18.329,(11 15 5 5 4 2 -11 -10)
1969/12/31/18:00:18.348,(-1 6 8 4 1 -4 -12 -10)
1969/12/31/18:00:18.348,(-14 -5 -2 -7 -6 1 23 19)
1969/12/31/18:00:18.368,(18 12 8 7 7 -1 -9 3)
1969/12/31/18:00:18.368,(1 -3 -5 -5 -2 -6 -5 -7)
1969/12/31/18:00:18.381,(1 -2 -4 -3 0 2 4 11)
1969/12/31/18:00:18.381,(5 4 11 6 2 3 2 2)
1969/12/31/18:00:18.382,(-31 -18 -16 -6 -6 -3 -14 -36)
1969/12/31/18:00:18.382,(2 -7 -2 -5 -4 -2 4 12)
1969/12/31/18:00:18.412,(-8 4 6 2 2 -3 -5 -13)
1969/12/31/18:00:18.412,(-6 -3 2 0 -4 -1 -4 -2)
1969/12/31/18:00:18.414,(14 -2 -8 -8 -2 2 14 19)
1969/12/31/18:00:18.414,(4 -4 -2 -4 -4 1 8 5)
1969/12/31/18:00:18.432,(7 2 10 5 0 2 5 19)
1969/12/31/18:00:18.432,(-17 -1 3 5 3 -4 -34 -21)
1969/12/31/18:00:18.468,(25 5 -9 -6 -7 0 -4 -11)
1969/12/31/18:00:18.468,(-30 -12 4 1 2 -1 -25 -12)
1969/12/31/18:00:18.468,(-15 -4 1 0 -1 -2 0 -11)
1969/12/31/18:00:18.468,(3 -6 -4 -1 -1 6 5 7)
1969/12/31/18:00:18.471,(4 6 2 6 12 22 48 29)
1969/12/31/18:00:18.471,(8 3 -7 -14 -26 -38 -76 -42)
1969/12/31/18:00:18.498,(6 -2 1 1 5 11 16 11)
1969/12/31/18:00:18.498,(-12 -5 -3 -2 -4 -6 -13 -15)
1969/12/31/18:00:18.500,(-2 -4 -7 -9 -8 -11 -12 -13)
1969/12/31/18:00:18.500,(0 0 2 2 6 13 38 25)
1969/12/31/18:00:18.518,(7 9 8 6 2 -7 -14 -27)
1969/12/31/18:00:18.518,(5 -4 -5 -5 -3 0 17 36)
1969/12/31/18:00:18.553,(18 20 8 7 8 8 -5 -20)
1969/12/31/18:00:18.553,(29 -2 -9 -5 1 5 22 24)
1969/12/31/18:00:18.554,(-101 -65 -23 -11 -15 -15 -24 -33)
1969/12/31/18:00:18.554,(10 -2 1 0 2 6 14 -8)
1969/12/31/18:00:18.556,(-8 -2 -1 -3 -4 -7 -10 0)
1969/12/31/18:00:18.556,(50 30 11 7 5 7 11 15)
1969/12/31/18:00:18.584,(8 10 1 0 -3 -23 -7 -4)
1969/12/31/18:00:18.584,(34 19 4 5 11 50 10 4)
1969/12/31/18:00:18.586,(-111 -56 -13 -8 -14 -43 -21 -44)
1969/12/31/18:00:18.586,(54 18 -3 -4 3 34 24 40)
1969/12/31/18:00:18.604,(-21 -14 -9 -7 -2 -11 -13 -21)
1969/12/31/18:00:18.604,(-33 -8 1 -6 -13 -35 -22 -13)
1969/12/31/18:00:18.614,(35 11 -2 2 7 9 -4 13)
1969/12/31/18:00:18.614,(-60 -15 1 4 0 -19 2 -15)
1969/12/31/18:00:18.639,(118 56 19 10 6 6 52 56)
1969/12/31/18:00:18.639,(-33 -29 -18 -10 -3 30 9 -19)
1969/12/31/18:00:18.640,(-27 -8 -8 -8 -8 7 -14 -34)
1969/12/31/18:00:18.640,(-66 -24 3 3 -3 -16 3 -18)
1969/12/31/18:00:18.670,(59 22 -7 -4 1 10 -34 -15)
1969/12/31/18:00:18.670,(57 31 10 6 0 -14 1 -5)
1969/12/31/18:00:18.672,(19 -2 -5 -4 -6 -28 4 13)
1969/12/31/18:00:18.672,(-55 -23 -4 2 1 -29 -11 -32)
1969/12/31/18:00:18.690,(18 13 9 2 8 51 27 40)
1969/12/31/18:00:18.690,(14 6 11 7 4 -5 -6 3)
1969/12/31/18:00:18.700,(-26 -32 -23 -20 -22 -23 -59 -54)
1969/12/31/18:00:18.700,(33 33 18 7 7 19 34 14)
1969/12/31/18:00:18.723,(-30 9 -4 -4 -2 -60 -67 -53)
1969/12/31/18:00:18.723,(-13 -26 -11 -12 -10 38 15 14)
1969/12/31/18:00:18.726,(51 45 12 12 14 50 -2 50)
1969/12/31/18:00:18.726,(-26 -16 -6 5 -10 -12 47 -4)
1969/12/31/18:00:18.779,(-35 -45 -17 -9 -14 -58 2 -30)
1969/12/31/18:00:18.779,(-2 -3 -3 -3 -1 -13 1 12)
1969/12/31/18:00:18.782,(19 21 10 2 -3 -46 -21 13)
1969/12/31/18:00:18.782,(41 7 -2 -6 3 42 13 0)
1969/12/31/18:00:18.784,(-25 -11 -4 -1 5 48 20 -13)
1969/12/31/18:00:18.784,(7 7 7 6 -9 -61 15 30)
1969/12/31/18:00:18.788,(5 -2 2 2 13 20 42 12)
1969/12/31/18:00:18.788,(23 6 1 -4 -3 -6 -66 -23)
1969/12/31/18:00:18.809,(-32 -14 -7 0 6 41 -2 -22)
1969/12/31/18:00:18.809,(1 7 -2 -1 -10 -30 -11 9)
1969/12/31/18:00:18.812,(-8 8 6 7 0 23 31 10)
1969/12/31/18:00:18.812,(-2 -29 -13 -6 6 37 -2 6)
1969/12/31/18:00:18.842,(-22 -11 -5 -6 -15 -47 -60 -50)
1969/12/31/18:00:18.842,(-28 -5 -8 -6 0 -10 -27 -45)
1969/12/31/18:00:18.844,(21 13 16 10 6 -15 24 19)
1969/12/31/18:00:18.844,(-19 -6 1 2 5 18 2 0)
1969/12/31/18:00:18.887,(13 14 12 10 14 52 33 36)
1969/12/31/18:00:18.887,(-4 -14 -22 -20 -13 48 5 -10)
1969/12/31/18:00:18.888,(-1 -1 -1 0 -1 -41 -10 -5)
1969/12/31/18:00:18.888,(-7 -4 -6 -3 3 54 -3 9)
1969/12/31/18:00:18.895,(33 28 10 2 -18 -102 6 10)
1969/12/31/18:00:18.895,(-13 -11 5 10 16 6 64 27)
1969/12/31/18:00:18.898,(-14 -1 4 13 10 -34 21 -4)
1969/12/31/18:00:18.898,(-6 -11 -11 -7 -4 -29 -30 31)
1969/12/31/18:00:18.928,(-17 -32 -17 -12 -15 -43 -16 -16)
1969/12/31/18:00:18.928,(8 8 4 2 19 -17 11 10)
1969/12/31/18:00:18.930,(-8 -16 -12 -15 -42 -22 -2 27)
1969/12/31/18:00:18.930,(-11 0 4 6 -8 -116 6 5)
1969/12/31/18:00:18.948,(9 20 4 -3 1 85 -46 -11)
1969/12/31/18:00:18.948,(-3 -29 -24 -50 -45 -10 -41 -10)
1969/12/31/18:00:18.961,(26 21 23 46 45 33 24 16)
1969/12/31/18:00:18.961,(-5 5 -1 4 -4 -7 2 11)
1969/12/31/18:00:18.981,(11 3 11 14 19 -48 34 46)
1969/12/31/18:00:18.981,(-12 3 6 25 12 28 -24 0)
1969/12/31/18:00:18.984,(-5 1 -17 -33 -18 61 10 68)
1969/12/31/18:00:18.984,(-27 -12 -10 -13 16 48 -11 -44)
1969/12/31/18:00:19.014,(19 28 12 8 20 25 42 48)
1969/12/31/18:00:19.014,(-25 -24 -7 -9 -2 60 -92 -54)
1969/12/31/18:00:19.016,(13 -3 -1 7 52 40 72 44)
1969/12/31/18:00:19.016,(21 12 6 5 -3 -88 -48 -31)
1969/12/31/18:00:19.034,(15 16 -1 -14 -73 -57 -4 17)
1969/12/31/18:00:19.034,(12 9 7 1 -14 -49 -7 18)
1969/12/31/18:00:19.047,(20 4 -3 -28 -29 91 48 20)
1969/12/31/18:00:19.047,(-31 -16 5 42 45 86 -29 -73)
1969/12/31/18:00:19.067,(-18 -15 -7 9 44 79 -16 -16)
1969/12/31/18:00:19.067,(10 18 12 18 -7 -102 23 12)
1969/12/31/18:00:19.070,(2 2 -7 -13 -34 45 37 -9)
1969/12/31/18:00:19.070,(7 7 -4 -31 -39 26 29 9)
1969/12/31/18:00:19.100,(-9 -14 0 -4 10 -45 -4 11)
1969/12/31/18:00:19.100,(1 7 8 31 67 87 31 -12)
1969/12/31/18:00:19.102,(-29 -21 -15 -11 -31 -61 -49 -37)
1969/12/31/18:00:19.102,(44 32 17 13 -9 10 -15 31)
1969/12/31/18:00:19.119,(0 -3 -6 -22 -62 -51 -9 0)
1969/12/31/18:00:19.120,(7 0 -4 -13 22 22 -18 12)
1969/12/31/18:00:19.133,(1 3 11 7 25 -7 -49 -39)
1969/12/31/18:00:19.133,(-4 -6 -4 3 -3 -21 12 16)
1969/12/31/18:00:19.165,(12 5 9 31 106 109 59 26)
1969/12/31/18:00:19.165,(-7 3 5 13 -15 -45 28 8)
1969/12/31/18:00:19.168,(-22 -23 -14 -27 -82 -51 -69 -48)
1969/12/31/18:00:19.168,(-14 -8 -7 -18 -19 -21 12 7)
1969/12/31/18:00:19.186,(-5 -3 0 1 27 56 6 -12)
1969/12/31/18:00:19.186,(0 4 0 -3 24 7 21 6)
1969/12/31/18:00:19.189,(13 5 8 47 89 -17 7 16)
1969/12/31/18:00:19.189,(0 -1 -15 -49 -104 -111 13 13)
1969/12/31/18:00:19.218,(8 20 -15 -30 -10 0 -23 2)
1969/12/31/18:00:19.219,(-4 -34 0 -3 -20 24 7 -19)
1969/12/31/18:00:19.221,(-21 -43 -46 -38 -43 -62 -28 -21)
1969/12/31/18:00:19.221,(19 18 29 38 102 85 26 15)
1969/12/31/18:00:19.239,(-22 28 47 36 5 -12 1 -29)
1969/12/31/18:00:19.241,(16 19 -9 -8 -26 -19 8 16)
1969/12/31/18:00:19.242,(2 3 7 6 8 -28 -26 -8)
1969/12/31/18:00:19.242,(0 -17 -46 -20 -1 14 3 -8)
1969/12/31/18:00:19.274,(-19 -64 -33 -19 -56 -43 -31 -26)
1969/12/31/18:00:19.274,(48 43 -18 -13 0 38 14 46)
1969/12/31/18:00:19.275,(-21 -5 -3 1 -5 -1 -2 -21)
1969/12/31/18:00:19.275,(-6 11 42 -14 -56 -30 5 2)
1969/12/31/18:00:19.291,(-35 -9 71 52 81 74 25 -11)
1969/12/31/18:00:19.292,(0 -29 -54 -6 16 -9 2 14)
1969/12/31/18:00:19.315,(-32 -22 -17 -13 -12 -10 -47 -60)
1969/12/31/18:00:19.315,(46 67 8 1 -25 -33 2 93)
1969/12/31/18:00:19.325,(-4 -10 -33 -16 -18 -10 17 -10)
1969/12/31/18:00:19.325,(-5 -47 -17 -7 -8 -34 2 24)
1969/12/31/18:00:19.328,(25 -34 -15 -11 17 79 25 25)
1969/12/31/18:00:19.328,(-18 -10 -19 -4 -28 -26 -1 -29)
1969/12/31/18:00:19.370,(-38 34 47 -7 -36 -39 -49 -34)
1969/12/31/18:00:19.370,(8 33 24 12 14 22 14 19)
1969/12/31/18:00:19.371,(46 37 -49 4 60 35 29 32)
1969/12/31/18:00:19.371,(-4 -100 -26 3 78 52 8 -17)
1969/12/31/18:00:19.390,(-37 47 57 11 -91 -70 -34 -51)
1969/12/31/18:00:19.390,(-17 75 32 9 25 8 -6 -56)
1969/12/31/18:00:19.391,(-23 27 39 9 -55 -56 -34 47)
1969/12/31/18:00:19.391,(10 -81 -79 -28 10 16 -2 -29)
1969/12/31/18:00:19.411,(-23 -106 -20 -9 27 25 21 97)
1969/12/31/18:00:19.411,(-46 59 32 -6 -43 -51 -26 -29)
1969/12/31/18:00:19.411,(35 71 79 49 80 60 19 -16)
1969/12/31/18:00:19.413,(2 17 -12 8 -7 -23 -25 2)
1969/12/31/18:00:19.443,(21 -41 -58 -23 -20 1 37 28)
1969/12/31/18:00:19.443,(-15 -128 -107 -55 -63 -24 -14 -9)
1969/12/31/18:00:19.444,(-65 65 81 30 7 -8 5 -36)
1969/12/31/18:00:19.444,(-2 81 72 40 81 76 36 64)
1969/12/31/18:00:19.476,(62 34 -47 -2 -5 -23 -42 -42)
1969/12/31/18:00:19.476,(-6 10 63 21 14 -2 -21 -12)
1969/12/31/18:00:19.477,(6 -59 -48 -33 -104 -62 17 77)
1969/12/31/18:00:19.477,(-6 36 3 -20 -14 -10 -19 -92)
1969/12/31/18:00:19.497,(9 -25 -24 -24 1 14 20 57)
1969/12/31/18:00:19.497,(-12 17 5 21 35 21 2 -50)
1969/12/31/18:00:19.499,(20 -86 -48 -1 35 22 0 -12)
1969/12/31/18:00:19.499,(-66 -4 8 16 6 -13 -24 -78)
1969/12/31/18:00:19.529,(59 66 39 5 -13 18 6 59)
1969/12/31/18:00:19.529,(47 16 13 9 43 11 17 35)
1969/12/31/18:00:19.530,(-24 -3 1 -1 44 72 -21 -80)
1969/12/31/18:00:19.530,(20 -31 -72 -51 -90 -83 17 74)
1969/12/31/18:00:19.563,(-31 -53 -18 -13 14 -12 -17 -37)
1969/12/31/18:00:19.563,(-75 -12 26 6 14 16 -13 -7)
1969/12/31/18:00:19.564,(-29 -43 -4 17 66 26 7 -10)
1969/12/31/18:00:19.564,(8 -5 -52 -16 -19 -10 -14 -25)
1969/12/31/18:00:19.585,(19 108 83 45 8 -16 12 8)
1969/12/31/18:00:19.585,(-13 -41 -22 -14 -87 -36 -2 -21)
1969/12/31/18:00:19.586,(75 32 6 -25 -36 -8 31 98)
1969/12/31/18:00:19.586,(-28 -50 -8 7 43 33 -9 -26)
1969/12/31/18:00:19.615,(-12 -47 -63 -26 13 7 8 1)
1969/12/31/18:00:19.615,(12 -69 -67 -12 36 38 14 22)
1969/12/31/18:00:19.616,(-51 24 52 12 -3 -47 -31 -61)
1969/12/31/18:00:19.616,(19 97 70 15 -30 -22 -52 -2)
1969/12/31/18:00:19.648,(45 10 -21 -11 -22 3 31 45)
1969/12/31/18:00:19.648,(-14 -35 24 24 59 30 -17 -29)
1969/12/31/18:00:19.649,(1 -21 -56 -23 -7 -24 17 17)
1969/12/31/18:00:19.649,(19 -15 16 9 -61 14 -4 -9)
1969/12/31/18:00:19.671,(12 6 -8 -24 -36 -61 -10 0)
1969/12/31/18:00:19.671,(-21 24 18 1 31 32 11 -5)
1969/12/31/18:00:19.672,(20 11 15 6 -28 -30 -3 14)
1969/12/31/18:00:19.672,(-12 2 2 -3 28 16 7 5)
1969/12/31/18:00:19.701,(9 -24 -19 15 1 27 -6 8)
1969/12/31/18:00:19.701,(49 45 -18 -17 -30 -15 -6 -11)
1969/12/31/18:00:19.702,(-71 -16 73 18 -1 -25 -36 -93)
1969/12/31/18:00:19.702,(32 -17 -55 -7 35 20 27 50)
1969/12/31/18:00:19.734,(-7 30 3 13 35 35 -4 -23)
1969/12/31/18:00:19.734,(-9 35 117 42 -12 -16 11 40)
1969/12/31/18:00:19.734,(48 15 -89 -16 60 71 13 23)
1969/12/31/18:00:19.734,(-35 -52 18 -16 -86 -98 -52 -25)
1969/12/31/18:00:19.769,(17 29 36 4 10 12 0 -4)
1969/12/31/18:00:19.769,(42 -30 -102 -21 77 69 45 63)
1969/12/31/18:00:19.769,(-3 80 79 12 -106 -85 -40 -12)
1969/12/31/18:00:19.769,(-62 -93 -52 -39 15 5 -16 -19)
1969/12/31/18:00:19.787,(36 36 30 11 -3 -14 -2 29)
1969/12/31/18:00:19.787,(-15 43 51 25 38 12 16 -38)
1969/12/31/18:00:19.788,(44 -78 -93 -23 60 117 74 79)
1969/12/31/18:00:19.788,(12 12 10 21 -28 -66 1 -4)
1969/12/31/18:00:19.820,(-39 66 55 -1 -49 -56 -32 -75)
1969/12/31/18:00:19.820,(32 -20 -29 -2 1 14 8 46)
1969/12/31/18:00:19.820,(-1 -23 -32 -15 5 -12 -1 -6)
1969/12/31/18:00:19.820,(2 15 57 31 38 36 39 15)
1969/12/31/18:00:19.841,(-48 -63 -91 -40 5 6 -16 -41)
1969/12/31/18:00:19.841,(41 -46 -46 -34 -56 -26 6 34)
1969/12/31/18:00:19.842,(-39 100 95 48 -42 -52 -13 -22)
1969/12/31/18:00:19.842,(44 32 8 7 63 88 22 22)
1969/12/31/18:00:19.873,(14 -5 24 50 102 67 33 35)
1969/12/31/18:00:19.873,(6 9 4 -15 -112 -99 -39 -16)
1969/12/31/18:00:19.874,(7 -73 -86 -72 -66 -39 -32 12)
1969/12/31/18:00:19.874,(-1 -64 -45 -22 21 -6 1 14)
1969/12/31/18:00:19.906,(-8 60 75 32 2 9 -12 -11)
1969/12/31/18:00:19.906,(3 27 -3 22 80 43 23 -17)
1969/12/31/18:00:19.906,(3 -11 7 -5 -91 -80 -35 0)
1969/12/31/18:00:19.906,(-12 29 37 22 20 18 10 13)
1969/12/31/18:00:19.927,(22 -12 -25 -1 54 56 13 18)
1969/12/31/18:00:19.927,(0 -33 -58 -26 -33 -27 -21 0)
1969/12/31/18:00:19.927,(-59 26 86 35 15 13 26 -28)
1969/12/31/18:00:19.927,(-34 9 -7 -18 -10 -6 16 8)
1969/12/31/18:00:19.959,(29 -36 -79 -12 77 97 34 -2)
1969/12/31/18:00:19.959,(-23 36 63 4 -117 -111 -33 -6)
1969/12/31/18:00:19.960,(-6 -40 -54 -19 53 44 -12 -11)
1969/12/31/18:00:19.960,(57 37 4 13 34 46 33 38)
1969/12/31/18:00:19.990,(-29 -13 39 4 -43 -52 -15 0)
1969/12/31/18:00:19.990,(17 -35 -42 -12 70 79 -2 -11)
1969/12/31/18:00:19.992,(36 31 -26 -10 -32 -21 16 8)
1969/12/31/18:00:19.992,(9 73 94 45 32 26 -10 -27)
1969/12/31/18:00:20.024,(-35 -58 -45 -31 -42 -42 3 -11)
1969/12/31/18:00:20.024,(8 19 6 15 72 48 -7 -7)
1969/12/31/18:00:20.024,(16 -25 -3 -13 -61 -67 11 25)
1969/12/31/18:00:20.024,(23 31 -16 -16 -17 -53 -39 -23)
1969/12/31/18:00:20.045,(-69 -98 -53 -29 4 -1 -16 -69)
1969/12/31/18:00:20.045,(-52 24 62 23 -5 0 1 1)
1969/12/31/18:00:20.046,(17 31 -9 13 102 62 -9 -22)
1969/12/31/18:00:20.046,(-61 -69 -17 -7 -29 26 1 -15)
1969/12/31/18:00:20.077,(74 48 -31 -10 -58 -89 -6 26)
1969/12/31/18:00:20.077,(-27 -46 -8 -26 -35 -30 -17 -11)
1969/12/31/18:00:20.077,(-29 0 40 24 43 15 6 -24)
1969/12/31/18:00:20.077,(-6 -18 -41 -31 -82 -41 -14 -7)
1969/12/31/18:00:20.099,(-1 -5 31 24 42 44 23 9)
1969/12/31/18:00:20.099,(12 16 -29 -11 -2 6 6 -31)
1969/12/31/18:00:20.099,(7 -60 -55 -24 -6 -5 -41 -46)
1969/12/31/18:00:20.099,(-7 58 65 30 22 -18 3 -5)
1969/12/31/18:00:20.131,(-2 -39 -27 2 62 78 21 30)
1969/12/31/18:00:20.131,(-9 46 46 40 15 8 15 -12)
1969/12/31/18:00:20.132,(26 48 27 -21 -67 -61 11 44)
1969/12/31/18:00:20.132,(39 -68 -42 -10 50 40 -11 -11)
1969/12/31/18:00:20.162,(-44 5 19 -11 -64 -42 -12 -2)
1969/12/31/18:00:20.162,(6 -3 -4 18 108 105 46 31)
1969/12/31/18:00:20.163,(-34 -44 -22 5 -34 -39 -42 -66)
1969/12/31/18:00:20.163,(31 12 -22 -33 -72 -57 -30 37)
1969/12/31/18:00:20.185,(37 35 24 18 23 11 8 10)
1969/12/31/18:00:20.185,(-6 -12 -9 -4 31 30 15 18)
1969/12/31/18:00:20.186,(-25 -53 -40 -23 -41 -49 -17 -31)
1969/12/31/18:00:20.186,(-2 35 25 11 21 4 -5 -10)
1969/12/31/18:00:20.216,(-13 -20 -13 -5 -4 3 1 -3)
1969/12/31/18:00:20.216,(-9 -24 -7 -19 -75 -106 -29 1)
1969/12/31/18:00:20.218,(3 20 22 23 68 76 25 21)
1969/12/31/18:00:20.218,(8 -7 7 19 59 44 19 28)
1969/12/31/18:00:20.249,(-57 -40 -18 -28 -87 -43 -8 -51)
1969/12/31/18:00:20.249,(40 58 26 7 -22 -22 -23 13)
1969/12/31/18:00:20.249,(-5 -1 -1 -6 23 23 -13 -44)
1969/12/31/18:00:20.249,(-27 11 47 24 8 -3 7 -9)
1969/12/31/18:00:20.271,(42 25 -8 19 98 81 36 67)
1969/12/31/18:00:20.271,(-14 -30 -15 -21 -86 -72 -23 -20)
1969/12/31/18:00:20.271,(5 -4 -13 -16 -26 -21 23 30)
1969/12/31/18:00:20.271,(0 -9 -15 5 49 53 -20 -7)
1969/12/31/18:00:20.302,(19 35 -8 -20 -40 -54 -2 15)
1969/12/31/18:00:20.302,(38 19 3 20 57 11 21 14)
1969/12/31/18:00:20.304,(-36 -42 41 24 -18 27 -1 22)
1969/12/31/18:00:20.304,(-16 -19 -39 -33 -61 -41 13 6)
1969/12/31/18:00:20.335,(20 19 29 18 18 28 3 49)
1969/12/31/18:00:20.335,(-26 -16 -17 -6 8 1 -18 -26)
1969/12/31/18:00:20.337,(43 36 -10 -5 29 21 16 48)
1969/12/31/18:00:20.337,(-3 8 4 8 12 4 15 -7)
1969/12/31/18:00:20.358,(-20 -9 40 9 -44 -48 -27 -34)
1969/12/31/18:00:20.358,(-11 -8 -20 -9 -2 7 -1 -14)
1969/12/31/18:00:20.360,(19 1 1 8 26 59 37 53)
1969/12/31/18:00:20.360,(2 0 -14 2 18 -5 19 -2)
1969/12/31/18:00:20.388,(11 2 -16 -25 -46 -47 -28 -6)
1969/12/31/18:00:20.388,(-1 3 10 -10 40 49 3 -26)
1969/12/31/18:00:20.390,(11 1 -9 -15 -40 -46 -15 34)
1969/12/31/18:00:20.390,(4 13 12 19 13 -13 -16 -21)
1969/12/31/18:00:20.421,(0 -7 -7 22 15 11 6 -3)
1969/12/31/18:00:20.421,(12 2 19 17 5 15 19 19)
1969/12/31/18:00:20.423,(-32 0 -7 2 41 36 7 -15)
1969/12/31/18:00:20.423,(-3 -1 4 -6 -24 -30 -11 6)
1969/12/31/18:00:20.443,(25 14 1 -6 7 -1 -1 13)
1969/12/31/18:00:20.443,(-12 -10 -43 -29 -26 -5 -13 -23)
1969/12/31/18:00:20.444,(6 -9 30 26 51 13 -22 -15)
1969/12/31/18:00:20.444,(-32 27 22 8 -13 6 6 -49)
1969/12/31/18:00:20.474,(5 -34 -13 -15 -42 -28 -14 7)
1969/12/31/18:00:20.474,(2 35 29 1 -24 -21 -21 -27)
1969/12/31/18:00:20.476,(8 1 -17 7 55 46 1 0)
1969/12/31/18:00:20.476,(47 36 -8 22 58 42 68 37)
1969/12/31/18:00:20.507,(-90 -60 38 -28 -77 -81 -98 -83)
1969/12/31/18:00:20.507,(13 2 -9 -3 31 44 11 23)
1969/12/31/18:00:20.507,(12 10 4 -6 7 -1 1 -6)
1969/12/31/18:00:20.507,(2 2 -19 -30 13 28 -3 -4)
1969/12/31/18:00:20.540,(6 -1 -15 47 45 82 29 20)
1969/12/31/18:00:20.540,(-3 -10 8 11 -27 -68 30 8)
1969/12/31/18:00:20.542,(9 30 7 11 19 30 -27 -36)
1969/12/31/18:00:20.542,(-18 -35 -3 -12 -75 -65 3 11)
1969/12/31/18:00:20.560,(28 18 -15 -4 12 31 29 25)
1969/12/31/18:00:20.560,(-23 -15 13 7 17 22 -40 -24)
1969/12/31/18:00:20.562,(5 23 2 5 -19 -28 4 14)
1969/12/31/18:00:20.562,(27 -3 -3 -5 3 14 3 25)
1969/12/31/18:00:20.593,(-34 -10 -9 -19 6 -27 22 -18)
1969/12/31/18:00:20.593,(-35 -6 2 26 8 16 5 -48)
1969/12/31/18:00:20.595,(-10 4 -6 -17 -11 -27 13 29)
1969/12/31/18:00:20.595,(-21 -17 -2 -8 -28 21 -5 -21)
1969/12/31/18:00:20.615,(1 8 -4 13 75 56 3 -14)
1969/12/31/18:00:20.615,(22 7 -1 -23 -87 -85 -43 1)
1969/12/31/18:00:20.625,(34 23 4 0 25 98 -2 15)
1969/12/31/18:00:20.625,(-7 -16 -4 -17 -53 -73 19 -12)
1969/12/31/18:00:20.646,(-47 -27 -18 -14 10 40 -10 -35)
1969/12/31/18:00:20.646,(22 -2 5 41 29 -14 60 93)
1969/12/31/18:00:20.648,(-12 -1 1 -6 -11 62 -52 -100)
1969/12/31/18:00:20.648,(0 -2 0 22 22 -20 -1 22)
1969/12/31/18:00:20.691,(43 25 -1 -11 -13 -10 28 24)
1969/12/31/18:00:20.691,(-62 -40 -21 -35 -27 -21 -40 -9)
1969/12/31/18:00:20.692,(46 17 11 5 -3 -9 26 86)
1969/12/31/18:00:20.692,(58 9 -3 -4 19 -14 10 41)
1969/12/31/18:00:20.699,(-95 -25 -10 -6 -15 -65 -64 -60)
1969/12/31/18:00:20.699,(-52 -11 1 -8 12 84 11 -38)
1969/12/31/18:00:20.711,(41 13 -5 3 -6 -70 -25 -29)
1969/12/31/18:00:20.711,(-28 -3 3 0 -2 3 -2 -5)
1969/12/31/18:00:20.732,(74 18 4 4 6 -2 9 42)
1969/12/31/18:00:20.732,(4 2 4 1 0 5 -30 1)
1969/12/31/18:00:20.734,(-25 -14 -15 -8 -8 -5 56 -10)
1969/12/31/18:00:20.734,(-53 -44 -20 -13 2 -38 -65 -53)
1969/12/31/18:00:20.765,(50 31 11 14 7 34 40 28)
1969/12/31/18:00:20.765,(-81 -3 -2 -7 0 -9 1 -49)
1969/12/31/18:00:20.767,(-21 -34 -39 -24 -26 -45 -16 -38)
1969/12/31/18:00:20.767,(-67 -39 6 -3 3 15 -14 8)
1969/12/31/18:00:20.798,(49 40 6 8 9 16 8 -14)
1969/12/31/18:00:20.798,(90 41 24 7 1 -10 17 83)
1969/12/31/18:00:20.800,(-39 -31 -17 -3 -5 -9 1 -2)
1969/12/31/18:00:20.800,(-20 22 1 -4 -1 24 -38 -29)
1969/12/31/18:00:20.818,(-12 -16 -25 -10 2 -7 12 7)
1969/12/31/18:00:20.818,(31 7 62 27 4 3 11 24)
1969/12/31/18:00:20.820,(62 37 21 8 7 -1 35 67)
1969/12/31/18:00:20.820,(7 -26 -16 -6 4 19 5 -7)
1969/12/31/18:00:20.851,(0 13 16 10 -3 -11 -7 -38)
1969/12/31/18:00:20.851,(16 4 -38 -19 -10 -17 -22 -30)
1969/12/31/18:00:20.851,(22 16 9 -1 -6 -1 13 36)
1969/12/31/18:00:20.851,(-97 -68 -15 1 0 -3 -16 -56)
1969/12/31/18:00:20.884,(19 5 -7 -13 -11 -10 -6 8)
1969/12/31/18:00:20.884,(16 -29 -35 -34 -18 -8 -8 -43)
1969/12/31/18:00:20.886,(4 9 18 15 1 -16 -20 -67)
1969/12/31/18:00:20.886,(75 65 22 20 12 24 12 15)
1969/12/31/18:00:20.904,(-24 -23 -5 -15 -19 -26 -45 -108)
1969/12/31/18:00:20.904,(9 6 9 8 6 5 7 44)
1969/12/31/18:00:20.906,(-59 -33 -11 -8 -6 -5 3 -2)
1969/12/31/18:00:20.906,(-2 8 -2 -3 -1 -1 -12 -14)
1969/12/31/18:00:20.937,(27 -2 -3 6 7 8 25 74)
1969/12/31/18:00:20.937,(6 9 -3 -1 2 1 9 -1)
1969/12/31/18:00:20.937,(-5 -5 -3 -3 -2 -4 -7 4)
1969/12/31/18:00:20.937,(13 8 4 3 3 13 12 17)
1969/12/31/18:00:20.957,(15 21 11 7 7 12 26 64)
1969/12/31/18:00:20.957,(-11 -20 -13 -7 -2 0 -1 -10)
1969/12/31/18:00:20.969,(-8 1 4 3 -1 -6 3 16)
1969/12/31/18:00:20.969,(26 -3 0 0 -1 4 6 15)
1969/12/31/18:00:20.990,(-14 -10 2 -1 1 0 1 15)
1969/12/31/18:00:20.990,(-4 12 -2 -5 -4 -9 -10 -21)
1969/12/31/18:00:20.992,(-13 -15 -7 -3 -2 -4 -6 10)
1969/12/31/18:00:20.992,(23 16 5 4 5 8 16 21)
1969/12/31/18:00:21.023,(-54 -20 -12 -7 -3 -7 -24 -72)
1969/12/31/18:00:21.023,(13 11 17 12 5 3 8 24)
1969/12/31/18:00:21.023,(2 4 1 2 0 -3 0 -6)
1969/12/31/18:00:21.023,(-6 14 20 5 3 6 7 29)
1969/12/31/18:00:21.066,(4 -7 -10 -2 -4 -4 -3 3)
1969/12/31/18:00:21.066,(-3 1 -2 -1 -2 1 -3 -15)
1969/12/31/18:00:21.078,(-35 -39 -22 -11 -7 -4 -9 -39)
1969/12/31/18:00:21.079,(12 18 6 3 4 6 5 -5)
1969/12/31/18:00:21.081,(-6 6 7 1 2 3 7 11)
1969/12/31/18:00:21.081,(-1 -7 -14 -11 -8 -9 -10 -9)
1969/12/31/18:00:21.082,(15 6 12 5 -1 -4 -8 20)
1969/12/31/18:00:21.082,(8 -6 -2 3 0 -1 0 -5)
1969/12/31/18:00:21.109,(7 -16 -17 -5 -1 -3 3 -7)
1969/12/31/18:00:21.109,(18 28 8 1 2 4 6 10)
1969/12/31/18:00:21.109,(-10 -44 -28 -9 -2 -5 -7 -15)
1969/12/31/18:00:21.109,(18 4 -16 -10 -3 2 0 -1)
1969/12/31/18:00:21.154,(-16 17 37 12 2 5 1 -6)
1969/12/31/18:00:21.154,(-15 -1 -10 -10 -7 -4 6 -7)
1969/12/31/18:00:21.155,(0 12 16 11 5 2 -14 -7)
1969/12/31/18:00:21.155,(11 -27 -35 -14 -7 -3 -1 7)
1969/12/31/18:00:21.162,(11 23 19 8 4 1 -7 9)
1969/12/31/18:00:21.162,(-17 -46 -41 -15 -7 -2 -3 -12)
1969/12/31/18:00:21.164,(6 72 62 20 3 -1 -3 -3)
1969/12/31/18:00:21.164,(-4 -21 -14 -4 0 2 9 -2)
1969/12/31/18:00:21.195,(0 -21 -32 -14 -9 -8 -12 7)
1969/12/31/18:00:21.195,(-20 -9 14 9 6 3 7 -4)
1969/12/31/18:00:21.197,(0 -14 -26 -12 -3 1 11 -2)
1969/12/31/18:00:21.197,(-5 15 30 11 3 -1 -12 -9)
1969/12/31/18:00:21.228,(1 -1 -14 -4 4 8 8 8)
1969/12/31/18:00:21.228,(11 6 -12 -3 -1 -1 -1 1)
1969/12/31/18:00:21.228,(-2 10 24 11 3 1 2 -1)
1969/12/31/18:00:21.230,(-3 7 1 -3 -1 -1 8 2)
1969/12/31/18:00:21.248,(-3 -7 -19 -13 -10 -15 -18 -11)
1969/12/31/18:00:21.248,(-3 -21 13 12 4 4 -1 1)
1969/12/31/18:00:21.250,(-8 -46 -44 -21 -9 1 10 2)
1969/12/31/18:00:21.250,(1 41 34 11 4 0 7 -6)
1969/12/31/18:00:21.281,(-7 1 14 6 1 -4 -16 -8)
1969/12/31/18:00:21.281,(-6 0 -3 0 -4 0 -2 -3)
1969/12/31/18:00:21.283,(6 -1 0 2 1 7 -11 0)
1969/12/31/18:00:21.283,(-7 -32 -14 -9 -9 -1 -3 -11)
1969/12/31/18:00:21.316,(1 8 4 -3 -5 -3 4 3)
1969/12/31/18:00:21.316,(13 23 12 1 0 -3 -5 0)
1969/12/31/18:00:21.317,(-8 6 0 3 2 1 6 1)
1969/12/31/18:00:21.317,(-8 -42 -22 -9 -4 -5 -15 -10)
1969/12/31/18:00:21.357,(1 46 51 17 6 1 2 -7)
1969/12/31/18:00:21.357,(-6 -25 -28 -17 -6 -1 -4 2)
1969/12/31/18:00:21.359,(-3 -13 1 4 -1 -1 -5 -9)
1969/12/31/18:00:21.359,(5 29 3 5 1 2 -5 -4)
1969/12/31/18:00:21.367,(-16 -104 -86 -39 -13 1 8 5)
1969/12/31/18:00:21.367,(17 93 68 37 13 2 -5 6)
1969/12/31/18:00:21.367,(-10 -16 -24 -4 3 -7 0 -19)
1969/12/31/18:00:21.369,(1 -48 -79 -41 -11 -17 6 26)
1969/12/31/18:00:21.400,(-7 -32 -49 -18 0 -7 23 44)
1969/12/31/18:00:21.400,(-2 -9 0 10 8 -2 13 0)
1969/12/31/18:00:21.402,(5 68 61 25 10 -7 -1 -8)
1969/12/31/18:00:21.402,(1 20 -14 -9 -5 -8 -5 -28)
1969/12/31/18:00:21.420,(23 10 -16 -3 -3 -5 4 28)
1969/12/31/18:00:21.420,(-24 -107 -48 -29 -9 -2 1 -15)
1969/12/31/18:00:21.422,(13 27 22 3 1 4 8 24)
1969/12/31/18:00:21.422,(-5 -37 -26 -17 -7 -4 1 0)
1969/12/31/18:00:21.453,(-8 79 93 29 7 1 -14 -27)
1969/12/31/18:00:21.453,(-6 -60 -13 -3 -1 3 2 0)
1969/12/31/18:00:21.453,(4 7 -47 -21 -9 -8 1 6)
1969/12/31/18:00:21.453,(10 21 43 26 9 7 4 11)
1969/12/31/18:00:21.496,(-6 -14 1 0 -3 1 3 -6)
1969/12/31/18:00:21.496,(11 37 -23 -16 -8 0 -9 -4)
1969/12/31/18:00:21.498,(-5 -23 -5 -4 -6 3 -8 -1)
1969/12/31/18:00:21.498,(2 37 23 9 0 9 -9 -6)
1969/12/31/18:00:21.506,(0 -6 21 15 -1 7 -4 -15)
1969/12/31/18:00:21.506,(4 2 5 1 -1 1 -5 -1)
1969/12/31/18:00:21.508,(1 -20 5 -3 -5 2 1 0)
1969/12/31/18:00:21.508,(1 16 22 17 4 3 -8 -8)
1969/12/31/18:00:21.551,(9 27 15 12 4 3 -2 -7)
1969/12/31/18:00:21.551,(2 17 11 1 0 0 -4 1)
1969/12/31/18:00:21.552,(-10 -18 -6 -4 -2 3 2 -6)
1969/12/31/18:00:21.552,(4 13 19 8 1 2 -2 11)
1969/12/31/18:00:21.584,(-5 -16 -10 -4 -4 2 -6 -13)
1969/12/31/18:00:21.584,(-1 7 8 -2 -4 2 -4 -5)
1969/12/31/18:00:21.584,(-1 7 -3 -3 -1 2 -5 -6)
1969/12/31/18:00:21.584,(1 -14 -4 1 0 -2 -1 1)
1969/12/31/18:00:21.594,(5 13 6 11 4 -2 2 5)
1969/12/31/18:00:21.594,(-3 10 4 0 -1 -4 -1 -2)
1969/12/31/18:00:21.595,(-4 -22 -7 -2 -1 1 1 -3)
1969/12/31/18:00:21.595,(-2 -2 7 -3 -4 0 -5 -5)
1969/12/31/18:00:21.628,(-8 -10 -19 -14 -4 -2 1 -3)
1969/12/31/18:00:21.628,(6 7 -11 2 5 -12 9 10)
1969/12/31/18:00:21.629,(-10 -2 -37 -21 2 -23 18 17)
1969/12/31/18:00:21.629,(-10 4 -25 -10 9 -18 23 19)
1969/12/31/18:00:21.658,(-4 1 -23 -15 4 -13 14 13)
1969/12/31/18:00:21.658,(-7 -1 -11 -9 -1 -5 6 10)
1969/12/31/18:00:21.659,(5 8 7 -3 -5 7 -9 -2)
1969/12/31/18:00:21.659,(3 -1 19 2 -8 8 -12 -15)
1969/12/31/18:00:21.680,(0 -15 18 11 -6 12 -14 -14)
1969/12/31/18:00:21.680,(2 2 17 8 -6 11 -16 -15)
1969/12/31/18:00:21.681,(1 2 15 8 -6 13 0 -9)
1969/12/31/18:00:21.681,(-1 0 5 3 -3 8 -1 -4)
1969/12/31/18:00:21.711,(-1 -19 -6 2 1 4 -5 -6)
1969/12/31/18:00:21.711,(1 30 17 5 1 -3 -4 -3)
1969/12/31/18:00:21.713,(6 11 9 12 6 0 -6 -1)
1969/12/31/18:00:21.713,(-1 -6 -4 1 0 -2 2 5)
