timestamp,_data,_check_fields
6239958692.0,"array('h', [2.0039379685024112, 1.4102173755986789, 2.382590123658274, 6.805247152973931, 3.9652936509950485, 2.846408008982569, 1.357865949299048, 1.6741261103943266])",False
6259998367.368421,"array('h', [0.7511369968287984, 0.5839394813346349, 0.2396938463088942, -0.3524243995039225, 0.9081317542915792, 1.295298836328084, 0.6346959908185957, 0.8558257522779041])",False
6280038042.736842,"array('h', [1.1574490114063223, 0.9750288243788079, 1.2591875119857303, 1.6923391906034781, 1.5220813984001411, 1.2310983789034726, 0.7872731587937805, 0.8908969750812586])",False
6300077718.105263,"array('h', [0.9066105749128281, 0.7584780554347264, 0.7670739236746673, 0.5566599960381098, 0.8323941190149134, 1.1119487963976151, 0.6406712352829099, 0.7354718082046905])",False
6320117393.473684,"array('h', [1.1459911963491696, 0.9711698249448021, 1.0112553210083024, 1.2851294226888856, 1.1486079773444076, 1.2820595623677324, 0.816826453293755, 0.9578244052786127])",False
6340157068.842105,"array('h', [1.0490799827162154, 0.7364581671441565, 0.7991728299928434, 0.553276231349053, 0.8408939992392048, 1.123986371225073, 0.7221932534766187, 0.9408662410815078])",False
6360196744.210526,"array('h', [1.1854295002578177, 0.8784721506386627, 0.9247046821089525, 1.123312656294495, 0.9493381506986031, 1.1624769233323942, 0.8289557095385506, 1.030503237177975])",False
6380236419.578947,"array('h', [1.0697594783432043, 0.7912315594402386, 0.7562202927407474, 0.6218039262848696, 0.7792560066158597, 1.0839063318296007, 0.8456623207562448, 1.0092567449412437])",False
6400276094.947369,"array('h', [1.08799390170558, 0.8421189958077404, 0.8636811706626467, 1.042101828096481, 0.9320488148545587, 1.1169958720771995, 0.93688407107941, 1.0033197823920121])",False
6420315770.315789,"array('h', [0.9807771775960573, 0.8189240150949637, 0.7712220045823281, 0.6883727496600963, 0.8290764656885096, 1.107159424856615, 0.9724634723768866, 0.9780233707804483])",False
6440355445.684211,"array('h', [1.0704755812453444, 0.8687708297139337, 0.8450160840448765, 1.0701121035701149, 0.9199696312901493, 1.08392578708015, 1.0466777191528076, 0.9862800308294638])",False
6460395121.052631,"array('h', [1.055674554235499, 0.8712662552416011, 0.7494669529881164, 0.7534455576910362, 0.8708780174490162, 1.0427805761453615, 1.0451368366817633, 0.9842221220634205])",False
6480434796.421053,"array('h', [1.1504856267465855, 0.9704332442669659, 0.8307329980678398, 1.0941908615487574, 0.878261904988428, 1.0337098630969703, 1.2148770530357336, 1.0963231298968166])",False
6500474471.789474,"array('h', [1.1693305606932651, 0.8912192019162554, 0.8540567789448009, 0.8102634019831911, 0.8272425419058631, 1.0087957864038675, 1.2007337489038499, 1.1094658428149549])",False
6520514147.157895,"array('h', [1.1877287478005019, 0.8937744779701023, 0.8388883698384467, 1.0541510554598215, 0.8028141845020631, 1.045630851143329, 1.1937882992068605, 1.1186368849268338])",False
6540553822.526316,"array('h', [1.2112722646222847, 0.8808736673187724, 0.7916194198189819, 0.7767063832913361, 0.8356731602415103, 1.0793631737300469, 1.2724140634649208, 1.1934372014696428])",False
6560593497.894737,"array('h', [1.2755864544661624, 0.9439555938556865, 0.9057303818934377, 1.0964793862585749, 0.9302881490606051, 1.036816152033484, 1.3681234792959656, 1.2233883161799608])",False
6580633173.263158,"array('h', [1.4693578649196477, 1.2224360794747449, 1.5149046626178906, 1.2985547673451785, 1.364287406477518, 1.1987485586997797, 1.4061616689196226, 1.3954944519445236])",False
6600672848.631578,"array('h', [1.7177066834064436, 1.6666815717277883, 2.0349250115440745, 2.01316542791699, 2.2281285604827827, 1.4140629062724879, 1.6199825453227887, 1.5675833275808082])",False
6620712524.0,"array('h', [1.9470806762728148, 1.8594554157555818, 2.8333629106670144, 2.7968230538630245, 3.354854607945898, 1.7740659026974437, 1.7443343124303092, 1.7819280387722878])",False
6640752199.368421,"array('h', [2.2326279641525417, 2.0964164258500495, 3.689930247984198, 4.91241672490284, 5.002676048540887, 1.9527762819996328, 1.9401341564865937, 1.8446733612372443])",False
6660791874.736842,"array('h', [2.7510410172839763, 2.5747741405880418, 5.01185884524256, 7.386509625385874, 6.744065185665097, 2.8070277562698625, 2.3915761809267466, 2.188581290157971])",False
6680831550.105263,"array('h', [3.26770296445686, 3.0968738063182726, 5.950318412535481, 10.14184349285976, 8.424682529307912, 3.689842250402639, 2.7919925961981447, 2.5751013797741638])",False
6700871225.473684,"array('h', [3.6611871237194658, 3.5067237185725015, 7.205662367389914, 14.042219948176939, 11.786039652548682, 4.406052606542684, 3.0674018061847748, 2.8287953067287])",False
6720910900.842105,"array('h', [3.958463745253563, 3.9760747576183215, 8.926252790334996, 17.283846616921814, 15.535652438135784, 5.211999794334491, 3.1628263624431607, 3.0389118540442426])",False
6740950576.210526,"array('h', [4.293768315695142, 4.371861527836953, 9.608901316054322, 19.518982077185527, 18.002660590675525, 6.0101446791309305, 3.451157549003624, 3.3058924449897367])",False
6760990251.578947,"array('h', [4.530457326768929, 4.836980734937318, 10.877534336157415, 24.030046450176542, 19.757425020791874, 6.3413812722578085, 3.678460421406037, 3.497649292551112])",False
6781029926.947369,"array('h', [4.976480928673455, 5.814445752578338, 13.356429200416002, 30.199505936940316, 22.708752444511667, 7.5266009452662255, 4.228390522763136, 3.8614848412419196])",False
6801069602.315789,"array('h', [5.505032651973325, 7.245341459087064, 17.16661166110264, 37.454416087450085, 27.838772370898738, 9.938180936313936, 5.011322505855259, 4.371883011361622])",False
6821109277.684211,"array('h', [5.577759592587008, 7.555041397756381, 18.443727498361458, 41.2667495926393, 30.902254115082822, 11.148354441435282, 5.331065391757077, 4.2953820869287656])",False
6841148953.052631,"array('h', [5.491962052935823, 7.423738606033098, 19.002373905230026, 43.57841938055586, 32.0760156606379, 11.815922336218735, 5.551532928751831, 4.233413811523949])",False
6861188628.421053,"array('h', [5.181680375651057, 7.0451933657196575, 18.851035022565988, 43.4699938451949, 31.837806864888016, 11.696569662062542, 5.350708110347964, 4.003096241802484])",False
6881228303.789474,"array('h', [5.020298998794082, 6.948518199823082, 18.153446788671733, 42.69946296608623, 31.272579999333473, 11.672332237177685, 5.289068628053311, 3.8366894864877845])",False
6901267979.157895,"array('h', [4.786189067094895, 6.705046910040552, 17.238576533713033, 40.64376608243578, 29.87013565023711, 11.47514190513657, 4.93337170842966, 3.7636794861517724])",False
6921307654.526316,"array('h', [4.340617733388375, 6.213274958703345, 16.101416814211778, 38.876379110391724, 28.53253139381141, 10.614603504984853, 4.50226753447612, 3.3624487718203118])",False
6941347329.894737,"array('h', [3.905398354572446, 5.855121164024646, 15.494093156266679, 35.575034802547236, 26.26758542192702, 9.847040708258715, 4.091757997619829, 3.0418932127752396])",False
6961387005.263158,"array('h', [3.575360735459049, 5.424565243173732, 13.779289953772569, 31.930883279045137, 22.37123789392114, 9.185089997885381, 4.018010863480033, 2.813598952713697])",False
6981426680.631578,"array('h', [3.23700091622829, 5.011382864241416, 12.764850216307785, 29.993777887224475, 19.51199410863223, 8.454915145464781, 3.7255896633862657, 2.473348867554934])",False
7001466356.0,"array('h', [2.932171178650961, 4.69026656950784, 12.118160654850723, 27.78562016078508, 17.944819098003958, 8.123132970343754, 3.4154057368403725, 2.1854250897534455])",False
7021506031.368421,"array('h', [2.6895132377776805, 4.2082642470075164, 10.64172446000094, 22.90304098305799, 16.43822413495935, 7.845541236589592, 3.2515428610915857, 2.059494889317993])",False
7041545706.736842,"array('h', [2.3927554350151787, 2.971390361717319, 7.305535778746649, 16.881875515883966, 12.455783146800814, 6.0242642400750315, 2.6376136904059493, 1.8909906744888119])",False
7061585382.105263,"array('h', [2.3871858098622027, 2.143189366564144, 5.555687552007011, 14.901586558169186, 9.364752299257077, 4.488787861061305, 2.237893822485944, 1.9443210613363224])",False
7081625057.473684,"array('h', [2.342038124494425, 2.1412252134128926, 4.975264100502113, 13.114621749658701, 8.092876864013986, 3.92068138205826, 2.039490125392556, 2.102003567629372])",False
7101664732.842105,"array('h', [3.136200133924351, 2.526792313794116, 4.334246510833864, 12.929436277150286, 7.71522458648174, 4.050433375465112, 2.5561736641407946, 2.92466165208142])",False
7121704408.210526,"array('h', [3.5340438346665923, 3.112518576026267, 4.501172715085053, 13.288656220940114, 7.517608381446556, 4.0502255518055295, 2.8076056858115273, 3.431614195352463])",False
7141744083.578947,"array('h', [5.0234014822797874, 3.756429672720537, 4.580378790491189, 14.590935163737615, 7.460744146697255, 4.010764835177109, 2.9764929082391154, 4.04008049170333])",False
7161783758.947369,"array('h', [5.849168592965532, 4.397142154482622, 5.667452343004304, 16.580926444794883, 8.11175791970919, 4.375862360743981, 3.7105201118115834, 4.720526018865952])",False
7181823434.315789,"array('h', [6.508862901829598, 4.942059954477317, 8.533497879564663, 21.457632140144643, 10.407092502472272, 5.373570064548986, 4.301293792519153, 5.202751643367012])",False
7201863109.684211,"array('h', [7.692515475157482, 5.4080824733106905, 10.197495233237008, 24.63952228915464, 12.624873291294678, 6.286749051313461, 4.7601859099322485, 5.853724760584617])",False
7221902785.052631,"array('h', [8.397790184810635, 5.721308091046011, 10.463086311534632, 24.579742659444776, 12.518022441468668, 6.257689486618198, 4.7575840082960905, 6.246856785166689])",False
7241942460.421053,"array('h', [9.801868472157862, 6.170224149525174, 10.543044513504741, 25.096485239218175, 13.477116888325503, 6.640420885580231, 4.8973119523824185, 6.7086135071310515])",False
7261982135.789474,"array('h', [10.27375468400927, 6.310630682550448, 11.380812291512509, 25.416393547247562, 16.46113000539932, 8.209608306679472, 5.427947700376299, 7.098162295302552])",False
7282021811.157895,"array('h', [10.74673795083477, 6.5511025851928295, 12.49743143537792, 27.60334983000388, 18.227331749015928, 9.037485256736188, 5.911152611613747, 7.370435038630452])",False
7302061486.526316,"array('h', [10.752213064627046, 6.5354038800015495, 12.19755940731587, 25.44263359605493, 17.2917494900242, 8.783741748803761, 5.8464532653949695, 7.194577953823011])",False
7322101161.894737,"array('h', [10.962151708041333, 6.557215551373127, 11.527814318096818, 23.659569264396758, 17.45611765613968, 9.095961924057548, 6.017887692674986, 7.331467232654048])",False
7342140837.263158,"array('h', [10.700971049060525, 6.2756110855623035, 11.34729410294676, 23.059153730404095, 18.275210718408616, 9.24517425541187, 5.980252556738248, 7.080504721563082])",False
7362180512.631578,"array('h', [10.452849061732163, 5.94903314077253, 11.77695966036245, 23.418235997007134, 18.600640795856812, 8.988546611672323, 5.789451237602924, 6.791887679913026])",False
7382220188.0,"array('h', [9.987881721843692, 5.540264116299541, 12.46115171571646, 24.767218900986496, 18.790921132957823, 9.092649960343081, 5.953817994762278, 6.796439970217365])",False
7402259863.368422,"array('h', [8.848066860067243, 5.030213541511795, 12.420143013352975, 24.043310994934938, 18.386383543894976, 8.92636775309544, 5.690535985036265, 6.300222462716863])",False
7422299538.736842,"array('h', [9.077409093465427, 5.0216925556492065, 11.955401116862614, 24.255992708098205, 18.675727524788485, 8.86483413809036, 5.216494809622757, 6.130094389091449])",False
7442339214.105263,"array('h', [7.926138496958046, 4.951680028181641, 11.791754859544785, 25.093408457328657, 19.314253985383793, 9.040815723769855, 4.9644716173379075, 5.701953953387019])",False
7462378889.473684,"array('h', [7.378172251042138, 4.70458870991173, 11.845225466359144, 26.09810314854146, 19.37890251411535, 8.818775952036667, 4.80606813591895, 5.4616520853506385])",False
7482418564.842105,"array('h', [6.299613790688957, 4.43555236562608, 12.327121091343386, 27.516032758298493, 19.910258589370727, 8.96054529338928, 5.169728242265686, 5.443563275455389])",False
7502458240.210526,"array('h', [5.671377105059182, 4.2781770177752225, 12.361661450195687, 28.247240271514908, 17.655192669329235, 7.702402238315888, 5.130290555359724, 5.630042913681977])",False
7522497915.578947,"array('h', [5.725247254552524, 4.372135997726558, 12.049123480649268, 27.804662917009768, 15.323137094657755, 6.41697035031249, 4.686320410791904, 5.453413622778065])",False
7542537590.947369,"array('h', [6.416447258018374, 4.561508667241744, 12.104036380223494, 27.16165062943005, 15.310842381295386, 6.499796371078458, 4.491622861110162, 5.579872999967471])",False
7562577266.315789,"array('h', [6.806913805489348, 5.063259569990946, 12.223537105003098, 27.725734492199823, 15.01132943006961, 6.375350624431839, 4.697388652530243, 6.024546570078339])",False
7582616941.684211,"array('h', [8.444569288733458, 5.832847905286379, 12.807830430357035, 29.17475658409738, 13.760648932238855, 5.834768910436445, 4.812833768578854, 6.7215962550821375])",False
7602656617.052631,"array('h', [10.742355335383799, 7.053626911684595, 13.151680449465912, 30.79394264633386, 13.165374098907114, 5.738106003231884, 4.885020093839367, 7.2132112710265215])",False
7622696292.421053,"array('h', [15.384244098496309, 9.746962153349589, 12.557111580055455, 30.270919332668974, 12.849495412629489, 6.239606969550438, 5.697302528705156, 9.119033299604531])",False
7642735967.789474,"array('h', [16.527582273034525, 10.492222175325509, 12.37769916196258, 30.27496982186813, 12.63613983937217, 6.430980137878613, 6.1034943181947465, 9.918403972914351])",False
7662775643.157894,"array('h', [17.35701418368111, 10.79530298054966, 12.484868005426941, 31.80563813830286, 12.935667671609233, 6.382228634715688, 6.212265757991556, 10.755921678657229])",False
7682815318.526316,"array('h', [19.909553918847465, 11.555545336399557, 10.07704785505937, 27.540501268407354, 10.41839738633453, 5.68542083202259, 6.50041136115814, 11.87958854821471])",False
7702854993.894737,"array('h', [23.162013647413872, 12.722583660724295, 8.872039526416684, 24.557695638041505, 8.62951154920905, 5.417759392980242, 6.83857151951813, 12.831241435633267])",False
7722894669.263158,"array('h', [25.994704390252167, 14.756160641071677, 9.300675916262943, 25.080055530848817, 8.830865055707347, 5.725512217728698, 7.080757454615392, 13.422174359915445])",False
7742934344.631578,"array('h', [30.081153368328767, 17.734588446463825, 10.55693951898291, 24.57273997746667, 8.60503975498306, 6.079481509165543, 7.502524263652016, 14.765638886171253])",False
7762974020.0,"array('h', [34.09334486321034, 20.885479767548638, 10.777361769130565, 24.217036536652337, 8.415599499013963, 6.3305528039711065, 7.882492335609567, 16.36633738046329])",False
7783013695.368422,"array('h', [35.08596939228135, 21.831442744297508, 10.135649335634529, 24.5266589675756, 8.19946002725216, 6.441436174619385, 8.699033232737749, 17.329266243242465])",False
7803053370.736842,"array('h', [38.99558632061702, 24.48550999315889, 10.407025443669442, 24.3908857879456, 8.662950160729297, 7.240822567425384, 10.236654716323969, 19.710912363016828])",False
7823093046.105263,"array('h', [39.65340717452153, 25.09386422665877, 10.166445494844638, 23.23869302564509, 8.882842900914381, 8.190082462540182, 11.045832801187187, 19.531020049655133])",False
7843132721.473684,"array('h', [39.285176336104946, 25.327261639457234, 10.056398317344314, 22.315865404033115, 8.523026394748298, 8.391573501991031, 11.497664136434063, 19.921713228396175])",False
7863172396.842105,"array('h', [35.74407316633669, 23.15352774039395, 9.978632577755773, 22.67405270341723, 8.369850343889533, 8.18568514197357, 10.793402582665873, 18.476137427102614])",False
7883212072.210526,"array('h', [33.923924597721516, 21.942432542466683, 10.066575356029617, 22.689785343558267, 8.74267489871352, 7.774570975288853, 10.287459448761497, 17.27450024241687])",False
7903251747.578947,"array('h', [38.05177419441991, 23.625210050344513, 9.86671038069842, 20.080941357851554, 8.764168586150141, 8.95195704599397, 12.078036016159691, 19.59982466787815])",False
7923291422.947369,"array('h', [38.11015706096582, 23.55674635651379, 9.702678451276386, 18.396025009901255, 8.352162517541025, 9.756544822958936, 12.95529838934898, 19.8903916767769])",False
7943331098.315789,"array('h', [37.45406184188122, 23.666136829815407, 10.050868445741676, 18.876862653751683, 8.412598453300431, 9.994084954261545, 13.486689911682438, 19.74920768327439])",False
7963370773.684211,"array('h', [38.41550332540781, 25.376178246897165, 10.685772107446262, 18.098016967481488, 8.58627725233373, 10.743129277997767, 14.764476060158609, 21.42613457104457])",False
7983410449.052631,"array('h', [39.112063554343315, 25.843267254397055, 10.175892291073497, 16.294057082151614, 8.344364401279734, 11.213342916541698, 15.280827138989219, 22.484048919915306])",False
8003450124.421053,"array('h', [35.66163271038, 23.758558324102978, 8.920870628941653, 15.466709867553416, 8.485242729002186, 11.775780101664298, 15.685657967154194, 21.275413997410677])",False
8023489799.789474,"array('h', [38.107492765476366, 25.705071939801865, 8.725125521904918, 13.941002830163907, 8.393640797179392, 12.983233342688967, 17.231840037345506, 22.848534155744485])",False
8043529475.157894,"array('h', [37.455091896127804, 25.6160033094849, 8.669374488053828, 13.400009496586705, 8.516750267231336, 14.071820956661327, 17.923268489338938, 22.9934119485368])",False
8063569150.526316,"array('h', [36.636218274616795, 24.52911489826223, 8.868671986850346, 14.056497748108068, 8.983294753102456, 14.024866486142153, 17.92733441385354, 23.667476267162343])",False
8083608825.894737,"array('h', [38.69159017308255, 26.129376211555076, 8.962326808353291, 13.990700437638335, 9.327942991028229, 14.604899117166262, 18.629402417790843, 25.691254938012072])",False
8103648501.263158,"array('h', [40.44543330277072, 27.67142527924361, 8.984352942063767, 12.258364176250453, 9.469387255638285, 15.22782161384432, 19.233626760530854, 26.740547480521464])",False
8123688176.631578,"array('h', [41.892784006202376, 29.11080169928232, 9.014097257075552, 11.167491229722568, 9.035729301253614, 15.582819465635962, 20.04829351870028, 27.78658455041038])",False
8143727852.0,"array('h', [41.954137537738745, 30.178275660924406, 9.22203203033984, 11.40993285576881, 8.909692885335508, 15.37577959046729, 19.714721431522033, 28.49497103582105])",False
8163767527.368422,"array('h', [40.98367243027339, 31.500312423970115, 9.259608644973351, 11.5322711599848, 9.100951060479447, 14.652047273055821, 18.968692889775205, 27.644372544338772])",False
8183807202.736842,"array('h', [41.462886322003385, 33.11833628075294, 9.558006951981913, 10.675652182841699, 9.441291896236496, 14.950517005801359, 19.67878113367057, 29.554095437901637])",False
8203846878.105263,"array('h', [42.45466697828717, 33.92671840433978, 9.440710937588907, 10.856058240598882, 10.174686258829299, 15.778783120793513, 20.625555830160454, 31.71674302715191])",False
8223886553.473684,"array('h', [39.88006774561882, 32.10831455647098, 8.586464887377367, 10.995298251180142, 9.978531924755783, 15.361608744990109, 20.297808599404377, 30.29742524139353])",False
8243926228.842105,"array('h', [39.500495443932, 31.727402385069702, 8.74812158881799, 12.04527520991696, 10.43930706258555, 15.098694067192358, 20.048033183425016, 29.983148696169046])",False
8263965904.210526,"array('h', [37.767019738549294, 29.87679103597955, 8.794340373391075, 12.768331603406041, 10.708104206319215, 14.511152489213282, 18.799644488949202, 28.522807942819497])",False
8284005579.578947,"array('h', [35.54862560370022, 27.72152535710389, 8.92340339600148, 13.63000684554094, 10.770862009241462, 12.961408011251448, 17.01754932030626, 27.112262805922086])",False
8304045254.947369,"array('h', [36.2119500657058, 28.628311118181635, 8.62167067000957, 13.963494040254618, 10.271272426797625, 12.057969614882616, 16.083570148991836, 26.3605385596033])",False
8324084930.315789,"array('h', [37.192480954397325, 29.502327252877866, 8.587913141882426, 13.733961096061119, 9.682238185970283, 11.495582123703032, 15.216246224613831, 25.822405157991557])",False
8344124605.684211,"array('h', [36.589161493519086, 30.084978001165748, 8.882440092232132, 13.815834465513587, 9.807585129689016, 11.352654650917962, 15.440054220490364, 25.133916749032704])",False
8364164281.052631,"array('h', [35.703857819204856, 30.04153164702353, 8.72241777008846, 13.793877370568348, 9.930096963304528, 11.209316156755634, 15.441267707180424, 25.05274794294377])",False
8384203956.421053,"array('h', [34.29197153241146, 28.65453450231984, 8.602645010442489, 13.472929877574769, 10.38068752721413, 11.475288159062863, 15.34713792419074, 24.393725920288887])",False
8404243631.789474,"array('h', [31.856147227704238, 26.85679445154959, 8.044777924552024, 13.1525088836221, 10.072117347261504, 11.19025245372443, 14.9217256227581, 22.915505321012457])",False
8424283307.157894,"array('h', [32.804199712368444, 26.40720147318546, 7.984876712636674, 13.16790289507784, 9.76645233785175, 10.653089546927786, 14.235648975294952, 22.929649995922613])",False
8444322982.526316,"array('h', [29.541801821000714, 23.92177620040467, 7.2082071235002045, 12.565877108366351, 8.771908514838914, 9.570380137070629, 12.53628953319557, 19.662970249130325])",False
8464362657.894737,"array('h', [28.089498104518647, 22.74100677310378, 6.777820462363245, 12.043952797570496, 8.1634130316265, 8.651540279636972, 11.164916496513607, 17.60399003196476])",False
8484402333.263158,"array('h', [27.092311869110603, 22.238184181430036, 6.86844992333435, 12.521888827548986, 8.611518669590584, 8.800142087449073, 10.978755260050303, 17.21053736212988])",False
8504442008.631578,"array('h', [26.762894480305437, 21.95310199021505, 6.908337252915063, 13.108581441365079, 8.310748192867248, 8.244911252079037, 10.735985068272985, 16.87012273290469])",False
8524481684.0,"array('h', [26.024988919915028, 21.736134434597425, 7.197084640773559, 12.858421184450682, 8.02312876997828, 8.290624061618994, 11.015217356072931, 16.869821251246208])",False
8544521359.368422,"array('h', [24.07501750937841, 20.39641063894017, 6.806017186524304, 11.53842265515104, 7.6925216977562325, 8.52465592152523, 11.067490368199469, 16.159338133802635])",False
8564561034.736842,"array('h', [21.57886390191697, 18.39944319033704, 6.536808600733961, 10.707875337755306, 7.347042332403324, 8.321161200518864, 11.091161725209208, 15.467265496587823])",False
8584600710.105263,"array('h', [18.266496567987186, 15.522545816282117, 5.906041606962919, 10.28523703948163, 6.9140873228919215, 7.551548647946144, 10.074150063096912, 13.83654868680022])",False
8604640385.473684,"array('h', [17.548010159753925, 13.614744349441073, 5.51395880568665, 10.389838264496863, 6.618586361538704, 6.9723554661553395, 8.916312296892041, 13.103098540001156])",False
8624680060.842106,"array('h', [18.267463313725543, 14.062593375048374, 5.417799938333908, 9.719729774582415, 6.383505937864137, 7.007558467659082, 9.022585102133519, 13.54260987854498])",False
8644719736.210526,"array('h', [19.82717365428544, 14.59972057271335, 5.44913668020504, 9.393241433881201, 6.117347846781341, 6.949267358622554, 8.888595141439616, 13.709264183023876])",False
8664759411.578947,"array('h', [18.268695813212485, 12.940217066890908, 5.493015594454666, 8.85666440617566, 6.150640002420201, 7.192939184814544, 9.039106274790138, 13.109777371792605])",False
8684799086.947369,"array('h', [17.499789458085118, 12.010044791509433, 5.460115979572273, 9.121433969580371, 6.44703725579264, 7.408941631990655, 9.371632595231262, 12.76544276528191])",False
8704838762.315788,"array('h', [17.39204788418735, 12.102547822863306, 5.626431818402526, 8.99295461489161, 6.4848736938155005, 7.306829195762883, 9.26973834061641, 12.916266365662958])",False
8724878437.68421,"array('h', [16.727272589946974, 11.311978449597822, 5.363015520583232, 8.501612633890822, 6.423084289983347, 7.526372302296972, 9.547707075823832, 12.960612632309456])",False
8744918113.052631,"array('h', [16.49228619284336, 11.01430314998265, 4.721871580714859, 6.61742965582826, 6.059945318389861, 7.43711159163603, 9.583747435359236, 12.932749982116817])",False
8764957788.421053,"array('h', [15.847632240134297, 10.500576552315533, 4.361947778025041, 7.264450732845917, 6.561617792974979, 7.689255690597859, 9.949101227375824, 13.172095914133703])",False
8784997463.789474,"array('h', [15.929423163488115, 10.313647983029503, 4.2738267863435935, 8.10077048438148, 6.431886529143522, 7.259257124406513, 9.557220008270713, 12.994204371400574])",False
8805037139.157894,"array('h', [15.066163845452419, 9.832560505929985, 4.822755235804271, 9.211174269871941, 6.6896011058365445, 7.028135495162428, 9.088228736673754, 12.173330066498387])",False
8825076814.526316,"array('h', [14.624214590716777, 9.858865853838875, 5.369151648850736, 9.692431469312798, 7.205576995647798, 7.236475382504835, 9.01795218592613, 11.69593215522184])",False
8845116489.894737,"array('h', [14.10191344213393, 9.72442097855179, 6.00357749153126, 10.68743776228335, 7.8248259854940985, 7.370823673918962, 8.98071428284454, 11.324925202009728])",False
8865156165.263157,"array('h', [12.706154645505269, 9.000743974992139, 6.216271682811208, 10.781818391302913, 7.6652723559705604, 7.133443723181624, 8.548012671809932, 10.127063950069992])",False
8885195840.631578,"array('h', [10.042902117056073, 7.4156572403482715, 6.966786996596389, 13.52802236942173, 8.458614695063407, 6.707507827866846, 7.743666706650039, 8.48103407124855])",False
8905235516.0,"array('h', [8.33455059051512, 7.075064440915559, 7.612490331335079, 15.742935361752991, 8.918497568558339, 6.180305959984561, 7.1643351377934765, 7.459699886974053])",False
8925275191.368422,"array('h', [7.454452357040463, 6.718739324130282, 7.505057760559403, 16.37552676057438, 8.768693917182889, 5.719406969608903, 6.339771174597219, 6.383895627752735])",False
8945314866.736843,"array('h', [6.7682660863145925, 6.483289931651586, 8.540354757406437, 17.07651076330499, 8.800144518966674, 5.559371601001685, 5.913987249651226, 5.7237054353767025])",False
8965354542.105263,"array('h', [5.707676124853408, 5.665713641730809, 9.860160541580553, 18.605087750501873, 9.137215805174298, 5.134188153168052, 5.198877948746704, 4.97415929574515])",False
8985394217.473684,"array('h', [5.211496949740152, 5.518392366915116, 10.856910554101333, 21.54111593667495, 9.46116793571911, 4.733786612078171, 4.469955848899305, 4.412986334318])",False
9005433892.842106,"array('h', [4.544371801798999, 5.184460044884822, 11.60948303637722, 22.35303078332588, 9.453489773552025, 4.372019591325618, 3.9014563943540206, 3.9086090692352706])",False
9025473568.210526,"array('h', [3.6532985419698027, 4.664018034176733, 12.041138492826592, 22.365869051130662, 9.375822724785325, 3.9356700147463393, 3.1902658951260143, 2.964862700576092])",False
9045513243.578947,"array('h', [3.4480904927591784, 4.885104063192331, 12.895410287005843, 22.864330410373693, 9.845639035342563, 3.854742964148449, 2.818086314600514, 2.590787618454825])",False
9065552918.947369,"array('h', [3.126130705999247, 4.807703267372594, 12.544102160208922, 23.03465097585687, 9.81263148947575, 3.6795805188535695, 2.3806272179413224, 2.301262956647299])",False
9085592594.315788,"array('h', [2.9285210257429157, 4.493316130973973, 12.004811509120454, 23.069956009977233, 9.426848897737635, 3.3848001060959834, 2.203897988224664, 2.1181330421419866])",False
9105632269.68421,"array('h', [3.0699594932885352, 4.131243801787286, 12.051477586962772, 23.881316828677797, 9.645739079786088, 3.4476750442354893, 2.3367793787600535, 2.3021092786263804])",False
9125671945.052631,"array('h', [3.1488442771057428, 4.088290262791727, 12.036935949133438, 24.04515519168184, 10.04821258919151, 3.6812704619595418, 2.450999978352195, 2.497683087165105])",False
9145711620.421053,"array('h', [3.067504244253429, 3.9500091242152715, 10.85870462233443, 20.96043704318784, 8.90591885364394, 3.7451947469431883, 2.404815198235493, 2.5388699813672013])",False
9165751295.789474,"array('h', [3.491848558678573, 4.015938792743463, 10.792085545792304, 20.893799380660404, 9.002810838434709, 4.266227041285172, 2.500843709384953, 2.81749235999116])",False
9185790971.157894,"array('h', [3.7970202823238832, 4.0474177797454685, 9.864063978799372, 19.255269425513145, 8.309255944326342, 3.8457132308113477, 2.35208285702459, 2.901755026171229])",False
9205830646.526316,"array('h', [3.983991876249876, 3.709317760700733, 8.621868182138638, 19.381923164864823, 8.503735587124215, 3.8102642399024513, 2.3837807660423347, 3.0158658169107486])",False
9225870321.894735,"array('h', [3.955764541510383, 3.4194056471405974, 7.599304302831249, 17.606723063651913, 8.214110404962035, 3.657979125382034, 2.3578988347334495, 2.9431931962315314])",False
9245909997.263157,"array('h', [4.181766867853146, 3.2835062548334415, 7.069831375761628, 17.12047797360571, 8.509024978204357, 3.7703956613889495, 2.473943993004984, 3.0765855160161344])",False
9265949672.631578,"array('h', [3.8636493939297925, 3.098794266114358, 5.951171399159853, 14.458053100234881, 7.530546086895318, 3.6872676050187994, 2.3109827892343606, 2.9347272602115266])",False
9285989348.0,"array('h', [4.325400210506942, 3.4069654661211333, 6.088513283167743, 16.267380767226815, 8.797011778539376, 4.05008821126664, 2.55274127911882, 3.2078425600877294])",False
9285989349.0,"array('h', [3.152780152835444, 3.7384571040486, 4.348622587759544, 16.179563267401505, 4.601748844938758, 3.4779769527696867, 3.3092749974324747, 2.794369890488466])",False
9305943765.48684,"array('h', [2.2831988205627094, 3.9508312178263383, 7.8652034061110605, 22.608393488856333, 12.360815685216794, 4.174129863243795, 2.278436613433179, 1.8803518430757562])",False
9325898181.973684,"array('h', [2.51751982487025, 3.619999537558236, 7.470027995520044, 24.122888429604206, 13.559782144324911, 3.3025349646643716, 1.9557807846698294, 2.0453162534328335])",False
9345852598.460526,"array('h', [2.211933791518424, 2.9394465840646338, 6.216536305875042, 23.291693859457425, 10.867623446505975, 3.251640486780285, 1.8262809960299136, 2.279601863287464])",False
9365807014.947369,"array('h', [1.96001756954184, 2.50063110320824, 5.24612068014989, 23.722118256528784, 11.320486281105309, 2.956664697487233, 1.62715483805501, 2.203795224291387])",False
9385761431.43421,"array('h', [1.7934629568215827, 2.6043221683883595, 5.889667935798009, 23.26744422716385, 10.041732770561016, 3.03980996351057, 1.6660048445660525, 1.9583985322579855])",False
9405715847.921053,"array('h', [1.8598399551208458, 2.505750244156512, 5.272880147998246, 21.317470351279557, 9.151016744761947, 2.7665232998900233, 1.5850626388114373, 1.8486841790804887])",False
9425670264.407894,"array('h', [1.698957165198836, 2.3962761564942334, 4.7990925005993645, 19.501729563249153, 8.044963107456596, 2.7096924808683673, 1.5789930928749267, 1.7025864851874415])",False
9445624680.894735,"array('h', [1.7261543639804369, 2.2248331269419674, 4.3447892667964565, 18.15761428138927, 7.679400428137862, 2.5191953835382934, 1.4917952746076577, 1.6592065363581068])",False
9465579097.381578,"array('h', [1.631277552912741, 2.1576911510102925, 4.06453729059067, 16.68927082067751, 6.93006893540267, 2.5176683547475487, 1.4547164764845084, 1.5893526706901855])",False
9485533513.868422,"array('h', [1.8320482911025435, 2.2110561285071078, 3.8087701016133186, 15.560932604072667, 6.505061434676407, 2.3773516269158024, 1.439751481387351, 1.6816473903765186])",False
9505487930.355265,"array('h', [2.0257959493246234, 2.202881625729028, 3.7082234293004483, 15.190997966033938, 6.700808588279846, 2.3899086333600223, 1.525741073789643, 1.7710369230793985])",False
9525442346.842106,"array('h', [2.045652942549448, 2.1358229098650736, 3.880304076156775, 15.648622800598513, 7.394322903542013, 2.4672238023406186, 1.424475995969619, 1.734697127338657])",False
9545396763.328947,"array('h', [2.1427113553316195, 2.0462037293185413, 3.931957809533802, 15.837013014209182, 7.335925572332676, 2.3711010484595194, 1.3815182113866817, 1.7419916675023603])",False
9565351179.81579,"array('h', [2.4248640904924326, 2.3773995308637437, 3.6887312372997965, 14.08910092034392, 6.2604665594254545, 2.4842084778184104, 1.494567964328503, 2.164824371012653])",False
9585305596.302631,"array('h', [2.538279929798345, 2.556278210131581, 3.565776990445973, 13.225095001607922, 5.854875655144963, 2.611243379676464, 1.7105689441658478, 2.3196135070647146])",False
9605260012.789474,"array('h', [2.958649753292648, 2.7123810552230077, 3.625036971579077, 12.458277259240639, 5.860398030254781, 2.449518065504655, 1.7650643013635332, 2.535954592528712])",False
9625214429.276316,"array('h', [3.379369663837131, 3.1219501413659643, 3.878267030973958, 12.269381288854106, 5.744878722491451, 2.6409979919405853, 2.0850532970933675, 2.975954627590416])",False
9645168845.76316,"array('h', [3.7199499887949674, 3.119340453917891, 4.256420561373962, 13.41558716805675, 6.6828409875495645, 2.6396160644301245, 2.201971992887318, 3.1424285824940545])",False
9665123262.25,"array('h', [3.8437084093601612, 3.297981337578679, 5.043277406328509, 14.890142171803475, 7.158884673799629, 2.7409912188090146, 2.4496492588530137, 3.435496070291938])",False
9685077678.736843,"array('h', [5.815064176624474, 3.635594613593423, 5.362029364727737, 15.925291192282069, 7.73174765083812, 2.946722879481977, 3.2750289702842084, 4.473623422556463])",False
9705032095.223684,"array('h', [7.078947984633584, 4.248356427404911, 6.304387554786697, 17.37477498310736, 8.152660456967993, 3.4066669395470526, 4.033791527170819, 5.2073959074797065])",False
9724986511.710526,"array('h', [7.614202358374121, 4.444593813057969, 7.385725899114304, 20.43240347912536, 9.18787468300012, 3.506488544974987, 4.215745279850866, 5.426038879271942])",False
9744940928.197369,"array('h', [8.021891313745744, 4.575392070037465, 8.664916801498542, 22.805844934875157, 10.07901530540105, 3.698709770157598, 4.324719618534084, 5.495116131000316])",False
9764895344.68421,"array('h', [8.22025411282401, 4.616889158267373, 9.417436622207086, 24.540276396444536, 9.738773363584885, 3.5904518605307256, 4.339873143530036, 5.635981161441855])",False
9784849761.171053,"array('h', [9.13126197264057, 4.898934566070969, 9.604959624824549, 24.752268060484877, 9.30223652390307, 3.8117000745890977, 4.635727064321645, 6.131690361195577])",False
9804804177.657894,"array('h', [9.599466186874174, 4.995781501435765, 9.501164382322177, 24.570560379759172, 9.476947204621673, 3.8349154518208883, 4.670498920965771, 6.174143266351583])",False
9824758594.144735,"array('h', [9.504757760246498, 4.689687197040203, 10.132112857661756, 26.290886711707405, 10.024553098491234, 3.752404066315862, 4.564879765018932, 5.886185909115813])",False
9844713010.631578,"array('h', [9.766243658821855, 5.064973694171321, 10.505809830852199, 26.578121140137537, 10.138834095750363, 3.844283125499811, 4.721668138475389, 5.965859262228288])",False
9864667427.118422,"array('h', [10.087655328224894, 5.143519606239697, 10.863808951926947, 27.63832387238176, 10.065514152166369, 3.865673000472562, 4.6095587555196325, 5.90336985542748])",False
9884621843.605263,"array('h', [9.745449641241832, 5.218867588495855, 12.106971997074504, 30.907526334616204, 11.492766889401558, 4.120447872096974, 4.388216047514714, 5.631451566820524])",False
9904576260.092106,"array('h', [10.481081868564814, 6.169327663353635, 12.371417574466232, 31.01911108880636, 11.868995396276082, 4.774397380087984, 4.958844510892811, 6.023105333381062])",False
9924530676.578949,"array('h', [10.400769382377284, 6.389474348524645, 12.103793082172103, 30.463180647786974, 11.81967418476962, 5.054875525562396, 5.079009213260551, 5.978920739314075])",False
9944485093.065788,"array('h', [9.376621834146157, 6.208260596297708, 11.898584450935122, 31.294353721428312, 11.471812107550798, 4.769733298019867, 4.369658918061692, 5.140981482304812])",False
9964439509.552631,"array('h', [9.4259272267975, 6.153240874604645, 11.342169079042879, 30.379876602908666, 11.386866946218865, 4.5476360533313125, 4.134390458319354, 5.038596036032198])",False
9984393926.039474,"array('h', [9.211203689021714, 6.085188098185478, 10.582373257246473, 28.15229811070758, 10.686775261952638, 4.501357150184751, 4.1313611493838724, 4.983836395802936])",False
10004348342.526318,"array('h', [9.469417077425263, 6.155002996791434, 9.817811682029703, 28.097234098924666, 10.477300302952814, 4.407407385533767, 4.103660874020208, 5.091811301326946])",False
10024302759.013157,"array('h', [9.21274327848781, 6.229752636973995, 9.594479606904542, 27.42247114502477, 10.935184900123462, 4.4154760102382316, 4.165222570796438, 4.9175592488583835])",False
10044257175.5,"array('h', [8.878849665676475, 6.338259991436499, 9.878207687079835, 28.538111019571343, 10.836914861031943, 4.257063292403734, 4.032944990100104, 4.669101698317709])",False
10064211591.986843,"array('h', [9.23314008402791, 6.526130761286587, 9.900162001977353, 29.149036679088017, 10.734461862010871, 4.383655893466473, 4.268135787810634, 4.925473786692902])",False
10084166008.473686,"array('h', [10.397142346366774, 6.6716480501875575, 9.284446001268053, 27.701558726724524, 10.312231355541552, 4.244525911938439, 4.272192276116618, 5.32579203334341])",False
10104120424.960526,"array('h', [11.150300047501993, 6.831277870472503, 9.335870039228343, 28.482979555069235, 10.407800114756828, 4.412651306885538, 4.296394263579234, 5.475831645664769])",False
10124074841.447369,"array('h', [12.30725256304442, 7.197459037429647, 8.401127187530935, 25.983814165521913, 9.4541122950323, 4.313111544877309, 4.724029524678149, 6.081817407478109])",False
10144029257.934212,"array('h', [12.94165167496894, 7.094233188705511, 6.964657439241125, 22.4408587277342, 7.562981644432708, 3.8167490191935616, 4.837364095874853, 6.713186539559027])",False
10163983674.421051,"array('h', [13.939401552773216, 7.039060985397991, 6.486590748320153, 21.706834633549313, 6.811492182322026, 3.3613877921085473, 4.593978373329863, 7.158417309160964])",False
10183938090.907894,"array('h', [14.220790106769782, 7.279724139747882, 6.3951609828286475, 20.535712946623562, 6.555241474397749, 3.2593637714742343, 4.425854537358997, 7.3710265402293755])",False
10203892507.394737,"array('h', [14.78248703746396, 7.9906080404698, 6.351144906358318, 19.047059145419315, 6.377358621869541, 3.563719003807335, 4.906264176769808, 8.087549145399068])",False
10223846923.88158,"array('h', [17.520512148825734, 9.55076820438304, 6.367726008763734, 19.66769581585853, 6.1734488603081115, 3.6405503292302246, 5.198615783853994, 8.640282066380236])",False
10243801340.36842,"array('h', [19.377403704853254, 10.69855514265599, 6.726112073897089, 20.618900629613147, 6.216153969122175, 3.7866721544338424, 5.583509101151715, 9.55757554045645])",False
10263755756.855263,"array('h', [21.171596773584934, 11.719839004138558, 6.526174276053976, 18.900980526158122, 5.492581134606787, 4.3482181224734155, 6.383193079835049, 10.636643619707032])",False
10283710173.342106,"array('h', [24.560401199637628, 13.828961653632495, 6.257034226083807, 17.53950488338216, 5.217756049257241, 4.613237184065527, 6.947943045589876, 11.196714568581307])",False
10303664589.828949,"array('h', [25.668468749608216, 14.63011201235083, 6.024769293197856, 16.014337695279096, 5.058904173105461, 4.7500759413741624, 7.039827585667261, 11.049098703974016])",False
10323619006.315788,"array('h', [25.630849589146145, 14.743535376660699, 5.754861494652792, 16.169627719468245, 4.991608689217903, 4.738750930628602, 7.033165368820346, 11.149614439345944])",False
10343573422.802631,"array('h', [28.118904924053158, 17.228040794267663, 6.078100640287763, 15.753383374544997, 5.2279209118020225, 5.624553561906792, 8.403928882391481, 12.913156117432154])",False
10363527839.289474,"array('h', [27.662182432011, 18.047530615407556, 6.025858293075947, 14.595246454819364, 5.285949484472692, 5.966152811624659, 8.870164182293594, 12.663398121757218])",False
10383482255.776318,"array('h', [27.42644378010893, 18.078566884105665, 5.761399016910397, 13.460466983033108, 5.064964049605192, 6.090873604954097, 8.814174861098897, 12.466487327670565])",False
10403436672.263157,"array('h', [28.458421866514595, 18.84830177987174, 5.937859148897071, 13.505965924537202, 5.109307293378928, 6.243561309843238, 9.141678081955199, 13.581576063058533])",False
10423391088.75,"array('h', [28.27956376102361, 19.00896934029603, 6.077449748807293, 13.925369069305484, 5.478609436118677, 6.455591453674035, 9.21831062998242, 13.227716795371578])",False
10443345505.236843,"array('h', [30.405370610822004, 19.954032410942677, 6.13655187259429, 13.939100083036637, 5.5936249774462965, 6.43822202534187, 9.265541550876957, 13.493857679446412])",False
10463299921.723686,"array('h', [28.794015263214533, 18.70902584659802, 5.825555936537919, 14.003878742260065, 5.588824537102149, 6.3064662240477904, 9.097189456177286, 13.405560224798519])",False
10483254338.210526,"array('h', [27.435551665722713, 17.760194009836166, 5.291835758024939, 12.30644469716783, 5.301285249337509, 6.310994285167142, 9.227088908401608, 13.51170407307223])",False
10503208754.697369,"array('h', [28.247988765550126, 17.632991852935255, 5.58283547858569, 12.663986665445535, 5.680665229897644, 6.37127538157034, 9.161072710834896, 13.653301927347393])",False
10523163171.184212,"array('h', [26.914599584390437, 16.817549203430715, 5.872899915081415, 13.081983273449255, 5.739407412292914, 6.178232378386047, 8.893614857436551, 13.93181029943168])",False
10543117587.671051,"array('h', [26.121404223074247, 16.88090487285384, 5.673231614491378, 12.547684745177726, 6.045796378493531, 6.458573512596881, 9.155521809504872, 14.720440569400095])",False
10563072004.157894,"array('h', [27.870441931649474, 18.163694889354502, 5.951596872614339, 11.888878765214812, 6.616551674611822, 7.062997593463009, 10.349203942080171, 16.270827479448066])",False
10583026420.644737,"array('h', [25.958901646159916, 16.70051850671844, 6.019573927221534, 12.173391285486813, 6.868462303039234, 7.228781695557362, 9.85742537335685, 15.089860857928745])",False
10602980837.13158,"array('h', [25.482146222553883, 15.358862317146718, 5.921976858978961, 12.63669115993564, 7.326637541094376, 7.295665000990689, 9.864765634529434, 15.084912547198856])",False
10622935253.61842,"array('h', [27.391115623257807, 16.040138364703193, 6.346488702231466, 12.890131418898756, 7.649739214963183, 8.113321810328625, 12.02739704479362, 17.070304709530188])",False
10642889670.105263,"array('h', [26.878335756507703, 15.756559642732713, 6.128020146589639, 12.944952689237784, 8.097444929576087, 8.64976195930795, 12.481131080862449, 16.801696864036554])",False
10662844086.592106,"array('h', [25.57636890742409, 14.845423780190515, 6.160778726392398, 12.685774208094857, 8.296435418606814, 8.590611629770324, 12.156681491592686, 15.740780813791499])",False
10682798503.078949,"array('h', [28.521803746525773, 17.933768870334674, 6.392617261948614, 12.604075155488394, 8.950674498279538, 9.647055927434334, 13.730912149149543, 18.46638122262753])",False
10702752919.565788,"array('h', [30.31956984969377, 19.666862814495957, 6.455171079423967, 11.594460092853483, 9.10271577484721, 10.162427377166207, 14.246934716085132, 20.17841391117741])",False
10722707336.052631,"array('h', [30.596973970425804, 20.301860989406173, 7.03387321450034, 11.632640417387082, 9.73888677648554, 10.261677602587673, 14.016097213119355, 19.74690521490215])",False
10742661752.539474,"array('h', [30.56833271165353, 21.337681459376867, 7.2243070552699225, 11.496164415362408, 10.29699439472899, 10.764722552259943, 14.625018921190298, 20.03894461522443])",False
10762616169.026321,"array('h', [30.397824225146927, 21.999346039342306, 7.102214735537508, 10.022312916450705, 10.715774770946409, 11.842977856009464, 15.97990215504085, 20.670931401001877])",False
10782570585.51316,"array('h', [29.62913803350683, 21.30503748925949, 7.228140188721085, 10.610899938983817, 11.021008250975777, 12.308699450451343, 16.4640887666447, 20.775158923964586])",False
10802525002.0,"array('h', [28.241861919188285, 19.989305638552143, 7.47119536580395, 11.510570202673968, 10.904206774770177, 12.126706386018029, 16.170119377055848, 20.248136904717025])",False
10822479418.486843,"array('h', [29.62945262900183, 21.553413626368023, 7.454331743328207, 11.317773866847036, 11.283496205623068, 12.155073037425607, 16.301665232371658, 20.84358046957727])",False
10842433834.973686,"array('h', [31.226689447972074, 22.640199130458164, 7.228822787445785, 10.362986092428924, 10.84889371059089, 11.661489984659228, 16.61499280324848, 21.674332811943312])",False
10862388251.46053,"array('h', [29.504745970629205, 21.855507498708906, 6.826021761529909, 10.213005644472359, 11.655600201819032, 11.67464503135961, 15.303389606563275, 20.352293780665757])",False
10882342667.947369,"array('h', [29.90931629816763, 22.781245296094863, 7.290129353970546, 10.652263118026331, 12.625739922762257, 11.949793857502643, 14.427890292424706, 20.112699578058443])",False
10902297084.434212,"array('h', [31.464259374188376, 23.947306697893595, 7.524529063932024, 10.219880580885048, 12.441724506812356, 12.015663949120043, 14.705989926707113, 20.492915012388774])",False
10922251500.921051,"array('h', [31.16549183406069, 23.232657151975502, 7.729121128873152, 10.238128077373732, 12.57712182796168, 12.320151055455941, 14.965003246552603, 21.010259798189853])",False
10942205917.40789,"array('h', [26.634680715406315, 19.952060734318046, 7.846421715432027, 11.261259719402393, 12.140157570216047, 11.68024956825329, 14.128381408369483, 18.548367149937217])",False
10962160333.894737,"array('h', [27.4154221630307, 21.49454735278867, 7.855451746436838, 11.755025810325902, 12.324152225069966, 11.674004168297683, 14.381566411624926, 17.880789940172832])",False
10982114750.38158,"array('h', [27.082929069095766, 21.605891758259634, 8.323820079555654, 12.92721507121122, 13.172331990239941, 12.3632072302368, 14.660160575834855, 18.14343549025561])",False
11002069166.86842,"array('h', [24.45232206308875, 19.905930595529078, 8.159879020750346, 13.642451259925517, 13.896564353983528, 11.892154904590619, 13.570896740858622, 16.97225226695329])",False
11022023583.355263,"array('h', [24.198754295243663, 19.84715113430619, 8.432856567594976, 14.748937911082928, 14.083435520184702, 11.210738986649448, 12.795985623649498, 16.688042653112767])",False
11041977999.842106,"array('h', [24.409080144426163, 19.68189736064431, 8.340483579535677, 14.32847762694896, 14.435854444641643, 11.427908920046773, 13.073592445876002, 17.120160675509158])",False
11061932416.328949,"array('h', [22.872841517976834, 18.516302135042945, 8.333093825778175, 14.99663250406415, 13.74964642397189, 10.999503116734054, 12.464486989858441, 16.08674020850098])",False
11081886832.815788,"array('h', [21.416328546792577, 17.12832845823457, 8.820372586220245, 16.884371356958177, 14.150397667150783, 10.75269295376766, 11.847761536989037, 15.002799001114035])",False
11101841249.302631,"array('h', [22.056026568572545, 17.937544568843286, 9.311353854183691, 17.03413989301176, 13.686104146713157, 10.652163187293667, 11.852178297113845, 15.331140302215612])",False
11121795665.789474,"array('h', [23.041456248318923, 18.185338065682284, 9.319888254470856, 16.637584857386617, 12.55699647790689, 10.108713321774554, 11.855797672625158, 16.114348513386382])",False
11141750082.276321,"array('h', [21.141013726597, 16.43955875124649, 8.66599277849755, 16.618134523480567, 12.372216836233559, 9.999146584999409, 11.749377044222244, 15.648524344212477])",False
11161704498.76316,"array('h', [22.0645707171895, 17.311209121006186, 8.674257092490384, 17.14565169993998, 12.519453746361378, 10.284303978094849, 12.135980623384294, 16.745159234045484])",False
11181658915.25,"array('h', [22.733992568514545, 17.663554435936373, 8.400263298675096, 16.008454298566352, 11.971953788081683, 9.732667134932907, 11.625822141103177, 16.71145712872881])",False
11201613331.736843,"array('h', [21.273291614319167, 16.29848735281417, 8.580434656767979, 16.330057312218443, 12.311106665731709, 9.776473662085978, 11.34127634160573, 16.501111314927844])",False
11221567748.223686,"array('h', [19.548349231829476, 14.038078433952748, 8.16701361064102, 16.510435236567837, 12.032833856428336, 9.478109774520858, 11.260312474208458, 16.825261191489528])",False
11241522164.71053,"array('h', [20.13092962370106, 14.676167568927767, 7.713281256802363, 15.341229907031408, 11.670849890014589, 9.504156908820725, 11.516320492761023, 16.95126012401888])",False
11261476581.197369,"array('h', [20.431066153362313, 14.961761327381039, 7.251225519917326, 14.317117457531806, 11.534442438960918, 9.457668837392784, 11.104168187223252, 16.522908012029994])",False
11281430997.684212,"array('h', [19.380212852968764, 14.613689305692793, 6.770205265928034, 13.315840455587102, 10.96782828361109, 8.85699490576682, 10.1262131939393, 15.06408474124462])",False
11301385414.171051,"array('h', [19.768036502560886, 15.377677383326674, 6.782354086974677, 13.241088819019037, 11.16337794833555, 8.609160890273015, 9.668787357217347, 14.84218310619548])",False
11321339830.65789,"array('h', [19.836134473262604, 14.91890843064538, 6.029472831855835, 11.114281915826647, 10.880931671314054, 8.83010875323546, 10.055796954632507, 15.414899908075041])",False
11341294247.144737,"array('h', [17.695623648048272, 13.812092551540271, 5.500627935295664, 10.456573690461873, 10.68363194951826, 8.911384900933388, 9.887347482741148, 14.934115132105562])",False
11361248663.63158,"array('h', [16.19577349367886, 12.942885433853453, 5.873497661782861, 12.083746460482168, 12.102478408459154, 9.03685593183318, 9.412298681931626, 13.72019078352824])",False
11381203080.11842,"array('h', [16.38511281587901, 13.297783336210932, 6.01258821595405, 11.975289887454393, 11.657512436918996, 8.468934230533433, 8.867979434748559, 13.41188638724527])",False
11401157496.605263,"array('h', [18.59359776687844, 15.287687066209514, 6.308470155769834, 11.670667306219512, 11.541116224378268, 8.47184170100734, 9.208984271212461, 14.453908151209305])",False
11421111913.092106,"array('h', [18.172742810689105, 15.39973350341443, 6.221067900772215, 12.143851106037559, 11.175775245236055, 8.387661286938336, 9.089954664869698, 13.816165824599924])",False
11441066329.578949,"array('h', [18.219720590171598, 14.900031254434985, 6.786914962956877, 15.596417106353131, 11.493189547233774, 8.174375656053076, 9.080218237459468, 13.85905662125127])",False
11461020746.065788,"array('h', [18.843637430741243, 15.213420911252223, 7.65915138154782, 17.105286889291094, 11.811524311921588, 8.31751636154612, 9.407369997830864, 14.214620806459713])",False
11480975162.552631,"array('h', [19.535121651249543, 15.579120879798486, 7.823394812925082, 17.276024661391585, 11.17272033422056, 8.155101039783494, 9.125189295490738, 14.218423236005728])",False
11500929579.039474,"array('h', [19.614764373859845, 15.20565376786553, 8.084402277010211, 18.05118843882609, 10.493650482374477, 7.66802741665748, 8.971177887772711, 14.269459601979861])",False
11520883995.526321,"array('h', [19.979340864663467, 15.252999954568669, 8.703579626296769, 20.083748715330874, 12.082169130600075, 7.913218342365149, 9.278167277649038, 14.542539367966185])",False
11540838412.01316,"array('h', [19.643380194586857, 14.482896545037365, 8.80564007489504, 20.042880730569788, 12.865494129842562, 8.315091488840038, 9.514729182404123, 14.572609196161466])",False
11560792828.5,"array('h', [18.181534655328495, 13.452459171045929, 9.115735314734387, 20.716520984622665, 13.027566927552629, 8.048814844778404, 9.111021522687425, 13.901695641537966])",False
11580747244.986843,"array('h', [18.61334174578283, 14.11033929909849, 9.888091121542349, 21.937041542904737, 13.306251775791614, 7.7617050034443436, 8.73042961484877, 13.687552734130337])",False
11600701661.473686,"array('h', [17.90021274171094, 13.501036759467151, 9.552233743593353, 21.41251072039729, 12.41322461712496, 7.280442399337259, 8.347763418973523, 13.155594789024693])",False
11620656077.96053,"array('h', [16.651668404626733, 12.563712484230374, 9.25263243813105, 21.777984492242727, 11.520987539529369, 6.8649722970774745, 8.072870015904579, 12.678922003267946])",False
11640610494.447369,"array('h', [14.370005330091521, 10.800004843921888, 9.476141365611424, 23.468141343355907, 11.481404525954487, 6.405191348627863, 7.325292855805389, 11.155346634069394])",False
11660564910.934212,"array('h', [10.667184884045575, 7.6975030644267735, 9.234587108757696, 24.268313144088854, 11.202308534053177, 5.407800712478819, 5.9254910183942195, 8.746227592215575])",False
11680519327.421051,"array('h', [8.852523961103257, 6.529653133088736, 9.014489050406139, 23.350317791949344, 11.582738130780386, 5.0391463192279495, 5.18316269039368, 7.372713833020076])",False
11700473743.90789,"array('h', [7.67394869579768, 6.140764949348828, 8.31893240762887, 20.778938573915944, 10.846948547847932, 4.799607325274044, 4.550841678850997, 6.292805148562398])",False
11720428160.394737,"array('h', [6.470992900826472, 5.377763599138482, 8.429361722810729, 20.370168195516108, 10.457205146199557, 4.792439217856184, 3.8386728254723876, 5.12324306910429])",False
11740382576.88158,"array('h', [5.074225325943461, 4.44834317335003, 8.591456268952182, 19.991927415624936, 10.160264459530639, 4.569744350679939, 3.303381658276009, 4.298016885366675])",False
11760336993.36842,"array('h', [4.182529647634322, 3.722358997472586, 8.156607130936194, 18.978810536111745, 8.97705040472732, 4.2698365169153245, 2.874100532282133, 3.461583903329329])",False
11780291409.855263,"array('h', [3.6890519519740628, 3.517267368662933, 8.607492449772305, 19.701745569763283, 7.407964880011669, 3.820852889481449, 2.5571935925796585, 2.9410301162389456])",False
11800245826.342106,"array('h', [3.7029943324304364, 3.7544851254134977, 9.148420006134591, 20.27935962714076, 7.128208377162685, 3.7286060307421773, 2.4033656922731303, 2.806867065451519])",False
11820200242.828949,"array('h', [3.6038468426537125, 3.729403815449619, 8.881160054100548, 19.80882672526446, 6.611159467020482, 3.9788942199409414, 2.394018468678939, 2.5810683346198857])",False
11840154659.315788,"array('h', [3.4570936639092613, 3.3910272852385845, 8.980537317239863, 20.58327019562794, 6.871335854017166, 4.2532124504663935, 2.4191197404861016, 2.4475110008488192])",False
11860109075.802631,"array('h', [3.607572639635234, 3.7581178645105644, 9.791902991673368, 22.16526876249293, 7.925066044306077, 4.6477849756988725, 2.528527519120699, 2.6173990701952303])",False
11880063492.289474,"array('h', [3.6808908534271, 3.8647476027359056, 9.84943781974466, 23.001323529998835, 8.840083145878843, 4.593801607564344, 2.3886453683798936, 2.496137684498528])",False
11900017908.776321,"array('h', [3.7973893617264505, 4.078910705779485, 9.949265027824907, 22.47304263761774, 9.210025262107457, 4.8652022814917535, 2.492264626365769, 2.5653876660888395])",False
11919972325.26316,"array('h', [3.8872174781264044, 4.189710216056616, 10.11277541313695, 22.727853995295092, 9.533282957476464, 4.918595168939803, 2.5037734732850683, 2.5840480342414818])",False
11939926741.75,"array('h', [4.084997038978708, 4.564627322746802, 10.68059167241543, 22.71857698378384, 9.961671373222776, 5.191252754382239, 2.564065122411205, 2.6255966778790047])",False
11959881158.236843,"array('h', [4.053967037327398, 4.596874452036134, 10.558324341723099, 22.535035221928673, 10.188539519467334, 5.0447007227224745, 2.458607004821179, 2.589536242758972])",False
11979835574.723686,"array('h', [4.115665277363936, 4.460646148226336, 9.9102611351368, 22.18504068598487, 10.509693146559842, 4.724306687302153, 2.4443515290225855, 2.6110641040783396])",False
11999789991.21053,"array('h', [4.636578769035972, 4.507871815863935, 10.034177379905431, 22.56015569317489, 11.009615242156084, 4.7146941857213855, 2.50192661174708, 2.8994314064643882])",False
12019744407.697369,"array('h', [4.6456924281056455, 4.423450674266603, 9.611360519770292, 21.028814433687508, 10.68785675175711, 4.5361535364249725, 2.349757473064591, 2.965304828352399])",False
12039698824.184212,"array('h', [4.463105298451743, 4.200681085613378, 8.689878946254675, 20.17906976413229, 10.600467783558079, 4.3741827220806995, 2.252926632857981, 2.866572388333914])",False
12059653240.671051,"array('h', [4.406100870958065, 3.999767171579948, 8.230605584898155, 21.130587635921707, 10.726393609098768, 4.165725611480672, 2.2787690547454775, 2.902509541131181])",False
12079607657.15789,"array('h', [4.157493867020354, 4.102727202128921, 8.027119997899787, 20.087169258114823, 10.910835933632649, 4.048981849131313, 2.29593822482768, 2.7753694325746556])",False
12099562073.644737,"array('h', [3.9575632120046937, 4.0262105479096615, 7.383071925256067, 18.170584606663674, 10.267154193479081, 3.667310298082925, 2.1768015701089944, 2.650849361563005])",False
12119516490.13158,"array('h', [3.640135907094515, 3.6044849688935834, 6.621443762977981, 15.336952095542662, 8.95641032167195, 3.456325153517725, 2.067173307290002, 2.4882802643284134])",False
12139470906.61842,"array('h', [3.648846414666707, 3.674099432830926, 6.401599350647105, 13.987873396709837, 8.58726715793908, 3.619216187771259, 2.201010057878074, 2.5239430861071708])",False
12159425323.105263,"array('h', [3.5006522215930325, 3.5289688492265974, 6.404981755186607, 13.62839913167002, 9.035222049375689, 3.67606699776781, 2.152050037552114, 2.37681790855872])",False
12179379739.592106,"array('h', [3.335245289441069, 3.4087220832362015, 6.059876549681733, 12.717454161181832, 8.506708095719135, 3.8095457313802488, 2.132179738557531, 2.2930871465646643])",False
12199334156.078949,"array('h', [3.195087922366445, 2.96014057712191, 5.16034437578356, 11.640748927841553, 8.110622533572203, 3.5340157567121575, 2.0738577147156554, 2.2143351945323193])",False
12219288572.565788,"array('h', [3.605125847568338, 3.3579929529726082, 5.1750108157577825, 11.344395358972037, 7.912236495111991, 3.605910290376703, 2.239214211646476, 2.475644440147675])",False
12239242989.052631,"array('h', [3.576623018469761, 3.332597579527697, 4.85917493004203, 10.582338085757105, 7.4685668477128955, 3.292134996991167, 2.242981666484115, 2.4429011518093615])",False
12259197405.539474,"array('h', [3.056999674120971, 3.268764316293103, 4.651739456666467, 10.158876658640603, 6.865540531785095, 3.367128269292093, 2.2952020676241243, 2.1869334675775858])",False
12279151822.026321,"array('h', [3.013820718050158, 3.1798301567065614, 4.329647032140807, 9.479361499339447, 6.736644024230637, 3.153151884110518, 2.2582146383797794, 2.226102944092477])",False
12299106238.51316,"array('h', [2.878385283091587, 3.1728885233583917, 4.276087808186572, 8.347796373829508, 6.000758919941162, 3.220250586339626, 2.276405370592605, 2.2114362960185217])",False
12319060655.0,"array('h', [2.8897976669210244, 2.8409158557971304, 3.6669333653830023, 6.382341124309116, 5.571486628802464, 2.6447653358721492, 1.9571710575720938, 2.1416977134298065])",False
12319060656.0,"array('h', [4.649074104912249, 2.288604560903028, 11.91134396849063, 13.576713247082063, 7.989287504819403, 5.955715837964305, 3.3598489414324275, 3.7180711341400223])",False
12339035110.328949,"array('h', [6.844270331214351, 2.6582361314970386, 11.182740329860966, 15.909341350877266, 7.0624962160701, 4.965443167798572, 4.059927681990311, 5.466172155986429])",False
12359009564.65789,"array('h', [5.324808159919077, 3.6644822898991816, 18.682086347245082, 32.59957764975634, 13.94625701269709, 4.968228187820903, 3.4512338183671085, 4.475350163048087])",False
12378984018.986843,"array('h', [4.390334830742154, 4.87679124243648, 26.659147560099555, 43.98318759023035, 22.85011582884588, 8.317667057421518, 4.100382732104481, 4.022438599845263])",False
12398958473.315788,"array('h', [5.181432907849357, 6.834569039400525, 26.36940100555136, 48.183915304363936, 26.375997819655563, 7.759700851857121, 4.252208251753164, 4.517815731257002])",False
12418932927.644737,"array('h', [5.955106734272268, 7.667009970978203, 29.02026300686298, 51.16844648674239, 28.453726641338633, 8.499276248498235, 4.17266700290167, 4.796628926316826])",False
12438907381.973679,"array('h', [6.01509921114709, 8.161289175781974, 28.853260792975828, 54.07085076192263, 28.421776660350464, 8.566043853562535, 4.435190295269474, 4.542540092046594])",False
12458881836.302631,"array('h', [6.001626932016677, 8.334337710932974, 28.174343477693107, 55.93334257156965, 30.93959397662005, 8.967365525478145, 4.51876024766422, 4.664690502683278])",False
12478856290.63158,"array('h', [6.313391804482833, 8.930915964224067, 27.41045146714854, 53.863375593250375, 31.298996917850033, 8.950509982607615, 4.77976165134516, 4.697505670545623])",False
12498830744.96053,"array('h', [6.375003363333041, 8.739411443642167, 26.888517650222497, 53.94297268419069, 30.861787381318955, 9.074696476863645, 4.72514303528529, 4.780523748094597])",False
12518805199.289474,"array('h', [6.070480289968435, 8.46536537479827, 26.010140489924446, 53.554208682708584, 30.8912035519739, 9.095829751995261, 4.487717354530146, 4.4943998873867965])",False
12538779653.61842,"array('h', [5.626191647853413, 7.866295433665895, 24.371300543777465, 52.065706254054305, 30.075492684257057, 8.636924849132805, 4.21956006304705, 4.2825155736508025])",False
12558754107.947369,"array('h', [5.351851142826795, 7.387711751447486, 22.90598297077726, 50.3418747067267, 28.65771707835913, 8.150810750474694, 3.9743121430598785, 4.031659611893209])",False
12578728562.276321,"array('h', [5.073226026642667, 7.5633335347155315, 23.361042575103266, 51.18324675493742, 28.568627455028857, 8.00014146832471, 3.8179073982389644, 3.8563464995711625])",False
12598703016.605263,"array('h', [4.737926476934462, 7.544056177131778, 23.200406054255648, 50.57726084095183, 29.304430070442336, 8.042283280016079, 3.6554417935967014, 3.514973942685748])",False
12618677470.934212,"array('h', [4.700052411707953, 7.22595907392259, 20.56867177691256, 46.61083805430553, 27.43923241114145, 7.485759336908985, 3.538461217378807, 3.4982897652637703])",False
12638651925.26316,"array('h', [4.58194653377083, 6.624274083226858, 18.12460513728522, 43.545525903628615, 25.012021422716714, 6.658983908849862, 3.1651516939702837, 3.290809873857757])",False
12658626379.592106,"array('h', [3.992042350956151, 5.713420172488135, 16.097169990472967, 39.46866040850279, 22.156773386647725, 6.269059562092694, 2.9717072971863714, 2.8767648058595676])",False
12678600833.921051,"array('h', [3.577478458986292, 5.007015976698874, 13.142037382203974, 35.29510038237084, 19.810002231985834, 5.406982185013039, 2.6984251469968177, 2.691439043301911])",False
12698575288.25,"array('h', [3.2564396978805585, 4.402460995956057, 11.36942203677854, 29.818639919255453, 17.545765777777557, 4.932621653917019, 2.4353696815385764, 2.5433298952268384])",False
12718549742.578949,"array('h', [2.9423883084726263, 3.6569273808838334, 9.687521376377637, 26.135606213795196, 14.126765353003643, 4.1306080680552775, 2.09204435900236, 2.305329595397179])",False
12738524196.90789,"array('h', [2.524561496548994, 2.8174933112740477, 8.260683696286137, 23.252431624204966, 12.270832272634657, 3.5984803370516194, 1.7654990524668985, 2.0952813873289258])",False
12758498651.236843,"array('h', [2.333772675186112, 2.428826098426078, 6.514047997953033, 19.13354484611488, 10.120225030496703, 2.9683608283118526, 1.7845697964688099, 1.9952261786243495])",False
12778473105.565788,"array('h', [2.4156344451759355, 2.2078982058947094, 5.612333290386166, 15.961244704340391, 8.34315235702574, 2.6555678716084663, 1.9244428605064858, 2.2485369092408214])",False
12798447559.894737,"array('h', [2.499495859191482, 2.2700416111510013, 5.417522829089548, 14.250627040212555, 7.4069011034890035, 2.549019157352686, 1.925776428495881, 2.267207897251713])",False
12818422014.223679,"array('h', [2.4338615964602726, 2.055691954063756, 4.79596792337612, 12.276394920350274, 6.661185632001798, 2.3664538420560013, 1.8475521774790777, 2.2791871361224976])",False
12838396468.552631,"array('h', [2.5833600212305714, 1.7852140066563196, 3.3315211678957284, 9.988495305767051, 5.456026338694675, 2.123096955049582, 1.9320673697855022, 2.438573807809499])",False
12858370922.88158,"array('h', [2.7623773950049166, 1.7228544386031552, 3.066856838016583, 9.546763283378555, 4.718196556132423, 2.3028376033091553, 2.1192624348329576, 2.8948814683024544])",False
12878345377.21053,"array('h', [3.0938436143200287, 1.7126445881472288, 2.7316942953800134, 8.734569204356994, 4.383510521003548, 2.194495044703339, 2.217491106385392, 3.1018591177526473])",False
12898319831.539474,"array('h', [3.109882426457679, 1.7007557768492632, 2.757668255300146, 7.853015341087818, 3.9835417562110202, 2.1931614344796873, 2.379588305419695, 3.2515789071210595])",False
12918294285.86842,"array('h', [3.380135955803995, 1.8778332040606007, 2.744237667368974, 7.420814212038289, 4.030218538213071, 2.347663200403024, 2.850591292057915, 3.7457900378778066])",False
12938268740.197369,"array('h', [3.8630131109309738, 1.9822716682841968, 2.9448540466621984, 7.106345465687347, 3.767467244670489, 2.4680849376924057, 3.1212201271950155, 4.219114290570886])",False
12958243194.526321,"array('h', [3.9848865668808298, 2.1123341322607736, 3.2986897816703205, 7.496858081769779, 3.6368396551329814, 2.39510728507848, 3.1717783769017984, 4.248324692018728])",False
12978217648.855263,"array('h', [4.281694046818949, 2.267266690585417, 3.4015132927007725, 8.076619378477051, 3.796448621594415, 2.499517033771705, 3.3881165484958236, 4.417209443914889])",False
12998192103.184212,"array('h', [4.815052937990163, 2.5973306073535682, 3.5822005410535778, 8.778075061792908, 4.2287870483949614, 2.6895025713293177, 3.692870611816748, 5.002634665049893])",False
13018166557.51316,"array('h', [5.443643011165962, 2.851682613822512, 3.708629329430756, 8.599356319397964, 4.065512028555964, 2.475660466509136, 3.827518437276073, 5.57741890597899])",False
13038141011.842106,"array('h', [5.470330497480497, 2.995830075295247, 4.552175147842358, 11.336802977305616, 5.32843839090157, 2.981865374901739, 3.975209639582852, 5.673041306578263])",False
13058115466.171051,"array('h', [5.579022476840296, 3.1722189663397966, 5.817028320396321, 14.8555856888028, 7.415188191928245, 3.828790352064084, 4.193121438248271, 5.72564925780394])",False
13078089920.5,"array('h', [5.866603356925673, 3.2800739193089585, 6.246458224339194, 16.338218319781472, 8.418697813491047, 4.1653727058641445, 4.416694292382169, 6.016307172121124])",False
13098064374.828949,"array('h', [5.811232671856235, 3.29141986661377, 6.621496361732804, 17.688085656329037, 9.3560564526817, 4.39841635721211, 4.47300442304317, 5.997847405870234])",False
13118038829.15789,"array('h', [5.952776958073394, 3.57532275384672, 7.1005060226986965, 19.854433609200107, 10.638735885117809, 4.764020573808741, 4.453196010208627, 5.840145675161258])",False
13138013283.486843,"array('h', [6.030085751427554, 3.8136754831282205, 7.786348100688667, 21.833518254806343, 11.907900952878132, 5.356165436286103, 4.59371722241625, 6.007264245778847])",False
13157987737.815788,"array('h', [7.15388536630065, 4.420595368071382, 7.7978215798682005, 21.945080691565597, 12.167900330994206, 5.542925538322501, 4.8924498529055285, 6.868897903754442])",False
13177962192.144737,"array('h', [6.9186958556628335, 4.517750897700584, 8.154404064941993, 22.724815715938902, 12.559301782457732, 5.472838477427195, 4.670576653716764, 6.646345314690384])",False
13197936646.473679,"array('h', [6.605758776339466, 4.410553957228666, 8.210241783713155, 23.356974864083018, 13.357075132497267, 5.603080178327061, 4.45738926800514, 6.328853264644715])",False
13217911100.802631,"array('h', [7.048589441216128, 4.656300536884125, 8.093813595783542, 23.458841462999498, 14.859974007319753, 6.450725591364215, 4.711126368436677, 6.800197019082572])",False
13237885555.13158,"array('h', [7.009672223217173, 4.700206874769981, 8.026149341585015, 23.11716437756524, 15.285308837142376, 6.744666695715097, 4.748319441642118, 6.580481800206436])",False
13257860009.46053,"array('h', [6.3776403772889125, 4.431392780822491, 8.563736871329604, 24.893890071100486, 15.674202163019821, 6.9541968410949595, 4.683874003877123, 6.121969781584095])",False
13277834463.789474,"array('h', [5.75939113382609, 4.312815429694884, 9.460297210400327, 27.393738794850623, 16.942392511038733, 7.419258177769317, 4.433938379635923, 5.365102486569978])",False
13297808918.11842,"array('h', [5.891491763659992, 4.340413931249866, 8.944654054266252, 24.796023010096633, 15.51365819509551, 6.834248651325207, 4.499864231822899, 5.53201761506637])",False
13317783372.447369,"array('h', [5.832855106419579, 4.352399090109512, 7.891063490646382, 21.993617231090166, 14.128323751595637, 6.354939776044654, 4.529273799431295, 5.43844322063796])",False
13337757826.776321,"array('h', [6.329747827431288, 4.368841612788573, 7.681699853492188, 21.63091413383754, 13.537497098997163, 6.234626294216964, 4.571303005319641, 5.53895659762944])",False
13357732281.105263,"array('h', [6.301527277755181, 4.374833842029768, 7.572990986847142, 20.75276857435813, 12.785940448794273, 6.056600429435173, 4.636474516260422, 5.463368808320149])",False
13377706735.434212,"array('h', [5.967635136063792, 4.162417270908357, 7.1454353764745635, 18.73740413162243, 11.467008633920125, 5.491334484382698, 4.584809153577811, 5.410410872717214])",False
13397681189.76316,"array('h', [5.617073954926118, 3.7905478818715457, 6.819597111917854, 17.811181525295268, 10.957307850173837, 5.170322408672727, 4.358250514707603, 4.910999600329227])",False
13417655644.092106,"array('h', [4.920618723829702, 3.327376928798284, 6.791831663247275, 18.34042010480689, 10.827780671970778, 5.065247047183164, 4.025980578578601, 4.326326681205716])",False
13437630098.421051,"array('h', [5.46343543346128, 3.3269602798315767, 6.447269156369326, 18.19682795877136, 10.721207457035092, 5.32246697744965, 4.294227076054886, 4.610406423258055])",False
13457604552.75,"array('h', [5.514630554407472, 3.2776083984236952, 6.597056998324281, 17.676196901335782, 10.032627205884665, 4.983788367436185, 4.243960084644731, 4.464273054286514])",False
13477579007.078949,"array('h', [5.559885343963666, 3.0755031950079608, 6.748231583057839, 17.77580570156451, 8.815044333252652, 4.249829470964738, 4.034898176656166, 4.584858258045134])",False
13497553461.40789,"array('h', [6.366208236128838, 3.4467579833614357, 6.721923373027267, 16.998848376093637, 8.42088701118987, 4.116933192958227, 3.7954664444432926, 4.873150238952909])",False
13517527915.736843,"array('h', [7.355146182212837, 3.9188498227996513, 5.976503979709671, 14.498917117352983, 7.327310315010042, 3.782825815214177, 3.7165786623241437, 5.281786651850108])",False
13537502370.065788,"array('h', [10.341114342024385, 5.422637877361854, 5.238282026062768, 12.329232820421504, 5.9681187723024625, 3.3556370365590187, 3.7256554528643555, 5.9244012770037635])",False
13557476824.394737,"array('h', [11.418273533109675, 6.175942428553549, 5.475902471087899, 12.455487491102188, 5.447320110081059, 3.306315603519559, 3.7286878939210033, 6.257789323201259])",False
13577451278.723686,"array('h', [12.274446366816317, 6.37985622191931, 6.03111376966944, 13.52349799605397, 5.840132683603219, 3.6920909515266, 4.10901145344469, 7.225041874909473])",False
13597425733.052631,"array('h', [12.64394605055978, 6.748998473866203, 6.277623248332321, 13.3927243826894, 5.982627937123228, 3.809100332863249, 4.132481618565551, 7.216497403717109])",False
13617400187.38158,"array('h', [13.690196699766032, 7.501621639386334, 6.080398726901702, 13.172172363636898, 5.9563834471569495, 3.8371723172763157, 4.093608271903854, 7.261088326221038])",False
13637374641.71053,"array('h', [14.123415382020589, 8.07483157864111, 6.153306563299246, 13.27105306591057, 5.90020181155191, 4.191113403407685, 4.485253283059657, 7.649129456585338])",False
13657349096.039474,"array('h', [15.901855241926564, 9.39251888689563, 6.723389996121148, 15.143912454024528, 6.3147878666627415, 4.479606945840109, 4.6801063048685485, 8.26992437843595])",False
13677323550.36842,"array('h', [18.22645503164038, 11.075976595423656, 7.236060995701799, 16.7143719013629, 7.194991358917179, 5.025117621575698, 4.882048882799612, 8.64925464264428])",False
13697298004.697369,"array('h', [18.14953753716952, 11.371472547847477, 7.741503658617524, 17.85615015290255, 7.408622881147579, 5.172616049195991, 5.208642706308463, 8.93607903579705])",False
13717272459.026321,"array('h', [20.242985840386286, 13.135275011936075, 7.695659391982333, 17.742171114196818, 7.37223378837264, 5.508044615766294, 5.3333587553145705, 9.203993790438709])",False
13737246913.355263,"array('h', [22.39484951339626, 15.878195184469378, 7.967879696211482, 18.491268255259634, 7.681012451926805, 5.892684908038775, 5.687414662659372, 9.586158536313107])",False
13757221367.684212,"array('h', [23.536953811978677, 17.163464257932034, 8.295659477896338, 20.277249875373098, 8.167343668117612, 6.070238271231736, 6.046955576362086, 9.220393867121032])",False
13777195822.01316,"array('h', [23.44601297422503, 17.46364210607969, 8.903626705907635, 21.571902578486007, 8.706484489058552, 6.451278155006881, 6.518640001294998, 9.473275250203534])",False
13797170276.342106,"array('h', [22.651489456865754, 16.62912167670251, 8.659409257486612, 21.203082158101758, 8.976988646018677, 6.9700153946085415, 7.17304962645566, 9.681302747365068])",False
13817144730.671051,"array('h', [22.65434860267593, 17.35774226028086, 8.283063613891715, 20.00183675158548, 8.717045494744648, 7.009509226465828, 7.420656103116413, 9.919121997221392])",False
13837119185.0,"array('h', [22.606386055244375, 18.894512674348775, 7.7940711617349, 18.584630365352915, 8.094563730270538, 6.604626090099791, 7.056054284532405, 9.384727943316634])",False
13857093639.328949,"array('h', [23.08968526568001, 19.842885730195004, 7.874009730237376, 18.07553423568837, 7.99193253169303, 6.896173231396126, 7.716916006438861, 10.343124605999307])",False
13877068093.65789,"array('h', [24.51366870368625, 20.981063376377975, 8.179533003082252, 17.61447687820533, 8.08483232134037, 6.874524612856341, 7.781609298880594, 11.152221583231235])",False
13897042547.986843,"array('h', [26.432347985869253, 22.336758038690522, 7.8079938567882055, 16.00284358715755, 7.778591043567614, 6.895753345897734, 8.022084730828572, 11.764868007450332])",False
13917017002.315788,"array('h', [25.55995815090824, 22.804038079267343, 7.9416379941440285, 13.739848320262988, 7.562303251737367, 7.357959675935307, 9.280328495496011, 12.970565161805009])",False
13936991456.644737,"array('h', [28.184353247972037, 24.656588698839315, 7.836478942858759, 11.733903597161797, 7.118723790969067, 7.186017239256601, 9.774466355404112, 14.512819562671728])",False
13956965910.973686,"array('h', [31.006462937101517, 27.316760665402416, 7.8111122736324745, 11.12201916019019, 7.118568187113057, 7.751870846056971, 11.004769780277652, 16.780041045457175])",False
13976940365.302631,"array('h', [30.156181158068943, 26.494000049932918, 7.755229258062947, 11.10695064545166, 6.899817196439925, 7.536968293045301, 11.136957698745, 17.272466447536225])",False
13996914819.63158,"array('h', [29.301789942696814, 25.9990734070606, 7.836318453688672, 10.08913296788996, 6.697940509652397, 7.482938466639494, 11.384969265369692, 18.12263056097381])",False
14016889273.96053,"array('h', [30.18530630619335, 27.351949981132236, 8.032145717631956, 8.382430910146294, 6.684651900968303, 7.985024499215349, 12.138161575648335, 19.018073719910824])",False
14036863728.289474,"array('h', [31.06147403658415, 28.618094337585454, 8.384053109629518, 7.853119114377862, 6.973914026836349, 9.413720438973503, 14.108692099973121, 20.15969805822821])",False
14056838182.61842,"array('h', [32.71556535622767, 30.422631695302115, 9.238944552245151, 9.430885988848456, 8.121376632207534, 11.030615792742841, 16.014073891560543, 22.045462622080198])",False
14076812636.947369,"array('h', [33.83834776084838, 30.257419782137013, 9.956759248288316, 9.824370617906828, 8.426685918351469, 11.91586601342555, 17.56481119843256, 24.292007695787582])",False
14096787091.276321,"array('h', [33.99604503631641, 29.915138089068908, 10.609331061405433, 10.877313591511925, 9.247113208629807, 13.133841298662112, 19.082464229878028, 26.054761879168566])",False
14116761545.605263,"array('h', [32.85755270012084, 28.60597888382163, 10.045713693832607, 10.867887512794479, 9.091581732809228, 13.121452656468328, 19.028004814931215, 25.15415597581816])",False
14136735999.934212,"array('h', [32.06936248182055, 28.349224991790486, 10.211261064968758, 11.544888520356706, 9.505418021341683, 13.262784113541896, 19.225651315775124, 25.648541069326786])",False
14156710454.26316,"array('h', [33.797581245916916, 29.010465638477633, 10.47533680272191, 11.916093216984441, 10.373473855396712, 14.021409862946937, 20.085370542550805, 27.319078775616063])",False
14176684908.592106,"array('h', [33.431737830348155, 28.780775424736937, 10.277344310904965, 11.526394167182215, 10.202656277129451, 14.297046563644017, 20.19045437172847, 27.514220649810667])",False
14196659362.921051,"array('h', [32.16229274005838, 26.895909383990446, 9.959097846304775, 11.199762373554682, 10.39893649747087, 14.705735551503624, 20.248600209368114, 27.27499279130163])",False
14216633817.25,"array('h', [30.83354354529367, 24.77465838358727, 9.541424412834187, 10.75002430601493, 10.437876664264024, 14.690436655837255, 20.10362324355724, 26.72192241793051])",False
14236608271.578949,"array('h', [30.159898633268543, 23.84754743447588, 9.506176287495798, 10.248116798599025, 10.48810828105649, 15.126068866998542, 20.61391808495537, 26.473618380922726])",False
14256582725.90789,"array('h', [30.40708440346708, 22.44416795705049, 9.185303505009275, 9.893140438453512, 10.524016670958066, 16.292506225276973, 22.028415099100357, 27.481944769787358])",False
14276557180.236843,"array('h', [31.733138027677846, 23.02328984566703, 8.79674763264772, 10.0602696524109, 10.767210989129596, 16.330177583901985, 22.368545293792923, 29.24054587149357])",False
14296531634.565788,"array('h', [29.63203987440236, 21.145013955092143, 7.930454924480479, 9.808527959208165, 9.942241346196518, 14.815740937665273, 20.519870214237365, 28.246071155477917])",False
14316506088.894737,"array('h', [30.154689638952675, 21.19137619442323, 7.595470764979253, 9.130971404618709, 9.49681923658457, 13.87913686875675, 19.13348343846235, 27.56713021315306])",False
14336480543.223686,"array('h', [31.42672004951066, 21.286755233732197, 7.076040193245449, 8.690826197690436, 9.452718149318317, 13.408725672129801, 18.148005450384776, 26.614052413099238])",False
14356454997.552631,"array('h', [31.405764728735285, 21.99925878404375, 6.708352376070419, 8.40422640061443, 9.076013155484215, 12.683469461531086, 17.245463657364123, 26.8828937485892])",False
14376429451.88158,"array('h', [33.28052486858915, 23.448687124777884, 7.2154262036028465, 8.358465335110461, 9.303693165494472, 13.62072226037415, 18.538461232902105, 28.25755940190792])",False
14396403906.21053,"array('h', [31.815769671128244, 22.061971011232508, 7.241840050630003, 9.216054760200246, 9.080823495451392, 13.251960512749147, 18.206358698248643, 27.257837585725056])",False
14416378360.539474,"array('h', [31.118053107003757, 21.45999992575764, 7.17586395598172, 10.6184257036284, 9.075433937410551, 12.591706151402931, 17.343757113577833, 26.048021595797106])",False
14436352814.86842,"array('h', [29.579267900565846, 20.19009939044456, 6.865739472871076, 10.611450386506728, 8.7913885656127, 11.896839684228237, 16.37626645450636, 24.523159695128776])",False
14456327269.197369,"array('h', [28.710317907318494, 20.525034388435245, 7.042328249108631, 11.053072357946137, 8.526394498530696, 11.540181752173188, 16.03194501734187, 23.738177591704304])",False
14476301723.526318,"array('h', [28.39800885888604, 20.326100474803077, 6.952894013510403, 11.149468070385366, 8.437471963492518, 12.093639733365261, 17.0130762638345, 24.45997008702915])",False
14496276177.855263,"array('h', [28.732563640010905, 20.968992988108802, 6.846216598231451, 11.290752428026812, 8.844066992496955, 11.888446181877763, 16.464817179060567, 24.544838049888053])",False
14516250632.184212,"array('h', [26.776730403334618, 19.724282718561003, 7.057218004917152, 13.18720890289781, 10.936089370341564, 11.667361675687683, 14.61261560938057, 22.31418587667433])",False
14536225086.51316,"array('h', [24.578280914440263, 18.239867044801986, 7.97715792370153, 15.681777297408651, 13.427236752355672, 12.639747548239642, 13.77942791415366, 20.62543661725517])",False
14556199540.842106,"array('h', [25.478534519844924, 19.54279145366495, 8.573049609164899, 15.465141622772485, 14.357611480259672, 13.52347697877026, 14.809424937974095, 21.337153584751068])",False
14576173995.171051,"array('h', [23.64027806844243, 18.779602387445344, 8.172889990642226, 15.414680268341073, 14.705894872341737, 13.319300854099557, 14.408971067824346, 20.470657533128993])",False
14596148449.5,"array('h', [25.46983289923816, 20.333574593192356, 8.58398364362887, 15.175034184240333, 14.908505694594904, 13.705996597030591, 15.112052384662988, 21.212898579685238])",False
14616122903.828949,"array('h', [26.893761159488577, 20.21830871443329, 8.848117811891708, 15.378772756019114, 15.293706713343246, 13.78964466832, 14.91336245290993, 21.279965253883642])",False
14636097358.15789,"array('h', [26.55487023888126, 19.80179885963489, 8.490653380724487, 15.016166753841457, 15.345857568745181, 13.436068890145261, 14.509099660811435, 21.644999983948473])",False
14656071812.486843,"array('h', [26.60458238737454, 20.11911194121229, 8.208952695412261, 12.789913614882812, 14.419929767311146, 13.252377818740039, 14.479702885146773, 21.769609279762488])",False
14676046266.815788,"array('h', [25.980221481165273, 19.58377894613231, 7.995204224244229, 11.952801935268921, 13.985421619405242, 12.889375664108064, 14.049002805736269, 21.396083550917965])",False
14696020721.144737,"array('h', [25.757537183001578, 19.492311210775455, 7.954196828048416, 11.839922609302002, 14.363962141777396, 13.495269780349476, 14.76442979195707, 21.810204717210944])",False
14715995175.473686,"array('h', [24.93558879972212, 18.944311226455092, 7.75133279948353, 11.888422518017515, 14.607974085566033, 12.354018210928412, 13.22063218186557, 20.79944965252514])",False
14735969629.802631,"array('h', [24.760621093307495, 18.62803911022833, 7.770511009856079, 12.516216985736472, 15.30769350314082, 11.885387291820908, 12.462772780547384, 19.960390140486382])",False
14755944084.13158,"array('h', [23.16402597801821, 17.68014258394538, 7.615628396663409, 12.274446954776838, 14.589800152899816, 11.12397806867348, 11.730800065607072, 19.129145240553417])",False
14775918538.46053,"array('h', [23.040307954033707, 17.667483623424225, 7.2076692253810855, 10.310557325263856, 11.370637943081658, 9.734068490797737, 11.889758390471354, 19.21004676384123])",False
14795892992.789474,"array('h', [22.150911185460156, 16.69083164623323, 6.4923786307936036, 9.209750377184838, 9.769527874250217, 8.043790060194883, 10.657210978489003, 18.159654175534072])",False
14815867447.11842,"array('h', [20.20707046802709, 14.822987918335947, 6.206733588265532, 9.23096894473618, 9.014024651998843, 6.9928207190508544, 9.188305087570074, 16.340376722429003])",False
14835841901.447369,"array('h', [17.62285271839121, 13.142438024301278, 5.779308618114599, 9.089133639095158, 8.419606089729696, 6.507448935872691, 8.539774478476483, 14.613006605371082])",False
14855816355.776318,"array('h', [13.986175270753412, 10.409285932948267, 5.4506689797649, 10.335387600198759, 8.232906132562288, 5.759825954874975, 7.290705153446032, 12.238844592079111])",False
14875790810.105263,"array('h', [11.800333402090116, 9.540931139605874, 6.425071740356538, 12.450700119490634, 7.992227417679007, 5.535075525278286, 6.823163931346246, 10.654109325515536])",False
14895765264.434212,"array('h', [10.699572266767913, 9.000088221374106, 7.437327629618531, 13.146136423857197, 8.162212422340504, 5.919616355232342, 6.419153163240493, 9.207579243161714])",False
14915739718.76316,"array('h', [8.693265055867178, 7.565877004253686, 8.427175279479073, 14.343179289570532, 8.66437995871871, 6.106037952067916, 5.953510398851961, 7.777513970464008])",False
14935714173.092106,"array('h', [7.907840463715579, 7.2228772629374705, 9.408455637791338, 16.7646935200524, 8.939666714714152, 5.778728078239936, 5.30995211309216, 6.904049006612734])",False
14955688627.421051,"array('h', [6.9121392694209245, 6.6767667956361425, 10.075954057094481, 18.061544363103057, 8.69550303190961, 5.285137534226822, 4.738073815088026, 6.007664642442758])",False
14975663081.75,"array('h', [6.324974241139978, 6.485432417491266, 11.044395924636461, 18.217553331696845, 8.110082215044624, 5.515896740376153, 4.611388273129703, 5.327732552819361])",False
14995637536.078949,"array('h', [5.680851047888567, 6.487794051211126, 11.899262763447492, 19.042616275858464, 7.484982303721545, 5.288286308802423, 4.326822914786142, 4.648153807356425])",False
15015611990.40789,"array('h', [5.4468259340757035, 6.167336432789007, 12.09381323693392, 20.02326830673614, 7.58410972435211, 5.314495706259905, 4.191170692104016, 4.38295078015751])",False
15035586444.736843,"array('h', [4.762987676406106, 5.588345735999863, 11.643874454717723, 19.755368478238722, 7.44565299056534, 5.105435973837835, 3.6819627594114084, 3.8883695231584743])",False
15055560899.065788,"array('h', [4.697265994474512, 5.553597344956073, 11.996460601904603, 19.46615234409676, 6.943555062739267, 5.0183423449050375, 3.623207347514494, 3.668102837748118])",False
15075535353.394737,"array('h', [4.6113168153909, 5.515412409498828, 12.456502626504985, 20.617916632612314, 7.8016641955836885, 5.156906074990104, 3.5849686767940394, 3.565156457902204])",False
15095509807.723686,"array('h', [4.561551059266482, 5.4818109451082515, 12.793257465503462, 20.887876821500477, 8.08952867961177, 5.079844611235537, 3.434098991957468, 3.403526028272043])",False
15115484262.052631,"array('h', [4.601401474153857, 5.5006722221829305, 12.261616555243693, 19.213117782064014, 8.026540474636871, 4.79085712745135, 3.276669856270908, 3.343758794997701])",False
15135458716.38158,"array('h', [4.463067407566981, 4.9192828179557, 11.335831363342017, 18.21194221235848, 7.752175976253589, 4.359351048278213, 2.9287016858647843, 3.1747456265152367])",False
15155433170.71053,"array('h', [3.898644068864878, 4.532245740126681, 10.145906092011543, 18.392793420445233, 7.520519449679765, 3.641717458498838, 2.546206342477763, 2.743331966456746])",False
15175407625.039474,"array('h', [3.9660857461967733, 4.252451475283898, 8.987610253059822, 17.813338208306174, 7.446992299313847, 3.584606568228898, 2.4933097469434036, 2.8722396557520216])",False
15195382079.36842,"array('h', [3.690859410701986, 3.95583197953131, 8.730815575679486, 16.763572055084243, 7.543656173717439, 3.6343624192115542, 2.4462637622386376, 2.7249856379169723])",False
15215356533.697369,"array('h', [3.7265076906758505, 3.9764491958618873, 8.509986170263462, 16.7627166626301, 7.992434615754596, 3.9262955316419395, 2.5012491579314395, 2.6645741679500325])",False
15235330988.026318,"array('h', [3.5249161596851475, 3.8510240981732946, 7.2896449691020795, 16.164404227590648, 7.919478234876242, 3.9280755505891163, 2.413011607535323, 2.5368309348119253])",False
15255305442.355263,"array('h', [3.545910206159829, 3.524377807469693, 6.579884410377835, 15.546381785829306, 8.02968747862029, 3.874292908161358, 2.3659571914740347, 2.6014168294274023])",False
15275279896.684212,"array('h', [3.288237110075228, 3.6364221087723414, 6.498178806970128, 14.851819482422524, 8.15106529269107, 3.5802699817162176, 2.2374155392745148, 2.3400632728084507])",False
15295254351.01316,"array('h', [3.5247376681430893, 3.532767183907891, 6.418350006033789, 14.773224308080811, 8.531528646436536, 3.999079053981292, 2.248053322223844, 2.3809369391683073])",False
15315228805.342106,"array('h', [3.318278396639759, 3.4764259653149625, 5.457546935483533, 14.583794788911643, 8.258081663755545, 3.95044282447515, 2.082932064780968, 2.1911520364943895])",False
15335203259.671051,"array('h', [3.462092342420775, 3.2708240479819413, 5.42462969350537, 13.135020635641878, 7.4475409211503445, 4.067322462058104, 2.2511522430996846, 2.3710368723841704])",False
15355177714.0,"array('h', [2.9337123241469554, 3.2326310812817267, 4.603507457013171, 13.086250831240898, 7.239292225554028, 3.7664830692893214, 1.9689224312814326, 1.9382919659072997])",False
15355177715.0,"array('h', [7.833013885097996, 5.445801977974316, 1.920689866900254, 2.4546960821494492, 3.398560289879903, 4.575016423032496, 3.865714571232052, 6.004708187073406])",False
15375081458.26471,"array('h', [0.17227391888649254, 0.06775463481118997, 0.49609222566138506, 1.0606513290348973, 1.6004683334995955, 1.398945322651706, 0.42066829026841945, 0.003198331229502713])",False
15394985201.529411,"array('h', [2.253946909238765, 1.325386064635924, 1.1522321512806708, 1.0766947832905849, 1.580686972118386, 2.033401008877264, 1.6729611633027888, 1.635452160620169])",False
15414888944.79412,"array('h', [0.8307951825544935, 0.6126148837139802, 0.954460615963438, 0.9405895614848901, 1.450524291011188, 1.5053206056567026, 1.1141749437245079, 0.681725946734593])",False
15434792688.058823,"array('h', [2.0254887572173494, 1.456342594343742, 0.9981069518991827, 1.1489781628360674, 1.5375541995129791, 1.5262659402043945, 1.6031972812190232, 1.8523681590131706])",False
15454696431.323532,"array('h', [1.5398975195917433, 1.416035428900029, 1.4100402774917684, 1.3222997651342219, 1.618098636696472, 1.4370763700375155, 1.2323456057821043, 1.472287882751813])",False
15474600174.588242,"array('h', [2.329897639805124, 2.3379799175541627, 2.144262987090801, 2.738112685791202, 2.5564127576686126, 1.733689089334484, 1.621984291238415, 2.0591517835225375])",False
15494503917.852943,"array('h', [2.4306139711316517, 2.8228645365948712, 3.1200327165353547, 3.970788436001485, 4.060532899852316, 2.0426169673209214, 1.5755086086860082, 1.9452324897812598])",False
15514407661.117645,"array('h', [3.3036015459270986, 3.784175998312967, 4.185175669687964, 4.7091246043069805, 4.36906723335139, 2.3502461293779047, 2.2057731973632833, 2.490889535048491])",False
15534311404.382362,"array('h', [3.2931304827227863, 4.156459398805449, 4.976869575858374, 6.293796143667727, 4.9471841593746975, 2.556173665239405, 2.2621900673721442, 2.3252190591924875])",False
15554215147.647057,"array('h', [4.280352512699754, 4.88647316339768, 5.583490048035337, 9.066774408493032, 5.965830760720924, 3.1779321121656823, 2.8487195984217686, 3.045068951544347])",False
15574118890.911766,"array('h', [4.2031511410706415, 5.043222176429352, 6.893315330357998, 14.074968951842287, 8.01625910369362, 3.8468174102475676, 3.112171748396961, 3.0339482747994917])",False
15594022634.176468,"array('h', [4.334067295308349, 5.6059929626135565, 8.723395752649035, 18.350103463469637, 9.329171082820919, 4.232198151944566, 3.411740986462235, 3.306885227528471])",False
15613926377.441177,"array('h', [4.1901493425511696, 5.754179703509166, 9.4872552421822, 21.16865829104593, 10.318733615842634, 4.259985537618382, 3.4408159182956224, 3.239332036210556])",False
15633830120.70588,"array('h', [4.5896428501233135, 6.540356390651124, 10.688213052706642, 24.023984822853695, 11.673808123843058, 4.6378946442260895, 3.8126200945744655, 3.624443394226673])",False
15653733863.970589,"array('h', [4.75503826651945, 6.854904865889216, 11.554124687250148, 27.858247324271677, 13.51803073193692, 4.971670845393945, 3.888008084180894, 3.738034302948351])",False
15673637607.23529,"array('h', [5.412931651995637, 7.776394322240407, 12.967729502668453, 32.46592578279625, 15.569041014736696, 5.665900967265331, 4.339546264227727, 4.243870928130479])",False
15693541350.5,"array('h', [5.7175771197427325, 8.369625488345058, 14.704771130947858, 37.89163739334664, 18.128209324690662, 6.691440133528921, 4.666107228441544, 4.340113248468419])",False
15713445093.76471,"array('h', [6.084159947776377, 8.804092506054213, 16.075362147864844, 42.795533091208675, 20.52748252768843, 7.263692124117082, 4.9274444582754855, 4.628716821632469])",False
15733348837.029411,"array('h', [5.846074178044711, 8.512339878141821, 16.47756993235519, 46.0396172923838, 21.239855253829226, 7.278807357824821, 4.784603303222957, 4.429772384055066])",False
15753252580.29412,"array('h', [5.682398902915499, 8.32173704794148, 15.980185431152567, 47.799108748758904, 21.853123052513507, 7.409446731693238, 4.705593407497291, 4.407423920972523])",False
15773156323.558823,"array('h', [5.278065132460538, 7.766498928827535, 15.394174637903454, 47.77788170239397, 21.873130656975896, 7.297495979766673, 4.39348775137379, 4.232590692851263])",False
15793060066.823532,"array('h', [4.848604652771617, 7.283404454904012, 14.828257949695722, 47.38861056049549, 21.564059454143457, 7.159566326844139, 4.205413960838806, 4.084537367047243])",False
15812963810.088242,"array('h', [4.08722490030521, 6.715123223291599, 14.217726852222818, 44.23266534885443, 20.114271429277878, 6.532140776747991, 3.6323124991758293, 3.5458434499119025])",False
15832867553.352943,"array('h', [3.9534180669669765, 6.163826228483395, 12.411918864964024, 39.51925240582273, 18.053631955965162, 5.838133938119671, 3.237755588025221, 3.3965175969589025])",False
15852771296.617645,"array('h', [3.704595532156069, 5.485123166290489, 10.66372551575067, 35.32410661756332, 16.668697156081492, 5.411136146211209, 2.8527447944382787, 3.0236858981108887])",False
15872675039.882362,"array('h', [3.7555246585836253, 5.210318519652193, 9.94231964465222, 33.163460556742905, 15.574726270667998, 5.407496722225307, 2.799171430710533, 3.0078417538915385])",False
15892578783.147057,"array('h', [3.42874405578193, 4.660475024225398, 9.034236119508522, 31.671941604064497, 14.426456439440805, 5.220609452451164, 2.5084796118961243, 2.76194967527033])",False
15912482526.411766,"array('h', [3.0767332755443566, 4.241978256376898, 8.155667159334138, 28.01563517092332, 12.592702764087665, 4.905773367273754, 2.328242224116732, 2.5543811480604712])",False
15932386269.676468,"array('h', [2.622632092874275, 3.336539935432353, 6.53771869464256, 23.22073601754207, 10.509626978784235, 4.141707895139835, 1.995414835117159, 2.1858631921241627])",False
15952290012.941177,"array('h', [2.2780728978314086, 2.7710713624810475, 4.902812655469395, 18.13081138415629, 8.056581368245928, 3.337425030159238, 1.8286431281326074, 2.092183502387598])",False
15972193756.20588,"array('h', [1.983761714867162, 2.404483892219874, 3.7999284063129433, 14.843808210310682, 7.369487469336265, 3.15651364460673, 1.772036817755863, 2.0259627765037274])",False
15992097499.470589,"array('h', [2.0658335622803015, 2.4468033151236184, 3.4685650723021935, 11.596193464634583, 6.404176436402983, 2.9419355743240514, 2.1003588095808174, 2.4155749842669136])",False
16012001242.73529,"array('h', [2.9262346601717097, 2.29668641564097, 3.3475985082847797, 10.185533621274958, 5.561453170258902, 2.738492403818578, 2.3733934020630625, 2.880969685098335])",False
16031904986.0,"array('h', [4.691873757658563, 2.9046707229396627, 3.833042384127024, 11.212281083896123, 6.075886288893897, 2.696753557459071, 2.779336761008936, 3.6402882047018887])",False
16051808729.26471,"array('h', [5.337685206762651, 2.835788345422242, 5.216775069917742, 13.932552625100287, 7.085609640643785, 2.706331518425769, 3.0176752097240414, 4.148396271041098])",False
16071712472.529411,"array('h', [6.3701561328827525, 3.4888748599011183, 6.0328031833408495, 15.442249599541373, 8.032781406031297, 3.1963920066670917, 3.1775923666839465, 4.476801194373831])",False
16091616215.79412,"array('h', [6.911508036631924, 3.874857458494935, 6.329354116592133, 15.234627652018249, 8.12131296811365, 3.5627248241437086, 3.7490037032017844, 5.241249105113536])",False
16111519959.058823,"array('h', [7.408688490157593, 4.091895368881226, 6.934631780048899, 16.823242694058507, 8.53554108354284, 3.7711927466433397, 4.040144027658765, 5.671017494306273])",False
16131423702.323532,"array('h', [7.71515195629264, 4.042524189870464, 7.700505031399487, 18.537550747410176, 9.51939457947146, 4.1762798186624135, 4.501265809209892, 6.194809936941001])",False
16151327445.588242,"array('h', [8.281199534170943, 4.317633946816083, 8.407614710150442, 19.341626081268814, 10.093833653454961, 4.496232537837268, 5.0594336106418565, 7.019065771150306])",False
16171231188.852943,"array('h', [9.11842556403845, 4.7463605515178475, 9.245791626256862, 21.221446636984364, 10.374643181755927, 4.7434809139307985, 5.331579520381549, 7.356134008633179])",False
16191134932.117645,"array('h', [9.225288064826922, 5.046361042454501, 9.973193540945609, 22.640029382533793, 12.01991235336232, 5.18655522599393, 5.658049530236356, 7.59362432334646])",False
16211038675.382362,"array('h', [10.540236424907562, 5.81787630633651, 10.257495646343823, 22.683211067874993, 11.824981858853038, 5.3661179309017415, 5.781256127983689, 7.725496109945926])",False
16230942418.647057,"array('h', [11.3170592352765, 6.274941342897235, 10.963141166096683, 23.905975967629647, 11.627921077223899, 5.512785892292563, 5.859180632507535, 7.93375243817767])",False
16250846161.911766,"array('h', [11.322691872149724, 6.3392695104003245, 11.613889096927405, 26.19909314317295, 12.274524610514485, 5.7260267873684345, 5.773254266011855, 7.541033082364959])",False
16270749905.176468,"array('h', [10.186026927074014, 6.1124245638346855, 12.03634727962566, 26.919661411058602, 12.439522373814532, 5.927066053903309, 5.584811596849316, 7.09632768151119])",False
16290653648.441177,"array('h', [9.08379921373904, 5.729131824490542, 11.15286431216709, 24.718580943538637, 11.921824056562027, 5.927134646143378, 5.299009761424402, 6.417480529456223])",False
16310557391.70588,"array('h', [9.002917033026328, 6.124232878959167, 10.109606147387728, 22.709666732474233, 11.1164918180301, 5.9279250627450875, 5.533487713094148, 6.269653276652533])",False
16330461134.970589,"array('h', [8.272913888837532, 5.450192535982486, 9.718787687904866, 23.53110484132104, 10.660810292062488, 5.50228306629129, 5.388496820319519, 6.22618685384711])",False
16350364878.23529,"array('h', [8.694712420195959, 5.74118878922103, 9.709186332034053, 24.117715203062467, 10.908749094644657, 5.339137751612358, 5.059989303490888, 5.707657378409105])",False
16370268621.5,"array('h', [8.701808152553058, 5.9793998026073565, 9.492121931450283, 23.226085516955273, 10.891728952568029, 5.358476805124109, 5.004412224148423, 5.50727359475463])",False
16390172364.76471,"array('h', [8.930782069360953, 6.41288164235628, 8.78005329812057, 21.66192513855332, 10.200011614159546, 5.021723642022012, 4.557820180777702, 4.997485186829077])",False
16410076108.029411,"array('h', [8.54930627093258, 6.476232418868341, 8.92007741948567, 22.349012998214807, 10.575161329423816, 4.876119271314618, 4.379024766156399, 4.536732838210748])",False
16429979851.29412,"array('h', [8.742910431660025, 6.808104284296143, 8.784655118628953, 22.19001085225819, 10.112449973059366, 4.67597343436654, 4.13716634790799, 4.448997366159064])",False
16449883594.558823,"array('h', [8.66851383538236, 6.544804349819814, 8.517629264119524, 22.305009097199907, 9.146907498142854, 4.328433509555975, 3.8581391963345624, 4.402383353697767])",False
16469787337.823532,"array('h', [7.971928049466382, 6.211327909390936, 8.846201474016564, 25.24417140949302, 9.953335568790742, 4.489336105513578, 4.003743695725878, 4.454071345014207])",False
16489691081.088242,"array('h', [8.032522791485, 6.2359130830991685, 9.727593553980238, 27.448705375830354, 10.758483041688322, 5.033777995367863, 4.0697542381676115, 4.505598181008903])",False
16509594824.352943,"array('h', [8.388629337451496, 6.601502682204722, 10.0049929573624, 28.121867845956825, 11.853434311689695, 5.490666438050587, 4.197985436875912, 4.995105948574309])",False
16529498567.617645,"array('h', [9.013640975412144, 6.893782782172881, 9.847947712638476, 27.790308851547987, 11.677411744872508, 5.5757589480991445, 4.502876004363512, 5.29288650930033])",False
16549402310.882362,"array('h', [8.77506048571474, 6.642815808839493, 10.021406571280425, 28.534914643361873, 11.754076614972814, 5.8050254704153135, 4.57894999745507, 5.503019732279101])",False
16569306054.147057,"array('h', [8.332389779326267, 6.213221743439566, 10.13636084205503, 27.85816432468233, 11.89178463366708, 5.609068498300514, 4.369017064509612, 5.299464727920548])",False
16589209797.411766,"array('h', [8.304648223010885, 6.257097359452703, 10.661865758736198, 27.499894607302352, 12.11395096953891, 5.805941097685394, 4.501871628568037, 5.221381524513972])",False
16609113540.676468,"array('h', [8.54966416742481, 6.025547984436336, 10.400363617079934, 27.039090210613328, 11.654402855459528, 5.861758242817643, 4.561652605121975, 5.408184554316963])",False
16629017283.941177,"array('h', [8.93207305410225, 6.155971178086185, 10.233171448397794, 26.08261601983912, 11.189432580387075, 5.721299130500225, 4.633506355659468, 5.6685034206594604])",False
16648921027.20588,"array('h', [8.839358408416174, 5.80532478301135, 9.95951591295812, 25.161710153738834, 10.64750017830742, 5.483004468200846, 4.439663364218859, 5.497981488801749])",False
16668824770.470589,"array('h', [9.876852055858212, 5.784941826503425, 9.178500268957974, 22.981149163773562, 10.145396655523278, 5.483689878416271, 4.694672640876304, 6.247928778993747])",False
16688728513.73529,"array('h', [11.772765335215368, 6.053837712624053, 8.782951913558408, 22.017581988502112, 9.97179481255485, 5.667741473947441, 5.352764165340998, 7.860302263634704])",False
16708632257.0,"array('h', [12.213716580321687, 6.485602955481932, 8.603595885418272, 20.244818503512715, 9.484152413490348, 5.793844616160167, 5.8011657900575075, 8.533175072829243])",False
16728536000.26471,"array('h', [13.4852743274571, 6.891244297723929, 7.229793548220589, 15.595749945439838, 8.029319666751892, 5.38732133439162, 5.7606543147093126, 9.10239489855927])",False
16748439743.529411,"array('h', [16.940276179631898, 8.745796102382382, 5.805815241980015, 11.601532317986058, 6.218791928000381, 4.935914471633426, 6.11984585041942, 10.215758937527308])",False
16768343486.79412,"array('h', [17.365798536673168, 9.189053024970168, 5.475039735901973, 10.091841659242057, 5.172878848599137, 4.787945474629368, 6.337426848015037, 9.992232236113])",False
16788247230.058823,"array('h', [17.364989016140402, 9.38604918528923, 5.638844761761547, 11.696141461534038, 5.519934481704578, 4.645480326357094, 6.172223553132436, 10.122537039215864])",False
16808150973.323532,"array('h', [20.18868258779156, 10.862908121728376, 5.7442219048584615, 11.596789829047362, 5.197713347521375, 4.473315100497072, 6.357473629264774, 10.803944237952509])",False
16828054716.588242,"array('h', [21.38268710662638, 11.420144880473035, 5.219824590844635, 11.03264339937681, 5.244830650811853, 5.155693115562098, 7.016976563949566, 11.236931913511075])",False
16847958459.852943,"array('h', [21.617182922841675, 11.625560158566394, 4.629018553499467, 10.118124941231645, 4.954070920476832, 5.105705611876435, 7.025294523787391, 11.115682102930382])",False
16867862203.117645,"array('h', [22.603791482233213, 11.843819819761535, 4.433975903821107, 9.960462546762447, 5.039914503382793, 5.0873649875921405, 7.264057532761627, 11.459671693723136])",False
16887765946.382362,"array('h', [23.188093723655474, 11.982988879262589, 4.270647007734843, 10.096734643882458, 4.943763736394221, 5.156034859001575, 7.396746602489942, 11.562929376418507])",False
16907669689.647057,"array('h', [24.399942243918115, 12.837526102896843, 4.3761238527011175, 9.701894431344135, 4.91679518232358, 5.226102653991452, 7.666780056016205, 12.169833952855841])",False
16927573432.911766,"array('h', [22.949558310612773, 12.650030863629386, 4.397390751121787, 9.239774460552999, 4.89065826768195, 5.354213444676093, 7.36218498083827, 11.14027488082357])",False
16947477176.176468,"array('h', [22.9339621405691, 12.626483199280708, 4.605907554637545, 9.391344991431271, 5.068173970525139, 5.618487738045938, 7.400975563464043, 10.32402756673842])",False
16967380919.441177,"array('h', [23.2900254758224, 12.75143206044456, 4.7944172232390265, 9.394004201420218, 5.429005694398602, 6.434315642304781, 8.391010736279325, 11.01743064648962])",False
16987284662.70588,"array('h', [21.627675940975067, 12.088971799774466, 4.830051316077614, 9.098968217571185, 5.542868739884283, 6.793787610025786, 8.697272054669725, 10.556925140818564])",False
17007188405.970589,"array('h', [18.922451672496628, 10.255835326192665, 4.840460571378878, 9.240542806318956, 5.607207373809344, 6.815130839627207, 8.724908536147295, 10.473501845284824])",False
17027092149.23529,"array('h', [19.80178862742752, 10.721502873854785, 5.179578203054937, 8.66440590459852, 5.516238641586695, 6.997864052918078, 9.078830475351634, 11.358446134394645])",False
17046995892.5,"array('h', [19.72662219836635, 10.431439917822988, 4.8500005852955015, 6.091096167424083, 5.01790073804047, 7.3169299764563265, 9.694661197676174, 11.39805835997366])",False
17066899635.76471,"array('h', [17.826640923196607, 9.688636765377662, 4.523118386958951, 5.449146582424018, 4.79109157111668, 7.143670649030916, 9.313596710815085, 10.908062103192556])",False
17086803379.029411,"array('h', [18.781331632444886, 10.34668917998835, 4.823605924008078, 5.136064478723327, 4.8747336760289794, 7.252450136895846, 9.600731015101726, 11.081863456751146])",False
17106707122.29412,"array('h', [18.56196102970141, 10.892480946619044, 5.295207185412067, 5.147708917225193, 5.322751619112213, 7.968856984244295, 10.450769742564514, 11.523811951873249])",False
17126610865.558823,"array('h', [17.713064598100352, 11.238509402286088, 5.547148564754021, 5.184621840296441, 5.507656105026418, 8.308354618062028, 10.945355044844607, 11.946232610672084])",False
17146514608.823532,"array('h', [16.73328471847524, 11.549067746939487, 5.936113039722806, 5.1188861289889855, 6.453643749990919, 9.615755452637595, 12.573575444946332, 12.980276944706878])",False
17166418352.088242,"array('h', [17.663027482453867, 12.00917482229231, 5.83442647638682, 5.240411569122457, 7.2371288124994395, 10.760679863868553, 14.013663447308902, 14.421509598702183])",False
17186322095.352943,"array('h', [19.6128693924685, 13.457263214745728, 6.094980597315588, 5.6979533196743315, 7.880959997221057, 11.494395650737118, 15.15901404660496, 16.470063466245957])",False
17206225838.617645,"array('h', [20.8339918485364, 14.87647774027946, 5.78634518286422, 5.320051520939326, 7.574062430687615, 11.179899914271923, 14.960800650591638, 17.024592629725117])",False
17226129581.882362,"array('h', [22.775942025105966, 16.061248958287166, 6.012555359862756, 5.302510659315395, 7.846824732798842, 11.308716209272424, 15.454840371219545, 18.21274975371342])",False
17246033325.147057,"array('h', [24.00104867922957, 17.060448250756973, 6.51391746217953, 5.633654983644724, 8.277374351187886, 11.873234449869928, 16.531410288967944, 19.454199787687006])",False
17265937068.411766,"array('h', [24.59048681822494, 17.337340452538104, 6.352377839949112, 5.831027596401997, 8.38659312049895, 11.851783633416982, 16.69218419413767, 19.42854065741182])",False
17285840811.676468,"array('h', [23.87294368328463, 16.928578849088687, 6.057847448187717, 5.591238298930891, 8.592634869262993, 12.228011695656393, 16.754806339111983, 19.40466380015744])",False
17305744554.941177,"array('h', [24.026581614284083, 17.713266819452027, 6.156068267059118, 6.835378133251843, 9.062653328841476, 12.875040257319396, 17.083683873321835, 20.072714457545125])",False
17325648298.20588,"array('h', [24.852093112776604, 18.668876959181258, 6.686426120294793, 9.34115745125702, 9.641479412824264, 12.950434519956698, 17.434442219399617, 20.898771613772947])",False
17345552041.47059,"array('h', [24.435177601053237, 17.771166310650713, 6.526116847233621, 9.944656749439888, 9.394564755237276, 12.345121679329916, 16.848086203450237, 21.11837506553444])",False
17365455784.73529,"array('h', [24.08303005554732, 18.06597990787869, 6.678370783059641, 9.985450890620681, 9.538105601100037, 12.647065367339637, 16.960369657028135, 21.11650504808849])",False
17385359528.0,"array('h', [26.169127064542717, 19.611779544226938, 7.195153183110178, 10.69196412774724, 9.771595573628582, 12.635714688207326, 16.914835936270357, 21.172520486337536])",False
17405263271.26471,"array('h', [26.629218670706734, 19.153146892598283, 6.834688618544763, 11.253977205707457, 9.153836438331583, 11.451103277339286, 15.381553635119465, 19.906834175874263])",False
17425167014.52941,"array('h', [26.0070593736775, 19.162019032510774, 7.179456030819321, 11.363942789977667, 8.80574279595957, 10.828302434391802, 14.581132424351848, 18.428673778630554])",False
17445070757.79412,"array('h', [23.749611470672004, 17.817410194230625, 6.978449031972274, 11.129110548727992, 8.469420575965026, 10.199342943045012, 13.737775794786831, 16.900729082330766])",False
17464974501.058823,"array('h', [23.6440759697234, 17.455551276374823, 7.4312796147987585, 11.281789141541156, 8.808308434444363, 10.60508933067785, 13.773756837555743, 16.76501175985606])",False
17484878244.323532,"array('h', [25.407641866640233, 18.933812093198874, 7.754720131420866, 10.99234076453456, 8.776350626052327, 10.564552540076857, 13.546567651900583, 17.405999052467063])",False
17504781987.58824,"array('h', [26.443225411564445, 19.85694880265549, 7.8788991241196795, 10.594991730998355, 8.505297927951007, 9.994053202001904, 12.560099741109106, 17.09647545251895])",False
17524685730.852943,"array('h', [26.738409181748402, 20.745010881111973, 8.159256631789566, 10.577955605744986, 8.258571218447848, 9.691318502620026, 12.169917586647248, 16.91012563733212])",False
17544589474.117645,"array('h', [28.949186830101972, 22.59487723924625, 8.751916116620272, 11.534902288191248, 8.66456908587812, 9.658430551516128, 12.635334830605053, 18.051207665386148])",False
17564493217.382362,"array('h', [30.224320876202565, 22.794514471099006, 9.317425046351337, 10.323387082180188, 8.627912153131058, 9.781683004461753, 12.84642608303608, 18.30244540782679])",False
17584396960.647057,"array('h', [29.04038222488295, 22.279566185927212, 8.954874941758485, 8.303563642307493, 8.123665506690719, 9.749447963212278, 12.7175725099262, 18.0338554972579])",False
17604300703.911766,"array('h', [30.12947283568548, 23.1863104098293, 8.74771892303362, 8.604764987805611, 8.166275328753796, 9.730582279011745, 13.018435934915791, 18.565530248719917])",False
17624204447.176468,"array('h', [29.5802663557299, 21.999196840442767, 8.397122085138776, 8.88380618736783, 7.7261769319567755, 9.028577528062153, 12.204482056932731, 18.411460814532592])",False
17644108190.441177,"array('h', [29.56526352931779, 22.07949540789461, 8.163832864066094, 8.094745091992356, 7.220156975603427, 8.884005908921695, 12.21310260185875, 18.784044529815652])",False
17664011933.70588,"array('h', [30.029504130507302, 22.496153691475484, 8.24433504429369, 7.679801801128989, 7.2422886090847705, 9.279381390193313, 12.944650785371744, 19.961529968703232])",False
17683915676.97059,"array('h', [29.167718284543536, 21.561296661596803, 7.964736090841941, 7.969528487380723, 6.947550327718458, 8.990711601243117, 12.586616572500013, 19.837828216814383])",False
17703819420.23529,"array('h', [29.017680224625128, 21.70828860674138, 8.449684530020013, 8.319889783685472, 7.1108395640656195, 9.177943397315248, 13.083654627498548, 20.267591999755368])",False
17723723163.5,"array('h', [26.623843837289332, 20.316258936176148, 8.494202329358455, 8.787124519969218, 7.222814774749353, 8.911076249353394, 12.640345256575854, 19.04009979639501])",False
17743626906.76471,"array('h', [24.372433294634224, 18.13461931252428, 7.981967371022321, 8.990729853943943, 6.814131621010494, 8.394289663978382, 11.968133791222582, 17.66796619635726])",False
17763530650.02941,"array('h', [23.857254261172383, 17.22629618285272, 7.44825421010694, 9.31322354852162, 7.091033579672095, 8.642966455395237, 12.209238939780278, 17.758069875180603])",False
17783434393.29412,"array('h', [22.722087243372084, 15.981763198125618, 7.109930477868224, 9.202845803187659, 6.896644552247724, 8.29332152097469, 11.78100556275453, 16.987189300586696])",False
17803338136.558823,"array('h', [20.69176071297766, 14.693579724122255, 6.382378226487599, 8.130457698189844, 6.136907361796829, 7.599916120059314, 10.862972919270488, 15.664380111388066])",False
17823241879.823532,"array('h', [21.150068479895488, 15.096425919091377, 5.856784539193841, 7.947824470679056, 6.101572187791691, 7.595499738647328, 10.985980806192337, 15.78017351649377])",False
17843145623.08824,"array('h', [20.057981142511586, 14.269425059563359, 5.770419350076238, 7.815127793568803, 5.907698416265074, 7.315119777565197, 10.216578299539234, 14.706227599278497])",False
17863049366.352943,"array('h', [20.56004304808932, 15.17162005524961, 5.953333142283498, 6.7501127212751895, 5.839759702021148, 7.409516869370292, 10.446400801727705, 15.24501165602561])",False
17882953109.617645,"array('h', [21.240924992101384, 15.15629776031323, 5.647269064487474, 5.828289787251709, 5.683266581916422, 7.430613510691239, 10.748673143965108, 16.027287534005634])",False
17902856852.882362,"array('h', [20.615499893843243, 14.57689081906868, 5.715749629855896, 5.924838294970918, 5.771022603452124, 7.261593687247514, 10.289645112857315, 15.950537747459144])",False
17922760596.147057,"array('h', [20.63728612025969, 14.963750502510669, 5.538623440023276, 5.620730483088573, 5.513496545758968, 6.934248696435721, 9.94600648719336, 15.86591768908362])",False
17942664339.411766,"array('h', [22.440147753541197, 15.160292010356667, 5.471694796672432, 5.146644733986714, 5.63326305577172, 7.452511943724218, 10.48583685593032, 16.85828031938574])",False
17962568082.676468,"array('h', [22.700924026607975, 14.946120115246858, 4.808835591313711, 4.626901213760499, 4.949412440174287, 6.721563962916878, 9.57147007376053, 16.1302849569337])",False
17982471825.941177,"array('h', [22.523572041379616, 14.650820135338103, 4.194132704376953, 4.073034109854275, 4.436658527035841, 6.310789198758584, 9.262210114686557, 15.793158406413434])",False
18002375569.20588,"array('h', [20.623706428527118, 14.450798282733045, 4.3562799274887825, 3.9139996479107104, 4.395190494141669, 6.362226637583234, 9.030077539581196, 14.690577098086296])",False
18022279312.47059,"array('h', [21.143764626568455, 14.741099633044904, 4.589720821143636, 3.619419027868048, 4.174888637476867, 6.3398839048747035, 9.2651058456365, 15.423671663145807])",False
18042183055.73529,"array('h', [19.956286302282233, 13.888316864320865, 4.124915152472905, 3.346741008185003, 4.160666561737099, 6.426011806560301, 8.869111407792818, 14.556820483983937])",False
18062086799.0,"array('h', [20.577639473228704, 14.053270203387756, 4.3649630910516395, 3.1512325573967086, 4.211010580239864, 6.530065221926913, 9.432387104416936, 15.687846172986541])",False
