time,.data
1969-12-31 18:00:05.212000000,(-1 7 -5 -3 -3 -4 -6 -7)
1969-12-31 18:00:05.212000000,(-6 -7 -9 -8 -4 -6 -4 -11)
1969-12-31 18:00:05.214333722,(1 1 7 2 2 -4 -15 -11)
1969-12-31 18:00:05.214333722,(3 0 7 8 -2 -2 -2 -1)
1969-12-31 18:00:05.228336056,(2 -5 -12 -13 -9 -11 -4 -4)
1969-12-31 18:00:05.228336056,(4 6 2 8 7 9 10 15)
1969-12-31 18:00:05.238837806,(-2 -2 -4 -5 -7 -4 -2 -8)
1969-12-31 18:00:05.238837806,(-3 -4 -5 -6 -1 -4 -2 -1)
1969-12-31 18:00:05.256340723,(-2 -2 0 4 2 -2 -6 -7)
1969-12-31 18:00:05.256340723,(-1 -8 -19 -13 -10 -8 -2 0)
1969-12-31 18:00:05.258674446,(-3 2 0 3 5 4 13 25)
1969-12-31 18:00:05.258674446,(-1 -1 -1 0 -1 -6 -6 -8)
1969-12-31 18:00:05.282011669,(-2 -2 -7 -5 -3 -6 0 1)
1969-12-31 18:00:05.282011669,(2 -4 -6 -3 -1 -4 -3 -4)
1969-12-31 18:00:05.289012835,(1 -5 -4 -3 -2 -1 6 4)
1969-12-31 18:00:05.289012835,(-2 -7 -6 -2 -1 -2 1 0)
1969-12-31 18:00:05.298347725,(-3 7 12 6 4 3 0 2)
1969-12-31 18:00:05.298347725,(2 3 2 2 -4 -2 -2 -4)
1969-12-31 18:00:05.308849475,(2 -4 -9 -3 -6 -7 -7 -2)
1969-12-31 18:00:05.308849475,(-2 6 10 1 0 -1 -1 1)
1969-12-31 18:00:05.325185531,(2 -5 -7 0 4 4 6 0)
1969-12-31 18:00:05.325185531,(-2 2 5 3 1 1 1 4)
1969-12-31 18:00:05.333353559,(0 -1 -2 -3 -6 -5 -8 -9)
1969-12-31 18:00:05.333353559,(-2 -2 -6 -3 2 1 3 0)
1969-12-31 18:00:05.352023337,(-6 -10 -3 -3 -3 -1 -9 -9)
1969-12-31 18:00:05.352023337,(-1 6 1 -1 3 -1 -6 -8)
1969-12-31 18:00:05.353190198,(2 -1 0 -5 -2 1 6 21)
1969-12-31 18:00:05.353190198,(-4 -6 -1 -4 -3 -1 -3 -13)
1969-12-31 18:00:05.378861144,(-1 2 4 2 -1 1 -1 -6)
1969-12-31 18:00:05.378861144,(3 -1 -2 1 1 1 -12 -6)
1969-12-31 18:00:05.380028005,(0 2 0 1 1 1 -4 0)
1969-12-31 18:00:05.380028005,(-13 -2 0 -2 -4 -2 -2 -33)
1969-12-31 18:00:05.395197200,(14 2 -2 -1 0 1 3 21)
1969-12-31 18:00:05.395197200,(-14 -9 -7 -6 -6 -7 -1 -9)
1969-12-31 18:00:05.403365228,(-13 -6 4 -2 -2 -2 3 -12)
1969-12-31 18:00:05.403365228,(11 3 -1 -1 1 -3 0 21)
1969-12-31 18:00:05.422035006,(-1 1 -3 -2 -1 -3 1 -1)
1969-12-31 18:00:05.422035006,(0 -3 -3 -3 -1 -1 0 0)
1969-12-31 18:00:05.424368728,(-13 -3 -1 -2 -3 -1 3 -11)
1969-12-31 18:00:05.424368728,(-5 -3 -4 -1 1 2 2 7)
1969-12-31 18:00:05.448872812,(-3 -8 -8 -7 -5 -7 -9 -8)
1969-12-31 18:00:05.448872812,(24 12 3 1 2 1 10 18)
1969-12-31 18:00:05.450039673,(-15 -8 -3 1 2 -5 -8 -23)
1969-12-31 18:00:05.450039673,(11 0 -1 -2 -2 0 -1 12)
1969-12-31 18:00:05.465208867,(-22 -4 3 1 1 0 -4 -21)
1969-12-31 18:00:05.465208867,(-2 -4 3 2 -1 3 -1 1)
1969-12-31 18:00:05.475710618,(12 9 8 4 3 4 -1 -1)
1969-12-31 18:00:05.475710618,(14 7 3 3 1 3 1 -1)
1969-12-31 18:00:05.492046674,(40 18 6 1 -1 -2 -3 13)
1969-12-31 18:00:05.492046674,(-28 -9 -1 -1 -1 7 -3 -26)
1969-12-31 18:00:05.494380397,(-33 -15 -5 -1 -3 -1 -9 -9)
1969-12-31 18:00:05.494380397,(-13 -10 -8 -7 -6 -5 -5 -15)
1969-12-31 18:00:05.518884481,(-6 -1 2 0 -1 -1 1 -4)
1969-12-31 18:00:05.518884481,(56 23 7 3 8 17 22 31)
1969-12-31 18:00:05.520051342,(-64 -28 -11 -8 -8 -41 -54 -49)
1969-12-31 18:00:05.520051342,(14 6 5 3 6 26 16 25)
1969-12-31 18:00:05.535220537,(-43 -17 -13 -9 -11 -14 -8 -29)
1969-12-31 18:00:05.535220537,(38 11 3 1 2 3 17 43)
1969-12-31 18:00:05.543388565,(-7 -5 -4 -3 -2 2 3 -19)
1969-12-31 18:00:05.543388565,(17 17 7 3 4 0 4 18)
1969-12-31 18:00:05.562058343,(-9 -23 -11 -7 -7 -8 -26 -50)
1969-12-31 18:00:05.562058343,(-30 -10 -4 0 -2 -7 -12 -9)
1969-12-31 18:00:05.564392065,(17 7 -4 -4 -8 2 29 5)
1969-12-31 18:00:05.564392065,(-3 1 2 3 9 12 -9 10)
1969-12-31 18:00:05.588896149,(42 30 10 5 6 4 24 35)
1969-12-31 18:00:05.588896149,(-50 -12 -3 -2 -8 -7 -20 -39)
1969-12-31 18:00:05.590063011,(-40 -21 -7 -3 0 -10 -8 10)
1969-12-31 18:00:05.590063011,(-19 -15 -8 -6 -6 8 -18 -52)
1969-12-31 18:00:05.605232205,(-3 -5 -1 -4 -3 -6 -11 -13)
1969-12-31 18:00:05.605232205,(22 18 4 0 -2 -5 -4 5)
1969-12-31 18:00:05.623901984,(49 25 8 7 5 14 26 29)
1969-12-31 18:00:05.623901984,(-24 -9 -3 2 1 8 6 4)
1969-12-31 18:00:05.632070012,(24 10 4 5 7 6 -7 50)
1969-12-31 18:00:05.632070012,(-39 -27 -16 -10 -11 -21 -22 -55)
1969-12-31 18:00:05.634403734,(25 21 6 -1 -2 4 7 18)
1969-12-31 18:00:05.634403734,(45 7 -1 -6 -7 -13 16 23)
1969-12-31 18:00:05.658907818,(-51 -8 4 1 -2 -6 -3 -21)
1969-12-31 18:00:05.658907818,(26 -2 -6 -3 -3 -6 15 61)
1969-12-31 18:00:05.660074679,(-12 0 -4 -2 4 46 -1 -32)
1969-12-31 18:00:05.660074679,(23 -7 -5 -5 -5 15 10 22)
1969-12-31 18:00:05.674077013,(36 17 6 4 -5 -41 -14 31)
1969-12-31 18:00:05.674077013,(-11 5 0 -1 3 14 -15 -38)
1969-12-31 18:00:05.685745624,(16 0 2 2 3 -12 10 -2)
1969-12-31 18:00:05.685745624,(11 -6 -1 -1 -1 -5 12 39)
1969-12-31 18:00:05.702081680,(-13 -1 -4 -3 -1 41 40 22)
1969-12-31 18:00:05.702081680,(-9 -9 3 3 0 -34 -28 9)
1969-12-31 18:00:05.704415403,(31 21 8 6 4 -5 -4 -2)
1969-12-31 18:00:05.704415403,(-22 -11 -12 -10 -10 -19 -16 -40)
1969-12-31 18:00:05.728919487,(-42 -24 -7 -4 -1 -16 -4 -24)
1969-12-31 18:00:05.728919487,(7 3 2 2 1 -1 4 -4)
1969-12-31 18:00:05.730086348,(28 21 14 8 10 23 20 21)
1969-12-31 18:00:05.730086348,(-29 -5 -1 3 0 -15 -12 23)
1969-12-31 18:00:05.744088680,(0 -7 -4 -5 -3 10 -11 -47)
1969-12-31 18:00:05.744088680,(5 8 7 3 1 8 5 -7)
1969-12-31 18:00:05.754590432,(-4 -15 -11 -6 0 17 1 25)
1969-12-31 18:00:05.754590432,(8 5 1 2 -1 -11 34 46)
1969-12-31 18:00:05.772093349,(-12 8 4 5 4 4 -22 -4)
1969-12-31 18:00:05.772093349,(15 -5 -6 -4 -4 -10 -2 -22)
1969-12-31 18:00:05.774427071,(-34 -16 -3 -4 -4 3 2 -17)
1969-12-31 18:00:05.774427071,(-42 -15 -8 -10 -9 -41 -41 -57)
1969-12-31 18:00:05.800098016,(9 5 3 3 11 40 32 15)
1969-12-31 18:00:05.800098016,(0 9 6 4 2 7 13 13)
1969-12-31 18:00:05.801264877,(30 30 13 11 7 -8 -9 41)
1969-12-31 18:00:05.801264877,(-9 -22 -9 -8 -7 -4 -22 -59)
1969-12-31 18:00:05.814100350,(-2 -2 0 -4 -7 -22 1 -6)
1969-12-31 18:00:05.814100350,(5 -3 -4 -2 -1 3 -6 18)
1969-12-31 18:00:05.824602100,(20 1 -1 -4 0 -8 -5 -1)
1969-12-31 18:00:05.824602100,(18 20 15 13 11 11 7 -1)
1969-12-31 18:00:05.842105018,(3 -13 -14 -10 -11 -9 -22 -27)
1969-12-31 18:00:05.842105018,(-18 -11 -5 -5 -4 15 -7 -54)
1969-12-31 18:00:05.844438740,(27 10 2 0 -16 -71 7 26)
1969-12-31 18:00:05.844438740,(-12 -10 -6 -3 0 -14 -53 -42)
1969-12-31 18:00:05.868942824,(3 7 6 5 5 18 24 36)
1969-12-31 18:00:05.868942824,(-31 -11 -5 -2 -4 -16 4 -24)
1969-12-31 18:00:05.870109685,(-25 -18 -5 -5 -4 -4 -15 -7)
1969-12-31 18:00:05.870109685,(5 -1 4 1 2 15 33 36)
1969-12-31 18:00:05.884112019,(36 16 5 5 3 -7 -10 9)
1969-12-31 18:00:05.884112019,(-3 2 -4 -3 -4 -47 -3 38)
1969-12-31 18:00:05.894613769,(24 -3 3 2 10 56 12 7)
1969-12-31 18:00:05.894613769,(-54 -9 -4 2 0 1 -18 -69)
1969-12-31 18:00:05.912116686,(-16 -15 -6 -4 -3 -1 16 -23)
1969-12-31 18:00:05.912116686,(14 -7 -2 -5 -3 -5 10 53)
1969-12-31 18:00:05.914450408,(1 6 2 1 1 4 1 -3)
1969-12-31 18:00:05.914450408,(22 19 7 4 3 0 -14 6)
1969-12-31 18:00:05.938954492,(1 -5 -8 -6 -5 -13 -14 -32)
1969-12-31 18:00:05.938954492,(7 13 10 7 13 57 19 8)
1969-12-31 18:00:05.940121354,(-27 -30 -14 -13 -17 -73 -32 -33)
1969-12-31 18:00:05.940121354,(10 -2 -3 -6 -6 -9 21 52)
1969-12-31 18:00:05.954123687,(-1 9 5 7 11 24 13 44)
1969-12-31 18:00:05.954123687,(19 0 -3 0 -1 7 4 0)
1969-12-31 18:00:05.964625438,(14 11 5 4 3 3 17 50)
1969-12-31 18:00:05.964625438,(9 2 1 -1 -3 8 16 -32)
1969-12-31 18:00:05.982128355,(-2 -6 -5 -5 -7 -13 -10 -27)
1969-12-31 18:00:05.982128355,(3 -2 -5 -2 -5 7 0 5)
1969-12-31 18:00:05.984462077,(33 7 4 6 6 14 6 31)
1969-12-31 18:00:05.984462077,(-40 -5 -6 -7 -10 -35 -15 -45)
1969-12-31 18:00:06.008966161,(-8 -16 -2 -3 -2 11 17 29)
1969-12-31 18:00:06.008966161,(-8 -1 -2 -2 -2 5 -32 -40)
1969-12-31 18:00:06.011299883,(23 30 11 6 0 -27 17 8)
1969-12-31 18:00:06.011299883,(-20 -20 -10 -4 1 11 12 3)
1969-12-31 18:00:06.024135356,(-91 -33 -11 -7 -3 -15 -39 -59)
1969-12-31 18:00:06.024135356,(-1 -8 -6 -8 2 -3 33 48)
1969-12-31 18:00:06.034637106,(-11 -11 -9 -9 -5 3 1 -48)
1969-12-31 18:00:06.034637106,(24 22 9 6 11 52 1 42)
1969-12-31 18:00:06.052140023,(8 7 2 3 -4 -19 -29 22)
1969-12-31 18:00:06.052140023,(-16 -5 1 1 -2 -17 -26 -54)
1969-12-31 18:00:06.054473746,(-2 4 -3 0 9 83 19 8)
1969-12-31 18:00:06.054473746,(52 18 9 5 -11 -36 68 68)
1969-12-31 18:00:06.078977830,(15 -12 -10 -9 -5 -31 -69 -32)
1969-12-31 18:00:06.078977830,(21 0 0 5 27 77 3 24)
1969-12-31 18:00:06.080144691,(-32 -18 -8 -2 11 42 5 -25)
1969-12-31 18:00:06.080144691,(-5 -1 2 -2 -7 -32 -14 4)
1969-12-31 18:00:06.094147025,(15 11 8 11 3 -14 31 29)
1969-12-31 18:00:06.094147025,(7 7 2 2 -36 -40 -18 -30)
1969-12-31 18:00:06.104648775,(-30 -20 -19 -29 -40 -39 -40 -31)
1969-12-31 18:00:06.104648775,(-3 -4 -9 -18 -5 -7 12 30)
1969-12-31 18:00:06.122151692,(31 15 6 4 21 11 17 9)
1969-12-31 18:00:06.122151692,(-51 -3 6 20 80 68 28 -5)
1969-12-31 18:00:06.124485414,(-21 -1 6 10 -39 -37 -9 -5)
1969-12-31 18:00:06.124485414,(-11 -9 -6 -3 8 2 -15 -18)
1969-12-31 18:00:06.148989498,(26 17 9 -3 -60 -33 -6 2)
1969-12-31 18:00:06.148989498,(-14 -24 -12 -8 4 -21 2 -13)
1969-12-31 18:00:06.150156359,(4 7 1 -10 -30 -25 -21 -2)
1969-12-31 18:00:06.150156359,(5 9 3 -1 9 15 -14 3)
1969-12-31 18:00:06.174660443,(25 6 5 9 25 32 48 98)
1969-12-31 18:00:06.174660443,(28 -5 -5 -1 -1 15 11 6)
1969-12-31 18:00:06.176994166,(8 0 2 14 50 7 -11 -13)
1969-12-31 18:00:06.176994166,(6 -3 -2 14 46 64 23 12)
1969-12-31 18:00:06.192163361,(-33 2 -17 -10 -14 -1 3 -73)
1969-12-31 18:00:06.192163361,(23 0 13 -20 -118 -125 -37 39)
1969-12-31 18:00:06.194497083,(7 4 -2 -16 -40 -20 -8 52)
1969-12-31 18:00:06.194497083,(15 14 4 7 7 0 -3 6)
1969-12-31 18:00:06.219001167,(32 -14 -4 0 40 57 39 66)
1969-12-31 18:00:06.219001167,(-30 2 -22 -8 14 1 -16 -81)
1969-12-31 18:00:06.220168028,(12 -31 -36 -7 21 -1 -7 0)
1969-12-31 18:00:06.220168028,(-33 34 99 50 24 25 10 6)
1969-12-31 18:00:06.234170362,(-69 -30 -32 -25 -45 -51 -50 -47)
1969-12-31 18:00:06.234170362,(7 -43 -50 -22 9 13 29 45)
1969-12-31 18:00:06.244672112,(-7 -10 -41 -20 -7 -4 -18 -47)
1969-12-31 18:00:06.244672112,(-51 16 66 46 12 1 -15 -51)
1969-12-31 18:00:06.262175029,(16 6 -18 -1 -34 -14 -16 -18)
1969-12-31 18:00:06.262175029,(-58 -23 -5 1 15 -6 21 12)
1969-12-31 18:00:06.264508751,(16 -11 -28 -8 -24 -15 -13 -37)
1969-12-31 18:00:06.264508751,(2 -29 -48 -23 12 11 -39 -41)
1969-12-31 18:00:06.289012835,(64 -29 9 -5 -5 -11 27 54)
1969-12-31 18:00:06.289012835,(-63 13 -20 -1 -7 14 -21 -62)
1969-12-31 18:00:06.290179697,(37 35 28 10 31 38 75 94)
1969-12-31 18:00:06.290179697,(-21 -14 -27 -10 -44 -36 -25 -16)
1969-12-31 18:00:06.304182030,(-23 -55 -53 -22 44 41 7 -32)
1969-12-31 18:00:06.304182030,(46 45 40 8 -15 -7 2 45)
1969-12-31 18:00:06.321684947,(-19 62 107 36 38 -24 2 54)
1969-12-31 18:00:06.321684947,(44 -51 -77 -41 -75 -31 -18 -11)
1969-12-31 18:00:06.332186698,(-73 32 89 31 21 11 -32 -101)
1969-12-31 18:00:06.332186698,(-24 11 8 3 48 40 5 -19)
1969-12-31 18:00:06.334520420,(-19 -37 -63 -24 -47 -28 -23 -40)
1969-12-31 18:00:06.334520420,(-36 -67 -26 0 27 -5 12 27)
1969-12-31 18:00:06.359024504,(1 82 29 7 -12 -18 -9 -54)
1969-12-31 18:00:06.359024504,(47 57 23 -10 -41 -23 -20 22)
1969-12-31 18:00:06.360191365,(-33 -35 -7 28 60 48 16 -12)
1969-12-31 18:00:06.360191365,(48 -8 -66 -26 -34 -21 -6 26)
1969-12-31 18:00:06.374193699,(35 -89 -63 -21 30 33 -4 2)
1969-12-31 18:00:06.374193699,(-74 52 123 41 0 -7 1 -6)
1969-12-31 18:00:06.384695449,(14 57 -29 -23 -32 -7 16 1)
1969-12-31 18:00:06.384695449,(8 -22 5 9 21 24 8 31)
1969-12-31 18:00:06.401031505,(46 -7 -20 -33 0 -2 -12 78)
1969-12-31 18:00:06.401031505,(29 90 81 57 17 19 28 -5)
1969-12-31 18:00:06.409199533,(-12 -54 -84 -40 -28 -39 -62 -64)
1969-12-31 18:00:06.409199533,(-46 -37 -20 5 12 2 -25 -109)
1969-12-31 18:00:06.427869312,(-6 105 82 35 -9 4 30 89)
1969-12-31 18:00:06.429036173,(36 -102 -72 -20 26 7 25 69)
1969-12-31 18:00:06.430203034,(-24 -74 -36 -14 0 9 -6 3)
1969-12-31 18:00:06.430203034,(-20 98 39 -11 -26 -14 22 -19)
1969-12-31 18:00:06.453540257,(20 -15 -20 5 60 23 1 10)
1969-12-31 18:00:06.453540257,(9 -6 -48 -23 -70 -42 -13 -62)
1969-12-31 18:00:06.464042007,(-11 35 85 15 -35 -15 7 12)
1969-12-31 18:00:06.464042007,(45 25 7 3 25 21 12 25)
1969-12-31 18:00:06.471043174,(-5 -34 1 8 10 6 3 43)
1969-12-31 18:00:06.471043174,(8 -29 -33 5 49 22 -19 -37)
1969-12-31 18:00:06.479211201,(-17 -57 -37 -31 -31 -21 -41 -69)
1969-12-31 18:00:06.479211201,(17 68 18 -5 -19 -15 6 53)
1969-12-31 18:00:06.500214702,(-24 69 54 31 2 23 65 24)
1969-12-31 18:00:06.500214702,(-39 -84 -48 -16 3 11 -55 -26)
1969-12-31 18:00:06.502548425,(43 -12 -21 13 43 -7 10 55)
1969-12-31 18:00:06.502548425,(61 -33 -61 -33 -32 -16 -13 32)
1969-12-31 18:00:06.524718786,(-80 30 89 42 22 50 59 21)
1969-12-31 18:00:06.524718786,(-11 27 -48 -33 -66 -68 -28 -10)
1969-12-31 18:00:06.531719953,(-59 -14 42 15 0 24 -12 -41)
1969-12-31 18:00:06.531719953,(16 71 18 2 23 -7 -11 -26)
1969-12-31 18:00:06.541054842,(34 26 10 14 1 -5 15 49)
1969-12-31 18:00:06.541054842,(27 -59 -35 -10 22 42 39 37)
1969-12-31 18:00:06.551556593,(-7 29 22 5 25 0 -2 1)
1969-12-31 18:00:06.551556593,(30 41 45 9 -41 -28 -48 25)
1969-12-31 18:00:06.567892649,(-27 -73 -79 -39 -43 -32 -39 -62)
1969-12-31 18:00:06.567892649,(-6 17 36 7 37 3 -14 -28)
1969-12-31 18:00:06.570226371,(-28 -46 -22 20 15 6 26 -21)
1969-12-31 18:00:06.570226371,(75 -39 -31 -1 30 45 51 122)
1969-12-31 18:00:06.595897316,(-38 47 10 -32 -82 -91 -89 -112)
1969-12-31 18:00:06.595897316,(-10 17 18 3 11 -1 -11 31)
1969-12-31 18:00:06.598231039,(40 33 24 9 25 18 15 28)
1969-12-31 18:00:06.598231039,(6 3 23 35 38 36 48 16)
1969-12-31 18:00:06.611066511,(34 -70 -75 -25 -25 -26 -23 11)
1969-12-31 18:00:06.611066511,(-12 -30 -2 -4 -3 -8 27 20)
1969-12-31 18:00:06.619234539,(18 23 -4 5 -7 14 5 41)
1969-12-31 18:00:06.619234539,(-99 -7 -15 -32 -30 -13 -24 -69)
1969-12-31 18:00:06.639071179,(24 27 6 -1 5 -15 13 -25)
1969-12-31 18:00:06.639071179,(75 66 46 25 25 18 21 48)
1969-12-31 18:00:06.640238040,(11 4 0 0 3 23 16 -20)
1969-12-31 18:00:06.640238040,(-59 -45 14 7 20 -12 -31 -84)
1969-12-31 18:00:06.664742124,(5 -10 -21 -5 -28 -2 20 19)
1969-12-31 18:00:06.664742124,(20 -28 -33 0 31 23 6 14)
1969-12-31 18:00:06.667075846,(-7 37 4 -12 -28 -18 -10 5)
1969-12-31 18:00:06.667075846,(7 50 61 21 10 16 37 25)
1969-12-31 18:00:06.681078180,(-24 41 53 25 44 19 -42 -54)
1969-12-31 18:00:06.681078180,(-5 -27 -24 -14 -81 -48 10 31)
1969-12-31 18:00:06.689246208,(21 -27 -27 -2 16 22 -11 5)
1969-12-31 18:00:06.689246208,(-3 -37 -28 -20 -33 -40 -2 -10)
1969-12-31 18:00:06.707915986,(-27 -75 -84 -26 6 8 -8 -81)
1969-12-31 18:00:06.707915986,(-63 109 121 50 15 3 -8 -39)
1969-12-31 18:00:06.710249708,(-54 -44 -43 -18 0 -10 -49 -86)
1969-12-31 18:00:06.710249708,(70 49 22 34 68 44 35 77)
1969-12-31 18:00:06.734753792,(22 -15 -14 -18 -79 -38 17 54)
1969-12-31 18:00:06.734753792,(-31 -65 -57 -24 2 5 -62 -75)
1969-12-31 18:00:06.737087514,(35 -35 -56 -30 -10 -19 13 17)
1969-12-31 18:00:06.737087514,(-83 87 114 69 11 13 1 16)
1969-12-31 18:00:06.751089848,(60 8 -59 -8 46 21 27 47)
1969-12-31 18:00:06.751089848,(-27 -55 -41 -20 -22 -17 -8 -60)
1969-12-31 18:00:06.761591599,(-11 69 89 17 -46 -36 -2 -3)
1969-12-31 18:00:06.761591599,(28 -94 -90 -35 11 14 27 38)
1969-12-31 18:00:06.777927655,(-4 7 17 7 20 15 -36 -31)
1969-12-31 18:00:06.777927655,(11 -15 -29 -18 -19 -6 7 20)
1969-12-31 18:00:06.786095683,(30 6 24 47 80 38 32 40)
1969-12-31 18:00:06.786095683,(30 73 63 -15 -64 -34 -10 -23)
1969-12-31 18:00:06.804765461,(-50 -34 -25 2 35 19 12 19)
1969-12-31 18:00:06.804765461,(35 30 22 -17 -64 -33 -5 -15)
1969-12-31 18:00:06.807099183,(11 -10 -23 -4 54 56 -27 -11)
1969-12-31 18:00:06.807099183,(9 15 12 -1 -36 -46 -9 -19)
1969-12-31 18:00:06.821101517,(1 15 34 24 22 13 30 59)
1969-12-31 18:00:06.821101517,(73 -3 -34 -4 34 20 20 38)
1969-12-31 18:00:06.831603267,(-83 18 63 -10 -95 -65 -21 -44)
1969-12-31 18:00:06.831603267,(16 -34 -66 -36 23 31 -3 -12)
1969-12-31 18:00:06.849106184,(-10 -68 -38 -3 4 1 -28 -69)
1969-12-31 18:00:06.849106184,(42 21 16 23 46 23 62 100)
1969-12-31 18:00:06.850273046,(-53 30 -2 -35 -70 -21 -42 -52)
1969-12-31 18:00:06.850273046,(-3 -59 -40 -12 10 -2 -7 -14)
1969-12-31 18:00:06.874777130,(-23 58 61 11 -16 -19 0 -41)
1969-12-31 18:00:06.874777130,(-21 -45 -41 -5 9 9 -23 -38)
1969-12-31 18:00:06.877110852,(26 -60 -30 11 60 44 54 92)
1969-12-31 18:00:06.877110852,(-19 36 -12 -3 -20 -28 -22 -47)
1969-12-31 18:00:06.889946324,(20 21 13 -8 -38 -42 -24 6)
1969-12-31 18:00:06.889946324,(-22 3 -23 -11 26 41 17 -14)
1969-12-31 18:00:06.901614936,(11 35 56 35 -4 -24 25 27)
1969-12-31 18:00:06.901614936,(16 -70 -54 -17 -11 9 8 29)
1969-12-31 18:00:06.919117853,(28 3 -14 -9 -3 20 22 -16)
1969-12-31 18:00:06.919117853,(-26 34 36 8 6 -5 -33 -37)
1969-12-31 18:00:06.920284714,(24 -13 -22 5 37 17 18 15)
1969-12-31 18:00:06.920284714,(-67 42 37 14 -13 -15 -19 -30)
1969-12-31 18:00:06.944788798,(7 -15 -18 23 89 104 22 68)
1969-12-31 18:00:06.944788798,(41 6 2 -28 -113 -106 4 7)
1969-12-31 18:00:06.947122520,(-61 -28 -9 -22 -46 -55 -68 -76)
1969-12-31 18:00:06.947122520,(-4 -71 -67 -35 10 1 -49 -46)
1969-12-31 18:00:06.961124854,(-36 -3 57 16 3 -2 8 7)
1969-12-31 18:00:06.961124854,(0 66 39 33 68 55 9 -7)
1969-12-31 18:00:06.971626604,(30 4 6 22 29 17 30 46)
1969-12-31 18:00:06.971626604,(2 -14 -30 -9 -25 -14 -8 -2)
1969-12-31 18:00:06.989129522,(37 24 -1 -9 -19 -12 -6 -2)
1969-12-31 18:00:06.989129522,(-13 -60 -19 0 6 2 6 19)
1969-12-31 18:00:06.991463244,(68 75 3 2 55 59 41 24)
1969-12-31 18:00:06.991463244,(-46 3 69 27 -64 -69 -38 -3)
1969-12-31 18:00:07.014800467,(73 -22 -70 -28 -7 -10 -9 39)
1969-12-31 18:00:07.014800467,(-56 -14 17 3 -9 1 -8 -14)
1969-12-31 18:00:07.015967328,(44 25 -23 -7 4 25 27 33)
1969-12-31 18:00:07.015967328,(-9 -53 -77 -34 20 17 8 -17)
1969-12-31 18:00:07.031136523,(41 107 107 43 -9 -23 21 51)
1969-12-31 18:00:07.031136523,(-66 -14 4 -4 -31 -35 -44 -66)
1969-12-31 18:00:07.041638273,(-23 -100 -52 4 54 23 -24 -22)
1969-12-31 18:00:07.041638273,(20 -7 -11 -19 -30 7 34 32)
1969-12-31 18:00:07.057974329,(18 34 -17 -23 -8 -6 47 47)
1969-12-31 18:00:07.059141190,(-63 -55 -4 -11 -62 -33 -27 23)
1969-12-31 18:00:07.060308051,(18 23 17 4 -3 -12 -7 -14)
1969-12-31 18:00:07.060308051,(-5 -35 -7 30 81 42 16 0)
1969-12-31 18:00:07.083645274,(-24 -80 -101 -54 -58 -51 -65 -40)
1969-12-31 18:00:07.083645274,(38 98 72 27 10 -2 13 44)
1969-12-31 18:00:07.094147025,(21 48 -2 -10 -29 -15 -6 9)
1969-12-31 18:00:07.095313886,(-3 -45 -1 -4 -7 -3 -8 22)
1969-12-31 18:00:07.101148191,(-33 -3 4 41 108 95 38 9)
1969-12-31 18:00:07.101148191,(-26 -79 -95 -36 25 19 -8 -46)
1969-12-31 18:00:07.110483081,(-19 22 61 -25 -128 -110 -37 -52)
1969-12-31 18:00:07.111649942,(64 89 9 18 60 38 -5 -5)
1969-12-31 18:00:07.129152859,(4 -34 -15 6 -3 -5 12 10)
1969-12-31 18:00:07.129152859,(72 -5 1 12 28 44 13 46)
1969-12-31 18:00:07.130319720,(-30 45 70 37 47 17 24 17)
1969-12-31 18:00:07.130319720,(-8 -26 -13 -28 -46 -31 -21 -15)
1969-12-31 18:00:07.154823804,(-23 -29 -7 -1 -32 -35 -8 -30)
1969-12-31 18:00:07.154823804,(43 3 -40 -27 -6 27 35 57)
1969-12-31 18:00:07.157157526,(13 -11 18 10 31 22 15 -10)
1969-12-31 18:00:07.157157526,(-73 45 55 22 -10 -13 -4 -31)
1969-12-31 18:00:07.180494749,(-2 45 34 14 -9 -4 -28 -21)
1969-12-31 18:00:07.180494749,(34 -13 -8 -6 26 3 23 23)
1969-12-31 18:00:07.180494749,(9 -35 -56 -26 -23 2 -1 19)
1969-12-31 18:00:07.180494749,(-11 2 28 21 24 14 25 -26)
1969-12-31 18:00:07.197997666,(-22 19 32 2 -12 -13 -40 -51)
1969-12-31 18:00:07.197997666,(-6 -40 -41 -14 -19 -24 -18 -22)
1969-12-31 18:00:07.199164527,(10 -2 -10 6 7 13 31 44)
1969-12-31 18:00:07.199164527,(-22 35 8 19 68 63 6 -26)
1969-12-31 18:00:07.223668611,(23 -36 -38 -49 -104 -83 -15 18)
1969-12-31 18:00:07.223668611,(-24 35 66 20 16 0 -25 -18)
1969-12-31 18:00:07.224835473,(-41 -36 -53 -18 5 8 8 7)
1969-12-31 18:00:07.224835473,(20 -26 -19 -13 -29 -12 2 1)
1969-12-31 18:00:07.250506418,(-21 -4 6 14 39 28 21 2)
1969-12-31 18:00:07.250506418,(-20 41 44 26 16 -5 -21 -60)
1969-12-31 18:00:07.251673279,(23 -2 -13 -5 -12 -5 -6 -2)
1969-12-31 18:00:07.251673279,(42 -23 -42 -19 -2 8 -14 26)
1969-12-31 18:00:07.268009335,(-51 20 32 22 55 38 -6 -18)
1969-12-31 18:00:07.268009335,(18 31 27 9 -41 -45 16 16)
1969-12-31 18:00:07.269176196,(-26 -16 -9 -9 11 28 16 -33)
1969-12-31 18:00:07.269176196,(-4 -30 -12 -2 -12 -37 -24 -5)
1969-12-31 18:00:07.293680280,(81 27 -9 1 -3 11 40 71)
1969-12-31 18:00:07.293680280,(34 -30 -50 -8 26 12 -21 19)
1969-12-31 18:00:07.294847141,(-26 44 17 12 19 15 12 -5)
1969-12-31 18:00:07.294847141,(33 -46 9 -10 -39 -23 26 52)
1969-12-31 18:00:07.320518086,(5 50 17 7 18 20 17 -53)
1969-12-31 18:00:07.320518086,(-55 -3 21 8 11 -5 -35 -108)
1969-12-31 18:00:07.320518086,(25 -47 -45 -10 -10 -14 -10 8)
1969-12-31 18:00:07.320518086,(22 52 24 -2 0 3 1 10)
1969-12-31 18:00:07.338021003,(6 -8 15 15 34 20 15 27)
1969-12-31 18:00:07.338021003,(-5 -5 -32 -15 3 19 2 2)
1969-12-31 18:00:07.339187865,(-22 -25 10 13 -20 -46 1 -17)
1969-12-31 18:00:07.339187865,(18 32 24 -1 -31 17 16 45)
1969-12-31 18:00:07.363691949,(17 -15 -22 -32 -51 -37 -14 17)
1969-12-31 18:00:07.363691949,(-36 -42 -27 -24 -19 -38 -51 -32)
1969-12-31 18:00:07.364858810,(28 2 -3 -1 24 18 -1 27)
1969-12-31 18:00:07.364858810,(-19 -4 0 16 35 12 17 7)
1969-12-31 18:00:07.390529755,(5 -19 -29 -11 -24 0 20 12)
1969-12-31 18:00:07.390529755,(21 68 57 29 22 35 31 44)
1969-12-31 18:00:07.390529755,(5 -8 17 3 -17 -26 -24 -30)
1969-12-31 18:00:07.390529755,(26 24 1 4 26 11 15 33)
1969-12-31 18:00:07.410366394,(-51 -80 -45 -21 -18 -17 -44 -88)
1969-12-31 18:00:07.410366394,(5 -26 -18 -3 -2 1 26 16)
1969-12-31 18:00:07.411533256,(17 46 25 10 32 43 -8 6)
1969-12-31 18:00:07.411533256,(2 -37 -35 -21 -35 -33 4 0)
1969-12-31 18:00:07.433703617,(-75 -2 16 -9 -11 -19 -29 -52)
1969-12-31 18:00:07.433703617,(-14 -7 -9 4 32 19 15 0)
1969-12-31 18:00:07.434870478,(32 48 43 41 3 10 1 22)
1969-12-31 18:00:07.434870478,(-36 -44 -25 -21 -26 -26 -56 -40)
1969-12-31 18:00:07.460541424,(9 -11 -15 1 -21 -26 11 13)
1969-12-31 18:00:07.460541424,(-4 -2 -20 -25 -13 -11 6 5)
1969-12-31 18:00:07.461708285,(-35 -20 -16 -18 7 7 1 -14)
1969-12-31 18:00:07.461708285,(-7 36 28 24 34 17 6 -13)
1969-12-31 18:00:07.478044341,(23 -13 -1 -6 -2 -2 -8 5)
1969-12-31 18:00:07.478044341,(-15 24 15 5 -9 2 15 13)
1969-12-31 18:00:07.479211201,(28 -25 -36 -21 -9 -6 -11 3)
1969-12-31 18:00:07.479211201,(-28 -10 -1 -1 -7 -5 -6 -10)
1969-12-31 18:00:07.503715286,(36 19 8 -38 -27 10 9 26)
1969-12-31 18:00:07.503715286,(20 -7 -27 -24 -4 -14 -4 -2)
1969-12-31 18:00:07.504882147,(6 18 28 64 33 26 15 38)
1969-12-31 18:00:07.504882147,(-71 -23 -1 19 -12 -45 -38 -97)
1969-12-31 18:00:07.530553092,(4 14 11 26 17 14 1 12)
1969-12-31 18:00:07.530553092,(1 -14 -9 -19 -17 -2 8 11)
1969-12-31 18:00:07.531719953,(0 6 0 -46 -46 -32 -21 -18)
1969-12-31 18:00:07.531719953,(-4 5 2 0 25 25 17 7)
1969-12-31 18:00:07.557390898,(60 30 13 14 29 10 -16 20)
1969-12-31 18:00:07.557390898,(-15 -10 5 15 -10 1 8 -13)
1969-12-31 18:00:07.558557760,(-42 -42 -12 -7 -3 -13 -11 -8)
1969-12-31 18:00:07.558557760,(47 13 -7 -8 -4 8 8 35)
1969-12-31 18:00:07.573726954,(-18 -3 -2 -2 1 -5 8 -1)
1969-12-31 18:00:07.573726954,(51 42 43 24 16 16 10 28)
1969-12-31 18:00:07.574893816,(-8 6 0 -3 -10 -11 -6 -3)
1969-12-31 18:00:07.574893816,(-40 -15 -8 -13 -5 -2 3 -21)
1969-12-31 18:00:07.600564761,(-1 19 11 7 2 1 19 27)
1969-12-31 18:00:07.600564761,(-12 -24 -15 2 6 11 -11 -20)
1969-12-31 18:00:07.601731622,(10 1 -2 -4 -1 -9 0 -14)
1969-12-31 18:00:07.601731622,(49 22 7 -3 -7 4 -6 25)
1969-12-31 18:00:07.618067678,(-19 -11 4 -2 0 -3 -16 -12)
1969-12-31 18:00:07.618067678,(22 11 -5 -10 -25 -7 -5 7)
1969-12-31 18:00:07.619234539,(-18 -3 2 15 19 -2 -17 -23)
1969-12-31 18:00:07.619234539,(-37 -36 -8 -11 0 14 -7 7)
1969-12-31 18:00:07.643738623,(-14 -7 -3 28 23 -9 -6 -38)
1969-12-31 18:00:07.643738623,(75 30 17 14 -2 7 43 78)
1969-12-31 18:00:07.644905484,(-7 -13 -14 -23 -19 24 -5 -43)
1969-12-31 18:00:07.644905484,(18 20 11 5 3 6 11 22)
1969-12-31 18:00:07.670576429,(14 -8 -1 -9 2 2 8 42)
1969-12-31 18:00:07.670576429,(-53 -20 -11 -8 -2 -1 -19 -59)
1969-12-31 18:00:07.671743291,(32 44 17 12 7 -10 19 37)
1969-12-31 18:00:07.671743291,(58 -7 -4 -3 -2 -2 9 20)
1969-12-31 18:00:07.688079347,(-38 -49 -23 -22 -15 -7 -37 -87)
1969-12-31 18:00:07.688079347,(69 32 13 15 13 -10 8 66)
1969-12-31 18:00:07.688079347,(-11 -7 -3 -7 -6 25 -6 -24)
1969-12-31 18:00:07.689246208,(69 46 13 -8 -20 -38 21 38)
1969-12-31 18:00:07.713750292,(-37 -19 -9 15 20 -12 -25 -8)
1969-12-31 18:00:07.713750292,(-74 -38 -7 -3 -8 -5 8 0)
1969-12-31 18:00:07.714917152,(16 6 0 -6 -5 -13 -4 4)
1969-12-31 18:00:07.714917152,(2 -10 -3 3 5 9 5 11)
1969-12-31 18:00:07.760424737,(42 23 18 13 16 26 27 28)
1969-12-31 18:00:07.760424737,(-67 -38 -32 -25 -22 -34 -48 -97)
1969-12-31 18:00:07.761591599,(-48 -19 -1 -3 1 4 -6 -27)
1969-12-31 18:00:07.761591599,(9 21 12 12 12 12 1 19)
1969-12-31 18:00:07.762758460,(-43 -5 -8 -11 -19 -15 1 -18)
1969-12-31 18:00:07.762758460,(20 -17 -4 2 8 15 7 78)
1969-12-31 18:00:07.766259043,(18 24 11 2 1 -5 9 -11)
1969-12-31 18:00:07.766259043,(9 2 4 4 1 -1 -8 -24)
1969-12-31 18:00:07.783761960,(7 -17 -9 -4 -2 5 -1 -16)
1969-12-31 18:00:07.783761960,(30 29 10 6 5 7 10 21)
1969-12-31 18:00:07.784928821,(-32 -28 -11 -7 -8 -11 -7 7)
1969-12-31 18:00:07.784928821,(-35 -3 -6 -3 -1 -6 -11 -23)
1969-12-31 18:00:07.810599767,(9 12 2 -4 0 11 2 4)
1969-12-31 18:00:07.810599767,(8 1 2 4 4 4 3 -8)
1969-12-31 18:00:07.810599767,(55 7 0 -3 -6 -12 0 21)
1969-12-31 18:00:07.811766628,(-79 -25 -10 -6 -1 2 -13 -49)
1969-12-31 18:00:07.828102684,(-3 12 8 1 -1 2 3 8)
1969-12-31 18:00:07.828102684,(21 -1 -4 -1 -1 -1 -5 -8)
1969-12-31 18:00:07.829269545,(30 15 -2 -5 -3 -8 -3 20)
1969-12-31 18:00:07.829269545,(-27 -24 -2 3 5 2 -2 -5)
1969-12-31 18:00:07.853773629,(-50 -8 2 6 1 1 -1 -9)
1969-12-31 18:00:07.853773629,(20 18 6 1 -4 -9 -9 -13)
1969-12-31 18:00:07.854940490,(4 -1 -1 -1 -2 4 -1 7)
1969-12-31 18:00:07.854940490,(31 5 -7 -4 -1 1 3 6)
1969-12-31 18:00:07.880611435,(-14 10 5 -5 -9 -8 -2 0)
1969-12-31 18:00:07.880611435,(-41 -45 -24 -11 -1 -2 -5 -29)
1969-12-31 18:00:07.881778296,(-22 22 21 4 -2 -5 -2 1)
1969-12-31 18:00:07.881778296,(13 5 14 11 4 3 3 5)
1969-12-31 18:00:07.900448075,(31 4 -3 2 0 0 -1 11)
1969-12-31 18:00:07.900448075,(-5 9 7 0 1 0 -4 -4)
1969-12-31 18:00:07.901614936,(3 -23 -6 -3 -8 -7 -6 3)
1969-12-31 18:00:07.901614936,(3 19 -11 -8 -2 1 4 4)
1969-12-31 18:00:07.923785298,(8 -27 -16 -10 -5 0 2 1)
1969-12-31 18:00:07.923785298,(5 25 5 -5 -3 -4 -17 -15)
1969-12-31 18:00:07.924952159,(-21 -16 9 2 4 0 16 6)
1969-12-31 18:00:07.924952159,(5 -7 -12 -6 -1 6 -1 1)
1969-12-31 18:00:07.950623104,(5 -14 -17 -4 -2 -4 -3 4)
1969-12-31 18:00:07.950623104,(4 24 27 13 1 -1 -1 -3)
1969-12-31 18:00:07.951789965,(-2 -21 -18 -7 -1 -3 -5 0)
1969-12-31 18:00:07.951789965,(7 -22 -17 -4 -1 2 18 8)
1969-12-31 18:00:07.968126021,(21 25 -6 -6 0 5 7 37)
1969-12-31 18:00:07.968126021,(-13 -19 -21 -10 -2 2 -4 -15)
1969-12-31 18:00:07.968126021,(-3 23 29 11 -1 -10 -28 -19)
1969-12-31 18:00:07.969292882,(-13 -1 -4 -2 1 1 15 -10)
1969-12-31 18:00:07.993796966,(-2 2 1 -5 -3 -2 -6 -3)
1969-12-31 18:00:07.993796966,(3 -28 -29 -12 -5 -1 11 12)
1969-12-31 18:00:07.994963827,(2 27 28 15 7 7 9 2)
1969-12-31 18:00:07.994963827,(7 3 -14 -6 -5 -6 -15 7)
1969-12-31 18:00:08.020634772,(-1 10 30 10 2 -1 -1 -11)
1969-12-31 18:00:08.020634772,(-13 4 6 5 1 -6 -5 -4)
1969-12-31 18:00:08.021801634,(-8 -23 -12 -2 -1 2 1 -4)
1969-12-31 18:00:08.021801634,(-1 -2 -7 -2 -1 0 2 5)
1969-12-31 18:00:08.036970828,(3 18 23 12 4 5 6 -1)
1969-12-31 18:00:08.036970828,(-4 -55 -42 -26 -11 -2 0 -2)
1969-12-31 18:00:08.047472579,(-4 26 -2 4 0 -12 -22 -2)
1969-12-31 18:00:08.047472579,(3 22 16 13 6 1 -2 -11)
1969-12-31 18:00:08.066142357,(-5 -10 -4 -2 -4 -2 -7 -7)
1969-12-31 18:00:08.066142357,(1 -9 -17 -2 0 3 17 6)
1969-12-31 18:00:08.067309218,(-6 -24 -2 -5 -4 -1 -2 -1)
1969-12-31 18:00:08.067309218,(-9 -25 -12 -13 -7 -4 -12 -3)
1969-12-31 18:00:08.090646441,(11 60 28 8 0 -4 3 -5)
1969-12-31 18:00:08.090646441,(-9 -10 10 6 3 1 -15 -6)
1969-12-31 18:00:08.091813302,(3 -16 -30 -16 -5 0 6 4)
1969-12-31 18:00:08.091813302,(1 12 34 14 10 11 16 1)
1969-12-31 18:00:08.108149358,(-9 -11 -15 -14 -11 -10 -16 -12)
1969-12-31 18:00:08.108149358,(-9 21 31 17 7 -1 -22 -11)
1969-12-31 18:00:08.109316219,(5 -1 -17 -14 -5 -2 -1 3)
1969-12-31 18:00:08.109316219,(-6 -7 -3 4 1 -4 -3 -5)
1969-12-31 18:00:08.133820303,(0 -30 -21 -1 3 6 6 4)
1969-12-31 18:00:08.133820303,(5 20 24 6 1 1 9 6)
1969-12-31 18:00:08.134987165,(-4 -16 -21 -14 -7 -1 -1 -2)
1969-12-31 18:00:08.134987165,(0 2 -3 -3 -4 -5 -16 -3)
1969-12-31 18:00:08.160658110,(-4 3 -1 2 1 0 -1 -4)
1969-12-31 18:00:08.160658110,(7 7 -3 0 -4 -3 -2 -6)
1969-12-31 18:00:08.160658110,(-1 -6 -4 -3 1 6 11 5)
1969-12-31 18:00:08.160658110,(1 9 13 2 -2 -6 -3 -1)
1969-12-31 18:00:08.178161027,(-6 -27 -22 -1 0 -1 -4 0)
1969-12-31 18:00:08.178161027,(2 30 31 10 2 -1 4 0)
1969-12-31 18:00:08.179327888,(1 -27 -23 -7 -4 -2 6 8)
1969-12-31 18:00:08.179327888,(-9 15 10 3 2 -6 -4 1)
1969-12-31 18:00:08.203831972,(-9 -27 -15 -8 -2 -14 -2 2)
1969-12-31 18:00:08.203831972,(5 5 -43 -23 -3 -6 4 9)
1969-12-31 18:00:08.204998833,(8 7 19 9 8 2 2 1)
1969-12-31 18:00:08.204998833,(-8 -26 -15 -7 -2 3 -7 -4)
1969-12-31 18:00:08.231836639,(6 57 49 17 2 4 -3 -11)
1969-12-31 18:00:08.231836639,(-12 -35 -7 4 0 8 2 -3)
1969-12-31 18:00:08.233003501,(14 48 32 8 0 4 -1 0)
1969-12-31 18:00:08.233003501,(-10 -18 -8 -12 -7 2 -6 -14)
1969-12-31 18:00:08.247005834,(-4 -17 -32 -16 -5 2 2 -2)
1969-12-31 18:00:08.247005834,(23 42 35 16 3 3 1 1)
1969-12-31 18:00:08.257507585,(-25 -89 -60 -34 -15 -7 -2 -1)
1969-12-31 18:00:08.257507585,(28 65 48 27 8 -1 -5 -3)
1969-12-31 18:00:08.273843641,(-1 -32 -15 2 5 8 11 8)
1969-12-31 18:00:08.273843641,(-3 12 11 -3 -6 -5 -4 -4)
1969-12-31 18:00:08.275010501,(7 -21 -11 17 9 2 5 10)
1969-12-31 18:00:08.275010501,(-7 -16 -14 -17 -6 -5 -3 -4)
1969-12-31 18:00:08.300681447,(3 -4 -28 -23 -9 -7 -5 -7)
1969-12-31 18:00:08.300681447,(7 6 -3 5 4 5 1 6)
1969-12-31 18:00:08.301848308,(-5 5 4 -5 -3 -3 -2 -7)
1969-12-31 18:00:08.301848308,(-11 -13 -7 -3 -1 -2 -3 -4)
1969-12-31 18:00:08.317017503,(0 8 8 4 2 -3 -4 -2)
1969-12-31 18:00:08.317017503,(-7 -24 -21 -15 -2 -2 6 3)
1969-12-31 18:00:08.327519253,(1 19 4 2 0 -4 -4 0)
1969-12-31 18:00:08.327519253,(0 8 -2 8 4 -2 2 5)
1969-12-31 18:00:08.343855309,(4 -15 2 0 -1 -3 1 5)
1969-12-31 18:00:08.343855309,(-8 2 -3 -3 -1 -5 -2 -1)
1969-12-31 18:00:08.345022170,(0 23 10 1 1 0 -1 -1)
1969-12-31 18:00:08.345022170,(1 -9 -15 -4 0 -2 3 2)
1969-12-31 18:00:08.370693116,(0 5 11 -1 -2 -2 -3 -1)
1969-12-31 18:00:08.370693116,(-5 -13 7 5 2 1 0 -5)
1969-12-31 18:00:08.371859977,(10 14 6 4 -1 0 -3 2)
1969-12-31 18:00:08.371859977,(2 2 2 -1 -1 5 2 0)
1969-12-31 18:00:08.389362894,(-19 -8 -2 -2 -3 0 -8 -11)
1969-12-31 18:00:08.389362894,(5 -2 -12 -5 -5 2 -1 -2)
1969-12-31 18:00:08.396364061,(4 7 14 9 -3 2 -2 -6)
1969-12-31 18:00:08.396364061,(-1 -4 0 -4 -2 -2 -3 -3)
1969-12-31 18:00:08.413866978,(3 4 9 7 3 -1 0 -1)
1969-12-31 18:00:08.413866978,(-7 -9 -5 3 -1 -7 -2 -2)
1969-12-31 18:00:08.415033839,(-6 -9 -14 -9 0 -8 -1 1)
1969-12-31 18:00:08.415033839,(6 18 -5 -5 -5 -12 -1 7)
1969-12-31 18:00:08.440704784,(-9 -16 -6 1 1 -4 4 4)
1969-12-31 18:00:08.440704784,(1 -5 -5 -6 -1 -6 0 2)
1969-12-31 18:00:08.441871645,(-6 -16 -16 -9 -2 -4 0 0)
1969-12-31 18:00:08.441871645,(6 21 2 1 2 0 -1 0)
1969-12-31 18:00:08.441871645,(-17 -12 -25 -19 -5 -5 -6 -6)
1969-12-31 18:00:08.441871645,(-2 -11 -8 -4 -2 -1 -2 -1)
1969-12-31 18:00:08.452373396,(-3 -1 -1 -5 -1 -2 -1 -2)
1969-12-31 18:00:08.452373396,(1 4 -10 -5 -3 -3 0 0)
1969-12-31 18:00:08.468709452,(2 11 23 12 3 -1 -2 -1)
1969-12-31 18:00:08.468709452,(-2 -6 -7 -2 0 -2 -1 1)
1969-12-31 18:00:08.471043174,(-4 0 2 2 1 -3 -1 -1)
1969-12-31 18:00:08.471043174,(2 4 -7 -2 -1 -4 0 3)
1969-12-31 18:00:08.496714119,(-2 1 5 6 2 -5 1 4)
1969-12-31 18:00:08.496714119,(-6 -12 -15 -9 -3 1 9 4)
1969-12-31 18:00:08.497880980,(-4 -1 -9 -6 0 -14 -7 2)
1969-12-31 18:00:08.497880980,(16 10 3 1 -6 -9 1 7)
1969-12-31 18:00:08.511883314,(-7 -1 -1 0 0 -14 -2 -1)
1969-12-31 18:00:08.511883314,(-9 -8 -13 -7 1 15 7 1)
1969-12-31 18:00:08.521218203,(-9 5 9 11 27 8 9 -3)
1969-12-31 18:00:08.522385064,(5 1 -3 -3 -16 2 -6 -5)
1969-12-31 18:00:08.539887981,(-38 -12 2 2 8 -4 -6 -9)
1969-12-31 18:00:08.539887981,(-5 -9 -5 -5 -15 -26 -9 -7)
1969-12-31 18:00:08.541054842,(11 0 5 -1 -5 20 1 5)
1969-12-31 18:00:08.541054842,(20 12 2 0 3 -9 10 1)
1969-12-31 18:00:08.565558926,(-4 6 0 -4 -8 6 1 -5)
1969-12-31 18:00:08.565558926,(-7 -6 1 -3 6 42 11 9)
1969-12-31 18:00:08.567892649,(1 -4 -10 -7 -14 -73 -9 -11)
1969-12-31 18:00:08.567892649,(-26 -14 -2 15 9 -2 -44 2)
1969-12-31 18:00:08.581894982,(36 9 2 2 1 8 6 8)
1969-12-31 18:00:08.581894982,(-4 6 2 4 3 -24 -1 -16)
1969-12-31 18:00:08.592396733,(-5 -2 1 -7 -4 25 6 -1)
1969-12-31 18:00:08.592396733,(13 3 2 -2 2 20 -3 10)
1969-12-31 18:00:08.609899650,(-1 8 12 7 -5 -46 8 -3)
1969-12-31 18:00:08.609899650,(22 -1 -7 -7 7 51 -16 22)
1969-12-31 18:00:08.611066511,(1 -3 -2 -7 -15 -37 -17 -22)
1969-12-31 18:00:08.611066511,(-13 -6 2 -2 -6 -20 -14 -20)
1969-12-31 18:00:08.636737456,(22 10 7 2 2 14 5 28)
1969-12-31 18:00:08.636737456,(-43 -19 -16 -9 -13 -26 -6 -19)
1969-12-31 18:00:08.637904317,(36 17 -1 0 -2 33 -6 -3)
1969-12-31 18:00:08.637904317,(-37 -18 -4 -3 3 -8 8 -8)
1969-12-31 18:00:08.651906651,(-8 -11 -4 -4 -9 -5 6 2)
1969-12-31 18:00:08.651906651,(9 9 4 -9 -19 -24 -9 -12)
1969-12-31 18:00:08.662408401,(11 -10 3 4 11 22 -1 12)
1969-12-31 18:00:08.662408401,(-4 8 7 0 -7 -1 18 -21)
1969-12-31 18:00:08.679911319,(16 0 -1 1 6 30 5 10)
1969-12-31 18:00:08.679911319,(25 5 -2 2 -4 -40 4 22)
1969-12-31 18:00:08.681078180,(17 16 14 12 10 44 19 25)
1969-12-31 18:00:08.681078180,(-67 -31 -18 -17 -21 2 8 -46)
1969-12-31 18:00:08.705582264,(-27 -17 -11 -9 0 12 -32 -36)
1969-12-31 18:00:08.705582264,(4 26 12 10 4 -9 3 18)
1969-12-31 18:00:08.707915986,(26 -9 -4 -4 -5 -25 -1 9)
1969-12-31 18:00:08.707915986,(25 -7 -3 -1 4 -7 -1 -29)
1969-12-31 18:00:08.721918320,(-16 -5 -5 -2 0 11 20 50)
1969-12-31 18:00:08.721918320,(-18 -17 -8 -6 -2 3 -34 -47)
1969-12-31 18:00:08.732420070,(1 18 7 6 13 14 22 20)
1969-12-31 18:00:08.732420070,(0 10 4 3 8 -7 -24 -9)
1969-12-31 18:00:08.748756126,(-3 -4 -5 -1 9 22 9 -21)
1969-12-31 18:00:08.748756126,(34 25 6 1 -14 -48 -15 -5)
1969-12-31 18:00:08.751089848,(-32 -3 0 3 0 15 11 10)
1969-12-31 18:00:08.751089848,(10 -35 -13 -3 1 -15 -1 29)
1969-12-31 18:00:08.775593932,(-8 7 -1 -4 -8 -9 -8 -38)
1969-12-31 18:00:08.775593932,(-3 12 8 9 15 52 25 11)
1969-12-31 18:00:08.777927655,(-19 16 -2 -3 -10 -34 -21 -24)
1969-12-31 18:00:08.777927655,(19 -8 1 3 4 -7 10 52)
1969-12-31 18:00:08.791929988,(38 3 -1 1 -2 4 7 6)
1969-12-31 18:00:08.791929988,(-26 -31 -12 -6 2 24 8 -16)
1969-12-31 18:00:08.811766628,(11 -6 -7 -10 -16 -26 -13 -3)
1969-12-31 18:00:08.811766628,(-20 8 4 -2 -13 28 12 -3)
1969-12-31 18:00:08.818767795,(-7 1 4 8 26 1 9 0)
1969-12-31 18:00:08.818767795,(4 -7 -11 -6 -12 -10 25 8)
1969-12-31 18:00:08.821101517,(6 7 5 8 17 -3 -4 -5)
1969-12-31 18:00:08.821101517,(34 20 6 1 3 60 53 42)
1969-12-31 18:00:08.845605601,(1 7 1 -2 -13 -53 -40 -30)
1969-12-31 18:00:08.845605601,(-20 -18 -6 -4 10 77 -8 -23)
1969-12-31 18:00:08.846772462,(-21 -22 -5 -7 -28 -83 -5 17)
1969-12-31 18:00:08.846772462,(4 12 1 2 13 8 17 -10)
1969-12-31 18:00:08.861941657,(58 15 5 1 -3 30 -5 71)
1969-12-31 18:00:08.861941657,(-9 11 6 6 8 -13 -4 15)
1969-12-31 18:00:08.872443407,(15 -27 -9 -5 0 46 8 -31)
1969-12-31 18:00:08.872443407,(24 12 0 -2 5 -8 -8 25)
1969-12-31 18:00:08.889946324,(-56 -22 -12 -8 -15 -28 -11 -30)
1969-12-31 18:00:08.889946324,(13 8 1 -1 -4 -20 -15 -4)
1969-12-31 18:00:08.891113186,(1 14 1 1 4 29 -53 -23)
1969-12-31 18:00:08.891113186,(11 -2 -2 1 -5 -70 7 39)
1969-12-31 18:00:08.915617270,(-5 3 4 6 3 72 -7 -25)
1969-12-31 18:00:08.915617270,(15 7 6 5 9 -17 -5 15)
1969-12-31 18:00:08.917950992,(-41 -3 3 3 0 10 6 -51)
1969-12-31 18:00:08.917950992,(9 13 4 5 4 36 26 35)
1969-12-31 18:00:08.931953326,(15 -1 -3 -4 7 23 14 -20)
1969-12-31 18:00:08.931953326,(-23 -4 -3 -8 -25 -80 -67 -41)
1969-12-31 18:00:08.942455076,(6 -12 -4 -1 4 28 19 21)
1969-12-31 18:00:08.942455076,(-43 -17 -6 -5 -5 -9 10 18)
1969-12-31 18:00:08.958791132,(1 15 8 5 -6 -43 -19 11)
1969-12-31 18:00:08.958791132,(-11 -7 -1 -1 5 41 22 -28)
1969-12-31 18:00:08.966959160,(-25 -1 1 1 -1 -25 -36 -40)
1969-12-31 18:00:08.966959160,(1 -1 -8 -7 -9 -15 25 15)
1969-12-31 18:00:08.985628938,(-9 4 0 2 8 0 31 69)
1969-12-31 18:00:08.985628938,(18 -48 -11 -3 0 -6 -12 17)
1969-12-31 18:00:08.987962660,(5 9 -3 -5 -6 -15 19 25)
1969-12-31 18:00:08.987962660,(4 16 5 0 10 58 -41 -74)
1969-12-31 18:00:09.001964994,(5 -12 -7 -4 -5 -25 28 49)
1969-12-31 18:00:09.001964994,(50 36 24 17 15 27 19 27)
1969-12-31 18:00:09.012466744,(-17 -24 -15 -12 -17 -23 -5 -40)
1969-12-31 18:00:09.012466744,(-9 -4 -4 0 0 -11 -20 -19)
1969-12-31 18:00:09.028802800,(-4 13 3 -2 -4 -8 -6 -6)
1969-12-31 18:00:09.028802800,(-33 -24 -15 -13 -11 -5 -3 -39)
1969-12-31 18:00:09.038137690,(-23 -9 -1 -3 0 -17 3 -50)
1969-12-31 18:00:09.038137690,(24 28 11 5 10 27 7 -7)
1969-12-31 18:00:09.055640607,(-9 -16 -1 -2 -4 -5 -18 -10)
1969-12-31 18:00:09.055640607,(-3 8 -1 -3 -5 -2 26 -3)
1969-12-31 18:00:09.057974329,(18 8 0 3 6 6 4 106)
1969-12-31 18:00:09.057974329,(2 -6 0 -1 -4 -19 -24 -15)
1969-12-31 18:00:09.082478413,(-18 -10 -4 -1 -2 -16 -18 -75)
1969-12-31 18:00:09.082478413,(36 9 -2 -2 -1 4 8 53)
1969-12-31 18:00:09.083645274,(-28 -12 -7 -7 -3 53 25 -10)
1969-12-31 18:00:09.083645274,(-4 3 5 2 2 21 12 -54)
1969-12-31 18:00:09.098814469,(21 0 -6 -6 -6 41 -56 3)
1969-12-31 18:00:09.098814469,(4 14 9 6 -1 -43 -8 -12)
1969-12-31 18:00:09.106982497,(0 -1 2 1 -3 0 14 -28)
1969-12-31 18:00:09.106982497,(-36 -17 -3 0 -2 -25 -7 -9)
1969-12-31 18:00:09.125652275,(42 16 2 3 5 18 26 21)
1969-12-31 18:00:09.125652275,(-50 -4 -9 -7 -1 3 -4 -35)
1969-12-31 18:00:09.127985998,(-54 -56 -23 -15 -12 -16 3 -8)
1969-12-31 18:00:09.127985998,(3 15 3 -2 -5 -27 -22 8)
1969-12-31 18:00:09.152490082,(-4 -11 3 3 2 -10 12 -11)
1969-12-31 18:00:09.152490082,(42 22 2 2 2 5 1 11)
1969-12-31 18:00:09.153656943,(44 28 12 11 7 2 25 97)
1969-12-31 18:00:09.153656943,(-17 3 0 0 1 4 -12 -29)
1969-12-31 18:00:09.168826138,(-44 -14 -9 -8 -10 -20 -18 -45)
1969-12-31 18:00:09.168826138,(-4 -20 1 4 2 -7 12 23)
1969-12-31 18:00:09.176994166,(3 7 4 4 7 23 -11 -6)
1969-12-31 18:00:09.176994166,(94 18 7 7 8 3 17 105)
1969-12-31 18:00:09.195663944,(2 6 1 -3 -3 -18 4 -4)
1969-12-31 18:00:09.196830805,(-6 -6 -3 -3 0 21 -10 16)
1969-12-31 18:00:09.197997666,(24 25 9 6 4 1 4 21)
1969-12-31 18:00:09.197997666,(13 -6 -10 -8 -4 -17 -1 25)
1969-12-31 18:00:09.222501750,(-80 -29 -8 -8 -21 -31 -44 -76)
1969-12-31 18:00:09.222501750,(-8 4 -4 -6 -5 -2 -8 -35)
1969-12-31 18:00:09.223668611,(16 -40 -2 0 4 2 -13 6)
1969-12-31 18:00:09.223668611,(-27 -8 -5 -3 1 23 9 -42)
1969-12-31 18:00:09.238837806,(-12 0 -1 0 -4 -46 1 50)
1969-12-31 18:00:09.238837806,(-1 1 1 1 0 8 9 3)
1969-12-31 18:00:09.247005834,(4 18 3 2 5 -8 -7 -1)
1969-12-31 18:00:09.247005834,(-16 -7 1 3 1 7 7 -6)
1969-12-31 18:00:09.264508751,(31 25 18 13 14 30 37 39)
1969-12-31 18:00:09.264508751,(-41 -13 -15 -7 4 -17 -34 -72)
1969-12-31 18:00:09.282011669,(24 12 4 5 41 31 11 5)
1969-12-31 18:00:09.282011669,(-10 3 5 8 -35 -39 -14 -5)
1969-12-31 18:00:09.292513419,(35 -11 -5 -18 -44 5 0 48)
1969-12-31 18:00:09.292513419,(-16 0 -1 -15 -42 -46 0 -16)
1969-12-31 18:00:09.294847141,(3 7 -3 -10 -12 10 7 -2)
1969-12-31 18:00:09.294847141,(2 12 3 6 34 -4 -32 -31)
1969-12-31 18:00:09.308849475,(8 -18 -1 7 20 17 24 -14)
1969-12-31 18:00:09.308849475,(13 -7 -1 5 22 73 1 -13)
1969-12-31 18:00:09.317017503,(12 9 2 5 9 -18 11 43)
1969-12-31 18:00:09.317017503,(-29 -18 -10 -12 -36 -39 1 -24)
1969-12-31 18:00:09.335687281,(15 24 5 5 22 24 3 -27)
1969-12-31 18:00:09.335687281,(16 -23 -6 -1 5 4 11 58)
1969-12-31 18:00:09.338021003,(9 13 10 25 68 46 -6 8)
1969-12-31 18:00:09.338021003,(1 -4 -10 -23 -88 -50 -9 -26)
1969-12-31 18:00:09.362525088,(10 0 -8 -23 -41 -21 -8 28)
1969-12-31 18:00:09.362525088,(-23 -1 3 12 81 34 20 -8)
1969-12-31 18:00:09.363691949,(-15 -8 -3 0 -53 -56 -11 -6)
1969-12-31 18:00:09.363691949,(24 36 22 18 58 34 42 89)
1969-12-31 18:00:09.377694282,(-52 -52 -22 -4 5 -5 -21 -37)
1969-12-31 18:00:09.377694282,(41 19 -2 -14 -41 -10 10 36)
1969-12-31 18:00:09.388196033,(-47 3 23 22 53 43 1 -63)
1969-12-31 18:00:09.388196033,(-14 -27 -9 -25 -78 -48 -34 -10)
1969-12-31 18:00:09.405698950,(70 47 2 3 19 17 33 68)
1969-12-31 18:00:09.405698950,(-17 -16 -7 11 23 9 -8 -18)
1969-12-31 18:00:09.408032672,(8 10 -7 -21 -33 -22 -7 -1)
1969-12-31 18:00:09.408032672,(-8 -12 -1 9 43 25 3 2)
1969-12-31 18:00:09.432536756,(34 10 -35 0 10 14 -8 4)
1969-12-31 18:00:09.432536756,(-1 20 62 29 -7 -37 27 67)
1969-12-31 18:00:09.433703617,(-1 -25 -13 -13 -20 -7 -35 -19)
1969-12-31 18:00:09.433703617,(-4 7 -13 -16 10 22 -6 -9)
1969-12-31 18:00:09.447705951,(-14 -6 16 12 58 22 -3 -13)
1969-12-31 18:00:09.447705951,(-12 -27 -49 -18 -75 -58 -10 -33)
1969-12-31 18:00:09.459374562,(54 40 23 -16 -68 -46 -20 17)
1969-12-31 18:00:09.459374562,(-40 -34 -5 -2 16 6 -22 -31)
1969-12-31 18:00:09.475710618,(18 27 26 15 17 15 22 19)
1969-12-31 18:00:09.475710618,(-1 17 -2 1 31 15 -12 -12)
1969-12-31 18:00:09.482711785,(15 13 31 24 15 -1 1 17)
1969-12-31 18:00:09.482711785,(-46 -82 -22 -7 -26 -9 -3 -5)
1969-12-31 18:00:09.502548425,(-25 16 7 -2 0 -21 -40 -45)
1969-12-31 18:00:09.502548425,(4 -19 18 7 -8 -6 10 20)
1969-12-31 18:00:09.503715286,(-25 13 -13 -12 -1 1 1 -47)
1969-12-31 18:00:09.503715286,(46 21 32 28 47 48 19 43)
1969-12-31 18:00:09.517717620,(-71 -16 2 9 50 28 22 -64)
1969-12-31 18:00:09.517717620,(49 49 14 -13 -77 -48 -41 -4)
1969-12-31 18:00:09.528219370,(-19 -69 -51 -9 45 43 15 -53)
1969-12-31 18:00:09.528219370,(33 5 -84 -38 -63 -41 28 7)
1969-12-31 18:00:09.545722287,(-24 -9 77 11 -42 -23 -28 -32)
1969-12-31 18:00:09.545722287,(-35 -29 -31 5 36 4 -5 -27)
1969-12-31 18:00:09.548056009,(-3 42 40 -14 -50 -42 -32 -48)
1969-12-31 18:00:09.548056009,(20 32 17 3 34 8 -36 -33)
1969-12-31 18:00:09.572560093,(93 -111 -128 -59 -25 -3 13 64)
1969-12-31 18:00:09.572560093,(-82 46 100 33 39 28 5 -62)
1969-12-31 18:00:09.573726954,(-2 36 -33 -6 -9 -9 -7 22)
1969-12-31 18:00:09.573726954,(-5 99 113 62 51 27 5 31)
1969-12-31 18:00:09.587729288,(17 29 32 10 -14 4 -16 45)
1969-12-31 18:00:09.587729288,(54 -11 -19 -4 -35 -50 3 74)
1969-12-31 18:00:09.598231039,(-47 -65 -45 -15 -17 -1 -40 -51)
1969-12-31 18:00:09.598231039,(64 -80 -71 -31 6 29 22 29)
1969-12-31 18:00:09.615733956,(1 -73 -76 -29 -23 -13 34 37)
1969-12-31 18:00:09.615733956,(62 45 -70 -30 56 67 53 62)
1969-12-31 18:00:09.618067678,(-72 105 108 66 -28 -59 -35 -34)
1969-12-31 18:00:09.618067678,(58 20 -2 31 38 47 -11 33)
1969-12-31 18:00:09.641404901,(24 -39 -4 7 4 -20 -4 -93)
1969-12-31 18:00:09.641404901,(20 -91 -91 -54 -22 23 12 -12)
1969-12-31 18:00:09.643738623,(-1 8 3 -4 10 5 20 18)
1969-12-31 18:00:09.643738623,(-26 66 71 -4 -31 -21 0 -35)
1969-12-31 18:00:09.657740957,(-95 -18 -39 -5 21 -22 -58 -92)
1969-12-31 18:00:09.657740957,(-13 37 52 32 -28 -12 -6 10)
1969-12-31 18:00:09.668242707,(73 -24 -32 -9 36 31 64 106)
1969-12-31 18:00:09.668242707,(-51 -81 -46 -29 -24 -13 -12 -94)
1969-12-31 18:00:09.685745624,(-18 127 92 17 -32 -18 -43 -33)
1969-12-31 18:00:09.685745624,(-53 -29 23 25 48 19 -1 -34)
1969-12-31 18:00:09.688079347,(15 -35 -32 -4 2 -1 3 27)
1969-12-31 18:00:09.688079347,(3 -48 -29 -8 12 -8 29 69)
1969-12-31 18:00:09.712583431,(-79 -87 -67 -62 -91 -39 -19 -51)
1969-12-31 18:00:09.712583431,(-11 -44 -74 -32 7 -2 -8 -33)
1969-12-31 18:00:09.713750292,(-18 71 88 36 -4 -1 10 -2)
1969-12-31 18:00:09.713750292,(21 4 -57 -16 25 13 14 35)
1969-12-31 18:00:09.730086348,(0 -25 -7 17 16 17 4 -11)
1969-12-31 18:00:09.730086348,(16 99 102 63 56 31 5 34)
1969-12-31 18:00:09.738254376,(-7 -72 -63 -25 -10 -10 4 -12)
1969-12-31 18:00:09.738254376,(-1 -23 -8 -12 -47 -33 -40 -7)
1969-12-31 18:00:09.755757293,(61 2 15 39 74 47 17 45)
1969-12-31 18:00:09.755757293,(1 25 40 -32 -95 -39 -1 20)
1969-12-31 18:00:09.758091015,(-31 -65 -71 -47 -37 -45 -14 -65)
1969-12-31 18:00:09.758091015,(-31 58 80 37 17 18 -4 -21)
1969-12-31 18:00:09.781428238,(56 1 -9 20 71 48 64 70)
1969-12-31 18:00:09.781428238,(2 -70 -82 -25 -18 -30 -34 -40)
1969-12-31 18:00:09.791929988,(-7 70 -7 -30 -17 8 -5 -12)
1969-12-31 18:00:09.791929988,(-4 44 36 23 -10 -18 -9 17)
1969-12-31 18:00:09.797764294,(21 -26 -37 -17 -9 27 54 73)
1969-12-31 18:00:09.797764294,(-11 19 40 27 56 0 -21 -47)
1969-12-31 18:00:09.808266044,(-5 -15 -20 -1 -19 -7 -4 8)
1969-12-31 18:00:09.808266044,(-38 -84 -65 -24 -10 -8 -34 -46)
1969-12-31 18:00:09.825768961,(-29 67 72 48 53 43 10 -14)
1969-12-31 18:00:09.825768961,(-12 -128 -128 -95 -124 -98 -13 30)
1969-12-31 18:00:09.828102684,(10 67 84 18 11 18 7 17)
1969-12-31 18:00:09.828102684,(14 54 9 20 45 9 -1 -13)
1969-12-31 18:00:09.852606768,(-3 -45 -30 5 10 19 -2 -21)
1969-12-31 18:00:09.852606768,(-39 -30 -36 -4 18 33 -25 -28)
1969-12-31 18:00:09.853773629,(23 -82 -43 4 64 23 27 44)
1969-12-31 18:00:09.853773629,(4 56 17 -14 -81 -63 -8 -26)
1969-12-31 18:00:09.867775963,(7 8 -16 -23 -49 -50 -30 12)
1969-12-31 18:00:09.867775963,(-44 86 105 57 63 55 -8 -50)
1969-12-31 18:00:09.878277713,(-5 -8 -10 -17 -25 -20 6 -18)
1969-12-31 18:00:09.878277713,(-17 -128 -78 -33 8 17 10 9)
1969-12-31 18:00:09.895780630,(25 101 48 28 27 11 4 14)
1969-12-31 18:00:09.895780630,(-19 -64 -27 -8 -38 -21 12 -13)
1969-12-31 18:00:09.898114352,(-32 101 116 50 35 18 -13 -17)
1969-12-31 18:00:09.898114352,(37 22 31 30 63 43 19 17)
1969-12-31 18:00:09.922618436,(-38 -67 -70 -41 -68 -66 -50 -48)
1969-12-31 18:00:09.922618436,(22 4 32 3 -38 19 28 50)
1969-12-31 18:00:09.923785298,(39 -95 -86 -7 39 22 0 57)
1969-12-31 18:00:09.923785298,(44 20 18 -14 -54 -30 -2 23)
1969-12-31 18:00:09.937787631,(-41 2 -5 -12 7 -10 -3 -19)
1969-12-31 18:00:09.937787631,(-6 42 15 21 20 2 -6 -15)
1969-12-31 18:00:09.949456243,(40 -52 -54 -26 -9 -2 4 26)
1969-12-31 18:00:09.949456243,(-39 31 48 32 37 29 27 -5)
1969-12-31 18:00:09.965792299,(-21 25 10 -4 36 38 -14 -48)
1969-12-31 18:00:09.965792299,(14 -47 -49 -18 -25 -50 6 19)
1969-12-31 18:00:09.968126021,(20 -37 -10 -16 -8 17 20 35)
1969-12-31 18:00:09.968126021,(-37 36 28 28 45 8 -19 -17)
1969-12-31 18:00:09.991463244,(23 23 -22 -23 -91 -56 12 13)
1969-12-31 18:00:09.991463244,(28 9 34 -12 -21 -27 -21 6)
1969-12-31 18:00:09.993796966,(-22 -2 6 18 32 27 -23 -19)
1969-12-31 18:00:09.993796966,(-14 25 3 12 39 32 18 6)
1969-12-31 18:00:10.007799300,(10 -18 39 18 -1 -5 14 19)
1969-12-31 18:00:10.007799300,(3 -4 -34 -9 19 26 25 29)
1969-12-31 18:00:10.018301050,(13 7 -21 -14 9 -28 -8 -29)
1969-12-31 18:00:10.018301050,(-91 -86 -40 -11 -23 24 -52 -82)
1969-12-31 18:00:10.035803967,(53 27 -8 -24 -51 -66 4 33)
1969-12-31 18:00:10.035803967,(31 1 0 6 93 80 15 20)
1969-12-31 18:00:10.038137690,(-12 -30 -22 6 -46 -37 -9 -6)
1969-12-31 18:00:10.038137690,(-42 65 39 -20 -46 -10 36 2)
1969-12-31 18:00:10.062641774,(73 19 9 18 62 46 -5 68)
1969-12-31 18:00:10.062641774,(39 29 -34 -7 -39 -48 -31 7)
1969-12-31 18:00:10.063808635,(-28 -26 64 32 37 45 17 -22)
1969-12-31 18:00:10.063808635,(43 -47 -82 -29 -46 -45 -10 20)
1969-12-31 18:00:10.077810968,(-107 82 121 14 -23 -4 10 -43)
1969-12-31 18:00:10.077810968,(-1 -49 -29 -2 2 5 1 24)
1969-12-31 18:00:10.088312719,(12 -7 -47 -17 13 12 -14 -19)
1969-12-31 18:00:10.088312719,(38 -59 -37 -15 48 50 39 49)
1969-12-31 18:00:10.105815636,(12 -19 -25 -1 -10 -31 1 13)
1969-12-31 18:00:10.105815636,(-74 34 21 2 -30 -52 -64 -108)
1969-12-31 18:00:10.112816803,(-14 39 35 0 -42 3 32 25)
1969-12-31 18:00:10.112816803,(51 -28 -39 -31 -26 -31 -4 19)
1969-12-31 18:00:10.132653442,(-88 -76 -5 19 54 35 -26 -60)
1969-12-31 18:00:10.132653442,(40 112 117 41 1 12 20 -1)
1969-12-31 18:00:10.133820303,(14 -58 -96 -37 -12 -6 2 23)
1969-12-31 18:00:10.133820303,(-62 47 77 36 8 -13 -25 -48)
1969-12-31 18:00:10.158324387,(20 -4 -19 -2 9 38 15 6)
1969-12-31 18:00:10.158324387,(-12 -42 -26 3 27 -13 3 -3)
1969-12-31 18:00:10.160658110,(17 30 38 0 -86 -44 -2 -12)
1969-12-31 18:00:10.160658110,(1 -11 4 6 17 24 19 14)
1969-12-31 18:00:10.175827305,(15 6 -20 -1 15 0 1 8)
1969-12-31 18:00:10.175827305,(-6 2 0 -9 -9 38 34 24)
1969-12-31 18:00:10.178161027,(-4 -9 -9 -3 5 -20 -8 -11)
1969-12-31 18:00:10.178161027,(23 -36 -35 -5 2 -24 -17 17)
1969-12-31 18:00:10.201498250,(68 17 4 2 -9 0 14 57)
1969-12-31 18:00:10.201498250,(-32 -49 -62 -39 -2 -14 -64 -53)
1969-12-31 18:00:10.203831972,(-35 5 13 18 47 30 1 -52)
1969-12-31 18:00:10.203831972,(-23 59 59 4 -53 -54 -26 -37)
1969-12-31 18:00:10.228336056,(-42 -21 11 14 46 42 10 -19)
1969-12-31 18:00:10.228336056,(11 -55 -80 -24 -25 -11 18 11)
1969-12-31 18:00:10.229502917,(11 41 50 -14 -73 -59 6 24)
1969-12-31 18:00:10.229502917,(44 62 -9 3 42 32 -25 30)
1969-12-31 18:00:10.244672112,(4 -54 -27 -5 14 2 -25 -17)
1969-12-31 18:00:10.244672112,(-51 -25 -11 3 17 7 -11 -2)
1969-12-31 18:00:10.252840140,(23 34 6 4 -2 0 -5 -15)
1969-12-31 18:00:10.252840140,(-2 -27 -1 -15 -76 -20 41 28)
1969-12-31 18:00:10.272676779,(19 -9 -27 -3 28 1 4 14)
1969-12-31 18:00:10.272676779,(23 48 62 16 29 22 10 17)
1969-12-31 18:00:10.275010501,(-16 -75 -58 -10 28 18 -23 -8)
1969-12-31 18:00:10.275010501,(41 87 48 29 29 25 4 -10)
1969-12-31 18:00:10.298347725,(-21 -25 -13 2 -26 -15 11 -31)
1969-12-31 18:00:10.298347725,(14 7 32 9 -13 -3 -25 -19)
1969-12-31 18:00:10.300681447,(-20 8 -2 -3 20 -9 -9 -17)
1969-12-31 18:00:10.300681447,(37 -1 -12 2 40 49 13 43)
1969-12-31 18:00:10.314683781,(-49 -96 -60 -37 -83 -72 -32 -49)
1969-12-31 18:00:10.314683781,(40 66 30 -9 13 27 27 36)
1969-12-31 18:00:10.332186698,(-30 -28 -20 -6 -17 -10 13 18)
1969-12-31 18:00:10.332186698,(20 -18 -40 -13 28 10 -9 -4)
1969-12-31 18:00:10.342688448,(79 64 54 34 -23 -22 22 114)
1969-12-31 18:00:10.342688448,(-73 -48 -35 -24 -6 -3 -1 -73)
1969-12-31 18:00:10.343855309,(3 -23 16 17 32 26 1 14)
1969-12-31 18:00:10.343855309,(-21 -8 0 -3 -2 -10 -15 -41)
1969-12-31 18:00:10.368359393,(41 60 -15 -12 13 25 39 41)
1969-12-31 18:00:10.368359393,(27 -21 44 19 -23 -15 10 30)
1969-12-31 18:00:10.370693116,(78 24 -16 13 54 27 -3 70)
1969-12-31 18:00:10.370693116,(-25 -51 -33 -26 -47 -40 -2 -16)
1969-12-31 18:00:10.384695449,(-88 79 76 3 -34 -14 -50 -85)
1969-12-31 18:00:10.385862310,(78 -13 -72 -12 31 31 44 78)
1969-12-31 18:00:10.392863477,(-19 26 73 35 23 2 13 0)
1969-12-31 18:00:10.392863477,(-48 -41 -16 -9 -54 -27 11 -3)
1969-12-31 18:00:10.412700117,(11 -13 -18 -19 13 23 21 -14)
1969-12-31 18:00:10.412700117,(-2 -11 -1 -1 -2 7 -45 -10)
1969-12-31 18:00:10.413866978,(10 2 -27 -5 -15 -20 -10 -16)
1969-12-31 18:00:10.413866978,(59 35 21 2 20 25 8 38)
1969-12-31 18:00:10.439537923,(-21 -9 20 16 7 -40 -35 -83)
1969-12-31 18:00:10.439537923,(-45 1 -13 -5 -31 -14 -10 -4)
1969-12-31 18:00:10.440704784,(16 -62 -67 -26 12 38 24 6)
1969-12-31 18:00:10.440704784,(9 59 80 46 26 -14 2 18)
1969-12-31 18:00:10.455873979,(-11 30 12 -5 -29 -1 -21 -23)
1969-12-31 18:00:10.455873979,(2 2 27 22 44 12 32 19)
1969-12-31 18:00:10.462875146,(5 -26 -34 -5 -21 11 -7 21)
1969-12-31 18:00:10.462875146,(-80 -52 -43 -57 -67 -62 -54 -104)
1969-12-31 18:00:10.482711785,(26 5 -13 -6 19 15 -9 42)
1969-12-31 18:00:10.482711785,(-3 -30 -6 6 5 -7 15 18)
1969-12-31 18:00:10.483878646,(12 76 58 25 37 32 -12 4)
1969-12-31 18:00:10.483878646,(8 -17 -26 -1 25 14 41 28)
1969-12-31 18:00:10.508382730,(6 -4 17 4 -50 -33 3 -5)
1969-12-31 18:00:10.508382730,(3 7 -9 -19 -23 -31 -31 -30)
1969-12-31 18:00:10.509549592,(10 -25 -32 -11 1 12 17 -10)
1969-12-31 18:00:10.509549592,(-18 -32 -14 -7 33 20 -15 -37)
1969-12-31 18:00:10.524718786,(4 18 -8 -13 -12 -4 -11 -16)
1969-12-31 18:00:10.524718786,(22 17 10 35 52 42 46 54)
1969-12-31 18:00:10.535220537,(-62 -8 37 -21 -88 -76 -39 -65)
1969-12-31 18:00:10.535220537,(14 15 11 5 12 15 0 -3)
1969-12-31 18:00:10.552723454,(-72 -67 -33 -13 32 23 10 -12)
1969-12-31 18:00:10.552723454,(43 40 -19 -14 -44 -19 1 14)
1969-12-31 18:00:10.553890315,(44 62 30 21 29 26 27 14)
1969-12-31 18:00:10.553890315,(-45 -45 14 11 -8 -18 -13 -27)
1969-12-31 18:00:10.579561260,(27 -39 -27 -6 30 27 6 31)
1969-12-31 18:00:10.579561260,(-43 -44 -47 -21 -14 -28 -24 -35)
1969-12-31 18:00:10.581894982,(-36 55 59 18 -17 -26 -10 7)
1969-12-31 18:00:10.581894982,(24 59 29 19 6 -2 -5 21)
1969-12-31 18:00:10.595897316,(28 -19 2 11 24 33 12 9)
1969-12-31 18:00:10.595897316,(44 19 9 12 40 24 23 61)
1969-12-31 18:00:10.602898483,(12 -12 -22 -15 -21 0 -6 -13)
1969-12-31 18:00:10.602898483,(53 -86 -95 -11 36 38 31 37)
1969-12-31 18:00:10.621568261,(-103 43 62 -14 -112 -96 -33 -37)
1969-12-31 18:00:10.622735123,(31 69 48 11 15 10 6 -3)
1969-12-31 18:00:10.623901984,(43 -11 -15 8 8 19 26 56)
1969-12-31 18:00:10.623901984,(-80 -15 7 8 99 69 -16 -54)
1969-12-31 18:00:10.648406068,(13 -85 -65 -20 -71 -63 -11 24)
1969-12-31 18:00:10.648406068,(8 -7 -24 -17 -37 -14 2 -13)
1969-12-31 18:00:10.650739790,(-2 91 92 47 58 32 18 -11)
1969-12-31 18:00:10.650739790,(94 -24 -60 -23 -25 -2 22 75)
1969-12-31 18:00:10.664742124,(-28 33 76 33 32 10 12 18)
1969-12-31 18:00:10.665908985,(-41 7 18 7 14 13 -28 -75)
1969-12-31 18:00:10.672910152,(21 -47 -69 -27 -11 1 3 36)
1969-12-31 18:00:10.672910152,(-3 -30 -20 -9 -35 -42 1 7)
1969-12-31 18:00:10.692746791,(44 31 -8 -9 5 22 16 25)
1969-12-31 18:00:10.692746791,(16 -32 6 4 -12 -18 -3 16)
1969-12-31 18:00:10.693913652,(8 8 -29 4 43 47 9 31)
1969-12-31 18:00:10.693913652,(-31 29 70 24 -23 -48 18 -22)
1969-12-31 18:00:10.718417735,(-14 -13 -22 -26 -34 -40 -58 -41)
1969-12-31 18:00:10.718417735,(5 -10 -11 -5 21 59 49 13)
1969-12-31 18:00:10.720751458,(-13 -41 -38 -36 -79 -91 -74 -25)
1969-12-31 18:00:10.720751458,(-31 -40 -40 -2 32 38 0 -18)
1969-12-31 18:00:10.735920653,(-7 60 54 40 50 22 18 4)
1969-12-31 18:00:10.735920653,(22 45 19 -7 -26 -19 -10 9)
1969-12-31 18:00:10.742921820,(-49 -57 -37 -20 7 4 -7 -46)
1969-12-31 18:00:10.742921820,(-10 34 66 21 -10 -10 -2 19)
1969-12-31 18:00:10.762758460,(60 2 -33 -4 15 23 12 27)
1969-12-31 18:00:10.762758460,(-52 -29 -20 -6 -3 -9 -22 -42)
1969-12-31 18:00:10.763925321,(-4 16 9 2 0 3 10 10)
1969-12-31 18:00:10.763925321,(26 4 -11 -3 -13 -14 -32 -24)
1969-12-31 18:00:10.788429405,(-42 -8 -13 8 106 90 14 -50)
1969-12-31 18:00:10.788429405,(-25 2 20 1 -71 -75 -15 -16)
1969-12-31 18:00:10.790763127,(2 -29 -25 -39 -29 -36 -27 -17)
1969-12-31 18:00:10.790763127,(28 17 6 7 12 13 19 34)
1969-12-31 18:00:10.804765461,(-30 -20 -22 -6 13 19 8 -18)
1969-12-31 18:00:10.804765461,(-22 -13 1 6 37 14 -12 -10)
1969-12-31 18:00:10.815267211,(-17 -20 -4 -1 -6 1 14 -21)
1969-12-31 18:00:10.815267211,(16 48 22 -1 -29 -24 -18 3)
1969-12-31 18:00:10.832770128,(34 22 16 20 17 12 -4 12)
1969-12-31 18:00:10.832770128,(61 -12 -41 -10 7 12 20 56)
1969-12-31 18:00:10.833936989,(-83 17 74 19 -19 -23 -12 -73)
1969-12-31 18:00:10.833936989,(-44 -51 -49 -24 -2 6 -3 -15)
1969-12-31 18:00:10.858441074,(49 -9 -10 1 -12 -5 20 43)
1969-12-31 18:00:10.858441074,(-10 -36 -14 -7 -4 -3 -8 14)
1969-12-31 18:00:10.860774796,(25 54 9 10 19 15 16 30)
1969-12-31 18:00:10.860774796,(-29 13 3 2 25 22 17 -66)
1969-12-31 18:00:10.874777130,(-13 -15 -13 -14 -61 -42 -65 -21)
1969-12-31 18:00:10.874777130,(0 -14 -10 -12 8 -4 -9 -8)
1969-12-31 18:00:10.885278880,(56 27 20 37 37 39 32 50)
1969-12-31 18:00:10.885278880,(-64 -34 -17 -42 -87 -64 -40 -47)
1969-12-31 18:00:10.902781797,(25 12 0 -12 6 -1 11 44)
1969-12-31 18:00:10.902781797,(-13 2 1 0 3 12 4 -11)
1969-12-31 18:00:10.903948658,(17 -16 -12 -2 24 18 -10 17)
1969-12-31 18:00:10.903948658,(16 27 11 10 12 2 6 16)
1969-12-31 18:00:10.928452742,(42 12 6 7 -7 -9 21 20)
1969-12-31 18:00:10.928452742,(-12 1 14 7 16 11 -1 -8)
1969-12-31 18:00:10.930786464,(-47 -26 -14 -12 -10 -8 5 -30)
1969-12-31 18:00:10.930786464,(9 6 0 6 -4 1 4 27)
1969-12-31 18:00:10.944788798,(15 -61 -40 -17 -2 -2 10 10)
1969-12-31 18:00:10.944788798,(0 56 52 23 13 11 14 18)
1969-12-31 18:00:10.955290548,(-9 -24 -13 -12 -18 -16 -15 -20)
1969-12-31 18:00:10.955290548,(1 27 4 11 0 -3 -24 -20)
1969-12-31 18:00:10.980961494,(3 15 18 9 21 11 11 28)
1969-12-31 18:00:10.980961494,(15 -1 -7 -1 -8 -4 1 -5)
1969-12-31 18:00:10.983295216,(-5 -17 -33 -23 -30 -22 1 -10)
1969-12-31 18:00:10.983295216,(-8 -16 11 14 77 66 9 77)
1969-12-31 18:00:10.998464411,(-23 5 7 3 -59 -52 -3 -34)
1969-12-31 18:00:10.998464411,(-19 -24 -15 -28 -46 -40 -20 -25)
1969-12-31 18:00:11.000798133,(-20 7 5 2 18 5 -9 -28)
1969-12-31 18:00:11.000798133,(26 2 -6 -2 -5 -4 8 23)
1969-12-31 18:00:11.014800467,(10 13 4 9 36 35 16 5)
1969-12-31 18:00:11.014800467,(-42 -11 3 5 15 8 0 -7)
1969-12-31 18:00:11.025302217,(18 3 4 3 -15 -9 0 24)
1969-12-31 18:00:11.025302217,(24 0 -4 -6 -4 -5 -4 -11)
1969-12-31 18:00:11.042805134,(-5 -9 -5 -2 11 5 -2 -5)
1969-12-31 18:00:11.042805134,(-10 -12 -13 -2 -3 -9 -17 -34)
1969-12-31 18:00:11.043971995,(11 12 6 3 13 16 13 27)
1969-12-31 18:00:11.043971995,(1 -6 16 7 -6 -7 -2 1)
1969-12-31 18:00:11.068476079,(-8 28 8 -33 -89 -39 21 -30)
1969-12-31 18:00:11.068476079,(-15 -20 -10 0 10 -10 -52 -5)
1969-12-31 18:00:11.070809802,(3 -4 -8 1 7 3 -15 -18)
1969-12-31 18:00:11.070809802,(-9 -54 -49 -16 18 15 31 0)
1969-12-31 18:00:11.084812135,(-7 18 14 12 3 -8 -9 1)
1969-12-31 18:00:11.084812135,(48 79 45 21 35 67 57 67)
1969-12-31 18:00:11.095313886,(-81 -65 -31 -18 -32 -75 -65 -94)
1969-12-31 18:00:11.095313886,(19 13 3 -3 -27 -25 -3 -8)
1969-12-31 18:00:11.111649942,(20 -34 -32 -9 21 13 -8 12)
1969-12-31 18:00:11.111649942,(-5 2 -1 0 1 7 12 4)
1969-12-31 18:00:11.113983664,(16 18 20 11 30 36 21 32)
1969-12-31 18:00:11.113983664,(-17 -9 -14 -5 3 5 18 -6)
1969-12-31 18:00:11.138487748,(2 4 6 -9 -30 -25 -25 1)
1969-12-31 18:00:11.138487748,(26 1 10 17 40 23 -3 -4)
1969-12-31 18:00:11.140821470,(35 26 8 -6 -29 6 45 39)
1969-12-31 18:00:11.140821470,(12 -12 -24 -22 -41 -53 -47 -21)
1969-12-31 18:00:11.154823804,(11 7 6 10 46 33 18 24)
1969-12-31 18:00:11.154823804,(-45 -7 15 4 -12 -14 3 -7)
1969-12-31 18:00:11.165325554,(-10 -12 -14 -2 15 5 -23 -63)
1969-12-31 18:00:11.165325554,(-19 4 14 8 1 8 0 -19)
1969-12-31 18:00:11.182828471,(-16 -1 -15 -4 6 -2 -15 -21)
1969-12-31 18:00:11.182828471,(50 -17 -17 3 24 14 18 29)
1969-12-31 18:00:11.183995333,(-14 4 6 -19 -61 -43 -30 -23)
1969-12-31 18:00:11.183995333,(25 13 1 4 20 18 19 28)
1969-12-31 18:00:11.208499417,(-36 -26 -4 -8 -16 -12 -28 -34)
1969-12-31 18:00:11.208499417,(-1 11 1 8 29 8 10 -15)
1969-12-31 18:00:11.210833139,(6 0 1 8 35 72 34 40)
1969-12-31 18:00:11.210833139,(10 6 4 -5 -63 -76 -37 -18)
1969-12-31 18:00:11.224835473,(3 -3 -1 -5 9 14 42 28)
1969-12-31 18:00:11.224835473,(-15 -2 -19 -12 -23 -21 -27 -29)
1969-12-31 18:00:11.236504084,(26 -2 2 1 12 4 4 21)
1969-12-31 18:00:11.236504084,(-69 -3 14 25 70 58 -5 -27)
1969-12-31 18:00:11.252840140,(13 -4 4 -6 -40 -36 3 -6)
1969-12-31 18:00:11.252840140,(-4 13 9 -4 -21 -14 -3 -1)
1969-12-31 18:00:11.254007001,(-7 -27 -27 -12 -4 -10 -7 -17)
1969-12-31 18:00:11.254007001,(2 4 -1 -7 -3 8 3 10)
1969-12-31 18:00:11.278511085,(-21 -2 7 12 19 12 -11 -8)
1969-12-31 18:00:11.278511085,(-6 -5 -11 -7 -8 -5 -2 -13)
1969-12-31 18:00:11.279677946,(51 24 10 7 5 0 27 55)
1969-12-31 18:00:11.279677946,(11 -5 8 1 -4 -2 -23 11)
1969-12-31 18:00:11.305348891,(17 18 3 4 24 40 13 41)
1969-12-31 18:00:11.305348891,(44 1 6 9 20 10 23 50)
1969-12-31 18:00:11.307682614,(-13 10 12 7 -26 -28 -24 -27)
1969-12-31 18:00:11.307682614,(32 17 1 -13 -19 -9 32 31)
1969-12-31 18:00:11.321684947,(-21 -5 -10 -5 5 -4 -31 -34)
1969-12-31 18:00:11.321684947,(-33 -14 -5 -5 5 6 -1 -17)
1969-12-31 18:00:11.324018670,(12 1 18 21 44 28 17 30)
1969-12-31 18:00:11.324018670,(-38 -21 -19 -19 -27 -24 -39 -61)
1969-12-31 18:00:11.348522754,(-1 4 5 5 6 -5 6 -1)
1969-12-31 18:00:11.348522754,(36 13 -4 -2 -7 -9 -12 -4)
1969-12-31 18:00:11.350856476,(3 -1 -5 -7 -12 -10 -6 -8)
1969-12-31 18:00:11.350856476,(-14 -17 -11 -5 -6 -3 3 -1)
1969-12-31 18:00:11.375360560,(5 16 18 9 15 16 19 21)
1969-12-31 18:00:11.375360560,(-25 -1 3 -1 -17 -17 -12 -20)
1969-12-31 18:00:11.376527421,(-5 -6 -9 -10 -7 -6 -3 16)
1969-12-31 18:00:11.376527421,(22 8 6 7 13 17 10 24)
1969-12-31 18:00:11.392863477,(20 12 -8 -1 1 -12 9 -1)
1969-12-31 18:00:11.392863477,(11 -6 -3 -6 -22 -6 -7 13)
1969-12-31 18:00:11.394030338,(-23 -7 -2 -6 -3 -6 -7 -3)
1969-12-31 18:00:11.394030338,(-14 7 0 -2 6 5 3 -10)
1969-12-31 18:00:11.419701284,(22 9 3 7 -4 -4 -1 2)
1969-12-31 18:00:11.419701284,(12 -15 -6 1 41 56 30 31)
1969-12-31 18:00:11.426702450,(-29 -12 -4 -8 -68 -60 -13 -24)
1969-12-31 18:00:11.426702450,(1 13 8 3 -3 -16 -16 -13)
1969-12-31 18:00:11.444205368,(-3 -4 -7 -3 0 10 21 0)
1969-12-31 18:00:11.444205368,(16 16 10 4 -4 -21 -46 -5)
1969-12-31 18:00:11.445372229,(-24 -5 -3 -5 28 38 5 -2)
1969-12-31 18:00:11.445372229,(18 -2 5 14 -2 -15 55 30)
1969-12-31 18:00:11.462875146,(-36 -31 -12 -7 -8 -8 -12 -17)
1969-12-31 18:00:11.462875146,(-5 7 1 -7 -7 18 16 -8)
1969-12-31 18:00:11.464042007,(0 -8 -3 2 9 -37 -14 -10)
1969-12-31 18:00:11.464042007,(-3 4 1 -2 -12 0 -18 1)
1969-12-31 18:00:11.497880980,(-15 2 2 3 15 18 18 2)
1969-12-31 18:00:11.497880980,(-16 -14 -2 1 -11 -29 -1 -5)
1969-12-31 18:00:11.497880980,(39 24 9 4 7 17 3 33)
1969-12-31 18:00:11.497880980,(19 10 5 0 3 15 11 47)
1969-12-31 18:00:11.514217036,(6 -10 -5 -1 1 -17 -8 1)
1969-12-31 18:00:11.514217036,(1 3 3 -3 -10 4 0 -12)
1969-12-31 18:00:11.515383897,(13 24 6 0 1 5 -2 -35)
1969-12-31 18:00:11.515383897,(-63 -60 -23 -11 1 -13 -28 -35)
1969-12-31 18:00:11.530553092,(25 10 0 -3 -1 -2 -18 2)
1969-12-31 18:00:11.530553092,(-22 -8 -1 -5 -11 -1 2 -19)
1969-12-31 18:00:11.539887981,(36 15 8 6 14 27 23 53)
1969-12-31 18:00:11.539887981,(46 37 15 14 15 37 17 36)
1969-12-31 18:00:11.560891482,(-115 -61 -31 -24 -28 -40 -47 -44)
1969-12-31 18:00:11.560891482,(5 -5 -4 -3 -8 -8 -1 -10)
1969-12-31 18:00:11.562058343,(-3 7 -1 0 2 -17 -22 -16)
1969-12-31 18:00:11.562058343,(59 20 6 1 3 27 18 26)
1969-12-31 18:00:11.584228705,(-12 0 5 5 6 11 5 -2)
1969-12-31 18:00:11.584228705,(-67 -19 -7 3 0 -17 -6 -28)
1969-12-31 18:00:11.585395566,(-33 -40 -14 -8 -3 13 2 -11)
1969-12-31 18:00:11.585395566,(28 12 0 -4 -7 -20 -12 -15)
1969-12-31 18:00:11.600564761,(2 5 3 2 5 10 8 20)
1969-12-31 18:00:11.600564761,(85 45 19 14 7 8 25 57)
1969-12-31 18:00:11.619234539,(-58 -46 -26 -16 -13 -13 -26 -38)
1969-12-31 18:00:11.619234539,(-31 -17 -4 -5 -4 -6 -7 -24)
1969-12-31 18:00:11.627402567,(69 43 11 4 3 -5 0 26)
1969-12-31 18:00:11.627402567,(-96 -49 -17 -8 -5 4 -2 -27)
1969-12-31 18:00:11.628569428,(93 25 8 7 7 9 12 26)
1969-12-31 18:00:11.628569428,(-71 -8 6 3 0 -11 -16 -31)
1969-12-31 18:00:11.654240373,(6 -18 -16 -7 -2 11 7 5)
1969-12-31 18:00:11.654240373,(27 35 23 5 -2 -8 -5 4)
1969-12-31 18:00:11.655407235,(-11 -2 -4 -1 1 2 3 -2)
1969-12-31 18:00:11.655407235,(0 -25 -25 -13 -10 -11 -10 -12)
1969-12-31 18:00:11.670576429,(3 9 18 11 7 9 6 -3)
1969-12-31 18:00:11.670576429,(4 10 -2 -8 -10 -12 -8 -12)
1969-12-31 18:00:11.679911319,(-36 -20 2 2 1 -2 -2 -6)
1969-12-31 18:00:11.679911319,(21 29 13 11 8 9 8 10)
1969-12-31 18:00:11.697414236,(3 -23 -22 -9 -6 -2 -3 -3)
1969-12-31 18:00:11.697414236,(22 -9 -11 -7 -5 -6 -2 10)
1969-12-31 18:00:11.698581097,(-12 1 -1 -1 1 2 0 -2)
1969-12-31 18:00:11.698581097,(5 -6 0 2 -1 0 1 5)
1969-12-31 18:00:11.724252041,(15 5 15 6 4 1 0 -3)
1969-12-31 18:00:11.724252041,(-16 4 -1 -4 -4 -9 -8 -15)
1969-12-31 18:00:11.741754959,(-11 2 5 4 4 1 2 -3)
1969-12-31 18:00:11.741754959,(-6 -24 -21 -12 -6 -1 4 5)
1969-12-31 18:00:11.751089848,(6 16 4 0 0 -6 -9 -13)
1969-12-31 18:00:11.751089848,(25 -2 -20 -3 -3 0 0 3)
1969-12-31 18:00:11.752256709,(-10 8 17 5 1 2 2 3)
1969-12-31 18:00:11.752256709,(2 1 -12 -9 -8 -10 -5 -2)
1969-12-31 18:00:11.768592765,(-31 10 28 12 2 2 -4 -15)
1969-12-31 18:00:11.768592765,(-3 -18 -13 -3 -2 -1 0 4)
1969-12-31 18:00:11.768592765,(11 -6 -9 2 0 -1 1 3)
1969-12-31 18:00:11.768592765,(14 24 12 6 3 -1 -2 -2)
1969-12-31 18:00:11.794263711,(3 -14 -2 1 1 3 8 5)
1969-12-31 18:00:11.794263711,(-19 -11 -4 -4 -3 0 -14 -16)
1969-12-31 18:00:11.795430572,(15 11 -3 -1 0 0 1 5)
1969-12-31 18:00:11.795430572,(-1 3 5 -6 -1 -1 1 2)
1969-12-31 18:00:11.810599767,(1 5 -6 -2 -1 0 5 4)
1969-12-31 18:00:11.810599767,(7 -8 -2 -1 0 -2 -2 4)
1969-12-31 18:00:11.819934656,(6 1 -4 -4 2 3 -4 -3)
1969-12-31 18:00:11.819934656,(-9 0 17 8 0 -1 -1 -12)
1969-12-31 18:00:11.837437573,(-7 -5 -36 -17 -7 -5 -2 -4)
1969-12-31 18:00:11.837437573,(-5 -52 -21 -4 1 2 11 8)
1969-12-31 18:00:11.838604434,(5 97 87 24 5 1 -16 -6)
1969-12-31 18:00:11.839771295,(0 5 1 1 0 0 -3 -5)
1969-12-31 18:00:11.864275379,(7 -31 -24 -9 -5 0 -1 2)
1969-12-31 18:00:11.864275379,(2 -2 -2 1 -1 -3 -8 -5)
1969-12-31 18:00:11.865442240,(1 -8 -23 -13 -2 0 7 3)
1969-12-31 18:00:11.865442240,(-4 -16 5 1 -2 3 4 -2)
1969-12-31 18:00:11.884112019,(2 15 16 5 3 0 -12 3)
1969-12-31 18:00:11.884112019,(-2 -1 1 1 -4 -2 13 0)
1969-12-31 18:00:11.891113186,(-1 -10 -6 0 -1 -4 -14 1)
1969-12-31 18:00:11.891113186,(0 -15 -21 -4 -2 1 8 1)
1969-12-31 18:00:11.907449242,(0 8 -4 -3 -2 4 0 -2)
1969-12-31 18:00:11.907449242,(-10 -1 -4 -5 0 -4 -6 -3)
1969-12-31 18:00:11.908616103,(-3 -14 -7 -3 -3 -1 20 8)
1969-12-31 18:00:11.908616103,(8 19 -15 -9 -4 -5 -8 4)
1969-12-31 18:00:11.934287048,(-9 -33 -8 2 1 -3 -5 -8)
1969-12-31 18:00:11.934287048,(-5 23 8 -3 -9 -11 -27 -16)
1969-12-31 18:00:11.935453909,(1 4 10 10 3 6 8 5)
1969-12-31 18:00:11.935453909,(2 -37 -28 -11 -2 -1 -2 4)
1969-12-31 18:00:11.952956826,(7 -2 -36 -14 -2 -1 6 1)
1969-12-31 18:00:11.952956826,(3 31 31 13 3 0 -2 -4)
1969-12-31 18:00:11.961124854,(-9 -50 -18 -2 -1 2 8 5)
1969-12-31 18:00:11.961124854,(-15 37 37 13 2 -1 -7 -7)
1969-12-31 18:00:11.977460910,(1 -20 -25 -16 -7 -5 -1 -5)
1969-12-31 18:00:11.977460910,(-2 -2 -2 -8 -4 -1 3 -1)
1969-12-31 18:00:11.978627771,(14 7 -20 -10 -3 0 -2 4)
1969-12-31 18:00:11.978627771,(2 -6 12 6 3 0 2 -4)
1969-12-31 18:00:12.004298716,(-9 -14 10 0 -1 -2 0 -2)
1969-12-31 18:00:12.004298716,(8 -11 -33 -10 -3 3 6 7)
1969-12-31 18:00:12.005465578,(-3 -2 19 12 0 -5 -5 -8)
1969-12-31 18:00:12.005465578,(12 64 42 11 4 1 -1 -2)
1969-12-31 18:00:12.020634772,(8 26 15 5 1 0 -3 -1)
1969-12-31 18:00:12.020634772,(-2 -18 -21 -7 -2 -3 2 5)
1969-12-31 18:00:12.031136523,(-16 -24 4 -6 -8 -7 -9 -11)
1969-12-31 18:00:12.031136523,(-4 -17 -10 -4 -3 -3 1 -2)
1969-12-31 18:00:12.048639440,(7 -9 6 5 1 2 5 8)
1969-12-31 18:00:12.048639440,(-4 70 51 14 7 5 3 -5)
1969-12-31 18:00:12.049806301,(6 9 -22 -8 -4 -3 -6 -8)
1969-12-31 18:00:12.049806301,(-15 -86 -84 -38 -10 -1 2 8)
1969-12-31 18:00:12.074310385,(7 97 103 50 10 -3 -9 -12)
1969-12-31 18:00:12.074310385,(5 -18 0 8 3 2 0 2)
1969-12-31 18:00:12.075477246,(-16 -10 -11 -8 -3 5 5 -1)
1969-12-31 18:00:12.075477246,(-12 -13 -2 1 -3 2 -9 -10)
1969-12-31 18:00:12.090646441,(-1 -45 -48 -32 -13 -6 -2 0)
1969-12-31 18:00:12.090646441,(10 27 4 4 5 7 3 2)
1969-12-31 18:00:12.101148191,(4 -16 2 2 -4 -1 3 0)
1969-12-31 18:00:12.101148191,(3 -28 -65 -52 -19 -7 -9 -5)
1969-12-31 18:00:12.118651109,(0 31 29 40 18 7 5 5)
1969-12-31 18:00:12.118651109,(3 -11 19 20 5 -4 2 8)
1969-12-31 18:00:12.118651109,(-2 -3 -18 -5 1 -6 5 7)
1969-12-31 18:00:12.118651109,(-3 14 1 0 -1 -10 0 6)
1969-12-31 18:00:12.144322054,(-6 -9 -13 -12 -4 -2 -4 0)
1969-12-31 18:00:12.144322054,(-3 -7 -10 -8 -3 -4 -1 0)
1969-12-31 18:00:12.145488915,(5 -14 -18 -4 2 -1 -1 4)
1969-12-31 18:00:12.145488915,(0 24 25 5 2 -1 3 2)
1969-12-31 18:00:12.160658110,(-3 0 -19 -18 -7 -7 -4 -3)
1969-12-31 18:00:12.160658110,(-6 -19 22 14 7 1 1 -4)
1969-12-31 18:00:12.171159860,(10 23 -1 -9 -4 -6 -4 0)
1969-12-31 18:00:12.171159860,(-3 1 -13 -4 -2 -4 0 1)
1969-12-31 18:00:12.187495916,(6 6 -10 -5 2 2 0 2)
1969-12-31 18:00:12.188662777,(-11 -31 -21 -7 -3 -2 0 -1)
1969-12-31 18:00:12.188662777,(-4 -2 4 1 -2 -1 -3 -4)
1969-12-31 18:00:12.188662777,(9 7 14 8 2 2 0 -1)
1969-12-31 18:00:12.226002334,(-7 -20 -20 -10 -2 1 -2 -1)
1969-12-31 18:00:12.226002334,(1 7 -10 -15 -7 -5 -2 0)
1969-12-31 18:00:12.227169195,(-4 -2 -2 1 1 2 -2 -3)
1969-12-31 18:00:12.227169195,(2 13 21 18 8 2 2 -1)
1969-12-31 18:00:12.241171529,(-7 -17 -5 -8 -3 0 1 2)
1969-12-31 18:00:12.241171529,(-4 -7 28 7 2 -2 0 -3)
1969-12-31 18:00:12.242338390,(6 72 15 11 6 2 1 1)
1969-12-31 18:00:12.242338390,(4 7 4 -1 -1 -3 -2 -3)
1969-12-31 18:00:12.259841307,(-7 -11 6 5 0 0 2 1)
1969-12-31 18:00:12.259841307,(0 -17 -9 -7 -4 -1 -2 -2)
1969-12-31 18:00:12.261008168,(-2 1 -10 -6 -5 0 -2 -2)
1969-12-31 18:00:12.261008168,(-4 -2 14 12 2 3 -4 -7)
1969-12-31 18:00:12.284345391,(1 6 0 1 -2 2 -3 -6)
1969-12-31 18:00:12.285512252,(-2 -1 -9 -9 -5 5 -3 -4)
1969-12-31 18:00:12.285512252,(-4 -17 -8 -3 -2 4 -3 -5)
1969-12-31 18:00:12.285512252,(4 9 14 15 4 4 -1 -4)
1969-12-31 18:00:12.300681447,(-5 -12 7 1 -1 3 -2 -5)
1969-12-31 18:00:12.300681447,(0 5 -13 -8 -5 0 -5 -7)
1969-12-31 18:00:12.311183197,(-1 -9 7 0 2 4 -2 0)
1969-12-31 18:00:12.311183197,(1 2 -5 -4 -1 3 -1 -2)
1969-12-31 18:00:12.327519253,(1 -3 0 9 3 0 1 2)
1969-12-31 18:00:12.327519253,(1 5 -4 1 2 -7 3 7)
1969-12-31 18:00:12.328686114,(-1 0 -5 -1 1 -10 0 4)
1969-12-31 18:00:12.328686114,(-1 -16 -17 -6 0 -10 4 10)
1969-12-31 18:00:12.354357060,(-9 -1 -13 -7 1 -8 3 4)
1969-12-31 18:00:12.354357060,(5 12 -2 3 2 -2 2 4)
1969-12-31 18:00:12.355523921,(-7 -21 -5 -6 -1 -7 -1 -1)
1969-12-31 18:00:12.355523921,(1 0 8 2 -1 -6 0 0)
1969-12-31 18:00:12.383528588,(1 -1 -1 -6 -2 -8 -1 -1)
1969-12-31 18:00:12.383528588,(-7 -7 -3 -7 -3 0 0 -2)
1969-12-31 18:00:12.384695449,(-4 -32 -6 -4 -3 3 0 -2)
1969-12-31 18:00:12.384695449,(4 24 17 7 3 9 1 0)
1969-12-31 18:00:12.398697783,(0 9 3 -1 -1 4 -2 -5)
1969-12-31 18:00:12.398697783,(3 3 9 9 1 4 0 2)
1969-12-31 18:00:12.398697783,(0 -5 -3 -3 -4 0 -2 -2)
1969-12-31 18:00:12.398697783,(-4 -5 4 4 -2 2 -1 -4)
1969-12-31 18:00:12.424368728,(2 -5 -1 -1 -3 3 0 1)
1969-12-31 18:00:12.424368728,(0 -6 -18 -11 -6 -1 -4 -2)
1969-12-31 18:00:12.425535589,(0 4 8 8 0 0 -1 -5)
1969-12-31 18:00:12.425535589,(-5 -21 -1 3 1 2 0 -1)
1969-12-31 18:00:12.451206534,(3 8 8 4 -3 0 -2 -1)
1969-12-31 18:00:12.451206534,(-4 -1 -8 -4 -2 -2 -2 -4)
1969-12-31 18:00:12.452373396,(-2 6 2 0 1 1 -1 -2)
1969-12-31 18:00:12.452373396,(1 3 1 -3 -2 -1 -2 -1)
1969-12-31 18:00:12.468709452,(-4 -12 -2 0 -1 -1 -2 -1)
1969-12-31 18:00:12.468709452,(-3 -2 -3 -3 -2 -2 -1 -3)
1969-12-31 18:00:12.469876313,(-1 0 -2 -2 -3 -3 -3 -2)
1969-12-31 18:00:12.469876313,(1 6 6 4 1 0 -1 -1)
1969-12-31 18:00:12.494380397,(-2 -4 -8 -6 -4 -4 -5 -3)
1969-12-31 18:00:12.494380397,(-1 -3 2 -6 -1 -1 0 0)
1969-12-31 18:00:12.495547258,(0 7 7 1 2 -1 -1 0)
1969-12-31 18:00:12.495547258,(0 -1 -1 0 -1 -2 0 0)
1969-12-31 18:00:12.521218203,(-5 -9 6 -2 -1 -1 -1 -5)
1969-12-31 18:00:12.521218203,(1 10 6 5 2 -1 -1 0)
1969-12-31 18:00:12.522385064,(-3 -31 -14 -6 -5 0 -2 -2)
1969-12-31 18:00:12.522385064,(2 34 24 9 6 0 1 0)
1969-12-31 18:00:12.538721120,(1 2 -5 -4 -2 -1 -1 0)
1969-12-31 18:00:12.538721120,(-2 -6 0 0 0 -1 -2 -2)
1969-12-31 18:00:12.539887981,(-3 -4 -3 -3 2 0 1 2)
1969-12-31 18:00:12.539887981,(-1 -11 -12 -8 -4 -2 -1 1)
1969-12-31 18:00:12.564392065,(-1 2 -1 -1 -1 -2 1 -2)
1969-12-31 18:00:12.564392065,(4 12 9 5 1 -3 -4 0)
1969-12-31 18:00:12.565558926,(-12 -6 -9 -3 -3 -3 -5 -9)
1969-12-31 18:00:12.565558926,(-1 -9 -9 -8 -4 -3 -3 -1)
1969-12-31 18:00:12.591229872,(1 2 -3 3 1 1 0 1)
1969-12-31 18:00:12.591229872,(0 -8 -4 -1 -1 1 2 2)
1969-12-31 18:00:12.592396733,(3 11 4 0 0 1 1 3)
1969-12-31 18:00:12.592396733,(-3 -7 -3 -2 0 -2 -3 -3)
1969-12-31 18:00:12.607565928,(-1 -3 1 -1 0 1 -1 -1)
1969-12-31 18:00:12.608732789,(-1 5 0 0 -1 -1 -2 -2)
1969-12-31 18:00:12.608732789,(1 6 -2 -3 -2 -2 -1 0)
1969-12-31 18:00:12.608732789,(-3 -6 -3 0 -1 0 2 0)
1969-12-31 18:00:12.634403734,(1 6 4 -1 -1 -1 1 1)
1969-12-31 18:00:12.634403734,(-1 3 2 1 2 1 -2 -2)
1969-12-31 18:00:12.635570595,(2 10 7 4 0 1 2 2)
1969-12-31 18:00:12.635570595,(-2 -5 -2 -1 -2 -1 -2 -3)
1969-12-31 18:00:12.661241540,(0 -1 -2 -5 -3 -2 -1 0)
1969-12-31 18:00:12.661241540,(-3 -6 0 -4 -3 -1 0 -2)
1969-12-31 18:00:12.662408401,(1 3 1 2 0 0 -1 0)
1969-12-31 18:00:12.662408401,(-1 1 2 -2 -2 -3 -4 -3)
1969-12-31 18:00:12.678744457,(-2 -3 -4 -1 -2 -2 -2 -1)
1969-12-31 18:00:12.678744457,(-1 -5 -6 -4 -2 1 -1 -2)
1969-12-31 18:00:12.679911319,(2 0 -4 -6 -3 -2 -2 -2)
1969-12-31 18:00:12.679911319,(2 5 2 3 3 2 1 0)
1969-12-31 18:00:12.724252041,(-2 1 4 0 -1 -2 -1 -1)
1969-12-31 18:00:12.724252041,(-1 -5 -8 0 -1 0 0 -1)
1969-12-31 18:00:12.725418903,(-1 -1 0 1 0 -1 -2 -1)
1969-12-31 18:00:12.725418903,(-2 1 -5 -4 0 -2 -1 -1)
1969-12-31 18:00:12.731253209,(0 -8 -3 0 0 0 -1 0)
1969-12-31 18:00:12.731253209,(-2 -5 -10 -5 -2 -1 -3 0)
1969-12-31 18:00:12.732420070,(-1 -4 0 -4 -2 -2 -1 0)
1969-12-31 18:00:12.732420070,(-1 -3 1 6 1 1 0 -2)
1969-12-31 18:00:12.748756126,(2 3 3 2 1 2 0 2)
1969-12-31 18:00:12.748756126,(-5 -6 -14 -28 -9 -5 -3 -4)
1969-12-31 18:00:12.748756126,(-2 -5 -6 -1 -5 -2 -3 0)
1969-12-31 18:00:12.748756126,(0 -3 2 13 4 0 -1 1)
1969-12-31 18:00:12.774427071,(6 15 15 14 8 4 4 4)
1969-12-31 18:00:12.774427071,(0 0 4 3 0 0 0 1)
1969-12-31 18:00:12.775593932,(0 2 3 -1 0 -2 0 -1)
1969-12-31 18:00:12.775593932,(-2 -3 -7 -5 -6 -2 -1 -2)
1969-12-31 18:00:12.801264877,(-1 -5 -5 -1 0 1 0 0)
1969-12-31 18:00:12.801264877,(-3 -2 -3 -1 -2 -1 0 -2)
1969-12-31 18:00:12.802431739,(-1 -4 -8 -8 -1 -1 1 1)
1969-12-31 18:00:12.802431739,(0 1 1 -4 -3 -2 -2 -1)
1969-12-31 18:00:12.818767795,(-6 -11 -8 -6 -2 -4 -1 -4)
1969-12-31 18:00:12.818767795,(1 0 12 5 -1 -2 -2 -1)
1969-12-31 18:00:12.818767795,(1 11 6 4 3 1 0 1)
1969-12-31 18:00:12.818767795,(-3 -4 -4 -2 -3 -2 -1 -2)
1969-12-31 18:00:12.844438740,(-1 -2 -10 -8 -2 -1 -1 -1)
1969-12-31 18:00:12.844438740,(0 1 4 8 2 0 0 0)
1969-12-31 18:00:12.845605601,(2 -6 5 8 2 0 -1 -1)
1969-12-31 18:00:12.845605601,(-4 -2 -5 -4 -2 0 0 0)
1969-12-31 18:00:12.881778296,(2 11 10 1 -2 0 -1 -1)
1969-12-31 18:00:12.881778296,(1 2 -4 -1 -2 0 1 0)
1969-12-31 18:00:12.882945158,(0 -1 1 2 1 -1 0 0)
1969-12-31 18:00:12.882945158,(-2 -3 -3 -1 0 -3 -2 -1)
1969-12-31 18:00:12.898114352,(-5 -7 -8 2 -3 -2 -3 -1)
1969-12-31 18:00:12.898114352,(-1 -4 5 9 6 1 1 -1)
1969-12-31 18:00:12.898114352,(-1 5 8 6 -1 0 -1 0)
1969-12-31 18:00:12.899281214,(-3 -10 -9 -18 -6 -2 -4 -3)
1969-12-31 18:00:12.914450408,(-3 -2 -10 -5 -6 -3 -3 -5)
1969-12-31 18:00:12.914450408,(2 8 7 1 1 0 0 0)
1969-12-31 18:00:12.915617270,(-2 -7 -7 -2 -1 -1 2 0)
1969-12-31 18:00:12.915617270,(3 7 12 6 3 2 1 1)
1969-12-31 18:00:12.941288215,(-2 -8 -7 -6 -1 -2 -3 0)
1969-12-31 18:00:12.941288215,(-3 -5 -9 -5 -2 -3 -3 -1)
1969-12-31 18:00:12.942455076,(-1 -2 -2 -3 -1 -1 -1 -3)
1969-12-31 18:00:12.942455076,(-2 -4 -3 -4 -2 -1 -1 -1)
1969-12-31 18:00:12.942455076,(-2 -4 -5 0 -2 0 -1 0)
1969-12-31 18:00:12.942455076,(-3 -4 -17 -15 -6 -3 -2 -3)
1969-12-31 18:00:12.952956826,(-2 -2 -2 -20 -5 -1 -3 -2)
1969-12-31 18:00:12.952956826,(-1 1 4 10 0 0 -1 -1)
1969-12-31 18:00:12.970459743,(6 12 39 35 10 4 2 2)
1969-12-31 18:00:12.970459743,(0 2 -3 4 5 2 2 1)
1969-12-31 18:00:12.971626604,(-2 -6 -1 -13 -5 -2 -2 0)
1969-12-31 18:00:12.971626604,(-13 -26 -76 -66 -20 -8 -6 -8)
1969-12-31 18:00:12.997297550,(0 6 26 1 1 -3 -3 -2)
1969-12-31 18:00:12.997297550,(11 22 57 79 26 7 5 6)
1969-12-31 18:00:12.998464411,(2 8 9 10 7 4 3 4)
1969-12-31 18:00:12.998464411,(-4 -9 -17 -18 -5 -3 -3 -4)
1969-12-31 18:00:13.011299883,(-8 -18 -49 -45 -10 -7 -5 -7)
1969-12-31 18:00:13.012466744,(-4 -10 4 6 -9 -5 -5 -4)
1969-12-31 18:00:13.031136523,(3 9 -15 22 7 1 2 1)
1969-12-31 18:00:13.031136523,(0 6 45 36 7 0 2 -1)
1969-12-31 18:00:13.039304551,(7 12 9 15 6 4 6 8)
1969-12-31 18:00:13.039304551,(-1 5 13 -8 0 -1 -2 -4)
1969-12-31 18:00:13.047472579,(-5 -4 -6 -27 -7 -4 -5 -7)
1969-12-31 18:00:13.047472579,(-5 -7 -32 6 1 -2 -2 2)
1969-12-31 18:00:13.066142357,(-3 -11 -7 -21 -5 -2 0 0)
1969-12-31 18:00:13.066142357,(-8 -14 -25 -9 -8 -6 -3 -4)
1969-12-31 18:00:13.068476079,(-3 -5 -10 -23 -9 -7 -2 0)
1969-12-31 18:00:13.068476079,(-3 2 -1 -29 -2 -1 -1 -3)
1969-12-31 18:00:13.082478413,(-4 5 16 52 7 -2 0 -2)
1969-12-31 18:00:13.082478413,(9 17 34 22 11 4 7 14)
1969-12-31 18:00:13.101148191,(3 -2 4 14 7 2 0 1)
1969-12-31 18:00:13.101148191,(12 12 33 47 9 2 2 6)
1969-12-31 18:00:13.109316219,(-8 -19 -42 -53 -10 -1 1 1)
1969-12-31 18:00:13.109316219,(-13 -28 -119 -65 -23 -9 -6 -8)
1969-12-31 18:00:13.117484247,(4 19 96 2 2 -1 1 2)
1969-12-31 18:00:13.117484247,(5 20 61 65 14 9 8 7)
1969-12-31 18:00:13.136154026,(1 -2 0 -6 -4 0 -3 -6)
1969-12-31 18:00:13.136154026,(4 -1 0 18 0 -3 -17 -22)
1969-12-31 18:00:13.138487748,(-15 -20 -50 -5 -6 -1 -12 -23)
1969-12-31 18:00:13.138487748,(2 0 18 -35 -10 -1 -7 -12)
1969-12-31 18:00:13.162991832,(2 7 17 26 0 5 -5 -8)
1969-12-31 18:00:13.162991832,(0 6 7 -17 -2 6 -1 -4)
1969-12-31 18:00:13.164158693,(1 -1 0 -2 -8 1 -3 -4)
1969-12-31 18:00:13.164158693,(-1 -5 -3 0 1 7 1 -1)
1969-12-31 18:00:13.179327888,(-4 -10 -22 -14 -8 0 -7 -8)
1969-12-31 18:00:13.180494749,(0 0 9 -10 -1 4 0 0)
1969-12-31 18:00:13.187495916,(4 4 5 10 1 3 -1 5)
1969-12-31 18:00:13.187495916,(2 6 -7 4 1 -1 5 10)
1969-12-31 18:00:13.206165694,(-3 -7 -4 -4 2 -7 -7 -9)
1969-12-31 18:00:13.206165694,(-4 -6 -7 -10 -2 -8 5 10)
1969-12-31 18:00:13.208499417,(-3 -6 -15 0 1 -8 5 13)
1969-12-31 18:00:13.208499417,(1 -2 -22 -15 -2 -8 2 5)
1969-12-31 18:00:13.233003501,(-1 -1 -13 -5 3 -6 8 14)
1969-12-31 18:00:13.233003501,(-3 4 16 -2 -1 -9 -1 0)
1969-12-31 18:00:13.234170362,(-5 -7 -11 8 3 0 4 3)
1969-12-31 18:00:13.234170362,(-1 -9 -9 -12 -2 -2 -2 -3)
1969-12-31 18:00:13.249339557,(0 5 -5 -5 0 -1 0 -1)
1969-12-31 18:00:13.249339557,(-5 0 12 4 3 4 6 3)
1969-12-31 18:00:13.257507585,(13 14 4 6 4 0 -14 -13)
1969-12-31 18:00:13.257507585,(-10 -17 -13 -11 -8 -4 3 2)
1969-12-31 18:00:13.276177363,(3 19 18 14 3 0 -13 -15)
1969-12-31 18:00:13.276177363,(5 1 9 0 0 3 -9 -11)
1969-12-31 18:00:13.278511085,(-5 4 5 1 -2 6 0 -5)
1969-12-31 18:00:13.278511085,(-3 -15 -5 -4 -5 5 -5 -10)
1969-12-31 18:00:13.301848308,(9 1 2 -3 -7 5 -1 -1)
1969-12-31 18:00:13.301848308,(-6 -3 2 -7 -7 -2 6 10)
1969-12-31 18:00:13.304182030,(1 -3 -12 1 0 -4 11 14)
1969-12-31 18:00:13.304182030,(-3 -8 -14 -4 1 -9 0 3)
1969-12-31 18:00:13.319351225,(7 4 0 -1 4 -8 -1 9)
1969-12-31 18:00:13.319351225,(-20 -10 -8 -4 -3 -3 3 0)
1969-12-31 18:00:13.327519253,(-1 -4 -7 -6 -2 -4 4 5)
1969-12-31 18:00:13.327519253,(11 18 7 1 5 3 -1 0)
1969-12-31 18:00:13.347355893,(-18 -13 1 0 -2 1 -2 -9)
1969-12-31 18:00:13.347355893,(8 1 2 -1 0 -1 -8 -6)
1969-12-31 18:00:13.348522754,(3 -1 -4 1 0 0 -1 0)
1969-12-31 18:00:13.348522754,(10 17 9 3 1 0 -5 -5)
1969-12-31 18:00:13.371859977,(-14 -6 -4 -2 1 -2 6 5)
1969-12-31 18:00:13.371859977,(4 -5 -2 0 -1 -5 -7 -2)
1969-12-31 18:00:13.374193699,(9 4 -2 -3 -1 0 10 14)
1969-12-31 18:00:13.374193699,(-6 -1 -3 1 -2 -6 -6 -9)
1969-12-31 18:00:13.389362894,(-20 -7 -7 -1 -2 -2 5 7)
1969-12-31 18:00:13.389362894,(0 -3 -9 -9 -4 -7 0 1)
1969-12-31 18:00:13.397530922,(-4 -2 -8 -1 1 -6 1 3)
1969-12-31 18:00:13.397530922,(9 2 -9 -5 -4 -13 -2 8)
1969-12-31 18:00:13.416200700,(9 5 -10 -3 1 -10 2 13)
1969-12-31 18:00:13.416200700,(-11 -2 -4 -5 0 -4 7 9)
1969-12-31 18:00:13.418534422,(15 14 12 5 4 13 0 -12)
1969-12-31 18:00:13.418534422,(-5 -4 13 1 -4 12 -11 -20)
1969-12-31 18:00:13.443038506,(4 2 21 3 -5 19 7 -5)
1969-12-31 18:00:13.443038506,(8 6 14 9 -1 0 -23 -32)
1969-12-31 18:00:13.444205368,(24 15 15 8 6 58 -4 -3)
1969-12-31 18:00:13.444205368,(-25 -14 -6 -5 -14 -40 -11 -27)
1969-12-31 18:00:13.459374562,(3 -16 -3 0 -4 15 -7 -2)
1969-12-31 18:00:13.459374562,(-64 -22 -9 -4 -5 -8 -5 11)
1969-12-31 18:00:13.468709452,(-35 -35 -10 -6 -4 -18 -6 -28)
1969-12-31 18:00:13.468709452,(-11 6 6 7 5 12 9 11)
1969-12-31 18:00:13.486212369,(55 28 6 1 2 6 8 12)
1969-12-31 18:00:13.486212369,(-27 -19 -6 -2 -2 -13 2 -4)
1969-12-31 18:00:13.487379230,(-3 4 -4 1 5 25 -1 4)
1969-12-31 18:00:13.488546091,(17 7 -1 0 8 15 -7 10)
1969-12-31 18:00:13.513050175,(1 -7 -5 0 -6 -61 27 18)
1969-12-31 18:00:13.513050175,(-14 -3 -5 -8 -10 2 4 -1)
1969-12-31 18:00:13.515383897,(-4 0 0 1 2 6 12 -35)
1969-12-31 18:00:13.515383897,(1 -1 -1 -1 -4 -14 25 47)
1969-12-31 18:00:13.529386231,(-51 -25 -14 -7 -3 -9 -52 -57)
1969-12-31 18:00:13.529386231,(52 14 -1 -3 1 5 17 38)
1969-12-31 18:00:13.538721120,(-39 -7 -6 -5 -9 -29 -7 -52)
1969-12-31 18:00:13.538721120,(35 18 9 8 12 30 3 23)
1969-12-31 18:00:13.556224037,(-16 3 3 1 3 20 8 -9)
1969-12-31 18:00:13.556224037,(-28 -15 -4 -4 -6 -9 -6 -35)
1969-12-31 18:00:13.558557760,(-1 -1 -7 -6 -6 -38 -29 -2)
1969-12-31 18:00:13.558557760,(15 4 0 -1 -2 31 19 -2)
1969-12-31 18:00:13.583061844,(-12 5 1 0 4 -28 4 10)
1969-12-31 18:00:13.583061844,(26 8 4 5 7 -6 -23 -13)
1969-12-31 18:00:13.584228705,(22 11 10 8 7 33 7 -5)
1969-12-31 18:00:13.584228705,(-52 -15 -11 -11 -9 -17 -4 -34)
1969-12-31 18:00:13.598231039,(40 4 -2 -2 -5 3 27 78)
1969-12-31 18:00:13.598231039,(-8 -4 2 1 12 65 11 1)
1969-12-31 18:00:13.608732789,(22 18 1 -3 -15 -65 -5 43)
1969-12-31 18:00:13.608732789,(-41 -44 -14 -5 1 11 -7 -52)
1969-12-31 18:00:13.626235706,(-22 -10 0 0 -3 21 -8 -31)
1969-12-31 18:00:13.626235706,(40 25 9 3 3 -31 0 18)
1969-12-31 18:00:13.628569428,(-10 -17 -8 -1 4 44 19 11)
1969-12-31 18:00:13.628569428,(20 13 -9 -10 -16 -51 -17 -7)
1969-12-31 18:00:13.651906651,(7 8 7 4 4 28 -13 -2)
1969-12-31 18:00:13.651906651,(16 2 3 1 -5 -8 5 10)
1969-12-31 18:00:13.654240373,(2 6 1 1 1 -6 11 28)
1969-12-31 18:00:13.654240373,(-9 -9 2 3 5 6 -16 13)
1969-12-31 18:00:13.668242707,(-1 -2 -3 -2 -3 -11 -1 -30)
1969-12-31 18:00:13.668242707,(-4 10 -2 -3 -3 12 8 9)
1969-12-31 18:00:13.678744457,(-35 -16 -4 -2 0 -5 -2 -37)
1969-12-31 18:00:13.678744457,(31 8 9 6 4 3 4 68)
1969-12-31 18:00:13.696247375,(16 5 -2 -1 1 9 8 10)
1969-12-31 18:00:13.696247375,(4 -1 4 6 5 17 -23 -11)
1969-12-31 18:00:13.697414236,(-40 -29 -20 -18 -22 -39 -45 -49)
1969-12-31 18:00:13.698581097,(11 7 3 0 -1 4 17 17)
1969-12-31 18:00:13.721918320,(-2 6 4 5 7 11 -15 -10)
1969-12-31 18:00:13.721918320,(38 23 6 0 1 1 22 21)
1969-12-31 18:00:13.724252041,(14 -1 1 2 1 19 8 47)
1969-12-31 18:00:13.724252041,(-8 3 1 1 0 -8 -23 -29)
1969-12-31 18:00:13.738254376,(-18 2 4 1 0 -3 4 9)
1969-12-31 18:00:13.738254376,(2 -12 -5 -1 -4 -20 9 46)
1969-12-31 18:00:13.748756126,(16 4 0 0 0 7 -5 9)
1969-12-31 18:00:13.748756126,(-29 -9 -1 -2 -2 2 -6 -61)
1969-12-31 18:00:13.766259043,(3 -7 3 2 4 5 2 21)
1969-12-31 18:00:13.766259043,(2 -2 -13 -12 -15 -29 3 -40)
1969-12-31 18:00:13.768592765,(18 -1 1 -2 2 -14 -9 15)
1969-12-31 18:00:13.768592765,(10 7 5 5 8 18 -2 -54)
1969-12-31 18:00:13.791929988,(-73 -18 -5 -1 -1 -8 -29 -68)
1969-12-31 18:00:13.791929988,(47 22 7 6 7 0 5 42)
1969-12-31 18:00:13.794263711,(-5 -4 3 4 3 9 32 37)
1969-12-31 18:00:13.794263711,(-8 -14 -8 -4 -6 -7 -12 -13)
1969-12-31 18:00:13.808266044,(19 3 0 1 6 43 12 14)
1969-12-31 18:00:13.808266044,(-25 -11 -4 -3 1 5 -21 -32)
1969-12-31 18:00:13.829269545,(-10 6 1 -1 -7 -51 -1 -14)
1969-12-31 18:00:13.829269545,(19 3 2 -1 -1 -6 4 20)
1969-12-31 18:00:13.837437573,(-15 -15 -8 -5 -5 -13 -5 8)
1969-12-31 18:00:13.837437573,(-4 11 4 2 -5 -11 2 -23)
1969-12-31 18:00:13.838604434,(7 -5 -5 -5 0 12 -19 14)
1969-12-31 18:00:13.838604434,(-1 4 1 -3 -11 -25 -16 -32)
1969-12-31 18:00:13.863108518,(-9 -3 -7 -6 -8 -28 4 -30)
1969-12-31 18:00:13.863108518,(-53 -31 -9 -6 -8 -41 -31 -49)
1969-12-31 18:00:13.864275379,(1 -9 -6 -8 1 64 -21 -19)
1969-12-31 18:00:13.864275379,(19 18 4 1 3 10 15 22)
1969-12-31 18:00:13.878277713,(13 13 3 3 3 4 8 46)
1969-12-31 18:00:13.878277713,(27 20 9 8 9 17 -2 29)
1969-12-31 18:00:13.888779463,(12 -5 -6 -8 -11 -52 2 -15)
1969-12-31 18:00:13.888779463,(-24 -22 -7 -3 -4 -13 12 5)
1969-12-31 18:00:13.906282380,(42 19 6 2 2 -5 -3 33)
1969-12-31 18:00:13.906282380,(-29 -12 -2 -3 -1 10 4 -18)
1969-12-31 18:00:13.908616103,(-4 16 8 6 5 3 11 -22)
1969-12-31 18:00:13.908616103,(1 8 0 -1 -1 2 7 6)
1969-12-31 18:00:13.933120187,(10 2 1 1 4 -16 11 13)
1969-12-31 18:00:13.933120187,(7 -8 -5 -3 2 40 10 -24)
1969-12-31 18:00:13.934287048,(-23 -5 -8 -9 -23 -78 -42 -31)
1969-12-31 18:00:13.934287048,(-6 1 -2 -3 1 43 -16 -12)
1969-12-31 18:00:13.948289382,(1 -9 -7 -7 -5 13 50 53)
1969-12-31 18:00:13.948289382,(47 5 2 5 4 8 30 63)
1969-12-31 18:00:13.965792299,(-10 -1 -2 2 8 27 17 1)
1969-12-31 18:00:13.965792299,(4 4 10 9 8 0 0 -1)
1969-12-31 18:00:13.976294049,(-33 -15 -7 -9 -11 -36 -38 -66)
1969-12-31 18:00:13.976294049,(2 -15 -8 -7 1 34 21 10)
1969-12-31 18:00:13.978627771,(39 18 6 2 -1 11 17 -15)
1969-12-31 18:00:13.978627771,(-44 -21 -15 -9 -9 -19 4 14)
1969-12-31 18:00:14.003131855,(31 15 2 2 3 22 -10 -17)
1969-12-31 18:00:14.003131855,(-9 -7 5 6 3 8 -16 -34)
1969-12-31 18:00:14.004298716,(-4 2 1 2 5 13 0 3)
1969-12-31 18:00:14.004298716,(-5 -11 -5 -1 -4 -15 12 15)
1969-12-31 18:00:14.018301050,(-8 5 5 2 1 18 -2 -49)
1969-12-31 18:00:14.018301050,(-18 -2 -4 -4 10 74 -5 -5)
1969-12-31 18:00:14.028802800,(7 -9 -6 -5 8 -42 15 60)
1969-12-31 18:00:14.028802800,(13 8 0 -5 -30 -4 6 11)
1969-12-31 18:00:14.046305718,(-38 -23 -11 -9 -14 -21 -10 -16)
1969-12-31 18:00:14.046305718,(24 17 8 9 25 -5 -8 17)
1969-12-31 18:00:14.048639440,(0 15 8 18 47 74 28 46)
1969-12-31 18:00:14.048639440,(-17 -12 -10 -15 -76 -85 -30 -56)
1969-12-31 18:00:14.073143524,(26 1 -1 -9 -6 -27 -4 7)
1969-12-31 18:00:14.073143524,(-38 -2 -2 -6 -37 -60 -26 -41)
1969-12-31 18:00:14.074310385,(5 -5 4 2 19 24 13 21)
1969-12-31 18:00:14.075477246,(15 16 7 17 45 32 15 55)
1969-12-31 18:00:14.088312719,(76 32 9 6 2 -8 14 59)
1969-12-31 18:00:14.088312719,(-48 -31 -12 -13 -9 -51 -33 -67)
1969-12-31 18:00:14.098814469,(14 8 7 4 -9 50 55 42)
1969-12-31 18:00:14.098814469,(-30 -16 -11 -8 37 11 -17 -48)
1969-12-31 18:00:14.116317386,(-12 3 2 8 14 29 8 14)
1969-12-31 18:00:14.116317386,(-40 -18 5 23 77 38 12 -22)
1969-12-31 18:00:14.118651109,(0 4 2 13 30 25 -5 -12)
1969-12-31 18:00:14.118651109,(11 7 -7 -33 -90 -58 -23 -8)
1969-12-31 18:00:14.143155193,(4 19 12 -4 -17 -67 -20 2)
1969-12-31 18:00:14.143155193,(15 5 -2 -10 -27 -9 12 25)
1969-12-31 18:00:14.161824971,(-11 0 1 4 72 70 2 -10)
1969-12-31 18:00:14.161824971,(-32 -25 -4 17 43 35 9 -17)
1969-12-31 18:00:14.162991832,(8 -10 -35 -25 -54 -20 -10 -19)
1969-12-31 18:00:14.162991832,(65 39 24 -3 -45 -52 -4 87)
1969-12-31 18:00:14.168826138,(32 2 -20 -6 6 -6 -48 -82)
1969-12-31 18:00:14.168826138,(-7 -23 38 18 14 -12 0 33)
1969-12-31 18:00:14.185162194,(0 -6 2 32 53 64 19 -1)
1969-12-31 18:00:14.185162194,(-36 41 28 -12 -59 -44 -8 -16)
1969-12-31 18:00:14.193330222,(-44 -21 -8 -12 1 -8 -11 -26)
1969-12-31 18:00:14.193330222,(51 19 -28 8 64 81 20 58)
1969-12-31 18:00:14.213166861,(-46 -66 -47 -31 -55 -45 -38 -52)
1969-12-31 18:00:14.213166861,(-65 5 8 0 5 -33 -21 -52)
1969-12-31 18:00:14.214333722,(18 56 44 3 -100 -83 -14 24)
1969-12-31 18:00:14.214333722,(-12 -38 -56 -26 -12 -10 -6 -44)
1969-12-31 18:00:14.228336056,(-5 -38 -22 0 44 51 9 25)
1969-12-31 18:00:14.228336056,(-1 37 26 23 43 38 12 -6)
1969-12-31 18:00:14.238837806,(-56 -11 32 3 -17 -27 -13 -52)
1969-12-31 18:00:14.238837806,(35 7 22 21 37 27 14 57)
1969-12-31 18:00:14.256340723,(-6 24 5 -4 40 57 -23 -43)
1969-12-31 18:00:14.256340723,(22 -32 -37 -15 -56 -68 12 5)
1969-12-31 18:00:14.263341890,(13 47 11 -3 -14 -11 -2 -7)
1969-12-31 18:00:14.263341890,(64 -38 21 7 -45 -33 -14 40)
1969-12-31 18:00:14.282011669,(-33 -25 -37 -21 43 49 4 -44)
1969-12-31 18:00:14.282011669,(17 53 71 21 6 7 19 53)
1969-12-31 18:00:14.284345391,(24 -11 -73 -16 -52 -31 -8 34)
1969-12-31 18:00:14.284345391,(-17 -5 11 6 42 35 7 -19)
1969-12-31 18:00:14.308849475,(21 19 37 17 -9 -49 -12 -34)
1969-12-31 18:00:14.308849475,(14 14 21 0 -49 12 3 11)
1969-12-31 18:00:14.319351225,(22 44 28 7 14 -6 28 62)
1969-12-31 18:00:14.319351225,(-4 6 -30 -14 4 24 6 -3)
1969-12-31 18:00:14.326352392,(21 26 86 46 27 5 13 9)
1969-12-31 18:00:14.326352392,(86 -47 -128 -42 26 6 -4 41)
1969-12-31 18:00:14.333353559,(-114 -81 52 -4 -55 -59 -69 -123)
1969-12-31 18:00:14.333353559,(26 69 -2 11 4 8 15 16)
1969-12-31 18:00:14.353190198,(-23 -7 -30 -19 -10 10 33 11)
1969-12-31 18:00:14.353190198,(-32 12 56 38 74 77 9 -10)
1969-12-31 18:00:14.354357060,(16 -104 -117 -57 -32 -44 -28 -16)
1969-12-31 18:00:14.354357060,(-75 18 65 23 -19 -49 -37 -51)
1969-12-31 18:00:14.378861144,(68 41 -29 -6 -76 -43 27 75)
1969-12-31 18:00:14.378861144,(-80 -41 -12 -6 34 30 2 -69)
1969-12-31 18:00:14.381194866,(4 18 17 10 40 42 11 -3)
1969-12-31 18:00:14.381194866,(6 -13 -34 -11 27 0 -12 34)
1969-12-31 18:00:14.395197200,(-31 16 43 -3 -69 -49 -40 -54)
1969-12-31 18:00:14.395197200,(51 26 -23 5 0 4 25 40)
1969-12-31 18:00:14.405698950,(-18 -87 -65 -22 21 22 -6 -27)
1969-12-31 18:00:14.405698950,(37 124 91 30 12 6 38 85)
1969-12-31 18:00:14.423201867,(6 -3 25 15 15 -7 -29 -13)
1969-12-31 18:00:14.423201867,(35 -47 -38 -9 -15 -11 -1 54)
1969-12-31 18:00:14.424368728,(-12 -29 -5 -11 -10 -22 -11 21)
1969-12-31 18:00:14.424368728,(-22 -73 -76 -29 39 55 29 -20)
1969-12-31 18:00:14.448872812,(-26 -89 -41 -12 12 10 24 -2)
1969-12-31 18:00:14.448872812,(-27 51 19 -13 -99 -72 -16 17)
1969-12-31 18:00:14.451206534,(39 83 36 25 39 37 1 -17)
1969-12-31 18:00:14.451206534,(-8 -32 -10 -14 -32 -55 -18 -8)
1969-12-31 18:00:14.465208867,(15 34 38 -3 -29 -13 -8 -21)
1969-12-31 18:00:14.465208867,(-13 -128 -126 -39 39 18 -10 -23)
1969-12-31 18:00:14.473376896,(5 106 81 49 7 11 30 44)
1969-12-31 18:00:14.473376896,(94 118 105 44 34 25 -12 -8)
1969-12-31 18:00:14.501381564,(2 31 48 35 27 16 15 14)
1969-12-31 18:00:14.501381564,(38 -32 -20 -10 7 13 15 -4)
1969-12-31 18:00:14.503715286,(2 -45 -49 -17 -36 -36 -21 19)
1969-12-31 18:00:14.503715286,(-2 -36 -28 -7 23 33 14 11)
1969-12-31 18:00:14.518884481,(64 -37 -77 -38 -48 -61 -49 57)
1969-12-31 18:00:14.518884481,(-72 109 127 64 26 32 1 -59)
1969-12-31 18:00:14.521218203,(-6 29 19 5 -19 -17 -5 15)
1969-12-31 18:00:14.521218203,(-2 -9 -15 15 53 16 43 9)
1969-12-31 18:00:14.535220537,(-23 -73 -77 -36 -30 -34 -43 -3)
1969-12-31 18:00:14.535220537,(14 -126 -128 -70 -54 -10 25 67)
1969-12-31 18:00:14.545722287,(10 87 61 14 2 16 16 12)
1969-12-31 18:00:14.545722287,(-5 58 38 10 -31 -25 -3 -10)
1969-12-31 18:00:14.571393232,(-21 57 35 19 58 37 26 12)
1969-12-31 18:00:14.571393232,(26 -78 -46 41 123 92 9 15)
1969-12-31 18:00:14.573726954,(19 57 76 16 -93 -89 -4 12)
1969-12-31 18:00:14.573726954,(-86 -89 -85 -39 -52 -19 -58 -83)
1969-12-31 18:00:14.588896149,(10 3 -13 3 30 27 44 68)
1969-12-31 18:00:14.588896149,(4 14 24 -6 9 -3 6 -16)
1969-12-31 18:00:14.591229872,(15 -87 -95 -15 53 44 2 6)
1969-12-31 18:00:14.591229872,(-32 -29 6 15 46 56 23 -12)
1969-12-31 18:00:14.605232205,(-23 15 -6 -22 -75 -88 -63 -76)
1969-12-31 18:00:14.605232205,(-51 3 18 2 -17 -3 -12 -13)
1969-12-31 18:00:14.615733956,(-24 -8 -23 -16 -28 -43 -19 -39)
1969-12-31 18:00:14.615733956,(15 -10 3 -21 -48 -25 6 45)
1969-12-31 18:00:14.633236873,(-43 -67 -31 -10 73 73 27 -21)
1969-12-31 18:00:14.633236873,(65 66 -50 -29 -61 -21 15 36)
1969-12-31 18:00:14.634403734,(-11 82 90 57 41 11 16 14)
1969-12-31 18:00:14.634403734,(93 53 54 47 7 -4 -15 34)
1969-12-31 18:00:14.658907818,(-38 -63 -54 -15 29 50 53 40)
1969-12-31 18:00:14.658907818,(-46 63 112 25 -14 -32 -15 -65)
1969-12-31 18:00:14.661241540,(28 -8 -13 9 43 60 50 53)
1969-12-31 18:00:14.661241540,(25 -39 -74 -20 -8 -3 -14 -25)
1969-12-31 18:00:14.675243874,(-3 -32 20 6 -59 -38 -5 3)
1969-12-31 18:00:14.675243874,(42 12 -14 -3 23 1 -35 -42)
1969-12-31 18:00:14.693913652,(-14 -82 -68 -44 -24 -50 -11 -28)
1969-12-31 18:00:14.693913652,(-23 -14 -19 -31 -34 -11 15 -6)
1969-12-31 18:00:14.703248541,(-12 -36 -50 -32 -40 -12 -2 -11)
1969-12-31 18:00:14.703248541,(9 34 37 21 29 20 -8 3)
1969-12-31 18:00:14.704415403,(13 17 1 7 9 7 10 10)
1969-12-31 18:00:14.704415403,(-10 2 16 16 24 14 31 7)
1969-12-31 18:00:14.728919487,(55 63 -2 4 35 8 -57 44)
1969-12-31 18:00:14.728919487,(-15 -28 15 3 -28 -48 -8 2)
1969-12-31 18:00:14.731253209,(-64 -51 -58 -23 -15 11 -27 -46)
1969-12-31 18:00:14.731253209,(9 5 10 -11 -9 -9 11 -3)
1969-12-31 18:00:14.746422403,(10 73 74 43 19 -2 38 35)
1969-12-31 18:00:14.746422403,(39 30 -19 10 7 -19 -61 -30)
1969-12-31 18:00:14.755757293,(-38 -80 -34 -30 -37 11 5 9)
1969-12-31 18:00:14.755757293,(20 78 83 32 -7 -7 6 26)
1969-12-31 18:00:14.773260210,(-27 -62 -43 -21 0 -5 -6 -66)
1969-12-31 18:00:14.773260210,(-4 -48 -70 -33 10 1 -8 33)
1969-12-31 18:00:14.774427071,(20 57 59 61 91 48 7 27)
1969-12-31 18:00:14.774427071,(-2 -113 -83 -67 -98 -59 -7 7)
1969-12-31 18:00:14.797764294,(5 127 127 50 16 -20 -20 -20)
1969-12-31 18:00:14.797764294,(36 -103 -84 -18 -35 -10 40 32)
1969-12-31 18:00:14.817600933,(9 57 56 3 23 27 -2 -5)
1969-12-31 18:00:14.817600933,(-28 -21 -30 -8 27 36 17 -12)
1969-12-31 18:00:14.825768961,(65 12 -54 -5 5 8 19 5)
1969-12-31 18:00:14.825768961,(-97 -13 60 -9 -49 -40 -28 -52)
1969-12-31 18:00:14.826935823,(-36 -30 -2 4 -7 -5 -34 -58)
1969-12-31 18:00:14.826935823,(28 -6 -30 2 56 29 -3 -7)
1969-12-31 18:00:14.843271879,(-43 -22 -11 -11 -6 40 29 5)
1969-12-31 18:00:14.843271879,(3 -69 -78 -48 -68 -56 6 24)
1969-12-31 18:00:14.844438740,(57 78 75 22 5 -15 -6 7)
1969-12-31 18:00:14.844438740,(-41 -21 -29 -9 -22 -10 3 30)
1969-12-31 18:00:14.868942824,(-12 -50 -37 -16 26 12 -11 -32)
1969-12-31 18:00:14.868942824,(0 81 18 4 -4 13 5 15)
1969-12-31 18:00:14.871276546,(28 -27 -21 1 29 30 25 45)
1969-12-31 18:00:14.871276546,(47 -45 -92 -30 -57 -40 -13 11)
1969-12-31 18:00:14.885278880,(-12 42 70 37 -16 1 7 4)
1969-12-31 18:00:14.885278880,(25 -5 -12 10 33 12 9 12)
1969-12-31 18:00:14.902781797,(-74 8 42 13 -8 -11 -17 -41)
1969-12-31 18:00:14.902781797,(17 48 11 13 26 14 -3 12)
1969-12-31 18:00:14.913283547,(0 -34 -39 -1 35 17 39 42)
1969-12-31 18:00:14.913283547,(-12 -15 -8 -28 -54 -43 -72 -70)
1969-12-31 18:00:14.914450408,(3 -41 -6 9 38 45 29 42)
1969-12-31 18:00:14.914450408,(8 0 -1 -8 -46 -54 -31 -35)
1969-12-31 18:00:14.938954492,(3 13 32 24 30 12 2 31)
1969-12-31 18:00:14.938954492,(1 7 16 9 -23 -4 22 4)
1969-12-31 18:00:14.945955659,(75 6 -63 -49 -38 -17 4 33)
1969-12-31 18:00:14.945955659,(-62 0 20 4 6 7 -35 -55)
1969-12-31 18:00:14.955290548,(43 45 31 13 15 -19 -1 16)
1969-12-31 18:00:14.955290548,(-34 -54 -41 -8 21 22 10 -57)
1969-12-31 18:00:14.973960327,(-33 -28 -9 6 24 -2 5 -14)
1969-12-31 18:00:14.973960327,(-5 30 -13 -5 -32 -13 23 13)
1969-12-31 18:00:14.983295216,(-13 -8 -8 1 20 13 -71 -39)
1969-12-31 18:00:14.983295216,(-60 30 72 18 -13 -8 4 -5)
1969-12-31 18:00:14.984462077,(28 -17 -67 -20 -20 -1 49 65)
1969-12-31 18:00:14.984462077,(-2 44 94 47 70 29 -53 -33)
1969-12-31 18:00:15.008966161,(57 -15 -28 -8 -33 -2 23 78)
1969-12-31 18:00:15.008966161,(-19 8 7 -18 -16 -33 -22 -36)
1969-12-31 18:00:15.011299883,(-4 -68 -78 -37 -22 -13 -2 -3)
1969-12-31 18:00:15.011299883,(-19 26 38 15 28 39 20 11)
1969-12-31 18:00:15.025302217,(8 1 -17 -10 -30 -28 12 7)
1969-12-31 18:00:15.025302217,(13 49 50 38 68 54 22 31)
1969-12-31 18:00:15.035803967,(21 -26 -24 -6 -9 27 19 1)
1969-12-31 18:00:15.035803967,(5 -17 -57 -35 -17 -39 13 -6)
1969-12-31 18:00:15.053306884,(-71 -8 60 12 -20 -5 -61 -61)
1969-12-31 18:00:15.053306884,(15 -18 -24 -16 -32 -18 33 13)
1969-12-31 18:00:15.054473746,(-16 11 -20 -20 -3 -9 -42 -66)
1969-12-31 18:00:15.054473746,(38 9 -17 7 25 18 18 25)
1969-12-31 18:00:15.078977830,(39 97 95 52 23 22 45 76)
1969-12-31 18:00:15.078977830,(-12 -49 -22 3 11 -5 -20 -24)
1969-12-31 18:00:15.080144691,(-5 17 1 2 0 -6 -29 -18)
1969-12-31 18:00:15.080144691,(-2 -21 -12 -16 -15 2 16 53)
1969-12-31 18:00:15.095313886,(-48 -84 -84 -47 -38 -23 -21 -76)
1969-12-31 18:00:15.095313886,(15 10 12 4 14 2 9 30)
1969-12-31 18:00:15.105815636,(32 12 18 14 6 -6 17 17)
1969-12-31 18:00:15.105815636,(-53 -35 -7 -1 -9 -10 -36 -50)
1969-12-31 18:00:15.123318553,(35 -2 -36 -15 1 15 17 24)
1969-12-31 18:00:15.123318553,(-30 35 59 32 50 45 6 -3)
1969-12-31 18:00:15.125652275,(-60 -58 -31 -35 -75 -69 -36 -56)
1969-12-31 18:00:15.125652275,(5 -11 -25 -7 11 1 24 5)
1969-12-31 18:00:15.148989498,(69 65 34 20 24 19 -6 51)
1969-12-31 18:00:15.148989498,(8 26 12 14 28 22 -20 -45)
1969-12-31 18:00:15.151323221,(-22 -35 -63 -23 -10 -12 -30 -62)
1969-12-31 18:00:15.151323221,(-87 -27 75 21 15 17 -24 -45)
1969-12-31 18:00:15.165325554,(-8 -14 -44 -22 -45 -48 11 -35)
1969-12-31 18:00:15.165325554,(-12 19 5 -18 -37 -21 -20 21)
1969-12-31 18:00:15.175827305,(-7 -4 8 15 51 35 13 11)
1969-12-31 18:00:15.175827305,(22 -15 -27 -18 -47 -19 26 53)
1969-12-31 18:00:15.193330222,(-100 -64 -39 -24 -5 -9 -4 -80)
1969-12-31 18:00:15.193330222,(-2 14 10 14 28 15 10 0)
1969-12-31 18:00:15.194497083,(0 -21 -32 -23 -34 -12 -1 0)
1969-12-31 18:00:15.194497083,(-60 -12 1 -6 1 -8 -10 -41)
1969-12-31 18:00:15.219001167,(57 36 18 6 -6 4 27 85)
1969-12-31 18:00:15.219001167,(10 -5 -31 -16 -29 -48 -15 7)
1969-12-31 18:00:15.221334889,(12 61 64 28 37 17 -4 15)
1969-12-31 18:00:15.221334889,(21 -31 -75 -23 -15 -4 13 -17)
1969-12-31 18:00:15.235337223,(-19 -45 -2 -19 -29 -27 -22 0)
1969-12-31 18:00:15.235337223,(25 73 35 26 36 39 21 25)
1969-12-31 18:00:15.245838973,(0 15 20 14 36 15 2 -43)
1969-12-31 18:00:15.245838973,(65 54 41 27 -30 -4 28 50)
1969-12-31 18:00:15.262175029,(-44 -75 -65 -53 -39 -10 -49 -60)
1969-12-31 18:00:15.262175029,(25 -39 -41 -19 -14 -11 10 39)
1969-12-31 18:00:15.280844807,(-8 -10 10 14 15 0 15 25)
1969-12-31 18:00:15.280844807,(47 33 -18 -12 11 0 -11 4)
1969-12-31 18:00:15.289012835,(-36 50 76 32 19 16 20 -55)
1969-12-31 18:00:15.289012835,(4 -18 9 15 12 -4 -10 -9)
1969-12-31 18:00:15.291346558,(28 14 0 -5 -18 13 9 55)
1969-12-31 18:00:15.291346558,(-69 -128 -77 -40 -24 -25 -20 -62)
1969-12-31 18:00:15.315850642,(50 102 62 20 -13 -25 5 38)
1969-12-31 18:00:15.315850642,(-1 46 34 11 28 24 -5 -11)
1969-12-31 18:00:15.317017503,(21 -13 -4 7 -6 -12 -8 1)
1969-12-31 18:00:15.317017503,(-23 -1 0 6 43 43 25 15)
1969-12-31 18:00:15.333353559,(24 -20 -37 -10 -34 -18 -13 5)
1969-12-31 18:00:15.333353559,(-33 -31 -17 -13 -21 -18 -33 -60)
1969-12-31 18:00:15.334520420,(4 -5 7 -1 -21 -20 -7 -13)
1969-12-31 18:00:15.334520420,(-3 26 19 -9 -23 -20 -18 -2)
1969-12-31 18:00:15.359024504,(8 4 1 23 93 51 17 12)
1969-12-31 18:00:15.359024504,(11 -13 -8 4 10 25 33 33)
1969-12-31 18:00:15.361358226,(-14 -10 -13 -12 -28 -16 4 13)
1969-12-31 18:00:15.361358226,(53 55 41 23 17 10 -10 -1)
1969-12-31 18:00:15.385862310,(-12 -20 -11 -1 9 -2 -16 1)
1969-12-31 18:00:15.385862310,(15 3 -8 -7 -8 9 26 37)
1969-12-31 18:00:15.387029172,(-5 -2 -1 0 4 -17 6 -4)
1969-12-31 18:00:15.388196033,(15 23 24 14 5 8 -3 -11)
1969-12-31 18:00:15.403365228,(-54 -23 -17 -9 -8 -5 -2 -80)
1969-12-31 18:00:15.403365228,(4 -13 -9 0 -5 3 12 22)
1969-12-31 18:00:15.404532089,(16 7 6 1 -1 4 -8 6)
1969-12-31 18:00:15.404532089,(26 29 21 9 -1 -7 -1 25)
1969-12-31 18:00:15.429036173,(-16 -18 -14 -7 -5 2 -5 -11)
1969-12-31 18:00:15.429036173,(-4 -3 -11 -11 0 2 11 3)
1969-12-31 18:00:15.431369895,(-40 -16 0 -1 -1 1 0 -16)
1969-12-31 18:00:15.431369895,(6 15 10 6 -2 -10 -14 1)
1969-12-31 18:00:15.455873979,(-13 -20 -16 -13 -7 -2 -8 -11)
1969-12-31 18:00:15.455873979,(11 -18 -6 -2 1 25 0 0)
1969-12-31 18:00:15.458207701,(2 11 5 5 -3 -27 29 20)
1969-12-31 18:00:15.458207701,(-36 -5 3 0 -4 0 -30 -13)
1969-12-31 18:00:15.472210035,(47 33 10 10 10 23 32 34)
1969-12-31 18:00:15.472210035,(-28 -7 4 7 3 -45 -34 -19)
1969-12-31 18:00:15.480378063,(40 13 -2 -1 3 88 13 9)
1969-12-31 18:00:15.480378063,(-80 -43 -29 -23 -24 -25 -66 -91)
1969-12-31 18:00:15.499047841,(9 7 5 5 3 -3 58 79)
1969-12-31 18:00:15.499047841,(-30 1 -1 -4 -6 -9 -5 -51)
1969-12-31 18:00:15.501381564,(-8 6 5 -1 0 3 1 -9)
1969-12-31 18:00:15.501381564,(-62 -21 -4 -5 0 3 -13 -14)
1969-12-31 18:00:15.525885648,(-49 -43 -17 -3 0 -16 5 -12)
1969-12-31 18:00:15.525885648,(17 8 -1 -1 2 29 -11 28)
1969-12-31 18:00:15.527052509,(51 26 12 9 6 7 7 72)
1969-12-31 18:00:15.527052509,(60 37 25 17 9 3 30 37)
1969-12-31 18:00:15.542221704,(-16 -19 -24 -21 -18 -29 -32 -65)
1969-12-31 18:00:15.542221704,(-25 -14 -15 -8 -4 -9 1 7)
1969-12-31 18:00:15.550389732,(-69 -26 8 5 3 9 -14 -53)
1969-12-31 18:00:15.550389732,(39 12 7 5 -2 -41 19 25)
1969-12-31 18:00:15.569059510,(-39 -25 -6 -11 -4 1 -39 -58)
1969-12-31 18:00:15.569059510,(80 32 -11 -4 5 3 20 38)
1969-12-31 18:00:15.571393232,(-84 -30 -13 -16 -15 -22 -23 -29)
1969-12-31 18:00:15.571393232,(63 33 26 18 9 8 7 17)
1969-12-31 18:00:15.595897316,(2 -6 -2 7 9 22 13 7)
1969-12-31 18:00:15.595897316,(-3 -5 5 -18 -7 -11 2 -11)
1969-12-31 18:00:15.598231039,(77 3 -89 -52 -20 -21 -7 14)
1969-12-31 18:00:15.598231039,(-128 -56 7 -7 -2 -1 -17 -67)
1969-12-31 18:00:15.612233372,(52 24 52 68 14 1 1 30)
1969-12-31 18:00:15.612233372,(20 31 6 22 18 18 13 39)
1969-12-31 18:00:15.620401400,(39 36 112 74 12 -8 -8 -2)
1969-12-31 18:00:15.620401400,(28 8 -25 -2 4 4 9 21)
1969-12-31 18:00:15.639071179,(-9 -8 -21 -24 -6 12 1 6)
1969-12-31 18:00:15.639071179,(-13 -11 0 -5 -11 -13 -10 -33)
1969-12-31 18:00:15.641404901,(-14 -22 -74 -52 -13 -10 -5 5)
1969-12-31 18:00:15.641404901,(20 4 2 -11 -9 -4 -1 -20)
1969-12-31 18:00:15.665908985,(-11 -16 1 -8 0 4 -1 5)
1969-12-31 18:00:15.665908985,(-8 -9 -14 -8 -1 3 5 4)
1969-12-31 18:00:15.667075846,(11 9 11 7 4 -7 -1 1)
1969-12-31 18:00:15.667075846,(0 -12 -26 -10 -2 7 3 13)
1969-12-31 18:00:15.681078180,(35 37 21 6 3 2 -5 12)
1969-12-31 18:00:15.681078180,(-2 -2 19 10 -5 -6 -2 -17)
1969-12-31 18:00:15.691579930,(-5 -11 -11 -12 -5 -5 -3 -15)
1969-12-31 18:00:15.691579930,(-21 -14 -5 -2 -6 -7 -6 -4)
1969-12-31 18:00:15.709082847,(-5 5 -16 -9 1 3 -3 -4)
1969-12-31 18:00:15.709082847,(6 -24 1 6 -1 -2 1 3)
1969-12-31 18:00:15.711416569,(4 25 26 21 7 1 4 4)
1969-12-31 18:00:15.711416569,(8 -6 -16 -11 -2 1 2 4)
1969-12-31 18:00:15.734753792,(-1 15 13 1 2 0 3 7)
1969-12-31 18:00:15.734753792,(3 -24 -21 -17 -6 -1 -3 -1)
1969-12-31 18:00:15.737087514,(-10 -17 -31 -15 -6 -4 4 -3)
1969-12-31 18:00:15.737087514,(1 75 92 47 19 10 -4 4)
1969-12-31 18:00:15.751089848,(5 -35 -20 -2 -4 -1 -1 -5)
1969-12-31 18:00:15.751089848,(-20 -8 -39 -28 -14 -13 -16 -13)
1969-12-31 18:00:15.762758460,(-12 14 57 31 7 0 -3 -10)
1969-12-31 18:00:15.762758460,(10 -23 -30 -8 2 10 18 16)
1969-12-31 18:00:15.779094516,(5 8 1 -5 -3 -2 -3 2)
1969-12-31 18:00:15.779094516,(0 -10 -19 -7 -4 -2 -2 -4)
1969-12-31 18:00:15.781428238,(-10 -17 -13 -11 -3 -9 -13 -4)
1969-12-31 18:00:15.781428238,(6 58 74 24 8 4 -1 -4)
1969-12-31 18:00:15.804765461,(4 -2 -21 -8 1 6 13 10)
1969-12-31 18:00:15.805932322,(-9 -4 7 3 -2 -4 -4 -6)
1969-12-31 18:00:15.807099183,(2 -13 -13 -1 -2 -2 -8 -8)
1969-12-31 18:00:15.807099183,(-1 -19 -24 -8 -4 -3 7 0)
1969-12-31 18:00:15.821101517,(-5 -18 -18 -15 -4 -1 -7 -2)
1969-12-31 18:00:15.821101517,(0 14 15 7 3 -1 0 5)
1969-12-31 18:00:15.831603267,(-3 23 32 13 2 8 16 1)
1969-12-31 18:00:15.831603267,(1 -21 -43 -24 -15 -14 -21 -10)
1969-12-31 18:00:15.849106184,(5 1 -16 -16 -7 -7 -8 -6)
1969-12-31 18:00:15.849106184,(-7 2 22 22 10 5 -5 -6)
1969-12-31 18:00:15.851439907,(-6 -31 -31 -6 -5 -3 5 1)
1969-12-31 18:00:15.851439907,(3 -20 -41 -24 -4 2 3 4)
1969-12-31 18:00:15.874777130,(-7 37 37 12 -1 -3 -5 -9)
1969-12-31 18:00:15.874777130,(-1 8 14 10 7 7 9 3)
1969-12-31 18:00:15.877110852,(-4 -13 -17 -12 -3 -1 -13 -7)
1969-12-31 18:00:15.877110852,(-1 -27 -17 -5 -9 -7 1 0)
1969-12-31 18:00:15.891113186,(2 -1 3 3 5 2 -7 1)
1969-12-31 18:00:15.891113186,(1 -23 -30 -12 -2 4 4 -2)
1969-12-31 18:00:15.901614936,(-1 38 36 12 2 -1 -5 -3)
1969-12-31 18:00:15.901614936,(0 -10 -12 -20 -8 1 -5 -2)
1969-12-31 18:00:15.919117853,(3 12 37 27 9 8 3 0)
1969-12-31 18:00:15.919117853,(4 -17 -19 -6 -2 2 -3 2)
1969-12-31 18:00:15.921451575,(-11 -6 12 5 4 -7 1 1)
1969-12-31 18:00:15.921451575,(-6 -1 -5 0 -2 -10 0 1)
1969-12-31 18:00:15.944788798,(-2 -19 -24 -16 -3 -15 0 9)
1969-12-31 18:00:15.945955659,(-7 5 -6 -10 -2 -13 4 5)
1969-12-31 18:00:15.947122520,(5 4 -6 -1 0 -7 1 10)
1969-12-31 18:00:15.947122520,(2 16 39 19 9 -3 1 1)
1969-12-31 18:00:15.961124854,(-3 13 -10 -5 -2 -3 -2 -7)
1969-12-31 18:00:15.961124854,(-4 -23 -35 -34 -11 -5 -5 -5)
1969-12-31 18:00:15.971626604,(11 25 20 13 2 6 0 2)
1969-12-31 18:00:15.971626604,(-4 -1 18 11 -2 2 -4 -8)
1969-12-31 18:00:15.989129522,(4 -7 7 11 3 8 0 -3)
1969-12-31 18:00:15.989129522,(-4 -1 0 1 -2 2 -3 -7)
1969-12-31 18:00:15.991463244,(-12 -6 -9 -15 -7 0 -3 -10)
1969-12-31 18:00:15.991463244,(0 -25 -45 -20 -7 0 -1 1)
1969-12-31 18:00:16.014800467,(7 32 14 6 1 4 -4 -5)
1969-12-31 18:00:16.014800467,(-8 9 25 19 1 5 -1 -6)
1969-12-31 18:00:16.017134189,(1 -16 -10 -5 0 6 1 -3)
1969-12-31 18:00:16.017134189,(-3 -50 -19 -10 -3 -1 -4 1)
1969-12-31 18:00:16.040471412,(-4 -3 -16 -11 -4 -2 -1 -1)
1969-12-31 18:00:16.040471412,(1 16 10 2 3 0 7 8)
1969-12-31 18:00:16.041638273,(8 19 6 12 4 -4 1 3)
1969-12-31 18:00:16.041638273,(-1 13 5 8 5 -2 3 6)
1969-12-31 18:00:16.057974329,(-3 -20 -13 -9 -2 -6 0 3)
1969-12-31 18:00:16.057974329,(2 15 9 4 0 -3 0 1)
1969-12-31 18:00:16.059141190,(-3 -18 -13 -17 -3 -2 -2 0)
1969-12-31 18:00:16.059141190,(-4 10 -3 -3 -2 -1 -3 -3)
1969-12-31 18:00:16.084812135,(-4 -13 2 2 -1 -1 -1 -2)
1969-12-31 18:00:16.084812135,(0 10 10 7 1 2 -1 -4)
1969-12-31 18:00:16.085978996,(-2 -11 -9 -10 -4 -1 -1 -3)
1969-12-31 18:00:16.085978996,(-1 10 12 5 1 0 -2 -4)
1969-12-31 18:00:16.112816803,(-4 -7 -13 -8 -3 0 0 -1)
1969-12-31 18:00:16.112816803,(1 3 11 5 2 -3 0 0)
1969-12-31 18:00:16.113983664,(4 5 3 0 2 -2 1 0)
1969-12-31 18:00:16.113983664,(-2 1 0 1 -2 -2 1 -2)
1969-12-31 18:00:16.127985998,(-4 -14 -16 -14 -6 -4 -1 -1)
1969-12-31 18:00:16.127985998,(3 10 2 5 -2 -3 -2 -1)
1969-12-31 18:00:16.129152859,(-3 -10 10 12 5 1 2 3)
1969-12-31 18:00:16.129152859,(2 8 6 7 3 2 -2 1)
1969-12-31 18:00:16.154823804,(-3 4 5 -4 -5 -1 0 -1)
1969-12-31 18:00:16.154823804,(7 1 -3 -2 -1 -1 -4 -2)
1969-12-31 18:00:16.155990665,(0 -9 -16 -7 -2 -3 -1 -1)
1969-12-31 18:00:16.155990665,(-4 2 -7 -7 -4 -4 0 1)
1969-12-31 18:00:16.182828471,(0 4 3 1 0 -3 -1 0)
1969-12-31 18:00:16.182828471,(-4 -4 1 0 2 -2 2 4)
1969-12-31 18:00:16.183995333,(-7 -14 -9 -2 0 -2 0 -1)
1969-12-31 18:00:16.183995333,(5 0 -5 -7 -2 -1 -2 -3)
1969-12-31 18:00:16.183995333,(1 -1 0 1 1 0 -1 0)
1969-12-31 18:00:16.183995333,(-3 -2 -3 -2 -2 -1 -3 -2)
1969-12-31 18:00:16.190996499,(0 0 1 1 1 0 1 0)
1969-12-31 18:00:16.190996499,(-1 -1 -5 -4 -1 1 0 -1)
1969-12-31 18:00:16.208499417,(0 2 3 0 0 0 -1 1)
1969-12-31 18:00:16.208499417,(-2 -5 -6 -4 -4 -2 -3 -2)
1969-12-31 18:00:16.209666278,(-3 -7 -4 -6 -3 -2 1 -1)
1969-12-31 18:00:16.209666278,(3 8 9 8 1 -2 -1 3)
1969-12-31 18:00:16.227169195,(1 2 1 0 -1 0 0 -1)
1969-12-31 18:00:16.227169195,(-1 -2 2 1 0 1 -1 -1)
1969-12-31 18:00:16.234170362,(-1 -3 -7 -6 -5 -1 -1 -2)
1969-12-31 18:00:16.234170362,(-4 -4 -2 -7 -4 1 -1 -1)
1969-12-31 18:00:16.255173862,(-1 0 -5 -4 -5 -9 -2 -4)
1969-12-31 18:00:16.255173862,(-1 1 6 14 8 0 -3 1)
1969-12-31 18:00:16.270343057,(1 2 -4 0 7 18 19 6)
1969-12-31 18:00:16.270343057,(-2 -2 3 3 5 -15 -8 -6)
1969-12-31 18:00:16.279677946,(0 4 8 2 1 0 -5 -1)
1969-12-31 18:00:16.279677946,(-3 -2 -14 -13 -15 -31 -13 -8)
1969-12-31 18:00:16.279677946,(-2 -6 -12 -28 -11 23 0 1)
1969-12-31 18:00:16.279677946,(0 -1 -7 -4 7 8 8 -1)
1969-12-31 18:00:16.298347725,(3 8 37 37 5 -4 6 4)
1969-12-31 18:00:16.298347725,(3 2 0 8 19 22 8 1)
1969-12-31 18:00:16.304182030,(-5 -8 -11 -6 -7 -33 6 -1)
1969-12-31 18:00:16.304182030,(-5 -13 -55 -49 -21 -24 -29 -7)
1969-12-31 18:00:16.324018670,(-4 0 28 8 -2 -3 3 8)
1969-12-31 18:00:16.324018670,(8 8 14 15 2 11 5 2)
1969-12-31 18:00:16.331019837,(-2 1 -2 -3 -7 -5 -8 -1)
1969-12-31 18:00:16.331019837,(-5 -2 -6 -9 -8 0 -1 -8)
1969-12-31 18:00:16.348522754,(1 1 -5 0 6 3 6 7)
1969-12-31 18:00:16.348522754,(-2 4 15 21 3 -3 -16 -22)
1969-12-31 18:00:16.349689615,(5 8 10 21 10 -2 -6 1)
1969-12-31 18:00:16.349689615,(-2 -5 2 -2 -6 3 7 2)
1969-12-31 18:00:16.376527421,(-8 -17 -43 -41 -12 -9 -18 -23)
1969-12-31 18:00:16.376527421,(-4 -5 -23 -28 -11 2 11 12)
1969-12-31 18:00:16.377694282,(1 -3 27 -7 -3 -7 -7 -1)
1969-12-31 18:00:16.377694282,(2 8 17 31 -3 2 -2 -4)
1969-12-31 18:00:16.391696616,(-3 -4 -15 -37 -4 6 1 -2)
1969-12-31 18:00:16.391696616,(-2 -4 -26 -1 -2 -3 -3 0)
1969-12-31 18:00:16.401031505,(-1 10 52 65 35 15 11 9)
1969-12-31 18:00:16.401031505,(3 9 23 3 -5 4 -6 -14)
1969-12-31 18:00:16.419701284,(-3 -7 -11 7 -6 7 6 3)
1969-12-31 18:00:16.419701284,(6 -1 4 -23 -18 -9 -11 -14)
1969-12-31 18:00:16.426702450,(1 1 -8 -14 -10 2 0 5)
1969-12-31 18:00:16.426702450,(3 1 7 11 8 7 4 0)
1969-12-31 18:00:16.437204201,(-2 -3 -6 -4 -7 -5 -14 -18)
1969-12-31 18:00:16.437204201,(-9 -12 -27 -19 -1 1 -2 -3)
1969-12-31 18:00:16.444205368,(4 9 13 4 -4 -3 -13 -10)
1969-12-31 18:00:16.444205368,(-1 -3 8 7 5 1 -2 -3)
1969-12-31 18:00:16.461708285,(-2 1 -11 0 3 2 0 -3)
1969-12-31 18:00:16.461708285,(-5 -4 12 3 -1 7 13 21)
1969-12-31 18:00:16.471043174,(2 -12 -26 -40 -20 -15 -12 -10)
1969-12-31 18:00:16.471043174,(1 3 -3 12 9 4 9 11)
1969-12-31 18:00:16.488546091,(-1 2 10 21 11 5 5 7)
1969-12-31 18:00:16.488546091,(2 0 6 14 9 -2 9 18)
1969-12-31 18:00:16.496714119,(-9 -5 -20 -4 7 -13 -5 -8)
1969-12-31 18:00:16.496714119,(-4 -7 -14 -26 -2 -8 12 20)
1969-12-31 18:00:16.507215869,(5 1 -6 1 1 -9 1 8)
1969-12-31 18:00:16.507215869,(-1 5 7 14 3 -8 -6 -7)
1969-12-31 18:00:16.514217036,(-1 1 -17 -4 0 -6 2 4)
1969-12-31 18:00:16.514217036,(-5 -3 -2 1 1 -2 5 9)
1969-12-31 18:00:16.531719953,(-1 -1 0 -3 2 0 5 4)
1969-12-31 18:00:16.531719953,(-1 -1 2 -9 -3 -4 -1 -4)
1969-12-31 18:00:16.541054842,(2 3 3 3 -1 0 -11 -19)
1969-12-31 18:00:16.541054842,(0 -1 4 7 3 3 -3 -6)
1969-12-31 18:00:16.558557760,(0 0 -1 -7 -6 0 1 0)
1969-12-31 18:00:16.558557760,(-5 -4 0 -6 -2 -1 -5 -4)
1969-12-31 18:00:16.566725788,(-2 -6 -5 1 -2 0 0 2)
1969-12-31 18:00:16.566725788,(3 -8 -10 -7 -5 -4 -2 0)
1969-12-31 18:00:16.587729288,(-2 -2 4 1 0 -2 -4 -6)
1969-12-31 18:00:16.587729288,(0 13 7 -2 -2 1 2 -1)
1969-12-31 18:00:16.588896149,(-7 -1 7 4 1 10 13 10)
1969-12-31 18:00:16.588896149,(-1 -3 0 1 -5 3 -5 -6)
1969-12-31 18:00:16.601731622,(3 -13 -7 -1 -3 4 -3 -1)
1969-12-31 18:00:16.601731622,(-10 -15 3 0 -4 6 9 1)
1969-12-31 18:00:16.611066511,(0 12 7 1 -4 -1 -6 -4)
1969-12-31 18:00:16.611066511,(19 3 -16 -6 -2 -3 -8 -5)
1969-12-31 18:00:16.628569428,(-16 -5 12 2 0 1 3 2)
1969-12-31 18:00:16.628569428,(17 6 0 -2 -3 1 3 7)
1969-12-31 18:00:16.636737456,(-13 -5 -7 1 0 0 -3 -14)
1969-12-31 18:00:16.636737456,(1 -2 5 0 -3 -2 2 2)
1969-12-31 18:00:16.655407235,(-26 -9 -13 -4 2 -3 -6 -14)
1969-12-31 18:00:16.655407235,(13 -3 -7 -4 0 -8 -8 -3)
1969-12-31 18:00:16.656574096,(9 4 -7 -3 -2 -6 5 15)
1969-12-31 18:00:16.656574096,(7 1 -12 -1 5 -5 1 1)
1969-12-31 18:00:16.671743291,(-20 -4 -6 -5 -2 -7 3 8)
1969-12-31 18:00:16.671743291,(-24 -4 3 0 2 -1 3 3)
1969-12-31 18:00:16.681078180,(4 -6 -1 -4 -2 2 -9 -16)
1969-12-31 18:00:16.681078180,(-8 3 18 4 -3 7 -3 -15)
1969-12-31 18:00:16.698581097,(4 -7 5 -4 -7 8 -1 -2)
1969-12-31 18:00:16.698581097,(6 -2 8 5 0 7 -13 -26)
1969-12-31 18:00:16.706749125,(30 0 -1 1 -3 14 8 28)
1969-12-31 18:00:16.706749125,(-52 -11 4 3 -1 -18 -18 -11)
1969-12-31 18:00:16.727752624,(26 24 7 4 2 37 12 -3)
1969-12-31 18:00:16.727752624,(-7 -8 -10 -7 -10 -12 6 12)
1969-12-31 18:00:16.728919487,(25 15 2 1 0 -7 -9 10)
1969-12-31 18:00:16.728919487,(-43 -24 2 4 0 -18 -9 -10)
1969-12-31 18:00:16.744088680,(36 12 -3 0 1 -1 3 22)
1969-12-31 18:00:16.744088680,(-36 -20 -14 -10 -6 5 -7 -24)
1969-12-31 18:00:16.751089848,(0 10 7 4 5 6 -1 3)
1969-12-31 18:00:16.751089848,(30 29 9 2 10 24 25 21)
1969-12-31 18:00:16.768592765,(-19 -26 -6 2 11 29 4 3)
1969-12-31 18:00:16.768592765,(24 34 13 6 -13 -80 11 14)
1969-12-31 18:00:16.776760793,(5 -24 -4 -3 -2 0 -6 -56)
1969-12-31 18:00:16.776760793,(-51 -32 -20 -11 -9 -12 -10 19)
1969-12-31 18:00:16.795430572,(-5 4 7 2 2 14 16 23)
1969-12-31 18:00:16.795430572,(69 34 5 0 1 4 -14 -15)
1969-12-31 18:00:16.796597433,(-38 -5 1 3 8 21 36 25)
1969-12-31 18:00:16.796597433,(28 20 1 2 -2 6 -5 -37)
1969-12-31 18:00:16.811766628,(-7 -3 6 6 -2 -30 -23 -39)
1969-12-31 18:00:16.811766628,(31 4 -11 -9 -3 19 15 67)
1969-12-31 18:00:16.821101517,(-37 -25 -6 1 -2 -9 -11 -4)
1969-12-31 18:00:16.821101517,(31 7 2 1 8 49 -5 22)
1969-12-31 18:00:16.838604434,(-27 2 3 7 -1 -37 36 45)
1969-12-31 18:00:16.838604434,(-13 -9 -5 -1 -3 -54 -65 -26)
1969-12-31 18:00:16.846772462,(-17 -4 -4 -5 -3 10 -23 -37)
1969-12-31 18:00:16.846772462,(40 17 6 1 -5 -16 17 33)
1969-12-31 18:00:16.865442240,(-28 -15 -12 -11 -10 2 -2 -43)
1969-12-31 18:00:16.865442240,(-16 -2 6 7 12 39 13 -12)
1969-12-31 18:00:16.866609102,(62 15 -5 -3 -2 -6 35 47)
1969-12-31 18:00:16.866609102,(-75 -29 -4 -1 4 25 -16 -48)
1969-12-31 18:00:16.881778296,(35 8 -1 -5 -10 -44 -32 -44)
1969-12-31 18:00:16.881778296,(-42 -13 -9 -6 -2 20 1 -7)
1969-12-31 18:00:16.891113186,(-10 -9 3 3 -9 -49 -31 -77)
1969-12-31 18:00:16.891113186,(-3 13 2 1 5 10 3 8)
1969-12-31 18:00:16.909782964,(35 11 2 3 6 23 11 37)
1969-12-31 18:00:16.909782964,(-32 -30 4 4 2 -28 -9 15)
1969-12-31 18:00:16.916784131,(19 23 5 4 13 53 -14 22)
1969-12-31 18:00:16.916784131,(-21 -3 0 0 -11 -40 -5 0)
1969-12-31 18:00:16.935453909,(-21 -12 -6 -6 -5 -2 4 2)
1969-12-31 18:00:16.935453909,(30 6 3 4 12 34 6 -36)
1969-12-31 18:00:16.936620770,(-33 -16 -10 -7 -3 15 16 4)
1969-12-31 18:00:16.936620770,(11 -6 -5 -11 -16 -9 -25 -17)
1969-12-31 18:00:16.961124854,(-2 5 0 0 4 -1 6 35)
1969-12-31 18:00:16.961124854,(22 10 6 2 4 28 55 74)
1969-12-31 18:00:16.962291715,(27 26 1 -4 -6 -13 -27 -36)
1969-12-31 18:00:16.962291715,(-47 -36 -12 -8 -4 2 2 -47)
1969-12-31 18:00:16.987962660,(-4 -9 -12 -13 -20 -39 -33 -32)
1969-12-31 18:00:16.987962660,(18 10 8 5 8 33 17 42)
1969-12-31 18:00:16.989129522,(-36 -9 -2 1 3 -7 2 -13)
1969-12-31 18:00:16.989129522,(26 16 8 5 0 -10 21 53)
1969-12-31 18:00:17.014800467,(-66 -21 -9 -7 -5 2 -21 -35)
1969-12-31 18:00:17.014800467,(16 9 -1 -4 -12 -50 -16 -8)
1969-12-31 18:00:17.015967328,(12 -10 0 -2 -1 7 11 48)
1969-12-31 18:00:17.015967328,(13 8 5 7 9 -7 30 46)
1969-12-31 18:00:17.032303384,(22 -4 -3 -2 -2 13 5 -12)
1969-12-31 18:00:17.032303384,(-37 -10 -4 -7 -8 0 -25 -56)
1969-12-31 18:00:17.032303384,(-16 5 3 1 2 9 4 28)
1969-12-31 18:00:17.032303384,(38 14 4 1 2 -21 23 26)
1969-12-31 18:00:17.060308051,(17 2 4 0 2 7 -15 3)
1969-12-31 18:00:17.060308051,(-4 -3 1 5 10 20 -47 -82)
1969-12-31 18:00:17.061474912,(18 2 -3 -4 -14 4 19 38)
1969-12-31 18:00:17.061474912,(10 -6 -2 6 17 -2 -4 -16)
1969-12-31 18:00:17.084812135,(46 32 12 6 6 -7 -10 -14)
1969-12-31 18:00:17.084812135,(7 -22 -21 -16 -11 11 1 17)
1969-12-31 18:00:17.085978996,(-4 -11 -1 -3 -7 -34 -9 -16)
1969-12-31 18:00:17.085978996,(-5 15 5 -1 -3 14 -14 -28)
1969-12-31 18:00:17.101148191,(-2 -13 -4 0 0 -13 17 0)
1969-12-31 18:00:17.101148191,(-17 -1 -2 -1 0 5 11 -1)
1969-12-31 18:00:17.102315053,(31 9 8 4 1 -15 14 66)
1969-12-31 18:00:17.102315053,(50 10 -9 -9 -9 -8 -17 -47)
1969-12-31 18:00:17.127985998,(-19 -13 -5 -4 0 -3 -10 -32)
1969-12-31 18:00:17.127985998,(-1 10 8 6 3 0 19 20)
1969-12-31 18:00:17.129152859,(-31 -29 -12 -6 -3 -14 9 -14)
1969-12-31 18:00:17.129152859,(1 4 8 3 2 34 -9 -1)
1969-12-31 18:00:17.154823804,(11 8 2 -2 -5 -5 -18 22)
1969-12-31 18:00:17.154823804,(-49 -15 -3 -4 -10 -21 13 -36)
1969-12-31 18:00:17.155990665,(17 4 0 4 13 18 0 -2)
1969-12-31 18:00:17.155990665,(11 0 1 1 1 7 32 58)
1969-12-31 18:00:17.172326721,(-2 -2 -3 2 2 -13 -18 -24)
1969-12-31 18:00:17.172326721,(15 -7 -5 -8 -17 11 10 26)
1969-12-31 18:00:17.172326721,(-10 7 3 0 -3 -11 -28 -17)
1969-12-31 18:00:17.172326721,(14 -3 3 3 6 -13 -2 15)
1969-12-31 18:00:17.197997666,(-25 -13 -14 -11 -13 0 13 -29)
1969-12-31 18:00:17.197997666,(95 38 17 12 5 -20 5 91)
1969-12-31 18:00:17.199164527,(-76 -29 -19 -21 -77 63 -11 -69)
1969-12-31 18:00:17.199164527,(29 -11 -7 5 64 15 7 28)
1969-12-31 18:00:17.235337223,(-55 -5 7 5 13 22 -9 -27)
1969-12-31 18:00:17.235337223,(-49 -9 3 13 41 51 26 -12)
1969-12-31 18:00:17.236504084,(7 15 3 -8 -35 -39 -61 17)
1969-12-31 18:00:17.236504084,(-42 -30 -19 -3 -7 -17 12 -85)
1969-12-31 18:00:17.241171529,(57 26 10 18 63 46 41 110)
1969-12-31 18:00:17.241171529,(-7 -1 2 10 52 5 12 -2)
1969-12-31 18:00:17.242338390,(-21 -27 -10 -3 -13 -16 2 -8)
1969-12-31 18:00:17.242338390,(8 14 8 -8 -83 -54 -41 0)
1969-12-31 18:00:17.269176196,(-1 1 0 -3 -4 -6 -3 -4)
1969-12-31 18:00:17.269176196,(22 14 8 13 31 30 24 39)
1969-12-31 18:00:17.269176196,(8 9 1 -9 -24 -45 11 -6)
1969-12-31 18:00:17.269176196,(-9 -5 -10 -35 -77 -56 -15 12)
1969-12-31 18:00:17.294847141,(25 -4 -1 -4 -11 -22 3 10)
1969-12-31 18:00:17.294847141,(-28 -4 -2 3 30 6 -37 -91)
1969-12-31 18:00:17.296014002,(14 9 9 31 73 46 60 -29)
1969-12-31 18:00:17.296014002,(9 7 6 14 18 2 -47 -55)
1969-12-31 18:00:17.311183197,(-29 4 -1 -12 -23 35 -8 14)
1969-12-31 18:00:17.311183197,(-13 -18 -12 -7 11 48 8 -17)
1969-12-31 18:00:17.312350058,(37 6 1 6 69 -5 28 72)
1969-12-31 18:00:17.312350058,(10 -10 -5 -11 -47 -19 13 19)
1969-12-31 18:00:17.339187865,(17 4 -5 -16 -74 -84 -32 -12)
1969-12-31 18:00:17.339187865,(10 -1 1 2 6 -16 -26 -11)
1969-12-31 18:00:17.340354726,(-20 1 1 6 40 40 0 -4)
1969-12-31 18:00:17.340354726,(38 20 -8 1 -5 31 7 40)
1969-12-31 18:00:17.364858810,(-26 -8 27 2 -8 -12 -6 -2)
1969-12-31 18:00:17.364858810,(-16 -6 -5 -8 -21 -29 -5 -6)
1969-12-31 18:00:17.366025671,(35 34 15 -1 -41 -88 -33 -24)
1969-12-31 18:00:17.366025671,(-101 -39 -19 4 69 62 8 -38)
1969-12-31 18:00:17.382361727,(19 -37 -48 -15 -1 -19 -1 -9)
1969-12-31 18:00:17.382361727,(-29 5 22 -7 -46 -17 -15 -29)
1969-12-31 18:00:17.382361727,(28 12 7 12 20 39 33 46)
1969-12-31 18:00:17.382361727,(-2 -34 -25 -6 44 11 -20 5)
1969-12-31 18:00:17.409199533,(-17 57 75 33 22 26 16 -22)
1969-12-31 18:00:17.409199533,(15 2 -25 -34 -87 -47 -34 74)
1969-12-31 18:00:17.409199533,(-8 -7 2 -1 -38 -62 -5 56)
1969-12-31 18:00:17.410366394,(32 20 6 -26 -96 -35 11 19)
1969-12-31 18:00:17.434870478,(41 -10 -68 -6 65 41 23 20)
1969-12-31 18:00:17.434870478,(-30 -19 50 15 27 6 -14 -43)
1969-12-31 18:00:17.436037340,(-7 25 28 10 4 -4 -18 -23)
1969-12-31 18:00:17.436037340,(-15 -28 -49 -5 33 22 -8 -45)
1969-12-31 18:00:17.451206534,(3 38 32 13 19 37 13 10)
1969-12-31 18:00:17.451206534,(28 1 -23 -3 -6 -22 4 9)
1969-12-31 18:00:17.460541424,(-30 -16 -1 11 46 43 12 -16)
1969-12-31 18:00:17.460541424,(4 -23 29 16 25 -29 -14 59)
1969-12-31 18:00:17.479211201,(-15 -27 -68 -32 -42 -49 -10 -58)
1969-12-31 18:00:17.479211201,(-8 27 13 -15 -97 -47 -27 18)
1969-12-31 18:00:17.480378063,(-44 -7 4 -31 -20 41 -6 -58)
1969-12-31 18:00:17.480378063,(1 -21 -22 -5 -8 -16 19 56)
1969-12-31 18:00:17.504882147,(-19 3 22 3 0 -26 -26 -50)
1969-12-31 18:00:17.504882147,(3 -34 -57 -7 42 24 24 33)
1969-12-31 18:00:17.506049008,(49 -41 -31 -2 31 26 6 24)
1969-12-31 18:00:17.506049008,(-35 85 82 44 71 64 14 -52)
1969-12-31 18:00:17.521218203,(-45 -67 -39 -22 -76 -78 -66 -60)
1969-12-31 18:00:17.521218203,(-36 13 43 22 -10 -12 13 -52)
1969-12-31 18:00:17.530553092,(17 13 -40 -14 6 29 -3 -3)
1969-12-31 18:00:17.530553092,(44 35 3 -24 -59 -62 -28 -12)
1969-12-31 18:00:17.558557760,(-5 80 127 75 110 115 62 71)
1969-12-31 18:00:17.558557760,(35 -77 -72 -29 -62 -43 -15 22)
1969-12-31 18:00:17.559724621,(11 25 -24 -30 -7 -8 3 0)
1969-12-31 18:00:17.559724621,(-22 -34 -13 3 -2 -8 7 -68)
1969-12-31 18:00:17.576060677,(32 3 6 15 29 36 16 80)
1969-12-31 18:00:17.576060677,(-41 26 34 2 13 -6 -2 -53)
1969-12-31 18:00:17.576060677,(5 -37 -6 22 60 43 1 41)
1969-12-31 18:00:17.576060677,(14 29 -17 -6 8 16 9 12)
1969-12-31 18:00:17.591229872,(34 -68 -61 -25 -24 48 24 69)
1969-12-31 18:00:17.591229872,(38 -6 -20 -16 -56 -87 -38 -32)
1969-12-31 18:00:17.601731622,(-59 -10 36 -4 -36 2 -10 50)
1969-12-31 18:00:17.601731622,(22 8 -35 -19 6 13 32 53)
1969-12-31 18:00:17.616900817,(-35 -56 -34 -9 7 3 2 -39)
1969-12-31 18:00:17.616900817,(-28 21 55 27 42 31 31 15)
1969-12-31 18:00:17.627402567,(81 26 -80 -27 12 -7 2 4)
1969-12-31 18:00:17.627402567,(-67 39 127 45 -35 -28 -22 -26)
1969-12-31 18:00:17.644905484,(49 -26 -66 -14 12 14 20 5)
1969-12-31 18:00:17.644905484,(-24 -86 -104 -53 -5 25 25 1)
1969-12-31 18:00:17.647239207,(-8 24 64 21 -17 -15 -4 27)
1969-12-31 18:00:17.647239207,(-19 -77 -45 -9 49 50 36 26)
1969-12-31 18:00:17.672910152,(-18 111 56 10 -72 -85 -43 -33)
