time,.data
1969/12/31/18:00:12.300,(-7 -4 -6 -10 -34 -54 -22 -18)
1969/12/31/18:00:12.300,(-2 0 -4 -1 6 13 14 4)
1969/12/31/18:00:12.308,(1 5 17 11 22 1 -25 -7)
1969/12/31/18:00:12.308,(4 1 -2 5 -7 18 4 1)
1969/12/31/18:00:12.310,(1 1 0 -4 -12 -24 13 10)
1969/12/31/18:00:12.310,(-1 -5 -6 -1 -15 8 2 3)
1969/12/31/18:00:12.334,(3 4 -5 -8 -10 1 23 -6)
1969/12/31/18:00:12.334,(-10 -4 -5 -4 7 5 -13 0)
1969/12/31/18:00:12.341,(16 8 3 3 -8 -1 27 19)
1969/12/31/18:00:12.341,(-2 -1 0 1 7 -28 -3 -1)
1969/12/31/18:00:12.350,(0 -4 0 2 2 -6 2 3)
1969/12/31/18:00:12.350,(-1 0 -4 -4 -4 16 11 -15)
1969/12/31/18:00:12.360,(-4 -2 7 4 17 34 -8 1)
1969/12/31/18:00:12.360,(-4 5 1 -1 -12 -25 -5 -8)
1969/12/31/18:00:12.377,(1 -1 -2 -4 1 8 2 13)
1969/12/31/18:00:12.377,(-6 -6 -11 -9 -13 -21 -3 -8)
1969/12/31/18:00:12.379,(-8 -9 -7 -3 3 22 -3 4)
1969/12/31/18:00:12.379,(9 2 11 10 16 2 -1 6)
1969/12/31/18:00:12.421,(-5 -5 -9 -9 -16 -11 -1 -16)
1969/12/31/18:00:12.421,(5 6 9 3 2 -1 -7 7)
1969/12/31/18:00:12.423,(9 4 -2 1 6 5 0 24)
1969/12/31/18:00:12.423,(-17 -10 -5 -3 0 1 -3 -39)
1969/12/31/18:00:12.424,(-5 -6 -9 -6 -5 -5 5 5)
1969/12/31/18:00:12.424,(0 3 3 3 -4 -12 -7 -2)
1969/12/31/18:00:12.428,(1 2 4 4 10 20 1 -17)
1969/12/31/18:00:12.428,(-1 -4 -8 -4 1 0 3 24)
1969/12/31/18:00:12.446,(-1 8 8 3 -7 -16 -14 -12)
1969/12/31/18:00:12.446,(-1 -8 1 -3 4 9 16 9)
1969/12/31/18:00:12.454,(-1 -2 -3 -3 -4 1 -7 -10)
1969/12/31/18:00:12.454,(4 3 4 2 3 -1 -1 10)
1969/12/31/18:00:12.472,(-6 -3 -8 -4 -1 -5 3 2)
1969/12/31/18:00:12.472,(1 -4 -4 0 -2 -1 5 7)
1969/12/31/18:00:12.479,(-5 -2 -4 -3 3 6 -4 -12)
1969/12/31/18:00:12.479,(5 -21 -27 -8 -4 -5 -1 8)
1969/12/31/18:00:12.498,(-4 2 2 -2 -1 0 1 -3)
1969/12/31/18:00:12.498,(-5 19 23 8 -4 -10 -22 -27)
1969/12/31/18:00:12.500,(-2 3 0 -1 4 6 2 9)
1969/12/31/18:00:12.500,(1 3 3 0 1 1 -2 -9)
1969/12/31/18:00:12.514,(1 -10 -14 -2 -2 -1 5 8)
1969/12/31/18:00:12.514,(1 -8 -11 -6 -1 -2 0 2)
1969/12/31/18:00:12.523,(1 -4 -3 -1 0 2 1 1)
1969/12/31/18:00:12.523,(4 -10 -13 -6 -1 1 1 4)
1969/12/31/18:00:12.569,(-6 -13 0 -5 -2 -2 -1 2)
1969/12/31/18:00:12.569,(-4 11 12 7 1 -4 0 -5)
1969/12/31/18:00:12.570,(-9 16 15 2 -1 0 3 2)
1969/12/31/18:00:12.570,(0 9 2 0 1 3 0 3)
1969/12/31/18:00:12.571,(-3 -10 -16 -9 -7 -4 -3 -7)
1969/12/31/18:00:12.571,(15 -13 -14 -9 -4 0 7 24)
1969/12/31/18:00:12.575,(-31 -48 -29 -15 -13 -3 11 -25)
1969/12/31/18:00:12.575,(13 14 -8 -6 -2 -4 -14 0)
1969/12/31/18:00:12.583,(-6 46 73 28 8 0 -5 -7)
1969/12/31/18:00:12.583,(-7 -8 -8 -3 -2 1 9 6)
1969/12/31/18:00:12.592,(0 4 1 3 2 7 7 -1)
1969/12/31/18:00:12.592,(13 0 5 4 -1 -12 -23 -11)
1969/12/31/18:00:12.610,(2 -4 -16 -5 0 2 -1 0)
1969/12/31/18:00:12.610,(6 3 1 -2 1 0 -2 2)
1969/12/31/18:00:12.612,(26 13 5 5 6 2 -11 -5)
1969/12/31/18:00:12.612,(-11 6 14 8 5 6 1 -12)
1969/12/31/18:00:12.635,(-21 -24 -23 -14 -13 -14 -15 -12)
1969/12/31/18:00:12.635,(-25 -12 -2 1 0 -4 -12 -25)
1969/12/31/18:00:12.638,(35 12 -1 -1 3 -1 -10 14)
1969/12/31/18:00:12.638,(6 1 3 1 0 2 12 15)
1969/12/31/18:00:12.652,(-15 2 -1 0 -2 0 6 -3)
1969/12/31/18:00:12.652,(71 24 1 0 0 1 7 53)
1969/12/31/18:00:12.661,(-67 -22 -4 -5 -4 -6 -17 -56)
1969/12/31/18:00:12.661,(-65 -27 -4 -4 -2 -7 -19 -13)
1969/12/31/18:00:12.679,(17 -1 -6 -2 -3 -8 0 -8)
1969/12/31/18:00:12.679,(37 20 6 2 3 3 8 10)
1969/12/31/18:00:12.681,(84 23 7 3 -2 -11 6 48)
1969/12/31/18:00:12.681,(-37 -17 7 2 12 45 16 7)
1969/12/31/18:00:12.729,(-18 -8 -9 -3 -10 -33 5 -31)
1969/12/31/18:00:12.729,(-95 -38 -16 -10 -7 -3 -23 -53)
1969/12/31/18:00:12.742,(29 25 9 3 6 26 9 9)
1969/12/31/18:00:12.742,(40 14 -2 -3 -8 -18 -2 -9)
1969/12/31/18:00:12.743,(94 38 19 12 18 65 53 97)
1969/12/31/18:00:12.743,(-75 -36 -2 6 -9 -62 -40 -7)
1969/12/31/18:00:12.749,(-80 -21 -23 -17 -15 -14 -38 -89)
1969/12/31/18:00:12.749,(-38 -17 -1 -7 -4 19 25 -8)
1969/12/31/18:00:12.750,(83 40 10 7 7 9 -6 62)
1969/12/31/18:00:12.750,(56 36 6 3 5 15 10 10)
1969/12/31/18:00:12.751,(-54 -36 -10 -3 1 9 3 -10)
1969/12/31/18:00:12.751,(80 29 19 13 4 -22 13 70)
1969/12/31/18:00:12.773,(-124 -80 -25 -14 -8 -4 -30 -97)
1969/12/31/18:00:12.773,(4 3 -4 -6 -3 2 -7 -41)
1969/12/31/18:00:12.775,(19 24 16 13 9 -9 -16 8)
1969/12/31/18:00:12.775,(57 25 -2 -3 -3 4 -6 -21)
1969/12/31/18:00:12.789,(1 0 9 10 4 5 33 23)
1969/12/31/18:00:12.789,(-50 -24 -16 -10 -3 5 -29 -42)
1969/12/31/18:00:12.800,(-3 -3 -7 -7 -7 4 2 -26)
1969/12/31/18:00:12.800,(28 8 6 4 2 -10 8 31)
1969/12/31/18:00:12.817,(-33 -9 -5 -4 -6 -17 -9 -11)
1969/12/31/18:00:12.817,(37 17 8 4 9 41 12 24)
1969/12/31/18:00:12.819,(19 -14 -8 -6 -11 -49 25 47)
1969/12/31/18:00:12.819,(-80 -59 -17 -3 4 22 -2 -30)
1969/12/31/18:00:12.842,(4 -2 -15 -16 -20 -49 -40 -42)
1969/12/31/18:00:12.842,(50 30 3 -3 -7 -10 36 39)
1969/12/31/18:00:12.844,(-15 -34 -5 -3 0 -1 -12 -7)
1969/12/31/18:00:12.844,(7 35 13 5 -1 -5 12 33)
1969/12/31/18:00:12.886,(9 2 -1 3 4 11 -15 -19)
1969/12/31/18:00:12.886,(42 29 10 6 5 1 15 45)
1969/12/31/18:00:12.897,(-18 1 7 5 2 4 16 38)
1969/12/31/18:00:12.897,(-17 -7 -4 -3 -6 -29 -33 -90)
1969/12/31/18:00:12.898,(-1 -1 -2 -4 0 2 14 11)
1969/12/31/18:00:12.898,(-32 -14 0 -1 -9 -16 -10 -4)
1969/12/31/18:00:12.902,(37 6 -8 -6 -4 15 14 36)
1969/12/31/18:00:12.902,(-9 -5 -6 -5 -5 -45 -55 -52)
1969/12/31/18:00:12.911,(15 9 6 1 3 26 22 26)
1969/12/31/18:00:12.911,(9 -2 -2 0 6 29 17 -22)
1969/12/31/18:00:12.913,(6 21 10 6 4 -11 0 30)
1969/12/31/18:00:12.913,(23 13 2 0 7 64 46 66)
1969/12/31/18:00:12.938,(48 1 4 5 4 -21 16 82)
1969/12/31/18:00:12.938,(-17 -10 -14 -13 -11 4 -26 -52)
1969/12/31/18:00:12.939,(-33 -5 -2 -4 -3 -11 -1 0)
1969/12/31/18:00:12.939,(6 16 9 4 6 27 9 18)
1969/12/31/18:00:12.955,(27 6 4 4 5 -1 -22 -28)
1969/12/31/18:00:12.955,(-2 -5 2 5 8 9 45 69)
1969/12/31/18:00:12.957,(-2 -2 -1 -3 -7 -17 -32 -35)
1969/12/31/18:00:12.957,(-54 -25 -17 -10 -6 10 5 -11)
1969/12/31/18:00:12.980,(-11 6 4 1 5 11 -22 0)
1969/12/31/18:00:12.980,(-44 -24 -6 -7 -22 -109 -42 -50)
1969/12/31/18:00:12.982,(28 9 1 0 5 45 33 -9)
1969/12/31/18:00:12.982,(8 19 14 13 10 -20 41 50)
1969/12/31/18:00:12.996,(-44 -21 -12 -5 1 42 16 -77)
1969/12/31/18:00:12.996,(25 7 8 7 2 -21 -20 12)
1969/12/31/18:00:13.007,(10 21 9 7 21 64 23 31)
1969/12/31/18:00:13.007,(78 30 10 4 -6 -54 13 46)
1969/12/31/18:00:13.059,(-47 -20 -3 -3 -4 1 2 -6)
1969/12/31/18:00:13.059,(-42 -29 -20 -14 -4 17 -13 -78)
1969/12/31/18:00:13.062,(-32 -21 -1 -1 -10 -29 9 -47)
1969/12/31/18:00:13.062,(-28 -2 -7 -6 -5 11 -27 -30)
1969/12/31/18:00:13.063,(-5 8 1 -2 -4 -13 -23 -17)
1969/12/31/18:00:13.063,(-2 -7 6 9 7 10 13 25)
1969/12/31/18:00:13.068,(54 27 2 1 4 17 17 39)
1969/12/31/18:00:13.068,(-40 -44 -12 -10 -9 -4 -12 -10)
1969/12/31/18:00:13.069,(-10 -6 -9 -6 -11 -27 1 15)
1969/12/31/18:00:13.069,(-32 -9 -4 -5 -2 16 -11 -73)
1969/12/31/18:00:13.076,(-3 -4 1 -1 -4 -49 -26 -1)
1969/12/31/18:00:13.076,(-20 -3 -8 -9 -9 0 -33 -65)
1969/12/31/18:00:13.093,(27 3 -3 -3 -11 -36 -43 1)
1969/12/31/18:00:13.093,(50 15 2 1 4 24 14 57)
1969/12/31/18:00:13.095,(-65 -30 -11 -7 -9 -23 -12 -32)
1969/12/31/18:00:13.095,(23 -1 -6 -5 -6 -14 -19 -50)
1969/12/31/18:00:13.118,(17 2 6 9 12 35 34 -2)
1969/12/31/18:00:13.118,(-6 3 6 2 1 -14 7 27)
1969/12/31/18:00:13.120,(55 13 -1 -3 -5 5 -12 16)
1969/12/31/18:00:13.120,(-54 -23 -10 -6 -8 -13 -23 -29)
1969/12/31/18:00:13.134,(22 16 8 6 6 8 22 41)
1969/12/31/18:00:13.134,(-4 -3 -2 -3 -1 12 12 -11)
1969/12/31/18:00:13.145,(4 6 5 5 4 7 -19 -8)
1969/12/31/18:00:13.145,(2 10 0 2 3 9 24 1)
1969/12/31/18:00:13.162,(-15 -18 -11 -7 -5 -22 1 47)
1969/12/31/18:00:13.162,(-5 -2 -4 -3 0 28 -20 12)
1969/12/31/18:00:13.169,(6 0 -1 -2 1 -3 12 19)
1969/12/31/18:00:13.169,(26 3 5 3 2 3 -8 15)
1969/12/31/18:00:13.216,(-4 10 2 -2 -7 -8 8 6)
1969/12/31/18:00:13.216,(9 3 1 0 -1 3 -5 -22)
1969/12/31/18:00:13.218,(-4 -6 -4 -3 0 14 10 17)
1969/12/31/18:00:13.218,(25 10 3 4 3 -7 1 6)
1969/12/31/18:00:13.218,(-28 -1 -2 0 2 7 -11 -48)
1969/12/31/18:00:13.218,(3 -6 0 4 5 9 36 33)
1969/12/31/18:00:13.223,(60 50 20 16 10 6 7 29)
1969/12/31/18:00:13.223,(-58 -37 -12 -10 -10 -11 -11 -24)
1969/12/31/18:00:13.231,(0 5 4 0 3 5 14 15)
1969/12/31/18:00:13.231,(8 5 -1 4 21 1 -15 -5)
1969/12/31/18:00:13.233,(-12 -8 -1 11 16 0 11 -6)
1969/12/31/18:00:13.233,(51 35 11 0 -31 -1 -17 24)
1969/12/31/18:00:13.256,(-49 -19 -19 -17 26 18 -23 -70)
1969/12/31/18:00:13.256,(-23 -45 -14 -8 3 47 4 -21)
1969/12/31/18:00:13.258,(-8 -4 -2 -27 -86 -93 -40 -52)
1969/12/31/18:00:13.258,(12 5 5 3 15 25 -3 28)
1969/12/31/18:00:13.272,(15 11 2 -1 -21 -19 -3 -3)
1969/12/31/18:00:13.272,(23 19 10 14 37 12 17 49)
1969/12/31/18:00:13.283,(-13 -10 -3 6 29 19 -10 -49)
1969/12/31/18:00:13.283,(-16 -11 -5 0 -3 -4 1 -9)
1969/12/31/18:00:13.300,(-31 -2 0 3 -5 -7 -25 -16)
1969/12/31/18:00:13.300,(7 -2 -2 4 25 15 32 31)
1969/12/31/18:00:13.302,(0 -4 -3 -1 -9 -7 21 48)
1969/12/31/18:00:13.302,(50 22 9 4 -10 -39 16 43)
1969/12/31/18:00:13.327,(9 -2 0 24 72 56 -7 -15)
1969/12/31/18:00:13.327,(-26 -22 -9 -18 -96 -63 -1 -1)
1969/12/31/18:00:13.328,(-52 -22 -15 -13 17 2 -40 -62)
1969/12/31/18:00:13.328,(-10 -12 -8 -16 -40 21 -3 -38)
1969/12/31/18:00:13.369,(-2 8 7 -7 -35 -41 24 11)
1969/12/31/18:00:13.369,(-39 -18 -14 -17 -12 -50 -45 -60)
1969/12/31/18:00:13.380,(34 20 9 2 -24 4 7 11)
1969/12/31/18:00:13.380,(-53 -22 -9 -1 43 17 0 -30)
1969/12/31/18:00:13.380,(15 -15 3 10 11 26 11 9)
1969/12/31/18:00:13.380,(15 14 3 15 40 18 15 26)
1969/12/31/18:00:13.385,(5 10 -5 -3 -4 1 -21 -31)
1969/12/31/18:00:13.385,(-23 -14 10 -4 -17 -13 1 -9)
1969/12/31/18:00:13.394,(-8 13 8 1 -33 -16 12 -31)
1969/12/31/18:00:13.394,(7 -8 4 19 78 41 -24 -49)
1969/12/31/18:00:13.396,(11 -19 -28 -14 -36 -20 -4 -5)
1969/12/31/18:00:13.396,(-61 25 80 11 -43 -39 -20 -61)
1969/12/31/18:00:13.410,(-8 -7 -1 -7 0 1 -1 -11)
1969/12/31/18:00:13.410,(9 17 4 0 -25 -6 43 39)
1969/12/31/18:00:13.420,(19 -20 -43 -4 39 53 25 64)
1969/12/31/18:00:13.420,(-33 -3 19 5 23 -9 10 38)
1969/12/31/18:00:13.438,(1 -36 -16 -9 -32 -44 -26 28)
1969/12/31/18:00:13.438,(9 36 -18 -9 0 7 -25 -30)
1969/12/31/18:00:13.439,(-12 11 56 21 12 13 43 73)
1969/12/31/18:00:13.440,(1 -6 -12 -10 -23 -3 26 119)
1969/12/31/18:00:13.464,(8 -4 4 5 23 13 -17 0)
1969/12/31/18:00:13.464,(17 -52 -43 3 25 23 14 58)
1969/12/31/18:00:13.465,(16 11 -23 -16 -22 1 30 14)
1969/12/31/18:00:13.465,(-21 -22 -41 -28 -24 -47 -57 -90)
1969/12/31/18:00:13.479,(-46 -37 -18 -8 -41 -32 -48 15)
1969/12/31/18:00:13.479,(21 115 107 37 39 14 -37 -72)
1969/12/31/18:00:13.489,(-52 -28 -8 -9 -38 -43 8 16)
1969/12/31/18:00:13.489,(52 -36 -52 2 56 61 13 -60)
1969/12/31/18:00:13.524,(-7 -87 -105 -36 -18 -19 1 -12)
1969/12/31/18:00:13.524,(-89 36 59 -3 -110 -56 -82 -32)
1969/12/31/18:00:13.526,(-35 20 -18 -2 47 21 -41 -82)
1969/12/31/18:00:13.526,(12 120 110 62 31 3 -4 54)
1969/12/31/18:00:13.533,(83 -49 -59 -11 23 23 27 25)
1969/12/31/18:00:13.533,(56 -112 -105 -28 16 18 45 66)
1969/12/31/18:00:13.534,(23 103 113 31 -6 -28 -43 -71)
1969/12/31/18:00:13.534,(27 -56 -53 -6 -8 -11 27 29)
1969/12/31/18:00:13.548,(83 113 104 43 24 16 1 16)
1969/12/31/18:00:13.548,(-16 -76 -33 7 73 24 0 -66)
1969/12/31/18:00:13.558,(-65 -33 -15 -11 -43 -2 10 -16)
1969/12/31/18:00:13.558,(25 17 -7 0 52 41 19 4)
1969/12/31/18:00:13.575,(58 40 33 7 -57 0 51 112)
1969/12/31/18:00:13.575,(8 4 -21 -30 -78 -85 -24 -67)
1969/12/31/18:00:13.583,(-23 -119 -86 -21 18 -5 -58 -82)
1969/12/31/18:00:13.583,(-51 34 43 11 18 3 -3 -45)
1969/12/31/18:00:13.601,(-28 28 20 -3 15 17 -2 -8)
1969/12/31/18:00:13.601,(47 0 12 22 44 44 43 85)
1969/12/31/18:00:13.603,(-16 -53 -45 -15 -12 -24 -23 -38)
1969/12/31/18:00:13.603,(-53 73 74 6 -26 -3 0 -11)
1969/12/31/18:00:13.627,(-1 -14 -1 6 39 19 19 15)
1969/12/31/18:00:13.627,(-29 47 47 27 64 41 -27 -66)
1969/12/31/18:00:13.630,(37 18 30 30 9 7 71 98)
1969/12/31/18:00:13.630,(-6 -110 -99 -71 -114 -63 -26 -32)
1969/12/31/18:00:13.644,(-17 -14 -1 -23 -19 -20 6 -14)
1969/12/31/18:00:13.644,(-12 -12 -37 -16 -4 -13 -5 32)
1969/12/31/18:00:13.652,(57 1 8 20 55 56 55 106)
1969/12/31/18:00:13.652,(-15 18 -2 1 19 -2 -28 -63)
1969/12/31/18:00:13.688,(-34 88 61 19 8 -3 -22 -60)
1969/12/31/18:00:13.688,(63 -85 -71 -19 -26 -4 36 99)
1969/12/31/18:00:13.689,(-27 97 97 34 42 26 -6 -71)
1969/12/31/18:00:13.689,(72 -60 -74 -12 -28 -10 -13 11)
1969/12/31/18:00:13.696,(-40 -101 -102 -48 14 14 -10 -17)
1969/12/31/18:00:13.696,(-41 127 125 16 -93 -54 -30 -64)
1969/12/31/18:00:13.699,(3 -11 -31 -29 -14 -10 11 17)
1969/12/31/18:00:13.699,(75 -46 -61 0 49 34 -25 78)
1969/12/31/18:00:13.712,(0 68 80 47 24 22 38 -17)
1969/12/31/18:00:13.712,(-25 -65 -24 -20 2 -11 -9 -1)
1969/12/31/18:00:13.721,(4 -2 -24 12 36 -1 -61 -12)
1969/12/31/18:00:13.721,(-17 -22 -5 -25 -70 -25 59 7)
1969/12/31/18:00:13.739,(14 -34 -48 -31 -9 -5 -33 0)
1969/12/31/18:00:13.739,(27 4 -22 -4 -8 6 36 28)
1969/12/31/18:00:13.741,(-1 -4 23 3 15 -2 -13 7)
1969/12/31/18:00:13.741,(-66 -14 6 39 105 69 3 -50)
1969/12/31/18:00:13.765,(-27 27 13 -27 -111 -111 -41 -35)
1969/12/31/18:00:13.765,(7 127 99 3 10 31 29 30)
1969/12/31/18:00:13.768,(0 -78 -54 -12 -8 -10 0 -11)
1969/12/31/18:00:13.768,(57 -73 -96 -14 50 48 62 70)
1969/12/31/18:00:13.781,(-39 46 74 31 25 8 -35 -46)
1969/12/31/18:00:13.781,(-37 -2 4 2 -26 -27 -39 -30)
1969/12/31/18:00:13.790,(-3 -83 -64 -16 25 57 45 17)
1969/12/31/18:00:13.790,(-6 127 116 15 -59 -66 -6 25)
1969/12/31/18:00:13.809,(-8 -30 -36 -1 20 12 -9 -46)
1969/12/31/18:00:13.809,(59 -89 -91 -32 -29 -7 27 28)
1969/12/31/18:00:13.810,(-51 7 38 32 47 10 -33 -5)
1969/12/31/18:00:13.810,(19 52 48 -34 -96 -61 -15 -37)
1969/12/31/18:00:13.844,(-37 -68 -44 -22 14 6 2 17)
1969/12/31/18:00:13.844,(39 8 -20 7 35 24 33 38)
1969/12/31/18:00:13.845,(36 29 -6 -8 -1 -4 -14 13)
1969/12/31/18:00:13.845,(-13 35 44 38 44 19 9 -10)
1969/12/31/18:00:13.850,(46 -58 -68 -12 -9 1 20 44)
1969/12/31/18:00:13.850,(-60 23 64 -6 -23 -19 -5 -47)
1969/12/31/18:00:13.859,(16 32 2 8 10 8 16 22)
1969/12/31/18:00:13.859,(37 -51 -55 -13 -17 -12 -39 12)
1969/12/31/18:00:13.877,(-6 69 73 24 12 4 -38 -7)
1969/12/31/18:00:13.877,(9 -33 -19 14 36 30 11 36)
1969/12/31/18:00:13.879,(-36 5 15 -32 -102 -65 -37 -62)
1969/12/31/18:00:13.879,(19 36 31 26 21 31 39 49)
1969/12/31/18:00:13.903,(17 -48 -54 -1 62 25 -10 -17)
1969/12/31/18:00:13.903,(-33 -38 -49 -22 -50 -54 11 -14)
1969/12/31/18:00:13.904,(11 11 19 -10 -2 6 -29 15)
1969/12/31/18:00:13.904,(50 -34 -53 -2 -27 -32 16 45)
1969/12/31/18:00:13.929,(6 1 5 -18 -22 13 20 24)
1969/12/31/18:00:13.930,(-52 62 63 14 -4 -42 -50 -45)
1969/12/31/18:00:13.931,(50 17 -4 7 14 17 61 6)
1969/12/31/18:00:13.931,(-98 -50 -2 7 42 25 -70 -100)
1969/12/31/18:00:13.947,(22 4 -26 -2 6 19 44 39)
1969/12/31/18:00:13.947,(29 -24 -36 -30 -52 -37 -14 1)
1969/12/31/18:00:13.948,(0 12 21 -22 -40 -4 25 6)
1969/12/31/18:00:13.948,(14 31 26 16 48 24 -27 -3)
1969/12/31/18:00:13.972,(33 5 -16 19 21 4 41 25)
1969/12/31/18:00:13.972,(-52 46 80 22 -30 -26 -46 -71)
1969/12/31/18:00:13.973,(9 -42 -42 -26 -13 -19 -17 25)
1969/12/31/18:00:13.973,(39 -30 -43 -1 49 58 55 50)
1969/12/31/18:00:14.017,(-13 21 37 13 -4 -48 -65 -22)
1969/12/31/18:00:14.017,(4 -45 -42 -21 -55 -14 13 49)
1969/12/31/18:00:14.018,(5 52 33 12 19 15 -11 -8)
1969/12/31/18:00:14.018,(-20 -13 -22 -17 0 21 18 -31)
1969/12/31/18:00:14.019,(-6 -15 -8 -2 10 10 -4 -17)
1969/12/31/18:00:14.019,(-12 -32 -41 13 91 56 47 33)
1969/12/31/18:00:14.024,(-53 26 46 4 -96 -104 -97 -34)
1969/12/31/18:00:14.024,(12 7 -18 -28 -10 14 37 48)
1969/12/31/18:00:14.049,(-18 57 72 32 21 26 8 -25)
1969/12/31/18:00:14.049,(50 -31 -54 10 90 49 1 11)
1969/12/31/18:00:14.052,(0 -5 -6 2 -14 19 42 6)
1969/12/31/18:00:14.052,(26 -4 48 48 37 -5 -54 -29)
1969/12/31/18:00:14.057,(-48 36 -1 -50 -95 -65 -32 -83)
1969/12/31/18:00:14.057,(6 -51 -31 12 28 46 32 37)
1969/12/31/18:00:14.068,(14 44 52 23 44 5 -28 -10)
1969/12/31/18:00:14.068,(-5 4 -3 -11 -54 -37 -23 -24)
1969/12/31/18:00:14.084,(21 -16 -27 -6 1 2 51 57)
1969/12/31/18:00:14.084,(12 -77 -45 -19 -13 4 -92 -63)
1969/12/31/18:00:14.086,(-37 -57 -70 -18 9 -15 33 -4)
1969/12/31/18:00:14.086,(-50 99 81 23 -2 8 -6 -40)
1969/12/31/18:00:14.110,(-3 -39 -13 3 30 40 15 -1)
1969/12/31/18:00:14.110,(0 -77 -60 -36 -78 -52 -1 1)
1969/12/31/18:00:14.111,(39 8 -10 17 47 44 19 43)
1969/12/31/18:00:14.113,(-7 -50 -40 -16 6 -24 -39 -26)
1969/12/31/18:00:14.126,(-9 17 -1 0 -13 -2 6 -36)
1969/12/31/18:00:14.126,(-42 121 117 26 10 17 16 0)
1969/12/31/18:00:14.164,(-66 -74 -56 -28 -34 -49 -39 -77)
1969/12/31/18:00:14.164,(55 -32 -28 7 28 7 29 69)
1969/12/31/18:00:14.165,(-16 -37 -41 -9 33 16 4 -30)
1969/12/31/18:00:14.165,(-6 53 34 -23 -68 -38 -55 -49)
1969/12/31/18:00:14.169,(-25 -5 13 21 55 48 26 56)
1969/12/31/18:00:14.169,(-47 -52 -47 -27 -55 -23 25 -62)
1969/12/31/18:00:14.179,(45 65 44 -9 -56 -60 -11 53)
1969/12/31/18:00:14.179,(6 5 -1 15 83 50 28 11)
1969/12/31/18:00:14.182,(33 -19 -47 -28 -59 -28 16 -9)
1969/12/31/18:00:14.182,(-20 60 95 41 29 9 13 38)
1969/12/31/18:00:14.194,(4 -47 -32 -4 12 25 4 -3)
1969/12/31/18:00:14.195,(24 54 -22 5 40 43 50 27)
1969/12/31/18:00:14.206,(20 84 83 41 -6 -18 -34 -45)
1969/12/31/18:00:14.206,(10 -33 -43 -16 11 5 25 -17)
1969/12/31/18:00:14.222,(3 -2 6 -4 -45 -25 -16 43)
1969/12/31/18:00:14.222,(25 -42 -15 -8 1 -11 19 36)
1969/12/31/18:00:14.224,(2 -65 -79 -43 -21 -3 -20 -12)
1969/12/31/18:00:14.224,(-24 7 3 5 54 31 -23 -40)
1969/12/31/18:00:14.248,(-7 -60 -53 -11 -35 -19 -14 -11)
1969/12/31/18:00:14.248,(-21 49 66 10 -22 -43 -10 -23)
1969/12/31/18:00:14.251,(1 12 16 9 28 21 41 69)
1969/12/31/18:00:14.251,(-35 -15 -15 -28 -100 -57 -13 6)
1969/12/31/18:00:14.264,(21 -51 -24 10 84 64 43 22)
1969/12/31/18:00:14.264,(26 13 -10 15 34 32 21 22)
1969/12/31/18:00:14.282,(-5 -2 5 -1 -11 -12 -10 -1)
1969/12/31/18:00:14.282,(-31 45 30 -8 -24 -31 -46 -40)
1969/12/31/18:00:14.292,(-2 7 17 22 55 40 43 15)
1969/12/31/18:00:14.292,(7 -1 -19 -5 -51 -22 11 36)
1969/12/31/18:00:14.293,(9 89 58 14 22 41 32 -14)
1969/12/31/18:00:14.293,(48 -93 -47 -6 5 -18 -7 32)
1969/12/31/18:00:14.326,(16 20 -5 5 29 26 -11 -15)
1969/12/31/18:00:14.326,(-40 10 41 13 -19 -23 -10 -43)
1969/12/31/18:00:14.328,(10 -31 -41 -31 -53 -29 -16 -15)
1969/12/31/18:00:14.328,(18 13 -4 1 39 29 40 50)
1969/12/31/18:00:14.333,(-20 21 30 27 41 14 -1 -4)
1969/12/31/18:00:14.333,(15 -57 -58 -49 -79 -54 23 17)
1969/12/31/18:00:14.344,(40 29 13 -3 9 13 -36 9)
1969/12/31/18:00:14.344,(11 -17 -18 -1 5 18 -2 7)
1969/12/31/18:00:14.361,(42 101 87 41 21 -4 42 83)
1969/12/31/18:00:14.361,(-37 -30 -12 8 27 19 -15 -43)
1969/12/31/18:00:14.362,(-23 -3 1 1 -14 -7 -13 -2)
1969/12/31/18:00:14.362,(-20 10 17 -5 6 3 -4 -19)
1969/12/31/18:00:14.386,(28 -63 -78 -11 21 19 -3 39)
1969/12/31/18:00:14.386,(-67 40 58 -1 -42 -16 -27 -25)
1969/12/31/18:00:14.389,(27 5 4 0 7 -15 2 9)
1969/12/31/18:00:14.389,(-3 32 8 -1 -25 -7 3 -12)
1969/12/31/18:00:14.402,(-16 -78 -49 -28 -35 -39 5 3)
1969/12/31/18:00:14.402,(-39 -29 -18 -3 -8 -8 -29 -42)
1969/12/31/18:00:14.413,(-6 0 -2 8 37 40 30 -7)
1969/12/31/18:00:14.413,(-31 -69 -34 -7 -26 -15 26 12)
1969/12/31/18:00:14.429,(-27 3 16 -1 36 1 -49 -42)
1969/12/31/18:00:14.429,(81 73 41 30 40 13 14 39)
1969/12/31/18:00:14.431,(-18 -36 -19 7 0 19 9 10)
1969/12/31/18:00:14.431,(26 33 -9 -14 -35 -24 10 20)
1969/12/31/18:00:14.483,(-29 28 4 -29 -70 -44 -33 -43)
1969/12/31/18:00:14.483,(18 -13 7 20 51 21 13 16)
1969/12/31/18:00:14.484,(19 5 -6 7 26 32 26 5)
1969/12/31/18:00:14.484,(-36 -12 6 7 32 -7 -67 -46)
1969/12/31/18:00:14.485,(-13 -8 -12 -20 -111 -83 -45 -10)
1969/12/31/18:00:14.485,(18 -48 -44 -15 32 20 -3 -13)
1969/12/31/18:00:14.490,(8 35 23 -7 -36 -16 -3 16)
1969/12/31/18:00:14.490,(13 23 15 13 39 21 14 10)
1969/12/31/18:00:14.498,(5 4 12 9 37 25 -4 19)
1969/12/31/18:00:14.499,(-51 -55 -55 -27 -59 -53 -53 -95)
1969/12/31/18:00:14.500,(6 -21 8 1 7 -9 0 39)
1969/12/31/18:00:14.500,(12 -21 -24 -18 -6 -1 -7 1)
1969/12/31/18:00:14.524,(-1 21 35 11 -4 -2 4 -9)
1969/12/31/18:00:14.524,(52 72 16 15 19 23 30 53)
1969/12/31/18:00:14.525,(-30 -52 -33 -7 35 18 10 -24)
1969/12/31/18:00:14.526,(-5 -3 -15 -8 -18 -9 -14 -46)
1969/12/31/18:00:14.540,(-11 47 27 17 23 25 -4 -4)
1969/12/31/18:00:14.540,(-19 -11 13 -2 -19 -19 0 16)
1969/12/31/18:00:14.551,(-29 -5 2 8 15 8 4 -12)
1969/12/31/18:00:14.551,(11 -35 -32 -13 -20 -10 8 27)
1969/12/31/18:00:14.567,(58 18 -12 -14 -28 -21 4 25)
1969/12/31/18:00:14.568,(-50 -33 1 7 18 33 38 9)
1969/12/31/18:00:14.569,(23 31 8 3 -1 -19 -59 -7)
1969/12/31/18:00:14.569,(-45 -67 -30 -15 11 24 21 1)
1969/12/31/18:00:14.593,(51 54 20 17 13 32 9 25)
1969/12/31/18:00:14.593,(-34 14 8 1 12 -41 -51 -66)
1969/12/31/18:00:14.595,(8 -34 -8 -5 -49 -28 15 36)
1969/12/31/18:00:14.595,(6 -12 -11 -2 10 15 4 4)
1969/12/31/18:00:14.609,(-9 -14 -15 -15 -21 -12 -5 -18)
1969/12/31/18:00:14.609,(-37 -52 -9 0 9 23 11 25)
1969/12/31/18:00:14.647,(37 37 6 8 23 13 14 17)
1969/12/31/18:00:14.647,(31 83 70 32 4 -2 1 10)
1969/12/31/18:00:14.648,(-43 -45 -25 -18 -21 -11 -10 -63)
1969/12/31/18:00:14.648,(58 20 0 4 12 3 -39 -25)
1969/12/31/18:00:14.652,(-25 -31 -22 -92 -107 -91 -6 -25)
1969/12/31/18:00:14.652,(29 27 9 52 94 94 45 46)
1969/12/31/18:00:14.662,(-26 -8 13 55 13 -54 -50 -29)
1969/12/31/18:00:14.662,(24 20 1 11 3 11 18 30)
1969/12/31/18:00:14.663,(-36 -11 -6 13 -18 -10 0 -61)
1969/12/31/18:00:14.663,(-6 -3 1 -29 -22 7 14 23)
1969/12/31/18:00:14.687,(15 17 4 -25 -30 -20 0 15)
1969/12/31/18:00:14.687,(44 7 -4 1 5 11 18 41)
1969/12/31/18:00:14.690,(-76 -41 -27 -15 -8 -18 -36 -95)
1969/12/31/18:00:14.690,(-49 11 4 -14 -15 -22 -45 -40)
1969/12/31/18:00:14.705,(-20 -32 -4 6 20 17 4 -21)
1969/12/31/18:00:14.705,(46 36 11 -7 -18 -6 6 18)
1969/12/31/18:00:14.713,(-13 -17 6 16 29 35 16 31)
1969/12/31/18:00:14.713,(36 8 4 8 -2 -7 33 38)
1969/12/31/18:00:14.731,(-28 -10 -5 -8 -15 -4 6 -29)
1969/12/31/18:00:14.731,(44 21 -4 -10 -6 2 -5 17)
1969/12/31/18:00:14.732,(-8 -6 5 17 27 20 10 -10)
1969/12/31/18:00:14.732,(-13 -9 -7 0 -17 -27 -2 31)
1969/12/31/18:00:14.758,(-40 -21 -4 -8 8 22 -7 12)
1969/12/31/18:00:14.758,(24 14 3 -1 -9 4 42 38)
1969/12/31/18:00:14.759,(-1 -13 2 16 17 4 7 5)
1969/12/31/18:00:14.759,(-19 1 -1 -10 -30 -34 -25 -26)
1969/12/31/18:00:14.801,(20 -6 -4 -12 11 37 34 13)
1969/12/31/18:00:14.801,(-24 1 3 10 7 -9 -34 -3)
1969/12/31/18:00:14.804,(-44 -18 -12 -5 -4 7 -8 -16)
1969/12/31/18:00:14.804,(15 14 1 -2 -7 -11 21 37)
1969/12/31/18:00:14.805,(44 17 12 7 9 8 2 49)
1969/12/31/18:00:14.805,(32 -6 -1 -11 -4 26 21 41)
1969/12/31/18:00:14.809,(-78 -41 -16 -5 -3 -12 -34 -49)
1969/12/31/18:00:14.809,(67 15 7 6 4 11 -20 18)
1969/12/31/18:00:14.825,(-66 -4 0 8 -12 -26 14 -46)
1969/12/31/18:00:14.825,(15 11 -2 -6 -4 -8 -3 -19)
1969/12/31/18:00:14.828,(10 -11 9 15 13 3 10 18)
1969/12/31/18:00:14.828,(9 26 -4 -8 -4 5 -20 -33)
1969/12/31/18:00:14.843,(9 -30 -15 -10 -10 2 19 109)
1969/12/31/18:00:14.843,(23 22 5 -2 -2 -5 8 28)
1969/12/31/18:00:14.851,(60 37 15 12 21 70 44 67)
1969/12/31/18:00:14.851,(27 8 8 6 -4 -51 -19 -16)
1969/12/31/18:00:14.869,(-72 -32 -11 -16 -17 -9 -24 -92)
1969/12/31/18:00:14.869,(49 14 -1 0 3 -3 -5 27)
1969/12/31/18:00:14.871,(77 37 15 12 12 8 27 76)
1969/12/31/18:00:14.871,(-46 -44 -20 -13 -12 36 14 -16)
1969/12/31/18:00:14.896,(-2 3 -2 -4 -9 -61 -37 -80)
1969/12/31/18:00:14.896,(-22 -23 -4 0 5 18 3 -7)
1969/12/31/18:00:14.897,(1 19 -1 -1 -9 -18 -24 -62)
1969/12/31/18:00:14.897,(11 -2 6 3 2 7 16 13)
1969/12/31/18:00:14.912,(26 -1 -7 -2 2 16 12 31)
1969/12/31/18:00:14.912,(-39 -30 -20 -13 -8 -15 -26 -35)
1969/12/31/18:00:14.920,(45 16 16 15 13 13 23 85)
1969/12/31/18:00:14.920,(-96 -34 -13 -7 -10 -14 -6 1)
1969/12/31/18:00:14.974,(1 2 1 -1 1 4 -27 -57)
1969/12/31/18:00:14.974,(10 20 8 5 2 3 18 43)
1969/12/31/18:00:14.976,(27 0 0 -2 -5 -3 -2 10)
1969/12/31/18:00:14.976,(13 19 13 9 8 -1 2 3)
1969/12/31/18:00:14.977,(25 11 -3 -2 -3 8 5 -13)
1969/12/31/18:00:14.977,(-2 -7 3 3 1 6 9 9)
1969/12/31/18:00:14.982,(18 2 -3 -1 -3 -9 -6 -22)
1969/12/31/18:00:14.982,(-6 -7 -4 -4 -5 -10 -7 -4)
1969/12/31/18:00:14.983,(45 35 14 9 11 21 28 81)
1969/12/31/18:00:14.983,(-28 -15 -11 -8 -9 -16 -26 -62)
1969/12/31/18:00:14.990,(-26 -19 -10 -8 -6 -12 -17 -27)
1969/12/31/18:00:14.990,(32 15 5 0 -1 0 3 1)
1969/12/31/18:00:15.007,(-3 4 3 3 1 12 6 8)
1969/12/31/18:00:15.007,(-16 -19 -4 -3 1 -2 -2 5)
1969/12/31/18:00:15.008,(-46 -12 -2 -4 -5 -11 -19 -71)
1969/12/31/18:00:15.009,(9 8 -1 -3 -5 -6 -9 -12)
1969/12/31/18:00:15.031,(5 6 -3 -2 1 6 8 15)
1969/12/31/18:00:15.031,(-26 -14 -10 -2 -3 -4 -9 -18)
1969/12/31/18:00:15.042,(-2 -12 -16 -7 -8 -10 -9 -2)
1969/12/31/18:00:15.042,(3 0 16 5 3 3 9 -2)
1969/12/31/18:00:15.048,(-9 14 11 5 2 0 -13 -29)
1969/12/31/18:00:15.048,(-13 -10 -6 -4 -3 -7 2 -11)
1969/12/31/18:00:15.059,(24 13 2 1 2 4 2 23)
1969/12/31/18:00:15.059,(-22 -4 -4 0 -2 -4 -11 -40)
1969/12/31/18:00:15.076,(25 -8 -13 -8 -6 2 10 16)
1969/12/31/18:00:15.076,(-30 7 11 1 -1 -5 -9 -4)
1969/12/31/18:00:15.078,(2 -11 -5 3 6 8 22 37)
1969/12/31/18:00:15.078,(-8 -41 -27 -12 -11 -14 -48 -46)
1969/12/31/18:00:15.120,(-1 28 16 3 -1 2 0 1)
1969/12/31/18:00:15.121,(-3 15 9 2 -2 -2 -7 -15)
1969/12/31/18:00:15.122,(4 -5 -25 -11 -1 3 -2 5)
1969/12/31/18:00:15.122,(5 43 38 11 -1 -2 18 24)
1969/12/31/18:00:15.127,(-8 -18 5 8 4 4 -1 15)
1969/12/31/18:00:15.127,(-5 -56 -54 -21 -12 -9 -14 -19)
1969/12/31/18:00:15.128,(9 0 -5 -4 -3 -1 11 9)
1969/12/31/18:00:15.128,(6 67 65 22 11 6 -10 -4)
1969/12/31/18:00:15.144,(-3 -14 -19 -7 -4 -3 15 4)
1969/12/31/18:00:15.144,(-6 13 20 8 6 3 -6 0)
1969/12/31/18:00:15.145,(-2 -8 -9 -6 -4 -1 5 -1)
1969/12/31/18:00:15.145,(12 -17 -24 -7 -2 1 3 12)
1969/12/31/18:00:15.170,(-7 3 1 -6 -8 -5 -14 -10)
1969/12/31/18:00:15.170,(-1 -47 -46 -12 -1 7 18 6)
1969/12/31/18:00:15.170,(-1 40 54 20 6 -3 1 -3)
1969/12/31/18:00:15.170,(3 -14 -34 -14 -8 -6 -14 1)
1969/12/31/18:00:15.196,(-12 38 54 21 10 4 0 1)
1969/12/31/18:00:15.196,(6 -8 -9 -2 -3 -6 8 5)
1969/12/31/18:00:15.197,(2 10 9 3 0 2 -4 -7)
1969/12/31/18:00:15.197,(4 -8 -5 0 1 0 4 2)
1969/12/31/18:00:15.213,(-4 -41 -30 -10 -5 -3 13 -2)
1969/12/31/18:00:15.213,(-3 20 10 -1 -1 -2 -14 -7)
1969/12/31/18:00:15.214,(1 4 2 -3 -5 -7 -5 2)
1969/12/31/18:00:15.214,(-2 11 8 2 1 0 -4 1)
1969/12/31/18:00:15.239,(-2 -36 -34 -15 -8 -3 2 2)
1969/12/31/18:00:15.239,(-1 12 22 11 4 4 0 -2)
1969/12/31/18:00:15.240,(0 13 7 -2 -1 -1 -1 2)
1969/12/31/18:00:15.240,(3 -32 -25 -9 -2 6 14 12)
1969/12/31/18:00:15.293,(4 -30 -25 -8 -3 -4 3 3)
1969/12/31/18:00:15.293,(-5 88 60 20 5 1 -1 -8)
1969/12/31/18:00:15.294,(-2 -43 -26 -15 -9 -6 -14 -7)
1969/12/31/18:00:15.294,(-1 25 5 9 0 -3 0 -5)
1969/12/31/18:00:15.296,(0 6 4 2 -3 5 1 3)
1969/12/31/18:00:15.296,(-4 -38 -27 -16 -7 -7 -9 -6)
1969/12/31/18:00:15.299,(-2 2 -2 6 2 3 3 -2)
1969/12/31/18:00:15.299,(-2 -5 1 -3 -5 -2 3 5)
1969/12/31/18:00:15.308,(5 -9 -29 -14 -4 -2 -8 2)
1969/12/31/18:00:15.308,(-1 -32 1 5 -1 4 0 -1)
1969/12/31/18:00:15.308,(-16 22 16 7 -1 -3 -5 -11)
1969/12/31/18:00:15.308,(1 -4 1 -2 -2 0 3 1)
1969/12/31/18:00:15.334,(2 5 4 4 1 0 -11 -3)
1969/12/31/18:00:15.334,(6 0 -4 -2 1 3 3 1)
1969/12/31/18:00:15.335,(-4 -16 -8 -1 -2 -5 -8 -3)
1969/12/31/18:00:15.335,(-1 1 2 -4 0 -2 6 7)
1969/12/31/18:00:15.351,(-5 1 1 -1 0 -6 -2 2)
1969/12/31/18:00:15.351,(2 9 -13 -5 3 -2 8 2)
1969/12/31/18:00:15.352,(12 -6 -41 -20 -7 -10 -5 2)
1969/12/31/18:00:15.352,(0 0 3 11 8 0 3 0)
1969/12/31/18:00:15.377,(-1 -2 7 3 4 3 8 6)
1969/12/31/18:00:15.377,(-13 -12 -18 -14 -7 -3 0 -4)
1969/12/31/18:00:15.377,(5 14 8 1 -2 -5 -6 -5)
1969/12/31/18:00:15.377,(7 -4 -1 8 5 0 6 4)
1969/12/31/18:00:15.403,(-1 10 12 8 2 -1 -1 2)
1969/12/31/18:00:15.403,(4 -2 -2 -2 -4 -2 1 2)
1969/12/31/18:00:15.404,(-10 -8 5 -8 -5 -5 -7 -10)
1969/12/31/18:00:15.404,(-7 -22 -49 -22 -10 -8 -6 -6)
1969/12/31/18:00:15.439,(4 54 54 23 9 7 6 -2)
1969/12/31/18:00:15.439,(1 -8 -21 -11 -4 -2 -8 0)
1969/12/31/18:00:15.441,(1 -24 6 3 0 3 3 4)
1969/12/31/18:00:15.441,(-4 30 21 -3 -5 -3 -5 -4)
1969/12/31/18:00:15.446,(-1 -20 -16 -10 -5 -4 -8 -3)
1969/12/31/18:00:15.446,(-7 -30 -9 1 -2 -2 0 -3)
1969/12/31/18:00:15.447,(9 33 23 13 4 3 0 3)
1969/12/31/18:00:15.447,(-10 -40 2 3 2 4 1 -2)
1969/12/31/18:00:15.481,(-2 -4 -9 -12 -8 -3 -4 -2)
1969/12/31/18:00:15.481,(1 10 16 11 6 5 2 -1)
1969/12/31/18:00:15.482,(-6 -13 -18 -9 -5 -4 -5 -4)
1969/12/31/18:00:15.482,(2 -4 7 4 1 1 2 0)
1969/12/31/18:00:15.489,(-11 -17 -16 -11 -6 0 -3 -5)
1969/12/31/18:00:15.489,(-2 -13 1 13 3 1 -2 -2)
1969/12/31/18:00:15.490,(3 0 -7 -1 1 3 2 4)
1969/12/31/18:00:15.490,(-1 2 3 0 -1 1 2 3)
1969/12/31/18:00:15.515,(0 5 2 0 1 -1 -2 -1)
1969/12/31/18:00:15.515,(-6 -8 -3 -5 -3 -4 2 2)
1969/12/31/18:00:15.516,(1 9 3 1 1 -1 1 2)
1969/12/31/18:00:15.516,(-2 -2 -8 -5 -2 -4 -1 -2)
1969/12/31/18:00:15.544,(1 -6 -3 0 1 0 1 3)
1969/12/31/18:00:15.544,(1 12 5 -1 0 -3 -2 -2)
1969/12/31/18:00:15.545,(-2 5 9 4 1 -1 1 -2)
1969/12/31/18:00:15.545,(-1 6 0 -4 -1 -1 -2 -2)
1969/12/31/18:00:15.545,(-3 -3 -3 -4 -4 -1 -1 -1)
1969/12/31/18:00:15.545,(0 -3 0 3 1 -1 -1 -2)
1969/12/31/18:00:15.546,(-2 -2 -3 0 1 0 0 0)
1969/12/31/18:00:15.546,(-1 0 3 0 1 -1 1 2)
1969/12/31/18:00:15.607,(1 2 0 -1 -2 -3 -1 1)
1969/12/31/18:00:15.607,(2 0 0 1 -1 0 -1 -2)
1969/12/31/18:00:15.608,(-3 -6 -9 -10 -5 -2 -3 -4)
1969/12/31/18:00:15.608,(0 -4 -3 -6 -3 -1 -3 -1)
1969/12/31/18:00:15.610,(2 5 7 10 2 -1 1 0)
1969/12/31/18:00:15.610,(-1 3 4 4 1 0 -1 1)
1969/12/31/18:00:15.615,(0 4 8 8 1 0 0 1)
1969/12/31/18:00:15.615,(-3 -12 -11 -9 -5 -1 1 -1)
1969/12/31/18:00:15.618,(-3 2 -6 -12 -6 -3 -2 -3)
1969/12/31/18:00:15.618,(-4 -8 -13 -17 -5 -3 -2 -1)
1969/12/31/18:00:15.619,(2 8 9 14 2 3 1 1)
1969/12/31/18:00:15.619,(3 12 20 16 6 2 1 3)
1969/12/31/18:00:15.630,(-3 -7 7 2 0 -2 -3 -1)
1969/12/31/18:00:15.630,(-4 -9 -27 -18 -5 -5 -3 -2)
1969/12/31/18:00:15.639,(-7 -23 -34 -40 -14 -6 -2 -1)
1969/12/31/18:00:15.639,(-2 5 -10 -11 -6 -2 1 3)
1969/12/31/18:00:15.657,(2 11 41 38 12 1 -5 -9)
1969/12/31/18:00:15.657,(10 -2 30 29 11 6 5 8)
1969/12/31/18:00:15.666,(3 42 29 17 9 4 2 -3)
1969/12/31/18:00:15.666,(-3 -14 -29 -22 -5 -1 2 3)
1969/12/31/18:00:15.683,(-5 -14 -24 -8 -12 -6 -5 -7)
1969/12/31/18:00:15.683,(0 0 -3 9 3 -2 -7 -5)
1969/12/31/18:00:15.684,(0 -4 35 -4 -3 -2 -1 -4)
1969/12/31/18:00:15.684,(4 3 -2 10 3 1 1 7)
1969/12/31/18:00:15.699,(-6 -13 -43 -46 -9 -2 1 2)
1969/12/31/18:00:15.699,(-12 -16 -50 -11 -7 -2 -2 -4)
1969/12/31/18:00:15.708,(-4 -18 -6 -28 -8 -6 -5 -3)
1969/12/31/18:00:15.708,(4 25 66 33 7 3 -1 -2)
1969/12/31/18:00:15.726,(5 7 -1 7 4 2 3 3)
1969/12/31/18:00:15.726,(7 25 40 35 9 3 3 4)
1969/12/31/18:00:15.760,(-2 2 10 -10 -2 2 -1 1)
1969/12/31/18:00:15.760,(-5 -15 -5 4 -4 -3 -5 -6)
1969/12/31/18:00:15.773,(3 14 6 44 14 2 -1 -3)
1969/12/31/18:00:15.773,(2 5 10 -4 0 0 0 -1)
1969/12/31/18:00:15.774,(8 17 -6 19 12 3 3 5)
1969/12/31/18:00:15.774,(-12 -24 -17 -29 -14 -7 -2 -6)
1969/12/31/18:00:15.777,(-9 -30 -60 -67 -23 -12 -13 -11)
1969/12/31/18:00:15.777,(-15 -31 -80 -70 -24 -11 -7 -8)
1969/12/31/18:00:15.779,(6 4 28 41 14 5 4 3)
1969/12/31/18:00:15.779,(15 49 82 73 22 6 3 5)
1969/12/31/18:00:15.795,(-1 -8 -68 -30 -7 1 2 5)
1969/12/31/18:00:15.795,(-1 8 97 21 -1 -4 -7 -6)
1969/12/31/18:00:15.804,(-1 -8 -38 7 -2 -1 -2 -1)
1969/12/31/18:00:15.804,(-4 -10 -28 -15 -3 -2 -4 -5)
1969/12/31/18:00:15.821,(-5 -9 -21 -17 -3 3 8 8)
1969/12/31/18:00:15.821,(3 2 1 18 0 -4 -5 -4)
1969/12/31/18:00:15.822,(-4 0 35 17 6 0 0 -1)
1969/12/31/18:00:15.822,(-4 -5 -10 -16 -4 -3 -5 -7)
1969/12/31/18:00:15.837,(4 -2 -5 1 1 1 3 11)
1969/12/31/18:00:15.837,(-11 -20 -52 -38 -10 -3 -3 -8)
1969/12/31/18:00:15.846,(-5 4 -5 -11 -5 -2 -1 -5)
1969/12/31/18:00:15.846,(-5 -11 -45 -1 -5 -5 -6 -6)
1969/12/31/18:00:15.864,(6 7 106 39 6 0 -3 0)
1969/12/31/18:00:15.864,(3 18 -5 5 7 6 7 8)
1969/12/31/18:00:15.873,(5 16 7 17 -1 -1 1 3)
1969/12/31/18:00:15.873,(8 19 7 0 6 4 5 4)
1969/12/31/18:00:15.918,(-4 -7 -5 4 -2 -2 0 -2)
1969/12/31/18:00:15.918,(-8 -49 -1 -5 -7 -2 -2 -3)
1969/12/31/18:00:15.919,(2 23 -26 -7 -3 -4 -8 -8)
1969/12/31/18:00:15.919,(-8 -19 -20 -19 -6 0 0 -1)
1969/12/31/18:00:15.926,(6 16 31 19 5 3 -1 -4)
1969/12/31/18:00:15.926,(1 9 8 2 1 0 -3 -1)
1969/12/31/18:00:15.926,(-6 -19 -33 -28 -12 -3 -5 -5)
1969/12/31/18:00:15.926,(-2 -6 -2 0 -2 0 0 1)
1969/12/31/18:00:15.933,(2 5 20 10 0 1 -2 -3)
1969/12/31/18:00:15.933,(1 10 -11 -8 -1 1 0 1)
1969/12/31/18:00:15.942,(-4 -21 -6 0 -2 -1 -2 -1)
1969/12/31/18:00:15.942,(-2 0 12 4 1 -1 -3 -4)
1969/12/31/18:00:15.958,(-2 1 -14 -10 -1 -1 -2 -4)
1969/12/31/18:00:15.958,(5 10 4 6 0 -1 2 1)
1969/12/31/18:00:15.967,(-3 -6 2 3 1 1 2 0)
1969/12/31/18:00:15.967,(-4 -8 -13 -13 -5 -4 2 2)
1969/12/31/18:00:15.975,(1 6 -4 -3 0 -1 -5 -7)
1969/12/31/18:00:15.975,(2 4 8 9 4 -1 2 3)
1969/12/31/18:00:15.984,(-1 -9 -3 -4 -4 -3 5 3)
1969/12/31/18:00:15.984,(0 -2 -14 -12 -2 -4 -4 -3)
1969/12/31/18:00:16.002,(-6 -5 -2 -1 -2 -1 4 2)
1969/12/31/18:00:16.002,(4 11 12 6 2 0 0 0)
1969/12/31/18:00:16.011,(7 -8 -15 -13 -4 -3 -4 0)
1969/12/31/18:00:16.011,(6 3 3 2 0 2 -4 -1)
1969/12/31/18:00:16.027,(-12 -2 7 5 1 -5 -7 -12)
1969/12/31/18:00:16.027,(-4 4 3 0 0 0 1 1)
1969/12/31/18:00:16.036,(5 -2 -6 -4 -3 -1 3 6)
1969/12/31/18:00:16.036,(-24 -12 -10 -2 -2 -1 -3 -10)
1969/12/31/18:00:16.080,(17 9 6 1 1 3 9 18)
1969/12/31/18:00:16.080,(7 4 -3 0 0 0 4 10)
1969/12/31/18:00:16.081,(-21 -16 -8 -7 -7 -8 -7 -17)
1969/12/31/18:00:16.081,(-14 -3 2 4 4 -4 -12 -11)
1969/12/31/18:00:16.091,(-10 -2 -6 -4 -1 2 3 -6)
1969/12/31/18:00:16.091,(11 4 -1 -1 3 1 0 -1)
1969/12/31/18:00:16.092,(-10 -10 -5 -5 -7 -12 0 0)
1969/12/31/18:00:16.092,(42 12 3 -1 5 9 0 21)
1969/12/31/18:00:16.096,(15 12 5 3 0 -23 -11 -6)
1969/12/31/18:00:16.096,(-23 -4 3 2 -1 12 -12 -23)
1969/12/31/18:00:16.105,(43 10 7 3 4 6 -1 20)
1969/12/31/18:00:16.105,(-10 -6 -8 -5 -3 33 41 1)
1969/12/31/18:00:16.122,(10 -4 -7 -5 -8 -33 -10 12)
1969/12/31/18:00:16.123,(-51 -14 -3 1 8 -4 -26 -25)
1969/12/31/18:00:16.123,(28 16 4 0 4 -20 14 -1)
1969/12/31/18:00:16.123,(20 7 4 -2 -11 -14 -25 6)
1969/12/31/18:00:16.140,(22 4 6 2 -6 -9 8 15)
1969/12/31/18:00:16.140,(1 -4 1 2 6 49 2 -28)
1969/12/31/18:00:16.149,(-7 -2 3 2 -12 -69 -48 -13)
1969/12/31/18:00:16.149,(8 -9 -8 -5 -3 54 4 3)
1969/12/31/18:00:16.165,(-27 -4 2 3 -1 -22 12 3)
1969/12/31/18:00:16.165,(-5 -26 -12 -7 -6 9 7 27)
1969/12/31/18:00:16.174,(37 26 13 8 3 50 10 -18)
1969/12/31/18:00:16.174,(-37 -13 -15 -6 14 -11 6 7)
1969/12/31/18:00:16.200,(-26 -9 5 8 0 -46 -48 -41)
1969/12/31/18:00:16.200,(38 20 5 -9 -36 33 19 21)
1969/12/31/18:00:16.202,(22 13 5 13 8 -34 -16 21)
1969/12/31/18:00:16.202,(-1 14 11 16 52 34 16 -25)
1969/12/31/18:00:16.236,(-23 -4 -9 -5 13 19 -25 -6)
1969/12/31/18:00:16.236,(14 -14 4 -4 -63 -35 -1 -4)
1969/12/31/18:00:16.237,(-9 -8 -6 -7 -4 26 10 -15)
1969/12/31/18:00:16.237,(29 -1 -4 9 57 -11 -12 19)
1969/12/31/18:00:16.238,(-38 -30 -19 -11 8 27 5 -23)
1969/12/31/18:00:16.238,(-48 -19 -16 -14 -27 -52 0 -26)
1969/12/31/18:00:16.243,(-19 -12 -6 -8 -12 35 -12 7)
1969/12/31/18:00:16.244,(-2 -5 -3 -15 -49 -81 -3 -5)
1969/12/31/18:00:16.260,(38 2 3 -2 -9 68 9 22)
1969/12/31/18:00:16.260,(13 10 4 10 40 -32 25 32)
1969/12/31/18:00:16.261,(-7 13 13 17 8 23 -69 -76)
1969/12/31/18:00:16.261,(-43 1 0 -2 10 -9 12 45)
1969/12/31/18:00:16.277,(1 -12 -15 -20 -29 -39 15 1)
1969/12/31/18:00:16.277,(15 20 10 10 10 -18 -14 11)
1969/12/31/18:00:16.287,(-23 -1 -10 -3 22 43 40 13)
1969/12/31/18:00:16.287,(15 -10 3 -3 -28 14 -37 -19)
1969/12/31/18:00:16.303,(-59 -32 -1 0 -16 -18 19 9)
1969/12/31/18:00:16.303,(4 9 -11 -9 18 2 -14 -26)
1969/12/31/18:00:16.312,(-49 -32 -10 -7 2 -18 22 -19)
1969/12/31/18:00:16.312,(28 18 -3 -8 -21 -14 -25 -28)
1969/12/31/18:00:16.329,(-25 -20 -10 -5 13 70 47 37)
1969/12/31/18:00:16.329,(17 15 12 15 18 -46 -39 -28)
1969/12/31/18:00:16.330,(-9 -7 -2 -3 1 94 40 30)
1969/12/31/18:00:16.330,(7 8 2 -2 -24 -38 9 45)
1969/12/31/18:00:16.346,(3 -7 -1 4 12 -35 -6 -33)
1969/12/31/18:00:16.346,(23 8 2 -2 5 13 -8 9)
1969/12/31/18:00:16.356,(-7 9 2 -5 -17 -67 -32 34)
1969/12/31/18:00:16.356,(-13 -18 -6 0 7 15 21 -28)
1969/12/31/18:00:16.401,(24 16 -2 -2 -5 20 -14 -28)
1969/12/31/18:00:16.401,(-69 -29 -15 -10 -29 43 20 -16)
1969/12/31/18:00:16.402,(6 -6 -4 -3 7 -74 -13 22)
1969/12/31/18:00:16.402,(-31 -17 -5 -5 -5 20 -32 -38)
1969/12/31/18:00:16.403,(-7 23 16 13 8 -21 -1 -8)
1969/12/31/18:00:16.403,(63 32 13 9 9 47 6 17)
1969/12/31/18:00:16.407,(-32 -56 -25 -16 -19 -68 -24 5)
1969/12/31/18:00:16.407,(3 12 8 3 -8 -13 49 14)
1969/12/31/18:00:16.415,(24 1 -2 -3 -4 21 -43 21)
1969/12/31/18:00:16.415,(-14 0 -6 -3 4 -46 -14 38)
1969/12/31/18:00:16.425,(-40 -18 -5 0 0 2 7 -56)
1969/12/31/18:00:16.425,(9 -5 -2 1 -4 -30 10 23)
1969/12/31/18:00:16.441,(12 8 1 0 13 76 -2 -4)
1969/12/31/18:00:16.441,(16 7 -2 -2 0 -17 5 1)
1969/12/31/18:00:16.450,(38 13 3 -2 -2 -9 17 42)
1969/12/31/18:00:16.450,(-11 0 2 -1 -10 -17 -16 -35)
1969/12/31/18:00:16.467,(-24 -13 -4 -4 -7 -28 -56 -67)
1969/12/31/18:00:16.467,(-7 -9 -8 -5 2 -40 -14 15)
1969/12/31/18:00:16.478,(1 7 6 -3 -9 50 26 14)
1969/12/31/18:00:16.478,(-24 -3 -1 9 15 42 -19 -65)
1969/12/31/18:00:16.492,(30 26 6 2 -2 -9 45 7)
1969/12/31/18:00:16.492,(-6 -3 1 1 2 -7 -6 23)
1969/12/31/18:00:16.503,(-17 -13 -5 -3 2 -8 3 -75)
1969/12/31/18:00:16.503,(23 23 8 1 -2 31 0 28)
1969/12/31/18:00:16.520,(-72 -38 -11 -6 -11 -32 8 -32)
1969/12/31/18:00:16.520,(-27 -7 2 3 12 46 29 3)
1969/12/31/18:00:16.522,(31 27 4 -1 -8 17 27 53)
1969/12/31/18:00:16.522,(-1 -21 -1 0 -2 -3 20 67)
1969/12/31/18:00:16.556,(35 10 -12 -10 -7 -6 -43 10)
1969/12/31/18:00:16.556,(-14 -10 0 -3 -5 -6 28 -9)
1969/12/31/18:00:16.557,(21 17 2 -1 -1 -2 -14 -7)
1969/12/31/18:00:16.557,(18 11 3 -16 -82 -14 -1 1)
1969/12/31/18:00:16.561,(35 12 12 29 82 -16 36 39)
1969/12/31/18:00:16.561,(27 -6 0 7 16 40 14 90)
1969/12/31/18:00:16.572,(-42 -29 -14 -4 6 10 -18 -37)
1969/12/31/18:00:16.572,(15 8 0 -6 -2 17 38 -1)
1969/12/31/18:00:16.589,(36 27 8 -8 -44 -29 -38 32)
1969/12/31/18:00:16.589,(7 -11 -4 -4 5 35 -30 -47)
1969/12/31/18:00:16.590,(-19 0 0 -1 0 -27 8 10)
1969/12/31/18:00:16.590,(8 -4 -2 5 19 5 -14 -15)
1969/12/31/18:00:16.616,(-3 8 6 3 2 23 16 10)
1969/12/31/18:00:16.616,(21 20 4 -1 -27 -28 -14 -24)
1969/12/31/18:00:16.617,(6 3 2 2 28 11 1 8)
1969/12/31/18:00:16.617,(0 2 2 3 1 8 5 43)
1969/12/31/18:00:16.641,(44 0 -1 1 27 -28 12 9)
1969/12/31/18:00:16.641,(-48 -26 -6 -3 -6 -3 0 -10)
1969/12/31/18:00:16.643,(-22 -11 -4 4 9 -22 -20 -60)
1969/12/31/18:00:16.643,(-17 -8 -5 10 13 69 22 -34)
1969/12/31/18:00:16.658,(-13 21 -1 -30 -76 -35 -18 28)
1969/12/31/18:00:16.658,(7 -10 -4 -5 -9 -76 11 7)
1969/12/31/18:00:16.659,(3 -1 -2 11 44 62 -5 -4)
1969/12/31/18:00:16.659,(3 -8 -5 -3 12 -56 -31 -19)
1969/12/31/18:00:16.684,(48 25 11 0 -41 10 39 68)
1969/12/31/18:00:16.684,(-36 -27 -19 -16 11 8 -25 -106)
1969/12/31/18:00:16.686,(21 25 13 7 -13 -12 0 51)
1969/12/31/18:00:16.686,(51 22 12 4 -11 -31 4 44)
1969/12/31/18:00:16.719,(-4 1 3 17 58 54 16 -14)
1969/12/31/18:00:16.719,(-22 -19 -6 -4 -5 -1 -8 -24)
1969/12/31/18:00:16.721,(23 10 5 4 2 -43 24 37)
1969/12/31/18:00:16.721,(-41 -10 -4 2 3 75 -3 -92)
1969/12/31/18:00:16.727,(-17 5 -6 -8 -12 -60 -35 -30)
1969/12/31/18:00:16.727,(28 23 11 -3 -67 32 35 58)
1969/12/31/18:00:16.728,(-21 -10 -9 -1 51 10 -10 -22)
1969/12/31/18:00:16.728,(-52 -43 -25 -29 -5 -50 -59 -62)
1969/12/31/18:00:16.753,(-36 -19 -2 11 48 46 32 3)
1969/12/31/18:00:16.753,(17 23 8 10 -17 -13 -8 -12)
1969/12/31/18:00:16.755,(42 25 7 2 -35 16 44 51)
1969/12/31/18:00:16.755,(-11 -27 -10 -5 10 -8 -15 -20)
1969/12/31/18:00:16.768,(-1 -6 -8 -20 -53 -30 -16 -20)
1969/12/31/18:00:16.768,(-34 -19 -5 0 58 6 -16 -52)
1969/12/31/18:00:16.779,(33 43 8 14 9 60 24 31)
1969/12/31/18:00:16.779,(-29 -48 -14 0 -23 -25 3 19)
1969/12/31/18:00:16.796,(25 34 11 -3 -24 12 7 5)
1969/12/31/18:00:16.796,(12 -31 -26 -17 -7 9 7 19)
1969/12/31/18:00:16.798,(-46 -46 -27 -16 -22 -31 -38 -90)
1969/12/31/18:00:16.798,(53 103 100 49 39 22 17 29)
1969/12/31/18:00:16.822,(4 -42 -55 -16 1 12 -3 7)
1969/12/31/18:00:16.822,(34 1 -36 -10 7 -13 15 39)
1969/12/31/18:00:16.824,(-10 13 79 35 40 23 -12 4)
1969/12/31/18:00:16.824,(0 20 -30 -15 -21 -6 -12 -29)
1969/12/31/18:00:16.837,(3 -5 25 -5 -23 -3 9 -26)
1969/12/31/18:00:16.837,(-15 26 -23 -9 -10 -45 -12 -50)
1969/12/31/18:00:16.876,(9 -101 -89 -68 -93 -34 -14 30)
1969/12/31/18:00:16.876,(-23 -20 14 10 -14 -35 -14 -4)
1969/12/31/18:00:16.876,(-15 34 21 12 40 46 17 -25)
1969/12/31/18:00:16.876,(-77 -36 19 12 2 14 11 -21)
1969/12/31/18:00:16.881,(-4 63 15 -11 -21 -18 -11 -11)
1969/12/31/18:00:16.881,(14 -46 -41 -12 8 -7 -2 12)
1969/12/31/18:00:16.891,(11 -5 -52 -8 17 14 12 -11)
1969/12/31/18:00:16.891,(-20 58 127 71 51 25 13 42)
1969/12/31/18:00:16.893,(-20 -64 -38 -13 -31 -14 1 4)
1969/12/31/18:00:16.893,(34 78 -43 -15 23 10 17 67)
1969/12/31/18:00:16.906,(75 22 73 31 35 21 35 77)
1969/12/31/18:00:16.906,(-35 -78 -93 -16 -14 23 -3 -65)
1969/12/31/18:00:16.917,(-23 95 72 -5 -48 -55 -43 -37)
1969/12/31/18:00:16.917,(22 -5 11 5 24 17 7 10)
1969/12/31/18:00:16.934,(24 -56 -116 -54 -62 -54 -31 14)
1969/12/31/18:00:16.934,(29 102 125 54 56 41 27 58)
1969/12/31/18:00:16.936,(-36 -115 -96 -41 -31 -20 -35 -74)
1969/12/31/18:00:16.936,(-28 -22 -31 -21 -8 4 -4 -17)
1969/12/31/18:00:16.960,(-12 105 92 37 16 21 14 23)
1969/12/31/18:00:16.960,(58 -76 -75 -26 -55 -40 -22 28)
1969/12/31/18:00:16.962,(67 64 4 -9 -4 3 23 95)
1969/12/31/18:00:16.962,(-37 62 83 45 44 6 2 22)
1969/12/31/18:00:16.975,(-58 -128 -49 -5 6 12 -1 -55)
1969/12/31/18:00:16.975,(-4 46 -63 -35 -4 -6 -36 -58)
1969/12/31/18:00:16.986,(-12 -36 67 40 43 30 15 -9)
1969/12/31/18:00:16.986,(23 -56 -92 -44 -37 -27 10 53)
1969/12/31/18:00:17.003,(-2 101 111 45 21 19 10 28)
1969/12/31/18:00:17.003,(-72 -26 -8 -25 -16 -15 -27 -20)
1969/12/31/18:00:17.005,(22 44 -7 10 50 30 -7 -91)
1969/12/31/18:00:17.005,(18 -81 -55 -17 -38 -35 -16 65)
1969/12/31/18:00:17.048,(-43 -26 5 -5 -8 -2 -37 -87)
1969/12/31/18:00:17.048,(48 -2 -9 0 -10 -3 -14 1)
1969/12/31/18:00:17.049,(1 20 -10 -19 -54 4 54 45)
1969/12/31/18:00:17.049,(-39 96 107 16 -28 -19 -10 -65)
1969/12/31/18:00:17.050,(34 -96 -101 -19 11 2 -8 54)
1969/12/31/18:00:17.050,(3 57 46 15 21 -3 -30 -64)
1969/12/31/18:00:17.055,(-14 -3 15 49 73 36 17 53)
1969/12/31/18:00:17.055,(79 -65 -65 -31 -14 3 -5 21)
1969/12/31/18:00:17.072,(-29 -53 -36 -16 -2 3 9 28)
1969/12/31/18:00:17.072,(39 104 58 15 0 9 41 72)
1969/12/31/18:00:17.073,(-28 -44 -36 -9 -10 -20 -34 -39)
1969/12/31/18:00:17.073,(-13 -10 -12 5 13 18 23 21)
1969/12/31/18:00:17.098,(-53 -23 -10 1 13 -4 5 -30)
1969/12/31/18:00:17.098,(22 -118 -104 -41 12 31 10 19)
1969/12/31/18:00:17.100,(-3 87 97 53 31 19 22 33)
1969/12/31/18:00:17.100,(-37 9 20 -18 -61 -17 -8 -74)
1969/12/31/18:00:17.113,(9 36 0 -16 -20 -1 -21 -77)
1969/12/31/18:00:17.113,(-16 41 28 16 18 5 11 -20)
1969/12/31/18:00:17.124,(19 -47 -5 -1 -33 -41 -14 -5)
1969/12/31/18:00:17.124,(24 -31 -13 11 31 1 -51 -43)
1969/12/31/18:00:17.141,(-4 19 -2 8 31 11 14 22)
1969/12/31/18:00:17.141,(9 -7 13 -16 -7 -8 -33 -6)
1969/12/31/18:00:17.143,(21 -91 -106 -25 -21 0 20 52)
1969/12/31/18:00:17.143,(-5 98 62 13 22 7 19 40)
1969/12/31/18:00:17.195,(25 -3 -28 -2 -19 -14 -6 18)
1969/12/31/18:00:17.195,(-1 -21 16 10 21 2 10 42)
1969/12/31/18:00:17.196,(-31 -49 -13 7 18 27 21 27)
1969/12/31/18:00:17.196,(-18 -55 -93 -43 -2 -12 -21 -55)
1969/12/31/18:00:17.197,(-14 32 54 21 -17 -5 6 12)
1969/12/31/18:00:17.197,(-13 23 57 13 -17 10 24 2)
1969/12/31/18:00:17.202,(-6 -39 -49 -18 -12 -45 -18 -22)
1969/12/31/18:00:17.202,(-20 -39 -3 21 88 45 15 -27)
1969/12/31/18:00:17.210,(18 46 17 -5 -26 9 -10 -3)
1969/12/31/18:00:17.210,(8 -46 -56 -23 -30 -7 -13 -1)
1969/12/31/18:00:17.217,(-5 8 17 4 26 11 6 -5)
1969/12/31/18:00:17.217,(-6 29 48 20 -31 -15 -7 6)
1969/12/31/18:00:17.236,(-10 44 35 7 26 -24 -23 -10)
1969/12/31/18:00:17.236,(-25 -2 -12 -4 3 -3 6 -15)
1969/12/31/18:00:17.237,(-7 -13 -51 -45 -65 -26 -26 -47)
1969/12/31/18:00:17.237,(-5 13 48 28 33 22 37 47)
1969/12/31/18:00:17.262,(48 -60 -57 -9 -3 -8 -3 3)
1969/12/31/18:00:17.262,(0 80 79 44 47 14 -18 -2)
1969/12/31/18:00:17.264,(-11 92 76 28 42 38 -6 -45)
1969/12/31/18:00:17.264,(36 -53 -64 -47 -83 -66 -21 -7)
1969/12/31/18:00:17.279,(-69 -36 -21 -20 -59 -44 -3 -63)
1969/12/31/18:00:17.279,(-7 -60 -37 -23 -40 -29 2 37)
1969/12/31/18:00:17.286,(10 -4 -26 -13 28 34 13 -10)
1969/12/31/18:00:17.286,(38 49 30 27 23 24 30 38)
1969/12/31/18:00:17.305,(-40 -73 -7 4 16 6 -5 -13)
1969/12/31/18:00:17.305,(12 39 -28 -9 21 2 23 21)
1969/12/31/18:00:17.306,(-18 51 20 -6 -65 -30 -11 -21)
1969/12/31/18:00:17.306,(-37 -17 16 3 -8 -2 -13 -19)
1969/12/31/18:00:17.358,(36 64 34 15 35 23 12 8)
1969/12/31/18:00:17.358,(26 0 4 1 -22 -3 19 55)
1969/12/31/18:00:17.359,(13 -48 -16 3 27 -2 -3 25)
1969/12/31/18:00:17.361,(-35 12 -12 -3 -1 0 -38 -81)
1969/12/31/18:00:17.361,(-19 -15 -6 5 -2 0 -16 -19)
1969/12/31/18:00:17.361,(-24 -1 11 2 20 17 9 -21)
1969/12/31/18:00:17.365,(34 60 15 8 -3 -14 7 7)
1969/12/31/18:00:17.365,(3 30 26 20 3 11 5 -4)
1969/12/31/18:00:17.374,(65 -19 6 25 58 15 -15 27)
1969/12/31/18:00:17.374,(-36 -26 -38 -40 -81 -43 -29 -63)
1969/12/31/18:00:17.375,(35 -47 -51 -4 103 71 32 18)
1969/12/31/18:00:17.375,(-25 -86 -62 -40 -89 -65 11 34)
1969/12/31/18:00:17.400,(13 127 122 46 7 4 -12 45)
1969/12/31/18:00:17.400,(4 -69 -38 6 21 8 27 28)
1969/12/31/18:00:17.402,(13 -7 3 4 12 -4 -30 -4)
1969/12/31/18:00:17.402,(2 64 67 31 69 83 42 71)
1969/12/31/18:00:17.417,(35 -27 -49 -28 -70 -59 3 18)
1969/12/31/18:00:17.417,(39 19 13 5 14 3 -21 -14)
1969/12/31/18:00:17.424,(-59 -6 33 11 -34 0 37 53)
1969/12/31/18:00:17.424,(-26 17 -24 -20 7 4 -9 1)
1969/12/31/18:00:17.443,(-36 -30 2 1 14 32 -1 -33)
1969/12/31/18:00:17.443,(-14 -27 -23 18 36 -25 4 -23)
1969/12/31/18:00:17.444,(39 19 -25 -34 -95 -43 -47 12)
1969/12/31/18:00:17.444,(-33 -43 7 3 -3 -19 12 -10)
1969/12/31/18:00:17.469,(12 0 -19 -13 38 41 1 -40)
1969/12/31/18:00:17.469,(23 -19 -10 4 33 23 2 12)
1969/12/31/18:00:17.471,(4 -2 -15 6 -34 -39 -9 2)
1969/12/31/18:00:17.471,(-20 15 -1 -9 21 12 -32 -49)
1969/12/31/18:00:17.513,(0 56 37 -1 -64 -49 -10 -4)
1969/12/31/18:00:17.513,(-33 -10 -18 -17 -19 9 -2 -14)
1969/12/31/18:00:17.516,(40 67 38 39 80 53 57 64)
1969/12/31/18:00:17.516,(-7 -91 -58 -19 -65 -58 -26 -46)
1969/12/31/18:00:17.517,(-10 14 -3 -26 -15 -20 -27 -5)
1969/12/31/18:00:17.517,(-5 49 29 13 5 14 2 12)
1969/12/31/18:00:17.520,(20 -67 -48 -7 20 25 32 23)
1969/12/31/18:00:17.520,(32 70 26 -16 -42 -43 -51 -11)
1969/12/31/18:00:17.538,(-54 -110 -71 -16 35 17 5 -45)
1969/12/31/18:00:17.538,(35 -14 11 31 -10 -22 7 51)
1969/12/31/18:00:17.539,(-3 105 75 3 21 33 -12 -60)
1969/12/31/18:00:17.539,(-1 -67 -26 -27 -42 -33 -20 30)
1969/12/31/18:00:17.554,(55 -11 -60 -13 7 0 40 58)
1969/12/31/18:00:17.554,(-54 50 73 -1 -18 11 -17 -33)
1969/12/31/18:00:17.564,(-2 -45 -39 -11 30 26 3 -1)
1969/12/31/18:00:17.564,(3 20 25 48 73 31 9 2)
1969/12/31/18:00:17.580,(11 37 40 18 -36 -18 13 36)
1969/12/31/18:00:17.580,(-7 -11 0 4 13 7 -11 -48)
1969/12/31/18:00:17.582,(3 -5 -7 -15 -36 -42 -16 -8)
1969/12/31/18:00:17.582,(1 46 48 18 70 70 38 33)
1969/12/31/18:00:17.607,(-42 -40 -50 -11 -33 -14 16 -19)
1969/12/31/18:00:17.607,(22 -27 -36 -19 -28 -1 -3 23)
1969/12/31/18:00:17.609,(-70 -5 38 -7 6 -33 -58 -71)
1969/12/31/18:00:17.609,(33 -13 -25 6 -4 6 14 22)
1969/12/31/18:00:17.623,(-9 -32 -26 -16 -1 17 23 20)
1969/12/31/18:00:17.623,(89 13 -30 -18 -6 -3 -16 64)
1969/12/31/18:00:17.633,(-94 -31 -23 -19 -31 -25 -14 -69)
1969/12/31/18:00:17.633,(32 54 52 37 44 38 24 40)
1969/12/31/18:00:17.686,(-43 64 52 25 37 -6 -7 -21)
1969/12/31/18:00:17.686,(-25 -59 -26 -20 -70 -39 20 13)
1969/12/31/18:00:17.687,(65 -17 -13 17 29 21 9 52)
1969/12/31/18:00:17.687,(-38 -53 -52 -38 -21 18 1 -44)
1969/12/31/18:00:17.688,(-14 -29 -27 -26 -15 -31 2 -2)
1969/12/31/18:00:17.688,(-7 73 56 11 -22 -8 7 -21)
1969/12/31/18:00:17.694,(-33 -19 -2 5 12 -5 33 35)
1969/12/31/18:00:17.694,(4 19 15 3 -13 -12 -42 -34)
1969/12/31/18:00:17.695,(59 46 17 15 53 66 20 81)
1969/12/31/18:00:17.695,(-29 -64 -55 -33 -27 -10 33 -19)
1969/12/31/18:00:17.702,(38 45 46 33 62 49 -4 3)
1969/12/31/18:00:17.702,(14 -117 -69 -34 -66 -30 32 40)
1969/12/31/18:00:17.719,(-13 28 -11 -4 -23 -26 -30 -24)
1969/12/31/18:00:17.719,(10 127 102 56 53 33 34 36)
1969/12/31/18:00:17.720,(29 5 9 5 -12 -14 -20 -8)
1969/12/31/18:00:17.720,(-6 -49 -13 6 18 11 3 48)
1969/12/31/18:00:17.745,(-25 -63 -32 -11 -6 -21 -19 -44)
1969/12/31/18:00:17.745,(-12 -55 -33 -16 8 -9 -26 -23)
1969/12/31/18:00:17.746,(10 -31 -52 -35 -57 -8 13 50)
1969/12/31/18:00:17.746,(-22 76 41 28 59 4 -14 -44)
1969/12/31/18:00:17.761,(18 18 28 20 29 50 51 43)
1969/12/31/18:00:17.761,(-85 -95 -65 -29 -37 -38 -36 -99)
1969/12/31/18:00:17.771,(4 -20 -16 -18 -38 -17 16 9)
1969/12/31/18:00:17.771,(14 -1 -30 -7 27 3 -8 -14)
1969/12/31/18:00:17.788,(-20 -27 -13 -17 -45 -29 7 10)
1969/12/31/18:00:17.788,(-6 92 106 47 37 23 -26 -29)
1969/12/31/18:00:17.789,(-20 23 -9 -22 -47 -25 -13 -29)
1969/12/31/18:00:17.789,(-44 -24 -7 0 -5 -23 11 -64)
1969/12/31/18:00:17.832,(24 -30 -27 -10 17 21 -33 -19)
1969/12/31/18:00:17.832,(28 -65 -89 -12 35 16 15 40)
1969/12/31/18:00:17.834,(-43 62 124 61 10 -2 -4 -10)
1969/12/31/18:00:17.834,(26 49 19 -5 2 26 4 -9)
1969/12/31/18:00:17.835,(-49 -62 -25 -6 -12 -50 -35 -48)
1969/12/31/18:00:17.835,(12 -30 -67 -41 -39 -21 2 8)
1969/12/31/18:00:17.840,(-15 22 19 -2 1 8 -28 5)
1969/12/31/18:00:17.840,(42 -30 -23 15 35 10 5 8)
1969/12/31/18:00:17.857,(-2 52 45 -10 -40 -10 -9 18)
1969/12/31/18:00:17.857,(-7 6 3 3 -3 16 17 -25)
1969/12/31/18:00:17.858,(53 -2 -37 -22 -40 -49 -15 41)
1969/12/31/18:00:17.858,(-32 -59 -23 -15 -10 4 -3 6)
1969/12/31/18:00:17.882,(56 69 55 30 39 8 -2 2)
1969/12/31/18:00:17.882,(-43 -23 -21 -14 -1 -10 -12 -7)
1969/12/31/18:00:17.884,(15 -22 4 21 65 51 15 -4)
1969/12/31/18:00:17.884,(70 84 15 2 -84 -56 -3 57)
1969/12/31/18:00:17.899,(-23 -66 -30 -12 -2 7 -20 -19)
1969/12/31/18:00:17.899,(26 25 50 29 36 17 -8 43)
1969/12/31/18:00:17.909,(-22 35 21 16 27 8 15 -32)
1969/12/31/18:00:17.909,(-21 -6 -11 3 15 7 -5 -17)
1969/12/31/18:00:17.925,(-24 3 0 -24 -70 -5 26 -3)
1969/12/31/18:00:17.925,(33 -15 -24 -27 -41 -23 4 21)
1969/12/31/18:00:17.927,(-45 -52 -49 -24 23 1 -21 -60)
1969/12/31/18:00:17.927,(-23 44 52 19 16 21 -15 -37)
1969/12/31/18:00:17.951,(34 15 6 40 32 -8 4 31)
1969/12/31/18:00:17.951,(39 13 6 12 28 14 -17 -12)
1969/12/31/18:00:17.954,(28 -20 -31 -6 -46 -27 0 8)
1969/12/31/18:00:17.954,(28 60 36 -1 -15 -16 3 5)
1969/12/31/18:00:18.014,(-32 -22 8 3 25 35 19 -2)
1969/12/31/18:00:18.014,(11 16 7 8 -4 -9 26 20)
1969/12/31/18:00:18.015,(-10 -21 -18 -19 -13 -8 -27 -36)
1969/12/31/18:00:18.015,(17 -14 -25 -14 5 6 12 10)
1969/12/31/18:00:18.016,(56 17 5 9 49 38 14 46)
1969/12/31/18:00:18.016,(4 15 17 7 -33 -18 -4 11)
1969/12/31/18:00:18.023,(-4 10 -1 -39 -64 -5 19 -25)
1969/12/31/18:00:18.023,(-43 -46 -22 -27 9 -15 -11 -31)
1969/12/31/18:00:18.024,(-9 2 5 21 -9 -15 -19 -19)
1969/12/31/18:00:18.024,(-8 -3 -10 28 86 35 1 14)
1969/12/31/18:00:18.027,(0 -8 21 18 10 7 10 15)
1969/12/31/18:00:18.027,(-13 -6 -9 -10 -45 -18 10 25)
1969/12/31/18:00:18.037,(-9 8 1 -20 -3 -8 -5 -21)
1969/12/31/18:00:18.037,(-16 -31 -18 -20 -19 -12 -2 -3)
1969/12/31/18:00:18.047,(22 12 -12 -8 -11 -1 -18 21)
1969/12/31/18:00:18.047,(-7 -28 -7 -2 15 9 16 22)
1969/12/31/18:00:18.064,(-3 11 4 -5 -6 -10 -6 -5)
1969/12/31/18:00:18.064,(-32 26 39 2 -10 7 -6 -29)
1969/12/31/18:00:18.065,(27 9 2 -24 -25 -31 -9 44)
1969/12/31/18:00:18.065,(44 39 21 67 88 86 35 59)
1969/12/31/18:00:18.089,(-47 -45 -25 -10 -44 -32 16 -48)
1969/12/31/18:00:18.089,(17 -5 -6 -20 -51 -4 -22 -18)
1969/12/31/18:00:18.091,(-2 -3 -2 -3 5 4 -25 -17)
1969/12/31/18:00:18.091,(17 7 -5 -10 -6 -27 28 18)
1969/12/31/18:00:18.106,(-34 -29 -12 14 31 56 1 -24)
1969/12/31/18:00:18.106,(3 7 2 -10 -24 -57 3 14)
1969/12/31/18:00:18.150,(23 5 -1 -3 5 -11 15 26)
1969/12/31/18:00:18.150,(-21 -14 -10 -16 -28 -18 -28 -33)
1969/12/31/18:00:18.152,(15 15 15 23 24 26 12 14)
1969/12/31/18:00:18.152,(17 6 -3 -1 12 16 7 12)
1969/12/31/18:00:18.154,(-4 -24 -12 28 23 -3 17 -18)
1969/12/31/18:00:18.154,(1 12 11 -9 -21 14 -25 13)
1969/12/31/18:00:18.158,(14 12 6 -14 -12 -22 -31 5)
1969/12/31/18:00:18.158,(37 19 4 4 23 19 14 72)
1969/12/31/18:00:18.161,(-38 -32 -12 -10 -9 13 14 -4)
1969/12/31/18:00:18.161,(9 0 -2 -2 0 -7 -1 6)
1969/12/31/18:00:18.175,(-37 -20 -10 -19 -19 -50 -26 -2)
1969/12/31/18:00:18.175,(21 16 7 5 23 108 30 25)
1969/12/31/18:00:18.185,(11 22 3 12 14 -13 -13 0)
1969/12/31/18:00:18.185,(-10 -6 -1 -1 -22 -28 2 -7)
1969/12/31/18:00:18.202,(21 -2 -3 -14 -9 -2 19 50)
1969/12/31/18:00:18.202,(-53 -47 -26 -45 -25 3 -23 -47)
1969/12/31/18:00:18.203,(-5 14 23 66 54 -49 -46 -20)
1969/12/31/18:00:18.203,(-21 8 3 12 -9 -13 24 -28)
1969/12/31/18:00:18.227,(62 24 9 12 1 0 14 59)
1969/12/31/18:00:18.227,(-8 -14 1 27 18 -9 3 12)
1969/12/31/18:00:18.230,(6 -6 -13 -31 -26 -12 14 -12)
1969/12/31/18:00:18.230,(-2 7 -8 -17 -7 -4 -19 6)
1969/12/31/18:00:18.243,(-40 6 3 -6 -6 4 -8 -52)
1969/12/31/18:00:18.243,(26 9 10 3 5 -6 1 13)
1969/12/31/18:00:18.254,(-34 -6 0 2 4 5 1 12)
1969/12/31/18:00:18.254,(-17 2 3 3 3 8 0 -50)
1969/12/31/18:00:18.270,(-96 -61 -20 -18 -12 -4 11 -34)
1969/12/31/18:00:18.270,(46 34 3 7 12 14 -7 -24)
1969/12/31/18:00:18.278,(18 3 8 3 -2 1 8 48)
1969/12/31/18:00:18.278,(26 -11 -3 -10 -8 -11 -21 -4)
1969/12/31/18:00:18.324,(47 19 -7 -11 -6 8 -12 -4)
1969/12/31/18:00:18.324,(-75 -17 11 18 15 17 -7 -43)
1969/12/31/18:00:18.326,(-85 -44 -37 -28 -26 -17 -27 -58)
1969/12/31/18:00:18.326,(-37 -11 -4 -8 -8 1 3 8)
1969/12/31/18:00:18.326,(1 -2 1 3 2 -27 -21 -31)
1969/12/31/18:00:18.326,(65 13 7 4 6 6 9 25)
1969/12/31/18:00:18.331,(19 12 6 -4 -4 25 9 -2)
1969/12/31/18:00:18.331,(-15 -9 -8 -4 -1 -13 -20 -15)
1969/12/31/18:00:18.339,(10 6 4 4 1 9 4 14)
1969/12/31/18:00:18.339,(-2 11 -3 -5 -6 -27 -11 -22)
1969/12/31/18:00:18.348,(-7 -8 2 0 -1 21 7 1)
1969/12/31/18:00:18.348,(1 -6 2 3 3 -3 10 13)
1969/12/31/18:00:18.367,(68 28 12 7 3 8 7 57)
1969/12/31/18:00:18.367,(-23 1 -17 -13 -13 -26 -12 -36)
1969/12/31/18:00:18.369,(-29 -17 -3 -2 0 0 2 -10)
1969/12/31/18:00:18.369,(20 5 -6 -7 -8 -1 -12 -1)
1969/12/31/18:00:18.392,(2 -7 2 2 1 3 5 3)
1969/12/31/18:00:18.392,(-28 -15 0 2 0 -18 -10 -7)
1969/12/31/18:00:18.393,(12 -3 -2 -1 -3 11 5 7)
1969/12/31/18:00:18.393,(3 13 2 0 1 5 0 -10)
1969/12/31/18:00:18.408,(-9 -1 -1 0 0 3 -4 -10)
1969/12/31/18:00:18.408,(1 -4 -2 4 -2 -17 5 8)
1969/12/31/18:00:18.416,(-1 6 3 0 1 7 -3 -11)
1969/12/31/18:00:18.416,(-5 -13 -2 1 0 2 7 27)
1969/12/31/18:00:18.434,(-15 -5 -5 -6 -3 -7 -5 -17)
1969/12/31/18:00:18.434,(26 2 -10 -8 -4 -10 -8 1)
1969/12/31/18:00:18.437,(22 14 11 3 2 7 8 18)
1969/12/31/18:00:18.437,(-7 -2 1 1 0 -3 -4 -6)
1969/12/31/18:00:18.470,(-12 -11 -7 -3 0 0 -1 -3)
1969/12/31/18:00:18.470,(6 -5 -7 -4 -1 -4 2 4)
1969/12/31/18:00:18.471,(19 5 1 -1 -1 7 2 7)
1969/12/31/18:00:18.471,(-24 3 4 3 1 -3 -4 -22)
1969/12/31/18:00:18.477,(4 11 10 3 0 -2 -3 -8)
1969/12/31/18:00:18.477,(-2 -9 -7 -3 -4 -4 -5 7)
1969/12/31/18:00:18.485,(15 -9 -8 -3 0 0 7 27)
1969/12/31/18:00:18.485,(-1 -19 -18 -10 -3 2 3 -7)
1969/12/31/18:00:18.503,(7 13 3 2 -1 -1 4 5)
1969/12/31/18:00:18.503,(-8 1 7 2 -2 -9 -21 -22)
1969/12/31/18:00:18.506,(0 -23 -25 -9 -7 -1 1 3)
1969/12/31/18:00:18.506,(12 34 40 16 4 1 0 2)
1969/12/31/18:00:18.530,(-1 10 9 3 3 6 21 7)
1969/12/31/18:00:18.530,(-4 -18 -23 -10 -5 -6 -14 -4)
1969/12/31/18:00:18.531,(6 45 59 23 6 3 -5 -15)
1969/12/31/18:00:18.531,(3 -12 -10 1 4 3 0 3)
1969/12/31/18:00:18.546,(2 -35 -44 -19 -7 -7 -2 -2)
1969/12/31/18:00:18.546,(-15 -1 12 10 4 -4 -7 -6)
1969/12/31/18:00:18.554,(-2 2 -17 -12 -6 2 7 5)
1969/12/31/18:00:18.554,(2 -2 -15 -8 -4 0 -2 2)
1969/12/31/18:00:18.572,(-5 2 12 4 -2 0 -7 -4)
1969/12/31/18:00:18.572,(-4 -22 -17 -9 -4 -4 2 4)
1969/12/31/18:00:18.575,(1 -29 -27 -7 -1 3 8 -5)
1969/12/31/18:00:18.575,(0 44 38 8 1 -3 -6 -4)
1969/12/31/18:00:18.599,(-2 -13 -35 -11 -4 -9 -24 -16)
1969/12/31/18:00:18.599,(4 14 5 -4 -1 6 24 8)
1969/12/31/18:00:18.600,(-10 18 51 21 4 -2 -20 -15)
1969/12/31/18:00:18.600,(8 -19 -17 -2 1 9 17 11)
1969/12/31/18:00:18.644,(3 -3 -12 -11 -6 -4 -2 1)
1969/12/31/18:00:18.644,(-4 38 45 13 3 -6 -30 -12)
1969/12/31/18:00:18.645,(-9 -63 -47 -8 2 5 10 -2)
1969/12/31/18:00:18.646,(3 31 27 7 -1 -3 2 0)
1969/12/31/18:00:18.646,(-5 4 12 6 -1 -1 -2 -4)
1969/12/31/18:00:18.646,(-4 -16 -6 -2 -1 0 12 6)
1969/12/31/18:00:18.650,(3 -32 -28 -16 -7 -1 3 6)
1969/12/31/18:00:18.650,(-8 6 -17 -8 -7 -8 -22 -13)
1969/12/31/18:00:18.668,(-7 -3 -5 -2 1 3 10 2)
1969/12/31/18:00:18.668,(-1 -18 -14 -3 -1 0 1 -2)
1969/12/31/18:00:18.669,(11 77 70 21 6 -3 -8 -4)
1969/12/31/18:00:18.669,(-17 -33 -14 -4 -3 -4 2 -4)
1969/12/31/18:00:18.683,(5 -45 -30 -9 -2 -1 -2 -1)
1969/12/31/18:00:18.683,(-2 30 12 3 0 0 -2 2)
1969/12/31/18:00:18.693,(-9 -22 -9 -2 -1 1 3 -4)
1969/12/31/18:00:18.693,(13 31 24 9 3 -2 14 4)
1969/12/31/18:00:18.710,(-6 -4 5 2 -3 -10 -48 -18)
1969/12/31/18:00:18.710,(4 -9 -9 -6 0 5 9 3)
1969/12/31/18:00:18.711,(-5 1 -12 -4 -1 -1 1 0)
1969/12/31/18:00:18.711,(12 -7 3 8 7 6 7 8)
1969/12/31/18:00:18.736,(-25 5 18 4 -3 -2 -1 -7)
1969/12/31/18:00:18.736,(0 3 5 8 3 1 8 4)
1969/12/31/18:00:18.738,(4 9 -8 -7 -1 0 -6 -1)
1969/12/31/18:00:18.738,(-6 -27 -24 -16 -4 -1 -3 -5)
1969/12/31/18:00:18.790,(9 29 32 17 5 4 9 5)
1969/12/31/18:00:18.790,(-5 -13 -11 -8 -4 -6 0 -1)
1969/12/31/18:00:18.791,(-3 6 -1 -1 0 -1 4 0)
1969/12/31/18:00:18.791,(2 -5 -11 -10 -5 -5 -11 -5)
1969/12/31/18:00:18.792,(3 2 1 1 3 4 5 1)
1969/12/31/18:00:18.792,(-3 -15 -4 -2 -2 1 2 -1)
1969/12/31/18:00:18.792,(0 -2 -3 -4 0 -1 -1 -1)
1969/12/31/18:00:18.792,(-2 -3 -3 -3 -1 0 -2 -3)
1969/12/31/18:00:18.793,(0 0 0 0 2 -1 -1 1)
1969/12/31/18:00:18.793,(1 1 -1 -1 -1 -1 -1 1)
1969/12/31/18:00:18.818,(-4 -3 -3 -3 -1 -1 -1 -3)
1969/12/31/18:00:18.818,(-1 -2 -3 -4 -3 0 1 -1)
1969/12/31/18:00:18.819,(0 0 1 0 -1 -1 -1 0)
1969/12/31/18:00:18.819,(-3 -2 -2 -1 0 -1 -1 0)
1969/12/31/18:00:18.834,(-2 -1 -1 1 -1 0 0 0)
1969/12/31/18:00:18.834,(-2 1 1 0 -2 -2 -3 -1)
1969/12/31/18:00:18.844,(-1 0 0 1 0 0 -1 -1)
1969/12/31/18:00:18.844,(0 0 -3 -3 -1 -1 -1 1)
1969/12/31/18:00:18.898,(-2 -1 0 -1 -1 -2 1 -1)
1969/12/31/18:00:18.898,(-2 0 1 -1 -2 -2 -1 0)
1969/12/31/18:00:18.899,(0 -1 -4 -5 -2 -2 -2 -2)
1969/12/31/18:00:18.899,(0 0 1 2 -1 -1 -2 -1)
1969/12/31/18:00:18.900,(0 0 0 1 0 1 -1 0)
1969/12/31/18:00:18.900,(0 -1 -1 0 0 0 -2 0)
1969/12/31/18:00:18.915,(0 -2 -1 2 -1 1 0 0)
1969/12/31/18:00:18.915,(-2 -2 -4 -1 -2 -2 -2 0)
1969/12/31/18:00:18.916,(-1 -2 -2 -3 -2 0 -3 0)
1969/12/31/18:00:18.916,(0 -1 -1 -1 1 -1 0 -1)
1969/12/31/18:00:18.917,(0 2 0 1 1 0 0 0)
1969/12/31/18:00:18.917,(-2 -2 -1 0 -1 -1 -1 -1)
1969/12/31/18:00:18.930,(1 -1 1 -1 -1 -1 -1 0)
1969/12/31/18:00:18.930,(-1 -1 -1 -2 1 -1 -3 -2)
1969/12/31/18:00:18.930,(-1 -2 -2 -2 -2 -1 -2 -1)
1969/12/31/18:00:18.930,(0 -2 -2 0 -1 0 -1 -2)
1969/12/31/18:00:18.957,(0 0 0 0 0 -3 -1 -2)
1969/12/31/18:00:18.957,(0 0 -1 1 0 -1 0 -1)
1969/12/31/18:00:18.959,(-2 -3 -2 -3 0 -1 0 -2)
1969/12/31/18:00:18.959,(-1 -3 -2 -1 -1 -1 -1 -2)
1969/12/31/18:00:18.982,(-2 -3 -4 -2 -1 -1 -1 0)
1969/12/31/18:00:18.982,(-2 -1 -1 1 -1 -2 -3 -2)
1969/12/31/18:00:18.983,(0 0 1 1 -1 -1 -2 -1)
1969/12/31/18:00:18.984,(0 -1 -1 -1 -1 -2 -1 -1)
1969/12/31/18:00:18.999,(-1 0 0 -2 -1 0 -1 0)
1969/12/31/18:00:18.999,(-3 -6 -6 -4 -4 -1 0 0)
1969/12/31/18:00:19.000,(-1 0 0 1 -1 -1 -1 -2)
1969/12/31/18:00:19.000,(-2 0 1 -1 -1 -1 -1 -2)
1969/12/31/18:00:19.025,(0 0 2 0 -1 0 -2 -1)
1969/12/31/18:00:19.025,(-1 -1 -2 0 -1 0 1 1)
1969/12/31/18:00:19.026,(-2 -3 -2 -3 -1 0 3 1)
1969/12/31/18:00:19.026,(0 0 1 1 0 -3 0 -2)
1969/12/31/18:00:19.068,(-3 -5 -6 -3 0 2 2 -2)
1969/12/31/18:00:19.068,(-1 -3 -5 -4 -3 -1 -1 -3)
1969/12/31/18:00:19.078,(2 3 1 4 1 -1 -1 0)
1969/12/31/18:00:19.078,(1 3 5 4 2 3 3 3)
1969/12/31/18:00:19.080,(0 3 4 2 -1 -9 -11 -2)
1969/12/31/18:00:19.080,(-4 -4 -3 -3 -3 1 3 -2)
1969/12/31/18:00:19.082,(-2 -3 -5 -4 -3 -3 -1 0)
1969/12/31/18:00:19.082,(-3 -4 -5 -2 -3 -1 -2 -1)
1969/12/31/18:00:19.103,(0 -2 -3 -3 -1 2 -1 -2)
1969/12/31/18:00:19.103,(2 3 0 -2 -1 0 0 0)
1969/12/31/18:00:19.103,(-1 0 10 1 -2 -6 -6 -1)
1969/12/31/18:00:19.103,(1 -1 -3 -4 -1 -2 -1 -1)
1969/12/31/18:00:19.110,(-1 1 -2 -5 -2 -3 -2 -3)
1969/12/31/18:00:19.110,(1 1 1 5 3 2 2 0)
1969/12/31/18:00:19.120,(-1 -4 -7 -3 -3 3 1 2)
1969/12/31/18:00:19.120,(1 3 -5 0 1 1 0 0)
1969/12/31/18:00:19.137,(-3 -2 16 5 -4 -5 6 -4)
1969/12/31/18:00:19.137,(-1 1 -3 -2 0 0 -1 -3)
1969/12/31/18:00:19.138,(0 1 -1 0 1 0 -2 0)
1969/12/31/18:00:19.138,(-3 -5 -9 -10 -4 1 -5 -2)
1969/12/31/18:00:19.171,(1 -1 -6 -3 -2 3 -2 1)
1969/12/31/18:00:19.171,(-1 -5 2 -1 -1 -1 -1 5)
1969/12/31/18:00:19.172,(-3 -2 -1 -2 -1 3 6 -3)
1969/12/31/18:00:19.172,(-2 -3 -4 -3 -3 -8 -21 -3)
1969/12/31/18:00:19.179,(-2 1 1 2 2 11 6 2)
1969/12/31/18:00:19.179,(0 3 10 3 -2 -13 -4 1)
1969/12/31/18:00:19.217,(3 -2 -11 -19 -6 6 3 -6)
1969/12/31/18:00:19.217,(2 4 7 22 3 -19 -14 -3)
1969/12/31/18:00:19.218,(0 1 12 24 7 15 11 4)
1969/12/31/18:00:19.218,(-3 -3 -6 -5 -1 1 -4 0)
1969/12/31/18:00:19.220,(-2 3 -2 -3 -1 -1 -1 1)
1969/12/31/18:00:19.220,(-6 0 -4 -11 -6 -2 -3 -19)
1969/12/31/18:00:19.232,(0 -7 -12 -10 -5 -8 -9 -6)
1969/12/31/18:00:19.232,(-2 -8 -17 -18 -6 -1 -1 -1)
1969/12/31/18:00:19.233,(1 4 18 11 -1 -7 -7 -5)
1969/12/31/18:00:19.233,(2 2 -6 -1 2 8 11 8)
1969/12/31/18:00:19.248,(-2 -1 1 1 1 2 3 16)
1969/12/31/18:00:19.248,(1 0 1 -4 -5 -5 -7 -7)
1969/12/31/18:00:19.258,(-5 -6 -3 4 1 -2 -4 -4)
1969/12/31/18:00:19.258,(8 3 -4 -2 -4 -2 -5 -1)
1969/12/31/18:00:19.275,(6 10 36 28 7 6 18 3)
1969/12/31/18:00:19.275,(-4 -7 -17 -5 0 1 5 -3)
1969/12/31/18:00:19.276,(-17 -11 -20 -20 -9 -16 -28 -27)
1969/12/31/18:00:19.276,(3 9 1 9 7 2 6 3)
1969/12/31/18:00:19.301,(2 0 -9 -9 -3 -8 4 -2)
1969/12/31/18:00:19.301,(0 5 25 20 6 -1 0 -1)
1969/12/31/18:00:19.302,(-1 -8 -17 -4 1 0 6 5)
1969/12/31/18:00:19.302,(-6 -8 -15 -20 -7 2 6 6)
1969/12/31/18:00:19.317,(2 6 4 -3 -1 -7 -11 -3)
1969/12/31/18:00:19.317,(2 3 1 2 3 3 4 5)
1969/12/31/18:00:19.327,(-2 -4 3 4 1 2 4 5)
1969/12/31/18:00:19.327,(-4 -9 -1 -4 -1 1 3 3)
1969/12/31/18:00:19.344,(-2 -5 -6 -2 0 1 -1 4)
1969/12/31/18:00:19.344,(4 1 4 -1 -4 -3 -9 -8)
1969/12/31/18:00:19.345,(1 -1 0 2 0 3 3 7)
1969/12/31/18:00:19.345,(-7 -2 11 6 1 4 1 -5)
1969/12/31/18:00:19.381,(-4 -7 -12 -9 -7 -7 -11 -9)
1969/12/31/18:00:19.381,(-3 -3 -2 1 -1 2 -1 0)
1969/12/31/18:00:19.382,(2 6 4 5 -1 0 0 2)
1969/12/31/18:00:19.382,(0 -3 5 3 1 2 6 7)
1969/12/31/18:00:19.386,(-1 -1 -10 -6 -3 -3 -5 -2)
1969/12/31/18:00:19.386,(1 -7 -15 -6 -1 -1 0 2)
1969/12/31/18:00:19.396,(4 4 3 4 0 1 3 3)
1969/12/31/18:00:19.396,(-5 -9 9 4 0 0 4 0)
1969/12/31/18:00:19.413,(-2 -5 -21 -10 -3 -4 -5 -6)
1969/12/31/18:00:19.413,(0 14 16 6 2 0 -2 -3)
1969/12/31/18:00:19.414,(2 2 -4 0 1 -2 0 1)
1969/12/31/18:00:19.414,(2 -3 -2 -3 -3 -2 -1 -2)
1969/12/31/18:00:19.439,(-1 -5 -7 -5 -1 -2 -3 -2)
1969/12/31/18:00:19.439,(-1 -1 -7 -2 -4 0 5 4)
1969/12/31/18:00:19.440,(3 11 19 12 6 1 -1 -4)
1969/12/31/18:00:19.440,(-31 -14 -7 -5 -4 -4 -5 2)
1969/12/31/18:00:19.455,(5 3 2 0 0 -1 -5 -11)
1969/12/31/18:00:19.455,(0 -1 -1 -2 0 -2 1 -1)
1969/12/31/18:00:19.464,(2 6 2 -1 1 2 0 -2)
1969/12/31/18:00:19.464,(7 -1 -2 -2 -2 -3 4 8)
1969/12/31/18:00:19.482,(-45 -12 -3 -6 -2 -1 -1 -17)
1969/12/31/18:00:19.482,(7 -2 -3 -3 -4 -5 -3 19)
1969/12/31/18:00:19.483,(-4 -8 -6 -1 -3 -3 -5 -8)
1969/12/31/18:00:19.483,(17 9 5 2 0 0 -3 0)
1969/12/31/18:00:19.535,(14 4 -2 -1 0 2 4 11)
1969/12/31/18:00:19.535,(4 -3 -4 -1 -2 0 -1 -9)
1969/12/31/18:00:19.536,(0 3 2 1 2 2 7 9)
1969/12/31/18:00:19.536,(-20 -1 -5 -1 0 0 0 -27)
1969/12/31/18:00:19.543,(-11 -2 -4 -2 0 -3 7 7)
1969/12/31/18:00:19.543,(-11 -6 -6 -2 2 -2 3 4)
1969/12/31/18:00:19.544,(-7 -6 -8 -6 -5 -10 -10 -19)
1969/12/31/18:00:19.544,(14 9 10 0 0 4 1 19)
1969/12/31/18:00:19.550,(18 0 9 2 -1 2 -7 -3)
1969/12/31/18:00:19.550,(-1 -2 12 7 -1 4 -2 -2)
1969/12/31/18:00:19.560,(26 4 3 0 -2 18 3 22)
1969/12/31/18:00:19.560,(19 8 7 4 -4 -6 8 18)
1969/12/31/18:00:19.577,(-24 -3 -2 -2 -5 -1 0 -15)
1969/12/31/18:00:19.577,(2 4 6 6 3 5 6 6)
1969/12/31/18:00:19.579,(21 -7 -2 1 1 5 1 41)
1969/12/31/18:00:19.579,(-12 -8 -3 2 -2 -5 -2 -11)
1969/12/31/18:00:19.604,(-5 -6 -5 -1 3 16 -6 -12)
1969/12/31/18:00:19.604,(-11 4 -2 -1 -5 -17 -10 -12)
1969/12/31/18:00:19.605,(20 14 2 0 -3 1 16 9)
1969/12/31/18:00:19.605,(4 0 0 1 4 -7 -2 -18)
1969/12/31/18:00:19.619,(22 -1 -13 -9 -2 21 1 37)
1969/12/31/18:00:19.619,(-62 -15 -1 1 1 8 9 -33)
1969/12/31/18:00:19.629,(-16 1 -1 1 -3 -7 -6 -1)
1969/12/31/18:00:19.629,(59 23 1 -4 -6 -14 -2 37)
1969/12/31/18:00:19.647,(-8 1 -3 -1 4 9 -2 -12)
1969/12/31/18:00:19.647,(4 -31 -9 -7 -16 -58 -11 8)
1969/12/31/18:00:19.648,(-35 -19 -8 -7 -5 -13 -22 -42)
1969/12/31/18:00:19.650,(-6 -19 -8 -10 -5 -2 -9 -15)
1969/12/31/18:00:19.708,(-21 5 2 0 -2 0 7 -25)
1969/12/31/18:00:19.708,(32 35 -1 -5 0 9 -17 -11)
1969/12/31/18:00:19.709,(3 -2 3 5 1 -4 16 5)
1969/12/31/18:00:19.709,(19 14 6 3 5 10 2 -8)
1969/12/31/18:00:19.711,(-4 -15 -8 -8 -6 -15 -7 30)
1969/12/31/18:00:19.711,(8 -6 0 1 6 59 -5 -28)
1969/12/31/18:00:19.717,(-108 -44 -19 -13 -9 -33 -22 -82)
1969/12/31/18:00:19.717,(22 19 10 6 5 15 6 10)
1969/12/31/18:00:19.719,(28 16 4 0 -10 -62 -19 42)
1969/12/31/18:00:19.719,(0 -5 2 2 20 84 35 33)
1969/12/31/18:00:19.722,(14 -11 -7 -6 -21 -71 -35 -17)
1969/12/31/18:00:19.722,(-5 -4 -2 0 2 37 8 -6)
1969/12/31/18:00:19.742,(-10 -7 5 6 -2 -33 5 15)
1969/12/31/18:00:19.742,(24 13 -2 -5 -4 -11 11 26)
1969/12/31/18:00:19.743,(10 9 6 3 7 17 -1 15)
1969/12/31/18:00:19.743,(-32 -8 -4 -2 0 -8 -11 -21)
1969/12/31/18:00:19.758,(-25 -24 -9 -6 -3 29 7 -23)
1969/12/31/18:00:19.758,(33 10 2 4 2 -13 2 43)
1969/12/31/18:00:19.766,(18 15 8 8 15 40 9 -6)
1969/12/31/18:00:19.766,(-16 -6 -9 -5 -8 -23 -21 -24)
1969/12/31/18:00:19.784,(-21 -3 0 1 6 22 0 -21)
1969/12/31/18:00:19.784,(4 4 0 -1 -6 -35 -1 44)
1969/12/31/18:00:19.786,(25 16 3 1 3 -1 14 7)
1969/12/31/18:00:19.786,(-12 -4 11 14 20 68 -22 61)
1969/12/31/18:00:19.819,(22 11 -3 -2 -10 -80 -59 -47)
1969/12/31/18:00:19.819,(-48 -29 -3 0 -2 20 5 -5)
1969/12/31/18:00:19.820,(30 18 0 -4 -2 -5 -42 -6)
1969/12/31/18:00:19.820,(-14 4 0 -1 -3 -6 19 -39)
1969/12/31/18:00:19.825,(24 2 2 1 3 23 14 39)
1969/12/31/18:00:19.825,(-9 -3 -1 -1 -5 -14 -14 -40)
1969/12/31/18:00:19.855,(30 22 6 2 2 7 16 16)
1969/12/31/18:00:19.855,(-8 -17 -11 -6 0 2 21 -11)
1969/12/31/18:00:19.857,(-19 -14 -6 -4 -2 -4 -28 -24)
1969/12/31/18:00:19.857,(29 4 -3 -5 -3 9 -22 -16)
1969/12/31/18:00:19.860,(-13 -8 3 3 -1 -8 31 31)
1969/12/31/18:00:19.860,(-25 0 -2 -6 -8 -29 -7 -4)
1969/12/31/18:00:19.880,(25 33 16 10 5 9 27 32)
1969/12/31/18:00:19.880,(-6 -15 -8 -4 -3 -5 -25 -39)
1969/12/31/18:00:19.881,(32 15 4 2 2 42 39 -7)
1969/12/31/18:00:19.881,(-24 -24 -18 -12 -11 -23 -29 -1)
1969/12/31/18:00:19.894,(-1 3 -2 -1 -2 -11 10 4)
1969/12/31/18:00:19.894,(-25 -8 -1 1 1 -12 -3 5)
1969/12/31/18:00:19.905,(28 2 6 8 8 32 8 31)
1969/12/31/18:00:19.905,(20 6 1 -1 -11 -40 7 2)
1969/12/31/18:00:19.922,(-20 -27 -15 -10 2 71 30 -68)
1969/12/31/18:00:19.922,(9 7 2 -2 -5 -42 -12 -3)
1969/12/31/18:00:19.924,(-45 -13 -14 -11 -5 -6 -26 -72)
1969/12/31/18:00:19.924,(-5 -7 5 6 6 16 -23 -12)
1969/12/31/18:00:19.949,(20 14 1 -1 2 9 -9 6)
1969/12/31/18:00:19.949,(17 9 3 0 -2 -12 13 13)
1969/12/31/18:00:19.950,(7 6 2 2 3 16 12 2)
1969/12/31/18:00:19.950,(-2 -6 -6 -7 -5 12 12 -6)
1969/12/31/18:00:19.963,(35 18 16 10 7 0 13 50)
1969/12/31/18:00:19.963,(-21 -19 -9 -6 -8 -9 -8 -49)
1969/12/31/18:00:19.974,(31 19 12 13 17 23 33 75)
1969/12/31/18:00:19.974,(-32 -14 -6 -4 2 31 -15 -53)
1969/12/31/18:00:20.027,(-18 -14 -5 -7 -12 -37 -11 -4)
1969/12/31/18:00:20.027,(30 19 7 6 7 22 20 32)
1969/12/31/18:00:20.029,(-6 -12 -7 -4 -7 -5 25 14)
1969/12/31/18:00:20.029,(11 13 8 5 6 10 -2 -6)
1969/12/31/18:00:20.030,(-43 -14 -14 -9 -10 -17 -39 -38)
1969/12/31/18:00:20.030,(36 11 4 3 7 13 22 37)
1969/12/31/18:00:20.035,(-43 -24 -7 -2 4 59 2 -47)
1969/12/31/18:00:20.035,(3 7 0 -1 -17 -118 -34 38)
1969/12/31/18:00:20.036,(32 20 10 13 33 69 32 29)
1969/12/31/18:00:20.036,(-62 -33 -11 -6 -19 -22 -12 -27)
1969/12/31/18:00:20.043,(4 -13 -8 -8 0 -13 18 62)
1969/12/31/18:00:20.043,(72 27 4 2 -20 -3 49 107)
1969/12/31/18:00:20.060,(11 2 12 5 1 20 -14 -5)
1969/12/31/18:00:20.060,(-49 -14 -5 -4 0 -46 -31 -13)
1969/12/31/18:00:20.061,(19 11 3 -9 -28 -5 -8 0)
1969/12/31/18:00:20.061,(-48 -13 -8 0 33 -11 -66 -51)
1969/12/31/18:00:20.086,(25 5 -1 3 11 5 10 0)
1969/12/31/18:00:20.086,(9 5 0 4 19 67 25 -29)
1969/12/31/18:00:20.088,(-34 -14 -1 9 30 -26 -18 -13)
1969/12/31/18:00:20.088,(10 11 1 -6 -34 8 31 19)
1969/12/31/18:00:20.101,(30 11 1 -10 -47 -13 -23 5)
1969/12/31/18:00:20.101,(-11 9 4 0 -4 -36 -32 -35)
1969/12/31/18:00:20.112,(17 11 1 0 -7 -18 -14 -13)
1969/12/31/18:00:20.112,(-19 -18 -10 -14 10 36 29 -17)
1969/12/31/18:00:20.129,(-27 -25 -9 -6 -3 -24 -13 -14)
1969/12/31/18:00:20.129,(0 10 4 12 12 -14 -1 5)
1969/12/31/18:00:20.130,(-9 -17 -13 -4 36 -10 -24 -55)
1969/12/31/18:00:20.130,(-3 10 1 -3 -27 -18 9 19)
1969/12/31/18:00:20.174,(-14 -5 -1 -19 -75 -15 11 -43)
1969/12/31/18:00:20.174,(19 10 3 4 31 24 21 38)
1969/12/31/18:00:20.175,(-11 -3 1 0 -31 -31 -17 20)
1969/12/31/18:00:20.175,(-5 -16 -7 -14 -13 -40 -9 -23)
1969/12/31/18:00:20.176,(2 14 7 10 41 17 17 33)
1969/12/31/18:00:20.176,(3 -6 -5 -2 6 21 -6 -16)
1969/12/31/18:00:20.181,(-6 -3 1 19 52 32 14 8)
1969/12/31/18:00:20.181,(16 -1 -8 -17 -66 -29 -4 -11)
1969/12/31/18:00:20.198,(-28 -5 12 3 -10 -17 11 28)
1969/12/31/18:00:20.198,(-1 8 -4 3 25 27 12 0)
1969/12/31/18:00:20.199,(16 31 -4 -2 4 7 -2 28)
1969/12/31/18:00:20.199,(-52 -64 -10 2 28 27 7 -42)
1969/12/31/18:00:20.224,(-38 5 2 3 7 -21 -8 -22)
1969/12/31/18:00:20.224,(-20 -17 -7 -14 -33 -40 4 14)
1969/12/31/18:00:20.226,(47 14 -12 -10 -33 28 25 97)
1969/12/31/18:00:20.226,(-1 0 2 0 1 6 12 -10)
1969/12/31/18:00:20.239,(-17 -29 -15 -19 -26 -33 -9 -51)
1969/12/31/18:00:20.239,(3 19 28 10 -5 -7 -16 -76)
1969/12/31/18:00:20.250,(-52 -9 6 -14 -25 -41 -17 -71)
1969/12/31/18:00:20.250,(11 20 0 13 53 51 15 17)
1969/12/31/18:00:20.267,(-10 -25 -7 28 85 29 -2 0)
1969/12/31/18:00:20.267,(23 -25 -35 -36 -118 -42 15 53)
1969/12/31/18:00:20.268,(1 -4 -1 -11 -28 -27 -15 -21)
1969/12/31/18:00:20.268,(-13 49 62 19 9 47 20 29)
1969/12/31/18:00:20.293,(46 25 5 6 23 4 22 84)
1969/12/31/18:00:20.293,(-39 -36 8 29 78 58 11 35)
1969/12/31/18:00:20.295,(-19 -78 -55 -19 -34 -23 1 21)
1969/12/31/18:00:20.295,(35 13 -25 -22 -33 -26 -14 13)
1969/12/31/18:00:20.337,(-47 8 52 17 -18 -9 -17 27)
1969/12/31/18:00:20.337,(77 77 28 8 31 25 28 94)
1969/12/31/18:00:20.339,(-92 -89 -22 2 32 20 -26 -75)
1969/12/31/18:00:20.339,(23 17 3 16 17 -7 18 26)
1969/12/31/18:00:20.341,(64 43 -44 -26 -33 -13 2 49)
1969/12/31/18:00:20.341,(-5 6 35 -19 -84 -18 -27 -40)
1969/12/31/18:00:20.345,(30 55 0 8 9 -27 -24 15)
1969/12/31/18:00:20.345,(-24 -18 20 3 -3 -8 -37 -40)
1969/12/31/18:00:20.361,(9 -57 -59 -2 107 82 40 -7)
1969/12/31/18:00:20.362,(12 15 -25 -12 -83 -68 1 31)
1969/12/31/18:00:20.364,(-77 -40 35 5 -3 9 -2 -72)
1969/12/31/18:00:20.364,(34 26 -14 8 16 6 18 24)
1969/12/31/18:00:20.377,(13 8 0 -13 -18 3 3 -29)
1969/12/31/18:00:20.377,(-44 56 46 62 123 71 -17 -66)
1969/12/31/18:00:20.388,(23 -90 -75 -50 -113 -97 -29 7)
1969/12/31/18:00:20.388,(-8 -15 -23 -14 -9 15 30 22)
1969/12/31/18:00:20.405,(12 14 26 -7 -8 -22 -25 -17)
1969/12/31/18:00:20.405,(-9 -88 -65 -19 33 4 38 -11)
1969/12/31/18:00:20.406,(59 64 37 23 31 24 4 47)
1969/12/31/18:00:20.406,(-38 -75 -35 0 6 -24 -48 -128)
1969/12/31/18:00:20.430,(2 83 48 -7 -89 3 -3 -19)
1969/12/31/18:00:20.430,(32 27 35 5 0 -26 15 69)
1969/12/31/18:00:20.433,(-52 -26 -19 9 57 26 -33 -94)
1969/12/31/18:00:20.433,(45 -98 -91 -18 21 6 14 64)
1969/12/31/18:00:20.446,(-57 -86 -44 -29 -33 -8 -2 -49)
1969/12/31/18:00:20.446,(-28 78 40 10 -15 -15 -41 -71)
1969/12/31/18:00:20.492,(33 79 34 15 12 30 48 67)
1969/12/31/18:00:20.492,(8 33 43 24 31 -1 -20 -17)
1969/12/31/18:00:20.492,(-54 -36 -59 -7 14 -9 -3 -48)
1969/12/31/18:00:20.492,(-21 -42 -19 -39 -19 12 -25 -45)
1969/12/31/18:00:20.495,(-15 -35 -20 -28 -87 -60 -16 5)
1969/12/31/18:00:20.495,(-8 -5 -6 7 12 1 5 -23)
1969/12/31/18:00:20.499,(7 95 101 46 26 -6 8 33)
1969/12/31/18:00:20.499,(7 -29 -29 0 48 47 24 8)
1969/12/31/18:00:20.502,(11 13 -4 -13 -30 -7 1 10)
1969/12/31/18:00:20.502,(0 -1 10 0 -9 6 3 1)
1969/12/31/18:00:20.515,(4 -128 -119 -32 -5 -20 -6 2)
1969/12/31/18:00:20.515,(52 91 51 14 13 36 14 35)
1969/12/31/18:00:20.526,(-12 59 77 66 80 21 9 -6)
1969/12/31/18:00:20.526,(14 10 -22 -38 -64 3 11 14)
1969/12/31/18:00:20.543,(25 -37 -17 -2 14 -40 -40 -53)
1969/12/31/18:00:20.543,(-31 -57 -31 -19 -65 -34 -35 -32)
1969/12/31/18:00:20.550,(20 28 12 -6 12 8 12 5)
1969/12/31/18:00:20.550,(-7 -7 -18 12 50 15 9 -11)
1969/12/31/18:00:20.571,(30 65 66 23 3 22 9 24)
1969/12/31/18:00:20.571,(-48 -34 0 -19 -41 -20 1 -38)
1969/12/31/18:00:20.572,(18 -15 -25 -18 -20 -27 -38 -9)
1969/12/31/18:00:20.572,(-4 -74 -50 5 26 17 11 16)
1969/12/31/18:00:20.595,(-1 45 40 -2 -12 -6 -10 -3)
1969/12/31/18:00:20.595,(-21 35 8 13 15 -10 -3 -17)
1969/12/31/18:00:20.596,(38 6 1 5 8 36 52 72)
1969/12/31/18:00:20.596,(24 -34 -2 -5 14 7 -20 8)
1969/12/31/18:00:20.612,(76 34 -20 14 13 10 68 74)
1969/12/31/18:00:20.612,(-9 59 82 26 -8 -28 -82 -74)
1969/12/31/18:00:20.619,(-73 -29 6 -8 -27 -3 10 -46)
1969/12/31/18:00:20.619,(-11 11 -25 -16 -17 -23 -17 -7)
1969/12/31/18:00:20.654,(24 8 -36 -24 -36 -1 18 23)
1969/12/31/18:00:20.654,(19 -4 44 46 87 32 32 50)
1969/12/31/18:00:20.666,(36 -6 -41 14 59 39 26 9)
1969/12/31/18:00:20.666,(-71 88 91 -10 -107 -60 -47 -49)
1969/12/31/18:00:20.667,(-47 -76 -47 -11 42 49 -20 -3)
1969/12/31/18:00:20.667,(-4 -71 -82 -29 -26 -47 10 -7)
1969/12/31/18:00:20.671,(13 11 0 -2 2 -25 -46 -24)
1969/12/31/18:00:20.671,(13 50 58 12 -43 -10 13 19)
1969/12/31/18:00:20.681,(27 45 33 18 11 -2 -5 4)
1969/12/31/18:00:20.681,(-19 -87 -107 -43 -20 -3 -11 0)
1969/12/31/18:00:20.688,(15 3 49 21 29 29 0 2)
1969/12/31/18:00:20.688,(7 32 -30 -7 1 -8 -21 -3)
1969/12/31/18:00:20.707,(-68 48 79 20 35 13 -15 -61)
1969/12/31/18:00:20.707,(26 -11 -7 2 -23 -11 19 55)
1969/12/31/18:00:20.708,(9 3 -9 5 -29 -30 5 2)
1969/12/31/18:00:20.708,(3 -59 -43 -48 -47 -27 18 27)
1969/12/31/18:00:20.733,(9 2 15 24 39 37 6 1)
1969/12/31/18:00:20.733,(-7 -13 -29 -14 -27 -18 -25 -36)
1969/12/31/18:00:20.735,(12 -44 -53 -30 -14 5 20 39)
1969/12/31/18:00:20.735,(13 69 58 29 50 21 34 15)
1969/12/31/18:00:20.749,(10 26 14 22 0 -6 26 51)
1969/12/31/18:00:20.749,(7 -18 -10 -3 69 64 16 -4)
1969/12/31/18:00:20.757,(-34 31 60 20 -69 -52 -33 -43)
1969/12/31/18:00:20.757,(-39 -70 -55 -11 12 -13 -50 -47)
1969/12/31/18:00:20.775,(31 -71 -78 -34 -4 -1 -2 30)
1969/12/31/18:00:20.775,(3 25 17 -6 -5 -11 8 6)
1969/12/31/18:00:20.777,(-1 18 6 3 19 45 10 -6)
1969/12/31/18:00:20.777,(-15 43 44 26 31 10 -8 -42)
1969/12/31/18:00:20.811,(-5 15 29 21 16 10 -6 1)
1969/12/31/18:00:20.811,(-60 -59 -30 -14 -11 14 -14 -50)
1969/12/31/18:00:20.812,(19 -17 -38 -13 29 -21 -12 -12)
1969/12/31/18:00:20.812,(46 51 23 2 -35 7 22 39)
1969/12/31/18:00:20.818,(-10 -45 -44 4 60 13 8 15)
1969/12/31/18:00:20.818,(-6 -14 -13 -57 -111 -95 -57 -36)
1969/12/31/18:00:20.826,(-20 39 33 -11 13 15 7 -3)
1969/12/31/18:00:20.826,(-27 -46 -21 -2 34 17 -15 -22)
1969/12/31/18:00:20.844,(17 -68 -67 -16 26 34 -3 -13)
1969/12/31/18:00:20.844,(63 91 74 41 -16 0 68 115)
1969/12/31/18:00:20.846,(-21 -3 -10 5 13 -3 -48 -79)
1969/12/31/18:00:20.846,(-50 -14 39 17 4 3 22 -12)
1969/12/31/18:00:20.871,(-25 -9 18 0 -5 2 -8 -16)
1969/12/31/18:00:20.871,(50 -3 -50 -11 -2 -12 -4 19)
1969/12/31/18:00:20.872,(68 38 1 -10 -15 2 25 66)
1969/12/31/18:00:20.872,(-10 10 23 48 89 53 29 32)
1969/12/31/18:00:20.887,(-18 -46 -51 -64 -128 -121 -60 -47)
1969/12/31/18:00:20.887,(-73 3 8 -9 13 21 -1 -56)
1969/12/31/18:00:20.895,(3 -17 -7 -7 -19 -19 -26 17)
1969/12/31/18:00:20.895,(13 -15 -29 6 64 51 24 42)
1969/12/31/18:00:20.914,(-5 33 30 -5 -83 -69 -30 -21)
1969/12/31/18:00:20.914,(0 -16 -33 -16 10 7 -25 -20)
1969/12/31/18:00:20.915,(2 -7 -9 9 61 62 47 33)
1969/12/31/18:00:20.915,(26 -3 0 11 -14 -46 -21 11)
1969/12/31/18:00:20.940,(-45 27 49 0 -39 16 -14 -19)
1969/12/31/18:00:20.940,(65 -20 -42 0 5 9 18 57)
1969/12/31/18:00:20.941,(1 -34 -16 1 42 24 -2 -7)
1969/12/31/18:00:20.941,(19 53 61 41 38 25 40 47)
1969/12/31/18:00:20.984,(-24 6 -19 -44 -96 -96 -54 -69)
1969/12/31/18:00:20.984,(19 -40 -39 -13 4 -3 -7 -22)
1969/12/31/18:00:20.986,(12 -11 28 30 51 46 24 11)
1969/12/31/18:00:20.986,(0 -37 -62 -8 68 43 -2 56)
1969/12/31/18:00:20.987,(-10 39 38 4 -57 -68 -18 37)
1969/12/31/18:00:20.987,(-16 37 49 14 25 4 7 -7)
1969/12/31/18:00:20.991,(5 -44 -49 -13 52 27 -8 14)
1969/12/31/18:00:20.991,(13 10 -24 -15 -86 -48 8 -26)
1969/12/31/18:00:21.009,(6 -10 56 17 64 78 12 9)
1969/12/31/18:00:21.009,(-20 -21 -38 5 22 -8 -8 6)
1969/12/31/18:00:21.011,(-41 52 44 -10 -61 -57 -38 -19)
1969/12/31/18:00:21.011,(-34 7 17 -5 12 27 30 11)
1969/12/31/18:00:21.025,(58 -36 -43 11 -11 11 47 40)
1969/12/31/18:00:21.025,(2 54 49 25 44 21 8 -10)
1969/12/31/18:00:21.035,(-50 -50 -25 -27 -55 -17 -23 -16)
1969/12/31/18:00:21.035,(31 -4 -32 -26 -26 -15 -17 -42)
1969/12/31/18:00:21.052,(-22 8 25 19 91 67 39 -13)
1969/12/31/18:00:21.052,(-34 -33 6 6 -28 -32 -39 -34)
1969/12/31/18:00:21.053,(36 32 -21 -7 -19 -8 18 27)
1969/12/31/18:00:21.053,(-11 -18 17 11 56 55 12 5)
1969/12/31/18:00:21.078,(31 0 -18 0 -63 -55 24 29)
1969/12/31/18:00:21.078,(-4 -33 -21 -15 -9 -9 -23 -33)
1969/12/31/18:00:21.079,(0 53 38 12 -19 -19 21 30)
1969/12/31/18:00:21.079,(5 36 -3 -26 -19 -19 -45 -42)
1969/12/31/18:00:21.130,(0 -14 22 31 89 74 38 22)
1969/12/31/18:00:21.130,(58 25 -11 6 -16 -14 12 47)
1969/12/31/18:00:21.133,(-36 63 88 50 76 65 50 29)
1969/12/31/18:00:21.133,(32 -30 -18 -35 -118 -107 -54 -3)
1969/12/31/18:00:21.134,(10 -10 -34 -13 40 32 -11 -12)
1969/12/31/18:00:21.134,(-41 -28 -4 -13 -1 -7 -40 -57)
1969/12/31/18:00:21.138,(-4 -56 -53 -25 -12 -5 2 -30)
1969/12/31/18:00:21.138,(15 3 -12 9 42 33 42 39)
1969/12/31/18:00:21.147,(-27 22 53 41 57 35 -23 -37)
1969/12/31/18:00:21.147,(90 39 5 -4 -33 8 81 113)
1969/12/31/18:00:21.149,(-43 -31 3 14 -24 -14 -6 -43)
1969/12/31/18:00:21.149,(-57 -40 -29 -24 -12 -30 -66 -118)
1969/12/31/18:00:21.163,(-18 -66 -81 -51 -71 -57 -10 -4)
1969/12/31/18:00:21.163,(19 27 17 10 61 61 33 27)
1969/12/31/18:00:21.173,(46 111 97 68 72 79 34 62)
1969/12/31/18:00:21.173,(4 -61 -34 -1 9 -43 -18 7)
1969/12/31/18:00:21.189,(79 -18 -26 -38 -53 -2 21 76)
1969/12/31/18:00:21.189,(-105 11 33 25 39 -13 -70 -113)
1969/12/31/18:00:21.191,(11 -64 -92 -71 -101 -79 -25 9)
1969/12/31/18:00:21.191,(39 25 66 44 44 53 35 72)
1969/12/31/18:00:21.215,(41 15 -11 10 34 4 16 1)
1969/12/31/18:00:21.215,(-16 2 -2 -1 4 9 1 1)
1969/12/31/18:00:21.217,(7 8 -16 -8 -7 -5 -1 -6)
1969/12/31/18:00:21.217,(12 45 37 34 112 94 29 -6)
1969/12/31/18:00:21.232,(-105 -42 -26 -50 -98 -105 -94 -103)
1969/12/31/18:00:21.232,(53 7 8 14 34 17 31 65)
1969/12/31/18:00:21.242,(11 -31 -15 -15 -7 -13 14 14)
1969/12/31/18:00:21.242,(11 21 -33 -30 -23 19 24 17)
1969/12/31/18:00:21.259,(-42 12 40 26 27 25 10 0)
1969/12/31/18:00:21.259,(10 -38 -20 -1 20 4 14 3)
1969/12/31/18:00:21.260,(-39 -21 -25 11 61 53 -25 -63)
1969/12/31/18:00:21.260,(59 50 21 -12 -96 -94 -1 66)
1969/12/31/18:00:21.303,(47 36 1 10 45 18 35 71)
1969/12/31/18:00:21.303,(-19 -25 19 -14 -103 -55 -46 -51)
1969/12/31/18:00:21.304,(-24 -40 -33 -8 16 -22 -35 -81)
1969/12/31/18:00:21.304,(-24 -7 15 -4 -41 -15 -8 15)
1969/12/31/18:00:21.305,(58 54 9 21 73 57 22 42)
1969/12/31/18:00:21.305,(61 25 -15 -8 8 9 27 43)
1969/12/31/18:00:21.311,(-10 -55 14 14 -7 -15 -1 21)
1969/12/31/18:00:21.311,(-28 1 -20 -8 9 -2 -23 -64)
1969/12/31/18:00:21.336,(-31 6 38 11 -9 -10 8 -6)
1969/12/31/18:00:21.336,(2 -21 -37 -12 3 18 15 14)
1969/12/31/18:00:21.337,(27 118 99 57 50 44 7 39)
1969/12/31/18:00:21.337,(17 0 4 34 78 33 52 36)
1969/12/31/18:00:21.353,(-25 -20 -30 -55 -88 -87 -80 -69)
1969/12/31/18:00:21.353,(-6 -16 -33 -26 -13 -3 -2 -7)
1969/12/31/18:00:21.355,(-17 -42 -41 -41 -19 -16 -9 -30)
1969/12/31/18:00:21.355,(2 0 -2 -12 2 17 2 10)
1969/12/31/18:00:21.370,(17 53 20 43 49 33 36 12)
1969/12/31/18:00:21.370,(-53 -17 36 38 96 51 0 -28)
1969/12/31/18:00:21.380,(-6 -34 -44 -35 -84 -71 -28 -17)
1969/12/31/18:00:21.380,(-8 0 10 -12 -62 2 15 24)
1969/12/31/18:00:21.397,(-40 -27 -28 -14 -20 -52 -36 -102)
1969/12/31/18:00:21.397,(5 -58 -53 -35 -33 -10 -11 14)
1969/12/31/18:00:21.398,(31 87 87 45 62 42 30 20)
1969/12/31/18:00:21.398,(-33 8 6 -3 -16 -8 -10 1)
1969/12/31/18:00:21.448,(18 -2 14 13 15 28 4 19)
1969/12/31/18:00:21.449,(9 -6 -1 12 9 5 35 59)
1969/12/31/18:00:21.458,(-13 -49 -49 -29 -26 -29 -14 -61)
1969/12/31/18:00:21.458,(65 5 -7 -10 -25 -22 -35 -11)
1969/12/31/18:00:21.458,(-16 10 5 9 21 33 28 41)
1969/12/31/18:00:21.458,(-5 10 9 1 10 2 19 28)
1969/12/31/18:00:21.460,(-2 -14 -20 -27 -27 -15 -35 -17)
1969/12/31/18:00:21.460,(-21 -3 1 -3 -15 -39 0 -23)
1969/12/31/18:00:21.466,(33 0 -1 9 50 50 -9 19)
1969/12/31/18:00:21.466,(-1 19 26 76 65 51 20 -12)
1969/12/31/18:00:21.467,(-13 -3 -11 -32 -112 -94 -19 5)
1969/12/31/18:00:21.467,(-10 -37 -18 -15 7 2 -7 3)
1969/12/31/18:00:21.501,(-32 -14 9 -8 0 -3 -4 -33)
1969/12/31/18:00:21.501,(34 70 40 11 16 24 20 49)
1969/12/31/18:00:21.502,(-14 -23 -8 12 41 27 -7 4)
1969/12/31/18:00:21.502,(-2 -8 -7 -3 -11 0 -3 -27)
1969/12/31/18:00:21.508,(59 24 2 7 2 9 12 60)
1969/12/31/18:00:21.508,(-71 -9 -6 -23 -38 -34 -23 -48)
1969/12/31/18:00:21.518,(-6 -24 -15 -3 3 3 16 11)
1969/12/31/18:00:21.518,(-26 -16 -8 -14 -19 -9 -10 -1)
1969/12/31/18:00:21.535,(2 0 -3 7 18 17 10 8)
1969/12/31/18:00:21.535,(24 20 16 1 -20 2 3 -9)
1969/12/31/18:00:21.536,(18 17 4 0 -7 -15 -12 21)
1969/12/31/18:00:21.536,(-14 -24 -16 -10 -3 -11 -22 -29)
1969/12/31/18:00:21.560,(1 -3 -4 3 31 42 34 23)
1969/12/31/18:00:21.560,(-10 -9 -5 -12 -39 -36 -10 -15)
1969/12/31/18:00:21.562,(-10 -2 -12 -4 -7 -12 -20 -22)
1969/12/31/18:00:21.562,(-3 -4 12 15 11 11 -8 -22)
1969/12/31/18:00:21.576,(-35 -9 -8 1 -16 -16 -7 -10)
1969/12/31/18:00:21.576,(35 17 -3 -27 -25 -5 -5 33)
1969/12/31/18:00:21.614,(-17 -18 -15 -22 11 -24 -21 -50)
1969/12/31/18:00:21.614,(-16 9 14 34 28 73 -1 -66)
1969/12/31/18:00:21.616,(-18 -2 0 5 -4 -8 17 14)
1969/12/31/18:00:21.616,(47 0 -3 -4 -8 -53 -45 2)
1969/12/31/18:00:21.619,(-46 -13 -7 -13 -5 26 7 10)
1969/12/31/18:00:21.619,(-26 -14 -15 -18 -20 -36 26 2)
1969/12/31/18:00:21.629,(-10 -13 -13 -15 -17 -22 -4 -25)
1969/12/31/18:00:21.629,(16 13 16 12 10 20 41 35)
1969/12/31/18:00:21.632,(72 42 14 12 12 16 6 6)
1969/12/31/18:00:21.632,(-35 -39 -22 -17 -12 -25 -35 -42)
1969/12/31/18:00:21.645,(15 2 0 -5 -24 -13 10 49)
1969/12/31/18:00:21.645,(-48 -31 -14 -10 13 52 -4 -24)
1969/12/31/18:00:21.656,(34 10 7 15 28 17 56 55)
1969/12/31/18:00:21.656,(0 11 3 -4 -23 13 -45 -24)
1969/12/31/18:00:21.673,(91 44 24 11 9 -9 36 55)
1969/12/31/18:00:21.673,(54 15 -6 10 3 -28 -38 33)
1969/12/31/18:00:21.674,(-71 -54 -30 -13 -16 -37 -29 -59)
1969/12/31/18:00:21.674,(29 21 9 8 15 16 25 33)
1969/12/31/18:00:21.698,(25 17 18 11 7 -4 11 61)
1969/12/31/18:00:21.698,(-63 -8 -2 -9 -8 1 -23 -64)
1969/12/31/18:00:21.701,(-15 -25 -8 -5 -10 -11 -18 6)
1969/12/31/18:00:21.701,(20 7 7 2 -3 -42 40 107)
1969/12/31/18:00:21.725,(-21 -12 -7 -9 1 28 -11 -54)
1969/12/31/18:00:21.725,(-24 0 16 14 12 -7 27 49)
1969/12/31/18:00:21.727,(116 45 6 4 2 40 11 60)
1969/12/31/18:00:21.727,(-62 -33 -18 -16 -4 -1 -20 -44)
1969/12/31/18:00:21.768,(26 17 0 2 1 -13 -4 -7)
1969/12/31/18:00:21.768,(3 -5 2 -1 -6 -9 -5 -22)
1969/12/31/18:00:21.771,(-61 -10 4 9 7 5 3 -26)
1969/12/31/18:00:21.771,(11 26 23 20 24 32 40 61)
1969/12/31/18:00:21.772,(-99 -64 -39 -26 -20 -17 2 -58)
1969/12/31/18:00:21.772,(27 17 1 -5 -12 -10 -29 -51)
1969/12/31/18:00:21.777,(-51 -34 -18 -13 -9 -28 -9 -24)
1969/12/31/18:00:21.777,(29 19 8 7 7 -19 5 -10)
1969/12/31/18:00:21.793,(-4 -7 -7 -3 -7 1 -10 13)
1969/12/31/18:00:21.794,(14 -7 -2 -3 -6 -10 11 30)
1969/12/31/18:00:21.795,(-10 9 7 8 9 19 8 6)
1969/12/31/18:00:21.795,(49 22 3 0 3 16 9 30)
1969/12/31/18:00:21.810,(-3 -12 -3 0 -2 -10 -19 6)
1969/12/31/18:00:21.810,(26 7 -1 -4 -4 12 11 34)
1969/12/31/18:00:21.819,(11 12 9 8 4 6 16 5)
1969/12/31/18:00:21.819,(0 -5 -3 -1 -1 -8 -17 37)
1969/12/31/18:00:21.836,(-33 -3 2 3 1 1 -32 -60)
1969/12/31/18:00:21.836,(-28 3 -6 -7 -7 -10 -4 -44)
1969/12/31/18:00:21.839,(44 2 -1 -4 -2 6 -2 32)
1969/12/31/18:00:21.839,(-17 -3 -2 -6 -7 -8 -5 -17)
1969/12/31/18:00:21.863,(15 6 6 6 7 7 -6 12)
1969/12/31/18:00:21.863,(-9 -3 -2 2 -1 5 8 0)
1969/12/31/18:00:21.864,(10 -3 -4 -2 -1 -3 0 3)
1969/12/31/18:00:21.864,(9 -9 0 -1 1 6 -4 -9)
1969/12/31/18:00:21.879,(5 -1 -7 -4 -2 -2 -4 -3)
1969/12/31/18:00:21.879,(19 7 2 1 -1 -4 -6 -7)
1969/12/31/18:00:21.887,(4 7 6 0 -1 4 4 -1)
1969/12/31/18:00:21.887,(-20 -3 1 2 2 -3 -2 -2)
1969/12/31/18:00:21.933,(-4 -1 2 1 1 3 -6 -10)
1969/12/31/18:00:21.933,(-11 -17 -6 -6 -3 -5 5 13)
1969/12/31/18:00:21.934,(10 10 -1 1 1 1 -2 1)
1969/12/31/18:00:21.934,(5 5 -4 -5 -1 2 -1 -20)
1969/12/31/18:00:21.935,(-13 -7 -1 -3 -3 -3 -9 -12)
1969/12/31/18:00:21.935,(-15 -16 -4 1 -2 -3 1 -6)
1969/12/31/18:00:21.940,(-6 -2 3 2 1 2 3 -1)
1969/12/31/18:00:21.940,(26 25 2 0 2 -2 -7 -16)
1969/12/31/18:00:21.949,(-16 -6 0 1 2 2 0 -9)
1969/12/31/18:00:21.949,(-24 -24 -7 -4 -3 -8 -10 -7)
1969/12/31/18:00:21.957,(-2 3 6 5 3 5 -1 -7)
1969/12/31/18:00:21.957,(-5 -4 -6 -4 -3 -1 -3 -4)
1969/12/31/18:00:21.974,(5 4 -1 1 0 2 0 3)
1969/12/31/18:00:21.974,(3 -10 -17 -9 -6 -4 1 8)
1969/12/31/18:00:21.977,(4 -7 -20 -9 -4 0 11 8)
1969/12/31/18:00:21.977,(-5 4 38 20 6 0 -1 1)
1969/12/31/18:00:22.001,(9 20 11 4 -3 -6 -14 -11)
1969/12/31/18:00:22.001,(-28 -17 -11 -6 -4 -5 -11 -27)
1969/12/31/18:00:22.002,(12 -22 -41 -19 -7 -3 -5 -3)
1969/12/31/18:00:22.002,(-18 10 34 13 5 3 6 -6)
1969/12/31/18:00:22.017,(11 10 -5 -4 -1 -3 15 13)
1969/12/31/18:00:22.017,(-11 8 13 4 0 -2 -30 -14)
1969/12/31/18:00:22.026,(5 15 13 5 0 4 8 -5)
1969/12/31/18:00:22.026,(-5 -28 -32 -16 -7 -3 -3 -1)
1969/12/31/18:00:22.043,(-4 -8 -6 -3 -1 0 5 8)
1969/12/31/18:00:22.043,(11 2 -18 -5 1 2 4 4)
1969/12/31/18:00:22.059,(5 11 25 10 5 0 -1 6)
1969/12/31/18:00:22.059,(-21 -18 -19 -8 -4 -2 -8 -11)
1969/12/31/18:00:22.087,(9 -9 -4 -5 -3 -4 -6 1)
1969/12/31/18:00:22.087,(-3 23 28 11 4 -1 7 -6)
1969/12/31/18:00:22.089,(5 10 -9 -11 -2 2 -2 4)
1969/12/31/18:00:22.089,(-8 0 8 2 -5 -3 13 -7)
1969/12/31/18:00:22.089,(4 52 67 27 7 -4 -44 -15)
1969/12/31/18:00:22.090,(-1 -19 -17 -5 0 6 14 4)
1969/12/31/18:00:22.095,(-6 -1 3 3 -1 -7 -2 -4)
1969/12/31/18:00:22.095,(6 -19 -28 -16 -4 0 -4 1)
1969/12/31/18:00:22.112,(-4 -33 -44 -22 -7 -2 10 4)
1969/12/31/18:00:22.112,(6 33 41 18 8 2 -2 -1)
1969/12/31/18:00:22.113,(-5 1 8 4 1 3 3 2)
1969/12/31/18:00:22.113,(6 -19 -39 -20 -11 -8 -8 -7)
1969/12/31/18:00:22.139,(-6 14 31 14 6 2 11 2)
1969/12/31/18:00:22.139,(-1 -27 -23 -10 -3 -2 -8 6)
1969/12/31/18:00:22.140,(-2 7 4 -2 1 1 -4 -7)
1969/12/31/18:00:22.140,(-4 44 40 13 3 -1 -4 -6)
1969/12/31/18:00:22.154,(1 -2 -8 0 -3 -2 -1 -1)
1969/12/31/18:00:22.154,(-2 -21 -12 -4 -3 2 14 5)
1969/12/31/18:00:22.164,(-1 -5 4 3 1 -3 3 2)
1969/12/31/18:00:22.164,(-5 -57 -48 -21 -7 -4 -9 -2)
1969/12/31/18:00:22.181,(3 41 14 1 -1 -2 3 -4)
1969/12/31/18:00:22.181,(8 16 6 5 1 3 7 1)
1969/12/31/18:00:22.184,(-6 -10 8 6 2 1 -3 -2)
1969/12/31/18:00:22.184,(-1 0 7 1 1 -1 1 2)
1969/12/31/18:00:22.208,(-8 -8 -15 -6 -5 0 0 1)
1969/12/31/18:00:22.208,(1 -17 -14 -3 -1 -2 2 -3)
1969/12/31/18:00:22.209,(4 21 11 2 1 0 0 -3)
1969/12/31/18:00:22.209,(-3 -43 -30 -13 -5 -2 -12 1)
1969/12/31/18:00:22.253,(-8 10 3 -4 -2 -4 -2 -8)
1969/12/31/18:00:22.253,(15 20 7 9 3 0 -5 -3)
1969/12/31/18:00:22.254,(-7 -14 0 2 -3 -1 -5 -2)
1969/12/31/18:00:22.254,(9 29 10 2 1 1 5 1)
1969/12/31/18:00:22.255,(-13 -44 -36 -18 -4 2 -7 -4)
1969/12/31/18:00:22.255,(-4 5 21 9 2 2 -1 -4)
1969/12/31/18:00:22.258,(15 12 3 3 -3 -1 -2 3)
1969/12/31/18:00:22.258,(3 8 0 0 -2 0 2 3)
1969/12/31/18:00:22.277,(-17 -10 11 8 2 -1 -3 -8)
1969/12/31/18:00:22.277,(-13 -14 -9 -6 -1 -3 7 5)
1969/12/31/18:00:22.278,(-13 -59 -52 -32 -9 -7 -3 -2)
1969/12/31/18:00:22.278,(11 79 47 20 9 -4 -1 -1)
1969/12/31/18:00:22.292,(17 22 36 18 9 1 9 7)
1969/12/31/18:00:22.292,(9 29 4 -1 0 -2 3 8)
1969/12/31/18:00:22.302,(2 -25 -7 5 3 -3 2 3)
1969/12/31/18:00:22.302,(-21 -34 -4 -6 -2 0 1 -3)
1969/12/31/18:00:22.319,(4 -14 -32 -17 -5 -4 1 -1)
1969/12/31/18:00:22.319,(-14 1 2 -5 -1 -2 -1 -3)
1969/12/31/18:00:22.320,(5 16 -3 -9 -3 0 -2 0)
1969/12/31/18:00:22.320,(0 -2 -7 -2 -2 -2 -6 -5)
1969/12/31/18:00:22.346,(-3 -16 -17 -9 -5 0 -2 -1)
1969/12/31/18:00:22.346,(6 -2 2 -3 -5 -1 -1 -1)
1969/12/31/18:00:22.347,(11 66 43 21 5 0 -6 -6)
1969/12/31/18:00:22.347,(1 -5 -4 1 1 3 2 4)
1969/12/31/18:00:22.361,(3 -43 -24 -14 -6 -3 -3 3)
1969/12/31/18:00:22.361,(-6 20 42 27 8 3 1 -3)
1969/12/31/18:00:22.371,(-7 -8 -1 0 0 -1 -1 -1)
1969/12/31/18:00:22.371,(4 18 2 3 0 -1 -2 -5)
1969/12/31/18:00:22.405,(0 -16 -13 -9 -4 -2 0 0)
1969/12/31/18:00:22.405,(-3 -19 -26 -15 -5 -4 -4 -1)
1969/12/31/18:00:22.408,(-4 3 4 4 3 3 1 1)
1969/12/31/18:00:22.408,(-3 -13 -3 -1 -2 -1 3 2)
1969/12/31/18:00:22.415,(1 -1 -8 -2 -1 -3 -3 -2)
1969/12/31/18:00:22.415,(-2 -8 -12 -10 -5 -2 4 2)
1969/12/31/18:00:22.416,(-5 11 6 6 1 -5 -8 -5)
1969/12/31/18:00:22.416,(13 -1 -5 -1 1 -1 -8 -6)
1969/12/31/18:00:22.430,(2 22 26 15 4 3 2 1)
1969/12/31/18:00:22.430,(-17 -18 -17 -13 -8 1 17 11)
1969/12/31/18:00:22.440,(5 2 2 2 3 -2 -15 -11)
1969/12/31/18:00:22.440,(7 8 4 2 0 -2 -16 -14)
1969/12/31/18:00:22.457,(-5 -2 -5 -3 -4 1 8 4)
1969/12/31/18:00:22.457,(0 -11 -17 -6 -3 -6 -12 -8)
1969/12/31/18:00:22.458,(-3 15 1 -3 -2 3 6 4)
1969/12/31/18:00:22.458,(-7 -36 -6 0 4 1 2 4)
1969/12/31/18:00:22.482,(6 0 -6 5 3 2 -1 -3)
1969/12/31/18:00:22.482,(-6 3 2 1 -1 -1 -5 -5)
1969/12/31/18:00:22.485,(-4 -18 -7 -8 -5 -1 0 -1)
1969/12/31/18:00:22.485,(-3 7 4 0 -2 2 1 -1)
1969/12/31/18:00:22.499,(-2 -6 2 -2 -3 2 1 3)
1969/12/31/18:00:22.499,(0 -9 5 2 -2 1 -7 -5)
1969/12/31/18:00:22.509,(1 5 -3 1 -4 -2 -7 -6)
1969/12/31/18:00:22.509,(-9 -4 -4 -2 -4 4 6 3)
1969/12/31/18:00:22.525,(-2 -2 3 2 -2 -2 -6 -7)
1969/12/31/18:00:22.525,(10 13 3 2 2 -9 -16 -12)
1969/12/31/18:00:22.533,(-6 -14 -8 -2 -1 -10 7 5)
1969/12/31/18:00:22.533,(5 13 2 1 -2 -10 3 5)
1969/12/31/18:00:22.562,(-4 2 -8 -6 -1 0 0 1)
1969/12/31/18:00:22.562,(4 7 -6 -3 1 4 2 0)
1969/12/31/18:00:22.564,(-6 -8 6 3 2 6 6 4)
1969/12/31/18:00:22.564,(-4 -11 -14 -6 -1 0 2 1)
1969/12/31/18:00:22.578,(-1 -1 -5 -3 -1 -5 -3 -2)
1969/12/31/18:00:22.578,(0 -3 7 1 2 0 -3 -4)
1969/12/31/18:00:22.580,(2 5 2 -5 -2 2 1 -2)
1969/12/31/18:00:22.580,(-2 3 2 1 -2 -1 2 2)
1969/12/31/18:00:22.595,(0 -2 2 -5 -2 0 -1 1)
1969/12/31/18:00:22.595,(-4 4 1 -1 -2 -1 -1 -2)
1969/12/31/18:00:22.597,(0 -3 -1 3 -1 -3 -10 -5)
1969/12/31/18:00:22.597,(1 8 4 1 0 0 -1 -2)
1969/12/31/18:00:22.620,(-2 -3 -9 -3 0 -1 -1 0)
1969/12/31/18:00:22.622,(-2 -2 -9 -9 -4 -2 0 1)
1969/12/31/18:00:22.623,(0 2 8 7 3 1 3 1)
1969/12/31/18:00:22.623,(0 -3 2 0 -3 -3 -2 -1)
1969/12/31/18:00:22.647,(-3 2 3 2 0 -1 -3 -2)
1969/12/31/18:00:22.647,(2 3 1 1 0 -1 -1 0)
1969/12/31/18:00:22.656,(-5 -11 -12 -6 -2 1 1 1)
1969/12/31/18:00:22.656,(3 5 4 6 -1 0 -1 0)
1969/12/31/18:00:22.664,(-2 -2 2 1 0 -1 -2 -4)
1969/12/31/18:00:22.664,(-3 -7 -3 -2 -1 -2 1 0)
1969/12/31/18:00:22.665,(-5 -8 -4 -3 -3 -1 -1 0)
1969/12/31/18:00:22.665,(0 -3 -4 -4 -1 -1 -2 -1)
1969/12/31/18:00:22.691,(5 11 3 1 -1 -1 -4 -2)
1969/12/31/18:00:22.691,(-6 -10 5 1 0 1 3 -1)
1969/12/31/18:00:22.692,(-2 -1 -2 0 1 -1 0 -3)
1969/12/31/18:00:22.692,(-6 -5 -5 -3 -2 -3 2 4)
1969/12/31/18:00:22.725,(3 0 -5 -6 -2 0 0 1)
1969/12/31/18:00:22.725,(-1 -3 -9 -6 -5 -3 -2 2)
1969/12/31/18:00:22.727,(-5 -10 -10 -7 -5 -2 -1 -3)
1969/12/31/18:00:22.727,(-5 -9 -6 -4 -3 -3 -1 -2)
1969/12/31/18:00:22.733,(-2 9 4 0 0 -1 -3 -2)
1969/12/31/18:00:22.733,(2 4 3 0 -2 -1 -1 0)
1969/12/31/18:00:22.734,(1 -2 0 2 -2 0 4 2)
1969/12/31/18:00:22.734,(0 -1 -3 -2 0 -1 -2 -3)
1969/12/31/18:00:22.760,(-1 -6 -2 0 0 -2 -1 -2)
1969/12/31/18:00:22.760,(0 0 -2 0 0 0 -2 -2)
1969/12/31/18:00:22.761,(-1 1 2 -1 -1 -2 -1 -3)
1969/12/31/18:00:22.761,(3 1 3 0 0 -1 -1 -2)
1969/12/31/18:00:22.785,(-1 -3 0 1 0 0 -3 -1)
1969/12/31/18:00:22.785,(-2 -1 2 -1 -1 -1 -1 -1)
1969/12/31/18:00:22.786,(0 -4 -5 -4 -2 2 0 -1)
1969/12/31/18:00:22.786,(-2 1 0 0 -1 0 -1 -1)
1969/12/31/18:00:22.802,(0 0 0 0 -3 -2 0 0)
1969/12/31/18:00:22.802,(0 0 -3 -2 -1 0 0 2)
1969/12/31/18:00:22.803,(-4 -6 -6 -1 0 0 -2 -2)
1969/12/31/18:00:22.804,(0 -3 -5 -4 -2 -3 -2 -2)
1969/12/31/18:00:22.827,(0 11 19 10 5 -1 -1 -2)
1969/12/31/18:00:22.827,(1 -2 2 5 3 0 1 1)
1969/12/31/18:00:22.830,(3 4 5 4 1 -1 0 1)
1969/12/31/18:00:22.830,(4 5 6 6 3 1 1 1)
1969/12/31/18:00:22.854,(-3 -6 -7 -4 -3 -3 0 -1)
1969/12/31/18:00:22.854,(0 0 -1 -2 -2 -1 -1 0)
1969/12/31/18:00:22.855,(0 1 1 0 -2 -2 1 1)
1969/12/31/18:00:22.855,(1 2 4 2 1 1 -1 0)
1969/12/31/18:00:22.900,(-1 -5 -5 -2 -1 0 0 0)
1969/12/31/18:00:22.900,(-2 -4 -4 -4 0 1 -1 -3)
1969/12/31/18:00:22.901,(-2 4 2 2 1 -1 -3 1)
1969/12/31/18:00:22.901,(-2 0 -1 -2 -2 -1 -2 -2)
1969/12/31/18:00:22.902,(-1 -6 -5 -3 -3 -1 0 -1)
1969/12/31/18:00:22.902,(-1 -2 -6 -4 -2 0 0 0)
1969/12/31/18:00:22.906,(-2 -5 -7 -5 -1 -1 -1 -1)
1969/12/31/18:00:22.906,(1 10 10 5 2 1 0 0)
1969/12/31/18:00:22.923,(-2 1 1 2 -1 -1 -1 -2)
1969/12/31/18:00:22.923,(0 -3 -4 -3 -2 -4 0 -1)
1969/12/31/18:00:22.925,(-1 -3 -2 -3 -1 -1 -2 -1)
1969/12/31/18:00:22.925,(1 1 -1 1 0 0 -1 -2)
1969/12/31/18:00:22.940,(-5 -8 -5 -2 -1 0 0 -1)
1969/12/31/18:00:22.940,(-1 3 2 0 0 -2 0 0)
1969/12/31/18:00:22.941,(-3 2 -1 -2 -1 -2 -1 -2)
1969/12/31/18:00:22.942,(-1 -6 -4 -5 -2 0 -1 -2)
1969/12/31/18:00:22.966,(1 2 2 -2 1 0 -2 0)
1969/12/31/18:00:22.966,(-3 -2 -5 -3 -3 -1 -1 -2)
1969/12/31/18:00:22.968,(1 2 6 4 -1 1 2 2)
1969/12/31/18:00:22.968,(-3 -5 -9 -6 -2 -2 -1 -2)
1969/12/31/18:00:22.992,(0 1 -1 -2 -2 -4 -2 -2)
1969/12/31/18:00:22.992,(1 2 2 4 2 0 -2 -1)
1969/12/31/18:00:22.994,(-1 -5 -7 -8 -2 -3 -3 -2)
1969/12/31/18:00:22.994,(-1 2 4 0 -1 -1 1 -1)
1969/12/31/18:00:23.045,(0 -2 -2 3 0 0 0 0)
1969/12/31/18:00:23.045,(-2 0 4 5 1 -2 -2 1)
1969/12/31/18:00:23.047,(-1 -1 0 0 0 1 0 -1)
1969/12/31/18:00:23.047,(-1 -3 -2 1 1 0 0 1)
1969/12/31/18:00:23.048,(-2 -1 -3 -5 -2 -2 -2 -2)
1969/12/31/18:00:23.048,(-2 -5 -2 -1 0 -1 -1 -3)
1969/12/31/18:00:23.053,(0 6 7 2 -1 0 0 0)
1969/12/31/18:00:23.053,(2 3 -1 -4 -3 -2 -3 0)
1969/12/31/18:00:23.061,(-1 -6 -1 7 3 2 2 0)
1969/12/31/18:00:23.061,(0 -2 -4 -5 -4 -1 1 -2)
1969/12/31/18:00:23.063,(-2 -6 -3 -4 -2 -3 -2 0)
1969/12/31/18:00:23.063,(-2 1 -1 3 0 -1 0 -2)
1969/12/31/18:00:23.077,(1 5 0 -2 0 1 0 1)
1969/12/31/18:00:23.077,(-2 -4 -5 -3 -1 -1 -1 -3)
1969/12/31/18:00:23.085,(-3 -4 -1 -1 1 0 1 -2)
1969/12/31/18:00:23.085,(-3 -2 -2 -2 0 0 1 -2)
1969/12/31/18:00:23.085,(-2 -2 -5 -3 -1 -1 0 -3)
1969/12/31/18:00:23.085,(-1 1 1 2 0 -1 -2 -2)
1969/12/31/18:00:23.085,(-1 -1 -1 -4 -3 0 0 0)
1969/12/31/18:00:23.085,(-1 -2 -2 -7 -2 3 -5 -3)
1969/12/31/18:00:23.092,(1 1 1 1 0 -10 -5 -2)
1969/12/31/18:00:23.092,(-1 -3 -4 -6 -2 16 3 -1)
1969/12/31/18:00:23.093,(1 4 2 6 6 7 4 3)
1969/12/31/18:00:23.093,(-2 -3 -3 -11 -10 -10 -6 -4)
1969/12/31/18:00:23.109,(0 0 1 2 -4 -3 -1 -2)
1969/12/31/18:00:23.109,(-1 -2 -3 1 3 -7 -3 -2)
1969/12/31/18:00:23.110,(-3 -3 -7 -5 -6 -5 -3 -3)
1969/12/31/18:00:23.110,(0 1 5 9 2 1 -2 0)
1969/12/31/18:00:23.136,(1 1 -1 -3 -1 2 0 0)
1969/12/31/18:00:23.136,(0 0 -2 -4 -5 -5 0 -1)
1969/12/31/18:00:23.137,(0 -1 -2 0 1 2 1 -1)
1969/12/31/18:00:23.137,(-2 -2 -5 0 0 -2 1 -1)
1969/12/31/18:00:23.161,(-1 1 0 -2 -2 2 -3 1)
1969/12/31/18:00:23.161,(0 0 -2 0 -1 0 1 1)
1969/12/31/18:00:23.162,(-1 -3 -2 -3 -1 -4 -2 0)
1969/12/31/18:00:23.162,(-2 0 0 0 1 -1 0 -1)
1969/12/31/18:00:23.188,(1 1 0 -4 -1 1 1 0)
1969/12/31/18:00:23.188,(1 3 3 5 2 -2 -1 0)
1969/12/31/18:00:23.188,(-2 -4 -1 -6 -9 -4 -1 -1)
1969/12/31/18:00:23.188,(-3 -2 3 6 7 1 1 0)
1969/12/31/18:00:23.233,(-3 -8 -10 -14 -6 4 1 0)
1969/12/31/18:00:23.233,(2 2 -2 7 8 1 4 0)
1969/12/31/18:00:23.234,(1 2 12 13 2 -5 -5 0)
1969/12/31/18:00:23.234,(-1 2 0 2 3 0 0 -2)
1969/12/31/18:00:23.236,(-1 -2 1 1 -2 0 1 2)
1969/12/31/18:00:23.236,(-8 -10 -12 -12 -8 0 -2 -6)
1969/12/31/18:00:23.239,(-3 -6 -13 -19 -7 -4 -4 -2)
1969/12/31/18:00:23.239,(5 11 15 14 2 1 2 3)
1969/12/31/18:00:23.247,(1 1 5 3 3 3 -1 -2)
1969/12/31/18:00:23.248,(0 0 2 -3 -4 -6 -2 2)
1969/12/31/18:00:23.248,(-2 -4 -4 1 2 4 -2 -2)
1969/12/31/18:00:23.248,(-2 -6 -9 -10 -8 -2 -1 -2)
1969/12/31/18:00:23.273,(-2 0 -5 -1 0 1 0 -2)
1969/12/31/18:00:23.273,(-1 -2 -1 -1 -4 -3 -4 0)
1969/12/31/18:00:23.273,(2 5 5 4 1 -1 -2 -1)
1969/12/31/18:00:23.273,(-2 -5 -12 -6 -2 2 2 0)
1969/12/31/18:00:23.299,(0 2 10 5 -3 -4 -2 -2)
1969/12/31/18:00:23.299,(-1 1 1 -3 0 0 -1 2)
1969/12/31/18:00:23.300,(-1 -8 -14 -7 -4 -5 -4 -5)
1969/12/31/18:00:23.300,(1 8 8 1 0 6 2 2)
1969/12/31/18:00:23.317,(-3 -7 -5 -14 -11 -6 -5 -3)
1969/12/31/18:00:23.317,(6 8 25 31 17 26 18 16)
1969/12/31/18:00:23.317,(9 8 9 20 9 -11 -12 -3)
1969/12/31/18:00:23.317,(-14 -19 -27 -34 -11 -15 -5 -3)
1969/12/31/18:00:23.342,(3 2 -25 -5 7 19 3 3)
1969/12/31/18:00:23.342,(0 5 46 27 -8 -24 7 6)
1969/12/31/18:00:23.344,(0 5 0 4 9 20 -1 -5)
1969/12/31/18:00:23.344,(0 -5 0 7 -2 -5 1 -2)
1969/12/31/18:00:23.405,(-3 -5 -15 -18 -1 1 -4 1)
1969/12/31/18:00:23.406,(-5 -10 -29 -30 -10 -2 -11 -8)
1969/12/31/18:00:23.406,(-1 4 10 3 0 -1 5 4)
1969/12/31/18:00:23.406,(1 2 1 0 -3 -3 -5 -4)
1969/12/31/18:00:23.407,(-2 -6 0 -2 -2 -4 1 0)
1969/12/31/18:00:23.408,(0 -1 -11 -7 -2 -7 -11 -16)
1969/12/31/18:00:23.413,(-5 -3 1 -5 -4 -9 1 -1)
1969/12/31/18:00:23.413,(4 4 0 -2 6 6 6 7)
1969/12/31/18:00:23.415,(1 5 11 12 2 -8 -2 -3)
1969/12/31/18:00:23.415,(-6 0 -4 -1 2 1 -3 -6)
1969/12/31/18:00:23.416,(0 -3 -5 -9 -7 3 -1 4)
1969/12/31/18:00:23.416,(2 -1 3 1 -2 4 -5 -2)
1969/12/31/18:00:23.438,(0 2 11 15 4 3 1 2)
1969/12/31/18:00:23.438,(-4 -6 -9 -11 -4 -1 -7 -4)
1969/12/31/18:00:23.439,(-5 -1 -5 -5 -4 2 -1 -6)
1969/12/31/18:00:23.439,(-2 -2 0 6 -1 2 1 2)
1969/12/31/18:00:23.454,(-1 1 11 5 1 -3 -3 -2)
1969/12/31/18:00:23.455,(1 -3 -8 -8 -1 5 -3 0)
1969/12/31/18:00:23.455,(-1 3 -6 -3 -3 -3 0 -2)
1969/12/31/18:00:23.455,(-5 -6 8 11 2 -3 0 -2)
1969/12/31/18:00:23.480,(7 -27 -23 -6 -4 -4 0 1)
1969/12/31/18:00:23.480,(-9 12 9 -4 -3 -6 0 0)
1969/12/31/18:00:23.482,(-1 4 -13 -2 4 -2 7 0)
1969/12/31/18:00:23.482,(-5 1 -4 -4 -1 -5 2 2)
1969/12/31/18:00:23.506,(3 16 13 3 0 -4 -1 -3)
1969/12/31/18:00:23.506,(-4 -37 -17 -3 -1 -2 1 6)
1969/12/31/18:00:23.507,(-4 -8 -5 -3 -1 -2 -2 -4)
1969/12/31/18:00:23.507,(1 -15 -11 -5 0 3 3 12)
1969/12/31/18:00:23.552,(-4 10 -11 -5 -3 -6 -7 -19)
1969/12/31/18:00:23.552,(-4 11 13 5 2 -1 6 -3)
1969/12/31/18:00:23.553,(2 2 9 -1 -2 -1 1 9)
1969/12/31/18:00:23.553,(10 7 6 7 4 -1 -14 -12)
1969/12/31/18:00:23.554,(-3 -7 -6 -4 -4 -3 4 9)
1969/12/31/18:00:23.554,(-1 2 -6 -4 4 4 -1 -4)
1969/12/31/18:00:23.557,(-4 -4 2 0 -2 0 1 -4)
1969/12/31/18:00:23.557,(-3 -2 -3 -3 0 4 4 -2)
1969/12/31/18:00:23.575,(-5 -1 4 1 -2 -2 2 5)
1969/12/31/18:00:23.575,(0 -1 -7 -8 -6 -5 5 7)
1969/12/31/18:00:23.576,(14 5 2 6 4 -1 2 12)
1969/12/31/18:00:23.576,(-16 -8 -8 -8 -8 -10 -9 -19)
1969/12/31/18:00:23.594,(7 7 6 2 1 -1 2 10)
1969/12/31/18:00:23.594,(-6 -11 -10 -5 -5 -6 -4 -16)
1969/12/31/18:00:23.595,(1 0 -1 -4 1 -1 5 12)
1969/12/31/18:00:23.595,(-13 7 3 1 1 5 21 12)
1969/12/31/18:00:23.618,(3 -5 -6 -5 -8 -12 -22 -31)
1969/12/31/18:00:23.618,(41 12 -1 1 1 2 5 31)
1969/12/31/18:00:23.620,(-47 -18 -4 -6 -8 -7 -16 -41)
1969/12/31/18:00:23.620,(1 6 13 5 4 1 -8 -7)
1969/12/31/18:00:23.644,(16 12 9 5 14 51 21 4)
1969/12/31/18:00:23.644,(-35 -11 -5 -3 -19 -56 -36 -18)
1969/12/31/18:00:23.645,(20 -7 0 1 0 3 -12 -10)
1969/12/31/18:00:23.645,(-3 -2 2 -1 -4 -4 -6 -17)
1969/12/31/18:00:23.662,(-1 2 6 5 1 12 7 27)
1969/12/31/18:00:23.662,(41 22 8 6 5 22 6 8)
1969/12/31/18:00:23.662,(-12 2 5 2 -2 -9 -9 -14)
1969/12/31/18:00:23.662,(6 -1 -3 -4 -3 20 10 20)
1969/12/31/18:00:23.715,(-6 -21 -4 -1 0 -16 -11 -33)
1969/12/31/18:00:23.715,(-47 -16 -13 -7 -1 10 -4 -20)
1969/12/31/18:00:23.716,(20 12 2 1 -2 -4 16 24)
1969/12/31/18:00:23.716,(40 15 2 2 6 16 5 26)
1969/12/31/18:00:23.718,(-14 -20 -9 -7 -6 -16 -27 -29)
1969/12/31/18:00:23.718,(14 10 0 -1 -7 -1 4 -18)
1969/12/31/18:00:23.722,(-5 -7 -1 -1 5 16 -6 -27)
1969/12/31/18:00:23.722,(12 11 0 -4 -13 -42 10 26)
1969/12/31/18:00:23.730,(-27 -3 -2 -1 2 13 0 -10)
1969/12/31/18:00:23.730,(14 1 2 -1 -2 -4 16 33)
1969/12/31/18:00:23.731,(8 21 -3 -5 -1 8 6 -7)
1969/12/31/18:00:23.731,(23 -2 10 9 9 8 -21 -10)
1969/12/31/18:00:23.756,(6 -6 -7 -4 -5 -24 -12 2)
1969/12/31/18:00:23.756,(-12 -9 5 7 12 16 -9 0)
1969/12/31/18:00:23.757,(27 10 -1 -2 -2 1 21 25)
1969/12/31/18:00:23.757,(-73 -33 -14 -6 -6 -20 -22 -34)
1969/12/31/18:00:23.782,(14 18 5 2 -6 -9 7 35)
1969/12/31/18:00:23.782,(8 -8 -8 -4 2 9 6 48)
1969/12/31/18:00:23.783,(-3 1 2 3 1 -25 1 0)
1969/12/31/18:00:23.783,(21 4 0 2 7 29 12 14)
1969/12/31/18:00:23.799,(8 21 7 2 0 -1 12 30)
1969/12/31/18:00:23.799,(-17 0 -7 -7 -6 -3 -10 -19)
1969/12/31/18:00:23.808,(13 -14 -1 0 1 22 -2 12)
1969/12/31/18:00:23.808,(17 23 9 7 5 -13 -34 -40)
1969/12/31/18:00:23.825,(-6 -1 4 3 9 41 6 -1)
1969/12/31/18:00:23.825,(42 28 6 4 13 7 27 76)
1969/12/31/18:00:23.825,(-50 -25 -4 -1 -12 -43 -30 -65)
1969/12/31/18:00:23.825,(0 -19 -6 -6 -1 1 17 46)
1969/12/31/18:00:23.871,(-15 7 -5 -5 -8 -22 0 -55)
1969/12/31/18:00:23.871,(37 11 6 2 6 51 2 20)
1969/12/31/18:00:23.872,(-5 2 5 2 5 16 19 12)
1969/12/31/18:00:23.872,(-16 -5 -3 -2 -2 -4 -5 3)
1969/12/31/18:00:23.878,(42 -2 -2 2 0 -13 24 56)
1969/12/31/18:00:23.878,(-54 -6 -2 -2 -2 -15 -20 -52)
1969/12/31/18:00:23.878,(7 -23 -10 -5 -4 -1 4 21)
1969/12/31/18:00:23.878,(-7 5 -3 -3 -3 3 2 -21)
1969/12/31/18:00:23.894,(0 4 9 8 15 90 18 29)
1969/12/31/18:00:23.894,(-9 3 0 0 -11 -54 11 -17)
1969/12/31/18:00:23.894,(29 20 9 7 13 28 -19 18)
1969/12/31/18:00:23.894,(-23 -16 -14 -11 -13 -6 42 -10)
1969/12/31/18:00:23.921,(0 -7 -6 -6 -20 -94 -47 -41)
1969/12/31/18:00:23.921,(10 -10 -1 0 6 40 -12 -20)
1969/12/31/18:00:23.922,(10 7 1 2 2 -11 -11 25)
1969/12/31/18:00:23.922,(14 21 8 5 7 26 42 -3)
1969/12/31/18:00:23.937,(20 -5 2 2 3 -2 -3 27)
1969/12/31/18:00:23.937,(-32 -10 0 1 -3 -23 -18 -53)
1969/12/31/18:00:23.946,(-8 -19 -17 -15 -15 -17 -29 -89)
1969/12/31/18:00:23.946,(11 8 2 0 2 2 -27 -9)
1969/12/31/18:00:23.963,(-1 0 -2 -6 -6 -17 14 14)
1969/12/31/18:00:23.963,(-13 -15 -1 0 1 -5 -17 -18)
1969/12/31/18:00:23.963,(4 10 4 0 -1 12 5 24)
1969/12/31/18:00:23.964,(5 1 1 2 1 -4 -2 38)
1969/12/31/18:00:23.990,(-7 3 2 1 3 -6 -9 -23)
1969/12/31/18:00:23.990,(15 -19 -19 -16 -15 -8 44 26)
1969/12/31/18:00:23.991,(-35 -12 1 5 15 100 45 58)
1969/12/31/18:00:23.991,(-13 -16 -7 -9 -29 -109 -7 44)
1969/12/31/18:00:24.016,(8 4 0 -4 -3 3 9 21)
1969/12/31/18:00:24.016,(-14 -3 -2 0 -1 -19 -13 5)
1969/12/31/18:00:24.017,(21 12 2 2 2 17 7 23)
1969/12/31/18:00:24.017,(-9 3 0 -1 1 7 -9 -66)
1969/12/31/18:00:24.041,(-40 -21 -9 -5 0 11 -17 -43)
1969/12/31/18:00:24.041,(24 9 2 2 -1 -10 -5 1)
1969/12/31/18:00:24.043,(-35 -3 -1 0 -4 -38 -1 -9)
1969/12/31/18:00:24.043,(13 0 1 3 8 19 -15 -10)
1969/12/31/18:00:24.059,(-31 4 1 3 0 -3 -3 -1)
1969/12/31/18:00:24.059,(13 -4 -3 0 1 8 -20 30)
1969/12/31/18:00:24.060,(-25 3 -1 -2 -12 -67 -14 -23)
1969/12/31/18:00:24.060,(13 -8 -2 1 7 41 2 5)
1969/12/31/18:00:24.075,(-22 -9 -3 -4 -4 -10 -11 -29)
1969/12/31/18:00:24.075,(17 6 5 3 6 18 12 -5)
1969/12/31/18:00:24.084,(24 21 12 9 5 -6 -1 -24)
1969/12/31/18:00:24.084,(-16 -19 -20 -19 -17 -21 -40 -42)
1969/12/31/18:00:24.101,(-1 5 5 6 8 32 4 -14)
1969/12/31/18:00:24.101,(-13 7 6 5 -4 -58 -22 -42)
1969/12/31/18:00:24.102,(36 11 3 2 12 80 -12 -21)
1969/12/31/18:00:24.102,(-4 -2 0 -1 -8 -60 16 39)
1969/12/31/18:00:24.128,(-56 -23 -12 -8 -11 -48 -30 -56)
1969/12/31/18:00:24.128,(-9 8 2 0 4 53 47 -8)
1969/12/31/18:00:24.129,(-7 -9 -3 0 0 3 19 50)
1969/12/31/18:00:24.129,(-39 -7 3 2 5 33 -28 -63)
1969/12/31/18:00:24.144,(50 20 3 -8 -13 9 19 56)
1969/12/31/18:00:24.144,(25 0 2 13 26 -87 38 41)
1969/12/31/18:00:24.190,(-27 -7 -1 5 18 47 -51 -24)
1969/12/31/18:00:24.190,(54 17 4 11 13 11 51 80)
1969/12/31/18:00:24.191,(-3 1 -1 -6 -13 -13 -16 -6)
1969/12/31/18:00:24.191,(-38 -12 -1 -9 -16 19 -32 -44)
1969/12/31/18:00:24.192,(-12 -19 -11 -8 -8 6 1 -12)
1969/12/31/18:00:24.192,(-18 -3 2 6 15 -10 -15 -42)
1969/12/31/18:00:24.198,(32 3 -8 -10 -8 18 -31 24)
1969/12/31/18:00:24.198,(6 5 3 2 -8 -12 -12 28)
1969/12/31/18:00:24.199,(7 0 -4 -10 -13 -38 6 1)
1969/12/31/18:00:24.199,(27 5 1 6 14 34 7 56)
1969/12/31/18:00:24.222,(-6 -20 -7 4 15 24 30 -24)
1969/12/31/18:00:24.222,(3 5 2 3 24 9 -15 42)
1969/12/31/18:00:24.223,(14 4 -8 -18 -64 -36 -33 -13)
1969/12/31/18:00:24.223,(6 6 -4 -11 -18 12 33 2)
1969/12/31/18:00:24.248,(-11 -20 0 9 24 26 23 -2)
1969/12/31/18:00:24.248,(-13 -7 -5 -10 -25 -16 -12 -10)
1969/12/31/18:00:24.250,(55 17 3 -1 9 -2 60 74)
1969/12/31/18:00:24.250,(-19 -7 -7 -15 -25 -60 -28 -16)
1969/12/31/18:00:24.266,(49 32 14 6 17 111 49 81)
1969/12/31/18:00:24.266,(-31 -32 -21 -5 36 -65 -15 -19)
1969/12/31/18:00:24.267,(-21 -10 3 7 11 11 11 6)
1969/12/31/18:00:24.267,(10 21 13 8 -2 -3 -2 -16)
1969/12/31/18:00:24.291,(-23 -29 -22 -14 -9 -43 -12 -30)
1969/12/31/18:00:24.291,(-4 -4 2 2 -11 33 0 -30)
1969/12/31/18:00:24.292,(25 4 1 1 0 -7 1 18)
1969/12/31/18:00:24.292,(-12 -6 -3 5 62 49 6 -2)
1969/12/31/18:00:24.308,(16 33 21 19 -25 -18 -7 17)
1969/12/31/18:00:24.308,(-9 -5 -7 -18 -64 -55 1 -7)
1969/12/31/18:00:24.309,(-38 -26 -17 -18 -11 -17 -41 -49)
1969/12/31/18:00:24.309,(22 5 5 16 53 42 9 28)
1969/12/31/18:00:24.362,(5 6 1 -11 -46 -65 -27 -22)
1969/12/31/18:00:24.362,(-5 -12 0 1 11 50 -12 -25)
1969/12/31/18:00:24.362,(-7 6 -1 -12 -28 -47 4 12)
1969/12/31/18:00:24.362,(-6 -11 -11 -23 -24 -11 -27 -16)
1969/12/31/18:00:24.365,(-30 8 0 3 30 10 3 -51)
1969/12/31/18:00:24.365,(5 -11 6 16 17 51 13 2)
1969/12/31/18:00:24.368,(9 5 1 19 40 12 33 7)
1969/12/31/18:00:24.368,(-15 16 10 12 -13 19 -6 11)
1969/12/31/18:00:24.377,(33 22 21 27 54 -16 12 55)
1969/12/31/18:00:24.377,(-1 -3 -24 -33 -84 -8 -21 -20)
1969/12/31/18:00:24.378,(17 -20 -2 -12 -14 -35 3 18)
1969/12/31/18:00:24.378,(21 -7 -25 -20 -23 5 -5 13)
1969/12/31/18:00:24.404,(-51 -7 33 14 9 -22 -15 -48)
1969/12/31/18:00:24.404,(1 15 9 14 51 32 1 6)
1969/12/31/18:00:24.405,(-21 9 -12 -10 -19 4 18 -39)
1969/12/31/18:00:24.405,(-6 -20 32 10 -18 -11 0 -22)
1969/12/31/18:00:24.430,(28 32 23 11 24 21 8 72)
1969/12/31/18:00:24.430,(-31 -1 -28 4 34 21 -1 -80)
1969/12/31/18:00:24.430,(-9 -18 15 0 -37 -38 -18 41)
1969/12/31/18:00:24.430,(3 -67 -65 -27 5 20 24 32)
1969/12/31/18:00:24.446,(-72 -58 -17 -5 0 -28 -34 -99)
1969/12/31/18:00:24.446,(1 98 88 28 28 72 71 112)
1969/12/31/18:00:24.447,(-30 -12 -26 0 23 -36 -55 -78)
1969/12/31/18:00:24.447,(-7 13 -2 8 -25 -29 -32 -44)
1969/12/31/18:00:24.473,(63 -55 -40 -14 -37 -5 -16 62)
1969/12/31/18:00:24.473,(-54 -96 -76 -37 4 -7 -39 -57)
1969/12/31/18:00:24.474,(-23 95 122 62 34 8 35 0)
1969/12/31/18:00:24.474,(23 97 49 4 -13 -34 -22 -40)
1969/12/31/18:00:24.507,(6 -70 -80 -21 40 29 15 -12)
1969/12/31/18:00:24.508,(12 19 -21 0 -13 -11 -5 -19)
1969/12/31/18:00:24.508,(65 -25 -75 -23 -3 22 5 66)
1969/12/31/18:00:24.508,(-84 -16 34 -8 -13 -8 14 10)
1969/12/31/18:00:24.515,(25 92 52 20 -17 -12 17 36)
1969/12/31/18:00:24.515,(50 77 76 18 11 13 10 -52)
1969/12/31/18:00:24.515,(-4 -99 -71 -5 26 -19 -33 0)
1969/12/31/18:00:24.515,(68 -8 -15 -4 -20 2 9 33)
1969/12/31/18:00:24.543,(-36 -71 -80 -33 6 13 -7 -38)
1969/12/31/18:00:24.543,(-33 35 29 -12 -43 -30 -53 -43)
1969/12/31/18:00:24.544,(13 31 32 13 3 5 22 12)
1969/12/31/18:00:24.544,(25 18 -26 -3 39 -3 -49 -17)
1969/12/31/18:00:24.568,(-93 1 41 -1 -57 -35 9 -84)
1969/12/31/18:00:24.568,(47 -19 -37 -20 -13 -9 -1 71)
1969/12/31/18:00:24.568,(12 -29 -32 -38 -31 14 38 50)
1969/12/31/18:00:24.568,(-10 43 13 23 25 27 20 42)
1969/12/31/18:00:24.584,(46 60 61 31 22 -19 4 51)
1969/12/31/18:00:24.584,(20 31 31 22 26 0 13 35)
1969/12/31/18:00:24.584,(9 28 49 17 -4 6 -2 5)
1969/12/31/18:00:24.584,(-19 -74 -54 4 21 26 34 26)
1969/12/31/18:00:24.611,(-8 -38 -18 -16 11 4 -13 -2)
1969/12/31/18:00:24.611,(-24 -43 -58 -45 -51 -52 -21 -21)
1969/12/31/18:00:24.612,(-72 33 32 -2 -20 -29 -42 -83)
1969/12/31/18:00:24.612,(58 72 55 34 -7 -1 10 16)
1969/12/31/18:00:24.637,(-3 10 12 11 32 36 36 36)
1969/12/31/18:00:24.637,(37 -65 -43 -14 50 42 -2 31)
1969/12/31/18:00:24.637,(-29 -15 -13 -12 -41 -8 -1 -38)
1969/12/31/18:00:24.638,(-43 -41 -37 -37 4 -33 -11 -28)
1969/12/31/18:00:24.672,(-8 -26 -54 -29 -84 -40 -26 -70)
1969/12/31/18:00:24.672,(54 74 91 43 25 32 40 66)
1969/12/31/18:00:24.672,(20 -11 -11 10 42 27 3 -25)
1969/12/31/18:00:24.672,(22 3 22 0 6 15 34 18)
1969/12/31/18:00:24.680,(-46 -36 -95 -27 22 0 -33 -81)
1969/12/31/18:00:24.680,(-53 -33 35 15 -21 -18 -8 19)
1969/12/31/18:00:24.681,(86 34 -37 -6 -2 -10 21 59)
1969/12/31/18:00:24.681,(-10 -41 24 0 -6 -15 0 13)
1969/12/31/18:00:24.706,(-6 86 61 23 -16 -7 -15 67)
1969/12/31/18:00:24.706,(-14 -22 -28 6 15 13 -7 -40)
1969/12/31/18:00:24.706,(-46 -78 -58 -8 -2 13 5 -22)
1969/12/31/18:00:24.706,(22 -40 -46 -37 -23 6 32 58)
1969/12/31/18:00:24.722,(-14 51 17 -6 -31 -34 -33 -59)
1969/12/31/18:00:24.722,(-6 15 17 12 32 33 34 3)
1969/12/31/18:00:24.722,(4 -12 -7 -7 -11 -12 -19 11)
1969/12/31/18:00:24.722,(-22 -76 -50 -9 15 2 7 -13)
1969/12/31/18:00:24.749,(0 -68 -45 -23 -45 -23 -13 5)
1969/12/31/18:00:24.749,(38 38 -19 18 59 27 3 1)
1969/12/31/18:00:24.750,(-8 61 74 21 5 25 39 20)
1969/12/31/18:00:24.750,(-97 -5 8 -1 -28 -31 -101 -116)
1969/12/31/18:00:24.775,(33 28 72 26 60 58 53 70)
1969/12/31/18:00:24.775,(37 -26 -54 -19 -48 -24 -4 11)
1969/12/31/18:00:24.776,(-57 -88 -72 -28 2 -37 -26 -52)
1969/12/31/18:00:24.776,(-23 28 22 -16 -76 -11 -8 -55)
1969/12/31/18:00:24.828,(19 58 36 45 93 30 12 3)
1969/12/31/18:00:24.828,(-15 -25 -10 -37 -70 -31 -50 -20)
1969/12/31/18:00:24.829,(23 -11 -11 2 43 32 27 13)
1969/12/31/18:00:24.829,(-26 -6 0 -3 -56 -69 -42 -20)
1969/12/31/18:00:24.830,(5 -94 -111 -57 -26 14 1 34)
1969/12/31/18:00:24.830,(-27 21 34 26 17 -10 14 9)
1969/12/31/18:00:24.835,(35 97 61 24 10 17 12 42)
1969/12/31/18:00:24.835,(0 5 18 32 85 60 21 -41)
1969/12/31/18:00:24.844,(64 17 -16 14 27 37 57 89)
1969/12/31/18:00:24.844,(-44 36 52 -3 -81 -69 -64 -77)
1969/12/31/18:00:24.845,(11 -112 -89 -40 27 21 7 42)
1969/12/31/18:00:24.845,(-9 127 121 51 -35 -45 -9 -25)
1969/12/31/18:00:24.859,(-46 -39 -30 -32 -35 2 12 -52)
1969/12/31/18:00:24.859,(10 -65 -55 -5 55 35 21 46)
1969/12/31/18:00:24.869,(-43 19 -23 -5 -6 -13 -28 -80)
1969/12/31/18:00:24.869,(-6 -32 -20 -2 1 8 -5 7)
1969/12/31/18:00:24.885,(48 6 -24 -32 -13 15 20 46)
1969/12/31/18:00:24.885,(-70 -46 16 10 45 21 34 -23)
1969/12/31/18:00:24.893,(71 110 97 52 -8 8 12 48)
1969/12/31/18:00:24.893,(6 -42 -45 -18 -17 -60 -39 26)
1969/12/31/18:00:24.912,(6 35 -12 -17 -37 -17 14 23)
1969/12/31/18:00:24.912,(86 57 5 16 29 37 45 59)
1969/12/31/18:00:24.914,(-16 -35 -29 -17 29 -5 -36 -57)
1969/12/31/18:00:24.914,(-41 75 61 29 6 28 30 -9)
1969/12/31/18:00:24.928,(87 -84 -69 -4 -16 -8 10 71)
1969/12/31/18:00:24.928,(-59 6 -15 -32 -18 5 -28 -97)
1969/12/31/18:00:24.938,(-26 -7 8 -1 -67 -85 -36 4)
1969/12/31/18:00:24.938,(48 -36 -98 -60 -49 -9 34 13)
1969/12/31/18:00:24.955,(-68 -31 66 14 5 -14 -15 -15)
1969/12/31/18:00:24.955,(-22 -13 -50 12 60 -4 -24 16)
1969/12/31/18:00:24.957,(-3 47 37 2 -6 19 -57 -62)
1969/12/31/18:00:24.957,(20 0 14 -6 7 6 33 31)
1969/12/31/18:00:24.990,(12 -13 -29 -7 -35 -19 3 -1)
1969/12/31/18:00:24.990,(-34 -109 -51 -13 -6 -6 18 19)
1969/12/31/18:00:24.992,(-7 31 50 18 35 29 18 -20)
1969/12/31/18:00:24.992,(41 27 19 19 15 17 -5 65)
1969/12/31/18:00:25.007,(-8 1 -29 -3 28 -16 -47 -57)
1969/12/31/18:00:25.007,(7 -1 4 13 -17 -17 -24 -16)
1969/12/31/18:00:25.010,(48 28 24 -19 -24 4 12 27)
1969/12/31/18:00:25.010,(-19 -11 -15 -5 -31 -30 14 2)
1969/12/31/18:00:25.042,(-92 -22 4 -10 14 10 -25 -52)
1969/12/31/18:00:25.042,(62 -67 -60 -7 11 24 51 72)
1969/12/31/18:00:25.044,(-48 64 39 -1 -57 -32 -38 -28)
1969/12/31/18:00:25.044,(1 -16 -6 7 40 27 17 -4)
1969/12/31/18:00:25.050,(-18 -1 -1 22 71 -2 -42 -61)
1969/12/31/18:00:25.050,(13 -44 -41 -55 -114 -83 3 15)
1969/12/31/18:00:25.052,(-5 -83 -82 -40 4 21 41 2)
1969/12/31/18:00:25.052,(31 97 71 37 33 30 -2 35)
1969/12/31/18:00:25.066,(11 3 -3 8 27 7 -4 -14)
1969/12/31/18:00:25.066,(7 89 98 63 53 34 14 32)
1969/12/31/18:00:25.076,(1 26 26 10 -10 -24 -12 -1)
1969/12/31/18:00:25.076,(-47 -117 -61 -21 17 23 9 -13)
1969/12/31/18:00:25.093,(43 49 17 33 21 13 -15 0)
1969/12/31/18:00:25.093,(-66 30 30 -18 -69 -49 -16 -80)
1969/12/31/18:00:25.096,(-24 -23 -28 -14 -5 -14 -19 -25)
1969/12/31/18:00:25.096,(14 -6 -6 26 39 13 29 37)
1969/12/31/18:00:25.146,(20 3 8 -25 -6 14 -26 17)
1969/12/31/18:00:25.146,(39 -2 -7 -7 -19 -13 7 35)
1969/12/31/18:00:25.149,(-22 -45 -28 0 -25 -36 -11 -3)
1969/12/31/18:00:25.149,(25 -47 -72 -13 5 16 13 14)
1969/12/31/18:00:25.150,(-80 33 94 10 -64 -53 -63 -89)
1969/12/31/18:00:25.150,(32 41 -5 -6 29 7 16 46)
1969/12/31/18:00:25.154,(22 -25 -13 4 36 45 34 46)
1969/12/31/18:00:25.154,(53 18 -11 15 22 14 0 26)
1969/12/31/18:00:25.162,(1 13 47 22 -2 11 30 41)
1969/12/31/18:00:25.162,(-6 15 2 13 18 19 -5 -16)
1969/12/31/18:00:25.165,(-65 -19 11 13 10 -9 -18 -50)
1969/12/31/18:00:25.165,(-19 -25 10 -12 7 3 -7 -1)
1969/12/31/18:00:25.188,(26 41 -11 -17 -46 -26 16 41)
1969/12/31/18:00:25.188,(-26 -35 3 9 65 58 7 5)
1969/12/31/18:00:25.196,(67 -55 -64 -41 -75 -35 26 83)
1969/12/31/18:00:25.196,(-48 24 32 2 -15 -73 -67 -61)
1969/12/31/18:00:25.204,(-1 13 8 1 36 52 70 25)
1969/12/31/18:00:25.204,(29 -10 -24 -12 -38 -56 -43 15)
1969/12/31/18:00:25.214,(-10 -24 -27 5 74 81 -19 -32)
1969/12/31/18:00:25.214,(16 32 1 -14 -42 -15 14 -6)
1969/12/31/18:00:25.230,(-58 -32 12 18 62 9 11 -42)
1969/12/31/18:00:25.230,(-14 56 33 7 -99 -56 -20 -32)
1969/12/31/18:00:25.238,(8 10 11 -4 12 0 2 7)
1969/12/31/18:00:25.238,(19 11 -42 -20 -1 7 -11 -19)
1969/12/31/18:00:25.258,(-32 17 31 8 12 5 -5 -21)
1969/12/31/18:00:25.258,(29 -16 -36 8 40 36 24 2)
1969/12/31/18:00:25.259,(-42 52 54 15 -6 -17 -11 -7)
1969/12/31/18:00:25.259,(-20 -39 4 -6 -8 5 -14 -26)
1969/12/31/18:00:25.273,(75 4 -27 2 -4 8 50 104)
1969/12/31/18:00:25.273,(-74 -42 -19 -14 -3 -5 -41 -71)
1969/12/31/18:00:25.320,(47 -4 -22 8 -3 -13 53 70)
1969/12/31/18:00:25.320,(12 -4 -15 -23 -19 12 -54 -19)
1969/12/31/18:00:25.321,(28 -35 -37 -25 -18 11 -6 1)
1969/12/31/18:00:25.321,(23 75 72 25 -1 -20 17 42)
1969/12/31/18:00:25.327,(-34 -5 16 16 50 26 12 -5)
1969/12/31/18:00:25.327,(-13 -9 1 16 -7 3 3 -26)
1969/12/31/18:00:25.328,(-21 -87 -73 -44 -72 -40 -65 -52)
1969/12/31/18:00:25.328,(39 55 -4 -13 11 18 16 24)
1969/12/31/18:00:25.329,(27 108 104 63 49 37 69 36)
1969/12/31/18:00:25.329,(-26 29 56 19 27 -3 -40 -18)
1969/12/31/18:00:25.352,(29 -75 -51 -9 -4 -2 26 52)
1969/12/31/18:00:25.352,(-36 -29 -7 -15 7 8 -8 -59)
1969/12/31/18:00:25.353,(47 22 -30 -10 -7 -7 -9 13)
1969/12/31/18:00:25.353,(-30 -62 -30 -1 5 8 31 0)
1969/12/31/18:00:25.369,(15 71 49 8 4 -13 -22 -23)
1969/12/31/18:00:25.369,(17 -58 -50 -13 2 22 21 50)
1969/12/31/18:00:25.371,(-13 -42 -24 -12 -1 -3 -18 -27)
1969/12/31/18:00:25.371,(51 57 36 1 -59 -36 29 67)
1969/12/31/18:00:25.396,(-69 -6 -5 -17 -32 -22 -41 -99)
1969/12/31/18:00:25.396,(-13 -2 12 6 9 -21 -4 -23)
1969/12/31/18:00:25.397,(9 -38 -53 -22 7 20 -34 -13)
1969/12/31/18:00:25.397,(22 -12 -17 -6 29 2 -8 13)
1969/12/31/18:00:25.421,(-13 84 98 51 12 -4 31 23)
1969/12/31/18:00:25.421,(-22 -3 0 -6 7 26 8 10)
1969/12/31/18:00:25.422,(-13 19 15 20 11 -16 -12 -20)
1969/12/31/18:00:25.422,(7 -66 -48 -33 -21 7 34 40)
1969/12/31/18:00:25.466,(75 22 -5 7 3 -2 25 67)
1969/12/31/18:00:25.466,(-51 -23 -7 -14 -10 -9 -20 -26)
1969/12/31/18:00:25.467,(54 -5 -57 -26 -4 9 16 15)
1969/12/31/18:00:25.467,(12 62 74 47 48 29 17 14)
1969/12/31/18:00:25.468,(-5 -6 15 5 -34 -37 -37 -1)
1969/12/31/18:00:25.468,(48 0 8 14 24 42 74 56)
1969/12/31/18:00:25.473,(-42 -51 -36 -54 -87 -85 -85 -41)
1969/12/31/18:00:25.473,(2 10 -20 -5 32 23 8 -35)
1969/12/31/18:00:25.490,(26 -41 -27 -1 21 16 25 31)
1969/12/31/18:00:25.490,(-58 37 44 31 57 20 -34 -40)
1969/12/31/18:00:25.492,(-4 28 46 10 -72 -50 -15 7)
1969/12/31/18:00:25.492,(2 -32 -35 -28 -13 -10 -13 23)
1969/12/31/18:00:25.506,(29 -3 -43 -15 5 15 23 18)
1969/12/31/18:00:25.506,(9 -44 -32 -15 -21 -15 -15 -4)
1969/12/31/18:00:25.514,(-14 66 83 50 54 49 23 17)
1969/12/31/18:00:25.514,(-43 -6 -6 11 16 5 -12 -72)
1969/12/31/18:00:25.533,(-15 -7 -8 -22 -46 -33 -24 -11)
1969/12/31/18:00:25.533,(7 -9 -32 -22 -8 5 31 2)
1969/12/31/18:00:25.535,(-5 -22 -15 -18 -15 -17 -49 -48)
1969/12/31/18:00:25.535,(-4 -9 -1 5 24 18 -22 -36)
1969/12/31/18:00:25.559,(12 22 10 20 24 -4 -5 3)
1969/12/31/18:00:25.559,(-6 -5 -4 -36 -60 -35 -39 -34)
1969/12/31/18:00:25.560,(-7 -7 7 42 68 26 29 10)
1969/12/31/18:00:25.560,(-23 -8 -3 5 -25 -6 6 15)
1969/12/31/18:00:25.575,(-1 16 12 7 26 23 26 7)
1969/12/31/18:00:25.575,(5 -10 4 4 -7 -9 -18 -12)
1969/12/31/18:00:25.583,(9 -15 -14 -13 5 34 18 -9)
1969/12/31/18:00:25.583,(-23 -34 -39 -29 -33 -66 -31 -31)
1969/12/31/18:00:25.629,(-14 36 34 6 -11 10 1 25)
1969/12/31/18:00:25.629,(29 10 3 3 5 4 5 3)
1969/12/31/18:00:25.632,(10 -20 -13 -6 7 10 3 43)
1969/12/31/18:00:25.632,(-42 -19 -5 1 6 17 18 23)
1969/12/31/18:00:25.632,(48 41 8 0 9 6 -1 -41)
1969/12/31/18:00:25.632,(-16 -13 -2 4 16 6 37 35)
1969/12/31/18:00:25.636,(45 4 -1 3 -20 -7 -24 22)
1969/12/31/18:00:25.636,(-45 -4 -12 -24 -45 -22 6 -20)
1969/12/31/18:00:25.643,(-6 -26 -8 -8 -10 -11 -2 2)
1969/12/31/18:00:25.643,(65 30 9 2 16 23 26 45)
1969/12/31/18:00:25.653,(-82 -12 -13 -30 -17 8 -7 -47)
1969/12/31/18:00:25.653,(-42 -22 -4 12 23 -31 -31 -48)
1969/12/31/18:00:25.671,(-30 -8 13 46 21 24 -14 -20)
1969/12/31/18:00:25.671,(26 17 6 9 -4 -25 16 8)
1969/12/31/18:00:25.673,(27 -7 -8 0 -2 -8 12 16)
1969/12/31/18:00:25.673,(36 31 6 -21 -34 -19 1 19)
1969/12/31/18:00:25.697,(-4 -3 5 -1 37 39 7 15)
1969/12/31/18:00:25.697,(-56 -21 -11 4 -6 -21 -38 -59)
1969/12/31/18:00:25.698,(3 3 1 -7 -14 -5 21 9)
1969/12/31/18:00:25.699,(-7 18 13 8 14 11 8 -7)
1969/12/31/18:00:25.713,(4 -10 -10 -15 -11 -8 -16 -31)
1969/12/31/18:00:25.713,(5 -12 -7 -9 -11 -28 -10 -3)
1969/12/31/18:00:25.723,(2 0 -5 -14 -16 -10 24 14)
1969/12/31/18:00:25.723,(88 44 19 33 54 59 37 54)
1969/12/31/18:00:25.740,(-45 -17 4 16 -4 -33 -70 -42)
1969/12/31/18:00:25.741,(-11 -12 -23 -32 -25 -54 1 -11)
1969/12/31/18:00:25.742,(-4 -9 1 21 12 -1 17 13)
1969/12/31/18:00:25.742,(29 6 6 -1 6 48 -25 -14)
1969/12/31/18:00:25.784,(-60 -27 -23 -24 -27 29 63 -54)
1969/12/31/18:00:25.784,(15 9 8 0 -16 -18 -67 -4)
1969/12/31/18:00:25.787,(26 11 9 23 54 12 26 60)
1969/12/31/18:00:25.787,(-14 1 -6 -27 -78 -35 -25 -49)
1969/12/31/18:00:25.787,(52 17 3 -17 -6 -13 16 64)
1969/12/31/18:00:25.787,(-1 0 12 12 11 30 6 6)
1969/12/31/18:00:25.792,(9 -8 -6 2 18 27 12 8)
1969/12/31/18:00:25.792,(-54 -12 -2 9 20 2 -13 16)
1969/12/31/18:00:25.810,(-9 -1 -2 -7 -7 4 -46 -69)
1969/12/31/18:00:25.810,(61 25 9 9 -8 -42 38 48)
1969/12/31/18:00:25.811,(18 35 16 5 -1 -32 -10 11)
1969/12/31/18:00:25.811,(-25 -48 -11 -6 11 72 6 13)
1969/12/31/18:00:25.835,(-39 -12 -3 -4 4 37 -25 -13)
1969/12/31/18:00:25.835,(1 -4 -3 4 -4 -22 30 -15)
1969/12/31/18:00:25.837,(-3 2 3 -10 -6 -4 7 -5)
1969/12/31/18:00:25.837,(63 41 12 36 28 -20 -6 -7)
1969/12/31/18:00:25.851,(49 13 10 -2 0 -5 40 84)
1969/12/31/18:00:25.851,(24 2 -2 3 -7 19 -35 -34)
1969/12/31/18:00:25.861,(-26 -25 -26 -22 -23 -3 -6 -21)
1969/12/31/18:00:25.861,(-58 -7 -5 -17 -11 -22 24 -3)
1969/12/31/18:00:25.878,(2 -16 -11 -3 -2 -24 -4 13)
1969/12/31/18:00:25.878,(-5 21 15 8 16 29 22 23)
1969/12/31/18:00:25.880,(-107 -54 -26 -27 -37 -35 -65 -128)
1969/12/31/18:00:25.880,(4 -9 -11 -9 7 32 -8 3)
1969/12/31/18:00:25.904,(28 18 10 8 5 -25 40 42)
1969/12/31/18:00:25.904,(-36 -6 6 2 6 46 -5 8)
1969/12/31/18:00:25.906,(-1 -2 -11 -5 -3 -15 -28 -20)
1969/12/31/18:00:25.906,(-1 -4 -3 -2 -2 -13 -9 -12)
1969/12/31/18:00:25.929,(28 28 5 -2 -7 -13 6 14)
1969/12/31/18:00:25.929,(-16 -24 -9 -3 -1 10 -18 -3)
1969/12/31/18:00:25.932,(-56 -19 -3 0 1 28 11 -58)
1969/12/31/18:00:25.932,(24 6 4 -2 1 -23 -16 24)
1969/12/31/18:00:25.948,(9 1 -6 -8 -11 -21 1 1)
1969/12/31/18:00:25.948,(-28 -11 -5 1 2 3 -15 -24)
1969/12/31/18:00:25.949,(28 17 14 8 7 15 12 29)
1969/12/31/18:00:25.949,(40 7 0 -6 -6 -20 8 19)
1969/12/31/18:00:25.973,(-33 -14 -4 0 1 4 -5 -23)
1969/12/31/18:00:25.973,(9 8 2 4 5 9 4 15)
1969/12/31/18:00:25.974,(27 10 6 -1 -2 -7 10 23)
1969/12/31/18:00:25.974,(-14 -2 1 -2 -2 0 9 -2)
1969/12/31/18:00:25.989,(-4 -1 1 3 3 -4 -9 -10)
1969/12/31/18:00:25.989,(19 8 -5 -5 -2 -5 -7 -2)
1969/12/31/18:00:25.999,(-13 -7 4 5 3 5 2 14)
1969/12/31/18:00:25.999,(19 7 1 -1 -1 -5 0 -8)
1969/12/31/18:00:26.016,(-11 -3 -2 0 1 0 -3 -5)
1969/12/31/18:00:26.016,(0 2 0 -2 -3 -5 -6 -2)
1969/12/31/18:00:26.018,(0 -4 -3 -2 1 2 5 6)
