time,.data
1969/12/31/18:00:41.683,(-2 0 0 0 -2 -1 -2 -2)
1969/12/31/18:00:41.683,(-2 -1 -1 -1 0 -1 1 -2)
1969/12/31/18:00:41.685,(-1 -1 1 1 0 0 1 -1)
1969/12/31/18:00:41.685,(-1 -1 -1 -1 -1 -1 -1 -1)
1969/12/31/18:00:41.713,(1 -1 -2 1 1 2 1 0)
1969/12/31/18:00:41.713,(0 1 0 0 0 -1 -2 -1)
1969/12/31/18:00:41.715,(-1 0 1 0 -1 -2 -2 -1)
1969/12/31/18:00:41.715,(-1 0 0 0 0 0 -1 0)
1969/12/31/18:00:41.719,(-3 -2 -1 -1 -2 -3 -2 -2)
1969/12/31/18:00:41.719,(-1 -2 -1 -1 0 1 -1 -2)
1969/12/31/18:00:41.728,(1 -1 -1 -1 -1 0 -1 0)
1969/12/31/18:00:41.729,(0 -1 0 -1 -2 -2 -1 0)
1969/12/31/18:00:41.743,(-1 0 1 2 3 1 1 1)
1969/12/31/18:00:41.743,(0 0 -2 -3 -1 -3 -3 -2)
1969/12/31/18:00:41.745,(1 1 -1 -1 -1 -1 -1 0)
1969/12/31/18:00:41.745,(0 -1 -1 0 -1 0 -1 -1)
1969/12/31/18:00:41.773,(0 2 0 -1 -1 -1 -2 0)
1969/12/31/18:00:41.773,(-1 -2 0 1 0 -1 -1 1)
1969/12/31/18:00:41.775,(0 -1 0 -2 1 0 2 1)
1969/12/31/18:00:41.775,(-2 -2 -1 1 0 0 -1 -1)
1969/12/31/18:00:41.780,(-1 -1 -2 -2 -1 0 1 0)
1969/12/31/18:00:41.780,(0 1 -1 -3 -2 0 1 -1)
1969/12/31/18:00:41.796,(-1 0 0 0 -1 0 -2 -2)
1969/12/31/18:00:41.796,(-1 -2 0 0 2 1 1 0)
1969/12/31/18:00:41.804,(-1 -2 1 0 0 -1 -2 -2)
1969/12/31/18:00:41.804,(2 1 -1 1 -2 1 0 2)
1969/12/31/18:00:41.806,(0 -1 -4 -3 0 0 1 1)
1969/12/31/18:00:41.806,(1 1 1 1 1 -1 0 1)
1969/12/31/18:00:41.826,(0 -1 -2 -1 0 -1 -3 -2)
1969/12/31/18:00:41.826,(-1 -2 -2 0 1 -1 -1 -2)
1969/12/31/18:00:41.828,(2 0 -1 0 -1 0 -1 -1)
1969/12/31/18:00:41.828,(1 1 0 -3 -1 0 -1 0)
1969/12/31/18:00:41.856,(-1 -3 -1 -2 0 0 0 -2)
1969/12/31/18:00:41.856,(1 1 -1 0 0 0 1 0)
1969/12/31/18:00:41.857,(-3 -1 0 0 0 -2 -1 -1)
1969/12/31/18:00:41.857,(-2 -1 -2 0 -1 -1 -1 -3)
1969/12/31/18:00:41.863,(0 0 0 1 2 1 2 1)
1969/12/31/18:00:41.863,(-1 -1 1 -2 -1 -1 -2 -1)
1969/12/31/18:00:41.869,(0 -2 -2 1 1 0 -2 1)
1969/12/31/18:00:41.869,(1 2 -2 -1 -2 -2 0 -2)
1969/12/31/18:00:41.886,(-2 1 0 0 -3 -1 0 -1)
1969/12/31/18:00:41.887,(1 0 -3 -2 0 -1 0 0)
1969/12/31/18:00:41.888,(-1 -1 -2 -4 -6 -1 1 0)
1969/12/31/18:00:41.888,(2 3 1 6 4 4 4 3)
1969/12/31/18:00:41.908,(-2 -4 -1 -1 0 -2 -4 -3)
1969/12/31/18:00:41.908,(-3 -3 0 -3 -1 0 -2 -1)
1969/12/31/18:00:41.910,(0 0 3 0 -1 1 0 -1)
1969/12/31/18:00:41.910,(-2 -3 -4 -2 -3 -2 -2 -2)
1969/12/31/18:00:41.923,(2 1 0 -1 -1 0 2 0)
1969/12/31/18:00:41.923,(3 0 -2 1 -1 0 1 2)
1969/12/31/18:00:41.925,(-1 0 1 0 2 1 1 -1)
1969/12/31/18:00:41.925,(3 1 2 0 0 1 -1 0)
1969/12/31/18:00:41.946,(1 2 0 1 0 1 0 1)
1969/12/31/18:00:41.946,(-2 -1 -1 -1 -1 -1 -3 -2)
1969/12/31/18:00:41.947,(-1 -1 -1 0 0 -2 -2 -2)
1969/12/31/18:00:41.947,(-2 -3 -1 -1 -1 -1 0 0)
1969/12/31/18:00:41.968,(-1 -2 -3 0 -1 -3 0 0)
1969/12/31/18:00:41.968,(1 2 2 0 0 0 1 1)
1969/12/31/18:00:41.970,(0 2 -1 -2 -2 -1 0 0)
1969/12/31/18:00:41.970,(2 0 -1 -1 0 -1 0 0)
1969/12/31/18:00:41.982,(-5 -6 -4 -4 -3 0 -5 -4)
1969/12/31/18:00:41.982,(-4 -3 3 7 4 0 -1 -3)
1969/12/31/18:00:41.989,(-2 1 -1 -1 0 0 -3 0)
1969/12/31/18:00:41.989,(2 3 -3 -8 -5 -3 -2 1)
1969/12/31/18:00:42.013,(3 5 -1 -2 -2 -3 -1 2)
1969/12/31/18:00:42.013,(-2 -4 -1 -4 -4 -2 0 -4)
1969/12/31/18:00:42.015,(3 -1 0 5 4 1 2 2)
1969/12/31/18:00:42.015,(-5 -7 -5 1 -1 0 -2 -5)
1969/12/31/18:00:42.028,(2 0 1 -4 0 3 5 3)
1969/12/31/18:00:42.028,(-1 -2 -10 4 -2 1 1 1)
1969/12/31/18:00:42.030,(8 4 0 -4 -3 0 4 7)
1969/12/31/18:00:42.030,(-4 0 8 5 16 3 1 -3)
1969/12/31/18:00:42.051,(-6 -8 -9 -1 -3 -2 0 -3)
1969/12/31/18:00:42.051,(-3 -2 4 -8 0 -7 -7 -5)
1969/12/31/18:00:42.052,(-11 -7 7 0 -10 -6 -6 -8)
1969/12/31/18:00:42.052,(8 4 -21 1 7 5 5 6)
1969/12/31/18:00:42.066,(0 -2 5 -4 -14 -5 -4 -2)
1969/12/31/18:00:42.066,(2 2 2 7 11 3 3 3)
1969/12/31/18:00:42.068,(-3 0 10 11 13 4 1 0)
1969/12/31/18:00:42.068,(-5 0 1 -8 -10 -7 -8 -4)
1969/12/31/18:00:42.089,(-1 1 -7 -3 -2 0 1 0)
1969/12/31/18:00:42.089,(8 1 -11 -8 -8 -2 1 4)
1969/12/31/18:00:42.091,(3 5 9 -16 -7 -3 0 1)
1969/12/31/18:00:42.091,(-1 -5 -12 16 -2 0 1 -2)
1969/12/31/18:00:42.102,(3 -2 16 7 15 7 1 2)
1969/12/31/18:00:42.102,(-6 -2 -1 -4 -5 1 0 -4)
1969/12/31/18:00:42.111,(0 -2 -11 -1 5 1 -2 -3)
1969/12/31/18:00:42.111,(-1 2 9 -7 -9 -2 0 -2)
1969/12/31/18:00:42.141,(4 2 -7 -10 -3 0 1 -1)
1969/12/31/18:00:42.141,(-7 -8 -2 3 -4 -7 -5 -3)
1969/12/31/18:00:42.142,(-3 -2 4 -4 -8 -2 -2 -2)
1969/12/31/18:00:42.142,(2 -1 -15 -14 -1 -3 0 2)
1969/12/31/18:00:42.156,(-1 0 4 7 -2 -3 -4 -1)
1969/12/31/18:00:42.156,(0 2 22 15 22 11 4 1)
1969/12/31/18:00:42.157,(-5 -2 -1 16 14 6 1 -3)
1969/12/31/18:00:42.157,(-3 -3 5 5 -13 -7 -5 -3)
1969/12/31/18:00:42.171,(1 4 5 10 4 0 2 1)
1969/12/31/18:00:42.171,(1 2 -18 -26 -4 -1 0 0)
1969/12/31/18:00:42.173,(3 -9 -12 -14 -18 -6 1 2)
1969/12/31/18:00:42.173,(-4 0 17 1 18 6 0 -2)
1969/12/31/18:00:42.193,(-9 -7 2 6 -2 -5 -5 -7)
1969/12/31/18:00:42.193,(0 2 2 20 7 4 0 -1)
1969/12/31/18:00:42.195,(2 -1 -7 -18 -7 -4 -1 1)
1969/12/31/18:00:42.195,(-16 -19 0 -4 -25 -10 -7 -9)
1969/12/31/18:00:42.209,(21 23 -9 -32 0 1 6 12)
1969/12/31/18:00:42.209,(8 12 6 20 3 1 -1 3)
1969/12/31/18:00:42.211,(-14 -17 -1 9 15 0 -6 -8)
1969/12/31/18:00:42.211,(2 3 8 -9 -7 1 5 3)
1969/12/31/18:00:42.222,(-8 -12 -10 -15 -9 -8 -4 -5)
1969/12/31/18:00:42.222,(5 6 -5 2 -8 5 4 4)
1969/12/31/18:00:42.231,(3 -1 -9 -16 5 3 2 1)
1969/12/31/18:00:42.231,(2 4 -4 -4 -2 -4 -2 1)
1969/12/31/18:00:42.253,(-1 -4 17 39 22 13 7 3)
1969/12/31/18:00:42.253,(-4 -2 12 -15 -15 -9 -3 -2)
1969/12/31/18:00:42.255,(-2 -3 -7 9 -12 2 2 -1)
1969/12/31/18:00:42.255,(4 9 15 0 15 -1 -4 1)
1969/12/31/18:00:42.268,(-11 -10 -8 23 4 -3 -7 -8)
1969/12/31/18:00:42.268,(11 15 -5 -26 -20 -6 -1 7)
1969/12/31/18:00:42.270,(2 5 10 0 -12 -6 -3 0)
1969/12/31/18:00:42.270,(5 3 -19 -23 -4 0 1 4)
1969/12/31/18:00:42.282,(-9 -6 -4 -53 -27 -8 -6 -5)
1969/12/31/18:00:42.282,(3 3 24 43 2 6 4 4)
1969/12/31/18:00:42.291,(-1 11 24 39 42 4 -5 -1)
1969/12/31/18:00:42.291,(4 -1 -19 0 -22 -5 3 2)
1969/12/31/18:00:42.306,(-4 -7 -4 -22 13 4 0 -1)
1969/12/31/18:00:42.306,(-14 -21 4 -34 -13 -7 -5 -8)
1969/12/31/18:00:42.312,(15 23 -12 22 11 8 10 12)
1969/12/31/18:00:42.312,(-8 -12 4 4 -16 -5 -6 -7)
1969/12/31/18:00:42.328,(10 9 -2 36 32 10 6 8)
1969/12/31/18:00:42.328,(-6 -9 -7 -54 -34 -11 -4 -5)
1969/12/31/18:00:42.330,(5 4 8 36 25 8 3 3)
1969/12/31/18:00:42.330,(-17 -18 -20 -7 -2 -10 -10 -11)
1969/12/31/18:00:42.342,(1 -2 -12 -18 -34 -3 1 0)
1969/12/31/18:00:42.342,(-2 -1 13 44 32 10 3 -2)
1969/12/31/18:00:42.351,(-2 -2 7 -18 -5 -5 -5 -3)
1969/12/31/18:00:42.351,(13 14 -10 -11 0 5 5 7)
1969/12/31/18:00:42.366,(3 0 -1 -12 -3 1 3 2)
1969/12/31/18:00:42.366,(-3 -7 -4 22 15 -5 -3 -4)
1969/12/31/18:00:42.368,(-10 -12 -10 -19 -19 -8 -5 -9)
1969/12/31/18:00:42.368,(1 4 9 -11 1 2 3 1)
1969/12/31/18:00:42.388,(0 1 -2 -3 -4 -5 -2 -1)
1969/12/31/18:00:42.388,(0 -1 -8 -30 -5 -4 -2 -2)
1969/12/31/18:00:42.390,(0 -1 -3 18 -16 -2 1 1)
1969/12/31/18:00:42.390,(-4 1 9 32 31 7 -1 -2)
1969/12/31/18:00:42.402,(-4 -1 9 -5 -3 -2 -1 -4)
1969/12/31/18:00:42.402,(-1 2 -4 39 7 2 -1 0)
1969/12/31/18:00:42.411,(-3 -5 -7 -25 -5 -2 -2 -1)
1969/12/31/18:00:42.411,(1 0 4 1 -2 2 3 1)
1969/12/31/18:00:42.426,(-1 1 0 9 -7 0 -2 -2)
1969/12/31/18:00:42.426,(5 4 -4 -16 5 2 2 2)
1969/12/31/18:00:42.428,(-4 -5 -2 8 -5 -4 -4 -4)
1969/12/31/18:00:42.428,(1 -1 -1 -2 3 3 3 2)
1969/12/31/18:00:42.448,(-1 0 -2 -12 -17 -5 0 0)
1969/12/31/18:00:42.448,(2 0 -6 0 4 -3 -2 2)
1969/12/31/18:00:42.450,(2 1 0 -33 -17 -1 -1 1)
1969/12/31/18:00:42.450,(1 6 20 56 58 18 6 2)
1969/12/31/18:00:42.462,(-3 -2 2 14 11 5 -2 -1)
1969/12/31/18:00:42.462,(-4 -4 -9 -2 -2 -1 -2 -1)
1969/12/31/18:00:42.471,(-2 -3 -9 -21 -16 -7 -2 -2)
1969/12/31/18:00:42.471,(-1 -1 5 3 -10 -1 -2 0)
1969/12/31/18:00:42.493,(2 2 0 0 -3 0 1 3)
1969/12/31/18:00:42.493,(2 1 3 12 10 4 3 2)
1969/12/31/18:00:42.495,(-1 -1 -5 1 0 -3 -1 -2)
1969/12/31/18:00:42.495,(1 1 -3 -40 -28 -8 -2 1)
1969/12/31/18:00:42.508,(0 1 8 45 20 3 -1 2)
1969/12/31/18:00:42.508,(-4 -5 -4 -1 -3 -2 -3 -4)
1969/12/31/18:00:42.510,(0 1 -1 -15 -6 0 2 2)
1969/12/31/18:00:42.510,(1 0 1 1 -1 0 1 1)
1969/12/31/18:00:42.522,(3 2 -1 -10 -3 0 1 1)
1969/12/31/18:00:42.522,(-4 -4 -3 -1 -1 -3 -4 -2)
1969/12/31/18:00:42.531,(1 1 3 4 0 0 0 2)
1969/12/31/18:00:42.531,(-2 -2 1 -6 -5 -2 -1 -1)
1969/12/31/18:00:42.553,(1 1 0 20 14 1 -1 -1)
1969/12/31/18:00:42.553,(1 2 -2 -20 -11 0 1 1)
1969/12/31/18:00:42.555,(-2 -4 0 13 3 1 -2 -2)
1969/12/31/18:00:42.555,(-4 -2 -1 2 -1 -3 -1 -3)
1969/12/31/18:00:42.568,(1 1 -3 -20 -11 -4 -1 -1)
1969/12/31/18:00:42.568,(0 0 -1 -1 -2 -1 0 -1)
1969/12/31/18:00:42.570,(-1 -1 1 0 -3 -3 -1 -1)
1969/12/31/18:00:42.570,(2 0 -1 -4 9 2 2 2)
1969/12/31/18:00:42.582,(-3 -4 0 3 2 -5 -2 -2)
1969/12/31/18:00:42.582,(-3 1 1 0 0 2 3 -2)
1969/12/31/18:00:42.591,(-3 -3 -5 -7 -4 -1 1 2)
1969/12/31/18:00:42.591,(-2 2 3 6 -2 1 -1 -5)
1969/12/31/18:00:42.605,(0 1 1 -1 -2 -1 -1 0)
1969/12/31/18:00:42.605,(2 2 -2 -2 1 0 2 3)
1969/12/31/18:00:42.612,(-2 -2 -3 -1 1 -2 -4 -5)
1969/12/31/18:00:42.612,(-7 -7 -2 2 -1 -1 -2 -3)
1969/12/31/18:00:42.636,(6 4 -1 -4 -1 -2 1 1)
1969/12/31/18:00:42.636,(3 -2 -4 -5 -4 1 4 4)
1969/12/31/18:00:42.638,(-2 1 2 2 5 1 -1 -4)
1969/12/31/18:00:42.638,(0 1 0 3 -1 -2 -3 -2)
1969/12/31/18:00:42.651,(-3 -1 -1 -5 -5 -3 -2 -1)
1969/12/31/18:00:42.651,(-10 -7 -2 3 3 0 -3 -4)
1969/12/31/18:00:42.652,(10 7 4 4 6 5 7 4)
1969/12/31/18:00:42.652,(-6 -7 -6 -3 -7 -7 -6 -6)
1969/12/31/18:00:42.665,(1 1 0 -3 -3 -3 0 3)
1969/12/31/18:00:42.665,(0 1 -1 0 -1 -4 -3 0)
1969/12/31/18:00:42.672,(-5 -4 -2 0 2 1 1 1)
1969/12/31/18:00:42.672,(3 3 4 -2 -1 1 2 2)
1969/12/31/18:00:42.688,(-2 -2 1 5 2 -2 -1 -2)
1969/12/31/18:00:42.688,(0 -3 -3 -7 -6 -1 1 1)
1969/12/31/18:00:42.690,(3 3 2 2 0 0 -1 1)
1969/12/31/18:00:42.690,(-3 -1 1 1 -1 -2 0 -3)
1969/12/31/18:00:42.702,(-6 -4 -1 0 0 0 -3 -6)
1969/12/31/18:00:42.702,(3 2 1 -5 -2 -1 -1 0)
1969/12/31/18:00:42.711,(8 1 -5 -15 -9 -5 -1 6)
1969/12/31/18:00:42.711,(-11 -6 4 10 2 0 -5 -11)
1969/12/31/18:00:42.725,(3 5 2 1 3 5 4 3)
1969/12/31/18:00:42.725,(-3 -2 -1 3 -1 -3 -4 -4)
1969/12/31/18:00:42.749,(2 2 2 0 0 0 -2 -1)
1969/12/31/18:00:42.749,(2 4 -3 -3 -2 0 2 5)
1969/12/31/18:00:42.750,(0 -6 -2 -4 -2 -2 0 2)
1969/12/31/18:00:42.750,(5 2 0 0 -2 0 -1 1)
1969/12/31/18:00:42.751,(-3 -2 1 2 3 2 1 -1)
1969/12/31/18:00:42.751,(-2 -2 -2 -1 -3 -1 -4 -4)
1969/12/31/18:00:42.762,(-6 -5 -3 -3 -3 -1 -2 -2)
1969/12/31/18:00:42.762,(1 2 1 4 2 1 1 0)
1969/12/31/18:00:42.771,(-4 -5 -6 -3 -2 -2 -2 -1)
1969/12/31/18:00:42.771,(2 3 0 -7 -4 0 1 6)
1969/12/31/18:00:42.786,(3 -1 -3 -5 -1 -2 -1 1)
1969/12/31/18:00:42.786,(2 6 9 16 8 5 3 0)
1969/12/31/18:00:42.792,(-9 -5 0 2 -2 -5 -6 -7)
1969/12/31/18:00:42.792,(1 -3 -6 -3 -2 2 4 7)
1969/12/31/18:00:42.808,(-1 -3 0 -6 -2 -2 -3 -1)
1969/12/31/18:00:42.808,(5 3 -5 -3 1 0 1 1)
1969/12/31/18:00:42.810,(7 9 4 -1 1 3 2 -1)
1969/12/31/18:00:42.810,(6 0 -5 -2 -1 -1 -1 2)
1969/12/31/18:00:42.831,(-3 4 2 4 3 5 5 1)
1969/12/31/18:00:42.831,(-18 -17 -4 -2 -4 -6 -11 -12)
1969/12/31/18:00:42.832,(-7 -3 -3 -1 1 -1 -1 -3)
1969/12/31/18:00:42.832,(0 0 2 -1 1 1 -1 0)
1969/12/31/18:00:42.845,(3 3 -1 -10 -9 -3 -1 -1)
1969/12/31/18:00:42.845,(1 0 -1 2 4 0 -1 1)
1969/12/31/18:00:42.853,(-2 -1 -1 3 2 1 2 0)
1969/12/31/18:00:42.853,(7 2 -1 1 0 1 2 6)
1969/12/31/18:00:42.868,(-8 -4 1 -15 -2 -1 -5 -8)
1969/12/31/18:00:42.868,(0 2 -1 5 -5 -3 1 -1)
1969/12/31/18:00:42.870,(4 -9 -1 4 -1 -3 -3 1)
1969/12/31/18:00:42.870,(8 6 0 6 5 -1 3 3)
1969/12/31/18:00:42.891,(-6 0 3 5 3 -1 -7 -11)
1969/12/31/18:00:42.891,(-10 -6 -7 -13 -7 -6 -4 0)
1969/12/31/18:00:42.892,(9 10 7 -1 3 7 10 8)
1969/12/31/18:00:42.892,(-10 -16 -9 -5 -7 -9 -10 -9)
1969/12/31/18:00:42.904,(3 4 -1 4 0 2 3 2)
1969/12/31/18:00:42.905,(-2 -2 -1 0 1 -2 -5 -4)
1969/12/31/18:00:42.913,(-10 -5 -4 2 -3 -4 -6 -5)
1969/12/31/18:00:42.913,(9 9 5 -6 1 3 5 5)
1969/12/31/18:00:42.928,(-2 -4 -6 -2 -3 -2 1 2)
1969/12/31/18:00:42.928,(8 3 -1 -12 0 5 6 6)
1969/12/31/18:00:42.930,(-2 0 1 13 6 1 -1 -1)
1969/12/31/18:00:42.930,(-5 -1 3 3 -3 -1 -4 -4)
1969/12/31/18:00:42.951,(-1 -3 -2 8 4 0 -1 1)
1969/12/31/18:00:42.951,(-3 -3 -1 0 -2 1 2 1)
1969/12/31/18:00:42.953,(17 -1 -6 -6 -2 -4 1 6)
1969/12/31/18:00:42.953,(-7 4 7 1 1 1 -6 -11)
1969/12/31/18:00:42.965,(-1 1 2 1 -2 -1 -2 -2)
1969/12/31/18:00:42.965,(2 1 1 -5 -3 -5 -4 -3)
1969/12/31/18:00:42.973,(0 3 1 -3 -2 4 7 5)
1969/12/31/18:00:42.973,(-13 -10 -4 -2 -6 -7 -8 -12)
1969/12/31/18:00:42.988,(3 6 -2 -3 -2 0 3 6)
1969/12/31/18:00:42.988,(1 -4 -3 4 5 3 1 -5)
1969/12/31/18:00:42.990,(13 7 0 -4 1 3 2 7)
1969/12/31/18:00:42.990,(5 -5 -4 -2 -2 -2 1 3)
1969/12/31/18:00:43.011,(-8 -2 -2 -7 -11 -8 -9 -8)
1969/12/31/18:00:43.011,(-1 3 2 5 1 1 2 3)
1969/12/31/18:00:43.012,(-10 -2 2 9 11 3 -3 -5)
1969/12/31/18:00:43.012,(2 5 2 -9 -1 3 3 0)
1969/12/31/18:00:43.025,(-2 -6 -2 1 -14 -4 -1 1)
1969/12/31/18:00:43.025,(-1 -2 -2 -2 8 -2 -1 -1)
1969/12/31/18:00:43.033,(-6 -2 1 15 5 1 -3 -5)
1969/12/31/18:00:43.033,(0 2 6 19 26 9 3 3)
1969/12/31/18:00:43.048,(0 -4 0 5 6 3 -1 -3)
1969/12/31/18:00:43.048,(11 7 0 -13 -11 -2 3 6)
1969/12/31/18:00:43.050,(-13 -7 -6 -13 -11 -9 -8 -12)
1969/12/31/18:00:43.050,(18 10 -7 -16 -9 1 8 14)
1969/12/31/18:00:43.078,(7 2 -2 0 3 2 2 2)
1969/12/31/18:00:43.078,(2 -3 -5 -2 -1 1 -2 1)
1969/12/31/18:00:43.080,(-13 -2 2 -12 -4 -3 -1 -6)
1969/12/31/18:00:43.080,(-5 -3 -3 0 -5 -3 0 -4)
1969/12/31/18:00:43.084,(-3 -4 3 3 -2 2 2 -1)
1969/12/31/18:00:43.084,(2 2 3 7 7 -6 -8 -5)
1969/12/31/18:00:43.094,(1 2 0 -5 -14 -4 -2 1)
1969/12/31/18:00:43.094,(-3 -4 -6 -18 -14 -1 -3 0)
1969/12/31/18:00:43.108,(6 4 6 33 39 12 7 4)
1969/12/31/18:00:43.108,(-13 -5 13 30 17 8 -1 -8)
1969/12/31/18:00:43.110,(12 6 0 -5 7 8 8 11)
1969/12/31/18:00:43.110,(-10 -7 -1 -5 -8 -7 -7 -10)
1969/12/31/18:00:43.139,(2 -1 -7 -23 -15 2 6 11)
1969/12/31/18:00:43.139,(10 7 -5 -7 -8 -4 -1 3)
1969/12/31/18:00:43.141,(1 2 -3 -3 -6 -3 1 -3)
1969/12/31/18:00:43.141,(-9 -4 -2 -1 -8 -11 -10 -7)
1969/12/31/18:00:43.144,(-7 -2 -5 -21 -7 -5 -5 -4)
1969/12/31/18:00:43.144,(3 4 4 12 2 3 6 5)
1969/12/31/18:00:43.161,(-2 0 7 18 7 2 -1 -3)
1969/12/31/18:00:43.161,(4 4 4 8 3 -2 -1 2)
1969/12/31/18:00:43.168,(-19 -11 2 9 5 -3 -6 -14)
1969/12/31/18:00:43.168,(-3 -4 -10 -27 -14 -5 -1 -3)
1969/12/31/18:00:43.170,(3 -2 -7 -32 -29 -9 -7 -3)
1969/12/31/18:00:43.170,(4 -1 -3 22 16 3 7 7)
1969/12/31/18:00:43.191,(13 6 5 22 18 4 1 5)
1969/12/31/18:00:43.191,(-13 5 11 -4 2 9 7 -6)
1969/12/31/18:00:43.192,(-16 -17 -15 -13 -11 -8 -9 -9)
1969/12/31/18:00:43.192,(21 17 3 14 10 11 13 16)
1969/12/31/18:00:43.204,(5 2 0 6 0 -3 -4 1)
1969/12/31/18:00:43.204,(-4 -4 1 6 -1 -3 -1 1)
1969/12/31/18:00:43.213,(-6 1 5 -1 0 -7 -4 -7)
1969/12/31/18:00:43.213,(-4 -6 -5 -20 -8 1 1 0)
1969/12/31/18:00:43.228,(19 9 2 1 2 2 11 10)
1969/12/31/18:00:43.228,(-10 1 -8 -9 -17 -14 -13 -3)
1969/12/31/18:00:43.230,(7 -8 -3 5 18 7 -3 -11)
1969/12/31/18:00:43.230,(-9 -5 -1 -3 -2 0 -1 -6)
1969/12/31/18:00:43.251,(3 -5 -5 -6 -10 -5 -2 4)
1969/12/31/18:00:43.251,(19 31 20 16 17 17 19 11)
1969/12/31/18:00:43.252,(-14 -13 -16 -32 -27 -17 -14 -10)
1969/12/31/18:00:43.252,(3 -3 -12 -20 -20 -6 -2 0)
1969/12/31/18:00:43.265,(-21 -16 -3 -7 -10 -18 -12 -14)
1969/12/31/18:00:43.265,(14 2 6 41 9 18 16 16)
1969/12/31/18:00:43.273,(13 17 18 52 80 30 16 14)
1969/12/31/18:00:43.273,(-13 -5 11 -6 6 14 1 -8)
1969/12/31/18:00:43.288,(-6 -1 -8 -6 -6 0 -3 -4)
1969/12/31/18:00:43.288,(-1 -16 -14 -15 -12 -8 -6 -1)
1969/12/31/18:00:43.290,(4 7 4 3 -16 -8 1 5)
1969/12/31/18:00:43.290,(-12 -10 -9 -17 -17 -14 -10 -8)
1969/12/31/18:00:43.311,(4 3 -1 -17 -13 -4 0 -1)
1969/12/31/18:00:43.311,(-9 -10 -4 -9 -5 -9 -10 -8)
1969/12/31/18:00:43.312,(-16 -13 -5 0 -6 -4 -4 -2)
1969/12/31/18:00:43.312,(26 21 9 8 16 20 28 22)
1969/12/31/18:00:43.324,(9 4 -3 1 -3 2 0 2)
1969/12/31/18:00:43.324,(-12 -13 -2 -2 9 1 -8 -14)
1969/12/31/18:00:43.333,(-5 0 -3 -5 -14 -6 -2 3)
1969/12/31/18:00:43.333,(-3 -3 -4 -10 1 -7 -6 -6)
1969/12/31/18:00:43.348,(10 8 4 15 4 6 6 7)
1969/12/31/18:00:43.348,(-6 -7 -7 -16 -12 -5 -3 -5)
1969/12/31/18:00:43.350,(2 4 11 13 7 6 4 3)
1969/12/31/18:00:43.350,(-2 1 6 25 19 3 -5 -3)
1969/12/31/18:00:43.371,(-4 -2 2 12 8 3 -1 -3)
1969/12/31/18:00:43.371,(-5 -8 -14 -48 -29 -16 -11 -5)
1969/12/31/18:00:43.372,(4 1 -5 -6 -25 -8 -1 0)
1969/12/31/18:00:43.372,(-14 -8 10 44 27 3 -6 -6)
1969/12/31/18:00:43.384,(-6 5 10 7 25 14 5 -2)
1969/12/31/18:00:43.384,(13 6 -1 9 6 6 7 8)
1969/12/31/18:00:43.393,(11 -1 -13 -24 -12 -4 2 8)
1969/12/31/18:00:43.393,(-20 -18 -10 -21 -27 -16 -11 -11)
1969/12/31/18:00:43.408,(-1 16 2 -5 -8 -6 -2 5)
1969/12/31/18:00:43.408,(-7 1 -1 4 11 4 -2 -12)
1969/12/31/18:00:43.416,(13 -1 -1 0 4 9 6 5)
1969/12/31/18:00:43.416,(0 -5 -14 -53 -32 -16 -9 -4)
1969/12/31/18:00:43.432,(-10 -15 -7 26 -22 -16 -8 -6)
1969/12/31/18:00:43.432,(0 1 10 27 39 10 3 2)
1969/12/31/18:00:43.433,(6 12 14 54 53 26 12 7)
1969/12/31/18:00:43.433,(-1 2 13 8 11 12 3 2)
1969/12/31/18:00:43.445,(1 -1 2 5 6 0 -2 -1)
1969/12/31/18:00:43.445,(-2 -1 -1 2 -17 -12 -9 -3)
1969/12/31/18:00:43.468,(-10 -9 -5 -17 -17 -10 -3 -3)
1969/12/31/18:00:43.468,(14 8 -8 -15 -7 0 4 7)
1969/12/31/18:00:43.469,(2 0 -8 -36 -18 -3 0 -2)
1969/12/31/18:00:43.469,(3 1 -6 -11 -11 -8 -3 3)
1969/12/31/18:00:43.475,(-8 -3 1 -5 -6 -7 -8 -9)
1969/12/31/18:00:43.475,(-4 -2 -3 -5 -10 -4 -3 -3)
1969/12/31/18:00:43.491,(1 -3 -5 -21 -22 -1 3 -1)
1969/12/31/18:00:43.491,(5 2 4 40 42 10 4 7)
1969/12/31/18:00:43.492,(-3 1 7 2 -2 4 5 3)
1969/12/31/18:00:43.492,(3 8 0 -22 -3 -5 -7 -8)
1969/12/31/18:00:43.504,(-4 -7 -7 -15 -12 -5 -8 -9)
1969/12/31/18:00:43.504,(12 1 -5 9 -2 9 9 9)
1969/12/31/18:00:43.513,(2 4 6 25 19 2 0 0)
1969/12/31/18:00:43.514,(-3 -3 -3 -6 -7 -8 -2 -2)
1969/12/31/18:00:43.528,(-7 -3 6 13 -2 -1 -4 -6)
1969/12/31/18:00:43.528,(-7 -3 -1 -23 12 2 -1 -4)
1969/12/31/18:00:43.534,(1 2 -4 8 -12 -3 -1 0)
1969/12/31/18:00:43.534,(-3 1 10 38 34 7 3 -1)
1969/12/31/18:00:43.551,(3 -1 -7 -20 -3 5 5 7)
1969/12/31/18:00:43.551,(-11 -11 -5 -2 -24 -5 -1 -4)
1969/12/31/18:00:43.552,(15 9 -6 -28 -13 -1 1 8)
1969/12/31/18:00:43.552,(0 -3 -7 -12 -4 -5 -4 -2)
1969/12/31/18:00:43.565,(-1 0 -2 2 -1 -4 -4 -3)
1969/12/31/18:00:43.565,(-2 0 0 -4 1 -6 -2 0)
1969/12/31/18:00:43.573,(-12 -8 0 -6 -18 -9 -7 -11)
1969/12/31/18:00:43.573,(0 2 3 20 5 3 4 3)
1969/12/31/18:00:43.588,(3 2 5 10 29 12 7 6)
1969/12/31/18:00:43.588,(-5 -4 -11 -71 -25 -6 -4 -4)
1969/12/31/18:00:43.594,(-7 -8 -10 22 -1 -11 -6 -1)
1969/12/31/18:00:43.594,(9 11 10 32 12 5 2 -2)
1969/12/31/18:00:43.611,(-14 -10 12 42 36 12 1 -1)
1969/12/31/18:00:43.611,(30 29 10 -15 -26 6 7 9)
1969/12/31/18:00:43.612,(-14 -14 -15 -35 -9 -11 -14 -14)
1969/12/31/18:00:43.612,(-1 -4 -3 -11 -31 -7 2 4)
1969/12/31/18:00:43.624,(-2 -5 -6 -4 8 -6 -3 -2)
1969/12/31/18:00:43.624,(-5 -2 15 66 6 1 -3 -2)
1969/12/31/18:00:43.633,(1 4 14 26 43 20 7 4)
1969/12/31/18:00:43.633,(9 -1 -10 -20 3 9 11 13)
1969/12/31/18:00:43.648,(12 7 -8 -30 -24 -7 -1 3)
1969/12/31/18:00:43.648,(-9 -8 -13 -28 -37 -16 -10 -5)
1969/12/31/18:00:43.655,(3 2 7 17 17 0 1 0)
1969/12/31/18:00:43.655,(-7 -2 0 -1 15 1 -3 -3)
1969/12/31/18:00:43.671,(2 0 -6 -2 -27 -7 -2 0)
1969/12/31/18:00:43.671,(-2 -1 3 13 28 -1 0 -2)
1969/12/31/18:00:43.672,(-9 0 10 28 32 12 -1 -4)
1969/12/31/18:00:43.673,(-3 -11 -1 5 8 6 5 -1)
1969/12/31/18:00:43.685,(-6 4 1 -10 4 8 7 1)
1969/12/31/18:00:43.685,(8 -1 -13 -36 -27 -13 -10 -1)
1969/12/31/18:00:43.693,(-1 -4 -16 -30 -21 -12 -6 -5)
1969/12/31/18:00:43.693,(-2 0 3 19 6 1 2 3)
1969/12/31/18:00:43.708,(5 6 10 24 11 4 3 4)
1969/12/31/18:00:43.708,(-2 0 1 -14 -4 3 3 5)
1969/12/31/18:00:43.714,(-2 -3 -1 -2 -5 1 1 1)
1969/12/31/18:00:43.714,(2 5 11 33 5 2 1 2)
1969/12/31/18:00:43.731,(-7 -7 -4 -13 -3 -5 -6 -10)
1969/12/31/18:00:43.731,(-4 -3 5 25 40 13 4 -2)
1969/12/31/18:00:43.732,(9 8 1 2 -6 1 4 6)
1969/12/31/18:00:43.732,(0 -2 -9 -22 -23 -11 -6 -1)
1969/12/31/18:00:43.753,(0 -3 -6 -30 -19 -5 -3 -2)
1969/12/31/18:00:43.753,(-2 -4 -2 15 12 1 -2 0)
1969/12/31/18:00:43.755,(3 4 4 6 -6 1 3 2)
1969/12/31/18:00:43.755,(-6 -5 -4 -2 2 -3 -4 -5)
1969/12/31/18:00:43.768,(-7 -4 0 -2 1 1 -1 -3)
1969/12/31/18:00:43.769,(4 6 -5 -5 -9 -2 -3 -6)
1969/12/31/18:00:43.770,(0 0 0 -11 -9 -3 -4 -5)
1969/12/31/18:00:43.770,(12 10 -2 -11 -14 1 7 14)
1969/12/31/18:00:43.791,(-14 -9 -7 -19 -13 -15 -10 -15)
1969/12/31/18:00:43.791,(-13 -7 1 21 -9 -2 -6 -6)
1969/12/31/18:00:43.792,(1 2 5 11 39 25 14 9)
1969/12/31/18:00:43.792,(-8 -11 -4 -5 10 1 -7 -8)
1969/12/31/18:00:43.813,(4 3 0 7 -4 0 3 5)
1969/12/31/18:00:43.813,(0 -2 -4 -35 -20 -9 -5 -3)
1969/12/31/18:00:43.815,(-11 -10 -2 18 -20 -7 -4 -3)
1969/12/31/18:00:43.815,(10 14 10 24 20 8 1 3)
1969/12/31/18:00:43.828,(5 0 4 3 17 4 0 0)
1969/12/31/18:00:43.828,(-7 -2 -2 1 -6 -2 2 2)
1969/12/31/18:00:43.830,(-5 -8 -8 -27 -21 -9 -6 -10)
1969/12/31/18:00:43.830,(6 5 3 12 6 0 -1 -4)
1969/12/31/18:00:43.851,(-1 -6 3 9 5 1 1 2)
1969/12/31/18:00:43.851,(20 25 -12 -44 -13 -1 3 8)
1969/12/31/18:00:43.852,(-10 -9 -6 11 2 -1 -4 -8)
1969/12/31/18:00:43.852,(1 7 3 -3 -9 1 4 4)
1969/12/31/18:00:43.873,(-6 -3 -4 -4 14 0 -5 -4)
1969/12/31/18:00:43.873,(-4 -6 10 25 14 5 4 4)
1969/12/31/18:00:43.875,(10 7 5 6 -3 -2 1 4)
1969/12/31/18:00:43.875,(-13 -11 -3 -10 -10 -7 -7 -6)
1969/12/31/18:00:43.888,(10 6 -5 -8 -6 6 6 9)
1969/12/31/18:00:43.888,(9 6 3 1 18 1 -1 1)
1969/12/31/18:00:43.894,(-3 -6 -4 0 -7 -4 -3 -2)
1969/12/31/18:00:43.894,(1 15 2 -10 -10 -5 -2 0)
1969/12/31/18:00:43.911,(-18 -15 -5 10 3 -5 -10 -15)
1969/12/31/18:00:43.911,(-12 -10 -1 6 0 -1 0 -6)
1969/12/31/18:00:43.912,(4 9 3 -19 -9 -3 2 4)
1969/12/31/18:00:43.912,(-3 -10 -13 -23 -15 -11 -9 -2)
1969/12/31/18:00:43.933,(-4 -1 3 11 5 2 1 4)
1969/12/31/18:00:43.933,(12 14 13 30 21 14 6 4)
1969/12/31/18:00:43.933,(-3 -7 0 -2 3 -1 -3 1)
1969/12/31/18:00:43.933,(-35 -45 -6 -4 -5 -4 -3 -13)
1969/12/31/18:00:43.947,(35 38 -2 -9 -5 3 10 18)
1969/12/31/18:00:43.947,(-7 -19 -10 0 -8 -8 -10 -12)
1969/12/31/18:00:43.955,(0 1 -1 -11 -8 0 1 4)
1969/12/31/18:00:43.955,(4 -1 -10 -16 6 -1 -2 -2)
1969/12/31/18:00:43.970,(-13 -11 -5 -12 -16 -6 -5 -6)
1969/12/31/18:00:43.970,(-4 4 25 58 30 8 5 4)
1969/12/31/18:00:43.971,(10 13 5 -2 7 6 5 3)
1969/12/31/18:00:43.971,(-8 -3 -5 -23 -25 -12 -10 -7)
1969/12/31/18:00:43.993,(-10 -12 1 33 3 1 -1 -1)
1969/12/31/18:00:43.993,(13 11 -5 -2 20 8 5 6)
1969/12/31/18:00:43.993,(16 5 0 -23 -4 2 0 7)
1969/12/31/18:00:43.993,(10 15 2 24 4 6 6 3)
1969/12/31/18:00:44.008,(-18 -16 -7 -21 -11 -6 -7 -9)
1969/12/31/18:00:44.008,(2 6 -3 -4 -15 -10 -8 0)
1969/12/31/18:00:44.008,(-14 -12 -11 -14 -10 -10 -8 -13)
1969/12/31/18:00:44.008,(12 4 2 -6 4 7 8 11)
1969/12/31/18:00:44.030,(10 22 7 4 2 1 0 -1)
1969/12/31/18:00:44.030,(-6 0 6 16 10 4 1 2)
1969/12/31/18:00:44.031,(-8 -10 -5 -8 -8 -1 -2 -3)
1969/12/31/18:00:44.031,(12 10 -1 -7 1 4 3 6)
1969/12/31/18:00:44.053,(-3 -4 6 12 2 1 -1 1)
1969/12/31/18:00:44.053,(-11 -3 5 12 11 2 2 -5)
1969/12/31/18:00:44.053,(-6 -1 -7 -17 -17 -7 -5 -5)
1969/12/31/18:00:44.053,(-1 -1 -2 4 1 0 3 4)
1969/12/31/18:00:44.068,(8 4 -4 -11 0 3 7 7)
1969/12/31/18:00:44.068,(-3 -16 -2 4 -6 -3 0 0)
1969/12/31/18:00:44.068,(27 34 10 23 22 16 21 21)
1969/12/31/18:00:44.068,(-23 -16 1 18 9 -3 -13 -22)
1969/12/31/18:00:44.090,(13 4 2 -12 4 1 6 10)
1969/12/31/18:00:44.090,(-11 -6 -4 -36 -22 -3 0 0)
1969/12/31/18:00:44.091,(-1 -11 -15 -27 -18 -13 -11 -8)
1969/12/31/18:00:44.091,(12 11 2 17 2 -2 0 6)
1969/12/31/18:00:44.113,(-3 3 17 37 23 11 10 3)
1969/12/31/18:00:44.113,(-13 -25 -4 1 -3 -4 -5 -6)
1969/12/31/18:00:44.113,(16 27 10 -1 1 1 5 15)
1969/12/31/18:00:44.113,(-8 -1 -17 -48 -28 -8 -9 -20)
1969/12/31/18:00:44.127,(-2 -7 -9 -4 -14 -10 -9 -7)
1969/12/31/18:00:44.127,(-7 2 5 0 4 -2 -4 -3)
1969/12/31/18:00:44.128,(-14 -14 1 30 12 0 -5 -6)
1969/12/31/18:00:44.128,(11 5 14 39 21 12 11 14)
1969/12/31/18:00:44.150,(13 8 3 13 13 -2 -2 3)
1969/12/31/18:00:44.150,(1 6 3 -16 -7 8 7 -4)
1969/12/31/18:00:44.151,(1 -8 -3 -12 -8 -1 0 5)
1969/12/31/18:00:44.151,(-1 -1 -4 -9 -6 -1 4 3)
1969/12/31/18:00:44.173,(-9 3 -3 -10 -9 -11 -17 -19)
1969/12/31/18:00:44.173,(22 4 -9 -10 -7 -5 -2 10)
1969/12/31/18:00:44.173,(4 4 -2 -6 0 5 9 6)
1969/12/31/18:00:44.173,(-11 -9 2 5 6 3 1 -4)
1969/12/31/18:00:44.188,(4 4 -8 -17 -2 1 1 2)
1969/12/31/18:00:44.188,(-5 -6 -7 -5 -6 -4 0 -3)
1969/12/31/18:00:44.188,(-9 0 8 9 -2 -3 -6 -12)
1969/12/31/18:00:44.188,(13 -2 3 14 16 5 8 18)
1969/12/31/18:00:44.210,(1 3 7 23 13 10 6 -3)
1969/12/31/18:00:44.210,(-4 -2 -8 -55 -7 -1 -1 -4)
1969/12/31/18:00:44.211,(-16 -14 -4 33 -4 -7 -6 -6)
1969/12/31/18:00:44.211,(-1 -4 4 14 15 3 -1 -6)
1969/12/31/18:00:44.233,(-3 5 6 3 5 5 4 7)
1969/12/31/18:00:44.233,(-7 -9 -12 -9 -16 -13 -14 -11)
1969/12/31/18:00:44.233,(-2 -6 -1 -26 -5 5 12 3)
1969/12/31/18:00:44.233,(24 23 -4 -12 -5 0 1 5)
1969/12/31/18:00:44.248,(-1 -5 1 3 0 1 6 12)
1969/12/31/18:00:44.248,(-1 -2 6 12 3 6 5 0)
1969/12/31/18:00:44.248,(-6 -8 -3 -5 1 -4 -12 -11)
1969/12/31/18:00:44.248,(-17 -7 0 5 -5 -5 -9 -13)
1969/12/31/18:00:44.270,(-2 -9 -7 -33 -7 -1 0 -2)
1969/12/31/18:00:44.270,(9 10 -1 12 -9 -2 2 9)
1969/12/31/18:00:44.271,(-4 -8 3 18 21 -2 -5 -3)
1969/12/31/18:00:44.271,(21 33 10 6 10 6 8 17)
1969/12/31/18:00:44.293,(-13 -17 -7 3 -6 -10 -19 -24)
1969/12/31/18:00:44.293,(-7 -5 1 -1 -1 1 3 -1)
1969/12/31/18:00:44.293,(8 10 -7 -13 -10 -3 4 8)
1969/12/31/18:00:44.293,(-19 -27 -8 -10 -10 -8 -13 -16)
1969/12/31/18:00:44.308,(11 15 6 1 5 0 5 12)
1969/12/31/18:00:44.308,(3 2 -5 5 0 0 0 -4)
1969/12/31/18:00:44.308,(2 -1 -7 -6 -6 -11 -13 -3)
1969/12/31/18:00:44.309,(-16 -7 -2 -19 -12 -2 -1 -7)
1969/12/31/18:00:44.330,(-6 -10 -9 -2 -4 0 -3 -4)
1969/12/31/18:00:44.330,(1 0 -2 -14 2 0 1 4)
1969/12/31/18:00:44.331,(-5 -1 5 19 9 3 -1 -3)
1969/12/31/18:00:44.331,(9 -3 6 12 14 3 2 7)
1969/12/31/18:00:44.353,(1 6 -2 -10 -4 -1 -2 1)
1969/12/31/18:00:44.353,(-10 -7 -6 -9 -20 -8 -8 -10)
1969/12/31/18:00:44.353,(0 -6 2 16 13 2 4 1)
1969/12/31/18:00:44.353,(4 19 4 22 14 5 0 0)
1969/12/31/18:00:44.367,(-26 -26 1 5 0 -1 -1 -7)
1969/12/31/18:00:44.367,(19 22 3 -8 8 17 16 12)
1969/12/31/18:00:44.375,(-2 -2 -7 -29 -23 -9 -6 -10)
1969/12/31/18:00:44.375,(-7 -15 -9 -2 -11 -5 -7 -5)
1969/12/31/18:00:44.390,(-6 -7 -1 -3 0 0 1 0)
1969/12/31/18:00:44.390,(-5 -6 -10 -7 -9 -8 -5 -4)
1969/12/31/18:00:44.391,(1 -9 6 7 6 7 5 7)
1969/12/31/18:00:44.391,(5 12 3 -5 -13 -1 -3 -5)
1969/12/31/18:00:44.413,(-1 1 -3 0 -7 -3 -5 -3)
1969/12/31/18:00:44.413,(-4 -3 10 24 24 2 0 0)
1969/12/31/18:00:44.413,(11 8 3 14 17 5 1 2)
1969/12/31/18:00:44.413,(-5 -6 -1 -12 -9 -3 1 3)
1969/12/31/18:00:44.427,(-1 -3 -6 -11 -4 4 5 0)
1969/12/31/18:00:44.427,(15 8 3 2 -7 -2 -1 10)
1969/12/31/18:00:44.435,(7 7 15 26 17 15 17 8)
1969/12/31/18:00:44.435,(0 2 -6 -11 -3 -1 -4 -4)
1969/12/31/18:00:44.450,(2 4 -2 -1 -5 -6 -6 -6)
1969/12/31/18:00:44.450,(-18 -20 -9 -25 -9 -8 -9 -8)
1969/12/31/18:00:44.451,(5 1 -6 -15 -10 -1 4 10)
1969/12/31/18:00:44.451,(9 5 9 24 4 3 7 11)
1969/12/31/18:00:44.473,(0 0 5 5 13 7 0 -5)
1969/12/31/18:00:44.473,(-14 -14 -5 12 -3 -8 -12 -9)
1969/12/31/18:00:44.473,(3 4 3 -18 -8 -1 -1 1)
1969/12/31/18:00:44.473,(16 18 -10 -17 -7 -3 0 1)
1969/12/31/18:00:44.487,(9 2 -5 -18 -10 -6 1 7)
1969/12/31/18:00:44.487,(-6 -8 3 26 9 3 -1 -4)
1969/12/31/18:00:44.495,(-13 -8 3 13 9 -2 -8 -14)
1969/12/31/18:00:44.495,(8 4 1 3 1 -4 -2 4)
1969/12/31/18:00:44.510,(-18 -12 3 1 1 2 -3 -14)
1969/12/31/18:00:44.510,(13 13 2 -9 -1 4 6 4)
1969/12/31/18:00:44.511,(-10 -13 -11 -19 -12 -2 -2 -1)
1969/12/31/18:00:44.511,(21 17 4 5 8 7 9 9)
1969/12/31/18:00:44.533,(11 10 1 10 2 -2 -2 5)
1969/12/31/18:00:44.533,(-9 -5 2 4 -1 -1 -3 -2)
1969/12/31/18:00:44.533,(-23 -10 -7 -9 -11 -9 -11 -13)
1969/12/31/18:00:44.533,(-12 -14 -10 -13 -16 -4 2 -3)
1969/12/31/18:00:44.547,(14 0 2 -2 5 0 2 10)
1969/12/31/18:00:44.547,(17 21 2 13 9 8 10 11)
1969/12/31/18:00:44.555,(2 0 -2 -10 -2 0 0 3)
1969/12/31/18:00:44.555,(-16 -15 1 7 -3 -3 -6 -7)
1969/12/31/18:00:44.570,(7 8 5 23 20 6 8 5)
1969/12/31/18:00:44.570,(-9 -17 -4 -14 -5 -3 -3 -5)
1969/12/31/18:00:44.571,(21 19 -5 -4 -13 -8 -2 7)
1969/12/31/18:00:44.571,(-35 -24 -5 -17 -4 -5 -18 -35)
1969/12/31/18:00:44.593,(-8 -11 -4 9 -2 -4 -2 0)
1969/12/31/18:00:44.593,(-8 -11 0 2 3 -2 -4 -8)
1969/12/31/18:00:44.593,(8 15 -5 -10 -5 1 1 0)
1969/12/31/18:00:44.593,(23 22 6 7 7 7 12 21)
1969/12/31/18:00:44.607,(-2 1 1 -11 -6 0 1 -1)
1969/12/31/18:00:44.607,(-12 -11 -2 2 -3 -6 -4 -5)
1969/12/31/18:00:44.615,(-6 -8 -2 -4 1 1 0 -6)
1969/12/31/18:00:44.615,(-11 -11 1 2 1 -5 -6 -2)
1969/12/31/18:00:44.630,(0 10 12 15 6 5 3 4)
1969/12/31/18:00:44.630,(13 4 -1 -10 0 5 8 11)
1969/12/31/18:00:44.631,(1 10 -5 6 -3 -3 -6 -9)
1969/12/31/18:00:44.631,(-4 -5 -2 -16 -9 -2 0 -1)
1969/12/31/18:00:44.653,(-9 -13 -5 -1 2 -6 -5 -2)
1969/12/31/18:00:44.653,(8 21 7 15 4 -1 -2 3)
1969/12/31/18:00:44.653,(-11 -9 1 1 12 7 4 -3)
1969/12/31/18:00:44.653,(-13 -18 -7 -4 -4 -6 -4 -7)
1969/12/31/18:00:44.667,(19 25 2 -10 -5 -1 3 7)
1969/12/31/18:00:44.667,(-5 -10 4 -3 4 -1 -4 1)
1969/12/31/18:00:44.675,(18 11 4 -4 -4 0 5 11)
1969/12/31/18:00:44.675,(-3 17 10 15 13 5 -3 -13)
1969/12/31/18:00:44.690,(-23 -31 -2 9 2 1 -2 -7)
1969/12/31/18:00:44.690,(14 16 -2 -1 1 4 6 5)
1969/12/31/18:00:44.691,(9 -5 0 -8 -4 -3 0 8)
1969/12/31/18:00:44.691,(2 1 -3 -7 -2 4 7 10)
1969/12/31/18:00:44.713,(0 2 -7 -21 -11 -5 -5 -5)
1969/12/31/18:00:44.713,(-5 -5 4 14 -5 0 -1 -3)
1969/12/31/18:00:44.714,(-13 -1 6 -2 12 0 -2 -9)
1969/12/31/18:00:44.714,(-1 -11 2 19 -2 -5 -1 3)
1969/12/31/18:00:44.743,(-4 -1 3 8 3 4 2 -2)
1969/12/31/18:00:44.743,(7 25 -6 -3 4 -1 5 11)
1969/12/31/18:00:44.744,(-8 -17 1 -3 -7 -4 -11 -17)
1969/12/31/18:00:44.744,(8 -5 0 -8 6 4 4 5)
1969/12/31/18:00:44.750,(2 9 -8 -12 -8 -3 -3 -4)
1969/12/31/18:00:44.750,(-32 -31 -8 -12 -18 -14 -14 -21)
1969/12/31/18:00:44.751,(22 18 1 -2 -5 1 8 16)
1969/12/31/18:00:44.751,(-21 -33 -3 -5 -5 -6 -7 -7)
1969/12/31/18:00:44.773,(38 40 7 18 11 3 5 5)
1969/12/31/18:00:44.773,(8 0 1 5 2 0 -5 -1)
1969/12/31/18:00:44.774,(-6 5 4 16 14 9 6 -1)
1969/12/31/18:00:44.774,(-6 -13 -5 -9 -6 -2 -1 -2)
1969/12/31/18:00:44.796,(2 6 -4 -20 -18 -12 -12 -6)
1969/12/31/18:00:44.796,(2 -1 -3 -7 -2 1 5 3)
1969/12/31/18:00:44.797,(-14 -23 2 9 -5 0 -1 -1)
1969/12/31/18:00:44.797,(-32 5 -3 2 10 4 2 -8)
1969/12/31/18:00:44.810,(43 16 4 -7 -2 3 10 24)
1969/12/31/18:00:44.810,(-2 -4 -2 10 2 -6 -10 -9)
1969/12/31/18:00:44.811,(17 9 6 7 5 9 12 10)
1969/12/31/18:00:44.811,(-22 -38 -16 -13 -3 -3 -2 -6)
1969/12/31/18:00:44.833,(9 22 9 4 6 8 6 13)
1969/12/31/18:00:44.833,(0 -2 -5 -32 -10 3 2 -4)
1969/12/31/18:00:44.833,(6 4 -3 20 -3 -8 -2 6)
1969/12/31/18:00:44.833,(6 12 14 26 12 0 -4 -5)
1969/12/31/18:00:44.856,(-17 -25 -3 -7 8 0 2 -2)
1969/12/31/18:00:44.856,(18 16 1 16 6 3 11 22)
1969/12/31/18:00:44.857,(-34 -20 -11 -18 -8 -12 -19 -29)
1969/12/31/18:00:44.857,(11 9 -1 -8 -2 1 3 4)
1969/12/31/18:00:44.870,(20 6 0 6 3 6 9 13)
1969/12/31/18:00:44.870,(-16 -7 0 -2 -1 -4 -11 -17)
1969/12/31/18:00:44.871,(-28 -47 -11 -9 -10 -11 -12 -11)
1969/12/31/18:00:44.871,(38 49 5 2 3 11 18 24)
1969/12/31/18:00:44.893,(-22 6 -7 -8 -10 -12 -25 -35)
1969/12/31/18:00:44.893,(-3 -1 5 2 2 3 5 1)
1969/12/31/18:00:44.894,(23 16 -1 -4 0 4 8 12)
1969/12/31/18:00:44.894,(-2 -13 -1 -2 -5 -7 -10 -2)
1969/12/31/18:00:44.916,(-9 -17 0 7 4 2 5 2)
1969/12/31/18:00:44.916,(-8 0 -3 1 -1 -2 -3 -7)
1969/12/31/18:00:44.916,(0 -5 -8 -23 -8 -3 0 2)
1969/12/31/18:00:44.916,(5 1 -6 -18 -4 -3 -1 4)
1969/12/31/18:00:44.930,(-23 -17 1 26 7 0 -4 -10)
1969/12/31/18:00:44.930,(-2 -5 7 10 -6 -2 -4 -4)
1969/12/31/18:00:44.931,(18 20 8 23 18 11 11 16)
1969/12/31/18:00:44.931,(-8 -12 -7 -14 -17 -5 -6 -2)
1969/12/31/18:00:44.953,(35 35 -1 -18 9 10 13 20)
1969/12/31/18:00:44.953,(-21 -26 -5 -1 -5 -1 -5 -12)
1969/12/31/18:00:44.953,(-13 0 -2 -3 -8 -7 -11 -12)
1969/12/31/18:00:44.953,(10 13 9 14 5 2 3 2)
1969/12/31/18:00:44.976,(-24 -27 -2 -4 -14 -10 -9 -8)
1969/12/31/18:00:44.976,(29 21 -1 -8 4 6 11 18)
1969/12/31/18:00:44.977,(1 6 1 -10 0 6 5 2)
1969/12/31/18:00:44.977,(-1 -12 1 4 -5 -6 -4 -2)
1969/12/31/18:00:44.990,(-7 5 -3 -4 -13 -11 -10 -10)
1969/12/31/18:00:44.990,(-4 -1 -2 7 16 2 -2 -3)
1969/12/31/18:00:44.991,(-5 -2 -1 2 2 4 3 0)
1969/12/31/18:00:44.991,(20 15 2 -2 0 -2 -1 5)
1969/12/31/18:00:45.021,(-20 -20 -4 -10 -6 -2 1 -8)
1969/12/31/18:00:45.021,(15 22 11 7 4 11 8 6)
1969/12/31/18:00:45.022,(2 11 3 -2 -5 -4 -3 -2)
1969/12/31/18:00:45.022,(0 -4 -8 -12 -5 -1 -1 -1)
1969/12/31/18:00:45.036,(-17 -26 -5 10 6 0 -4 -3)
1969/12/31/18:00:45.036,(-4 1 1 18 7 -4 -1 2)
1969/12/31/18:00:45.037,(34 37 8 4 10 9 6 12)
1969/12/31/18:00:45.037,(-14 -14 -3 -4 -3 -4 -9 -14)
1969/12/31/18:00:45.050,(0 -9 -8 -10 -7 -5 -6 -3)
1969/12/31/18:00:45.050,(-2 1 1 -3 -3 3 10 12)
1969/12/31/18:00:45.051,(-2 -12 -6 -15 -6 -4 -2 -4)
1969/12/31/18:00:45.051,(10 13 8 11 7 8 9 6)
1969/12/31/18:00:45.073,(23 28 5 9 -1 -4 -5 7)
1969/12/31/18:00:45.073,(-28 -47 -9 -8 -2 -4 -7 -16)
1969/12/31/18:00:45.073,(8 18 -5 -12 -7 -5 -2 1)
1969/12/31/18:00:45.073,(-9 -12 -2 1 4 5 6 2)
1969/12/31/18:00:45.103,(-34 -30 -4 9 -1 -5 -3 -11)
1969/12/31/18:00:45.103,(49 58 9 1 1 4 7 21)
1969/12/31/18:00:45.104,(-15 -21 -1 3 -1 -3 -4 -7)
1969/12/31/18:00:45.104,(40 37 -1 -3 3 2 8 18)
1969/12/31/18:00:45.110,(0 -11 0 -6 1 7 9 10)
1969/12/31/18:00:45.110,(-44 -40 -16 -13 -13 -16 -29 -37)
1969/12/31/18:00:45.111,(-20 -10 -2 -1 -6 -5 -3 -11)
1969/12/31/18:00:45.111,(0 16 1 5 3 -1 -3 -1)
1969/12/31/18:00:45.133,(-12 -13 0 1 2 2 -2 -7)
1969/12/31/18:00:45.133,(7 -7 5 -6 -1 6 9 12)
1969/12/31/18:00:45.133,(2 0 -2 3 -2 -3 -2 -3)
1969/12/31/18:00:45.133,(-32 -29 -4 -3 4 -1 -5 -15)
1969/12/31/18:00:45.156,(27 25 8 10 0 -3 -1 4)
1969/12/31/18:00:45.156,(-22 -29 -10 -7 -6 -6 -9 -11)
1969/12/31/18:00:45.157,(29 32 11 11 14 14 17 22)
1969/12/31/18:00:45.157,(-12 -9 -7 -6 -8 -5 -4 -8)
1969/12/31/18:00:45.170,(-3 6 -8 -13 -3 -2 0 1)
1969/12/31/18:00:45.170,(7 14 2 -3 0 7 6 10)
1969/12/31/18:00:45.171,(17 2 -3 1 3 3 5 15)
1969/12/31/18:00:45.171,(-20 -20 4 -1 0 3 -3 -13)
1969/12/31/18:00:45.193,(-8 -3 -4 0 -2 -3 -8 -12)
1969/12/31/18:00:45.193,(-4 2 -1 -5 -7 -5 -3 -8)
1969/12/31/18:00:45.194,(-14 -21 -5 2 0 -1 1 9)
1969/12/31/18:00:45.194,(34 44 7 4 4 3 7 15)
1969/12/31/18:00:45.216,(12 7 12 6 10 12 17 7)
1969/12/31/18:00:45.216,(2 7 -2 -6 -3 -4 -1 -1)
1969/12/31/18:00:45.217,(-20 -17 -3 -2 -2 -6 -11 -17)
1969/12/31/18:00:45.217,(-24 -25 -2 6 -2 -6 -8 -9)
1969/12/31/18:00:45.230,(18 6 1 -5 6 11 15 25)
1969/12/31/18:00:45.230,(14 17 9 7 8 9 10 4)
1969/12/31/18:00:45.231,(-17 0 -4 -4 -7 -11 -14 -14)
1969/12/31/18:00:45.231,(-1 -12 -2 1 -2 0 2 5)
1969/12/31/18:00:45.253,(0 5 -4 -7 -10 -11 -20 -21)
1969/12/31/18:00:45.253,(-12 -11 -7 0 -5 -5 -3 3)
1969/12/31/18:00:45.253,(6 0 8 4 9 11 9 -3)
1969/12/31/18:00:45.253,(-14 -9 2 14 4 0 -2 -5)
1969/12/31/18:00:45.276,(-5 -9 -5 -5 -1 1 5 5)
1969/12/31/18:00:45.276,(2 -7 -3 -3 0 -1 -1 5)
1969/12/31/18:00:45.277,(14 31 4 -1 -3 1 5 4)
1969/12/31/18:00:45.277,(-36 -57 -8 -11 -9 -14 -20 -26)
1969/12/31/18:00:45.290,(35 54 13 11 14 19 25 20)
1969/12/31/18:00:45.290,(5 -3 -3 -1 4 4 1 2)
1969/12/31/18:00:45.298,(-11 -20 -3 -8 -9 -7 -4 3)
1969/12/31/18:00:45.298,(35 44 5 4 7 10 14 16)
1969/12/31/18:00:45.313,(-45 -55 -12 -5 -7 -12 -8 -4)
1969/12/31/18:00:45.313,(22 44 3 -1 -4 -3 -11 -9)
1969/12/31/18:00:45.313,(-22 -17 -2 -7 -3 1 -4 -18)
1969/12/31/18:00:45.313,(17 -6 -3 7 4 1 6 20)
1969/12/31/18:00:45.336,(-39 -20 4 6 -6 -14 -19 -33)
1969/12/31/18:00:45.336,(42 29 2 -4 17 28 36 38)
1969/12/31/18:00:45.337,(-18 -33 -7 3 -3 -2 -3 -1)
1969/12/31/18:00:45.337,(19 27 2 -7 -5 -2 -7 -9)
1969/12/31/18:00:45.350,(-25 -49 -7 -4 -7 -6 -6 3)
1969/12/31/18:00:45.350,(25 61 19 16 8 5 3 -10)
1969/12/31/18:00:45.359,(9 0 -3 -5 -3 -3 -1 3)
1969/12/31/18:00:45.359,(-4 -4 -1 -6 -2 3 8 11)
1969/12/31/18:00:45.372,(29 24 -3 -3 3 5 3 7)
1969/12/31/18:00:45.372,(-13 -22 -6 -4 -6 -6 -6 3)
1969/12/31/18:00:45.381,(8 11 5 3 2 3 1 -3)
1969/12/31/18:00:45.381,(-30 -17 -8 0 -6 -11 -13 -14)
1969/12/31/18:00:45.396,(-8 -14 -2 -4 2 7 4 -5)
1969/12/31/18:00:45.396,(13 -16 -7 -2 -2 -2 2 9)
1969/12/31/18:00:45.398,(25 28 4 6 7 3 1 8)
1969/12/31/18:00:45.398,(-23 -26 -7 -4 -9 -14 -20 -20)
1969/12/31/18:00:45.410,(-12 5 0 3 2 6 9 4)
1969/12/31/18:00:45.410,(-14 -10 -5 -7 -11 -13 -10 -10)
1969/12/31/18:00:45.419,(-19 -24 -4 5 4 1 -3 -14)
1969/12/31/18:00:45.419,(37 39 10 -2 6 13 18 26)
1969/12/31/18:00:45.432,(8 1 -3 -1 -3 -6 -10 -6)
1969/12/31/18:00:45.432,(-39 -22 1 4 -6 -10 -11 -17)
1969/12/31/18:00:45.441,(-1 -6 -10 -7 -2 -6 -8 -7)
1969/12/31/18:00:45.441,(-24 -14 -5 1 0 -4 -8 -10)
1969/12/31/18:00:45.456,(4 8 1 -1 5 4 1 -2)
1969/12/31/18:00:45.456,(0 -4 -4 -3 -6 -4 7 21)
1969/12/31/18:00:45.458,(12 27 8 4 2 1 -8 -10)
1969/12/31/18:00:45.458,(-1 -7 -10 -2 -4 -9 -9 -7)
1969/12/31/18:00:45.470,(-15 -13 -4 -6 -4 -2 -4 -9)
1969/12/31/18:00:45.470,(3 -1 -4 -4 0 1 0 -1)
1969/12/31/18:00:45.479,(-20 -20 1 2 -2 -6 -3 -2)
1969/12/31/18:00:45.479,(17 17 4 2 4 6 9 4)
1969/12/31/18:00:45.493,(-5 -14 -2 -1 -7 -11 -11 -6)
1969/12/31/18:00:45.493,(-5 6 -4 -4 -2 0 -4 -5)
1969/12/31/18:00:45.500,(-31 -34 -5 0 -1 -2 -3 -5)
1969/12/31/18:00:45.500,(85 67 6 -4 -1 8 23 46)
1969/12/31/18:00:45.516,(-15 -12 0 -4 -1 -6 -19 -29)
1969/12/31/18:00:45.516,(-19 -22 -6 1 -3 -8 -13 -19)
1969/12/31/18:00:45.517,(15 9 4 1 5 7 11 16)
1969/12/31/18:00:45.517,(1 6 1 1 1 2 2 2)
1969/12/31/18:00:45.530,(22 16 3 4 2 5 11 18)
1969/12/31/18:00:45.530,(31 30 13 1 1 2 3 4)
1969/12/31/18:00:45.539,(-19 9 -4 -1 -9 -12 -19 -30)
1969/12/31/18:00:45.539,(-29 -28 -3 -4 -3 -2 -2 -7)
1969/12/31/18:00:45.553,(28 24 4 1 4 6 11 18)
1969/12/31/18:00:45.553,(16 5 6 6 11 9 8 10)
1969/12/31/18:00:45.559,(-2 -23 1 -1 -8 -7 -4 -4)
1969/12/31/18:00:45.559,(17 13 7 5 11 15 18 21)
1969/12/31/18:00:45.576,(-32 -20 -9 -1 -12 -18 -20 -27)
1969/12/31/18:00:45.576,(-10 -13 -7 -11 -8 -8 -3 1)
1969/12/31/18:00:45.578,(-25 -23 -9 -2 -3 -3 0 -1)
1969/12/31/18:00:45.578,(28 21 11 6 9 15 17 18)
1969/12/31/18:00:45.598,(-6 -1 0 -2 -11 -15 -21 -17)
1969/12/31/18:00:45.598,(-10 -8 -10 3 1 5 15 19)
1969/12/31/18:00:45.600,(26 15 0 -2 2 2 -8 -16)
1969/12/31/18:00:45.600,(-31 -32 -4 1 0 -1 -7 -15)
1969/12/31/18:00:45.613,(9 10 2 4 1 2 7 8)
1969/12/31/18:00:45.613,(-6 -1 10 0 -1 2 2 0)
1969/12/31/18:00:45.620,(-13 -10 -8 -3 -9 -11 -9 1)
1969/12/31/18:00:45.620,(-4 -2 -4 -7 -2 0 -3 -3)
1969/12/31/18:00:45.636,(22 27 2 0 -3 -3 2 10)
1969/12/31/18:00:45.636,(-8 -16 3 -2 2 -2 -10 -10)
1969/12/31/18:00:45.638,(34 12 -4 3 10 12 18 30)
1969/12/31/18:00:45.638,(-74 -56 -11 -3 -13 -22 -34 -55)
1969/12/31/18:00:45.658,(55 52 5 1 7 10 23 41)
1969/12/31/18:00:45.658,(-38 -28 2 -3 -4 -8 -21 -43)
1969/12/31/18:00:45.660,(48 37 -1 -8 -6 -6 0 17)
1969/12/31/18:00:45.660,(8 19 1 8 12 13 7 -1)
1969/12/31/18:00:45.672,(-37 -43 -7 4 -2 -4 -7 -12)
1969/12/31/18:00:45.672,(8 9 -3 2 -1 -5 -4 -3)
1969/12/31/18:00:45.681,(-9 -3 9 -2 2 8 14 10)
1969/12/31/18:00:45.681,(-29 -27 -11 -1 -8 -14 -13 -18)
1969/12/31/18:00:45.696,(22 17 6 0 9 14 12 13)
1969/12/31/18:00:45.696,(-2 -2 -5 -2 -5 -4 -6 -8)
1969/12/31/18:00:45.698,(32 30 8 -5 4 14 17 29)
1969/12/31/18:00:45.698,(-25 -17 -5 2 -7 -9 -12 -12)
1969/12/31/18:00:45.718,(-37 -51 -5 4 13 19 17 0)
1969/12/31/18:00:45.718,(81 96 8 -1 -7 -1 8 29)
1969/12/31/18:00:45.720,(-7 4 -3 -4 -9 -15 -18 -12)
1969/12/31/18:00:45.720,(-20 -39 -7 -5 -2 -1 2 -2)
1969/12/31/18:00:45.732,(6 19 -3 -4 -2 -6 -12 -21)
1969/12/31/18:00:45.732,(-16 -29 -1 11 5 5 12 16)
1969/12/31/18:00:45.741,(13 10 3 -4 6 14 20 15)
1969/12/31/18:00:45.741,(0 0 1 -4 -2 -6 -11 -6)
1969/12/31/18:00:45.756,(-13 -5 -5 -5 -10 -8 -10 -9)
1969/12/31/18:00:45.756,(-16 -18 0 1 1 -5 -9 -11)
1969/12/31/18:00:45.758,(4 20 3 2 -5 -7 -2 -6)
1969/12/31/18:00:45.758,(29 18 3 -1 7 11 15 20)
1969/12/31/18:00:45.778,(-6 -24 -12 -13 1 4 4 5)
1969/12/31/18:00:45.778,(-16 -1 7 6 3 -2 -19 -28)
1969/12/31/18:00:45.780,(-52 -50 -11 8 -8 -13 -19 -30)
1969/12/31/18:00:45.780,(0 22 2 -7 -10 -9 -2 -2)
1969/12/31/18:00:45.792,(35 14 10 6 21 22 18 27)
1969/12/31/18:00:45.792,(2 -11 -15 -10 -11 -13 -15 -12)
1969/12/31/18:00:45.801,(-27 -15 3 5 5 2 -3 -12)
1969/12/31/18:00:45.801,(-32 -38 -5 2 -10 -14 -15 -20)
1969/12/31/18:00:45.816,(19 -2 15 2 9 14 21 27)
1969/12/31/18:00:45.816,(22 20 2 0 -2 -3 1 5)
1969/12/31/18:00:45.817,(8 -4 0 0 4 7 1 2)
1969/12/31/18:00:45.817,(-51 -45 -13 -3 -4 -6 -10 -20)
1969/12/31/18:00:45.838,(16 12 11 5 -10 -11 -11 -10)
1969/12/31/18:00:45.838,(5 -4 -3 -3 5 8 12 8)
1969/12/31/18:00:45.840,(20 9 1 3 2 1 6 14)
1969/12/31/18:00:45.840,(-10 -4 2 3 0 -1 -3 -6)
1969/12/31/18:00:45.852,(11 17 -2 -4 -12 -11 -7 10)
1969/12/31/18:00:45.852,(4 21 7 1 8 12 11 -3)
1969/12/31/18:00:45.861,(-76 -75 -14 -4 -10 -14 -17 -26)
1969/12/31/18:00:45.861,(123 117 19 -4 5 17 32 54)
1969/12/31/18:00:45.876,(-8 17 7 7 3 -2 -5 -9)
1969/12/31/18:00:45.876,(-1 -17 -11 -6 1 3 0 4)
1969/12/31/18:00:45.877,(-6 -15 3 8 10 12 11 2)
1969/12/31/18:00:45.878,(-11 -16 -4 0 -7 -7 -9 -6)
1969/12/31/18:00:45.898,(-24 -20 4 -3 -13 -16 -9 -7)
1969/12/31/18:00:45.898,(8 14 0 -1 2 3 5 12)
1969/12/31/18:00:45.900,(20 26 -8 -1 3 -1 -1 3)
1969/12/31/18:00:45.900,(26 1 9 4 4 5 3 8)
1969/12/31/18:00:45.912,(23 48 3 1 1 3 8 12)
1969/12/31/18:00:45.912,(-56 -39 -3 -5 -12 -16 -21 -36)
1969/12/31/18:00:45.921,(56 40 6 1 8 15 27 51)
1969/12/31/18:00:45.921,(-5 6 -2 4 1 -3 -8 -11)
1969/12/31/18:00:45.936,(-21 -37 -10 -5 -3 0 0 -3)
1969/12/31/18:00:45.936,(-57 -67 -10 1 -9 -15 -18 -25)
1969/12/31/18:00:45.937,(25 58 8 -13 -7 -3 -4 -9)
1969/12/31/18:00:45.937,(-18 -19 -4 0 -4 -5 -8 -12)
1969/12/31/18:00:45.958,(27 14 -6 3 12 15 14 18)
1969/12/31/18:00:45.958,(-20 -26 -5 2 2 6 7 2)
1969/12/31/18:00:45.960,(-19 -28 -6 1 -11 -16 -19 -19)
1969/12/31/18:00:45.960,(25 45 10 -6 5 8 14 20)
1969/12/31/18:00:45.972,(-18 -8 -4 3 1 1 -5 -20)
1969/12/31/18:00:45.972,(-6 -4 -7 1 0 -2 -2 -2)
1969/12/31/18:00:45.981,(-27 -23 -5 -1 -7 -10 -9 -13)
1969/12/31/18:00:45.981,(10 11 9 2 7 7 4 -2)
1969/12/31/18:00:45.996,(-16 -1 -12 -10 -6 -2 2 0)
1969/12/31/18:00:45.996,(45 30 8 1 5 10 15 24)
1969/12/31/18:00:45.998,(-3 -1 0 2 -3 -5 -7 -5)
1969/12/31/18:00:45.998,(-12 -41 -4 2 5 6 5 -2)
1969/12/31/18:00:46.018,(9 -13 -10 -8 -9 -9 -10 -7)
1969/12/31/18:00:46.018,(-9 12 7 3 -1 -4 -11 -19)
1969/12/31/18:00:46.020,(-15 -18 -7 -2 7 7 6 -1)
1969/12/31/18:00:46.020,(28 30 11 11 10 15 23 28)
1969/12/31/18:00:46.032,(-49 -28 -8 -8 -9 -10 -12 -22)
1969/12/31/18:00:46.032,(2 -7 -3 -4 -6 -6 -13 -8)
1969/12/31/18:00:46.041,(-2 -5 4 6 0 0 -5 -6)
1969/12/31/18:00:46.041,(-26 -13 -15 -10 -12 -13 -15 -21)
1969/12/31/18:00:46.056,(40 21 11 7 5 9 8 18)
1969/12/31/18:00:46.056,(-33 -23 -8 6 -5 -12 -12 -16)
1969/12/31/18:00:46.058,(53 46 15 -7 8 15 23 32)
1969/12/31/18:00:46.058,(-28 -22 -7 0 -7 -10 -15 -15)
1969/12/31/18:00:46.078,(20 3 7 6 5 4 9 19)
1969/12/31/18:00:46.078,(6 7 5 -3 -1 -3 0 10)
1969/12/31/18:00:46.080,(-18 -29 3 4 0 2 1 -15)
1969/12/31/18:00:46.080,(40 56 4 0 7 7 6 18)
1969/12/31/18:00:46.092,(-54 -39 -5 2 -4 -5 -9 -29)
1969/12/31/18:00:46.092,(-15 -40 -3 -9 -5 -5 -2 -5)
1969/12/31/18:00:46.101,(60 69 19 11 19 31 40 53)
1969/12/31/18:00:46.101,(7 -15 -4 -1 4 7 9 19)
1969/12/31/18:00:46.116,(7 11 3 3 1 -1 -6 -5)
1969/12/31/18:00:46.116,(-18 -16 -7 5 0 -1 -2 -10)
1969/12/31/18:00:46.117,(-24 -13 -2 -7 -13 -16 -14 -20)
1969/12/31/18:00:46.117,(-3 -44 -2 4 5 5 8 17)
1969/12/31/18:00:46.146,(1 33 -14 -15 -12 -13 -16 -25)
1969/12/31/18:00:46.146,(37 31 9 1 4 7 15 30)
1969/12/31/18:00:46.147,(-12 -16 -10 1 -4 -12 -19 -20)
1969/12/31/18:00:46.147,(-16 -13 -7 -3 -7 -12 -14 -15)
1969/12/31/18:00:46.152,(-19 -36 1 -2 2 3 7 4)
1969/12/31/18:00:46.152,(35 52 4 0 -2 -4 -4 9)
1969/12/31/18:00:46.161,(-20 -19 -11 -8 -8 -10 -11 -13)
1969/12/31/18:00:46.161,(15 11 2 0 4 6 6 2)
1969/12/31/18:00:46.176,(0 -2 4 2 -2 -1 -1 1)
1969/12/31/18:00:46.176,(0 8 0 -6 -3 2 5 2)
1969/12/31/18:00:46.177,(-9 -16 -10 -3 -1 -1 -3 -3)
1969/12/31/18:00:46.177,(40 77 13 4 8 10 12 23)
1969/12/31/18:00:46.199,(-24 -20 -7 -1 0 -2 -17 -27)
1969/12/31/18:00:46.199,(-30 -29 -12 -1 2 3 -5 -18)
1969/12/31/18:00:46.201,(-7 -3 0 -3 -4 -8 -8 -8)
1969/12/31/18:00:46.201,(-8 -7 -1 -5 -8 -8 -5 -2)
1969/12/31/18:00:46.212,(-10 -10 -9 -2 -1 -5 -5 -2)
1969/12/31/18:00:46.212,(44 58 9 -6 2 7 9 23)
1969/12/31/18:00:46.221,(-54 -45 -9 3 -1 -3 -13 -31)
1969/12/31/18:00:46.221,(-9 -17 -9 -8 -9 -7 -8 -13)
1969/12/31/18:00:46.236,(2 10 8 9 0 -3 -1 0)
1969/12/31/18:00:46.236,(-10 -22 -4 -8 -2 -1 7 6)
1969/12/31/18:00:46.237,(65 68 14 1 2 9 18 34)
1969/12/31/18:00:46.237,(-12 -2 2 1 3 3 3 -1)
1969/12/31/18:00:46.258,(-13 -17 -10 -3 -8 -10 -18 -20)
1969/12/31/18:00:46.258,(-3 -8 5 4 6 5 8 3)
1969/12/31/18:00:46.260,(12 31 7 -3 -4 -2 -2 7)
1969/12/31/18:00:46.260,(-26 -22 -6 -3 -7 -7 -10 -15)
1969/12/31/18:00:46.272,(5 8 7 0 -3 -2 5 6)
1969/12/31/18:00:46.272,(8 -4 -2 4 7 7 6 10)
1969/12/31/18:00:46.289,(-27 -29 -9 -7 -11 -9 -10 -10)
1969/12/31/18:00:46.289,(38 20 7 4 13 17 15 21)
1969/12/31/18:00:46.296,(0 -1 0 4 3 2 3 3)
1969/12/31/18:00:46.296,(-1 -1 1 -1 -3 -2 -2 0)
1969/12/31/18:00:46.298,(-22 -25 -9 -2 -4 -7 -12 -18)
1969/12/31/18:00:46.298,(-29 -29 -8 -5 -11 -16 -15 -25)
1969/12/31/18:00:46.320,(35 24 5 -7 6 13 20 26)
1969/12/31/18:00:46.320,(-22 -21 -3 6 -3 -9 -10 -9)
1969/12/31/18:00:46.322,(5 23 -7 -7 -3 -11 -14 -7)
1969/12/31/18:00:46.322,(-44 -51 -13 -2 2 0 -12 -29)
1969/12/31/18:00:46.332,(9 3 12 7 4 6 4 9)
1969/12/31/18:00:46.332,(-3 -9 -4 -6 -3 -3 -7 -5)
1969/12/31/18:00:46.341,(-19 -23 -9 0 -4 -5 -6 -12)
1969/12/31/18:00:46.341,(-36 -14 -4 -3 -13 -17 -14 -22)
1969/12/31/18:00:46.356,(50 37 11 7 14 15 18 38)
1969/12/31/18:00:46.356,(-12 -11 -5 0 -4 -1 -3 -9)
1969/12/31/18:00:46.357,(1 -9 2 -7 -16 -2 4 5)
1969/12/31/18:00:46.357,(-3 7 4 4 2 -13 -8 -7)
1969/12/31/18:00:46.378,(-20 -14 -7 5 9 3 -1 -11)
1969/12/31/18:00:46.378,(58 41 13 11 33 33 37 47)
1969/12/31/18:00:46.380,(1 -6 3 9 15 12 6 2)
1969/12/31/18:00:46.380,(11 8 1 -6 -11 0 4 7)
1969/12/31/18:00:46.392,(-37 -37 -9 -5 -16 -20 -23 -21)
1969/12/31/18:00:46.392,(-1 28 -3 -14 -18 -16 -14 -21)
1969/12/31/18:00:46.401,(6 3 -2 -18 -35 -14 -4 -3)
1969/12/31/18:00:46.401,(0 -24 -3 4 28 11 5 7)
1969/12/31/18:00:46.415,(-6 19 4 16 22 7 -3 -7)
1969/12/31/18:00:46.415,(18 -5 18 25 35 34 26 26)
1969/12/31/18:00:46.422,(4 0 7 10 12 9 17 23)
1969/12/31/18:00:46.422,(-28 -15 -6 -10 -24 -22 -26 -34)
1969/12/31/18:00:46.438,(6 8 -6 -17 -18 -14 -3 1)
1969/12/31/18:00:46.438,(3 2 -3 -8 -8 -4 4 4)
1969/12/31/18:00:46.440,(-6 -12 -5 3 2 -5 -5 -3)
1969/12/31/18:00:46.440,(14 12 4 0 -1 3 6 15)
1969/12/31/18:00:46.452,(5 -2 -10 -31 -18 0 7 8)
1969/12/31/18:00:46.452,(-16 -18 -11 8 -14 -10 -10 -11)
1969/12/31/18:00:46.461,(19 13 15 10 22 14 12 10)
1969/12/31/18:00:46.461,(0 6 0 3 -15 -1 -1 -1)
1969/12/31/18:00:46.476,(1 -2 -4 -11 -7 -16 -11 -5)
1969/12/31/18:00:46.476,(-34 -33 -4 2 -10 -1 -6 -12)
1969/12/31/18:00:46.482,(25 24 14 26 30 24 20 21)
1969/12/31/18:00:46.482,(13 23 5 15 35 20 14 12)
1969/12/31/18:00:46.498,(29 19 7 -7 -7 6 9 9)
1969/12/31/18:00:46.498,(-18 -11 -3 -12 -14 -6 0 -13)
1969/12/31/18:00:46.500,(-36 -43 -13 -7 -11 -16 -19 -16)
1969/12/31/18:00:46.500,(34 37 6 -10 -15 -8 1 9)
1969/12/31/18:00:46.512,(-14 -12 -3 4 -2 -4 -3 -8)
1969/12/31/18:00:46.512,(6 9 -2 -5 -1 -5 -4 2)
1969/12/31/18:00:46.521,(-18 -12 -3 -1 -2 -1 -5 -13)
1969/12/31/18:00:46.521,(31 19 7 -3 6 11 17 24)
1969/12/31/18:00:46.535,(-12 -4 0 7 -4 -4 -9 -11)
1969/12/31/18:00:46.535,(17 17 6 0 4 1 4 7)
1969/12/31/18:00:46.542,(-38 -32 -12 -5 -5 -8 -12 -24)
1969/12/31/18:00:46.542,(27 -3 0 1 0 4 5 18)
1969/12/31/18:00:46.559,(32 19 11 9 12 16 26 33)
1969/12/31/18:00:46.559,(-27 -23 -5 -4 -7 -9 -10 -15)
1969/12/31/18:00:46.561,(-10 0 -3 -7 -2 -3 -4 -12)
1969/12/31/18:00:46.561,(-39 -48 -14 -2 -4 -5 -12 -19)
1969/12/31/18:00:46.581,(-19 -6 3 5 7 5 -1 -15)
1969/12/31/18:00:46.581,(12 6 -1 -6 -4 -7 -8 1)
1969/12/31/18:00:46.582,(-9 -2 -5 -3 -4 -4 -8 -8)
1969/12/31/18:00:46.583,(9 10 7 -2 0 2 9 14)
1969/12/31/18:00:46.603,(-6 -12 -12 -5 -4 -3 -3 -3)
1969/12/31/18:00:46.603,(27 24 7 0 1 3 8 17)
1969/12/31/18:00:46.605,(28 8 -2 3 9 9 8 16)
1969/12/31/18:00:46.605,(-15 -6 -7 -5 -8 -9 -9 -14)
1969/12/31/18:00:46.626,(-12 -14 -7 1 -3 -6 -8 -8)
1969/12/31/18:00:46.626,(-11 -6 -3 -1 0 -2 -3 -8)
1969/12/31/18:00:46.628,(15 35 0 -2 -3 -5 -1 5)
1969/12/31/18:00:46.628,(1 -2 5 2 4 8 18 21)
1969/12/31/18:00:46.648,(3 10 1 1 -1 -3 -8 -7)
1969/12/31/18:00:46.648,(26 28 7 4 7 6 11 19)
1969/12/31/18:00:46.650,(-22 -29 -4 2 1 0 -3 -8)
1969/12/31/18:00:46.650,(6 16 -2 -3 -2 -2 -3 -3)
1969/12/31/18:00:46.655,(4 4 0 3 0 3 2 2)
1969/12/31/18:00:46.655,(-7 -12 1 3 1 1 0 -2)
1969/12/31/18:00:46.663,(-2 -6 -5 -2 -4 -2 -2 -2)
1969/12/31/18:00:46.664,(13 13 2 1 2 3 -2 5)
1969/12/31/18:00:46.678,(-22 -20 -3 -1 -4 -9 -12 -12)
1969/12/31/18:00:46.678,(22 15 3 -2 1 2 2 1)
1969/12/31/18:00:46.680,(-41 -66 -17 -7 -7 -9 -14 -18)
1969/12/31/18:00:46.680,(41 53 18 13 7 4 7 15)
1969/12/31/18:00:46.701,(34 30 -10 -7 -3 -3 4 15)
1969/12/31/18:00:46.701,(-39 -23 -11 -5 -2 -4 -16 -36)
1969/12/31/18:00:46.702,(18 -2 7 2 1 2 9 22)
1969/12/31/18:00:46.702,(-19 -25 -8 -7 -5 -2 -3 -6)
1969/12/31/18:00:46.715,(-6 29 -4 -7 -11 -12 -14 -10)
1969/12/31/18:00:46.715,(-12 -10 -10 0 -6 -4 -3 -1)
1969/12/31/18:00:46.730,(45 39 14 1 4 7 9 22)
1969/12/31/18:00:46.730,(2 -10 -10 -5 5 11 11 8)
1969/12/31/18:00:46.738,(16 1 7 3 7 13 18 17)
1969/12/31/18:00:46.739,(-36 -33 -14 0 -7 -12 -16 -21)
1969/12/31/18:00:46.740,(18 26 9 2 5 5 5 5)
1969/12/31/18:00:46.740,(-30 -22 -6 -3 -10 -16 -19 -23)
1969/12/31/18:00:46.761,(-7 -20 -3 -6 1 3 2 -2)
1969/12/31/18:00:46.761,(-1 -6 -3 2 -2 -1 -7 -7)
1969/12/31/18:00:46.762,(12 18 9 -6 1 10 16 15)
1969/12/31/18:00:46.762,(7 3 2 4 -2 -2 -1 5)
1969/12/31/18:00:46.774,(-29 -26 -3 6 -3 -8 -12 -20)
1969/12/31/18:00:46.774,(13 11 8 -6 1 2 5 10)
1969/12/31/18:00:46.783,(20 18 -3 0 4 6 9 12)
1969/12/31/18:00:46.783,(-19 -16 -4 -3 -5 -8 -12 -17)
1969/12/31/18:00:46.798,(1 2 8 3 -1 2 4 3)
1969/12/31/18:00:46.798,(2 -2 1 -5 -1 0 4 8)
1969/12/31/18:00:46.800,(-9 -6 -6 -1 -3 -7 -10 -13)
1969/12/31/18:00:46.800,(-8 -5 2 3 2 0 1 -4)
1969/12/31/18:00:46.821,(-14 -16 -3 1 -1 -5 -8 -11)
1969/12/31/18:00:46.821,(14 15 2 -4 1 3 3 6)
1969/12/31/18:00:46.822,(-4 -4 -5 -11 -6 -1 -1 -2)
1969/12/31/18:00:46.822,(-10 -6 -9 -22 -17 -8 -8 -11)
1969/12/31/18:00:46.835,(27 17 8 10 18 8 15 21)
1969/12/31/18:00:46.835,(-8 -7 -3 14 -4 -1 -2 -3)
1969/12/31/18:00:46.844,(-7 -4 0 11 22 1 -2 -6)
1969/12/31/18:00:46.844,(-2 -3 -3 -43 -29 -3 -2 -1)
1969/12/31/18:00:46.858,(0 -4 -9 -2 -5 -7 -5 -3)
1969/12/31/18:00:46.858,(1 2 17 81 22 6 4 4)
1969/12/31/18:00:46.860,(-11 -3 15 38 32 8 -4 -9)
1969/12/31/18:00:46.860,(-10 -3 4 21 21 8 1 -7)
1969/12/31/18:00:46.881,(13 8 1 -34 -3 6 7 10)
1969/12/31/18:00:46.881,(3 2 -10 -47 -32 -10 -4 -1)
1969/12/31/18:00:46.882,(3 1 -9 -11 -28 -12 -3 1)
1969/12/31/18:00:46.882,(0 -4 -9 -27 -15 -6 -1 -1)
1969/12/31/18:00:46.894,(-6 -6 -1 13 3 0 0 -5)
1969/12/31/18:00:46.894,(4 0 2 13 15 6 6 5)
1969/12/31/18:00:46.904,(-1 2 5 1 -2 -1 -3 -3)
1969/12/31/18:00:46.904,(-1 -2 -3 -1 1 -3 -4 -2)
1969/12/31/18:00:46.918,(-5 -5 6 -9 -15 1 0 -1)
1969/12/31/18:00:46.918,(10 11 5 5 9 8 7 8)
1969/12/31/18:00:46.920,(1 0 -14 -8 -3 -10 -8 -3)
1969/12/31/18:00:46.920,(-7 -9 -4 8 2 -8 -9 -8)
1969/12/31/18:00:46.942,(-4 -4 3 11 -1 1 -2 -1)
1969/12/31/18:00:46.942,(2 1 -4 -26 -8 1 1 1)
1969/12/31/18:00:46.944,(6 5 18 12 10 11 8 6)
1969/12/31/18:00:46.944,(2 0 -17 -21 -16 2 2 0)
1969/12/31/18:00:46.954,(8 2 -8 26 10 -7 -1 3)
1969/12/31/18:00:46.954,(-20 -16 1 -8 -1 -12 -14 -16)
1969/12/31/18:00:46.963,(-6 -6 -5 -8 -3 -1 -3 -7)
1969/12/31/18:00:46.963,(4 6 15 19 7 3 5 2)
1969/12/31/18:00:46.978,(2 8 9 -18 -2 5 4 2)
1969/12/31/18:00:46.978,(9 3 -8 0 -12 6 6 7)
1969/12/31/18:00:46.980,(0 -2 2 7 -1 -2 -4 0)
1969/12/31/18:00:46.980,(-3 -3 -8 -20 2 -4 -3 -1)
1969/12/31/18:00:47.001,(0 3 18 33 -2 -1 -4 -1)
1969/12/31/18:00:47.001,(2 3 -6 38 37 5 1 1)
1969/12/31/18:00:47.002,(-11 -12 -10 -10 -6 0 -3 -7)
1969/12/31/18:00:47.002,(1 2 -1 -2 1 2 3 3)
1969/12/31/18:00:47.015,(-4 -5 -12 -29 -13 -4 -3 -2)
1969/12/31/18:00:47.015,(5 6 6 -27 -18 -1 3 3)
1969/12/31/18:00:47.024,(4 7 11 3 -4 -2 0 2)
1969/12/31/18:00:47.024,(6 0 -9 8 3 3 1 4)
1969/12/31/18:00:47.038,(-5 -5 -1 -17 -7 1 -1 -3)
1969/12/31/18:00:47.038,(-7 -3 -1 16 2 -3 -4 -5)
1969/12/31/18:00:47.040,(0 -2 -16 -27 0 -3 -3 -2)
1969/12/31/18:00:47.040,(-3 -1 14 21 -6 -6 -2 -3)
1969/12/31/18:00:47.061,(0 2 -3 -6 -2 2 3 1)
1969/12/31/18:00:47.062,(4 -1 -9 0 -1 -3 0 0)
1969/12/31/18:00:47.063,(0 2 4 -24 -11 3 2 0)
1969/12/31/18:00:47.063,(2 0 5 34 31 9 2 1)
1969/12/31/18:00:47.083,(-2 1 8 7 6 0 -1 -3)
1969/12/31/18:00:47.083,(-1 -1 -3 -18 -14 -8 -4 -3)
1969/12/31/18:00:47.085,(-3 0 3 -1 -19 0 1 0)
1969/12/31/18:00:47.085,(5 5 -12 20 25 4 4 3)
1969/12/31/18:00:47.098,(-7 -10 -11 -13 -2 -1 -3 -5)
1969/12/31/18:00:47.098,(0 -3 -1 -25 -6 -1 0 2)
1969/12/31/18:00:47.100,(-2 -2 -3 4 -8 -6 -3 -2)
1969/12/31/18:00:47.100,(-3 -1 0 -31 -15 -3 -2 -2)
1969/12/31/18:00:47.121,(4 3 2 15 7 1 1 2)
1969/12/31/18:00:47.121,(1 -2 1 -10 -4 2 2 1)
1969/12/31/18:00:47.122,(-1 -1 9 40 4 0 -1 0)
1969/12/31/18:00:47.122,(-1 0 -2 7 -1 2 -1 -3)
1969/12/31/18:00:47.134,(-6 -8 -6 29 15 -6 -8 -3)
1969/12/31/18:00:47.134,(-9 -6 -3 -41 -14 -5 -6 -6)
1969/12/31/18:00:47.143,(5 2 -9 -32 -9 0 4 4)
1969/12/31/18:00:47.143,(2 8 19 45 22 7 4 1)
1969/12/31/18:00:47.158,(3 1 1 -5 2 -1 0 0)
1969/12/31/18:00:47.158,(0 0 0 10 6 7 3 2)
1969/12/31/18:00:47.160,(-7 -7 -7 1 0 -2 -5 -5)
1969/12/31/18:00:47.160,(1 -1 -4 -19 -17 -11 -5 0)
1969/12/31/18:00:47.181,(1 4 7 -7 -10 -1 2 -1)
1969/12/31/18:00:47.181,(2 2 0 0 5 -2 -1 3)
1969/12/31/18:00:47.183,(5 5 -3 4 -3 1 5 3)
1969/12/31/18:00:47.183,(-4 -2 9 -2 -3 -4 -5 -4)
1969/12/31/18:00:47.195,(-4 -3 -10 -10 6 6 3 1)
1969/12/31/18:00:47.195,(0 -2 -1 21 1 -5 -6 -3)
1969/12/31/18:00:47.203,(-3 0 0 -24 -17 -3 -1 -1)
1969/12/31/18:00:47.203,(1 -1 -3 -4 -3 2 3 1)
1969/12/31/18:00:47.218,(3 0 -4 36 15 7 0 1)
1969/12/31/18:00:47.218,(-8 -6 -1 6 27 5 -5 -7)
1969/12/31/18:00:47.224,(5 0 -4 9 11 4 1 4)
1969/12/31/18:00:47.224,(-3 -1 -8 -40 -27 -6 -2 -2)
1969/12/31/18:00:47.241,(5 3 2 4 -6 5 5 3)
1969/12/31/18:00:47.241,(-6 -2 7 13 11 -4 -3 -4)
1969/12/31/18:00:47.242,(5 2 -8 5 5 -2 3 2)
1969/12/31/18:00:47.242,(1 -1 -2 -1 3 1 3 1)
1969/12/31/18:00:47.255,(-7 -7 -19 -26 -31 -17 -10 -9)
1969/12/31/18:00:47.255,(7 2 12 36 21 10 7 7)
1969/12/31/18:00:47.263,(-15 -8 -9 -47 -13 3 -3 -11)
1969/12/31/18:00:47.263,(13 10 24 51 16 0 5 12)
1969/12/31/18:00:47.278,(-20 -7 14 11 11 -4 -7 -11)
1969/12/31/18:00:47.278,(10 6 -6 -24 -20 -1 7 7)
1969/12/31/18:00:47.285,(0 -1 -1 -9 1 2 1 -2)
1969/12/31/18:00:47.285,(6 -2 -24 -12 -11 5 2 1)
1969/12/31/18:00:47.301,(7 4 4 7 14 7 4 5)
1969/12/31/18:00:47.301,(-8 -3 5 7 -7 -1 1 -3)
1969/12/31/18:00:47.302,(-4 1 2 -11 2 -4 -6 -6)
1969/12/31/18:00:47.302,(0 -3 -4 14 -3 -4 -1 0)
1969/12/31/18:00:47.315,(-1 -5 -1 -20 -7 -2 0 0)
1969/12/31/18:00:47.315,(6 2 -9 -10 -4 -4 -1 1)
1969/12/31/18:00:47.323,(-4 -4 4 0 -9 -3 -3 -4)
1969/12/31/18:00:47.323,(-1 1 4 13 15 5 2 1)
1969/12/31/18:00:47.338,(3 0 -3 -3 0 0 0 1)
1969/12/31/18:00:47.338,(-5 -1 0 -13 -9 -3 -1 -2)
1969/12/31/18:00:47.345,(-2 -4 -4 22 8 -4 -3 -2)
1969/12/31/18:00:47.345,(-5 0 12 -11 -6 -2 1 -3)
1969/12/31/18:00:47.361,(3 -2 -11 -10 -5 -2 0 1)
1969/12/31/18:00:47.361,(1 -2 -4 -11 -3 -1 0 1)
1969/12/31/18:00:47.362,(9 7 4 11 5 1 5 5)
1969/12/31/18:00:47.362,(-4 -4 -6 -18 -3 2 2 -2)
1969/12/31/18:00:47.375,(-5 1 4 23 5 2 1 -4)
1969/12/31/18:00:47.375,(0 0 2 2 -4 -9 -6 0)
1969/12/31/18:00:47.384,(-3 -2 1 14 8 -5 -6 -5)
1969/12/31/18:00:47.384,(-6 -3 -4 -6 1 -3 -7 -4)
1969/12/31/18:00:47.398,(-4 -2 0 -10 -9 -5 -3 -4)
1969/12/31/18:00:47.398,(-2 -3 -12 -13 -18 0 2 -2)
1969/12/31/18:00:47.404,(7 6 8 17 23 12 8 10)
1969/12/31/18:00:47.405,(-3 -8 -14 -11 0 3 -1 0)
1969/12/31/18:00:47.421,(-3 1 13 22 8 2 2 1)
1969/12/31/18:00:47.421,(-5 -1 4 2 6 0 -5 -4)
1969/12/31/18:00:47.422,(-1 -5 -5 -3 -12 -5 1 1)
1969/12/31/18:00:47.422,(1 6 6 1 3 -1 -2 -2)
1969/12/31/18:00:47.435,(0 -2 -9 -15 -2 -2 -2 1)
1969/12/31/18:00:47.435,(-2 0 -1 0 -2 0 -2 -3)
1969/12/31/18:00:47.444,(3 -1 -2 1 -2 -2 -1 1)
1969/12/31/18:00:47.444,(-2 -2 -3 1 -2 0 1 -1)
1969/12/31/18:00:47.458,(4 1 -3 -9 -5 -1 -1 2)
1969/12/31/18:00:47.458,(-1 1 3 1 -1 0 -1 -1)
1969/12/31/18:00:47.465,(-5 -2 4 6 1 1 -1 -2)
1969/12/31/18:00:47.465,(-4 1 -1 0 -6 -5 -2 -1)
1969/12/31/18:00:47.481,(-11 -13 -5 -23 -10 -11 -10 -10)
1969/12/31/18:00:47.481,(18 13 -4 -5 -7 5 9 12)
1969/12/31/18:00:47.482,(4 4 14 38 33 14 11 7)
1969/12/31/18:00:47.482,(-4 -3 5 3 6 0 -4 -3)
1969/12/31/18:00:47.504,(-7 -4 -13 -16 -15 -9 -9 -9)
1969/12/31/18:00:47.504,(-4 -6 4 14 13 4 -2 1)
1969/12/31/18:00:47.506,(3 4 -4 -14 -10 -2 2 5)
1969/12/31/18:00:47.506,(-1 -3 -1 2 3 1 0 0)
1969/12/31/18:00:47.526,(6 8 1 -6 -3 -2 5 4)
1969/12/31/18:00:47.526,(-5 -3 -5 -7 -10 -8 -6 -5)
1969/12/31/18:00:47.528,(0 1 -2 -1 -3 -2 -5 -2)
1969/12/31/18:00:47.528,(-1 -3 2 1 4 2 -2 -2)
1969/12/31/18:00:47.541,(2 2 -1 2 -1 3 -1 2)
1969/12/31/18:00:47.541,(-1 0 1 3 1 -1 0 -1)
1969/12/31/18:00:47.542,(-2 -3 -3 -4 -3 -2 -2 -2)
1969/12/31/18:00:47.542,(-2 -1 -5 -6 -6 -2 -2 -4)
1969/12/31/18:00:47.563,(1 2 5 8 5 2 1 1)
1969/12/31/18:00:47.563,(5 4 -4 -2 0 1 7 7)
1969/12/31/18:00:47.565,(-3 -6 -4 -8 -5 -1 -3 -4)
1969/12/31/18:00:47.565,(5 1 -3 -3 -8 -2 4 6)
1969/12/31/18:00:47.577,(3 3 1 7 6 2 1 2)
1969/12/31/18:00:47.577,(-6 -5 0 -3 0 -3 -5 -6)
1969/12/31/18:00:47.587,(-3 -3 -4 -6 -8 -7 -5 -3)
1969/12/31/18:00:47.587,(1 1 1 2 2 -1 2 1)
1969/12/31/18:00:47.601,(0 1 4 4 2 1 0 0)
1969/12/31/18:00:47.601,(0 -2 -3 -7 -11 -3 -2 -1)
1969/12/31/18:00:47.603,(5 2 -4 -3 11 3 0 4)
1969/12/31/18:00:47.603,(-3 -3 4 4 3 0 -7 -5)
1969/12/31/18:00:47.623,(0 -4 -9 -5 -7 -2 -1 0)
1969/12/31/18:00:47.623,(-5 -3 -7 -29 -15 -6 -5 -7)
1969/12/31/18:00:47.625,(-1 0 5 10 4 6 5 4)
1969/12/31/18:00:47.625,(2 8 15 38 27 6 1 3)
1969/12/31/18:00:47.637,(1 4 4 5 3 2 1 2)
1969/12/31/18:00:47.637,(-5 -4 -1 4 -3 -4 -3 -2)
1969/12/31/18:00:47.646,(-4 -6 -11 -24 -19 -9 -7 -7)
1969/12/31/18:00:47.646,(5 4 -4 -17 -10 0 5 3)
1969/12/31/18:00:47.661,(2 4 4 8 4 7 8 2)
1969/12/31/18:00:47.661,(-3 -3 1 2 5 -5 -9 -5)
1969/12/31/18:00:47.662,(-6 -3 -5 -6 -9 -10 -14 -9)
1969/12/31/18:00:47.662,(-3 -5 -2 -1 -3 3 5 -4)
1969/12/31/18:00:47.683,(4 4 5 3 5 -2 -11 -1)
1969/12/31/18:00:47.683,(-4 -4 -8 -7 -14 -2 7 2)
1969/12/31/18:00:47.685,(-1 1 0 -12 3 0 -1 0)
1969/12/31/18:00:47.685,(4 2 0 9 -5 -4 -7 -2)
1969/12/31/18:00:47.697,(-3 -3 6 13 14 8 1 1)
1969/12/31/18:00:47.697,(1 2 10 18 19 9 3 -1)
1969/12/31/18:00:47.706,(-2 0 4 6 -8 1 5 2)
1969/12/31/18:00:47.706,(-3 -1 -9 -17 -9 -5 -3 -6)
1969/12/31/18:00:47.721,(5 3 -5 -16 -8 -1 6 6)
1969/12/31/18:00:47.721,(-3 -1 -2 7 -3 -2 -8 -4)
1969/12/31/18:00:47.723,(2 1 1 14 20 5 1 -1)
1969/12/31/18:00:47.723,(-2 -3 -1 -9 -6 -2 -2 0)
1969/12/31/18:00:47.743,(0 0 -3 2 1 1 1 -3)
1969/12/31/18:00:47.743,(-8 -4 -3 -4 1 1 4 -3)
1969/12/31/18:00:47.745,(12 6 2 -1 -3 1 -2 6)
1969/12/31/18:00:47.745,(2 -1 0 1 3 -2 -4 5)
1969/12/31/18:00:47.766,(-2 -1 -1 -3 -4 -4 -4 -2)
1969/12/31/18:00:47.766,(4 0 1 -1 2 1 3 0)
1969/12/31/18:00:47.767,(-5 -3 2 4 -1 0 2 -4)
1969/12/31/18:00:47.767,(7 3 4 4 3 1 3 10)
1969/12/31/18:00:47.788,(-4 -3 -6 -8 -7 -4 -2 -3)
1969/12/31/18:00:47.788,(4 1 1 0 4 6 6 6)
1969/12/31/18:00:47.790,(-1 0 0 1 -1 1 -1 -1)
1969/12/31/18:00:47.790,(-3 -4 -3 -5 -2 -2 -3 -4)
1969/12/31/18:00:47.803,(-3 -2 -2 -3 -1 -1 1 0)
1969/12/31/18:00:47.803,(2 2 0 2 3 -1 -4 -1)
1969/12/31/18:00:47.805,(-3 -4 -2 0 -5 -1 -1 -3)
1969/12/31/18:00:47.805,(-2 0 -2 -5 -3 -3 -3 -2)
1969/12/31/18:00:47.826,(0 -2 -1 -1 -2 -1 1 0)
1969/12/31/18:00:47.826,(0 0 0 2 1 -1 -2 -1)
1969/12/31/18:00:47.827,(-1 -2 -1 -3 -4 -2 2 -1)
1969/12/31/18:00:47.827,(-4 -3 0 0 1 0 0 -3)
1969/12/31/18:00:47.841,(3 2 -1 0 1 0 1 3)
1969/12/31/18:00:47.841,(3 -1 -3 -2 -1 0 -1 2)
1969/12/31/18:00:47.842,(-1 1 -2 -1 0 -2 -2 -1)
1969/12/31/18:00:47.842,(0 -2 0 -1 -2 -1 0 -1)
1969/12/31/18:00:47.864,(1 -1 1 0 -1 -1 -1 1)
1969/12/31/18:00:47.864,(-1 -1 0 0 -1 -2 1 0)
1969/12/31/18:00:47.865,(-3 -1 0 0 -1 0 -3 -2)
1969/12/31/18:00:47.865,(-3 -4 -4 -2 -2 -1 -3 -2)
1969/12/31/18:00:47.877,(2 1 -2 -1 -1 0 0 1)
1969/12/31/18:00:47.877,(1 -1 -1 -2 1 -1 0 2)
1969/12/31/18:00:47.886,(0 2 1 1 1 -2 -4 0)
1969/12/31/18:00:47.886,(-1 -1 0 -1 -4 -1 0 -2)
1969/12/31/18:00:47.901,(-5 0 0 -2 -2 -3 -1 -3)
1969/12/31/18:00:47.901,(-3 0 0 2 3 1 -2 -1)
1969/12/31/18:00:47.902,(1 -2 -1 -1 -2 -2 3 1)
1969/12/31/18:00:47.902,(-3 -3 -3 -2 0 0 0 -3)
1969/12/31/18:00:47.923,(-1 0 0 1 0 0 -4 -1)
1969/12/31/18:00:47.923,(-2 0 0 -1 -1 -1 -2 -1)
1969/12/31/18:00:47.925,(-1 -1 -3 -3 -3 0 3 2)
1969/12/31/18:00:47.925,(1 0 -1 -1 0 0 2 3)
1969/12/31/18:00:47.938,(1 -1 0 0 1 0 -1 -1)
1969/12/31/18:00:47.938,(-1 0 0 -2 -2 0 1 0)
1969/12/31/18:00:47.952,(-1 -2 2 1 -1 0 1 1)
1969/12/31/18:00:47.952,(-2 0 0 -2 -1 -1 0 -3)
1969/12/31/18:00:47.961,(-2 -2 -3 -1 0 0 -2 -2)
1969/12/31/18:00:47.961,(1 -1 0 -2 0 -1 0 -1)
1969/12/31/18:00:47.963,(-1 0 -1 0 0 0 -3 -3)
1969/12/31/18:00:47.963,(0 0 1 -1 0 1 1 0)
1969/12/31/18:00:47.983,(1 -2 -1 -1 0 0 1 0)
1969/12/31/18:00:47.983,(2 1 -1 1 0 -1 0 2)
1969/12/31/18:00:47.985,(-1 0 -1 -2 -1 -3 -3 -3)
1969/12/31/18:00:47.985,(-2 -1 0 -1 1 -1 -1 -3)
1969/12/31/18:00:47.997,(-3 -1 -1 1 -1 0 -1 -3)
1969/12/31/18:00:47.997,(3 0 -3 2 1 1 0 1)
1969/12/31/18:00:48.006,(0 -1 -2 -2 -2 0 3 1)
1969/12/31/18:00:48.006,(2 0 0 1 2 1 -1 0)
1969/12/31/18:00:48.021,(2 0 2 0 -1 0 3 3)
1969/12/31/18:00:48.021,(-2 -1 0 0 -1 -1 -3 -2)
1969/12/31/18:00:48.022,(1 0 -2 -2 -4 0 1 2)
1969/12/31/18:00:48.022,(-2 0 -2 -1 -3 -2 0 -2)
1969/12/31/18:00:48.044,(1 0 -1 -2 0 1 2 1)
1969/12/31/18:00:48.044,(-2 -2 -1 2 3 0 -2 -2)
1969/12/31/18:00:48.045,(0 -1 1 1 2 1 -1 0)
1969/12/31/18:00:48.045,(0 -2 -1 1 -1 -2 -2 -1)
1969/12/31/18:00:48.057,(-2 -1 0 2 1 -3 -4 -3)
1969/12/31/18:00:48.057,(1 1 -2 -2 -2 0 5 4)
1969/12/31/18:00:48.073,(-1 1 -1 0 1 -1 -2 -1)
1969/12/31/18:00:48.073,(-2 -1 -1 0 -1 0 -2 -2)
1969/12/31/18:00:48.089,(0 0 -1 0 -2 0 -1 -2)
1969/12/31/18:00:48.089,(0 -1 -1 0 1 1 -2 -1)
1969/12/31/18:00:48.090,(-1 -2 -1 -1 -2 -3 -1 0)
1969/12/31/18:00:48.090,(0 0 0 0 0 0 -1 2)
1969/12/31/18:00:48.103,(1 -2 -2 -1 0 -1 1 2)
1969/12/31/18:00:48.103,(-3 0 0 -3 -1 -2 -2 -3)
1969/12/31/18:00:48.105,(-2 -3 -2 0 -1 0 0 0)
1969/12/31/18:00:48.105,(3 3 1 2 0 2 1 2)
1969/12/31/18:00:48.126,(-1 0 0 -4 -4 -5 2 0)
1969/12/31/18:00:48.126,(0 -1 -1 -1 1 0 -1 1)
1969/12/31/18:00:48.127,(-3 -4 -3 -2 1 0 -2 -2)
1969/12/31/18:00:48.127,(-5 -2 -1 -3 -4 -3 -4 -4)
1969/12/31/18:00:48.141,(0 0 -2 1 1 1 2 2)
1969/12/31/18:00:48.141,(-1 -1 1 0 0 -1 0 -2)
1969/12/31/18:00:48.142,(2 1 0 1 0 0 1 -1)
1969/12/31/18:00:48.142,(0 1 -2 -3 0 0 -1 1)
1969/12/31/18:00:48.163,(0 -1 -2 -2 -2 2 1 0)
1969/12/31/18:00:48.163,(-1 2 0 2 -1 -5 -4 -3)
1969/12/31/18:00:48.165,(-5 -3 0 0 2 -1 -4 -5)
1969/12/31/18:00:48.165,(0 -1 1 -3 -1 -2 4 2)
1969/12/31/18:00:48.186,(-2 -2 0 -1 -1 1 -1 -1)
1969/12/31/18:00:48.186,(-1 0 2 -1 0 2 0 0)
1969/12/31/18:00:48.187,(0 1 -2 -2 -4 -2 -2 -1)
1969/12/31/18:00:48.187,(-2 -2 -2 0 1 0 -1 -1)
1969/12/31/18:00:48.202,(-3 -1 -1 -1 -1 -2 -3 0)
1969/12/31/18:00:48.202,(1 -1 -2 0 -1 1 0 1)
1969/12/31/18:00:48.203,(2 1 0 -1 -2 -2 2 1)
1969/12/31/18:00:48.203,(-1 1 -1 -3 0 0 -1 -1)
1969/12/31/18:00:48.223,(1 0 -1 1 -1 2 6 5)
1969/12/31/18:00:48.223,(0 -2 0 -2 -4 -5 -3 -2)
1969/12/31/18:00:48.231,(-4 -5 1 -3 -2 -5 -4 -3)
1969/12/31/18:00:48.231,(1 -3 -4 -1 -1 1 4 4)
1969/12/31/18:00:48.237,(-2 -2 -1 -1 0 -2 -3 -3)
1969/12/31/18:00:48.237,(-1 1 -2 1 -1 2 0 1)
1969/12/31/18:00:48.246,(1 0 1 0 1 1 3 3)
1969/12/31/18:00:48.246,(-3 -2 0 -2 -3 -2 -5 -4)
1969/12/31/18:00:48.261,(1 0 -2 0 2 1 1 1)
1969/12/31/18:00:48.261,(-1 0 0 -1 0 2 -1 -1)
1969/12/31/18:00:48.263,(-1 0 -2 0 2 1 -2 -2)
1969/12/31/18:00:48.263,(0 -2 0 -1 -1 -1 2 -2)
1969/12/31/18:00:48.291,(-1 -1 0 0 -1 0 0 -2)
1969/12/31/18:00:48.291,(-3 -1 1 -1 -2 -2 -1 -1)
1969/12/31/18:00:48.293,(3 -1 -2 -1 1 1 1 1)
1969/12/31/18:00:48.293,(-1 -3 -2 1 -1 -2 -3 -3)
1969/12/31/18:00:48.297,(-2 -1 1 0 -1 -2 0 -1)
1969/12/31/18:00:48.297,(1 -2 0 0 1 -2 0 -1)
1969/12/31/18:00:48.306,(-2 1 1 0 0 2 1 0)
1969/12/31/18:00:48.306,(1 1 0 1 0 1 3 3)
1969/12/31/18:00:48.321,(-3 -2 0 -1 -2 0 -4 -4)
1969/12/31/18:00:48.321,(-1 0 -2 -1 0 -1 -2 -2)
1969/12/31/18:00:48.323,(0 0 -2 -1 -2 0 1 1)
1969/12/31/18:00:48.323,(1 1 0 1 -2 -1 0 2)
1969/12/31/18:00:48.343,(0 -1 -1 -2 -2 -2 -2 -2)
1969/12/31/18:00:48.343,(-1 -2 -1 -2 -1 0 0 1)
1969/12/31/18:00:48.345,(1 -2 -2 0 -3 0 2 1)
1969/12/31/18:00:48.345,(0 0 0 -1 1 1 -3 -2)
1969/12/31/18:00:48.365,(1 -1 -2 0 -1 -1 -1 3)
1969/12/31/18:00:48.365,(-2 0 1 0 -1 -1 -1 -1)
1969/12/31/18:00:48.366,(1 2 -1 -1 0 -1 -1 0)
1969/12/31/18:00:48.366,(-4 0 0 0 0 -1 -2 -1)
1969/12/31/18:00:48.382,(-2 0 0 0 0 1 0 -1)
1969/12/31/18:00:48.382,(-1 -2 -1 -2 1 0 -2 -3)
1969/12/31/18:00:48.383,(-1 0 -1 -2 -1 -1 2 0)
1969/12/31/18:00:48.383,(1 0 1 0 0 -1 -1 0)
1969/12/31/18:00:48.403,(-1 0 -1 -3 0 -1 -1 -1)
1969/12/31/18:00:48.403,(-1 -2 -1 -1 -1 0 1 1)
1969/12/31/18:00:48.403,(0 0 2 -1 1 0 -1 -3)
1969/12/31/18:00:48.404,(-2 -3 -1 -2 0 0 -2 -3)
1969/12/31/18:00:48.425,(0 0 -1 -2 -1 0 2 1)
1969/12/31/18:00:48.425,(0 0 -1 -1 0 0 -2 0)
1969/12/31/18:00:48.426,(-2 0 -3 0 -1 -1 -2 -1)
1969/12/31/18:00:48.426,(-1 0 0 -1 -3 -1 0 1)
1969/12/31/18:00:48.440,(0 1 1 3 2 0 -3 -1)
1969/12/31/18:00:48.440,(0 -1 -2 -3 -2 0 1 0)
1969/12/31/18:00:48.441,(-2 -2 0 0 0 -1 -2 -1)
1969/12/31/18:00:48.441,(-1 0 -2 -1 0 -1 1 0)
1969/12/31/18:00:48.463,(-2 -1 0 -1 -1 -2 -2 -1)
1969/12/31/18:00:48.463,(-2 0 0 0 -1 -1 1 1)
1969/12/31/18:00:48.464,(1 0 -1 1 0 -1 -1 2)
1969/12/31/18:00:48.464,(1 0 1 1 1 3 -2 -2)
1969/12/31/18:00:48.485,(-1 -2 -3 -2 -2 -2 -1 0)
1969/12/31/18:00:48.485,(1 0 -2 -1 -1 0 1 0)
1969/12/31/18:00:48.486,(0 -2 0 0 -2 0 1 0)
1969/12/31/18:00:48.486,(-2 -1 0 0 -1 -1 0 -1)
1969/12/31/18:00:48.501,(-2 -1 -1 -1 -2 0 0 -1)
1969/12/31/18:00:48.501,(0 -2 -1 -1 -1 -1 -2 -3)
1969/12/31/18:00:48.508,(0 0 -1 -1 0 0 0 0)
1969/12/31/18:00:48.508,(-1 -1 -1 0 2 0 0 2)
