time,.data
1969/12/31/18:00:06.848000,(0 -1 7 3 2 0 1 -1)
1969/12/31/18:00:06.848000,(1 6 7 -1 0 0 0 1)
1969/12/31/18:00:06.849000,(-4 -5 -6 -1 -1 -1 -1 -6)
1969/12/31/18:00:06.849000,(0 1 0 1 -1 1 -2 2)
1969/12/31/18:00:06.870000,(-4 -7 -6 -5 -4 -3 -3 -5)
1969/12/31/18:00:06.870000,(-1 -5 -3 -3 -2 -1 0 0)
1969/12/31/18:00:06.870000,(-2 -2 2 1 1 0 -2 -1)
1969/12/31/18:00:06.871000,(0 1 -3 -5 -2 0 -1 3)
1969/12/31/18:00:06.884000,(-1 1 5 7 5 2 1 0)
1969/12/31/18:00:06.884000,(2 2 1 6 2 -1 0 1)
1969/12/31/18:00:06.885000,(-2 -3 -3 -5 -4 -1 -2 -2)
1969/12/31/18:00:06.885000,(0 1 2 3 1 0 -1 -1)
1969/12/31/18:00:06.915000,(-3 -2 -4 -6 -5 -3 -3 0)
1969/12/31/18:00:06.915000,(0 -1 1 0 -2 -2 -3 -2)
1969/12/31/18:00:06.916000,(0 -3 -2 0 -2 0 1 -1)
1969/12/31/18:00:06.916000,(-1 -1 -2 1 0 -2 -3 -3)
1969/12/31/18:00:06.931000,(0 1 -1 -1 2 0 1 0)
1969/12/31/18:00:06.931000,(-5 -4 -6 -3 -2 -3 -4 -3)
1969/12/31/18:00:06.932000,(-1 -4 -5 -5 -1 -2 -2 0)
1969/12/31/18:00:06.932000,(2 6 7 0 0 0 1 0)
1969/12/31/18:00:06.945000,(-4 -8 -8 -3 -3 -1 -2 -3)
1969/12/31/18:00:06.945000,(-4 0 1 1 2 1 0 -5)
1969/12/31/18:00:06.945000,(-1 1 1 4 2 -1 1 -2)
1969/12/31/18:00:06.945000,(-2 -4 -5 -5 -3 1 -2 -1)
1969/12/31/18:00:06.967000,(2 3 3 2 2 1 -2 -1)
1969/12/31/18:00:06.967000,(1 0 0 2 1 1 0 3)
1969/12/31/18:00:06.968000,(-2 -3 -3 -3 -3 -2 -2 -1)
1969/12/31/18:00:06.968000,(-1 -2 1 2 -1 -2 0 -1)
1969/12/31/18:00:06.990000,(0 0 -5 -6 -4 -1 -1 0)
1969/12/31/18:00:06.990000,(-2 1 -3 -5 -3 -1 -3 0)
1969/12/31/18:00:06.991000,(0 -4 -2 -1 -2 0 -1 0)
1969/12/31/18:00:06.991000,(-2 -5 -2 0 0 -2 -1 0)
1969/12/31/18:00:07.005000,(-1 -1 -1 -2 -4 -1 -1 -3)
1969/12/31/18:00:07.005000,(1 4 4 0 -1 0 0 -1)
1969/12/31/18:00:07.013000,(-1 0 0 -1 0 -1 -2 0)
1969/12/31/18:00:07.013000,(-2 -1 0 -1 0 -2 -1 -2)
1969/12/31/18:00:07.027000,(-1 -1 -1 0 1 -3 0 2)
1969/12/31/18:00:07.027000,(-1 -4 -2 -2 0 0 1 0)
1969/12/31/18:00:07.034000,(-1 1 -1 0 0 1 -1 -1)
1969/12/31/18:00:07.034000,(-1 0 0 0 -3 -1 -2 -3)
1969/12/31/18:00:07.050000,(2 2 6 6 1 -3 0 0)
1969/12/31/18:00:07.050000,(1 -4 -2 -2 1 1 3 2)
1969/12/31/18:00:07.052000,(0 0 1 0 0 -1 -1 -1)
1969/12/31/18:00:07.052000,(-1 -3 -2 -1 -2 -1 -2 -2)
1969/12/31/18:00:07.064000,(-2 -8 -9 -6 -1 2 -1 -1)
1969/12/31/18:00:07.064000,(0 2 -2 -5 -3 -2 -4 -3)
1969/12/31/18:00:07.073000,(4 4 7 7 2 -2 -2 -1)
1969/12/31/18:00:07.073000,(2 4 5 9 3 1 1 2)
1969/12/31/18:00:07.088000,(-1 -3 -2 0 0 -1 0 2)
1969/12/31/18:00:07.088000,(0 -3 0 -5 -4 -2 0 -1)
1969/12/31/18:00:07.090000,(-4 -8 -16 -16 -4 -3 0 2)
1969/12/31/18:00:07.090000,(-1 -5 7 8 -1 1 2 0)
1969/12/31/18:00:07.110000,(6 16 1 -7 -3 -4 -8 -5)
1969/12/31/18:00:07.110000,(-3 -2 6 4 5 4 4 4)
1969/12/31/18:00:07.111000,(0 4 6 -1 -3 -4 -6 -5)
1969/12/31/18:00:07.111000,(-4 -12 -27 -30 -10 -5 -1 1)
1969/12/31/18:00:07.124000,(-7 -11 -7 -9 -2 1 1 -3)
1969/12/31/18:00:07.124000,(9 13 28 26 7 2 4 4)
1969/12/31/18:00:07.132000,(1 16 18 24 10 1 -6 -8)
1969/12/31/18:00:07.132000,(0 2 6 4 2 -2 -4 -5)
1969/12/31/18:00:07.147000,(-2 -9 -5 0 -2 4 7 8)
1969/12/31/18:00:07.147000,(-4 -26 -35 -33 -11 -1 6 11)
1969/12/31/18:00:07.154000,(-8 -5 -11 -10 -6 -6 -7 -12)
1969/12/31/18:00:07.154000,(4 3 9 6 2 1 4 6)
1969/12/31/18:00:07.170000,(1 5 -8 -5 -3 -5 -7 -7)
1969/12/31/18:00:07.170000,(1 1 5 8 2 1 1 1)
1969/12/31/18:00:07.171000,(-7 -11 -3 -10 -2 2 1 -2)
1969/12/31/18:00:07.171000,(-11 -6 -11 6 5 2 0 -4)
1969/12/31/18:00:07.184000,(5 4 12 3 3 1 6 9)
1969/12/31/18:00:07.184000,(1 9 8 12 0 -5 -9 -12)
1969/12/31/18:00:07.193000,(0 -9 -7 -5 -2 4 5 8)
1969/12/31/18:00:07.193000,(3 6 -15 -24 -5 -2 -2 -2)
1969/12/31/18:00:07.207000,(-10 -12 5 8 3 6 -1 -5)
1969/12/31/18:00:07.207000,(-1 9 -6 -2 -2 -6 -10 -9)
1969/12/31/18:00:07.214000,(6 15 55 51 15 9 11 11)
1969/12/31/18:00:07.214000,(3 4 19 5 -4 -5 -5 -1)
1969/12/31/18:00:07.231000,(-2 -8 -22 -11 -7 -6 0 3)
1969/12/31/18:00:07.231000,(-3 9 20 -1 0 -2 -2 -5)
1969/12/31/18:00:07.232000,(-2 -5 -21 -15 -6 -4 -2 -7)
1969/12/31/18:00:07.232000,(-2 -3 -5 -8 -2 0 -2 -5)
1969/12/31/18:00:07.244000,(-4 -13 -13 -38 -10 -7 -7 -4)
1969/12/31/18:00:07.244000,(-5 -2 -22 1 -12 -9 0 -7)
1969/12/31/18:00:07.253000,(12 19 52 86 26 6 0 4)
1969/12/31/18:00:07.253000,(3 -3 3 -6 6 5 3 4)
1969/12/31/18:00:07.267000,(5 8 -4 16 -3 -3 -1 -1)
1969/12/31/18:00:07.267000,(-5 -10 -9 -12 -2 0 -3 -1)
1969/12/31/18:00:07.273000,(-7 -13 -30 -59 -25 -13 -11 -11)
1969/12/31/18:00:07.274000,(-4 -7 -28 10 4 4 6 5)
1969/12/31/18:00:07.290000,(-6 3 26 1 0 2 -7 -12)
1969/12/31/18:00:07.290000,(1 -5 -6 -15 -5 -5 -6 -4)
1969/12/31/18:00:07.291000,(-3 -10 -14 -11 -1 3 7 8)
1969/12/31/18:00:07.291000,(0 4 -9 -14 -7 -7 -6 -4)
1969/12/31/18:00:07.313000,(2 12 -3 -6 -3 -5 -7 -7)
1969/12/31/18:00:07.313000,(0 7 7 10 7 7 6 4)
1969/12/31/18:00:07.314000,(0 -1 -19 -15 -4 -1 0 4)
1969/12/31/18:00:07.314000,(2 3 9 0 1 -1 3 0)
1969/12/31/18:00:07.328000,(0 2 8 17 5 3 5 4)
1969/12/31/18:00:07.328000,(1 -5 0 6 -1 -2 -2 -3)
1969/12/31/18:00:07.334000,(-5 -8 -12 -14 -7 -5 -3 -5)
1969/12/31/18:00:07.334000,(-3 -2 5 2 -3 -3 -4 -4)
1969/12/31/18:00:07.366000,(1 -3 4 11 1 1 3 2)
1969/12/31/18:00:07.366000,(-5 -12 -13 -7 -4 3 -2 -1)
1969/12/31/18:00:07.367000,(-2 5 -2 -10 -9 -5 -4 -4)
1969/12/31/18:00:07.367000,(-4 -3 10 12 2 3 0 -3)
1969/12/31/18:00:07.372000,(-2 -2 -2 4 -1 0 0 3)
1969/12/31/18:00:07.372000,(0 -1 2 -4 -2 -1 1 -1)
1969/12/31/18:00:07.374000,(-3 -3 -2 -1 2 2 -5 -10)
1969/12/31/18:00:07.374000,(-2 -4 -2 -1 -3 -4 -2 1)
1969/12/31/18:00:07.395000,(-22 -8 6 4 1 0 -4 -21)
1969/12/31/18:00:07.395000,(32 23 10 2 3 0 -2 26)
1969/12/31/18:00:07.396000,(-7 -37 -24 -14 -9 -6 -6 -19)
1969/12/31/18:00:07.396000,(13 27 19 9 6 1 -1 14)
1969/12/31/18:00:07.417000,(-5 1 1 3 2 0 -1 2)
1969/12/31/18:00:07.417000,(-23 -19 -9 -4 -1 -3 -5 -18)
1969/12/31/18:00:07.419000,(-5 9 3 0 3 2 6 4)
1969/12/31/18:00:07.419000,(14 -5 -3 -4 -4 -1 -1 3)
1969/12/31/18:00:07.440000,(15 12 -3 -2 -1 2 6 -1)
1969/12/31/18:00:07.440000,(-50 -30 -9 -4 -3 -9 -21 -30)
1969/12/31/18:00:07.441000,(31 2 0 -7 -1 0 3 17)
1969/12/31/18:00:07.441000,(20 17 11 7 4 8 15 32)
1969/12/31/18:00:07.447000,(13 0 -7 -3 -7 -16 -15 -28)
1969/12/31/18:00:07.447000,(-16 1 -1 1 0 8 10 -24)
1969/12/31/18:00:07.453000,(-31 -9 -7 -2 0 2 -14 -26)
1969/12/31/18:00:07.454000,(10 10 6 4 4 5 2 35)
1969/12/31/18:00:07.470000,(0 -16 -8 -4 -5 -14 10 17)
1969/12/31/18:00:07.470000,(19 16 7 2 -1 -3 -8 -12)
1969/12/31/18:00:07.471000,(-18 -1 -6 -3 -2 -5 -10 -20)
1969/12/31/18:00:07.471000,(-19 -13 -5 -6 -3 -9 -10 -27)
1969/12/31/18:00:07.492000,(4 7 4 7 8 24 19 13)
1969/12/31/18:00:07.492000,(11 8 6 3 -1 3 -10 7)
1969/12/31/18:00:07.494000,(9 4 7 5 -5 -2 23 51)
1969/12/31/18:00:07.494000,(43 6 3 2 0 7 15 41)
1969/12/31/18:00:07.506000,(-17 -2 -11 -12 -11 -19 -32 -37)
1969/12/31/18:00:07.506000,(-12 1 8 4 8 8 6 -8)
1969/12/31/18:00:07.515000,(48 26 5 2 2 -9 -3 25)
1969/12/31/18:00:07.515000,(-39 -26 -9 -3 -1 11 -7 -30)
1969/12/31/18:00:07.530000,(-2 -8 -12 -9 -5 3 14 24)
1969/12/31/18:00:07.530000,(20 7 0 -3 -4 -3 11 14)
1969/12/31/18:00:07.531000,(5 8 7 4 7 9 5 32)
1969/12/31/18:00:07.531000,(-75 -12 -7 -8 -12 -25 -35 -103)
1969/12/31/18:00:07.552000,(84 14 6 3 2 9 15 85)
1969/12/31/18:00:07.552000,(-17 -6 -16 -11 -3 3 8 22)
1969/12/31/18:00:07.554000,(-11 -15 4 1 -1 -9 -7 -32)
1969/12/31/18:00:07.554000,(-18 8 0 1 4 15 20 6)
1969/12/31/18:00:07.566000,(57 17 8 6 -3 1 8 32)
1969/12/31/18:00:07.566000,(10 -13 -12 -10 -5 -4 8 12)
1969/12/31/18:00:07.575000,(-29 -11 -2 3 2 3 -5 -29)
1969/12/31/18:00:07.575000,(32 -5 0 0 3 3 0 14)
1969/12/31/18:00:07.590000,(-19 29 5 -1 2 0 2 -3)
1969/12/31/18:00:07.590000,(19 -14 -10 -2 -5 -9 -3 26)
1969/12/31/18:00:07.591000,(8 11 -8 -7 -4 2 0 -18)
1969/12/31/18:00:07.591000,(28 31 17 8 2 -9 -1 6)
1969/12/31/18:00:07.612000,(-61 -59 -17 -7 -1 7 8 -10)
1969/12/31/18:00:07.612000,(-44 -12 -2 1 -3 -13 -22 -60)
1969/12/31/18:00:07.614000,(-50 -26 -7 -1 7 13 22 7)
1969/12/31/18:00:07.614000,(37 -3 -7 -2 0 5 -10 -5)
1969/12/31/18:00:07.626000,(-21 21 6 2 -1 -4 -10 -13)
1969/12/31/18:00:07.626000,(7 8 10 5 0 5 6 -29)
1969/12/31/18:00:07.635000,(5 1 0 -3 -6 -6 -26 -8)
1969/12/31/18:00:07.635000,(2 1 -6 -2 -5 -15 -15 -17)
1969/12/31/18:00:07.650000,(-43 -9 5 6 9 13 -4 -40)
1969/12/31/18:00:07.650000,(-1 8 5 4 5 -3 9 18)
1969/12/31/18:00:07.652000,(7 0 2 4 0 6 4 17)
1969/12/31/18:00:07.652000,(-32 -37 -24 -16 -10 -5 -18 -43)
1969/12/31/18:00:07.672000,(10 3 3 -3 -6 -16 12 16)
1969/12/31/18:00:07.672000,(41 31 11 8 10 26 -35 -31)
1969/12/31/18:00:07.674000,(-24 -15 -8 -6 -8 -16 14 -6)
1969/12/31/18:00:07.674000,(10 24 7 3 1 -4 -4 19)
1969/12/31/18:00:07.686000,(-56 -15 0 -1 0 -20 -31 -63)
1969/12/31/18:00:07.686000,(38 -15 -11 -8 -4 2 16 52)
1969/12/31/18:00:07.695000,(-21 -25 -14 -10 -4 7 -7 2)
1969/12/31/18:00:07.695000,(-10 -11 -5 -3 -5 -6 5 -7)
1969/12/31/18:00:07.710000,(37 36 17 7 11 7 1 19)
1969/12/31/18:00:07.710000,(-44 -19 -1 1 1 20 26 19)
1969/12/31/18:00:07.724000,(51 27 -1 -6 -8 2 -18 2)
1969/12/31/18:00:07.724000,(-30 -23 -1 1 -3 -12 22 15)
1969/12/31/18:00:07.732000,(-27 -9 4 4 6 13 -1 -2)
1969/12/31/18:00:07.732000,(-25 1 -4 -4 -8 -25 -26 -68)
1969/12/31/18:00:07.734000,(-24 2 6 3 9 14 12 17)
1969/12/31/18:00:07.734000,(3 -6 -7 -5 1 15 -21 -26)
1969/12/31/18:00:07.746000,(27 7 -2 -3 -11 -18 -3 0)
1969/12/31/18:00:07.746000,(-36 -29 -7 -3 0 -7 -3 -28)
1969/12/31/18:00:07.755000,(-6 21 12 8 7 -2 12 12)
1969/12/31/18:00:07.755000,(-31 -8 -10 -8 -11 -10 -20 -66)
1969/12/31/18:00:07.770000,(38 4 -4 -2 0 6 -1 22)
1969/12/31/18:00:07.770000,(10 13 6 3 -1 -12 -9 3)
1969/12/31/18:00:07.771000,(-46 -8 4 5 3 9 1 -29)
1969/12/31/18:00:07.771000,(-20 -9 -6 -3 -1 -9 -12 -17)
1969/12/31/18:00:07.793000,(-20 9 -2 -3 -4 -6 -11 -59)
1969/12/31/18:00:07.793000,(16 -28 -4 0 2 2 8 37)
1969/12/31/18:00:07.794000,(6 7 9 7 4 0 5 22)
1969/12/31/18:00:07.794000,(16 23 14 8 8 27 15 14)
1969/12/31/18:00:07.806000,(11 -10 1 6 3 -1 -37 -19)
1969/12/31/18:00:07.806000,(95 20 -9 -12 -10 9 34 39)
1969/12/31/18:00:07.815000,(12 -13 -18 -12 -15 -26 -31 -41)
1969/12/31/18:00:07.815000,(15 9 7 3 4 -8 -3 14)
1969/12/31/18:00:07.830000,(17 7 -2 -2 -5 8 5 21)
1969/12/31/18:00:07.830000,(-50 -16 -4 -2 -5 -14 -17 -9)
1969/12/31/18:00:07.832000,(40 -14 -10 1 13 9 6 14)
1969/12/31/18:00:07.832000,(-13 -6 -8 -6 -4 3 12 31)
1969/12/31/18:00:07.853000,(-1 10 2 0 1 -7 16 24)
1969/12/31/18:00:07.853000,(7 7 1 2 1 1 3 15)
1969/12/31/18:00:07.854000,(-10 -3 0 -2 -4 -9 -4 -27)
1969/12/31/18:00:07.854000,(16 5 5 7 2 11 32 78)
1969/12/31/18:00:07.866000,(-28 -33 -6 -3 -1 1 8 16)
1969/12/31/18:00:07.866000,(-1 29 15 7 4 1 0 -5)
1969/12/31/18:00:07.881000,(33 8 -2 -3 -3 1 -4 37)
1969/12/31/18:00:07.881000,(22 5 3 2 1 -1 9 1)
1969/12/31/18:00:07.890000,(7 -7 -12 -10 -9 -5 -8 -10)
1969/12/31/18:00:07.890000,(-2 6 1 0 2 4 -8 11)
1969/12/31/18:00:07.891000,(-34 7 5 -4 -5 -15 -19 -72)
1969/12/31/18:00:07.892000,(4 -2 0 -1 0 9 -2 2)
1969/12/31/18:00:07.913000,(0 9 7 4 6 -2 -2 -27)
1969/12/31/18:00:07.913000,(-58 -37 -13 3 5 6 -6 -38)
1969/12/31/18:00:07.914000,(-15 -6 -9 -9 -12 -28 -5 48)
1969/12/31/18:00:07.914000,(5 -9 -8 -5 -5 -5 -5 6)
1969/12/31/18:00:07.926000,(-10 10 1 3 4 8 1 -29)
1969/12/31/18:00:07.926000,(-1 1 -2 -6 -11 14 13 4)
1969/12/31/18:00:07.935000,(14 9 9 4 3 5 0 10)
1969/12/31/18:00:07.935000,(-26 -9 -12 -12 -11 -15 -9 -21)
1969/12/31/18:00:07.950000,(22 6 8 7 8 5 9 43)
1969/12/31/18:00:07.950000,(13 9 1 -3 -2 -1 7 25)
1969/12/31/18:00:07.952000,(4 -6 -4 -3 -3 0 -7 2)
1969/12/31/18:00:07.952000,(-26 -20 -8 -8 -7 -13 -28 -68)
1969/12/31/18:00:07.973000,(21 -24 -12 -7 -8 -1 6 47)
1969/12/31/18:00:07.973000,(16 -2 -1 -2 -1 -24 -11 12)
1969/12/31/18:00:07.974000,(44 52 16 4 6 22 2 -35)
1969/12/31/18:00:07.974000,(-48 -53 -19 -6 -4 -17 -9 -20)
1969/12/31/18:00:07.986000,(-44 -13 -5 -4 -4 -11 -4 -38)
1969/12/31/18:00:07.986000,(17 -3 -2 -1 0 41 11 41)
1969/12/31/18:00:07.995000,(-1 10 6 7 5 -16 5 21)
1969/12/31/18:00:07.995000,(-18 -12 -7 -1 -1 2 8 38)
1969/12/31/18:00:08.010000,(15 8 4 2 4 5 -5 -3)
1969/12/31/18:00:08.010000,(-40 3 4 -3 1 -5 -5 -36)
1969/12/31/18:00:08.012000,(-15 -21 -6 -2 -4 -16 -19 8)
1969/12/31/18:00:08.012000,(47 50 16 7 2 9 -23 -30)
1969/12/31/18:00:08.033000,(-5 -32 -7 1 6 15 30 -2)
1969/12/31/18:00:08.033000,(19 12 -6 -5 -1 -7 15 10)
1969/12/31/18:00:08.034000,(46 -8 -3 -5 -5 9 21 40)
1969/12/31/18:00:08.034000,(-18 7 3 -2 -3 -12 -26 -49)
1969/12/31/18:00:08.046000,(37 27 7 5 2 -3 -13 73)
1969/12/31/18:00:08.046000,(0 2 4 3 8 1 24 -7)
1969/12/31/18:00:08.055000,(-33 -14 0 3 -1 3 -5 -23)
1969/12/31/18:00:08.055000,(11 20 10 5 7 36 22 50)
1969/12/31/18:00:08.069000,(-15 -2 8 6 1 -5 21 -27)
1969/12/31/18:00:08.069000,(41 -8 -9 -4 -9 -9 -1 30)
1969/12/31/18:00:08.077000,(-20 -10 -8 -7 -9 -60 -56 4)
1969/12/31/18:00:08.077000,(-22 4 5 4 12 31 23 -23)
1969/12/31/18:00:08.092000,(-38 -13 2 0 -2 -5 -23 -41)
1969/12/31/18:00:08.092000,(-1 6 4 3 1 11 8 -66)
1969/12/31/18:00:08.094000,(24 11 4 3 0 2 6 15)
1969/12/31/18:00:08.094000,(24 2 -4 -4 -3 0 -9 10)
1969/12/31/18:00:08.106000,(11 35 8 2 20 9 33 18)
1969/12/31/18:00:08.106000,(-39 -21 -6 -1 -16 -40 -77 -55)
1969/12/31/18:00:08.115000,(-19 -23 -10 -4 9 25 -22 -10)
1969/12/31/18:00:08.115000,(0 6 5 5 -7 13 0 -17)
1969/12/31/18:00:08.130000,(-32 -22 -18 -13 -17 -26 0 11)
1969/12/31/18:00:08.130000,(-25 -1 5 8 10 -28 -37 -15)
1969/12/31/18:00:08.131000,(4 7 0 -7 -4 -12 27 -22)
1969/12/31/18:00:08.131000,(-21 -22 -3 -2 -8 -6 0 -7)
1969/12/31/18:00:08.152000,(0 7 5 10 7 7 -30 -65)
1969/12/31/18:00:08.152000,(10 18 5 -12 7 23 33 52)
1969/12/31/18:00:08.158000,(15 -8 -6 -3 -13 -8 10 22)
1969/12/31/18:00:08.158000,(-27 -1 0 -2 1 -14 18 9)
1969/12/31/18:00:08.166000,(-43 -18 -6 -5 -8 10 -1 -20)
1969/12/31/18:00:08.166000,(21 4 -2 2 9 17 -10 -8)
1969/12/31/18:00:08.175000,(11 20 8 7 13 7 6 -4)
1969/12/31/18:00:08.175000,(71 23 6 11 15 2 22 53)
1969/12/31/18:00:08.189000,(-38 -22 -12 -18 -32 -39 -25 -9)
1969/12/31/18:00:08.189000,(5 18 8 11 28 26 -9 9)
1969/12/31/18:00:08.196000,(-54 -25 -11 -11 -44 -16 77 1)
1969/12/31/18:00:08.196000,(31 10 -2 -6 -3 -24 -81 -23)
1969/12/31/18:00:08.212000,(46 -11 -13 -7 7 4 -6 -1)
1969/12/31/18:00:08.212000,(-26 -4 2 3 -14 -10 31 9)
1969/12/31/18:00:08.214000,(-23 1 6 5 17 5 14 -32)
1969/12/31/18:00:08.214000,(-30 8 6 9 27 35 23 2)
1969/12/31/18:00:08.226000,(65 16 6 3 -16 -8 19 49)
1969/12/31/18:00:08.226000,(-10 -3 -6 -16 -9 -7 -7 -5)
1969/12/31/18:00:08.235000,(-12 -4 -2 3 10 2 -31 -15)
1969/12/31/18:00:08.235000,(-4 -9 -4 -1 -5 -22 23 35)
1969/12/31/18:00:08.249000,(-46 17 7 15 0 5 0 -65)
1969/12/31/18:00:08.249000,(41 -32 -8 0 -6 50 71 12)
1969/12/31/18:00:08.256000,(2 5 -9 -19 -7 6 -76 -37)
1969/12/31/18:00:08.256000,(5 -10 2 1 -9 -7 22 28)
1969/12/31/18:00:08.273000,(50 -1 -13 -16 -18 -10 -7 25)
1969/12/31/18:00:08.273000,(3 25 11 9 20 -7 5 12)
1969/12/31/18:00:08.274000,(16 14 5 6 0 25 1 -7)
1969/12/31/18:00:08.274000,(-20 -29 -12 -4 -2 -25 -17 -13)
1969/12/31/18:00:08.295000,(-38 -5 1 6 5 -6 -10 -49)
1969/12/31/18:00:08.295000,(11 4 -1 6 5 -24 16 12)
1969/12/31/18:00:08.296000,(31 1 4 -3 1 47 -9 28)
1969/12/31/18:00:08.296000,(3 12 4 -8 -11 -7 10 4)
1969/12/31/18:00:08.309000,(5 -3 -2 2 13 23 34 40)
1969/12/31/18:00:08.309000,(-4 -4 2 5 15 -6 -2 13)
1969/12/31/18:00:08.316000,(-39 -4 0 -6 -9 -4 15 -4)
1969/12/31/18:00:08.316000,(44 10 -4 -11 -31 -26 38 13)
1969/12/31/18:00:08.332000,(-17 -27 -14 -17 -4 -6 -37 -10)
1969/12/31/18:00:08.332000,(-13 10 4 1 -3 -14 -25 3)
1969/12/31/18:00:08.334000,(9 8 8 14 5 -12 22 3)
1969/12/31/18:00:08.334000,(-30 -22 -7 9 17 -6 -18 2)
1969/12/31/18:00:08.355000,(22 19 3 -6 -12 5 -15 2)
1969/12/31/18:00:08.355000,(-69 -31 -7 -7 -41 -18 -11 -44)
1969/12/31/18:00:08.357000,(20 -5 -2 6 15 0 34 9)
1969/12/31/18:00:08.357000,(-12 -5 -6 -17 3 10 -19 0)
1969/12/31/18:00:08.369000,(2 16 14 33 48 20 -6 -17)
1969/12/31/18:00:08.369000,(16 -2 -14 -43 -43 34 1 48)
1969/12/31/18:00:08.376000,(2 -16 -9 -11 -16 -15 21 25)
1969/12/31/18:00:08.376000,(4 14 9 7 -3 13 0 2)
1969/12/31/18:00:08.392000,(-23 -16 -12 -6 -4 -9 13 6)
1969/12/31/18:00:08.392000,(-1 -2 3 13 10 -15 -16 -16)
1969/12/31/18:00:08.394000,(9 7 1 5 18 12 -6 1)
1969/12/31/18:00:08.394000,(22 19 10 5 -10 4 9 41)
1969/12/31/18:00:08.415000,(-31 -41 -13 -9 0 -8 -4 17)
1969/12/31/18:00:08.415000,(-6 9 -2 -2 5 -6 -21 -17)
1969/12/31/18:00:08.416000,(-4 -2 -4 0 13 9 -5 -15)
1969/12/31/18:00:08.416000,(-15 6 5 9 23 17 -7 -17)
1969/12/31/18:00:08.429000,(11 9 4 -8 -4 -5 11 17)
1969/12/31/18:00:08.429000,(19 -1 -9 -13 -18 -3 -5 -2)
1969/12/31/18:00:08.436000,(-37 -3 2 4 -3 -7 -6 -25)
1969/12/31/18:00:08.436000,(42 -1 -4 2 0 -14 -19 -33)
1969/12/31/18:00:08.452000,(20 32 5 -12 -3 12 4 9)
1969/12/31/18:00:08.452000,(-33 -45 -12 0 7 -17 -10 -14)
1969/12/31/18:00:08.454000,(7 1 2 0 3 -4 -1 9)
1969/12/31/18:00:08.454000,(-12 -18 -10 -3 -5 -11 -7 8)
1969/12/31/18:00:08.475000,(-11 4 3 4 -17 -10 -7 -31)
1969/12/31/18:00:08.475000,(-2 11 -1 -3 16 -19 -8 -19)
1969/12/31/18:00:08.476000,(0 6 11 19 11 10 4 5)
1969/12/31/18:00:08.476000,(-3 -29 -16 -14 -1 16 14 19)
1969/12/31/18:00:08.488000,(19 4 -7 -29 -49 -13 -3 -9)
1969/12/31/18:00:08.488000,(-2 7 8 11 12 16 5 16)
1969/12/31/18:00:08.498000,(-1 0 -4 -8 -5 -1 -4 -18)
1969/12/31/18:00:08.498000,(-17 -8 1 0 -4 -22 -21 -44)
1969/12/31/18:00:08.513000,(9 -1 5 11 8 3 0 19)
1969/12/31/18:00:08.513000,(28 8 -1 9 -3 -15 0 22)
1969/12/31/18:00:08.518000,(-13 -15 -8 -12 -10 -10 -15 -8)
1969/12/31/18:00:08.519000,(16 4 -2 -3 -8 2 17 30)
1969/12/31/18:00:08.534000,(0 -5 0 8 31 -2 -5 4)
1969/12/31/18:00:08.534000,(8 -16 -20 1 1 20 4 11)
1969/12/31/18:00:08.542000,(-5 29 19 5 -17 -49 -17 -41)
1969/12/31/18:00:08.542000,(-13 -7 -5 -28 -39 7 -5 1)
1969/12/31/18:00:08.548000,(-9 -3 -1 0 -3 21 22 15)
1969/12/31/18:00:08.548000,(-2 7 8 0 5 -4 -21 3)
1969/12/31/18:00:08.558000,(19 -1 -16 -4 -5 -3 3 -4)
1969/12/31/18:00:08.558000,(-21 -26 -1 13 20 -9 7 -18)
1969/12/31/18:00:08.572000,(-25 -7 1 -1 0 14 -37 -17)
1969/12/31/18:00:08.572000,(-5 -17 -16 -10 -5 1 9 -9)
1969/12/31/18:00:08.580000,(-37 -51 -40 -11 -11 -5 -25 -16)
1969/12/31/18:00:08.580000,(-24 55 34 4 -21 -8 2 -24)
1969/12/31/18:00:08.595000,(17 40 41 10 -1 -5 5 7)
1969/12/31/18:00:08.595000,(14 23 20 13 8 -2 4 1)
1969/12/31/18:00:08.596000,(-2 -17 -13 -11 5 -2 -7 -6)
1969/12/31/18:00:08.596000,(8 -66 -70 -20 -11 -18 -18 -66)
1969/12/31/18:00:08.609000,(7 16 -4 1 10 12 6 16)
1969/12/31/18:00:08.609000,(36 110 110 37 22 19 7 21)
1969/12/31/18:00:08.616000,(-7 -32 -15 -7 -15 1 11 -6)
1969/12/31/18:00:08.616000,(19 -6 -21 4 10 -34 2 37)
1969/12/31/18:00:08.632000,(-4 2 0 -4 5 35 -2 2)
1969/12/31/18:00:08.632000,(-41 -36 -32 -19 -54 -81 -12 -26)
1969/12/31/18:00:08.634000,(19 8 7 0 5 27 0 17)
1969/12/31/18:00:08.634000,(-19 -14 -7 -9 25 71 23 11)
1969/12/31/18:00:08.655000,(-5 -34 -33 -5 -7 -39 13 15)
1969/12/31/18:00:08.655000,(3 -11 -13 3 8 24 -9 6)
1969/12/31/18:00:08.657000,(7 -32 -40 -9 -12 -44 -13 14)
1969/12/31/18:00:08.657000,(-5 21 17 0 -9 -22 -9 -15)
1969/12/31/18:00:08.669000,(-27 -33 -64 -24 -2 0 1 -16)
1969/12/31/18:00:08.669000,(-2 91 85 63 26 26 6 -16)
1969/12/31/18:00:08.676000,(74 9 -9 4 5 7 12 57)
1969/12/31/18:00:08.676000,(-1 60 47 41 21 -7 -3 -18)
1969/12/31/18:00:08.692000,(17 -29 -20 -16 -6 41 -2 -6)
1969/12/31/18:00:08.692000,(7 -110 -106 -49 -24 -14 10 36)
1969/12/31/18:00:08.694000,(-37 68 49 16 34 34 14 1)
1969/12/31/18:00:08.694000,(22 13 44 22 -4 -7 9 26)
1969/12/31/18:00:08.715000,(0 -18 -10 -10 -11 -27 -24 8)
1969/12/31/18:00:08.715000,(1 -21 -25 -15 0 9 13 -6)
1969/12/31/18:00:08.716000,(-22 -1 12 2 7 2 18 40)
1969/12/31/18:00:08.716000,(-43 -38 -42 -24 -12 0 -25 -42)
1969/12/31/18:00:08.729000,(-38 -68 -32 14 10 -12 18 -6)
1969/12/31/18:00:08.729000,(16 27 -12 -30 -21 -4 -13 -5)
1969/12/31/18:00:08.736000,(20 85 91 25 22 34 25 25)
1969/12/31/18:00:08.736000,(46 -3 -17 5 5 0 7 40)
1969/12/31/18:00:08.753000,(-30 12 20 5 -3 -15 -18 -37)
1969/12/31/18:00:08.753000,(-37 -91 -53 -10 -4 -27 -2 -5)
1969/12/31/18:00:08.754000,(-5 25 13 0 -8 2 -19 -37)
1969/12/31/18:00:08.754000,(-3 9 20 -4 9 25 17 11)
1969/12/31/18:00:08.775000,(14 1 -6 3 8 -6 4 14)
1969/12/31/18:00:08.775000,(15 42 36 6 -2 -1 -12 -8)
1969/12/31/18:00:08.776000,(-34 -39 -27 11 8 -12 4 12)
1969/12/31/18:00:08.776000,(-10 -20 -29 -25 -44 -7 -15 -7)
1969/12/31/18:00:08.788000,(22 -8 3 -1 13 7 -2 -8)
1969/12/31/18:00:08.788000,(-4 13 -14 -8 -7 1 -2 -6)
1969/12/31/18:00:08.797000,(24 -6 -7 -2 6 21 3 4)
1969/12/31/18:00:08.797000,(38 38 50 22 38 35 -2 16)
1969/12/31/18:00:08.812000,(-23 4 5 -1 -22 -34 -8 -13)
1969/12/31/18:00:08.812000,(-17 -30 -33 -18 0 -3 -7 -27)
1969/12/31/18:00:08.814000,(-18 -74 -15 5 0 2 3 -29)
1969/12/31/18:00:08.814000,(16 54 -37 -13 -18 -42 -14 -7)
1969/12/31/18:00:08.835000,(50 109 118 36 33 21 1 3)
1969/12/31/18:00:08.835000,(10 -3 9 3 -19 7 23 35)
1969/12/31/18:00:08.836000,(-1 -9 -7 -21 -21 2 -20 -21)
1969/12/31/18:00:08.836000,(-35 -110 -57 -11 -8 -30 4 0)
1969/12/31/18:00:08.849000,(-4 13 -41 -3 13 11 -10 -8)
1969/12/31/18:00:08.849000,(-17 41 58 20 29 15 15 -15)
1969/12/31/18:00:08.857000,(38 -35 -74 -34 -25 -6 2 27)
1969/12/31/18:00:08.857000,(6 79 83 13 4 28 22 21)
1969/12/31/18:00:08.872000,(-11 -24 -10 3 -1 -38 -15 -35)
1969/12/31/18:00:08.872000,(57 12 -2 -1 3 15 -11 -2)
1969/12/31/18:00:08.874000,(-66 -19 2 -6 -35 -19 -10 -34)
1969/12/31/18:00:08.874000,(0 -67 -51 -11 20 5 -5 6)
1969/12/31/18:00:08.895000,(13 -10 -36 -20 -40 -5 10 23)
1969/12/31/18:00:08.895000,(-24 38 67 32 34 8 -8 -16)
1969/12/31/18:00:08.897000,(31 26 -7 20 26 -14 -6 0)
1969/12/31/18:00:08.897000,(-10 4 17 -7 -39 -15 -23 -54)
1969/12/31/18:00:08.909000,(18 11 8 0 8 6 21 37)
1969/12/31/18:00:08.909000,(-18 -48 -26 -11 -4 -2 -7 -12)
1969/12/31/18:00:08.917000,(33 9 -36 -5 7 6 2 30)
1969/12/31/18:00:08.917000,(7 56 67 9 5 -7 4 16)
1969/12/31/18:00:08.933000,(-15 -18 -11 -2 0 23 8 20)
1969/12/31/18:00:08.933000,(-9 -4 -7 3 6 -11 -6 -11)
1969/12/31/18:00:08.934000,(-22 -18 -2 15 42 16 -1 -15)
1969/12/31/18:00:08.934000,(-35 -21 -25 -22 -17 -4 -7 -28)
1969/12/31/18:00:08.955000,(52 2 10 11 7 -7 2 17)
1969/12/31/18:00:08.955000,(-9 -55 -48 -36 -56 -14 4 7)
1969/12/31/18:00:08.956000,(-54 31 47 -3 -11 -11 -13 -56)
1969/12/31/18:00:08.956000,(11 -5 -16 22 23 -27 2 27)
1969/12/31/18:00:08.968000,(-45 7 -9 1 20 33 -1 -32)
1969/12/31/18:00:08.968000,(-13 11 12 -3 10 18 6 -10)
1969/12/31/18:00:08.978000,(4 19 0 -13 -21 4 2 -8)
1969/12/31/18:00:08.978000,(-14 -1 14 13 16 12 0 -16)
1969/12/31/18:00:08.993000,(-13 -54 -40 -3 -27 -45 -18 -17)
1969/12/31/18:00:08.993000,(-7 -46 -51 -22 -31 -32 4 8)
1969/12/31/18:00:08.994000,(17 65 73 9 63 77 6 -13)
1969/12/31/18:00:08.994000,(-16 -99 -71 -27 -35 -13 2 0)
1969/12/31/18:00:09.015000,(10 106 64 10 4 17 -1 -16)
1969/12/31/18:00:09.015000,(-26 -11 -10 8 13 -8 -17 -19)
1969/12/31/18:00:09.016000,(41 -19 -22 0 -17 -28 6 73)
1969/12/31/18:00:09.016000,(-2 -56 -43 -10 7 -1 -1 -4)
1969/12/31/18:00:09.028000,(5 -13 6 6 -10 1 -7 -2)
1969/12/31/18:00:09.028000,(27 92 78 26 19 8 -1 -1)
1969/12/31/18:00:09.037000,(36 14 16 1 -29 -23 0 50)
1969/12/31/18:00:09.037000,(44 4 -24 -16 6 11 7 32)
1969/12/31/18:00:09.052000,(-10 -20 -3 -6 -26 -29 2 5)
1969/12/31/18:00:09.052000,(-14 11 -1 1 1 -6 -9 -7)
1969/12/31/18:00:09.054000,(62 4 3 -5 -4 19 16 37)
1969/12/31/18:00:09.054000,(8 29 -11 10 11 13 -11 -39)
1969/12/31/18:00:09.076000,(0 88 98 23 26 30 4 -1)
1969/12/31/18:00:09.076000,(-6 -32 -18 17 15 -3 13 16)
1969/12/31/18:00:09.078000,(-28 -31 -27 -11 -23 -19 -7 -12)
1969/12/31/18:00:09.078000,(-33 -42 -26 -12 -6 5 3 -20)
1969/12/31/18:00:09.089000,(-3 -35 -32 -12 1 4 9 33)
1969/12/31/18:00:09.089000,(-14 -91 -106 -26 8 -15 -17 -22)
1969/12/31/18:00:09.097000,(-31 79 77 13 -7 -2 0 -33)
1969/12/31/18:00:09.097000,(20 31 59 20 -5 1 12 50)
1969/12/31/18:00:09.112000,(-21 -56 -38 -13 -6 -2 2 -10)
1969/12/31/18:00:09.112000,(-32 -80 -10 5 3 6 -10 -9)
1969/12/31/18:00:09.114000,(-15 -29 -94 -18 6 -29 -17 -9)
1969/12/31/18:00:09.114000,(23 75 45 4 -5 11 -7 3)
1969/12/31/18:00:09.135000,(-43 -106 -47 -25 -16 14 9 -39)
1969/12/31/18:00:09.135000,(79 78 25 -6 -18 -2 11 57)
1969/12/31/18:00:09.136000,(-3 -32 -14 2 12 6 7 -3)
1969/12/31/18:00:09.136000,(27 14 -19 5 16 -16 -23 -3)
1969/12/31/18:00:09.149000,(-46 107 89 26 2 -19 -16 -43)
1969/12/31/18:00:09.149000,(25 -37 -51 -40 -49 5 -6 -4)
1969/12/31/18:00:09.157000,(-8 22 5 3 -2 -4 28 -6)
1969/12/31/18:00:09.157000,(-89 -112 -78 -19 -8 -14 -17 -47)
1969/12/31/18:00:09.172000,(33 -14 -94 -41 -11 -22 -3 -30)
1969/12/31/18:00:09.172000,(23 127 127 91 53 47 3 -18)
1969/12/31/18:00:09.174000,(24 -77 -56 -7 -11 -20 -20 -27)
1969/12/31/18:00:09.174000,(5 -66 -36 -5 -3 -13 -8 -2)
1969/12/31/18:00:09.195000,(11 -27 -40 -12 -3 3 18 49)
1969/12/31/18:00:09.195000,(-21 -88 -51 -39 -15 -15 -2 0)
1969/12/31/18:00:09.196000,(-23 -17 -60 -21 -8 -7 -5 -34)
1969/12/31/18:00:09.196000,(-26 96 105 59 21 17 -21 -60)
1969/12/31/18:00:09.217000,(29 42 22 7 -6 -2 -5 10)
1969/12/31/18:00:09.217000,(16 -64 -86 -21 -6 3 14 12)
1969/12/31/18:00:09.219000,(-26 44 54 36 24 -3 -1 10)
1969/12/31/18:00:09.219000,(-29 -98 -98 -42 -12 2 11 20)
1969/12/31/18:00:09.232000,(49 -15 -84 -35 -6 21 8 57)
1969/12/31/18:00:09.232000,(-57 103 116 73 6 -5 -1 -91)
1969/12/31/18:00:09.234000,(9 -104 -121 -29 -6 18 3 39)
1969/12/31/18:00:09.234000,(19 127 127 38 10 -3 7 -4)
1969/12/31/18:00:09.255000,(-44 -123 -23 13 -3 -27 -22 -19)
1969/12/31/18:00:09.255000,(-9 -92 -128 -67 -16 -29 2 46)
1969/12/31/18:00:09.256000,(-10 96 127 47 25 39 7 -29)
1969/12/31/18:00:09.256000,(80 -72 -61 -21 -17 2 32 97)
1969/12/31/18:00:09.277000,(-26 -107 -90 -27 1 8 -15 -13)
1969/12/31/18:00:09.277000,(-36 20 37 15 5 -23 -22 -49)
1969/12/31/18:00:09.279000,(27 27 -6 -19 -18 -10 10 30)
1969/12/31/18:00:09.279000,(-65 -93 -26 -4 -11 -22 -13 -42)
1969/12/31/18:00:09.292000,(10 72 -1 -11 -29 -11 -9 -11)
1969/12/31/18:00:09.293000,(16 81 77 23 34 28 10 18)
1969/12/31/18:00:09.294000,(24 -105 -97 -31 7 8 -2 8)
1969/12/31/18:00:09.294000,(18 125 42 -6 -25 19 20 -1)
1969/12/31/18:00:09.315000,(-15 6 85 37 3 -31 -11 -9)
1969/12/31/18:00:09.315000,(-55 -68 -52 -13 -4 -4 -12 -39)
1969/12/31/18:00:09.316000,(-51 -88 -36 -5 -12 -16 -19 -39)
1969/12/31/18:00:09.316000,(26 -25 -54 -29 -4 -17 -16 32)
1969/12/31/18:00:09.337000,(29 63 28 11 14 32 26 21)
1969/12/31/18:00:09.337000,(66 -51 -78 -45 -16 -6 19 79)
1969/12/31/18:00:09.339000,(-12 93 116 47 -10 -25 -17 -7)
1969/12/31/18:00:09.339000,(-9 -128 -128 -37 -24 -19 -5 -3)
1969/12/31/18:00:09.352000,(35 127 127 66 54 68 41 47)
1969/12/31/18:00:09.352000,(-10 -93 -55 -2 7 -15 -4 39)
1969/12/31/18:00:09.366000,(-6 21 -71 -61 -22 20 7 3)
1969/12/31/18:00:09.366000,(19 48 71 40 9 -21 -2 -6)
1969/12/31/18:00:09.382000,(2 -127 -115 -44 -26 -25 -26 -17)
1969/12/31/18:00:09.382000,(-37 30 -64 -40 -12 -16 -30 -69)
1969/12/31/18:00:09.384000,(31 55 79 89 51 13 5 -18)
1969/12/31/18:00:09.384000,(22 -47 -59 -4 2 13 -2 24)
1969/12/31/18:00:09.397000,(-31 -109 -60 5 -9 -25 5 0)
1969/12/31/18:00:09.397000,(-56 -111 -75 -25 -10 6 -11 -55)
1969/12/31/18:00:09.399000,(-36 -72 -121 -61 -15 6 -6 -4)
1969/12/31/18:00:09.399000,(22 127 127 82 43 45 29 9)
1969/12/31/18:00:09.412000,(45 -128 -112 -1 8 -5 6 29)
1969/12/31/18:00:09.412000,(70 127 79 30 -2 -8 -3 25)
1969/12/31/18:00:09.419000,(-8 -78 -28 -11 -3 1 -1 7)
1969/12/31/18:00:09.419000,(-35 -86 -86 -32 -18 -25 -7 -11)
1969/12/31/18:00:09.435000,(-19 30 37 23 29 -5 -7 -9)
1969/12/31/18:00:09.435000,(53 94 90 5 -12 62 26 51)
1969/12/31/18:00:09.436000,(2 27 16 -8 -26 -16 2 -8)
1969/12/31/18:00:09.436000,(-5 46 30 0 14 16 3 -5)
1969/12/31/18:00:09.465000,(-24 -71 -86 -25 -15 -32 -23 -43)
1969/12/31/18:00:09.465000,(45 104 116 57 26 -10 4 11)
1969/12/31/18:00:09.467000,(-16 -61 20 8 0 4 -18 -38)
1969/12/31/18:00:09.467000,(7 -84 -68 -6 9 -19 4 32)
1969/12/31/18:00:09.471000,(13 125 71 -5 -23 17 6 17)
1969/12/31/18:00:09.471000,(-14 -94 -75 -33 -11 -29 2 0)
1969/12/31/18:00:09.488000,(-4 -7 7 -4 -5 15 5 -5)
1969/12/31/18:00:09.488000,(16 7 -22 -10 0 -3 -8 -1)
1969/12/31/18:00:09.495000,(15 68 94 32 20 12 0 -7)
1969/12/31/18:00:09.495000,(-10 29 -27 -15 -27 6 6 10)
1969/12/31/18:00:09.497000,(17 -17 10 4 -11 -35 -9 -2)
1969/12/31/18:00:09.497000,(-50 -82 -43 -21 -2 -9 -17 -36)
1969/12/31/18:00:09.517000,(-24 57 -13 -3 4 -3 -10 -15)
1969/12/31/18:00:09.517000,(-2 -6 52 45 9 26 14 -8)
1969/12/31/18:00:09.519000,(-14 -93 -56 -14 -20 -51 -19 15)
1969/12/31/18:00:09.519000,(-40 -21 -57 -23 -1 16 -29 -56)
1969/12/31/18:00:09.531000,(10 7 33 -6 -33 -5 35 27)
1969/12/31/18:00:09.531000,(48 -87 -61 -9 -4 -15 -9 -6)
1969/12/31/18:00:09.547000,(28 39 -4 7 16 27 11 21)
1969/12/31/18:00:09.547000,(-12 34 32 -12 -14 2 -4 -1)
1969/12/31/18:00:09.555000,(15 2 -18 -3 1 -43 -21 9)
1969/12/31/18:00:09.555000,(5 52 -9 -14 21 32 3 -5)
1969/12/31/18:00:09.556000,(16 28 50 61 17 11 18 29)
1969/12/31/18:00:09.556000,(31 -65 -48 -11 -8 -2 11 29)
1969/12/31/18:00:09.577000,(-41 -98 -93 -33 -12 -2 -16 -47)
1969/12/31/18:00:09.577000,(-6 4 0 9 11 -39 -7 23)
1969/12/31/18:00:09.579000,(-10 33 -13 -24 7 32 -8 -27)
1969/12/31/18:00:09.579000,(-37 93 109 42 3 -14 8 -32)
1969/12/31/18:00:09.591000,(23 -65 -51 -16 4 33 14 26)
1969/12/31/18:00:09.591000,(-33 23 24 18 27 1 -6 -15)
1969/12/31/18:00:09.600000,(0 -40 -26 -10 -9 -22 -26 -11)
1969/12/31/18:00:09.600000,(26 10 -33 -12 -2 -4 0 -16)
1969/12/31/18:00:09.615000,(-18 -42 4 -15 -19 -40 -13 3)
1969/12/31/18:00:09.615000,(-5 -59 -53 -2 7 35 11 -8)
1969/12/31/18:00:09.616000,(31 102 63 10 12 0 15 2)
1969/12/31/18:00:09.616000,(-4 27 64 36 24 31 10 18)
1969/12/31/18:00:09.637000,(17 25 -2 -12 -30 -23 -25 2)
1969/12/31/18:00:09.637000,(-83 -86 -38 -7 -13 -4 -13 -33)
1969/12/31/18:00:09.639000,(31 1 -27 -18 -13 -13 -5 6)
1969/12/31/18:00:09.639000,(-28 -104 -78 -16 23 25 1 -17)
1969/12/31/18:00:09.660000,(21 57 17 8 7 6 -1 -3)
1969/12/31/18:00:09.660000,(-4 11 20 4 -17 -24 -1 15)
1969/12/31/18:00:09.662000,(-65 -128 -128 -49 -5 10 -22 -64)
1969/12/31/18:00:09.662000,(50 127 127 42 8 4 13 8)
1969/12/31/18:00:09.675000,(-40 -51 -6 20 17 18 2 -35)
1969/12/31/18:00:09.675000,(68 -124 -101 -34 -11 -2 -4 25)
1969/12/31/18:00:09.676000,(-6 46 -6 15 10 -9 17 18)
1969/12/31/18:00:09.676000,(-18 -66 -55 -49 -24 -5 -13 5)
1969/12/31/18:00:09.697000,(7 68 11 18 19 11 -6 -28)
1969/12/31/18:00:09.697000,(22 42 52 21 -3 2 24 31)
1969/12/31/18:00:09.699000,(-22 -108 -110 -24 -22 -33 -11 -13)
1969/12/31/18:00:09.699000,(-2 83 76 32 20 13 -17 -29)
1969/12/31/18:00:09.711000,(-18 -12 -50 -15 15 36 20 23)
1969/12/31/18:00:09.711000,(-1 -24 -10 -14 -13 -15 0 15)
1969/12/31/18:00:09.720000,(7 43 59 20 5 14 6 15)
1969/12/31/18:00:09.720000,(-12 -94 -83 -41 -32 -35 -7 -7)
1969/12/31/18:00:09.734000,(-28 -79 -45 -14 8 4 -2 -10)
1969/12/31/18:00:09.734000,(-40 10 13 7 -4 -7 -19 -55)
1969/12/31/18:00:09.742000,(13 32 25 6 -4 -3 16 31)
1969/12/31/18:00:09.742000,(12 21 35 14 7 -23 -15 -6)
1969/12/31/18:00:09.757000,(8 99 55 17 -13 21 10 6)
1969/12/31/18:00:09.757000,(-22 -45 -24 -12 4 13 -13 -43)
1969/12/31/18:00:09.759000,(32 19 27 6 -8 -6 5 38)
1969/12/31/18:00:09.759000,(-44 -103 -87 -18 -6 -9 12 -8)
1969/12/31/18:00:09.771000,(3 11 -7 6 -2 -22 -13 -10)
1969/12/31/18:00:09.771000,(24 93 87 37 35 36 -4 3)
1969/12/31/18:00:09.780000,(7 -29 -9 -14 -7 2 -6 -4)
1969/12/31/18:00:09.780000,(21 -3 -32 -10 -12 -12 -16 13)
1969/12/31/18:00:09.793000,(-3 -24 28 10 9 5 24 10)
1969/12/31/18:00:09.793000,(27 22 -21 14 25 -16 -8 29)
1969/12/31/18:00:09.802000,(-25 -5 55 15 -12 7 -7 -18)
1969/12/31/18:00:09.802000,(41 -37 -73 -37 -29 3 19 30)
1969/12/31/18:00:09.825000,(23 41 10 -9 -8 -20 -23 -10)
1969/12/31/18:00:09.825000,(4 75 64 12 -7 -6 1 5)
1969/12/31/18:00:09.826000,(-43 -77 -73 -13 -7 -17 -28 -43)
1969/12/31/18:00:09.826000,(1 96 39 11 13 16 8 -18)
1969/12/31/18:00:09.831000,(6 -63 -41 1 3 6 -4 -1)
1969/12/31/18:00:09.831000,(-26 -80 -102 -40 -28 -14 3 -1)
1969/12/31/18:00:09.840000,(27 108 103 41 24 -3 -2 -13)
1969/12/31/18:00:09.840000,(-24 -77 -34 -10 -14 19 11 -1)
1969/12/31/18:00:09.855000,(-8 -57 -50 -14 14 8 6 7)
1969/12/31/18:00:09.855000,(5 -19 6 20 6 -5 9 5)
1969/12/31/18:00:09.856000,(-58 -70 -63 -44 -35 -31 -9 -17)
1969/12/31/18:00:09.856000,(4 -12 -2 14 18 11 -2 27)
1969/12/31/18:00:09.877000,(11 2 -3 -20 8 36 18 4)
1969/12/31/18:00:09.877000,(79 21 27 22 5 0 4 50)
1969/12/31/18:00:09.879000,(-25 -66 -76 -15 8 10 5 15)
1969/12/31/18:00:09.879000,(5 77 49 38 26 -8 -10 -9)
1969/12/31/18:00:09.891000,(-7 28 39 10 -19 -2 -3 -31)
1969/12/31/18:00:09.891000,(-8 -37 -32 -11 -15 -3 0 -16)
1969/12/31/18:00:09.900000,(-18 -7 -22 -22 -29 -10 -5 -8)
1969/12/31/18:00:09.900000,(17 37 24 -4 -15 12 18 30)
1969/12/31/18:00:09.915000,(24 -18 -59 -16 5 -26 -7 27)
1969/12/31/18:00:09.915000,(6 113 95 45 25 34 25 9)
1969/12/31/18:00:09.916000,(25 -47 1 7 -16 -11 8 17)
1969/12/31/18:00:09.916000,(-31 -128 -110 -37 -10 -13 -1 -14)
1969/12/31/18:00:09.938000,(35 8 6 3 7 7 -15 47)
1969/12/31/18:00:09.938000,(-37 -93 -74 -47 -35 -7 9 -13)
1969/12/31/18:00:09.939000,(30 69 6 9 20 9 2 1)
1969/12/31/18:00:09.939000,(3 34 50 35 28 12 4 -11)
1969/12/31/18:00:09.951000,(-33 -42 -24 -6 -36 -25 18 -5)
1969/12/31/18:00:09.951000,(-12 -71 -45 -20 -11 -20 -44 -22)
1969/12/31/18:00:09.960000,(15 -19 -9 2 14 17 7 22)
1969/12/31/18:00:09.960000,(-12 29 20 7 -7 -7 1 -8)
1969/12/31/18:00:09.975000,(24 59 46 19 7 13 -13 -35)
1969/12/31/18:00:09.975000,(-32 7 -23 -12 -6 -23 -1 -13)
1969/12/31/18:00:09.981000,(-33 -72 -57 -37 -7 18 8 19)
1969/12/31/18:00:09.981000,(24 127 127 36 3 -3 12 13)
1969/12/31/18:00:09.997000,(-33 -74 -33 -2 2 -3 1 -27)
1969/12/31/18:00:09.997000,(-10 -4 -27 -13 -6 -5 -9 -4)
1969/12/31/18:00:09.999000,(28 108 101 42 22 -4 -5 -5)
1969/12/31/18:00:09.999000,(-13 -67 -55 -20 -14 5 8 14)
1969/12/31/18:00:10.011000,(12 -34 -21 -3 20 18 6 15)
1969/12/31/18:00:10.011000,(0 11 1 -9 -7 -7 -8 -13)
1969/12/31/18:00:10.020000,(29 99 81 28 9 -1 0 10)
1969/12/31/18:00:10.020000,(9 -86 -73 -25 -7 -16 -7 23)
1969/12/31/18:00:10.034000,(11 4 11 5 2 7 9 20)
1969/12/31/18:00:10.034000,(-21 -39 -24 -5 -3 3 12 18)
1969/12/31/18:00:10.041000,(-35 -17 -38 -10 -2 -4 -10 -35)
1969/12/31/18:00:10.041000,(28 -5 -3 0 -1 -14 6 50)
1969/12/31/18:00:10.057000,(-52 102 89 21 3 -28 -29 -55)
1969/12/31/18:00:10.057000,(-33 -58 -12 -7 2 33 3 6)
1969/12/31/18:00:10.059000,(33 -38 -52 -13 -7 3 17 20)
1969/12/31/18:00:10.059000,(-12 5 9 10 25 -10 -14 -22)
1969/12/31/18:00:10.071000,(17 -45 -29 -30 -40 -4 7 31)
1969/12/31/18:00:10.071000,(15 2 -19 -15 -19 -26 -6 -13)
1969/12/31/18:00:10.080000,(14 97 78 17 -1 4 10 22)
1969/12/31/18:00:10.080000,(-31 -112 -94 -10 4 -16 -23 -38)
1969/12/31/18:00:10.094000,(-3 41 49 26 25 13 0 -7)
1969/12/31/18:00:10.094000,(12 127 115 29 11 14 -2 -14)
1969/12/31/18:00:10.102000,(14 -76 -40 -11 -3 -10 7 29)
1969/12/31/18:00:10.102000,(27 12 -57 -29 -18 12 12 9)
1969/12/31/18:00:10.117000,(-19 29 42 16 -4 -17 -11 4)
1969/12/31/18:00:10.117000,(5 -56 -60 -20 3 25 11 6)
1969/12/31/18:00:10.119000,(3 -6 39 2 -23 -25 7 20)
1969/12/31/18:00:10.119000,(12 49 30 -24 -27 -12 -11 11)
1969/12/31/18:00:10.140000,(4 -62 -51 12 12 -10 12 12)
1969/12/31/18:00:10.140000,(4 -27 -36 26 45 5 -6 1)
1969/12/31/18:00:10.141000,(-4 -8 19 18 18 7 -7 -2)
1969/12/31/18:00:10.141000,(-20 -33 -6 -25 -31 8 5 -1)
1969/12/31/18:00:10.155000,(27 -43 -52 -8 5 2 3 35)
1969/12/31/18:00:10.155000,(-17 -25 -18 -7 -11 -36 -26 -41)
1969/12/31/18:00:10.156000,(14 74 64 46 38 31 19 3)
1969/12/31/18:00:10.156000,(8 -25 -20 -3 0 19 9 -3)
1969/12/31/18:00:10.177000,(-50 -79 -82 -23 -5 -18 -8 12)
1969/12/31/18:00:10.177000,(-18 28 9 -6 -5 5 1 -10)
1969/12/31/18:00:10.179000,(2 -44 -10 7 -6 -1 -15 -11)
1969/12/31/18:00:10.179000,(-9 38 21 5 2 6 -3 11)
1969/12/31/18:00:10.199000,(-27 -60 -25 -10 -7 -23 -9 -30)
1969/12/31/18:00:10.199000,(-45 -57 -60 -29 -9 12 10 1)
1969/12/31/18:00:10.200000,(-3 -1 -19 -20 -29 -31 3 -17)
1969/12/31/18:00:10.200000,(27 66 84 44 44 51 9 34)
1969/12/31/18:00:10.214000,(-3 -10 -29 -34 -32 -14 -19 -44)
1969/12/31/18:00:10.214000,(-2 5 -3 3 1 -2 10 7)
1969/12/31/18:00:10.215000,(-25 -34 -24 0 14 2 -9 -13)
1969/12/31/18:00:10.215000,(-5 -14 -2 5 -11 -21 -16 -24)
1969/12/31/18:00:10.237000,(7 83 74 40 23 13 8 -6)
1969/12/31/18:00:10.237000,(-1 -47 -34 -3 -8 -15 -2 16)
1969/12/31/18:00:10.237000,(29 53 -7 -29 -26 0 -12 -15)
1969/12/31/18:00:10.237000,(-19 -116 -92 -31 -20 -13 -3 -11)
1969/12/31/18:00:10.259000,(5 -48 -30 -15 -10 -1 -5 -3)
1969/12/31/18:00:10.259000,(33 114 114 45 13 0 11 7)
1969/12/31/18:00:10.260000,(-73 -128 -128 -34 -7 -16 -18 -38)
1969/12/31/18:00:10.260000,(-15 19 10 17 5 2 -13 -35)
1969/12/31/18:00:10.274000,(22 -6 -13 -6 -4 5 6 13)
1969/12/31/18:00:10.274000,(12 -40 -33 -11 -6 -20 -20 -25)
1969/12/31/18:00:10.275000,(-12 -39 -24 -11 11 20 12 -3)
1969/12/31/18:00:10.275000,(10 20 -5 -2 -9 -8 -4 -5)
1969/12/31/18:00:10.297000,(-37 29 52 16 7 23 16 0)
1969/12/31/18:00:10.297000,(31 40 29 11 -2 1 12 39)
1969/12/31/18:00:10.297000,(0 29 11 5 9 6 3 21)
1969/12/31/18:00:10.298000,(11 -40 -39 -9 1 -9 -6 -12)
1969/12/31/18:00:10.319000,(37 112 83 15 10 18 6 15)
1969/12/31/18:00:10.319000,(-24 -96 -97 -24 -26 -29 -11 -1)
1969/12/31/18:00:10.320000,(9 119 121 38 15 23 7 -6)
1969/12/31/18:00:10.320000,(-5 -32 6 13 20 21 30 34)
1969/12/31/18:00:10.333000,(-9 -51 -62 -19 -17 -20 -11 -7)
1969/12/31/18:00:10.333000,(-11 -8 26 1 1 20 1 -15)
1969/12/31/18:00:10.342000,(-25 -100 -76 -24 -6 -22 -13 -13)
1969/12/31/18:00:10.342000,(28 36 -16 5 15 -5 -8 1)
1969/12/31/18:00:10.357000,(25 99 107 28 1 -3 -10 -30)
1969/12/31/18:00:10.357000,(37 -4 0 -6 -4 9 15 41)
1969/12/31/18:00:10.357000,(40 -27 -68 -31 -20 -11 7 8)
1969/12/31/18:00:10.358000,(-25 63 110 31 17 9 -4 -22)
1969/12/31/18:00:10.380000,(-10 -19 -41 -8 6 26 6 1)
1969/12/31/18:00:10.380000,(1 -28 3 -2 -6 -20 0 9)
1969/12/31/18:00:10.380000,(15 -8 -63 -24 -6 -31 -17 -10)
1969/12/31/18:00:10.380000,(-19 41 40 10 11 41 18 21)
1969/12/31/18:00:10.393000,(55 27 19 15 11 -4 12 56)
1969/12/31/18:00:10.394000,(-26 3 -1 -13 -21 2 -19 -46)
1969/12/31/18:00:10.401000,(-10 -70 -15 -9 -6 18 10 -1)
1969/12/31/18:00:10.401000,(-56 -128 -121 -15 15 -44 -19 0)
1969/12/31/18:00:10.417000,(33 107 94 32 -3 8 -5 -5)
1969/12/31/18:00:10.417000,(-26 -30 -4 -2 7 7 9 -2)
1969/12/31/18:00:10.424000,(5 -33 -16 -5 -5 -6 -6 1)
1969/12/31/18:00:10.424000,(18 40 38 0 -21 -3 5 9)
1969/12/31/18:00:10.439000,(-7 -84 -64 -21 2 -1 5 9)
1969/12/31/18:00:10.439000,(20 12 -26 -15 -4 -8 -4 -3)
1969/12/31/18:00:10.440000,(5 24 30 26 17 13 10 20)
1969/12/31/18:00:10.440000,(6 26 22 6 2 8 8 -1)
1969/12/31/18:00:10.454000,(-44 -63 -44 -11 -11 -20 -4 -9)
1969/12/31/18:00:10.454000,(34 -59 -75 -27 -22 2 10 50)
1969/12/31/18:00:10.462000,(8 127 125 48 34 45 16 7)
1969/12/31/18:00:10.462000,(5 -13 -37 -33 -40 -21 -13 -22)
1969/12/31/18:00:10.477000,(10 30 31 18 22 8 -1 -1)
1969/12/31/18:00:10.477000,(-42 -92 -49 18 43 7 2 -21)
1969/12/31/18:00:10.477000,(23 53 13 8 -6 -7 2 14)
1969/12/31/18:00:10.477000,(12 30 56 11 -7 -3 -1 -6)
1969/12/31/18:00:10.499000,(5 -15 -40 -19 1 3 -11 -35)
1969/12/31/18:00:10.499000,(-14 -19 -6 -15 -5 -9 -9 -4)
1969/12/31/18:00:10.500000,(-10 61 61 24 13 7 -15 -36)
1969/12/31/18:00:10.500000,(-5 -24 -13 -7 -4 -10 -4 -24)
1969/12/31/18:00:10.522000,(-27 -73 -102 -42 -27 -14 -6 -3)
1969/12/31/18:00:10.522000,(31 127 127 45 30 15 -3 -12)
1969/12/31/18:00:10.523000,(-8 -48 -43 -17 -22 -14 3 0)
1969/12/31/18:00:10.523000,(-21 -69 -36 -8 -7 -10 -3 -5)
1969/12/31/18:00:10.537000,(-35 14 10 1 -14 -9 -20 -35)
1969/12/31/18:00:10.537000,(39 -7 -28 -26 -24 -5 1 16)
1969/12/31/18:00:10.537000,(-1 7 3 -1 -2 -7 7 15)
1969/12/31/18:00:10.537000,(8 -28 10 -5 -6 13 -2 2)
1969/12/31/18:00:10.559000,(-21 -79 -69 -6 38 35 -2 14)
1969/12/31/18:00:10.559000,(-25 78 76 19 3 1 17 33)
1969/12/31/18:00:10.560000,(16 26 -7 -8 -8 -11 -7 -9)
1969/12/31/18:00:10.560000,(-18 -44 -46 -22 -18 -9 12 9)
1969/12/31/18:00:10.574000,(1 26 33 18 2 -11 -11 -16)
1969/12/31/18:00:10.574000,(-5 -42 -24 -7 -3 15 2 -7)
1969/12/31/18:00:10.575000,(0 28 -23 -12 -8 -7 -4 12)
1969/12/31/18:00:10.575000,(7 55 80 44 20 5 1 1)
1969/12/31/18:00:10.597000,(-23 -64 -35 -21 -14 -9 5 -22)
1969/12/31/18:00:10.597000,(-8 -32 -18 4 6 -5 -19 -30)
1969/12/31/18:00:10.597000,(-11 17 19 8 9 11 21 41)
1969/12/31/18:00:10.597000,(-36 -46 -45 -24 -10 -9 -19 -45)
1969/12/31/18:00:10.619000,(37 50 -3 -12 -8 -10 5 15)
1969/12/31/18:00:10.619000,(11 80 82 27 4 -6 -6 -7)
1969/12/31/18:00:10.620000,(6 -68 -49 -15 -2 20 -2 20)
1969/12/31/18:00:10.620000,(13 6 -8 -4 -8 -1 13 9)
1969/12/31/18:00:10.635000,(-11 1 22 15 1 -5 -1 -1)
1969/12/31/18:00:10.635000,(7 -26 -41 -17 -11 -11 4 22)
1969/12/31/18:00:10.641000,(10 -7 12 6 14 -5 -12 -39)
1969/12/31/18:00:10.641000,(4 26 -2 -4 5 -3 -4 0)
1969/12/31/18:00:10.657000,(9 -112 -48 -4 -13 0 12 23)
1969/12/31/18:00:10.657000,(-28 54 -1 -4 -5 -9 -7 -22)
1969/12/31/18:00:10.657000,(-15 -40 9 27 30 15 8 -6)
1969/12/31/18:00:10.658000,(23 92 36 8 -8 -13 -5 9)
1969/12/31/18:00:10.679000,(-30 3 -13 2 -5 4 5 -1)
1969/12/31/18:00:10.679000,(43 7 4 -3 1 10 -1 -17)
1969/12/31/18:00:10.680000,(-43 -88 -52 -31 -47 -39 -19 -9)
1969/12/31/18:00:10.680000,(26 -22 -4 -8 1 3 0 -1)
1969/12/31/18:00:10.695000,(-4 21 14 -2 4 5 -11 4)
1969/12/31/18:00:10.695000,(-14 -39 -37 -16 -6 6 8 15)
1969/12/31/18:00:10.702000,(9 66 63 15 -5 -4 -3 -6)
1969/12/31/18:00:10.702000,(-29 -100 -62 -8 2 -1 -4 -4)
1969/12/31/18:00:10.717000,(-3 127 83 21 15 -12 -21 -48)
1969/12/31/18:00:10.717000,(8 -49 -38 2 -3 11 6 3)
1969/12/31/18:00:10.717000,(-18 -69 -51 -29 -18 -12 -4 4)
1969/12/31/18:00:10.717000,(27 120 59 12 4 0 -6 -2)
1969/12/31/18:00:10.747000,(-12 -96 -41 -15 -9 -8 6 11)
1969/12/31/18:00:10.747000,(-29 -30 -25 14 40 17 -6 -13)
1969/12/31/18:00:10.748000,(42 73 59 17 10 -5 13 10)
1969/12/31/18:00:10.748000,(0 -61 -37 -9 -6 -4 -10 22)
1969/12/31/18:00:10.753000,(24 85 65 12 0 19 25 12)
1969/12/31/18:00:10.753000,(11 9 14 -9 -21 -27 -21 -44)
1969/12/31/18:00:10.762000,(11 20 -11 -4 6 4 -16 -23)
1969/12/31/18:00:10.762000,(25 18 29 12 12 8 29 68)
1969/12/31/18:00:10.777000,(23 -2 -15 7 7 -15 -15 -11)
1969/12/31/18:00:10.777000,(-38 -113 -64 -37 -21 20 20 12)
1969/12/31/18:00:10.778000,(-9 80 53 8 -8 0 -16 -27)
1969/12/31/18:00:10.778000,(-6 8 -20 -21 -13 -13 -19 -38)
1969/12/31/18:00:10.799000,(-3 -16 9 17 28 11 13 14)
1969/12/31/18:00:10.799000,(12 -30 -5 -3 9 6 8 24)
1969/12/31/18:00:10.800000,(-12 -119 -111 -27 -25 -12 -12 -9)
1969/12/31/18:00:10.800000,(21 91 60 25 0 -5 -3 7)
1969/12/31/18:00:10.813000,(-8 -32 -30 -5 1 15 6 -8)
1969/12/31/18:00:10.813000,(51 9 4 5 -3 -11 -13 30)
1969/12/31/18:00:10.822000,(-34 -94 -28 -9 3 6 1 -8)
1969/12/31/18:00:10.822000,(-6 14 -37 -18 0 -15 -2 25)
1969/12/31/18:00:10.837000,(13 61 48 6 -18 3 3 5)
1969/12/31/18:00:10.837000,(-10 29 22 6 -4 4 9 -21)
1969/12/31/18:00:10.837000,(-14 -45 -30 -12 3 -1 -4 -15)
1969/12/31/18:00:10.838000,(-21 -59 -18 8 8 6 8 -5)
1969/12/31/18:00:10.860000,(-23 -43 -55 -29 -13 -14 -8 -2)
1969/12/31/18:00:10.860000,(-3 86 73 22 16 1 -1 0)
1969/12/31/18:00:10.860000,(30 30 22 5 -9 -1 5 21)
1969/12/31/18:00:10.860000,(-12 -30 -6 11 28 21 5 -40)
1969/12/31/18:00:10.873000,(-5 -76 -48 -23 -15 -3 -7 4)
1969/12/31/18:00:10.873000,(23 85 51 11 -6 -5 9 8)
1969/12/31/18:00:10.882000,(-26 56 74 22 28 4 -3 -13)
1969/12/31/18:00:10.882000,(10 22 3 7 -25 3 -6 7)
1969/12/31/18:00:10.897000,(-28 -44 -32 -23 -25 -26 -14 -13)
1969/12/31/18:00:10.897000,(6 -43 -21 12 1 -23 -14 -17)
1969/12/31/18:00:10.897000,(4 4 -17 -9 5 22 21 29)
1969/12/31/18:00:10.897000,(-21 -57 21 3 9 8 -1 -22)
1969/12/31/18:00:10.919000,(0 12 -30 -6 -6 -11 -11 -35)
1969/12/31/18:00:10.919000,(-15 10 5 -11 -9 -17 -3 3)
1969/12/31/18:00:10.920000,(26 -7 -12 -6 -12 -5 2 17)
1969/12/31/18:00:10.920000,(6 -20 -7 22 37 2 -10 -14)
1969/12/31/18:00:10.934000,(15 0 -3 0 2 8 16 41)
1969/12/31/18:00:10.934000,(-19 -2 -7 -5 -1 -1 -7 -17)
1969/12/31/18:00:10.942000,(1 1 -2 -7 -7 0 -2 2)
1969/12/31/18:00:10.942000,(4 -35 -40 -27 -15 -1 6 11)
1969/12/31/18:00:10.957000,(9 20 34 9 5 4 15 19)
1969/12/31/18:00:10.957000,(-21 55 52 23 23 11 -3 12)
1969/12/31/18:00:10.957000,(50 33 13 2 -14 -6 13 49)
1969/12/31/18:00:10.957000,(-64 -60 -48 -31 -26 -8 1 -20)
1969/12/31/18:00:10.979000,(-15 34 -7 2 4 -6 -13 -4)
1969/12/31/18:00:10.979000,(12 -19 -18 3 1 12 14 10)
1969/12/31/18:00:10.980000,(-2 -26 -31 3 8 -5 -23 -18)
1969/12/31/18:00:10.980000,(-5 -24 -1 -8 -9 -10 -7 -5)
1969/12/31/18:00:11.002000,(22 -23 -15 -7 2 15 27 57)
1969/12/31/18:00:11.002000,(-31 -11 -21 -15 -12 -4 -31 -83)
1969/12/31/18:00:11.003000,(3 32 11 -21 -13 -20 0 -5)
1969/12/31/18:00:11.003000,(19 44 22 28 31 19 2 6)
1969/12/31/18:00:11.017000,(-4 -12 16 -4 -17 -5 3 4)
1969/12/31/18:00:11.017000,(9 4 1 19 21 29 33 24)
1969/12/31/18:00:11.018000,(-17 -4 -2 -1 -5 -12 -5 -11)
1969/12/31/18:00:11.018000,(-12 15 5 -20 -31 -11 -26 -14)
1969/12/31/18:00:11.039000,(-4 -4 12 15 11 -4 -10 -29)
1969/12/31/18:00:11.039000,(-47 -27 -3 -2 -5 -6 -15 -26)
1969/12/31/18:00:11.040000,(0 -4 -10 7 8 5 40 -57)
1969/12/31/18:00:11.040000,(60 32 13 -3 -3 39 -16 1)
1969/12/31/18:00:11.053000,(-66 -10 -6 -16 -19 1 6 -64)
1969/12/31/18:00:11.053000,(-6 -30 -24 -14 -10 -15 -38 -2)
1969/12/31/18:00:11.062000,(-2 -58 -13 -1 4 -2 12 28)
1969/12/31/18:00:11.062000,(73 82 36 19 9 -11 12 25)
1969/12/31/18:00:11.077000,(38 3 2 -3 5 3 -22 1)
1969/12/31/18:00:11.077000,(79 14 -7 -5 -2 7 46 99)
1969/12/31/18:00:11.077000,(-56 -33 -16 -6 -8 -30 -39 -74)
1969/12/31/18:00:11.077000,(-53 0 -4 -10 -11 -15 4 -7)
1969/12/31/18:00:11.099000,(-4 -45 -1 11 10 8 17 62)
1969/12/31/18:00:11.099000,(59 42 -13 -18 -15 -18 4 -10)
1969/12/31/18:00:11.100000,(1 16 13 8 12 18 -23 16)
1969/12/31/18:00:11.100000,(-33 -20 -2 5 2 -23 0 -31)
1969/12/31/18:00:11.121000,(51 25 25 17 18 27 24 29)
1969/12/31/18:00:11.121000,(-3 8 -1 0 -4 -15 -30 -31)
1969/12/31/18:00:11.130000,(-102 -51 -30 -17 -8 -1 -11 -22)
1969/12/31/18:00:11.130000,(35 21 -4 -8 -8 -14 -11 -4)
1969/12/31/18:00:11.139000,(30 -4 -2 -5 -5 -6 6 11)
1969/12/31/18:00:11.139000,(-10 3 23 19 13 11 9 -12)
1969/12/31/18:00:11.140000,(42 -3 -9 -1 -1 -2 -1 57)
1969/12/31/18:00:11.140000,(-49 -22 -6 -2 1 5 8 25)
1969/12/31/18:00:11.159000,(-32 26 15 9 0 -11 -23 -78)
1969/12/31/18:00:11.159000,(17 -7 -19 -14 -9 -6 -13 -19)
1969/12/31/18:00:11.160000,(-21 22 4 -1 0 4 2 2)
1969/12/31/18:00:11.160000,(1 -24 8 6 11 6 18 29)
1969/12/31/18:00:11.182000,(-36 -14 -3 1 -2 -1 -5 -14)
1969/12/31/18:00:11.182000,(-4 -14 -5 -7 -3 -2 0 15)
1969/12/31/18:00:11.183000,(26 34 11 14 7 7 1 -15)
1969/12/31/18:00:11.183000,(6 -10 7 9 5 7 6 -8)
1969/12/31/18:00:11.197000,(6 20 3 -1 -1 -6 -8 6)
1969/12/31/18:00:11.197000,(-39 -21 -10 -8 -6 -2 -1 0)
1969/12/31/18:00:11.212000,(25 2 4 3 6 6 7 24)
1969/12/31/18:00:11.212000,(-5 16 4 0 0 1 -2 -10)
1969/12/31/18:00:11.219000,(-15 -20 -16 -8 -6 -6 -7 -8)
1969/12/31/18:00:11.219000,(-13 -14 -12 -7 -3 0 4 10)
1969/12/31/18:00:11.220000,(5 0 17 10 5 5 3 -1)
1969/12/31/18:00:11.220000,(12 24 12 7 2 0 3 14)
1969/12/31/18:00:11.242000,(19 13 15 5 1 -2 1 11)
1969/12/31/18:00:11.242000,(-2 5 0 1 2 2 4 8)
1969/12/31/18:00:11.243000,(2 4 -5 -6 -2 0 -1 0)
1969/12/31/18:00:11.243000,(-10 -12 -15 -8 -6 -3 -2 -6)
1969/12/31/18:00:11.257000,(-1 -7 -2 -3 -1 -3 0 4)
1969/12/31/18:00:11.257000,(-3 -16 -7 -2 -4 -1 -2 6)
1969/12/31/18:00:11.257000,(2 4 5 5 5 4 7 32)
1969/12/31/18:00:11.257000,(-6 -5 0 -1 -5 -4 -6 -9)
1969/12/31/18:00:11.279000,(-34 -7 -15 -11 -6 -4 -7 -20)
1969/12/31/18:00:11.279000,(8 -2 2 3 1 1 4 -16)
1969/12/31/18:00:11.280000,(-13 -10 -6 -7 -4 -4 -6 1)
1969/12/31/18:00:11.280000,(5 -47 -29 -7 1 5 3 31)
1969/12/31/18:00:11.302000,(-7 42 5 -8 -7 -10 -11 -4)
1969/12/31/18:00:11.302000,(-11 4 16 6 0 -5 -5 -3)
1969/12/31/18:00:11.303000,(-11 -41 -28 -6 0 2 4 -3)
1969/12/31/18:00:11.303000,(14 39 13 9 4 7 12 13)
1969/12/31/18:00:11.317000,(3 -4 15 4 -1 -2 -5 3)
1969/12/31/18:00:11.317000,(-16 -14 5 0 2 2 5 11)
1969/12/31/18:00:11.317000,(1 14 8 3 1 -2 -4 -2)
1969/12/31/18:00:11.317000,(-1 -8 -7 -7 -5 -6 -12 -39)
1969/12/31/18:00:11.339000,(26 3 -18 -4 -1 1 7 18)
1969/12/31/18:00:11.339000,(-11 8 26 5 1 3 4 -5)
1969/12/31/18:00:11.340000,(1 -9 -10 -9 -4 -4 -7 -16)
1969/12/31/18:00:11.340000,(4 30 32 17 11 10 10 7)
1969/12/31/18:00:11.362000,(-4 -19 4 2 -2 -2 -4 -6)
1969/12/31/18:00:11.362000,(-9 -63 -59 -20 -5 2 1 3)
1969/12/31/18:00:11.363000,(26 97 100 33 11 3 -1 6)
1969/12/31/18:00:11.363000,(-3 6 -1 -6 -10 -11 -7 -14)
1969/12/31/18:00:11.377000,(11 -18 -19 -3 1 2 9 14)
1969/12/31/18:00:11.377000,(-3 5 2 3 4 -1 -9 1)
1969/12/31/18:00:11.377000,(2 -23 -24 -4 -3 1 14 6)
1969/12/31/18:00:11.377000,(-6 -41 -24 -12 -7 0 -16 -7)
1969/12/31/18:00:11.399000,(5 42 21 3 2 -1 2 -5)
1969/12/31/18:00:11.399000,(-10 -18 -27 -11 -4 -3 -2 -2)
1969/12/31/18:00:11.407000,(-3 -10 -21 -12 -7 -7 -10 -17)
1969/12/31/18:00:11.407000,(0 -5 13 6 1 -4 -1 0)
1969/12/31/18:00:11.422000,(2 -9 -15 -3 -1 -1 -2 1)
1969/12/31/18:00:11.422000,(7 27 11 6 1 2 0 0)
1969/12/31/18:00:11.423000,(-1 -11 -16 -6 -3 -2 -5 -7)
1969/12/31/18:00:11.423000,(-8 -22 -9 -8 -4 -3 4 3)
1969/12/31/18:00:11.437000,(1 -4 -12 -11 -5 -1 -1 6)
1969/12/31/18:00:11.437000,(8 45 42 18 3 0 -1 -3)
1969/12/31/18:00:11.437000,(1 -19 -7 0 2 1 -3 -3)
1969/12/31/18:00:11.437000,(-8 -8 -21 -12 -6 -3 7 0)
1969/12/31/18:00:11.459000,(-8 -48 -30 -19 -7 -4 -11 -6)
1969/12/31/18:00:11.459000,(4 48 42 12 3 1 3 4)
1969/12/31/18:00:11.460000,(11 25 6 21 10 6 5 5)
1969/12/31/18:00:11.460000,(-4 -2 6 2 -2 -1 7 3)
1969/12/31/18:00:11.484000,(4 5 11 4 1 0 -1 6)
1969/12/31/18:00:11.484000,(-14 -58 -41 -16 -7 -3 -8 -17)
1969/12/31/18:00:11.484000,(1 5 -14 -18 -7 -4 0 2)
1969/12/31/18:00:11.484000,(7 34 18 11 5 3 -1 2)
1969/12/31/18:00:11.497000,(-1 -3 9 4 1 0 -2 0)
1969/12/31/18:00:11.497000,(-2 4 -2 -2 0 0 1 0)
1969/12/31/18:00:11.497000,(-6 -14 -10 -4 -2 0 1 -1)
1969/12/31/18:00:11.497000,(-1 -4 -13 -10 -4 -2 -4 -5)
1969/12/31/18:00:11.519000,(1 -18 -8 -1 -3 -2 -1 -2)
1969/12/31/18:00:11.519000,(-7 -30 -13 -10 -5 0 2 3)
1969/12/31/18:00:11.520000,(31 92 71 27 15 6 3 6)
1969/12/31/18:00:11.520000,(-2 -12 -7 4 1 -1 -4 -2)
1969/12/31/18:00:11.543000,(0 8 2 5 2 2 3 0)
1969/12/31/18:00:11.543000,(-12 -27 0 3 1 0 1 -1)
1969/12/31/18:00:11.543000,(-11 -40 -27 -17 -9 -4 -3 -2)
1969/12/31/18:00:11.543000,(5 14 5 -1 3 0 -2 3)
1969/12/31/18:00:11.557000,(-2 14 9 7 3 2 1 -5)
1969/12/31/18:00:11.557000,(2 5 -17 -9 -4 -5 -8 -3)
1969/12/31/18:00:11.557000,(-10 -62 -30 -17 -4 3 6 4)
1969/12/31/18:00:11.557000,(-7 37 2 -8 -6 -6 -5 -9)
1969/12/31/18:00:11.579000,(-1 -7 11 17 8 7 4 3)
1969/12/31/18:00:11.579000,(6 -9 -37 -8 -2 -2 -1 2)
1969/12/31/18:00:11.580000,(7 7 14 23 11 5 0 4)
1969/12/31/18:00:11.580000,(-15 -54 -44 -19 -7 -3 -3 -4)
1969/12/31/18:00:11.603000,(14 54 44 9 3 0 1 2)
1969/12/31/18:00:11.603000,(-14 -15 4 4 -1 -1 -1 -6)
1969/12/31/18:00:11.604000,(-4 -5 -3 -10 -5 -4 -3 -3)
1969/12/31/18:00:11.604000,(2 -8 -37 -12 -3 -1 -1 -2)
1969/12/31/18:00:11.632000,(-7 -19 9 2 0 0 1 1)
1969/12/31/18:00:11.632000,(9 14 0 -4 -2 -4 1 6)
1969/12/31/18:00:11.633000,(-5 13 -32 -15 -6 -3 -7 -7)
1969/12/31/18:00:11.633000,(-3 1 3 8 6 3 2 0)
1969/12/31/18:00:11.639000,(11 36 -20 -9 -2 -4 -4 -4)
1969/12/31/18:00:11.639000,(4 -7 3 4 2 -1 0 5)
1969/12/31/18:00:11.640000,(-26 -59 -13 -12 -8 -3 -4 -12)
1969/12/31/18:00:11.640000,(20 59 58 27 7 1 0 8)
1969/12/31/18:00:11.663000,(-13 -30 -27 -28 -16 -7 -4 -4)
1969/12/31/18:00:11.663000,(19 37 47 29 13 5 5 3)
1969/12/31/18:00:11.664000,(-22 -50 -7 -2 -1 0 1 -1)
1969/12/31/18:00:11.664000,(13 57 -5 -11 -4 -4 -4 -4)
1969/12/31/18:00:11.685000,(10 35 82 37 11 5 5 2)
1969/12/31/18:00:11.685000,(-4 9 1 -10 -7 -4 -2 -2)
1969/12/31/18:00:11.685000,(7 -2 -8 -3 -1 -1 0 1)
1969/12/31/18:00:11.685000,(-18 -62 -10 -9 -7 -2 0 -2)
1969/12/31/18:00:11.699000,(0 5 -35 -18 -4 -3 -5 0)
1969/12/31/18:00:11.699000,(-5 -1 6 5 4 4 1 2)
1969/12/31/18:00:11.700000,(21 73 23 15 6 1 2 3)
1969/12/31/18:00:11.700000,(-7 -32 -23 -12 -4 -2 -3 -3)
1969/12/31/18:00:11.723000,(-12 -36 -32 -2 0 0 0 -3)
1969/12/31/18:00:11.723000,(-5 -26 -23 -7 -2 -1 -1 0)
1969/12/31/18:00:11.723000,(2 14 10 4 -2 -1 -3 1)
1969/12/31/18:00:11.724000,(0 -29 -15 -5 -3 -1 -2 0)
1969/12/31/18:00:11.736000,(-5 5 3 0 -1 -1 -1 -4)
1969/12/31/18:00:11.736000,(-4 -2 -10 -7 -3 -1 -3 -3)
1969/12/31/18:00:11.744000,(-1 -10 -7 -2 -2 -1 0 -1)
1969/12/31/18:00:11.744000,(6 23 17 5 2 0 -1 2)
1969/12/31/18:00:11.760000,(-6 -28 -7 0 1 0 -2 -1)
1969/12/31/18:00:11.760000,(0 19 11 0 -1 -1 -2 -4)
1969/12/31/18:00:11.767000,(1 4 -36 -20 -8 -4 -2 -2)
1969/12/31/18:00:11.767000,(-7 -18 24 10 2 3 0 -2)
1969/12/31/18:00:11.783000,(9 39 0 6 4 0 -1 -1)
1969/12/31/18:00:11.783000,(-1 6 3 -1 -3 0 0 -2)
1969/12/31/18:00:11.783000,(3 3 10 3 1 -2 0 1)
1969/12/31/18:00:11.783000,(-5 -7 0 -2 -2 -1 -3 -6)
1969/12/31/18:00:11.796000,(-7 -25 -14 -9 -3 0 -3 -2)
1969/12/31/18:00:11.796000,(1 -2 3 -5 -4 -1 0 1)
1969/12/31/18:00:11.804000,(-2 5 11 11 2 1 -3 -4)
1969/12/31/18:00:11.804000,(-3 -17 -14 -6 -3 -1 -1 0)
1969/12/31/18:00:11.819000,(-4 -9 12 2 3 -3 -1 -1)
1969/12/31/18:00:11.819000,(-2 2 4 1 -1 -4 -2 -3)
1969/12/31/18:00:11.820000,(-4 -18 -4 -2 -3 -1 -1 1)
1969/12/31/18:00:11.820000,(3 12 8 2 0 2 2 2)
1969/12/31/18:00:11.842000,(-5 -6 -12 -7 -4 -1 -1 -1)
1969/12/31/18:00:11.842000,(-3 -9 7 0 -3 -2 0 -2)
1969/12/31/18:00:11.843000,(1 2 1 3 3 -1 1 0)
1969/12/31/18:00:11.843000,(-1 4 -16 -7 -2 -4 -2 -2)
1969/12/31/18:00:11.856000,(2 -5 2 0 -3 -1 0 1)
1969/12/31/18:00:11.856000,(-5 -10 -18 -6 -1 -1 -4 -4)
1969/12/31/18:00:11.864000,(-2 -11 -1 -3 -1 0 0 -1)
1969/12/31/18:00:11.864000,(2 1 -2 5 1 -1 0 0)
1969/12/31/18:00:11.880000,(-3 -22 -2 -2 -5 -3 -1 0)
1969/12/31/18:00:11.880000,(3 23 2 1 1 -2 -1 -2)
1969/12/31/18:00:11.880000,(-2 -10 2 -2 -4 -1 -2 -1)
1969/12/31/18:00:11.880000,(-5 4 0 -1 1 -3 -2 -4)
1969/12/31/18:00:11.902000,(-2 -5 9 4 1 1 0 0)
1969/12/31/18:00:11.903000,(1 1 1 2 -1 2 1 0)
1969/12/31/18:00:11.903000,(-4 -7 -6 -2 -3 -1 -4 -5)
1969/12/31/18:00:11.903000,(-2 -1 4 1 -1 0 -2 -1)
1969/12/31/18:00:11.925000,(0 1 -6 -6 -2 -1 0 0)
1969/12/31/18:00:11.925000,(-3 -8 -2 -4 -3 -2 -3 -1)
1969/12/31/18:00:11.926000,(2 2 1 1 2 -1 0 1)
1969/12/31/18:00:11.926000,(-2 -1 6 -1 -1 -1 -2 -2)
1969/12/31/18:00:11.940000,(1 -2 -9 -5 -2 -2 0 0)
1969/12/31/18:00:11.940000,(-1 3 4 1 0 -3 -1 -2)
1969/12/31/18:00:11.940000,(1 -7 8 5 0 -3 0 1)
1969/12/31/18:00:11.940000,(-1 1 -3 5 -2 -4 1 -1)
1969/12/31/18:00:11.963000,(2 3 0 0 0 1 0 0)
1969/12/31/18:00:11.963000,(2 3 -1 3 0 1 1 1)
1969/12/31/18:00:11.964000,(-3 -1 -14 -6 -2 -1 -1 -3)
1969/12/31/18:00:11.964000,(1 -3 6 2 0 1 2 1)
1969/12/31/18:00:11.976000,(2 8 3 2 -1 2 1 1)
1969/12/31/18:00:11.976000,(-4 -5 -2 -1 0 -1 -1 -3)
1969/12/31/18:00:11.992000,(-6 -6 1 0 -1 1 -2 -3)
1969/12/31/18:00:11.992000,(1 4 3 -1 -2 1 -1 1)
1969/12/31/18:00:12.007000,(0 2 -3 -3 -2 -1 -2 -1)
1969/12/31/18:00:12.007000,(-1 -3 -6 -3 -2 0 -1 0)
1969/12/31/18:00:12.009000,(2 6 6 4 3 3 1 0)
1969/12/31/18:00:12.009000,(-1 -1 1 0 -1 -2 -1 -1)
1969/12/31/18:00:12.023000,(-1 1 0 4 1 -1 0 -1)
1969/12/31/18:00:12.023000,(-2 -4 -2 -1 -1 -3 -5 -2)
1969/12/31/18:00:12.024000,(0 1 3 1 2 -1 1 0)
1969/12/31/18:00:12.024000,(-1 0 1 -1 -1 0 -2 0)
1969/12/31/18:00:12.045000,(-2 -5 -2 0 2 -2 -3 -3)
1969/12/31/18:00:12.045000,(-3 -2 -6 -5 -4 -3 -1 0)
1969/12/31/18:00:12.047000,(-3 -1 -4 -7 -6 -3 -3 -4)
1969/12/31/18:00:12.047000,(3 1 13 8 3 1 1 2)
1969/12/31/18:00:12.058000,(-4 -9 -11 -5 0 0 -3 -2)
1969/12/31/18:00:12.059000,(0 6 12 6 2 1 1 -1)
1969/12/31/18:00:12.075000,(4 6 -2 0 -2 0 0 3)
1969/12/31/18:00:12.075000,(-2 0 3 -1 -3 -2 -2 -3)
1969/12/31/18:00:12.083000,(-3 -6 -7 -8 -8 -4 -3 -3)
1969/12/31/18:00:12.083000,(-4 -6 0 -1 -1 -3 -1 -5)
1969/12/31/18:00:12.085000,(-1 -4 -2 -3 -1 -3 -1 -2)
1969/12/31/18:00:12.085000,(-1 0 -2 -1 1 0 -3 -3)
1969/12/31/18:00:12.105000,(-1 1 -1 0 -1 0 1 0)
1969/12/31/18:00:12.105000,(-1 -2 -3 -1 0 1 -1 -1)
1969/12/31/18:00:12.107000,(-1 1 0 0 -3 -1 -3 0)
1969/12/31/18:00:12.107000,(-1 -4 -8 -5 -1 -1 0 -1)
1969/12/31/18:00:12.128000,(0 2 1 -2 -3 1 0 2)
1969/12/31/18:00:12.128000,(-2 -2 -4 -3 -3 -2 -3 -2)
1969/12/31/18:00:12.130000,(-3 -2 -2 -2 -3 -1 0 -1)
1969/12/31/18:00:12.130000,(0 1 -2 -3 0 1 1 1)
1969/12/31/18:00:12.142000,(0 -3 -3 -1 -2 -1 -2 -1)
1969/12/31/18:00:12.142000,(-3 -4 -2 0 1 0 -2 -1)
1969/12/31/18:00:12.144000,(1 -1 -11 -7 -1 -1 -1 0)
1969/12/31/18:00:12.144000,(0 5 15 9 2 1 1 -1)
1969/12/31/18:00:12.165000,(1 5 6 7 5 -1 2 2)
1969/12/31/18:00:12.165000,(-3 -5 -8 -3 -1 -1 0 -2)
1969/12/31/18:00:12.166000,(0 -3 -3 -3 -2 -1 0 2)
1969/12/31/18:00:12.166000,(-5 -9 -17 -19 -5 -2 -5 -3)
1969/12/31/18:00:12.187000,(-1 11 20 22 11 4 3 -1)
1969/12/31/18:00:12.187000,(3 -3 -4 3 -1 -1 -3 0)
1969/12/31/18:00:12.189000,(-2 -1 1 -1 -2 -1 0 0)
1969/12/31/18:00:12.189000,(2 -9 -7 -4 -3 -3 -3 -2)
1969/12/31/18:00:12.203000,(-7 -3 -2 -6 -5 -4 -2 -3)
1969/12/31/18:00:12.203000,(-1 -3 -5 -4 -1 -1 1 -1)
1969/12/31/18:00:12.205000,(1 2 7 4 0 1 0 1)
1969/12/31/18:00:12.205000,(-3 -1 -1 -2 0 -2 -1 0)
1969/12/31/18:00:12.241000,(2 -2 -4 -5 -4 -2 -2 -4)
1969/12/31/18:00:12.241000,(1 4 4 1 1 -1 2 2)
1969/12/31/18:00:12.243000,(-3 -7 -6 -7 -3 -1 -2 -2)
1969/12/31/18:00:12.243000,(-2 2 1 4 2 0 0 1)
1969/12/31/18:00:12.244000,(0 -4 -7 -4 -3 -1 0 0)
1969/12/31/18:00:12.244000,(1 6 -1 -4 -2 -2 -1 1)
1969/12/31/18:00:12.247000,(-4 -4 5 2 0 -2 -3 -4)
1969/12/31/18:00:12.247000,(-2 1 -2 3 1 0 0 1)
1969/12/31/18:00:12.263000,(-2 -2 -5 -3 -2 1 -3 -2)
1969/12/31/18:00:12.263000,(-2 -1 -3 -4 -3 -2 -2 -3)
1969/12/31/18:00:12.265000,(0 3 3 1 2 0 0 0)
1969/12/31/18:00:12.265000,(0 0 -1 2 -2 -1 -1 0)
1969/12/31/18:00:12.285000,(-1 -2 -3 -4 -3 -2 -2 0)
1969/12/31/18:00:12.285000,(-2 -3 0 0 -1 -2 -1 1)
1969/12/31/18:00:12.286000,(0 3 -3 0 1 1 0 0)
1969/12/31/18:00:12.286000,(1 2 9 5 -2 -1 -1 0)
1969/12/31/18:00:12.299000,(0 0 0 -1 0 -1 1 -1)
1969/12/31/18:00:12.299000,(-4 -5 -3 -3 -1 0 -2 -5)
1969/12/31/18:00:12.330000,(-2 -5 -7 -3 -2 -1 0 -2)
1969/12/31/18:00:12.330000,(0 3 6 3 -1 1 0 0)
1969/12/31/18:00:12.331000,(0 -1 -5 -4 -4 -3 -1 -1)
1969/12/31/18:00:12.331000,(1 1 4 5 2 1 0 2)
1969/12/31/18:00:12.333000,(-3 -5 -1 -2 0 -2 -1 -1)
1969/12/31/18:00:12.333000,(3 6 -1 -4 -1 -2 -1 2)
1969/12/31/18:00:12.352000,(-5 -7 -3 -2 -1 0 -4 -4)
1969/12/31/18:00:12.352000,(-1 -4 -5 0 1 1 1 -3)
1969/12/31/18:00:12.354000,(-2 0 4 0 -2 -3 -3 0)
1969/12/31/18:00:12.354000,(-3 0 -3 1 -1 -1 -1 -1)
1969/12/31/18:00:12.367000,(1 3 1 0 -1 1 0 1)
1969/12/31/18:00:12.367000,(-2 -4 -5 -3 -3 -1 -1 0)
1969/12/31/18:00:12.369000,(0 5 12 9 1 1 -1 -2)
1969/12/31/18:00:12.369000,(0 0 -1 -1 -1 0 1 2)
1969/12/31/18:00:12.383000,(4 0 -3 -3 -1 -2 -1 -2)
1969/12/31/18:00:12.383000,(-6 -9 -7 -7 -2 -2 -3 -1)
1969/12/31/18:00:12.384000,(1 1 -3 -3 -2 -1 0 0)
1969/12/31/18:00:12.384000,(-6 -4 -2 1 2 2 1 -2)
1969/12/31/18:00:12.405000,(-3 -2 3 1 1 -1 1 1)
1969/12/31/18:00:12.406000,(2 1 1 2 -1 -2 -1 1)
1969/12/31/18:00:12.407000,(-4 -2 -6 -4 0 -2 -1 -1)
1969/12/31/18:00:12.407000,(3 5 4 2 1 1 -1 1)
1969/12/31/18:00:12.419000,(-4 -4 -7 -3 0 0 -3 -3)
1969/12/31/18:00:12.419000,(-2 0 0 0 -1 0 -1 -2)
1969/12/31/18:00:12.419000,(1 0 -2 0 2 0 2 3)
1969/12/31/18:00:12.419000,(2 4 3 -1 -2 -1 0 2)
1969/12/31/18:00:12.421000,(-1 0 -1 0 -1 0 1 0)
1969/12/31/18:00:12.421000,(-2 -2 0 2 2 0 -4 -1)
1969/12/31/18:00:12.432000,(0 0 0 2 1 -1 -1 0)
1969/12/31/18:00:12.432000,(-3 -1 5 3 0 0 -1 -1)
1969/12/31/18:00:12.442000,(0 3 0 -1 -4 -2 -4 -1)
1969/12/31/18:00:12.442000,(-2 -5 -1 1 1 0 1 0)
1969/12/31/18:00:12.464000,(1 3 4 3 0 0 -1 2)
1969/12/31/18:00:12.464000,(0 -2 1 -1 -3 -3 0 1)
1969/12/31/18:00:12.466000,(-1 -4 -7 -4 -1 1 -3 -1)
1969/12/31/18:00:12.466000,(0 0 2 0 -1 0 -1 -3)
1969/12/31/18:00:12.479000,(-2 -2 -5 -6 -2 -2 -1 -1)
1969/12/31/18:00:12.479000,(1 6 2 5 2 0 0 0)
1969/12/31/18:00:12.481000,(0 -1 -3 -9 -4 -1 0 -1)
1969/12/31/18:00:12.481000,(-4 -7 1 3 -1 -2 -3 -3)
1969/12/31/18:00:12.493000,(0 -1 -3 2 4 1 0 -2)
1969/12/31/18:00:12.493000,(2 4 -5 -20 -7 -2 0 0)
1969/12/31/18:00:12.501000,(-5 -7 0 15 -1 -3 -3 -4)
1969/12/31/18:00:12.501000,(-4 -4 -20 -32 -6 -1 -1 0)
1969/12/31/18:00:12.516000,(1 4 11 14 2 0 -1 0)
1969/12/31/18:00:12.516000,(1 -1 12 22 7 3 2 1)
1969/12/31/18:00:12.522000,(0 -6 -15 -23 -5 -2 0 -1)
1969/12/31/18:00:12.522000,(-2 -3 -8 -8 -7 -5 -4 -3)
1969/12/31/18:00:12.546000,(-6 -6 -2 4 -4 -2 -3 -1)
1969/12/31/18:00:12.546000,(2 7 15 1 9 4 -1 0)
1969/12/31/18:00:12.548000,(-1 -2 11 28 2 1 1 0)
1969/12/31/18:00:12.548000,(4 7 2 9 14 4 3 1)
1969/12/31/18:00:12.561000,(0 0 10 2 -3 -2 0 0)
1969/12/31/18:00:12.561000,(-4 -8 -21 17 -3 -3 0 -1)
1969/12/31/18:00:12.563000,(4 5 7 0 12 3 3 4)
1969/12/31/18:00:12.563000,(2 5 28 11 -2 3 3 3)
1969/12/31/18:00:12.576000,(-1 9 20 11 2 -4 -5 -5)
1969/12/31/18:00:12.576000,(-9 -14 -32 -57 -34 -9 -3 -4)
1969/12/31/18:00:12.584000,(-5 -7 -24 -62 -48 -14 -9 -8)
1969/12/31/18:00:12.584000,(4 23 46 77 86 12 2 -3)
1969/12/31/18:00:12.599000,(1 7 5 2 -26 -4 -16 -11)
1969/12/31/18:00:12.599000,(-5 -3 -5 13 41 6 -2 -5)
1969/12/31/18:00:12.601000,(-2 2 0 1 2 -6 -3 -4)
1969/12/31/18:00:12.601000,(-6 -15 -33 -30 -33 -5 -3 0)
1969/12/31/18:00:12.621000,(0 2 8 -6 28 3 -10 -3)
1969/12/31/18:00:12.621000,(0 -10 -12 -16 -11 -3 0 3)
1969/12/31/18:00:12.623000,(-8 -4 -44 -46 -22 -6 -7 -12)
1969/12/31/18:00:12.623000,(2 4 6 13 -15 -7 -3 -6)
1969/12/31/18:00:12.635000,(4 6 32 53 21 7 11 8)
1969/12/31/18:00:12.635000,(-1 5 -1 -11 -18 -3 -2 -3)
1969/12/31/18:00:12.644000,(1 -6 26 26 13 7 5 6)
1969/12/31/18:00:12.644000,(-2 -5 -70 -52 -17 -6 -4 2)
1969/12/31/18:00:12.666000,(1 6 56 27 1 3 3 3)
1969/12/31/18:00:12.666000,(-9 -14 -28 -70 -17 -4 -7 -8)
1969/12/31/18:00:12.668000,(1 0 22 49 16 5 10 10)
1969/12/31/18:00:12.668000,(-6 -14 -17 1 -5 -2 -2 -4)
1969/12/31/18:00:12.681000,(-1 -7 -29 -13 -6 -4 -1 -2)
1969/12/31/18:00:12.681000,(4 9 21 18 4 -1 0 -2)
1969/12/31/18:00:12.683000,(-2 -3 6 7 14 5 4 4)
1969/12/31/18:00:12.683000,(-4 -5 -16 -22 -15 -5 -3 -6)
1969/12/31/18:00:12.696000,(2 -4 -10 -24 -5 4 8 7)
1969/12/31/18:00:12.696000,(5 11 13 18 -4 -7 -10 -10)
1969/12/31/18:00:12.704000,(2 5 0 9 7 1 -1 1)
1969/12/31/18:00:12.704000,(1 -1 -1 -32 -17 -5 -1 2)
1969/12/31/18:00:12.719000,(-11 -15 -29 0 -1 -1 5 3)
1969/12/31/18:00:12.719000,(2 2 12 20 7 2 -1 -2)
1969/12/31/18:00:12.720000,(-1 0 3 -8 0 -2 -3 -3)
1969/12/31/18:00:12.720000,(-2 -3 -6 16 -1 -2 -2 -3)
1969/12/31/18:00:12.741000,(-2 -9 -1 -17 -1 1 6 6)
1969/12/31/18:00:12.741000,(4 2 12 20 4 1 1 4)
1969/12/31/18:00:12.743000,(4 2 2 8 5 2 0 0)
1969/12/31/18:00:12.743000,(0 0 3 -13 -7 -2 1 2)
1969/12/31/18:00:12.755000,(3 3 -29 -26 -10 -5 -2 0)
1969/12/31/18:00:12.755000,(3 10 -4 12 1 1 4 3)
1969/12/31/18:00:12.764000,(1 5 16 -9 -5 -4 -3 -2)
1969/12/31/18:00:12.764000,(0 8 20 18 0 1 1 1)
1969/12/31/18:00:12.779000,(-3 -4 -15 -5 2 0 -1 -3)
1969/12/31/18:00:12.779000,(-1 -1 7 1 2 0 2 3)
1969/12/31/18:00:12.780000,(-2 -7 -14 -9 -2 -2 -2 -3)
1969/12/31/18:00:12.780000,(-3 -5 14 8 2 3 2 2)
1969/12/31/18:00:12.801000,(-3 -5 -8 -4 -11 -4 -3 -5)
1969/12/31/18:00:12.801000,(-4 -11 -10 -3 -1 2 1 0)
1969/12/31/18:00:12.803000,(-4 -3 -2 2 -2 -2 -1 -2)
1969/12/31/18:00:12.803000,(-4 -4 10 14 3 1 0 -2)
1969/12/31/18:00:12.816000,(-2 -3 -10 -12 -6 -3 -4 -5)
1969/12/31/18:00:12.816000,(-5 -6 -4 -2 -3 -1 -1 1)
1969/12/31/18:00:12.832000,(-2 -1 1 6 2 1 -1 -1)
1969/12/31/18:00:12.832000,(-5 -5 7 -2 0 -1 -3 -4)
1969/12/31/18:00:12.839000,(2 8 -7 -9 -1 -2 -3 -4)
1969/12/31/18:00:12.839000,(14 4 3 4 0 0 3 6)
1969/12/31/18:00:12.840000,(-4 1 6 6 3 0 0 1)
1969/12/31/18:00:12.840000,(1 1 1 -4 -3 -3 -2 -2)
1969/12/31/18:00:12.862000,(-31 -29 -23 -14 -6 -5 -6 -12)
1969/12/31/18:00:12.862000,(-7 -5 -1 4 3 -1 -1 -4)
1969/12/31/18:00:12.863000,(5 2 1 -2 0 0 1 4)
1969/12/31/18:00:12.863000,(-5 8 8 3 3 2 2 0)
1969/12/31/18:00:12.875000,(44 10 -4 -3 -1 -3 -4 5)
1969/12/31/18:00:12.875000,(-16 -17 -5 -5 -2 -3 -4 -5)
1969/12/31/18:00:12.884000,(-34 -9 -8 -7 -4 -4 -7 -9)
1969/12/31/18:00:12.884000,(-15 -12 2 4 1 3 0 -2)
1969/12/31/18:00:12.899000,(4 11 3 0 1 -1 -1 0)
1969/12/31/18:00:12.899000,(12 1 -5 -3 -2 -1 2 5)
1969/12/31/18:00:12.900000,(21 9 2 3 0 1 5 9)
1969/12/31/18:00:12.900000,(1 -3 0 0 -2 -5 -4 -6)
1969/12/31/18:00:12.922000,(-2 8 5 2 -1 2 2 3)
1969/12/31/18:00:12.922000,(-1 0 1 1 0 0 -3 -3)
1969/12/31/18:00:12.923000,(-17 -6 -2 0 -1 0 -2 -8)
1969/12/31/18:00:12.923000,(22 5 2 -1 -1 1 2 13)
1969/12/31/18:00:12.935000,(17 1 -3 -3 1 1 3 4)
1969/12/31/18:00:12.935000,(-8 -1 2 2 0 0 -2 -2)
1969/12/31/18:00:12.944000,(-23 -8 -4 -4 0 -4 -4 -7)
1969/12/31/18:00:12.944000,(-14 -8 3 3 1 1 3 1)
1969/12/31/18:00:12.974000,(-4 -6 -8 -7 -2 -7 -14 -9)
1969/12/31/18:00:12.974000,(23 20 9 6 3 4 7 9)
1969/12/31/18:00:12.975000,(-8 -10 -2 -5 -4 -3 -6 -19)
1969/12/31/18:00:12.975000,(27 -9 -15 -14 -8 -7 11 39)
1969/12/31/18:00:12.981000,(-14 -3 5 4 3 5 5 1)
1969/12/31/18:00:12.981000,(-12 -1 2 2 1 4 5 -1)
1969/12/31/18:00:12.983000,(11 1 1 -1 -4 -17 -23 -10)
1969/12/31/18:00:12.983000,(4 0 -4 -3 1 14 23 4)
1969/12/31/18:00:12.995000,(-9 -3 -2 0 -3 -6 -8 -12)
1969/12/31/18:00:12.995000,(7 -11 -7 -4 -3 1 5 11)
1969/12/31/18:00:13.004000,(7 6 1 2 2 0 2 2)
1969/12/31/18:00:13.004000,(7 6 3 2 0 -2 -8 -7)
1969/12/31/18:00:13.019000,(-18 13 4 4 2 4 4 -1)
1969/12/31/18:00:13.019000,(1 -13 3 2 0 -1 -2 9)
1969/12/31/18:00:13.021000,(-8 -25 -12 -6 -5 -5 -8 -3)
1969/12/31/18:00:13.021000,(-2 24 2 0 -4 -11 -13 -22)
1969/12/31/18:00:13.042000,(3 18 1 -4 0 6 -2 5)
1969/12/31/18:00:13.042000,(-38 -45 -12 -5 -5 -11 0 -17)
1969/12/31/18:00:13.043000,(15 17 16 8 5 13 6 6)
1969/12/31/18:00:13.043000,(9 -15 -16 -4 -2 -2 -17 6)
1969/12/31/18:00:13.055000,(3 3 5 0 -2 -7 -7 -14)
1969/12/31/18:00:13.055000,(-23 -1 -4 -3 -2 8 2 -12)
1969/12/31/18:00:13.064000,(-9 -6 -8 -5 -3 -10 -7 -2)
1969/12/31/18:00:13.064000,(0 5 7 3 2 0 0 -8)
1969/12/31/18:00:13.079000,(14 1 2 1 -1 0 4 7)
1969/12/31/18:00:13.079000,(3 10 0 -3 1 1 -5 -1)
1969/12/31/18:00:13.081000,(10 6 3 2 2 8 11 12)
1969/12/31/18:00:13.081000,(-19 2 1 -1 -1 -5 -8 -24)
1969/12/31/18:00:13.101000,(11 -9 -5 -3 -2 -2 0 20)
1969/12/31/18:00:13.101000,(-5 -3 -7 -5 -4 -5 0 -2)
1969/12/31/18:00:13.103000,(-10 -13 -4 -2 1 4 6 7)
1969/12/31/18:00:13.103000,(8 7 -2 -3 -2 1 -3 1)
1969/12/31/18:00:13.115000,(-4 -15 -3 2 1 1 5 2)
1969/12/31/18:00:13.115000,(7 16 -1 -4 -6 -6 -10 -10)
1969/12/31/18:00:13.124000,(-2 5 0 1 1 1 6 -2)
1969/12/31/18:00:13.124000,(-17 -20 -9 -4 -4 1 -4 2)
1969/12/31/18:00:13.139000,(1 -5 3 2 3 2 2 -4)
1969/12/31/18:00:13.139000,(-30 -5 0 0 1 -8 -4 -6)
1969/12/31/18:00:13.141000,(-4 9 1 1 -1 12 -2 -15)
1969/12/31/18:00:13.141000,(2 4 8 6 5 -1 -6 -14)
1969/12/31/18:00:13.161000,(-3 -11 -11 -8 -8 -1 0 10)
1969/12/31/18:00:13.161000,(17 8 3 0 0 10 -2 -10)
1969/12/31/18:00:13.163000,(-9 -1 -1 -2 -3 -12 -12 4)
1969/12/31/18:00:13.163000,(25 13 -1 -3 -5 -11 1 7)
1969/12/31/18:00:13.175000,(-31 -8 2 2 0 6 5 -16)
1969/12/31/18:00:13.175000,(3 6 7 5 5 4 -3 -2)
1969/12/31/18:00:13.184000,(20 -13 -14 -8 -5 1 2 16)
1969/12/31/18:00:13.184000,(-6 1 2 2 5 9 -3 4)
1969/12/31/18:00:13.198000,(-2 4 3 1 -2 -12 -11 -24)
1969/12/31/18:00:13.198000,(32 5 -5 -5 -10 -4 23 71)
1969/12/31/18:00:13.206000,(8 3 4 2 2 -9 -1 -8)
1969/12/31/18:00:13.206000,(-27 -23 -16 -15 -14 -12 -5 -25)
1969/12/31/18:00:13.221000,(37 26 13 9 14 39 41 47)
1969/12/31/18:00:13.221000,(-43 -36 -25 -16 -11 -15 -23 -33)
1969/12/31/18:00:13.223000,(-7 -14 5 9 4 -11 -20 -16)
1969/12/31/18:00:13.223000,(-1 28 11 6 4 12 1 -15)
1969/12/31/18:00:13.235000,(33 -10 -17 -11 -8 -5 20 71)
1969/12/31/18:00:13.235000,(45 24 9 5 3 14 4 25)
1969/12/31/18:00:13.250000,(29 7 -7 -5 -7 -22 19 19)
1969/12/31/18:00:13.250000,(-43 -18 7 6 3 -9 -10 -39)
1969/12/31/18:00:13.259000,(-67 8 -3 0 2 8 -12 -49)
1969/12/31/18:00:13.259000,(41 -33 -5 2 -1 -12 6 19)
1969/12/31/18:00:13.260000,(14 15 -4 -6 -2 7 -18 -2)
1969/12/31/18:00:13.260000,(-1 2 10 4 1 0 -13 4)
1969/12/31/18:00:13.282000,(-10 -18 -9 -1 -2 -11 -4 -14)
1969/12/31/18:00:13.282000,(-30 12 3 2 2 0 -9 -23)
1969/12/31/18:00:13.283000,(37 16 8 4 3 16 22 20)
1969/12/31/18:00:13.283000,(12 -1 -4 -2 -4 -12 7 23)
1969/12/31/18:00:13.295000,(9 -11 -2 -4 0 11 1 25)
1969/12/31/18:00:13.295000,(-10 5 1 1 -1 0 14 2)
1969/12/31/18:00:13.304000,(11 -2 3 4 1 -4 -7 -6)
1969/12/31/18:00:13.304000,(2 9 -6 -4 2 29 3 14)
1969/12/31/18:00:13.318000,(24 -7 -2 -3 -6 -5 19 23)
1969/12/31/18:00:13.318000,(-10 14 11 6 3 -7 -19 -29)
1969/12/31/18:00:13.325000,(22 -2 -11 -8 -7 -11 -5 14)
1969/12/31/18:00:13.325000,(-3 -7 1 0 -1 -6 -8 8)
1969/12/31/18:00:13.342000,(-38 13 10 4 5 22 1 -26)
1969/12/31/18:00:13.342000,(3 -19 -1 -1 1 -1 3 -34)
1969/12/31/18:00:13.343000,(-65 -21 -5 0 3 3 -11 -16)
1969/12/31/18:00:13.343000,(20 3 -4 -4 -5 2 15 -18)
1969/12/31/18:00:13.355000,(-16 -2 -5 -6 -7 -21 -18 -12)
1969/12/31/18:00:13.355000,(12 30 9 5 4 1 -2 4)
1969/12/31/18:00:13.364000,(-20 7 -1 -4 -7 -6 -7 -19)
1969/12/31/18:00:13.364000,(-10 -32 -1 4 6 8 6 16)
1969/12/31/18:00:13.378000,(1 -7 -4 1 5 3 6 -15)
1969/12/31/18:00:13.378000,(12 14 -7 -9 -10 -7 -9 -10)
1969/12/31/18:00:13.385000,(-41 -7 6 5 5 7 5 -2)
1969/12/31/18:00:13.385000,(0 -30 -16 -10 -10 -12 6 9)
1969/12/31/18:00:13.402000,(6 2 0 0 -4 -14 -31 -21)
1969/12/31/18:00:13.402000,(7 -3 1 2 2 0 12 34)
1969/12/31/18:00:13.403000,(-17 4 -2 -1 -2 21 -7 -35)
1969/12/31/18:00:13.403000,(-17 2 -2 0 -3 -17 -3 3)
1969/12/31/18:00:13.415000,(17 -5 -2 -1 -3 -8 -3 10)
1969/12/31/18:00:13.415000,(-19 1 4 2 6 13 6 -6)
1969/12/31/18:00:13.424000,(-11 -1 5 2 2 -4 1 12)
1969/12/31/18:00:13.424000,(-31 -1 -1 -2 -2 -10 -20 -55)
1969/12/31/18:00:13.438000,(30 -18 -11 -8 -6 -12 -4 9)
1969/12/31/18:00:13.438000,(15 21 1 2 2 -2 -9 0)
1969/12/31/18:00:13.445000,(21 18 8 2 0 1 19 17)
1969/12/31/18:00:13.445000,(43 27 12 3 2 6 4 32)
1969/12/31/18:00:13.461000,(-32 -19 -9 -4 -4 -5 5 -5)
1969/12/31/18:00:13.461000,(-66 -19 1 2 4 2 -6 -19)
1969/12/31/18:00:13.463000,(50 -8 -13 -6 -4 -6 2 26)
1969/12/31/18:00:13.463000,(23 42 18 3 -2 -1 7 19)
1969/12/31/18:00:13.484000,(-18 -31 -21 -14 -8 -4 -11 -17)
1969/12/31/18:00:13.485000,(-22 18 19 17 18 25 -5 -16)
1969/12/31/18:00:13.486000,(3 -21 -12 -8 -8 -8 -4 -33)
1969/12/31/18:00:13.486000,(-12 6 3 5 3 5 1 3)
1969/12/31/18:00:13.498000,(-51 -3 0 -1 -2 9 17 -56)
1969/12/31/18:00:13.498000,(-20 -13 -13 -12 -10 2 -21 -21)
1969/12/31/18:00:13.505000,(10 6 0 -2 1 -2 15 27)
1969/12/31/18:00:13.505000,(10 3 4 5 4 10 -10 -6)
1969/12/31/18:00:13.521000,(16 1 -1 1 0 3 21 35)
1969/12/31/18:00:13.521000,(7 -6 -9 -6 -5 -10 -2 23)
1969/12/31/18:00:13.529000,(-12 -3 -5 -6 -5 1 -10 -20)
1969/12/31/18:00:13.529000,(4 6 7 3 3 -13 -13 -9)
1969/12/31/18:00:13.544000,(0 4 0 -1 0 -3 1 17)
1969/12/31/18:00:13.544000,(29 9 -4 -5 1 11 52 36)
1969/12/31/18:00:13.546000,(-3 -11 -7 -7 -7 -21 1 8)
1969/12/31/18:00:13.546000,(4 6 8 6 9 14 5 6)
1969/12/31/18:00:13.558000,(-40 -3 7 4 1 -15 -35 -17)
1969/12/31/18:00:13.558000,(12 -24 -15 -9 -7 -10 -7 -13)
1969/12/31/18:00:13.565000,(61 39 15 7 5 7 18 50)
1969/12/31/18:00:13.565000,(19 13 -3 -2 1 0 3 4)
1969/12/31/18:00:13.582000,(4 5 6 4 1 15 -12 6)
1969/12/31/18:00:13.582000,(-69 -41 -13 -11 -13 -31 -32 -69)
1969/12/31/18:00:13.583000,(21 14 10 10 9 13 -1 23)
1969/12/31/18:00:13.583000,(-70 -21 -6 -7 -2 -5 3 -31)
1969/12/31/18:00:13.604000,(42 5 -4 -4 -4 -3 4 7)
1969/12/31/18:00:13.604000,(-9 14 11 10 4 2 -20 -18)
1969/12/31/18:00:13.606000,(-16 -13 -8 -7 -11 -16 -7 -37)
1969/12/31/18:00:13.606000,(-44 -26 -11 -5 -7 -7 20 14)
1969/12/31/18:00:13.618000,(31 18 5 0 2 11 13 3)
1969/12/31/18:00:13.618000,(54 10 2 0 3 8 12 50)
1969/12/31/18:00:13.627000,(-38 6 8 5 1 -4 -12 -31)
1969/12/31/18:00:13.627000,(26 28 10 4 -1 -9 -9 -24)
1969/12/31/18:00:13.641000,(-6 -9 -11 -6 -11 -32 13 64)
1969/12/31/18:00:13.641000,(0 -17 -9 0 25 32 81 34)
1969/12/31/18:00:13.643000,(37 6 0 1 -5 -8 -83 11)
1969/12/31/18:00:13.643000,(-27 -43 -35 -24 -27 -33 37 -53)
1969/12/31/18:00:13.664000,(-65 13 13 6 1 -21 -33 -46)
1969/12/31/18:00:13.664000,(32 3 0 -3 -8 -15 -6 -17)
1969/12/31/18:00:13.665000,(-33 -9 -4 -4 7 20 21 1)
1969/12/31/18:00:13.665000,(36 16 6 5 6 15 7 5)
1969/12/31/18:00:13.678000,(-3 6 14 7 7 0 -10 -43)
1969/12/31/18:00:13.678000,(-39 -8 -2 -2 -8 -27 -41 -4)
1969/12/31/18:00:13.694000,(39 8 -1 0 0 6 14 -3)
1969/12/31/18:00:13.694000,(6 9 10 9 5 6 -12 -10)
1969/12/31/18:00:13.701000,(64 0 -9 -4 -2 5 51 33)
1969/12/31/18:00:13.701000,(40 52 22 11 16 25 -40 32)
1969/12/31/18:00:13.703000,(2 -23 4 10 4 -1 11 79)
1969/12/31/18:00:13.703000,(-84 -61 -29 -15 -4 -16 -40 -67)
1969/12/31/18:00:13.724000,(62 22 0 5 16 2 -21 27)
1969/12/31/18:00:13.724000,(30 1 6 2 -11 5 5 -8)
1969/12/31/18:00:13.725000,(-4 13 -8 -23 -24 -14 4 -17)
1969/12/31/18:00:13.725000,(52 33 21 8 5 31 25 67)
1969/12/31/18:00:13.737000,(-6 -51 -21 -3 4 42 40 17)
1969/12/31/18:00:13.737000,(-30 6 -5 -7 -3 -31 -42 -22)
1969/12/31/18:00:13.746000,(-41 -20 -6 6 12 12 4 -26)
1969/12/31/18:00:13.746000,(78 55 13 3 -1 -1 -1 61)
1969/12/31/18:00:13.762000,(-23 -17 0 7 16 18 10 -23)
1969/12/31/18:00:13.762000,(52 -11 -7 -5 -19 -25 16 71)
1969/12/31/18:00:13.763000,(-35 -2 2 0 2 -13 -13 -51)
1969/12/31/18:00:13.763000,(-8 -14 0 -4 -4 24 -2 14)
1969/12/31/18:00:13.784000,(22 17 -2 -15 -21 -12 -20 -14)
1969/12/31/18:00:13.784000,(-41 -3 -2 8 20 3 8 -7)
1969/12/31/18:00:13.785000,(-48 -46 -9 -11 -23 -21 -31 -54)
1969/12/31/18:00:13.785000,(11 -28 -10 4 -1 -15 1 36)
1969/12/31/18:00:13.798000,(6 21 12 5 13 -16 -32 -28)
1969/12/31/18:00:13.798000,(-20 -16 -8 -12 -25 -9 25 -2)
1969/12/31/18:00:13.807000,(9 5 0 4 16 30 1 22)
1969/12/31/18:00:13.807000,(-32 -14 -4 1 -6 -22 -31 -26)
1969/12/31/18:00:13.821000,(-3 -14 -7 -19 -32 9 10 2)
1969/12/31/18:00:13.821000,(7 51 9 -3 12 14 -12 -32)
1969/12/31/18:00:13.823000,(-55 -35 -7 -2 2 -31 8 -9)
1969/12/31/18:00:13.823000,(14 -18 -14 -3 14 -1 2 41)
1969/12/31/18:00:13.844000,(-21 15 6 0 -25 -6 -19 -34)
1969/12/31/18:00:13.844000,(-10 -14 -1 0 -10 -3 12 -10)
1969/12/31/18:00:13.845000,(6 -7 -7 6 6 12 14 -1)
1969/12/31/18:00:13.845000,(-12 11 3 -5 -8 -10 -16 -12)
1969/12/31/18:00:13.858000,(-27 -10 -3 7 23 -4 -12 0)
1969/12/31/18:00:13.858000,(33 3 -8 -15 -25 38 -17 -2)
1969/12/31/18:00:13.867000,(-10 -31 -14 4 -4 -14 -5 12)
1969/12/31/18:00:13.867000,(37 29 10 5 23 21 4 21)
1969/12/31/18:00:13.889000,(-16 -3 6 8 13 12 14 -9)
1969/12/31/18:00:13.889000,(37 -3 -8 -26 -48 -21 24 23)
1969/12/31/18:00:13.891000,(-38 26 4 -10 -4 -11 6 -3)
1969/12/31/18:00:13.891000,(-7 5 -9 -13 -18 -4 9 -13)
1969/12/31/18:00:13.904000,(-6 -16 -9 6 18 -37 -54 -48)
1969/12/31/18:00:13.904000,(-25 -12 3 4 -2 24 1 -14)
1969/12/31/18:00:13.905000,(20 8 1 -2 8 43 25 22)
1969/12/31/18:00:13.905000,(1 22 11 11 12 2 6 0)
1969/12/31/18:00:13.918000,(-18 -19 -9 -10 -16 -7 19 2)
1969/12/31/18:00:13.918000,(-27 -18 -3 14 7 -25 -9 -26)
1969/12/31/18:00:13.926000,(7 -2 1 1 -6 2 -8 -15)
1969/12/31/18:00:13.926000,(-8 -11 -11 -13 -3 -1 -15 -20)
1969/12/31/18:00:13.941000,(17 29 14 10 18 11 -1 13)
1969/12/31/18:00:13.941000,(9 -20 -6 11 13 -9 -3 13)
1969/12/31/18:00:13.943000,(17 23 5 9 8 -23 20 39)
1969/12/31/18:00:13.943000,(-16 -22 -4 1 -13 15 -1 -28)
1969/12/31/18:00:13.964000,(25 26 3 -9 3 21 17 40)
1969/12/31/18:00:13.964000,(1 -1 2 6 1 20 17 34)
1969/12/31/18:00:13.965000,(14 -19 -17 -32 -19 6 -8 -46)
1969/12/31/18:00:13.965000,(21 -28 -6 9 3 -19 5 -6)
1969/12/31/18:00:13.978000,(-40 -24 -34 -18 -5 14 1 -1)
1969/12/31/18:00:13.978000,(27 66 64 25 29 0 1 38)
1969/12/31/18:00:13.994000,(2 12 -1 18 1 -14 -12 -19)
1969/12/31/18:00:13.994000,(-2 -19 -6 -21 -19 -13 10 53)
1969/12/31/18:00:14.001000,(5 -4 -12 -4 -15 -25 -4 -19)
1969/12/31/18:00:14.001000,(12 -85 -39 11 69 46 -1 25)
1969/12/31/18:00:14.003000,(14 93 58 -1 -33 -32 -19 -27)
1969/12/31/18:00:14.003000,(-20 8 36 13 11 17 5 -34)
1969/12/31/18:00:14.024000,(3 1 -44 -15 -24 -46 -11 15)
1969/12/31/18:00:14.024000,(-36 27 73 22 7 -5 -3 -29)
1969/12/31/18:00:14.025000,(-5 -48 -40 -11 12 29 9 -32)
1969/12/31/18:00:14.025000,(-12 11 -9 -2 7 -10 -30 -37)
1969/12/31/18:00:14.037000,(-30 -82 -39 -22 -17 6 -8 -18)
1969/12/31/18:00:14.037000,(-87 53 14 7 -5 -42 7 -62)
1969/12/31/18:00:14.046000,(46 -55 -76 -48 -59 -14 -9 18)
1969/12/31/18:00:14.046000,(-72 82 64 38 66 63 7 -44)
1969/12/31/18:00:14.061000,(72 83 62 32 1 1 8 9)
1969/12/31/18:00:14.061000,(23 -28 -19 -8 -17 14 12 46)
1969/12/31/18:00:14.061000,(-23 -96 -76 -9 7 -10 2 38)
1969/12/31/18:00:14.061000,(-12 -5 -70 -42 -36 -28 -2 -6)
1969/12/31/18:00:14.083000,(-5 66 89 29 10 7 1 27)
1969/12/31/18:00:14.083000,(52 -52 -57 -18 3 -6 17 61)
1969/12/31/18:00:14.084000,(19 101 90 19 3 -1 -24 -12)
1969/12/31/18:00:14.084000,(1 -49 -21 3 -18 -5 17 -5)
1969/12/31/18:00:14.106000,(-19 -85 -60 -18 -3 -11 -9 -5)
1969/12/31/18:00:14.106000,(59 55 -13 -4 11 11 -8 -7)
1969/12/31/18:00:14.106000,(10 37 46 -4 -8 11 6 5)
1969/12/31/18:00:14.106000,(43 -18 -13 -1 9 17 13 19)
1969/12/31/18:00:14.121000,(-3 -31 -24 6 13 -3 -3 -10)
1969/12/31/18:00:14.121000,(-22 -18 -12 5 -1 -25 -39 -27)
1969/12/31/18:00:14.121000,(-18 -109 -77 -33 -10 40 66 44)
1969/12/31/18:00:14.121000,(17 91 40 3 -28 -31 7 79)
1969/12/31/18:00:14.143000,(-33 5 37 31 30 8 -10 -54)
1969/12/31/18:00:14.143000,(-45 -120 -109 -37 -31 8 -1 -22)
1969/12/31/18:00:14.144000,(-6 75 40 27 34 22 -11 -20)
1969/12/31/18:00:14.144000,(-1 -128 -109 -29 -25 -34 6 17)
1969/12/31/18:00:14.166000,(22 61 14 -8 15 26 17 67)
1969/12/31/18:00:14.166000,(10 61 44 -2 -18 -23 -40 -101)
1969/12/31/18:00:14.166000,(14 51 33 26 19 4 24 64)
1969/12/31/18:00:14.166000,(-30 -105 -64 -16 -9 -12 -22 -40)
1969/12/31/18:00:14.181000,(2 71 -27 -22 -25 -19 -17 -25)
1969/12/31/18:00:14.181000,(4 2 72 50 56 42 29 43)
1969/12/31/18:00:14.182000,(53 0 -32 -8 1 -4 -22 -35)
1969/12/31/18:00:14.182000,(-38 -5 -15 -18 -29 6 16 -19)
1969/12/31/18:00:14.203000,(-41 -64 7 5 1 -15 -8 -25)
1969/12/31/18:00:14.203000,(31 -6 -44 -40 -29 2 15 52)
1969/12/31/18:00:14.204000,(-23 -38 -34 1 4 -10 15 20)
1969/12/31/18:00:14.204000,(30 69 94 50 27 -18 -18 -4)
1969/12/31/18:00:14.226000,(32 -65 -94 -29 -2 39 30 81)
1969/12/31/18:00:14.226000,(-23 104 102 33 -5 -1 22 -8)
1969/12/31/18:00:14.226000,(-2 -40 -14 6 7 -3 -6 -7)
1969/12/31/18:00:14.226000,(26 4 -37 -29 -12 -14 -12 3)
1969/12/31/18:00:14.241000,(-1 13 21 7 -9 -10 -2 -12)
1969/12/31/18:00:14.241000,(3 -51 -29 -3 -5 -12 0 7)
1969/12/31/18:00:14.241000,(6 -19 -11 -7 -5 -14 -17 14)
1969/12/31/18:00:14.241000,(-17 -47 -65 -7 20 3 17 60)
1969/12/31/18:00:14.263000,(18 77 92 14 -38 -5 -6 -26)
1969/12/31/18:00:14.263000,(-74 -103 -89 -46 -16 4 11 -16)
1969/12/31/18:00:14.264000,(6 127 115 39 16 10 16 16)
1969/12/31/18:00:14.264000,(5 -50 -21 -1 1 -5 -16 -35)
1969/12/31/18:00:14.286000,(17 -26 -34 -3 1 -10 -12 16)
1969/12/31/18:00:14.286000,(6 13 29 37 41 16 -10 1)
1969/12/31/18:00:14.286000,(-12 -103 -70 -44 -36 -1 -6 12)
1969/12/31/18:00:14.286000,(-39 20 12 -7 -4 14 -12 -64)
1969/12/31/18:00:14.302000,(-52 -106 -38 -18 -12 -10 6 -10)
1969/12/31/18:00:14.302000,(19 36 -43 -21 -15 -38 -31 -24)
1969/12/31/18:00:14.303000,(-4 78 90 43 39 27 -2 -18)
1969/12/31/18:00:14.303000,(-21 -11 7 2 -8 4 2 -9)
1969/12/31/18:00:14.323000,(44 -33 -11 7 15 15 -10 -5)
1969/12/31/18:00:14.323000,(-21 -9 -40 -11 -1 -22 -2 -10)
1969/12/31/18:00:14.324000,(-5 -66 -55 -9 -21 -32 -9 -44)
1969/12/31/18:00:14.324000,(43 29 45 21 8 20 11 53)
1969/12/31/18:00:14.346000,(12 30 11 -3 -6 14 10 26)
1969/12/31/18:00:14.346000,(10 -31 -20 -13 -18 1 11 18)
1969/12/31/18:00:14.346000,(12 -73 -67 -21 -7 -19 -27 15)
1969/12/31/18:00:14.346000,(32 82 65 23 1 13 36 56)
1969/12/31/18:00:14.362000,(-14 -34 -42 -19 -11 -28 -20 -33)
1969/12/31/18:00:14.362000,(13 -5 0 -2 -3 -2 -2 -1)
1969/12/31/18:00:14.363000,(-22 59 77 30 5 -8 -14 -38)
1969/12/31/18:00:14.363000,(-10 -94 -84 -38 -13 -18 -25 -14)
1969/12/31/18:00:14.383000,(-66 83 99 50 34 15 -1 -41)
1969/12/31/18:00:14.383000,(-11 -24 8 -5 -14 -4 -6 -18)
1969/12/31/18:00:14.384000,(-29 0 -12 -1 4 -2 11 -1)
1969/12/31/18:00:14.384000,(-1 -26 -21 2 21 11 -15 -27)
1969/12/31/18:00:14.406000,(-23 -58 -52 -35 -41 -14 -8 -14)
1969/12/31/18:00:14.406000,(24 76 52 15 10 3 -4 -20)
1969/12/31/18:00:14.406000,(24 -11 -9 8 4 7 12 16)
1969/12/31/18:00:14.406000,(5 38 33 9 17 17 12 12)
1969/12/31/18:00:14.422000,(9 -31 -24 -19 -16 -19 -12 2)
1969/12/31/18:00:14.422000,(-29 -79 -49 -9 13 13 4 17)
1969/12/31/18:00:14.423000,(-15 -33 -28 -4 7 16 4 -16)
1969/12/31/18:00:14.423000,(3 61 -16 -30 -25 -20 -10 0)
1969/12/31/18:00:14.445000,(-43 -3 24 26 21 3 -5 -29)
1969/12/31/18:00:14.445000,(25 -13 -33 -12 0 -12 -6 8)
1969/12/31/18:00:14.445000,(-7 115 106 23 -20 0 15 24)
1969/12/31/18:00:14.445000,(-21 -1 17 -6 -23 -21 7 5)
1969/12/31/18:00:14.466000,(44 -1 -15 -11 3 24 5 16)
1969/12/31/18:00:14.466000,(4 -52 -37 -7 3 -3 -4 10)
1969/12/31/18:00:14.466000,(5 -33 -45 -17 -20 -20 -1 18)
1969/12/31/18:00:14.466000,(34 8 8 8 6 0 -12 -12)
1969/12/31/18:00:14.481000,(4 34 12 -2 -21 -27 2 -16)
1969/12/31/18:00:14.481000,(23 -67 -18 -4 21 28 12 25)
1969/12/31/18:00:14.481000,(-47 -10 -41 -20 -1 7 -13 -20)
1969/12/31/18:00:14.481000,(30 86 104 42 6 -4 -6 -33)
1969/12/31/18:00:14.511000,(-33 -67 -73 -20 -2 -14 -6 8)
1969/12/31/18:00:14.511000,(28 105 90 26 -5 6 13 3)
1969/12/31/18:00:14.512000,(-5 -29 20 16 11 2 -11 -22)
1969/12/31/18:00:14.512000,(66 -18 -32 2 12 11 -4 16)
1969/12/31/18:00:14.526000,(-45 24 75 13 4 -3 3 2)
1969/12/31/18:00:14.526000,(-40 -107 -73 -11 -32 -46 -22 -29)
1969/12/31/18:00:14.526000,(14 34 2 -15 7 42 -10 -17)
1969/12/31/18:00:14.526000,(-32 53 80 27 31 28 27 -5)
1969/12/31/18:00:14.541000,(-2 -122 -116 -20 11 -11 7 27)
1969/12/31/18:00:14.541000,(29 127 69 -11 -45 -18 -2 21)
1969/12/31/18:00:14.541000,(-14 -20 -8 3 7 -6 10 20)
1969/12/31/18:00:14.541000,(-6 -11 -13 -2 -2 10 5 0)
1969/12/31/18:00:14.563000,(-2 -39 -31 35 47 19 36 15)
1969/12/31/18:00:14.563000,(-19 110 102 -6 1 -1 -14 -7)
1969/12/31/18:00:14.564000,(-5 -91 -86 -19 -13 -30 -3 -1)
1969/12/31/18:00:14.564000,(-3 34 34 15 2 16 -3 -6)
1969/12/31/18:00:14.585000,(-37 -66 -58 -26 -25 -13 -16 -29)
1969/12/31/18:00:14.585000,(0 -101 -71 4 26 20 11 3)
1969/12/31/18:00:14.586000,(10 75 60 22 -1 -20 -4 -10)
1969/12/31/18:00:14.586000,(-45 -94 -72 -11 -4 -14 -12 -27)
1969/12/31/18:00:14.601000,(18 53 44 13 -4 17 -1 -10)
1969/12/31/18:00:14.601000,(-18 -128 -121 -33 -3 17 3 2)
1969/12/31/18:00:14.601000,(10 76 76 26 9 -9 -17 -31)
1969/12/31/18:00:14.601000,(-17 -50 -26 3 6 -13 -16 -28)
1969/12/31/18:00:14.623000,(17 -10 -3 -10 2 22 19 4)
1969/12/31/18:00:14.623000,(24 71 28 2 -17 -23 -6 6)
1969/12/31/18:00:14.624000,(1 -33 -37 -16 10 17 4 5)
1969/12/31/18:00:14.624000,(-7 -2 18 22 13 -7 -3 4)
1969/12/31/18:00:14.646000,(7 -65 -56 -41 -16 1 -21 -20)
1969/12/31/18:00:14.646000,(-22 22 -4 5 -1 -21 -12 -30)
1969/12/31/18:00:14.653000,(-5 30 28 20 33 9 5 17)
1969/12/31/18:00:14.653000,(-8 -5 16 -9 -10 26 11 0)
1969/12/31/18:00:14.661000,(35 54 32 -12 -26 -16 -8 3)
1969/12/31/18:00:14.661000,(-20 -60 -37 3 16 18 5 -16)
1969/12/31/18:00:14.661000,(-17 -26 -2 13 20 -14 0 12)
1969/12/31/18:00:14.661000,(7 -34 -55 -38 -48 -28 -19 -18)
1969/12/31/18:00:14.683000,(4 2 -16 -9 2 14 16 13)
1969/12/31/18:00:14.683000,(-3 34 23 19 15 9 -4 -20)
1969/12/31/18:00:14.684000,(-21 18 40 8 0 5 4 -27)
1969/12/31/18:00:14.684000,(14 -41 -38 1 9 -5 2 23)
1969/12/31/18:00:14.706000,(16 91 60 15 -4 -9 -7 -17)
1969/12/31/18:00:14.706000,(-15 75 88 27 7 0 11 30)
1969/12/31/18:00:14.707000,(1 -128 -128 -52 -28 -5 6 9)
1969/12/31/18:00:14.707000,(10 48 -17 -11 -10 -5 2 42)
1969/12/31/18:00:14.721000,(18 50 83 46 23 -12 0 31)
1969/12/31/18:00:14.721000,(13 -53 -36 -13 0 21 -2 5)
1969/12/31/18:00:14.722000,(11 -29 -9 -6 -11 -3 8 19)
1969/12/31/18:00:14.722000,(-4 -47 -22 8 35 -13 11 18)
1969/12/31/18:00:14.743000,(10 -30 -47 -9 20 21 6 16)
1969/12/31/18:00:14.743000,(68 46 27 -15 -63 1 5 25)
1969/12/31/18:00:14.744000,(-18 -56 -49 -43 -38 -20 -13 -15)
1969/12/31/18:00:14.744000,(18 81 38 15 26 -4 -11 -20)
1969/12/31/18:00:14.766000,(-1 110 105 28 4 -2 -6 -23)
1969/12/31/18:00:14.766000,(35 63 59 41 24 3 11 35)
1969/12/31/18:00:14.766000,(8 -22 -10 -3 -8 11 1 -14)
1969/12/31/18:00:14.766000,(-9 -76 -35 -8 -7 -8 -4 -8)
1969/12/31/18:00:14.781000,(-32 -115 -116 -25 9 -16 -5 -5)
1969/12/31/18:00:14.781000,(1 73 43 -5 -18 -1 -13 -21)
1969/12/31/18:00:14.781000,(10 18 38 32 14 3 -5 6)
1969/12/31/18:00:14.781000,(-5 -59 -43 -9 -6 13 3 3)
1969/12/31/18:00:14.803000,(3 -26 0 6 -4 -2 16 12)
1969/12/31/18:00:14.803000,(-56 -111 -89 -41 -18 -21 -32 -52)
1969/12/31/18:00:14.804000,(5 8 -2 -8 2 -3 8 3)
1969/12/31/18:00:14.804000,(-38 -41 -19 -3 4 1 -19 -23)
1969/12/31/18:00:14.826000,(13 40 11 -5 1 13 7 16)
1969/12/31/18:00:14.826000,(-32 -89 -47 -7 10 -1 -23 -30)
1969/12/31/18:00:14.827000,(13 127 76 9 11 19 12 1)
1969/12/31/18:00:14.827000,(31 22 1 -12 -7 17 26 10)
1969/12/31/18:00:14.841000,(8 -6 2 7 -12 -31 -15 -9)
1969/12/31/18:00:14.841000,(-57 -81 -40 9 26 17 -1 -27)
1969/12/31/18:00:14.841000,(10 -56 -94 -35 -7 -8 -9 2)
1969/12/31/18:00:14.841000,(38 81 85 16 -14 -9 6 25)
1969/12/31/18:00:14.863000,(8 -5 9 5 -2 -2 -11 -24)
1969/12/31/18:00:14.863000,(6 -22 -23 -6 1 -11 5 13)
1969/12/31/18:00:14.864000,(12 -57 -33 8 21 31 15 26)
1969/12/31/18:00:14.864000,(-1 35 5 -1 -18 -14 2 -4)
1969/12/31/18:00:14.887000,(6 -3 16 8 8 10 -7 -7)
1969/12/31/18:00:14.887000,(-53 -112 -71 -25 -24 -17 -5 -12)
1969/12/31/18:00:14.888000,(0 67 61 19 9 -1 8 -7)
1969/12/31/18:00:14.888000,(-39 -53 9 2 -4 -10 -16 -25)
1969/12/31/18:00:14.901000,(17 -7 -39 -14 -21 -1 -4 10)
1969/12/31/18:00:14.901000,(-36 -36 4 -10 -10 4 22 -6)
1969/12/31/18:00:14.902000,(-1 2 -47 -10 -15 -14 -21 -13)
1969/12/31/18:00:14.902000,(11 25 31 22 12 -3 -14 -4)
1969/12/31/18:00:14.923000,(-28 -73 -37 1 1 -2 -8 -9)
1969/12/31/18:00:14.923000,(42 43 -5 -4 13 2 5 23)
1969/12/31/18:00:14.924000,(-41 21 27 1 -9 2 -7 -26)
1969/12/31/18:00:14.924000,(-4 -98 -61 -32 -18 -5 3 6)
1969/12/31/18:00:14.946000,(-18 12 -18 0 14 2 -5 -1)
1969/12/31/18:00:14.947000,(22 122 119 44 7 5 -2 -49)
1969/12/31/18:00:14.947000,(-7 -80 -36 -4 -9 -36 -8 -20)
1969/12/31/18:00:14.947000,(-22 16 8 5 9 33 -1 -7)
1969/12/31/18:00:14.960000,(18 -9 -11 -12 -22 -25 -16 0)
1969/12/31/18:00:14.960000,(31 70 21 17 16 -1 2 15)
1969/12/31/18:00:14.968000,(23 38 39 24 22 15 20 23)
1969/12/31/18:00:14.968000,(-28 -73 -39 -13 -2 -7 3 -10)
1969/12/31/18:00:14.983000,(-32 -83 -61 -38 -21 3 -8 -22)
1969/12/31/18:00:14.983000,(13 67 54 11 -11 -26 -2 13)
1969/12/31/18:00:14.984000,(-6 -53 -22 5 -5 7 -9 22)
1969/12/31/18:00:14.984000,(-18 -108 -117 -44 6 12 15 2)
1969/12/31/18:00:15.006000,(56 127 112 48 5 6 -6 -31)
1969/12/31/18:00:15.006000,(6 -71 -66 6 0 -12 -13 14)
1969/12/31/18:00:15.007000,(13 -106 -60 -19 -15 -7 -2 3)
1969/12/31/18:00:15.007000,(5 -56 -18 -7 -21 -6 17 23)
1969/12/31/18:00:15.029000,(-39 -63 -50 -35 -5 2 -17 -18)
1969/12/31/18:00:15.029000,(41 51 58 19 22 19 18 5)
1969/12/31/18:00:15.030000,(-11 -6 -26 -19 -7 0 -9 -10)
1969/12/31/18:00:15.030000,(9 -8 2 -2 -1 -9 -9 16)
1969/12/31/18:00:15.043000,(9 55 26 23 8 7 33 34)
1969/12/31/18:00:15.043000,(-14 -2 11 4 10 10 -28 -7)
1969/12/31/18:00:15.044000,(14 -48 -20 -3 1 -3 11 35)
1969/12/31/18:00:15.044000,(-35 -59 -77 -30 -5 -3 -26 -73)
1969/12/31/18:00:15.066000,(-8 71 55 35 19 4 14 22)
1969/12/31/18:00:15.066000,(-10 -77 -86 -36 -15 10 3 -2)
1969/12/31/18:00:15.066000,(25 -18 -13 -7 -16 -6 3 6)
1969/12/31/18:00:15.066000,(11 63 66 32 6 -3 9 32)
1969/12/31/18:00:15.082000,(-11 -46 -62 -21 -6 -4 -11 -25)
1969/12/31/18:00:15.082000,(-4 10 10 10 12 8 4 -14)
1969/12/31/18:00:15.088000,(-37 -62 -39 -25 -18 -12 -16 -12)
1969/12/31/18:00:15.088000,(-6 61 70 28 9 -25 -14 -34)
1969/12/31/18:00:15.120000,(-4 32 17 -3 5 16 -6 -10)
1969/12/31/18:00:15.120000,(-12 -96 -83 -40 -24 -8 22 20)
1969/12/31/18:00:15.121000,(-29 44 -10 18 32 6 -14 -29)
1969/12/31/18:00:15.121000,(42 61 14 22 -22 -15 -6 8)
1969/12/31/18:00:15.126000,(12 -10 47 15 0 11 29 41)
1969/12/31/18:00:15.126000,(-16 -33 -20 -10 -9 -15 -14 -32)
1969/12/31/18:00:15.127000,(-22 -53 -28 -15 4 18 10 -2)
1969/12/31/18:00:15.127000,(-20 -49 -41 -9 8 -5 -5 -8)
1969/12/31/18:00:15.140000,(35 46 23 9 0 -21 -19 -6)
1969/12/31/18:00:15.140000,(29 43 30 9 -3 7 18 33)
1969/12/31/18:00:15.148000,(-9 5 15 2 -6 -4 3 -6)
1969/12/31/18:00:15.148000,(11 6 -18 -12 -6 14 15 26)
1969/12/31/18:00:15.163000,(-40 -83 -24 -14 -12 -1 -4 -5)
1969/12/31/18:00:15.163000,(20 11 28 8 15 -15 -16 -11)
1969/12/31/18:00:15.164000,(15 39 17 2 -12 -6 0 5)
1969/12/31/18:00:15.164000,(-1 6 -6 -3 -4 6 -9 -17)
1969/12/31/18:00:15.186000,(-10 -47 -15 -4 3 6 13 14)
1969/12/31/18:00:15.186000,(-31 -78 -66 -16 2 0 -9 -8)
1969/12/31/18:00:15.193000,(8 -49 -55 -17 -4 -18 6 34)
1969/12/31/18:00:15.193000,(34 71 75 29 13 23 8 15)
1969/12/31/18:00:15.200000,(18 5 1 20 24 8 -1 9)
1969/12/31/18:00:15.200000,(16 58 35 10 -35 -23 -11 -26)
1969/12/31/18:00:15.208000,(-31 -76 -22 -4 -3 2 -10 -9)
1969/12/31/18:00:15.208000,(-2 -3 -30 -27 -8 -1 7 12)
1969/12/31/18:00:15.223000,(-25 0 -32 -18 -1 -2 4 3)
1969/12/31/18:00:15.223000,(-14 -4 31 12 -3 -2 -19 -23)
1969/12/31/18:00:15.224000,(40 -30 -36 -19 -10 -20 -19 -5)
1969/12/31/18:00:15.224000,(0 15 -8 -2 -4 2 -1 7)
1969/12/31/18:00:15.246000,(-4 -26 2 0 -4 -2 -5 -2)
1969/12/31/18:00:15.246000,(-14 6 -15 -2 2 8 11 11)
1969/12/31/18:00:15.247000,(31 31 47 36 38 13 6 8)
1969/12/31/18:00:15.247000,(-29 14 -3 -4 -11 -10 -26 -41)
1969/12/31/18:00:15.260000,(6 7 -44 -35 -28 -22 -4 -1)
1969/12/31/18:00:15.260000,(2 16 34 16 8 7 22 36)
1969/12/31/18:00:15.268000,(12 51 45 6 3 8 3 -5)
1969/12/31/18:00:15.268000,(-2 -60 -42 -7 0 -4 2 8)
1969/12/31/18:00:15.283000,(21 5 13 17 23 3 7 2)
1969/12/31/18:00:15.283000,(-62 -66 -48 -21 -16 -6 -21 -59)
1969/12/31/18:00:15.284000,(2 -57 -56 -22 -11 6 2 -14)
1969/12/31/18:00:15.284000,(12 36 -11 -29 -18 -1 -15 -10)
1969/12/31/18:00:15.307000,(26 97 103 48 10 12 24 38)
1969/12/31/18:00:15.307000,(-45 -69 -48 -14 -2 -22 -34 -65)
1969/12/31/18:00:15.307000,(-18 -64 -18 3 5 3 -2 4)
1969/12/31/18:00:15.307000,(19 59 49 15 10 1 3 10)
1969/12/31/18:00:15.329000,(11 -90 -70 -20 -5 3 3 4)
1969/12/31/18:00:15.329000,(19 -18 -32 -18 -6 5 14 44)
1969/12/31/18:00:15.330000,(22 126 107 47 7 -7 6 19)
1969/12/31/18:00:15.330000,(6 -70 -52 -8 -5 8 4 9)
1969/12/31/18:00:15.343000,(-14 -20 -27 -4 -5 -7 -14 -28)
1969/12/31/18:00:15.343000,(-1 -47 -25 2 19 17 14 31)
1969/12/31/18:00:15.344000,(-33 -32 -49 -18 -18 -6 -22 -48)
1969/12/31/18:00:15.344000,(11 32 31 12 0 -10 30 30)
1969/12/31/18:00:15.367000,(-5 -8 29 5 7 20 -5 -8)
1969/12/31/18:00:15.367000,(-19 -49 -59 -29 -13 -17 -19 8)
1969/12/31/18:00:15.368000,(-29 79 38 15 9 4 11 -33)
1969/12/31/18:00:15.368000,(-24 3 25 24 20 -2 -35 -73)
1969/12/31/18:00:15.389000,(59 -57 -60 -41 -58 -30 2 37)
1969/12/31/18:00:15.389000,(-3 -15 -21 -20 -12 5 15 16)
1969/12/31/18:00:15.390000,(6 88 82 30 19 13 1 9)
1969/12/31/18:00:15.390000,(-3 -83 -71 -10 20 -4 0 10)
1969/12/31/18:00:15.403000,(-5 85 54 12 -17 -8 -1 -9)
1969/12/31/18:00:15.403000,(4 13 20 16 11 0 -9 -15)
1969/12/31/18:00:15.404000,(17 -50 -44 -14 -11 -8 5 21)
1969/12/31/18:00:15.404000,(-16 -25 -1 -11 -3 4 11 18)
1969/12/31/18:00:15.427000,(-37 -48 -40 -13 4 -3 -2 -19)
1969/12/31/18:00:15.427000,(53 75 57 43 28 11 24 55)
1969/12/31/18:00:15.428000,(5 -21 -15 -17 -17 20 18 -36)
1969/12/31/18:00:15.428000,(-5 79 54 2 -1 0 -4 -27)
1969/12/31/18:00:15.450000,(-20 -62 -30 -3 17 12 -9 3)
1969/12/31/18:00:15.450000,(-4 37 45 16 -4 -13 -2 -1)
1969/12/31/18:00:15.451000,(5 -4 -29 -17 8 4 -6 4)
1969/12/31/18:00:15.451000,(66 101 106 56 25 23 16 32)
1969/12/31/18:00:15.463000,(-17 -33 8 4 3 -2 -11 -33)
1969/12/31/18:00:15.463000,(-12 -58 -59 -23 -19 -8 4 -8)
1969/12/31/18:00:15.464000,(10 13 -31 -10 -3 -12 -11 10)
1969/12/31/18:00:15.464000,(-23 -28 -15 -2 -2 7 6 -11)
1969/12/31/18:00:15.487000,(21 32 -1 4 16 3 2 11)
1969/12/31/18:00:15.487000,(-8 -34 -10 -3 -22 -28 -10 -9)
1969/12/31/18:00:15.487000,(-14 -48 -28 -24 -18 -4 -3 -1)
1969/12/31/18:00:15.487000,(-25 -23 -15 -10 -2 19 12 12)
1969/12/31/18:00:15.509000,(-13 -18 -19 -4 4 -12 -13 -6)
1969/12/31/18:00:15.509000,(-5 26 20 13 25 10 -5 -14)
1969/12/31/18:00:15.510000,(-55 20 48 4 -17 -16 -28 -69)
1969/12/31/18:00:15.510000,(2 -30 -29 -9 -15 -7 17 41)
1969/12/31/18:00:15.523000,(-30 17 13 3 8 4 -7 -32)
1969/12/31/18:00:15.523000,(-12 -53 -107 -56 -17 20 8 15)
1969/12/31/18:00:15.524000,(51 123 127 87 42 7 7 29)
1969/12/31/18:00:15.524000,(-2 -48 -23 -5 -8 -9 -7 -11)
1969/12/31/18:00:15.546000,(-8 -63 -54 -6 -1 -7 3 21)
1969/12/31/18:00:15.546000,(11 46 53 17 6 -3 -9 -15)
1969/12/31/18:00:15.547000,(-9 -38 -31 -14 -6 0 9 16)
1969/12/31/18:00:15.547000,(-9 -33 -38 -22 -9 -21 -33 -40)
1969/12/31/18:00:15.569000,(21 -84 -71 -25 -13 5 22 27)
1969/12/31/18:00:15.569000,(26 116 118 67 23 10 -3 -13)
1969/12/31/18:00:15.570000,(-8 -36 -30 -9 -3 2 6 16)
1969/12/31/18:00:15.570000,(3 -5 0 17 15 -7 -11 11)
1969/12/31/18:00:15.583000,(-5 13 11 -1 -5 -5 6 -1)
1969/12/31/18:00:15.583000,(11 -30 -28 -18 15 18 -25 -52)
1969/12/31/18:00:15.584000,(-5 -48 -30 -22 -30 -23 7 8)
1969/12/31/18:00:15.584000,(10 44 11 -2 -3 -4 -4 8)
1969/12/31/18:00:15.607000,(-29 -98 -91 -36 -11 -5 -3 -14)
1969/12/31/18:00:15.607000,(20 109 102 75 23 6 14 15)
1969/12/31/18:00:15.607000,(-17 -69 -51 18 32 12 -10 -21)
1969/12/31/18:00:15.607000,(21 24 -11 -19 -35 -14 -9 -14)
1969/12/31/18:00:15.629000,(9 5 16 -3 -13 4 9 2)
1969/12/31/18:00:15.629000,(-14 -32 -38 -32 -10 -11 -6 3)
1969/12/31/18:00:15.630000,(-4 -10 6 4 12 7 2 3)
1969/12/31/18:00:15.630000,(-32 -51 -16 -22 -29 0 5 -2)
1969/12/31/18:00:15.644000,(20 88 54 30 13 -9 -17 -7)
1969/12/31/18:00:15.644000,(-18 -44 -30 -20 -15 -5 1 4)
1969/12/31/18:00:15.644000,(45 43 34 15 11 -3 8 2)
1969/12/31/18:00:15.644000,(-60 -60 -38 -24 -4 7 -7 6)
1969/12/31/18:00:15.666000,(10 50 43 4 0 14 5 4)
1969/12/31/18:00:15.666000,(-24 -44 -35 -4 -3 -14 -4 2)
1969/12/31/18:00:15.667000,(4 4 -9 -15 -9 4 1 -2)
1969/12/31/18:00:15.667000,(21 39 23 7 0 1 10 14)
1969/12/31/18:00:15.689000,(-5 18 6 -3 -2 -9 -19 -20)
1969/12/31/18:00:15.689000,(-35 -49 -20 -8 -6 -5 6 -12)
1969/12/31/18:00:15.690000,(-15 6 -9 -8 0 3 -8 0)
1969/12/31/18:00:15.690000,(-35 -35 -6 6 3 3 20 -11)
1969/12/31/18:00:15.703000,(17 8 1 -1 -6 -7 -36 2)
1969/12/31/18:00:15.703000,(35 7 -3 -11 -8 -11 21 24)
1969/12/31/18:00:15.704000,(-57 9 8 -1 -6 -2 -1 8)
1969/12/31/18:00:15.704000,(11 -40 -34 -19 -10 -13 -4 -9)
1969/12/31/18:00:15.726000,(43 35 16 10 4 6 7 16)
1969/12/31/18:00:15.726000,(-19 -33 -11 -6 -1 6 -4 4)
1969/12/31/18:00:15.727000,(52 3 0 -6 -4 1 3 23)
1969/12/31/18:00:15.727000,(-10 4 7 14 13 1 -7 -28)
1969/12/31/18:00:15.757000,(-20 0 -3 1 -3 -4 2 -15)
1969/12/31/18:00:15.757000,(26 19 7 0 1 8 6 25)
1969/12/31/18:00:15.758000,(-18 -12 -5 -6 -5 -2 0 -7)
1969/12/31/18:00:15.758000,(11 8 0 8 9 -2 -8 -9)
1969/12/31/18:00:15.763000,(9 -11 2 4 1 -4 2 -16)
1969/12/31/18:00:15.763000,(-11 -12 -4 -6 -6 -2 -4 -8)
1969/12/31/18:00:15.764000,(61 22 9 6 2 -9 -14 19)
1969/12/31/18:00:15.764000,(11 16 3 4 10 27 23 -2)
1969/12/31/18:00:15.786000,(-81 -24 -10 -4 -7 -30 -32 -25)
1969/12/31/18:00:15.786000,(79 19 5 -3 -1 19 20 32)
1969/12/31/18:00:15.787000,(-29 0 -2 3 -3 -38 4 -21)
1969/12/31/18:00:15.787000,(-9 2 5 9 12 27 -23 -3)
1969/12/31/18:00:15.809000,(36 -1 -12 -10 -12 -1 7 2)
1969/12/31/18:00:15.809000,(-6 -15 -15 -12 -6 -6 7 15)
1969/12/31/18:00:15.810000,(-4 -1 7 1 0 -11 -35 -19)
1969/12/31/18:00:15.810000,(-4 -14 -4 -4 0 24 34 -1)
1969/12/31/18:00:15.823000,(21 34 29 19 13 22 -3 23)
1969/12/31/18:00:15.823000,(2 50 3 -7 -13 -33 -34 -27)
1969/12/31/18:00:15.824000,(-9 -32 -24 -14 -8 19 11 7)
1969/12/31/18:00:15.824000,(4 -3 0 -1 -4 -32 -16 -1)
1969/12/31/18:00:15.846000,(37 1 10 8 10 10 19 54)
1969/12/31/18:00:15.846000,(-8 17 4 1 0 -1 0 -7)
1969/12/31/18:00:15.847000,(-31 -21 -4 -1 2 13 6 -2)
1969/12/31/18:00:15.847000,(-17 -17 -9 -5 -3 -10 -15 -15)
1969/12/31/18:00:15.869000,(-27 -15 1 6 3 -12 12 5)
1969/12/31/18:00:15.869000,(79 57 10 4 7 28 1 31)
1969/12/31/18:00:15.870000,(-19 -8 -1 -1 -7 -22 30 -4)
1969/12/31/18:00:15.870000,(-4 -1 1 6 10 19 -31 5)
1969/12/31/18:00:15.883000,(-19 -9 -11 -7 -3 5 1 -18)
1969/12/31/18:00:15.883000,(-26 -8 7 5 6 5 8 -16)
1969/12/31/18:00:15.891000,(29 -17 -16 -15 -13 -5 -9 12)
1969/12/31/18:00:15.891000,(40 15 5 0 -4 -9 16 32)
1969/12/31/18:00:15.915000,(-5 14 2 3 3 3 18 -4)
1969/12/31/18:00:15.915000,(-30 -22 0 2 4 0 -2 0)
1969/12/31/18:00:15.916000,(39 19 5 0 2 14 -5 2)
1969/12/31/18:00:15.916000,(-22 7 0 -2 -5 -16 2 -4)
1969/12/31/18:00:15.928000,(-8 -10 -10 -9 -7 -8 -20 -52)
1969/12/31/18:00:15.928000,(-32 -33 -6 -1 1 -2 0 -17)
1969/12/31/18:00:15.937000,(-30 -16 -17 -11 -9 -2 -11 -21)
1969/12/31/18:00:15.937000,(-14 -15 -2 1 -1 -8 5 7)
1969/12/31/18:00:15.943000,(22 22 13 9 9 11 15 28)
1969/12/31/18:00:15.943000,(21 6 -7 -8 -7 -6 -1 -3)
1969/12/31/18:00:15.952000,(-17 8 10 8 5 3 -2 -26)
1969/12/31/18:00:15.952000,(9 -11 1 4 2 -8 -7 -1)
1969/12/31/18:00:15.966000,(11 10 -7 -7 -8 -4 -13 -31)
1969/12/31/18:00:15.966000,(-19 -15 -6 -4 -4 -6 -2 -3)
1969/12/31/18:00:15.968000,(1 -6 0 0 3 7 6 20)
1969/12/31/18:00:15.968000,(27 31 8 0 -1 -5 2 10)
1969/12/31/18:00:15.989000,(-28 -23 -1 3 4 6 10 9)
1969/12/31/18:00:15.989000,(-1 -9 -2 1 0 1 2 -4)
1969/12/31/18:00:15.991000,(-13 6 -2 -6 -5 -4 -12 -26)
1969/12/31/18:00:15.991000,(1 1 3 2 2 -2 2 -6)
1969/12/31/18:00:16.003000,(8 10 4 1 0 1 5 2)
1969/12/31/18:00:16.003000,(-9 -7 -5 -4 -3 -3 -3 -5)
1969/12/31/18:00:16.012000,(-4 -9 -2 -1 1 4 0 2)
1969/12/31/18:00:16.012000,(0 -2 2 1 -1 -5 0 5)
1969/12/31/18:00:16.026000,(10 7 -7 -8 -9 -4 -6 -8)
1969/12/31/18:00:16.026000,(-31 -11 -2 -1 -2 -2 -2 -3)
1969/12/31/18:00:16.028000,(-7 6 7 7 5 6 5 0)
1969/12/31/18:00:16.028000,(-7 -2 -5 -5 -5 -7 -7 -25)
1969/12/31/18:00:16.049000,(2 -4 -1 -3 0 -2 0 8)
1969/12/31/18:00:16.049000,(-17 -7 -1 1 0 -2 -3 -8)
1969/12/31/18:00:16.051000,(2 1 -2 -3 -2 0 3 4)
1969/12/31/18:00:16.051000,(6 1 -2 -3 0 -1 -1 3)
1969/12/31/18:00:16.062000,(-12 -3 2 3 0 2 2 0)
1969/12/31/18:00:16.062000,(-14 -16 -4 -2 -1 -2 -4 -9)
1969/12/31/18:00:16.072000,(-1 3 -2 -1 0 0 -2 -4)
1969/12/31/18:00:16.072000,(-1 6 4 1 1 -1 -3 -17)
1969/12/31/18:00:16.086000,(11 6 -1 -1 -2 -3 -3 11)
1969/12/31/18:00:16.086000,(-9 -4 -4 -4 -3 -2 -3 0)
1969/12/31/18:00:16.088000,(5 -2 1 1 0 -1 -1 12)
1969/12/31/18:00:16.088000,(-7 -11 -4 -1 0 1 3 5)
1969/12/31/18:00:16.109000,(-9 -10 -3 -2 0 -2 -3 -11)
1969/12/31/18:00:16.109000,(-3 -9 -7 -2 0 -2 2 2)
1969/12/31/18:00:16.110000,(21 27 11 2 3 4 3 8)
1969/12/31/18:00:16.111000,(-18 6 9 3 -3 -1 -5 -11)
1969/12/31/18:00:16.123000,(-13 2 2 2 0 3 -4 -14)
1969/12/31/18:00:16.123000,(21 0 -2 1 -2 0 10 26)
1969/12/31/18:00:16.131000,(3 -13 -11 -7 -4 -8 -18 -16)
1969/12/31/18:00:16.131000,(-1 -1 0 -3 -4 -3 0 3)
1969/12/31/18:00:16.147000,(1 -17 -14 -5 -3 0 7 12)
1969/12/31/18:00:16.147000,(-26 2 -8 0 5 4 0 -15)
1969/12/31/18:00:16.148000,(14 7 18 8 3 4 15 28)
1969/12/31/18:00:16.148000,(10 -4 -8 -3 -2 -4 -3 18)
1969/12/31/18:00:16.169000,(-7 -6 -3 -2 -1 -1 1 -3)
1969/12/31/18:00:16.169000,(11 3 -11 -9 -8 -5 1 -1)
1969/12/31/18:00:16.170000,(-18 -10 -9 -5 -3 -2 -5 -3)
1969/12/31/18:00:16.170000,(3 29 24 9 3 -1 -3 4)
1969/12/31/18:00:16.192000,(-3 -11 -19 -8 -1 -1 -2 -2)
1969/12/31/18:00:16.192000,(8 38 54 20 10 11 15 11)
1969/12/31/18:00:16.194000,(-11 -77 -60 -24 -12 -11 -9 -5)
1969/12/31/18:00:16.194000,(9 68 45 20 12 12 10 -2)
1969/12/31/18:00:16.207000,(-1 2 11 3 0 -2 -11 -4)
1969/12/31/18:00:16.207000,(1 -6 -6 -4 -3 -5 -11 -8)
1969/12/31/18:00:16.213000,(1 14 12 2 0 5 9 3)
1969/12/31/18:00:16.213000,(-17 -65 -59 -23 -13 -12 -10 -12)
1969/12/31/18:00:16.229000,(1 15 11 2 6 2 0 1)
1969/12/31/18:00:16.229000,(12 -13 -5 -1 0 3 8 13)
1969/12/31/18:00:16.230000,(12 9 -3 5 -1 0 0 9)
1969/12/31/18:00:16.230000,(-6 -7 -4 -5 -2 -1 1 -4)
1969/12/31/18:00:16.243000,(8 11 14 9 2 1 7 14)
1969/12/31/18:00:16.243000,(1 -18 -12 -8 -3 -5 -4 -3)
1969/12/31/18:00:16.251000,(-4 15 -2 -3 1 3 3 -6)
1969/12/31/18:00:16.251000,(-10 -12 -2 -2 -4 -2 -3 -7)
1969/12/31/18:00:16.266000,(-3 -3 -11 -5 -5 -4 -4 -3)
1969/12/31/18:00:16.266000,(-1 -13 -8 0 1 -1 -3 -1)
1969/12/31/18:00:16.272000,(-3 -22 -15 -8 -4 -5 -7 2)
1969/12/31/18:00:16.272000,(7 55 55 18 8 3 8 10)
1969/12/31/18:00:16.289000,(-11 -5 3 0 1 2 4 -7)
1969/12/31/18:00:16.289000,(2 -7 -33 -10 -3 0 -9 -4)
1969/12/31/18:00:16.290000,(-1 8 15 8 3 -1 2 -1)
1969/12/31/18:00:16.290000,(-2 -26 -23 -11 -5 -5 -6 -4)
1969/12/31/18:00:16.311000,(0 -3 -1 -1 1 3 5 6)
1969/12/31/18:00:16.311000,(-3 10 2 -1 -2 -5 -12 -11)
1969/12/31/18:00:16.313000,(1 8 7 0 -1 1 5 3)
1969/12/31/18:00:16.313000,(0 -17 -19 -9 -5 -5 -13 -6)
1969/12/31/18:00:16.326000,(-1 6 13 11 8 4 4 1)
1969/12/31/18:00:16.326000,(1 -7 -2 -1 0 2 2 0)
1969/12/31/18:00:16.332000,(-10 11 2 -4 -4 -2 -7 -12)
1969/12/31/18:00:16.332000,(3 -26 -29 -8 -3 -2 6 6)
1969/12/31/18:00:16.349000,(-2 19 27 11 2 -2 -9 -6)
1969/12/31/18:00:16.349000,(-1 -4 -11 -4 -5 -3 -2 -4)
1969/12/31/18:00:16.351000,(6 28 22 4 3 2 0 4)
1969/12/31/18:00:16.351000,(-9 -9 -6 -1 -1 -3 -2 -6)
1969/12/31/18:00:16.372000,(-4 -23 -27 -12 -4 0 -1 1)
1969/12/31/18:00:16.372000,(1 7 14 5 1 -2 1 3)
1969/12/31/18:00:16.373000,(4 4 2 -1 -3 -1 -5 -1)
1969/12/31/18:00:16.373000,(0 -4 -11 -5 -1 2 4 2)
1969/12/31/18:00:16.386000,(-3 -2 17 3 -3 -3 -5 -7)
1969/12/31/18:00:16.386000,(0 1 3 1 -2 -3 -1 -5)
1969/12/31/18:00:16.393000,(-6 -9 -11 -2 -2 1 2 0)
1969/12/31/18:00:16.393000,(2 -4 2 2 3 2 -10 -6)
1969/12/31/18:00:16.408000,(-10 -24 -14 -15 -6 0 4 0)
1969/12/31/18:00:16.408000,(11 49 25 19 2 0 -3 0)
1969/12/31/18:00:16.417000,(1 -12 0 3 1 1 -2 2)
1969/12/31/18:00:16.417000,(0 -22 -6 2 0 0 2 5)
1969/12/31/18:00:16.439000,(-7 -29 -28 -14 -9 -5 -4 -8)
1969/12/31/18:00:16.439000,(-1 31 24 6 2 -1 -3 -2)
1969/12/31/18:00:16.440000,(-5 0 -6 -3 0 -3 0 -2)
1969/12/31/18:00:16.440000,(-10 -47 -18 -9 -3 1 1 2)
1969/12/31/18:00:16.454000,(20 53 3 0 -2 -4 -3 1)
1969/12/31/18:00:16.454000,(-3 -17 8 4 1 0 -4 -4)
1969/12/31/18:00:16.455000,(-5 -23 1 -1 -2 -2 -1 -3)
1969/12/31/18:00:16.455000,(3 51 19 6 1 -1 -1 -3)
1969/12/31/18:00:16.469000,(-7 -17 -11 -2 -1 -1 0 -1)
1969/12/31/18:00:16.469000,(-3 -7 -14 -3 -2 -1 -3 -3)
1969/12/31/18:00:16.471000,(-2 2 3 -2 1 3 2 1)
1969/12/31/18:00:16.471000,(-10 -30 -11 -5 -4 -3 -4 -4)
1969/12/31/18:00:16.491000,(17 57 12 10 4 1 3 8)
1969/12/31/18:00:16.491000,(1 7 3 2 1 1 1 -1)
1969/12/31/18:00:16.493000,(-14 -43 -26 -11 -7 -7 -4 -5)
1969/12/31/18:00:16.493000,(-3 3 -3 -5 -1 -2 0 -1)
1969/12/31/18:00:16.505000,(-2 1 1 1 0 -1 -1 -2)
1969/12/31/18:00:16.505000,(-4 -16 -2 -6 -3 0 1 -1)
1969/12/31/18:00:16.514000,(7 29 8 5 -1 -3 -5 -4)
1969/12/31/18:00:16.514000,(1 -4 -5 -1 2 6 8 6)
1969/12/31/18:00:16.529000,(8 17 32 12 0 -3 -2 3)
1969/12/31/18:00:16.529000,(-11 -31 -32 -12 -4 -1 -1 -2)
1969/12/31/18:00:16.530000,(-3 9 5 0 -1 -1 -1 -2)
1969/12/31/18:00:16.530000,(-4 -13 -18 -19 -8 -4 -2 -3)
1969/12/31/18:00:16.552000,(6 10 28 20 9 4 1 1)
1969/12/31/18:00:16.552000,(-10 -45 -19 -10 -3 -3 -1 1)
1969/12/31/18:00:16.554000,(9 50 33 10 5 1 2 2)
1969/12/31/18:00:16.554000,(-1 11 22 0 -1 -2 -2 -3)
1969/12/31/18:00:16.565000,(-15 -41 -40 -21 -6 -2 1 0)
1969/12/31/18:00:16.565000,(23 43 52 16 3 -3 -3 2)
1969/12/31/18:00:16.574000,(-4 -6 7 5 4 1 2 1)
1969/12/31/18:00:16.574000,(7 17 -5 1 -2 -3 -4 -2)
1969/12/31/18:00:16.589000,(-8 -32 -10 3 3 4 2 0)
1969/12/31/18:00:16.589000,(0 8 -4 -7 -4 1 2 3)
1969/12/31/18:00:16.591000,(-5 -15 -23 -18 -7 -2 -1 -3)
1969/12/31/18:00:16.591000,(-4 -1 -15 -10 -7 -8 -7 -8)
1969/12/31/18:00:16.611000,(2 5 13 11 6 0 -1 -3)
1969/12/31/18:00:16.611000,(-1 -14 -14 -3 0 2 5 6)
1969/12/31/18:00:16.613000,(3 25 3 2 -1 -3 -4 -5)
1969/12/31/18:00:16.613000,(-8 -28 -12 -2 -2 1 1 1)
1969/12/31/18:00:16.625000,(-4 4 -9 -11 -6 -3 -2 -3)
1969/12/31/18:00:16.625000,(-4 -12 7 2 -1 -2 -1 -3)
1969/12/31/18:00:16.634000,(1 1 22 10 1 0 2 1)
1969/12/31/18:00:16.634000,(-3 -6 15 8 0 0 -1 0)
1969/12/31/18:00:16.657000,(4 20 -19 -10 -6 -6 -4 -2)
1969/12/31/18:00:16.657000,(0 4 -5 1 3 3 1 0)
1969/12/31/18:00:16.659000,(-5 -15 -10 -2 -2 0 -3 0)
1969/12/31/18:00:16.659000,(1 7 6 1 -4 -3 -1 -3)
1969/12/31/18:00:16.671000,(-2 -13 -29 -14 -2 2 2 -1)
1969/12/31/18:00:16.671000,(-13 -27 -6 -2 -4 -5 -5 -6)
1969/12/31/18:00:16.673000,(8 12 3 0 -2 -3 1 1)
1969/12/31/18:00:16.673000,(2 -13 17 25 12 7 3 2)
1969/12/31/18:00:16.686000,(-2 8 5 3 -2 -2 -2 0)
1969/12/31/18:00:16.686000,(-2 3 -8 -7 -5 -2 -4 -4)
1969/12/31/18:00:16.694000,(-6 -14 -14 -6 -4 -4 0 0)
1969/12/31/18:00:16.694000,(-1 -1 0 -6 -2 -2 -1 1)
1969/12/31/18:00:16.709000,(-4 -4 9 -5 -3 -3 -2 -3)
1969/12/31/18:00:16.709000,(0 0 -7 0 1 0 -2 -3)
1969/12/31/18:00:16.710000,(2 -2 0 -1 3 1 1 2)
1969/12/31/18:00:16.710000,(-1 4 0 -1 -1 0 1 0)
1969/12/31/18:00:16.731000,(-7 -22 -6 0 -2 0 -1 -2)
1969/12/31/18:00:16.731000,(5 19 -20 -23 -10 -9 -7 -5)
1969/12/31/18:00:16.733000,(7 7 -1 8 5 2 1 2)
1969/12/31/18:00:16.733000,(2 3 6 9 3 0 3 3)
1969/12/31/18:00:16.746000,(1 -4 1 0 -2 -3 -2 -3)
1969/12/31/18:00:16.746000,(-10 -21 -6 -5 -5 -1 -1 -4)
1969/12/31/18:00:16.754000,(-14 -18 -21 -28 -16 -9 -8 -7)
1969/12/31/18:00:16.754000,(16 39 -1 6 8 3 2 5)
1969/12/31/18:00:16.777000,(-2 -2 20 18 5 3 2 0)
1969/12/31/18:00:16.777000,(2 5 -2 -14 -6 -1 0 1)
1969/12/31/18:00:16.778000,(1 15 8 7 5 0 -1 -5)
1969/12/31/18:00:16.778000,(1 3 11 19 4 0 0 2)
1969/12/31/18:00:16.792000,(1 -1 -9 -8 -5 -2 -2 1)
1969/12/31/18:00:16.792000,(1 6 5 11 4 3 1 2)
1969/12/31/18:00:16.793000,(-6 -13 -13 -15 -7 -2 -2 -1)
1969/12/31/18:00:16.793000,(-3 -5 -20 -21 -7 -3 -2 -1)
1969/12/31/18:00:16.805000,(1 -1 4 3 1 1 -1 -1)
1969/12/31/18:00:16.805000,(-2 -3 -1 -4 -5 -2 0 1)
1969/12/31/18:00:16.814000,(0 -7 4 7 3 2 -1 1)
1969/12/31/18:00:16.814000,(-3 5 -7 -15 -7 -4 -3 -3)
1969/12/31/18:00:16.829000,(-4 2 -4 1 -3 -4 -3 -3)
1969/12/31/18:00:16.829000,(2 1 8 13 9 3 2 2)
1969/12/31/18:00:16.831000,(2 -2 -8 1 -2 0 2 1)
1969/12/31/18:00:16.831000,(-4 -10 -8 -18 -6 -2 -4 -4)
1969/12/31/18:00:16.859000,(3 10 16 24 11 1 1 4)
1969/12/31/18:00:16.859000,(-3 0 3 8 3 0 -3 -2)
1969/12/31/18:00:16.860000,(-1 -6 -1 0 1 1 0 0)
1969/12/31/18:00:16.860000,(-4 -9 -5 -2 -3 -2 -1 -3)
1969/12/31/18:00:16.865000,(-3 -11 -23 -26 -11 -3 -1 -2)
1969/12/31/18:00:16.865000,(2 6 9 6 1 1 1 2)
1969/12/31/18:00:16.874000,(4 15 18 11 3 2 -2 1)
1969/12/31/18:00:16.874000,(-3 -4 3 0 -1 -2 -2 -4)
1969/12/31/18:00:16.889000,(-4 1 -5 -8 -4 -1 0 0)
1969/12/31/18:00:16.890000,(-5 -7 -2 4 0 -2 -3 -5)
1969/12/31/18:00:16.891000,(-2 -5 -6 -5 -5 -4 -3 -1)
1969/12/31/18:00:16.891000,(-1 4 7 2 1 -3 0 1)
1969/12/31/18:00:16.911000,(-3 -12 -5 -2 -1 -3 -4 -3)
1969/12/31/18:00:16.911000,(0 4 -10 -9 -1 -1 -1 2)
1969/12/31/18:00:16.913000,(-1 1 2 4 2 2 5 3)
1969/12/31/18:00:16.913000,(2 2 -1 4 -1 -1 -1 -3)
1969/12/31/18:00:16.925000,(-3 -7 -2 -6 -2 2 0 -2)
1969/12/31/18:00:16.925000,(0 2 -2 -4 -4 -1 -4 -3)
1969/12/31/18:00:16.942000,(-2 -2 1 3 1 -1 -2 -2)
1969/12/31/18:00:16.942000,(2 5 5 4 2 1 0 3)
1969/12/31/18:00:16.949000,(-2 -3 -4 -8 -4 -3 -3 -2)
1969/12/31/18:00:16.949000,(1 -2 -1 -4 -4 -1 1 -2)
1969/12/31/18:00:16.950000,(1 0 1 4 3 2 1 2)
1969/12/31/18:00:16.950000,(0 -1 6 6 1 1 1 1)
1969/12/31/18:00:16.972000,(-1 -2 -6 -6 -4 -4 -3 0)
1969/12/31/18:00:16.972000,(-1 4 9 0 -3 -3 -1 1)
1969/12/31/18:00:16.973000,(-1 -6 -4 -1 -2 -2 0 -3)
1969/12/31/18:00:16.973000,(-1 -3 -4 -4 -3 -1 0 -2)
1969/12/31/18:00:16.985000,(-2 0 3 2 0 -1 0 -5)
1969/12/31/18:00:16.985000,(1 0 -1 0 0 -2 -1 -2)
1969/12/31/18:00:17.000000,(-3 -4 -3 -3 -2 0 -4 -3)
1969/12/31/18:00:17.000000,(-1 -2 -1 -2 -1 -1 0 2)
1969/12/31/18:00:17.009000,(1 5 5 4 3 0 -7 -4)
1969/12/31/18:00:17.009000,(-3 -4 -9 -8 -3 -1 1 -2)
1969/12/31/18:00:17.010000,(-1 -2 3 2 1 -1 0 1)
1969/12/31/18:00:17.010000,(3 4 -10 0 1 2 1 1)
1969/12/31/18:00:17.032000,(-3 -2 4 0 -1 1 1 2)
1969/12/31/18:00:17.032000,(-2 -3 -4 -3 0 -1 0 -3)
1969/12/31/18:00:17.034000,(-2 -3 1 0 0 -1 -2 -1)
1969/12/31/18:00:17.034000,(2 8 -4 -5 -3 -2 -2 0)
1969/12/31/18:00:17.054000,(2 2 6 5 2 -1 2 1)
1969/12/31/18:00:17.054000,(-1 -2 -3 -1 0 -2 -2 1)
1969/12/31/18:00:17.055000,(-2 3 4 0 -1 -1 -2 -3)
1969/12/31/18:00:17.055000,(-6 -7 -7 -3 -3 -2 -2 -4)
1969/12/31/18:00:17.068000,(-2 -3 -7 -3 0 0 -1 0)
1969/12/31/18:00:17.068000,(-1 -1 3 3 0 -2 1 -1)
1969/12/31/18:00:17.083000,(-1 -5 -11 -7 -4 1 -1 -2)
1969/12/31/18:00:17.083000,(-1 -1 1 -2 -2 -1 -4 -3)
1969/12/31/18:00:17.091000,(-2 -5 5 1 0 0 0 1)
1969/12/31/18:00:17.091000,(1 1 -1 -2 0 0 1 -1)
1969/12/31/18:00:17.093000,(-1 -1 -3 0 0 0 0 1)
1969/12/31/18:00:17.093000,(-2 1 4 1 0 -3 -3 -3)
1969/12/31/18:00:17.106000,(-1 0 -2 -4 -6 -1 2 0)
1969/12/31/18:00:17.106000,(-2 -4 -1 1 0 -1 -2 -1)
1969/12/31/18:00:17.114000,(-3 -4 -3 -4 -2 -1 -1 -3)
1969/12/31/18:00:17.114000,(-2 0 1 -4 0 -2 -1 -1)
1969/12/31/18:00:17.136000,(1 1 0 2 -1 -1 0 -2)
1969/12/31/18:00:17.136000,(0 0 -4 -3 -3 1 -2 1)
1969/12/31/18:00:17.138000,(0 2 8 4 0 -1 -1 -1)
1969/12/31/18:00:17.138000,(0 -1 1 1 1 2 1 1)
1969/12/31/18:00:17.151000,(0 -2 -9 -5 -2 -2 -1 0)
1969/12/31/18:00:17.151000,(-1 2 3 2 0 -1 0 -1)
1969/12/31/18:00:17.153000,(-1 -2 -4 -2 -2 1 -2 -1)
1969/12/31/18:00:17.153000,(-1 -2 0 -2 -4 -1 0 -1)
1969/12/31/18:00:17.165000,(-1 -1 0 1 -1 -2 -2 -1)
1969/12/31/18:00:17.165000,(0 -1 -1 0 -1 0 0 -1)
1969/12/31/18:00:17.191000,(0 1 -4 -4 -2 -3 0 -1)
1969/12/31/18:00:17.191000,(-3 -1 1 4 2 0 -1 -1)
1969/12/31/18:00:17.192000,(-5 -5 -2 -2 -2 -3 -4 -4)
1969/12/31/18:00:17.192000,(-3 -5 -6 -4 -2 -1 -1 -3)
1969/12/31/18:00:17.202000,(0 -1 2 3 1 -1 -1 -1)
1969/12/31/18:00:17.202000,(2 1 2 3 2 2 1 1)
1969/12/31/18:00:17.219000,(0 0 -3 -5 -3 0 -2 0)
1969/12/31/18:00:17.219000,(-2 -8 -6 0 -2 -3 -3 0)
1969/12/31/18:00:17.220000,(6 13 18 2 1 -1 1 2)
1969/12/31/18:00:17.220000,(0 -1 1 5 3 1 0 -3)
1969/12/31/18:00:17.225000,(-1 -4 -5 -2 0 0 0 -2)
1969/12/31/18:00:17.225000,(-1 1 3 2 0 -1 1 -2)
1969/12/31/18:00:17.234000,(-3 -7 -11 -4 -4 -1 -1 -1)
1969/12/31/18:00:17.234000,(-2 -2 -3 -4 -2 -4 -2 -1)
1969/12/31/18:00:17.249000,(0 0 2 -2 0 1 -1 0)
1969/12/31/18:00:17.249000,(0 -2 -2 1 1 0 -1 1)
1969/12/31/18:00:17.255000,(-2 -1 -3 -3 -1 -1 -1 -1)
1969/12/31/18:00:17.255000,(1 1 5 0 0 0 1 1)
1969/12/31/18:00:17.272000,(-3 -3 -6 -4 -1 -4 -2 -3)
1969/12/31/18:00:17.272000,(0 0 1 -1 -1 0 0 -1)
1969/12/31/18:00:17.274000,(-4 -8 -8 -4 -2 -2 -2 -2)
1969/12/31/18:00:17.274000,(0 0 0 -1 -2 -2 0 -2)
1969/12/31/18:00:17.295000,(0 0 -2 -2 -2 0 0 2)
1969/12/31/18:00:17.295000,(0 1 0 -5 -1 -1 -2 -1)
1969/12/31/18:00:17.296000,(-2 -2 -1 4 0 0 -1 -1)
1969/12/31/18:00:17.296000,(-3 -4 -4 -5 -4 -1 -2 -2)
1969/12/31/18:00:17.309000,(0 2 4 3 0 0 1 1)
1969/12/31/18:00:17.309000,(-3 -6 -4 -4 -5 -2 -2 -2)
1969/12/31/18:00:17.310000,(1 2 3 3 2 1 1 -1)
1969/12/31/18:00:17.310000,(-1 0 1 0 -1 -1 -1 -3)
1969/12/31/18:00:17.332000,(-1 -3 -2 -2 -1 0 -2 0)
1969/12/31/18:00:17.332000,(-1 -1 1 1 0 1 -1 -1)
1969/12/31/18:00:17.333000,(-2 -5 -7 -4 -3 -3 -2 -1)
1969/12/31/18:00:17.333000,(-1 -3 -3 -2 -2 -1 -2 0)
1969/12/31/18:00:17.354000,(1 2 2 2 2 -1 -1 0)
1969/12/31/18:00:17.354000,(0 2 3 1 1 -1 0 0)
1969/12/31/18:00:17.355000,(-2 -3 -4 0 0 0 -2 -1)
1969/12/31/18:00:17.355000,(-1 1 -1 -1 0 -1 -1 1)
1969/12/31/18:00:17.368000,(-4 -5 -4 0 0 0 -1 -3)
1969/12/31/18:00:17.368000,(-1 1 -1 -1 -1 -1 -2 -1)
1969/12/31/18:00:17.392000,(-2 -1 -2 -3 -1 -1 -1 -2)
1969/12/31/18:00:17.392000,(-1 0 -2 0 -1 0 0 0)
1969/12/31/18:00:17.393000,(-1 -1 0 -3 -3 -3 -2 -2)
1969/12/31/18:00:17.393000,(-1 -2 -4 -3 -2 -2 -2 -3)
1969/12/31/18:00:17.394000,(0 0 1 1 -2 -1 -1 1)
1969/12/31/18:00:17.394000,(-3 -3 -3 -2 0 -1 0 -1)
1969/12/31/18:00:17.414000,(0 0 -1 -1 0 0 1 -1)
1969/12/31/18:00:17.414000,(0 4 -6 -5 -1 0 -2 0)
1969/12/31/18:00:17.415000,(-4 -8 10 5 0 1 -1 0)
1969/12/31/18:00:17.415000,(1 -3 -4 -2 -3 -1 0 -1)
1969/12/31/18:00:17.428000,(-5 -5 -8 -4 -1 -1 -1 -4)
1969/12/31/18:00:17.428000,(1 3 4 2 1 2 -1 0)
1969/12/31/18:00:17.435000,(0 3 1 0 -1 -1 -1 -1)
1969/12/31/18:00:17.435000,(-1 0 -2 1 0 -3 -2 -2)
1969/12/31/18:00:17.460000,(0 -2 4 1 -1 -3 -1 -1)
1969/12/31/18:00:17.460000,(-2 -2 -2 -2 -3 -2 1 0)
1969/12/31/18:00:17.461000,(1 0 -4 1 -2 1 0 1)
1969/12/31/18:00:17.461000,(-2 -3 -1 -2 -1 -1 -4 -1)
1969/12/31/18:00:17.474000,(2 5 2 2 -2 -1 1 2)
1969/12/31/18:00:17.474000,(0 1 2 1 3 1 1 0)
1969/12/31/18:00:17.476000,(-3 -7 -2 -1 0 -1 -1 -2)
1969/12/31/18:00:17.476000,(-1 1 2 1 1 -1 1 -2)
1969/12/31/18:00:17.489000,(-1 0 -1 -2 -2 0 0 -1)
1969/12/31/18:00:17.489000,(1 1 0 -1 -1 -1 -1 2)
1969/12/31/18:00:17.497000,(-2 -2 -6 -3 -1 -2 -1 -1)
1969/12/31/18:00:17.497000,(0 0 -3 -2 -2 0 -1 -1)
1969/12/31/18:00:17.511000,(0 -2 1 0 1 -1 0 1)
1969/12/31/18:00:17.511000,(-2 -6 -3 -2 1 -1 -1 -3)
1969/12/31/18:00:17.513000,(1 2 -4 -4 -3 -1 -1 1)
1969/12/31/18:00:17.513000,(-1 -2 -3 -3 -1 -1 0 -3)
1969/12/31/18:00:17.513000,(-1 1 -4 -7 -3 -3 -2 -2)
1969/12/31/18:00:17.513000,(0 -8 1 5 1 -1 -1 -1)
1969/12/31/18:00:17.513000,(-1 -3 1 -1 1 -1 -3 -2)
1969/12/31/18:00:17.513000,(0 1 -3 -3 -3 1 0 0)
1969/12/31/18:00:17.534000,(-1 0 -1 -1 0 -1 -1 -2)
1969/12/31/18:00:17.534000,(-2 0 -3 -5 -4 -1 -1 -1)
1969/12/31/18:00:17.535000,(1 0 -2 -1 0 -2 2 1)
1969/12/31/18:00:17.535000,(-3 -2 1 0 0 -1 -3 -2)
1969/12/31/18:00:17.541000,(-1 1 1 -1 0 -1 0 1)
1969/12/31/18:00:17.541000,(-1 1 -4 -2 -1 0 -2 -1)
1969/12/31/18:00:17.542000,(1 -1 2 -1 -1 -3 0 1)
1969/12/31/18:00:17.542000,(0 -2 -2 -2 -2 -2 0 -2)
1969/12/31/18:00:17.563000,(-1 -1 -4 0 0 0 0 0)
1969/12/31/18:00:17.564000,(0 2 5 3 3 0 0 0)
1969/12/31/18:00:17.571000,(-1 -1 -1 -1 1 -2 0 -2)
1969/12/31/18:00:17.571000,(0 1 3 0 -1 -1 -1 -1)
1969/12/31/18:00:17.579000,(-3 -6 -5 -5 -2 -2 -3 -2)
1969/12/31/18:00:17.579000,(-2 -3 -6 -3 0 0 -1 -2)
1969/12/31/18:00:17.580000,(0 2 -2 -5 -1 0 -1 0)
1969/12/31/18:00:17.580000,(-1 -2 -1 3 -1 -2 -2 0)
1969/12/31/18:00:17.609000,(0 2 6 3 2 0 0 0)
1969/12/31/18:00:17.609000,(-1 0 -2 -2 -4 -1 -2 0)
1969/12/31/18:00:17.610000,(-1 0 1 -1 -2 -2 -1 0)
1969/12/31/18:00:17.610000,(-3 -5 -4 -3 -4 -2 -1 -3)
1969/12/31/18:00:17.624000,(0 -1 -2 -3 -2 1 2 0)
1969/12/31/18:00:17.624000,(-2 -3 -1 1 -3 -3 -2 -4)
1969/12/31/18:00:17.624000,(-1 2 -1 -4 -3 0 0 -1)
1969/12/31/18:00:17.624000,(1 0 1 2 1 -2 -2 -1)
1969/12/31/18:00:17.638000,(1 -3 -3 -3 -1 -3 1 1)
1969/12/31/18:00:17.638000,(-2 -1 -5 -7 -4 -3 0 -2)
1969/12/31/18:00:17.654000,(-4 -3 -3 -5 -4 0 -2 -2)
1969/12/31/18:00:17.654000,(0 3 3 6 3 -1 -1 -1)
1969/12/31/18:00:17.661000,(0 0 2 12 0 -1 0 -1)
1969/12/31/18:00:17.661000,(-3 -6 -13 -9 -2 -1 -1 -2)
1969/12/31/18:00:17.662000,(-3 -1 -4 -16 -2 -4 -2 -1)
1969/12/31/18:00:17.662000,(-4 -5 -5 -11 -6 -4 -5 -2)
1969/12/31/18:00:17.692000,(-5 -8 -28 -28 -17 -5 -4 -5)
1969/12/31/18:00:17.692000,(4 13 38 38 18 4 4 3)
1969/12/31/18:00:17.693000,(1 2 0 17 -2 1 1 -1)
1969/12/31/18:00:17.693000,(2 0 -14 -2 8 5 1 1)
1969/12/31/18:00:17.698000,(0 1 30 7 2 -1 -1 -1)
1969/12/31/18:00:17.698000,(-15 -24 -52 -78 -35 -7 -4 -9)
1969/12/31/18:00:17.706000,(-3 -15 -10 -21 -11 -1 3 7)
1969/12/31/18:00:17.706000,(16 27 46 58 26 4 7 9)
1969/12/31/18:00:17.721000,(0 1 -7 -50 4 -4 -14 -6)
1969/12/31/18:00:17.721000,(-1 0 -7 46 -26 -11 5 -4)
1969/12/31/18:00:17.722000,(4 -2 36 42 28 34 34 10)
1969/12/31/18:00:17.722000,(7 16 32 64 22 -5 -8 0)
1969/12/31/18:00:17.744000,(16 19 101 127 42 15 15 20)
1969/12/31/18:00:17.744000,(-15 -22 -69 -80 -51 -33 -26 -24)
1969/12/31/18:00:17.744000,(-8 -7 -68 -47 -24 -16 -10 -10)
1969/12/31/18:00:17.744000,(-1 3 47 50 -2 5 14 3)
1969/12/31/18:00:17.758000,(-22 -49 -123 -95 -40 -16 -2 -8)
1969/12/31/18:00:17.758000,(12 25 62 88 30 9 -9 8)
1969/12/31/18:00:17.767000,(1 9 7 -17 -2 -6 -8 -8)
1969/12/31/18:00:17.767000,(-21 -47 -95 -125 -46 -12 -8 -10)
1969/12/31/18:00:17.781000,(12 25 -32 92 18 9 -5 0)
1969/12/31/18:00:17.781000,(19 34 57 53 41 24 19 20)
1969/12/31/18:00:17.782000,(-10 -21 -67 -56 -17 -5 -9 -1)
1969/12/31/18:00:17.782000,(0 3 -14 28 5 -2 -7 -9)
1969/12/31/18:00:17.804000,(-10 -19 -48 -88 -28 -9 -4 -6)
1969/12/31/18:00:17.804000,(-6 -7 13 64 16 7 2 0)
1969/12/31/18:00:17.804000,(11 24 26 23 13 0 3 8)
1969/12/31/18:00:17.804000,(-19 -52 -83 -128 -50 -12 -8 -7)
1969/12/31/18:00:17.818000,(-7 -11 43 51 6 3 3 -7)
1969/12/31/18:00:17.818000,(-4 8 -16 14 16 2 0 -1)
1969/12/31/18:00:17.834000,(15 26 56 84 32 7 4 9)
1969/12/31/18:00:17.834000,(10 18 -5 1 0 6 3 6)
1969/12/31/18:00:17.841000,(14 23 14 -20 -4 -2 -3 1)
1969/12/31/18:00:17.841000,(7 -14 -8 -39 -6 -5 1 4)
1969/12/31/18:00:17.842000,(-4 -24 -34 -43 -25 -18 -11 -15)
1969/12/31/18:00:17.842000,(20 -8 -12 -13 1 0 2 2)
1969/12/31/18:00:17.864000,(19 5 -2 -35 5 2 0 2)
1969/12/31/18:00:17.864000,(10 22 11 7 8 2 2 0)
1969/12/31/18:00:17.865000,(-3 25 -16 -25 -8 -1 -2 -4)
1969/12/31/18:00:17.865000,(-5 36 23 17 11 3 0 1)
1969/12/31/18:00:17.878000,(-27 -38 -35 -22 -10 -2 1 0)
1969/12/31/18:00:17.878000,(21 88 59 -4 -6 2 -2 -1)
1969/12/31/18:00:17.903000,(-12 -15 -1 36 3 1 -4 -2)
1969/12/31/18:00:17.903000,(-11 2 20 40 3 3 2 2)
1969/12/31/18:00:17.905000,(-17 -23 -5 15 -8 -2 -2 -3)
1969/12/31/18:00:17.905000,(-25 -55 -49 -17 -8 -2 -3 -3)
1969/12/31/18:00:17.906000,(-6 -4 20 37 6 -1 -3 -1)
1969/12/31/18:00:17.906000,(-7 -15 7 18 2 -2 -3 -3)
1969/12/31/18:00:17.924000,(-8 -16 -5 2 -2 -5 -1 -2)
1969/12/31/18:00:17.924000,(-3 -28 -8 -2 6 2 0 1)
1969/12/31/18:00:17.925000,(2 -2 18 5 3 -4 -4 -1)
1969/12/31/18:00:17.925000,(-10 -30 -17 -13 -2 0 -1 -3)
1969/12/31/18:00:17.938000,(8 5 18 3 7 1 0 1)
1969/12/31/18:00:17.938000,(-3 -19 -6 -23 -3 -1 0 0)
1969/12/31/18:00:17.946000,(-6 -21 -7 -14 -6 -2 0 1)
1969/12/31/18:00:17.946000,(-6 3 1 -1 5 1 -8 -8)
1969/12/31/18:00:17.961000,(2 22 17 13 6 1 2 1)
1969/12/31/18:00:17.961000,(12 -2 -11 -12 -4 -2 3 5)
1969/12/31/18:00:17.962000,(-10 -8 -10 -4 -4 -2 -1 -4)
1969/12/31/18:00:17.962000,(1 5 7 10 2 -3 -4 -4)
1969/12/31/18:00:17.984000,(17 17 10 1 0 -2 3 4)
1969/12/31/18:00:17.984000,(-5 -15 -21 -20 -5 -1 -1 0)
1969/12/31/18:00:17.984000,(2 18 9 4 3 0 1 5)
1969/12/31/18:00:17.984000,(-29 -29 -15 -10 -10 -14 -21 -35)
1969/12/31/18:00:18.007000,(8 12 1 -4 -2 0 -1 -1)
1969/12/31/18:00:18.007000,(2 -14 -13 -12 -3 -3 -1 -5)
1969/12/31/18:00:18.008000,(9 12 10 7 4 -1 5 10)
1969/12/31/18:00:18.008000,(28 20 9 3 2 6 7 19)
1969/12/31/18:00:18.021000,(-57 -26 -8 -3 1 5 15 5)
1969/12/31/18:00:18.021000,(11 8 -4 -1 0 -1 -17 -6)
1969/12/31/18:00:18.022000,(14 3 4 1 -4 -4 -3 0)
1969/12/31/18:00:18.022000,(43 9 7 7 7 7 -5 11)
1969/12/31/18:00:18.044000,(-19 8 4 2 -4 -7 1 -7)
1969/12/31/18:00:18.044000,(3 7 1 -5 0 1 3 2)
1969/12/31/18:00:18.045000,(-17 -12 -1 -1 0 4 5 -2)
1969/12/31/18:00:18.045000,(25 14 1 -1 2 4 10 16)
1969/12/31/18:00:18.067000,(11 8 6 3 1 1 -8 -3)
1969/12/31/18:00:18.067000,(-63 -19 -6 -6 -6 -8 -12 -34)
1969/12/31/18:00:18.068000,(81 20 -5 -5 -1 0 4 29)
1969/12/31/18:00:18.068000,(-35 -15 -3 -2 0 -1 13 7)
1969/12/31/18:00:18.081000,(-37 -18 -3 -2 -2 3 -11 -14)
1969/12/31/18:00:18.081000,(25 15 -7 -10 -8 -7 2 5)
1969/12/31/18:00:18.082000,(-38 -14 2 1 3 2 -9 -18)
1969/12/31/18:00:18.082000,(47 19 2 2 1 -7 -23 -2)
1969/12/31/18:00:18.104000,(-10 -10 0 -3 -3 -3 -3 -3)
1969/12/31/18:00:18.104000,(-30 -3 3 -2 -1 3 -5 5)
1969/12/31/18:00:18.104000,(-42 -26 3 4 -2 -11 -17 -38)
1969/12/31/18:00:18.104000,(26 49 17 6 8 11 19 19)
1969/12/31/18:00:18.127000,(39 10 2 3 2 9 37 16)
1969/12/31/18:00:18.127000,(37 10 -4 0 5 14 15 30)
1969/12/31/18:00:18.128000,(-16 -29 -3 -3 -3 -3 -3 4)
1969/12/31/18:00:18.128000,(-58 2 -4 2 1 -3 -3 -27)
1969/12/31/18:00:18.141000,(15 3 7 4 7 26 2 7)
1969/12/31/18:00:18.141000,(25 -13 5 6 1 -18 12 74)
1969/12/31/18:00:18.142000,(55 46 6 1 1 13 -7 8)
1969/12/31/18:00:18.142000,(-37 -22 -9 -7 -13 -36 -6 -19)
1969/12/31/18:00:18.164000,(12 9 1 -1 4 30 9 -12)
1969/12/31/18:00:18.164000,(-12 -29 -9 0 0 -4 5 -2)
1969/12/31/18:00:18.165000,(-25 3 5 2 0 -9 -5 -30)
1969/12/31/18:00:18.165000,(11 -16 -2 5 3 6 -38 -9)
1969/12/31/18:00:18.187000,(26 41 3 -8 -6 -10 -2 13)
1969/12/31/18:00:18.187000,(-43 -25 -1 -1 8 34 -3 -58)
1969/12/31/18:00:18.188000,(55 44 -4 -7 -11 -48 -44 21)
1969/12/31/18:00:18.188000,(-103 -40 -3 -1 0 -1 25 -15)
1969/12/31/18:00:18.209000,(46 0 -9 -6 -9 -18 -17 -18)
1969/12/31/18:00:18.209000,(-31 2 2 -3 -6 -13 -10 -31)
1969/12/31/18:00:18.210000,(9 -1 -12 -9 1 64 80 31)
1969/12/31/18:00:18.210000,(-36 -19 3 7 7 -3 -30 -60)
1969/12/31/18:00:18.224000,(16 6 1 3 -3 -31 -21 51)
1969/12/31/18:00:18.224000,(19 30 11 4 -3 -14 8 -20)
1969/12/31/18:00:18.225000,(-22 -12 -5 -3 3 25 -15 4)
1969/12/31/18:00:18.225000,(-54 -51 -20 -17 -18 -30 -1 -3)
