time,.data
1969/12/31/18:00:06.794,(0 0 3 -1 -1 -2 -2 -1)
1969/12/31/18:00:06.794,(-1 0 -5 0 -1 1 0 0)
1969/12/31/18:00:06.801,(5 2 -2 3 5 1 2 3)
1969/12/31/18:00:06.801,(-7 -3 -1 -6 -5 -4 -7 -8)
1969/12/31/18:00:06.817,(-1 0 0 0 -1 -1 -2 -3)
1969/12/31/18:00:06.817,(-1 -2 -1 -4 -2 1 1 -1)
1969/12/31/18:00:06.819,(0 -1 -3 -3 -3 0 1 1)
1969/12/31/18:00:06.819,(5 2 -1 2 1 2 1 4)
1969/12/31/18:00:06.841,(-1 0 0 1 1 1 -2 -1)
1969/12/31/18:00:06.841,(-3 -1 3 0 -1 -4 -2 -3)
1969/12/31/18:00:06.842,(-5 -7 -7 -9 -6 -2 -1 -6)
1969/12/31/18:00:06.842,(3 1 1 3 1 -1 -1 0)
1969/12/31/18:00:06.856,(3 3 7 -3 -3 3 3 3)
1969/12/31/18:00:06.856,(9 8 -6 1 2 -2 -1 4)
1969/12/31/18:00:06.863,(-5 -11 -2 3 1 -1 -1 1)
1969/12/31/18:00:06.863,(-4 0 7 8 1 2 1 -2)
1969/12/31/18:00:06.879,(-1 0 2 3 0 -2 0 -4)
1969/12/31/18:00:06.879,(1 2 9 0 2 4 3 2)
1969/12/31/18:00:06.881,(0 -5 -18 -8 -1 0 -1 -1)
1969/12/31/18:00:06.881,(-8 -13 -25 -26 -22 -16 -11 -9)
1969/12/31/18:00:06.903,(-12 -10 -6 -24 -2 -5 -4 -7)
1969/12/31/18:00:06.903,(1 6 11 21 1 5 3 2)
1969/12/31/18:00:06.904,(13 20 31 30 18 16 13 12)
1969/12/31/18:00:06.904,(12 8 4 21 12 4 3 6)
1969/12/31/18:00:06.916,(-1 -7 -14 2 -2 0 -2 -3)
1969/12/31/18:00:06.916,(-7 -4 -2 -15 -21 -11 -8 -7)
1969/12/31/18:00:06.926,(-3 -1 2 -17 5 1 0 -2)
1969/12/31/18:00:06.926,(3 4 -5 -19 -18 -1 1 3)
1969/12/31/18:00:06.942,(3 3 9 3 2 11 6 5)
1969/12/31/18:00:06.942,(10 0 -2 71 52 2 2 8)
1969/12/31/18:00:06.947,(-14 -7 5 -5 -14 -15 -14 -12)
1969/12/31/18:00:06.947,(-8 -8 -19 -75 -33 -11 -3 -2)
1969/12/31/18:00:06.965,(0 2 -14 -50 -18 -8 -2 2)
1969/12/31/18:00:06.965,(10 2 0 34 6 13 9 7)
1969/12/31/18:00:06.966,(-1 1 13 25 4 8 4 -1)
1969/12/31/18:00:06.966,(0 4 21 53 36 5 0 -4)
1969/12/31/18:00:06.978,(-8 -9 9 -1 -5 -7 -8 -5)
1969/12/31/18:00:06.978,(-10 -7 -26 -71 -57 -12 -5 -6)
1969/12/31/18:00:06.988,(15 9 -16 -15 30 0 2 8)
1969/12/31/18:00:06.988,(4 6 38 89 21 19 10 5)
1969/12/31/18:00:07.003,(-2 3 8 3 2 -2 -2 -3)
1969/12/31/18:00:07.003,(-1 -6 -9 -26 -2 -8 -3 3)
1969/12/31/18:00:07.005,(-9 -8 -38 -128 -109 -18 -4 -5)
1969/12/31/18:00:07.005,(17 16 27 53 57 13 9 13)
1969/12/31/18:00:07.027,(10 9 37 123 91 20 4 4)
1969/12/31/18:00:07.027,(-16 -16 -13 -88 -19 -2 -5 -13)
1969/12/31/18:00:07.028,(-5 -3 0 -24 30 -6 -6 -5)
1969/12/31/18:00:07.028,(-5 -6 -21 -52 -39 -8 -4 -3)
1969/12/31/18:00:07.040,(2 4 10 29 -20 -4 0 2)
1969/12/31/18:00:07.040,(-7 -8 -17 -28 -17 -7 -4 -6)
1969/12/31/18:00:07.050,(-1 -8 -29 -40 -19 -7 -1 1)
1969/12/31/18:00:07.050,(6 3 6 34 19 1 4 4)
1969/12/31/18:00:07.065,(-5 6 30 16 -9 3 -2 -3)
1969/12/31/18:00:07.065,(0 4 5 -1 5 0 -2 -4)
1969/12/31/18:00:07.067,(11 9 20 89 61 13 6 7)
1969/12/31/18:00:07.067,(-1 1 3 -19 3 4 -1 -1)
1969/12/31/18:00:07.089,(-2 -4 -34 -63 -21 -4 0 2)
1969/12/31/18:00:07.089,(-6 -11 -5 18 5 -9 -8 -4)
1969/12/31/18:00:07.090,(-12 -17 -35 -104 -65 -19 -11 -11)
1969/12/31/18:00:07.090,(0 1 11 -17 -16 -4 0 1)
1969/12/31/18:00:07.102,(12 17 36 80 61 20 14 11)
1969/12/31/18:00:07.102,(8 11 21 10 18 6 3 4)
1969/12/31/18:00:07.112,(3 -3 -17 -33 -7 1 3 3)
1969/12/31/18:00:07.112,(-7 -11 -20 -11 10 -4 -6 -4)
1969/12/31/18:00:07.128,(-18 -10 -7 -40 -54 -20 -13 -15)
1969/12/31/18:00:07.128,(3 2 7 -3 6 1 1 2)
1969/12/31/18:00:07.134,(5 8 28 90 31 9 5 4)
1969/12/31/18:00:07.134,(-6 -5 -19 -47 -33 -7 -3 -5)
1969/12/31/18:00:07.151,(0 -10 -33 -28 -12 -7 -2 -1)
1969/12/31/18:00:07.151,(1 1 0 -19 -12 -4 2 3)
1969/12/31/18:00:07.152,(-5 1 22 43 9 1 -5 -7)
1969/12/31/18:00:07.152,(0 0 1 2 5 4 -1 2)
1969/12/31/18:00:07.165,(0 -6 -22 -32 0 -3 -3 -1)
1969/12/31/18:00:07.165,(0 -2 -5 -9 -3 0 1 2)
1969/12/31/18:00:07.174,(6 8 23 49 5 4 3 5)
1969/12/31/18:00:07.174,(-2 -3 0 14 4 1 -3 -2)
1969/12/31/18:00:07.189,(-3 -6 -2 -3 7 -2 -4 -4)
1969/12/31/18:00:07.189,(2 1 -4 -8 -11 -1 1 3)
1969/12/31/18:00:07.191,(-1 0 4 1 -2 -2 -3 -2)
1969/12/31/18:00:07.191,(-2 -1 -3 2 6 0 0 0)
1969/12/31/18:00:07.213,(-1 -2 -14 -31 -18 -4 -2 -1)
1969/12/31/18:00:07.213,(2 3 4 2 2 2 0 0)
1969/12/31/18:00:07.214,(1 3 7 22 13 5 1 0)
1969/12/31/18:00:07.214,(-3 -2 -4 -20 -5 -1 1 -2)
1969/12/31/18:00:07.227,(1 0 -8 -21 -11 -3 0 1)
1969/12/31/18:00:07.227,(-6 -2 8 35 16 1 -2 -3)
1969/12/31/18:00:07.236,(-2 -3 -2 -6 1 -1 -3 -3)
1969/12/31/18:00:07.236,(4 -5 -8 -8 -13 -7 1 6)
1969/12/31/18:00:07.251,(-1 4 4 7 4 2 4 0)
1969/12/31/18:00:07.251,(-7 -4 3 17 9 -3 -8 -12)
1969/12/31/18:00:07.258,(-2 -1 -5 -11 -7 -2 1 -1)
1969/12/31/18:00:07.258,(-1 1 -2 -11 -1 1 -1 -3)
1969/12/31/18:00:07.274,(4 -2 -4 2 1 1 0 4)
1969/12/31/18:00:07.274,(3 3 5 10 9 5 3 5)
1969/12/31/18:00:07.276,(-3 -3 -7 -10 -12 -3 -3 -4)
1969/12/31/18:00:07.276,(6 4 7 0 0 4 3 5)
1969/12/31/18:00:07.289,(2 1 2 4 13 3 1 1)
1969/12/31/18:00:07.289,(-2 -1 -4 -10 -8 -2 -2 -3)
1969/12/31/18:00:07.298,(4 1 6 2 2 3 1 2)
1969/12/31/18:00:07.298,(-7 -3 1 7 5 1 -3 -5)
1969/12/31/18:00:07.312,(-1 -2 -6 -10 -10 -2 -2 1)
1969/12/31/18:00:07.312,(1 -1 1 -2 1 0 2 2)
1969/12/31/18:00:07.320,(1 1 2 16 6 -3 -1 0)
1969/12/31/18:00:07.320,(-4 -3 -8 -18 -10 -3 -4 -4)
1969/12/31/18:00:07.336,(0 0 -3 -6 -3 -3 -3 1)
1969/12/31/18:00:07.336,(-1 0 0 1 0 1 1 -1)
1969/12/31/18:00:07.338,(-1 3 3 7 4 2 0 1)
1969/12/31/18:00:07.338,(-1 -1 1 -2 -3 -2 -1 -2)
1969/12/31/18:00:07.351,(0 -1 -2 0 0 1 -1 -1)
1969/12/31/18:00:07.351,(0 0 2 2 2 2 1 2)
1969/12/31/18:00:07.360,(-2 -3 -8 -20 -14 -3 -1 1)
1969/12/31/18:00:07.360,(-2 -2 -3 -2 -21 -2 -2 -3)
1969/12/31/18:00:07.374,(-2 -5 -9 -3 22 -1 -2 -1)
1969/12/31/18:00:07.374,(2 1 3 -31 -25 -2 2 2)
1969/12/31/18:00:07.390,(-1 2 13 65 47 7 -1 -2)
1969/12/31/18:00:07.390,(4 3 11 28 12 5 3 2)
1969/12/31/18:00:07.398,(1 0 -4 -12 -14 -2 0 -1)
1969/12/31/18:00:07.398,(-3 -4 -8 -15 -4 -3 0 -4)
1969/12/31/18:00:07.400,(-5 -3 -13 -59 -30 -8 -3 -2)
1969/12/31/18:00:07.400,(-5 1 -1 4 0 -5 -4 -5)
1969/12/31/18:00:07.413,(-6 0 9 35 5 0 -2 -3)
1969/12/31/18:00:07.413,(16 6 3 13 11 3 -2 4)
1969/12/31/18:00:07.422,(-7 -6 -5 -7 -12 -4 -5 -5)
1969/12/31/18:00:07.422,(3 1 -2 -16 5 -4 -2 0)
1969/12/31/18:00:07.436,(-3 -8 -25 -85 -42 -10 -1 -3)
1969/12/31/18:00:07.436,(2 4 17 67 21 2 2 4)
1969/12/31/18:00:07.444,(5 0 4 5 15 8 8 8)
1969/12/31/18:00:07.444,(-14 -6 2 18 5 -1 -6 -9)
1969/12/31/18:00:07.460,(3 8 7 20 9 7 6 4)
1969/12/31/18:00:07.461,(7 -1 -7 -34 -12 0 -2 1)
1969/12/31/18:00:07.462,(1 -1 -3 8 -5 -5 -2 -3)
1969/12/31/18:00:07.462,(-4 -2 -1 -10 1 1 3 -2)
1969/12/31/18:00:07.475,(3 1 6 4 0 2 7 13)
1969/12/31/18:00:07.475,(-50 -24 -12 -3 -3 -10 -15 -23)
1969/12/31/18:00:07.484,(50 16 -2 -7 -4 -1 1 11)
1969/12/31/18:00:07.484,(21 17 5 -7 4 12 20 25)
1969/12/31/18:00:07.498,(-23 -15 -12 1 -7 -14 -18 -32)
1969/12/31/18:00:07.498,(-42 -15 -3 2 3 1 3 -7)
1969/12/31/18:00:07.506,(38 13 -5 -3 0 2 9 27)
1969/12/31/18:00:07.506,(-44 -18 -5 -4 -4 -6 -7 -20)
1969/12/31/18:00:07.522,(83 24 5 -2 2 6 13 37)
1969/12/31/18:00:07.523,(-46 -17 -6 6 13 -4 -13 -33)
1969/12/31/18:00:07.524,(-24 -9 -3 -46 -16 2 4 -4)
1969/12/31/18:00:07.524,(19 3 -8 36 -1 -4 -1 7)
1969/12/31/18:00:07.546,(-34 -2 34 81 35 5 -3 -14)
1969/12/31/18:00:07.546,(28 9 11 31 4 1 1 11)
1969/12/31/18:00:07.548,(-2 -1 4 18 5 1 -2 -2)
1969/12/31/18:00:07.548,(-4 -5 -13 -57 -14 -7 -9 -8)
1969/12/31/18:00:07.560,(-10 -5 -12 -38 -19 -11 -4 -1)
1969/12/31/18:00:07.560,(16 7 -2 1 1 0 9 10)
1969/12/31/18:00:07.568,(-12 -11 -5 -8 -7 -8 -11 -8)
1969/12/31/18:00:07.568,(6 7 6 2 1 0 3 3)
1969/12/31/18:00:07.585,(-49 -24 -9 4 -6 -14 -19 -25)
1969/12/31/18:00:07.585,(70 35 4 -5 1 7 12 26)
1969/12/31/18:00:07.586,(-32 -7 -1 4 -3 -11 -15 -9)
1969/12/31/18:00:07.586,(-15 -6 -5 -12 -2 0 -2 -10)
1969/12/31/18:00:07.608,(14 1 -8 -10 1 6 5 10)
1969/12/31/18:00:07.608,(-13 -1 -5 -16 -25 -6 -2 -5)
1969/12/31/18:00:07.610,(-9 -4 6 16 0 -1 2 -5)
1969/12/31/18:00:07.610,(16 5 1 -49 -8 -5 -4 6)
1969/12/31/18:00:07.622,(0 10 34 107 30 9 6 0)
1969/12/31/18:00:07.622,(-9 -3 18 61 27 15 3 -5)
1969/12/31/18:00:07.631,(5 4 6 23 25 12 6 1)
1969/12/31/18:00:07.631,(-1 -8 -9 -10 -8 -4 -3 -1)
1969/12/31/18:00:07.654,(-9 -6 -24 -90 -26 -8 -5 -6)
1969/12/31/18:00:07.654,(18 2 -14 -41 -18 -4 2 16)
1969/12/31/18:00:07.656,(-9 2 0 9 -7 -5 -3 -6)
1969/12/31/18:00:07.656,(-16 -15 -12 -6 -1 -6 -8 -15)
1969/12/31/18:00:07.670,(14 12 -4 -23 -6 7 7 9)
1969/12/31/18:00:07.670,(16 6 13 23 12 5 8 21)
1969/12/31/18:00:07.672,(-12 0 1 -3 2 5 4 -7)
1969/12/31/18:00:07.672,(1 0 0 5 -1 1 -2 0)
1969/12/31/18:00:07.684,(0 0 6 12 7 4 1 3)
1969/12/31/18:00:07.684,(-18 -2 7 1 -10 -5 -8 -15)
1969/12/31/18:00:07.694,(23 16 -3 -10 6 3 6 1)
1969/12/31/18:00:07.694,(-7 -2 2 12 1 1 2 3)
1969/12/31/18:00:07.709,(34 17 2 1 4 3 5 6)
1969/12/31/18:00:07.709,(-20 -16 -17 -42 -8 -12 -16 -19)
1969/12/31/18:00:07.710,(-5 -8 -1 9 -8 -7 -3 -1)
1969/12/31/18:00:07.710,(6 1 5 17 8 4 1 2)
1969/12/31/18:00:07.732,(-8 -5 -19 -63 -33 -10 -3 -4)
1969/12/31/18:00:07.732,(1 -1 0 21 3 -3 0 3)
1969/12/31/18:00:07.734,(9 6 20 39 30 13 8 10)
1969/12/31/18:00:07.734,(5 7 13 41 33 16 5 0)
1969/12/31/18:00:07.746,(-26 -18 2 -2 4 0 -6 -13)
1969/12/31/18:00:07.746,(63 29 -3 -28 -13 5 19 39)
1969/12/31/18:00:07.756,(-9 -14 -11 -20 -21 -11 -10 -10)
1969/12/31/18:00:07.756,(-9 -1 -1 -4 -5 -3 2 0)
1969/12/31/18:00:07.770,(-1 5 -1 1 -2 -4 -8 -11)
1969/12/31/18:00:07.770,(-10 -9 -7 -12 -2 -1 0 -4)
1969/12/31/18:00:07.772,(2 1 -1 -5 6 1 -3 -5)
1969/12/31/18:00:07.772,(13 1 2 -1 -15 -2 2 10)
1969/12/31/18:00:07.794,(-2 3 7 20 11 3 1 4)
1969/12/31/18:00:07.794,(-12 -6 -5 3 -1 -4 -6 -10)
1969/12/31/18:00:07.796,(-7 -5 -9 -20 2 -2 -1 -2)
1969/12/31/18:00:07.796,(17 5 3 20 -9 -3 3 7)
1969/12/31/18:00:07.808,(-35 -8 7 12 -8 -6 -11 -26)
1969/12/31/18:00:07.808,(-3 -6 -27 -64 2 -4 -3 -2)
1969/12/31/18:00:07.818,(-10 -11 1 33 -1 0 -2 -1)
1969/12/31/18:00:07.818,(8 9 26 48 36 15 9 7)
1969/12/31/18:00:07.833,(-18 2 7 40 14 -7 -15 -17)
1969/12/31/18:00:07.833,(-20 -3 -2 -15 -15 -7 -9 -18)
1969/12/31/18:00:07.834,(-14 -9 -20 -52 -23 -9 -5 -6)
1969/12/31/18:00:07.834,(7 -3 -25 -38 -10 -11 -4 2)
1969/12/31/18:00:07.856,(5 7 3 2 -7 5 9 5)
1969/12/31/18:00:07.856,(-12 -1 19 6 3 12 11 4)
1969/12/31/18:00:07.858,(27 15 -12 -44 -25 -11 -1 8)
1969/12/31/18:00:07.858,(-33 -16 2 29 23 2 -5 -16)
1969/12/31/18:00:07.870,(27 6 4 21 14 12 10 19)
1969/12/31/18:00:07.870,(11 5 9 31 18 6 4 10)
1969/12/31/18:00:07.880,(6 9 12 29 1 3 4 5)
1969/12/31/18:00:07.880,(-3 -5 0 -18 -6 -5 -3 -1)
1969/12/31/18:00:07.895,(9 -3 -14 -42 -1 1 4 9)
1969/12/31/18:00:07.895,(9 5 1 22 -6 -1 1 3)
1969/12/31/18:00:07.896,(-25 -18 1 11 0 -4 -11 -16)
1969/12/31/18:00:07.896,(-3 3 -6 -30 -12 4 12 8)
1969/12/31/18:00:07.918,(44 18 -12 -33 -7 3 13 24)
1969/12/31/18:00:07.918,(-25 -7 10 14 8 1 -9 -22)
1969/12/31/18:00:07.920,(14 10 10 11 7 2 1 7)
1969/12/31/18:00:07.920,(-13 -7 -11 -20 -4 -10 -20 -30)
1969/12/31/18:00:07.932,(1 -1 7 10 -11 -2 0 2)
1969/12/31/18:00:07.932,(-21 -15 -7 -28 -18 -5 1 2)
1969/12/31/18:00:07.942,(18 8 -7 8 8 2 7 7)
1969/12/31/18:00:07.942,(9 3 8 22 17 9 8 13)
1969/12/31/18:00:07.964,(-11 -7 10 22 6 -4 -3 -9)
1969/12/31/18:00:07.964,(-4 -6 -14 -38 -6 -3 -4 -6)
1969/12/31/18:00:07.966,(-9 -5 -10 -44 -33 -12 -3 0)
1969/12/31/18:00:07.966,(0 1 15 58 22 6 1 -1)
1969/12/31/18:00:07.980,(-23 -12 7 29 23 8 -2 -9)
1969/12/31/18:00:07.980,(17 11 9 30 13 3 3 13)
1969/12/31/18:00:07.982,(-14 -20 -18 -28 -18 -10 -11 -16)
1969/12/31/18:00:07.982,(23 23 -10 -45 -25 -5 5 14)
1969/12/31/18:00:07.994,(-38 -24 -12 -22 -18 -13 -9 -14)
1969/12/31/18:00:07.994,(18 7 3 9 2 2 1 1)
1969/12/31/18:00:08.004,(-4 -5 -2 9 14 -1 -10 -11)
1969/12/31/18:00:08.004,(36 7 -1 -15 -18 4 13 22)
1969/12/31/18:00:08.019,(-18 -19 -29 -68 -17 -10 -7 -8)
1969/12/31/18:00:08.019,(0 0 -2 0 -10 -7 -3 -1)
1969/12/31/18:00:08.020,(-12 2 29 68 20 11 6 3)
1969/12/31/18:00:08.020,(-14 -5 28 77 33 5 -8 -12)
1969/12/31/18:00:08.043,(15 13 10 21 16 7 6 6)
1969/12/31/18:00:08.043,(-4 -8 -17 -25 -5 -2 -3 -3)
1969/12/31/18:00:08.044,(11 6 -11 -46 -12 2 8 9)
1969/12/31/18:00:08.044,(-4 -6 -8 -12 -20 -9 -7 -6)
1969/12/31/18:00:08.056,(20 11 1 7 4 3 2 8)
1969/12/31/18:00:08.056,(-2 -1 -7 -3 11 -4 -3 3)
1969/12/31/18:00:08.066,(-19 -13 4 10 -9 -2 -5 -10)
1969/12/31/18:00:08.066,(-3 10 -1 -28 -5 0 8 4)
1969/12/31/18:00:08.081,(-6 -3 -3 8 -2 -3 -4 -6)
1969/12/31/18:00:08.081,(-1 -6 8 35 16 4 -2 -2)
1969/12/31/18:00:08.082,(6 14 15 18 3 8 11 15)
1969/12/31/18:00:08.082,(-5 -16 -25 -45 -19 -11 -15 -16)
1969/12/31/18:00:08.104,(6 1 1 -6 -4 -3 1 5)
1969/12/31/18:00:08.104,(3 7 13 34 12 2 1 0)
1969/12/31/18:00:08.106,(1 -2 5 15 15 4 4 6)
1969/12/31/18:00:08.106,(-6 -1 -6 -20 -11 -4 -2 -3)
1969/12/31/18:00:08.118,(6 0 -15 -21 -10 -3 0 5)
1969/12/31/18:00:08.118,(-5 -8 -9 -10 -5 -3 -4 -4)
1969/12/31/18:00:08.127,(12 8 4 5 0 -3 -5 -2)
1969/12/31/18:00:08.128,(-5 -4 -7 10 -9 -5 -3 0)
1969/12/31/18:00:08.142,(-4 1 14 33 9 3 -1 -10)
1969/12/31/18:00:08.142,(-4 5 12 -5 13 6 4 -4)
1969/12/31/18:00:08.144,(-1 -8 -3 16 14 5 6 8)
1969/12/31/18:00:08.144,(52 35 -5 -21 -4 -2 3 15)
1969/12/31/18:00:08.166,(18 2 -4 -11 -8 -3 1 9)
1969/12/31/18:00:08.166,(41 25 7 -2 -4 6 14 22)
1969/12/31/18:00:08.168,(1 0 -16 -21 -9 -14 -16 -17)
1969/12/31/18:00:08.168,(-29 -18 -3 -24 -4 0 -5 -12)
1969/12/31/18:00:08.180,(-3 0 4 24 6 5 6 7)
1969/12/31/18:00:08.180,(6 1 4 -1 4 -4 -4 0)
1969/12/31/18:00:08.190,(-6 -1 -4 -4 -10 1 2 1)
1969/12/31/18:00:08.190,(-8 -8 -5 -15 10 -2 -2 -1)
1969/12/31/18:00:08.204,(3 2 6 49 -1 -2 -3 -3)
1969/12/31/18:00:08.204,(-25 -1 3 20 2 -3 -9 -19)
1969/12/31/18:00:08.211,(-5 4 14 -5 13 13 14 8)
1969/12/31/18:00:08.211,(-1 -1 -6 13 -6 -10 -11 -11)
1969/12/31/18:00:08.228,(-9 -6 -8 -24 4 1 -1 -10)
1969/12/31/18:00:08.228,(2 -4 -14 -20 -12 -3 1 6)
1969/12/31/18:00:08.230,(-5 -4 9 27 10 9 11 17)
1969/12/31/18:00:08.230,(26 11 -4 -20 -11 -9 -6 0)
1969/12/31/18:00:08.252,(10 4 0 -5 -2 -3 -7 -2)
1969/12/31/18:00:08.252,(11 12 6 9 -1 13 23 25)
1969/12/31/18:00:08.253,(4 4 -14 -39 -9 -1 -4 -5)
1969/12/31/18:00:08.253,(-5 -2 13 27 11 5 3 3)
1969/12/31/18:00:08.266,(-23 -14 -13 -28 -7 -4 -4 -8)
1969/12/31/18:00:08.266,(-3 -6 11 39 3 -3 -6 -3)
1969/12/31/18:00:08.273,(31 22 7 15 7 -6 -7 -5)
1969/12/31/18:00:08.273,(-27 -14 1 -9 -8 4 4 -4)
1969/12/31/18:00:08.290,(5 -1 7 3 -9 1 7 12)
1969/12/31/18:00:08.290,(37 23 3 -8 1 6 13 19)
1969/12/31/18:00:08.292,(-27 -13 -4 0 2 3 -4 -18)
1969/12/31/18:00:08.292,(-32 -24 -9 -2 -3 -10 -15 -16)
1969/12/31/18:00:08.304,(-14 -19 -8 -21 3 7 15 12)
1969/12/31/18:00:08.304,(43 2 1 -5 -1 8 16 40)
1969/12/31/18:00:08.313,(-2 -9 -9 -1 1 -2 -5 -11)
1969/12/31/18:00:08.313,(50 28 7 5 8 11 14 14)
1969/12/31/18:00:08.328,(19 6 3 2 -2 -3 -3 8)
1969/12/31/18:00:08.328,(-46 -23 -6 -8 -6 -9 -11 -26)
1969/12/31/18:00:08.335,(9 4 -1 2 1 1 3 10)
1969/12/31/18:00:08.335,(-18 -12 -11 -41 -13 -6 -8 -8)
1969/12/31/18:00:08.352,(-17 -1 10 33 1 -7 -8 -14)
1969/12/31/18:00:08.352,(-13 -6 -4 -8 -9 -12 -14 -21)
1969/12/31/18:00:08.354,(3 6 0 5 5 9 10 10)
1969/12/31/18:00:08.354,(11 11 9 23 17 16 15 17)
1969/12/31/18:00:08.366,(-6 0 -8 -26 0 1 -5 -8)
1969/12/31/18:00:08.366,(-33 -24 -20 -22 -8 -11 -17 -26)
1969/12/31/18:00:08.376,(5 -6 17 19 -11 -2 5 9)
1969/12/31/18:00:08.376,(2 15 12 36 9 4 6 4)
1969/12/31/18:00:08.390,(8 -6 -4 -9 5 0 0 0)
1969/12/31/18:00:08.390,(-7 -9 -12 -7 -3 -6 -9 -5)
1969/12/31/18:00:08.397,(-24 -11 -5 -31 -4 -3 -3 -10)
1969/12/31/18:00:08.397,(18 15 -6 16 -3 -6 -9 -2)
1969/12/31/18:00:08.414,(-24 -3 1 -17 -11 -4 -7 -19)
1969/12/31/18:00:08.414,(-5 0 -1 -2 -2 -10 -11 -12)
1969/12/31/18:00:08.416,(13 6 0 14 5 12 23 31)
1969/12/31/18:00:08.416,(-31 -18 4 -4 -11 -12 -16 -21)
1969/12/31/18:00:08.428,(32 15 -31 -81 -16 3 12 24)
1969/12/31/18:00:08.428,(-8 -9 -8 39 -4 1 2 -2)
1969/12/31/18:00:08.438,(-6 1 37 90 41 9 -5 -5)
1969/12/31/18:00:08.438,(-22 -19 12 25 29 11 5 -2)
1969/12/31/18:00:08.452,(-23 -11 17 50 3 -6 -11 -10)
1969/12/31/18:00:08.452,(8 15 -8 -60 -10 6 13 13)
1969/12/31/18:00:08.459,(1 -2 -28 -49 -26 -13 -11 -9)
1969/12/31/18:00:08.459,(-9 -11 3 2 -2 -5 -3 -1)
1969/12/31/18:00:08.484,(4 8 11 15 10 2 -3 -6)
1969/12/31/18:00:08.484,(-5 -7 0 -7 -2 3 6 7)
1969/12/31/18:00:08.485,(27 7 -10 -21 -9 -5 -2 9)
1969/12/31/18:00:08.485,(-33 -11 -6 -31 -8 -4 -5 -18)
1969/12/31/18:00:08.500,(7 1 -4 10 -4 -7 -5 -2)
1969/12/31/18:00:08.500,(-10 -6 1 5 0 -5 -9 -10)
1969/12/31/18:00:08.501,(53 25 -4 -6 2 -2 3 13)
1969/12/31/18:00:08.501,(-12 10 11 5 -3 6 2 -9)
1969/12/31/18:00:08.513,(-16 -12 -14 -40 -3 -1 3 0)
1969/12/31/18:00:08.513,(-2 -2 4 23 6 -1 -8 -13)
1969/12/31/18:00:08.522,(-30 -15 3 12 2 -7 -10 -18)
1969/12/31/18:00:08.522,(22 8 7 -21 -32 1 8 15)
1969/12/31/18:00:08.538,(14 17 23 101 37 5 2 7)
1969/12/31/18:00:08.538,(-18 -7 -1 11 17 -1 -8 -15)
1969/12/31/18:00:08.540,(-37 -16 -12 -31 -5 -5 -2 -6)
1969/12/31/18:00:08.540,(34 8 -12 -9 -3 3 7 9)
1969/12/31/18:00:08.562,(-25 -14 -3 -29 -16 -2 0 -3)
1969/12/31/18:00:08.562,(-9 -6 -12 -26 -19 -11 -14 -15)
1969/12/31/18:00:08.563,(-18 -10 0 8 -1 -1 -4 -7)
1969/12/31/18:00:08.563,(11 6 0 -1 -3 -10 -5 3)
1969/12/31/18:00:08.575,(13 3 -11 -28 -6 5 9 14)
1969/12/31/18:00:08.575,(18 2 -8 16 5 2 8 21)
1969/12/31/18:00:08.584,(-41 -4 17 0 -1 -5 -19 -44)
1969/12/31/18:00:08.584,(11 -4 -6 15 5 -7 -9 -1)
1969/12/31/18:00:08.599,(-3 3 4 2 -4 -4 -5 -7)
1969/12/31/18:00:08.599,(11 0 2 -7 -3 -1 1 11)
1969/12/31/18:00:08.614,(-15 -14 -12 -26 -7 1 -1 0)
1969/12/31/18:00:08.614,(12 -2 -1 15 9 9 17 23)
1969/12/31/18:00:08.624,(-10 3 9 15 9 5 2 -12)
1969/12/31/18:00:08.624,(-8 1 7 -7 -8 -5 -6 -11)
1969/12/31/18:00:08.625,(-2 -6 -11 -14 -7 -6 -1 1)
1969/12/31/18:00:08.625,(14 6 -4 5 12 13 18 28)
1969/12/31/18:00:08.637,(23 7 -3 -2 3 3 6 13)
1969/12/31/18:00:08.637,(-46 -15 10 5 6 11 9 -4)
1969/12/31/18:00:08.646,(17 6 -8 -2 -5 -4 -5 -8)
1969/12/31/18:00:08.646,(9 13 -6 -5 -10 -12 -5 0)
1969/12/31/18:00:08.662,(-3 -5 1 -3 -1 -5 -7 -2)
1969/12/31/18:00:08.662,(9 0 5 1 3 4 9 8)
1969/12/31/18:00:08.664,(-16 -17 -8 4 -5 -16 -17 -8)
1969/12/31/18:00:08.664,(22 18 4 -4 0 -5 -10 -9)
1969/12/31/18:00:08.686,(-20 -5 4 1 -2 4 4 -2)
1969/12/31/18:00:08.686,(-7 -1 0 3 2 -6 -8 -9)
1969/12/31/18:00:08.687,(12 5 2 -1 3 10 13 16)
1969/12/31/18:00:08.687,(-33 -22 -8 0 0 -2 -6 -20)
1969/12/31/18:00:08.699,(36 15 -1 -9 -5 -3 1 21)
1969/12/31/18:00:08.700,(-2 2 3 7 1 0 -5 -15)
1969/12/31/18:00:08.717,(0 4 5 2 0 0 3 3)
1969/12/31/18:00:08.717,(-29 -24 -12 -20 -4 -1 -3 -8)
1969/12/31/18:00:08.724,(35 21 2 8 2 10 17 26)
1969/12/31/18:00:08.724,(1 4 11 11 -2 1 -3 -5)
1969/12/31/18:00:08.726,(2 1 3 -6 1 -4 -4 -2)
1969/12/31/18:00:08.726,(3 -4 -4 10 1 -2 2 4)
1969/12/31/18:00:08.748,(-34 -26 -4 -4 -3 -13 -24 -31)
1969/12/31/18:00:08.748,(-1 -7 -8 -13 1 11 16 13)
1969/12/31/18:00:08.749,(15 9 -1 2 -5 -2 -6 -5)
1969/12/31/18:00:08.749,(-17 -8 -2 -8 -2 -5 -10 -12)
1969/12/31/18:00:08.761,(-6 9 6 -2 1 4 9 2)
1969/12/31/18:00:08.761,(-2 -2 -2 -2 1 3 6 5)
1969/12/31/18:00:08.770,(-33 -17 -5 2 -2 -7 -11 -16)
1969/12/31/18:00:08.770,(7 11 10 1 13 22 22 11)
1969/12/31/18:00:08.786,(0 -7 -7 -4 -6 -8 -9 -6)
1969/12/31/18:00:08.786,(6 3 -2 -10 -3 -5 -7 -7)
1969/12/31/18:00:08.788,(10 12 1 6 6 5 8 8)
1969/12/31/18:00:08.788,(6 5 -4 -12 -11 3 3 8)
1969/12/31/18:00:08.810,(-18 -6 15 36 8 3 1 -7)
1969/12/31/18:00:08.810,(-5 -7 -2 12 4 -10 -13 -16)
1969/12/31/18:00:08.811,(-1 1 2 2 2 3 7 10)
1969/12/31/18:00:08.811,(-21 -16 -10 -30 -5 -3 -4 -11)
1969/12/31/18:00:08.823,(-1 -5 -7 -6 -3 -2 2 1)
1969/12/31/18:00:08.823,(0 -3 2 6 -3 -8 -9 -3)
1969/12/31/18:00:08.832,(16 10 9 20 9 7 5 5)
1969/12/31/18:00:08.832,(20 13 1 6 1 -1 2 11)
1969/12/31/18:00:08.848,(-5 -7 -18 -23 -5 -4 -10 -13)
1969/12/31/18:00:08.848,(6 1 -4 -11 -12 -4 -2 -1)
1969/12/31/18:00:08.850,(12 15 4 -13 -12 4 13 19)
1969/12/31/18:00:08.850,(-18 -16 1 13 5 -6 -8 -20)
1969/12/31/18:00:08.872,(1 -7 -2 3 7 2 0 1)
1969/12/31/18:00:08.872,(89 66 4 2 10 14 25 41)
1969/12/31/18:00:08.873,(-31 -18 -6 -8 -7 -6 -14 -25)
1969/12/31/18:00:08.873,(-30 -17 -12 -23 -23 -20 -23 -23)
1969/12/31/18:00:08.885,(24 15 4 12 17 18 22 25)
1969/12/31/18:00:08.885,(-14 -13 0 -3 -10 -1 -4 -6)
1969/12/31/18:00:08.894,(-7 -8 3 33 19 3 -1 -5)
1969/12/31/18:00:08.894,(9 9 19 29 10 12 12 6)
1969/12/31/18:00:08.910,(69 37 9 -3 11 18 27 33)
1969/12/31/18:00:08.910,(-16 -18 -22 -30 -12 -5 -4 -7)
1969/12/31/18:00:08.912,(22 7 -5 -23 -10 -2 0 7)
1969/12/31/18:00:08.912,(-35 -23 -7 5 3 -8 -11 -17)
1969/12/31/18:00:08.934,(-12 -7 4 4 -1 2 4 8)
1969/12/31/18:00:08.934,(-4 -1 6 10 3 0 -1 -7)
1969/12/31/18:00:08.935,(15 10 7 8 6 2 0 2)
1969/12/31/18:00:08.935,(8 2 -2 4 2 0 2 9)
1969/12/31/18:00:08.947,(-6 -12 -9 -18 -19 -19 -20 -9)
1969/12/31/18:00:08.947,(-45 -18 3 3 6 6 -1 -22)
1969/12/31/18:00:08.956,(-17 -15 -8 -7 -6 -6 -6 -13)
1969/12/31/18:00:08.956,(9 5 -4 -22 -8 -1 1 9)
1969/12/31/18:00:08.971,(-22 -5 6 22 -5 -14 -24 -32)
1969/12/31/18:00:08.971,(6 5 3 -7 10 6 9 14)
1969/12/31/18:00:08.972,(1 -4 0 4 0 4 9 15)
1969/12/31/18:00:08.972,(11 7 5 15 7 8 2 -6)
1969/12/31/18:00:08.995,(-5 -4 -4 -14 -7 -2 -3 -3)
1969/12/31/18:00:08.995,(1 -5 -13 -25 -15 -14 -12 -7)
1969/12/31/18:00:08.996,(16 5 -7 -10 -14 0 10 22)
1969/12/31/18:00:08.996,(14 1 15 39 17 3 2 14)
1969/12/31/18:00:09.017,(-19 -8 -3 2 -2 -9 -15 -20)
1969/12/31/18:00:09.017,(2 -5 -3 1 3 2 4 10)
1969/12/31/18:00:09.018,(-16 -15 -8 -20 -10 -8 -11 -16)
1969/12/31/18:00:09.018,(12 9 -6 -12 -7 1 4 7)
1969/12/31/18:00:09.035,(3 9 2 1 3 2 4 5)
1969/12/31/18:00:09.035,(-4 -4 0 3 0 -4 -8 -8)
1969/12/31/18:00:09.036,(-4 -2 1 -6 -4 -4 -7 -7)
1969/12/31/18:00:09.036,(10 14 -5 2 4 7 14 16)
1969/12/31/18:00:09.057,(-5 -4 4 -1 2 2 2 3)
1969/12/31/18:00:09.057,(0 0 -3 3 -3 -6 -7 -6)
1969/12/31/18:00:09.058,(-1 3 1 5 2 2 -1 -8)
1969/12/31/18:00:09.058,(-5 -3 -2 -8 2 0 3 7)
1969/12/31/18:00:09.079,(-7 -10 -10 -7 -8 -6 -5 -14)
1969/12/31/18:00:09.079,(-8 6 15 21 5 6 4 0)
1969/12/31/18:00:09.081,(1 -1 2 1 -3 -7 -2 6)
1969/12/31/18:00:09.081,(-13 -14 -5 4 6 3 -1 -6)
1969/12/31/18:00:09.095,(18 1 11 10 8 11 16 20)
1969/12/31/18:00:09.095,(81 65 0 2 0 3 13 29)
1969/12/31/18:00:09.096,(-43 -23 -7 -25 -1 -14 -23 -35)
1969/12/31/18:00:09.096,(63 25 0 -1 -12 1 9 28)
1969/12/31/18:00:09.119,(-49 -14 -1 2 -4 -10 -19 -34)
1969/12/31/18:00:09.119,(-8 -13 -3 7 8 1 2 3)
1969/12/31/18:00:09.120,(22 10 -2 -7 2 10 11 19)
1969/12/31/18:00:09.120,(-12 -2 -5 -18 -8 -7 -7 -12)
1969/12/31/18:00:09.141,(2 2 4 19 13 0 -2 0)
1969/12/31/18:00:09.141,(-1 -5 5 11 -1 -2 -3 -4)
1969/12/31/18:00:09.143,(0 4 -10 -22 -9 7 9 1)
1969/12/31/18:00:09.143,(-27 -15 2 -10 1 1 -5 -11)
1969/12/31/18:00:09.157,(-25 -19 0 15 -11 -12 -15 -21)
1969/12/31/18:00:09.157,(31 26 17 17 21 16 16 18)
1969/12/31/18:00:09.158,(49 25 9 17 19 19 32 46)
1969/12/31/18:00:09.158,(-22 -14 -6 -12 -8 -6 -7 -12)
1969/12/31/18:00:09.181,(9 2 -9 -22 -5 2 7 9)
1969/12/31/18:00:09.181,(-5 5 -4 -2 -5 -5 -7 -8)
1969/12/31/18:00:09.188,(-14 -11 1 3 -4 -5 -5 -5)
1969/12/31/18:00:09.189,(-14 0 1 4 4 3 1 -5)
1969/12/31/18:00:09.203,(-21 -12 -11 -11 -8 -12 -17 -30)
1969/12/31/18:00:09.203,(-7 -14 -12 -12 -1 4 4 3)
1969/12/31/18:00:09.205,(54 33 12 5 4 13 23 36)
1969/12/31/18:00:09.205,(-16 -7 -4 7 -2 -7 -9 -12)
1969/12/31/18:00:09.219,(-2 1 3 -2 -1 -2 -2 0)
1969/12/31/18:00:09.219,(-24 -18 -1 -2 -5 -8 -10 -15)
1969/12/31/18:00:09.220,(-4 -3 0 1 3 -2 -4 -8)
1969/12/31/18:00:09.220,(-13 -16 -1 2 -7 -5 -5 -4)
1969/12/31/18:00:09.243,(34 27 8 13 15 22 30 35)
1969/12/31/18:00:09.243,(-5 -10 -9 -18 -16 -9 -7 -4)
1969/12/31/18:00:09.244,(-8 -2 -2 9 6 -3 -7 -6)
1969/12/31/18:00:09.244,(-14 -6 12 26 3 -3 -9 -13)
1969/12/31/18:00:09.267,(18 10 3 -1 0 -1 1 6)
1969/12/31/18:00:09.267,(-17 -14 -5 -5 3 -1 0 -5)
1969/12/31/18:00:09.268,(-2 3 1 -3 2 5 6 -2)
1969/12/31/18:00:09.268,(14 4 -11 -22 -12 -11 -9 3)
1969/12/31/18:00:09.281,(-2 2 -7 -11 -8 -3 -4 -4)
1969/12/31/18:00:09.281,(-17 -9 -5 -3 -2 -4 -11 -20)
1969/12/31/18:00:09.282,(-37 -28 -1 0 -5 -8 -13 -20)
1969/12/31/18:00:09.282,(45 27 -6 -6 -1 -1 4 9)
1969/12/31/18:00:09.305,(-2 -2 1 -6 -5 -6 -7 -2)
1969/12/31/18:00:09.305,(-5 -10 -2 -1 -2 -2 -1 3)
1969/12/31/18:00:09.306,(-27 -16 -6 0 -4 -6 -12 -17)
1969/12/31/18:00:09.306,(-1 3 4 1 3 6 8 6)
1969/12/31/18:00:09.319,(0 1 0 -7 0 1 2 2)
1969/12/31/18:00:09.319,(-8 -9 -12 -35 -16 -1 -2 -6)
1969/12/31/18:00:09.327,(3 2 11 44 9 3 1 4)
1969/12/31/18:00:09.327,(-10 2 14 35 12 2 0 -6)
1969/12/31/18:00:09.343,(16 9 0 -2 0 2 5 9)
1969/12/31/18:00:09.343,(-4 -2 0 -5 -2 -3 -5 -1)
1969/12/31/18:00:09.344,(-1 0 -7 -21 -7 -5 -6 -7)
1969/12/31/18:00:09.344,(-1 -8 -11 -16 -8 -1 3 5)
1969/12/31/18:00:09.367,(-24 -8 7 5 3 -1 -3 -14)
1969/12/31/18:00:09.367,(12 15 6 11 11 11 17 23)
1969/12/31/18:00:09.368,(-73 -39 -10 -6 -8 -7 -15 -34)
1969/12/31/18:00:09.368,(-7 -7 -4 -2 2 -2 -12 -19)
1969/12/31/18:00:09.391,(-4 -6 -4 -7 -5 -7 -7 -2)
1969/12/31/18:00:09.391,(-9 -8 -1 3 -1 -7 -7 -11)
1969/12/31/18:00:09.392,(59 36 12 9 8 12 19 26)
1969/12/31/18:00:09.392,(-5 -3 0 -1 2 2 1 4)
1969/12/31/18:00:09.406,(-7 -7 -7 -11 -7 -4 -4 -6)
1969/12/31/18:00:09.406,(-9 -8 0 -1 11 -1 -2 -5)
1969/12/31/18:00:09.406,(7 1 -5 -11 -20 -6 -3 0)
1969/12/31/18:00:09.406,(-6 0 8 19 1 1 0 -2)
1969/12/31/18:00:09.429,(28 17 6 11 17 9 10 15)
1969/12/31/18:00:09.429,(-3 -1 5 15 2 2 -1 -2)
1969/12/31/18:00:09.430,(6 4 2 -4 4 -3 -2 3)
1969/12/31/18:00:09.430,(2 4 -6 -18 -7 -2 0 1)
1969/12/31/18:00:09.453,(-2 -2 -5 -15 -11 2 4 6)
1969/12/31/18:00:09.453,(4 1 -3 -5 -1 0 -1 -1)
1969/12/31/18:00:09.454,(-6 -6 -2 6 2 -6 -9 -11)
1969/12/31/18:00:09.454,(0 -7 3 9 -9 -2 0 2)
1969/12/31/18:00:09.467,(-8 -6 0 2 9 4 8 8)
1969/12/31/18:00:09.467,(4 13 6 2 0 5 -2 -13)
1969/12/31/18:00:09.468,(7 4 -4 -4 0 -4 -5 -2)
1969/12/31/18:00:09.468,(-2 -1 1 -3 2 -3 -3 -3)
1969/12/31/18:00:09.491,(-6 -9 -5 -1 -6 -3 -4 -3)
1969/12/31/18:00:09.491,(20 8 -1 0 -2 2 7 20)
1969/12/31/18:00:09.491,(3 2 -5 -5 -5 -3 -1 0)
1969/12/31/18:00:09.491,(-8 -2 1 -6 6 4 5 0)
1969/12/31/18:00:09.515,(1 1 -1 -7 -8 -3 -1 -3)
1969/12/31/18:00:09.515,(-1 -1 2 11 -6 5 7 8)
1969/12/31/18:00:09.516,(14 12 8 14 5 4 5 10)
1969/12/31/18:00:09.516,(0 1 4 7 6 -4 -4 -2)
1969/12/31/18:00:09.529,(4 -7 -9 -6 -2 -5 -5 -4)
1969/12/31/18:00:09.529,(3 -1 0 0 1 -2 -3 -1)
1969/12/31/18:00:09.530,(-11 -9 -12 -15 -8 -4 -6 -11)
1969/12/31/18:00:09.530,(-5 -2 0 -5 -2 1 0 -1)
1969/12/31/18:00:09.553,(-11 -9 -1 1 -5 -8 -11 -13)
1969/12/31/18:00:09.553,(50 30 2 -6 -2 2 14 30)
1969/12/31/18:00:09.554,(5 -3 -3 -2 1 -3 -8 -11)
1969/12/31/18:00:09.554,(-4 -5 -3 -3 0 0 -2 -3)
1969/12/31/18:00:09.577,(-1 2 0 -1 1 4 3 3)
1969/12/31/18:00:09.577,(-48 -36 -1 1 -9 -15 -19 -25)
1969/12/31/18:00:09.578,(16 24 17 5 13 17 22 25)
1969/12/31/18:00:09.578,(7 6 -1 -2 0 1 3 4)
1969/12/31/18:00:09.592,(-1 0 -4 -1 -5 -3 -4 -3)
1969/12/31/18:00:09.592,(-14 -9 -2 0 -1 -2 -4 -10)
1969/12/31/18:00:09.592,(-3 -5 1 6 2 0 3 3)
1969/12/31/18:00:09.592,(-1 1 -2 -4 0 1 -1 -6)
1969/12/31/18:00:09.615,(-3 -3 -1 -1 -1 2 2 8)
1969/12/31/18:00:09.615,(27 15 2 1 0 2 2 11)
1969/12/31/18:00:09.616,(6 3 1 6 4 7 6 4)
1969/12/31/18:00:09.616,(-8 -4 -3 -4 -9 -9 -12 -11)
1969/12/31/18:00:09.639,(-19 -12 -2 -1 -1 -2 0 -4)
1969/12/31/18:00:09.639,(-5 -2 -1 4 5 5 4 0)
1969/12/31/18:00:09.640,(0 -8 -5 -1 -2 -3 -2 2)
1969/12/31/18:00:09.640,(2 9 6 1 2 6 10 10)
1969/12/31/18:00:09.654,(-10 -11 -2 -2 -5 -7 -8 -9)
1969/12/31/18:00:09.654,(-22 -8 -2 -4 -2 -4 -5 -13)
1969/12/31/18:00:09.654,(5 1 -3 -3 1 5 5 7)
1969/12/31/18:00:09.654,(-6 -6 0 3 0 -1 -3 -3)
1969/12/31/18:00:09.677,(12 13 3 8 13 2 0 4)
1969/12/31/18:00:09.677,(-2 -3 -1 -4 -16 -5 -3 -6)
1969/12/31/18:00:09.678,(0 2 -12 -63 -27 -10 -6 -6)
1969/12/31/18:00:09.678,(8 -1 -3 22 7 3 6 9)
1969/12/31/18:00:09.701,(13 10 12 29 17 13 10 8)
1969/12/31/18:00:09.701,(-6 -1 7 25 17 0 -7 -9)
1969/12/31/18:00:09.701,(-12 -10 0 5 -1 -5 -7 -10)
1969/12/31/18:00:09.701,(-1 -5 -6 -27 -9 -4 -2 0)
1969/12/31/18:00:09.715,(9 6 -5 -18 -11 -2 2 2)
1969/12/31/18:00:09.715,(-7 -9 -6 2 5 -4 -4 -3)
1969/12/31/18:00:09.716,(-30 -6 9 15 4 8 8 0)
1969/12/31/18:00:09.716,(8 6 -3 -5 -5 5 11 11)
1969/12/31/18:00:09.747,(-1 -1 -4 3 -1 -3 -3 -5)
1969/12/31/18:00:09.747,(0 3 1 -23 -25 -8 -5 -1)
1969/12/31/18:00:09.748,(7 1 -1 19 15 -3 -2 5)
1969/12/31/18:00:09.748,(14 8 3 16 17 13 11 14)
1969/12/31/18:00:09.763,(-7 -3 -1 -1 -1 2 -1 -2)
1969/12/31/18:00:09.763,(-4 -2 -2 -13 -8 -2 4 1)
1969/12/31/18:00:09.764,(3 -3 -3 -9 -2 -7 -8 -4)
1969/12/31/18:00:09.764,(-9 -4 -1 -4 -4 -7 -7 -10)
1969/12/31/18:00:09.777,(9 4 3 8 9 3 1 2)
1969/12/31/18:00:09.778,(5 4 -7 -22 -5 6 3 2)
1969/12/31/18:00:09.778,(2 -1 -7 -28 -2 1 -2 -2)
1969/12/31/18:00:09.778,(-1 -1 14 57 15 2 -2 -5)
1969/12/31/18:00:09.801,(-4 2 12 27 2 -2 -4 -6)
1969/12/31/18:00:09.801,(-8 -8 0 18 10 -3 -5 -6)
1969/12/31/18:00:09.802,(-15 -7 -5 -14 -11 -5 -7 -15)
1969/12/31/18:00:09.802,(13 0 -12 -39 -12 -1 6 17)
1969/12/31/18:00:09.825,(3 7 -4 -22 -9 1 6 7)
1969/12/31/18:00:09.825,(1 1 2 2 2 2 -1 -1)
1969/12/31/18:00:09.826,(-5 -6 -1 10 0 -6 -7 -8)
1969/12/31/18:00:09.826,(0 1 -1 -9 -6 -6 -5 -6)
1969/12/31/18:00:09.839,(7 0 -3 1 -2 2 5 8)
1969/12/31/18:00:09.839,(-9 2 3 1 9 8 8 4)
1969/12/31/18:00:09.840,(-12 -4 -2 8 -1 -2 -4 0)
1969/12/31/18:00:09.840,(-22 -12 -1 2 -3 -7 -11 -25)
1969/12/31/18:00:09.863,(42 22 10 2 5 5 8 31)
1969/12/31/18:00:09.863,(-22 -16 -12 -7 -6 -10 -15 -20)
1969/12/31/18:00:09.864,(31 13 4 16 5 4 4 11)
1969/12/31/18:00:09.864,(1 0 -3 -9 -2 0 1 3)
1969/12/31/18:00:09.887,(-8 -4 -4 -12 -3 -4 -2 -8)
1969/12/31/18:00:09.887,(7 4 1 4 3 0 2 7)
1969/12/31/18:00:09.888,(3 2 4 6 -1 -1 0 3)
1969/12/31/18:00:09.888,(-6 -2 -5 -11 -3 -3 -4 -7)
1969/12/31/18:00:09.901,(-3 -4 -5 -4 -1 -2 -3 -8)
1969/12/31/18:00:09.901,(8 4 3 12 10 7 6 9)
1969/12/31/18:00:09.909,(-10 -7 0 6 0 -2 -3 -8)
1969/12/31/18:00:09.909,(2 3 4 -2 1 0 0 1)
1969/12/31/18:00:09.925,(-12 -6 -3 -8 -16 -3 0 -3)
1969/12/31/18:00:09.925,(31 11 -1 -4 -1 -4 -3 7)
1969/12/31/18:00:09.926,(-4 -1 2 6 5 1 -5 -11)
1969/12/31/18:00:09.926,(-10 -4 -1 -2 1 1 -3 -7)
1969/12/31/18:00:09.949,(-4 -4 -3 -3 0 -2 -4 -5)
1969/12/31/18:00:09.949,(-1 -2 -2 -3 -6 -3 -2 -3)
1969/12/31/18:00:09.950,(6 0 -3 -9 -4 -2 3 7)
1969/12/31/18:00:09.950,(14 8 1 8 1 -1 1 6)
1969/12/31/18:00:09.982,(-1 -2 3 3 2 -2 -5 -6)
1969/12/31/18:00:09.982,(-16 1 8 10 5 2 2 -1)
1969/12/31/18:00:09.983,(0 -1 -5 -12 -9 -2 1 1)
1969/12/31/18:00:09.983,(-6 -6 -4 -2 5 2 1 0)
1969/12/31/18:00:09.987,(-7 -7 -8 -9 -7 -2 0 -3)
1969/12/31/18:00:09.987,(15 8 -1 -6 1 1 5 9)
1969/12/31/18:00:09.988,(2 2 9 37 10 0 1 1)
1969/12/31/18:00:09.988,(3 3 6 6 -7 -2 -6 -4)
1969/12/31/18:00:10.011,(-15 -6 8 14 9 0 -1 -7)
1969/12/31/18:00:10.011,(28 10 -4 -10 2 11 14 20)
1969/12/31/18:00:10.012,(-21 -5 -2 -11 0 2 2 -8)
1969/12/31/18:00:10.012,(-3 -6 -6 -7 -1 -1 2 2)
1969/12/31/18:00:10.025,(3 0 -2 -4 -4 -4 -7 -7)
1969/12/31/18:00:10.025,(-21 -7 2 0 0 0 0 -8)
1969/12/31/18:00:10.026,(9 5 -1 0 0 0 1 7)
1969/12/31/18:00:10.026,(-3 -3 0 -1 1 -1 0 2)
1969/12/31/18:00:10.049,(2 1 -1 -6 2 1 2 1)
1969/12/31/18:00:10.049,(0 -4 -3 -3 -7 -5 -6 -1)
1969/12/31/18:00:10.050,(4 0 1 -1 0 0 2 2)
1969/12/31/18:00:10.050,(-11 -5 -3 -3 -2 -2 -7 -8)
1969/12/31/18:00:10.073,(5 -1 -1 10 4 2 3 5)
1969/12/31/18:00:10.073,(-5 -3 4 6 0 -4 -7 -9)
1969/12/31/18:00:10.074,(-11 -5 2 6 2 0 3 10)
1969/12/31/18:00:10.074,(23 13 1 -7 2 8 3 -9)
1969/12/31/18:00:10.096,(-12 -6 -8 -11 -6 -5 -5 -8)
1969/12/31/18:00:10.096,(-5 -6 -6 0 -5 -6 -7 -10)
1969/12/31/18:00:10.096,(-10 -8 -6 -5 0 4 2 -6)
1969/12/31/18:00:10.096,(-4 -2 -1 -9 -6 -2 -1 5)
1969/12/31/18:00:10.111,(1 4 3 2 2 4 1 -1)
1969/12/31/18:00:10.111,(-12 -7 -2 2 -1 -7 -10 -13)
1969/12/31/18:00:10.111,(14 5 -2 -9 0 0 2 7)
1969/12/31/18:00:10.111,(8 5 3 10 -5 3 7 11)
1969/12/31/18:00:10.135,(1 1 2 1 3 1 4 2)
1969/12/31/18:00:10.135,(6 4 1 2 0 -2 1 5)
1969/12/31/18:00:10.136,(2 -4 -4 -2 1 -2 -4 -1)
1969/12/31/18:00:10.136,(-4 -2 -2 -4 0 -2 -1 -1)
1969/12/31/18:00:10.149,(-15 -11 -5 -9 -2 -2 -5 -7)
1969/12/31/18:00:10.149,(11 8 5 16 3 -7 -6 -6)
1969/12/31/18:00:10.157,(-26 -16 -1 1 -4 -4 -4 -7)
1969/12/31/18:00:10.157,(1 5 -2 -2 4 2 -2 -8)
1969/12/31/18:00:10.173,(4 -1 -7 -7 -7 -2 -1 0)
1969/12/31/18:00:10.173,(-7 -5 -5 -8 -2 -1 -3 -5)
1969/12/31/18:00:10.174,(-3 -4 -2 1 -1 0 -2 -1)
1969/12/31/18:00:10.174,(0 -2 -2 -1 -1 -2 -1 2)
1969/12/31/18:00:10.197,(3 3 2 -1 2 2 6 5)
1969/12/31/18:00:10.197,(-13 -6 -1 -1 0 3 2 -2)
1969/12/31/18:00:10.198,(6 5 1 0 -4 -3 -3 -2)
1969/12/31/18:00:10.198,(-8 -4 -2 -12 -5 0 1 2)
1969/12/31/18:00:10.220,(16 4 -1 11 3 -2 1 8)
1969/12/31/18:00:10.220,(-9 -3 3 8 5 2 -3 -4)
1969/12/31/18:00:10.220,(10 5 -2 -12 2 2 1 3)
1969/12/31/18:00:10.220,(3 -2 -8 -29 -17 -1 3 3)
1969/12/31/18:00:10.235,(-10 -6 5 25 0 -5 -6 -8)
1969/12/31/18:00:10.235,(-1 0 5 22 14 4 1 2)
1969/12/31/18:00:10.236,(10 12 10 17 0 3 3 5)
1969/12/31/18:00:10.236,(-4 -3 0 1 1 -1 -1 3)
1969/12/31/18:00:10.259,(-7 -5 -4 -26 -16 -8 -8 -8)
1969/12/31/18:00:10.259,(7 2 -9 -21 0 8 14 14)
1969/12/31/18:00:10.260,(5 2 -1 2 0 -1 -4 -3)
1969/12/31/18:00:10.260,(-5 -7 -2 6 1 -1 -2 0)
1969/12/31/18:00:10.273,(-1 -3 -3 -1 2 3 2 -1)
1969/12/31/18:00:10.273,(8 6 2 -2 0 0 1 5)
1969/12/31/18:00:10.281,(-2 -1 -3 -3 -4 -5 -3 -3)
1969/12/31/18:00:10.281,(-3 1 5 8 -1 -4 -4 -1)
1969/12/31/18:00:10.297,(-4 -2 -3 -6 0 1 0 -1)
1969/12/31/18:00:10.297,(-4 -7 -5 -12 -4 -1 -1 -2)
1969/12/31/18:00:10.298,(8 3 0 14 8 6 7 11)
1969/12/31/18:00:10.298,(-5 -3 -6 -21 6 -5 -4 -6)
1969/12/31/18:00:10.321,(2 -1 -8 -17 -40 -17 -2 1)
1969/12/31/18:00:10.321,(5 10 22 41 12 4 4 4)
1969/12/31/18:00:10.322,(0 4 19 51 32 14 1 -4)
1969/12/31/18:00:10.322,(-1 -1 4 38 38 12 1 -3)
1969/12/31/18:00:10.335,(-1 -4 -10 -30 4 3 -1 1)
1969/12/31/18:00:10.335,(-4 -2 10 -27 -24 -4 -2 -1)
1969/12/31/18:00:10.343,(1 7 24 8 -5 -2 0 2)
1969/12/31/18:00:10.343,(7 7 -13 -11 -14 1 12 15)
1969/12/31/18:00:10.359,(5 -8 -60 -41 -10 -10 -7 -2)
1969/12/31/18:00:10.359,(-6 -28 -60 -44 -24 -20 -11 -9)
1969/12/31/18:00:10.360,(-12 -13 -7 -16 -10 -17 -14 -14)
1969/12/31/18:00:10.360,(-1 6 19 -35 -17 -4 -4 -2)
1969/12/31/18:00:10.383,(7 20 53 58 32 19 12 10)
1969/12/31/18:00:10.383,(8 17 36 63 34 21 14 11)
1969/12/31/18:00:10.384,(0 -4 -2 5 -3 -3 -4 -2)
1969/12/31/18:00:10.384,(-6 -10 -10 -8 -12 -9 -7 -6)
1969/12/31/18:00:10.397,(-4 1 4 -6 1 -1 -3 -3)
1969/12/31/18:00:10.397,(2 5 1 -15 -2 2 2 3)
1969/12/31/18:00:10.405,(6 5 5 -16 -5 5 6 6)
1969/12/31/18:00:10.405,(2 6 21 21 11 15 7 3)
1969/12/31/18:00:10.420,(6 -3 -29 5 10 -6 -4 2)
1969/12/31/18:00:10.420,(-11 -22 -25 -21 -24 -17 -10 -9)
1969/12/31/18:00:10.429,(-12 -10 -31 -27 -17 -14 -5 -5)
1969/12/31/18:00:10.429,(-2 3 27 17 4 -4 -5 -4)
1969/12/31/18:00:10.445,(3 10 14 16 13 19 9 3)
1969/12/31/18:00:10.445,(8 6 8 5 8 9 7 9)
1969/12/31/18:00:10.447,(1 4 10 -21 12 0 -2 -1)
1969/12/31/18:00:10.447,(3 -9 -50 -36 -34 -10 -3 0)
1969/12/31/18:00:10.468,(-9 -13 1 66 10 -10 -7 -5)
1969/12/31/18:00:10.468,(-11 -2 7 22 9 -8 -10 -12)
1969/12/31/18:00:10.469,(-2 -3 7 8 6 13 9 0)
1969/12/31/18:00:10.469,(6 10 14 7 9 1 3 6)
1969/12/31/18:00:10.482,(-5 -2 -2 -44 -20 1 1 -2)
1969/12/31/18:00:10.483,(3 2 -14 -10 -12 -6 -3 3)
1969/12/31/18:00:10.491,(-1 -5 -13 6 4 6 2 0)
1969/12/31/18:00:10.491,(0 -10 -20 -6 10 2 2 0)
1969/12/31/18:00:10.507,(-4 -4 6 -9 -17 -7 -2 -1)
1969/12/31/18:00:10.507,(-4 11 24 10 7 2 -1 -2)
1969/12/31/18:00:10.509,(9 7 0 -10 -6 -3 2 5)
1969/12/31/18:00:10.509,(-1 1 3 14 -1 -2 -3 -2)
1969/12/31/18:00:10.529,(2 -1 7 11 11 7 3 1)
1969/12/31/18:00:10.529,(-5 -3 -12 -19 -5 4 -1 -3)
1969/12/31/18:00:10.538,(5 2 -10 -9 -16 -3 1 7)
1969/12/31/18:00:10.538,(-2 -5 -6 13 -1 -7 -6 -2)
1969/12/31/18:00:10.544,(-9 -3 -10 7 10 -1 -5 -6)
1969/12/31/18:00:10.544,(1 -5 -7 -1 -1 3 1 1)
1969/12/31/18:00:10.553,(1 6 6 -36 -22 4 1 1)
1969/12/31/18:00:10.553,(3 -1 -6 -3 5 3 1 3)
1969/12/31/18:00:10.570,(2 7 26 -3 -11 3 2 3)
1969/12/31/18:00:10.570,(3 7 16 18 15 6 3 3)
1969/12/31/18:00:10.572,(0 -2 -4 30 6 2 -3 -4)
1969/12/31/18:00:10.572,(-5 -1 5 15 20 5 0 -4)
1969/12/31/18:00:10.592,(8 -1 -10 -39 -9 -1 0 -1)
1969/12/31/18:00:10.592,(0 -7 -10 7 -11 1 2 -2)
1969/12/31/18:00:10.593,(-6 -12 0 -5 -9 -9 -3 -4)
1969/12/31/18:00:10.593,(-10 23 34 -16 -13 -4 -4 -11)
1969/12/31/18:00:10.606,(6 -18 -43 19 12 -2 0 2)
1969/12/31/18:00:10.606,(-3 -14 -35 -53 -17 -14 -7 -4)
1969/12/31/18:00:10.615,(4 5 9 15 5 0 0 1)
1969/12/31/18:00:10.615,(-8 -11 -2 11 -2 -4 -4 -3)
1969/12/31/18:00:10.631,(-3 15 26 -12 4 0 0 -3)
1969/12/31/18:00:10.631,(-4 4 12 -13 -2 1 -2 0)
1969/12/31/18:00:10.633,(-2 -4 -9 32 5 -5 -5 -4)
1969/12/31/18:00:10.633,(1 -3 2 18 10 2 1 0)
1969/12/31/18:00:10.654,(-1 3 11 9 2 -2 -4 0)
1969/12/31/18:00:10.654,(8 7 -5 -25 -5 5 6 6)
1969/12/31/18:00:10.655,(2 -4 -16 -24 -12 -4 0 1)
1969/12/31/18:00:10.655,(-6 1 13 24 7 5 1 -1)
1969/12/31/18:00:10.668,(3 -2 1 -2 2 2 2 3)
1969/12/31/18:00:10.668,(0 -4 -4 5 -1 -2 -3 -2)
1969/12/31/18:00:10.677,(-2 8 8 8 5 2 1 -2)
1969/12/31/18:00:10.677,(11 1 -10 -15 -20 0 3 5)
1969/12/31/18:00:10.693,(-4 0 5 19 16 1 -1 -2)
1969/12/31/18:00:10.693,(2 -5 -12 -10 -5 -3 1 0)
1969/12/31/18:00:10.695,(-2 -8 -10 -29 -8 2 2 0)
1969/12/31/18:00:10.695,(-17 -16 4 29 14 3 -5 -10)
1969/12/31/18:00:10.724,(21 29 9 -22 -11 -1 6 12)
1969/12/31/18:00:10.724,(-4 -10 -6 6 3 2 1 0)
1969/12/31/18:00:10.726,(0 2 -3 8 14 3 -2 -1)
1969/12/31/18:00:10.726,(1 -4 -3 -6 -8 0 3 1)
1969/12/31/18:00:10.730,(-8 -4 4 -6 -10 0 -4 -4)
1969/12/31/18:00:10.730,(1 5 13 11 7 3 2 1)
1969/12/31/18:00:10.739,(-2 -1 -1 -3 -3 -4 -3 -2)
1969/12/31/18:00:10.739,(2 0 -4 -19 -7 -4 -3 0)
1969/12/31/18:00:10.755,(-6 -3 4 6 3 -2 -5 -8)
1969/12/31/18:00:10.755,(0 6 10 9 4 4 4 0)
1969/12/31/18:00:10.757,(-14 -10 0 17 6 0 -4 -5)
1969/12/31/18:00:10.757,(30 4 -33 -31 -12 -4 5 15)
1969/12/31/18:00:10.778,(-2 -7 -8 -8 -5 -1 1 -2)
1969/12/31/18:00:10.778,(-5 6 5 9 0 -4 -3 -5)
1969/12/31/18:00:10.779,(-11 -3 17 2 1 -3 -4 -7)
1969/12/31/18:00:10.779,(-1 -11 -16 1 7 2 0 -2)
1969/12/31/18:00:10.792,(5 0 -4 -5 -5 1 4 5)
1969/12/31/18:00:10.792,(-2 5 8 -1 -2 -4 -2 -2)
1969/12/31/18:00:10.801,(2 4 8 2 0 -5 -1 2)
1969/12/31/18:00:10.801,(2 8 5 -2 -1 -3 2 3)
1969/12/31/18:00:10.817,(-10 -14 -5 2 0 -1 0 -3)
1969/12/31/18:00:10.817,(-1 0 2 12 -5 -1 -2 -1)
1969/12/31/18:00:10.819,(4 2 -10 -20 3 0 0 2)
1969/12/31/18:00:10.819,(-4 -3 8 17 4 1 -2 -4)
1969/12/31/18:00:10.840,(-7 0 6 7 -2 -3 -4 -7)
1969/12/31/18:00:10.840,(-3 3 8 4 13 2 -2 -2)
1969/12/31/18:00:10.841,(2 -5 -13 1 -7 -1 0 2)
1969/12/31/18:00:10.841,(-1 1 -8 -49 -20 -4 -1 1)
1969/12/31/18:00:10.863,(9 7 -1 22 5 4 3 5)
1969/12/31/18:00:10.863,(-1 -3 4 19 5 0 -3 -2)
1969/12/31/18:00:10.865,(-1 0 4 5 3 0 -3 -5)
1969/12/31/18:00:10.865,(-12 -6 7 15 9 -1 -4 -6)
1969/12/31/18:00:10.865,(-1 -13 -18 0 13 1 -1 1)
1969/12/31/18:00:10.865,(-10 0 10 -20 -35 -13 -8 -10)
1969/12/31/18:00:10.865,(0 -4 -19 -31 -11 -8 -1 1)
1969/12/31/18:00:10.865,(3 2 11 -3 -11 4 2 0)
1969/12/31/18:00:10.880,(3 7 13 53 52 19 7 4)
1969/12/31/18:00:10.880,(2 2 12 25 45 18 3 0)
1969/12/31/18:00:10.888,(-5 -4 -4 16 2 0 -2 -3)
1969/12/31/18:00:10.888,(-5 -8 -10 -34 -45 -25 -9 -5)
1969/12/31/18:00:10.903,(-3 1 -7 -20 -21 -5 -1 1)
1969/12/31/18:00:10.903,(3 1 -9 -16 5 13 7 5)
1969/12/31/18:00:10.903,(8 3 -9 -2 21 8 4 6)
1969/12/31/18:00:10.903,(-9 -10 -10 -11 -26 -6 -7 -5)
1969/12/31/18:00:10.927,(1 -2 -4 -8 13 -2 3 0)
1969/12/31/18:00:10.927,(5 2 11 25 -10 -6 2 6)
1969/12/31/18:00:10.928,(-5 8 19 31 6 -3 -7 -8)
1969/12/31/18:00:10.928,(-1 -8 0 36 21 3 -2 1)
1969/12/31/18:00:10.941,(-19 -13 -2 -31 -21 -7 -7 -14)
1969/12/31/18:00:10.942,(1 2 -8 -15 -21 -14 -6 -1)
1969/12/31/18:00:10.950,(0 -9 -33 -27 -8 -3 0 0)
1969/12/31/18:00:10.950,(2 -5 -22 -71 -16 -12 -2 -1)
1969/12/31/18:00:10.965,(-2 -4 3 6 -18 -14 -4 -1)
1969/12/31/18:00:10.965,(1 9 14 23 26 10 4 3)
1969/12/31/18:00:10.965,(7 11 44 84 61 34 14 8)
1969/12/31/18:00:10.965,(4 10 15 41 27 20 5 0)
1969/12/31/18:00:10.989,(0 -10 -28 -62 -18 -14 -7 -1)
1969/12/31/18:00:10.989,(0 -3 -3 1 0 -9 -9 -1)
1969/12/31/18:00:10.989,(1 9 25 41 -9 -6 0 1)
1969/12/31/18:00:10.989,(2 -2 0 -9 6 12 8 4)
1969/12/31/18:00:11.004,(-7 -11 -26 -38 -12 -10 -8 -4)
1969/12/31/18:00:11.004,(-10 -11 -16 -38 -32 -10 -7 -10)
1969/12/31/18:00:11.011,(-3 -4 -17 -34 -24 -8 -2 -2)
1969/12/31/18:00:11.011,(3 4 15 51 13 -3 -4 -2)
1969/12/31/18:00:11.028,(1 10 30 45 4 2 0 0)
1969/12/31/18:00:11.028,(-2 -5 -21 -56 -10 -7 -2 -2)
1969/12/31/18:00:11.028,(-3 -11 -27 -67 -48 -9 2 -1)
1969/12/31/18:00:11.028,(5 9 15 30 50 16 8 6)
1969/12/31/18:00:11.051,(4 4 11 34 24 2 -1 0)
1969/12/31/18:00:11.051,(-1 4 21 53 13 6 1 0)
1969/12/31/18:00:11.051,(-8 -16 -43 -94 -41 -16 -8 -4)
1969/12/31/18:00:11.051,(-5 -9 -26 -93 -28 -18 -7 -4)
1969/12/31/18:00:11.074,(11 19 57 109 44 27 12 9)
1969/12/31/18:00:11.074,(0 8 36 104 40 12 0 -2)
1969/12/31/18:00:11.075,(1 0 -3 15 12 8 2 -1)
1969/12/31/18:00:11.075,(-3 -8 -29 -64 -38 -13 -3 0)
1969/12/31/18:00:11.090,(1 -1 -18 -57 -22 -7 0 2)
1969/12/31/18:00:11.090,(0 -2 -16 -61 -24 -1 4 1)
1969/12/31/18:00:11.090,(-2 -1 15 43 26 4 -4 -4)
1969/12/31/18:00:11.090,(2 5 8 13 15 4 4 5)
1969/12/31/18:00:11.113,(0 -1 -4 -1 -5 -2 0 -1)
1969/12/31/18:00:11.113,(2 -2 -4 -9 -16 -4 0 -1)
1969/12/31/18:00:11.113,(-2 -6 -6 13 -7 -8 -4 -4)
1969/12/31/18:00:11.113,(-2 -5 -23 -82 -8 0 -1 -1)
1969/12/31/18:00:11.136,(6 14 52 88 29 9 5 6)
1969/12/31/18:00:11.136,(-7 -3 3 2 12 0 -5 -7)
1969/12/31/18:00:11.137,(1 3 6 -4 17 8 5 3)
1969/12/31/18:00:11.137,(3 4 2 32 -5 -4 -1 0)
1969/12/31/18:00:11.152,(-3 -8 -31 -64 -25 -7 -2 -3)
1969/12/31/18:00:11.152,(-4 -4 -3 -11 0 -4 -4 -2)
1969/12/31/18:00:11.152,(1 1 5 17 -1 -3 1 0)
1969/12/31/18:00:11.152,(-1 -1 0 17 -3 -2 0 -1)
1969/12/31/18:00:11.176,(-3 -5 -9 -20 -3 0 -4 -4)
1969/12/31/18:00:11.176,(2 1 3 14 4 0 0 1)
1969/12/31/18:00:11.177,(-1 -3 -4 -14 -7 -3 -2 2)
1969/12/31/18:00:11.177,(-4 -1 7 25 12 4 0 -3)
1969/12/31/18:00:11.198,(2 0 -3 -6 -4 0 1 4)
1969/12/31/18:00:11.198,(-2 -3 -7 -3 -8 -4 -3 -1)
1969/12/31/18:00:11.199,(-3 0 3 -4 1 -3 -2 -4)
1969/12/31/18:00:11.199,(2 4 10 25 9 2 1 -2)
1969/12/31/18:00:11.214,(-7 -6 -13 -22 -15 -8 -6 -6)
1969/12/31/18:00:11.214,(8 5 -1 15 0 2 8 10)
1969/12/31/18:00:11.214,(1 3 3 0 14 6 1 0)
1969/12/31/18:00:11.214,(-1 -1 6 22 2 2 -2 -3)
1969/12/31/18:00:11.237,(9 1 -10 -20 -7 2 1 2)
1969/12/31/18:00:11.237,(4 0 -5 -17 -6 2 0 -1)
1969/12/31/18:00:11.237,(-4 1 5 1 2 4 -1 -4)
1969/12/31/18:00:11.237,(0 -1 4 3 -2 0 1 1)
1969/12/31/18:00:11.260,(-6 -4 -5 1 2 -3 0 -3)
1969/12/31/18:00:11.260,(-1 -4 -4 -12 -4 -4 -2 -1)
1969/12/31/18:00:11.261,(-2 -1 1 10 1 -2 -1 0)
1969/12/31/18:00:11.261,(1 -1 -2 -1 -1 -2 0 0)
1969/12/31/18:00:11.284,(0 -3 -4 -5 -3 -2 0 2)
1969/12/31/18:00:11.284,(-3 -2 -2 -3 -1 -2 -1 -3)
1969/12/31/18:00:11.285,(3 4 2 -5 -3 4 -1 0)
1969/12/31/18:00:11.285,(-2 -2 1 10 2 3 -1 0)
1969/12/31/18:00:11.299,(7 3 0 -9 -4 5 5 5)
1969/12/31/18:00:11.299,(0 -1 -3 -5 -1 1 1 2)
1969/12/31/18:00:11.299,(-2 2 -1 -10 -5 -1 -4 -6)
1969/12/31/18:00:11.299,(-4 -3 0 7 1 -1 -6 -5)
1969/12/31/18:00:11.322,(-5 -2 0 5 1 0 -2 -4)
1969/12/31/18:00:11.322,(0 0 -1 -16 -7 -1 -1 1)
1969/12/31/18:00:11.323,(8 2 0 0 -1 0 4 5)
1969/12/31/18:00:11.323,(1 3 1 8 5 4 3 2)
1969/12/31/18:00:11.338,(-4 -5 -6 -11 -21 -7 -3 -2)
1969/12/31/18:00:11.338,(3 3 0 -2 21 3 3 1)
1969/12/31/18:00:11.346,(-9 -4 8 19 -3 -5 -8 -9)
1969/12/31/18:00:11.346,(3 1 -7 -14 -8 -2 1 3)
1969/12/31/18:00:11.361,(0 0 4 15 5 2 -1 2)
1969/12/31/18:00:11.361,(-1 0 -3 -14 -8 0 2 2)
1969/12/31/18:00:11.362,(0 -1 -9 -27 -11 -4 0 2)
1969/12/31/18:00:11.362,(-2 -3 -9 -35 -16 -6 -3 -2)
1969/12/31/18:00:11.384,(2 3 10 48 22 3 2 2)
1969/12/31/18:00:11.384,(-1 3 16 34 22 5 0 -5)
1969/12/31/18:00:11.386,(-3 -4 1 -10 -6 -9 -7 -6)
1969/12/31/18:00:11.386,(8 5 -4 -5 -12 -1 8 9)
1969/12/31/18:00:11.399,(-4 -3 -1 -11 5 0 -1 -6)
1969/12/31/18:00:11.399,(7 2 -2 0 1 7 4 5)
1969/12/31/18:00:11.408,(-11 -3 5 24 19 5 0 -1)
1969/12/31/18:00:11.408,(26 10 7 5 0 4 9 17)
1969/12/31/18:00:11.423,(-21 -4 -4 -16 -9 -6 -5 -20)
1969/12/31/18:00:11.423,(3 -5 -5 -5 -11 0 0 -2)
1969/12/31/18:00:11.425,(-5 1 -12 -27 -16 -12 -10 -10)
1969/12/31/18:00:11.425,(15 6 0 3 2 0 -2 5)
1969/12/31/18:00:11.446,(1 -4 1 7 6 2 2 5)
1969/12/31/18:00:11.446,(-12 -4 -2 -7 -6 -3 -3 -2)
1969/12/31/18:00:11.448,(0 3 2 -3 0 6 8 5)
1969/12/31/18:00:11.448,(-13 -5 5 17 21 6 1 -3)
1969/12/31/18:00:11.461,(-12 -9 -7 -11 -14 -8 -9 -3)
1969/12/31/18:00:11.461,(45 32 13 3 3 6 10 23)
1969/12/31/18:00:11.470,(-12 -10 -5 8 -3 -11 -7 -2)
1969/12/31/18:00:11.470,(9 3 -4 -10 0 -2 3 2)
1969/12/31/18:00:11.485,(-17 -13 -13 -18 -19 -8 -5 -6)
1969/12/31/18:00:11.485,(-35 -9 2 20 16 9 7 -17)
1969/12/31/18:00:11.486,(45 18 17 28 31 12 17 42)
1969/12/31/18:00:11.486,(-9 -8 -3 -6 4 5 -7 -22)
1969/12/31/18:00:11.508,(13 9 -9 -10 -10 -7 -1 5)
1969/12/31/18:00:11.508,(-2 -9 -6 -2 -14 -8 -6 -6)
1969/12/31/18:00:11.510,(-1 4 5 3 -4 4 7 6)
1969/12/31/18:00:11.510,(-37 -15 -8 -37 -15 -9 -12 -18)
1969/12/31/18:00:11.523,(21 3 -17 -35 -21 -9 -1 10)
1969/12/31/18:00:11.523,(3 3 9 57 27 6 5 6)
1969/12/31/18:00:11.532,(-6 -3 7 29 24 10 2 -7)
1969/12/31/18:00:11.532,(2 2 17 42 23 10 7 10)
1969/12/31/18:00:11.547,(-15 3 6 -5 -11 -8 -16 -24)
1969/12/31/18:00:11.547,(1 -9 -15 -38 -24 -18 -15 -10)
1969/12/31/18:00:11.548,(-6 -9 -12 -23 -13 -4 1 -2)
1969/12/31/18:00:11.548,(12 4 -9 -6 -5 -3 2 3)
1969/12/31/18:00:11.570,(-14 -9 3 3 25 5 6 17)
1969/12/31/18:00:11.570,(14 3 -20 -45 -52 -19 -17 -13)
1969/12/31/18:00:11.572,(14 4 -2 6 7 3 3 6)
1969/12/31/18:00:11.572,(-6 2 17 38 31 12 4 0)
1969/12/31/18:00:11.594,(12 10 10 -1 29 26 19 11)
1969/12/31/18:00:11.594,(-5 -2 2 16 -2 -2 -1 6)
1969/12/31/18:00:11.595,(-11 -8 -3 3 -24 -13 -12 -14)
1969/12/31/18:00:11.595,(0 5 1 19 -8 -4 0 2)
1969/12/31/18:00:11.609,(2 -3 -4 -12 3 2 -1 -8)
1969/12/31/18:00:11.609,(-3 -6 0 0 4 0 4 4)
1969/12/31/18:00:11.610,(8 11 -5 -17 -12 -4 -1 -4)
1969/12/31/18:00:11.610,(-15 -12 -10 -10 -9 -12 -12 -10)
1969/12/31/18:00:11.632,(-11 2 2 10 -3 -1 -3 -8)
1969/12/31/18:00:11.632,(34 5 3 -6 8 8 12 20)
1969/12/31/18:00:11.634,(24 9 1 0 8 13 15 21)
1969/12/31/18:00:11.634,(-4 1 -1 5 5 2 2 5)
1969/12/31/18:00:11.656,(15 9 3 -2 -17 2 5 6)
1969/12/31/18:00:11.656,(-20 -7 6 13 10 -7 -8 -7)
1969/12/31/18:00:11.657,(-2 -2 -3 -11 -15 -8 -2 -5)
1969/12/31/18:00:11.657,(-3 -8 -17 -51 -26 -13 -5 -5)
1969/12/31/18:00:11.671,(3 3 14 50 32 13 4 3)
1969/12/31/18:00:11.671,(-24 -12 10 30 45 19 6 -3)
1969/12/31/18:00:11.672,(27 15 4 20 26 11 -2 -4)
1969/12/31/18:00:11.672,(-8 -1 -5 -14 -24 -13 -12 -13)
1969/12/31/18:00:11.694,(-10 -10 -21 -56 -34 -13 -1 -4)
1969/12/31/18:00:11.694,(-7 -9 -29 -78 -38 -10 -2 1)
1969/12/31/18:00:11.696,(-12 -2 19 88 16 5 1 -1)
1969/12/31/18:00:11.696,(18 13 23 44 16 5 6 12)
1969/12/31/18:00:11.709,(-1 1 14 41 12 1 -4 -9)
1969/12/31/18:00:11.709,(1 4 -7 -31 -8 -5 -2 0)
1969/12/31/18:00:11.718,(-54 -38 -24 -67 -20 -10 -14 -27)
1969/12/31/18:00:11.718,(89 57 12 13 2 30 39 60)
1969/12/31/18:00:11.733,(-24 -20 -5 -6 -3 -10 -17 -21)
1969/12/31/18:00:11.733,(-10 -5 -7 -9 -3 -2 -4 -7)
1969/12/31/18:00:11.734,(8 5 0 -10 -3 -2 1 4)
1969/12/31/18:00:11.734,(-19 -16 -4 7 6 -5 -10 -11)
1969/12/31/18:00:11.758,(17 13 4 1 5 7 5 6)
1969/12/31/18:00:11.758,(2 6 9 4 -7 3 5 5)
1969/12/31/18:00:11.759,(-19 -6 1 3 -2 -7 -5 -12)
1969/12/31/18:00:11.759,(-23 -18 -5 0 2 -9 -14 -19)
1969/12/31/18:00:11.771,(11 4 -5 7 1 -2 1 10)
1969/12/31/18:00:11.771,(-21 -4 11 29 8 1 -3 -14)
1969/12/31/18:00:11.780,(2 -1 -23 -76 -55 -17 -1 4)
1969/12/31/18:00:11.780,(-14 -12 -5 -43 -12 1 -1 -5)
1969/12/31/18:00:11.794,(-3 -2 17 70 50 12 2 -1)
1969/12/31/18:00:11.794,(2 6 15 47 26 13 3 4)
1969/12/31/18:00:11.802,(7 0 0 -7 -1 -1 0 5)
1969/12/31/18:00:11.802,(-7 -5 -13 -31 -19 -7 -5 -6)
1969/12/31/18:00:11.818,(7 3 -5 -19 -20 -8 0 6)
1969/12/31/18:00:11.818,(5 1 -4 -12 -7 -9 -9 -3)
1969/12/31/18:00:11.820,(-16 -8 -2 1 3 0 -4 -7)
1969/12/31/18:00:11.820,(-2 -6 -6 0 0 -2 -1 -9)
1969/12/31/18:00:11.833,(10 4 6 3 7 7 8 8)
1969/12/31/18:00:11.833,(-1 -3 -28 -91 -41 -13 -4 -1)
1969/12/31/18:00:11.842,(-3 -5 2 47 3 -2 -3 -2)
1969/12/31/18:00:11.842,(-10 3 32 84 46 10 2 -3)
1969/12/31/18:00:11.856,(4 9 20 31 19 10 3 1)
1969/12/31/18:00:11.856,(-5 -8 -3 1 -4 -5 -7 -10)
1969/12/31/18:00:11.865,(14 8 -4 -33 -7 3 6 7)
1969/12/31/18:00:11.865,(-9 -11 -17 -22 -17 -6 -2 -2)
1969/12/31/18:00:11.880,(8 3 -5 -19 -10 0 10 14)
1969/12/31/18:00:11.880,(-22 -5 -2 -8 6 -2 -7 -17)
1969/12/31/18:00:11.882,(25 10 -6 12 1 4 4 7)
1969/12/31/18:00:11.882,(-6 2 7 19 -7 -1 1 -2)
1969/12/31/18:00:11.895,(7 3 1 -10 -2 -3 3 9)
1969/12/31/18:00:11.895,(8 2 8 25 5 2 3 10)
1969/12/31/18:00:11.904,(-2 -4 -8 -20 2 -3 -5 -11)
1969/12/31/18:00:11.904,(-28 -6 3 7 -3 -6 -9 -14)
1969/12/31/18:00:11.918,(17 0 -11 -30 -1 4 4 11)
1969/12/31/18:00:11.918,(-6 -5 4 34 10 -4 -6 -10)
1969/12/31/18:00:11.926,(-5 1 11 15 8 0 -3 -3)
1969/12/31/18:00:11.926,(-1 -2 -10 -29 -16 -6 -2 0)
1969/12/31/18:00:11.942,(-12 -11 -17 -30 -17 -8 -8 -11)
1969/12/31/18:00:11.942,(5 14 12 38 25 15 16 15)
1969/12/31/18:00:11.944,(-12 -9 -6 -47 -20 -1 -3 1)
1969/12/31/18:00:11.944,(-2 2 13 54 15 1 -4 -7)
1969/12/31/18:00:11.957,(-12 -5 1 5 -2 -4 -6 -10)
1969/12/31/18:00:11.957,(28 9 -1 3 -3 1 5 15)
1969/12/31/18:00:11.966,(-8 -8 -14 -27 -3 -8 -9 -5)
1969/12/31/18:00:11.966,(2 3 -9 -11 0 4 6 3)
1969/12/31/18:00:11.980,(-10 -4 10 17 -4 -1 -1 -3)
1969/12/31/18:00:11.980,(-11 -4 0 -7 -8 -12 -10 -10)
1969/12/31/18:00:11.988,(-9 -1 13 29 9 4 -1 -8)
1969/12/31/18:00:11.988,(7 -5 -16 -14 4 1 0 2)
1969/12/31/18:00:12.004,(-8 -2 -5 3 -21 -8 -7 -6)
1969/12/31/18:00:12.004,(-4 -4 2 6 1 -2 -5 -10)
1969/12/31/18:00:12.005,(9 8 4 7 7 6 11 13)
1969/12/31/18:00:12.005,(-15 -15 -12 -27 -5 -11 -13 -18)
1969/12/31/18:00:12.028,(0 2 -4 -10 -6 -2 1 3)
1969/12/31/18:00:12.028,(13 2 -4 -4 -11 -3 -3 3)
1969/12/31/18:00:12.029,(-10 -2 -2 -1 -1 5 5 0)
1969/12/31/18:00:12.029,(14 7 10 6 5 1 5 15)
1969/12/31/18:00:12.042,(0 0 1 12 2 -1 -3 -4)
1969/12/31/18:00:12.042,(-16 -3 2 7 0 -4 -4 -6)
1969/12/31/18:00:12.050,(-3 -5 -1 10 10 -2 -8 -12)
1969/12/31/18:00:12.050,(1 -4 -5 -13 -12 -3 0 2)
1969/12/31/18:00:12.066,(7 5 0 -10 0 1 2 3)
1969/12/31/18:00:12.066,(5 -1 -1 1 3 4 8 10)
1969/12/31/18:00:12.068,(-19 -15 -4 -28 -10 -7 -7 -6)
1969/12/31/18:00:12.068,(3 6 7 32 5 2 3 -2)
1969/12/31/18:00:12.090,(9 -6 -7 -6 3 -2 4 15)
1969/12/31/18:00:12.090,(23 28 10 6 7 11 6 0)
1969/12/31/18:00:12.091,(-45 -26 0 8 -5 -6 -12 -21)
1969/12/31/18:00:12.091,(-1 -6 -9 -22 1 7 8 8)
1969/12/31/18:00:12.103,(0 1 -13 -20 -1 3 0 -5)
1969/12/31/18:00:12.103,(-10 -5 8 8 1 4 10 16)
1969/12/31/18:00:12.113,(2 15 3 10 5 1 0 0)
1969/12/31/18:00:12.113,(-19 -11 -3 -14 -12 -15 -18 -15)
1969/12/31/18:00:12.128,(24 22 7 17 -3 -7 -11 -19)
1969/12/31/18:00:12.128,(19 -21 -4 -1 2 3 6 12)
1969/12/31/18:00:12.130,(-12 -3 7 10 5 -1 -4 -9)
1969/12/31/18:00:12.130,(-27 -16 -3 -5 -3 -3 -8 -13)
1969/12/31/18:00:12.152,(-12 -9 -5 -14 -2 1 -2 -5)
1969/12/31/18:00:12.152,(14 -2 -22 -45 -6 7 16 31)
1969/12/31/18:00:12.153,(50 27 12 51 14 8 8 18)
1969/12/31/18:00:12.153,(-6 -6 20 45 9 0 -6 -10)
1969/12/31/18:00:12.166,(-70 -54 -4 -6 -7 -15 -21 -38)
1969/12/31/18:00:12.166,(-6 32 5 -4 -6 -2 -5 -15)
1969/12/31/18:00:12.175,(-10 -6 -24 -58 -11 -4 -4 0)
1969/12/31/18:00:12.175,(-40 -24 -19 -69 -37 -9 -14 -30)
1969/12/31/18:00:12.189,(77 51 22 83 26 17 35 68)
1969/12/31/18:00:12.189,(-54 -41 8 36 7 -12 -24 -44)
1969/12/31/18:00:12.198,(26 17 1 12 14 8 12 21)
1969/12/31/18:00:12.198,(27 22 -6 -38 -2 -1 -2 7)
1969/12/31/18:00:12.214,(-43 -28 -14 -32 -26 -9 -6 -14)
1969/12/31/18:00:12.214,(-3 -4 -7 -6 -10 -5 -1 -2)
1969/12/31/18:00:12.215,(12 18 24 49 18 1 -1 3)
1969/12/31/18:00:12.215,(30 3 1 13 12 9 15 21)
1969/12/31/18:00:12.227,(-19 -22 -28 -69 -5 9 4 -7)
1969/12/31/18:00:12.228,(22 15 9 31 5 0 5 13)
1969/12/31/18:00:12.237,(6 -5 8 -9 -18 -9 -10 -9)
1969/12/31/18:00:12.237,(-16 13 15 42 23 14 19 -1)
1969/12/31/18:00:12.252,(53 42 9 -4 9 13 20 55)
1969/12/31/18:00:12.252,(-9 -9 -20 -32 -21 -23 -32 -34)
1969/12/31/18:00:12.254,(2 -28 -18 -20 -8 0 9 19)
1969/12/31/18:00:12.254,(-5 8 7 9 2 0 1 -2)
1969/12/31/18:00:12.275,(-30 -28 1 15 4 -5 -7 -17)
1969/12/31/18:00:12.275,(8 6 6 6 12 10 7 -2)
1969/12/31/18:00:12.283,(-7 -7 -12 -64 -22 -8 -5 -2)
1969/12/31/18:00:12.283,(-4 -16 -12 35 -2 2 2 6)
1969/12/31/18:00:12.289,(-2 5 -11 -51 -11 -6 -10 -15)
1969/12/31/18:00:12.289,(0 11 34 106 27 0 -2 3)
1969/12/31/18:00:12.299,(-9 3 30 66 21 3 -1 -10)
1969/12/31/18:00:12.299,(29 18 4 -22 12 9 8 20)
1969/12/31/18:00:12.314,(-25 -39 -12 -31 -18 -9 -11 -13)
1969/12/31/18:00:12.314,(67 45 -17 -57 -19 5 14 22)
1969/12/31/18:00:12.316,(-16 -5 -19 -43 -7 4 5 2)
1969/12/31/18:00:12.316,(16 11 -9 -17 -5 2 2 3)
1969/12/31/18:00:12.338,(28 4 10 35 9 8 10 15)
1969/12/31/18:00:12.338,(-98 -98 -20 -34 -13 -9 -9 -12)
1969/12/31/18:00:12.339,(62 68 11 23 7 8 6 9)
1969/12/31/18:00:12.339,(26 18 2 -12 -6 -3 2 6)
1969/12/31/18:00:12.361,(3 12 0 22 5 -6 -6 -6)
1969/12/31/18:00:12.361,(-3 2 4 8 5 1 0 -2)
1969/12/31/18:00:12.363,(-34 -26 -8 -17 -11 -4 -1 -10)
1969/12/31/18:00:12.363,(-12 -4 6 28 8 2 3 1)
1969/12/31/18:00:12.376,(9 10 4 -25 -9 -5 -8 -8)
1969/12/31/18:00:12.376,(-30 -11 -1 4 -5 -5 -10 -16)
1969/12/31/18:00:12.384,(-41 -35 -4 36 19 0 -1 -6)
1969/12/31/18:00:12.384,(41 38 14 -2 7 11 12 15)
1969/12/31/18:00:12.400,(-28 -20 -3 8 -4 -6 -13 -23)
1969/12/31/18:00:12.400,(5 5 -16 -29 -16 -10 -6 1)
1969/12/31/18:00:12.401,(9 7 2 3 7 7 3 7)
1969/12/31/18:00:12.401,(-80 -78 -9 3 1 -3 -7 -27)
1969/12/31/18:00:12.423,(73 79 17 7 7 6 9 26)
1969/12/31/18:00:12.423,(-36 -3 -6 -7 -4 -2 -3 -13)
1969/12/31/18:00:12.425,(-26 -21 -12 -17 -18 -19 -24 -33)
1969/12/31/18:00:12.425,(65 33 2 -5 4 7 15 30)
1969/12/31/18:00:12.439,(-46 -27 1 15 -3 -16 -26 -38)
1969/12/31/18:00:12.439,(11 -2 -4 -28 -1 8 15 23)
1969/12/31/18:00:12.440,(11 15 4 13 5 4 8 5)
1969/12/31/18:00:12.440,(-29 -11 1 8 -3 -10 -17 -23)
1969/12/31/18:00:12.462,(-22 -19 -6 4 14 4 4 -1)
1969/12/31/18:00:12.462,(34 19 2 -7 -17 -3 2 8)
1969/12/31/18:00:12.463,(-59 -47 -4 -13 -2 -1 1 -9)
1969/12/31/18:00:12.463,(34 22 9 28 4 -4 -9 -1)
1969/12/31/18:00:12.475,(-53 -24 14 33 22 10 11 -7)
1969/12/31/18:00:12.475,(92 62 18 10 15 17 22 42)
1969/12/31/18:00:12.485,(25 -30 -17 -16 -13 -8 -2 16)
1969/12/31/18:00:12.485,(-46 -9 -13 -32 -7 -1 -2 -17)
1969/12/31/18:00:12.500,(-13 -8 -1 3 -6 -5 -4 -3)
1969/12/31/18:00:12.500,(-14 -20 -1 10 13 5 5 1)
1969/12/31/18:00:12.502,(-17 1 6 8 -3 5 9 0)
1969/12/31/18:00:12.502,(21 12 -2 -8 -3 -12 -11 3)
1969/12/31/18:00:12.524,(17 0 -4 -4 -8 4 5 8)
1969/12/31/18:00:12.524,(2 2 -10 -7 1 2 0 1)
1969/12/31/18:00:12.525,(57 63 10 7 6 6 7 18)
1969/12/31/18:00:12.525,(-80 -60 -13 -3 -6 -8 -9 -20)
1969/12/31/18:00:12.537,(41 12 5 -2 -7 -6 -6 9)
1969/12/31/18:00:12.537,(29 24 4 -1 3 2 3 10)
1969/12/31/18:00:12.547,(-9 1 3 12 8 5 0 -9)
1969/12/31/18:00:12.547,(-2 -7 2 -10 -9 -6 -4 1)
1969/12/31/18:00:12.562,(-16 -1 -9 -11 -11 -12 -14 -15)
1969/12/31/18:00:12.562,(-43 -26 5 23 7 0 -2 -19)
1969/12/31/18:00:12.564,(39 15 -13 -32 -1 10 12 21)
1969/12/31/18:00:12.564,(8 9 6 18 6 4 0 6)
1969/12/31/18:00:12.586,(6 6 9 24 6 2 5 3)
1969/12/31/18:00:12.586,(-28 -16 -3 -13 -31 -17 -21 -24)
1969/12/31/18:00:12.587,(1 10 16 11 8 4 6 2)
1969/12/31/18:00:12.587,(9 -2 1 10 8 2 0 6)
1969/12/31/18:00:12.599,(30 30 -3 -9 8 10 10 13)
1969/12/31/18:00:12.599,(-105 -90 -13 -12 -6 -6 -19 -58)
1969/12/31/18:00:12.609,(76 80 7 -9 -5 3 8 40)
1969/12/31/18:00:12.609,(-17 -19 -15 -22 2 15 18 17)
1969/12/31/18:00:12.624,(12 -4 -5 -3 -5 -9 -5 9)
1969/12/31/18:00:12.624,(0 16 0 -1 -1 0 1 -7)
1969/12/31/18:00:12.626,(-7 -20 -3 2 5 4 4 -1)
1969/12/31/18:00:12.626,(8 8 1 3 -6 -13 -10 -9)
1969/12/31/18:00:12.648,(1 5 -4 -2 1 4 5 3)
1969/12/31/18:00:12.648,(20 4 -24 -65 -18 -3 2 14)
1969/12/31/18:00:12.649,(-6 -10 12 39 17 4 2 2)
1969/12/31/18:00:12.649,(16 21 25 58 17 2 -4 0)
1969/12/31/18:00:12.661,(-25 -17 0 5 0 -4 -5 -10)
1969/12/31/18:00:12.661,(-9 2 4 -3 1 -5 -2 -1)
1969/12/31/18:00:12.671,(5 -12 -18 -25 -19 -17 -14 -9)
1969/12/31/18:00:12.671,(-18 -14 -19 -45 -18 1 2 -6)
1969/12/31/18:00:12.686,(-7 -8 -2 -11 -2 -1 -5 -12)
1969/12/31/18:00:12.686,(10 13 3 15 6 -4 -2 5)
1969/12/31/18:00:12.688,(33 22 4 10 14 14 16 19)
1969/12/31/18:00:12.688,(-61 -59 -9 3 -11 -18 -33 -44)
1969/12/31/18:00:12.710,(72 89 8 -9 0 8 22 44)
1969/12/31/18:00:12.710,(-12 -3 -9 -17 -3 -2 -4 -3)
1969/12/31/18:00:12.711,(-43 -33 -6 2 -14 -16 -20 -28)
1969/12/31/18:00:12.711,(33 28 10 8 -2 7 15 22)
1969/12/31/18:00:12.723,(-17 -24 -9 -3 0 -5 -7 -12)
1969/12/31/18:00:12.723,(15 8 6 15 4 -1 -2 1)
1969/12/31/18:00:12.733,(-16 0 3 -3 2 1 -1 -5)
1969/12/31/18:00:12.733,(-3 -5 -13 -27 1 -4 -7 -11)
1969/12/31/18:00:12.748,(-22 -23 1 10 2 17 21 15)
1969/12/31/18:00:12.748,(30 32 12 -1 -7 2 8 10)
1969/12/31/18:00:12.754,(-36 -39 -10 5 9 -12 -19 -24)
1969/12/31/18:00:12.754,(43 33 5 23 0 -4 -1 9)
1969/12/31/18:00:12.772,(-76 -23 -3 -8 -6 -12 -23 -49)
1969/12/31/18:00:12.772,(6 -1 -8 -2 1 -2 -7 -3)
1969/12/31/18:00:12.773,(-6 6 -1 -10 -6 8 10 6)
1969/12/31/18:00:12.773,(-4 2 -7 -31 -14 -13 -15 -13)
1969/12/31/18:00:12.785,(-4 -18 -5 0 3 2 3 3)
1969/12/31/18:00:12.785,(11 13 12 13 7 7 9 16)
1969/12/31/18:00:12.795,(-19 -12 -9 -11 -13 -11 -18 -26)
1969/12/31/18:00:12.795,(-11 -16 -1 6 3 5 11 9)
1969/12/31/18:00:12.810,(4 -1 7 2 -2 2 -1 0)
1969/12/31/18:00:12.810,(-7 -7 2 5 -2 -7 -7 -6)
1969/12/31/18:00:12.816,(-16 -21 1 12 2 -2 -1 1)
1969/12/31/18:00:12.816,(24 36 22 22 22 16 19 20)
1969/12/31/18:00:12.834,(-10 -25 -16 -18 -16 -14 -16 -12)
1969/12/31/18:00:12.834,(-37 -25 -11 3 -1 -10 -16 -29)
1969/12/31/18:00:12.835,(-18 -17 -8 -12 -9 -8 -8 -16)
1969/12/31/18:00:12.835,(17 4 -3 -9 0 7 12 19)
1969/12/31/18:00:12.847,(2 2 -7 -30 -11 -2 -3 -7)
1969/12/31/18:00:12.847,(2 -4 2 20 3 -1 2 8)
1969/12/31/18:00:12.857,(4 2 -5 -16 -7 8 9 9)
1969/12/31/18:00:12.857,(-26 -16 15 50 21 -6 -11 -18)
1969/12/31/18:00:12.872,(-18 -8 14 30 4 4 3 11)
1969/12/31/18:00:12.872,(-11 10 1 -7 -1 0 -7 -22)
1969/12/31/18:00:12.878,(33 13 -4 -25 -5 -1 2 6)
1969/12/31/18:00:12.878,(-9 -2 -7 -16 -8 -5 -5 -12)
1969/12/31/18:00:12.896,(-17 -14 -7 -8 3 -2 -8 -9)
1969/12/31/18:00:12.896,(2 -3 8 10 6 3 5 12)
1969/12/31/18:00:12.897,(-12 -4 -2 8 -5 -11 -10 -11)
1969/12/31/18:00:12.897,(17 12 -2 -22 -5 8 20 37)
1969/12/31/18:00:12.909,(-7 -9 -1 12 8 2 -7 -22)
1969/12/31/18:00:12.909,(11 1 -17 -33 -19 -12 -11 -9)
1969/12/31/18:00:12.919,(8 7 4 14 9 3 8 13)
1969/12/31/18:00:12.919,(11 11 18 25 1 -1 0 5)
1969/12/31/18:00:12.934,(15 -5 -3 17 8 2 4 9)
1969/12/31/18:00:12.934,(31 37 9 11 14 16 14 14)
1969/12/31/18:00:12.940,(-25 -12 2 -8 -4 -8 -15 -21)
1969/12/31/18:00:12.940,(-7 -10 -16 -31 -13 -4 -3 -6)
1969/12/31/18:00:12.958,(-5 -2 -5 -17 3 -3 1 -3)
1969/12/31/18:00:12.958,(8 -11 3 21 0 8 11 15)
1969/12/31/18:00:12.959,(79 54 18 21 5 17 31 61)
1969/12/31/18:00:12.959,(-43 -37 -19 -14 -9 -24 -38 -49)
1969/12/31/18:00:12.971,(9 6 5 0 6 9 12 15)
1969/12/31/18:00:12.971,(19 10 -4 -7 3 -5 5 16)
1969/12/31/18:00:12.981,(3 30 15 1 1 7 12 21)
1969/12/31/18:00:12.981,(20 2 -8 1 0 11 16 20)
1969/12/31/18:00:12.996,(-7 -9 -3 -11 -8 -7 -5 -6)
1969/12/31/18:00:12.996,(13 3 -2 0 2 1 1 3)
1969/12/31/18:00:12.998,(-30 -29 2 9 -1 -1 -4 -12)
1969/12/31/18:00:12.998,(2 10 -1 -19 -10 -6 -3 -2)
1969/12/31/18:00:13.020,(6 9 -3 8 2 0 2 1)
1969/12/31/18:00:13.020,(-20 -18 9 24 16 8 6 8)
1969/12/31/18:00:13.021,(-12 -11 -1 7 2 -4 -10 -16)
1969/12/31/18:00:13.021,(-4 -7 -1 -10 -5 -1 -3 -3)
1969/12/31/18:00:13.043,(5 3 0 -11 -10 -4 -1 1)
1969/12/31/18:00:13.043,(3 -7 -13 -35 -14 -3 2 8)
1969/12/31/18:00:13.045,(-5 4 4 15 7 4 3 -5)
1969/12/31/18:00:13.045,(1 -8 -10 8 0 -12 -16 -11)
1969/12/31/18:00:13.058,(7 16 24 44 5 7 2 5)
1969/12/31/18:00:13.058,(-11 5 18 28 17 3 -1 -10)
1969/12/31/18:00:13.060,(-29 -23 -14 -20 -4 4 5 -1)
1969/12/31/18:00:13.060,(5 -16 -15 -22 -1 4 5 10)
1969/12/31/18:00:13.082,(7 2 -8 -18 -6 -5 0 7)
1969/12/31/18:00:13.082,(-9 -13 -5 -5 -2 0 -1 0)
1969/12/31/18:00:13.083,(-12 -11 -4 -11 -8 -13 -18 -21)
1969/12/31/18:00:13.083,(11 16 9 10 9 15 21 21)
1969/12/31/18:00:13.105,(4 2 -2 -22 -6 -3 -3 -1)
1969/12/31/18:00:13.105,(8 4 -3 6 8 2 1 2)
1969/12/31/18:00:13.107,(-29 -28 1 16 -1 -3 -9 -16)
1969/12/31/18:00:13.107,(12 11 12 14 4 2 5 4)
1969/12/31/18:00:13.120,(-45 -28 -8 4 3 4 -4 -23)
1969/12/31/18:00:13.120,(91 48 4 -4 2 4 10 26)
1969/12/31/18:00:13.122,(-20 -2 -3 -11 -4 -5 -11 -21)
1969/12/31/18:00:13.122,(-14 -13 -5 3 -4 -3 -5 -1)
1969/12/31/18:00:13.144,(4 1 0 -5 -3 0 5 8)
1969/12/31/18:00:13.144,(-29 -21 -5 -1 -7 -6 -5 -14)
1969/12/31/18:00:13.145,(17 11 1 2 0 -3 -2 3)
1969/12/31/18:00:13.145,(8 6 0 -21 -6 3 3 0)
1969/12/31/18:00:13.167,(11 8 -5 7 1 -2 1 5)
1969/12/31/18:00:13.167,(-16 -4 6 17 3 -1 -1 1)
1969/12/31/18:00:13.169,(9 7 4 12 7 0 -2 -2)
1969/12/31/18:00:13.169,(-10 1 0 1 -1 -2 -2 -2)
1969/12/31/18:00:13.182,(13 13 5 -10 0 4 7 11)
1969/12/31/18:00:13.182,(-21 -19 -8 -11 -9 -9 -11 -13)
1969/12/31/18:00:13.188,(-1 -8 -2 3 4 3 4 7)
1969/12/31/18:00:13.188,(-19 -10 -3 0 0 0 -8 -20)
1969/12/31/18:00:13.205,(16 11 -7 -40 -2 0 1 2)
1969/12/31/18:00:13.205,(-18 -13 -1 20 -11 -7 -8 -10)
1969/12/31/18:00:13.214,(1 3 9 13 12 8 12 11)
1969/12/31/18:00:13.214,(16 9 -3 2 8 9 13 13)
1969/12/31/18:00:13.229,(2 -1 -3 -13 -8 -10 -11 -9)
1969/12/31/18:00:13.229,(-13 -8 0 2 17 2 -3 -4)
1969/12/31/18:00:13.231,(-1 -6 2 7 -4 -2 -3 -5)
1969/12/31/18:00:13.231,(28 33 8 7 -6 3 8 12)
1969/12/31/18:00:13.243,(3 -3 -10 -16 0 0 2 3)
1969/12/31/18:00:13.243,(-1 -2 -16 -40 -23 0 3 4)
1969/12/31/18:00:13.252,(8 3 4 33 15 1 0 3)
1969/12/31/18:00:13.252,(-13 -5 13 26 15 -1 -11 -15)
1969/12/31/18:00:13.268,(-2 1 7 25 8 4 0 0)
1969/12/31/18:00:13.268,(21 11 0 -10 1 3 5 12)
1969/12/31/18:00:13.270,(7 2 -13 -31 -11 2 4 5)
1969/12/31/18:00:13.270,(-20 -16 -9 -12 -14 -11 -10 -10)
1969/12/31/18:00:13.291,(15 16 6 8 0 0 2 8)
1969/12/31/18:00:13.291,(-22 -15 1 6 3 1 -1 -6)
1969/12/31/18:00:13.297,(13 6 -6 -12 -4 4 6 5)
1969/12/31/18:00:13.298,(-12 -10 -8 -22 -10 -16 -24 -23)
1969/12/31/18:00:13.305,(-3 -6 -7 0 -19 -6 1 0)
1969/12/31/18:00:13.305,(-8 -8 -12 -19 -5 -5 -6 -4)
1969/12/31/18:00:13.315,(7 9 18 56 29 10 8 9)
1969/12/31/18:00:13.315,(-1 5 24 43 27 17 13 6)
1969/12/31/18:00:13.330,(-11 -7 1 11 5 -4 -6 -7)
1969/12/31/18:00:13.330,(-10 -7 -8 -12 -13 -6 -3 -12)
1969/12/31/18:00:13.331,(-14 -5 -8 -21 -15 -7 -2 6)
1969/12/31/18:00:13.331,(16 2 -11 -12 -9 -7 -4 7)
1969/12/31/18:00:13.353,(0 2 5 8 6 7 4 2)
1969/12/31/18:00:13.353,(4 4 2 -3 0 3 4 3)
1969/12/31/18:00:13.355,(13 11 -2 -15 -3 3 4 1)
1969/12/31/18:00:13.355,(12 7 5 2 -2 0 3 9)
1969/12/31/18:00:13.367,(-11 -8 -9 -9 -12 -15 -18 -13)
1969/12/31/18:00:13.367,(0 5 6 8 7 4 2 1)
1969/12/31/18:00:13.377,(-16 -11 -1 -2 3 4 5 -5)
1969/12/31/18:00:13.377,(-11 -13 -16 -11 -8 -7 -13 -16)
1969/12/31/18:00:13.399,(-2 -4 2 7 -6 0 -1 -4)
1969/12/31/18:00:13.399,(-3 4 8 10 2 -7 -4 -3)
1969/12/31/18:00:13.401,(0 -3 -4 -8 0 9 11 6)
1969/12/31/18:00:13.401,(9 4 -5 -17 -7 -9 -5 3)
1969/12/31/18:00:13.415,(-6 3 5 11 14 6 9 7)
1969/12/31/18:00:13.415,(-12 -13 -1 7 -12 -6 -10 -11)
1969/12/31/18:00:13.417,(0 -2 -6 -18 -9 -9 -12 -10)
1969/12/31/18:00:13.417,(-1 -2 -8 -26 -11 -1 6 4)
1969/12/31/18:00:13.429,(9 3 5 26 15 5 7 8)
1969/12/31/18:00:13.429,(11 11 12 23 11 13 12 6)
1969/12/31/18:00:13.439,(4 0 0 5 0 -8 -13 -2)
1969/12/31/18:00:13.439,(7 6 5 1 2 7 13 16)
1969/12/31/18:00:13.454,(-8 -5 -2 -13 -7 -2 -2 -9)
1969/12/31/18:00:13.454,(-2 0 -3 -10 -4 -3 -1 0)
1969/12/31/18:00:13.455,(-6 -6 -8 -6 -1 -4 -4 -4)
1969/12/31/18:00:13.455,(17 7 1 7 8 9 15 21)
1969/12/31/18:00:13.477,(-18 -11 -6 -5 -2 -2 -7 -12)
1969/12/31/18:00:13.477,(-22 -11 -6 -5 -7 -16 -25 -24)
1969/12/31/18:00:13.479,(-1 1 -7 -22 -11 -8 -9 -7)
1969/12/31/18:00:13.479,(-15 -9 -6 -15 -3 -1 -1 -9)
1969/12/31/18:00:13.491,(20 10 3 9 5 4 8 11)
1969/12/31/18:00:13.491,(13 6 15 35 11 10 14 18)
1969/12/31/18:00:13.501,(-18 -8 9 24 1 -3 -12 -24)
1969/12/31/18:00:13.501,(-12 -7 -5 -12 -6 -8 -10 -13)
1969/12/31/18:00:13.516,(5 1 -10 -30 -15 -6 -2 4)
1969/12/31/18:00:13.516,(0 -1 -8 -1 12 3 0 1)
1969/12/31/18:00:13.518,(12 6 5 8 11 6 5 6)
1969/12/31/18:00:13.518,(4 5 6 14 7 10 6 5)
1969/12/31/18:00:13.539,(1 3 -1 -17 -14 -8 -3 -2)
1969/12/31/18:00:13.539,(1 1 -2 -14 -9 -5 1 3)
1969/12/31/18:00:13.540,(6 3 -4 -18 -25 -3 3 3)
1969/12/31/18:00:13.540,(1 6 22 33 22 13 6 3)
1969/12/31/18:00:13.553,(1 1 -5 19 38 7 0 -1)
1969/12/31/18:00:13.553,(-3 -11 -15 2 8 -4 -6 -4)
1969/12/31/18:00:13.563,(-8 -4 6 -16 -8 -6 -7 -8)
1969/12/31/18:00:13.563,(0 8 29 16 -10 4 3 1)
1969/12/31/18:00:13.578,(13 4 -28 -21 -26 -5 3 11)
1969/12/31/18:00:13.578,(-7 -21 -32 -22 -1 -11 -7 -3)
1969/12/31/18:00:13.584,(-5 4 11 -37 -5 4 0 -5)
1969/12/31/18:00:13.584,(-1 -3 -26 20 -3 -6 -2 -2)
1969/12/31/18:00:13.601,(0 -3 18 32 -12 -11 -5 -1)
1969/12/31/18:00:13.601,(0 6 18 4 -5 6 4 1)
1969/12/31/18:00:13.603,(12 12 -3 10 18 8 5 11)
1969/12/31/18:00:13.603,(-2 4 17 -7 21 12 2 -4)
1969/12/31/18:00:13.615,(8 1 1 -1 15 4 3 2)
1969/12/31/18:00:13.615,(-8 -16 -10 -35 -38 -13 -3 -3)
1969/12/31/18:00:13.625,(1 -2 -1 -1 -13 -8 1 2)
1969/12/31/18:00:13.625,(1 12 28 26 22 8 2 0)
1969/12/31/18:00:13.640,(3 2 -26 23 14 8 3 1)
1969/12/31/18:00:13.640,(1 -15 -31 -19 -5 -5 0 3)
1969/12/31/18:00:13.641,(-20 -20 -12 -28 -16 -16 -12 -13)
1969/12/31/18:00:13.641,(1 2 -2 -33 -32 -14 -2 0)
1969/12/31/18:00:13.663,(-4 10 44 19 2 1 -1 -5)
1969/12/31/18:00:13.663,(10 31 44 31 27 23 10 6)
1969/12/31/18:00:13.665,(16 4 -27 9 8 4 7 13)
1969/12/31/18:00:13.665,(-3 -14 -17 -35 -13 -16 -4 1)
1969/12/31/18:00:13.677,(-14 -9 15 20 5 7 1 -7)
1969/12/31/18:00:13.677,(13 16 16 50 16 6 6 5)
1969/12/31/18:00:13.687,(-6 -10 -24 4 -1 -9 -9 -7)
1969/12/31/18:00:13.687,(-5 -4 16 -18 -5 -2 -4 -4)
1969/12/31/18:00:13.702,(-2 2 -13 -26 -4 3 2 0)
1969/12/31/18:00:13.702,(3 -8 -29 -54 -31 -18 -5 1)
1969/12/31/18:00:13.703,(-5 3 15 8 -5 0 -3 -7)
1969/12/31/18:00:13.703,(-4 -17 -32 40 27 -2 -3 -4)
1969/12/31/18:00:13.725,(-11 -15 0 -8 3 0 -4 -3)
1969/12/31/18:00:13.725,(4 14 19 -28 -7 7 5 3)
1969/12/31/18:00:13.727,(6 7 13 36 3 2 1 4)
1969/12/31/18:00:13.727,(8 11 19 12 0 3 4 6)
1969/12/31/18:00:13.739,(-7 -10 -25 -9 -11 -12 -7 -7)
1969/12/31/18:00:13.739,(-7 -6 9 19 12 -3 -4 -6)
1969/12/31/18:00:13.749,(-1 -5 -13 23 8 -4 -2 -3)
1969/12/31/18:00:13.749,(1 1 -8 -28 -11 2 0 1)
1969/12/31/18:00:13.763,(3 -2 -9 6 -5 -6 -4 1)
1969/12/31/18:00:13.763,(-9 -6 -7 -6 -7 5 -2 -4)
1969/12/31/18:00:13.770,(9 11 9 -28 9 14 7 5)
1969/12/31/18:00:13.770,(1 5 12 10 -22 -1 -1 -1)
1969/12/31/18:00:13.787,(12 13 10 -3 26 10 6 7)
1969/12/31/18:00:13.787,(3 -1 -3 25 12 7 3 3)
1969/12/31/18:00:13.789,(-12 -11 -4 -7 11 -3 -4 -4)
1969/12/31/18:00:13.789,(-5 -2 -16 -24 -23 -3 0 -1)
1969/12/31/18:00:13.801,(3 0 2 -30 -6 -1 1 0)
1969/12/31/18:00:13.801,(-3 2 6 8 -5 -1 0 -2)
1969/12/31/18:00:13.811,(0 3 12 14 10 -1 -2 1)
1969/12/31/18:00:13.811,(2 0 5 11 4 -7 -3 -1)
1969/12/31/18:00:13.825,(-3 0 4 12 -1 4 3 -1)
1969/12/31/18:00:13.825,(1 -7 -21 12 16 1 1 1)
1969/12/31/18:00:13.832,(-6 -6 -11 -36 -18 -5 -2 -1)
1969/12/31/18:00:13.832,(-11 -8 -8 -19 -4 -8 -5 -9)
1969/12/31/18:00:13.849,(-1 4 6 8 -6 -2 1 -2)
1969/12/31/18:00:13.849,(8 7 6 4 6 -3 1 1)
1969/12/31/18:00:13.851,(2 -2 1 -6 -14 3 4 2)
1969/12/31/18:00:13.851,(2 -4 -22 3 5 -6 -2 0)
1969/12/31/18:00:13.863,(2 2 32 53 37 7 4 5)
1969/12/31/18:00:13.863,(-7 2 10 8 6 -2 -8 -6)
1969/12/31/18:00:13.873,(-1 2 8 -4 -1 -1 -4 -2)
1969/12/31/18:00:13.873,(3 -5 -33 -31 -13 -1 1 2)
1969/12/31/18:00:13.887,(0 -8 -13 -8 -18 -1 1 -1)
1969/12/31/18:00:13.887,(-1 4 12 7 17 6 3 1)
1969/12/31/18:00:13.894,(1 6 11 17 4 3 -2 0)
1969/12/31/18:00:13.894,(-5 2 -10 -18 -1 4 1 -2)
1969/12/31/18:00:13.911,(-2 -5 -5 -11 -6 -1 -6 -1)
1969/12/31/18:00:13.911,(-9 -5 -4 -25 -19 -14 -8 -5)
1969/12/31/18:00:13.913,(4 6 -6 18 1 -2 -1 0)
1969/12/31/18:00:13.913,(3 -15 -3 4 -2 -3 -1 2)
1969/12/31/18:00:13.925,(-1 -1 5 -5 2 2 -1 -2)
1969/12/31/18:00:13.925,(-3 1 5 2 -2 -2 0 -2)
1969/12/31/18:00:13.935,(8 -2 -18 -52 -17 -3 1 3)
1969/12/31/18:00:13.935,(-7 -10 5 41 12 0 1 0)
1969/12/31/18:00:13.949,(-5 4 14 5 0 -3 -1 -4)
1969/12/31/18:00:13.949,(-8 -5 -6 -11 -3 -4 -3 -5)
1969/12/31/18:00:13.956,(6 7 0 -1 -7 -5 2 2)
1969/12/31/18:00:13.956,(7 -7 -13 11 8 4 4 4)
1969/12/31/18:00:13.973,(-5 -7 -4 -10 -4 -4 -3 -2)
1969/12/31/18:00:13.973,(6 7 5 -1 -4 -4 2 3)
1969/12/31/18:00:13.975,(-1 -7 -10 8 4 5 3 0)
1969/12/31/18:00:13.975,(-2 1 10 24 14 1 0 -1)
1969/12/31/18:00:13.975,(-5 -14 -30 -34 -71 -20 -6 -2)
1969/12/31/18:00:13.975,(-10 -5 -15 -53 30 -5 -6 -12)
1969/12/31/18:00:13.976,(7 10 41 127 35 4 -1 3)
1969/12/31/18:00:13.976,(-3 -1 6 -2 -19 2 1 -2)
1969/12/31/18:00:13.990,(-7 -10 -31 -111 -12 -9 -1 -4)
1969/12/31/18:00:13.990,(17 5 -20 75 -8 0 9 14)
1969/12/31/18:00:13.991,(-2 0 8 -7 25 7 2 -2)
1969/12/31/18:00:13.991,(-2 0 7 8 21 4 -3 -2)
1969/12/31/18:00:14.006,(-7 -4 -22 -41 -28 -9 -5 -8)
1969/12/31/18:00:14.006,(5 7 9 -111 -44 -9 -1 0)
1969/12/31/18:00:14.006,(9 15 37 127 79 15 8 7)
1969/12/31/18:00:14.007,(-1 -3 27 113 16 9 -2 -2)
1969/12/31/18:00:14.020,(-19 -15 -14 -78 -45 -18 -8 -10)
1969/12/31/18:00:14.020,(3 -6 -50 -117 23 0 5 6)
1969/12/31/18:00:14.021,(-6 -4 19 85 12 4 -4 -5)
1969/12/31/18:00:14.021,(2 3 8 0 23 3 2 -2)
1969/12/31/18:00:14.044,(6 -1 -25 -64 -42 -7 0 4)
1969/12/31/18:00:14.044,(-2 -6 -7 0 -19 -4 1 2)
1969/12/31/18:00:14.044,(10 6 9 -12 -18 -5 2 7)
1969/12/31/18:00:14.044,(-9 -15 -12 -10 -1 -8 -7 -9)
1969/12/31/18:00:14.077,(1 12 45 127 23 13 4 1)
1969/12/31/18:00:14.077,(-11 -11 -18 -57 12 0 -9 -10)
1969/12/31/18:00:14.078,(4 -2 -2 -45 39 12 8 8)
1969/12/31/18:00:14.078,(11 20 9 33 10 6 7 7)
1969/12/31/18:00:14.082,(4 -3 -25 -104 -35 -8 -4 -1)
1969/12/31/18:00:14.082,(7 -4 7 100 -37 -7 0 3)
1969/12/31/18:00:14.083,(-29 -30 -39 -128 -88 -30 -17 -20)
1969/12/31/18:00:14.083,(9 5 -15 10 1 7 10 9)
1969/12/31/18:00:14.106,(16 29 79 127 127 44 15 11)
1969/12/31/18:00:14.106,(11 33 88 127 58 23 4 6)
1969/12/31/18:00:14.106,(12 10 17 69 46 15 6 6)
1969/12/31/18:00:14.106,(-9 -12 -25 -77 -62 -14 -5 -4)
1969/12/31/18:00:14.130,(-15 -26 -80 -114 -89 -30 -16 -13)
1969/12/31/18:00:14.130,(-11 -21 -43 -46 3 -5 -3 -2)
1969/12/31/18:00:14.131,(-6 -1 -9 -28 -30 -14 -5 -4)
1969/12/31/18:00:14.131,(7 20 40 1 2 11 8 6)
1969/12/31/18:00:14.144,(7 6 19 108 35 5 3 6)
1969/12/31/18:00:14.144,(-11 -19 -44 -128 -59 -18 -10 -10)
1969/12/31/18:00:14.145,(-1 6 26 98 4 7 3 1)
1969/12/31/18:00:14.145,(-6 -14 -43 -57 -13 -13 -8 -4)
1969/12/31/18:00:14.167,(9 13 28 -23 57 18 5 6)
1969/12/31/18:00:14.167,(-5 -2 7 59 6 -4 -5 -8)
1969/12/31/18:00:14.168,(-7 -9 -25 -114 -38 -5 -3 -5)
1969/12/31/18:00:14.168,(4 11 36 35 10 9 5 3)
1969/12/31/18:00:14.192,(-3 -4 4 47 20 4 1 0)
1969/12/31/18:00:14.192,(-5 -10 -37 -92 -33 -13 -4 -3)
1969/12/31/18:00:14.193,(4 8 18 52 11 3 4 4)
1969/12/31/18:00:14.193,(-4 0 5 4 -6 -8 -3 -3)
1969/12/31/18:00:14.206,(-3 -6 -14 -11 -5 -7 -2 -2)
1969/12/31/18:00:14.206,(-3 -2 3 29 12 1 2 -3)
1969/12/31/18:00:14.207,(0 -3 -15 -31 -3 -6 -3 -1)
1969/12/31/18:00:14.207,(-1 -2 -10 -45 -16 -5 -3 0)
1969/12/31/18:00:14.230,(1 1 17 45 7 0 1 0)
1969/12/31/18:00:14.230,(0 -1 -5 -3 -12 0 1 -1)
1969/12/31/18:00:14.231,(0 2 1 -27 13 1 -1 -3)
1969/12/31/18:00:14.231,(-3 0 10 34 9 2 1 -3)
1969/12/31/18:00:14.254,(1 -2 -12 -23 -18 -5 1 1)
1969/12/31/18:00:14.254,(-2 1 8 12 7 0 -3 -1)
1969/12/31/18:00:14.255,(1 -3 -11 -7 3 -4 3 4)
1969/12/31/18:00:14.255,(-1 -2 7 9 5 -5 -2 -4)
1969/12/31/18:00:14.267,(-12 -10 -9 -10 -9 -11 -5 -8)
1969/12/31/18:00:14.267,(7 5 12 28 7 4 7 6)
1969/12/31/18:00:14.277,(-4 0 6 19 14 2 -7 -8)
1969/12/31/18:00:14.277,(1 -4 -12 -16 -15 -6 -5 -1)
1969/12/31/18:00:14.292,(1 -4 -9 -15 -12 -1 1 3)
1969/12/31/18:00:14.292,(-1 -1 -7 11 0 3 3 2)
1969/12/31/18:00:14.300,(8 8 11 -46 -1 5 4 8)
1969/12/31/18:00:14.300,(-2 4 17 58 37 9 -2 -5)
1969/12/31/18:00:14.316,(-2 -4 -5 4 5 2 2 0)
1969/12/31/18:00:14.316,(-2 -5 -2 15 -1 -1 -1 1)
1969/12/31/18:00:14.317,(-3 -3 -11 -12 -6 -3 -2 -4)
1969/12/31/18:00:14.317,(-4 1 -6 -29 -19 -2 -3 1)
1969/12/31/18:00:14.329,(13 6 0 -8 -4 6 4 9)
1969/12/31/18:00:14.329,(21 17 6 -7 0 12 5 8)
1969/12/31/18:00:14.339,(-6 -3 3 7 3 4 -5 -7)
1969/12/31/18:00:14.339,(-5 1 2 -11 -6 0 -6 -10)
1969/12/31/18:00:14.353,(-2 1 2 2 4 12 8 1)
1969/12/31/18:00:14.353,(-5 -5 -2 -13 -7 -4 -1 -3)
1969/12/31/18:00:14.362,(0 -5 -4 13 5 -2 4 4)
1969/12/31/18:00:14.362,(-7 -4 -10 -19 -11 -7 -1 -2)
1969/12/31/18:00:14.378,(10 6 -7 -14 -8 -7 -1 9)
1969/12/31/18:00:14.378,(-13 -3 21 29 8 -3 -6 -8)
1969/12/31/18:00:14.379,(1 5 15 42 9 1 -3 -4)
1969/12/31/18:00:14.379,(3 -4 -8 -10 -1 0 5 5)
1969/12/31/18:00:14.391,(-4 -2 -4 -5 -4 -7 -3 -5)
1969/12/31/18:00:14.391,(-1 -5 -13 -39 -14 -5 -1 0)
1969/12/31/18:00:14.401,(-15 -6 -6 9 -14 -6 -6 -5)
1969/12/31/18:00:14.401,(3 -1 2 -6 9 4 3 4)
1969/12/31/18:00:14.416,(-7 0 1 3 12 9 -1 -7)
1969/12/31/18:00:14.416,(-31 -11 3 14 5 7 -8 -19)
1969/12/31/18:00:14.422,(39 16 2 -13 -1 0 5 18)
1969/12/31/18:00:14.422,(10 4 -9 -13 -19 -14 -14 0)
1969/12/31/18:00:14.440,(1 3 2 -3 -3 0 -1 -1)
1969/12/31/18:00:14.440,(-17 -12 -6 3 2 -4 -3 -7)
1969/12/31/18:00:14.441,(-7 -7 -8 -23 -4 -5 -1 -2)
1969/12/31/18:00:14.441,(17 12 16 43 20 17 26 30)
1969/12/31/18:00:14.465,(-16 -22 -66 -104 -68 -26 -11 -13)
1969/12/31/18:00:14.465,(-3 1 19 77 -1 -5 -6 -7)
1969/12/31/18:00:14.466,(-2 15 65 93 100 26 4 -4)
1969/12/31/18:00:14.466,(-2 -2 11 -8 9 3 -4 -4)
1969/12/31/18:00:14.478,(-1 2 10 -24 10 4 -1 1)
1969/12/31/18:00:14.478,(1 -8 -39 -92 -43 -14 -2 2)
1969/12/31/18:00:14.484,(-23 -12 -35 -65 -46 -15 -1 0)
1969/12/31/18:00:14.484,(27 0 6 8 9 4 7 2)
1969/12/31/18:00:14.502,(15 5 4 19 -3 -9 -14 -7)
1969/12/31/18:00:14.502,(-29 -4 -1 -13 -1 -4 -7 -13)
1969/12/31/18:00:14.503,(30 -1 3 15 0 -2 -2 5)
1969/12/31/18:00:14.503,(-45 -18 -12 -16 -9 -5 -8 -15)
1969/12/31/18:00:14.515,(7 -1 7 15 4 1 -1 -2)
1969/12/31/18:00:14.515,(30 13 8 18 16 8 9 10)
1969/12/31/18:00:14.525,(-37 -8 -7 -7 -10 -6 -7 -9)
1969/12/31/18:00:14.526,(23 5 -15 -51 -18 -1 5 7)
1969/12/31/18:00:14.540,(11 4 11 26 -1 1 3 7)
1969/12/31/18:00:14.540,(-2 1 -1 10 25 4 3 2)
1969/12/31/18:00:14.546,(-7 3 21 68 11 9 2 -7)
1969/12/31/18:00:14.547,(-45 -12 15 31 16 -3 -12 -26)
1969/12/31/18:00:14.564,(78 30 13 9 11 9 20 46)
1969/12/31/18:00:14.564,(-46 -24 -23 -61 -25 -20 -19 -29)
1969/12/31/18:00:14.565,(34 6 -27 -50 -23 -5 4 5)
1969/12/31/18:00:14.565,(24 23 18 26 13 18 19 17)
1969/12/31/18:00:14.578,(-53 -19 4 11 10 -5 -7 -18)
1969/12/31/18:00:14.578,(15 7 3 3 0 2 5 10)
1969/12/31/18:00:14.587,(38 16 2 -16 -1 10 20 38)
1969/12/31/18:00:14.587,(-14 -9 -10 -2 -7 -6 -11 -16)
1969/12/31/18:00:14.602,(-3 3 -1 -7 1 2 4 0)
1969/12/31/18:00:14.602,(21 5 -31 -74 -19 -1 9 14)
1969/12/31/18:00:14.608,(-23 -7 19 38 0 -1 -2 -11)
1969/12/31/18:00:14.608,(3 2 23 34 5 0 -5 -3)
1969/12/31/18:00:14.626,(-31 -13 10 62 36 11 2 -3)
1969/12/31/18:00:14.626,(18 5 14 31 22 13 11 9)
1969/12/31/18:00:14.627,(-14 -6 -24 -57 -17 -11 -13 -17)
1969/12/31/18:00:14.627,(9 -3 -26 -53 -33 -14 -6 -2)
1969/12/31/18:00:14.649,(3 -9 -8 -23 -21 -9 -11 -9)
1969/12/31/18:00:14.649,(-35 -4 22 49 18 3 -4 -11)
1969/12/31/18:00:14.651,(18 11 0 4 13 10 13 25)
1969/12/31/18:00:14.651,(17 11 4 -1 -5 0 4 4)
1969/12/31/18:00:14.664,(0 0 -2 -7 -2 -1 -1 1)
1969/12/31/18:00:14.664,(-23 -16 -7 -13 -8 -4 -9 -19)
1969/12/31/18:00:14.671,(-10 -9 -8 -9 -10 -6 -7 -8)
1969/12/31/18:00:14.671,(-3 2 6 15 4 0 1 6)
1969/12/31/18:00:14.688,(-5 -5 -33 -104 -32 -3 7 3)
1969/12/31/18:00:14.688,(25 16 26 93 10 2 5 16)
1969/12/31/18:00:14.689,(-17 -6 20 82 51 7 -4 -9)
1969/12/31/18:00:14.689,(-42 -20 3 9 18 12 6 -5)
1969/12/31/18:00:14.711,(30 18 -3 1 -4 -1 -2 4)
1969/12/31/18:00:14.711,(-25 -12 -15 -49 -25 -11 -13 -26)
1969/12/31/18:00:14.713,(69 35 -1 -38 -16 10 27 55)
1969/12/31/18:00:14.713,(-42 -35 -34 -67 -27 -16 -15 -22)
1969/12/31/18:00:14.725,(-4 2 27 70 17 5 5 8)
1969/12/31/18:00:14.725,(28 21 27 39 16 9 9 14)
1969/12/31/18:00:14.734,(-28 -16 -1 16 4 -4 -10 -19)
1969/12/31/18:00:14.734,(14 5 -19 -56 -11 -2 -3 4)
1969/12/31/18:00:14.750,(-1 8 9 15 -6 -4 1 -4)
1969/12/31/18:00:14.750,(15 -4 3 13 14 -4 -4 7)
1969/12/31/18:00:14.751,(-20 -14 -11 2 9 19 14 -2)
1969/12/31/18:00:14.751,(32 20 -13 -20 -12 -7 -4 11)
1969/12/31/18:00:14.773,(-24 -17 -27 -105 -42 -11 -14 -34)
1969/12/31/18:00:14.773,(-9 -7 10 51 -4 -10 -3 0)
1969/12/31/18:00:14.775,(5 3 15 27 19 -2 -4 1)
1969/12/31/18:00:14.775,(-39 -8 16 75 45 16 2 -9)
1969/12/31/18:00:14.787,(33 16 33 62 37 15 14 24)
1969/12/31/18:00:14.787,(25 16 -18 -83 -29 -6 0 4)
1969/12/31/18:00:14.796,(-23 -19 -36 -61 -46 -20 -16 -24)
1969/12/31/18:00:14.796,(-1 0 11 25 -2 -4 -3 -1)
1969/12/31/18:00:14.812,(-28 -15 3 26 14 -2 -8 -18)
1969/12/31/18:00:14.812,(32 20 3 -16 5 16 21 38)
1969/12/31/18:00:14.813,(-26 -21 -24 -32 -17 -22 -29 -35)
1969/12/31/18:00:14.813,(-4 -6 -6 -17 -31 -11 -8 -12)
1969/12/31/18:00:14.835,(-23 -21 2 27 12 1 5 0)
1969/12/31/18:00:14.835,(58 30 -3 11 15 9 15 25)
1969/12/31/18:00:14.837,(-26 -9 3 -24 -4 0 -5 -13)
1969/12/31/18:00:14.837,(21 12 2 10 1 1 6 14)
1969/12/31/18:00:14.849,(-10 -9 -6 -3 -10 -7 -6 -8)
1969/12/31/18:00:14.849,(-29 -22 -5 1 0 -7 -11 -11)
1969/12/31/18:00:14.858,(-7 -8 -6 -4 -6 -11 -13 -11)
1969/12/31/18:00:14.858,(30 29 16 4 5 7 11 4)
1969/12/31/18:00:14.874,(22 14 3 0 -8 -1 0 20)
1969/12/31/18:00:14.874,(-20 -19 -5 -17 4 2 0 -6)
1969/12/31/18:00:14.875,(-27 -16 -2 12 -1 -3 -6 -14)
1969/12/31/18:00:14.875,(18 15 4 15 9 5 5 3)
1969/12/31/18:00:14.899,(-12 -5 0 10 4 2 0 -5)
1969/12/31/18:00:14.899,(-6 -4 -17 -40 3 -3 -6 -6)
1969/12/31/18:00:14.900,(1 -1 0 -6 -18 6 10 8)
1969/12/31/18:00:14.900,(-15 -14 2 6 -3 -9 -6 -2)
1969/12/31/18:00:14.911,(9 14 2 4 7 2 0 1)
1969/12/31/18:00:14.911,(-18 -14 -10 -36 -12 -5 -9 -15)
1969/12/31/18:00:14.920,(10 7 -2 -3 0 6 11 14)
1969/12/31/18:00:14.920,(-1 -10 -11 19 18 2 -2 1)
1969/12/31/18:00:14.936,(10 12 19 39 4 1 -1 -1)
1969/12/31/18:00:14.936,(1 4 12 7 -10 -8 -5 1)
1969/12/31/18:00:14.937,(18 14 6 -10 -8 0 1 4)
1969/12/31/18:00:14.937,(-10 -8 0 -3 -2 -2 -2 -1)
1969/12/31/18:00:14.959,(-53 -47 -21 -21 1 -7 -11 -20)
1969/12/31/18:00:14.959,(102 86 29 34 25 33 43 58)
1969/12/31/18:00:14.961,(-30 -26 -23 -19 -17 -25 -36 -44)
1969/12/31/18:00:14.961,(-6 -14 -10 -20 -13 -4 -2 2)
1969/12/31/18:00:14.973,(-16 -3 -6 -11 -5 -2 -1 -3)
1969/12/31/18:00:14.973,(-24 -19 -5 -16 0 -2 -3 -7)
1969/12/31/18:00:14.982,(19 16 8 14 -4 5 10 15)
1969/12/31/18:00:14.982,(5 -2 -28 -69 -16 -3 0 3)
1969/12/31/18:00:14.998,(11 12 19 55 31 8 7 4)
1969/12/31/18:00:14.998,(-21 -9 22 72 12 2 -5 -14)
1969/12/31/18:00:14.999,(15 17 23 36 17 5 4 5)
1969/12/31/18:00:14.999,(-35 -23 -4 -26 -17 -14 -17 -20)
1969/12/31/18:00:15.021,(32 10 -19 -24 -12 -6 2 16)
1969/12/31/18:00:15.021,(-52 -27 -16 -20 -3 -3 -8 -24)
1969/12/31/18:00:15.023,(64 46 13 -17 4 10 19 31)
1969/12/31/18:00:15.023,(-6 -11 5 11 -3 1 0 -1)
1969/12/31/18:00:15.035,(-13 -7 -22 -44 -12 -1 -5 -9)
1969/12/31/18:00:15.035,(56 31 18 38 8 10 21 40)
1969/12/31/18:00:15.044,(-33 -11 -4 1 -1 -5 -8 -15)
1969/12/31/18:00:15.044,(2 0 6 11 11 4 2 4)
1969/12/31/18:00:15.060,(-5 0 0 -17 -9 -1 -5 -8)
1969/12/31/18:00:15.060,(-32 -28 -23 -29 -17 -13 -15 -21)
1969/12/31/18:00:15.061,(9 2 11 22 14 7 9 14)
1969/12/31/18:00:15.061,(32 20 16 21 5 5 7 16)
1969/12/31/18:00:15.083,(-22 -14 -6 8 0 -9 -10 -14)
1969/12/31/18:00:15.083,(-4 -4 -14 -67 -17 -5 -6 -7)
1969/12/31/18:00:15.084,(6 9 26 -8 -9 17 13 6)
1969/12/31/18:00:15.084,(-2 2 -1 89 31 2 -6 -6)
1969/12/31/18:00:15.097,(-5 -13 -16 28 14 -17 -13 -5)
1969/12/31/18:00:15.097,(-27 -16 -9 -6 1 -1 -4 -19)
1969/12/31/18:00:15.106,(4 6 -7 -39 -12 -4 3 16)
1969/12/31/18:00:15.106,(-22 3 0 -52 -30 -8 -14 -33)
1969/12/31/18:00:15.122,(1 3 11 8 0 13 10 8)
1969/12/31/18:00:15.122,(37 29 26 33 24 24 36 51)
1969/12/31/18:00:15.123,(-4 -18 -11 -11 0 -5 -3 7)
1969/12/31/18:00:15.123,(-12 13 8 15 2 5 5 -3)
1969/12/31/18:00:15.145,(14 2 -2 -42 6 4 5 -3)
1969/12/31/18:00:15.145,(-32 -29 -5 34 -17 -12 -16 -21)
1969/12/31/18:00:15.147,(-2 -1 -4 11 10 -1 -1 -4)
1969/12/31/18:00:15.147,(9 -3 -7 -10 2 1 5 11)
1969/12/31/18:00:15.159,(22 20 11 -30 -9 4 11 16)
1969/12/31/18:00:15.159,(-7 -6 -2 21 1 -6 -9 -10)
1969/12/31/18:00:15.168,(-11 -9 -7 12 8 -1 -6 -13)
1969/12/31/18:00:15.168,(21 1 -9 0 -3 1 4 9)
1969/12/31/18:00:15.184,(-15 12 28 41 7 8 6 7)
1969/12/31/18:00:15.184,(-31 -11 2 6 -2 -12 -24 -47)
1969/12/31/18:00:15.185,(-12 -7 -13 -21 -16 -18 -23 -18)
1969/12/31/18:00:15.185,(-9 -11 -27 -60 21 -4 -2 -6)
1969/12/31/18:00:15.207,(-5 -3 -8 7 -44 1 5 5)
1969/12/31/18:00:15.207,(0 3 17 37 18 0 -3 -1)
1969/12/31/18:00:15.209,(-3 0 1 9 22 7 2 -5)
1969/12/31/18:00:15.209,(20 7 6 -15 -9 1 4 15)
1969/12/31/18:00:15.221,(-10 -3 -6 -6 7 -1 -3 -6)
1969/12/31/18:00:15.221,(7 -3 -20 -41 -17 -4 -3 1)
1969/12/31/18:00:15.230,(-3 -8 -9 -9 -10 4 4 -1)
1969/12/31/18:00:15.230,(2 9 26 53 17 6 6 10)
1969/12/31/18:00:15.246,(21 5 3 15 3 -3 2 12)
1969/12/31/18:00:15.246,(15 9 -6 -20 -16 -9 -12 -13)
1969/12/31/18:00:15.247,(-18 -17 0 -15 -2 1 5 7)
1969/12/31/18:00:15.247,(64 29 -5 6 -4 3 6 13)
1969/12/31/18:00:15.269,(6 24 12 7 17 6 2 4)
1969/12/31/18:00:15.269,(-20 -19 -4 -7 -5 0 -3 -5)
1969/12/31/18:00:15.271,(15 15 25 14 5 13 14 15)
1969/12/31/18:00:15.271,(-9 -1 -4 15 3 3 -1 -3)
1969/12/31/18:00:15.283,(-9 -27 -44 -29 -16 -23 -12 -8)
1969/12/31/18:00:15.283,(-7 -13 -9 -48 -21 -18 -12 -6)
1969/12/31/18:00:15.293,(-2 5 -11 -9 1 -3 -4 -4)
1969/12/31/18:00:15.293,(-4 -7 -7 -8 -20 1 5 9)
1969/12/31/18:00:15.308,(-29 -4 13 33 11 3 -5 -13)
1969/12/31/18:00:15.308,(7 4 16 59 34 2 -6 0)
1969/12/31/18:00:15.309,(-71 -25 12 -15 -5 4 -8 -49)
1969/12/31/18:00:15.309,(13 3 13 17 7 7 12 35)
1969/12/31/18:00:15.331,(-36 -41 -22 -39 -17 -11 -14 -13)
1969/12/31/18:00:15.331,(23 5 -10 -18 -11 -4 -2 -2)
1969/12/31/18:00:15.333,(27 32 5 17 11 6 4 12)
1969/12/31/18:00:15.333,(-27 -15 -10 -16 -10 -10 -11 -22)
1969/12/31/18:00:15.345,(-21 -25 -3 -19 -4 -3 -2 -12)
1969/12/31/18:00:15.345,(61 34 8 -3 0 15 24 40)
1969/12/31/18:00:15.355,(8 -8 -14 3 7 -6 -1 1)
1969/12/31/18:00:15.355,(-18 -7 1 17 -11 -11 -11 -17)
1969/12/31/18:00:15.369,(29 20 17 15 11 7 6 14)
1969/12/31/18:00:15.369,(-8 4 -1 16 17 15 10 8)
1969/12/31/18:00:15.376,(19 -2 -3 10 -4 -12 -9 6)
1969/12/31/18:00:15.376,(-61 -42 -8 -24 -18 -13 -20 -38)
1969/12/31/18:00:15.393,(55 69 22 -5 9 24 31 38)
1969/12/31/18:00:15.393,(-28 -35 -22 -23 -8 -5 -5 -8)
1969/12/31/18:00:15.395,(43 14 -6 -8 -3 2 2 13)
1969/12/31/18:00:15.395,(-25 -18 -2 14 8 3 0 -4)
1969/12/31/18:00:15.407,(-1 -6 7 11 3 2 -5 -10)
1969/12/31/18:00:15.407,(2 8 5 1 -2 0 7 9)
1969/12/31/18:00:15.417,(10 15 36 27 14 20 17 13)
1969/12/31/18:00:15.417,(13 8 -20 -13 4 -3 6 11)
1969/12/31/18:00:15.431,(-10 -31 -39 -71 -25 -22 -15 -15)
1969/12/31/18:00:15.431,(-15 -1 -10 10 -17 -13 -13 -16)
1969/12/31/18:00:15.438,(-19 -18 -14 4 -8 -14 -8 -6)
1969/12/31/18:00:15.438,(3 6 29 14 7 9 1 -3)
1969/12/31/18:00:15.455,(29 27 10 19 17 11 5 9)
1969/12/31/18:00:15.455,(-24 -10 10 -8 1 3 -1 -12)
1969/12/31/18:00:15.457,(-16 -20 -8 -12 -5 2 4 5)
1969/12/31/18:00:15.457,(66 39 -11 -10 -2 5 9 24)
1969/12/31/18:00:15.469,(-14 5 18 16 -2 -6 -14 -32)
1969/12/31/18:00:15.469,(-14 -7 1 -4 -2 -5 -5 -4)
1969/12/31/18:00:15.479,(-5 3 -6 -8 -2 2 -1 -7)
1969/12/31/18:00:15.479,(-17 -17 3 3 3 1 0 0)
1969/12/31/18:00:15.493,(10 2 -14 23 6 2 4 14)
1969/12/31/18:00:15.493,(3 0 -10 -9 -8 -12 -10 -9)
1969/12/31/18:00:15.500,(-15 -3 1 -14 -13 -15 -14 -17)
1969/12/31/18:00:15.500,(11 9 3 -27 -4 8 11 10)
1969/12/31/18:00:15.517,(-19 -16 -5 16 -1 -5 -8 -9)
1969/12/31/18:00:15.517,(-13 -4 -14 -35 10 20 22 15)
1969/12/31/18:00:15.519,(21 11 11 56 -9 -11 -11 -6)
1969/12/31/18:00:15.519,(-49 -24 29 36 17 -5 -10 -16)
1969/12/31/18:00:15.531,(9 21 5 8 11 18 13 1)
1969/12/31/18:00:15.531,(10 -12 -16 -19 -2 0 2 21)
1969/12/31/18:00:15.541,(-1 29 -1 -32 -7 0 -3 -21)
1969/12/31/18:00:15.541,(0 -7 -2 -5 -6 0 4 8)
1969/12/31/18:00:15.555,(32 15 9 0 -1 -7 -6 6)
1969/12/31/18:00:15.555,(-16 -12 -3 8 -1 -6 -14 -18)
1969/12/31/18:00:15.562,(24 11 -2 -4 5 7 10 19)
1969/12/31/18:00:15.562,(-24 -12 -6 -8 -4 0 0 -5)
1969/12/31/18:00:15.579,(-8 -9 -4 4 1 1 4 3)
1969/12/31/18:00:15.579,(-5 6 12 17 6 3 4 0)
1969/12/31/18:00:15.581,(18 -7 -14 -2 -1 -1 0 7)
1969/12/31/18:00:15.581,(4 1 -15 -32 -7 -5 0 -3)
1969/12/31/18:00:15.602,(-3 -3 15 23 3 0 -1 0)
1969/12/31/18:00:15.603,(-62 -17 19 37 2 -6 -18 -42)
1969/12/31/18:00:15.604,(56 31 3 12 17 20 32 52)
1969/12/31/18:00:15.604,(0 0 -19 -21 -11 -10 -14 -10)
1969/12/31/18:00:15.617,(-24 -15 -12 -27 -11 -13 -15 -12)
1969/12/31/18:00:15.617,(1 -2 -2 7 -6 -11 -13 -9)
1969/12/31/18:00:15.624,(-77 -48 -6 -6 8 11 7 -16)
1969/12/31/18:00:15.624,(92 81 29 17 13 12 5 20)
1969/12/31/18:00:15.641,(-16 -12 -5 -6 -11 -2 -1 -2)
1969/12/31/18:00:15.641,(9 10 -1 -2 0 3 1 3)
1969/12/31/18:00:15.643,(-28 -31 -11 -14 -9 -14 -14 -10)
1969/12/31/18:00:15.643,(-6 -4 6 15 4 6 9 5)
1969/12/31/18:00:15.665,(0 -1 4 26 26 14 9 2)
1969/12/31/18:00:15.665,(-6 -2 2 1 -3 -6 -9 -13)
1969/12/31/18:00:15.666,(20 -2 5 1 7 15 23 37)
1969/12/31/18:00:15.666,(23 9 -7 2 -8 -9 -8 -10)
1969/12/31/18:00:15.679,(-5 -7 -6 -25 -13 5 6 -5)
1969/12/31/18:00:15.679,(89 52 11 5 7 5 17 38)
1969/12/31/18:00:15.686,(-62 -34 -15 -4 -20 -46 -61 -65)
1969/12/31/18:00:15.686,(-87 -40 -4 -7 -8 -7 -9 -32)
1969/12/31/18:00:15.705,(100 48 -1 -8 7 21 30 67)
1969/12/31/18:00:15.705,(-11 -4 -3 -6 -2 4 2 -7)
1969/12/31/18:00:15.706,(23 12 -2 7 5 3 7 17)
1969/12/31/18:00:15.706,(-19 -22 -4 -5 -7 -9 -11 -9)
1969/12/31/18:00:15.727,(-50 -36 -9 -4 -4 -6 -7 -22)
1969/12/31/18:00:15.727,(3 -2 3 -8 0 5 3 6)
1969/12/31/18:00:15.728,(1 6 -2 -12 -4 6 8 5)
1969/12/31/18:00:15.728,(-6 -19 -5 15 5 -4 -4 -6)
1969/12/31/18:00:15.740,(7 22 17 13 7 10 13 4)
1969/12/31/18:00:15.740,(50 15 -7 -20 -10 -10 -6 11)
1969/12/31/18:00:15.749,(-4 -6 -4 -9 4 1 1 -1)
1969/12/31/18:00:15.749,(0 2 0 15 2 -4 0 -3)
1969/12/31/18:00:15.765,(-41 -13 13 34 -5 -9 -14 -24)
1969/12/31/18:00:15.765,(3 -1 10 21 7 6 11 27)
1969/12/31/18:00:15.767,(41 16 -1 -13 -7 -6 -7 -5)
1969/12/31/18:00:15.767,(3 -2 -11 -20 -1 2 0 5)
1969/12/31/18:00:15.789,(9 12 -2 -14 -8 -9 -4 3)
1969/12/31/18:00:15.789,(-31 -32 -8 -6 -1 2 2 -13)
1969/12/31/18:00:15.790,(1 10 -1 7 2 3 3 -2)
1969/12/31/18:00:15.790,(22 14 -1 1 1 -1 -5 1)
1969/12/31/18:00:15.802,(-35 -27 -2 -10 -8 -7 -10 -16)
1969/12/31/18:00:15.802,(18 22 -7 -4 4 5 5 -1)
1969/12/31/18:00:15.811,(-22 -18 0 8 8 8 10 14)
1969/12/31/18:00:15.811,(5 2 5 6 -4 -5 -7 -12)
1969/12/31/18:00:15.827,(-9 0 -1 -14 -9 -11 -10 -6)
1969/12/31/18:00:15.827,(17 1 -2 7 6 3 7 14)
1969/12/31/18:00:15.829,(-20 -8 -5 0 -1 -7 -13 -18)
1969/12/31/18:00:15.829,(1 -4 3 12 4 6 5 1)
1969/12/31/18:00:15.851,(14 0 8 5 7 7 13 25)
1969/12/31/18:00:15.851,(7 8 -6 4 -1 -4 -3 -3)
1969/12/31/18:00:15.852,(-18 -7 -2 -11 -3 0 1 -7)
1969/12/31/18:00:15.852,(25 21 2 -4 4 8 13 22)
1969/12/31/18:00:15.864,(55 13 -3 -9 -6 -6 -3 10)
1969/12/31/18:00:15.864,(-41 -21 -2 4 4 -1 -7 -20)
1969/12/31/18:00:15.873,(6 7 -1 3 2 7 10 10)
1969/12/31/18:00:15.873,(12 11 5 -2 4 9 15 24)
1969/12/31/18:00:15.889,(-41 -25 -9 -4 -4 -7 -9 -15)
1969/12/31/18:00:15.889,(20 22 6 -3 -3 0 0 2)
1969/12/31/18:00:15.891,(-5 -12 0 -2 -11 -11 -13 -14)
1969/12/31/18:00:15.891,(30 29 -1 7 11 9 13 15)
1969/12/31/18:00:15.913,(-2 -6 -8 3 4 0 -2 0)
1969/12/31/18:00:15.913,(-14 -10 1 -3 -3 -4 -6 -8)
1969/12/31/18:00:15.914,(-40 -17 -3 -5 -6 -10 -14 -25)
1969/12/31/18:00:15.914,(43 24 7 1 -16 -6 -6 -3)
1969/12/31/18:00:15.926,(-21 -7 8 21 20 10 14 8)
1969/12/31/18:00:15.926,(-13 -11 -6 -9 -7 -5 -3 -6)
1969/12/31/18:00:15.935,(-2 7 -1 -13 -3 -3 2 8)
1969/12/31/18:00:15.935,(-16 -7 -5 1 5 2 -3 -3)
1969/12/31/18:00:15.951,(0 2 1 13 3 2 -3 -9)
1969/12/31/18:00:15.951,(-1 -2 -5 -4 -5 -5 -3 3)
1969/12/31/18:00:15.952,(-11 -9 2 -2 -3 -2 -3 -9)
1969/12/31/18:00:15.952,(-15 -12 2 -4 -9 -5 -6 -3)
1969/12/31/18:00:15.975,(-19 -6 2 11 1 3 9 4)
1969/12/31/18:00:15.975,(-17 -3 0 5 6 1 -3 -13)
1969/12/31/18:00:15.976,(24 5 -5 -2 -1 0 -4 1)
1969/12/31/18:00:15.976,(-20 -9 -7 -13 -4 -5 -2 -11)
1969/12/31/18:00:15.988,(4 -1 -1 -15 -12 -7 -11 -3)
1969/12/31/18:00:15.988,(-4 -6 1 -2 -5 -1 1 1)
1969/12/31/18:00:15.997,(8 12 -1 4 -1 -2 -2 -3)
1969/12/31/18:00:15.997,(24 -3 -13 -2 7 3 4 19)
1969/12/31/18:00:16.014,(-69 -20 9 2 7 4 -3 -17)
1969/12/31/18:00:16.014,(28 41 12 1 4 16 23 17)
1969/12/31/18:00:16.015,(75 38 6 4 -2 -4 -4 17)
1969/12/31/18:00:16.015,(-29 -20 -1 -10 -7 -3 -4 -6)
1969/12/31/18:00:16.037,(15 -4 -10 -12 -1 3 4 11)
1969/12/31/18:00:16.037,(9 -1 -5 -2 14 7 6 15)
1969/12/31/18:00:16.038,(-31 -10 11 27 -7 -2 1 -7)
1969/12/31/18:00:16.038,(12 7 10 12 10 2 -2 3)
1969/12/31/18:00:16.050,(22 9 -11 -13 -9 -10 -14 -13)
1969/12/31/18:00:16.050,(-33 -23 -3 -4 -1 -3 -6 -15)
1969/12/31/18:00:16.059,(16 2 -12 -17 -2 0 6 12)
1969/12/31/18:00:16.059,(-46 -30 1 -3 -7 -12 -17 -28)
1969/12/31/18:00:16.083,(86 67 25 14 18 32 49 61)
1969/12/31/18:00:16.083,(-30 -27 -13 -3 -13 -24 -32 -35)
1969/12/31/18:00:16.084,(-22 -19 -9 -6 -3 -7 -9 -11)
1969/12/31/18:00:16.084,(0 4 5 2 5 11 14 11)
1969/12/31/18:00:16.099,(-14 -14 -8 -6 -4 -9 -15 -14)
1969/12/31/18:00:16.099,(29 10 6 2 3 10 18 25)
1969/12/31/18:00:16.100,(-3 4 7 8 9 8 1 -6)
1969/12/31/18:00:16.100,(-6 -5 -14 -44 -23 -13 -8 -5)
1969/12/31/18:00:16.112,(-4 -3 0 16 4 -1 -3 -10)
1969/12/31/18:00:16.112,(-36 -13 11 27 0 -2 -3 -10)
1969/12/31/18:00:16.121,(24 0 2 23 16 0 -3 16)
1969/12/31/18:00:16.121,(-5 1 -1 -7 -6 -7 -6 -6)
1969/12/31/18:00:16.137,(21 11 -25 -33 -15 -3 4 11)
1969/12/31/18:00:16.137,(11 13 14 -3 -2 5 -4 -19)
1969/12/31/18:00:16.139,(8 0 -4 -3 3 11 22 30)
1969/12/31/18:00:16.139,(-13 -9 -2 4 3 -1 -11 -25)
1969/12/31/18:00:16.161,(-23 -18 -6 -13 -12 -13 -16 -14)
1969/12/31/18:00:16.161,(16 12 1 2 0 0 6 14)
1969/12/31/18:00:16.162,(1 7 4 -10 -2 3 3 -4)
1969/12/31/18:00:16.162,(0 -1 -1 8 2 -3 0 11)
1969/12/31/18:00:16.174,(-17 -15 1 3 -2 -6 -16 -23)
1969/12/31/18:00:16.174,(-32 -26 -7 -10 -8 -9 -9 -13)
1969/12/31/18:00:16.184,(47 36 12 4 13 19 25 33)
1969/12/31/18:00:16.184,(-12 -9 -3 8 6 1 3 -1)
1969/12/31/18:00:16.199,(10 6 -2 -16 -5 0 -1 -2)
1969/12/31/18:00:16.199,(-7 -5 -6 6 -3 -5 -5 1)
1969/12/31/18:00:16.201,(-20 -14 -6 -1 -4 -8 -10 -18)
1969/12/31/18:00:16.201,(-27 -18 1 13 1 1 0 2)
1969/12/31/18:00:16.223,(13 12 20 27 17 13 7 -8)
1969/12/31/18:00:16.223,(24 2 -8 -19 -8 -5 0 25)
1969/12/31/18:00:16.224,(2 7 -11 -13 -5 -1 1 0)
1969/12/31/18:00:16.224,(-20 -30 -10 -11 0 -3 -11 -18)
1969/12/31/18:00:16.245,(-33 -24 -1 7 -13 -10 -10 -14)
1969/12/31/18:00:16.245,(23 18 -7 -14 -5 4 7 8)
1969/12/31/18:00:16.247,(-1 1 1 9 1 -6 -10 -9)
1969/12/31/18:00:16.247,(23 18 3 2 -9 7 13 18)
1969/12/31/18:00:16.261,(-12 -7 7 8 5 -14 -12 -9)
1969/12/31/18:00:16.261,(-3 -5 1 16 12 5 4 2)
1969/12/31/18:00:16.263,(5 7 1 8 6 4 -2 -4)
1969/12/31/18:00:16.263,(17 17 -7 -17 -7 -4 0 12)
1969/12/31/18:00:16.285,(-25 -4 -8 -29 -20 -8 -10 -15)
1969/12/31/18:00:16.285,(-19 -14 -5 -1 -6 -10 -10 -9)
1969/12/31/18:00:16.286,(-26 -23 -3 -22 -11 -5 -1 -5)
1969/12/31/18:00:16.286,(38 31 22 40 30 21 22 19)
1969/12/31/18:00:16.298,(5 -9 -7 -1 -4 -11 -10 -4)
1969/12/31/18:00:16.298,(-9 -6 -8 -8 0 -1 -7 -8)
1969/12/31/18:00:16.307,(-18 -9 -11 -27 -10 0 1 -4)
1969/12/31/18:00:16.307,(-2 -3 2 -13 -20 0 6 6)
1969/12/31/18:00:16.323,(3 4 9 26 17 4 4 4)
1969/12/31/18:00:16.323,(-2 3 7 15 6 -1 -4 -9)
1969/12/31/18:00:16.325,(9 2 1 4 -2 -7 -4 0)
1969/12/31/18:00:16.325,(-36 -33 -11 -17 0 -3 -5 -9)
1969/12/31/18:00:16.347,(38 27 -6 -11 -7 6 5 -1)
1969/12/31/18:00:16.347,(-19 -14 -4 0 -3 -2 -2 -4)
1969/12/31/18:00:16.348,(20 18 14 30 19 5 6 15)
1969/12/31/18:00:16.348,(-36 -25 -7 7 -10 -15 -24 -37)
1969/12/31/18:00:16.360,(-3 1 8 3 15 20 26 30)
1969/12/31/18:00:16.360,(21 -2 -5 -10 -8 -4 -9 -12)
1969/12/31/18:00:16.369,(-5 -10 -5 -1 -3 -2 -1 -1)
1969/12/31/18:00:16.369,(-27 -13 -3 -10 -7 -10 -19 -28)
1969/12/31/18:00:16.385,(34 18 -20 -29 -14 -9 -1 10)
1969/12/31/18:00:16.385,(1 6 2 4 6 8 9 13)
1969/12/31/18:00:16.387,(-17 -9 8 38 3 0 -6 -13)
1969/12/31/18:00:16.387,(11 9 10 15 3 -2 -4 -2)
1969/12/31/18:00:16.409,(-12 -5 7 8 2 -1 -1 -4)
1969/12/31/18:00:16.409,(14 10 -1 -6 2 3 9 17)
1969/12/31/18:00:16.410,(-5 -3 -8 -6 0 -4 -7 -11)
1969/12/31/18:00:16.410,(17 15 -10 -51 -10 4 11 16)
1969/12/31/18:00:16.422,(-9 -12 -5 13 -3 -3 -5 -5)
1969/12/31/18:00:16.422,(-7 1 5 -1 1 1 -3 -7)
1969/12/31/18:00:16.431,(-37 -32 1 5 2 1 -1 -3)
1969/12/31/18:00:16.431,(89 68 17 21 13 8 10 18)
1969/12/31/18:00:16.447,(18 11 7 -4 6 15 14 17)
1969/12/31/18:00:16.447,(-52 -41 -17 -7 -6 -8 -16 -34)
1969/12/31/18:00:16.449,(26 17 1 -7 -9 -5 -7 -2)
1969/12/31/18:00:16.449,(2 -1 0 -2 0 0 7 14)
1969/12/31/18:00:16.471,(0 0 -2 -2 2 2 6 6)
1969/12/31/18:00:16.471,(24 19 7 -5 -1 5 8 11)
1969/12/31/18:00:16.472,(-1 -2 1 5 -2 -3 -3 1)
1969/12/31/18:00:16.472,(-27 -18 -6 9 3 -2 -5 -9)
1969/12/31/18:00:16.484,(12 6 -7 -16 -12 -5 -3 2)
1969/12/31/18:00:16.484,(-8 -4 5 9 4 1 2 3)
1969/12/31/18:00:16.493,(-12 -2 2 10 4 -4 -6 -11)
1969/12/31/18:00:16.493,(17 9 0 -16 -5 0 2 9)
1969/12/31/18:00:16.509,(-28 -19 -5 1 -1 4 -3 -14)
1969/12/31/18:00:16.509,(18 11 5 16 2 0 2 11)
1969/12/31/18:00:16.511,(-3 -7 -5 1 -6 -7 -3 -4)
1969/12/31/18:00:16.511,(-26 -23 -11 5 -5 -13 -11 -9)
1969/12/31/18:00:16.533,(-4 4 9 -11 4 7 7 -1)
1969/12/31/18:00:16.533,(-5 -2 -2 -15 0 3 -4 -8)
1969/12/31/18:00:16.534,(59 43 2 -2 1 12 16 25)
1969/12/31/18:00:16.534,(-27 -17 -4 0 0 -3 -8 -13)
1969/12/31/18:00:16.555,(-20 -16 -1 -1 0 -7 -11 -13)
1969/12/31/18:00:16.555,(31 23 6 13 5 10 20 29)
1969/12/31/18:00:16.557,(-12 -12 -4 -1 -3 -7 -4 -2)
1969/12/31/18:00:16.557,(-4 -4 -3 1 -2 -1 0 -1)
1969/12/31/18:00:16.571,(-9 -5 -3 -1 -3 -11 -13 -15)
1969/12/31/18:00:16.571,(-5 -4 0 -7 -4 0 -1 -3)
1969/12/31/18:00:16.573,(-5 -3 -5 -25 -5 0 0 3)
1969/12/31/18:00:16.573,(13 16 11 18 12 16 18 10)
1969/12/31/18:00:16.595,(-11 -7 2 21 8 2 0 2)
1969/12/31/18:00:16.595,(-28 -17 -10 -8 -12 -22 -32 -34)
1969/12/31/18:00:16.596,(-18 -10 -5 -17 -6 -1 -3 -10)
1969/12/31/18:00:16.596,(0 -5 -5 -8 -3 1 4 7)
1969/12/31/18:00:16.617,(0 -1 -7 8 3 -5 -1 0)
1969/12/31/18:00:16.617,(58 45 13 14 17 13 18 34)
1969/12/31/18:00:16.619,(-27 -17 -11 -12 -5 -9 -16 -29)
1969/12/31/18:00:16.619,(-7 -4 -3 -8 -15 -4 -4 -6)
1969/12/31/18:00:16.633,(7 -1 -3 -4 -15 -6 -3 3)
1969/12/31/18:00:16.633,(-25 -18 -5 -7 -6 -8 -8 -10)
1969/12/31/18:00:16.635,(17 15 10 1 14 15 13 13)
1969/12/31/18:00:16.635,(18 13 5 15 10 0 2 10)
1969/12/31/18:00:16.657,(-17 -10 -6 5 -9 -13 -13 -16)
1969/12/31/18:00:16.657,(-2 -6 0 11 2 1 2 0)
1969/12/31/18:00:16.658,(-12 -8 2 -1 -3 -4 -6 -9)
1969/12/31/18:00:16.658,(-8 -11 -9 -10 3 4 2 -2)
1969/12/31/18:00:16.679,(21 15 5 -4 4 6 8 14)
1969/12/31/18:00:16.679,(-2 -3 -3 -7 -6 1 1 -1)
1969/12/31/18:00:16.681,(15 2 -2 -1 -3 -2 0 11)
1969/12/31/18:00:16.681,(-13 4 5 7 4 -3 -9 -19)
1969/12/31/18:00:16.695,(0 -1 0 -3 -5 -7 -6 -6)
1969/12/31/18:00:16.695,(-3 -3 -7 -9 -3 -1 4 6)
1969/12/31/18:00:16.701,(6 4 6 4 -1 -5 -14 -16)
1969/12/31/18:00:16.701,(0 -2 -1 5 -2 -5 -5 -2)
1969/12/31/18:00:16.719,(3 1 -3 -7 1 2 3 5)
1969/12/31/18:00:16.719,(-7 -5 -4 -15 6 -1 -2 -4)
1969/12/31/18:00:16.720,(-6 -4 -3 16 -13 2 8 7)
1969/12/31/18:00:16.720,(6 5 4 1 5 4 6 7)
1969/12/31/18:00:16.741,(2 2 3 14 12 1 -6 -7)
1969/12/31/18:00:16.741,(1 -1 5 13 6 1 3 5)
1969/12/31/18:00:16.743,(-8 -4 -1 -4 1 -2 -2 -4)
1969/12/31/18:00:16.743,(4 -2 -3 -7 2 1 2 4)
1969/12/31/18:00:16.765,(-5 -4 -4 -6 -11 -7 -6 -5)
1969/12/31/18:00:16.765,(19 15 4 -4 2 9 14 20)
1969/12/31/18:00:16.766,(-1 -2 -7 -9 -1 2 3 4)
1969/12/31/18:00:16.766,(-6 -8 -6 -2 -10 -11 -12 -7)
1969/12/31/18:00:16.781,(-8 5 8 0 13 15 14 3)
1969/12/31/18:00:16.781,(-10 1 6 6 -2 -1 -4 -9)
1969/12/31/18:00:16.782,(-4 -3 -3 0 2 -1 -1 -3)
1969/12/31/18:00:16.782,(0 -6 1 4 4 1 -1 3)
1969/12/31/18:00:16.803,(11 7 1 -3 -2 -3 -4 -2)
1969/12/31/18:00:16.803,(-3 -11 -32 -99 -60 -24 -11 -5)
1969/12/31/18:00:16.805,(-6 0 6 50 14 -2 1 0)
1969/12/31/18:00:16.805,(-4 1 23 69 39 11 -1 -4)
1969/12/31/18:00:16.827,(-6 -1 16 45 38 18 4 0)
1969/12/31/18:00:16.827,(-7 -4 6 11 13 10 2 -1)
1969/12/31/18:00:16.828,(16 1 -13 -48 -25 -10 -4 4)
1969/12/31/18:00:16.828,(14 5 -16 -41 -29 -3 12 18)
1969/12/31/18:00:16.843,(-3 -6 -10 -16 -15 -10 -9 -6)
1969/12/31/18:00:16.843,(25 8 -1 6 1 -6 -2 6)
1969/12/31/18:00:16.844,(-11 2 1 -11 -4 -7 -11 -16)
1969/12/31/18:00:16.844,(-20 -10 3 10 4 2 -1 -8)
1969/12/31/18:00:16.865,(16 14 2 -14 -10 -4 2 4)
1969/12/31/18:00:16.865,(0 -4 1 13 3 -1 -1 1)
1969/12/31/18:00:16.867,(0 -2 0 14 12 7 9 8)
1969/12/31/18:00:16.867,(10 6 0 -6 3 5 3 3)
1969/12/31/18:00:16.881,(-8 -7 -5 -12 -11 -4 -2 2)
1969/12/31/18:00:16.881,(-16 -2 7 18 3 -1 -3 -8)
1969/12/31/18:00:16.887,(-1 -3 3 1 7 3 -1 -1)
1969/12/31/18:00:16.887,(0 0 -4 -8 -2 2 1 -2)
1969/12/31/18:00:16.905,(1 -6 -6 -7 -7 0 0 7)
1969/12/31/18:00:16.905,(1 1 3 10 1 -2 0 -1)
1969/12/31/18:00:16.906,(-1 3 4 -4 5 4 3 3)
1969/12/31/18:00:16.906,(-7 -7 -3 -31 -13 -5 -5 -4)
1969/12/31/18:00:16.927,(1 -3 -3 22 14 -2 1 -2)
1969/12/31/18:00:16.927,(0 2 10 23 -9 4 -1 -3)
1969/12/31/18:00:16.929,(-1 -3 -4 -2 -30 -11 -2 1)
1969/12/31/18:00:16.929,(0 -4 -12 -30 -20 -19 -8 -2)
1969/12/31/18:00:16.942,(-5 -3 -18 -52 -17 -14 2 -2)
1969/12/31/18:00:16.942,(0 0 7 37 38 16 3 -1)
1969/12/31/18:00:16.951,(1 4 19 37 48 29 12 7)
1969/12/31/18:00:16.951,(6 10 18 34 18 25 7 4)
1969/12/31/18:00:16.967,(1 -3 -7 -22 -51 -19 -5 1)
1969/12/31/18:00:16.967,(-7 -8 -6 -5 -10 -10 -6 -6)
1969/12/31/18:00:16.968,(1 2 2 -30 4 -11 -2 2)
1969/12/31/18:00:16.968,(7 8 4 34 58 29 9 4)
1969/12/31/18:00:16.989,(3 3 6 17 36 16 4 3)
1969/12/31/18:00:16.989,(4 17 38 -7 -25 -1 4 2)
1969/12/31/18:00:16.996,(-1 -5 -20 -2 -31 -16 -8 -4)
1969/12/31/18:00:16.996,(-1 -26 -70 -47 -36 -42 -17 -1)
1969/12/31/18:00:17.004,(-31 -35 -31 -7 -2 -15 -20 -23)
1969/12/31/18:00:17.004,(-8 -2 -1 -3 3 2 1 0)
1969/12/31/18:00:17.013,(5 29 59 -12 -15 22 18 8)
1969/12/31/18:00:17.013,(26 34 22 43 39 18 16 19)
1969/12/31/18:00:17.028,(8 -17 -28 21 26 -4 -5 2)
1969/12/31/18:00:17.028,(-23 -27 -30 2 15 -7 -15 -19)
1969/12/31/18:00:17.036,(-6 4 10 -48 -20 1 1 -3)
1969/12/31/18:00:17.036,(5 19 39 7 -21 9 8 4)
1969/12/31/18:00:17.051,(18 14 11 19 -33 -4 5 13)
1969/12/31/18:00:17.051,(-4 -13 -21 7 2 -8 -3 -2)
1969/12/31/18:00:17.053,(-3 -10 -23 14 38 1 -8 -6)
1969/12/31/18:00:17.053,(-16 -7 8 5 11 3 -4 -13)
1969/12/31/18:00:17.066,(10 25 43 -44 23 27 15 9)
1969/12/31/18:00:17.066,(15 13 -8 14 -38 -11 5 12)
1969/12/31/18:00:17.075,(-3 -25 -47 -5 -15 -19 -9 -2)
1969/12/31/18:00:17.075,(-15 -9 15 26 5 -10 -14 -14)
1969/12/31/18:00:17.091,(-4 -6 -16 12 19 -1 -3 -4)
1969/12/31/18:00:17.091,(-4 1 18 -9 9 17 7 0)
1969/12/31/18:00:17.092,(5 13 -1 12 16 1 2 2)
1969/12/31/18:00:17.092,(1 -5 -2 -11 -27 -5 -1 0)
1969/12/31/18:00:17.113,(-3 -1 -2 -10 -19 -8 -6 -3)
1969/12/31/18:00:17.113,(3 6 -8 -31 -4 -4 0 0)
1969/12/31/18:00:17.115,(6 -3 -3 2 5 5 6 6)
1969/12/31/18:00:17.115,(-8 -13 -9 -16 -14 -12 -5 -6)
1969/12/31/18:00:17.128,(-5 8 20 20 -4 1 -3 -4)
1969/12/31/18:00:17.128,(3 -6 -16 0 16 3 1 1)
1969/12/31/18:00:17.143,(-5 -3 -13 -67 -14 4 5 -1)
1969/12/31/18:00:17.143,(7 3 -20 21 -7 -8 -2 4)
1969/12/31/18:00:17.153,(4 10 40 34 16 5 7 4)
1969/12/31/18:00:17.153,(-9 -14 -10 53 19 0 -6 -7)
1969/12/31/18:00:17.154,(-13 -12 14 25 4 -7 -10 -11)
1969/12/31/18:00:17.154,(2 9 -13 -50 -12 4 4 2)
1969/12/31/18:00:17.175,(8 -5 -28 -41 -17 -4 1 2)
1969/12/31/18:00:17.175,(-1 4 9 -3 -11 -7 -2 -2)
1969/12/31/18:00:17.177,(4 8 17 18 16 -1 2 2)
1969/12/31/18:00:17.177,(-2 -7 -13 -6 -11 1 -2 -2)
1969/12/31/18:00:17.190,(-3 0 8 21 12 3 1 -1)
1969/12/31/18:00:17.190,(6 8 3 -17 -3 7 4 4)
1969/12/31/18:00:17.199,(6 0 -5 22 -1 3 1 2)
1969/12/31/18:00:17.199,(-7 -1 8 -25 -13 -7 -3 -6)
1969/12/31/18:00:17.215,(1 2 -7 2 3 4 2 2)
1969/12/31/18:00:17.215,(2 -1 -5 -25 -7 -1 0 3)
1969/12/31/18:00:17.216,(-1 5 10 8 2 4 -3 0)
1969/12/31/18:00:17.216,(6 9 6 -2 4 13 5 4)
1969/12/31/18:00:17.237,(3 -1 -20 -9 -5 13 1 2)
1969/12/31/18:00:17.237,(-5 -3 10 -14 5 2 -3 -3)
1969/12/31/18:00:17.238,(-4 -3 -6 5 -3 2 2 -4)
1969/12/31/18:00:17.238,(-6 -8 -2 14 13 -8 0 -4)
1969/12/31/18:00:17.252,(-12 -1 17 -2 -2 -18 -6 -10)
1969/12/31/18:00:17.252,(2 2 10 24 8 -7 3 1)
1969/12/31/18:00:17.261,(-6 -12 -13 -5 -3 -12 -1 -1)
1969/12/31/18:00:17.261,(-4 -8 -6 0 -6 -12 -1 -3)
1969/12/31/18:00:17.276,(-1 -3 -10 1 0 0 2 1)
1969/12/31/18:00:17.276,(9 8 -2 6 -4 1 1 6)
1969/12/31/18:00:17.283,(-2 -3 -1 3 -1 5 -2 -1)
1969/12/31/18:00:17.283,(3 2 8 16 9 9 3 3)
1969/12/31/18:00:17.299,(-2 3 12 5 -7 -1 -2 1)
1969/12/31/18:00:17.299,(-1 3 1 -16 12 3 -2 -3)
1969/12/31/18:00:17.302,(2 0 -19 5 -6 2 3 2)
1969/12/31/18:00:17.302,(9 4 -16 0 11 7 3 5)
1969/12/31/18:00:17.314,(7 2 20 19 8 -3 -2 3)
1969/12/31/18:00:17.314,(-11 -13 -5 -7 -25 -5 -6 -5)
1969/12/31/18:00:17.323,(0 7 12 9 9 5 0 -1)
1969/12/31/18:00:17.323,(-2 0 0 -15 9 6 2 0)
1969/12/31/18:00:17.338,(5 4 -6 7 7 6 3 1)
1969/12/31/18:00:17.338,(1 -1 -3 -14 3 1 1 0)
1969/12/31/18:00:17.345,(-2 -6 -5 -11 -13 -9 -4 -3)
1969/12/31/18:00:17.345,(-2 -1 5 -3 -14 -8 -6 -3)
1969/12/31/18:00:17.361,(-4 -5 -6 -13 -6 -1 -1 -2)
1969/12/31/18:00:17.361,(-1 -1 1 2 2 0 1 -3)
1969/12/31/18:00:17.364,(0 1 -9 -17 -7 -4 -5 -2)
1969/12/31/18:00:17.364,(1 -5 -2 16 -12 -10 -7 0)
1969/12/31/18:00:17.392,(-7 1 15 11 -1 -6 4 1)
1969/12/31/18:00:17.392,(-3 -3 -4 -16 0 1 -2 -2)
1969/12/31/18:00:17.393,(7 5 9 24 14 4 5 3)
1969/12/31/18:00:17.395,(-6 -6 -2 -5 20 11 3 -2)
1969/12/31/18:00:17.400,(-5 -6 -16 -14 -21 -13 -7 -6)
1969/12/31/18:00:17.400,(3 1 -1 10 7 -8 -5 -2)
1969/12/31/18:00:17.415,(0 -3 -1 -8 -11 -2 1 0)
1969/12/31/18:00:17.415,(0 0 7 10 9 1 -1 -1)
1969/12/31/18:00:17.424,(2 1 -4 -6 4 7 3 3)
1969/12/31/18:00:17.424,(0 -1 -4 2 3 0 3 3)
1969/12/31/18:00:17.426,(-7 -7 -6 -6 -22 -14 -9 -6)
1969/12/31/18:00:17.426,(-2 -2 3 0 -5 -2 0 -1)
1969/12/31/18:00:17.446,(1 0 -1 3 4 2 -2 -3)
1969/12/31/18:00:17.446,(2 1 -2 -6 -3 3 0 2)
1969/12/31/18:00:17.447,(1 1 3 2 7 3 1 3)
1969/12/31/18:00:17.447,(-4 -3 0 -1 -15 -9 -5 -5)
1969/12/31/18:00:17.463,(1 -1 -4 -7 2 1 1 1)
1969/12/31/18:00:17.463,(2 2 -1 9 -1 3 -2 2)
1969/12/31/18:00:17.469,(4 7 11 10 20 3 1 2)
1969/12/31/18:00:17.469,(-1 3 6 -4 -3 7 2 0)
1969/12/31/18:00:17.484,(0 1 1 6 24 7 0 0)
1969/12/31/18:00:17.484,(2 1 -3 -7 -4 3 3 3)
1969/12/31/18:00:17.485,(-2 -4 -3 -4 -8 -3 -5 -5)
1969/12/31/18:00:17.485,(1 0 -2 -13 -12 -4 0 1)
1969/12/31/18:00:17.508,(-1 -2 -7 -9 -12 -3 0 -1)
1969/12/31/18:00:17.508,(-1 0 2 2 4 -2 -3 -4)
1969/12/31/18:00:17.509,(-2 -2 -2 -3 1 -2 -1 -3)
1969/12/31/18:00:17.509,(-4 -4 -1 3 3 -3 0 -1)
1969/12/31/18:00:17.523,(-3 -3 -2 -3 -7 0 -1 -2)
1969/12/31/18:00:17.523,(4 2 3 -1 4 3 2 4)
1969/12/31/18:00:17.532,(1 0 -1 -1 -4 -1 0 -1)
1969/12/31/18:00:17.532,(-3 0 -2 -6 -4 -3 -3 -3)
1969/12/31/18:00:17.546,(-3 -7 -7 -3 -4 -6 -3 -1)
1969/12/31/18:00:17.546,(-5 -3 3 -6 -4 -3 1 -3)
1969/12/31/18:00:17.547,(5 5 -1 11 0 3 1 4)
1969/12/31/18:00:17.547,(0 -2 -1 2 7 -4 -5 -4)
1969/12/31/18:00:17.570,(-7 -3 3 7 7 -2 -6 -9)
1969/12/31/18:00:17.570,(-7 -9 -2 2 -3 -6 -4 -4)
1969/12/31/18:00:17.571,(4 2 -1 -8 -10 -6 0 3)
1969/12/31/18:00:17.571,(2 1 -1 2 -4 -5 -4 -1)
1969/12/31/18:00:17.585,(4 -1 -8 -6 -7 1 1 3)
1969/12/31/18:00:17.585,(0 3 -3 0 1 3 2 3)
1969/12/31/18:00:17.594,(-6 -1 3 3 2 5 3 -4)
1969/12/31/18:00:17.594,(2 0 -2 -3 -2 -5 -5 -2)
1969/12/31/18:00:17.608,(-2 2 6 0 1 3 -1 -3)
1969/12/31/18:00:17.608,(-3 -3 -1 0 -2 -1 -4 -3)
1969/12/31/18:00:17.609,(-8 -5 -2 -2 1 -1 -2 -2)
1969/12/31/18:00:17.609,(9 4 1 0 1 3 6 5)
1969/12/31/18:00:17.632,(13 4 -2 -5 -4 0 2 6)
1969/12/31/18:00:17.632,(-3 2 -2 3 2 3 2 -2)
1969/12/31/18:00:17.633,(3 -1 -1 -2 2 1 -1 2)
1969/12/31/18:00:17.633,(-9 -5 1 -2 -3 -1 -4 -4)
1969/12/31/18:00:17.647,(1 0 -3 -3 -6 -2 0 3)
1969/12/31/18:00:17.647,(7 4 1 6 8 8 6 8)
1969/12/31/18:00:17.655,(-7 -7 -5 -6 -3 -5 -4 -8)
1969/12/31/18:00:17.655,(2 2 2 1 1 0 4 1)
1969/12/31/18:00:17.680,(-4 -2 -1 -1 -3 -4 -4 -5)
1969/12/31/18:00:17.680,(-2 -1 -1 -1 -1 -5 -3 -2)
1969/12/31/18:00:17.680,(2 0 1 2 -1 0 5 3)
1969/12/31/18:00:17.680,(3 1 -1 -1 -1 0 2 3)
1969/12/31/18:00:17.702,(4 0 -2 -1 -2 -1 -1 0)
1969/12/31/18:00:17.702,(-8 -5 1 0 0 -3 -2 -1)
1969/12/31/18:00:17.704,(7 3 2 3 2 1 0 2)
1969/12/31/18:00:17.704,(-6 -3 -1 -3 -2 0 -5 -8)
1969/12/31/18:00:17.710,(-1 -1 0 -1 1 2 2 1)
1969/12/31/18:00:17.710,(4 0 0 0 -1 1 -1 -1)
1969/12/31/18:00:17.711,(0 1 1 0 2 1 -2 1)
1969/12/31/18:00:17.711,(0 1 1 -3 -1 1 4 3)
1969/12/31/18:00:17.732,(-4 -1 -1 -2 -3 2 -1 -4)
1969/12/31/18:00:17.732,(-1 -1 1 2 1 1 -2 0)
1969/12/31/18:00:17.733,(4 2 -4 -3 0 1 1 3)
1969/12/31/18:00:17.733,(-1 -1 -1 -4 0 0 1 -1)
1969/12/31/18:00:17.756,(-5 -3 0 -1 -2 -3 -3 -2)
1969/12/31/18:00:17.756,(2 -1 0 -1 -1 0 1 -2)
1969/12/31/18:00:17.757,(-4 -4 -1 -1 -2 -2 -3 -3)
1969/12/31/18:00:17.757,(-1 -1 0 0 0 -1 0 -1)
1969/12/31/18:00:17.772,(-1 -2 1 0 -1 -2 -2 -2)
1969/12/31/18:00:17.772,(1 1 -1 -1 -2 -4 -2 -2)
1969/12/31/18:00:17.773,(-2 -3 -1 -1 -2 -2 -4 -3)
1969/12/31/18:00:17.773,(5 2 -3 0 1 -1 -3 2)
1969/12/31/18:00:17.794,(-3 -1 -1 0 0 2 7 1)
1969/12/31/18:00:17.794,(0 2 1 1 2 4 2 -2)
1969/12/31/18:00:17.795,(9 5 0 -2 -1 -2 0 6)
1969/12/31/18:00:17.795,(-2 -3 -1 -2 -2 -1 2 4)
1969/12/31/18:00:17.818,(-6 6 2 5 5 4 -2 -13)
1969/12/31/18:00:17.818,(-7 -7 -5 -5 -3 -5 -4 -4)
1969/12/31/18:00:17.818,(-2 -2 -1 -2 -1 -1 1 -3)
1969/12/31/18:00:17.818,(1 -1 -1 0 2 0 0 3)
1969/12/31/18:00:17.834,(8 2 1 0 0 -2 3 7)
1969/12/31/18:00:17.834,(2 1 -2 -2 -4 -1 4 3)
1969/12/31/18:00:17.835,(-7 -3 -1 0 -1 -4 -6 -5)
1969/12/31/18:00:17.835,(0 -1 1 1 -1 -2 -1 0)
1969/12/31/18:00:17.856,(-3 -3 -3 1 0 1 0 -1)
1969/12/31/18:00:17.856,(2 1 1 1 1 -2 -2 -2)
1969/12/31/18:00:17.857,(-3 -4 -3 0 1 -4 -4 -5)
1969/12/31/18:00:17.857,(-1 -1 -2 1 -2 1 2 -1)
1969/12/31/18:00:17.857,(1 1 1 3 2 1 1 3)
1969/12/31/18:00:17.857,(0 0 -2 1 1 -2 0 2)
1969/12/31/18:00:17.859,(2 1 -2 -1 -1 -2 0 2)
1969/12/31/18:00:17.859,(-4 -3 0 -3 -3 -5 -6 -5)
1969/12/31/18:00:17.871,(-2 -1 0 -1 0 -2 -1 -1)
1969/12/31/18:00:17.871,(1 1 0 -2 1 2 0 0)
1969/12/31/18:00:17.880,(0 0 0 0 1 3 0 1)
1969/12/31/18:00:17.880,(0 1 1 -1 1 -3 -2 1)
1969/12/31/18:00:17.896,(-2 -1 -2 2 2 3 0 2)
1969/12/31/18:00:17.896,(0 1 2 0 0 1 2 -1)
1969/12/31/18:00:17.898,(-1 -1 1 0 -2 -1 -1 -2)
1969/12/31/18:00:17.898,(3 1 -6 -2 -1 -1 -1 1)
1969/12/31/18:00:17.920,(-4 -7 -9 -6 -4 -4 -4 -3)
1969/12/31/18:00:17.920,(-4 -2 4 -4 -5 -4 -1 -3)
1969/12/31/18:00:17.921,(0 2 3 1 1 8 3 -1)
1969/12/31/18:00:17.921,(5 4 -2 6 4 1 4 3)
1969/12/31/18:00:17.933,(-7 -5 3 -3 -5 -5 -3 -5)
1969/12/31/18:00:17.933,(1 2 -6 1 1 0 -1 -1)
1969/12/31/18:00:17.942,(3 1 4 -4 -5 -5 -1 1)
1969/12/31/18:00:17.942,(-3 1 -4 -1 1 2 -1 0)
1969/12/31/18:00:17.958,(6 2 -1 -1 2 3 3 4)
1969/12/31/18:00:17.958,(-2 0 7 -1 -3 0 -1 -1)
1969/12/31/18:00:17.960,(1 0 -6 -4 4 2 2 2)
1969/12/31/18:00:17.960,(-5 0 20 -1 -9 -6 -3 -7)
1969/12/31/18:00:17.982,(-3 -5 -22 5 -4 -2 -3 -3)
1969/12/31/18:00:17.982,(4 -5 -5 0 8 1 4 5)
1969/12/31/18:00:17.983,(-10 0 6 -6 -3 -6 -7 -9)
1969/12/31/18:00:17.983,(4 4 10 -3 -14 8 7 4)
1969/12/31/18:00:17.995,(-8 -4 -6 15 13 -5 -6 -7)
1969/12/31/18:00:17.995,(6 0 1 28 16 2 -1 5)
1969/12/31/18:00:18.004,(-9 -4 -5 -14 -15 -10 -8 -9)
1969/12/31/18:00:18.004,(0 -2 -23 -63 -27 -6 1 3)
1969/12/31/18:00:18.019,(9 9 3 -26 -21 -1 1 4)
1969/12/31/18:00:18.019,(-18 -13 17 46 24 7 -2 -8)
1969/12/31/18:00:18.026,(9 14 31 69 37 17 10 7)
1969/12/31/18:00:18.026,(-2 1 -5 29 13 0 -4 -4)
1969/12/31/18:00:18.042,(1 8 15 -27 -14 5 5 0)
1969/12/31/18:00:18.042,(4 -13 -64 -94 -51 -22 -11 -1)
1969/12/31/18:00:18.051,(-14 -27 -42 -82 -37 -16 -10 -8)
1969/12/31/18:00:18.051,(-4 3 28 17 21 5 2 1)
1969/12/31/18:00:18.065,(9 19 57 96 30 14 8 8)
1969/12/31/18:00:18.065,(1 6 11 78 31 9 0 -1)
1969/12/31/18:00:18.075,(2 -6 -22 -42 -4 3 3 1)
1969/12/31/18:00:18.075,(-6 -11 -27 -34 -20 -9 -4 -2)
1969/12/31/18:00:18.081,(-7 -18 -39 -35 -26 -9 -6 -4)
1969/12/31/18:00:18.081,(3 13 11 -61 9 -5 0 1)
1969/12/31/18:00:18.089,(3 4 1 32 -16 -9 -2 -1)
1969/12/31/18:00:18.089,(2 2 10 -6 8 -1 -2 -1)
1969/12/31/18:00:18.106,(7 11 46 96 10 12 9 6)
1969/12/31/18:00:18.106,(-4 0 -1 7 -4 4 -2 -5)
1969/12/31/18:00:18.107,(-8 -14 -5 48 28 4 -3 -3)
1969/12/31/18:00:18.107,(-3 0 9 46 20 6 0 -3)
1969/12/31/18:00:18.119,(-7 -4 -31 -94 -56 -18 -8 -6)
1969/12/31/18:00:18.120,(10 6 -20 -70 -38 -4 6 7)
1969/12/31/18:00:18.137,(3 -1 -4 -6 33 4 3 1)
1969/12/31/18:00:18.137,(-12 -8 -3 -35 -9 -5 -10 -11)
1969/12/31/18:00:18.143,(4 2 14 91 63 9 4 0)
1969/12/31/18:00:18.143,(-13 -8 11 26 -8 -6 -4 -12)
1969/12/31/18:00:18.158,(3 7 18 21 -19 -4 4 4)
1969/12/31/18:00:18.158,(2 -5 -31 -22 -78 -14 -1 2)
1969/12/31/18:00:18.168,(7 1 -20 -76 48 3 1 4)
1969/12/31/18:00:18.168,(3 7 32 101 34 14 4 3)
1969/12/31/18:00:18.169,(2 9 9 -30 -1 6 1 1)
1969/12/31/18:00:18.169,(5 7 21 38 33 15 6 5)
1969/12/31/18:00:18.190,(-6 -9 -13 17 -21 -7 -5 -3)
1969/12/31/18:00:18.190,(-2 -4 -22 -80 -39 -7 0 1)
1969/12/31/18:00:18.192,(0 -2 -23 -74 -33 -7 -2 2)
1969/12/31/18:00:18.192,(13 13 25 31 28 5 4 6)
1969/12/31/18:00:18.206,(-9 -2 14 39 12 -3 -5 -6)
1969/12/31/18:00:18.206,(0 -3 1 22 15 4 3 2)
1969/12/31/18:00:18.212,(-5 -2 -5 8 -40 -12 -4 -4)
1969/12/31/18:00:18.212,(-1 -3 -5 -55 7 -3 -2 -1)
1969/12/31/18:00:18.230,(5 9 16 22 46 12 5 7)
1969/12/31/18:00:18.230,(2 2 -1 23 3 2 2 4)
1969/12/31/18:00:18.231,(-2 1 11 -20 -2 0 -3 -3)
1969/12/31/18:00:18.231,(-1 -3 -6 37 -2 -2 -3 -3)
1969/12/31/18:00:18.252,(-2 -5 -22 -54 -26 -6 -3 -2)
1969/12/31/18:00:18.252,(-3 -2 -10 -77 -19 -6 -4 -4)
1969/12/31/18:00:18.254,(5 4 9 59 7 3 1 3)
1969/12/31/18:00:18.254,(-1 -2 7 19 20 4 1 -2)
1969/12/31/18:00:18.268,(0 -2 -4 -1 -12 -3 -1 -1)
1969/12/31/18:00:18.268,(0 -1 -10 -40 -12 -4 -2 -3)
1969/12/31/18:00:18.274,(0 0 2 19 14 4 1 -1)
1969/12/31/18:00:18.275,(0 -2 -2 1 5 0 0 1)
1969/12/31/18:00:18.292,(-3 -5 -11 -28 -20 -6 -2 -3)
1969/12/31/18:00:18.292,(-3 -1 8 22 4 -4 -4 -3)
1969/12/31/18:00:18.294,(0 1 6 9 17 -1 -1 -1)
1969/12/31/18:00:18.294,(-4 -6 -14 -3 -5 -3 1 0)
1969/12/31/18:00:18.313,(-1 -2 -5 -25 -15 -5 0 -1)
1969/12/31/18:00:18.313,(-1 2 10 24 11 0 -2 1)
1969/12/31/18:00:18.323,(0 -1 1 10 5 1 1 1)
1969/12/31/18:00:18.323,(-2 -3 -8 -18 -6 -2 -2 -1)
1969/12/31/18:00:18.330,(-2 -2 1 -9 -7 0 -2 0)
1969/12/31/18:00:18.330,(6 4 10 24 13 5 3 1)
1969/12/31/18:00:18.338,(1 0 -4 -11 -3 1 0 1)
1969/12/31/18:00:18.338,(-2 -1 -3 0 -1 0 1 0)
1969/12/31/18:00:18.354,(-2 -1 -1 0 0 -1 0 -1)
1969/12/31/18:00:18.354,(0 0 0 0 -3 -1 -2 -1)
1969/12/31/18:00:18.355,(0 -1 -3 -7 0 1 -1 1)
1969/12/31/18:00:18.355,(1 0 -1 -6 0 2 -1 -2)
1969/12/31/18:00:18.376,(3 2 4 10 1 4 2 1)
1969/12/31/18:00:18.376,(-5 -6 -14 -25 -12 -4 -2 -2)
1969/12/31/18:00:18.378,(1 1 7 -4 0 1 1 2)
1969/12/31/18:00:18.378,(-3 -5 -5 -14 -13 -5 -3 -3)
1969/12/31/18:00:18.391,(2 5 16 49 25 5 1 0)
1969/12/31/18:00:18.391,(-3 1 14 33 4 0 0 0)
1969/12/31/18:00:18.400,(0 -3 -6 0 10 1 0 -1)
1969/12/31/18:00:18.400,(-2 -4 -11 -5 -10 -4 0 0)
1969/12/31/18:00:18.416,(-3 -7 -22 -47 -19 -11 -6 -5)
1969/12/31/18:00:18.416,(1 1 -4 -31 -21 -6 -2 2)
1969/12/31/18:00:18.417,(0 5 13 49 20 5 -1 -1)
1969/12/31/18:00:18.417,(1 1 3 3 13 7 -2 0)
1969/12/31/18:00:18.438,(1 -2 -2 -8 -8 3 0 0)
1969/12/31/18:00:18.438,(1 0 -4 -5 4 6 3 1)
1969/12/31/18:00:18.440,(0 0 -5 -27 -13 -3 -1 -1)
1969/12/31/18:00:18.440,(0 1 6 19 6 2 2 -1)
1969/12/31/18:00:18.453,(-3 -2 -1 -14 -6 -2 -1 -2)
1969/12/31/18:00:18.453,(1 0 -1 7 3 -1 0 0)
1969/12/31/18:00:18.462,(-1 -3 -15 -42 -23 -5 -1 0)
1969/12/31/18:00:18.462,(-1 3 6 -2 -3 -3 -1 -1)
1969/12/31/18:00:18.478,(1 2 14 41 25 5 3 2)
1969/12/31/18:00:18.478,(-4 -2 7 21 17 1 -2 -5)
1969/12/31/18:00:18.479,(1 -2 3 35 9 1 2 1)
1969/12/31/18:00:18.479,(1 1 1 1 1 -1 -2 -2)
1969/12/31/18:00:18.500,(-5 -5 -12 -36 -27 -6 -3 -3)
1969/12/31/18:00:18.500,(4 0 -4 -9 -4 0 2 4)
1969/12/31/18:00:18.502,(-2 1 -2 -13 2 -1 -2 -2)
1969/12/31/18:00:18.502,(-6 0 -7 -9 -6 -3 -3 -5)
1969/12/31/18:00:18.515,(3 5 3 4 6 2 0 1)
1969/12/31/18:00:18.515,(-5 0 1 7 3 -3 -5 -6)
1969/12/31/18:00:18.524,(-1 -2 0 -4 -3 -1 0 -1)
1969/12/31/18:00:18.524,(6 -2 -5 -7 -4 -3 2 4)
1969/12/31/18:00:18.540,(2 0 -1 -12 -3 -4 -4 -4)
1969/12/31/18:00:18.540,(0 -4 -12 -15 -8 -1 -1 3)
1969/12/31/18:00:18.541,(-4 -10 -49 -115 -59 -9 -4 -3)
1969/12/31/18:00:18.541,(-3 4 38 109 30 7 4 2)
1969/12/31/18:00:18.564,(3 11 54 91 51 13 2 2)
1969/12/31/18:00:18.564,(-2 4 18 19 26 8 1 -7)
1969/12/31/18:00:18.566,(-2 0 4 -25 5 0 0 3)
1969/12/31/18:00:18.566,(-10 -12 -41 -84 -33 -14 -11 -12)
1969/12/31/18:00:18.577,(-12 -17 -31 -60 -37 -12 -2 0)
1969/12/31/18:00:18.577,(8 15 10 13 4 3 4 2)
1969/12/31/18:00:18.586,(10 -6 -5 15 5 -10 -9 3)
1969/12/31/18:00:18.586,(-10 -8 -13 -28 -11 -13 -17 -15)
1969/12/31/18:00:18.602,(35 26 15 21 16 21 33 39)
1969/12/31/18:00:18.602,(-8 -14 -13 -15 -7 -9 -17 -17)
1969/12/31/18:00:18.603,(4 5 9 19 11 8 10 7)
1969/12/31/18:00:18.603,(10 13 10 15 10 10 13 13)
1969/12/31/18:00:18.624,(-18 -14 -11 -10 -8 -8 -8 -7)
1969/12/31/18:00:18.624,(6 -1 -33 -102 -36 -2 9 13)
1969/12/31/18:00:18.626,(-9 -3 -1 84 7 -1 -3 -6)
1969/12/31/18:00:18.626,(0 8 61 105 32 8 6 7)
1969/12/31/18:00:18.639,(2 5 20 55 30 1 -7 -8)
1969/12/31/18:00:18.639,(-19 -8 -11 -65 -18 1 -2 -14)
1969/12/31/18:00:18.648,(-4 -3 -11 30 -10 -6 -2 -1)
1969/12/31/18:00:18.648,(-13 -9 -12 2 6 0 0 0)
1969/12/31/18:00:18.664,(10 25 3 12 8 2 -2 -5)
1969/12/31/18:00:18.664,(-11 -9 4 9 4 -11 -18 -17)
1969/12/31/18:00:18.666,(-16 -15 -5 -52 -6 -5 -2 -7)
1969/12/31/18:00:18.666,(-1 -10 -22 -47 -24 -9 -12 -21)
1969/12/31/18:00:18.695,(-13 -4 -6 -28 -18 -6 -1 0)
1969/12/31/18:00:18.695,(11 2 -1 21 4 0 7 13)
1969/12/31/18:00:18.696,(-12 2 -13 -70 -17 2 3 0)
1969/12/31/18:00:18.696,(9 -5 -31 -93 -20 -6 4 11)
1969/12/31/18:00:18.701,(2 -4 19 44 3 -1 -2 -1)
1969/12/31/18:00:18.701,(-1 14 61 115 62 11 3 2)
1969/12/31/18:00:18.710,(3 4 44 72 58 15 -1 -4)
1969/12/31/18:00:18.710,(18 11 -8 -39 1 2 0 8)
1969/12/31/18:00:18.726,(-47 -60 -53 -114 -41 -7 0 0)
1969/12/31/18:00:18.726,(39 38 -13 -26 -37 -15 -15 -17)
1969/12/31/18:00:18.727,(-46 -3 2 -22 -9 -6 -7 -24)
1969/12/31/18:00:18.727,(20 13 -7 10 15 -1 -2 7)
1969/12/31/18:00:18.748,(20 -6 -20 -41 -24 -3 0 8)
1969/12/31/18:00:18.748,(-1 -8 12 10 -15 1 5 12)
1969/12/31/18:00:18.750,(-2 -2 17 61 11 1 1 3)
1969/12/31/18:00:18.750,(-4 17 24 -9 0 10 5 -3)
1969/12/31/18:00:18.763,(-10 4 -1 29 8 2 -5 -7)
1969/12/31/18:00:18.763,(-1 -20 -27 -14 13 -6 3 9)
1969/12/31/18:00:18.772,(4 -9 -26 -43 -17 -15 -15 -16)
1969/12/31/18:00:18.772,(-10 -9 5 17 -16 1 6 4)
1969/12/31/18:00:18.788,(11 10 9 6 6 3 1 -1)
1969/12/31/18:00:18.788,(-2 -1 -3 -6 3 10 9 6)
1969/12/31/18:00:18.789,(22 13 -3 -26 -6 3 3 10)
1969/12/31/18:00:18.789,(-4 -5 13 44 13 5 5 5)
1969/12/31/18:00:18.810,(-18 -9 1 -11 2 -6 -5 0)
1969/12/31/18:00:18.810,(52 20 3 -13 -4 10 12 14)
1969/12/31/18:00:18.812,(-7 -5 -9 19 -1 -8 -12 -17)
1969/12/31/18:00:18.812,(-7 -10 0 5 8 1 -1 -3)
1969/12/31/18:00:18.834,(10 2 -12 -37 -11 -8 -14 -1)
1969/12/31/18:00:18.834,(-22 -20 -10 23 -11 -5 3 0)
1969/12/31/18:00:18.835,(19 14 30 67 22 12 21 25)
1969/12/31/18:00:18.835,(-9 -6 2 7 9 -2 -13 -20)
1969/12/31/18:00:18.850,(0 3 -2 -11 -11 -6 -1 -3)
1969/12/31/18:00:18.850,(-18 -7 -8 -6 2 -4 -10 -9)
1969/12/31/18:00:18.851,(14 -1 -10 -40 -5 4 4 7)
1969/12/31/18:00:18.851,(-2 1 -1 16 -10 -5 4 6)
1969/12/31/18:00:18.881,(3 6 -5 -25 12 0 -2 -3)
1969/12/31/18:00:18.881,(-14 -8 -11 -30 -24 -4 -6 -7)
1969/12/31/18:00:18.882,(-27 -16 7 8 8 2 -3 -6)
1969/12/31/18:00:18.882,(62 30 1 17 24 15 14 20)
1969/12/31/18:00:18.887,(-24 1 24 43 7 9 3 -21)
1969/12/31/18:00:18.887,(-32 -5 10 26 9 2 7 5)
1969/12/31/18:00:18.896,(19 13 4 13 -1 -4 -9 -9)
1969/12/31/18:00:18.896,(0 -1 -19 -63 -22 -9 -3 3)
1969/12/31/18:00:18.912,(12 7 -11 -28 -8 5 12 8)
1969/12/31/18:00:18.912,(-26 -21 5 36 7 -5 -7 -9)
1969/12/31/18:00:18.913,(4 5 -1 -47 -7 6 9 10)
1969/12/31/18:00:18.913,(-8 -5 -9 -15 10 -3 -3 -5)
1969/12/31/18:00:18.934,(5 -2 -1 1 -37 -5 2 5)
1969/12/31/18:00:18.934,(4 9 22 84 50 10 4 1)
1969/12/31/18:00:18.936,(11 7 11 14 27 11 3 4)
1969/12/31/18:00:18.936,(0 -5 -6 5 -6 4 1 2)
1969/12/31/18:00:18.949,(-9 -9 4 10 8 -2 -4 -5)
1969/12/31/18:00:18.949,(35 22 -12 -49 -32 -15 -4 15)
1969/12/31/18:00:18.958,(-68 -33 -15 -7 -15 -13 -18 -37)
1969/12/31/18:00:18.958,(-11 -21 -6 -12 -6 -8 -15 -13)
1969/12/31/18:00:18.973,(36 31 -4 -19 -7 5 11 18)
1969/12/31/18:00:18.973,(13 3 -9 -19 -6 1 7 14)
1969/12/31/18:00:18.980,(-6 -10 -9 -23 -2 1 3 9)
1969/12/31/18:00:18.980,(-1 0 4 17 -2 2 5 3)
1969/12/31/18:00:18.996,(-16 -6 8 38 21 -3 -9 -12)
1969/12/31/18:00:18.996,(-3 -8 -1 -16 -8 2 -1 -2)
1969/12/31/18:00:18.998,(29 15 10 7 -19 -1 7 15)
1969/12/31/18:00:18.998,(-18 -6 3 3 8 -1 -3 -7)
1969/12/31/18:00:19.011,(15 4 -7 -67 -12 -1 -4 -2)
1969/12/31/18:00:19.011,(-12 -6 0 50 14 3 -1 -6)
1969/12/31/18:00:19.020,(-4 -16 4 18 11 7 5 10)
1969/12/31/18:00:19.020,(56 41 7 21 14 6 15 28)
1969/12/31/18:00:19.035,(-55 -39 -16 -8 -7 -14 -23 -36)
1969/12/31/18:00:19.035,(35 19 -1 -41 -15 0 5 14)
1969/12/31/18:00:19.042,(-5 -28 -23 -37 -24 -12 -10 -7)
1969/12/31/18:00:19.042,(13 -1 -2 -2 -1 -1 5 20)
1969/12/31/18:00:19.058,(7 -1 -23 -14 39 3 1 7)
1969/12/31/18:00:19.058,(-12 -7 15 34 -45 -3 -2 -6)
1969/12/31/18:00:19.060,(14 20 12 37 21 -2 -2 2)
1969/12/31/18:00:19.060,(-16 -7 -1 -51 -23 -3 -6 -12)
1969/12/31/18:00:19.073,(1 3 23 55 11 -3 0 -1)
1969/12/31/18:00:19.073,(-16 -5 4 0 37 4 -5 -14)
1969/12/31/18:00:19.082,(9 6 -2 20 3 6 7 5)
1969/12/31/18:00:19.082,(2 3 -6 -12 -10 -2 -3 -7)
1969/12/31/18:00:19.097,(-39 -18 -12 -73 -21 5 6 -9)
1969/12/31/18:00:19.097,(23 12 -6 -3 11 5 10 12)
1969/12/31/18:00:19.104,(11 14 15 5 -8 5 2 1)
1969/12/31/18:00:19.104,(-15 -9 0 25 9 -1 -1 0)
1969/12/31/18:00:19.120,(4 -4 3 46 0 -7 -11 -8)
1969/12/31/18:00:19.120,(-1 1 -13 -18 14 -1 -2 -1)
1969/12/31/18:00:19.122,(9 4 -1 -51 -26 -5 -2 -2)
1969/12/31/18:00:19.122,(-24 -13 -16 -65 -16 -10 -6 -12)
1969/12/31/18:00:19.135,(29 15 15 56 1 2 9 14)
1969/12/31/18:00:19.135,(-16 -11 2 9 10 3 -3 -9)
1969/12/31/18:00:19.144,(3 5 -6 -5 -19 -9 -8 -4)
1969/12/31/18:00:19.144,(-17 -11 22 29 8 -4 -4 -6)
1969/12/31/18:00:19.159,(11 20 0 22 1 1 -1 -8)
1969/12/31/18:00:19.159,(-1 -6 -24 -66 -2 -1 -1 -1)
1969/12/31/18:00:19.166,(1 -1 2 29 11 8 6 6)
1969/12/31/18:00:19.166,(-3 0 9 31 3 0 -5 -7)
1969/12/31/18:00:19.182,(0 -4 9 13 4 -3 0 8)
1969/12/31/18:00:19.182,(-17 1 2 -7 -5 -1 -1 -13)
1969/12/31/18:00:19.184,(14 -17 -10 6 15 -2 0 11)
1969/12/31/18:00:19.184,(31 27 -8 -30 -12 6 3 0)
1969/12/31/18:00:19.197,(-4 -8 -17 -21 -11 -2 -4 -3)
1969/12/31/18:00:19.197,(-4 2 19 18 1 2 1 -2)
1969/12/31/18:00:19.206,(3 3 -3 -10 -7 -15 -7 -2)
1969/12/31/18:00:19.206,(-13 -9 -7 -15 -2 -2 -6 -11)
1969/12/31/18:00:19.221,(22 10 2 -11 5 5 17 31)
1969/12/31/18:00:19.221,(-13 -16 -6 -2 -18 1 -9 -18)
1969/12/31/18:00:19.235,(-17 3 18 42 26 14 11 -6)
1969/12/31/18:00:19.235,(34 21 22 23 11 -4 2 35)
1969/12/31/18:00:19.244,(-9 -9 -46 -62 -26 -6 -9 -21)
1969/12/31/18:00:19.244,(18 6 5 -50 -9 8 24 32)
1969/12/31/18:00:19.246,(-20 -11 -5 19 15 -1 -11 -15)
1969/12/31/18:00:19.246,(-43 -30 45 121 14 18 11 -13)
1969/12/31/18:00:19.268,(18 22 28 28 19 1 -8 -7)
1969/12/31/18:00:19.268,(0 0 -33 -34 -21 -2 2 1)
1969/12/31/18:00:19.270,(6 15 25 27 10 14 11 4)
1969/12/31/18:00:19.270,(-3 -1 -18 44 10 -9 -6 -4)
1969/12/31/18:00:19.282,(0 -17 -23 -7 5 -7 0 4)
1969/12/31/18:00:19.282,(-22 -20 -16 -63 -26 -17 -16 -17)
1969/12/31/18:00:19.291,(4 4 -23 -99 -40 -12 -4 -3)
1969/12/31/18:00:19.291,(-19 -9 1 17 11 -1 -4 -15)
1969/12/31/18:00:19.306,(14 13 13 -25 -5 8 10 15)
1969/12/31/18:00:19.306,(16 15 24 63 30 3 0 4)
1969/12/31/18:00:19.307,(-2 -4 -6 2 3 1 0 2)
1969/12/31/18:00:19.308,(-13 -16 -1 -18 7 3 2 0)
1969/12/31/18:00:19.330,(14 4 -21 -55 -35 1 11 12)
1969/12/31/18:00:19.330,(1 -5 7 51 -9 -13 -13 -13)
1969/12/31/18:00:19.331,(-13 5 33 84 30 0 -6 -14)
1969/12/31/18:00:19.331,(17 5 -5 1 11 7 10 16)
1969/12/31/18:00:19.344,(-17 -12 4 13 7 1 -4 -3)
1969/12/31/18:00:19.344,(31 27 5 -25 -4 7 15 35)
1969/12/31/18:00:19.353,(16 1 -25 -31 -23 -8 -6 3)
1969/12/31/18:00:19.353,(-4 -5 -15 -36 -13 -7 -6 -14)
1969/12/31/18:00:19.368,(18 -3 5 14 4 10 17 26)
1969/12/31/18:00:19.368,(-27 -11 6 19 0 -3 -11 -22)
1969/12/31/18:00:19.370,(6 5 -3 -21 5 3 6 8)
1969/12/31/18:00:19.370,(-7 -4 -9 -13 -11 -2 -2 -5)
1969/12/31/18:00:19.392,(-7 0 1 16 -4 -10 -10 -11)
1969/12/31/18:00:19.392,(12 6 1 23 13 10 12 10)
1969/12/31/18:00:19.393,(2 -9 15 29 11 2 5 15)
1969/12/31/18:00:19.393,(-27 -7 -7 -23 -10 -1 -8 -22)
1969/12/31/18:00:19.406,(-23 -21 6 16 -6 -14 -20 -28)
1969/12/31/18:00:19.406,(-8 10 -6 -7 1 -9 -15 -22)
1969/12/31/18:00:19.416,(-7 1 -11 -24 -10 -5 -9 -11)
1969/12/31/18:00:19.416,(-15 -5 -2 -12 -2 17 32 33)
1969/12/31/18:00:19.430,(37 18 4 11 8 5 9 34)
1969/12/31/18:00:19.430,(-8 -19 -1 -4 -6 -20 -33 -39)
1969/12/31/18:00:19.432,(45 30 -6 -11 1 16 34 41)
1969/12/31/18:00:19.432,(10 4 -10 -8 -1 -8 -19 -23)
1969/12/31/18:00:19.454,(-9 4 12 -8 3 10 12 10)
1969/12/31/18:00:19.454,(-9 -9 -5 4 5 2 5 5)
