time,.data
1969/12/31/18:00:32.722,(-1 -2 1 1 3 0 -1 -1)
1969/12/31/18:00:32.722,(-4 -2 -5 -6 -9 -6 -2 -3)
1969/12/31/18:00:32.729,(-2 -2 -1 -1 2 -1 -2 0)
1969/12/31/18:00:32.729,(0 -1 1 3 -1 0 -1 0)
1969/12/31/18:00:32.745,(1 -1 -4 -4 -3 -1 2 -1)
1969/12/31/18:00:32.745,(0 1 0 -5 -8 -3 -3 -2)
1969/12/31/18:00:32.747,(0 -1 -2 -2 3 -1 2 2)
1969/12/31/18:00:32.747,(2 1 4 9 11 2 -1 0)
1969/12/31/18:00:32.768,(-2 -1 0 -3 -3 -3 -5 -3)
1969/12/31/18:00:32.768,(-2 -4 -4 -5 -4 1 1 -1)
1969/12/31/18:00:32.769,(0 -1 0 1 -1 1 -1 -1)
1969/12/31/18:00:32.769,(-2 -1 1 -3 -6 -3 1 0)
1969/12/31/18:00:32.781,(-1 0 0 1 3 2 1 0)
1969/12/31/18:00:32.781,(-2 2 2 0 -4 -2 -3 -1)
1969/12/31/18:00:32.790,(-2 1 -1 0 2 1 -1 0)
1969/12/31/18:00:32.790,(-2 -2 -3 -3 -2 0 0 0)
1969/12/31/18:00:32.805,(-2 -2 -3 -1 -1 -2 -3 -2)
1969/12/31/18:00:32.805,(2 -3 -2 -1 -1 -2 -1 1)
1969/12/31/18:00:32.807,(-1 0 -2 1 0 -2 -3 -3)
1969/12/31/18:00:32.807,(0 -1 0 -2 -2 -1 -3 0)
1969/12/31/18:00:32.828,(-3 -2 -4 -4 -1 0 -2 0)
1969/12/31/18:00:32.828,(1 0 2 2 1 -2 0 0)
1969/12/31/18:00:32.829,(-2 -2 -2 -2 -1 -2 -2 -3)
1969/12/31/18:00:32.829,(0 0 3 3 -2 -1 1 -2)
1969/12/31/18:00:32.841,(1 0 -1 -3 -1 1 -1 -1)
1969/12/31/18:00:32.841,(-2 -1 -1 -1 -1 -1 -1 -1)
1969/12/31/18:00:32.850,(-1 -1 0 0 2 -3 -9 -1)
1969/12/31/18:00:32.850,(0 0 -2 0 0 4 13 2)
1969/12/31/18:00:32.865,(-1 -2 -2 0 1 1 0 -2)
1969/12/31/18:00:32.865,(-1 -2 1 0 -2 -1 -3 -1)
1969/12/31/18:00:32.867,(-2 -2 -1 -3 -3 -3 -2 0)
1969/12/31/18:00:32.867,(-1 -2 -3 -6 -3 -2 -5 -1)
1969/12/31/18:00:32.887,(-2 -4 -3 1 0 1 2 -1)
1969/12/31/18:00:32.887,(-2 0 0 2 2 0 -1 -1)
1969/12/31/18:00:32.889,(0 1 2 0 -3 -1 3 -1)
1969/12/31/18:00:32.889,(-1 -5 -6 -3 -1 -1 0 -1)
1969/12/31/18:00:32.901,(-4 -5 -10 -17 -9 -5 -8 -7)
1969/12/31/18:00:32.901,(-3 -6 -12 -12 -7 -2 -2 -1)
1969/12/31/18:00:32.911,(2 5 14 9 4 -4 -6 0)
1969/12/31/18:00:32.911,(-1 0 -4 8 0 -3 7 1)
1969/12/31/18:00:32.925,(-1 -2 -5 -23 -5 19 13 2)
1969/12/31/18:00:32.925,(0 6 8 19 2 1 -14 -9)
1969/12/31/18:00:32.927,(1 1 6 3 -2 -7 5 4)
1969/12/31/18:00:32.927,(2 4 -10 -6 -2 -9 -9 -1)
1969/12/31/18:00:32.947,(1 1 21 28 7 -5 -9 4)
1969/12/31/18:00:32.947,(2 5 -14 -9 -1 8 10 3)
1969/12/31/18:00:32.949,(5 9 55 71 24 13 3 1)
1969/12/31/18:00:32.949,(-2 -3 -5 -14 -9 -4 -6 -7)
1969/12/31/18:00:32.961,(-6 -7 -28 -32 -14 -17 -8 -8)
1969/12/31/18:00:32.961,(-8 -19 -17 -39 -15 7 10 -3)
1969/12/31/18:00:32.970,(-11 -24 -59 -52 -18 -10 -8 -9)
1969/12/31/18:00:32.970,(6 10 -10 24 12 9 6 5)
1969/12/31/18:00:32.985,(6 21 78 41 16 6 6 8)
1969/12/31/18:00:32.985,(-7 -14 -36 -12 -10 -14 -8 -1)
1969/12/31/18:00:32.987,(-5 0 -11 -42 -14 -5 -2 -3)
1969/12/31/18:00:32.987,(-7 -17 -27 12 3 6 -4 -2)
1969/12/31/18:00:33.007,(2 10 6 -21 -2 -1 -5 -3)
1969/12/31/18:00:33.007,(8 10 33 29 11 3 7 9)
1969/12/31/18:00:33.009,(2 6 20 37 11 9 8 7)
1969/12/31/18:00:33.009,(7 12 61 32 4 -7 -1 7)
1969/12/31/18:00:33.021,(-6 -10 -14 -10 -6 -6 -2 -4)
1969/12/31/18:00:33.021,(-2 -9 -7 -1 -1 -4 -3 -4)
1969/12/31/18:00:33.030,(-13 -30 -60 -71 -25 -8 -6 -8)
1969/12/31/18:00:33.030,(-1 -4 -16 -3 -5 -3 -6 -7)
1969/12/31/18:00:33.045,(13 20 62 92 35 12 10 10)
1969/12/31/18:00:33.045,(0 -2 -1 -17 1 -3 2 3)
1969/12/31/18:00:33.047,(-1 4 6 16 3 -2 -2 -2)
1969/12/31/18:00:33.047,(-11 -14 -24 -38 -8 5 -7 -9)
1969/12/31/18:00:33.067,(-4 -15 -40 -29 -17 -3 -2 -5)
1969/12/31/18:00:33.067,(2 13 3 18 13 4 0 -2)
1969/12/31/18:00:33.069,(1 4 20 2 3 2 3 2)
1969/12/31/18:00:33.069,(-6 -8 -27 -39 -13 -4 0 1)
1969/12/31/18:00:33.081,(4 12 26 38 9 -4 -9 -6)
1969/12/31/18:00:33.081,(2 8 25 15 3 -1 -2 0)
1969/12/31/18:00:33.106,(-2 1 2 1 -4 -5 -6 -6)
1969/12/31/18:00:33.106,(-3 -15 -2 -12 -3 0 1 1)
1969/12/31/18:00:33.107,(-8 -14 -37 -19 -7 -2 0 0)
1969/12/31/18:00:33.107,(-3 6 -2 1 0 -4 -1 -1)
1969/12/31/18:00:33.111,(3 15 -1 -2 0 0 -1 -4)
1969/12/31/18:00:33.111,(3 12 8 5 2 0 1 2)
1969/12/31/18:00:33.127,(1 3 -17 -15 -1 -1 -2 0)
1969/12/31/18:00:33.127,(1 -2 5 -3 -3 -1 0 -3)
1969/12/31/18:00:33.129,(2 -2 -7 -2 0 5 2 2)
1969/12/31/18:00:33.129,(1 0 8 7 2 -2 -2 -2)
1969/12/31/18:00:33.141,(-6 -25 -22 -16 -9 -3 9 6)
1969/12/31/18:00:33.141,(-3 -8 -12 -7 -8 -7 -15 -11)
1969/12/31/18:00:33.150,(5 9 13 13 3 -1 0 0)
1969/12/31/18:00:33.150,(-4 -15 1 2 -1 -1 -1 -4)
1969/12/31/18:00:33.164,(-7 -17 -17 -13 -8 -3 -2 -3)
1969/12/31/18:00:33.164,(1 -2 -3 6 4 3 2 2)
1969/12/31/18:00:33.171,(-5 -4 6 8 2 1 -4 -13)
1969/12/31/18:00:33.171,(3 11 10 5 -1 0 2 10)
1969/12/31/18:00:33.188,(-8 -21 -25 -14 -6 -2 -2 -3)
1969/12/31/18:00:33.188,(-26 -31 -5 0 -1 0 -2 -17)
1969/12/31/18:00:33.189,(25 15 6 -2 -4 -1 17 47)
1969/12/31/18:00:33.189,(26 9 3 -2 1 0 0 -3)
1969/12/31/18:00:33.210,(-34 -8 -4 -6 -5 -4 -9 -23)
1969/12/31/18:00:33.210,(-14 -1 -1 -3 -2 -1 3 15)
1969/12/31/18:00:33.211,(14 -1 -11 -6 -3 -2 -1 2)
1969/12/31/18:00:33.211,(-13 -6 -1 -4 -4 0 1 -8)
1969/12/31/18:00:33.224,(6 -9 -13 -6 -1 -1 4 21)
1969/12/31/18:00:33.224,(-13 5 4 -2 -3 -4 -5 -50)
1969/12/31/18:00:33.231,(-11 -4 0 4 0 1 11 31)
1969/12/31/18:00:33.231,(-17 -5 -4 -6 -3 2 -10 -4)
1969/12/31/18:00:33.247,(35 24 11 1 1 1 7 15)
1969/12/31/18:00:33.247,(-21 -1 -4 -6 0 7 -1 -22)
1969/12/31/18:00:33.249,(25 11 3 0 -5 -21 -14 -5)
1969/12/31/18:00:33.249,(-9 6 11 10 8 0 12 -31)
1969/12/31/18:00:33.270,(-51 -24 -10 -9 -3 23 -14 -23)
1969/12/31/18:00:33.270,(48 34 18 9 4 -8 18 50)
1969/12/31/18:00:33.271,(-17 -30 -15 -7 -3 -18 2 -19)
1969/12/31/18:00:33.271,(8 -1 -3 -1 1 37 27 16)
1969/12/31/18:00:33.284,(60 22 11 7 0 -32 -47 7)
1969/12/31/18:00:33.284,(-8 -3 -9 -10 -8 2 -3 5)
1969/12/31/18:00:33.298,(8 5 -2 -3 -3 1 -12 -4)
1969/12/31/18:00:33.298,(-44 -15 4 3 3 -7 -8 -16)
1969/12/31/18:00:33.307,(-26 -19 -5 -6 -6 2 2 -19)
1969/12/31/18:00:33.307,(45 15 -2 3 3 7 6 38)
1969/12/31/18:00:33.309,(-51 -50 -21 -8 1 5 17 -22)
1969/12/31/18:00:33.309,(19 50 27 6 -4 -15 -16 -22)
1969/12/31/18:00:33.330,(83 15 4 4 3 23 8 94)
1969/12/31/18:00:33.330,(-43 -24 -12 -11 -10 -29 -59 -84)
1969/12/31/18:00:33.332,(-13 3 7 6 1 11 3 -14)
1969/12/31/18:00:33.332,(16 -12 -15 -8 1 9 1 12)
1969/12/31/18:00:33.344,(-29 5 5 2 -3 -14 -6 -18)
1969/12/31/18:00:33.344,(-6 -5 0 -5 -7 -18 11 19)
1969/12/31/18:00:33.353,(60 29 8 4 5 39 3 8)
1969/12/31/18:00:33.353,(-41 -6 2 5 1 -10 -17 -17)
1969/12/31/18:00:33.368,(-11 -9 -7 -3 3 3 3 -34)
1969/12/31/18:00:33.368,(64 2 1 4 4 14 30 71)
1969/12/31/18:00:33.369,(-3 26 9 3 -3 -44 -17 -10)
1969/12/31/18:00:33.369,(47 14 9 6 8 16 21 52)
1969/12/31/18:00:33.390,(-33 -1 -10 -6 -4 -5 5 -37)
1969/12/31/18:00:33.390,(11 2 -7 -6 -2 5 -11 -40)
1969/12/31/18:00:33.391,(-73 -37 0 4 5 7 10 -38)
1969/12/31/18:00:33.391,(90 28 -2 -1 -5 -18 -23 41)
1969/12/31/18:00:33.404,(-85 -17 -1 1 0 -12 14 -18)
1969/12/31/18:00:33.404,(19 1 -2 0 2 9 -20 -29)
1969/12/31/18:00:33.412,(-58 -3 3 -1 0 -3 -2 -49)
1969/12/31/18:00:33.412,(6 -25 -9 -2 0 -6 -8 5)
1969/12/31/18:00:33.428,(42 1 -6 -6 1 22 29 8)
1969/12/31/18:00:33.428,(15 45 23 12 2 -19 14 22)
1969/12/31/18:00:33.429,(-43 -45 -17 -4 4 33 -11 -12)
1969/12/31/18:00:33.429,(-4 23 8 -6 -12 -34 -24 -38)
1969/12/31/18:00:33.450,(76 42 20 6 4 12 -17 48)
1969/12/31/18:00:33.450,(-47 -67 -35 -14 -9 -41 -2 -16)
1969/12/31/18:00:33.451,(-34 -4 -1 -2 -2 -6 13 -39)
1969/12/31/18:00:33.451,(-20 -10 -4 -1 -3 3 -50 -72)
1969/12/31/18:00:33.464,(-7 -6 -9 -7 -6 -12 6 25)
1969/12/31/18:00:33.464,(-15 13 10 2 3 26 18 -22)
1969/12/31/18:00:33.473,(11 -4 -4 3 10 34 11 42)
1969/12/31/18:00:33.473,(77 21 4 2 -2 -9 49 55)
1969/12/31/18:00:33.487,(7 8 5 0 -9 -40 -37 -10)
1969/12/31/18:00:33.487,(-17 -14 -5 -3 2 26 2 24)
1969/12/31/18:00:33.489,(6 0 1 -2 -5 -15 -19 -8)
1969/12/31/18:00:33.489,(-76 -14 6 11 18 33 -2 -18)
1969/12/31/18:00:33.510,(-91 -11 2 3 5 23 -1 -93)
1969/12/31/18:00:33.510,(43 24 3 -5 -6 -17 -12 0)
1969/12/31/18:00:33.512,(48 18 -2 -5 -1 13 24 42)
1969/12/31/18:00:33.512,(-41 -29 -15 -12 -16 -23 4 1)
1969/12/31/18:00:33.523,(-16 -16 3 10 12 5 19 -7)
1969/12/31/18:00:33.523,(-30 -5 5 7 3 8 -18 -17)
1969/12/31/18:00:33.533,(18 11 -5 -7 -8 -17 -25 2)
1969/12/31/18:00:33.533,(31 -12 -4 0 -2 -10 -1 59)
1969/12/31/18:00:33.547,(-7 -6 -3 5 17 71 87 5)
1969/12/31/18:00:33.547,(3 12 5 -3 -9 -13 20 37)
1969/12/31/18:00:33.549,(45 14 8 9 8 -11 -13 73)
1969/12/31/18:00:33.549,(-52 -14 -3 -1 -12 -17 -4 -26)
1969/12/31/18:00:33.570,(39 8 -2 -4 -9 -30 -18 20)
1969/12/31/18:00:33.570,(39 -3 -7 -5 -1 28 31 21)
1969/12/31/18:00:33.572,(46 17 1 -1 -1 0 -59 49)
1969/12/31/18:00:33.572,(-40 -8 -1 -3 2 6 7 -58)
1969/12/31/18:00:33.584,(12 6 1 0 -2 -11 -9 4)
1969/12/31/18:00:33.584,(-44 -10 8 7 11 10 6 -18)
1969/12/31/18:00:33.593,(-6 14 1 1 -2 -12 13 1)
1969/12/31/18:00:33.593,(6 -19 -15 -11 -2 16 17 -10)
1969/12/31/18:00:33.607,(7 20 4 -2 -7 -18 -45 -12)
1969/12/31/18:00:33.607,(28 12 7 5 6 0 21 29)
1969/12/31/18:00:33.609,(-57 -41 -21 -16 -21 -23 1 -62)
1969/12/31/18:00:33.609,(-46 -6 4 7 9 25 6 -2)
1969/12/31/18:00:33.630,(4 -13 -4 1 -3 -15 -3 -23)
1969/12/31/18:00:33.630,(-47 -25 -20 -20 -12 -10 -20 -26)
1969/12/31/18:00:33.631,(61 7 -4 -7 -1 9 23 26)
1969/12/31/18:00:33.631,(-16 1 0 -3 -3 1 -8 29)
1969/12/31/18:00:33.644,(7 -2 0 2 1 -11 -4 5)
1969/12/31/18:00:33.644,(-21 -2 3 5 2 11 -12 -51)
1969/12/31/18:00:33.653,(-24 -12 -8 -8 -7 -3 9 -3)
1969/12/31/18:00:33.653,(22 6 0 0 4 22 -40 1)
1969/12/31/18:00:33.667,(-30 -7 -1 0 4 4 18 -2)
1969/12/31/18:00:33.667,(75 5 -12 -8 -12 -15 -10 60)
1969/12/31/18:00:33.669,(-35 -6 4 1 4 1 -2 -37)
1969/12/31/18:00:33.669,(4 4 3 2 -3 -34 -3 -9)
1969/12/31/18:00:33.690,(50 43 15 2 4 58 -31 27)
1969/12/31/18:00:33.690,(-12 -24 -20 -6 -8 -51 -67 -26)
1969/12/31/18:00:33.692,(9 15 14 13 13 34 30 -5)
1969/12/31/18:00:33.692,(22 -4 -13 -13 -8 -16 -21 -53)
1969/12/31/18:00:33.703,(17 5 -2 -7 -8 -10 4 27)
1969/12/31/18:00:33.703,(-8 17 22 12 10 9 28 23)
1969/12/31/18:00:33.713,(54 20 9 10 7 8 28 77)
1969/12/31/18:00:33.713,(-4 -8 -5 -3 16 39 44 19)
1969/12/31/18:00:33.728,(-31 -11 -4 -4 -20 -57 -27 -18)
1969/12/31/18:00:33.728,(-2 -7 0 1 4 14 -31 -15)
1969/12/31/18:00:33.729,(-14 12 6 1 -4 -17 -13 -31)
1969/12/31/18:00:33.729,(72 -2 -12 -11 -9 -7 30 45)
1969/12/31/18:00:33.750,(24 -6 -4 0 18 -5 -22 49)
1969/12/31/18:00:33.750,(-27 -24 -14 -8 -4 27 -8 22)
1969/12/31/18:00:33.751,(-7 -7 -8 -15 -6 29 24 -25)
1969/12/31/18:00:33.751,(25 23 16 11 -7 -35 -1 20)
1969/12/31/18:00:33.764,(-58 -16 -3 2 8 2 -12 -13)
1969/12/31/18:00:33.764,(-28 6 8 16 9 12 -18 -45)
1969/12/31/18:00:33.772,(17 -12 -13 -4 -2 -32 -36 30)
1969/12/31/18:00:33.772,(-53 -10 -9 -23 -48 -4 0 -23)
1969/12/31/18:00:33.786,(0 -1 -6 -12 7 1 -1 -33)
1969/12/31/18:00:33.786,(-28 22 10 1 -9 -5 13 -25)
1969/12/31/18:00:33.795,(21 -39 -18 2 15 9 15 54)
1969/12/31/18:00:33.795,(6 -12 -20 9 31 15 2 34)
1969/12/31/18:00:33.810,(-16 -39 -10 -15 -33 -2 12 -34)
1969/12/31/18:00:33.810,(19 5 -52 -23 -14 -34 9 -8)
1969/12/31/18:00:33.811,(-8 107 107 60 19 -30 -22 1)
1969/12/31/18:00:33.811,(-39 -17 -43 -10 3 -3 -33 -57)
1969/12/31/18:00:33.824,(-13 13 16 17 27 52 4 -21)
1969/12/31/18:00:33.824,(29 -24 -39 -20 -26 10 33 84)
1969/12/31/18:00:33.832,(-10 8 -3 -28 -18 -30 -26 -115)
1969/12/31/18:00:33.832,(-5 12 40 19 -4 -21 -30 -29)
1969/12/31/18:00:33.848,(-1 -23 -27 -6 -4 -19 17 -3)
1969/12/31/18:00:33.848,(-34 -10 32 5 9 15 13 -16)
1969/12/31/18:00:33.849,(-24 -85 -93 -20 3 -7 -5 -15)
1969/12/31/18:00:33.849,(59 123 111 38 36 11 19 34)
1969/12/31/18:00:33.870,(-33 -10 18 -13 -60 -11 0 -3)
1969/12/31/18:00:33.870,(8 -44 -17 1 14 22 13 1)
1969/12/31/18:00:33.872,(5 -45 -94 -41 -22 11 34 39)
1969/12/31/18:00:33.872,(-81 -15 1 22 35 -9 -29 -62)
1969/12/31/18:00:33.884,(69 15 23 13 -12 -14 18 0)
1969/12/31/18:00:33.884,(-17 111 86 22 6 2 -32 -57)
1969/12/31/18:00:33.892,(1 118 127 59 22 27 11 -4)
1969/12/31/18:00:33.892,(-2 -87 -80 -26 -28 -4 15 20)
1969/12/31/18:00:33.907,(-20 -79 -99 -42 15 4 3 -20)
1969/12/31/18:00:33.907,(-44 18 -48 -25 6 -15 -14 -19)
1969/12/31/18:00:33.909,(64 -46 7 3 -8 -16 -9 26)
1969/12/31/18:00:33.909,(0 15 -56 -36 -20 20 44 41)
1969/12/31/18:00:33.930,(1 72 118 50 12 -9 -28 -20)
1969/12/31/18:00:33.930,(45 -128 -128 -42 -7 4 4 31)
1969/12/31/18:00:33.931,(6 94 53 25 14 -7 -18 -25)
1969/12/31/18:00:33.931,(-30 -20 1 -21 -20 -6 -19 -32)
1969/12/31/18:00:33.944,(14 8 23 17 24 11 26 50)
1969/12/31/18:00:33.944,(-1 107 127 66 26 4 22 20)
1969/12/31/18:00:33.953,(12 -71 -92 -24 -20 -14 -13 -6)
1969/12/31/18:00:33.953,(-44 -64 -66 -39 -20 11 -10 -38)
1969/12/31/18:00:33.967,(-4 74 57 27 -2 -33 -19 -63)
1969/12/31/18:00:33.967,(55 -17 12 25 45 38 13 75)
1969/12/31/18:00:33.974,(-62 -42 -35 -43 -39 -1 4 -63)
1969/12/31/18:00:33.974,(9 -32 -14 -3 6 -7 -4 0)
1969/12/31/18:00:33.997,(18 -102 -78 -31 -14 -11 -4 26)
1969/12/31/18:00:33.997,(-80 -95 -75 -18 -5 -7 -3 -55)
1969/12/31/18:00:33.999,(24 87 80 12 -20 -21 -33 -7)
1969/12/31/18:00:33.999,(27 54 60 40 11 -14 -1 9)
1969/12/31/18:00:34.003,(-42 -86 -106 -32 -21 -14 -12 -21)
1969/12/31/18:00:34.003,(38 108 94 35 20 5 0 3)
1969/12/31/18:00:34.020,(-43 -128 -99 -30 13 19 2 -19)
1969/12/31/18:00:34.020,(-6 7 7 -3 -19 -5 8 8)
1969/12/31/18:00:34.027,(4 44 14 6 6 -12 0 14)
1969/12/31/18:00:34.027,(-9 -23 -23 -29 -53 -47 -26 -48)
1969/12/31/18:00:34.033,(6 -92 -46 -15 14 45 21 20)
1969/12/31/18:00:34.033,(-10 82 65 38 0 -54 -20 -8)
1969/12/31/18:00:34.050,(-17 11 7 -6 58 64 4 -2)
1969/12/31/18:00:34.050,(79 104 47 -10 -39 -40 -1 30)
1969/12/31/18:00:34.052,(-8 70 90 56 16 38 12 18)
1969/12/31/18:00:34.052,(56 -102 -87 -24 -5 -36 -14 17)
1969/12/31/18:00:34.064,(25 28 5 6 3 29 -2 -15)
1969/12/31/18:00:34.064,(-101 -103 -41 -16 -4 -20 -9 -46)
1969/12/31/18:00:34.073,(-45 -40 -93 -73 -27 -28 -26 -38)
1969/12/31/18:00:34.073,(68 96 110 97 44 61 47 35)
1969/12/31/18:00:34.087,(-4 -77 -112 -17 -8 -20 -3 2)
1969/12/31/18:00:34.087,(38 -79 -44 7 11 14 10 32)
1969/12/31/18:00:34.094,(-49 -128 -128 -70 -42 -39 -9 27)
1969/12/31/18:00:34.094,(4 39 22 -10 -3 4 -2 -13)
1969/12/31/18:00:34.110,(53 127 120 43 7 -6 -4 -4)
1969/12/31/18:00:34.110,(46 -17 5 28 25 42 14 17)
1969/12/31/18:00:34.112,(9 -49 -34 9 11 11 17 31)
1969/12/31/18:00:34.112,(1 32 38 -14 -18 -7 -18 -15)
1969/12/31/18:00:34.134,(-31 -65 -27 1 10 -51 8 34)
1969/12/31/18:00:34.134,(-17 11 32 -7 -7 33 4 -2)
1969/12/31/18:00:34.136,(43 20 -27 -20 -25 -33 -24 -31)
1969/12/31/18:00:34.136,(4 -55 -14 27 37 0 2 -9)
1969/12/31/18:00:34.147,(29 9 -63 -56 -32 43 22 53)
1969/12/31/18:00:34.147,(-12 98 81 30 -7 -59 -11 24)
1969/12/31/18:00:34.155,(-1 6 11 28 11 5 13 -5)
1969/12/31/18:00:34.155,(-20 -116 -79 -19 3 5 -24 -42)
1969/12/31/18:00:34.170,(2 70 53 -5 -6 -4 2 42)
1969/12/31/18:00:34.170,(13 -6 -24 -4 17 4 -3 7)
1969/12/31/18:00:34.171,(-50 -11 7 8 -18 -23 -14 -27)
1969/12/31/18:00:34.171,(-12 23 -70 -34 -20 0 -1 -7)
1969/12/31/18:00:34.193,(-12 -39 -11 18 16 1 7 -18)
1969/12/31/18:00:34.193,(2 -31 -54 -19 1 37 4 -13)
1969/12/31/18:00:34.194,(20 -29 36 34 17 -22 6 53)
1969/12/31/18:00:34.194,(-14 -9 -27 -21 -14 19 25 -8)
1969/12/31/18:00:34.215,(-46 -111 -77 -19 -21 -13 -8 -33)
1969/12/31/18:00:34.215,(-48 64 -25 -33 -28 -23 -13 -40)
1969/12/31/18:00:34.217,(34 71 68 42 40 20 8 13)
1969/12/31/18:00:34.217,(-12 -38 -49 -14 -4 18 7 16)
1969/12/31/18:00:34.230,(30 10 36 11 -27 -17 12 43)
1969/12/31/18:00:34.230,(60 49 76 46 24 -1 18 30)
1969/12/31/18:00:34.231,(-10 -113 -128 -66 -11 12 -13 -14)
1969/12/31/18:00:34.231,(-2 127 127 55 35 2 -12 -8)
1969/12/31/18:00:34.252,(-26 -12 -10 -9 -41 -13 -13 -58)
1969/12/31/18:00:34.252,(7 -126 -97 -19 -4 -5 8 58)
1969/12/31/18:00:34.254,(-17 34 55 24 5 0 5 -26)
1969/12/31/18:00:34.254,(22 -17 4 -20 -1 22 -10 8)
1969/12/31/18:00:34.267,(-39 -124 -121 -31 34 5 -10 -19)
1969/12/31/18:00:34.267,(-6 93 51 7 -17 -24 -21 -36)
1969/12/31/18:00:34.274,(-17 7 23 20 27 -31 -5 6)
1969/12/31/18:00:34.274,(7 -41 -91 -35 -25 53 27 -10)
1969/12/31/18:00:34.290,(34 127 127 102 22 -14 -6 35)
1969/12/31/18:00:34.290,(0 -128 -128 -39 -12 15 1 -13)
1969/12/31/18:00:34.292,(10 89 5 -7 -3 -18 1 -6)
1969/12/31/18:00:34.292,(-19 24 53 42 28 0 7 51)
1969/12/31/18:00:34.312,(-30 -79 -99 -58 -19 13 -2 -57)
1969/12/31/18:00:34.312,(-40 11 -8 33 30 -8 -3 -48)
1969/12/31/18:00:34.314,(-7 16 19 -31 -69 -40 -36 -40)
1969/12/31/18:00:34.314,(20 9 36 15 -4 3 13 29)
1969/12/31/18:00:34.326,(0 7 24 6 17 31 14 -32)
1969/12/31/18:00:34.326,(35 -65 -41 -10 17 -18 -13 27)
1969/12/31/18:00:34.335,(-39 -79 -37 -17 -17 47 23 -4)
1969/12/31/18:00:34.335,(4 -42 -27 -33 -25 -35 8 29)
1969/12/31/18:00:34.350,(-18 -93 -51 -16 -3 -1 -24 -19)
1969/12/31/18:00:34.350,(-18 -100 -96 -30 30 -20 -3 -5)
1969/12/31/18:00:34.351,(102 120 107 53 28 52 -1 25)
1969/12/31/18:00:34.351,(-6 -61 -29 17 -6 2 10 -25)
1969/12/31/18:00:34.372,(77 -23 -79 -13 -6 -18 5 50)
1969/12/31/18:00:34.372,(-55 -26 4 -6 14 34 -2 15)
1969/12/31/18:00:34.374,(1 105 90 44 31 -3 -10 -77)
1969/12/31/18:00:34.374,(-49 31 49 -1 -6 -15 -26 -39)
1969/12/31/18:00:34.387,(-26 -80 -90 -47 -12 1 3 -3)
1969/12/31/18:00:34.387,(-12 113 73 0 -23 -9 -11 -16)
1969/12/31/18:00:34.394,(2 -88 -86 7 -8 -16 12 1)
1969/12/31/18:00:34.394,(13 -90 -84 -9 13 13 7 32)
1969/12/31/18:00:34.411,(-16 -16 27 18 -27 -40 7 38)
1969/12/31/18:00:34.411,(-43 -57 -17 -7 3 79 39 1)
1969/12/31/18:00:34.412,(-59 -47 -14 -35 -14 -15 -11 -20)
1969/12/31/18:00:34.412,(-14 -33 -22 -26 -47 -85 -49 -32)
1969/12/31/18:00:34.432,(9 11 -64 -34 23 -7 -13 -3)
1969/12/31/18:00:34.432,(27 102 86 64 3 42 6 -19)
1969/12/31/18:00:34.434,(-17 -90 -78 -5 9 24 36 55)
1969/12/31/18:00:34.434,(-26 59 51 27 19 8 1 -22)
1969/12/31/18:00:34.446,(51 -28 -61 -33 13 13 28 74)
1969/12/31/18:00:34.446,(41 123 112 35 -22 -20 1 43)
1969/12/31/18:00:34.455,(-49 28 11 17 12 2 -13 -12)
1969/12/31/18:00:34.455,(109 -24 -28 -9 -2 -6 -25 13)
1969/12/31/18:00:34.470,(-8 -5 7 11 4 -1 6 -3)
1969/12/31/18:00:34.470,(34 41 49 25 18 0 25 7)
1969/12/31/18:00:34.472,(-64 -46 -41 -30 -18 3 -9 -7)
1969/12/31/18:00:34.472,(-64 -92 -101 -52 -17 -33 -19 -31)
1969/12/31/18:00:34.493,(26 127 127 83 25 25 0 -48)
1969/12/31/18:00:34.493,(2 -128 -128 -52 -38 -38 -15 25)
1969/12/31/18:00:34.495,(0 -41 12 18 47 61 20 15)
1969/12/31/18:00:34.495,(37 56 31 29 13 -5 -6 39)
1969/12/31/18:00:34.506,(-12 -5 -1 -14 -27 -8 -25 -21)
1969/12/31/18:00:34.506,(-26 -86 -45 -38 -27 -31 -11 -27)
1969/12/31/18:00:34.515,(50 125 90 41 17 -16 -2 -4)
1969/12/31/18:00:34.515,(-41 -128 -110 -24 -11 -24 -22 -53)
1969/12/31/18:00:34.530,(66 127 127 49 29 69 51 78)
1969/12/31/18:00:34.530,(-11 79 69 23 -14 -16 -7 4)
1969/12/31/18:00:34.532,(-42 -125 -128 -51 -24 -16 -6 -20)
1969/12/31/18:00:34.532,(6 29 -44 -25 20 19 7 24)
1969/12/31/18:00:34.552,(3 87 90 60 20 -1 -5 9)
1969/12/31/18:00:34.552,(25 -128 -128 -58 -31 -25 -15 -30)
1969/12/31/18:00:34.554,(47 123 82 47 33 34 12 27)
1969/12/31/18:00:34.554,(-36 -3 -18 -9 5 1 1 -5)
1969/12/31/18:00:34.566,(-15 -46 -28 -21 -39 -9 8 14)
1969/12/31/18:00:34.566,(-75 -18 11 11 5 -38 -18 -55)
1969/12/31/18:00:34.575,(28 -111 -127 -67 -26 -8 -41 -6)
1969/12/31/18:00:34.575,(30 104 116 54 0 43 33 17)
1969/12/31/18:00:34.590,(-6 -58 -68 -43 -18 -13 10 16)
1969/12/31/18:00:34.590,(16 -5 -15 19 39 7 -10 -25)
1969/12/31/18:00:34.592,(11 44 63 26 -17 -20 -3 15)
1969/12/31/18:00:34.592,(-51 -48 -21 -14 4 0 10 -7)
1969/12/31/18:00:34.612,(-4 82 70 22 23 2 -31 -76)
1969/12/31/18:00:34.612,(4 -96 -91 -30 -10 26 16 38)
1969/12/31/18:00:34.614,(27 28 -22 10 50 3 -13 12)
1969/12/31/18:00:34.614,(18 35 0 -43 -57 12 4 5)
1969/12/31/18:00:34.627,(10 57 55 25 3 -16 -14 2)
1969/12/31/18:00:34.627,(-16 -52 -14 -7 -1 -4 0 -5)
1969/12/31/18:00:34.634,(-25 -120 -114 -40 -20 -19 -1 -11)
1969/12/31/18:00:34.634,(82 68 57 55 57 42 23 13)
1969/12/31/18:00:34.650,(-7 -43 -15 -1 -6 -2 27 59)
1969/12/31/18:00:34.650,(-33 11 -3 6 -4 -33 -10 -66)
1969/12/31/18:00:34.652,(-3 -90 -55 -14 7 54 10 17)
1969/12/31/18:00:34.652,(-9 -96 -67 -35 -48 -25 18 22)
1969/12/31/18:00:34.672,(-30 46 10 10 7 -7 -14 -22)
1969/12/31/18:00:34.672,(53 86 60 18 14 36 7 21)
1969/12/31/18:00:34.674,(-12 -57 -13 -9 -16 -35 18 9)
1969/12/31/18:00:34.674,(-32 -24 -28 -17 -17 -34 -34 -26)
1969/12/31/18:00:34.686,(-18 -54 -57 -12 -3 -10 -9 -18)
1969/12/31/18:00:34.686,(35 -10 -20 -18 -15 -6 13 38)
1969/12/31/18:00:34.695,(-69 70 66 38 33 29 0 -44)
1969/12/31/18:00:34.695,(-25 -29 -15 -4 2 19 -25 -83)
1969/12/31/18:00:34.710,(38 -45 -35 -18 -7 -36 -27 11)
1969/12/31/18:00:34.710,(0 -8 -21 -19 -22 -18 -2 3)
1969/12/31/18:00:34.712,(-7 6 17 -16 -43 -30 -1 19)
1969/12/31/18:00:34.712,(13 93 35 14 16 -1 20 22)
1969/12/31/18:00:34.733,(0 15 29 44 38 -27 0 -6)
1969/12/31/18:00:34.733,(-47 -54 -29 -42 -36 56 -9 -19)
1969/12/31/18:00:34.734,(41 53 54 8 -13 -20 2 17)
1969/12/31/18:00:34.734,(0 -87 -96 -27 10 -11 -7 0)
1969/12/31/18:00:34.746,(-6 60 56 14 -13 17 2 -17)
1969/12/31/18:00:34.746,(24 70 43 19 7 -5 9 31)
1969/12/31/18:00:34.755,(26 -18 -26 12 22 -4 -17 -15)
1969/12/31/18:00:34.755,(-4 -30 3 8 8 24 28 35)
1969/12/31/18:00:34.770,(-42 -76 -50 -31 -20 -10 -6 -20)
1969/12/31/18:00:34.770,(-25 9 13 14 11 -18 -15 -26)
1969/12/31/18:00:34.771,(46 15 4 -14 -20 11 12 14)
1969/12/31/18:00:34.771,(-28 21 27 14 8 -22 -16 -15)
1969/12/31/18:00:34.792,(6 -20 -15 -3 3 14 -4 -6)
1969/12/31/18:00:34.792,(-8 20 21 18 9 0 7 -9)
1969/12/31/18:00:34.794,(-5 -26 -63 -27 -9 -8 0 -9)
1969/12/31/18:00:34.794,(14 28 78 36 18 15 1 38)
1969/12/31/18:00:34.806,(-15 -20 -31 7 31 -5 -12 -39)
1969/12/31/18:00:34.806,(2 35 8 -18 -16 25 -8 -13)
1969/12/31/18:00:34.816,(33 9 -4 8 7 -14 1 15)
1969/12/31/18:00:34.816,(-38 -52 -21 -3 12 27 -16 -31)
1969/12/31/18:00:34.830,(-36 -31 -28 -43 -37 1 -10 -54)
1969/12/31/18:00:34.830,(28 2 3 23 25 -8 2 14)
1969/12/31/18:00:34.832,(-28 27 19 -3 0 2 -6 -6)
1969/12/31/18:00:34.832,(-13 -18 -8 0 -6 -11 8 -17)
1969/12/31/18:00:34.852,(30 26 17 8 6 7 8 18)
1969/12/31/18:00:34.852,(-12 -11 -18 -1 6 2 3 -6)
1969/12/31/18:00:34.854,(-31 6 16 3 -14 2 8 -2)
1969/12/31/18:00:34.854,(30 16 2 6 19 -1 17 68)
1969/12/31/18:00:34.866,(12 -85 -60 -25 -23 -13 5 36)
1969/12/31/18:00:34.866,(-20 -30 -40 -28 -22 -27 -7 -13)
1969/12/31/18:00:34.875,(22 62 47 12 7 14 0 16)
1969/12/31/18:00:34.875,(16 21 19 7 20 3 4 -1)
1969/12/31/18:00:34.889,(-17 -21 -6 -3 -22 9 -1 -6)
1969/12/31/18:00:34.889,(0 -4 -2 7 4 -8 -1 5)
1969/12/31/18:00:34.898,(-26 -21 -2 12 8 -5 -3 -16)
1969/12/31/18:00:34.898,(12 -26 -27 -31 -11 18 4 24)
1969/12/31/18:00:34.912,(10 -3 -14 -15 -6 -2 -10 -9)
1969/12/31/18:00:34.912,(0 -17 -11 -2 -2 -18 -4 -3)
1969/12/31/18:00:34.914,(-3 10 14 4 -7 -6 -6 -11)
1969/12/31/18:00:34.914,(6 14 4 5 -11 1 0 -3)
1969/12/31/18:00:34.926,(-15 6 6 -3 6 25 27 -4)
1969/12/31/18:00:34.926,(-9 0 1 -4 -7 -36 -33 -30)
1969/12/31/18:00:34.935,(-14 -12 1 4 4 17 31 9)
1969/12/31/18:00:34.935,(29 21 0 0 -5 -15 19 -7)
1969/12/31/18:00:34.949,(-3 -23 -11 -2 3 -8 -63 1)
1969/12/31/18:00:34.949,(-14 24 18 -2 6 4 48 8)
1969/12/31/18:00:34.963,(3 3 7 17 12 1 0 -19)
1969/12/31/18:00:34.963,(-43 -32 -17 -5 -13 -16 -34 -46)
1969/12/31/18:00:34.972,(8 14 4 6 9 15 9 18)
1969/12/31/18:00:34.972,(14 7 6 -1 -5 -6 -13 -2)
1969/12/31/18:00:34.974,(3 -8 -3 -7 -15 -39 5 62)
1969/12/31/18:00:34.974,(-26 -11 3 4 2 31 -65 -28)
1969/12/31/18:00:34.986,(26 18 3 0 8 15 21 40)
1969/12/31/18:00:34.986,(33 -15 -9 -5 -1 3 -32 -11)
1969/12/31/18:00:34.995,(32 39 22 8 6 21 42 44)
1969/12/31/18:00:34.995,(-95 -51 -15 -3 -4 -5 6 -40)
1969/12/31/18:00:35.009,(-13 -12 -15 -14 -15 -26 -45 -29)
1969/12/31/18:00:35.009,(8 13 2 2 4 40 16 10)
1969/12/31/18:00:35.016,(-4 -11 -8 -5 -11 -29 -13 -19)
1969/12/31/18:00:35.016,(-13 -8 3 -1 -4 7 15 9)
1969/12/31/18:00:35.032,(18 20 24 17 10 0 12 3)
1969/12/31/18:00:35.032,(-81 -17 -5 0 -4 -16 -5 -72)
1969/12/31/18:00:35.034,(-29 -16 -15 -12 -2 1 -58 -29)
1969/12/31/18:00:35.034,(58 16 -11 -17 -19 -21 9 -6)
1969/12/31/18:00:35.046,(-28 -31 -12 -6 -3 -6 27 23)
1969/12/31/18:00:35.046,(11 3 19 19 16 9 -5 19)
1969/12/31/18:00:35.055,(-1 3 17 10 11 25 26 19)
1969/12/31/18:00:35.055,(103 64 -5 -11 -15 -26 -16 -27)
1969/12/31/18:00:35.069,(-19 12 -8 -7 -7 -7 7 -5)
1969/12/31/18:00:35.069,(-75 -2 4 5 6 19 13 -1)
1969/12/31/18:00:35.076,(-3 -37 -13 -7 -4 -12 -32 -17)
1969/12/31/18:00:35.076,(29 22 3 -2 -7 -12 13 33)
1969/12/31/18:00:35.092,(37 11 11 6 8 10 28 42)
1969/12/31/18:00:35.092,(9 7 -6 -7 -6 -5 -19 -14)
1969/12/31/18:00:35.094,(-31 -2 3 3 3 -1 -6 -17)
1969/12/31/18:00:35.094,(-34 -10 2 6 5 1 9 5)
1969/12/31/18:00:35.115,(-50 -11 -3 -2 -3 -5 -22 -60)
1969/12/31/18:00:35.115,(52 14 -8 -10 -3 4 24 81)
1969/12/31/18:00:35.117,(-19 4 1 -2 1 1 -4 -33)
1969/12/31/18:00:35.117,(-19 -11 0 6 3 -5 -6 -3)
1969/12/31/18:00:35.130,(2 -12 -5 -6 -4 0 6 16)
1969/12/31/18:00:35.130,(21 -8 -5 2 6 3 4 8)
1969/12/31/18:00:35.136,(36 36 1 -9 -14 -4 -6 -21)
1969/12/31/18:00:35.136,(-29 -39 -32 -13 2 0 11 11)
1969/12/31/18:00:35.152,(-25 19 36 19 7 3 0 -13)
1969/12/31/18:00:35.152,(9 -8 -4 5 6 0 1 8)
1969/12/31/18:00:35.154,(25 -9 -12 -14 -8 0 6 17)
1969/12/31/18:00:35.154,(5 52 47 34 11 2 -1 1)
