time,.data
1969/12/31/18:00:12.301000,(-1 6 19 -10 8 11 7 1)
1969/12/31/18:00:12.301000,(-5 -12 -24 -2 -27 -15 -11 -5)
1969/12/31/18:00:12.315000,(-10 -8 17 -3 5 -8 -9 -8)
1969/12/31/18:00:12.315000,(2 9 1 16 5 7 6 2)
1969/12/31/18:00:12.317000,(1 -1 10 -2 8 -1 0 2)
1969/12/31/18:00:12.317000,(5 12 -4 9 1 6 6 3)
1969/12/31/18:00:12.338000,(14 8 8 22 23 9 6 10)
1969/12/31/18:00:12.338000,(-3 -3 4 -10 -17 2 3 -3)
1969/12/31/18:00:12.340000,(-6 -12 -25 -40 -47 -18 -11 -7)
1969/12/31/18:00:12.340000,(-9 -3 19 40 36 2 0 -5)
1969/12/31/18:00:12.351000,(5 4 -13 23 -19 2 4 4)
1969/12/31/18:00:12.352000,(-4 -8 -22 -40 23 0 -4 -4)
1969/12/31/18:00:12.361000,(-5 -7 -6 30 10 6 -1 -5)
1969/12/31/18:00:12.361000,(-4 -8 0 -65 -21 -1 -1 -4)
1969/12/31/18:00:12.376000,(-1 9 21 76 12 -10 -8 -3)
1969/12/31/18:00:12.376000,(6 0 -11 48 8 4 3 4)
1969/12/31/18:00:12.378000,(-1 4 -1 -107 -48 -8 -1 -2)
1969/12/31/18:00:12.378000,(7 -2 9 79 44 -5 -2 4)
1969/12/31/18:00:12.398000,(-19 -12 11 7 -10 5 -3 -13)
1969/12/31/18:00:12.398000,(6 3 -5 -91 -54 -9 -1 5)
1969/12/31/18:00:12.400000,(-3 -2 -10 37 34 8 1 1)
1969/12/31/18:00:12.400000,(3 14 22 10 27 10 1 -1)
1969/12/31/18:00:12.412000,(3 0 -10 -35 -16 -3 -1 1)
1969/12/31/18:00:12.412000,(3 -4 -21 -13 -6 -8 -2 0)
1969/12/31/18:00:12.421000,(-4 -2 12 22 -7 -6 -4 -4)
1969/12/31/18:00:12.421000,(0 -8 -26 -60 -42 -6 -1 0)
1969/12/31/18:00:12.436000,(-8 -22 -38 -68 -50 -24 -8 -4)
1969/12/31/18:00:12.436000,(-1 18 51 45 40 17 5 1)
1969/12/31/18:00:12.437000,(5 10 30 99 33 3 -2 1)
1969/12/31/18:00:12.437000,(-3 -2 -3 -19 10 4 -1 -3)
1969/12/31/18:00:12.458000,(8 12 12 -16 38 20 10 7)
1969/12/31/18:00:12.458000,(-2 -7 -24 -12 -9 -8 -4 -3)
1969/12/31/18:00:12.460000,(6 -6 -38 -84 0 1 2 4)
1969/12/31/18:00:12.460000,(0 10 42 102 -22 -7 -2 -2)
1969/12/31/18:00:12.472000,(4 0 -23 -70 -32 -11 0 2)
1969/12/31/18:00:12.472000,(-5 -6 0 2 -8 -6 -6 -3)
1969/12/31/18:00:12.481000,(-11 -10 16 67 20 0 -6 -8)
1969/12/31/18:00:12.481000,(-10 -8 -22 -47 -28 -9 -4 -5)
1969/12/31/18:00:12.495000,(3 7 3 0 15 6 3 3)
1969/12/31/18:00:12.495000,(4 5 16 67 47 12 2 2)
1969/12/31/18:00:12.497000,(2 -5 -26 -57 -17 -7 -2 2)
1969/12/31/18:00:12.497000,(-3 -4 -3 -30 -27 -6 -1 -1)
1969/12/31/18:00:12.518000,(0 5 13 30 16 4 0 0)
1969/12/31/18:00:12.518000,(2 -3 -8 -15 -9 -4 -1 2)
1969/12/31/18:00:12.520000,(-1 -2 -8 -4 -8 -4 -2 -2)
1969/12/31/18:00:12.520000,(-2 -3 0 -12 11 4 -1 -3)
1969/12/31/18:00:12.532000,(6 4 3 18 9 7 3 3)
1969/12/31/18:00:12.532000,(1 1 -3 -24 -15 -5 -1 0)
1969/12/31/18:00:12.541000,(10 6 4 6 8 2 3 9)
1969/12/31/18:00:12.541000,(0 -1 11 18 16 5 -2 -8)
1969/12/31/18:00:12.555000,(-9 -6 -3 2 -3 -6 -9 -11)
1969/12/31/18:00:12.555000,(-9 -11 -6 -6 -13 -8 -6 -5)
1969/12/31/18:00:12.561000,(-40 -3 4 12 8 -1 0 -3)
1969/12/31/18:00:12.561000,(51 5 -1 -10 6 9 15 18)
1969/12/31/18:00:12.578000,(-3 -1 -6 -10 -12 -12 -17 -18)
1969/12/31/18:00:12.578000,(7 6 4 18 6 0 2 5)
1969/12/31/18:00:12.580000,(7 4 -2 10 3 -1 -1 2)
1969/12/31/18:00:12.580000,(-27 -13 -9 -18 -8 -1 1 3)
1969/12/31/18:00:12.601000,(-3 6 10 13 10 3 1 -1)
1969/12/31/18:00:12.601000,(-5 -5 2 0 -3 -4 -1 -1)
1969/12/31/18:00:12.603000,(7 -1 -5 -12 -2 1 1 0)
1969/12/31/18:00:12.603000,(-14 3 0 1 -1 -4 -7 -10)
1969/12/31/18:00:12.623000,(21 3 5 6 3 3 7 6)
1969/12/31/18:00:12.623000,(-4 1 -4 -7 1 4 2 3)
1969/12/31/18:00:12.625000,(-3 -6 -5 -2 -5 -4 -2 -4)
1969/12/31/18:00:12.625000,(-1 1 -1 -1 5 1 3 7)
1969/12/31/18:00:12.638000,(10 9 6 11 5 1 1 0)
1969/12/31/18:00:12.638000,(-8 -6 -2 -7 -4 -2 -3 -6)
1969/12/31/18:00:12.640000,(11 0 -3 -6 0 2 2 3)
1969/12/31/18:00:12.640000,(-9 0 -3 -5 -6 -4 -8 -8)
1969/12/31/18:00:12.652000,(-6 -4 0 6 3 2 3 4)
1969/12/31/18:00:12.652000,(7 5 2 -1 -2 -1 1 1)
1969/12/31/18:00:12.661000,(-16 -5 5 5 3 -2 -5 -14)
1969/12/31/18:00:12.661000,(22 11 -9 -10 0 4 4 5)
1969/12/31/18:00:12.683000,(-25 -9 -5 0 -5 -3 -4 -6)
1969/12/31/18:00:12.683000,(26 8 -5 -17 -7 0 1 5)
1969/12/31/18:00:12.685000,(1 5 -1 -31 -22 -5 -4 -7)
1969/12/31/18:00:12.685000,(-11 -6 4 36 25 0 -4 -2)
1969/12/31/18:00:12.698000,(13 7 -4 -24 7 12 13 14)
1969/12/31/18:00:12.698000,(-16 -6 6 17 -6 -4 -5 -5)
1969/12/31/18:00:12.699000,(9 7 21 78 38 13 7 9)
1969/12/31/18:00:12.699000,(0 -10 0 -6 1 0 -2 -3)
1969/12/31/18:00:12.712000,(-5 2 5 9 1 -1 -2 -1)
1969/12/31/18:00:12.712000,(-15 -13 -15 -36 -17 -8 -4 -6)
1969/12/31/18:00:12.721000,(21 8 -13 -40 -23 -6 0 5)
1969/12/31/18:00:12.721000,(-1 5 1 -9 -8 -1 1 2)
1969/12/31/18:00:12.735000,(0 -18 -5 8 4 1 4 9)
1969/12/31/18:00:12.735000,(-34 2 12 -3 -1 -2 -15 -35)
1969/12/31/18:00:12.742000,(36 10 -7 -25 -8 -5 -1 19)
1969/12/31/18:00:12.742000,(-3 -2 -8 -3 -10 -2 4 3)
1969/12/31/18:00:12.758000,(-4 -2 3 7 13 4 1 -4)
1969/12/31/18:00:12.758000,(5 4 12 42 20 5 7 13)
1969/12/31/18:00:12.760000,(-7 3 16 41 20 10 4 -7)
1969/12/31/18:00:12.760000,(-20 -14 -8 -34 -11 -6 -8 -7)
1969/12/31/18:00:12.780000,(5 -3 2 7 -9 -4 -2 0)
1969/12/31/18:00:12.780000,(2 1 -6 -8 -1 2 3 5)
1969/12/31/18:00:12.782000,(-31 -16 -10 -16 -10 -7 -8 -17)
1969/12/31/18:00:12.782000,(24 11 -2 -6 1 0 7 19)
1969/12/31/18:00:12.795000,(10 -4 -5 4 2 5 9 6)
1969/12/31/18:00:12.795000,(-30 -14 -5 3 2 -4 -11 -23)
1969/12/31/18:00:12.802000,(-9 -9 -2 -6 -7 -6 -6 -4)
1969/12/31/18:00:12.802000,(-25 -4 0 0 -10 -20 -27 -23)
1969/12/31/18:00:12.819000,(-22 -17 -40 -85 -21 -13 -14 -15)
1969/12/31/18:00:12.819000,(33 20 22 43 0 12 21 30)
1969/12/31/18:00:12.820000,(-47 -25 13 43 14 -1 -7 -23)
1969/12/31/18:00:12.820000,(59 35 17 25 17 17 16 19)
1969/12/31/18:00:12.841000,(-2 2 8 11 -2 -6 -11 -5)
1969/12/31/18:00:12.841000,(-11 -20 -32 -90 -28 -12 -10 -12)
1969/12/31/18:00:12.842000,(16 8 -6 9 -1 2 7 13)
1969/12/31/18:00:12.842000,(-43 -18 13 35 16 7 6 -6)
1969/12/31/18:00:12.855000,(47 5 -1 2 -1 8 17 19)
1969/12/31/18:00:12.855000,(-29 -9 -1 -5 4 3 -1 5)
1969/12/31/18:00:12.862000,(-15 -14 -9 -5 -6 -13 -20 -20)
1969/12/31/18:00:12.862000,(28 8 -3 -13 -3 3 6 11)
1969/12/31/18:00:12.878000,(-39 -7 3 11 -6 -8 -13 -23)
1969/12/31/18:00:12.878000,(-9 -1 5 12 3 -2 2 0)
1969/12/31/18:00:12.880000,(60 15 -5 -7 6 9 18 35)
1969/12/31/18:00:12.880000,(-35 -16 -9 -20 -14 -13 -21 -28)
1969/12/31/18:00:12.900000,(-13 0 8 10 0 2 3 4)
1969/12/31/18:00:12.901000,(19 7 3 4 5 4 3 6)
1969/12/31/18:00:12.902000,(-22 -3 -5 -7 0 -5 -10 -12)
1969/12/31/18:00:12.902000,(42 20 0 -20 -16 8 18 20)
1969/12/31/18:00:12.914000,(11 4 -1 -4 -11 -8 -4 2)
1969/12/31/18:00:12.914000,(1 9 14 41 26 6 -1 -5)
1969/12/31/18:00:12.923000,(11 11 10 21 21 8 3 -3)
1969/12/31/18:00:12.923000,(-29 -20 -11 -18 -11 -6 -9 -13)
1969/12/31/18:00:12.938000,(9 10 -2 -5 0 1 7 10)
1969/12/31/18:00:12.938000,(-12 -17 -10 -6 -11 -15 -12 -12)
1969/12/31/18:00:12.940000,(-18 2 4 -9 -1 14 21 17)
1969/12/31/18:00:12.940000,(65 30 5 4 5 2 -1 13)
1969/12/31/18:00:12.961000,(0 1 -4 -5 -5 -5 -5 -4)
1969/12/31/18:00:12.961000,(13 3 -5 -8 -2 1 2 3)
1969/12/31/18:00:12.962000,(-18 -9 3 5 0 1 3 -6)
1969/12/31/18:00:12.962000,(-1 -5 -6 -12 -9 -6 -1 10)
1969/12/31/18:00:12.974000,(-33 -3 -10 -61 -8 5 -1 -20)
1969/12/31/18:00:12.974000,(5 -5 -19 -42 -8 1 2 -1)
1969/12/31/18:00:12.983000,(7 11 35 86 9 -3 -7 -6)
1969/12/31/18:00:12.983000,(-20 -8 9 45 3 -8 -9 -13)
1969/12/31/18:00:12.998000,(4 -1 9 24 8 1 0 4)
1969/12/31/18:00:12.998000,(3 5 5 -9 15 5 5 5)
1969/12/31/18:00:13.000000,(6 -2 -15 -33 3 2 -3 -3)
1969/12/31/18:00:13.000000,(-30 -14 0 5 13 14 8 -3)
1969/12/31/18:00:13.020000,(7 15 5 19 -2 -5 0 16)
1969/12/31/18:00:13.020000,(-27 -10 -13 -34 -28 -13 -17 -29)
1969/12/31/18:00:13.028000,(0 3 -14 -32 -18 -5 -2 -2)
1969/12/31/18:00:13.028000,(1 -2 2 8 3 -4 -1 -3)
1969/12/31/18:00:13.034000,(-42 -27 -4 -3 0 -5 -9 -21)
1969/12/31/18:00:13.034000,(28 10 -8 -38 -13 -2 6 17)
1969/12/31/18:00:13.043000,(5 -2 -8 16 -10 -5 -1 3)
1969/12/31/18:00:13.043000,(-23 -8 3 4 3 2 -2 -8)
1969/12/31/18:00:13.059000,(18 15 12 44 21 7 7 10)
1969/12/31/18:00:13.059000,(-9 -5 19 72 16 0 -5 -4)
1969/12/31/18:00:13.061000,(11 -3 -30 -117 -35 -8 -4 1)
1969/12/31/18:00:13.061000,(6 5 -1 29 19 4 8 6)
1969/12/31/18:00:13.080000,(7 0 -3 -19 -15 -3 0 5)
1969/12/31/18:00:13.081000,(8 5 9 32 36 6 4 4)
1969/12/31/18:00:13.082000,(-38 -21 7 33 -9 -2 -3 -8)
1969/12/31/18:00:13.082000,(14 17 3 -20 0 -2 -2 -3)
1969/12/31/18:00:13.094000,(30 12 -6 -16 -2 0 -2 -3)
1969/12/31/18:00:13.094000,(13 8 -10 -15 -3 0 3 11)
1969/12/31/18:00:13.103000,(-30 -15 0 -14 7 9 11 0)
1969/12/31/18:00:13.103000,(-11 -10 -10 -11 -12 -8 -7 -5)
1969/12/31/18:00:13.126000,(3 0 7 25 9 2 5 7)
1969/12/31/18:00:13.126000,(-5 -3 -4 -14 -13 -6 -5 -4)
1969/12/31/18:00:13.127000,(19 7 -2 -27 -8 -5 -2 4)
1969/12/31/18:00:13.127000,(-8 -7 -4 15 8 1 0 1)
1969/12/31/18:00:13.140000,(-6 -2 7 17 -6 2 1 -1)
1969/12/31/18:00:13.140000,(5 -1 -2 -11 -4 -1 0 -2)
1969/12/31/18:00:13.142000,(9 4 4 20 11 -1 -2 0)
1969/12/31/18:00:13.142000,(-4 -4 -3 -32 -12 3 4 1)
1969/12/31/18:00:13.154000,(-2 -1 9 33 22 2 -5 -5)
1969/12/31/18:00:13.154000,(0 3 11 34 5 5 5 4)
1969/12/31/18:00:13.163000,(10 7 10 31 7 -3 -3 1)
1969/12/31/18:00:13.163000,(-4 -3 -10 -37 -12 -3 -2 -5)
1969/12/31/18:00:13.178000,(2 3 -6 0 -3 0 0 0)
1969/12/31/18:00:13.178000,(-15 -10 -7 -22 -12 -4 -6 -9)
1969/12/31/18:00:13.180000,(16 -2 -25 -8 19 2 4 14)
1969/12/31/18:00:13.180000,(-55 -6 20 62 -21 1 -8 -29)
1969/12/31/18:00:13.200000,(-11 1 17 13 5 -4 -9 -17)
1969/12/31/18:00:13.200000,(24 14 -7 -29 -5 -3 -2 1)
1969/12/31/18:00:13.202000,(1 -8 -23 -47 -10 -9 -7 -7)
1969/12/31/18:00:13.202000,(3 -4 0 3 18 3 5 9)
1969/12/31/18:00:13.215000,(-8 -1 17 36 6 6 6 5)
1969/12/31/18:00:13.215000,(-5 3 9 5 -4 2 -1 -2)
1969/12/31/18:00:13.229000,(0 1 -2 -24 -11 0 3 0)
1969/12/31/18:00:13.229000,(8 -3 -12 -36 -6 1 5 7)
1969/12/31/18:00:13.238000,(-3 -6 -20 -62 -11 -5 -1 -3)
1969/12/31/18:00:13.238000,(11 3 16 74 21 7 5 9)
1969/12/31/18:00:13.240000,(3 8 14 12 9 5 -1 -2)
1969/12/31/18:00:13.240000,(6 -3 -5 6 -4 -6 -3 0)
1969/12/31/18:00:13.260000,(-15 -14 -9 -6 -2 -5 -5 0)
1969/12/31/18:00:13.260000,(29 47 20 2 6 18 26 23)
1969/12/31/18:00:13.262000,(-52 -30 1 22 -1 -11 -20 -32)
1969/12/31/18:00:13.262000,(-16 -7 -4 -21 -2 2 0 -9)
1969/12/31/18:00:13.274000,(14 2 -10 -17 -7 -5 -2 5)
1969/12/31/18:00:13.274000,(-34 -35 -18 -15 -13 -12 -12 -12)
1969/12/31/18:00:13.283000,(74 54 34 25 17 25 35 54)
1969/12/31/18:00:13.283000,(6 8 -10 -9 -2 -12 -14 -11)
1969/12/31/18:00:13.298000,(-56 -25 3 4 4 8 2 -22)
1969/12/31/18:00:13.298000,(-16 -8 -2 1 -3 -3 -8 -14)
1969/12/31/18:00:13.300000,(0 -8 -2 1 -6 -5 -5 -5)
1969/12/31/18:00:13.300000,(-13 -18 -6 -5 -5 -11 -14 -11)
1969/12/31/18:00:13.320000,(52 42 13 15 13 19 31 46)
1969/12/31/18:00:13.321000,(-8 -2 -2 -5 -2 -8 -15 -16)
1969/12/31/18:00:13.322000,(7 -1 -9 -52 -17 -5 -1 2)
1969/12/31/18:00:13.322000,(-10 0 5 38 10 -4 -6 -4)
1969/12/31/18:00:13.334000,(7 -12 8 19 14 8 6 13)
1969/12/31/18:00:13.334000,(48 24 -3 -8 2 13 25 31)
1969/12/31/18:00:13.343000,(-48 -25 -10 -3 -1 -5 -11 -27)
1969/12/31/18:00:13.343000,(7 -6 -16 -62 -21 -11 -8 5)
1969/12/31/18:00:13.358000,(1 4 10 25 0 -8 -11 -14)
1969/12/31/18:00:13.358000,(-19 -17 2 18 13 5 6 9)
1969/12/31/18:00:13.360000,(6 8 3 18 8 10 14 9)
1969/12/31/18:00:13.360000,(49 27 -12 -36 -8 3 5 15)
1969/12/31/18:00:13.380000,(-37 -30 -16 -28 -9 -5 1 -2)
1969/12/31/18:00:13.381000,(57 27 21 48 4 -6 -9 0)
1969/12/31/18:00:13.382000,(-24 -22 -4 21 -1 -12 -10 -6)
1969/12/31/18:00:13.382000,(-7 1 17 21 23 27 22 1)
1969/12/31/18:00:13.394000,(0 -1 -29 -62 -26 -19 -22 -18)
1969/12/31/18:00:13.394000,(-17 -7 -4 6 -12 1 5 3)
1969/12/31/18:00:13.403000,(1 -6 -22 -57 -8 -9 -11 -7)
1969/12/31/18:00:13.403000,(15 16 19 45 4 0 3 7)
1969/12/31/18:00:13.418000,(-30 -19 23 55 17 2 -8 -16)
1969/12/31/18:00:13.418000,(0 2 -13 -34 5 10 9 -2)
1969/12/31/18:00:13.420000,(18 16 5 24 -1 -4 -2 3)
1969/12/31/18:00:13.420000,(-41 -24 -18 -58 -26 -12 -11 -18)
1969/12/31/18:00:13.440000,(30 18 -6 -2 7 13 20 25)
1969/12/31/18:00:13.440000,(-7 2 12 42 -22 -1 5 9)
1969/12/31/18:00:13.442000,(0 -16 -10 -52 3 1 -3 -3)
1969/12/31/18:00:13.442000,(4 -2 19 85 19 3 6 8)
1969/12/31/18:00:13.454000,(-10 -1 22 75 24 -15 -24 -25)
1969/12/31/18:00:13.454000,(0 -7 -14 -55 -18 -12 -12 -10)
1969/12/31/18:00:13.463000,(36 33 6 12 7 18 23 27)
1969/12/31/18:00:13.463000,(-13 -15 -15 -43 -4 2 0 -6)
1969/12/31/18:00:13.477000,(25 8 -11 -14 -10 4 10 23)
1969/12/31/18:00:13.478000,(-59 -31 -15 -11 1 -19 -29 -41)
1969/12/31/18:00:13.484000,(-16 -1 10 -18 -21 -6 -8 -21)
1969/12/31/18:00:13.484000,(29 14 5 -9 -3 4 8 23)
1969/12/31/18:00:13.508000,(15 11 -6 -1 -1 1 2 4)
1969/12/31/18:00:13.508000,(-38 -22 9 17 38 2 -5 -14)
1969/12/31/18:00:13.515000,(-6 5 14 49 -15 -10 -15 -12)
1969/12/31/18:00:13.515000,(22 10 3 -58 -2 17 29 36)
1969/12/31/18:00:13.516000,(14 1 -8 13 -6 -10 -12 -12)
1969/12/31/18:00:13.516000,(-26 -22 -6 -20 8 1 -2 -2)
1969/12/31/18:00:13.523000,(22 25 3 36 2 3 0 -7)
1969/12/31/18:00:13.523000,(7 2 2 25 7 -2 -7 -1)
1969/12/31/18:00:13.537000,(-17 -4 -21 -73 -31 -6 -4 -3)
1969/12/31/18:00:13.537000,(25 13 9 -20 -5 3 10 10)
1969/12/31/18:00:13.544000,(-17 -12 11 55 21 -4 -5 0)
1969/12/31/18:00:13.544000,(-7 1 -2 6 -4 -4 -2 -5)
1969/12/31/18:00:13.560000,(-6 -4 -5 -11 -3 -2 -2 -5)
1969/12/31/18:00:13.560000,(-10 -15 -21 -18 -10 -1 -1 2)
1969/12/31/18:00:13.562000,(52 25 8 -10 1 8 13 29)
1969/12/31/18:00:13.562000,(-38 -13 1 15 2 -9 -17 -32)
1969/12/31/18:00:13.574000,(0 -5 -2 -13 -2 -5 -4 -3)
1969/12/31/18:00:13.574000,(22 7 -2 -20 -10 3 5 9)
1969/12/31/18:00:13.583000,(11 18 -3 9 9 3 8 13)
1969/12/31/18:00:13.583000,(-13 -15 1 20 7 -8 -19 -28)
1969/12/31/18:00:13.597000,(-9 -10 0 -3 -3 2 3 -2)
1969/12/31/18:00:13.597000,(-2 -3 -10 -10 -13 -9 -7 0)
1969/12/31/18:00:13.604000,(-40 -28 -10 -14 -3 -8 -13 -23)
1969/12/31/18:00:13.604000,(-13 -4 3 19 6 2 1 5)
1969/12/31/18:00:13.620000,(0 8 1 -9 -5 -1 -4 -6)
1969/12/31/18:00:13.620000,(4 -4 8 23 5 2 2 -4)
1969/12/31/18:00:13.622000,(-32 -14 -8 -16 5 10 6 5)
1969/12/31/18:00:13.622000,(59 42 19 12 5 8 14 20)
1969/12/31/18:00:13.634000,(6 4 1 -2 2 3 6 9)
1969/12/31/18:00:13.634000,(4 -12 -12 11 -2 -11 -14 -6)
1969/12/31/18:00:13.643000,(-55 -22 -3 -16 0 2 3 -10)
1969/12/31/18:00:13.643000,(16 5 -8 -11 -5 0 -6 -7)
1969/12/31/18:00:13.657000,(1 -1 -7 -25 -11 -4 -4 -7)
1969/12/31/18:00:13.657000,(-4 3 15 40 11 3 0 0)
1969/12/31/18:00:13.664000,(4 2 2 11 9 1 7 3)
1969/12/31/18:00:13.664000,(8 3 -10 -14 -12 3 8 15)
1969/12/31/18:00:13.688000,(3 1 8 16 10 0 2 2)
1969/12/31/18:00:13.688000,(-18 -4 -1 -5 -7 -6 -10 -18)
1969/12/31/18:00:13.690000,(62 20 14 10 13 19 34 50)
1969/12/31/18:00:13.690000,(-17 -11 -14 -20 -8 -13 -16 -19)
1969/12/31/18:00:13.694000,(6 2 3 16 6 3 2 1)
1969/12/31/18:00:13.694000,(2 15 10 7 4 11 11 8)
1969/12/31/18:00:13.703000,(-20 -46 -11 6 -8 -15 -16 -12)
1969/12/31/18:00:13.703000,(56 62 14 15 4 0 14 44)
1969/12/31/18:00:13.717000,(-115 -57 -25 -25 -20 -25 -45 -75)
1969/12/31/18:00:13.717000,(-10 -5 -5 -8 -2 1 7 5)
1969/12/31/18:00:13.724000,(28 20 0 -9 -7 -4 -10 -1)
1969/12/31/18:00:13.724000,(-40 -49 -12 -5 -1 2 0 -8)
1969/12/31/18:00:13.740000,(45 21 0 -2 1 4 8 25)
1969/12/31/18:00:13.740000,(39 31 -8 -39 8 11 13 16)
1969/12/31/18:00:13.742000,(-36 -25 2 8 -28 -15 -23 -38)
1969/12/31/18:00:13.742000,(-4 3 21 43 14 4 4 -2)
1969/12/31/18:00:13.763000,(43 33 18 46 21 7 13 26)
1969/12/31/18:00:13.763000,(-73 -66 -5 11 12 9 4 -19)
1969/12/31/18:00:13.764000,(43 36 -5 -31 5 7 8 21)
1969/12/31/18:00:13.764000,(-33 -24 -18 -20 -16 -6 -8 -19)
1969/12/31/18:00:13.786000,(8 -1 6 -29 -13 8 29 46)
1969/12/31/18:00:13.786000,(36 31 3 35 -6 -20 -28 -27)
1969/12/31/18:00:13.787000,(8 3 0 4 -3 -22 -28 -12)
1969/12/31/18:00:13.787000,(11 1 -1 13 5 5 6 4)
1969/12/31/18:00:13.800000,(-9 -13 -27 -74 -9 6 1 -4)
1969/12/31/18:00:13.800000,(17 9 -2 -34 -20 8 22 27)
1969/12/31/18:00:13.802000,(-34 -13 5 45 36 6 5 -12)
1969/12/31/18:00:13.802000,(1 3 18 45 0 -8 -20 -13)
1969/12/31/18:00:13.823000,(8 10 10 41 22 13 9 3)
1969/12/31/18:00:13.823000,(5 8 7 23 49 13 9 8)
1969/12/31/18:00:13.825000,(-6 -4 2 0 -39 -9 -5 -9)
1969/12/31/18:00:13.825000,(11 12 -21 -39 -25 -11 8 23)
1969/12/31/18:00:13.837000,(-22 -31 -5 -14 -5 -8 -13 -33)
1969/12/31/18:00:13.837000,(23 32 5 -13 -1 9 15 37)
1969/12/31/18:00:13.844000,(24 3 -21 -24 -7 -24 -33 -29)
1969/12/31/18:00:13.844000,(-41 -39 -12 -14 -2 -1 -7 -15)
1969/12/31/18:00:13.860000,(66 62 12 13 -6 2 9 28)
1969/12/31/18:00:13.860000,(-31 -9 -1 6 1 -6 -11 -28)
1969/12/31/18:00:13.862000,(-18 -22 -14 -4 -2 -1 0 2)
1969/12/31/18:00:13.862000,(34 33 -1 -49 -13 11 10 5)
1969/12/31/18:00:13.883000,(-31 -22 -11 -31 -22 -14 -21 -23)
1969/12/31/18:00:13.883000,(3 -4 29 81 24 4 2 3)
1969/12/31/18:00:13.884000,(-4 15 30 74 30 11 9 5)
1969/12/31/18:00:13.884000,(-31 -22 17 41 11 -11 -18 -24)
1969/12/31/18:00:13.896000,(15 6 0 9 22 17 20 23)
1969/12/31/18:00:13.896000,(14 0 -30 -76 -46 -15 -10 -2)
1969/12/31/18:00:13.906000,(-4 -6 -18 -37 -18 -1 -2 -7)
1969/12/31/18:00:13.906000,(15 15 -6 -8 10 0 6 16)
1969/12/31/18:00:13.921000,(-38 -27 -9 -4 -17 -24 -36 -36)
1969/12/31/18:00:13.921000,(-35 -32 -9 -14 -14 1 4 4)
1969/12/31/18:00:13.922000,(25 16 0 -11 2 10 13 3)
1969/12/31/18:00:13.922000,(17 5 9 6 9 -2 -6 -5)
1969/12/31/18:00:13.943000,(6 1 -1 -10 -4 1 4 2)
1969/12/31/18:00:13.943000,(15 4 -2 -12 -7 -2 5 10)
1969/12/31/18:00:13.945000,(-14 -6 7 9 18 6 4 12)
1969/12/31/18:00:13.945000,(-18 -15 -17 -35 -11 1 4 -2)
1969/12/31/18:00:13.956000,(17 6 9 4 -11 10 12 15)
1969/12/31/18:00:13.956000,(-11 -6 18 66 30 0 -7 -13)
1969/12/31/18:00:13.966000,(21 8 9 8 9 14 22 34)
1969/12/31/18:00:13.966000,(0 11 0 4 1 -14 -19 -19)
1969/12/31/18:00:13.980000,(-49 -26 -17 -23 -7 -10 -11 -23)
1969/12/31/18:00:13.980000,(51 23 -8 -41 -24 -1 8 21)
1969/12/31/18:00:13.982000,(-68 -42 -13 -13 -7 -5 -14 -39)
1969/12/31/18:00:13.982000,(-3 -7 8 13 12 16 15 21)
1969/12/31/18:00:14.003000,(-17 -14 -9 -21 -10 -7 -8 -10)
1969/12/31/18:00:14.003000,(19 16 -1 7 -7 3 4 5)
1969/12/31/18:00:14.004000,(-27 -22 9 32 15 -4 -8 -6)
1969/12/31/18:00:14.004000,(-13 -1 1 -2 -7 2 0 -10)
1969/12/31/18:00:14.016000,(28 21 11 21 9 5 10 10)
1969/12/31/18:00:14.016000,(-9 -11 -5 -52 -7 -10 -11 -10)
1969/12/31/18:00:14.026000,(15 9 -9 -31 -4 10 14 14)
1969/12/31/18:00:14.026000,(-11 -15 -17 -10 -14 -5 -2 -2)
1969/12/31/18:00:14.040000,(7 9 27 67 16 5 4 5)
1969/12/31/18:00:14.041000,(-9 -2 8 38 9 -11 -18 -14)
1969/12/31/18:00:14.042000,(-8 14 4 -11 2 -2 2 0)
1969/12/31/18:00:14.042000,(-6 -6 -2 -11 3 3 -5 -19)
1969/12/31/18:00:14.063000,(27 16 -15 -21 -4 9 12 21)
1969/12/31/18:00:14.063000,(6 7 4 -1 1 7 15 27)
1969/12/31/18:00:14.065000,(14 4 -6 -18 -16 -6 -6 -2)
1969/12/31/18:00:14.065000,(12 -1 -2 -2 0 3 9 13)
1969/12/31/18:00:14.085000,(-15 -7 -3 -6 -7 -6 -6 -8)
1969/12/31/18:00:14.085000,(-16 -13 -13 -26 -12 3 0 -8)
1969/12/31/18:00:14.086000,(13 10 -4 1 11 9 7 10)
1969/12/31/18:00:14.086000,(-6 2 24 25 14 1 -1 -1)
1969/12/31/18:00:14.100000,(7 4 16 14 1 1 1 2)
1969/12/31/18:00:14.100000,(1 3 5 46 21 -3 -2 -1)
1969/12/31/18:00:14.101000,(-12 -8 -8 -24 -22 -12 -15 -15)
1969/12/31/18:00:14.101000,(22 5 -15 -16 8 11 19 24)
1969/12/31/18:00:14.122000,(-2 -4 -5 -30 -8 -2 -3 5)
1969/12/31/18:00:14.122000,(-81 -59 -9 0 -14 -8 -18 -39)
1969/12/31/18:00:14.123000,(61 59 39 41 32 36 46 48)
1969/12/31/18:00:14.123000,(-36 -20 -7 0 -14 -23 -29 -27)
1969/12/31/18:00:14.145000,(8 6 -5 0 5 5 11 12)
1969/12/31/18:00:14.145000,(-27 -12 -18 -25 -6 -3 -13 -22)
1969/12/31/18:00:14.146000,(-17 -33 -9 -5 -11 -7 -5 -4)
1969/12/31/18:00:14.146000,(54 49 13 3 5 9 15 26)
1969/12/31/18:00:14.160000,(-22 -20 -20 -36 -11 -7 -8 -20)
1969/12/31/18:00:14.160000,(27 19 11 29 -5 -3 0 10)
1969/12/31/18:00:14.161000,(-11 -5 16 37 26 -1 -9 -12)
1969/12/31/18:00:14.161000,(9 7 10 27 9 8 9 10)
1969/12/31/18:00:14.182000,(-11 -8 -15 -56 -24 -10 -11 -11)
1969/12/31/18:00:14.182000,(27 18 5 17 14 4 10 13)
1969/12/31/18:00:14.183000,(-15 -12 -4 15 -10 -16 -18 -16)
1969/12/31/18:00:14.183000,(55 40 10 11 16 17 30 38)
1969/12/31/18:00:14.205000,(-18 -4 3 22 4 -13 -24 -28)
1969/12/31/18:00:14.205000,(-4 -18 -8 -42 -17 1 6 18)
1969/12/31/18:00:14.206000,(28 16 -2 -24 -11 5 12 21)
1969/12/31/18:00:14.206000,(37 -1 -10 -6 -3 -10 -9 7)
1969/12/31/18:00:14.220000,(-18 -15 5 26 7 5 3 -6)
1969/12/31/18:00:14.220000,(48 44 12 2 11 13 17 22)
1969/12/31/18:00:14.221000,(-33 -26 -21 -28 -19 -19 -25 -26)
1969/12/31/18:00:14.221000,(-17 -11 -2 5 1 3 3 -2)
1969/12/31/18:00:14.242000,(22 18 18 37 13 1 2 10)
1969/12/31/18:00:14.242000,(-26 -21 -17 -27 8 -10 -12 -21)
1969/12/31/18:00:14.243000,(24 17 -26 -80 -49 8 21 23)
1969/12/31/18:00:14.243000,(-33 -21 -3 -8 -28 -21 -17 -20)
1969/12/31/18:00:14.265000,(-2 6 37 101 44 8 5 0)
1969/12/31/18:00:14.265000,(-47 -33 17 74 48 4 -10 -14)
1969/12/31/18:00:14.266000,(59 35 11 10 30 19 11 12)
1969/12/31/18:00:14.266000,(-43 -27 -22 -51 -22 -14 -29 -41)
1969/12/31/18:00:14.280000,(4 -4 -22 -44 -28 -6 3 7)
1969/12/31/18:00:14.280000,(-8 -8 -10 -29 -26 -8 -1 -8)
1969/12/31/18:00:14.281000,(-10 -8 -9 -6 -11 -15 -14 -4)
1969/12/31/18:00:14.281000,(-5 -5 4 4 6 10 19 20)
1969/12/31/18:00:14.303000,(47 27 11 13 13 10 14 25)
1969/12/31/18:00:14.303000,(-21 -1 -7 -20 -19 -12 -19 -25)
1969/12/31/18:00:14.303000,(-19 -10 -2 -8 -7 -6 -8 -21)
1969/12/31/18:00:14.303000,(-9 -10 -2 18 8 2 -1 -6)
1969/12/31/18:00:14.317000,(-1 1 1 1 8 6 4 7)
1969/12/31/18:00:14.317000,(26 20 4 -7 -9 6 9 15)
1969/12/31/18:00:14.325000,(-8 -7 -34 -94 -49 -17 -6 -1)
1969/12/31/18:00:14.325000,(-13 -5 23 87 42 0 -5 -4)
1969/12/31/18:00:14.340000,(-28 -14 37 89 38 11 -7 -20)
1969/12/31/18:00:14.340000,(89 66 11 3 4 7 19 47)
1969/12/31/18:00:14.341000,(-38 -25 -2 7 6 -10 -22 -31)
1969/12/31/18:00:14.341000,(-9 -11 -26 -62 -27 -2 2 -4)
1969/12/31/18:00:14.363000,(-4 -11 -20 -34 -9 3 10 7)
1969/12/31/18:00:14.363000,(5 -5 -2 -3 -5 0 2 5)
1969/12/31/18:00:14.363000,(2 5 6 18 6 3 4 8)
1969/12/31/18:00:14.363000,(0 4 0 -13 -3 1 0 -2)
1969/12/31/18:00:14.386000,(0 2 0 1 -1 -6 -5 -3)
1969/12/31/18:00:14.386000,(-13 -11 -4 -17 -5 -1 -2 -6)
1969/12/31/18:00:14.386000,(-12 -3 1 23 7 -1 -2 -4)
1969/12/31/18:00:14.386000,(16 2 6 13 6 0 -2 4)
1969/12/31/18:00:14.400000,(-2 -2 2 -6 0 6 9 9)
1969/12/31/18:00:14.400000,(7 10 -6 -14 -8 0 -4 -11)
1969/12/31/18:00:14.401000,(-8 -9 4 23 10 5 3 0)
1969/12/31/18:00:14.401000,(-33 -19 0 3 -3 -6 -7 -5)
1969/12/31/18:00:14.422000,(28 11 -4 -12 -2 4 10 13)
1969/12/31/18:00:14.422000,(-5 -7 -17 -25 1 -4 -6 -9)
1969/12/31/18:00:14.423000,(1 8 5 -3 -8 2 1 0)
1969/12/31/18:00:14.423000,(-18 -13 11 25 16 2 -3 -11)
1969/12/31/18:00:14.445000,(-9 -5 1 20 -10 -10 -12 -10)
1969/12/31/18:00:14.445000,(4 9 14 19 1 0 3 5)
1969/12/31/18:00:14.446000,(-4 -11 -6 -6 1 -6 -1 3)
1969/12/31/18:00:14.446000,(-2 -1 -18 -45 -13 0 -5 -14)
1969/12/31/18:00:14.460000,(8 6 -7 -19 0 -2 -4 -4)
1969/12/31/18:00:14.460000,(1 -2 5 6 0 1 -1 -4)
1969/12/31/18:00:14.461000,(-12 -10 1 1 1 1 3 5)
1969/12/31/18:00:14.461000,(-1 6 8 -9 3 12 14 3)
1969/12/31/18:00:14.482000,(12 26 -9 4 -4 -9 -9 -4)
1969/12/31/18:00:14.482000,(-27 -18 -2 -4 -6 -3 -9 -12)
1969/12/31/18:00:14.483000,(-2 3 5 9 2 -9 -13 -17)
1969/12/31/18:00:14.483000,(3 5 1 4 -3 -4 -2 2)
1969/12/31/18:00:14.497000,(-20 -23 -12 -13 -1 1 0 -3)
1969/12/31/18:00:14.497000,(6 12 -1 -5 -4 0 7 13)
1969/12/31/18:00:14.505000,(3 -7 2 8 6 0 -2 -2)
1969/12/31/18:00:14.505000,(-3 3 1 3 -4 -6 -6 -2)
1969/12/31/18:00:14.520000,(0 6 2 -21 -10 -2 -1 -4)
1969/12/31/18:00:14.520000,(-8 -14 -17 -27 0 3 5 4)
1969/12/31/18:00:14.520000,(2 3 5 34 2 9 7 5)
1969/12/31/18:00:14.521000,(7 10 22 47 23 0 -4 0)
1969/12/31/18:00:14.542000,(-14 -10 4 5 9 3 -2 0)
1969/12/31/18:00:14.542000,(2 -1 2 -4 -2 -4 -6 -8)
1969/12/31/18:00:14.543000,(-4 -4 -11 -20 -5 -5 -1 -3)
1969/12/31/18:00:14.543000,(12 0 -15 -27 -12 -1 5 9)
1969/12/31/18:00:14.557000,(18 18 9 1 0 9 14 15)
1969/12/31/18:00:14.557000,(-19 -20 0 7 1 0 -1 -5)
1969/12/31/18:00:14.565000,(-5 3 0 -2 10 0 0 -4)
1969/12/31/18:00:14.565000,(-4 -1 -3 -2 -17 -4 -3 -2)
1969/12/31/18:00:14.580000,(0 -4 -2 -2 -3 -5 -5 -2)
1969/12/31/18:00:14.580000,(5 3 3 2 1 3 1 -2)
1969/12/31/18:00:14.581000,(-3 1 11 26 14 11 7 7)
1969/12/31/18:00:14.581000,(6 5 4 -4 -3 -2 0 4)
1969/12/31/18:00:14.602000,(-5 -7 -8 -13 -8 -5 -3 -3)
1969/12/31/18:00:14.602000,(2 -4 -12 0 -4 2 1 2)
1969/12/31/18:00:14.618000,(2 2 8 0 5 -1 -3 0)
1969/12/31/18:00:14.618000,(-5 -4 -6 0 9 -1 -3 -5)
1969/12/31/18:00:14.620000,(2 -1 -14 -15 -28 -10 -6 -2)
1969/12/31/18:00:14.620000,(-1 -4 -3 0 -2 -7 -4 -4)
1969/12/31/18:00:14.625000,(2 -2 -7 -1 4 4 3 2)
1969/12/31/18:00:14.625000,(-1 5 22 -2 1 5 3 -1)
1969/12/31/18:00:14.640000,(-4 4 18 28 16 10 3 -2)
1969/12/31/18:00:14.640000,(10 0 -27 5 2 -5 0 6)
1969/12/31/18:00:14.641000,(-2 -4 2 -22 -6 -3 -3 -3)
1969/12/31/18:00:14.641000,(-3 0 4 15 1 0 -1 -1)
1969/12/31/18:00:14.662000,(5 -1 -1 -4 5 0 2 2)
1969/12/31/18:00:14.662000,(-5 -1 9 -4 -7 -2 -3 -3)
1969/12/31/18:00:14.663000,(9 4 -8 -5 -1 4 5 4)
1969/12/31/18:00:14.663000,(2 0 -2 -11 -3 2 3 2)
1969/12/31/18:00:14.685000,(-3 -1 0 -6 -2 1 0 -2)
1969/12/31/18:00:14.685000,(0 -1 -4 4 1 -2 -4 -2)
1969/12/31/18:00:14.692000,(-3 -3 -8 -7 -2 -10 -4 -2)
1969/12/31/18:00:14.692000,(0 0 11 -17 -15 3 1 -1)
1969/12/31/18:00:14.700000,(-1 2 2 22 16 7 4 3)
1969/12/31/18:00:14.700000,(0 -1 -4 13 6 -2 -2 -1)
1969/12/31/18:00:14.701000,(-5 2 13 3 -3 -2 -3 -3)
1969/12/31/18:00:14.701000,(0 -3 -8 -3 2 -3 -1 -1)
1969/12/31/18:00:14.722000,(-4 -6 -23 -38 -2 -2 0 -1)
1969/12/31/18:00:14.722000,(3 8 18 -2 0 3 3 0)
1969/12/31/18:00:14.723000,(1 0 -10 10 -19 -7 -4 0)
1969/12/31/18:00:14.723000,(-3 -6 4 34 15 3 -2 -3)
1969/12/31/18:00:14.746000,(-5 -5 3 -3 4 1 -2 -3)
1969/12/31/18:00:14.746000,(-1 -3 -5 10 2 -3 -3 -2)
1969/12/31/18:00:14.747000,(5 4 1 -4 -1 0 1 3)
1969/12/31/18:00:14.747000,(-3 -5 -20 -26 -12 -9 -4 -1)
1969/12/31/18:00:14.760000,(0 0 7 0 -3 -2 0 1)
1969/12/31/18:00:14.760000,(0 8 28 -2 1 8 5 1)
1969/12/31/18:00:14.761000,(6 6 -3 -1 2 4 3 4)
1969/12/31/18:00:14.761000,(-4 -4 -14 -14 -4 -7 -4 -1)
1969/12/31/18:00:14.782000,(1 -2 -5 14 0 -1 0 2)
1969/12/31/18:00:14.782000,(-7 -8 -7 11 -4 -5 -5 -4)
1969/12/31/18:00:14.783000,(-2 1 11 9 5 0 0 0)
1969/12/31/18:00:14.783000,(-1 2 1 2 4 2 0 -1)
1969/12/31/18:00:14.805000,(1 4 14 -16 -14 -6 -3 -3)
1969/12/31/18:00:14.805000,(5 3 -15 -39 -11 0 1 4)
1969/12/31/18:00:14.806000,(5 -2 -1 25 1 1 3 5)
1969/12/31/18:00:14.806000,(-4 -1 7 37 17 1 -4 -4)
1969/12/31/18:00:14.820000,(0 -1 -3 -13 -11 -1 0 1)
1969/12/31/18:00:14.820000,(3 2 -1 -17 -8 -1 -2 0)
1969/12/31/18:00:14.821000,(-1 -4 -1 7 11 5 -3 -2)
1969/12/31/18:00:14.821000,(-1 2 9 -12 11 3 0 -3)
1969/12/31/18:00:14.842000,(0 -1 -8 2 0 2 -1 -3)
1969/12/31/18:00:14.842000,(-2 0 3 7 -6 2 0 -3)
1969/12/31/18:00:14.843000,(1 5 -1 -7 4 0 1 0)
1969/12/31/18:00:14.843000,(4 2 10 37 6 2 3 2)
1969/12/31/18:00:14.865000,(-5 -5 -2 -34 -13 -8 -7 -4)
1969/12/31/18:00:14.865000,(1 2 -11 -23 -11 -1 0 1)
1969/12/31/18:00:14.866000,(2 3 4 -60 3 8 4 2)
1969/12/31/18:00:14.866000,(-5 0 -22 -4 -25 -6 -4 -4)
1969/12/31/18:00:14.880000,(-2 -3 12 105 25 3 4 1)
1969/12/31/18:00:14.880000,(-10 -7 -8 -52 -7 -13 -8 -7)
1969/12/31/18:00:14.881000,(-4 -4 -15 -66 -42 -12 -2 -3)
1969/12/31/18:00:14.881000,(4 2 18 57 43 10 4 3)
1969/12/31/18:00:14.902000,(-2 1 0 -69 -34 -7 -2 -2)
1969/12/31/18:00:14.902000,(2 2 15 79 65 9 4 2)
1969/12/31/18:00:14.903000,(-2 2 2 75 40 8 1 1)
1969/12/31/18:00:14.903000,(3 0 -8 -66 -15 1 2 2)
1969/12/31/18:00:14.925000,(0 3 30 125 33 3 0 -5)
1969/12/31/18:00:14.925000,(0 -4 -11 -91 -56 -6 1 -1)
1969/12/31/18:00:14.926000,(2 -4 -14 -11 -9 -11 -2 2)
1969/12/31/18:00:14.926000,(-5 -7 -17 -53 -29 -10 -5 -4)
1969/12/31/18:00:14.940000,(5 -1 -12 -6 8 0 1 4)
1969/12/31/18:00:14.940000,(-7 -2 6 -3 -4 -4 -5 -6)
1969/12/31/18:00:14.941000,(-3 -3 -2 -1 -7 -4 0 -3)
1969/12/31/18:00:14.941000,(2 0 1 8 -8 0 3 1)
1969/12/31/18:00:14.962000,(1 2 -6 -53 -8 -2 1 -1)
1969/12/31/18:00:14.962000,(3 3 -5 21 -4 -3 1 5)
1969/12/31/18:00:14.970000,(-4 0 22 17 17 8 0 -3)
1969/12/31/18:00:14.970000,(0 -1 0 37 13 -8 -5 0)
1969/12/31/18:00:14.985000,(0 -1 -5 -28 8 9 2 2)
1969/12/31/18:00:14.985000,(-2 3 10 40 -1 -1 -2 0)
1969/12/31/18:00:14.986000,(4 5 1 7 -5 7 7 6)
1969/12/31/18:00:14.986000,(2 -4 -3 -12 6 0 -1 0)
1969/12/31/18:00:15.000000,(-9 -11 -21 -26 -14 -8 -4 -5)
1969/12/31/18:00:15.000000,(-1 -1 -1 6 5 1 0 -1)
1969/12/31/18:00:15.001000,(1 3 -2 -37 -11 -2 0 -1)
1969/12/31/18:00:15.001000,(-1 1 3 7 -4 0 1 -1)
1969/12/31/18:00:15.023000,(1 1 6 23 5 -1 0 -1)
1969/12/31/18:00:15.023000,(-2 -5 -2 -14 -12 -2 -1 -1)
1969/12/31/18:00:15.024000,(1 2 3 12 21 3 -1 -2)
1969/12/31/18:00:15.024000,(0 4 -1 -4 -9 2 2 1)
1969/12/31/18:00:15.046000,(-3 1 -4 -17 -3 -3 -4 -2)
1969/12/31/18:00:15.046000,(0 -2 4 26 8 1 0 -1)
1969/12/31/18:00:15.047000,(-1 -2 -6 -13 -10 -6 -3 0)
1969/12/31/18:00:15.047000,(1 -4 -12 -26 -13 -2 1 3)
1969/12/31/18:00:15.060000,(-8 -4 -2 -12 -1 -1 -2 -5)
1969/12/31/18:00:15.060000,(2 5 13 29 5 3 0 -1)
1969/12/31/18:00:15.061000,(3 4 11 41 9 0 -1 -2)
1969/12/31/18:00:15.061000,(-1 -5 -18 -32 -8 -3 -1 2)
1969/12/31/18:00:15.082000,(1 3 0 -19 -5 -3 0 2)
1969/12/31/18:00:15.083000,(6 5 1 7 18 10 8 5)
1969/12/31/18:00:15.083000,(-2 -2 9 36 3 4 -1 -2)
1969/12/31/18:00:15.083000,(0 2 4 12 3 2 -1 -4)
1969/12/31/18:00:15.105000,(0 -5 -17 -44 -21 -6 -2 2)
1969/12/31/18:00:15.105000,(-4 -2 -2 -15 -1 -5 -3 -5)
1969/12/31/18:00:15.106000,(-3 -1 1 18 2 -3 -4 -3)
1969/12/31/18:00:15.106000,(-1 -3 -11 -47 -13 -2 -1 1)
1969/12/31/18:00:15.128000,(2 4 23 78 22 7 2 0)
1969/12/31/18:00:15.128000,(-4 -7 -8 -31 4 -1 -1 -3)
1969/12/31/18:00:15.129000,(1 -1 0 44 0 -2 2 2)
1969/12/31/18:00:15.129000,(0 -3 -8 -24 -7 -4 -2 -1)
1969/12/31/18:00:15.129000,(3 1 2 -1 1 -1 0 0)
1969/12/31/18:00:15.129000,(-9 -3 0 0 0 1 0 -4)
1969/12/31/18:00:15.130000,(1 0 -3 1 -2 1 -1 0)
1969/12/31/18:00:15.130000,(-2 -3 0 1 -2 -2 -2 -2)
1969/12/31/18:00:15.151000,(2 0 -3 -2 -1 -2 0 1)
1969/12/31/18:00:15.151000,(2 1 1 1 0 1 0 1)
1969/12/31/18:00:15.153000,(-2 0 -2 -1 -2 -3 -1 1)
1969/12/31/18:00:15.153000,(-2 0 0 -1 -1 -1 0 -1)
1969/12/31/18:00:15.166000,(1 -2 1 0 0 2 0 -1)
1969/12/31/18:00:15.166000,(-1 0 -1 -2 -1 -2 -2 1)
1969/12/31/18:00:15.168000,(-3 -1 0 1 -2 -1 -2 -1)
1969/12/31/18:00:15.168000,(0 -2 -3 1 2 2 1 0)
1969/12/31/18:00:15.189000,(1 2 -2 0 0 -3 0 3)
1969/12/31/18:00:15.189000,(1 1 -3 -5 -4 -3 -2 -1)
1969/12/31/18:00:15.190000,(-1 0 -2 -3 -2 -2 -1 -3)
1969/12/31/18:00:15.190000,(-4 -3 0 -2 -2 -3 -3 -3)
1969/12/31/18:00:15.211000,(-2 -3 1 4 2 1 1 0)
1969/12/31/18:00:15.211000,(-2 0 2 3 1 1 1 1)
1969/12/31/18:00:15.213000,(3 3 -5 -5 -1 0 0 0)
1969/12/31/18:00:15.213000,(5 4 -2 -1 -2 -2 0 2)
1969/12/31/18:00:15.226000,(-2 -1 -1 -2 -3 -2 -1 -1)
1969/12/31/18:00:15.226000,(-2 -4 9 1 1 3 3 0)
1969/12/31/18:00:15.232000,(-7 -3 2 9 9 -1 0 -4)
1969/12/31/18:00:15.232000,(-5 1 3 -6 -5 -4 -3 -4)
1969/12/31/18:00:15.249000,(7 1 -19 -14 -3 -6 -3 0)
1969/12/31/18:00:15.249000,(2 -4 -13 -11 -16 -3 -2 0)
1969/12/31/18:00:15.250000,(2 -1 5 4 3 1 0 0)
1969/12/31/18:00:15.250000,(1 1 5 4 10 8 7 5)
1969/12/31/18:00:15.271000,(0 4 22 40 7 5 2 1)
1969/12/31/18:00:15.271000,(-4 0 1 -7 11 -6 -4 -3)
1969/12/31/18:00:15.273000,(-8 -12 -12 11 1 -1 -4 -5)
1969/12/31/18:00:15.273000,(2 1 -4 -35 -14 -5 -2 0)
1969/12/31/18:00:15.285000,(-2 -1 -3 -41 -22 -1 1 -2)
1969/12/31/18:00:15.285000,(10 13 14 60 -6 7 5 8)
1969/12/31/18:00:15.294000,(-3 0 26 35 22 5 0 0)
1969/12/31/18:00:15.294000,(6 1 -30 0 19 -1 -3 1)
1969/12/31/18:00:15.309000,(-8 -5 10 -27 -7 -1 -5 -6)
1969/12/31/18:00:15.309000,(5 11 -23 -34 -10 -8 -5 -4)
1969/12/31/18:00:15.310000,(0 -7 -15 -87 -42 -9 1 1)
1969/12/31/18:00:15.310000,(0 -6 12 105 36 12 2 0)
1969/12/31/18:00:15.331000,(5 -6 -11 10 17 7 2 4)
1969/12/31/18:00:15.331000,(-1 7 14 21 14 0 -1 0)
1969/12/31/18:00:15.333000,(-2 4 14 -14 -15 -5 -3 -4)
1969/12/31/18:00:15.333000,(-6 -11 -23 -61 -33 -14 -5 -4)
1969/12/31/18:00:15.345000,(-14 -12 -3 -53 -27 -3 1 -2)
1969/12/31/18:00:15.345000,(-4 6 45 43 41 13 5 3)
1969/12/31/18:00:15.354000,(10 5 -42 39 34 4 -4 -1)
1969/12/31/18:00:15.354000,(11 17 22 -35 -31 -11 -4 0)
1969/12/31/18:00:15.376000,(-4 -14 -22 24 -3 -6 -5 -5)
1969/12/31/18:00:15.376000,(2 2 1 -70 -46 -6 2 3)
1969/12/31/18:00:15.378000,(-4 2 9 -8 -3 3 3 0)
1969/12/31/18:00:15.378000,(-9 -14 19 89 30 -2 -6 -7)
1969/12/31/18:00:15.391000,(-3 7 13 48 36 12 1 0)
1969/12/31/18:00:15.391000,(9 -2 -33 -64 19 4 5 9)
1969/12/31/18:00:15.393000,(4 7 -10 -61 -30 -6 -3 2)
1969/12/31/18:00:15.393000,(-2 -6 4 42 -19 6 4 2)
1969/12/31/18:00:15.405000,(0 6 11 -5 -39 -9 -3 -1)
1969/12/31/18:00:15.405000,(-13 -17 -1 73 6 -2 -1 -5)
1969/12/31/18:00:15.414000,(10 14 28 93 93 21 8 6)
1969/12/31/18:00:15.414000,(1 6 6 -1 24 16 6 3)
1969/12/31/18:00:15.429000,(5 -1 -21 -47 -28 -6 -1 -1)
1969/12/31/18:00:15.429000,(-15 -16 -4 -40 -4 -11 -12 -13)
1969/12/31/18:00:15.431000,(6 -1 -16 -87 -51 -12 1 1)
1969/12/31/18:00:15.431000,(12 18 -16 -43 -21 -7 3 7)
1969/12/31/18:00:15.467000,(3 -9 -19 -20 -18 -11 -3 1)
1969/12/31/18:00:15.467000,(-6 -16 -9 33 -19 1 1 -4)
1969/12/31/18:00:15.474000,(-6 -14 10 57 2 -4 -3 0)
1969/12/31/18:00:15.474000,(-1 12 62 124 81 18 5 2)
1969/12/31/18:00:15.475000,(0 10 20 23 63 14 1 0)
1969/12/31/18:00:15.475000,(2 -1 -12 -61 -36 -8 -3 -1)
1969/12/31/18:00:15.477000,(1 2 5 60 58 18 8 5)
1969/12/31/18:00:15.477000,(-6 -12 -46 -119 -55 -9 -5 -5)
1969/12/31/18:00:15.489000,(0 0 -4 0 -18 -8 0 1)
1969/12/31/18:00:15.489000,(-1 0 -5 -13 -5 -1 -1 1)
1969/12/31/18:00:15.491000,(-1 2 -5 -1 -32 -3 0 0)
1969/12/31/18:00:15.491000,(-3 -5 -2 -30 -9 -6 -4 -4)
1969/12/31/18:00:15.513000,(0 -1 6 24 12 0 1 -1)
1969/12/31/18:00:15.513000,(3 4 -3 10 10 4 1 0)
1969/12/31/18:00:15.514000,(-2 -3 -10 -32 -24 -7 -2 -1)
1969/12/31/18:00:15.514000,(-6 -5 10 -4 -3 0 -3 -3)
1969/12/31/18:00:15.525000,(2 4 10 20 6 3 1 1)
1969/12/31/18:00:15.525000,(1 -4 -21 -18 0 0 -1 -2)
1969/12/31/18:00:15.534000,(-1 1 11 1 -15 -4 -1 0)
1969/12/31/18:00:15.534000,(-4 -1 5 -10 -4 -4 -3 -4)
1969/12/31/18:00:15.549000,(3 3 -7 16 17 3 2 2)
1969/12/31/18:00:15.549000,(4 -1 -9 -19 -14 0 0 0)
1969/12/31/18:00:15.551000,(-3 -2 5 -4 11 3 0 -3)
1969/12/31/18:00:15.551000,(-8 -5 0 38 8 3 0 1)
1969/12/31/18:00:15.571000,(4 0 -1 0 -7 -5 -3 -3)
1969/12/31/18:00:15.571000,(-6 1 8 11 12 0 0 -6)
1969/12/31/18:00:15.573000,(-2 -7 -11 -26 -16 -5 -1 -1)
1969/12/31/18:00:15.573000,(3 0 -10 -15 -10 -3 0 0)
1969/12/31/18:00:15.585000,(0 1 -2 -6 3 -4 -3 -1)
1969/12/31/18:00:15.585000,(0 -3 2 20 4 -1 1 0)
1969/12/31/18:00:15.602000,(0 -3 3 11 -3 -2 3 6)
1969/12/31/18:00:15.602000,(15 10 3 5 5 0 3 0)
1969/12/31/18:00:15.609000,(-23 -13 -8 -14 -7 -5 -8 -18)
1969/12/31/18:00:15.609000,(4 3 -1 -4 -1 -1 0 1)
1969/12/31/18:00:15.610000,(-6 5 8 21 7 2 -1 -2)
1969/12/31/18:00:15.611000,(20 1 -5 -12 0 2 4 11)
1969/12/31/18:00:15.632000,(4 3 -4 -12 -5 1 2 5)
1969/12/31/18:00:15.632000,(9 3 7 18 4 0 -4 -5)
1969/12/31/18:00:15.634000,(-2 -2 -7 -7 -3 -1 -4 -3)
1969/12/31/18:00:15.634000,(-12 -9 -7 -16 -6 1 0 -2)
1969/12/31/18:00:15.654000,(11 8 4 2 -1 1 0 9)
1969/12/31/18:00:15.654000,(-16 1 8 16 10 3 2 1)
1969/12/31/18:00:15.655000,(9 -6 -11 -21 -14 -10 -11 -7)
1969/12/31/18:00:15.655000,(-9 -7 -10 -14 -9 -7 -5 -2)
1969/12/31/18:00:15.669000,(-5 -2 4 22 8 -4 -5 -8)
1969/12/31/18:00:15.669000,(4 4 0 -7 -7 -3 -1 2)
1969/12/31/18:00:15.670000,(1 -3 -6 -13 1 3 4 5)
1969/12/31/18:00:15.670000,(0 0 -12 -26 -11 -4 -8 -5)
1969/12/31/18:00:15.692000,(-15 -2 14 47 12 6 3 2)
1969/12/31/18:00:15.692000,(-25 -9 12 40 19 5 2 1)
1969/12/31/18:00:15.693000,(47 6 1 -7 14 16 13 15)
1969/12/31/18:00:15.693000,(-54 -13 -6 -18 -14 -15 -25 -35)
1969/12/31/18:00:15.705000,(37 27 0 -34 -12 5 8 6)
1969/12/31/18:00:15.705000,(-34 -10 4 -4 -2 -5 -13 -19)
1969/12/31/18:00:15.714000,(-10 -21 -13 -10 -17 -10 0 11)
1969/12/31/18:00:15.714000,(-7 27 14 12 6 4 0 -13)
1969/12/31/18:00:15.729000,(42 -20 -1 -14 0 2 10 22)
1969/12/31/18:00:15.729000,(-12 -15 -72 -98 -73 -27 -20 -17)
1969/12/31/18:00:15.730000,(-9 -2 -2 72 -29 -15 -6 -5)
1969/12/31/18:00:15.730000,(8 21 96 104 98 36 18 15)
1969/12/31/18:00:15.753000,(-19 -1 12 -37 33 6 -4 -9)
1969/12/31/18:00:15.753000,(23 7 0 -63 4 7 6 8)
1969/12/31/18:00:15.754000,(-25 -10 -24 -55 -43 -12 -11 -16)
1969/12/31/18:00:15.754000,(16 -7 -42 -65 -56 -17 -2 1)
1969/12/31/18:00:15.765000,(-61 -30 -1 17 -5 2 10 1)
1969/12/31/18:00:15.765000,(59 44 25 62 26 7 6 10)
1969/12/31/18:00:15.774000,(19 3 20 5 14 3 -10 -16)
1969/12/31/18:00:15.774000,(60 19 -12 9 -8 -9 1 26)
1969/12/31/18:00:15.788000,(-80 -44 -23 -30 -12 -5 -15 -47)
1969/12/31/18:00:15.788000,(57 39 0 -1 1 4 19 55)
1969/12/31/18:00:15.795000,(-6 2 4 12 4 -13 -20 -32)
1969/12/31/18:00:15.795000,(62 12 8 4 15 10 14 24)
1969/12/31/18:00:15.811000,(-16 -2 -20 -11 -13 0 0 5)
1969/12/31/18:00:15.811000,(-30 -17 5 11 -1 4 2 -8)
1969/12/31/18:00:15.813000,(3 24 27 -30 20 16 18 20)
1969/12/31/18:00:15.813000,(-26 -18 -11 19 -4 -2 -1 -4)
1969/12/31/18:00:15.834000,(1 8 -7 7 -17 -9 -9 -6)
1969/12/31/18:00:15.834000,(9 0 49 75 42 26 16 -2)
1969/12/31/18:00:15.835000,(-22 -14 -24 -58 -13 -14 -18 -20)
1969/12/31/18:00:15.835000,(-50 -33 -27 -26 -18 -8 -4 -9)
1969/12/31/18:00:15.848000,(31 30 19 38 18 4 -2 -3)
1969/12/31/18:00:15.848000,(3 -2 -24 -44 -12 -4 3 7)
1969/12/31/18:00:15.855000,(-15 -4 -11 -14 -1 -2 3 5)
1969/12/31/18:00:15.855000,(-43 -18 21 65 18 0 -6 -20)
1969/12/31/18:00:15.887000,(62 23 2 -22 -4 -1 8 24)
1969/12/31/18:00:15.887000,(2 -5 2 33 6 2 4 4)
1969/12/31/18:00:15.888000,(-12 -2 4 20 4 2 -3 -8)
1969/12/31/18:00:15.888000,(-7 -6 -13 -28 -17 -5 2 8)
1969/12/31/18:00:15.889000,(-2 8 6 -22 -6 -3 -1 -9)
1969/12/31/18:00:15.889000,(-23 -32 -24 -31 -17 -17 -11 1)
1969/12/31/18:00:15.894000,(-63 -25 1 24 1 -14 -29 -52)
1969/12/31/18:00:15.894000,(64 25 5 0 -8 7 8 24)
1969/12/31/18:00:15.908000,(2 -1 -6 -3 -10 -7 -7 0)
1969/12/31/18:00:15.908000,(-18 -17 -16 -27 -11 -14 -18 -19)
1969/12/31/18:00:15.915000,(19 13 4 24 18 19 27 30)
1969/12/31/18:00:15.915000,(-2 -4 7 14 9 8 5 4)
1969/12/31/18:00:15.939000,(-5 -7 -44 -73 -31 -8 -6 -6)
1969/12/31/18:00:15.939000,(-5 1 19 55 35 4 4 -2)
1969/12/31/18:00:15.940000,(3 6 43 94 18 9 0 4)
1969/12/31/18:00:15.940000,(-14 -1 16 29 11 -2 -5 -14)
1969/12/31/18:00:15.945000,(46 10 -1 6 2 -1 9 38)
1969/12/31/18:00:15.945000,(-115 -55 -2 -39 -5 -7 -34 -87)
1969/12/31/18:00:15.954000,(108 47 -23 -58 -11 12 32 61)
1969/12/31/18:00:15.954000,(-29 -31 -38 -63 -31 -21 -34 -42)
1969/12/31/18:00:15.968000,(-18 -6 7 20 1 -9 -7 -6)
1969/12/31/18:00:15.968000,(9 2 -7 -15 -4 3 7 14)
1969/12/31/18:00:15.975000,(-18 -11 -3 8 2 -2 -1 1)
1969/12/31/18:00:15.975000,(-9 3 -3 -30 1 4 8 5)
1969/12/31/18:00:15.991000,(5 -5 -43 -88 -67 -9 1 4)
1969/12/31/18:00:15.991000,(18 18 43 105 55 8 3 3)
1969/12/31/18:00:15.992000,(-8 11 65 101 60 19 4 -2)
1969/12/31/18:00:15.993000,(15 5 -2 -14 22 4 5 10)
1969/12/31/18:00:16.005000,(-20 -10 0 -23 4 1 -7 -16)
1969/12/31/18:00:16.005000,(26 13 -22 -68 -40 -7 8 20)
1969/12/31/18:00:16.014000,(-30 -36 -35 -63 -27 -13 -5 -8)
1969/12/31/18:00:16.014000,(51 51 12 5 12 22 31 34)
1969/12/31/18:00:16.028000,(-17 -9 6 15 2 -2 -4 -13)
1969/12/31/18:00:16.028000,(-6 -5 -2 2 -12 -4 -4 -3)
1969/12/31/18:00:16.035000,(7 6 -2 -13 7 6 11 13)
1969/12/31/18:00:16.035000,(-25 -22 -28 -46 5 -7 -9 -11)
1969/12/31/18:00:16.051000,(7 2 5 -12 -52 -4 4 3)
1969/12/31/18:00:16.051000,(13 12 13 48 10 -4 1 6)
1969/12/31/18:00:16.052000,(-17 2 23 69 38 10 -2 -9)
1969/12/31/18:00:16.053000,(-4 -12 3 17 19 5 3 8)
1969/12/31/18:00:16.074000,(27 15 -22 -36 -8 1 -1 6)
1969/12/31/18:00:16.074000,(6 -7 -4 19 -10 -7 -3 3)
1969/12/31/18:00:16.075000,(-10 -6 3 13 -16 -3 -1 -6)
1969/12/31/18:00:16.075000,(-14 -1 15 33 7 6 8 3)
1969/12/31/18:00:16.088000,(19 16 28 35 43 20 14 8)
1969/12/31/18:00:16.088000,(-3 -10 -32 -74 -42 -18 -13 -10)
1969/12/31/18:00:16.095000,(2 2 -28 -69 -21 -10 -2 -5)
1969/12/31/18:00:16.095000,(-14 -13 -7 2 -17 -8 -7 -8)
1969/12/31/18:00:16.111000,(-13 -10 13 27 -8 -2 3 4)
1969/12/31/18:00:16.111000,(16 26 11 11 33 11 9 8)
1969/12/31/18:00:16.113000,(13 1 3 21 10 0 -1 6)
1969/12/31/18:00:16.113000,(-1 -5 -9 -22 -8 -10 -9 -8)
1969/12/31/18:00:16.134000,(-53 -32 -10 -4 -4 -11 -14 -30)
1969/12/31/18:00:16.134000,(72 49 23 18 5 14 20 41)
1969/12/31/18:00:16.135000,(-3 -2 -27 -73 -12 -4 -2 6)
1969/12/31/18:00:16.135000,(-13 -9 -3 0 -25 -9 -8 -12)
1969/12/31/18:00:16.156000,(11 13 17 42 30 7 4 5)
1969/12/31/18:00:16.156000,(-23 -11 11 21 10 6 -1 -9)
1969/12/31/18:00:16.158000,(-9 -5 -2 -15 -11 -3 -1 -1)
1969/12/31/18:00:16.158000,(6 2 -14 -20 10 -5 -5 -3)
1969/12/31/18:00:16.171000,(-22 -13 8 24 -5 3 0 -5)
1969/12/31/18:00:16.171000,(17 0 -13 -25 -2 -8 -3 14)
1969/12/31/18:00:16.172000,(-10 -2 -3 -8 -18 -2 -8 -26)
1969/12/31/18:00:16.173000,(-61 -30 4 6 0 -4 -10 -17)
1969/12/31/18:00:16.193000,(25 19 11 8 36 16 13 14)
1969/12/31/18:00:16.193000,(-13 -14 -14 2 0 1 -2 -11)
1969/12/31/18:00:16.195000,(-32 -29 -13 -16 -15 -6 -2 -9)
1969/12/31/18:00:16.195000,(47 37 11 -9 -11 2 5 16)
1969/12/31/18:00:16.207000,(0 -4 0 11 7 -13 -14 -8)
1969/12/31/18:00:16.207000,(-2 -5 -18 -92 -35 -2 0 -2)
1969/12/31/18:00:16.216000,(9 9 12 30 7 1 5 11)
1969/12/31/18:00:16.216000,(11 6 3 37 2 4 8 6)
1969/12/31/18:00:16.231000,(3 1 21 51 48 10 1 4)
1969/12/31/18:00:16.231000,(-11 0 11 42 10 6 -8 -14)
1969/12/31/18:00:16.233000,(10 5 -6 -53 -22 -2 1 7)
1969/12/31/18:00:16.233000,(-1 -3 -17 -32 -30 -11 -7 -6)
1969/12/31/18:00:16.254000,(14 3 -6 18 4 -10 -8 -1)
1969/12/31/18:00:16.254000,(-53 -24 5 -1 1 -1 -4 -24)
1969/12/31/18:00:16.255000,(20 7 -4 -11 -1 3 12 22)
1969/12/31/18:00:16.255000,(6 15 -6 -23 -2 -11 -17 -14)
1969/12/31/18:00:16.267000,(-21 -13 1 4 -30 -2 2 -4)
1969/12/31/18:00:16.267000,(-21 -18 -8 -1 -8 -13 -12 -23)
1969/12/31/18:00:16.276000,(-3 18 -5 4 -7 -6 -9 -11)
1969/12/31/18:00:16.276000,(29 1 -10 -40 2 4 7 9)
1969/12/31/18:00:16.291000,(15 1 6 27 14 -5 -7 6)
1969/12/31/18:00:16.291000,(12 16 9 14 8 14 15 10)
1969/12/31/18:00:16.293000,(-33 -13 4 17 6 -6 -12 -17)
1969/12/31/18:00:16.293000,(8 8 3 7 4 11 10 1)
1969/12/31/18:00:16.314000,(-1 8 -10 -25 -14 -9 -14 -14)
1969/12/31/18:00:16.314000,(13 -5 0 -17 -6 6 13 19)
1969/12/31/18:00:16.315000,(-26 -21 -5 24 7 -5 -4 -2)
1969/12/31/18:00:16.315000,(-32 -33 16 34 -6 -3 -9 -17)
1969/12/31/18:00:16.327000,(88 76 10 0 7 15 23 30)
1969/12/31/18:00:16.327000,(7 0 -36 -52 -16 -10 -5 3)
1969/12/31/18:00:16.336000,(34 18 22 33 15 14 13 18)
1969/12/31/18:00:16.336000,(-35 -25 -6 -43 -8 -14 -22 -26)
1969/12/31/18:00:16.351000,(-54 -49 8 48 -4 1 0 -11)
1969/12/31/18:00:16.351000,(62 51 5 16 20 7 14 36)
1969/12/31/18:00:16.353000,(-44 -32 -27 -58 -22 -15 -28 -51)
1969/12/31/18:00:16.353000,(-12 -8 -1 10 -4 2 1 7)
1969/12/31/18:00:16.374000,(-12 4 0 5 23 3 -3 -11)
1969/12/31/18:00:16.374000,(-20 -29 4 19 8 2 3 12)
1969/12/31/18:00:16.375000,(51 56 9 -23 -8 16 22 19)
1969/12/31/18:00:16.375000,(22 13 6 28 10 -1 6 22)
1969/12/31/18:00:16.387000,(-60 -40 -17 -48 -34 -13 -16 -24)
1969/12/31/18:00:16.387000,(13 -3 7 11 44 2 -2 -5)
1969/12/31/18:00:16.396000,(13 9 23 73 -3 15 13 16)
1969/12/31/18:00:16.396000,(12 20 -3 -46 -16 -5 1 2)
1969/12/31/18:00:16.411000,(-1 -3 7 26 19 3 4 2)
1969/12/31/18:00:16.411000,(-26 -12 3 12 -6 -6 -3 -6)
1969/12/31/18:00:16.413000,(17 -4 2 8 21 5 4 11)
1969/12/31/18:00:16.413000,(-9 1 7 26 31 6 -7 -14)
1969/12/31/18:00:16.434000,(11 -13 -8 7 -11 7 21 33)
1969/12/31/18:00:16.434000,(-1 6 3 -18 -16 -2 -10 -29)
1969/12/31/18:00:16.435000,(9 -8 -41 -119 -27 -10 0 9)
1969/12/31/18:00:16.435000,(15 10 -4 56 6 -1 -2 -2)
1969/12/31/18:00:16.456000,(-15 -6 37 68 8 -1 -10 -13)
1969/12/31/18:00:16.456000,(4 7 9 18 7 0 6 17)
1969/12/31/18:00:16.458000,(8 -2 -5 -38 -36 -4 2 4)
1969/12/31/18:00:16.458000,(81 31 1 -10 -11 15 33 58)
1969/12/31/18:00:16.471000,(-9 0 -6 -16 26 -2 -14 -26)
1969/12/31/18:00:16.471000,(-16 -7 -3 27 -3 -6 -8 -5)
1969/12/31/18:00:16.472000,(-43 -34 -37 -22 -19 -18 -23 -33)
1969/12/31/18:00:16.472000,(-26 -11 30 64 17 8 7 1)
1969/12/31/18:00:16.494000,(27 17 10 34 9 0 5 17)
1969/12/31/18:00:16.494000,(-4 6 36 73 14 13 1 -9)
1969/12/31/18:00:16.495000,(-3 -15 -1 2 18 -5 -7 1)
1969/12/31/18:00:16.495000,(3 -4 -46 -117 -22 1 5 -6)
1969/12/31/18:00:16.507000,(29 24 -20 -17 -17 -7 10 26)
1969/12/31/18:00:16.507000,(-44 -24 5 14 -23 -4 -14 -26)
1969/12/31/18:00:16.516000,(-34 -24 21 78 28 7 6 4)
1969/12/31/18:00:16.516000,(69 39 2 7 5 -18 -25 -9)
1969/12/31/18:00:16.531000,(-86 -48 -26 -85 -16 -18 -26 -43)
1969/12/31/18:00:16.531000,(100 31 -36 -115 -27 2 20 37)
1969/12/31/18:00:16.532000,(-14 14 -19 -7 -44 -20 -3 1)
1969/12/31/18:00:16.532000,(-72 -47 27 94 -1 -4 -11 -36)
1969/12/31/18:00:16.554000,(45 36 21 -22 37 19 18 29)
1969/12/31/18:00:16.554000,(-39 -23 -4 73 49 12 -6 -24)
1969/12/31/18:00:16.555000,(8 3 6 -33 -4 11 4 12)
1969/12/31/18:00:16.555000,(-6 -3 -6 2 1 4 10 12)
1969/12/31/18:00:16.567000,(21 15 16 41 -1 2 6 8)
1969/12/31/18:00:16.567000,(-71 -43 -4 -17 -7 -14 -11 -13)
1969/12/31/18:00:16.576000,(9 9 -2 -31 3 -1 -4 -17)
1969/12/31/18:00:16.576000,(-11 9 -25 -44 -33 -26 -30 -21)
1969/12/31/18:00:16.592000,(13 4 -12 -27 -22 -12 -25 -37)
1969/12/31/18:00:16.592000,(10 -1 0 -43 -18 -3 7 28)
1969/12/31/18:00:16.593000,(-14 -7 -17 21 30 -6 -13 -20)
1969/12/31/18:00:16.593000,(-21 -21 16 -23 -40 14 25 18)
1969/12/31/18:00:16.614000,(48 32 18 64 36 15 19 37)
1969/12/31/18:00:16.614000,(0 -16 -13 -17 -3 -15 -26 -39)
1969/12/31/18:00:16.615000,(-2 -8 20 56 9 6 5 4)
1969/12/31/18:00:16.615000,(-17 -3 12 29 35 9 4 0)
1969/12/31/18:00:16.627000,(-42 -49 -19 -34 -24 -8 -3 -4)
1969/12/31/18:00:16.627000,(26 22 -10 -12 -1 20 38 40)
1969/12/31/18:00:16.636000,(5 17 5 -8 1 -8 -20 -30)
1969/12/31/18:00:16.636000,(38 19 6 3 10 13 28 47)
1969/12/31/18:00:16.651000,(-48 -33 -23 -34 -29 -24 -37 -43)
1969/12/31/18:00:16.651000,(-53 -19 1 12 1 7 2 -22)
1969/12/31/18:00:16.653000,(4 0 7 12 -6 -24 -14 25)
1969/12/31/18:00:16.653000,(-1 4 -3 -10 -2 4 1 -2)
1969/12/31/18:00:16.674000,(33 21 8 0 17 32 50 48)
1969/12/31/18:00:16.674000,(0 1 -9 -34 -31 -31 -42 -40)
1969/12/31/18:00:16.675000,(9 6 16 53 23 22 25 18)
1969/12/31/18:00:16.675000,(-12 3 3 12 11 -2 -7 -14)
1969/12/31/18:00:16.687000,(-33 -25 -12 -40 -15 3 15 11)
1969/12/31/18:00:16.687000,(0 5 6 20 8 4 9 14)
1969/12/31/18:00:16.696000,(31 15 13 25 -10 -1 -1 0)
1969/12/31/18:00:16.696000,(-2 -12 -3 18 16 -3 -7 -3)
1969/12/31/18:00:16.711000,(23 18 -3 -7 -2 6 1 -4)
1969/12/31/18:00:16.711000,(-20 -2 -15 -32 -16 -21 -26 -30)
1969/12/31/18:00:16.718000,(-40 -26 -16 -34 -11 -10 -5 -6)
1969/12/31/18:00:16.718000,(16 19 -2 -5 0 11 14 11)
1969/12/31/18:00:16.733000,(-39 -37 -9 1 -3 -11 -17 -24)
1969/12/31/18:00:16.733000,(101 68 15 12 -4 -5 8 42)
1969/12/31/18:00:16.733000,(-41 -15 2 3 13 17 11 -5)
1969/12/31/18:00:16.734000,(5 -9 -10 -9 -1 -3 -11 -12)
1969/12/31/18:00:16.756000,(31 26 -1 -1 3 2 4 12)
1969/12/31/18:00:16.756000,(-17 -19 1 6 -17 -6 -3 2)
1969/12/31/18:00:16.756000,(-5 -14 17 22 10 9 7 2)
1969/12/31/18:00:16.756000,(-24 -14 -4 16 4 1 -2 -11)
1969/12/31/18:00:16.770000,(40 40 7 16 13 11 22 38)
1969/12/31/18:00:16.770000,(-49 -27 15 29 15 1 -14 -37)
1969/12/31/18:00:16.771000,(21 36 -9 -15 -10 -16 -14 -7)
1969/12/31/18:00:16.771000,(-2 2 -6 -16 -3 3 6 10)
1969/12/31/18:00:16.793000,(2 -10 -2 -2 -6 -9 -8 -7)
1969/12/31/18:00:16.793000,(-22 -14 4 4 -1 1 5 10)
1969/12/31/18:00:16.794000,(56 34 7 -14 -4 1 2 10)
1969/12/31/18:00:16.794000,(-59 -53 -21 -9 5 8 7 -8)
1969/12/31/18:00:16.815000,(27 15 -1 -3 -6 -2 -1 6)
1969/12/31/18:00:16.815000,(22 19 -7 -31 -2 7 6 8)
1969/12/31/18:00:16.816000,(-18 -26 -16 -22 1 0 -3 -4)
1969/12/31/18:00:16.816000,(-6 -9 8 13 10 -9 -11 -7)
1969/12/31/18:00:16.831000,(-43 -20 16 42 -7 -3 -7 -22)
1969/12/31/18:00:16.831000,(37 36 29 47 18 19 21 14)
1969/12/31/18:00:16.831000,(-25 -38 -4 -8 6 5 12 9)
1969/12/31/18:00:16.831000,(33 31 -8 -26 -14 -7 4 25)
1969/12/31/18:00:16.853000,(23 5 -7 -6 8 6 2 3)
1969/12/31/18:00:16.853000,(-9 -8 -14 -32 -13 -6 1 5)
1969/12/31/18:00:16.854000,(-27 -27 -6 23 3 2 -2 -10)
1969/12/31/18:00:16.854000,(37 37 14 -1 5 6 7 10)
1969/12/31/18:00:16.875000,(-26 -13 5 2 -3 -3 0 0)
1969/12/31/18:00:16.875000,(-1 -7 -12 0 -1 -2 -9 -14)
1969/12/31/18:00:16.876000,(5 2 -10 -36 -13 -9 -12 -14)
1969/12/31/18:00:16.876000,(-3 -5 -7 -12 -5 6 7 8)
1969/12/31/18:00:16.891000,(-23 -22 -8 -3 -7 -9 -12 -13)
1969/12/31/18:00:16.891000,(4 12 11 18 10 7 8 4)
1969/12/31/18:00:16.891000,(11 14 22 48 27 6 2 6)
1969/12/31/18:00:16.891000,(-26 -8 18 32 -3 -8 -16 -26)
1969/12/31/18:00:16.913000,(-88 -43 -7 -7 -20 -22 -19 -24)
1969/12/31/18:00:16.913000,(15 16 -6 -7 3 5 4 -3)
1969/12/31/18:00:16.914000,(0 -3 -10 -13 -10 -6 -5 -4)
1969/12/31/18:00:16.914000,(-10 -11 -12 -31 -8 -2 -4 -9)
1969/12/31/18:00:16.936000,(28 15 -11 -20 -10 7 9 18)
1969/12/31/18:00:16.936000,(-17 -2 10 26 6 -2 0 14)
1969/12/31/18:00:16.936000,(-18 -6 -8 -30 -9 -9 -15 -29)
1969/12/31/18:00:16.936000,(-6 -6 -7 -14 1 -6 -10 -10)
1969/12/31/18:00:16.952000,(-7 -7 -21 -61 -13 -1 0 -7)
1969/12/31/18:00:16.952000,(-2 -8 16 57 7 -7 -9 -2)
1969/12/31/18:00:16.953000,(16 19 23 63 26 19 17 20)
1969/12/31/18:00:16.953000,(34 43 8 10 0 -2 2 13)
1969/12/31/18:00:16.973000,(-21 1 3 -3 -2 -12 -26 -45)
1969/12/31/18:00:16.973000,(3 -2 -19 -41 -8 6 5 -7)
1969/12/31/18:00:16.974000,(14 -3 -10 -25 -15 -9 -4 6)
1969/12/31/18:00:16.974000,(-57 -38 -5 -1 -14 -16 -19 -30)
1969/12/31/18:00:16.996000,(60 22 1 11 20 21 32 52)
1969/12/31/18:00:16.996000,(8 -10 -6 -13 -7 -8 -13 -18)
1969/12/31/18:00:16.996000,(-24 -9 3 5 -2 -10 -14 -19)
1969/12/31/18:00:16.996000,(-14 -14 -9 1 -7 1 0 -7)
1969/12/31/18:00:17.011000,(-8 -7 7 10 8 -5 -4 -7)
1969/12/31/18:00:17.011000,(-35 -28 -2 -9 -4 -2 -3 -4)
1969/12/31/18:00:17.011000,(52 33 -3 -7 1 16 15 11)
1969/12/31/18:00:17.011000,(-5 -9 3 3 4 -4 -7 -6)
1969/12/31/18:00:17.033000,(6 13 29 41 13 6 2 -6)
1969/12/31/18:00:17.033000,(-11 -10 -5 13 -2 -7 -3 3)
1969/12/31/18:00:17.034000,(-17 -16 4 -10 7 12 16 21)
1969/12/31/18:00:17.034000,(49 56 -8 -26 -14 -5 -2 9)
1969/12/31/18:00:17.055000,(-35 -27 -16 -12 -6 -11 -16 -27)
1969/12/31/18:00:17.055000,(-40 -28 -4 -12 -6 -7 -10 -15)
1969/12/31/18:00:17.063000,(47 38 3 -2 2 9 21 40)
1969/12/31/18:00:17.063000,(-23 -26 0 1 0 -2 -3 -11)
1969/12/31/18:00:17.071000,(-25 -23 -1 6 3 3 5 3)
1969/12/31/18:00:17.071000,(43 14 3 4 10 13 14 27)
1969/12/31/18:00:17.071000,(-37 -29 -13 -10 -11 -16 -24 -35)
1969/12/31/18:00:17.071000,(7 2 14 16 5 7 8 13)
1969/12/31/18:00:17.093000,(19 14 -3 -5 -10 -12 -10 0)
1969/12/31/18:00:17.093000,(-63 -32 -8 2 2 1 -6 -33)
1969/12/31/18:00:17.094000,(30 26 -20 -52 0 15 28 33)
1969/12/31/18:00:17.094000,(-16 -16 5 11 -3 -5 -10 -18)
1969/12/31/18:00:17.115000,(6 12 29 81 14 0 0 0)
1969/12/31/18:00:17.115000,(10 10 12 18 13 0 4 10)
1969/12/31/18:00:17.116000,(12 19 -2 6 -9 -15 -14 -10)
1969/12/31/18:00:17.116000,(22 7 -7 -31 6 14 20 25)
1969/12/31/18:00:17.130000,(-5 -9 -26 -56 -21 -6 -7 -9)
1969/12/31/18:00:17.130000,(17 8 3 9 -2 -3 -4 3)
1969/12/31/18:00:17.131000,(-40 -33 1 5 4 2 -4 -15)
1969/12/31/18:00:17.131000,(42 31 -2 -8 -4 2 4 11)
1969/12/31/18:00:17.153000,(9 -6 10 13 7 0 -1 5)
1969/12/31/18:00:17.153000,(74 57 2 -19 -12 -3 5 21)
1969/12/31/18:00:17.154000,(-14 -7 0 6 -6 -15 -17 -4)
1969/12/31/18:00:17.154000,(-65 -39 -3 18 10 7 -7 -42)
1969/12/31/18:00:17.175000,(9 12 8 7 5 0 -5 -3)
1969/12/31/18:00:17.176000,(-9 -8 -22 -34 -16 -4 -2 -5)
1969/12/31/18:00:17.176000,(-3 -7 2 9 -11 -5 -1 2)
1969/12/31/18:00:17.176000,(17 11 18 50 12 -2 3 15)
1969/12/31/18:00:17.192000,(8 18 11 13 20 9 4 5)
1969/12/31/18:00:17.192000,(-23 -25 -3 -4 -4 -3 -4 -3)
1969/12/31/18:00:17.193000,(-3 1 -2 0 3 5 4 0)
1969/12/31/18:00:17.193000,(-16 -21 -14 -41 -18 -5 -4 -1)
1969/12/31/18:00:17.213000,(-3 -5 -7 -9 -12 -3 3 -1)
1969/12/31/18:00:17.213000,(5 5 3 13 2 1 4 7)
1969/12/31/18:00:17.214000,(51 26 16 21 9 9 13 28)
1969/12/31/18:00:17.214000,(-32 -21 -10 -27 -1 -8 -11 -15)
1969/12/31/18:00:17.235000,(68 37 -5 -6 -12 -3 7 30)
1969/12/31/18:00:17.235000,(-20 -7 -8 -10 -6 -5 -6 -16)
1969/12/31/18:00:17.236000,(-29 -13 4 13 -2 -12 -18 -24)
1969/12/31/18:00:17.236000,(1 -7 2 23 6 2 3 5)
1969/12/31/18:00:17.252000,(-6 -3 -3 -8 3 4 3 2)
1969/12/31/18:00:17.252000,(-9 -11 -15 -27 -10 -6 2 4)
1969/12/31/18:00:17.253000,(16 4 -21 -78 -66 -21 -4 3)
1969/12/31/18:00:17.253000,(6 6 9 30 18 1 4 7)
1969/12/31/18:00:17.273000,(-20 -3 24 78 62 27 5 -9)
1969/12/31/18:00:17.273000,(8 10 26 64 49 26 9 5)
1969/12/31/18:00:17.274000,(-20 -14 4 13 12 2 -5 -14)
1969/12/31/18:00:17.274000,(16 7 -13 -51 -35 -11 1 10)
1969/12/31/18:00:17.296000,(10 1 -20 -53 -33 -7 8 11)
1969/12/31/18:00:17.296000,(1 -5 -6 -10 -8 -4 2 11)
1969/12/31/18:00:17.297000,(-26 -6 4 4 9 3 -5 -24)
1969/12/31/18:00:17.297000,(-24 -24 -12 -31 -24 -14 -13 -11)
1969/12/31/18:00:17.311000,(-12 1 2 19 15 7 8 -10)
1969/12/31/18:00:17.311000,(-30 -5 7 2 -7 -11 -23 -32)
1969/12/31/18:00:17.311000,(17 -1 -1 18 12 5 5 17)
1969/12/31/18:00:17.311000,(6 10 9 12 9 4 4 0)
1969/12/31/18:00:17.333000,(-29 -24 -7 -27 -12 -4 -3 -6)
1969/12/31/18:00:17.333000,(47 30 -2 -5 -5 0 7 18)
1969/12/31/18:00:17.341000,(12 7 7 12 7 1 -1 2)
1969/12/31/18:00:17.341000,(10 11 -8 -18 13 11 13 14)
1969/12/31/18:00:17.355000,(-8 -6 -4 -11 -13 -3 2 7)
1969/12/31/18:00:17.355000,(-8 -10 7 17 -6 0 5 8)
1969/12/31/18:00:17.356000,(6 0 4 25 11 -6 -10 -9)
1969/12/31/18:00:17.356000,(-33 -5 15 22 19 16 15 4)
1969/12/31/18:00:17.371000,(-13 -3 -7 -20 -9 -7 -11 -26)
1969/12/31/18:00:17.371000,(48 6 -3 -21 -5 8 17 34)
1969/12/31/18:00:17.371000,(-29 -15 -6 1 1 -1 -8 -22)
1969/12/31/18:00:17.371000,(-14 -18 -10 0 -12 -10 -11 -5)
1969/12/31/18:00:17.393000,(13 8 -3 -10 -9 -7 -4 10)
1969/12/31/18:00:17.393000,(-36 -9 -5 -2 0 -3 -11 -27)
1969/12/31/18:00:17.394000,(-2 -6 -5 -20 -3 4 4 9)
1969/12/31/18:00:17.394000,(56 30 9 12 1 9 21 30)
1969/12/31/18:00:17.415000,(-9 0 -1 15 4 4 7 13)
1969/12/31/18:00:17.415000,(16 -1 -10 -46 -3 2 2 11)
1969/12/31/18:00:17.416000,(-15 5 16 43 11 1 1 -3)
1969/12/31/18:00:17.416000,(19 5 11 24 3 0 -1 4)
1969/12/31/18:00:17.431000,(-20 -16 -6 -12 -8 -11 -17 -23)
1969/12/31/18:00:17.431000,(-67 -46 -6 7 -4 1 -1 -17)
1969/12/31/18:00:17.431000,(101 85 14 0 16 18 36 72)
1969/12/31/18:00:17.431000,(-42 -27 -14 -10 -16 -17 -25 -30)
1969/12/31/18:00:17.453000,(56 24 7 1 13 15 19 29)
1969/12/31/18:00:17.453000,(-6 -6 -1 -6 -7 -8 -7 -9)
1969/12/31/18:00:17.454000,(-36 -32 -10 -4 -3 2 1 -14)
1969/12/31/18:00:17.454000,(0 2 -2 6 2 -3 -3 -4)
1969/12/31/18:00:17.476000,(-12 -4 -2 -11 -5 -4 -4 -9)
1969/12/31/18:00:17.476000,(26 16 -3 -5 -2 -5 -1 9)
1969/12/31/18:00:17.477000,(-53 -30 -5 5 1 -8 -22 -42)
1969/12/31/18:00:17.477000,(13 10 -3 -4 -6 -10 -11 -5)
1969/12/31/18:00:17.490000,(-47 -25 0 -1 0 4 -6 -24)
1969/12/31/18:00:17.490000,(-27 12 0 8 2 -2 -8 -19)
1969/12/31/18:00:17.498000,(18 -20 -14 -12 -10 -2 8 19)
1969/12/31/18:00:17.498000,(-34 -20 -2 -5 -6 -11 -18 -24)
1969/12/31/18:00:17.513000,(-2 3 -5 -2 -7 -10 -13 -12)
1969/12/31/18:00:17.513000,(16 -3 5 11 6 4 11 16)
1969/12/31/18:00:17.514000,(-40 -33 -11 -7 6 8 1 -15)
1969/12/31/18:00:17.514000,(50 39 5 2 3 10 12 19)
1969/12/31/18:00:17.544000,(14 -4 3 1 -2 0 8 15)
1969/12/31/18:00:17.544000,(4 5 4 3 -1 -3 -2 0)
1969/12/31/18:00:17.545000,(10 5 0 -9 -7 -6 -1 2)
1969/12/31/18:00:17.545000,(10 -2 2 3 6 5 9 12)
1969/12/31/18:00:17.550000,(-10 0 0 1 -2 -3 -6 -9)
1969/12/31/18:00:17.550000,(14 6 -11 -45 0 8 11 9)
1969/12/31/18:00:17.551000,(6 5 -7 -3 -8 -6 -5 -1)
1969/12/31/18:00:17.551000,(-25 -11 2 16 -1 -4 -6 -15)
1969/12/31/18:00:17.573000,(13 12 16 30 2 0 1 5)
1969/12/31/18:00:17.573000,(-3 3 15 30 18 7 3 0)
1969/12/31/18:00:17.574000,(8 8 8 -2 8 3 0 3)
1969/12/31/18:00:17.574000,(-3 -6 -16 -56 -21 -5 -2 2)
1969/12/31/18:00:17.596000,(2 -5 -13 -20 -12 -5 3 4)
1969/12/31/18:00:17.596000,(12 6 14 45 10 0 2 7)
1969/12/31/18:00:17.597000,(3 20 45 31 28 21 9 0)
1969/12/31/18:00:17.597000,(6 -1 -35 8 -4 -9 -4 -1)
1969/12/31/18:00:17.619000,(-4 -22 -33 -72 -18 -16 -5 -2)
1969/12/31/18:00:17.619000,(-26 -19 -27 -12 -13 -19 -18 -19)
1969/12/31/18:00:17.619000,(6 1 -7 24 1 1 1 1)
1969/12/31/18:00:17.619000,(-13 0 32 13 27 19 4 -4)
1969/12/31/18:00:17.633000,(15 17 18 14 1 13 11 13)
1969/12/31/18:00:17.633000,(11 6 11 -4 -7 -4 4 8)
1969/12/31/18:00:17.634000,(-5 -8 -19 -37 -15 -11 -9 -7)
1969/12/31/18:00:17.634000,(8 4 -3 5 -4 0 3 7)
1969/12/31/18:00:17.656000,(-7 1 9 15 9 3 -3 -7)
1969/12/31/18:00:17.656000,(4 7 7 26 14 10 4 1)
1969/12/31/18:00:17.657000,(1 1 13 16 0 2 -1 0)
1969/12/31/18:00:17.657000,(-8 -7 -1 2 -1 -6 -4 -7)
1969/12/31/18:00:17.670000,(0 -1 -1 -5 0 -3 -3 -1)
1969/12/31/18:00:17.670000,(-5 -7 -13 -24 -13 -7 -5 -2)
1969/12/31/18:00:17.678000,(-2 0 -5 -9 -3 1 1 -3)
1969/12/31/18:00:17.678000,(5 0 -9 -16 7 3 6 7)
1969/12/31/18:00:17.693000,(-2 -7 -8 29 -11 -5 -2 0)
1969/12/31/18:00:17.693000,(-4 -8 5 8 4 -5 -3 -5)
1969/12/31/18:00:17.694000,(-10 -2 -1 0 4 -8 -6 -8)
1969/12/31/18:00:17.694000,(4 15 41 11 -1 12 8 2)
1969/12/31/18:00:17.716000,(11 13 10 2 13 15 8 9)
1969/12/31/18:00:17.716000,(2 -9 -39 -10 -5 -5 -1 5)
1969/12/31/18:00:17.717000,(-8 -14 -13 -15 -15 -13 -7 -6)
1969/12/31/18:00:17.717000,(-2 1 9 5 0 -3 -2 -3)
1969/12/31/18:00:17.730000,(-1 2 7 13 0 1 2 0)
1969/12/31/18:00:17.730000,(5 0 -1 2 3 0 -1 -1)
1969/12/31/18:00:17.738000,(-1 -4 -5 -1 0 -5 -4 -1)
1969/12/31/18:00:17.738000,(-7 -3 -12 -31 -21 -4 -3 -4)
1969/12/31/18:00:17.753000,(-1 -3 0 28 9 0 -2 -2)
1969/12/31/18:00:17.753000,(-5 1 2 8 12 8 2 -2)
1969/12/31/18:00:17.754000,(13 15 14 -8 -5 1 5 7)
1969/12/31/18:00:17.754000,(-2 -6 -7 2 -4 -3 -1 -2)
1969/12/31/18:00:17.776000,(-1 0 6 2 6 6 4 0)
1969/12/31/18:00:17.776000,(1 -6 -28 -8 -6 -5 -1 0)
1969/12/31/18:00:17.777000,(-6 -9 -16 -28 -21 -10 -4 -4)
1969/12/31/18:00:17.777000,(-5 -4 8 21 3 -3 -4 -5)
1969/12/31/18:00:17.790000,(2 6 14 30 20 1 -2 1)
1969/12/31/18:00:17.790000,(-1 7 27 10 3 8 2 -1)
1969/12/31/18:00:17.798000,(8 7 -3 6 3 6 4 6)
1969/12/31/18:00:17.798000,(3 2 -9 -18 -7 3 2 3)
1969/12/31/18:00:17.821000,(1 -4 -20 -19 -1 6 0 0)
1969/12/31/18:00:17.821000,(-3 -6 -7 -10 -3 0 -4 -4)
1969/12/31/18:00:17.822000,(-1 11 12 -23 -9 -8 -5 -1)
1969/12/31/18:00:17.822000,(1 -1 -7 0 -2 -2 0 2)
1969/12/31/18:00:17.836000,(-4 -8 -16 -50 -14 -4 -5 -2)
1969/12/31/18:00:17.836000,(-2 6 7 19 0 5 -1 -2)
1969/12/31/18:00:17.837000,(3 8 27 22 24 15 7 0)
1969/12/31/18:00:17.837000,(4 6 10 29 18 6 1 0)
1969/12/31/18:00:17.850000,(-1 -1 -9 -13 -5 -1 2 1)
1969/12/31/18:00:17.850000,(0 1 7 -15 -7 3 5 2)
1969/12/31/18:00:17.858000,(-5 -13 -25 0 -6 -17 -8 -3)
1969/12/31/18:00:17.858000,(-7 -1 7 -6 -4 -7 -6 -7)
1969/12/31/18:00:17.873000,(-4 -3 -7 -28 -17 -7 -3 -4)
1969/12/31/18:00:17.873000,(3 -6 -3 -11 -11 -6 3 6)
1969/12/31/18:00:17.874000,(-4 10 22 33 22 3 0 -2)
1969/12/31/18:00:17.874000,(-1 -20 -41 15 10 1 -2 2)
1969/12/31/18:00:17.897000,(-6 -2 4 7 -2 -10 -8 -6)
1969/12/31/18:00:17.897000,(3 8 -2 -44 -11 -3 1 0)
1969/12/31/18:00:17.897000,(4 1 -7 -6 -18 2 2 3)
1969/12/31/18:00:17.897000,(3 9 23 3 6 8 7 4)
1969/12/31/18:00:17.918000,(4 8 12 14 6 2 -1 0)
1969/12/31/18:00:17.918000,(4 3 -2 18 6 4 0 4)
1969/12/31/18:00:17.919000,(0 -3 -12 -25 -6 0 0 0)
1969/12/31/18:00:17.919000,(-5 -6 -6 -24 -43 -17 -6 -6)
1969/12/31/18:00:17.933000,(2 0 -2 3 23 -5 5 5)
1969/12/31/18:00:17.933000,(-4 -2 8 12 6 15 5 -1)
1969/12/31/18:00:17.934000,(4 7 11 22 56 42 15 2)
1969/12/31/18:00:17.934000,(4 -4 -2 17 28 15 4 1)
1969/12/31/18:00:17.956000,(-9 -6 -1 10 -16 -18 -11 -8)
1969/12/31/18:00:17.956000,(-2 -2 2 -20 -28 -30 -11 -4)
1969/12/31/18:00:17.957000,(-4 -7 -13 -12 -32 -21 -6 1)
1969/12/31/18:00:17.957000,(-2 1 -9 4 -18 -11 -6 -1)
1969/12/31/18:00:17.957000,(3 4 6 4 4 0 1 1)
1969/12/31/18:00:17.957000,(-4 -4 -6 -5 -7 -5 -4 -3)
1969/12/31/18:00:17.964000,(-1 -3 -3 -4 -3 -3 0 -2)
1969/12/31/18:00:17.964000,(0 -2 -1 0 1 2 1 0)
1969/12/31/18:00:17.980000,(-1 -1 0 1 0 1 0 1)
1969/12/31/18:00:17.980000,(2 2 1 -5 -15 -2 -1 0)
1969/12/31/18:00:17.982000,(2 1 1 2 16 1 -1 0)
1969/12/31/18:00:17.982000,(1 1 1 0 -3 2 2 0)
1969/12/31/18:00:18.003000,(-1 -2 -1 3 6 1 -2 -2)
1969/12/31/18:00:18.003000,(-2 0 -1 0 -2 -2 -2 -2)
1969/12/31/18:00:18.005000,(-1 -1 -2 -2 -5 -2 0 -2)
1969/12/31/18:00:18.005000,(1 1 -2 -5 -3 -4 -2 2)
1969/12/31/18:00:18.018000,(-2 -1 -2 -2 -2 0 -2 0)
1969/12/31/18:00:18.018000,(3 1 3 4 5 3 2 2)
1969/12/31/18:00:18.020000,(-1 0 0 -1 -4 -2 -1 -2)
1969/12/31/18:00:18.020000,(-3 -1 1 0 3 -1 -1 -2)
1969/12/31/18:00:18.048000,(0 0 -3 -3 -3 -3 0 2)
1969/12/31/18:00:18.048000,(1 1 -1 2 2 0 0 1)
1969/12/31/18:00:18.050000,(0 -1 -3 -1 -1 0 1 1)
1969/12/31/18:00:18.050000,(-2 -2 0 1 -1 -3 -1 -2)
1969/12/31/18:00:18.079000,(-3 0 -3 -3 -2 -3 0 -3)
1969/12/31/18:00:18.079000,(-1 0 3 1 2 -1 0 -1)
1969/12/31/18:00:18.081000,(1 0 -2 1 -1 1 1 1)
1969/12/31/18:00:18.081000,(-3 -3 -4 0 -1 -1 -1 -3)
1969/12/31/18:00:18.082000,(0 2 1 -2 0 1 0 0)
1969/12/31/18:00:18.082000,(1 1 -1 2 2 -1 -1 -1)
1969/12/31/18:00:18.086000,(-3 -3 1 -1 -5 -3 -4 -3)
1969/12/31/18:00:18.086000,(0 -2 0 -2 -1 0 0 -1)
1969/12/31/18:00:18.100000,(3 0 -3 2 1 0 0 1)
1969/12/31/18:00:18.100000,(-1 -1 1 -4 -2 -2 -2 0)
1969/12/31/18:00:18.102000,(0 0 -1 0 1 1 -1 -1)
1969/12/31/18:00:18.102000,(1 1 1 0 -1 2 3 2)
1969/12/31/18:00:18.124000,(4 1 -3 4 3 0 -2 3)
1969/12/31/18:00:18.124000,(-5 -8 -8 -5 -3 -6 -4 -3)
1969/12/31/18:00:18.130000,(-5 -2 0 -7 -7 -6 -3 -6)
1969/12/31/18:00:18.130000,(-2 0 0 -1 -1 -1 -1 -2)
1969/12/31/18:00:18.138000,(1 4 12 0 0 4 6 3)
1969/12/31/18:00:18.138000,(3 0 -8 7 7 -1 0 2)
1969/12/31/18:00:18.144000,(-3 -6 -2 -3 -2 2 1 -1)
1969/12/31/18:00:18.144000,(4 3 -1 8 6 1 1 2)
1969/12/31/18:00:18.161000,(-3 -2 2 -2 -3 -1 -3 -3)
1969/12/31/18:00:18.161000,(-3 2 5 -14 -22 1 1 1)
1969/12/31/18:00:18.162000,(5 6 -3 -4 14 1 0 4)
1969/12/31/18:00:18.162000,(-3 -5 -3 7 -13 -8 -5 -3)
1969/12/31/18:00:18.184000,(-8 -7 -12 -5 14 -3 -4 -5)
1969/12/31/18:00:18.184000,(-7 -4 -1 -19 -17 -4 -3 -6)
1969/12/31/18:00:18.185000,(3 6 20 24 12 7 3 2)
1969/12/31/18:00:18.185000,(8 8 1 18 10 5 3 5)
1969/12/31/18:00:18.214000,(-1 -4 -8 -32 -16 -4 -1 -2)
1969/12/31/18:00:18.214000,(3 -4 -13 9 7 1 1 1)
1969/12/31/18:00:18.215000,(-3 3 14 14 -1 -6 -3 -3)
1969/12/31/18:00:18.215000,(-5 -4 -8 -7 -12 -10 -9 -4)
1969/12/31/18:00:18.221000,(3 1 11 -7 15 3 4 4)
1969/12/31/18:00:18.221000,(1 3 -7 -13 -3 1 2 -1)
1969/12/31/18:00:18.222000,(0 -7 -8 15 2 4 0 0)
1969/12/31/18:00:18.222000,(1 5 12 4 7 5 1 0)
1969/12/31/18:00:18.243000,(-3 -2 -8 -25 -16 -2 -3 -2)
1969/12/31/18:00:18.243000,(6 2 3 1 -2 2 3 6)
1969/12/31/18:00:18.245000,(4 8 5 -7 9 -8 -3 2)
1969/12/31/18:00:18.245000,(-3 -1 4 15 -3 0 -1 -2)
1969/12/31/18:00:18.257000,(-4 -7 6 73 22 10 4 1)
1969/12/31/18:00:18.257000,(-11 -9 -10 -5 5 1 -3 -7)
1969/12/31/18:00:18.266000,(-3 -4 -5 -31 -23 -7 -6 -4)
1969/12/31/18:00:18.266000,(5 5 6 -23 -10 -5 2 3)
1969/12/31/18:00:18.281000,(-2 -3 -18 -58 -50 -11 -3 -6)
1969/12/31/18:00:18.281000,(6 6 16 -53 18 1 2 4)
1969/12/31/18:00:18.283000,(-4 -7 -9 88 28 9 1 -2)
1969/12/31/18:00:18.283000,(-7 -2 5 15 32 8 -1 -4)
1969/12/31/18:00:18.304000,(-4 -3 5 21 -10 -8 -6 -5)
1969/12/31/18:00:18.304000,(4 -5 -33 -55 -35 -10 -2 3)
1969/12/31/18:00:18.309000,(2 -4 -16 -96 -34 -9 -1 3)
1969/12/31/18:00:18.309000,(5 6 11 14 -8 -4 1 2)
1969/12/31/18:00:18.317000,(4 4 9 -12 -7 5 1 1)
1969/12/31/18:00:18.317000,(-10 -5 11 83 50 10 1 -8)
1969/12/31/18:00:18.326000,(4 9 20 8 10 4 3 6)
1969/12/31/18:00:18.326000,(0 -2 13 110 50 8 0 0)
1969/12/31/18:00:18.340000,(-8 0 1 -14 2 -4 -4 -6)
1969/12/31/18:00:18.340000,(2 2 -7 -51 -46 -10 -2 0)
1969/12/31/18:00:18.348000,(5 -2 -25 -49 -22 -1 3 4)
1969/12/31/18:00:18.348000,(-11 -4 -18 -123 -51 -16 -6 -8)
1969/12/31/18:00:18.363000,(17 20 47 108 48 8 8 12)
1969/12/31/18:00:18.363000,(-7 -9 -8 -34 -9 0 -2 -4)
1969/12/31/18:00:18.365000,(-3 -10 -8 67 32 5 -3 -3)
1969/12/31/18:00:18.365000,(-11 -3 13 -18 -18 -2 -9 -9)
1969/12/31/18:00:18.377000,(-3 -6 -33 -50 6 -6 -5 -3)
1969/12/31/18:00:18.377000,(-4 -1 2 -34 -49 -13 -2 -2)
1969/12/31/18:00:18.386000,(6 3 -6 -15 -3 0 1 6)
1969/12/31/18:00:18.386000,(8 0 -9 26 62 17 6 6)
1969/12/31/18:00:18.401000,(-4 -3 6 1 -24 -5 -4 -3)
1969/12/31/18:00:18.401000,(7 14 16 50 18 5 6 5)
1969/12/31/18:00:18.402000,(-9 -11 -34 -98 -78 -24 -9 -9)
1969/12/31/18:00:18.402000,(1 -4 18 103 34 7 4 2)
1969/12/31/18:00:18.423000,(-6 3 19 4 40 3 -4 -5)
1969/12/31/18:00:18.423000,(2 2 4 53 36 8 1 2)
1969/12/31/18:00:18.424000,(-3 -1 -20 -82 -33 -8 3 -1)
1969/12/31/18:00:18.424000,(6 -1 -26 -28 -36 -12 1 3)
1969/12/31/18:00:18.437000,(-8 -15 -2 12 2 -4 -5 -5)
1969/12/31/18:00:18.437000,(-2 -2 10 3 -3 -3 -6 -4)
1969/12/31/18:00:18.446000,(0 4 11 30 20 4 2 -1)
1969/12/31/18:00:18.446000,(3 -3 -28 -93 -41 -6 1 2)
1969/12/31/18:00:18.461000,(5 2 -12 26 -6 5 2 3)
1969/12/31/18:00:18.461000,(4 8 21 27 23 7 2 5)
1969/12/31/18:00:18.462000,(-7 1 20 41 24 8 -4 -5)
1969/12/31/18:00:18.462000,(-2 -4 -13 -9 -16 -1 -1 -1)
1969/12/31/18:00:18.485000,(1 0 -7 -47 -17 -2 1 1)
1969/12/31/18:00:18.485000,(-1 -1 1 6 14 2 -1 -2)
1969/12/31/18:00:18.486000,(2 1 6 49 17 5 3 2)
1969/12/31/18:00:18.486000,(-3 -1 11 -9 -9 -3 -1 0)
1969/12/31/18:00:18.497000,(0 -1 -10 -3 0 -1 -1 -1)
1969/12/31/18:00:18.497000,(0 1 -11 -13 -11 -2 -2 -1)
1969/12/31/18:00:18.506000,(-2 1 4 -7 -2 1 -2 -2)
1969/12/31/18:00:18.506000,(-3 -1 -2 -8 3 0 -1 -2)
1969/12/31/18:00:18.521000,(2 3 0 8 0 1 2 3)
1969/12/31/18:00:18.521000,(1 -3 -4 2 2 -1 2 -1)
1969/12/31/18:00:18.522000,(1 1 10 17 6 1 -2 -2)
1969/12/31/18:00:18.522000,(2 0 0 4 5 1 0 -1)
1969/12/31/18:00:18.551000,(2 1 -6 -21 -11 -1 1 3)
1969/12/31/18:00:18.551000,(-1 0 1 0 -1 0 -1 -1)
1969/12/31/18:00:18.552000,(-2 -1 3 14 9 3 0 0)
1969/12/31/18:00:18.552000,(-1 0 -5 -10 -2 -3 -2 -1)
1969/12/31/18:00:18.557000,(0 0 -4 -13 -5 -2 -1 0)
1969/12/31/18:00:18.557000,(-1 -1 2 15 8 -1 -1 -2)
1969/12/31/18:00:18.566000,(-1 -1 0 4 1 1 1 -1)
1969/12/31/18:00:18.566000,(1 2 -3 -12 -4 0 1 1)
1969/12/31/18:00:18.580000,(-3 -2 1 -1 -1 -1 1 -1)
1969/12/31/18:00:18.580000,(-3 -2 0 10 3 0 -3 -3)
1969/12/31/18:00:18.587000,(6 6 3 -9 -3 3 3 4)
1969/12/31/18:00:18.587000,(-4 -1 1 -4 1 1 -1 -3)
1969/12/31/18:00:18.603000,(0 -1 -2 -5 -1 1 -3 0)
1969/12/31/18:00:18.603000,(-4 -3 -5 -9 -5 -4 -1 -4)
1969/12/31/18:00:18.605000,(0 0 -1 -4 -1 0 1 2)
1969/12/31/18:00:18.605000,(-1 0 3 5 5 -1 -1 -2)
1969/12/31/18:00:18.617000,(-1 -2 1 12 2 -3 -1 -2)
1969/12/31/18:00:18.617000,(1 2 1 1 -1 2 0 3)
1969/12/31/18:00:18.633000,(-2 0 0 -4 0 1 -3 -3)
1969/12/31/18:00:18.633000,(-2 0 -2 -6 0 3 0 0)
1969/12/31/18:00:18.640000,(-2 0 -1 -1 -1 -4 -1 -1)
1969/12/31/18:00:18.640000,(-6 -7 -5 -16 -12 -6 -3 -5)
1969/12/31/18:00:18.654000,(-3 -1 4 29 6 -2 3 0)
1969/12/31/18:00:18.654000,(5 0 -5 -11 0 4 4 3)
1969/12/31/18:00:18.663000,(3 1 6 23 12 -1 -6 0)
1969/12/31/18:00:18.663000,(2 0 0 -4 -4 5 6 5)
1969/12/31/18:00:18.665000,(-2 -2 -4 -13 3 -2 -4 -3)
1969/12/31/18:00:18.665000,(-4 -1 1 8 -10 -8 -9 -8)
1969/12/31/18:00:18.677000,(-1 -1 -5 -6 -2 -5 -4 -3)
1969/12/31/18:00:18.677000,(4 2 1 5 -9 -2 0 5)
1969/12/31/18:00:18.686000,(-4 -3 -5 -37 -3 -1 -3 -3)
1969/12/31/18:00:18.686000,(1 2 8 43 4 6 7 5)
1969/12/31/18:00:18.700000,(-2 0 -1 -15 -6 1 1 -3)
1969/12/31/18:00:18.700000,(3 3 5 18 10 1 0 -2)
1969/12/31/18:00:18.707000,(4 2 5 10 3 5 4 2)
1969/12/31/18:00:18.707000,(0 -4 -7 -27 -5 -6 1 3)
1969/12/31/18:00:18.723000,(3 0 0 -9 -5 -1 3 1)
1969/12/31/18:00:18.723000,(-13 -9 -6 -14 -6 -12 -16 -17)
1969/12/31/18:00:18.725000,(9 7 9 33 14 7 10 12)
1969/12/31/18:00:18.725000,(-7 -5 -3 -5 5 -1 -4 -3)
1969/12/31/18:00:18.737000,(14 7 0 -3 -7 -7 -2 9)
1969/12/31/18:00:18.737000,(-8 -7 -28 -63 -21 -5 -3 -8)
1969/12/31/18:00:18.769000,(0 1 12 24 3 -3 -1 1)
1969/12/31/18:00:18.769000,(-5 2 32 70 26 4 -4 -7)
1969/12/31/18:00:18.770000,(0 4 4 6 7 9 6 -1)
1969/12/31/18:00:18.770000,(6 3 -3 -15 -3 -4 -2 7)
1969/12/31/18:00:18.771000,(-22 -13 -17 -32 -17 -6 -3 -8)
1969/12/31/18:00:18.771000,(-2 -7 -9 -15 -11 -8 -5 -3)
1969/12/31/18:00:18.783000,(-18 -9 -6 -7 -6 -11 -18 -26)
1969/12/31/18:00:18.783000,(2 9 10 21 11 6 5 1)
1969/12/31/18:00:18.785000,(26 7 4 1 0 2 15 29)
1969/12/31/18:00:18.785000,(-27 -22 -26 -38 -26 -26 -29 -31)
1969/12/31/18:00:18.797000,(2 3 3 7 4 7 8 7)
1969/12/31/18:00:18.797000,(2 -1 -8 -34 -1 4 3 1)
1969/12/31/18:00:18.806000,(-11 -6 11 43 -4 -6 -9 -10)
1969/12/31/18:00:18.806000,(19 18 19 31 21 17 19 19)
1969/12/31/18:00:18.820000,(0 -3 -1 9 2 1 0 1)
1969/12/31/18:00:18.820000,(-4 -5 1 5 -5 -13 -13 -6)
1969/12/31/18:00:18.827000,(0 -2 -13 -42 -12 0 -2 -2)
1969/12/31/18:00:18.827000,(2 -3 -21 -50 -16 -3 1 1)
1969/12/31/18:00:18.843000,(-11 0 9 33 7 7 3 -4)
1969/12/31/18:00:18.843000,(7 4 21 47 14 2 2 5)
1969/12/31/18:00:18.844000,(18 5 -4 -2 -1 -2 3 7)
1969/12/31/18:00:18.845000,(16 13 5 -7 2 3 2 8)
1969/12/31/18:00:18.857000,(-57 -39 -22 -35 -23 -30 -35 -49)
1969/12/31/18:00:18.857000,(-3 -6 -4 6 2 3 5 15)
1969/12/31/18:00:18.866000,(20 12 -2 2 -1 -2 -1 4)
1969/12/31/18:00:18.866000,(0 -1 -5 -12 -4 0 2 1)
1969/12/31/18:00:18.880000,(15 11 -4 -18 -2 9 11 19)
1969/12/31/18:00:18.880000,(-12 -5 -11 -11 -14 -1 0 -6)
1969/12/31/18:00:18.887000,(-9 -8 -13 -8 0 -4 -4 -8)
1969/12/31/18:00:18.887000,(-2 4 38 83 25 6 1 1)
1969/12/31/18:00:18.903000,(-1 6 26 64 30 6 -1 -2)
1969/12/31/18:00:18.903000,(3 -1 -2 2 2 3 2 -1)
1969/12/31/18:00:18.904000,(-4 -4 -15 -41 -12 -1 -2 -1)
1969/12/31/18:00:18.904000,(-7 -3 -18 -42 -19 -4 -3 -9)
1969/12/31/18:00:18.917000,(33 15 1 -8 1 11 21 36)
1969/12/31/18:00:18.917000,(-7 -5 -3 -8 -4 -7 -9 -7)
1969/12/31/18:00:18.925000,(-8 -2 -1 -17 -5 2 -3 -9)
1969/12/31/18:00:18.926000,(-5 -4 2 21 6 -1 0 -2)
1969/12/31/18:00:18.940000,(-4 -6 -12 -37 -13 -1 2 2)
1969/12/31/18:00:18.940000,(27 15 14 34 18 13 9 11)
1969/12/31/18:00:18.947000,(-13 -6 0 7 -1 -4 -7 -10)
1969/12/31/18:00:18.947000,(8 3 -11 -25 -14 3 8 8)
1969/12/31/18:00:18.963000,(-9 -9 1 25 13 2 -4 -7)
1969/12/31/18:00:18.963000,(-4 5 8 25 5 4 5 1)
1969/12/31/18:00:18.964000,(-12 -8 4 10 18 -7 -14 -16)
1969/12/31/18:00:18.964000,(0 -5 -18 -55 -39 -10 -1 2)
1969/12/31/18:00:18.986000,(10 5 1 4 0 -3 6 8)
1969/12/31/18:00:18.986000,(-5 -1 5 17 13 4 2 -4)
1969/12/31/18:00:18.987000,(-6 0 10 16 19 9 -2 -4)
1969/12/31/18:00:18.987000,(5 2 -11 -22 2 2 3 6)
1969/12/31/18:00:19.000000,(-1 -2 -2 -3 -14 -1 -3 -1)
1969/12/31/18:00:19.000000,(3 4 7 13 3 -2 1 1)
1969/12/31/18:00:19.007000,(-4 -7 -2 -9 -10 -1 0 -3)
1969/12/31/18:00:19.007000,(2 3 4 3 9 5 7 8)
1969/12/31/18:00:19.023000,(-10 -4 -10 -6 -5 -3 -8 -14)
1969/12/31/18:00:19.023000,(14 1 -21 -37 -9 -1 2 5)
1969/12/31/18:00:19.025000,(-6 -1 20 46 11 3 3 -3)
1969/12/31/18:00:19.025000,(-23 -7 9 19 10 -3 -8 -11)
1969/12/31/18:00:19.045000,(3 -6 -8 -13 -13 -14 -17 -16)
1969/12/31/18:00:19.045000,(-17 -6 -6 -18 -7 -3 -4 -11)
1969/12/31/18:00:19.046000,(33 4 -9 -18 -11 3 8 27)
1969/12/31/18:00:19.046000,(-8 1 5 6 21 4 3 -1)
1969/12/31/18:00:19.059000,(-4 0 -3 -16 -25 -7 0 2)
1969/12/31/18:00:19.059000,(1 -2 -1 -5 -8 -3 1 1)
1969/12/31/18:00:19.067000,(-7 -2 -6 -26 -17 -4 -3 -8)
1969/12/31/18:00:19.067000,(9 2 4 23 16 4 4 7)
1969/12/31/18:00:19.082000,(6 4 4 5 31 15 12 9)
1969/12/31/18:00:19.082000,(3 5 14 30 24 14 2 1)
1969/12/31/18:00:19.083000,(-1 4 7 18 11 12 5 0)
1969/12/31/18:00:19.083000,(2 -5 -7 -27 -38 -13 -5 -1)
1969/12/31/18:00:19.105000,(13 6 -17 -63 -17 -4 3 7)
1969/12/31/18:00:19.105000,(-11 -5 6 47 17 -2 -3 -4)
1969/12/31/18:00:19.113000,(-9 -1 7 21 8 0 0 -2)
1969/12/31/18:00:19.113000,(40 16 3 -3 -4 -1 3 19)
1969/12/31/18:00:19.119000,(-10 -6 -5 -9 -15 -8 -6 -9)
1969/12/31/18:00:19.119000,(0 3 -1 -20 -10 -3 3 1)
1969/12/31/18:00:19.127000,(6 -2 -6 -4 0 -2 1 5)
1969/12/31/18:00:19.127000,(-7 0 4 5 19 6 1 -4)
1969/12/31/18:00:19.142000,(1 -1 1 1 -12 1 1 1)
1969/12/31/18:00:19.142000,(2 -5 -14 -44 -17 -4 0 4)
1969/12/31/18:00:19.143000,(-5 2 4 18 -2 -8 -7 -10)
1969/12/31/18:00:19.143000,(-2 0 6 23 15 3 1 1)
1969/12/31/18:00:19.165000,(-22 -2 14 30 25 12 6 -6)
1969/12/31/18:00:19.165000,(-4 -3 -4 -9 -5 -5 -8 -7)
1969/12/31/18:00:19.166000,(1 -5 -28 -86 -60 -20 -5 -1)
1969/12/31/18:00:19.166000,(4 1 5 24 6 3 0 1)
1969/12/31/18:00:19.188000,(1 1 18 63 52 19 5 1)
1969/12/31/18:00:19.188000,(6 5 12 22 13 11 3 0)
1969/12/31/18:00:19.189000,(-1 3 2 2 3 4 4 6)
1969/12/31/18:00:19.189000,(-5 -5 -12 -38 -21 -11 -6 -6)
1969/12/31/18:00:19.203000,(-2 -4 -9 -5 -9 -11 -2 1)
1969/12/31/18:00:19.203000,(9 2 -2 -7 -17 -5 -1 1)
1969/12/31/18:00:19.203000,(0 4 4 -9 8 3 0 2)
1969/12/31/18:00:19.203000,(-11 -9 -4 8 -4 -8 -13 -18)
1969/12/31/18:00:19.225000,(12 11 8 1 8 12 15 16)
1969/12/31/18:00:19.225000,(-13 -10 -8 -8 -2 -6 -2 -1)
1969/12/31/18:00:19.225000,(13 8 2 9 7 4 1 -2)
1969/12/31/18:00:19.225000,(-8 -4 -2 -6 -6 0 -1 -2)
1969/12/31/18:00:19.239000,(22 8 2 -2 3 2 3 6)
1969/12/31/18:00:19.239000,(-4 -7 -1 14 2 -5 -6 -4)
1969/12/31/18:00:19.247000,(-23 -7 4 16 -3 -4 -3 -6)
1969/12/31/18:00:19.248000,(9 3 -3 -11 3 6 8 7)
1969/12/31/18:00:19.263000,(10 2 -5 -17 -11 -2 -2 3)
1969/12/31/18:00:19.263000,(-6 -7 -1 -4 0 -1 2 3)
1969/12/31/18:00:19.264000,(-2 2 1 28 13 -1 -8 -13)
1969/12/31/18:00:19.264000,(-2 -3 -3 0 -5 -1 1 -1)
1969/12/31/18:00:19.285000,(-5 0 -4 -22 -12 0 4 7)
1969/12/31/18:00:19.285000,(3 1 -2 -8 1 2 0 -5)
1969/12/31/18:00:19.285000,(-41 -26 -3 1 0 -4 -3 -7)
1969/12/31/18:00:19.286000,(26 12 2 6 3 2 -1 4)
1969/12/31/18:00:19.315000,(-18 -13 -5 0 -11 -11 -13 -17)
1969/12/31/18:00:19.316000,(-65 -37 -4 6 13 -2 -4 -11)
1969/12/31/18:00:19.316000,(104 59 3 11 -9 6 13 31)
1969/12/31/18:00:19.316000,(-19 -4 2 1 0 -2 -2 -8)
1969/12/31/18:00:19.322000,(11 4 -4 -1 4 3 6 7)
1969/12/31/18:00:19.322000,(5 -4 -3 -5 -8 -7 -9 -8)
1969/12/31/18:00:19.323000,(-29 -14 -13 -36 -4 2 2 -4)
1969/12/31/18:00:19.323000,(-53 -31 4 27 7 -8 -17 -24)
1969/12/31/18:00:19.345000,(102 74 25 29 16 23 33 60)
1969/12/31/18:00:19.345000,(-19 -7 -2 5 1 -2 -4 -14)
1969/12/31/18:00:19.346000,(-24 -8 -3 -8 -7 -4 -3 -6)
1969/12/31/18:00:19.346000,(32 15 1 -16 -7 2 2 6)
1969/12/31/18:00:19.359000,(-54 -48 -8 -5 -7 -13 -10 -11)
1969/12/31/18:00:19.359000,(74 58 9 14 0 2 4 14)
1969/12/31/18:00:19.367000,(-22 -25 -4 7 3 -9 -14 -15)
1969/12/31/18:00:19.367000,(-25 3 -2 -10 5 16 21 6)
1969/12/31/18:00:19.382000,(-2 11 -2 -9 -3 -2 -1 2)
1969/12/31/18:00:19.382000,(-7 -8 -7 -16 -12 -10 -9 -11)
1969/12/31/18:00:19.383000,(-17 -25 -4 6 5 -1 -9 -18)
1969/12/31/18:00:19.383000,(-19 -12 -3 10 7 -3 -2 -3)
1969/12/31/18:00:19.405000,(57 36 16 22 -7 11 20 33)
1969/12/31/18:00:19.405000,(-14 -8 0 11 14 -5 -7 -11)
1969/12/31/18:00:19.406000,(3 7 3 -37 -20 -6 -1 7)
1969/12/31/18:00:19.406000,(10 1 -2 18 5 -4 -4 -1)
1969/12/31/18:00:19.419000,(-34 -24 -13 4 11 -9 -15 -21)
1969/12/31/18:00:19.419000,(13 7 6 3 -1 10 9 11)
1969/12/31/18:00:19.427000,(3 3 -8 -40 -8 -6 -8 -7)
1969/12/31/18:00:19.427000,(5 5 5 15 -5 -3 -2 1)
1969/12/31/18:00:19.442000,(-59 -43 0 14 -4 -15 -22 -30)
1969/12/31/18:00:19.442000,(34 25 4 4 9 14 17 28)
1969/12/31/18:00:19.443000,(-36 -15 -11 5 8 2 -6 -20)
1969/12/31/18:00:19.443000,(19 3 -13 -53 -20 -2 2 7)
1969/12/31/18:00:19.465000,(-20 -16 -22 -53 -8 -11 -12 -16)
1969/12/31/18:00:19.465000,(1 -7 0 24 -16 -7 -1 5)
1969/12/31/18:00:19.465000,(-9 10 25 62 24 7 3 -2)
1969/12/31/18:00:19.465000,(18 7 10 20 13 1 2 19)
1969/12/31/18:00:19.479000,(-1 -11 -43 -60 -24 -1 -1 -9)
1969/12/31/18:00:19.479000,(8 9 27 57 2 7 8 10)
1969/12/31/18:00:19.487000,(6 3 24 110 24 3 -1 4)
1969/12/31/18:00:19.487000,(4 6 12 26 19 1 -3 -1)
1969/12/31/18:00:19.510000,(-21 -10 3 -12 0 -3 -4 -11)
1969/12/31/18:00:19.510000,(5 0 -18 -39 -10 -4 -2 -1)
1969/12/31/18:00:19.511000,(-13 -13 -5 -24 -11 0 1 2)
1969/12/31/18:00:19.511000,(53 30 -12 -35 -13 -3 -3 9)
1969/12/31/18:00:19.525000,(-11 -2 1 -8 -3 1 -1 -7)
1969/12/31/18:00:19.525000,(-11 -9 -7 -43 -15 -2 3 -3)
1969/12/31/18:00:19.525000,(22 11 7 22 12 3 10 13)
1969/12/31/18:00:19.525000,(-17 -10 -4 -13 -3 2 1 -5)
1969/12/31/18:00:19.541000,(4 5 5 5 -5 -5 -4 -2)
1969/12/31/18:00:19.541000,(-7 -6 5 19 9 -1 -5 -2)
1969/12/31/18:00:19.547000,(38 15 -16 -36 -6 -1 5 17)
1969/12/31/18:00:19.547000,(-35 -10 4 -7 1 9 1 -19)
1969/12/31/18:00:19.563000,(-42 -31 9 49 6 -6 -10 -17)
1969/12/31/18:00:19.563000,(66 66 13 1 8 7 10 27)
1969/12/31/18:00:19.563000,(-53 -26 -21 -32 -18 -14 -17 -31)
1969/12/31/18:00:19.563000,(-19 -14 -8 0 -6 -5 0 4)
1969/12/31/18:00:19.593000,(33 13 15 20 23 5 1 8)
1969/12/31/18:00:19.593000,(-25 -22 -15 -32 -26 -5 3 4)
1969/12/31/18:00:19.594000,(29 12 3 -3 1 1 1 8)
1969/12/31/18:00:19.594000,(9 7 7 27 9 -2 -7 -7)
1969/12/31/18:00:19.599000,(-15 -6 -4 -4 -4 -3 -3 -8)
1969/12/31/18:00:19.599000,(-21 -15 -6 -38 -14 -9 -11 -16)
1969/12/31/18:00:19.607000,(22 23 16 34 22 16 17 17)
1969/12/31/18:00:19.607000,(-12 -16 6 3 1 1 4 11)
1969/12/31/18:00:19.622000,(15 8 -10 -14 -14 -10 -11 -8)
1969/12/31/18:00:19.623000,(15 3 0 7 7 3 2 5)
1969/12/31/18:00:19.623000,(-14 -2 2 -3 -5 -5 -4 -6)
1969/12/31/18:00:19.623000,(5 12 0 -1 -1 -2 2 0)
1969/12/31/18:00:19.645000,(12 -1 -7 -4 2 9 12 20)
1969/12/31/18:00:19.645000,(-3 -9 0 3 1 -2 -1 -2)
1969/12/31/18:00:19.645000,(-10 -2 3 -3 -2 -1 -2 -10)
1969/12/31/18:00:19.645000,(-38 -18 -5 7 -5 -9 -10 -13)
1969/12/31/18:00:19.668000,(57 47 14 7 4 13 23 28)
1969/12/31/18:00:19.668000,(-39 -34 -10 -1 -3 -16 -28 -30)
1969/12/31/18:00:19.669000,(7 -6 -10 -5 5 11 17 21)
1969/12/31/18:00:19.669000,(-66 -29 -2 -3 0 8 -2 -28)
1969/12/31/18:00:19.682000,(72 50 11 2 -4 6 19 51)
1969/12/31/18:00:19.682000,(-44 -18 -5 1 3 0 -6 -19)
1969/12/31/18:00:19.683000,(51 42 4 -4 -4 0 9 25)
1969/12/31/18:00:19.683000,(1 -18 -13 -29 -21 -12 -15 -9)
1969/12/31/18:00:19.705000,(-27 -13 -4 7 22 2 -4 -13)
1969/12/31/18:00:19.705000,(7 7 13 28 5 3 4 2)
1969/12/31/18:00:19.706000,(4 0 -4 -9 -19 -9 -9 -2)
1969/12/31/18:00:19.706000,(20 13 2 3 6 11 19 18)
1969/12/31/18:00:19.719000,(-16 -3 -6 -4 -6 -11 -18 -19)
1969/12/31/18:00:19.719000,(-31 -13 0 -4 7 0 -3 -11)
1969/12/31/18:00:19.727000,(-76 -70 -9 -8 -5 -9 -11 -21)
1969/12/31/18:00:19.727000,(109 79 16 7 5 9 12 31)
1969/12/31/18:00:19.742000,(1 -1 0 2 1 5 8 6)
1969/12/31/18:00:19.743000,(-23 -17 -9 -3 0 -3 -3 -12)
1969/12/31/18:00:19.743000,(35 13 1 -3 1 2 5 23)
1969/12/31/18:00:19.743000,(-34 -20 0 -1 -9 -11 -8 -12)
1969/12/31/18:00:19.765000,(-6 -5 1 -1 -5 1 -2 -8)
1969/12/31/18:00:19.765000,(41 22 -4 -7 9 19 27 33)
1969/12/31/18:00:19.766000,(13 11 10 19 8 6 4 10)
1969/12/31/18:00:19.766000,(-75 -49 -8 12 2 -10 -15 -20)
1969/12/31/18:00:19.788000,(-8 7 5 7 -10 -17 -33 -47)
1969/12/31/18:00:19.788000,(13 6 1 -5 -6 -1 4 11)
1969/12/31/18:00:19.789000,(20 23 0 -13 1 3 -1 -13)
1969/12/31/18:00:19.789000,(28 9 3 1 3 9 16 41)
1969/12/31/18:00:19.802000,(-45 -28 -4 -1 -9 -7 -10 -20)
1969/12/31/18:00:19.802000,(-3 -2 -2 -4 -5 -6 -8 -4)
1969/12/31/18:00:19.803000,(-9 0 -3 -5 3 4 3 2)
1969/12/31/18:00:19.803000,(6 0 -6 -4 1 9 11 6)
1969/12/31/18:00:19.825000,(-9 -4 3 5 9 10 15 17)
1969/12/31/18:00:19.825000,(-15 -8 0 2 -5 -10 -13 -11)
1969/12/31/18:00:19.825000,(8 2 -2 -11 -8 -5 -2 -2)
1969/12/31/18:00:19.825000,(4 -2 -8 -1 -2 -5 -6 -10)
1969/12/31/18:00:19.848000,(7 -4 1 -4 0 3 7 11)
1969/12/31/18:00:19.848000,(-5 5 3 9 5 7 12 16)
1969/12/31/18:00:19.849000,(22 8 2 2 -4 -7 -9 -6)
1969/12/31/18:00:19.849000,(14 19 0 -8 -9 -9 -9 -6)
1969/12/31/18:00:19.871000,(-21 -19 -3 -3 0 6 6 -6)
1969/12/31/18:00:19.871000,(37 12 7 12 6 7 17 34)
1969/12/31/18:00:19.871000,(-34 -23 -11 -8 -5 -5 -3 -10)
1969/12/31/18:00:19.871000,(35 31 12 2 -1 -9 -13 -4)
1969/12/31/18:00:19.885000,(-27 -10 -8 -2 -5 -9 -12 -15)
1969/12/31/18:00:19.885000,(7 4 -6 -23 -9 0 -3 -12)
1969/12/31/18:00:19.886000,(23 20 5 12 9 10 12 19)
1969/12/31/18:00:19.886000,(-14 -11 4 13 5 0 -3 -11)
1969/12/31/18:00:19.908000,(-2 -2 -2 -4 7 1 4 5)
1969/12/31/18:00:19.908000,(3 -3 2 4 -10 0 -4 -6)
1969/12/31/18:00:19.909000,(-16 -3 11 21 1 -3 -6 -13)
1969/12/31/18:00:19.909000,(-15 -18 -7 3 10 3 3 3)
1969/12/31/18:00:19.922000,(18 34 10 13 9 15 14 12)
1969/12/31/18:00:19.922000,(25 -2 -2 -12 7 1 0 8)
1969/12/31/18:00:19.923000,(23 0 -20 -30 -19 -16 -16 -2)
1969/12/31/18:00:19.923000,(-54 -15 5 2 -6 1 -3 -25)
1969/12/31/18:00:19.945000,(11 6 -3 -7 -3 -9 -5 0)
1969/12/31/18:00:19.945000,(-11 -5 -5 -5 3 2 -2 -3)
1969/12/31/18:00:19.946000,(-22 -7 2 3 -1 -3 -3 -8)
1969/12/31/18:00:19.946000,(24 -3 -3 -3 -5 -5 -2 7)
1969/12/31/18:00:19.968000,(7 9 3 5 4 7 8 1)
1969/12/31/18:00:19.968000,(-18 -3 7 15 5 2 5 -3)
1969/12/31/18:00:19.969000,(-14 -14 -2 -4 0 1 -1 -7)
1969/12/31/18:00:19.969000,(5 6 -5 -4 3 4 4 0)
1969/12/31/18:00:19.982000,(-20 -27 -3 -3 -10 -10 -11 -10)
1969/12/31/18:00:19.982000,(8 21 11 17 11 10 16 16)
1969/12/31/18:00:19.983000,(-60 -25 -6 -5 -2 -9 -14 -14)
1969/12/31/18:00:19.983000,(-53 -29 -7 -4 0 3 -5 -32)
1969/12/31/18:00:20.005000,(-11 6 -6 -6 -9 -9 -11 -13)
1969/12/31/18:00:20.005000,(41 29 14 7 12 19 35 49)
1969/12/31/18:00:20.006000,(-37 -32 -14 -9 -5 -15 -24 -31)
1969/12/31/18:00:20.006000,(18 10 -1 1 4 7 9 14)
1969/12/31/18:00:20.028000,(6 -3 -1 8 -5 -10 -10 -3)
1969/12/31/18:00:20.028000,(-35 -40 -9 -17 -13 -11 -14 -29)
1969/12/31/18:00:20.029000,(45 48 20 17 18 27 29 26)
1969/12/31/18:00:20.029000,(34 10 4 -7 -8 -7 -4 19)
1969/12/31/18:00:20.043000,(12 -10 -7 2 10 12 9 8)
1969/12/31/18:00:20.043000,(-17 -10 -7 -3 -6 -11 -18 -23)
1969/12/31/18:00:20.043000,(9 -3 0 -8 -8 -2 6 7)
1969/12/31/18:00:20.043000,(10 8 -5 -16 2 -5 -3 1)
1969/12/31/18:00:20.065000,(-1 -1 3 8 -6 -2 -1 0)
1969/12/31/18:00:20.065000,(-5 3 2 27 8 -5 -7 -8)
1969/12/31/18:00:20.065000,(-53 -25 6 18 10 3 -5 -24)
1969/12/31/18:00:20.065000,(78 41 10 7 10 21 36 69)
1969/12/31/18:00:20.088000,(1 -6 -7 -22 -4 -3 -4 -5)
1969/12/31/18:00:20.088000,(1 0 -11 -14 -10 -6 -8 -6)
1969/12/31/18:00:20.089000,(0 -5 -3 -13 -4 4 4 1)
1969/12/31/18:00:20.089000,(39 31 3 6 -5 -6 1 10)
1969/12/31/18:00:20.102000,(11 4 6 12 5 3 6 9)
1969/12/31/18:00:20.102000,(21 12 0 2 -4 -9 -14 -6)
1969/12/31/18:00:20.103000,(15 13 1 0 1 4 8 16)
1969/12/31/18:00:20.103000,(-33 -31 -13 -4 5 7 4 -3)
1969/12/31/18:00:20.125000,(-5 1 2 -1 -3 -5 -10 -9)
1969/12/31/18:00:20.125000,(-15 -6 -12 -30 -7 -5 -6 -13)
1969/12/31/18:00:20.126000,(7 0 -7 -24 -20 -8 -6 3)
1969/12/31/18:00:20.126000,(-20 -10 7 30 5 -6 -11 -19)
1969/12/31/18:00:20.148000,(-16 -2 10 38 12 -1 -2 -9)
1969/12/31/18:00:20.148000,(17 -3 15 16 15 6 5 19)
1969/12/31/18:00:20.149000,(88 79 -1 -13 -3 -2 9 25)
1969/12/31/18:00:20.149000,(-55 -29 -16 -33 -18 -10 -16 -36)
1969/12/31/18:00:20.162000,(-9 -12 -11 -33 -32 -11 -5 -3)
1969/12/31/18:00:20.163000,(-5 0 -9 -21 -7 -7 -2 -4)
1969/12/31/18:00:20.163000,(2 -8 3 24 18 8 7 11)
1969/12/31/18:00:20.163000,(-3 2 10 19 21 6 -5 -9)
1969/12/31/18:00:20.186000,(13 12 3 5 9 5 1 5)
1969/12/31/18:00:20.186000,(-20 -8 -1 0 -4 1 -2 -7)
1969/12/31/18:00:20.186000,(-6 -6 -3 -16 -14 -5 -3 -3)
1969/12/31/18:00:20.186000,(-4 -6 -6 1 -4 -7 -6 -4)
1969/12/31/18:00:20.208000,(2 -3 6 4 7 8 11 18)
1969/12/31/18:00:20.208000,(8 9 -3 -3 -6 -6 -5 -7)
1969/12/31/18:00:20.209000,(-15 -16 4 16 10 -3 -10 -11)
1969/12/31/18:00:20.209000,(-5 -5 -9 -31 -29 -8 -4 -5)
1969/12/31/18:00:20.222000,(28 20 0 -7 3 4 13 23)
1969/12/31/18:00:20.222000,(-14 -4 -3 3 -9 -7 -13 -16)
1969/12/31/18:00:20.223000,(-12 -9 4 17 15 1 -3 -8)
1969/12/31/18:00:20.223000,(-52 -40 4 36 18 1 -2 -4)
1969/12/31/18:00:20.246000,(-13 -10 -6 -14 -18 -9 -13 -25)
1969/12/31/18:00:20.246000,(-8 -2 -4 1 -5 -1 -1 -2)
1969/12/31/18:00:20.246000,(-13 -10 -7 -16 -1 1 1 -5)
1969/12/31/18:00:20.246000,(-4 -1 -1 -13 -8 0 0 0)
1969/12/31/18:00:20.268000,(-8 -6 0 5 4 -3 -1 -1)
1969/12/31/18:00:20.268000,(-25 -22 -6 -9 0 4 0 -9)
1969/12/31/18:00:20.269000,(42 26 7 8 7 10 15 18)
1969/12/31/18:00:20.269000,(25 13 -2 1 -1 2 9 14)
1969/12/31/18:00:20.282000,(8 14 8 3 2 -10 -17 -14)
1969/12/31/18:00:20.282000,(2 -4 1 -1 -2 -4 -3 3)
1969/12/31/18:00:20.283000,(-27 -20 -12 -5 0 -1 -6 -14)
1969/12/31/18:00:20.283000,(8 6 0 -5 -9 -1 -2 -2)
1969/12/31/18:00:20.305000,(6 7 -5 -12 -21 1 9 11)
1969/12/31/18:00:20.305000,(2 2 -9 -35 -6 -4 -1 4)
1969/12/31/18:00:20.306000,(-2 -8 3 32 8 -1 -2 2)
1969/12/31/18:00:20.306000,(-5 -3 18 51 29 3 -2 -2)
1969/12/31/18:00:20.328000,(-5 -2 -4 7 2 -6 -15 -20)
1969/12/31/18:00:20.328000,(-8 -4 -1 5 -9 -3 -3 -7)
1969/12/31/18:00:20.329000,(9 9 -4 -30 -8 2 11 16)
1969/12/31/18:00:20.329000,(-16 -15 -14 -28 -16 -8 -15 -21)
1969/12/31/18:00:20.342000,(15 6 3 -4 -3 6 17 24)
1969/12/31/18:00:20.342000,(-5 2 2 13 15 1 1 0)
1969/12/31/18:00:20.343000,(5 6 -2 -2 -3 -5 -4 6)
1969/12/31/18:00:20.343000,(-23 -18 1 -3 -2 0 -3 -11)
1969/12/31/18:00:20.366000,(12 7 -10 -7 -3 -6 -6 -4)
1969/12/31/18:00:20.366000,(24 30 17 16 24 33 36 32)
1969/12/31/18:00:20.366000,(-33 -23 -3 0 -11 -12 -15 -19)
1969/12/31/18:00:20.366000,(-10 0 0 -4 -2 -4 -6 -9)
1969/12/31/18:00:20.388000,(-21 -16 -11 -13 0 -6 -5 -6)
1969/12/31/18:00:20.388000,(-19 -16 -4 -9 -23 -10 -10 -16)
1969/12/31/18:00:20.389000,(11 0 0 9 18 2 4 9)
1969/12/31/18:00:20.389000,(10 1 7 3 -1 11 7 8)
1969/12/31/18:00:20.402000,(23 21 7 12 12 9 9 9)
1969/12/31/18:00:20.402000,(-5 -3 -6 -21 -24 -15 -11 -7)
1969/12/31/18:00:20.403000,(5 -1 -1 -13 -9 -4 -1 1)
1969/12/31/18:00:20.403000,(0 4 2 14 13 -2 -6 -8)
1969/12/31/18:00:20.426000,(-20 -20 0 12 24 13 4 3)
1969/12/31/18:00:20.426000,(8 2 6 21 16 6 -5 -4)
1969/12/31/18:00:20.426000,(1 3 7 -1 -9 7 14 13)
1969/12/31/18:00:20.426000,(6 8 -11 -22 -18 -14 -11 -8)
1969/12/31/18:00:20.448000,(-38 -35 5 5 -4 5 11 7)
1969/12/31/18:00:20.448000,(29 20 -14 -4 1 0 0 -4)
1969/12/31/18:00:20.449000,(50 40 6 -2 0 3 0 11)
1969/12/31/18:00:20.449000,(3 4 -8 -15 5 4 8 11)
1969/12/31/18:00:20.462000,(5 3 7 1 -10 1 0 3)
1969/12/31/18:00:20.462000,(-21 -18 -2 11 1 -10 -9 -12)
1969/12/31/18:00:20.471000,(-15 -13 2 10 4 0 -1 -8)
1969/12/31/18:00:20.471000,(21 8 -1 10 8 8 12 18)
1969/12/31/18:00:20.486000,(-23 -12 -12 -18 -9 -12 -22 -32)
1969/12/31/18:00:20.486000,(-8 -1 3 -3 3 2 0 -2)
1969/12/31/18:00:20.487000,(4 16 -4 -1 -6 -1 5 7)
1969/12/31/18:00:20.487000,(-20 -6 2 -5 -4 -4 -7 -10)
1969/12/31/18:00:20.508000,(-26 -35 -15 -10 -4 -7 -8 -8)
1969/12/31/18:00:20.508000,(-57 -13 0 8 0 -5 -13 -27)
1969/12/31/18:00:20.510000,(34 -9 0 1 5 9 14 19)
1969/12/31/18:00:20.510000,(12 5 -7 -13 -13 -11 -8 -4)
1969/12/31/18:00:20.522000,(-16 1 -3 -17 -19 -8 -6 -10)
1969/12/31/18:00:20.522000,(-5 -4 -4 -18 -15 -2 4 9)
1969/12/31/18:00:20.531000,(-15 -12 -4 3 18 -7 -10 -15)
1969/12/31/18:00:20.531000,(3 6 14 44 27 19 13 7)
1969/12/31/18:00:20.546000,(6 0 15 35 32 15 1 1)
1969/12/31/18:00:20.546000,(39 18 6 12 21 18 15 18)
1969/12/31/18:00:20.547000,(-7 2 -11 -30 -32 -19 -17 -12)
1969/12/31/18:00:20.547000,(-21 -18 -10 -22 -22 -16 -15 -24)
1969/12/31/18:00:20.568000,(29 16 -4 -11 -6 -9 3 17)
1969/12/31/18:00:20.568000,(-28 2 9 7 9 15 10 -8)
1969/12/31/18:00:20.570000,(-8 -14 -4 1 -6 -3 -3 -1)
1969/12/31/18:00:20.570000,(29 21 5 -4 -4 0 6 15)
1969/12/31/18:00:20.582000,(5 4 -8 -18 -10 -4 -2 0)
1969/12/31/18:00:20.582000,(-11 -14 -2 2 -5 -7 -3 0)
1969/12/31/18:00:20.591000,(-9 -2 0 4 0 3 1 -4)
1969/12/31/18:00:20.591000,(2 5 3 0 11 9 7 7)
1969/12/31/18:00:20.606000,(-3 5 22 8 32 18 8 3)
1969/12/31/18:00:20.606000,(28 13 13 42 9 6 3 11)
1969/12/31/18:00:20.607000,(-26 -18 -23 -10 -19 -17 -15 -16)
1969/12/31/18:00:20.607000,(4 -10 -24 -37 -32 -25 -14 -6)
1969/12/31/18:00:20.628000,(4 2 -6 -10 -11 -5 4 2)
1969/12/31/18:00:20.628000,(14 4 4 -7 13 6 4 10)
1969/12/31/18:00:20.629000,(-8 2 16 -11 -2 11 3 -4)
1969/12/31/18:00:20.630000,(1 1 -11 11 1 -2 2 5)
1969/12/31/18:00:20.651000,(4 -2 -3 12 4 -5 -3 -2)
1969/12/31/18:00:20.651000,(-3 0 10 2 -5 -5 -4 -4)
1969/12/31/18:00:20.652000,(-5 0 7 8 7 8 7 0)
1969/12/31/18:00:20.652000,(13 14 12 -4 1 5 4 8)
1969/12/31/18:00:20.665000,(4 11 19 12 7 11 9 6)
1969/12/31/18:00:20.665000,(14 -5 -37 -11 -9 -11 -3 6)
1969/12/31/18:00:20.672000,(-13 -17 -19 -17 -8 -11 -11 -11)
1969/12/31/18:00:20.672000,(-12 -12 -14 -12 -9 -8 -7 -9)
1969/12/31/18:00:20.688000,(-3 -4 -2 -5 -10 -7 -5 -3)
1969/12/31/18:00:20.688000,(-3 3 18 16 11 3 -2 -3)
1969/12/31/18:00:20.690000,(2 8 25 27 15 9 3 2)
1969/12/31/18:00:20.690000,(9 13 16 1 -3 15 12 8)
1969/12/31/18:00:20.702000,(7 2 -11 -29 0 0 2 7)
1969/12/31/18:00:20.702000,(3 -6 -12 10 1 -2 -3 0)
1969/12/31/18:00:20.711000,(-10 -6 5 12 -12 -9 -6 -6)
1969/12/31/18:00:20.711000,(-1 0 -10 -38 -41 -15 -6 -4)
1969/12/31/18:00:20.725000,(4 -4 -16 3 23 11 5 4)
1969/12/31/18:00:20.725000,(-4 -11 -7 13 25 6 -4 -4)
1969/12/31/18:00:20.732000,(-4 -1 -1 13 22 8 1 -3)
1969/12/31/18:00:20.732000,(-6 -1 19 17 0 1 0 -3)
1969/12/31/18:00:20.748000,(3 8 17 -3 -23 -4 3 1)
1969/12/31/18:00:20.748000,(9 11 2 -21 -16 -6 -1 4)
1969/12/31/18:00:20.749000,(4 3 -2 17 10 10 6 4)
1969/12/31/18:00:20.749000,(2 -13 -32 -8 -3 -12 -5 2)
1969/12/31/18:00:20.762000,(-19 -26 -31 -11 -13 -16 -12 -13)
1969/12/31/18:00:20.762000,(-3 0 19 -4 -7 -4 -2 -3)
1969/12/31/18:00:20.771000,(4 13 28 1 0 6 4 2)
1969/12/31/18:00:20.771000,(12 8 -14 15 15 11 6 7)
1969/12/31/18:00:20.785000,(0 -1 6 26 3 2 -2 2)
1969/12/31/18:00:20.785000,(-6 -6 -6 5 -1 -6 -4 -6)
1969/12/31/18:00:20.793000,(-2 -1 -2 -23 -17 -5 -1 -2)
1969/12/31/18:00:20.793000,(0 0 -6 -1 9 1 1 -1)
1969/12/31/18:00:20.808000,(1 -1 -10 7 -4 -4 -1 0)
1969/12/31/18:00:20.808000,(-5 -6 3 3 0 -5 -4 -3)
1969/12/31/18:00:20.810000,(-4 2 5 4 7 1 0 -1)
1969/12/31/18:00:20.810000,(5 8 20 8 7 8 5 2)
1969/12/31/18:00:20.822000,(2 -2 -11 -9 -7 -1 2 3)
1969/12/31/18:00:20.822000,(-2 -4 -5 -12 -10 -4 -3 -2)
1969/12/31/18:00:20.831000,(2 2 -4 -3 5 3 2 2)
1969/12/31/18:00:20.831000,(0 3 0 -3 1 7 -1 1)
1969/12/31/18:00:20.845000,(-1 -7 -12 20 -2 -9 -6 0)
1969/12/31/18:00:20.845000,(-8 -4 -4 -28 -10 -8 -9 -5)
1969/12/31/18:00:20.852000,(-2 -5 -7 4 -5 -4 -5 -3)
1969/12/31/18:00:20.852000,(5 22 67 -24 0 19 14 5)
1969/12/31/18:00:20.868000,(11 9 -28 43 19 8 4 5)
1969/12/31/18:00:20.868000,(-5 -16 -13 15 4 -9 -5 -4)
1969/12/31/18:00:20.870000,(-8 -4 3 -11 -2 -3 -3 -5)
1969/12/31/18:00:20.870000,(2 6 7 9 6 2 -1 1)
1969/12/31/18:00:20.891000,(3 -1 -1 -36 -13 0 5 3)
1969/12/31/18:00:20.891000,(-1 -2 -1 -8 -11 -4 1 0)
1969/12/31/18:00:20.892000,(2 2 -1 25 12 6 3 2)
1969/12/31/18:00:20.892000,(5 -1 0 13 19 5 1 3)
1969/12/31/18:00:20.913000,(-6 -1 0 -16 -10 -4 -6 -4)
1969/12/31/18:00:20.913000,(4 5 -10 -47 -6 4 3 2)
1969/12/31/18:00:20.914000,(-1 1 6 10 -10 0 -1 -1)
1969/12/31/18:00:20.915000,(-2 3 14 -7 -4 3 -1 -2)
1969/12/31/18:00:20.928000,(8 10 15 25 22 9 5 6)
1969/12/31/18:00:20.928000,(0 -4 -11 18 2 -4 -3 -1)
1969/12/31/18:00:20.929000,(-7 -13 -17 -15 8 -8 -4 -4)
1969/12/31/18:00:20.929000,(-11 -5 12 6 -11 -1 0 -7)
1969/12/31/18:00:20.950000,(1 2 -4 5 6 -9 -3 -3)
1969/12/31/18:00:20.951000,(-4 -2 -4 -39 -21 -10 -2 -3)
1969/12/31/18:00:20.952000,(8 -1 -13 -36 -3 2 5 5)
1969/12/31/18:00:20.952000,(-9 -14 -15 31 13 -3 -2 -4)
1969/12/31/18:00:20.964000,(-7 1 19 8 -10 -4 -3 -5)
1969/12/31/18:00:20.964000,(18 7 0 22 9 3 4 11)
1969/12/31/18:00:20.990000,(-7 -2 -8 5 -5 -4 -4 -5)
1969/12/31/18:00:20.990000,(1 -1 -9 -24 -10 -7 -4 -1)
1969/12/31/18:00:20.991000,(-7 1 5 -10 -11 4 -3 -3)
1969/12/31/18:00:20.991000,(13 13 7 0 19 15 10 10)
1969/12/31/18:00:20.994000,(-2 -2 0 -15 -10 -1 -1 0)
1969/12/31/18:00:20.994000,(-3 -7 -15 -8 -1 -1 -2 -2)
1969/12/31/18:00:21.011000,(3 8 19 28 14 4 3 1)
1969/12/31/18:00:21.011000,(-5 -2 6 11 2 -1 1 -2)
1969/12/31/18:00:21.012000,(-15 -8 6 -9 -7 -3 -3 -10)
1969/12/31/18:00:21.012000,(14 7 -8 22 13 -2 2 11)
1969/12/31/18:00:21.024000,(-5 -5 -3 -28 -16 -8 -5 -5)
1969/12/31/18:00:21.024000,(-4 0 0 6 -6 -3 0 0)
1969/12/31/18:00:21.033000,(-3 -10 -7 2 6 -8 -6 -3)
1969/12/31/18:00:21.033000,(-3 -2 -8 -5 -11 -10 -4 -4)
1969/12/31/18:00:21.048000,(0 -2 -2 -21 -1 0 0 -2)
1969/12/31/18:00:21.048000,(6 5 6 4 -4 4 5 2)
1969/12/31/18:00:21.054000,(1 2 1 4 -8 3 -2 -2)
1969/12/31/18:00:21.054000,(1 3 1 13 12 1 -1 0)
1969/12/31/18:00:21.071000,(-1 3 8 10 19 8 2 -2)
1969/12/31/18:00:21.071000,(-4 -2 -3 -14 -9 1 -6 -5)
1969/12/31/18:00:21.072000,(9 10 10 25 8 6 8 8)
1969/12/31/18:00:21.072000,(-7 -11 -13 -12 -10 -6 -3 -4)
1969/12/31/18:00:21.084000,(1 3 4 -29 -9 -2 -1 2)
1969/12/31/18:00:21.084000,(0 -5 -3 21 13 6 4 3)
1969/12/31/18:00:21.093000,(-1 0 0 3 3 -2 -2 -1)
1969/12/31/18:00:21.093000,(-6 -7 -5 -4 -4 -7 -4 -6)
1969/12/31/18:00:21.116000,(-2 -1 -4 -15 -14 -5 1 -1)
1969/12/31/18:00:21.116000,(-4 0 -4 -14 -12 -8 -3 -4)
1969/12/31/18:00:21.117000,(3 -1 -7 -17 -5 -4 1 4)
1969/12/31/18:00:21.117000,(-5 -8 -15 -42 -27 -8 -2 -5)
1969/12/31/18:00:21.130000,(0 -1 14 63 26 3 0 -1)
1969/12/31/18:00:21.131000,(5 7 26 79 31 11 2 4)
1969/12/31/18:00:21.132000,(-5 3 5 25 17 3 -1 -3)
1969/12/31/18:00:21.132000,(3 -3 -15 -35 -23 -7 -8 -5)
1969/12/31/18:00:21.144000,(-12 -6 -21 -59 -23 -7 -5 -6)
1969/12/31/18:00:21.144000,(-12 -9 -22 -84 -29 -5 8 12)
1969/12/31/18:00:21.153000,(29 20 29 66 32 14 -2 -5)
1969/12/31/18:00:21.153000,(-43 -26 13 66 18 -3 -10 -15)
1969/12/31/18:00:21.168000,(12 4 4 3 -5 3 5 10)
1969/12/31/18:00:21.168000,(20 27 17 32 20 13 5 -7)
1969/12/31/18:00:21.169000,(-29 -34 -52 -97 -46 -26 -14 -11)
1969/12/31/18:00:21.169000,(14 7 0 5 -2 1 11 12)
1969/12/31/18:00:21.191000,(-16 -9 6 29 4 -2 -3 -6)
1969/12/31/18:00:21.191000,(8 -1 5 5 -12 -1 6 12)
1969/12/31/18:00:21.193000,(12 9 6 7 4 6 3 8)
1969/12/31/18:00:21.193000,(3 2 -6 -19 22 5 -2 -5)
1969/12/31/18:00:21.204000,(7 0 -4 -4 -1 3 6 10)
1969/12/31/18:00:21.204000,(6 1 -8 -46 -8 1 2 0)
1969/12/31/18:00:21.213000,(-2 0 -6 36 -7 -5 -3 -3)
1969/12/31/18:00:21.213000,(-6 -2 0 -24 -6 -4 -2 -1)
1969/12/31/18:00:21.228000,(9 3 12 41 16 0 -3 -1)
1969/12/31/18:00:21.228000,(-16 -9 -11 -28 -5 -6 -7 -11)
1969/12/31/18:00:21.236000,(-13 -7 0 12 -9 -6 -2 -6)
1969/12/31/18:00:21.236000,(14 6 -7 -20 -12 -1 5 12)
1969/12/31/18:00:21.266000,(2 -1 -15 -22 -5 -2 -2 0)
1969/12/31/18:00:21.266000,(2 3 16 65 14 2 -2 0)
1969/12/31/18:00:21.268000,(0 4 26 21 16 8 4 6)
1969/12/31/18:00:21.268000,(2 4 0 5 3 6 0 -3)
1969/12/31/18:00:21.269000,(0 -3 -13 -33 -24 -5 -5 -4)
1969/12/31/18:00:21.269000,(-4 -9 -26 -94 -15 -11 -5 1)
1969/12/31/18:00:21.273000,(-1 7 20 45 9 10 6 3)
1969/12/31/18:00:21.273000,(3 4 18 60 36 9 0 0)
1969/12/31/18:00:21.288000,(-3 4 6 -6 1 2 -2 -6)
1969/12/31/18:00:21.288000,(3 -5 -7 4 -7 -3 2 4)
1969/12/31/18:00:21.290000,(7 3 -15 -49 -12 -4 3 2)
1969/12/31/18:00:21.290000,(-8 -9 -4 -8 -7 -5 -6 -11)
1969/12/31/18:00:21.318000,(-3 -2 -1 5 -1 -2 -1 0)
1969/12/31/18:00:21.318000,(-1 0 1 8 -2 -2 -2 -3)
1969/12/31/18:00:21.320000,(7 -2 -7 -56 -7 -2 2 8)
1969/12/31/18:00:21.320000,(1 1 4 50 4 1 3 4)
1969/12/31/18:00:21.324000,(-2 0 3 -1 1 2 0 -1)
1969/12/31/18:00:21.324000,(-1 -1 2 12 20 -2 -4 -4)
1969/12/31/18:00:21.341000,(-3 -2 -8 -13 -5 1 0 -1)
1969/12/31/18:00:21.341000,(4 3 16 38 6 -1 -1 1)
1969/12/31/18:00:21.348000,(-5 -1 10 4 -6 0 -2 -6)
1969/12/31/18:00:21.348000,(2 1 9 27 9 1 1 0)
1969/12/31/18:00:21.350000,(-3 -6 -14 -19 -6 -2 -2 -1)
1969/12/31/18:00:21.350000,(1 -1 -15 -36 -5 -4 -2 0)
1969/12/31/18:00:21.371000,(3 1 -2 1 -3 0 5 5)
1969/12/31/18:00:21.371000,(-3 -1 1 3 -6 0 0 -3)
1969/12/31/18:00:21.372000,(0 -1 -2 2 3 -6 -3 0)
1969/12/31/18:00:21.372000,(-2 -4 -4 -15 -6 -1 -3 -1)
1969/12/31/18:00:21.385000,(-3 -3 4 6 4 0 -2 -3)
1969/12/31/18:00:21.385000,(-4 -2 -3 -2 -5 2 -2 -3)
1969/12/31/18:00:21.410000,(2 0 2 7 3 0 -1 -2)
1969/12/31/18:00:21.410000,(3 4 -1 0 -1 1 2 -1)
1969/12/31/18:00:21.411000,(-2 -1 -3 -6 5 1 2 -1)
1969/12/31/18:00:21.411000,(0 0 1 -1 1 -2 -2 -1)
1969/12/31/18:00:21.414000,(-2 0 0 8 -6 -4 -3 -2)
1969/12/31/18:00:21.414000,(1 1 0 -3 3 -1 1 0)
1969/12/31/18:00:21.432000,(1 -1 -2 -6 -1 -1 0 -1)
1969/12/31/18:00:21.432000,(-2 -1 0 3 -19 -4 -2 -4)
1969/12/31/18:00:21.433000,(-3 -1 0 4 14 1 -2 -1)
1969/12/31/18:00:21.433000,(1 -1 -4 -11 -5 1 2 0)
1969/12/31/18:00:21.444000,(-1 -1 -2 5 6 1 -2 0)
1969/12/31/18:00:21.444000,(-3 -1 3 6 -3 0 -1 -3)
1969/12/31/18:00:21.453000,(-2 -4 -4 -5 -6 -2 1 0)
1969/12/31/18:00:21.453000,(1 -1 -1 -7 -2 -1 -1 0)
1969/12/31/18:00:21.468000,(2 2 3 2 0 1 1 2)
1969/12/31/18:00:21.468000,(-2 0 -2 2 1 0 -3 0)
1969/12/31/18:00:21.470000,(1 0 -1 1 -2 1 1 -1)
1969/12/31/18:00:21.470000,(1 1 -1 0 3 1 -1 0)
1969/12/31/18:00:21.490000,(1 0 0 1 1 -2 1 -1)
1969/12/31/18:00:21.490000,(-3 -2 -1 0 0 -3 -4 -4)
1969/12/31/18:00:21.492000,(-1 -1 -1 -1 -1 -2 -1 -2)
1969/12/31/18:00:21.492000,(2 1 1 -4 -3 0 1 0)
1969/12/31/18:00:21.504000,(1 -1 -2 -4 -1 0 0 0)
1969/12/31/18:00:21.504000,(0 1 0 3 4 1 2 2)
1969/12/31/18:00:21.536000,(2 3 3 5 -1 3 3 2)
1969/12/31/18:00:21.536000,(0 -3 -4 -4 -4 -3 -2 -2)
1969/12/31/18:00:21.537000,(-5 -5 -3 -4 -1 -3 -3 -5)
1969/12/31/18:00:21.537000,(0 -2 1 6 4 0 1 0)
1969/12/31/18:00:21.539000,(-1 1 0 0 -2 0 -1 -1)
1969/12/31/18:00:21.539000,(0 0 -1 -5 -3 0 0 1)
1969/12/31/18:00:21.552000,(1 3 3 0 1 0 0 0)
1969/12/31/18:00:21.552000,(0 -1 -3 4 2 2 0 1)
1969/12/31/18:00:21.554000,(-1 -2 -1 -4 -3 -2 0 -1)
1969/12/31/18:00:21.554000,(-1 0 1 -2 -3 -3 0 -1)
1969/12/31/18:00:21.564000,(-2 0 -1 -1 -2 -3 -1 0)
1969/12/31/18:00:21.564000,(-2 0 2 -2 0 0 -1 -2)
1969/12/31/18:00:21.573000,(0 -1 -3 -2 1 2 1 2)
1969/12/31/18:00:21.573000,(0 -1 0 -2 -1 -1 1 2)
1969/12/31/18:00:21.588000,(-2 -2 0 1 -1 -1 0 1)
1969/12/31/18:00:21.588000,(2 0 -3 -1 -2 0 1 0)
1969/12/31/18:00:21.594000,(0 2 1 1 1 1 0 0)
1969/12/31/18:00:21.594000,(0 0 2 1 0 0 -1 -3)
1969/12/31/18:00:21.611000,(-1 0 -2 -2 0 1 1 -1)
1969/12/31/18:00:21.611000,(-1 -1 -1 0 0 -2 -2 0)
1969/12/31/18:00:21.612000,(-1 0 1 1 -2 -2 0 -1)
1969/12/31/18:00:21.612000,(0 -3 -2 -3 -2 -1 1 -1)
1969/12/31/18:00:21.624000,(1 0 -1 -1 -1 0 1 2)
1969/12/31/18:00:21.624000,(-3 -2 -5 0 2 -1 -4 -4)
1969/12/31/18:00:21.633000,(-3 -1 0 -3 -3 -3 -2 -1)
1969/12/31/18:00:21.633000,(0 0 -1 4 2 1 0 2)
1969/12/31/18:00:21.648000,(1 0 0 1 2 0 -3 -1)
1969/12/31/18:00:21.648000,(1 1 3 -1 -2 -3 0 0)
1969/12/31/18:00:21.650000,(0 1 -2 2 2 0 0 0)
1969/12/31/18:00:21.650000,(-1 0 0 -3 -1 -2 2 1)
1969/12/31/18:00:21.679000,(-1 0 -1 -1 -1 -1 -4 -1)
1969/12/31/18:00:21.679000,(0 -2 0 1 0 -4 -1 1)
1969/12/31/18:00:21.686000,(-4 -6 -4 -2 -5 -3 -3 -4)
1969/12/31/18:00:21.686000,(1 1 -1 1 2 3 1 1)
1969/12/31/18:00:21.687000,(3 2 1 -1 0 1 1 2)
1969/12/31/18:00:21.687000,(1 4 3 -2 -2 3 2 1)
1969/12/31/18:00:21.693000,(3 0 1 3 3 -2 -1 1)
1969/12/31/18:00:21.693000,(-4 -5 -4 -4 -4 -2 -3 -6)
1969/12/31/18:00:21.708000,(-4 -3 0 -1 -2 -1 -1 -2)
1969/12/31/18:00:21.708000,(0 0 0 1 0 0 -1 -2)
1969/12/31/18:00:21.708000,(-4 -1 -1 -24 -11 -3 -4 -3)
1969/12/31/18:00:21.708000,(3 1 1 20 -13 1 4 2)
1969/12/31/18:00:21.710000,(4 5 13 27 25 3 1 1)
1969/12/31/18:00:21.710000,(0 6 11 14 0 4 1 0)
1969/12/31/18:00:21.731000,(1 0 -6 -10 -6 -2 -2 0)
1969/12/31/18:00:21.731000,(-2 -10 -22 -36 -25 -5 -3 -2)
1969/12/31/18:00:21.732000,(-3 -2 -4 -29 -3 -4 -2 -2)
1969/12/31/18:00:21.732000,(12 10 4 13 4 4 7 10)
1969/12/31/18:00:21.744000,(-10 -7 -4 5 0 -7 -9 -11)
1969/12/31/18:00:21.744000,(2 5 2 -16 -14 3 6 3)
1969/12/31/18:00:21.754000,(5 3 20 67 18 6 4 5)
1969/12/31/18:00:21.754000,(-5 1 7 1 5 2 0 -4)
1969/12/31/18:00:21.769000,(-1 -4 -7 3 5 -3 -1 0)
1969/12/31/18:00:21.769000,(-5 -2 -3 -10 2 -4 -6 -4)
1969/12/31/18:00:21.770000,(-2 -4 -13 -36 -22 -3 1 0)
1969/12/31/18:00:21.770000,(2 1 0 16 3 -1 0 2)
1969/12/31/18:00:21.798000,(-1 2 5 0 1 1 1 1)
1969/12/31/18:00:21.798000,(-4 -5 -5 -4 -3 -3 -4 -5)
1969/12/31/18:00:21.800000,(2 -2 -6 -13 -8 -1 1 0)
1969/12/31/18:00:21.800000,(2 3 3 -5 0 0 0 1)
1969/12/31/18:00:21.804000,(5 -1 -6 5 -1 1 3 5)
1969/12/31/18:00:21.804000,(-2 1 5 5 7 -2 -3 0)
1969/12/31/18:00:21.813000,(-4 -3 -5 -1 -9 -1 1 -1)
1969/12/31/18:00:21.813000,(0 -1 -1 -6 1 2 0 -1)
1969/12/31/18:00:21.828000,(8 10 -1 8 4 4 5 8)
1969/12/31/18:00:21.828000,(-8 -13 -5 0 -11 -8 -8 -6)
1969/12/31/18:00:21.830000,(-7 0 -9 -39 14 1 0 -5)
1969/12/31/18:00:21.830000,(6 6 15 -8 -27 -7 -1 3)
1969/12/31/18:00:21.851000,(-7 -8 -18 -11 6 2 -1 -5)
1969/12/31/18:00:21.851000,(11 11 19 54 34 19 11 8)
1969/12/31/18:00:21.852000,(1 8 34 96 24 1 -4 -3)
1969/12/31/18:00:21.852000,(-12 -9 3 -11 8 -3 -6 -10)
1969/12/31/18:00:21.864000,(2 1 -2 -17 -24 -6 0 1)
1969/12/31/18:00:21.864000,(0 -2 -21 -63 -35 -7 4 3)
1969/12/31/18:00:21.873000,(12 -2 -57 -74 -8 1 2 7)
1969/12/31/18:00:21.873000,(-11 -13 25 42 10 -7 -9 -9)
1969/12/31/18:00:21.889000,(-8 7 41 61 33 8 -1 -7)
1969/12/31/18:00:21.889000,(-1 -2 -4 1 -1 -3 -1 -2)
1969/12/31/18:00:21.890000,(1 0 1 -12 -15 -1 2 1)
1969/12/31/18:00:21.890000,(5 -1 -28 -36 -13 -1 2 4)
1969/12/31/18:00:21.911000,(0 -4 -4 -21 -17 -4 -2 -3)
1969/12/31/18:00:21.911000,(-6 -5 -15 -39 -12 -6 -4 -4)
1969/12/31/18:00:21.912000,(13 7 3 27 2 4 5 11)
1969/12/31/18:00:21.912000,(-9 2 11 -5 -2 5 0 -8)
1969/12/31/18:00:21.924000,(0 -12 -48 -56 -34 -11 -7 -1)
1969/12/31/18:00:21.924000,(-3 1 33 39 52 10 2 -2)
1969/12/31/18:00:21.933000,(-2 8 20 65 11 8 0 -3)
1969/12/31/18:00:21.933000,(10 3 12 77 42 3 4 10)
1969/12/31/18:00:21.948000,(-27 -20 -39 -72 -86 -20 -9 -17)
1969/12/31/18:00:21.948000,(6 -5 -22 35 -4 -12 -9 2)
1969/12/31/18:00:21.954000,(6 12 65 64 53 24 11 5)
1969/12/31/18:00:21.954000,(3 8 3 22 29 14 7 2)
1969/12/31/18:00:21.971000,(14 2 10 43 29 10 4 10)
1969/12/31/18:00:21.971000,(-14 0 6 6 -19 -9 -8 -9)
1969/12/31/18:00:21.972000,(6 -4 -16 -70 -26 -11 0 5)
1969/12/31/18:00:21.972000,(-6 -11 -35 -51 3 -7 -4 -7)
1969/12/31/18:00:21.984000,(9 10 -3 -103 -5 5 7 8)
1969/12/31/18:00:21.984000,(2 -6 -26 -28 -44 -8 -2 0)
1969/12/31/18:00:22.018000,(-6 -1 8 20 2 0 -1 -2)
1969/12/31/18:00:22.018000,(-4 -4 -19 -34 -34 -7 -7 -5)
1969/12/31/18:00:22.019000,(5 11 39 95 47 10 4 4)
1969/12/31/18:00:22.019000,(0 3 8 16 -1 7 4 2)
1969/12/31/18:00:22.032000,(-5 -7 -5 -30 -2 -3 -4 -6)
1969/12/31/18:00:22.032000,(-6 -10 0 75 9 -5 -6 -5)
1969/12/31/18:00:22.033000,(-4 -5 -11 -64 -33 -10 -3 -2)
1969/12/31/18:00:22.033000,(-2 1 7 21 -15 -6 -1 -2)
1969/12/31/18:00:22.034000,(2 1 10 42 70 12 4 0)
1969/12/31/18:00:22.034000,(-1 -3 -13 -74 -21 -8 -3 0)
1969/12/31/18:00:22.044000,(3 7 23 104 63 18 4 3)
1969/12/31/18:00:22.044000,(3 0 -20 -73 -19 -2 1 1)
1969/12/31/18:00:22.054000,(-2 -6 -27 -73 -65 -18 -8 -2)
1969/12/31/18:00:22.054000,(3 5 9 10 9 8 3 4)
1969/12/31/18:00:22.077000,(-1 -4 -23 -56 -22 -5 1 -1)
1969/12/31/18:00:22.077000,(-4 -6 9 17 1 -6 -6 -3)
1969/12/31/18:00:22.079000,(-6 -2 -2 8 -11 -7 -3 -3)
1969/12/31/18:00:22.079000,(-4 3 10 8 -7 -1 0 -3)
1969/12/31/18:00:22.091000,(-2 -3 -6 -5 -1 -4 -3 -2)
1969/12/31/18:00:22.091000,(2 2 2 -1 14 1 1 1)
1969/12/31/18:00:22.092000,(-1 -1 -1 9 -5 0 0 -2)
1969/12/31/18:00:22.092000,(2 -3 -10 -19 -16 -4 0 -2)
1969/12/31/18:00:22.104000,(-1 -2 4 15 4 -4 -3 0)
1969/12/31/18:00:22.104000,(3 3 7 -4 21 8 3 1)
1969/12/31/18:00:22.114000,(-1 -3 -13 -15 -19 -5 -2 -1)
1969/12/31/18:00:22.114000,(1 1 -7 -22 -15 -1 0 0)
1969/12/31/18:00:22.127000,(0 3 15 29 16 6 0 -1)
1969/12/31/18:00:22.127000,(-4 0 5 0 10 2 0 -1)
1969/12/31/18:00:22.135000,(0 -1 -15 -23 -21 -7 0 2)
1969/12/31/18:00:22.135000,(0 0 -3 0 4 1 -1 0)
1969/12/31/18:00:22.151000,(1 3 12 22 7 1 0 -2)
1969/12/31/18:00:22.151000,(0 2 4 5 3 2 -1 1)
1969/12/31/18:00:22.152000,(0 -3 -12 -18 -10 -1 -2 0)
1969/12/31/18:00:22.152000,(1 -2 2 1 3 3 1 -1)
1969/12/31/18:00:22.173000,(-1 2 9 10 2 3 4 5)
1969/12/31/18:00:22.173000,(8 2 -5 -3 4 2 1 -3)
1969/12/31/18:00:22.174000,(-3 1 2 2 1 -1 -1 -4)
1969/12/31/18:00:22.174000,(4 1 3 1 -1 1 5 6)
1969/12/31/18:00:22.187000,(1 3 4 7 -1 1 -1 -2)
1969/12/31/18:00:22.187000,(-9 -8 1 9 7 -3 -4 -3)
1969/12/31/18:00:22.194000,(-12 -8 -9 -9 -5 1 3 -3)
1969/12/31/18:00:22.194000,(16 9 -4 -8 -6 0 2 4)
1969/12/31/18:00:22.211000,(-6 -1 4 5 5 5 5 3)
1969/12/31/18:00:22.211000,(5 -3 -2 -3 2 -1 -3 -1)
1969/12/31/18:00:22.213000,(-1 3 2 -2 -4 -5 -8 -9)
1969/12/31/18:00:22.213000,(-15 -8 -4 -3 -3 -5 -4 -5)
1969/12/31/18:00:22.249000,(2 -3 -2 1 0 -2 1 2)
1969/12/31/18:00:22.249000,(2 8 7 4 3 4 4 2)
1969/12/31/18:00:22.250000,(2 -1 -2 1 -2 -3 -2 1)
1969/12/31/18:00:22.250000,(4 5 4 5 3 1 2 3)
1969/12/31/18:00:22.251000,(3 0 0 -5 -1 0 -2 0)
1969/12/31/18:00:22.251000,(2 1 2 11 -1 3 3 2)
1969/12/31/18:00:22.256000,(-5 -7 -6 -26 -9 0 -3 0)
1969/12/31/18:00:22.256000,(-9 -3 5 22 13 5 -5 -7)
1969/12/31/18:00:22.271000,(1 -2 -3 2 -1 -2 -2 1)
1969/12/31/18:00:22.271000,(11 9 10 6 11 4 5 3)
1969/12/31/18:00:22.272000,(-3 -2 -4 -3 -4 -1 0 -5)
1969/12/31/18:00:22.272000,(0 -4 -6 -32 -20 -9 -5 -4)
1969/12/31/18:00:22.294000,(-4 -3 -4 1 -2 -10 -8 -6)
1969/12/31/18:00:22.294000,(6 6 8 25 15 5 5 7)
1969/12/31/18:00:22.295000,(0 -1 2 2 -4 -6 -5 -3)
1969/12/31/18:00:22.295000,(-8 2 4 8 2 4 4 -4)
1969/12/31/18:00:22.307000,(1 -3 -2 -9 -3 -5 -4 -5)
1969/12/31/18:00:22.307000,(-8 -5 -10 -21 -11 -5 -3 -3)
1969/12/31/18:00:22.316000,(1 1 7 21 7 1 3 7)
1969/12/31/18:00:22.316000,(9 -1 2 5 4 2 3 4)
1969/12/31/18:00:22.330000,(-7 6 4 -7 -14 -2 -9 -17)
1969/12/31/18:00:22.330000,(0 -3 -3 -7 7 -3 -6 -1)
1969/12/31/18:00:22.332000,(-1 -5 -9 -18 -9 1 4 5)
1969/12/31/18:00:22.332000,(1 -3 -24 -74 -21 -4 -1 2)
1969/12/31/18:00:22.353000,(1 -3 -4 7 -3 2 8 12)
1969/12/31/18:00:22.353000,(-7 -2 23 48 19 -1 -4 -6)
1969/12/31/18:00:22.355000,(-5 -4 -8 5 4 -1 -3 -5)
1969/12/31/18:00:22.355000,(1 3 23 71 20 0 1 3)
1969/12/31/18:00:22.367000,(-1 2 13 14 5 0 -1 -4)
1969/12/31/18:00:22.367000,(-14 -8 -12 -23 -11 -6 -4 -1)
1969/12/31/18:00:22.375000,(-17 -17 -7 -5 0 -5 -2 -9)
1969/12/31/18:00:22.375000,(40 20 -12 -25 -9 -1 0 11)
1969/12/31/18:00:22.390000,(-21 -12 -16 -30 -13 -10 -11 -13)
1969/12/31/18:00:22.391000,(-21 -4 2 10 -3 0 0 -11)
1969/12/31/18:00:22.392000,(44 24 9 0 3 5 14 31)
1969/12/31/18:00:22.392000,(-63 -20 -6 -11 -10 -7 -11 -34)
1969/12/31/18:00:22.413000,(82 24 7 25 21 16 18 38)
1969/12/31/18:00:22.413000,(-23 -2 -10 -26 -7 -9 -15 -15)
1969/12/31/18:00:22.415000,(-4 -6 -5 -1 -3 3 1 -1)
1969/12/31/18:00:22.415000,(-5 1 5 -13 -7 -2 0 2)
1969/12/31/18:00:22.427000,(-10 -4 1 13 8 0 1 -6)
1969/12/31/18:00:22.427000,(-18 -8 13 57 20 2 1 -9)
1969/12/31/18:00:22.436000,(18 20 16 11 2 4 6 13)
1969/12/31/18:00:22.436000,(58 10 1 10 1 -3 1 14)
1969/12/31/18:00:22.451000,(-15 -10 -12 -31 -12 -8 -10 -10)
1969/12/31/18:00:22.451000,(24 5 -11 -26 -13 1 9 17)
1969/12/31/18:00:22.452000,(-10 -10 4 15 3 -3 -4 -4)
1969/12/31/18:00:22.452000,(-11 -2 3 4 7 12 12 -3)
1969/12/31/18:00:22.473000,(14 15 9 9 8 12 16 26)
1969/12/31/18:00:22.473000,(-14 -11 -14 -19 -14 -14 -19 -23)
1969/12/31/18:00:22.475000,(1 1 1 -10 -6 -2 1 10)
1969/12/31/18:00:22.475000,(-7 -9 -5 15 3 0 -3 -2)
1969/12/31/18:00:22.487000,(-9 -7 -11 -13 -1 4 7 1)
1969/12/31/18:00:22.487000,(13 1 1 2 5 4 5 8)
1969/12/31/18:00:22.496000,(-11 -7 -20 -79 -48 -13 -11 -12)
1969/12/31/18:00:22.496000,(1 3 19 57 30 1 -1 4)
1969/12/31/18:00:22.518000,(-8 2 27 69 15 2 -9 -13)
1969/12/31/18:00:22.518000,(1 2 10 12 17 12 7 4)
1969/12/31/18:00:22.520000,(3 0 -4 -6 3 -2 -4 -7)
1969/12/31/18:00:22.520000,(-1 -3 -19 -47 -20 -4 -3 2)
1969/12/31/18:00:22.533000,(-9 -6 -5 -17 -17 -9 -3 -5)
1969/12/31/18:00:22.533000,(-16 -17 -5 -3 -2 1 4 6)
1969/12/31/18:00:22.534000,(17 27 17 26 19 15 16 8)
1969/12/31/18:00:22.535000,(37 -2 -6 -14 -10 -7 -8 4)
1969/12/31/18:00:22.563000,(-1 3 -2 -10 -1 -3 0 -2)
1969/12/31/18:00:22.563000,(13 1 -13 -39 -16 5 7 12)
1969/12/31/18:00:22.564000,(-12 -10 -5 28 5 -2 -1 -5)
1969/12/31/18:00:22.564000,(-17 -5 -3 -39 -9 0 2 3)
1969/12/31/18:00:22.570000,(-7 -3 10 42 1 -7 -9 -16)
1969/12/31/18:00:22.570000,(12 10 20 20 -7 -8 -5 -3)
1969/12/31/18:00:22.571000,(-8 -9 3 29 17 -1 -4 -8)
1969/12/31/18:00:22.571000,(-5 1 1 9 29 11 4 -1)
1969/12/31/18:00:22.593000,(-4 -6 -17 -37 -11 4 0 1)
1969/12/31/18:00:22.593000,(5 5 -10 -37 -14 4 7 4)
1969/12/31/18:00:22.593000,(1 2 8 29 10 1 -2 -1)
1969/12/31/18:00:22.593000,(-20 -12 -7 1 -8 -7 -9 -13)
1969/12/31/18:00:22.623000,(12 10 1 -22 -5 -2 3 12)
1969/12/31/18:00:22.623000,(21 -1 7 19 2 6 13 9)
1969/12/31/18:00:22.624000,(0 2 2 -2 -5 -10 -12 -14)
1969/12/31/18:00:22.624000,(32 12 3 6 -7 -6 3 22)
1969/12/31/18:00:22.630000,(-14 2 1 -1 6 2 -4 -14)
1969/12/31/18:00:22.630000,(-29 -16 -13 -10 0 -5 -12 -20)
1969/12/31/18:00:22.631000,(-5 -4 -3 -5 -4 -1 -5 -10)
1969/12/31/18:00:22.631000,(-18 -8 -2 -11 -6 0 1 -4)
1969/12/31/18:00:22.652000,(-2 -7 -7 2 -12 -10 -5 2)
1969/12/31/18:00:22.652000,(10 6 -18 -58 -41 -14 -3 1)
1969/12/31/18:00:22.653000,(-9 -2 17 67 53 13 6 3)
1969/12/31/18:00:22.653000,(-17 1 20 63 26 10 -1 -9)
1969/12/31/18:00:22.675000,(-2 -2 5 15 26 9 0 -2)
1969/12/31/18:00:22.675000,(1 2 -3 -9 4 1 -2 -3)
1969/12/31/18:00:22.676000,(-15 -15 -25 -61 -41 -16 -10 -12)
1969/12/31/18:00:22.676000,(10 2 -12 -34 -16 -1 12 20)
1969/12/31/18:00:22.690000,(10 0 -5 1 -4 -7 -5 0)
1969/12/31/18:00:22.690000,(-1 4 14 42 11 3 4 0)
1969/12/31/18:00:22.691000,(-7 -5 -1 -12 -3 0 0 1)
1969/12/31/18:00:22.691000,(-11 0 6 17 2 -4 -6 -12)
1969/12/31/18:00:22.712000,(21 11 -4 -18 -4 0 5 9)
1969/12/31/18:00:22.712000,(2 2 -4 -4 0 -2 -2 7)
1969/12/31/18:00:22.713000,(-13 -9 0 5 -4 -6 -7 -12)
1969/12/31/18:00:22.713000,(-12 -2 -4 -8 -4 0 -1 -10)
1969/12/31/18:00:22.735000,(-5 -4 -5 -10 -3 -4 -2 -3)
1969/12/31/18:00:22.735000,(12 9 6 17 13 6 6 12)
1969/12/31/18:00:22.736000,(3 5 1 -6 -2 0 -3 -3)
1969/12/31/18:00:22.736000,(-5 -8 -22 -52 -32 -9 -5 -3)
1969/12/31/18:00:22.750000,(-36 -30 -5 20 1 -4 -2 -8)
1969/12/31/18:00:22.750000,(71 53 29 62 36 12 14 30)
1969/12/31/18:00:22.751000,(-30 -18 1 7 -23 -16 -16 -25)
1969/12/31/18:00:22.751000,(-3 -4 -3 -17 -20 -11 -5 -4)
1969/12/31/18:00:22.772000,(0 -2 -6 -15 16 10 4 0)
1969/12/31/18:00:22.772000,(-19 -13 -8 16 33 18 4 -1)
1969/12/31/18:00:22.773000,(19 9 0 -8 17 18 14 18)
1969/12/31/18:00:22.773000,(5 3 6 18 -6 -4 -2 -2)
1969/12/31/18:00:22.795000,(-10 -3 -7 -25 -32 -16 -7 -10)
1969/12/31/18:00:22.795000,(-14 -12 -5 -18 -16 -11 -6 -4)
1969/12/31/18:00:22.796000,(0 2 -2 8 5 -2 -3 -4)
1969/12/31/18:00:22.796000,(-7 -6 4 8 4 -2 -6 -4)
1969/12/31/18:00:22.810000,(7 7 -3 -15 0 4 9 9)
1969/12/31/18:00:22.810000,(-18 -15 -24 -44 -30 -7 -5 -12)
1969/12/31/18:00:22.810000,(9 1 5 20 2 -1 0 8)
1969/12/31/18:00:22.810000,(-1 6 15 42 25 8 0 -1)
1969/12/31/18:00:22.841000,(-7 2 13 26 16 2 -10 -6)
1969/12/31/18:00:22.841000,(-10 -7 -8 -26 -13 -13 -19 -20)
1969/12/31/18:00:22.841000,(3 -1 -25 -67 -4 -2 15 10)
1969/12/31/18:00:22.841000,(2 -1 4 7 -15 12 12 11)
1969/12/31/18:00:22.856000,(9 7 26 64 27 9 5 1)
1969/12/31/18:00:22.856000,(-16 -9 2 7 7 -4 -3 -3)
1969/12/31/18:00:22.856000,(15 7 -5 -12 -8 -5 -11 -4)
1969/12/31/18:00:22.856000,(-2 -1 -12 -23 5 -7 -4 -5)
1969/12/31/18:00:22.870000,(10 -4 -11 -39 -21 -4 1 0)
1969/12/31/18:00:22.870000,(-24 -20 -2 4 -5 -4 -9 -19)
1969/12/31/18:00:22.871000,(10 13 10 45 -1 0 3 14)
1969/12/31/18:00:22.871000,(3 5 11 8 14 3 -1 -8)
1969/12/31/18:00:22.892000,(-23 -11 -4 1 -10 -11 -15 -25)
1969/12/31/18:00:22.892000,(12 -3 0 -4 6 6 13 18)
1969/12/31/18:00:22.893000,(46 26 -2 -16 -1 -2 -6 9)
1969/12/31/18:00:22.893000,(-17 -10 -4 -7 -13 -6 -5 -4)
1969/12/31/18:00:22.916000,(0 0 6 8 6 4 4 -1)
1969/12/31/18:00:22.916000,(-75 -24 -6 -6 -10 -16 -21 -32)
1969/12/31/18:00:22.916000,(-17 12 12 5 10 18 15 3)
1969/12/31/18:00:22.916000,(-6 -6 -12 1 0 -3 0 6)
1969/12/31/18:00:22.930000,(0 3 -15 -23 -8 -5 -6 -1)
1969/12/31/18:00:22.930000,(-28 -8 14 19 -1 -6 -13 -32)
1969/12/31/18:00:22.931000,(48 -5 6 13 0 9 25 54)
1969/12/31/18:00:22.931000,(-37 -12 -5 -6 11 3 -5 -30)
1969/12/31/18:00:22.953000,(-32 -25 -16 -2 -8 -5 -7 -12)
1969/12/31/18:00:22.953000,(83 48 16 -11 10 17 23 42)
1969/12/31/18:00:22.953000,(-36 -14 -6 22 -8 -16 -28 -40)
1969/12/31/18:00:22.953000,(17 13 8 23 15 14 17 21)
1969/12/31/18:00:22.976000,(-55 -39 0 3 -2 2 3 -5)
1969/12/31/18:00:22.976000,(25 13 -9 -8 -4 3 2 10)
1969/12/31/18:00:22.976000,(11 11 2 -12 0 0 -3 -6)
1969/12/31/18:00:22.976000,(-22 -12 4 -12 -15 -20 -22 -24)
1969/12/31/18:00:22.990000,(-3 6 7 31 8 4 8 15)
1969/12/31/18:00:22.990000,(12 15 -2 3 5 2 -1 -14)
1969/12/31/18:00:22.991000,(-50 -34 -12 -33 -5 3 10 3)
1969/12/31/18:00:22.991000,(53 -7 1 -9 6 12 14 25)
1969/12/31/18:00:23.012000,(-25 -8 -6 -16 -14 -15 -22 -38)
1969/12/31/18:00:23.013000,(25 32 6 11 5 12 10 5)
1969/12/31/18:00:23.013000,(-11 -11 -33 -52 0 -7 -10 -11)
1969/12/31/18:00:23.013000,(-31 -17 6 -11 2 -7 -10 -15)
1969/12/31/18:00:23.036000,(42 30 36 69 13 2 11 24)
1969/12/31/18:00:23.036000,(-12 -26 -46 -97 -51 -9 4 4)
1969/12/31/18:00:23.036000,(-13 -2 18 73 -7 4 6 -4)
1969/12/31/18:00:23.036000,(5 10 30 69 37 8 3 10)
1969/12/31/18:00:23.050000,(17 14 -1 4 26 6 -2 -2)
1969/12/31/18:00:23.050000,(-20 -15 4 15 6 -14 -15 -12)
1969/12/31/18:00:23.051000,(29 19 -7 -32 -14 0 9 20)
1969/12/31/18:00:23.051000,(-8 -6 -24 -35 -49 -8 -3 -5)
1969/12/31/18:00:23.072000,(55 24 6 1 4 4 16 33)
1969/12/31/18:00:23.072000,(-10 5 15 36 1 6 -4 -13)
1969/12/31/18:00:23.073000,(-40 -33 -3 -5 -11 -19 -31 -37)
1969/12/31/18:00:23.073000,(55 27 -3 -5 15 6 19 33)
1969/12/31/18:00:23.096000,(-26 -17 -20 -44 -21 -1 -4 -22)
1969/12/31/18:00:23.096000,(18 -5 -9 -31 5 6 12 34)
1969/12/31/18:00:23.096000,(34 26 -3 -4 15 8 7 8)
1969/12/31/18:00:23.096000,(-22 4 18 41 -14 -5 -10 -10)
1969/12/31/18:00:23.126000,(-18 -9 4 5 3 -12 -19 -17)
1969/12/31/18:00:23.126000,(26 11 8 19 19 14 21 24)
1969/12/31/18:00:23.126000,(-35 -15 -3 -23 -4 -2 -9 -18)
1969/12/31/18:00:23.126000,(4 -4 -33 -120 -30 -3 1 1)
1969/12/31/18:00:23.132000,(16 11 13 62 8 1 8 16)
1969/12/31/18:00:23.132000,(-21 -5 31 88 42 6 -4 -9)
1969/12/31/18:00:23.133000,(17 17 13 22 -2 3 2 6)
1969/12/31/18:00:23.133000,(-28 -10 -18 -19 -1 -13 -18 -21)
1969/12/31/18:00:23.156000,(12 5 -8 -51 -8 10 -2 -15)
1969/12/31/18:00:23.156000,(-13 -11 -8 -20 -12 -2 9 16)
1969/12/31/18:00:23.156000,(-7 -6 -4 -1 1 -3 -2 -4)
1969/12/31/18:00:23.156000,(-64 -52 -2 13 6 3 -3 -23)
1969/12/31/18:00:23.170000,(93 72 4 -18 -3 8 26 64)
1969/12/31/18:00:23.170000,(9 -5 -10 3 -10 -18 -29 -32)
1969/12/31/18:00:23.171000,(16 10 3 -9 8 10 12 18)
1969/12/31/18:00:23.171000,(12 6 -2 15 18 4 5 0)
1969/12/31/18:00:23.192000,(-19 -17 10 14 -10 6 6 3)
1969/12/31/18:00:23.193000,(-13 -5 5 3 4 -5 -4 -7)
1969/12/31/18:00:23.193000,(11 5 3 -5 -12 3 13 24)
1969/12/31/18:00:23.193000,(47 36 4 26 17 5 2 5)
1969/12/31/18:00:23.216000,(-68 -39 -6 2 10 0 -12 -32)
1969/12/31/18:00:23.216000,(29 26 6 -5 -6 -1 -3 0)
1969/12/31/18:00:23.216000,(-5 -10 -8 -1 -3 -8 -13 -13)
1969/12/31/18:00:23.216000,(-39 -41 0 0 -2 5 16 21)
1969/12/31/18:00:23.230000,(79 78 2 -17 -3 5 20 48)
1969/12/31/18:00:23.230000,(-54 -13 -13 -9 -15 -19 -27 -25)
1969/12/31/18:00:23.231000,(-19 -1 11 5 9 4 0 -15)
1969/12/31/18:00:23.231000,(12 7 4 12 6 10 16 22)
1969/12/31/18:00:23.253000,(-22 -28 -8 -7 -2 0 -2 -9)
1969/12/31/18:00:23.253000,(-22 -12 -4 -17 -9 -1 -1 -1)
1969/12/31/18:00:23.253000,(18 12 0 14 5 4 7 8)
1969/12/31/18:00:23.253000,(-11 1 7 12 -4 -15 -15 -10)
1969/12/31/18:00:23.275000,(-40 -42 -11 -16 -11 -16 -21 -28)
1969/12/31/18:00:23.276000,(41 28 1 2 10 21 33 38)
1969/12/31/18:00:23.276000,(-36 -16 -4 4 -3 -13 -23 -39)
1969/12/31/18:00:23.276000,(72 56 25 21 17 28 44 57)
1969/12/31/18:00:23.290000,(-39 -30 -21 -17 -9 -10 -18 -30)
1969/12/31/18:00:23.290000,(77 27 4 1 -8 -11 -2 27)
1969/12/31/18:00:23.291000,(-1 -22 6 7 4 1 -2 -4)
1969/12/31/18:00:23.291000,(-71 -48 -7 1 -3 3 -1 -11)
1969/12/31/18:00:23.313000,(61 44 -5 -11 -8 -11 -15 3)
1969/12/31/18:00:23.313000,(-38 -24 2 -8 -7 0 1 -8)
1969/12/31/18:00:23.313000,(11 10 -7 -1 4 6 9 12)
1969/12/31/18:00:23.313000,(7 -2 -3 10 3 -12 -18 -6)
1969/12/31/18:00:23.336000,(-85 -66 -2 2 5 6 5 -21)
1969/12/31/18:00:23.336000,(60 37 -6 -13 2 -4 0 14)
1969/12/31/18:00:23.336000,(-15 -7 4 -1 -20 -10 -11 -9)
1969/12/31/18:00:23.336000,(36 26 10 31 11 7 9 10)
1969/12/31/18:00:23.350000,(-61 -21 -3 0 4 1 -1 -18)
1969/12/31/18:00:23.350000,(-14 -24 7 18 7 9 10 7)
1969/12/31/18:00:23.351000,(-10 -3 -17 -15 -2 -2 -1 -7)
1969/12/31/18:00:23.351000,(47 24 -6 -26 -15 -6 -9 0)
1969/12/31/18:00:23.372000,(-31 -37 -4 3 -1 4 1 -3)
1969/12/31/18:00:23.372000,(2 19 3 -9 -5 -7 -6 -2)
1969/12/31/18:00:23.373000,(-38 -26 -1 1 11 12 12 -1)
1969/12/31/18:00:23.373000,(32 43 -7 -21 -11 -3 -3 2)
1969/12/31/18:00:23.396000,(8 -1 -4 -9 -10 -11 -6 -3)
1969/12/31/18:00:23.396000,(-30 -16 6 14 3 0 -5 -17)
1969/12/31/18:00:23.396000,(23 9 10 9 7 -2 0 15)
1969/12/31/18:00:23.396000,(-77 -54 -36 -31 -5 -6 -16 -34)
1969/12/31/18:00:23.410000,(109 62 26 24 10 11 20 45)
1969/12/31/18:00:23.410000,(-31 -24 -2 10 -6 -4 -9 -25)
1969/12/31/18:00:23.411000,(5 10 5 6 0 -6 -8 3)
1969/12/31/18:00:23.411000,(-13 -20 -7 -12 -6 -7 -7 -9)
1969/12/31/18:00:23.432000,(-1 2 -7 -20 -9 -9 -9 -2)
1969/12/31/18:00:23.432000,(-77 -39 -3 9 13 16 5 -23)
1969/12/31/18:00:23.433000,(88 46 19 16 15 17 28 46)
1969/12/31/18:00:23.433000,(-106 -84 0 -1 -2 6 3 -12)
1969/12/31/18:00:23.456000,(78 71 9 -2 -4 -6 -1 21)
1969/12/31/18:00:23.456000,(-37 -31 -10 -7 -4 -6 -7 -8)
1969/12/31/18:00:23.457000,(-27 -20 -12 -12 -6 -6 -9 -13)
1969/12/31/18:00:23.457000,(4 17 12 12 13 9 3 -15)
1969/12/31/18:00:23.471000,(-18 -10 4 1 -17 -9 -11 -9)
1969/12/31/18:00:23.471000,(14 -7 -15 -42 -17 3 16 19)
1969/12/31/18:00:23.477000,(-13 -15 -15 -6 4 -7 -11 -19)
1969/12/31/18:00:23.478000,(26 25 -3 -10 -12 -11 -11 -3)
1969/12/31/18:00:23.493000,(-9 -1 39 81 42 24 16 6)
1969/12/31/18:00:23.493000,(82 68 15 40 17 -4 -6 16)
1969/12/31/18:00:23.493000,(-79 -35 5 4 -4 -3 -7 -28)
1969/12/31/18:00:23.493000,(-41 -13 -16 -23 -11 -13 -22 -36)
1969/12/31/18:00:23.516000,(84 55 -9 -44 -12 4 19 53)
1969/12/31/18:00:23.516000,(-37 -26 -9 -14 -15 -11 -13 -21)
1969/12/31/18:00:23.516000,(-13 17 0 0 6 8 14 12)
1969/12/31/18:00:23.516000,(37 21 9 10 4 0 1 16)
1969/12/31/18:00:23.530000,(-55 -47 -21 -27 -15 -10 -12 -22)
1969/12/31/18:00:23.530000,(25 18 3 6 13 23 27 24)
1969/12/31/18:00:23.531000,(10 -3 -7 -11 -11 -11 -11 -2)
1969/12/31/18:00:23.531000,(3 -2 9 5 7 2 0 -4)
1969/12/31/18:00:23.553000,(-32 -12 4 11 -24 -14 -15 -21)
1969/12/31/18:00:23.553000,(17 9 10 31 24 8 10 16)
1969/12/31/18:00:23.553000,(-4 -7 6 -1 10 15 16 17)
1969/12/31/18:00:23.553000,(34 26 -9 -6 -6 -6 -1 7)
1969/12/31/18:00:23.576000,(-39 -20 2 -7 18 15 5 -14)
1969/12/31/18:00:23.576000,(31 4 -8 -25 -26 -13 -6 7)
1969/12/31/18:00:23.576000,(27 16 -5 -10 -10 -11 -9 -2)
1969/12/31/18:00:23.576000,(-68 -38 5 16 4 -7 -16 -27)
1969/12/31/18:00:23.590000,(35 11 -6 -16 8 15 33 39)
1969/12/31/18:00:23.590000,(21 33 -10 -15 -5 -1 -10 -15)
1969/12/31/18:00:23.591000,(19 11 10 19 0 -5 -7 7)
1969/12/31/18:00:23.591000,(30 8 0 -35 -18 -5 -1 7)
1969/12/31/18:00:23.612000,(-18 -16 -12 9 -1 -10 -11 -15)
1969/12/31/18:00:23.612000,(-23 -5 10 20 18 20 21 15)
1969/12/31/18:00:23.613000,(10 1 2 0 5 3 2 3)
1969/12/31/18:00:23.613000,(5 9 13 45 10 2 0 4)
1969/12/31/18:00:23.636000,(-31 -20 2 6 -2 -9 -16 -22)
1969/12/31/18:00:23.636000,(-6 -11 -9 -24 -14 -14 -9 -3)
1969/12/31/18:00:23.636000,(-50 -31 -5 -6 -6 -2 -4 -20)
1969/12/31/18:00:23.636000,(-2 13 -2 -10 0 3 9 2)
1969/12/31/18:00:23.650000,(31 3 -15 -20 -4 -5 -7 2)
1969/12/31/18:00:23.650000,(-83 -54 0 5 -5 -9 -15 -32)
1969/12/31/18:00:23.651000,(69 54 0 -11 -5 2 2 16)
1969/12/31/18:00:23.651000,(-7 1 -2 5 -2 -7 -14 -18)
1969/12/31/18:00:23.673000,(-8 -2 1 5 7 7 8 6)
1969/12/31/18:00:23.673000,(-61 -33 -2 1 -11 -10 -21 -40)
1969/12/31/18:00:23.673000,(43 10 -9 -1 1 -3 5 36)
1969/12/31/18:00:23.673000,(-28 -8 3 2 4 1 -9 -21)
1969/12/31/18:00:23.696000,(16 13 -17 -69 -18 3 5 9)
1969/12/31/18:00:23.696000,(-11 -15 8 56 13 -5 -5 -9)
1969/12/31/18:00:23.696000,(-22 -1 21 48 12 -4 -6 -13)
1969/12/31/18:00:23.696000,(46 22 4 17 11 5 10 25)
1969/12/31/18:00:23.709000,(-31 -21 -4 -5 -3 -5 -9 -16)
1969/12/31/18:00:23.709000,(4 2 -8 -33 3 -2 -3 2)
1969/12/31/18:00:23.718000,(-3 -4 -8 -27 -27 0 6 2)
1969/12/31/18:00:23.718000,(10 -21 14 17 7 2 6 13)
1969/12/31/18:00:23.733000,(48 42 7 7 4 5 20 29)
1969/12/31/18:00:23.733000,(39 19 -14 -16 2 -2 -7 9)
1969/12/31/18:00:23.733000,(-67 -37 -4 8 3 -11 -25 -52)
1969/12/31/18:00:23.733000,(30 -8 -1 -11 -5 14 30 45)
1969/12/31/18:00:23.756000,(94 92 20 16 12 12 10 32)
1969/12/31/18:00:23.756000,(-19 -11 1 4 -5 -11 -19 -21)
1969/12/31/18:00:23.756000,(-8 -8 1 -8 1 7 8 2)
1969/12/31/18:00:23.756000,(-18 -8 -12 -10 -13 -12 -16 -17)
1969/12/31/18:00:23.769000,(-42 -33 0 11 5 -2 -2 -9)
1969/12/31/18:00:23.769000,(28 22 7 4 -3 9 15 23)
1969/12/31/18:00:23.777000,(-5 4 0 -12 -9 -9 -11 -11)
1969/12/31/18:00:23.777000,(-2 4 1 5 7 4 6 6)
1969/12/31/18:00:23.793000,(-37 -35 -2 15 9 1 -2 -14)
1969/12/31/18:00:23.793000,(28 12 1 -5 6 14 15 20)
1969/12/31/18:00:23.793000,(-21 -25 -14 -27 -16 -6 -3 -5)
1969/12/31/18:00:23.793000,(11 9 0 8 0 -8 -9 0)
1969/12/31/18:00:23.815000,(-65 -31 5 15 5 1 -11 -37)
1969/12/31/18:00:23.815000,(42 23 2 0 -1 2 11 30)
1969/12/31/18:00:23.816000,(-32 -18 -6 -1 4 -1 -11 -26)
