time,.data
1969/12/31/18:00:07.883,(0 0 1 1 0 1 -1 -2)
1969/12/31/18:00:07.883,(-3 -9 -9 -3 -3 -3 0 -1)
1969/12/31/18:00:07.885,(0 5 5 1 -1 -1 0 1)
1969/12/31/18:00:07.885,(0 0 -4 0 -2 0 -1 1)
1969/12/31/18:00:07.913,(0 0 7 2 0 0 -1 0)
1969/12/31/18:00:07.913,(-1 0 -1 -1 -2 -1 -1 -1)
1969/12/31/18:00:07.914,(-1 -3 -5 -2 -1 -1 0 0)
1969/12/31/18:00:07.914,(-1 0 -1 -4 -1 -1 -2 -3)
1969/12/31/18:00:07.919,(-2 -2 -3 0 -3 -2 -1 -1)
1969/12/31/18:00:07.919,(-2 -1 1 1 -2 -2 -3 -3)
1969/12/31/18:00:07.928,(-2 -4 -3 -2 -2 0 -2 -4)
1969/12/31/18:00:07.928,(-1 0 2 0 0 -2 -1 0)
1969/12/31/18:00:07.943,(-1 -1 -4 -2 -1 -2 -1 -1)
1969/12/31/18:00:07.943,(-3 1 2 2 1 -1 -2 -1)
1969/12/31/18:00:07.944,(-1 0 -2 -1 0 -3 1 -1)
1969/12/31/18:00:07.944,(-2 -1 -2 -2 -3 -3 0 -3)
1969/12/31/18:00:07.966,(-3 -4 -6 -4 -2 0 -1 -1)
1969/12/31/18:00:07.966,(0 0 3 2 0 1 0 1)
1969/12/31/18:00:07.967,(0 -2 1 1 1 0 -1 -1)
1969/12/31/18:00:07.967,(-3 -3 -1 1 0 -1 0 -1)
1969/12/31/18:00:07.980,(-2 -1 0 -2 -3 -1 -1 0)
1969/12/31/18:00:07.980,(2 3 4 -1 0 1 0 1)
1969/12/31/18:00:07.994,(-3 -1 -1 -1 -1 0 -2 -2)
1969/12/31/18:00:07.994,(-1 -4 -2 -2 -2 -1 -1 0)
1969/12/31/18:00:08.003,(-1 -1 0 -2 -1 -3 -1 -1)
1969/12/31/18:00:08.003,(1 -2 -9 -5 -2 -2 -1 1)
1969/12/31/18:00:08.004,(-1 2 14 5 0 -1 -1 -2)
1969/12/31/18:00:08.004,(0 2 -1 1 -1 -1 -3 -1)
1969/12/31/18:00:08.025,(-2 -1 -5 0 0 -1 0 -2)
1969/12/31/18:00:08.025,(-2 -2 0 -1 -1 -1 0 -2)
1969/12/31/18:00:08.027,(-2 -3 -3 -2 0 1 1 1)
1969/12/31/18:00:08.027,(-1 -2 -2 -1 -1 -3 -2 -1)
1969/12/31/18:00:08.039,(0 -2 0 1 -1 -1 0 -1)
1969/12/31/18:00:08.039,(1 1 -1 -1 -1 -2 -2 -2)
1969/12/31/18:00:08.048,(-2 -1 -3 -3 -2 -1 -1 0)
1969/12/31/18:00:08.048,(0 1 2 -1 -1 -1 1 -2)
1969/12/31/18:00:08.063,(-2 -1 -3 -1 2 -1 0 -1)
1969/12/31/18:00:08.063,(-3 -3 -2 -2 -1 -2 -2 -1)
1969/12/31/18:00:08.064,(2 0 1 1 -1 -1 -1 1)
1969/12/31/18:00:08.065,(1 -1 1 -1 0 0 -1 1)
1969/12/31/18:00:08.085,(0 0 1 0 -1 0 0 -1)
1969/12/31/18:00:08.085,(-3 0 -1 -2 -1 -1 -1 -2)
1969/12/31/18:00:08.087,(-1 0 -2 -1 0 -1 -1 -3)
1969/12/31/18:00:08.087,(-2 -2 -2 -1 -2 -1 -1 -1)
1969/12/31/18:00:08.099,(1 -2 -4 -1 -2 0 -1 0)
1969/12/31/18:00:08.099,(-3 -3 -2 -2 -1 -1 -2 -1)
1969/12/31/18:00:08.108,(0 1 -3 -1 -2 -1 -1 0)
1969/12/31/18:00:08.108,(-3 -1 5 -1 0 -1 0 -2)
1969/12/31/18:00:08.123,(1 1 0 -3 -1 0 -2 -1)
1969/12/31/18:00:08.123,(-3 -3 -4 -1 -2 -2 -1 0)
1969/12/31/18:00:08.124,(-3 -2 -7 -8 -3 -1 -2 -2)
1969/12/31/18:00:08.124,(0 1 1 3 2 -2 0 0)
1969/12/31/18:00:08.153,(0 0 1 1 1 0 -1 0)
1969/12/31/18:00:08.153,(1 3 3 1 -1 -2 -1 -2)
1969/12/31/18:00:08.154,(-1 -3 -2 -1 -1 -1 -1 0)
1969/12/31/18:00:08.154,(-1 -1 -2 -4 -1 1 0 1)
1969/12/31/18:00:08.159,(-4 -3 -5 -5 -2 -1 -2 -3)
1969/12/31/18:00:08.159,(0 -1 -1 -2 -4 0 0 0)
1969/12/31/18:00:08.168,(-4 -1 -2 -1 5 -1 -2 -3)
1969/12/31/18:00:08.168,(0 0 -2 1 -1 1 -1 -1)
1969/12/31/18:00:08.183,(0 -2 -2 -11 -15 -6 -3 0)
1969/12/31/18:00:08.183,(-1 1 4 16 30 11 9 1)
1969/12/31/18:00:08.184,(0 -2 -5 -19 -39 -8 -1 0)
1969/12/31/18:00:08.184,(-1 0 3 16 39 9 3 1)
1969/12/31/18:00:08.205,(0 1 4 5 -3 0 -3 0)
1969/12/31/18:00:08.206,(-3 -3 -1 -2 0 -3 -4 -2)
1969/12/31/18:00:08.207,(0 -1 -1 1 3 -2 0 -1)
1969/12/31/18:00:08.207,(-3 -2 -5 -12 -18 -3 1 -1)
1969/12/31/18:00:08.219,(-1 -3 -2 0 -2 0 0 -1)
1969/12/31/18:00:08.219,(-2 -1 -2 -4 -7 -3 -3 -1)
1969/12/31/18:00:08.235,(0 -1 0 2 9 1 1 0)
1969/12/31/18:00:08.235,(-1 -3 -6 -5 -6 -3 -4 -2)
1969/12/31/18:00:08.243,(-4 -3 -4 -5 3 3 -1 -2)
1969/12/31/18:00:08.243,(4 6 8 -2 -9 -11 -8 -3)
1969/12/31/18:00:08.244,(1 4 2 6 5 11 9 4)
1969/12/31/18:00:08.244,(-10 -18 -6 -13 -18 0 2 -5)
1969/12/31/18:00:08.266,(2 9 5 2 -27 5 7 2)
1969/12/31/18:00:08.266,(12 16 7 19 52 7 0 5)
1969/12/31/18:00:08.267,(-7 -7 -1 11 -2 -11 -16 -7)
1969/12/31/18:00:08.267,(5 2 1 6 40 1 9 2)
1969/12/31/18:00:08.279,(-2 -5 2 3 -6 7 3 0)
1969/12/31/18:00:08.279,(-8 -9 -10 -12 -29 -15 -29 -11)
1969/12/31/18:00:08.288,(-3 -2 -8 -37 -62 -9 -2 -6)
1969/12/31/18:00:08.288,(4 2 8 23 53 19 24 12)
1969/12/31/18:00:08.303,(1 -1 -2 -8 -13 4 11 8)
1969/12/31/18:00:08.303,(-7 -3 3 25 59 -40 -55 -17)
1969/12/31/18:00:08.304,(-1 -5 -10 -22 -33 -2 13 5)
1969/12/31/18:00:08.304,(4 7 12 32 41 50 14 3)
1969/12/31/18:00:08.326,(0 0 1 6 20 -25 -31 -12)
1969/12/31/18:00:08.326,(-3 -7 -9 -21 -65 5 17 2)
1969/12/31/18:00:08.327,(-5 -7 -3 0 16 -25 -5 -8)
1969/12/31/18:00:08.327,(0 -4 -7 -28 -52 -4 -9 2)
1969/12/31/18:00:08.339,(0 -1 -6 1 33 29 10 7)
1969/12/31/18:00:08.339,(-2 2 13 8 -11 -53 1 -1)
1969/12/31/18:00:08.348,(-4 -4 -3 3 18 38 -16 -8)
1969/12/31/18:00:08.348,(0 3 -4 -12 -24 -13 1 0)
1969/12/31/18:00:08.363,(-5 -9 -12 -18 -5 -4 -8 -8)
1969/12/31/18:00:08.363,(0 0 1 -17 -30 18 14 0)
1969/12/31/18:00:08.369,(3 3 3 18 21 -7 1 1)
1969/12/31/18:00:08.369,(0 0 -4 -4 -19 1 -5 -3)
1969/12/31/18:00:08.384,(0 -1 6 1 -14 -12 5 2)
1969/12/31/18:00:08.384,(-2 -4 -14 -7 6 11 -7 -3)
1969/12/31/18:00:08.393,(-4 -4 -7 -19 -2 -12 -2 1)
1969/12/31/18:00:08.393,(0 4 -9 -15 -30 -15 -7 -2)
1969/12/31/18:00:08.399,(1 3 28 37 15 -2 -5 -1)
1969/12/31/18:00:08.399,(2 0 -15 -15 -8 28 45 13)
1969/12/31/18:00:08.408,(2 -1 12 12 40 7 -4 4)
1969/12/31/18:00:08.408,(-5 -3 -7 -15 -38 -34 -13 -9)
1969/12/31/18:00:08.431,(5 8 21 57 47 9 2 6)
1969/12/31/18:00:08.431,(-2 -7 -8 -6 9 8 -1 2)
1969/12/31/18:00:08.432,(0 -2 -10 1 -14 -6 -8 -5)
1969/12/31/18:00:08.432,(-3 -5 -6 -17 -7 -7 2 1)
1969/12/31/18:00:08.453,(-3 3 0 -3 -1 2 0 -6)
1969/12/31/18:00:08.453,(0 -12 0 25 9 22 15 15)
1969/12/31/18:00:08.454,(-4 -7 -26 -48 -12 -5 0 -3)
1969/12/31/18:00:08.455,(-2 -4 -14 15 5 -7 -8 -9)
1969/12/31/18:00:08.468,(0 4 20 4 -3 1 4 3)
1969/12/31/18:00:08.468,(0 0 1 -7 -7 -4 -6 -4)
1969/12/31/18:00:08.470,(1 0 -23 -19 2 1 10 4)
1969/12/31/18:00:08.470,(1 8 52 29 12 -3 -8 0)
1969/12/31/18:00:08.482,(-6 -10 -16 -25 -12 -8 -6 -6)
1969/12/31/18:00:08.482,(-5 2 6 -1 -2 -2 -3 -3)
1969/12/31/18:00:08.489,(1 3 9 19 9 6 6 3)
1969/12/31/18:00:08.489,(-4 -11 -16 -15 -5 -4 -9 -6)
1969/12/31/18:00:08.505,(-13 -90 -76 -37 -17 -6 -2 -4)
1969/12/31/18:00:08.505,(-1 16 11 2 0 5 4 0)
1969/12/31/18:00:08.511,(14 54 36 29 11 4 3 3)
1969/12/31/18:00:08.511,(4 10 -25 -10 -1 -2 -5 1)
1969/12/31/18:00:08.528,(3 14 -18 -15 -9 -5 2 -1)
1969/12/31/18:00:08.528,(-22 -97 -91 -38 -13 -4 -6 -7)
1969/12/31/18:00:08.529,(15 64 44 25 8 3 -1 1)
1969/12/31/18:00:08.529,(13 44 46 28 13 5 5 3)
1969/12/31/18:00:08.542,(-10 -20 -32 -17 -7 -4 -3 -7)
1969/12/31/18:00:08.542,(-12 2 2 -4 -3 1 -1 -16)
1969/12/31/18:00:08.549,(2 -46 -22 1 -4 -1 0 11)
1969/12/31/18:00:08.549,(-15 -43 -31 -14 -6 -2 -5 -5)
1969/12/31/18:00:08.566,(9 9 11 -2 -5 -4 0 10)
1969/12/31/18:00:08.566,(-38 4 16 7 3 1 -19 -69)
1969/12/31/18:00:08.567,(45 2 14 11 6 11 35 85)
1969/12/31/18:00:08.567,(-21 -5 -3 -5 -3 -15 -38 -49)
1969/12/31/18:00:08.596,(-49 -16 8 5 3 -2 2 -4)
1969/12/31/18:00:08.596,(32 12 9 1 -2 -2 5 22)
1969/12/31/18:00:08.597,(-29 -8 -8 2 3 -3 -24 -76)
1969/12/31/18:00:08.597,(41 11 -3 -5 -1 9 37 98)
1969/12/31/18:00:08.602,(-5 34 19 7 6 1 -6 -23)
1969/12/31/18:00:08.602,(38 29 14 7 3 1 1 20)
1969/12/31/18:00:08.609,(-47 -28 -10 -3 -4 -7 -7 -14)
1969/12/31/18:00:08.609,(31 -10 -13 -6 0 2 15 16)
1969/12/31/18:00:08.625,(-11 11 14 -1 -1 -2 -6 -20)
1969/12/31/18:00:08.625,(47 35 21 9 7 7 22 55)
1969/12/31/18:00:08.627,(30 -1 -6 2 1 1 -4 2)
1969/12/31/18:00:08.627,(-77 -30 -13 -11 -10 -7 -18 -68)
1969/12/31/18:00:08.648,(43 21 7 -1 -3 -14 -12 16)
1969/12/31/18:00:08.648,(-12 -23 -4 -5 -3 -3 10 5)
1969/12/31/18:00:08.649,(-16 -3 2 4 3 37 15 -15)
1969/12/31/18:00:08.650,(-3 6 -4 -6 -2 14 20 10)
1969/12/31/18:00:08.662,(22 13 6 0 -2 -27 -29 10)
1969/12/31/18:00:08.662,(-15 -5 -5 -6 -7 -18 -26 -15)
1969/12/31/18:00:08.669,(4 -17 -2 -2 -4 -1 5 -3)
1969/12/31/18:00:08.669,(24 21 11 8 13 5 -23 4)
1969/12/31/18:00:08.686,(-18 4 5 2 -2 -8 16 1)
1969/12/31/18:00:08.686,(20 2 4 5 1 8 14 10)
1969/12/31/18:00:08.687,(20 -13 -16 -8 -7 -20 -6 37)
1969/12/31/18:00:08.687,(-45 -19 -3 0 1 -1 -8 -39)
1969/12/31/18:00:08.708,(-5 10 1 -4 0 11 3 -1)
1969/12/31/18:00:08.708,(-36 -32 -5 1 0 -19 -30 -46)
1969/12/31/18:00:08.709,(-5 0 7 4 1 9 10 -12)
1969/12/31/18:00:08.709,(52 44 4 -3 -7 -7 6 46)
1969/12/31/18:00:08.722,(-3 -8 0 -1 -3 -10 7 15)
1969/12/31/18:00:08.722,(-1 -2 -9 -6 5 54 29 -15)
1969/12/31/18:00:08.731,(-19 -5 -5 1 -3 -31 -27 -28)
1969/12/31/18:00:08.731,(-35 -14 6 7 2 -24 -19 -17)
1969/12/31/18:00:08.746,(-24 -23 -8 -7 -6 -1 5 -24)
1969/12/31/18:00:08.746,(7 19 -1 -5 -11 -48 -16 -1)
1969/12/31/18:00:08.747,(-1 6 2 1 8 50 12 -1)
1969/12/31/18:00:08.747,(-2 -11 7 6 6 11 2 18)
1969/12/31/18:00:08.768,(26 -10 -6 -1 1 26 7 19)
1969/12/31/18:00:08.768,(11 19 7 0 -1 5 12 18)
1969/12/31/18:00:08.770,(-52 -39 -2 3 6 -4 -8 -26)
1969/12/31/18:00:08.770,(13 10 5 3 3 2 -20 -30)
1969/12/31/18:00:08.782,(19 -15 -5 3 3 8 0 29)
1969/12/31/18:00:08.782,(30 34 2 -4 -7 -2 27 23)
1969/12/31/18:00:08.791,(-10 10 9 -1 -5 -16 2 23)
1969/12/31/18:00:08.791,(-52 -51 -13 -6 -1 14 -2 -25)
1969/12/31/18:00:08.806,(-24 16 3 -1 -2 -24 -5 -25)
1969/12/31/18:00:08.806,(49 -9 -8 -5 -5 11 6 52)
1969/12/31/18:00:08.807,(42 38 2 -3 -3 -14 -2 7)
1969/12/31/18:00:08.807,(32 -13 0 2 -2 -1 2 20)
1969/12/31/18:00:08.828,(-31 15 -2 -3 3 22 0 -25)
1969/12/31/18:00:08.828,(-66 -25 4 6 6 6 -20 -23)
1969/12/31/18:00:08.829,(0 -22 -17 -11 -12 -44 -34 -9)
1969/12/31/18:00:08.829,(21 24 9 3 1 -9 -8 3)
1969/12/31/18:00:08.842,(-26 -16 -5 -4 -1 7 -8 -31)
1969/12/31/18:00:08.842,(29 12 9 4 -5 -32 -26 24)
1969/12/31/18:00:08.851,(14 4 -1 3 6 29 11 22)
1969/12/31/18:00:08.851,(-42 -14 -2 -2 -4 -4 -2 -44)
1969/12/31/18:00:08.865,(31 37 6 0 -5 -15 -19 -9)
1969/12/31/18:00:08.865,(-55 -23 -6 -5 2 4 -12 -38)
1969/12/31/18:00:08.873,(16 -9 -4 -2 -2 -5 -11 7)
1969/12/31/18:00:08.873,(58 23 -3 -4 -5 -7 33 77)
1969/12/31/18:00:08.888,(35 -32 -14 -6 -2 10 18 41)
1969/12/31/18:00:08.888,(-9 -9 -3 -2 2 2 15 46)
1969/12/31/18:00:08.889,(-15 8 5 1 -4 -3 -6 -53)
1969/12/31/18:00:08.889,(-1 -2 -4 -2 7 21 21 -16)
1969/12/31/18:00:08.902,(23 10 10 4 -6 -54 -16 6)
1969/12/31/18:00:08.902,(-22 -15 -12 -2 3 20 -2 -16)
1969/12/31/18:00:08.910,(20 5 1 2 1 -4 -10 21)
1969/12/31/18:00:08.910,(6 -14 -14 -11 -13 -21 6 44)
1969/12/31/18:00:08.925,(9 17 8 2 5 23 24 26)
1969/12/31/18:00:08.925,(-52 9 18 18 19 25 25 -54)
1969/12/31/18:00:08.927,(-27 4 -8 -10 -10 -14 -20 -70)
1969/12/31/18:00:08.927,(0 -34 -15 -10 -7 8 -9 3)
1969/12/31/18:00:08.948,(14 -9 -7 -7 -10 -10 -11 -1)
1969/12/31/18:00:08.948,(-22 1 9 7 4 -2 -3 -3)
1969/12/31/18:00:08.949,(17 0 -10 -3 1 4 7 14)
1969/12/31/18:00:08.949,(-21 -8 -2 1 0 -5 -8 -31)
1969/12/31/18:00:08.961,(-22 19 12 3 4 5 0 -21)
1969/12/31/18:00:08.961,(92 25 0 -4 -7 -7 0 57)
1969/12/31/18:00:08.986,(-20 -6 -2 -5 -6 -9 -22 -60)
1969/12/31/18:00:08.986,(-21 19 12 12 9 -20 -15 -28)
1969/12/31/18:00:08.987,(4 -30 -11 -4 3 38 26 33)
1969/12/31/18:00:08.987,(-18 8 0 -2 -3 -7 -14 -37)
1969/12/31/18:00:08.988,(46 14 8 2 3 2 18 69)
1969/12/31/18:00:08.988,(25 18 6 4 6 4 11 16)
1969/12/31/18:00:09.008,(-65 -32 -16 -7 -3 16 4 -60)
1969/12/31/18:00:09.008,(49 0 -1 -5 -7 -1 4 74)
1969/12/31/18:00:09.009,(-39 -16 -6 -4 -6 -9 -13 -36)
1969/12/31/18:00:09.010,(-10 2 1 -1 0 4 3 -13)
1969/12/31/18:00:09.022,(13 16 5 3 1 -2 3 26)
1969/12/31/18:00:09.022,(-5 3 0 -2 -3 -5 -1 -32)
1969/12/31/18:00:09.030,(-30 -20 -4 1 3 0 5 -2)
1969/12/31/18:00:09.030,(-3 12 6 1 0 0 -11 -29)
1969/12/31/18:00:09.045,(-1 -11 -10 -5 -10 -10 -3 -27)
1969/12/31/18:00:09.045,(-87 -38 -12 -6 -6 -12 -12 -46)
1969/12/31/18:00:09.047,(36 14 2 -2 -2 0 3 26)
1969/12/31/18:00:09.047,(-17 0 -3 -4 -5 -8 -6 -18)
1969/12/31/18:00:09.069,(11 10 5 0 4 2 -4 7)
1969/12/31/18:00:09.069,(12 14 4 2 1 4 21 25)
1969/12/31/18:00:09.071,(-14 -11 -2 -1 -1 3 0 -20)
1969/12/31/18:00:09.071,(-7 -5 -4 -3 -4 -1 -1 -5)
1969/12/31/18:00:09.090,(4 -5 -5 -2 -4 -12 -18 -7)
1969/12/31/18:00:09.090,(12 15 6 1 0 -2 -10 -12)
1969/12/31/18:00:09.091,(-36 -18 0 6 7 7 4 -28)
1969/12/31/18:00:09.091,(10 -2 -6 -4 0 10 12 21)
1969/12/31/18:00:09.105,(33 10 5 0 -3 -8 -7 21)
1969/12/31/18:00:09.105,(-68 -34 3 4 5 2 8 8)
1969/12/31/18:00:09.105,(42 25 4 3 0 0 2 -33)
1969/12/31/18:00:09.105,(-49 6 -1 -3 -4 -6 -9 -15)
1969/12/31/18:00:09.127,(81 18 1 0 1 -6 12 39)
1969/12/31/18:00:09.127,(-37 -8 -5 -4 2 22 -20 -40)
1969/12/31/18:00:09.128,(8 21 8 2 -9 -26 -4 41)
1969/12/31/18:00:09.128,(-10 -60 -19 -7 -5 -1 6 45)
1969/12/31/18:00:09.150,(-15 13 4 4 2 -1 9 8)
1969/12/31/18:00:09.150,(32 -16 -11 -8 -11 -39 -26 6)
1969/12/31/18:00:09.151,(-9 -3 -6 -7 2 56 16 14)
1969/12/31/18:00:09.151,(23 24 9 1 -5 -20 -38 -23)
1969/12/31/18:00:09.165,(46 11 3 6 5 13 22 63)
1969/12/31/18:00:09.165,(3 5 0 3 2 -5 12 3)
1969/12/31/18:00:09.166,(-24 -10 -6 -7 -4 -9 -11 -42)
1969/12/31/18:00:09.166,(88 46 15 6 2 3 9 6)
1969/12/31/18:00:09.187,(-74 -53 -14 -7 -4 -8 -21 -61)
1969/12/31/18:00:09.187,(-3 -1 5 5 5 6 -6 -19)
1969/12/31/18:00:09.188,(85 23 1 3 1 -6 13 50)
1969/12/31/18:00:09.188,(-41 -34 -13 -7 -4 3 5 34)
1969/12/31/18:00:09.210,(-23 7 4 -1 -1 -8 -3 4)
1969/12/31/18:00:09.210,(24 29 0 -3 -4 6 5 -14)
1969/12/31/18:00:09.210,(-47 -57 -9 2 6 8 -14 23)
1969/12/31/18:00:09.210,(-4 33 18 11 1 -17 42 -7)
1969/12/31/18:00:09.225,(26 -5 -14 -15 -17 -29 -90 -48)
1969/12/31/18:00:09.225,(64 -11 -15 -11 -9 -8 14 21)
1969/12/31/18:00:09.225,(12 31 18 11 10 9 19 37)
1969/12/31/18:00:09.225,(-23 -15 -1 5 5 8 4 -14)
1969/12/31/18:00:09.247,(-19 14 7 0 -2 -9 11 5)
1969/12/31/18:00:09.247,(-31 -14 -4 1 3 18 -4 -9)
1969/12/31/18:00:09.248,(-17 -23 -12 -7 -8 -20 -22 23)
1969/12/31/18:00:09.248,(5 4 -4 -1 8 18 5 -48)
1969/12/31/18:00:09.270,(-12 -5 -7 0 7 18 -10 -36)
1969/12/31/18:00:09.270,(19 15 6 6 -10 -15 7 7)
1969/12/31/18:00:09.271,(-17 -7 -4 2 5 2 -1 -34)
1969/12/31/18:00:09.271,(-43 10 3 -16 -17 1 -12 -38)
1969/12/31/18:00:09.286,(9 -20 -15 -15 -18 6 20 10)
1969/12/31/18:00:09.286,(1 14 16 12 31 29 1 3)
1969/12/31/18:00:09.287,(-2 1 6 31 49 -34 -14 11)
1969/12/31/18:00:09.287,(27 10 9 20 4 5 12 -13)
1969/12/31/18:00:09.307,(1 -1 -16 -40 -54 19 11 7)
1969/12/31/18:00:09.307,(-6 -15 -9 -20 -30 -1 -5 -26)
1969/12/31/18:00:09.308,(7 -14 -15 -21 -22 -12 -9 22)
1969/12/31/18:00:09.308,(-20 -12 -3 10 33 20 -7 30)
1969/12/31/18:00:09.330,(-14 1 13 31 27 -4 29 25)
1969/12/31/18:00:09.330,(12 2 -11 -16 -15 -18 -28 -8)
1969/12/31/18:00:09.330,(18 11 1 -1 -8 2 12 23)
1969/12/31/18:00:09.330,(4 3 4 3 5 -4 -11 -24)
1969/12/31/18:00:09.346,(-3 -3 0 -3 3 7 3 -6)
1969/12/31/18:00:09.346,(0 -4 -1 16 25 10 20 44)
1969/12/31/18:00:09.347,(-44 -1 9 3 -21 -15 -8 -73)
1969/12/31/18:00:09.347,(81 13 -5 -9 -3 7 23 114)
1969/12/31/18:00:09.367,(13 -6 -4 -8 -18 -30 -22 -44)
1969/12/31/18:00:09.367,(-4 8 4 4 13 25 -35 -15)
1969/12/31/18:00:09.368,(-15 -21 2 27 40 12 39 9)
1969/12/31/18:00:09.368,(-10 -4 -4 -19 -26 -9 -17 -12)
1969/12/31/18:00:09.390,(-14 5 0 -13 -5 -1 12 0)
1969/12/31/18:00:09.390,(2 13 3 -3 6 6 7 3)
1969/12/31/18:00:09.391,(27 18 2 -12 -16 14 17 19)
1969/12/31/18:00:09.391,(-22 -9 5 21 27 1 -30 -20)
1969/12/31/18:00:09.405,(-19 8 6 25 13 -15 14 -4)
1969/12/31/18:00:09.405,(29 -17 -14 -30 -55 -21 -5 -28)
1969/12/31/18:00:09.405,(8 16 7 2 14 16 5 9)
1969/12/31/18:00:09.405,(8 -8 -5 -4 -6 -15 2 10)
1969/12/31/18:00:09.427,(-16 4 6 8 14 5 -4 -8)
1969/12/31/18:00:09.427,(-24 -31 -18 10 2 -44 -9 5)
1969/12/31/18:00:09.428,(-8 6 -20 -23 -25 14 -12 -8)
1969/12/31/18:00:09.428,(-17 -1 34 3 -10 2 6 -12)
1969/12/31/18:00:09.450,(-24 -8 -6 13 14 -4 -13 -34)
1969/12/31/18:00:09.450,(53 37 18 11 2 -14 3 33)
1969/12/31/18:00:09.451,(5 23 25 9 9 14 14 12)
1969/12/31/18:00:09.451,(20 1 -32 -52 -56 -1 6 -8)
1969/12/31/18:00:09.465,(7 9 8 0 5 4 7 49)
1969/12/31/18:00:09.465,(-67 -23 -2 9 10 6 -10 -80)
1969/12/31/18:00:09.466,(29 -13 -13 -3 -7 -33 -13 -7)
1969/12/31/18:00:09.466,(14 -36 -47 0 15 5 2 16)
1969/12/31/18:00:09.487,(11 50 46 12 23 23 0 35)
1969/12/31/18:00:09.487,(-25 26 21 6 -8 6 -2 -70)
1969/12/31/18:00:09.488,(-28 -30 -17 -21 -26 -11 -23 -42)
1969/12/31/18:00:09.488,(-88 -7 14 13 16 -11 -27 -70)
1969/12/31/18:00:09.510,(26 -41 -54 -31 -33 -31 -15 4)
1969/12/31/18:00:09.510,(7 -19 -7 16 47 9 17 65)
1969/12/31/18:00:09.510,(0 -34 -4 -4 -13 23 25 50)
1969/12/31/18:00:09.511,(5 34 -14 -26 -25 -9 3 -21)
1969/12/31/18:00:09.525,(-7 8 9 -2 8 15 12 10)
1969/12/31/18:00:09.525,(12 -23 -2 17 19 -12 -3 8)
1969/12/31/18:00:09.525,(0 -40 -91 -34 -40 -23 -23 -18)
1969/12/31/18:00:09.525,(29 76 88 54 36 23 13 13)
1969/12/31/18:00:09.547,(49 -60 -41 -12 -16 1 14 61)
1969/12/31/18:00:09.547,(-20 71 77 14 -13 -3 3 -4)
1969/12/31/18:00:09.548,(-31 -47 -16 9 15 -12 1 -1)
1969/12/31/18:00:09.548,(21 59 52 25 17 -9 -6 24)
1969/12/31/18:00:09.570,(-24 31 5 -13 5 23 -14 -94)
1969/12/31/18:00:09.570,(9 -57 -38 -18 -24 -14 11 48)
1969/12/31/18:00:09.570,(23 31 15 0 0 -13 -21 -31)
1969/12/31/18:00:09.570,(21 -11 -16 -7 -6 4 12 60)
1969/12/31/18:00:09.585,(3 -15 3 28 9 -45 5 10)
1969/12/31/18:00:09.585,(-31 -27 -49 -45 -19 33 -3 -35)
1969/12/31/18:00:09.585,(-10 33 34 11 8 14 7 -16)
1969/12/31/18:00:09.586,(25 -48 -44 -12 -27 -29 8 10)
1969/12/31/18:00:09.607,(-36 -66 -57 -27 -35 -4 -12 -19)
1969/12/31/18:00:09.607,(10 93 63 26 3 -5 -7 -6)
1969/12/31/18:00:09.608,(-2 46 56 29 21 16 26 34)
1969/12/31/18:00:09.608,(-16 -74 -67 -22 -6 16 -3 -18)
1969/12/31/18:00:09.630,(-33 -45 -5 30 45 4 -2 -17)
1969/12/31/18:00:09.630,(-22 33 -1 -12 -27 -17 -9 -7)
1969/12/31/18:00:09.631,(-20 76 77 13 21 27 11 29)
1969/12/31/18:00:09.631,(2 -13 -20 -4 -21 -25 -27 -43)
1969/12/31/18:00:09.645,(17 -60 -97 -45 -22 7 -4 18)
1969/12/31/18:00:09.645,(-19 61 62 37 40 0 -7 -11)
1969/12/31/18:00:09.646,(21 9 -15 17 18 -19 -2 -34)
1969/12/31/18:00:09.646,(-22 -67 -43 -17 5 55 10 11)
1969/12/31/18:00:09.667,(-24 6 29 -18 -58 5 12 -5)
1969/12/31/18:00:09.667,(-21 -59 -44 -29 -22 -18 -17 -7)
1969/12/31/18:00:09.668,(-42 15 -23 -19 -17 -20 -3 -18)
1969/12/31/18:00:09.668,(-13 2 44 30 25 -28 -16 -17)
1969/12/31/18:00:09.690,(11 -91 -74 -22 -6 -13 -9 -2)
1969/12/31/18:00:09.690,(77 83 15 -2 25 29 31 44)
1969/12/31/18:00:09.690,(26 23 40 17 28 34 6 4)
1969/12/31/18:00:09.690,(-10 -62 -65 -26 -9 -16 -7 -5)
1969/12/31/18:00:09.705,(-57 -1 45 24 24 7 -4 -28)
1969/12/31/18:00:09.705,(-10 -59 -104 -32 -8 -35 -23 -44)
1969/12/31/18:00:09.706,(7 26 50 43 27 3 -7 20)
1969/12/31/18:00:09.706,(6 -33 -41 -24 -19 14 3 -21)
1969/12/31/18:00:09.727,(29 127 84 17 5 9 -8 -30)
1969/12/31/18:00:09.727,(50 13 22 16 3 5 12 35)
1969/12/31/18:00:09.728,(-14 -50 -60 -28 -18 -13 -9 19)
1969/12/31/18:00:09.728,(20 -38 -32 8 7 -12 -4 9)
1969/12/31/18:00:09.750,(-31 80 45 21 16 -13 -10 -34)
1969/12/31/18:00:09.750,(10 -66 -44 -23 4 14 -5 -60)
1969/12/31/18:00:09.750,(-3 -9 -10 -19 -33 -11 -27 -51)
1969/12/31/18:00:09.750,(70 -12 -11 -2 6 18 22 48)
1969/12/31/18:00:09.765,(-21 -51 -19 1 22 15 17 19)
1969/12/31/18:00:09.765,(-2 26 8 23 -8 1 4 15)
1969/12/31/18:00:09.766,(-40 31 61 18 -1 -10 -13 -51)
1969/12/31/18:00:09.766,(-39 -44 -56 -17 -11 -14 -6 -5)
1969/12/31/18:00:09.787,(30 29 -7 8 -8 -12 7 74)
1969/12/31/18:00:09.787,(0 -102 -49 -18 14 27 16 24)
1969/12/31/18:00:09.788,(-9 -67 -68 -36 -8 10 3 36)
1969/12/31/18:00:09.788,(0 127 127 53 7 -1 9 -41)
1969/12/31/18:00:09.818,(-32 -31 -8 -10 3 15 -20 -17)
1969/12/31/18:00:09.818,(-49 -90 -48 -13 -4 -17 5 -7)
1969/12/31/18:00:09.819,(39 -44 -53 -12 -12 -2 17 21)
1969/12/31/18:00:09.819,(-7 40 19 -9 8 -4 -21 -15)
1969/12/31/18:00:09.825,(37 -74 -68 -53 -54 -34 -17 -32)
1969/12/31/18:00:09.825,(-9 82 61 19 26 31 11 18)
1969/12/31/18:00:09.825,(12 -29 10 7 -11 -13 -13 -38)
1969/12/31/18:00:09.825,(-56 -28 -30 5 -1 -34 -7 -4)
1969/12/31/18:00:09.847,(48 39 47 27 22 24 32 94)
1969/12/31/18:00:09.847,(-22 -128 -128 -37 -18 -17 -13 -1)
1969/12/31/18:00:09.848,(42 123 53 8 -9 -16 -5 11)
1969/12/31/18:00:09.848,(24 71 82 11 -12 13 10 41)
1969/12/31/18:00:09.871,(31 50 31 3 -13 -4 7 -3)
1969/12/31/18:00:09.871,(-36 -69 -17 -1 -6 -7 3 -16)
1969/12/31/18:00:09.872,(24 -75 -57 -2 12 6 26 73)
1969/12/31/18:00:09.872,(-20 -128 -77 -33 -16 -21 -15 0)
1969/12/31/18:00:09.885,(-8 1 -36 -5 14 9 6 11)
1969/12/31/18:00:09.885,(45 70 40 13 -10 -1 1 32)
1969/12/31/18:00:09.886,(32 58 81 45 3 -17 6 17)
1969/12/31/18:00:09.886,(12 -51 -28 11 37 48 -2 -1)
1969/12/31/18:00:09.907,(2 -1 -4 -3 0 10 27 3)
1969/12/31/18:00:09.907,(-25 -127 -109 -47 -31 -29 -27 -34)
1969/12/31/18:00:09.908,(0 30 -17 -15 9 5 -24 -65)
1969/12/31/18:00:09.908,(-19 73 99 34 -12 4 4 -13)
1969/12/31/18:00:09.930,(-16 -113 -61 1 8 -9 -24 -50)
1969/12/31/18:00:09.930,(19 6 22 13 13 26 17 12)
1969/12/31/18:00:09.930,(-27 -106 -61 -30 -16 -12 1 6)
1969/12/31/18:00:09.930,(2 -105 -108 -30 -1 -11 -8 -14)
1969/12/31/18:00:09.945,(-23 83 39 23 14 -11 -21 -41)
1969/12/31/18:00:09.945,(41 115 87 15 -18 -20 1 6)
1969/12/31/18:00:09.945,(-4 -81 -60 9 30 19 1 -14)
1969/12/31/18:00:09.945,(3 22 -1 -39 -29 29 14 15)
1969/12/31/18:00:09.967,(0 -113 -60 -28 -16 -17 14 45)
1969/12/31/18:00:09.967,(-11 9 31 12 3 7 -2 10)
1969/12/31/18:00:09.968,(-81 33 -19 -7 -2 3 10 -58)
1969/12/31/18:00:09.968,(49 21 32 14 -3 -26 -23 13)
1969/12/31/18:00:09.990,(-13 -10 7 17 29 21 -4 -26)
1969/12/31/18:00:09.990,(-37 -62 -21 -16 -10 -9 -5 -12)
1969/12/31/18:00:09.991,(-11 18 -7 -5 -8 -13 -15 1)
1969/12/31/18:00:09.991,(4 17 -8 -2 7 5 5 -4)
1969/12/31/18:00:10.005,(-32 -34 -63 -25 -18 -15 -12 -44)
1969/12/31/18:00:10.005,(50 116 118 60 44 18 2 23)
1969/12/31/18:00:10.006,(-11 -42 -25 -7 -40 -1 9 27)
1969/12/31/18:00:10.006,(-86 -76 -108 -64 -31 -35 -11 -36)
1969/12/31/18:00:10.027,(62 127 127 70 47 28 -7 16)
1969/12/31/18:00:10.027,(-86 -128 -128 -24 -14 -5 20 -1)
1969/12/31/18:00:10.028,(34 98 67 9 24 7 -18 -25)
1969/12/31/18:00:10.028,(24 91 116 58 22 -10 9 4)
1969/12/31/18:00:10.050,(31 -70 -41 -10 10 22 8 35)
1969/12/31/18:00:10.050,(4 -68 -51 -48 -51 2 25 24)
1969/12/31/18:00:10.050,(-8 20 30 7 17 43 -1 -11)
1969/12/31/18:00:10.050,(28 -3 2 3 6 -7 -4 6)
1969/12/31/18:00:10.064,(5 10 15 5 -5 -26 -12 3)
1969/12/31/18:00:10.064,(17 -41 -75 -12 3 -17 -26 -22)
1969/12/31/18:00:10.072,(50 11 31 40 19 4 14 57)
1969/12/31/18:00:10.072,(-24 -116 -100 -17 -7 10 9 -19)
1969/12/31/18:00:10.087,(-65 -70 -93 -41 -29 -8 -2 0)
1969/12/31/18:00:10.087,(67 116 127 66 5 -28 -11 19)
1969/12/31/18:00:10.088,(-37 -91 -84 -61 -23 18 1 -8)
1969/12/31/18:00:10.088,(-82 -66 -63 -14 10 -21 4 -3)
1969/12/31/18:00:10.110,(-31 72 -6 1 7 11 -7 -31)
1969/12/31/18:00:10.110,(-11 10 12 -10 -26 3 -1 -18)
1969/12/31/18:00:10.110,(6 -96 -55 -3 -2 -16 0 14)
1969/12/31/18:00:10.110,(12 5 14 13 3 8 3 7)
1969/12/31/18:00:10.124,(-13 -77 -28 -19 -8 -17 -9 -2)
1969/12/31/18:00:10.124,(17 17 2 3 17 -4 -13 -18)
1969/12/31/18:00:10.132,(-16 -59 -12 -8 -7 0 8 14)
1969/12/31/18:00:10.132,(33 -51 -94 -26 -10 -2 0 3)
1969/12/31/18:00:10.147,(27 112 34 1 4 1 -3 15)
1969/12/31/18:00:10.147,(17 77 98 36 12 -6 -2 -14)
1969/12/31/18:00:10.148,(-16 -105 -48 -10 -15 -12 -19 -20)
1969/12/31/18:00:10.148,(-29 -49 -68 -33 -29 -26 -38 -37)
1969/12/31/18:00:10.178,(25 30 58 30 20 5 37 46)
1969/12/31/18:00:10.178,(1 -19 -26 -22 -9 11 12 19)
1969/12/31/18:00:10.179,(-30 -98 -119 -31 26 18 -4 -25)
1969/12/31/18:00:10.179,(69 114 127 85 37 23 7 12)
1969/12/31/18:00:10.184,(31 -51 -9 1 -39 -9 4 4)
1969/12/31/18:00:10.184,(-5 63 45 38 43 13 -1 -8)
1969/12/31/18:00:10.192,(-52 -34 -30 -57 -55 -40 -19 -35)
1969/12/31/18:00:10.192,(26 -78 -67 -29 -5 6 11 67)
1969/12/31/18:00:10.207,(12 92 52 18 15 4 -2 -22)
1969/12/31/18:00:10.207,(-43 -94 -31 -7 -5 -2 -5 -7)
1969/12/31/18:00:10.208,(23 23 -45 -5 0 -8 6 25)
1969/12/31/18:00:10.208,(40 127 127 66 28 26 26 21)
1969/12/31/18:00:10.230,(-25 -128 -81 -23 -18 -17 -20 -33)
1969/12/31/18:00:10.230,(11 -116 -128 -55 -22 -6 -12 25)
1969/12/31/18:00:10.230,(39 127 125 35 5 -2 32 24)
1969/12/31/18:00:10.230,(-56 -128 -120 -26 -12 -21 -20 -19)
1969/12/31/18:00:10.244,(25 113 71 14 4 42 35 20)
1969/12/31/18:00:10.244,(-31 -35 -27 -17 -3 -18 -27 -15)
1969/12/31/18:00:10.252,(37 86 71 26 -12 -13 3 23)
1969/12/31/18:00:10.252,(-78 -76 -37 -26 -18 -15 -17 -46)
1969/12/31/18:00:10.267,(-28 -128 -118 -39 -19 -26 -1 23)
1969/12/31/18:00:10.267,(34 106 82 41 17 5 16 -3)
1969/12/31/18:00:10.268,(-27 -38 21 2 -8 -10 -10 -10)
1969/12/31/18:00:10.268,(-36 -43 -59 -33 -37 -15 -11 -27)
1969/12/31/18:00:10.291,(17 75 84 27 10 23 12 -4)
1969/12/31/18:00:10.291,(-33 -128 -126 -39 -15 -16 -4 -1)
1969/12/31/18:00:10.291,(50 90 106 91 51 9 11 17)
1969/12/31/18:00:10.291,(1 -40 -46 -37 -15 11 -11 -16)
1969/12/31/18:00:10.313,(14 33 37 23 3 12 30 17)
1969/12/31/18:00:10.313,(28 -6 -35 -23 -17 -2 -5 -13)
1969/12/31/18:00:10.314,(15 38 54 24 11 2 0 4)
1969/12/31/18:00:10.314,(-64 -101 -87 -26 10 -1 -9 -24)
1969/12/31/18:00:10.327,(-7 41 -24 -21 -10 -4 -4 -13)
1969/12/31/18:00:10.327,(76 61 67 72 47 21 18 42)
1969/12/31/18:00:10.328,(-12 -128 -128 -59 -46 0 12 15)
1969/12/31/18:00:10.328,(11 127 127 71 44 21 7 -13)
1969/12/31/18:00:10.350,(-20 -128 -95 -27 -7 -22 -24 -16)
1969/12/31/18:00:10.350,(11 11 -8 -11 -1 8 -2 21)
1969/12/31/18:00:10.351,(-1 -128 -108 -29 3 11 25 16)
1969/12/31/18:00:10.351,(9 78 -14 1 10 -12 8 12)
1969/12/31/18:00:10.373,(48 66 95 27 -20 -10 -15 -4)
1969/12/31/18:00:10.373,(-21 -80 -43 -17 -22 8 3 8)
1969/12/31/18:00:10.374,(-33 -95 -75 -23 11 18 -10 -35)
1969/12/31/18:00:10.374,(-18 2 -48 -24 -6 1 10 31)
1969/12/31/18:00:10.387,(44 -15 26 49 38 7 28 76)
1969/12/31/18:00:10.387,(-10 -16 -47 -11 1 -11 -31 -30)
1969/12/31/18:00:10.388,(-29 59 24 -7 -22 -17 1 -5)
1969/12/31/18:00:10.388,(19 -115 -96 -23 3 4 -10 8)
1969/12/31/18:00:10.411,(-4 91 75 15 -2 29 5 -4)
1969/12/31/18:00:10.411,(-13 35 17 6 3 6 20 5)
1969/12/31/18:00:10.411,(34 95 59 13 -2 -20 -14 4)
1969/12/31/18:00:10.411,(69 -10 25 9 -6 0 8 41)
1969/12/31/18:00:10.433,(-45 -128 -128 -41 -16 -25 -35 -41)
1969/12/31/18:00:10.433,(-36 -6 0 -1 8 6 8 -12)
1969/12/31/18:00:10.434,(15 48 55 21 10 14 -8 -12)
1969/12/31/18:00:10.434,(17 56 9 -7 -20 -14 13 11)
1969/12/31/18:00:10.447,(-10 35 51 16 29 35 14 -4)
1969/12/31/18:00:10.447,(-69 -105 -30 -27 -27 -30 -22 -35)
1969/12/31/18:00:10.455,(-26 -35 -110 -22 19 0 -12 -26)
1969/12/31/18:00:10.455,(59 5 82 53 -1 15 6 5)
1969/12/31/18:00:10.471,(-1 -128 -103 -26 -11 -7 -7 4)
1969/12/31/18:00:10.471,(-19 -12 -22 -3 -5 -14 -7 -20)
1969/12/31/18:00:10.471,(-33 -106 -50 -11 7 4 10 38)
1969/12/31/18:00:10.471,(-48 -56 -50 -13 29 11 -11 -41)
1969/12/31/18:00:10.493,(27 107 37 8 6 -26 -16 -19)
1969/12/31/18:00:10.493,(7 -12 22 6 -4 6 -3 5)
1969/12/31/18:00:10.494,(48 4 10 10 -5 -2 10 44)
1969/12/31/18:00:10.494,(-20 0 2 -9 -4 -19 -8 -13)
1969/12/31/18:00:10.507,(-68 -128 -125 -39 9 9 -20 -35)
1969/12/31/18:00:10.507,(52 127 104 35 -24 7 29 -12)
1969/12/31/18:00:10.508,(17 -22 -1 8 2 8 -9 -20)
1969/12/31/18:00:10.508,(40 -62 -10 10 -3 -12 11 28)
1969/12/31/18:00:10.530,(-95 -128 -119 -26 8 -15 -23 -44)
1969/12/31/18:00:10.530,(-1 41 1 -18 -25 -26 -34 -53)
1969/12/31/18:00:10.531,(2 103 -12 -5 -4 11 -9 -32)
1969/12/31/18:00:10.531,(3 -15 13 15 -26 -36 -20 -19)
1969/12/31/18:00:10.553,(-17 -34 2 23 30 16 -10 -10)
1969/12/31/18:00:10.553,(6 -54 -52 -42 -9 37 36 42)
1969/12/31/18:00:10.554,(-51 -110 -35 -18 -11 -20 -15 -8)
1969/12/31/18:00:10.554,(33 90 56 19 18 8 7 36)
1969/12/31/18:00:10.567,(3 54 31 -7 -8 1 4 11)
1969/12/31/18:00:10.567,(-37 -85 -99 -7 5 0 10 23)
1969/12/31/18:00:10.568,(78 103 113 31 -6 -1 -16 6)
1969/12/31/18:00:10.568,(-15 -99 -60 -10 -10 -11 -8 -15)
1969/12/31/18:00:10.591,(-15 -66 -59 -4 -10 -22 -4 -15)
1969/12/31/18:00:10.591,(42 52 -7 14 16 0 6 40)
1969/12/31/18:00:10.591,(-31 42 51 -11 -11 14 21 -10)
1969/12/31/18:00:10.591,(16 -8 11 -1 12 21 5 3)
1969/12/31/18:00:10.613,(44 127 104 36 -10 -2 -7 8)
1969/12/31/18:00:10.613,(-55 -128 -97 -28 -7 11 19 2)
1969/12/31/18:00:10.614,(9 -5 -114 -39 -7 -49 -15 4)
1969/12/31/18:00:10.614,(12 47 55 11 2 26 -2 -18)
1969/12/31/18:00:10.627,(24 38 40 13 -26 -27 2 14)
1969/12/31/18:00:10.627,(53 -6 32 26 19 14 2 18)
1969/12/31/18:00:10.628,(-29 -123 -71 -26 -18 -18 -7 16)
1969/12/31/18:00:10.628,(3 13 13 27 51 11 4 2)
1969/12/31/18:00:10.650,(22 38 -17 -16 -46 -4 1 12)
1969/12/31/18:00:10.650,(7 53 54 6 5 10 14 21)
1969/12/31/18:00:10.651,(3 27 42 21 4 8 6 -4)
1969/12/31/18:00:10.651,(2 -57 -68 -27 -2 -1 4 11)
1969/12/31/18:00:10.673,(-27 -59 -19 -4 -14 -32 -17 -19)
1969/12/31/18:00:10.673,(13 99 57 8 -4 -1 0 -3)
1969/12/31/18:00:10.673,(-8 -89 -76 -6 20 5 -10 -2)
1969/12/31/18:00:10.674,(35 79 100 44 16 58 46 63)
1969/12/31/18:00:10.687,(-8 -34 -61 -39 -9 6 -12 10)
1969/12/31/18:00:10.687,(-9 8 40 15 1 18 12 -9)
1969/12/31/18:00:10.688,(-48 -109 -71 -21 -1 -11 -11 -12)
1969/12/31/18:00:10.688,(-31 57 48 33 4 -19 -34 -63)
1969/12/31/18:00:10.711,(8 -128 -94 -23 6 4 15 6)
1969/12/31/18:00:10.711,(41 87 93 37 6 -10 -24 -28)
1969/12/31/18:00:10.711,(-32 -81 -36 0 3 10 4 7)
1969/12/31/18:00:10.711,(-9 -90 -96 -38 -22 -3 20 22)
1969/12/31/18:00:10.740,(51 104 101 38 28 14 10 5)
1969/12/31/18:00:10.740,(-13 41 43 27 5 -43 -37 -34)
1969/12/31/18:00:10.741,(-59 -9 11 6 19 36 2 -62)
1969/12/31/18:00:10.741,(-3 41 -25 11 17 -26 -11 1)
1969/12/31/18:00:10.747,(-26 -71 -63 -60 -67 7 2 -33)
1969/12/31/18:00:10.747,(-7 67 57 25 12 2 -3 38)
1969/12/31/18:00:10.748,(9 -9 3 0 0 0 3 2)
1969/12/31/18:00:10.748,(2 -57 -47 -28 -21 -12 7 14)
1969/12/31/18:00:10.770,(-26 16 15 42 47 29 1 -1)
1969/12/31/18:00:10.770,(-53 -128 -104 -49 -14 -27 -18 -25)
1969/12/31/18:00:10.771,(24 33 -4 -5 -1 -11 -4 11)
1969/12/31/18:00:10.771,(-10 31 56 24 12 22 -19 -37)
1969/12/31/18:00:10.793,(9 -47 -21 -14 -6 -3 13 21)
1969/12/31/18:00:10.793,(17 1 3 5 -14 9 9 14)
1969/12/31/18:00:10.794,(5 7 4 10 12 -2 -6 0)
1969/12/31/18:00:10.794,(-27 -36 -51 -36 -22 -24 -21 -42)
1969/12/31/18:00:10.807,(10 127 127 65 26 11 20 7)
1969/12/31/18:00:10.807,(-28 -23 -57 -9 19 4 -11 -11)
1969/12/31/18:00:10.808,(3 -76 -74 -29 -28 -28 3 12)
1969/12/31/18:00:10.808,(-1 123 120 56 20 18 -3 -5)
1969/12/31/18:00:10.831,(12 -81 -63 -33 -17 2 2 -1)
1969/12/31/18:00:10.831,(-21 -128 -119 -29 -8 -22 -16 -24)
1969/12/31/18:00:10.832,(37 127 122 30 5 30 -6 -6)
1969/12/31/18:00:10.832,(-5 -64 -38 -34 -46 -16 18 31)
1969/12/31/18:00:10.860,(-1 -84 -38 3 14 -25 -24 -5)
1969/12/31/18:00:10.860,(29 -3 -5 19 39 15 0 21)
1969/12/31/18:00:10.861,(8 55 33 -4 -29 6 13 11)
1969/12/31/18:00:10.861,(-11 -42 -31 -32 -34 -5 2 -6)
1969/12/31/18:00:10.867,(5 -40 -54 -16 31 10 -9 2)
1969/12/31/18:00:10.867,(25 42 60 37 26 22 37 31)
1969/12/31/18:00:10.868,(-4 88 81 32 13 -5 -9 -12)
1969/12/31/18:00:10.868,(5 -61 -48 -8 25 28 10 13)
1969/12/31/18:00:10.890,(-22 57 41 19 15 -9 -3 -31)
1969/12/31/18:00:10.890,(16 -128 -78 -69 -88 -25 -9 21)
1969/12/31/18:00:10.891,(-53 -60 -44 0 -2 -15 -13 -30)
1969/12/31/18:00:10.891,(-13 0 18 0 9 3 3 -3)
1969/12/31/18:00:10.920,(3 -128 -105 -25 1 -7 -22 4)
1969/12/31/18:00:10.920,(-6 100 66 33 25 14 22 0)
1969/12/31/18:00:10.922,(39 31 3 -27 -12 -1 -4 12)
1969/12/31/18:00:10.922,(-16 -43 -30 31 4 1 9 4)
1969/12/31/18:00:10.927,(-20 27 10 -33 -42 -13 -2 -13)
1969/12/31/18:00:10.927,(1 -15 -12 28 25 -3 -7 -8)
1969/12/31/18:00:10.935,(5 -93 -51 -5 6 -13 -23 3)
1969/12/31/18:00:10.936,(28 88 82 34 22 1 2 -6)
1969/12/31/18:00:10.950,(13 -52 -16 -8 -8 20 26 39)
1969/12/31/18:00:10.950,(18 84 5 -32 -23 -12 -1 -14)
1969/12/31/18:00:10.952,(-12 -25 -7 5 1 -12 -16 -14)
1969/12/31/18:00:10.952,(-63 -123 -109 -32 -5 -18 -10 -3)
1969/12/31/18:00:10.973,(-27 -41 -50 -9 -44 -16 -10 -29)
1969/12/31/18:00:10.973,(42 41 38 -9 0 3 0 20)
1969/12/31/18:00:10.975,(-3 -46 -13 12 13 1 8 6)
1969/12/31/18:00:10.975,(8 -44 -23 -20 -15 -5 -16 -1)
1969/12/31/18:00:10.987,(-61 -56 0 33 36 4 -3 -33)
1969/12/31/18:00:10.987,(-83 -122 -88 -26 8 -35 -54 -74)
1969/12/31/18:00:10.996,(19 39 10 -8 -30 52 9 -52)
1969/12/31/18:00:10.996,(27 69 68 -14 -63 0 35 53)
1969/12/31/18:00:11.011,(-3 -8 -26 -24 -16 -45 -24 -4)
1969/12/31/18:00:11.011,(-13 56 64 20 -2 7 -4 -19)
1969/12/31/18:00:11.012,(-15 -55 -44 0 9 -14 -15 -10)
1969/12/31/18:00:11.012,(38 47 27 17 38 20 3 -6)
1969/12/31/18:00:11.033,(42 100 60 1 -4 23 23 31)
1969/12/31/18:00:11.033,(8 21 21 13 3 -6 -2 5)
1969/12/31/18:00:11.034,(4 -78 -35 2 13 -2 15 34)
1969/12/31/18:00:11.034,(4 80 55 18 11 6 1 -1)
1969/12/31/18:00:11.047,(4 13 31 29 39 1 -7 29)
1969/12/31/18:00:11.047,(5 -128 -114 -46 -36 11 14 39)
1969/12/31/18:00:11.055,(41 32 14 -19 -34 -16 21 50)
1969/12/31/18:00:11.055,(11 -43 -47 -33 -5 -11 -9 7)
1969/12/31/18:00:11.070,(-27 -40 -21 26 27 0 -1 -13)
1969/12/31/18:00:11.070,(-5 66 -2 12 24 10 -3 -25)
1969/12/31/18:00:11.072,(85 5 11 36 50 81 52 87)
1969/12/31/18:00:11.072,(-44 -93 -61 -32 -56 -67 -37 -23)
1969/12/31/18:00:11.093,(8 -66 -46 -15 5 26 12 7)
1969/12/31/18:00:11.093,(-25 9 -1 -20 -14 10 -10 -36)
1969/12/31/18:00:11.094,(-43 34 50 6 -15 -36 -8 -25)
1969/12/31/18:00:11.094,(1 -60 -60 -19 -10 -1 0 -9)
1969/12/31/18:00:11.107,(6 52 44 -1 9 -5 -14 0)
1969/12/31/18:00:11.107,(-18 48 76 42 2 6 -3 -10)
1969/12/31/18:00:11.116,(-32 58 19 13 16 -4 10 -8)
1969/12/31/18:00:11.116,(22 4 5 12 7 9 -10 -16)
1969/12/31/18:00:11.130,(3 -37 -23 4 -4 -10 0 9)
1969/12/31/18:00:11.130,(27 -21 -16 -15 1 -3 23 20)
1969/12/31/18:00:11.132,(-7 -33 -9 3 4 -1 -6 5)
1969/12/31/18:00:11.132,(-27 -50 -32 -14 3 2 3 -21)
1969/12/31/18:00:11.153,(15 -8 -45 9 32 19 6 25)
1969/12/31/18:00:11.153,(27 75 79 58 -6 -25 -8 -30)
1969/12/31/18:00:11.154,(-12 -128 -128 -54 -42 -11 1 10)
1969/12/31/18:00:11.154,(28 118 82 60 23 12 24 28)
1969/12/31/18:00:11.167,(58 -13 -8 1 -12 0 4 21)
1969/12/31/18:00:11.167,(0 -125 -93 -37 1 9 9 69)
1969/12/31/18:00:11.175,(7 92 91 29 14 2 10 -10)
1969/12/31/18:00:11.175,(-18 -118 -103 -39 -9 -6 -22 -14)
1969/12/31/18:00:11.190,(23 127 127 43 -4 -7 9 -3)
1969/12/31/18:00:11.190,(19 -23 -19 -3 10 3 0 14)
1969/12/31/18:00:11.192,(-1 29 -4 -7 -16 -9 -12 -5)
1969/12/31/18:00:11.192,(-15 -48 -15 16 26 -3 -13 -8)
1969/12/31/18:00:11.213,(31 45 22 -27 -32 9 29 29)
1969/12/31/18:00:11.213,(-34 -79 -66 -71 -66 -18 -5 -21)
1969/12/31/18:00:11.214,(-27 -3 26 74 82 30 -8 -36)
1969/12/31/18:00:11.214,(-8 4 -3 -10 -22 -26 -23 -38)
1969/12/31/18:00:11.227,(-29 -63 -37 0 12 30 28 -16)
1969/12/31/18:00:11.227,(-14 -16 -74 -61 -42 -10 0 2)
1969/12/31/18:00:11.236,(10 19 5 11 -11 -13 -10 -23)
1969/12/31/18:00:11.236,(63 -39 -32 17 19 0 16 46)
1969/12/31/18:00:11.250,(-3 7 12 0 -12 -14 -30 -34)
1969/12/31/18:00:11.250,(0 -83 -44 -16 15 17 9 23)
1969/12/31/18:00:11.257,(23 -5 -4 -14 -4 -3 12 35)
1969/12/31/18:00:11.257,(-68 5 -8 -26 -8 -4 -24 -44)
1969/12/31/18:00:11.273,(2 3 -2 -30 -57 -16 -2 4)
1969/12/31/18:00:11.273,(2 32 41 55 92 12 -6 -11)
1969/12/31/18:00:11.274,(-3 -24 -16 -15 -15 1 1 -2)
1969/12/31/18:00:11.274,(-32 21 36 48 36 29 1 -20)
1969/12/31/18:00:11.287,(-9 10 -15 -2 -7 -31 -8 -4)
1969/12/31/18:00:11.287,(-6 -27 6 10 2 4 4 17)
1969/12/31/18:00:11.296,(2 -9 -18 -38 -34 -22 1 1)
1969/12/31/18:00:11.296,(-12 23 0 -20 -12 -1 -21 -9)
1969/12/31/18:00:11.310,(19 0 1 -5 9 8 3 -2)
1969/12/31/18:00:11.310,(-68 -86 -65 -11 -4 -6 -24 -50)
1969/12/31/18:00:11.317,(-4 85 67 36 20 -1 1 -36)
1969/12/31/18:00:11.317,(67 -25 -23 -13 -16 0 22 80)
1969/12/31/18:00:11.333,(-28 -38 -18 0 3 -9 -24 -78)
1969/12/31/18:00:11.333,(72 40 40 19 5 13 11 28)
1969/12/31/18:00:11.334,(38 -37 -63 -45 -28 -22 2 -9)
1969/12/31/18:00:11.334,(-13 23 5 -7 -6 10 -1 -15)
1969/12/31/18:00:11.356,(-22 8 29 -5 -15 35 19 4)
1969/12/31/18:00:11.356,(-12 -3 -15 21 35 -46 23 5)
1969/12/31/18:00:11.357,(-69 -38 -4 14 0 -4 26 -2)
1969/12/31/18:00:11.357,(19 23 14 16 25 39 -22 -10)
1969/12/31/18:00:11.370,(-61 -18 -13 0 -9 -29 -14 4)
1969/12/31/18:00:11.370,(-30 1 -2 -23 -27 15 -11 -17)
1969/12/31/18:00:11.376,(-7 -21 -2 -5 0 10 -2 12)
1969/12/31/18:00:11.376,(-12 -14 -3 -16 -28 -30 13 -19)
1969/12/31/18:00:11.394,(50 14 -1 6 12 8 -6 11)
1969/12/31/18:00:11.394,(-65 -20 -18 -11 -14 -5 -16 -54)
1969/12/31/18:00:11.395,(47 53 23 12 7 5 -4 56)
1969/12/31/18:00:11.395,(-24 -52 -28 -18 -4 7 12 21)
1969/12/31/18:00:11.416,(-12 -6 13 17 26 9 1 -29)
1969/12/31/18:00:11.416,(90 52 25 13 2 7 9 36)
1969/12/31/18:00:11.417,(-11 -40 -23 -16 -11 -4 -13 -6)
1969/12/31/18:00:11.417,(-6 66 17 2 5 -4 0 -12)
1969/12/31/18:00:11.430,(19 22 -3 1 5 -6 9 1)
1969/12/31/18:00:11.430,(-3 -36 -3 -1 -12 0 -10 11)
1969/12/31/18:00:11.437,(-3 -38 -14 -6 0 1 -14 13)
1969/12/31/18:00:11.437,(-37 -20 -1 -1 -3 -8 -4 -41)
1969/12/31/18:00:11.453,(-10 18 11 8 10 3 2 2)
1969/12/31/18:00:11.453,(17 9 -8 -10 -13 1 -10 -9)
1969/12/31/18:00:11.454,(15 29 -7 -7 0 -1 -10 -4)
1969/12/31/18:00:11.455,(5 -46 -28 -6 -1 -6 11 11)
1969/12/31/18:00:11.475,(-1 22 -9 -6 -6 -8 -2 13)
1969/12/31/18:00:11.475,(-15 77 80 22 5 7 -3 -15)
1969/12/31/18:00:11.477,(-2 4 -8 -1 1 -2 -2 -10)
1969/12/31/18:00:11.477,(22 -19 -9 -2 -1 -1 5 17)
1969/12/31/18:00:11.490,(8 -18 -11 -4 -1 -3 -5 3)
1969/12/31/18:00:11.490,(-6 -4 -6 5 4 6 5 4)
1969/12/31/18:00:11.497,(-2 17 -2 -6 -6 -5 -15 -21)
1969/12/31/18:00:11.497,(-22 -16 0 -8 -7 -2 -3 -6)
1969/12/31/18:00:11.513,(-3 -19 -4 -1 2 -1 -2 11)
1969/12/31/18:00:11.513,(31 26 8 6 4 6 12 15)
1969/12/31/18:00:11.514,(-27 -41 -8 -5 -4 -6 -9 -18)
1969/12/31/18:00:11.514,(21 20 3 3 4 2 1 3)
1969/12/31/18:00:11.535,(-17 4 1 -3 -3 -6 -3 0)
1969/12/31/18:00:11.536,(1 -4 -8 -3 -3 0 -3 -2)
1969/12/31/18:00:11.537,(-11 -14 -7 -1 1 0 -2 -10)
1969/12/31/18:00:11.537,(19 11 11 5 3 -2 1 8)
1969/12/31/18:00:11.550,(-1 5 0 -2 -3 -3 -2 0)
1969/12/31/18:00:11.550,(-14 -23 -10 -3 -2 0 -4 -5)
1969/12/31/18:00:11.557,(5 -7 -1 -3 0 -1 -3 -1)
1969/12/31/18:00:11.557,(3 27 15 4 1 0 0 -4)
1969/12/31/18:00:11.573,(6 -4 0 0 1 1 3 3)
1969/12/31/18:00:11.573,(-5 -15 -13 -4 -3 -3 -5 0)
1969/12/31/18:00:11.574,(-2 -2 -1 -1 0 -3 -1 -4)
1969/12/31/18:00:11.574,(7 0 0 -1 0 3 2 5)
1969/12/31/18:00:11.596,(-12 -19 -18 -10 -5 -4 -4 1)
1969/12/31/18:00:11.596,(13 23 17 3 0 1 10 1)
1969/12/31/18:00:11.597,(-1 -2 -1 1 0 -4 -13 -4)
1969/12/31/18:00:11.597,(-22 -4 -2 -1 -1 -4 2 -8)
1969/12/31/18:00:11.618,(-8 -42 -19 -6 -3 -5 -10 -26)
1969/12/31/18:00:11.618,(5 13 -14 -4 -2 -3 -8 3)
1969/12/31/18:00:11.620,(-1 5 3 6 5 8 14 11)
1969/12/31/18:00:11.620,(-15 -20 -22 -11 -8 -8 -10 -19)
1969/12/31/18:00:11.648,(3 26 21 6 2 -1 2 3)
1969/12/31/18:00:11.648,(10 -4 2 2 1 3 3 19)
1969/12/31/18:00:11.649,(-16 -30 -14 -5 -4 -3 -6 -19)
1969/12/31/18:00:11.649,(21 18 12 3 5 4 7 18)
1969/12/31/18:00:11.655,(-23 -63 -46 -14 -9 -9 -7 -6)
1969/12/31/18:00:11.655,(4 21 3 -3 -2 -2 -7 -7)
1969/12/31/18:00:11.657,(11 13 18 8 5 7 15 10)
1969/12/31/18:00:11.657,(-1 22 15 0 -5 -5 -2 0)
1969/12/31/18:00:11.669,(5 9 4 0 -3 -2 -8 5)
1969/12/31/18:00:11.669,(-9 -18 5 8 8 8 16 3)
1969/12/31/18:00:11.678,(-8 -17 -14 -8 -5 -5 -9 -13)
1969/12/31/18:00:11.678,(-4 -8 -5 -3 -5 -3 2 -7)
1969/12/31/18:00:11.693,(9 14 14 5 3 -1 -3 0)
1969/12/31/18:00:11.693,(-17 -26 -16 -7 -5 -3 -8 -10)
1969/12/31/18:00:11.694,(0 -12 -50 -15 -5 -3 1 3)
1969/12/31/18:00:11.694,(14 75 97 33 14 8 12 14)
1969/12/31/18:00:11.715,(8 -14 -9 1 3 3 5 18)
1969/12/31/18:00:11.715,(-5 17 30 5 -2 -2 1 -6)
1969/12/31/18:00:11.717,(-3 23 31 8 0 -2 -12 -14)
1969/12/31/18:00:11.717,(-2 -20 -33 -12 -3 -2 -12 -9)
1969/12/31/18:00:11.729,(0 11 -4 -3 -3 -1 6 0)
1969/12/31/18:00:11.729,(-9 -24 -8 0 2 0 -2 0)
1969/12/31/18:00:11.738,(-6 -40 -23 -8 -3 0 2 -2)
1969/12/31/18:00:11.738,(5 33 13 3 4 4 3 3)
1969/12/31/18:00:11.753,(11 42 49 18 12 11 12 9)
1969/12/31/18:00:11.753,(-9 -17 -24 -7 -4 0 -2 -2)
1969/12/31/18:00:11.754,(-2 6 12 2 -2 -4 -15 -5)
1969/12/31/18:00:11.754,(-3 -28 -27 -11 -7 -7 -4 0)
1969/12/31/18:00:11.776,(-9 -32 -24 -10 -4 1 2 -3)
1969/12/31/18:00:11.776,(-9 -17 -14 -11 -4 -7 -9 -9)
1969/12/31/18:00:11.777,(10 53 34 4 1 2 3 7)
1969/12/31/18:00:11.777,(-4 -31 -22 0 1 -2 -11 -7)
1969/12/31/18:00:11.789,(3 18 13 2 -1 0 3 2)
1969/12/31/18:00:11.789,(1 12 -7 -1 -1 -2 -3 -3)
1969/12/31/18:00:11.798,(-6 -32 -8 -7 -2 -5 -3 -4)
1969/12/31/18:00:11.798,(-7 10 2 1 -3 -1 -1 -3)
1969/12/31/18:00:11.813,(1 -6 -10 3 2 0 -2 -3)
1969/12/31/18:00:11.813,(0 -10 -9 -5 -3 0 -4 -5)
1969/12/31/18:00:11.814,(2 -4 -11 -16 -6 -4 1 1)
1969/12/31/18:00:11.814,(-8 14 27 14 6 2 -2 -4)
1969/12/31/18:00:11.835,(7 6 2 6 -1 -2 -3 1)
1969/12/31/18:00:11.835,(-6 -4 6 8 1 -1 2 0)
1969/12/31/18:00:11.842,(-3 -18 -9 -4 -7 -3 -5 -2)
1969/12/31/18:00:11.842,(5 11 1 -5 0 -2 0 2)
1969/12/31/18:00:11.849,(-7 4 -8 -4 -2 -3 -6 -8)
1969/12/31/18:00:11.849,(-4 -15 -7 -3 -3 -2 0 -3)
1969/12/31/18:00:11.858,(-6 -8 -18 -5 -1 2 2 0)
1969/12/31/18:00:11.858,(-2 -8 6 3 -1 -4 -8 -8)
1969/12/31/18:00:11.873,(11 47 8 2 -1 -1 4 5)
1969/12/31/18:00:11.873,(0 -16 -4 -8 -4 -4 -13 -10)
1969/12/31/18:00:11.874,(-5 14 2 9 3 -1 -1 -4)
1969/12/31/18:00:11.874,(-9 -71 -35 -13 -7 -1 3 3)
1969/12/31/18:00:11.895,(12 61 50 15 5 -1 -5 0)
1969/12/31/18:00:11.895,(5 5 1 3 2 2 7 11)
1969/12/31/18:00:11.897,(-7 -13 -10 -5 -5 -3 -4 -6)
1969/12/31/18:00:11.897,(-6 -5 -7 -8 -3 -1 -3 -4)
1969/12/31/18:00:11.909,(-3 -26 -16 -16 -8 -6 -3 -2)
1969/12/31/18:00:11.909,(3 19 22 14 6 3 5 1)
1969/12/31/18:00:11.918,(2 -8 9 9 3 0 1 4)
1969/12/31/18:00:11.918,(-10 -8 -5 -6 -4 1 3 -1)
1969/12/31/18:00:11.933,(-1 2 -11 -10 -5 -4 -5 -5)
1969/12/31/18:00:11.933,(-1 10 -17 -11 -3 -1 -2 -3)
1969/12/31/18:00:11.935,(4 -3 4 10 4 2 5 6)
1969/12/31/18:00:11.935,(-1 -5 -1 1 -1 -3 -4 -2)
1969/12/31/18:00:11.956,(-11 -36 -36 -21 -7 -3 -3 -6)
1969/12/31/18:00:11.956,(10 29 22 22 11 4 4 2)
1969/12/31/18:00:11.957,(12 27 21 10 4 1 4 5)
1969/12/31/18:00:11.957,(-8 -22 -39 -17 -5 -2 -2 -4)
1969/12/31/18:00:11.969,(-1 -11 17 13 4 2 1 1)
1969/12/31/18:00:11.969,(-9 -7 13 -5 -7 -3 -1 0)
1969/12/31/18:00:11.978,(2 9 -10 -3 1 0 0 -1)
1969/12/31/18:00:11.978,(20 81 78 20 6 2 2 5)
1969/12/31/18:00:11.993,(0 -6 -6 -1 0 0 -2 1)
1969/12/31/18:00:11.993,(-11 -45 -35 -20 -9 -4 -5 -8)
1969/12/31/18:00:11.995,(2 19 18 15 7 6 2 2)
1969/12/31/18:00:11.995,(-4 -39 -38 -15 -6 -4 -1 2)
1969/12/31/18:00:12.016,(4 34 27 14 4 2 -1 -1)
1969/12/31/18:00:12.016,(-4 -9 -23 -19 -10 -6 -4 -1)
1969/12/31/18:00:12.017,(-8 -21 9 0 -2 -1 -1 -2)
1969/12/31/18:00:12.017,(3 2 -28 -8 -2 -1 -1 -3)
1969/12/31/18:00:12.038,(0 -11 -1 0 1 3 4 4)
1969/12/31/18:00:12.038,(-5 -16 -13 -1 -3 -2 -1 -1)
1969/12/31/18:00:12.040,(-7 -9 -4 -4 -3 -3 -2 -2)
1969/12/31/18:00:12.040,(-1 0 4 6 2 2 1 2)
1969/12/31/18:00:12.053,(-1 -8 -8 -4 -3 -1 -1 1)
1969/12/31/18:00:12.053,(-2 8 7 -2 -3 -2 -2 -5)
1969/12/31/18:00:12.055,(0 -11 -9 -8 -1 -4 0 2)
1969/12/31/18:00:12.055,(-2 8 16 12 5 1 -1 -5)
1969/12/31/18:00:12.076,(-6 -33 -22 -13 -5 -2 -1 -1)
1969/12/31/18:00:12.076,(0 21 24 9 3 -1 -1 -2)
1969/12/31/18:00:12.077,(7 27 28 11 2 1 -1 0)
1969/12/31/18:00:12.077,(-5 -21 -11 -3 1 3 7 5)
1969/12/31/18:00:12.089,(-26 -72 -85 -100 -43 -16 -14 -18)
1969/12/31/18:00:12.089,(17 53 43 46 26 8 2 1)
1969/12/31/18:00:12.098,(-8 -12 42 10 -1 1 3 3)
1969/12/31/18:00:12.098,(48 127 30 47 28 10 3 8)
1969/12/31/18:00:12.114,(10 14 41 74 25 11 8 9)
1969/12/31/18:00:12.114,(-3 -30 -31 -25 -14 -8 -3 3)
1969/12/31/18:00:12.119,(-13 -22 -35 -18 -6 0 0 -10)
1969/12/31/18:00:12.119,(-20 -47 -21 -28 -17 -8 -5 -2)
1969/12/31/18:00:12.135,(-7 -7 -8 -18 -9 -9 -9 -12)
1969/12/31/18:00:12.135,(3 15 5 -1 -1 1 3 5)
1969/12/31/18:00:12.137,(5 10 -6 -5 -1 -4 -5 -1)
1969/12/31/18:00:12.137,(-8 -24 -11 -14 -8 -2 0 0)
1969/12/31/18:00:12.149,(8 22 9 12 6 3 3 6)
1969/12/31/18:00:12.149,(-3 -5 0 -1 -3 1 3 -1)
1969/12/31/18:00:12.158,(-1 0 -9 -5 -2 -2 -7 -10)
1969/12/31/18:00:12.158,(-4 -16 -10 -14 -9 -4 -4 -6)
1969/12/31/18:00:12.172,(3 18 19 20 8 2 0 0)
1969/12/31/18:00:12.172,(-5 -9 -9 -7 -2 1 1 -2)
1969/12/31/18:00:12.179,(-5 -15 -9 -7 -2 -1 0 3)
1969/12/31/18:00:12.179,(1 0 1 1 -2 -1 1 2)
1969/12/31/18:00:12.203,(-1 4 5 6 2 -2 -3 -1)
1969/12/31/18:00:12.203,(-4 -13 -14 -9 -4 -3 -2 -3)
1969/12/31/18:00:12.205,(5 11 -1 -1 1 -1 1 3)
1969/12/31/18:00:12.205,(-5 -10 1 2 1 -1 -1 -3)
1969/12/31/18:00:12.209,(-8 -27 -27 -13 -6 -1 2 0)
1969/12/31/18:00:12.209,(-1 -5 6 4 1 1 1 2)
1969/12/31/18:00:12.218,(-1 5 3 2 -3 -3 -4 -4)
1969/12/31/18:00:12.218,(1 -6 -1 2 -1 2 4 3)
1969/12/31/18:00:12.232,(-5 2 3 1 -1 -2 -4 -7)
1969/12/31/18:00:12.232,(-1 0 -3 1 0 -1 -3 -2)
1969/12/31/18:00:12.239,(-1 -9 -15 -8 -4 -2 1 2)
1969/12/31/18:00:12.239,(-1 3 1 -5 -2 -1 -3 -2)
1969/12/31/18:00:12.255,(3 6 -6 -3 2 0 2 1)
1969/12/31/18:00:12.255,(-1 7 1 -9 -7 -3 -2 -2)
1969/12/31/18:00:12.257,(-1 -2 7 18 7 2 2 1)
1969/12/31/18:00:12.257,(0 -8 2 10 5 1 0 0)
1969/12/31/18:00:12.278,(6 31 8 4 1 -3 -3 0)
1969/12/31/18:00:12.278,(-3 -4 -5 -5 0 -1 -2 -4)
1969/12/31/18:00:12.284,(-1 -5 -18 -20 -10 -4 -4 -2)
1969/12/31/18:00:12.284,(0 2 8 5 1 -2 -3 -3)
1969/12/31/18:00:12.292,(-1 -5 9 0 1 1 1 2)
1969/12/31/18:00:12.292,(3 7 7 -2 -2 -2 0 4)
1969/12/31/18:00:12.299,(-10 -17 -18 -9 -4 -2 -5 -12)
1969/12/31/18:00:12.299,(-3 -7 -4 0 -2 -2 0 -2)
1969/12/31/18:00:12.316,(-4 -6 -4 -5 -1 -3 -3 0)
1969/12/31/18:00:12.316,(1 3 4 5 1 -1 -1 0)
1969/12/31/18:00:12.318,(2 8 11 1 1 -1 0 0)
1969/12/31/18:00:12.318,(-2 -4 -7 -30 -8 -2 -2 -2)
1969/12/31/18:00:12.338,(-6 -10 -24 7 -4 -4 -1 -3)
1969/12/31/18:00:12.338,(4 11 41 34 11 5 1 2)
1969/12/31/18:00:12.339,(4 8 -4 -1 5 2 -1 -1)
1969/12/31/18:00:12.340,(-3 -2 3 4 2 1 1 -2)
1969/12/31/18:00:12.360,(3 7 29 12 3 3 1 1)
1969/12/31/18:00:12.360,(-5 -9 -16 -10 -6 -5 -7 -8)
1969/12/31/18:00:12.362,(-4 -2 -7 -3 -6 -5 -2 -2)
1969/12/31/18:00:12.362,(-3 -5 -11 -15 -6 -5 -4 -4)
1969/12/31/18:00:12.375,(-2 -7 -10 -11 -5 -3 -3 -1)
1969/12/31/18:00:12.375,(-6 -9 -15 -7 -4 -1 1 -1)
1969/12/31/18:00:12.377,(0 -2 2 -5 -3 -1 1 -1)
1969/12/31/18:00:12.377,(0 -1 -11 1 0 0 -1 -2)
1969/12/31/18:00:12.398,(4 4 14 6 0 1 2 3)
1969/12/31/18:00:12.398,(-1 -2 -1 -3 -6 -4 -1 -4)
1969/12/31/18:00:12.400,(2 1 1 0 4 1 2 4)
1969/12/31/18:00:12.400,(-1 2 5 11 2 0 0 -2)
1969/12/31/18:00:12.412,(0 0 -4 -1 -2 0 -3 -1)
1969/12/31/18:00:12.412,(0 -5 -6 -8 -1 -1 -1 0)
1969/12/31/18:00:12.419,(-2 1 2 5 2 0 0 -1)
1969/12/31/18:00:12.419,(-1 -2 -2 4 -1 -2 -2 0)
1969/12/31/18:00:12.435,(-3 -2 0 -4 -4 -1 0 -1)
1969/12/31/18:00:12.435,(-1 1 -9 -8 0 0 0 -2)
1969/12/31/18:00:12.443,(0 -2 1 -1 -3 -1 -1 1)
1969/12/31/18:00:12.443,(-2 -1 -5 -1 1 -1 0 0)
1969/12/31/18:00:12.458,(1 2 12 5 2 1 1 -2)
1969/12/31/18:00:12.458,(-1 -7 -7 0 -1 0 -1 -2)
1969/12/31/18:00:12.459,(-4 -4 -4 1 -2 -2 -1 -3)
1969/12/31/18:00:12.459,(-2 -3 -3 -10 -4 -2 -2 -1)
1969/12/31/18:00:12.473,(-1 0 -2 -1 0 1 0 0)
1969/12/31/18:00:12.473,(-1 -1 -2 -1 0 -1 -2 -1)
1969/12/31/18:00:12.479,(0 -2 0 -1 0 -1 0 0)
1969/12/31/18:00:12.479,(-2 -3 -2 -1 -1 0 -2 -3)
1969/12/31/18:00:12.495,(-3 -1 -2 -4 -3 -3 0 -2)
1969/12/31/18:00:12.495,(-2 -3 0 2 0 1 0 -1)
1969/12/31/18:00:12.497,(3 4 -4 -2 -2 -1 0 2)
1969/12/31/18:00:12.497,(1 5 11 5 0 -1 -2 0)
1969/12/31/18:00:12.518,(0 3 -6 -6 -5 -2 -1 -2)
1969/12/31/18:00:12.518,(-4 -6 2 -1 2 -1 -3 -2)
1969/12/31/18:00:12.519,(0 0 2 1 -1 1 -1 -1)
1969/12/31/18:00:12.519,(0 0 2 1 -1 1 0 0)
1969/12/31/18:00:12.532,(-2 -5 -5 -7 -5 -2 -2 -2)
1969/12/31/18:00:12.532,(-1 1 -3 -2 -2 -1 0 0)
1969/12/31/18:00:12.541,(1 2 1 1 1 -3 0 -1)
1969/12/31/18:00:12.541,(1 1 -1 -1 -1 -1 -1 0)
1969/12/31/18:00:12.555,(1 0 2 2 1 1 0 2)
1969/12/31/18:00:12.555,(-2 -4 -5 -5 0 -2 0 1)
1969/12/31/18:00:12.557,(-5 -1 -1 -6 -4 -1 -3 -3)
1969/12/31/18:00:12.557,(-2 2 3 7 1 -1 1 -2)
1969/12/31/18:00:12.578,(-1 -4 -2 -1 0 -1 -1 -2)
1969/12/31/18:00:12.578,(-5 -7 -5 -5 -4 0 -2 -3)
1969/12/31/18:00:12.579,(1 1 -4 -7 -2 -1 -3 1)
1969/12/31/18:00:12.579,(-2 -1 -4 3 0 -2 -4 -1)
1969/12/31/18:00:12.591,(2 2 7 5 2 0 -1 0)
1969/12/31/18:00:12.591,(0 4 5 0 -2 -1 -2 -1)
1969/12/31/18:00:12.600,(-1 3 11 8 0 -1 -1 -2)
1969/12/31/18:00:12.600,(-3 -9 -10 -10 -1 1 -1 -1)
1969/12/31/18:00:12.616,(-3 0 3 2 0 -2 -1 0)
1969/12/31/18:00:12.616,(0 0 -6 -3 0 -1 1 -1)
1969/12/31/18:00:12.617,(-1 -5 -3 3 1 1 1 -1)
1969/12/31/18:00:12.617,(3 9 13 14 7 3 2 2)
1969/12/31/18:00:12.638,(-1 -5 -2 -3 -1 0 -1 -1)
1969/12/31/18:00:12.638,(-1 1 -3 -3 -2 -1 0 1)
1969/12/31/18:00:12.640,(-2 -2 -1 -3 -1 -2 -3 -2)
1969/12/31/18:00:12.640,(-2 -5 -4 -6 -1 -2 -1 -2)
1969/12/31/18:00:12.652,(-3 -4 -7 -6 -3 -2 -1 -3)
1969/12/31/18:00:12.652,(0 0 1 -2 -2 -3 -1 -3)
1969/12/31/18:00:12.667,(0 -1 -3 -2 -3 -1 -2 -2)
1969/12/31/18:00:12.667,(1 0 3 -1 0 0 1 2)
1969/12/31/18:00:12.675,(-2 -1 1 1 2 0 -2 0)
1969/12/31/18:00:12.675,(-2 -3 -5 -3 -3 -2 -1 -3)
1969/12/31/18:00:12.677,(0 0 0 -3 -3 0 1 1)
1969/12/31/18:00:12.677,(-1 -2 1 2 1 -3 -1 -2)
1969/12/31/18:00:12.698,(2 3 0 -2 -2 1 -1 0)
1969/12/31/18:00:12.698,(1 0 2 5 3 1 -2 1)
1969/12/31/18:00:12.700,(-2 0 -5 -5 1 0 0 -1)
1969/12/31/18:00:12.700,(-5 -12 -6 -9 -7 -3 -3 -2)
1969/12/31/18:00:12.713,(3 10 -3 3 1 1 1 0)
1969/12/31/18:00:12.713,(0 3 9 7 7 3 0 -1)
1969/12/31/18:00:12.719,(0 -1 -4 2 0 -1 1 0)
1969/12/31/18:00:12.719,(-1 -2 3 1 -1 -1 1 0)
1969/12/31/18:00:12.736,(-5 -7 -2 -5 -3 -1 -2 -2)
1969/12/31/18:00:12.736,(-1 -2 -3 -4 -1 -1 -1 -1)
1969/12/31/18:00:12.737,(-2 -1 -4 -3 -1 -2 -1 -1)
1969/12/31/18:00:12.737,(1 1 -3 -3 -4 -2 0 -1)
1969/12/31/18:00:12.758,(0 -2 2 3 5 0 0 1)
1969/12/31/18:00:12.758,(2 2 1 5 3 1 1 3)
1969/12/31/18:00:12.759,(0 -1 -1 0 -2 -1 -2 0)
1969/12/31/18:00:12.759,(1 3 5 5 1 1 -1 -1)
1969/12/31/18:00:12.772,(-4 -8 -8 -4 -2 -3 -3 -3)
1969/12/31/18:00:12.772,(-3 -3 -5 -4 -4 -3 -2 -3)
1969/12/31/18:00:12.780,(0 0 -2 -1 1 0 -3 -1)
1969/12/31/18:00:12.780,(-1 1 -2 -4 1 -1 0 0)
1969/12/31/18:00:12.796,(0 0 0 -5 -3 -1 -1 -3)
1969/12/31/18:00:12.796,(-2 -3 -5 3 -1 -1 -1 -1)
1969/12/31/18:00:12.798,(0 2 3 0 1 3 1 0)
1969/12/31/18:00:12.798,(-1 -2 -2 -1 0 2 -1 0)
1969/12/31/18:00:12.818,(-3 -2 -1 1 1 -1 -1 -1)
1969/12/31/18:00:12.818,(-4 -5 -10 -11 -6 -2 -1 1)
1969/12/31/18:00:12.820,(-2 1 7 1 -1 -2 -1 -5)
1969/12/31/18:00:12.820,(-2 -4 -4 0 1 0 -2 -1)
1969/12/31/18:00:12.832,(-1 -1 -2 -1 0 0 1 0)
1969/12/31/18:00:12.832,(-2 1 3 0 -1 0 -1 -1)
1969/12/31/18:00:12.841,(-1 -3 -4 0 -2 -2 -1 -1)
1969/12/31/18:00:12.841,(0 1 -1 0 0 -1 0 1)
1969/12/31/18:00:12.856,(-1 1 -1 -1 1 -1 -1 -1)
1969/12/31/18:00:12.856,(0 1 -3 -4 -5 -3 0 -1)
1969/12/31/18:00:12.857,(-2 -8 -3 1 2 1 0 0)
1969/12/31/18:00:12.857,(1 11 0 -4 -3 -2 -2 -3)
