time,.data
1969/12/31/18:00:04.446,(4 6 -4 -7 12 95 59 12)
1969/12/31/18:00:04.446,(-8 7 9 14 -4 -20 7 -12)
1969/12/31/18:00:04.447,(14 4 -1 -2 -1 -6 18 -7)
1969/12/31/18:00:04.447,(27 9 12 17 4 -43 -15 50)
1969/12/31/18:00:04.480,(-29 -14 -6 -3 5 24 -54 -89)
1969/12/31/18:00:04.480,(35 6 -8 -11 -7 -20 17 56)
1969/12/31/18:00:04.482,(-11 13 2 -3 0 26 33 31)
1969/12/31/18:00:04.482,(7 -19 -4 -4 3 89 36 21)
1969/12/31/18:00:04.513,(28 25 15 13 6 -57 -30 33)
1969/12/31/18:00:04.513,(-106 -88 -44 -32 -22 -30 -22 -65)
1969/12/31/18:00:04.515,(21 21 7 4 -8 -68 -59 6)
1969/12/31/18:00:04.515,(14 12 3 5 20 61 3 -1)
1969/12/31/18:00:04.536,(6 -3 6 8 7 31 27 25)
1969/12/31/18:00:04.536,(49 41 7 -3 -17 -76 32 17)
1969/12/31/18:00:04.537,(-27 -23 -3 0 8 2 -42 -38)
1969/12/31/18:00:04.537,(-30 -16 -2 3 8 5 17 -25)
1969/12/31/18:00:04.570,(20 24 10 4 9 42 46 54)
1969/12/31/18:00:04.570,(-68 -27 -10 -13 -35 -74 -52 -91)
1969/12/31/18:00:04.572,(-23 -8 0 13 16 55 30 -7)
1969/12/31/18:00:04.572,(8 2 -4 -6 -19 -77 8 45)
1969/12/31/18:00:04.603,(-1 -5 1 7 20 44 13 8)
1969/12/31/18:00:04.605,(20 22 1 2 10 -12 0 27)
1969/12/31/18:00:04.605,(0 2 -3 -6 6 -9 -30 5)
1969/12/31/18:00:04.605,(-4 12 2 6 26 36 -15 -36)
1969/12/31/18:00:04.626,(-12 -16 -10 -17 -45 55 39 18)
1969/12/31/18:00:04.626,(-6 -26 -10 -11 -13 -67 -27 -9)
1969/12/31/18:00:04.627,(-58 -28 -13 -23 -58 -15 -10 -36)
1969/12/31/18:00:04.627,(15 11 9 15 50 -24 -6 3)
1969/12/31/18:00:04.660,(-28 -30 -5 3 13 10 -6 -6)
1969/12/31/18:00:04.660,(26 19 1 -8 -18 78 37 33)
1969/12/31/18:00:04.662,(9 1 6 6 2 -25 13 5)
1969/12/31/18:00:04.662,(6 8 -3 -21 -46 5 -33 -30)
1969/12/31/18:00:04.695,(-48 -17 -13 -12 18 -73 -35 -33)
1969/12/31/18:00:04.695,(16 7 8 22 14 -28 -2 26)
1969/12/31/18:00:04.695,(17 5 1 11 32 16 -7 -8)
1969/12/31/18:00:04.695,(-11 -7 -5 -10 -13 -3 4 3)
1969/12/31/18:00:04.716,(2 1 -9 -20 2 -21 -39 -26)
1969/12/31/18:00:04.716,(-8 -2 -5 -14 -68 33 0 0)
1969/12/31/18:00:04.718,(36 32 14 24 18 -26 -1 31)
1969/12/31/18:00:04.718,(-23 -32 -3 15 25 50 31 -2)
1969/12/31/18:00:04.751,(-12 -10 -4 8 8 17 -7 -1)
1969/12/31/18:00:04.751,(-7 -5 -13 -32 -41 -33 -30 -35)
1969/12/31/18:00:04.752,(4 1 -2 -7 25 18 26 7)
1969/12/31/18:00:04.752,(1 -2 0 -1 -18 -13 -3 12)
1969/12/31/18:00:04.797,(-4 3 -3 -14 -58 -74 -8 -11)
1969/12/31/18:00:04.797,(14 9 11 18 77 68 20 24)
1969/12/31/18:00:04.799,(13 6 -5 -14 -61 -19 -1 34)
1969/12/31/18:00:04.799,(5 -7 -6 6 52 27 15 -44)
1969/12/31/18:00:04.808,(-14 14 6 7 -1 5 -19 -39)
1969/12/31/18:00:04.808,(9 0 -7 -2 -13 4 20 15)
1969/12/31/18:00:04.808,(-6 -18 -18 2 62 69 19 -12)
1969/12/31/18:00:04.809,(-23 -12 7 -4 -42 -63 -43 -3)
1969/12/31/18:00:04.841,(1 19 3 -12 -48 -70 -17 10)
1969/12/31/18:00:04.841,(11 -1 0 6 56 52 10 10)
1969/12/31/18:00:04.842,(-13 -27 15 25 11 -23 16 2)
1969/12/31/18:00:04.842,(6 -11 -38 -28 -74 -18 -10 11)
1969/12/31/18:00:04.874,(5 -4 5 -17 -40 -15 -2 10)
1969/12/31/18:00:04.875,(-24 66 52 28 56 45 4 -31)
1969/12/31/18:00:04.877,(-3 -23 13 -3 0 -6 -7 11)
1969/12/31/18:00:04.877,(-12 2 -8 11 42 -2 -22 -45)
1969/12/31/18:00:04.898,(-27 -5 -57 0 9 -2 1 -63)
1969/12/31/18:00:04.898,(18 26 34 0 -14 -3 7 23)
1969/12/31/18:00:04.898,(-9 2 20 -1 2 2 -21 -14)
1969/12/31/18:00:04.898,(-49 19 58 20 -12 -23 -15 -61)
1969/12/31/18:00:04.931,(30 16 -28 1 55 45 8 -1)
1969/12/31/18:00:04.931,(6 -106 -97 -42 -62 -42 -8 0)
1969/12/31/18:00:04.932,(42 50 5 -11 -2 26 10 -12)
1969/12/31/18:00:04.932,(-23 40 -1 -3 -7 -34 19 4)
1969/12/31/18:00:04.977,(28 -40 -1 -2 -12 9 -16 68)
1969/12/31/18:00:04.977,(-15 12 1 9 10 9 15 5)
1969/12/31/18:00:04.977,(19 47 58 6 -39 -34 -20 58)
1969/12/31/18:00:04.977,(40 -17 -24 -8 25 25 15 52)
1969/12/31/18:00:04.987,(-24 55 86 48 46 25 16 23)
1969/12/31/18:00:04.987,(4 1 -13 3 12 3 -23 -46)
1969/12/31/18:00:04.988,(-60 -75 -75 -37 -11 -8 -12 -51)
1969/12/31/18:00:04.988,(-3 12 14 10 4 8 39 42)
1969/12/31/18:00:05.021,(31 -74 -49 -24 -21 -21 -10 24)
1969/12/31/18:00:05.021,(-5 58 6 3 -4 6 24 51)
1969/12/31/18:00:05.023,(15 89 53 27 26 7 -8 -32)
1969/12/31/18:00:05.023,(-9 -57 8 4 47 47 -29 -3)
1969/12/31/18:00:05.056,(-51 -40 14 3 -96 -89 14 -19)
1969/12/31/18:00:05.056,(25 73 69 16 9 5 -17 62)
1969/12/31/18:00:05.057,(6 -39 -44 -10 -10 -8 22 28)
1969/12/31/18:00:05.057,(-16 60 43 -10 -35 -12 -35 -72)
1969/12/31/18:00:05.078,(-8 -76 -84 -40 2 3 -23 -49)
1969/12/31/18:00:05.078,(-5 -56 -36 1 55 44 -9 -13)
1969/12/31/18:00:05.080,(-69 25 25 11 -2 -23 -4 -25)
1969/12/31/18:00:05.080,(7 -58 -22 -2 -22 -5 22 35)
1969/12/31/18:00:05.111,(27 36 2 -18 -17 4 14 -28)
1969/12/31/18:00:05.111,(29 17 40 32 31 18 6 60)
1969/12/31/18:00:05.113,(51 -61 -97 -24 -1 5 -7 15)
1969/12/31/18:00:05.113,(-6 62 72 -2 -39 -37 9 61)
1969/12/31/18:00:05.146,(-16 45 45 27 35 21 7 -47)
1969/12/31/18:00:05.146,(-28 -49 -30 -9 23 28 1 -26)
1969/12/31/18:00:05.147,(47 -34 -36 4 11 5 26 23)
1969/12/31/18:00:05.147,(-17 -23 -43 -6 22 -2 21 29)
1969/12/31/18:00:05.168,(1 34 29 -12 -65 -46 -55 -18)
1969/12/31/18:00:05.168,(-39 -38 -24 -5 68 35 9 -38)
1969/12/31/18:00:05.170,(25 -29 -9 -35 -116 -86 -17 13)
1969/12/31/18:00:05.170,(68 6 -90 -37 22 5 8 48)
1969/12/31/18:00:05.225,(-63 46 112 75 83 52 55 -24)
1969/12/31/18:00:05.225,(-30 6 -24 -46 -117 -67 -94 -64)
1969/12/31/18:00:05.227,(-48 -19 6 3 33 5 -47 -73)
1969/12/31/18:00:05.227,(22 -19 -10 4 1 31 27 13)
1969/12/31/18:00:05.236,(33 -41 -41 12 62 32 22 45)
1969/12/31/18:00:05.236,(25 -28 -71 -21 19 22 45 42)
1969/12/31/18:00:05.236,(10 104 107 47 -26 -21 -75 -6)
1969/12/31/18:00:05.236,(2 37 21 -6 -22 -20 2 -2)
1969/12/31/18:00:05.257,(7 15 -20 -1 8 10 -11 -8)
1969/12/31/18:00:05.257,(18 -59 -18 9 -8 -14 35 26)
1969/12/31/18:00:05.259,(9 3 -34 -5 53 42 22 40)
1969/12/31/18:00:05.259,(36 -13 -3 7 30 33 16 -8)
1969/12/31/18:00:05.292,(-66 -59 28 6 -72 -34 -18 -4)
1969/12/31/18:00:05.292,(-19 91 34 -38 -97 -87 -4 -102)
1969/12/31/18:00:05.293,(-22 -47 -5 -6 -5 -20 -39 -37)
1969/12/31/18:00:05.293,(27 49 16 24 39 18 -1 -7)
1969/12/31/18:00:05.326,(51 -48 -128 -48 53 47 19 32)
1969/12/31/18:00:05.326,(-9 49 109 68 37 27 21 45)
1969/12/31/18:00:05.326,(-34 -40 -66 -24 -11 -7 24 -28)
1969/12/31/18:00:05.326,(-29 -30 24 8 32 14 -19 25)
1969/12/31/18:00:05.350,(41 96 42 16 -60 -45 -11 8)
1969/12/31/18:00:05.350,(33 -92 -77 -34 -24 -25 -32 -25)
1969/12/31/18:00:05.352,(-17 9 -9 -25 -16 -10 -21 -12)
1969/12/31/18:00:05.352,(15 40 18 12 12 32 18 -7)
1969/12/31/18:00:05.382,(12 -47 -61 -33 7 -5 -1 20)
1969/12/31/18:00:05.382,(-56 -58 -9 2 19 6 -25 -32)
1969/12/31/18:00:05.383,(5 67 56 50 83 68 58 -9)
1969/12/31/18:00:05.383,(19 -79 -72 -34 -95 -64 -28 43)
1969/12/31/18:00:05.418,(-9 62 31 -18 -4 6 -40 -26)
1969/12/31/18:00:05.418,(-8 14 43 31 -13 -13 32 -14)
1969/12/31/18:00:05.419,(-1 -94 -111 -42 -11 4 -6 1)
1969/12/31/18:00:05.419,(-30 37 8 -7 -18 -31 -19 -17)
1969/12/31/18:00:05.439,(11 92 63 39 49 45 -8 -5)
1969/12/31/18:00:05.439,(78 -12 -63 -22 -13 -26 4 46)
1969/12/31/18:00:05.440,(-8 -5 86 57 75 76 46 45)
1969/12/31/18:00:05.440,(-23 82 69 -3 -85 -81 -23 -2)
1969/12/31/18:00:05.472,(59 -62 -58 -11 36 19 25 88)
1969/12/31/18:00:05.472,(-27 31 43 12 3 22 -24 -76)
1969/12/31/18:00:05.473,(10 19 -10 -10 -29 -57 -7 -22)
1969/12/31/18:00:05.473,(23 -76 -78 -13 34 48 18 8)
1969/12/31/18:00:05.506,(-47 62 105 33 3 5 51 35)
1969/12/31/18:00:05.506,(-41 -34 -11 -4 -16 -36 -43 9)
1969/12/31/18:00:05.508,(49 -14 -59 -12 25 40 45 51)
1969/12/31/18:00:05.508,(-7 -3 35 -1 -70 -53 -35 -23)
1969/12/31/18:00:05.528,(15 4 -20 2 31 27 17 7)
1969/12/31/18:00:05.528,(-9 -13 0 15 75 69 33 32)
1969/12/31/18:00:05.540,(-5 -42 -36 -6 -6 -26 -23 -38)
1969/12/31/18:00:05.540,(4 26 -9 -29 -86 -74 10 22)
1969/12/31/18:00:05.562,(-28 -32 5 8 12 20 30 17)
1969/12/31/18:00:05.562,(23 -22 -39 -19 30 24 18 9)
1969/12/31/18:00:05.564,(28 3 -12 -21 -78 -36 2 31)
1969/12/31/18:00:05.564,(29 8 -8 24 94 78 -7 -11)
1969/12/31/18:00:05.597,(-21 13 23 10 -27 -34 -10 -10)
1969/12/31/18:00:05.597,(-21 34 7 9 -13 -9 -22 -28)
1969/12/31/18:00:05.597,(13 5 -1 -27 -9 5 36 13)
1969/12/31/18:00:05.598,(-53 -27 47 24 17 2 -8 -25)
1969/12/31/18:00:05.633,(31 11 -14 -6 -13 -10 10 12)
1969/12/31/18:00:05.633,(0 -2 -23 -9 35 64 16 4)
1969/12/31/18:00:05.634,(10 7 10 21 16 -37 -26 9)
1969/12/31/18:00:05.634,(-19 5 -25 -25 -59 -25 -28 -32)
1969/12/31/18:00:05.652,(-22 -75 -11 -8 -6 -16 -2 -1)
1969/12/31/18:00:05.652,(19 56 12 25 47 31 -18 -1)
1969/12/31/18:00:05.654,(4 36 30 -1 -36 -3 11 20)
1969/12/31/18:00:05.654,(-25 -25 11 29 78 43 18 -12)
1969/12/31/18:00:05.687,(-35 -42 -51 -24 21 60 16 -27)
1969/12/31/18:00:05.687,(36 16 -9 -17 -85 -100 -4 29)
1969/12/31/18:00:05.688,(-46 -1 42 0 -30 -9 -16 -14)
1969/12/31/18:00:05.688,(31 5 -13 28 81 53 3 13)
1969/12/31/18:00:05.708,(-5 -15 -19 -28 -41 -11 -21 -27)
1969/12/31/18:00:05.708,(2 11 10 5 15 24 33 38)
1969/12/31/18:00:05.720,(-23 15 -1 0 -6 -14 -19 -37)
1969/12/31/18:00:05.720,(-7 -55 -19 -16 -14 -19 -22 3)
1969/12/31/18:00:05.742,(18 -1 2 15 36 28 43 34)
1969/12/31/18:00:05.742,(-36 16 14 5 -20 -30 -47 -70)
1969/12/31/18:00:05.744,(15 25 25 13 -1 -5 5 19)
1969/12/31/18:00:05.744,(-55 -46 -39 -25 -17 0 1 -67)
1969/12/31/18:00:05.775,(10 -32 -36 -16 16 10 -17 -20)
1969/12/31/18:00:05.777,(-14 2 18 10 -19 -30 -16 -6)
1969/12/31/18:00:05.777,(9 26 41 14 28 33 21 43)
1969/12/31/18:00:05.777,(-16 -35 -38 -11 -26 -2 3 -25)
1969/12/31/18:00:05.798,(31 42 -3 -8 -2 -26 -6 22)
1969/12/31/18:00:05.798,(11 38 31 18 13 14 33 20)
1969/12/31/18:00:05.810,(-44 -46 -6 -11 -13 -8 -37 -49)
1969/12/31/18:00:05.810,(20 19 -3 9 16 4 34 11)
1969/12/31/18:00:05.833,(34 -15 -8 22 80 65 8 30)
1969/12/31/18:00:05.833,(-38 21 24 -11 -81 -62 24 -7)
1969/12/31/18:00:05.834,(28 50 59 20 -4 -12 -32 9)
1969/12/31/18:00:05.834,(10 -14 -58 -31 -3 -12 -19 4)
1969/12/31/18:00:05.866,(-18 0 43 14 -21 -30 -13 -36)
1969/12/31/18:00:05.866,(20 -5 -15 -2 47 51 29 55)
1969/12/31/18:00:05.867,(30 1 -17 -2 15 23 35 18)
1969/12/31/18:00:05.869,(29 16 21 19 18 18 4 28)
1969/12/31/18:00:05.888,(-78 -58 -48 -15 -30 -51 -57 -76)
1969/12/31/18:00:05.888,(26 -7 -20 -27 -19 -7 -29 -3)
1969/12/31/18:00:05.900,(-31 -14 26 12 0 6 30 10)
1969/12/31/18:00:05.900,(69 47 29 36 110 97 60 101)
1969/12/31/18:00:05.923,(-29 -24 4 -8 -102 -102 -102 -81)
1969/12/31/18:00:05.923,(-14 -37 -47 -35 -11 -5 4 -25)
1969/12/31/18:00:05.924,(3 15 -34 -20 -20 -11 0 -16)
1969/12/31/18:00:05.924,(-12 32 57 28 40 23 35 11)
1969/12/31/18:00:05.957,(15 20 14 11 -16 -3 -3 20)
1969/12/31/18:00:05.957,(28 -29 8 6 5 9 10 22)
1969/12/31/18:00:05.957,(36 22 2 8 44 56 47 63)
1969/12/31/18:00:05.959,(-36 -10 -8 -7 -34 -41 -83 -111)
1969/12/31/18:00:05.993,(-12 -17 -25 -26 -27 -33 -24 -22)
1969/12/31/18:00:05.993,(20 -24 -20 -9 -2 3 -7 -18)
1969/12/31/18:00:05.995,(-10 -14 -18 -2 26 19 9 17)
1969/12/31/18:00:05.995,(-4 8 17 3 -7 1 20 16)
1969/12/31/18:00:06.013,(32 21 6 0 -1 17 26 49)
1969/12/31/18:00:06.013,(21 2 1 9 6 -2 4 -14)
1969/12/31/18:00:06.014,(-39 -16 -6 -4 -3 -18 -27 -51)
1969/12/31/18:00:06.014,(-26 -30 -45 -40 -70 -69 -62 -19)
1969/12/31/18:00:06.047,(-2 -2 28 9 14 31 16 -4)
1969/12/31/18:00:06.047,(12 51 59 39 56 24 43 50)
1969/12/31/18:00:06.049,(4 17 -15 -13 -29 -27 -37 -32)
1969/12/31/18:00:06.049,(3 10 5 -6 -14 -17 -12 -7)
1969/12/31/18:00:06.069,(0 25 -3 -1 11 9 9 17)
1969/12/31/18:00:06.069,(-15 -44 14 10 16 31 -7 -13)
1969/12/31/18:00:06.081,(29 -24 -40 -9 -6 -12 2 -1)
1969/12/31/18:00:06.081,(-25 -21 0 -6 -21 -15 -3 -9)
1969/12/31/18:00:06.103,(40 56 18 14 25 19 28 20)
1969/12/31/18:00:06.103,(-37 -29 -26 -13 -16 -8 -14 -28)
1969/12/31/18:00:06.105,(-16 -14 -13 -9 -10 -17 -28 -13)
1969/12/31/18:00:06.105,(-5 1 -4 -4 3 12 34 3)
1969/12/31/18:00:06.138,(-31 -16 1 3 2 -6 -44 -23)
1969/12/31/18:00:06.138,(2 8 -6 3 0 4 20 -17)
1969/12/31/18:00:06.139,(-28 -25 -8 -9 -12 -21 -66 -62)
1969/12/31/18:00:06.139,(4 7 -1 -10 -6 3 16 14)
1969/12/31/18:00:06.172,(-16 -19 0 7 13 9 24 0)
1969/12/31/18:00:06.172,(-28 8 9 -2 -26 -17 -3 -8)
1969/12/31/18:00:06.174,(32 36 23 12 29 30 31 61)
1969/12/31/18:00:06.174,(-77 -63 -17 -4 -7 -13 -31 -51)
1969/12/31/18:00:06.193,(38 18 -31 -22 -15 -9 32 11)
1969/12/31/18:00:06.193,(-22 -108 -65 -29 -14 -13 -45 4)
1969/12/31/18:00:06.195,(30 93 60 35 9 11 22 18)
1969/12/31/18:00:06.195,(31 55 59 19 10 -5 20 0)
1969/12/31/18:00:06.228,(-24 -11 11 13 27 61 7 -4)
1969/12/31/18:00:06.228,(19 -11 -25 -30 -45 -55 -81 -50)
1969/12/31/18:00:06.229,(-45 -59 -49 -39 -26 -13 -9 -58)
1969/12/31/18:00:06.229,(-22 -9 -12 3 8 1 15 22)
1969/12/31/18:00:06.262,(-35 -26 -2 -14 -5 1 -8 -12)
1969/12/31/18:00:06.262,(-5 6 5 3 11 25 44 27)
1969/12/31/18:00:06.264,(29 -4 0 19 8 -20 -10 53)
1969/12/31/18:00:06.264,(17 19 1 9 -3 -39 -28 -67)
1969/12/31/18:00:06.283,(18 -3 -3 -5 -9 -6 3 12)
1969/12/31/18:00:06.283,(-4 19 8 5 9 16 -7 -6)
1969/12/31/18:00:06.285,(-6 3 4 -11 -12 -8 5 -4)
1969/12/31/18:00:06.285,(13 -7 -8 -5 -1 13 8 26)
1969/12/31/18:00:06.318,(11 2 0 2 5 -14 -14 -11)
1969/12/31/18:00:06.318,(20 33 22 10 1 -7 9 9)
1969/12/31/18:00:06.319,(-30 -25 1 6 12 19 19 7)
1969/12/31/18:00:06.319,(73 26 -1 -1 0 8 -1 31)
1969/12/31/18:00:06.353,(1 -14 -16 -9 -11 -12 7 5)
1969/12/31/18:00:06.353,(51 46 16 2 -4 -4 -45 -31)
1969/12/31/18:00:06.354,(-80 -45 -11 -4 -5 12 20 -63)
1969/12/31/18:00:06.354,(26 -7 1 5 2 6 -10 26)
1969/12/31/18:00:06.374,(-13 5 5 -7 -14 11 22 -19)
1969/12/31/18:00:06.374,(12 5 4 9 17 -3 45 41)
1969/12/31/18:00:06.375,(27 18 5 4 1 -5 -47 -12)
1969/12/31/18:00:06.375,(26 5 -1 -2 -7 -6 10 30)
1969/12/31/18:00:06.408,(-56 -28 -17 -8 -3 -10 -33 -59)
1969/12/31/18:00:06.408,(-14 -5 3 0 0 6 28 11)
1969/12/31/18:00:06.410,(17 7 2 1 2 5 -6 7)
1969/12/31/18:00:06.410,(-23 -7 -8 -9 -13 -7 -11 -11)
1969/12/31/18:00:06.443,(46 31 18 15 9 -11 -10 45)
1969/12/31/18:00:06.443,(6 1 -1 1 0 5 6 3)
1969/12/31/18:00:06.444,(18 8 4 2 3 5 23 13)
1969/12/31/18:00:06.444,(-16 -7 2 6 8 19 29 21)
1969/12/31/18:00:06.464,(-30 -8 -11 -5 -5 -13 -20 -48)
1969/12/31/18:00:06.464,(-29 -1 5 1 0 -5 -7 -5)
1969/12/31/18:00:06.465,(102 57 8 3 3 9 31 71)
1969/12/31/18:00:06.465,(-106 -72 -27 -15 -7 1 -9 -29)
1969/12/31/18:00:06.498,(-83 -38 -14 -11 -15 -41 -44 -71)
1969/12/31/18:00:06.498,(-17 -8 -3 -1 5 27 -45 -17)
1969/12/31/18:00:06.500,(46 7 -1 -7 -11 -62 37 48)
1969/12/31/18:00:06.500,(32 34 19 17 2 11 26 23)
1969/12/31/18:00:06.533,(-7 4 4 4 2 -12 -9 -24)
1969/12/31/18:00:06.533,(-73 -16 -10 -4 -5 -13 -20 -46)
1969/12/31/18:00:06.534,(-6 -17 -4 -2 4 17 -10 -11)
1969/12/31/18:00:06.534,(35 8 -4 -8 -4 -14 -17 -12)
1969/12/31/18:00:06.554,(52 30 17 1 -2 11 39 65)
1969/12/31/18:00:06.554,(31 20 19 17 19 31 11 41)
1969/12/31/18:00:06.555,(-106 -51 -19 -2 -9 4 -32 -69)
1969/12/31/18:00:06.555,(-28 -21 -11 -6 -2 0 9 -20)
1969/12/31/18:00:06.588,(45 1 -7 -2 0 4 -7 33)
1969/12/31/18:00:06.588,(41 12 -6 -8 0 -1 24 31)
1969/12/31/18:00:06.590,(-1 12 17 6 4 16 16 18)
1969/12/31/18:00:06.590,(-32 -15 4 9 6 -2 -14 10)
1969/12/31/18:00:06.623,(43 27 8 4 6 1 9 31)
1969/12/31/18:00:06.623,(4 -9 -10 -6 -10 -11 -1 7)
1969/12/31/18:00:06.625,(-40 -31 -14 -7 -1 -6 -8 -24)
1969/12/31/18:00:06.625,(57 16 -15 -20 -10 -1 3 32)
1969/12/31/18:00:06.644,(-23 -14 3 3 2 -5 -15 -34)
1969/12/31/18:00:06.644,(23 18 14 18 9 1 15 6)
1969/12/31/18:00:06.646,(-28 -5 -1 -5 -6 2 -4 -44)
1969/12/31/18:00:06.646,(32 19 6 2 4 9 3 8)
1969/12/31/18:00:06.679,(-11 -3 -2 2 3 4 3 23)
1969/12/31/18:00:06.679,(1 -12 -5 -7 -7 -10 -8 -7)
1969/12/31/18:00:06.680,(12 7 -5 -3 -4 0 0 10)
1969/12/31/18:00:06.680,(-15 -5 -3 -3 -1 1 0 0)
1969/12/31/18:00:06.713,(14 2 3 3 4 4 16 51)
1969/12/31/18:00:06.713,(-11 1 1 0 -4 -8 -4 -8)
1969/12/31/18:00:06.715,(18 -7 -8 -10 -6 -3 -2 21)
1969/12/31/18:00:06.715,(-14 3 -1 -4 -5 0 -4 -18)
1969/12/31/18:00:06.746,(15 -3 0 6 4 6 8 48)
1969/12/31/18:00:06.746,(-22 -14 -9 -8 -7 -8 -8 -58)
1969/12/31/18:00:06.748,(-16 -3 -1 1 2 4 0 10)
1969/12/31/18:00:06.748,(-19 -9 -4 -4 -5 -4 -12 -27)
1969/12/31/18:00:06.769,(25 11 -7 -6 -3 0 0 -27)
1969/12/31/18:00:06.769,(-9 3 8 5 1 -1 5 25)
1969/12/31/18:00:06.770,(17 2 -6 -6 -7 -3 3 -3)
1969/12/31/18:00:06.770,(-2 1 2 3 -3 -4 -11 23)
1969/12/31/18:00:06.803,(25 4 5 2 4 2 0 3)
1969/12/31/18:00:06.803,(-2 -11 -9 -8 -4 -5 -2 -5)
1969/12/31/18:00:06.805,(4 -7 -5 -3 -2 -4 -6 2)
1969/12/31/18:00:06.805,(22 17 3 2 2 6 13 28)
1969/12/31/18:00:06.824,(-12 -22 -9 -1 -3 -2 2 -6)
1969/12/31/18:00:06.824,(-6 -13 -14 -11 -4 -3 -6 3)
1969/12/31/18:00:06.826,(10 24 22 6 4 3 11 6)
1969/12/31/18:00:06.826,(-5 6 8 5 2 -1 -1 -3)
1969/12/31/18:00:06.859,(-16 -9 -2 3 0 -2 -4 -20)
1969/12/31/18:00:06.859,(-2 -8 -16 -5 -2 -2 2 -3)
1969/12/31/18:00:06.860,(16 -5 -21 -13 -3 -1 -3 0)
1969/12/31/18:00:06.860,(-12 -23 -3 -6 -2 0 2 -9)
1969/12/31/18:00:06.894,(-6 76 92 43 15 5 12 0)
1969/12/31/18:00:06.894,(1 -12 -7 0 0 0 -2 8)
1969/12/31/18:00:06.895,(-4 -17 -14 -6 -2 -2 -4 0)
1969/12/31/18:00:06.895,(9 -5 -10 0 0 2 -2 -6)
1969/12/31/18:00:06.915,(-18 2 2 -6 -6 -3 9 2)
1969/12/31/18:00:06.915,(33 17 -18 -14 -5 -5 -4 7)
1969/12/31/18:00:06.916,(-28 -27 0 6 -1 -3 -1 -7)
1969/12/31/18:00:06.916,(-9 15 22 9 1 -1 -13 -21)
1969/12/31/18:00:06.952,(-7 -36 -36 -17 -10 -3 -5 -16)
1969/12/31/18:00:06.952,(-3 4 -1 -5 -3 -3 4 -1)
1969/12/31/18:00:06.955,(-7 -21 -19 -10 -1 0 6 -2)
1969/12/31/18:00:06.955,(16 -4 -32 -9 -1 -1 2 12)
1969/12/31/18:00:06.982,(-2 45 64 19 5 -2 -7 -2)
1969/12/31/18:00:06.982,(0 -8 -9 -2 -1 0 0 5)
1969/12/31/18:00:06.996,(-13 -62 -43 -23 -7 2 11 2)
1969/12/31/18:00:06.996,(20 60 28 10 6 2 1 8)
1969/12/31/18:00:07.005,(-19 -48 -49 -14 -3 1 -4 -18)
1969/12/31/18:00:07.005,(-18 35 54 18 1 -1 -18 -14)
1969/12/31/18:00:07.018,(4 2 20 14 8 6 -1 6)
1969/12/31/18:00:07.018,(-1 -4 -8 -11 -3 -3 1 -4)
1969/12/31/18:00:07.039,(23 12 -25 -9 -4 -5 -5 4)
1969/12/31/18:00:07.039,(-9 -21 -1 2 3 3 12 5)
1969/12/31/18:00:07.042,(-1 13 -15 -6 -6 -4 -5 -4)
1969/12/31/18:00:07.042,(-11 -16 9 6 3 2 1 -4)
1969/12/31/18:00:07.074,(10 -2 -10 -7 -5 -3 -6 7)
1969/12/31/18:00:07.074,(-7 -10 4 8 4 2 11 -2)
1969/12/31/18:00:07.075,(2 5 2 0 -7 -7 -29 -14)
1969/12/31/18:00:07.077,(-5 -20 -28 -14 -4 2 -1 0)
1969/12/31/18:00:07.093,(8 -26 3 2 4 1 -10 -3)
1969/12/31/18:00:07.093,(-7 20 13 0 3 7 8 0)
1969/12/31/18:00:07.107,(36 32 3 -2 -1 2 -6 3)
1969/12/31/18:00:07.107,(-29 -66 -62 -23 -7 4 15 -5)
1969/12/31/18:00:07.129,(14 77 77 56 20 8 -16 -3)
1969/12/31/18:00:07.129,(-7 -4 0 -1 -7 -5 -16 -12)
1969/12/31/18:00:07.151,(-12 -14 -32 -28 -11 -3 -1 -1)
1969/12/31/18:00:07.151,(9 18 61 40 13 0 1 -4)
1969/12/31/18:00:07.164,(3 -2 -40 -19 -3 -4 21 17)
1969/12/31/18:00:07.164,(-13 -44 -23 -8 -1 -16 6 8)
1969/12/31/18:00:07.166,(5 52 45 20 12 0 11 9)
1969/12/31/18:00:07.166,(1 1 -23 -25 -11 -15 9 3)
1969/12/31/18:00:07.184,(-27 -57 -47 -30 -9 -7 10 6)
1969/12/31/18:00:07.184,(20 71 2 4 5 -1 2 5)
1969/12/31/18:00:07.197,(6 9 14 5 1 -2 2 0)
1969/12/31/18:00:07.199,(-12 -28 -12 3 5 4 -13 -4)
1969/12/31/18:00:07.220,(17 9 28 16 1 2 -5 -2)
1969/12/31/18:00:07.221,(-1 -24 -20 -7 -3 5 1 3)
1969/12/31/18:00:07.223,(-22 -43 -29 -21 -7 2 6 3)
1969/12/31/18:00:07.223,(28 88 43 20 8 6 -1 1)
1969/12/31/18:00:07.254,(3 -14 9 12 4 4 3 2)
1969/12/31/18:00:07.254,(11 3 -7 -13 -8 -7 -5 1)
1969/12/31/18:00:07.257,(-11 3 7 11 2 0 -1 -5)
1969/12/31/18:00:07.257,(-13 -29 16 -4 -5 -5 -4 -6)
1969/12/31/18:00:07.299,(-14 -13 -35 -21 -8 -4 -1 -6)
1969/12/31/18:00:07.299,(8 24 16 3 3 5 4 3)
1969/12/31/18:00:07.302,(11 19 20 13 2 -2 -4 0)
1969/12/31/18:00:07.302,(-9 -32 -30 -18 -8 -2 -4 -1)
1969/12/31/18:00:07.310,(3 16 6 -6 -4 0 -2 -5)
1969/12/31/18:00:07.310,(-2 3 2 2 -1 2 -9 -2)
1969/12/31/18:00:07.313,(-1 -13 -12 -3 -2 -5 -5 -6)
1969/12/31/18:00:07.313,(4 12 -8 -9 -4 -4 -1 1)
1969/12/31/18:00:07.344,(-7 -16 -7 -2 -3 -2 3 2)
1969/12/31/18:00:07.344,(4 5 11 -1 0 -1 3 4)
1969/12/31/18:00:07.356,(-4 9 14 7 1 0 -1 -2)
1969/12/31/18:00:07.356,(3 -7 -24 -12 -6 -4 -4 1)
1969/12/31/18:00:07.365,(-3 3 -3 -3 -3 1 -3 -4)
1969/12/31/18:00:07.365,(-14 -42 -33 -23 -10 1 -5 -6)
1969/12/31/18:00:07.379,(9 29 35 22 6 2 -8 -7)
1969/12/31/18:00:07.379,(-1 -11 1 -2 -2 5 -2 -3)
1969/12/31/18:00:07.400,(6 4 0 -3 -5 0 -9 -9)
1969/12/31/18:00:07.400,(0 2 5 13 1 4 -7 -6)
1969/12/31/18:00:07.409,(-9 -15 -1 -3 -3 4 -4 -5)
1969/12/31/18:00:07.409,(-10 -8 10 4 -1 -2 -8 -9)
1969/12/31/18:00:07.435,(1 0 -7 -8 -2 -5 -4 -3)
1969/12/31/18:00:07.435,(2 3 1 2 1 -2 1 -3)
1969/12/31/18:00:07.438,(3 0 4 6 3 -4 6 4)
1969/12/31/18:00:07.438,(11 24 2 0 2 -3 7 7)
1969/12/31/18:00:07.454,(-14 -2 -13 -5 1 -3 2 2)
1969/12/31/18:00:07.454,(-5 -8 -3 -2 -3 -5 1 -1)
1969/12/31/18:00:07.480,(-3 -5 -10 -6 -2 -4 -3 -1)
1969/12/31/18:00:07.480,(0 3 3 3 -2 -1 1 -1)
1969/12/31/18:00:07.490,(3 -11 -12 -10 -3 -2 0 0)
1969/12/31/18:00:07.490,(0 1 4 -1 0 0 4 2)
1969/12/31/18:00:07.499,(3 2 -4 -1 4 -2 -3 -3)
1969/12/31/18:00:07.499,(-1 -4 7 8 0 -1 1 0)
1969/12/31/18:00:07.525,(2 3 0 0 -3 -2 0 2)
1969/12/31/18:00:07.525,(-5 -11 2 1 2 -1 1 -1)
1969/12/31/18:00:07.528,(0 -7 -9 -7 -2 3 -1 2)
1969/12/31/18:00:07.528,(-1 5 5 2 2 2 -2 -1)
1969/12/31/18:00:07.558,(-2 13 -2 -4 -2 0 -1 -2)
1969/12/31/18:00:07.558,(-3 -11 -6 -3 -1 0 -2 -1)
1969/12/31/18:00:07.561,(1 -1 1 -1 -1 -1 -1 0)
1969/12/31/18:00:07.561,(2 3 -1 -1 -2 -3 -4 -5)
1969/12/31/18:00:07.580,(-9 -13 -1 0 -3 2 -3 -3)
1969/12/31/18:00:07.580,(0 8 11 9 2 0 2 1)
1969/12/31/18:00:07.591,(5 1 -3 0 -3 -5 -3 -4)
1969/12/31/18:00:07.591,(-4 -6 0 -1 0 0 -1 1)
1969/12/31/18:00:07.615,(1 -3 -2 -3 -1 -3 -2 -3)
1969/12/31/18:00:07.615,(1 0 2 0 -1 -3 -3 -1)
1969/12/31/18:00:07.616,(-4 -1 1 0 0 1 1 -1)
1969/12/31/18:00:07.616,(-2 0 -3 1 -2 -2 0 -1)
1969/12/31/18:00:07.648,(-1 -6 -3 -3 -1 -1 1 1)
1969/12/31/18:00:07.648,(1 -3 -1 0 -1 0 1 3)
1969/12/31/18:00:07.651,(-2 -1 -3 -4 -1 -1 0 1)
1969/12/31/18:00:07.651,(1 2 3 2 0 0 -1 1)
1969/12/31/18:00:07.669,(-1 -5 -4 -3 0 0 -1 0)
1969/12/31/18:00:07.670,(1 -1 0 1 0 -2 -1 2)
1969/12/31/18:00:07.680,(0 4 -7 -2 0 0 1 0)
1969/12/31/18:00:07.680,(-1 1 2 1 1 1 2 1)
1969/12/31/18:00:07.717,(-11 -14 -3 -3 -4 -4 -3 -4)
1969/12/31/18:00:07.717,(-26 -20 -5 -1 0 -1 -3 -10)
1969/12/31/18:00:07.719,(4 3 1 1 0 -2 -1 -1)
1969/12/31/18:00:07.719,(-4 -4 -11 -14 -5 -3 1 1)
1969/12/31/18:00:07.738,(-2 -4 -2 -1 1 -1 0 -4)
1969/12/31/18:00:07.738,(9 3 -3 -4 -3 0 -3 3)
1969/12/31/18:00:07.741,(-4 -4 -5 -7 -4 -3 -1 -2)
1969/12/31/18:00:07.741,(-2 -2 -3 -1 0 0 -2 -1)
1969/12/31/18:00:07.761,(2 -1 1 -1 0 1 -2 2)
1969/12/31/18:00:07.761,(0 3 -1 2 1 0 -1 -1)
1969/12/31/18:00:07.771,(-3 -4 -4 -5 -3 0 1 -1)
1969/12/31/18:00:07.771,(1 1 4 2 0 -2 -2 -4)
1969/12/31/18:00:07.795,(-3 -1 -4 -1 0 1 0 0)
1969/12/31/18:00:07.795,(4 3 1 -1 -2 -1 0 -1)
1969/12/31/18:00:07.798,(1 2 3 4 2 0 -2 -1)
1969/12/31/18:00:07.798,(-3 -5 -3 0 -1 -1 -2 -2)
1969/12/31/18:00:07.828,(-1 0 0 0 3 1 2 1)
1969/12/31/18:00:07.828,(0 0 -4 -5 -3 -1 0 -2)
1969/12/31/18:00:07.831,(1 2 4 3 -1 -3 -3 -1)
1969/12/31/18:00:07.831,(-4 -4 -1 1 -1 -3 0 -1)
1969/12/31/18:00:07.851,(3 1 -1 0 -1 -1 -2 1)
1969/12/31/18:00:07.851,(0 -4 1 -2 1 -2 1 -1)
1969/12/31/18:00:07.860,(0 6 -3 -3 -1 0 0 -1)
1969/12/31/18:00:07.860,(-1 -2 -3 -3 -1 -1 -2 -2)
1969/12/31/18:00:07.896,(0 -1 -2 -1 -4 -1 0 0)
1969/12/31/18:00:07.896,(1 2 2 3 -1 -3 -1 -1)
1969/12/31/18:00:07.899,(-2 -6 -1 -1 -1 -1 -2 0)
1969/12/31/18:00:07.899,(-1 -4 -4 -4 -1 1 -2 -1)
1969/12/31/18:00:07.920,(3 3 0 1 2 0 0 -1)
1969/12/31/18:00:07.920,(0 0 -2 1 -1 0 -1 0)
1969/12/31/18:00:07.923,(-3 -3 -4 -1 -2 -1 -1 0)
1969/12/31/18:00:07.923,(1 3 2 4 -1 1 1 0)
1969/12/31/18:00:07.953,(-1 -3 -1 -1 -2 -1 -2 -2)
1969/12/31/18:00:07.953,(1 1 1 0 2 3 -1 1)
1969/12/31/18:00:07.955,(-1 1 -2 0 -1 1 0 0)
1969/12/31/18:00:07.955,(-2 -1 2 0 0 -3 -1 -1)
1969/12/31/18:00:07.955,(0 -1 0 1 -1 -1 0 0)
1969/12/31/18:00:07.955,(1 -1 -2 -2 -1 -1 1 -2)
1969/12/31/18:00:07.965,(-3 -4 -8 -4 -1 1 -1 -2)
1969/12/31/18:00:07.965,(1 4 3 0 2 -1 -1 -1)
1969/12/31/18:00:07.977,(-3 -2 -2 0 1 0 -2 -1)
1969/12/31/18:00:07.977,(1 4 3 4 3 -1 -2 0)
1969/12/31/18:00:08.013,(-3 -5 -6 -4 -2 1 1 0)
1969/12/31/18:00:08.013,(-3 -6 -3 0 -2 -2 2 -1)
1969/12/31/18:00:08.015,(3 5 4 -4 -3 -2 -1 0)
1969/12/31/18:00:08.015,(-1 -3 -5 -4 -1 -2 0 0)
1969/12/31/18:00:08.021,(2 3 7 1 1 -1 -1 0)
1969/12/31/18:00:08.021,(-5 -6 -5 1 2 1 -1 0)
1969/12/31/18:00:08.033,(-2 -7 -11 1 -2 -3 -1 -3)
1969/12/31/18:00:08.033,(2 1 3 -1 1 -1 -2 -1)
1969/12/31/18:00:08.057,(-3 -2 -8 -18 -3 -10 -4 -2)
1969/12/31/18:00:08.057,(2 6 8 1 -2 6 -5 0)
1969/12/31/18:00:08.067,(-2 0 0 15 2 6 14 3)
1969/12/31/18:00:08.067,(-2 1 4 -18 -5 -14 -5 2)
1969/12/31/18:00:08.090,(-6 -8 -9 5 2 8 9 0)
1969/12/31/18:00:08.090,(-3 -5 -31 -32 -6 -7 -8 -4)
1969/12/31/18:00:08.102,(4 9 35 31 13 3 9 9)
1969/12/31/18:00:08.102,(2 6 7 14 4 5 -2 -3)
1969/12/31/18:00:08.111,(-4 -4 -36 -53 -14 -10 4 2)
1969/12/31/18:00:08.111,(-6 -13 22 20 -2 -4 -5 -6)
1969/12/31/18:00:08.135,(6 14 -32 3 -1 1 -4 2)
1969/12/31/18:00:08.135,(4 17 72 24 11 5 9 6)
1969/12/31/18:00:08.145,(2 10 23 42 13 8 1 3)
1969/12/31/18:00:08.145,(-5 -13 -37 -39 -11 -1 -4 -6)
1969/12/31/18:00:08.157,(-16 -34 -71 -42 -15 -7 -13 -12)
1969/12/31/18:00:08.157,(-2 -6 4 -6 -4 0 2 2)
1969/12/31/18:00:08.192,(8 20 40 19 4 7 -3 0)
1969/12/31/18:00:08.192,(7 11 36 33 8 2 -4 -3)
1969/12/31/18:00:08.193,(2 -2 -7 -2 2 1 -4 -1)
1969/12/31/18:00:08.193,(-1 -8 -5 -18 -9 3 -13 -10)
1969/12/31/18:00:08.214,(-7 -11 -2 -25 -13 2 -7 -6)
1969/12/31/18:00:08.214,(3 4 15 30 4 2 5 2)
1969/12/31/18:00:08.216,(9 12 14 16 9 9 -1 -1)
1969/12/31/18:00:08.216,(-11 -19 -40 -10 -3 -1 1 -5)
1969/12/31/18:00:08.237,(0 2 10 5 0 -7 -1 3)
1969/12/31/18:00:08.237,(-5 -2 -4 -6 -2 -4 3 0)
1969/12/31/18:00:08.249,(-8 -8 -2 -19 -9 -7 -1 3)
1969/12/31/18:00:08.249,(-3 -5 -16 0 0 -1 7 6)
1969/12/31/18:00:08.269,(-3 -4 -17 -1 -1 -11 1 -3)
1969/12/31/18:00:08.269,(-1 2 -11 -6 0 -4 11 11)
1969/12/31/18:00:08.282,(0 4 11 0 2 -4 4 4)
1969/12/31/18:00:08.282,(-6 -2 -10 3 -1 -4 7 1)
1969/12/31/18:00:08.305,(1 -9 -19 -4 1 -2 9 14)
1969/12/31/18:00:08.305,(2 -3 -14 -14 -3 -5 1 7)
1969/12/31/18:00:08.305,(0 8 19 -5 -5 -8 -9 -11)
1969/12/31/18:00:08.305,(-2 0 -19 -6 -7 -4 -8 -7)
1969/12/31/18:00:08.339,(-9 -3 24 19 5 6 -3 -6)
1969/12/31/18:00:08.339,(1 -2 -4 -1 -1 3 -6 -4)
1969/12/31/18:00:08.341,(0 -6 21 9 1 5 -3 -3)
1969/12/31/18:00:08.341,(3 7 -15 -6 -3 1 -2 0)
1969/12/31/18:00:08.360,(2 2 -1 7 -3 -1 -8 -7)
1969/12/31/18:00:08.360,(3 3 3 -3 -2 -1 -1 -1)
1969/12/31/18:00:08.372,(-6 -8 -2 -7 -3 0 -5 -2)
1969/12/31/18:00:08.372,(-1 13 22 14 4 4 -4 -8)
1969/12/31/18:00:08.395,(0 -3 1 5 1 3 -7 -5)
1969/12/31/18:00:08.395,(-5 -12 -7 -3 -5 -1 -6 -8)
1969/12/31/18:00:08.396,(3 -7 -7 -6 -5 0 -2 2)
1969/12/31/18:00:08.396,(5 -2 2 0 -1 0 -1 -1)
1969/12/31/18:00:08.443,(-1 -2 -3 -1 0 -1 0 -2)
1969/12/31/18:00:08.443,(0 -1 -1 -2 2 2 1 -2)
1969/12/31/18:00:08.444,(-3 9 10 -2 0 -2 -2 -4)
1969/12/31/18:00:08.444,(-2 -9 -5 2 0 -2 0 2)
1969/12/31/18:00:08.449,(0 0 -8 -4 0 -2 -2 1)
1969/12/31/18:00:08.449,(-2 2 -3 -3 -3 -3 10 9)
1969/12/31/18:00:08.461,(3 4 4 1 1 -7 -15 -12)
1969/12/31/18:00:08.462,(-1 3 3 1 0 0 0 -4)
1969/12/31/18:00:08.483,(3 -3 -10 -5 -2 -3 -4 -2)
1969/12/31/18:00:08.483,(-8 2 10 4 2 2 -3 -16)
1969/12/31/18:00:08.485,(-1 -9 -4 -5 -2 -4 8 19)
1969/12/31/18:00:08.485,(-2 -4 -9 -4 -1 -3 2 -1)
1969/12/31/18:00:08.520,(3 5 0 0 -2 -3 4 7)
1969/12/31/18:00:08.520,(14 12 3 0 0 -1 -1 3)
1969/12/31/18:00:08.521,(-3 -3 -3 -2 0 1 10 25)
1969/12/31/18:00:08.521,(-31 -20 -11 -8 -7 -9 -21 -55)
1969/12/31/18:00:08.539,(4 7 3 2 2 3 7 10)
1969/12/31/18:00:08.539,(11 9 2 1 0 -7 -11 -17)
1969/12/31/18:00:08.553,(-7 -10 -16 -14 -7 -9 2 -6)
1969/12/31/18:00:08.553,(-14 -8 -6 -4 0 -6 8 23)
1969/12/31/18:00:08.575,(21 13 1 -3 -2 1 -7 -14)
1969/12/31/18:00:08.575,(-36 -14 5 5 8 34 -11 -25)
1969/12/31/18:00:08.575,(28 8 18 9 -9 -18 8 42)
1969/12/31/18:00:08.575,(0 -3 8 7 1 -2 -35 -20)
1969/12/31/18:00:08.596,(-24 -17 3 -1 -8 -5 14 -7)
1969/12/31/18:00:08.596,(35 12 0 1 -6 -5 -26 -12)
1969/12/31/18:00:08.608,(-25 -5 4 1 5 22 5 -38)
1969/12/31/18:00:08.608,(-12 -11 -8 -3 -5 -12 2 37)
1969/12/31/18:00:08.629,(5 3 -5 -1 5 10 10 -9)
1969/12/31/18:00:08.629,(-6 3 3 4 3 -4 21 18)
1969/12/31/18:00:08.643,(16 10 0 2 6 14 -18 -11)
1969/12/31/18:00:08.643,(-5 10 1 2 -1 -1 -3 -41)
1969/12/31/18:00:08.665,(-38 -23 -9 -6 -8 -15 -11 -17)
1969/12/31/18:00:08.665,(-34 -14 -9 -8 -9 -24 7 -20)
1969/12/31/18:00:08.665,(21 2 -1 -1 -2 -21 6 29)
1969/12/31/18:00:08.665,(41 36 7 3 13 42 25 43)
1969/12/31/18:00:08.700,(-11 -24 -6 -3 1 16 -7 -14)
1969/12/31/18:00:08.700,(-30 -15 -10 -9 -7 -10 -9 -7)
1969/12/31/18:00:08.701,(8 -1 2 3 8 26 -8 16)
1969/12/31/18:00:08.701,(54 18 5 1 -17 -102 -29 30)
1969/12/31/18:00:08.719,(-8 -1 -7 -6 3 65 -9 -32)
1969/12/31/18:00:08.721,(17 9 6 0 -4 -12 18 27)
1969/12/31/18:00:08.733,(-6 12 0 0 -7 -46 -27 -21)
1969/12/31/18:00:08.733,(-3 -20 -8 -4 9 59 -4 -15)
1969/12/31/18:00:08.756,(-19 -10 -6 -5 -3 -15 -3 14)
1969/12/31/18:00:08.756,(19 11 0 1 -3 -3 12 30)
1969/12/31/18:00:08.756,(-25 -7 0 -1 12 36 4 -35)
1969/12/31/18:00:08.756,(-18 6 9 16 3 -38 4 24)
1969/12/31/18:00:08.780,(13 -1 -5 -6 -5 -6 38 26)
1969/12/31/18:00:08.780,(-13 -21 -5 -1 7 49 1 -27)
1969/12/31/18:00:08.790,(6 12 1 -4 -13 -29 9 3)
1969/12/31/18:00:08.790,(-7 -13 -3 -4 2 -30 -33 -14)
1969/12/31/18:00:08.846,(35 24 9 3 -2 32 1 32)
1969/12/31/18:00:08.846,(-12 0 -4 -1 9 1 3 -14)
1969/12/31/18:00:08.849,(-32 -21 -3 10 7 19 -17 -22)
1969/12/31/18:00:08.849,(6 -14 -12 -15 -13 19 28 24)
1969/12/31/18:00:08.858,(12 9 10 6 7 14 -5 -6)
1969/12/31/18:00:08.858,(30 11 3 1 -15 -70 -31 12)
1969/12/31/18:00:08.859,(-32 -1 3 -1 1 13 5 -22)
1969/12/31/18:00:08.859,(-14 -7 -2 -1 -4 -37 -21 -15)
1969/12/31/18:00:08.879,(76 46 18 10 6 -9 9 41)
1969/12/31/18:00:08.879,(-27 -2 1 -1 5 36 -19 -29)
1969/12/31/18:00:08.900,(27 7 -2 -3 6 33 35 38)
1969/12/31/18:00:08.900,(-34 -29 -11 0 2 63 33 -19)
1969/12/31/18:00:08.913,(-47 -24 -11 -17 -13 -70 -37 -28)
1969/12/31/18:00:08.913,(17 -3 1 9 -2 -42 8 4)
1969/12/31/18:00:08.916,(-38 -15 -13 -8 -7 24 -25 -25)
1969/12/31/18:00:08.916,(-5 28 14 7 3 12 19 -3)
1969/12/31/18:00:08.948,(-25 -10 -5 5 4 5 2 -4)
1969/12/31/18:00:08.948,(3 -5 -4 -9 0 2 -11 18)
1969/12/31/18:00:08.949,(12 3 0 -4 -10 -34 10 -2)
1969/12/31/18:00:08.949,(-11 -4 -4 -3 5 40 1 -38)
1969/12/31/18:00:08.967,(23 20 2 1 -6 -33 -6 40)
1969/12/31/18:00:08.969,(-7 -20 1 -2 7 95 10 11)
1969/12/31/18:00:08.981,(9 -3 -1 -1 -13 -84 -21 -20)
1969/12/31/18:00:08.981,(9 -1 0 -5 -3 -30 -31 -18)
1969/12/31/18:00:09.003,(10 14 8 11 12 -18 40 22)
1969/12/31/18:00:09.003,(2 0 -3 0 14 90 49 12)
1969/12/31/18:00:09.006,(16 -4 3 6 8 -21 37 83)
1969/12/31/18:00:09.006,(-13 -4 -10 -12 -20 -47 -6 4)
1969/12/31/18:00:09.050,(-14 -15 -4 -7 -6 41 9 -22)
1969/12/31/18:00:09.050,(4 26 9 6 -3 -69 3 8)
1969/12/31/18:00:09.052,(6 -9 -3 -4 13 100 36 23)
1969/12/31/18:00:09.052,(16 1 -1 -8 -14 -51 -21 -7)
1969/12/31/18:00:09.058,(-8 -14 -6 1 -1 -14 -15 -13)
1969/12/31/18:00:09.058,(-29 -10 -1 -1 -4 -36 12 -5)
1969/12/31/18:00:09.071,(19 23 6 3 -1 8 -20 -16)
1969/12/31/18:00:09.071,(3 10 2 -3 -4 8 -9 -10)
1969/12/31/18:00:09.094,(-32 -31 -12 -11 11 40 -52 -39)
1969/12/31/18:00:09.094,(15 12 7 1 -13 -37 23 19)
1969/12/31/18:00:09.097,(-20 -26 -12 -8 5 11 -27 -42)
1969/12/31/18:00:09.097,(28 17 9 11 -32 -22 28 21)
1969/12/31/18:00:09.128,(11 -1 -7 -7 12 41 44 27)
1969/12/31/18:00:09.128,(49 18 11 15 -11 -39 -3 77)
1969/12/31/18:00:09.130,(-68 -7 -10 -31 -33 -41 -42 -79)
1969/12/31/18:00:09.130,(-24 -35 -14 13 78 59 27 19)
1969/12/31/18:00:09.148,(5 6 5 3 0 -11 2 7)
1969/12/31/18:00:09.148,(-28 -26 -12 -9 18 60 -30 -27)
1969/12/31/18:00:09.161,(15 6 -1 3 15 13 21 -16)
1969/12/31/18:00:09.161,(-3 0 0 -2 -10 17 7 4)
1969/12/31/18:00:09.184,(7 20 12 27 85 19 -9 -16)
1969/12/31/18:00:09.184,(6 -2 -5 -13 -83 -44 -32 -12)
1969/12/31/18:00:09.187,(14 -6 -5 -18 -15 -8 -2 31)
1969/12/31/18:00:09.187,(-6 10 6 0 -8 17 8 5)
1969/12/31/18:00:09.218,(11 -1 0 1 -2 -21 1 3)
1969/12/31/18:00:09.218,(-9 2 -4 -5 11 -50 -57 -31)
1969/12/31/18:00:09.220,(7 3 5 12 -22 0 46 11)
1969/12/31/18:00:09.220,(-5 -4 -1 -5 0 6 -8 -15)
1969/12/31/18:00:09.251,(2 8 1 0 -6 -3 -20 -4)
1969/12/31/18:00:09.251,(9 14 4 9 40 24 16 -3)
1969/12/31/18:00:09.254,(-9 -20 -4 4 -2 -32 -1 17)
1969/12/31/18:00:09.254,(4 9 -1 -5 1 7 -28 -16)
1969/12/31/18:00:09.274,(-3 16 -3 5 -16 -9 19 -3)
1969/12/31/18:00:09.274,(-15 -39 -13 -24 -36 9 -3 -43)
1969/12/31/18:00:09.277,(11 28 18 21 8 -7 6 16)
1969/12/31/18:00:09.277,(1 -20 3 13 71 75 36 41)
1969/12/31/18:00:09.319,(-39 10 38 23 -8 -17 -54 -35)
1969/12/31/18:00:09.319,(21 40 -30 -19 -9 -37 16 16)
1969/12/31/18:00:09.322,(11 -31 -18 -52 -79 -95 -39 13)
1969/12/31/18:00:09.322,(-2 8 12 0 25 -10 -21 -29)
1969/12/31/18:00:09.328,(37 -21 -84 -34 1 12 30 48)
1969/12/31/18:00:09.328,(3 1 17 25 80 65 23 63)
1969/12/31/18:00:09.342,(-35 -13 40 40 55 41 -12 -74)
1969/12/31/18:00:09.342,(-7 7 -34 -14 -73 -33 -2 -10)
1969/12/31/18:00:09.364,(-28 -57 9 -21 2 -9 -12 -30)
1969/12/31/18:00:09.364,(-7 24 45 37 26 28 14 36)
1969/12/31/18:00:09.367,(39 -2 -63 -38 -81 -50 0 50)
1969/12/31/18:00:09.367,(31 -28 -42 -22 33 31 -6 -11)
1969/12/31/18:00:09.399,(-61 20 55 10 -71 -59 -4 -43)
1969/12/31/18:00:09.399,(-7 -26 -59 -32 -12 -9 -13 -14)
1969/12/31/18:00:09.400,(18 88 104 61 67 56 49 39)
1969/12/31/18:00:09.402,(-29 -8 -3 14 14 5 -10 24)
1969/12/31/18:00:09.418,(61 -85 -119 -49 -17 0 6 51)
1969/12/31/18:00:09.418,(-16 98 124 65 99 94 19 -39)
1969/12/31/18:00:09.432,(-8 51 33 20 -47 -49 -21 23)
1969/12/31/18:00:09.432,(71 -9 -57 -24 -20 -26 17 -1)
1969/12/31/18:00:09.477,(-79 -37 77 23 -19 -7 1 2)
1969/12/31/18:00:09.477,(24 -10 -66 -38 -6 -14 -3 -70)
1969/12/31/18:00:09.480,(53 14 -33 -34 -29 12 -26 17)
1969/12/31/18:00:09.480,(-84 49 116 42 -1 -8 6 -16)
1969/12/31/18:00:09.489,(-27 -77 -98 -39 -6 -14 -31 -106)
1969/12/31/18:00:09.489,(11 28 82 43 7 12 22 24)
1969/12/31/18:00:09.492,(-36 -16 -63 3 103 20 -17 -60)
1969/12/31/18:00:09.492,(29 -69 -64 -46 -85 -21 2 36)
1969/12/31/18:00:09.510,(2 60 71 11 -49 -44 0 -31)
1969/12/31/18:00:09.510,(-30 -23 -44 -11 -16 -36 -44 -50)
1969/12/31/18:00:09.522,(23 19 18 -17 -12 -1 -3 -7)
1969/12/31/18:00:09.522,(-26 -43 7 22 72 16 10 13)
1969/12/31/18:00:09.544,(24 -7 -61 -30 -23 29 23 60)
1969/12/31/18:00:09.544,(21 -44 -24 2 37 4 11 11)
1969/12/31/18:00:09.547,(-48 -1 2 1 -65 -39 -29 -77)
1969/12/31/18:00:09.547,(64 76 35 9 6 23 30 75)
1969/12/31/18:00:09.579,(31 25 31 30 98 64 1 -2)
1969/12/31/18:00:09.579,(-5 -62 -50 -34 -95 -78 -16 35)
1969/12/31/18:00:09.581,(-20 -14 -48 -5 39 51 -3 -58)
1969/12/31/18:00:09.582,(-19 28 58 20 -4 -35 4 7)
1969/12/31/18:00:09.615,(-5 43 8 -7 -21 -8 -21 0)
1969/12/31/18:00:09.615,(67 -73 -59 4 59 48 53 76)
1969/12/31/18:00:09.617,(-50 -16 31 -21 -52 -12 -14 -58)
1969/12/31/18:00:09.617,(-9 46 28 6 -18 -34 -42 -87)
1969/12/31/18:00:09.635,(12 44 27 8 13 1 8 4)
1969/12/31/18:00:09.635,(-9 -6 3 7 2 22 4 5)
1969/12/31/18:00:09.638,(28 -50 -53 -33 -26 -10 38 91)
1969/12/31/18:00:09.638,(10 -14 -8 -15 -49 -33 -31 -8)
1969/12/31/18:00:09.669,(12 -19 -28 4 43 0 -18 -27)
1969/12/31/18:00:09.669,(-24 22 45 25 -7 18 52 51)
1969/12/31/18:00:09.671,(15 39 10 -12 -41 -65 -75 -49)
1969/12/31/18:00:09.671,(-13 -37 -17 -4 -1 7 -9 -18)
1969/12/31/18:00:09.690,(34 -9 -5 7 8 11 23 31)
1969/12/31/18:00:09.690,(-82 3 20 8 25 -5 -24 -51)
1969/12/31/18:00:09.702,(88 -1 -29 18 75 59 26 87)
1969/12/31/18:00:09.702,(-36 68 94 13 -84 -49 -9 -21)
1969/12/31/18:00:09.725,(2 17 -7 1 -5 -5 -11 25)
1969/12/31/18:00:09.725,(-15 -47 -32 -26 -27 -15 -32 -43)
1969/12/31/18:00:09.728,(-58 -34 -10 8 39 21 22 36)
1969/12/31/18:00:09.728,(-14 -23 -30 4 40 31 -10 -23)
1969/12/31/18:00:09.759,(14 -11 -31 -21 -24 -15 4 -1)
1969/12/31/18:00:09.759,(-27 61 67 5 -49 -42 -30 -20)
1969/12/31/18:00:09.761,(-31 -48 -18 -14 -3 -20 -31 -84)
1969/12/31/18:00:09.761,(48 7 -34 -7 -21 9 41 64)
1969/12/31/18:00:09.780,(2 -3 59 46 88 44 19 24)
1969/12/31/18:00:09.780,(-4 -45 -82 -59 -100 -78 -26 -7)
1969/12/31/18:00:09.792,(3 14 66 27 13 55 35 37)
1969/12/31/18:00:09.792,(-28 -5 -21 -4 30 24 4 -4)
1969/12/31/18:00:09.815,(15 25 13 -2 -36 -55 -21 -28)
1969/12/31/18:00:09.815,(-1 -30 -48 -22 8 2 -17 -62)
1969/12/31/18:00:09.824,(2 -24 1 15 34 15 11 -1)
1969/12/31/18:00:09.824,(10 -23 -75 -31 7 18 23 47)
1969/12/31/18:00:09.850,(-71 -12 76 44 36 35 23 -19)
1969/12/31/18:00:09.850,(32 8 -22 -17 -54 -27 -8 48)
1969/12/31/18:00:09.851,(-19 31 30 12 31 15 6 -51)
1969/12/31/18:00:09.853,(-9 14 2 -18 -47 -30 -8 25)
1969/12/31/18:00:09.884,(2 17 -23 -18 -19 -10 -34 1)
1969/12/31/18:00:09.884,(12 0 4 10 28 8 1 5)
1969/12/31/18:00:09.886,(31 -14 -13 4 13 7 11 61)
1969/12/31/18:00:09.886,(4 11 23 20 44 34 32 1)
1969/12/31/18:00:09.905,(-3 21 31 7 -47 -72 -65 -26)
1969/12/31/18:00:09.905,(43 33 27 4 0 13 -1 -21)
1969/12/31/18:00:09.914,(44 2 -31 -4 5 9 10 21)
1969/12/31/18:00:09.914,(-18 -50 -25 -5 25 1 -10 -35)
1969/12/31/18:00:09.940,(-1 19 -28 -23 -34 -1 40 42)
1969/12/31/18:00:09.940,(-47 0 39 14 14 -5 -38 -92)
1969/12/31/18:00:09.943,(7 15 -33 -13 8 11 3 54)
1969/12/31/18:00:09.943,(-20 36 99 39 18 -1 5 -34)
1969/12/31/18:00:09.973,(14 -1 -30 -12 0 39 23 55)
1969/12/31/18:00:09.973,(1 -35 -11 -13 -37 -43 -2 23)
1969/12/31/18:00:09.976,(-12 24 15 6 -4 -9 -11 -19)
1969/12/31/18:00:09.976,(-8 -27 -54 -17 6 -6 -32 -100)
1969/12/31/18:00:09.995,(14 -2 28 14 0 6 29 25)
1969/12/31/18:00:09.995,(5 27 29 -18 -25 13 -1 45)
1969/12/31/18:00:10.004,(-6 -13 2 7 4 14 55 61)
1969/12/31/18:00:10.004,(10 -10 -18 -10 0 -22 -16 9)
1969/12/31/18:00:10.030,(6 -13 -20 2 13 -4 -14 -12)
1969/12/31/18:00:10.030,(32 -14 -34 3 21 8 15 -5)
1969/12/31/18:00:10.031,(-70 -11 33 -4 -30 -26 -39 -88)
1969/12/31/18:00:10.031,(23 19 -1 8 22 20 -7 14)
1969/12/31/18:00:10.063,(17 -24 -64 -29 -17 0 18 9)
1969/12/31/18:00:10.063,(-34 25 66 27 21 15 8 -22)
1969/12/31/18:00:10.066,(16 22 -4 -2 -5 -10 -27 22)
1969/12/31/18:00:10.066,(16 -8 -15 4 -10 -16 5 6)
1969/12/31/18:00:10.085,(-22 3 32 0 -27 -19 -7 -33)
1969/12/31/18:00:10.087,(11 2 -44 -9 25 32 3 27)
1969/12/31/18:00:10.094,(3 -6 15 -1 -13 -10 -10 -2)
1969/12/31/18:00:10.096,(-5 15 5 -7 0 26 31 41)
1969/12/31/18:00:10.120,(-27 -44 -12 2 -4 -37 -26 -24)
1969/12/31/18:00:10.120,(-36 -19 -32 -17 1 28 8 -27)
1969/12/31/18:00:10.122,(7 9 16 15 8 -7 42 18)
1969/12/31/18:00:10.122,(24 6 -45 -38 -77 -47 -38 -14)
1969/12/31/18:00:10.165,(3 53 77 34 35 39 44 62)
1969/12/31/18:00:10.165,(-1 -9 -12 -3 19 12 -1 -16)
1969/12/31/18:00:10.167,(-13 3 7 9 16 0 -2 -30)
1969/12/31/18:00:10.167,(-7 -12 -16 9 21 18 19 -12)
1969/12/31/18:00:10.174,(32 7 -13 -18 -20 -8 -15 -1)
1969/12/31/18:00:10.174,(-6 10 10 3 -1 -12 -4 -18)
1969/12/31/18:00:10.188,(-19 -41 -10 -1 6 21 6 2)
1969/12/31/18:00:10.188,(14 -4 -10 -21 -8 -14 8 24)
1969/12/31/18:00:10.210,(-5 64 44 26 29 44 28 2)
1969/12/31/18:00:10.210,(-1 -1 8 14 -13 -27 -48 -16)
1969/12/31/18:00:10.212,(0 -24 -32 -19 -31 -48 -58 -62)
1969/12/31/18:00:10.212,(-31 -64 -30 -17 -8 -17 -20 -22)
1969/12/31/18:00:10.243,(-12 -30 -18 -29 -47 -33 -15 18)
1969/12/31/18:00:10.243,(-10 -24 -9 4 33 29 38 40)
1969/12/31/18:00:10.246,(31 12 -15 -2 3 12 10 31)
1969/12/31/18:00:10.246,(-20 -22 9 4 -2 4 -32 -42)
1969/12/31/18:00:10.266,(-11 16 19 11 13 8 14 -6)
1969/12/31/18:00:10.266,(50 52 11 12 38 30 19 78)
1969/12/31/18:00:10.275,(2 -31 2 -4 -39 -25 26 61)
1969/12/31/18:00:10.276,(-11 -13 -15 3 -4 -36 -5 12)
1969/12/31/18:00:10.300,(11 -19 -30 -18 7 -1 -18 -19)
1969/12/31/18:00:10.300,(14 4 3 3 -15 -2 15 21)
1969/12/31/18:00:10.302,(-24 -26 -14 -4 -1 -3 -27 -39)
1969/12/31/18:00:10.302,(12 44 27 0 10 37 51 34)
1969/12/31/18:00:10.333,(60 9 -14 13 12 13 27 75)
1969/12/31/18:00:10.333,(-47 12 12 -6 -20 -24 -6 -73)
1969/12/31/18:00:10.336,(-1 -2 16 26 83 39 -5 -22)
1969/12/31/18:00:10.336,(-6 -16 -2 -27 -111 -63 -61 -22)
1969/12/31/18:00:10.368,(13 3 -45 -24 10 7 -11 -10)
1969/12/31/18:00:10.368,(6 -27 -8 -2 -5 -4 22 12)
1969/12/31/18:00:10.371,(8 39 29 12 20 30 33 27)
1969/12/31/18:00:10.371,(-25 3 16 20 46 21 -11 -10)
1969/12/31/18:00:10.391,(13 -31 -22 5 9 2 -3 1)
1969/12/31/18:00:10.391,(-18 44 25 -2 -13 -3 10 50)
1969/12/31/18:00:10.392,(0 44 42 14 -33 -32 0 22)
1969/12/31/18:00:10.392,(41 27 18 12 30 31 0 2)
1969/12/31/18:00:10.424,(-29 -38 -13 -8 -18 -22 -22 -38)
1969/12/31/18:00:10.424,(1 -37 -48 -30 -33 -33 -11 3)
1969/12/31/18:00:10.427,(23 4 3 4 41 27 6 19)
1969/12/31/18:00:10.427,(-12 4 12 11 -12 -7 48 -15)
1969/12/31/18:00:10.446,(-15 -10 -18 -16 -13 12 10 -6)
1969/12/31/18:00:10.446,(10 3 2 -1 7 2 -6 -34)
1969/12/31/18:00:10.457,(-36 -11 -14 -23 -47 -29 -24 -74)
1969/12/31/18:00:10.457,(15 -3 -7 4 28 18 1 8)
1969/12/31/18:00:10.481,(9 15 13 12 14 1 11 6)
1969/12/31/18:00:10.481,(-1 4 9 8 4 -1 -6 23)
1969/12/31/18:00:10.482,(-13 -25 -18 -8 19 22 9 7)
1969/12/31/18:00:10.482,(16 1 1 -13 -31 0 7 17)
1969/12/31/18:00:10.514,(31 19 3 2 -12 -29 -16 -14)
1969/12/31/18:00:10.514,(-37 -7 2 1 -9 3 5 -6)
1969/12/31/18:00:10.517,(-41 -14 -12 2 4 -3 -13 -37)
1969/12/31/18:00:10.517,(-37 -41 -19 -2 23 10 -20 -13)
1969/12/31/18:00:10.536,(26 36 -6 -14 -17 -12 -16 -2)
1969/12/31/18:00:10.536,(8 8 53 33 40 22 10 14)
1969/12/31/18:00:10.547,(51 27 -11 6 17 26 25 44)
1969/12/31/18:00:10.547,(-4 -6 -4 -24 -56 -27 21 29)
1969/12/31/18:00:10.569,(-21 -8 -10 -10 -9 -10 -33 -53)
1969/12/31/18:00:10.569,(78 33 -5 4 16 -1 -34 -3)
1969/12/31/18:00:10.581,(-67 -72 -30 -23 -28 -10 27 12)
1969/12/31/18:00:10.581,(9 -1 3 10 32 19 -24 -14)
1969/12/31/18:00:10.604,(-39 -23 -7 -30 8 57 11 -14)
1969/12/31/18:00:10.604,(24 13 6 16 -9 -58 -12 1)
1969/12/31/18:00:10.607,(24 33 24 18 -18 -6 -27 -40)
1969/12/31/18:00:10.607,(52 -1 -9 8 29 9 15 77)
1969/12/31/18:00:10.625,(-76 -28 8 10 -3 -23 5 -41)
1969/12/31/18:00:10.625,(-6 -1 -10 -14 17 93 21 -65)
1969/12/31/18:00:10.639,(18 7 -10 -16 -5 -45 -64 -1)
1969/12/31/18:00:10.639,(48 27 16 10 -9 -41 17 33)
1969/12/31/18:00:10.661,(-9 12 15 9 11 6 -23 -19)
1969/12/31/18:00:10.661,(-12 -19 -14 -28 -15 -38 5 16)
1969/12/31/18:00:10.663,(-76 -45 -21 -9 -17 12 14 -49)
1969/12/31/18:00:10.663,(-31 -15 -9 -17 -3 9 -43 -48)
1969/12/31/18:00:10.696,(29 11 13 31 15 -44 19 36)
1969/12/31/18:00:10.696,(-7 -8 -16 -8 -14 0 21 15)
1969/12/31/18:00:10.697,(69 22 7 -3 -6 24 1 31)
1969/12/31/18:00:10.697,(-71 -1 5 -1 8 -45 -8 -39)
1969/12/31/18:00:10.727,(-17 -12 -6 -15 -22 -6 0 -17)
1969/12/31/18:00:10.727,(-17 -18 -6 8 0 -17 -9 11)
1969/12/31/18:00:10.741,(29 25 7 0 6 13 2 9)
1969/12/31/18:00:10.741,(6 -8 4 7 7 14 0 7)
1969/12/31/18:00:10.751,(18 6 7 13 12 51 -8 0)
1969/12/31/18:00:10.751,(19 -4 -1 -1 -12 -47 14 27)
1969/12/31/18:00:10.753,(-11 -7 -10 -10 -8 -10 -46 -20)
1969/12/31/18:00:10.753,(22 16 3 -9 6 14 -8 -7)
1969/12/31/18:00:10.786,(34 11 12 7 -7 -19 26 42)
1969/12/31/18:00:10.786,(78 31 1 -11 6 42 19 22)
1969/12/31/18:00:10.787,(-45 -14 3 36 16 13 69 14)
1969/12/31/18:00:10.787,(-6 -6 -4 11 8 31 -6 -24)
1969/12/31/18:00:10.805,(-10 -20 -7 -4 -3 -24 -40 -22)
1969/12/31/18:00:10.805,(-4 17 6 -10 -12 10 -14 -1)
1969/12/31/18:00:10.831,(51 18 3 -9 -4 -3 3 26)
1969/12/31/18:00:10.831,(-11 5 -2 -4 -4 -30 -14 -7)
1969/12/31/18:00:10.841,(12 11 1 -7 -10 -8 16 19)
1969/12/31/18:00:10.841,(-21 -8 4 14 7 1 -2 -13)
1969/12/31/18:00:10.843,(-36 -17 -9 -10 -7 -10 -8 26)
1969/12/31/18:00:10.843,(63 38 12 15 15 28 24 58)
1969/12/31/18:00:10.874,(-10 -16 -1 -4 0 4 -9 4)
1969/12/31/18:00:10.876,(23 5 0 4 -3 -11 22 5)
1969/12/31/18:00:10.877,(-19 -8 4 4 9 25 -40 -35)
1969/12/31/18:00:10.877,(1 -9 -4 -6 -7 -9 24 -4)
1969/12/31/18:00:10.909,(-61 -26 -12 -5 -6 -18 -1 -31)
1969/12/31/18:00:10.909,(-37 1 2 1 2 0 -18 -17)
1969/12/31/18:00:10.911,(1 3 3 -7 -9 -9 3 -18)
1969/12/31/18:00:10.911,(38 15 7 10 9 11 -7 -1)
1969/12/31/18:00:10.930,(-10 -13 -6 -4 1 5 -8 5)
1969/12/31/18:00:10.930,(-50 -30 -15 -7 -9 -6 -20 -34)
1969/12/31/18:00:10.941,(-11 -13 -13 -15 -9 -12 4 1)
1969/12/31/18:00:10.941,(-27 0 4 2 0 -2 -11 12)
1969/12/31/18:00:10.977,(74 30 20 19 17 20 31 94)
1969/12/31/18:00:10.977,(-58 -24 -7 -5 -6 -3 -24 -47)
1969/12/31/18:00:10.980,(57 32 5 1 -5 -22 4 15)
1969/12/31/18:00:10.980,(-18 -36 -14 -7 2 9 5 -5)
1969/12/31/18:00:10.986,(35 21 3 -2 -7 0 3 58)
1969/12/31/18:00:10.986,(74 15 5 9 10 11 18 73)
1969/12/31/18:00:10.999,(-46 -27 -6 -5 -5 -17 -18 -25)
1969/12/31/18:00:10.999,(40 15 9 10 11 16 13 43)
1969/12/31/18:00:11.032,(-16 -3 -8 -6 -3 -1 -19 -69)
1969/12/31/18:00:11.032,(32 33 14 8 4 1 13 64)
1969/12/31/18:00:11.035,(-2 1 -1 -2 4 1 17 8)
1969/12/31/18:00:11.035,(-3 -2 4 2 -1 3 -2 -10)
1969/12/31/18:00:11.055,(-23 -3 2 0 -3 -6 -9 -32)
1969/12/31/18:00:11.055,(-30 -15 0 0 -1 1 -5 -17)
1969/12/31/18:00:11.058,(-4 17 6 4 2 1 10 -4)
1969/12/31/18:00:11.058,(-7 -19 -6 -6 -1 0 -2 4)
1969/12/31/18:00:11.076,(-25 3 -1 -2 -2 -4 -11 -28)
1969/12/31/18:00:11.076,(-14 -5 3 2 -3 -2 -9 -22)
1969/12/31/18:00:11.089,(-3 -7 -8 -10 -7 -5 -1 9)
1969/12/31/18:00:11.089,(-11 6 -4 0 2 0 -2 -14)
1969/12/31/18:00:11.112,(-7 -14 -9 -5 -2 -1 -1 -9)
1969/12/31/18:00:11.112,(10 -1 3 2 0 1 -5 -1)
1969/12/31/18:00:11.115,(35 14 5 4 1 0 10 46)
1969/12/31/18:00:11.115,(-17 1 -2 4 2 4 -1 -28)
1969/12/31/18:00:11.146,(5 -2 0 5 2 2 -7 -45)
1969/12/31/18:00:11.146,(-20 -19 -14 -10 -8 -9 -11 3)
1969/12/31/18:00:11.148,(10 -7 -2 -2 -2 -2 -1 -20)
1969/12/31/18:00:11.148,(-14 3 1 -3 -1 2 0 -12)
1969/12/31/18:00:11.166,(-11 -5 -6 -3 -4 -1 -3 24)
1969/12/31/18:00:11.166,(-6 1 -2 -2 -1 -3 -5 -12)
1969/12/31/18:00:11.180,(4 -9 -6 -2 0 0 2 1)
1969/12/31/18:00:11.180,(10 13 2 -3 -1 -2 -2 -1)
1969/12/31/18:00:11.213,(-9 -4 14 4 1 0 0 -9)
1969/12/31/18:00:11.213,(0 -4 -2 -2 -3 -3 -5 -9)
1969/12/31/18:00:11.216,(-5 -5 -8 -5 -3 -3 -3 -5)
1969/12/31/18:00:11.216,(-1 -13 -23 -10 -5 -4 -1 -2)
1969/12/31/18:00:11.235,(-2 6 20 9 2 1 2 4)
1969/12/31/18:00:11.235,(-6 7 7 0 1 3 0 -14)
1969/12/31/18:00:11.238,(10 3 -8 -5 -7 -6 7 0)
1969/12/31/18:00:11.238,(-18 -4 9 -1 -4 -7 -28 -15)
1969/12/31/18:00:11.270,(5 -21 -29 -15 -7 -3 2 3)
1969/12/31/18:00:11.270,(23 24 25 10 2 0 -2 -4)
1969/12/31/18:00:11.271,(-1 -12 -12 -5 3 7 5 -1)
1969/12/31/18:00:11.271,(-1 16 1 -1 -3 -1 4 2)
1969/12/31/18:00:11.291,(6 -25 -14 -5 -1 -2 4 0)
1969/12/31/18:00:11.291,(-8 -7 -3 -1 -4 -5 -14 -16)
1969/12/31/18:00:11.301,(7 -2 -8 -1 2 4 -1 8)
1969/12/31/18:00:11.301,(-6 2 2 0 -2 -3 -1 -5)
1969/12/31/18:00:11.325,(-2 8 12 4 4 5 -3 3)
1969/12/31/18:00:11.325,(-13 -2 -10 -2 -3 -3 -1 -8)
1969/12/31/18:00:11.328,(26 6 1 -1 -1 1 20 10)
1969/12/31/18:00:11.328,(-7 -8 10 5 2 -4 -29 -8)
1969/12/31/18:00:11.360,(-2 -15 -17 -11 -5 -4 3 -4)
1969/12/31/18:00:11.360,(-18 -17 -7 -4 -4 -4 -5 -6)
1969/12/31/18:00:11.363,(1 1 1 -5 -4 -3 -5 -4)
1969/12/31/18:00:11.363,(2 24 7 2 2 3 22 7)
1969/12/31/18:00:11.381,(-1 -4 38 18 3 -3 -10 -8)
1969/12/31/18:00:11.381,(9 33 7 -2 3 8 3 4)
1969/12/31/18:00:11.391,(-12 -46 -17 -5 -7 -8 -23 -16)
1969/12/31/18:00:11.391,(-16 -9 -16 -13 -6 -2 8 -1)
1969/12/31/18:00:11.417,(8 8 -27 -6 -2 -6 -16 -11)
1969/12/31/18:00:11.417,(-11 1 10 -1 -3 -5 0 -8)
1969/12/31/18:00:11.418,(-6 6 2 3 1 0 -5 -5)
1969/12/31/18:00:11.418,(10 33 40 18 5 4 7 2)
1969/12/31/18:00:11.450,(-21 -37 -33 -20 -9 -7 -10 -3)
1969/12/31/18:00:11.450,(3 1 -9 2 1 1 10 2)
1969/12/31/18:00:11.452,(6 -14 -3 1 1 1 2 7)
1969/12/31/18:00:11.452,(-1 -8 -5 -4 0 -1 -9 -4)
1969/12/31/18:00:11.471,(-5 -15 -9 -8 -1 8 10 6)
1969/12/31/18:00:11.471,(7 -7 3 5 1 -4 -9 -7)
1969/12/31/18:00:11.482,(-19 13 13 3 4 5 0 -4)
1969/12/31/18:00:11.482,(41 10 -7 -3 -5 1 -2 0)
1969/12/31/18:00:11.482,(-4 -4 -1 3 0 0 -5 -5)
1969/12/31/18:00:11.482,(0 -2 -4 -6 -2 2 -1 1)
1969/12/31/18:00:11.482,(-1 1 0 -2 -1 0 -2 -7)
1969/12/31/18:00:11.482,(1 1 6 1 0 -1 -3 -4)
1969/12/31/18:00:11.500,(-1 -5 -8 -2 -1 -2 -4 -3)
1969/12/31/18:00:11.500,(0 -1 1 -8 1 0 1 -2)
1969/12/31/18:00:11.501,(0 -2 -4 -1 -4 4 1 1)
1969/12/31/18:00:11.501,(0 2 15 17 5 -2 -5 -2)
1969/12/31/18:00:11.512,(0 1 2 4 2 3 -4 0)
1969/12/31/18:00:11.512,(-2 -2 -1 2 1 1 8 3)
1969/12/31/18:00:11.521,(-3 -4 -6 -3 0 -2 -1 -1)
1969/12/31/18:00:11.521,(-6 -9 -19 -17 -5 -5 4 4)
1969/12/31/18:00:11.534,(2 7 5 0 -1 -10 0 -2)
1969/12/31/18:00:11.534,(2 1 -2 -4 -3 -4 5 1)
1969/12/31/18:00:11.557,(-1 0 -4 -2 -3 -6 4 1)
1969/12/31/18:00:11.557,(-1 -3 -8 -3 -1 -4 1 0)
1969/12/31/18:00:11.560,(-2 -2 -3 -4 -1 0 4 4)
1969/12/31/18:00:11.560,(-1 4 0 -1 1 0 2 1)
1969/12/31/18:00:11.590,(0 -5 -6 -5 -4 -3 0 -2)
1969/12/31/18:00:11.590,(1 4 2 3 1 -2 0 1)
1969/12/31/18:00:11.593,(-2 1 -3 0 0 -2 -1 -4)
1969/12/31/18:00:11.593,(2 0 -3 1 0 -2 1 -1)
1969/12/31/18:00:11.611,(-6 -8 -5 1 1 1 6 7)
1969/12/31/18:00:11.611,(0 -1 -9 -5 -4 -5 -4 -4)
1969/12/31/18:00:11.624,(-1 2 -1 -5 -1 -3 -1 0)
1969/12/31/18:00:11.624,(0 -8 -4 -1 0 -1 1 0)
1969/12/31/18:00:11.669,(0 5 10 0 1 1 2 -1)
1969/12/31/18:00:11.669,(-3 -2 -3 -3 -1 1 -3 -1)
1969/12/31/18:00:11.672,(1 1 9 4 -1 4 -5 -2)
1969/12/31/18:00:11.672,(1 7 15 6 0 1 -5 -6)
1969/12/31/18:00:11.692,(0 -6 -3 0 -1 1 -5 -3)
1969/12/31/18:00:11.692,(0 -22 -19 -4 -4 0 -3 0)
1969/12/31/18:00:11.693,(3 5 3 -4 -1 1 -1 2)
1969/12/31/18:00:11.695,(-4 -3 -14 -7 -3 0 -1 1)
1969/12/31/18:00:11.714,(-7 5 10 4 1 -4 -1 -4)
1969/12/31/18:00:11.714,(-2 -1 -2 -1 0 -1 -2 -3)
1969/12/31/18:00:11.716,(-3 -16 -10 -3 -2 -2 -1 1)
1969/12/31/18:00:11.716,(-4 -26 -22 -7 -3 -2 0 3)
1969/12/31/18:00:11.737,(3 21 8 -3 -2 -2 4 2)
1969/12/31/18:00:11.737,(-10 -11 -3 -1 -1 -3 5 0)
1969/12/31/18:00:11.739,(-2 0 -8 -3 -1 -3 0 -6)
1969/12/31/18:00:11.739,(2 18 6 -4 -3 -5 -3 2)
1969/12/31/18:00:11.770,(-2 -11 -13 -2 -1 -1 -2 -4)
1969/12/31/18:00:11.770,(1 10 15 0 -1 0 9 10)
1969/12/31/18:00:11.773,(1 -4 -1 -1 0 -2 -3 1)
1969/12/31/18:00:11.773,(9 -3 -8 -1 -1 0 3 5)
1969/12/31/18:00:11.791,(11 21 19 8 2 2 3 16)
1969/12/31/18:00:11.791,(-19 -8 -7 -5 -3 -4 -5 -17)
1969/12/31/18:00:11.805,(1 0 -3 2 1 -1 -5 -6)
1969/12/31/18:00:11.805,(3 17 12 7 2 1 3 6)
1969/12/31/18:00:11.827,(3 -17 -16 -8 -2 -5 -6 -11)
1969/12/31/18:00:11.827,(-16 0 -3 -1 -1 -5 5 10)
1969/12/31/18:00:11.829,(5 -5 -14 -8 -2 -7 7 13)
1969/12/31/18:00:11.829,(1 -2 -9 -6 -1 -6 7 4)
1969/12/31/18:00:11.872,(-11 0 2 -1 -3 0 1 -4)
1969/12/31/18:00:11.872,(15 10 13 4 -4 3 -18 -17)
1969/12/31/18:00:11.874,(3 2 16 8 2 13 -10 -6)
1969/12/31/18:00:11.874,(-11 -11 10 4 -4 5 -22 -26)
1969/12/31/18:00:11.881,(-15 -18 6 2 -3 4 -16 -19)
1969/12/31/18:00:11.881,(10 3 7 6 3 2 -16 -13)
1969/12/31/18:00:11.895,(5 1 -1 -1 -2 0 -1 3)
1969/12/31/18:00:11.895,(3 8 8 3 -2 0 4 3)
1969/12/31/18:00:11.917,(14 10 -1 4 2 1 1 2)
1969/12/31/18:00:11.917,(-18 -7 -7 -4 -3 -4 1 3)
1969/12/31/18:00:11.919,(-14 -11 -5 -4 -1 0 7 9)
1969/12/31/18:00:11.919,(8 9 3 2 2 0 -2 -11)
1969/12/31/18:00:11.950,(44 14 -3 -1 -2 -1 13 47)
1969/12/31/18:00:11.950,(-5 1 -2 -1 -1 -4 -6 -14)
1969/12/31/18:00:11.953,(-52 -22 -7 -6 -3 -4 4 6)
1969/12/31/18:00:11.953,(-31 -25 -14 -11 -5 -11 -23 -68)
1969/12/31/18:00:11.971,(13 -6 -5 -4 -2 1 7 29)
1969/12/31/18:00:11.971,(30 20 8 8 7 15 -5 5)
1969/12/31/18:00:11.996,(8 11 -2 -5 -11 -12 38 19)
1969/12/31/18:00:11.996,(18 15 4 1 2 -7 -1 8)
1969/12/31/18:00:12.008,(-52 -33 -16 -8 -3 -7 1 -24)
1969/12/31/18:00:12.008,(-21 -17 -9 -5 -3 -6 -22 0)
1969/12/31/18:00:12.009,(3 0 -4 0 6 -1 1 10)
1969/12/31/18:00:12.009,(12 28 19 13 8 3 2 2)
1969/12/31/18:00:12.041,(10 17 4 2 0 -4 3 0)
1969/12/31/18:00:12.041,(-12 -14 -1 2 3 -3 10 7)
1969/12/31/18:00:12.044,(86 29 6 3 3 16 -11 18)
1969/12/31/18:00:12.044,(-91 -50 -12 -3 5 21 -13 -31)
1969/12/31/18:00:12.086,(44 43 6 0 -4 -44 -9 -41)
1969/12/31/18:00:12.086,(-24 -30 -8 -8 -4 31 14 -1)
1969/12/31/18:00:12.089,(52 34 5 -1 0 0 4 19)
1969/12/31/18:00:12.089,(-64 -64 -24 -13 -16 -21 -16 -23)
1969/12/31/18:00:12.098,(-11 -9 5 4 13 84 13 12)
1969/12/31/18:00:12.098,(18 20 0 -1 -4 -51 25 19)
1969/12/31/18:00:12.099,(-15 -16 0 1 2 5 -16 1)
1969/12/31/18:00:12.099,(-40 -13 -9 -8 -23 -90 -39 -57)
1969/12/31/18:00:12.131,(-26 -6 -3 -2 0 31 -6 -14)
1969/12/31/18:00:12.131,(39 8 3 3 5 9 22 40)
1969/12/31/18:00:12.140,(-28 -9 -6 -2 2 26 -9 -24)
1969/12/31/18:00:12.140,(10 18 3 -1 4 50 40 11)
1969/12/31/18:00:12.152,(20 -11 -8 -6 -10 -34 -13 -23)
1969/12/31/18:00:12.152,(9 15 -2 -4 -3 9 -14 -28)
1969/12/31/18:00:12.165,(-37 -5 9 6 8 0 1 -30)
1969/12/31/18:00:12.165,(40 13 0 -5 -3 -5 6 43)
1969/12/31/18:00:12.186,(-5 -9 -4 -2 -4 -28 -21 16)
1969/12/31/18:00:12.186,(-6 -5 -2 -3 -1 23 10 4)
1969/12/31/18:00:12.209,(-34 -14 -3 0 -2 -28 -2 -14)
1969/12/31/18:00:12.209,(36 13 4 3 2 -22 49 53)
1969/12/31/18:00:12.222,(-48 -27 -17 -6 4 45 -26 -40)
1969/12/31/18:00:12.222,(25 23 11 3 -6 -12 5 -8)
1969/12/31/18:00:12.225,(15 -1 -7 -6 -5 9 -11 -3)
1969/12/31/18:00:12.225,(24 20 8 2 2 1 -8 31)
1969/12/31/18:00:12.242,(16 2 -2 2 9 39 22 25)
1969/12/31/18:00:12.242,(6 7 1 -1 -9 -46 2 5)
1969/12/31/18:00:12.256,(6 8 8 6 -6 -27 11 8)
1969/12/31/18:00:12.256,(-25 -17 -7 -2 14 115 -10 24)
1969/12/31/18:00:12.313,(-10 -13 -10 -10 -23 -99 -31 -26)
1969/12/31/18:00:12.313,(-6 -11 -4 -3 1 -14 0 -3)
1969/12/31/18:00:12.314,(9 8 3 1 2 14 -11 1)
1969/12/31/18:00:12.314,(60 39 10 5 10 21 34 39)
1969/12/31/18:00:12.323,(-49 -42 -7 -2 0 44 -4 -1)
1969/12/31/18:00:12.323,(15 14 4 1 2 -2 -23 8)
1969/12/31/18:00:12.325,(-39 -35 -18 -10 -16 -52 -6 -43)
1969/12/31/18:00:12.325,(0 0 -2 0 -1 -11 -29 -26)
1969/12/31/18:00:12.346,(28 20 8 3 2 -22 9 17)
1969/12/31/18:00:12.346,(16 16 4 5 8 30 18 -10)
1969/12/31/18:00:12.349,(-41 -24 -10 -6 -2 19 -15 -25)
1969/12/31/18:00:12.349,(-4 -7 -2 -2 1 9 -24 -1)
1969/12/31/18:00:12.367,(13 5 7 3 2 -8 2 44)
1969/12/31/18:00:12.367,(-9 8 6 6 5 10 8 10)
1969/12/31/18:00:12.377,(23 15 0 -3 -6 -38 -28 -31)
1969/12/31/18:00:12.377,(24 7 -2 0 2 16 15 10)
1969/12/31/18:00:12.401,(59 20 15 9 4 -11 27 56)
1969/12/31/18:00:12.401,(-55 -34 -12 -6 -5 10 -28 -44)
1969/12/31/18:00:12.404,(10 3 1 3 10 32 15 16)
1969/12/31/18:00:12.404,(-15 -5 0 -1 -7 -38 -23 -28)
1969/12/31/18:00:12.460,(46 17 2 3 3 17 34 86)
1969/12/31/18:00:12.460,(3 -4 0 -1 -8 -48 -12 -6)
1969/12/31/18:00:12.463,(11 26 10 4 15 78 33 7)
1969/12/31/18:00:12.463,(-18 -36 -16 -10 -14 -49 -45 -27)
1969/12/31/18:00:12.464,(-41 4 -3 -2 1 20 27 -17)
1969/12/31/18:00:12.464,(-1 -5 -4 1 2 -12 -36 30)
1969/12/31/18:00:12.470,(-21 -25 -12 -6 -15 -25 0 -25)
1969/12/31/18:00:12.470,(14 17 9 7 7 18 8 9)
1969/12/31/18:00:12.491,(-4 13 8 3 -1 -19 -26 -40)
1969/12/31/18:00:12.491,(-34 -12 -5 -3 0 20 -5 -13)
1969/12/31/18:00:12.494,(40 5 2 1 4 14 16 78)
1969/12/31/18:00:12.494,(-5 -9 -7 -7 -8 -25 4 18)
1969/12/31/18:00:12.526,(10 5 1 0 -2 -7 13 -19)
1969/12/31/18:00:12.526,(-4 -9 -7 -7 -6 26 6 -7)
1969/12/31/18:00:12.528,(-29 -7 -4 -3 -5 -10 -36 -18)
1969/12/31/18:00:12.528,(21 23 7 4 0 -8 31 42)
1969/12/31/18:00:12.547,(-12 -11 -6 -3 -7 -41 15 9)
1969/12/31/18:00:12.547,(-32 -18 -9 -5 -14 -12 -9 -9)
1969/12/31/18:00:12.558,(0 -4 0 1 5 -10 -14 -7)
1969/12/31/18:00:12.558,(-2 -4 -7 -8 -7 8 3 -21)
1969/12/31/18:00:12.582,(10 9 2 -7 -21 -2 9 -7)
1969/12/31/18:00:12.582,(60 32 17 11 20 59 47 44)
1969/12/31/18:00:12.585,(-80 -42 -16 -10 -14 -45 -20 -68)
1969/12/31/18:00:12.585,(-55 -15 -4 2 3 -2 -35 -57)
1969/12/31/18:00:12.616,(-12 -12 -10 -9 -9 -12 11 -3)
1969/12/31/18:00:12.616,(2 -5 -1 -4 -5 -10 1 -2)
1969/12/31/18:00:12.618,(44 28 14 10 8 6 -24 19)
1969/12/31/18:00:12.618,(22 9 7 2 7 41 36 15)
1969/12/31/18:00:12.637,(-44 -22 -10 -5 -7 -75 -49 -55)
1969/12/31/18:00:12.637,(29 20 6 4 5 1 18 16)
1969/12/31/18:00:12.648,(11 6 5 4 7 -5 7 -3)
1969/12/31/18:00:12.648,(14 13 7 12 22 20 25 23)
1969/12/31/18:00:12.672,(-41 -21 -9 -14 -43 -24 -75 -81)
1969/12/31/18:00:12.672,(-16 -11 -8 -9 -12 13 15 -16)
1969/12/31/18:00:12.675,(11 11 2 -2 -3 -22 -8 -1)
1969/12/31/18:00:12.675,(-4 -3 4 3 10 11 22 37)
1969/12/31/18:00:12.706,(7 4 4 15 78 85 29 2)
1969/12/31/18:00:12.706,(-8 -5 -9 -16 -68 -74 -29 -15)
1969/12/31/18:00:12.709,(-9 -3 -6 -16 -34 -28 5 -19)
1969/12/31/18:00:12.709,(34 4 2 2 8 39 4 33)
1969/12/31/18:00:12.726,(-30 -8 0 4 20 6 2 -19)
1969/12/31/18:00:12.726,(1 -8 -8 2 50 53 -13 -3)
1969/12/31/18:00:12.739,(38 17 7 13 5 -40 17 20)
1969/12/31/18:00:12.739,(11 0 -1 3 -17 -44 -76 -58)
1969/12/31/18:00:12.762,(6 8 3 -8 -43 -6 3 7)
1969/12/31/18:00:12.762,(18 0 -1 7 60 58 24 9)
1969/12/31/18:00:12.765,(-37 -11 -7 -19 -90 -57 8 1)
1969/12/31/18:00:12.765,(-43 -24 -18 -22 -30 -46 -24 -44)
1969/12/31/18:00:12.795,(0 -2 -2 16 51 46 6 7)
1969/12/31/18:00:12.795,(15 22 6 -17 -40 -28 -10 5)
1969/12/31/18:00:12.797,(-44 -42 27 27 93 86 16 -1)
1969/12/31/18:00:12.797,(4 9 1 -12 -70 -43 13 8)
1969/12/31/18:00:12.830,(-1 -9 -6 8 53 21 9 20)
1969/12/31/18:00:12.830,(39 37 -30 -2 -17 9 13 20)
1969/12/31/18:00:12.830,(35 -7 10 -8 -2 26 16 37)
1969/12/31/18:00:12.830,(-63 -5 -4 -2 -15 -52 -13 -62)
1969/12/31/18:00:12.852,(-34 18 1 -13 -47 -9 -6 -44)
1969/12/31/18:00:12.852,(-40 -55 -7 5 52 10 16 -10)
1969/12/31/18:00:12.852,(24 27 -60 -24 -22 17 -8 -18)
1969/12/31/18:00:12.852,(-25 -29 68 18 32 16 -9 -17)
1969/12/31/18:00:12.885,(86 46 0 7 15 0 9 66)
1969/12/31/18:00:12.885,(-30 -20 -41 -40 -75 -63 -38 -73)
1969/12/31/18:00:12.887,(-35 31 34 28 41 33 22 -21)
1969/12/31/18:00:12.887,(-3 -23 42 28 29 12 19 10)
1969/12/31/18:00:12.920,(-9 -26 -19 10 31 32 -18 -1)
1969/12/31/18:00:12.920,(28 -62 -40 -30 -23 -2 4 41)
1969/12/31/18:00:12.920,(28 2 -68 -52 -80 -67 -17 30)
1969/12/31/18:00:12.920,(-10 73 44 15 23 31 28 55)
1969/12/31/18:00:12.941,(-4 76 85 24 17 -19 8 -8)
1969/12/31/18:00:12.941,(35 31 -7 29 73 54 5 13)
1969/12/31/18:00:12.942,(-60 -86 -24 -61 -81 -89 -76 -35)
1969/12/31/18:00:12.942,(58 -33 -128 -41 82 75 32 49)
1969/12/31/18:00:12.975,(-12 -78 0 -15 -36 -50 -23 -6)
1969/12/31/18:00:12.975,(-47 40 81 54 -8 -20 -15 -49)
1969/12/31/18:00:12.977,(63 100 43 11 -5 -1 4 28)
1969/12/31/18:00:12.977,(-65 -21 7 6 -29 -26 -12 -80)
1969/12/31/18:00:13.010,(18 -32 -72 -27 6 39 3 15)
1969/12/31/18:00:13.010,(-2 35 51 12 8 -11 -3 14)
1969/12/31/18:00:13.010,(-1 -14 64 43 41 27 17 24)
1969/12/31/18:00:13.010,(60 4 -42 -16 -2 24 24 38)
1969/12/31/18:00:13.032,(22 7 -78 -42 -36 -15 -13 37)
1969/12/31/18:00:13.032,(-42 -59 41 15 8 -15 12 31)
1969/12/31/18:00:13.032,(-10 -14 11 14 29 53 -3 -54)
1969/12/31/18:00:13.032,(48 80 11 15 19 5 -5 19)
1969/12/31/18:00:13.067,(12 16 29 -3 -78 -73 -2 23)
1969/12/31/18:00:13.067,(-33 -35 -37 -16 -22 -11 -3 10)
1969/12/31/18:00:13.069,(-34 -20 -24 13 84 76 44 -23)
1969/12/31/18:00:13.069,(-10 -26 -31 -25 -51 -47 -52 -44)
1969/12/31/18:00:13.087,(22 14 48 39 52 41 35 42)
1969/12/31/18:00:13.087,(-3 3 -19 -39 -66 -46 -42 -22)
1969/12/31/18:00:13.099,(32 7 7 23 74 26 16 34)
1969/12/31/18:00:13.099,(8 -35 -47 -33 -90 -60 -5 -5)
1969/12/31/18:00:13.126,(-1 17 -26 -24 -12 10 25 23)
1969/12/31/18:00:13.126,(-29 2 86 53 51 17 -3 20)
1969/12/31/18:00:13.126,(14 62 -4 -1 2 -5 -14 -54)
1969/12/31/18:00:13.126,(-1 6 -9 -13 9 -3 -2 -27)
1969/12/31/18:00:13.156,(-61 3 57 29 5 3 -18 -34)
1969/12/31/18:00:13.156,(53 22 -21 1 26 22 20 -12)
1969/12/31/18:00:13.157,(-11 -57 -36 -11 -17 -8 -1 41)
1969/12/31/18:00:13.157,(15 -3 -15 -2 19 19 10 31)
1969/12/31/18:00:13.177,(-24 -25 12 -18 -51 -30 -12 -50)
1969/12/31/18:00:13.177,(6 36 -23 4 49 18 -11 -12)
1969/12/31/18:00:13.189,(-6 -16 18 -6 -54 -17 6 30)
1969/12/31/18:00:13.189,(-4 -7 15 20 4 -4 0 -5)
1969/12/31/18:00:13.211,(6 -32 -23 -4 50 28 -44 -15)
1969/12/31/18:00:13.211,(6 32 -5 -30 -60 -23 24 45)
1969/12/31/18:00:13.213,(12 3 -30 -19 -36 -34 -27 -46)
1969/12/31/18:00:13.213,(29 -26 -16 2 39 21 26 22)
1969/12/31/18:00:13.246,(-41 29 94 45 16 -9 3 -20)
1969/12/31/18:00:13.246,(52 71 45 16 16 22 20 56)
1969/12/31/18:00:13.247,(35 -58 -72 -21 -12 -6 -14 -5)
1969/12/31/18:00:13.247,(-13 -41 2 -12 -25 -1 -5 13)
1969/12/31/18:00:13.267,(-24 35 29 22 15 5 14 -13)
1969/12/31/18:00:13.267,(29 -46 -54 -14 21 -3 -15 -17)
1969/12/31/18:00:13.279,(-13 50 46 13 -6 7 7 13)
1969/12/31/18:00:13.279,(-30 1 14 7 3 -5 -7 -15)
1969/12/31/18:00:13.301,(38 -17 -57 -27 -14 2 -1 15)
1969/12/31/18:00:13.301,(-30 -22 0 4 -3 16 19 -69)
1969/12/31/18:00:13.303,(13 -17 -11 -4 -7 -26 -38 23)
1969/12/31/18:00:13.303,(45 -2 -52 -14 9 -2 -4 11)
1969/12/31/18:00:13.348,(-65 25 93 18 -23 2 -5 -33)
1969/12/31/18:00:13.348,(-22 -19 -32 -8 16 -11 -8 -18)
1969/12/31/18:00:13.350,(16 -29 -20 26 47 32 41 37)
1969/12/31/18:00:13.350,(-20 37 29 -18 -62 -15 3 2)
1969/12/31/18:00:13.357,(17 36 -12 -5 7 21 11 5)
1969/12/31/18:00:13.359,(23 -46 -55 -28 -35 -33 -19 29)
1969/12/31/18:00:13.369,(-17 -13 18 2 -2 0 6 -15)
1969/12/31/18:00:13.369,(-32 0 72 36 17 -3 -6 9)
1969/12/31/18:00:13.395,(21 -52 -76 -15 48 32 4 8)
1969/12/31/18:00:13.395,(1 47 29 4 -39 -17 3 -2)
1969/12/31/18:00:13.396,(-21 5 -13 -11 0 7 -5 5)
1969/12/31/18:00:13.396,(1 -2 -25 -8 -2 -6 -17 -44)
1969/12/31/18:00:13.426,(18 -5 -28 -18 7 6 6 -16)
1969/12/31/18:00:13.426,(-11 1 59 37 36 -10 -13 17)
1969/12/31/18:00:13.428,(40 14 -14 -4 -5 40 35 69)
1969/12/31/18:00:13.428,(-12 34 37 5 -8 -15 19 -1)
1969/12/31/18:00:13.447,(-25 -30 -27 -19 -69 -76 -47 -15)
1969/12/31/18:00:13.447,(38 -16 -82 -24 6 19 25 42)
1969/12/31/18:00:13.459,(-56 74 127 48 -1 -29 -23 -33)
1969/12/31/18:00:13.459,(9 15 -7 9 46 37 13 22)
1969/12/31/18:00:13.483,(-27 -42 -48 -11 29 24 -21 -49)
1969/12/31/18:00:13.483,(2 -25 -29 -17 -59 -37 14 31)
1969/12/31/18:00:13.483,(-16 -21 19 3 14 16 -2 21)
1969/12/31/18:00:13.483,(14 43 1 -5 -22 -41 -32 -70)
1969/12/31/18:00:13.516,(14 1 -13 0 9 2 13 24)
1969/12/31/18:00:13.516,(-27 -7 44 18 16 12 -5 -42)
1969/12/31/18:00:13.518,(15 20 -21 -16 -7 9 -6 -13)
1969/12/31/18:00:13.518,(32 -15 17 12 -5 -12 12 71)
1969/12/31/18:00:13.552,(18 35 -23 -10 14 25 39 72)
1969/12/31/18:00:13.552,(-22 -24 14 9 7 14 2 -23)
1969/12/31/18:00:13.554,(-17 12 -16 5 37 -12 -30 -31)
1969/12/31/18:00:13.554,(-2 -15 -20 -14 -51 -29 -21 -15)
1969/12/31/18:00:13.573,(-18 -25 34 4 -28 -2 8 -28)
1969/12/31/18:00:13.573,(-12 9 -7 -5 23 9 5 -8)
1969/12/31/18:00:13.573,(26 -25 -49 -14 0 1 10 22)
1969/12/31/18:00:13.573,(11 21 14 11 22 23 14 26)
1969/12/31/18:00:13.607,(9 3 2 7 -3 -1 2 -13)
1969/12/31/18:00:13.607,(-7 14 2 -6 -11 -5 -12 15)
1969/12/31/18:00:13.608,(-28 -58 -5 1 -1 -15 -3 -28)
1969/12/31/18:00:13.608,(11 24 -42 -18 14 19 27 9)
1969/12/31/18:00:13.628,(-18 23 54 21 0 -4 -30 -31)
1969/12/31/18:00:13.628,(-11 -12 -14 -7 -3 -5 -10 -41)
1969/12/31/18:00:13.640,(34 4 -42 -11 45 21 16 -5)
1969/12/31/18:00:13.640,(-53 -62 -8 -19 -86 -71 -40 -28)
1969/12/31/18:00:13.662,(9 -6 -9 -11 10 11 10 8)
1969/12/31/18:00:13.662,(10 24 6 6 2 -9 6 9)
1969/12/31/18:00:13.664,(-3 -17 -35 -35 -37 -18 -34 -20)
1969/12/31/18:00:13.664,(-21 -11 52 37 65 60 37 -1)
1969/12/31/18:00:13.697,(35 2 -46 -28 -30 -26 2 42)
1969/12/31/18:00:13.697,(-35 24 54 14 4 4 -1 -22)
1969/12/31/18:00:13.698,(-13 17 32 18 0 19 16 -38)
1969/12/31/18:00:13.698,(10 -3 -12 8 17 7 -25 3)
1969/12/31/18:00:13.731,(26 -8 1 8 -4 -14 10 -9)
1969/12/31/18:00:13.731,(4 -19 -47 -14 16 26 -4 14)
1969/12/31/18:00:13.733,(-25 18 27 12 19 -5 6 -19)
1969/12/31/18:00:13.733,(17 15 18 6 -22 8 26 42)
1969/12/31/18:00:13.752,(-25 -23 -23 -11 -22 -23 -53 -41)
1969/12/31/18:00:13.752,(-35 -23 -14 -13 -14 -23 -49 -84)
1969/12/31/18:00:13.754,(-9 -7 -4 -7 -18 -3 8 20)
1969/12/31/18:00:13.754,(-6 24 21 17 38 0 10 -4)
1969/12/31/18:00:13.787,(48 12 -4 -10 -25 -23 1 47)
1969/12/31/18:00:13.787,(7 -17 -23 -13 2 26 5 7)
1969/12/31/18:00:13.788,(-16 11 56 21 -11 -25 -27 22)
1969/12/31/18:00:13.788,(4 -24 -25 -12 11 15 -3 -27)
1969/12/31/18:00:13.821,(8 -23 -37 -17 3 -3 -12 -11)
1969/12/31/18:00:13.821,(4 38 90 41 26 14 35 56)
1969/12/31/18:00:13.823,(4 3 -9 1 4 20 33 2)
1969/12/31/18:00:13.823,(-10 -2 -15 -18 -27 -24 -15 -12)
1969/12/31/18:00:13.842,(-16 -8 -5 6 -2 8 25 19)
1969/12/31/18:00:13.842,(18 -28 -53 -24 -7 -10 -29 -10)
1969/12/31/18:00:13.844,(15 28 25 5 5 3 9 16)
1969/12/31/18:00:13.844,(-44 -33 -21 -10 -7 -18 -12 -31)
1969/12/31/18:00:13.879,(-7 -4 18 11 3 0 -3 -6)
1969/12/31/18:00:13.879,(15 4 7 1 -6 5 22 45)
1969/12/31/18:00:13.879,(-31 -3 -8 1 3 2 6 3)
1969/12/31/18:00:13.879,(8 -9 -15 -5 15 19 -9 -23)
1969/12/31/18:00:13.913,(-9 -4 3 -2 -5 -3 11 -26)
1969/12/31/18:00:13.913,(5 -9 -9 -13 -28 -26 -20 5)
1969/12/31/18:00:13.913,(22 12 -9 -4 6 0 -2 -3)
1969/12/31/18:00:13.913,(4 -6 10 11 20 19 13 18)
1969/12/31/18:00:13.969,(-2 7 5 10 0 5 17 13)
1969/12/31/18:00:13.969,(-5 15 4 -13 -36 -33 -25 -27)
1969/12/31/18:00:13.970,(-6 -14 -22 -18 -26 -16 -7 -7)
1969/12/31/18:00:13.970,(19 4 4 4 24 16 5 13)
1969/12/31/18:00:13.979,(18 27 10 7 29 29 6 57)
1969/12/31/18:00:13.979,(-37 -25 5 6 -10 -23 -7 -49)
1969/12/31/18:00:13.981,(27 3 -12 -11 -13 -12 -15 3)
1969/12/31/18:00:13.981,(-20 -17 5 -2 0 2 -12 -14)
1969/12/31/18:00:14.002,(8 8 5 4 4 2 4 -3)
1969/12/31/18:00:14.002,(-1 7 -4 2 9 13 8 4)
1969/12/31/18:00:14.003,(22 3 -7 -3 -4 3 14 18)
1969/12/31/18:00:14.003,(10 14 7 1 -1 -1 2 9)
1969/12/31/18:00:14.024,(-19 -16 -4 -2 -9 -19 -14 -9)
1969/12/31/18:00:14.024,(12 0 -8 -14 11 76 16 6)
1969/12/31/18:00:14.024,(12 6 13 16 1 -100 -3 10)
1969/12/31/18:00:14.024,(-18 -6 -5 -3 -23 40 15 -10)
1969/12/31/18:00:14.057,(-9 -2 2 -1 -1 -7 -10 -14)
1969/12/31/18:00:14.057,(50 29 3 6 10 7 13 55)
1969/12/31/18:00:14.059,(-22 -25 -10 -10 10 24 18 16)
1969/12/31/18:00:14.059,(-3 14 10 4 -18 -61 -41 -50)
1969/12/31/18:00:14.092,(-6 -19 -9 -5 13 60 -6 -5)
1969/12/31/18:00:14.092,(68 28 10 2 3 -22 1 50)
1969/12/31/18:00:14.093,(-74 -32 -10 -8 -16 12 -12 -50)
1969/12/31/18:00:14.093,(31 20 1 3 10 -30 15 23)
1969/12/31/18:00:14.114,(-45 -22 -4 -3 4 24 -41 -20)
1969/12/31/18:00:14.114,(-59 -43 -21 -12 -17 -70 -32 -37)
1969/12/31/18:00:14.114,(17 7 8 6 5 47 21 17)
1969/12/31/18:00:14.114,(-4 0 -3 -2 0 -15 -2 4)
1969/12/31/18:00:14.148,(58 41 18 13 20 48 32 60)
1969/12/31/18:00:14.148,(-10 5 1 4 -3 -65 22 -28)
1969/12/31/18:00:14.149,(11 5 3 2 -7 -26 -32 -39)
1969/12/31/18:00:14.149,(32 11 6 4 10 50 20 80)
1969/12/31/18:00:14.182,(-10 1 -2 -3 -3 3 31 -25)
1969/12/31/18:00:14.182,(-28 -10 9 15 15 23 -1 -10)
1969/12/31/18:00:14.184,(91 35 1 -2 -4 8 11 6)
1969/12/31/18:00:14.184,(-49 -40 -23 -19 -14 -29 -21 -18)
1969/12/31/18:00:14.203,(3 17 7 4 1 -32 -19 -23)
1969/12/31/18:00:14.203,(-11 -13 -15 -12 -7 35 -20 -36)
1969/12/31/18:00:14.205,(2 -10 0 -1 -15 -23 21 26)
1969/12/31/18:00:14.205,(0 -2 0 2 20 83 28 5)
1969/12/31/18:00:14.238,(-37 -21 -5 -5 -20 -76 -30 -1)
1969/12/31/18:00:14.238,(24 17 -1 -3 2 28 18 1)
1969/12/31/18:00:14.239,(21 21 10 6 3 -6 -31 20)
1969/12/31/18:00:14.239,(20 16 14 15 30 97 40 71)
1969/12/31/18:00:14.272,(-45 -27 -6 1 3 -20 11 -24)
1969/12/31/18:00:14.272,(50 21 6 7 1 -5 5 1)
1969/12/31/18:00:14.274,(-13 -11 -11 -9 -1 9 -26 6)
1969/12/31/18:00:14.274,(55 16 8 3 -3 -23 4 17)
1969/12/31/18:00:14.295,(-17 5 3 2 2 2 9 35)
1969/12/31/18:00:14.295,(-53 -19 -11 -8 -5 -5 -20 -50)
1969/12/31/18:00:14.296,(-98 -42 -20 -17 -16 -18 -22 -52)
1969/12/31/18:00:14.296,(-5 -15 -4 -6 -5 -20 -7 -13)
1969/12/31/18:00:14.328,(0 6 5 1 -4 -1 15 15)
1969/12/31/18:00:14.328,(83 33 22 19 15 19 27 70)
1969/12/31/18:00:14.329,(-5 4 -14 -10 -4 9 -7 -38)
1969/12/31/18:00:14.329,(-26 -8 -12 -10 -10 -35 -27 -15)
1969/12/31/18:00:14.374,(-12 -22 -7 -5 -5 2 -6 -10)
1969/12/31/18:00:14.374,(-44 -15 0 3 3 6 -3 -15)
1969/12/31/18:00:14.376,(48 19 19 16 14 16 21 58)
1969/12/31/18:00:14.376,(12 10 4 5 -2 -18 -12 -23)
1969/12/31/18:00:14.385,(37 12 -17 -14 -7 -3 2 0)
1969/12/31/18:00:14.385,(-13 -1 -3 -3 1 4 2 6)
1969/12/31/18:00:14.385,(-7 -8 4 5 0 3 5 58)
1969/12/31/18:00:14.385,(-34 -12 -3 0 -4 -17 4 11)
1969/12/31/18:00:14.418,(8 7 8 5 2 6 -1 -28)
1969/12/31/18:00:14.418,(-1 -10 -7 -6 -6 -6 -8 4)
1969/12/31/18:00:14.420,(-69 -34 -18 -12 -5 -3 -9 -43)
1969/12/31/18:00:14.420,(17 8 -5 -6 -8 -10 -8 7)
1969/12/31/18:00:14.453,(-22 4 10 2 2 0 -4 -23)
1969/12/31/18:00:14.453,(9 -8 -6 -3 -2 -2 -1 17)
1969/12/31/18:00:14.454,(12 3 6 4 3 4 7 -8)
1969/12/31/18:00:14.454,(-4 0 1 0 -1 -6 -4 -13)
1969/12/31/18:00:14.475,(9 -5 -13 -9 -6 -2 -3 -1)
1969/12/31/18:00:14.475,(-3 -1 -7 -5 -4 -4 -4 -6)
1969/12/31/18:00:14.475,(0 -5 3 5 3 6 5 -3)
1969/12/31/18:00:14.475,(-16 -14 -2 -4 -3 -13 -15 -31)
1969/12/31/18:00:14.508,(22 18 10 2 0 -1 2 0)
1969/12/31/18:00:14.508,(-13 11 11 6 4 3 0 2)
1969/12/31/18:00:14.510,(-8 -11 -5 -1 -1 1 0 -12)
1969/12/31/18:00:14.510,(1 -5 -10 -9 -8 -7 -1 6)
1969/12/31/18:00:14.543,(2 -4 -13 -7 -5 -5 -3 1)
1969/12/31/18:00:14.543,(-9 -2 1 -2 -1 0 0 -7)
1969/12/31/18:00:14.544,(20 1 -17 -7 -5 -3 -3 4)
1969/12/31/18:00:14.544,(-14 -6 5 1 -4 -3 -1 -8)
1969/12/31/18:00:14.577,(-11 1 17 11 2 4 1 -2)
1969/12/31/18:00:14.577,(-4 -12 -24 -14 -7 -5 -2 -2)
1969/12/31/18:00:14.579,(5 -9 11 10 6 3 4 -1)
1969/12/31/18:00:14.579,(-10 6 -5 -9 -2 -2 -4 -5)
1969/12/31/18:00:14.598,(32 39 29 12 3 0 -1 1)
1969/12/31/18:00:14.598,(-15 -48 -41 -22 -11 -6 -4 -5)
1969/12/31/18:00:14.600,(15 18 -14 -7 -3 1 8 6)
1969/12/31/18:00:14.600,(-12 24 53 28 9 -1 -9 1)
1969/12/31/18:00:14.633,(2 -9 -15 -5 -4 -1 -1 -8)
1969/12/31/18:00:14.633,(-13 -6 8 2 1 -1 -3 -5)
1969/12/31/18:00:14.634,(5 -31 -37 -14 -3 1 4 2)
1969/12/31/18:00:14.634,(12 21 11 4 0 -1 2 4)
1969/12/31/18:00:14.654,(10 10 2 -4 -3 -3 -3 3)
1969/12/31/18:00:14.654,(-3 -16 -14 -4 -4 -4 -5 -3)
1969/12/31/18:00:14.666,(0 -5 1 0 -2 -1 10 1)
1969/12/31/18:00:14.666,(-15 5 6 2 0 -2 -17 -22)
1969/12/31/18:00:14.689,(10 -18 -39 -21 -7 -4 3 11)
1969/12/31/18:00:14.689,(-10 2 4 7 5 1 1 -5)
1969/12/31/18:00:14.690,(-1 19 18 6 3 1 -3 -5)
1969/12/31/18:00:14.690,(9 -12 -6 2 -1 3 -2 2)
1969/12/31/18:00:14.723,(-8 -17 -14 -6 -4 0 0 -2)
1969/12/31/18:00:14.723,(2 0 -3 -2 -3 -3 -2 0)
1969/12/31/18:00:14.725,(9 13 29 14 4 1 -6 2)
1969/12/31/18:00:14.725,(-14 -62 -43 -19 -6 -3 7 -1)
1969/12/31/18:00:14.758,(4 57 36 12 1 -7 -4 -2)
1969/12/31/18:00:14.758,(-2 -1 5 2 3 0 5 6)
1969/12/31/18:00:14.759,(0 1 -16 -12 -3 2 -1 -4)
1969/12/31/18:00:14.759,(18 35 22 12 7 6 16 14)
1969/12/31/18:00:14.791,(-2 -6 2 -1 0 4 3 1)
1969/12/31/18:00:14.791,(4 14 13 5 3 2 6 3)
1969/12/31/18:00:14.792,(-16 -19 -6 -10 -7 -8 -11 -10)
1969/12/31/18:00:14.794,(16 -11 -36 -19 -8 -3 7 5)
1969/12/31/18:00:14.815,(-15 -15 -4 -1 3 2 3 5)
1969/12/31/18:00:14.815,(-3 11 16 15 0 0 -18 -20)
1969/12/31/18:00:14.815,(-1 -32 -40 -21 -8 3 4 3)
1969/12/31/18:00:14.815,(3 62 74 32 8 -1 -10 -12)
1969/12/31/18:00:14.834,(-15 -69 -20 -8 -5 0 -4 -6)
1969/12/31/18:00:14.834,(10 86 34 0 -2 -1 -13 -11)
1969/12/31/18:00:14.846,(-13 -41 -3 2 2 2 2 4)
1969/12/31/18:00:14.846,(-12 -24 -49 -23 -4 -1 4 -9)
1969/12/31/18:00:14.869,(4 15 5 4 2 -7 -8 5)
1969/12/31/18:00:14.869,(-24 -76 -46 -21 -4 -5 4 11)
1969/12/31/18:00:14.870,(35 40 24 8 5 -11 -3 6)
1969/12/31/18:00:14.870,(-8 12 23 16 9 -3 21 10)
1969/12/31/18:00:14.903,(2 -35 -31 -16 -6 -7 -16 0)
1969/12/31/18:00:14.903,(-21 -19 -80 -36 -10 -5 0 -15)
1969/12/31/18:00:14.905,(20 18 66 42 12 3 1 6)
1969/12/31/18:00:14.905,(-7 -38 -34 -19 -10 -3 -11 -10)
1969/12/31/18:00:14.924,(-3 18 15 13 6 6 10 -2)
1969/12/31/18:00:14.924,(8 -10 5 2 -3 2 6 8)
1969/12/31/18:00:14.936,(-12 -7 -22 -16 -6 0 -6 -3)
1969/12/31/18:00:14.936,(11 23 24 17 4 -2 -8 -7)
1969/12/31/18:00:14.959,(-1 3 -12 -7 -4 -4 0 1)
1969/12/31/18:00:14.959,(-8 -22 19 7 5 3 -3 0)
1969/12/31/18:00:14.961,(3 76 23 3 3 4 0 -1)
1969/12/31/18:00:14.961,(4 -1 3 4 3 1 1 7)
1969/12/31/18:00:14.994,(-12 -60 -17 -14 -5 -4 -6 -5)
1969/12/31/18:00:14.994,(5 28 28 15 6 3 2 -1)
1969/12/31/18:00:14.995,(-7 -12 -9 -6 -5 -3 -7 -8)
1969/12/31/18:00:14.995,(-4 -19 -33 -18 -8 1 -7 -4)
1969/12/31/18:00:15.015,(4 12 15 8 1 5 -3 -3)
1969/12/31/18:00:15.015,(3 -13 -12 -7 -3 2 -1 2)
1969/12/31/18:00:15.015,(-1 1 0 1 1 10 0 -1)
1969/12/31/18:00:15.015,(0 -2 6 -3 -3 -1 -5 -5)
1969/12/31/18:00:15.018,(-2 -4 -10 0 0 -3 -9 -6)
1969/12/31/18:00:15.018,(-2 -2 17 0 -4 8 -3 -4)
1969/12/31/18:00:15.036,(-2 -7 -14 -22 -6 -1 -5 -4)
1969/12/31/18:00:15.036,(1 2 7 14 1 2 -1 -3)
1969/12/31/18:00:15.049,(3 5 17 17 5 0 -3 -1)
1969/12/31/18:00:15.049,(-4 -11 -8 -9 -5 5 1 -1)
1969/12/31/18:00:15.072,(1 3 3 6 -1 3 -6 -8)
1969/12/31/18:00:15.072,(2 2 -6 -13 0 -1 -3 -2)
1969/12/31/18:00:15.073,(-3 -3 17 19 0 3 0 -1)
1969/12/31/18:00:15.073,(3 1 -3 14 4 -1 -5 -2)
1969/12/31/18:00:15.117,(-9 -13 0 -9 -2 -1 -1 -4)
1969/12/31/18:00:15.117,(-6 -9 -36 -33 -10 -1 -1 -4)
1969/12/31/18:00:15.118,(-4 -5 6 -17 -9 -6 -7 -7)
1969/12/31/18:00:15.118,(4 12 10 19 6 3 1 -1)
1969/12/31/18:00:15.126,(9 16 25 26 7 5 6 5)
1969/12/31/18:00:15.126,(3 3 16 10 3 1 3 1)
1969/12/31/18:00:15.139,(-3 -3 -21 -10 -2 -2 1 6)
1969/12/31/18:00:15.139,(-9 -17 -2 -24 -10 -5 -5 -8)
1969/12/31/18:00:15.162,(-1 -4 -22 -8 -2 -2 3 4)
1969/12/31/18:00:15.162,(3 8 4 5 3 -3 11 12)
1969/12/31/18:00:15.165,(-4 0 -12 -7 -3 -9 -1 -1)
1969/12/31/18:00:15.165,(-3 -1 -14 -3 -1 -3 10 11)
1969/12/31/18:00:15.195,(-6 -1 -9 -4 0 -8 2 1)
1969/12/31/18:00:15.195,(-6 -7 -13 -10 -4 -7 4 7)
1969/12/31/18:00:15.198,(0 1 -10 -4 0 -6 4 3)
1969/12/31/18:00:15.198,(-2 6 -1 -3 1 0 1 2)
1969/12/31/18:00:15.216,(2 1 8 -3 -1 1 -5 -4)
1969/12/31/18:00:15.216,(-2 -15 -10 2 -1 2 -4 -1)
1969/12/31/18:00:15.231,(5 6 3 -2 -1 0 -5 -3)
1969/12/31/18:00:15.231,(-1 13 26 12 3 2 -4 -5)
1969/12/31/18:00:15.264,(-3 -12 -11 -5 -1 4 -3 1)
1969/12/31/18:00:15.264,(0 -10 -11 -1 1 -2 -8 -7)
1969/12/31/18:00:15.266,(13 1 5 3 1 3 -1 3)
1969/12/31/18:00:15.266,(-4 18 31 8 0 1 -3 -6)
1969/12/31/18:00:15.285,(-9 -15 -7 3 2 3 -1 -4)
1969/12/31/18:00:15.285,(0 -12 -1 3 -2 0 -2 -2)
1969/12/31/18:00:15.288,(0 33 25 4 1 -1 -4 -4)
1969/12/31/18:00:15.288,(3 -14 -28 -11 -6 -1 2 3)
1969/12/31/18:00:15.306,(4 9 4 0 0 -3 2 2)
1969/12/31/18:00:15.306,(-10 -18 -8 -4 -1 -5 1 -3)
1969/12/31/18:00:15.320,(-1 6 0 -1 0 0 4 5)
1969/12/31/18:00:15.320,(-2 -5 -9 -5 -2 -4 1 3)
1969/12/31/18:00:15.341,(-1 2 -2 -4 -2 -4 0 1)
1969/12/31/18:00:15.341,(0 15 8 1 -2 -4 0 -2)
1969/12/31/18:00:15.351,(-9 -13 -9 -5 -5 -1 7 2)
1969/12/31/18:00:15.351,(15 4 -3 1 2 -1 -13 -9)
1969/12/31/18:00:15.375,(4 -5 -1 1 0 0 3 2)
1969/12/31/18:00:15.375,(-5 15 20 7 0 -1 -1 7)
1969/12/31/18:00:15.378,(2 1 -1 0 -2 -3 3 3)
1969/12/31/18:00:15.378,(5 -16 -13 -10 -5 1 18 18)
1969/12/31/18:00:15.410,(-36 -21 -11 -5 -3 -5 -12 -11)
1969/12/31/18:00:15.410,(-13 10 7 4 1 0 -4 -25)
1969/12/31/18:00:15.411,(-14 -13 -6 0 0 0 2 5)
1969/12/31/18:00:15.411,(2 -11 -19 -11 -6 -3 7 27)
1969/12/31/18:00:15.431,(30 23 5 1 2 -1 6 9)
1969/12/31/18:00:15.431,(-4 -8 -13 -8 -7 -10 0 11)
1969/12/31/18:00:15.441,(-53 -23 -16 -7 -2 -8 -6 -24)
1969/12/31/18:00:15.441,(-32 -13 -8 -4 1 -3 -4 -22)
1969/12/31/18:00:15.465,(5 6 14 4 -2 5 -5 -1)
1969/12/31/18:00:15.465,(8 -1 21 9 3 9 -14 -11)
1969/12/31/18:00:15.468,(22 -11 9 4 0 12 -12 -4)
1969/12/31/18:00:15.468,(19 8 15 8 -1 8 -13 -10)
1969/12/31/18:00:15.511,(0 -1 2 3 -2 2 -18 -20)
1969/12/31/18:00:15.511,(5 3 7 5 4 6 3 0)
1969/12/31/18:00:15.514,(40 16 2 5 1 0 -2 7)
1969/12/31/18:00:15.514,(-73 -27 -7 -2 -2 -3 -1 -19)
1969/12/31/18:00:15.521,(26 14 0 0 1 0 11 21)
1969/12/31/18:00:15.521,(-55 -29 -12 -7 -7 -9 -10 -26)
1969/12/31/18:00:15.532,(29 8 -1 -2 1 -7 -1 5)
1969/12/31/18:00:15.532,(27 22 4 3 7 10 5 -9)
1969/12/31/18:00:15.556,(-16 -18 -11 -6 -2 -8 7 10)
1969/12/31/18:00:15.556,(6 11 3 3 2 6 1 -7)
1969/12/31/18:00:15.559,(16 18 0 -1 -5 -21 -6 9)
1969/12/31/18:00:15.559,(-28 -42 -17 -8 -5 -11 -16 5)
1969/12/31/18:00:15.589,(-5 1 -2 -2 -4 -17 13 -23)
1969/12/31/18:00:15.589,(5 4 -1 2 12 63 -9 5)
1969/12/31/18:00:15.592,(7 -2 0 0 -8 -34 4 9)
1969/12/31/18:00:15.592,(24 35 12 8 8 11 1 13)
1969/12/31/18:00:15.611,(-20 -16 -7 -5 -10 -46 -31 -13)
1969/12/31/18:00:15.613,(-6 -9 -6 -6 -6 -39 -17 21)
1969/12/31/18:00:15.622,(-4 -4 -5 -4 1 37 3 -59)
1969/12/31/18:00:15.622,(9 5 0 0 -5 -34 4 40)
1969/12/31/18:00:15.646,(-10 19 3 -3 2 37 -15 -59)
1969/12/31/18:00:15.646,(-7 -16 -3 0 2 14 -7 -12)
1969/12/31/18:00:15.649,(15 3 4 4 3 -3 2 1)
1969/12/31/18:00:15.649,(-42 -20 -7 -4 -4 -18 10 12)
1969/12/31/18:00:15.689,(40 11 -3 -3 -6 -7 -6 -18)
1969/12/31/18:00:15.689,(28 29 0 -4 -1 -19 16 20)
1969/12/31/18:00:15.706,(-91 -26 -8 -3 -3 6 -4 -3)
1969/12/31/18:00:15.706,(42 3 -1 -2 1 18 3 13)
1969/12/31/18:00:15.707,(-24 -4 6 4 6 31 30 10)
1969/12/31/18:00:15.707,(60 20 1 2 -5 -4 26 50)
1969/12/31/18:00:15.712,(-19 -9 -13 -10 -4 -6 -18 -39)
1969/12/31/18:00:15.712,(-9 -2 0 0 4 18 3 -12)
1969/12/31/18:00:15.736,(-5 -3 5 2 -2 -51 5 1)
1969/12/31/18:00:15.736,(9 -5 -1 -1 -3 -5 -33 -15)
1969/12/31/18:00:15.739,(24 5 3 2 10 19 23 39)
1969/12/31/18:00:15.739,(-11 -6 2 4 6 19 -2 -21)
1969/12/31/18:00:15.771,(8 10 6 6 5 28 36 24)
1969/12/31/18:00:15.771,(-23 -13 -5 -1 -1 4 0 0)
1969/12/31/18:00:15.772,(-19 0 -5 -4 -6 -13 19 42)
1969/12/31/18:00:15.772,(29 10 -3 -4 -5 -13 -25 -33)
1969/12/31/18:00:15.792,(-40 -19 -13 -10 -8 2 -22 -26)
1969/12/31/18:00:15.792,(2 -3 -1 2 2 -9 31 17)
1969/12/31/18:00:15.804,(-34 -35 -14 -14 -17 -13 -35 -43)
1969/12/31/18:00:15.804,(33 27 12 7 8 30 33 24)
1969/12/31/18:00:15.826,(-4 -1 -7 -5 2 31 23 38)
1969/12/31/18:00:15.826,(-16 -17 -8 -7 -8 22 6 -36)
1969/12/31/18:00:15.829,(-9 -11 -6 -6 4 30 -28 -31)
1969/12/31/18:00:15.829,(17 16 2 -3 -18 -70 -10 -6)
1969/12/31/18:00:15.861,(23 1 2 6 9 39 12 17)
1969/12/31/18:00:15.861,(0 11 5 4 1 -28 15 46)
1969/12/31/18:00:15.862,(19 -15 -7 -6 -5 -17 -13 4)
1969/12/31/18:00:15.862,(-15 3 6 1 3 31 12 27)
1969/12/31/18:00:15.882,(-21 -18 -11 -11 -4 -10 -24 1)
1969/12/31/18:00:15.882,(55 43 7 1 -5 -25 38 39)
1969/12/31/18:00:15.895,(-31 -37 0 4 0 -11 11 1)
1969/12/31/18:00:15.895,(-6 -14 -12 -8 0 -6 -17 -22)
1969/12/31/18:00:15.918,(-46 -50 -14 -9 -18 -51 -23 -48)
1969/12/31/18:00:15.918,(29 15 8 3 -1 -15 -44 -41)
1969/12/31/18:00:15.919,(29 26 5 2 2 9 19 27)
1969/12/31/18:00:15.919,(-24 -7 -6 -5 -8 -16 6 -27)
1969/12/31/18:00:15.951,(51 40 26 22 19 24 -11 60)
1969/12/31/18:00:15.951,(-17 -18 -8 -6 -5 -29 -47 -21)
1969/12/31/18:00:15.952,(6 4 5 2 8 94 13 -2)
1969/12/31/18:00:15.952,(4 3 -10 -9 -9 -1 1 -48)
1969/12/31/18:00:15.972,(26 -1 -3 -3 -2 -26 7 7)
1969/12/31/18:00:15.972,(-18 -14 -3 1 -6 -53 16 12)
1969/12/31/18:00:15.985,(18 20 13 12 19 9 26 37)
1969/12/31/18:00:15.985,(-15 -2 3 1 -7 -13 -26 21)
1969/12/31/18:00:16.006,(33 9 -4 -3 7 20 13 -23)
1969/12/31/18:00:16.006,(-66 -38 -14 -13 -17 13 -1 -68)
1969/12/31/18:00:16.009,(-2 13 4 1 4 1 50 4)
1969/12/31/18:00:16.009,(29 5 6 4 4 -18 -75 -27)
1969/12/31/18:00:16.041,(-2 4 -4 4 17 -31 -34 -20)
1969/12/31/18:00:16.041,(-4 7 14 7 5 82 12 8)
1969/12/31/18:00:16.043,(-2 4 -1 -11 -43 -84 -30 -11)
1969/12/31/18:00:16.043,(-10 -5 4 19 79 94 30 12)
1969/12/31/18:00:16.061,(-7 4 3 2 -1 12 -2 -3)
1969/12/31/18:00:16.062,(19 7 -5 -11 -35 -46 3 16)
1969/12/31/18:00:16.086,(12 4 1 -6 -18 -23 -20 -2)
1969/12/31/18:00:16.086,(12 11 6 -2 -7 -9 29 16)
1969/12/31/18:00:16.109,(-20 -9 0 12 26 36 -18 -25)
1969/12/31/18:00:16.109,(35 25 7 11 13 39 58 58)
1969/12/31/18:00:16.110,(-45 -22 -18 -10 17 3 0 -30)
1969/12/31/18:00:16.110,(-6 -16 -4 -10 -52 -58 -27 18)
1969/12/31/18:00:16.131,(-18 -13 -11 -17 9 3 2 20)
1969/12/31/18:00:16.131,(-1 -2 0 5 -11 -22 -6 -8)
1969/12/31/18:00:16.134,(32 16 1 0 -38 -38 -21 28)
1969/12/31/18:00:16.134,(-10 -5 -8 -1 9 0 40 -13)
1969/12/31/18:00:16.152,(-13 -8 9 2 -1 24 -1 4)
1969/12/31/18:00:16.152,(9 11 6 5 33 11 -26 -37)
1969/12/31/18:00:16.166,(11 13 -1 14 54 56 -10 -17)
1969/12/31/18:00:16.166,(21 -15 -20 -7 -28 -34 -3 20)
1969/12/31/18:00:16.187,(23 13 0 -25 -88 -102 -3 -8)
1969/12/31/18:00:16.187,(-58 -11 16 11 8 9 -30 -63)
1969/12/31/18:00:16.190,(-13 -20 -16 12 56 37 7 -14)
1969/12/31/18:00:16.190,(3 6 -12 6 28 28 20 15)
1969/12/31/18:00:16.221,(-7 -6 9 -8 -43 -7 0 -1)
1969/12/31/18:00:16.221,(13 -1 -26 -29 -19 -10 0 19)
1969/12/31/18:00:16.223,(-3 33 85 36 23 18 21 38)
1969/12/31/18:00:16.223,(-26 7 3 18 44 29 -24 -85)
1969/12/31/18:00:16.242,(-11 -14 -5 20 63 42 13 44)
1969/12/31/18:00:16.242,(-21 -17 -28 -15 -18 -10 22 -3)
1969/12/31/18:00:16.256,(8 -21 -42 -38 -117 -84 -41 -42)
1969/12/31/18:00:16.256,(-31 -12 0 -14 5 9 3 -19)
1969/12/31/18:00:16.277,(3 28 19 2 -2 13 2 -12)
1969/12/31/18:00:16.277,(-5 -19 6 -5 11 4 -7 -14)
1969/12/31/18:00:16.280,(15 8 7 9 16 -13 -14 23)
1969/12/31/18:00:16.280,(11 15 5 13 24 48 20 10)
1969/12/31/18:00:16.312,(30 -25 -85 -18 -3 -50 12 35)
1969/12/31/18:00:16.312,(-6 13 55 8 -1 18 1 -35)
1969/12/31/18:00:16.313,(18 -5 -15 3 6 7 22 7)
1969/12/31/18:00:16.313,(-6 13 -3 -19 -52 -31 -37 -21)
1969/12/31/18:00:16.333,(-29 10 52 12 -12 2 27 22)
1969/12/31/18:00:16.333,(24 -91 -103 -33 23 0 -22 38)
1969/12/31/18:00:16.357,(9 73 -9 -13 -14 0 -11 -40)
1969/12/31/18:00:16.357,(-47 40 95 38 -6 -7 17 23)
1969/12/31/18:00:16.366,(43 -13 -57 -16 31 22 -20 -6)
1969/12/31/18:00:16.366,(-30 36 101 46 8 30 7 -13)
1969/12/31/18:00:16.379,(-69 -128 -96 -32 -5 20 13 -64)
1969/12/31/18:00:16.379,(13 -10 -51 -26 -25 -49 -23 63)
1969/12/31/18:00:16.402,(-48 54 68 33 -12 -51 -90 -111)
1969/12/31/18:00:16.402,(38 -6 -49 -38 -40 -24 -7 30)
1969/12/31/18:00:16.403,(84 10 19 22 18 37 75 109)
1969/12/31/18:00:16.405,(1 50 60 -13 -55 -12 -1 -27)
1969/12/31/18:00:16.423,(-11 -44 -20 -4 14 17 40 63)
1969/12/31/18:00:16.423,(33 14 -28 11 58 37 -12 6)
1969/12/31/18:00:16.435,(5 0 8 -5 -21 -29 -16 29)
1969/12/31/18:00:16.435,(27 -36 -8 -3 -5 -4 29 70)
1969/12/31/18:00:16.457,(-8 -19 -71 -9 96 98 36 -17)
1969/12/31/18:00:16.457,(-29 110 112 75 -78 -82 41 5)
1969/12/31/18:00:16.460,(-84 -47 -62 -24 -27 -34 -74 -84)
1969/12/31/18:00:16.460,(71 -40 -27 -2 -28 -24 5 46)
1969/12/31/18:00:16.502,(-42 -14 79 17 14 22 3 8)
1969/12/31/18:00:16.502,(-35 -98 -128 -68 16 23 -11 -58)
1969/12/31/18:00:16.505,(2 114 116 54 47 21 32 69)
1969/12/31/18:00:16.505,(-1 -54 -84 -22 15 25 -21 -69)
1969/12/31/18:00:16.525,(26 -53 -37 -16 -59 -59 -33 -26)
1969/12/31/18:00:16.525,(-33 10 4 16 94 109 33 -18)
1969/12/31/18:00:16.528,(-26 65 82 -11 -124 -128 -40 -48)
1969/12/31/18:00:16.528,(11 18 -16 -6 32 26 2 -6)
1969/12/31/18:00:16.547,(52 -65 -86 -23 37 42 28 19)
1969/12/31/18:00:16.547,(-43 66 98 38 38 -9 -4 -2)
1969/12/31/18:00:16.550,(11 -7 -15 0 11 24 -52 -32)
1969/12/31/18:00:16.550,(-29 -34 -40 -2 -19 -16 1 -27)
1969/12/31/18:00:16.582,(4 -7 -17 -4 -40 -26 -28 -33)
1969/12/31/18:00:16.582,(11 -70 -34 -39 16 13 23 53)
1969/12/31/18:00:16.584,(-8 7 25 13 31 50 46 -19)
1969/12/31/18:00:16.584,(-15 94 78 14 -69 -93 -76 6)
1969/12/31/18:00:16.603,(-23 -2 -19 -11 -5 -17 -38 -44)
1969/12/31/18:00:16.603,(19 -36 -44 -8 -9 -25 -20 4)
1969/12/31/18:00:16.615,(-1 -94 -66 -23 58 59 49 67)
1969/12/31/18:00:16.615,(13 -57 -94 -51 -33 -9 7 1)
1969/12/31/18:00:16.638,(-55 70 121 63 37 40 54 -12)
1969/12/31/18:00:16.638,(60 108 28 16 -12 -16 -23 -3)
1969/12/31/18:00:16.648,(-17 -30 11 5 -14 -31 -34 -41)
1969/12/31/18:00:16.648,(13 -14 -23 -29 -70 -70 -7 19)
1969/12/31/18:00:16.672,(76 -55 -59 -24 72 74 17 80)
1969/12/31/18:00:16.672,(-49 -11 -2 -14 -44 -64 -43 -38)
1969/12/31/18:00:16.674,(8 106 63 53 102 82 16 -22)
1969/12/31/18:00:16.674,(-12 -15 -6 11 47 58 35 -23)
1969/12/31/18:00:16.705,(-24 -33 -3 -10 -86 -105 -35 -38)
1969/12/31/18:00:16.705,(65 -37 -68 -21 22 35 5 3)
1969/12/31/18:00:16.708,(35 58 -3 -12 1 -2 32 32)
1969/12/31/18:00:16.708,(-68 12 77 36 33 20 -12 -37)
1969/12/31/18:00:16.728,(13 10 -9 -7 -40 -16 8 4)
1969/12/31/18:00:16.728,(2 -54 -32 9 -14 -28 4 49)
1969/12/31/18:00:16.737,(38 -48 -54 -43 -31 1 -20 24)
1969/12/31/18:00:16.738,(-22 -13 -4 -13 24 38 40 -18)
1969/12/31/18:00:16.774,(-12 55 9 -23 -23 -16 -20 -7)
1969/12/31/18:00:16.774,(7 40 50 35 38 -12 -26 -12)
1969/12/31/18:00:16.776,(33 24 27 10 -76 -45 33 48)
1969/12/31/18:00:16.776,(-6 -6 27 36 53 55 -6 25)
1969/12/31/18:00:16.795,(-5 -49 -61 -34 -12 11 8 12)
1969/12/31/18:00:16.795,(4 23 13 13 46 19 30 1)
1969/12/31/18:00:16.798,(-76 -41 -14 -27 -46 -46 -58 -58)
1969/12/31/18:00:16.798,(-12 -11 -13 -2 2 18 34 36)
1969/12/31/18:00:16.819,(-19 56 70 42 43 29 2 -25)
1969/12/31/18:00:16.819,(50 8 -5 11 13 38 28 52)
1969/12/31/18:00:16.828,(-33 -93 -70 -58 -67 -79 -42 -51)
1969/12/31/18:00:16.828,(41 41 13 7 44 30 15 16)
1969/12/31/18:00:16.853,(3 26 23 2 -64 -71 -29 -15)
1969/12/31/18:00:16.853,(-29 -15 7 5 51 94 15 -18)
1969/12/31/18:00:16.854,(35 -32 -39 7 -27 -61 -7 45)
1969/12/31/18:00:16.854,(-13 4 15 -10 -1 -10 -24 -48)
1969/12/31/18:00:16.886,(-14 -8 -10 -6 3 39 55 45)
1969/12/31/18:00:16.886,(45 61 8 -14 -36 -45 -17 0)
1969/12/31/18:00:16.889,(2 -33 -14 10 25 13 -11 13)
1969/12/31/18:00:16.889,(-15 57 56 35 25 31 -10 -6)
1969/12/31/18:00:16.931,(26 -53 -34 2 63 26 10 11)
1969/12/31/18:00:16.931,(-16 8 -1 -25 -114 -44 21 32)
1969/12/31/18:00:16.946,(-49 52 52 8 23 2 -44 -58)
1969/12/31/18:00:16.946,(-13 -57 -40 -16 -12 -43 -6 -27)
1969/12/31/18:00:16.947,(38 30 10 9 18 17 -21 -6)
1969/12/31/18:00:16.947,(-20 -65 -40 -14 -2 8 9 -3)
1969/12/31/18:00:16.952,(48 -1 -12 11 49 47 48 61)
1969/12/31/18:00:16.952,(-44 -10 7 -5 -42 -20 -77 -67)
1969/12/31/18:00:16.976,(17 42 10 0 -31 -30 15 51)
1969/12/31/18:00:16.976,(-28 -34 1 3 6 -12 -35 -51)
1969/12/31/18:00:16.979,(36 27 -1 19 35 -3 29 43)
1969/12/31/18:00:16.979,(20 -45 -76 -40 2 12 0 12)
1969/12/31/18:00:16.998,(-28 90 92 29 -66 -37 19 33)
1969/12/31/18:00:16.998,(-53 -32 -14 -6 -5 -3 -29 -23)
1969/12/31/18:00:17.009,(-16 -17 5 7 42 59 10 -27)
1969/12/31/18:00:17.009,(68 -43 -77 -9 23 -13 36 70)
1969/12/31/18:00:17.033,(5 32 75 22 -17 -14 -3 10)
1969/12/31/18:00:17.033,(10 3 0 -6 -9 -9 -2 41)
1969/12/31/18:00:17.036,(32 38 20 19 45 45 21 26)
1969/12/31/18:00:17.036,(-33 -27 -6 -6 -23 -10 -19 -73)
1969/12/31/18:00:17.066,(11 14 -38 3 105 102 38 45)
1969/12/31/18:00:17.066,(11 30 22 -4 -75 -82 -31 -21)
1969/12/31/18:00:17.069,(-35 -50 -18 -44 -68 -65 -61 -75)
1969/12/31/18:00:17.069,(-19 5 37 18 33 17 5 4)
1969/12/31/18:00:17.088,(33 -4 -13 -12 4 -9 -1 -6)
1969/12/31/18:00:17.088,(91 43 -12 23 61 57 42 76)
1969/12/31/18:00:17.099,(-27 12 5 10 18 29 4 -52)
1969/12/31/18:00:17.099,(-7 19 7 -11 -42 -33 -9 35)
1969/12/31/18:00:17.123,(-48 -62 -9 -1 -8 -15 -20 -55)
1969/12/31/18:00:17.123,(-1 -9 -8 -19 -12 0 4 4)
1969/12/31/18:00:17.125,(32 11 15 28 41 36 55 100)
1969/12/31/18:00:17.125,(-7 -22 -13 -11 -44 -48 -56 -46)
1969/12/31/18:00:17.156,(24 6 -43 -16 24 33 24 23)
1969/12/31/18:00:17.156,(-39 -38 5 -4 -31 -52 -24 -24)
1969/12/31/18:00:17.159,(-14 9 0 9 35 37 -9 3)
1969/12/31/18:00:17.159,(40 5 -22 -9 -8 24 42 31)
1969/12/31/18:00:17.191,(-60 -44 3 7 10 -11 -25 -58)
1969/12/31/18:00:17.191,(20 61 40 -11 -58 -39 12 24)
1969/12/31/18:00:17.192,(-23 9 -13 -5 19 0 5 43)
1969/12/31/18:00:17.192,(0 -23 2 14 63 30 12 -20)
1969/12/31/18:00:17.213,(24 -28 -54 -43 -108 -85 -58 -52)
1969/12/31/18:00:17.213,(-51 -28 15 19 71 65 17 6)
1969/12/31/18:00:17.216,(8 -15 7 -3 -33 -14 8 -19)
1969/12/31/18:00:17.216,(-8 15 -14 -1 5 -6 1 24)
1969/12/31/18:00:17.246,(5 69 77 17 0 9 0 -2)
1969/12/31/18:00:17.246,(14 17 12 20 34 16 31 11)
1969/12/31/18:00:17.249,(75 26 -19 -13 -10 -12 -32 -7)
1969/12/31/18:00:17.249,(2 6 41 12 -48 -38 37 67)
1969/12/31/18:00:17.267,(13 -61 -65 -16 38 24 -14 -14)
1969/12/31/18:00:17.267,(-34 -26 -19 -33 -65 -40 -65 -52)
1969/12/31/18:00:17.290,(-9 18 2 6 23 7 3 -30)
1969/12/31/18:00:17.290,(19 39 50 23 -8 0 29 35)
1969/12/31/18:00:17.303,(-16 -15 -16 -5 17 -1 -2 7)
1969/12/31/18:00:17.303,(56 13 -18 -9 -15 0 5 7)
1969/12/31/18:00:17.306,(-61 -60 -37 -12 6 29 -1 -19)
1969/12/31/18:00:17.306,(-13 -4 -14 -9 6 7 2 -7)
1969/12/31/18:00:17.336,(19 35 13 14 -10 -5 44 56)
1969/12/31/18:00:17.336,(-16 -42 -43 -16 -1 6 -31 -59)
1969/12/31/18:00:17.339,(-25 30 75 31 27 21 49 13)
1969/12/31/18:00:17.339,(-7 10 0 -7 -40 -44 -71 -68)
1969/12/31/18:00:17.357,(-13 -14 -29 -13 -4 -17 -3 -13)
1969/12/31/18:00:17.357,(-1 -13 7 7 16 14 5 19)
1969/12/31/18:00:17.371,(31 3 1 12 8 -3 16 3)
1969/12/31/18:00:17.371,(7 39 38 8 5 6 -17 -16)
1969/12/31/18:00:17.404,(1 -53 -23 -14 -17 5 5 21)
1969/12/31/18:00:17.404,(6 36 -21 -14 -16 -19 9 -15)
1969/12/31/18:00:17.407,(-29 -15 14 -12 -23 -16 -27 -17)
1969/12/31/18:00:17.407,(7 -20 -17 12 48 74 30 19)
1969/12/31/18:00:17.431,(13 -1 -9 6 -14 -53 -12 22)
1969/12/31/18:00:17.431,(19 2 6 3 14 17 22 23)
1969/12/31/18:00:17.433,(-40 -33 -33 -12 7 15 -8 -59)
1969/12/31/18:00:17.433,(-1 -5 -25 -17 -39 -52 -23 -12)
1969/12/31/18:00:17.448,(-5 16 34 9 10 16 -6 -4)
1969/12/31/18:00:17.448,(-31 -15 10 4 25 9 5 -38)
1969/12/31/18:00:17.461,(62 25 -3 -5 3 -21 -21 42)
1969/12/31/18:00:17.461,(-35 -25 -8 4 0 44 25 -10)
1969/12/31/18:00:17.484,(-41 -7 -10 -6 -33 -56 -23 -38)
1969/12/31/18:00:17.484,(-3 -30 -17 -15 -23 -30 -24 -7)
1969/12/31/18:00:17.485,(73 68 32 7 -1 13 18 39)
1969/12/31/18:00:17.485,(2 -45 -28 -11 22 -10 5 39)
1969/12/31/18:00:17.517,(-37 22 37 18 25 30 -2 -8)
1969/12/31/18:00:17.517,(-3 -2 12 -5 4 18 -12 -3)
1969/12/31/18:00:17.520,(-39 -45 -21 21 8 -15 11 9)
1969/12/31/18:00:17.520,(84 70 14 6 12 21 13 57)
1969/12/31/18:00:17.551,(-2 -3 -6 -3 -6 0 -2 -32)
1969/12/31/18:00:17.551,(-26 -7 3 -5 -8 8 -2 22)
1969/12/31/18:00:17.553,(-20 -16 -24 -25 -44 -85 -37 -30)
1969/12/31/18:00:17.553,(6 12 13 16 52 29 32 0)
1969/12/31/18:00:17.574,(3 -7 -1 -8 -22 8 3 5)
1969/12/31/18:00:17.574,(78 53 22 4 8 4 69 75)
1969/12/31/18:00:17.575,(-74 -74 -35 9 -2 -23 -71 -72)
1969/12/31/18:00:17.575,(-11 -21 -4 -7 -10 -21 -12 -4)
1969/12/31/18:00:17.607,(21 11 -3 -7 0 -29 -23 10)
1969/12/31/18:00:17.607,(-19 -4 4 12 15 62 26 -26)
1969/12/31/18:00:17.610,(-6 13 3 -9 -20 12 18 -4)
1969/12/31/18:00:17.610,(-40 -9 -3 -8 2 1 -13 -40)
1969/12/31/18:00:17.628,(93 45 4 1 7 13 0 32)
1969/12/31/18:00:17.628,(-26 -5 6 7 0 -5 -18 -10)
1969/12/31/18:00:17.642,(-20 -7 -2 -6 -4 12 10 2)
1969/12/31/18:00:17.642,(71 19 3 3 -7 -65 -5 44)
1969/12/31/18:00:17.664,(-24 -13 -10 -6 21 127 77 30)
1969/12/31/18:00:17.664,(59 35 19 16 2 -63 -14 -2)
1969/12/31/18:00:17.667,(64 41 9 4 4 60 52 54)
1969/12/31/18:00:17.667,(-93 -75 -21 -17 -15 -39 -24 -56)
1969/12/31/18:00:17.697,(83 50 19 9 4 12 15 52)
1969/12/31/18:00:17.697,(-43 -27 -12 -3 2 -18 -32 -37)
1969/12/31/18:00:17.700,(89 49 14 7 7 36 34 75)
1969/12/31/18:00:17.700,(-60 -44 -23 -18 -8 14 -26 -51)
1969/12/31/18:00:17.718,(-4 -3 6 4 -2 -34 -37 -51)
1969/12/31/18:00:17.718,(-7 10 6 12 9 20 8 11)
1969/12/31/18:00:17.732,(98 25 4 -1 -1 -9 33 99)
1969/12/31/18:00:17.732,(-56 -9 -4 0 2 17 -8 -65)
1969/12/31/18:00:17.754,(-20 0 -7 -3 -3 -24 -9 -15)
1969/12/31/18:00:17.754,(26 4 8 3 -1 4 6 40)
1969/12/31/18:00:17.756,(-19 -27 -12 -10 -13 -11 -3 -12)
1969/12/31/18:00:17.756,(49 30 15 9 10 16 23 69)
1969/12/31/18:00:17.787,(60 26 10 8 3 4 13 36)
1969/12/31/18:00:17.787,(-47 -32 -21 -13 -11 -11 -32 -75)
1969/12/31/18:00:17.790,(-68 -23 -17 -19 -13 -19 -30 -62)
1969/12/31/18:00:17.790,(1 2 8 1 -1 12 3 4)
1969/12/31/18:00:17.808,(-10 -4 -8 -2 -2 -11 3 14)
1969/12/31/18:00:17.808,(-32 -17 1 1 1 -1 -12 -41)
1969/12/31/18:00:17.822,(-8 -8 11 7 2 -7 -6 -17)
1969/12/31/18:00:17.822,(48 36 -7 -8 -3 8 11 24)
1969/12/31/18:00:17.844,(-13 -17 -2 -7 -4 -4 -6 1)
1969/12/31/18:00:17.844,(-14 -16 -6 6 6 0 -4 -9)
1969/12/31/18:00:17.846,(-7 -4 -3 3 -1 1 -10 -30)
1969/12/31/18:00:17.846,(52 16 8 8 9 17 19 45)
1969/12/31/18:00:17.889,(-66 -4 12 4 -3 -8 -8 -29)
1969/12/31/18:00:17.889,(8 -5 -18 -8 -2 2 1 17)
1969/12/31/18:00:17.891,(-6 -1 11 -3 -6 -10 -7 -8)
1969/12/31/18:00:17.891,(30 22 5 2 3 11 10 19)
1969/12/31/18:00:17.898,(-26 -35 -22 -15 -6 -11 -8 -23)
1969/12/31/18:00:17.898,(1 16 20 9 1 0 -3 -7)
1969/12/31/18:00:17.912,(0 -6 -16 -5 -5 -3 -4 4)
1969/12/31/18:00:17.912,(-9 -12 -6 -2 1 3 0 -5)
1969/12/31/18:00:17.935,(-14 -2 -7 -3 -1 2 4 14)
1969/12/31/18:00:17.935,(30 24 7 1 -1 -3 1 27)
1969/12/31/18:00:17.936,(3 -12 -8 -1 1 -1 2 13)
1969/12/31/18:00:17.936,(-9 6 20 11 4 5 -5 -15)
1969/12/31/18:00:17.968,(-3 -9 -5 -1 0 -4 -4 -7)
1969/12/31/18:00:17.968,(-12 -37 -21 -11 -5 -2 3 4)
1969/12/31/18:00:17.971,(4 -18 -19 -16 -10 -8 -5 -1)
1969/12/31/18:00:17.971,(3 43 16 5 2 1 3 2)
1969/12/31/18:00:17.989,(-18 -22 0 4 -1 2 12 -4)
1969/12/31/18:00:17.989,(-1 40 29 12 1 -5 -35 -13)
1969/12/31/18:00:18.002,(-4 -10 2 3 1 -2 -6 -14)
1969/12/31/18:00:18.002,(4 -33 -33 -8 0 8 10 8)
1969/12/31/18:00:18.025,(5 38 31 7 -1 -6 -6 -11)
1969/12/31/18:00:18.025,(-18 -32 -27 -11 -4 1 8 3)
1969/12/31/18:00:18.026,(8 12 -1 -2 -3 0 0 6)
1969/12/31/18:00:18.026,(-1 -1 14 7 0 0 -5 -8)
1969/12/31/18:00:18.058,(-6 -25 -28 -13 -3 -3 -6 -13)
1969/12/31/18:00:18.058,(3 -15 -23 -5 0 0 7 5)
1969/12/31/18:00:18.061,(-3 72 80 23 7 3 -2 1)
1969/12/31/18:00:18.061,(-15 -46 -16 0 -2 -1 5 -1)
1969/12/31/18:00:18.092,(2 -9 -27 -9 -1 -3 -10 -8)
1969/12/31/18:00:18.092,(-4 28 27 4 -3 -3 -3 -2)
1969/12/31/18:00:18.094,(-9 -28 -38 -15 -6 -2 -2 -4)
1969/12/31/18:00:18.094,(0 18 25 9 4 4 7 3)
1969/12/31/18:00:18.113,(-2 -35 -24 -9 -1 -3 -2 3)
1969/12/31/18:00:18.113,(1 23 25 10 0 -3 -16 -14)
1969/12/31/18:00:18.124,(-9 -14 -14 -5 -3 1 6 -6)
1969/12/31/18:00:18.124,(-1 7 -4 -13 -4 -1 3 3)
1969/12/31/18:00:18.148,(25 3 1 7 1 2 -1 4)
1969/12/31/18:00:18.148,(-29 -32 -13 -10 -6 -5 -11 -8)
1969/12/31/18:00:18.151,(1 5 -7 2 -2 -5 -3 -7)
1969/12/31/18:00:18.151,(-5 7 5 -2 -4 -4 -7 -9)
1969/12/31/18:00:18.183,(2 -3 -4 -25 -4 1 7 4)
1969/12/31/18:00:18.183,(5 -2 28 46 7 3 12 11)
1969/12/31/18:00:18.184,(7 38 -1 6 9 6 15 10)
1969/12/31/18:00:18.184,(-26 -43 -33 -25 -9 -8 -34 -17)
1969/12/31/18:00:18.204,(-41 -21 16 16 -1 -3 -6 -19)
1969/12/31/18:00:18.204,(23 12 -8 -6 5 5 20 8)
1969/12/31/18:00:18.214,(25 18 40 43 11 1 -12 4)
1969/12/31/18:00:18.214,(8 44 57 46 16 12 19 6)
1969/12/31/18:00:18.238,(17 11 -4 -23 -7 -8 -15 -4)
1969/12/31/18:00:18.238,(-6 -78 -73 -53 -20 -4 -8 4)
1969/12/31/18:00:18.241,(-23 -2 -6 -25 -3 11 16 -4)
1969/12/31/18:00:18.241,(14 15 -11 6 2 -2 6 -3)
1969/12/31/18:00:18.273,(-13 -51 -2 5 0 5 3 -1)
1969/12/31/18:00:18.273,(18 102 66 14 2 -8 -3 -6)
1969/12/31/18:00:18.274,(-6 -40 -27 -19 -7 -2 -4 3)
1969/12/31/18:00:18.274,(7 -11 -9 -12 -8 -8 -5 -3)
1969/12/31/18:00:18.294,(-17 -4 44 45 14 3 1 4)
1969/12/31/18:00:18.294,(7 45 -20 -15 -3 -5 14 6)
1969/12/31/18:00:18.304,(16 -3 -10 -17 -5 -8 0 9)
1969/12/31/18:00:18.304,(-37 -40 -91 -73 -22 -21 -9 -13)
1969/12/31/18:00:18.328,(25 61 55 50 15 2 18 19)
1969/12/31/18:00:18.328,(4 -7 23 32 11 3 16 15)
1969/12/31/18:00:18.331,(-3 12 -6 -11 -2 -8 -14 -7)
1969/12/31/18:00:18.331,(12 0 21 43 10 3 10 9)
1969/12/31/18:00:18.363,(-12 -25 -56 -44 -13 -2 13 3)
1969/12/31/18:00:18.363,(-7 -19 -18 -19 -5 -6 -12 -8)
1969/12/31/18:00:18.366,(-10 -25 -7 -10 -8 4 4 -3)
1969/12/31/18:00:18.366,(11 15 -55 -43 -12 -6 -14 -5)
1969/12/31/18:00:18.384,(0 17 4 4 -1 3 -9 -11)
1969/12/31/18:00:18.384,(-9 -72 -11 0 -2 6 2 4)
1969/12/31/18:00:18.394,(-3 28 32 26 8 2 -16 -20)
1969/12/31/18:00:18.394,(-6 -18 0 -7 -4 1 -10 -9)
1969/12/31/18:00:18.442,(8 24 10 -5 -3 2 -5 -3)
1969/12/31/18:00:18.442,(-9 -37 -9 4 -1 0 -3 -3)
1969/12/31/18:00:18.446,(-11 -35 -25 -7 1 2 -10 -3)
1969/12/31/18:00:18.446,(-4 20 38 23 4 5 20 0)
