time,.data
1969/12/31/18:00:05.848000,(3 -1 -5 15 4 4 4 5)
1969/12/31/18:00:05.848000,(-7 -5 -10 -37 -13 -8 -8 -8)
1969/12/31/18:00:05.848000,(-4 -2 0 3 -21 -7 -4 -2)
1969/12/31/18:00:05.848000,(-3 -1 2 -36 -10 -4 -2 -2)
1969/12/31/18:00:05.850000,(-2 1 -3 -36 -17 -3 1 0)
1969/12/31/18:00:05.850000,(7 8 15 95 38 8 4 4)
1969/12/31/18:00:05.856000,(-7 -5 17 4 10 4 -3 -3)
1969/12/31/18:00:05.856000,(2 2 8 7 0 0 1 2)
1969/12/31/18:00:05.857000,(-3 -10 -35 -50 -20 -7 -4 -4)
1969/12/31/18:00:05.857000,(-6 -8 -34 -116 -53 -12 -5 -3)
1969/12/31/18:00:05.860000,(6 10 24 71 22 5 7 6)
1969/12/31/18:00:05.860000,(1 4 21 39 21 1 -3 -2)
1969/12/31/18:00:05.877000,(-3 0 1 31 -25 -4 -1 -1)
1969/12/31/18:00:05.877000,(4 3 7 10 7 -1 -2 2)
1969/12/31/18:00:05.879000,(-8 -6 -6 -2 34 4 1 -4)
1969/12/31/18:00:05.879000,(-1 -3 -4 -8 -3 1 -1 -1)
1969/12/31/18:00:05.890000,(-2 -1 9 -1 8 0 -3 -3)
1969/12/31/18:00:05.890000,(-5 -6 -17 -23 -10 -6 -5 -4)
1969/12/31/18:00:05.907000,(-4 -16 -30 -65 -45 -19 -7 -3)
1969/12/31/18:00:05.907000,(-6 -4 -15 -50 -34 -16 -7 -5)
1969/12/31/18:00:05.914000,(2 -2 5 39 18 6 3 1)
1969/12/31/18:00:05.914000,(3 8 27 83 61 13 5 3)
1969/12/31/18:00:05.916000,(2 10 28 67 7 7 0 0)
1969/12/31/18:00:05.916000,(8 5 11 39 52 15 7 8)
1969/12/31/18:00:05.944000,(-4 -5 -7 -24 -42 -10 -6 -6)
1969/12/31/18:00:05.945000,(0 -6 -32 -91 -32 -10 -4 -2)
1969/12/31/18:00:05.946000,(11 8 7 -20 -9 6 6 7)
1969/12/31/18:00:05.946000,(-3 1 -13 -27 -40 3 2 -2)
1969/12/31/18:00:05.959000,(12 1 -14 -4 28 2 1 5)
1969/12/31/18:00:05.959000,(-14 -7 15 35 -18 -7 -4 -10)
1969/12/31/18:00:05.961000,(1 1 -12 -44 -22 -7 -4 -4)
1969/12/31/18:00:05.961000,(-12 -11 25 64 54 4 -4 -8)
1969/12/31/18:00:05.981000,(4 14 26 9 22 14 9 6)
1969/12/31/18:00:05.981000,(2 -2 1 44 4 4 2 1)
1969/12/31/18:00:05.983000,(4 -1 -27 -72 -46 -8 3 4)
1969/12/31/18:00:05.983000,(1 -3 -14 0 -18 -11 -3 0)
1969/12/31/18:00:05.996000,(-4 -4 2 -21 26 6 0 -1)
1969/12/31/18:00:05.997000,(3 5 5 9 -3 1 3 2)
1969/12/31/18:00:05.998000,(-3 1 13 26 14 1 -3 -6)
1969/12/31/18:00:05.998000,(1 -1 -15 -16 -14 -4 0 1)
1969/12/31/18:00:06.010000,(-5 -7 -7 -41 -16 -8 -4 -5)
1969/12/31/18:00:06.010000,(4 5 2 18 1 2 5 6)
1969/12/31/18:00:06.019000,(-9 -7 -5 -5 2 -3 -2 0)
1969/12/31/18:00:06.019000,(13 2 -14 -13 6 1 1 -1)
1969/12/31/18:00:06.041000,(-9 -3 -21 -62 -25 -5 -3 -8)
1969/12/31/18:00:06.041000,(7 12 46 83 16 1 0 5)
1969/12/31/18:00:06.043000,(-11 -10 -11 -7 2 -4 -5 -4)
1969/12/31/18:00:06.043000,(-19 0 26 36 15 5 4 6)
1969/12/31/18:00:06.056000,(15 4 11 37 11 -5 -16 -15)
1969/12/31/18:00:06.056000,(-9 -6 -22 -37 -5 1 -4 -13)
1969/12/31/18:00:06.058000,(6 0 -4 15 5 1 2 5)
1969/12/31/18:00:06.058000,(1 2 -11 -34 -14 -8 0 6)
1969/12/31/18:00:06.088000,(-4 -4 -2 8 -6 -2 2 6)
1969/12/31/18:00:06.088000,(7 -1 -7 -27 -10 -3 3 9)
1969/12/31/18:00:06.090000,(-2 0 -1 -1 0 -4 -2 -2)
1969/12/31/18:00:06.090000,(-5 1 3 12 0 0 -3 -6)
1969/12/31/18:00:06.094000,(3 2 2 14 3 0 4 7)
1969/12/31/18:00:06.094000,(1 -1 -3 -6 -1 5 0 -2)
1969/12/31/18:00:06.096000,(2 3 2 -8 1 4 -1 1)
1969/12/31/18:00:06.096000,(-1 -4 3 7 0 3 -3 -3)
1969/12/31/18:00:06.132000,(9 -1 7 19 1 2 0 6)
1969/12/31/18:00:06.132000,(1 6 -2 -23 0 8 2 -6)
1969/12/31/18:00:06.134000,(-3 -2 -1 -2 -2 -1 -7 -10)
1969/12/31/18:00:06.134000,(4 0 1 9 7 2 1 -2)
1969/12/31/18:00:06.135000,(-22 -6 0 5 -2 -4 0 -4)
1969/12/31/18:00:06.135000,(12 -2 -10 -20 -8 -3 5 8)
1969/12/31/18:00:06.139000,(2 2 5 3 7 2 2 2)
1969/12/31/18:00:06.139000,(4 6 4 5 -2 1 1 2)
1969/12/31/18:00:06.153000,(-4 -3 -2 2 4 5 6 4)
1969/12/31/18:00:06.153000,(4 3 0 -10 -3 2 5 5)
1969/12/31/18:00:06.160000,(-5 -1 2 11 5 -4 -11 -14)
1969/12/31/18:00:06.160000,(12 4 -3 -7 -6 -6 -2 1)
1969/12/31/18:00:06.177000,(-7 -8 0 5 2 3 6 9)
1969/12/31/18:00:06.177000,(-14 -4 -2 -8 -7 -11 -9 -13)
1969/12/31/18:00:06.178000,(1 0 -4 -1 -1 -3 2 5)
1969/12/31/18:00:06.178000,(-3 -2 -2 -8 -3 0 -3 0)
1969/12/31/18:00:06.190000,(5 1 4 16 5 1 -4 -3)
1969/12/31/18:00:06.190000,(2 0 -1 6 0 3 0 4)
1969/12/31/18:00:06.222000,(4 2 -2 -8 -2 2 6 5)
1969/12/31/18:00:06.222000,(-8 -4 2 6 0 -1 -5 -6)
1969/12/31/18:00:06.229000,(8 4 -1 -7 -1 0 2 3)
1969/12/31/18:00:06.229000,(-10 -2 1 3 2 0 -5 -8)
1969/12/31/18:00:06.231000,(1 3 -1 -8 -18 -5 0 -1)
1969/12/31/18:00:06.231000,(1 -3 -12 -25 -2 -1 1 0)
1969/12/31/18:00:06.236000,(-4 0 -1 5 8 1 -2 -3)
1969/12/31/18:00:06.236000,(-2 -4 10 33 6 1 0 0)
1969/12/31/18:00:06.238000,(6 4 8 12 25 8 4 4)
1969/12/31/18:00:06.238000,(1 1 3 18 -4 3 4 2)
1969/12/31/18:00:06.259000,(-2 -1 3 3 -10 -5 -5 -1)
1969/12/31/18:00:06.259000,(0 1 -11 -34 -6 1 2 0)
1969/12/31/18:00:06.261000,(0 -5 -1 -7 -12 -6 -5 -1)
1969/12/31/18:00:06.261000,(4 5 8 9 10 9 12 12)
1969/12/31/18:00:06.273000,(-4 -2 -11 -16 -6 -10 -15 -20)
1969/12/31/18:00:06.273000,(-3 -4 -3 -4 -5 -1 0 2)
1969/12/31/18:00:06.280000,(-3 -4 -8 -32 -10 -2 -1 0)
1969/12/31/18:00:06.280000,(-8 -6 4 33 9 -5 -5 -4)
1969/12/31/18:00:06.297000,(-3 3 14 29 11 5 5 4)
1969/12/31/18:00:06.297000,(3 -1 -10 -30 -2 5 3 2)
1969/12/31/18:00:06.298000,(3 -7 -29 -90 -32 -12 -4 5)
1969/12/31/18:00:06.298000,(-1 4 9 60 7 -2 -4 -6)
1969/12/31/18:00:06.319000,(-4 -2 0 -4 3 0 1 -2)
1969/12/31/18:00:06.319000,(0 0 3 15 6 -1 2 2)
1969/12/31/18:00:06.321000,(-7 2 41 78 28 6 -1 -6)
1969/12/31/18:00:06.321000,(5 2 12 19 14 4 2 2)
1969/12/31/18:00:06.333000,(-10 -6 -13 -21 -11 -3 1 -4)
1969/12/31/18:00:06.333000,(19 -4 -24 -33 -11 -4 3 10)
1969/12/31/18:00:06.365000,(-29 -7 -12 -20 -6 -1 -3 -10)
1969/12/31/18:00:06.365000,(23 -3 -12 -29 -16 -15 0 11)
1969/12/31/18:00:06.366000,(-3 13 13 16 6 4 -4 -17)
1969/12/31/18:00:06.366000,(1 1 -4 -19 -7 -6 -5 -5)
1969/12/31/18:00:06.368000,(7 5 4 31 12 17 8 11)
1969/12/31/18:00:06.368000,(-17 -1 -3 -8 3 -1 -4 -4)
1969/12/31/18:00:06.379000,(16 -1 -26 -66 -11 4 12 22)
1969/12/31/18:00:06.379000,(1 -2 -1 -24 -4 -4 -5 -5)
1969/12/31/18:00:06.381000,(-2 10 33 109 17 7 1 -6)
1969/12/31/18:00:06.381000,(-5 -5 -17 -52 -6 5 6 -1)
1969/12/31/18:00:06.394000,(6 9 47 120 9 -3 -6 -4)
1969/12/31/18:00:06.394000,(-21 -3 31 56 24 1 -4 -7)
1969/12/31/18:00:06.402000,(6 0 0 10 14 -1 3 2)
1969/12/31/18:00:06.402000,(-25 -13 -24 -50 -12 -6 -9 -14)
1969/12/31/18:00:06.416000,(20 11 -22 -47 -13 -5 4 18)
1969/12/31/18:00:06.417000,(-23 -20 -15 -14 -18 -10 -13 -20)
1969/12/31/18:00:06.418000,(34 11 -8 -27 -1 9 17 27)
1969/12/31/18:00:06.418000,(-3 -6 -4 3 -2 3 -1 -3)
1969/12/31/18:00:06.439000,(-35 -11 -4 -13 -1 8 -3 -25)
1969/12/31/18:00:06.439000,(85 41 20 31 13 18 35 72)
1969/12/31/18:00:06.441000,(-30 -23 -23 -32 -24 -35 -40 -42)
1969/12/31/18:00:06.441000,(-2 -4 -7 -21 -7 3 0 0)
1969/12/31/18:00:06.453000,(5 -4 5 -12 7 1 4 7)
1969/12/31/18:00:06.453000,(-5 4 13 73 10 12 12 3)
1969/12/31/18:00:06.460000,(9 8 14 18 9 8 9 6)
1969/12/31/18:00:06.460000,(-8 -3 10 20 5 -6 -10 -11)
1969/12/31/18:00:06.477000,(1 -1 0 -4 3 10 12 9)
1969/12/31/18:00:06.477000,(-38 -18 -17 -43 -13 -18 -25 -32)
1969/12/31/18:00:06.478000,(2 1 -13 -37 -10 -1 1 2)
1969/12/31/18:00:06.478000,(6 0 4 30 3 9 8 0)
1969/12/31/18:00:06.499000,(8 -10 -64 -112 -48 -14 -3 8)
1969/12/31/18:00:06.500000,(-5 -2 26 76 8 -4 -5 -6)
1969/12/31/18:00:06.501000,(-3 5 22 40 21 8 3 -4)
1969/12/31/18:00:06.501000,(7 12 36 53 29 13 7 5)
1969/12/31/18:00:06.513000,(8 5 22 57 28 12 5 4)
1969/12/31/18:00:06.513000,(-10 -10 -22 -39 -6 -8 -8 -8)
1969/12/31/18:00:06.522000,(-7 -7 -26 -51 -28 -19 -12 -8)
1969/12/31/18:00:06.522000,(-1 6 -7 -34 -11 2 7 4)
1969/12/31/18:00:06.537000,(-8 -7 -10 -21 -12 -12 -10 -10)
1969/12/31/18:00:06.537000,(-4 -5 -14 -12 -6 7 9 3)
1969/12/31/18:00:06.538000,(-5 0 10 7 1 1 1 1)
1969/12/31/18:00:06.538000,(7 -5 -51 -69 -5 -8 1 7)
1969/12/31/18:00:06.559000,(-3 0 22 35 -2 -3 -5 -6)
1969/12/31/18:00:06.559000,(-17 0 46 76 9 -1 -8 -12)
1969/12/31/18:00:06.561000,(49 38 34 63 26 20 24 36)
1969/12/31/18:00:06.561000,(-21 -14 -11 -41 -5 -9 -12 -20)
1969/12/31/18:00:06.581000,(-5 -9 -22 -17 -11 -10 -9 -6)
1969/12/31/18:00:06.581000,(1 -3 -27 -52 -7 0 2 3)
1969/12/31/18:00:06.583000,(-4 -7 -13 -11 -1 2 2 3)
1969/12/31/18:00:06.583000,(-7 -7 13 28 -1 -4 -7 -5)
1969/12/31/18:00:06.597000,(9 10 9 15 15 5 5 7)
1969/12/31/18:00:06.597000,(-5 -1 -1 -9 -3 -4 -5 -6)
1969/12/31/18:00:06.598000,(-11 -9 -11 -18 -13 -6 -6 -5)
1969/12/31/18:00:06.598000,(-16 -1 9 14 -2 -5 -2 1)
1969/12/31/18:00:06.643000,(14 7 13 23 16 10 4 -4)
1969/12/31/18:00:06.643000,(-16 -7 -13 -21 -7 -3 -3 -5)
1969/12/31/18:00:06.644000,(-11 -11 -15 -14 0 -1 -2 -3)
1969/12/31/18:00:06.645000,(1 0 5 7 -5 4 8 8)
1969/12/31/18:00:06.645000,(-29 -13 0 7 -8 -14 -24 -31)
1969/12/31/18:00:06.645000,(-14 2 -6 -16 -5 -10 -5 0)
1969/12/31/18:00:06.649000,(-2 -5 -6 -11 -1 -5 -13 -19)
1969/12/31/18:00:06.649000,(5 -2 1 9 -9 -10 -10 8)
1969/12/31/18:00:06.657000,(-42 -11 6 13 4 -2 -10 -38)
1969/12/31/18:00:06.657000,(9 5 -7 -15 1 4 4 -3)
1969/12/31/18:00:06.658000,(-40 -20 -4 -6 -6 -4 -5 -9)
1969/12/31/18:00:06.658000,(37 17 6 14 0 -3 -6 -3)
1969/12/31/18:00:06.679000,(-2 -3 1 1 3 -3 -14 6)
1969/12/31/18:00:06.679000,(12 8 0 -13 -4 -4 1 -7)
1969/12/31/18:00:06.681000,(-25 -4 4 6 9 10 18 0)
1969/12/31/18:00:06.681000,(-4 -2 3 6 6 12 15 -1)
1969/12/31/18:00:06.693000,(12 4 0 1 4 11 20 23)
1969/12/31/18:00:06.693000,(2 2 4 -2 2 5 -1 7)
1969/12/31/18:00:06.702000,(-5 -6 -11 -9 -11 -14 -14 -18)
1969/12/31/18:00:06.702000,(-9 -1 2 2 -2 -7 -13 -12)
1969/12/31/18:00:06.717000,(26 9 -1 -3 -11 -5 3 14)
1969/12/31/18:00:06.717000,(-13 -13 -5 -3 5 3 -1 -5)
1969/12/31/18:00:06.718000,(18 5 -3 -1 3 -2 -3 7)
1969/12/31/18:00:06.718000,(1 6 7 8 9 7 3 1)
1969/12/31/18:00:06.739000,(2 -4 2 5 -3 -9 -11 -7)
1969/12/31/18:00:06.739000,(3 1 1 -2 -7 -2 2 0)
1969/12/31/18:00:06.741000,(15 6 0 -5 -2 2 8 23)
1969/12/31/18:00:06.741000,(-2 -4 -5 -4 -3 -6 -3 -5)
1969/12/31/18:00:06.778000,(9 -6 -6 -3 6 -1 8 20)
1969/12/31/18:00:06.778000,(-18 -1 -2 -4 -9 -12 -27 -34)
1969/12/31/18:00:06.778000,(16 9 -1 -1 -10 -11 -15 -5)
1969/12/31/18:00:06.778000,(-1 0 2 2 2 4 14 7)
1969/12/31/18:00:06.780000,(8 3 1 0 5 13 20 14)
1969/12/31/18:00:06.780000,(1 -8 -9 -7 2 1 2 9)
1969/12/31/18:00:06.783000,(-16 -10 -4 -6 -4 1 -3 -9)
1969/12/31/18:00:06.784000,(0 4 0 1 -8 -13 -20 -14)
1969/12/31/18:00:06.806000,(2 5 2 7 8 1 4 6)
1969/12/31/18:00:06.807000,(6 3 4 1 3 6 10 17)
1969/12/31/18:00:06.807000,(-18 -3 0 -17 -5 2 3 -8)
1969/12/31/18:00:06.807000,(-1 -8 -15 -31 -4 -4 1 5)
1969/12/31/18:00:06.821000,(15 11 14 49 5 3 6 7)
1969/12/31/18:00:06.821000,(-4 -13 12 30 6 0 0 9)
1969/12/31/18:00:06.822000,(52 26 -8 -8 19 10 10 14)
1969/12/31/18:00:06.822000,(-12 -5 1 1 -8 3 -1 -6)
1969/12/31/18:00:06.836000,(-20 -6 6 -3 1 -4 -1 0)
1969/12/31/18:00:06.836000,(-1 -9 -4 -5 -7 -4 -5 -4)
1969/12/31/18:00:06.837000,(10 3 -2 -5 -6 -4 -4 -5)
1969/12/31/18:00:06.837000,(15 4 -6 -12 -3 4 6 11)
1969/12/31/18:00:06.858000,(6 3 -10 -12 -6 -3 -4 -1)
1969/12/31/18:00:06.858000,(-2 -3 -14 -36 -7 -7 -4 -6)
1969/12/31/18:00:06.859000,(12 4 2 3 -1 2 6 9)
1969/12/31/18:00:06.859000,(-10 -4 18 45 15 10 11 10)
1969/12/31/18:00:06.881000,(5 11 16 32 9 -3 -11 -15)
1969/12/31/18:00:06.881000,(18 10 -2 -9 -2 -1 0 -5)
1969/12/31/18:00:06.882000,(-40 -14 -3 -12 3 10 16 -1)
1969/12/31/18:00:06.882000,(12 8 2 6 -5 -3 -4 0)
1969/12/31/18:00:06.920000,(-26 -17 -5 -35 2 4 3 -7)
1969/12/31/18:00:06.920000,(10 9 9 38 14 9 13 17)
1969/12/31/18:00:06.921000,(8 -3 -6 -10 -14 -14 -15 -5)
1969/12/31/18:00:06.921000,(-4 -6 -4 6 -2 -3 -6 -7)
1969/12/31/18:00:06.923000,(-11 -13 -13 -29 -12 -5 -3 -2)
1969/12/31/18:00:06.923000,(-31 -12 -11 -24 -3 -2 -4 -9)
1969/12/31/18:00:06.926000,(6 3 14 34 15 8 8 10)
1969/12/31/18:00:06.926000,(4 1 11 18 5 1 0 3)
1969/12/31/18:00:06.941000,(0 5 -2 4 -4 2 -2 -9)
1969/12/31/18:00:06.941000,(13 1 3 1 -1 -2 3 15)
1969/12/31/18:00:06.942000,(-19 -7 9 38 6 0 -3 -10)
1969/12/31/18:00:06.942000,(-15 -17 -15 -29 -6 -4 -10 -14)
1969/12/31/18:00:06.956000,(-16 -7 -6 -12 -2 3 5 5)
1969/12/31/18:00:06.956000,(38 19 1 -7 -8 0 4 6)
1969/12/31/18:00:06.957000,(0 1 -9 -45 -13 -7 -5 0)
1969/12/31/18:00:06.957000,(-3 -6 -8 -23 -10 -4 -3 -5)
1969/12/31/18:00:06.978000,(-7 -2 16 89 26 2 3 4)
1969/12/31/18:00:06.978000,(13 16 14 51 7 10 6 0)
1969/12/31/18:00:06.979000,(10 6 7 -1 2 -1 -1 3)
1969/12/31/18:00:06.979000,(3 0 -4 -22 -12 -7 -5 -2)
1969/12/31/18:00:07.001000,(21 9 -12 -47 -8 -1 3 8)
1969/12/31/18:00:07.002000,(-7 -6 -7 -12 3 1 -1 -3)
1969/12/31/18:00:07.002000,(5 -4 -13 -5 9 11 7 3)
1969/12/31/18:00:07.002000,(-4 1 -5 -47 -25 -8 -3 -3)
1969/12/31/18:00:07.016000,(-2 -1 4 17 -1 -9 -7 -9)
1969/12/31/18:00:07.016000,(7 10 22 61 10 6 5 6)
1969/12/31/18:00:07.017000,(-2 1 14 18 13 9 4 4)
1969/12/31/18:00:07.017000,(-19 -10 3 47 30 3 -5 -14)
1969/12/31/18:00:07.054000,(-8 -8 9 5 -8 -5 -11 -15)
1969/12/31/18:00:07.054000,(8 5 0 -20 -9 1 9 11)
1969/12/31/18:00:07.055000,(2 -1 -9 -11 -7 -9 -5 -2)
1969/12/31/18:00:07.055000,(16 10 -13 -31 -6 3 9 14)
1969/12/31/18:00:07.062000,(3 -6 -54 -128 -52 -18 -9 -2)
1969/12/31/18:00:07.062000,(-24 -20 -2 47 34 -9 -13 -15)
1969/12/31/18:00:07.062000,(7 8 29 80 5 19 14 12)
1969/12/31/18:00:07.062000,(1 10 32 73 31 5 -3 -4)
1969/12/31/18:00:07.076000,(11 5 -7 -31 8 9 9 10)
1969/12/31/18:00:07.076000,(-17 -15 -27 -75 -33 -12 -13 -13)
1969/12/31/18:00:07.077000,(1 0 -5 -6 -7 -5 -2 -2)
1969/12/31/18:00:07.077000,(1 2 14 37 12 4 2 2)
1969/12/31/18:00:07.098000,(-2 -1 7 9 0 -2 -4 -5)
1969/12/31/18:00:07.098000,(-4 -7 -31 -86 -17 -4 -2 0)
1969/12/31/18:00:07.099000,(-6 -8 -1 3 -14 -12 -8 -6)
1969/12/31/18:00:07.099000,(20 13 6 3 -6 5 13 20)
1969/12/31/18:00:07.122000,(-20 -7 -8 5 17 7 4 -8)
1969/12/31/18:00:07.122000,(7 6 20 33 5 8 4 0)
1969/12/31/18:00:07.122000,(-12 -4 13 32 13 -3 -6 -10)
1969/12/31/18:00:07.122000,(-12 -8 -3 -10 -2 -8 -11 -11)
1969/12/31/18:00:07.136000,(16 9 2 0 1 2 6 12)
1969/12/31/18:00:07.136000,(3 6 -10 -18 -7 0 4 9)
1969/12/31/18:00:07.137000,(-13 -13 -21 -51 -14 -6 -4 -8)
1969/12/31/18:00:07.137000,(13 1 -17 -28 -13 -7 -6 -4)
1969/12/31/18:00:07.158000,(1 16 16 19 22 27 31 23)
1969/12/31/18:00:07.158000,(-7 -2 18 42 7 -2 -4 -9)
1969/12/31/18:00:07.159000,(1 -2 12 27 0 -6 -6 0)
1969/12/31/18:00:07.159000,(-9 1 12 20 4 -4 -11 -15)
1969/12/31/18:00:07.197000,(25 10 -1 -1 -2 -6 -3 8)
1969/12/31/18:00:07.197000,(-6 -7 -15 -30 -7 -3 1 -3)
1969/12/31/18:00:07.198000,(-7 -6 -7 -24 -1 1 0 -1)
1969/12/31/18:00:07.198000,(8 -2 -9 -2 -2 3 9 12)
1969/12/31/18:00:07.206000,(-7 -4 7 12 -10 -9 -14 -11)
1969/12/31/18:00:07.206000,(1 3 5 12 6 1 -1 -2)
1969/12/31/18:00:07.207000,(8 6 -5 -10 8 6 7 7)
1969/12/31/18:00:07.207000,(-5 -3 -9 -13 -8 -2 -2 -7)
1969/12/31/18:00:07.218000,(21 13 9 6 1 -2 1 16)
1969/12/31/18:00:07.218000,(-20 -13 -5 1 -2 -5 -12 -20)
1969/12/31/18:00:07.219000,(-3 -4 -1 -1 -6 2 5 2)
1969/12/31/18:00:07.219000,(19 17 8 4 4 0 0 7)
1969/12/31/18:00:07.241000,(-14 -7 11 18 9 9 5 -7)
1969/12/31/18:00:07.242000,(9 5 2 -3 2 4 4 9)
1969/12/31/18:00:07.242000,(7 2 -10 -29 -6 -2 -1 6)
1969/12/31/18:00:07.242000,(4 2 -8 -9 -1 5 10 9)
1969/12/31/18:00:07.256000,(-3 -5 -1 4 -1 0 -1 -2)
1969/12/31/18:00:07.256000,(22 11 10 7 3 -3 1 15)
1969/12/31/18:00:07.257000,(-66 -36 -6 5 -6 -17 -24 -45)
1969/12/31/18:00:07.257000,(78 42 12 7 16 28 38 52)
1969/12/31/18:00:07.278000,(-19 -12 -4 -3 -6 -7 -8 -10)
1969/12/31/18:00:07.278000,(-12 -11 -9 -12 -4 8 5 -6)
1969/12/31/18:00:07.279000,(35 11 6 4 1 -7 -6 6)
1969/12/31/18:00:07.279000,(-89 -33 -3 -5 -3 -6 -9 -26)
1969/12/31/18:00:07.301000,(80 27 3 4 -2 5 12 28)
1969/12/31/18:00:07.302000,(8 0 -3 -2 -1 -1 -5 -4)
1969/12/31/18:00:07.302000,(4 3 -1 -1 1 4 10 16)
1969/12/31/18:00:07.302000,(-39 -28 -12 -10 -13 -22 -37 -40)
1969/12/31/18:00:07.332000,(-15 -6 -6 -14 -7 -3 -4 -10)
1969/12/31/18:00:07.332000,(-23 -9 -2 -8 -14 -6 -5 -7)
1969/12/31/18:00:07.332000,(27 14 3 15 17 16 18 22)
1969/12/31/18:00:07.332000,(8 4 13 23 6 -1 9 26)
1969/12/31/18:00:07.338000,(-45 -23 -7 0 -8 -18 -33 -49)
1969/12/31/18:00:07.338000,(4 0 -4 -7 -3 1 -3 -5)
1969/12/31/18:00:07.339000,(15 11 -4 -16 -9 -2 4 20)
1969/12/31/18:00:07.339000,(1 -5 -3 -8 -1 4 3 -4)
1969/12/31/18:00:07.362000,(-12 -10 10 9 8 12 20 34)
1969/12/31/18:00:07.362000,(35 22 -10 -6 -5 -7 -8 -9)
1969/12/31/18:00:07.362000,(22 5 5 2 0 -5 -12 2)
1969/12/31/18:00:07.362000,(-18 -12 -9 -11 -6 -7 -9 -20)
1969/12/31/18:00:07.376000,(-30 -12 0 3 0 3 0 -15)
1969/12/31/18:00:07.376000,(12 9 7 0 4 4 11 21)
1969/12/31/18:00:07.377000,(1 8 3 3 11 17 17 5)
1969/12/31/18:00:07.377000,(4 -1 -2 2 0 -1 -2 1)
1969/12/31/18:00:07.398000,(3 3 -9 -25 -15 -10 -7 -7)
1969/12/31/18:00:07.398000,(-22 -17 -2 8 3 -9 -6 -7)
1969/12/31/18:00:07.399000,(-49 -25 1 24 -8 -10 -11 -27)
1969/12/31/18:00:07.399000,(41 20 -1 8 7 -3 -7 -1)
1969/12/31/18:00:07.422000,(-12 -5 0 8 4 9 12 -1)
1969/12/31/18:00:07.422000,(26 16 7 -4 7 4 8 30)
1969/12/31/18:00:07.422000,(-24 -23 -19 -31 -12 -4 -6 -18)
1969/12/31/18:00:07.422000,(-11 -8 -6 6 -14 -5 -3 -3)
1969/12/31/18:00:07.436000,(15 9 2 -9 7 -2 2 9)
1969/12/31/18:00:07.436000,(-6 -6 1 17 8 11 9 -1)
1969/12/31/18:00:07.437000,(3 9 5 8 2 -3 -11 -11)
1969/12/31/18:00:07.437000,(-7 -3 -2 -4 -4 -3 0 -3)
1969/12/31/18:00:07.474000,(20 10 -3 3 -4 -4 -8 -4)
1969/12/31/18:00:07.474000,(-17 -10 0 -12 -2 4 5 4)
1969/12/31/18:00:07.475000,(-7 -5 -3 -4 -4 -2 -1 -2)
1969/12/31/18:00:07.475000,(-20 -2 11 7 11 17 7 -28)
1969/12/31/18:00:07.483000,(42 12 -4 2 -6 -12 -20 2)
1969/12/31/18:00:07.483000,(-17 -5 -3 -9 -9 -3 -4 -16)
1969/12/31/18:00:07.484000,(-6 -6 -11 -30 -6 -3 -1 0)
1969/12/31/18:00:07.484000,(0 -3 6 15 8 2 5 5)
1969/12/31/18:00:07.496000,(-4 1 12 26 11 4 4 6)
1969/12/31/18:00:07.496000,(2 0 5 18 7 2 -4 -4)
1969/12/31/18:00:07.497000,(21 10 -9 -13 -8 -8 -4 4)
1969/12/31/18:00:07.497000,(-2 -5 -8 -22 -13 -3 3 10)
1969/12/31/18:00:07.526000,(-8 -6 -2 -6 3 -3 -7 -9)
1969/12/31/18:00:07.526000,(11 2 -9 -10 -11 1 8 11)
1969/12/31/18:00:07.527000,(-9 -5 5 1 -3 3 2 -3)
1969/12/31/18:00:07.527000,(11 10 14 36 16 4 1 9)
1969/12/31/18:00:07.542000,(-20 -5 6 24 13 0 -4 -11)
1969/12/31/18:00:07.542000,(-76 -40 -5 -6 1 -4 -11 -46)
1969/12/31/18:00:07.542000,(78 39 6 -5 9 14 15 47)
1969/12/31/18:00:07.542000,(-2 -9 -17 -22 -18 -10 -6 -4)
1969/12/31/18:00:07.556000,(3 1 -4 -17 -2 -1 4 3)
1969/12/31/18:00:07.556000,(9 3 4 12 4 1 2 6)
1969/12/31/18:00:07.556000,(-22 -6 7 11 9 8 7 -7)
1969/12/31/18:00:07.557000,(10 8 0 -2 0 -2 1 8)
1969/12/31/18:00:07.578000,(-6 -10 -18 -41 -22 -7 0 -1)
1969/12/31/18:00:07.578000,(18 11 4 12 -3 -5 0 8)
1969/12/31/18:00:07.579000,(-16 -4 19 51 24 1 -9 -17)
1969/12/31/18:00:07.579000,(0 0 6 20 13 4 -4 0)
1969/12/31/18:00:07.610000,(-19 -12 -1 5 4 4 1 -3)
1969/12/31/18:00:07.610000,(-9 -4 -5 -27 -10 -8 -10 -11)
1969/12/31/18:00:07.610000,(1 2 -13 -36 -15 -4 1 -2)
1969/12/31/18:00:07.610000,(-11 -6 -3 -15 -10 -5 -5 -5)
1969/12/31/18:00:07.616000,(12 2 3 17 1 -2 1 8)
1969/12/31/18:00:07.616000,(12 9 0 6 11 15 15 16)
1969/12/31/18:00:07.617000,(27 28 2 8 0 -5 -10 -6)
1969/12/31/18:00:07.617000,(-15 -11 -7 -20 -6 -2 1 -4)
1969/12/31/18:00:07.638000,(-33 -20 -10 -7 -15 -15 -14 -19)
1969/12/31/18:00:07.638000,(31 28 13 13 4 -3 7 18)
1969/12/31/18:00:07.639000,(-52 -35 -14 -8 -4 -9 -17 -36)
1969/12/31/18:00:07.639000,(-2 1 -1 -9 -12 2 4 3)
1969/12/31/18:00:07.662000,(13 9 -1 -4 -13 -13 -2 5)
1969/12/31/18:00:07.662000,(-6 -5 3 7 23 12 8 7)
1969/12/31/18:00:07.662000,(2 -1 7 15 22 18 10 12)
1969/12/31/18:00:07.662000,(-1 2 3 11 18 7 -4 -2)
1969/12/31/18:00:07.676000,(-17 -11 4 8 11 8 6 -5)
1969/12/31/18:00:07.676000,(11 1 -12 -44 -70 -26 -8 1)
1969/12/31/18:00:07.677000,(-5 -8 -20 -45 -59 -31 -7 -2)
1969/12/31/18:00:07.677000,(9 5 2 20 44 12 2 2)
1969/12/31/18:00:07.698000,(8 14 29 74 63 33 10 2)
1969/12/31/18:00:07.698000,(-4 1 16 54 43 16 -2 -6)
1969/12/31/18:00:07.699000,(-2 -4 -4 -9 -12 -5 -5 -2)
1969/12/31/18:00:07.699000,(1 -4 -13 -41 -42 -15 2 6)
1969/12/31/18:00:07.722000,(10 4 -10 -28 -20 -11 -3 6)
1969/12/31/18:00:07.722000,(8 5 -3 -6 0 1 4 5)
1969/12/31/18:00:07.722000,(-25 -21 -3 1 -1 1 0 -11)
1969/12/31/18:00:07.722000,(67 47 18 -3 4 8 25 53)
1969/12/31/18:00:07.752000,(-3 -3 -1 0 -3 -5 -12 -12)
1969/12/31/18:00:07.752000,(2 -4 -6 -6 -4 -4 -5 -4)
1969/12/31/18:00:07.752000,(-7 -5 2 3 10 5 5 0)
1969/12/31/18:00:07.752000,(-7 -6 2 5 4 3 0 -4)
1969/12/31/18:00:07.760000,(9 5 -2 -5 -15 -3 3 5)
1969/12/31/18:00:07.760000,(0 0 -2 -9 -2 -6 -5 2)
1969/12/31/18:00:07.761000,(19 10 9 8 8 6 9 19)
1969/12/31/18:00:07.761000,(-19 -13 -4 2 -24 -10 -9 -16)
1969/12/31/18:00:07.782000,(10 1 4 6 26 9 3 -8)
1969/12/31/18:00:07.782000,(51 28 -9 -11 -2 -4 3 38)
1969/12/31/18:00:07.782000,(4 14 10 14 20 21 10 -10)
1969/12/31/18:00:07.782000,(-15 -12 -10 -10 -20 -22 -23 -21)
1969/12/31/18:00:07.796000,(-12 -3 -4 -11 -18 -3 0 -4)
1969/12/31/18:00:07.796000,(6 -5 -3 -1 0 -8 -12 -10)
1969/12/31/18:00:07.797000,(8 6 1 5 3 0 0 3)
1969/12/31/18:00:07.797000,(8 -1 -6 -4 -3 3 4 6)
1969/12/31/18:00:07.820000,(-13 -9 -6 -9 -8 -7 -6 -5)
1969/12/31/18:00:07.820000,(-23 -13 0 10 6 3 0 -11)
1969/12/31/18:00:07.821000,(-5 -3 -2 -8 -4 -6 -5 -1)
1969/12/31/18:00:07.821000,(-20 -9 -1 2 5 0 -6 -17)
1969/12/31/18:00:07.841000,(3 2 -2 -6 1 3 5 12)
1969/12/31/18:00:07.842000,(13 10 -2 4 -3 -5 -5 0)
1969/12/31/18:00:07.842000,(-37 -16 5 14 6 2 -3 -20)
1969/12/31/18:00:07.842000,(13 6 -1 -4 6 0 2 6)
1969/12/31/18:00:07.855000,(2 4 6 3 0 12 20 20)
1969/12/31/18:00:07.855000,(-9 -6 -3 -9 -3 -1 0 -4)
1969/12/31/18:00:07.863000,(-9 -18 -7 -3 0 -10 -10 -2)
1969/12/31/18:00:07.863000,(3 9 -2 2 9 17 20 8)
1969/12/31/18:00:07.887000,(-6 -5 -3 -3 -11 -13 -10 0)
1969/12/31/18:00:07.887000,(-27 -16 -3 -7 -1 -4 -8 -21)
1969/12/31/18:00:07.888000,(-3 -1 1 2 -1 -1 3 12)
1969/12/31/18:00:07.888000,(-9 -9 -3 -9 5 3 3 1)
1969/12/31/18:00:07.901000,(10 4 -3 -11 -17 -8 -4 -2)
1969/12/31/18:00:07.901000,(0 2 6 12 -7 1 7 4)
1969/12/31/18:00:07.902000,(16 10 2 20 26 5 1 5)
1969/12/31/18:00:07.902000,(-2 -1 5 19 11 1 -7 -5)
1969/12/31/18:00:07.915000,(4 5 3 -5 1 2 2 2)
1969/12/31/18:00:07.915000,(-18 -11 2 1 -3 -4 -10 -14)
1969/12/31/18:00:07.923000,(2 -1 -5 -10 -16 -5 -1 -2)
1969/12/31/18:00:07.923000,(-5 -5 -3 -5 0 -6 -4 -1)
1969/12/31/18:00:07.938000,(-2 -2 -6 -4 -2 -2 -3 -8)
1969/12/31/18:00:07.938000,(-5 -4 -7 -19 -5 6 7 5)
1969/12/31/18:00:07.939000,(11 4 -2 -7 -4 -3 1 5)
1969/12/31/18:00:07.939000,(-6 -1 2 1 0 -2 -5 -5)
1969/12/31/18:00:07.962000,(6 2 2 7 -2 2 2 3)
1969/12/31/18:00:07.962000,(-5 -1 5 14 8 0 -2 -4)
1969/12/31/18:00:07.962000,(3 5 7 -12 -3 5 1 1)
1969/12/31/18:00:07.962000,(5 6 11 29 11 3 1 1)
1969/12/31/18:00:07.975000,(-7 -7 -13 -6 -17 -13 -9 -6)
1969/12/31/18:00:07.975000,(-10 -11 -8 -25 -32 -13 -7 -9)
1969/12/31/18:00:07.983000,(-2 -2 4 4 31 -2 -5 -5)
1969/12/31/18:00:07.983000,(-3 -4 -14 7 12 13 4 1)
1969/12/31/18:00:07.998000,(-2 -1 22 14 -6 -1 0 0)
1969/12/31/18:00:07.998000,(-6 -1 -15 -9 2 -4 -5 -3)
1969/12/31/18:00:07.999000,(9 -5 -28 -20 -8 -4 -2 4)
1969/12/31/18:00:07.999000,(-6 1 10 -29 -56 -16 -6 -2)
1969/12/31/18:00:08.031000,(-1 12 57 22 -5 5 7 2)
1969/12/31/18:00:08.031000,(16 26 4 26 45 27 18 12)
1969/12/31/18:00:08.032000,(8 -10 -28 23 69 25 7 7)
1969/12/31/18:00:08.032000,(-2 -10 -23 -6 34 3 -9 -9)
1969/12/31/18:00:08.046000,(-11 -28 -53 -49 -102 -41 -21 -14)
1969/12/31/18:00:08.046000,(-12 -11 23 -11 -14 -22 -8 -4)
1969/12/31/18:00:08.047000,(-1 5 -1 3 0 3 3 -2)
1969/12/31/18:00:08.047000,(3 4 15 19 29 16 9 4)
1969/12/31/18:00:08.058000,(3 14 21 13 24 15 5 2)
1969/12/31/18:00:08.058000,(3 3 12 4 -10 2 3 2)
1969/12/31/18:00:08.059000,(1 4 0 -3 -28 -10 -1 3)
1969/12/31/18:00:08.059000,(0 -5 0 -14 -25 -14 -5 -2)
1969/12/31/18:00:08.082000,(-1 2 -8 1 12 -2 -1 -2)
1969/12/31/18:00:08.082000,(0 -3 -1 9 20 6 2 0)
1969/12/31/18:00:08.082000,(0 2 7 -4 -18 -4 -2 -3)
1969/12/31/18:00:08.082000,(2 1 6 -1 -13 -5 0 0)
1969/12/31/18:00:08.095000,(5 9 7 18 47 25 10 3)
1969/12/31/18:00:08.095000,(2 -8 -25 6 6 4 2 4)
1969/12/31/18:00:08.103000,(-13 -17 -14 -22 -39 -30 -18 -11)
1969/12/31/18:00:08.103000,(-5 3 20 -10 -15 -14 -6 -5)
1969/12/31/18:00:08.118000,(3 -5 -42 -9 12 0 -4 0)
1969/12/31/18:00:08.118000,(-1 -11 -5 -7 -4 -4 -4 -2)
1969/12/31/18:00:08.119000,(-3 8 22 8 -7 3 2 -2)
1969/12/31/18:00:08.119000,(3 0 -6 4 12 8 5 6)
1969/12/31/18:00:08.142000,(3 10 31 7 13 7 5 1)
1969/12/31/18:00:08.142000,(5 5 -5 7 -2 7 4 4)
1969/12/31/18:00:08.142000,(1 -7 -6 -3 -9 -6 -1 1)
1969/12/31/18:00:08.142000,(-6 0 2 -10 -4 -2 -4 -5)
1969/12/31/18:00:08.165000,(4 4 -3 5 12 4 1 1)
1969/12/31/18:00:08.165000,(-4 -8 -14 -3 3 -2 -4 -3)
1969/12/31/18:00:08.166000,(1 8 14 1 3 3 1 0)
1969/12/31/18:00:08.166000,(1 -4 -8 -1 -4 2 1 0)
1969/12/31/18:00:08.178000,(-6 -8 -2 -3 -1 -1 0 -2)
1969/12/31/18:00:08.178000,(3 9 5 -2 -9 -7 -1 1)
1969/12/31/18:00:08.187000,(-2 -4 -8 -6 -11 -7 -3 -3)
1969/12/31/18:00:08.187000,(0 -5 -11 -4 0 -2 3 2)
1969/12/31/18:00:08.202000,(-1 1 3 -6 8 3 0 -2)
1969/12/31/18:00:08.202000,(3 3 4 -1 0 2 0 2)
1969/12/31/18:00:08.203000,(-3 1 1 -13 -5 -1 0 -1)
1969/12/31/18:00:08.203000,(2 3 12 2 -19 -5 0 3)
1969/12/31/18:00:08.224000,(5 -4 -21 31 20 -2 1 3)
1969/12/31/18:00:08.224000,(-11 -6 4 18 18 7 -4 -8)
1969/12/31/18:00:08.226000,(3 9 9 -4 0 7 2 -1)
1969/12/31/18:00:08.226000,(-1 -2 -8 -8 5 5 1 1)
1969/12/31/18:00:08.238000,(-3 2 10 -15 -8 4 2 -1)
1969/12/31/18:00:08.238000,(11 4 -4 -4 -10 -5 1 6)
1969/12/31/18:00:08.247000,(-4 -6 -8 -20 -15 -13 -5 -4)
1969/12/31/18:00:08.247000,(-4 -8 -12 -5 -8 -7 -4 -5)
1969/12/31/18:00:08.261000,(-5 -5 1 -2 20 2 -1 0)
1969/12/31/18:00:08.262000,(-12 -3 5 1 0 0 -5 -9)
1969/12/31/18:00:08.263000,(13 9 6 16 4 7 7 10)
1969/12/31/18:00:08.263000,(4 1 -4 -7 5 -5 1 3)
1969/12/31/18:00:08.263000,(-1 2 0 -1 0 -1 1 -1)
1969/12/31/18:00:08.263000,(-1 0 -1 0 -1 -1 1 -2)
1969/12/31/18:00:08.265000,(-2 0 -2 0 0 -1 0 0)
1969/12/31/18:00:08.265000,(-1 -2 0 1 0 0 -2 -1)
1969/12/31/18:00:08.266000,(0 -2 -2 0 0 1 -1 0)
1969/12/31/18:00:08.266000,(-1 -1 1 1 1 0 0 0)
1969/12/31/18:00:08.272000,(-3 -1 -2 -1 0 -2 -4 -2)
1969/12/31/18:00:08.272000,(2 0 2 0 -1 -1 1 0)
1969/12/31/18:00:08.272000,(0 0 0 0 0 0 -1 -2)
1969/12/31/18:00:08.273000,(0 0 0 0 1 -1 -1 -2)
1969/12/31/18:00:08.284000,(0 0 -1 -1 -1 1 0 1)
1969/12/31/18:00:08.284000,(-1 0 2 2 3 1 1 1)
1969/12/31/18:00:08.284000,(1 -2 -2 -5 -6 -6 -3 -3)
1969/12/31/18:00:08.285000,(-1 -4 -4 -3 -2 -4 -1 -3)
1969/12/31/18:00:08.292000,(-1 -4 -1 -2 -3 -2 1 -1)
1969/12/31/18:00:08.292000,(0 1 -1 1 1 3 1 -2)
1969/12/31/18:00:08.307000,(0 2 4 2 1 3 3 3)
1969/12/31/18:00:08.307000,(5 4 3 3 2 0 1 3)
1969/12/31/18:00:08.309000,(-3 -1 5 -7 -7 -2 -1 -2)
1969/12/31/18:00:08.309000,(6 0 -11 7 5 1 3 4)
1969/12/31/18:00:08.330000,(-3 -6 0 -2 0 -3 -2 -1)
1969/12/31/18:00:08.330000,(-16 -6 -4 -13 -9 -3 -6 -11)
1969/12/31/18:00:08.331000,(9 6 2 1 3 0 2 5)
1969/12/31/18:00:08.331000,(-5 -4 -15 -20 -21 -1 0 -3)
1969/12/31/18:00:08.344000,(7 -2 -9 3 17 4 7 8)
1969/12/31/18:00:08.344000,(0 6 21 -2 -14 -8 -5 -1)
1969/12/31/18:00:08.352000,(1 -4 -18 -2 13 4 2 -1)
1969/12/31/18:00:08.352000,(0 -6 8 19 5 0 -3 -1)
1969/12/31/18:00:08.367000,(-2 6 24 19 12 5 0 -3)
1969/12/31/18:00:08.367000,(2 -3 1 49 23 6 1 0)
1969/12/31/18:00:08.369000,(6 3 -8 -22 -5 13 10 6)
1969/12/31/18:00:08.369000,(-5 -8 -4 4 -12 -17 -12 -7)
1969/12/31/18:00:08.398000,(-9 -13 -21 -16 -3 -12 -11 -7)
1969/12/31/18:00:08.398000,(-5 1 15 -49 -44 0 5 1)
1969/12/31/18:00:08.399000,(14 12 -24 6 26 -4 2 9)
1969/12/31/18:00:08.399000,(-5 -5 20 43 12 7 1 -3)
1969/12/31/18:00:08.403000,(10 19 26 79 40 15 3 2)
1969/12/31/18:00:08.403000,(-9 -15 -23 -28 12 -2 -5 -9)
1969/12/31/18:00:08.437000,(-2 -5 -10 -35 -46 -2 -1 1)
1969/12/31/18:00:08.437000,(4 -2 -18 -56 -18 -5 1 4)
1969/12/31/18:00:08.437000,(3 8 9 30 -5 0 2 3)
1969/12/31/18:00:08.437000,(-3 -12 -22 -30 -9 -3 0 -2)
1969/12/31/18:00:08.441000,(-18 -16 -6 -79 -38 -14 -10 -13)
1969/12/31/18:00:08.441000,(4 9 7 14 9 -3 1 3)
1969/12/31/18:00:08.449000,(7 4 -14 -30 15 7 4 4)
1969/12/31/18:00:08.449000,(15 17 45 127 44 18 5 8)
1969/12/31/18:00:08.451000,(-16 -4 38 95 18 2 -7 -13)
1969/12/31/18:00:08.451000,(-3 -2 -13 -52 -17 -8 -1 -4)
1969/12/31/18:00:08.463000,(-3 -8 -17 -73 3 -1 1 -1)
1969/12/31/18:00:08.463000,(8 0 -30 -2 -22 2 7 10)
1969/12/31/18:00:08.472000,(3 4 17 -10 21 -6 -6 -1)
1969/12/31/18:00:08.472000,(2 10 37 94 37 23 9 2)
1969/12/31/18:00:08.487000,(-5 -16 -40 -47 -36 -16 -6 -3)
1969/12/31/18:00:08.487000,(-8 -2 -9 -86 -30 -22 -14 -9)
1969/12/31/18:00:08.489000,(-2 -1 6 26 23 7 -2 -3)
1969/12/31/18:00:08.489000,(-3 0 6 -14 -1 2 -1 -1)
1969/12/31/18:00:08.533000,(-8 -5 10 92 15 3 -1 -4)
1969/12/31/18:00:08.533000,(2 -1 -14 -34 -14 -5 -2 1)
1969/12/31/18:00:08.535000,(3 4 12 6 -25 -5 -1 3)
1969/12/31/18:00:08.535000,(0 -3 -25 -76 -8 -11 -4 1)
1969/12/31/18:00:08.540000,(-2 -1 -8 -32 -14 -1 -1 -2)
1969/12/31/18:00:08.540000,(-2 1 3 25 5 -1 -1 0)
1969/12/31/18:00:08.541000,(4 2 -2 36 4 -1 2 5)
1969/12/31/18:00:08.541000,(-3 -7 -9 -48 -7 -1 -5 -4)
1969/12/31/18:00:08.547000,(0 2 18 50 -2 1 -2 -2)
1969/12/31/18:00:08.547000,(5 7 12 33 17 8 6 1)
1969/12/31/18:00:08.549000,(-4 -3 -7 -12 10 1 -2 -4)
1969/12/31/18:00:08.549000,(-1 0 4 14 -10 0 3 2)
1969/12/31/18:00:08.570000,(-8 -8 -15 -51 -27 -12 -5 -4)
1969/12/31/18:00:08.570000,(3 -1 -9 -21 9 -3 0 2)
1969/12/31/18:00:08.571000,(4 2 8 18 5 1 1 3)
1969/12/31/18:00:08.571000,(-6 -5 -5 16 -4 -5 -5 -4)
1969/12/31/18:00:08.583000,(3 6 2 -22 -9 -3 1 3)
1969/12/31/18:00:08.583000,(0 -1 4 27 13 3 0 -1)
1969/12/31/18:00:08.592000,(0 -1 -4 -5 -9 -1 -1 -1)
1969/12/31/18:00:08.592000,(1 -1 -4 3 0 -2 -2 -1)
1969/12/31/18:00:08.607000,(0 1 3 1 1 1 -1 0)
1969/12/31/18:00:08.607000,(-4 -3 2 6 0 0 -3 -3)
1969/12/31/18:00:08.608000,(-3 -2 -10 -15 -6 -3 -2 -2)
1969/12/31/18:00:08.608000,(4 4 0 0 4 2 3 4)
1969/12/31/18:00:08.637000,(3 1 8 6 -1 4 0 3)
1969/12/31/18:00:08.637000,(2 1 -2 -7 -4 2 1 0)
1969/12/31/18:00:08.638000,(-5 -1 -5 -14 -1 2 0 -4)
1969/12/31/18:00:08.638000,(-1 3 4 19 5 3 -1 1)
1969/12/31/18:00:08.643000,(-2 0 2 -6 -5 3 3 0)
1969/12/31/18:00:08.643000,(8 0 -6 -8 1 -2 0 3)
1969/12/31/18:00:08.668000,(-1 0 4 5 6 2 2 -2)
1969/12/31/18:00:08.668000,(1 -1 2 6 -4 -1 1 1)
1969/12/31/18:00:08.669000,(-7 -6 -2 -11 -8 -3 -4 -5)
1969/12/31/18:00:08.669000,(-7 -3 -3 -3 5 2 0 -4)
1969/12/31/18:00:08.673000,(6 2 1 3 1 1 1 5)
1969/12/31/18:00:08.673000,(-1 -1 -1 2 1 -2 1 2)
1969/12/31/18:00:08.690000,(-10 -2 2 -2 -3 -6 -4 -7)
1969/12/31/18:00:08.690000,(8 3 0 1 1 1 3 5)
1969/12/31/18:00:08.691000,(-5 -1 -1 1 1 -2 -1 -4)
1969/12/31/18:00:08.691000,(1 -2 -3 -6 -5 -4 -1 -1)
1969/12/31/18:00:08.703000,(6 3 1 2 1 2 2 2)
1969/12/31/18:00:08.703000,(-11 -6 0 4 -2 -3 -5 -6)
1969/12/31/18:00:08.712000,(4 3 0 -4 -1 -1 1 6)
1969/12/31/18:00:08.712000,(8 7 2 0 7 6 4 0)
1969/12/31/18:00:08.726000,(-2 -5 -3 -4 -3 -5 -5 -6)
1969/12/31/18:00:08.726000,(-1 0 -2 -4 -1 -1 0 0)
1969/12/31/18:00:08.733000,(-7 -7 -6 -6 -6 -4 -4 -4)
1969/12/31/18:00:08.733000,(-3 1 3 -1 -3 -1 1 2)
1969/12/31/18:00:08.749000,(9 2 -11 -24 -25 -1 7 7)
1969/12/31/18:00:08.749000,(-3 -2 -7 -32 -2 -3 -4 -3)
1969/12/31/18:00:08.751000,(0 3 11 32 20 3 2 0)
1969/12/31/18:00:08.751000,(1 2 17 71 29 10 2 1)
1969/12/31/18:00:08.763000,(-6 1 17 51 25 4 -4 -5)
1969/12/31/18:00:08.763000,(2 -1 -10 -38 -12 1 3 3)
1969/12/31/18:00:08.772000,(-4 -7 -17 -49 -28 -8 -4 -3)
1969/12/31/18:00:08.772000,(8 4 -3 -6 -4 0 6 8)
1969/12/31/18:00:08.811000,(3 -1 -2 -15 -2 0 3 4)
1969/12/31/18:00:08.811000,(-3 0 6 17 4 -1 -3 -4)
1969/12/31/18:00:08.812000,(-5 -3 -7 -45 -13 -4 -2 -2)
1969/12/31/18:00:08.812000,(-3 -9 -37 -89 -28 -7 -1 -2)
1969/12/31/18:00:08.813000,(4 2 16 83 17 3 2 5)
1969/12/31/18:00:08.813000,(-9 5 30 49 17 -1 -8 -11)
1969/12/31/18:00:08.817000,(4 1 -3 -9 5 5 0 0)
1969/12/31/18:00:08.817000,(2 -1 10 30 0 6 5 5)
1969/12/31/18:00:08.832000,(-6 -7 -20 -67 -12 -12 -14 -12)
1969/12/31/18:00:08.832000,(11 2 0 -16 1 7 13 15)
1969/12/31/18:00:08.834000,(-8 -2 18 63 4 -2 -7 -9)
1969/12/31/18:00:08.834000,(-16 -9 5 -7 6 -2 -6 -10)
1969/12/31/18:00:08.846000,(-3 -6 -33 -41 -7 -3 -1 -4)
1969/12/31/18:00:08.846000,(1 0 11 23 -1 -5 -1 -1)
1969/12/31/18:00:08.853000,(8 -2 -19 -47 -10 -5 2 9)
1969/12/31/18:00:08.853000,(-14 -3 1 -26 -11 -17 -16 -19)
1969/12/31/18:00:08.869000,(-2 0 8 27 2 1 4 5)
1969/12/31/18:00:08.869000,(-15 -15 -61 -115 -15 -9 -11 -16)
1969/12/31/18:00:08.871000,(14 2 19 100 2 7 8 12)
1969/12/31/18:00:08.871000,(6 10 34 65 25 7 -2 0)
1969/12/31/18:00:08.892000,(-1 6 31 63 32 6 0 -3)
1969/12/31/18:00:08.892000,(4 -2 15 22 -9 3 8 13)
1969/12/31/18:00:08.894000,(-5 -6 -22 -57 -11 -9 -7 -6)
1969/12/31/18:00:08.894000,(17 -3 -26 -28 -11 -5 3 15)
1969/12/31/18:00:08.906000,(-55 -16 2 -20 -9 0 -8 -26)
1969/12/31/18:00:08.907000,(77 37 5 15 20 24 41 59)
1969/12/31/18:00:08.913000,(-23 -19 -17 -11 -12 -17 -24 -32)
1969/12/31/18:00:08.913000,(6 0 -8 -10 -7 1 2 4)
1969/12/31/18:00:08.945000,(-2 -9 -36 -87 -24 -7 1 3)
1969/12/31/18:00:08.945000,(-14 -1 35 64 7 -1 -2 -6)
1969/12/31/18:00:08.946000,(10 15 28 87 27 8 9 9)
1969/12/31/18:00:08.946000,(-1 0 -2 -12 4 3 -1 -2)
1969/12/31/18:00:08.952000,(7 1 5 -8 -8 -1 1 4)
1969/12/31/18:00:08.952000,(-9 -3 9 32 0 -3 -7 -8)
1969/12/31/18:00:08.954000,(8 6 19 22 1 6 6 6)
1969/12/31/18:00:08.954000,(-17 -11 -12 -13 5 -4 -9 -13)
1969/12/31/18:00:08.966000,(14 6 -14 -35 -14 -1 2 6)
1969/12/31/18:00:08.966000,(-3 -4 -15 -12 -5 -3 -5 -7)
1969/12/31/18:00:08.973000,(-7 -3 -10 -14 9 5 2 -1)
1969/12/31/18:00:08.973000,(14 3 -4 -4 -15 -1 4 13)
1969/12/31/18:00:08.990000,(6 5 2 -7 5 10 7 0)
1969/12/31/18:00:08.990000,(-4 -2 -12 -49 -5 -3 -8 -10)
1969/12/31/18:00:08.991000,(1 -1 1 21 -2 1 1 7)
1969/12/31/18:00:08.991000,(-12 -1 12 23 -3 -6 -7 -10)
1969/12/31/18:00:09.012000,(14 6 9 20 8 2 3 3)
1969/12/31/18:00:09.012000,(-19 -5 7 7 1 0 -4 -5)
1969/12/31/18:00:09.014000,(32 15 3 -15 8 6 9 14)
1969/12/31/18:00:09.014000,(-13 -11 -5 -5 -7 -8 -13 -23)
1969/12/31/18:00:09.026000,(-9 -8 -2 11 -3 -7 -8 -5)
1969/12/31/18:00:09.026000,(17 -2 -15 -6 -4 0 4 7)
1969/12/31/18:00:09.035000,(-25 -5 -2 -32 0 10 3 -12)
1969/12/31/18:00:09.035000,(17 8 8 22 4 2 3 9)
1969/12/31/18:00:09.050000,(15 5 4 1 0 -3 -6 -1)
1969/12/31/18:00:09.050000,(-31 -11 -2 8 -1 -1 -2 -19)
1969/12/31/18:00:09.051000,(21 10 3 -8 0 6 17 20)
1969/12/31/18:00:09.051000,(4 4 1 0 9 10 8 9)
1969/12/31/18:00:09.088000,(-7 -7 -5 2 -6 -5 -8 -7)
1969/12/31/18:00:09.088000,(-38 -15 3 9 2 -4 -7 -11)
1969/12/31/18:00:09.090000,(-20 -13 -7 -9 -3 -6 -4 -3)
1969/12/31/18:00:09.090000,(1 7 -1 -4 -2 -3 -6 -11)
1969/12/31/18:00:09.091000,(27 11 5 5 1 6 10 18)
1969/12/31/18:00:09.091000,(-16 -9 -1 10 -2 -8 -7 -5)
1969/12/31/18:00:09.095000,(2 0 -7 -17 -1 -2 -3 -2)
1969/12/31/18:00:09.095000,(-19 -3 -1 -3 1 -1 -3 -13)
1969/12/31/18:00:09.110000,(2 -3 5 15 5 2 0 -1)
1969/12/31/18:00:09.110000,(46 23 -2 -4 -5 -6 -9 -5)
1969/12/31/18:00:09.111000,(-9 2 0 -9 -2 -10 -14 -7)
1969/12/31/18:00:09.111000,(4 -6 -5 -4 -5 0 4 4)
1969/12/31/18:00:09.132000,(-10 -2 4 8 2 0 2 0)
1969/12/31/18:00:09.132000,(7 1 1 3 0 1 0 4)
1969/12/31/18:00:09.134000,(9 3 -4 -6 1 -1 -1 -2)
1969/12/31/18:00:09.134000,(-12 -6 -1 2 -2 -1 -1 1)
1969/12/31/18:00:09.146000,(-4 0 0 0 4 1 4 4)
1969/12/31/18:00:09.146000,(-2 -4 -2 0 -4 -5 -4 -2)
1969/12/31/18:00:09.155000,(-18 -12 -4 -3 -2 3 1 -7)
1969/12/31/18:00:09.155000,(-20 -10 -4 -2 -1 -7 -11 -13)
1969/12/31/18:00:09.170000,(-6 3 4 -7 -1 2 3 -6)
1969/12/31/18:00:09.170000,(11 0 -1 19 9 1 0 8)
1969/12/31/18:00:09.171000,(-5 -1 4 -13 -10 -2 -6 -12)
1969/12/31/18:00:09.171000,(-1 -5 -12 2 -1 -5 -2 -5)
1969/12/31/18:00:09.192000,(19 5 -21 -77 -28 3 10 21)
1969/12/31/18:00:09.192000,(-7 -2 13 32 9 -3 -3 -5)
1969/12/31/18:00:09.194000,(-2 3 22 55 17 5 2 -1)
1969/12/31/18:00:09.194000,(-1 -1 13 24 13 4 2 4)
1969/12/31/18:00:09.222000,(-11 -6 1 10 1 -5 -11 -11)
1969/12/31/18:00:09.222000,(5 -2 -15 -39 -10 2 6 6)
1969/12/31/18:00:09.224000,(-9 -14 -39 -87 -17 -6 -3 -5)
1969/12/31/18:00:09.224000,(11 2 -13 -1 -17 -5 0 3)
1969/12/31/18:00:09.230000,(-8 3 34 69 25 3 -2 -5)
1969/12/31/18:00:09.230000,(-27 -10 20 37 3 -6 -10 -16)
1969/12/31/18:00:09.231000,(21 10 6 4 10 6 5 13)
1969/12/31/18:00:09.231000,(-9 -4 -15 -42 -8 -9 -11 -13)
1969/12/31/18:00:09.252000,(12 -4 -23 -33 -20 -7 1 11)
1969/12/31/18:00:09.252000,(-9 -12 -20 -37 -16 -11 -8 -11)
1969/12/31/18:00:09.254000,(-10 -5 14 67 18 -4 -6 -8)
1969/12/31/18:00:09.254000,(6 7 18 32 7 16 13 11)
1969/12/31/18:00:09.266000,(2 4 16 41 25 9 7 6)
1969/12/31/18:00:09.266000,(9 2 -12 -50 -14 -2 3 9)
1969/12/31/18:00:09.275000,(2 -2 7 25 -6 -2 0 4)
1969/12/31/18:00:09.275000,(-1 -8 -34 -91 -11 -8 -4 -2)
1969/12/31/18:00:09.289000,(-4 -3 4 46 25 -2 -5 -5)
1969/12/31/18:00:09.290000,(7 5 -8 -51 -18 2 5 7)
1969/12/31/18:00:09.291000,(1 0 -39 -82 -49 -14 -3 -2)
1969/12/31/18:00:09.291000,(18 17 74 125 31 15 16 20)
1969/12/31/18:00:09.312000,(-7 3 22 35 20 -1 -6 -8)
1969/12/31/18:00:09.312000,(-7 -5 -28 -29 -37 -14 -1 -3)
1969/12/31/18:00:09.314000,(7 2 12 22 31 3 -1 5)
1969/12/31/18:00:09.314000,(-3 -3 -30 -65 22 1 -9 -6)
1969/12/31/18:00:09.326000,(12 5 -16 -22 -3 23 22 20)
1969/12/31/18:00:09.326000,(-5 -6 7 26 -7 -4 -6 -8)
1969/12/31/18:00:09.335000,(5 3 -14 -75 -32 0 6 8)
1969/12/31/18:00:09.335000,(5 2 1 31 10 -9 -9 -1)
1969/12/31/18:00:09.365000,(2 -2 -18 -94 -67 -15 -3 0)
1969/12/31/18:00:09.365000,(-4 6 43 110 42 7 -1 -1)
1969/12/31/18:00:09.366000,(-5 0 29 78 44 6 -3 -5)
1969/12/31/18:00:09.367000,(-10 -6 -2 18 24 7 3 -4)
1969/12/31/18:00:09.372000,(6 -8 -14 -35 -7 -6 -4 4)
1969/12/31/18:00:09.372000,(-14 -7 -34 -123 -43 -9 -10 -18)
1969/12/31/18:00:09.374000,(-4 -8 -32 -15 -21 -16 -6 -6)
1969/12/31/18:00:09.374000,(14 11 28 46 -2 8 14 15)
1969/12/31/18:00:09.386000,(-19 -13 -14 -37 -12 -14 -17 -20)
1969/12/31/18:00:09.386000,(15 10 10 38 25 13 13 15)
1969/12/31/18:00:09.395000,(3 5 13 40 40 5 2 3)
1969/12/31/18:00:09.395000,(2 2 4 -1 -44 -7 -3 0)
1969/12/31/18:00:09.410000,(-12 -7 10 33 -1 -5 -8 -12)
1969/12/31/18:00:09.410000,(14 9 6 3 32 16 17 18)
1969/12/31/18:00:09.411000,(-15 -13 -23 -53 -13 -5 -10 -14)
1969/12/31/18:00:09.411000,(-5 -2 -14 -16 -24 -5 4 10)
1969/12/31/18:00:09.432000,(-16 -15 9 32 18 1 3 0)
1969/12/31/18:00:09.432000,(71 31 7 24 15 13 17 32)
1969/12/31/18:00:09.434000,(0 -7 -20 -28 -12 -9 -9 -4)
1969/12/31/18:00:09.434000,(-5 -6 -14 -67 -11 2 4 2)
1969/12/31/18:00:09.446000,(3 7 17 61 3 -4 -4 -3)
1969/12/31/18:00:09.446000,(-21 -4 14 40 12 -3 -9 -13)
1969/12/31/18:00:09.455000,(8 12 21 -25 2 7 6 5)
1969/12/31/18:00:09.455000,(13 -2 -3 28 5 -3 0 3)
1969/12/31/18:00:09.470000,(-2 6 -8 -27 4 -4 -5 -9)
1969/12/31/18:00:09.470000,(-28 -16 -3 6 -1 0 -2 -12)
1969/12/31/18:00:09.471000,(32 12 8 -1 -3 13 23 33)
1969/12/31/18:00:09.471000,(-50 -32 -12 -14 -9 -8 -14 -25)
1969/12/31/18:00:09.500000,(83 43 -2 -3 7 10 17 34)
1969/12/31/18:00:09.500000,(-3 0 1 1 -2 0 2 1)
1969/12/31/18:00:09.502000,(-18 -9 -2 6 -9 -13 -16 -18)
1969/12/31/18:00:09.502000,(12 4 -8 -17 -2 -3 -2 5)
1969/12/31/18:00:09.506000,(-1 -6 -2 11 5 5 4 3)
1969/12/31/18:00:09.506000,(-3 2 -2 -6 -5 -5 -8 -10)
1969/12/31/18:00:09.515000,(1 3 6 16 3 6 4 1)
1969/12/31/18:00:09.515000,(15 3 3 8 4 1 5 11)
1969/12/31/18:00:09.531000,(-39 -17 -2 -2 -2 -9 -14 -21)
1969/12/31/18:00:09.531000,(-5 -3 -5 -12 -3 -3 -4 -1)
1969/12/31/18:00:09.536000,(-11 0 8 10 5 4 0 -13)
1969/12/31/18:00:09.536000,(12 12 5 7 3 9 16 22)
1969/12/31/18:00:09.552000,(22 13 -2 -11 -7 -3 1 9)
1969/12/31/18:00:09.552000,(-5 -3 -2 0 8 4 0 -6)
1969/12/31/18:00:09.554000,(-16 -3 3 11 0 3 5 1)
1969/12/31/18:00:09.554000,(-13 -6 -3 -5 0 -4 -9 -16)
1969/12/31/18:00:09.566000,(-11 -1 -3 -5 1 -2 -3 -7)
1969/12/31/18:00:09.566000,(-19 -15 -5 -4 -5 0 2 1)
1969/12/31/18:00:09.575000,(31 13 2 0 -3 -3 -4 0)
1969/12/31/18:00:09.575000,(-35 -13 0 2 2 1 -6 -21)
1969/12/31/18:00:09.589000,(27 17 -2 -1 -3 -2 1 7)
1969/12/31/18:00:09.589000,(-34 -23 -11 -2 -6 -14 -26 -28)
1969/12/31/18:00:09.596000,(-24 -15 -3 -1 1 3 4 -3)
1969/12/31/18:00:09.596000,(13 5 -3 -14 -8 -12 -13 -7)
1969/12/31/18:00:09.612000,(-13 -12 -7 -5 -7 -3 0 -3)
1969/12/31/18:00:09.612000,(4 8 0 -12 -1 0 2 8)
1969/12/31/18:00:09.614000,(-7 -3 0 18 9 6 8 4)
1969/12/31/18:00:09.614000,(-11 -7 5 19 3 -1 -4 -8)
1969/12/31/18:00:09.642000,(-18 -6 15 24 9 7 3 -10)
1969/12/31/18:00:09.642000,(11 14 6 -6 1 1 7 15)
1969/12/31/18:00:09.644000,(1 -15 -16 -14 -11 -7 -13 -13)
1969/12/31/18:00:09.644000,(29 23 12 3 12 15 24 30)
1969/12/31/18:00:09.649000,(-11 -2 -6 -15 -5 -6 -8 -5)
1969/12/31/18:00:09.649000,(19 1 -3 3 1 7 13 11)
1969/12/31/18:00:09.656000,(-11 -3 2 3 -6 -7 -7 -9)
1969/12/31/18:00:09.656000,(-17 -14 -4 -17 -3 5 7 1)
1969/12/31/18:00:09.672000,(39 15 1 9 10 2 3 14)
1969/12/31/18:00:09.672000,(9 4 -13 -18 -22 -2 2 2)
1969/12/31/18:00:09.674000,(-10 -5 -2 8 0 -7 -4 -4)
1969/12/31/18:00:09.674000,(6 8 13 5 9 5 5 5)
1969/12/31/18:00:09.686000,(42 36 18 39 22 19 22 37)
1969/12/31/18:00:09.686000,(-22 -18 -1 16 -3 -22 -34 -41)
1969/12/31/18:00:09.695000,(7 3 -12 -38 -18 -3 2 5)
1969/12/31/18:00:09.695000,(3 -4 -21 -41 -14 -7 -4 -2)
1969/12/31/18:00:09.709000,(-28 -14 4 15 0 -3 -4 -11)
1969/12/31/18:00:09.709000,(7 8 18 30 18 15 19 20)
1969/12/31/18:00:09.716000,(64 36 8 14 0 2 8 21)
1969/12/31/18:00:09.716000,(-3 -3 -6 -12 -6 -9 -9 -10)
1969/12/31/18:00:09.732000,(-20 -18 -18 -36 -21 -28 -59 -40)
1969/12/31/18:00:09.732000,(4 -4 -10 -15 -5 10 24 -15)
1969/12/31/18:00:09.733000,(-18 -10 -13 -48 -1 10 31 24)
1969/12/31/18:00:09.734000,(3 -4 2 42 -3 -1 0 -1)
1969/12/31/18:00:09.746000,(-11 -3 14 25 4 -2 -4 -10)
1969/12/31/18:00:09.746000,(-7 -5 -18 -67 -43 -11 -16 -3)
1969/12/31/18:00:09.755000,(-6 -4 6 49 32 -4 -10 -7)
1969/12/31/18:00:09.755000,(14 17 25 56 27 5 -2 -5)
1969/12/31/18:00:09.778000,(-37 -19 11 23 7 5 4 -8)
1969/12/31/18:00:09.778000,(34 12 -12 -34 -8 -8 -6 13)
1969/12/31/18:00:09.779000,(9 2 -7 -26 -16 8 15 16)
1969/12/31/18:00:09.779000,(-16 -10 -9 -28 -10 -4 -4 -4)
1969/12/31/18:00:09.792000,(7 6 -12 -15 -7 6 10 -1)
1969/12/31/18:00:09.792000,(-7 -6 4 3 39 5 3 4)
1969/12/31/18:00:09.794000,(-2 4 18 39 -8 3 -6 -6)
1969/12/31/18:00:09.794000,(-10 -8 13 41 -13 -11 -14 -14)
1969/12/31/18:00:09.815000,(3 2 -7 -30 4 2 10 9)
1969/12/31/18:00:09.815000,(3 -1 -9 -11 0 5 6 4)
1969/12/31/18:00:09.816000,(9 12 0 -7 4 -8 -15 -10)
1969/12/31/18:00:09.816000,(17 6 -19 -37 2 12 15 22)
1969/12/31/18:00:09.829000,(-18 -17 -17 -60 -30 -7 0 -8)
1969/12/31/18:00:09.829000,(5 5 20 69 16 0 -4 -1)
1969/12/31/18:00:09.836000,(37 34 50 80 41 23 14 14)
1969/12/31/18:00:09.836000,(-15 -9 -9 -25 -13 -13 -17 -21)
1969/12/31/18:00:09.852000,(15 4 -26 -55 -8 9 14 18)
1969/12/31/18:00:09.852000,(-26 -24 -2 10 -3 -4 -6 -7)
1969/12/31/18:00:09.854000,(0 -2 4 13 -5 3 6 6)
1969/12/31/18:00:09.854000,(-28 -8 5 8 7 -2 -6 -15)
1969/12/31/18:00:09.875000,(-20 -14 -12 -12 -9 -6 -6 -10)
1969/12/31/18:00:09.875000,(4 2 4 -18 7 4 9 10)
1969/12/31/18:00:09.876000,(-18 -15 -7 19 -21 -13 -12 -14)
1969/12/31/18:00:09.876000,(-6 -3 1 1 7 -1 -1 -5)
1969/12/31/18:00:09.889000,(-7 -6 7 33 13 1 -5 -4)
1969/12/31/18:00:09.889000,(-22 6 2 -4 -8 -4 -4 -4)
1969/12/31/18:00:09.920000,(-14 -11 -18 -47 -11 -11 -13 -17)
1969/12/31/18:00:09.920000,(15 5 -3 -5 -5 4 6 9)
1969/12/31/18:00:09.921000,(-4 -9 -21 -46 -29 -12 -7 -6)
1969/12/31/18:00:09.921000,(21 8 -11 9 48 14 16 23)
1969/12/31/18:00:09.923000,(-17 -6 30 57 -2 4 -4 -5)
1969/12/31/18:00:09.923000,(-1 3 21 54 -8 -4 -10 -10)
1969/12/31/18:00:09.935000,(-2 24 16 25 21 10 19 28)
1969/12/31/18:00:09.935000,(36 9 -7 -31 -22 -12 -13 7)
1969/12/31/18:00:09.936000,(-8 -13 -29 -50 -1 -7 -6 -3)
1969/12/31/18:00:09.936000,(18 5 -9 -19 3 6 14 12)
1969/12/31/18:00:09.948000,(28 19 8 29 -3 6 7 8)
1969/12/31/18:00:09.948000,(-6 1 -1 -26 -1 3 4 -1)
1969/12/31/18:00:09.957000,(2 -1 -3 5 -2 -8 -8 -6)
1969/12/31/18:00:09.957000,(6 6 6 2 1 9 11 17)
1969/12/31/18:00:09.972000,(-5 -7 4 8 7 0 0 -8)
1969/12/31/18:00:09.972000,(-25 -2 8 25 -5 -5 -6 -15)
1969/12/31/18:00:09.974000,(-4 -11 -7 -19 -12 -3 1 7)
1969/12/31/18:00:09.974000,(-21 -19 -35 -77 -35 -13 -8 -11)
1969/12/31/18:00:09.995000,(34 13 3 20 20 -2 7 30)
1969/12/31/18:00:09.995000,(-9 -8 26 82 26 3 -21 -33)
1969/12/31/18:00:09.996000,(-57 -15 6 6 14 -7 -10 -11)
1969/12/31/18:00:09.996000,(5 -2 -8 0 3 6 10 3)
1969/12/31/18:00:10.009000,(-24 -21 -9 -27 -21 -9 -11 -12)
1969/12/31/18:00:10.009000,(-3 -8 -12 -24 -28 -13 -3 -10)
1969/12/31/18:00:10.016000,(-44 -21 -2 -4 0 4 5 -10)
1969/12/31/18:00:10.016000,(33 26 4 1 14 10 7 16)
1969/12/31/18:00:10.032000,(-21 -10 1 3 -2 -4 -5 -15)
1969/12/31/18:00:10.032000,(-25 -12 -1 8 -2 1 1 -2)
1969/12/31/18:00:10.034000,(50 22 -2 -13 -10 -7 -10 1)
1969/12/31/18:00:10.034000,(7 6 -3 -4 -1 -18 -16 -2)
1969/12/31/18:00:10.055000,(-34 -30 -3 13 10 9 -1 -31)
1969/12/31/18:00:10.055000,(8 16 9 12 8 20 27 22)
1969/12/31/18:00:10.057000,(-9 -13 -8 -16 -3 5 7 3)
1969/12/31/18:00:10.057000,(15 7 -3 1 0 -1 3 -3)
1969/12/31/18:00:10.068000,(14 6 2 7 7 -4 -8 2)
1969/12/31/18:00:10.068000,(-6 -6 -7 4 -25 -15 -22 -17)
1969/12/31/18:00:10.077000,(3 0 -3 -18 -10 -8 1 -8)
1969/12/31/18:00:10.077000,(-6 -6 2 -2 -11 -1 16 12)
1969/12/31/18:00:10.092000,(-3 -1 7 26 39 13 11 4)
1969/12/31/18:00:10.092000,(9 8 5 8 29 22 11 11)
1969/12/31/18:00:10.094000,(20 12 -9 -22 8 10 -3 4)
1969/12/31/18:00:10.094000,(-4 -1 0 -12 -8 -6 -12 -7)
1969/12/31/18:00:10.115000,(-14 -15 7 19 -16 -14 -4 0)
1969/12/31/18:00:10.115000,(8 7 9 19 0 -6 -2 -3)
1969/12/31/18:00:10.116000,(15 4 2 7 -4 -5 -4 3)
1969/12/31/18:00:10.116000,(-17 -3 -3 -11 3 -2 -9 -16)
1969/12/31/18:00:10.128000,(29 15 -3 -25 -23 8 23 35)
1969/12/31/18:00:10.128000,(-1 -4 -7 -14 -2 -4 -1 0)
1969/12/31/18:00:10.137000,(1 2 0 0 1 0 5 4)
1969/12/31/18:00:10.137000,(2 -2 -6 -14 2 3 0 2)
1969/12/31/18:00:10.152000,(9 4 2 6 8 0 -4 -1)
1969/12/31/18:00:10.152000,(3 2 7 22 -1 -3 -3 0)
1969/12/31/18:00:10.154000,(-2 -3 8 15 0 4 8 3)
1969/12/31/18:00:10.154000,(11 7 4 11 11 2 3 11)
1969/12/31/18:00:10.198000,(-4 1 -3 -12 -9 -5 -9 -14)
1969/12/31/18:00:10.199000,(4 -2 -9 -28 -14 -5 4 7)
1969/12/31/18:00:10.200000,(-13 -9 -9 -5 -2 -6 -9 -15)
1969/12/31/18:00:10.200000,(-11 -8 3 3 -3 -2 -3 -4)
1969/12/31/18:00:10.201000,(-10 -16 -5 -2 0 -2 -7 -9)
1969/12/31/18:00:10.201000,(81 77 22 6 18 38 60 79)
1969/12/31/18:00:10.205000,(-1 5 0 3 4 -2 -1 2)
1969/12/31/18:00:10.205000,(-7 -1 4 16 1 -2 -6 -9)
1969/12/31/18:00:10.212000,(-8 -6 -3 6 1 -4 -5 -12)
1969/12/31/18:00:10.212000,(-18 -21 -8 -24 -9 -12 -10 -10)
1969/12/31/18:00:10.214000,(8 3 -2 -15 -13 -2 0 4)
1969/12/31/18:00:10.214000,(1 -1 5 14 11 8 8 7)
1969/12/31/18:00:10.235000,(17 14 6 0 0 1 1 5)
1969/12/31/18:00:10.235000,(-20 -15 -3 5 -2 -9 -14 -20)
1969/12/31/18:00:10.236000,(-2 2 0 11 6 -3 -2 -3)
1969/12/31/18:00:10.236000,(-15 -17 -14 -20 -11 -10 -13 -15)
1969/12/31/18:00:10.248000,(3 7 9 -2 -5 5 4 3)
1969/12/31/18:00:10.248000,(-11 -9 3 19 7 -1 -5 -9)
1969/12/31/18:00:10.257000,(5 2 -2 -13 -1 3 3 1)
1969/12/31/18:00:10.257000,(0 3 1 12 2 -6 -4 -2)
1969/12/31/18:00:10.272000,(-5 -2 -3 -2 3 4 1 -1)
1969/12/31/18:00:10.272000,(-12 -15 -24 -54 -39 -20 -9 -11)
1969/12/31/18:00:10.274000,(7 12 39 39 27 13 7 7)
1969/12/31/18:00:10.274000,(7 11 24 41 50 33 16 8)
1969/12/31/18:00:10.295000,(-1 -6 -36 2 5 -3 -4 -4)
1969/12/31/18:00:10.295000,(-31 -37 -37 -65 -40 -31 -28 -28)
1969/12/31/18:00:10.296000,(-3 8 29 32 -8 -10 -2 0)
1969/12/31/18:00:10.296000,(2 11 18 33 2 7 3 2)
1969/12/31/18:00:10.308000,(5 -4 -19 4 13 -1 -1 3)
1969/12/31/18:00:10.308000,(-22 -17 -9 -12 6 -8 -16 -17)
1969/12/31/18:00:10.334000,(-4 -4 -35 -58 -52 -20 -7 -4)
1969/12/31/18:00:10.334000,(13 11 23 -50 -27 -7 7 10)
1969/12/31/18:00:10.335000,(8 15 20 31 29 19 8 7)
1969/12/31/18:00:10.335000,(8 -4 -14 39 38 20 11 8)
1969/12/31/18:00:10.338000,(-12 -15 -15 -13 18 -1 -9 -10)
1969/12/31/18:00:10.338000,(-13 -11 -2 18 -11 -2 -6 -8)
1969/12/31/18:00:10.362000,(-12 -7 -10 -24 -34 -21 -11 -8)
1969/12/31/18:00:10.362000,(4 7 10 -18 -9 -3 0 1)
1969/12/31/18:00:10.364000,(5 4 1 25 3 8 6 3)
1969/12/31/18:00:10.364000,(5 0 0 -11 5 -2 1 4)
1969/12/31/18:00:10.368000,(-3 1 7 -5 -5 0 0 -3)
1969/12/31/18:00:10.368000,(3 3 6 30 8 3 2 2)
1969/12/31/18:00:10.377000,(-8 -10 -12 -21 -2 -3 -4 -3)
1969/12/31/18:00:10.377000,(-3 -10 -39 -18 -19 -9 -5 -1)
1969/12/31/18:00:10.392000,(-3 0 24 -19 -2 -1 -4 -5)
1969/12/31/18:00:10.392000,(-2 6 0 3 3 9 4 -1)
1969/12/31/18:00:10.394000,(9 -4 1 52 -1 -5 -1 5)
1969/12/31/18:00:10.394000,(-11 2 34 26 4 -11 -11 -11)
1969/12/31/18:00:10.415000,(-10 -5 -18 2 -3 -2 -7 -8)
1969/12/31/18:00:10.415000,(5 1 2 -33 3 9 8 6)
1969/12/31/18:00:10.416000,(-3 4 -2 -15 2 3 -1 -2)
1969/12/31/18:00:10.416000,(9 4 -6 30 4 8 8 9)
1969/12/31/18:00:10.428000,(2 3 12 14 11 2 2 1)
1969/12/31/18:00:10.428000,(-6 -15 -22 -1 -15 -18 -10 -6)
1969/12/31/18:00:10.437000,(-5 -7 -7 -36 -10 -1 0 0)
1969/12/31/18:00:10.437000,(-3 0 -6 -19 -2 -2 -4 -5)
1969/12/31/18:00:10.476000,(3 4 -1 -4 -1 1 4 6)
1969/12/31/18:00:10.476000,(5 11 25 17 6 8 5 3)
1969/12/31/18:00:10.478000,(7 5 -1 11 11 11 5 2)
1969/12/31/18:00:10.478000,(-2 -14 -30 -33 -6 -4 1 0)
1969/12/31/18:00:10.478000,(-11 -3 5 -8 -11 -5 -2 -6)
1969/12/31/18:00:10.478000,(-1 0 3 29 2 -7 -5 -1)
1969/12/31/18:00:10.482000,(-8 -3 7 -1 -1 -6 -4 -4)
1969/12/31/18:00:10.482000,(-3 0 -5 -8 3 -1 -1 -2)
1969/12/31/18:00:10.488000,(9 10 21 5 -3 0 4 8)
1969/12/31/18:00:10.488000,(4 7 -12 7 2 6 3 1)
1969/12/31/18:00:10.497000,(3 -14 -21 -12 5 0 2 4)
1969/12/31/18:00:10.497000,(-14 -5 0 9 -7 -9 -9 -9)
1969/12/31/18:00:10.512000,(1 7 12 -11 -4 -4 -2 0)
1969/12/31/18:00:10.512000,(2 1 5 19 2 6 -2 2)
1969/12/31/18:00:10.514000,(4 0 -4 -2 10 3 4 4)
1969/12/31/18:00:10.514000,(-1 -11 -43 -70 -21 -5 -2 -1)
1969/12/31/18:00:10.534000,(-3 -1 7 -22 -26 -6 -3 -2)
1969/12/31/18:00:10.534000,(3 12 41 85 35 11 4 0)
1969/12/31/18:00:10.535000,(6 11 24 67 33 13 5 2)
1969/12/31/18:00:10.535000,(1 2 13 2 8 0 -1 0)
1969/12/31/18:00:10.558000,(-4 -6 -36 -97 -53 -9 -1 -2)
1969/12/31/18:00:10.558000,(-2 -9 -31 -128 -10 -12 -6 -1)
1969/12/31/18:00:10.558000,(-5 -6 -26 -51 -36 -11 -7 -6)
1969/12/31/18:00:10.559000,(5 13 64 105 108 24 11 7)
1969/12/31/18:00:10.571000,(-1 9 64 125 73 26 2 -4)
1969/12/31/18:00:10.571000,(4 -1 -1 20 -2 0 3 4)
1969/12/31/18:00:10.579000,(-8 -6 -24 -100 -42 -19 -10 -5)
1969/12/31/18:00:10.579000,(-4 -6 -41 -102 -64 -16 -6 -5)
1969/12/31/18:00:10.610000,(0 -11 -31 -20 -14 -9 0 3)
1969/12/31/18:00:10.610000,(1 6 17 -4 -2 7 11 4)
1969/12/31/18:00:10.610000,(7 7 -2 6 5 6 5 6)
1969/12/31/18:00:10.610000,(-6 -12 -8 14 -13 -9 -5 -1)
1969/12/31/18:00:10.616000,(-7 -1 3 6 16 6 1 -3)
1969/12/31/18:00:10.616000,(-4 -2 1 -2 -8 -5 -6 -4)
1969/12/31/18:00:10.617000,(3 5 10 -1 -3 -3 0 1)
1969/12/31/18:00:10.617000,(5 0 -3 -10 -6 2 3 3)
1969/12/31/18:00:10.631000,(2 -2 -2 38 18 0 -4 -1)
1969/12/31/18:00:10.631000,(0 3 8 15 3 0 -2 -2)
1969/12/31/18:00:10.632000,(-1 3 1 3 4 5 1 0)
1969/12/31/18:00:10.632000,(2 0 -12 -37 -25 -3 -2 -1)
1969/12/31/18:00:10.654000,(3 5 20 50 29 3 -2 -1)
1969/12/31/18:00:10.654000,(-5 -4 -4 4 -2 -1 -4 -5)
1969/12/31/18:00:10.655000,(-3 -5 5 29 23 3 0 -2)
1969/12/31/18:00:10.655000,(0 3 -2 -23 -11 -2 -1 -1)
1969/12/31/18:00:10.684000,(3 -3 -18 -34 -20 -6 0 3)
1969/12/31/18:00:10.684000,(-9 -6 -5 -6 -8 -8 -5 -4)
1969/12/31/18:00:10.692000,(-6 -8 -9 9 -6 -2 -4 -1)
1969/12/31/18:00:10.692000,(5 9 15 13 12 5 2 6)
1969/12/31/18:00:10.694000,(-8 -4 -1 11 -2 -9 -7 -6)
1969/12/31/18:00:10.694000,(-1 -2 -12 -54 -6 -3 1 0)
1969/12/31/18:00:10.699000,(4 5 14 43 -1 4 11 4)
1969/12/31/18:00:10.699000,(3 2 -3 12 3 5 9 0)
1969/12/31/18:00:10.714000,(4 1 -1 -27 -12 3 6 2)
1969/12/31/18:00:10.714000,(-4 -1 -4 -16 -15 -2 -1 -4)
1969/12/31/18:00:10.715000,(-1 2 0 -17 9 5 0 -1)
1969/12/31/18:00:10.715000,(0 0 8 37 24 4 -1 -1)
1969/12/31/18:00:10.754000,(-4 -6 -16 -33 -7 -5 -6 -4)
1969/12/31/18:00:10.754000,(-5 -4 -11 -13 -16 1 -1 -1)
1969/12/31/18:00:10.755000,(5 -1 -5 -28 -7 -6 -4 1)
1969/12/31/18:00:10.755000,(-7 -2 7 -3 -11 -4 -8 -6)
1969/12/31/18:00:10.767000,(0 4 18 50 18 8 2 0)
1969/12/31/18:00:10.767000,(2 5 23 53 26 8 1 -1)
1969/12/31/18:00:10.768000,(-2 -2 2 -4 3 2 -3 -2)
1969/12/31/18:00:10.768000,(-1 -4 -16 -30 -8 -4 -1 -1)
1969/12/31/18:00:10.775000,(-1 -6 -20 -44 -20 -10 -4 -2)
1969/12/31/18:00:10.775000,(-1 -1 3 11 -2 -7 -4 -2)
1969/12/31/18:00:10.776000,(-3 -2 -1 0 5 -5 -3 -2)
1969/12/31/18:00:10.776000,(-3 -3 -3 0 -3 -6 -4 -1)
1969/12/31/18:00:10.796000,(-1 -1 -3 3 -1 -3 -1 0)
1969/12/31/18:00:10.796000,(0 0 -2 3 1 -4 1 1)
1969/12/31/18:00:10.797000,(0 0 -5 -7 -2 1 3 2)
1969/12/31/18:00:10.797000,(-1 0 8 16 -12 -7 -6 1)
1969/12/31/18:00:10.811000,(-4 -3 -6 -15 5 0 -3 -2)
1969/12/31/18:00:10.811000,(1 3 11 26 24 7 0 1)
1969/12/31/18:00:10.812000,(0 0 2 0 -1 4 2 -1)
1969/12/31/18:00:10.812000,(2 1 -1 11 -1 0 1 3)
1969/12/31/18:00:10.834000,(1 -2 -9 -13 -11 -2 0 0)
1969/12/31/18:00:10.834000,(-2 -6 -9 -26 -18 -4 -2 -2)
1969/12/31/18:00:10.835000,(0 0 2 14 8 -5 -4 -2)
1969/12/31/18:00:10.835000,(-4 -3 4 8 6 5 -1 -3)
1969/12/31/18:00:10.856000,(-1 -2 -2 -10 -5 0 0 -2)
1969/12/31/18:00:10.856000,(3 0 -1 -3 -5 0 2 1)
1969/12/31/18:00:10.857000,(0 2 2 5 0 4 5 0)
1969/12/31/18:00:10.857000,(3 2 -6 -5 -2 1 3 2)
1969/12/31/18:00:10.896000,(2 0 -3 -1 -1 2 0 2)
1969/12/31/18:00:10.896000,(-1 0 3 1 0 1 -2 -1)
1969/12/31/18:00:10.897000,(-2 0 3 0 -1 -1 -4 -3)
1969/12/31/18:00:10.897000,(-1 1 -2 -4 1 1 2 -2)
1969/12/31/18:00:10.898000,(2 2 1 0 -1 1 0 1)
1969/12/31/18:00:10.898000,(-2 1 1 1 -3 2 -2 0)
1969/12/31/18:00:10.902000,(0 -1 -1 -10 -3 0 0 1)
1969/12/31/18:00:10.902000,(1 0 0 1 4 1 0 -2)
1969/12/31/18:00:10.941000,(-2 0 0 2 0 -2 -1 1)
1969/12/31/18:00:10.941000,(-2 -2 -2 -4 -3 -5 -2 0)
1969/12/31/18:00:10.942000,(-2 -3 1 0 -1 -5 0 -2)
1969/12/31/18:00:10.942000,(-2 -1 0 6 2 1 0 0)
1969/12/31/18:00:10.943000,(1 -1 -2 -1 -2 -4 4 2)
1969/12/31/18:00:10.943000,(0 0 -2 -1 -2 -4 -5 -2)
1969/12/31/18:00:10.946000,(0 1 0 -3 -1 2 0 0)
1969/12/31/18:00:10.946000,(-1 -4 -14 -33 -10 -4 -2 -3)
1969/12/31/18:00:10.954000,(-1 1 3 9 7 0 -1 -2)
1969/12/31/18:00:10.954000,(1 3 14 45 18 7 0 -2)
1969/12/31/18:00:10.955000,(0 2 8 17 14 2 -1 -3)
1969/12/31/18:00:10.955000,(0 0 0 7 -6 1 0 -3)
1969/12/31/18:00:10.978000,(-4 -7 -9 -25 -9 -6 -3 -3)
1969/12/31/18:00:10.978000,(-2 -3 -8 -20 -8 -5 -1 -1)
1969/12/31/18:00:10.979000,(0 0 -1 -2 -7 -1 0 0)
1969/12/31/18:00:10.979000,(1 -1 1 0 3 0 -1 0)
1969/12/31/18:00:10.991000,(2 0 -2 -3 -4 0 0 0)
1969/12/31/18:00:10.991000,(1 0 -1 -2 0 2 0 -1)
1969/12/31/18:00:10.992000,(-1 -1 -3 -10 -16 1 -1 0)
1969/12/31/18:00:10.992000,(0 3 1 2 12 3 1 0)
1969/12/31/18:00:11.047000,(0 4 5 9 5 3 0 -3)
1969/12/31/18:00:11.047000,(-2 -2 -3 -2 -4 -3 -3 -2)
1969/12/31/18:00:11.048000,(-2 -2 -2 -4 1 -1 1 -1)
1969/12/31/18:00:11.048000,(-2 0 3 4 -2 1 -1 -1)
1969/12/31/18:00:11.068000,(1 0 -2 3 -2 1 -2 0)
1969/12/31/18:00:11.068000,(0 0 -3 -11 -4 -4 1 3)
1969/12/31/18:00:11.069000,(-2 -2 -1 -2 0 -2 0 0)
1969/12/31/18:00:11.069000,(-1 1 1 6 2 -3 0 0)
1969/12/31/18:00:11.071000,(-2 -1 -1 -1 -1 -3 -2 -1)
1969/12/31/18:00:11.071000,(-1 -1 -1 -7 -5 -1 0 0)
1969/12/31/18:00:11.083000,(-1 -1 2 -1 -8 -2 0 -1)
1969/12/31/18:00:11.083000,(0 1 1 7 12 0 0 -1)
1969/12/31/18:00:11.085000,(1 -1 -1 -2 -3 0 2 0)
1969/12/31/18:00:11.085000,(2 -1 -2 -3 1 -2 -1 0)
1969/12/31/18:00:11.086000,(0 0 -1 0 -1 -3 -1 -1)
1969/12/31/18:00:11.086000,(-1 -2 -1 -1 -3 -1 -1 -1)
1969/12/31/18:00:11.096000,(-1 0 -1 -2 0 -2 0 0)
1969/12/31/18:00:11.096000,(2 0 0 -1 -1 0 3 1)
1969/12/31/18:00:11.097000,(0 -1 0 0 4 -1 -3 -2)
1969/12/31/18:00:11.097000,(-1 -1 0 -1 -4 -2 1 -1)
1969/12/31/18:00:11.111000,(-1 0 0 2 2 -3 -3 1)
1969/12/31/18:00:11.111000,(-2 0 -1 -2 -2 0 0 -1)
1969/12/31/18:00:11.112000,(-1 -2 -1 -1 3 -1 -2 0)
1969/12/31/18:00:11.112000,(0 -2 0 2 1 1 1 0)
1969/12/31/18:00:11.134000,(-1 0 -1 1 -3 0 -2 -2)
1969/12/31/18:00:11.134000,(-2 -1 -1 -2 0 0 0 -1)
1969/12/31/18:00:11.135000,(0 -1 -1 1 1 1 -2 -1)
1969/12/31/18:00:11.135000,(0 0 1 1 -2 1 -2 0)
1969/12/31/18:00:11.175000,(2 1 -1 0 -1 -1 2 -1)
1969/12/31/18:00:11.175000,(0 -2 0 -1 -1 0 -2 -3)
1969/12/31/18:00:11.176000,(-1 1 -2 -1 1 0 2 -1)
1969/12/31/18:00:11.176000,(-1 -1 0 0 -3 -1 0 -2)
1969/12/31/18:00:11.181000,(0 -2 -1 -2 1 0 1 0)
1969/12/31/18:00:11.181000,(0 1 -1 -1 0 -1 -1 -1)
1969/12/31/18:00:11.182000,(-3 -2 0 0 0 -2 -3 -4)
1969/12/31/18:00:11.182000,(5 2 1 -2 -3 2 4 7)
1969/12/31/18:00:11.210000,(0 0 1 0 -1 2 -1 2)
1969/12/31/18:00:11.210000,(-1 -3 0 1 -1 0 -2 -1)
1969/12/31/18:00:11.210000,(-2 0 -1 -2 0 1 0 -1)
1969/12/31/18:00:11.210000,(-2 -1 -2 1 1 -2 -4 -3)
1969/12/31/18:00:11.217000,(-2 -1 -2 0 0 -2 -1 -1)
1969/12/31/18:00:11.217000,(0 0 0 1 -2 0 2 0)
1969/12/31/18:00:11.218000,(0 -1 -1 0 0 -2 -2 1)
1969/12/31/18:00:11.218000,(-2 0 -1 1 0 -1 -2 -2)
1969/12/31/18:00:11.232000,(1 -1 -1 0 -1 0 -2 0)
1969/12/31/18:00:11.232000,(-1 0 -2 -2 -5 -2 -2 -3)
1969/12/31/18:00:11.233000,(0 -3 -13 -22 -2 -6 -1 0)
1969/12/31/18:00:11.233000,(0 -8 -29 -60 -15 -7 -1 -1)
1969/12/31/18:00:11.254000,(0 0 4 -9 -8 0 1 0)
1969/12/31/18:00:11.254000,(3 12 45 99 48 13 3 2)
1969/12/31/18:00:11.255000,(0 5 30 64 25 11 2 -1)
1969/12/31/18:00:11.255000,(-1 -1 4 13 3 1 -1 0)
1969/12/31/18:00:11.323000,(-2 -7 -18 -43 -14 -5 -2 -2)
1969/12/31/18:00:11.323000,(-1 -8 -30 -65 -41 -13 -3 1)
1969/12/31/18:00:11.323000,(7 4 7 17 28 -13 -1 3)
1969/12/31/18:00:11.323000,(-5 -11 -42 -69 -29 -3 1 -1)
1969/12/31/18:00:11.324000,(6 10 40 34 14 -4 -3 1)
1969/12/31/18:00:11.324000,(-4 7 30 98 -1 7 2 -3)
1969/12/31/18:00:11.325000,(0 -11 -25 -34 14 -1 0 3)
1969/12/31/18:00:11.325000,(-11 -5 -3 -34 -43 -9 -4 -7)
1969/12/31/18:00:11.328000,(10 2 0 74 72 14 7 8)
1969/12/31/18:00:11.328000,(-11 -14 -24 -85 -21 -12 -10 -11)
1969/12/31/18:00:11.351000,(-7 -1 2 -19 -30 -13 -8 -6)
1969/12/31/18:00:11.351000,(8 9 -8 19 -39 -4 6 5)
1969/12/31/18:00:11.351000,(7 1 -11 -33 -7 7 4 6)
1969/12/31/18:00:11.351000,(-1 -1 27 39 52 12 0 -3)
1969/12/31/18:00:11.366000,(-13 -12 -25 -23 -32 -11 -8 -10)
1969/12/31/18:00:11.366000,(5 2 7 3 11 4 2 6)
1969/12/31/18:00:11.367000,(0 4 16 9 2 10 2 -1)
1969/12/31/18:00:11.367000,(6 -1 -14 42 14 -2 -2 3)
1969/12/31/18:00:11.380000,(1 3 -1 -62 -28 -3 -3 0)
1969/12/31/18:00:11.380000,(6 4 19 41 26 10 5 5)
1969/12/31/18:00:11.395000,(-3 -2 3 36 8 5 -3 -3)
1969/12/31/18:00:11.395000,(-3 -4 -18 -50 -14 -9 -6 -2)
1969/12/31/18:00:11.404000,(0 0 -3 1 -5 -3 3 4)
1969/12/31/18:00:11.404000,(-3 1 10 6 10 0 -3 -2)
1969/12/31/18:00:11.404000,(0 0 -11 -21 -8 -3 -1 1)
1969/12/31/18:00:11.404000,(-2 -2 -2 -4 -1 -9 -7 -1)
1969/12/31/18:00:11.426000,(-1 2 4 13 -2 4 4 1)
1969/12/31/18:00:11.426000,(0 2 2 17 9 0 4 0)
1969/12/31/18:00:11.427000,(-3 -4 -13 -23 -8 -5 0 -3)
1969/12/31/18:00:11.427000,(1 1 3 -6 -8 -4 0 0)
1969/12/31/18:00:11.457000,(0 -2 7 31 8 5 1 -1)
1969/12/31/18:00:11.457000,(3 2 -3 -9 5 1 0 1)
1969/12/31/18:00:11.457000,(0 -1 -5 -12 -6 1 -1 0)
1969/12/31/18:00:11.457000,(3 2 8 4 1 2 1 2)
1969/12/31/18:00:11.464000,(-4 -2 0 15 3 3 -2 -4)
1969/12/31/18:00:11.464000,(4 1 -3 -18 -2 1 2 3)
1969/12/31/18:00:11.464000,(0 -1 2 -6 -4 4 1 -1)
1969/12/31/18:00:11.464000,(-4 -3 3 13 3 -1 -1 -4)
1969/12/31/18:00:11.477000,(0 -1 -3 -7 -3 1 2 0)
1969/12/31/18:00:11.477000,(-2 -1 1 -5 1 0 -1 -2)
1969/12/31/18:00:11.485000,(0 0 0 4 1 0 0 1)
1969/12/31/18:00:11.485000,(2 0 -4 -7 -1 2 2 2)
1969/12/31/18:00:11.500000,(-3 -3 -2 3 0 0 -2 -4)
1969/12/31/18:00:11.500000,(0 -1 2 0 0 0 0 0)
1969/12/31/18:00:11.509000,(-2 -1 -2 -2 -2 -5 -6 -5)
1969/12/31/18:00:11.509000,(0 -1 0 -2 -4 -4 -2 -1)
1969/12/31/18:00:11.524000,(3 3 -1 -1 -2 3 4 5)
1969/12/31/18:00:11.524000,(-1 0 1 6 13 5 1 0)
1969/12/31/18:00:11.525000,(-2 -1 -2 -1 1 0 -1 -1)
1969/12/31/18:00:11.525000,(-2 0 0 -7 -6 -4 -4 -2)
1969/12/31/18:00:11.546000,(-1 -1 1 8 -2 -5 -3 -2)
1969/12/31/18:00:11.546000,(1 0 -1 -7 -2 -2 1 1)
1969/12/31/18:00:11.548000,(-2 -3 -4 -3 1 3 2 0)
1969/12/31/18:00:11.548000,(1 0 -1 -4 -1 1 2 0)
1969/12/31/18:00:11.560000,(-5 -4 0 0 -5 -2 -3 -4)
1969/12/31/18:00:11.560000,(5 4 0 3 4 3 3 5)
1969/12/31/18:00:11.569000,(-6 -4 -5 -6 -4 -2 -4 -2)
1969/12/31/18:00:11.569000,(2 2 -1 -16 -2 3 1 2)
1969/12/31/18:00:11.592000,(0 0 10 29 12 3 -2 -2)
1969/12/31/18:00:11.592000,(-7 -4 -4 0 -2 -4 -4 -6)
1969/12/31/18:00:11.593000,(7 6 0 -11 -5 2 6 7)
1969/12/31/18:00:11.593000,(-6 -5 0 -3 -1 -1 -3 -1)
1969/12/31/18:00:11.606000,(0 -2 -6 -16 -19 -5 -1 -2)
1969/12/31/18:00:11.606000,(-2 -1 0 -8 9 -3 -2 -2)
1969/12/31/18:00:11.608000,(3 3 1 15 6 6 4 3)
1969/12/31/18:00:11.608000,(-1 1 4 13 14 1 1 -3)
1969/12/31/18:00:11.620000,(-5 -3 6 17 11 3 -2 -4)
1969/12/31/18:00:11.620000,(4 1 -4 -12 -11 -2 4 7)
1969/12/31/18:00:11.627000,(-6 -7 -23 -73 -24 -9 -6 -6)
1969/12/31/18:00:11.627000,(0 -5 -20 -24 -21 -14 -3 0)
1969/12/31/18:00:11.644000,(4 9 33 47 6 5 5 5)
1969/12/31/18:00:11.644000,(-5 0 11 24 26 5 -3 -6)
1969/12/31/18:00:11.645000,(-1 2 16 49 19 7 0 2)
1969/12/31/18:00:11.645000,(3 2 0 12 11 4 4 4)
1969/12/31/18:00:11.674000,(-1 -9 -33 -50 -27 -11 -2 1)
1969/12/31/18:00:11.674000,(-2 -2 3 17 -10 -8 -4 -3)
1969/12/31/18:00:11.675000,(-6 -4 9 16 4 -5 -5 -7)
1969/12/31/18:00:11.675000,(-2 1 4 3 5 2 -1 -1)
1969/12/31/18:00:11.680000,(10 0 -8 -6 1 3 8 12)
1969/12/31/18:00:11.680000,(-8 5 3 -19 -2 8 5 -7)
1969/12/31/18:00:11.687000,(8 -4 -18 -12 -7 -2 -1 4)
1969/12/31/18:00:11.687000,(-6 -2 3 -4 -8 -5 -8 -6)
1969/12/31/18:00:11.704000,(-2 1 -3 -20 0 1 -1 -2)
1969/12/31/18:00:11.704000,(-2 -7 -10 -19 -8 0 -3 -2)
1969/12/31/18:00:11.705000,(2 1 -8 -19 -7 1 7 3)
1969/12/31/18:00:11.705000,(1 2 15 37 1 0 0 1)
1969/12/31/18:00:11.734000,(-1 6 25 49 21 6 3 -1)
1969/12/31/18:00:11.734000,(10 3 4 40 9 2 3 10)
1969/12/31/18:00:11.736000,(-19 -4 -8 -46 -26 -28 -29 -24)
1969/12/31/18:00:11.736000,(-8 -10 -11 -21 -5 -12 -10 -7)
1969/12/31/18:00:11.740000,(15 11 9 45 7 8 11 12)
1969/12/31/18:00:11.740000,(-9 3 14 39 19 6 -1 -6)
1969/12/31/18:00:11.749000,(-3 -5 0 17 9 4 3 1)
1969/12/31/18:00:11.749000,(-14 -13 -20 -43 -13 -8 -6 -6)
1969/12/31/18:00:11.764000,(1 -9 -18 -44 -19 -14 -2 0)
1969/12/31/18:00:11.764000,(-10 0 -5 -16 -9 -6 -9 -18)
1969/12/31/18:00:11.765000,(15 1 -12 -10 -10 -12 -14 0)
1969/12/31/18:00:11.765000,(0 5 5 5 2 6 2 -4)
1969/12/31/18:00:11.786000,(-13 -9 -6 -11 1 2 3 4)
1969/12/31/18:00:11.786000,(-37 -19 -32 -69 -9 -2 -2 -10)
1969/12/31/18:00:11.788000,(9 9 18 53 3 6 5 1)
1969/12/31/18:00:11.788000,(32 13 25 31 1 3 -3 -3)
1969/12/31/18:00:11.800000,(-26 0 23 50 18 12 14 -1)
1969/12/31/18:00:11.800000,(-35 -9 5 -15 -6 -14 -31 -43)
1969/12/31/18:00:11.808000,(-5 -12 -10 -10 3 5 8 8)
1969/12/31/18:00:11.809000,(0 -2 -15 -18 -5 -2 1 11)
1969/12/31/18:00:11.824000,(-6 0 -5 -13 5 3 -4 -17)
1969/12/31/18:00:11.824000,(21 14 8 13 2 7 9 12)
1969/12/31/18:00:11.825000,(3 -4 -19 -92 -19 6 13 13)
1969/12/31/18:00:11.825000,(-22 -12 -36 -62 -15 -8 -4 -9)
1969/12/31/18:00:11.846000,(11 11 27 57 -3 -2 -5 0)
1969/12/31/18:00:11.846000,(9 4 35 93 17 4 5 13)
1969/12/31/18:00:11.848000,(-17 7 37 70 39 5 -9 -18)
1969/12/31/18:00:11.848000,(2 0 -8 -26 0 7 10 9)
1969/12/31/18:00:11.869000,(10 -9 -50 -106 -43 -17 -10 0)
1969/12/31/18:00:11.869000,(20 0 -10 -10 -8 -3 6 17)
1969/12/31/18:00:11.870000,(-1 5 12 16 1 4 4 2)
1969/12/31/18:00:11.870000,(6 3 11 44 28 11 4 1)
1969/12/31/18:00:11.883000,(2 -10 -47 -85 -4 4 1 2)
1969/12/31/18:00:11.883000,(0 -6 3 18 -16 -10 -3 5)
1969/12/31/18:00:11.885000,(14 12 30 55 -1 7 15 21)
1969/12/31/18:00:11.885000,(-49 -17 23 41 3 -9 -23 -43)
1969/12/31/18:00:11.907000,(29 15 -2 -11 -7 -9 -9 7)
1969/12/31/18:00:11.907000,(-18 -9 -20 -47 -1 4 1 -7)
1969/12/31/18:00:11.909000,(13 -2 -28 -35 -8 -7 1 4)
1969/12/31/18:00:11.909000,(23 8 7 12 -4 6 6 14)
1969/12/31/18:00:11.919000,(7 4 -1 8 1 -7 -10 -12)
1969/12/31/18:00:11.919000,(40 3 -17 -17 -1 -5 4 22)
1969/12/31/18:00:11.928000,(12 4 5 3 -13 -5 1 12)
1969/12/31/18:00:11.928000,(-7 8 8 9 2 5 3 -3)
1969/12/31/18:00:11.951000,(20 9 11 9 13 6 16 26)
1969/12/31/18:00:11.951000,(32 -2 -2 -1 0 5 10 24)
1969/12/31/18:00:11.952000,(-14 -2 0 4 -2 -7 -12 -14)
1969/12/31/18:00:11.952000,(35 -4 -7 -9 -1 2 19 41)
1969/12/31/18:00:11.966000,(-37 -20 -15 -41 -23 -13 -18 -27)
1969/12/31/18:00:11.966000,(-10 1 4 29 2 2 1 -4)
1969/12/31/18:00:11.967000,(-23 -8 -14 1 17 8 3 -6)
1969/12/31/18:00:11.967000,(2 2 8 11 15 19 24 19)
1969/12/31/18:00:11.979000,(11 4 7 -14 3 2 -1 5)
1969/12/31/18:00:11.979000,(36 35 37 45 17 13 15 18)
1969/12/31/18:00:12.013000,(8 1 10 18 3 3 -5 -11)
1969/12/31/18:00:12.013000,(26 11 -6 1 -10 -20 -19 1)
1969/12/31/18:00:12.014000,(-12 -7 -3 -3 4 0 3 -7)
1969/12/31/18:00:12.014000,(-42 -31 -21 -46 -17 7 21 9)
1969/12/31/18:00:12.017000,(3 -15 -17 -18 -1 2 -8 -19)
1969/12/31/18:00:12.017000,(-11 1 2 1 -4 -4 -6 -11)
1969/12/31/18:00:12.026000,(-9 -6 7 17 4 -3 -4 4)
1969/12/31/18:00:12.026000,(-9 -11 -13 -21 -10 -16 -22 -25)
1969/12/31/18:00:12.027000,(-27 -20 4 8 2 -1 5 5)
1969/12/31/18:00:12.027000,(64 40 3 -7 -7 -7 -4 9)
1969/12/31/18:00:12.040000,(-38 -20 0 18 8 5 -1 -12)
1969/12/31/18:00:12.040000,(7 11 0 -3 -6 -13 -19 -15)
1969/12/31/18:00:12.048000,(-9 -5 0 -6 -2 0 -2 -8)
1969/12/31/18:00:12.049000,(-19 -8 -2 0 -1 5 9 -1)
1969/12/31/18:00:12.063000,(12 13 0 2 13 10 19 22)
1969/12/31/18:00:12.063000,(7 5 6 -1 -7 9 9 10)
1969/12/31/18:00:12.065000,(18 10 6 11 4 2 8 23)
1969/12/31/18:00:12.065000,(-33 -20 -9 -7 -12 -22 -25 -33)
1969/12/31/18:00:12.086000,(-12 -18 4 9 11 3 6 11)
1969/12/31/18:00:12.086000,(-24 -19 -13 -11 0 -2 -12 -20)
1969/12/31/18:00:12.088000,(57 35 4 -7 -2 -3 -2 11)
1969/12/31/18:00:12.088000,(-10 2 3 4 9 13 11 4)
1969/12/31/18:00:12.100000,(-4 0 5 10 -5 -6 -8 -9)
1969/12/31/18:00:12.100000,(-2 4 -3 -21 -9 -6 -6 7)
1969/12/31/18:00:12.109000,(-1 -4 -7 3 -6 -2 10 1)
1969/12/31/18:00:12.109000,(-12 -9 5 9 6 5 11 6)
1969/12/31/18:00:12.124000,(14 11 3 -6 4 1 -5 -4)
1969/12/31/18:00:12.124000,(52 25 11 21 12 3 9 23)
1969/12/31/18:00:12.125000,(-18 0 8 12 -3 -6 -11 -10)
1969/12/31/18:00:12.125000,(-27 -17 -4 -12 -6 -3 -5 -13)
1969/12/31/18:00:12.147000,(-13 -12 -16 -7 -8 0 4 -2)
1969/12/31/18:00:12.147000,(68 39 0 -4 -2 -6 -2 13)
1969/12/31/18:00:12.148000,(-2 0 -8 -27 8 4 10 12)
1969/12/31/18:00:12.148000,(39 21 4 13 -10 5 8 16)
1969/12/31/18:00:12.160000,(16 14 10 18 2 -10 -15 -9)
1969/12/31/18:00:12.160000,(-1 -9 2 -17 4 9 14 14)
1969/12/31/18:00:12.176000,(-1 -4 -19 -23 -11 -5 1 2)
1969/12/31/18:00:12.176000,(-14 -9 4 18 4 -5 -10 -12)
1969/12/31/18:00:12.184000,(5 5 -12 -16 1 3 4 1)
1969/12/31/18:00:12.184000,(-23 -8 14 30 14 6 7 0)
1969/12/31/18:00:12.185000,(-25 -15 -7 -33 -17 -9 -16 -24)
1969/12/31/18:00:12.185000,(-13 -5 3 14 -3 -5 -11 -17)
1969/12/31/18:00:12.206000,(30 10 12 34 0 -2 -2 1)
1969/12/31/18:00:12.206000,(-23 -14 -7 7 34 -3 -11 -14)
1969/12/31/18:00:12.208000,(-35 -19 10 20 0 3 -6 -11)
1969/12/31/18:00:12.208000,(-13 -10 -4 -24 -30 2 5 -3)
1969/12/31/18:00:12.220000,(24 19 8 -6 -4 -7 1 10)
1969/12/31/18:00:12.220000,(-32 -24 -27 -31 -16 -10 -17 -29)
1969/12/31/18:00:12.229000,(9 -4 -11 -14 13 -4 -4 2)
1969/12/31/18:00:12.229000,(-13 -1 -19 -23 8 9 12 4)
1969/12/31/18:00:12.244000,(-6 2 9 10 -15 -2 -4 -4)
1969/12/31/18:00:12.244000,(7 10 28 62 15 8 4 1)
1969/12/31/18:00:12.245000,(-9 -6 -30 -67 -21 -17 -17 -9)
1969/12/31/18:00:12.245000,(12 -1 2 5 10 -5 -4 6)
1969/12/31/18:00:12.290000,(-3 -4 -1 8 27 10 2 0)
1969/12/31/18:00:12.290000,(17 21 21 30 -21 -2 2 13)
1969/12/31/18:00:12.292000,(47 47 20 44 9 23 37 45)
1969/12/31/18:00:12.292000,(-34 -30 -17 -34 -4 -27 -45 -43)
1969/12/31/18:00:12.292000,(-40 -23 -14 3 0 -8 -14 -26)
1969/12/31/18:00:12.292000,(-8 -4 -13 -49 -6 -3 0 2)
1969/12/31/18:00:12.296000,(8 11 10 2 -9 3 6 2)
1969/12/31/18:00:12.296000,(27 19 -7 -3 7 7 19 34)
1969/12/31/18:00:12.304000,(4 -4 4 20 -13 2 0 1)
1969/12/31/18:00:12.304000,(-13 -18 -21 -33 -10 -9 -13 -13)
1969/12/31/18:00:12.305000,(-41 -18 17 7 8 0 -10 -30)
1969/12/31/18:00:12.305000,(-4 3 14 70 18 3 -3 -7)
1969/12/31/18:00:12.326000,(16 18 16 -13 12 11 18 21)
1969/12/31/18:00:12.326000,(31 15 2 -9 -19 -10 0 12)
1969/12/31/18:00:12.328000,(-1 0 2 10 9 10 11 2)
1969/12/31/18:00:12.328000,(-17 -9 1 0 -3 -7 -11 -15)
1969/12/31/18:00:12.340000,(-1 -4 4 21 24 8 8 10)
1969/12/31/18:00:12.340000,(25 19 -28 -83 -17 -6 -1 5)
1969/12/31/18:00:12.356000,(19 8 14 63 -16 3 7 14)
1969/12/31/18:00:12.356000,(-18 -12 -2 20 4 -4 -6 -10)
1969/12/31/18:00:12.363000,(3 -3 -3 -7 6 -5 -3 0)
1969/12/31/18:00:12.363000,(-32 -15 12 -1 -6 -3 -5 -16)
1969/12/31/18:00:12.370000,(-11 -8 12 35 22 -4 -13 -16)
1969/12/31/18:00:12.370000,(12 4 -17 -67 -18 5 6 8)
1969/12/31/18:00:12.386000,(1 8 -5 -5 -5 3 3 1)
1969/12/31/18:00:12.386000,(-3 -5 -13 6 19 16 17 14)
1969/12/31/18:00:12.388000,(-5 -9 -41 -116 -40 -11 -6 -9)
1969/12/31/18:00:12.388000,(18 11 26 55 -1 1 6 16)
1969/12/31/18:00:12.400000,(-13 -3 17 31 8 -8 -14 -19)
1969/12/31/18:00:12.400000,(-30 -18 1 20 8 2 -7 -18)
1969/12/31/18:00:12.425000,(2 -4 4 31 36 6 5 8)
1969/12/31/18:00:12.425000,(14 16 -5 -15 -19 -1 0 3)
1969/12/31/18:00:12.426000,(-2 5 6 11 8 5 8 7)
1969/12/31/18:00:12.426000,(-4 0 17 28 -20 -3 1 -1)
1969/12/31/18:00:12.430000,(15 6 -21 -52 -8 -10 -8 3)
1969/12/31/18:00:12.430000,(-13 -10 -15 -43 9 5 3 -3)
1969/12/31/18:00:12.446000,(-3 -7 3 25 -6 -4 -3 -3)
1969/12/31/18:00:12.446000,(-21 -4 3 -8 8 5 1 -5)
1969/12/31/18:00:12.448000,(2 3 3 29 9 -4 -5 -4)
1969/12/31/18:00:12.448000,(16 8 3 -11 -4 0 9 15)
1969/12/31/18:00:12.460000,(1 -1 -4 7 -11 -6 -10 -8)
1969/12/31/18:00:12.460000,(-5 -3 -3 4 11 3 1 -3)
1969/12/31/18:00:12.469000,(-6 -9 -11 -16 -11 0 2 -2)
1969/12/31/18:00:12.469000,(5 2 7 32 9 3 1 1)
1969/12/31/18:00:12.483000,(-21 -9 1 -17 -14 -2 -2 -6)
1969/12/31/18:00:12.483000,(-8 -6 -7 10 -2 -8 -10 -16)
1969/12/31/18:00:12.490000,(-24 -1 12 -3 2 14 19 13)
1969/12/31/18:00:12.490000,(27 7 -7 -17 3 1 2 5)
1969/12/31/18:00:12.506000,(4 -4 -16 -22 -8 -7 -6 1)
1969/12/31/18:00:12.506000,(-1 -2 -13 -5 0 -4 -3 0)
1969/12/31/18:00:12.508000,(12 4 6 -38 -25 -8 -6 0)
1969/12/31/18:00:12.508000,(-18 -1 8 -5 -1 -6 0 -1)
1969/12/31/18:00:12.529000,(-2 2 11 50 10 4 -1 -2)
1969/12/31/18:00:12.529000,(1 0 10 21 14 4 -3 -2)
1969/12/31/18:00:12.530000,(15 5 -5 7 10 6 3 8)
1969/12/31/18:00:12.530000,(-21 -18 -6 -6 -1 2 2 1)
1969/12/31/18:00:12.567000,(50 33 5 -23 0 9 16 20)
1969/12/31/18:00:12.567000,(-2 -1 -6 -1 -10 -13 -9 -5)
1969/12/31/18:00:12.569000,(-9 -7 -10 -7 -13 -14 -17 -12)
1969/12/31/18:00:12.569000,(-26 -2 11 3 7 16 13 -7)
1969/12/31/18:00:12.570000,(-26 -20 -18 -30 -13 -11 -15 -15)
1969/12/31/18:00:12.570000,(3 0 -2 -6 -1 4 7 8)
1969/12/31/18:00:12.574000,(3 1 10 34 6 -5 -9 -8)
1969/12/31/18:00:12.574000,(7 1 2 5 2 -2 0 6)
1969/12/31/18:00:12.589000,(-24 -22 -20 -54 -14 0 1 2)
1969/12/31/18:00:12.589000,(31 15 -17 -45 -8 0 -2 -3)
1969/12/31/18:00:12.590000,(-9 -1 28 94 13 1 0 -4)
1969/12/31/18:00:12.590000,(9 11 24 60 22 2 -5 -2)
1969/12/31/18:00:12.603000,(-20 -13 -3 -1 2 -4 -5 -11)
1969/12/31/18:00:12.603000,(7 -12 -15 -38 -25 -15 -13 -5)
1969/12/31/18:00:12.610000,(-26 -3 -4 -17 8 18 19 5)
1969/12/31/18:00:12.610000,(6 -6 -19 -24 -15 -17 -22 -16)
1969/12/31/18:00:12.626000,(-9 -6 -9 -6 -9 -7 -10 -12)
1969/12/31/18:00:12.626000,(-1 -4 0 5 -5 -8 -3 1)
1969/12/31/18:00:12.628000,(-22 -15 1 4 2 -2 -3 -7)
1969/12/31/18:00:12.628000,(-3 -1 -17 -46 -14 1 6 5)
1969/12/31/18:00:12.649000,(-7 1 7 11 6 -1 -1 -5)
1969/12/31/18:00:12.649000,(11 11 26 48 14 9 7 7)
1969/12/31/18:00:12.650000,(-5 0 7 23 9 4 -1 -8)
1969/12/31/18:00:12.650000,(-5 -6 -1 -11 -3 -6 -8 -6)
1969/12/31/18:00:12.662000,(2 6 -2 -12 -7 -4 -4 -8)
1969/12/31/18:00:12.662000,(-8 1 7 8 7 16 31 38)
1969/12/31/18:00:12.671000,(37 14 -10 -6 -2 -5 -11 -12)
1969/12/31/18:00:12.671000,(19 0 -12 -14 -6 3 9 20)
1969/12/31/18:00:12.701000,(-7 -3 -12 -33 -5 1 8 6)
1969/12/31/18:00:12.701000,(-30 -18 0 5 -13 -15 -21 -20)
1969/12/31/18:00:12.703000,(-8 -6 0 24 8 -8 -9 -9)
1969/12/31/18:00:12.703000,(16 17 19 15 1 9 5 5)
1969/12/31/18:00:12.709000,(-41 -27 -4 9 6 2 -1 -6)
1969/12/31/18:00:12.709000,(15 4 -11 -19 -7 -13 -19 -20)
1969/12/31/18:00:12.710000,(5 -5 -13 -19 2 7 11 17)
1969/12/31/18:00:12.710000,(-7 -7 -15 -25 -12 -10 -11 -15)
1969/12/31/18:00:12.722000,(7 6 16 33 5 4 7 10)
1969/12/31/18:00:12.722000,(1 7 9 26 7 0 0 1)
1969/12/31/18:00:12.731000,(3 0 7 -5 2 7 6 -2)
1969/12/31/18:00:12.731000,(-5 4 6 17 9 -3 -1 7)
1969/12/31/18:00:12.746000,(15 9 -5 -16 -3 9 7 3)
1969/12/31/18:00:12.746000,(13 4 -5 -9 -4 -9 -3 10)
1969/12/31/18:00:12.748000,(-2 -7 -2 -11 -7 -5 -8 -9)
1969/12/31/18:00:12.748000,(-16 -14 0 1 0 7 14 8)
1969/12/31/18:00:12.769000,(58 29 -4 -9 6 6 9 18)
1969/12/31/18:00:12.769000,(41 18 4 27 3 -1 -2 -4)
1969/12/31/18:00:12.770000,(-33 -20 -15 -11 -1 -8 -13 -16)
1969/12/31/18:00:12.770000,(10 -2 -11 -36 -18 -1 6 10)
1969/12/31/18:00:12.782000,(-5 0 23 63 1 -8 -7 -5)
1969/12/31/18:00:12.782000,(-44 -24 13 34 24 15 19 23)
1969/12/31/18:00:12.791000,(-20 -1 -10 -17 -7 -17 -30 -44)
1969/12/31/18:00:12.791000,(15 4 -12 2 13 11 13 15)
1969/12/31/18:00:12.806000,(1 -4 -15 -61 -24 -13 -13 -3)
1969/12/31/18:00:12.806000,(-2 0 -1 0 1 11 14 14)
1969/12/31/18:00:12.808000,(4 8 8 8 3 6 11 19)
1969/12/31/18:00:12.808000,(25 26 10 9 1 -2 -2 10)
1969/12/31/18:00:12.845000,(-40 -26 -12 -14 -14 -15 -26 -42)
1969/12/31/18:00:12.845000,(-48 -18 2 -4 6 16 11 -16)
1969/12/31/18:00:12.846000,(51 15 13 2 5 11 30 62)
1969/12/31/18:00:12.846000,(10 16 -11 3 -3 -8 -14 -22)
1969/12/31/18:00:12.847000,(-6 -6 1 1 2 7 5 6)
1969/12/31/18:00:12.847000,(1 -1 -12 -20 -9 -9 -9 -12)
1969/12/31/18:00:12.851000,(1 0 -4 -15 -8 3 7 8)
1969/12/31/18:00:12.851000,(-14 -4 32 69 16 7 3 0)
1969/12/31/18:00:12.866000,(-6 0 9 27 18 -2 -6 -6)
1969/12/31/18:00:12.866000,(-3 9 -3 -10 -14 -7 -9 -3)
1969/12/31/18:00:12.868000,(-9 -8 -22 -49 -14 -5 0 -6)
1969/12/31/18:00:12.868000,(-3 -12 -7 -20 -12 -4 -4 -3)
1969/12/31/18:00:12.888000,(12 15 8 27 7 0 -2 -2)
1969/12/31/18:00:12.889000,(-8 -19 -4 4 1 -5 -6 -8)
1969/12/31/18:00:12.890000,(82 66 12 13 11 15 25 48)
1969/12/31/18:00:12.890000,(-36 -24 -19 -29 -14 -26 -38 -46)
1969/12/31/18:00:12.902000,(-8 -13 -9 -19 -6 3 12 9)
1969/12/31/18:00:12.902000,(25 13 1 -12 -3 2 3 13)
1969/12/31/18:00:12.911000,(-9 -13 -2 5 -1 -2 -6 -5)
1969/12/31/18:00:12.911000,(-8 -1 7 17 8 6 7 2)
1969/12/31/18:00:12.926000,(23 10 7 -11 3 9 15 29)
1969/12/31/18:00:12.926000,(-11 -10 -8 -6 -2 0 -3 -7)
1969/12/31/18:00:12.928000,(-13 -8 -1 1 -11 -8 -11 -17)
1969/12/31/18:00:12.928000,(8 2 -9 -30 -5 5 9 12)
1969/12/31/18:00:12.949000,(-2 -1 4 33 3 -1 -3 -1)
1969/12/31/18:00:12.949000,(-1 6 14 12 18 4 -1 -4)
1969/12/31/18:00:12.950000,(-27 -25 0 19 3 -9 -15 -18)
1969/12/31/18:00:12.950000,(-62 -26 4 14 3 -7 -25 -43)
1969/12/31/18:00:12.978000,(-2 -4 -23 -49 -24 -5 2 0)
1969/12/31/18:00:12.978000,(10 9 -3 -23 -14 1 9 9)
1969/12/31/18:00:12.980000,(-17 -10 5 27 9 -7 -14 -23)
1969/12/31/18:00:12.980000,(2 -2 14 33 29 5 0 3)
1969/12/31/18:00:12.986000,(47 38 10 11 17 20 19 19)
1969/12/31/18:00:12.986000,(-21 -21 -4 -1 -2 2 -3 -10)
1969/12/31/18:00:12.987000,(14 18 -7 -20 -16 -9 -5 -5)
1969/12/31/18:00:12.987000,(5 0 -1 -14 -6 4 13 23)
1969/12/31/18:00:13.009000,(-8 -11 -21 -34 -25 -8 0 1)
1969/12/31/18:00:13.009000,(4 -4 -16 -51 -43 -18 0 3)
1969/12/31/18:00:13.010000,(-6 1 14 52 36 14 3 -3)
1969/12/31/18:00:13.010000,(3 7 23 70 54 19 3 1)
1969/12/31/18:00:13.022000,(-14 -9 9 24 24 8 -9 -17)
1969/12/31/18:00:13.022000,(18 20 6 -6 -7 7 14 18)
1969/12/31/18:00:13.031000,(-15 -15 -16 -41 -39 -20 -15 -15)
1969/12/31/18:00:13.031000,(0 -1 -13 -25 -21 -7 2 -2)
1969/12/31/18:00:13.046000,(3 -1 -1 -3 7 1 4 10)
1969/12/31/18:00:13.046000,(-3 2 -5 1 1 -1 -6 -14)
1969/12/31/18:00:13.048000,(7 2 -1 -4 -6 -5 0 11)
1969/12/31/18:00:13.048000,(-2 -6 -11 -18 -10 -3 0 -1)
1969/12/31/18:00:13.069000,(23 25 2 -6 -3 -3 -2 0)
1969/12/31/18:00:13.069000,(0 2 9 29 16 8 5 5)
1969/12/31/18:00:13.070000,(-7 0 9 25 9 5 -2 -6)
1969/12/31/18:00:13.070000,(8 0 -6 -18 -5 -6 -1 1)
1969/12/31/18:00:13.082000,(-11 -8 -5 -18 -18 -4 2 6)
1969/12/31/18:00:13.082000,(17 7 3 9 2 1 -1 1)
1969/12/31/18:00:13.091000,(1 1 7 7 18 21 23 22)
1969/12/31/18:00:13.091000,(9 10 4 3 -6 -4 -1 4)
1969/12/31/18:00:13.122000,(-12 -10 -4 -6 -1 -10 -13 -18)
1969/12/31/18:00:13.122000,(19 10 2 17 15 11 12 19)
1969/12/31/18:00:13.123000,(-73 -48 -1 -7 -13 -15 -28 -49)
1969/12/31/18:00:13.123000,(-17 -15 -3 -6 -4 5 16 12)
1969/12/31/18:00:13.129000,(37 11 1 3 0 0 6 23)
1969/12/31/18:00:13.129000,(-33 -28 -16 -16 -11 -15 -21 -24)
1969/12/31/18:00:13.130000,(36 22 1 2 8 18 28 27)
1969/12/31/18:00:13.130000,(-5 -2 5 4 3 3 0 0)
1969/12/31/18:00:13.142000,(-17 -10 3 6 0 -7 -9 -10)
1969/12/31/18:00:13.142000,(-22 -6 7 9 5 -1 -4 -14)
1969/12/31/18:00:13.151000,(26 15 -1 -19 -9 -1 6 19)
1969/12/31/18:00:13.151000,(0 1 -5 -4 -8 -9 -10 -10)
1969/12/31/18:00:13.166000,(-2 -5 3 23 8 5 1 -4)
1969/12/31/18:00:13.166000,(11 8 0 -2 5 -1 -2 3)
1969/12/31/18:00:13.168000,(18 20 9 8 6 16 19 18)
1969/12/31/18:00:13.168000,(4 8 -4 -15 -13 -10 -8 -5)
1969/12/31/18:00:13.189000,(-14 -8 -7 -17 -6 -3 -3 -9)
1969/12/31/18:00:13.189000,(-22 -16 -9 4 12 0 -4 -13)
1969/12/31/18:00:13.190000,(0 -5 0 13 -4 0 -2 0)
1969/12/31/18:00:13.190000,(1 -1 6 17 -7 4 4 0)
1969/12/31/18:00:13.202000,(-4 3 11 19 11 -5 -6 -3)
1969/12/31/18:00:13.202000,(0 2 -4 -26 -8 -6 -7 -6)
1969/12/31/18:00:13.211000,(6 -2 -16 -31 -6 -6 -1 4)
1969/12/31/18:00:13.211000,(13 3 -2 16 8 7 6 7)
1969/12/31/18:00:13.226000,(-14 -7 -2 -6 -7 -3 -4 -10)
1969/12/31/18:00:13.226000,(7 2 -9 -23 -22 -7 -2 2)
1969/12/31/18:00:13.228000,(-7 -9 -25 -76 -54 -24 -11 -7)
1969/12/31/18:00:13.228000,(8 13 28 46 40 17 9 5)
1969/12/31/18:00:13.256000,(1 12 31 69 69 32 11 1)
1969/12/31/18:00:13.256000,(7 7 19 71 25 12 6 7)
1969/12/31/18:00:13.258000,(-22 -18 -9 6 -30 -26 -25 -23)
1969/12/31/18:00:13.258000,(1 0 -2 -46 -13 -9 -2 0)
1969/12/31/18:00:13.262000,(0 -10 -43 -43 -9 -7 -1 2)
1969/12/31/18:00:13.262000,(-2 -19 -46 -75 -10 4 4 2)
1969/12/31/18:00:13.271000,(-3 11 41 37 10 10 2 -2)
1969/12/31/18:00:13.271000,(5 5 5 30 -21 1 1 3)
1969/12/31/18:00:13.285000,(8 3 -16 14 9 -16 -8 5)
1969/12/31/18:00:13.285000,(-21 -22 -12 -20 -16 -20 -20 -23)
1969/12/31/18:00:13.292000,(8 12 10 -12 0 -2 3 6)
1969/12/31/18:00:13.292000,(5 11 20 -16 10 13 11 5)
1969/12/31/18:00:13.309000,(5 10 25 3 -10 11 9 5)
1969/12/31/18:00:13.309000,(7 -5 -43 9 14 6 6 9)
1969/12/31/18:00:13.310000,(-11 -26 -22 -7 4 -4 -8 -9)
1969/12/31/18:00:13.310000,(-7 7 27 10 1 2 -3 -8)
1969/12/31/18:00:13.322000,(8 12 10 0 -4 7 6 3)
1969/12/31/18:00:13.322000,(14 12 12 20 -1 -9 2 8)
1969/12/31/18:00:13.331000,(-13 -19 -19 -3 -3 -14 -13 -13)
1969/12/31/18:00:13.331000,(-2 -5 -23 -23 -14 -16 -9 1)
1969/12/31/18:00:13.345000,(-10 -4 1 -24 -16 -6 -6 -9)
1969/12/31/18:00:13.345000,(3 17 48 37 17 22 9 4)
1969/12/31/18:00:13.352000,(14 10 -8 21 24 14 11 12)
1969/12/31/18:00:13.352000,(-10 -31 -55 -18 6 -15 -10 -9)
1969/12/31/18:00:13.369000,(-13 -5 9 -5 -38 -7 -6 -7)
1969/12/31/18:00:13.369000,(4 12 8 16 11 -1 1 1)
1969/12/31/18:00:13.370000,(0 2 11 14 10 0 0 -1)
1969/12/31/18:00:13.370000,(1 3 7 -17 -4 -1 -2 -1)
1969/12/31/18:00:13.399000,(-2 -6 -19 -9 5 3 1 -1)
1969/12/31/18:00:13.399000,(4 7 20 -3 -6 6 7 3)
1969/12/31/18:00:13.401000,(3 9 7 3 7 0 -1 -1)
1969/12/31/18:00:13.401000,(0 -12 -33 -13 -5 -6 -4 0)
1969/12/31/18:00:13.405000,(-9 -16 -9 -16 -13 -8 -4 -7)
1969/12/31/18:00:13.405000,(-5 1 9 -2 -8 -6 -7 -6)
1969/12/31/18:00:13.412000,(1 -6 -15 3 6 -1 2 1)
1969/12/31/18:00:13.412000,(0 12 24 9 3 9 4 2)
1969/12/31/18:00:13.428000,(4 -1 3 27 11 3 4 5)
1969/12/31/18:00:13.428000,(-7 -9 -23 -59 -18 -12 -7 -6)
1969/12/31/18:00:13.430000,(9 12 18 22 6 4 5 6)
1969/12/31/18:00:13.430000,(6 16 44 47 5 2 -1 0)
1969/12/31/18:00:13.442000,(-5 -14 -42 -23 -7 -8 -8 -6)
1969/12/31/18:00:13.442000,(5 -1 -7 -49 -13 10 6 5)
1969/12/31/18:00:13.451000,(-3 -4 -13 40 12 -4 -4 -3)
1969/12/31/18:00:13.451000,(-3 -3 -2 -10 9 3 -1 -2)
1969/12/31/18:00:13.465000,(1 7 17 8 6 2 1 -1)
1969/12/31/18:00:13.465000,(2 4 9 5 0 5 3 2)
1969/12/31/18:00:13.472000,(3 1 2 -34 -11 5 3 -1)
1969/12/31/18:00:13.472000,(2 -2 -14 5 -1 -3 0 1)
1969/12/31/18:00:13.489000,(-1 -7 -4 -6 -5 -3 -1 0)
1969/12/31/18:00:13.489000,(-7 -6 -9 7 -2 -9 -5 -6)
1969/12/31/18:00:13.490000,(-2 5 13 -7 5 10 4 0)
1969/12/31/18:00:13.490000,(3 2 -5 7 0 -3 0 0)
1969/12/31/18:00:13.511000,(3 -2 0 -1 -1 -4 0 3)
1969/12/31/18:00:13.511000,(-9 -1 8 8 -7 -9 -7 -7)
1969/12/31/18:00:13.513000,(3 2 1 7 5 1 2 2)
1969/12/31/18:00:13.513000,(0 -2 -10 -21 -6 2 1 1)
1969/12/31/18:00:13.534000,(-2 0 5 -4 -1 0 -3 -1)
1969/12/31/18:00:13.534000,(-3 0 12 28 5 -3 -5 -2)
1969/12/31/18:00:13.536000,(-1 2 3 -8 -2 2 3 1)
1969/12/31/18:00:13.536000,(4 -2 -10 -10 -4 0 3 5)
1969/12/31/18:00:13.549000,(-7 -5 -6 -13 -8 -8 -6 -5)
1969/12/31/18:00:13.549000,(-1 -5 -4 27 10 -5 -2 -2)
1969/12/31/18:00:13.550000,(-5 2 9 14 6 -1 -4 -1)
1969/12/31/18:00:13.550000,(2 -7 -13 -2 -7 -2 0 2)
1969/12/31/18:00:13.571000,(1 3 -1 3 7 3 2 1)
1969/12/31/18:00:13.571000,(-2 0 9 1 6 1 -2 -3)
1969/12/31/18:00:13.573000,(-4 -3 -8 -8 -3 4 1 -2)
1969/12/31/18:00:13.573000,(0 -4 0 6 -6 -7 -4 1)
1969/12/31/18:00:13.586000,(-2 2 4 -14 0 -3 -4 -2)
1969/12/31/18:00:13.586000,(6 1 -14 -41 -26 -1 6 7)
1969/12/31/18:00:13.594000,(2 0 8 44 15 7 0 -1)
1969/12/31/18:00:13.594000,(-1 2 12 37 31 10 4 1)
1969/12/31/18:00:13.609000,(4 5 3 -2 -2 5 3 1)
1969/12/31/18:00:13.609000,(0 0 -2 9 4 2 -4 -1)
1969/12/31/18:00:13.611000,(4 -5 -22 -70 -26 -8 -2 4)
1969/12/31/18:00:13.611000,(0 0 2 11 -4 -1 0 -2)
1969/12/31/18:00:13.631000,(-3 -1 11 34 5 1 -3 0)
1969/12/31/18:00:13.631000,(0 2 0 12 10 9 9 1)
1969/12/31/18:00:13.633000,(-2 -3 -4 -12 -1 5 6 -2)
1969/12/31/18:00:13.633000,(2 3 -3 -29 -5 2 6 1)
1969/12/31/18:00:13.645000,(-2 3 3 -15 -5 5 6 0)
1969/12/31/18:00:13.645000,(0 -2 -2 -5 -4 0 -1 -2)
1969/12/31/18:00:13.678000,(-6 0 2 -3 -8 -2 -3 -3)
1969/12/31/18:00:13.678000,(-2 -6 -12 -26 3 -4 -2 -3)
1969/12/31/18:00:13.679000,(2 3 8 15 9 5 4 4)
1969/12/31/18:00:13.679000,(-3 0 6 9 6 -7 -2 -1)
1969/12/31/18:00:13.682000,(-3 -4 -2 7 7 -7 -6 -3)
1969/12/31/18:00:13.682000,(-6 -4 -2 -5 -12 -12 -8 -3)
1969/12/31/18:00:13.691000,(0 -3 -5 3 -4 -8 -6 -3)
1969/12/31/18:00:13.691000,(1 -1 -1 10 5 -6 -3 0)
1969/12/31/18:00:13.693000,(1 -3 -2 0 0 -5 -2 -1)
1969/12/31/18:00:13.693000,(-3 -1 -3 -4 -6 -2 -2 -3)
1969/12/31/18:00:13.721000,(-2 -2 -3 -4 -2 -3 -3 0)
1969/12/31/18:00:13.721000,(-1 0 1 6 3 -2 -3 2)
1969/12/31/18:00:13.723000,(-2 -2 -6 -5 -5 -6 0 0)
1969/12/31/18:00:13.723000,(5 2 -6 2 -5 1 3 5)
1969/12/31/18:00:13.729000,(-9 -8 8 6 14 -6 -8 -8)
1969/12/31/18:00:13.729000,(-3 0 7 1 0 0 0 -2)
1969/12/31/18:00:13.730000,(2 0 4 12 9 -1 -5 -2)
1969/12/31/18:00:13.730000,(-2 -2 -7 -12 -12 0 0 -1)
1969/12/31/18:00:13.730000,(0 0 -2 -4 1 2 1 2)
1969/12/31/18:00:13.730000,(0 -1 -4 -1 1 1 0 1)
1969/12/31/18:00:13.731000,(2 1 1 8 3 3 2 0)
1969/12/31/18:00:13.731000,(-1 -1 2 -1 0 -2 -1 -1)
1969/12/31/18:00:13.732000,(-1 -1 -1 0 1 1 -2 -3)
1969/12/31/18:00:13.732000,(-2 -2 1 -2 -2 -1 -1 -1)
1969/12/31/18:00:13.736000,(-3 -2 -3 -8 -1 0 -3 -2)
1969/12/31/18:00:13.736000,(6 1 2 2 -1 3 7 8)
1969/12/31/18:00:13.742000,(1 5 1 12 6 5 5 0)
1969/12/31/18:00:13.742000,(-4 -4 -4 -7 -4 -6 -6 -6)
1969/12/31/18:00:13.758000,(1 2 0 1 2 1 0 -2)
1969/12/31/18:00:13.758000,(-8 -5 -2 -3 -3 -4 -9 -9)
1969/12/31/18:00:13.764000,(5 0 -3 -4 0 0 3 5)
1969/12/31/18:00:13.764000,(-2 -2 1 6 4 0 -1 0)
1969/12/31/18:00:13.780000,(3 2 -2 -8 -3 1 3 5)
1969/12/31/18:00:13.780000,(-2 0 4 7 4 1 2 1)
1969/12/31/18:00:13.781000,(-2 -3 1 2 -3 -5 -6 -5)
1969/12/31/18:00:13.781000,(1 -1 -3 -6 1 0 1 0)
1969/12/31/18:00:13.803000,(-1 -3 1 0 -1 -2 -2 1)
1969/12/31/18:00:13.803000,(-6 -1 -5 -24 -11 -4 -1 -1)
1969/12/31/18:00:13.803000,(7 0 -8 -12 -8 0 1 1)
1969/12/31/18:00:13.803000,(1 1 2 -2 -1 1 2 1)
1969/12/31/18:00:13.833000,(2 3 12 30 10 2 1 3)
1969/12/31/18:00:13.833000,(0 -2 3 29 18 3 -1 -3)
1969/12/31/18:00:13.834000,(-6 -6 -23 -75 -40 -11 -6 -3)
1969/12/31/18:00:13.834000,(2 3 6 26 22 1 0 0)
1969/12/31/18:00:13.865000,(-1 3 21 68 22 5 0 -1)
1969/12/31/18:00:13.865000,(-1 -2 0 -3 2 2 2 -1)
1969/12/31/18:00:13.865000,(-3 0 13 24 13 0 -2 -3)
1969/12/31/18:00:13.865000,(11 0 -18 -53 -27 -3 5 9)
1969/12/31/18:00:13.867000,(-14 -7 -14 -45 -18 -9 -7 -13)
1969/12/31/18:00:13.867000,(-2 1 5 22 7 -1 0 -1)
1969/12/31/18:00:13.870000,(7 1 -2 -3 -2 -2 -3 2)
1969/12/31/18:00:13.870000,(-10 -8 -6 -7 -9 -6 -4 -4)
1969/12/31/18:00:13.885000,(13 10 4 2 8 6 9 6)
1969/12/31/18:00:13.885000,(-9 -9 -11 -19 -12 -8 -12 -9)
1969/12/31/18:00:13.885000,(5 5 -1 -30 -4 0 7 6)
1969/12/31/18:00:13.885000,(-11 -10 -28 -62 -17 -7 -7 -9)
1969/12/31/18:00:13.900000,(0 -3 -7 -19 -23 -7 1 4)
1969/12/31/18:00:13.900000,(10 11 23 77 22 10 11 9)
1969/12/31/18:00:13.901000,(0 10 69 127 50 8 1 -2)
1969/12/31/18:00:13.901000,(-5 8 42 73 39 5 -5 -7)
1969/12/31/18:00:13.914000,(-4 -9 -24 -73 -14 -4 -5 -3)
1969/12/31/18:00:13.914000,(2 -7 -41 -80 -30 -9 -6 -1)
1969/12/31/18:00:13.922000,(4 -6 -20 -24 -19 -4 6 11)
1969/12/31/18:00:13.922000,(-18 -5 -3 4 -4 -3 -1 -4)
1969/12/31/18:00:13.937000,(25 19 7 -1 12 16 17 11)
1969/12/31/18:00:13.937000,(-11 -8 -4 -9 -1 -3 -8 -12)
1969/12/31/18:00:13.944000,(-10 -13 -15 -17 -1 3 1 -1)
1969/12/31/18:00:13.944000,(13 8 2 -7 -9 -3 -9 -8)
1969/12/31/18:00:13.960000,(3 -3 -14 -40 -9 3 5 12)
1969/12/31/18:00:13.960000,(-8 -8 -16 6 -5 -3 -1 -3)
1969/12/31/18:00:13.961000,(3 8 22 48 -6 5 3 0)
1969/12/31/18:00:13.961000,(4 6 36 67 10 8 9 11)
1969/12/31/18:00:13.974000,(-4 3 30 63 25 -1 -7 -8)
1969/12/31/18:00:13.974000,(1 3 10 7 9 -1 -5 -6)
1969/12/31/18:00:13.998000,(-2 1 -8 -4 8 3 5 4)
1969/12/31/18:00:13.998000,(1 -7 -15 -17 -8 -7 -2 3)
1969/12/31/18:00:14.000000,(-18 -14 -17 -20 -13 -8 -6 -9)
1969/12/31/18:00:14.000000,(-39 -13 -8 -38 -10 -3 -1 -8)
1969/12/31/18:00:14.004000,(-19 -7 -12 -18 1 5 12 11)
1969/12/31/18:00:14.004000,(52 20 -9 -12 0 4 1 9)
1969/12/31/18:00:14.020000,(-10 -12 -13 -21 -12 -18 -24 -25)
1969/12/31/18:00:14.020000,(31 5 4 18 4 5 11 24)
1969/12/31/18:00:14.021000,(-3 4 -9 -51 -5 -1 -3 -6)
1969/12/31/18:00:14.021000,(-23 -19 -46 -57 -17 -5 2 0)
1969/12/31/18:00:14.051000,(-13 -2 30 84 13 4 -2 -8)
1969/12/31/18:00:14.051000,(0 9 13 -12 20 7 4 0)
1969/12/31/18:00:14.052000,(14 -2 -5 31 -9 -5 -6 -5)
1969/12/31/18:00:14.052000,(-8 -3 8 -2 5 -4 -4 -3)
1969/12/31/18:00:14.065000,(5 6 16 61 6 1 0 2)
1969/12/31/18:00:14.065000,(-2 0 16 24 0 -5 -7 -8)
1969/12/31/18:00:14.066000,(-9 -8 -14 -26 7 -3 -8 -7)
1969/12/31/18:00:14.066000,(0 -2 -15 -31 -10 2 4 4)
1969/12/31/18:00:14.088000,(-13 -4 -13 -29 -11 -4 -4 -4)
1969/12/31/18:00:14.088000,(22 10 11 19 3 5 6 12)
1969/12/31/18:00:14.089000,(8 1 -22 -68 -14 -2 0 3)
1969/12/31/18:00:14.089000,(-16 -8 12 36 0 -6 -10 -15)
1969/12/31/18:00:14.102000,(20 9 3 -16 1 10 21 32)
1969/12/31/18:00:14.102000,(-4 2 -4 -14 -7 -5 -10 -14)
1969/12/31/18:00:14.110000,(-5 -4 -9 4 -1 -7 -12 -15)
1969/12/31/18:00:14.110000,(-9 -7 7 13 9 8 10 9)
1969/12/31/18:00:14.141000,(54 28 11 16 7 7 9 13)
1969/12/31/18:00:14.141000,(-4 -4 -3 -10 -8 -6 -5 -2)
1969/12/31/18:00:14.142000,(-22 -5 11 26 4 -1 -7 -18)
1969/12/31/18:00:14.142000,(1 -4 -25 -66 -9 0 -2 -2)
1969/12/31/18:00:14.148000,(-14 -7 7 30 -8 -4 -4 -1)
1969/12/31/18:00:14.148000,(7 7 9 13 4 1 4 10)
1969/12/31/18:00:14.149000,(24 17 15 25 7 2 -3 -2)
1969/12/31/18:00:14.149000,(3 6 8 5 4 2 1 -1)
1969/12/31/18:00:14.162000,(-12 -15 -22 -34 -8 -8 -10 -13)
1969/12/31/18:00:14.162000,(8 18 3 1 -2 2 2 -1)
1969/12/31/18:00:14.170000,(-9 -12 -13 -44 -5 -2 0 6)
1969/12/31/18:00:14.170000,(3 8 16 41 3 4 5 5)
1969/12/31/18:00:14.185000,(-9 -3 9 15 1 -4 -6 -8)
1969/12/31/18:00:14.185000,(5 -3 0 6 -1 -3 -1 4)
1969/12/31/18:00:14.186000,(-6 -3 -4 -5 -2 -3 -2 -2)
1969/12/31/18:00:14.186000,(-6 -2 -3 -1 1 3 6 5)
1969/12/31/18:00:14.208000,(5 -1 -8 -14 -2 0 1 -1)
1969/12/31/18:00:14.208000,(-5 -7 -11 -8 -5 1 2 2)
1969/12/31/18:00:14.209000,(-7 -3 -1 -5 -3 -2 -2 -1)
1969/12/31/18:00:14.209000,(11 3 -4 -15 -6 -5 -5 -2)
1969/12/31/18:00:14.231000,(1 6 18 42 13 6 8 11)
1969/12/31/18:00:14.231000,(-7 -4 9 29 0 -2 -4 -6)
1969/12/31/18:00:14.232000,(8 2 10 20 8 4 2 2)
1969/12/31/18:00:14.232000,(-5 -9 -9 -12 -6 -7 -6 -5)
1969/12/31/18:00:14.245000,(8 2 -20 -43 1 9 14 15)
1969/12/31/18:00:14.245000,(1 0 -4 -25 -7 -6 -10 -11)
1969/12/31/18:00:14.246000,(-3 0 -1 11 -2 -2 -2 -2)
1969/12/31/18:00:14.246000,(-6 -4 0 11 -1 2 0 0)
1969/12/31/18:00:14.276000,(1 -6 -13 -25 -8 -12 -10 -5)
1969/12/31/18:00:14.276000,(-7 -7 -1 -1 0 2 2 -1)
1969/12/31/18:00:14.277000,(-2 -2 4 11 1 -4 -5 -3)
1969/12/31/18:00:14.277000,(7 8 4 6 2 1 5 4)
1969/12/31/18:00:14.291000,(-12 -9 -5 -8 -4 -5 -10 -10)
1969/12/31/18:00:14.291000,(-10 0 2 -3 4 8 10 6)
1969/12/31/18:00:14.292000,(-3 -3 -4 5 -5 -6 -8 -9)
1969/12/31/18:00:14.292000,(-2 4 0 -23 -2 2 6 1)
1969/12/31/18:00:14.305000,(-9 -4 6 29 2 -10 -12 -13)
1969/12/31/18:00:14.305000,(20 8 -1 -25 7 9 15 23)
1969/12/31/18:00:14.306000,(0 1 13 33 8 3 5 3)
1969/12/31/18:00:14.306000,(2 2 9 25 -12 1 1 2)
1969/12/31/18:00:14.328000,(-8 -3 -18 -68 -14 -4 -1 -2)
1969/12/31/18:00:14.328000,(-3 -6 8 38 -4 -8 -6 -6)
1969/12/31/18:00:14.329000,(-5 -1 9 40 10 -6 -4 -2)
1969/12/31/18:00:14.329000,(11 5 3 14 36 15 8 9)
1969/12/31/18:00:14.351000,(1 3 -4 -10 7 18 7 5)
1969/12/31/18:00:14.351000,(4 -2 -19 -74 -10 2 -2 0)
1969/12/31/18:00:14.351000,(-4 -4 -10 8 1 0 2 -4)
1969/12/31/18:00:14.351000,(-13 -3 24 42 -10 -12 -12 -14)
1969/12/31/18:00:14.365000,(13 15 9 -4 -6 -2 6 11)
1969/12/31/18:00:14.365000,(9 2 -13 -74 -23 -1 4 5)
1969/12/31/18:00:14.366000,(0 -7 -32 -13 -44 -12 -1 4)
1969/12/31/18:00:14.366000,(0 1 21 36 21 -5 -3 -1)
1969/12/31/18:00:14.388000,(-25 -12 26 57 45 9 -9 -18)
1969/12/31/18:00:14.388000,(8 8 -2 56 59 15 3 4)
1969/12/31/18:00:14.389000,(11 2 -11 -56 -4 19 14 13)
1969/12/31/18:00:14.389000,(-13 -12 -6 13 -63 -12 -10 -12)
1969/12/31/18:00:14.419000,(-3 2 13 6 -4 -13 -6 -4)
1969/12/31/18:00:14.419000,(3 3 6 41 -25 -21 -8 -3)
1969/12/31/18:00:14.420000,(0 -1 -6 10 61 5 -6 -3)
1969/12/31/18:00:14.420000,(4 5 -1 -3 4 9 4 2)
1969/12/31/18:00:14.425000,(-8 -6 -6 -13 -9 3 1 -5)
1969/12/31/18:00:14.425000,(-5 -6 -5 -5 16 2 2 -1)
1969/12/31/18:00:14.426000,(0 -2 -11 -27 -28 -4 3 4)
1969/12/31/18:00:14.426000,(7 5 -2 -22 -32 -3 0 6)
1969/12/31/18:00:14.448000,(-6 -1 24 40 13 -10 -10 -8)
1969/12/31/18:00:14.448000,(-11 -7 -23 -16 -1 5 -2 -8)
1969/12/31/18:00:14.450000,(-4 -3 26 40 13 -3 -1 -1)
1969/12/31/18:00:14.450000,(5 3 -18 -54 28 5 2 -1)
1969/12/31/18:00:14.471000,(14 2 -5 25 -24 -6 3 12)
1969/12/31/18:00:14.471000,(-45 -14 17 4 -4 -13 -27 -45)
1969/12/31/18:00:14.472000,(-17 -17 -23 -67 -20 -4 -7 -12)
1969/12/31/18:00:14.472000,(6 4 -8 1 -4 -3 4 8)
1969/12/31/18:00:14.484000,(10 6 -5 28 31 3 2 6)
1969/12/31/18:00:14.484000,(11 5 12 28 -9 3 2 7)
1969/12/31/18:00:14.493000,(6 8 15 6 6 7 5 5)
1969/12/31/18:00:14.493000,(-24 -23 -21 -41 -8 -9 -15 -18)
1969/12/31/18:00:14.508000,(6 1 -32 -73 -19 2 11 11)
1969/12/31/18:00:14.508000,(30 12 16 44 2 -6 5 23)
1969/12/31/18:00:14.510000,(5 9 30 31 -4 -12 -16 -15)
1969/12/31/18:00:14.510000,(2 1 -2 5 17 7 5 -4)
1969/12/31/18:00:14.531000,(-17 -15 -33 -58 -19 -5 -9 -16)
1969/12/31/18:00:14.531000,(7 -4 -6 4 -10 0 1 4)
1969/12/31/18:00:14.532000,(-1 -3 -13 -60 -11 -6 -4 0)
1969/12/31/18:00:14.532000,(1 4 12 33 22 4 6 9)
1969/12/31/18:00:14.554000,(4 4 18 50 -8 6 5 2)
1969/12/31/18:00:14.554000,(-13 -1 12 3 -6 -4 -3 -8)
1969/12/31/18:00:14.555000,(12 8 -2 -5 -1 2 7 15)
1969/12/31/18:00:14.555000,(-17 -11 -11 -15 9 -3 -7 -9)
1969/12/31/18:00:14.569000,(14 0 -17 -24 -6 -2 -4 2)
1969/12/31/18:00:14.569000,(-62 -7 15 28 7 8 5 -8)
1969/12/31/18:00:14.571000,(36 16 7 18 4 0 -3 3)
1969/12/31/18:00:14.571000,(-2 -5 -13 -22 -9 -5 -4 1)
1969/12/31/18:00:14.591000,(-6 -8 -3 -6 -4 -3 -1 0)
1969/12/31/18:00:14.591000,(-14 -9 -9 -25 -6 -3 -2 -5)
1969/12/31/18:00:14.592000,(-28 -14 -4 6 2 -1 -3 -9)
1969/12/31/18:00:14.592000,(12 5 2 8 -3 -3 -7 -6)
1969/12/31/18:00:14.604000,(-2 0 5 0 4 4 2 0)
1969/12/31/18:00:14.604000,(-1 -14 -14 -18 -6 -8 -7 -6)
1969/12/31/18:00:14.613000,(27 21 9 11 3 8 18 26)
1969/12/31/18:00:14.613000,(-5 -3 9 22 0 -7 -14 -17)
1969/12/31/18:00:14.628000,(-8 -2 -7 -29 -3 1 1 1)
1969/12/31/18:00:14.628000,(22 2 -23 -40 -5 0 3 5)
1969/12/31/18:00:14.630000,(-28 -19 8 55 0 -3 -4 -5)
1969/12/31/18:00:14.630000,(19 16 26 29 8 6 7 4)
1969/12/31/18:00:14.651000,(-42 -9 4 8 10 3 3 -7)
1969/12/31/18:00:14.651000,(28 8 -5 -19 1 9 10 11)
1969/12/31/18:00:14.652000,(-14 -8 -6 -11 -4 -5 -8 -14)
1969/12/31/18:00:14.652000,(-23 -4 -5 -8 0 8 11 10)
1969/12/31/18:00:14.664000,(38 11 -3 -15 -13 -21 -29 -21)
1969/12/31/18:00:14.664000,(11 4 6 10 0 -4 -2 7)
1969/12/31/18:00:14.698000,(-17 -4 2 0 2 2 -3 -9)
1969/12/31/18:00:14.698000,(17 2 -10 -14 -7 -5 -2 3)
1969/12/31/18:00:14.699000,(-18 -13 -3 -9 0 7 8 3)
1969/12/31/18:00:14.699000,(3 0 1 8 3 4 5 8)
1969/12/31/18:00:14.702000,(-13 0 6 17 7 3 -6 -25)
1969/12/31/18:00:14.702000,(40 16 2 -8 -10 -13 -12 11)
1969/12/31/18:00:14.711000,(-7 -7 -5 -9 -4 0 2 -3)
1969/12/31/18:00:14.711000,(32 8 -9 8 -5 -3 -3 11)
1969/12/31/18:00:14.712000,(-17 -6 -1 -30 -2 14 18 8)
1969/12/31/18:00:14.712000,(-15 -19 -5 19 7 3 5 2)
1969/12/31/18:00:14.724000,(-6 4 3 16 5 5 2 -2)
1969/12/31/18:00:14.724000,(-14 -5 4 -1 -4 -5 -13 -20)
1969/12/31/18:00:14.733000,(22 11 1 -1 3 0 5 17)
1969/12/31/18:00:14.733000,(-35 -26 -8 -10 -6 -7 -7 -13)
1969/12/31/18:00:14.748000,(52 29 4 -4 -5 11 15 27)
1969/12/31/18:00:14.748000,(-20 -16 -4 3 10 -1 -1 -11)
1969/12/31/18:00:14.750000,(-7 -8 -7 -19 -11 -7 -7 -14)
1969/12/31/18:00:14.750000,(13 9 -4 -20 -11 -1 2 11)
1969/12/31/18:00:14.771000,(-24 -14 8 27 12 -1 -1 -5)
1969/12/31/18:00:14.771000,(-12 -8 10 28 10 3 2 0)
1969/12/31/18:00:14.772000,(26 14 6 9 10 5 3 16)
1969/12/31/18:00:14.772000,(24 18 -1 -1 6 7 7 4)
1969/12/31/18:00:14.784000,(27 13 -14 -39 -25 -2 6 16)
1969/12/31/18:00:14.784000,(-15 -12 -7 -28 -11 -8 -7 -11)
1969/12/31/18:00:14.793000,(20 9 12 42 24 11 11 19)
1969/12/31/18:00:14.793000,(-14 -5 9 16 6 3 4 -2)
1969/12/31/18:00:14.808000,(-6 -6 4 11 5 4 3 3)
1969/12/31/18:00:14.808000,(24 7 -17 -53 -9 -1 0 9)
1969/12/31/18:00:14.831000,(-37 -26 -6 -13 -26 -5 -3 -11)
1969/12/31/18:00:14.831000,(3 5 -2 0 -16 -9 -5 -8)
1969/12/31/18:00:14.832000,(0 -3 6 17 39 3 0 -3)
1969/12/31/18:00:14.832000,(-33 -13 16 63 27 11 -3 -15)
1969/12/31/18:00:14.834000,(3 -1 7 16 18 7 3 5)
1969/12/31/18:00:14.834000,(38 12 -9 -17 -10 -4 3 25)
1969/12/31/18:00:14.844000,(-65 -49 -18 -22 -34 -20 -24 -40)
1969/12/31/18:00:14.844000,(54 46 -6 -40 -5 8 30 52)
1969/12/31/18:00:14.853000,(-29 -14 -5 10 -4 2 -7 -27)
1969/12/31/18:00:14.853000,(-70 -24 -3 4 -7 -26 -41 -61)
1969/12/31/18:00:14.868000,(28 35 7 -1 0 2 11 35)
1969/12/31/18:00:14.868000,(-4 3 6 3 4 11 6 0)
1969/12/31/18:00:14.870000,(-10 -9 -23 -58 -13 -6 -6 -9)
1969/12/31/18:00:14.870000,(28 14 -7 -15 -1 16 21 22)
1969/12/31/18:00:14.891000,(-29 -19 16 53 14 -3 -10 -15)
1969/12/31/18:00:14.891000,(-27 -11 25 44 16 -8 -16 -27)
1969/12/31/18:00:14.892000,(35 27 6 11 -4 2 9 24)
1969/12/31/18:00:14.892000,(-24 -23 -11 -16 2 2 -2 -8)
1969/12/31/18:00:14.904000,(20 10 -7 -27 -11 0 13 20)
1969/12/31/18:00:14.904000,(9 -1 -16 -19 -21 -7 0 4)
1969/12/31/18:00:14.913000,(-31 -31 -2 -7 -7 -10 -12 -16)
1969/12/31/18:00:14.913000,(29 24 11 14 21 7 7 10)
1969/12/31/18:00:14.928000,(3 -1 -3 13 9 1 -7 -14)
1969/12/31/18:00:14.928000,(20 8 -5 4 -15 -21 -20 5)
1969/12/31/18:00:14.930000,(-78 -35 -1 -13 0 -5 -21 -55)
1969/12/31/18:00:14.930000,(-62 -39 -7 -6 -15 -9 -15 -30)
1969/12/31/18:00:14.975000,(55 22 -2 -24 -30 -6 14 37)
1969/12/31/18:00:14.975000,(-11 -19 -26 -64 -34 -18 -9 -7)
1969/12/31/18:00:14.977000,(32 22 6 42 33 12 7 21)
1969/12/31/18:00:14.977000,(8 10 15 52 57 30 15 10)
1969/12/31/18:00:14.978000,(-15 -7 4 -2 25 15 -1 -17)
1969/12/31/18:00:14.978000,(-8 7 26 34 -3 12 10 2)
1969/12/31/18:00:14.981000,(12 5 1 6 -37 -26 -14 0)
1969/12/31/18:00:14.981000,(8 4 -2 6 -8 -11 1 5)
1969/12/31/18:00:14.988000,(-14 -11 -17 -31 -17 -13 -8 -8)
1969/12/31/18:00:14.988000,(2 -2 -14 -17 -1 3 3 2)
1969/12/31/18:00:14.994000,(18 11 3 -3 16 7 5 9)
1969/12/31/18:00:14.994000,(18 9 -2 -19 -10 1 1 9)
1969/12/31/18:00:15.011000,(10 6 0 7 -5 -4 -8 -6)
1969/12/31/18:00:15.011000,(-92 -53 20 19 20 32 24 -22)
1969/12/31/18:00:15.012000,(78 57 10 8 11 14 26 29)
1969/12/31/18:00:15.012000,(-16 -18 -6 -10 -9 -6 -2 0)
1969/12/31/18:00:15.024000,(-3 -3 -5 8 -4 -3 -3 -6)
1969/12/31/18:00:15.024000,(22 8 -30 -63 -53 -21 -7 4)
1969/12/31/18:00:15.033000,(-14 -9 3 14 23 -1 0 1)
1969/12/31/18:00:15.033000,(-17 -1 28 55 37 19 3 -6)
1969/12/31/18:00:15.048000,(10 12 27 40 14 9 6 10)
1969/12/31/18:00:15.048000,(10 5 -3 18 9 -2 -2 3)
1969/12/31/18:00:15.054000,(-9 -11 -14 -25 -18 -10 -3 5)
1969/12/31/18:00:15.054000,(6 0 -10 -19 -9 -6 -4 -2)
1969/12/31/18:00:15.070000,(-65 -40 -3 0 12 10 1 -23)
1969/12/31/18:00:15.070000,(24 17 -4 -9 -12 -12 -12 -6)
1969/12/31/18:00:15.072000,(-35 -7 -11 -26 -21 -8 -11 -31)
1969/12/31/18:00:15.072000,(42 15 8 1 6 6 12 24)
1969/12/31/18:00:15.084000,(3 0 -8 -8 -12 -18 -20 -12)
1969/12/31/18:00:15.084000,(-5 -5 4 8 9 1 -2 -4)
1969/12/31/18:00:15.110000,(6 -1 -2 8 5 2 5 10)
1969/12/31/18:00:15.110000,(-4 0 -2 -21 -8 2 3 -1)
1969/12/31/18:00:15.110000,(-1 1 -4 -1 -2 0 5 3)
1969/12/31/18:00:15.110000,(50 35 14 25 7 5 4 10)
1969/12/31/18:00:15.114000,(1 -5 1 -1 6 0 -7 -6)
1969/12/31/18:00:15.114000,(2 11 1 -4 -11 -7 -4 -1)
1969/12/31/18:00:15.131000,(-4 -5 -5 0 -3 -6 -7 -8)
1969/12/31/18:00:15.131000,(-10 -7 -1 -12 15 9 8 10)
1969/12/31/18:00:15.132000,(28 12 -5 -1 -14 -2 6 18)
1969/12/31/18:00:15.132000,(-22 -8 1 5 -2 0 -2 -20)
1969/12/31/18:00:15.161000,(7 4 1 14 6 1 -4 -4)
1969/12/31/18:00:15.161000,(-19 -14 -5 1 -15 -13 -11 -10)
1969/12/31/18:00:15.162000,(22 14 4 9 11 4 9 18)
1969/12/31/18:00:15.162000,(60 21 10 7 23 22 25 54)
1969/12/31/18:00:15.168000,(7 6 -5 0 1 -8 -14 -8)
1969/12/31/18:00:15.168000,(14 10 0 -1 -1 3 2 3)
1969/12/31/18:00:15.174000,(-15 -12 -5 -18 -16 -10 -5 -4)
1969/12/31/18:00:15.174000,(-16 -11 -8 -13 -13 -5 -3 -8)
1969/12/31/18:00:15.191000,(5 3 -3 -25 -15 5 11 8)
1969/12/31/18:00:15.191000,(14 4 5 27 14 -1 -1 7)
1969/12/31/18:00:15.192000,(-9 -1 4 7 3 1 -4 -8)
1969/12/31/18:00:15.192000,(-11 -3 3 12 5 -5 -5 -9)
1969/12/31/18:00:15.213000,(16 9 -4 -29 -14 1 7 13)
1969/12/31/18:00:15.213000,(5 5 -3 -3 3 7 12 8)
1969/12/31/18:00:15.215000,(-19 -21 1 8 3 -2 -4 -4)
1969/12/31/18:00:15.215000,(16 2 -10 -12 -9 -7 -9 -1)
1969/12/31/18:00:15.252000,(-15 -8 -6 -13 0 -4 -6 -13)
1969/12/31/18:00:15.252000,(-9 -7 6 24 9 4 2 -2)
1969/12/31/18:00:15.254000,(1 2 3 7 0 0 0 -3)
1969/12/31/18:00:15.254000,(-15 -9 -22 -45 -26 -13 -9 -8)
1969/12/31/18:00:15.255000,(13 -1 -26 -62 -72 -17 7 15)
1969/12/31/18:00:15.255000,(2 5 30 96 70 17 3 0)
1969/12/31/18:00:15.259000,(-1 6 27 75 55 17 -7 -8)
1969/12/31/18:00:15.259000,(-23 -11 10 28 14 3 -9 -19)
1969/12/31/18:00:15.273000,(3 0 -3 -15 4 6 8 7)
1969/12/31/18:00:15.273000,(0 -3 -21 -69 -42 -9 -3 -1)
1969/12/31/18:00:15.275000,(3 0 -10 -34 -29 -14 -4 0)
1969/12/31/18:00:15.275000,(-3 -4 -9 -8 -3 -4 2 0)
1969/12/31/18:00:15.287000,(0 0 6 22 19 11 8 3)
1969/12/31/18:00:15.287000,(3 15 30 -5 2 11 5 1)
1969/12/31/18:00:15.296000,(18 10 -13 8 3 -5 4 12)
1969/12/31/18:00:15.296000,(-17 -28 -33 -5 -23 -18 -13 -14)
1969/12/31/18:00:15.311000,(-15 -6 10 8 10 -9 -13 -16)
1969/12/31/18:00:15.311000,(-5 -9 -30 -26 -8 -14 -8 -7)
1969/12/31/18:00:15.312000,(-3 -8 -6 -22 -15 -4 -4 -4)
1969/12/31/18:00:15.312000,(6 22 43 26 5 15 15 11)
1969/12/31/18:00:15.333000,(5 3 7 9 -12 6 5 4)
1969/12/31/18:00:15.333000,(11 6 -9 49 31 4 3 8)
1969/12/31/18:00:15.335000,(-10 -8 0 -25 13 2 -8 -10)
1969/12/31/18:00:15.335000,(0 -4 3 17 12 3 1 0)
1969/12/31/18:00:15.347000,(-7 1 20 15 11 0 -3 -6)
1969/12/31/18:00:15.347000,(-10 -14 -25 -31 -24 -7 -5 -8)
1969/12/31/18:00:15.356000,(9 -7 -44 -25 -36 -19 2 9)
1969/12/31/18:00:15.356000,(-10 -14 -24 -24 6 -11 -8 -7)
1969/12/31/18:00:15.386000,(-7 2 23 19 20 10 -3 -7)
1969/12/31/18:00:15.386000,(5 12 24 -5 -6 0 1 2)
1969/12/31/18:00:15.387000,(8 16 48 19 3 10 6 6)
1969/12/31/18:00:15.387000,(7 0 -38 -11 -6 2 5 7)
1969/12/31/18:00:15.393000,(8 -5 -18 -18 11 -1 5 8)
1969/12/31/18:00:15.393000,(-14 -9 1 16 -14 -6 -10 -13)
1969/12/31/18:00:15.394000,(2 6 29 15 11 6 5 1)
1969/12/31/18:00:15.395000,(-1 17 28 10 6 5 2 -1)
1969/12/31/18:00:15.407000,(3 -17 -56 -7 -8 -16 -8 -1)
1969/12/31/18:00:15.407000,(-11 -17 -19 -44 -15 -5 -3 -6)
1969/12/31/18:00:15.416000,(-2 -1 -9 -58 -7 4 2 1)
1969/12/31/18:00:15.416000,(9 12 26 35 -1 5 4 6)
1969/12/31/18:00:15.431000,(4 14 35 77 8 -5 -1 3)
1969/12/31/18:00:15.431000,(-1 -2 18 29 36 10 0 -2)
1969/12/31/18:00:15.432000,(-2 -4 -9 10 4 2 -1 -3)
1969/12/31/18:00:15.432000,(-3 -3 -18 -62 -15 -7 -1 -3)
1969/12/31/18:00:15.453000,(8 3 -13 -5 4 13 9 9)
1969/12/31/18:00:15.453000,(4 -2 -2 6 -16 -10 -1 4)
1969/12/31/18:00:15.455000,(-16 -16 -21 -17 -13 -13 -12 -9)
1969/12/31/18:00:15.455000,(-4 6 24 3 0 -5 -4 -4)
1969/12/31/18:00:15.467000,(5 -1 -27 -10 -1 2 3 3)
1969/12/31/18:00:15.467000,(-6 -12 -17 -25 -4 -5 -5 -4)
1969/12/31/18:00:15.476000,(0 2 1 11 -4 3 3 -1)
1969/12/31/18:00:15.476000,(3 9 37 -3 -3 5 4 2)
1969/12/31/18:00:15.491000,(4 6 1 4 9 5 3 1)
1969/12/31/18:00:15.491000,(-3 -5 3 0 -4 -7 -3 -2)
1969/12/31/18:00:15.492000,(-5 -7 -26 -60 -14 -5 -1 -4)
1969/12/31/18:00:15.492000,(1 -10 -21 70 5 -5 -1 4)
1969/12/31/18:00:15.529000,(-6 9 35 19 16 4 -2 -6)
1969/12/31/18:00:15.529000,(7 4 13 45 12 6 3 4)
1969/12/31/18:00:15.531000,(-1 5 9 -10 -9 -3 -1 0)
1969/12/31/18:00:15.531000,(0 -2 -9 -29 -10 -2 0 -1)
1969/12/31/18:00:15.532000,(-3 -7 -14 -21 -1 1 0 -1)
1969/12/31/18:00:15.532000,(0 1 -13 -40 3 7 2 -2)
1969/12/31/18:00:15.536000,(5 4 10 56 8 8 6 7)
1969/12/31/18:00:15.536000,(-4 -8 -23 -42 -1 -2 -2 -2)
