time,.data
1969/12/31/18:00:31.664,(3 12 10 7 -14 -4 -2 -2)
1969/12/31/18:00:31.664,(-3 -6 13 25 31 7 0 -3)
1969/12/31/18:00:31.687,(4 8 -2 6 0 4 2 2)
1969/12/31/18:00:31.687,(-3 4 3 -22 -9 -2 -5 -6)
1969/12/31/18:00:31.688,(-3 0 -9 -5 12 -2 -3 -3)
1969/12/31/18:00:31.688,(-3 -9 -9 4 -11 -2 1 3)
1969/12/31/18:00:31.701,(5 10 14 14 -1 -2 1 4)
1969/12/31/18:00:31.701,(-4 -9 -1 -3 3 2 2 1)
1969/12/31/18:00:31.702,(1 -3 -6 7 10 2 1 -1)
1969/12/31/18:00:31.702,(-3 -2 5 -12 -14 -6 -4 -2)
1969/12/31/18:00:31.724,(1 4 8 -17 -4 -2 1 4)
1969/12/31/18:00:31.724,(0 -5 -7 7 -9 -2 4 2)
1969/12/31/18:00:31.724,(-1 3 8 1 -1 1 -8 -4)
1969/12/31/18:00:31.724,(-5 -2 -16 -13 -10 -8 -4 -5)
1969/12/31/18:00:31.740,(3 8 0 14 12 1 2 5)
1969/12/31/18:00:31.740,(-1 -2 2 7 14 3 -3 -3)
1969/12/31/18:00:31.746,(-3 -10 -12 -23 -4 2 9 4)
1969/12/31/18:00:31.746,(2 1 7 29 3 1 -1 -1)
1969/12/31/18:00:31.761,(1 5 9 -3 -9 -2 -5 -4)
1969/12/31/18:00:31.761,(2 1 -3 13 9 -1 -2 -2)
1969/12/31/18:00:31.762,(-3 -1 2 2 -2 -1 -2 -3)
1969/12/31/18:00:31.762,(-6 -6 -21 -28 -12 -3 -5 -5)
1969/12/31/18:00:31.784,(-6 -9 0 1 2 -2 -4 -6)
1969/12/31/18:00:31.784,(-4 -6 -8 -8 -2 -2 -1 -2)
1969/12/31/18:00:31.784,(-3 0 -13 -32 -6 -5 -3 -7)
1969/12/31/18:00:31.784,(3 11 15 24 2 -3 -3 -3)
1969/12/31/18:00:31.798,(2 -4 0 10 5 3 5 7)
1969/12/31/18:00:31.798,(-1 -1 -6 -15 -13 -4 -5 -5)
1969/12/31/18:00:31.806,(-3 8 15 16 4 0 -1 -2)
1969/12/31/18:00:31.806,(0 -4 1 -5 2 4 3 2)
1969/12/31/18:00:31.821,(-2 2 4 2 -4 -5 -5 -7)
1969/12/31/18:00:31.821,(-3 -7 -17 -7 -1 -3 0 1)
1969/12/31/18:00:31.822,(0 0 -2 1 4 -1 -1 -2)
1969/12/31/18:00:31.822,(-5 -6 0 -3 -5 -4 -2 -3)
1969/12/31/18:00:31.844,(3 1 -12 -4 -4 -2 0 -1)
1969/12/31/18:00:31.844,(0 -1 1 -4 0 -1 -1 1)
1969/12/31/18:00:31.845,(6 5 14 17 6 4 6 7)
1969/12/31/18:00:31.845,(-1 -1 -5 -10 -7 -3 -2 0)
1969/12/31/18:00:31.858,(-6 -5 -2 0 0 -1 -2 -5)
1969/12/31/18:00:31.858,(-4 0 -4 -5 -2 -4 -7 -10)
1969/12/31/18:00:31.866,(1 0 7 11 3 0 1 4)
1969/12/31/18:00:31.866,(0 -1 -4 -7 -1 -2 0 4)
1969/12/31/18:00:31.882,(-1 -1 -2 -5 -2 0 -2 -2)
1969/12/31/18:00:31.882,(2 1 4 4 1 1 2 0)
1969/12/31/18:00:31.883,(-1 2 -2 3 0 -3 -6 -5)
1969/12/31/18:00:31.883,(-1 -4 -2 -8 -2 0 2 1)
1969/12/31/18:00:31.904,(-1 -3 -3 -1 -3 -3 -1 -2)
1969/12/31/18:00:31.904,(2 8 10 3 -1 -1 -3 -1)
1969/12/31/18:00:31.905,(-1 -13 -4 0 2 4 5 4)
1969/12/31/18:00:31.905,(-1 6 2 -5 -3 -4 -2 -3)
1969/12/31/18:00:31.918,(-2 -4 0 3 0 -1 -3 -4)
1969/12/31/18:00:31.918,(1 6 4 6 0 -2 -2 -2)
1969/12/31/18:00:31.926,(-1 -5 -3 -2 -1 0 -2 -1)
1969/12/31/18:00:31.926,(0 -16 -10 -6 -2 0 -2 -1)
1969/12/31/18:00:31.942,(-6 6 0 -1 0 -1 -2 -6)
1969/12/31/18:00:31.942,(3 -3 0 -2 0 1 1 3)
1969/12/31/18:00:31.942,(-8 -9 -2 3 1 -1 -3 -4)
1969/12/31/18:00:31.942,(-16 -9 -5 -4 -3 0 -4 -6)
1969/12/31/18:00:31.964,(20 6 8 2 2 2 6 13)
1969/12/31/18:00:31.964,(10 17 -4 -6 -4 -4 -1 2)
1969/12/31/18:00:31.965,(15 -7 -7 -4 -4 -4 -1 3)
1969/12/31/18:00:31.965,(-3 23 14 4 3 -2 -2 -6)
1969/12/31/18:00:31.987,(-13 -6 0 1 2 1 0 -5)
1969/12/31/18:00:31.987,(-21 -13 -5 0 -1 -1 -2 -3)
1969/12/31/18:00:31.988,(7 9 7 4 1 1 -1 1)
1969/12/31/18:00:31.988,(-1 -7 -9 -6 -2 -1 0 -2)
1969/12/31/18:00:32.001,(6 -1 -3 -2 -2 0 -1 2)
1969/12/31/18:00:32.001,(-2 -2 0 -1 -1 0 -1 -1)
1969/12/31/18:00:32.002,(0 -3 -8 -3 -2 -1 0 -2)
1969/12/31/18:00:32.002,(1 -1 -1 -3 -2 -1 0 1)
1969/12/31/18:00:32.024,(-1 1 6 2 1 0 0 -1)
1969/12/31/18:00:32.024,(-14 -15 -15 -9 -3 -4 -3 -5)
1969/12/31/18:00:32.025,(-5 7 10 3 1 0 0 0)
1969/12/31/18:00:32.025,(15 7 3 1 -1 -2 -1 3)
1969/12/31/18:00:32.038,(-17 -9 -3 0 0 0 1 -1)
1969/12/31/18:00:32.038,(14 -9 -5 -2 -2 -2 -3 -1)
1969/12/31/18:00:32.047,(-14 0 3 2 2 -1 -2 -5)
1969/12/31/18:00:32.047,(2 2 1 -1 0 -1 1 2)
1969/12/31/18:00:32.062,(13 5 -7 -5 -1 0 1 3)
1969/12/31/18:00:32.062,(-15 -5 3 0 -1 1 0 -1)
1969/12/31/18:00:32.062,(-2 8 3 0 -1 -1 -1 3)
1969/12/31/18:00:32.062,(-18 -20 -13 -8 -5 -4 -9 -12)
1969/12/31/18:00:32.084,(13 15 8 3 3 4 8 13)
1969/12/31/18:00:32.084,(-11 -17 -2 -1 -1 -6 -6 -12)
1969/12/31/18:00:32.085,(-8 11 8 4 2 2 4 2)
1969/12/31/18:00:32.085,(19 2 -7 -5 -3 -2 -2 4)
1969/12/31/18:00:32.107,(-5 -11 -5 -4 -3 -4 -6 -7)
1969/12/31/18:00:32.107,(-34 -15 -7 -7 -5 -2 -4 -12)
1969/12/31/18:00:32.108,(8 4 4 2 1 4 5 4)
1969/12/31/18:00:32.108,(-29 -14 -4 1 1 -4 -9 -11)
1969/12/31/18:00:32.121,(15 2 -3 0 0 -2 -2 1)
1969/12/31/18:00:32.121,(14 12 5 4 0 -6 0 14)
1969/12/31/18:00:32.122,(11 10 -4 -7 -4 7 27 -2)
1969/12/31/18:00:32.122,(-17 4 4 1 0 2 -17 -11)
1969/12/31/18:00:32.144,(2 -8 1 1 -2 -3 -10 -4)
1969/12/31/18:00:32.144,(-2 -5 -3 1 -1 1 2 3)
1969/12/31/18:00:32.145,(-8 0 1 2 1 -1 -6 9)
1969/12/31/18:00:32.145,(36 22 0 1 0 1 20 12)
1969/12/31/18:00:32.167,(-5 -5 4 3 2 0 -16 0)
1969/12/31/18:00:32.167,(22 13 -4 -8 -4 -2 -1 9)
1969/12/31/18:00:32.168,(-44 -40 -5 -1 -1 -4 -6 -17)
1969/12/31/18:00:32.168,(4 25 8 3 2 3 -5 -32)
1969/12/31/18:00:32.181,(30 11 1 2 -1 1 16 42)
1969/12/31/18:00:32.181,(-18 -4 -9 -3 -5 -18 -18 -13)
1969/12/31/18:00:32.182,(28 2 2 3 2 27 15 27)
1969/12/31/18:00:32.182,(-39 -29 -7 -2 -2 -8 -14 -12)
1969/12/31/18:00:32.204,(-10 14 -1 -3 -4 -7 -10 -40)
1969/12/31/18:00:32.204,(67 40 11 6 3 7 22 46)
1969/12/31/18:00:32.204,(-84 -56 -20 -10 -7 -15 -32 -55)
1969/12/31/18:00:32.205,(22 10 3 -3 -1 8 12 18)
1969/12/31/18:00:32.227,(9 -1 2 2 1 0 29 41)
1969/12/31/18:00:32.227,(-30 9 -11 -14 -11 -9 -45 -60)
1969/12/31/18:00:32.228,(-7 -19 -5 -3 -2 -3 -7 -9)
1969/12/31/18:00:32.228,(19 13 -2 1 5 27 17 0)
1969/12/31/18:00:32.242,(-21 -4 -1 0 -3 -35 4 -2)
1969/12/31/18:00:32.242,(-5 -14 -1 3 4 25 -1 5)
1969/12/31/18:00:32.242,(7 3 1 1 -3 -22 -19 5)
1969/12/31/18:00:32.242,(18 19 7 0 -7 -21 7 26)
1969/12/31/18:00:32.264,(-6 -6 -4 -5 -1 27 33 -11)
1969/12/31/18:00:32.264,(-19 0 -3 -6 -6 -1 -27 -21)
1969/12/31/18:00:32.265,(4 16 -1 -1 0 0 3 12)
1969/12/31/18:00:32.265,(17 -12 1 4 4 0 -2 -5)
1969/12/31/18:00:32.287,(-16 -1 7 8 6 6 2 3)
1969/12/31/18:00:32.287,(-71 -17 1 2 3 -7 -35 -56)
1969/12/31/18:00:32.288,(78 8 -7 -4 -2 3 14 69)
1969/12/31/18:00:32.288,(11 24 10 3 -4 -8 -42 -20)
1969/12/31/18:00:32.301,(-24 -45 -20 -16 -14 -27 9 -10)
1969/12/31/18:00:32.301,(10 6 4 3 10 29 45 11)
1969/12/31/18:00:32.302,(7 11 6 3 2 -2 -12 0)
1969/12/31/18:00:32.302,(-13 -25 -5 4 5 19 20 40)
1969/12/31/18:00:32.324,(-12 -4 -15 -13 -17 -24 -31 -42)
1969/12/31/18:00:32.324,(6 -25 -4 3 1 -7 14 10)
1969/12/31/18:00:32.325,(36 40 7 -1 1 3 5 36)
1969/12/31/18:00:32.325,(-26 -25 -8 -7 -3 -11 5 2)
1969/12/31/18:00:32.347,(-42 16 13 11 12 7 -33 -33)
1969/12/31/18:00:32.347,(85 2 -5 -6 -8 -2 27 64)
1969/12/31/18:00:32.348,(-8 14 6 2 0 7 -3 -25)
1969/12/31/18:00:32.348,(-32 -25 -11 -3 -1 0 -11 -39)
1969/12/31/18:00:32.362,(12 9 2 1 -1 -1 20 19)
1969/12/31/18:00:32.362,(-33 -3 8 11 7 -13 -3 1)
1969/12/31/18:00:32.363,(-1 18 1 0 -4 -13 -38 -28)
1969/12/31/18:00:32.363,(10 -37 -17 -11 -4 12 49 33)
1969/12/31/18:00:32.384,(32 18 2 -5 -8 -5 -45 13)
1969/12/31/18:00:32.384,(41 21 6 6 5 3 38 34)
1969/12/31/18:00:32.385,(-36 -31 -11 -6 -7 -10 -8 -47)
1969/12/31/18:00:32.385,(1 28 13 2 0 -11 -21 -4)
1969/12/31/18:00:32.407,(-25 -19 0 1 4 5 -8 -7)
1969/12/31/18:00:32.407,(8 5 -4 -5 -4 -2 -3 -17)
1969/12/31/18:00:32.407,(22 9 9 12 8 12 24 63)
1969/12/31/18:00:32.407,(25 -6 -4 -2 0 1 3 18)
1969/12/31/18:00:32.421,(-41 -7 -4 -4 -3 2 -13 -67)
1969/12/31/18:00:32.421,(-19 -2 6 1 0 1 -10 24)
1969/12/31/18:00:32.422,(-29 -13 -8 -6 0 3 15 -50)
1969/12/31/18:00:32.422,(18 10 5 5 4 4 6 -11)
1969/12/31/18:00:32.444,(38 7 1 -2 -1 -9 15 43)
1969/12/31/18:00:32.444,(-36 4 3 -1 -9 -12 7 -24)
1969/12/31/18:00:32.445,(-7 -11 3 3 6 15 38 4)
1969/12/31/18:00:32.445,(-19 26 3 -2 -6 -25 -17 -30)
1969/12/31/18:00:32.467,(-26 -34 -10 -3 -3 10 -12 -34)
1969/12/31/18:00:32.467,(-27 -13 5 4 4 -4 -19 -23)
1969/12/31/18:00:32.468,(-10 -8 -10 -7 -5 -2 13 3)
1969/12/31/18:00:32.468,(59 28 -1 -3 -2 -3 -2 14)
1969/12/31/18:00:32.481,(21 19 5 2 -1 -3 5 24)
1969/12/31/18:00:32.481,(9 -2 1 0 0 1 14 8)
1969/12/31/18:00:32.489,(-33 6 7 5 3 -1 -11 -51)
1969/12/31/18:00:32.489,(-5 10 6 4 6 5 0 41)
1969/12/31/18:00:32.504,(32 -25 -11 -4 -4 -1 2 -4)
1969/12/31/18:00:32.504,(-3 3 3 7 10 13 -6 -11)
1969/12/31/18:00:32.505,(18 5 -7 -10 -9 -5 4 44)
1969/12/31/18:00:32.505,(-23 -11 -5 -5 -5 -6 -12 -21)
1969/12/31/18:00:32.527,(29 43 14 5 6 11 22 51)
1969/12/31/18:00:32.527,(-47 -46 -11 -2 0 9 5 -31)
1969/12/31/18:00:32.528,(8 3 2 3 3 -5 -24 -19)
1969/12/31/18:00:32.528,(12 8 0 -1 -4 -5 7 28)
1969/12/31/18:00:32.541,(20 -5 2 3 5 10 -4 9)
1969/12/31/18:00:32.541,(16 17 4 4 3 1 16 72)
1969/12/31/18:00:32.542,(-7 0 -10 -11 -13 -20 -26 -32)
1969/12/31/18:00:32.542,(-81 -57 -17 -8 0 31 11 -48)
1969/12/31/18:00:32.564,(28 12 2 1 0 -4 -2 44)
1969/12/31/18:00:32.564,(31 11 -1 -3 -3 -3 -5 11)
1969/12/31/18:00:32.565,(40 11 -1 -1 -5 -6 11 10)
1969/12/31/18:00:32.565,(-6 -4 1 0 -1 -7 -3 -3)
1969/12/31/18:00:32.587,(-66 -21 -10 -7 1 19 -2 -33)
1969/12/31/18:00:32.587,(10 -4 -4 -6 -9 -8 -14 -15)
1969/12/31/18:00:32.588,(-36 -4 1 3 1 -1 6 11)
1969/12/31/18:00:32.588,(25 -6 -8 -9 -11 -27 -29 -40)
1969/12/31/18:00:32.602,(-4 5 1 4 8 13 0 -13)
1969/12/31/18:00:32.602,(24 0 -2 -5 -8 -12 3 27)
1969/12/31/18:00:32.602,(-26 -5 3 -1 0 3 5 -11)
1969/12/31/18:00:32.602,(-56 -23 -8 -2 -2 -5 -10 -24)
1969/12/31/18:00:32.624,(44 43 18 7 5 2 11 8)
1969/12/31/18:00:32.624,(-6 -35 -17 -12 -8 -5 -13 -1)
1969/12/31/18:00:32.625,(111 34 7 5 1 1 12 66)
1969/12/31/18:00:32.625,(5 -15 -6 -3 -3 -7 18 22)
1969/12/31/18:00:32.647,(-14 29 9 1 2 0 -11 -14)
1969/12/31/18:00:32.647,(-21 -4 0 0 5 11 21 4)
1969/12/31/18:00:32.648,(0 2 15 9 6 0 -11 -30)
1969/12/31/18:00:32.648,(2 5 -5 -4 -3 0 6 7)
1969/12/31/18:00:32.661,(4 -32 -13 -5 -4 -11 -21 -14)
1969/12/31/18:00:32.661,(-8 41 25 17 11 9 24 5)
1969/12/31/18:00:32.669,(61 6 -4 -5 -4 -5 -26 -8)
1969/12/31/18:00:32.669,(-40 4 8 3 1 -3 -1 -36)
1969/12/31/18:00:32.684,(-16 8 5 4 7 1 7 -8)
1969/12/31/18:00:32.684,(-19 -28 -18 -15 -14 -7 -18 -22)
1969/12/31/18:00:32.685,(42 8 11 8 3 2 -2 28)
1969/12/31/18:00:32.685,(-7 -27 -12 -3 -4 -6 -28 -30)
1969/12/31/18:00:32.707,(56 32 1 1 -3 -7 11 17)
1969/12/31/18:00:32.707,(-22 2 -5 -12 -11 -4 -10 -43)
1969/12/31/18:00:32.707,(-63 -24 -7 -3 9 10 16 -2)
1969/12/31/18:00:32.707,(-9 -19 -10 -10 -7 5 -20 -8)
1969/12/31/18:00:32.720,(-47 -52 -11 9 24 -18 -26 -12)
1969/12/31/18:00:32.720,(26 15 5 -2 -22 -14 7 -3)
1969/12/31/18:00:32.729,(-46 -7 -4 -6 -4 9 1 -44)
1969/12/31/18:00:32.729,(40 15 10 3 3 4 9 57)
1969/12/31/18:00:32.744,(-56 -22 -7 -4 -4 0 8 -9)
1969/12/31/18:00:32.744,(19 18 3 11 15 12 -20 -59)
1969/12/31/18:00:32.745,(44 19 0 -2 4 -15 0 38)
1969/12/31/18:00:32.745,(-55 -40 -10 -1 -4 2 2 -29)
1969/12/31/18:00:32.768,(40 32 -1 -3 3 7 -20 -11)
1969/12/31/18:00:32.768,(22 -22 -9 -10 -20 -15 -11 13)
1969/12/31/18:00:32.769,(-7 -6 -7 -14 2 9 9 18)
1969/12/31/18:00:32.769,(38 46 18 2 -17 -9 15 49)
1969/12/31/18:00:32.781,(3 -39 -15 -13 -20 -22 3 -8)
1969/12/31/18:00:32.781,(-39 -10 -3 4 3 11 -12 -34)
1969/12/31/18:00:32.789,(-18 -16 -8 0 0 3 -3 35)
1969/12/31/18:00:32.789,(13 45 18 12 18 1 6 25)
1969/12/31/18:00:32.804,(-36 -55 -10 -1 -4 -16 3 -7)
1969/12/31/18:00:32.804,(15 9 10 16 25 44 -18 60)
1969/12/31/18:00:32.804,(-106 -29 -12 -11 -21 -38 -42 -111)
1969/12/31/18:00:32.804,(19 -4 -11 -2 10 13 -12 -30)
1969/12/31/18:00:32.827,(43 29 15 3 -14 -3 8 42)
1969/12/31/18:00:32.827,(-43 0 -2 -1 10 1 7 -32)
1969/12/31/18:00:32.828,(-16 -26 -7 -13 -27 -3 11 20)
1969/12/31/18:00:32.828,(33 48 15 -8 -20 -8 10 33)
1969/12/31/18:00:32.841,(-8 -19 -12 -7 -7 15 6 -27)
1969/12/31/18:00:32.841,(-26 -22 -15 -5 3 -12 -6 11)
1969/12/31/18:00:32.849,(28 23 14 22 25 17 6 9)
1969/12/31/18:00:32.849,(-6 -28 -10 3 11 4 0 -9)
1969/12/31/18:00:32.864,(-2 9 -2 -14 -23 -33 6 5)
1969/12/31/18:00:32.864,(-1 23 17 36 82 46 26 10)
1969/12/31/18:00:32.865,(42 9 -9 -43 -71 -5 -10 7)
1969/12/31/18:00:32.865,(-18 33 21 6 -5 10 29 -18)
1969/12/31/18:00:32.887,(-3 -44 -23 -12 -4 18 -26 30)
1969/12/31/18:00:32.887,(-9 0 -6 -5 -4 -19 31 -7)
1969/12/31/18:00:32.888,(12 -3 10 40 50 -3 10 11)
1969/12/31/18:00:32.888,(-12 -14 -8 -6 1 1 -19 -3)
1969/12/31/18:00:32.901,(-8 33 7 -6 -1 25 16 -4)
1969/12/31/18:00:32.901,(42 13 2 -18 -39 -45 -14 8)
1969/12/31/18:00:32.909,(-45 -19 1 30 50 -3 -3 -1)
1969/12/31/18:00:32.909,(35 -9 -6 -16 -16 32 18 41)
1969/12/31/18:00:32.924,(-9 29 4 -6 -5 10 7 -6)
1969/12/31/18:00:32.924,(10 -58 -32 -28 -19 16 2 14)
1969/12/31/18:00:32.925,(17 30 2 0 -2 -3 6 4)
1969/12/31/18:00:32.925,(-35 5 31 40 13 -77 -31 -40)
1969/12/31/18:00:32.947,(0 -27 -8 4 9 -9 -2 -8)
1969/12/31/18:00:32.947,(-5 -3 -42 -37 -12 29 -14 -19)
1969/12/31/18:00:32.948,(-27 61 52 6 -20 -12 5 0)
1969/12/31/18:00:32.948,(5 -29 -4 6 -1 0 0 -21)
1969/12/31/18:00:32.961,(18 7 -4 2 2 -13 -29 -76)
1969/12/31/18:00:32.961,(-8 -1 17 19 -4 -44 -12 -5)
1969/12/31/18:00:32.969,(-44 -78 -59 -16 30 6 -15 -47)
1969/12/31/18:00:32.969,(-20 -4 -10 -21 -44 19 21 43)
1969/12/31/18:00:32.984,(-58 -1 1 7 -6 -23 -6 -32)
1969/12/31/18:00:32.984,(24 -38 -11 -20 -5 16 -21 -31)
1969/12/31/18:00:32.985,(34 55 -6 5 31 37 21 13)
1969/12/31/18:00:32.985,(13 10 26 17 27 4 1 25)
1969/12/31/18:00:33.015,(-2 15 12 -12 -42 -18 -13 1)
1969/12/31/18:00:33.015,(9 39 33 14 4 -15 18 14)
1969/12/31/18:00:33.015,(-18 -85 -46 -27 -51 -70 -11 8)
1969/12/31/18:00:33.015,(-10 -77 -108 -15 39 -29 -22 -22)
1969/12/31/18:00:33.030,(16 100 99 37 -7 72 23 21)
1969/12/31/18:00:33.030,(12 -44 3 4 -12 26 6 10)
1969/12/31/18:00:33.030,(-36 11 -14 1 9 36 19 -8)
1969/12/31/18:00:33.030,(53 51 32 -23 -25 -3 16 17)
1969/12/31/18:00:33.044,(-7 -50 -39 6 14 -32 -4 15)
1969/12/31/18:00:33.044,(-17 112 59 24 -11 -37 1 25)
1969/12/31/18:00:33.044,(-17 -76 23 39 68 10 11 20)
1969/12/31/18:00:33.044,(-10 -68 -91 -51 -22 94 3 -15)
1969/12/31/18:00:33.067,(11 62 9 -17 0 -6 11 31)
1969/12/31/18:00:33.067,(-2 84 82 10 -19 19 4 4)
1969/12/31/18:00:33.069,(11 9 -2 -11 -26 -50 -6 5)
1969/12/31/18:00:33.069,(-57 -53 -9 18 32 -50 -33 -44)
1969/12/31/18:00:33.090,(9 -128 -103 -26 18 42 18 26)
1969/12/31/18:00:33.090,(32 -100 -100 -44 -22 -14 10 25)
1969/12/31/18:00:33.091,(-7 102 64 1 -34 11 -26 -38)
1969/12/31/18:00:33.091,(15 44 23 5 1 -22 2 0)
1969/12/31/18:00:33.103,(-10 62 81 52 68 47 25 53)
1969/12/31/18:00:33.103,(-12 5 -10 -14 -67 -48 -13 -7)
1969/12/31/18:00:33.113,(44 -86 -82 -31 -14 14 -9 -11)
1969/12/31/18:00:33.113,(-25 -16 52 36 -25 -9 -2 5)
1969/12/31/18:00:33.127,(20 79 -5 -39 -29 -33 -12 -33)
1969/12/31/18:00:33.127,(-4 -80 -20 24 51 4 9 -7)
1969/12/31/18:00:33.128,(17 87 36 1 1 25 -10 2)
1969/12/31/18:00:33.128,(-21 67 57 34 29 5 10 -22)
1969/12/31/18:00:33.149,(8 -97 -93 -69 -80 -11 -21 -31)
1969/12/31/18:00:33.149,(22 65 30 24 14 8 3 36)
1969/12/31/18:00:33.151,(23 44 47 -1 -24 -33 -7 -14)
1969/12/31/18:00:33.151,(21 -60 -29 18 42 7 14 13)
1969/12/31/18:00:33.163,(-45 -81 -53 -10 0 -18 -5 4)
1969/12/31/18:00:33.163,(-11 -1 -28 -35 10 39 9 5)
1969/12/31/18:00:33.172,(-62 -93 -55 -6 -31 -47 -19 -23)
1969/12/31/18:00:33.172,(24 72 -45 -17 21 51 4 11)
1969/12/31/18:00:33.187,(53 119 127 127 72 21 18 2)
1969/12/31/18:00:33.187,(0 -128 -122 -21 -14 -28 5 58)
1969/12/31/18:00:33.188,(-5 8 -57 -41 -11 17 -7 -19)
1969/12/31/18:00:33.188,(6 72 104 59 26 4 34 50)
1969/12/31/18:00:33.209,(-82 -128 -128 -128 -70 -65 -27 -11)
1969/12/31/18:00:33.209,(110 127 127 127 98 60 21 31)
1969/12/31/18:00:33.211,(-19 -128 -105 -5 -20 -2 -15 -24)
1969/12/31/18:00:33.211,(-14 -128 -128 -53 -43 -2 -1 33)
1969/12/31/18:00:33.224,(-25 -54 -35 -1 51 18 15 -4)
1969/12/31/18:00:33.224,(-25 -4 -23 -34 -44 -60 -27 -38)
1969/12/31/18:00:33.231,(12 -19 23 6 26 35 2 18)
1969/12/31/18:00:33.231,(-4 -106 -85 -37 -31 -24 -18 -5)
1969/12/31/18:00:33.247,(20 58 43 24 25 47 16 -12)
1969/12/31/18:00:33.247,(24 55 54 59 45 -7 9 28)
1969/12/31/18:00:33.249,(28 -19 9 -2 -27 13 28 57)
1969/12/31/18:00:33.249,(-25 -53 -44 -23 -16 2 14 7)
1969/12/31/18:00:33.269,(-49 -7 -52 -20 3 -3 -13 -1)
1969/12/31/18:00:33.270,(-16 0 -2 -16 -19 -14 -23 -61)
1969/12/31/18:00:33.271,(-5 -14 7 31 13 -23 -10 -8)
1969/12/31/18:00:33.271,(34 74 86 38 24 -4 -2 0)
1969/12/31/18:00:33.284,(42 -55 -23 0 -18 -31 -5 12)
1969/12/31/18:00:33.284,(-20 -40 -44 -41 -54 -9 -8 -15)
1969/12/31/18:00:33.291,(-4 -91 -61 -17 30 44 13 -12)
1969/12/31/18:00:33.291,(-16 8 -44 -38 -15 -34 -18 -8)
1969/12/31/18:00:33.307,(22 57 93 56 -4 28 8 -1)
1969/12/31/18:00:33.307,(16 -98 -60 2 15 -16 -9 0)
1969/12/31/18:00:33.308,(-17 -62 -36 -11 0 -12 -11 -19)
1969/12/31/18:00:33.308,(-10 -17 -43 -39 -32 4 16 19)
1969/12/31/18:00:33.330,(74 -98 -23 37 41 -40 -24 39)
1969/12/31/18:00:33.330,(5 78 77 -14 -55 28 -1 2)
1969/12/31/18:00:33.331,(18 -35 -25 -45 -56 -31 27 73)
1969/12/31/18:00:33.331,(-7 -56 -22 14 37 20 -11 -37)
1969/12/31/18:00:33.352,(4 112 106 48 -18 -32 -19 -52)
1969/12/31/18:00:33.352,(-63 -128 -128 -21 10 -7 -8 -33)
1969/12/31/18:00:33.353,(7 -7 -44 1 7 -6 -10 -35)
1969/12/31/18:00:33.354,(-17 27 47 10 -2 19 17 -14)
1969/12/31/18:00:33.367,(-6 -128 -128 -55 -28 -38 -23 -31)
1969/12/31/18:00:33.367,(-7 51 32 -5 23 -3 17 8)
1969/12/31/18:00:33.369,(21 127 127 42 11 11 -1 -1)
1969/12/31/18:00:33.369,(-4 84 82 27 1 7 -19 -30)
1969/12/31/18:00:33.390,(-30 -16 -5 -26 -6 47 5 -15)
1969/12/31/18:00:33.390,(-33 -101 -77 -14 -12 -62 -30 -25)
1969/12/31/18:00:33.391,(16 45 -18 -24 -11 26 10 -2)
1969/12/31/18:00:33.391,(-26 -80 -14 22 12 -38 -14 -15)
1969/12/31/18:00:33.404,(16 38 -30 -18 -27 13 8 34)
1969/12/31/18:00:33.404,(-19 49 46 11 -4 -10 -12 -30)
1969/12/31/18:00:33.411,(-73 -51 -19 -9 7 1 3 -36)
1969/12/31/18:00:33.411,(61 -82 -91 -56 -41 -17 -10 10)
1969/12/31/18:00:33.427,(-42 11 42 34 30 15 1 -22)
1969/12/31/18:00:33.427,(-8 -40 -49 -7 19 7 -2 20)
1969/12/31/18:00:33.429,(9 34 28 17 -5 -12 -21 -49)
1969/12/31/18:00:33.429,(0 -58 -33 1 13 14 14 24)
1969/12/31/18:00:33.450,(-20 37 4 16 32 -7 0 24)
1969/12/31/18:00:33.450,(24 7 -7 -44 -44 -14 1 -32)
1969/12/31/18:00:33.451,(12 17 13 28 56 40 8 40)
1969/12/31/18:00:33.451,(-26 94 94 25 14 16 4 -6)
1969/12/31/18:00:33.463,(73 -60 -30 -1 3 9 26 49)
1969/12/31/18:00:33.463,(32 -47 -69 -32 -12 21 31 58)
1969/12/31/18:00:33.472,(23 79 87 33 9 -35 -9 18)
1969/12/31/18:00:33.472,(-4 -36 -27 5 1 -28 -15 -16)
1969/12/31/18:00:33.487,(-25 -15 -10 -18 13 4 6 -8)
1969/12/31/18:00:33.487,(-5 8 -4 0 -4 16 -2 -26)
1969/12/31/18:00:33.489,(21 15 11 -10 -19 4 -7 17)
1969/12/31/18:00:33.489,(41 -28 -34 -12 -11 10 28 61)
1969/12/31/18:00:33.510,(-49 33 20 20 7 -7 -7 -24)
1969/12/31/18:00:33.510,(12 -60 -51 -18 3 -10 -12 -3)
1969/12/31/18:00:33.511,(-2 55 1 -11 -3 2 5 -23)
1969/12/31/18:00:33.511,(-3 102 100 35 10 11 -25 -44)
1969/12/31/18:00:33.523,(-24 -124 -90 -44 -36 -21 -1 4)
1969/12/31/18:00:33.523,(-26 -79 -37 -10 7 0 -2 -16)
1969/12/31/18:00:33.532,(39 94 93 70 27 -8 6 16)
1969/12/31/18:00:33.532,(9 -48 -50 -29 -14 8 21 18)
1969/12/31/18:00:33.547,(-6 2 2 -17 -33 -31 -30 -12)
1969/12/31/18:00:33.547,(1 18 26 51 51 28 2 17)
1969/12/31/18:00:33.549,(-43 -128 -111 -55 -13 8 13 6)
1969/12/31/18:00:33.549,(1 49 -18 -17 -17 -20 -27 -16)
1969/12/31/18:00:33.570,(7 42 27 -11 -5 41 3 -20)
1969/12/31/18:00:33.570,(74 127 127 38 3 -10 -4 23)
1969/12/31/18:00:33.571,(-44 -117 -75 -5 17 -7 -2 -8)
1969/12/31/18:00:33.571,(25 -54 -72 -33 -31 -12 -20 -29)
1969/12/31/18:00:33.583,(57 82 63 0 -13 -9 24 69)
1969/12/31/18:00:33.583,(-1 3 18 12 12 22 4 -6)
1969/12/31/18:00:33.592,(-60 -100 -95 -11 17 -6 12 3)
1969/12/31/18:00:33.592,(-8 57 33 -21 -54 0 -3 -2)
1969/12/31/18:00:33.607,(31 28 37 39 10 -5 6 -6)
1969/12/31/18:00:33.607,(-25 -26 -34 -27 -15 12 5 -12)
1969/12/31/18:00:33.608,(11 -42 -8 15 9 -28 -15 5)
1969/12/31/18:00:33.608,(-72 -128 -90 -6 17 41 12 -33)
1969/12/31/18:00:33.629,(41 61 -2 -20 -29 -12 -3 0)
1969/12/31/18:00:33.629,(-17 87 88 16 0 1 20 7)
1969/12/31/18:00:33.637,(-18 -85 -61 -35 -19 1 -7 -24)
1969/12/31/18:00:33.637,(24 102 98 63 30 -16 7 25)
1969/12/31/18:00:33.643,(-42 -115 -51 -10 13 12 -6 -29)
1969/12/31/18:00:33.643,(-25 -46 -55 1 10 3 3 32)
1969/12/31/18:00:33.652,(32 -2 -66 -27 -8 -8 3 23)
1969/12/31/18:00:33.652,(96 59 79 62 4 15 9 21)
1969/12/31/18:00:33.667,(-28 -120 -60 -3 2 -29 -7 -17)
1969/12/31/18:00:33.667,(-29 -56 -62 -36 -29 26 -12 -20)
1969/12/31/18:00:33.669,(-23 -50 -16 -4 -17 -10 -10 10)
1969/12/31/18:00:33.669,(-22 -4 -6 -10 -1 -26 -10 -19)
1969/12/31/18:00:33.690,(13 87 43 26 41 16 -5 -16)
1969/12/31/18:00:33.690,(-54 -75 -34 -33 -34 -12 16 -54)
1969/12/31/18:00:33.691,(39 119 48 3 -15 -5 -6 1)
1969/12/31/18:00:33.691,(-17 8 24 12 39 13 -17 -19)
1969/12/31/18:00:33.703,(19 -60 -38 -24 -49 -20 14 60)
1969/12/31/18:00:33.703,(-3 -56 -49 0 20 2 -2 1)
1969/12/31/18:00:33.712,(12 65 66 14 -6 -3 1 1)
1969/12/31/18:00:33.712,(-18 -63 -88 -32 -6 -17 -4 9)
1969/12/31/18:00:33.735,(-32 39 56 29 20 -16 -16 -29)
1969/12/31/18:00:33.735,(-2 35 38 17 17 30 5 -25)
1969/12/31/18:00:33.736,(28 -28 -48 -35 -41 -1 5 17)
1969/12/31/18:00:33.736,(-39 -108 -33 12 18 -44 -5 -2)
1969/12/31/18:00:33.749,(-9 37 -58 -42 -11 57 15 3)
1969/12/31/18:00:33.749,(23 90 69 44 3 -33 -26 -28)
1969/12/31/18:00:33.751,(19 -44 4 14 -5 30 10 26)
1969/12/31/18:00:33.751,(-45 -84 -41 -19 5 7 5 -21)
1969/12/31/18:00:33.763,(-37 -62 -57 -16 -18 -7 -7 -39)
1969/12/31/18:00:33.763,(-13 -4 5 14 15 -10 19 40)
1969/12/31/18:00:33.772,(-28 53 30 12 33 6 -23 -55)
1969/12/31/18:00:33.772,(10 15 27 -13 -23 -7 -15 -20)
1969/12/31/18:00:33.786,(-8 -83 -35 22 26 14 31 27)
1969/12/31/18:00:33.786,(-5 -15 -42 -41 -21 9 -22 0)
1969/12/31/18:00:33.793,(-11 84 62 35 21 10 -3 -19)
1969/12/31/18:00:33.793,(15 -16 6 8 13 2 -2 -9)
1969/12/31/18:00:33.810,(29 78 75 21 10 13 18 18)
1969/12/31/18:00:33.810,(23 51 44 35 16 -24 -11 24)
1969/12/31/18:00:33.811,(-43 -128 -128 -52 -6 13 -3 -16)
1969/12/31/18:00:33.811,(42 126 92 2 -19 -7 12 10)
1969/12/31/18:00:33.823,(39 35 21 16 9 2 3 64)
1969/12/31/18:00:33.823,(-28 -38 -41 -24 -2 -4 -14 -63)
1969/12/31/18:00:33.832,(-15 -10 39 17 -6 -10 2 3)
1969/12/31/18:00:33.832,(26 9 -28 -12 -11 -15 -8 19)
1969/12/31/18:00:33.846,(-21 -37 -12 15 28 0 0 -25)
1969/12/31/18:00:33.846,(38 23 -1 -26 -9 13 -28 -5)
1969/12/31/18:00:33.853,(37 32 41 18 3 8 29 48)
1969/12/31/18:00:33.853,(-61 -115 -101 -27 -14 -1 -14 -38)
1969/12/31/18:00:33.870,(26 95 49 -25 3 23 5 32)
1969/12/31/18:00:33.870,(-36 -44 -5 31 34 11 38 18)
1969/12/31/18:00:33.871,(18 3 1 -2 -6 -16 -11 -26)
1969/12/31/18:00:33.871,(-4 -54 -11 -2 10 21 -9 -14)
1969/12/31/18:00:33.883,(-58 -128 -128 -37 -20 -37 -31 -43)
1969/12/31/18:00:33.883,(38 93 53 30 10 6 8 17)
1969/12/31/18:00:33.892,(15 0 48 0 -15 -3 0 12)
1969/12/31/18:00:33.892,(-45 -2 -30 -11 -18 -9 4 -6)
1969/12/31/18:00:33.906,(-17 1 21 5 3 1 -11 -20)
1969/12/31/18:00:33.906,(7 -128 -87 -22 -16 -19 -1 25)
1969/12/31/18:00:33.913,(-9 99 73 18 8 -7 -13 -55)
1969/12/31/18:00:33.913,(26 24 14 -5 -3 3 -4 11)
1969/12/31/18:00:33.930,(-55 -86 -58 -12 -19 -6 0 -5)
1969/12/31/18:00:33.930,(-22 0 18 3 -4 13 -6 -15)
1969/12/31/18:00:33.931,(38 59 20 16 23 -4 13 38)
1969/12/31/18:00:33.931,(-5 -47 -39 -21 -21 5 8 4)
1969/12/31/18:00:33.943,(64 101 52 31 28 10 13 45)
1969/12/31/18:00:33.943,(-32 -106 -55 -30 -27 -32 -11 13)
1969/12/31/18:00:33.952,(3 39 30 26 5 3 -4 -2)
1969/12/31/18:00:33.952,(46 29 -9 -12 7 -11 15 45)
1969/12/31/18:00:33.966,(-35 -23 10 -12 -40 -22 -23 -30)
1969/12/31/18:00:33.966,(12 -65 -71 -23 19 43 8 6)
1969/12/31/18:00:33.973,(39 66 44 10 14 14 2 31)
1969/12/31/18:00:33.973,(-36 -59 -39 14 12 8 19 28)
1969/12/31/18:00:33.990,(13 79 63 -4 -16 -23 -24 -39)
1969/12/31/18:00:33.990,(12 -17 -26 -26 -26 -20 -1 -13)
1969/12/31/18:00:33.991,(11 44 40 17 -1 1 19 9)
1969/12/31/18:00:33.991,(-29 -23 10 22 21 3 -8 14)
1969/12/31/18:00:34.012,(-6 -13 -13 -7 -6 6 5 -1)
1969/12/31/18:00:34.012,(-8 -41 -22 0 -13 -24 -7 -29)
1969/12/31/18:00:34.014,(-50 -128 -118 -53 -31 3 2 28)
1969/12/31/18:00:34.014,(33 47 -10 -28 -23 1 6 10)
1969/12/31/18:00:34.026,(17 77 95 71 35 5 6 -19)
1969/12/31/18:00:34.027,(-10 -31 -27 -14 -19 -18 2 21)
1969/12/31/18:00:34.033,(1 -102 -99 -7 25 -16 -7 -16)
1969/12/31/18:00:34.033,(33 107 87 24 -7 30 -20 6)
1969/12/31/18:00:34.050,(6 -36 -41 -34 -17 5 11 -5)
1969/12/31/18:00:34.050,(47 127 95 24 13 13 11 31)
1969/12/31/18:00:34.051,(-19 -35 -18 20 32 2 8 10)
1969/12/31/18:00:34.051,(-12 -31 -27 -4 -11 -20 -23 -50)
1969/12/31/18:00:34.072,(12 -11 -22 -30 -19 14 3 4)
1969/12/31/18:00:34.072,(-7 36 67 26 -7 -23 -19 2)
1969/12/31/18:00:34.073,(-4 -96 -58 -22 30 39 9 6)
1969/12/31/18:00:34.073,(-19 -39 -40 -13 -9 -33 -15 -32)
1969/12/31/18:00:34.086,(38 72 39 26 14 5 21 60)
1969/12/31/18:00:34.086,(-3 -5 6 7 15 4 -9 -35)
1969/12/31/18:00:34.093,(0 -56 -32 -14 -29 -13 -2 19)
1969/12/31/18:00:34.093,(-51 -11 7 -1 6 11 4 -4)
1969/12/31/18:00:34.110,(-6 -10 1 -12 -11 0 7 21)
1969/12/31/18:00:34.110,(-11 -61 -52 -4 4 1 -8 -20)
1969/12/31/18:00:34.111,(15 120 67 7 -2 -1 1 -6)
1969/12/31/18:00:34.111,(-4 -10 -25 -6 3 4 5 15)
1969/12/31/18:00:34.132,(-29 -28 -21 14 21 -3 -34 -91)
1969/12/31/18:00:34.132,(7 24 13 16 18 -5 -17 -19)
1969/12/31/18:00:34.134,(-12 -45 -10 -27 -40 17 3 -12)
1969/12/31/18:00:34.134,(-20 -106 -109 -42 -21 -27 -4 -14)
1969/12/31/18:00:34.146,(42 88 95 41 1 -19 3 -1)
1969/12/31/18:00:34.146,(-38 -15 -38 -9 12 23 -17 -24)
1969/12/31/18:00:34.155,(1 40 61 33 13 -14 -4 -5)
1969/12/31/18:00:34.155,(-4 1 18 -10 -7 8 0 -6)
1969/12/31/18:00:34.169,(17 -48 -82 -18 14 -1 13 16)
1969/12/31/18:00:34.169,(-24 -112 -39 -13 2 5 21 22)
1969/12/31/18:00:34.171,(10 104 63 21 -12 -23 -27 -38)
1969/12/31/18:00:34.171,(-9 3 16 13 10 12 2 -61)
1969/12/31/18:00:34.192,(-8 -102 -33 7 6 -9 -23 -3)
1969/12/31/18:00:34.192,(32 70 16 5 20 -4 7 13)
1969/12/31/18:00:34.193,(-23 -64 -62 -41 -42 10 2 -14)
1969/12/31/18:00:34.194,(-9 -26 11 -1 -12 -11 11 52)
1969/12/31/18:00:34.206,(-6 22 -2 -15 -22 -22 12 11)
1969/12/31/18:00:34.206,(26 28 7 -6 2 23 -3 11)
1969/12/31/18:00:34.215,(8 42 64 32 25 -2 5 21)
1969/12/31/18:00:34.215,(-27 -11 -6 -4 2 -9 -9 -24)
1969/12/31/18:00:34.229,(-11 -2 -10 -22 1 24 21 3)
1969/12/31/18:00:34.229,(9 16 13 3 -9 -6 13 33)
1969/12/31/18:00:34.231,(-18 -88 -82 -29 -19 -15 -8 8)
1969/12/31/18:00:34.231,(28 -6 -54 -21 -4 3 1 -2)
1969/12/31/18:00:34.252,(-17 22 53 51 25 4 -12 -14)
1969/12/31/18:00:34.252,(4 -20 -27 -14 -19 3 5 5)
1969/12/31/18:00:34.253,(-4 -68 -44 5 13 0 16 40)
1969/12/31/18:00:34.253,(42 37 32 17 25 4 -4 -21)
1969/12/31/18:00:34.266,(-21 -104 -101 -53 -39 -5 -24 -38)
1969/12/31/18:00:34.266,(-1 121 87 18 -7 -11 -8 -15)
1969/12/31/18:00:34.275,(-28 -94 -88 -19 -2 -6 -3 -13)
1969/12/31/18:00:34.275,(34 83 42 26 12 5 19 61)
1969/12/31/18:00:34.290,(-43 -2 44 26 12 -13 -36 -69)
1969/12/31/18:00:34.290,(-30 -25 -36 -29 -42 0 9 -21)
1969/12/31/18:00:34.291,(49 73 69 14 9 1 4 13)
1969/12/31/18:00:34.291,(20 -9 -4 11 -23 -37 -10 -3)
1969/12/31/18:00:34.312,(7 -51 -54 -23 37 52 -1 15)
1969/12/31/18:00:34.312,(24 26 50 36 -2 -16 3 28)
1969/12/31/18:00:34.313,(-25 -67 -76 -24 -9 -12 -14 -65)
1969/12/31/18:00:34.313,(-3 44 19 15 0 14 1 -14)
1969/12/31/18:00:34.326,(35 -51 -60 -6 6 -13 5 40)
1969/12/31/18:00:34.326,(-6 97 86 35 10 10 3 -28)
1969/12/31/18:00:34.335,(10 12 -2 -2 -6 2 1 -6)
1969/12/31/18:00:34.335,(50 20 65 41 41 7 9 79)
1969/12/31/18:00:34.350,(-31 -110 -89 -49 -13 -2 2 -5)
1969/12/31/18:00:34.350,(-19 38 19 0 10 10 0 -13)
1969/12/31/18:00:34.351,(-9 -44 -21 -10 -12 -17 -13 -23)
1969/12/31/18:00:34.351,(-12 61 19 -6 -12 -5 -18 -44)
1969/12/31/18:00:34.372,(19 68 27 11 -4 0 0 15)
1969/12/31/18:00:34.372,(-42 -128 -128 -45 -7 -5 0 27)
1969/12/31/18:00:34.373,(45 103 109 87 60 23 25 45)
1969/12/31/18:00:34.373,(-33 -123 -79 -26 -65 -17 -3 -10)
1969/12/31/18:00:34.385,(34 -44 -38 -38 -28 8 6 23)
1969/12/31/18:00:34.386,(-12 34 53 18 7 -21 -15 -40)
1969/12/31/18:00:34.395,(-7 -42 -49 -22 -6 2 -12 -3)
1969/12/31/18:00:34.395,(-11 1 26 24 49 20 28 16)
1969/12/31/18:00:34.409,(-38 -42 -14 -3 -28 -16 -3 -14)
1969/12/31/18:00:34.409,(34 -96 -82 -23 -5 -3 -2 43)
1969/12/31/18:00:34.411,(-33 21 7 -26 -24 -15 -18 -36)
1969/12/31/18:00:34.411,(16 52 41 15 25 6 -1 13)
1969/12/31/18:00:34.432,(-10 -10 -10 13 17 -13 2 -2)
1969/12/31/18:00:34.432,(7 -16 -12 -27 -37 14 -2 3)
1969/12/31/18:00:34.433,(-19 -6 -45 -27 -27 -2 -10 -13)
1969/12/31/18:00:34.433,(-12 -70 5 2 6 0 -5 -14)
1969/12/31/18:00:34.446,(-17 103 16 9 -6 -23 -5 13)
1969/12/31/18:00:34.446,(12 23 28 19 16 9 -6 -19)
1969/12/31/18:00:34.462,(0 -85 -99 -37 -24 -18 -11 3)
1969/12/31/18:00:34.462,(22 77 69 72 21 18 18 20)
1969/12/31/18:00:34.470,(15 -104 -87 -11 16 -3 -12 -2)
1969/12/31/18:00:34.470,(14 -3 -9 5 6 -7 2 -15)
1969/12/31/18:00:34.471,(-12 -49 -31 -29 -8 7 6 -1)
1969/12/31/18:00:34.471,(-15 -18 -37 -25 0 -1 -18 -15)
1969/12/31/18:00:34.492,(16 70 81 38 23 5 9 6)
1969/12/31/18:00:34.492,(4 -26 -26 -24 -45 -4 11 2)
1969/12/31/18:00:34.494,(-2 30 33 18 14 0 -1 -8)
1969/12/31/18:00:34.494,(7 0 -8 -10 -15 -3 -8 8)
1969/12/31/18:00:34.506,(-24 -64 -43 -30 -14 8 -2 -16)
1969/12/31/18:00:34.506,(13 44 9 -6 11 -15 -8 -23)
1969/12/31/18:00:34.515,(38 127 122 64 27 11 -3 12)
1969/12/31/18:00:34.515,(-13 -87 -44 -13 -10 9 14 16)
1969/12/31/18:00:34.530,(-22 -10 -16 1 -9 -9 -3 -27)
1969/12/31/18:00:34.530,(-8 -50 -32 -11 15 2 10 24)
1969/12/31/18:00:34.531,(-1 -16 -22 -8 3 -19 -29 -53)
1969/12/31/18:00:34.531,(1 20 1 -21 4 30 1 -15)
1969/12/31/18:00:34.552,(-13 -6 1 6 9 10 10 3)
1969/12/31/18:00:34.552,(-33 -54 -35 -13 -36 -22 -19 -21)
1969/12/31/18:00:34.553,(7 52 52 14 4 8 18 24)
1969/12/31/18:00:34.553,(-21 -67 -47 -6 19 2 -7 -21)
1969/12/31/18:00:34.565,(23 94 36 -12 -24 3 10 10)
1969/12/31/18:00:34.565,(27 48 69 55 43 -2 -9 10)
1969/12/31/18:00:34.575,(15 -128 -121 -37 -13 6 0 16)
1969/12/31/18:00:34.575,(-13 99 31 -13 -16 -7 -6 -50)
1969/12/31/18:00:34.590,(15 40 50 22 6 14 4 24)
1969/12/31/18:00:34.590,(-21 -90 -75 -9 0 -14 -3 8)
1969/12/31/18:00:34.591,(-39 33 -39 -17 -10 -14 0 -12)
1969/12/31/18:00:34.591,(72 51 45 33 14 6 8 13)
1969/12/31/18:00:34.612,(-17 -43 -2 11 11 3 3 -24)
1969/12/31/18:00:34.612,(7 -3 -9 -16 -12 -6 -13 -10)
1969/12/31/18:00:34.613,(-56 -61 4 4 22 12 7 -16)
1969/12/31/18:00:34.613,(-15 -13 -20 -30 -40 0 10 18)
1969/12/31/18:00:34.626,(-1 13 18 2 -9 -8 -3 -12)
1969/12/31/18:00:34.626,(-11 -46 -40 -9 18 5 -5 -3)
1969/12/31/18:00:34.634,(3 -38 -26 -18 -13 3 15 24)
1969/12/31/18:00:34.634,(-35 57 54 27 19 -15 -29 -42)
1969/12/31/18:00:34.657,(21 -3 -5 6 -1 7 18 51)
1969/12/31/18:00:34.657,(-52 -53 -30 -6 0 1 -6 -47)
1969/12/31/18:00:34.658,(18 -8 -10 -13 -17 -5 -10 -7)
1969/12/31/18:00:34.658,(-5 71 72 45 19 8 13 5)
1969/12/31/18:00:34.672,(-20 -117 -85 -25 -17 -14 -17 -31)
1969/12/31/18:00:34.672,(-2 -16 -51 -1 18 9 19 29)
1969/12/31/18:00:34.674,(-3 108 99 28 -13 -7 -16 -12)
1969/12/31/18:00:34.674,(-20 -128 -112 -51 -17 -7 -9 -8)
1969/12/31/18:00:34.686,(-1 79 63 28 12 -7 -6 -5)
1969/12/31/18:00:34.686,(49 25 12 -1 -3 9 27 59)
1969/12/31/18:00:34.695,(18 -68 -36 -11 -7 0 -1 2)
1969/12/31/18:00:34.695,(-24 -9 -12 -11 -6 -8 10 15)
1969/12/31/18:00:34.709,(-5 -1 8 -1 -2 -3 -6 -11)
1969/12/31/18:00:34.709,(-5 -51 -12 2 6 1 -4 1)
1969/12/31/18:00:34.716,(4 38 -3 -6 -14 -5 -6 0)
1969/12/31/18:00:34.716,(38 91 83 28 4 -2 9 21)
1969/12/31/18:00:34.732,(-4 -30 -16 11 28 11 9 15)
1969/12/31/18:00:34.732,(-2 -50 -60 -34 -38 4 -13 -6)
1969/12/31/18:00:34.733,(24 87 88 31 8 10 22 43)
1969/12/31/18:00:34.733,(14 48 34 8 4 -17 -32 -57)
1969/12/31/18:00:34.746,(12 30 12 -1 -11 -10 0 -4)
1969/12/31/18:00:34.746,(-30 -33 12 25 30 6 0 -38)
1969/12/31/18:00:34.755,(16 -76 -71 5 31 -2 -4 33)
1969/12/31/18:00:34.755,(1 -19 -74 -65 -66 -11 -22 -19)
1969/12/31/18:00:34.769,(-10 86 102 41 7 10 14 5)
1969/12/31/18:00:34.769,(41 23 6 1 -8 -1 -13 -25)
1969/12/31/18:00:34.775,(-40 -43 -23 -3 7 -1 -4 -50)
1969/12/31/18:00:34.775,(-25 -128 -103 -13 23 5 1 12)
1969/12/31/18:00:34.792,(-10 -18 -74 -29 -22 -15 -21 -13)
1969/12/31/18:00:34.792,(17 99 90 24 -5 3 10 22)
1969/12/31/18:00:34.794,(-19 -27 11 8 10 3 8 -1)
1969/12/31/18:00:34.794,(13 -22 -10 1 3 9 14 24)
1969/12/31/18:00:34.806,(30 -45 -57 -25 -12 -1 2 11)
1969/12/31/18:00:34.806,(-8 112 97 34 20 4 0 -17)
1969/12/31/18:00:34.822,(-5 1 -11 -16 -18 1 8 -13)
1969/12/31/18:00:34.822,(0 -52 -32 -6 3 -17 -18 -13)
1969/12/31/18:00:34.829,(-24 -57 -31 -25 -6 11 -1 5)
1969/12/31/18:00:34.829,(-1 -22 -36 -15 -8 -6 10 10)
1969/12/31/18:00:34.831,(-7 -17 7 13 11 -8 -2 -6)
1969/12/31/18:00:34.831,(0 21 -23 -17 -37 9 3 19)
1969/12/31/18:00:34.852,(22 77 81 23 4 -11 -2 1)
1969/12/31/18:00:34.852,(9 -25 -31 -15 -9 1 0 7)
1969/12/31/18:00:34.854,(5 -16 -15 2 -3 0 0 7)
1969/12/31/18:00:34.854,(-17 -128 -128 -39 1 -5 6 14)
1969/12/31/18:00:34.866,(31 95 87 36 14 3 -13 -5)
1969/12/31/18:00:34.866,(31 22 21 3 -4 -3 8 -3)
1969/12/31/18:00:34.875,(-1 -46 -6 -9 -15 -4 -8 8)
1969/12/31/18:00:34.875,(-43 -59 -48 -2 21 3 4 -21)
1969/12/31/18:00:34.889,(-29 -19 -29 -10 0 1 -15 -40)
1969/12/31/18:00:34.889,(8 4 1 6 6 -4 17 74)
1969/12/31/18:00:34.891,(20 48 21 -11 -24 -7 0 8)
1969/12/31/18:00:34.891,(16 -2 6 -3 23 6 0 7)
1969/12/31/18:00:34.912,(-21 -49 -19 14 12 -2 3 -5)
1969/12/31/18:00:34.912,(-3 -2 -17 -21 -23 21 14 7)
1969/12/31/18:00:34.914,(-37 -6 -11 12 20 14 -11 -24)
1969/12/31/18:00:34.914,(-1 42 57 46 34 -12 4 10)
1969/12/31/18:00:34.935,(6 -23 -24 -39 -51 -19 10 13)
1969/12/31/18:00:34.935,(0 29 15 9 14 12 -1 -5)
1969/12/31/18:00:34.937,(19 -43 -39 -25 -16 -3 -1 19)
1969/12/31/18:00:34.937,(29 96 80 13 -4 2 -13 -4)
1969/12/31/18:00:34.957,(0 -31 -26 -6 6 -6 -9 -3)
1969/12/31/18:00:34.957,(-21 14 11 7 4 -6 -1 -19)
1969/12/31/18:00:34.959,(-23 30 20 3 3 3 5 -4)
1969/12/31/18:00:34.959,(30 8 7 4 1 -5 -2 7)
1969/12/31/18:00:34.972,(12 -40 -22 6 8 17 11 -5)
1969/12/31/18:00:34.972,(9 -10 -15 -17 -14 -13 21 8)
1969/12/31/18:00:34.973,(-34 1 -2 -8 1 -7 27 6)
1969/12/31/18:00:34.973,(-51 -15 9 17 12 2 25 -23)
1969/12/31/18:00:34.995,(29 10 -8 -9 16 22 -41 -21)
1969/12/31/18:00:34.995,(-25 -40 -16 9 17 -19 -20 -15)
1969/12/31/18:00:34.996,(20 18 6 7 -9 -23 -31 -5)
1969/12/31/18:00:34.996,(-6 1 8 -3 -15 -19 13 33)
1969/12/31/18:00:35.010,(37 53 2 -11 -9 9 3 17)
1969/12/31/18:00:35.010,(-43 -64 -20 -17 -10 -10 -24 -22)
1969/12/31/18:00:35.016,(34 6 -2 -2 5 15 15 17)
1969/12/31/18:00:35.016,(-43 -11 10 2 -6 8 -7 4)
1969/12/31/18:00:35.032,(3 -18 -7 4 3 -2 3 4)
1969/12/31/18:00:35.032,(79 66 16 11 12 5 3 42)
1969/12/31/18:00:35.034,(14 23 -8 -9 -8 1 3 -7)
1969/12/31/18:00:35.034,(21 -1 -3 -3 0 10 -1 -1)
1969/12/31/18:00:35.054,(-68 -69 -18 -14 -14 -14 13 -23)
1969/12/31/18:00:35.055,(42 0 3 11 12 12 -1 11)
1969/12/31/18:00:35.056,(-10 21 15 7 7 2 -15 -17)
1969/12/31/18:00:35.056,(-10 12 10 4 0 -2 42 40)
1969/12/31/18:00:35.068,(15 6 -4 -1 5 -11 -74 -24)
1969/12/31/18:00:35.068,(8 -20 -13 -7 -7 -9 -6 -4)
1969/12/31/18:00:35.077,(1 11 14 12 7 -4 -6 -2)
1969/12/31/18:00:35.077,(31 20 4 1 -3 6 -3 6)
1969/12/31/18:00:35.092,(-58 -34 -9 -3 -7 -3 27 7)
1969/12/31/18:00:35.092,(-41 -4 12 13 7 7 2 -32)
1969/12/31/18:00:35.094,(2 -22 -31 -22 -18 -19 -32 -13)
1969/12/31/18:00:35.094,(-20 -45 -44 -27 -16 -7 -27 -33)
1969/12/31/18:00:35.114,(8 34 31 20 10 4 17 15)
1969/12/31/18:00:35.114,(-6 -4 -4 -6 -4 -1 -4 -8)
1969/12/31/18:00:35.116,(-78 -98 -27 1 7 9 13 -10)
1969/12/31/18:00:35.116,(69 107 54 14 2 4 -4 9)
1969/12/31/18:00:35.128,(-7 -32 -45 -26 -16 -12 7 28)
1969/12/31/18:00:35.128,(12 33 9 1 0 2 3 3)
1969/12/31/18:00:35.137,(28 8 7 4 2 1 7 29)
1969/12/31/18:00:35.137,(-39 -75 -39 -14 -8 -5 -16 -31)
1969/12/31/18:00:35.152,(-2 -4 2 2 2 4 6 -8)
1969/12/31/18:00:35.152,(-47 -17 -1 -4 -4 -3 -7 -19)
1969/12/31/18:00:35.154,(28 11 -14 -5 0 2 7 24)
1969/12/31/18:00:35.154,(28 62 41 -3 -10 -8 -15 -9)
1969/12/31/18:00:35.173,(1 7 5 5 -1 0 9 13)
1969/12/31/18:00:35.173,(-6 -15 0 15 12 3 0 7)
1969/12/31/18:00:35.182,(11 8 8 7 1 3 4 -3)
1969/12/31/18:00:35.182,(-5 -21 -16 -4 0 1 -1 4)
1969/12/31/18:00:35.188,(4 1 -22 -35 -11 -5 1 -7)
1969/12/31/18:00:35.188,(-8 -14 -5 -2 -5 -3 -2 -2)
1969/12/31/18:00:35.197,(-4 28 30 12 5 2 -3 -15)
1969/12/31/18:00:35.197,(-6 -4 7 33 8 1 -4 -6)
1969/12/31/18:00:35.212,(7 -24 -18 1 3 2 5 14)
1969/12/31/18:00:35.212,(-1 58 34 -2 -2 -2 -5 -12)
1969/12/31/18:00:35.213,(-8 -2 -4 -15 -7 -3 -2 -5)
1969/12/31/18:00:35.213,(0 -17 -44 -19 -10 -1 -1 3)
1969/12/31/18:00:35.235,(15 27 39 19 13 5 6 7)
1969/12/31/18:00:35.235,(-6 -23 -14 -1 -3 0 -1 1)
1969/12/31/18:00:35.236,(-9 10 13 -6 -1 -3 -4 -16)
1969/12/31/18:00:35.236,(2 -27 -1 7 0 -2 -1 11)
1969/12/31/18:00:35.248,(3 4 -15 -5 -5 -3 4 7)
1969/12/31/18:00:35.248,(-4 6 2 -4 3 10 13 8)
1969/12/31/18:00:35.257,(-8 -5 -4 -1 -3 -4 -4 -8)
1969/12/31/18:00:35.257,(-4 -17 -20 -13 -4 -1 -6 -8)
1969/12/31/18:00:35.272,(3 -11 -6 -2 -3 -2 7 18)
1969/12/31/18:00:35.272,(8 20 19 10 2 -3 -19 -9)
1969/12/31/18:00:35.274,(0 -9 -13 -3 -1 1 4 -3)
1969/12/31/18:00:35.274,(-4 -30 -28 -18 -5 2 2 -3)
1969/12/31/18:00:35.295,(2 34 29 11 3 2 4 4)
1969/12/31/18:00:35.295,(-13 -35 -29 -12 -9 -12 -18 -17)
1969/12/31/18:00:35.297,(4 28 1 6 4 1 -3 -1)
1969/12/31/18:00:35.297,(-1 6 9 1 2 -1 -1 -12)
1969/12/31/18:00:35.308,(-4 -9 5 3 1 1 4 9)
1969/12/31/18:00:35.308,(-4 -28 -37 -17 -9 -5 -4 -9)
1969/12/31/18:00:35.317,(-1 5 12 3 0 -2 2 5)
1969/12/31/18:00:35.317,(2 5 3 0 1 -1 -3 2)
1969/12/31/18:00:35.332,(-11 -63 -44 -13 -7 -2 1 -6)
1969/12/31/18:00:35.332,(0 30 5 -5 -1 -3 0 4)
1969/12/31/18:00:35.334,(10 27 34 14 6 2 2 3)
1969/12/31/18:00:35.334,(0 4 5 -1 -3 -2 -4 2)
1969/12/31/18:00:35.355,(0 10 5 1 1 2 -7 -10)
1969/12/31/18:00:35.355,(-8 -60 -53 -26 -8 -1 12 8)
1969/12/31/18:00:35.356,(11 50 64 29 7 -1 -16 -6)
1969/12/31/18:00:35.356,(-5 20 15 7 3 -1 -5 -10)
1969/12/31/18:00:35.368,(-5 -9 -2 1 -2 -5 -4 -6)
1969/12/31/18:00:35.368,(-2 -10 -8 -4 -4 -1 1 3)
1969/12/31/18:00:35.377,(2 -9 -28 -15 -4 0 4 6)
1969/12/31/18:00:35.377,(-2 4 10 -2 -4 -3 -3 1)
1969/12/31/18:00:35.392,(-1 4 -3 1 1 -2 -7 -9)
1969/12/31/18:00:35.392,(-3 -4 3 2 2 3 3 0)
1969/12/31/18:00:35.394,(-1 -20 -16 -7 -8 -5 5 8)
1969/12/31/18:00:35.394,(1 7 10 9 5 -1 -7 -8)
1969/12/31/18:00:35.415,(6 12 0 -1 -1 2 6 0)
1969/12/31/18:00:35.415,(-3 14 22 8 2 -1 -2 -1)
1969/12/31/18:00:35.416,(-6 -18 -13 -6 -1 -2 -4 -2)
1969/12/31/18:00:35.416,(-4 -28 -25 -16 -6 -2 2 2)
1969/12/31/18:00:35.428,(6 35 36 16 4 0 -1 -3)
1969/12/31/18:00:35.428,(2 9 5 1 0 1 -1 -1)
1969/12/31/18:00:35.437,(1 -13 -8 -2 -5 -6 1 3)
1969/12/31/18:00:35.437,(8 7 -12 -5 1 12 8 1)
1969/12/31/18:00:35.452,(-8 -3 12 7 2 -3 -4 -4)
1969/12/31/18:00:35.452,(-5 6 -2 1 0 -1 -4 -4)
1969/12/31/18:00:35.454,(-7 -14 -11 -1 -2 -1 -4 -3)
1969/12/31/18:00:35.454,(7 7 10 2 1 3 10 15)
1969/12/31/18:00:35.475,(17 15 -7 -2 -2 1 3 5)
1969/12/31/18:00:35.475,(-13 -13 1 0 0 -4 -6 -10)
1969/12/31/18:00:35.476,(-11 -17 -17 -8 -2 1 2 0)
1969/12/31/18:00:35.476,(-5 -3 0 -1 -1 -3 -3 -3)
1969/12/31/18:00:35.488,(-7 -14 6 -1 -1 1 -3 -5)
1969/12/31/18:00:35.489,(13 19 6 4 0 -3 -1 0)
1969/12/31/18:00:35.497,(5 2 -4 -3 0 2 0 3)
1969/12/31/18:00:35.497,(2 9 13 8 1 2 1 1)
1969/12/31/18:00:35.512,(-7 -21 -27 -18 -10 -5 -2 -1)
1969/12/31/18:00:35.512,(-4 4 0 -8 -3 0 -2 -2)
1969/12/31/18:00:35.513,(-3 0 27 20 9 4 6 3)
1969/12/31/18:00:35.513,(0 1 4 -6 -3 -5 -7 -7)
1969/12/31/18:00:35.534,(5 20 -16 3 3 0 3 0)
1969/12/31/18:00:35.534,(0 -31 -14 -5 -3 0 0 0)
1969/12/31/18:00:35.536,(0 12 -12 -6 -5 -2 0 -1)
1969/12/31/18:00:35.536,(1 15 4 2 0 -4 -2 0)
1969/12/31/18:00:35.548,(-20 -30 -5 -8 -6 -4 -10 -13)
1969/12/31/18:00:35.548,(6 -2 -16 -17 -5 -2 0 0)
1969/12/31/18:00:35.563,(-6 -30 1 6 3 0 -5 -6)
1969/12/31/18:00:35.563,(-9 -27 -21 -15 -8 1 7 5)
1969/12/31/18:00:35.572,(2 49 7 -13 -10 -9 -9 -8)
1969/12/31/18:00:35.572,(6 8 40 35 14 6 2 4)
1969/12/31/18:00:35.574,(-7 -9 -28 -18 -5 -1 1 -1)
1969/12/31/18:00:35.574,(11 24 6 4 3 3 4 8)
1969/12/31/18:00:35.594,(-24 -35 13 -13 -9 -7 -9 -16)
1969/12/31/18:00:35.594,(10 16 9 4 -8 -8 -8 -4)
1969/12/31/18:00:35.596,(13 22 12 23 17 8 9 6)
1969/12/31/18:00:35.596,(-9 -9 6 2 -2 -1 -2 -2)
1969/12/31/18:00:35.608,(7 -6 2 3 4 2 2 5)
1969/12/31/18:00:35.608,(-7 -4 -12 -10 -4 -3 -1 -2)
1969/12/31/18:00:35.617,(5 19 22 -2 -6 -4 -6 -4)
1969/12/31/18:00:35.617,(-4 4 1 -1 -2 -2 -2 -2)
1969/12/31/18:00:35.632,(-5 -43 -27 -14 -2 2 -1 -2)
1969/12/31/18:00:35.632,(-2 24 42 26 11 1 2 -2)
1969/12/31/18:00:35.633,(5 -10 -19 -5 -3 -1 1 5)
1969/12/31/18:00:35.633,(-1 14 9 6 1 -1 -3 -2)
1969/12/31/18:00:35.655,(-2 12 22 13 2 0 -1 -3)
1969/12/31/18:00:35.655,(-10 -31 -33 -20 -11 -4 0 0)
1969/12/31/18:00:35.657,(-3 -16 -13 -9 -2 -2 -3 -2)
1969/12/31/18:00:35.657,(4 21 29 10 3 -1 2 0)
1969/12/31/18:00:35.677,(5 6 -12 -3 -1 -2 -1 0)
1969/12/31/18:00:35.677,(-6 -6 -12 -3 1 -1 -2 -4)
1969/12/31/18:00:35.679,(-1 3 5 -4 -5 -2 0 -4)
1969/12/31/18:00:35.679,(5 -8 -9 -4 -2 -1 0 1)
1969/12/31/18:00:35.691,(-3 -13 -12 -5 -1 -1 1 4)
1969/12/31/18:00:35.691,(1 5 5 -1 -1 2 0 1)
1969/12/31/18:00:35.698,(1 6 0 6 2 0 -3 -1)
1969/12/31/18:00:35.698,(-5 -13 -7 -4 -2 -2 -2 -1)
1969/12/31/18:00:35.715,(5 1 -4 -3 -5 -3 -1 1)
1969/12/31/18:00:35.715,(3 10 7 14 8 2 2 3)
1969/12/31/18:00:35.716,(-8 -4 -9 -19 -11 -5 -5 -6)
1969/12/31/18:00:35.716,(3 10 9 9 3 0 -2 -3)
1969/12/31/18:00:35.728,(6 0 1 5 6 5 6 7)
1969/12/31/18:00:35.728,(-5 -17 -15 -8 -6 -4 -5 -4)
1969/12/31/18:00:35.737,(-7 6 -2 -5 -2 -2 -2 -4)
1969/12/31/18:00:35.737,(-5 -21 -13 -3 -2 -1 -2 -3)
1969/12/31/18:00:35.751,(-7 -23 -13 -6 -4 -5 -3 -5)
1969/12/31/18:00:35.751,(2 9 9 0 1 -1 3 1)
1969/12/31/18:00:35.758,(6 17 -2 4 3 2 3 3)
1969/12/31/18:00:35.758,(-8 -17 -6 -7 -6 -4 -4 -5)
1969/12/31/18:00:35.774,(4 7 2 4 3 0 1 2)
1969/12/31/18:00:35.774,(-7 -15 -12 -8 -6 -1 -1 -2)
1969/12/31/18:00:35.776,(-3 -9 1 -4 -6 -7 -5 -4)
1969/12/31/18:00:35.776,(4 -4 -3 -7 1 -1 0 1)
1969/12/31/18:00:35.788,(5 10 -4 11 4 3 1 0)
1969/12/31/18:00:35.788,(-2 -2 1 -3 0 -1 0 0)
1969/12/31/18:00:35.797,(2 6 6 1 -1 1 0 1)
1969/12/31/18:00:35.797,(0 -7 -6 -6 -4 -2 -1 -1)
1969/12/31/18:00:35.812,(-2 9 9 5 -2 -2 -3 -5)
1969/12/31/18:00:35.812,(0 -5 -9 -5 -3 -4 -1 -2)
1969/12/31/18:00:35.818,(1 -4 -3 -5 -5 0 1 -1)
1969/12/31/18:00:35.818,(-4 3 -3 3 4 3 1 -1)
1969/12/31/18:00:35.835,(0 1 -1 0 -1 -3 -2 -1)
1969/12/31/18:00:35.835,(-1 -7 -10 -8 -1 0 0 0)
1969/12/31/18:00:35.836,(-1 -2 0 -3 -2 -2 1 1)
1969/12/31/18:00:35.836,(-5 1 -9 -3 -3 -4 -6 -8)
1969/12/31/18:00:35.857,(4 10 6 1 -1 1 2 3)
1969/12/31/18:00:35.857,(0 7 -2 1 1 -1 -3 0)
1969/12/31/18:00:35.858,(-4 -7 -11 -5 -1 -2 -3 -2)
1969/12/31/18:00:35.858,(1 4 9 4 1 3 1 1)
1969/12/31/18:00:35.871,(3 2 7 2 1 1 1 3)
1969/12/31/18:00:35.871,(-5 -13 -9 -1 -3 -3 -3 -7)
1969/12/31/18:00:35.878,(-4 -19 -7 2 2 1 -1 -2)
1969/12/31/18:00:35.878,(0 14 9 2 0 -1 -1 -1)
1969/12/31/18:00:35.902,(0 -7 -1 1 -1 1 0 3)
1969/12/31/18:00:35.902,(0 4 10 4 0 1 0 2)
1969/12/31/18:00:35.904,(0 -1 -1 -4 0 -1 0 1)
1969/12/31/18:00:35.904,(-3 -8 -8 -3 -3 -3 -3 -4)
1969/12/31/18:00:35.917,(-1 1 5 2 2 -1 1 -1)
1969/12/31/18:00:35.917,(2 2 -3 -1 0 3 2 3)
1969/12/31/18:00:35.919,(-1 2 2 3 3 0 -1 0)
1969/12/31/18:00:35.919,(1 1 1 2 4 0 1 1)
1969/12/31/18:00:35.932,(-1 0 -4 -2 0 0 0 -1)
1969/12/31/18:00:35.932,(0 0 1 -1 -3 0 -1 -2)
1969/12/31/18:00:35.938,(-3 -4 0 2 -1 -1 -4 -7)
1969/12/31/18:00:35.938,(-1 0 -6 -5 -2 -3 -2 0)
1969/12/31/18:00:35.955,(-1 5 17 12 4 2 -1 -1)
1969/12/31/18:00:35.955,(-2 -4 -11 -8 -2 -1 -1 -2)
1969/12/31/18:00:35.956,(3 8 10 4 0 -2 0 1)
1969/12/31/18:00:35.956,(-5 -11 3 0 -1 1 -1 -2)
1969/12/31/18:00:35.978,(2 6 -9 -10 -10 -6 -1 -2)
1969/12/31/18:00:35.978,(2 -1 5 3 5 1 2 2)
1969/12/31/18:00:35.979,(-3 -3 -3 -2 0 -1 -2 -4)
1969/12/31/18:00:35.979,(-3 -3 -5 -4 -6 -2 -1 -1)
1969/12/31/18:00:35.991,(-4 -5 -3 -6 0 -3 -2 -3)
1969/12/31/18:00:35.991,(0 4 4 0 -1 0 0 0)
1969/12/31/18:00:35.998,(1 0 -5 -2 -2 -2 0 0)
1969/12/31/18:00:35.998,(3 5 4 2 4 0 1 1)
1969/12/31/18:00:36.015,(-2 -3 -5 -1 -1 0 1 -1)
1969/12/31/18:00:36.015,(-2 -3 -9 -5 -5 -3 -2 -1)
1969/12/31/18:00:36.017,(1 4 3 3 2 1 0 1)
1969/12/31/18:00:36.017,(-4 -3 -3 -2 -3 -2 -3 -5)
1969/12/31/18:00:36.037,(-1 -2 -3 -5 -2 1 -1 0)
1969/12/31/18:00:36.037,(0 0 4 3 2 1 1 -1)
1969/12/31/18:00:36.038,(0 1 0 0 -1 0 2 -1)
1969/12/31/18:00:36.038,(-2 -1 0 -2 -2 -2 -2 -1)
1969/12/31/18:00:36.051,(-1 -2 5 0 0 -1 -3 -2)
1969/12/31/18:00:36.051,(1 -1 -1 -2 -2 0 -2 0)
1969/12/31/18:00:36.060,(0 1 1 0 0 0 -2 -2)
1969/12/31/18:00:36.060,(0 -2 -5 -2 -1 -1 0 -1)
1969/12/31/18:00:36.075,(2 4 0 -3 0 -3 0 2)
1969/12/31/18:00:36.075,(-6 -7 0 0 -2 -1 -4 -6)
1969/12/31/18:00:36.076,(1 -5 -13 -8 1 1 3 2)
1969/12/31/18:00:36.076,(0 3 0 -1 0 -1 0 -1)
1969/12/31/18:00:36.097,(1 3 4 6 1 0 0 2)
1969/12/31/18:00:36.097,(-1 -1 -2 -5 -2 -2 0 1)
1969/12/31/18:00:36.099,(-1 0 0 0 -3 -3 -2 -1)
1969/12/31/18:00:36.099,(0 0 -4 -2 -1 -2 -1 -1)
1969/12/31/18:00:36.111,(-4 -7 -9 -9 -3 -2 -2 -3)
1969/12/31/18:00:36.111,(1 4 6 2 0 0 1 -1)
1969/12/31/18:00:36.126,(-3 -1 -1 -1 -1 -1 0 -2)
1969/12/31/18:00:36.126,(1 2 0 -1 -2 2 0 1)
1969/12/31/18:00:36.135,(-1 -2 -3 0 -3 -1 -1 -3)
1969/12/31/18:00:36.135,(-2 -2 -4 -3 1 -1 -1 -2)
1969/12/31/18:00:36.136,(-1 -5 -4 -7 -4 -3 -2 -1)
1969/12/31/18:00:36.136,(-2 2 2 2 1 -1 0 1)
1969/12/31/18:00:36.157,(-4 -3 -8 -11 -5 -1 -3 -3)
1969/12/31/18:00:36.157,(-1 2 1 2 -1 -2 -2 -3)
1969/12/31/18:00:36.159,(-1 -3 4 6 4 1 0 -2)
1969/12/31/18:00:36.159,(0 2 2 -1 0 -1 0 -1)
1969/12/31/18:00:36.180,(-6 -7 -11 -5 -2 -2 -4 -5)
1969/12/31/18:00:36.180,(-1 0 -5 -4 -3 -4 -2 0)
1969/12/31/18:00:36.182,(0 -3 2 2 1 -2 0 -1)
1969/12/31/18:00:36.182,(2 5 3 -1 -2 0 -2 1)
1969/12/31/18:00:36.196,(1 2 2 0 -1 -2 1 1)
1969/12/31/18:00:36.196,(1 1 3 4 1 0 0 1)
1969/12/31/18:00:36.197,(-4 -1 -4 -3 -2 -3 -2 -3)
1969/12/31/18:00:36.198,(0 -5 -6 0 -1 -1 -2 -3)
1969/12/31/18:00:36.216,(-2 -1 1 -5 -5 -2 -3 -4)
1969/12/31/18:00:36.216,(-1 -3 -1 2 1 1 -1 1)
1969/12/31/18:00:36.217,(0 -1 -4 -6 -4 0 -1 1)
1969/12/31/18:00:36.217,(0 2 9 5 0 -1 0 0)
1969/12/31/18:00:36.231,(1 0 -1 2 0 0 0 0)
1969/12/31/18:00:36.231,(-1 -3 0 -1 2 0 -1 -3)
1969/12/31/18:00:36.238,(-2 1 0 -2 -1 -1 0 -1)
1969/12/31/18:00:36.238,(-2 -3 -6 -4 -2 -4 -3 -2)
1969/12/31/18:00:36.255,(0 0 -2 -1 0 0 0 1)
1969/12/31/18:00:36.255,(-3 -1 -4 0 -3 -1 -2 -3)
1969/12/31/18:00:36.256,(0 0 -2 -2 1 1 -2 1)
1969/12/31/18:00:36.256,(-1 -1 -2 -3 0 -1 0 -4)
1969/12/31/18:00:36.285,(-2 -2 1 2 0 -2 -1 0)
1969/12/31/18:00:36.285,(0 -2 -4 -4 -4 -2 -2 -2)
1969/12/31/18:00:36.285,(0 -1 -2 -1 -3 -2 -2 -2)
1969/12/31/18:00:36.285,(-1 -1 -1 -2 -1 -1 -2 -1)
1969/12/31/18:00:36.291,(3 4 3 3 2 -1 0 2)
1969/12/31/18:00:36.291,(-5 -3 -2 -2 0 -1 1 0)
1969/12/31/18:00:36.298,(1 4 1 0 -1 0 -1 -2)
1969/12/31/18:00:36.298,(-1 -6 -6 0 -1 1 0 0)
1969/12/31/18:00:36.314,(0 5 11 8 3 1 -1 -2)
1969/12/31/18:00:36.314,(2 1 0 -2 -1 0 0 1)
1969/12/31/18:00:36.321,(-3 1 3 0 -1 -1 -1 0)
1969/12/31/18:00:36.321,(-3 -4 -9 -11 -4 -3 -3 -1)
1969/12/31/18:00:36.336,(0 -5 -4 1 -2 -1 -2 -2)
1969/12/31/18:00:36.336,(-1 0 -1 -1 -1 0 0 -1)
1969/12/31/18:00:36.337,(-2 -5 -4 -2 -1 -3 -3 -2)
1969/12/31/18:00:36.337,(1 3 3 3 2 1 0 0)
1969/12/31/18:00:36.350,(-1 -1 -3 -4 0 -2 -2 -1)
1969/12/31/18:00:36.351,(0 -1 2 2 1 2 0 0)
1969/12/31/18:00:36.358,(-1 -4 -5 -3 -4 -2 -2 -2)
1969/12/31/18:00:36.358,(-2 -1 0 -1 -1 0 1 -1)
1969/12/31/18:00:36.374,(-1 2 2 1 1 1 2 1)
1969/12/31/18:00:36.374,(-4 -3 -5 0 -1 -1 -3 -4)
1969/12/31/18:00:36.374,(-3 0 -4 -2 -1 0 0 -3)
1969/12/31/18:00:36.374,(0 1 4 4 2 1 1 1)
1969/12/31/18:00:36.397,(2 -2 6 3 1 1 -1 3)
1969/12/31/18:00:36.397,(1 2 1 -4 -2 -1 1 1)
1969/12/31/18:00:36.397,(-1 -2 -6 -1 0 0 -3 -3)
1969/12/31/18:00:36.397,(-3 -3 1 -1 -2 -2 -4 -5)
1969/12/31/18:00:36.411,(-2 -1 -9 -3 -3 -1 -2 -1)
1969/12/31/18:00:36.411,(-2 -4 2 -2 -3 -2 -2 -2)
1969/12/31/18:00:36.419,(2 2 10 6 3 1 3 1)
1969/12/31/18:00:36.419,(0 4 -1 -1 -2 0 -2 0)
1969/12/31/18:00:36.434,(0 2 1 0 0 -1 -1 -2)
1969/12/31/18:00:36.434,(0 -1 -1 -7 -6 -2 0 -2)
1969/12/31/18:00:36.435,(-1 -4 -7 3 1 -1 0 -1)
1969/12/31/18:00:36.435,(-2 -3 1 0 -4 -3 -3 -3)
1969/12/31/18:00:36.457,(-1 -1 0 0 1 -1 0 1)
1969/12/31/18:00:36.457,(1 -1 0 1 0 -2 -2 -2)
1969/12/31/18:00:36.458,(0 0 -1 -7 -3 -1 0 0)
1969/12/31/18:00:36.458,(0 1 1 1 0 0 -1 1)
1969/12/31/18:00:36.471,(-1 2 -6 -4 -3 -1 -3 -3)
1969/12/31/18:00:36.471,(1 -3 2 6 3 1 0 1)
1969/12/31/18:00:36.479,(-1 1 3 1 -1 0 -1 0)
1969/12/31/18:00:36.479,(-2 -3 -3 -3 -2 -3 -3 -4)
1969/12/31/18:00:36.494,(-2 -2 -6 -3 -2 -1 0 -1)
1969/12/31/18:00:36.494,(-3 -4 -5 -3 -2 -1 -1 -3)
1969/12/31/18:00:36.495,(2 0 -4 -9 -4 1 -1 1)
1969/12/31/18:00:36.495,(-1 3 5 6 2 -1 0 -1)
1969/12/31/18:00:36.516,(-1 -4 -2 -2 0 0 -1 0)
1969/12/31/18:00:36.516,(1 2 -3 -1 0 -1 -1 -1)
1969/12/31/18:00:36.517,(-2 0 8 4 1 0 0 0)
1969/12/31/18:00:36.517,(-4 -9 -15 -7 -6 -4 -5 -4)
1969/12/31/18:00:36.532,(-1 3 2 -3 -3 0 1 -2)
1969/12/31/18:00:36.532,(-2 -7 -4 -1 -1 -3 -1 -1)
1969/12/31/18:00:36.539,(-1 2 2 5 2 0 0 2)
1969/12/31/18:00:36.539,(-1 -5 -4 -4 -3 0 1 2)
1969/12/31/18:00:36.554,(-2 1 4 1 2 0 -2 -2)
1969/12/31/18:00:36.554,(-1 4 0 -4 -2 -2 -2 0)
1969/12/31/18:00:36.555,(-1 -5 -6 -4 -3 -2 -2 -2)
1969/12/31/18:00:36.555,(0 2 3 3 0 0 0 2)
1969/12/31/18:00:36.576,(-3 -6 -9 -6 -5 -3 -3 -2)
1969/12/31/18:00:36.576,(3 6 7 1 0 0 0 4)
1969/12/31/18:00:36.577,(-4 -4 -3 -3 -2 -4 -5 -7)
1969/12/31/18:00:36.577,(-1 -4 -2 -1 0 0 -1 0)
