time,.data
1969/12/31/18:00:06.757000,(-2 -14 18 127 58 6 -3 -1)
1969/12/31/18:00:06.757000,(-16 -4 -8 -106 -48 -17 -12 -15)
1969/12/31/18:00:06.758000,(11 1 -22 66 -13 -1 7 9)
1969/12/31/18:00:06.758000,(-1 -5 1 -68 -17 0 -3 -2)
1969/12/31/18:00:06.780000,(1 10 54 88 12 5 4 -1)
1969/12/31/18:00:06.780000,(-2 6 17 -15 18 4 -2 -2)
1969/12/31/18:00:06.780000,(3 -1 -18 12 59 14 7 5)
1969/12/31/18:00:06.780000,(3 -1 -11 -26 -2 -10 -6 0)
1969/12/31/18:00:06.802000,(-4 1 -9 -9 -11 1 1 -2)
1969/12/31/18:00:06.802000,(6 0 6 14 -18 -2 0 4)
1969/12/31/18:00:06.803000,(-6 -6 -6 -29 -31 -10 -7 -6)
1969/12/31/18:00:06.803000,(-2 1 -17 -5 -1 -2 0 -2)
1969/12/31/18:00:06.817000,(3 4 4 -10 2 2 -2 0)
1969/12/31/18:00:06.817000,(-3 0 25 35 24 6 -1 -4)
1969/12/31/18:00:06.818000,(0 -3 -1 54 0 -2 -4 -1)
1969/12/31/18:00:06.818000,(-8 -7 -19 -68 -44 -13 -5 -7)
1969/12/31/18:00:06.839000,(5 6 8 69 25 3 3 4)
1969/12/31/18:00:06.839000,(6 2 -7 -22 49 13 10 9)
1969/12/31/18:00:06.840000,(-1 5 36 109 20 2 2 0)
1969/12/31/18:00:06.840000,(-7 -7 -2 -44 -26 -10 -5 -6)
1969/12/31/18:00:06.862000,(-2 -4 -16 -25 6 0 -1 -2)
1969/12/31/18:00:06.862000,(9 0 -35 -72 -22 0 3 6)
1969/12/31/18:00:06.863000,(6 17 50 52 5 11 3 3)
1969/12/31/18:00:06.863000,(-6 -5 7 48 25 4 -3 -4)
1969/12/31/18:00:06.877000,(-2 -1 -6 -31 -14 -2 0 -1)
1969/12/31/18:00:06.877000,(3 -1 -7 42 2 0 1 1)
1969/12/31/18:00:06.885000,(-2 -6 -11 -68 -17 -6 -4 -3)
1969/12/31/18:00:06.885000,(5 6 13 29 9 2 3 5)
1969/12/31/18:00:06.900000,(-3 -5 -13 -47 -14 -3 -1 -3)
1969/12/31/18:00:06.900000,(1 2 -5 -7 -7 -1 0 1)
1969/12/31/18:00:06.900000,(-3 -3 -1 2 -1 0 -2 -1)
1969/12/31/18:00:06.900000,(-4 -2 7 37 6 1 -3 -3)
1969/12/31/18:00:06.924000,(0 -3 -12 -57 -19 -1 -3 2)
1969/12/31/18:00:06.924000,(4 2 7 19 1 4 3 2)
1969/12/31/18:00:06.925000,(1 0 -1 0 12 1 0 2)
1969/12/31/18:00:06.925000,(-5 -5 -4 6 -5 -4 -4 -5)
1969/12/31/18:00:06.937000,(1 0 -3 -23 -12 3 2 1)
1969/12/31/18:00:06.937000,(2 2 3 20 6 2 1 2)
1969/12/31/18:00:06.945000,(0 0 -5 -10 1 -2 -1 0)
1969/12/31/18:00:06.945000,(-8 -2 4 9 2 -4 -5 -6)
1969/12/31/18:00:06.960000,(-1 1 -4 -21 -9 -2 -1 -1)
1969/12/31/18:00:06.960000,(0 2 5 21 7 3 2 3)
1969/12/31/18:00:06.961000,(-6 -6 -6 -15 -1 -3 -1 -4)
1969/12/31/18:00:06.961000,(2 0 0 4 -2 -1 1 0)
1969/12/31/18:00:06.982000,(4 1 -2 -9 -1 1 4 3)
1969/12/31/18:00:06.982000,(-4 1 3 8 0 2 -3 -6)
1969/12/31/18:00:06.983000,(1 -1 -3 -10 -6 -2 -4 -3)
1969/12/31/18:00:06.983000,(0 0 2 9 -2 0 -3 -1)
1969/12/31/18:00:06.996000,(-2 -1 -7 -28 -12 -4 -3 -1)
1969/12/31/18:00:06.996000,(5 0 -6 3 3 2 3 6)
1969/12/31/18:00:07.004000,(-3 2 15 6 3 0 -2 -3)
1969/12/31/18:00:07.004000,(-3 -2 5 31 11 4 1 -3)
1969/12/31/18:00:07.020000,(-1 -1 -2 -12 -4 2 1 0)
1969/12/31/18:00:07.020000,(-4 -2 -2 -3 -5 -3 -3 -2)
1969/12/31/18:00:07.021000,(2 -1 -5 -14 1 4 5 4)
1969/12/31/18:00:07.021000,(1 1 -4 -11 -4 -1 1 1)
1969/12/31/18:00:07.042000,(-2 2 1 0 2 -5 -2 -1)
1969/12/31/18:00:07.042000,(-5 -3 -2 -3 0 -2 -1 -3)
1969/12/31/18:00:07.043000,(2 -5 -6 0 -2 -5 0 2)
1969/12/31/18:00:07.043000,(9 6 2 2 2 3 7 9)
1969/12/31/18:00:07.057000,(-6 0 0 3 2 3 -1 -8)
1969/12/31/18:00:07.057000,(-5 -2 -1 -1 -4 -7 -9 -9)
1969/12/31/18:00:07.065000,(-10 -5 -4 -2 -2 -2 -5 -5)
1969/12/31/18:00:07.065000,(1 -7 -6 -8 -6 1 4 9)
1969/12/31/18:00:07.080000,(21 9 -10 -42 -28 -6 3 9)
1969/12/31/18:00:07.080000,(-2 0 -2 -37 -8 -3 -2 -3)
1969/12/31/18:00:07.081000,(-8 -6 3 25 23 2 -7 -9)
1969/12/31/18:00:07.081000,(-8 -1 16 67 13 -1 -3 -5)
1969/12/31/18:00:07.102000,(1 2 18 55 32 9 2 3)
1969/12/31/18:00:07.102000,(1 0 8 15 3 2 0 -1)
1969/12/31/18:00:07.103000,(0 -2 -10 -25 -12 -4 -1 1)
1969/12/31/18:00:07.104000,(2 3 -8 -34 -12 -4 -4 -4)
1969/12/31/18:00:07.117000,(-13 -11 -15 -32 -13 -5 -3 -6)
1969/12/31/18:00:07.117000,(3 3 -2 4 1 2 5 0)
1969/12/31/18:00:07.125000,(14 5 -4 -11 -3 1 8 16)
1969/12/31/18:00:07.125000,(-37 -16 -1 -6 -1 5 1 -12)
1969/12/31/18:00:07.148000,(51 -4 -11 -15 -15 -5 -7 1)
1969/12/31/18:00:07.148000,(-5 -8 2 10 -1 -12 -7 -2)
1969/12/31/18:00:07.149000,(53 52 27 27 18 19 20 27)
1969/12/31/18:00:07.149000,(-22 -17 -12 -13 -7 -9 -11 -14)
1969/12/31/18:00:07.162000,(-28 -8 2 -1 4 0 -1 -9)
1969/12/31/18:00:07.162000,(-5 -8 -10 -43 -18 0 -1 -4)
1969/12/31/18:00:07.163000,(-9 -14 -47 -60 -17 -4 2 4)
1969/12/31/18:00:07.163000,(14 14 43 70 22 3 2 5)
1969/12/31/18:00:07.177000,(-13 8 38 92 38 9 -1 -6)
1969/12/31/18:00:07.177000,(16 9 13 41 18 8 4 8)
1969/12/31/18:00:07.185000,(-33 -18 -6 -22 -22 -15 -17 -23)
1969/12/31/18:00:07.185000,(33 10 -35 -65 -17 4 13 22)
1969/12/31/18:00:07.200000,(-47 -15 -13 -25 -14 -6 -8 -20)
1969/12/31/18:00:07.200000,(44 14 -3 3 3 -1 0 6)
1969/12/31/18:00:07.200000,(-46 -32 -2 -5 -5 -11 -10 -30)
1969/12/31/18:00:07.200000,(-1 5 6 -2 0 -5 -16 -14)
1969/12/31/18:00:07.222000,(2 4 -2 -8 -4 -3 4 19)
1969/12/31/18:00:07.222000,(13 14 2 8 2 6 5 12)
1969/12/31/18:00:07.223000,(4 4 4 2 -2 -1 -8 -6)
1969/12/31/18:00:07.223000,(10 -4 -1 5 -3 -2 0 -1)
1969/12/31/18:00:07.236000,(-15 0 -1 -16 0 3 12 10)
1969/12/31/18:00:07.236000,(-14 -9 -16 -60 -21 -7 -1 0)
1969/12/31/18:00:07.245000,(4 -7 -15 -14 -13 -4 -1 -4)
1969/12/31/18:00:07.245000,(-2 12 41 96 32 3 9 6)
1969/12/31/18:00:07.260000,(13 5 18 56 28 5 1 -2)
1969/12/31/18:00:07.260000,(-14 -12 -32 -72 -42 -10 -7 -8)
1969/12/31/18:00:07.260000,(15 9 9 75 8 3 9 14)
1969/12/31/18:00:07.261000,(-7 -6 -14 -27 -9 -5 -8 -9)
1969/12/31/18:00:07.282000,(-1 -7 -3 18 4 2 0 0)
1969/12/31/18:00:07.282000,(-21 -2 13 40 22 5 3 5)
1969/12/31/18:00:07.283000,(-17 -4 6 -24 2 7 -5 -29)
1969/12/31/18:00:07.283000,(23 2 -24 -53 -24 -11 -10 14)
1969/12/31/18:00:07.305000,(20 12 -7 -24 -8 -5 1 1)
1969/12/31/18:00:07.305000,(-28 -16 -5 6 -1 -5 -8 -14)
1969/12/31/18:00:07.306000,(13 4 5 -6 1 4 6 17)
1969/12/31/18:00:07.306000,(-17 2 2 7 8 5 8 -2)
1969/12/31/18:00:07.320000,(16 -1 0 -20 -7 2 5 6)
1969/12/31/18:00:07.320000,(0 -8 -32 -61 -21 -9 -6 -4)
1969/12/31/18:00:07.320000,(3 6 20 57 -8 2 4 7)
1969/12/31/18:00:07.320000,(-2 3 33 65 37 2 -5 -7)
1969/12/31/18:00:07.343000,(-5 2 1 4 13 5 2 2)
1969/12/31/18:00:07.343000,(2 -2 9 37 22 15 13 7)
1969/12/31/18:00:07.344000,(22 7 -16 -41 -5 -2 2 9)
1969/12/31/18:00:07.344000,(-5 -8 -26 -56 -35 -7 -2 -4)
1969/12/31/18:00:07.365000,(-1 -4 3 9 -9 -6 -11 -9)
1969/12/31/18:00:07.365000,(-3 -2 14 34 16 -1 -2 -4)
1969/12/31/18:00:07.366000,(13 12 4 -6 3 -2 2 11)
1969/12/31/18:00:07.366000,(-24 -13 1 -7 4 4 4 -9)
1969/12/31/18:00:07.380000,(-19 -14 -16 -28 -7 -6 -2 -2)
1969/12/31/18:00:07.380000,(43 33 6 -24 3 1 0 0)
1969/12/31/18:00:07.380000,(-10 -8 0 17 -8 -3 -3 0)
1969/12/31/18:00:07.380000,(-3 -3 -2 31 -4 -2 -2 -7)
1969/12/31/18:00:07.403000,(18 4 17 31 20 12 13 19)
1969/12/31/18:00:07.403000,(32 13 10 31 15 9 8 16)
1969/12/31/18:00:07.404000,(-9 -1 -1 -29 -4 -4 -8 -14)
1969/12/31/18:00:07.404000,(21 1 -17 -36 -11 1 1 14)
1969/12/31/18:00:07.425000,(-24 -9 -13 -26 -31 -7 -9 -18)
1969/12/31/18:00:07.425000,(1 0 -24 -71 -32 -6 6 12)
1969/12/31/18:00:07.426000,(-7 -4 19 73 36 8 1 -1)
1969/12/31/18:00:07.426000,(-9 -1 29 89 26 3 -3 -7)
1969/12/31/18:00:07.440000,(9 14 21 45 15 -2 -2 1)
1969/12/31/18:00:07.440000,(-17 -5 7 24 7 -1 -1 -5)
1969/12/31/18:00:07.440000,(-5 -7 -22 -55 -18 -7 -4 -5)
1969/12/31/18:00:07.440000,(2 -2 -25 -79 -26 -6 2 3)
1969/12/31/18:00:07.463000,(9 -1 -12 -14 -10 -5 -2 2)
1969/12/31/18:00:07.463000,(-31 -3 6 17 -4 -4 -9 -12)
1969/12/31/18:00:07.464000,(2 -14 0 11 -1 -2 1 10)
1969/12/31/18:00:07.464000,(37 35 14 14 18 14 13 18)
1969/12/31/18:00:07.485000,(-13 -8 -11 -40 -17 -14 -14 -20)
1969/12/31/18:00:07.485000,(-27 -17 -2 -13 -16 -12 -8 -15)
1969/12/31/18:00:07.486000,(0 -4 -11 -12 -21 -10 -1 3)
1969/12/31/18:00:07.486000,(13 1 -14 -50 -20 6 10 17)
1969/12/31/18:00:07.500000,(-11 -4 13 58 61 19 4 -3)
1969/12/31/18:00:07.500000,(0 3 19 38 51 13 -1 -3)
1969/12/31/18:00:07.500000,(-7 0 11 34 5 10 0 -4)
1969/12/31/18:00:07.500000,(-6 -5 -2 -15 -18 -10 -6 -12)
1969/12/31/18:00:07.522000,(-17 0 -10 -21 -20 -5 -1 -6)
1969/12/31/18:00:07.522000,(17 -5 4 28 1 3 5 13)
1969/12/31/18:00:07.523000,(-7 -10 -8 -26 -7 -3 -4 -11)
1969/12/31/18:00:07.523000,(33 20 -6 -16 -9 -3 3 17)
1969/12/31/18:00:07.545000,(-14 -12 -14 -30 -26 -16 -20 -26)
1969/12/31/18:00:07.545000,(-7 -4 4 18 3 1 3 1)
1969/12/31/18:00:07.546000,(5 7 -1 -4 16 7 2 2)
1969/12/31/18:00:07.546000,(-21 -23 -22 -69 -34 -9 -10 -9)
1969/12/31/18:00:07.560000,(6 5 7 47 8 11 15 15)
1969/12/31/18:00:07.560000,(14 13 20 25 3 2 -4 -1)
1969/12/31/18:00:07.561000,(-11 -2 6 13 17 1 -5 -7)
1969/12/31/18:00:07.561000,(-13 -6 15 67 40 6 -2 -8)
1969/12/31/18:00:07.583000,(14 2 -5 -61 -14 -10 0 9)
1969/12/31/18:00:07.583000,(-12 -10 -15 19 -41 -9 -3 -6)
1969/12/31/18:00:07.584000,(-4 2 0 -3 22 7 1 -2)
1969/12/31/18:00:07.584000,(-2 -5 5 16 33 12 4 2)
1969/12/31/18:00:07.605000,(3 6 -7 -23 -7 6 3 0)
1969/12/31/18:00:07.605000,(-1 -5 -6 -11 -8 -7 -1 5)
1969/12/31/18:00:07.606000,(10 11 8 -15 -10 -1 12 6)
1969/12/31/18:00:07.606000,(-7 -10 -11 9 -12 -13 -7 -7)
1969/12/31/18:00:07.620000,(2 -1 -6 4 4 -4 -3 -2)
1969/12/31/18:00:07.620000,(-19 -7 2 -13 -10 -4 -5 -10)
1969/12/31/18:00:07.620000,(16 11 -2 -15 -5 -1 9 17)
1969/12/31/18:00:07.620000,(-14 -7 -1 -3 1 -9 -16 -22)
1969/12/31/18:00:07.643000,(-20 -10 -10 11 -10 -5 -4 -8)
1969/12/31/18:00:07.643000,(24 18 22 44 29 12 8 9)
1969/12/31/18:00:07.644000,(-2 -4 7 4 4 3 -3 0)
1969/12/31/18:00:07.644000,(-3 2 3 20 1 2 0 -3)
1969/12/31/18:00:07.665000,(4 -3 -17 -37 -14 -10 -2 5)
1969/12/31/18:00:07.665000,(-18 -9 -12 -26 -9 -7 -11 -21)
1969/12/31/18:00:07.666000,(-29 -20 -14 -25 -12 -12 -11 -9)
1969/12/31/18:00:07.666000,(15 14 12 19 9 12 10 -7)
1969/12/31/18:00:07.680000,(-6 3 8 23 2 -3 -3 1)
1969/12/31/18:00:07.680000,(32 20 9 -3 14 11 8 11)
1969/12/31/18:00:07.680000,(-8 -6 -11 -12 -15 -13 -19 -15)
1969/12/31/18:00:07.680000,(-23 -8 -5 -12 3 -4 -2 -2)
1969/12/31/18:00:07.703000,(12 0 -10 -29 -27 3 6 8)
1969/12/31/18:00:07.703000,(13 12 26 48 18 9 11 10)
1969/12/31/18:00:07.704000,(-10 -2 11 39 3 -3 -6 -10)
1969/12/31/18:00:07.704000,(5 -4 -8 -14 -4 -2 3 9)
1969/12/31/18:00:07.725000,(-2 2 -3 -24 4 2 4 3)
1969/12/31/18:00:07.725000,(-26 -14 -15 6 0 -4 -7 -11)
1969/12/31/18:00:07.726000,(-6 -13 5 28 3 1 3 3)
1969/12/31/18:00:07.726000,(50 33 0 -12 -2 -1 11 30)
1969/12/31/18:00:07.739000,(-46 -27 6 13 1 -8 -22 -38)
1969/12/31/18:00:07.739000,(-68 -50 -6 5 0 0 -7 -30)
1969/12/31/18:00:07.748000,(56 38 -4 -12 3 4 9 16)
1969/12/31/18:00:07.748000,(-88 -63 -25 -25 -19 -23 -29 -31)
1969/12/31/18:00:07.762000,(90 56 9 -18 -1 8 12 26)
1969/12/31/18:00:07.762000,(15 2 -2 0 -2 -4 2 10)
1969/12/31/18:00:07.769000,(-14 -3 -10 -7 9 2 4 -2)
1969/12/31/18:00:07.769000,(-23 -12 -1 -73 -20 -4 -3 -7)
1969/12/31/18:00:07.785000,(12 4 20 75 14 2 6 13)
1969/12/31/18:00:07.785000,(-15 -12 -19 -24 -5 5 1 -2)
1969/12/31/18:00:07.787000,(15 11 4 17 -2 2 8 22)
1969/12/31/18:00:07.787000,(7 11 8 -7 2 1 4 2)
1969/12/31/18:00:07.799000,(-29 -25 5 17 -1 -9 -15 -25)
1969/12/31/18:00:07.799000,(-1 28 7 17 9 1 8 10)
1969/12/31/18:00:07.808000,(-84 -77 -5 -19 -11 -16 -31 -48)
1969/12/31/18:00:07.808000,(91 94 -15 -25 -20 -15 -12 14)
1969/12/31/18:00:07.822000,(-23 4 -19 -27 2 11 15 19)
1969/12/31/18:00:07.822000,(-25 -14 -7 -23 -7 -9 -5 1)
1969/12/31/18:00:07.829000,(-23 -2 -5 -20 -10 -7 -15 -30)
1969/12/31/18:00:07.829000,(-29 -28 11 24 7 6 -1 -13)
1969/12/31/18:00:07.845000,(-9 -21 9 17 5 -3 -5 -8)
1969/12/31/18:00:07.845000,(48 17 -1 -16 -6 9 17 26)
1969/12/31/18:00:07.847000,(5 9 24 80 23 11 8 6)
1969/12/31/18:00:07.847000,(-1 -10 7 -16 29 12 7 5)
1969/12/31/18:00:07.859000,(25 22 -16 -54 -37 -5 0 10)
1969/12/31/18:00:07.859000,(-14 -7 12 67 2 -10 -10 -13)
1969/12/31/18:00:07.868000,(21 14 11 18 18 5 10 12)
1969/12/31/18:00:07.868000,(-43 -38 -7 30 12 4 1 -5)
1969/12/31/18:00:07.882000,(78 60 9 -33 8 18 27 37)
1969/12/31/18:00:07.882000,(-34 -21 -21 -57 -21 -16 -29 -61)
1969/12/31/18:00:07.889000,(-51 -26 -7 -26 -10 4 15 18)
1969/12/31/18:00:07.889000,(99 67 2 19 -5 -5 -6 29)
1969/12/31/18:00:07.905000,(-42 -34 -19 -30 -18 -18 -21 -23)
1969/12/31/18:00:07.905000,(14 3 8 1 2 0 1 18)
1969/12/31/18:00:07.907000,(-33 -17 -7 19 -6 -9 -7 -19)
1969/12/31/18:00:07.907000,(-4 12 22 24 14 23 25 2)
1969/12/31/18:00:07.919000,(-1 -7 -14 -10 5 -5 -9 -2)
1969/12/31/18:00:07.919000,(30 29 11 3 -2 8 8 16)
1969/12/31/18:00:07.928000,(2 -15 0 -20 0 9 2 7)
1969/12/31/18:00:07.928000,(-34 -24 -5 3 -11 -6 -4 -6)
1969/12/31/18:00:07.942000,(8 6 13 60 30 7 8 1)
1969/12/31/18:00:07.942000,(-13 -13 2 13 19 2 0 7)
1969/12/31/18:00:07.950000,(41 21 5 -23 -5 9 10 11)
1969/12/31/18:00:07.950000,(-7 -16 -15 -12 -23 -7 -3 -17)
1969/12/31/18:00:07.965000,(58 42 3 -6 -8 -12 -9 16)
1969/12/31/18:00:07.965000,(-36 -31 -22 -26 -10 -7 -9 -11)
1969/12/31/18:00:07.967000,(28 32 10 1 2 1 4 -1)
1969/12/31/18:00:07.967000,(-19 -10 -1 7 1 -1 0 -6)
1969/12/31/18:00:07.979000,(-39 -38 2 3 3 -3 0 -5)
1969/12/31/18:00:07.979000,(6 15 4 11 12 11 11 7)
1969/12/31/18:00:07.988000,(33 21 -5 -8 -1 0 -1 10)
1969/12/31/18:00:07.988000,(3 -11 -1 3 0 6 10 12)
1969/12/31/18:00:08.002000,(-59 -33 -8 5 -13 -10 -19 -36)
1969/12/31/18:00:08.002000,(39 12 16 24 11 12 16 30)
1969/12/31/18:00:08.009000,(23 35 3 0 -3 -12 -15 -9)
1969/12/31/18:00:08.009000,(-30 -21 -9 -1 -4 -8 -6 -17)
1969/12/31/18:00:08.025000,(-12 -9 3 1 2 -1 5 2)
1969/12/31/18:00:08.025000,(14 9 -25 -41 -7 -8 -5 1)
1969/12/31/18:00:08.027000,(-29 -19 3 8 -14 -10 -8 -13)
1969/12/31/18:00:08.027000,(21 10 -1 -6 -1 -10 -15 -4)
1969/12/31/18:00:08.039000,(-18 5 10 26 4 6 4 -3)
1969/12/31/18:00:08.039000,(10 8 1 0 -9 -5 -6 -7)
1969/12/31/18:00:08.048000,(-8 -8 0 -1 8 9 13 20)
1969/12/31/18:00:08.048000,(22 20 10 24 7 7 0 0)
1969/12/31/18:00:08.062000,(-57 -33 -3 -7 5 6 -1 -19)
1969/12/31/18:00:08.062000,(86 44 4 -4 -2 -2 10 52)
1969/12/31/18:00:08.069000,(-35 -24 -25 -21 -11 -12 -13 -35)
1969/12/31/18:00:08.069000,(-11 -15 4 -17 -3 1 2 15)
1969/12/31/18:00:08.085000,(-8 -3 4 18 8 2 1 -6)
1969/12/31/18:00:08.085000,(-40 -21 -13 -14 -11 -11 -7 -14)
1969/12/31/18:00:08.087000,(8 10 7 -5 2 8 14 17)
1969/12/31/18:00:08.087000,(10 13 9 -16 -2 -3 2 1)
1969/12/31/18:00:08.099000,(10 -1 -16 -6 -5 -3 -5 2)
1969/12/31/18:00:08.099000,(-19 -2 20 10 5 7 -1 -16)
1969/12/31/18:00:08.108000,(-34 -37 -3 11 2 6 2 5)
1969/12/31/18:00:08.108000,(25 30 -6 -12 10 20 27 35)
1969/12/31/18:00:08.122000,(35 12 0 -35 -31 -16 -19 -10)
1969/12/31/18:00:08.122000,(-50 -18 7 51 10 -7 -13 -33)
1969/12/31/18:00:08.129000,(27 12 20 34 14 6 11 22)
1969/12/31/18:00:08.129000,(-29 -31 -17 7 0 -9 -5 -4)
1969/12/31/18:00:08.145000,(55 39 6 -7 7 5 3 -6)
1969/12/31/18:00:08.145000,(3 -1 -12 -26 -8 -7 -1 4)
1969/12/31/18:00:08.147000,(7 13 -4 -17 -12 -7 -10 -4)
1969/12/31/18:00:08.147000,(-81 -50 -9 -2 -18 -15 -28 -53)
1969/12/31/18:00:08.168000,(37 28 3 4 11 31 39 58)
1969/12/31/18:00:08.168000,(-20 -5 4 -6 3 3 -13 -28)
1969/12/31/18:00:08.169000,(0 9 -5 -9 -3 -3 -5 -16)
1969/12/31/18:00:08.169000,(28 7 -1 -32 -14 -6 5 28)
1969/12/31/18:00:08.182000,(-40 -33 3 17 -6 -10 -7 -12)
1969/12/31/18:00:08.182000,(17 11 20 40 17 14 18 20)
1969/12/31/18:00:08.189000,(5 6 0 15 13 -2 -12 -14)
1969/12/31/18:00:08.189000,(-16 -6 7 19 3 -12 -11 -18)
1969/12/31/18:00:08.205000,(-19 -16 -10 -37 -10 -11 -4 0)
1969/12/31/18:00:08.205000,(-26 -22 -30 -31 -23 -24 -24 -37)
1969/12/31/18:00:08.207000,(30 23 5 -6 3 11 29 42)
1969/12/31/18:00:08.207000,(14 -7 -5 14 10 17 7 2)
1969/12/31/18:00:08.228000,(-29 -11 -5 0 4 0 -16 -11)
1969/12/31/18:00:08.228000,(86 64 9 -4 5 21 25 38)
1969/12/31/18:00:08.229000,(-56 -36 -15 -23 -19 -16 -31 -24)
1969/12/31/18:00:08.229000,(-20 -2 3 -8 -25 -36 -57 -31)
1969/12/31/18:00:08.242000,(23 17 1 -5 4 18 15 14)
1969/12/31/18:00:08.242000,(6 -9 -1 1 14 19 13 16)
1969/12/31/18:00:08.249000,(0 -8 -6 -6 7 -3 10 -2)
1969/12/31/18:00:08.249000,(-1 0 -12 -5 -2 -14 4 -2)
1969/12/31/18:00:08.265000,(-34 -28 11 24 18 -18 -4 -18)
1969/12/31/18:00:08.265000,(-28 -13 -1 7 -17 -24 -8 -15)
1969/12/31/18:00:08.267000,(52 36 8 20 11 -1 19 36)
1969/12/31/18:00:08.267000,(-23 -6 -2 10 -1 -3 -3 -22)
1969/12/31/18:00:08.288000,(-9 -19 -7 3 9 5 6 5)
1969/12/31/18:00:08.288000,(-65 -62 -7 -12 0 7 6 -13)
1969/12/31/18:00:08.289000,(18 7 -5 -14 -14 -4 1 17)
1969/12/31/18:00:08.289000,(-46 -14 -2 16 12 -9 -23 -48)
1969/12/31/18:00:08.302000,(46 48 15 3 1 10 7 19)
1969/12/31/18:00:08.302000,(-13 -5 1 -9 -9 -14 -6 11)
1969/12/31/18:00:08.309000,(-41 -45 -11 -3 -11 -5 -21 -44)
1969/12/31/18:00:08.309000,(51 31 14 11 22 39 49 63)
1969/12/31/18:00:08.325000,(6 5 -3 -19 -6 6 9 5)
1969/12/31/18:00:08.325000,(-23 -20 -6 -8 -7 -2 -7 -13)
1969/12/31/18:00:08.327000,(5 14 7 30 9 -8 -11 -12)
1969/12/31/18:00:08.327000,(32 22 6 10 6 15 18 27)
1969/12/31/18:00:08.348000,(-64 -39 0 20 0 -2 -13 -35)
1969/12/31/18:00:08.348000,(53 49 1 -13 8 14 19 31)
1969/12/31/18:00:08.350000,(15 7 -8 -19 -8 -2 -3 2)
1969/12/31/18:00:08.350000,(-36 -23 -1 -8 -16 -5 -15 -29)
1969/12/31/18:00:08.370000,(21 -1 2 4 -1 0 15 42)
1969/12/31/18:00:08.370000,(1 -3 -6 -1 4 1 -9 -9)
1969/12/31/18:00:08.372000,(-6 8 -7 -11 -3 11 23 21)
1969/12/31/18:00:08.372000,(-25 -5 11 4 -3 -17 -33 -27)
1969/12/31/18:00:08.386000,(-10 -10 -9 -12 -15 -13 -18 -21)
1969/12/31/18:00:08.386000,(11 18 -2 1 8 13 16 20)
1969/12/31/18:00:08.387000,(-7 -6 -2 -22 -32 -17 -10 -14)
1969/12/31/18:00:08.387000,(1 -17 -13 -20 -43 -28 -2 2)
1969/12/31/18:00:08.408000,(39 37 3 6 35 17 15 18)
1969/12/31/18:00:08.408000,(-11 -10 -4 -4 24 19 -8 -13)
1969/12/31/18:00:08.409000,(15 11 25 58 82 71 42 21)
1969/12/31/18:00:08.409000,(-4 -5 17 32 30 9 -7 6)
1969/12/31/18:00:08.421000,(76 29 20 24 23 36 59 69)
1969/12/31/18:00:08.421000,(-65 -48 -26 -20 -56 -67 -73 -87)
1969/12/31/18:00:08.430000,(18 13 -9 -29 -17 -5 10 22)
1969/12/31/18:00:08.430000,(12 3 -10 -15 -14 7 18 4)
1969/12/31/18:00:08.445000,(56 31 -5 -7 -9 -8 6 31)
1969/12/31/18:00:08.445000,(-47 -40 4 1 2 3 8 6)
1969/12/31/18:00:08.447000,(-7 -9 -3 -20 -32 -37 -36 -34)
1969/12/31/18:00:08.447000,(37 29 6 17 29 28 32 35)
1969/12/31/18:00:08.468000,(-66 -40 -7 -4 -11 -12 -28 -36)
1969/12/31/18:00:08.468000,(20 18 1 -19 0 10 8 1)
1969/12/31/18:00:08.469000,(-23 -24 -22 -35 -14 -20 -19 -18)
1969/12/31/18:00:08.469000,(4 -1 -2 -5 -8 4 11 11)
1969/12/31/18:00:08.481000,(-44 -29 22 61 8 -13 -26 -41)
1969/12/31/18:00:08.481000,(55 34 35 53 29 12 21 46)
1969/12/31/18:00:08.490000,(7 4 -7 25 23 20 1 -11)
1969/12/31/18:00:08.490000,(-23 -23 -34 -54 -28 -28 -37 -43)
1969/12/31/18:00:08.505000,(-37 -29 -21 -28 -26 -13 -10 -12)
1969/12/31/18:00:08.505000,(51 42 3 2 -1 -1 8 20)
1969/12/31/18:00:08.507000,(-23 3 2 -9 -8 -1 9 13)
1969/12/31/18:00:08.507000,(26 4 3 3 11 10 14 20)
1969/12/31/18:00:08.528000,(-33 -18 -12 -18 -16 -20 -29 -38)
1969/12/31/18:00:08.528000,(16 16 -4 -11 3 8 15 14)
1969/12/31/18:00:08.529000,(-19 -30 -6 -6 6 -1 -1 -4)
1969/12/31/18:00:08.529000,(4 25 16 20 -3 4 11 20)
1969/12/31/18:00:08.550000,(51 40 20 19 5 21 23 20)
1969/12/31/18:00:08.550000,(-49 -36 -12 -5 -8 -29 -46 -54)
1969/12/31/18:00:08.552000,(52 44 2 -6 2 9 18 36)
1969/12/31/18:00:08.552000,(-33 -33 -29 -93 -50 -22 -16 -21)
1969/12/31/18:00:08.565000,(-1 -4 -12 23 16 3 -4 -1)
1969/12/31/18:00:08.565000,(-9 2 29 66 15 7 3 -3)
1969/12/31/18:00:08.567000,(-19 -10 29 60 38 13 -1 -8)
1969/12/31/18:00:08.567000,(-35 7 11 32 19 -2 -25 -45)
1969/12/31/18:00:08.588000,(-10 -10 -20 -57 -30 -12 -7 -7)
1969/12/31/18:00:08.588000,(9 1 -16 -52 -22 5 17 16)
1969/12/31/18:00:08.589000,(6 6 6 -1 -3 3 14 24)
1969/12/31/18:00:08.589000,(40 7 1 7 5 0 1 8)
1969/12/31/18:00:08.601000,(20 33 1 -10 -10 -4 2 6)
1969/12/31/18:00:08.601000,(-39 -29 -11 -3 -5 -17 -16 -25)
1969/12/31/18:00:08.610000,(24 14 4 -13 11 9 13 16)
1969/12/31/18:00:08.610000,(1 -8 6 12 24 23 26 25)
1969/12/31/18:00:08.625000,(54 47 15 17 23 9 5 16)
1969/12/31/18:00:08.625000,(15 8 5 6 4 6 3 3)
1969/12/31/18:00:08.627000,(23 6 -15 -27 -24 -9 -5 3)
1969/12/31/18:00:08.627000,(-111 -70 -2 12 3 1 3 -23)
1969/12/31/18:00:08.648000,(35 41 13 6 5 12 22 49)
1969/12/31/18:00:08.648000,(-91 -70 -20 -16 -15 -15 -27 -52)
1969/12/31/18:00:08.649000,(81 84 0 -13 -19 -13 -10 12)
1969/12/31/18:00:08.649000,(-33 -6 5 20 0 -13 -13 -18)
1969/12/31/18:00:08.670000,(-43 -40 -7 -10 -40 7 17 2)
1969/12/31/18:00:08.670000,(41 31 10 11 39 21 30 41)
1969/12/31/18:00:08.672000,(-42 -35 -9 10 27 -5 -21 -31)
1969/12/31/18:00:08.672000,(31 4 -17 -73 -47 -6 5 13)
1969/12/31/18:00:08.686000,(16 7 -3 13 -9 -11 -9 1)
1969/12/31/18:00:08.686000,(-21 -15 13 47 19 14 6 1)
1969/12/31/18:00:08.687000,(-39 -25 13 32 57 8 -15 -34)
1969/12/31/18:00:08.687000,(55 36 13 25 35 24 32 59)
1969/12/31/18:00:08.709000,(-68 -21 -14 -20 -25 -26 -40 -64)
1969/12/31/18:00:08.709000,(-49 -22 -15 -22 -36 -25 -37 -53)
1969/12/31/18:00:08.711000,(-16 -9 -1 -12 -27 -7 1 0)
1969/12/31/18:00:08.711000,(36 18 -7 -6 -5 -5 8 22)
1969/12/31/18:00:08.730000,(-49 -51 -23 -25 -9 -20 -24 -29)
1969/12/31/18:00:08.730000,(27 13 -5 -7 -9 -1 9 18)
1969/12/31/18:00:08.732000,(-119 -110 -18 -15 -22 -16 -19 -48)
1969/12/31/18:00:08.732000,(26 26 36 31 30 31 29 5)
1969/12/31/18:00:08.745000,(-41 -37 3 8 14 6 -1 -20)
1969/12/31/18:00:08.745000,(28 15 8 0 11 8 10 24)
1969/12/31/18:00:08.752000,(-4 -11 -10 -18 -22 -9 -9 -9)
1969/12/31/18:00:08.752000,(4 -6 -8 10 -6 -1 -2 8)
1969/12/31/18:00:08.768000,(32 24 16 9 29 17 20 28)
1969/12/31/18:00:08.768000,(-4 2 0 -4 5 5 3 -3)
1969/12/31/18:00:08.769000,(10 3 -9 2 -5 -3 -2 2)
1969/12/31/18:00:08.769000,(6 12 -5 7 -9 -17 -20 -19)
1969/12/31/18:00:08.790000,(6 8 6 -6 5 1 4 3)
1969/12/31/18:00:08.791000,(-20 -12 -8 -5 2 -6 -8 -16)
1969/12/31/18:00:08.792000,(71 75 15 5 -6 8 19 40)
1969/12/31/18:00:08.792000,(-19 3 5 19 24 8 -1 -15)
1969/12/31/18:00:08.804000,(5 15 -2 -1 -3 -4 -14 -14)
1969/12/31/18:00:08.804000,(34 23 5 -7 -6 5 10 18)
1969/12/31/18:00:08.813000,(-29 -31 -5 0 -6 -11 -14 -16)
1969/12/31/18:00:08.813000,(68 41 17 10 8 17 33 49)
1969/12/31/18:00:08.828000,(-28 -20 -9 -3 -3 -13 -18 -24)
1969/12/31/18:00:08.828000,(-22 -22 -4 0 -6 0 4 9)
1969/12/31/18:00:08.829000,(-9 2 6 1 -9 -10 -11 -8)
1969/12/31/18:00:08.829000,(-61 -45 -11 -5 -9 -7 -8 -18)
1969/12/31/18:00:08.851000,(69 27 6 7 10 12 14 28)
1969/12/31/18:00:08.851000,(25 29 11 5 12 19 18 16)
1969/12/31/18:00:08.852000,(-45 -47 -12 -8 -12 -8 -14 -26)
1969/12/31/18:00:08.852000,(71 75 -1 -8 -4 -10 -5 16)
1969/12/31/18:00:08.864000,(-46 -41 -6 -3 0 -13 -16 -31)
1969/12/31/18:00:08.864000,(-14 -14 -7 -5 -9 -3 4 7)
1969/12/31/18:00:08.873000,(99 65 12 4 4 2 8 30)
1969/12/31/18:00:08.873000,(-85 -64 -5 11 9 7 -2 -28)
1969/12/31/18:00:08.888000,(14 13 3 4 0 0 6 14)
1969/12/31/18:00:08.888000,(18 15 -11 -32 -6 -6 -5 -3)
1969/12/31/18:00:08.889000,(-25 -12 -5 3 4 9 7 1)
1969/12/31/18:00:08.889000,(11 1 -10 -44 -51 -21 -9 3)
1969/12/31/18:00:08.910000,(-23 -16 7 41 23 4 -5 -12)
1969/12/31/18:00:08.910000,(-14 -5 23 48 37 17 7 7)
1969/12/31/18:00:08.912000,(-15 -14 13 31 32 17 8 2)
1969/12/31/18:00:08.912000,(45 60 16 4 5 16 34 62)
1969/12/31/18:00:08.925000,(-75 -49 -19 -47 -35 -15 -15 -32)
1969/12/31/18:00:08.925000,(-11 -13 -12 -27 -31 -21 -15 -10)
1969/12/31/18:00:08.932000,(21 5 -5 -23 -13 -6 4 15)
1969/12/31/18:00:08.932000,(-30 -34 -9 -6 -9 -23 -32 -38)
1969/12/31/18:00:08.948000,(29 13 -3 -4 1 10 14 25)
1969/12/31/18:00:08.948000,(27 24 0 8 9 7 13 17)
1969/12/31/18:00:08.949000,(-51 -35 -11 -10 -21 -15 -24 -40)
1969/12/31/18:00:08.950000,(2 -8 5 17 15 7 0 -5)
1969/12/31/18:00:08.978000,(1 5 5 9 8 4 3 1)
1969/12/31/18:00:08.978000,(-4 -15 -5 -8 -9 -8 -10 -9)
1969/12/31/18:00:08.979000,(-7 2 2 -2 -7 -1 -3 -1)
1969/12/31/18:00:08.980000,(-9 -18 -6 2 10 0 -1 -5)
1969/12/31/18:00:08.985000,(26 17 5 -2 4 3 6 14)
1969/12/31/18:00:08.985000,(5 1 -9 -19 -14 -1 1 3)
1969/12/31/18:00:08.991000,(-4 -2 -5 -35 -43 -11 3 0)
1969/12/31/18:00:08.991000,(-2 -5 -5 -24 -5 -11 -11 -12)
1969/12/31/18:00:09.008000,(-17 -6 8 46 15 -1 -6 -8)
1969/12/31/18:00:09.008000,(11 6 19 51 41 26 19 13)
1969/12/31/18:00:09.009000,(-12 2 20 52 51 22 6 -7)
1969/12/31/18:00:09.009000,(-11 -14 2 -15 -2 4 -4 -9)
1969/12/31/18:00:09.030000,(3 -2 -14 -33 -25 -9 3 7)
1969/12/31/18:00:09.030000,(0 -1 -13 -47 -39 -23 -11 -5)
1969/12/31/18:00:09.032000,(20 15 3 9 -4 0 10 12)
1969/12/31/18:00:09.032000,(-12 -10 4 -5 11 1 -3 -9)
1969/12/31/18:00:09.045000,(3 7 10 30 10 0 -2 3)
1969/12/31/18:00:09.045000,(1 -2 -27 -41 -8 -11 -9 -4)
1969/12/31/18:00:09.052000,(-11 -12 -2 21 -5 -4 0 -3)
1969/12/31/18:00:09.052000,(-13 -11 -2 15 -2 0 -5 -10)
1969/12/31/18:00:09.068000,(-4 2 11 -19 4 10 6 -2)
1969/12/31/18:00:09.068000,(2 2 0 10 13 5 3 1)
1969/12/31/18:00:09.069000,(7 3 -6 -17 -8 -5 2 6)
1969/12/31/18:00:09.069000,(-10 -11 -3 14 -9 -17 -14 -12)
1969/12/31/18:00:09.090000,(5 12 17 -10 -2 3 2 2)
1969/12/31/18:00:09.090000,(3 -1 -1 17 8 9 6 1)
1969/12/31/18:00:09.092000,(-4 -5 -10 -1 11 6 4 -1)
1969/12/31/18:00:09.092000,(7 -1 -12 18 4 -3 2 5)
1969/12/31/18:00:09.104000,(-4 -10 -12 -27 -6 -4 -3 -1)
1969/12/31/18:00:09.104000,(-2 3 8 -6 -8 -7 -5 -4)
1969/12/31/18:00:09.113000,(3 5 8 15 1 -1 2 1)
1969/12/31/18:00:09.113000,(1 3 11 -6 5 4 2 0)
1969/12/31/18:00:09.128000,(2 -2 -5 13 10 9 7 6)
1969/12/31/18:00:09.128000,(0 2 5 -20 -7 -3 0 -1)
1969/12/31/18:00:09.129000,(0 -6 -30 19 0 -8 -5 -1)
1969/12/31/18:00:09.129000,(-11 -16 -19 -10 5 -2 -7 -10)
1969/12/31/18:00:09.150000,(-1 0 -8 -8 -7 2 2 0)
1969/12/31/18:00:09.150000,(0 4 29 16 -13 0 -3 -1)
1969/12/31/18:00:09.152000,(-2 11 31 -10 8 6 1 1)
1969/12/31/18:00:09.152000,(2 8 19 55 11 6 3 1)
1969/12/31/18:00:09.164000,(6 6 15 27 17 3 3 5)
1969/12/31/18:00:09.164000,(-7 -15 -40 -26 -4 -1 -3 -3)
1969/12/31/18:00:09.173000,(0 2 9 -23 -4 10 9 3)
1969/12/31/18:00:09.173000,(-2 -3 -27 -23 -13 -7 -7 -2)
1969/12/31/18:00:09.188000,(0 -6 -6 -78 -27 -11 -6 -1)
1969/12/31/18:00:09.188000,(-2 6 9 52 0 -11 -9 -7)
1969/12/31/18:00:09.189000,(3 -2 -8 18 19 1 -2 1)
1969/12/31/18:00:09.189000,(-4 -3 10 5 11 10 1 -5)
1969/12/31/18:00:09.211000,(2 2 -7 16 5 5 2 4)
1969/12/31/18:00:09.211000,(3 1 3 -23 -7 -3 3 5)
1969/12/31/18:00:09.212000,(0 5 13 -20 -11 -4 1 -1)
1969/12/31/18:00:09.212000,(8 9 14 -51 -14 4 9 6)
1969/12/31/18:00:09.225000,(5 7 -1 58 15 -2 1 0)
1969/12/31/18:00:09.225000,(1 3 12 55 27 12 5 -1)
1969/12/31/18:00:09.232000,(-4 -22 -27 18 -15 -16 -7 0)
1969/12/31/18:00:09.232000,(-27 -21 -21 -21 -9 -17 -14 -18)
1969/12/31/18:00:09.248000,(-2 -4 -4 -35 -15 -8 -1 -2)
1969/12/31/18:00:09.248000,(6 12 13 2 2 8 7 5)
1969/12/31/18:00:09.250000,(13 16 11 -19 1 9 4 6)
1969/12/31/18:00:09.250000,(3 -5 -13 1 -10 1 -1 3)
1969/12/31/18:00:09.271000,(-4 -1 10 29 14 9 -1 -4)
1969/12/31/18:00:09.271000,(-2 -10 -24 -17 6 0 -3 -1)
1969/12/31/18:00:09.272000,(-9 -8 3 -8 -3 -4 -5 -5)
1969/12/31/18:00:09.272000,(3 6 9 6 5 3 2 2)
1969/12/31/18:00:09.284000,(1 2 10 19 3 0 3 3)
1969/12/31/18:00:09.284000,(-7 -12 -25 -23 -11 -14 -7 -6)
1969/12/31/18:00:09.293000,(-7 -9 -16 -45 -35 -10 -3 -6)
1969/12/31/18:00:09.293000,(6 18 45 -9 -5 4 5 2)
1969/12/31/18:00:09.308000,(3 -2 -3 88 39 7 2 4)
1969/12/31/18:00:09.308000,(1 -1 6 28 28 8 0 2)
1969/12/31/18:00:09.309000,(-8 -3 -7 -8 7 2 -4 -5)
1969/12/31/18:00:09.309000,(0 -4 -8 -32 -17 0 -1 2)
1969/12/31/18:00:09.330000,(0 1 -20 -69 -34 -15 -6 -3)
1969/12/31/18:00:09.330000,(1 6 26 31 -6 -1 1 3)
1969/12/31/18:00:09.332000,(-3 1 1 18 5 0 1 -1)
1969/12/31/18:00:09.332000,(3 5 0 28 29 4 2 1)
1969/12/31/18:00:09.344000,(3 -4 5 -24 -20 -1 0 0)
1969/12/31/18:00:09.344000,(-8 -12 -46 -107 -38 -17 -8 -6)
1969/12/31/18:00:09.353000,(2 4 35 100 18 4 3 5)
1969/12/31/18:00:09.353000,(-8 -2 14 48 12 -10 -10 -8)
1969/12/31/18:00:09.368000,(-6 -9 -21 -48 -10 -2 -2 -2)
1969/12/31/18:00:09.368000,(6 9 23 -9 -14 -4 4 5)
1969/12/31/18:00:09.369000,(0 6 -4 6 32 6 2 -1)
1969/12/31/18:00:09.369000,(1 -8 -21 -21 -11 -10 -1 0)
1969/12/31/18:00:09.390000,(-1 4 18 60 15 -1 0 -1)
1969/12/31/18:00:09.390000,(1 -4 -9 13 -4 2 2 2)
1969/12/31/18:00:09.392000,(-5 -6 -9 -47 -4 -9 -6 -7)
1969/12/31/18:00:09.392000,(4 2 -5 10 0 5 1 3)
1969/12/31/18:00:09.404000,(5 5 -3 -56 -21 6 4 4)
1969/12/31/18:00:09.404000,(3 -1 7 3 -6 0 -2 1)
1969/12/31/18:00:09.413000,(-5 -4 -12 19 7 -2 -3 -2)
1969/12/31/18:00:09.413000,(-1 -1 6 3 12 7 1 0)
1969/12/31/18:00:09.428000,(-4 -5 -7 -24 -13 -8 -2 0)
1969/12/31/18:00:09.428000,(-12 -7 -3 -2 -4 -3 -4 -7)
1969/12/31/18:00:09.429000,(11 7 -7 -34 -4 9 6 7)
1969/12/31/18:00:09.429000,(-1 -5 -10 5 -10 2 -1 -3)
1969/12/31/18:00:09.450000,(-8 -6 8 31 13 -8 -7 -6)
1969/12/31/18:00:09.450000,(-25 -12 15 18 13 0 -5 -11)
1969/12/31/18:00:09.452000,(21 11 4 -20 -4 -3 4 9)
1969/12/31/18:00:09.452000,(3 3 -10 -29 -23 -6 1 1)
1969/12/31/18:00:09.464000,(8 9 4 24 19 10 1 -2)
1969/12/31/18:00:09.464000,(2 2 4 4 5 -1 -5 -1)
1969/12/31/18:00:09.473000,(-4 1 -1 -30 -27 0 -1 1)
1969/12/31/18:00:09.473000,(-14 2 7 56 24 9 7 6)
1969/12/31/18:00:09.488000,(21 -1 2 -13 -3 -2 0 6)
1969/12/31/18:00:09.488000,(-16 2 2 3 3 -1 -6 -12)
1969/12/31/18:00:09.489000,(0 -1 -6 -4 0 -3 -3 -1)
1969/12/31/18:00:09.489000,(-1 -1 0 -6 -4 -1 1 3)
1969/12/31/18:00:09.510000,(-6 -4 -1 -7 0 1 0 -3)
1969/12/31/18:00:09.510000,(11 3 -2 1 1 -1 2 6)
1969/12/31/18:00:09.516000,(-19 -8 7 11 1 -3 -5 -11)
1969/12/31/18:00:09.516000,(6 -1 -4 -12 -5 -4 -1 -1)
1969/12/31/18:00:09.524000,(-10 -4 0 2 8 3 0 -1)
1969/12/31/18:00:09.524000,(17 3 -5 -6 -10 -3 2 7)
1969/12/31/18:00:09.533000,(-1 0 0 12 11 5 4 0)
1969/12/31/18:00:09.533000,(-1 -1 3 3 7 1 -1 -2)
1969/12/31/18:00:09.548000,(-5 1 -1 3 0 -2 -3 -3)
1969/12/31/18:00:09.548000,(-1 2 -3 -2 2 -1 1 2)
1969/12/31/18:00:09.549000,(3 -6 -13 -20 -16 -11 -3 1)
1969/12/31/18:00:09.549000,(7 0 -4 -27 -9 -1 4 7)
1969/12/31/18:00:09.570000,(-8 0 4 32 21 4 -2 -8)
1969/12/31/18:00:09.570000,(-3 -1 6 21 8 -5 -5 -5)
1969/12/31/18:00:09.572000,(2 1 2 -14 -24 -3 -2 2)
1969/12/31/18:00:09.572000,(2 -2 3 33 28 1 0 -3)
1969/12/31/18:00:09.600000,(-5 -6 -11 -19 -19 -8 0 0)
1969/12/31/18:00:09.600000,(-5 -3 -3 -17 -11 -2 3 -3)
1969/12/31/18:00:09.602000,(-3 -3 0 5 -2 0 3 -2)
1969/12/31/18:00:09.602000,(12 15 14 15 8 5 2 6)
1969/12/31/18:00:09.608000,(-3 -3 -1 -6 1 5 1 -1)
1969/12/31/18:00:09.608000,(11 4 -11 5 5 2 2 8)
1969/12/31/18:00:09.609000,(1 -3 -11 -22 -10 -1 0 2)
1969/12/31/18:00:09.610000,(-8 -4 -1 -10 -12 0 -1 -5)
1969/12/31/18:00:09.630000,(3 4 3 8 5 -2 1 0)
1969/12/31/18:00:09.630000,(4 3 2 -10 -9 -1 1 2)
1969/12/31/18:00:09.632000,(-7 -3 5 9 6 5 4 -1)
1969/12/31/18:00:09.632000,(1 -2 -4 3 3 0 -3 2)
1969/12/31/18:00:09.644000,(-11 1 -1 -11 -8 3 0 -14)
1969/12/31/18:00:09.644000,(-7 -7 -5 -11 -5 -4 -8 -6)
1969/12/31/18:00:09.653000,(5 1 -1 3 2 2 0 1)
1969/12/31/18:00:09.653000,(1 -4 -2 -12 3 -1 1 2)
1969/12/31/18:00:09.668000,(8 6 5 22 14 6 7 12)
1969/12/31/18:00:09.668000,(-2 -2 4 -3 -14 -1 0 -3)
1969/12/31/18:00:09.669000,(6 4 13 66 35 -5 -5 1)
1969/12/31/18:00:09.669000,(-10 -9 -12 -40 -26 -10 -5 -7)
1969/12/31/18:00:09.698000,(2 -1 -4 -22 -8 1 0 1)
1969/12/31/18:00:09.698000,(-3 -2 2 10 7 4 -2 -3)
1969/12/31/18:00:09.699000,(-3 -4 -1 -6 -3 3 0 -2)
1969/12/31/18:00:09.699000,(1 -1 -7 2 -4 -4 1 0)
1969/12/31/18:00:09.704000,(-7 -8 -4 -8 -1 1 5 3)
1969/12/31/18:00:09.704000,(-15 -8 -6 -9 -3 -1 -4 -9)
1969/12/31/18:00:09.713000,(44 34 18 5 15 26 41 51)
1969/12/31/18:00:09.713000,(0 -9 -11 -2 -12 -23 -39 -38)
1969/12/31/18:00:09.728000,(-1 -3 -7 -13 -9 -4 -3 0)
1969/12/31/18:00:09.728000,(2 -1 -2 2 5 -1 1 3)
1969/12/31/18:00:09.729000,(-16 -8 -1 -4 -6 0 0 -2)
1969/12/31/18:00:09.729000,(3 6 10 8 10 16 15 14)
1969/12/31/18:00:09.750000,(5 5 -1 -3 -5 -8 -7 0)
1969/12/31/18:00:09.750000,(-4 -3 1 6 4 1 1 2)
1969/12/31/18:00:09.752000,(-7 -1 -2 -7 -2 -6 -5 -10)
1969/12/31/18:00:09.752000,(2 -1 -5 3 0 -1 4 3)
1969/12/31/18:00:09.764000,(-4 -4 -2 3 0 -2 -6 -7)
1969/12/31/18:00:09.764000,(1 6 12 11 5 0 2 3)
1969/12/31/18:00:09.773000,(-6 -6 -8 -15 -9 -9 -10 -9)
1969/12/31/18:00:09.773000,(-1 -3 -4 -2 0 2 2 2)
1969/12/31/18:00:09.788000,(0 -2 1 3 0 9 4 5)
1969/12/31/18:00:09.788000,(11 11 5 8 11 7 3 3)
1969/12/31/18:00:09.789000,(-6 -9 -9 -17 -10 -9 -12 -13)
1969/12/31/18:00:09.789000,(-4 -2 1 6 0 -1 2 1)
1969/12/31/18:00:09.810000,(-6 -3 0 -2 -4 -6 -6 -7)
1969/12/31/18:00:09.810000,(0 -4 -3 -7 -5 -2 -4 0)
1969/12/31/18:00:09.812000,(15 10 3 1 2 7 5 10)
1969/12/31/18:00:09.812000,(-16 -8 -5 -2 -5 -4 -9 -15)
1969/12/31/18:00:09.824000,(2 -1 -2 -4 -5 -3 0 0)
1969/12/31/18:00:09.824000,(5 4 1 -2 2 0 2 1)
1969/12/31/18:00:09.833000,(-9 -7 -1 0 -1 0 -1 -3)
1969/12/31/18:00:09.833000,(6 4 3 2 4 4 4 9)
1969/12/31/18:00:09.833000,(-1 0 0 2 0 -1 0 0)
1969/12/31/18:00:09.833000,(-4 -2 -1 0 1 -2 -3 -3)
1969/12/31/18:00:09.835000,(0 0 0 -1 1 0 -1 1)
1969/12/31/18:00:09.835000,(0 0 0 -3 0 3 1 -1)
1969/12/31/18:00:09.848000,(1 0 1 0 -1 -1 -1 1)
1969/12/31/18:00:09.848000,(1 -1 -1 1 -1 -3 -3 -3)
1969/12/31/18:00:09.850000,(0 -1 -3 2 1 -4 0 -1)
1969/12/31/18:00:09.850000,(-4 -2 0 -1 -2 -4 -2 -2)
1969/12/31/18:00:09.871000,(-4 0 0 -1 -1 -2 -1 -3)
1969/12/31/18:00:09.871000,(1 -1 0 -4 0 4 4 4)
1969/12/31/18:00:09.872000,(0 0 -1 -1 -2 0 0 0)
1969/12/31/18:00:09.872000,(1 -1 -2 -1 -1 -1 1 -2)
1969/12/31/18:00:09.893000,(1 0 2 2 0 4 1 1)
1969/12/31/18:00:09.893000,(-4 -2 -1 2 1 -1 -1 -2)
1969/12/31/18:00:09.894000,(-1 1 -2 -1 -3 -3 -3 0)
1969/12/31/18:00:09.894000,(-3 -1 0 -3 -3 -3 -2 -2)
1969/12/31/18:00:09.908000,(1 0 -4 -2 -2 0 -2 -1)
1969/12/31/18:00:09.908000,(-3 -1 1 0 1 1 -1 -1)
1969/12/31/18:00:09.910000,(3 4 1 7 3 3 6 5)
1969/12/31/18:00:09.910000,(-3 -6 -1 -1 -5 -7 -5 -4)
1969/12/31/18:00:09.931000,(-3 -2 -7 0 -3 -2 0 -3)
1969/12/31/18:00:09.931000,(1 -1 -3 -3 -2 1 -1 1)
1969/12/31/18:00:09.932000,(0 0 -1 -3 0 0 -3 0)
1969/12/31/18:00:09.932000,(1 -2 -3 -4 1 3 -1 1)
1969/12/31/18:00:09.953000,(1 0 2 0 -2 -1 0 1)
1969/12/31/18:00:09.953000,(2 -1 -5 -13 -3 -5 0 2)
1969/12/31/18:00:09.955000,(3 1 10 12 4 0 1 2)
1969/12/31/18:00:09.955000,(-9 -4 3 10 1 -3 -4 -7)
1969/12/31/18:00:09.967000,(-3 -5 -9 -8 -3 -3 -3 -3)
1969/12/31/18:00:09.967000,(-6 -2 -4 -4 -3 -1 0 -4)
1969/12/31/18:00:09.974000,(4 2 6 10 11 0 -2 1)
1969/12/31/18:00:09.974000,(-2 -6 -12 -17 -4 4 1 2)
1969/12/31/18:00:09.991000,(9 11 24 6 5 5 3 3)
1969/12/31/18:00:09.991000,(-2 -1 -22 7 -1 -2 -3 -4)
1969/12/31/18:00:09.992000,(-6 -16 -16 -7 -3 -2 -6 -5)
1969/12/31/18:00:09.992000,(-6 8 30 46 6 -1 -3 -4)
1969/12/31/18:00:10.014000,(2 -3 -26 -15 -8 -6 -4 1)
1969/12/31/18:00:10.014000,(-5 -7 8 -24 -14 0 -2 -5)
1969/12/31/18:00:10.015000,(1 9 16 4 -5 7 8 2)
1969/12/31/18:00:10.015000,(8 -3 -30 11 20 -4 -2 6)
1969/12/31/18:00:10.036000,(-15 -13 8 -15 -10 -8 -7 -11)
1969/12/31/18:00:10.036000,(6 9 -7 11 8 -3 0 2)
1969/12/31/18:00:10.038000,(-10 -11 -7 -21 -12 3 -1 -5)
1969/12/31/18:00:10.038000,(11 -1 -12 3 -1 2 6 8)
1969/12/31/18:00:10.051000,(-11 -4 27 -4 -4 -7 -6 -8)
1969/12/31/18:00:10.051000,(-13 -12 -30 3 -13 -2 -2 -5)
1969/12/31/18:00:10.053000,(1 -2 -5 -11 9 -6 -4 -2)
1969/12/31/18:00:10.053000,(4 7 5 -23 -14 2 4 5)
1969/12/31/18:00:10.073000,(-1 -10 -46 -80 -45 -12 -4 -1)
1969/12/31/18:00:10.073000,(5 2 21 -53 1 -1 2 2)
1969/12/31/18:00:10.075000,(7 18 57 98 17 18 10 6)
1969/12/31/18:00:10.075000,(0 -4 -9 50 67 8 -4 -3)
1969/12/31/18:00:10.087000,(-8 -4 13 46 18 -1 -7 -6)
1969/12/31/18:00:10.087000,(3 11 7 -52 -16 5 4 3)
1969/12/31/18:00:10.096000,(5 -9 -56 -73 -69 -22 -8 2)
1969/12/31/18:00:10.096000,(-10 -4 5 -43 -29 -17 -7 -6)
1969/12/31/18:00:10.111000,(6 7 6 -5 22 9 8 3)
1969/12/31/18:00:10.111000,(0 1 17 50 36 3 -1 -1)
1969/12/31/18:00:10.113000,(-9 -9 -21 -19 18 4 -3 -7)
1969/12/31/18:00:10.113000,(12 13 32 76 9 22 14 13)
1969/12/31/18:00:10.133000,(6 14 14 44 9 3 1 1)
1969/12/31/18:00:10.133000,(-7 -15 -9 -20 23 -2 -6 -4)
1969/12/31/18:00:10.141000,(-2 4 32 31 5 4 5 -1)
1969/12/31/18:00:10.141000,(-1 -2 -33 -102 -38 -13 -5 -4)
1969/12/31/18:00:10.147000,(4 -2 -23 -87 -57 -2 9 10)
1969/12/31/18:00:10.147000,(10 4 -3 92 7 -2 0 9)
1969/12/31/18:00:10.156000,(-12 -8 -3 -31 46 0 -8 -9)
1969/12/31/18:00:10.156000,(-13 -10 5 -9 -45 -20 -10 -11)
1969/12/31/18:00:10.171000,(2 3 7 33 36 -1 -3 -3)
1969/12/31/18:00:10.171000,(10 0 -35 -68 -54 1 8 7)
1969/12/31/18:00:10.172000,(2 0 18 -30 24 9 4 4)
1969/12/31/18:00:10.172000,(12 25 58 102 96 32 13 8)
1969/12/31/18:00:10.193000,(-5 -7 -10 19 11 -1 1 -3)
1969/12/31/18:00:10.193000,(-3 -6 -10 -10 -31 -16 -6 -2)
1969/12/31/18:00:10.195000,(0 2 -25 -57 -27 -15 -5 1)
1969/12/31/18:00:10.195000,(1 0 -14 -51 -9 4 3 1)
1969/12/31/18:00:10.207000,(0 4 21 21 2 11 0 0)
1969/12/31/18:00:10.207000,(11 19 45 75 21 22 10 6)
1969/12/31/18:00:10.216000,(8 -3 -20 48 4 0 -4 0)
1969/12/31/18:00:10.216000,(-25 -35 -17 -87 -43 -19 -15 -18)
1969/12/31/18:00:10.231000,(-5 -2 -11 -48 -1 -4 -1 0)
1969/12/31/18:00:10.231000,(-3 4 25 52 48 3 0 -3)
1969/12/31/18:00:10.232000,(-4 0 -5 -6 -19 -10 -3 -3)
1969/12/31/18:00:10.232000,(6 -1 -20 -15 -9 -3 4 5)
1969/12/31/18:00:10.253000,(2 -3 -7 4 -13 -2 0 0)
1969/12/31/18:00:10.253000,(-5 1 11 3 -5 -5 -3 -4)
1969/12/31/18:00:10.255000,(0 0 9 46 19 5 4 0)
1969/12/31/18:00:10.255000,(-2 -2 -8 3 -8 -4 0 -1)
1969/12/31/18:00:10.267000,(2 2 -2 -16 -3 -1 2 2)
1969/12/31/18:00:10.267000,(-1 -1 -4 -26 -2 -4 -2 -3)
1969/12/31/18:00:10.276000,(-1 2 0 14 -3 -2 -4 -3)
1969/12/31/18:00:10.276000,(0 3 0 -8 -10 -3 -2 -2)
1969/12/31/18:00:10.291000,(3 0 -2 12 9 3 1 2)
1969/12/31/18:00:10.291000,(3 -2 0 10 8 2 0 -1)
1969/12/31/18:00:10.292000,(-3 -1 0 -15 -11 -1 -1 -2)
1969/12/31/18:00:10.292000,(0 1 -2 -5 -3 -1 -1 0)
1969/12/31/18:00:10.313000,(3 -1 2 27 16 4 -1 3)
1969/12/31/18:00:10.313000,(-1 -1 -1 -15 -7 -2 -3 1)
1969/12/31/18:00:10.315000,(0 1 1 -19 -15 -1 1 0)
1969/12/31/18:00:10.315000,(-2 3 2 6 2 4 0 -1)
1969/12/31/18:00:10.336000,(0 -2 2 25 7 2 2 1)
1969/12/31/18:00:10.336000,(-4 -4 -7 -23 -10 -3 -5 -3)
1969/12/31/18:00:10.337000,(-2 -2 -2 -8 -4 -2 -1 -2)
1969/12/31/18:00:10.337000,(1 2 2 12 5 2 0 0)
1969/12/31/18:00:10.351000,(-2 -2 -3 0 0 -3 -2 -6)
1969/12/31/18:00:10.351000,(-1 -1 -2 -15 -4 -2 1 -2)
1969/12/31/18:00:10.353000,(-2 -3 -4 1 -2 -2 0 -3)
1969/12/31/18:00:10.353000,(4 4 2 -4 -4 3 4 5)
1969/12/31/18:00:10.373000,(1 5 7 16 5 0 2 2)
1969/12/31/18:00:10.373000,(-2 -1 -5 -14 -11 -4 -3 0)
1969/12/31/18:00:10.375000,(0 2 3 16 9 2 0 2)
1969/12/31/18:00:10.375000,(-4 -4 -4 -5 -3 -1 -3 -3)
1969/12/31/18:00:10.387000,(-5 -4 -3 3 -3 1 -5 -4)
1969/12/31/18:00:10.387000,(1 1 -5 -9 -7 -3 0 1)
1969/12/31/18:00:10.396000,(-1 1 2 0 -3 -3 -1 -3)
1969/12/31/18:00:10.396000,(1 -3 -6 -5 -4 -2 -1 2)
1969/12/31/18:00:10.411000,(2 1 0 -2 -2 -1 0 2)
1969/12/31/18:00:10.411000,(-4 2 6 20 11 4 -1 -7)
1969/12/31/18:00:10.412000,(2 -3 -8 -29 -12 -1 -2 3)
1969/12/31/18:00:10.412000,(1 3 4 26 7 4 0 0)
1969/12/31/18:00:10.433000,(2 1 5 2 6 3 -3 -2)
1969/12/31/18:00:10.433000,(7 2 -1 -15 -8 7 1 6)
1969/12/31/18:00:10.435000,(-2 -2 1 -1 -2 1 -4 -4)
1969/12/31/18:00:10.435000,(1 -3 -4 -4 -3 -8 -3 -1)
1969/12/31/18:00:10.447000,(-3 -5 -7 -16 -9 -9 1 -1)
1969/12/31/18:00:10.447000,(-4 -3 3 16 10 -4 1 -3)
1969/12/31/18:00:10.456000,(0 1 4 15 13 4 4 1)
1969/12/31/18:00:10.456000,(-4 -3 -1 4 2 0 -2 -2)
1969/12/31/18:00:10.471000,(1 1 -5 -3 0 -1 0 -1)
1969/12/31/18:00:10.471000,(-4 -5 -9 -20 -23 -7 -4 -3)
1969/12/31/18:00:10.472000,(-3 0 0 -5 3 -3 -3 -2)
1969/12/31/18:00:10.472000,(4 5 12 34 15 7 2 2)
1969/12/31/18:00:10.493000,(-7 -2 2 -5 -2 2 -3 -1)
1969/12/31/18:00:10.493000,(7 -2 0 3 7 4 3 4)
1969/12/31/18:00:10.494000,(8 4 -8 -28 -15 -3 -1 2)
1969/12/31/18:00:10.494000,(-6 0 -1 -11 -10 -3 1 -1)
1969/12/31/18:00:10.507000,(-12 -6 5 5 4 0 -2 -6)
1969/12/31/18:00:10.507000,(-1 -4 -11 -18 -9 -2 -1 1)
1969/12/31/18:00:10.516000,(-9 -5 2 16 -3 -5 -1 -3)
1969/12/31/18:00:10.516000,(8 4 1 -2 0 -6 0 2)
1969/12/31/18:00:10.539000,(-1 -2 -15 -62 -33 -11 -2 2)
1969/12/31/18:00:10.539000,(-6 1 19 66 20 7 -1 -2)
1969/12/31/18:00:10.540000,(4 5 21 55 59 24 4 -2)
1969/12/31/18:00:10.540000,(-4 -3 3 10 17 9 3 0)
1969/12/31/18:00:10.553000,(-4 2 0 -2 -1 1 -1 -2)
1969/12/31/18:00:10.553000,(8 -18 -25 -57 -30 -16 -5 -1)
1969/12/31/18:00:10.555000,(24 25 1 -9 -11 0 6 8)
1969/12/31/18:00:10.555000,(-5 -9 -3 -4 -3 -4 -2 1)
1969/12/31/18:00:10.567000,(14 5 -2 0 2 -2 -1 6)
1969/12/31/18:00:10.567000,(-15 -9 -6 -12 -5 -10 -10 -9)
1969/12/31/18:00:10.576000,(-8 -5 -4 -2 -10 -2 6 3)
1969/12/31/18:00:10.576000,(2 0 -1 -9 -8 -4 -3 -4)
1969/12/31/18:00:10.590000,(-6 -3 -2 11 -1 -4 -2 -4)
1969/12/31/18:00:10.590000,(0 11 19 29 19 9 7 4)
1969/12/31/18:00:10.597000,(-2 -6 -8 -12 -12 -10 -2 -4)
1969/12/31/18:00:10.597000,(-17 -5 -5 -7 -5 -2 -2 -8)
1969/12/31/18:00:10.613000,(-14 0 6 20 7 9 8 -2)
1969/12/31/18:00:10.613000,(17 5 -2 3 7 2 -3 -3)
1969/12/31/18:00:10.615000,(39 0 -5 -15 -12 -6 -10 -1)
1969/12/31/18:00:10.615000,(-7 11 0 -12 -2 4 0 0)
1969/12/31/18:00:10.627000,(-19 -19 -3 5 -3 -5 -6 -5)
1969/12/31/18:00:10.627000,(-15 -6 -9 -48 -42 -15 -3 -1)
1969/12/31/18:00:10.644000,(-21 -9 -20 -40 7 5 -2 -7)
1969/12/31/18:00:10.644000,(22 10 6 34 58 19 8 10)
1969/12/31/18:00:10.650000,(9 11 26 63 39 15 8 6)
1969/12/31/18:00:10.650000,(-7 8 30 51 3 -2 -1 -5)
1969/12/31/18:00:10.657000,(-5 -4 5 25 -29 -11 -2 1)
1969/12/31/18:00:10.657000,(0 -5 -12 -46 -16 -4 -3 -2)
1969/12/31/18:00:10.673000,(3 0 -13 -25 -2 -3 -1 -2)
1969/12/31/18:00:10.673000,(1 -5 -13 -22 0 0 1 1)
1969/12/31/18:00:10.675000,(-12 -2 0 4 -1 -6 -6 -5)
1969/12/31/18:00:10.675000,(-6 -8 -9 -5 -14 -7 -4 -5)
1969/12/31/18:00:10.687000,(23 4 -8 -15 -12 -7 0 8)
1969/12/31/18:00:10.687000,(10 8 -2 -24 -13 -2 1 4)
1969/12/31/18:00:10.696000,(-12 -5 -3 -12 -12 -2 0 -1)
1969/12/31/18:00:10.696000,(-7 -14 -50 -35 -77 -33 -8 -6)
1969/12/31/18:00:10.710000,(6 7 30 94 71 33 5 3)
1969/12/31/18:00:10.710000,(0 11 60 124 115 48 8 1)
1969/12/31/18:00:10.717000,(-6 1 41 69 46 26 8 6)
1969/12/31/18:00:10.717000,(2 10 17 2 13 -1 -4 -7)
1969/12/31/18:00:10.733000,(24 2 -26 -68 -56 -14 21 24)
1969/12/31/18:00:10.733000,(-6 -13 -45 -72 -39 -32 -23 -23)
1969/12/31/18:00:10.735000,(-8 -7 -29 -89 -32 -15 -4 -2)
1969/12/31/18:00:10.735000,(5 1 10 4 -32 -5 3 7)
1969/12/31/18:00:10.756000,(-7 -3 -5 6 -1 -2 -3 -1)
1969/12/31/18:00:10.756000,(-9 -3 3 6 20 9 7 4)
1969/12/31/18:00:10.757000,(11 10 -3 1 2 0 6 4)
1969/12/31/18:00:10.757000,(2 -2 -1 -6 -2 -2 -2 1)
1969/12/31/18:00:10.770000,(-2 1 -1 -17 -7 -3 -2 -4)
1969/12/31/18:00:10.770000,(7 -8 -25 -76 -38 -11 -2 3)
1969/12/31/18:00:10.777000,(-3 2 15 86 6 6 3 -2)
1969/12/31/18:00:10.777000,(-12 2 37 101 72 20 -1 -9)
1969/12/31/18:00:10.793000,(-55 -26 3 10 3 -3 -15 -29)
1969/12/31/18:00:10.793000,(81 46 -1 -42 -19 1 21 46)
1969/12/31/18:00:10.795000,(-32 -29 -38 -37 -37 -30 -31 -39)
1969/12/31/18:00:10.795000,(-2 0 2 1 1 1 0 -2)
1969/12/31/18:00:10.816000,(-3 4 0 -8 3 2 -1 0)
1969/12/31/18:00:10.816000,(-21 -17 -17 -20 -10 -6 -1 -2)
1969/12/31/18:00:10.817000,(9 7 4 -16 -8 0 7 13)
1969/12/31/18:00:10.817000,(11 6 22 36 6 1 3 6)
1969/12/31/18:00:10.830000,(-9 -7 1 -13 -14 -12 -13 -12)
1969/12/31/18:00:10.830000,(-17 -6 5 52 36 13 0 -7)
1969/12/31/18:00:10.839000,(17 10 12 40 39 18 10 12)
1969/12/31/18:00:10.839000,(-20 -13 -9 -16 -5 -1 -3 -10)
1969/12/31/18:00:10.853000,(17 6 -17 -56 -32 -10 0 6)
1969/12/31/18:00:10.853000,(-16 -10 -6 4 -19 -2 2 -9)
1969/12/31/18:00:10.855000,(6 3 -9 -90 -15 -3 2 9)
1969/12/31/18:00:10.855000,(1 -2 -6 32 5 -1 1 8)
1969/12/31/18:00:10.876000,(11 5 14 33 22 8 3 8)
1969/12/31/18:00:10.876000,(0 1 2 16 3 1 -3 -13)
1969/12/31/18:00:10.878000,(-25 -9 2 5 -6 -5 -8 -15)
1969/12/31/18:00:10.878000,(9 1 0 -37 -10 1 6 11)
1969/12/31/18:00:10.889000,(-10 -7 -11 -31 -9 -13 -14 -19)
1969/12/31/18:00:10.889000,(25 17 12 46 15 13 27 46)
1969/12/31/18:00:10.898000,(18 7 3 -3 0 0 2 3)
1969/12/31/18:00:10.898000,(-12 -6 -14 -24 -12 -10 -11 -16)
1969/12/31/18:00:10.913000,(10 0 2 16 2 2 0 -1)
1969/12/31/18:00:10.913000,(-22 -8 -6 -20 -2 4 -1 -8)
1969/12/31/18:00:10.915000,(8 7 12 26 8 5 5 11)
1969/12/31/18:00:10.915000,(2 -1 1 -10 -11 -6 0 4)
1969/12/31/18:00:10.936000,(0 -8 -41 -91 -45 -15 -1 -3)
1969/12/31/18:00:10.936000,(-10 -6 10 29 18 3 -5 -10)
1969/12/31/18:00:10.937000,(-3 5 48 102 75 24 6 2)
1969/12/31/18:00:10.937000,(1 8 18 32 35 13 -2 -6)
1969/12/31/18:00:10.949000,(14 3 5 6 -6 -3 -1 1)
1969/12/31/18:00:10.949000,(-15 -13 -27 -56 -47 -20 -10 -12)
1969/12/31/18:00:10.959000,(-18 -22 -33 -46 -31 -11 -1 -1)
1969/12/31/18:00:10.959000,(38 25 9 -10 1 7 8 14)
1969/12/31/18:00:10.973000,(7 2 -3 2 -4 -6 -4 -2)
1969/12/31/18:00:10.973000,(-8 -3 0 -8 -2 -4 -8 -9)
1969/12/31/18:00:10.975000,(-4 -6 -7 -2 -7 -8 -7 -5)
1969/12/31/18:00:10.975000,(-36 -20 -13 -25 -9 0 2 -3)
1969/12/31/18:00:10.996000,(-10 -2 2 13 -2 -8 -13 -16)
1969/12/31/18:00:10.996000,(7 5 10 22 3 4 -2 -1)
1969/12/31/18:00:10.997000,(-12 -7 -3 -4 10 -2 -3 -7)
1969/12/31/18:00:10.997000,(-1 -6 -24 -53 -5 -2 -2 -3)
1969/12/31/18:00:11.009000,(13 13 16 57 14 14 15 18)
1969/12/31/18:00:11.009000,(-7 -2 18 30 9 -4 -3 -6)
1969/12/31/18:00:11.018000,(-2 1 -13 -36 -22 -13 -7 -7)
1969/12/31/18:00:11.019000,(3 -3 -7 0 -7 -4 0 0)
1969/12/31/18:00:11.034000,(1 2 7 20 19 9 3 5)
1969/12/31/18:00:11.034000,(0 4 -3 -21 2 4 1 -1)
1969/12/31/18:00:11.035000,(8 2 -13 -39 -19 -3 6 7)
1969/12/31/18:00:11.035000,(6 3 3 25 -2 1 -3 0)
1969/12/31/18:00:11.056000,(-16 -8 26 45 21 9 0 -5)
1969/12/31/18:00:11.056000,(5 8 2 10 7 4 2 3)
1969/12/31/18:00:11.057000,(0 -5 -23 -47 -14 -7 -7 -4)
1969/12/31/18:00:11.057000,(6 2 -7 -8 -4 0 4 7)
1969/12/31/18:00:11.069000,(-9 4 12 22 3 -2 -4 -5)
1969/12/31/18:00:11.069000,(-28 -18 -4 -3 0 -5 -6 -9)
1969/12/31/18:00:11.078000,(33 21 7 10 6 7 13 18)
1969/12/31/18:00:11.078000,(26 -7 -17 -37 -19 -12 -12 -3)
1969/12/31/18:00:11.093000,(-22 1 2 -7 15 11 8 -8)
1969/12/31/18:00:11.093000,(8 4 1 0 -11 -2 -2 -3)
1969/12/31/18:00:11.095000,(-21 -11 3 37 3 -3 -5 -9)
1969/12/31/18:00:11.095000,(-40 -19 3 -4 -8 -6 -12 -19)
1969/12/31/18:00:11.117000,(65 30 1 -31 6 10 15 32)
1969/12/31/18:00:11.117000,(-1 0 4 6 -4 -2 -3 -3)
1969/12/31/18:00:11.119000,(-13 -4 1 1 -3 -1 -4 -8)
1969/12/31/18:00:11.119000,(39 21 4 46 17 11 18 25)
1969/12/31/18:00:11.122000,(-22 -16 2 -8 -10 -9 -14 -14)
1969/12/31/18:00:11.122000,(-29 -18 9 31 12 5 6 0)
1969/12/31/18:00:11.131000,(49 24 -2 -9 -5 2 5 16)
1969/12/31/18:00:11.131000,(-15 -8 -5 -21 -1 -1 -2 -2)
1969/12/31/18:00:11.145000,(7 13 -11 -14 -10 -2 9 8)
1969/12/31/18:00:11.145000,(4 0 -21 -35 -13 -17 -26 -27)
1969/12/31/18:00:11.152000,(5 -13 17 21 -9 -8 -9 0)
1969/12/31/18:00:11.152000,(-37 -24 -10 3 -5 -11 -13 -17)
1969/12/31/18:00:11.169000,(40 19 3 9 3 3 1 4)
1969/12/31/18:00:11.169000,(24 21 6 -18 6 13 19 25)
1969/12/31/18:00:11.170000,(4 8 -11 -7 7 8 11 13)
1969/12/31/18:00:11.171000,(-13 -8 -4 -52 -14 -2 1 -4)
1969/12/31/18:00:11.182000,(-25 -24 -9 27 4 -8 -5 0)
1969/12/31/18:00:11.182000,(-6 0 20 60 12 5 1 -8)
1969/12/31/18:00:11.191000,(-7 17 18 -12 0 1 2 6)
1969/12/31/18:00:11.191000,(31 17 18 38 23 16 9 -4)
1969/12/31/18:00:11.205000,(-17 0 -2 -13 2 6 14 20)
1969/12/31/18:00:11.205000,(-12 -18 -29 -64 -25 -16 -12 -14)
1969/12/31/18:00:11.212000,(49 39 5 21 1 10 12 14)
1969/12/31/18:00:11.212000,(-39 -32 -8 -5 -9 -14 -20 -22)
1969/12/31/18:00:11.228000,(-1 0 0 -13 -3 -6 -4 7)
1969/12/31/18:00:11.228000,(0 2 -8 -4 -5 -16 -14 -17)
1969/12/31/18:00:11.230000,(-25 -19 -1 2 0 1 6 -3)
1969/12/31/18:00:11.230000,(4 2 4 7 8 3 7 4)
1969/12/31/18:00:11.242000,(1 -5 -7 -7 -4 4 7 1)
1969/12/31/18:00:11.242000,(-3 -2 7 -1 -2 2 4 10)
1969/12/31/18:00:11.268000,(3 -5 -17 -39 -6 3 0 1)
1969/12/31/18:00:11.268000,(13 13 -5 -28 -10 7 9 9)
1969/12/31/18:00:11.268000,(-28 -17 16 59 10 -6 -14 -19)
1969/12/31/18:00:11.268000,(6 5 23 70 34 13 4 3)
1969/12/31/18:00:11.272000,(-11 -5 4 23 5 -4 -5 -11)
1969/12/31/18:00:11.272000,(-28 -37 -14 -29 -10 -3 2 8)
1969/12/31/18:00:11.288000,(93 72 -1 -31 -8 11 19 31)
1969/12/31/18:00:11.288000,(0 -2 -11 -24 -14 -19 -26 -33)
1969/12/31/18:00:11.290000,(-75 -53 -19 -3 -4 -18 -28 -45)
1969/12/31/18:00:11.290000,(93 64 17 6 -2 -2 11 33)
1969/12/31/18:00:11.311000,(-75 -67 -18 -16 -6 -7 -1 -22)
1969/12/31/18:00:11.311000,(66 50 18 12 14 18 16 35)
1969/12/31/18:00:11.312000,(25 2 -2 2 -7 -17 -21 -11)
1969/12/31/18:00:11.312000,(-2 11 -2 8 1 0 -5 -5)
1969/12/31/18:00:11.325000,(-21 -20 -7 -11 -6 -10 -12 -16)
1969/12/31/18:00:11.325000,(0 -1 -9 -9 2 14 19 14)
1969/12/31/18:00:11.332000,(-54 -26 4 3 3 12 14 -1)
1969/12/31/18:00:11.332000,(65 60 23 21 7 6 12 33)
1969/12/31/18:00:11.348000,(-33 -23 0 6 14 15 2 -22)
1969/12/31/18:00:11.348000,(-31 -37 -9 -15 -13 -4 3 8)
1969/12/31/18:00:11.350000,(25 11 0 -11 9 16 14 19)
1969/12/31/18:00:11.350000,(20 21 -8 12 -4 -12 -5 -4)
1969/12/31/18:00:11.362000,(-15 18 12 17 14 23 28 2)
1969/12/31/18:00:11.362000,(-59 -31 -9 -15 -11 -5 -3 -23)
1969/12/31/18:00:11.371000,(47 22 0 8 4 -10 -22 -7)
1969/12/31/18:00:11.371000,(4 -13 3 1 -1 -13 -11 18)
1969/12/31/18:00:11.385000,(6 -6 -13 -17 -12 -9 -11 -2)
1969/12/31/18:00:11.385000,(-33 -23 -11 1 -2 -1 -2 -14)
1969/12/31/18:00:11.392000,(30 36 15 10 7 10 10 5)
1969/12/31/18:00:11.392000,(-94 -51 -10 -6 -11 -15 -26 -52)
1969/12/31/18:00:11.408000,(21 8 -1 -5 -7 -12 -10 12)
1969/12/31/18:00:11.408000,(5 -4 -24 -60 -5 12 15 5)
1969/12/31/18:00:11.410000,(-37 -36 5 25 -2 9 23 22)
1969/12/31/18:00:11.410000,(41 32 18 38 5 -15 -22 -14)
1969/12/31/18:00:11.422000,(-13 -6 6 17 7 -4 -14 -19)
1969/12/31/18:00:11.422000,(0 9 14 8 -4 -8 -7 -8)
1969/12/31/18:00:11.431000,(-18 -4 -14 -24 -3 1 4 1)
1969/12/31/18:00:11.431000,(37 5 -3 -21 -3 20 27 25)
1969/12/31/18:00:11.445000,(-24 -13 -5 -8 -5 2 -4 -6)
1969/12/31/18:00:11.445000,(14 13 4 4 0 -7 -9 13)
1969/12/31/18:00:11.452000,(-27 -11 -10 -8 -11 -12 -21 -39)
1969/12/31/18:00:11.452000,(-47 -26 9 14 5 8 18 7)
1969/12/31/18:00:11.468000,(61 25 -18 -19 -6 -4 -6 10)
1969/12/31/18:00:11.468000,(-20 -18 7 4 5 19 22 17)
1969/12/31/18:00:11.470000,(-29 -19 6 29 16 19 6 -9)
1969/12/31/18:00:11.470000,(67 62 9 -6 -4 -21 -16 37)
1969/12/31/18:00:11.482000,(-25 -20 -10 -11 -15 -24 -23 -23)
1969/12/31/18:00:11.482000,(26 26 5 5 4 -4 0 8)
1969/12/31/18:00:11.491000,(-27 -30 -3 -21 -16 -2 13 -1)
1969/12/31/18:00:11.491000,(-10 -10 -32 -80 -4 23 22 4)
1969/12/31/18:00:11.507000,(4 16 34 96 23 0 0 3)
1969/12/31/18:00:11.507000,(6 5 19 36 14 -1 -6 -4)
1969/12/31/18:00:11.512000,(6 10 12 36 15 13 13 12)
1969/12/31/18:00:11.512000,(-40 -19 4 -4 -4 0 -4 -22)
1969/12/31/18:00:11.529000,(-2 -6 -26 -52 -17 -2 1 1)
1969/12/31/18:00:11.529000,(2 -17 -22 -26 -27 -37 -33 -10)
1969/12/31/18:00:11.530000,(53 34 7 -11 7 0 1 6)
1969/12/31/18:00:11.530000,(7 -15 0 4 -2 6 17 11)
1969/12/31/18:00:11.542000,(-23 -7 -7 -12 -6 -3 -6 -18)
1969/12/31/18:00:11.542000,(66 45 19 28 25 25 27 46)
1969/12/31/18:00:11.551000,(-28 -22 -22 -27 -19 -22 -26 -25)
1969/12/31/18:00:11.551000,(-2 -1 2 8 -1 -3 -12 -15)
1969/12/31/18:00:11.565000,(-16 -18 -1 -8 1 -6 -9 -8)
1969/12/31/18:00:11.565000,(7 5 -6 3 -4 11 15 12)
1969/12/31/18:00:11.572000,(19 24 18 17 -2 -10 -7 3)
1969/12/31/18:00:11.572000,(-40 -19 1 23 18 15 17 -12)
1969/12/31/18:00:11.588000,(20 13 8 -3 1 4 9 20)
1969/12/31/18:00:11.588000,(-12 -2 -14 -30 -12 -12 -12 -15)
1969/12/31/18:00:11.590000,(-73 -48 -20 -8 -7 3 6 -24)
1969/12/31/18:00:11.590000,(18 10 6 19 -8 -29 -46 -6)
1969/12/31/18:00:11.602000,(-5 0 -3 -13 -8 -1 -14 -29)
1969/12/31/18:00:11.602000,(54 34 4 5 0 -4 3 31)
1969/12/31/18:00:11.611000,(-30 -22 3 4 5 8 5 5)
1969/12/31/18:00:11.611000,(-24 -15 2 -1 7 12 12 -4)
1969/12/31/18:00:11.625000,(60 36 3 -2 -2 1 9 33)
1969/12/31/18:00:11.625000,(-43 -23 1 3 -2 4 -5 -30)
1969/12/31/18:00:11.632000,(22 10 -6 -38 -11 -2 2 15)
1969/12/31/18:00:11.632000,(7 3 -4 22 3 1 -2 -8)
1969/12/31/18:00:11.648000,(-6 -8 8 12 5 -2 -8 -9)
1969/12/31/18:00:11.649000,(-24 -20 -26 -68 -30 -18 -14 -19)
1969/12/31/18:00:11.650000,(24 9 7 39 6 -2 3 14)
1969/12/31/18:00:11.650000,(-52 -23 20 50 14 10 10 -14)
1969/12/31/18:00:11.662000,(82 82 34 36 30 33 48 59)
1969/12/31/18:00:11.662000,(32 4 -1 5 3 -9 -11 20)
1969/12/31/18:00:11.671000,(-35 -19 -25 -39 -18 -20 -23 -39)
1969/12/31/18:00:11.671000,(53 39 12 -2 26 41 51 66)
1969/12/31/18:00:11.685000,(-109 -79 -43 -35 -40 -50 -70 -95)
1969/12/31/18:00:11.685000,(-57 -18 0 4 7 9 6 -21)
1969/12/31/18:00:11.692000,(64 48 5 -3 -5 -9 -10 20)
1969/12/31/18:00:11.692000,(-13 -16 1 10 2 7 9 -6)
1969/12/31/18:00:11.708000,(24 24 3 -7 6 10 20 36)
1969/12/31/18:00:11.708000,(-41 -15 -5 -12 -10 -8 -14 -42)
1969/12/31/18:00:11.710000,(-23 -23 -2 15 -2 -13 -15 -23)
1969/12/31/18:00:11.710000,(1 6 -11 -24 -11 -15 -12 -3)
1969/12/31/18:00:11.722000,(-31 -42 -11 -27 8 9 10 2)
1969/12/31/18:00:11.722000,(-29 -7 -14 -64 -16 -8 -4 -7)
1969/12/31/18:00:11.731000,(3 11 35 112 16 7 -2 -5)
1969/12/31/18:00:11.731000,(-16 -11 -19 -57 -27 -19 -23 -26)
1969/12/31/18:00:11.745000,(-36 -10 15 81 16 -2 -5 -11)
1969/12/31/18:00:11.745000,(96 54 28 26 17 36 46 78)
1969/12/31/18:00:11.752000,(20 26 9 -9 16 9 7 18)
1969/12/31/18:00:11.752000,(-70 -43 -26 -17 18 -2 -11 -29)
1969/12/31/18:00:11.768000,(75 40 36 60 -23 11 20 66)
1969/12/31/18:00:11.768000,(-56 -53 -11 15 13 15 12 -7)
1969/12/31/18:00:11.774000,(-14 17 -12 -26 -10 3 -6 -11)
1969/12/31/18:00:11.774000,(24 -7 -13 -44 -12 5 7 5)
1969/12/31/18:00:11.782000,(-5 8 -17 -55 3 -5 6 12)
1969/12/31/18:00:11.782000,(62 33 10 23 2 -5 1 34)
1969/12/31/18:00:11.791000,(11 -7 12 0 0 -4 2 14)
1969/12/31/18:00:11.791000,(-24 -13 -5 -14 -11 -11 -8 -22)
1969/12/31/18:00:11.805000,(-27 -18 -3 14 4 -2 -4 -23)
1969/12/31/18:00:11.805000,(-21 -12 6 31 -15 -10 -16 -25)
1969/12/31/18:00:11.812000,(31 20 -4 -16 23 3 10 19)
1969/12/31/18:00:11.812000,(-9 -10 -30 -86 -35 -14 -14 -10)
1969/12/31/18:00:11.828000,(-5 -9 8 33 -2 7 7 4)
1969/12/31/18:00:11.828000,(-6 -2 20 62 28 4 -9 -32)
1969/12/31/18:00:11.834000,(-6 6 16 21 21 28 45 69)
1969/12/31/18:00:11.834000,(-98 -21 8 40 1 -1 -23 -81)
1969/12/31/18:00:11.842000,(70 12 -18 -84 -20 -15 -5 41)
1969/12/31/18:00:11.842000,(-23 -12 -22 -15 -12 -15 -16 -28)
1969/12/31/18:00:11.851000,(-22 -31 -11 -6 -9 -1 -4 -15)
1969/12/31/18:00:11.851000,(35 20 14 31 2 -2 0 22)
1969/12/31/18:00:11.865000,(-15 -6 -11 -7 11 12 10 -12)
1969/12/31/18:00:11.865000,(-11 -9 -1 -9 -2 -1 0 -5)
1969/12/31/18:00:11.872000,(28 7 -12 -68 -31 -10 -5 2)
1969/12/31/18:00:11.872000,(-1 4 19 62 8 2 5 4)
1969/12/31/18:00:11.888000,(-6 -11 13 20 17 0 0 2)
1969/12/31/18:00:11.888000,(12 12 11 34 25 9 5 10)
1969/12/31/18:00:11.894000,(-9 -16 -31 -63 -31 -15 -13 -19)
1969/12/31/18:00:11.895000,(17 11 -20 24 -36 -23 -13 12)
1969/12/31/18:00:11.902000,(20 14 44 91 54 18 14 -12)
1969/12/31/18:00:11.902000,(4 8 42 67 41 15 4 6)
1969/12/31/18:00:11.911000,(1 18 6 2 11 -7 -15 -12)
1969/12/31/18:00:11.911000,(-118 -117 -43 -72 -31 -24 -37 -64)
1969/12/31/18:00:11.925000,(36 28 -26 -71 -34 4 18 28)
1969/12/31/18:00:11.925000,(-3 0 -5 -30 -7 -5 1 11)
1969/12/31/18:00:11.932000,(-5 0 -5 -23 -11 -5 -8 -15)
1969/12/31/18:00:11.932000,(5 -8 12 21 9 -4 -6 2)
1969/12/31/18:00:11.948000,(-19 0 2 -11 10 14 19 13)
1969/12/31/18:00:11.948000,(19 11 -5 -9 -4 3 11 14)
1969/12/31/18:00:11.954000,(-26 -36 -8 7 -8 -14 -21 -28)
1969/12/31/18:00:11.954000,(46 29 -1 -55 -10 9 20 42)
1969/12/31/18:00:11.971000,(-30 -8 11 28 3 -5 -10 -26)
1969/12/31/18:00:11.971000,(-50 -13 5 18 -3 -7 -16 -39)
1969/12/31/18:00:11.973000,(86 60 45 73 41 49 70 100)
1969/12/31/18:00:11.973000,(-30 -3 -5 3 -2 -29 -38 -44)
1969/12/31/18:00:11.985000,(-34 -14 -23 -33 -1 -6 -11 -23)
1969/12/31/18:00:11.985000,(-67 -41 -40 -79 -54 -24 -17 -20)
1969/12/31/18:00:11.992000,(-19 -5 14 40 10 -5 -12 -24)
1969/12/31/18:00:11.992000,(34 24 20 18 24 20 21 22)
1969/12/31/18:00:12.016000,(-9 -11 -8 -3 -17 -14 -21 -15)
1969/12/31/18:00:12.016000,(14 -3 -8 -16 1 10 10 6)
1969/12/31/18:00:12.017000,(-11 -6 -8 -10 -10 -3 -7 -10)
1969/12/31/18:00:12.018000,(30 22 7 26 15 10 12 19)
1969/12/31/18:00:12.038000,(-47 -52 -10 -10 -9 -15 -20 -29)
1969/12/31/18:00:12.038000,(0 2 1 -6 -3 -3 -1 -1)
1969/12/31/18:00:12.040000,(-14 0 -7 -14 -10 -7 0 -7)
1969/12/31/18:00:12.040000,(127 94 28 27 25 29 47 96)
1969/12/31/18:00:12.052000,(-54 -30 -19 -39 -20 -17 -26 -45)
1969/12/31/18:00:12.052000,(17 9 -7 -31 -9 -6 -3 7)
1969/12/31/18:00:12.061000,(-3 -5 -20 -37 -10 -2 3 1)
1969/12/31/18:00:12.061000,(-50 -40 17 82 15 -9 -16 -35)
1969/12/31/18:00:12.076000,(67 62 49 69 28 33 43 58)
1969/12/31/18:00:12.076000,(0 -1 -1 13 2 -1 0 -2)
1969/12/31/18:00:12.077000,(-25 -19 -6 -26 -14 -13 -21 -31)
1969/12/31/18:00:12.077000,(-10 -4 -10 3 5 -7 -7 -9)
1969/12/31/18:00:12.098000,(-9 -2 -10 -22 -9 -10 -8 -7)
1969/12/31/18:00:12.098000,(14 -5 -1 11 3 11 18 27)
1969/12/31/18:00:12.100000,(-36 7 -8 -13 3 10 5 -19)
1969/12/31/18:00:12.100000,(-4 -4 -7 -31 -23 -27 -36 -29)
1969/12/31/18:00:12.112000,(-55 -37 -13 -18 -15 -9 -18 -32)
1969/12/31/18:00:12.112000,(17 6 -7 -18 -9 -7 -7 2)
1969/12/31/18:00:12.121000,(-22 -27 -20 -18 1 4 4 -4)
1969/12/31/18:00:12.121000,(-44 -23 -3 17 4 1 -6 -24)
1969/12/31/18:00:12.136000,(114 96 48 45 31 31 45 86)
1969/12/31/18:00:12.136000,(-49 -32 -6 20 6 -7 -16 -43)
1969/12/31/18:00:12.137000,(-22 -21 -4 3 -6 -17 -24 -17)
1969/12/31/18:00:12.137000,(16 15 -7 -15 -1 10 14 4)
1969/12/31/18:00:12.158000,(-26 -30 -24 -29 -5 -3 0 -10)
1969/12/31/18:00:12.158000,(32 17 -3 -2 -3 -3 12 18)
1969/12/31/18:00:12.160000,(11 16 15 21 8 4 6 4)
1969/12/31/18:00:12.160000,(-13 -18 -7 -16 -6 -3 4 5)
1969/12/31/18:00:12.172000,(-11 -5 -12 -19 -18 -15 -12 -21)
1969/12/31/18:00:12.172000,(-12 0 -1 0 7 18 22 18)
1969/12/31/18:00:12.181000,(-19 -18 -14 -12 -14 -21 -32 -34)
1969/12/31/18:00:12.181000,(3 -1 0 -23 -6 6 9 11)
1969/12/31/18:00:12.196000,(-49 -29 2 18 -17 -17 -26 -35)
1969/12/31/18:00:12.196000,(10 22 35 70 46 24 33 35)
1969/12/31/18:00:12.197000,(7 3 13 30 14 12 9 10)
1969/12/31/18:00:12.197000,(9 -2 -13 -16 1 6 1 1)
1969/12/31/18:00:12.218000,(-26 -22 -48 -125 -37 -14 -15 -20)
1969/12/31/18:00:12.218000,(14 6 7 16 -14 -6 -3 3)
1969/12/31/18:00:12.220000,(15 14 29 68 30 11 11 17)
1969/12/31/18:00:12.220000,(11 16 21 28 18 7 2 5)
1969/12/31/18:00:12.232000,(-19 -19 -9 -4 -15 -14 -15 -24)
1969/12/31/18:00:12.232000,(6 -2 -20 -35 -5 3 2 15)
1969/12/31/18:00:12.241000,(-3 -18 -19 -32 -14 -3 3 6)
1969/12/31/18:00:12.241000,(-18 -5 6 9 3 -1 -1 -7)
1969/12/31/18:00:12.256000,(48 21 7 14 4 2 7 38)
1969/12/31/18:00:12.256000,(-58 -33 -27 -27 -21 -41 -58 -75)
1969/12/31/18:00:12.257000,(-19 -9 -5 -38 -15 -10 -7 -7)
1969/12/31/18:00:12.257000,(28 20 3 -15 5 21 24 31)
1969/12/31/18:00:12.278000,(-6 -14 17 72 9 10 8 6)
1969/12/31/18:00:12.278000,(-14 28 28 48 24 7 -4 -17)
1969/12/31/18:00:12.280000,(0 -15 -2 13 -1 -11 -11 -13)
1969/12/31/18:00:12.280000,(-9 -7 -9 -33 -7 -9 -4 -8)
1969/12/31/18:00:12.293000,(6 4 -12 -21 0 4 8 6)
1969/12/31/18:00:12.293000,(15 -2 4 -2 -9 9 13 19)
1969/12/31/18:00:12.301000,(36 28 -2 1 1 5 6 11)
1969/12/31/18:00:12.301000,(-4 -4 2 -2 -2 5 5 0)
1969/12/31/18:00:12.316000,(-15 -13 -5 3 8 1 -4 -13)
1969/12/31/18:00:12.316000,(-1 -8 -8 -21 -14 -18 -18 -9)
1969/12/31/18:00:12.317000,(34 31 8 -11 5 14 27 35)
1969/12/31/18:00:12.317000,(-47 -44 8 34 8 4 5 1)
1969/12/31/18:00:12.338000,(67 58 7 13 8 -5 3 26)
1969/12/31/18:00:12.338000,(-50 -34 -16 -16 -9 -17 -24 -47)
1969/12/31/18:00:12.340000,(14 -2 3 2 4 2 13 35)
1969/12/31/18:00:12.340000,(-19 -14 -8 -19 -17 -8 -9 -16)
1969/12/31/18:00:12.352000,(-11 -8 -4 -17 13 5 4 0)
1969/12/31/18:00:12.352000,(17 3 -23 -61 -28 -1 5 13)
1969/12/31/18:00:12.361000,(-1 -2 7 37 1 -2 -7 -10)
1969/12/31/18:00:12.361000,(44 38 31 65 31 14 12 23)
1969/12/31/18:00:12.376000,(-11 -4 27 52 21 15 13 4)
1969/12/31/18:00:12.376000,(8 9 3 -1 -5 -20 -25 -17)
1969/12/31/18:00:12.377000,(-17 -7 -8 -27 -8 1 3 -9)
1969/12/31/18:00:12.377000,(22 7 -17 -33 -5 3 7 27)
1969/12/31/18:00:12.398000,(-15 -2 -8 -15 -10 2 -2 -14)
1969/12/31/18:00:12.398000,(7 -2 2 5 4 16 27 31)
1969/12/31/18:00:12.400000,(-3 -2 -3 0 -9 -8 -12 -15)
1969/12/31/18:00:12.400000,(13 7 -3 -5 -23 -31 -20 6)
1969/12/31/18:00:12.412000,(-10 -8 -5 -11 13 4 -2 -11)
1969/12/31/18:00:12.412000,(33 27 22 18 27 53 56 46)
1969/12/31/18:00:12.421000,(-30 -20 -10 6 12 -35 -57 -41)
1969/12/31/18:00:12.421000,(10 12 -5 -28 -46 -18 4 2)
1969/12/31/18:00:12.436000,(5 5 3 10 1 -8 0 8)
1969/12/31/18:00:12.436000,(-18 -16 -6 -6 5 1 -2 -13)
1969/12/31/18:00:12.437000,(16 21 15 27 29 39 39 23)
1969/12/31/18:00:12.437000,(-6 0 -2 6 35 17 6 -1)
1969/12/31/18:00:12.458000,(-12 -17 -9 -13 -31 -15 -24 -20)
1969/12/31/18:00:12.458000,(11 9 9 21 17 14 11 7)
1969/12/31/18:00:12.460000,(54 39 1 -2 -11 -10 -3 18)
1969/12/31/18:00:12.460000,(-25 -16 -11 -10 -19 -26 -32 -34)
1969/12/31/18:00:12.481000,(-7 0 1 -13 -3 0 6 2)
1969/12/31/18:00:12.481000,(-12 -8 -10 -8 -13 -14 -10 -9)
1969/12/31/18:00:12.482000,(-20 -22 -2 3 -11 -14 -13 -7)
1969/12/31/18:00:12.483000,(13 -3 3 6 19 27 34 22)
1969/12/31/18:00:12.495000,(23 16 8 4 8 13 13 16)
1969/12/31/18:00:12.495000,(-14 -4 -6 -4 -18 -32 -36 -26)
1969/12/31/18:00:12.502000,(-26 -10 -1 -8 -1 4 6 -2)
1969/12/31/18:00:12.502000,(-28 -18 0 -5 -3 -3 -7 -17)
1969/12/31/18:00:12.518000,(61 47 -8 -15 15 35 45 47)
1969/12/31/18:00:12.518000,(-20 -24 0 24 -4 -30 -43 -29)
1969/12/31/18:00:12.520000,(-13 -7 2 -1 -2 2 0 -7)
1969/12/31/18:00:12.520000,(18 20 6 10 11 14 6 7)
1969/12/31/18:00:12.541000,(-11 -8 0 0 -17 -15 -14 -12)
1969/12/31/18:00:12.541000,(11 10 5 -2 2 -5 -2 2)
1969/12/31/18:00:12.542000,(-6 -9 -2 21 16 9 9 -1)
1969/12/31/18:00:12.542000,(-1 -2 -3 4 6 2 -3 -4)
1969/12/31/18:00:12.555000,(-30 -16 -13 -41 -15 -14 -15 -18)
1969/12/31/18:00:12.555000,(19 12 -3 -1 5 12 24 25)
1969/12/31/18:00:12.562000,(-2 -4 1 -7 -16 -9 -10 -8)
1969/12/31/18:00:12.562000,(2 2 -3 -2 6 0 2 0)
1969/12/31/18:00:12.586000,(-20 -14 2 9 -12 -7 -11 -14)
1969/12/31/18:00:12.586000,(-4 -7 -11 -43 -15 0 1 0)
1969/12/31/18:00:12.588000,(15 6 -3 21 7 8 14 15)
1969/12/31/18:00:12.588000,(4 11 19 36 15 5 2 1)
1969/12/31/18:00:12.592000,(-17 -12 -4 -18 0 -8 -11 -16)
1969/12/31/18:00:12.592000,(8 4 -12 -35 -52 -22 -4 1)
1969/12/31/18:00:12.601000,(0 0 1 4 9 -2 -1 0)
1969/12/31/18:00:12.601000,(-2 -1 -10 -28 7 8 -5 -5)
1969/12/31/18:00:12.615000,(-10 -7 19 84 46 19 3 -4)
1969/12/31/18:00:12.615000,(-1 -1 12 32 23 17 2 -3)
1969/12/31/18:00:12.622000,(16 8 -9 -31 -19 4 16 16)
1969/12/31/18:00:12.622000,(-6 -9 -14 -25 -61 -29 -10 -7)
1969/12/31/18:00:12.638000,(-1 -5 -29 -105 -16 -8 -1 1)
1969/12/31/18:00:12.638000,(4 4 10 76 44 17 7 5)
1969/12/31/18:00:12.640000,(-6 -9 -35 -87 -7 7 0 -4)
1969/12/31/18:00:12.640000,(-2 0 17 87 12 1 -4 -3)
1969/12/31/18:00:12.661000,(-1 6 44 102 -5 -3 0 1)
1969/12/31/18:00:12.661000,(-1 0 6 5 8 -7 -6 -5)
1969/12/31/18:00:12.662000,(-6 -5 13 11 -17 -10 -8 -6)
1969/12/31/18:00:12.662000,(0 1 -4 -45 9 2 0 -2)
1969/12/31/18:00:12.683000,(-1 -1 -4 -34 -10 9 8 4)
1969/12/31/18:00:12.683000,(9 3 -20 8 11 -3 2 4)
1969/12/31/18:00:12.684000,(-12 -16 -22 -14 -5 -18 -13 -9)
1969/12/31/18:00:12.684000,(-5 0 10 14 -5 -4 0 -3)
1969/12/31/18:00:12.698000,(1 0 -5 48 9 -4 -2 -2)
1969/12/31/18:00:12.698000,(-3 -5 15 -40 -16 3 3 2)
1969/12/31/18:00:12.699000,(-3 4 -40 -64 -7 -10 -2 -3)
1969/12/31/18:00:12.699000,(4 -4 10 84 -7 -1 7 4)
1969/12/31/18:00:12.720000,(-6 -5 16 28 11 -7 -3 -4)
1969/12/31/18:00:12.720000,(3 13 30 45 31 27 10 3)
1969/12/31/18:00:12.721000,(4 1 -15 -54 -7 -1 -7 -2)
1969/12/31/18:00:12.721000,(2 -4 -15 -9 -9 -5 -3 0)
1969/12/31/18:00:12.743000,(-4 1 5 -55 -28 -4 -4 -4)
1969/12/31/18:00:12.743000,(2 3 6 22 -2 2 2 2)
1969/12/31/18:00:12.744000,(6 10 25 64 22 8 3 4)
1969/12/31/18:00:12.744000,(-8 -9 -20 -48 4 -1 -5 -7)
1969/12/31/18:00:12.758000,(4 -7 -24 -91 -26 -1 5 7)
1969/12/31/18:00:12.758000,(2 -4 -17 17 -15 -5 -1 1)
1969/12/31/18:00:12.758000,(-6 -10 17 127 33 6 -1 -4)
1969/12/31/18:00:12.758000,(-3 9 44 27 19 0 1 0)
1969/12/31/18:00:12.780000,(-12 -7 -33 -19 3 -10 -9 -12)
1969/12/31/18:00:12.780000,(-4 -10 -37 -108 -31 -13 -6 -3)
1969/12/31/18:00:12.781000,(4 8 15 -19 -21 4 8 4)
1969/12/31/18:00:12.781000,(9 9 8 14 13 6 2 4)
1969/12/31/18:00:12.794000,(-1 5 13 -2 3 1 -1 1)
1969/12/31/18:00:12.794000,(8 5 10 52 26 8 5 5)
1969/12/31/18:00:12.803000,(-5 -1 21 33 4 1 -3 -6)
1969/12/31/18:00:12.803000,(-2 -3 -19 -22 -7 -3 -5 -5)
1969/12/31/18:00:12.818000,(1 -3 -30 -83 -14 -2 0 0)
1969/12/31/18:00:12.818000,(1 -5 -7 63 -8 -10 -6 -1)
1969/12/31/18:00:12.819000,(-1 -1 26 31 10 3 3 -1)
1969/12/31/18:00:12.819000,(4 16 29 -19 2 13 8 2)
1969/12/31/18:00:12.840000,(8 -2 -28 12 -10 -1 -1 5)
1969/12/31/18:00:12.840000,(-7 -16 -16 4 21 -7 -8 -5)
1969/12/31/18:00:12.841000,(-15 -4 13 11 6 5 -3 -9)
1969/12/31/18:00:12.841000,(4 6 1 -8 14 10 7 4)
1969/12/31/18:00:12.855000,(0 -4 -12 -30 -20 -6 -2 0)
1969/12/31/18:00:12.855000,(3 1 -14 -117 -79 -9 1 3)
1969/12/31/18:00:12.863000,(5 9 30 42 33 7 2 2)
1969/12/31/18:00:12.863000,(3 2 4 72 62 16 2 2)
1969/12/31/18:00:12.878000,(2 0 9 17 13 1 -1 1)
1969/12/31/18:00:12.878000,(-2 1 8 12 -1 1 -2 -2)
1969/12/31/18:00:12.878000,(2 0 -27 -107 -42 -7 -3 1)
1969/12/31/18:00:12.879000,(-2 -10 -27 -52 -66 -19 -5 -2)
1969/12/31/18:00:12.900000,(-2 2 15 33 31 0 0 -1)
1969/12/31/18:00:12.900000,(5 11 36 95 61 9 8 4)
1969/12/31/18:00:12.901000,(-13 -10 -13 -21 2 -7 -5 -8)
1969/12/31/18:00:12.901000,(-2 -8 -25 -30 -26 -8 -1 -2)
1969/12/31/18:00:12.914000,(-4 -2 7 -2 -1 -9 -6 -5)
1969/12/31/18:00:12.914000,(-8 -2 -15 -72 -17 -6 -4 -6)
1969/12/31/18:00:12.923000,(12 11 12 29 -2 -2 2 9)
1969/12/31/18:00:12.923000,(-7 -6 0 -2 10 6 -1 -4)
1969/12/31/18:00:12.937000,(3 -2 -13 -8 -13 4 2 1)
1969/12/31/18:00:12.937000,(4 -2 -3 -16 2 8 3 5)
1969/12/31/18:00:12.939000,(-4 3 -1 -8 -15 -2 -4 -7)
1969/12/31/18:00:12.939000,(8 4 -3 -20 -4 2 -1 7)
1969/12/31/18:00:12.960000,(1 2 2 22 4 1 -7 1)
1969/12/31/18:00:12.960000,(2 2 1 -66 -1 5 -1 2)
1969/12/31/18:00:12.961000,(0 -3 -21 1 -38 -1 3 1)
1969/12/31/18:00:12.961000,(6 4 16 44 45 9 5 5)
1969/12/31/18:00:12.974000,(-16 -7 21 57 28 -8 -6 -12)
1969/12/31/18:00:12.975000,(-6 -3 -4 -8 -6 -15 -2 -4)
1969/12/31/18:00:12.983000,(-1 -7 -16 -27 -3 -15 -2 -1)
1969/12/31/18:00:12.983000,(-7 2 -3 -38 -27 -6 -4 -6)
1969/12/31/18:00:12.997000,(5 -1 -1 8 13 9 5 3)
1969/12/31/18:00:12.998000,(-5 0 16 74 35 1 -2 -6)
1969/12/31/18:00:12.998000,(2 2 4 14 2 -1 6 3)
1969/12/31/18:00:12.998000,(-4 -8 -16 -8 -10 -15 -1 -4)
1969/12/31/18:00:13.020000,(-3 -3 1 4 -1 -9 -3 -4)
1969/12/31/18:00:13.020000,(0 -4 -14 -27 -23 -4 -2 -1)
1969/12/31/18:00:13.021000,(2 0 -12 -66 -13 4 -1 0)
1969/12/31/18:00:13.021000,(0 2 19 99 27 8 -2 -1)
1969/12/31/18:00:13.034000,(7 12 15 16 3 12 8 7)
1969/12/31/18:00:13.034000,(-2 -2 0 15 7 -2 -5 -3)
1969/12/31/18:00:13.042000,(2 7 18 -6 25 14 -1 2)
1969/12/31/18:00:13.042000,(-7 -9 -19 -44 -22 -7 -8 -7)
1969/12/31/18:00:13.058000,(1 2 7 16 -6 3 2 2)
1969/12/31/18:00:13.058000,(2 -3 -9 -9 0 4 4 4)
1969/12/31/18:00:13.058000,(-1 -5 1 1 -6 -3 -3 -1)
1969/12/31/18:00:13.058000,(-2 -4 -9 -32 -10 -4 -3 -2)
1969/12/31/18:00:13.081000,(-1 -2 -4 16 -5 -2 1 -2)
1969/12/31/18:00:13.081000,(-1 1 0 -39 -12 0 -3 -3)
1969/12/31/18:00:13.082000,(-1 -3 1 18 2 4 1 1)
1969/12/31/18:00:13.082000,(2 5 1 -19 5 4 2 2)
1969/12/31/18:00:13.094000,(-6 -5 -5 26 -1 -4 -4 -4)
1969/12/31/18:00:13.094000,(0 4 -3 -23 -28 -3 0 2)
1969/12/31/18:00:13.103000,(5 6 14 15 42 8 5 4)
1969/12/31/18:00:13.103000,(-3 -2 4 24 17 2 -2 -1)
1969/12/31/18:00:13.118000,(-2 -2 -1 -15 5 0 0 -2)
1969/12/31/18:00:13.118000,(0 0 -8 -1 -7 -5 -2 -2)
1969/12/31/18:00:13.118000,(0 -4 -8 7 -5 -2 2 1)
1969/12/31/18:00:13.118000,(-7 -5 -4 -21 -7 -10 -8 -5)
1969/12/31/18:00:13.140000,(-4 -4 2 -9 0 -3 -2 -3)
1969/12/31/18:00:13.140000,(3 3 9 17 7 0 1 1)
1969/12/31/18:00:13.141000,(1 -2 -13 4 -6 -2 -3 -2)
1969/12/31/18:00:13.141000,(2 1 1 -5 1 3 5 3)
1969/12/31/18:00:13.155000,(-1 0 -2 -5 -8 -2 -5 -3)
1969/12/31/18:00:13.155000,(-4 -7 -11 -6 -29 -5 1 -1)
1969/12/31/18:00:13.156000,(2 3 12 15 42 13 4 3)
1969/12/31/18:00:13.156000,(-6 -4 3 4 -3 -2 -3 -5)
1969/12/31/18:00:13.178000,(-4 -1 1 -8 1 -1 0 -1)
1969/12/31/18:00:13.178000,(2 1 -4 -2 0 -2 1 2)
1969/12/31/18:00:13.178000,(0 -6 -24 -23 -32 -11 -3 0)
1969/12/31/18:00:13.178000,(2 4 8 7 0 2 3 0)
1969/12/31/18:00:13.200000,(7 5 2 -7 5 5 3 6)
1969/12/31/18:00:13.200000,(-1 2 9 36 14 1 -4 -3)
1969/12/31/18:00:13.208000,(-5 -1 1 11 -10 -5 -4 -3)
1969/12/31/18:00:13.208000,(-1 -5 -12 -28 -7 -2 -4 -3)
1969/12/31/18:00:13.223000,(4 2 -2 -6 -6 1 5 4)
1969/12/31/18:00:13.223000,(-2 1 5 0 9 1 -1 -1)
1969/12/31/18:00:13.224000,(-2 -1 -1 -10 -4 -2 -2 -3)
1969/12/31/18:00:13.224000,(-2 -2 -4 -5 -4 -6 -3 -1)
1969/12/31/18:00:13.238000,(-1 -1 0 3 1 -2 0 -1)
1969/12/31/18:00:13.238000,(4 7 3 -1 -1 -2 -1 -1)
1969/12/31/18:00:13.238000,(-1 -3 2 8 1 0 1 -1)
1969/12/31/18:00:13.238000,(-2 -2 0 -1 -1 -1 -2 -1)
1969/12/31/18:00:13.260000,(-4 -1 -2 7 1 -1 -8 -6)
1969/12/31/18:00:13.260000,(-2 -1 -18 -47 -26 0 4 3)
1969/12/31/18:00:13.261000,(4 3 4 -14 4 1 0 2)
1969/12/31/18:00:13.261000,(2 6 31 99 29 7 2 3)
1969/12/31/18:00:13.275000,(-4 -4 5 16 20 6 -2 -6)
1969/12/31/18:00:13.275000,(0 -3 -2 1 -5 2 1 2)
1969/12/31/18:00:13.283000,(-1 -4 -14 -33 -21 -7 -5 -2)
1969/12/31/18:00:13.283000,(4 -4 -22 -52 -19 -1 2 6)
1969/12/31/18:00:13.298000,(2 4 4 5 0 4 4 5)
1969/12/31/18:00:13.298000,(-7 -4 2 -1 8 -4 -16 -11)
1969/12/31/18:00:13.305000,(-1 -1 -3 3 -5 2 7 2)
1969/12/31/18:00:13.305000,(3 1 0 -7 -1 3 14 11)
1969/12/31/18:00:13.320000,(11 9 4 6 -1 1 4 9)
1969/12/31/18:00:13.320000,(-4 -5 0 0 7 2 2 -4)
1969/12/31/18:00:13.321000,(-2 0 7 14 5 -2 -6 -4)
1969/12/31/18:00:13.321000,(-4 -4 -3 -5 -7 -2 -7 -8)
1969/12/31/18:00:13.335000,(-3 -6 -4 -13 -5 -3 3 1)
1969/12/31/18:00:13.335000,(-1 0 7 12 10 0 0 1)
1969/12/31/18:00:13.343000,(2 0 5 15 6 -4 -5 -2)
1969/12/31/18:00:13.343000,(-2 -2 -7 -19 -3 -4 1 -1)
1969/12/31/18:00:13.358000,(-1 -3 -2 -7 -5 -1 -1 1)
1969/12/31/18:00:13.358000,(0 1 4 11 9 3 3 1)
1969/12/31/18:00:13.359000,(-5 -1 -2 6 -5 -3 0 -3)
1969/12/31/18:00:13.359000,(2 4 -2 -15 -5 -2 0 0)
1969/12/31/18:00:13.380000,(-2 0 -2 -1 -3 -7 -10 -6)
1969/12/31/18:00:13.380000,(-1 -1 3 8 4 0 6 -1)
1969/12/31/18:00:13.381000,(0 1 0 1 -2 5 9 8)
1969/12/31/18:00:13.381000,(3 1 -4 -3 -3 -1 0 3)
1969/12/31/18:00:13.394000,(-4 -3 -3 4 -1 -2 -2 -4)
1969/12/31/18:00:13.394000,(0 0 1 2 1 0 -1 -1)
1969/12/31/18:00:13.403000,(-2 -2 0 0 -1 -3 -8 -6)
1969/12/31/18:00:13.403000,(-1 -3 -1 -2 -1 -1 -2 -1)
1969/12/31/18:00:13.418000,(-3 -1 -1 -2 -3 -2 0 -1)
1969/12/31/18:00:13.418000,(3 1 -1 -2 2 1 0 -1)
1969/12/31/18:00:13.425000,(1 0 -1 -1 -1 0 0 -1)
1969/12/31/18:00:13.425000,(-1 -2 -1 -4 -1 -1 -4 -1)
1969/12/31/18:00:13.440000,(0 -1 -1 -1 -1 2 1 -2)
1969/12/31/18:00:13.440000,(3 3 1 1 0 6 2 5)
1969/12/31/18:00:13.441000,(-2 0 0 3 0 3 -3 -1)
1969/12/31/18:00:13.441000,(-1 -1 -2 -6 0 2 -2 0)
1969/12/31/18:00:13.472000,(-1 0 -2 -3 -2 1 2 0)
1969/12/31/18:00:13.472000,(1 1 2 2 2 0 0 1)
1969/12/31/18:00:13.473000,(-1 -1 0 1 -1 -2 0 0)
1969/12/31/18:00:13.473000,(0 -2 -3 -4 -2 -1 2 1)
1969/12/31/18:00:13.478000,(0 -1 0 -1 2 0 -2 0)
1969/12/31/18:00:13.478000,(-1 -1 3 1 -1 -1 -4 -1)
1969/12/31/18:00:13.479000,(0 -1 0 -1 -1 -2 1 -1)
1969/12/31/18:00:13.479000,(-1 -1 0 1 1 -4 -2 -3)
1969/12/31/18:00:13.508000,(-1 -1 -2 -2 1 -3 2 -1)
1969/12/31/18:00:13.508000,(-4 -3 -3 1 1 -3 -7 -3)
1969/12/31/18:00:13.509000,(-2 0 -2 2 -2 -1 3 0)
1969/12/31/18:00:13.509000,(1 1 0 0 0 0 5 3)
1969/12/31/18:00:13.523000,(0 1 -1 -1 -5 -2 0 0)
1969/12/31/18:00:13.523000,(-3 1 -1 -2 2 -6 -6 -3)
1969/12/31/18:00:13.524000,(0 -2 0 1 1 -3 -4 -1)
1969/12/31/18:00:13.524000,(-3 -1 -1 0 -2 -2 -4 -4)
1969/12/31/18:00:13.545000,(0 -1 -1 0 -2 3 4 2)
1969/12/31/18:00:13.545000,(-1 1 1 -1 -3 1 -1 0)
1969/12/31/18:00:13.553000,(-1 -2 -2 1 -1 -1 0 -1)
1969/12/31/18:00:13.553000,(-1 2 -1 1 1 -2 1 -1)
1969/12/31/18:00:13.560000,(0 -1 0 1 -2 -1 1 0)
1969/12/31/18:00:13.560000,(3 -1 -2 -1 0 -1 2 1)
1969/12/31/18:00:13.561000,(-2 1 1 -2 2 0 2 1)
1969/12/31/18:00:13.561000,(-1 -2 -1 -1 -1 1 -3 -3)
1969/12/31/18:00:13.583000,(-2 -1 -2 -2 -1 0 -1 -1)
1969/12/31/18:00:13.583000,(0 0 -1 2 0 1 4 1)
1969/12/31/18:00:13.584000,(-1 -1 -1 -2 -5 0 -2 -2)
1969/12/31/18:00:13.584000,(0 -1 0 -3 -2 -2 -3 -1)
1969/12/31/18:00:13.598000,(1 0 0 0 1 -1 -2 -1)
1969/12/31/18:00:13.598000,(-1 0 -1 -2 -3 -3 -8 -3)
1969/12/31/18:00:13.598000,(-1 1 0 2 -1 0 3 -2)
1969/12/31/18:00:13.598000,(0 -1 -1 -3 -1 7 17 8)
1969/12/31/18:00:13.622000,(3 -1 1 1 -1 3 3 4)
1969/12/31/18:00:13.622000,(-1 -3 -2 1 -2 2 1 1)
1969/12/31/18:00:13.622000,(0 -1 -2 -3 -1 1 -7 -3)
1969/12/31/18:00:13.622000,(-2 0 -1 -3 -2 -4 -7 -3)
1969/12/31/18:00:13.651000,(-1 -3 -2 -3 1 -1 2 0)
1969/12/31/18:00:13.651000,(2 0 -1 -3 3 2 3 2)
1969/12/31/18:00:13.652000,(-1 -1 0 -4 -3 -1 -2 1)
1969/12/31/18:00:13.652000,(1 0 -1 1 0 0 -3 0)
1969/12/31/18:00:13.658000,(2 2 1 0 -3 0 3 3)
1969/12/31/18:00:13.658000,(0 0 1 1 -2 -2 -2 -2)
1969/12/31/18:00:13.659000,(-1 0 0 -1 0 -3 -7 -6)
1969/12/31/18:00:13.659000,(-1 1 0 -2 1 -3 -2 0)
1969/12/31/18:00:13.681000,(2 -1 0 1 2 1 3 3)
1969/12/31/18:00:13.681000,(2 0 1 2 3 6 10 6)
1969/12/31/18:00:13.681000,(0 1 0 4 1 2 2 1)
1969/12/31/18:00:13.681000,(-2 -2 -1 0 -1 -3 -10 -6)
1969/12/31/18:00:13.704000,(-6 -2 -2 -3 -5 -4 -4 -5)
1969/12/31/18:00:13.704000,(0 -1 1 -2 -2 -1 1 3)
1969/12/31/18:00:13.704000,(-1 -2 0 -3 -3 -1 0 2)
1969/12/31/18:00:13.704000,(3 -1 0 0 -3 -1 -2 -1)
1969/12/31/18:00:13.717000,(-3 -4 -1 0 0 -1 -5 -5)
1969/12/31/18:00:13.717000,(-1 0 -1 4 1 2 1 0)
1969/12/31/18:00:13.718000,(-1 0 -1 1 2 -1 0 0)
1969/12/31/18:00:13.718000,(0 0 -2 -1 -1 -5 -9 -6)
1969/12/31/18:00:13.741000,(-2 0 -2 -3 0 -2 3 0)
1969/12/31/18:00:13.741000,(1 -1 1 -2 0 1 3 4)
1969/12/31/18:00:13.742000,(1 0 0 0 -1 1 3 3)
1969/12/31/18:00:13.742000,(-2 0 0 0 1 -1 -3 -4)
1969/12/31/18:00:13.764000,(-2 -2 -1 0 -1 -4 -5 -5)
1969/12/31/18:00:13.764000,(1 1 0 1 1 2 0 0)
1969/12/31/18:00:13.765000,(2 -1 -1 1 -1 3 5 2)
1969/12/31/18:00:13.765000,(0 -1 0 0 -1 1 1 -1)
1969/12/31/18:00:13.778000,(-1 0 0 2 -1 -3 -7 -3)
1969/12/31/18:00:13.778000,(-1 -2 -2 -1 -1 -2 -4 -5)
1969/12/31/18:00:13.778000,(-1 0 0 -4 0 0 -2 0)
1969/12/31/18:00:13.778000,(-1 0 0 -1 1 3 2 2)
1969/12/31/18:00:13.808000,(0 0 0 -3 1 0 -2 0)
1969/12/31/18:00:13.808000,(-1 -1 -1 -3 0 -2 -1 -1)
1969/12/31/18:00:13.809000,(-2 -1 0 4 0 -4 -12 -9)
1969/12/31/18:00:13.809000,(-2 -2 -1 2 0 2 11 3)
1969/12/31/18:00:13.823000,(3 1 0 0 2 5 8 9)
1969/12/31/18:00:13.823000,(0 1 0 0 -3 -5 -1 -4)
1969/12/31/18:00:13.824000,(0 -2 -2 -1 0 -3 -2 -1)
1969/12/31/18:00:13.824000,(-3 0 1 0 0 -2 -5 -3)
1969/12/31/18:00:13.838000,(-4 -2 0 -2 -1 -1 -2 -4)
1969/12/31/18:00:13.838000,(-4 0 0 -3 0 0 1 -2)
1969/12/31/18:00:13.838000,(-2 0 -1 -2 -2 2 0 1)
1969/12/31/18:00:13.838000,(2 0 -1 -3 -4 0 -2 1)
1969/12/31/18:00:13.861000,(0 -2 -1 0 -1 1 -1 0)
1969/12/31/18:00:13.861000,(0 -2 -1 -3 -3 -2 -3 -3)
1969/12/31/18:00:13.862000,(-2 1 1 -1 0 0 5 -3)
1969/12/31/18:00:13.862000,(-1 0 -1 1 0 1 6 2)
1969/12/31/18:00:13.862000,(-5 1 -1 -6 -3 -3 -4 -5)
1969/12/31/18:00:13.862000,(-3 -5 -7 -4 0 -4 -5 -2)
1969/12/31/18:00:13.864000,(-3 0 10 -5 -2 2 -1 -3)
1969/12/31/18:00:13.864000,(0 1 -12 -1 -3 8 2 0)
1969/12/31/18:00:13.877000,(15 9 2 8 6 7 7 11)
1969/12/31/18:00:13.877000,(-5 -4 -2 -1 -5 -6 -5 -5)
1969/12/31/18:00:13.879000,(-4 0 0 4 0 -2 -2 -3)
1969/12/31/18:00:13.879000,(4 6 18 -15 -9 -7 2 3)
1969/12/31/18:00:13.900000,(7 4 -4 13 -1 6 4 3)
1969/12/31/18:00:13.900000,(10 2 -6 16 13 5 4 7)
1969/12/31/18:00:13.901000,(-10 -16 -16 -11 -2 -3 -8 -9)
1969/12/31/18:00:13.901000,(-23 -17 -9 -18 -11 -8 -10 -16)
1969/12/31/18:00:13.922000,(3 7 3 -11 11 0 3 5)
1969/12/31/18:00:13.922000,(-2 1 -7 -13 -17 -12 -9 -5)
1969/12/31/18:00:13.924000,(5 3 -17 1 3 -1 -1 2)
1969/12/31/18:00:13.924000,(1 9 27 -33 -15 2 4 2)
1969/12/31/18:00:13.936000,(1 -2 -8 45 9 7 6 2)
1969/12/31/18:00:13.937000,(8 4 13 34 30 11 11 8)
1969/12/31/18:00:13.951000,(3 19 46 75 26 2 1 -1)
1969/12/31/18:00:13.951000,(5 -10 -37 -7 5 -2 -4 -2)
1969/12/31/18:00:13.960000,(-11 -16 5 -20 -1 -8 -7 -8)
1969/12/31/18:00:13.960000,(-6 -7 -13 -48 -48 -17 -6 -7)
1969/12/31/18:00:13.961000,(-7 -17 -56 -122 -43 -11 -2 -1)
1969/12/31/18:00:13.961000,(19 25 39 -11 10 7 11 15)
1969/12/31/18:00:13.982000,(-1 6 -1 74 2 14 3 -2)
1969/12/31/18:00:13.982000,(7 -3 9 107 60 18 5 5)
1969/12/31/18:00:13.984000,(-24 -13 19 -4 1 -8 -13 -17)
1969/12/31/18:00:13.984000,(5 7 -14 -34 9 -4 -2 1)
1969/12/31/18:00:13.997000,(5 14 31 23 -15 -1 2 3)
1969/12/31/18:00:13.997000,(1 -6 9 3 2 1 4 3)
1969/12/31/18:00:14.003000,(2 0 -22 -5 -15 2 0 2)
1969/12/31/18:00:14.003000,(-7 -19 -55 -95 -8 2 -3 -2)
1969/12/31/18:00:14.020000,(-11 -7 23 -3 -41 -11 -3 -4)
1969/12/31/18:00:14.020000,(2 10 5 59 32 4 -2 -1)
1969/12/31/18:00:14.021000,(0 0 11 -26 -6 -13 -4 -2)
1969/12/31/18:00:14.021000,(2 5 3 39 10 3 4 1)
1969/12/31/18:00:14.042000,(0 -11 -32 -75 -20 -7 -4 -4)
1969/12/31/18:00:14.042000,(-4 -3 9 -52 -13 -9 0 -3)
1969/12/31/18:00:14.044000,(8 10 22 72 8 4 5 3)
1969/12/31/18:00:14.044000,(-3 2 37 124 81 14 5 -5)
1969/12/31/18:00:14.056000,(2 -6 -45 -82 -9 -1 -1 -1)
1969/12/31/18:00:14.056000,(-11 -7 6 -3 -24 -8 -11 -8)
1969/12/31/18:00:14.065000,(6 12 6 -5 -8 8 4 7)
1969/12/31/18:00:14.065000,(-1 -6 -17 -53 -42 -5 -4 -2)
1969/12/31/18:00:14.087000,(2 2 -2 5 0 1 1 2)
1969/12/31/18:00:14.087000,(-6 -11 -55 -128 -69 -14 -5 -9)
1969/12/31/18:00:14.089000,(11 12 33 44 31 10 9 10)
1969/12/31/18:00:14.089000,(-6 6 50 127 64 14 1 -1)
1969/12/31/18:00:14.102000,(-7 -12 -15 -66 3 -4 -1 -3)
1969/12/31/18:00:14.102000,(0 9 9 -22 -10 -8 2 0)
1969/12/31/18:00:14.104000,(-6 -7 -21 -19 -1 -3 -1 -7)
1969/12/31/18:00:14.104000,(3 -1 -6 -25 -37 -8 -1 3)
1969/12/31/18:00:14.116000,(-1 6 23 72 33 8 0 -2)
1969/12/31/18:00:14.116000,(3 5 -7 -9 -14 1 3 1)
1969/12/31/18:00:14.125000,(5 -3 -17 -3 8 5 1 3)
1969/12/31/18:00:14.125000,(-4 -5 0 -12 -9 -7 -7 -5)
1969/12/31/18:00:14.140000,(-7 -6 -5 -28 -10 -14 -8 -5)
1969/12/31/18:00:14.140000,(-2 1 -4 0 -4 -1 0 0)
1969/12/31/18:00:14.141000,(4 0 2 -9 13 3 3 3)
1969/12/31/18:00:14.141000,(0 2 -3 -14 -17 -3 0 -1)
1969/12/31/18:00:14.162000,(-5 -4 7 29 8 -1 -1 -1)
1969/12/31/18:00:14.162000,(0 2 6 16 17 5 4 3)
1969/12/31/18:00:14.164000,(-2 -7 -22 -30 -8 -2 2 -1)
1969/12/31/18:00:14.164000,(-1 -2 -6 1 -19 -5 0 1)
1969/12/31/18:00:14.176000,(-1 3 21 13 13 3 0 -2)
1969/12/31/18:00:14.176000,(4 7 9 25 27 12 4 5)
1969/12/31/18:00:14.185000,(-4 -6 -3 0 -3 2 -2 -3)
1969/12/31/18:00:14.185000,(-2 -4 -11 -18 -16 -5 -3 0)
1969/12/31/18:00:14.200000,(1 0 -6 -16 4 0 0 0)
1969/12/31/18:00:14.200000,(-4 -1 0 4 6 -1 -3 -3)
1969/12/31/18:00:14.201000,(-1 0 3 -8 -9 -5 0 0)
1969/12/31/18:00:14.201000,(0 0 -3 -3 0 3 2 2)
1969/12/31/18:00:14.222000,(1 1 -1 -2 2 -2 -1 0)
1969/12/31/18:00:14.222000,(-1 -2 0 -8 -5 -2 -1 -3)
1969/12/31/18:00:14.223000,(3 3 7 28 7 3 4 4)
1969/12/31/18:00:14.223000,(0 0 -3 -4 -2 -1 1 -1)
1969/12/31/18:00:14.236000,(0 -1 -4 1 4 0 -1 0)
1969/12/31/18:00:14.236000,(-3 -2 0 3 0 -2 -4 -2)
1969/12/31/18:00:14.245000,(0 -1 -1 -10 -3 1 2 1)
1969/12/31/18:00:14.245000,(2 -1 -1 8 -1 0 1 1)
1969/12/31/18:00:14.259000,(-1 -6 -6 -5 -3 -3 2 2)
1969/12/31/18:00:14.259000,(-7 -2 1 -1 3 -1 -2 -7)
1969/12/31/18:00:14.261000,(-4 -3 2 -1 -1 -7 -5 -4)
1969/12/31/18:00:14.261000,(-1 -1 -4 -1 -3 -6 -5 -2)
1969/12/31/18:00:14.282000,(-3 -3 -2 -2 0 -7 -1 -1)
1969/12/31/18:00:14.282000,(5 1 -4 -2 3 -4 4 2)
1969/12/31/18:00:14.284000,(-7 -5 -3 4 0 -8 -3 -7)
1969/12/31/18:00:14.284000,(-3 -1 -4 2 -1 -5 1 -1)
1969/12/31/18:00:14.296000,(-11 -5 -2 4 -3 -6 -3 -4)
1969/12/31/18:00:14.296000,(11 7 -3 -6 -4 0 3 5)
1969/12/31/18:00:14.305000,(3 5 0 -5 -8 8 3 6)
1969/12/31/18:00:14.305000,(5 5 2 5 3 13 -1 3)
1969/12/31/18:00:14.319000,(6 6 4 -4 -1 21 0 6)
1969/12/31/18:00:14.319000,(-2 -3 1 -6 -6 13 -2 1)
1969/12/31/18:00:14.321000,(-1 -3 2 -8 -1 3 -1 -2)
1969/12/31/18:00:14.321000,(-1 -1 1 -5 0 -3 1 0)
1969/12/31/18:00:14.342000,(-1 -5 -4 -2 1 -3 0 0)
1969/12/31/18:00:14.342000,(-6 -2 1 3 1 -4 -1 -3)
1969/12/31/18:00:14.344000,(2 0 1 1 3 -1 1 1)
1969/12/31/18:00:14.344000,(-6 0 1 3 1 -1 -1 -4)
1969/12/31/18:00:14.356000,(5 3 -2 0 -1 -3 0 0)
1969/12/31/18:00:14.356000,(-5 -4 -3 -2 -1 -6 -5 -6)
1969/12/31/18:00:14.364000,(-2 -1 -1 -1 -3 -4 -2 0)
1969/12/31/18:00:14.364000,(-3 0 -3 -13 -3 1 8 5)
1969/12/31/18:00:14.380000,(14 4 -3 -6 -3 -2 1 4)
1969/12/31/18:00:14.380000,(-5 -1 3 4 -2 -4 -3 -2)
1969/12/31/18:00:14.381000,(-3 -1 0 1 3 -1 -3 -3)
1969/12/31/18:00:14.381000,(0 -2 0 1 1 0 -4 -4)
1969/12/31/18:00:14.402000,(-4 -2 -4 -16 -4 -2 -2 -2)
1969/12/31/18:00:14.402000,(1 -2 3 17 2 2 2 4)
1969/12/31/18:00:14.404000,(2 -1 1 0 -3 -2 2 0)
1969/12/31/18:00:14.404000,(1 -3 -3 -3 -2 -2 -2 2)
1969/12/31/18:00:14.416000,(-17 -8 -5 -3 -5 -8 0 -3)
1969/12/31/18:00:14.416000,(-6 6 8 0 8 4 -1 -9)
1969/12/31/18:00:14.425000,(-4 -6 -18 -56 -35 -12 -9 -11)
1969/12/31/18:00:14.425000,(1 3 2 18 7 0 1 -2)
1969/12/31/18:00:14.440000,(3 1 8 25 21 5 2 0)
1969/12/31/18:00:14.440000,(1 -1 9 47 19 6 4 6)
1969/12/31/18:00:14.441000,(4 -2 -7 -39 -5 2 6 10)
1969/12/31/18:00:14.441000,(-1 2 -3 24 -1 -2 -2 -4)
1969/12/31/18:00:14.462000,(-6 3 4 -10 -4 -4 -6 -7)
1969/12/31/18:00:14.462000,(5 0 -8 -17 -9 -5 0 5)
1969/12/31/18:00:14.464000,(-15 -1 10 24 5 1 -1 -4)
1969/12/31/18:00:14.464000,(15 -14 -9 -23 -15 -14 -11 -1)
1969/12/31/18:00:14.476000,(15 -1 -6 -1 2 10 9 8)
1969/12/31/18:00:14.476000,(14 8 -5 -15 -3 1 -7 -7)
1969/12/31/18:00:14.492000,(-6 3 0 5 0 -6 -6 -8)
1969/12/31/18:00:14.492000,(-19 -3 -2 -9 -4 -4 2 -5)
1969/12/31/18:00:14.500000,(-12 -3 1 10 1 -1 -2 1)
1969/12/31/18:00:14.500000,(11 -3 -9 -48 -16 0 4 11)
1969/12/31/18:00:14.501000,(-1 -3 -7 23 8 5 -1 -1)
1969/12/31/18:00:14.501000,(-5 2 15 23 12 2 -1 -2)
1969/12/31/18:00:14.522000,(9 7 12 15 0 1 5 2)
1969/12/31/18:00:14.522000,(1 0 4 15 4 2 4 2)
1969/12/31/18:00:14.524000,(0 2 4 18 16 0 1 3)
1969/12/31/18:00:14.524000,(-4 2 -4 -10 2 2 1 0)
1969/12/31/18:00:14.536000,(10 -2 -10 -21 -17 -13 -14 -13)
1969/12/31/18:00:14.536000,(-13 -16 -11 -14 -11 -4 0 4)
1969/12/31/18:00:14.545000,(-15 4 5 3 0 -1 -11 -19)
1969/12/31/18:00:14.545000,(3 -17 -8 -13 -7 0 -1 0)
1969/12/31/18:00:14.559000,(5 6 2 -2 -2 1 2 4)
1969/12/31/18:00:14.559000,(-49 -22 -6 1 -3 -12 -13 -19)
1969/12/31/18:00:14.566000,(68 31 2 1 3 4 16 37)
1969/12/31/18:00:14.566000,(-4 0 -5 -28 -10 -6 -9 -9)
1969/12/31/18:00:14.582000,(-1 -1 3 16 2 -3 -2 -4)
1969/12/31/18:00:14.582000,(-12 0 5 20 10 1 2 -7)
1969/12/31/18:00:14.584000,(-12 -9 1 14 3 4 4 2)
1969/12/31/18:00:14.584000,(4 8 -2 -13 0 2 5 5)
1969/12/31/18:00:14.596000,(-8 -2 -16 -37 -24 -7 -6 -4)
1969/12/31/18:00:14.596000,(-1 0 8 39 11 -7 -8 1)
1969/12/31/18:00:14.605000,(30 14 24 48 27 11 8 11)
1969/12/31/18:00:14.605000,(-5 -5 4 19 11 8 4 -3)
1969/12/31/18:00:14.619000,(-27 -15 -8 -22 -8 -1 -5 -7)
1969/12/31/18:00:14.619000,(36 9 -9 -33 -15 0 2 7)
1969/12/31/18:00:14.626000,(-5 -5 -9 -25 -22 -8 -4 -1)
1969/12/31/18:00:14.626000,(-17 1 2 8 5 1 -2 -7)
1969/12/31/18:00:14.642000,(17 2 4 14 16 7 12 15)
1969/12/31/18:00:14.642000,(1 5 -22 -63 -10 -3 3 -2)
1969/12/31/18:00:14.644000,(-12 -11 -2 -2 -11 -5 0 -1)
1969/12/31/18:00:14.644000,(9 4 26 77 6 -5 -8 -4)
1969/12/31/18:00:14.656000,(-29 -8 12 34 28 7 6 -1)
1969/12/31/18:00:14.656000,(15 8 0 18 6 0 -8 -13)
1969/12/31/18:00:14.665000,(-7 -7 -20 -45 -5 -5 -2 -5)
1969/12/31/18:00:14.665000,(-16 -5 -13 -42 -21 -2 3 -2)
1969/12/31/18:00:14.679000,(18 8 5 17 -9 -8 -10 -4)
1969/12/31/18:00:14.679000,(-55 -18 2 -3 0 -5 -6 -11)
1969/12/31/18:00:14.686000,(55 15 -9 -34 -14 0 2 9)
1969/12/31/18:00:14.686000,(6 1 -3 -3 6 1 1 5)
1969/12/31/18:00:14.702000,(-8 -3 -1 -3 -8 1 -2 -3)
1969/12/31/18:00:14.702000,(16 10 4 -7 -1 7 12 14)
1969/12/31/18:00:14.704000,(-21 -5 8 22 4 1 -3 -7)
1969/12/31/18:00:14.704000,(-5 -4 -14 -46 -8 -4 -1 0)
1969/12/31/18:00:14.716000,(11 3 1 9 3 -2 2 0)
1969/12/31/18:00:14.716000,(7 9 30 70 21 10 5 4)
1969/12/31/18:00:14.725000,(-18 -10 10 38 24 9 3 -3)
1969/12/31/18:00:14.725000,(13 0 -15 -44 -1 4 3 5)
1969/12/31/18:00:14.739000,(-11 -8 -15 -12 -10 -5 -6 -8)
1969/12/31/18:00:14.739000,(12 0 -6 -13 -19 -9 -4 5)
1969/12/31/18:00:14.746000,(-22 -3 5 8 0 -2 -4 -9)
1969/12/31/18:00:14.746000,(11 7 -5 -30 -37 -28 -8 1)
1969/12/31/18:00:14.762000,(-1 -1 -18 -65 -35 -1 -3 -4)
1969/12/31/18:00:14.762000,(-39 -25 14 62 38 12 3 -7)
1969/12/31/18:00:14.764000,(56 49 33 58 71 44 37 47)
1969/12/31/18:00:14.764000,(-4 -17 -14 14 -2 -15 -33 -36)
1969/12/31/18:00:14.776000,(-3 -1 -3 -6 -4 -6 -3 -5)
1969/12/31/18:00:14.776000,(13 1 -11 -36 -30 -11 -1 3)
1969/12/31/18:00:14.785000,(-30 -21 -19 -30 -33 -17 -4 -6)
1969/12/31/18:00:14.785000,(6 11 11 22 24 25 23 23)
1969/12/31/18:00:14.799000,(12 7 2 -18 -6 -1 0 3)
1969/12/31/18:00:14.799000,(-6 -8 -11 -4 -8 -6 -8 -8)
1969/12/31/18:00:14.813000,(-20 -12 -3 1 0 -10 -17 -21)
1969/12/31/18:00:14.813000,(1 7 14 32 9 9 6 7)
1969/12/31/18:00:14.822000,(3 0 9 31 3 -8 -5 -5)
1969/12/31/18:00:14.822000,(8 6 -2 -18 3 11 7 9)
1969/12/31/18:00:14.824000,(-11 -12 -5 -9 12 1 -9 -10)
1969/12/31/18:00:14.824000,(-17 -6 5 17 26 18 11 -6)
1969/12/31/18:00:14.845000,(5 2 2 -2 9 13 19 37)
1969/12/31/18:00:14.845000,(8 13 -2 -8 -18 -16 -9 -12)
1969/12/31/18:00:14.846000,(-13 -10 -6 -4 -30 -20 -18 -21)
1969/12/31/18:00:14.846000,(-12 -12 -12 -17 1 -7 -4 -2)
1969/12/31/18:00:14.858000,(-5 -2 -1 2 -4 -7 -2 -1)
1969/12/31/18:00:14.858000,(9 5 0 -13 -10 -3 3 2)
1969/12/31/18:00:14.867000,(0 -3 -7 -14 0 1 4 3)
1969/12/31/18:00:14.867000,(3 2 -15 -80 -25 -12 -2 1)
1969/12/31/18:00:14.882000,(-3 -2 1 68 9 -5 -1 -2)
1969/12/31/18:00:14.882000,(8 5 30 91 26 20 9 11)
1969/12/31/18:00:14.884000,(-4 2 22 54 35 14 2 -2)
1969/12/31/18:00:14.884000,(3 4 9 24 9 4 -3 -2)
1969/12/31/18:00:14.904000,(0 -1 -19 -72 -28 -16 -11 -9)
1969/12/31/18:00:14.904000,(-3 -7 -25 -66 -38 -13 -6 -2)
1969/12/31/18:00:14.906000,(-3 -2 2 -1 0 7 4 3)
1969/12/31/18:00:14.906000,(7 8 10 11 31 14 7 8)
1969/12/31/18:00:14.918000,(-5 -1 6 30 20 11 -2 -7)
1969/12/31/18:00:14.918000,(9 3 1 7 2 -3 0 5)
1969/12/31/18:00:14.927000,(-7 -7 -8 -37 -32 -16 -7 -4)
1969/12/31/18:00:14.927000,(3 0 1 3 -13 -4 3 7)
1969/12/31/18:00:14.942000,(3 2 6 9 12 5 1 -4)
1969/12/31/18:00:14.942000,(-3 -2 -8 -59 -5 -5 -3 -4)
1969/12/31/18:00:14.944000,(1 1 -13 18 -12 -5 2 1)
1969/12/31/18:00:14.944000,(-7 -7 -8 -14 -13 -8 -5 -6)
1969/12/31/18:00:14.966000,(13 6 10 26 10 5 10 12)
1969/12/31/18:00:14.966000,(-2 6 27 54 33 16 13 4)
1969/12/31/18:00:14.968000,(12 8 4 -5 5 1 0 7)
1969/12/31/18:00:14.968000,(-9 -6 -11 -9 -12 -10 -11 -13)
1969/12/31/18:00:14.971000,(-8 -9 -11 -18 -6 -1 -1 -4)
1969/12/31/18:00:14.971000,(1 -2 -1 -2 -14 -5 -1 1)
1969/12/31/18:00:14.982000,(12 7 2 -18 -6 -1 0 3)
1969/12/31/18:00:14.982000,(-6 -8 -11 -4 -8 -6 -8 -8)
1969/12/31/18:00:14.987000,(-20 -12 -3 1 0 -10 -17 -21)
1969/12/31/18:00:14.987000,(1 7 14 32 9 9 6 7)
1969/12/31/18:00:14.988000,(3 0 9 31 3 -8 -5 -5)
1969/12/31/18:00:14.988000,(8 6 -2 -18 3 11 7 9)
1969/12/31/18:00:14.994000,(0 1 -3 -25 11 7 0 3)
1969/12/31/18:00:14.994000,(1 -5 -18 -20 0 -6 -7 -6)
1969/12/31/18:00:15.001000,(-5 -4 -8 -19 -18 -11 -5 -2)
1969/12/31/18:00:15.001000,(5 -1 -19 -84 -30 -8 0 1)
1969/12/31/18:00:15.008000,(-13 -8 4 53 14 2 -6 -9)
1969/12/31/18:00:15.008000,(1 6 5 9 22 9 9 12)
1969/12/31/18:00:15.017000,(0 -3 -6 -28 -13 -3 -11 -15)
1969/12/31/18:00:15.017000,(1 0 -2 5 0 3 4 5)
1969/12/31/18:00:15.031000,(5 7 9 4 -4 1 0 -1)
1969/12/31/18:00:15.031000,(-16 -9 3 12 -1 -2 -6 -8)
1969/12/31/18:00:15.047000,(2 -2 -12 -21 -4 -5 1 4)
1969/12/31/18:00:15.047000,(-5 -2 -3 -9 -6 1 0 -4)
1969/12/31/18:00:15.054000,(-3 -4 -5 -7 -2 -6 -7 -8)
1969/12/31/18:00:15.054000,(12 6 1 22 6 1 4 6)
1969/12/31/18:00:15.061000,(-4 1 5 13 3 -1 -2 -2)
1969/12/31/18:00:15.061000,(5 1 5 0 -4 -4 -1 6)
1969/12/31/18:00:15.068000,(4 7 9 9 7 8 11 3)
1969/12/31/18:00:15.068000,(-7 -1 -7 -38 -6 -5 -7 -15)
1969/12/31/18:00:15.077000,(-5 -5 -8 -5 -1 -1 3 5)
1969/12/31/18:00:15.077000,(-6 -2 4 38 3 -4 -5 -11)
1969/12/31/18:00:15.091000,(5 2 -4 -22 -4 -5 -4 0)
1969/12/31/18:00:15.091000,(13 4 -9 -20 -3 1 7 11)
1969/12/31/18:00:15.098000,(-9 -2 5 0 3 3 1 -4)
1969/12/31/18:00:15.098000,(4 0 -5 2 -9 -3 -5 3)
1969/12/31/18:00:15.114000,(-4 0 13 26 -1 5 0 3)
1969/12/31/18:00:15.114000,(9 0 0 2 -5 -6 -6 -6)
1969/12/31/18:00:15.121000,(-2 -1 -4 -14 -16 0 -1 -2)
1969/12/31/18:00:15.121000,(-1 -2 -2 11 22 7 2 3)
1969/12/31/18:00:15.137000,(-2 0 10 24 25 9 5 5)
1969/12/31/18:00:15.137000,(-1 9 13 20 15 7 2 -5)
1969/12/31/18:00:15.139000,(0 0 2 -1 0 -4 3 3)
1969/12/31/18:00:15.139000,(2 -1 -7 -15 -22 -13 -10 -12)
1969/12/31/18:00:15.152000,(-76 -26 -16 -40 -22 -14 -12 -28)
1969/12/31/18:00:15.152000,(74 14 -14 -21 -6 6 16 37)
1969/12/31/18:00:15.158000,(-16 -8 -7 -2 -9 -17 -24 -25)
1969/12/31/18:00:15.158000,(24 11 9 5 10 15 21 25)
1969/12/31/18:00:15.174000,(-45 -18 3 13 7 -3 -10 -26)
1969/12/31/18:00:15.174000,(-15 -9 -4 -2 -5 -6 -1 7)
1969/12/31/18:00:15.181000,(-19 -2 4 10 3 -1 -4 -13)
1969/12/31/18:00:15.181000,(13 -2 -1 3 -6 -2 2 13)
1969/12/31/18:00:15.197000,(17 6 -11 -23 -5 3 7 10)
1969/12/31/18:00:15.197000,(-23 -3 8 18 0 2 0 -8)
1969/12/31/18:00:15.198000,(18 -2 -11 -2 1 1 3 5)
1969/12/31/18:00:15.198000,(-23 -5 12 40 16 8 9 4)
1969/12/31/18:00:15.212000,(25 11 11 7 3 2 -2 -2)
1969/12/31/18:00:15.212000,(15 24 2 2 -2 2 6 9)
1969/12/31/18:00:15.218000,(-39 -25 -12 -21 -2 -7 -10 -13)
1969/12/31/18:00:15.218000,(24 23 -2 -15 -6 -1 3 8)
1969/12/31/18:00:15.234000,(47 5 -2 0 -3 -1 -3 5)
1969/12/31/18:00:15.234000,(-49 -12 -1 -1 5 3 1 -13)
1969/12/31/18:00:15.248000,(-5 -4 8 5 4 -1 -8 0)
1969/12/31/18:00:15.248000,(-55 -34 -15 -20 -19 -25 -31 -42)
1969/12/31/18:00:15.257000,(28 7 -14 -23 -2 6 17 26)
1969/12/31/18:00:15.257000,(-13 3 1 12 -3 -2 -2 -9)
1969/12/31/18:00:15.259000,(-3 -1 6 10 7 5 5 -4)
1969/12/31/18:00:15.259000,(8 5 1 -32 -6 2 1 2)
1969/12/31/18:00:15.271000,(-21 -10 13 39 -8 -14 -13 -16)
1969/12/31/18:00:15.271000,(16 6 -3 -16 0 -1 3 12)
1969/12/31/18:00:15.280000,(19 18 6 9 5 11 11 14)
1969/12/31/18:00:15.280000,(-24 -16 7 59 19 1 -3 -7)
1969/12/31/18:00:15.294000,(3 17 11 -1 19 19 22 20)
1969/12/31/18:00:15.294000,(43 4 -4 0 -11 -13 -15 3)
1969/12/31/18:00:15.301000,(-6 1 -14 -24 -8 -3 1 -16)
1969/12/31/18:00:15.301000,(23 20 10 -14 -4 6 6 4)
1969/12/31/18:00:15.317000,(27 -3 -15 -32 -22 -21 -14 19)
1969/12/31/18:00:15.317000,(41 30 5 2 6 10 10 13)
1969/12/31/18:00:15.319000,(31 17 -8 -23 -17 -9 -7 11)
1969/12/31/18:00:15.319000,(-19 -18 -13 -5 7 8 14 8)
1969/12/31/18:00:15.331000,(-23 -8 8 6 3 5 4 -7)
1969/12/31/18:00:15.331000,(-27 -25 4 4 0 -7 -10 -15)
1969/12/31/18:00:15.340000,(-10 -13 -9 -58 -6 1 5 3)
1969/12/31/18:00:15.340000,(22 15 7 51 7 2 4 10)
1969/12/31/18:00:15.356000,(20 5 -5 -9 1 -2 -1 3)
1969/12/31/18:00:15.356000,(-45 -29 0 28 1 -10 -20 -31)
1969/12/31/18:00:15.361000,(-42 -12 5 29 0 1 0 -13)
1969/12/31/18:00:15.361000,(45 27 4 -11 4 12 16 17)
1969/12/31/18:00:15.377000,(-48 -39 -14 -26 2 9 10 7)
1969/12/31/18:00:15.377000,(21 41 2 -17 -1 5 8 -1)
1969/12/31/18:00:15.379000,(24 13 -11 12 -2 -10 -18 -14)
1969/12/31/18:00:15.379000,(-34 -5 4 -15 -17 -28 -29 -25)
1969/12/31/18:00:15.391000,(21 9 10 9 2 7 12 10)
1969/12/31/18:00:15.391000,(-40 -41 -8 -2 6 8 4 2)
1969/12/31/18:00:15.400000,(20 4 14 18 13 13 17 26)
1969/12/31/18:00:15.400000,(-14 -11 -8 -1 3 3 -5 -9)
1969/12/31/18:00:15.414000,(-17 3 -3 -4 -5 -6 -5 -21)
1969/12/31/18:00:15.414000,(29 7 -6 -12 -21 -22 -18 -2)
1969/12/31/18:00:15.421000,(-47 -21 4 7 9 3 3 -6)
1969/12/31/18:00:15.421000,(50 33 1 -3 -5 -5 -3 2)
1969/12/31/18:00:15.437000,(-39 -23 -6 4 -2 -6 -11 -22)
1969/12/31/18:00:15.437000,(29 25 -3 -8 -2 2 5 11)
1969/12/31/18:00:15.445000,(6 -8 1 9 2 2 0 5)
1969/12/31/18:00:15.445000,(-59 -31 0 4 5 0 -5 -19)
1969/12/31/18:00:15.451000,(13 18 2 -9 -4 -8 -6 -4)
1969/12/31/18:00:15.451000,(18 18 6 -6 12 16 20 25)
1969/12/31/18:00:15.460000,(53 12 -1 1 -1 -1 8 26)
1969/12/31/18:00:15.460000,(-9 -11 0 5 1 1 -6 -8)
1969/12/31/18:00:15.474000,(-25 10 -2 1 2 6 3 -9)
1969/12/31/18:00:15.474000,(19 -12 2 -2 -8 -7 1 13)
1969/12/31/18:00:15.481000,(-66 -47 -5 1 -3 -9 -12 -17)
1969/12/31/18:00:15.481000,(95 97 23 3 13 30 50 62)
1969/12/31/18:00:15.505000,(-19 -29 -10 4 -4 -7 -8 6)
1969/12/31/18:00:15.505000,(-49 -22 -3 2 2 2 -3 -17)
1969/12/31/18:00:15.507000,(-17 -8 0 2 -1 -1 -6 -18)
1969/12/31/18:00:15.507000,(-7 -21 -5 -4 -5 -4 0 4)
1969/12/31/18:00:15.511000,(28 19 5 2 5 6 9 13)
1969/12/31/18:00:15.511000,(-25 -17 -6 -5 -6 -7 -12 -21)
1969/12/31/18:00:15.528000,(44 18 3 0 -4 2 13 26)
1969/12/31/18:00:15.528000,(-55 -19 -9 -5 -6 -9 -16 -30)
1969/12/31/18:00:15.534000,(91 54 19 10 14 20 26 31)
1969/12/31/18:00:15.534000,(-79 -69 -21 -8 -9 -18 -32 -44)
1969/12/31/18:00:15.541000,(67 57 9 4 12 16 14 18)
1969/12/31/18:00:15.541000,(-67 -53 -10 -10 -17 -22 -33 -41)
1969/12/31/18:00:15.557000,(-44 -21 -9 -1 -11 -16 -17 -16)
1969/12/31/18:00:15.557000,(41 32 8 7 9 11 10 6)
1969/12/31/18:00:15.559000,(-38 -22 -2 -4 -6 -1 1 -1)
1969/12/31/18:00:15.559000,(31 14 1 -3 0 0 2 5)
1969/12/31/18:00:15.571000,(-15 -10 1 -9 -6 -9 -10 -7)
1969/12/31/18:00:15.571000,(-20 -25 -4 1 -3 -8 -5 -8)
1969/12/31/18:00:15.580000,(8 20 5 -1 4 1 7 7)
1969/12/31/18:00:15.580000,(-2 2 -1 4 4 3 6 8)
1969/12/31/18:00:15.594000,(15 0 -6 -2 2 1 4 3)
1969/12/31/18:00:15.594000,(-48 -16 -2 8 3 -3 -4 -13)
1969/12/31/18:00:15.601000,(54 20 0 -3 -1 -2 -5 8)
1969/12/31/18:00:15.601000,(-30 -7 9 3 4 10 8 -1)
1969/12/31/18:00:15.617000,(-1 -9 -8 -8 -17 -22 -22 -10)
1969/12/31/18:00:15.617000,(3 7 -3 -4 12 19 19 15)
1969/12/31/18:00:15.619000,(-112 -69 -3 7 -2 0 -9 -29)
1969/12/31/18:00:15.619000,(98 68 7 6 4 13 16 39)
1969/12/31/18:00:15.631000,(30 16 0 -2 4 11 11 29)
1969/12/31/18:00:15.631000,(9 1 -5 -9 -19 -21 -20 -8)
1969/12/31/18:00:15.640000,(-38 -26 -11 0 2 -1 1 -12)
1969/12/31/18:00:15.640000,(-5 -9 3 5 6 4 8 7)
1969/12/31/18:00:15.654000,(-22 -9 0 2 -5 -7 -9 -24)
1969/12/31/18:00:15.654000,(-6 -6 -4 -4 -2 3 8 8)
1969/12/31/18:00:15.668000,(-16 -12 -4 -2 -6 -14 -23 -31)
1969/12/31/18:00:15.669000,(13 15 -3 4 10 10 5 -7)
1969/12/31/18:00:15.677000,(-22 -6 4 -5 -6 -14 -22 -21)
1969/12/31/18:00:15.677000,(-41 -34 0 7 11 12 15 3)
1969/12/31/18:00:15.679000,(64 43 5 3 -4 -5 -2 -1)
1969/12/31/18:00:15.679000,(-6 -27 -9 -6 -7 -11 -8 14)
1969/12/31/18:00:15.691000,(-9 -1 -6 -10 5 10 12 9)
1969/12/31/18:00:15.691000,(25 17 2 -3 -10 -7 -8 4)
1969/12/31/18:00:15.700000,(-17 3 3 -2 -10 -6 -7 -16)
1969/12/31/18:00:15.700000,(-23 -25 1 0 19 29 33 25)
1969/12/31/18:00:15.714000,(100 87 7 7 3 4 6 23)
1969/12/31/18:00:15.714000,(-49 -32 -9 -3 -8 -14 -15 -17)
1969/12/31/18:00:15.721000,(26 17 6 2 9 9 14 21)
1969/12/31/18:00:15.721000,(34 32 -3 -3 -12 -18 -10 3)
1969/12/31/18:00:15.737000,(-113 -80 -22 -1 -16 -32 -45 -71)
1969/12/31/18:00:15.737000,(49 52 21 7 20 28 45 52)
1969/12/31/18:00:15.739000,(-6 -9 -12 -7 -5 -5 -11 -13)
1969/12/31/18:00:15.739000,(-52 -44 -9 -3 -8 -7 -10 -14)
1969/12/31/18:00:15.751000,(74 76 14 1 4 10 8 17)
1969/12/31/18:00:15.751000,(-12 -6 1 -5 -4 -8 -10 -10)
1969/12/31/18:00:15.760000,(-44 -13 -1 -5 -12 -15 -15 -19)
1969/12/31/18:00:15.760000,(31 28 4 -3 13 26 35 25)
1969/12/31/18:00:15.774000,(-2 -23 3 7 5 17 18 22)
1969/12/31/18:00:15.774000,(18 8 -6 -7 -5 -4 -9 -7)
1969/12/31/18:00:15.781000,(-38 -26 -2 -2 0 5 2 -11)
1969/12/31/18:00:15.781000,(-14 17 8 5 -4 -11 -19 -18)
1969/12/31/18:00:15.797000,(-12 -15 6 3 2 7 10 8)
1969/12/31/18:00:15.797000,(-19 -57 -17 -5 -4 -6 -1 5)
1969/12/31/18:00:15.799000,(76 66 22 9 12 6 14 29)
1969/12/31/18:00:15.799000,(-7 -34 -12 -16 -17 -13 -11 -13)
1969/12/31/18:00:15.811000,(28 22 13 19 14 8 14 26)
1969/12/31/18:00:15.811000,(-28 -13 -2 -1 -11 -12 -19 -41)
1969/12/31/18:00:15.820000,(-35 -17 -5 -3 3 11 8 -7)
1969/12/31/18:00:15.820000,(-4 -9 -7 -8 3 -1 -3 8)
1969/12/31/18:00:15.834000,(16 -4 -1 -3 -5 -13 -14 2)
1969/12/31/18:00:15.834000,(20 33 19 11 12 10 11 19)
1969/12/31/18:00:15.841000,(59 29 0 3 14 17 28 51)
1969/12/31/18:00:15.841000,(-17 -5 1 4 -4 2 1 -12)
1969/12/31/18:00:15.865000,(-15 -7 -10 -18 -8 3 9 -6)
1969/12/31/18:00:15.865000,(23 25 -2 0 -2 5 2 -5)
1969/12/31/18:00:15.866000,(-13 -15 -4 5 -3 -13 -22 -13)
1969/12/31/18:00:15.866000,(-97 -84 -10 11 11 10 -2 -45)
1969/12/31/18:00:15.887000,(70 78 29 12 2 7 37 75)
1969/12/31/18:00:15.887000,(-7 -4 -8 -1 -1 -16 -17 2)
1969/12/31/18:00:15.889000,(-10 -1 -3 8 7 8 1 -8)
1969/12/31/18:00:15.889000,(23 23 -6 -8 -15 -20 -18 -1)
1969/12/31/18:00:15.901000,(-52 -48 -17 -15 -9 -1 -12 -35)
1969/12/31/18:00:15.901000,(-4 7 4 -13 -18 -7 -3 -16)
1969/12/31/18:00:15.910000,(32 14 5 2 13 15 32 55)
1969/12/31/18:00:15.910000,(-26 -19 -4 2 0 -5 -14 -20)
1969/12/31/18:00:15.925000,(9 -12 -1 0 4 9 6 -2)
1969/12/31/18:00:15.925000,(7 7 -2 -7 -7 -11 -14 -7)
1969/12/31/18:00:15.926000,(-51 -51 -22 -15 -20 -23 -28 -43)
1969/12/31/18:00:15.926000,(-21 -13 0 2 -3 -1 1 -2)
1969/12/31/18:00:15.947000,(64 78 28 12 21 26 23 45)
1969/12/31/18:00:15.947000,(-27 -22 -9 -1 -3 -12 -25 -32)
1969/12/31/18:00:15.949000,(6 6 1 -3 -8 -6 -5 -6)
1969/12/31/18:00:15.949000,(22 22 3 -11 -6 -7 -2 2)
1969/12/31/18:00:15.961000,(-49 -49 -41 -83 -36 -13 -15 -33)
1969/12/31/18:00:15.961000,(27 14 1 12 -7 18 25 35)
1969/12/31/18:00:15.970000,(24 46 36 99 22 2 -6 -1)
1969/12/31/18:00:15.970000,(3 -4 40 76 41 22 8 -4)
1969/12/31/18:00:15.985000,(-68 -56 0 37 6 -34 -51 -73)
1969/12/31/18:00:15.985000,(-9 7 -14 -39 -4 2 13 -2)
1969/12/31/18:00:15.986000,(43 -1 -21 -61 -12 -4 10 36)
1969/12/31/18:00:15.986000,(-22 -5 -11 -18 -13 -7 -1 -9)
1969/12/31/18:00:16.007000,(15 7 -12 -13 -14 -22 -22 -23)
1969/12/31/18:00:16.007000,(-33 -17 -1 -4 -1 -8 -11 -18)
1969/12/31/18:00:16.009000,(-18 -16 -8 -8 -12 -10 -15 -23)
1969/12/31/18:00:16.009000,(27 21 11 2 9 9 14 27)
1969/12/31/18:00:16.021000,(46 50 1 2 -1 1 13 37)
1969/12/31/18:00:16.021000,(62 39 9 8 9 7 0 12)
1969/12/31/18:00:16.030000,(-19 -11 -4 -7 -1 4 3 -6)
1969/12/31/18:00:16.030000,(26 10 -1 -6 -4 -1 1 10)
1969/12/31/18:00:16.045000,(-51 -42 -7 3 -4 -6 -10 -29)
1969/12/31/18:00:16.045000,(-77 -65 -11 18 3 -5 -6 -17)
1969/12/31/18:00:16.046000,(82 71 20 -17 6 14 22 35)
1969/12/31/18:00:16.046000,(53 45 -7 -14 -8 0 5 26)
1969/12/31/18:00:16.067000,(-41 -37 -13 -4 -8 -9 -13 -25)
1969/12/31/18:00:16.067000,(12 12 7 5 7 11 10 12)
1969/12/31/18:00:16.069000,(-52 -41 -11 11 3 -2 -2 -12)
1969/12/31/18:00:16.069000,(0 12 6 5 2 -6 -3 0)
1969/12/31/18:00:16.081000,(-11 7 18 18 14 15 22 27)
1969/12/31/18:00:16.081000,(14 15 0 -10 -7 -10 -14 -6)
1969/12/31/18:00:16.090000,(-32 -32 -21 -31 -15 -7 -12 -17)
1969/12/31/18:00:16.090000,(3 -14 2 13 -6 -8 -12 -8)
1969/12/31/18:00:16.105000,(-10 -19 6 17 6 0 -3 0)
1969/12/31/18:00:16.105000,(-103 -74 4 19 15 17 11 -37)
1969/12/31/18:00:16.106000,(73 78 19 -5 6 12 27 50)
1969/12/31/18:00:16.106000,(-75 -46 -27 -31 -15 -20 -28 -35)
1969/12/31/18:00:16.127000,(-3 -19 -3 3 5 10 6 2)
1969/12/31/18:00:16.127000,(15 -2 -3 -3 -6 -5 -6 -2)
1969/12/31/18:00:16.129000,(-20 -19 -8 5 -1 -4 -4 -18)
1969/12/31/18:00:16.129000,(17 15 7 -14 -6 4 10 12)
1969/12/31/18:00:16.157000,(11 8 -1 -2 -9 -13 -11 -7)
1969/12/31/18:00:16.157000,(50 39 3 3 16 20 28 36)
1969/12/31/18:00:16.158000,(-27 -27 -2 9 -2 -2 -7 -8)
1969/12/31/18:00:16.158000,(23 19 3 -5 1 2 6 16)
1969/12/31/18:00:16.166000,(-36 -21 1 4 9 8 1 -16)
1969/12/31/18:00:16.166000,(7 7 -1 1 -4 -8 0 16)
1969/12/31/18:00:16.166000,(36 22 3 -8 -7 -6 -9 -17)
1969/12/31/18:00:16.166000,(-30 -29 -14 -3 -8 -16 -24 -35)
1969/12/31/18:00:16.187000,(13 0 5 5 10 18 24 22)
1969/12/31/18:00:16.187000,(-21 -9 1 -7 -13 -17 -22 -19)
1969/12/31/18:00:16.187000,(14 -5 -2 -8 4 12 16 21)
1969/12/31/18:00:16.187000,(-7 -5 -1 6 0 -10 -11 -8)
1969/12/31/18:00:16.209000,(18 17 2 3 6 5 3 7)
1969/12/31/18:00:16.209000,(13 14 4 10 6 13 15 9)
1969/12/31/18:00:16.210000,(-27 -23 -6 3 -4 -8 -17 -11)
1969/12/31/18:00:16.210000,(4 -4 -4 -5 -1 7 4 -2)
1969/12/31/18:00:16.224000,(-23 -19 -4 -6 -18 -18 -22 -21)
1969/12/31/18:00:16.224000,(29 14 1 -18 10 19 22 26)
1969/12/31/18:00:16.225000,(-27 -13 -1 5 3 -2 -8 -16)
1969/12/31/18:00:16.225000,(-13 -29 6 23 -7 -7 -6 -2)
1969/12/31/18:00:16.247000,(-30 8 17 24 24 21 20 -2)
1969/12/31/18:00:16.247000,(3 -5 -4 2 1 -11 -15 -13)
1969/12/31/18:00:16.247000,(-6 -4 -9 -28 2 -9 -9 -16)
1969/12/31/18:00:16.247000,(-18 -13 -18 -16 -15 -9 -17 -19)
1969/12/31/18:00:16.270000,(19 5 -3 1 -8 -4 1 11)
1969/12/31/18:00:16.270000,(-3 1 3 3 2 0 -2 -5)
1969/12/31/18:00:16.271000,(-15 -11 -2 -3 -10 -9 -7 -1)
1969/12/31/18:00:16.271000,(9 5 4 9 13 7 7 9)
1969/12/31/18:00:16.284000,(0 -4 -8 -11 -8 -6 -9 -8)
1969/12/31/18:00:16.284000,(36 28 1 -2 5 11 16 23)
1969/12/31/18:00:16.285000,(-12 -12 -9 -14 -12 -1 2 -2)
1969/12/31/18:00:16.285000,(2 8 -4 -32 -22 -14 -1 -1)
1969/12/31/18:00:16.307000,(-6 -10 -3 34 6 -5 -8 -8)
1969/12/31/18:00:16.307000,(3 11 21 38 29 9 -1 0)
1969/12/31/18:00:16.307000,(1 8 20 37 42 30 20 15)
1969/12/31/18:00:16.307000,(-6 -5 -12 -10 4 8 -2 -16)
1969/12/31/18:00:16.330000,(-18 -11 -13 -34 -19 -21 -23 -17)
1969/12/31/18:00:16.330000,(10 12 -7 -11 -23 -14 -12 -14)
1969/12/31/18:00:16.331000,(-24 -13 -2 -2 -14 -9 -7 -14)
1969/12/31/18:00:16.331000,(2 12 -6 -12 -11 -11 -10 -7)
1969/12/31/18:00:16.344000,(-41 -32 -17 -12 -10 -15 -22 -32)
1969/12/31/18:00:16.344000,(7 1 0 0 -4 2 4 13)
1969/12/31/18:00:16.345000,(18 18 10 0 0 5 9 13)
1969/12/31/18:00:16.345000,(3 0 1 1 1 -2 -1 0)
1969/12/31/18:00:16.367000,(31 16 5 7 15 17 24 32)
1969/12/31/18:00:16.367000,(-1 -2 -3 -9 -4 -3 -3 2)
1969/12/31/18:00:16.367000,(-22 -18 -8 -7 -7 -7 -13 -15)
1969/12/31/18:00:16.367000,(5 2 2 1 23 13 15 15)
1969/12/31/18:00:16.390000,(7 1 -3 -16 -18 0 5 5)
1969/12/31/18:00:16.390000,(-42 -26 -4 7 -17 -10 -14 -22)
1969/12/31/18:00:16.391000,(10 -1 18 30 28 25 28 30)
1969/12/31/18:00:16.391000,(-12 6 10 11 5 -2 -14 -15)
1969/12/31/18:00:16.404000,(10 5 -6 -10 9 5 6 8)
1969/12/31/18:00:16.404000,(-12 -18 -16 -31 -14 -7 -8 -17)
1969/12/31/18:00:16.405000,(-6 -5 0 6 -14 -9 0 6)
1969/12/31/18:00:16.405000,(39 19 3 9 8 6 16 30)
1969/12/31/18:00:16.427000,(17 19 10 -4 9 11 11 8)
1969/12/31/18:00:16.427000,(6 0 -3 -8 -2 2 7 9)
1969/12/31/18:00:16.427000,(2 6 2 11 6 -2 -3 -4)
1969/12/31/18:00:16.427000,(-8 -6 2 7 1 -1 -1 -7)
1969/12/31/18:00:16.450000,(-5 -1 -1 3 -4 -7 -6 -4)
1969/12/31/18:00:16.450000,(24 17 -2 2 5 -2 2 13)
1969/12/31/18:00:16.451000,(9 7 -1 -16 -3 -1 1 4)
1969/12/31/18:00:16.451000,(-9 12 7 9 12 23 26 12)
1969/12/31/18:00:16.464000,(-20 -29 2 7 -3 5 4 4)
1969/12/31/18:00:16.464000,(74 55 19 8 10 10 23 52)
1969/12/31/18:00:16.465000,(-88 -45 -12 -9 -10 -11 -19 -50)
1969/12/31/18:00:16.465000,(48 -3 4 -3 -6 -4 -3 17)
1969/12/31/18:00:16.488000,(69 65 28 19 23 30 40 66)
1969/12/31/18:00:16.488000,(-12 -7 -5 1 -1 -4 -2 -4)
1969/12/31/18:00:16.489000,(-2 -3 -7 6 -6 -3 -6 -11)
1969/12/31/18:00:16.489000,(1 11 9 1 6 17 19 22)
1969/12/31/18:00:16.510000,(-2 -6 -7 -8 -4 -2 -3 -3)
1969/12/31/18:00:16.510000,(-13 -15 -5 -5 -5 -8 -10 -13)
1969/12/31/18:00:16.511000,(11 9 -1 -3 -9 -9 -11 -8)
1969/12/31/18:00:16.511000,(-1 -8 -12 2 8 1 3 0)
1969/12/31/18:00:16.532000,(-22 -17 -5 1 2 -8 -15 -24)
1969/12/31/18:00:16.532000,(-28 -15 -1 1 -7 -3 -10 -21)
1969/12/31/18:00:16.533000,(28 12 3 0 1 -2 2 22)
1969/12/31/18:00:16.533000,(-47 -30 -10 -10 -16 -18 -27 -44)
1969/12/31/18:00:16.547000,(6 2 -3 -4 -5 -7 -5 -2)
1969/12/31/18:00:16.547000,(2 2 -1 -2 1 4 1 0)
1969/12/31/18:00:16.548000,(5 -3 -3 3 -2 -2 1 1)
1969/12/31/18:00:16.548000,(1 3 1 -5 -6 -9 -6 -1)
1969/12/31/18:00:16.570000,(2 0 -4 -2 2 3 1 0)
1969/12/31/18:00:16.570000,(-21 -21 -5 -1 0 0 -2 -12)
1969/12/31/18:00:16.571000,(9 8 4 -4 -5 -1 -2 2)
1969/12/31/18:00:16.571000,(2 4 -5 -17 -4 0 3 6)
1969/12/31/18:00:16.584000,(-20 -14 -3 5 -4 -10 -12 -19)
1969/12/31/18:00:16.584000,(3 4 3 -22 -6 -3 -3 3)
1969/12/31/18:00:16.585000,(0 2 2 31 24 4 2 -1)
1969/12/31/18:00:16.585000,(7 7 6 25 -14 4 7 7)
1969/12/31/18:00:16.607000,(6 7 5 4 8 1 1 1)
1969/12/31/18:00:16.607000,(-9 -6 -7 -9 -1 -2 -4 -7)
1969/12/31/18:00:16.608000,(0 3 -9 -33 -8 -1 -1 0)
1969/12/31/18:00:16.608000,(-14 -13 -8 -9 -1 -6 -7 -8)
1969/12/31/18:00:16.630000,(5 4 -2 -11 -5 -2 -2 0)
1969/12/31/18:00:16.630000,(3 5 -2 -30 -7 3 5 5)
1969/12/31/18:00:16.631000,(-18 -9 13 44 4 -6 -7 -16)
1969/12/31/18:00:16.631000,(17 15 10 23 16 6 10 14)
1969/12/31/18:00:16.644000,(-4 -3 -6 4 -1 -3 -3 -3)
1969/12/31/18:00:16.644000,(-10 -9 -6 -7 -2 -6 -7 -9)
1969/12/31/18:00:16.645000,(15 13 4 13 14 9 11 12)
1969/12/31/18:00:16.645000,(0 -1 -6 -12 -22 1 -1 1)
1969/12/31/18:00:16.667000,(-4 -1 1 8 4 -2 -3 -3)
1969/12/31/18:00:16.667000,(-6 -4 0 7 5 -3 -4 -2)
1969/12/31/18:00:16.667000,(-5 -4 -10 -17 -6 -4 -6 -4)
1969/12/31/18:00:16.667000,(6 7 0 -23 5 3 4 7)
1969/12/31/18:00:16.690000,(2 2 2 -12 -5 4 3 1)
1969/12/31/18:00:16.690000,(8 8 9 5 0 10 12 8)
1969/12/31/18:00:16.691000,(0 -1 -5 20 3 -3 -3 -1)
1969/12/31/18:00:16.691000,(-8 -11 -7 16 -2 -19 -12 -9)
1969/12/31/18:00:16.704000,(-21 -17 -10 -51 -23 -19 -13 -17)
1969/12/31/18:00:16.704000,(2 9 19 47 15 0 2 1)
1969/12/31/18:00:16.705000,(8 3 -10 -16 6 7 8 8)
1969/12/31/18:00:16.705000,(-6 -8 -1 -9 6 5 0 -3)
1969/12/31/18:00:16.735000,(4 -1 -13 10 -17 -8 -4 2)
1969/12/31/18:00:16.735000,(-7 -12 -16 5 -15 -9 -8 -5)
1969/12/31/18:00:16.736000,(-3 5 19 2 2 3 -1 -4)
1969/12/31/18:00:16.736000,(1 8 3 9 16 5 1 -2)
1969/12/31/18:00:16.750000,(4 0 -19 -60 -11 6 6 7)
1969/12/31/18:00:16.750000,(2 3 16 50 0 9 7 6)
1969/12/31/18:00:16.750000,(8 1 -20 54 4 0 -2 6)
1969/12/31/18:00:16.750000,(-8 -10 -2 -49 -11 -8 -12 -11)
1969/12/31/18:00:16.764000,(-2 15 45 82 11 11 4 -2)
1969/12/31/18:00:16.764000,(5 -3 -25 -12 15 -2 -4 1)
1969/12/31/18:00:16.765000,(-14 -15 1 -34 -17 -9 -8 -8)
1969/12/31/18:00:16.765000,(-1 3 3 23 10 5 2 1)
1969/12/31/18:00:16.787000,(0 -7 -26 -81 -12 -5 -3 0)
1969/12/31/18:00:16.787000,(3 10 30 4 -17 0 3 1)
1969/12/31/18:00:16.787000,(10 6 -14 -17 7 6 7 6)
1969/12/31/18:00:16.787000,(3 0 -23 -79 -22 -1 0 2)
1969/12/31/18:00:16.810000,(1 -4 2 67 16 8 3 -1)
1969/12/31/18:00:16.810000,(-6 -11 0 5 12 -10 -9 -6)
1969/12/31/18:00:16.811000,(-11 -3 4 -59 -30 -7 -6 -9)
1969/12/31/18:00:16.811000,(3 5 15 38 2 5 5 4)
1969/12/31/18:00:16.824000,(6 4 -13 53 20 -1 -2 3)
1969/12/31/18:00:16.824000,(6 -1 0 -92 -25 3 0 1)
1969/12/31/18:00:16.825000,(4 -1 -26 29 10 -4 -1 2)
1969/12/31/18:00:16.825000,(-13 -17 2 -19 -4 -15 -6 -9)
1969/12/31/18:00:16.847000,(-4 7 34 47 32 7 8 -1)
1969/12/31/18:00:16.847000,(4 5 16 105 42 3 4 2)
1969/12/31/18:00:16.847000,(-7 -4 10 -59 -30 -14 -4 -8)
1969/12/31/18:00:16.847000,(6 6 -6 0 -9 1 3 3)
1969/12/31/18:00:16.870000,(-1 -10 -25 -37 -6 -5 -4 -2)
1969/12/31/18:00:16.870000,(-8 -5 -24 -100 -28 1 -1 -3)
1969/12/31/18:00:16.871000,(9 13 19 78 13 11 3 8)
1969/12/31/18:00:16.871000,(5 0 -4 47 25 9 -2 3)
1969/12/31/18:00:16.884000,(-8 -6 -5 -82 -36 -6 -10 -6)
1969/12/31/18:00:16.884000,(7 4 -1 12 -8 2 4 4)
1969/12/31/18:00:16.885000,(-6 -3 8 7 -6 -2 0 -2)
1969/12/31/18:00:16.885000,(0 1 5 8 20 10 8 1)
1969/12/31/18:00:16.907000,(-5 -1 8 19 -7 -9 -6 -2)
1969/12/31/18:00:16.907000,(0 -3 -27 -73 -32 -2 2 0)
1969/12/31/18:00:16.907000,(7 7 29 28 30 1 1 4)
1969/12/31/18:00:16.908000,(-5 -3 -4 50 5 -6 -5 -6)
1969/12/31/18:00:16.930000,(-1 -2 -5 -28 -6 3 3 -3)
1969/12/31/18:00:16.930000,(-3 -4 -4 26 17 3 -1 -2)
1969/12/31/18:00:16.931000,(1 -1 16 15 2 4 -1 2)
1969/12/31/18:00:16.931000,(-2 3 -6 -16 -9 -2 -4 -2)
1969/12/31/18:00:16.931000,(-2 0 -4 -11 -6 -1 -1 -1)
1969/12/31/18:00:16.931000,(-3 -3 -3 -7 -7 -4 -2 -1)
1969/12/31/18:00:16.932000,(2 0 0 2 -6 1 1 3)
1969/12/31/18:00:16.932000,(1 -3 -7 -31 -5 -4 -2 -1)
1969/12/31/18:00:16.954000,(2 0 10 27 18 6 0 2)
1969/12/31/18:00:16.954000,(0 0 5 17 9 2 -2 -1)
1969/12/31/18:00:16.954000,(-3 -1 0 3 6 2 2 -1)
1969/12/31/18:00:16.954000,(0 -1 -5 -4 -9 -5 -3 0)
1969/12/31/18:00:16.969000,(-8 -2 -7 -27 -12 -5 -4 -6)
1969/12/31/18:00:16.969000,(13 7 6 -9 -2 2 2 7)
1969/12/31/18:00:16.969000,(-4 -9 -19 -41 -32 -11 -7 -3)
1969/12/31/18:00:16.969000,(7 6 7 30 28 5 6 7)
1969/12/31/18:00:16.991000,(-2 1 18 45 20 6 0 0)
1969/12/31/18:00:16.991000,(-2 -2 4 23 17 6 5 0)
1969/12/31/18:00:16.992000,(-14 0 1 3 3 -1 -6 -11)
1969/12/31/18:00:16.992000,(35 10 -1 -23 -16 7 21 37)
1969/12/31/18:00:17.014000,(-18 -10 -18 -29 -23 -25 -34 -39)
1969/12/31/18:00:17.014000,(-5 -4 -3 -8 -8 -6 -4 -6)
1969/12/31/18:00:17.014000,(3 3 -2 -1 -1 2 3 4)
1969/12/31/18:00:17.015000,(-8 -7 -2 3 3 0 -1 -4)
1969/12/31/18:00:17.029000,(2 2 3 1 2 7 11 12)
1969/12/31/18:00:17.029000,(14 4 -10 -27 -4 1 3 8)
1969/12/31/18:00:17.029000,(-11 -11 -15 -11 -5 -7 -9 -10)
1969/12/31/18:00:17.029000,(-3 5 11 18 9 2 0 -4)
1969/12/31/18:00:17.051000,(-2 2 16 43 18 10 7 0)
1969/12/31/18:00:17.051000,(-16 -4 6 8 -2 -6 -6 -15)
1969/12/31/18:00:17.052000,(16 5 2 6 2 -6 2 22)
1969/12/31/18:00:17.052000,(-14 -12 -16 -15 -12 -10 -12 -15)
1969/12/31/18:00:17.074000,(20 13 -1 -20 -6 6 10 17)
1969/12/31/18:00:17.074000,(-21 -25 -28 -52 -24 -15 -18 -23)
1969/12/31/18:00:17.075000,(0 -1 -2 -6 -3 1 2 -1)
1969/12/31/18:00:17.075000,(-11 -4 -6 -5 -2 -4 -4 -5)
1969/12/31/18:00:17.089000,(-3 -2 12 42 14 0 -3 2)
1969/12/31/18:00:17.089000,(16 17 21 47 27 19 16 16)
1969/12/31/18:00:17.089000,(2 1 5 0 3 -2 0 3)
1969/12/31/18:00:17.089000,(-8 -7 -11 -47 -30 -7 -12 -14)
1969/12/31/18:00:17.111000,(-7 -2 3 22 9 8 13 1)
1969/12/31/18:00:17.111000,(20 12 10 15 7 2 4 16)
1969/12/31/18:00:17.112000,(-21 -15 -8 1 -4 -19 -40 -30)
1969/12/31/18:00:17.112000,(-9 -3 2 0 2 6 19 5)
1969/12/31/18:00:17.134000,(12 -2 -18 -43 -19 -1 8 7)
1969/12/31/18:00:17.134000,(2 -1 -3 -6 -6 4 7 8)
1969/12/31/18:00:17.135000,(2 3 -4 -24 -8 5 7 1)
1969/12/31/18:00:17.135000,(7 5 12 36 16 1 -7 -1)
1969/12/31/18:00:17.149000,(-15 -3 5 -50 -5 1 -5 -7)
1969/12/31/18:00:17.149000,(-8 -4 10 51 11 2 0 -5)
1969/12/31/18:00:17.149000,(13 9 12 45 14 3 3 9)
1969/12/31/18:00:17.149000,(-11 -8 -7 11 8 -6 -9 -9)
1969/12/31/18:00:17.171000,(-1 -7 -13 -23 -7 -6 -6 -1)
1969/12/31/18:00:17.171000,(-5 -5 -22 -66 -21 -7 -6 -5)
1969/12/31/18:00:17.172000,(4 3 6 -8 -7 6 8 3)
1969/12/31/18:00:17.172000,(4 7 18 42 6 3 2 2)
1969/12/31/18:00:17.194000,(-1 4 1 4 10 2 1 0)
1969/12/31/18:00:17.194000,(4 0 -6 -7 -8 -6 -5 -3)
1969/12/31/18:00:17.194000,(-5 -1 -5 0 -3 2 6 0)
1969/12/31/18:00:17.194000,(-3 1 -2 -10 -2 0 -1 -5)
1969/12/31/18:00:17.209000,(3 1 2 8 2 -3 -5 2)
1969/12/31/18:00:17.209000,(15 4 -9 -43 -24 -9 -2 3)
1969/12/31/18:00:17.209000,(-7 -8 -3 11 -1 -2 -1 -10)
1969/12/31/18:00:17.209000,(10 5 -4 -32 0 9 7 11)
1969/12/31/18:00:17.231000,(-8 -3 8 58 18 2 -6 -11)
1969/12/31/18:00:17.231000,(-2 6 14 44 26 8 4 2)
1969/12/31/18:00:17.232000,(-1 -4 -18 -54 -23 -7 -4 0)
1969/12/31/18:00:17.232000,(-1 -1 0 28 4 -2 -6 -6)
1969/12/31/18:00:17.254000,(-11 -6 12 17 -3 -2 -2 -2)
1969/12/31/18:00:17.254000,(-3 -2 5 16 13 2 -2 0)
1969/12/31/18:00:17.255000,(11 7 -2 -16 0 4 2 0)
1969/12/31/18:00:17.255000,(-14 0 -8 -18 -19 -5 -6 -7)
1969/12/31/18:00:17.269000,(20 -4 -13 -19 -5 -1 2 8)
1969/12/31/18:00:17.269000,(-2 -2 -3 -10 -3 -3 -3 -1)
1969/12/31/18:00:17.269000,(12 7 5 10 10 7 7 9)
1969/12/31/18:00:17.269000,(-25 -14 -2 -5 -5 -9 -15 -26)
1969/12/31/18:00:17.291000,(6 2 -24 -65 -16 -4 -1 6)
1969/12/31/18:00:17.291000,(-14 -7 6 12 -12 -2 -2 -8)
1969/12/31/18:00:17.292000,(2 4 22 85 36 6 4 5)
1969/12/31/18:00:17.292000,(17 8 8 18 11 6 8 12)
1969/12/31/18:00:17.314000,(-7 -3 -1 -15 -14 -1 -1 -5)
1969/12/31/18:00:17.314000,(-11 -6 -17 5 6 -5 -6 -10)
1969/12/31/18:00:17.315000,(-5 -3 7 -8 2 1 -1 1)
1969/12/31/18:00:17.315000,(-12 -8 -9 -29 -19 -9 -7 -8)
1969/12/31/18:00:17.329000,(13 7 11 43 14 0 2 2)
1969/12/31/18:00:17.329000,(-16 -4 0 -8 4 0 0 -3)
1969/12/31/18:00:17.330000,(7 3 -1 14 -1 2 -7 -9)
1969/12/31/18:00:17.330000,(-2 -2 -3 -23 2 3 7 6)
1969/12/31/18:00:17.352000,(6 -2 -22 -47 -24 -13 -9 -7)
1969/12/31/18:00:17.352000,(-2 1 3 3 -5 -2 1 5)
1969/12/31/18:00:17.352000,(5 1 -2 -27 -4 0 3 1)
1969/12/31/18:00:17.353000,(6 -4 -2 5 -8 -4 -2 4)
1969/12/31/18:00:17.374000,(-5 1 1 -3 7 3 -1 -4)
1969/12/31/18:00:17.374000,(-3 -2 12 44 0 3 4 3)
1969/12/31/18:00:17.375000,(8 8 -1 -34 13 3 5 8)
1969/12/31/18:00:17.375000,(10 5 1 32 -6 -1 -2 3)
1969/12/31/18:00:17.389000,(-2 3 29 73 11 3 0 0)
1969/12/31/18:00:17.389000,(-2 1 -3 -22 6 -4 -14 -8)
1969/12/31/18:00:17.390000,(-10 -11 -19 -44 -25 -7 5 0)
1969/12/31/18:00:17.390000,(1 0 -2 0 0 0 4 -1)
1969/12/31/18:00:17.411000,(-21 -11 -5 -2 18 7 4 -6)
1969/12/31/18:00:17.411000,(14 7 -1 3 -8 -2 -5 8)
1969/12/31/18:00:17.412000,(11 2 -6 -10 -10 -5 0 -1)
1969/12/31/18:00:17.412000,(3 3 5 -2 7 3 6 5)
1969/12/31/18:00:17.434000,(-8 -7 -15 -71 -30 -4 -3 -3)
1969/12/31/18:00:17.434000,(0 -3 -16 10 6 3 3 2)
1969/12/31/18:00:17.434000,(-7 -1 22 83 50 9 -3 -1)
1969/12/31/18:00:17.434000,(3 2 2 5 -34 -3 -4 -5)
1969/12/31/18:00:17.449000,(0 1 10 11 -1 -9 -6 -4)
1969/12/31/18:00:17.449000,(-3 -4 3 -10 0 -3 -2 -7)
1969/12/31/18:00:17.449000,(-8 0 0 -1 2 4 1 0)
1969/12/31/18:00:17.449000,(14 8 6 27 25 8 4 7)
1969/12/31/18:00:17.471000,(0 -2 -17 -44 -20 -3 -3 3)
1969/12/31/18:00:17.471000,(-14 -8 -3 -8 -9 -5 0 -6)
1969/12/31/18:00:17.472000,(5 -4 5 17 -2 -2 -1 1)
1969/12/31/18:00:17.472000,(4 10 6 -1 8 3 1 9)
1969/12/31/18:00:17.502000,(-7 -8 -14 -15 -11 -9 -10 -7)
1969/12/31/18:00:17.502000,(25 11 -3 -49 -12 2 5 4)
1969/12/31/18:00:17.503000,(-23 -14 -13 1 -7 -6 -10 -17)
1969/12/31/18:00:17.503000,(1 -1 9 24 7 0 1 6)
1969/12/31/18:00:17.509000,(13 6 2 15 9 8 13 16)
1969/12/31/18:00:17.509000,(-9 2 21 55 20 6 3 1)
1969/12/31/18:00:17.509000,(2 4 10 14 3 0 -2 0)
1969/12/31/18:00:17.509000,(-2 -8 -17 -61 -8 -10 -11 -7)
1969/12/31/18:00:17.531000,(1 0 -6 7 -8 -3 3 5)
1969/12/31/18:00:17.531000,(-17 -10 -5 -1 -5 0 -1 -8)
1969/12/31/18:00:17.532000,(-10 -5 -8 -18 -15 -4 -3 2)
1969/12/31/18:00:17.532000,(-18 3 2 3 16 8 4 -11)
1969/12/31/18:00:17.554000,(-12 -15 2 14 -10 -8 -16 -16)
1969/12/31/18:00:17.554000,(18 5 -5 -45 -12 2 10 14)
1969/12/31/18:00:17.555000,(-6 5 5 15 2 1 2 -1)
1969/12/31/18:00:17.555000,(3 -10 -18 -21 4 -4 -6 -2)
1969/12/31/18:00:17.568000,(10 20 13 8 10 13 10 7)
1969/12/31/18:00:17.569000,(-34 -18 -8 -25 -19 -4 -3 -17)
1969/12/31/18:00:17.570000,(47 17 -3 19 3 5 14 34)
1969/12/31/18:00:17.570000,(-9 -2 9 20 16 0 -6 -12)
1969/12/31/18:00:17.591000,(5 6 16 39 7 2 4 3)
1969/12/31/18:00:17.591000,(-5 -1 5 23 7 -2 -3 -2)
1969/12/31/18:00:17.592000,(2 9 -12 -63 -2 1 5 1)
1969/12/31/18:00:17.592000,(7 -14 -13 -12 -22 -6 -6 -4)
1969/12/31/18:00:17.614000,(-26 -21 -2 -2 1 -7 -7 -8)
1969/12/31/18:00:17.614000,(15 21 7 29 14 8 3 -2)
1969/12/31/18:00:17.615000,(-25 -2 9 3 -2 4 6 8)
1969/12/31/18:00:17.615000,(68 30 2 10 11 20 27 40)
1969/12/31/18:00:17.629000,(-49 -31 -15 -17 -14 -23 -32 -41)
1969/12/31/18:00:17.629000,(39 15 -4 -10 -5 1 1 4)
1969/12/31/18:00:17.629000,(-3 -5 -2 -3 0 1 4 12)
1969/12/31/18:00:17.629000,(-17 -16 -2 0 -4 -4 -4 -7)
1969/12/31/18:00:17.651000,(-1 0 -1 -14 0 -2 -1 2)
1969/12/31/18:00:17.651000,(-21 -15 -12 -22 -9 -7 -4 -8)
1969/12/31/18:00:17.652000,(5 5 15 14 -4 -3 -6 -6)
1969/12/31/18:00:17.652000,(-14 -6 6 27 5 2 2 -2)
1969/12/31/18:00:17.674000,(23 11 10 35 24 14 14 18)
1969/12/31/18:00:17.674000,(-20 -6 -2 1 -2 -12 -18 -23)
1969/12/31/18:00:17.675000,(9 -2 -6 -15 8 23 27 24)
1969/12/31/18:00:17.675000,(-56 -30 0 -4 -15 -16 -25 -29)
1969/12/31/18:00:17.697000,(73 15 12 -10 14 33 45 44)
1969/12/31/18:00:17.697000,(68 78 8 1 1 2 20 57)
1969/12/31/18:00:17.698000,(-111 -103 -35 -18 -20 -24 -45 -95)
1969/12/31/18:00:17.698000,(110 108 46 2 10 11 29 75)
1969/12/31/18:00:17.713000,(-70 -36 -27 -14 -18 -26 -33 -45)
1969/12/31/18:00:17.713000,(-38 -37 2 10 11 3 0 -2)
1969/12/31/18:00:17.714000,(-15 -23 6 0 -5 -1 2 0)
1969/12/31/18:00:17.714000,(-7 -8 -19 -9 7 12 14 6)
1969/12/31/18:00:17.734000,(10 8 -10 -39 6 7 6 5)
1969/12/31/18:00:17.734000,(3 -6 26 52 -8 -4 -7 -7)
1969/12/31/18:00:17.735000,(-5 7 3 12 1 -12 -19 -24)
1969/12/31/18:00:17.735000,(-34 -31 -13 -14 -11 -9 -13 -28)
1969/12/31/18:00:17.748000,(39 46 13 35 16 9 16 29)
1969/12/31/18:00:17.748000,(-1 -25 -22 -28 0 9 6 2)
1969/12/31/18:00:17.756000,(20 20 6 10 2 1 -3 2)
1969/12/31/18:00:17.756000,(-59 -35 -7 -18 -11 -12 -11 -11)
1969/12/31/18:00:17.779000,(39 22 0 -21 -11 8 20 27)
1969/12/31/18:00:17.779000,(-13 61 21 5 13 21 11 -3)
1969/12/31/18:00:17.780000,(-13 -27 -4 8 -13 -17 -20 -35)
1969/12/31/18:00:17.780000,(61 8 8 -5 9 4 14 46)
1969/12/31/18:00:17.794000,(50 36 -10 5 -1 -10 -19 -9)
1969/12/31/18:00:17.794000,(-3 -13 -2 -8 -5 4 9 -1)
1969/12/31/18:00:17.795000,(23 12 0 1 7 3 7 20)
1969/12/31/18:00:17.795000,(-78 -22 -2 -2 -8 -8 -26 -64)
1969/12/31/18:00:17.808000,(-36 -31 5 3 -3 -3 3 2)
1969/12/31/18:00:17.808000,(-4 -14 -2 -7 -10 -18 -21 -17)
1969/12/31/18:00:17.816000,(-15 1 -9 -7 3 13 18 11)
1969/12/31/18:00:17.816000,(63 44 11 19 4 4 2 15)
1969/12/31/18:00:17.831000,(-4 -16 -1 4 -3 -3 -4 5)
1969/12/31/18:00:17.831000,(-74 -42 -14 -11 -2 -5 -21 -60)
1969/12/31/18:00:17.832000,(28 8 11 13 4 1 10 43)
1969/12/31/18:00:17.832000,(23 30 3 2 0 5 7 -5)
1969/12/31/18:00:17.854000,(-23 2 2 -8 2 1 -3 -4)
1969/12/31/18:00:17.854000,(49 2 -6 -8 -6 -1 14 39)
1969/12/31/18:00:17.855000,(-38 -28 -6 0 -7 -14 -27 -30)
1969/12/31/18:00:17.855000,(-18 -18 -4 4 2 -2 -7 -15)
1969/12/31/18:00:17.868000,(-25 -13 -2 -19 -11 0 -1 -10)
1969/12/31/18:00:17.868000,(-4 -22 -10 10 8 0 -2 -2)
1969/12/31/18:00:17.876000,(21 25 12 8 7 6 9 13)
1969/12/31/18:00:17.876000,(-19 -22 -8 -1 -1 -5 -6 -11)
1969/12/31/18:00:17.891000,(1 -1 -18 -48 -17 -8 -6 -10)
1969/12/31/18:00:17.891000,(-5 -1 -2 -11 -13 -11 -9 2)
1969/12/31/18:00:17.892000,(17 16 13 51 16 4 4 2)
1969/12/31/18:00:17.892000,(-28 -15 14 39 23 11 4 -4)
1969/12/31/18:00:17.914000,(12 15 7 18 4 0 8 15)
1969/12/31/18:00:17.914000,(22 -2 -14 -33 -11 -3 -2 4)
1969/12/31/18:00:17.915000,(-7 -1 -11 -34 -18 -15 -14 -17)
1969/12/31/18:00:17.915000,(6 21 -5 -7 -6 -4 -1 -5)
1969/12/31/18:00:17.928000,(-9 -9 9 10 3 2 2 1)
1969/12/31/18:00:17.928000,(-11 -9 -8 -5 -7 -15 -20 -20)
1969/12/31/18:00:17.936000,(-11 -5 -5 -5 3 15 15 2)
1969/12/31/18:00:17.936000,(25 5 6 3 2 -1 2 21)
1969/12/31/18:00:17.951000,(-15 -5 -6 8 9 4 -4 -20)
1969/12/31/18:00:17.951000,(14 14 4 3 4 11 17 29)
1969/12/31/18:00:17.952000,(32 18 10 2 -5 -8 -4 19)
1969/12/31/18:00:17.952000,(-63 -38 -11 -15 -12 0 0 -22)
1969/12/31/18:00:17.974000,(33 21 2 2 3 15 15 19)
1969/12/31/18:00:17.974000,(-2 0 3 11 -2 -15 -15 -4)
1969/12/31/18:00:17.975000,(-8 10 -2 -2 15 39 50 21)
1969/12/31/18:00:17.975000,(1 3 4 -1 2 -14 -18 12)
1969/12/31/18:00:17.988000,(-14 -24 -1 10 -5 -23 -41 -54)
1969/12/31/18:00:17.988000,(-24 -19 3 12 10 11 10 3)
1969/12/31/18:00:17.996000,(37 27 5 -14 -3 6 12 12)
1969/12/31/18:00:17.996000,(-21 -25 -28 -67 -26 -16 -8 -17)
1969/12/31/18:00:18.011000,(19 14 21 68 26 15 21 25)
1969/12/31/18:00:18.011000,(-10 -2 9 -4 14 -12 -19 -23)
1969/12/31/18:00:18.012000,(25 17 13 41 8 14 16 17)
1969/12/31/18:00:18.012000,(-4 -6 4 23 -9 -5 -3 -12)
1969/12/31/18:00:18.034000,(3 -10 -6 -11 10 6 7 23)
1969/12/31/18:00:18.035000,(13 -1 -17 -22 -17 -18 -17 -19)
1969/12/31/18:00:18.035000,(-50 -12 -7 -24 -2 -8 -15 -28)
1969/12/31/18:00:18.035000,(-7 -32 -17 -20 -7 3 9 38)
1969/12/31/18:00:18.048000,(-62 -23 -6 -18 -12 -4 -10 -44)
1969/12/31/18:00:18.048000,(10 1 -4 -1 -11 -19 -28 -12)
1969/12/31/18:00:18.056000,(4 7 5 -12 -11 -11 -7 14)
1969/12/31/18:00:18.056000,(14 -1 0 8 10 8 5 -11)
1969/12/31/18:00:18.071000,(11 14 11 19 8 20 32 22)
1969/12/31/18:00:18.071000,(30 3 -4 1 -2 -5 -6 26)
1969/12/31/18:00:18.072000,(-63 -37 -13 -17 -24 -37 -49 -64)
1969/12/31/18:00:18.072000,(4 8 0 11 7 6 5 -1)
1969/12/31/18:00:18.094000,(-25 -33 -2 -10 -11 -16 -19 -16)
1969/12/31/18:00:18.094000,(69 88 6 9 25 41 56 66)
1969/12/31/18:00:18.095000,(17 9 -2 7 -9 -18 -27 -16)
1969/12/31/18:00:18.095000,(11 1 22 25 24 30 27 17)
1969/12/31/18:00:18.117000,(38 29 -19 -24 -15 -23 -29 -6)
1969/12/31/18:00:18.117000,(-68 -57 -25 -71 -23 -10 -15 -37)
1969/12/31/18:00:18.118000,(-26 -21 12 49 6 2 0 -5)
1969/12/31/18:00:18.118000,(102 93 34 48 34 33 40 56)
1969/12/31/18:00:18.131000,(-56 -37 2 13 2 -20 -22 -17)
1969/12/31/18:00:18.131000,(-40 -15 5 7 0 0 -5 -27)
1969/12/31/18:00:18.132000,(31 17 -10 -36 2 13 26 30)
1969/12/31/18:00:18.132000,(-51 -47 -14 -23 -22 -24 -27 -27)
1969/12/31/18:00:18.154000,(-15 11 4 9 0 15 24 10)
1969/12/31/18:00:18.154000,(55 42 14 3 11 9 25 54)
1969/12/31/18:00:18.155000,(-49 -63 -7 -2 9 4 1 0)
1969/12/31/18:00:18.155000,(31 39 -10 5 -10 -11 -19 -25)
1969/12/31/18:00:18.177000,(-11 -2 2 -8 -6 -5 -9 2)
1969/12/31/18:00:18.177000,(-21 -27 -8 5 -9 -13 -12 -18)
1969/12/31/18:00:18.178000,(18 2 0 -16 -6 -1 -3 -2)
1969/12/31/18:00:18.178000,(-12 -24 -6 12 8 -1 4 21)
1969/12/31/18:00:18.200000,(29 22 7 2 6 11 13 15)
1969/12/31/18:00:18.200000,(7 9 7 11 -4 6 4 -4)
1969/12/31/18:00:18.201000,(-13 -6 -11 -18 -6 -8 -8 -5)
