time,.data
1969-12-31 18:00:05.774000000,(0 0 0 1 -1 0 -1 0)
1969-12-31 18:00:05.774000000,(-2 -3 -3 -2 -1 -1 -1 -1)
1969-12-31 18:00:05.776193154,(-2 -1 2 -1 0 1 -2 -1)
1969-12-31 18:00:05.776193154,(-1 0 0 0 1 0 -1 1)
1969-12-31 18:00:05.790448656,(0 0 1 0 -2 -2 -1 0)
1969-12-31 18:00:05.790448656,(0 0 -1 -1 0 -1 -1 0)
1969-12-31 18:00:05.805800736,(-1 1 -1 1 -2 -1 2 2)
1969-12-31 18:00:05.805800736,(-2 0 2 5 2 -1 -1 -1)
1969-12-31 18:00:05.815669930,(-1 -2 -5 -5 -5 -3 -4 -6)
1969-12-31 18:00:05.815669930,(2 3 5 -2 0 0 -2 -1)
1969-12-31 18:00:05.817863085,(-1 -2 -4 -4 -4 -1 1 -1)
1969-12-31 18:00:05.817863085,(0 -1 -3 -3 -1 -1 0 -1)
1969-12-31 18:00:05.840891203,(0 -1 -2 0 -1 0 1 1)
1969-12-31 18:00:05.840891203,(-3 -3 -4 -2 -1 -2 -1 -2)
1969-12-31 18:00:05.843084358,(1 1 2 -2 -1 -2 -2 -3)
1969-12-31 18:00:05.843084358,(-3 -6 -9 -9 -2 -2 0 0)
1969-12-31 18:00:05.865015900,(0 1 2 0 -1 0 -2 1)
1969-12-31 18:00:05.865015900,(-3 -2 0 0 1 -2 -4 -3)
1969-12-31 18:00:05.866112477,(0 2 -5 -3 -1 -3 0 -1)
1969-12-31 18:00:05.866112477,(-2 2 12 10 3 0 -1 -1)
1969-12-31 18:00:05.881464557,(0 2 2 2 1 0 2 0)
1969-12-31 18:00:05.881464557,(2 1 -3 -6 -1 -1 -2 -1)
1969-12-31 18:00:05.882561134,(-5 -6 1 0 -5 -8 -2 -4)
1969-12-31 18:00:05.882561134,(2 2 -2 3 4 1 2 2)
1969-12-31 18:00:05.905589253,(-2 -5 -9 -6 -1 3 2 1)
1969-12-31 18:00:05.905589253,(-1 1 3 -2 -6 -7 -8 -11)
1969-12-31 18:00:05.907782407,(-2 -5 -9 2 1 1 3 1)
1969-12-31 18:00:05.907782407,(-1 -1 4 3 -1 -2 1 1)
1969-12-31 18:00:05.920941333,(1 3 6 3 -2 -2 -2 -3)
1969-12-31 18:00:05.920941333,(-4 -9 -19 -15 -3 4 4 5)
1969-12-31 18:00:05.930810527,(3 5 6 -2 -3 -3 -2 -2)
1969-12-31 18:00:05.930810527,(-4 -1 5 3 -6 -4 -2 -4)
1969-12-31 18:00:05.947259184,(-1 -1 -10 1 10 2 4 3)
1969-12-31 18:00:05.947259184,(1 4 26 21 4 -2 -2 -5)
1969-12-31 18:00:05.949452338,(-1 -3 -8 2 7 5 9 13)
1969-12-31 18:00:05.949452338,(0 -8 -21 -25 -10 -8 -2 -2)
1969-12-31 18:00:05.970287303,(-2 -3 -7 -3 -2 -6 5 3)
1969-12-31 18:00:05.971383880,(2 3 -8 -2 0 -3 2 4)
1969-12-31 18:00:05.997701731,(1 2 15 4 2 -2 0 1)
1969-12-31 18:00:05.997701731,(1 4 -1 5 4 3 0 -2)
1969-12-31 18:00:05.998798308,(0 -4 -11 -16 -6 1 -4 0)
1969-12-31 18:00:05.998798308,(-4 -6 5 0 -3 6 1 0)
1969-12-31 18:00:05.999894885,(3 3 8 7 -6 2 -14 -11)
1969-12-31 18:00:05.999894885,(-3 -2 -7 -6 -4 6 -6 -4)
1969-12-31 18:00:06.011957233,(0 3 21 9 -3 4 -4 -2)
1969-12-31 18:00:06.011957233,(-2 0 4 5 -1 5 1 2)
1969-12-31 18:00:06.019633273,(-1 -7 -7 -10 -5 2 1 4)
1969-12-31 18:00:06.019633273,(0 -3 -8 -8 -3 -4 -5 -2)
1969-12-31 18:00:06.037178507,(0 3 14 9 -4 -7 -5 -2)
1969-12-31 18:00:06.037178507,(-1 -6 -8 -3 7 8 2 -1)
1969-12-31 18:00:06.039371660,(-6 4 1 0 -1 -4 -2 -5)
1969-12-31 18:00:06.039371660,(1 -1 9 2 0 0 -4 -7)
1969-12-31 18:00:06.052530587,(-3 -1 -5 -5 -2 -3 -3 -5)
1969-12-31 18:00:06.052530587,(-1 0 -6 -1 -3 -7 4 9)
1969-12-31 18:00:06.062399781,(-1 -2 -15 -3 6 -3 -2 -3)
1969-12-31 18:00:06.062399781,(-1 1 -7 -4 2 0 10 6)
1969-12-31 18:00:06.078848437,(-6 -2 -7 -3 -2 -10 2 0)
1969-12-31 18:00:06.078848437,(-1 -1 -5 -2 -1 -8 -1 -1)
1969-12-31 18:00:06.079945014,(-3 -4 -4 -5 1 -2 2 0)
1969-12-31 18:00:06.079945014,(-1 2 6 2 -3 -4 -5 -4)
1969-12-31 18:00:06.104069711,(4 0 4 5 3 7 0 -1)
1969-12-31 18:00:06.104069711,(-2 -2 -3 -6 -10 -7 -17 -13)
1969-12-31 18:00:06.105166288,(-1 -3 5 -2 -5 4 -6 -6)
1969-12-31 18:00:06.105166288,(-2 -1 3 2 -2 2 -4 -2)
1969-12-31 18:00:06.118325213,(0 -3 -1 2 -1 1 -4 -3)
1969-12-31 18:00:06.118325213,(0 -6 -4 -2 -2 3 3 3)
1969-12-31 18:00:06.128194407,(-4 3 1 -2 -1 0 -1 -4)
1969-12-31 18:00:06.128194407,(0 1 6 6 1 0 -1 -1)
1969-12-31 18:00:06.145739641,(0 -2 -5 -4 -2 0 4 3)
1969-12-31 18:00:06.145739641,(-1 0 -1 0 0 -1 0 -2)
1969-12-31 18:00:06.146836218,(1 -6 -9 -4 -3 -6 -1 -2)
1969-12-31 18:00:06.146836218,(7 -15 -23 -9 -1 -2 6 8)
1969-12-31 18:00:06.168767761,(-11 5 6 -4 -3 -6 4 -1)
1969-12-31 18:00:06.168767761,(13 14 3 4 8 -2 -10 -7)
1969-12-31 18:00:06.170960915,(-11 10 24 9 3 1 0 -2)
1969-12-31 18:00:06.170960915,(-8 -14 -4 -5 -6 -1 6 7)
1969-12-31 18:00:06.184119840,(0 -9 -5 2 0 0 -8 -6)
1969-12-31 18:00:06.184119840,(6 1 -3 -1 -2 1 3 12)
1969-12-31 18:00:06.193989034,(-1 -12 -15 -8 -5 -1 -3 -3)
1969-12-31 18:00:06.193989034,(7 12 0 3 1 -2 -9 -6)
1969-12-31 18:00:06.210437691,(-2 -1 -3 -1 1 0 4 1)
1969-12-31 18:00:06.210437691,(-4 -1 -1 -3 0 -6 4 7)
1969-12-31 18:00:06.212630845,(9 4 -9 -4 1 -1 11 11)
1969-12-31 18:00:06.212630845,(-3 -6 0 0 1 -2 5 -9)
1969-12-31 18:00:06.234562387,(0 4 -4 -4 -2 -3 0 -3)
1969-12-31 18:00:06.234562387,(-29 -8 -3 0 -1 -3 2 -14)
1969-12-31 18:00:06.236755542,(-21 -11 -8 -4 -3 -12 -10 -8)
1969-12-31 18:00:06.236755542,(41 17 -1 -2 3 -5 10 33)
1969-12-31 18:00:06.249914467,(16 8 1 3 7 0 11 -4)
1969-12-31 18:00:06.249914467,(-54 -24 -6 -7 -4 -4 -7 -12)
1969-12-31 18:00:06.259783661,(22 13 13 3 -2 10 0 -5)
1969-12-31 18:00:06.259783661,(-10 3 16 6 -3 10 -16 -1)
1969-12-31 18:00:06.276232318,(6 -13 4 -3 -12 5 -21 -29)
1969-12-31 18:00:06.276232318,(-5 0 10 4 -6 9 -5 3)
1969-12-31 18:00:06.278425472,(-24 -13 2 1 -4 4 -9 -13)
1969-12-31 18:00:06.278425472,(31 18 10 2 1 7 3 18)
1969-12-31 18:00:06.301453591,(-24 -4 3 2 1 -1 -12 -25)
1969-12-31 18:00:06.301453591,(8 -1 -5 -4 -2 -1 -1 -5)
1969-12-31 18:00:06.302550168,(32 19 3 1 2 7 17 23)
1969-12-31 18:00:06.303646745,(-18 -3 -3 0 0 -5 -2 -12)
1969-12-31 18:00:06.315709094,(3 1 1 3 2 1 5 46)
1969-12-31 18:00:06.315709094,(-49 -33 -14 -8 -1 5 -3 -36)
1969-12-31 18:00:06.325578288,(45 17 4 4 4 -3 8 37)
1969-12-31 18:00:06.325578288,(-10 11 1 1 -2 -27 -10 -29)
1969-12-31 18:00:06.342026944,(-31 -13 -7 0 7 33 24 -17)
1969-12-31 18:00:06.342026944,(6 -11 -12 -11 -4 4 -49 -25)
1969-12-31 18:00:06.344220099,(-11 -5 0 -2 -2 -20 -3 8)
1969-12-31 18:00:06.344220099,(-12 -1 -1 -1 -2 -24 -12 -23)
1969-12-31 18:00:06.366151641,(12 -2 -1 1 12 48 11 40)
1969-12-31 18:00:06.366151641,(40 20 2 1 -6 -63 6 29)
1969-12-31 18:00:06.368344795,(-30 -28 -7 -3 -8 19 8 -23)
1969-12-31 18:00:06.368344795,(-16 7 -4 -8 -9 -56 -32 -20)
1969-12-31 18:00:06.381503721,(-26 -22 -4 -4 -5 -9 -1 -19)
1969-12-31 18:00:06.381503721,(27 21 6 1 7 65 23 -11)
1969-12-31 18:00:06.391372915,(32 16 7 10 10 15 18 37)
1969-12-31 18:00:06.391372915,(-39 -33 -15 -11 -10 -4 17 6)
1969-12-31 18:00:06.407821571,(20 4 -2 -3 -2 -18 -2 33)
1969-12-31 18:00:06.407821571,(-8 8 6 2 -4 -29 -17 -41)
1969-12-31 18:00:06.410014725,(10 -1 -2 2 4 19 19 13)
1969-12-31 18:00:06.410014725,(59 34 16 13 16 57 27 41)
1969-12-31 18:00:06.433042845,(-18 -22 -21 -14 -18 -69 -18 -28)
1969-12-31 18:00:06.433042845,(8 14 10 6 2 -31 12 14)
1969-12-31 18:00:06.434139422,(11 19 -3 0 6 39 5 10)
1969-12-31 18:00:06.434139422,(-11 -22 -9 -9 -12 -9 -21 -22)
1969-12-31 18:00:06.447298347,(-5 -5 -4 1 10 95 7 22)
1969-12-31 18:00:06.447298347,(3 -2 3 5 -6 -74 8 -1)
1969-12-31 18:00:06.457167541,(-13 3 -6 -8 -5 23 -10 -16)
1969-12-31 18:00:06.457167541,(-47 -23 -10 -4 -9 -36 -49 -72)
1969-12-31 18:00:06.473616198,(29 24 10 0 -7 -36 -16 28)
1969-12-31 18:00:06.473616198,(-10 -10 -9 -6 -10 -2 7 -2)
1969-12-31 18:00:06.475809352,(-19 -7 2 3 15 51 21 -28)
1969-12-31 18:00:06.475809352,(53 24 15 12 0 -21 20 70)
1969-12-31 18:00:06.497740894,(5 0 -6 -3 0 1 20 13)
1969-12-31 18:00:06.497740894,(39 1 -1 -4 3 41 -12 -4)
1969-12-31 18:00:06.499934049,(-15 -6 4 6 -1 -32 8 -5)
1969-12-31 18:00:06.499934049,(-26 -17 -9 -6 -1 4 -14 -33)
1969-12-31 18:00:06.513092974,(40 23 7 5 14 28 19 53)
1969-12-31 18:00:06.513092974,(1 -7 -2 1 -4 -4 17 53)
1969-12-31 18:00:06.522962168,(37 12 3 3 1 -29 -20 13)
1969-12-31 18:00:06.522962168,(-53 -38 -8 -7 -3 54 23 -20)
1969-12-31 18:00:06.538314248,(-20 17 -1 -3 0 16 -46 -60)
1969-12-31 18:00:06.538314248,(-6 10 9 8 14 24 -6 -48)
1969-12-31 18:00:06.554762904,(-65 -31 -20 -18 -26 -61 -42 -108)
1969-12-31 18:00:06.554762904,(7 5 -1 -3 2 -7 -11 23)
1969-12-31 18:00:06.563535521,(10 11 11 5 3 12 36 3)
1969-12-31 18:00:06.563535521,(0 -1 -5 -8 -11 3 -56 -4)
1969-12-31 18:00:06.565728675,(19 6 -2 3 0 -27 -31 -7)
1969-12-31 18:00:06.565728675,(-10 2 1 -1 -2 5 1 -24)
1969-12-31 18:00:06.588756795,(-30 -32 -14 -14 -16 -24 -2 -29)
1969-12-31 18:00:06.588756795,(19 15 4 -3 -2 -69 -3 36)
1969-12-31 18:00:06.590949949,(-11 -13 -3 5 17 76 3 4)
1969-12-31 18:00:06.590949949,(-35 -18 -3 5 4 -8 11 9)
1969-12-31 18:00:06.604108874,(40 36 6 4 -2 -31 7 6)
1969-12-31 18:00:06.604108874,(-11 -12 -11 -9 -10 -13 -9 -12)
1969-12-31 18:00:06.611784914,(14 11 6 0 8 37 -3 38)
1969-12-31 18:00:06.611784914,(-8 0 3 1 2 28 29 6)
1969-12-31 18:00:06.631523302,(-20 -12 1 2 3 43 1 -7)
1969-12-31 18:00:06.631523302,(-9 -2 1 1 -2 -27 -18 -10)
1969-12-31 18:00:06.633716456,(-13 9 -4 -5 -3 -8 14 47)
1969-12-31 18:00:06.633716456,(24 -1 -1 -2 -1 -9 3 45)
1969-12-31 18:00:06.646875382,(4 -5 2 1 -9 -39 -20 0)
1969-12-31 18:00:06.646875382,(-39 -12 -17 -14 -7 89 33 -13)
1969-12-31 18:00:06.649068536,(-12 -10 1 -1 -10 -69 -20 -2)
1969-12-31 18:00:06.649068536,(11 5 0 0 7 15 -39 -13)
1969-12-31 18:00:06.661130884,(-8 -9 -7 -8 -13 -32 -6 -26)
1969-12-31 18:00:06.661130884,(7 5 2 4 14 35 1 -1)
1969-12-31 18:00:06.671000078,(5 -3 1 -1 -9 -31 26 31)
1969-12-31 18:00:06.671000078,(-13 -9 -7 -6 -7 -5 -18 -20)
1969-12-31 18:00:06.686352158,(18 16 5 3 8 5 0 32)
1969-12-31 18:00:06.686352158,(-2 -21 -1 1 11 29 59 13)
1969-12-31 18:00:06.696221352,(-2 -12 -7 -7 -13 1 -21 -36)
1969-12-31 18:00:06.696221352,(-9 -4 -6 -8 -2 27 37 0)
1969-12-31 18:00:06.712670009,(23 9 8 7 -1 -11 -11 4)
1969-12-31 18:00:06.712670009,(-2 -4 -1 -11 -3 30 3 12)
1969-12-31 18:00:06.713766586,(-3 -1 1 7 14 16 15 1)
1969-12-31 18:00:06.713766586,(-39 3 10 17 3 -82 -65 -67)
1969-12-31 18:00:06.726925511,(-11 -18 -12 -7 -8 -43 63 32)
1969-12-31 18:00:06.726925511,(21 16 -1 1 -28 -68 -59 -31)
1969-12-31 18:00:06.743374168,(-39 -12 -6 -7 17 43 -14 -47)
1969-12-31 18:00:06.743374168,(20 10 4 3 -6 14 9 6)
1969-12-31 18:00:06.752146785,(-8 -5 -4 -5 -5 0 -25 -22)
1969-12-31 18:00:06.752146785,(6 -1 7 18 49 -13 12 18)
1969-12-31 18:00:06.762015979,(20 11 4 -1 -17 -7 38 25)
1969-12-31 18:00:06.762015979,(10 6 -6 -11 -27 -27 -9 18)
1969-12-31 18:00:06.778464635,(-24 -13 1 3 19 -4 -35 -24)
1969-12-31 18:00:06.778464635,(-4 -9 -3 -3 -83 -31 6 10)
1969-12-31 18:00:06.779561213,(3 2 -3 -9 -3 -19 -21 -11)
1969-12-31 18:00:06.779561213,(18 7 -1 -12 -40 8 22 15)
1969-12-31 18:00:06.792720138,(-9 1 -3 -6 8 18 -34 -48)
1969-12-31 18:00:06.792720138,(3 11 3 12 62 42 -14 19)
1969-12-31 18:00:06.802589332,(-11 -21 -9 4 25 -30 2 3)
1969-12-31 18:00:06.802589332,(14 0 -3 4 39 38 23 7)
1969-12-31 18:00:06.817941411,(1 6 5 17 26 -20 14 7)
1969-12-31 18:00:06.817941411,(7 2 3 9 13 5 -18 -4)
1969-12-31 18:00:06.827810605,(-7 -4 -6 -19 -101 -87 -16 -21)
1969-12-31 18:00:06.827810605,(13 5 1 -12 -56 -60 -18 17)
1969-12-31 18:00:06.843162685,(-9 -6 -5 -10 -10 13 -11 -21)
1969-12-31 18:00:06.843162685,(-4 0 6 5 22 19 16 23)
1969-12-31 18:00:06.849742148,(2 3 -1 -1 71 89 4 -3)
1969-12-31 18:00:06.850838725,(8 4 2 11 -30 -4 18 10)
1969-12-31 18:00:06.858514765,(0 -3 -3 -13 -46 -39 -15 7)
1969-12-31 18:00:06.858514765,(-12 -9 -11 -16 4 16 8 -38)
1969-12-31 18:00:06.868383959,(2 -7 7 10 42 42 15 24)
1969-12-31 18:00:06.868383959,(-2 -7 1 26 72 25 15 4)
1969-12-31 18:00:06.882639461,(1 -1 -2 4 3 13 1 15)
1969-12-31 18:00:06.882639461,(36 15 -35 -38 -87 -50 2 25)
1969-12-31 18:00:06.892508655,(-14 -16 12 -2 13 -4 -9 -10)
1969-12-31 18:00:06.892508655,(-6 20 42 26 39 18 7 9)
1969-12-31 18:00:06.908957312,(7 10 10 16 -7 9 -5 -15)
1969-12-31 18:00:06.908957312,(7 -6 -13 -4 17 19 0 12)
1969-12-31 18:00:06.911150466,(19 -7 -68 -18 -3 -11 8 2)
1969-12-31 18:00:06.911150466,(1 35 81 26 3 31 15 22)
1969-12-31 18:00:06.924309391,(-54 -3 32 -3 -26 -37 -8 -22)
1969-12-31 18:00:06.924309391,(-5 10 14 2 -1 8 12 5)
1969-12-31 18:00:06.934178585,(30 7 -23 0 -12 -28 -21 -20)
1969-12-31 18:00:06.934178585,(14 -66 -91 -32 15 10 -1 -9)
1969-12-31 18:00:06.949530665,(37 37 14 3 21 32 16 27)
1969-12-31 18:00:06.949530665,(-20 60 74 28 -17 -4 5 16)
1969-12-31 18:00:06.958303282,(-27 -2 27 3 -20 -35 -22 -45)
1969-12-31 18:00:06.959399859,(-19 -6 0 -4 10 10 -8 4)
1969-12-31 18:00:06.974751939,(37 -58 -105 -25 5 19 8 -12)
1969-12-31 18:00:06.974751939,(-20 -64 10 5 36 7 32 28)
1969-12-31 18:00:06.976945093,(8 43 9 -2 -46 -19 8 22)
1969-12-31 18:00:06.976945093,(7 2 -8 -18 -38 -35 -58 -92)
1969-12-31 18:00:06.990104018,(39 -30 -41 -8 1 1 19 84)
1969-12-31 18:00:06.990104018,(-53 40 41 32 71 41 22 4)
1969-12-31 18:00:06.999973212,(48 44 25 -2 -83 -56 -7 32)
1969-12-31 18:00:06.999973212,(-14 6 -2 -25 -22 0 5 4)
1969-12-31 18:00:07.015325292,(8 -22 -36 -4 36 11 -20 -33)
1969-12-31 18:00:07.015325292,(7 -102 -95 -25 1 37 24 17)
1969-12-31 18:00:07.025194486,(-68 32 46 4 -32 -46 -45 -26)
1969-12-31 18:00:07.025194486,(28 9 -36 -14 -3 -16 -1 -49)
1969-12-31 18:00:07.041643142,(-60 107 127 51 7 -3 -7 -21)
1969-12-31 18:00:07.041643142,(50 30 29 24 36 30 -7 -10)
1969-12-31 18:00:07.042739720,(-17 -117 -94 -22 10 25 25 5)
1969-12-31 18:00:07.042739720,(-4 -53 -102 -63 -42 -26 24 9)
1969-12-31 18:00:07.056995222,(-51 38 82 27 22 22 -42 -26)
1969-12-31 18:00:07.056995222,(-15 26 18 8 -20 -34 -23 -34)
1969-12-31 18:00:07.065767839,(-14 -47 -8 14 43 19 -2 -21)
1969-12-31 18:00:07.065767839,(40 87 43 20 33 28 -9 5)
1969-12-31 18:00:07.080023341,(-30 -48 -30 -15 -75 -61 27 -6)
1969-12-31 18:00:07.081119919,(36 -64 -50 -39 -76 -67 -16 18)
1969-12-31 18:00:07.090989113,(5 -14 -14 -3 62 49 -4 63)
1969-12-31 18:00:07.090989113,(-50 -2 20 10 5 21 31 -2)
1969-12-31 18:00:07.107437769,(19 86 18 15 37 14 -10 -47)
1969-12-31 18:00:07.107437769,(10 20 11 -33 -93 -85 -21 -3)
1969-12-31 18:00:07.108534346,(25 -44 -86 -33 28 20 19 -25)
1969-12-31 18:00:07.108534346,(-65 80 107 64 32 -3 -22 -65)
1969-12-31 18:00:07.121693272,(37 -12 -49 -2 28 33 5 -6)
1969-12-31 18:00:07.121693272,(-18 -13 -31 -4 12 2 12 -20)
1969-12-31 18:00:07.131562466,(-2 -98 -72 -17 3 32 28 19)
1969-12-31 18:00:07.131562466,(-24 75 11 2 -7 7 52 127)
1969-12-31 18:00:07.146914545,(72 87 80 33 36 26 -5 15)
1969-12-31 18:00:07.146914545,(-40 -52 -43 -7 -9 -3 -31 -101)
1969-12-31 18:00:07.156783739,(4 29 64 23 -6 -44 -15 0)
1969-12-31 18:00:07.156783739,(59 -102 -82 -32 -20 30 -4 20)
1969-12-31 18:00:07.172135819,(-55 -10 -29 -35 -51 -47 37 10)
1969-12-31 18:00:07.173232396,(21 88 47 8 1 2 -61 -3)
1969-12-31 18:00:07.174328973,(13 37 63 22 -5 32 0 -13)
1969-12-31 18:00:07.174328973,(7 -87 -56 -11 35 -19 -20 -5)
1969-12-31 18:00:07.187487898,(-22 -89 -12 -8 10 6 31 23)
1969-12-31 18:00:07.187487898,(2 39 -27 -15 -3 37 42 41)
1969-12-31 18:00:07.197357093,(-41 -11 49 14 -32 -36 -34 -27)
1969-12-31 18:00:07.197357093,(-12 21 14 -1 -3 -18 -25 -32)
1969-12-31 18:00:07.212709172,(12 22 -10 -9 32 43 -1 -10)
1969-12-31 18:00:07.212709172,(32 4 -1 24 20 -24 8 27)
1969-12-31 18:00:07.222578366,(23 -17 -18 -12 -17 11 25 52)
1969-12-31 18:00:07.222578366,(6 -55 -46 -13 49 59 8 -3)
1969-12-31 18:00:07.237930446,(-30 1 36 18 -39 -53 -11 20)
1969-12-31 18:00:07.237930446,(29 10 25 16 3 23 19 42)
1969-12-31 18:00:07.240123600,(-21 42 -31 -41 -26 -24 -38 -74)
1969-12-31 18:00:07.240123600,(22 -65 -22 1 19 -28 0 1)
1969-12-31 18:00:07.253282525,(-12 20 2 19 55 64 9 -19)
1969-12-31 18:00:07.254379102,(-2 -40 -46 -33 -78 -76 -20 27)
1969-12-31 18:00:07.271924336,(-4 91 84 13 -13 -14 -15 -16)
1969-12-31 18:00:07.271924336,(24 56 29 13 24 37 0 10)
1969-12-31 18:00:07.278503799,(32 -82 -103 -42 13 -5 24 49)
1969-12-31 18:00:07.278503799,(-56 98 92 41 3 -5 -26 -62)
1969-12-31 18:00:07.286179838,(12 -27 -59 2 36 26 22 23)
1969-12-31 18:00:07.286179838,(-1 12 65 32 -44 -39 -7 20)
1969-12-31 18:00:07.303725071,(18 -38 -21 -5 -6 18 30 12)
1969-12-31 18:00:07.303725071,(-3 -73 -46 -3 81 58 -8 7)
1969-12-31 18:00:07.305918227,(5 7 -50 -23 -69 -68 -40 -58)
1969-12-31 18:00:07.305918227,(-36 71 92 12 -2 5 -16 -45)
1969-12-31 18:00:07.319077152,(3 -41 -39 -15 -16 -3 -38 -13)
1969-12-31 18:00:07.319077152,(9 -16 -17 -9 2 -8 15 -15)
1969-12-31 18:00:07.328946346,(7 45 69 36 44 36 1 46)
1969-12-31 18:00:07.328946346,(8 -71 -52 -29 -52 -29 47 47)
1969-12-31 18:00:07.344298426,(-36 7 -9 -32 -75 -45 -36 -4)
1969-12-31 18:00:07.344298426,(-5 97 44 11 39 14 1 -29)
1969-12-31 18:00:07.351974465,(-19 -47 14 19 60 29 -12 -7)
1969-12-31 18:00:07.351974465,(43 51 -38 8 30 32 25 59)
1969-12-31 18:00:07.369519699,(-22 -26 27 -4 -36 -11 11 -18)
1969-12-31 18:00:07.369519699,(-1 -33 -9 2 8 31 5 -15)
1969-12-31 18:00:07.385968356,(-6 -61 -30 -3 -4 -21 1 0)
1969-12-31 18:00:07.385968356,(-17 25 -17 -14 -18 -21 -25 -48)
1969-12-31 18:00:07.387064933,(5 63 42 22 19 0 7 4)
1969-12-31 18:00:07.387064933,(37 -35 -21 -3 10 -14 -18 -1)
1969-12-31 18:00:07.394740973,(-7 -50 -21 10 30 23 27 30)
1969-12-31 18:00:07.394740973,(3 -7 -11 -19 -32 -15 -14 -5)
1969-12-31 18:00:07.418865669,(3 -11 -28 -26 -36 -10 27 2)
1969-12-31 18:00:07.418865669,(-20 -28 6 14 32 15 -14 -11)
1969-12-31 18:00:07.421058824,(13 61 -9 -7 -19 -6 5 4)
1969-12-31 18:00:07.421058824,(13 27 20 25 72 77 44 19)
1969-12-31 18:00:07.435314326,(-39 27 45 3 -82 -89 -72 -63)
1969-12-31 18:00:07.435314326,(7 18 20 0 -9 10 9 7)
1969-12-31 18:00:07.442990366,(35 -90 -55 0 69 28 0 14)
1969-12-31 18:00:07.442990366,(-35 61 24 21 -17 -10 1 -28)
1969-12-31 18:00:07.460535600,(47 72 60 -1 -37 -27 -28 13)
1969-12-31 18:00:07.460535600,(-6 -23 -33 -2 20 18 27 26)
1969-12-31 18:00:07.461632177,(-38 -37 -10 -16 -28 -18 -2 -20)
1969-12-31 18:00:07.461632177,(25 -49 -30 -27 -29 -23 -13 42)
1969-12-31 18:00:07.475887679,(-41 -67 -57 6 74 45 16 -24)
1969-12-31 18:00:07.475887679,(-8 -6 6 -9 -25 -18 4 22)
1969-12-31 18:00:07.491239759,(21 80 29 22 26 32 33 12)
1969-12-31 18:00:07.492336336,(-17 -118 -87 -62 -99 -85 -3 21)
1969-12-31 18:00:07.501108953,(15 82 79 51 59 19 -16 -26)
1969-12-31 18:00:07.501108953,(-13 71 36 14 15 13 -9 -36)
1969-12-31 18:00:07.508784993,(-29 -1 -1 2 9 17 5 -8)
1969-12-31 18:00:07.508784993,(-10 22 67 24 5 4 47 47)
1969-12-31 18:00:07.527426803,(-6 -34 -49 -18 -24 -55 -30 -16)
1969-12-31 18:00:07.527426803,(18 -41 -31 -21 -27 17 3 28)
1969-12-31 18:00:07.529619958,(-19 68 46 5 -41 -35 -25 -29)
1969-12-31 18:00:07.529619958,(-6 -21 17 30 45 27 -11 -22)
1969-12-31 18:00:07.541682306,(34 -27 -30 -12 9 18 20 40)
1969-12-31 18:00:07.541682306,(-13 57 53 15 -6 -21 -22 19)
1969-12-31 18:00:07.557034386,(26 -46 -46 -31 -46 -23 26 70)
1969-12-31 18:00:07.557034386,(-9 -9 -10 -6 28 9 -63 -80)
1969-12-31 18:00:07.566903580,(-17 -30 -15 9 38 29 20 -13)
1969-12-31 18:00:07.566903580,(16 -84 -94 -37 -20 17 17 20)
1969-12-31 18:00:07.574579619,(-7 35 45 5 -7 -13 12 9)
1969-12-31 18:00:07.574579619,(10 76 52 34 2 -11 17 33)
1969-12-31 18:00:07.592124853,(17 -57 -38 -14 -7 -9 -17 -19)
1969-12-31 18:00:07.592124853,(31 38 28 5 12 32 14 25)
1969-12-31 18:00:07.594318007,(-47 80 96 55 42 38 25 11)
1969-12-31 18:00:07.594318007,(-12 -49 -31 -13 -13 -36 -60 -45)
1969-12-31 18:00:07.616249550,(-9 -4 4 -13 -39 -13 23 -5)
1969-12-31 18:00:07.616249550,(9 -47 -37 -18 -11 -15 -24 -3)
1969-12-31 18:00:07.623925589,(28 -8 -53 -7 57 59 33 -3)
1969-12-31 18:00:07.623925589,(-22 12 46 35 56 30 29 32)
1969-12-31 18:00:07.641470823,(-34 -6 -6 -13 -51 -33 -42 -23)
1969-12-31 18:00:07.641470823,(-4 -8 -4 -3 -9 -42 7 7)
1969-12-31 18:00:07.643663977,(-6 -13 -14 -25 -40 -1 -17 4)
1969-12-31 18:00:07.643663977,(15 -36 -58 -21 -37 -31 2 -19)
1969-12-31 18:00:07.665595520,(1 -34 -12 -2 55 62 20 46)
1969-12-31 18:00:07.665595520,(-57 42 72 35 -1 -17 -4 -45)
1969-12-31 18:00:07.667788674,(15 5 22 4 -13 -26 -40 -18)
1969-12-31 18:00:07.667788674,(20 -19 -68 -33 0 22 11 4)
1969-12-31 18:00:07.682044176,(47 51 25 15 27 -3 -11 60)
1969-12-31 18:00:07.682044176,(-23 -6 12 19 -7 0 20 31)
1969-12-31 18:00:07.688623639,(16 20 16 -8 -22 -19 0 -15)
1969-12-31 18:00:07.689720216,(-46 17 67 0 -11 -4 -20 -37)
1969-12-31 18:00:07.707265450,(8 -70 -81 -27 35 50 50 35)
1969-12-31 18:00:07.707265450,(32 38 -21 10 26 24 7 20)
1969-12-31 18:00:07.709458604,(16 -10 -13 -15 -33 -26 -14 16)
1969-12-31 18:00:07.709458604,(19 23 20 8 -21 -57 9 32)
1969-12-31 18:00:07.731390146,(8 71 95 77 16 18 32 74)
1969-12-31 18:00:07.731390146,(-13 -40 -41 -46 -64 -39 -20 -19)
1969-12-31 18:00:07.733583301,(-30 -43 -54 -19 28 45 21 -13)
1969-12-31 18:00:07.733583301,(25 12 -20 -15 -11 -18 -39 -11)
1969-12-31 18:00:07.747838803,(-16 -57 -38 -14 12 12 40 14)
1969-12-31 18:00:07.747838803,(16 -5 -15 -4 2 -6 -18 -22)
1969-12-31 18:00:07.750031957,(-4 7 19 -9 -42 -33 -20 -51)
1969-12-31 18:00:07.750031957,(-42 -25 -6 5 40 59 30 6)
1969-12-31 18:00:07.773060077,(16 1 -23 -17 -27 -32 8 -7)
1969-12-31 18:00:07.773060077,(-14 -28 -41 -26 -31 1 21 -9)
1969-12-31 18:00:07.775253231,(13 -3 6 27 78 -6 -37 9)
1969-12-31 18:00:07.775253231,(7 39 54 28 4 21 17 2)
1969-12-31 18:00:07.797184773,(24 74 57 32 33 36 -8 -14)
1969-12-31 18:00:07.797184773,(11 -47 -56 -26 -29 -24 44 1)
1969-12-31 18:00:07.799377927,(-46 -12 28 -6 -34 -14 -22 -36)
1969-12-31 18:00:07.799377927,(-30 -89 -108 -34 39 39 -12 -36)
1969-12-31 18:00:07.822406047,(-48 47 58 10 -86 -74 -39 -38)
1969-12-31 18:00:07.822406047,(-20 15 28 0 -1 -6 -34 -47)
1969-12-31 18:00:07.824599201,(31 27 -12 0 -9 -17 27 27)
1969-12-31 18:00:07.824599201,(8 -62 -27 7 68 73 4 4)
1969-12-31 18:00:07.838854704,(10 8 -31 -37 -35 -29 5 -23)
1969-12-31 18:00:07.838854704,(-11 46 65 20 -4 -7 -6 14)
1969-12-31 18:00:07.839951281,(-22 -28 -13 2 9 11 12 -2)
1969-12-31 18:00:07.839951281,(42 30 7 -7 -37 -9 0 6)
1969-12-31 18:00:07.864075977,(23 3 -3 -5 31 30 14 38)
1969-12-31 18:00:07.864075977,(33 29 38 40 47 8 -20 -34)
1969-12-31 18:00:07.866269131,(-28 -25 -32 -25 -23 0 37 -30)
1969-12-31 18:00:07.866269131,(-3 1 2 -20 -94 -73 -55 -1)
1969-12-31 18:00:07.879428057,(-2 -4 2 45 89 19 -8 -14)
1969-12-31 18:00:07.879428057,(26 -31 -54 -25 -9 -2 -43 -5)
1969-12-31 18:00:07.886007519,(6 11 28 51 83 76 17 5)
1969-12-31 18:00:07.886007519,(5 108 84 2 -102 -112 -14 -12)
1969-12-31 18:00:07.904649330,(46 -18 -10 -18 -27 8 15 48)
1969-12-31 18:00:07.904649330,(-37 -7 4 -14 10 9 5 2)
1969-12-31 18:00:07.905745907,(-5 -19 -30 -12 1 -5 -36 -31)
1969-12-31 18:00:07.905745907,(-23 -57 -35 -4 30 26 8 -11)
1969-12-31 18:00:07.928774027,(4 19 13 -6 -35 -21 -27 -7)
1969-12-31 18:00:07.928774027,(22 -12 -6 14 37 45 70 90)
1969-12-31 18:00:07.930967181,(45 31 8 6 12 11 24 56)
1969-12-31 18:00:07.930967181,(-19 -10 -4 1 -17 -25 -36 -3)
1969-12-31 18:00:07.953995300,(-74 -73 -52 -52 -52 -65 -70 -76)
1969-12-31 18:00:07.953995300,(4 -21 -23 -27 8 0 -3 -9)
1969-12-31 18:00:07.955091877,(5 6 -5 -26 -69 -49 -3 6)
1969-12-31 18:00:07.956188455,(35 20 6 15 19 40 37 27)
1969-12-31 18:00:07.970443957,(-3 2 -10 18 26 29 20 12)
1969-12-31 18:00:07.970443957,(-10 11 20 16 10 -7 -21 -21)
1969-12-31 18:00:07.971540534,(-2 -3 15 20 10 7 6 31)
1969-12-31 18:00:07.972637111,(24 45 28 10 25 19 23 16)
1969-12-31 18:00:07.994568654,(-30 -36 -14 -14 -15 -2 -32 -40)
1969-12-31 18:00:07.994568654,(4 10 -3 -6 -13 -17 8 -5)
1969-12-31 18:00:07.996761808,(5 -22 -21 -24 -15 -5 -13 -18)
1969-12-31 18:00:07.996761808,(-31 -39 -40 -6 71 75 42 38)
1969-12-31 18:00:08.011017310,(46 21 1 6 -50 -48 -9 44)
1969-12-31 18:00:08.011017310,(8 32 35 -1 -9 -16 -39 24)
1969-12-31 18:00:08.017596773,(-32 -28 -3 4 22 -8 -9 -18)
1969-12-31 18:00:08.017596773,(45 18 4 3 -8 -21 -10 -1)
1969-12-31 18:00:08.036238584,(-10 -12 -24 -34 6 43 33 17)
1969-12-31 18:00:08.036238584,(24 4 -14 -4 9 10 19 14)
1969-12-31 18:00:08.037335160,(-25 -3 31 19 -24 -18 -12 -5)
1969-12-31 18:00:08.037335160,(5 9 11 16 22 12 -2 -19)
1969-12-31 18:00:08.060363280,(-28 12 10 20 25 13 -7 -47)
1969-12-31 18:00:08.060363280,(-30 -19 11 8 -24 -24 2 -22)
1969-12-31 18:00:08.062556435,(38 43 8 -10 -1 -7 -24 -10)
1969-12-31 18:00:08.062556435,(-29 -93 -49 -26 -16 -14 -42 -31)
1969-12-31 18:00:08.076811937,(44 48 6 -7 -7 -14 -2 -8)
1969-12-31 18:00:08.076811937,(-26 -6 11 21 75 56 21 20)
1969-12-31 18:00:08.084487977,(29 22 21 13 -45 -13 11 14)
1969-12-31 18:00:08.084487977,(-7 -16 -22 -33 -46 -47 -19 -26)
1969-12-31 18:00:08.102033211,(-21 -29 -12 14 6 -17 -19 -29)
1969-12-31 18:00:08.102033211,(-24 -7 2 8 2 -22 -15 -25)
1969-12-31 18:00:08.103129788,(3 15 -1 -6 -10 -21 -13 -7)
1969-12-31 18:00:08.103129788,(4 7 -3 -8 -32 -5 13 16)
1969-12-31 18:00:08.126157907,(-26 14 22 -6 -1 -4 10 0)
1969-12-31 18:00:08.126157907,(40 -22 -36 -35 -22 2 -15 -8)
1969-12-31 18:00:08.128351061,(-39 -33 -6 5 12 6 -1 -1)
1969-12-31 18:00:08.128351061,(8 30 17 11 7 6 6 -7)
1969-12-31 18:00:08.141509987,(-13 -20 2 16 45 33 24 20)
1969-12-31 18:00:08.141509987,(-49 -37 -13 16 -1 2 8 -13)
1969-12-31 18:00:08.151379181,(2 9 -5 -3 -18 -4 -3 6)
1969-12-31 18:00:08.151379181,(0 70 63 17 10 4 -5 -5)
1969-12-31 18:00:08.167827837,(3 -2 0 0 7 18 17 32)
1969-12-31 18:00:08.167827837,(40 -10 -19 -16 -22 -14 -11 -3)
1969-12-31 18:00:08.170020992,(-13 -30 -38 -26 -8 0 4 20)
1969-12-31 18:00:08.170020992,(-10 -15 -10 4 35 15 -8 -22)
1969-12-31 18:00:08.191952534,(1 4 3 15 47 42 42 8)
1969-12-31 18:00:08.191952534,(-19 4 -1 -13 -96 -97 -60 -26)
1969-12-31 18:00:08.194145688,(-25 -7 3 -17 -13 -9 2 -13)
1969-12-31 18:00:08.194145688,(11 1 -4 0 -6 -10 7 19)
1969-12-31 18:00:08.207304613,(15 -6 -8 -23 1 23 -7 2)
1969-12-31 18:00:08.207304613,(-49 -20 -1 19 65 54 26 -9)
1969-12-31 18:00:08.217173807,(30 26 13 35 17 5 8 14)
1969-12-31 18:00:08.217173807,(43 28 15 6 -5 -4 -4 2)
1969-12-31 18:00:08.233622464,(-78 -29 -5 -10 -20 -15 -20 -30)
1969-12-31 18:00:08.233622464,(-8 -2 11 11 5 10 18 9)
1969-12-31 18:00:08.234719041,(19 9 -12 -6 -5 -2 -6 8)
1969-12-31 18:00:08.234719041,(16 15 4 -4 16 9 13 17)
1969-12-31 18:00:08.257747161,(-2 -3 4 -5 -25 -22 14 -28)
1969-12-31 18:00:08.257747161,(0 11 0 -6 -16 -10 -23 -19)
1969-12-31 18:00:08.259940315,(-1 9 -3 -5 32 26 16 -32)
1969-12-31 18:00:08.259940315,(-35 -39 -12 7 -5 -6 -23 1)
1969-12-31 18:00:08.273099240,(42 24 -5 -7 -17 -1 2 8)
1969-12-31 18:00:08.273099240,(-14 -7 6 11 4 -14 29 17)
1969-12-31 18:00:08.282968434,(24 -19 0 -21 -79 -71 -77 -28)
1969-12-31 18:00:08.282968434,(-27 11 3 -1 10 15 29 -2)
1969-12-31 18:00:08.299417091,(21 14 -9 -7 -13 -13 -20 -6)
1969-12-31 18:00:08.299417091,(-50 -63 -14 -3 27 37 -2 -12)
1969-12-31 18:00:08.301610245,(15 47 15 -15 0 13 18 23)
1969-12-31 18:00:08.301610245,(-22 -41 -5 30 11 -7 9 8)
1969-12-31 18:00:08.323541787,(18 5 5 7 5 4 -23 -9)
1969-12-31 18:00:08.323541787,(52 44 13 7 26 22 36 44)
1969-12-31 18:00:08.325734942,(37 15 -1 16 4 10 15 15)
1969-12-31 18:00:08.325734942,(-91 -53 -29 -37 -31 -28 -51 -70)
1969-12-31 18:00:08.338893867,(-2 -14 -9 -1 1 -6 7 -2)
1969-12-31 18:00:08.338893867,(26 23 11 -3 -8 -11 -6 3)
1969-12-31 18:00:08.348763061,(44 17 9 -9 -16 25 8 48)
1969-12-31 18:00:08.348763061,(-22 11 6 21 24 -4 32 -14)
1969-12-31 18:00:08.365211718,(21 -12 -5 -22 -29 -11 -19 -1)
1969-12-31 18:00:08.365211718,(-38 -11 -9 -22 -14 11 35 10)
1969-12-31 18:00:08.367404872,(10 6 2 38 49 -18 -39 -23)
1969-12-31 18:00:08.367404872,(-28 -5 -1 11 10 -3 -2 -13)
1969-12-31 18:00:08.389336414,(-47 -13 1 -11 0 -5 -2 2)
1969-12-31 18:00:08.389336414,(15 8 12 8 -18 3 6 7)
1969-12-31 18:00:08.391529568,(-98 -34 -22 -18 -10 -29 32 -48)
1969-12-31 18:00:08.391529568,(16 3 1 26 30 58 -46 -3)
1969-12-31 18:00:08.404688494,(-42 -10 3 1 -9 -29 -9 -31)
1969-12-31 18:00:08.404688494,(50 55 4 -4 2 14 -8 17)
1969-12-31 18:00:08.414557688,(-102 -63 -4 -3 14 15 -4 -42)
1969-12-31 18:00:08.414557688,(74 5 -14 -24 -35 -25 0 -3)
1969-12-31 18:00:08.431006344,(67 42 22 20 24 38 54 72)
1969-12-31 18:00:08.431006344,(-63 -36 -22 -11 -9 -15 -54 -89)
1969-12-31 18:00:08.432102922,(38 11 2 -1 5 15 34 60)
1969-12-31 18:00:08.432102922,(-54 -27 -4 -17 -14 -15 10 -18)
1969-12-31 18:00:08.455131041,(84 45 -1 8 10 10 5 32)
1969-12-31 18:00:08.455131041,(-20 -17 7 13 11 -3 15 17)
1969-12-31 18:00:08.457324195,(10 11 0 -2 -6 -10 -16 -29)
1969-12-31 18:00:08.457324195,(-35 -23 -14 -16 -8 3 6 -3)
1969-12-31 18:00:08.470483121,(20 -3 3 8 4 -2 -3 22)
1969-12-31 18:00:08.470483121,(-49 -23 -18 -14 -21 -25 -32 -81)
1969-12-31 18:00:08.480352315,(16 2 2 -7 1 3 -12 10)
1969-12-31 18:00:08.480352315,(90 51 23 12 11 22 35 78)
1969-12-31 18:00:08.496800971,(-78 -39 -18 -8 -10 -21 -40 -115)
1969-12-31 18:00:08.496800971,(12 10 5 0 4 1 -6 -14)
1969-12-31 18:00:08.497897548,(10 -1 3 1 2 4 4 4)
1969-12-31 18:00:08.497897548,(5 10 3 -2 -5 -7 3 -3)
1969-12-31 18:00:08.520925668,(14 2 4 1 0 -1 2 22)
1969-12-31 18:00:08.520925668,(-2 -8 -6 -2 -2 0 -1 22)
1969-12-31 18:00:08.523118822,(10 8 -5 -8 -1 0 1 3)
1969-12-31 18:00:08.523118822,(19 18 7 -5 -7 -7 2 16)
1969-12-31 18:00:08.536277747,(-38 -27 2 9 6 3 -7 -3)
1969-12-31 18:00:08.536277747,(23 5 1 2 3 5 19 34)
1969-12-31 18:00:08.546146941,(5 10 5 6 7 2 -14 0)
1969-12-31 18:00:08.546146941,(-4 8 -5 -7 -5 -6 -5 -1)
1969-12-31 18:00:08.562595598,(28 0 -10 -7 -3 -1 2 21)
1969-12-31 18:00:08.562595598,(-15 -10 5 3 2 5 12 18)
1969-12-31 18:00:08.564788752,(-9 1 3 7 -1 -2 2 -6)
1969-12-31 18:00:08.564788752,(10 -4 -4 -5 -4 -2 0 11)
1969-12-31 18:00:08.586720295,(-10 -5 -5 0 0 -1 -5 0)
1969-12-31 18:00:08.586720295,(24 11 1 -1 1 1 16 27)
1969-12-31 18:00:08.588913449,(-12 -10 -3 -4 -4 -3 -5 1)
1969-12-31 18:00:08.588913449,(-6 2 2 2 0 1 -2 -15)
1969-12-31 18:00:08.602072374,(-5 -9 -8 -7 -3 -3 4 8)
1969-12-31 18:00:08.602072374,(16 16 6 3 4 7 15 6)
1969-12-31 18:00:08.611941568,(-5 -12 -6 -6 -5 -5 -13 6)
1969-12-31 18:00:08.611941568,(5 12 1 2 0 -4 0 -12)
1969-12-31 18:00:08.627293648,(-10 -5 -1 -3 -5 -6 -14 -12)
1969-12-31 18:00:08.627293648,(9 -7 0 3 1 6 1 -2)
1969-12-31 18:00:08.634969687,(-3 5 0 1 3 1 1 -4)
1969-12-31 18:00:08.634969687,(-2 -9 -12 -11 -9 -10 -17 -2)
1969-12-31 18:00:08.652514921,(-21 -16 0 -1 2 2 -1 -25)
1969-12-31 18:00:08.652514921,(-7 14 3 -2 1 0 -1 -1)
1969-12-31 18:00:08.654708076,(17 11 3 7 7 1 -3 0)
1969-12-31 18:00:08.654708076,(4 -7 1 2 -2 0 2 -9)
1969-12-31 18:00:08.677736195,(-13 2 -2 4 3 0 2 6)
1969-12-31 18:00:08.677736195,(12 11 16 7 1 0 -4 -1)
1969-12-31 18:00:08.678832772,(-4 -7 -10 -8 -5 -3 7 5)
1969-12-31 18:00:08.678832772,(-1 -1 0 -7 -2 2 -2 6)
1969-12-31 18:00:08.693088274,(1 -5 -10 -8 -6 -3 8 2)
1969-12-31 18:00:08.693088274,(9 0 -12 -4 0 0 -12 6)
1969-12-31 18:00:08.700764314,(-16 1 14 6 2 -1 0 -5)
1969-12-31 18:00:08.700764314,(6 3 -2 0 0 5 14 12)
1969-12-31 18:00:08.718309548,(4 -16 -12 -2 -3 -5 -9 1)
1969-12-31 18:00:08.718309548,(-8 26 36 14 3 -2 1 -14)
1969-12-31 18:00:08.720502702,(2 -20 -24 -9 -3 1 15 10)
1969-12-31 18:00:08.720502702,(1 24 33 10 4 3 -4 1)
1969-12-31 18:00:08.743530822,(-3 -7 -13 -9 -5 -6 3 6)
1969-12-31 18:00:08.743530822,(6 -19 -25 -9 -3 0 4 8)
1969-12-31 18:00:08.745723976,(-6 0 6 3 -1 -6 -15 -15)
1969-12-31 18:00:08.745723976,(3 0 -15 -4 0 -1 15 10)
1969-12-31 18:00:08.758882901,(-12 2 24 10 4 7 -11 -7)
1969-12-31 18:00:08.758882901,(1 0 -10 -5 -2 -2 -4 -2)
1969-12-31 18:00:08.774234981,(6 -9 -3 -2 1 10 23 17)
1969-12-31 18:00:08.774234981,(-2 -29 -34 -13 -6 -3 -6 -2)
1969-12-31 18:00:08.784104175,(-7 41 41 8 -1 -9 -4 -10)
1969-12-31 18:00:08.784104175,(13 -8 -11 1 0 -4 -7 -1)
1969-12-31 18:00:08.786297329,(-8 14 0 -4 0 3 -14 -11)
1969-12-31 18:00:08.786297329,(-5 -41 -29 -5 -1 -2 6 4)
1969-12-31 18:00:08.810422026,(-4 33 46 14 5 -2 -22 -9)
1969-12-31 18:00:08.810422026,(6 1 -1 3 -3 -4 10 5)
1969-12-31 18:00:08.812615180,(12 -5 -20 -10 -7 -7 -4 -1)
1969-12-31 18:00:08.812615180,(-6 4 9 4 1 4 -5 -1)
1969-12-31 18:00:08.824677528,(-4 -21 -20 -11 -4 -2 10 7)
1969-12-31 18:00:08.824677528,(7 3 -4 -5 1 6 -2 4)
1969-12-31 18:00:08.832353568,(0 24 27 16 3 -4 -3 -3)
1969-12-31 18:00:08.832353568,(0 11 -4 -2 1 -1 1 -3)
1969-12-31 18:00:08.849898802,(-2 -16 -12 -3 -2 0 -4 -1)
1969-12-31 18:00:08.849898802,(-19 -18 -6 -6 -2 -4 -4 -9)
1969-12-31 18:00:08.852091956,(11 -14 -38 -20 -4 2 -2 4)
1969-12-31 18:00:08.852091956,(-11 7 37 20 7 5 3 -2)
1969-12-31 18:00:08.875120075,(-4 -49 -33 -11 -7 2 6 4)
1969-12-31 18:00:08.875120075,(-2 3 -35 -19 -7 -6 4 1)
1969-12-31 18:00:08.876216652,(-17 36 21 15 5 0 -11 -12)
1969-12-31 18:00:08.877313229,(6 -17 -11 -3 -2 3 4 1)
1969-12-31 18:00:08.889375578,(25 36 12 -3 -1 -2 -9 5)
1969-12-31 18:00:08.889375578,(-22 -10 31 33 12 14 23 4)
1969-12-31 18:00:08.898148195,(-13 -22 6 -5 -2 0 -1 -3)
1969-12-31 18:00:08.898148195,(-2 15 3 -3 -2 -5 -9 -4)
1969-12-31 18:00:08.915693428,(-5 -41 -41 -15 -7 -5 -6 -5)
1969-12-31 18:00:08.915693428,(3 -22 -41 -38 -15 -5 -9 -6)
1969-12-31 18:00:08.916790005,(-2 58 62 23 6 1 3 -4)
1969-12-31 18:00:08.916790005,(10 -1 -1 11 4 2 -10 2)
1969-12-31 18:00:08.939818125,(6 12 1 -2 -1 6 6 2)
1969-12-31 18:00:08.939818125,(-16 -39 -34 -17 -9 -5 -21 -12)
1969-12-31 18:00:08.948590742,(36 35 25 21 7 8 2 7)
1969-12-31 18:00:08.948590742,(7 -16 7 2 -1 1 -1 0)
1969-12-31 18:00:08.955170204,(13 21 -42 -26 -13 -1 -9 -2)
1969-12-31 18:00:08.955170204,(4 40 61 44 16 9 -7 -6)
1969-12-31 18:00:08.963942821,(-12 -61 -26 -15 -6 -1 6 1)
1969-12-31 18:00:08.963942821,(-1 -8 -48 -24 -8 -14 2 0)
1969-12-31 18:00:08.980391478,(-5 9 5 19 9 -2 19 9)
1969-12-31 18:00:08.980391478,(-8 -1 -11 -14 -6 -20 9 14)
1969-12-31 18:00:08.981488055,(-4 -23 -47 -21 -3 -21 7 6)
1969-12-31 18:00:08.981488055,(0 2 -3 -1 0 -15 5 7)
1969-12-31 18:00:09.005612752,(-13 -9 -3 -3 2 -4 2 -2)
1969-12-31 18:00:09.005612752,(1 -22 -7 -8 -5 -3 -1 1)
1969-12-31 18:00:09.006709329,(-2 36 13 -5 -4 1 -5 -6)
1969-12-31 18:00:09.006709329,(-2 -13 9 -4 -3 1 -15 -10)
1969-12-31 18:00:09.020964831,(-11 -17 4 5 -1 5 -9 -8)
1969-12-31 18:00:09.020964831,(0 -14 -18 -6 -3 4 -5 1)
1969-12-31 18:00:09.029737447,(0 -31 -10 1 -2 2 -1 -1)
1969-12-31 18:00:09.029737447,(-9 7 8 -2 -4 2 -3 -4)
1969-12-31 18:00:09.048379259,(11 31 24 14 4 2 0 -1)
1969-12-31 18:00:09.048379259,(-1 -22 -4 0 -1 -2 1 0)
1969-12-31 18:00:09.049475836,(-9 -14 -8 -10 -2 -2 0 0)
1969-12-31 18:00:09.049475836,(3 23 10 0 -2 -3 -1 1)
1969-12-31 18:00:09.071407378,(-8 -22 -4 -2 4 0 4 1)
1969-12-31 18:00:09.071407378,(9 25 8 0 -1 -3 -2 2)
1969-12-31 18:00:09.072503956,(-1 -4 -3 0 0 -1 0 0)
1969-12-31 18:00:09.072503956,(-5 8 14 8 1 -1 -2 -3)
1969-12-31 18:00:09.086759458,(-3 -11 -14 -14 -5 -1 -5 -3)
1969-12-31 18:00:09.086759458,(7 30 20 7 -2 2 -4 -3)
1969-12-31 18:00:09.095532075,(8 13 5 12 3 3 1 0)
1969-12-31 18:00:09.095532075,(-5 -19 -12 -5 -3 3 2 0)
1969-12-31 18:00:09.113077309,(-1 -2 12 -1 -2 0 1 -3)
1969-12-31 18:00:09.113077309,(8 19 4 2 2 2 -6 -3)
1969-12-31 18:00:09.114173886,(-8 -5 15 4 -3 1 -5 -7)
1969-12-31 18:00:09.114173886,(-2 -3 -4 -1 -2 2 -4 -3)
1969-12-31 18:00:09.137202005,(-1 4 1 -4 -5 -1 -6 -5)
1969-12-31 18:00:09.137202005,(5 10 20 12 4 4 -2 -2)
1969-12-31 18:00:09.138298582,(0 -14 -13 -10 -6 0 -3 -1)
1969-12-31 18:00:09.138298582,(-2 2 -3 -5 -2 1 -4 -5)
1969-12-31 18:00:09.152554085,(-3 -19 8 9 3 3 -4 -3)
1969-12-31 18:00:09.152554085,(3 7 4 -1 -3 0 -2 1)
1969-12-31 18:00:09.161326702,(-7 -13 -16 -10 -2 -2 0 -3)
1969-12-31 18:00:09.161326702,(5 25 9 9 4 0 6 6)
1969-12-31 18:00:09.186547975,(-2 -1 -12 -1 -1 -5 6 3)
1969-12-31 18:00:09.186547975,(-3 -11 -11 -5 1 -7 3 1)
1969-12-31 18:00:09.195320592,(-4 0 -6 -5 0 -8 5 2)
1969-12-31 18:00:09.195320592,(-1 5 4 -4 0 -8 4 3)
1969-12-31 18:00:09.202996632,(-3 -13 -5 -3 1 -6 -2 0)
1969-12-31 18:00:09.202996632,(2 15 15 4 1 0 -3 -1)
1969-12-31 18:00:09.204093209,(1 3 7 3 -2 5 0 -1)
1969-12-31 18:00:09.204093209,(-5 -10 -3 -5 -3 3 -10 -9)
1969-12-31 18:00:09.218348712,(4 18 11 5 0 5 -2 -1)
1969-12-31 18:00:09.218348712,(-9 -26 -17 -6 -2 0 -1 -3)
1969-12-31 18:00:09.228217906,(4 17 8 4 -1 -2 -2 -4)
1969-12-31 18:00:09.228217906,(-3 -4 -7 -1 -2 -3 -2 -4)
1969-12-31 18:00:09.244666562,(-2 -23 -6 -5 -5 -2 -2 -3)
1969-12-31 18:00:09.244666562,(6 59 30 13 3 -1 -2 -2)
1969-12-31 18:00:09.244666562,(0 -2 -5 0 1 3 0 4)
1969-12-31 18:00:09.245763139,(-3 -7 -8 -8 -3 -1 1 1)
1969-12-31 18:00:09.268791259,(-2 3 3 1 -1 -1 -1 -2)
1969-12-31 18:00:09.268791259,(-4 -24 -9 -6 -1 -2 0 0)
1969-12-31 18:00:09.269887836,(-4 -6 0 1 0 -1 0 0)
1969-12-31 18:00:09.269887836,(3 17 10 6 0 -1 0 0)
1969-12-31 18:00:09.295109108,(0 -5 -7 -3 0 0 0 1)
1969-12-31 18:00:09.295109108,(-1 -4 5 2 1 -2 1 0)
1969-12-31 18:00:09.296205687,(0 1 1 1 1 -2 -1 1)
1969-12-31 18:00:09.296205687,(-3 -13 -4 -6 -5 -2 -3 -1)
1969-12-31 18:00:09.310461188,(2 10 2 -1 -2 -3 -2 0)
1969-12-31 18:00:09.310461188,(0 -4 -1 1 0 -2 -1 -2)
1969-12-31 18:00:09.311557766,(-6 -9 -7 -5 -1 0 0 -2)
1969-12-31 18:00:09.311557766,(-3 -5 -3 -4 1 1 2 0)
1969-12-31 18:00:09.334585885,(1 9 9 5 2 0 0 0)
1969-12-31 18:00:09.334585885,(1 2 -3 0 -2 -1 -1 0)
1969-12-31 18:00:09.335682463,(-4 -11 -3 -2 -1 -1 -2 -2)
1969-12-31 18:00:09.335682463,(-2 -5 -13 -12 -8 -3 -2 0)
1969-12-31 18:00:09.351034542,(2 15 14 6 1 0 0 -2)
1969-12-31 18:00:09.351034542,(-4 -4 3 -2 -1 -1 0 0)
1969-12-31 18:00:09.359807159,(1 1 -2 1 0 -1 0 0)
1969-12-31 18:00:09.359807159,(-3 -7 -2 2 3 0 -2 0)
1969-12-31 18:00:09.375159239,(0 0 -6 -5 -3 -1 -1 -1)
1969-12-31 18:00:09.376255816,(-2 -7 -6 -3 -1 0 0 0)
1969-12-31 18:00:09.376255816,(-1 -3 5 5 0 -1 -1 0)
1969-12-31 18:00:09.376255816,(-1 5 8 3 1 -2 -2 -4)
1969-12-31 18:00:09.401477089,(-2 -5 -6 -4 -2 -2 -2 -2)
1969-12-31 18:00:09.401477089,(-2 -3 -1 -2 0 -1 -3 -3)
1969-12-31 18:00:09.402573666,(-3 -6 -6 -4 -3 -2 -1 0)
1969-12-31 18:00:09.402573666,(0 -3 -1 0 0 3 4 4)
1969-12-31 18:00:09.426698363,(2 1 2 3 2 -1 -2 -2)
1969-12-31 18:00:09.426698363,(-2 -7 -8 -4 -3 -1 -1 -4)
1969-12-31 18:00:09.427794940,(0 1 -1 -2 -2 -1 -1 -2)
1969-12-31 18:00:09.427794940,(-3 -5 -7 -7 -3 -4 -1 -4)
1969-12-31 18:00:09.435470980,(-1 0 2 5 3 2 2 0)
1969-12-31 18:00:09.435470980,(-3 -4 -7 -3 0 3 -1 0)
1969-12-31 18:00:09.440953865,(0 -1 -2 0 -1 0 -1 0)
1969-12-31 18:00:09.440953865,(1 3 2 3 -1 -3 -1 -2)
1969-12-31 18:00:09.457402522,(-3 1 -2 -2 -2 -1 -1 -1)
1969-12-31 18:00:09.457402522,(1 -3 -2 -1 0 -4 -1 -2)
1969-12-31 18:00:09.466175139,(0 -3 -2 0 1 0 -1 1)
1969-12-31 18:00:09.466175139,(-3 -5 -1 0 -1 -1 0 -2)
1969-12-31 18:00:09.484816950,(0 -1 -9 -8 -3 -4 -1 1)
1969-12-31 18:00:09.484816950,(-1 1 10 9 3 0 3 -2)
1969-12-31 18:00:09.485913527,(-1 -7 -1 -3 -2 1 1 -2)
1969-12-31 18:00:09.485913527,(0 9 6 5 1 0 -2 1)
1969-12-31 18:00:09.497975875,(-4 -5 -4 -2 -3 0 0 -1)
1969-12-31 18:00:09.497975875,(-1 0 -5 -3 -2 -3 -1 -1)
1969-12-31 18:00:09.506748492,(-1 -1 -2 -2 -3 -4 -2 -2)
1969-12-31 18:00:09.506748492,(2 -2 3 5 4 3 1 0)
1969-12-31 18:00:09.523197149,(-2 -1 -6 -3 -2 -5 0 1)
1969-12-31 18:00:09.523197149,(-1 -3 -2 -5 -1 -2 -3 0)
1969-12-31 18:00:09.540742383,(-2 0 0 2 0 -2 -1 -1)
1969-12-31 18:00:09.540742383,(-2 -4 -4 -3 0 0 1 -1)
1969-12-31 18:00:09.542935537,(0 0 1 4 2 1 -1 0)
1969-12-31 18:00:09.542935537,(-1 -2 -3 -2 -1 0 -3 -3)
1969-12-31 18:00:09.548418422,(-1 -1 -4 -6 -2 -2 -2 -2)
1969-12-31 18:00:09.548418422,(1 3 5 2 1 -1 -2 -1)
1969-12-31 18:00:09.563770502,(-1 -1 0 -2 -2 0 -2 -3)
1969-12-31 18:00:09.564867079,(-2 -4 -1 -1 -4 -3 -4 -2)
1969-12-31 18:00:09.572543119,(0 2 0 1 0 2 -2 0)
1969-12-31 18:00:09.572543119,(-1 -2 1 0 -3 0 0 0)
1969-12-31 18:00:09.588991776,(-3 -3 -5 -1 1 -5 -3 -4)
1969-12-31 18:00:09.588991776,(0 -1 -4 -3 -2 -2 -1 1)
1969-12-31 18:00:09.596667815,(-2 1 -5 -5 -5 -2 0 0)
1969-12-31 18:00:09.596667815,(1 -1 6 7 1 2 1 2)
1969-12-31 18:00:09.622985666,(-2 5 0 -2 -2 2 -1 -3)
1969-12-31 18:00:09.622985666,(-3 -5 -3 -2 -3 0 -1 -2)
1969-12-31 18:00:09.624082243,(-2 -1 -1 -1 -1 -2 -1 -1)
1969-12-31 18:00:09.624082243,(-1 0 1 -1 -4 -4 -2 0)
1969-12-31 18:00:09.629565129,(0 -1 1 -2 -1 0 1 1)
1969-12-31 18:00:09.629565129,(1 1 1 -1 0 -2 0 -1)
1969-12-31 18:00:09.638337746,(2 3 0 -2 -1 0 -1 -3)
1969-12-31 18:00:09.638337746,(-2 -5 -5 -2 -2 -2 -1 -1)
1969-12-31 18:00:09.638337746,(-1 -1 -3 -2 0 -1 -1 -2)
1969-12-31 18:00:09.638337746,(-2 -2 -4 -3 -3 -2 0 -1)
1969-12-31 18:00:09.639434323,(-2 -3 -4 -7 -2 -2 -1 -3)
1969-12-31 18:00:09.639434323,(-1 1 1 3 -1 -1 1 0)
1969-12-31 18:00:09.672331636,(0 0 -1 -1 -1 -1 0 -2)
1969-12-31 18:00:09.672331636,(0 1 1 -1 -2 -2 -1 0)
1969-12-31 18:00:09.672331636,(-1 -1 0 2 0 0 1 -1)
1969-12-31 18:00:09.672331636,(1 -2 -2 -3 -1 0 -2 -1)
1969-12-31 18:00:09.688780293,(-3 -2 -4 -5 -2 -1 -3 -2)
1969-12-31 18:00:09.688780293,(-3 -1 -2 -2 0 0 -2 -2)
1969-12-31 18:00:09.689876870,(0 -2 -2 -4 -2 -1 -1 -1)
1969-12-31 18:00:09.689876870,(-2 -3 -1 1 -1 -3 -1 -2)
1969-12-31 18:00:09.704132373,(2 4 1 1 0 0 1 3)
1969-12-31 18:00:09.705228950,(-1 -2 1 -1 -2 0 -4 -2)
1969-12-31 18:00:09.705228950,(-3 0 -2 2 -1 -1 0 -1)
1969-12-31 18:00:09.705228950,(-1 -4 -3 -6 -3 -2 -1 -3)
1969-12-31 18:00:09.729353646,(0 0 1 4 -1 0 0 -2)
1969-12-31 18:00:09.729353646,(-2 -3 -3 -2 -1 -2 0 1)
1969-12-31 18:00:09.730450223,(-1 1 -1 0 -1 0 -2 -2)
1969-12-31 18:00:09.730450223,(-2 -5 -14 -12 -4 -1 -2 -2)
1969-12-31 18:00:09.754574920,(1 2 11 4 -2 0 -2 -1)
1969-12-31 18:00:09.754574920,(2 0 6 11 6 3 -1 -2)
1969-12-31 18:00:09.755671497,(-3 -4 -5 -8 -2 -1 -1 0)
1969-12-31 18:00:09.755671497,(-1 1 -5 3 0 -1 -1 1)
1969-12-31 18:00:09.769926999,(-1 0 10 -1 -3 -1 -2 0)
1969-12-31 18:00:09.769926999,(1 2 0 1 -3 -7 -2 -1)
1969-12-31 18:00:09.771023576,(-1 -5 -8 -5 -1 9 -1 -4)
1969-12-31 18:00:09.771023576,(-1 -2 -3 -3 2 -1 -1 -2)
1969-12-31 18:00:09.795148273,(-2 -2 -11 -5 0 5 1 2)
1969-12-31 18:00:09.795148273,(-2 -6 -5 -6 -4 -7 5 -2)
1969-12-31 18:00:09.796244850,(4 7 10 5 1 -4 -7 1)
1969-12-31 18:00:09.796244850,(-2 -2 -1 -3 -1 -7 -2 -1)
1969-12-31 18:00:09.820369546,(-5 -7 -9 -1 0 -6 -11 -11)
1969-12-31 18:00:09.820369546,(2 7 8 -1 1 -1 3 1)
1969-12-31 18:00:09.821466124,(0 -3 -7 -3 -1 0 3 3)
1969-12-31 18:00:09.821466124,(-8 -2 5 4 -2 2 -1 -6)
1969-12-31 18:00:09.853266860,(4 2 4 5 2 0 8 19)
1969-12-31 18:00:09.853266860,(1 -4 -16 -9 -5 -2 -9 -14)
1969-12-31 18:00:09.854363437,(-2 0 7 0 -4 -6 -6 -8)
1969-12-31 18:00:09.854363437,(0 1 3 1 1 1 4 16)
1969-12-31 18:00:09.860942900,(-6 -3 -6 -7 -3 -5 -6 -31)
1969-12-31 18:00:09.860942900,(4 -1 1 1 3 5 6 17)
1969-12-31 18:00:09.862039477,(-8 -3 -5 -4 -3 -2 -7 -16)
1969-12-31 18:00:09.862039477,(3 -23 -28 -17 -5 0 1 5)
1969-12-31 18:00:09.886164173,(6 25 24 11 2 -1 1 10)
1969-12-31 18:00:09.886164173,(0 8 20 16 5 8 2 3)
1969-12-31 18:00:09.887260750,(2 -3 -4 2 -1 -7 -10 -19)
1969-12-31 18:00:09.887260750,(-5 -20 -16 -5 -1 3 -1 -6)
1969-12-31 18:00:09.900419676,(-6 -13 -23 -16 -8 -3 -2 4)
1969-12-31 18:00:09.900419676,(-6 -8 -7 -3 -3 0 -5 -5)
1969-12-31 18:00:09.909192293,(7 22 24 10 7 4 7 9)
1969-12-31 18:00:09.909192293,(4 2 6 5 2 -1 -3 0)
1969-12-31 18:00:09.926737526,(-3 -15 -20 -7 -3 -1 -3 -1)
1969-12-31 18:00:09.926737526,(-4 4 7 0 -3 -5 -5 -6)
1969-12-31 18:00:09.927834104,(-4 -7 5 3 -2 -1 5 6)
1969-12-31 18:00:09.927834104,(0 4 3 3 2 0 -1 -3)
1969-12-31 18:00:09.959634840,(-5 -9 -8 -2 0 4 3 -4)
1969-12-31 18:00:09.959634840,(3 -2 -6 -5 -3 -1 3 7)
1969-12-31 18:00:09.960731417,(0 -3 -17 -10 -3 -6 -1 -1)
1969-12-31 18:00:09.960731417,(5 7 9 4 1 -2 1 1)
1969-12-31 18:00:09.966214302,(-5 -7 -1 2 1 -5 1 -1)
1969-12-31 18:00:09.966214302,(1 0 -17 -9 0 -2 3 5)
1969-12-31 18:00:09.976083497,(-2 0 -3 -1 0 -4 4 7)
1969-12-31 18:00:09.976083497,(-1 7 16 4 1 -3 1 -1)
1969-12-31 18:00:09.991435576,(2 8 -6 -2 1 -4 2 4)
1969-12-31 18:00:09.991435576,(-2 -5 -10 -3 -5 -5 0 -3)
1969-12-31 18:00:09.992532153,(-2 5 6 4 2 -1 4 6)
1969-12-31 18:00:09.992532153,(-1 4 3 -1 0 -2 -4 -6)
1969-12-31 18:00:10.017753427,(-3 -17 -7 -4 -1 1 -2 1)
1969-12-31 18:00:10.017753427,(-1 -1 -2 -2 -2 0 -5 -5)
1969-12-31 18:00:10.018850004,(2 2 -8 -2 -3 2 -2 5)
1969-12-31 18:00:10.018850004,(-6 2 5 2 -2 3 -5 -7)
1969-12-31 18:00:10.033105506,(-5 -11 -1 -1 -2 2 -2 -1)
1969-12-31 18:00:10.033105506,(2 20 17 6 1 1 -13 -14)
1969-12-31 18:00:10.041878123,(-1 -13 6 2 -2 3 2 12)
1969-12-31 18:00:10.041878123,(0 13 8 0 -4 0 3 6)
1969-12-31 18:00:10.058326780,(6 2 -7 -3 2 -1 -3 -8)
1969-12-31 18:00:10.058326780,(-9 -8 16 3 0 1 3 5)
1969-12-31 18:00:10.059423357,(1 -3 -10 -4 -1 -1 -5 -13)
1969-12-31 18:00:10.059423357,(8 4 -1 -1 -3 -3 4 12)
1969-12-31 18:00:10.083548054,(-26 -6 3 0 -3 -3 -6 -18)
1969-12-31 18:00:10.083548054,(-5 -9 -7 -5 -2 0 0 -3)
1969-12-31 18:00:10.084644631,(-21 -7 -2 -2 -2 -2 -4 -12)
1969-12-31 18:00:10.084644631,(4 2 -1 0 -1 1 0 0)
1969-12-31 18:00:10.098900133,(27 14 8 4 1 3 6 18)
1969-12-31 18:00:10.098900133,(31 9 -3 -1 1 -1 3 15)
1969-12-31 18:00:10.107672750,(-70 -34 -12 -7 -4 -8 -14 -39)
1969-12-31 18:00:10.107672750,(4 1 -2 -2 2 0 1 -2)
1969-12-31 18:00:10.124121407,(11 10 4 0 -3 -8 -4 -3)
1969-12-31 18:00:10.124121407,(4 6 -1 0 0 2 8 12)
1969-12-31 18:00:10.124121407,(23 1 -8 -3 0 -15 0 6)
1969-12-31 18:00:10.124121407,(-19 -3 -4 -4 -1 3 1 3)
1969-12-31 18:00:10.148246103,(11 9 5 2 2 -2 2 7)
1969-12-31 18:00:10.148246103,(-70 -19 -4 -2 -2 -1 -2 -40)
1969-12-31 18:00:10.165791337,(43 5 -5 -5 -3 -10 -6 16)
1969-12-31 18:00:10.165791337,(17 3 -4 -2 -1 -7 2 5)
1969-12-31 18:00:10.166887914,(5 8 0 0 5 29 2 -13)
1969-12-31 18:00:10.166887914,(3 -4 -6 -7 -10 -19 -13 1)
1969-12-31 18:00:10.173467377,(5 8 12 5 3 -2 -6 -4)
1969-12-31 18:00:10.173467377,(-6 -10 0 -3 -1 34 -8 15)
1969-12-31 18:00:10.189916034,(30 9 9 2 -11 -38 8 -2)
1969-12-31 18:00:10.189916034,(9 -3 -3 0 1 18 12 13)
1969-12-31 18:00:10.189916034,(-27 -16 4 5 4 27 12 -6)
1969-12-31 18:00:10.191012611,(-1 5 0 1 -2 2 9 1)
1969-12-31 18:00:10.215137307,(-43 -17 -4 -3 -2 0 -14 -18)
1969-12-31 18:00:10.215137307,(4 12 6 3 5 12 19 2)
1969-12-31 18:00:10.216233884,(15 11 3 1 0 -35 -28 -16)
1969-12-31 18:00:10.216233884,(-1 -12 -10 -4 -6 24 -10 -51)
1969-12-31 18:00:10.239262004,(32 14 -4 -7 -3 -21 17 67)
1969-12-31 18:00:10.239262004,(-47 -14 -3 -4 -4 -15 -19 -51)
1969-12-31 18:00:10.240358581,(19 -3 -3 2 9 56 32 15)
1969-12-31 18:00:10.240358581,(-1 2 6 1 -4 -92 -35 -11)
1969-12-31 18:00:10.255710660,(-8 -8 -4 -3 1 59 2 10)
1969-12-31 18:00:10.255710660,(60 39 8 10 6 5 12 35)
1969-12-31 18:00:10.255710660,(-63 -28 -22 -14 -1 32 -43 -56)
1969-12-31 18:00:10.255710660,(-8 0 3 0 -14 -59 28 14)
1969-12-31 18:00:10.280931934,(21 9 2 0 2 -38 -41 1)
1969-12-31 18:00:10.280931934,(48 11 2 0 5 59 47 49)
1969-12-31 18:00:10.282028511,(-7 -15 -12 -9 -14 -37 -26 -15)
1969-12-31 18:00:10.282028511,(-12 -2 -2 2 9 34 -5 -6)
1969-12-31 18:00:10.305056630,(11 5 -2 -1 0 19 33 21)
1969-12-31 18:00:10.305056630,(-32 -9 0 -3 -6 -15 -34 -64)
1969-12-31 18:00:10.306153207,(23 0 3 4 7 83 68 58)
1969-12-31 18:00:10.306153207,(-20 -12 -8 -7 -11 -66 -52 -43)
1969-12-31 18:00:10.321505287,(-19 2 9 3 -1 -1 7 -24)
1969-12-31 18:00:10.321505287,(-59 -40 -19 -12 -10 -28 -12 -1)
1969-12-31 18:00:10.322601864,(8 2 -5 -5 -3 -2 1 -9)
1969-12-31 18:00:10.322601864,(22 14 9 8 15 32 49 55)
1969-12-31 18:00:10.346726561,(15 -2 -3 -3 -3 29 -9 17)
1969-12-31 18:00:10.346726561,(-14 6 3 1 -10 -52 -31 -25)
1969-12-31 18:00:10.347823138,(-34 -26 -11 -10 -17 -55 3 -17)
1969-12-31 18:00:10.347823138,(40 20 9 9 12 57 -28 -26)
1969-12-31 18:00:10.371947834,(-16 -7 -8 -6 -10 -27 -10 -37)
1969-12-31 18:00:10.371947834,(-22 -23 -11 -5 1 1 -20 -1)
1969-12-31 18:00:10.371947834,(47 25 10 6 1 -21 11 37)
1969-12-31 18:00:10.371947834,(-12 -1 -4 -3 5 25 7 -2)
1969-12-31 18:00:10.387299914,(-1 0 8 4 1 -25 3 -3)
1969-12-31 18:00:10.387299914,(10 -8 -6 -1 13 78 0 -7)
1969-12-31 18:00:10.388396491,(-6 10 6 3 -7 -33 10 24)
1969-12-31 18:00:10.388396491,(-34 -17 -11 -5 2 42 -13 -29)
1969-12-31 18:00:10.412521187,(-2 -1 1 -3 -5 17 -8 -39)
1969-12-31 18:00:10.412521187,(45 26 4 2 -3 -33 13 57)
1969-12-31 18:00:10.413617765,(2 14 6 5 10 8 -7 17)
1969-12-31 18:00:10.413617765,(-8 -13 -10 -10 -13 36 15 3)
1969-12-31 18:00:10.436645884,(-6 -7 -6 -6 -11 -81 -17 30)
1969-12-31 18:00:10.436645884,(0 -6 1 1 -3 -36 -16 -40)
1969-12-31 18:00:10.437742461,(6 21 9 6 4 11 4 -58)
1969-12-31 18:00:10.437742461,(2 -16 3 6 -1 -23 4 31)
1969-12-31 18:00:10.453094541,(-51 -14 -12 -12 -6 17 -45 -36)
1969-12-31 18:00:10.453094541,(6 -5 -4 -4 12 25 44 20)
1969-12-31 18:00:10.454191118,(8 20 12 15 9 -13 -4 22)
1969-12-31 18:00:10.454191118,(-36 -12 -12 -11 -15 -33 -9 -68)
1969-12-31 18:00:10.478315814,(-18 -19 -6 1 5 17 -8 -23)
1969-12-31 18:00:10.478315814,(21 11 7 1 -3 -15 8 5)
1969-12-31 18:00:10.479412391,(-31 -23 -17 -18 -18 -38 -40 -50)
1969-12-31 18:00:10.479412391,(39 12 4 4 8 -1 53 91)
1969-12-31 18:00:10.502440511,(12 -2 2 3 10 38 37 11)
1969-12-31 18:00:10.502440511,(16 2 -1 -1 -12 -54 -25 -5)
1969-12-31 18:00:10.503537088,(-4 7 7 6 14 37 -7 17)
1969-12-31 18:00:10.503537088,(44 14 4 1 -1 40 0 61)
1969-12-31 18:00:10.517792590,(-10 -10 -4 -2 -1 -40 -13 -19)
1969-12-31 18:00:10.517792590,(18 9 5 2 1 21 6 24)
1969-12-31 18:00:10.527661784,(24 21 8 3 9 47 49 52)
1969-12-31 18:00:10.527661784,(-1 -16 -5 -4 -12 -75 -33 -27)
1969-12-31 18:00:10.544110441,(-21 -13 -3 1 -7 -39 -31 -17)
1969-12-31 18:00:10.544110441,(-32 -20 -7 -3 0 33 7 -55)
1969-12-31 18:00:10.546303595,(-6 -5 -10 -9 -19 -94 -76 -27)
1969-12-31 18:00:10.546303595,(-9 8 4 -2 2 -4 6 -13)
1969-12-31 18:00:10.569331715,(-15 -10 0 2 5 26 13 13)
1969-12-31 18:00:10.569331715,(-23 -12 -3 -1 -7 -19 25 7)
1969-12-31 18:00:10.570428292,(21 12 2 0 -3 14 6 -8)
1969-12-31 18:00:10.570428292,(-4 1 -1 0 3 8 -10 -14)
1969-12-31 18:00:10.583587217,(8 15 7 3 11 7 19 -25)
1969-12-31 18:00:10.583587217,(7 2 0 0 22 70 -4 48)
1969-12-31 18:00:10.593456411,(1 -19 -4 -2 -5 -6 17 -32)
1969-12-31 18:00:10.593456411,(-4 2 4 5 13 32 8 8)
1969-12-31 18:00:10.609905068,(24 16 3 -1 -35 -57 -7 2)
1969-12-31 18:00:10.609905068,(26 13 -1 1 1 -6 1 28)
1969-12-31 18:00:10.611001645,(-10 -8 -1 2 -12 8 3 -11)
1969-12-31 18:00:10.611001645,(-29 -2 3 14 33 16 10 0)
1969-12-31 18:00:10.634029764,(-17 -17 -8 -18 -34 20 24 -20)
1969-12-31 18:00:10.634029764,(-17 -17 -10 -11 -11 -9 -61 -56)
1969-12-31 18:00:10.636222918,(11 -2 -3 -6 51 21 7 28)
1969-12-31 18:00:10.636222918,(-21 1 -2 4 -30 -17 16 12)
1969-12-31 18:00:10.649381844,(-18 0 2 -1 -21 -15 -25 -27)
1969-12-31 18:00:10.649381844,(-14 -2 1 1 0 -9 2 1)
1969-12-31 18:00:10.659251038,(1 3 2 10 20 16 15 11)
1969-12-31 18:00:10.659251038,(16 11 9 24 70 39 10 3)
1969-12-31 18:00:10.675699695,(15 9 -6 -33 -84 -97 -43 13)
1969-12-31 18:00:10.675699695,(1 3 0 -9 0 25 23 5)
1969-12-31 18:00:10.676796272,(6 2 6 4 -2 -30 -26 -1)
1969-12-31 18:00:10.676796272,(8 -3 0 0 27 13 -9 0)
1969-12-31 18:00:10.699824391,(10 -3 0 22 37 54 48 41)
1969-12-31 18:00:10.699824391,(-2 -1 2 14 17 -28 25 21)
1969-12-31 18:00:10.702017545,(5 6 -1 -1 -24 -2 -7 4)
1969-12-31 18:00:10.702017545,(27 6 -1 -10 -32 -47 -22 8)
1969-12-31 18:00:10.715176471,(15 5 -1 -6 31 74 34 25)
1969-12-31 18:00:10.715176471,(16 4 3 8 15 0 15 16)
1969-12-31 18:00:10.725045665,(-7 12 3 6 -45 -62 -8 -12)
1969-12-31 18:00:10.725045665,(5 -9 -2 -11 -21 -4 1 -4)
1969-12-31 18:00:10.741494321,(-3 -8 -8 -24 -43 -6 2 23)
1969-12-31 18:00:10.741494321,(-5 3 1 9 55 63 -14 0)
1969-12-31 18:00:10.743687476,(0 -11 -5 -2 -16 -56 3 5)
1969-12-31 18:00:10.743687476,(-10 -2 -7 -5 6 21 -5 -50)
1969-12-31 18:00:10.765619018,(17 6 -1 18 24 -11 -7 13)
1969-12-31 18:00:10.765619018,(-9 3 6 -3 -32 -15 -3 14)
1969-12-31 18:00:10.767812172,(-1 -3 -3 6 61 74 28 6)
1969-12-31 18:00:10.767812172,(-16 0 4 -19 -78 -35 -18 0)
1969-12-31 18:00:10.780971097,(-8 -4 0 6 23 -34 -18 -11)
1969-12-31 18:00:10.780971097,(11 15 8 -7 -51 -57 -12 -12)
1969-12-31 18:00:10.790840291,(-6 -4 8 1 19 35 8 9)
1969-12-31 18:00:10.790840291,(25 11 -14 4 29 10 0 24)
1969-12-31 18:00:10.807288948,(17 4 -35 16 108 97 32 13)
1969-12-31 18:00:10.807288948,(-27 -11 39 -7 -92 -71 -37 -22)
1969-12-31 18:00:10.809482102,(25 1 -38 -26 -35 -2 0 30)
1969-12-31 18:00:10.809482102,(-34 1 47 -7 -8 -1 -6 -26)
1969-12-31 18:00:10.831413645,(-9 2 9 12 18 -6 -8 10)
1969-12-31 18:00:10.832510222,(19 -11 -54 -14 41 34 24 39)
1969-12-31 18:00:10.833606799,(3 17 33 9 -36 -19 3 35)
1969-12-31 18:00:10.833606799,(54 14 -56 -9 9 -2 4 24)
1969-12-31 18:00:10.846765724,(6 -73 -34 -14 11 -4 9 33)
1969-12-31 18:00:10.846765724,(-25 77 94 38 17 22 -5 -56)
1969-12-31 18:00:10.856634918,(28 52 12 30 47 36 -15 4)
1969-12-31 18:00:10.856634918,(-52 -89 -52 -38 -81 -90 -23 -3)
1969-12-31 18:00:10.873083575,(-12 15 -20 -15 -40 -20 -10 -36)
1969-12-31 18:00:10.873083575,(59 -105 -87 -44 -30 2 22 57)
1969-12-31 18:00:10.874180152,(1 25 5 -2 36 37 -13 -28)
1969-12-31 18:00:10.874180152,(-23 93 96 32 8 2 -3 -46)
1969-12-31 18:00:10.897208271,(-13 -54 -93 -28 9 7 -16 -55)
1969-12-31 18:00:10.898304848,(-37 91 105 28 10 -4 -2 -37)
1969-12-31 18:00:10.899401426,(-46 -42 -23 -3 8 -3 -10 -25)
1969-12-31 18:00:10.899401426,(14 -66 -96 -14 81 92 38 -38)
1969-12-31 18:00:10.912560351,(-4 96 127 32 -89 -82 -44 26)
1969-12-31 18:00:10.912560351,(11 -10 -67 -12 21 -9 -7 59)
1969-12-31 18:00:10.922429545,(-12 -80 -69 -10 1 17 39 -25)
1969-12-31 18:00:10.922429545,(15 92 61 20 -3 2 -24 62)
1969-12-31 18:00:10.938878202,(39 -81 -75 -8 30 29 28 -2)
1969-12-31 18:00:10.938878202,(-24 -58 -48 -40 -62 -7 14 11)
1969-12-31 18:00:10.941071356,(-31 91 108 19 -36 -44 -20 -38)
1969-12-31 18:00:10.941071356,(36 -108 -98 -33 -15 -8 4 45)
1969-12-31 18:00:10.961906321,(-1 32 31 17 40 32 -15 -19)
1969-12-31 18:00:10.963002898,(-30 -30 -26 11 45 1 -5 -29)
1969-12-31 18:00:10.971775515,(-1 -128 -128 -53 -48 -28 -43 -69)
1969-12-31 18:00:10.971775515,(10 119 111 37 -23 -31 10 53)
1969-12-31 18:00:10.978354978,(-6 34 37 21 65 48 21 -23)
1969-12-31 18:00:10.978354978,(-4 -29 -28 1 4 2 3 -9)
1969-12-31 18:00:10.988224172,(-34 24 46 1 -54 -22 -7 -26)
1969-12-31 18:00:10.988224172,(0 -128 -122 -46 -15 -2 -10 -8)
1969-12-31 18:00:11.003576251,(-15 102 95 23 -15 -15 -7 -8)
1969-12-31 18:00:11.003576251,(69 -58 -98 -27 24 32 12 15)
1969-12-31 18:00:11.013445445,(6 -40 -47 -12 73 49 7 23)
1969-12-31 18:00:11.013445445,(-36 52 105 59 -2 -29 -15 -33)
1969-12-31 18:00:11.029894102,(-24 -22 -8 3 11 -5 15 16)
1969-12-31 18:00:11.029894102,(51 14 36 12 -50 -23 15 42)
1969-12-31 18:00:11.030990679,(52 47 27 0 -42 -53 -24 6)
1969-12-31 18:00:11.030990679,(-46 -25 4 -8 9 11 -15 9)
1969-12-31 18:00:11.044149604,(-12 -113 -109 -35 6 30 -7 -25)
1969-12-31 18:00:11.044149604,(-7 119 108 29 19 15 -38 -8)
1969-12-31 18:00:11.055115376,(33 -25 -32 1 -12 -48 14 10)
1969-12-31 18:00:11.055115376,(2 -19 -27 -11 -5 -4 20 4)
1969-12-31 18:00:11.069370878,(40 -68 -59 -25 17 14 -2 29)
1969-12-31 18:00:11.069370878,(-51 38 -8 16 52 28 19 -8)
1969-12-31 18:00:11.078143495,(-76 61 52 34 -8 45 29 5)
1969-12-31 18:00:11.078143495,(89 31 -8 17 3 -13 -8 -31)
1969-12-31 18:00:11.094592152,(-26 -69 -88 -64 -41 -2 10 31)
1969-12-31 18:00:11.095688729,(-44 33 43 -6 -77 -59 -46 -69)
1969-12-31 18:00:11.096785306,(-29 31 15 6 53 32 28 38)
1969-12-31 18:00:11.096785306,(-15 -64 -57 1 9 -12 12 12)
1969-12-31 18:00:11.109944231,(2 2 -1 0 -41 1 11 12)
1969-12-31 18:00:11.109944231,(9 -27 -40 7 49 14 7 -17)
1969-12-31 18:00:11.119813425,(-20 -4 13 -12 -22 -3 -33 -50)
1969-12-31 18:00:11.119813425,(-3 -33 -17 -20 21 -2 3 7)
1969-12-31 18:00:11.135165505,(14 -47 -14 2 -16 -16 24 27)
1969-12-31 18:00:11.135165505,(-27 -16 6 -32 -95 -45 -46 -30)
1969-12-31 18:00:11.142841545,(43 14 -21 -13 10 5 -6 22)
1969-12-31 18:00:11.142841545,(-12 51 39 14 42 30 -17 -57)
1969-12-31 18:00:11.160386778,(5 -40 5 23 -9 -27 -16 -9)
1969-12-31 18:00:11.160386778,(-37 17 16 20 28 6 14 -32)
1969-12-31 18:00:11.162579933,(38 21 13 45 98 105 49 87)
1969-12-31 18:00:11.162579933,(-28 -33 -24 -47 -111 -92 -56 -68)
1969-12-31 18:00:11.186704629,(-8 83 48 2 -4 2 9 -25)
1969-12-31 18:00:11.187801206,(5 -74 -50 -19 21 -6 -14 -21)
1969-12-31 18:00:11.188897783,(8 -46 -18 -12 39 17 47 45)
1969-12-31 18:00:11.188897783,(19 15 -14 22 51 47 -8 -16)
1969-12-31 18:00:11.200960132,(2 46 50 36 20 -3 3 37)
1969-12-31 18:00:11.200960132,(13 -36 -51 -27 -53 2 52 3)
1969-12-31 18:00:11.208636171,(20 11 -16 -24 -55 -23 -22 8)
1969-12-31 18:00:11.208636171,(-23 40 58 25 -6 -43 0 -17)
1969-12-31 18:00:11.227277982,(-14 25 22 1 41 21 -22 -25)
1969-12-31 18:00:11.227277982,(25 -69 -63 29 40 5 19 46)
1969-12-31 18:00:11.228374559,(-28 103 90 -13 -56 -50 3 -11)
1969-12-31 18:00:11.228374559,(11 -5 12 2 -7 6 16 35)
1969-12-31 18:00:11.251402679,(41 -26 -50 0 31 15 -29 -17)
1969-12-31 18:00:11.251402679,(-37 44 47 -10 3 0 -26 -6)
1969-12-31 18:00:11.257982141,(-7 -128 -72 -13 10 -3 -17 -74)
1969-12-31 18:00:11.257982141,(13 -30 -51 -26 -42 -5 15 23)
1969-12-31 18:00:11.266754758,(-9 118 101 38 24 8 9 -10)
1969-12-31 18:00:11.267851335,(45 34 17 36 81 48 12 29)
1969-12-31 18:00:11.274430798,(29 -53 -73 -33 -80 -61 -16 8)
1969-12-31 18:00:11.274430798,(-41 38 48 -1 -24 2 2 -6)
1969-12-31 18:00:11.291976032,(-5 -53 -55 -21 -45 -21 11 15)
1969-12-31 18:00:11.291976032,(7 -60 -65 -38 -28 -18 -7 -18)
1969-12-31 18:00:11.300748648,(6 104 109 75 103 60 12 -6)
1969-12-31 18:00:11.300748648,(-23 -23 -38 11 -20 -13 2 -31)
1969-12-31 18:00:11.317197306,(-4 -57 -55 -20 -28 -13 10 19)
1969-12-31 18:00:11.317197306,(-19 45 -9 -28 -31 -20 -4 4)
1969-12-31 18:00:11.318293883,(35 14 -24 11 81 20 -10 22)
1969-12-31 18:00:11.318293883,(-3 -29 -11 -25 -66 -33 -8 15)
1969-12-31 18:00:11.332549385,(-29 -36 29 -1 5 -13 -3 -11)
1969-12-31 18:00:11.332549385,(-22 -104 -81 -31 -19 42 -15 -56)
1969-12-31 18:00:11.340225425,(-2 1 2 4 -7 -1 8 7)
1969-12-31 18:00:11.340225425,(35 121 108 18 20 -4 2 -5)
1969-12-31 18:00:11.358867236,(13 -67 -64 -22 -65 -48 -3 12)
1969-12-31 18:00:11.358867236,(-21 3 61 13 -33 -77 -68 4)
1969-12-31 18:00:11.361060390,(-14 -63 -69 -27 22 65 38 25)
1969-12-31 18:00:11.361060390,(-27 10 11 24 68 50 8 -30)
1969-12-31 18:00:11.382991932,(62 67 59 38 32 5 4 30)
1969-12-31 18:00:11.382991932,(-32 -49 -26 0 24 26 31 -12)
1969-12-31 18:00:11.385185087,(-2 5 -13 -32 -88 -82 -79 -74)
1969-12-31 18:00:11.385185087,(-49 -70 -32 -8 44 58 12 25)
1969-12-31 18:00:11.398344012,(-34 12 -26 -34 -46 -19 9 -4)
1969-12-31 18:00:11.398344012,(-9 97 107 48 0 -51 14 32)
1969-12-31 18:00:11.406020052,(87 1 -13 7 66 95 38 62)
1969-12-31 18:00:11.406020052,(25 24 -17 14 -52 -90 2 36)
1969-12-31 18:00:11.423565286,(-79 4 29 13 43 25 -52 -92)
1969-12-31 18:00:11.423565286,(66 -54 -42 -33 -33 6 27 8)
1969-12-31 18:00:11.425758440,(-55 1 23 1 3 21 11 19)
1969-12-31 18:00:11.425758440,(-44 -21 -31 -14 30 34 15 -31)
1969-12-31 18:00:11.448786559,(35 -14 -13 1 -21 -14 17 41)
1969-12-31 18:00:11.448786559,(10 -7 -1 12 62 44 17 37)
1969-12-31 18:00:11.449883136,(-46 -85 -77 -53 -112 -111 -40 -43)
1969-12-31 18:00:11.449883136,(43 63 60 19 7 8 -11 -5)
1969-12-31 18:00:11.464138639,(-12 -17 14 2 18 15 -7 -8)
1969-12-31 18:00:11.464138639,(-6 -14 2 -5 8 12 -32 -17)
1969-12-31 18:00:11.490456489,(-4 -10 -38 24 52 34 13 -6)
1969-12-31 18:00:11.490456489,(20 -74 -65 -34 -59 -29 7 66)
1969-12-31 18:00:11.491553066,(8 127 127 46 39 28 -1 17)
1969-12-31 18:00:11.491553066,(-28 -26 -40 -18 -27 -12 14 -3)
1969-12-31 18:00:11.495939375,(-32 -59 -6 -4 4 11 -1 24)
1969-12-31 18:00:11.495939375,(-12 -54 -51 -25 7 -25 -11 -25)
1969-12-31 18:00:11.514581186,(19 3 -72 -9 38 12 -23 -24)
1969-12-31 18:00:11.514581186,(8 127 114 58 -19 3 39 31)
1969-12-31 18:00:11.515677763,(11 39 15 -2 -59 -40 -14 -36)
1969-12-31 18:00:11.515677763,(-3 -64 -44 -10 62 72 0 -4)
1969-12-31 18:00:11.528836688,(0 -44 -43 -9 -29 -18 24 19)
1969-12-31 18:00:11.528836688,(18 -18 -22 -11 6 -21 -23 -41)
1969-12-31 18:00:11.538705882,(12 63 83 43 32 -6 -13 -7)
1969-12-31 18:00:11.538705882,(62 51 44 18 4 29 -4 36)
1969-12-31 18:00:11.555154539,(-24 -87 -13 -10 4 1 0 -7)
1969-12-31 18:00:11.555154539,(-21 -21 -36 -6 39 32 -34 -46)
1969-12-31 18:00:11.557347693,(-30 -84 -94 -42 -35 -26 35 15)
1969-12-31 18:00:11.557347693,(45 87 82 54 15 -4 12 56)
1969-12-31 18:00:11.580375813,(-16 -51 -15 -12 -18 10 4 -56)
1969-12-31 18:00:11.580375813,(11 -61 -44 -11 -24 -37 -7 23)
1969-12-31 18:00:11.581472390,(-11 -16 8 -20 2 18 3 34)
1969-12-31 18:00:11.581472390,(-27 -51 -50 -12 65 47 19 -9)
1969-12-31 18:00:11.604500509,(-3 34 3 7 -40 -38 -17 -13)
1969-12-31 18:00:11.604500509,(8 26 46 19 -7 15 4 -9)
1969-12-31 18:00:11.606693663,(67 83 31 14 3 5 -8 -5)
1969-12-31 18:00:11.606693663,(-56 -58 -29 -21 -53 -65 -1 0)
1969-12-31 18:00:11.622045743,(-24 23 33 10 44 24 -31 -28)
1969-12-31 18:00:11.622045743,(13 -42 -47 -15 13 -8 10 56)
1969-12-31 18:00:11.623142320,(-3 -27 8 -7 -35 -15 -9 -3)
1969-12-31 18:00:11.623142320,(0 -18 -30 -21 6 27 4 -13)
1969-12-31 18:00:11.646170439,(-10 -6 -41 -2 47 18 -11 -22)
1969-12-31 18:00:11.646170439,(27 99 100 30 -27 -16 12 50)
1969-12-31 18:00:11.648363594,(-51 -10 9 29 24 -6 9 -20)
1969-12-31 18:00:11.648363594,(18 -35 -16 -24 -15 19 -15 -11)
1969-12-31 18:00:11.670295136,(40 16 -31 -24 -50 -42 1 39)
1969-12-31 18:00:11.670295136,(-12 5 21 6 5 14 -3 -31)
1969-12-31 18:00:11.672488290,(-17 61 89 15 -45 -55 -1 19)
1969-12-31 18:00:11.672488290,(33 -29 -32 -9 11 0 2 -10)
1969-12-31 18:00:11.686743793,(-30 -47 -42 -26 -17 -5 -9 3)
1969-12-31 18:00:11.686743793,(17 0 -37 -15 46 30 -23 -6)
1969-12-31 18:00:11.688936947,(16 -94 -78 14 38 53 52 63)
1969-12-31 18:00:11.688936947,(10 102 102 12 -70 -41 8 31)
1969-12-31 18:00:11.711965066,(50 94 37 -3 -4 6 -8 -13)
1969-12-31 18:00:11.711965066,(-52 3 35 15 -12 -36 -23 -57)
1969-12-31 18:00:11.713061643,(-38 -72 -39 -21 17 16 -22 -22)
1969-12-31 18:00:11.713061643,(4 -40 -77 -15 12 9 19 8)
1969-12-31 18:00:11.727317146,(-2 -37 -17 13 23 10 34 52)
1969-12-31 18:00:11.727317146,(5 -10 0 16 60 41 -29 -28)
1969-12-31 18:00:11.737186340,(-36 111 114 8 -106 -106 -68 -77)
1969-12-31 18:00:11.737186340,(-29 -8 -9 -12 42 18 -4 7)
1969-12-31 18:00:11.753634996,(-30 -55 -31 -3 -6 -11 3 -14)
1969-12-31 18:00:11.753634996,(2 -53 -75 -31 10 21 9 0)
1969-12-31 18:00:11.754731574,(43 41 40 33 71 64 33 37)
1969-12-31 18:00:11.754731574,(3 5 -1 -8 -60 -55 -24 -57)
1969-12-31 18:00:11.777759693,(-14 -34 -9 -4 -8 14 12 3)
1969-12-31 18:00:11.777759693,(52 59 -15 0 17 16 35 53)
1969-12-31 18:00:11.778856270,(0 18 21 14 2 6 5 5)
1969-12-31 18:00:11.778856270,(21 20 18 13 20 14 10 23)
1969-12-31 18:00:11.801884389,(-45 -17 -4 -13 -26 -20 -15 -54)
1969-12-31 18:00:11.801884389,(22 -23 -52 -17 -16 -13 -11 -26)
1969-12-31 18:00:11.804077544,(-17 30 54 8 12 11 4 4)
1969-12-31 18:00:11.804077544,(-8 1 -2 8 57 51 1 -23)
1969-12-31 18:00:11.818333046,(37 42 10 -3 -66 -53 11 41)
1969-12-31 18:00:11.818333046,(29 -22 -31 14 54 39 21 9)
1969-12-31 18:00:11.820526200,(-56 4 40 -12 -89 -83 -56 -94)
1969-12-31 18:00:11.820526200,(9 27 26 -12 -71 -56 -5 19)
1969-12-31 18:00:11.843554320,(1 16 21 9 40 38 -18 2)
1969-12-31 18:00:11.843554320,(-13 -16 -21 -32 -39 -14 16 19)
1969-12-31 18:00:11.845747474,(55 -85 -110 -24 52 32 -2 38)
1969-12-31 18:00:11.845747474,(41 69 61 43 31 20 18 25)
1969-12-31 18:00:11.858906399,(-6 7 34 10 2 7 -4 -20)
1969-12-31 18:00:11.858906399,(-20 10 11 4 -3 -19 -27 -3)
1969-12-31 18:00:11.868775593,(-10 -47 -58 -58 -21 -3 13 15)
1969-12-31 18:00:11.868775593,(-24 -59 -89 -13 -5 -4 -27 -24)
1969-12-31 18:00:11.885224250,(-8 -49 -3 8 19 15 39 20)
1969-12-31 18:00:11.885224250,(15 82 95 51 21 46 5 7)
1969-12-31 18:00:11.886320827,(29 58 39 53 67 14 33 56)
1969-12-31 18:00:11.886320827,(31 77 58 -15 -58 -62 -33 23)
1969-12-31 18:00:11.909348947,(-13 -2 5 -13 -36 56 28 -17)
1969-12-31 18:00:11.909348947,(-38 -83 -50 -36 -35 -72 -33 -23)
1969-12-31 18:00:11.911542101,(34 -40 -88 -29 19 22 7 16)
1969-12-31 18:00:11.911542101,(-41 -41 -1 21 114 83 -6 -19)
1969-12-31 18:00:11.924701026,(-17 13 -16 -24 -97 -110 -30 -11)
1969-12-31 18:00:11.924701026,(10 -26 -11 -29 -39 -13 9 18)
1969-12-31 18:00:11.934570220,(-22 6 -11 1 14 14 -18 -33)
1969-12-31 18:00:11.934570220,(5 -10 -25 8 44 52 32 8)
1969-12-31 18:00:11.949922300,(7 21 27 21 50 -6 -7 18)
1969-12-31 18:00:11.949922300,(-20 8 4 -32 -79 -34 -18 -29)
1969-12-31 18:00:11.952115454,(14 -27 -35 -36 -36 -40 -17 21)
1969-12-31 18:00:11.952115454,(-54 -36 -13 -27 -31 -25 -18 -60)
1969-12-31 18:00:11.975143573,(11 45 49 71 83 79 18 2)
1969-12-31 18:00:11.975143573,(-15 9 8 37 33 -12 -1 -11)
1969-12-31 18:00:11.976240150,(3 -7 3 6 -15 16 -4 -22)
1969-12-31 18:00:11.976240150,(-2 4 -5 -17 -16 -2 -2 15)
1969-12-31 18:00:11.990495653,(69 25 11 10 22 20 14 57)
1969-12-31 18:00:11.990495653,(-63 -23 -6 -16 -15 -22 -28 -68)
1969-12-31 18:00:11.999268270,(-1 7 15 -1 -7 13 16 7)
1969-12-31 18:00:11.999268270,(-10 -7 -3 7 -6 -5 -2 -17)
1969-12-31 18:00:12.016813504,(38 34 -13 -12 0 -11 6 31)
1969-12-31 18:00:12.016813504,(-44 -26 15 13 10 18 37 19)
1969-12-31 18:00:12.017910081,(-11 4 14 0 4 -1 -4 3)
1969-12-31 18:00:12.017910081,(-33 -29 -21 -3 -13 -34 -20 -45)
1969-12-31 18:00:12.040938200,(9 14 -1 -4 10 31 -9 -16)
1969-12-31 18:00:12.040938200,(16 0 -8 -15 -4 14 33 40)
1969-12-31 18:00:12.043131354,(10 3 2 5 10 -9 20 37)
1969-12-31 18:00:12.043131354,(-3 -8 5 7 -11 30 1 10)
1969-12-31 18:00:12.056290280,(-46 -28 -4 -14 -17 -20 7 0)
1969-12-31 18:00:12.056290280,(48 28 -4 -7 2 -2 -28 -19)
1969-12-31 18:00:12.065062897,(8 -18 -23 -42 -8 29 33 19)
1969-12-31 18:00:12.065062897,(-37 -17 4 50 20 -13 -8 -25)
1969-12-31 18:00:12.082608130,(-60 -25 -2 1 1 27 -5 -45)
1969-12-31 18:00:12.082608130,(24 25 19 35 20 -76 -43 2)
1969-12-31 18:00:12.083704707,(58 23 5 3 -12 2 -3 25)
1969-12-31 18:00:12.083704707,(-3 -7 -5 -26 -15 37 31 5)
1969-12-31 18:00:12.106732827,(12 5 -2 -22 -15 1 -29 -12)
1969-12-31 18:00:12.106732827,(-39 -4 14 34 44 51 59 51)
1969-12-31 18:00:12.108925981,(-7 -17 -10 -8 -15 -48 -34 63)
1969-12-31 18:00:12.108925981,(-18 11 6 -7 -11 -40 -60 -84)
1969-12-31 18:00:12.122084906,(63 25 1 4 3 4 7 19)
1969-12-31 18:00:12.122084906,(-59 -59 -22 -29 -26 -31 -9 -37)
1969-12-31 18:00:12.131954100,(-7 0 3 12 12 18 25 29)
1969-12-31 18:00:12.131954100,(58 18 2 3 7 12 40 55)
1969-12-31 18:00:12.148402757,(2 5 -2 -8 -9 -34 -12 -29)
1969-12-31 18:00:12.148402757,(1 6 2 -4 0 22 -7 -21)
1969-12-31 18:00:12.149499334,(-28 9 16 23 13 8 -28 -31)
1969-12-31 18:00:12.149499334,(11 -15 -23 -17 -22 -36 8 -3)
1969-12-31 18:00:12.171430876,(15 -7 2 -1 10 31 16 34)
1969-12-31 18:00:12.171430876,(14 11 1 -3 -9 -32 -24 -17)
1969-12-31 18:00:12.180203493,(-96 -27 -13 -2 -8 -20 -34 -98)
1969-12-31 18:00:12.180203493,(65 48 35 19 17 26 37 72)
1969-12-31 18:00:12.187879533,(-48 -42 -20 -8 0 -1 8 38)
1969-12-31 18:00:12.187879533,(51 6 -8 -9 -6 9 -5 25)
1969-12-31 18:00:12.196652150,(-44 4 7 6 2 0 3 -41)
1969-12-31 18:00:12.197748727,(14 3 -3 -3 1 0 -6 40)
1969-12-31 18:00:12.221873424,(-8 2 8 4 4 -7 12 14)
1969-12-31 18:00:12.221873424,(66 31 7 2 0 14 6 11)
1969-12-31 18:00:12.222970001,(4 -10 -1 1 -1 -6 -11 -39)
1969-12-31 18:00:12.222970001,(-1 -2 -4 -2 -1 5 7 26)
1969-12-31 18:00:12.238322080,(-23 -7 -2 4 0 -13 -17 -46)
1969-12-31 18:00:12.238322080,(-2 26 10 6 6 22 19 9)
1969-12-31 18:00:12.239418657,(5 -18 -11 -6 -8 -1 -4 -8)
1969-12-31 18:00:12.239418657,(-45 -16 -10 -5 -5 -12 -24 -31)
1969-12-31 18:00:12.262446777,(41 7 0 -4 -3 -8 1 41)
1969-12-31 18:00:12.262446777,(-29 -12 -2 0 4 12 3 21)
1969-12-31 18:00:12.264639931,(29 10 0 -2 -3 -3 7 -8)
1969-12-31 18:00:12.264639931,(-56 -30 -11 -6 -7 -10 -14 -28)
1969-12-31 18:00:12.278895434,(-23 3 -1 -4 -5 -13 -18 -31)
1969-12-31 18:00:12.278895434,(-5 -8 -3 -3 1 10 5 13)
1969-12-31 18:00:12.285474895,(15 0 3 1 0 1 2 6)
1969-12-31 18:00:12.285474895,(-17 1 -5 -5 -6 -8 -14 -36)
1969-12-31 18:00:12.304116707,(6 4 1 1 1 -2 -1 -1)
1969-12-31 18:00:12.304116707,(-38 -23 -11 -5 -1 0 -1 -10)
1969-12-31 18:00:12.306309861,(31 13 1 0 -1 -2 0 -2)
1969-12-31 18:00:12.306309861,(26 14 10 1 -1 -2 1 6)
1969-12-31 18:00:12.328241404,(-22 -28 -11 -4 -2 -5 -1 -5)
1969-12-31 18:00:12.328241404,(-17 -10 -6 -6 -5 -2 -7 -43)
1969-12-31 18:00:12.330434558,(-2 11 12 8 2 1 6 22)
1969-12-31 18:00:12.330434558,(30 10 -12 -5 -3 1 -1 -18)
1969-12-31 18:00:12.344690060,(13 8 16 6 0 -2 -4 7)
1969-12-31 18:00:12.344690060,(-4 -7 -7 -3 2 4 4 19)
1969-12-31 18:00:12.352366100,(18 16 1 -1 2 2 5 14)
1969-12-31 18:00:12.352366100,(-11 -20 7 2 0 -1 0 5)
1969-12-31 18:00:12.369911334,(-7 4 -9 -4 -2 -7 -10 -21)
1969-12-31 18:00:12.369911334,(-1 -3 -4 -4 -3 -1 -4 0)
1969-12-31 18:00:12.371007911,(-18 -21 -17 -5 -3 -3 3 -4)
1969-12-31 18:00:12.371007911,(20 17 -1 2 3 0 -5 16)
1969-12-31 18:00:12.397325762,(6 14 14 2 0 1 5 3)
1969-12-31 18:00:12.397325762,(-6 -11 -6 0 -2 -1 -6 -7)
1969-12-31 18:00:12.399518916,(-10 -21 -10 -7 -6 -6 -7 -6)
1969-12-31 18:00:12.399518916,(1 9 16 6 0 1 6 -6)
1969-12-31 18:00:12.410484687,(-6 8 4 0 -5 -5 -10 10)
1969-12-31 18:00:12.410484687,(43 25 8 3 1 1 3 2)
1969-12-31 18:00:12.419257304,(-27 -22 -19 -9 -7 -6 -15 -44)
1969-12-31 18:00:12.419257304,(-14 -27 -16 -7 -2 1 0 -6)
1969-12-31 18:00:12.435705961,(11 4 -13 -7 -2 0 4 0)
1969-12-31 18:00:12.435705961,(-8 23 46 19 9 5 11 5)
1969-12-31 18:00:12.436802538,(14 10 -5 -2 -1 -2 -17 0)
1969-12-31 18:00:12.436802538,(-4 -5 0 -1 -1 2 5 8)
1969-12-31 18:00:12.459830657,(-21 -3 5 1 -1 -8 -13 -17)
1969-12-31 18:00:12.459830657,(23 -9 -32 -13 -4 0 5 14)
1969-12-31 18:00:12.462023811,(-9 22 39 16 7 3 7 -3)
1969-12-31 18:00:12.462023811,(-2 8 0 -4 -2 2 0 1)
1969-12-31 18:00:12.476279314,(1 -28 -25 -8 -2 -2 -3 -2)
1969-12-31 18:00:12.476279314,(-8 6 -5 -9 -6 1 3 -4)
1969-12-31 18:00:12.482858777,(3 15 17 9 2 0 10 4)
1969-12-31 18:00:12.482858777,(-2 -12 -9 -1 -3 -3 -8 -1)
1969-12-31 18:00:12.501500587,(2 4 2 2 3 2 4 10)
1969-12-31 18:00:12.501500587,(3 -3 -11 -8 -6 -4 -8 -4)
1969-12-31 18:00:12.502597165,(-3 -15 -8 -4 -1 0 2 -5)
1969-12-31 18:00:12.502597165,(-4 -4 -1 2 2 2 1 7)
1969-12-31 18:00:12.526721861,(8 26 18 6 0 0 14 0)
1969-12-31 18:00:12.526721861,(-9 -2 5 7 4 0 -13 1)
1969-12-31 18:00:12.527818438,(10 -33 -23 -13 -4 -1 1 7)
1969-12-31 18:00:12.527818438,(5 36 19 3 -2 -6 -7 10)
1969-12-31 18:00:12.542073941,(-18 -22 -6 1 0 -4 -10 -22)
1969-12-31 18:00:12.542073941,(2 -23 -28 -12 -5 -2 11 4)
1969-12-31 18:00:12.548653403,(5 56 57 18 7 3 -1 0)
1969-12-31 18:00:12.548653403,(0 -19 -22 -9 0 3 3 8)
1969-12-31 18:00:12.567295214,(-3 3 10 6 2 2 -9 -2)
1969-12-31 18:00:12.567295214,(0 -8 -15 -10 -7 -5 -2 2)
1969-12-31 18:00:12.569488368,(-8 -3 14 12 4 2 -2 -1)
1969-12-31 18:00:12.569488368,(2 -11 -10 -2 -1 0 4 0)
1969-12-31 18:00:12.592516488,(7 13 8 6 2 2 0 0)
1969-12-31 18:00:12.592516488,(-14 -11 -2 -2 -1 0 -3 -10)
1969-12-31 18:00:12.593613065,(3 -18 -25 -10 -3 -1 8 7)
1969-12-31 18:00:12.593613065,(-5 -3 1 -3 -1 -1 -7 -3)
1969-12-31 18:00:12.607868567,(7 25 9 0 -1 0 1 -1)
1969-12-31 18:00:12.607868567,(2 13 20 16 8 5 0 4)
1969-12-31 18:00:12.615544607,(5 -10 -23 -7 -4 0 -2 0)
1969-12-31 18:00:12.615544607,(-9 -11 8 2 0 -1 -1 -5)
1969-12-31 18:00:12.633089841,(-4 -72 -43 -24 -11 -5 -3 0)
1969-12-31 18:00:12.633089841,(0 46 52 16 6 1 -2 -4)
1969-12-31 18:00:12.634186418,(7 37 9 0 -1 3 1 0)
1969-12-31 18:00:12.634186418,(-7 -1 16 5 2 1 1 -8)
1969-12-31 18:00:12.658311115,(-4 -18 -17 -5 -6 -2 -2 -3)
1969-12-31 18:00:12.658311115,(-8 -12 7 -5 -2 1 -3 -4)
1969-12-31 18:00:12.659407692,(25 15 -18 0 2 1 -2 6)
1969-12-31 18:00:12.659407692,(6 -12 -2 1 -2 -3 -2 0)
1969-12-31 18:00:12.673663194,(6 47 8 -3 -2 -3 -1 0)
1969-12-31 18:00:12.673663194,(-5 -31 -7 6 3 -2 1 1)
1969-12-31 18:00:12.681339234,(0 11 -1 3 3 1 1 3)
1969-12-31 18:00:12.681339234,(-16 -30 -29 -19 -9 -4 -3 -4)
1969-12-31 18:00:12.698884468,(18 60 30 10 0 -1 0 -1)
1969-12-31 18:00:12.698884468,(-22 -25 -24 -13 -7 -3 -5 -6)
1969-12-31 18:00:12.707657085,(-10 -25 -34 -32 -13 -3 0 0)
1969-12-31 18:00:12.707657085,(27 63 47 37 14 4 -2 5)
1969-12-31 18:00:12.723009164,(-23 -43 3 12 6 0 6 1)
1969-12-31 18:00:12.723009164,(8 19 6 -3 -1 -6 5 7)
1969-12-31 18:00:12.725202318,(-10 5 18 6 2 -5 2 -3)
1969-12-31 18:00:12.725202318,(-1 4 -17 -14 -4 -4 4 4)
1969-12-31 18:00:12.749327015,(-3 -21 -37 -22 -4 -2 0 2)
1969-12-31 18:00:12.749327015,(-3 -19 -4 6 -2 -2 -3 -3)
1969-12-31 18:00:12.751520169,(-24 -40 -59 -45 -18 -10 -11 -8)
1969-12-31 18:00:12.751520169,(21 24 41 36 16 9 2 2)
1969-12-31 18:00:12.755906478,(3 18 32 28 10 8 1 -1)
1969-12-31 18:00:12.755906478,(0 -16 -17 -8 -4 0 -2 2)
1969-12-31 18:00:12.763582517,(4 12 7 11 0 1 -2 -4)
1969-12-31 18:00:12.763582517,(-11 -26 -25 -21 -11 -6 -3 -3)
1969-12-31 18:00:12.781127751,(-1 -15 -22 -14 -5 -4 1 4)
1969-12-31 18:00:12.781127751,(1 8 6 2 2 0 3 2)
1969-12-31 18:00:12.782224327,(2 4 17 7 1 -1 -3 -3)
1969-12-31 18:00:12.782224327,(-6 6 0 -4 -3 -2 -3 -5)
1969-12-31 18:00:12.796479831,(10 13 21 6 -1 3 -3 -2)
1969-12-31 18:00:12.796479831,(1 3 0 -1 0 4 -7 -4)
1969-12-31 18:00:12.806349024,(0 -1 13 10 3 4 -7 -4)
1969-12-31 18:00:12.806349024,(-3 -11 -4 -1 0 4 -5 -5)
1969-12-31 18:00:12.821701104,(-7 -11 -12 -12 -5 2 -5 -2)
1969-12-31 18:00:12.821701104,(2 8 -2 -2 -1 2 -4 -4)
1969-12-31 18:00:12.829377144,(-5 -10 9 8 3 5 -4 -8)
1969-12-31 18:00:12.829377144,(-6 -8 -1 -6 -4 3 -3 3)
1969-12-31 18:00:12.846922378,(0 -3 -1 -3 -2 5 -1 4)
1969-12-31 18:00:12.846922378,(1 11 3 0 -2 -5 1 -8)
1969-12-31 18:00:12.848018955,(-1 -5 1 6 2 -16 7 6)
1969-12-31 18:00:12.848018955,(-7 -3 -18 -9 -3 -23 9 1)
1969-12-31 18:00:12.861177880,(-1 0 -12 -4 2 -22 11 10)
1969-12-31 18:00:12.861177880,(0 0 -19 -10 1 -18 9 10)
1969-12-31 18:00:12.872143652,(-6 -20 -19 -8 1 -13 11 9)
1969-12-31 18:00:12.872143652,(2 27 1 -1 1 -6 6 5)
1969-12-31 18:00:12.887495731,(-2 -5 -7 -4 0 0 2 1)
1969-12-31 18:00:12.887495731,(-1 -3 -8 -8 -7 7 -1 0)
1969-12-31 18:00:12.894075194,(-1 -6 2 2 0 13 -3 -1)
1969-12-31 18:00:12.894075194,(-3 -6 -6 -8 -3 15 -7 -4)
1969-12-31 18:00:12.912717005,(5 6 16 4 0 16 -6 -6)
1969-12-31 18:00:12.913813582,(1 -3 -1 0 1 12 -10 -7)
1969-12-31 18:00:12.914910159,(1 2 13 5 2 8 -7 -5)
1969-12-31 18:00:12.914910159,(-1 -11 6 4 -1 0 -7 -7)
1969-12-31 18:00:12.928069084,(-1 -2 -2 -3 -4 -3 -7 -8)
1969-12-31 18:00:12.928069084,(-3 -8 0 0 -2 -1 -4 -4)
1969-12-31 18:00:12.945614318,(3 7 17 6 -3 3 -7 -3)
1969-12-31 18:00:12.945614318,(-2 -9 -4 -4 0 4 -4 -5)
1969-12-31 18:00:12.953290358,(-2 -3 -1 0 -4 -1 -2 -4)
1969-12-31 18:00:12.953290358,(2 11 10 9 1 -2 2 1)
1969-12-31 18:00:12.959869821,(1 1 3 3 -1 -3 2 -1)
1969-12-31 18:00:12.959869821,(-1 -3 -4 -4 -2 -2 1 1)
1969-12-31 18:00:12.977415054,(-3 -2 -5 -6 -1 -3 2 0)
1969-12-31 18:00:12.977415054,(2 2 2 2 4 -1 2 4)
1969-12-31 18:00:12.985091094,(-1 2 -2 -2 -1 -3 0 1)
1969-12-31 18:00:12.985091094,(-5 -5 -4 -1 2 -2 -1 1)
1969-12-31 18:00:13.002636328,(-2 -5 -3 -3 0 0 -1 -2)
1969-12-31 18:00:13.003732905,(1 3 2 0 -2 -1 -1 0)
1969-12-31 18:00:13.004829482,(0 -3 -9 -8 -4 -2 -3 -2)
1969-12-31 18:00:13.004829482,(0 -6 2 5 1 -1 1 -1)
1969-12-31 18:00:13.019084985,(-2 1 -4 0 -1 -3 -2 -2)
1969-12-31 18:00:13.019084985,(0 7 6 7 1 -1 2 3)
1969-12-31 18:00:13.026761024,(2 8 6 4 2 -5 -2 -4)
1969-12-31 18:00:13.026761024,(-4 -6 -6 1 -2 -3 1 1)
1969-12-31 18:00:13.043209681,(-1 -5 -7 -4 -2 -5 2 3)
1969-12-31 18:00:13.043209681,(-4 -11 -8 -6 -5 -4 6 6)
1969-12-31 18:00:13.050885721,(0 8 1 1 -1 0 0 -1)
1969-12-31 18:00:13.050885721,(-4 -5 -6 -2 -3 -1 1 -3)
1969-12-31 18:00:13.058561761,(-2 -1 3 1 -2 -3 -1 -2)
1969-12-31 18:00:13.059658338,(1 0 -4 -11 -50 -32 -7 0)
1969-12-31 18:00:13.068430955,(-2 -7 -3 3 51 35 3 2)
1969-12-31 18:00:13.068430955,(-6 -3 -3 -5 -4 0 2 3)
1969-12-31 18:00:13.084879611,(-2 -1 -2 2 8 8 0 -1)
1969-12-31 18:00:13.084879611,(0 3 1 2 3 2 -1 -4)
1969-12-31 18:00:13.100231691,(-1 -6 -4 -4 -25 -19 0 0)
1969-12-31 18:00:13.100231691,(0 3 2 2 2 1 -3 -2)
1969-12-31 18:00:13.109004308,(1 -1 -1 1 -2 -1 -1 -1)
1969-12-31 18:00:13.109004308,(-1 -2 1 -1 -1 0 -3 -3)
1969-12-31 18:00:13.116680348,(-2 -1 -1 -1 -7 -3 -1 -3)
1969-12-31 18:00:13.116680348,(-1 -1 -1 0 4 4 0 -2)
1969-12-31 18:00:13.124356388,(0 -2 2 0 -8 -5 -3 -1)
1969-12-31 18:00:13.124356388,(3 4 5 4 12 8 -1 -3)
1969-12-31 18:00:13.134225582,(-2 -7 -3 -4 -5 -2 -3 -3)
1969-12-31 18:00:13.134225582,(-1 0 -3 -5 -3 -2 -5 -3)
1969-12-31 18:00:13.150674238,(-1 -3 2 0 -2 -2 -1 -3)
1969-12-31 18:00:13.150674238,(-1 -1 1 1 11 6 -1 -2)
1969-12-31 18:00:13.158350278,(-3 -4 -6 -5 -6 -3 -3 -1)
1969-12-31 18:00:13.158350278,(-1 -1 0 -1 -6 -6 -4 -3)
1969-12-31 18:00:13.176992089,(-3 1 -4 -3 2 2 -1 -1)
1969-12-31 18:00:13.176992089,(-2 -1 -3 2 9 6 -1 -1)
1969-12-31 18:00:13.191247591,(-1 0 -2 1 -9 -5 1 -1)
1969-12-31 18:00:13.191247591,(0 1 -2 -1 -2 -4 0 1)
1969-12-31 18:00:13.208792825,(-2 -3 1 -1 2 0 0 2)
1969-12-31 18:00:13.208792825,(-1 1 0 1 1 0 1 0)
1969-12-31 18:00:13.209889402,(-1 0 1 -2 -5 -3 0 1)
1969-12-31 18:00:13.209889402,(-1 0 0 1 0 1 1 0)
1969-12-31 18:00:13.225241482,(-3 0 -1 0 1 -1 -1 0)
1969-12-31 18:00:13.225241482,(-1 -2 -2 2 0 0 -1 -1)
1969-12-31 18:00:13.227434636,(-2 -3 -1 -2 -2 -1 -2 -3)
1969-12-31 18:00:13.227434636,(1 1 2 4 0 -1 -2 0)
1969-12-31 18:00:13.240593562,(-1 0 -1 1 -6 -3 -1 -3)
1969-12-31 18:00:13.240593562,(0 1 -1 1 3 1 -2 -1)
1969-12-31 18:00:13.248269601,(-1 0 -2 1 1 -2 0 2)
1969-12-31 18:00:13.248269601,(-1 -2 0 0 -1 0 1 -2)
1969-12-31 18:00:13.274587452,(-1 -1 -2 -5 -4 -3 -2 0)
1969-12-31 18:00:13.274587452,(-2 -1 0 -3 1 0 -2 0)
1969-12-31 18:00:13.275684029,(-1 -2 1 0 0 -2 0 -1)
1969-12-31 18:00:13.276780605,(-2 -1 -1 -3 -2 -1 -1 -2)
1969-12-31 18:00:13.282263492,(-1 2 4 3 4 0 0 -1)
1969-12-31 18:00:13.282263492,(-1 0 -1 -3 3 0 -1 -1)
1969-12-31 18:00:13.289939532,(0 0 0 0 -1 -3 -1 1)
1969-12-31 18:00:13.289939532,(-2 0 -1 -5 -2 -2 -1 -2)
1969-12-31 18:00:13.306388188,(0 -2 -2 -4 -2 0 -2 0)
1969-12-31 18:00:13.306388188,(-2 -1 0 -4 -1 0 1 -2)
1969-12-31 18:00:13.314064228,(-2 -1 -1 -2 1 -1 -2 -1)
1969-12-31 18:00:13.314064228,(-1 -1 -1 -2 0 1 1 0)
1969-12-31 18:00:13.332706039,(-1 -1 -1 3 2 1 0 -1)
1969-12-31 18:00:13.332706039,(-1 -2 -1 -1 0 -2 -2 0)
1969-12-31 18:00:13.339285502,(-1 0 -1 0 0 -1 0 -1)
1969-12-31 18:00:13.339285502,(1 0 -1 -2 -1 -1 0 -2)
1969-12-31 18:00:13.348058119,(-1 -1 0 -1 -2 0 0 -1)
1969-12-31 18:00:13.348058119,(-2 -4 -5 0 -1 -2 -2 -3)
1969-12-31 18:00:13.355734158,(-1 -2 -2 -2 0 1 0 0)
1969-12-31 18:00:13.355734158,(-1 2 4 3 1 -2 -1 2)
1969-12-31 18:00:13.372182815,(-2 -1 -3 -2 -1 -3 -1 -1)
1969-12-31 18:00:13.372182815,(-1 -1 -3 -4 0 1 -2 -1)
1969-12-31 18:00:13.379858855,(1 0 1 -1 -2 0 -2 -2)
1969-12-31 18:00:13.379858855,(-2 -1 -1 -2 0 1 -2 -2)
1969-12-31 18:00:13.397404089,(-1 -1 -2 -3 -2 0 0 -1)
1969-12-31 18:00:13.397404089,(-2 1 1 0 0 -1 -1 0)
1969-12-31 18:00:13.399597243,(-1 -2 -3 -1 -1 -2 -1 0)
1969-12-31 18:00:13.399597243,(-2 -2 -4 -1 -3 -4 -1 -1)
1969-12-31 18:00:13.413852745,(-1 -2 -1 0 -1 -1 0 -1)
1969-12-31 18:00:13.413852745,(-1 -1 -2 -2 -3 0 1 -2)
1969-12-31 18:00:13.421528785,(-2 -1 -1 -4 -4 -1 0 -1)
1969-12-31 18:00:13.421528785,(0 0 -2 -2 -1 0 -1 -1)
1969-12-31 18:00:13.421528785,(-3 -3 1 -1 -3 -4 -2 -2)
1969-12-31 18:00:13.421528785,(-13 -6 -12 -7 -4 -1 -5 -28)
1969-12-31 18:00:13.422625362,(12 3 2 -6 -2 -2 2 14)
1969-12-31 18:00:13.422625362,(-1 6 6 4 2 0 -1 -1)
1969-12-31 18:00:13.445653482,(-2 -4 1 -1 -1 2 -4 -7)
1969-12-31 18:00:13.445653482,(-7 -8 -11 -2 0 -1 -4 -18)
1969-12-31 18:00:13.446750059,(-4 -1 -11 -7 -3 -2 -1 -1)
1969-12-31 18:00:13.446750059,(-3 5 20 11 -2 -3 -9 -20)
1969-12-31 18:00:13.462102138,(1 3 7 9 2 4 4 13)
1969-12-31 18:00:13.462102138,(5 -2 2 -2 -4 -2 -2 6)
1969-12-31 18:00:13.463198715,(-1 -5 -7 -2 -1 -1 -6 -8)
1969-12-31 18:00:13.463198715,(-4 -11 -21 -22 -6 1 2 4)
1969-12-31 18:00:13.487323412,(-5 -7 -8 -10 -3 -3 1 -2)
1969-12-31 18:00:13.487323412,(10 18 21 22 7 0 0 8)
1969-12-31 18:00:13.488419989,(-3 0 9 -6 -1 3 2 4)
1969-12-31 18:00:13.488419989,(4 4 0 -5 -2 0 0 0)
1969-12-31 18:00:13.512544686,(-4 -2 4 22 5 -2 -6 -6)
1969-12-31 18:00:13.512544686,(-1 -6 -9 -8 -1 1 -1 1)
1969-12-31 18:00:13.513641263,(-1 -4 -3 6 -1 0 1 2)
1969-12-31 18:00:13.513641263,(-4 2 -6 -6 -6 -8 -10 -15)
1969-12-31 18:00:13.530089919,(-3 1 -7 -14 -4 -1 10 9)
1969-12-31 18:00:13.530089919,(6 4 -3 1 -1 -5 2 11)
1969-12-31 18:00:13.531186496,(-8 -8 -11 -6 -6 -6 1 -2)
1969-12-31 18:00:13.531186496,(-2 -5 -5 -8 -5 -5 -4 -2)
1969-12-31 18:00:13.553118039,(-3 -2 -4 0 1 -5 -3 -2)
1969-12-31 18:00:13.553118039,(-1 -3 0 -3 -3 -8 -10 -2)
1969-12-31 18:00:13.554214616,(4 6 2 -2 0 -3 -1 2)
1969-12-31 18:00:13.554214616,(-1 -4 -2 4 1 6 11 7)
1969-12-31 18:00:13.577242735,(5 6 11 2 -1 2 2 2)
1969-12-31 18:00:13.577242735,(-6 -4 2 -3 -4 6 1 -3)
1969-12-31 18:00:13.578339312,(-4 -2 4 -1 -4 0 -18 -27)
1969-12-31 18:00:13.578339312,(3 -1 4 6 1 4 -4 1)
1969-12-31 18:00:13.593691392,(2 1 6 2 0 1 -4 -4)
1969-12-31 18:00:13.593691392,(-1 -2 -1 -4 -2 1 -3 -2)
1969-12-31 18:00:13.594787969,(-1 -2 -4 0 0 3 5 5)
1969-12-31 18:00:13.594787969,(-2 -5 0 3 1 1 -3 -6)
1969-12-31 18:00:13.618912665,(1 4 0 -2 -1 -1 -4 -3)
1969-12-31 18:00:13.618912665,(2 -4 -4 -4 -2 -2 -1 1)
1969-12-31 18:00:13.620009243,(-3 -3 -11 -4 0 -4 0 0)
1969-12-31 18:00:13.620009243,(-1 1 8 5 1 -5 4 3)
1969-12-31 18:00:13.651809979,(-2 -4 -4 -4 -1 -5 0 4)
1969-12-31 18:00:13.652906556,(7 -11 -27 -9 -3 -3 3 7)
1969-12-31 18:00:13.652906556,(-2 37 47 12 5 1 8 4)
1969-12-31 18:00:13.652906556,(-4 -4 -8 -1 2 0 -8 -1)
1969-12-31 18:00:13.659486019,(-3 -6 -4 -2 -2 0 1 1)
1969-12-31 18:00:13.659486019,(0 -1 2 1 0 1 4 4)
1969-12-31 18:00:13.660582596,(3 -6 -13 -4 -4 -1 2 -3)
1969-12-31 18:00:13.660582596,(-5 -15 -11 -2 2 -2 -9 -4)
1969-12-31 18:00:13.684707292,(-2 10 7 1 -1 -2 0 -8)
1969-12-31 18:00:13.684707292,(-7 -12 -11 -5 -1 -2 -4 2)
1969-12-31 18:00:13.685803869,(7 -7 -9 2 5 -1 -9 -9)
1969-12-31 18:00:13.685803869,(4 8 -1 -3 -5 -4 7 17)
1969-12-31 18:00:13.708831989,(-4 -14 -16 -6 -3 -1 -1 -4)
1969-12-31 18:00:13.708831989,(10 12 12 7 2 5 6 -2)
1969-12-31 18:00:13.709928566,(-14 -18 -11 -4 -4 -7 -8 -7)
1969-12-31 18:00:13.709928566,(-3 24 17 5 4 -1 2 -5)
1969-12-31 18:00:13.724184068,(3 3 0 -4 -1 -1 6 5)
1969-12-31 18:00:13.724184068,(4 -1 2 -3 -2 -3 12 20)
1969-12-31 18:00:13.734053262,(-18 -17 -10 -3 -3 -1 -3 1)
1969-12-31 18:00:13.734053262,(5 -3 -6 -1 -3 3 -8 -11)
1969-12-31 18:00:13.750501919,(-5 -1 -3 -2 -2 -4 -11 4)
1969-12-31 18:00:13.750501919,(-13 -2 0 1 -2 -2 4 5)
1969-12-31 18:00:13.751598496,(10 3 -3 0 3 3 12 18)
1969-12-31 18:00:13.751598496,(-2 2 -1 -3 -3 -1 -7 -15)
1969-12-31 18:00:13.774626615,(-14 1 11 3 2 8 -5 -23)
1969-12-31 18:00:13.774626615,(17 0 1 -2 -1 -12 -21 -4)
1969-12-31 18:00:13.775723193,(-18 -11 -9 -3 1 -5 -11 -14)
1969-12-31 18:00:13.775723193,(-18 1 -9 -2 6 -12 13 7)
1969-12-31 18:00:13.789978695,(41 20 -1 6 15 35 1 -13)
1969-12-31 18:00:13.789978695,(-7 0 -1 -3 -14 -44 -3 21)
1969-12-31 18:00:13.799847889,(-10 -16 6 -7 -18 9 -8 -13)
1969-12-31 18:00:13.799847889,(22 7 19 6 -3 6 -41 -31)
1969-12-31 18:00:13.817393123,(-1 -2 18 6 -5 11 2 -15)
1969-12-31 18:00:13.817393123,(-11 0 7 1 0 20 -6 -26)
1969-12-31 18:00:13.818489700,(27 16 11 6 3 10 7 14)
1969-12-31 18:00:13.818489700,(-6 -14 -1 0 -1 -2 4 4)
1969-12-31 18:00:13.840421242,(-8 -8 -13 -9 -9 -14 -4 13)
1969-12-31 18:00:13.840421242,(23 7 8 6 8 11 9 2)
1969-12-31 18:00:13.841517819,(-4 -1 2 4 8 -3 2 13)
1969-12-31 18:00:13.841517819,(25 6 -13 -10 1 17 5 -3)
1969-12-31 18:00:13.855773322,(-89 -51 -17 -10 -10 -28 -6 -20)
1969-12-31 18:00:13.855773322,(20 8 -6 -5 -2 0 3 14)
1969-12-31 18:00:13.865642516,(9 3 -5 1 2 1 -2 11)
1969-12-31 18:00:13.865642516,(15 9 2 0 1 -7 17 39)
1969-12-31 18:00:13.882091173,(29 11 5 5 -2 -2 -6 -15)
1969-12-31 18:00:13.882091173,(-18 -10 -5 -3 -1 -1 -3 -10)
1969-12-31 18:00:13.883187750,(-17 -2 -6 -3 -4 4 11 -20)
1969-12-31 18:00:13.883187750,(-4 -8 -2 2 -2 -7 1 12)
1969-12-31 18:00:13.906215869,(48 22 6 10 3 -1 17 73)
1969-12-31 18:00:13.906215869,(-73 -22 -5 4 0 -7 -20 -58)
1969-12-31 18:00:13.907312446,(28 21 5 7 6 1 -15 -5)
1969-12-31 18:00:13.907312446,(9 4 -7 -9 -8 -16 15 21)
1969-12-31 18:00:13.922664526,(-24 -18 -3 -6 2 29 15 -18)
1969-12-31 18:00:13.922664526,(26 4 -3 -5 -2 12 8 11)
1969-12-31 18:00:13.931437143,(-13 -8 -5 -7 -1 10 23 19)
1969-12-31 18:00:13.931437143,(-13 4 4 2 9 24 -9 -3)
1969-12-31 18:00:13.947885799,(28 15 5 1 -4 -43 41 65)
1969-12-31 18:00:13.947885799,(-18 -5 2 -5 1 11 8 -4)
1969-12-31 18:00:13.947885799,(-9 -7 -12 -13 -8 -4 -48 -67)
1969-12-31 18:00:13.947885799,(-29 -11 1 0 -5 -23 7 -27)
1969-12-31 18:00:13.972010496,(12 14 2 -2 -2 -15 -20 -7)
1969-12-31 18:00:13.972010496,(-14 -17 -3 -2 0 14 11 3)
1969-12-31 18:00:13.973107073,(8 -4 8 8 0 -11 3 12)
1969-12-31 18:00:13.973107073,(-1 -1 -6 -5 -7 -10 -16 -18)
1969-12-31 18:00:13.987362575,(-4 9 2 1 8 22 -9 -57)
1969-12-31 18:00:13.988459153,(-12 -20 -13 -11 -13 -39 -11 -33)
1969-12-31 18:00:13.997231769,(3 11 9 6 17 60 22 34)
1969-12-31 18:00:13.997231769,(5 4 1 2 -6 -11 -9 -8)
1969-12-31 18:00:14.022453043,(9 -7 -7 -8 1 38 15 9)
1969-12-31 18:00:14.022453043,(42 24 12 15 11 3 -32 27)
1969-12-31 18:00:14.023549620,(-17 -10 -7 -6 -11 -46 -8 -23)
1969-12-31 18:00:14.023549620,(-30 -11 1 3 0 -10 7 21)
1969-12-31 18:00:14.037805122,(-9 -2 -3 -5 -10 -3 -28 -68)
1969-12-31 18:00:14.037805122,(71 33 11 4 0 -13 29 70)
1969-12-31 18:00:14.038901700,(-39 -43 -23 -9 -8 11 -2 -10)
1969-12-31 18:00:14.038901700,(-13 -14 -3 -4 -2 21 -4 0)
1969-12-31 18:00:14.053157202,(20 12 1 2 -2 -31 -36 37)
1969-12-31 18:00:14.054253779,(-7 -7 -5 -3 -4 5 10 -2)
1969-12-31 18:00:14.063026396,(0 14 8 8 4 10 27 23)
1969-12-31 18:00:14.063026396,(-27 -24 -13 -9 -9 -33 -33 -47)
1969-12-31 18:00:14.079475053,(10 6 6 6 9 10 11 35)
1969-12-31 18:00:14.079475053,(-4 1 3 -2 -4 14 -12 -21)
1969-12-31 18:00:14.079475053,(18 25 14 12 15 -20 -5 39)
1969-12-31 18:00:14.079475053,(-7 -11 -8 -3 -3 32 31 -9)
1969-12-31 18:00:14.103599749,(-34 -16 -8 -9 -10 -50 17 12)
1969-12-31 18:00:14.103599749,(23 8 4 5 10 40 -29 4)
1969-12-31 18:00:14.104696326,(-13 -6 -1 -2 -8 -37 -12 -25)
1969-12-31 18:00:14.104696326,(33 19 9 8 8 32 26 6)
1969-12-31 18:00:14.128821023,(-3 -2 -6 -5 -5 -11 -30 -20)
1969-12-31 18:00:14.128821023,(-7 2 1 1 4 -7 5 9)
1969-12-31 18:00:14.136497063,(16 -3 0 -2 2 -1 18 42)
1969-12-31 18:00:14.136497063,(37 9 -3 -3 -4 -18 -1 39)
1969-12-31 18:00:14.145269680,(31 13 5 2 -2 -7 10 20)
1969-12-31 18:00:14.145269680,(-43 -16 -5 -2 -2 7 -16 -33)
1969-12-31 18:00:14.145269680,(40 20 11 8 -1 -36 17 69)
1969-12-31 18:00:14.145269680,(-37 -11 -8 -6 2 54 29 -42)
1969-12-31 18:00:14.169394376,(-11 -7 3 7 9 26 10 35)
1969-12-31 18:00:14.169394376,(3 8 0 -2 3 -14 -5 -15)
1969-12-31 18:00:14.170490953,(-19 -4 -4 -6 -22 -16 5 -61)
1969-12-31 18:00:14.170490953,(1 -6 -6 -7 -13 -29 -32 -3)
1969-12-31 18:00:14.194615650,(-15 -7 4 1 0 18 25 5)
1969-12-31 18:00:14.194615650,(-39 -24 -7 -7 -4 10 -12 -37)
1969-12-31 18:00:14.195712227,(4 5 3 0 6 -66 -21 -6)
1969-12-31 18:00:14.195712227,(14 6 2 -1 -7 6 -2 10)
1969-12-31 18:00:14.211064306,(-24 -2 -3 -2 -10 -36 -15 -35)
1969-12-31 18:00:14.211064306,(46 6 -4 0 -4 -30 16 54)
1969-12-31 18:00:14.211064306,(-23 -10 -15 -27 -5 34 -20 -32)
1969-12-31 18:00:14.212160884,(0 3 2 -2 -1 21 7 -3)
1969-12-31 18:00:14.235189003,(9 9 6 24 -6 -91 14 -38)
1969-12-31 18:00:14.235189003,(4 4 5 14 34 28 9 4)
1969-12-31 18:00:14.236285580,(-11 -12 -3 9 2 65 -14 -20)
1969-12-31 18:00:14.236285580,(26 7 -5 -15 6 4 -15 3)
1969-12-31 18:00:14.260410276,(-61 -29 -16 -18 -21 -17 -16 -56)
1969-12-31 18:00:14.261506854,(10 2 12 24 25 38 73 43)
1969-12-31 18:00:14.261506854,(-21 1 -3 -16 -36 -41 -57 -66)
1969-12-31 18:00:14.261506854,(-13 2 8 15 8 -4 27 3)
1969-12-31 18:00:14.276858932,(42 25 11 8 17 61 -22 16)
1969-12-31 18:00:14.276858932,(-21 -21 -11 -16 -22 -46 -3 0)
1969-12-31 18:00:14.276858932,(16 8 -8 -17 -9 1 25 0)
1969-12-31 18:00:14.276858932,(1 -5 -10 -13 -11 19 -19 1)
1969-12-31 18:00:14.300983630,(-17 -4 10 26 33 22 -18 -18)
1969-12-31 18:00:14.300983630,(-32 -4 -5 -4 -9 32 25 -16)
1969-12-31 18:00:14.302080207,(24 6 3 12 13 25 15 25)
1969-12-31 18:00:14.302080207,(7 5 0 -15 -5 33 -3 5)
1969-12-31 18:00:14.328398057,(22 13 3 2 -11 -53 2 18)
1969-12-31 18:00:14.328398057,(-4 -2 -3 -19 -24 -66 24 18)
1969-12-31 18:00:14.329494635,(-7 -22 -7 26 39 79 -49 -33)
1969-12-31 18:00:14.329494635,(-21 0 5 12 4 -23 8 -7)
1969-12-31 18:00:14.342653560,(3 -4 -4 -15 -23 -17 7 23)
1969-12-31 18:00:14.342653560,(-7 -13 -7 -14 -4 11 -37 -42)
1969-12-31 18:00:14.342653560,(-12 -4 -6 -3 13 11 11 13)
1969-12-31 18:00:14.342653560,(11 2 4 3 -13 -63 3 -8)
1969-12-31 18:00:14.366778256,(-3 -4 -12 -44 -30 36 -57 -25)
1969-12-31 18:00:14.366778256,(0 10 4 21 13 7 7 -17)
1969-12-31 18:00:14.367874834,(8 2 6 20 20 10 40 37)
1969-12-31 18:00:14.367874834,(-6 -8 4 20 38 12 -12 -7)
1969-12-31 18:00:14.391999530,(-5 -9 -6 2 16 20 10 13)
1969-12-31 18:00:14.391999530,(-5 6 -3 -17 -25 5 20 -9)
1969-12-31 18:00:14.399675570,(-2 0 0 -5 -24 -29 -24 2)
1969-12-31 18:00:14.399675570,(-7 -2 -5 -7 -5 -21 -1 17)
1969-12-31 18:00:14.408448187,(-1 -11 -10 -6 -11 4 19 -7)
1969-12-31 18:00:14.408448187,(-5 7 6 9 5 -37 -42 -22)
1969-12-31 18:00:14.408448187,(11 9 9 12 21 -39 12 15)
1969-12-31 18:00:14.408448187,(-7 -7 -6 -14 -37 20 13 4)
1969-12-31 18:00:14.434766037,(-8 -11 -10 -14 -6 13 19 1)
1969-12-31 18:00:14.434766037,(2 5 5 12 54 93 10 14)
1969-12-31 18:00:14.434766037,(-21 -18 -2 8 19 18 -8 -45)
1969-12-31 18:00:14.434766037,(13 1 -5 -18 -80 -86 -21 -1)
1969-12-31 18:00:14.457794157,(-12 -10 -6 -4 -13 -39 -50 -11)
1969-12-31 18:00:14.457794157,(10 5 5 19 8 -13 2 31)
1969-12-31 18:00:14.458890734,(9 7 -1 -11 41 60 32 23)
1969-12-31 18:00:14.458890734,(-1 1 4 25 60 37 7 12)
1969-12-31 18:00:14.474242814,(-1 -1 -2 -7 -76 -54 -3 -7)
1969-12-31 18:00:14.474242814,(13 2 -7 -22 -45 -41 -18 7)
1969-12-31 18:00:14.474242814,(6 0 -3 -9 -8 27 38 19)
1969-12-31 18:00:14.474242814,(-12 -7 -3 -9 -31 -61 -37 -22)
1969-12-31 18:00:14.498367510,(4 8 14 29 77 50 11 4)
1969-12-31 18:00:14.498367510,(1 5 -13 -12 -29 -30 -25 -28)
1969-12-31 18:00:14.499464087,(5 -13 -8 -27 -54 -19 16 41)
1969-12-31 18:00:14.499464087,(3 21 18 18 24 39 9 5)
1969-12-31 18:00:14.523588784,(8 -21 -19 -11 5 1 5 -13)
1969-12-31 18:00:14.523588784,(17 33 62 41 50 46 13 30)
1969-12-31 18:00:14.524685361,(-12 -48 -67 -15 -10 -18 -19 -54)
1969-12-31 18:00:14.524685361,(-15 11 27 1 0 5 12 8)
1969-12-31 18:00:14.548810057,(45 49 28 22 11 10 -21 30)
1969-12-31 18:00:14.548810057,(-11 -48 -40 -32 -13 -18 -32 -67)
1969-12-31 18:00:14.549906634,(-8 27 69 35 8 -1 14 31)
1969-12-31 18:00:14.549906634,(16 -2 0 17 51 28 17 32)
1969-12-31 18:00:14.564162137,(4 -36 -30 -8 -4 25 23 7)
1969-12-31 18:00:14.564162137,(-29 -1 -47 -24 -29 -43 -18 -36)
1969-12-31 18:00:14.565258714,(-41 -18 0 -13 -4 -29 -32 -33)
1969-12-31 18:00:14.565258714,(-17 17 36 16 -28 -33 -17 -32)
1969-12-31 18:00:14.589383410,(0 21 23 -3 5 38 28 18)
1969-12-31 18:00:14.589383410,(-4 -16 -1 5 15 -4 -20 11)
1969-12-31 18:00:14.590479987,(27 -40 -73 -18 -24 -4 28 14)
1969-12-31 18:00:14.590479987,(11 62 72 25 40 28 8 -22)
1969-12-31 18:00:14.605832067,(-3 -83 -77 -25 -15 -7 6 24)
1969-12-31 18:00:14.605832067,(-52 34 41 4 0 4 9 -67)
1969-12-31 18:00:14.605832067,(14 45 20 4 9 -4 -32 0)
1969-12-31 18:00:14.605832067,(-6 23 53 17 3 11 3 29)
1969-12-31 18:00:14.629956764,(25 28 -15 -8 9 6 -19 -19)
1969-12-31 18:00:14.629956764,(44 -70 -67 -16 44 37 36 61)
1969-12-31 18:00:14.638729380,(15 -16 -22 0 -46 -60 -4 63)
1969-12-31 18:00:14.638729380,(32 -52 -62 -1 19 24 5 14)
1969-12-31 18:00:14.663950654,(-74 92 113 -2 -86 -50 -27 -43)
1969-12-31 18:00:14.663950654,(5 -33 -38 -18 -22 -15 -7 -32)
1969-12-31 18:00:14.665047231,(32 30 29 -1 -1 21 14 27)
1969-12-31 18:00:14.665047231,(17 63 49 45 55 11 -13 -9)
1969-12-31 18:00:14.671626694,(109 -57 -55 18 53 46 33 90)
1969-12-31 18:00:14.671626694,(7 -3 -9 -7 17 14 -1 47)
1969-12-31 18:00:14.671626694,(-31 5 28 37 66 43 -9 -7)
1969-12-31 18:00:14.671626694,(-52 -66 -39 -58 -116 -103 -54 -84)
1969-12-31 18:00:14.696847967,(33 23 -35 -32 32 17 -1 19)
1969-12-31 18:00:14.696847967,(-27 57 67 25 1 -11 25 -9)
1969-12-31 18:00:14.697944545,(-7 1 2 5 42 30 -16 0)
1969-12-31 18:00:14.697944545,(-18 -30 -45 -9 -1 9 -5 -56)
1969-12-31 18:00:14.720972664,(-29 -112 -90 -23 -21 -10 16 45)
1969-12-31 18:00:14.720972664,(7 81 35 -3 -3 10 -27 -70)
1969-12-31 18:00:14.722069241,(0 72 51 34 -6 -1 36 23)
1969-12-31 18:00:14.722069241,(6 -8 -15 21 90 52 -2 15)
1969-12-31 18:00:14.736324743,(-9 -29 -7 -4 -51 1 5 -30)
1969-12-31 18:00:14.736324743,(31 -101 -61 -6 -1 6 31 54)
1969-12-31 18:00:14.745097360,(-19 -28 -11 -13 -34 -82 -50 -66)
1969-12-31 18:00:14.745097360,(56 -64 -128 -94 -93 -32 9 55)
1969-12-31 18:00:14.762642594,(-95 116 110 61 34 22 14 -79)
1969-12-31 18:00:14.762642594,(56 10 -4 25 54 46 -1 51)
1969-12-31 18:00:14.762642594,(-12 5 -18 -30 -73 -35 -3 -40)
1969-12-31 18:00:14.762642594,(-28 -21 -17 1 14 -3 3 -21)
1969-12-31 18:00:14.787863868,(67 -43 -28 -7 37 16 4 9)
1969-12-31 18:00:14.787863868,(-23 -17 -23 19 11 12 20 41)
1969-12-31 18:00:14.787863868,(-2 40 29 -25 -22 20 7 -24)
1969-12-31 18:00:14.787863868,(-13 -56 -49 -26 -3 -13 4 20)
1969-12-31 18:00:14.802119370,(-28 41 41 14 -31 -44 -16 -5)
1969-12-31 18:00:14.802119370,(2 -2 -7 -8 -22 -33 -43 -30)
1969-12-31 18:00:14.810891987,(35 13 29 35 51 43 2 16)
1969-12-31 18:00:14.810891987,(6 17 -22 -30 -92 -67 4 -6)
1969-12-31 18:00:14.828437221,(-67 -30 32 4 31 16 -7 21)
1969-12-31 18:00:14.828437221,(-21 25 -8 -6 2 -20 -8 -34)
1969-12-31 18:00:14.829533798,(-17 -17 -37 -17 -13 17 5 3)
1969-12-31 18:00:14.829533798,(19 91 108 43 20 52 16 -12)
1969-12-31 18:00:14.854755072,(0 -82 -58 -10 16 -36 1 -8)
1969-12-31 18:00:14.854755072,(-11 -111 -105 -56 -53 -28 -40 -12)
1969-12-31 18:00:14.855851649,(-19 60 58 24 41 17 10 0)
1969-12-31 18:00:14.855851649,(-27 28 30 19 0 -8 -7 -6)
1969-12-31 18:00:14.867913997,(18 2 -51 -22 -26 -15 -21 -3)
1969-12-31 18:00:14.867913997,(-56 91 127 72 64 38 31 -28)
1969-12-31 18:00:14.877783191,(54 -100 -94 -24 -30 -14 -19 21)
1969-12-31 18:00:14.877783191,(26 -73 -89 -31 49 23 -7 36)
1969-12-31 18:00:14.893135271,(-59 61 56 9 -18 17 7 -45)
1969-12-31 18:00:14.893135271,(26 60 40 12 -49 -38 -15 -7)
1969-12-31 18:00:14.903004465,(41 -56 -69 -15 69 58 50 63)
1969-12-31 18:00:14.903004465,(-48 11 72 22 -47 -61 -38 -22)
1969-12-31 18:00:14.918356544,(21 42 19 2 -4 -5 5 -14)
1969-12-31 18:00:14.918356544,(8 -92 -60 -12 17 32 10 55)
1969-12-31 18:00:14.920549698,(32 53 40 5 -14 -33 10 1)
1969-12-31 18:00:14.920549698,(52 -71 -92 -31 4 35 -1 26)
1969-12-31 18:00:14.933708624,(-12 -49 -30 8 48 17 6 -1)
1969-12-31 18:00:14.933708624,(18 117 92 27 -24 -2 11 41)
1969-12-31 18:00:14.943577818,(-10 30 18 3 -7 -13 -19 -42)
1969-12-31 18:00:14.943577818,(-37 -48 -21 -8 0 1 27 -1)
1969-12-31 18:00:14.957833320,(11 1 7 -20 -39 -9 -32 4)
1969-12-31 18:00:14.957833320,(4 -34 -26 20 86 28 8 -11)
1969-12-31 18:00:14.968799091,(-4 -24 -29 -28 -113 -113 -46 -10)
1969-12-31 18:00:14.968799091,(-10 0 -20 -34 -37 -15 -18 8)
1969-12-31 18:00:14.984151171,(10 5 21 12 14 9 44 17)
1969-12-31 18:00:14.984151171,(-3 69 47 1 2 14 -10 -25)
1969-12-31 18:00:14.986344325,(2 34 22 7 30 48 33 28)
1969-12-31 18:00:14.986344325,(-43 -40 -9 20 37 8 -8 -42)
1969-12-31 18:00:14.999503251,(43 91 71 35 4 -19 -13 1)
1969-12-31 18:00:14.999503251,(-44 -99 -72 -40 -50 -9 13 -5)
1969-12-31 18:00:15.009372445,(47 -55 -28 -4 5 4 -4 -11)
1969-12-31 18:00:15.009372445,(28 99 21 9 27 21 24 0)
1969-12-31 18:00:15.034593717,(-23 -2 -1 4 15 33 9 -26)
1969-12-31 18:00:15.034593717,(-39 -11 29 11 -5 -12 -69 -40)
1969-12-31 18:00:15.035690295,(-15 -128 -107 -5 107 74 31 -4)
1969-12-31 18:00:15.035690295,(-28 27 -2 -30 -82 -72 -57 -56)
1969-12-31 18:00:15.051042375,(-42 50 30 0 -4 12 -21 -29)
1969-12-31 18:00:15.051042375,(33 -1 -37 -4 33 18 33 42)
1969-12-31 18:00:15.052138952,(35 -103 -90 -23 59 21 -24 23)
1969-12-31 18:00:15.052138952,(-13 99 101 62 -7 25 11 -25)
1969-12-31 18:00:15.065297877,(9 -12 -42 -26 -59 -66 -23 -25)
1969-12-31 18:00:15.065297877,(11 -5 26 1 -6 21 23 -2)
1969-12-31 18:00:15.075167071,(-26 -53 -15 15 17 -27 2 -5)
1969-12-31 18:00:15.075167071,(19 -42 -29 -22 -19 -33 -16 48)
1969-12-31 18:00:15.090519151,(-13 -59 -49 -21 20 17 11 1)
1969-12-31 18:00:15.090519151,(-23 -15 -19 -14 -21 -14 19 -17)
1969-12-31 18:00:15.098195191,(-20 113 80 15 13 31 -8 -3)
1969-12-31 18:00:15.098195191,(-10 17 38 27 34 16 -2 13)
1969-12-31 18:00:15.115740425,(-21 -55 -24 -27 -41 -13 13 -22)
1969-12-31 18:00:15.116837002,(43 40 -8 3 15 10 -25 52)
1969-12-31 18:00:15.117933579,(-17 17 28 7 25 11 -20 -22)
1969-12-31 18:00:15.117933579,(-10 -33 -14 -22 -82 -47 29 49)
1969-12-31 18:00:15.140961698,(20 -51 -66 -4 80 94 49 33)
1969-12-31 18:00:15.140961698,(-3 -55 -22 4 -35 -53 -7 0)
1969-12-31 18:00:15.143154852,(-7 69 19 -26 -95 -82 -26 -2)
1969-12-31 18:00:15.143154852,(2 78 84 60 115 105 24 -30)
1969-12-31 18:00:15.156313778,(24 -68 -69 -41 -44 -44 -17 14)
1969-12-31 18:00:15.156313778,(-27 -12 -13 -19 -25 -11 16 14)
1969-12-31 18:00:15.163989817,(-42 63 65 51 73 74 20 -21)
1969-12-31 18:00:15.163989817,(44 -38 -84 -33 -75 -76 -16 0)
1969-12-31 18:00:15.181535051,(-20 51 84 36 27 12 19 24)
1969-12-31 18:00:15.181535051,(-9 -33 -45 -48 -31 -8 -29 -86)
1969-12-31 18:00:15.183728206,(26 -51 -37 -20 -39 -35 10 36)
1969-12-31 18:00:15.183728206,(3 -31 -29 0 77 68 33 47)
1969-12-31 18:00:15.206756325,(13 2 -44 10 18 -12 -18 -9)
1969-12-31 18:00:15.206756325,(14 37 73 12 -54 -14 -19 8)
1969-12-31 18:00:15.207852902,(-8 58 53 22 64 56 39 28)
1969-12-31 18:00:15.207852902,(50 32 4 16 -50 -43 15 38)
1969-12-31 18:00:15.222108404,(-39 49 82 7 -53 -63 -42 -23)
1969-12-31 18:00:15.222108404,(7 -37 -38 3 40 14 61 69)
1969-12-31 18:00:15.229784444,(49 20 -27 -13 -2 3 -70 -37)
1969-12-31 18:00:15.229784444,(-49 -128 -44 -20 -12 4 50 14)
1969-12-31 18:00:15.247329678,(-26 43 15 -12 -20 -1 -41 -44)
1969-12-31 18:00:15.247329678,(51 66 4 2 -6 5 18 30)
1969-12-31 18:00:15.249522832,(-18 -77 -22 -13 -45 -40 11 4)
1969-12-31 18:00:15.249522832,(-14 9 1 13 66 30 -9 -6)
1969-12-31 18:00:15.272550952,(16 -7 -4 21 71 76 33 66)
1969-12-31 18:00:15.272550952,(-40 -2 25 -1 -54 -45 -29 -58)
1969-12-31 18:00:15.274744105,(26 19 -10 -8 -23 -21 -5 -40)
1969-12-31 18:00:15.274744105,(-11 -25 -2 -8 -4 -2 -28 -22)
1969-12-31 18:00:15.287903031,(4 -38 -22 5 44 67 13 5)
1969-12-31 18:00:15.287903031,(-1 89 50 14 11 -4 16 -7)
1969-12-31 18:00:15.295579071,(-49 -38 -24 -22 -80 -69 -22 16)
1969-12-31 18:00:15.295579071,(31 16 -2 4 71 45 -17 -26)
1969-12-31 18:00:15.314220882,(54 0 1 29 46 12 54 65)
1969-12-31 18:00:15.314220882,(-8 -38 11 -4 -59 -72 -77 -8)
1969-12-31 18:00:15.315317459,(-77 -13 -17 -56 -87 -52 -21 -59)
1969-12-31 18:00:15.315317459,(34 43 1 -3 36 30 29 -6)
1969-12-31 18:00:15.338345578,(-16 -22 -28 6 33 14 -21 10)
1969-12-31 18:00:15.338345578,(-4 17 13 16 24 47 42 19)
1969-12-31 18:00:15.339442156,(0 25 32 23 -2 -11 -7 -17)
1969-12-31 18:00:15.339442156,(-1 -24 -16 -19 -40 -26 -27 -9)
1969-12-31 18:00:15.353697658,(-8 -88 -73 -26 7 -16 -5 -8)
1969-12-31 18:00:15.353697658,(-5 9 14 12 3 2 1 -14)
1969-12-31 18:00:15.361373698,(29 101 50 17 14 53 55 88)
1969-12-31 18:00:15.361373698,(-19 25 33 36 81 47 -6 -28)
1969-12-31 18:00:15.380015509,(-12 -49 -22 -36 -118 -83 -6 -33)
1969-12-31 18:00:15.380015509,(10 -12 -45 -8 39 23 -7 11)
1969-12-31 18:00:15.381112086,(-2 -57 -49 -15 -3 -3 -19 -54)
1969-12-31 18:00:15.381112086,(-8 90 96 57 8 6 22 70)
1969-12-31 18:00:15.404140205,(11 11 -28 9 23 -13 -29 -14)
1969-12-31 18:00:15.404140205,(-23 31 36 -23 -57 -59 -50 -50)
1969-12-31 18:00:15.405236782,(1 -49 -36 -3 29 19 10 0)
1969-12-31 18:00:15.405236782,(-41 -87 -64 -36 -46 -27 23 -1)
1969-12-31 18:00:15.420588862,(35 77 26 22 50 30 -38 -28)
1969-12-31 18:00:15.420588862,(-63 -51 20 16 0 -3 1 -8)
1969-12-31 18:00:15.427168325,(64 83 15 8 0 -3 4 0)
1969-12-31 18:00:15.427168325,(-27 -49 -3 2 0 -4 -19 11)
1969-12-31 18:00:15.444713558,(16 17 -3 -4 17 19 20 -17)
1969-12-31 18:00:15.445810136,(-8 -25 -31 -8 1 -6 -15 -12)
1969-12-31 18:00:15.446906713,(9 9 17 1 -12 0 13 37)
1969-12-31 18:00:15.446906713,(50 11 -36 -12 -5 -11 2 29)
1969-12-31 18:00:15.469934832,(-27 -24 24 17 49 50 29 16)
1969-12-31 18:00:15.469934832,(4 -23 -37 -23 -50 -39 -31 -25)
1969-12-31 18:00:15.471031409,(-57 -8 18 0 -33 -22 16 -13)
1969-12-31 18:00:15.471031409,(58 58 9 -2 12 -3 -49 -39)
1969-12-31 18:00:15.485286912,(-6 11 14 1 -4 2 2 16)
1969-12-31 18:00:15.485286912,(-23 -4 -7 9 76 48 -1 -15)
1969-12-31 18:00:15.494059528,(5 -82 -63 -20 -52 -35 -2 1)
1969-12-31 18:00:15.494059528,(-10 12 -13 -22 -15 0 9 3)
1969-12-31 18:00:15.510508185,(-11 -32 -33 -34 -42 -30 -14 -13)
1969-12-31 18:00:15.510508185,(9 12 44 35 40 24 34 15)
1969-12-31 18:00:15.512701339,(-1 41 37 15 8 -9 -48 -12)
1969-12-31 18:00:15.512701339,(-6 -31 -22 -27 -34 -2 6 6)
1969-12-31 18:00:15.535729459,(13 -23 -25 -7 -29 -31 -1 -19)
1969-12-31 18:00:15.535729459,(14 27 20 -13 20 41 46 34)
1969-12-31 18:00:15.536826036,(30 15 8 17 29 -1 -9 11)
1969-12-31 18:00:15.536826036,(31 19 12 -1 -64 -42 -15 5)
1969-12-31 18:00:15.551081538,(-49 -49 -11 15 74 42 -3 -6)
1969-12-31 18:00:15.551081538,(16 -19 -63 -28 -62 -61 -5 -12)
1969-12-31 18:00:15.560950732,(15 -28 -26 -21 -20 9 -12 9)
1969-12-31 18:00:15.560950732,(-17 24 67 11 8 2 -6 -1)
1969-12-31 18:00:15.577399389,(43 23 -17 -16 -44 -33 6 33)
1969-12-31 18:00:15.577399389,(33 45 44 40 67 50 17 36)
1969-12-31 18:00:15.578495966,(-24 -18 -1 -28 24 26 15 -1)
1969-12-31 18:00:15.578495966,(-16 -31 -25 39 19 -1 15 10)
1969-12-31 18:00:15.601524086,(-7 29 16 8 -3 -2 -16 -30)
1969-12-31 18:00:15.601524086,(4 -39 -43 -8 5 4 -3 -12)
1969-12-31 18:00:15.602620663,(-36 -4 19 6 -3 -5 -1 -13)
1969-12-31 18:00:15.602620663,(15 18 5 -7 10 8 2 -21)
1969-12-31 18:00:15.616876165,(-27 39 52 23 5 12 5 8)
1969-12-31 18:00:15.616876165,(-3 -30 -32 -18 -16 6 20 35)
1969-12-31 18:00:15.626745359,(-25 -17 -6 -7 -27 -37 -29 -25)
1969-12-31 18:00:15.626745359,(76 25 -12 -1 29 15 6 16)
1969-12-31 18:00:15.643194016,(-13 -2 15 -6 -28 -16 -4 3)
1969-12-31 18:00:15.643194016,(20 -9 -31 -37 -30 -4 3 11)
1969-12-31 18:00:15.644290593,(-29 -1 10 16 46 49 -11 -42)
1969-12-31 18:00:15.644290593,(-32 2 14 42 35 -27 -11 -7)
1969-12-31 18:00:15.667318712,(48 23 5 -25 -53 -24 -5 5)
1969-12-31 18:00:15.667318712,(-68 -41 -17 49 43 8 -7 -30)
1969-12-31 18:00:15.668415289,(15 16 14 10 9 12 13 8)
1969-12-31 18:00:15.668415289,(1 -2 -13 -17 -6 5 -11 -17)
1969-12-31 18:00:15.682670792,(7 -23 2 -10 -16 -11 6 29)
1969-12-31 18:00:15.682670792,(-18 6 -3 -17 -4 6 -6 -13)
1969-12-31 18:00:15.692539986,(13 1 5 8 0 -6 32 21)
1969-12-31 18:00:15.692539986,(-20 -10 -10 -14 -1 6 4 -21)
1969-12-31 18:00:15.708988643,(47 20 2 -6 -11 -24 7 71)
1969-12-31 18:00:15.708988643,(47 11 5 -2 -2 38 29 22)
1969-12-31 18:00:15.710085220,(-58 -36 -21 -7 -4 -33 -25 4)
1969-12-31 18:00:15.710085220,(11 1 2 -7 6 41 38 22)
1969-12-31 18:00:15.733113339,(45 43 24 15 7 -16 -20 15)
1969-12-31 18:00:15.733113339,(-83 -41 -20 -17 -13 -43 10 -55)
1969-12-31 18:00:15.734209916,(18 0 -9 -23 -4 32 -15 -39)
1969-12-31 18:00:15.735306493,(-25 -13 4 45 32 -8 0 -2)
1969-12-31 18:00:15.748465419,(5 14 7 0 0 12 -7 -19)
1969-12-31 18:00:15.748465419,(70 39 10 -4 -19 21 13 60)
1969-12-31 18:00:15.758334613,(-22 -23 -7 9 7 -29 -6 -22)
1969-12-31 18:00:15.758334613,(-108 -54 -15 -11 0 13 -17 -27)
1969-12-31 18:00:15.773686692,(-11 -2 -4 -6 2 6 -2 -53)
1969-12-31 18:00:15.774783269,(23 8 -1 1 -8 -24 -14 16)
1969-12-31 18:00:15.775879846,(56 30 18 13 6 -3 23 37)
1969-12-31 18:00:15.775879846,(29 14 -1 -12 -10 -1 9 22)
1969-12-31 18:00:15.798907966,(-35 -12 -9 1 -2 -9 1 -14)
1969-12-31 18:00:15.798907966,(18 18 1 -9 -2 -3 4 47)
1969-12-31 18:00:15.800004543,(-30 -1 2 7 3 7 -17 -35)
1969-12-31 18:00:15.800004543,(-34 -37 -16 -17 -12 3 -3 -28)
1969-12-31 18:00:15.814260045,(-40 -15 9 5 -4 -15 1 -10)
1969-12-31 18:00:15.814260045,(30 43 11 6 13 14 -7 6)
1969-12-31 18:00:15.824129239,(24 -4 -5 2 -3 11 15 37)
1969-12-31 18:00:15.824129239,(80 31 10 -1 -2 -9 6 49)
1969-12-31 18:00:15.840577896,(-90 -22 -16 -15 -18 -11 -26 -88)
1969-12-31 18:00:15.840577896,(-38 -27 -6 2 7 3 -12 -19)
1969-12-31 18:00:15.841674473,(0 7 9 10 5 6 14 11)
1969-12-31 18:00:15.841674473,(48 30 -6 -19 -12 -9 -9 4)
1969-12-31 18:00:15.864702593,(27 3 12 12 10 15 18 31)
1969-12-31 18:00:15.864702593,(-32 -22 -6 -2 -1 -5 -13 -30)
1969-12-31 18:00:15.865799170,(0 0 1 -3 -2 -5 5 0)
1969-12-31 18:00:15.865799170,(8 -11 -15 -14 -6 2 -1 5)
1969-12-31 18:00:15.880054672,(38 43 29 17 9 11 12 28)
1969-12-31 18:00:15.880054672,(-24 -19 -12 -8 -3 -12 -17 -27)
1969-12-31 18:00:15.889923866,(13 8 -2 -1 -1 5 4 13)
1969-12-31 18:00:15.889923866,(10 12 7 2 0 4 2 -4)
1969-12-31 18:00:15.906372522,(-14 -27 -16 -5 -6 -8 -4 -8)
1969-12-31 18:00:15.906372522,(-1 -6 -2 -3 -3 -6 -6 -7)
1969-12-31 18:00:15.907469100,(1 -4 4 7 5 6 3 12)
1969-12-31 18:00:15.907469100,(4 3 -10 -10 -8 -3 -2 3)
1969-12-31 18:00:15.930497219,(-15 -8 -6 -5 -7 -8 -4 -12)
1969-12-31 18:00:15.930497219,(16 5 6 6 7 6 2 2)
1969-12-31 18:00:15.931593797,(-14 -4 -4 -2 -1 3 -1 -6)
1969-12-31 18:00:15.931593797,(-13 -5 1 -3 -4 -4 -6 -7)
1969-12-31 18:00:15.955718493,(-7 -6 0 -2 1 2 7 5)
1969-12-31 18:00:15.955718493,(11 3 -7 -3 1 -2 -8 -9)
1969-12-31 18:00:15.956815070,(5 8 1 1 -1 -5 -7 6)
1969-12-31 18:00:15.956815070,(-28 -17 -4 -5 -8 -10 -14 -26)
1969-12-31 18:00:15.971070573,(32 13 5 4 2 5 11 33)
1969-12-31 18:00:15.972167150,(0 3 -4 -2 -2 -2 -6 -31)
1969-12-31 18:00:15.973263727,(-31 -20 -5 -2 -1 -1 -7 -35)
1969-12-31 18:00:15.973263727,(8 6 7 1 3 3 0 13)
1969-12-31 18:00:16.003967886,(-4 -6 -3 -6 -1 -1 4 9)
1969-12-31 18:00:16.005064463,(21 11 4 1 1 1 6 19)
1969-12-31 18:00:16.006161040,(0 2 3 0 -1 -2 -3 0)
1969-12-31 18:00:16.006161040,(-21 -17 -11 -4 -2 -5 -5 -17)
1969-12-31 18:00:16.029189160,(8 6 -8 -5 0 0 0 -9)
1969-12-31 18:00:16.029189160,(6 5 14 5 0 4 2 14)
1969-12-31 18:00:16.031382314,(17 9 -10 -8 -3 0 5 0)
1969-12-31 18:00:16.031382314,(-19 2 22 7 5 3 3 -3)
1969-12-31 18:00:16.036865199,(1 5 0 -2 -1 -1 0 -5)
1969-12-31 18:00:16.036865199,(-9 -29 -32 -17 -7 -3 -20 -8)
1969-12-31 18:00:16.044541239,(10 11 12 3 2 -3 5 14)
1969-12-31 18:00:16.044541239,(-8 -12 -22 -9 -5 -8 -18 -15)
1969-12-31 18:00:16.062086473,(-11 28 45 20 0 0 5 -10)
1969-12-31 18:00:16.062086473,(7 -35 -44 -18 -9 -6 -4 3)
1969-12-31 18:00:16.063183050,(1 43 53 24 6 3 11 -3)
1969-12-31 18:00:16.064279627,(-8 -12 -19 -11 -4 4 -2 -4)
1969-12-31 18:00:16.077438553,(-10 -19 -12 -2 -1 -1 -7 -14)
1969-12-31 18:00:16.077438553,(1 -25 -21 -9 -4 -7 0 5)
1969-12-31 18:00:16.087307747,(-2 0 -29 -16 -6 -6 -11 -1)
1969-12-31 18:00:16.087307747,(-6 29 34 11 3 2 15 0)
1969-12-31 18:00:16.102659826,(0 -32 -29 -8 0 -1 -4 2)
1969-12-31 18:00:16.102659826,(-6 39 54 21 5 1 0 -12)
1969-12-31 18:00:16.110335866,(5 -43 -52 -18 -4 1 4 10)
1969-12-31 18:00:16.110335866,(-6 8 9 5 -2 -7 -16 -7)
1969-12-31 18:00:16.127881100,(7 3 -13 -9 -2 3 -3 2)
1969-12-31 18:00:16.127881100,(-1 1 -5 -3 -2 -2 7 2)
1969-12-31 18:00:16.130074254,(-12 34 68 29 11 4 0 -5)
1969-12-31 18:00:16.130074254,(5 -5 -13 -5 -4 -1 -8 -3)
1969-12-31 18:00:16.152005796,(-1 -16 -13 -2 -3 -5 -3 -1)
1969-12-31 18:00:16.153102373,(7 4 -8 -7 -3 -2 1 2)
1969-12-31 18:00:16.154198950,(-2 2 2 6 2 2 -2 -3)
1969-12-31 18:00:16.154198950,(3 29 36 15 5 2 9 8)
1969-12-31 18:00:16.168454453,(3 -5 -15 -8 -4 -4 -11 -6)
1969-12-31 18:00:16.168454453,(-6 -17 -12 -9 -1 1 7 4)
1969-12-31 18:00:16.175033916,(-7 -11 8 9 7 9 21 7)
1969-12-31 18:00:16.176130493,(2 -13 -21 -11 -5 -8 -28 -5)
1969-12-31 18:00:16.193675726,(-3 2 7 3 1 1 -5 -4)
1969-12-31 18:00:16.193675726,(-16 -12 1 -4 -5 1 7 -3)
1969-12-31 18:00:16.194772304,(9 -22 -37 -23 -12 -6 -15 -2)
1969-12-31 18:00:16.194772304,(-1 35 15 7 2 1 11 -4)
1969-12-31 18:00:16.217800423,(0 -29 -15 -5 -3 4 8 8)
1969-12-31 18:00:16.217800423,(11 22 -4 -3 -3 -6 -14 -4)
1969-12-31 18:00:16.219993577,(-2 12 34 27 10 6 5 3)
1969-12-31 18:00:16.219993577,(-12 -20 -5 -4 -2 1 -1 -3)
1969-12-31 18:00:16.234249080,(-1 -15 -25 -23 -7 -1 -5 -3)
1969-12-31 18:00:16.234249080,(18 23 28 19 7 3 2 1)
1969-12-31 18:00:16.249601159,(4 -1 -20 -5 -4 -4 -5 0)
1969-12-31 18:00:16.249601159,(9 -3 -3 3 1 2 0 -1)
1969-12-31 18:00:16.267146393,(-9 -20 0 -1 1 0 6 3)
1969-12-31 18:00:16.267146393,(-10 -17 -18 -10 -4 -3 -5 -4)
1969-12-31 18:00:16.269339547,(3 7 -11 -12 -8 -4 -9 -9)
1969-12-31 18:00:16.269339547,(-24 -67 -38 -12 -7 -2 -1 -5)
1969-12-31 18:00:16.283595050,(4 29 19 7 2 -4 0 -4)
1969-12-31 18:00:16.284691627,(0 -19 -12 -6 3 2 -1 3)
1969-12-31 18:00:16.285788204,(-21 10 15 -3 -6 -6 -7 -11)
1969-12-31 18:00:16.285788204,(40 5 -22 1 0 -3 10 12)
1969-12-31 18:00:16.300043706,(-7 5 3 3 -1 -5 -3 -4)
1969-12-31 18:00:16.300043706,(-5 18 9 3 3 -4 6 6)
1969-12-31 18:00:16.306623168,(-2 -36 -65 -27 -3 -11 -3 2)
1969-12-31 18:00:16.306623168,(-9 8 -4 -5 3 -7 10 5)
1969-12-31 18:00:16.325264980,(-4 2 -3 -8 -1 -10 7 8)
1969-12-31 18:00:16.325264980,(12 58 22 10 1 -5 4 5)
1969-12-31 18:00:16.326361557,(7 -10 -1 -1 0 -3 1 5)
1969-12-31 18:00:16.326361557,(-6 -6 6 0 -3 -3 -1 1)
1969-12-31 18:00:16.349389677,(0 34 10 -9 -7 -3 -10 -7)
1969-12-31 18:00:16.349389677,(-12 -27 -19 -8 -2 5 -4 -5)
1969-12-31 18:00:16.351582831,(-2 -12 -9 -15 -8 1 -3 -1)
1969-12-31 18:00:16.351582831,(8 37 45 32 10 6 -3 -4)
1969-12-31 18:00:16.364741756,(-9 -13 -3 13 5 4 -1 -2)
1969-12-31 18:00:16.364741756,(-2 -5 9 0 -3 -2 0 -2)
1969-12-31 18:00:16.364741756,(-6 -5 -9 3 -4 -3 -4 -4)
1969-12-31 18:00:16.364741756,(0 -11 -43 6 -4 0 1 5)
1969-12-31 18:00:16.365838333,(5 23 65 64 20 3 -1 -5)
1969-12-31 18:00:16.365838333,(10 24 69 33 10 6 1 3)
1969-12-31 18:00:16.369128065,(-4 -10 -33 -17 -7 1 0 -2)
1969-12-31 18:00:16.369128065,(-4 -3 -11 -14 -5 0 -2 -4)
1969-12-31 18:00:16.378997259,(-4 -10 -21 -23 -12 -3 -3 -1)
1969-12-31 18:00:16.378997259,(-4 -2 21 10 11 6 5 4)
1969-12-31 18:00:16.380093836,(4 2 -10 -16 -7 -5 -5 -5)
1969-12-31 18:00:16.380093836,(-4 -5 -10 -11 -4 0 -2 -5)
1969-12-31 18:00:16.404218532,(0 -4 -10 -14 -5 -2 1 0)
1969-12-31 18:00:16.404218532,(-1 -10 -39 -12 -12 -5 -6 -5)
1969-12-31 18:00:16.405315109,(1 8 46 2 3 3 2 2)
1969-12-31 18:00:16.405315109,(4 9 25 40 14 7 4 5)
1969-12-31 18:00:16.418474035,(3 -3 -12 -12 -1 0 -6 -5)
1969-12-31 18:00:16.418474035,(-4 -10 -9 3 -2 3 0 -1)
1969-12-31 18:00:16.428343229,(-4 -12 -33 -33 -17 -3 -2 -3)
1969-12-31 18:00:16.428343229,(-2 4 27 -18 -30 -13 -7 -9)
1969-12-31 18:00:16.444791885,(0 1 4 27 21 1 8 8)
1969-12-31 18:00:16.444791885,(-5 -1 -24 22 24 -3 9 5)
1969-12-31 18:00:16.445888462,(-3 -6 -18 5 12 -12 -4 -8)
1969-12-31 18:00:16.445888462,(-2 -1 5 -11 -2 -9 5 4)
1969-12-31 18:00:16.468916582,(-6 -9 -30 -35 -21 -11 2 4)
1969-12-31 18:00:16.468916582,(-2 -1 -11 -8 -3 -5 -4 -3)
1969-12-31 18:00:16.477689199,(-1 5 11 13 -1 4 4 4)
1969-12-31 18:00:16.477689199,(1 2 10 0 4 3 -1 3)
1969-12-31 18:00:16.484268661,(-2 -7 -14 -8 -7 -1 -6 -7)
1969-12-31 18:00:16.484268661,(3 6 1 3 -1 0 -2 -1)
1969-12-31 18:00:16.494137855,(2 3 14 -3 -3 3 -3 -1)
1969-12-31 18:00:16.494137855,(-1 -10 -9 2 -3 1 -5 -5)
1969-12-31 18:00:16.510586512,(1 15 20 15 4 3 -1 -4)
1969-12-31 18:00:16.510586512,(1 -5 -3 -10 -10 -2 -4 -2)
1969-12-31 18:00:16.511683089,(-6 -7 8 6 2 0 -1 -1)
1969-12-31 18:00:16.511683089,(2 10 -6 2 4 2 -1 -3)
1969-12-31 18:00:16.534711209,(-2 -7 -14 -10 -5 -2 -3 -1)
1969-12-31 18:00:16.534711209,(-2 12 27 4 -2 0 -3 -5)
1969-12-31 18:00:16.536904363,(0 1 -8 0 -2 2 0 0)
1969-12-31 18:00:16.536904363,(9 -2 -5 1 0 -3 1 3)
1969-12-31 18:00:16.550063288,(-15 6 20 0 -1 -2 -4 -6)
1969-12-31 18:00:16.550063288,(2 -5 -15 -10 -5 -2 0 1)
1969-12-31 18:00:16.559932482,(-11 -8 -1 2 1 1 3 1)
1969-12-31 18:00:16.559932482,(5 1 8 6 4 1 1 1)
1969-12-31 18:00:16.576381139,(4 -3 -16 -11 -6 -3 5 5)
1969-12-31 18:00:16.576381139,(2 0 -7 -4 -3 -4 -2 -3)
1969-12-31 18:00:16.577477716,(12 0 -3 -2 -3 -1 15 15)
1969-12-31 18:00:16.577477716,(18 9 6 5 6 -2 -10 1)
1969-12-31 18:00:16.601602412,(-53 -21 -11 -7 -2 -5 -7 -14)
1969-12-31 18:00:16.601602412,(2 0 -2 -3 -2 -4 -5 -3)
1969-12-31 18:00:16.602698990,(2 -3 -6 -4 0 -3 2 5)
1969-12-31 18:00:16.602698990,(21 9 2 -1 0 -1 9 10)
1969-12-31 18:00:16.615857915,(-29 -14 -13 -4 1 -1 8 2)
1969-12-31 18:00:16.615857915,(-24 -14 -11 -9 -8 -8 -7 -13)
1969-12-31 18:00:16.625727109,(-28 1 -1 0 -1 1 -10 -27)
1969-12-31 18:00:16.625727109,(4 -10 1 -1 -2 1 6 19)
1969-12-31 18:00:16.642175766,(44 16 7 6 4 9 0 -4)
1969-12-31 18:00:16.642175766,(3 -1 -6 -5 -2 -2 0 -1)
1969-12-31 18:00:16.643272343,(17 7 -10 -3 4 3 3 19)
1969-12-31 18:00:16.643272343,(-64 -20 -4 -1 -1 -23 2 -35)
1969-12-31 18:00:16.666300462,(35 1 1 -1 8 -2 -11 39)
1969-12-31 18:00:16.666300462,(-22 -14 6 -4 -12 18 7 -25)
1969-12-31 18:00:16.668493616,(44 23 21 7 -2 8 0 3)
1969-12-31 18:00:16.668493616,(-12 4 20 9 -1 44 7 -8)
1969-12-31 18:00:16.681652542,(-20 -11 0 0 0 -7 -25 -31)
1969-12-31 18:00:16.681652542,(-1 6 0 -1 -2 -16 -30 -4)
1969-12-31 18:00:16.700294353,(-5 -14 0 -2 -5 -6 6 4)
1969-12-31 18:00:16.700294353,(21 20 8 5 5 13 -1 -9)
1969-12-31 18:00:16.707970392,(1 -16 -7 -1 -1 -47 -5 24)
1969-12-31 18:00:16.707970392,(-57 -25 -9 -3 -1 27 23 -32)
1969-12-31 18:00:16.709066970,(25 20 -2 -3 -4 -23 -53 -25)
1969-12-31 18:00:16.709066970,(-31 -22 -9 -8 -2 -14 6 -13)
1969-12-31 18:00:16.732095089,(22 12 4 3 5 27 8 -5)
1969-12-31 18:00:16.732095089,(41 20 -3 2 10 21 3 11)
1969-12-31 18:00:16.734288243,(-19 -40 -20 -15 -13 -48 -7 -16)
1969-12-31 18:00:16.734288243,(-4 11 5 2 9 55 3 8)
1969-12-31 18:00:16.747447168,(-26 -7 -3 -1 -7 -34 38 24)
1969-12-31 18:00:16.747447168,(-19 -20 -8 -4 -1 -22 -27 -22)
1969-12-31 18:00:16.757316362,(-26 13 7 4 10 14 0 -27)
1969-12-31 18:00:16.757316362,(61 7 -3 -2 -5 -22 -15 58)
1969-12-31 18:00:16.773765019,(18 24 2 3 12 63 20 -7)
1969-12-31 18:00:16.773765019,(-2 3 2 -1 -10 -53 -8 -10)
1969-12-31 18:00:16.775958173,(5 -3 -4 4 10 40 11 22)
1969-12-31 18:00:16.775958173,(-15 0 -1 2 -5 -33 -4 -18)
1969-12-31 18:00:16.797889716,(25 0 -3 -6 -6 19 34 17)
1969-12-31 18:00:16.798986293,(42 23 10 8 6 -9 10 58)
1969-12-31 18:00:16.800082870,(-21 18 11 7 9 67 31 -31)
1969-12-31 18:00:16.800082870,(-52 -26 -16 -12 -5 -45 -61 -86)
1969-12-31 18:00:16.813241795,(18 -11 -10 -8 -11 -7 -6 45)
1969-12-31 18:00:16.813241795,(21 29 11 9 13 8 -33 15)
1969-12-31 18:00:16.823110989,(4 -17 -6 -7 -16 -37 6 30)
1969-12-31 18:00:16.823110989,(10 13 6 6 -2 -21 -29 -10)
1969-12-31 18:00:16.839559646,(-6 5 -2 -3 -5 15 12 -42)
1969-12-31 18:00:16.839559646,(-18 -19 -4 0 7 34 -13 0)
1969-12-31 18:00:16.841752800,(19 16 4 2 1 0 -17 16)
1969-12-31 18:00:16.841752800,(-6 1 4 2 2 12 31 1)
1969-12-31 18:00:16.863684342,(-19 2 -7 -7 -10 -43 -38 -64)
1969-12-31 18:00:16.864780920,(21 -13 -9 -3 2 27 28 37)
1969-12-31 18:00:16.865877497,(5 9 -3 -4 -6 17 16 11)
1969-12-31 18:00:16.865877497,(31 -1 -4 -12 -14 -35 14 6)
1969-12-31 18:00:16.879036422,(-24 -20 5 22 13 25 -17 12)
1969-12-31 18:00:16.879036422,(14 17 4 4 2 25 35 -4)
1969-12-31 18:00:16.888905616,(-13 0 -5 -3 -3 -23 -5 15)
1969-12-31 18:00:16.888905616,(12 1 3 -1 8 59 30 32)
1969-12-31 18:00:16.905354273,(20 14 3 -11 -4 -2 5 9)
1969-12-31 18:00:16.905354273,(-9 -16 -4 1 -6 -41 -8 -10)
1969-12-31 18:00:16.907547427,(-11 -3 5 13 14 23 1 7)
1969-12-31 18:00:16.907547427,(4 11 2 4 -3 6 0 0)
1969-12-31 18:00:16.929478969,(15 8 1 9 4 -43 5 43)
1969-12-31 18:00:16.929478969,(2 -2 -5 -5 -3 4 5 10)
1969-12-31 18:00:16.931672123,(-8 -10 -6 -5 -2 -28 -50 -9)
1969-12-31 18:00:16.931672123,(7 -2 -7 -5 -3 18 25 40)
1969-12-31 18:00:16.944831049,(-3 -12 3 5 -12 -83 -49 -15)
1969-12-31 18:00:16.944831049,(16 15 -2 -4 4 72 34 23)
1969-12-31 18:00:16.961279705,(-39 -9 3 2 -2 -47 -33 -75)
1969-12-31 18:00:16.961279705,(2 -7 -5 -6 -1 15 -1 2)
1969-12-31 18:00:16.971148900,(13 9 -1 -7 -1 0 -44 -7)
1969-12-31 18:00:16.971148900,(-23 -16 -8 -6 -3 -16 -12 46)
1969-12-31 18:00:16.973342054,(23 -11 -3 -4 0 11 26 7)
1969-12-31 18:00:16.973342054,(17 6 0 2 6 -2 13 4)
1969-12-31 18:00:16.995273596,(-10 22 4 -1 -16 2 22 -48)
1969-12-31 18:00:16.995273596,(9 -11 -3 -11 -10 7 -42 -31)
1969-12-31 18:00:17.001853059,(-4 -1 2 16 6 -27 50 49)
1969-12-31 18:00:17.001853059,(-10 -8 -3 -1 -6 -34 -26 -21)
1969-12-31 18:00:17.010625676,(1 -6 2 5 17 52 28 25)
1969-12-31 18:00:17.010625676,(-14 10 2 -6 -18 -62 23 0)
1969-12-31 18:00:17.020494870,(9 4 0 -6 -4 11 -3 29)
1969-12-31 18:00:17.020494870,(-19 0 -12 -11 -7 -43 -63 -93)
1969-12-31 18:00:17.036943525,(-17 -11 -6 -13 -7 -21 14 3)
1969-12-31 18:00:17.036943525,(-28 -16 -1 3 19 74 -50 -26)
1969-12-31 18:00:17.039136681,(19 10 0 -5 -11 -27 67 14)
1969-12-31 18:00:17.039136681,(9 20 13 15 14 27 37 45)
1969-12-31 18:00:17.062164800,(3 -3 -7 -15 3 51 -48 -9)
1969-12-31 18:00:17.062164800,(-29 -30 -6 2 4 -17 -3 -34)
1969-12-31 18:00:17.063261377,(23 11 7 8 11 56 -27 -3)
1969-12-31 18:00:17.063261377,(-39 -12 1 4 -1 -4 3 -32)
1969-12-31 18:00:17.076420302,(23 17 3 3 1 7 5 -16)
1969-12-31 18:00:17.076420302,(5 15 -2 -3 -8 24 10 -4)
1969-12-31 18:00:17.086289496,(-22 -4 0 -2 3 20 -1 -2)
1969-12-31 18:00:17.086289496,(16 -16 -9 -6 -5 -10 28 56)
1969-12-31 18:00:17.101641576,(-10 4 2 -3 -6 -17 -10 -25)
1969-12-31 18:00:17.101641576,(-2 -16 -7 -4 6 -8 18 39)
1969-12-31 18:00:17.109317616,(-23 -4 1 -2 -1 10 -4 -31)
1969-12-31 18:00:17.109317616,(16 13 1 -4 -3 34 -15 4)
1969-12-31 18:00:17.126862850,(-13 -14 -6 1 -10 -7 24 12)
1969-12-31 18:00:17.126862850,(33 19 7 6 0 -32 -20 12)
1969-12-31 18:00:17.129056004,(-15 -10 -7 -7 3 -29 -17 -15)
1969-12-31 18:00:17.129056004,(12 10 6 8 11 36 61 59)
1969-12-31 18:00:17.152084123,(-12 -12 -1 -4 -7 -23 -40 -36)
1969-12-31 18:00:17.152084123,(33 12 9 13 10 -15 39 49)
1969-12-31 18:00:17.154277277,(-59 -33 -20 -16 3 -44 -60 -82)
1969-12-31 18:00:17.154277277,(3 4 5 13 17 27 -37 -13)
1969-12-31 18:00:17.168532780,(13 5 -5 -28 -43 -2 35 54)
1969-12-31 18:00:17.168532780,(16 9 6 11 -2 -38 26 9)
1969-12-31 18:00:17.175112243,(16 6 1 -12 -47 -31 12 11)
1969-12-31 18:00:17.175112243,(-9 -15 -4 3 25 -3 -44 -4)
1969-12-31 18:00:17.192657476,(1 4 8 25 32 36 33 3)
1969-12-31 18:00:17.192657476,(-10 0 -1 -15 -24 -18 -46 -13)
1969-12-31 18:00:17.194850631,(-1 -13 -10 -14 6 17 46 21)
1969-12-31 18:00:17.194850631,(-18 5 6 13 49 12 -36 -31)
1969-12-31 18:00:17.217878750,(-10 -14 -5 -3 -10 -12 0 -11)
1969-12-31 18:00:17.217878750,(-31 7 -4 -14 -31 -34 -24 -26)
1969-12-31 18:00:17.218975327,(11 -11 0 20 -17 -36 -8 11)
1969-12-31 18:00:17.218975327,(0 1 -6 -29 -41 25 15 2)
1969-12-31 18:00:17.233230829,(-5 9 -3 -11 -1 -7 -7 -29)
1969-12-31 18:00:17.233230829,(-3 -9 -6 1 10 -10 11 -8)
1969-12-31 18:00:17.240906869,(-7 -2 1 3 10 -29 -62 -34)
1969-12-31 18:00:17.240906869,(4 0 3 5 6 4 67 26)
1969-12-31 18:00:17.259548680,(2 11 6 6 21 51 -40 -22)
1969-12-31 18:00:17.259548680,(-13 -12 -2 -3 -17 -18 -11 -27)
1969-12-31 18:00:17.260645257,(14 8 1 -2 10 -1 5 11)
1969-12-31 18:00:17.260645257,(-6 -8 -5 -4 -9 3 -11 -4)
1969-12-31 18:00:17.283673377,(-3 -9 -4 11 23 -37 7 20)
1969-12-31 18:00:17.283673377,(3 -5 -7 -28 -96 -75 16 4)
1969-12-31 18:00:17.285866531,(5 -1 -3 -8 18 9 -40 -3)
1969-12-31 18:00:17.285866531,(2 9 1 -4 6 -17 -10 -13)
1969-12-31 18:00:17.299025455,(-14 -18 -2 12 37 22 16 8)
1969-12-31 18:00:17.299025455,(19 -3 4 14 34 67 24 46)
1969-12-31 18:00:17.306701496,(-4 -5 -8 -18 -78 -32 -5 -17)
1969-12-31 18:00:17.306701496,(8 19 3 -6 -2 -19 -9 -12)
1969-12-31 18:00:17.325343307,(32 18 11 8 27 38 -4 9)
1969-12-31 18:00:17.325343307,(-14 -34 -11 4 12 -9 0 -17)
1969-12-31 18:00:17.326439884,(-36 -7 -6 4 29 89 14 -13)
1969-12-31 18:00:17.326439884,(-12 -25 -8 -11 -18 -39 7 10)
1969-12-31 18:00:17.350564581,(-3 44 36 12 -9 3 0 -9)
1969-12-31 18:00:17.350564581,(21 23 -2 -3 -36 -20 -19 5)
1969-12-31 18:00:17.352757735,(-8 -34 -3 -16 -9 36 17 11)
1969-12-31 18:00:17.352757735,(7 2 -8 11 2 -45 -3 20)
1969-12-31 18:00:17.364820083,(-7 -6 -13 -9 26 22 5 -22)
1969-12-31 18:00:17.364820083,(18 15 -18 -6 -4 9 14 44)
1969-12-31 18:00:17.372496123,(-66 -30 4 15 37 4 2 -40)
1969-12-31 18:00:17.372496123,(-5 21 1 5 -23 8 -18 -17)
1969-12-31 18:00:17.390041357,(31 -51 -45 -24 -22 -29 -1 46)
1969-12-31 18:00:17.390041357,(-21 52 45 32 86 52 6 -19)
1969-12-31 18:00:17.407586590,(46 35 8 14 8 -4 -1 20)
1969-12-31 18:00:17.407586590,(-25 -17 -12 -19 -83 -43 2 0)
1969-12-31 18:00:17.415262630,(-14 -7 17 -11 -25 -16 -5 -3)
1969-12-31 18:00:17.415262630,(28 -56 -91 -23 36 10 -8 -2)
1969-12-31 18:00:17.417455784,(16 -34 10 8 40 14 -4 1)
1969-12-31 18:00:17.417455784,(-18 73 85 41 -2 17 4 -6)
1969-12-31 18:00:17.430614710,(15 84 92 50 40 23 1 22)
1969-12-31 18:00:17.430614710,(-18 -2 29 -3 -39 -14 17 -1)
1969-12-31 18:00:17.440483904,(26 -46 -65 -27 -5 -8 -9 9)
1969-12-31 18:00:17.440483904,(31 -86 -122 -32 18 -3 9 16)
1969-12-31 18:00:17.455835983,(-38 22 29 -13 -48 -7 42 18)
1969-12-31 18:00:17.455835983,(3 -13 -23 -3 25 -1 -35 -37)
1969-12-31 18:00:17.458029138,(64 63 32 27 74 43 -4 37)
1969-12-31 18:00:17.458029138,(-36 -49 27 -11 -64 -36 11 -28)
1969-12-31 18:00:17.482153834,(-7 -96 -115 -54 -66 -46 -36 33)
