time,.data
1969/12/31/18:00:04.446000,(4 6 -4 -7 12 95 59 12)
1969/12/31/18:00:04.446000,(-8 7 9 14 -4 -20 7 -12)
1969/12/31/18:00:04.447000,(14 4 -1 -2 -1 -6 18 -7)
1969/12/31/18:00:04.447000,(27 9 12 17 4 -43 -15 50)
1969/12/31/18:00:04.469000,(-29 -14 -6 -3 5 24 -54 -89)
1969/12/31/18:00:04.469000,(35 6 -8 -11 -7 -20 17 56)
1969/12/31/18:00:04.470000,(-11 13 2 -3 0 26 33 31)
1969/12/31/18:00:04.470000,(7 -19 -4 -4 3 89 36 21)
1969/12/31/18:00:04.491000,(28 25 15 13 6 -57 -30 33)
1969/12/31/18:00:04.491000,(-106 -88 -44 -32 -22 -30 -22 -65)
1969/12/31/18:00:04.492000,(21 21 7 4 -8 -68 -59 6)
1969/12/31/18:00:04.492000,(14 12 3 5 20 61 3 -1)
1969/12/31/18:00:04.506000,(6 -3 6 8 7 31 27 25)
1969/12/31/18:00:04.506000,(49 41 7 -3 -17 -76 32 17)
1969/12/31/18:00:04.507000,(-27 -23 -3 0 8 2 -42 -38)
1969/12/31/18:00:04.507000,(-30 -16 -2 3 8 5 17 -25)
1969/12/31/18:00:04.529000,(20 24 10 4 9 42 46 54)
1969/12/31/18:00:04.529000,(-68 -27 -10 -13 -35 -74 -52 -91)
1969/12/31/18:00:04.530000,(-23 -8 0 13 16 55 30 -7)
1969/12/31/18:00:04.530000,(8 2 -4 -6 -19 -77 8 45)
1969/12/31/18:00:04.551000,(-1 -5 1 7 20 44 13 8)
1969/12/31/18:00:04.552000,(20 22 1 2 10 -12 0 27)
1969/12/31/18:00:04.552000,(0 2 -3 -6 6 -9 -30 5)
1969/12/31/18:00:04.552000,(-4 12 2 6 26 36 -15 -36)
1969/12/31/18:00:04.566000,(-12 -16 -10 -17 -45 55 39 18)
1969/12/31/18:00:04.566000,(-6 -26 -10 -11 -13 -67 -27 -9)
1969/12/31/18:00:04.567000,(-58 -28 -13 -23 -58 -15 -10 -36)
1969/12/31/18:00:04.567000,(15 11 9 15 50 -24 -6 3)
1969/12/31/18:00:04.589000,(-28 -30 -5 3 13 10 -6 -6)
1969/12/31/18:00:04.589000,(26 19 1 -8 -18 78 37 33)
1969/12/31/18:00:04.590000,(9 1 6 6 2 -25 13 5)
1969/12/31/18:00:04.590000,(6 8 -3 -21 -46 5 -33 -30)
1969/12/31/18:00:04.612000,(-48 -17 -13 -12 18 -73 -35 -33)
1969/12/31/18:00:04.612000,(16 7 8 22 14 -28 -2 26)
1969/12/31/18:00:04.612000,(17 5 1 11 32 16 -7 -8)
1969/12/31/18:00:04.612000,(-11 -7 -5 -10 -13 -3 4 3)
1969/12/31/18:00:04.626000,(2 1 -9 -20 2 -21 -39 -26)
1969/12/31/18:00:04.626000,(-8 -2 -5 -14 -68 33 0 0)
1969/12/31/18:00:04.627000,(36 32 14 24 18 -26 -1 31)
1969/12/31/18:00:04.627000,(-23 -32 -3 15 25 50 31 -2)
1969/12/31/18:00:04.649000,(-12 -10 -4 8 8 17 -7 -1)
1969/12/31/18:00:04.649000,(-7 -5 -13 -32 -41 -33 -30 -35)
1969/12/31/18:00:04.650000,(4 1 -2 -7 25 18 26 7)
1969/12/31/18:00:04.650000,(1 -2 0 -1 -18 -13 -3 12)
1969/12/31/18:00:04.680000,(-4 3 -3 -14 -58 -74 -8 -11)
1969/12/31/18:00:04.680000,(14 9 11 18 77 68 20 24)
1969/12/31/18:00:04.681000,(13 6 -5 -14 -61 -19 -1 34)
1969/12/31/18:00:04.681000,(5 -7 -6 6 52 27 15 -44)
1969/12/31/18:00:04.687000,(-14 14 6 7 -1 5 -19 -39)
1969/12/31/18:00:04.687000,(9 0 -7 -2 -13 4 20 15)
1969/12/31/18:00:04.687000,(-6 -18 -18 2 62 69 19 -12)
1969/12/31/18:00:04.688000,(-23 -12 7 -4 -42 -63 -43 -3)
1969/12/31/18:00:04.709000,(1 19 3 -12 -48 -70 -17 10)
1969/12/31/18:00:04.709000,(11 -1 0 6 56 52 10 10)
1969/12/31/18:00:04.710000,(-13 -27 15 25 11 -23 16 2)
1969/12/31/18:00:04.710000,(6 -11 -38 -28 -74 -18 -10 11)
1969/12/31/18:00:04.731000,(5 -4 5 -17 -40 -15 -2 10)
1969/12/31/18:00:04.732000,(-24 66 52 28 56 45 4 -31)
1969/12/31/18:00:04.733000,(-3 -23 13 -3 0 -6 -7 11)
1969/12/31/18:00:04.733000,(-12 2 -8 11 42 -2 -22 -45)
1969/12/31/18:00:04.747000,(-27 -5 -57 0 9 -2 1 -63)
1969/12/31/18:00:04.747000,(18 26 34 0 -14 -3 7 23)
1969/12/31/18:00:04.747000,(-9 2 20 -1 2 2 -21 -14)
1969/12/31/18:00:04.747000,(-49 19 58 20 -12 -23 -15 -61)
1969/12/31/18:00:04.769000,(30 16 -28 1 55 45 8 -1)
1969/12/31/18:00:04.769000,(6 -106 -97 -42 -62 -42 -8 0)
1969/12/31/18:00:04.770000,(42 50 5 -11 -2 26 10 -12)
1969/12/31/18:00:04.770000,(-23 40 -1 -3 -7 -34 19 4)
1969/12/31/18:00:04.800000,(28 -40 -1 -2 -12 9 -16 68)
1969/12/31/18:00:04.800000,(-15 12 1 9 10 9 15 5)
1969/12/31/18:00:04.800000,(19 47 58 6 -39 -34 -20 58)
1969/12/31/18:00:04.800000,(40 -17 -24 -8 25 25 15 52)
1969/12/31/18:00:04.806000,(-24 55 86 48 46 25 16 23)
1969/12/31/18:00:04.806000,(4 1 -13 3 12 3 -23 -46)
1969/12/31/18:00:04.807000,(-60 -75 -75 -37 -11 -8 -12 -51)
1969/12/31/18:00:04.807000,(-3 12 14 10 4 8 39 42)
1969/12/31/18:00:04.829000,(31 -74 -49 -24 -21 -21 -10 24)
1969/12/31/18:00:04.829000,(-5 58 6 3 -4 6 24 51)
1969/12/31/18:00:04.830000,(15 89 53 27 26 7 -8 -32)
1969/12/31/18:00:04.830000,(-9 -57 8 4 47 47 -29 -3)
1969/12/31/18:00:04.852000,(-51 -40 14 3 -96 -89 14 -19)
1969/12/31/18:00:04.852000,(25 73 69 16 9 5 -17 62)
1969/12/31/18:00:04.853000,(6 -39 -44 -10 -10 -8 22 28)
1969/12/31/18:00:04.853000,(-16 60 43 -10 -35 -12 -35 -72)
1969/12/31/18:00:04.867000,(-8 -76 -84 -40 2 3 -23 -49)
1969/12/31/18:00:04.867000,(-5 -56 -36 1 55 44 -9 -13)
1969/12/31/18:00:04.868000,(-69 25 25 11 -2 -23 -4 -25)
1969/12/31/18:00:04.868000,(7 -58 -22 -2 -22 -5 22 35)
1969/12/31/18:00:04.889000,(27 36 2 -18 -17 4 14 -28)
1969/12/31/18:00:04.889000,(29 17 40 32 31 18 6 60)
1969/12/31/18:00:04.890000,(51 -61 -97 -24 -1 5 -7 15)
1969/12/31/18:00:04.890000,(-6 62 72 -2 -39 -37 9 61)
1969/12/31/18:00:04.912000,(-16 45 45 27 35 21 7 -47)
1969/12/31/18:00:04.912000,(-28 -49 -30 -9 23 28 1 -26)
1969/12/31/18:00:04.913000,(47 -34 -36 4 11 5 26 23)
1969/12/31/18:00:04.913000,(-17 -23 -43 -6 22 -2 21 29)
1969/12/31/18:00:04.927000,(1 34 29 -12 -65 -46 -55 -18)
1969/12/31/18:00:04.927000,(-39 -38 -24 -5 68 35 9 -38)
1969/12/31/18:00:04.928000,(25 -29 -9 -35 -116 -86 -17 13)
1969/12/31/18:00:04.928000,(68 6 -90 -37 22 5 8 48)
1969/12/31/18:00:04.965000,(-63 46 112 75 83 52 55 -24)
1969/12/31/18:00:04.965000,(-30 6 -24 -46 -117 -67 -94 -64)
1969/12/31/18:00:04.966000,(-48 -19 6 3 33 5 -47 -73)
1969/12/31/18:00:04.966000,(22 -19 -10 4 1 31 27 13)
1969/12/31/18:00:04.972000,(33 -41 -41 12 62 32 22 45)
1969/12/31/18:00:04.972000,(25 -28 -71 -21 19 22 45 42)
1969/12/31/18:00:04.972000,(10 104 107 47 -26 -21 -75 -6)
1969/12/31/18:00:04.972000,(2 37 21 -6 -22 -20 2 -2)
1969/12/31/18:00:04.986000,(7 15 -20 -1 8 10 -11 -8)
1969/12/31/18:00:04.986000,(18 -59 -18 9 -8 -14 35 26)
1969/12/31/18:00:04.987000,(9 3 -34 -5 53 42 22 40)
1969/12/31/18:00:04.987000,(36 -13 -3 7 30 33 16 -8)
1969/12/31/18:00:05.009000,(-66 -59 28 6 -72 -34 -18 -4)
1969/12/31/18:00:05.009000,(-19 91 34 -38 -97 -87 -4 -102)
1969/12/31/18:00:05.010000,(-22 -47 -5 -6 -5 -20 -39 -37)
1969/12/31/18:00:05.010000,(27 49 16 24 39 18 -1 -7)
1969/12/31/18:00:05.032000,(51 -48 -128 -48 53 47 19 32)
1969/12/31/18:00:05.032000,(-9 49 109 68 37 27 21 45)
1969/12/31/18:00:05.032000,(-34 -40 -66 -24 -11 -7 24 -28)
1969/12/31/18:00:05.032000,(-29 -30 24 8 32 14 -19 25)
1969/12/31/18:00:05.048000,(41 96 42 16 -60 -45 -11 8)
1969/12/31/18:00:05.048000,(33 -92 -77 -34 -24 -25 -32 -25)
1969/12/31/18:00:05.049000,(-17 9 -9 -25 -16 -10 -21 -12)
1969/12/31/18:00:05.049000,(15 40 18 12 12 32 18 -7)
1969/12/31/18:00:05.069000,(12 -47 -61 -33 7 -5 -1 20)
1969/12/31/18:00:05.069000,(-56 -58 -9 2 19 6 -25 -32)
1969/12/31/18:00:05.070000,(5 67 56 50 83 68 58 -9)
1969/12/31/18:00:05.070000,(19 -79 -72 -34 -95 -64 -28 43)
1969/12/31/18:00:05.093000,(-9 62 31 -18 -4 6 -40 -26)
1969/12/31/18:00:05.093000,(-8 14 43 31 -13 -13 32 -14)
1969/12/31/18:00:05.094000,(-1 -94 -111 -42 -11 4 -6 1)
1969/12/31/18:00:05.094000,(-30 37 8 -7 -18 -31 -19 -17)
1969/12/31/18:00:05.107000,(11 92 63 39 49 45 -8 -5)
1969/12/31/18:00:05.107000,(78 -12 -63 -22 -13 -26 4 46)
1969/12/31/18:00:05.108000,(-8 -5 86 57 75 76 46 45)
1969/12/31/18:00:05.108000,(-23 82 69 -3 -85 -81 -23 -2)
1969/12/31/18:00:05.129000,(59 -62 -58 -11 36 19 25 88)
1969/12/31/18:00:05.129000,(-27 31 43 12 3 22 -24 -76)
1969/12/31/18:00:05.130000,(10 19 -10 -10 -29 -57 -7 -22)
1969/12/31/18:00:05.130000,(23 -76 -78 -13 34 48 18 8)
1969/12/31/18:00:05.152000,(-47 62 105 33 3 5 51 35)
1969/12/31/18:00:05.152000,(-41 -34 -11 -4 -16 -36 -43 9)
1969/12/31/18:00:05.153000,(49 -14 -59 -12 25 40 45 51)
1969/12/31/18:00:05.153000,(-7 -3 35 -1 -70 -53 -35 -23)
1969/12/31/18:00:05.166000,(15 4 -20 2 31 27 17 7)
1969/12/31/18:00:05.166000,(-9 -13 0 15 75 69 33 32)
1969/12/31/18:00:05.174000,(-5 -42 -36 -6 -6 -26 -23 -38)
1969/12/31/18:00:05.174000,(4 26 -9 -29 -86 -74 10 22)
1969/12/31/18:00:05.189000,(-28 -32 5 8 12 20 30 17)
1969/12/31/18:00:05.189000,(23 -22 -39 -19 30 24 18 9)
1969/12/31/18:00:05.190000,(28 3 -12 -21 -78 -36 2 31)
1969/12/31/18:00:05.190000,(29 8 -8 24 94 78 -7 -11)
1969/12/31/18:00:05.212000,(-21 13 23 10 -27 -34 -10 -10)
1969/12/31/18:00:05.212000,(-21 34 7 9 -13 -9 -22 -28)
1969/12/31/18:00:05.212000,(13 5 -1 -27 -9 5 36 13)
1969/12/31/18:00:05.213000,(-53 -27 47 24 17 2 -8 -25)
1969/12/31/18:00:05.236000,(31 11 -14 -6 -13 -10 10 12)
1969/12/31/18:00:05.236000,(0 -2 -23 -9 35 64 16 4)
1969/12/31/18:00:05.237000,(10 7 10 21 16 -37 -26 9)
1969/12/31/18:00:05.237000,(-19 5 -25 -25 -59 -25 -28 -32)
1969/12/31/18:00:05.249000,(-22 -75 -11 -8 -6 -16 -2 -1)
1969/12/31/18:00:05.249000,(19 56 12 25 47 31 -18 -1)
1969/12/31/18:00:05.250000,(4 36 30 -1 -36 -3 11 20)
1969/12/31/18:00:05.250000,(-25 -25 11 29 78 43 18 -12)
1969/12/31/18:00:05.272000,(-35 -42 -51 -24 21 60 16 -27)
1969/12/31/18:00:05.272000,(36 16 -9 -17 -85 -100 -4 29)
1969/12/31/18:00:05.273000,(-46 -1 42 0 -30 -9 -16 -14)
1969/12/31/18:00:05.273000,(31 5 -13 28 81 53 3 13)
1969/12/31/18:00:05.286000,(-5 -15 -19 -28 -41 -11 -21 -27)
1969/12/31/18:00:05.286000,(2 11 10 5 15 24 33 38)
1969/12/31/18:00:05.294000,(-23 15 -1 0 -6 -14 -19 -37)
1969/12/31/18:00:05.294000,(-7 -55 -19 -16 -14 -19 -22 3)
1969/12/31/18:00:05.309000,(18 -1 2 15 36 28 43 34)
1969/12/31/18:00:05.309000,(-36 16 14 5 -20 -30 -47 -70)
1969/12/31/18:00:05.310000,(15 25 25 13 -1 -5 5 19)
1969/12/31/18:00:05.310000,(-55 -46 -39 -25 -17 0 1 -67)
1969/12/31/18:00:05.331000,(10 -32 -36 -16 16 10 -17 -20)
1969/12/31/18:00:05.332000,(-14 2 18 10 -19 -30 -16 -6)
1969/12/31/18:00:05.332000,(9 26 41 14 28 33 21 43)
1969/12/31/18:00:05.332000,(-16 -35 -38 -11 -26 -2 3 -25)
1969/12/31/18:00:05.346000,(31 42 -3 -8 -2 -26 -6 22)
1969/12/31/18:00:05.346000,(11 38 31 18 13 14 33 20)
1969/12/31/18:00:05.354000,(-44 -46 -6 -11 -13 -8 -37 -49)
1969/12/31/18:00:05.354000,(20 19 -3 9 16 4 34 11)
1969/12/31/18:00:05.369000,(34 -15 -8 22 80 65 8 30)
1969/12/31/18:00:05.369000,(-38 21 24 -11 -81 -62 24 -7)
1969/12/31/18:00:05.370000,(28 50 59 20 -4 -12 -32 9)
1969/12/31/18:00:05.370000,(10 -14 -58 -31 -3 -12 -19 4)
1969/12/31/18:00:05.391000,(-18 0 43 14 -21 -30 -13 -36)
1969/12/31/18:00:05.391000,(20 -5 -15 -2 47 51 29 55)
1969/12/31/18:00:05.392000,(30 1 -17 -2 15 23 35 18)
1969/12/31/18:00:05.393000,(29 16 21 19 18 18 4 28)
1969/12/31/18:00:05.406000,(-78 -58 -48 -15 -30 -51 -57 -76)
1969/12/31/18:00:05.406000,(26 -7 -20 -27 -19 -7 -29 -3)
1969/12/31/18:00:05.414000,(-31 -14 26 12 0 6 30 10)
1969/12/31/18:00:05.414000,(69 47 29 36 110 97 60 101)
1969/12/31/18:00:05.429000,(-29 -24 4 -8 -102 -102 -102 -81)
1969/12/31/18:00:05.429000,(-14 -37 -47 -35 -11 -5 4 -25)
1969/12/31/18:00:05.430000,(3 15 -34 -20 -20 -11 0 -16)
1969/12/31/18:00:05.430000,(-12 32 57 28 40 23 35 11)
1969/12/31/18:00:05.452000,(15 20 14 11 -16 -3 -3 20)
1969/12/31/18:00:05.452000,(28 -29 8 6 5 9 10 22)
1969/12/31/18:00:05.452000,(36 22 2 8 44 56 47 63)
1969/12/31/18:00:05.453000,(-36 -10 -8 -7 -34 -41 -83 -111)
1969/12/31/18:00:05.476000,(-12 -17 -25 -26 -27 -33 -24 -22)
1969/12/31/18:00:05.476000,(20 -24 -20 -9 -2 3 -7 -18)
1969/12/31/18:00:05.477000,(-10 -14 -18 -2 26 19 9 17)
1969/12/31/18:00:05.477000,(-4 8 17 3 -7 1 20 16)
1969/12/31/18:00:05.489000,(32 21 6 0 -1 17 26 49)
1969/12/31/18:00:05.489000,(21 2 1 9 6 -2 4 -14)
1969/12/31/18:00:05.490000,(-39 -16 -6 -4 -3 -18 -27 -51)
1969/12/31/18:00:05.490000,(-26 -30 -45 -40 -70 -69 -62 -19)
1969/12/31/18:00:05.512000,(-2 -2 28 9 14 31 16 -4)
1969/12/31/18:00:05.512000,(12 51 59 39 56 24 43 50)
1969/12/31/18:00:05.513000,(4 17 -15 -13 -29 -27 -37 -32)
1969/12/31/18:00:05.513000,(3 10 5 -6 -14 -17 -12 -7)
1969/12/31/18:00:05.526000,(0 25 -3 -1 11 9 9 17)
1969/12/31/18:00:05.526000,(-15 -44 14 10 16 31 -7 -13)
1969/12/31/18:00:05.534000,(29 -24 -40 -9 -6 -12 2 -1)
1969/12/31/18:00:05.534000,(-25 -21 0 -6 -21 -15 -3 -9)
1969/12/31/18:00:05.549000,(40 56 18 14 25 19 28 20)
1969/12/31/18:00:05.549000,(-37 -29 -26 -13 -16 -8 -14 -28)
1969/12/31/18:00:05.550000,(-16 -14 -13 -9 -10 -17 -28 -13)
1969/12/31/18:00:05.550000,(-5 1 -4 -4 3 12 34 3)
1969/12/31/18:00:05.572000,(-31 -16 1 3 2 -6 -44 -23)
1969/12/31/18:00:05.572000,(2 8 -6 3 0 4 20 -17)
1969/12/31/18:00:05.573000,(-28 -25 -8 -9 -12 -21 -66 -62)
1969/12/31/18:00:05.573000,(4 7 -1 -10 -6 3 16 14)
1969/12/31/18:00:05.595000,(-16 -19 0 7 13 9 24 0)
1969/12/31/18:00:05.595000,(-28 8 9 -2 -26 -17 -3 -8)
1969/12/31/18:00:05.596000,(32 36 23 12 29 30 31 61)
1969/12/31/18:00:05.596000,(-77 -63 -17 -4 -7 -13 -31 -51)
1969/12/31/18:00:05.609000,(38 18 -31 -22 -15 -9 32 11)
1969/12/31/18:00:05.609000,(-22 -108 -65 -29 -14 -13 -45 4)
1969/12/31/18:00:05.610000,(30 93 60 35 9 11 22 18)
1969/12/31/18:00:05.610000,(31 55 59 19 10 -5 20 0)
1969/12/31/18:00:05.632000,(-24 -11 11 13 27 61 7 -4)
1969/12/31/18:00:05.632000,(19 -11 -25 -30 -45 -55 -81 -50)
1969/12/31/18:00:05.633000,(-45 -59 -49 -39 -26 -13 -9 -58)
1969/12/31/18:00:05.633000,(-22 -9 -12 3 8 1 15 22)
1969/12/31/18:00:05.655000,(-35 -26 -2 -14 -5 1 -8 -12)
1969/12/31/18:00:05.655000,(-5 6 5 3 11 25 44 27)
1969/12/31/18:00:05.656000,(29 -4 0 19 8 -20 -10 53)
1969/12/31/18:00:05.656000,(17 19 1 9 -3 -39 -28 -67)
1969/12/31/18:00:05.669000,(18 -3 -3 -5 -9 -6 3 12)
1969/12/31/18:00:05.669000,(-4 19 8 5 9 16 -7 -6)
1969/12/31/18:00:05.670000,(-6 3 4 -11 -12 -8 5 -4)
1969/12/31/18:00:05.670000,(13 -7 -8 -5 -1 13 8 26)
1969/12/31/18:00:05.692000,(11 2 0 2 5 -14 -14 -11)
1969/12/31/18:00:05.692000,(20 33 22 10 1 -7 9 9)
1969/12/31/18:00:05.693000,(-30 -25 1 6 12 19 19 7)
1969/12/31/18:00:05.693000,(73 26 -1 -1 0 8 -1 31)
1969/12/31/18:00:05.715000,(1 -14 -16 -9 -11 -12 7 5)
1969/12/31/18:00:05.715000,(51 46 16 2 -4 -4 -45 -31)
1969/12/31/18:00:05.716000,(-80 -45 -11 -4 -5 12 20 -63)
1969/12/31/18:00:05.716000,(26 -7 1 5 2 6 -10 26)
1969/12/31/18:00:05.729000,(-13 5 5 -7 -14 11 22 -19)
1969/12/31/18:00:05.729000,(12 5 4 9 17 -3 45 41)
1969/12/31/18:00:05.730000,(27 18 5 4 1 -5 -47 -12)
1969/12/31/18:00:05.730000,(26 5 -1 -2 -7 -6 10 30)
1969/12/31/18:00:05.752000,(-56 -28 -17 -8 -3 -10 -33 -59)
1969/12/31/18:00:05.752000,(-14 -5 3 0 0 6 28 11)
1969/12/31/18:00:05.753000,(17 7 2 1 2 5 -6 7)
1969/12/31/18:00:05.753000,(-23 -7 -8 -9 -13 -7 -11 -11)
1969/12/31/18:00:05.775000,(46 31 18 15 9 -11 -10 45)
1969/12/31/18:00:05.775000,(6 1 -1 1 0 5 6 3)
1969/12/31/18:00:05.776000,(18 8 4 2 3 5 23 13)
1969/12/31/18:00:05.776000,(-16 -7 2 6 8 19 29 21)
1969/12/31/18:00:05.789000,(-30 -8 -11 -5 -5 -13 -20 -48)
1969/12/31/18:00:05.789000,(-29 -1 5 1 0 -5 -7 -5)
1969/12/31/18:00:05.790000,(102 57 8 3 3 9 31 71)
1969/12/31/18:00:05.790000,(-106 -72 -27 -15 -7 1 -9 -29)
1969/12/31/18:00:05.812000,(-83 -38 -14 -11 -15 -41 -44 -71)
1969/12/31/18:00:05.812000,(-17 -8 -3 -1 5 27 -45 -17)
1969/12/31/18:00:05.813000,(46 7 -1 -7 -11 -62 37 48)
1969/12/31/18:00:05.813000,(32 34 19 17 2 11 26 23)
1969/12/31/18:00:05.835000,(-7 4 4 4 2 -12 -9 -24)
1969/12/31/18:00:05.835000,(-73 -16 -10 -4 -5 -13 -20 -46)
1969/12/31/18:00:05.836000,(-6 -17 -4 -2 4 17 -10 -11)
1969/12/31/18:00:05.836000,(35 8 -4 -8 -4 -14 -17 -12)
1969/12/31/18:00:05.849000,(52 30 17 1 -2 11 39 65)
1969/12/31/18:00:05.849000,(31 20 19 17 19 31 11 41)
1969/12/31/18:00:05.850000,(-106 -51 -19 -2 -9 4 -32 -69)
1969/12/31/18:00:05.850000,(-28 -21 -11 -6 -2 0 9 -20)
1969/12/31/18:00:05.872000,(45 1 -7 -2 0 4 -7 33)
1969/12/31/18:00:05.872000,(41 12 -6 -8 0 -1 24 31)
1969/12/31/18:00:05.873000,(-1 12 17 6 4 16 16 18)
1969/12/31/18:00:05.873000,(-32 -15 4 9 6 -2 -14 10)
1969/12/31/18:00:05.895000,(43 27 8 4 6 1 9 31)
1969/12/31/18:00:05.895000,(4 -9 -10 -6 -10 -11 -1 7)
1969/12/31/18:00:05.896000,(-40 -31 -14 -7 -1 -6 -8 -24)
1969/12/31/18:00:05.896000,(57 16 -15 -20 -10 -1 3 32)
1969/12/31/18:00:05.909000,(-23 -14 3 3 2 -5 -15 -34)
1969/12/31/18:00:05.909000,(23 18 14 18 9 1 15 6)
1969/12/31/18:00:05.910000,(-28 -5 -1 -5 -6 2 -4 -44)
1969/12/31/18:00:05.910000,(32 19 6 2 4 9 3 8)
1969/12/31/18:00:05.932000,(-11 -3 -2 2 3 4 3 23)
1969/12/31/18:00:05.932000,(1 -12 -5 -7 -7 -10 -8 -7)
1969/12/31/18:00:05.933000,(12 7 -5 -3 -4 0 0 10)
1969/12/31/18:00:05.933000,(-15 -5 -3 -3 -1 1 0 0)
1969/12/31/18:00:05.955000,(14 2 3 3 4 4 16 51)
1969/12/31/18:00:05.955000,(-11 1 1 0 -4 -8 -4 -8)
1969/12/31/18:00:05.956000,(18 -7 -8 -10 -6 -3 -2 21)
1969/12/31/18:00:05.956000,(-14 3 -1 -4 -5 0 -4 -18)
1969/12/31/18:00:05.977000,(15 -3 0 6 4 6 8 48)
1969/12/31/18:00:05.977000,(-22 -14 -9 -8 -7 -8 -8 -58)
1969/12/31/18:00:05.978000,(-16 -3 -1 1 2 4 0 10)
1969/12/31/18:00:05.978000,(-19 -9 -4 -4 -5 -4 -12 -27)
1969/12/31/18:00:05.992000,(25 11 -7 -6 -3 0 0 -27)
1969/12/31/18:00:05.992000,(-9 3 8 5 1 -1 5 25)
1969/12/31/18:00:05.993000,(17 2 -6 -6 -7 -3 3 -3)
1969/12/31/18:00:05.993000,(-2 1 2 3 -3 -4 -11 23)
1969/12/31/18:00:06.015000,(25 4 5 2 4 2 0 3)
1969/12/31/18:00:06.015000,(-2 -11 -9 -8 -4 -5 -2 -5)
1969/12/31/18:00:06.016000,(4 -7 -5 -3 -2 -4 -6 2)
1969/12/31/18:00:06.016000,(22 17 3 2 2 6 13 28)
1969/12/31/18:00:06.029000,(-12 -22 -9 -1 -3 -2 2 -6)
1969/12/31/18:00:06.029000,(-6 -13 -14 -11 -4 -3 -6 3)
1969/12/31/18:00:06.030000,(10 24 22 6 4 3 11 6)
1969/12/31/18:00:06.030000,(-5 6 8 5 2 -1 -1 -3)
1969/12/31/18:00:06.052000,(-16 -9 -2 3 0 -2 -4 -20)
1969/12/31/18:00:06.052000,(-2 -8 -16 -5 -2 -2 2 -3)
1969/12/31/18:00:06.053000,(16 -5 -21 -13 -3 -1 -3 0)
1969/12/31/18:00:06.053000,(-12 -23 -3 -6 -2 0 2 -9)
1969/12/31/18:00:06.075000,(-6 76 92 43 15 5 12 0)
1969/12/31/18:00:06.075000,(1 -12 -7 0 0 0 -2 8)
1969/12/31/18:00:06.076000,(-4 -17 -14 -6 -2 -2 -4 0)
1969/12/31/18:00:06.076000,(9 -5 -10 0 0 2 -2 -6)
1969/12/31/18:00:06.089000,(-18 2 2 -6 -6 -3 9 2)
1969/12/31/18:00:06.089000,(33 17 -18 -14 -5 -5 -4 7)
1969/12/31/18:00:06.090000,(-28 -27 0 6 -1 -3 -1 -7)
1969/12/31/18:00:06.090000,(-9 15 22 9 1 -1 -13 -21)
1969/12/31/18:00:06.114000,(-7 -36 -36 -17 -10 -3 -5 -16)
1969/12/31/18:00:06.114000,(-3 4 -1 -5 -3 -3 4 -1)
1969/12/31/18:00:06.116000,(-7 -21 -19 -10 -1 0 6 -2)
1969/12/31/18:00:06.116000,(16 -4 -32 -9 -1 -1 2 12)
1969/12/31/18:00:06.134000,(-2 45 64 19 5 -2 -7 -2)
1969/12/31/18:00:06.134000,(0 -8 -9 -2 -1 0 0 5)
1969/12/31/18:00:06.143000,(-13 -62 -43 -23 -7 2 11 2)
1969/12/31/18:00:06.143000,(20 60 28 10 6 2 1 8)
1969/12/31/18:00:06.149000,(-19 -48 -49 -14 -3 1 -4 -18)
1969/12/31/18:00:06.149000,(-18 35 54 18 1 -1 -18 -14)
1969/12/31/18:00:06.158000,(4 2 20 14 8 6 -1 6)
1969/12/31/18:00:06.158000,(-1 -4 -8 -11 -3 -3 1 -4)
1969/12/31/18:00:06.172000,(23 12 -25 -9 -4 -5 -5 4)
1969/12/31/18:00:06.172000,(-9 -21 -1 2 3 3 12 5)
1969/12/31/18:00:06.174000,(-1 13 -15 -6 -6 -4 -5 -4)
1969/12/31/18:00:06.174000,(-11 -16 9 6 3 2 1 -4)
1969/12/31/18:00:06.195000,(10 -2 -10 -7 -5 -3 -6 7)
1969/12/31/18:00:06.195000,(-7 -10 4 8 4 2 11 -2)
1969/12/31/18:00:06.196000,(2 5 2 0 -7 -7 -29 -14)
1969/12/31/18:00:06.197000,(-5 -20 -28 -14 -4 2 -1 0)
1969/12/31/18:00:06.208000,(8 -26 3 2 4 1 -10 -3)
1969/12/31/18:00:06.208000,(-7 20 13 0 3 7 8 0)
1969/12/31/18:00:06.217000,(36 32 3 -2 -1 2 -6 3)
1969/12/31/18:00:06.217000,(-29 -66 -62 -23 -7 4 15 -5)
1969/12/31/18:00:06.232000,(14 77 77 56 20 8 -16 -3)
1969/12/31/18:00:06.232000,(-7 -4 0 -1 -7 -5 -16 -12)
1969/12/31/18:00:06.246000,(-12 -14 -32 -28 -11 -3 -1 -1)
1969/12/31/18:00:06.246000,(9 18 61 40 13 0 1 -4)
1969/12/31/18:00:06.255000,(3 -2 -40 -19 -3 -4 21 17)
1969/12/31/18:00:06.255000,(-13 -44 -23 -8 -1 -16 6 8)
1969/12/31/18:00:06.256000,(5 52 45 20 12 0 11 9)
1969/12/31/18:00:06.256000,(1 1 -23 -25 -11 -15 9 3)
1969/12/31/18:00:06.268000,(-27 -57 -47 -30 -9 -7 10 6)
1969/12/31/18:00:06.268000,(20 71 2 4 5 -1 2 5)
1969/12/31/18:00:06.277000,(6 9 14 5 1 -2 2 0)
1969/12/31/18:00:06.278000,(-12 -28 -12 3 5 4 -13 -4)
1969/12/31/18:00:06.292000,(17 9 28 16 1 2 -5 -2)
1969/12/31/18:00:06.293000,(-1 -24 -20 -7 -3 5 1 3)
1969/12/31/18:00:06.294000,(-22 -43 -29 -21 -7 2 6 3)
1969/12/31/18:00:06.294000,(28 88 43 20 8 6 -1 1)
1969/12/31/18:00:06.315000,(3 -14 9 12 4 4 3 2)
1969/12/31/18:00:06.315000,(11 3 -7 -13 -8 -7 -5 1)
1969/12/31/18:00:06.317000,(-11 3 7 11 2 0 -1 -5)
1969/12/31/18:00:06.317000,(-13 -29 16 -4 -5 -5 -4 -6)
1969/12/31/18:00:06.345000,(-14 -13 -35 -21 -8 -4 -1 -6)
1969/12/31/18:00:06.345000,(8 24 16 3 3 5 4 3)
1969/12/31/18:00:06.347000,(11 19 20 13 2 -2 -4 0)
1969/12/31/18:00:06.347000,(-9 -32 -30 -18 -8 -2 -4 -1)
1969/12/31/18:00:06.352000,(3 16 6 -6 -4 0 -2 -5)
1969/12/31/18:00:06.352000,(-2 3 2 2 -1 2 -9 -2)
1969/12/31/18:00:06.354000,(-1 -13 -12 -3 -2 -5 -5 -6)
1969/12/31/18:00:06.354000,(4 12 -8 -9 -4 -4 -1 1)
1969/12/31/18:00:06.375000,(-7 -16 -7 -2 -3 -2 3 2)
1969/12/31/18:00:06.375000,(4 5 11 -1 0 -1 3 4)
1969/12/31/18:00:06.383000,(-4 9 14 7 1 0 -1 -2)
1969/12/31/18:00:06.383000,(3 -7 -24 -12 -6 -4 -4 1)
1969/12/31/18:00:06.389000,(-3 3 -3 -3 -3 1 -3 -4)
1969/12/31/18:00:06.389000,(-14 -42 -33 -23 -10 1 -5 -6)
1969/12/31/18:00:06.398000,(9 29 35 22 6 2 -8 -7)
1969/12/31/18:00:06.398000,(-1 -11 1 -2 -2 5 -2 -3)
1969/12/31/18:00:06.412000,(6 4 0 -3 -5 0 -9 -9)
1969/12/31/18:00:06.412000,(0 2 5 13 1 4 -7 -6)
1969/12/31/18:00:06.418000,(-9 -15 -1 -3 -3 4 -4 -5)
1969/12/31/18:00:06.418000,(-10 -8 10 4 -1 -2 -8 -9)
1969/12/31/18:00:06.435000,(1 0 -7 -8 -2 -5 -4 -3)
1969/12/31/18:00:06.435000,(2 3 1 2 1 -2 1 -3)
1969/12/31/18:00:06.437000,(3 0 4 6 3 -4 6 4)
1969/12/31/18:00:06.437000,(11 24 2 0 2 -3 7 7)
1969/12/31/18:00:06.448000,(-14 -2 -13 -5 1 -3 2 2)
1969/12/31/18:00:06.448000,(-5 -8 -3 -2 -3 -5 1 -1)
1969/12/31/18:00:06.465000,(-3 -5 -10 -6 -2 -4 -3 -1)
1969/12/31/18:00:06.465000,(0 3 3 3 -2 -1 1 -1)
1969/12/31/18:00:06.472000,(3 -11 -12 -10 -3 -2 0 0)
1969/12/31/18:00:06.472000,(0 1 4 -1 0 0 4 2)
1969/12/31/18:00:06.478000,(3 2 -4 -1 4 -2 -3 -3)
1969/12/31/18:00:06.478000,(-1 -4 7 8 0 -1 1 0)
1969/12/31/18:00:06.495000,(2 3 0 0 -3 -2 0 2)
1969/12/31/18:00:06.495000,(-5 -11 2 1 2 -1 1 -1)
1969/12/31/18:00:06.497000,(0 -7 -9 -7 -2 3 -1 2)
1969/12/31/18:00:06.497000,(-1 5 5 2 2 2 -2 -1)
1969/12/31/18:00:06.517000,(-2 13 -2 -4 -2 0 -1 -2)
1969/12/31/18:00:06.517000,(-3 -11 -6 -3 -1 0 -2 -1)
1969/12/31/18:00:06.519000,(1 -1 1 -1 -1 -1 -1 0)
1969/12/31/18:00:06.519000,(2 3 -1 -1 -2 -3 -4 -5)
1969/12/31/18:00:06.532000,(-9 -13 -1 0 -3 2 -3 -3)
1969/12/31/18:00:06.532000,(0 8 11 9 2 0 2 1)
1969/12/31/18:00:06.539000,(5 1 -3 0 -3 -5 -3 -4)
1969/12/31/18:00:06.539000,(-4 -6 0 -1 0 0 -1 1)
1969/12/31/18:00:06.555000,(1 -3 -2 -3 -1 -3 -2 -3)
1969/12/31/18:00:06.555000,(1 0 2 0 -1 -3 -3 -1)
1969/12/31/18:00:06.556000,(-4 -1 1 0 0 1 1 -1)
1969/12/31/18:00:06.556000,(-2 0 -3 1 -2 -2 0 -1)
1969/12/31/18:00:06.577000,(-1 -6 -3 -3 -1 -1 1 1)
1969/12/31/18:00:06.577000,(1 -3 -1 0 -1 0 1 3)
1969/12/31/18:00:06.579000,(-2 -1 -3 -4 -1 -1 0 1)
1969/12/31/18:00:06.579000,(1 2 3 2 0 0 -1 1)
1969/12/31/18:00:06.591000,(-1 -5 -4 -3 0 0 -1 0)
1969/12/31/18:00:06.592000,(1 -1 0 1 0 -2 -1 2)
1969/12/31/18:00:06.598000,(0 4 -7 -2 0 0 1 0)
1969/12/31/18:00:06.598000,(-1 1 2 1 1 1 2 1)
1969/12/31/18:00:06.623000,(-11 -14 -3 -3 -4 -4 -3 -4)
1969/12/31/18:00:06.623000,(-26 -20 -5 -1 0 -1 -3 -10)
1969/12/31/18:00:06.624000,(4 3 1 1 0 -2 -1 -1)
1969/12/31/18:00:06.624000,(-4 -4 -11 -14 -5 -3 1 1)
1969/12/31/18:00:06.637000,(-2 -4 -2 -1 1 -1 0 -4)
1969/12/31/18:00:06.637000,(9 3 -3 -4 -3 0 -3 3)
1969/12/31/18:00:06.639000,(-4 -4 -5 -7 -4 -3 -1 -2)
1969/12/31/18:00:06.639000,(-2 -2 -3 -1 0 0 -2 -1)
1969/12/31/18:00:06.652000,(2 -1 1 -1 0 1 -2 2)
1969/12/31/18:00:06.652000,(0 3 -1 2 1 0 -1 -1)
1969/12/31/18:00:06.659000,(-3 -4 -4 -5 -3 0 1 -1)
1969/12/31/18:00:06.659000,(1 1 4 2 0 -2 -2 -4)
1969/12/31/18:00:06.675000,(-3 -1 -4 -1 0 1 0 0)
1969/12/31/18:00:06.675000,(4 3 1 -1 -2 -1 0 -1)
1969/12/31/18:00:06.677000,(1 2 3 4 2 0 -2 -1)
1969/12/31/18:00:06.677000,(-3 -5 -3 0 -1 -1 -2 -2)
1969/12/31/18:00:06.697000,(-1 0 0 0 3 1 2 1)
1969/12/31/18:00:06.697000,(0 0 -4 -5 -3 -1 0 -2)
1969/12/31/18:00:06.699000,(1 2 4 3 -1 -3 -3 -1)
1969/12/31/18:00:06.699000,(-4 -4 -1 1 -1 -3 0 -1)
1969/12/31/18:00:06.712000,(3 1 -1 0 -1 -1 -2 1)
1969/12/31/18:00:06.712000,(0 -4 1 -2 1 -2 1 -1)
1969/12/31/18:00:06.718000,(0 6 -3 -3 -1 0 0 -1)
1969/12/31/18:00:06.718000,(-1 -2 -3 -3 -1 -1 -2 -2)
1969/12/31/18:00:06.742000,(0 -1 -2 -1 -4 -1 0 0)
1969/12/31/18:00:06.742000,(1 2 2 3 -1 -3 -1 -1)
1969/12/31/18:00:06.744000,(-2 -6 -1 -1 -1 -1 -2 0)
1969/12/31/18:00:06.744000,(-1 -4 -4 -4 -1 1 -2 -1)
1969/12/31/18:00:06.758000,(3 3 0 1 2 0 0 -1)
1969/12/31/18:00:06.758000,(0 0 -2 1 -1 0 -1 0)
1969/12/31/18:00:06.760000,(-3 -3 -4 -1 -2 -1 -1 0)
1969/12/31/18:00:06.760000,(1 3 2 4 -1 1 1 0)
1969/12/31/18:00:06.780000,(-1 -3 -1 -1 -2 -1 -2 -2)
1969/12/31/18:00:06.780000,(1 1 1 0 2 3 -1 1)
1969/12/31/18:00:06.781000,(-1 1 -2 0 -1 1 0 0)
1969/12/31/18:00:06.781000,(-2 -1 2 0 0 -3 -1 -1)
1969/12/31/18:00:06.781000,(0 -1 0 1 -1 -1 0 0)
1969/12/31/18:00:06.781000,(1 -1 -2 -2 -1 -1 1 -2)
1969/12/31/18:00:06.788000,(-3 -4 -8 -4 -1 1 -1 -2)
1969/12/31/18:00:06.788000,(1 4 3 0 2 -1 -1 -1)
1969/12/31/18:00:06.796000,(-3 -2 -2 0 1 0 -2 -1)
1969/12/31/18:00:06.796000,(1 4 3 4 3 -1 -2 0)
1969/12/31/18:00:06.820000,(-3 -5 -6 -4 -2 1 1 0)
1969/12/31/18:00:06.820000,(-3 -6 -3 0 -2 -2 2 -1)
1969/12/31/18:00:06.821000,(3 5 4 -4 -3 -2 -1 0)
1969/12/31/18:00:06.821000,(-1 -3 -5 -4 -1 -2 0 0)
1969/12/31/18:00:06.825000,(2 3 7 1 1 -1 -1 0)
1969/12/31/18:00:06.825000,(-5 -6 -5 1 2 1 -1 0)
1969/12/31/18:00:06.833000,(-2 -7 -11 1 -2 -3 -1 -3)
1969/12/31/18:00:06.833000,(2 1 3 -1 1 -1 -2 -1)
1969/12/31/18:00:06.849000,(-3 -2 -8 -18 -3 -10 -4 -2)
1969/12/31/18:00:06.849000,(2 6 8 1 -2 6 -5 0)
1969/12/31/18:00:06.856000,(-2 0 0 15 2 6 14 3)
1969/12/31/18:00:06.856000,(-2 1 4 -18 -5 -14 -5 2)
1969/12/31/18:00:06.871000,(-6 -8 -9 5 2 8 9 0)
1969/12/31/18:00:06.871000,(-3 -5 -31 -32 -6 -7 -8 -4)
1969/12/31/18:00:06.879000,(4 9 35 31 13 3 9 9)
1969/12/31/18:00:06.879000,(2 6 7 14 4 5 -2 -3)
1969/12/31/18:00:06.885000,(-4 -4 -36 -53 -14 -10 4 2)
1969/12/31/18:00:06.885000,(-6 -13 22 20 -2 -4 -5 -6)
1969/12/31/18:00:06.901000,(6 14 -32 3 -1 1 -4 2)
1969/12/31/18:00:06.901000,(4 17 72 24 11 5 9 6)
1969/12/31/18:00:06.908000,(2 10 23 42 13 8 1 3)
1969/12/31/18:00:06.908000,(-5 -13 -37 -39 -11 -1 -4 -6)
1969/12/31/18:00:06.916000,(-16 -34 -71 -42 -15 -7 -13 -12)
1969/12/31/18:00:06.916000,(-2 -6 4 -6 -4 0 2 2)
1969/12/31/18:00:06.939000,(8 20 40 19 4 7 -3 0)
1969/12/31/18:00:06.939000,(7 11 36 33 8 2 -4 -3)
1969/12/31/18:00:06.940000,(2 -2 -7 -2 2 1 -4 -1)
1969/12/31/18:00:06.940000,(-1 -8 -5 -18 -9 3 -13 -10)
1969/12/31/18:00:06.954000,(-7 -11 -2 -25 -13 2 -7 -6)
1969/12/31/18:00:06.954000,(3 4 15 30 4 2 5 2)
1969/12/31/18:00:06.955000,(9 12 14 16 9 9 -1 -1)
1969/12/31/18:00:06.955000,(-11 -19 -40 -10 -3 -1 1 -5)
1969/12/31/18:00:06.969000,(0 2 10 5 0 -7 -1 3)
1969/12/31/18:00:06.969000,(-5 -2 -4 -6 -2 -4 3 0)
1969/12/31/18:00:06.977000,(-8 -8 -2 -19 -9 -7 -1 3)
1969/12/31/18:00:06.977000,(-3 -5 -16 0 0 -1 7 6)
1969/12/31/18:00:06.990000,(-3 -4 -17 -1 -1 -11 1 -3)
1969/12/31/18:00:06.990000,(-1 2 -11 -6 0 -4 11 11)
1969/12/31/18:00:06.999000,(0 4 11 0 2 -4 4 4)
1969/12/31/18:00:06.999000,(-6 -2 -10 3 -1 -4 7 1)
1969/12/31/18:00:07.014000,(1 -9 -19 -4 1 -2 9 14)
1969/12/31/18:00:07.014000,(2 -3 -14 -14 -3 -5 1 7)
1969/12/31/18:00:07.014000,(0 8 19 -5 -5 -8 -9 -11)
1969/12/31/18:00:07.014000,(-2 0 -19 -6 -7 -4 -8 -7)
1969/12/31/18:00:07.037000,(-9 -3 24 19 5 6 -3 -6)
1969/12/31/18:00:07.037000,(1 -2 -4 -1 -1 3 -6 -4)
1969/12/31/18:00:07.038000,(0 -6 21 9 1 5 -3 -3)
1969/12/31/18:00:07.038000,(3 7 -15 -6 -3 1 -2 0)
1969/12/31/18:00:07.051000,(2 2 -1 7 -3 -1 -8 -7)
1969/12/31/18:00:07.051000,(3 3 3 -3 -2 -1 -1 -1)
1969/12/31/18:00:07.059000,(-6 -8 -2 -7 -3 0 -5 -2)
1969/12/31/18:00:07.059000,(-1 13 22 14 4 4 -4 -8)
1969/12/31/18:00:07.074000,(0 -3 1 5 1 3 -7 -5)
1969/12/31/18:00:07.074000,(-5 -12 -7 -3 -5 -1 -6 -8)
1969/12/31/18:00:07.075000,(3 -7 -7 -6 -5 0 -2 2)
1969/12/31/18:00:07.075000,(5 -2 2 0 -1 0 -1 -1)
1969/12/31/18:00:07.106000,(-1 -2 -3 -1 0 -1 0 -2)
1969/12/31/18:00:07.106000,(0 -1 -1 -2 2 2 1 -2)
1969/12/31/18:00:07.107000,(-3 9 10 -2 0 -2 -2 -4)
1969/12/31/18:00:07.107000,(-2 -9 -5 2 0 -2 0 2)
1969/12/31/18:00:07.110000,(0 0 -8 -4 0 -2 -2 1)
1969/12/31/18:00:07.110000,(-2 2 -3 -3 -3 -3 10 9)
1969/12/31/18:00:07.118000,(3 4 4 1 1 -7 -15 -12)
1969/12/31/18:00:07.119000,(-1 3 3 1 0 0 0 -4)
1969/12/31/18:00:07.133000,(3 -3 -10 -5 -2 -3 -4 -2)
1969/12/31/18:00:07.133000,(-8 2 10 4 2 2 -3 -16)
1969/12/31/18:00:07.134000,(-1 -9 -4 -5 -2 -4 8 19)
1969/12/31/18:00:07.134000,(-2 -4 -9 -4 -1 -3 2 -1)
1969/12/31/18:00:07.157000,(3 5 0 0 -2 -3 4 7)
1969/12/31/18:00:07.157000,(14 12 3 0 0 -1 -1 3)
1969/12/31/18:00:07.158000,(-3 -3 -3 -2 0 1 10 25)
1969/12/31/18:00:07.158000,(-31 -20 -11 -8 -7 -9 -21 -55)
1969/12/31/18:00:07.170000,(4 7 3 2 2 3 7 10)
1969/12/31/18:00:07.170000,(11 9 2 1 0 -7 -11 -17)
1969/12/31/18:00:07.179000,(-7 -10 -16 -14 -7 -9 2 -6)
1969/12/31/18:00:07.179000,(-14 -8 -6 -4 0 -6 8 23)
1969/12/31/18:00:07.194000,(21 13 1 -3 -2 1 -7 -14)
1969/12/31/18:00:07.194000,(-36 -14 5 5 8 34 -11 -25)
1969/12/31/18:00:07.194000,(28 8 18 9 -9 -18 8 42)
1969/12/31/18:00:07.194000,(0 -3 8 7 1 -2 -35 -20)
1969/12/31/18:00:07.208000,(-24 -17 3 -1 -8 -5 14 -7)
1969/12/31/18:00:07.208000,(35 12 0 1 -6 -5 -26 -12)
1969/12/31/18:00:07.216000,(-25 -5 4 1 5 22 5 -38)
1969/12/31/18:00:07.216000,(-12 -11 -8 -3 -5 -12 2 37)
1969/12/31/18:00:07.230000,(5 3 -5 -1 5 10 10 -9)
1969/12/31/18:00:07.230000,(-6 3 3 4 3 -4 21 18)
1969/12/31/18:00:07.239000,(16 10 0 2 6 14 -18 -11)
1969/12/31/18:00:07.239000,(-5 10 1 2 -1 -1 -3 -41)
1969/12/31/18:00:07.254000,(-38 -23 -9 -6 -8 -15 -11 -17)
1969/12/31/18:00:07.254000,(-34 -14 -9 -8 -9 -24 7 -20)
1969/12/31/18:00:07.254000,(21 2 -1 -1 -2 -21 6 29)
1969/12/31/18:00:07.254000,(41 36 7 3 13 42 25 43)
1969/12/31/18:00:07.277000,(-11 -24 -6 -3 1 16 -7 -14)
1969/12/31/18:00:07.277000,(-30 -15 -10 -9 -7 -10 -9 -7)
1969/12/31/18:00:07.278000,(8 -1 2 3 8 26 -8 16)
1969/12/31/18:00:07.278000,(54 18 5 1 -17 -102 -29 30)
1969/12/31/18:00:07.290000,(-8 -1 -7 -6 3 65 -9 -32)
1969/12/31/18:00:07.291000,(17 9 6 0 -4 -12 18 27)
1969/12/31/18:00:07.299000,(-6 12 0 0 -7 -46 -27 -21)
1969/12/31/18:00:07.299000,(-3 -20 -8 -4 9 59 -4 -15)
1969/12/31/18:00:07.314000,(-19 -10 -6 -5 -3 -15 -3 14)
1969/12/31/18:00:07.314000,(19 11 0 1 -3 -3 12 30)
1969/12/31/18:00:07.314000,(-25 -7 0 -1 12 36 4 -35)
1969/12/31/18:00:07.314000,(-18 6 9 16 3 -38 4 24)
1969/12/31/18:00:07.330000,(13 -1 -5 -6 -5 -6 38 26)
1969/12/31/18:00:07.330000,(-13 -21 -5 -1 7 49 1 -27)
1969/12/31/18:00:07.337000,(6 12 1 -4 -13 -29 9 3)
1969/12/31/18:00:07.337000,(-7 -13 -3 -4 2 -30 -33 -14)
1969/12/31/18:00:07.374000,(35 24 9 3 -2 32 1 32)
1969/12/31/18:00:07.374000,(-12 0 -4 -1 9 1 3 -14)
1969/12/31/18:00:07.376000,(-32 -21 -3 10 7 19 -17 -22)
1969/12/31/18:00:07.376000,(6 -14 -12 -15 -13 19 28 24)
1969/12/31/18:00:07.382000,(12 9 10 6 7 14 -5 -6)
1969/12/31/18:00:07.382000,(30 11 3 1 -15 -70 -31 12)
1969/12/31/18:00:07.383000,(-32 -1 3 -1 1 13 5 -22)
1969/12/31/18:00:07.383000,(-14 -7 -2 -1 -4 -37 -21 -15)
1969/12/31/18:00:07.396000,(76 46 18 10 6 -9 9 41)
1969/12/31/18:00:07.396000,(-27 -2 1 -1 5 36 -19 -29)
1969/12/31/18:00:07.410000,(27 7 -2 -3 6 33 35 38)
1969/12/31/18:00:07.410000,(-34 -29 -11 0 2 63 33 -19)
1969/12/31/18:00:07.419000,(-47 -24 -11 -17 -13 -70 -37 -28)
1969/12/31/18:00:07.419000,(17 -3 1 9 -2 -42 8 4)
1969/12/31/18:00:07.421000,(-38 -15 -13 -8 -7 24 -25 -25)
1969/12/31/18:00:07.421000,(-5 28 14 7 3 12 19 -3)
1969/12/31/18:00:07.442000,(-25 -10 -5 5 4 5 2 -4)
1969/12/31/18:00:07.442000,(3 -5 -4 -9 0 2 -11 18)
1969/12/31/18:00:07.443000,(12 3 0 -4 -10 -34 10 -2)
1969/12/31/18:00:07.443000,(-11 -4 -4 -3 5 40 1 -38)
1969/12/31/18:00:07.455000,(23 20 2 1 -6 -33 -6 40)
1969/12/31/18:00:07.456000,(-7 -20 1 -2 7 95 10 11)
1969/12/31/18:00:07.464000,(9 -3 -1 -1 -13 -84 -21 -20)
1969/12/31/18:00:07.464000,(9 -1 0 -5 -3 -30 -31 -18)
1969/12/31/18:00:07.479000,(10 14 8 11 12 -18 40 22)
1969/12/31/18:00:07.479000,(2 0 -3 0 14 90 49 12)
1969/12/31/18:00:07.481000,(16 -4 3 6 8 -21 37 83)
1969/12/31/18:00:07.481000,(-13 -4 -10 -12 -20 -47 -6 4)
1969/12/31/18:00:07.510000,(-14 -15 -4 -7 -6 41 9 -22)
1969/12/31/18:00:07.510000,(4 26 9 6 -3 -69 3 8)
1969/12/31/18:00:07.511000,(6 -9 -3 -4 13 100 36 23)
1969/12/31/18:00:07.511000,(16 1 -1 -8 -14 -51 -21 -7)
1969/12/31/18:00:07.515000,(-8 -14 -6 1 -1 -14 -15 -13)
1969/12/31/18:00:07.515000,(-29 -10 -1 -1 -4 -36 12 -5)
1969/12/31/18:00:07.524000,(19 23 6 3 -1 8 -20 -16)
1969/12/31/18:00:07.524000,(3 10 2 -3 -4 8 -9 -10)
1969/12/31/18:00:07.539000,(-32 -31 -12 -11 11 40 -52 -39)
1969/12/31/18:00:07.539000,(15 12 7 1 -13 -37 23 19)
1969/12/31/18:00:07.541000,(-20 -26 -12 -8 5 11 -27 -42)
1969/12/31/18:00:07.541000,(28 17 9 11 -32 -22 28 21)
1969/12/31/18:00:07.562000,(11 -1 -7 -7 12 41 44 27)
1969/12/31/18:00:07.562000,(49 18 11 15 -11 -39 -3 77)
1969/12/31/18:00:07.563000,(-68 -7 -10 -31 -33 -41 -42 -79)
1969/12/31/18:00:07.563000,(-24 -35 -14 13 78 59 27 19)
1969/12/31/18:00:07.575000,(5 6 5 3 0 -11 2 7)
1969/12/31/18:00:07.575000,(-28 -26 -12 -9 18 60 -30 -27)
1969/12/31/18:00:07.584000,(15 6 -1 3 15 13 21 -16)
1969/12/31/18:00:07.584000,(-3 0 0 -2 -10 17 7 4)
1969/12/31/18:00:07.599000,(7 20 12 27 85 19 -9 -16)
1969/12/31/18:00:07.599000,(6 -2 -5 -13 -83 -44 -32 -12)
1969/12/31/18:00:07.601000,(14 -6 -5 -18 -15 -8 -2 31)
1969/12/31/18:00:07.601000,(-6 10 6 0 -8 17 8 5)
1969/12/31/18:00:07.622000,(11 -1 0 1 -2 -21 1 3)
1969/12/31/18:00:07.622000,(-9 2 -4 -5 11 -50 -57 -31)
1969/12/31/18:00:07.623000,(7 3 5 12 -22 0 46 11)
1969/12/31/18:00:07.623000,(-5 -4 -1 -5 0 6 -8 -15)
1969/12/31/18:00:07.644000,(2 8 1 0 -6 -3 -20 -4)
1969/12/31/18:00:07.644000,(9 14 4 9 40 24 16 -3)
1969/12/31/18:00:07.646000,(-9 -20 -4 4 -2 -32 -1 17)
1969/12/31/18:00:07.646000,(4 9 -1 -5 1 7 -28 -16)
1969/12/31/18:00:07.659000,(-3 16 -3 5 -16 -9 19 -3)
1969/12/31/18:00:07.659000,(-15 -39 -13 -24 -36 9 -3 -43)
1969/12/31/18:00:07.661000,(11 28 18 21 8 -7 6 16)
1969/12/31/18:00:07.661000,(1 -20 3 13 71 75 36 41)
1969/12/31/18:00:07.689000,(-39 10 38 23 -8 -17 -54 -35)
1969/12/31/18:00:07.689000,(21 40 -30 -19 -9 -37 16 16)
1969/12/31/18:00:07.691000,(11 -31 -18 -52 -79 -95 -39 13)
1969/12/31/18:00:07.691000,(-2 8 12 0 25 -10 -21 -29)
1969/12/31/18:00:07.695000,(37 -21 -84 -34 1 12 30 48)
1969/12/31/18:00:07.695000,(3 1 17 25 80 65 23 63)
1969/12/31/18:00:07.704000,(-35 -13 40 40 55 41 -12 -74)
1969/12/31/18:00:07.704000,(-7 7 -34 -14 -73 -33 -2 -10)
1969/12/31/18:00:07.719000,(-28 -57 9 -21 2 -9 -12 -30)
1969/12/31/18:00:07.719000,(-7 24 45 37 26 28 14 36)
1969/12/31/18:00:07.721000,(39 -2 -63 -38 -81 -50 0 50)
1969/12/31/18:00:07.721000,(31 -28 -42 -22 33 31 -6 -11)
1969/12/31/18:00:07.742000,(-61 20 55 10 -71 -59 -4 -43)
1969/12/31/18:00:07.742000,(-7 -26 -59 -32 -12 -9 -13 -14)
1969/12/31/18:00:07.743000,(18 88 104 61 67 56 49 39)
1969/12/31/18:00:07.744000,(-29 -8 -3 14 14 5 -10 24)
1969/12/31/18:00:07.755000,(61 -85 -119 -49 -17 0 6 51)
1969/12/31/18:00:07.755000,(-16 98 124 65 99 94 19 -39)
1969/12/31/18:00:07.764000,(-8 51 33 20 -47 -49 -21 23)
1969/12/31/18:00:07.764000,(71 -9 -57 -24 -20 -26 17 -1)
1969/12/31/18:00:07.794000,(-79 -37 77 23 -19 -7 1 2)
1969/12/31/18:00:07.794000,(24 -10 -66 -38 -6 -14 -3 -70)
1969/12/31/18:00:07.796000,(53 14 -33 -34 -29 12 -26 17)
1969/12/31/18:00:07.796000,(-84 49 116 42 -1 -8 6 -16)
1969/12/31/18:00:07.802000,(-27 -77 -98 -39 -6 -14 -31 -106)
1969/12/31/18:00:07.802000,(11 28 82 43 7 12 22 24)
1969/12/31/18:00:07.804000,(-36 -16 -63 3 103 20 -17 -60)
1969/12/31/18:00:07.804000,(29 -69 -64 -46 -85 -21 2 36)
1969/12/31/18:00:07.816000,(2 60 71 11 -49 -44 0 -31)
1969/12/31/18:00:07.816000,(-30 -23 -44 -11 -16 -36 -44 -50)
1969/12/31/18:00:07.824000,(23 19 18 -17 -12 -1 -3 -7)
1969/12/31/18:00:07.824000,(-26 -43 7 22 72 16 10 13)
1969/12/31/18:00:07.839000,(24 -7 -61 -30 -23 29 23 60)
1969/12/31/18:00:07.839000,(21 -44 -24 2 37 4 11 11)
1969/12/31/18:00:07.841000,(-48 -1 2 1 -65 -39 -29 -77)
1969/12/31/18:00:07.841000,(64 76 35 9 6 23 30 75)
1969/12/31/18:00:07.862000,(31 25 31 30 98 64 1 -2)
1969/12/31/18:00:07.862000,(-5 -62 -50 -34 -95 -78 -16 35)
1969/12/31/18:00:07.863000,(-20 -14 -48 -5 39 51 -3 -58)
1969/12/31/18:00:07.864000,(-19 28 58 20 -4 -35 4 7)
1969/12/31/18:00:07.886000,(-5 43 8 -7 -21 -8 -21 0)
1969/12/31/18:00:07.886000,(67 -73 -59 4 59 48 53 76)
1969/12/31/18:00:07.887000,(-50 -16 31 -21 -52 -12 -14 -58)
1969/12/31/18:00:07.887000,(-9 46 28 6 -18 -34 -42 -87)
1969/12/31/18:00:07.899000,(12 44 27 8 13 1 8 4)
1969/12/31/18:00:07.899000,(-9 -6 3 7 2 22 4 5)
1969/12/31/18:00:07.901000,(28 -50 -53 -33 -26 -10 38 91)
1969/12/31/18:00:07.901000,(10 -14 -8 -15 -49 -33 -31 -8)
1969/12/31/18:00:07.922000,(12 -19 -28 4 43 0 -18 -27)
1969/12/31/18:00:07.922000,(-24 22 45 25 -7 18 52 51)
1969/12/31/18:00:07.923000,(15 39 10 -12 -41 -65 -75 -49)
1969/12/31/18:00:07.923000,(-13 -37 -17 -4 -1 7 -9 -18)
1969/12/31/18:00:07.936000,(34 -9 -5 7 8 11 23 31)
1969/12/31/18:00:07.936000,(-82 3 20 8 25 -5 -24 -51)
1969/12/31/18:00:07.944000,(88 -1 -29 18 75 59 26 87)
1969/12/31/18:00:07.944000,(-36 68 94 13 -84 -49 -9 -21)
1969/12/31/18:00:07.959000,(2 17 -7 1 -5 -5 -11 25)
1969/12/31/18:00:07.959000,(-15 -47 -32 -26 -27 -15 -32 -43)
1969/12/31/18:00:07.961000,(-58 -34 -10 8 39 21 22 36)
1969/12/31/18:00:07.961000,(-14 -23 -30 4 40 31 -10 -23)
1969/12/31/18:00:07.982000,(14 -11 -31 -21 -24 -15 4 -1)
1969/12/31/18:00:07.982000,(-27 61 67 5 -49 -42 -30 -20)
1969/12/31/18:00:07.983000,(-31 -48 -18 -14 -3 -20 -31 -84)
1969/12/31/18:00:07.983000,(48 7 -34 -7 -21 9 41 64)
1969/12/31/18:00:07.996000,(2 -3 59 46 88 44 19 24)
1969/12/31/18:00:07.996000,(-4 -45 -82 -59 -100 -78 -26 -7)
1969/12/31/18:00:08.004000,(3 14 66 27 13 55 35 37)
1969/12/31/18:00:08.004000,(-28 -5 -21 -4 30 24 4 -4)
1969/12/31/18:00:08.019000,(15 25 13 -2 -36 -55 -21 -28)
1969/12/31/18:00:08.019000,(-1 -30 -48 -22 8 2 -17 -62)
1969/12/31/18:00:08.025000,(2 -24 1 15 34 15 11 -1)
1969/12/31/18:00:08.025000,(10 -23 -75 -31 7 18 23 47)
1969/12/31/18:00:08.042000,(-71 -12 76 44 36 35 23 -19)
1969/12/31/18:00:08.042000,(32 8 -22 -17 -54 -27 -8 48)
1969/12/31/18:00:08.043000,(-19 31 30 12 31 15 6 -51)
1969/12/31/18:00:08.044000,(-9 14 2 -18 -47 -30 -8 25)
1969/12/31/18:00:08.065000,(2 17 -23 -18 -19 -10 -34 1)
1969/12/31/18:00:08.065000,(12 0 4 10 28 8 1 5)
1969/12/31/18:00:08.066000,(31 -14 -13 4 13 7 11 61)
1969/12/31/18:00:08.066000,(4 11 23 20 44 34 32 1)
1969/12/31/18:00:08.079000,(-3 21 31 7 -47 -72 -65 -26)
1969/12/31/18:00:08.079000,(43 33 27 4 0 13 -1 -21)
1969/12/31/18:00:08.085000,(44 2 -31 -4 5 9 10 21)
1969/12/31/18:00:08.085000,(-18 -50 -25 -5 25 1 -10 -35)
1969/12/31/18:00:08.102000,(-1 19 -28 -23 -34 -1 40 42)
1969/12/31/18:00:08.102000,(-47 0 39 14 14 -5 -38 -92)
1969/12/31/18:00:08.104000,(7 15 -33 -13 8 11 3 54)
1969/12/31/18:00:08.104000,(-20 36 99 39 18 -1 5 -34)
1969/12/31/18:00:08.124000,(14 -1 -30 -12 0 39 23 55)
1969/12/31/18:00:08.124000,(1 -35 -11 -13 -37 -43 -2 23)
1969/12/31/18:00:08.126000,(-12 24 15 6 -4 -9 -11 -19)
1969/12/31/18:00:08.126000,(-8 -27 -54 -17 6 -6 -32 -100)
1969/12/31/18:00:08.139000,(14 -2 28 14 0 6 29 25)
1969/12/31/18:00:08.139000,(5 27 29 -18 -25 13 -1 45)
1969/12/31/18:00:08.145000,(-6 -13 2 7 4 14 55 61)
1969/12/31/18:00:08.145000,(10 -10 -18 -10 0 -22 -16 9)
1969/12/31/18:00:08.162000,(6 -13 -20 2 13 -4 -14 -12)
1969/12/31/18:00:08.162000,(32 -14 -34 3 21 8 15 -5)
1969/12/31/18:00:08.163000,(-70 -11 33 -4 -30 -26 -39 -88)
1969/12/31/18:00:08.163000,(23 19 -1 8 22 20 -7 14)
1969/12/31/18:00:08.184000,(17 -24 -64 -29 -17 0 18 9)
1969/12/31/18:00:08.184000,(-34 25 66 27 21 15 8 -22)
1969/12/31/18:00:08.186000,(16 22 -4 -2 -5 -10 -27 22)
1969/12/31/18:00:08.186000,(16 -8 -15 4 -10 -16 5 6)
1969/12/31/18:00:08.199000,(-22 3 32 0 -27 -19 -7 -33)
1969/12/31/18:00:08.200000,(11 2 -44 -9 25 32 3 27)
1969/12/31/18:00:08.205000,(3 -6 15 -1 -13 -10 -10 -2)
1969/12/31/18:00:08.206000,(-5 15 5 -7 0 26 31 41)
1969/12/31/18:00:08.222000,(-27 -44 -12 2 -4 -37 -26 -24)
1969/12/31/18:00:08.222000,(-36 -19 -32 -17 1 28 8 -27)
1969/12/31/18:00:08.223000,(7 9 16 15 8 -7 42 18)
1969/12/31/18:00:08.223000,(24 6 -45 -38 -77 -47 -38 -14)
1969/12/31/18:00:08.252000,(3 53 77 34 35 39 44 62)
1969/12/31/18:00:08.252000,(-1 -9 -12 -3 19 12 -1 -16)
1969/12/31/18:00:08.253000,(-13 3 7 9 16 0 -2 -30)
1969/12/31/18:00:08.253000,(-7 -12 -16 9 21 18 19 -12)
1969/12/31/18:00:08.258000,(32 7 -13 -18 -20 -8 -15 -1)
1969/12/31/18:00:08.258000,(-6 10 10 3 -1 -12 -4 -18)
1969/12/31/18:00:08.267000,(-19 -41 -10 -1 6 21 6 2)
1969/12/31/18:00:08.267000,(14 -4 -10 -21 -8 -14 8 24)
1969/12/31/18:00:08.282000,(-5 64 44 26 29 44 28 2)
1969/12/31/18:00:08.282000,(-1 -1 8 14 -13 -27 -48 -16)
1969/12/31/18:00:08.283000,(0 -24 -32 -19 -31 -48 -58 -62)
1969/12/31/18:00:08.283000,(-31 -64 -30 -17 -8 -17 -20 -22)
1969/12/31/18:00:08.304000,(-12 -30 -18 -29 -47 -33 -15 18)
1969/12/31/18:00:08.304000,(-10 -24 -9 4 33 29 38 40)
1969/12/31/18:00:08.306000,(31 12 -15 -2 3 12 10 31)
1969/12/31/18:00:08.306000,(-20 -22 9 4 -2 4 -32 -42)
1969/12/31/18:00:08.319000,(-11 16 19 11 13 8 14 -6)
1969/12/31/18:00:08.319000,(50 52 11 12 38 30 19 78)
1969/12/31/18:00:08.325000,(2 -31 2 -4 -39 -25 26 61)
1969/12/31/18:00:08.326000,(-11 -13 -15 3 -4 -36 -5 12)
1969/12/31/18:00:08.342000,(11 -19 -30 -18 7 -1 -18 -19)
1969/12/31/18:00:08.342000,(14 4 3 3 -15 -2 15 21)
1969/12/31/18:00:08.343000,(-24 -26 -14 -4 -1 -3 -27 -39)
1969/12/31/18:00:08.343000,(12 44 27 0 10 37 51 34)
1969/12/31/18:00:08.364000,(60 9 -14 13 12 13 27 75)
1969/12/31/18:00:08.364000,(-47 12 12 -6 -20 -24 -6 -73)
1969/12/31/18:00:08.366000,(-1 -2 16 26 83 39 -5 -22)
1969/12/31/18:00:08.366000,(-6 -16 -2 -27 -111 -63 -61 -22)
1969/12/31/18:00:08.387000,(13 3 -45 -24 10 7 -11 -10)
1969/12/31/18:00:08.387000,(6 -27 -8 -2 -5 -4 22 12)
1969/12/31/18:00:08.389000,(8 39 29 12 20 30 33 27)
1969/12/31/18:00:08.389000,(-25 3 16 20 46 21 -11 -10)
1969/12/31/18:00:08.402000,(13 -31 -22 5 9 2 -3 1)
1969/12/31/18:00:08.402000,(-18 44 25 -2 -13 -3 10 50)
1969/12/31/18:00:08.403000,(0 44 42 14 -33 -32 0 22)
1969/12/31/18:00:08.403000,(41 27 18 12 30 31 0 2)
1969/12/31/18:00:08.424000,(-29 -38 -13 -8 -18 -22 -22 -38)
1969/12/31/18:00:08.424000,(1 -37 -48 -30 -33 -33 -11 3)
1969/12/31/18:00:08.426000,(23 4 3 4 41 27 6 19)
1969/12/31/18:00:08.426000,(-12 4 12 11 -12 -7 48 -15)
1969/12/31/18:00:08.439000,(-15 -10 -18 -16 -13 12 10 -6)
1969/12/31/18:00:08.439000,(10 3 2 -1 7 2 -6 -34)
1969/12/31/18:00:08.446000,(-36 -11 -14 -23 -47 -29 -24 -74)
1969/12/31/18:00:08.446000,(15 -3 -7 4 28 18 1 8)
1969/12/31/18:00:08.462000,(9 15 13 12 14 1 11 6)
1969/12/31/18:00:08.462000,(-1 4 9 8 4 -1 -6 23)
1969/12/31/18:00:08.463000,(-13 -25 -18 -8 19 22 9 7)
1969/12/31/18:00:08.463000,(16 1 1 -13 -31 0 7 17)
1969/12/31/18:00:08.484000,(31 19 3 2 -12 -29 -16 -14)
1969/12/31/18:00:08.484000,(-37 -7 2 1 -9 3 5 -6)
1969/12/31/18:00:08.486000,(-41 -14 -12 2 4 -3 -13 -37)
1969/12/31/18:00:08.486000,(-37 -41 -19 -2 23 10 -20 -13)
1969/12/31/18:00:08.499000,(26 36 -6 -14 -17 -12 -16 -2)
1969/12/31/18:00:08.499000,(8 8 53 33 40 22 10 14)
1969/12/31/18:00:08.506000,(51 27 -11 6 17 26 25 44)
1969/12/31/18:00:08.506000,(-4 -6 -4 -24 -56 -27 21 29)
1969/12/31/18:00:08.521000,(-21 -8 -10 -10 -9 -10 -33 -53)
1969/12/31/18:00:08.521000,(78 33 -5 4 16 -1 -34 -3)
1969/12/31/18:00:08.529000,(-67 -72 -30 -23 -28 -10 27 12)
1969/12/31/18:00:08.529000,(9 -1 3 10 32 19 -24 -14)
1969/12/31/18:00:08.544000,(-39 -23 -7 -30 8 57 11 -14)
1969/12/31/18:00:08.544000,(24 13 6 16 -9 -58 -12 1)
1969/12/31/18:00:08.546000,(24 33 24 18 -18 -6 -27 -40)
1969/12/31/18:00:08.546000,(52 -1 -9 8 29 9 15 77)
1969/12/31/18:00:08.558000,(-76 -28 8 10 -3 -23 5 -41)
1969/12/31/18:00:08.558000,(-6 -1 -10 -14 17 93 21 -65)
1969/12/31/18:00:08.567000,(18 7 -10 -16 -5 -45 -64 -1)
1969/12/31/18:00:08.567000,(48 27 16 10 -9 -41 17 33)
1969/12/31/18:00:08.582000,(-9 12 15 9 11 6 -23 -19)
1969/12/31/18:00:08.582000,(-12 -19 -14 -28 -15 -38 5 16)
1969/12/31/18:00:08.583000,(-76 -45 -21 -9 -17 12 14 -49)
1969/12/31/18:00:08.583000,(-31 -15 -9 -17 -3 9 -43 -48)
1969/12/31/18:00:08.605000,(29 11 13 31 15 -44 19 36)
1969/12/31/18:00:08.605000,(-7 -8 -16 -8 -14 0 21 15)
1969/12/31/18:00:08.606000,(69 22 7 -3 -6 24 1 31)
1969/12/31/18:00:08.606000,(-71 -1 5 -1 8 -45 -8 -39)
1969/12/31/18:00:08.626000,(-17 -12 -6 -15 -22 -6 0 -17)
1969/12/31/18:00:08.626000,(-17 -18 -6 8 0 -17 -9 11)
1969/12/31/18:00:08.635000,(29 25 7 0 6 13 2 9)
1969/12/31/18:00:08.635000,(6 -8 4 7 7 14 0 7)
1969/12/31/18:00:08.642000,(18 6 7 13 12 51 -8 0)
1969/12/31/18:00:08.642000,(19 -4 -1 -1 -12 -47 14 27)
1969/12/31/18:00:08.643000,(-11 -7 -10 -10 -8 -10 -46 -20)
1969/12/31/18:00:08.643000,(22 16 3 -9 6 14 -8 -7)
1969/12/31/18:00:08.665000,(34 11 12 7 -7 -19 26 42)
1969/12/31/18:00:08.665000,(78 31 1 -11 6 42 19 22)
1969/12/31/18:00:08.666000,(-45 -14 3 36 16 13 69 14)
1969/12/31/18:00:08.666000,(-6 -6 -4 11 8 31 -6 -24)
1969/12/31/18:00:08.678000,(-10 -20 -7 -4 -3 -24 -40 -22)
1969/12/31/18:00:08.678000,(-4 17 6 -10 -12 10 -14 -1)
1969/12/31/18:00:08.695000,(51 18 3 -9 -4 -3 3 26)
1969/12/31/18:00:08.695000,(-11 5 -2 -4 -4 -30 -14 -7)
1969/12/31/18:00:08.702000,(12 11 1 -7 -10 -8 16 19)
1969/12/31/18:00:08.702000,(-21 -8 4 14 7 1 -2 -13)
1969/12/31/18:00:08.703000,(-36 -17 -9 -10 -7 -10 -8 26)
1969/12/31/18:00:08.703000,(63 38 12 15 15 28 24 58)
1969/12/31/18:00:08.724000,(-10 -16 -1 -4 0 4 -9 4)
1969/12/31/18:00:08.725000,(23 5 0 4 -3 -11 22 5)
1969/12/31/18:00:08.726000,(-19 -8 4 4 9 25 -40 -35)
1969/12/31/18:00:08.726000,(1 -9 -4 -6 -7 -9 24 -4)
1969/12/31/18:00:08.747000,(-61 -26 -12 -5 -6 -18 -1 -31)
1969/12/31/18:00:08.747000,(-37 1 2 1 2 0 -18 -17)
1969/12/31/18:00:08.748000,(1 3 3 -7 -9 -9 3 -18)
1969/12/31/18:00:08.748000,(38 15 7 10 9 11 -7 -1)
1969/12/31/18:00:08.761000,(-10 -13 -6 -4 1 5 -8 5)
1969/12/31/18:00:08.761000,(-50 -30 -15 -7 -9 -6 -20 -34)
1969/12/31/18:00:08.768000,(-11 -13 -13 -15 -9 -12 4 1)
1969/12/31/18:00:08.768000,(-27 0 4 2 0 -2 -11 12)
1969/12/31/18:00:08.792000,(74 30 20 19 17 20 31 94)
1969/12/31/18:00:08.792000,(-58 -24 -7 -5 -6 -3 -24 -47)
1969/12/31/18:00:08.794000,(57 32 5 1 -5 -22 4 15)
1969/12/31/18:00:08.794000,(-18 -36 -14 -7 2 9 5 -5)
1969/12/31/18:00:08.798000,(35 21 3 -2 -7 0 3 58)
1969/12/31/18:00:08.798000,(74 15 5 9 10 11 18 73)
1969/12/31/18:00:08.807000,(-46 -27 -6 -5 -5 -17 -18 -25)
1969/12/31/18:00:08.807000,(40 15 9 10 11 16 13 43)
1969/12/31/18:00:08.829000,(-16 -3 -8 -6 -3 -1 -19 -69)
1969/12/31/18:00:08.829000,(32 33 14 8 4 1 13 64)
1969/12/31/18:00:08.831000,(-2 1 -1 -2 4 1 17 8)
1969/12/31/18:00:08.831000,(-3 -2 4 2 -1 3 -2 -10)
1969/12/31/18:00:08.844000,(-23 -3 2 0 -3 -6 -9 -32)
1969/12/31/18:00:08.844000,(-30 -15 0 0 -1 1 -5 -17)
1969/12/31/18:00:08.846000,(-4 17 6 4 2 1 10 -4)
1969/12/31/18:00:08.846000,(-7 -19 -6 -6 -1 0 -2 4)
1969/12/31/18:00:08.858000,(-25 3 -1 -2 -2 -4 -11 -28)
1969/12/31/18:00:08.858000,(-14 -5 3 2 -3 -2 -9 -22)
1969/12/31/18:00:08.867000,(-3 -7 -8 -10 -7 -5 -1 9)
1969/12/31/18:00:08.867000,(-11 6 -4 0 2 0 -2 -14)
1969/12/31/18:00:08.882000,(-7 -14 -9 -5 -2 -1 -1 -9)
1969/12/31/18:00:08.882000,(10 -1 3 2 0 1 -5 -1)
1969/12/31/18:00:08.884000,(35 14 5 4 1 0 10 46)
1969/12/31/18:00:08.884000,(-17 1 -2 4 2 4 -1 -28)
1969/12/31/18:00:08.905000,(5 -2 0 5 2 2 -7 -45)
1969/12/31/18:00:08.905000,(-20 -19 -14 -10 -8 -9 -11 3)
1969/12/31/18:00:08.906000,(10 -7 -2 -2 -2 -2 -1 -20)
1969/12/31/18:00:08.906000,(-14 3 1 -3 -1 2 0 -12)
1969/12/31/18:00:08.918000,(-11 -5 -6 -3 -4 -1 -3 24)
1969/12/31/18:00:08.918000,(-6 1 -2 -2 -1 -3 -5 -12)
1969/12/31/18:00:08.927000,(4 -9 -6 -2 0 0 2 1)
1969/12/31/18:00:08.927000,(10 13 2 -3 -1 -2 -2 -1)
1969/12/31/18:00:08.949000,(-9 -4 14 4 1 0 0 -9)
1969/12/31/18:00:08.949000,(0 -4 -2 -2 -3 -3 -5 -9)
1969/12/31/18:00:08.951000,(-5 -5 -8 -5 -3 -3 -3 -5)
1969/12/31/18:00:08.951000,(-1 -13 -23 -10 -5 -4 -1 -2)
1969/12/31/18:00:08.964000,(-2 6 20 9 2 1 2 4)
1969/12/31/18:00:08.964000,(-6 7 7 0 1 3 0 -14)
1969/12/31/18:00:08.966000,(10 3 -8 -5 -7 -6 7 0)
1969/12/31/18:00:08.966000,(-18 -4 9 -1 -4 -7 -28 -15)
1969/12/31/18:00:08.987000,(5 -21 -29 -15 -7 -3 2 3)
1969/12/31/18:00:08.987000,(23 24 25 10 2 0 -2 -4)
1969/12/31/18:00:08.988000,(-1 -12 -12 -5 3 7 5 -1)
1969/12/31/18:00:08.988000,(-1 16 1 -1 -3 -1 4 2)
1969/12/31/18:00:09.001000,(6 -25 -14 -5 -1 -2 4 0)
1969/12/31/18:00:09.001000,(-8 -7 -3 -1 -4 -5 -14 -16)
1969/12/31/18:00:09.008000,(7 -2 -8 -1 2 4 -1 8)
1969/12/31/18:00:09.008000,(-6 2 2 0 -2 -3 -1 -5)
1969/12/31/18:00:09.024000,(-2 8 12 4 4 5 -3 3)
1969/12/31/18:00:09.024000,(-13 -2 -10 -2 -3 -3 -1 -8)
1969/12/31/18:00:09.026000,(26 6 1 -1 -1 1 20 10)
1969/12/31/18:00:09.026000,(-7 -8 10 5 2 -4 -29 -8)
1969/12/31/18:00:09.047000,(-2 -15 -17 -11 -5 -4 3 -4)
1969/12/31/18:00:09.047000,(-18 -17 -7 -4 -4 -4 -5 -6)
1969/12/31/18:00:09.049000,(1 1 1 -5 -4 -3 -5 -4)
1969/12/31/18:00:09.049000,(2 24 7 2 2 3 22 7)
1969/12/31/18:00:09.061000,(-1 -4 38 18 3 -3 -10 -8)
1969/12/31/18:00:09.061000,(9 33 7 -2 3 8 3 4)
1969/12/31/18:00:09.068000,(-12 -46 -17 -5 -7 -8 -23 -16)
1969/12/31/18:00:09.068000,(-16 -9 -16 -13 -6 -2 8 -1)
1969/12/31/18:00:09.085000,(8 8 -27 -6 -2 -6 -16 -11)
1969/12/31/18:00:09.085000,(-11 1 10 -1 -3 -5 0 -8)
1969/12/31/18:00:09.086000,(-6 6 2 3 1 0 -5 -5)
1969/12/31/18:00:09.086000,(10 33 40 18 5 4 7 2)
1969/12/31/18:00:09.107000,(-21 -37 -33 -20 -9 -7 -10 -3)
1969/12/31/18:00:09.107000,(3 1 -9 2 1 1 10 2)
1969/12/31/18:00:09.108000,(6 -14 -3 1 1 1 2 7)
1969/12/31/18:00:09.108000,(-1 -8 -5 -4 0 -1 -9 -4)
1969/12/31/18:00:09.121000,(-5 -15 -9 -8 -1 8 10 6)
1969/12/31/18:00:09.121000,(7 -7 3 5 1 -4 -9 -7)
1969/12/31/18:00:09.128000,(-19 13 13 3 4 5 0 -4)
1969/12/31/18:00:09.128000,(41 10 -7 -3 -5 1 -2 0)
1969/12/31/18:00:09.128000,(-4 -4 -1 3 0 0 -5 -5)
1969/12/31/18:00:09.128000,(0 -2 -4 -6 -2 2 -1 1)
1969/12/31/18:00:09.128000,(-1 1 0 -2 -1 0 -2 -7)
1969/12/31/18:00:09.128000,(1 1 6 1 0 -1 -3 -4)
1969/12/31/18:00:09.140000,(-1 -5 -8 -2 -1 -2 -4 -3)
1969/12/31/18:00:09.140000,(0 -1 1 -8 1 0 1 -2)
1969/12/31/18:00:09.141000,(0 -2 -4 -1 -4 4 1 1)
1969/12/31/18:00:09.141000,(0 2 15 17 5 -2 -5 -2)
1969/12/31/18:00:09.148000,(0 1 2 4 2 3 -4 0)
1969/12/31/18:00:09.148000,(-2 -2 -1 2 1 1 8 3)
1969/12/31/18:00:09.154000,(-3 -4 -6 -3 0 -2 -1 -1)
1969/12/31/18:00:09.154000,(-6 -9 -19 -17 -5 -5 4 4)
1969/12/31/18:00:09.163000,(2 7 5 0 -1 -10 0 -2)
1969/12/31/18:00:09.163000,(2 1 -2 -4 -3 -4 5 1)
1969/12/31/18:00:09.178000,(-1 0 -4 -2 -3 -6 4 1)
1969/12/31/18:00:09.178000,(-1 -3 -8 -3 -1 -4 1 0)
1969/12/31/18:00:09.180000,(-2 -2 -3 -4 -1 0 4 4)
1969/12/31/18:00:09.180000,(-1 4 0 -1 1 0 2 1)
1969/12/31/18:00:09.200000,(0 -5 -6 -5 -4 -3 0 -2)
1969/12/31/18:00:09.200000,(1 4 2 3 1 -2 0 1)
1969/12/31/18:00:09.202000,(-2 1 -3 0 0 -2 -1 -4)
1969/12/31/18:00:09.202000,(2 0 -3 1 0 -2 1 -1)
1969/12/31/18:00:09.214000,(-6 -8 -5 1 1 1 6 7)
1969/12/31/18:00:09.214000,(0 -1 -9 -5 -4 -5 -4 -4)
1969/12/31/18:00:09.223000,(-1 2 -1 -5 -1 -3 -1 0)
1969/12/31/18:00:09.223000,(0 -8 -4 -1 0 -1 1 0)
1969/12/31/18:00:09.253000,(0 5 10 0 1 1 2 -1)
1969/12/31/18:00:09.253000,(-3 -2 -3 -3 -1 1 -3 -1)
1969/12/31/18:00:09.255000,(1 1 9 4 -1 4 -5 -2)
1969/12/31/18:00:09.255000,(1 7 15 6 0 1 -5 -6)
1969/12/31/18:00:09.268000,(0 -6 -3 0 -1 1 -5 -3)
1969/12/31/18:00:09.268000,(0 -22 -19 -4 -4 0 -3 0)
1969/12/31/18:00:09.269000,(3 5 3 -4 -1 1 -1 2)
1969/12/31/18:00:09.270000,(-4 -3 -14 -7 -3 0 -1 1)
1969/12/31/18:00:09.283000,(-7 5 10 4 1 -4 -1 -4)
1969/12/31/18:00:09.283000,(-2 -1 -2 -1 0 -1 -2 -3)
1969/12/31/18:00:09.284000,(-3 -16 -10 -3 -2 -2 -1 1)
1969/12/31/18:00:09.284000,(-4 -26 -22 -7 -3 -2 0 3)
1969/12/31/18:00:09.298000,(3 21 8 -3 -2 -2 4 2)
1969/12/31/18:00:09.298000,(-10 -11 -3 -1 -1 -3 5 0)
1969/12/31/18:00:09.299000,(-2 0 -8 -3 -1 -3 0 -6)
1969/12/31/18:00:09.299000,(2 18 6 -4 -3 -5 -3 2)
1969/12/31/18:00:09.320000,(-2 -11 -13 -2 -1 -1 -2 -4)
1969/12/31/18:00:09.320000,(1 10 15 0 -1 0 9 10)
1969/12/31/18:00:09.322000,(1 -4 -1 -1 0 -2 -3 1)
1969/12/31/18:00:09.322000,(9 -3 -8 -1 -1 0 3 5)
1969/12/31/18:00:09.334000,(11 21 19 8 2 2 3 16)
1969/12/31/18:00:09.334000,(-19 -8 -7 -5 -3 -4 -5 -17)
1969/12/31/18:00:09.343000,(1 0 -3 2 1 -1 -5 -6)
1969/12/31/18:00:09.343000,(3 17 12 7 2 1 3 6)
1969/12/31/18:00:09.358000,(3 -17 -16 -8 -2 -5 -6 -11)
1969/12/31/18:00:09.358000,(-16 0 -3 -1 -1 -5 5 10)
1969/12/31/18:00:09.359000,(5 -5 -14 -8 -2 -7 7 13)
1969/12/31/18:00:09.359000,(1 -2 -9 -6 -1 -6 7 4)
1969/12/31/18:00:09.388000,(-11 0 2 -1 -3 0 1 -4)
1969/12/31/18:00:09.388000,(15 10 13 4 -4 3 -18 -17)
1969/12/31/18:00:09.389000,(3 2 16 8 2 13 -10 -6)
1969/12/31/18:00:09.389000,(-11 -11 10 4 -4 5 -22 -26)
1969/12/31/18:00:09.394000,(-15 -18 6 2 -3 4 -16 -19)
1969/12/31/18:00:09.394000,(10 3 7 6 3 2 -16 -13)
1969/12/31/18:00:09.403000,(5 1 -1 -1 -2 0 -1 3)
1969/12/31/18:00:09.403000,(3 8 8 3 -2 0 4 3)
1969/12/31/18:00:09.418000,(14 10 -1 4 2 1 1 2)
1969/12/31/18:00:09.418000,(-18 -7 -7 -4 -3 -4 1 3)
1969/12/31/18:00:09.419000,(-14 -11 -5 -4 -1 0 7 9)
1969/12/31/18:00:09.419000,(8 9 3 2 2 0 -2 -11)
1969/12/31/18:00:09.440000,(44 14 -3 -1 -2 -1 13 47)
1969/12/31/18:00:09.440000,(-5 1 -2 -1 -1 -4 -6 -14)
1969/12/31/18:00:09.442000,(-52 -22 -7 -6 -3 -4 4 6)
1969/12/31/18:00:09.442000,(-31 -25 -14 -11 -5 -11 -23 -68)
1969/12/31/18:00:09.454000,(13 -6 -5 -4 -2 1 7 29)
1969/12/31/18:00:09.454000,(30 20 8 8 7 15 -5 5)
1969/12/31/18:00:09.470000,(8 11 -2 -5 -11 -12 38 19)
1969/12/31/18:00:09.470000,(18 15 4 1 2 -7 -1 8)
1969/12/31/18:00:09.478000,(-52 -33 -16 -8 -3 -7 1 -24)
1969/12/31/18:00:09.478000,(-21 -17 -9 -5 -3 -6 -22 0)
1969/12/31/18:00:09.479000,(3 0 -4 0 6 -1 1 10)
1969/12/31/18:00:09.479000,(12 28 19 13 8 3 2 2)
1969/12/31/18:00:09.500000,(10 17 4 2 0 -4 3 0)
1969/12/31/18:00:09.500000,(-12 -14 -1 2 3 -3 10 7)
1969/12/31/18:00:09.502000,(86 29 6 3 3 16 -11 18)
1969/12/31/18:00:09.502000,(-91 -50 -12 -3 5 21 -13 -31)
1969/12/31/18:00:09.530000,(44 43 6 0 -4 -44 -9 -41)
1969/12/31/18:00:09.530000,(-24 -30 -8 -8 -4 31 14 -1)
1969/12/31/18:00:09.532000,(52 34 5 -1 0 0 4 19)
1969/12/31/18:00:09.532000,(-64 -64 -24 -13 -16 -21 -16 -23)
1969/12/31/18:00:09.538000,(-11 -9 5 4 13 84 13 12)
1969/12/31/18:00:09.538000,(18 20 0 -1 -4 -51 25 19)
1969/12/31/18:00:09.539000,(-15 -16 0 1 2 5 -16 1)
1969/12/31/18:00:09.539000,(-40 -13 -9 -8 -23 -90 -39 -57)
1969/12/31/18:00:09.560000,(-26 -6 -3 -2 0 31 -6 -14)
1969/12/31/18:00:09.560000,(39 8 3 3 5 9 22 40)
1969/12/31/18:00:09.566000,(-28 -9 -6 -2 2 26 -9 -24)
1969/12/31/18:00:09.566000,(10 18 3 -1 4 50 40 11)
1969/12/31/18:00:09.574000,(20 -11 -8 -6 -10 -34 -13 -23)
1969/12/31/18:00:09.574000,(9 15 -2 -4 -3 9 -14 -28)
1969/12/31/18:00:09.583000,(-37 -5 9 6 8 0 1 -30)
1969/12/31/18:00:09.583000,(40 13 0 -5 -3 -5 6 43)
1969/12/31/18:00:09.597000,(-5 -9 -4 -2 -4 -28 -21 16)
1969/12/31/18:00:09.597000,(-6 -5 -2 -3 -1 23 10 4)
1969/12/31/18:00:09.612000,(-34 -14 -3 0 -2 -28 -2 -14)
1969/12/31/18:00:09.612000,(36 13 4 3 2 -22 49 53)
1969/12/31/18:00:09.621000,(-48 -27 -17 -6 4 45 -26 -40)
1969/12/31/18:00:09.621000,(25 23 11 3 -6 -12 5 -8)
1969/12/31/18:00:09.623000,(15 -1 -7 -6 -5 9 -11 -3)
1969/12/31/18:00:09.623000,(24 20 8 2 2 1 -8 31)
1969/12/31/18:00:09.634000,(16 2 -2 2 9 39 22 25)
1969/12/31/18:00:09.634000,(6 7 1 -1 -9 -46 2 5)
1969/12/31/18:00:09.643000,(6 8 8 6 -6 -27 11 8)
1969/12/31/18:00:09.643000,(-25 -17 -7 -2 14 115 -10 24)
1969/12/31/18:00:09.681000,(-10 -13 -10 -10 -23 -99 -31 -26)
1969/12/31/18:00:09.681000,(-6 -11 -4 -3 1 -14 0 -3)
1969/12/31/18:00:09.682000,(9 8 3 1 2 14 -11 1)
1969/12/31/18:00:09.682000,(60 39 10 5 10 21 34 39)
1969/12/31/18:00:09.688000,(-49 -42 -7 -2 0 44 -4 -1)
1969/12/31/18:00:09.688000,(15 14 4 1 2 -2 -23 8)
1969/12/31/18:00:09.689000,(-39 -35 -18 -10 -16 -52 -6 -43)
1969/12/31/18:00:09.689000,(0 0 -2 0 -1 -11 -29 -26)
1969/12/31/18:00:09.703000,(28 20 8 3 2 -22 9 17)
1969/12/31/18:00:09.703000,(16 16 4 5 8 30 18 -10)
1969/12/31/18:00:09.705000,(-41 -24 -10 -6 -2 19 -15 -25)
1969/12/31/18:00:09.705000,(-4 -7 -2 -2 1 9 -24 -1)
1969/12/31/18:00:09.717000,(13 5 7 3 2 -8 2 44)
1969/12/31/18:00:09.717000,(-9 8 6 6 5 10 8 10)
1969/12/31/18:00:09.724000,(23 15 0 -3 -6 -38 -28 -31)
1969/12/31/18:00:09.724000,(24 7 -2 0 2 16 15 10)
1969/12/31/18:00:09.740000,(59 20 15 9 4 -11 27 56)
1969/12/31/18:00:09.740000,(-55 -34 -12 -6 -5 10 -28 -44)
1969/12/31/18:00:09.742000,(10 3 1 3 10 32 15 16)
1969/12/31/18:00:09.742000,(-15 -5 0 -1 -7 -38 -23 -28)
1969/12/31/18:00:09.779000,(46 17 2 3 3 17 34 86)
1969/12/31/18:00:09.779000,(3 -4 0 -1 -8 -48 -12 -6)
1969/12/31/18:00:09.781000,(11 26 10 4 15 78 33 7)
1969/12/31/18:00:09.781000,(-18 -36 -16 -10 -14 -49 -45 -27)
1969/12/31/18:00:09.782000,(-41 4 -3 -2 1 20 27 -17)
1969/12/31/18:00:09.782000,(-1 -5 -4 1 2 -12 -36 30)
1969/12/31/18:00:09.786000,(-21 -25 -12 -6 -15 -25 0 -25)
1969/12/31/18:00:09.786000,(14 17 9 7 7 18 8 9)
1969/12/31/18:00:09.800000,(-4 13 8 3 -1 -19 -26 -40)
1969/12/31/18:00:09.800000,(-34 -12 -5 -3 0 20 -5 -13)
1969/12/31/18:00:09.802000,(40 5 2 1 4 14 16 78)
1969/12/31/18:00:09.802000,(-5 -9 -7 -7 -8 -25 4 18)
1969/12/31/18:00:09.823000,(10 5 1 0 -2 -7 13 -19)
1969/12/31/18:00:09.823000,(-4 -9 -7 -7 -6 26 6 -7)
1969/12/31/18:00:09.824000,(-29 -7 -4 -3 -5 -10 -36 -18)
1969/12/31/18:00:09.824000,(21 23 7 4 0 -8 31 42)
1969/12/31/18:00:09.837000,(-12 -11 -6 -3 -7 -41 15 9)
1969/12/31/18:00:09.837000,(-32 -18 -9 -5 -14 -12 -9 -9)
1969/12/31/18:00:09.844000,(0 -4 0 1 5 -10 -14 -7)
1969/12/31/18:00:09.844000,(-2 -4 -7 -8 -7 8 3 -21)
1969/12/31/18:00:09.860000,(10 9 2 -7 -21 -2 9 -7)
1969/12/31/18:00:09.860000,(60 32 17 11 20 59 47 44)
1969/12/31/18:00:09.862000,(-80 -42 -16 -10 -14 -45 -20 -68)
1969/12/31/18:00:09.862000,(-55 -15 -4 2 3 -2 -35 -57)
1969/12/31/18:00:09.883000,(-12 -12 -10 -9 -9 -12 11 -3)
1969/12/31/18:00:09.883000,(2 -5 -1 -4 -5 -10 1 -2)
1969/12/31/18:00:09.884000,(44 28 14 10 8 6 -24 19)
1969/12/31/18:00:09.884000,(22 9 7 2 7 41 36 15)
1969/12/31/18:00:09.897000,(-44 -22 -10 -5 -7 -75 -49 -55)
1969/12/31/18:00:09.897000,(29 20 6 4 5 1 18 16)
1969/12/31/18:00:09.904000,(11 6 5 4 7 -5 7 -3)
1969/12/31/18:00:09.904000,(14 13 7 12 22 20 25 23)
1969/12/31/18:00:09.920000,(-41 -21 -9 -14 -43 -24 -75 -81)
1969/12/31/18:00:09.920000,(-16 -11 -8 -9 -12 13 15 -16)
1969/12/31/18:00:09.922000,(11 11 2 -2 -3 -22 -8 -1)
1969/12/31/18:00:09.922000,(-4 -3 4 3 10 11 22 37)
1969/12/31/18:00:09.943000,(7 4 4 15 78 85 29 2)
1969/12/31/18:00:09.943000,(-8 -5 -9 -16 -68 -74 -29 -15)
1969/12/31/18:00:09.945000,(-9 -3 -6 -16 -34 -28 5 -19)
1969/12/31/18:00:09.945000,(34 4 2 2 8 39 4 33)
1969/12/31/18:00:09.956000,(-30 -8 0 4 20 6 2 -19)
1969/12/31/18:00:09.956000,(1 -8 -8 2 50 53 -13 -3)
1969/12/31/18:00:09.965000,(38 17 7 13 5 -40 17 20)
1969/12/31/18:00:09.965000,(11 0 -1 3 -17 -44 -76 -58)
1969/12/31/18:00:09.980000,(6 8 3 -8 -43 -6 3 7)
1969/12/31/18:00:09.980000,(18 0 -1 7 60 58 24 9)
1969/12/31/18:00:09.982000,(-37 -11 -7 -19 -90 -57 8 1)
1969/12/31/18:00:09.982000,(-43 -24 -18 -22 -30 -46 -24 -44)
1969/12/31/18:00:10.002000,(0 -2 -2 16 51 46 6 7)
1969/12/31/18:00:10.002000,(15 22 6 -17 -40 -28 -10 5)
1969/12/31/18:00:10.003000,(-44 -42 27 27 93 86 16 -1)
1969/12/31/18:00:10.003000,(4 9 1 -12 -70 -43 13 8)
1969/12/31/18:00:10.025000,(-1 -9 -6 8 53 21 9 20)
1969/12/31/18:00:10.025000,(39 37 -30 -2 -17 9 13 20)
1969/12/31/18:00:10.025000,(35 -7 10 -8 -2 26 16 37)
1969/12/31/18:00:10.025000,(-63 -5 -4 -2 -15 -52 -13 -62)
1969/12/31/18:00:10.040000,(-34 18 1 -13 -47 -9 -6 -44)
1969/12/31/18:00:10.040000,(-40 -55 -7 5 52 10 16 -10)
1969/12/31/18:00:10.040000,(24 27 -60 -24 -22 17 -8 -18)
1969/12/31/18:00:10.040000,(-25 -29 68 18 32 16 -9 -17)
1969/12/31/18:00:10.062000,(86 46 0 7 15 0 9 66)
1969/12/31/18:00:10.062000,(-30 -20 -41 -40 -75 -63 -38 -73)
1969/12/31/18:00:10.063000,(-35 31 34 28 41 33 22 -21)
1969/12/31/18:00:10.063000,(-3 -23 42 28 29 12 19 10)
1969/12/31/18:00:10.085000,(-9 -26 -19 10 31 32 -18 -1)
1969/12/31/18:00:10.085000,(28 -62 -40 -30 -23 -2 4 41)
1969/12/31/18:00:10.085000,(28 2 -68 -52 -80 -67 -17 30)
1969/12/31/18:00:10.085000,(-10 73 44 15 23 31 28 55)
1969/12/31/18:00:10.099000,(-4 76 85 24 17 -19 8 -8)
1969/12/31/18:00:10.099000,(35 31 -7 29 73 54 5 13)
1969/12/31/18:00:10.100000,(-60 -86 -24 -61 -81 -89 -76 -35)
1969/12/31/18:00:10.100000,(58 -33 -128 -41 82 75 32 49)
1969/12/31/18:00:10.122000,(-12 -78 0 -15 -36 -50 -23 -6)
1969/12/31/18:00:10.122000,(-47 40 81 54 -8 -20 -15 -49)
1969/12/31/18:00:10.123000,(63 100 43 11 -5 -1 4 28)
1969/12/31/18:00:10.123000,(-65 -21 7 6 -29 -26 -12 -80)
1969/12/31/18:00:10.145000,(18 -32 -72 -27 6 39 3 15)
1969/12/31/18:00:10.145000,(-2 35 51 12 8 -11 -3 14)
1969/12/31/18:00:10.145000,(-1 -14 64 43 41 27 17 24)
1969/12/31/18:00:10.145000,(60 4 -42 -16 -2 24 24 38)
1969/12/31/18:00:10.160000,(22 7 -78 -42 -36 -15 -13 37)
1969/12/31/18:00:10.160000,(-42 -59 41 15 8 -15 12 31)
1969/12/31/18:00:10.160000,(-10 -14 11 14 29 53 -3 -54)
1969/12/31/18:00:10.160000,(48 80 11 15 19 5 -5 19)
1969/12/31/18:00:10.183000,(12 16 29 -3 -78 -73 -2 23)
1969/12/31/18:00:10.183000,(-33 -35 -37 -16 -22 -11 -3 10)
1969/12/31/18:00:10.184000,(-34 -20 -24 13 84 76 44 -23)
1969/12/31/18:00:10.184000,(-10 -26 -31 -25 -51 -47 -52 -44)
1969/12/31/18:00:10.196000,(22 14 48 39 52 41 35 42)
1969/12/31/18:00:10.196000,(-3 3 -19 -39 -66 -46 -42 -22)
1969/12/31/18:00:10.204000,(32 7 7 23 74 26 16 34)
1969/12/31/18:00:10.204000,(8 -35 -47 -33 -90 -60 -5 -5)
1969/12/31/18:00:10.222000,(-1 17 -26 -24 -12 10 25 23)
1969/12/31/18:00:10.222000,(-29 2 86 53 51 17 -3 20)
1969/12/31/18:00:10.222000,(14 62 -4 -1 2 -5 -14 -54)
1969/12/31/18:00:10.222000,(-1 6 -9 -13 9 -3 -2 -27)
1969/12/31/18:00:10.242000,(-61 3 57 29 5 3 -18 -34)
1969/12/31/18:00:10.242000,(53 22 -21 1 26 22 20 -12)
1969/12/31/18:00:10.243000,(-11 -57 -36 -11 -17 -8 -1 41)
1969/12/31/18:00:10.243000,(15 -3 -15 -2 19 19 10 31)
1969/12/31/18:00:10.256000,(-24 -25 12 -18 -51 -30 -12 -50)
1969/12/31/18:00:10.256000,(6 36 -23 4 49 18 -11 -12)
1969/12/31/18:00:10.264000,(-6 -16 18 -6 -54 -17 6 30)
1969/12/31/18:00:10.264000,(-4 -7 15 20 4 -4 0 -5)
1969/12/31/18:00:10.279000,(6 -32 -23 -4 50 28 -44 -15)
1969/12/31/18:00:10.279000,(6 32 -5 -30 -60 -23 24 45)
1969/12/31/18:00:10.280000,(12 3 -30 -19 -36 -34 -27 -46)
1969/12/31/18:00:10.280000,(29 -26 -16 2 39 21 26 22)
1969/12/31/18:00:10.302000,(-41 29 94 45 16 -9 3 -20)
1969/12/31/18:00:10.302000,(52 71 45 16 16 22 20 56)
1969/12/31/18:00:10.303000,(35 -58 -72 -21 -12 -6 -14 -5)
1969/12/31/18:00:10.303000,(-13 -41 2 -12 -25 -1 -5 13)
1969/12/31/18:00:10.316000,(-24 35 29 22 15 5 14 -13)
1969/12/31/18:00:10.316000,(29 -46 -54 -14 21 -3 -15 -17)
1969/12/31/18:00:10.324000,(-13 50 46 13 -6 7 7 13)
1969/12/31/18:00:10.324000,(-30 1 14 7 3 -5 -7 -15)
1969/12/31/18:00:10.339000,(38 -17 -57 -27 -14 2 -1 15)
1969/12/31/18:00:10.339000,(-30 -22 0 4 -3 16 19 -69)
1969/12/31/18:00:10.340000,(13 -17 -11 -4 -7 -26 -38 23)
1969/12/31/18:00:10.340000,(45 -2 -52 -14 9 -2 -4 11)
1969/12/31/18:00:10.370000,(-65 25 93 18 -23 2 -5 -33)
1969/12/31/18:00:10.370000,(-22 -19 -32 -8 16 -11 -8 -18)
1969/12/31/18:00:10.371000,(16 -29 -20 26 47 32 41 37)
1969/12/31/18:00:10.371000,(-20 37 29 -18 -62 -15 3 2)
1969/12/31/18:00:10.376000,(17 36 -12 -5 7 21 11 5)
1969/12/31/18:00:10.377000,(23 -46 -55 -28 -35 -33 -19 29)
1969/12/31/18:00:10.384000,(-17 -13 18 2 -2 0 6 -15)
1969/12/31/18:00:10.384000,(-32 0 72 36 17 -3 -6 9)
1969/12/31/18:00:10.401000,(21 -52 -76 -15 48 32 4 8)
1969/12/31/18:00:10.401000,(1 47 29 4 -39 -17 3 -2)
1969/12/31/18:00:10.402000,(-21 5 -13 -11 0 7 -5 5)
1969/12/31/18:00:10.402000,(1 -2 -25 -8 -2 -6 -17 -44)
1969/12/31/18:00:10.422000,(18 -5 -28 -18 7 6 6 -16)
1969/12/31/18:00:10.422000,(-11 1 59 37 36 -10 -13 17)
1969/12/31/18:00:10.423000,(40 14 -14 -4 -5 40 35 69)
1969/12/31/18:00:10.423000,(-12 34 37 5 -8 -15 19 -1)
1969/12/31/18:00:10.436000,(-25 -30 -27 -19 -69 -76 -47 -15)
1969/12/31/18:00:10.436000,(38 -16 -82 -24 6 19 25 42)
1969/12/31/18:00:10.444000,(-56 74 127 48 -1 -29 -23 -33)
1969/12/31/18:00:10.444000,(9 15 -7 9 46 37 13 22)
1969/12/31/18:00:10.460000,(-27 -42 -48 -11 29 24 -21 -49)
1969/12/31/18:00:10.460000,(2 -25 -29 -17 -59 -37 14 31)
1969/12/31/18:00:10.460000,(-16 -21 19 3 14 16 -2 21)
1969/12/31/18:00:10.460000,(14 43 1 -5 -22 -41 -32 -70)
1969/12/31/18:00:10.482000,(14 1 -13 0 9 2 13 24)
1969/12/31/18:00:10.482000,(-27 -7 44 18 16 12 -5 -42)
1969/12/31/18:00:10.483000,(15 20 -21 -16 -7 9 -6 -13)
1969/12/31/18:00:10.483000,(32 -15 17 12 -5 -12 12 71)
1969/12/31/18:00:10.506000,(18 35 -23 -10 14 25 39 72)
1969/12/31/18:00:10.506000,(-22 -24 14 9 7 14 2 -23)
1969/12/31/18:00:10.507000,(-17 12 -16 5 37 -12 -30 -31)
1969/12/31/18:00:10.507000,(-2 -15 -20 -14 -51 -29 -21 -15)
1969/12/31/18:00:10.520000,(-18 -25 34 4 -28 -2 8 -28)
1969/12/31/18:00:10.520000,(-12 9 -7 -5 23 9 5 -8)
1969/12/31/18:00:10.520000,(26 -25 -49 -14 0 1 10 22)
1969/12/31/18:00:10.520000,(11 21 14 11 22 23 14 26)
1969/12/31/18:00:10.542000,(9 3 2 7 -3 -1 2 -13)
1969/12/31/18:00:10.542000,(-7 14 2 -6 -11 -5 -12 15)
1969/12/31/18:00:10.543000,(-28 -58 -5 1 -1 -15 -3 -28)
1969/12/31/18:00:10.543000,(11 24 -42 -18 14 19 27 9)
1969/12/31/18:00:10.556000,(-18 23 54 21 0 -4 -30 -31)
1969/12/31/18:00:10.556000,(-11 -12 -14 -7 -3 -5 -10 -41)
1969/12/31/18:00:10.564000,(34 4 -42 -11 45 21 16 -5)
1969/12/31/18:00:10.564000,(-53 -62 -8 -19 -86 -71 -40 -28)
1969/12/31/18:00:10.579000,(9 -6 -9 -11 10 11 10 8)
1969/12/31/18:00:10.579000,(10 24 6 6 2 -9 6 9)
1969/12/31/18:00:10.580000,(-3 -17 -35 -35 -37 -18 -34 -20)
1969/12/31/18:00:10.580000,(-21 -11 52 37 65 60 37 -1)
1969/12/31/18:00:10.602000,(35 2 -46 -28 -30 -26 2 42)
1969/12/31/18:00:10.602000,(-35 24 54 14 4 4 -1 -22)
1969/12/31/18:00:10.603000,(-13 17 32 18 0 19 16 -38)
1969/12/31/18:00:10.603000,(10 -3 -12 8 17 7 -25 3)
1969/12/31/18:00:10.625000,(26 -8 1 8 -4 -14 10 -9)
1969/12/31/18:00:10.625000,(4 -19 -47 -14 16 26 -4 14)
1969/12/31/18:00:10.626000,(-25 18 27 12 19 -5 6 -19)
1969/12/31/18:00:10.626000,(17 15 18 6 -22 8 26 42)
1969/12/31/18:00:10.639000,(-25 -23 -23 -11 -22 -23 -53 -41)
1969/12/31/18:00:10.639000,(-35 -23 -14 -13 -14 -23 -49 -84)
1969/12/31/18:00:10.640000,(-9 -7 -4 -7 -18 -3 8 20)
1969/12/31/18:00:10.640000,(-6 24 21 17 38 0 10 -4)
1969/12/31/18:00:10.662000,(48 12 -4 -10 -25 -23 1 47)
1969/12/31/18:00:10.662000,(7 -17 -23 -13 2 26 5 7)
1969/12/31/18:00:10.663000,(-16 11 56 21 -11 -25 -27 22)
1969/12/31/18:00:10.663000,(4 -24 -25 -12 11 15 -3 -27)
1969/12/31/18:00:10.685000,(8 -23 -37 -17 3 -3 -12 -11)
1969/12/31/18:00:10.685000,(4 38 90 41 26 14 35 56)
1969/12/31/18:00:10.686000,(4 3 -9 1 4 20 33 2)
1969/12/31/18:00:10.686000,(-10 -2 -15 -18 -27 -24 -15 -12)
1969/12/31/18:00:10.699000,(-16 -8 -5 6 -2 8 25 19)
1969/12/31/18:00:10.699000,(18 -28 -53 -24 -7 -10 -29 -10)
1969/12/31/18:00:10.700000,(15 28 25 5 5 3 9 16)
1969/12/31/18:00:10.700000,(-44 -33 -21 -10 -7 -18 -12 -31)
1969/12/31/18:00:10.723000,(-7 -4 18 11 3 0 -3 -6)
1969/12/31/18:00:10.723000,(15 4 7 1 -6 5 22 45)
1969/12/31/18:00:10.723000,(-31 -3 -8 1 3 2 6 3)
1969/12/31/18:00:10.723000,(8 -9 -15 -5 15 19 -9 -23)
1969/12/31/18:00:10.746000,(-9 -4 3 -2 -5 -3 11 -26)
1969/12/31/18:00:10.746000,(5 -9 -9 -13 -28 -26 -20 5)
1969/12/31/18:00:10.746000,(22 12 -9 -4 6 0 -2 -3)
1969/12/31/18:00:10.746000,(4 -6 10 11 20 19 13 18)
1969/12/31/18:00:10.783000,(-2 7 5 10 0 5 17 13)
1969/12/31/18:00:10.783000,(-5 15 4 -13 -36 -33 -25 -27)
1969/12/31/18:00:10.784000,(-6 -14 -22 -18 -26 -16 -7 -7)
1969/12/31/18:00:10.784000,(19 4 4 4 24 16 5 13)
1969/12/31/18:00:10.790000,(18 27 10 7 29 29 6 57)
1969/12/31/18:00:10.790000,(-37 -25 5 6 -10 -23 -7 -49)
1969/12/31/18:00:10.791000,(27 3 -12 -11 -13 -12 -15 3)
1969/12/31/18:00:10.791000,(-20 -17 5 -2 0 2 -12 -14)
1969/12/31/18:00:10.805000,(8 8 5 4 4 2 4 -3)
1969/12/31/18:00:10.805000,(-1 7 -4 2 9 13 8 4)
1969/12/31/18:00:10.806000,(22 3 -7 -3 -4 3 14 18)
1969/12/31/18:00:10.806000,(10 14 7 1 -1 -1 2 9)
1969/12/31/18:00:10.820000,(-19 -16 -4 -2 -9 -19 -14 -9)
1969/12/31/18:00:10.820000,(12 0 -8 -14 11 76 16 6)
1969/12/31/18:00:10.820000,(12 6 13 16 1 -100 -3 10)
1969/12/31/18:00:10.820000,(-18 -6 -5 -3 -23 40 15 -10)
1969/12/31/18:00:10.842000,(-9 -2 2 -1 -1 -7 -10 -14)
1969/12/31/18:00:10.842000,(50 29 3 6 10 7 13 55)
1969/12/31/18:00:10.843000,(-22 -25 -10 -10 10 24 18 16)
1969/12/31/18:00:10.843000,(-3 14 10 4 -18 -61 -41 -50)
1969/12/31/18:00:10.865000,(-6 -19 -9 -5 13 60 -6 -5)
1969/12/31/18:00:10.865000,(68 28 10 2 3 -22 1 50)
1969/12/31/18:00:10.866000,(-74 -32 -10 -8 -16 12 -12 -50)
1969/12/31/18:00:10.866000,(31 20 1 3 10 -30 15 23)
1969/12/31/18:00:10.880000,(-45 -22 -4 -3 4 24 -41 -20)
1969/12/31/18:00:10.880000,(-59 -43 -21 -12 -17 -70 -32 -37)
1969/12/31/18:00:10.880000,(17 7 8 6 5 47 21 17)
1969/12/31/18:00:10.880000,(-4 0 -3 -2 0 -15 -2 4)
1969/12/31/18:00:10.902000,(58 41 18 13 20 48 32 60)
1969/12/31/18:00:10.902000,(-10 5 1 4 -3 -65 22 -28)
1969/12/31/18:00:10.903000,(11 5 3 2 -7 -26 -32 -39)
1969/12/31/18:00:10.903000,(32 11 6 4 10 50 20 80)
1969/12/31/18:00:10.925000,(-10 1 -2 -3 -3 3 31 -25)
1969/12/31/18:00:10.925000,(-28 -10 9 15 15 23 -1 -10)
1969/12/31/18:00:10.926000,(91 35 1 -2 -4 8 11 6)
1969/12/31/18:00:10.926000,(-49 -40 -23 -19 -14 -29 -21 -18)
1969/12/31/18:00:10.939000,(3 17 7 4 1 -32 -19 -23)
1969/12/31/18:00:10.939000,(-11 -13 -15 -12 -7 35 -20 -36)
1969/12/31/18:00:10.940000,(2 -10 0 -1 -15 -23 21 26)
1969/12/31/18:00:10.940000,(0 -2 0 2 20 83 28 5)
1969/12/31/18:00:10.962000,(-37 -21 -5 -5 -20 -76 -30 -1)
1969/12/31/18:00:10.962000,(24 17 -1 -3 2 28 18 1)
1969/12/31/18:00:10.963000,(21 21 10 6 3 -6 -31 20)
1969/12/31/18:00:10.963000,(20 16 14 15 30 97 40 71)
1969/12/31/18:00:10.985000,(-45 -27 -6 1 3 -20 11 -24)
1969/12/31/18:00:10.985000,(50 21 6 7 1 -5 5 1)
1969/12/31/18:00:10.986000,(-13 -11 -11 -9 -1 9 -26 6)
1969/12/31/18:00:10.986000,(55 16 8 3 -3 -23 4 17)
1969/12/31/18:00:11.000000,(-17 5 3 2 2 2 9 35)
1969/12/31/18:00:11.000000,(-53 -19 -11 -8 -5 -5 -20 -50)
1969/12/31/18:00:11.001000,(-98 -42 -20 -17 -16 -18 -22 -52)
1969/12/31/18:00:11.001000,(-5 -15 -4 -6 -5 -20 -7 -13)
1969/12/31/18:00:11.022000,(0 6 5 1 -4 -1 15 15)
1969/12/31/18:00:11.022000,(83 33 22 19 15 19 27 70)
1969/12/31/18:00:11.023000,(-5 4 -14 -10 -4 9 -7 -38)
1969/12/31/18:00:11.023000,(-26 -8 -12 -10 -10 -35 -27 -15)
1969/12/31/18:00:11.053000,(-12 -22 -7 -5 -5 2 -6 -10)
1969/12/31/18:00:11.053000,(-44 -15 0 3 3 6 -3 -15)
1969/12/31/18:00:11.054000,(48 19 19 16 14 16 21 58)
1969/12/31/18:00:11.054000,(12 10 4 5 -2 -18 -12 -23)
1969/12/31/18:00:11.060000,(37 12 -17 -14 -7 -3 2 0)
1969/12/31/18:00:11.060000,(-13 -1 -3 -3 1 4 2 6)
1969/12/31/18:00:11.060000,(-7 -8 4 5 0 3 5 58)
1969/12/31/18:00:11.060000,(-34 -12 -3 0 -4 -17 4 11)
1969/12/31/18:00:11.082000,(8 7 8 5 2 6 -1 -28)
1969/12/31/18:00:11.082000,(-1 -10 -7 -6 -6 -6 -8 4)
1969/12/31/18:00:11.083000,(-69 -34 -18 -12 -5 -3 -9 -43)
1969/12/31/18:00:11.083000,(17 8 -5 -6 -8 -10 -8 7)
1969/12/31/18:00:11.105000,(-22 4 10 2 2 0 -4 -23)
1969/12/31/18:00:11.105000,(9 -8 -6 -3 -2 -2 -1 17)
1969/12/31/18:00:11.106000,(12 3 6 4 3 4 7 -8)
1969/12/31/18:00:11.106000,(-4 0 1 0 -1 -6 -4 -13)
1969/12/31/18:00:11.120000,(9 -5 -13 -9 -6 -2 -3 -1)
1969/12/31/18:00:11.120000,(-3 -1 -7 -5 -4 -4 -4 -6)
1969/12/31/18:00:11.120000,(0 -5 3 5 3 6 5 -3)
1969/12/31/18:00:11.120000,(-16 -14 -2 -4 -3 -13 -15 -31)
1969/12/31/18:00:11.142000,(22 18 10 2 0 -1 2 0)
1969/12/31/18:00:11.142000,(-13 11 11 6 4 3 0 2)
1969/12/31/18:00:11.143000,(-8 -11 -5 -1 -1 1 0 -12)
1969/12/31/18:00:11.143000,(1 -5 -10 -9 -8 -7 -1 6)
1969/12/31/18:00:11.165000,(2 -4 -13 -7 -5 -5 -3 1)
1969/12/31/18:00:11.165000,(-9 -2 1 -2 -1 0 0 -7)
1969/12/31/18:00:11.166000,(20 1 -17 -7 -5 -3 -3 4)
1969/12/31/18:00:11.166000,(-14 -6 5 1 -4 -3 -1 -8)
1969/12/31/18:00:11.188000,(-11 1 17 11 2 4 1 -2)
1969/12/31/18:00:11.188000,(-4 -12 -24 -14 -7 -5 -2 -2)
1969/12/31/18:00:11.189000,(5 -9 11 10 6 3 4 -1)
1969/12/31/18:00:11.189000,(-10 6 -5 -9 -2 -2 -4 -5)
1969/12/31/18:00:11.202000,(32 39 29 12 3 0 -1 1)
1969/12/31/18:00:11.202000,(-15 -48 -41 -22 -11 -6 -4 -5)
1969/12/31/18:00:11.203000,(15 18 -14 -7 -3 1 8 6)
1969/12/31/18:00:11.203000,(-12 24 53 28 9 -1 -9 1)
1969/12/31/18:00:11.225000,(2 -9 -15 -5 -4 -1 -1 -8)
1969/12/31/18:00:11.225000,(-13 -6 8 2 1 -1 -3 -5)
1969/12/31/18:00:11.226000,(5 -31 -37 -14 -3 1 4 2)
1969/12/31/18:00:11.226000,(12 21 11 4 0 -1 2 4)
1969/12/31/18:00:11.239000,(10 10 2 -4 -3 -3 -3 3)
1969/12/31/18:00:11.239000,(-3 -16 -14 -4 -4 -4 -5 -3)
1969/12/31/18:00:11.247000,(0 -5 1 0 -2 -1 10 1)
1969/12/31/18:00:11.247000,(-15 5 6 2 0 -2 -17 -22)
1969/12/31/18:00:11.262000,(10 -18 -39 -21 -7 -4 3 11)
1969/12/31/18:00:11.262000,(-10 2 4 7 5 1 1 -5)
1969/12/31/18:00:11.263000,(-1 19 18 6 3 1 -3 -5)
1969/12/31/18:00:11.263000,(9 -12 -6 2 -1 3 -2 2)
1969/12/31/18:00:11.285000,(-8 -17 -14 -6 -4 0 0 -2)
1969/12/31/18:00:11.285000,(2 0 -3 -2 -3 -3 -2 0)
1969/12/31/18:00:11.286000,(9 13 29 14 4 1 -6 2)
1969/12/31/18:00:11.286000,(-14 -62 -43 -19 -6 -3 7 -1)
1969/12/31/18:00:11.308000,(4 57 36 12 1 -7 -4 -2)
1969/12/31/18:00:11.308000,(-2 -1 5 2 3 0 5 6)
1969/12/31/18:00:11.309000,(0 1 -16 -12 -3 2 -1 -4)
1969/12/31/18:00:11.309000,(18 35 22 12 7 6 16 14)
1969/12/31/18:00:11.330000,(-2 -6 2 -1 0 4 3 1)
1969/12/31/18:00:11.330000,(4 14 13 5 3 2 6 3)
1969/12/31/18:00:11.331000,(-16 -19 -6 -10 -7 -8 -11 -10)
1969/12/31/18:00:11.332000,(16 -11 -36 -19 -8 -3 7 5)
1969/12/31/18:00:11.346000,(-15 -15 -4 -1 3 2 3 5)
1969/12/31/18:00:11.346000,(-3 11 16 15 0 0 -18 -20)
1969/12/31/18:00:11.346000,(-1 -32 -40 -21 -8 3 4 3)
1969/12/31/18:00:11.346000,(3 62 74 32 8 -1 -10 -12)
1969/12/31/18:00:11.359000,(-15 -69 -20 -8 -5 0 -4 -6)
1969/12/31/18:00:11.359000,(10 86 34 0 -2 -1 -13 -11)
1969/12/31/18:00:11.367000,(-13 -41 -3 2 2 2 2 4)
1969/12/31/18:00:11.367000,(-12 -24 -49 -23 -4 -1 4 -9)
1969/12/31/18:00:11.382000,(4 15 5 4 2 -7 -8 5)
1969/12/31/18:00:11.382000,(-24 -76 -46 -21 -4 -5 4 11)
1969/12/31/18:00:11.383000,(35 40 24 8 5 -11 -3 6)
1969/12/31/18:00:11.383000,(-8 12 23 16 9 -3 21 10)
1969/12/31/18:00:11.405000,(2 -35 -31 -16 -6 -7 -16 0)
1969/12/31/18:00:11.405000,(-21 -19 -80 -36 -10 -5 0 -15)
1969/12/31/18:00:11.406000,(20 18 66 42 12 3 1 6)
1969/12/31/18:00:11.406000,(-7 -38 -34 -19 -10 -3 -11 -10)
1969/12/31/18:00:11.419000,(-3 18 15 13 6 6 10 -2)
1969/12/31/18:00:11.419000,(8 -10 5 2 -3 2 6 8)
1969/12/31/18:00:11.427000,(-12 -7 -22 -16 -6 0 -6 -3)
1969/12/31/18:00:11.427000,(11 23 24 17 4 -2 -8 -7)
1969/12/31/18:00:11.442000,(-1 3 -12 -7 -4 -4 0 1)
1969/12/31/18:00:11.442000,(-8 -22 19 7 5 3 -3 0)
1969/12/31/18:00:11.443000,(3 76 23 3 3 4 0 -1)
1969/12/31/18:00:11.443000,(4 -1 3 4 3 1 1 7)
1969/12/31/18:00:11.465000,(-12 -60 -17 -14 -5 -4 -6 -5)
1969/12/31/18:00:11.465000,(5 28 28 15 6 3 2 -1)
1969/12/31/18:00:11.466000,(-7 -12 -9 -6 -5 -3 -7 -8)
1969/12/31/18:00:11.466000,(-4 -19 -33 -18 -8 1 -7 -4)
1969/12/31/18:00:11.479000,(4 12 15 8 1 5 -3 -3)
1969/12/31/18:00:11.479000,(3 -13 -12 -7 -3 2 -1 2)
1969/12/31/18:00:11.479000,(-1 1 0 1 1 10 0 -1)
1969/12/31/18:00:11.479000,(0 -2 6 -3 -3 -1 -5 -5)
1969/12/31/18:00:11.481000,(-2 -4 -10 0 0 -3 -9 -6)
1969/12/31/18:00:11.481000,(-2 -2 17 0 -4 8 -3 -4)
1969/12/31/18:00:11.493000,(-2 -7 -14 -22 -6 -1 -5 -4)
1969/12/31/18:00:11.493000,(1 2 7 14 1 2 -1 -3)
1969/12/31/18:00:11.502000,(3 5 17 17 5 0 -3 -1)
1969/12/31/18:00:11.502000,(-4 -11 -8 -9 -5 5 1 -1)
1969/12/31/18:00:11.517000,(1 3 3 6 -1 3 -6 -8)
1969/12/31/18:00:11.517000,(2 2 -6 -13 0 -1 -3 -2)
1969/12/31/18:00:11.518000,(-3 -3 17 19 0 3 0 -1)
1969/12/31/18:00:11.518000,(3 1 -3 14 4 -1 -5 -2)
1969/12/31/18:00:11.547000,(-9 -13 0 -9 -2 -1 -1 -4)
1969/12/31/18:00:11.547000,(-6 -9 -36 -33 -10 -1 -1 -4)
1969/12/31/18:00:11.548000,(-4 -5 6 -17 -9 -6 -7 -7)
1969/12/31/18:00:11.548000,(4 12 10 19 6 3 1 -1)
1969/12/31/18:00:11.553000,(9 16 25 26 7 5 6 5)
1969/12/31/18:00:11.553000,(3 3 16 10 3 1 3 1)
1969/12/31/18:00:11.562000,(-3 -3 -21 -10 -2 -2 1 6)
1969/12/31/18:00:11.562000,(-9 -17 -2 -24 -10 -5 -5 -8)
1969/12/31/18:00:11.577000,(-1 -4 -22 -8 -2 -2 3 4)
1969/12/31/18:00:11.577000,(3 8 4 5 3 -3 11 12)
1969/12/31/18:00:11.579000,(-4 0 -12 -7 -3 -9 -1 -1)
1969/12/31/18:00:11.579000,(-3 -1 -14 -3 -1 -3 10 11)
1969/12/31/18:00:11.599000,(-6 -1 -9 -4 0 -8 2 1)
1969/12/31/18:00:11.599000,(-6 -7 -13 -10 -4 -7 4 7)
1969/12/31/18:00:11.601000,(0 1 -10 -4 0 -6 4 3)
1969/12/31/18:00:11.601000,(-2 6 -1 -3 1 0 1 2)
1969/12/31/18:00:11.613000,(2 1 8 -3 -1 1 -5 -4)
1969/12/31/18:00:11.613000,(-2 -15 -10 2 -1 2 -4 -1)
1969/12/31/18:00:11.623000,(5 6 3 -2 -1 0 -5 -3)
1969/12/31/18:00:11.623000,(-1 13 26 12 3 2 -4 -5)
1969/12/31/18:00:11.645000,(-3 -12 -11 -5 -1 4 -3 1)
1969/12/31/18:00:11.645000,(0 -10 -11 -1 1 -2 -8 -7)
1969/12/31/18:00:11.646000,(13 1 5 3 1 3 -1 3)
1969/12/31/18:00:11.646000,(-4 18 31 8 0 1 -3 -6)
1969/12/31/18:00:11.659000,(-9 -15 -7 3 2 3 -1 -4)
1969/12/31/18:00:11.659000,(0 -12 -1 3 -2 0 -2 -2)
1969/12/31/18:00:11.661000,(0 33 25 4 1 -1 -4 -4)
1969/12/31/18:00:11.661000,(3 -14 -28 -11 -6 -1 2 3)
1969/12/31/18:00:11.673000,(4 9 4 0 0 -3 2 2)
1969/12/31/18:00:11.673000,(-10 -18 -8 -4 -1 -5 1 -3)
1969/12/31/18:00:11.682000,(-1 6 0 -1 0 0 4 5)
1969/12/31/18:00:11.682000,(-2 -5 -9 -5 -2 -4 1 3)
1969/12/31/18:00:11.696000,(-1 2 -2 -4 -2 -4 0 1)
1969/12/31/18:00:11.696000,(0 15 8 1 -2 -4 0 -2)
1969/12/31/18:00:11.703000,(-9 -13 -9 -5 -5 -1 7 2)
1969/12/31/18:00:11.703000,(15 4 -3 1 2 -1 -13 -9)
1969/12/31/18:00:11.719000,(4 -5 -1 1 0 0 3 2)
1969/12/31/18:00:11.719000,(-5 15 20 7 0 -1 -1 7)
1969/12/31/18:00:11.721000,(2 1 -1 0 -2 -3 3 3)
1969/12/31/18:00:11.721000,(5 -16 -13 -10 -5 1 18 18)
1969/12/31/18:00:11.742000,(-36 -21 -11 -5 -3 -5 -12 -11)
1969/12/31/18:00:11.742000,(-13 10 7 4 1 0 -4 -25)
1969/12/31/18:00:11.743000,(-14 -13 -6 0 0 0 2 5)
1969/12/31/18:00:11.743000,(2 -11 -19 -11 -6 -3 7 27)
1969/12/31/18:00:11.756000,(30 23 5 1 2 -1 6 9)
1969/12/31/18:00:11.756000,(-4 -8 -13 -8 -7 -10 0 11)
1969/12/31/18:00:11.763000,(-53 -23 -16 -7 -2 -8 -6 -24)
1969/12/31/18:00:11.763000,(-32 -13 -8 -4 1 -3 -4 -22)
1969/12/31/18:00:11.779000,(5 6 14 4 -2 5 -5 -1)
1969/12/31/18:00:11.779000,(8 -1 21 9 3 9 -14 -11)
1969/12/31/18:00:11.781000,(22 -11 9 4 0 12 -12 -4)
1969/12/31/18:00:11.781000,(19 8 15 8 -1 8 -13 -10)
1969/12/31/18:00:11.809000,(0 -1 2 3 -2 2 -18 -20)
1969/12/31/18:00:11.809000,(5 3 7 5 4 6 3 0)
1969/12/31/18:00:11.811000,(40 16 2 5 1 0 -2 7)
1969/12/31/18:00:11.811000,(-73 -27 -7 -2 -2 -3 -1 -19)
1969/12/31/18:00:11.816000,(26 14 0 0 1 0 11 21)
1969/12/31/18:00:11.816000,(-55 -29 -12 -7 -7 -9 -10 -26)
1969/12/31/18:00:11.823000,(29 8 -1 -2 1 -7 -1 5)
1969/12/31/18:00:11.823000,(27 22 4 3 7 10 5 -9)
1969/12/31/18:00:11.839000,(-16 -18 -11 -6 -2 -8 7 10)
1969/12/31/18:00:11.839000,(6 11 3 3 2 6 1 -7)
1969/12/31/18:00:11.841000,(16 18 0 -1 -5 -21 -6 9)
1969/12/31/18:00:11.841000,(-28 -42 -17 -8 -5 -11 -16 5)
1969/12/31/18:00:11.861000,(-5 1 -2 -2 -4 -17 13 -23)
1969/12/31/18:00:11.861000,(5 4 -1 2 12 63 -9 5)
1969/12/31/18:00:11.863000,(7 -2 0 0 -8 -34 4 9)
1969/12/31/18:00:11.863000,(24 35 12 8 8 11 1 13)
1969/12/31/18:00:11.876000,(-20 -16 -7 -5 -10 -46 -31 -13)
1969/12/31/18:00:11.877000,(-6 -9 -6 -6 -6 -39 -17 21)
1969/12/31/18:00:11.883000,(-4 -4 -5 -4 1 37 3 -59)
1969/12/31/18:00:11.883000,(9 5 0 0 -5 -34 4 40)
1969/12/31/18:00:11.899000,(-10 19 3 -3 2 37 -15 -59)
1969/12/31/18:00:11.899000,(-7 -16 -3 0 2 14 -7 -12)
1969/12/31/18:00:11.901000,(15 3 4 4 3 -3 2 1)
1969/12/31/18:00:11.901000,(-42 -20 -7 -4 -4 -18 10 12)
1969/12/31/18:00:11.928000,(40 11 -3 -3 -6 -7 -6 -18)
1969/12/31/18:00:11.928000,(28 29 0 -4 -1 -19 16 20)
1969/12/31/18:00:11.939000,(-91 -26 -8 -3 -3 6 -4 -3)
1969/12/31/18:00:11.939000,(42 3 -1 -2 1 18 3 13)
1969/12/31/18:00:11.940000,(-24 -4 6 4 6 31 30 10)
1969/12/31/18:00:11.940000,(60 20 1 2 -5 -4 26 50)
1969/12/31/18:00:11.943000,(-19 -9 -13 -10 -4 -6 -18 -39)
1969/12/31/18:00:11.943000,(-9 -2 0 0 4 18 3 -12)
1969/12/31/18:00:11.959000,(-5 -3 5 2 -2 -51 5 1)
1969/12/31/18:00:11.959000,(9 -5 -1 -1 -3 -5 -33 -15)
1969/12/31/18:00:11.961000,(24 5 3 2 10 19 23 39)
1969/12/31/18:00:11.961000,(-11 -6 2 4 6 19 -2 -21)
1969/12/31/18:00:11.982000,(8 10 6 6 5 28 36 24)
1969/12/31/18:00:11.982000,(-23 -13 -5 -1 -1 4 0 0)
1969/12/31/18:00:11.983000,(-19 0 -5 -4 -6 -13 19 42)
1969/12/31/18:00:11.983000,(29 10 -3 -4 -5 -13 -25 -33)
1969/12/31/18:00:11.996000,(-40 -19 -13 -10 -8 2 -22 -26)
1969/12/31/18:00:11.996000,(2 -3 -1 2 2 -9 31 17)
1969/12/31/18:00:12.004000,(-34 -35 -14 -14 -17 -13 -35 -43)
1969/12/31/18:00:12.004000,(33 27 12 7 8 30 33 24)
1969/12/31/18:00:12.019000,(-4 -1 -7 -5 2 31 23 38)
1969/12/31/18:00:12.019000,(-16 -17 -8 -7 -8 22 6 -36)
1969/12/31/18:00:12.021000,(-9 -11 -6 -6 4 30 -28 -31)
1969/12/31/18:00:12.021000,(17 16 2 -3 -18 -70 -10 -6)
1969/12/31/18:00:12.042000,(23 1 2 6 9 39 12 17)
1969/12/31/18:00:12.042000,(0 11 5 4 1 -28 15 46)
1969/12/31/18:00:12.043000,(19 -15 -7 -6 -5 -17 -13 4)
1969/12/31/18:00:12.043000,(-15 3 6 1 3 31 12 27)
1969/12/31/18:00:12.056000,(-21 -18 -11 -11 -4 -10 -24 1)
1969/12/31/18:00:12.056000,(55 43 7 1 -5 -25 38 39)
1969/12/31/18:00:12.065000,(-31 -37 0 4 0 -11 11 1)
1969/12/31/18:00:12.065000,(-6 -14 -12 -8 0 -6 -17 -22)
1969/12/31/18:00:12.080000,(-46 -50 -14 -9 -18 -51 -23 -48)
1969/12/31/18:00:12.080000,(29 15 8 3 -1 -15 -44 -41)
1969/12/31/18:00:12.081000,(29 26 5 2 2 9 19 27)
1969/12/31/18:00:12.081000,(-24 -7 -6 -5 -8 -16 6 -27)
1969/12/31/18:00:12.102000,(51 40 26 22 19 24 -11 60)
1969/12/31/18:00:12.102000,(-17 -18 -8 -6 -5 -29 -47 -21)
1969/12/31/18:00:12.103000,(6 4 5 2 8 94 13 -2)
1969/12/31/18:00:12.103000,(4 3 -10 -9 -9 -1 1 -48)
1969/12/31/18:00:12.116000,(26 -1 -3 -3 -2 -26 7 7)
1969/12/31/18:00:12.116000,(-18 -14 -3 1 -6 -53 16 12)
1969/12/31/18:00:12.125000,(18 20 13 12 19 9 26 37)
1969/12/31/18:00:12.125000,(-15 -2 3 1 -7 -13 -26 21)
1969/12/31/18:00:12.139000,(33 9 -4 -3 7 20 13 -23)
1969/12/31/18:00:12.139000,(-66 -38 -14 -13 -17 13 -1 -68)
1969/12/31/18:00:12.141000,(-2 13 4 1 4 1 50 4)
1969/12/31/18:00:12.141000,(29 5 6 4 4 -18 -75 -27)
1969/12/31/18:00:12.162000,(-2 4 -4 4 17 -31 -34 -20)
1969/12/31/18:00:12.162000,(-4 7 14 7 5 82 12 8)
1969/12/31/18:00:12.163000,(-2 4 -1 -11 -43 -84 -30 -11)
1969/12/31/18:00:12.163000,(-10 -5 4 19 79 94 30 12)
1969/12/31/18:00:12.175000,(-7 4 3 2 -1 12 -2 -3)
1969/12/31/18:00:12.176000,(19 7 -5 -11 -35 -46 3 16)
1969/12/31/18:00:12.192000,(12 4 1 -6 -18 -23 -20 -2)
1969/12/31/18:00:12.192000,(12 11 6 -2 -7 -9 29 16)
1969/12/31/18:00:12.207000,(-20 -9 0 12 26 36 -18 -25)
1969/12/31/18:00:12.207000,(35 25 7 11 13 39 58 58)
1969/12/31/18:00:12.208000,(-45 -22 -18 -10 17 3 0 -30)
1969/12/31/18:00:12.208000,(-6 -16 -4 -10 -52 -58 -27 18)
1969/12/31/18:00:12.222000,(-18 -13 -11 -17 9 3 2 20)
1969/12/31/18:00:12.222000,(-1 -2 0 5 -11 -22 -6 -8)
1969/12/31/18:00:12.224000,(32 16 1 0 -38 -38 -21 28)
1969/12/31/18:00:12.224000,(-10 -5 -8 -1 9 0 40 -13)
1969/12/31/18:00:12.236000,(-13 -8 9 2 -1 24 -1 4)
1969/12/31/18:00:12.236000,(9 11 6 5 33 11 -26 -37)
1969/12/31/18:00:12.245000,(11 13 -1 14 54 56 -10 -17)
1969/12/31/18:00:12.245000,(21 -15 -20 -7 -28 -34 -3 20)
1969/12/31/18:00:12.259000,(23 13 0 -25 -88 -102 -3 -8)
1969/12/31/18:00:12.259000,(-58 -11 16 11 8 9 -30 -63)
1969/12/31/18:00:12.261000,(-13 -20 -16 12 56 37 7 -14)
1969/12/31/18:00:12.261000,(3 6 -12 6 28 28 20 15)
1969/12/31/18:00:12.282000,(-7 -6 9 -8 -43 -7 0 -1)
1969/12/31/18:00:12.282000,(13 -1 -26 -29 -19 -10 0 19)
1969/12/31/18:00:12.283000,(-3 33 85 36 23 18 21 38)
1969/12/31/18:00:12.283000,(-26 7 3 18 44 29 -24 -85)
1969/12/31/18:00:12.296000,(-11 -14 -5 20 63 42 13 44)
1969/12/31/18:00:12.296000,(-21 -17 -28 -15 -18 -10 22 -3)
1969/12/31/18:00:12.305000,(8 -21 -42 -38 -117 -84 -41 -42)
1969/12/31/18:00:12.305000,(-31 -12 0 -14 5 9 3 -19)
1969/12/31/18:00:12.319000,(3 28 19 2 -2 13 2 -12)
1969/12/31/18:00:12.319000,(-5 -19 6 -5 11 4 -7 -14)
1969/12/31/18:00:12.321000,(15 8 7 9 16 -13 -14 23)
1969/12/31/18:00:12.321000,(11 15 5 13 24 48 20 10)
1969/12/31/18:00:12.342000,(30 -25 -85 -18 -3 -50 12 35)
1969/12/31/18:00:12.342000,(-6 13 55 8 -1 18 1 -35)
1969/12/31/18:00:12.343000,(18 -5 -15 3 6 7 22 7)
1969/12/31/18:00:12.343000,(-6 13 -3 -19 -52 -31 -37 -21)
1969/12/31/18:00:12.356000,(-29 10 52 12 -12 2 27 22)
1969/12/31/18:00:12.356000,(24 -91 -103 -33 23 0 -22 38)
1969/12/31/18:00:12.372000,(9 73 -9 -13 -14 0 -11 -40)
1969/12/31/18:00:12.372000,(-47 40 95 38 -6 -7 17 23)
1969/12/31/18:00:12.378000,(43 -13 -57 -16 31 22 -20 -6)
1969/12/31/18:00:12.378000,(-30 36 101 46 8 30 7 -13)
1969/12/31/18:00:12.387000,(-69 -128 -96 -32 -5 20 13 -64)
1969/12/31/18:00:12.387000,(13 -10 -51 -26 -25 -49 -23 63)
1969/12/31/18:00:12.402000,(-48 54 68 33 -12 -51 -90 -111)
1969/12/31/18:00:12.402000,(38 -6 -49 -38 -40 -24 -7 30)
1969/12/31/18:00:12.403000,(84 10 19 22 18 37 75 109)
1969/12/31/18:00:12.404000,(1 50 60 -13 -55 -12 -1 -27)
1969/12/31/18:00:12.416000,(-11 -44 -20 -4 14 17 40 63)
1969/12/31/18:00:12.416000,(33 14 -28 11 58 37 -12 6)
1969/12/31/18:00:12.424000,(5 0 8 -5 -21 -29 -16 29)
1969/12/31/18:00:12.424000,(27 -36 -8 -3 -5 -4 29 70)
1969/12/31/18:00:12.439000,(-8 -19 -71 -9 96 98 36 -17)
1969/12/31/18:00:12.439000,(-29 110 112 75 -78 -82 41 5)
1969/12/31/18:00:12.441000,(-84 -47 -62 -24 -27 -34 -74 -84)
1969/12/31/18:00:12.441000,(71 -40 -27 -2 -28 -24 5 46)
1969/12/31/18:00:12.469000,(-42 -14 79 17 14 22 3 8)
1969/12/31/18:00:12.469000,(-35 -98 -128 -68 16 23 -11 -58)
1969/12/31/18:00:12.471000,(2 114 116 54 47 21 32 69)
1969/12/31/18:00:12.471000,(-1 -54 -84 -22 15 25 -21 -69)
1969/12/31/18:00:12.484000,(26 -53 -37 -16 -59 -59 -33 -26)
1969/12/31/18:00:12.484000,(-33 10 4 16 94 109 33 -18)
1969/12/31/18:00:12.486000,(-26 65 82 -11 -124 -128 -40 -48)
1969/12/31/18:00:12.486000,(11 18 -16 -6 32 26 2 -6)
1969/12/31/18:00:12.499000,(52 -65 -86 -23 37 42 28 19)
1969/12/31/18:00:12.499000,(-43 66 98 38 38 -9 -4 -2)
1969/12/31/18:00:12.501000,(11 -7 -15 0 11 24 -52 -32)
1969/12/31/18:00:12.501000,(-29 -34 -40 -2 -19 -16 1 -27)
1969/12/31/18:00:12.522000,(4 -7 -17 -4 -40 -26 -28 -33)
1969/12/31/18:00:12.522000,(11 -70 -34 -39 16 13 23 53)
1969/12/31/18:00:12.523000,(-8 7 25 13 31 50 46 -19)
1969/12/31/18:00:12.523000,(-15 94 78 14 -69 -93 -76 6)
1969/12/31/18:00:12.536000,(-23 -2 -19 -11 -5 -17 -38 -44)
1969/12/31/18:00:12.536000,(19 -36 -44 -8 -9 -25 -20 4)
1969/12/31/18:00:12.544000,(-1 -94 -66 -23 58 59 49 67)
1969/12/31/18:00:12.544000,(13 -57 -94 -51 -33 -9 7 1)
1969/12/31/18:00:12.559000,(-55 70 121 63 37 40 54 -12)
1969/12/31/18:00:12.559000,(60 108 28 16 -12 -16 -23 -3)
1969/12/31/18:00:12.566000,(-17 -30 11 5 -14 -31 -34 -41)
1969/12/31/18:00:12.566000,(13 -14 -23 -29 -70 -70 -7 19)
1969/12/31/18:00:12.582000,(76 -55 -59 -24 72 74 17 80)
1969/12/31/18:00:12.582000,(-49 -11 -2 -14 -44 -64 -43 -38)
1969/12/31/18:00:12.583000,(8 106 63 53 102 82 16 -22)
1969/12/31/18:00:12.583000,(-12 -15 -6 11 47 58 35 -23)
1969/12/31/18:00:12.604000,(-24 -33 -3 -10 -86 -105 -35 -38)
1969/12/31/18:00:12.604000,(65 -37 -68 -21 22 35 5 3)
1969/12/31/18:00:12.606000,(35 58 -3 -12 1 -2 32 32)
1969/12/31/18:00:12.606000,(-68 12 77 36 33 20 -12 -37)
1969/12/31/18:00:12.619000,(13 10 -9 -7 -40 -16 8 4)
1969/12/31/18:00:12.619000,(2 -54 -32 9 -14 -28 4 49)
1969/12/31/18:00:12.625000,(38 -48 -54 -43 -31 1 -20 24)
1969/12/31/18:00:12.626000,(-22 -13 -4 -13 24 38 40 -18)
1969/12/31/18:00:12.650000,(-12 55 9 -23 -23 -16 -20 -7)
1969/12/31/18:00:12.650000,(7 40 50 35 38 -12 -26 -12)
1969/12/31/18:00:12.651000,(33 24 27 10 -76 -45 33 48)
1969/12/31/18:00:12.651000,(-6 -6 27 36 53 55 -6 25)
1969/12/31/18:00:12.664000,(-5 -49 -61 -34 -12 11 8 12)
1969/12/31/18:00:12.664000,(4 23 13 13 46 19 30 1)
1969/12/31/18:00:12.666000,(-76 -41 -14 -27 -46 -46 -58 -58)
1969/12/31/18:00:12.666000,(-12 -11 -13 -2 2 18 34 36)
1969/12/31/18:00:12.680000,(-19 56 70 42 43 29 2 -25)
1969/12/31/18:00:12.680000,(50 8 -5 11 13 38 28 52)
1969/12/31/18:00:12.686000,(-33 -93 -70 -58 -67 -79 -42 -51)
1969/12/31/18:00:12.686000,(41 41 13 7 44 30 15 16)
1969/12/31/18:00:12.702000,(3 26 23 2 -64 -71 -29 -15)
1969/12/31/18:00:12.702000,(-29 -15 7 5 51 94 15 -18)
1969/12/31/18:00:12.703000,(35 -32 -39 7 -27 -61 -7 45)
1969/12/31/18:00:12.703000,(-13 4 15 -10 -1 -10 -24 -48)
1969/12/31/18:00:12.724000,(-14 -8 -10 -6 3 39 55 45)
1969/12/31/18:00:12.724000,(45 61 8 -14 -36 -45 -17 0)
1969/12/31/18:00:12.726000,(2 -33 -14 10 25 13 -11 13)
1969/12/31/18:00:12.726000,(-15 57 56 35 25 31 -10 -6)
1969/12/31/18:00:12.754000,(26 -53 -34 2 63 26 10 11)
1969/12/31/18:00:12.754000,(-16 8 -1 -25 -114 -44 21 32)
1969/12/31/18:00:12.764000,(-49 52 52 8 23 2 -44 -58)
1969/12/31/18:00:12.764000,(-13 -57 -40 -16 -12 -43 -6 -27)
1969/12/31/18:00:12.765000,(38 30 10 9 18 17 -21 -6)
1969/12/31/18:00:12.765000,(-20 -65 -40 -14 -2 8 9 -3)
1969/12/31/18:00:12.768000,(48 -1 -12 11 49 47 48 61)
1969/12/31/18:00:12.768000,(-44 -10 7 -5 -42 -20 -77 -67)
1969/12/31/18:00:12.784000,(17 42 10 0 -31 -30 15 51)
1969/12/31/18:00:12.784000,(-28 -34 1 3 6 -12 -35 -51)
1969/12/31/18:00:12.786000,(36 27 -1 19 35 -3 29 43)
1969/12/31/18:00:12.786000,(20 -45 -76 -40 2 12 0 12)
1969/12/31/18:00:12.799000,(-28 90 92 29 -66 -37 19 33)
1969/12/31/18:00:12.799000,(-53 -32 -14 -6 -5 -3 -29 -23)
1969/12/31/18:00:12.806000,(-16 -17 5 7 42 59 10 -27)
1969/12/31/18:00:12.806000,(68 -43 -77 -9 23 -13 36 70)
1969/12/31/18:00:12.822000,(5 32 75 22 -17 -14 -3 10)
1969/12/31/18:00:12.822000,(10 3 0 -6 -9 -9 -2 41)
1969/12/31/18:00:12.824000,(32 38 20 19 45 45 21 26)
1969/12/31/18:00:12.824000,(-33 -27 -6 -6 -23 -10 -19 -73)
1969/12/31/18:00:12.844000,(11 14 -38 3 105 102 38 45)
1969/12/31/18:00:12.844000,(11 30 22 -4 -75 -82 -31 -21)
1969/12/31/18:00:12.846000,(-35 -50 -18 -44 -68 -65 -61 -75)
1969/12/31/18:00:12.846000,(-19 5 37 18 33 17 5 4)
1969/12/31/18:00:12.859000,(33 -4 -13 -12 4 -9 -1 -6)
1969/12/31/18:00:12.859000,(91 43 -12 23 61 57 42 76)
1969/12/31/18:00:12.866000,(-27 12 5 10 18 29 4 -52)
1969/12/31/18:00:12.866000,(-7 19 7 -11 -42 -33 -9 35)
1969/12/31/18:00:12.882000,(-48 -62 -9 -1 -8 -15 -20 -55)
1969/12/31/18:00:12.882000,(-1 -9 -8 -19 -12 0 4 4)
1969/12/31/18:00:12.883000,(32 11 15 28 41 36 55 100)
1969/12/31/18:00:12.883000,(-7 -22 -13 -11 -44 -48 -56 -46)
1969/12/31/18:00:12.904000,(24 6 -43 -16 24 33 24 23)
1969/12/31/18:00:12.904000,(-39 -38 5 -4 -31 -52 -24 -24)
1969/12/31/18:00:12.906000,(-14 9 0 9 35 37 -9 3)
1969/12/31/18:00:12.906000,(40 5 -22 -9 -8 24 42 31)
1969/12/31/18:00:12.927000,(-60 -44 3 7 10 -11 -25 -58)
1969/12/31/18:00:12.927000,(20 61 40 -11 -58 -39 12 24)
1969/12/31/18:00:12.928000,(-23 9 -13 -5 19 0 5 43)
1969/12/31/18:00:12.928000,(0 -23 2 14 63 30 12 -20)
1969/12/31/18:00:12.942000,(24 -28 -54 -43 -108 -85 -58 -52)
1969/12/31/18:00:12.942000,(-51 -28 15 19 71 65 17 6)
1969/12/31/18:00:12.944000,(8 -15 7 -3 -33 -14 8 -19)
1969/12/31/18:00:12.944000,(-8 15 -14 -1 5 -6 1 24)
1969/12/31/18:00:12.964000,(5 69 77 17 0 9 0 -2)
1969/12/31/18:00:12.964000,(14 17 12 20 34 16 31 11)
1969/12/31/18:00:12.966000,(75 26 -19 -13 -10 -12 -32 -7)
1969/12/31/18:00:12.966000,(2 6 41 12 -48 -38 37 67)
1969/12/31/18:00:12.978000,(13 -61 -65 -16 38 24 -14 -14)
1969/12/31/18:00:12.978000,(-34 -26 -19 -33 -65 -40 -65 -52)
1969/12/31/18:00:12.993000,(-9 18 2 6 23 7 3 -30)
1969/12/31/18:00:12.993000,(19 39 50 23 -8 0 29 35)
1969/12/31/18:00:13.002000,(-16 -15 -16 -5 17 -1 -2 7)
1969/12/31/18:00:13.002000,(56 13 -18 -9 -15 0 5 7)
1969/12/31/18:00:13.004000,(-61 -60 -37 -12 6 29 -1 -19)
1969/12/31/18:00:13.004000,(-13 -4 -14 -9 6 7 2 -7)
1969/12/31/18:00:13.024000,(19 35 13 14 -10 -5 44 56)
1969/12/31/18:00:13.024000,(-16 -42 -43 -16 -1 6 -31 -59)
1969/12/31/18:00:13.026000,(-25 30 75 31 27 21 49 13)
1969/12/31/18:00:13.026000,(-7 10 0 -7 -40 -44 -71 -68)
1969/12/31/18:00:13.038000,(-13 -14 -29 -13 -4 -17 -3 -13)
1969/12/31/18:00:13.038000,(-1 -13 7 7 16 14 5 19)
1969/12/31/18:00:13.047000,(31 3 1 12 8 -3 16 3)
1969/12/31/18:00:13.047000,(7 39 38 8 5 6 -17 -16)
1969/12/31/18:00:13.069000,(1 -53 -23 -14 -17 5 5 21)
1969/12/31/18:00:13.069000,(6 36 -21 -14 -16 -19 9 -15)
1969/12/31/18:00:13.071000,(-29 -15 14 -12 -23 -16 -27 -17)
1969/12/31/18:00:13.071000,(7 -20 -17 12 48 74 30 19)
1969/12/31/18:00:13.087000,(13 -1 -9 6 -14 -53 -12 22)
1969/12/31/18:00:13.087000,(19 2 6 3 14 17 22 23)
1969/12/31/18:00:13.088000,(-40 -33 -33 -12 7 15 -8 -59)
1969/12/31/18:00:13.088000,(-1 -5 -25 -17 -39 -52 -23 -12)
1969/12/31/18:00:13.098000,(-5 16 34 9 10 16 -6 -4)
1969/12/31/18:00:13.098000,(-31 -15 10 4 25 9 5 -38)
1969/12/31/18:00:13.107000,(62 25 -3 -5 3 -21 -21 42)
1969/12/31/18:00:13.107000,(-35 -25 -8 4 0 44 25 -10)
1969/12/31/18:00:13.122000,(-41 -7 -10 -6 -33 -56 -23 -38)
1969/12/31/18:00:13.122000,(-3 -30 -17 -15 -23 -30 -24 -7)
1969/12/31/18:00:13.123000,(73 68 32 7 -1 13 18 39)
1969/12/31/18:00:13.123000,(2 -45 -28 -11 22 -10 5 39)
1969/12/31/18:00:13.144000,(-37 22 37 18 25 30 -2 -8)
1969/12/31/18:00:13.144000,(-3 -2 12 -5 4 18 -12 -3)
1969/12/31/18:00:13.146000,(-39 -45 -21 21 8 -15 11 9)
1969/12/31/18:00:13.146000,(84 70 14 6 12 21 13 57)
1969/12/31/18:00:13.167000,(-2 -3 -6 -3 -6 0 -2 -32)
1969/12/31/18:00:13.167000,(-26 -7 3 -5 -8 8 -2 22)
1969/12/31/18:00:13.168000,(-20 -16 -24 -25 -44 -85 -37 -30)
1969/12/31/18:00:13.168000,(6 12 13 16 52 29 32 0)
1969/12/31/18:00:13.182000,(3 -7 -1 -8 -22 8 3 5)
1969/12/31/18:00:13.182000,(78 53 22 4 8 4 69 75)
1969/12/31/18:00:13.183000,(-74 -74 -35 9 -2 -23 -71 -72)
1969/12/31/18:00:13.183000,(-11 -21 -4 -7 -10 -21 -12 -4)
1969/12/31/18:00:13.204000,(21 11 -3 -7 0 -29 -23 10)
1969/12/31/18:00:13.204000,(-19 -4 4 12 15 62 26 -26)
1969/12/31/18:00:13.206000,(-6 13 3 -9 -20 12 18 -4)
1969/12/31/18:00:13.206000,(-40 -9 -3 -8 2 1 -13 -40)
1969/12/31/18:00:13.218000,(93 45 4 1 7 13 0 32)
1969/12/31/18:00:13.218000,(-26 -5 6 7 0 -5 -18 -10)
1969/12/31/18:00:13.227000,(-20 -7 -2 -6 -4 12 10 2)
1969/12/31/18:00:13.227000,(71 19 3 3 -7 -65 -5 44)
1969/12/31/18:00:13.242000,(-24 -13 -10 -6 21 127 77 30)
1969/12/31/18:00:13.242000,(59 35 19 16 2 -63 -14 -2)
1969/12/31/18:00:13.244000,(64 41 9 4 4 60 52 54)
1969/12/31/18:00:13.244000,(-93 -75 -21 -17 -15 -39 -24 -56)
1969/12/31/18:00:13.264000,(83 50 19 9 4 12 15 52)
1969/12/31/18:00:13.264000,(-43 -27 -12 -3 2 -18 -32 -37)
1969/12/31/18:00:13.266000,(89 49 14 7 7 36 34 75)
1969/12/31/18:00:13.266000,(-60 -44 -23 -18 -8 14 -26 -51)
1969/12/31/18:00:13.278000,(-4 -3 6 4 -2 -34 -37 -51)
1969/12/31/18:00:13.278000,(-7 10 6 12 9 20 8 11)
1969/12/31/18:00:13.287000,(98 25 4 -1 -1 -9 33 99)
1969/12/31/18:00:13.287000,(-56 -9 -4 0 2 17 -8 -65)
1969/12/31/18:00:13.302000,(-20 0 -7 -3 -3 -24 -9 -15)
1969/12/31/18:00:13.302000,(26 4 8 3 -1 4 6 40)
1969/12/31/18:00:13.303000,(-19 -27 -12 -10 -13 -11 -3 -12)
1969/12/31/18:00:13.303000,(49 30 15 9 10 16 23 69)
1969/12/31/18:00:13.324000,(60 26 10 8 3 4 13 36)
1969/12/31/18:00:13.324000,(-47 -32 -21 -13 -11 -11 -32 -75)
1969/12/31/18:00:13.326000,(-68 -23 -17 -19 -13 -19 -30 -62)
1969/12/31/18:00:13.326000,(1 2 8 1 -1 12 3 4)
1969/12/31/18:00:13.338000,(-10 -4 -8 -2 -2 -11 3 14)
1969/12/31/18:00:13.338000,(-32 -17 1 1 1 -1 -12 -41)
1969/12/31/18:00:13.347000,(-8 -8 11 7 2 -7 -6 -17)
1969/12/31/18:00:13.347000,(48 36 -7 -8 -3 8 11 24)
1969/12/31/18:00:13.362000,(-13 -17 -2 -7 -4 -4 -6 1)
1969/12/31/18:00:13.362000,(-14 -16 -6 6 6 0 -4 -9)
1969/12/31/18:00:13.363000,(-7 -4 -3 3 -1 1 -10 -30)
1969/12/31/18:00:13.363000,(52 16 8 8 9 17 19 45)
1969/12/31/18:00:13.392000,(-66 -4 12 4 -3 -8 -8 -29)
1969/12/31/18:00:13.392000,(8 -5 -18 -8 -2 2 1 17)
1969/12/31/18:00:13.393000,(-6 -1 11 -3 -6 -10 -7 -8)
1969/12/31/18:00:13.393000,(30 22 5 2 3 11 10 19)
1969/12/31/18:00:13.398000,(-26 -35 -22 -15 -6 -11 -8 -23)
1969/12/31/18:00:13.398000,(1 16 20 9 1 0 -3 -7)
1969/12/31/18:00:13.407000,(0 -6 -16 -5 -5 -3 -4 4)
1969/12/31/18:00:13.407000,(-9 -12 -6 -2 1 3 0 -5)
1969/12/31/18:00:13.422000,(-14 -2 -7 -3 -1 2 4 14)
1969/12/31/18:00:13.422000,(30 24 7 1 -1 -3 1 27)
1969/12/31/18:00:13.423000,(3 -12 -8 -1 1 -1 2 13)
1969/12/31/18:00:13.423000,(-9 6 20 11 4 5 -5 -15)
1969/12/31/18:00:13.444000,(-3 -9 -5 -1 0 -4 -4 -7)
1969/12/31/18:00:13.444000,(-12 -37 -21 -11 -5 -2 3 4)
1969/12/31/18:00:13.446000,(4 -18 -19 -16 -10 -8 -5 -1)
1969/12/31/18:00:13.446000,(3 43 16 5 2 1 3 2)
1969/12/31/18:00:13.458000,(-18 -22 0 4 -1 2 12 -4)
1969/12/31/18:00:13.458000,(-1 40 29 12 1 -5 -35 -13)
1969/12/31/18:00:13.467000,(-4 -10 2 3 1 -2 -6 -14)
1969/12/31/18:00:13.467000,(4 -33 -33 -8 0 8 10 8)
1969/12/31/18:00:13.482000,(5 38 31 7 -1 -6 -6 -11)
1969/12/31/18:00:13.482000,(-18 -32 -27 -11 -4 1 8 3)
1969/12/31/18:00:13.483000,(8 12 -1 -2 -3 0 0 6)
1969/12/31/18:00:13.483000,(-1 -1 14 7 0 0 -5 -8)
1969/12/31/18:00:13.504000,(-6 -25 -28 -13 -3 -3 -6 -13)
1969/12/31/18:00:13.504000,(3 -15 -23 -5 0 0 7 5)
1969/12/31/18:00:13.506000,(-3 72 80 23 7 3 -2 1)
1969/12/31/18:00:13.506000,(-15 -46 -16 0 -2 -1 5 -1)
1969/12/31/18:00:13.527000,(2 -9 -27 -9 -1 -3 -10 -8)
1969/12/31/18:00:13.527000,(-4 28 27 4 -3 -3 -3 -2)
1969/12/31/18:00:13.528000,(-9 -28 -38 -15 -6 -2 -2 -4)
1969/12/31/18:00:13.528000,(0 18 25 9 4 4 7 3)
1969/12/31/18:00:13.541000,(-2 -35 -24 -9 -1 -3 -2 3)
1969/12/31/18:00:13.541000,(1 23 25 10 0 -3 -16 -14)
1969/12/31/18:00:13.548000,(-9 -14 -14 -5 -3 1 6 -6)
1969/12/31/18:00:13.548000,(-1 7 -4 -13 -4 -1 3 3)
1969/12/31/18:00:13.564000,(25 3 1 7 1 2 -1 4)
1969/12/31/18:00:13.564000,(-29 -32 -13 -10 -6 -5 -11 -8)
1969/12/31/18:00:13.566000,(1 5 -7 2 -2 -5 -3 -7)
1969/12/31/18:00:13.566000,(-5 7 5 -2 -4 -4 -7 -9)
1969/12/31/18:00:13.587000,(2 -3 -4 -25 -4 1 7 4)
1969/12/31/18:00:13.587000,(5 -2 28 46 7 3 12 11)
1969/12/31/18:00:13.588000,(7 38 -1 6 9 6 15 10)
1969/12/31/18:00:13.588000,(-26 -43 -33 -25 -9 -8 -34 -17)
1969/12/31/18:00:13.601000,(-41 -21 16 16 -1 -3 -6 -19)
1969/12/31/18:00:13.601000,(23 12 -8 -6 5 5 20 8)
1969/12/31/18:00:13.608000,(25 18 40 43 11 1 -12 4)
1969/12/31/18:00:13.608000,(8 44 57 46 16 12 19 6)
1969/12/31/18:00:13.624000,(17 11 -4 -23 -7 -8 -15 -4)
1969/12/31/18:00:13.624000,(-6 -78 -73 -53 -20 -4 -8 4)
1969/12/31/18:00:13.626000,(-23 -2 -6 -25 -3 11 16 -4)
1969/12/31/18:00:13.626000,(14 15 -11 6 2 -2 6 -3)
1969/12/31/18:00:13.647000,(-13 -51 -2 5 0 5 3 -1)
1969/12/31/18:00:13.647000,(18 102 66 14 2 -8 -3 -6)
1969/12/31/18:00:13.648000,(-6 -40 -27 -19 -7 -2 -4 3)
1969/12/31/18:00:13.648000,(7 -11 -9 -12 -8 -8 -5 -3)
1969/12/31/18:00:13.661000,(-17 -4 44 45 14 3 1 4)
1969/12/31/18:00:13.661000,(7 45 -20 -15 -3 -5 14 6)
1969/12/31/18:00:13.668000,(16 -3 -10 -17 -5 -8 0 9)
1969/12/31/18:00:13.668000,(-37 -40 -91 -73 -22 -21 -9 -13)
1969/12/31/18:00:13.684000,(25 61 55 50 15 2 18 19)
1969/12/31/18:00:13.684000,(4 -7 23 32 11 3 16 15)
1969/12/31/18:00:13.686000,(-3 12 -6 -11 -2 -8 -14 -7)
1969/12/31/18:00:13.686000,(12 0 21 43 10 3 10 9)
1969/12/31/18:00:13.707000,(-12 -25 -56 -44 -13 -2 13 3)
1969/12/31/18:00:13.707000,(-7 -19 -18 -19 -5 -6 -12 -8)
1969/12/31/18:00:13.709000,(-10 -25 -7 -10 -8 4 4 -3)
1969/12/31/18:00:13.709000,(11 15 -55 -43 -12 -6 -14 -5)
1969/12/31/18:00:13.721000,(0 17 4 4 -1 3 -9 -11)
1969/12/31/18:00:13.721000,(-9 -72 -11 0 -2 6 2 4)
1969/12/31/18:00:13.728000,(-3 28 32 26 8 2 -16 -20)
1969/12/31/18:00:13.728000,(-6 -18 0 -7 -4 1 -10 -9)
1969/12/31/18:00:13.760000,(8 24 10 -5 -3 2 -5 -3)
1969/12/31/18:00:13.760000,(-9 -37 -9 4 -1 0 -3 -3)
1969/12/31/18:00:13.762000,(-11 -35 -25 -7 1 2 -10 -3)
1969/12/31/18:00:13.762000,(-4 20 38 23 4 5 20 0)
