time,.data
1969/12/31/18:00:38.580,(0 3 0 4 -6 -7 -2 -1)
1969/12/31/18:00:38.580,(3 1 5 32 5 1 -2 1)
1969/12/31/18:00:38.581,(-16 -21 -24 -39 -17 -15 -12 -11)
1969/12/31/18:00:38.581,(4 5 2 -6 -1 6 5 4)
1969/12/31/18:00:38.602,(2 4 12 15 -6 5 3 1)
1969/12/31/18:00:38.602,(2 6 6 9 26 3 -2 0)
1969/12/31/18:00:38.604,(-5 -3 11 47 6 1 -3 -5)
1969/12/31/18:00:38.604,(13 6 2 11 1 9 9 12)
1969/12/31/18:00:38.616,(-8 -7 -14 -40 -7 -11 -10 -8)
1969/12/31/18:00:38.616,(-7 -10 -24 -46 -61 -14 -3 -3)
1969/12/31/18:00:38.625,(-4 -9 -23 -55 2 -10 -5 -5)
1969/12/31/18:00:38.625,(-3 2 23 45 51 10 0 0)
1969/12/31/18:00:38.639,(3 5 4 58 5 8 6 4)
1969/12/31/18:00:38.640,(0 2 25 10 -4 -3 -2 -2)
1969/12/31/18:00:38.641,(0 8 -4 14 5 3 5 4)
1969/12/31/18:00:38.641,(-5 -13 -15 -8 17 4 -3 -6)
1969/12/31/18:00:38.662,(-3 -3 -28 -102 -75 -40 -17 -8)
1969/12/31/18:00:38.662,(6 -4 -12 -25 -17 -13 4 5)
1969/12/31/18:00:38.664,(3 15 53 82 65 33 14 5)
1969/12/31/18:00:38.664,(-1 4 21 121 87 32 5 3)
1969/12/31/18:00:38.676,(-1 -11 -10 -36 15 4 3 2)
1969/12/31/18:00:38.676,(-7 -9 -44 -105 -74 -14 -6 -7)
1969/12/31/18:00:38.692,(12 3 -8 6 11 1 1 6)
1969/12/31/18:00:38.692,(-31 -27 37 24 -25 -21 -14 -20)
1969/12/31/18:00:38.700,(11 30 22 68 34 22 10 7)
1969/12/31/18:00:38.700,(8 12 -23 -63 -34 -28 -11 1)
1969/12/31/18:00:38.701,(10 0 -22 -33 -12 -1 3 6)
1969/12/31/18:00:38.702,(-9 -15 -24 -87 -85 -17 -9 -8)
1969/12/31/18:00:38.722,(-21 -34 -17 27 54 3 -1 -10)
1969/12/31/18:00:38.722,(4 7 38 40 38 20 8 5)
1969/12/31/18:00:38.724,(7 22 24 73 -9 -4 0 4)
1969/12/31/18:00:38.724,(13 8 -38 -49 -3 -6 -2 5)
1969/12/31/18:00:38.736,(-19 -18 18 -55 -53 -8 -6 -13)
1969/12/31/18:00:38.736,(-1 -2 24 125 81 25 10 3)
1969/12/31/18:00:38.745,(-4 -4 -27 -73 -86 -16 -8 -5)
1969/12/31/18:00:38.745,(4 4 -12 -51 26 -3 4 3)
1969/12/31/18:00:38.759,(14 19 19 104 50 14 7 8)
1969/12/31/18:00:38.759,(-4 -7 4 4 14 4 -5 -5)
1969/12/31/18:00:38.761,(-12 -16 -5 -44 0 2 0 -5)
1969/12/31/18:00:38.761,(0 5 8 -7 -37 -9 0 0)
1969/12/31/18:00:38.782,(8 -3 -41 -33 -54 -21 -6 3)
1969/12/31/18:00:38.782,(-1 -3 -1 -70 -18 1 0 2)
1969/12/31/18:00:38.788,(-1 8 39 107 72 18 4 -1)
1969/12/31/18:00:38.788,(5 4 -15 -24 9 6 2 3)
1969/12/31/18:00:38.796,(-2 0 8 -2 25 0 -2 -1)
1969/12/31/18:00:38.796,(-6 -8 -11 -28 -97 -31 -10 -6)
1969/12/31/18:00:38.805,(0 -2 -6 -11 33 10 0 -1)
1969/12/31/18:00:38.805,(-1 3 22 75 54 10 2 2)
1969/12/31/18:00:38.819,(3 1 0 -21 -18 -3 2 4)
1969/12/31/18:00:38.819,(4 4 -5 4 11 4 4 4)
1969/12/31/18:00:38.826,(-2 -8 -25 -59 -33 -17 -6 -3)
1969/12/31/18:00:38.826,(3 7 17 1 -25 -9 -3 -2)
1969/12/31/18:00:38.850,(-2 2 15 57 14 8 0 -3)
1969/12/31/18:00:38.850,(-2 -5 -14 -13 27 6 1 -2)
1969/12/31/18:00:38.851,(-4 -4 1 6 -6 -4 -2 -1)
1969/12/31/18:00:38.851,(4 1 -12 -28 -17 -3 3 4)
1969/12/31/18:00:38.856,(-1 0 -7 -33 -12 -4 -2 -4)
1969/12/31/18:00:38.856,(0 4 11 43 34 10 1 -1)
1969/12/31/18:00:38.865,(0 -5 2 -1 0 -3 -1 0)
1969/12/31/18:00:38.865,(1 0 -15 -29 -23 -6 0 2)
1969/12/31/18:00:38.879,(2 4 11 41 10 6 4 3)
1969/12/31/18:00:38.879,(-1 -4 4 46 23 3 0 1)
1969/12/31/18:00:38.886,(0 0 0 -16 -6 -3 -2 -1)
1969/12/31/18:00:38.886,(-2 -1 -5 -7 -14 0 0 -2)
1969/12/31/18:00:38.902,(0 -1 1 -6 5 1 -3 -2)
1969/12/31/18:00:38.902,(-3 -3 -3 6 12 3 1 -2)
1969/12/31/18:00:38.904,(-2 -4 -7 -2 -10 -4 -3 -2)
1969/12/31/18:00:38.904,(1 0 0 -18 -11 -2 0 1)
1969/12/31/18:00:38.916,(2 5 8 26 19 7 1 2)
1969/12/31/18:00:38.916,(1 1 -2 4 -7 1 1 0)
1969/12/31/18:00:38.925,(-3 -2 -3 -30 -7 -2 0 -3)
1969/12/31/18:00:38.925,(0 1 5 40 4 -2 -4 -4)
1969/12/31/18:00:38.939,(-3 -4 -7 -27 -6 -5 -3 -1)
1969/12/31/18:00:38.939,(4 3 5 12 -6 -1 1 4)
1969/12/31/18:00:38.946,(-5 -5 0 14 5 3 0 -2)
1969/12/31/18:00:38.946,(1 1 -1 -6 0 -1 0 -1)
1969/12/31/18:00:38.962,(1 -1 -8 -27 -15 -1 0 0)
1969/12/31/18:00:38.962,(2 4 11 33 29 7 1 2)
1969/12/31/18:00:38.964,(-1 0 -5 -10 -10 -4 -1 -2)
1969/12/31/18:00:38.964,(-1 -3 -3 -3 7 0 -1 -1)
1969/12/31/18:00:38.985,(1 0 -2 -22 -14 -1 5 3)
1969/12/31/18:00:38.985,(0 0 -1 2 -2 0 0 0)
1969/12/31/18:00:38.986,(-1 -1 5 11 3 -1 -1 -3)
1969/12/31/18:00:38.986,(-1 -1 1 11 -6 -2 1 0)
1969/12/31/18:00:38.999,(-3 -3 -3 -6 2 -2 -1 -1)
1969/12/31/18:00:38.999,(0 0 -3 -11 -2 -2 -3 -3)
1969/12/31/18:00:39.006,(0 1 1 -2 -7 -2 2 1)
1969/12/31/18:00:39.006,(2 0 -11 -5 -4 -2 1 2)
1969/12/31/18:00:39.022,(-4 -5 0 -43 -15 -4 -2 -4)
1969/12/31/18:00:39.022,(-5 -3 3 27 3 0 -3 -3)
1969/12/31/18:00:39.024,(2 1 4 30 26 7 1 2)
1969/12/31/18:00:39.024,(-8 -6 1 -3 -4 -1 -2 -3)
1969/12/31/18:00:39.036,(13 10 1 5 4 4 5 7)
1969/12/31/18:00:39.036,(-2 -6 -17 -54 -16 -4 -5 -3)
1969/12/31/18:00:39.045,(4 2 4 10 -6 -3 -1 1)
1969/12/31/18:00:39.045,(-3 -1 4 18 2 0 -2 1)
1969/12/31/18:00:39.059,(1 11 4 11 7 1 -1 2)
1969/12/31/18:00:39.059,(-12 -14 0 -4 0 1 4 1)
1969/12/31/18:00:39.066,(-15 -11 -9 -22 -11 -7 -11 -14)
1969/12/31/18:00:39.066,(3 5 0 1 -1 -2 -1 -1)
1969/12/31/18:00:39.082,(2 -6 -8 -2 -3 -3 -4 -1)
1969/12/31/18:00:39.082,(10 8 -1 5 1 -3 -2 1)
1969/12/31/18:00:39.084,(-2 -2 -5 -13 -1 2 7 5)
1969/12/31/18:00:39.084,(7 5 -3 -31 -27 -2 4 3)
1969/12/31/18:00:39.096,(-1 0 0 22 11 -3 0 -2)
1969/12/31/18:00:39.096,(-7 -2 4 7 8 5 3 -3)
1969/12/31/18:00:39.106,(-6 0 10 33 16 1 -2 -2)
1969/12/31/18:00:39.106,(-11 -4 5 19 12 4 -2 -6)
1969/12/31/18:00:39.119,(-3 -4 -5 -16 0 1 -2 -2)
1969/12/31/18:00:39.119,(9 3 -2 -13 -12 -5 -1 3)
1969/12/31/18:00:39.126,(0 -2 -4 -14 -12 -7 -8 -4)
1969/12/31/18:00:39.126,(-3 -4 -3 0 -5 -3 -3 -2)
1969/12/31/18:00:39.142,(-59 -26 -5 -8 -9 -6 -6 -20)
1969/12/31/18:00:39.142,(55 28 3 7 14 9 12 23)
1969/12/31/18:00:39.144,(30 7 3 -2 -3 3 6 20)
1969/12/31/18:00:39.144,(-18 -19 -6 -2 2 1 -2 -12)
1969/12/31/18:00:39.165,(6 4 2 5 3 2 5 10)
1969/12/31/18:00:39.165,(-31 -15 -3 -1 -4 -8 -11 -16)
1969/12/31/18:00:39.166,(6 7 -4 -7 1 4 8 11)
1969/12/31/18:00:39.166,(11 6 -6 -22 -11 -2 1 6)
1969/12/31/18:00:39.178,(2 -4 -9 -64 -50 -7 -1 -1)
1969/12/31/18:00:39.178,(-4 5 20 94 57 10 5 -1)
1969/12/31/18:00:39.187,(0 7 23 57 39 10 0 -5)
1969/12/31/18:00:39.187,(-13 -6 4 24 18 1 -4 -9)
1969/12/31/18:00:39.202,(8 0 -9 -24 -9 -2 -2 -1)
1969/12/31/18:00:39.202,(5 6 -11 -62 -37 -9 -2 6)
1969/12/31/18:00:39.204,(-9 -7 -11 -21 -20 -15 -12 -15)
1969/12/31/18:00:39.204,(-34 -24 1 3 3 2 1 -11)
1969/12/31/18:00:39.225,(36 26 -1 5 0 -2 -5 7)
1969/12/31/18:00:39.225,(-14 -12 -4 -10 -7 -5 -11 -11)
1969/12/31/18:00:39.226,(-5 1 -6 0 2 0 3 7)
1969/12/31/18:00:39.226,(31 12 2 -7 -1 7 9 17)
1969/12/31/18:00:39.238,(-17 -18 0 17 9 2 2 -2)
1969/12/31/18:00:39.238,(-9 -6 -2 4 -1 0 -2 -9)
1969/12/31/18:00:39.247,(-5 1 -3 -17 -14 -2 -2 -5)
1969/12/31/18:00:39.247,(-5 0 -6 -20 -9 -10 -6 -1)
1969/12/31/18:00:39.262,(2 1 6 26 7 4 3 -2)
1969/12/31/18:00:39.262,(-3 0 2 9 20 0 1 -2)
1969/12/31/18:00:39.264,(-7 -7 2 -10 -7 4 2 -1)
1969/12/31/18:00:39.264,(11 10 8 33 23 6 3 5)
1969/12/31/18:00:39.285,(-1 -2 2 10 14 7 0 -2)
1969/12/31/18:00:39.285,(-6 -5 -7 -22 -18 0 3 2)
1969/12/31/18:00:39.286,(-6 -1 -3 -12 -10 -6 2 2)
1969/12/31/18:00:39.286,(10 2 -5 -2 -15 -11 -10 -6)
1969/12/31/18:00:39.307,(6 4 -2 -5 10 -4 -2 2)
1969/12/31/18:00:39.307,(-7 -7 2 -9 -8 -1 -3 -4)
1969/12/31/18:00:39.309,(-16 -14 -6 9 12 2 2 -2)
1969/12/31/18:00:39.309,(10 15 2 -2 1 2 2 4)
1969/12/31/18:00:39.322,(27 23 8 16 9 11 19 19)
1969/12/31/18:00:39.322,(-10 -10 -12 -11 -10 -9 -10 -13)
1969/12/31/18:00:39.324,(1 -2 -8 -22 -18 -7 -2 -1)
1969/12/31/18:00:39.324,(-13 -14 -8 -17 -16 -14 -5 -5)
1969/12/31/18:00:39.345,(1 1 6 26 1 2 3 5)
1969/12/31/18:00:39.345,(4 6 12 31 52 25 11 6)
1969/12/31/18:00:39.346,(2 0 3 2 23 19 6 -3)
1969/12/31/18:00:39.346,(2 2 -1 -2 -4 0 -1 -1)
1969/12/31/18:00:39.360,(-13 -11 -7 -8 -18 -11 -10 -10)
1969/12/31/18:00:39.360,(2 7 4 6 -18 -14 -3 1)
1969/12/31/18:00:39.367,(2 1 1 -5 -11 -9 -6 -5)
1969/12/31/18:00:39.367,(9 3 -6 -13 -1 2 4 9)
1969/12/31/18:00:39.382,(-7 -5 -10 -27 -12 -6 -5 -7)
1969/12/31/18:00:39.382,(-1 -6 -9 -50 -25 -4 -1 0)
1969/12/31/18:00:39.384,(0 1 9 59 26 2 0 0)
1969/12/31/18:00:39.384,(-6 -1 12 43 28 5 1 -3)
1969/12/31/18:00:39.405,(-4 -4 4 5 10 2 -6 -8)
1969/12/31/18:00:39.405,(-4 -5 -5 -14 -7 1 1 -2)
1969/12/31/18:00:39.406,(-6 0 -8 -33 -18 -4 1 1)
1969/12/31/18:00:39.406,(-2 -7 -4 -10 -15 -2 -2 -1)
1969/12/31/18:00:39.418,(12 8 -3 -8 -3 -6 -6 0)
1969/12/31/18:00:39.418,(5 5 1 6 -2 3 1 1)
1969/12/31/18:00:39.427,(-3 -5 -9 -15 -6 -7 -4 -5)
1969/12/31/18:00:39.427,(2 4 3 -3 -4 5 6 6)
1969/12/31/18:00:39.444,(-6 -3 15 60 32 7 1 -2)
1969/12/31/18:00:39.444,(1 2 2 17 7 2 1 2)
1969/12/31/18:00:39.445,(4 3 11 37 12 1 0 0)
1969/12/31/18:00:39.445,(8 7 0 -19 -8 0 2 3)
1969/12/31/18:00:39.472,(-1 -4 -11 -66 -18 -6 -3 0)
1969/12/31/18:00:39.472,(-21 -19 -12 -4 -22 -6 -2 -9)
1969/12/31/18:00:39.474,(12 9 6 25 16 2 0 2)
1969/12/31/18:00:39.474,(2 6 9 25 9 1 -7 -8)
1969/12/31/18:00:39.478,(-14 -14 -3 -2 1 0 1 -2)
1969/12/31/18:00:39.478,(8 5 -1 -10 1 -3 -2 4)
1969/12/31/18:00:39.487,(-13 -3 -12 -45 -26 -8 -8 -8)
1969/12/31/18:00:39.487,(21 8 -2 -2 -5 -5 2 13)
1969/12/31/18:00:39.502,(12 3 1 11 6 5 3 6)
1969/12/31/18:00:39.502,(8 7 -2 -11 4 1 1 4)
1969/12/31/18:00:39.504,(-7 -8 -1 -1 -18 0 2 -3)
1969/12/31/18:00:39.504,(-8 -5 -11 -51 -26 -12 -8 -5)
1969/12/31/18:00:39.525,(-4 1 -5 -11 -24 -10 -3 -1)
1969/12/31/18:00:39.525,(-2 -3 14 62 48 12 6 4)
1969/12/31/18:00:39.526,(10 10 20 41 52 26 8 5)
1969/12/31/18:00:39.526,(-8 -2 5 -1 26 20 6 0)
1969/12/31/18:00:39.538,(-7 -10 -23 -28 -26 -17 -7 -9)
1969/12/31/18:00:39.538,(3 4 8 24 -25 -14 -2 -2)
1969/12/31/18:00:39.547,(0 -1 3 17 -3 -6 -1 1)
1969/12/31/18:00:39.547,(-4 -1 -1 -8 8 0 -1 -6)
1969/12/31/18:00:39.562,(0 1 4 -10 -8 6 9 11)
1969/12/31/18:00:39.562,(-6 -8 -19 -42 -18 -13 -15 -12)
1969/12/31/18:00:39.564,(3 1 -7 -22 -10 -6 -2 0)
1969/12/31/18:00:39.564,(-6 -4 -3 9 -8 -4 0 0)
1969/12/31/18:00:39.584,(2 4 2 5 8 2 -1 1)
1969/12/31/18:00:39.584,(-2 -1 0 1 0 3 0 0)
1969/12/31/18:00:39.586,(6 5 2 -20 -19 -1 1 3)
1969/12/31/18:00:39.586,(-8 -8 -9 -18 1 -11 -11 -10)
1969/12/31/18:00:39.607,(-2 -2 5 27 -5 7 8 4)
1969/12/31/18:00:39.607,(10 15 11 16 37 18 9 8)
1969/12/31/18:00:39.608,(-4 -5 -1 26 17 4 -2 -5)
1969/12/31/18:00:39.609,(-3 1 2 5 -9 -4 -4 -2)
1969/12/31/18:00:39.622,(-6 -6 2 -4 5 -4 -5 -8)
1969/12/31/18:00:39.622,(-4 -6 -8 -43 -30 -7 1 2)
1969/12/31/18:00:39.624,(9 6 -9 -7 -7 -6 0 6)
1969/12/31/18:00:39.624,(-4 -4 1 -12 -3 -1 0 -3)
1969/12/31/18:00:39.645,(-1 -1 2 28 6 0 -4 -3)
1969/12/31/18:00:39.645,(0 0 8 24 11 3 0 -1)
1969/12/31/18:00:39.646,(-3 -6 -1 -11 3 1 -2 0)
1969/12/31/18:00:39.646,(-8 -8 -2 17 3 0 -4 -3)
1969/12/31/18:00:39.658,(23 17 -12 -74 -27 2 11 15)
1969/12/31/18:00:39.658,(-24 -21 -5 6 0 -9 -10 -14)
1969/12/31/18:00:39.667,(1 1 13 35 4 -2 -4 -5)
1969/12/31/18:00:39.667,(19 17 7 31 18 10 15 18)
1969/12/31/18:00:39.682,(-12 -9 5 32 14 2 -6 -8)
1969/12/31/18:00:39.682,(8 6 -6 -27 -11 -3 1 3)
1969/12/31/18:00:39.684,(-4 -6 -15 -65 -20 -8 -3 0)
1969/12/31/18:00:39.684,(-1 -1 1 26 -10 2 4 0)
1969/12/31/18:00:39.705,(-5 -1 -2 -3 7 -1 -5 -7)
1969/12/31/18:00:39.705,(5 4 2 7 20 8 6 6)
1969/12/31/18:00:39.706,(-3 -2 5 20 -27 -2 -4 -4)
1969/12/31/18:00:39.706,(4 2 -6 -26 13 -1 0 0)
1969/12/31/18:00:39.718,(-2 -2 1 17 25 0 -1 -2)
1969/12/31/18:00:39.718,(-1 2 5 6 -2 2 -2 0)
1969/12/31/18:00:39.727,(5 2 1 4 4 1 3 3)
1969/12/31/18:00:39.727,(-7 -5 -1 -1 3 0 -1 -2)
1969/12/31/18:00:39.741,(-3 -2 -4 -29 -22 -10 -8 -10)
1969/12/31/18:00:39.741,(-8 -11 -20 -20 -25 -11 -8 -7)
1969/12/31/18:00:39.748,(26 17 -8 -32 8 10 17 23)
1969/12/31/18:00:39.748,(-4 -5 13 66 24 0 -3 -3)
1969/12/31/18:00:39.765,(-10 -3 21 57 31 3 -4 -8)
1969/12/31/18:00:39.765,(2 5 4 -3 -21 -1 0 0)
1969/12/31/18:00:39.766,(-8 -5 -7 -29 6 1 -1 -5)
1969/12/31/18:00:39.766,(0 -1 -9 -12 0 5 1 1)
1969/12/31/18:00:39.778,(2 0 1 7 1 2 2 1)
1969/12/31/18:00:39.778,(4 3 0 -9 -3 -7 -1 2)
1969/12/31/18:00:39.787,(-7 -8 -10 -20 -29 -11 -5 -4)
1969/12/31/18:00:39.787,(6 2 -3 -9 -5 -2 -3 -1)
1969/12/31/18:00:39.802,(2 7 5 7 4 3 4 8)
1969/12/31/18:00:39.802,(-12 -10 -7 -27 -25 -3 -3 -12)
1969/12/31/18:00:39.804,(-8 -6 -2 20 11 -3 -2 -5)
1969/12/31/18:00:39.804,(0 0 0 2 0 -6 -5 -3)
1969/12/31/18:00:39.824,(3 3 -5 -21 -5 10 10 5)
1969/12/31/18:00:39.824,(7 3 -6 -29 -11 -2 1 5)
1969/12/31/18:00:39.826,(-3 1 10 50 2 -1 -3 -3)
1969/12/31/18:00:39.826,(-3 1 25 72 45 8 -3 -3)
1969/12/31/18:00:39.838,(-5 -1 5 5 0 -1 -2 0)
1969/12/31/18:00:39.838,(5 5 1 -2 10 3 5 6)
1969/12/31/18:00:39.847,(-7 -9 -15 -45 -20 -10 -9 -13)
1969/12/31/18:00:39.847,(4 2 -14 -46 -38 -8 4 8)
1969/12/31/18:00:39.862,(-9 -9 -3 12 -9 -7 -5 -7)
1969/12/31/18:00:39.862,(4 6 4 15 31 2 0 2)
1969/12/31/18:00:39.864,(-9 -5 -2 -7 -3 -1 -2 -9)
1969/12/31/18:00:39.864,(4 4 -1 -4 -6 0 -1 -2)
1969/12/31/18:00:39.884,(0 -4 -2 -3 4 1 0 -2)
1969/12/31/18:00:39.885,(0 -1 -2 -22 -14 -7 -4 -3)
1969/12/31/18:00:39.886,(-2 -5 -10 -13 -19 -6 -4 0)
1969/12/31/18:00:39.886,(0 0 9 28 19 9 9 7)
1969/12/31/18:00:39.898,(6 2 -2 -11 12 6 3 5)
1969/12/31/18:00:39.898,(3 3 3 38 4 4 5 6)
1969/12/31/18:00:39.915,(4 8 12 15 19 3 0 2)
1969/12/31/18:00:39.915,(0 -3 -7 -23 -13 -4 -5 -2)
1969/12/31/18:00:39.922,(-16 -9 1 -9 -18 3 5 -5)
1969/12/31/18:00:39.922,(-3 -2 4 16 14 -1 -1 -1)
1969/12/31/18:00:39.924,(-1 0 -9 -28 -22 -1 2 3)
1969/12/31/18:00:39.924,(5 1 -6 -11 3 -6 -4 -1)
1969/12/31/18:00:39.945,(10 6 1 5 1 -1 0 5)
1969/12/31/18:00:39.945,(0 -1 3 7 -2 2 1 1)
1969/12/31/18:00:39.946,(0 1 6 12 12 2 0 0)
1969/12/31/18:00:39.946,(6 6 2 -8 -13 -1 0 2)
1969/12/31/18:00:39.958,(-15 -7 -1 -2 5 -2 -4 -10)
1969/12/31/18:00:39.958,(16 10 -3 -13 -6 3 7 12)
1969/12/31/18:00:39.967,(5 -6 -5 13 12 2 2 2)
1969/12/31/18:00:39.967,(-5 -3 -1 -3 -7 -2 -4 -9)
1969/12/31/18:00:39.982,(5 7 8 9 9 5 5 8)
1969/12/31/18:00:39.982,(-19 -17 -6 -26 -17 -8 -10 -13)
1969/12/31/18:00:39.984,(6 6 5 21 29 4 3 7)
1969/12/31/18:00:39.984,(-3 -3 -3 14 5 2 1 -2)
1969/12/31/18:00:40.004,(-6 -7 0 7 -5 -3 -3 -4)
1969/12/31/18:00:40.004,(7 9 1 -5 -3 -1 2 2)
1969/12/31/18:00:40.006,(14 11 -2 -30 -5 -2 7 8)
1969/12/31/18:00:40.006,(-10 -6 -2 -4 -8 -1 -2 -6)
1969/12/31/18:00:40.018,(2 -2 -8 -8 9 -2 -3 -2)
1969/12/31/18:00:40.018,(-3 -3 5 20 5 2 0 1)
1969/12/31/18:00:40.027,(0 5 8 21 14 4 -1 -2)
1969/12/31/18:00:40.027,(-10 -12 -2 -14 -7 1 4 2)
1969/12/31/18:00:40.042,(8 9 -8 -3 -9 -9 -5 -6)
1969/12/31/18:00:40.042,(-6 -4 -1 -5 0 -3 -1 3)
1969/12/31/18:00:40.044,(3 -4 -1 14 -5 1 0 -1)
1969/12/31/18:00:40.044,(-8 -4 -2 -17 -4 0 3 0)
1969/12/31/18:00:40.064,(8 -3 -8 -26 -19 -6 -1 9)
1969/12/31/18:00:40.064,(20 24 16 55 31 11 3 0)
1969/12/31/18:00:40.066,(-16 -10 3 -2 -1 -5 -10 -17)
1969/12/31/18:00:40.066,(16 16 -5 -14 -15 -4 -2 4)
1969/12/31/18:00:40.078,(-7 -8 -2 -12 -4 1 0 -3)
1969/12/31/18:00:40.078,(-8 -10 -6 -8 -7 -4 0 0)
1969/12/31/18:00:40.087,(-1 -5 -2 0 0 -2 -1 1)
1969/12/31/18:00:40.087,(-4 -6 -11 -41 -12 -3 -3 -4)
1969/12/31/18:00:40.102,(0 2 7 42 8 0 1 2)
1969/12/31/18:00:40.102,(-5 -2 7 9 8 2 4 6)
1969/12/31/18:00:40.104,(10 15 8 7 1 6 0 -9)
1969/12/31/18:00:40.104,(-3 -4 -4 -8 -5 -5 -2 7)
1969/12/31/18:00:40.125,(-20 -6 -10 -10 -5 -7 -9 -7)
1969/12/31/18:00:40.125,(7 -5 -1 -1 3 3 -4 -9)
1969/12/31/18:00:40.126,(-13 -6 -9 -19 -12 -4 4 2)
1969/12/31/18:00:40.126,(-1 1 7 10 0 -3 -5 -6)
1969/12/31/18:00:40.147,(-14 -27 -6 1 2 2 0 0)
1969/12/31/18:00:40.147,(19 24 -2 2 -1 2 7 6)
1969/12/31/18:00:40.148,(-10 -9 -3 -8 -6 -4 -6 -8)
1969/12/31/18:00:40.148,(-2 -2 4 11 8 6 3 -2)
1969/12/31/18:00:40.162,(1 -2 0 2 2 1 3 2)
1969/12/31/18:00:40.162,(-6 -20 -7 -12 -2 0 2 8)
1969/12/31/18:00:40.164,(31 31 3 -1 -3 -1 6 14)
1969/12/31/18:00:40.164,(-41 -30 -1 6 0 -6 -14 -27)
1969/12/31/18:00:40.184,(10 34 10 5 9 10 8 0)
1969/12/31/18:00:40.184,(-16 -12 -7 -7 -8 -11 -17 -25)
1969/12/31/18:00:40.186,(-4 -13 -4 -6 -4 -1 -1 3)
1969/12/31/18:00:40.186,(-7 -17 -5 3 -2 -2 1 2)
1969/12/31/18:00:40.207,(-7 10 4 -1 -2 -6 -7 -4)
1969/12/31/18:00:40.207,(21 23 -1 -8 -5 -1 2 2)
1969/12/31/18:00:40.209,(7 5 3 6 5 3 4 7)
1969/12/31/18:00:40.209,(9 8 0 2 5 4 5 3)
1969/12/31/18:00:40.221,(2 -10 -4 -13 -5 0 -1 -1)
1969/12/31/18:00:40.221,(-10 -20 -8 -24 -14 -4 -2 2)
1969/12/31/18:00:40.228,(10 10 -8 -19 -10 -8 -6 3)
1969/12/31/18:00:40.228,(-29 -11 15 65 31 8 0 -16)
1969/12/31/18:00:40.245,(36 19 14 36 32 12 11 19)
1969/12/31/18:00:40.245,(-36 -36 2 4 7 6 -2 -13)
1969/12/31/18:00:40.246,(47 53 5 -22 -13 4 15 23)
1969/12/31/18:00:40.246,(-12 -18 -17 -31 -19 -13 -25 -30)
1969/12/31/18:00:40.267,(-2 -6 -11 -13 -15 -9 -4 -4)
1969/12/31/18:00:40.267,(-28 -38 -9 -3 -4 -1 -1 -2)
1969/12/31/18:00:40.269,(16 22 7 5 2 2 2 2)
1969/12/31/18:00:40.269,(38 34 0 -12 -10 -7 7 29)
1969/12/31/18:00:40.281,(3 7 -1 -5 3 7 -2 -14)
1969/12/31/18:00:40.281,(-3 -5 -3 6 -1 -5 -4 1)
1969/12/31/18:00:40.290,(-28 -29 -10 -29 -12 -4 -6 -14)
1969/12/31/18:00:40.290,(4 5 9 41 8 -1 1 4)
1969/12/31/18:00:40.304,(4 2 6 12 6 -1 0 3)
1969/12/31/18:00:40.304,(6 9 5 10 8 3 5 9)
1969/12/31/18:00:40.306,(-4 9 2 8 1 -2 -7 -9)
1969/12/31/18:00:40.306,(-1 -7 -12 -43 -13 4 8 4)
1969/12/31/18:00:40.327,(-12 -21 -9 -14 -15 -7 -2 0)
1969/12/31/18:00:40.327,(9 16 3 15 9 5 7 3)
1969/12/31/18:00:40.329,(-21 -24 1 14 4 -4 -8 -10)
1969/12/31/18:00:40.329,(-18 -23 -11 -30 -13 -6 -2 -3)
1969/12/31/18:00:40.341,(42 47 2 10 -1 -1 1 17)
1969/12/31/18:00:40.341,(-15 2 5 14 10 5 -1 -16)
1969/12/31/18:00:40.350,(-19 -31 -4 5 2 -5 -7 -1)
1969/12/31/18:00:40.350,(35 45 13 8 4 7 11 8)
1969/12/31/18:00:40.364,(-1 -15 -10 -18 -5 -2 2 5)
1969/12/31/18:00:40.365,(9 16 3 -7 -7 -1 3 8)
1969/12/31/18:00:40.366,(-25 -37 -9 3 -4 -15 -21 -15)
1969/12/31/18:00:40.366,(-4 11 11 8 9 11 6 -14)
1969/12/31/18:00:40.387,(-20 -17 -4 -8 -6 -5 -4 -10)
1969/12/31/18:00:40.387,(22 12 -8 -22 -5 1 5 12)
1969/12/31/18:00:40.388,(-12 -14 -3 12 4 4 4 1)
1969/12/31/18:00:40.388,(6 5 2 3 -2 -1 -1 9)
1969/12/31/18:00:40.401,(-19 -14 -3 -20 -27 -8 -9 -16)
1969/12/31/18:00:40.401,(2 6 11 33 25 2 2 -1)
1969/12/31/18:00:40.410,(-5 -3 3 14 7 2 2 -1)
1969/12/31/18:00:40.410,(18 23 -3 -6 6 2 2 7)
1969/12/31/18:00:40.424,(-30 -20 0 5 3 -1 -4 -12)
1969/12/31/18:00:40.424,(39 44 11 -16 -6 8 18 19)
1969/12/31/18:00:40.426,(-2 -15 -12 -11 -7 -2 -3 -8)
1969/12/31/18:00:40.426,(0 -6 -12 -4 -9 -9 -7 1)
1969/12/31/18:00:40.447,(-43 -46 -3 -5 0 -1 -4 -12)
1969/12/31/18:00:40.447,(29 55 5 -2 -6 -4 -7 -4)
1969/12/31/18:00:40.449,(8 6 4 5 7 7 6 10)
1969/12/31/18:00:40.449,(-1 -7 2 -1 -4 -6 -4 -2)
1969/12/31/18:00:40.461,(14 12 2 8 12 11 9 10)
1969/12/31/18:00:40.461,(-19 -29 -6 2 -7 -9 -9 -10)
1969/12/31/18:00:40.470,(-6 -1 3 -3 0 6 3 0)
1969/12/31/18:00:40.470,(-21 -17 -1 -1 -2 0 3 0)
1969/12/31/18:00:40.484,(23 24 5 10 6 -1 -5 -3)
1969/12/31/18:00:40.484,(-16 -46 -11 0 0 3 2 5)
1969/12/31/18:00:40.486,(10 38 3 -6 -9 -11 -15 -21)
1969/12/31/18:00:40.486,(-4 -22 -8 2 3 0 4 9)
1969/12/31/18:00:40.507,(20 14 7 2 5 5 5 12)
1969/12/31/18:00:40.507,(-16 -4 -7 -14 -13 -11 -14 -13)
1969/12/31/18:00:40.509,(-10 -18 -4 -2 -1 -1 -1 3)
1969/12/31/18:00:40.509,(-11 -26 2 11 5 1 -2 -4)
1969/12/31/18:00:40.521,(25 41 6 -2 2 0 7 7)
1969/12/31/18:00:40.521,(-1 3 -5 -26 -14 -4 -6 -6)
1969/12/31/18:00:40.530,(6 -16 3 33 18 6 11 15)
1969/12/31/18:00:40.530,(20 32 12 15 12 13 13 9)
1969/12/31/18:00:40.544,(-13 -30 -5 6 2 -6 -12 -13)
1969/12/31/18:00:40.544,(-4 -9 -6 -16 -11 -8 -3 0)
1969/12/31/18:00:40.546,(-11 -1 -4 -15 -8 -2 -1 -9)
1969/12/31/18:00:40.546,(-10 -8 -5 -5 -6 -4 1 11)
1969/12/31/18:00:40.567,(17 1 -10 -12 -3 -4 -3 5)
1969/12/31/18:00:40.567,(11 3 -3 6 5 2 -1 5)
1969/12/31/18:00:40.569,(-16 -20 -3 -5 -3 -1 -3 -10)
1969/12/31/18:00:40.569,(8 9 -5 -3 -8 -8 -9 -3)
1969/12/31/18:00:40.581,(-24 0 8 -1 -2 -1 0 -8)
1969/12/31/18:00:40.581,(6 11 -12 -3 -6 -8 -7 6)
1969/12/31/18:00:40.590,(7 19 20 15 9 7 -5 -19)
1969/12/31/18:00:40.590,(-9 -16 -4 -5 -4 -5 -5 -8)
1969/12/31/18:00:40.604,(10 8 -2 -2 -1 3 5 8)
1969/12/31/18:00:40.604,(-38 -36 0 9 0 -6 -10 -22)
1969/12/31/18:00:40.604,(40 36 4 -6 3 10 25 42)
1969/12/31/18:00:40.605,(0 14 -3 -9 -5 2 1 -7)
1969/12/31/18:00:40.634,(-32 -43 -5 2 -5 -8 -14 -20)
1969/12/31/18:00:40.634,(18 10 -1 7 9 6 8 15)
1969/12/31/18:00:40.635,(-36 -3 3 -5 -7 -5 -2 -15)
1969/12/31/18:00:40.635,(12 -11 -2 -2 5 4 -1 1)
1969/12/31/18:00:40.649,(10 19 -5 -2 -4 -4 0 5)
1969/12/31/18:00:40.649,(-13 -17 4 6 1 2 -6 -15)
1969/12/31/18:00:40.650,(5 8 1 -4 -4 -4 -6 0)
1969/12/31/18:00:40.650,(5 -6 -5 -7 -1 2 6 15)
1969/12/31/18:00:40.664,(-23 -13 6 1 -7 -9 -8 -12)
1969/12/31/18:00:40.664,(30 22 3 7 7 7 14 14)
1969/12/31/18:00:40.664,(-37 -53 -17 -19 -22 -18 -22 -21)
1969/12/31/18:00:40.665,(4 31 11 19 16 8 4 -3)
1969/12/31/18:00:40.686,(3 6 2 4 6 4 0 -1)
1969/12/31/18:00:40.686,(5 -3 5 3 6 11 13 12)
1969/12/31/18:00:40.687,(42 29 0 -4 1 3 11 24)
1969/12/31/18:00:40.687,(-27 -17 -9 -12 -12 -11 -16 -22)
1969/12/31/18:00:40.709,(24 23 -2 -6 -3 -1 2 10)
1969/12/31/18:00:40.709,(-3 -11 3 1 1 2 2 3)
1969/12/31/18:00:40.710,(-50 -57 -4 6 2 2 0 -9)
1969/12/31/18:00:40.710,(74 89 8 -5 3 7 13 30)
1969/12/31/18:00:40.732,(-3 -16 -9 -4 0 -2 -6 -10)
1969/12/31/18:00:40.732,(-34 -19 -5 -3 -14 -17 -20 -24)
1969/12/31/18:00:40.733,(12 1 9 5 8 9 11 11)
1969/12/31/18:00:40.733,(-3 2 2 10 9 9 9 3)
1969/12/31/18:00:40.746,(-45 -44 -9 -5 -5 -5 -8 -11)
1969/12/31/18:00:40.746,(54 50 11 1 -1 1 9 15)
1969/12/31/18:00:40.747,(-1 7 -13 -7 -7 -6 -7 -6)
1969/12/31/18:00:40.747,(32 14 16 6 6 14 21 27)
1969/12/31/18:00:40.769,(-12 -8 -5 -2 -4 -4 -9 -10)
1969/12/31/18:00:40.769,(-21 -13 -3 -5 -6 -5 -6 -7)
1969/12/31/18:00:40.770,(32 23 6 5 6 6 11 19)
1969/12/31/18:00:40.770,(-48 -20 -6 6 -7 -17 -21 -30)
1969/12/31/18:00:40.784,(47 26 24 8 17 25 34 34)
1969/12/31/18:00:40.784,(-22 -26 -4 1 -2 -2 -2 -7)
1969/12/31/18:00:40.784,(6 21 -3 -5 -6 -4 -9 -10)
1969/12/31/18:00:40.784,(-22 -41 -19 -24 -16 -12 -11 -7)
1969/12/31/18:00:40.808,(-1 9 1 -3 -2 -2 -6 -9)
1969/12/31/18:00:40.808,(-14 7 6 23 11 -1 -7 -7)
1969/12/31/18:00:40.808,(12 11 8 22 12 11 14 16)
1969/12/31/18:00:40.808,(-5 -28 -2 5 9 3 1 -2)
1969/12/31/18:00:40.829,(8 20 -3 -5 -10 -7 -8 -7)
1969/12/31/18:00:40.829,(14 15 -7 -24 -8 -2 3 8)
1969/12/31/18:00:40.830,(-23 -11 0 -6 -11 -13 -24 -36)
1969/12/31/18:00:40.830,(-20 -13 -2 -7 -8 -5 -6 -10)
1969/12/31/18:00:40.844,(18 -5 -9 0 3 5 8 16)
1969/12/31/18:00:40.844,(-15 -5 1 4 2 0 -2 -11)
1969/12/31/18:00:40.845,(-7 -24 -1 -6 -3 -6 -2 7)
1969/12/31/18:00:40.845,(16 23 8 2 2 0 0 -1)
1969/12/31/18:00:40.866,(-22 -24 -12 -2 -6 -7 -4 -3)
1969/12/31/18:00:40.866,(15 8 -2 1 6 6 0 -3)
1969/12/31/18:00:40.867,(-20 -23 -11 1 -1 -2 -5 -9)
1969/12/31/18:00:40.867,(3 -13 5 -4 1 5 11 14)
1969/12/31/18:00:40.881,(19 33 6 3 3 3 5 13)
1969/12/31/18:00:40.881,(-28 -26 -6 -1 -9 -14 -24 -31)
1969/12/31/18:00:40.889,(62 52 7 -3 11 16 27 40)
1969/12/31/18:00:40.889,(-21 -27 -14 -5 -9 -14 -21 -16)
1969/12/31/18:00:40.904,(-13 -8 1 4 -4 -11 -13 -14)
1969/12/31/18:00:40.904,(20 19 10 0 6 13 16 17)
1969/12/31/18:00:40.905,(-31 -68 -11 -2 -4 -5 0 3)
1969/12/31/18:00:40.905,(56 80 6 -7 4 8 7 12)
1969/12/31/18:00:40.926,(-14 -20 -2 -1 -1 -3 -4 -6)
1969/12/31/18:00:40.926,(22 22 -5 -2 0 4 6 14)
1969/12/31/18:00:40.927,(-17 -9 4 5 8 7 2 -7)
1969/12/31/18:00:40.927,(-24 -16 2 5 -4 -6 -5 -12)
1969/12/31/18:00:40.949,(17 12 4 -7 0 4 6 6)
1969/12/31/18:00:40.949,(-40 -45 -4 2 -6 -12 -16 -21)
1969/12/31/18:00:40.950,(28 64 5 4 1 3 7 15)
1969/12/31/18:00:40.950,(14 10 2 -3 3 8 12 20)
1969/12/31/18:00:40.964,(-17 -16 -5 1 -2 -9 -17 -27)
1969/12/31/18:00:40.964,(2 -9 -8 -11 -8 -5 -2 10)
1969/12/31/18:00:40.965,(2 14 7 -2 2 4 1 -6)
1969/12/31/18:00:40.965,(15 -3 0 5 -1 1 6 20)
1969/12/31/18:00:40.986,(-20 -26 -11 -3 -4 -8 -10 -11)
1969/12/31/18:00:40.986,(9 27 8 4 8 11 12 3)
1969/12/31/18:00:40.987,(-9 0 -2 -3 -2 -3 -11 -17)
1969/12/31/18:00:40.987,(2 1 -5 -6 -4 -1 1 -2)
1969/12/31/18:00:41.009,(-21 -28 0 3 0 -1 -3 0)
1969/12/31/18:00:41.009,(7 9 4 5 -3 -2 2 3)
1969/12/31/18:00:41.010,(7 6 -4 -12 -4 -4 -1 2)
1969/12/31/18:00:41.010,(-4 -4 4 4 0 1 0 -6)
1969/12/31/18:00:41.024,(19 7 2 1 1 3 12 24)
1969/12/31/18:00:41.024,(-23 -16 -2 0 -1 -5 -15 -29)
1969/12/31/18:00:41.025,(22 28 -2 -2 -7 -6 -1 12)
1969/12/31/18:00:41.025,(-3 -13 1 -2 5 3 -2 -3)
1969/12/31/18:00:41.046,(-4 1 -3 1 -2 1 1 -2)
1969/12/31/18:00:41.046,(9 13 5 3 6 9 17 20)
1969/12/31/18:00:41.047,(-8 -22 -6 -4 0 -2 -3 -6)
1969/12/31/18:00:41.047,(-37 -39 -11 0 -8 -14 -21 -26)
1969/12/31/18:00:41.077,(33 47 16 -2 4 9 12 16)
1969/12/31/18:00:41.077,(-12 -29 1 5 1 -1 1 -2)
1969/12/31/18:00:41.078,(6 15 -1 1 2 4 4 3)
1969/12/31/18:00:41.078,(13 19 4 -1 -3 -5 -2 3)
1969/12/31/18:00:41.084,(-11 5 4 0 1 4 1 -11)
1969/12/31/18:00:41.084,(-2 -10 -5 -2 1 0 2 7)
1969/12/31/18:00:41.085,(-18 -30 -1 6 -2 -10 -17 -18)
1969/12/31/18:00:41.085,(14 33 1 -6 0 3 8 6)
1969/12/31/18:00:41.106,(8 -9 -1 4 4 5 4 6)
1969/12/31/18:00:41.106,(2 1 -2 -5 -5 -1 0 -3)
1969/12/31/18:00:41.107,(-23 -15 -2 0 -4 -7 -10 -14)
1969/12/31/18:00:41.107,(13 -15 -8 -11 -7 -2 8 19)
1969/12/31/18:00:41.129,(-31 -36 -1 0 1 -4 -13 -20)
1969/12/31/18:00:41.129,(14 29 1 4 3 4 1 -2)
1969/12/31/18:00:41.130,(-9 -9 -5 1 4 2 0 -4)
1969/12/31/18:00:41.130,(-16 -21 -4 -4 -7 -9 -14 -14)
1969/12/31/18:00:41.144,(40 41 8 -1 6 13 21 29)
1969/12/31/18:00:41.144,(21 26 -2 -3 -3 -5 -7 2)
1969/12/31/18:00:41.144,(-17 -6 7 -1 -1 1 2 1)
1969/12/31/18:00:41.145,(0 -13 -2 5 2 0 -1 -6)
1969/12/31/18:00:41.166,(-1 -1 -4 -4 -2 -2 0 0)
1969/12/31/18:00:41.166,(-28 -22 -4 -6 -13 -15 -16 -17)
1969/12/31/18:00:41.167,(37 22 2 1 12 18 22 30)
1969/12/31/18:00:41.167,(4 9 -1 4 9 6 3 -2)
1969/12/31/18:00:41.190,(-29 -27 -5 -2 -1 -3 -6 -17)
1969/12/31/18:00:41.190,(6 5 -1 1 3 3 4 4)
1969/12/31/18:00:41.190,(-22 -20 -6 -3 -8 -11 -15 -24)
1969/12/31/18:00:41.190,(-22 -36 -4 -1 -2 -4 -6 -5)
1969/12/31/18:00:41.204,(3 29 -10 -6 -5 -6 1 0)
1969/12/31/18:00:41.204,(43 35 7 4 6 6 11 34)
1969/12/31/18:00:41.204,(-26 -37 -14 -11 -8 -11 -19 -33)
1969/12/31/18:00:41.204,(-31 -18 -8 -1 -6 -10 -14 -24)
1969/12/31/18:00:41.226,(20 14 4 7 7 8 10 17)
1969/12/31/18:00:41.226,(-5 -15 0 -5 3 9 15 14)
1969/12/31/18:00:41.227,(20 18 5 2 1 3 7 14)
1969/12/31/18:00:41.227,(-4 5 2 4 -2 -2 -3 -6)
1969/12/31/18:00:41.250,(-19 -19 -8 -3 -7 -7 -11 -12)
1969/12/31/18:00:41.250,(-30 -23 -2 -3 -8 -11 -10 -17)
1969/12/31/18:00:41.250,(62 49 11 5 19 24 34 46)
1969/12/31/18:00:41.250,(-9 -6 -2 -3 -3 -4 -7 -13)
1969/12/31/18:00:41.264,(-5 2 -3 2 -2 -4 -8 -11)
1969/12/31/18:00:41.264,(2 -11 3 1 3 5 5 7)
1969/12/31/18:00:41.264,(-60 -33 -9 0 -8 -11 -21 -36)
1969/12/31/18:00:41.264,(20 40 6 -2 -6 -3 -2 11)
1969/12/31/18:00:41.286,(12 -3 -2 0 5 3 3 2)
1969/12/31/18:00:41.286,(13 7 -3 -4 -1 3 4 7)
1969/12/31/18:00:41.287,(-22 -20 -8 -1 -6 -9 -10 -16)
1969/12/31/18:00:41.287,(11 8 3 0 3 5 8 12)
1969/12/31/18:00:41.309,(-31 -7 6 0 -14 -17 -21 -27)
1969/12/31/18:00:41.309,(6 11 -1 -3 -4 -3 1 2)
1969/12/31/18:00:41.310,(28 51 14 8 11 16 16 14)
1969/12/31/18:00:41.310,(9 -1 3 1 4 3 1 3)
1969/12/31/18:00:41.324,(12 12 4 -1 -5 -3 0 6)
1969/12/31/18:00:41.324,(-23 -16 -6 -6 -10 -14 -17 -23)
1969/12/31/18:00:41.324,(23 -5 -1 -1 2 4 12 23)
1969/12/31/18:00:41.324,(17 40 4 3 8 13 17 13)
1969/12/31/18:00:41.346,(-10 -9 3 2 -1 1 -5 -7)
1969/12/31/18:00:41.346,(5 -4 0 0 1 3 3 5)
1969/12/31/18:00:41.347,(-10 -3 -10 -9 -10 -12 -14 -16)
1969/12/31/18:00:41.347,(-29 -30 -3 5 0 0 0 -4)
1969/12/31/18:00:41.369,(9 -3 -2 -5 4 5 1 -4)
1969/12/31/18:00:41.370,(-19 -32 -1 8 9 10 11 7)
1969/12/31/18:00:41.370,(100 68 8 2 9 14 20 47)
1969/12/31/18:00:41.370,(-38 -36 -9 -2 -7 -11 -18 -28)
1969/12/31/18:00:41.384,(-15 -12 -5 0 -6 -6 -4 -3)
1969/12/31/18:00:41.384,(15 17 3 -5 1 3 9 10)
1969/12/31/18:00:41.384,(-26 -22 -2 1 -5 -14 -19 -20)
1969/12/31/18:00:41.384,(12 11 -3 -4 1 6 8 8)
1969/12/31/18:00:41.406,(13 3 2 2 2 0 7 14)
1969/12/31/18:00:41.406,(-33 -21 -6 -9 -21 -26 -29 -32)
1969/12/31/18:00:41.407,(46 37 11 6 27 40 55 59)
1969/12/31/18:00:41.407,(-16 -20 -10 -2 -4 -8 -14 -22)
1969/12/31/18:00:41.430,(-16 -11 -5 -1 -4 -6 -8 -8)
1969/12/31/18:00:41.430,(22 17 5 -1 5 9 9 11)
1969/12/31/18:00:41.430,(-45 -40 -5 0 -18 -21 -24 -30)
1969/12/31/18:00:41.430,(-14 -13 3 -3 -1 -1 1 -2)
1969/12/31/18:00:41.452,(44 20 9 10 13 17 24 40)
1969/12/31/18:00:41.452,(-4 24 1 -2 5 8 3 -11)
1969/12/31/18:00:41.453,(-20 -24 -8 -5 -7 -10 -12 -16)
1969/12/31/18:00:41.453,(-2 -7 1 1 0 -2 -1 -1)
1969/12/31/18:00:41.466,(-16 -10 -2 -8 -10 -12 -10 -10)
1969/12/31/18:00:41.466,(14 8 0 3 5 5 10 15)
1969/12/31/18:00:41.467,(-3 -6 -3 -1 -3 -3 -1 0)
1969/12/31/18:00:41.467,(-6 -1 -4 -1 0 -3 -6 -7)
1969/12/31/18:00:41.489,(7 18 6 -5 -2 -2 1 3)
1969/12/31/18:00:41.489,(-2 -7 -3 0 -2 -4 -5 -3)
1969/12/31/18:00:41.490,(-26 -14 -2 -2 -11 -16 -21 -27)
1969/12/31/18:00:41.490,(35 15 8 2 11 16 32 44)
1969/12/31/18:00:41.504,(21 44 0 3 5 5 -3 -9)
1969/12/31/18:00:41.504,(-18 -24 -7 3 -1 -5 -10 -14)
1969/12/31/18:00:41.505,(-6 -10 5 1 -1 0 -2 -4)
1969/12/31/18:00:41.505,(-29 -25 -7 -1 -8 -10 -17 -24)
1969/12/31/18:00:41.526,(0 -4 0 -3 -1 -3 2 9)
1969/12/31/18:00:41.526,(33 26 -1 2 11 16 16 20)
1969/12/31/18:00:41.527,(-1 1 -1 -8 -4 -3 -3 -3)
1969/12/31/18:00:41.527,(-6 -5 -1 5 -2 -2 -3 -6)
1969/12/31/18:00:41.549,(-9 -13 -3 -2 0 1 2 2)
1969/12/31/18:00:41.549,(8 12 3 0 -6 -8 -6 0)
1969/12/31/18:00:41.550,(-7 -1 -1 1 -1 -5 -6 -5)
1969/12/31/18:00:41.550,(1 3 0 -3 1 -1 -3 -4)
1969/12/31/18:00:41.564,(-7 -8 -6 -1 0 0 -3 -5)
1969/12/31/18:00:41.564,(-21 -54 -5 1 -4 -6 -10 -8)
1969/12/31/18:00:41.564,(19 33 8 3 2 10 21 22)
1969/12/31/18:00:41.564,(17 34 2 -6 -3 -5 -11 -12)
1969/12/31/18:00:41.594,(-16 -16 -5 2 -1 -8 -13 -15)
1969/12/31/18:00:41.594,(-16 -19 -2 6 3 0 -2 -6)
1969/12/31/18:00:41.595,(5 5 4 -4 -4 -1 -3 3)
1969/12/31/18:00:41.595,(0 0 0 -6 -6 -3 0 3)
1969/12/31/18:00:41.609,(16 4 -1 -21 -6 7 12 15)
1969/12/31/18:00:41.609,(5 14 -2 7 -7 -2 -2 -3)
1969/12/31/18:00:41.610,(-28 -18 -2 16 13 -8 -11 -20)
1969/12/31/18:00:41.610,(23 20 10 12 19 15 17 23)
1969/12/31/18:00:41.624,(-1 -1 5 11 11 8 1 -3)
1969/12/31/18:00:41.624,(-29 -11 -6 -16 -15 -10 -13 -16)
1969/12/31/18:00:41.625,(22 9 0 -10 -4 7 10 14)
1969/12/31/18:00:41.625,(-11 -17 -3 -1 -5 -7 -5 -6)
1969/12/31/18:00:41.646,(3 1 -4 1 -2 -2 2 4)
1969/12/31/18:00:41.646,(-3 5 0 -5 -4 -4 0 0)
1969/12/31/18:00:41.647,(-9 -9 -6 -3 -4 -3 -7 -7)
1969/12/31/18:00:41.647,(1 2 -1 -4 -1 -1 0 -1)
1969/12/31/18:00:41.670,(-7 -4 2 2 0 1 3 1)
1969/12/31/18:00:41.670,(13 8 -1 5 12 11 7 9)
1969/12/31/18:00:41.670,(-6 -13 -4 -1 -2 -3 -3 -5)
1969/12/31/18:00:41.670,(9 6 4 -1 -2 3 7 11)
1969/12/31/18:00:41.683,(-2 8 3 6 -1 0 0 -4)
1969/12/31/18:00:41.683,(-2 -4 1 -4 -3 -9 -9 -2)
1969/12/31/18:00:41.691,(-8 -5 -8 -3 -3 -2 -7 -15)
1969/12/31/18:00:41.691,(-11 -11 -2 2 -3 -4 -6 -6)
1969/12/31/18:00:41.706,(-8 -7 -7 1 -2 -4 -3 -3)
1969/12/31/18:00:41.706,(-5 -15 5 -1 5 6 8 3)
1969/12/31/18:00:41.707,(32 32 5 4 4 7 10 17)
1969/12/31/18:00:41.707,(-4 -5 -3 -2 -6 -5 -5 -2)
1969/12/31/18:00:41.730,(1 1 -2 1 -1 -6 -7 -5)
1969/12/31/18:00:41.730,(0 1 -4 -1 2 0 0 -3)
1969/12/31/18:00:41.730,(-6 -9 0 -3 0 4 5 3)
1969/12/31/18:00:41.730,(15 13 8 5 5 10 9 12)
1969/12/31/18:00:41.743,(8 2 -1 -3 -3 -2 0 2)
1969/12/31/18:00:41.743,(-2 8 5 4 0 -2 -5 -3)
1969/12/31/18:00:41.751,(-9 -7 -4 -3 -3 -6 -5 -5)
1969/12/31/18:00:41.751,(-12 -13 -7 2 1 -2 -2 -8)
1969/12/31/18:00:41.766,(27 28 -1 -12 -3 1 5 19)
1969/12/31/18:00:41.766,(-25 -9 1 1 -1 -7 -15 -27)
1969/12/31/18:00:41.767,(-32 -42 -6 -7 -5 -7 -5 -5)
1969/12/31/18:00:41.767,(46 53 6 -6 -5 -2 5 17)
1969/12/31/18:00:41.790,(-22 -16 -6 8 3 -5 -7 -15)
1969/12/31/18:00:41.790,(0 -2 -3 2 1 -1 -1 2)
1969/12/31/18:00:41.790,(16 18 7 3 4 4 2 3)
1969/12/31/18:00:41.790,(-30 -28 -6 -5 -3 -5 -10 -16)
1969/12/31/18:00:41.803,(-1 -2 -4 -20 -14 -2 4 4)
1969/12/31/18:00:41.803,(21 16 -1 -18 -5 0 3 11)
1969/12/31/18:00:41.811,(-22 -16 -10 -18 -15 -11 -9 -13)
1969/12/31/18:00:41.811,(9 4 8 49 15 8 8 10)
1969/12/31/18:00:41.826,(-10 -7 15 47 36 8 -3 -10)
1969/12/31/18:00:41.826,(15 12 11 21 25 17 14 12)
1969/12/31/18:00:41.827,(-5 0 -5 -29 -23 -13 -11 -9)
1969/12/31/18:00:41.827,(-1 -6 -11 -29 -17 -6 -1 -1)
1969/12/31/18:00:41.849,(9 -7 -13 -20 -6 3 6 9)
1969/12/31/18:00:41.849,(-5 -3 -1 -47 -32 -14 -3 -3)
1969/12/31/18:00:41.850,(7 12 17 43 -9 7 10 6)
1969/12/31/18:00:41.850,(6 4 -19 21 25 -11 -11 0)
1969/12/31/18:00:41.863,(-16 -24 -6 -2 9 0 -4 -9)
1969/12/31/18:00:41.863,(9 12 12 -5 -5 11 12 8)
1969/12/31/18:00:41.871,(-4 -9 -10 19 20 5 1 -3)
1969/12/31/18:00:41.872,(-13 -10 -2 -28 -10 6 -2 -6)
1969/12/31/18:00:41.886,(2 4 9 30 14 3 -1 1)
1969/12/31/18:00:41.886,(5 7 -15 1 19 -7 -5 1)
1969/12/31/18:00:41.887,(4 7 32 18 1 1 1 1)
1969/12/31/18:00:41.887,(-8 -5 -9 -31 -13 3 3 -7)
1969/12/31/18:00:41.917,(16 10 -4 -17 -12 -2 6 12)
1969/12/31/18:00:41.917,(-1 -2 0 3 -21 -8 -5 -7)
1969/12/31/18:00:41.918,(-1 -2 -1 5 15 6 2 2)
1969/12/31/18:00:41.918,(-7 -13 -26 -13 -8 -14 -9 -4)
1969/12/31/18:00:41.923,(-11 -9 1 -44 -32 -16 -11 -10)
1969/12/31/18:00:41.923,(-3 -1 -7 3 -8 -3 2 -1)
1969/12/31/18:00:41.931,(9 8 -4 12 6 0 -2 5)
1969/12/31/18:00:41.931,(-1 -2 1 -58 -11 6 4 0)
1969/12/31/18:00:41.946,(10 14 21 81 31 12 7 6)
1969/12/31/18:00:41.946,(3 3 25 82 37 11 2 3)
1969/12/31/18:00:41.947,(-5 -1 2 -47 -14 0 -2 -5)
1969/12/31/18:00:41.947,(2 -1 -10 29 2 -4 -1 2)
1969/12/31/18:00:41.971,(-5 -7 -5 -43 -26 -5 -3 -2)
1969/12/31/18:00:41.971,(1 0 -5 -1 13 -1 0 2)
1969/12/31/18:00:41.973,(1 1 -2 7 -1 -1 -2 -2)
1969/12/31/18:00:41.973,(1 -6 -7 -34 -14 -5 -2 -1)
1969/12/31/18:00:41.992,(-4 -9 -12 -20 -8 -5 -2 -3)
1969/12/31/18:00:41.992,(-5 -3 3 0 -5 -3 -2 -3)
1969/12/31/18:00:41.994,(-1 -1 -6 0 7 0 2 2)
1969/12/31/18:00:41.994,(2 11 39 40 7 6 3 1)
1969/12/31/18:00:42.006,(4 4 -17 -3 6 4 0 0)
1969/12/31/18:00:42.006,(1 -9 -19 -30 -24 -4 -1 2)
1969/12/31/18:00:42.015,(-10 -5 1 -2 3 -4 -8 -7)
1969/12/31/18:00:42.015,(-2 1 9 20 7 2 -1 -1)
1969/12/31/18:00:42.029,(4 5 6 0 4 8 6 4)
1969/12/31/18:00:42.029,(4 -1 -5 -1 5 -1 -3 1)
1969/12/31/18:00:42.031,(-5 -7 -14 -13 -4 -3 -2 -2)
1969/12/31/18:00:42.031,(-4 -2 7 -2 -6 -1 1 -4)
1969/12/31/18:00:42.053,(2 5 4 9 2 3 3 1)
1969/12/31/18:00:42.053,(0 -2 -3 4 10 -3 -5 1)
1969/12/31/18:00:42.054,(-4 -1 11 4 0 1 -1 -4)
1969/12/31/18:00:42.054,(3 -1 -4 13 9 -3 0 2)
1969/12/31/18:00:42.066,(-3 -3 -7 -21 -14 0 -1 -2)
1969/12/31/18:00:42.066,(3 0 4 12 6 2 2 1)
1969/12/31/18:00:42.074,(-9 -9 -1 -19 -10 -8 -6 -5)
1969/12/31/18:00:42.074,(0 4 -11 -10 -10 1 3 2)
1969/12/31/18:00:42.089,(5 0 3 -1 -4 -5 0 3)
1969/12/31/18:00:42.089,(-4 2 0 -2 -1 1 -3 -3)
1969/12/31/18:00:42.091,(4 1 -4 5 10 5 4 2)
1969/12/31/18:00:42.091,(2 3 6 8 -2 -1 2 1)
1969/12/31/18:00:42.112,(2 3 1 28 30 10 4 3)
1969/12/31/18:00:42.112,(-4 -1 6 -19 -12 -1 0 -3)
1969/12/31/18:00:42.114,(4 2 -17 -18 -9 0 2 4)
1969/12/31/18:00:42.114,(3 1 10 21 7 0 1 2)
1969/12/31/18:00:42.126,(-7 -3 12 -4 -6 -1 -2 -4)
1969/12/31/18:00:42.126,(-3 -2 0 2 0 -5 -3 -2)
1969/12/31/18:00:42.135,(-2 -5 -12 -10 -6 -4 -3 0)
1969/12/31/18:00:42.135,(-3 -4 -1 -8 0 2 -1 -2)
1969/12/31/18:00:42.157,(0 4 -3 0 -5 -3 0 0)
1969/12/31/18:00:42.157,(5 2 -7 -8 -8 3 3 3)
1969/12/31/18:00:42.163,(4 2 13 24 16 3 4 5)
1969/12/31/18:00:42.163,(-15 -6 -10 -33 -8 -3 -7 -9)
1969/12/31/18:00:42.172,(4 1 5 23 9 2 2 5)
1969/12/31/18:00:42.172,(-9 -7 -14 -34 -16 -4 -2 -6)
1969/12/31/18:00:42.174,(11 9 -2 25 8 6 2 6)
1969/12/31/18:00:42.174,(3 -1 15 4 5 5 4 3)
1969/12/31/18:00:42.186,(-9 -2 11 -17 -15 -11 -8 -9)
1969/12/31/18:00:42.186,(12 -5 -32 -26 -8 2 6 7)
1969/12/31/18:00:42.195,(-2 4 20 34 18 7 2 -1)
1969/12/31/18:00:42.195,(-6 1 -4 -29 -17 -16 -10 -4)
1969/12/31/18:00:42.210,(1 -5 -3 17 10 4 -3 -3)
1969/12/31/18:00:42.210,(-1 5 20 4 0 1 0 -1)
1969/12/31/18:00:42.211,(3 -1 -15 -14 -20 -9 -3 1)
1969/12/31/18:00:42.211,(-3 -8 3 29 20 6 3 1)
1969/12/31/18:00:42.232,(-5 -3 -6 -24 -15 -7 -3 -5)
1969/12/31/18:00:42.232,(2 12 13 8 3 2 0 1)
1969/12/31/18:00:42.234,(2 -17 -31 -23 -6 -3 3 4)
1969/12/31/18:00:42.234,(-4 5 11 13 3 -3 -8 -9)
1969/12/31/18:00:42.246,(8 -3 -17 -7 -2 -1 5 8)
1969/12/31/18:00:42.246,(-4 -3 4 12 8 3 -1 -3)
1969/12/31/18:00:42.255,(-4 1 11 3 -2 -3 -4 -6)
1969/12/31/18:00:42.255,(4 5 3 6 -4 -1 0 -1)
1969/12/31/18:00:42.269,(0 -1 0 -2 4 3 2 -1)
1969/12/31/18:00:42.269,(-10 -3 13 17 3 -3 -6 -8)
1969/12/31/18:00:42.271,(7 3 -7 -8 -3 0 3 5)
1969/12/31/18:00:42.271,(-2 -3 -8 -6 0 4 -1 -1)
1969/12/31/18:00:42.292,(0 4 1 -4 -1 3 -1 0)
1969/12/31/18:00:42.292,(9 0 -14 -5 -6 -1 4 6)
1969/12/31/18:00:42.294,(-11 -8 8 -4 -3 -5 -9 -13)
1969/12/31/18:00:42.294,(2 4 11 20 8 -1 -2 1)
1969/12/31/18:00:42.306,(1 2 -2 -5 -5 -2 -1 1)
1969/12/31/18:00:42.306,(-1 -2 2 5 2 -1 -1 -1)
1969/12/31/18:00:42.315,(-7 -3 4 -5 -1 -4 -5 -6)
1969/12/31/18:00:42.315,(6 2 -9 -6 -4 2 5 7)
1969/12/31/18:00:42.329,(0 -4 -5 0 2 0 -2 -1)
1969/12/31/18:00:42.329,(4 1 -5 -5 -1 3 1 5)
1969/12/31/18:00:42.331,(-2 -1 -2 -4 0 0 -3 -1)
1969/12/31/18:00:42.331,(1 -4 0 0 0 1 0 0)
1969/12/31/18:00:42.352,(-5 -1 9 6 1 -5 -3 -3)
1969/12/31/18:00:42.352,(0 4 0 -1 2 1 0 -1)
1969/12/31/18:00:42.354,(0 -1 -1 3 4 3 3 3)
1969/12/31/18:00:42.354,(1 -2 -4 2 3 0 3 2)
1969/12/31/18:00:42.366,(2 3 -1 -7 -4 0 0 2)
1969/12/31/18:00:42.366,(0 0 3 -1 -3 -5 -2 -2)
1969/12/31/18:00:42.375,(-3 -1 -1 -5 -6 -3 -1 0)
1969/12/31/18:00:42.375,(-3 -5 -3 -2 6 0 -1 -4)
1969/12/31/18:00:42.389,(-4 -7 -7 -7 -12 -5 -5 -6)
1969/12/31/18:00:42.389,(-1 -1 -3 -11 7 -4 1 2)
1969/12/31/18:00:42.391,(8 10 13 31 13 11 9 6)
1969/12/31/18:00:42.391,(-4 1 7 20 18 6 0 0)
1969/12/31/18:00:42.412,(-3 0 -1 3 5 1 -1 0)
1969/12/31/18:00:42.412,(-5 -7 -2 -3 -8 -5 -4 -4)
1969/12/31/18:00:42.414,(0 -1 -12 -24 -16 -6 -1 -1)
1969/12/31/18:00:42.414,(-4 -3 -1 -7 -13 -5 0 -2)
1969/12/31/18:00:42.426,(4 1 -5 1 3 2 4 3)
1969/12/31/18:00:42.426,(0 -1 -4 -3 -3 0 -1 0)
1969/12/31/18:00:42.435,(-5 -5 -3 0 4 1 -1 -1)
1969/12/31/18:00:42.435,(4 4 3 2 -2 1 3 3)
1969/12/31/18:00:42.450,(-4 -2 1 -4 -3 -2 -5 -6)
1969/12/31/18:00:42.450,(4 3 4 10 4 5 3 5)
1969/12/31/18:00:42.451,(1 1 5 -2 -2 -5 -4 -2)
1969/12/31/18:00:42.451,(-1 -1 -5 -10 -8 -3 -4 -5)
1969/12/31/18:00:42.472,(7 4 -3 4 10 6 3 5)
1969/12/31/18:00:42.472,(-4 1 11 6 3 4 -3 -2)
1969/12/31/18:00:42.474,(-4 -5 0 1 3 0 -3 -3)
1969/12/31/18:00:42.474,(-1 -3 -2 -8 -7 0 0 -1)
1969/12/31/18:00:42.486,(-1 0 -1 0 -4 -5 0 -4)
1969/12/31/18:00:42.486,(2 0 -5 5 2 1 0 1)
1969/12/31/18:00:42.495,(-1 -1 -1 -3 0 -4 -1 -2)
1969/12/31/18:00:42.495,(1 1 -4 -1 -2 0 0 0)
1969/12/31/18:00:42.509,(-6 -5 1 2 0 -3 -8 -5)
1969/12/31/18:00:42.509,(7 7 3 3 3 2 9 7)
1969/12/31/18:00:42.511,(-3 -3 -3 -4 -3 -1 -3 -4)
1969/12/31/18:00:42.511,(1 0 -4 -2 0 0 0 1)
1969/12/31/18:00:42.532,(-2 -2 1 2 2 -1 1 -3)
1969/12/31/18:00:42.532,(-3 -3 -1 -1 -3 -3 -2 -3)
1969/12/31/18:00:42.533,(-1 4 -1 -4 -2 -3 -2 -3)
1969/12/31/18:00:42.533,(0 -4 -2 0 2 2 0 1)
1969/12/31/18:00:42.545,(1 -2 2 -2 0 0 -1 0)
1969/12/31/18:00:42.545,(-1 -2 -3 -1 -1 -1 0 -2)
1969/12/31/18:00:42.554,(4 3 -1 0 1 1 1 2)
1969/12/31/18:00:42.554,(-1 -1 -2 0 0 -1 -3 -2)
