time,.data
1969/12/31/18:00:38.589,(-7 -10 -15 -2 -5 8 14 -3)
1969/12/31/18:00:38.589,(-1 0 -16 -31 -7 -11 -6 -2)
1969/12/31/18:00:38.590,(2 10 34 59 17 -1 -4 2)
1969/12/31/18:00:38.590,(-2 -3 2 -30 -14 2 -6 -1)
1969/12/31/18:00:38.602,(-2 -3 -2 -2 -20 -1 0 1)
1969/12/31/18:00:38.602,(-1 -8 -15 -18 11 2 4 -1)
1969/12/31/18:00:38.611,(-6 -6 -25 -27 -24 8 6 -4)
1969/12/31/18:00:38.611,(0 1 13 37 23 -10 -12 -1)
1969/12/31/18:00:38.626,(2 1 -13 -30 -16 -11 5 2)
1969/12/31/18:00:38.626,(1 1 13 22 25 13 7 4)
1969/12/31/18:00:38.626,(2 4 -1 27 0 -12 -1 2)
1969/12/31/18:00:38.626,(0 3 16 -1 -5 13 -31 -11)
1969/12/31/18:00:38.649,(0 -5 2 11 17 7 15 3)
1969/12/31/18:00:38.649,(-6 -8 -21 -34 -27 -14 -23 -7)
1969/12/31/18:00:38.650,(-2 -6 -24 -2 1 0 1 -6)
1969/12/31/18:00:38.650,(6 15 23 4 -6 -9 11 4)
1969/12/31/18:00:38.663,(-2 4 19 19 3 3 -2 0)
1969/12/31/18:00:38.663,(-5 -8 -14 -17 3 5 -3 -3)
1969/12/31/18:00:38.671,(-7 -15 -5 -21 -3 -4 0 -1)
1969/12/31/18:00:38.671,(2 -7 -58 -46 -31 -7 11 12)
1969/12/31/18:00:38.694,(6 23 73 55 42 11 -6 -5)
1969/12/31/18:00:38.694,(-14 -10 8 -15 -38 -10 -13 -19)
1969/12/31/18:00:38.695,(5 8 8 20 9 -1 -5 -4)
1969/12/31/18:00:38.695,(0 -7 -17 12 -8 1 11 5)
1969/12/31/18:00:38.709,(-15 -30 -62 -69 -8 -8 -5 -8)
1969/12/31/18:00:38.709,(12 23 -8 38 12 12 10 14)
1969/12/31/18:00:38.710,(10 27 112 91 38 20 10 10)
1969/12/31/18:00:38.710,(-6 -2 -6 -16 -9 -7 -10 -11)
1969/12/31/18:00:38.722,(1 -6 -53 -68 -35 -16 -7 -3)
1969/12/31/18:00:38.722,(-5 -2 2 3 -16 -9 -5 -5)
1969/12/31/18:00:38.731,(-5 -19 -60 -39 0 -3 0 3)
1969/12/31/18:00:38.731,(1 0 -1 32 24 9 9 5)
1969/12/31/18:00:38.746,(0 18 54 43 10 3 -3 -5)
1969/12/31/18:00:38.746,(-1 -4 12 28 10 -3 -7 -7)
1969/12/31/18:00:38.747,(0 -7 -32 -85 -34 -4 3 8)
1969/12/31/18:00:38.747,(-1 -9 -19 8 7 -2 -1 -4)
1969/12/31/18:00:38.769,(-4 -1 -20 -19 -13 -3 -4 -1)
1969/12/31/18:00:38.769,(3 -14 12 -1 0 7 5 7)
1969/12/31/18:00:38.769,(-3 14 -18 0 -2 -12 -14 -15)
1969/12/31/18:00:38.769,(-5 20 60 7 6 1 3 -2)
1969/12/31/18:00:38.782,(2 -12 -15 -5 -11 -3 0 7)
1969/12/31/18:00:38.782,(2 1 9 12 10 2 -3 -4)
1969/12/31/18:00:38.791,(-5 -26 -10 -12 -6 -4 3 6)
1969/12/31/18:00:38.791,(-4 -23 -31 -21 0 -3 -5 -6)
1969/12/31/18:00:38.806,(6 25 23 25 -1 1 4 3)
1969/12/31/18:00:38.806,(-2 -7 -14 -9 -2 -3 1 3)
1969/12/31/18:00:38.806,(4 27 15 0 1 0 5 5)
1969/12/31/18:00:38.806,(-1 -5 -1 -2 -1 -2 -11 -12)
1969/12/31/18:00:38.829,(3 23 18 22 3 1 1 2)
1969/12/31/18:00:38.829,(4 15 -4 -5 0 -1 1 1)
1969/12/31/18:00:38.829,(-7 -8 -11 -16 -6 -4 -1 -3)
1969/12/31/18:00:38.829,(0 -4 5 7 6 3 4 3)
1969/12/31/18:00:38.842,(-4 -35 -17 0 -2 -1 -1 1)
1969/12/31/18:00:38.842,(-7 -21 -21 -18 -7 -6 -3 -4)
1969/12/31/18:00:38.858,(-4 -12 13 13 1 3 -2 -2)
1969/12/31/18:00:38.858,(2 23 0 -1 2 5 5 0)
1969/12/31/18:00:38.866,(7 31 19 12 3 0 -1 1)
1969/12/31/18:00:38.866,(-10 -54 -37 -16 -6 0 0 4)
1969/12/31/18:00:38.866,(0 16 -5 -6 -5 -3 -3 -4)
1969/12/31/18:00:38.866,(-1 37 46 25 12 1 -3 -23)
1969/12/31/18:00:38.889,(-2 -53 -41 -12 -9 -2 6 26)
1969/12/31/18:00:38.889,(18 104 70 22 7 2 -2 -4)
1969/12/31/18:00:38.890,(1 -20 -5 2 1 2 7 2)
1969/12/31/18:00:38.890,(-9 -16 -9 -4 -1 -1 -1 2)
1969/12/31/18:00:38.911,(6 -12 -6 0 -2 -2 2 7)
1969/12/31/18:00:38.911,(-8 -42 -25 -10 -4 -2 -5 -5)
1969/12/31/18:00:38.912,(-3 -13 -19 -14 -5 -2 0 0)
1969/12/31/18:00:38.912,(7 8 -1 -4 -4 0 1 12)
1969/12/31/18:00:38.926,(-5 -3 6 6 3 3 0 -6)
1969/12/31/18:00:38.926,(-2 -10 -15 -6 -2 1 3 4)
1969/12/31/18:00:38.926,(9 27 17 1 2 -3 -3 -6)
1969/12/31/18:00:38.926,(10 -5 -5 -4 -2 -4 0 4)
1969/12/31/18:00:38.949,(-26 -11 -3 1 -1 -3 -8 -18)
1969/12/31/18:00:38.949,(1 14 5 -3 -3 0 2 4)
1969/12/31/18:00:38.950,(-13 -7 4 2 -1 -5 -8 -11)
1969/12/31/18:00:38.950,(-3 -24 -15 -6 -2 0 1 -3)
1969/12/31/18:00:38.971,(51 33 9 3 -2 -14 -1 0)
1969/12/31/18:00:38.972,(9 27 15 7 9 29 18 18)
1969/12/31/18:00:38.972,(-60 -65 -31 -18 -13 -13 -35 -30)
1969/12/31/18:00:38.972,(-1 -12 -14 -7 0 -4 0 12)
1969/12/31/18:00:38.986,(-21 13 8 2 -2 0 17 -25)
1969/12/31/18:00:38.986,(-1 11 14 10 4 -9 10 2)
1969/12/31/18:00:38.986,(36 20 3 3 5 11 7 11)
1969/12/31/18:00:38.986,(-6 -12 -8 -8 -8 -13 -17 20)
1969/12/31/18:00:39.009,(13 20 13 4 2 3 3 -11)
1969/12/31/18:00:39.009,(-32 -42 -17 -7 -6 -8 -6 -16)
1969/12/31/18:00:39.009,(26 10 -6 -3 1 15 -8 21)
1969/12/31/18:00:39.009,(-22 0 6 2 -1 -27 -16 -46)
1969/12/31/18:00:39.031,(12 11 4 4 3 7 0 7)
1969/12/31/18:00:39.031,(-9 -22 -7 1 1 9 -8 -18)
1969/12/31/18:00:39.032,(-27 -3 1 -1 -4 -8 58 37)
1969/12/31/18:00:39.032,(48 24 1 -1 -2 -7 -56 19)
1969/12/31/18:00:39.045,(-48 -35 -15 -3 -1 1 -19 -18)
1969/12/31/18:00:39.045,(35 12 4 3 1 9 0 9)
1969/12/31/18:00:39.061,(-15 7 4 -3 -9 -36 -14 -33)
1969/12/31/18:00:39.061,(-9 -9 -11 -5 2 12 -2 -21)
1969/12/31/18:00:39.069,(-18 -18 -5 -5 -8 -11 7 1)
1969/12/31/18:00:39.069,(-14 12 1 -3 -1 11 4 -1)
1969/12/31/18:00:39.070,(1 10 18 12 10 3 20 -14)
1969/12/31/18:00:39.070,(-18 -27 -6 4 4 -3 -9 -1)
1969/12/31/18:00:39.091,(25 18 -5 -7 -6 -6 -17 -6)
1969/12/31/18:00:39.091,(-9 -24 -10 -5 -1 -6 -10 -12)
1969/12/31/18:00:39.093,(-29 17 13 7 3 14 -8 -24)
1969/12/31/18:00:39.093,(39 0 -11 -6 -6 -12 29 49)
1969/12/31/18:00:39.105,(14 -3 -4 -5 -6 12 13 19)
1969/12/31/18:00:39.105,(7 9 3 -1 -2 -17 -9 -11)
1969/12/31/18:00:39.128,(29 -2 -7 -5 -2 11 -2 32)
1969/12/31/18:00:39.128,(-13 -1 -2 0 3 10 23 8)
1969/12/31/18:00:39.144,(-28 15 19 10 9 9 1 -30)
1969/12/31/18:00:39.144,(37 3 -7 -6 -4 -1 -27 7)
1969/12/31/18:00:39.145,(-27 -38 -21 -8 -12 -51 -9 -31)
1969/12/31/18:00:39.145,(-16 15 8 0 -3 -3 23 17)
1969/12/31/18:00:39.151,(27 -1 4 5 9 34 22 21)
1969/12/31/18:00:39.152,(15 12 9 4 1 -6 4 0)
1969/12/31/18:00:39.153,(-18 -16 -11 -3 3 14 -21 -6)
1969/12/31/18:00:39.153,(20 9 -2 -3 -4 3 36 3)
1969/12/31/18:00:39.165,(13 1 -6 -6 -4 -12 -6 -2)
1969/12/31/18:00:39.165,(-81 -22 0 3 2 -6 -9 -17)
1969/12/31/18:00:39.174,(41 6 0 -1 -2 2 -22 -46)
1969/12/31/18:00:39.174,(18 9 4 2 0 6 1 -1)
1969/12/31/18:00:39.189,(-4 2 -4 -1 1 -4 -14 11)
1969/12/31/18:00:39.189,(-15 17 9 5 1 4 19 -23)
1969/12/31/18:00:39.190,(-3 -28 -11 -6 -3 1 6 72)
1969/12/31/18:00:39.190,(-49 -18 -4 0 0 0 -19 -44)
1969/12/31/18:00:39.211,(-20 -14 -5 -3 -2 -3 7 -17)
1969/12/31/18:00:39.211,(33 8 1 -2 -3 -12 -23 10)
1969/12/31/18:00:39.213,(19 13 -2 -4 -1 12 30 36)
1969/12/31/18:00:39.213,(-38 -2 8 7 5 6 -6 -45)
1969/12/31/18:00:39.225,(-39 -29 -6 -2 -7 -32 -25 -21)
1969/12/31/18:00:39.225,(20 12 -10 -6 -1 21 14 13)
1969/12/31/18:00:39.234,(-4 2 8 2 -8 -49 11 62)
1969/12/31/18:00:39.234,(76 6 -6 -7 2 34 -14 -57)
1969/12/31/18:00:39.249,(10 -1 -4 -4 -5 -30 1 6)
1969/12/31/18:00:39.249,(-63 23 7 -5 -10 5 -44 -33)
1969/12/31/18:00:39.250,(-38 -48 -21 -9 -3 1 -30 -71)
1969/12/31/18:00:39.250,(-6 1 2 -1 -3 -4 4 27)
1969/12/31/18:00:39.271,(-1 -31 -6 -2 -4 -12 -16 10)
1969/12/31/18:00:39.271,(25 10 0 -3 2 0 8 -13)
1969/12/31/18:00:39.273,(29 33 15 8 7 23 25 25)
1969/12/31/18:00:39.273,(-9 20 4 3 0 -7 -1 31)
1969/12/31/18:00:39.285,(-13 -49 -17 -10 -3 17 -16 -36)
1969/12/31/18:00:39.285,(1 -14 -1 2 0 -11 19 -11)
1969/12/31/18:00:39.294,(45 -7 -11 -12 -8 3 11 80)
1969/12/31/18:00:39.294,(-12 10 5 4 0 -20 13 -11)
1969/12/31/18:00:39.309,(-17 27 11 8 6 28 30 26)
1969/12/31/18:00:39.309,(34 0 -2 3 5 4 37 92)
1969/12/31/18:00:39.310,(-37 17 8 1 -3 -15 -43 -122)
1969/12/31/18:00:39.310,(25 -28 -22 -19 -10 30 3 68)
1969/12/31/18:00:39.330,(24 4 5 4 0 -11 12 65)
1969/12/31/18:00:39.330,(29 2 -8 -6 -3 -5 23 9)
1969/12/31/18:00:39.346,(3 21 12 3 5 12 -3 -2)
1969/12/31/18:00:39.346,(-21 -10 1 -1 0 0 15 21)
1969/12/31/18:00:39.346,(-39 -3 -1 1 5 4 -22 -17)
1969/12/31/18:00:39.346,(-19 1 -2 3 0 -3 -9 -32)
1969/12/31/18:00:39.354,(-9 -35 -9 0 0 6 7 -10)
1969/12/31/18:00:39.354,(-1 35 12 6 0 -10 -13 -49)
1969/12/31/18:00:39.369,(14 -16 -8 -7 -4 2 16 31)
1969/12/31/18:00:39.369,(-11 4 2 -3 -9 -35 -23 -9)
1969/12/31/18:00:39.370,(36 7 -2 1 7 18 28 93)
1969/12/31/18:00:39.370,(-32 -15 -1 2 1 4 7 -59)
1969/12/31/18:00:39.391,(8 17 14 5 2 -9 -22 -17)
1969/12/31/18:00:39.391,(19 29 -1 0 1 -3 -24 -30)
1969/12/31/18:00:39.393,(-87 -25 0 4 1 -4 -7 -92)
1969/12/31/18:00:39.393,(51 -3 -2 -1 2 5 25 98)
1969/12/31/18:00:39.414,(-11 25 9 5 3 -3 -4 -42)
1969/12/31/18:00:39.414,(12 -11 3 1 -3 -7 -9 -1)
1969/12/31/18:00:39.420,(-24 -9 1 2 4 10 3 1)
1969/12/31/18:00:39.420,(-77 -55 -25 -11 -13 -36 -25 -76)
1969/12/31/18:00:39.429,(32 52 2 -10 -10 -2 -17 -28)
1969/12/31/18:00:39.429,(-28 -35 -12 -4 2 17 -14 9)
1969/12/31/18:00:39.430,(7 39 11 1 -4 -10 -25 -29)
1969/12/31/18:00:39.430,(-86 -53 -6 3 8 13 8 -4)
1969/12/31/18:00:39.451,(12 -10 -12 -11 -11 -16 -17 -20)
1969/12/31/18:00:39.451,(2 -20 3 5 5 15 31 8)
1969/12/31/18:00:39.453,(46 12 -1 -2 0 5 0 15)
1969/12/31/18:00:39.453,(31 63 23 13 10 10 -1 17)
1969/12/31/18:00:39.465,(-23 -44 -8 -3 -2 -2 0 -37)
1969/12/31/18:00:39.465,(-31 -10 -9 -11 -12 -23 12 -15)
1969/12/31/18:00:39.474,(-24 -2 2 0 0 -3 -15 -50)
1969/12/31/18:00:39.474,(34 20 11 8 7 -1 -6 13)
1969/12/31/18:00:39.489,(-22 12 2 3 6 14 7 -38)
1969/12/31/18:00:39.489,(89 3 -11 -11 -15 -20 -23 5)
1969/12/31/18:00:39.490,(-42 10 -4 -7 -8 -15 -14 -10)
1969/12/31/18:00:39.490,(3 -29 -10 -9 -12 -11 -13 -24)
1969/12/31/18:00:39.519,(-6 1 -5 -1 5 34 37 29)
1969/12/31/18:00:39.519,(-33 6 12 14 28 14 -5 24)
1969/12/31/18:00:39.520,(25 11 -6 -9 -23 -38 -12 -39)
1969/12/31/18:00:39.520,(21 13 11 5 1 -2 -11 9)
1969/12/31/18:00:39.525,(29 -20 -7 -1 9 19 25 62)
1969/12/31/18:00:39.525,(-23 -36 -10 -6 -8 -11 -25 -12)
1969/12/31/18:00:39.534,(48 16 -1 6 14 32 31 82)
1969/12/31/18:00:39.534,(-42 -11 -10 1 -4 -32 -31 -55)
1969/12/31/18:00:39.549,(41 36 22 9 -7 -18 -30 -12)
1969/12/31/18:00:39.549,(2 -20 -9 -4 -2 1 23 50)
1969/12/31/18:00:39.550,(36 -1 -10 -29 -24 11 1 31)
1969/12/31/18:00:39.550,(-26 -6 -4 -1 7 -2 6 6)
1969/12/31/18:00:39.571,(-2 6 4 15 12 -13 -2 3)
1969/12/31/18:00:39.571,(-10 33 14 -14 -16 27 26 -12)
1969/12/31/18:00:39.573,(-26 2 8 8 -3 -4 2 -1)
1969/12/31/18:00:39.573,(19 -27 -12 -12 -3 -3 7 6)
1969/12/31/18:00:39.585,(9 11 9 26 20 -2 3 30)
1969/12/31/18:00:39.585,(10 -7 -4 -5 -8 -11 -8 30)
1969/12/31/18:00:39.594,(3 -4 7 17 -7 -26 19 -5)
1969/12/31/18:00:39.594,(30 12 0 20 52 -13 -65 -40)
1969/12/31/18:00:39.616,(-10 1 -3 -27 -24 44 17 -13)
1969/12/31/18:00:39.616,(-22 7 1 4 4 -13 -28 -45)
1969/12/31/18:00:39.618,(-42 -19 -7 -29 -38 29 26 38)
1969/12/31/18:00:39.618,(29 18 -2 -10 -11 9 23 16)
1969/12/31/18:00:39.631,(-12 -16 -5 1 -30 -62 -9 8)
1969/12/31/18:00:39.632,(-24 8 14 20 40 33 -3 -40)
1969/12/31/18:00:39.633,(25 23 -2 4 26 6 12 -34)
1969/12/31/18:00:39.633,(-34 -23 1 7 -17 -3 -25 3)
1969/12/31/18:00:39.645,(19 2 -7 -19 -18 -28 -23 -3)
1969/12/31/18:00:39.645,(-16 6 2 8 5 15 19 -12)
1969/12/31/18:00:39.654,(3 -16 2 13 10 -8 -9 14)
1969/12/31/18:00:39.654,(16 -3 -9 -17 -15 10 24 13)
1969/12/31/18:00:39.668,(-39 2 -4 0 6 -12 -30 -65)
1969/12/31/18:00:39.668,(26 10 2 1 -27 -35 -4 47)
1969/12/31/18:00:39.675,(12 5 0 -5 23 37 5 2)
1969/12/31/18:00:39.675,(9 12 5 -5 -24 6 20 11)
1969/12/31/18:00:39.699,(-4 -1 1 3 -5 1 1 10)
1969/12/31/18:00:39.699,(27 8 -1 6 23 -4 4 11)
1969/12/31/18:00:39.700,(56 -12 -7 6 -13 -4 11 54)
1969/12/31/18:00:39.700,(-4 19 5 -1 8 22 2 -6)
1969/12/31/18:00:39.705,(-2 -17 -2 -2 11 11 21 33)
1969/12/31/18:00:39.705,(-36 -30 -19 -21 -13 0 -3 -6)
1969/12/31/18:00:39.722,(16 -7 -6 -5 -7 -17 -4 19)
1969/12/31/18:00:39.722,(10 12 1 7 9 -1 -1 -14)
1969/12/31/18:00:39.728,(-6 4 4 2 -13 1 -2 -4)
1969/12/31/18:00:39.728,(-16 -13 -9 -4 -11 -19 -3 -24)
1969/12/31/18:00:39.735,(-22 0 9 17 21 14 -13 5)
1969/12/31/18:00:39.735,(-10 10 -3 -9 -8 -4 -1 -12)
1969/12/31/18:00:39.751,(30 -25 -5 5 18 0 16 32)
1969/12/31/18:00:39.751,(5 -3 7 14 54 67 10 20)
1969/12/31/18:00:39.753,(-14 -3 -8 -26 -51 1 7 5)
1969/12/31/18:00:39.753,(-23 -10 -5 -12 -48 -44 -3 -9)
1969/12/31/18:00:39.765,(8 1 -12 -13 -11 -8 -25 -12)
1969/12/31/18:00:39.765,(-1 -57 -41 -19 -26 -15 -6 -18)
1969/12/31/18:00:39.780,(34 44 -23 1 26 11 -7 -6)
1969/12/31/18:00:39.780,(8 65 99 41 37 37 24 32)
1969/12/31/18:00:39.788,(-26 -12 -14 -1 -16 -17 -4 -5)
1969/12/31/18:00:39.788,(27 1 6 3 -19 -28 -3 5)
1969/12/31/18:00:39.795,(-43 -40 -29 -7 -2 -14 -20 -25)
1969/12/31/18:00:39.795,(-21 -44 -42 -19 -7 -12 -6 -12)
1969/12/31/18:00:39.811,(37 -2 -48 -7 1 7 4 9)
1969/12/31/18:00:39.811,(8 98 106 55 17 13 2 14)
1969/12/31/18:00:39.813,(-31 -25 -27 -13 2 -14 0 -27)
1969/12/31/18:00:39.813,(22 32 -5 -8 -8 -17 -13 4)
1969/12/31/18:00:39.834,(0 -66 -22 0 32 35 16 30)
1969/12/31/18:00:39.834,(-7 -35 -50 -46 -33 29 18 0)
1969/12/31/18:00:39.835,(13 30 38 16 6 -7 1 -25)
1969/12/31/18:00:39.835,(-39 -28 -13 -3 -10 -18 -4 18)
1969/12/31/18:00:39.849,(34 5 -4 7 21 12 12 42)
1969/12/31/18:00:39.849,(-38 -22 -32 -9 -21 -57 -21 -31)
1969/12/31/18:00:39.850,(13 26 20 -10 4 18 -5 -10)
1969/12/31/18:00:39.850,(9 -8 -32 -10 4 2 7 6)
1969/12/31/18:00:39.871,(-24 111 119 23 -17 1 -2 -30)
1969/12/31/18:00:39.871,(-3 -73 -51 -5 4 11 6 5)
1969/12/31/18:00:39.873,(55 63 48 22 12 -8 -6 17)
1969/12/31/18:00:39.873,(-6 -39 -21 7 25 2 -5 -14)
1969/12/31/18:00:39.894,(-56 -21 -40 -22 -45 -22 -6 -25)
1969/12/31/18:00:39.894,(23 58 42 15 32 3 0 -9)
1969/12/31/18:00:39.895,(-34 -62 -36 -10 -5 20 -9 -33)
1969/12/31/18:00:39.895,(35 47 21 4 11 25 17 40)
1969/12/31/18:00:39.909,(-32 -52 -15 -14 0 5 -1 -19)
1969/12/31/18:00:39.909,(26 5 -16 -11 -19 -13 3 39)
1969/12/31/18:00:39.911,(24 -6 -3 -5 -17 -21 -5 0)
1969/12/31/18:00:39.911,(-25 -38 -22 12 16 -7 -5 -25)
1969/12/31/18:00:39.931,(20 28 14 -7 -13 -4 14 44)
1969/12/31/18:00:39.931,(0 -30 -43 -24 -26 -1 1 -4)
1969/12/31/18:00:39.933,(4 98 99 42 33 35 14 17)
1969/12/31/18:00:39.933,(79 46 48 12 -8 7 1 16)
1969/12/31/18:00:39.954,(-11 -28 -28 0 26 21 4 5)
1969/12/31/18:00:39.954,(-23 -9 18 16 -6 -33 -16 -28)
1969/12/31/18:00:39.955,(-20 -39 -43 -4 8 -24 -10 -2)
1969/12/31/18:00:39.955,(-45 -117 -97 -29 -26 17 -1 -48)
1969/12/31/18:00:39.968,(45 103 58 7 2 -8 -8 -10)
1969/12/31/18:00:39.968,(24 67 72 13 14 40 17 23)
1969/12/31/18:00:39.975,(-24 -52 -37 -3 2 5 -20 -44)
1969/12/31/18:00:39.975,(12 50 55 24 -11 -50 -12 1)
1969/12/31/18:00:39.991,(-23 -108 -74 -26 11 46 1 -19)
1969/12/31/18:00:39.991,(-18 26 0 -10 -25 -20 5 -1)
1969/12/31/18:00:39.993,(-24 23 31 1 -31 -39 -5 -19)
1969/12/31/18:00:39.993,(5 -36 -36 5 29 10 4 6)
1969/12/31/18:00:40.014,(14 -55 -69 -24 -5 -30 -23 11)
1969/12/31/18:00:40.014,(-7 104 87 38 23 20 3 -17)
1969/12/31/18:00:40.015,(-12 -69 -37 -11 -24 -29 -7 8)
1969/12/31/18:00:40.015,(-37 -39 -62 -50 -34 -3 -3 6)
1969/12/31/18:00:40.028,(26 115 117 47 33 35 28 6)
1969/12/31/18:00:40.028,(-32 -66 -40 -12 -17 -10 -9 -20)
1969/12/31/18:00:40.042,(-40 -2 -29 2 12 2 -22 -40)
1969/12/31/18:00:40.042,(-14 -93 -62 -31 -30 -18 -18 -32)
1969/12/31/18:00:40.051,(-2 69 62 16 -1 -11 11 13)
1969/12/31/18:00:40.051,(34 -10 -26 -7 11 -17 -1 61)
1969/12/31/18:00:40.053,(22 40 62 26 9 24 5 -27)
1969/12/31/18:00:40.053,(-11 -4 -23 -13 67 75 12 11)
1969/12/31/18:00:40.074,(-2 -6 -2 -14 -29 -1 -11 -10)
1969/12/31/18:00:40.074,(-32 -99 -91 -32 -21 -24 -15 -6)
1969/12/31/18:00:40.075,(4 75 53 29 10 -32 -2 -4)
1969/12/31/18:00:40.075,(13 45 40 7 22 32 10 10)
1969/12/31/18:00:40.088,(-43 -75 -64 -18 -28 1 -3 -21)
1969/12/31/18:00:40.088,(15 91 88 28 18 5 15 -7)
1969/12/31/18:00:40.095,(21 -69 -55 -14 6 -30 1 1)
1969/12/31/18:00:40.095,(16 -31 -34 -9 -24 39 4 -6)
1969/12/31/18:00:40.111,(5 59 50 15 -5 -21 -6 -21)
1969/12/31/18:00:40.111,(-18 -27 -12 -1 4 2 -15 -47)
1969/12/31/18:00:40.113,(-4 -83 -64 -32 -21 -12 -11 -38)
1969/12/31/18:00:40.113,(17 99 70 31 10 -17 7 1)
1969/12/31/18:00:40.134,(19 -48 -58 -7 4 -27 -2 55)
1969/12/31/18:00:40.134,(17 -53 -53 -11 17 39 13 31)
1969/12/31/18:00:40.140,(-28 54 32 -14 -8 8 -3 3)
1969/12/31/18:00:40.140,(-13 -16 8 13 2 -14 1 11)
1969/12/31/18:00:40.148,(5 -20 -10 8 13 -10 -4 -31)
1969/12/31/18:00:40.148,(-7 21 10 -7 -26 -17 -7 1)
1969/12/31/18:00:40.155,(-11 -39 -28 2 44 55 8 34)
1969/12/31/18:00:40.155,(-24 -61 -32 -3 -29 -18 -14 -7)
1969/12/31/18:00:40.172,(-33 -31 -47 -11 6 0 -18 -52)
1969/12/31/18:00:40.172,(28 85 94 0 -7 -4 3 -8)
1969/12/31/18:00:40.173,(-13 -56 -43 -22 -14 2 24 32)
1969/12/31/18:00:40.173,(79 -6 4 5 -4 -8 13 47)
1969/12/31/18:00:40.194,(-9 18 -22 10 16 -8 2 5)
1969/12/31/18:00:40.194,(-74 -128 -69 1 2 -4 -24 -45)
1969/12/31/18:00:40.195,(22 5 -46 -45 -32 -7 -5 7)
1969/12/31/18:00:40.195,(-15 88 114 46 21 -4 0 -5)
1969/12/31/18:00:40.207,(-11 -36 -17 -14 -8 -20 2 4)
1969/12/31/18:00:40.207,(1 4 -2 -1 8 33 10 21)
1969/12/31/18:00:40.222,(-27 60 38 13 6 6 7 29)
1969/12/31/18:00:40.222,(3 -53 -59 -29 -38 -42 -23 -12)
1969/12/31/18:00:40.231,(-19 -27 -1 -21 23 39 14 -1)
1969/12/31/18:00:40.231,(-28 -50 -48 9 12 -32 -9 -64)
1969/12/31/18:00:40.233,(-5 9 20 14 13 35 2 -15)
1969/12/31/18:00:40.233,(-19 -25 -34 -30 -26 10 1 -5)
1969/12/31/18:00:40.255,(30 121 123 33 2 -14 -21 -9)
1969/12/31/18:00:40.255,(17 -13 2 10 17 9 8 16)
1969/12/31/18:00:40.256,(-58 -107 -101 -32 -14 -31 -19 -17)
1969/12/31/18:00:40.256,(-14 -25 16 10 3 -27 -22 -17)
1969/12/31/18:00:40.267,(-5 63 -3 -2 -1 22 1 -38)
1969/12/31/18:00:40.267,(-11 11 47 39 27 42 25 14)
1969/12/31/18:00:40.276,(86 -21 3 12 -7 -14 0 47)
1969/12/31/18:00:40.276,(-65 -58 -42 -17 -12 -9 -11 -57)
1969/12/31/18:00:40.291,(11 -70 -99 -26 -15 -34 -25 23)
1969/12/31/18:00:40.291,(24 50 31 -2 -29 -1 8 16)
1969/12/31/18:00:40.293,(29 -16 -10 -5 -16 10 14 4)
1969/12/31/18:00:40.293,(-13 -56 -48 -9 11 7 -2 4)
1969/12/31/18:00:40.314,(-10 2 -16 -5 -18 -17 4 5)
1969/12/31/18:00:40.314,(-1 73 59 17 9 12 -5 -34)
1969/12/31/18:00:40.315,(19 -35 37 31 25 26 8 -17)
1969/12/31/18:00:40.315,(51 -61 -82 -19 1 2 18 51)
1969/12/31/18:00:40.336,(-58 -108 -23 -13 4 -8 -32 -61)
1969/12/31/18:00:40.336,(13 72 -23 -27 -36 -21 -13 -13)
1969/12/31/18:00:40.338,(-23 36 66 20 5 -12 5 2)
1969/12/31/18:00:40.338,(17 127 102 38 24 20 12 21)
1969/12/31/18:00:40.351,(-8 -106 -84 -27 -33 -30 6 24)
1969/12/31/18:00:40.351,(6 50 42 31 51 12 -11 6)
1969/12/31/18:00:40.353,(-43 -81 -55 -29 -35 -24 9 -9)
1969/12/31/18:00:40.353,(-21 -58 -64 -14 0 16 -12 27)
1969/12/31/18:00:40.374,(41 98 89 31 14 10 23 39)
1969/12/31/18:00:40.374,(-12 -68 -54 -25 -10 -29 -14 0)
1969/12/31/18:00:40.376,(-17 -64 -46 3 -7 -31 3 13)
1969/12/31/18:00:40.376,(-8 -9 -28 -28 16 42 13 4)
1969/12/31/18:00:40.387,(22 75 83 36 1 27 19 -2)
1969/12/31/18:00:40.387,(10 -122 -71 -23 -9 -14 -9 15)
1969/12/31/18:00:40.396,(35 98 77 32 15 11 -4 -2)
1969/12/31/18:00:40.396,(-36 -114 -81 -29 -34 -34 6 -23)
1969/12/31/18:00:40.412,(-8 -28 -29 7 27 6 -15 -16)
1969/12/31/18:00:40.412,(14 92 89 12 3 47 11 -3)
1969/12/31/18:00:40.413,(-22 -57 -32 -11 -2 -7 -5 -15)
1969/12/31/18:00:40.413,(32 -17 -39 -11 -1 -7 -2 31)
1969/12/31/18:00:40.441,(11 62 71 30 22 15 5 -32)
1969/12/31/18:00:40.441,(16 -86 -32 -14 -27 -32 2 21)
1969/12/31/18:00:40.443,(34 -60 -85 -33 -14 -19 -37 -9)
1969/12/31/18:00:40.443,(-3 44 62 11 31 19 1 -26)
1969/12/31/18:00:40.447,(-2 -21 -24 -12 -17 9 -5 17)
1969/12/31/18:00:40.447,(-3 -33 -44 -5 -2 -25 -1 -6)
1969/12/31/18:00:40.456,(-21 24 26 10 10 32 2 -3)
1969/12/31/18:00:40.456,(4 -41 2 -3 1 9 15 4)
1969/12/31/18:00:40.471,(0 21 -11 -10 -2 -5 -7 -22)
1969/12/31/18:00:40.471,(-1 17 21 3 -5 -1 -3 -6)
1969/12/31/18:00:40.473,(-5 -78 -78 -3 21 -12 -4 8)
1969/12/31/18:00:40.473,(32 127 127 30 -14 -6 -4 -21)
1969/12/31/18:00:40.494,(-1 36 46 2 -8 4 9 41)
1969/12/31/18:00:40.494,(-26 -73 -53 -5 -2 -6 5 -1)
1969/12/31/18:00:40.495,(23 -19 -39 -10 -15 -23 -12 15)
1969/12/31/18:00:40.495,(-62 40 20 2 -1 6 -15 -88)
1969/12/31/18:00:40.507,(31 47 61 24 10 9 14 17)
1969/12/31/18:00:40.507,(-12 -73 -56 -20 -6 -12 -12 -1)
1969/12/31/18:00:40.516,(-10 43 47 14 -4 -4 6 5)
1969/12/31/18:00:40.516,(28 -24 -22 3 -6 -13 4 27)
1969/12/31/18:00:40.531,(-48 -86 -60 -22 -7 14 3 -9)
1969/12/31/18:00:40.531,(-14 -1 -13 -9 5 16 1 -5)
1969/12/31/18:00:40.537,(-9 -18 3 -3 10 -8 -6 -16)
1969/12/31/18:00:40.537,(18 24 2 6 9 12 -7 11)
1969/12/31/18:00:40.554,(-27 -117 -67 -19 -39 -24 4 3)
1969/12/31/18:00:40.554,(84 82 77 45 20 4 18 41)
1969/12/31/18:00:40.555,(10 -20 -13 -2 0 10 16 44)
1969/12/31/18:00:40.555,(0 -55 -51 -16 -5 1 -3 -6)
1969/12/31/18:00:40.567,(10 -23 -47 3 22 6 -3 -16)
1969/12/31/18:00:40.567,(8 -1 -8 -22 -15 -8 -2 14)
1969/12/31/18:00:40.576,(-5 37 24 9 4 10 1 -4)
1969/12/31/18:00:40.576,(7 -23 19 3 -18 -15 17 18)
1969/12/31/18:00:40.591,(-4 -34 -55 -23 -8 2 -7 4)
1969/12/31/18:00:40.591,(-10 11 9 5 8 -5 4 -6)
1969/12/31/18:00:40.593,(18 65 52 21 16 6 -21 -33)
1969/12/31/18:00:40.593,(30 -3 -1 19 10 -6 2 41)
1969/12/31/18:00:40.614,(-10 24 -5 -21 -11 -6 7 -8)
1969/12/31/18:00:40.614,(-29 -58 -56 -16 -6 -4 -17 -6)
1969/12/31/18:00:40.616,(65 112 111 33 6 11 35 92)
1969/12/31/18:00:40.616,(22 53 27 7 11 4 -8 -48)
1969/12/31/18:00:40.627,(27 1 42 22 4 -10 -6 19)
1969/12/31/18:00:40.627,(-28 -99 -111 -40 -20 -10 7 9)
1969/12/31/18:00:40.636,(6 56 37 4 24 38 12 13)
1969/12/31/18:00:40.636,(71 104 109 59 22 7 23 45)
1969/12/31/18:00:40.650,(-8 -45 -15 -2 -5 -14 -19 5)
1969/12/31/18:00:40.651,(-34 -87 -76 -43 -18 -16 -25 -52)
1969/12/31/18:00:40.657,(-52 -128 -90 -15 21 40 1 -38)
1969/12/31/18:00:40.657,(-4 64 3 -36 -34 -34 -2 14)
1969/12/31/18:00:40.674,(38 32 38 36 33 22 0 -3)
1969/12/31/18:00:40.674,(-9 -22 2 6 3 5 18 25)
1969/12/31/18:00:40.675,(-35 -12 -81 -39 -24 -38 -30 -51)
1969/12/31/18:00:40.675,(-10 40 88 29 4 15 3 7)
1969/12/31/18:00:40.687,(-19 -62 -70 -5 16 -1 3 -5)
1969/12/31/18:00:40.687,(29 99 83 22 -30 -5 -3 6)
1969/12/31/18:00:40.696,(19 -84 -71 -18 -12 0 20 26)
1969/12/31/18:00:40.696,(11 4 -28 -11 -4 -14 14 41)
1969/12/31/18:00:40.710,(-44 -36 1 -17 -7 4 -13 -28)
1969/12/31/18:00:40.710,(-4 56 44 22 16 3 -6 -15)
1969/12/31/18:00:40.717,(-20 13 23 18 2 2 -9 -42)
1969/12/31/18:00:40.717,(-27 -128 -97 -42 -15 -22 6 61)
1969/12/31/18:00:40.734,(11 120 116 35 13 22 -1 -1)
1969/12/31/18:00:40.734,(-8 -88 -45 -10 -3 -11 -10 -13)
1969/12/31/18:00:40.735,(24 12 7 -14 -21 5 10 21)
1969/12/31/18:00:40.735,(-9 -57 -36 -10 -9 -13 8 4)
1969/12/31/18:00:40.747,(-10 -109 -112 -39 -22 -10 -4 3)
1969/12/31/18:00:40.747,(-13 120 91 31 10 0 -6 -26)
1969/12/31/18:00:40.756,(11 67 64 8 12 14 7 21)
1969/12/31/18:00:40.756,(-51 -53 -35 -5 -14 -17 -32 -62)
1969/12/31/18:00:40.770,(18 -20 21 12 12 -6 4 16)
1969/12/31/18:00:40.770,(-6 -76 -101 -38 -16 -19 -4 1)
1969/12/31/18:00:40.777,(56 79 46 18 11 18 4 15)
1969/12/31/18:00:40.777,(-44 -77 -44 -4 37 32 8 -19)
1969/12/31/18:00:40.794,(39 100 90 32 -20 -24 13 54)
1969/12/31/18:00:40.794,(43 55 55 16 -7 26 7 18)
1969/12/31/18:00:40.795,(-41 -25 5 -4 -11 -16 -6 -39)
1969/12/31/18:00:40.795,(17 -57 -40 -10 -7 -3 -12 1)
1969/12/31/18:00:40.816,(-72 -128 -124 -23 6 2 13 -32)
1969/12/31/18:00:40.816,(-25 19 -4 -12 -9 -17 -13 -10)
1969/12/31/18:00:40.818,(-4 -71 -15 12 16 2 -5 -2)
1969/12/31/18:00:40.818,(12 83 16 -6 4 24 -20 -53)
1969/12/31/18:00:40.830,(29 48 49 30 2 9 14 17)
1969/12/31/18:00:40.830,(-74 -101 -59 4 33 -5 -12 -62)
1969/12/31/18:00:40.837,(12 -94 -79 -33 -23 -20 -21 -32)
1969/12/31/18:00:40.837,(-11 46 51 14 -8 -15 -16 -10)
1969/12/31/18:00:40.854,(-74 -53 -68 -51 -33 -20 -10 -2)
1969/12/31/18:00:40.854,(60 113 125 55 43 25 18 14)
1969/12/31/18:00:40.855,(-7 -52 -51 -21 -4 -11 -4 6)
1969/12/31/18:00:40.855,(-9 -50 -33 1 1 -12 2 0)
1969/12/31/18:00:40.876,(-8 31 1 0 18 24 -13 -38)
1969/12/31/18:00:40.876,(9 -33 -36 -16 -30 -3 -1 10)
1969/12/31/18:00:40.878,(-26 -37 -34 -5 0 -9 -1 6)
1969/12/31/18:00:40.878,(36 80 120 51 20 2 15 18)
1969/12/31/18:00:40.890,(13 21 -49 -41 -24 -3 -18 -9)
1969/12/31/18:00:40.890,(7 -54 -47 -4 15 -5 -4 4)
1969/12/31/18:00:40.897,(-2 6 2 -2 -15 -10 -2 4)
1969/12/31/18:00:40.897,(-7 -94 -85 -24 2 5 -9 -22)
1969/12/31/18:00:40.914,(39 -19 0 2 -3 -16 1 36)
1969/12/31/18:00:40.914,(3 23 9 -1 6 -12 -2 12)
1969/12/31/18:00:40.915,(-19 -8 -10 2 -2 13 13 5)
1969/12/31/18:00:40.915,(-41 -24 -22 -17 -9 2 18 2)
1969/12/31/18:00:40.936,(68 -8 -3 1 -5 11 -2 15)
1969/12/31/18:00:40.936,(-40 22 -21 -7 15 11 -4 -28)
1969/12/31/18:00:40.938,(22 121 127 33 -23 -19 -17 4)
1969/12/31/18:00:40.938,(-21 -90 -86 -30 -28 -28 -18 -27)
1969/12/31/18:00:40.951,(23 106 115 39 9 8 9 -3)
1969/12/31/18:00:40.951,(-17 -85 -49 -7 -5 -6 -2 -3)
1969/12/31/18:00:40.957,(10 -57 -89 -15 25 9 6 2)
1969/12/31/18:00:40.957,(-20 127 92 15 2 16 -6 1)
1969/12/31/18:00:40.974,(-2 -53 -25 -4 -11 -20 -4 -32)
1969/12/31/18:00:40.974,(15 -32 -21 -8 -20 -25 -23 2)
1969/12/31/18:00:40.975,(-19 51 48 21 32 19 26 -14)
1969/12/31/18:00:40.975,(-12 -94 -61 -22 -2 17 12 17)
1969/12/31/18:00:40.995,(-22 -40 -31 -31 -23 -6 3 0)
1969/12/31/18:00:40.995,(7 -92 -90 -32 -12 9 11 16)
1969/12/31/18:00:41.004,(-43 10 -9 1 9 -8 -21 -22)
1969/12/31/18:00:41.004,(33 127 127 61 13 -1 -2 -12)
1969/12/31/18:00:41.010,(-31 -63 -37 -1 3 3 1 -7)
1969/12/31/18:00:41.010,(36 -32 -3 -2 -6 5 8 29)
1969/12/31/18:00:41.019,(7 -41 -35 -15 -5 -5 4 5)
1969/12/31/18:00:41.019,(-22 -124 -123 -24 -1 -11 -12 -6)
1969/12/31/18:00:41.034,(30 119 78 21 12 1 -5 -8)
1969/12/31/18:00:41.034,(11 57 38 21 11 15 14 14)
1969/12/31/18:00:41.035,(-4 -5 -4 -17 -19 -15 -15 -29)
1969/12/31/18:00:41.035,(14 -57 -18 -6 17 28 2 11)
1969/12/31/18:00:41.056,(6 12 -9 1 7 -14 -2 -2)
1969/12/31/18:00:41.056,(-43 -30 -21 -10 -17 14 12 9)
1969/12/31/18:00:41.058,(-34 -61 -11 -5 1 -11 -17 -15)
1969/12/31/18:00:41.058,(56 94 56 2 -25 -20 10 24)
1969/12/31/18:00:41.070,(-25 -108 -77 -19 -3 -19 -24 -1)
1969/12/31/18:00:41.070,(31 127 89 38 26 20 0 -3)
1969/12/31/18:00:41.079,(-4 -59 -25 -7 0 32 22 27)
1969/12/31/18:00:41.079,(-32 -107 -78 -19 -27 -40 -16 -25)
1969/12/31/18:00:41.094,(64 68 29 13 12 17 8 44)
1969/12/31/18:00:41.094,(28 62 67 1 -14 14 10 -4)
1969/12/31/18:00:41.095,(-1 -72 -63 -23 -28 -32 -12 -11)
1969/12/31/18:00:41.095,(10 97 65 21 26 22 5 21)
1969/12/31/18:00:41.116,(-26 -66 -41 -3 6 -5 9 -12)
1969/12/31/18:00:41.116,(-66 -127 -103 -48 -24 -7 -22 -32)
1969/12/31/18:00:41.118,(31 111 37 34 24 -1 -11 -3)
1969/12/31/18:00:41.118,(-12 -50 -50 -11 -24 -23 1 4)
1969/12/31/18:00:41.139,(-30 -48 -27 5 25 27 -4 -31)
1969/12/31/18:00:41.139,(-20 -63 -29 -5 -11 -24 2 -5)
1969/12/31/18:00:41.140,(-26 6 23 -5 -8 20 15 4)
1969/12/31/18:00:41.140,(71 99 49 -4 -15 -18 -7 36)
1969/12/31/18:00:41.154,(1 5 -6 -16 -21 -23 -12 -8)
1969/12/31/18:00:41.154,(10 -27 7 6 23 3 2 36)
1969/12/31/18:00:41.155,(11 -15 -28 -3 -7 12 14 16)
1969/12/31/18:00:41.155,(-19 13 40 9 3 -3 -4 -17)
1969/12/31/18:00:41.177,(16 -5 -14 -13 -14 1 -5 6)
1969/12/31/18:00:41.177,(29 68 34 6 0 -2 2 -4)
1969/12/31/18:00:41.178,(32 67 41 29 6 -9 3 28)
1969/12/31/18:00:41.178,(-25 -29 -5 8 19 -1 0 -16)
1969/12/31/18:00:41.190,(-11 24 32 2 -17 8 -4 8)
1969/12/31/18:00:41.190,(-3 -54 -52 -28 -14 -17 4 19)
1969/12/31/18:00:41.199,(6 57 58 17 4 15 -1 -13)
1969/12/31/18:00:41.199,(-69 -128 -128 -51 3 13 -3 -32)
1969/12/31/18:00:41.214,(2 101 69 38 19 -14 8 -8)
1969/12/31/18:00:41.214,(-3 -6 7 19 22 16 -9 -15)
1969/12/31/18:00:41.215,(40 -33 -31 -2 3 -13 8 31)
1969/12/31/18:00:41.215,(5 28 43 11 12 40 7 10)
1969/12/31/18:00:41.236,(-4 65 83 21 -7 -8 8 -4)
1969/12/31/18:00:41.236,(-1 -37 -36 -9 -25 -19 -6 -13)
1969/12/31/18:00:41.238,(-18 -35 -24 -27 3 9 -5 13)
1969/12/31/18:00:41.238,(5 47 42 15 -7 -33 -10 -3)
1969/12/31/18:00:41.250,(-34 -128 -100 -37 -11 8 3 5)
1969/12/31/18:00:41.250,(32 121 68 24 18 -3 -1 -2)
1969/12/31/18:00:41.259,(-5 -7 -14 -5 -7 -8 -9 -26)
1969/12/31/18:00:41.259,(46 72 53 21 -6 3 0 18)
1969/12/31/18:00:41.274,(2 -12 11 5 13 6 0 -6)
1969/12/31/18:00:41.274,(-24 -91 -48 -9 -18 -17 -2 -11)
1969/12/31/18:00:41.275,(-15 -82 -86 -36 -10 6 6 17)
1969/12/31/18:00:41.275,(17 111 106 48 31 15 1 1)
1969/12/31/18:00:41.296,(-16 -120 -79 -30 -41 -30 -12 -8)
1969/12/31/18:00:41.296,(-1 -2 -34 -14 -2 -3 -11 -2)
1969/12/31/18:00:41.298,(12 110 79 29 21 3 -9 -19)
1969/12/31/18:00:41.298,(-23 -54 -50 -20 -11 24 3 -14)
1969/12/31/18:00:41.310,(16 23 25 11 7 -12 17 27)
1969/12/31/18:00:41.310,(-1 -62 -35 -2 8 8 -6 -1)
1969/12/31/18:00:41.319,(35 31 60 21 -1 -5 5 24)
1969/12/31/18:00:41.319,(-28 -119 -84 -38 -7 -4 2 8)
1969/12/31/18:00:41.334,(0 53 -20 -11 4 6 5 -1)
1969/12/31/18:00:41.334,(8 5 12 32 36 33 29 20)
1969/12/31/18:00:41.335,(-41 -77 -63 -22 -28 -12 -11 -31)
1969/12/31/18:00:41.335,(25 -17 -39 -3 -10 -10 -2 7)
1969/12/31/18:00:41.356,(-29 -85 -56 -29 -10 -1 -15 -23)
1969/12/31/18:00:41.356,(16 88 60 6 14 -1 3 -1)
1969/12/31/18:00:41.362,(17 122 127 45 16 0 -7 -12)
1969/12/31/18:00:41.362,(-21 -117 -87 -26 -26 -25 -10 -5)
1969/12/31/18:00:41.370,(14 58 17 -11 3 2 -4 -4)
1969/12/31/18:00:41.370,(-23 -18 -3 -6 -6 9 3 -10)
1969/12/31/18:00:41.379,(-29 -48 -43 -2 -11 -21 -17 -47)
1969/12/31/18:00:41.379,(-11 -68 -31 7 54 55 19 4)
1969/12/31/18:00:41.394,(31 75 37 -10 -25 10 21 29)
1969/12/31/18:00:41.394,(8 59 39 13 -13 -14 -17 -16)
1969/12/31/18:00:41.395,(-41 -106 -83 -43 -28 -13 -2 -6)
1969/12/31/18:00:41.395,(3 -12 -4 22 9 -40 2 -1)
1969/12/31/18:00:41.416,(-28 -83 -53 -2 24 36 -12 -21)
1969/12/31/18:00:41.416,(28 81 43 12 -10 -6 8 4)
1969/12/31/18:00:41.418,(9 7 22 17 9 6 7 4)
1969/12/31/18:00:41.418,(9 -47 -18 -1 -11 -12 -8 12)
1969/12/31/18:00:41.447,(-3 -107 -63 -17 -6 -11 -10 -10)
1969/12/31/18:00:41.447,(1 -50 -18 -21 -10 -13 -5 9)
1969/12/31/18:00:41.448,(-9 -1 -7 -4 3 2 5 -2)
1969/12/31/18:00:41.448,(-29 35 24 10 2 13 -8 -14)
1969/12/31/18:00:41.454,(47 48 1 0 18 11 13 25)
1969/12/31/18:00:41.454,(-24 -20 -10 0 15 20 -2 -13)
1969/12/31/18:00:41.456,(23 0 10 -7 -19 -14 -3 7)
1969/12/31/18:00:41.456,(-23 -13 -31 -27 -16 -2 0 -15)
1969/12/31/18:00:41.476,(-5 -45 -19 -2 5 -20 -26 -18)
1969/12/31/18:00:41.476,(20 85 74 30 14 -9 11 14)
1969/12/31/18:00:41.478,(32 -37 -3 15 6 13 4 32)
1969/12/31/18:00:41.478,(28 -1 21 6 -15 -12 -15 -7)
1969/12/31/18:00:41.490,(12 -39 -24 5 10 9 27 12)
1969/12/31/18:00:41.490,(-10 -128 -128 -65 -33 4 12 30)
1969/12/31/18:00:41.499,(23 86 36 -8 -12 -16 -8 0)
1969/12/31/18:00:41.499,(-2 71 58 18 2 -16 -7 -15)
1969/12/31/18:00:41.513,(-11 57 44 36 21 23 5 1)
1969/12/31/18:00:41.513,(-7 9 1 -3 -11 -15 -6 9)
1969/12/31/18:00:41.520,(11 -5 1 -6 3 9 1 -3)
1969/12/31/18:00:41.520,(13 -11 -40 -15 -3 4 9 19)
1969/12/31/18:00:41.536,(7 30 60 34 21 0 2 2)
1969/12/31/18:00:41.536,(-10 -2 -4 8 -3 -1 -12 -23)
1969/12/31/18:00:41.538,(-65 -95 -42 -19 -33 -34 -32 -42)
1969/12/31/18:00:41.538,(-21 -10 -3 -7 11 34 31 6)
1969/12/31/18:00:41.559,(-6 -53 -70 -28 -7 0 -7 -3)
1969/12/31/18:00:41.559,(19 98 67 12 1 1 -6 -9)
1969/12/31/18:00:41.566,(-10 -31 -33 0 21 0 -3 -10)
1969/12/31/18:00:41.566,(3 -31 2 -4 -28 -26 -13 -5)
1969/12/31/18:00:41.574,(-9 -14 -38 -8 -17 3 -2 -2)
1969/12/31/18:00:41.574,(-12 -3 41 21 18 7 -8 -24)
1969/12/31/18:00:41.580,(-3 -1 -31 1 9 -1 1 4)
1969/12/31/18:00:41.580,(27 -20 4 1 -2 -3 -6 29)
1969/12/31/18:00:41.612,(-4 60 18 2 4 18 2 5)
1969/12/31/18:00:41.612,(-7 -42 -27 -17 -13 -18 -8 -11)
1969/12/31/18:00:41.613,(-12 -6 -18 1 10 19 8 -4)
1969/12/31/18:00:41.613,(-2 -10 9 -1 3 -14 -17 -16)
1969/12/31/18:00:41.614,(-4 3 -2 1 9 1 0 1)
1969/12/31/18:00:41.614,(5 -10 -40 -17 -23 -8 10 15)
1969/12/31/18:00:41.619,(31 81 76 29 9 11 17 20)
1969/12/31/18:00:41.619,(-31 -38 -28 -3 17 14 4 -9)
1969/12/31/18:00:41.641,(-6 -9 20 1 -22 -26 -22 -28)
1969/12/31/18:00:41.641,(-39 -128 -102 -33 3 1 -6 -8)
1969/12/31/18:00:41.643,(34 85 70 35 18 1 3 10)
1969/12/31/18:00:41.643,(21 66 34 8 -11 -5 1 1)
1969/12/31/18:00:41.655,(-14 -15 13 5 -1 -10 -2 -13)
1969/12/31/18:00:41.655,(-16 -41 -21 -2 12 18 -7 0)
1969/12/31/18:00:41.681,(27 -14 -25 -15 -13 -3 4 17)
1969/12/31/18:00:41.681,(29 68 25 6 -5 0 -3 -1)
1969/12/31/18:00:41.682,(-6 5 20 19 12 -2 10 6)
1969/12/31/18:00:41.682,(-14 -46 -21 -14 -8 -14 -17 -17)
1969/12/31/18:00:41.685,(18 18 9 -8 -6 2 3 16)
1969/12/31/18:00:41.685,(14 37 16 16 15 23 23 13)
1969/12/31/18:00:41.694,(-57 -41 -20 -15 -13 -15 -7 -38)
1969/12/31/18:00:41.694,(35 23 20 13 3 -7 -9 -2)
1969/12/31/18:00:41.695,(42 24 13 1 8 29 27 35)
1969/12/31/18:00:41.695,(-10 -10 -13 -15 -13 -6 -23 -15)
1969/12/31/18:00:41.724,(-8 13 6 6 4 -7 16 11)
1969/12/31/18:00:41.724,(-16 18 11 5 2 2 28 13)
1969/12/31/18:00:41.726,(-46 -125 -79 -32 -11 -11 -11 -25)
1969/12/31/18:00:41.726,(34 69 50 20 8 0 -4 -5)
1969/12/31/18:00:41.746,(53 77 30 -56 -83 -7 8 40)
1969/12/31/18:00:41.746,(6 6 13 55 68 5 -16 -13)
1969/12/31/18:00:41.748,(-105 -60 -25 -8 -11 -13 9 -26)
1969/12/31/18:00:41.748,(-37 -63 -36 -11 -12 -22 -9 -21)
1969/12/31/18:00:41.753,(-14 -3 5 29 28 4 -20 -9)
1969/12/31/18:00:41.753,(26 25 13 -18 -41 -3 45 18)
1969/12/31/18:00:41.760,(-14 -40 -27 -47 -38 -25 -107 -29)
1969/12/31/18:00:41.760,(27 35 12 53 55 11 70 50)
1969/12/31/18:00:41.777,(-34 -16 2 -8 -16 -24 -24 -32)
1969/12/31/18:00:41.777,(50 21 8 9 14 26 -15 68)
1969/12/31/18:00:41.779,(-16 -9 -1 3 -3 8 14 -16)
1969/12/31/18:00:41.779,(73 30 10 -23 -20 17 20 36)
1969/12/31/18:00:41.806,(58 55 -1 7 11 -9 15 28)
1969/12/31/18:00:41.806,(-28 7 6 -4 -5 -5 -27 -17)
1969/12/31/18:00:41.816,(-57 -38 -5 2 0 -11 -1 -27)
1969/12/31/18:00:41.816,(1 3 12 -1 -1 -5 -26 -9)
1969/12/31/18:00:41.817,(8 -27 9 27 31 27 29 18)
1969/12/31/18:00:41.817,(-19 -2 -21 -23 -26 -19 -23 -34)
1969/12/31/18:00:41.827,(-13 11 5 0 4 0 12 -2)
1969/12/31/18:00:41.827,(4 5 -9 -10 -5 -16 -18 -36)
1969/12/31/18:00:41.836,(-11 -44 -19 -4 2 10 -2 4)
1969/12/31/18:00:41.836,(-20 -35 31 15 4 13 26 15)
1969/12/31/18:00:41.838,(97 98 23 14 10 -6 0 16)
1969/12/31/18:00:41.838,(29 -7 -21 -7 -5 10 -1 21)
1969/12/31/18:00:41.859,(68 45 23 -1 -3 -3 0 13)
1969/12/31/18:00:41.859,(-51 -63 -50 -24 -12 -12 -18 -33)
1969/12/31/18:00:41.860,(1 81 98 52 27 16 25 17)
1969/12/31/18:00:41.860,(-57 -39 -16 -9 -10 -5 -12 -26)
1969/12/31/18:00:41.873,(14 -5 -14 -7 -7 -7 -12 3)
1969/12/31/18:00:41.873,(14 -2 -3 -1 8 8 17 11)
1969/12/31/18:00:41.880,(26 5 -8 -5 3 3 2 -6)
1969/12/31/18:00:41.880,(-45 -7 -14 -20 -20 -9 -8 -2)
1969/12/31/18:00:41.897,(-40 -48 -31 -14 5 -4 -12 -13)
1969/12/31/18:00:41.897,(-16 43 47 37 13 11 -1 -34)
1969/12/31/18:00:41.902,(-4 -3 9 28 10 2 0 -4)
1969/12/31/18:00:41.902,(-14 -9 7 -1 -2 -1 -2 -2)
1969/12/31/18:00:41.919,(-19 -30 -13 1 3 3 0 -19)
1969/12/31/18:00:41.919,(55 70 -6 -27 -18 -12 -6 -3)
1969/12/31/18:00:41.920,(-15 -28 -29 -21 -7 1 7 5)
1969/12/31/18:00:41.920,(-9 -21 -8 -2 -2 -3 -5 -6)
1969/12/31/18:00:41.933,(-13 3 15 8 6 2 -1 -8)
1969/12/31/18:00:41.933,(-1 6 4 -5 -2 0 6 4)
1969/12/31/18:00:41.940,(8 -3 3 8 3 -2 -1 3)
1969/12/31/18:00:41.940,(-14 -2 -12 -10 -2 1 -4 -1)
1969/12/31/18:00:41.956,(-2 -34 -18 -7 -9 -5 -3 -4)
1969/12/31/18:00:41.956,(5 21 4 6 1 -2 -1 3)
1969/12/31/18:00:41.958,(15 8 -15 -12 -3 -1 0 -1)
1969/12/31/18:00:41.958,(-17 -11 -2 -9 -2 -1 1 -7)
1969/12/31/18:00:41.979,(-9 16 21 11 0 -5 -11 -11)
1969/12/31/18:00:41.979,(-8 -35 -24 -15 -5 -4 1 5)
1969/12/31/18:00:41.980,(-6 -50 -59 -13 -4 -3 8 9)
1969/12/31/18:00:41.980,(1 78 62 17 5 -1 -18 -16)
1969/12/31/18:00:41.992,(12 -4 11 15 9 13 21 15)
1969/12/31/18:00:41.992,(-19 -5 -8 -10 -8 -3 -5 -3)
1969/12/31/18:00:42.001,(-5 -22 -24 -17 -6 -3 -1 -2)
1969/12/31/18:00:42.001,(1 -7 20 14 9 2 6 7)
1969/12/31/18:00:42.024,(7 6 -16 -6 -2 -3 -9 -4)
1969/12/31/18:00:42.024,(27 72 78 24 8 0 -1 0)
1969/12/31/18:00:42.031,(-17 -26 -14 -8 -4 -3 2 0)
1969/12/31/18:00:42.031,(-4 -38 -59 -18 -7 -5 0 5)
1969/12/31/18:00:42.039,(-2 40 62 29 14 15 8 -1)
1969/12/31/18:00:42.039,(-13 -34 -23 -11 -10 -6 -5 -4)
1969/12/31/18:00:42.040,(6 10 12 3 -2 -3 1 4)
1969/12/31/18:00:42.040,(-5 -24 -9 -2 -1 -2 -6 -18)
1969/12/31/18:00:42.061,(-18 -4 -18 -12 -7 -7 -7 -5)
1969/12/31/18:00:42.061,(10 13 3 6 2 -2 -1 0)
1969/12/31/18:00:42.063,(5 -5 -5 -5 -3 -2 -6 -1)
1969/12/31/18:00:42.063,(-14 -56 -20 1 0 6 7 0)
1969/12/31/18:00:42.076,(11 73 38 5 0 -2 5 3)
1969/12/31/18:00:42.076,(-6 -36 -24 -10 -2 5 2 4)
1969/12/31/18:00:42.078,(-4 -28 -20 -11 -5 -4 -3 -3)
1969/12/31/18:00:42.078,(12 85 53 18 5 -2 -9 -1)
1969/12/31/18:00:42.099,(-5 -30 -23 -8 -6 -4 -4 -4)
1969/12/31/18:00:42.099,(-1 -3 -9 -2 -1 -1 2 5)
1969/12/31/18:00:42.100,(-22 -24 -3 0 0 0 -5 -17)
1969/12/31/18:00:42.100,(4 -25 -27 -15 -6 0 9 8)
1969/12/31/18:00:42.113,(-3 7 26 5 -2 -5 -9 -5)
1969/12/31/18:00:42.113,(0 3 -8 -2 0 -1 -3 -2)
1969/12/31/18:00:42.121,(13 24 2 -2 -1 4 3 5)
1969/12/31/18:00:42.121,(-3 4 9 4 1 -3 -3 -5)
1969/12/31/18:00:42.136,(-8 -36 -42 -19 -8 -8 -5 -1)
1969/12/31/18:00:42.136,(-3 -6 2 12 2 0 -1 -5)
1969/12/31/18:00:42.138,(2 23 -2 -8 -3 -2 -7 -5)
1969/12/31/18:00:42.138,(2 11 1 7 3 2 -2 0)
1969/12/31/18:00:42.159,(-5 -18 -12 -5 -2 1 0 3)
1969/12/31/18:00:42.159,(2 0 -9 -7 -3 1 3 3)
1969/12/31/18:00:42.160,(-8 -21 4 -4 -4 -4 -3 0)
1969/12/31/18:00:42.160,(11 22 6 4 1 -4 -3 -1)
1969/12/31/18:00:42.172,(13 -17 -7 -13 -6 -1 0 5)
1969/12/31/18:00:42.172,(16 48 32 22 10 5 0 -3)
1969/12/31/18:00:42.181,(-30 -31 4 2 1 0 -4 -9)
1969/12/31/18:00:42.181,(-2 -28 -30 -26 -12 -5 0 0)
1969/12/31/18:00:42.196,(-16 -33 9 15 6 4 3 -1)
1969/12/31/18:00:42.196,(24 46 5 -2 3 4 3 9)
1969/12/31/18:00:42.196,(7 8 12 12 7 5 5 4)
1969/12/31/18:00:42.196,(-26 -62 -9 -18 -11 -6 -6 -6)
1969/12/31/18:00:42.218,(21 52 30 19 6 2 1 4)
1969/12/31/18:00:42.218,(-30 -36 -4 -18 -10 -7 -8 -11)
1969/12/31/18:00:42.219,(22 65 5 9 3 0 0 8)
1969/12/31/18:00:42.219,(12 47 23 14 3 0 2 2)
1969/12/31/18:00:42.240,(-6 -19 -7 4 1 3 6 8)
1969/12/31/18:00:42.240,(-15 -24 17 -5 -6 -1 -3 -6)
1969/12/31/18:00:42.241,(15 38 45 16 3 0 -1 2)
1969/12/31/18:00:42.241,(-15 -41 -7 0 3 2 0 -3)
1969/12/31/18:00:42.255,(35 70 -91 -26 -3 -5 -2 2)
1969/12/31/18:00:42.255,(-6 -23 -12 6 2 -2 0 -2)
1969/12/31/18:00:42.256,(4 -20 -1 -6 -4 -1 4 7)
1969/12/31/18:00:42.256,(-13 -34 1 0 -2 0 -3 -6)
1969/12/31/18:00:42.278,(-10 36 57 9 3 -4 -8 -16)
1969/12/31/18:00:42.279,(1 -23 -23 -4 -1 1 4 7)
1969/12/31/18:00:42.279,(-4 -11 -49 -42 -14 -8 -6 -4)
1969/12/31/18:00:42.279,(3 0 -2 28 13 7 0 2)
1969/12/31/18:00:42.301,(-5 -17 12 6 -2 1 1 5)
1969/12/31/18:00:42.301,(-9 -18 -5 -2 -2 -1 -3 -2)
1969/12/31/18:00:42.301,(3 27 25 18 8 4 1 -2)
1969/12/31/18:00:42.301,(-5 -19 -40 -31 -16 -4 -1 -2)
1969/12/31/18:00:42.315,(-7 -13 1 4 2 -3 -4 -6)
1969/12/31/18:00:42.315,(10 15 22 10 6 4 6 4)
1969/12/31/18:00:42.316,(-8 -24 -15 -3 -3 -1 -4 -6)
1969/12/31/18:00:42.316,(1 8 3 -7 -6 -6 -4 -3)
1969/12/31/18:00:42.338,(-4 -11 -5 1 0 0 -1 0)
1969/12/31/18:00:42.338,(1 9 -4 0 1 -2 0 2)
1969/12/31/18:00:42.339,(-9 -21 -5 3 3 0 -4 -4)
1969/12/31/18:00:42.339,(7 24 1 1 1 0 1 1)
1969/12/31/18:00:42.361,(-14 -20 12 -7 -6 -4 -4 -9)
1969/12/31/18:00:42.361,(4 -4 -17 -12 -2 -2 1 2)
1969/12/31/18:00:42.361,(-8 -10 1 -9 -5 -2 -3 -6)
1969/12/31/18:00:42.361,(9 22 11 6 0 -2 -2 0)
1969/12/31/18:00:42.383,(-6 -29 -20 0 -1 2 2 3)
1969/12/31/18:00:42.383,(1 -2 -2 6 2 3 -2 0)
1969/12/31/18:00:42.390,(6 26 17 13 4 0 2 3)
1969/12/31/18:00:42.390,(-5 -17 -30 -23 -9 -1 0 4)
1969/12/31/18:00:42.398,(-8 -18 -15 -8 -2 -4 -9 -16)
1969/12/31/18:00:42.398,(0 6 -3 0 -2 -3 -2 -3)
1969/12/31/18:00:42.399,(-2 -5 7 7 1 2 0 -1)
1969/12/31/18:00:42.399,(-3 -1 0 2 1 -1 0 1)
1969/12/31/18:00:42.421,(-1 -7 -13 -7 -2 -2 1 5)
1969/12/31/18:00:42.421,(0 5 -3 -6 -3 -1 -4 -5)
1969/12/31/18:00:42.421,(1 -11 -4 -3 -2 0 6 9)
1969/12/31/18:00:42.421,(-4 -12 -2 -5 -2 -3 -4 -6)
1969/12/31/18:00:42.435,(7 25 35 17 7 0 1 0)
1969/12/31/18:00:42.435,(-4 2 -4 -7 -6 -6 -4 -2)
1969/12/31/18:00:42.436,(-1 -4 -7 -4 -2 -1 0 -1)
1969/12/31/18:00:42.436,(1 12 5 12 6 1 -1 0)
1969/12/31/18:00:42.458,(-9 -23 -24 -17 -8 -3 -1 -2)
1969/12/31/18:00:42.458,(-4 -8 -9 -11 -5 -1 1 1)
1969/12/31/18:00:42.459,(3 5 4 9 3 0 -3 -4)
1969/12/31/18:00:42.459,(5 20 15 4 2 2 0 1)
1969/12/31/18:00:42.480,(-10 -22 -9 -8 -8 -4 -7 -7)
1969/12/31/18:00:42.481,(5 14 13 12 8 3 4 4)
1969/12/31/18:00:42.481,(1 3 -2 4 0 0 -2 -3)
1969/12/31/18:00:42.481,(-1 6 4 -2 0 -1 -3 -4)
1969/12/31/18:00:42.495,(-2 -8 -12 -11 -5 -1 0 3)
1969/12/31/18:00:42.495,(-6 -5 -5 -2 -2 -2 0 -4)
1969/12/31/18:00:42.496,(-4 0 -2 -8 -4 -3 -7 -5)
1969/12/31/18:00:42.496,(0 1 -1 -1 0 -1 0 -1)
1969/12/31/18:00:42.518,(0 2 -1 0 1 0 -1 1)
1969/12/31/18:00:42.518,(-2 -4 -2 -2 -1 0 0 1)
1969/12/31/18:00:42.519,(0 -3 0 2 1 0 0 1)
1969/12/31/18:00:42.519,(-1 3 -3 -1 0 -1 1 1)
1969/12/31/18:00:42.540,(0 -5 1 3 1 0 1 1)
1969/12/31/18:00:42.540,(1 1 -9 -5 1 0 -2 -5)
1969/12/31/18:00:42.541,(1 -1 2 3 0 1 3 2)
1969/12/31/18:00:42.541,(-1 3 1 2 1 0 -1 -4)
1969/12/31/18:00:42.555,(1 0 -4 -3 -3 -2 -1 0)
1969/12/31/18:00:42.555,(-1 -3 -3 -5 -5 -1 0 1)
1969/12/31/18:00:42.556,(-10 -7 -5 -2 -1 -1 -5 -10)
1969/12/31/18:00:42.556,(0 3 1 4 8 -1 1 0)
