time,.data
1969/12/31/18:00:08.196000,(0 3 5 8 2 0 1 0)
1969/12/31/18:00:08.196000,(1 -1 -1 -1 0 -2 2 3)
1969/12/31/18:00:08.204000,(3 2 0 1 0 -1 -3 -4)
1969/12/31/18:00:08.204000,(-1 -2 -2 0 -1 -1 -2 0)
1969/12/31/18:00:08.218000,(-2 0 -1 -2 -2 -1 0 -3)
1969/12/31/18:00:08.218000,(-3 -3 -2 -3 -3 0 -1 -1)
1969/12/31/18:00:08.226000,(-1 0 0 -1 -2 1 -2 -2)
1969/12/31/18:00:08.226000,(1 -1 0 3 0 1 0 0)
1969/12/31/18:00:08.235000,(-1 -2 -1 -2 -3 0 0 0)
1969/12/31/18:00:08.235000,(-3 -1 -2 -1 -2 -1 -3 -1)
1969/12/31/18:00:08.236000,(-5 -5 -7 -7 -4 -2 -1 -3)
1969/12/31/18:00:08.236000,(-3 0 -3 -4 -1 -1 -2 -2)
1969/12/31/18:00:08.256000,(0 -1 -3 -3 0 1 -2 0)
1969/12/31/18:00:08.256000,(0 0 -1 -1 -1 -2 -1 -1)
1969/12/31/18:00:08.263000,(-1 -1 1 -1 0 -1 0 -1)
1969/12/31/18:00:08.263000,(-2 -3 -2 -1 -1 -1 0 -1)
1969/12/31/18:00:08.278000,(1 1 2 4 1 0 -1 1)
1969/12/31/18:00:08.278000,(1 0 1 0 0 0 -2 1)
1969/12/31/18:00:08.286000,(-1 -1 0 0 1 0 0 -1)
1969/12/31/18:00:08.286000,(0 0 -1 -1 -1 -2 0 -1)
1969/12/31/18:00:08.302000,(-2 -1 -2 -2 -1 -3 -1 -2)
1969/12/31/18:00:08.302000,(0 -1 0 -1 -1 0 1 -2)
1969/12/31/18:00:08.303000,(-1 -2 0 -1 -1 -1 1 0)
1969/12/31/18:00:08.303000,(1 0 1 1 0 1 0 0)
1969/12/31/18:00:08.324000,(-2 -2 -1 -2 -1 -2 -2 -2)
1969/12/31/18:00:08.324000,(-1 1 -1 0 -2 -3 0 -2)
1969/12/31/18:00:08.325000,(-1 -1 0 1 0 -1 0 1)
1969/12/31/18:00:08.325000,(-1 0 -1 1 -1 -2 0 -3)
1969/12/31/18:00:08.339000,(-1 -3 -3 -2 -2 1 -1 -1)
1969/12/31/18:00:08.339000,(-1 -1 -1 0 0 0 1 0)
1969/12/31/18:00:08.346000,(-3 -1 -1 -1 0 -2 -3 1)
1969/12/31/18:00:08.346000,(0 0 -1 -2 -4 -2 -4 -1)
1969/12/31/18:00:08.353000,(-3 -1 0 0 -1 -1 -2 1)
1969/12/31/18:00:08.354000,(0 0 -1 0 -2 2 -1 -1)
1969/12/31/18:00:08.354000,(-1 -1 -1 -1 -2 -1 1 -1)
1969/12/31/18:00:08.354000,(1 2 5 4 0 1 1 1)
1969/12/31/18:00:08.377000,(-2 -4 -7 -5 -1 -2 -4 -2)
1969/12/31/18:00:08.377000,(-2 -4 -3 -8 -6 7 -2 -2)
1969/12/31/18:00:08.378000,(2 5 3 9 7 -6 -8 -3)
1969/12/31/18:00:08.378000,(-1 -1 7 5 -2 -14 3 0)
1969/12/31/18:00:08.399000,(0 3 3 4 -2 -4 1 2)
1969/12/31/18:00:08.399000,(0 -1 0 2 4 1 4 2)
1969/12/31/18:00:08.406000,(-4 -6 -11 -11 -7 2 5 0)
1969/12/31/18:00:08.406000,(-4 -3 -2 -8 -5 -4 -21 -6)
1969/12/31/18:00:08.422000,(0 1 -14 -12 -2 0 0 -1)
1969/12/31/18:00:08.422000,(-1 0 19 3 2 2 5 1)
1969/12/31/18:00:08.423000,(3 7 19 23 6 10 23 4)
1969/12/31/18:00:08.423000,(-2 0 -2 8 6 -4 -8 1)
1969/12/31/18:00:08.436000,(-2 -5 -5 -20 -9 -10 -7 -3)
1969/12/31/18:00:08.436000,(1 -1 -14 -10 -11 1 4 0)
1969/12/31/18:00:08.437000,(-2 -2 3 -1 1 0 -7 -1)
1969/12/31/18:00:08.437000,(-2 -5 -9 -14 -4 1 17 9)
1969/12/31/18:00:08.467000,(-2 -3 -6 4 -1 2 -7 -7)
1969/12/31/18:00:08.467000,(-2 -8 -20 -18 -3 -6 12 2)
1969/12/31/18:00:08.468000,(-4 0 7 -4 -6 -9 -17 -5)
1969/12/31/18:00:08.468000,(4 3 9 15 -1 -12 -12 1)
1969/12/31/18:00:08.474000,(-2 0 -19 -7 2 -3 -23 -13)
1969/12/31/18:00:08.474000,(3 6 36 20 15 34 20 5)
1969/12/31/18:00:08.474000,(-3 -9 -42 -18 -8 -26 2 7)
1969/12/31/18:00:08.474000,(4 6 17 -7 -2 -4 2 -1)
1969/12/31/18:00:08.496000,(4 2 10 18 3 -12 3 6)
1969/12/31/18:00:08.496000,(-3 -7 -23 -10 -3 -9 -14 -5)
1969/12/31/18:00:08.497000,(0 0 -4 -6 1 -2 -3 -3)
1969/12/31/18:00:08.497000,(-9 -11 -21 -13 -6 -3 2 -4)
1969/12/31/18:00:08.519000,(1 1 8 -2 2 3 7 3)
1969/12/31/18:00:08.519000,(3 9 15 25 9 -2 -5 -1)
1969/12/31/18:00:08.521000,(-3 0 7 -2 2 14 2 0)
1969/12/31/18:00:08.521000,(-5 -3 -17 -11 -5 8 -1 -3)
1969/12/31/18:00:08.533000,(-3 -4 7 -12 -4 14 6 -3)
1969/12/31/18:00:08.533000,(-1 2 0 10 -2 -8 -6 -1)
1969/12/31/18:00:08.535000,(4 8 19 7 -1 -2 -3 -4)
1969/12/31/18:00:08.535000,(-5 -5 -13 -1 1 7 -1 -13)
1969/12/31/18:00:08.556000,(-2 1 12 -4 -3 1 4 -3)
1969/12/31/18:00:08.556000,(2 5 12 -2 -8 -11 -15 -10)
1969/12/31/18:00:08.571000,(-4 -7 -5 3 0 4 -3 -7)
1969/12/31/18:00:08.571000,(-3 -4 -2 -2 -3 8 3 -3)
1969/12/31/18:00:08.579000,(-1 -3 -10 -9 -4 0 4 2)
1969/12/31/18:00:08.579000,(-3 4 7 6 -3 -6 -5 -2)
1969/12/31/18:00:08.586000,(3 -1 3 4 1 8 3 5)
1969/12/31/18:00:08.586000,(3 -7 -16 -11 -8 -3 -5 -7)
1969/12/31/18:00:08.593000,(1 -4 9 25 6 1 3 7)
1969/12/31/18:00:08.593000,(-3 0 -9 -10 0 3 0 3)
1969/12/31/18:00:08.601000,(0 9 11 4 -1 6 7 9)
1969/12/31/18:00:08.601000,(-3 0 1 0 1 1 -4 -6)
1969/12/31/18:00:08.616000,(-7 -2 -8 -6 -6 -4 -3 -9)
1969/12/31/18:00:08.616000,(6 1 -10 -4 -1 2 -1 2)
1969/12/31/18:00:08.617000,(-3 -14 -16 -10 -5 -6 -5 -7)
1969/12/31/18:00:08.617000,(-4 1 3 0 1 -2 0 -3)
1969/12/31/18:00:08.639000,(1 2 6 5 1 -2 -1 2)
1969/12/31/18:00:08.639000,(-1 -16 -17 -6 -1 -9 -2 1)
1969/12/31/18:00:08.640000,(2 3 -1 -8 -3 -5 0 3)
1969/12/31/18:00:08.640000,(0 -9 -15 -1 2 0 3 10)
1969/12/31/18:00:08.653000,(6 13 13 6 3 -6 0 5)
1969/12/31/18:00:08.653000,(-2 12 20 4 2 -4 -1 1)
1969/12/31/18:00:08.661000,(-4 -9 -14 -6 0 -1 -2 -1)
1969/12/31/18:00:08.661000,(8 7 7 5 4 -3 1 2)
1969/12/31/18:00:08.677000,(-15 -16 -3 1 3 0 1 -5)
1969/12/31/18:00:08.677000,(0 4 -10 -9 -2 -4 -2 -3)
1969/12/31/18:00:08.678000,(2 19 34 16 2 0 -4 -5)
1969/12/31/18:00:08.678000,(3 11 9 4 3 4 4 7)
1969/12/31/18:00:08.699000,(1 -24 -29 -14 -7 -1 -1 6)
1969/12/31/18:00:08.699000,(10 50 45 7 2 -1 -2 0)
1969/12/31/18:00:08.700000,(-8 -16 -10 -4 -3 0 -3 -4)
1969/12/31/18:00:08.700000,(1 7 5 0 1 4 8 4)
1969/12/31/18:00:08.713000,(-2 -4 0 0 -2 4 -7 -23)
1969/12/31/18:00:08.713000,(2 -22 -16 -4 -3 -4 -6 -13)
1969/12/31/18:00:08.721000,(-9 3 -3 -3 -2 1 6 11)
1969/12/31/18:00:08.721000,(-5 -4 2 -3 -4 1 2 4)
1969/12/31/18:00:08.737000,(-1 9 7 7 5 4 -6 -12)
1969/12/31/18:00:08.737000,(-5 -16 -14 -3 -2 1 2 4)
1969/12/31/18:00:08.738000,(36 9 1 -4 -4 -1 -1 -1)
1969/12/31/18:00:08.738000,(-15 -2 3 5 2 1 0 -6)
1969/12/31/18:00:08.759000,(5 3 0 -4 -4 -3 9 22)
1969/12/31/18:00:08.759000,(11 1 -5 -1 -1 -5 -21 -26)
1969/12/31/18:00:08.760000,(-15 -13 -9 -3 -2 -4 -3 -9)
1969/12/31/18:00:08.760000,(66 14 5 0 -1 2 6 14)
1969/12/31/18:00:08.773000,(-52 -4 3 1 3 3 12 12)
1969/12/31/18:00:08.773000,(-74 -41 -19 -13 -11 -19 -18 -36)
1969/12/31/18:00:08.781000,(37 12 0 1 5 20 12 24)
1969/12/31/18:00:08.781000,(-52 -23 -5 -4 -1 8 -16 -40)
1969/12/31/18:00:08.797000,(37 17 1 -2 -9 -43 -15 12)
1969/12/31/18:00:08.797000,(-4 -13 -14 -5 -5 8 17 0)
1969/12/31/18:00:08.798000,(2 18 6 7 4 -16 -10 2)
1969/12/31/18:00:08.798000,(4 -2 -8 -7 -7 8 24 25)
1969/12/31/18:00:08.818000,(22 2 2 10 14 7 -15 35)
1969/12/31/18:00:08.818000,(-12 -5 -11 -9 4 28 -2 -22)
1969/12/31/18:00:08.826000,(-18 -3 9 -2 -6 -41 -22 -20)
1969/12/31/18:00:08.826000,(-21 2 13 8 5 -15 -33 -35)
1969/12/31/18:00:08.842000,(36 4 -4 -8 -4 31 3 27)
1969/12/31/18:00:08.842000,(54 24 11 3 -11 -30 23 39)
1969/12/31/18:00:08.848000,(-14 -12 -11 -8 -3 3 -7 5)
1969/12/31/18:00:08.848000,(-34 4 13 10 10 20 -22 -75)
1969/12/31/18:00:08.856000,(0 5 0 -4 -11 7 -23 -49)
1969/12/31/18:00:08.856000,(8 -4 -2 -1 -7 -45 2 18)
1969/12/31/18:00:08.864000,(-11 -13 -7 -5 4 60 13 -16)
1969/12/31/18:00:08.864000,(0 -18 -7 -2 0 -4 13 39)
1969/12/31/18:00:08.879000,(18 19 0 -2 -5 -8 12 18)
1969/12/31/18:00:08.879000,(-14 -16 -7 0 2 -1 3 36)
1969/12/31/18:00:08.881000,(-29 -29 -12 -7 -8 -23 -12 -37)
1969/12/31/18:00:08.881000,(-21 -12 -13 -7 -4 -21 -26 -22)
1969/12/31/18:00:08.893000,(-8 -4 12 8 1 7 39 22)
1969/12/31/18:00:08.893000,(50 24 8 6 10 5 -10 85)
1969/12/31/18:00:08.902000,(10 -1 -5 -4 -5 -4 -14 -64)
1969/12/31/18:00:08.902000,(-36 -9 -4 -4 -6 -9 -5 1)
1969/12/31/18:00:08.916000,(8 9 1 3 5 -47 -42 -3)
1969/12/31/18:00:08.916000,(-6 2 2 1 7 68 44 -21)
1969/12/31/18:00:08.924000,(19 9 -1 4 4 12 56 89)
1969/12/31/18:00:08.924000,(-30 -17 -10 -10 -14 -28 -35 -35)
1969/12/31/18:00:08.939000,(-27 -19 -7 -4 3 17 14 10)
1969/12/31/18:00:08.939000,(-9 -4 -2 -2 -5 -41 -29 -36)
1969/12/31/18:00:08.941000,(1 12 4 4 -4 -2 16 -12)
1969/12/31/18:00:08.941000,(38 14 4 7 27 71 -17 21)
1969/12/31/18:00:08.961000,(-16 -3 -1 -1 -13 -49 27 -18)
1969/12/31/18:00:08.961000,(-1 0 3 5 11 38 -49 -44)
1969/12/31/18:00:08.977000,(-45 -3 -8 -9 2 13 -10 -94)
1969/12/31/18:00:08.977000,(98 36 22 15 -2 -63 44 97)
1969/12/31/18:00:08.978000,(-43 -26 -15 -15 0 60 -39 -60)
1969/12/31/18:00:08.978000,(-11 -1 4 3 -4 -28 23 18)
1969/12/31/18:00:08.983000,(18 1 -7 -6 -10 -32 -9 71)
1969/12/31/18:00:08.983000,(-1 4 5 3 2 7 20 -3)
1969/12/31/18:00:08.999000,(27 2 -3 0 2 18 10 -33)
1969/12/31/18:00:08.999000,(-57 -5 -9 -9 -11 -15 7 -41)
1969/12/31/18:00:09.001000,(43 6 8 4 8 23 0 63)
1969/12/31/18:00:09.001000,(-31 -50 -27 -15 -7 52 -9 6)
1969/12/31/18:00:09.022000,(-4 14 15 8 -2 -25 40 33)
1969/12/31/18:00:09.022000,(-22 -7 -4 0 2 22 14 41)
1969/12/31/18:00:09.024000,(6 8 0 -2 -3 -1 -3 -27)
1969/12/31/18:00:09.024000,(-19 2 1 -7 -15 -25 -16 -43)
1969/12/31/18:00:09.036000,(10 -16 -2 4 6 16 30 59)
1969/12/31/18:00:09.036000,(22 0 -4 -5 -2 8 -50 -71)
1969/12/31/18:00:09.043000,(-23 4 8 10 6 -5 11 17)
1969/12/31/18:00:09.043000,(-2 4 -5 -6 -7 -8 -15 -19)
1969/12/31/18:00:09.059000,(-27 -14 -14 -12 -8 -31 -8 -14)
1969/12/31/18:00:09.059000,(-12 -10 -1 -2 -3 5 16 -19)
1969/12/31/18:00:09.061000,(-15 -19 -9 -4 0 17 -30 -76)
1969/12/31/18:00:09.061000,(11 9 2 2 -3 -19 2 69)
1969/12/31/18:00:09.082000,(30 7 -3 -2 -3 29 7 -32)
1969/12/31/18:00:09.082000,(30 18 5 5 4 -37 -29 59)
1969/12/31/18:00:09.083000,(-61 -32 -18 -14 -13 -28 -18 -50)
1969/12/31/18:00:09.083000,(13 12 -3 -2 -3 13 19 -61)
1969/12/31/18:00:09.096000,(7 2 1 -1 2 -13 -58 -74)
1969/12/31/18:00:09.096000,(47 17 8 9 6 19 42 32)
1969/12/31/18:00:09.111000,(-39 -21 -11 -6 -8 -5 -8 4)
1969/12/31/18:00:09.111000,(10 8 8 5 3 16 -10 12)
1969/12/31/18:00:09.119000,(-7 -13 -6 -3 -9 -51 22 47)
1969/12/31/18:00:09.119000,(17 -2 0 4 7 13 -4 -24)
1969/12/31/18:00:09.121000,(29 3 -1 -2 -3 4 -4 37)
1969/12/31/18:00:09.121000,(21 17 4 -1 -2 -4 -2 -31)
1969/12/31/18:00:09.142000,(-18 8 2 -2 -3 2 -22 -54)
1969/12/31/18:00:09.142000,(21 -2 -3 -2 -3 19 22 99)
1969/12/31/18:00:09.143000,(14 16 17 14 10 -9 8 -1)
1969/12/31/18:00:09.143000,(-17 -10 -9 -9 -4 5 -2 -27)
1969/12/31/18:00:09.156000,(22 18 6 1 1 5 -1 29)
1969/12/31/18:00:09.156000,(-59 -26 -7 -1 3 12 -3 -27)
1969/12/31/18:00:09.163000,(19 -7 -9 -8 -7 -16 -2 37)
1969/12/31/18:00:09.163000,(-72 -20 -3 0 -6 -30 -17 -59)
1969/12/31/18:00:09.179000,(-31 -10 0 2 7 16 1 24)
1969/12/31/18:00:09.179000,(-4 9 -5 -8 -11 -8 -12 -38)
1969/12/31/18:00:09.181000,(-38 -16 -4 -3 -4 -9 1 -30)
1969/12/31/18:00:09.181000,(35 6 3 2 8 16 37 58)
1969/12/31/18:00:09.202000,(24 20 5 5 3 5 5 27)
1969/12/31/18:00:09.202000,(7 1 -3 -4 -5 -8 -20 4)
1969/12/31/18:00:09.203000,(-47 -28 -13 -10 -9 0 -4 -28)
1969/12/31/18:00:09.204000,(9 7 3 0 2 9 6 5)
1969/12/31/18:00:09.215000,(-3 -14 -9 -7 -10 -21 -24 -50)
1969/12/31/18:00:09.215000,(26 5 6 7 9 45 35 27)
1969/12/31/18:00:09.225000,(-12 7 2 0 6 -8 -20 -57)
1969/12/31/18:00:09.225000,(-12 -11 -8 -5 -16 -21 3 8)
1969/12/31/18:00:09.239000,(5 21 8 11 38 89 4 -12)
1969/12/31/18:00:09.239000,(17 -11 -4 -8 -39 -74 -23 -11)
1969/12/31/18:00:09.253000,(-4 5 5 5 -7 -11 55 56)
1969/12/31/18:00:09.253000,(23 27 8 4 3 -26 -50 7)
1969/12/31/18:00:09.262000,(1 -4 5 2 -12 0 15 13)
1969/12/31/18:00:09.262000,(-19 -6 -9 -10 3 1 -4 -33)
1969/12/31/18:00:09.263000,(42 25 7 11 15 25 19 87)
1969/12/31/18:00:09.263000,(-5 -4 4 4 6 7 43 19)
1969/12/31/18:00:09.275000,(22 13 3 4 24 23 14 68)
1969/12/31/18:00:09.276000,(-43 -12 -4 0 18 15 -7 -73)
1969/12/31/18:00:09.285000,(14 7 4 -2 -37 -76 -60 -33)
1969/12/31/18:00:09.285000,(43 21 9 14 24 13 27 59)
1969/12/31/18:00:09.299000,(-68 -34 -13 -5 -34 -37 -15 -27)
1969/12/31/18:00:09.299000,(-7 -22 -14 -26 -14 30 26 20)
1969/12/31/18:00:09.301000,(41 19 5 7 21 48 13 31)
1969/12/31/18:00:09.301000,(-5 -8 -7 -22 -71 -97 -29 -31)
1969/12/31/18:00:09.322000,(3 8 3 5 21 28 -8 -17)
1969/12/31/18:00:09.322000,(14 15 7 9 0 -5 8 17)
1969/12/31/18:00:09.323000,(-18 -13 -5 6 50 45 -15 -27)
1969/12/31/18:00:09.324000,(-9 -8 6 35 105 59 9 8)
1969/12/31/18:00:09.336000,(-36 -23 -20 -40 -114 -56 -30 -69)
1969/12/31/18:00:09.336000,(3 23 11 2 1 -5 13 35)
1969/12/31/18:00:09.344000,(25 7 -2 -12 -13 -15 -7 2)
1969/12/31/18:00:09.344000,(-1 -1 -3 -1 -1 16 14 2)
1969/12/31/18:00:09.359000,(30 23 18 36 68 -23 -4 3)
1969/12/31/18:00:09.359000,(7 -9 -2 0 -36 -12 -19 8)
1969/12/31/18:00:09.361000,(-13 -10 -10 -33 -70 -32 -10 -41)
1969/12/31/18:00:09.361000,(-26 -9 -6 -17 -14 6 -6 -23)
1969/12/31/18:00:09.381000,(29 9 -2 -1 28 24 41 95)
1969/12/31/18:00:09.381000,(9 7 9 21 49 6 -12 -6)
1969/12/31/18:00:09.396000,(15 16 9 26 35 14 9 2)
1969/12/31/18:00:09.396000,(-24 -19 -12 -11 -12 2 10 -7)
1969/12/31/18:00:09.404000,(14 -1 -2 -7 -26 -4 13 17)
1969/12/31/18:00:09.404000,(-25 -4 -2 1 10 -31 -28 -41)
1969/12/31/18:00:09.406000,(9 5 -1 1 6 18 11 11)
1969/12/31/18:00:09.406000,(43 20 6 0 -4 13 11 27)
1969/12/31/18:00:09.419000,(-28 -20 -12 -12 -12 -12 -10 -40)
1969/12/31/18:00:09.419000,(-2 -5 -12 -5 38 26 -7 -9)
1969/12/31/18:00:09.421000,(-7 -14 23 5 -64 -55 1 6)
1969/12/31/18:00:09.421000,(-23 -6 -4 -14 -38 -29 -6 -19)
1969/12/31/18:00:09.442000,(18 23 10 10 14 0 -3 -3)
1969/12/31/18:00:09.442000,(-41 -28 -11 1 8 4 -4 -11)
1969/12/31/18:00:09.443000,(15 0 -12 -7 34 23 39 37)
1969/12/31/18:00:09.444000,(31 30 -7 -11 -53 -25 -30 8)
1969/12/31/18:00:09.455000,(-31 -55 -21 -15 -5 -5 -4 -29)
1969/12/31/18:00:09.455000,(8 18 33 12 28 31 29 38)
1969/12/31/18:00:09.465000,(1 -4 -4 0 -29 -38 -14 -16)
1969/12/31/18:00:09.465000,(-23 -4 9 15 51 48 14 -15)
1969/12/31/18:00:09.479000,(24 -33 -74 -33 -32 -24 -7 -5)
1969/12/31/18:00:09.479000,(19 16 -23 -14 13 -11 -4 8)
1969/12/31/18:00:09.481000,(-18 12 60 25 -36 0 -20 -24)
1969/12/31/18:00:09.481000,(1 22 23 7 11 9 21 -10)
1969/12/31/18:00:09.502000,(-48 17 43 32 64 30 -22 -66)
1969/12/31/18:00:09.502000,(22 -8 -30 -20 -80 -59 -32 -47)
1969/12/31/18:00:09.503000,(13 6 -42 -23 18 5 -4 -5)
1969/12/31/18:00:09.503000,(13 -7 27 19 31 44 -4 16)
1969/12/31/18:00:09.516000,(11 -23 -25 10 38 -1 21 46)
1969/12/31/18:00:09.516000,(-47 -12 -8 -19 -63 -45 -23 -70)
1969/12/31/18:00:09.530000,(-42 12 -1 -8 6 10 6 -22)
1969/12/31/18:00:09.530000,(-11 -46 -41 -9 41 35 14 18)
1969/12/31/18:00:09.539000,(51 39 9 -9 -67 -55 4 39)
1969/12/31/18:00:09.539000,(-15 37 71 25 -6 -23 -31 -35)
1969/12/31/18:00:09.541000,(50 13 13 11 25 22 -22 -8)
1969/12/31/18:00:09.541000,(-89 -52 -18 -13 -2 -8 -10 -63)
1969/12/31/18:00:09.562000,(19 9 8 8 -28 7 7 15)
1969/12/31/18:00:09.562000,(12 -1 -59 -34 -25 -27 10 10)
1969/12/31/18:00:09.563000,(-39 -19 22 16 70 51 2 5)
1969/12/31/18:00:09.563000,(20 21 28 20 -4 -19 8 50)
1969/12/31/18:00:09.576000,(3 29 23 11 19 44 7 2)
1969/12/31/18:00:09.576000,(-22 8 9 -14 -40 -18 8 -5)
1969/12/31/18:00:09.585000,(31 -63 -56 -11 34 -8 -17 10)
1969/12/31/18:00:09.585000,(-8 24 3 -10 -58 -32 -24 -22)
1969/12/31/18:00:09.599000,(-20 26 36 12 -18 -23 -18 -13)
1969/12/31/18:00:09.599000,(-19 -22 -45 -7 45 44 31 21)
1969/12/31/18:00:09.601000,(4 35 39 14 33 24 10 32)
1969/12/31/18:00:09.601000,(7 -100 -71 -23 3 -7 -24 -3)
1969/12/31/18:00:09.622000,(41 -46 -89 -44 -26 -7 54 55)
1969/12/31/18:00:09.622000,(-15 88 117 48 -3 -9 -48 -22)
1969/12/31/18:00:09.623000,(-6 40 -29 8 27 36 43 27)
1969/12/31/18:00:09.623000,(38 121 95 18 -62 -61 -37 -38)
1969/12/31/18:00:09.635000,(11 -2 24 23 75 46 -12 9)
1969/12/31/18:00:09.635000,(34 -71 -95 -44 -46 -22 8 50)
1969/12/31/18:00:09.645000,(-19 -52 -29 -14 -6 6 3 -25)
1969/12/31/18:00:09.645000,(7 10 -21 -4 -3 16 26 13)
1969/12/31/18:00:09.658000,(-35 26 46 -3 -40 -42 -32 -86)
1969/12/31/18:00:09.658000,(24 -39 -10 18 71 45 -2 18)
1969/12/31/18:00:09.673000,(-25 -8 5 -14 -88 -100 -47 32)
1969/12/31/18:00:09.673000,(-17 -83 -94 -43 0 14 14 30)
1969/12/31/18:00:09.682000,(-49 -19 22 5 26 18 -1 -41)
1969/12/31/18:00:09.682000,(22 66 35 14 -17 11 -4 3)
1969/12/31/18:00:09.683000,(40 -29 -50 -12 34 33 36 29)
1969/12/31/18:00:09.683000,(11 -43 -29 -17 -44 -59 -32 -35)
1969/12/31/18:00:09.696000,(-39 62 24 11 28 24 -10 -8)
1969/12/31/18:00:09.696000,(84 72 100 53 1 5 39 114)
1969/12/31/18:00:09.705000,(-46 3 -36 -11 63 72 -8 -76)
1969/12/31/18:00:09.705000,(-13 -93 -12 -3 -48 -48 -5 36)
1969/12/31/18:00:09.719000,(28 46 -3 -20 -48 -38 -5 -15)
1969/12/31/18:00:09.719000,(-26 -31 -6 -13 -6 -26 -29 -1)
1969/12/31/18:00:09.721000,(20 9 20 15 14 18 29 19)
1969/12/31/18:00:09.721000,(15 -33 -43 -17 35 17 -21 -19)
1969/12/31/18:00:09.742000,(57 34 37 13 -46 -41 -20 59)
1969/12/31/18:00:09.743000,(-92 -57 -44 -14 -6 25 15 -37)
1969/12/31/18:00:09.748000,(48 -48 -38 -34 -82 -59 -3 84)
1969/12/31/18:00:09.748000,(0 93 83 45 36 3 -6 31)
1969/12/31/18:00:09.756000,(90 14 -19 1 21 28 43 12)
1969/12/31/18:00:09.756000,(-28 30 -17 -23 5 -41 -68 -117)
1969/12/31/18:00:09.765000,(-50 47 80 42 8 32 0 -20)
1969/12/31/18:00:09.765000,(-31 -84 -98 -24 21 66 30 -21)
1969/12/31/18:00:09.780000,(-12 52 68 32 8 -15 13 29)
1969/12/31/18:00:09.780000,(-20 -89 -68 -26 4 18 9 -49)
1969/12/31/18:00:09.781000,(-48 -30 -7 5 16 -4 18 -33)
1969/12/31/18:00:09.781000,(22 90 82 30 -1 -27 -15 -13)
1969/12/31/18:00:09.801000,(-57 -87 -81 -33 0 18 -21 -43)
1969/12/31/18:00:09.801000,(18 -8 20 5 -16 -46 14 24)
1969/12/31/18:00:09.809000,(18 -12 -19 6 57 40 16 45)
1969/12/31/18:00:09.809000,(-49 20 6 -37 -91 -87 -25 -59)
1969/12/31/18:00:09.825000,(14 -1 -15 -19 7 9 -23 9)
1969/12/31/18:00:09.825000,(38 8 11 12 75 88 38 58)
1969/12/31/18:00:09.826000,(-31 49 41 16 3 -6 -3 -32)
1969/12/31/18:00:09.826000,(34 5 -12 14 61 70 35 46)
1969/12/31/18:00:09.839000,(-47 -103 -48 -9 -3 -2 -4 -13)
1969/12/31/18:00:09.839000,(-13 1 -44 -21 -41 -39 -14 -9)
1969/12/31/18:00:09.846000,(26 80 56 23 7 -2 -3 -22)
1969/12/31/18:00:09.846000,(-12 66 99 34 15 16 15 21)
1969/12/31/18:00:09.862000,(15 -4 5 -11 -57 -48 -14 3)
1969/12/31/18:00:09.862000,(17 -71 -44 15 88 51 31 40)
1969/12/31/18:00:09.864000,(4 8 -25 -37 -109 -55 -37 -56)
1969/12/31/18:00:09.864000,(69 36 4 19 63 55 48 81)
1969/12/31/18:00:09.886000,(-56 -2 40 6 -47 -29 -3 -17)
1969/12/31/18:00:09.886000,(-41 -27 -5 -5 18 -20 -48 -58)
1969/12/31/18:00:09.888000,(58 -20 -56 -31 -55 -49 -9 30)
1969/12/31/18:00:09.888000,(12 41 43 21 27 -21 -12 3)
1969/12/31/18:00:09.899000,(-5 -54 -54 -19 0 16 10 -23)
1969/12/31/18:00:09.899000,(37 -30 -13 -4 60 79 29 5)
1969/12/31/18:00:09.906000,(1 41 23 -15 -113 -88 -40 -42)
1969/12/31/18:00:09.906000,(30 -28 -41 -12 43 33 14 12)
1969/12/31/18:00:09.922000,(-37 -23 22 24 30 48 19 3)
1969/12/31/18:00:09.922000,(-6 64 41 9 -53 -54 -13 -27)
1969/12/31/18:00:09.923000,(0 32 25 14 7 -43 -37 -3)
1969/12/31/18:00:09.923000,(8 -19 -16 0 -10 5 0 -19)
1969/12/31/18:00:09.943000,(-6 -76 -53 3 81 45 -7 -18)
1969/12/31/18:00:09.943000,(-3 4 -10 -11 -39 -8 -1 5)
1969/12/31/18:00:09.952000,(7 -8 -17 -33 -46 13 27 34)
1969/12/31/18:00:09.952000,(1 33 47 23 2 -12 3 13)
1969/12/31/18:00:09.959000,(-3 -28 -81 -16 63 42 0 -40)
1969/12/31/18:00:09.959000,(15 113 113 37 -37 -12 14 39)
1969/12/31/18:00:09.966000,(13 -32 -19 6 15 13 -3 11)
1969/12/31/18:00:09.966000,(-44 -63 -67 -35 -7 25 17 -9)
1969/12/31/18:00:09.989000,(-14 -22 8 -1 -14 -10 -7 18)
1969/12/31/18:00:09.989000,(57 -25 -49 -11 32 -8 22 44)
1969/12/31/18:00:09.991000,(-42 47 75 24 -27 5 3 -17)
1969/12/31/18:00:09.991000,(-4 -15 -22 -7 -10 -3 0 -3)
1969/12/31/18:00:10.004000,(42 -26 -36 -7 2 -8 -2 38)
1969/12/31/18:00:10.004000,(-46 24 45 14 1 -3 -2 -17)
1969/12/31/18:00:10.006000,(1 -12 -22 -2 57 39 -1 -15)
1969/12/31/18:00:10.006000,(5 -4 12 -5 -65 -47 -40 -19)
1969/12/31/18:00:10.019000,(-9 19 10 -3 0 -5 6 -2)
1969/12/31/18:00:10.019000,(-9 3 -4 3 -13 5 36 18)
1969/12/31/18:00:10.026000,(-5 -35 -31 -6 61 81 14 4)
1969/12/31/18:00:10.026000,(-37 -42 -21 -4 -1 -33 -14 -16)
1969/12/31/18:00:10.042000,(45 61 -15 -26 -36 -32 -9 -1)
1969/12/31/18:00:10.042000,(-32 55 93 54 65 59 30 -12)
1969/12/31/18:00:10.044000,(-23 -58 -28 -11 -35 -4 32 13)
1969/12/31/18:00:10.044000,(30 23 -38 -27 -36 -20 -43 -1)
1969/12/31/18:00:10.064000,(5 80 98 51 32 -6 14 -8)
1969/12/31/18:00:10.064000,(-1 -110 -111 -49 -42 -20 -32 -25)
1969/12/31/18:00:10.078000,(-10 40 56 18 72 41 17 8)
1969/12/31/18:00:10.078000,(85 -36 -58 -26 -48 -35 -4 48)
1969/12/31/18:00:10.088000,(-35 -32 6 6 22 -6 -8 -20)
1969/12/31/18:00:10.088000,(-44 -26 -20 -24 -58 -40 -38 -4)
1969/12/31/18:00:10.089000,(44 65 52 35 19 -16 -7 12)
1969/12/31/18:00:10.089000,(-31 -10 -21 -18 6 8 -15 -42)
1969/12/31/18:00:10.102000,(11 -43 -60 -15 -7 0 8 24)
1969/12/31/18:00:10.102000,(-1 31 26 10 9 -2 3 4)
1969/12/31/18:00:10.104000,(15 -90 -70 -20 -19 -24 -26 11)
1969/12/31/18:00:10.104000,(-55 32 66 56 127 68 30 -22)
1969/12/31/18:00:10.124000,(-4 30 -31 -40 -109 -40 -9 -41)
1969/12/31/18:00:10.125000,(-26 -43 -21 -26 -59 -50 -53 -54)
1969/12/31/18:00:10.126000,(2 -29 -13 -1 53 18 19 0)
1969/12/31/18:00:10.126000,(13 3 9 2 -13 1 32 13)
1969/12/31/18:00:10.139000,(32 -4 -29 -2 47 44 -28 44)
1969/12/31/18:00:10.139000,(-76 49 75 3 -66 -71 -31 8)
1969/12/31/18:00:10.145000,(29 111 102 55 31 28 35 53)
1969/12/31/18:00:10.145000,(4 2 -8 4 -18 -23 22 0)
1969/12/31/18:00:10.162000,(10 -56 -40 -18 7 21 -18 -18)
1969/12/31/18:00:10.162000,(36 -23 -14 6 18 24 27 45)
1969/12/31/18:00:10.163000,(-60 -113 -128 -52 -2 -7 -15 -40)
1969/12/31/18:00:10.163000,(-10 97 115 43 5 20 26 22)
1969/12/31/18:00:10.184000,(-18 60 29 6 -22 -11 28 27)
1969/12/31/18:00:10.184000,(41 -33 -70 -13 26 23 3 -23)
1969/12/31/18:00:10.186000,(9 -1 -1 4 7 -13 -14 6)
1969/12/31/18:00:10.186000,(18 -21 -6 1 18 29 3 2)
1969/12/31/18:00:10.198000,(-66 -72 -63 -40 -51 -10 -10 -48)
1969/12/31/18:00:10.198000,(-16 91 86 64 49 -9 -4 -9)
1969/12/31/18:00:10.213000,(21 -68 -108 -20 13 13 14 22)
1969/12/31/18:00:10.213000,(-76 -8 -8 -49 -109 -64 -26 -86)
1969/12/31/18:00:10.221000,(61 109 113 43 53 24 -3 19)
1969/12/31/18:00:10.221000,(35 -128 -128 -40 40 40 49 22)
1969/12/31/18:00:10.237000,(-18 -21 -10 -1 -58 -49 -38 -13)
1969/12/31/18:00:10.237000,(20 -37 -2 9 38 20 -19 16)
1969/12/31/18:00:10.244000,(30 12 9 11 12 13 22 46)
1969/12/31/18:00:10.244000,(-43 32 22 -1 -2 -14 -35 -55)
1969/12/31/18:00:10.246000,(5 42 56 10 17 24 16 -4)
1969/12/31/18:00:10.246000,(5 15 -42 -9 -7 -8 -1 13)
1969/12/31/18:00:10.258000,(-10 -49 4 -2 -9 -17 -10 -5)
1969/12/31/18:00:10.258000,(95 -12 -67 -2 19 50 38 62)
1969/12/31/18:00:10.267000,(-48 10 45 8 -30 -36 -15 -7)
1969/12/31/18:00:10.267000,(10 96 89 43 16 2 -7 -8)
1969/12/31/18:00:10.282000,(-23 -9 14 4 -24 -6 7 -1)
1969/12/31/18:00:10.282000,(38 -15 -25 12 84 31 23 34)
1969/12/31/18:00:10.284000,(14 -74 -83 -50 -88 26 25 22)
1969/12/31/18:00:10.284000,(-4 -46 -31 -13 -31 -58 -16 -7)
1969/12/31/18:00:10.304000,(-11 46 41 18 19 11 -14 -11)
1969/12/31/18:00:10.304000,(-17 4 13 -7 0 -11 -17 -8)
1969/12/31/18:00:10.306000,(8 -15 -14 0 16 3 6 26)
1969/12/31/18:00:10.306000,(-14 38 26 13 61 59 9 -11)
1969/12/31/18:00:10.318000,(-14 -73 -62 -15 -34 -33 13 19)
1969/12/31/18:00:10.318000,(47 25 -12 -11 -21 -8 -11 5)
1969/12/31/18:00:10.334000,(12 117 100 37 -11 -39 -47 -44)
1969/12/31/18:00:10.334000,(16 -122 -99 -36 -22 6 22 28)
1969/12/31/18:00:10.341000,(-9 27 -22 1 -7 2 18 1)
1969/12/31/18:00:10.341000,(-21 -15 20 -9 25 11 -12 -9)
1969/12/31/18:00:10.356000,(12 -75 -55 -6 28 12 9 2)
1969/12/31/18:00:10.356000,(-23 84 64 11 -10 -17 -12 -10)
1969/12/31/18:00:10.365000,(12 56 43 -20 -38 -25 -22 -26)
1969/12/31/18:00:10.365000,(1 -18 -7 4 -12 -26 7 15)
1969/12/31/18:00:10.367000,(11 -38 -44 -8 21 4 -36 -22)
1969/12/31/18:00:10.367000,(7 -128 -110 -10 71 49 20 54)
1969/12/31/18:00:10.378000,(-17 -14 15 3 -49 -34 -14 8)
1969/12/31/18:00:10.378000,(2 49 18 -29 -77 -31 12 1)
1969/12/31/18:00:10.387000,(-7 -5 -11 -4 20 16 16 -18)
1969/12/31/18:00:10.387000,(-38 83 95 38 4 -29 -28 -55)
1969/12/31/18:00:10.402000,(26 -13 -29 -6 35 1 -22 -7)
1969/12/31/18:00:10.402000,(67 -67 -70 -14 7 22 5 30)
1969/12/31/18:00:10.403000,(-29 55 78 23 -16 -21 2 -46)
1969/12/31/18:00:10.403000,(-7 15 7 10 -14 21 26 7)
1969/12/31/18:00:10.424000,(-4 18 31 12 40 11 -10 -14)
1969/12/31/18:00:10.424000,(-10 -38 -74 -22 -26 -12 10 -8)
1969/12/31/18:00:10.426000,(-3 -69 -16 -6 3 -4 -21 12)
1969/12/31/18:00:10.426000,(23 7 -5 5 31 27 6 8)
1969/12/31/18:00:10.438000,(-39 53 78 12 -29 -29 -26 -17)
1969/12/31/18:00:10.438000,(-1 47 20 0 -15 5 15 -2)
1969/12/31/18:00:10.447000,(-15 -65 -65 -18 19 13 22 17)
1969/12/31/18:00:10.447000,(-20 5 1 3 -26 -1 -14 -38)
1969/12/31/18:00:10.461000,(20 -91 -52 20 107 36 15 41)
1969/12/31/18:00:10.461000,(4 -88 -65 -61 -105 -56 -25 -12)
1969/12/31/18:00:10.469000,(7 127 127 40 24 -11 24 9)
1969/12/31/18:00:10.469000,(6 -47 -51 -44 -65 -37 -64 -36)
1969/12/31/18:00:10.483000,(-1 -13 -22 -8 21 37 28 2)
1969/12/31/18:00:10.483000,(-27 -74 1 30 20 28 13 7)
1969/12/31/18:00:10.498000,(17 -38 -74 -27 1 -6 0 14)
1969/12/31/18:00:10.498000,(-12 -39 -56 -22 -7 -6 -21 -12)
1969/12/31/18:00:10.506000,(-17 73 50 5 -22 -15 -10 -29)
1969/12/31/18:00:10.506000,(-23 90 96 46 53 35 16 1)
1969/12/31/18:00:10.515000,(-13 -50 -56 -45 -97 -50 -35 -24)
1969/12/31/18:00:10.515000,(43 -24 -17 -10 30 12 4 45)
1969/12/31/18:00:10.522000,(37 48 17 22 -31 -7 12 7)
1969/12/31/18:00:10.522000,(-69 25 42 21 46 25 -11 -28)
1969/12/31/18:00:10.523000,(-8 -24 -29 -27 -37 -15 24 16)
1969/12/31/18:00:10.523000,(6 9 7 -10 -23 -26 11 9)
1969/12/31/18:00:10.544000,(-1 -4 38 26 19 1 -18 -6)
1969/12/31/18:00:10.544000,(33 113 91 58 47 39 21 27)
1969/12/31/18:00:10.546000,(47 127 101 25 16 15 14 19)
1969/12/31/18:00:10.546000,(-41 -108 -78 -27 -13 -6 2 -1)
1969/12/31/18:00:10.558000,(58 -8 -16 2 14 10 25 56)
1969/12/31/18:00:10.558000,(10 -5 -67 -30 -7 -1 8 -13)
1969/12/31/18:00:10.567000,(-64 -120 0 -1 27 -3 -42 -52)
1969/12/31/18:00:10.567000,(26 115 46 45 44 15 36 34)
1969/12/31/18:00:10.581000,(17 23 -8 -13 -50 -19 -17 -21)
1969/12/31/18:00:10.581000,(-24 -91 -45 -50 -74 -45 -7 3)
1969/12/31/18:00:10.588000,(-6 -60 -82 -35 30 1 -22 -6)
1969/12/31/18:00:10.588000,(6 44 12 11 33 22 20 1)
1969/12/31/18:00:10.604000,(-39 -30 41 37 50 39 4 -18)
1969/12/31/18:00:10.604000,(-9 17 39 10 -28 -24 -5 -4)
1969/12/31/18:00:10.606000,(2 -71 -60 -21 -7 34 10 9)
1969/12/31/18:00:10.606000,(46 42 2 32 -1 -12 21 45)
1969/12/31/18:00:10.618000,(-3 57 -4 -16 -14 -9 -6 -40)
1969/12/31/18:00:10.618000,(-64 36 66 28 41 26 4 -18)
1969/12/31/18:00:10.633000,(27 -14 -11 17 31 22 15 19)
1969/12/31/18:00:10.633000,(5 43 68 -9 -65 -60 -44 -17)
1969/12/31/18:00:10.642000,(-2 -128 -109 -54 -28 -21 -2 12)
1969/12/31/18:00:10.642000,(51 44 -10 0 14 9 5 30)
1969/12/31/18:00:10.643000,(25 18 3 12 12 32 4 7)
1969/12/31/18:00:10.643000,(-14 -48 -12 -29 -31 -26 -29 -21)
1969/12/31/18:00:10.665000,(-46 -43 -48 -30 -15 13 23 -24)
1969/12/31/18:00:10.665000,(31 14 -21 -6 -12 -23 -19 0)
1969/12/31/18:00:10.667000,(-50 102 95 45 -4 -30 -39 -41)
1969/12/31/18:00:10.667000,(-11 -112 -63 -9 27 6 -14 -9)
1969/12/31/18:00:10.678000,(61 56 46 23 -6 8 28 64)
1969/12/31/18:00:10.678000,(15 33 37 8 22 42 9 -31)
1969/12/31/18:00:10.687000,(5 -49 -48 -38 -81 -79 -7 11)
1969/12/31/18:00:10.687000,(-54 35 8 -7 6 5 -21 -43)
1969/12/31/18:00:10.702000,(-6 -40 -64 -8 32 11 21 10)
1969/12/31/18:00:10.702000,(10 -86 -38 -14 -15 9 2 21)
1969/12/31/18:00:10.704000,(7 111 85 54 58 0 -2 -3)
1969/12/31/18:00:10.704000,(-28 -53 -29 -11 13 33 18 -25)
1969/12/31/18:00:10.724000,(-41 -30 -54 -27 -29 -26 -34 -41)
1969/12/31/18:00:10.724000,(5 34 38 24 46 53 19 8)
1969/12/31/18:00:10.726000,(-3 -15 -8 -14 -71 -49 6 25)
1969/12/31/18:00:10.726000,(-27 -52 -49 -41 11 -1 -15 -27)
1969/12/31/18:00:10.738000,(10 -22 -19 3 35 23 14 24)
1969/12/31/18:00:10.738000,(-13 53 56 15 -42 -37 -14 -22)
1969/12/31/18:00:10.747000,(3 -21 14 26 71 56 27 26)
1969/12/31/18:00:10.747000,(19 1 1 36 48 37 25 21)
1969/12/31/18:00:10.761000,(-23 60 10 -26 -106 -83 -39 -36)
1969/12/31/18:00:10.761000,(-9 -60 -19 -19 -3 -19 -10 13)
1969/12/31/18:00:10.776000,(15 38 35 9 11 15 19 2)
1969/12/31/18:00:10.776000,(13 -49 -36 -18 -19 -3 -2 9)
1969/12/31/18:00:10.784000,(54 23 29 18 65 41 30 47)
1969/12/31/18:00:10.785000,(-33 -6 -19 16 -7 -32 -37 -69)
1969/12/31/18:00:10.786000,(0 -53 -53 -28 -10 2 -7 17)
1969/12/31/18:00:10.786000,(2 47 52 6 -24 0 15 18)
1969/12/31/18:00:10.798000,(38 -10 -12 7 82 43 17 98)
1969/12/31/18:00:10.798000,(19 11 -1 6 -80 -66 -6 35)
1969/12/31/18:00:10.807000,(-3 -14 -12 12 52 26 -15 -28)
1969/12/31/18:00:10.807000,(-18 -34 -75 -59 -79 -32 -6 -24)
1969/12/31/18:00:10.822000,(-12 88 106 35 5 7 3 -6)
1969/12/31/18:00:10.822000,(20 18 -12 -3 31 17 1 3)
1969/12/31/18:00:10.823000,(0 -14 -20 6 7 -2 -2 -10)
1969/12/31/18:00:10.823000,(6 4 0 11 -4 8 20 47)
1969/12/31/18:00:10.844000,(-18 -17 -36 -46 -49 -30 -37 -63)
1969/12/31/18:00:10.844000,(-70 -114 -86 -31 10 6 -20 -31)
1969/12/31/18:00:10.846000,(39 127 49 9 -52 -14 5 7)
1969/12/31/18:00:10.846000,(2 32 73 59 53 18 1 -18)
1969/12/31/18:00:10.867000,(-41 -45 5 14 17 -3 -14 -41)
1969/12/31/18:00:10.867000,(-5 -47 -51 -34 -14 -12 -9 6)
1969/12/31/18:00:10.868000,(-25 -49 -53 -42 -21 -2 4 4)
1969/12/31/18:00:10.868000,(10 31 26 6 -25 -21 -9 -6)
1969/12/31/18:00:10.881000,(17 -5 -13 7 24 11 21 18)
1969/12/31/18:00:10.881000,(16 12 -6 -8 -31 -10 -4 -1)
1969/12/31/18:00:10.888000,(-24 -73 -34 -16 18 5 -19 -16)
1969/12/31/18:00:10.888000,(-2 24 4 10 14 -7 -16 -14)
1969/12/31/18:00:10.903000,(-5 20 -8 27 -9 -6 -2 -15)
1969/12/31/18:00:10.903000,(32 40 8 -3 14 12 13 15)
1969/12/31/18:00:10.918000,(-32 -16 -2 -21 -44 -18 4 -4)
1969/12/31/18:00:10.918000,(48 -36 -44 -52 -8 11 16 33)
1969/12/31/18:00:10.927000,(-41 -43 -15 35 23 -1 -12 -20)
1969/12/31/18:00:10.927000,(-22 15 36 21 0 -7 -9 -18)
1969/12/31/18:00:10.928000,(-3 12 -4 8 42 35 9 -4)
1969/12/31/18:00:10.928000,(35 22 24 19 6 6 17 34)
1969/12/31/18:00:10.942000,(-19 3 4 -16 -41 -26 -38 -25)
1969/12/31/18:00:10.942000,(16 3 7 16 16 6 32 3)
1969/12/31/18:00:10.949000,(42 0 -10 -15 -21 -21 -31 -45)
1969/12/31/18:00:10.949000,(-5 1 -3 -12 -7 2 4 13)
1969/12/31/18:00:10.965000,(-65 -93 -57 -26 14 24 1 -37)
1969/12/31/18:00:10.965000,(36 47 58 33 22 11 9 26)
1969/12/31/18:00:10.966000,(36 68 72 28 13 -5 7 24)
1969/12/31/18:00:10.966000,(-24 -5 2 9 6 4 -12 -38)
1969/12/31/18:00:10.987000,(38 1 -15 -12 -13 -8 -17 29)
1969/12/31/18:00:10.987000,(-16 -49 -46 -32 -38 -44 -36 -30)
1969/12/31/18:00:10.989000,(12 13 4 1 9 11 23 15)
1969/12/31/18:00:10.989000,(-31 1 -12 -29 -11 -15 -13 -21)
1969/12/31/18:00:11.001000,(-18 -7 28 63 50 17 25 5)
1969/12/31/18:00:11.001000,(25 -1 -9 -30 3 31 22 41)
1969/12/31/18:00:11.008000,(-2 15 8 32 12 -19 -28 -31)
1969/12/31/18:00:11.008000,(16 -18 -11 -14 -35 -14 33 45)
1969/12/31/18:00:11.024000,(2 -13 -21 -31 16 38 -28 -19)
1969/12/31/18:00:11.024000,(-16 9 3 11 20 -17 4 -37)
1969/12/31/18:00:11.026000,(-20 -7 -9 -30 -38 -42 5 17)
1969/12/31/18:00:11.026000,(52 16 8 -3 -3 12 9 23)
1969/12/31/18:00:11.046000,(22 26 22 14 7 3 32 17)
1969/12/31/18:00:11.046000,(52 18 5 16 11 8 -61 21)
1969/12/31/18:00:11.061000,(-78 -52 -31 -16 -5 -2 -16 -20)
1969/12/31/18:00:11.061000,(-3 -7 -1 13 14 8 -2 0)
1969/12/31/18:00:11.069000,(3 2 15 -9 -25 -26 -9 -12)
1969/12/31/18:00:11.069000,(-19 -30 -23 -17 3 9 19 10)
1969/12/31/18:00:11.071000,(84 44 6 11 5 13 21 50)
1969/12/31/18:00:11.071000,(-33 16 4 9 7 -12 -35 -54)
1969/12/31/18:00:11.084000,(-75 -54 -15 -22 -28 -16 -6 -20)
1969/12/31/18:00:11.084000,(20 18 9 10 3 4 16 14)
1969/12/31/18:00:11.086000,(28 3 -2 4 2 15 11 33)
1969/12/31/18:00:11.086000,(69 31 15 11 7 3 3 15)
1969/12/31/18:00:11.107000,(8 14 -2 -12 -5 -13 2 12)
1969/12/31/18:00:11.107000,(-75 -44 -21 -8 -10 -3 -17 -66)
1969/12/31/18:00:11.108000,(49 4 4 10 9 14 17 34)
1969/12/31/18:00:11.108000,(-66 -27 -4 -3 -3 -10 -19 -34)
1969/12/31/18:00:11.121000,(47 11 0 -8 -15 -9 5 17)
1969/12/31/18:00:11.121000,(2 -12 -2 1 6 1 0 5)
1969/12/31/18:00:11.130000,(32 33 16 11 8 15 18 39)
1969/12/31/18:00:11.130000,(-1 -17 -20 -11 -11 -16 -28 -46)
1969/12/31/18:00:11.144000,(-8 6 7 3 -4 0 2 -2)
1969/12/31/18:00:11.144000,(-69 -23 -5 -7 -5 -1 0 -18)
1969/12/31/18:00:11.146000,(7 3 -1 -2 1 1 0 -2)
1969/12/31/18:00:11.146000,(37 14 7 14 15 12 13 19)
1969/12/31/18:00:11.167000,(-30 3 -8 -7 -12 -13 -14 -28)
1969/12/31/18:00:11.167000,(38 8 4 -1 1 2 9 35)
1969/12/31/18:00:11.169000,(-36 -12 1 1 0 -2 -9 -37)
1969/12/31/18:00:11.169000,(-15 -3 -1 -1 1 2 2 2)
1969/12/31/18:00:11.181000,(19 3 -6 -12 -8 -2 -2 1)
1969/12/31/18:00:11.181000,(13 8 3 12 4 3 6 13)
1969/12/31/18:00:11.196000,(-37 -22 7 7 1 -2 -12 -27)
1969/12/31/18:00:11.196000,(-9 8 12 14 8 5 7 10)
1969/12/31/18:00:11.204000,(64 24 3 0 -3 -2 7 19)
1969/12/31/18:00:11.204000,(-39 -18 -15 -10 -2 1 -1 -7)
1969/12/31/18:00:11.206000,(-33 -10 -9 -8 -2 -3 -4 -19)
1969/12/31/18:00:11.206000,(26 -7 -10 -9 -4 -2 4 15)
1969/12/31/18:00:11.227000,(-31 -32 -16 -11 -7 -2 1 -2)
1969/12/31/18:00:11.227000,(25 37 10 8 2 -1 -4 -7)
1969/12/31/18:00:11.228000,(-1 5 24 5 -4 -2 -1 -3)
1969/12/31/18:00:11.229000,(-10 -12 2 12 9 5 6 10)
1969/12/31/18:00:11.241000,(4 10 10 2 -4 -4 -8 -4)
1969/12/31/18:00:11.241000,(11 -15 -23 -10 -4 -3 1 2)
1969/12/31/18:00:11.250000,(-29 5 2 0 0 3 20 -1)
1969/12/31/18:00:11.250000,(-46 -49 -9 -10 -8 -11 -34 -21)
1969/12/31/18:00:11.264000,(0 -2 -6 1 0 0 -4 -6)
1969/12/31/18:00:11.265000,(6 5 -2 -12 -4 1 13 4)
1969/12/31/18:00:11.266000,(-2 -23 -38 -15 -9 -6 -5 -10)
1969/12/31/18:00:11.266000,(-4 42 36 9 7 6 28 11)
1969/12/31/18:00:11.287000,(-4 14 27 13 2 0 -21 -9)
1969/12/31/18:00:11.287000,(-6 -8 -1 1 -1 -5 -18 -17)
1969/12/31/18:00:11.288000,(7 -10 -12 -6 2 -1 -8 4)
1969/12/31/18:00:11.288000,(-7 -17 -34 -12 -6 -2 6 -4)
1969/12/31/18:00:11.301000,(-20 -52 -34 -22 -13 -9 -10 -11)
1969/12/31/18:00:11.301000,(11 23 48 24 10 7 21 9)
1969/12/31/18:00:11.309000,(3 74 56 21 7 1 -17 -3)
1969/12/31/18:00:11.309000,(1 -1 -9 -1 -4 -5 6 7)
1969/12/31/18:00:11.323000,(4 3 -4 -3 -1 0 13 8)
1969/12/31/18:00:11.323000,(-13 -52 -43 -18 -8 -8 -24 -8)
1969/12/31/18:00:11.338000,(-6 -37 -30 -13 -4 4 17 -6)
1969/12/31/18:00:11.338000,(4 10 17 2 -4 -10 -22 -6)
1969/12/31/18:00:11.347000,(6 21 14 8 0 0 3 -5)
1969/12/31/18:00:11.347000,(-1 -24 -37 -20 -6 -3 4 8)
1969/12/31/18:00:11.348000,(2 17 41 20 7 0 -8 -7)
1969/12/31/18:00:11.348000,(0 -16 -29 -7 2 12 18 8)
1969/12/31/18:00:11.361000,(0 17 16 0 0 2 13 3)
1969/12/31/18:00:11.361000,(-1 3 6 7 0 -5 -8 -5)
1969/12/31/18:00:11.369000,(-5 12 4 -1 2 -3 -6 -5)
1969/12/31/18:00:11.370000,(-4 -16 -5 1 -2 1 0 -1)
1969/12/31/18:00:11.384000,(20 60 37 15 6 3 10 15)
1969/12/31/18:00:11.384000,(-4 -37 -6 7 6 4 -10 -9)
1969/12/31/18:00:11.386000,(-21 -47 -47 -25 -13 -5 -6 -9)
1969/12/31/18:00:11.386000,(0 26 32 10 2 -4 -9 -2)
1969/12/31/18:00:11.407000,(3 -7 -10 0 5 7 25 6)
1969/12/31/18:00:11.407000,(6 20 7 -9 -7 -7 -26 -11)
1969/12/31/18:00:11.408000,(-4 -54 -69 -28 -12 -4 -2 5)
1969/12/31/18:00:11.408000,(-6 38 51 22 8 6 -12 -12)
1969/12/31/18:00:11.421000,(4 -9 -10 -8 -6 -4 -7 -5)
1969/12/31/18:00:11.421000,(-4 4 4 1 -1 0 2 0)
1969/12/31/18:00:11.430000,(2 3 -2 10 4 6 3 -5)
1969/12/31/18:00:11.430000,(-13 -19 2 -13 -5 6 6 1)
1969/12/31/18:00:11.444000,(2 -48 -24 -7 -1 0 -1 -3)
1969/12/31/18:00:11.444000,(-7 30 25 11 0 3 -15 -12)
1969/12/31/18:00:11.446000,(5 13 2 -2 -5 -3 -5 -3)
1969/12/31/18:00:11.446000,(-14 -75 -39 -20 -9 -3 12 8)
1969/12/31/18:00:11.466000,(7 48 4 0 1 -7 -17 -4)
1969/12/31/18:00:11.466000,(-16 -34 -11 -6 -4 -9 18 13)
1969/12/31/18:00:11.481000,(19 32 28 19 9 -11 -8 -2)
1969/12/31/18:00:11.481000,(5 -13 -21 22 11 -2 -3 0)
1969/12/31/18:00:11.482000,(-30 -76 -40 -28 -12 -10 -2 2)
1969/12/31/18:00:11.482000,(22 57 -2 -3 4 -4 5 -2)
1969/12/31/18:00:11.490000,(-37 -24 -16 -13 -4 1 1 1)
1969/12/31/18:00:11.490000,(9 -9 15 7 6 3 8 3)
1969/12/31/18:00:11.504000,(26 89 29 18 4 -3 -6 -5)
1969/12/31/18:00:11.505000,(-6 -7 -18 -7 -2 3 4 0)
1969/12/31/18:00:11.506000,(5 -15 -7 -13 -9 -3 -5 0)
1969/12/31/18:00:11.506000,(-9 0 -10 -12 -4 1 -3 -7)
1969/12/31/18:00:11.527000,(-28 -55 -25 -12 -7 1 1 -2)
1969/12/31/18:00:11.527000,(14 4 -29 -31 -15 -7 -8 -4)
1969/12/31/18:00:11.528000,(3 -17 9 19 7 6 4 -5)
1969/12/31/18:00:11.528000,(-1 -36 -48 -15 -6 -3 -12 1)
1969/12/31/18:00:11.541000,(-6 -16 21 15 2 1 -4 -9)
1969/12/31/18:00:11.541000,(-7 3 30 10 -1 5 8 0)
1969/12/31/18:00:11.550000,(11 36 17 4 0 4 -1 -2)
1969/12/31/18:00:11.550000,(-7 -9 5 3 -5 -1 -5 -13)
1969/12/31/18:00:11.565000,(-11 -30 -28 -28 -16 -1 -1 3)
1969/12/31/18:00:11.565000,(7 29 34 28 9 5 0 -1)
1969/12/31/18:00:11.566000,(-13 -35 -11 -10 -6 0 4 4)
1969/12/31/18:00:11.566000,(17 64 54 8 3 -2 -4 -2)
1969/12/31/18:00:11.587000,(13 39 25 20 10 2 -3 -2)
1969/12/31/18:00:11.587000,(-18 -51 -9 2 1 3 5 1)
1969/12/31/18:00:11.588000,(14 37 13 12 5 4 1 2)
1969/12/31/18:00:11.589000,(-13 -19 -11 -12 -7 -4 0 -1)
1969/12/31/18:00:11.600000,(13 12 10 8 3 1 2 9)
1969/12/31/18:00:11.600000,(-4 -11 -18 -6 -3 -5 -4 -6)
1969/12/31/18:00:11.615000,(-10 -37 -20 -12 -5 -10 1 4)
1969/12/31/18:00:11.615000,(14 18 -18 -5 1 -12 1 11)
1969/12/31/18:00:11.624000,(3 -24 -34 -3 0 -13 4 15)
1969/12/31/18:00:11.624000,(3 -7 -10 -3 3 -12 3 14)
1969/12/31/18:00:11.626000,(9 -20 -30 -10 1 -18 1 16)
1969/12/31/18:00:11.626000,(7 38 -4 -7 0 -12 3 10)
1969/12/31/18:00:11.647000,(-9 -23 -18 -14 3 -9 0 1)
1969/12/31/18:00:11.647000,(1 28 20 16 13 0 4 1)
1969/12/31/18:00:11.648000,(-11 -22 5 -3 1 -2 -1 -11)
1969/12/31/18:00:11.648000,(7 17 6 6 3 6 2 -5)
1969/12/31/18:00:11.661000,(-8 -8 -12 -13 -10 3 -5 -11)
1969/12/31/18:00:11.661000,(-6 -17 -8 -8 -4 8 0 -10)
1969/12/31/18:00:11.670000,(3 16 10 3 -4 8 -2 -6)
1969/12/31/18:00:11.670000,(-9 -21 -11 -4 -4 5 -3 -9)
1969/12/31/18:00:11.684000,(0 8 18 7 2 4 -1 -3)
1969/12/31/18:00:11.684000,(-1 -7 8 0 0 5 0 0)
1969/12/31/18:00:11.691000,(4 34 13 0 -2 -4 -7 -7)
1969/12/31/18:00:11.691000,(-2 -13 0 5 1 -3 -2 2)
1969/12/31/18:00:11.707000,(1 -3 2 5 0 1 0 0)
1969/12/31/18:00:11.707000,(7 36 22 7 0 1 0 -2)
1969/12/31/18:00:11.708000,(-2 -14 -9 -6 -3 3 -2 -2)
1969/12/31/18:00:11.708000,(5 5 -5 -4 -4 1 -4 -2)
1969/12/31/18:00:11.721000,(-3 7 8 1 -1 1 -1 -3)
1969/12/31/18:00:11.721000,(-8 -12 -12 -7 -2 0 -2 -5)
1969/12/31/18:00:11.736000,(8 13 30 17 4 5 0 1)
1969/12/31/18:00:11.736000,(-5 -8 4 6 3 3 -1 -1)
1969/12/31/18:00:11.744000,(2 8 6 2 -4 -1 -4 -3)
1969/12/31/18:00:11.744000,(-8 -11 -9 -6 -6 1 -5 -9)
1969/12/31/18:00:11.752000,(-3 -11 1 6 -1 0 -4 -6)
1969/12/31/18:00:11.752000,(-5 -8 -2 -3 -3 3 2 -2)
1969/12/31/18:00:11.766000,(0 1 1 0 -2 2 -6 -7)
1969/12/31/18:00:11.766000,(6 1 -2 -2 0 -1 -2 1)
1969/12/31/18:00:11.775000,(0 0 -2 -2 -1 -2 -4 -1)
1969/12/31/18:00:11.775000,(4 7 5 4 1 0 -2 -2)
1969/12/31/18:00:11.789000,(0 -2 -5 1 -2 -1 5 2)
1969/12/31/18:00:11.789000,(-3 -4 -4 -2 -2 -3 -3 -2)
1969/12/31/18:00:11.791000,(-4 -6 -9 -2 1 -2 -2 -4)
1969/12/31/18:00:11.791000,(-3 -4 -4 -5 -3 -1 2 0)
1969/12/31/18:00:11.803000,(4 7 0 -2 0 -1 -2 0)
1969/12/31/18:00:11.803000,(-1 -9 -7 -6 -2 -2 0 1)
1969/12/31/18:00:11.826000,(-5 -8 -8 -5 -3 -1 0 0)
1969/12/31/18:00:11.826000,(3 13 3 0 3 3 0 0)
1969/12/31/18:00:11.826000,(53 11 -10 -8 -2 -4 10 59)
1969/12/31/18:00:11.826000,(-20 -1 -3 -1 3 -5 -6 -22)
1969/12/31/18:00:11.834000,(-7 -4 1 0 2 -3 -5 -12)
1969/12/31/18:00:11.834000,(7 -16 -8 -7 -3 -6 6 12)
1969/12/31/18:00:11.841000,(-34 0 5 3 1 8 -7 -32)
1969/12/31/18:00:11.841000,(11 -3 -6 -7 -3 -2 5 7)
1969/12/31/18:00:11.842000,(44 20 8 3 4 4 -20 15)
1969/12/31/18:00:11.842000,(-10 -1 -1 -5 -3 23 39 -1)
1969/12/31/18:00:11.864000,(6 4 6 1 -4 -39 -46 -9)
1969/12/31/18:00:11.864000,(16 10 3 1 0 -1 0 14)
1969/12/31/18:00:11.865000,(-19 -8 -2 0 -1 -11 -5 -20)
1969/12/31/18:00:11.865000,(8 -8 0 3 3 13 -8 8)
1969/12/31/18:00:11.878000,(-10 -3 -1 -1 1 15 14 -7)
1969/12/31/18:00:11.878000,(-25 -15 -5 3 4 18 -6 16)
1969/12/31/18:00:11.894000,(-19 -8 -5 -9 -17 -35 -1 -43)
1969/12/31/18:00:11.894000,(38 21 5 1 6 15 -4 18)
1969/12/31/18:00:11.901000,(-28 6 9 6 1 10 15 -50)
1969/12/31/18:00:11.901000,(-6 -13 -13 -8 0 -1 -5 17)
1969/12/31/18:00:11.902000,(-7 -7 7 5 5 12 7 20)
1969/12/31/18:00:11.902000,(-15 30 6 0 -3 -11 3 -2)
1969/12/31/18:00:11.925000,(10 -10 -3 -1 -1 -15 -9 -5)
1969/12/31/18:00:11.925000,(57 -1 -10 -10 -3 6 6 2)
1969/12/31/18:00:11.925000,(4 8 6 5 3 4 1 12)
1969/12/31/18:00:11.925000,(-47 -27 -7 -6 -7 -10 0 -24)
1969/12/31/18:00:11.938000,(14 24 5 -1 -2 3 1 24)
1969/12/31/18:00:11.938000,(-4 1 -3 -5 -5 -5 -15 -26)
1969/12/31/18:00:11.946000,(-14 -24 -2 0 2 -10 36 44)
1969/12/31/18:00:11.946000,(63 46 22 18 17 7 -66 1)
1969/12/31/18:00:11.961000,(-20 -21 -13 -8 -3 25 31 5)
1969/12/31/18:00:11.961000,(27 21 9 4 4 6 -7 27)
1969/12/31/18:00:11.969000,(10 -3 -3 -2 -6 -31 -26 -39)
1969/12/31/18:00:11.969000,(-31 -31 -8 -6 -5 2 25 19)
1969/12/31/18:00:11.984000,(-13 -2 4 1 -2 0 22 -21)
1969/12/31/18:00:11.984000,(-5 17 6 -1 -5 1 14 1)
1969/12/31/18:00:11.985000,(14 7 -1 3 7 30 -12 -15)
1969/12/31/18:00:11.985000,(-22 -28 -15 -12 -3 2 2 14)
1969/12/31/18:00:11.998000,(-25 -9 -11 -10 -23 -91 -64 -30)
1969/12/31/18:00:11.998000,(-24 4 8 2 -1 0 12 -30)
1969/12/31/18:00:12.006000,(0 1 -13 -6 -5 2 -12 -1)
1969/12/31/18:00:12.006000,(-18 -35 -14 -8 -9 -15 8 0)
1969/12/31/18:00:12.021000,(-18 -13 -13 -11 1 53 8 9)
1969/12/31/18:00:12.021000,(16 21 14 5 -8 -81 -5 18)
1969/12/31/18:00:12.022000,(-54 -47 -16 -5 4 53 -21 -27)
1969/12/31/18:00:12.022000,(2 -6 -4 -4 -2 -19 -1 10)
1969/12/31/18:00:12.045000,(23 19 11 12 17 11 6 -8)
1969/12/31/18:00:12.045000,(-25 -24 -11 -7 -10 6 -2 0)
1969/12/31/18:00:12.045000,(25 22 6 3 0 -15 -4 25)
1969/12/31/18:00:12.045000,(16 20 16 12 9 15 35 33)
1969/12/31/18:00:12.058000,(19 5 -1 3 3 -9 -13 -45)
1969/12/31/18:00:12.058000,(1 2 5 4 5 22 0 -21)
1969/12/31/18:00:12.066000,(1 7 8 2 4 6 10 11)
1969/12/31/18:00:12.066000,(20 15 -8 -8 -8 -19 -20 -39)
1969/12/31/18:00:12.081000,(-5 -10 -1 -2 4 15 11 64)
1969/12/31/18:00:12.081000,(-6 -7 -2 1 6 19 -4 -39)
1969/12/31/18:00:12.082000,(-25 16 5 1 2 25 11 -13)
1969/12/31/18:00:12.082000,(18 -17 -12 -4 0 0 25 74)
1969/12/31/18:00:12.103000,(-4 4 7 1 -7 -2 -6 -38)
1969/12/31/18:00:12.103000,(14 -7 -7 -7 -8 5 -3 45)
1969/12/31/18:00:12.111000,(5 0 1 -1 -2 10 31 15)
1969/12/31/18:00:12.111000,(6 15 7 4 9 33 -10 34)
1969/12/31/18:00:12.127000,(37 11 1 3 0 -3 18 16)
1969/12/31/18:00:12.127000,(2 -9 -2 2 -1 -8 -5 18)
1969/12/31/18:00:12.128000,(0 14 0 -2 1 25 -1 -52)
1969/12/31/18:00:12.128000,(24 20 8 -2 -14 -56 5 3)
1969/12/31/18:00:12.141000,(-27 -11 -10 -5 20 104 38 -42)
1969/12/31/18:00:12.141000,(19 3 9 5 -2 -27 -9 -24)
1969/12/31/18:00:12.142000,(9 -13 -10 -9 -12 -65 -30 -20)
1969/12/31/18:00:12.142000,(-6 6 5 2 0 23 3 -67)
1969/12/31/18:00:12.164000,(-58 -17 -8 -8 -14 -32 6 -6)
1969/12/31/18:00:12.164000,(-21 -4 10 10 9 4 5 -13)
1969/12/31/18:00:12.165000,(20 1 -4 -4 -5 -19 -40 5)
1969/12/31/18:00:12.165000,(18 0 2 3 5 18 15 25)
1969/12/31/18:00:12.187000,(31 11 8 8 1 -11 -18 67)
1969/12/31/18:00:12.187000,(-10 -3 -9 -8 -1 43 14 8)
1969/12/31/18:00:12.188000,(-12 6 5 4 1 -16 15 0)
1969/12/31/18:00:12.188000,(1 1 -2 -4 -5 -7 8 24)
1969/12/31/18:00:12.202000,(64 27 17 14 16 12 0 63)
1969/12/31/18:00:12.202000,(-49 -39 -20 -12 -5 -17 -14 -17)
1969/12/31/18:00:12.202000,(30 35 10 4 1 6 35 44)
1969/12/31/18:00:12.202000,(-4 1 2 2 -2 9 -16 -25)
1969/12/31/18:00:12.225000,(-25 -26 -12 -7 -6 7 -28 -36)
1969/12/31/18:00:12.225000,(-42 -13 -4 -4 -8 -2 -4 -41)
1969/12/31/18:00:12.226000,(-9 -6 -5 -6 -4 -3 14 58)
1969/12/31/18:00:12.226000,(-4 5 -3 -2 -5 21 64 -27)
1969/12/31/18:00:12.246000,(-21 0 -4 -5 -9 -40 -37 -35)
1969/12/31/18:00:12.246000,(40 37 11 4 1 -10 9 20)
1969/12/31/18:00:12.255000,(-50 -51 -14 -4 4 33 -3 -16)
1969/12/31/18:00:12.255000,(9 -2 -5 -1 -3 -12 -8 19)
1969/12/31/18:00:12.261000,(88 3 -1 0 0 -2 4 60)
1969/12/31/18:00:12.262000,(1 18 5 0 0 3 -3 41)
1969/12/31/18:00:12.262000,(45 33 12 5 -6 -21 12 -7)
1969/12/31/18:00:12.262000,(-39 -21 -7 -3 -1 -14 -36 -62)
1969/12/31/18:00:12.285000,(-12 5 7 4 1 2 -1 2)
1969/12/31/18:00:12.285000,(-55 -20 -1 5 8 16 8 -73)
1969/12/31/18:00:12.285000,(-11 -17 -11 -7 -5 -9 -41 -18)
1969/12/31/18:00:12.285000,(-6 8 9 7 2 -28 -50 -47)
1969/12/31/18:00:12.307000,(-9 -2 -6 -6 2 29 25 -8)
1969/12/31/18:00:12.307000,(-64 -46 -13 -7 -6 1 -31 -7)
1969/12/31/18:00:12.308000,(44 24 0 -4 2 -5 21 50)
1969/12/31/18:00:12.308000,(-46 -39 -18 -9 3 34 -1 -3)
1969/12/31/18:00:12.321000,(-64 -64 -33 -32 -38 -51 -71 -61)
1969/12/31/18:00:12.321000,(54 28 15 7 6 19 1 4)
1969/12/31/18:00:12.322000,(-2 4 3 1 4 -14 4 -17)
1969/12/31/18:00:12.322000,(0 7 0 7 10 50 33 12)
1969/12/31/18:00:12.344000,(25 19 9 -3 -17 -52 -2 35)
1969/12/31/18:00:12.344000,(-37 -30 -15 -5 11 21 27 7)
1969/12/31/18:00:12.345000,(-17 5 3 -4 -12 -5 -16 0)
1969/12/31/18:00:12.345000,(44 25 12 13 35 67 18 8)
1969/12/31/18:00:12.366000,(-17 0 -4 -11 -80 -86 -16 -43)
1969/12/31/18:00:12.366000,(1 -15 -7 1 38 24 -12 11)
1969/12/31/18:00:12.373000,(43 30 21 27 43 32 48 35)
1969/12/31/18:00:12.374000,(-55 -25 -18 -33 -74 -53 -52 -23)
1969/12/31/18:00:12.389000,(-92 -35 -18 -14 -3 2 -23 -55)
1969/12/31/18:00:12.389000,(30 -1 -1 7 23 -25 11 43)
1969/12/31/18:00:12.390000,(2 -1 -2 -6 -45 -26 -17 -38)
1969/12/31/18:00:12.390000,(3 -30 -13 -4 30 -10 6 62)
1969/12/31/18:00:12.404000,(26 27 13 8 -1 12 12 18)
1969/12/31/18:00:12.404000,(21 22 0 -11 -25 5 36 27)
1969/12/31/18:00:12.405000,(-40 -26 -7 -13 2 27 -13 -17)
1969/12/31/18:00:12.405000,(17 28 11 7 18 -24 20 44)
1969/12/31/18:00:12.427000,(21 37 13 28 122 127 54 6)
1969/12/31/18:00:12.427000,(-15 -41 -10 2 -23 -19 -37 -31)
1969/12/31/18:00:12.428000,(6 7 3 -4 -70 -86 -54 -21)
1969/12/31/18:00:12.428000,(2 -6 6 12 13 1 -2 -6)
1969/12/31/18:00:12.441000,(18 9 6 10 4 9 13 19)
1969/12/31/18:00:12.441000,(7 -2 -10 -7 17 24 -6 -8)
1969/12/31/18:00:12.442000,(0 -4 -9 -18 5 17 25 10)
1969/12/31/18:00:12.442000,(11 36 12 -9 -54 -82 -18 0)
1969/12/31/18:00:12.464000,(-30 -62 -13 11 61 32 17 33)
1969/12/31/18:00:12.464000,(21 21 -1 2 -14 -31 6 -18)
1969/12/31/18:00:12.466000,(-9 4 4 6 23 18 -2 -44)
1969/12/31/18:00:12.466000,(-27 0 -4 -3 -18 -43 -13 -13)
1969/12/31/18:00:12.487000,(9 -20 -4 -13 -42 -4 5 16)
1969/12/31/18:00:12.487000,(6 17 7 -2 1 -3 -16 -15)
1969/12/31/18:00:12.488000,(17 5 -13 10 26 15 1 19)
1969/12/31/18:00:12.488000,(1 -6 6 -5 14 18 5 -22)
1969/12/31/18:00:12.500000,(-6 35 19 4 -23 -37 -20 -72)
1969/12/31/18:00:12.500000,(-36 -23 -18 2 8 17 6 8)
1969/12/31/18:00:12.516000,(11 -9 -32 -19 2 11 19 1)
1969/12/31/18:00:12.516000,(9 -6 1 5 11 3 -36 -5)
1969/12/31/18:00:12.524000,(19 37 26 -2 -55 -33 16 76)
1969/12/31/18:00:12.524000,(11 -30 -16 2 51 6 -2 -38)
1969/12/31/18:00:12.532000,(14 21 -3 -10 -27 4 33 48)
1969/12/31/18:00:12.532000,(39 -1 -4 1 -22 -7 -20 12)
1969/12/31/18:00:12.547000,(-50 -5 17 4 -11 -20 -28 -30)
1969/12/31/18:00:12.547000,(64 46 -15 -1 21 1 -7 1)
1969/12/31/18:00:12.548000,(-46 -60 -41 -32 -56 -54 -37 -41)
1969/12/31/18:00:12.548000,(-79 -20 71 48 51 25 9 -40)
1969/12/31/18:00:12.561000,(-28 -43 -27 -15 -27 4 -4 -25)
1969/12/31/18:00:12.561000,(1 28 -12 -10 -7 -5 -1 38)
1969/12/31/18:00:12.569000,(4 -54 -48 -8 40 44 34 87)
1969/12/31/18:00:12.569000,(-28 58 45 1 -16 -5 -8 -61)
1969/12/31/18:00:12.584000,(22 -5 -17 -6 0 -2 -1 -24)
1969/12/31/18:00:12.584000,(-32 50 2 -8 -1 4 7 29)
1969/12/31/18:00:12.586000,(-47 -16 49 29 7 13 6 -43)
1969/12/31/18:00:12.586000,(28 -63 -78 -16 55 46 6 45)
1969/12/31/18:00:12.607000,(-44 -24 -6 5 -36 -46 6 -30)
1969/12/31/18:00:12.607000,(21 -4 -42 -39 -102 -65 -8 -5)
1969/12/31/18:00:12.608000,(31 108 123 62 76 48 13 50)
1969/12/31/18:00:12.608000,(-81 -67 -79 -64 -71 18 45 -65)
1969/12/31/18:00:12.620000,(-49 -73 -27 -13 34 -23 -77 -53)
1969/12/31/18:00:12.620000,(2 -3 -17 -29 -68 -45 -17 -48)
1969/12/31/18:00:12.630000,(16 21 15 17 -4 -25 -23 2)
1969/12/31/18:00:12.630000,(-3 95 53 43 34 15 13 -37)
1969/12/31/18:00:12.644000,(33 3 -19 -7 53 54 39 60)
1969/12/31/18:00:12.644000,(30 -53 25 16 -9 -3 37 67)
1969/12/31/18:00:12.658000,(48 94 25 23 8 -4 -27 38)
1969/12/31/18:00:12.658000,(-24 -82 11 -3 -3 -43 -65 -83)
1969/12/31/18:00:12.667000,(20 72 17 -2 -23 -1 2 10)
1969/12/31/18:00:12.667000,(-23 -35 15 14 52 40 11 10)
1969/12/31/18:00:12.668000,(0 -48 -81 -22 15 12 -1 -62)
1969/12/31/18:00:12.668000,(69 46 32 8 3 36 41 110)
1969/12/31/18:00:12.680000,(5 -43 -53 -55 -89 -54 -12 -29)
1969/12/31/18:00:12.680000,(-53 43 79 29 -2 3 6 -54)
1969/12/31/18:00:12.690000,(1 -35 -29 -9 8 -35 -39 -87)
1969/12/31/18:00:12.690000,(5 -91 -90 -17 23 9 3 48)
1969/12/31/18:00:12.705000,(26 111 99 59 80 86 48 46)
1969/12/31/18:00:12.705000,(-28 -18 -18 -12 -14 -36 -41 -16)
1969/12/31/18:00:12.706000,(28 -11 -41 -21 -16 -6 14 99)
1969/12/31/18:00:12.706000,(32 65 99 55 18 10 19 23)
1969/12/31/18:00:12.727000,(34 -27 -61 -9 23 21 -3 -24)
1969/12/31/18:00:12.727000,(-22 -8 -9 -2 -22 -13 -18 -56)
1969/12/31/18:00:12.728000,(-3 9 24 -26 14 23 -8 6)
1969/12/31/18:00:12.728000,(23 42 -4 -2 -41 -9 28 74)
1969/12/31/18:00:12.741000,(39 -21 -37 -12 -8 -10 20 35)
1969/12/31/18:00:12.741000,(-15 -43 -13 12 8 4 -11 5)
1969/12/31/18:00:12.750000,(-51 -74 -49 -23 -8 -27 -35 -84)
1969/12/31/18:00:12.750000,(-6 25 -18 -26 -22 -10 38 3)
1969/12/31/18:00:12.764000,(40 -36 -22 -2 21 21 28 63)
1969/12/31/18:00:12.764000,(-35 7 -26 -11 41 46 -5 -6)
1969/12/31/18:00:12.766000,(-6 62 65 53 -12 -34 5 -13)
1969/12/31/18:00:12.766000,(2 -91 -112 -44 -59 -43 -29 -51)
1969/12/31/18:00:12.786000,(-18 25 35 17 -4 -10 -28 -30)
1969/12/31/18:00:12.786000,(83 -20 -71 -66 -19 -7 26 51)
1969/12/31/18:00:12.801000,(-93 24 61 23 -3 26 0 -42)
1969/12/31/18:00:12.801000,(34 3 -19 11 3 -36 -43 -37)
1969/12/31/18:00:12.817000,(-67 -106 -15 1 67 23 4 -27)
1969/12/31/18:00:12.817000,(48 114 42 15 -40 -19 -2 -32)
1969/12/31/18:00:12.819000,(-30 -22 22 -10 -23 -4 -8 -29)
1969/12/31/18:00:12.819000,(-19 35 28 -3 -3 -6 -15 -45)
1969/12/31/18:00:12.824000,(31 -5 -27 -5 -3 -3 8 17)
1969/12/31/18:00:12.824000,(-6 -8 19 46 125 50 -9 -1)
1969/12/31/18:00:12.826000,(29 -118 -84 -26 -50 0 34 90)
1969/12/31/18:00:12.826000,(-60 53 18 -28 -62 -59 -28 -57)
1969/12/31/18:00:12.847000,(7 27 0 -4 3 -18 -27 -21)
1969/12/31/18:00:12.847000,(10 101 78 53 45 27 15 6)
1969/12/31/18:00:12.849000,(29 -36 -10 -21 -88 -31 13 37)
1969/12/31/18:00:12.849000,(-18 -83 -45 -6 61 45 -2 11)
1969/12/31/18:00:12.861000,(7 -31 -55 -16 68 27 -11 11)
1969/12/31/18:00:12.861000,(-21 36 60 9 -122 -83 -27 -6)
1969/12/31/18:00:12.870000,(-2 2 -21 -11 18 -6 -4 -28)
1969/12/31/18:00:12.870000,(41 -32 -31 10 37 13 16 36)
1969/12/31/18:00:12.885000,(26 100 127 63 6 32 10 12)
1969/12/31/18:00:12.885000,(-54 -56 -53 -49 -27 -32 -9 -40)
1969/12/31/18:00:12.891000,(67 -19 -28 2 32 33 17 75)
1969/12/31/18:00:12.891000,(-34 29 9 -12 -11 -21 -14 -26)
1969/12/31/18:00:12.907000,(17 -40 -40 -25 -123 -68 -17 11)
1969/12/31/18:00:12.907000,(-12 -63 -49 2 100 72 27 18)
1969/12/31/18:00:12.909000,(-18 54 50 7 0 -29 -41 -58)
1969/12/31/18:00:12.909000,(-35 -39 -4 -4 19 7 -19 -49)
1969/12/31/18:00:12.921000,(-20 45 24 10 -12 -18 10 2)
1969/12/31/18:00:12.921000,(36 -19 -12 25 38 67 63 64)
1969/12/31/18:00:12.936000,(6 0 -46 -41 -28 -53 -36 -36)
1969/12/31/18:00:12.936000,(6 42 69 -7 -81 -46 20 64)
1969/12/31/18:00:12.944000,(11 -14 -38 -4 -21 -5 -22 6)
1969/12/31/18:00:12.944000,(22 56 72 34 49 41 35 -2)
1969/12/31/18:00:12.946000,(19 -34 -38 6 -21 24 -19 18)
1969/12/31/18:00:12.946000,(1 -90 -54 -18 5 25 -15 -8)
1969/12/31/18:00:12.967000,(-23 24 -15 -6 -17 -35 16 -9)
1969/12/31/18:00:12.967000,(11 48 18 -17 -93 -26 -40 -22)
1969/12/31/18:00:12.968000,(6 -12 -5 -1 32 16 19 -29)
1969/12/31/18:00:12.968000,(39 5 -9 4 53 22 29 42)
1969/12/31/18:00:12.981000,(-23 -28 -24 -10 14 2 -6 8)
1969/12/31/18:00:12.981000,(-71 -120 -69 -35 -88 -50 -12 -17)
1969/12/31/18:00:12.989000,(34 22 -34 -6 63 41 38 12)
1969/12/31/18:00:12.989000,(-76 79 83 48 38 3 -71 -71)
1969/12/31/18:00:13.004000,(65 -48 -71 -19 39 32 30 42)
1969/12/31/18:00:13.004000,(-8 66 93 36 -13 -29 -8 1)
1969/12/31/18:00:13.010000,(-18 -11 -32 -26 -82 -35 11 20)
1969/12/31/18:00:13.010000,(26 80 44 60 29 30 13 42)
1969/12/31/18:00:13.027000,(15 32 24 6 -15 0 29 3)
1969/12/31/18:00:13.027000,(-79 -88 -71 -51 -85 -66 -75 -77)
1969/12/31/18:00:13.028000,(13 -91 -113 -17 69 53 46 38)
1969/12/31/18:00:13.028000,(29 30 6 -28 -56 -6 -6 2)
1969/12/31/18:00:13.049000,(-41 4 65 31 -11 -17 7 -37)
1969/12/31/18:00:13.049000,(20 9 -25 -25 9 -3 4 18)
1969/12/31/18:00:13.051000,(-32 77 89 44 39 11 -15 -36)
1969/12/31/18:00:13.051000,(11 -25 -42 -31 -44 -15 22 14)
1969/12/31/18:00:13.063000,(7 9 13 -11 -24 -19 -45 -14)
1969/12/31/18:00:13.063000,(-2 -128 -128 -14 58 13 -4 -36)
1969/12/31/18:00:13.078000,(-33 46 102 21 -44 -22 -16 -14)
1969/12/31/18:00:13.078000,(39 69 48 19 30 9 24 50)
1969/12/31/18:00:13.087000,(32 -50 -59 -17 -17 7 12 43)
1969/12/31/18:00:13.087000,(11 17 45 20 49 25 -1 38)
1969/12/31/18:00:13.088000,(10 23 -5 -12 -38 -20 0 -1)
1969/12/31/18:00:13.088000,(-52 -68 -94 -43 -30 -3 14 -49)
1969/12/31/18:00:13.110000,(3 3 42 36 61 32 12 47)
1969/12/31/18:00:13.110000,(-19 2 3 3 -9 -6 -16 -71)
1969/12/31/18:00:13.111000,(-2 33 39 6 -10 -9 -9 -3)
1969/12/31/18:00:13.111000,(35 -60 -54 -15 -9 -6 13 28)
1969/12/31/18:00:13.124000,(-4 22 -17 -15 -15 -6 3 1)
1969/12/31/18:00:13.124000,(46 15 23 19 28 47 50 57)
1969/12/31/18:00:13.130000,(-9 54 20 23 42 10 -57 -41)
1969/12/31/18:00:13.130000,(9 -47 -67 -52 -94 -47 7 4)
1969/12/31/18:00:13.147000,(-43 6 29 -5 10 -3 -31 -52)
1969/12/31/18:00:13.147000,(49 38 35 16 -13 25 27 67)
1969/12/31/18:00:13.148000,(4 -7 -9 4 33 4 19 -24)
1969/12/31/18:00:13.148000,(51 31 45 42 56 0 -16 71)
1969/12/31/18:00:13.169000,(-8 50 25 11 -18 22 19 -24)
1969/12/31/18:00:13.169000,(-21 -52 -13 -15 0 -18 -11 27)
1969/12/31/18:00:13.171000,(-35 -77 -93 -43 -71 -20 -16 -8)
1969/12/31/18:00:13.171000,(25 93 86 25 23 33 10 0)
1969/12/31/18:00:13.184000,(-27 -47 -58 -40 -26 -35 -19 -21)
1969/12/31/18:00:13.184000,(39 84 60 34 42 23 1 -13)
1969/12/31/18:00:13.198000,(-13 -28 -16 6 -4 0 -10 53)
1969/12/31/18:00:13.198000,(22 -91 -106 -18 36 47 33 63)
1969/12/31/18:00:13.206000,(-44 104 119 67 0 -30 -35 -70)
1969/12/31/18:00:13.206000,(-11 -20 -22 -13 41 -1 -9 -37)
1969/12/31/18:00:13.221000,(-46 -63 -30 -20 -50 -13 -13 -26)
1969/12/31/18:00:13.221000,(-23 8 -2 3 24 3 -10 -32)
1969/12/31/18:00:13.230000,(-16 -67 -52 -28 -66 -43 16 21)
1969/12/31/18:00:13.230000,(12 -8 -24 -20 66 56 5 11)
1969/12/31/18:00:13.231000,(-30 16 9 11 -59 -48 -32 -42)
1969/12/31/18:00:13.231000,(-77 -61 2 5 -16 -10 -18 -54)
1969/12/31/18:00:13.244000,(44 55 -17 -4 47 23 5 -33)
1969/12/31/18:00:13.244000,(-35 60 83 17 -61 -41 -3 2)
1969/12/31/18:00:13.250000,(3 -12 -27 -11 35 30 35 38)
1969/12/31/18:00:13.250000,(59 27 15 19 13 15 -4 36)
1969/12/31/18:00:13.267000,(9 -63 -60 -33 3 3 -13 11)
1969/12/31/18:00:13.267000,(-9 -3 27 6 -50 -28 -17 -8)
1969/12/31/18:00:13.269000,(6 -19 -24 -12 38 30 10 8)
1969/12/31/18:00:13.269000,(2 79 50 34 7 -6 27 27)
1969/12/31/18:00:13.289000,(-1 5 16 13 40 37 15 6)
1969/12/31/18:00:13.290000,(25 -35 -33 -25 -69 -49 -25 7)
1969/12/31/18:00:13.291000,(49 13 -22 -5 3 7 0 13)
1969/12/31/18:00:13.291000,(-65 -2 7 -26 37 21 5 -44)
1969/12/31/18:00:13.304000,(-13 -56 0 -25 -61 -50 -33 -8)
1969/12/31/18:00:13.304000,(7 76 6 28 -83 -20 41 -1)
1969/12/31/18:00:13.311000,(0 -21 25 58 91 11 -28 -10)
1969/12/31/18:00:13.311000,(-12 -22 -49 -32 -81 -33 -19 -13)
1969/12/31/18:00:13.327000,(11 6 8 14 35 16 -6 -33)
1969/12/31/18:00:13.327000,(-3 -48 -74 -28 -16 -17 4 12)
1969/12/31/18:00:13.329000,(30 -7 18 -16 -9 4 48 93)
1969/12/31/18:00:13.329000,(24 75 30 -15 -15 -4 -7 10)
1969/12/31/18:00:13.349000,(-34 -69 -52 -42 15 -7 -4 1)
1969/12/31/18:00:13.349000,(43 -61 -35 -6 1 -15 -26 3)
1969/12/31/18:00:13.373000,(11 125 26 34 44 36 29 5)
1969/12/31/18:00:13.373000,(-26 -36 25 25 27 29 -17 -22)
1969/12/31/18:00:13.374000,(57 -37 -41 -10 -47 -21 32 57)
1969/12/31/18:00:13.374000,(-27 114 100 34 47 14 -14 -27)
1969/12/31/18:00:13.375000,(-36 -36 12 -46 -98 -69 -26 -71)
1969/12/31/18:00:13.375000,(28 -33 -36 23 71 15 -2 19)
1969/12/31/18:00:13.387000,(-46 -51 -21 -20 -27 -14 -18 -45)
1969/12/31/18:00:13.387000,(5 -86 -114 -40 44 40 26 44)
1969/12/31/18:00:13.389000,(3 28 37 45 19 11 19 -12)
1969/12/31/18:00:13.389000,(-53 -9 54 32 45 -13 -6 -28)
1969/12/31/18:00:13.410000,(12 -48 -49 -12 11 36 8 77)
1969/12/31/18:00:13.410000,(52 86 85 32 21 -20 10 -8)
1969/12/31/18:00:13.411000,(-56 -21 -23 -19 0 1 -28 -26)
1969/12/31/18:00:13.411000,(18 -60 -88 -28 -29 -1 18 13)
1969/12/31/18:00:13.424000,(-29 16 73 14 -5 -1 -6 15)
1969/12/31/18:00:13.424000,(-26 -43 -84 -31 12 9 -30 -63)
1969/12/31/18:00:13.431000,(24 66 47 2 -70 -43 13 -2)
1969/12/31/18:00:13.431000,(26 -10 18 20 40 29 -1 12)
1969/12/31/18:00:13.447000,(-40 8 -13 -10 -28 -11 -5 -67)
1969/12/31/18:00:13.447000,(13 -6 7 -10 38 -2 -23 25)
1969/12/31/18:00:13.449000,(4 -19 -13 4 94 42 23 14)
1969/12/31/18:00:13.449000,(-14 -16 -36 16 -31 -7 -18 -28)
1969/12/31/18:00:13.470000,(14 52 29 -6 -21 -15 -3 -32)
1969/12/31/18:00:13.470000,(-76 -26 44 40 27 14 -11 -60)
1969/12/31/18:00:13.471000,(38 -33 -39 -58 -108 -49 -5 -2)
1969/12/31/18:00:13.471000,(24 14 -20 -24 -28 -5 -11 3)
1969/12/31/18:00:13.484000,(16 74 -3 22 24 17 8 43)
1969/12/31/18:00:13.484000,(-39 -12 40 5 -35 -22 3 -19)
1969/12/31/18:00:13.498000,(-4 -39 -8 7 14 11 9 53)
1969/12/31/18:00:13.498000,(-9 -45 -54 -49 -53 -41 -20 -58)
1969/12/31/18:00:13.507000,(-54 -15 -32 -9 3 -6 -36 -39)
1969/12/31/18:00:13.507000,(99 74 -24 -3 -13 18 50 83)
1969/12/31/18:00:13.509000,(-54 -6 64 34 78 52 3 -59)
1969/12/31/18:00:13.509000,(7 16 49 14 -71 -61 -26 32)
1969/12/31/18:00:13.530000,(38 6 -41 -19 4 7 6 -26)
1969/12/31/18:00:13.530000,(22 -46 -16 8 5 4 19 64)
1969/12/31/18:00:13.531000,(9 25 -45 -22 4 12 3 4)
1969/12/31/18:00:13.531000,(-4 94 102 30 -1 13 21 15)
1969/12/31/18:00:13.544000,(8 26 35 16 28 -6 1 -6)
1969/12/31/18:00:13.544000,(29 -14 -42 -18 -64 -12 2 37)
1969/12/31/18:00:13.550000,(-43 -99 -62 -21 1 -29 -34 -46)
1969/12/31/18:00:13.551000,(10 39 -20 0 13 -3 -7 -33)
1969/12/31/18:00:13.567000,(12 68 115 48 50 37 39 44)
1969/12/31/18:00:13.567000,(52 13 -11 4 -13 3 14 70)
1969/12/31/18:00:13.569000,(23 10 8 -9 -20 -26 -39 -59)
1969/12/31/18:00:13.569000,(-30 -69 -43 -26 3 11 23 12)
1969/12/31/18:00:13.590000,(9 4 -22 -15 15 9 -25 -23)
1969/12/31/18:00:13.590000,(-5 -53 -52 -39 -45 -40 -7 5)
1969/12/31/18:00:13.591000,(-18 3 52 52 44 45 23 25)
1969/12/31/18:00:13.591000,(50 44 23 18 -4 -25 -6 31)
1969/12/31/18:00:13.603000,(19 58 45 53 39 28 43 33)
1969/12/31/18:00:13.603000,(-64 -54 -17 -63 -95 -69 -75 -78)
1969/12/31/18:00:13.612000,(59 48 21 -4 -29 -14 21 63)
1969/12/31/18:00:13.612000,(-56 -66 -56 -42 7 18 -14 -55)
1969/12/31/18:00:13.626000,(44 -28 -61 -8 22 -2 9 30)
1969/12/31/18:00:13.626000,(-75 -26 29 35 52 26 -6 -51)
1969/12/31/18:00:13.640000,(15 11 57 18 -13 -1 9 18)
1969/12/31/18:00:13.641000,(39 20 -1 -3 13 6 -12 -14)
1969/12/31/18:00:13.650000,(-75 -30 -19 -2 -22 0 -3 17)
1969/12/31/18:00:13.650000,(-1 33 13 0 -2 -2 -18 -46)
1969/12/31/18:00:13.651000,(21 5 -22 -5 27 15 -3 10)
1969/12/31/18:00:13.651000,(-11 -68 -29 -12 -6 0 26 41)
1969/12/31/18:00:13.663000,(-5 -8 18 -8 -46 -31 -50 -41)
1969/12/31/18:00:13.663000,(-20 23 5 -10 66 13 6 -10)
1969/12/31/18:00:13.672000,(-4 -7 -17 14 40 19 1 10)
1969/12/31/18:00:13.672000,(-40 16 18 47 47 17 1 -20)
1969/12/31/18:00:13.687000,(37 -38 -49 7 8 0 -14 -8)
1969/12/31/18:00:13.687000,(1 1 11 19 -2 13 27 55)
1969/12/31/18:00:13.688000,(-35 23 45 -10 7 27 14 -14)
1969/12/31/18:00:13.689000,(-7 45 29 0 9 -40 -38 -60)
1969/12/31/18:00:13.709000,(-19 -9 11 -26 -71 -7 16 18)
1969/12/31/18:00:13.709000,(-26 -32 -69 -42 -31 -32 -8 -31)
1969/12/31/18:00:13.711000,(-16 -37 -49 -20 -2 6 1 4)
1969/12/31/18:00:13.711000,(8 -13 6 -1 -2 17 16 15)
1969/12/31/18:00:13.723000,(5 27 17 7 20 16 30 40)
1969/12/31/18:00:13.723000,(31 10 8 18 30 16 13 28)
1969/12/31/18:00:13.732000,(-11 2 -7 -27 -46 -7 -12 -31)
1969/12/31/18:00:13.732000,(12 2 -3 -3 49 19 7 11)
1969/12/31/18:00:13.747000,(23 12 25 21 33 -5 -4 -8)
1969/12/31/18:00:13.747000,(-24 -21 -14 12 9 13 -18 -17)
1969/12/31/18:00:13.749000,(6 -52 -68 -26 -14 -12 -7 -6)
1969/12/31/18:00:13.749000,(-31 -26 -20 -33 -31 -14 -1 12)
1969/12/31/18:00:13.769000,(92 101 90 69 40 11 11 23)
1969/12/31/18:00:13.769000,(43 52 64 51 36 16 1 31)
1969/12/31/18:00:13.777000,(10 -9 16 24 29 -6 3 12)
1969/12/31/18:00:13.777000,(-2 -36 -37 -37 -60 -19 -29 -21)
1969/12/31/18:00:13.783000,(-25 -46 -61 -48 -27 -11 19 23)
1969/12/31/18:00:13.783000,(5 -8 1 -13 -7 5 12 13)
1969/12/31/18:00:13.792000,(49 54 22 2 -28 -16 -23 5)
1969/12/31/18:00:13.792000,(-12 -9 0 2 2 7 31 36)
1969/12/31/18:00:13.807000,(-20 8 14 4 1 0 -35 -23)
1969/12/31/18:00:13.807000,(10 4 -12 -8 -22 -17 -16 -38)
1969/12/31/18:00:13.808000,(58 17 4 2 8 18 38 58)
1969/12/31/18:00:13.808000,(-52 -39 -8 1 -7 -16 -30 -50)
1969/12/31/18:00:13.829000,(-3 -29 -13 -16 -26 -11 -2 -2)
1969/12/31/18:00:13.829000,(-40 -8 0 9 15 32 11 -23)
1969/12/31/18:00:13.831000,(18 22 -3 3 7 -13 -25 -8)
1969/12/31/18:00:13.831000,(55 42 31 27 17 21 49 52)
1969/12/31/18:00:13.843000,(41 -14 -21 -9 -13 -17 -7 0)
1969/12/31/18:00:13.843000,(-74 -28 -8 -26 -21 -13 -16 -33)
1969/12/31/18:00:13.852000,(-10 11 22 16 -7 -1 -4 -19)
1969/12/31/18:00:13.852000,(-1 -2 0 6 -15 -12 -19 -21)
1969/12/31/18:00:13.867000,(-27 7 5 -8 4 7 -9 -8)
1969/12/31/18:00:13.867000,(23 -6 -17 -8 0 -5 13 5)
1969/12/31/18:00:13.869000,(-19 -10 -12 1 3 0 -10 -24)
1969/12/31/18:00:13.869000,(-59 -19 0 -12 -17 -6 -1 -29)
1969/12/31/18:00:13.890000,(-21 -15 2 -3 -3 0 -5 12)
1969/12/31/18:00:13.890000,(11 18 1 2 1 -2 -3 -35)
1969/12/31/18:00:13.891000,(-2 4 8 -2 -10 -5 7 8)
1969/12/31/18:00:13.891000,(39 10 -6 12 11 16 5 10)
1969/12/31/18:00:13.903000,(4 7 -10 -9 -4 -5 -1 -4)
1969/12/31/18:00:13.903000,(19 -26 1 1 1 5 21 104)
1969/12/31/18:00:13.918000,(-23 -8 -7 -10 -8 -11 -7 -66)
1969/12/31/18:00:13.918000,(25 14 5 6 34 8 -25 -4)
1969/12/31/18:00:13.926000,(-14 2 4 6 7 12 28 -13)
1969/12/31/18:00:13.926000,(116 57 24 12 4 7 18 64)
1969/12/31/18:00:13.933000,(-69 -45 -22 -2 -1 4 -7 -38)
1969/12/31/18:00:13.933000,(34 6 -4 -18 -25 -16 -5 9)
1969/12/31/18:00:13.949000,(5 1 7 1 -4 -3 -6 -13)
1969/12/31/18:00:13.949000,(74 15 4 15 19 17 15 30)
1969/12/31/18:00:13.951000,(7 11 2 -3 -5 -12 -3 11)
1969/12/31/18:00:13.951000,(-58 -20 -2 0 -5 -3 -8 -34)
1969/12/31/18:00:13.963000,(22 24 -7 -14 -3 2 -1 22)
1969/12/31/18:00:13.963000,(-25 -14 -9 -5 -9 -8 -8 -24)
1969/12/31/18:00:13.972000,(-9 -1 2 3 -2 -7 -9 -1)
1969/12/31/18:00:13.972000,(14 25 27 24 13 14 34 84)
1969/12/31/18:00:13.987000,(-7 -8 -1 9 8 5 -3 -27)
1969/12/31/18:00:13.987000,(4 21 1 -4 -1 -2 -5 -16)
1969/12/31/18:00:13.993000,(-61 -47 -27 -25 -15 -12 -11 -12)
1969/12/31/18:00:13.993000,(13 4 -4 -6 0 2 1 -1)
1969/12/31/18:00:14.009000,(0 0 2 12 7 5 3 3)
1969/12/31/18:00:14.009000,(-42 -14 13 8 0 0 -7 -25)
1969/12/31/18:00:14.011000,(49 40 17 8 5 6 7 17)
1969/12/31/18:00:14.011000,(34 17 1 0 -4 -2 4 5)
1969/12/31/18:00:14.031000,(-30 -30 1 3 1 -4 -10 -16)
1969/12/31/18:00:14.031000,(-37 -8 -16 -12 -7 -8 -12 -31)
1969/12/31/18:00:14.046000,(61 24 14 18 12 10 16 50)
1969/12/31/18:00:14.046000,(-48 -28 -14 -15 -14 -9 -10 -35)
1969/12/31/18:00:14.055000,(7 -18 -12 -11 -8 -4 -3 6)
1969/12/31/18:00:14.055000,(8 18 -3 -2 -1 -3 -1 6)
1969/12/31/18:00:14.056000,(5 -1 -10 -7 -4 -2 3 11)
1969/12/31/18:00:14.056000,(6 26 31 10 0 0 -2 -1)
1969/12/31/18:00:14.069000,(-22 -19 -2 -2 -1 -2 -6 -18)
1969/12/31/18:00:14.069000,(-22 -40 -25 -13 -6 -3 -1 -5)
1969/12/31/18:00:14.077000,(8 -9 -39 -16 -3 -8 -8 -8)
1969/12/31/18:00:14.077000,(24 50 69 33 8 4 -1 -3)
1969/12/31/18:00:14.092000,(13 1 -23 -4 -8 0 3 5)
1969/12/31/18:00:14.092000,(8 35 54 17 7 5 6 5)
1969/12/31/18:00:14.094000,(-17 -34 -25 -12 -7 -9 -14 -15)
1969/12/31/18:00:14.094000,(6 -59 -55 -28 -7 0 4 4)
1969/12/31/18:00:14.106000,(2 43 15 4 5 6 6 2)
1969/12/31/18:00:14.106000,(-24 1 -8 -4 -9 -11 -21 -24)
1969/12/31/18:00:14.113000,(-3 -3 10 6 1 -2 -3 -6)
1969/12/31/18:00:14.113000,(16 40 45 25 6 3 14 8)
1969/12/31/18:00:14.129000,(-9 -57 -55 -19 -10 -7 -13 -8)
1969/12/31/18:00:14.130000,(-6 -33 -34 -13 -1 1 -11 -2)
1969/12/31/18:00:14.131000,(-13 4 12 -1 2 4 18 15)
1969/12/31/18:00:14.131000,(-3 -52 -73 -30 -13 -11 -15 -10)
1969/12/31/18:00:14.152000,(-1 35 29 0 -2 -7 -7 -11)
1969/12/31/18:00:14.152000,(-12 -17 1 8 0 -5 -7 -9)
1969/12/31/18:00:14.154000,(6 33 47 31 14 13 7 11)
1969/12/31/18:00:14.154000,(-1 -44 -52 -18 -6 3 6 2)
1969/12/31/18:00:14.166000,(-2 50 54 3 -2 -4 -2 -4)
1969/12/31/18:00:14.166000,(2 5 11 13 3 3 4 1)
1969/12/31/18:00:14.173000,(-15 -22 -14 -12 -7 -6 2 -10)
1969/12/31/18:00:14.173000,(2 17 -6 10 3 -2 -8 5)
1969/12/31/18:00:14.188000,(-4 -30 -16 -9 -2 7 17 5)
1969/12/31/18:00:14.188000,(-2 5 7 -1 0 0 -16 -10)
1969/12/31/18:00:14.197000,(-10 -20 -11 -5 -6 -4 -10 -13)
1969/12/31/18:00:14.197000,(-2 17 2 -4 1 2 -7 -2)
1969/12/31/18:00:14.212000,(0 16 27 19 0 -5 2 0)
1969/12/31/18:00:14.212000,(-2 -34 -43 -15 -5 0 1 0)
1969/12/31/18:00:14.214000,(5 21 26 5 2 2 0 -3)
1969/12/31/18:00:14.214000,(-13 15 29 3 -1 -2 1 -1)
1969/12/31/18:00:14.226000,(6 8 -7 -4 0 3 -2 -1)
1969/12/31/18:00:14.226000,(10 26 -17 -25 -8 3 11 2)
1969/12/31/18:00:14.233000,(-1 6 30 35 14 4 -6 1)
1969/12/31/18:00:14.233000,(0 0 16 7 0 1 1 -1)
1969/12/31/18:00:14.249000,(-14 -56 -30 -15 -6 2 -6 -3)
1969/12/31/18:00:14.250000,(-4 29 5 6 -1 -3 -6 -9)
1969/12/31/18:00:14.251000,(-4 -12 -28 -19 -11 1 -5 -11)
1969/12/31/18:00:14.251000,(0 9 7 -2 -3 2 -8 -9)
1969/12/31/18:00:14.272000,(-1 -38 -32 -6 -5 0 -3 -9)
1969/12/31/18:00:14.272000,(-8 -14 11 1 -4 -6 18 8)
1969/12/31/18:00:14.274000,(19 55 8 10 5 -4 -3 9)
1969/12/31/18:00:14.274000,(-14 -32 -51 -39 -14 -18 -5 1)
1969/12/31/18:00:14.286000,(1 -15 21 17 9 -3 -9 0)
1969/12/31/18:00:14.286000,(1 -45 -6 5 4 3 15 12)
1969/12/31/18:00:14.308000,(19 100 87 50 23 10 6 3)
1969/12/31/18:00:14.309000,(14 -26 27 24 9 2 0 3)
1969/12/31/18:00:14.316000,(-11 -9 -20 -27 -12 -8 -9 -3)
1969/12/31/18:00:14.316000,(3 3 1 -4 -2 -2 -2 -5)
1969/12/31/18:00:14.332000,(-19 -34 -13 -5 -3 1 4 -1)
1969/12/31/18:00:14.332000,(5 18 -6 -17 -7 -1 -1 -2)
1969/12/31/18:00:14.333000,(-19 -32 -34 -23 -8 -6 0 -3)
1969/12/31/18:00:14.333000,(-1 31 82 32 8 -2 -6 -7)
1969/12/31/18:00:14.335000,(6 30 48 34 10 0 -5 -2)
1969/12/31/18:00:14.335000,(2 16 13 20 8 7 17 5)
1969/12/31/18:00:14.346000,(-15 -16 -21 -15 -11 -8 -9 0)
1969/12/31/18:00:14.346000,(17 4 -4 2 2 0 3 8)
1969/12/31/18:00:14.355000,(-13 -26 -13 -11 -1 -1 -6 -9)
1969/12/31/18:00:14.355000,(-2 47 3 -16 -6 -4 -6 -4)
1969/12/31/18:00:14.377000,(21 78 56 42 17 6 7 0)
1969/12/31/18:00:14.377000,(-1 14 -11 -5 -7 -6 -11 -9)
1969/12/31/18:00:14.378000,(-24 -49 -21 -17 -6 2 1 -4)
1969/12/31/18:00:14.378000,(-3 -15 -13 0 0 2 -5 -4)
1969/12/31/18:00:14.392000,(-7 -4 -27 -27 -9 2 -1 -4)
1969/12/31/18:00:14.392000,(7 18 -9 0 3 4 -2 1)
1969/12/31/18:00:14.393000,(-1 -33 -15 -10 -7 0 -1 -5)
1969/12/31/18:00:14.394000,(-13 -31 -16 -9 -5 3 -5 -6)
1969/12/31/18:00:14.405000,(2 18 18 9 5 7 -5 -9)
1969/12/31/18:00:14.405000,(-11 -28 -11 -1 -2 8 -1 -8)
1969/12/31/18:00:14.414000,(0 10 -15 -11 -6 4 0 -1)
1969/12/31/18:00:14.414000,(-10 -29 -23 -19 -8 8 -3 -6)
1969/12/31/18:00:14.437000,(8 32 40 25 7 15 2 -6)
1969/12/31/18:00:14.437000,(-3 7 6 13 5 14 2 -7)
1969/12/31/18:00:14.443000,(3 -22 -29 -15 -14 -4 1 3)
1969/12/31/18:00:14.443000,(10 5 3 10 -2 -8 1 6)
1969/12/31/18:00:14.451000,(3 -17 -33 -9 -4 -11 3 10)
1969/12/31/18:00:14.451000,(-5 -27 -34 -17 -6 -29 -5 8)
1969/12/31/18:00:14.474000,(2 -23 -42 -24 -4 -27 -5 8)
1969/12/31/18:00:14.474000,(9 16 11 22 15 -15 6 14)
1969/12/31/18:00:14.475000,(-9 -23 -12 -8 2 -14 3 10)
1969/12/31/18:00:14.475000,(3 46 7 -3 5 -15 -5 -4)
1969/12/31/18:00:14.482000,(-4 -5 -6 -5 1 -21 -2 3)
1969/12/31/18:00:14.482000,(-1 -2 -6 -9 2 -11 -1 0)
1969/12/31/18:00:14.489000,(2 9 6 6 3 -4 -4 -2)
1969/12/31/18:00:14.489000,(-1 -9 -6 -4 -1 8 -2 9)
1969/12/31/18:00:14.503000,(0 -9 -12 -4 -2 11 -1 4)
1969/12/31/18:00:14.503000,(2 1 -7 -3 -3 1 -3 3)
1969/12/31/18:00:14.511000,(4 1 -3 1 1 -3 5 6)
1969/12/31/18:00:14.511000,(0 -10 -17 -10 -3 -3 12 10)
1969/12/31/18:00:14.526000,(-4 -7 -10 -10 1 3 8 4)
1969/12/31/18:00:14.526000,(-2 3 7 2 4 6 6 0)
1969/12/31/18:00:14.527000,(-5 -5 0 -8 -3 5 -1 -8)
1969/12/31/18:00:14.527000,(-11 -28 -12 -20 -9 -1 -2 -7)
1969/12/31/18:00:14.542000,(4 25 27 21 9 3 4 -4)
1969/12/31/18:00:14.542000,(3 4 12 4 -3 -13 -7 -12)
1969/12/31/18:00:14.550000,(1 1 1 1 -1 -7 -2 -2)
1969/12/31/18:00:14.550000,(-4 -6 7 2 -2 1 -3 -4)
1969/12/31/18:00:14.552000,(-4 -8 -7 -13 -9 5 -7 -9)
1969/12/31/18:00:14.552000,(-4 4 8 1 1 20 -6 -11)
1969/12/31/18:00:14.572000,(3 4 20 13 4 20 -1 -3)
1969/12/31/18:00:14.572000,(-6 -5 6 4 -1 8 -8 -12)
1969/12/31/18:00:14.573000,(-1 -8 -8 -5 -5 2 -3 -5)
1969/12/31/18:00:14.573000,(3 7 5 9 -1 1 -1 -3)
1969/12/31/18:00:14.594000,(-3 -8 -9 -10 -5 -6 -5 -3)
1969/12/31/18:00:14.594000,(-2 8 5 3 1 1 -1 -4)
1969/12/31/18:00:14.611000,(-3 4 2 2 -2 -1 -3 -4)
1969/12/31/18:00:14.611000,(-7 -9 -2 -7 -7 -4 -2 -1)
1969/12/31/18:00:14.612000,(-4 -4 4 5 -3 -1 -2 -3)
1969/12/31/18:00:14.612000,(3 9 3 3 -1 0 -8 -10)
1969/12/31/18:00:14.613000,(-3 -12 3 -1 -6 0 -3 -2)
1969/12/31/18:00:14.613000,(0 -2 1 0 -4 2 1 3)
1969/12/31/18:00:14.632000,(1 1 2 2 -1 0 2 -1)
1969/12/31/18:00:14.632000,(0 -2 -6 2 0 -1 1 2)
1969/12/31/18:00:14.633000,(4 -4 -6 -7 -3 -2 1 3)
1969/12/31/18:00:14.633000,(2 10 0 7 2 -1 -1 0)
1969/12/31/18:00:14.633000,(-11 -17 -33 -38 -33 -19 -14 -9)
1969/12/31/18:00:14.633000,(-5 -8 5 -4 -20 3 10 4)
1969/12/31/18:00:14.642000,(-6 -26 -83 -57 -9 -5 -10 -1)
1969/12/31/18:00:14.642000,(10 15 38 30 22 -3 7 8)
1969/12/31/18:00:14.657000,(22 29 67 106 38 11 24 36)
1969/12/31/18:00:14.657000,(8 11 -36 -26 -18 -37 -5 6)
1969/12/31/18:00:14.658000,(-4 -6 4 -19 1 6 10 11)
1969/12/31/18:00:14.658000,(-11 -29 -90 -56 3 -12 -7 -13)
1969/12/31/18:00:14.678000,(-11 -11 -10 -38 -30 -23 0 -3)
1969/12/31/18:00:14.678000,(-15 -36 -57 -39 -9 -5 -6 -9)
1969/12/31/18:00:14.702000,(9 39 63 85 28 26 1 -5)
1969/12/31/18:00:14.702000,(9 36 63 37 12 4 4 4)
1969/12/31/18:00:14.703000,(-6 2 -26 -5 -13 5 -6 -18)
1969/12/31/18:00:14.703000,(-9 -2 -40 -18 -5 8 -3 -12)
1969/12/31/18:00:14.704000,(-11 -22 -7 -13 -11 8 -10 -17)
1969/12/31/18:00:14.704000,(-35 -56 -116 -103 -30 -9 -19 -30)
1969/12/31/18:00:14.716000,(6 -10 76 38 -11 8 1 5)
1969/12/31/18:00:14.716000,(35 80 115 108 53 25 8 1)
1969/12/31/18:00:14.718000,(6 24 28 -4 -6 5 1 -2)
1969/12/31/18:00:14.718000,(5 9 4 20 7 13 9 15)
1969/12/31/18:00:14.739000,(-16 -28 -83 -72 -25 -8 -19 -26)
1969/12/31/18:00:14.739000,(-14 -38 -46 -52 -29 -17 -12 -10)
1969/12/31/18:00:14.741000,(8 9 36 37 9 9 4 7)
1969/12/31/18:00:14.741000,(-1 -8 -18 -12 4 7 8 10)
1969/12/31/18:00:14.762000,(-2 -2 -17 -21 -2 -2 1 6)
1969/12/31/18:00:14.762000,(6 2 31 24 -6 -13 0 5)
1969/12/31/18:00:14.763000,(4 4 -1 17 7 -5 1 2)
1969/12/31/18:00:14.763000,(-2 -12 -33 -17 0 -9 2 6)
1969/12/31/18:00:14.776000,(0 5 -13 -8 0 -12 3 6)
1969/12/31/18:00:14.776000,(0 8 26 25 8 -5 2 5)
1969/12/31/18:00:14.778000,(-2 -8 -15 -11 -1 -2 4 8)
1969/12/31/18:00:14.778000,(4 -1 -2 -3 2 -8 2 4)
1969/12/31/18:00:14.799000,(2 9 6 16 8 -2 3 1)
1969/12/31/18:00:14.799000,(-4 -3 -4 -10 -1 -5 1 1)
1969/12/31/18:00:14.805000,(-5 -7 -11 -14 -4 -1 -2 -5)
1969/12/31/18:00:14.805000,(2 8 21 12 4 3 -1 -4)
1969/12/31/18:00:14.812000,(14 10 -2 0 3 6 -1 -1)
1969/12/31/18:00:14.812000,(-12 -3 1 -8 -5 6 1 -3)
1969/12/31/18:00:14.827000,(-14 -10 -1 -4 -6 -1 -8 -26)
1969/12/31/18:00:14.827000,(11 13 20 19 6 7 1 3)
1969/12/31/18:00:14.836000,(26 9 -10 -3 -1 6 7 15)
1969/12/31/18:00:14.836000,(-47 -30 -13 -15 -15 -14 -21 -46)
1969/12/31/18:00:14.842000,(-5 -3 7 12 0 4 7 30)
1969/12/31/18:00:14.842000,(-7 -5 -5 2 -1 -6 -12 -21)
1969/12/31/18:00:14.859000,(1 -7 -20 -14 -6 -6 -4 7)
1969/12/31/18:00:14.859000,(38 19 16 8 3 2 12 27)
1969/12/31/18:00:14.860000,(-15 8 8 10 7 -2 -17 -24)
1969/12/31/18:00:14.860000,(-16 -14 -6 -5 -5 -5 11 9)
1969/12/31/18:00:14.872000,(5 -5 -3 1 3 3 -10 13)
1969/12/31/18:00:14.872000,(25 17 11 9 5 16 18 13)
1969/12/31/18:00:14.881000,(-26 -13 -12 -3 -4 -9 -10 19)
1969/12/31/18:00:14.881000,(-1 -6 -6 -3 -1 3 10 -24)
1969/12/31/18:00:14.896000,(-28 3 3 5 5 0 -20 -9)
1969/12/31/18:00:14.896000,(-17 -33 -11 -8 -9 -39 -11 -10)
1969/12/31/18:00:14.898000,(14 10 6 -1 2 11 4 9)
1969/12/31/18:00:14.898000,(39 21 13 7 9 28 -14 4)
1969/12/31/18:00:14.919000,(-43 -6 -5 -3 -7 3 21 -14)
1969/12/31/18:00:14.919000,(2 -1 0 -4 -3 7 5 33)
1969/12/31/18:00:14.920000,(8 11 2 2 -4 -8 2 -50)
1969/12/31/18:00:14.920000,(-19 -9 3 4 0 -1 -2 -14)
1969/12/31/18:00:14.932000,(16 9 5 4 4 5 5 6)
1969/12/31/18:00:14.932000,(-14 -8 -12 -11 -9 -12 2 13)
1969/12/31/18:00:14.941000,(-22 -19 -9 -8 -8 -7 -24 -34)
1969/12/31/18:00:14.941000,(40 13 6 8 9 24 30 88)
1969/12/31/18:00:14.955000,(-36 -19 -14 -12 -10 -15 -18 -83)
1969/12/31/18:00:14.955000,(20 10 10 8 5 19 16 10)
1969/12/31/18:00:14.980000,(48 24 13 8 6 -8 -2 28)
1969/12/31/18:00:14.980000,(10 9 -13 -11 -5 -14 -11 7)
1969/12/31/18:00:14.981000,(-3 -13 3 2 4 11 -2 32)
1969/12/31/18:00:14.981000,(-20 1 -2 -5 -7 -22 -16 -32)
1969/12/31/18:00:14.982000,(26 15 9 7 19 42 -14 8)
1969/12/31/18:00:14.982000,(-9 -7 1 3 3 -5 10 13)
1969/12/31/18:00:15.001000,(-14 -13 -6 -4 -8 17 -21 -69)
1969/12/31/18:00:15.001000,(3 6 1 -6 -18 -84 -28 -13)
1969/12/31/18:00:15.001000,(-3 -9 -5 5 26 82 38 24)
1969/12/31/18:00:15.001000,(-37 -16 -3 1 6 -11 15 1)
1969/12/31/18:00:15.016000,(0 -2 -3 -7 -8 -22 4 42)
1969/12/31/18:00:15.016000,(11 7 8 6 9 23 4 -9)
1969/12/31/18:00:15.016000,(3 4 -10 -13 -20 -35 -10 -10)
1969/12/31/18:00:15.016000,(-54 -26 -7 -2 -6 2 -13 -23)
1969/12/31/18:00:15.038000,(2 -10 -13 -12 -4 -3 20 16)
1969/12/31/18:00:15.038000,(13 10 7 7 9 19 -13 -4)
1969/12/31/18:00:15.039000,(-43 -14 -3 -1 -13 -61 -19 -21)
1969/12/31/18:00:15.039000,(20 2 0 -1 5 21 24 22)
1969/12/31/18:00:15.061000,(38 21 13 8 3 -12 -24 35)
1969/12/31/18:00:15.061000,(-16 -3 -2 0 3 5 37 32)
1969/12/31/18:00:15.062000,(-11 -44 -26 -20 -18 -18 8 51)
1969/12/31/18:00:15.062000,(25 27 14 7 2 16 -21 36)
1969/12/31/18:00:15.077000,(8 -2 -4 -3 -3 -36 -19 6)
1969/12/31/18:00:15.077000,(-8 8 -1 -6 -2 27 2 -20)
1969/12/31/18:00:15.078000,(9 14 10 3 2 18 28 23)
1969/12/31/18:00:15.078000,(32 22 4 1 -13 -57 -5 28)
1969/12/31/18:00:15.098000,(-46 -10 -4 -5 -7 2 -14 -70)
1969/12/31/18:00:15.098000,(-39 -29 -1 8 22 25 -10 19)
1969/12/31/18:00:15.106000,(0 7 3 0 -10 -32 -12 -53)
1969/12/31/18:00:15.106000,(22 -7 -12 -12 -7 -4 8 -14)
1969/12/31/18:00:15.121000,(-73 -37 -1 4 2 7 20 -23)
1969/12/31/18:00:15.121000,(72 50 4 -2 -4 -5 -27 9)
1969/12/31/18:00:15.121000,(-8 -18 -7 -4 -1 19 -6 -5)
1969/12/31/18:00:15.121000,(-13 28 14 6 -2 -47 14 -29)
1969/12/31/18:00:15.136000,(20 -21 -15 -6 -5 13 36 9)
1969/12/31/18:00:15.136000,(-18 -24 -7 -4 -1 13 -14 -9)
1969/12/31/18:00:15.137000,(1 2 3 3 4 9 -22 -29)
1969/12/31/18:00:15.137000,(0 2 -3 -3 -2 38 8 16)
1969/12/31/18:00:15.158000,(43 40 11 1 5 -4 -57 -16)
1969/12/31/18:00:15.158000,(-7 -11 -5 -4 -8 -8 22 -30)
1969/12/31/18:00:15.159000,(14 16 2 -3 -6 -26 6 23)
1969/12/31/18:00:15.159000,(-46 -34 -2 4 7 4 -7 -25)
1969/12/31/18:00:15.181000,(-25 5 -6 -7 0 25 -8 -20)
1969/12/31/18:00:15.181000,(16 -13 -5 -3 -2 5 -17 -3)
1969/12/31/18:00:15.181000,(-5 -6 -3 -1 1 2 12 13)
1969/12/31/18:00:15.181000,(-17 -17 0 -2 1 5 -12 6)
1969/12/31/18:00:15.204000,(4 1 -5 -6 -2 14 31 24)
1969/12/31/18:00:15.204000,(23 9 -1 2 -1 -9 0 29)
1969/12/31/18:00:15.205000,(-3 -4 -2 0 1 5 18 11)
1969/12/31/18:00:15.205000,(-33 -30 -5 -3 -4 -11 -14 -64)
1969/12/31/18:00:15.218000,(37 16 6 5 2 -13 6 45)
1969/12/31/18:00:15.218000,(-6 10 3 -1 -1 19 8 0)
1969/12/31/18:00:15.219000,(-26 -30 -10 -7 5 76 75 -11)
1969/12/31/18:00:15.219000,(3 15 -2 -4 -10 -49 -18 -21)
1969/12/31/18:00:15.241000,(-9 -27 -6 -3 -3 -2 2 -18)
1969/12/31/18:00:15.241000,(12 10 3 -1 -8 -18 -1 8)
1969/12/31/18:00:15.249000,(22 26 9 7 8 21 21 25)
1969/12/31/18:00:15.249000,(-20 -6 -2 -2 3 13 6 -24)
1969/12/31/18:00:15.256000,(26 4 -2 -1 -1 -10 -4 9)
1969/12/31/18:00:15.256000,(-47 -13 -1 2 4 7 7 -19)
1969/12/31/18:00:15.257000,(4 8 5 2 -1 -15 -1 21)
1969/12/31/18:00:15.257000,(27 19 -4 -6 -8 -14 -31 -43)
1969/12/31/18:00:15.278000,(21 8 10 8 4 -20 -13 -10)
1969/12/31/18:00:15.278000,(-18 -22 -8 -8 -9 -21 -4 -4)
1969/12/31/18:00:15.279000,(14 -7 -4 0 2 -14 -11 64)
1969/12/31/18:00:15.279000,(1 5 2 -3 -5 -20 -24 -8)
1969/12/31/18:00:15.301000,(-2 1 -4 -3 3 57 39 29)
1969/12/31/18:00:15.301000,(-2 1 5 9 8 -11 5 0)
1969/12/31/18:00:15.302000,(-6 -14 -6 -4 -2 -3 2 -18)
1969/12/31/18:00:15.302000,(23 7 3 3 1 -4 15 43)
1969/12/31/18:00:15.316000,(-1 33 13 8 -2 -27 -18 -13)
1969/12/31/18:00:15.316000,(13 -28 -14 -8 2 -13 23 37)
1969/12/31/18:00:15.317000,(-16 -4 -9 -4 0 1 -76 -63)
1969/12/31/18:00:15.317000,(-17 -25 -7 -12 -18 3 20 -24)
1969/12/31/18:00:15.338000,(20 31 6 6 3 -12 -9 17)
1969/12/31/18:00:15.338000,(-30 -18 -14 -15 -18 -15 -12 -33)
1969/12/31/18:00:15.339000,(-2 -9 1 8 13 4 10 -3)
1969/12/31/18:00:15.339000,(11 -1 -4 0 8 15 9 10)
1969/12/31/18:00:15.361000,(2 5 6 6 7 72 -4 7)
1969/12/31/18:00:15.361000,(-6 11 -1 -7 -26 30 4 -12)
1969/12/31/18:00:15.368000,(17 6 -2 0 11 -21 6 29)
1969/12/31/18:00:15.368000,(15 7 8 8 15 3 -3 9)
1969/12/31/18:00:15.384000,(26 7 9 17 71 26 -2 21)
1969/12/31/18:00:15.384000,(-13 0 -2 -1 -40 -15 -4 -13)
1969/12/31/18:00:15.385000,(-19 -14 -10 -43 -92 -55 -21 -20)
1969/12/31/18:00:15.385000,(-18 5 1 2 -6 3 -17 -32)
1969/12/31/18:00:15.398000,(-4 -9 -7 -9 -5 -7 33 12)
1969/12/31/18:00:15.398000,(-3 0 0 12 75 53 -2 0)
1969/12/31/18:00:15.399000,(26 11 9 20 38 35 41 55)
1969/12/31/18:00:15.399000,(-10 -6 -8 -9 -19 -19 7 21)
1969/12/31/18:00:15.421000,(-26 -19 -10 -5 -32 -47 -25 -25)
1969/12/31/18:00:15.421000,(12 14 14 19 44 4 17 -2)
1969/12/31/18:00:15.421000,(5 3 -6 -23 -100 -74 -32 -22)
1969/12/31/18:00:15.422000,(19 4 -8 -29 -16 126 56 32)
1969/12/31/18:00:15.436000,(-8 -2 2 -6 -44 -105 -8 -19)
1969/12/31/18:00:15.436000,(-12 -16 -10 -11 -9 22 -13 11)
1969/12/31/18:00:15.437000,(-4 3 8 43 93 41 -5 -9)
1969/12/31/18:00:15.437000,(8 2 4 25 58 56 24 13)
1969/12/31/18:00:15.458000,(-18 -22 -7 11 59 70 6 -19)
1969/12/31/18:00:15.458000,(20 15 0 -19 -72 -76 -24 2)
1969/12/31/18:00:15.459000,(2 10 -4 -32 -86 -90 -34 -23)
1969/12/31/18:00:15.459000,(-23 -22 -2 -16 -28 -17 -41 -48)
1969/12/31/18:00:15.489000,(-5 -4 -5 0 57 77 1 37)
1969/12/31/18:00:15.489000,(-2 0 0 15 69 -10 -22 -28)
1969/12/31/18:00:15.490000,(0 20 8 15 9 -5 -3 -23)
1969/12/31/18:00:15.490000,(-9 -22 -14 -17 -58 -34 -57 -3)
1969/12/31/18:00:15.496000,(1 -6 -2 -8 -28 -48 67 47)
1969/12/31/18:00:15.496000,(17 14 11 3 1 66 1 12)
1969/12/31/18:00:15.496000,(-6 -7 -2 9 56 -44 -14 -17)
1969/12/31/18:00:15.496000,(-3 5 2 22 79 53 11 -8)
1969/12/31/18:00:15.518000,(0 -2 -1 -7 -29 -6 5 -2)
1969/12/31/18:00:15.518000,(1 5 -5 -26 -69 -64 -17 0)
1969/12/31/18:00:15.526000,(5 -6 -3 -2 42 46 17 -5)
1969/12/31/18:00:15.526000,(13 12 4 3 -28 -78 -23 17)
1969/12/31/18:00:15.541000,(-4 -5 -1 4 19 8 2 -10)
1969/12/31/18:00:15.541000,(3 4 -4 -16 -46 -48 2 3)
1969/12/31/18:00:15.542000,(1 18 8 7 28 48 2 1)
1969/12/31/18:00:15.542000,(-7 -23 -3 5 24 0 5 8)
1969/12/31/18:00:15.556000,(18 18 7 4 -2 9 7 18)
1969/12/31/18:00:15.556000,(-28 -26 -17 -22 -49 -61 -31 -29)
1969/12/31/18:00:15.557000,(-12 -19 -2 14 72 118 47 12)
1969/12/31/18:00:15.557000,(7 9 1 -3 -62 -105 -27 -1)
1969/12/31/18:00:15.578000,(0 3 1 -4 0 21 -5 -19)
1969/12/31/18:00:15.578000,(-1 -1 -1 -4 -24 -9 7 5)
1969/12/31/18:00:15.579000,(-6 -5 -5 3 24 -3 -4 -5)
1969/12/31/18:00:15.579000,(6 6 -5 10 49 32 5 6)
1969/12/31/18:00:15.601000,(10 13 1 9 33 43 7 -5)
1969/12/31/18:00:15.601000,(-20 -17 -1 -34 -80 -78 -43 -22)
1969/12/31/18:00:15.602000,(9 25 8 -17 -17 9 7 8)
1969/12/31/18:00:15.602000,(-6 -34 -18 -8 27 25 16 26)
1969/12/31/18:00:15.615000,(1 -15 -23 4 28 -16 -10 -4)
1969/12/31/18:00:15.615000,(-35 -13 19 18 35 78 37 -3)
1969/12/31/18:00:15.623000,(14 -10 -17 -12 -32 -43 -38 11)
1969/12/31/18:00:15.623000,(22 5 -18 -11 -2 19 14 2)
1969/12/31/18:00:15.638000,(-43 17 60 26 7 -19 -14 -49)
1969/12/31/18:00:15.638000,(33 38 16 27 21 10 0 5)
1969/12/31/18:00:15.646000,(-29 -31 -17 -18 -40 -19 -6 -51)
1969/12/31/18:00:15.646000,(1 26 23 11 5 -14 -3 4)
1969/12/31/18:00:15.661000,(-4 -58 -57 -31 -11 17 -6 -25)
1969/12/31/18:00:15.661000,(4 18 5 3 -1 -9 6 -12)
1969/12/31/18:00:15.662000,(1 41 44 27 42 38 -2 4)
1969/12/31/18:00:15.662000,(22 -8 -42 -19 -13 2 2 11)
1969/12/31/18:00:15.675000,(-21 -70 -54 -34 -57 -85 -33 -14)
1969/12/31/18:00:15.675000,(-1 28 38 16 22 29 22 18)
1969/12/31/18:00:15.684000,(-51 -37 -7 2 1 -13 -15 -51)
1969/12/31/18:00:15.684000,(-11 45 28 3 -16 -10 -8 -10)
1969/12/31/18:00:15.698000,(0 -20 -3 -9 -14 2 16 20)
1969/12/31/18:00:15.698000,(5 31 25 20 46 17 -18 -38)
1969/12/31/18:00:15.699000,(5 -11 -10 -2 -25 -20 -5 -8)
1969/12/31/18:00:15.699000,(6 -18 26 20 41 28 10 2)
1969/12/31/18:00:15.721000,(-20 -56 -51 -23 -50 -28 -15 14)
1969/12/31/18:00:15.721000,(42 78 37 22 36 18 45 59)
1969/12/31/18:00:15.722000,(7 5 17 9 35 39 3 5)
1969/12/31/18:00:15.722000,(-29 -11 7 -10 -92 -95 -15 -37)
1969/12/31/18:00:15.735000,(17 -29 -41 -9 72 47 -7 11)
1969/12/31/18:00:15.735000,(29 -36 -1 2 -65 -26 0 35)
1969/12/31/18:00:15.743000,(19 62 21 -10 -24 -35 -32 -8)
1969/12/31/18:00:15.743000,(-21 61 51 33 55 45 30 28)
1969/12/31/18:00:15.758000,(62 17 -31 -23 -41 3 34 30)
1969/12/31/18:00:15.758000,(-57 11 67 37 60 33 -32 -53)
1969/12/31/18:00:15.759000,(50 -26 -37 -6 -13 -16 12 15)
1969/12/31/18:00:15.759000,(-31 -61 -72 -25 79 68 -23 -42)
1969/12/31/18:00:15.781000,(32 83 67 37 -75 -69 33 35)
1969/12/31/18:00:15.781000,(-48 -67 -69 -49 -22 -38 -28 -55)
1969/12/31/18:00:15.788000,(-7 50 39 20 -10 15 31 12)
1969/12/31/18:00:15.788000,(24 -11 -11 -3 0 -14 -33 -38)
1969/12/31/18:00:15.804000,(-14 -65 -23 -12 20 22 -1 -14)
1969/12/31/18:00:15.804000,(28 -45 -82 -20 30 35 31 74)
1969/12/31/18:00:15.805000,(-41 39 85 14 -53 -36 -30 -25)
1969/12/31/18:00:15.805000,(49 33 12 0 3 -5 38 66)
1969/12/31/18:00:15.818000,(-3 -54 -74 -27 4 26 -20 -86)
1969/12/31/18:00:15.818000,(-54 -85 -42 -17 69 28 -21 -53)
1969/12/31/18:00:15.819000,(33 74 62 53 -13 -28 -4 28)
1969/12/31/18:00:15.819000,(-20 -84 -67 -50 -107 -20 -2 14)
1969/12/31/18:00:15.841000,(31 127 120 26 -21 -32 -14 -3)
1969/12/31/18:00:15.841000,(24 -97 -92 -23 17 29 26 35)
1969/12/31/18:00:15.842000,(-32 -128 -128 -57 41 36 21 -3)
1969/12/31/18:00:15.842000,(-12 127 108 58 7 -40 -72 -48)
1969/12/31/18:00:15.855000,(-15 -90 -73 -30 -23 -10 -12 -42)
1969/12/31/18:00:15.855000,(-9 20 0 8 49 43 5 -2)
1969/12/31/18:00:15.863000,(26 3 18 0 -58 -50 7 28)
1969/12/31/18:00:15.863000,(39 -48 -48 -24 -13 8 38 56)
1969/12/31/18:00:15.878000,(-50 33 38 4 23 16 -14 -22)
1969/12/31/18:00:15.879000,(27 83 51 22 -13 -13 5 46)
1969/12/31/18:00:15.879000,(28 10 4 8 9 6 -4 -27)
1969/12/31/18:00:15.879000,(-21 -78 -38 -10 13 12 29 7)
1969/12/31/18:00:15.901000,(66 36 -29 14 53 32 13 81)
1969/12/31/18:00:15.901000,(-24 47 71 7 -40 -7 -1 -3)
1969/12/31/18:00:15.901000,(-20 -8 -20 -15 4 27 24 9)
1969/12/31/18:00:15.901000,(20 23 8 3 -55 -68 -28 -26)
1969/12/31/18:00:15.915000,(-36 -44 -7 -5 -1 -9 -8 2)
1969/12/31/18:00:15.915000,(-6 -63 -57 -26 -17 -26 -3 -43)
1969/12/31/18:00:15.923000,(-8 20 -5 -11 5 -15 -36 -34)
1969/12/31/18:00:15.923000,(-3 48 26 9 33 39 13 -18)
1969/12/31/18:00:15.939000,(-1 67 82 22 -64 -25 -1 12)
1969/12/31/18:00:15.939000,(0 -39 -40 12 40 32 19 23)
1969/12/31/18:00:15.939000,(13 -43 13 -3 -25 -5 7 33)
1969/12/31/18:00:15.939000,(25 9 -20 -14 4 -16 -14 30)
1969/12/31/18:00:15.961000,(10 99 70 29 30 5 -20 -6)
1969/12/31/18:00:15.961000,(5 -10 -7 -3 -14 -5 4 -1)
1969/12/31/18:00:15.962000,(23 -98 -91 -22 24 20 15 45)
1969/12/31/18:00:15.962000,(7 62 88 51 25 19 12 1)
1969/12/31/18:00:15.984000,(-32 -28 -7 -5 -9 -2 11 22)
1969/12/31/18:00:15.984000,(14 -34 -32 -9 15 8 -7 -8)
1969/12/31/18:00:15.985000,(14 28 -3 9 -2 16 4 -3)
1969/12/31/18:00:15.985000,(15 38 52 32 32 11 18 31)
1969/12/31/18:00:16.000000,(-6 -61 -75 -38 -35 -29 6 -26)
1969/12/31/18:00:16.000000,(3 125 120 38 -32 -30 -28 -33)
1969/12/31/18:00:16.000000,(-36 -37 -41 -4 21 6 -1 3)
1969/12/31/18:00:16.000000,(0 -56 -38 -34 -47 12 1 17)
1969/12/31/18:00:16.021000,(-4 -13 16 30 78 38 14 10)
1969/12/31/18:00:16.021000,(32 -49 -53 -26 -36 -25 6 8)
1969/12/31/18:00:16.022000,(-8 -58 -18 11 35 22 19 17)
1969/12/31/18:00:16.022000,(-31 43 10 -13 -9 -25 -29 -37)
1969/12/31/18:00:16.044000,(-15 -8 6 -2 -21 -40 -20 -15)
1969/12/31/18:00:16.044000,(13 -36 -64 -28 25 19 -9 14)
1969/12/31/18:00:16.045000,(-39 11 38 8 -54 -47 -8 -29)
1969/12/31/18:00:16.045000,(19 21 43 9 -27 -21 -20 -44)
1969/12/31/18:00:16.058000,(-19 -52 14 7 5 14 0 2)
1969/12/31/18:00:16.058000,(10 -3 5 5 -4 -2 0 -2)
1969/12/31/18:00:16.066000,(5 -55 -57 -16 33 23 10 32)
1969/12/31/18:00:16.066000,(-30 -128 -128 -51 -10 -9 -22 -41)
1969/12/31/18:00:16.081000,(2 127 86 42 41 37 25 25)
1969/12/31/18:00:16.081000,(13 65 43 18 -49 -30 -26 -10)
1969/12/31/18:00:16.082000,(-9 -52 -38 -37 -15 -7 10 16)
1969/12/31/18:00:16.082000,(-8 7 -7 1 11 -1 -8 -8)
1969/12/31/18:00:16.104000,(26 3 -15 -13 -33 -3 6 9)
1969/12/31/18:00:16.104000,(-3 -90 -89 -22 49 32 20 20)
1969/12/31/18:00:16.105000,(-25 127 127 55 12 -21 -29 -44)
1969/12/31/18:00:16.105000,(-5 -62 -31 -4 -22 -34 -3 1)
1969/12/31/18:00:16.118000,(10 -37 -40 -26 -36 -7 -14 3)
1969/12/31/18:00:16.118000,(22 72 49 13 2 14 26 31)
1969/12/31/18:00:16.119000,(-11 -11 -35 -18 -25 -9 2 -15)
1969/12/31/18:00:16.119000,(3 -17 8 5 32 14 0 8)
1969/12/31/18:00:16.141000,(-9 -78 -74 -21 12 4 4 48)
1969/12/31/18:00:16.141000,(-48 48 50 4 -21 -24 -28 -57)
1969/12/31/18:00:16.142000,(10 -14 -11 2 11 8 -13 -14)
1969/12/31/18:00:16.142000,(0 -28 -36 9 49 52 33 18)
1969/12/31/18:00:16.164000,(-15 64 48 9 -40 -30 -6 -27)
1969/12/31/18:00:16.164000,(-5 -8 -33 -25 3 8 -4 26)
1969/12/31/18:00:16.165000,(9 46 30 32 4 -4 9 -9)
1969/12/31/18:00:16.165000,(-25 74 69 0 -41 -15 7 -10)
1969/12/31/18:00:16.178000,(6 -90 -48 -6 38 -11 -26 -27)
1969/12/31/18:00:16.178000,(5 -32 -40 -21 -28 -3 9 20)
1969/12/31/18:00:16.179000,(29 64 52 19 22 42 10 6)
1969/12/31/18:00:16.179000,(-53 -36 -2 -5 2 3 5 -29)
1969/12/31/18:00:16.201000,(5 6 16 20 53 27 -16 -31)
1969/12/31/18:00:16.201000,(24 -47 -18 -5 -31 -25 23 29)
1969/12/31/18:00:16.208000,(-15 -52 -61 -39 -32 -53 -49 -1)
1969/12/31/18:00:16.208000,(38 -2 -10 -1 -12 3 -3 9)
1969/12/31/18:00:16.224000,(-26 73 73 20 3 3 15 3)
1969/12/31/18:00:16.224000,(16 -4 -12 7 23 14 7 5)
1969/12/31/18:00:16.225000,(3 -29 -25 -5 29 31 17 3)
1969/12/31/18:00:16.225000,(-2 -5 -32 1 34 20 12 46)
1969/12/31/18:00:16.238000,(-3 -18 0 -2 -44 -12 14 -13)
1969/12/31/18:00:16.238000,(-7 -45 -13 -2 19 5 0 12)
1969/12/31/18:00:16.239000,(11 -1 -14 -18 -27 -14 -1 37)
1969/12/31/18:00:16.239000,(-9 72 55 20 -28 -21 4 -17)
1969/12/31/18:00:16.261000,(37 -103 -94 -31 -8 -15 -20 53)
1969/12/31/18:00:16.261000,(-41 105 41 -12 -39 -40 -40 -82)
1969/12/31/18:00:16.262000,(-43 21 33 22 15 19 11 -7)
1969/12/31/18:00:16.262000,(-12 -122 -107 -28 17 16 -8 -44)
1969/12/31/18:00:16.284000,(7 38 33 23 18 31 21 26)
1969/12/31/18:00:16.284000,(10 -59 -19 1 -9 -29 -8 -32)
1969/12/31/18:00:16.285000,(4 -46 -57 -37 -39 -20 -11 18)
1969/12/31/18:00:16.285000,(-23 21 38 5 -3 -14 -4 -9)
1969/12/31/18:00:16.298000,(-11 82 61 19 -13 -13 -18 -37)
1969/12/31/18:00:16.298000,(-20 16 2 8 1 11 12 3)
1969/12/31/18:00:16.299000,(18 -54 -24 -9 24 19 8 27)
1969/12/31/18:00:16.299000,(19 -9 -17 -17 -13 -5 4 12)
1969/12/31/18:00:16.321000,(-9 0 -23 -3 65 23 28 0)
1969/12/31/18:00:16.321000,(5 1 33 -9 -73 -43 -34 2)
1969/12/31/18:00:16.322000,(10 65 57 24 4 -11 8 -4)
1969/12/31/18:00:16.322000,(7 -101 -77 -31 5 5 16 10)
1969/12/31/18:00:16.343000,(-27 -97 -74 -29 23 16 -11 -14)
1969/12/31/18:00:16.343000,(27 127 127 81 39 23 19 4)
1969/12/31/18:00:16.350000,(-19 -48 -25 -20 -5 6 0 -27)
1969/12/31/18:00:16.350000,(-8 -13 24 16 -15 -17 -7 -3)
1969/12/31/18:00:16.368000,(71 -65 -80 -25 -22 0 24 56)
1969/12/31/18:00:16.368000,(-88 -13 6 3 19 20 -20 -66)
1969/12/31/18:00:16.369000,(22 -13 -37 -21 -18 -16 -2 21)
1969/12/31/18:00:16.369000,(19 64 35 35 25 2 -17 -8)
1969/12/31/18:00:16.381000,(-55 20 40 -14 -69 -47 -35 -36)
1969/12/31/18:00:16.381000,(20 -105 -91 -32 41 41 22 23)
1969/12/31/18:00:16.382000,(13 -51 -91 -17 46 22 15 22)
1969/12/31/18:00:16.382000,(-30 127 119 55 -30 -7 -7 -17)
1969/12/31/18:00:16.404000,(26 23 3 -7 -45 -37 -6 0)
1969/12/31/18:00:16.404000,(-2 -42 -8 2 -29 2 3 10)
1969/12/31/18:00:16.405000,(-6 -42 -21 -1 49 14 15 6)
1969/12/31/18:00:16.405000,(13 -120 -111 -33 6 -3 -23 21)
1969/12/31/18:00:16.427000,(-8 -26 -38 -28 -21 0 -4 -27)
1969/12/31/18:00:16.427000,(-3 99 84 73 21 -3 -11 13)
1969/12/31/18:00:16.428000,(39 22 -1 18 -5 14 41 26)
1969/12/31/18:00:16.428000,(-11 -19 -26 -11 15 11 -8 -6)
1969/12/31/18:00:16.441000,(-30 -83 -41 -22 -46 -46 -35 -49)
1969/12/31/18:00:16.441000,(56 -13 -72 -25 45 24 12 48)
1969/12/31/18:00:16.441000,(4 42 63 20 -38 -42 -10 17)
1969/12/31/18:00:16.441000,(-8 29 56 11 5 2 -35 -41)
1969/12/31/18:00:16.464000,(-15 71 54 8 -23 0 24 3)
1969/12/31/18:00:16.464000,(10 -19 -19 -12 2 -1 -9 14)
1969/12/31/18:00:16.465000,(-1 3 19 11 29 23 8 -2)
1969/12/31/18:00:16.465000,(24 -35 -67 -35 -21 2 30 44)
1969/12/31/18:00:16.478000,(-9 -72 -57 -15 -5 -24 -9 -9)
1969/12/31/18:00:16.478000,(-3 66 86 24 0 -17 -4 27)
1969/12/31/18:00:16.486000,(8 34 20 18 17 11 11 -2)
1969/12/31/18:00:16.486000,(-19 32 41 -14 -63 -28 -4 -11)
1969/12/31/18:00:16.501000,(7 -29 -23 2 33 35 7 4)
1969/12/31/18:00:16.501000,(28 -88 -128 -43 -1 6 25 23)
1969/12/31/18:00:16.502000,(-17 78 89 42 31 22 -22 -14)
1969/12/31/18:00:16.502000,(-2 -75 -79 -23 -7 -10 19 8)
1969/12/31/18:00:16.524000,(-3 127 127 41 -22 -14 -26 -4)
1969/12/31/18:00:16.524000,(-3 -41 -25 7 26 -3 12 1)
1969/12/31/18:00:16.525000,(-21 -79 -48 -29 -48 -42 -14 -17)
1969/12/31/18:00:16.525000,(11 -6 -25 -15 25 14 -19 -27)
1969/12/31/18:00:16.538000,(31 -72 -65 -13 30 25 12 -5)
1969/12/31/18:00:16.538000,(-51 57 74 34 -6 -15 -3 -20)
1969/12/31/18:00:16.539000,(-20 4 -6 -1 -1 17 7 -43)
1969/12/31/18:00:16.539000,(23 10 2 12 29 5 -12 10)
1969/12/31/18:00:16.560000,(15 -93 -90 -30 -22 2 9 34)
1969/12/31/18:00:16.560000,(13 68 51 3 -8 -7 8 10)
1969/12/31/18:00:16.569000,(-18 30 36 8 -11 0 -3 -16)
1969/12/31/18:00:16.569000,(-8 -46 -4 20 64 22 11 28)
1969/12/31/18:00:16.584000,(6 117 101 16 -49 -32 -18 -25)
1969/12/31/18:00:16.584000,(-17 -84 -50 -26 -29 -18 -11 -23)
1969/12/31/18:00:16.585000,(-12 -23 -15 -11 -42 -36 -22 -20)
1969/12/31/18:00:16.585000,(-7 -27 -9 -1 35 34 25 16)
1969/12/31/18:00:16.598000,(-19 -100 -66 -14 47 17 -6 10)
1969/12/31/18:00:16.598000,(14 65 25 17 12 9 28 18)
1969/12/31/18:00:16.606000,(29 65 52 41 47 23 -42 -11)
1969/12/31/18:00:16.606000,(-26 -63 -48 -38 -101 -86 -43 -36)
1969/12/31/18:00:16.621000,(-45 17 8 9 12 10 12 -18)
1969/12/31/18:00:16.621000,(32 -44 -45 -23 -3 9 5 19)
1969/12/31/18:00:16.636000,(-8 -79 -34 -17 23 13 -10 -2)
1969/12/31/18:00:16.636000,(15 102 42 25 5 3 31 16)
1969/12/31/18:00:16.645000,(0 127 127 58 9 -6 -18 -45)
1969/12/31/18:00:16.645000,(-12 -73 -44 -16 27 33 -5 -18)
1969/12/31/18:00:16.647000,(-28 -56 -21 -25 -46 -22 -14 -23)
1969/12/31/18:00:16.647000,(7 39 22 9 10 13 10 31)
1969/12/31/18:00:16.658000,(-7 -71 -54 -6 35 10 16 28)
1969/12/31/18:00:16.658000,(19 37 18 5 -40 -18 -7 2)
1969/12/31/18:00:16.666000,(-10 -68 -74 -43 -19 -11 2 -15)
1969/12/31/18:00:16.666000,(11 9 -10 3 10 9 10 19)
1969/12/31/18:00:16.681000,(-30 90 70 5 -5 7 -29 -62)
1969/12/31/18:00:16.681000,(-15 15 34 20 21 -2 7 -9)
1969/12/31/18:00:16.682000,(21 -41 -69 -24 -28 -19 11 25)
1969/12/31/18:00:16.682000,(-22 -26 -1 -2 12 2 -22 -47)
1969/12/31/18:00:16.704000,(29 51 21 35 44 32 36 41)
1969/12/31/18:00:16.704000,(12 -49 -18 -18 -36 -12 -35 1)
1969/12/31/18:00:16.705000,(-29 78 78 26 5 -1 2 -7)
1969/12/31/18:00:16.705000,(26 -26 -13 8 12 9 17 29)
1969/12/31/18:00:16.718000,(-11 -46 -39 -27 -2 5 -4 4)
1969/12/31/18:00:16.718000,(0 -119 -128 -60 -37 -31 -7 -6)
1969/12/31/18:00:16.726000,(21 83 84 38 -10 -28 -24 -26)
1969/12/31/18:00:16.726000,(-23 42 78 42 78 57 -1 -16)
1969/12/31/18:00:16.742000,(8 -81 -49 -17 -63 -37 -7 7)
1969/12/31/18:00:16.742000,(-8 -102 -93 -33 -47 -29 8 -6)
1969/12/31/18:00:16.742000,(43 46 54 34 39 50 34 100)
1969/12/31/18:00:16.742000,(-27 10 -6 -11 -15 -10 32 -27)
1969/12/31/18:00:16.763000,(-6 20 10 -6 16 -7 -25 -16)
1969/12/31/18:00:16.763000,(-21 11 7 7 31 30 4 -10)
1969/12/31/18:00:16.771000,(3 -22 -25 -12 -22 -27 3 2)
1969/12/31/18:00:16.771000,(23 12 0 7 8 15 4 18)
1969/12/31/18:00:16.778000,(17 -41 -11 5 21 17 17 29)
1969/12/31/18:00:16.778000,(-4 51 8 8 14 2 -17 -23)
1969/12/31/18:00:16.787000,(-18 58 49 19 -19 13 50 57)
1969/12/31/18:00:16.787000,(22 -75 -60 -27 -22 -32 -21 1)
1969/12/31/18:00:16.800000,(-12 -28 -14 -4 9 -7 -31 -47)
1969/12/31/18:00:16.800000,(0 -65 -32 -18 -4 17 10 10)
1969/12/31/18:00:16.809000,(25 -23 -75 -55 -47 -58 -46 -15)
1969/12/31/18:00:16.809000,(-12 115 106 47 -26 -10 16 16)
1969/12/31/18:00:16.824000,(-14 -75 -63 -9 18 -10 -6 5)
1969/12/31/18:00:16.824000,(31 91 50 33 45 27 18 15)
1969/12/31/18:00:16.826000,(-33 -64 -19 7 28 32 8 -26)
1969/12/31/18:00:16.826000,(64 91 78 16 -47 -17 -27 -7)
1969/12/31/18:00:16.838000,(6 83 33 20 1 4 -7 -16)
1969/12/31/18:00:16.838000,(23 -63 -3 -9 -4 -12 -24 -3)
1969/12/31/18:00:16.847000,(-26 -51 -65 -19 18 13 -1 -22)
1969/12/31/18:00:16.847000,(16 -52 -56 -18 -14 -7 10 40)
1969/12/31/18:00:16.862000,(-3 57 50 15 28 16 30 26)
1969/12/31/18:00:16.862000,(-23 -24 -8 -12 -9 -2 -24 -20)
1969/12/31/18:00:16.863000,(26 -53 -64 -36 -27 -24 -24 -16)
1969/12/31/18:00:16.863000,(-65 -13 -14 1 35 17 -3 -22)
1969/12/31/18:00:16.884000,(37 30 32 28 12 32 18 35)
1969/12/31/18:00:16.884000,(-20 -49 -19 -2 2 1 16 3)
1969/12/31/18:00:16.886000,(0 2 14 -8 -40 -15 -9 -33)
1969/12/31/18:00:16.886000,(-34 44 35 9 -9 -18 -4 -4)
1969/12/31/18:00:16.906000,(39 -124 -128 -53 -23 -2 28 61)
1969/12/31/18:00:16.906000,(-3 127 127 54 39 18 -13 -35)
1969/12/31/18:00:16.914000,(17 -4 -13 17 47 41 2 12)
1969/12/31/18:00:16.914000,(7 -55 -60 -50 -67 -48 -25 -6)
1969/12/31/18:00:16.921000,(-3 -5 41 16 6 18 53 35)
1969/12/31/18:00:16.922000,(-38 -67 -51 -8 4 -12 -14 -11)
1969/12/31/18:00:16.923000,(24 14 -13 -13 -19 -26 -20 -5)
1969/12/31/18:00:16.923000,(-1 -6 0 5 18 21 30 3)
1969/12/31/18:00:16.944000,(13 11 2 -2 -3 -25 -51 -34)
1969/12/31/18:00:16.944000,(-18 -21 -34 -26 0 28 43 12)
1969/12/31/18:00:16.945000,(-16 -66 -63 -20 0 -4 8 -13)
1969/12/31/18:00:16.945000,(29 87 74 35 -4 -10 -22 8)
1969/12/31/18:00:16.966000,(-4 47 45 15 22 18 10 25)
1969/12/31/18:00:16.967000,(4 20 36 21 5 1 3 -3)
1969/12/31/18:00:16.968000,(11 -49 -30 -21 -22 -7 11 23)
1969/12/31/18:00:16.968000,(-50 -128 -122 -52 -12 -19 -39 -31)
1969/12/31/18:00:16.981000,(27 37 35 14 8 0 2 0)
1969/12/31/18:00:16.981000,(2 43 24 -1 16 7 -2 3)
1969/12/31/18:00:16.988000,(1 89 89 33 -25 -3 11 5)
1969/12/31/18:00:16.988000,(-3 -71 -49 -11 15 -16 -22 -5)
1969/12/31/18:00:17.004000,(-42 -13 -15 -32 -45 4 -3 -49)
1969/12/31/18:00:17.004000,(9 -9 -2 41 28 6 13 30)
1969/12/31/18:00:17.005000,(4 -9 -9 4 21 4 4 12)
1969/12/31/18:00:17.005000,(-40 -70 -41 -22 4 3 9 -21)
1969/12/31/18:00:17.026000,(2 3 -36 -14 -29 -22 -27 -13)
1969/12/31/18:00:17.026000,(58 23 0 -8 -10 -5 9 24)
1969/12/31/18:00:17.041000,(-54 -45 21 15 21 20 5 -16)
1969/12/31/18:00:17.041000,(39 24 5 -2 -13 2 -2 2)
1969/12/31/18:00:17.049000,(-1 -6 6 -3 2 -6 15 47)
1969/12/31/18:00:17.049000,(8 -14 -40 -19 -9 -2 -25 -55)
1969/12/31/18:00:17.050000,(18 59 53 22 6 -12 -10 -1)
1969/12/31/18:00:17.050000,(-22 -56 -63 -24 10 14 9 -2)
1969/12/31/18:00:17.064000,(-33 8 -6 0 2 4 18 -33)
1969/12/31/18:00:17.064000,(-8 35 65 26 -21 -38 -35 8)
1969/12/31/18:00:17.065000,(-32 -35 -35 -27 -29 -8 -22 -42)
1969/12/31/18:00:17.065000,(25 11 3 9 38 40 19 6)
1969/12/31/18:00:17.086000,(1 -26 -8 -5 -51 -55 -24 4)
1969/12/31/18:00:17.086000,(-29 -5 -1 -11 8 5 -4 -26)
1969/12/31/18:00:17.088000,(-16 -23 -26 -38 -25 -11 -21 -27)
1969/12/31/18:00:17.088000,(24 32 30 28 63 44 23 14)
1969/12/31/18:00:17.101000,(-2 -1 3 50 44 19 15 15)
1969/12/31/18:00:17.101000,(10 -39 -30 -8 -31 -13 7 18)
1969/12/31/18:00:17.108000,(-28 -6 8 17 27 2 -4 -2)
1969/12/31/18:00:17.108000,(-28 18 17 -18 -27 -3 9 -8)
1969/12/31/18:00:17.124000,(14 3 0 -10 -11 -12 -18 -8)
1969/12/31/18:00:17.124000,(-6 -1 -2 -6 3 0 10 11)
1969/12/31/18:00:17.126000,(16 8 -6 0 4 18 19 41)
1969/12/31/18:00:17.126000,(8 -22 -13 -4 -22 -16 -9 -28)
1969/12/31/18:00:17.147000,(-18 -3 -21 -24 -6 -10 -16 -17)
1969/12/31/18:00:17.147000,(0 45 66 32 9 13 7 4)
1969/12/31/18:00:17.148000,(22 13 0 7 5 -15 -10 1)
1969/12/31/18:00:17.148000,(-27 -7 7 7 -3 12 31 22)
1969/12/31/18:00:17.160000,(33 -6 -21 -4 15 10 -5 0)
1969/12/31/18:00:17.160000,(20 -16 -8 -7 -1 7 10 16)
1969/12/31/18:00:17.175000,(-37 10 8 6 -3 -11 -9 -28)
1969/12/31/18:00:17.175000,(-4 -6 13 4 0 -9 -5 -2)
1969/12/31/18:00:17.183000,(3 -16 -11 -3 7 10 -1 -3)
1969/12/31/18:00:17.183000,(-36 -13 -10 -9 -14 -14 -19 -22)
1969/12/31/18:00:17.199000,(68 17 -9 -54 -31 -5 4 17)
1969/12/31/18:00:17.199000,(-37 0 10 56 18 5 -5 -14)
1969/12/31/18:00:17.206000,(4 5 12 19 -3 -4 17 17)
1969/12/31/18:00:17.207000,(-37 -28 -31 -3 30 0 -34 -42)
1969/12/31/18:00:17.208000,(12 -14 -7 8 -2 -5 4 10)
1969/12/31/18:00:17.208000,(58 51 24 -23 -18 -3 -6 11)
1969/12/31/18:00:17.220000,(11 3 6 -1 -1 -10 -18 15)
1969/12/31/18:00:17.220000,(-54 -54 -33 -15 -20 4 27 -28)
1969/12/31/18:00:17.229000,(-46 -16 -5 -2 7 5 -15 -23)
1969/12/31/18:00:17.229000,(27 26 13 0 0 -5 1 15)
1969/12/31/18:00:17.244000,(-2 -11 -4 -1 -6 -2 -6 -15)
1969/12/31/18:00:17.244000,(18 10 -1 -6 -2 0 2 16)
1969/12/31/18:00:17.246000,(7 20 17 20 18 9 12 14)
1969/12/31/18:00:17.246000,(41 27 6 0 -12 -7 -3 7)
1969/12/31/18:00:17.267000,(-55 -39 -21 -16 4 -2 -12 -48)
1969/12/31/18:00:17.267000,(-22 -25 -9 -12 -13 -7 -6 3)
1969/12/31/18:00:17.268000,(-2 2 2 12 9 0 2 0)
1969/12/31/18:00:17.268000,(12 5 2 -2 -2 -2 3 19)
1969/12/31/18:00:17.280000,(45 35 19 7 7 13 17 24)
1969/12/31/18:00:17.280000,(-23 -23 -17 -9 -9 -13 -27 -39)
1969/12/31/18:00:17.289000,(11 -7 -6 8 1 -3 -10 -21)
1969/12/31/18:00:17.289000,(-16 5 3 -5 -2 0 0 -4)
1969/12/31/18:00:17.303000,(69 19 6 0 5 8 11 41)
1969/12/31/18:00:17.303000,(-67 -32 -16 -7 -11 -9 -4 -15)
1969/12/31/18:00:17.318000,(-19 -27 -13 -6 1 -1 -1 -4)
1969/12/31/18:00:17.318000,(-9 3 7 3 -2 -3 -6 -14)
1969/12/31/18:00:17.327000,(-15 -14 1 3 5 7 9 12)
1969/12/31/18:00:17.327000,(127 85 22 14 5 10 22 70)
1969/12/31/18:00:17.328000,(-79 -53 -11 -4 -2 -6 -16 -44)
1969/12/31/18:00:17.328000,(-44 -19 -18 -14 -8 -8 -10 -32)
1969/12/31/18:00:17.340000,(-19 -23 0 0 -4 0 -1 -2)
1969/12/31/18:00:17.340000,(23 6 3 1 3 5 5 10)
1969/12/31/18:00:17.349000,(71 45 5 1 1 2 7 40)
1969/12/31/18:00:17.349000,(-25 -5 11 11 9 8 9 13)
1969/12/31/18:00:17.371000,(-29 -16 -15 -14 -8 -6 -7 -29)
1969/12/31/18:00:17.372000,(21 8 0 -2 -3 -2 -3 2)
1969/12/31/18:00:17.373000,(4 -1 7 13 8 11 15 23)
1969/12/31/18:00:17.373000,(-26 -16 -20 -13 -9 -8 -10 -15)
1969/12/31/18:00:17.386000,(-3 -6 -4 -3 -5 -2 -5 -7)
1969/12/31/18:00:17.386000,(-8 8 7 2 1 -1 3 1)
1969/12/31/18:00:17.388000,(38 14 5 7 7 7 12 20)
1969/12/31/18:00:17.388000,(3 -1 -10 -10 -6 -6 -5 -8)
1969/12/31/18:00:17.400000,(-63 -11 5 0 -4 -3 -5 -27)
1969/12/31/18:00:17.400000,(15 2 -7 -7 -7 -5 -6 0)
1969/12/31/18:00:17.409000,(-4 -8 -6 0 -1 -4 -7 -10)
1969/12/31/18:00:17.409000,(-2 -12 -2 -3 -1 1 1 1)
1969/12/31/18:00:17.424000,(6 9 3 1 1 -2 -4 0)
1969/12/31/18:00:17.424000,(-4 2 -2 -2 1 2 1 -2)
1969/12/31/18:00:17.426000,(-3 5 12 3 -2 -4 -3 -5)
1969/12/31/18:00:17.426000,(9 8 4 2 1 0 1 5)
1969/12/31/18:00:17.446000,(1 5 2 6 4 2 0 -1)
1969/12/31/18:00:17.446000,(6 -1 4 4 2 2 5 15)
1969/12/31/18:00:17.461000,(4 2 -8 -5 0 0 -4 -17)
1969/12/31/18:00:17.461000,(-6 -10 -4 -2 -1 -2 -3 11)
1969/12/31/18:00:17.469000,(-10 -15 -6 -11 -7 -6 -11 -4)
1969/12/31/18:00:17.469000,(11 -2 -9 -7 -4 -6 -4 -2)
1969/12/31/18:00:17.470000,(-14 0 -6 -6 0 2 3 -2)
1969/12/31/18:00:17.470000,(15 13 22 10 2 -1 -5 -1)
1969/12/31/18:00:17.484000,(1 -15 -16 -1 0 -1 -3 5)
1969/12/31/18:00:17.484000,(-15 9 13 0 -2 -1 2 0)
1969/12/31/18:00:17.485000,(-1 0 0 2 0 1 6 23)
1969/12/31/18:00:17.485000,(17 11 -5 -7 -3 -3 0 -8)
1969/12/31/18:00:17.507000,(-4 -17 -13 -8 -3 4 2 4)
1969/12/31/18:00:17.507000,(-1 -8 0 7 3 -1 -9 0)
1969/12/31/18:00:17.508000,(0 13 10 2 3 2 4 5)
1969/12/31/18:00:17.508000,(3 -7 -7 -5 -3 3 14 13)
1969/12/31/18:00:17.520000,(-7 4 -4 -3 -2 -7 -15 -20)
1969/12/31/18:00:17.520000,(0 3 -3 -4 -2 -1 0 -1)
1969/12/31/18:00:17.537000,(4 1 7 2 -2 -7 -10 -14)
1969/12/31/18:00:17.537000,(-13 -23 -12 -4 0 3 1 -3)
1969/12/31/18:00:17.544000,(13 32 27 9 6 5 6 -7)
1969/12/31/18:00:17.544000,(-11 -14 -11 -4 -2 0 8 5)
1969/12/31/18:00:17.546000,(2 -3 -16 -6 -2 -3 -10 0)
1969/12/31/18:00:17.546000,(-6 0 11 11 1 -4 -9 -15)
1969/12/31/18:00:17.566000,(4 1 -5 -1 1 3 11 9)
1969/12/31/18:00:17.566000,(-8 -8 -6 -7 -6 -5 -13 -11)
1969/12/31/18:00:17.568000,(-9 -45 -32 -15 -4 -1 3 1)
1969/12/31/18:00:17.568000,(10 43 28 9 4 -4 0 4)
1969/12/31/18:00:17.580000,(-4 4 0 3 3 3 0 1)
1969/12/31/18:00:17.580000,(-5 2 7 5 -1 -1 1 -6)
1969/12/31/18:00:17.595000,(0 2 4 -1 -3 -3 0 -8)
1969/12/31/18:00:17.595000,(3 -15 -16 -12 -5 -2 -1 1)
1969/12/31/18:00:17.604000,(1 -4 -4 -3 -2 -3 4 5)
1969/12/31/18:00:17.604000,(1 3 3 3 6 4 1 4)
1969/12/31/18:00:17.606000,(-1 14 0 0 -2 -9 -24 -16)
1969/12/31/18:00:17.606000,(6 6 9 4 2 6 10 9)
1969/12/31/18:00:17.627000,(-10 -8 -10 -9 -6 -4 0 -4)
1969/12/31/18:00:17.627000,(-5 -7 0 -4 -8 -2 1 -8)
1969/12/31/18:00:17.628000,(14 7 -13 -10 0 9 10 12)
1969/12/31/18:00:17.628000,(-23 6 21 18 5 -4 -7 -10)
1969/12/31/18:00:17.640000,(7 -41 -32 -11 -5 -8 -10 -5)
1969/12/31/18:00:17.640000,(6 73 60 31 14 6 -4 -3)
1969/12/31/18:00:17.649000,(-9 -13 -1 -3 -3 -3 1 -6)
1969/12/31/18:00:17.649000,(-4 -68 -44 -23 -5 4 2 -3)
1969/12/31/18:00:17.663000,(7 58 23 1 -4 -4 -5 1)
1969/12/31/18:00:17.663000,(-16 -40 -31 -6 0 1 0 -4)
1969/12/31/18:00:17.670000,(1 18 22 12 3 2 5 4)
1969/12/31/18:00:17.670000,(0 -2 4 0 0 4 -8 -6)
1969/12/31/18:00:17.687000,(12 -7 -7 -10 -6 -2 5 5)
1969/12/31/18:00:17.687000,(-16 -20 -20 -7 -5 -6 -10 -13)
1969/12/31/18:00:17.688000,(-4 5 13 9 4 8 12 -1)
1969/12/31/18:00:17.688000,(0 1 1 -2 -3 -5 -15 -9)
1969/12/31/18:00:17.700000,(5 -3 1 5 -1 -2 -6 -4)
1969/12/31/18:00:17.700000,(5 -4 -11 -16 -7 4 10 12)
1969/12/31/18:00:17.709000,(-6 22 33 13 3 -2 -5 -8)
1969/12/31/18:00:17.709000,(6 0 -9 -3 -1 0 -2 5)
1969/12/31/18:00:17.723000,(-6 -25 0 5 0 1 -4 -3)
1969/12/31/18:00:17.723000,(3 39 7 -3 -1 0 -3 0)
1969/12/31/18:00:17.738000,(3 20 32 15 3 4 3 -3)
1969/12/31/18:00:17.738000,(2 0 -9 -4 -4 -6 3 8)
1969/12/31/18:00:17.747000,(-10 18 9 -6 -6 -5 -6 -10)
1969/12/31/18:00:17.747000,(5 -70 -36 4 5 2 6 12)
1969/12/31/18:00:17.748000,(0 17 -16 1 3 3 0 0)
1969/12/31/18:00:17.748000,(4 14 18 10 3 -4 -2 -2)
1969/12/31/18:00:17.760000,(-9 -41 -25 4 4 3 6 4)
1969/12/31/18:00:17.760000,(7 38 37 4 -2 -7 -5 -1)
1969/12/31/18:00:17.769000,(-5 -11 -26 -20 -9 -11 -7 -4)
1969/12/31/18:00:17.769000,(4 14 -28 -23 -6 -9 0 -1)
1969/12/31/18:00:17.783000,(-1 -11 -2 5 4 -2 0 6)
1969/12/31/18:00:17.783000,(-5 -16 -13 -4 0 -3 4 3)
1969/12/31/18:00:17.790000,(-6 -10 5 1 1 -3 0 0)
1969/12/31/18:00:17.790000,(7 3 -12 -2 2 0 5 8)
1969/12/31/18:00:17.807000,(9 27 14 1 2 -3 1 1)
1969/12/31/18:00:17.807000,(5 17 7 4 4 -1 3 6)
1969/12/31/18:00:17.808000,(-10 -36 -17 -9 -2 -5 -4 0)
1969/12/31/18:00:17.808000,(-9 -5 3 -9 -2 -2 1 -3)
1969/12/31/18:00:17.820000,(2 27 22 17 9 1 -3 -8)
1969/12/31/18:00:17.820000,(-6 -11 4 5 2 2 4 -2)
1969/12/31/18:00:17.829000,(0 -3 -6 -9 -3 0 -5 -3)
1969/12/31/18:00:17.829000,(-6 -5 3 -1 -3 2 -3 -4)
1969/12/31/18:00:17.843000,(-8 0 2 -4 -4 2 -5 -11)
1969/12/31/18:00:17.843000,(-4 -3 -5 -13 -5 1 -5 -8)
1969/12/31/18:00:17.850000,(-1 -9 -4 3 -4 -1 -5 -5)
1969/12/31/18:00:17.850000,(4 8 13 10 2 3 -1 0)
1969/12/31/18:00:17.866000,(-6 -15 -10 -11 -7 -2 -5 -6)
1969/12/31/18:00:17.866000,(1 -4 -10 -3 -4 -2 -5 -6)
1969/12/31/18:00:17.880000,(4 5 11 11 2 4 1 -2)
1969/12/31/18:00:17.880000,(1 4 1 2 -2 3 -2 -3)
1969/12/31/18:00:17.889000,(-6 -1 3 1 0 5 -1 -3)
1969/12/31/18:00:17.889000,(-4 1 -4 -10 -7 6 -6 -8)
1969/12/31/18:00:17.890000,(-1 -5 0 3 -2 2 -3 -3)
1969/12/31/18:00:17.890000,(2 6 3 9 0 -2 0 3)
1969/12/31/18:00:17.904000,(0 -10 -4 -2 -2 -4 -2 -1)
1969/12/31/18:00:17.904000,(2 0 -6 2 2 -6 3 8)
1969/12/31/18:00:17.918000,(-2 -6 -15 -9 -4 -10 -3 3)
1969/12/31/18:00:17.918000,(-1 -15 -9 -3 1 -5 2 7)
1969/12/31/18:00:17.926000,(2 7 -13 -9 -1 3 3 12)
1969/12/31/18:00:17.926000,(1 -14 -9 -1 3 12 3 8)
1969/12/31/18:00:17.928000,(5 8 -8 -5 3 8 3 10)
1969/12/31/18:00:17.928000,(2 0 -6 -2 4 -9 6 11)
1969/12/31/18:00:17.948000,(3 3 0 5 7 -16 8 10)
1969/12/31/18:00:17.948000,(-2 4 -1 -7 2 -29 5 5)
1969/12/31/18:00:17.963000,(-10 -9 -8 -10 1 -18 2 -7)
1969/12/31/18:00:17.963000,(-4 -3 -3 -11 -3 -10 -1 -5)
1969/12/31/18:00:17.972000,(-5 2 2 -10 -4 -9 -4 -10)
1969/12/31/18:00:17.972000,(-7 -1 4 -1 -3 -1 -3 -11)
1969/12/31/18:00:17.973000,(3 9 15 7 -1 13 -4 -5)
1969/12/31/18:00:17.973000,(-3 1 11 7 -2 14 -8 -11)
1969/12/31/18:00:17.987000,(1 4 7 1 -4 15 -5 -5)
1969/12/31/18:00:17.987000,(-1 -1 -2 -2 -7 6 -8 -7)
1969/12/31/18:00:17.989000,(-2 -9 -5 -4 -6 -3 -5 -5)
1969/12/31/18:00:17.989000,(1 2 3 6 -3 5 0 -3)
1969/12/31/18:00:18.008000,(-3 -5 -3 -3 -2 2 2 0)
1969/12/31/18:00:18.008000,(-1 2 5 4 -1 -2 -5 -4)
1969/12/31/18:00:18.024000,(-3 -6 -12 -20 -4 -2 2 0)
1969/12/31/18:00:18.024000,(-5 -5 -5 -1 -3 2 0 1)
1969/12/31/18:00:18.025000,(-4 -6 -10 -9 -7 -2 -4 -5)
1969/12/31/18:00:18.025000,(7 7 19 18 10 8 4 2)
1969/12/31/18:00:18.030000,(6 10 18 31 9 7 3 4)
1969/12/31/18:00:18.030000,(-1 1 -2 -7 -5 -3 -1 -1)
1969/12/31/18:00:18.046000,(-8 -17 -30 -23 -11 -6 -3 -7)
1969/12/31/18:00:18.046000,(-3 5 1 -22 -9 -3 -3 -3)
1969/12/31/18:00:18.048000,(3 3 20 34 9 2 2 5)
1969/12/31/18:00:18.048000,(3 6 10 10 8 2 1 0)
1969/12/31/18:00:18.068000,(0 2 6 11 4 1 -2 0)
1969/12/31/18:00:18.068000,(-5 -14 -20 -19 -6 2 5 7)
1969/12/31/18:00:18.077000,(-3 -5 -13 -21 -6 -6 -3 -3)
1969/12/31/18:00:18.077000,(-3 -3 -5 -4 -3 -3 -5 -6)
1969/12/31/18:00:18.083000,(0 0 4 0 2 1 0 3)
1969/12/31/18:00:18.083000,(-2 -6 -2 1 -1 -1 6 8)
1969/12/31/18:00:18.090000,(1 4 3 0 0 0 -2 -2)
1969/12/31/18:00:18.090000,(-1 -4 -5 -2 1 0 -1 -1)
1969/12/31/18:00:18.106000,(3 5 9 6 4 0 -1 -1)
1969/12/31/18:00:18.106000,(1 4 2 8 2 -2 -2 0)
1969/12/31/18:00:18.108000,(-3 -4 -8 -6 -5 -2 6 3)
1969/12/31/18:00:18.108000,(0 -1 -1 -3 -1 -2 -3 -4)
1969/12/31/18:00:18.129000,(0 -1 3 6 3 0 2 3)
1969/12/31/18:00:18.129000,(3 8 8 6 0 -2 -2 -1)
1969/12/31/18:00:18.130000,(-7 -13 -9 -2 0 -2 -2 -2)
1969/12/31/18:00:18.130000,(-4 -5 -8 -8 -3 -2 3 2)
1969/12/31/18:00:18.143000,(2 5 10 9 1 0 1 1)
1969/12/31/18:00:18.143000,(1 1 1 6 3 1 -3 -4)
1969/12/31/18:00:18.158000,(-2 -2 -8 -14 -4 -2 -4 -1)
1969/12/31/18:00:18.158000,(-1 -1 1 1 1 -1 -2 -1)
1969/12/31/18:00:18.168000,(0 -2 2 5 0 -2 -3 -3)
1969/12/31/18:00:18.168000,(1 -1 -1 -2 -1 -1 -3 -2)
1969/12/31/18:00:18.170000,(0 1 -2 -4 -2 -3 -1 -2)
1969/12/31/18:00:18.170000,(-1 -2 -3 0 -2 -3 -1 -1)
1969/12/31/18:00:18.189000,(-1 -4 -4 -4 -1 -1 0 0)
1969/12/31/18:00:18.189000,(-1 -2 -2 1 -1 -2 -1 -1)
1969/12/31/18:00:18.191000,(3 2 2 1 0 0 2 -1)
1969/12/31/18:00:18.191000,(-1 2 3 0 2 -1 -3 -1)
1969/12/31/18:00:18.203000,(1 0 0 -3 -1 -1 0 0)
1969/12/31/18:00:18.203000,(-1 -2 0 1 0 0 0 1)
1969/12/31/18:00:18.235000,(-1 1 0 -2 -1 -1 -4 -2)
1969/12/31/18:00:18.235000,(0 -1 0 1 -2 -3 -1 -2)
1969/12/31/18:00:18.236000,(-1 3 1 2 1 0 0 -1)
1969/12/31/18:00:18.236000,(-4 -4 -1 4 2 0 -1 -2)
1969/12/31/18:00:18.237000,(-1 -2 -4 -4 -3 -3 -2 -3)
1969/12/31/18:00:18.237000,(-2 -3 -4 -2 -1 -2 -2 -2)
1969/12/31/18:00:18.249000,(-3 3 0 1 -2 -2 -2 -2)
1969/12/31/18:00:18.249000,(4 -1 -1 2 -1 1 1 2)
1969/12/31/18:00:18.257000,(-8 -4 -5 -4 -3 0 -2 -7)
1969/12/31/18:00:18.257000,(-1 -2 0 0 -1 0 0 -1)
1969/12/31/18:00:18.262000,(-4 -1 -3 -1 0 -3 -1 -4)
1969/12/31/18:00:18.262000,(-2 -1 -2 -3 -1 -1 -1 -7)
1969/12/31/18:00:18.278000,(2 0 1 2 2 2 -1 1)
1969/12/31/18:00:18.278000,(1 11 6 4 1 2 1 1)
1969/12/31/18:00:18.286000,(-1 -3 -1 -3 -4 -1 0 0)
1969/12/31/18:00:18.286000,(0 0 -2 -3 -1 -1 0 1)
1969/12/31/18:00:18.300000,(3 1 -2 -3 -1 -2 0 0)
1969/12/31/18:00:18.300000,(-2 -5 -3 -1 -2 -1 -1 -2)
1969/12/31/18:00:18.309000,(1 -1 -3 0 -1 0 -1 1)
1969/12/31/18:00:18.309000,(-3 -1 -2 1 -3 -3 -2 -3)
1969/12/31/18:00:18.311000,(-3 -3 -1 -1 0 -1 0 -2)
1969/12/31/18:00:18.311000,(-1 -2 -1 -3 -1 0 0 0)
1969/12/31/18:00:18.323000,(-2 -1 0 -3 -2 -2 0 -2)
1969/12/31/18:00:18.323000,(-2 -3 -1 -1 0 -1 -2 0)
1969/12/31/18:00:18.330000,(-2 0 -3 -3 -2 -1 -1 0)
1969/12/31/18:00:18.330000,(-1 -3 -3 -5 -2 -1 0 -2)
1969/12/31/18:00:18.347000,(0 2 0 -5 -4 -1 -2 0)
1969/12/31/18:00:18.347000,(4 7 9 8 5 1 2 3)
1969/12/31/18:00:18.349000,(-1 -3 1 2 0 1 3 3)
1969/12/31/18:00:18.349000,(-4 -2 -3 -1 -2 -3 -3 -2)
1969/12/31/18:00:18.369000,(1 -3 -2 1 0 -3 -3 -2)
1969/12/31/18:00:18.369000,(-1 -1 -3 -5 -3 -3 -1 0)
1969/12/31/18:00:18.371000,(1 2 -4 -4 -3 -2 0 1)
1969/12/31/18:00:18.371000,(1 1 1 0 1 -2 -2 -1)
1969/12/31/18:00:18.382000,(-2 -1 -1 -4 -2 -1 0 1)
1969/12/31/18:00:18.382000,(-4 -5 -4 -4 -4 -3 -3 -3)
1969/12/31/18:00:18.391000,(-4 -7 -10 -8 -6 -3 -1 0)
1969/12/31/18:00:18.391000,(-2 -6 -8 -7 -2 -2 -2 -3)
1969/12/31/18:00:18.406000,(-1 1 2 1 -1 -1 -2 -2)
1969/12/31/18:00:18.406000,(-4 -3 -2 0 -3 0 -2 -3)
1969/12/31/18:00:18.408000,(-2 -2 -2 -3 -1 -1 -1 -2)
1969/12/31/18:00:18.408000,(-1 -1 -1 -3 -3 1 1 -1)
1969/12/31/18:00:18.428000,(-1 -1 -1 -2 1 1 0 -1)
1969/12/31/18:00:18.428000,(-1 -3 -1 -3 0 0 2 1)
1969/12/31/18:00:18.437000,(-2 -2 -1 0 -1 -1 2 2)
1969/12/31/18:00:18.437000,(2 3 4 4 0 0 -1 0)
1969/12/31/18:00:18.443000,(-1 0 1 2 0 -1 0 -2)
1969/12/31/18:00:18.443000,(-2 1 2 0 0 -2 -2 -2)
1969/12/31/18:00:18.452000,(-4 -6 -2 -1 1 -1 1 0)
1969/12/31/18:00:18.452000,(-1 0 -1 0 1 -2 -3 -3)
1969/12/31/18:00:18.467000,(-2 -2 -4 -1 0 0 -1 1)
1969/12/31/18:00:18.467000,(3 3 1 0 -1 -1 -2 0)
1969/12/31/18:00:18.468000,(4 7 6 2 -1 -2 -4 -1)
1969/12/31/18:00:18.468000,(2 0 5 4 0 -1 0 -1)
1969/12/31/18:00:18.488000,(0 0 0 -2 -1 -2 -1 -2)
1969/12/31/18:00:18.488000,(-2 -2 -2 -1 -2 -1 -1 -3)
1969/12/31/18:00:18.497000,(0 0 -1 0 -2 0 -1 -2)
1969/12/31/18:00:18.497000,(0 -1 2 2 1 0 1 2)
1969/12/31/18:00:18.512000,(-4 -3 -1 -2 -1 -1 -1 -1)
1969/12/31/18:00:18.512000,(0 2 1 -1 -1 -2 0 -1)
1969/12/31/18:00:18.513000,(0 -1 1 3 0 1 -3 -1)
1969/12/31/18:00:18.513000,(-2 -1 -2 -2 -1 -3 0 0)
1969/12/31/18:00:18.526000,(0 -3 -2 -2 0 0 0 0)
1969/12/31/18:00:18.526000,(1 -2 -2 -3 -2 0 -1 -3)
1969/12/31/18:00:18.526000,(-48 -35 -22 -14 -8 -16 -33 -36)
1969/12/31/18:00:18.526000,(2 13 8 5 1 8 -5 -54)
1969/12/31/18:00:18.527000,(45 8 -5 -1 -3 -16 4 88)
1969/12/31/18:00:18.527000,(0 -3 -3 -7 1 46 10 -26)
1969/12/31/18:00:18.540000,(10 -17 -4 -6 -11 -42 -41 30)
1969/12/31/18:00:18.540000,(-24 -4 -8 -9 -8 32 -3 22)
1969/12/31/18:00:18.554000,(6 -1 2 3 2 -19 -7 7)
1969/12/31/18:00:18.554000,(32 27 14 13 14 62 31 30)
1969/12/31/18:00:18.563000,(-2 -16 -12 -12 -15 -42 -1 8)
1969/12/31/18:00:18.563000,(20 6 5 5 -2 -23 47 44)
1969/12/31/18:00:18.565000,(-20 -9 1 2 7 54 10 -70)
1969/12/31/18:00:18.565000,(-42 -7 -6 -2 -1 -35 -25 -29)
1969/12/31/18:00:18.586000,(27 1 0 4 8 50 35 74)
1969/12/31/18:00:18.586000,(-31 -16 -7 -9 -3 -23 -41 -38)
1969/12/31/18:00:18.587000,(-8 -7 -11 -11 -12 -37 -10 9)
1969/12/31/18:00:18.587000,(15 15 10 9 2 -6 -13 2)
1969/12/31/18:00:18.600000,(29 18 12 11 13 17 10 25)
1969/12/31/18:00:18.600000,(-51 -27 -17 -12 -7 4 1 -38)
1969/12/31/18:00:18.607000,(-21 -6 -2 0 -1 29 35 67)
1969/12/31/18:00:18.607000,(19 2 -2 -5 -2 7 -58 -57)
1969/12/31/18:00:18.623000,(-9 11 5 3 -4 -20 8 -39)
1969/12/31/18:00:18.623000,(29 14 2 0 0 23 45 55)
1969/12/31/18:00:18.624000,(-13 7 7 6 4 -21 -13 -20)
1969/12/31/18:00:18.625000,(-44 -39 -6 0 -5 -25 15 -31)
1969/12/31/18:00:18.646000,(-2 0 -5 -2 10 60 -14 -42)
1969/12/31/18:00:18.646000,(17 4 5 4 5 27 7 38)
1969/12/31/18:00:18.647000,(13 5 -1 -3 -9 -73 -51 -11)
1969/12/31/18:00:18.647000,(21 10 -3 -3 -4 13 51 39)
1969/12/31/18:00:18.659000,(1 -13 -10 -5 23 8 26 2)
1969/12/31/18:00:18.659000,(1 -4 1 7 -10 -17 -5 20)
1969/12/31/18:00:18.668000,(4 0 -2 -11 -31 -16 -11 14)
1969/12/31/18:00:18.668000,(14 17 4 1 -3 8 -23 -19)
1969/12/31/18:00:18.682000,(26 1 3 0 -7 0 3 51)
1969/12/31/18:00:18.682000,(51 17 5 5 28 52 35 61)
1969/12/31/18:00:18.697000,(-83 -9 0 4 22 79 37 24)
1969/12/31/18:00:18.697000,(-12 -11 -8 -9 -11 -74 -35 -10)
1969/12/31/18:00:18.706000,(-39 -16 -6 -7 -33 -19 -17 -59)
1969/12/31/18:00:18.706000,(-19 -19 -7 -6 -7 -50 -32 -11)
1969/12/31/18:00:18.707000,(21 7 1 4 5 8 -24 8)
1969/12/31/18:00:18.707000,(26 5 3 2 -8 7 36 59)
1969/12/31/18:00:18.719000,(-1 16 9 18 64 88 18 -20)
1969/12/31/18:00:18.719000,(2 10 2 -1 -29 31 -4 -13)
1969/12/31/18:00:18.728000,(-34 -36 -25 -27 -15 -44 -28 -71)
1969/12/31/18:00:18.728000,(23 16 5 11 11 96 48 -5)
1969/12/31/18:00:18.743000,(-49 -34 -20 -26 -44 -64 -43 -54)
1969/12/31/18:00:18.743000,(-6 -8 -2 7 42 -13 27 -18)
1969/12/31/18:00:18.745000,(27 9 8 13 -9 -9 9 18)
1969/12/31/18:00:18.745000,(49 1 -10 -27 -87 -62 -14 18)
1969/12/31/18:00:18.765000,(-12 -9 -1 -12 -9 -4 -14 -16)
1969/12/31/18:00:18.765000,(7 8 4 9 38 15 -8 -12)
1969/12/31/18:00:18.766000,(12 11 1 -7 -6 9 18 33)
1969/12/31/18:00:18.766000,(-4 -19 1 11 23 -26 -3 -2)
1969/12/31/18:00:18.787000,(6 -2 0 2 -5 -17 -7 -18)
1969/12/31/18:00:18.787000,(-14 4 -1 -4 5 -3 1 8)
1969/12/31/18:00:18.788000,(3 -1 3 19 49 24 14 7)
1969/12/31/18:00:18.788000,(-21 -4 -5 -8 -2 -1 -7 -21)
1969/12/31/18:00:18.802000,(11 11 -2 -11 -30 4 16 29)
1969/12/31/18:00:18.802000,(-9 -10 -5 -4 16 46 -1 4)
1969/12/31/18:00:18.803000,(15 11 10 32 84 70 16 0)
1969/12/31/18:00:18.803000,(-22 -6 -2 1 -28 -29 -4 2)
1969/12/31/18:00:18.825000,(2 -1 -9 -36 -83 -58 14 17)
1969/12/31/18:00:18.825000,(21 -5 -1 -23 -48 -63 0 46)
1969/12/31/18:00:18.832000,(-13 -5 -3 -11 -6 -2 -28 -74)
1969/12/31/18:00:18.832000,(-10 0 2 13 67 33 7 -10)
1969/12/31/18:00:18.847000,(31 3 9 30 54 29 10 12)
1969/12/31/18:00:18.847000,(-21 12 0 -1 -27 -7 -9 -34)
1969/12/31/18:00:18.848000,(-6 -34 -23 -7 14 1 11 24)
1969/12/31/18:00:18.848000,(13 10 5 8 29 24 8 9)
1969/12/31/18:00:18.862000,(-18 9 18 6 -25 -18 -13 -47)
1969/12/31/18:00:18.862000,(6 11 1 -8 -15 -7 -6 17)
1969/12/31/18:00:18.863000,(2 -12 -4 -5 -19 0 12 52)
1969/12/31/18:00:18.863000,(6 10 3 8 9 -28 -20 3)
1969/12/31/18:00:18.885000,(31 7 -2 -1 -7 8 17 66)
1969/12/31/18:00:18.885000,(-19 3 -5 2 38 5 -23 -18)
1969/12/31/18:00:18.886000,(4 4 -1 -9 -31 -20 -8 -29)
1969/12/31/18:00:18.886000,(12 -21 3 -1 -17 0 0 12)
1969/12/31/18:00:18.907000,(45 15 13 15 40 18 15 70)
1969/12/31/18:00:18.907000,(8 -15 -9 -1 4 -14 -19 -72)
1969/12/31/18:00:18.908000,(22 22 2 0 0 -10 -4 13)
1969/12/31/18:00:18.908000,(16 -22 -49 -22 -12 0 6 10)
1969/12/31/18:00:18.922000,(24 57 53 17 2 -1 12 47)
1969/12/31/18:00:18.922000,(-44 -100 -81 -19 24 22 16 -14)
1969/12/31/18:00:18.923000,(1 36 0 -18 -45 -60 -44 -70)
1969/12/31/18:00:18.923000,(12 57 86 52 -4 0 16 2)
1969/12/31/18:00:18.945000,(-38 -52 -81 -21 36 27 2 -9)
1969/12/31/18:00:18.945000,(-1 23 5 22 4 -8 -7 15)
1969/12/31/18:00:18.946000,(-3 -60 -44 -45 -69 -15 8 -9)
1969/12/31/18:00:18.946000,(-44 -20 -59 -50 -8 -39 -39 -97)
1969/12/31/18:00:18.967000,(-32 14 89 40 13 9 -3 -38)
1969/12/31/18:00:18.967000,(40 85 43 35 62 35 9 29)
1969/12/31/18:00:18.975000,(-32 -55 -26 -6 19 33 13 4)
1969/12/31/18:00:18.975000,(-12 -51 -57 -31 -47 -38 8 -28)
1969/12/31/18:00:18.982000,(-10 71 24 -4 -33 -34 -32 -30)
1969/12/31/18:00:18.982000,(-29 -60 -10 -13 -27 -12 6 15)
1969/12/31/18:00:18.983000,(3 47 45 24 3 -13 9 15)
1969/12/31/18:00:18.983000,(65 19 19 7 64 63 -10 15)
1969/12/31/18:00:19.005000,(-80 -71 -54 -9 21 3 -10 -68)
1969/12/31/18:00:19.005000,(-28 62 49 23 -20 -26 -33 -45)
1969/12/31/18:00:19.006000,(40 26 40 -22 -68 -25 6 80)
1969/12/31/18:00:19.006000,(5 2 11 22 59 34 -3 14)
1969/12/31/18:00:19.027000,(-17 -64 -74 -47 -70 -54 -34 -62)
1969/12/31/18:00:19.027000,(44 -18 -24 6 51 35 2 20)
1969/12/31/18:00:19.028000,(33 64 15 12 -13 -1 42 67)
1969/12/31/18:00:19.028000,(-31 2 19 -24 -46 -37 -24 -3)
1969/12/31/18:00:19.042000,(19 30 21 23 63 53 44 22)
1969/12/31/18:00:19.042000,(-49 -50 -41 -34 -75 -47 -28 -43)
1969/12/31/18:00:19.043000,(-22 -82 -77 10 42 16 15 -9)
1969/12/31/18:00:19.043000,(-46 70 64 4 -8 21 -15 -53)
1969/12/31/18:00:19.065000,(-14 16 13 -3 -49 -53 -11 46)
1969/12/31/18:00:19.065000,(32 57 13 2 -4 3 10 19)
1969/12/31/18:00:19.066000,(-33 -84 -74 -10 29 20 1 3)
1969/12/31/18:00:19.066000,(39 27 3 7 29 8 15 24)
1969/12/31/18:00:19.079000,(-57 14 52 25 3 31 19 2)
1969/12/31/18:00:19.079000,(13 54 65 17 -4 11 10 -1)
1969/12/31/18:00:19.087000,(43 -71 -67 -19 14 19 -1 36)
1969/12/31/18:00:19.087000,(-78 -31 -31 -11 -7 -28 -1 -35)
1969/12/31/18:00:19.102000,(44 45 18 -13 -30 -6 10 66)
1969/12/31/18:00:19.102000,(-36 -51 -28 -6 -2 -10 -15 -41)
1969/12/31/18:00:19.110000,(16 44 47 17 10 19 26 -4)
1969/12/31/18:00:19.110000,(3 -90 -80 -27 -15 -2 -25 26)
1969/12/31/18:00:19.125000,(14 -74 -60 -10 40 7 -17 -7)
1969/12/31/18:00:19.125000,(-6 38 11 16 -7 12 16 28)
1969/12/31/18:00:19.126000,(-10 88 86 8 -26 -57 -29 -44)
1969/12/31/18:00:19.126000,(-36 -21 -11 4 8 11 13 3)
1969/12/31/18:00:19.139000,(-30 18 35 7 -6 -7 -13 -48)
1969/12/31/18:00:19.139000,(75 -125 -105 -42 -6 -6 -11 60)
1969/12/31/18:00:19.147000,(-40 -17 -24 8 55 49 -14 -35)
1969/12/31/18:00:19.147000,(12 108 45 21 -31 -38 14 19)
1969/12/31/18:00:19.162000,(35 -48 -60 0 56 29 15 24)
1969/12/31/18:00:19.162000,(6 -1 -17 -34 -87 -19 13 -3)
1969/12/31/18:00:19.163000,(1 96 113 34 -36 -37 -30 -31)
1969/12/31/18:00:19.163000,(4 -71 -35 -21 -11 -23 -6 -34)
1969/12/31/18:00:19.185000,(24 -22 -33 28 105 80 11 20)
1969/12/31/18:00:19.185000,(-20 40 20 -18 -77 -52 5 3)
1969/12/31/18:00:19.186000,(-17 -50 -44 -30 -13 -29 -18 -1)
1969/12/31/18:00:19.186000,(3 18 13 12 9 30 8 -24)
1969/12/31/18:00:19.199000,(16 -54 -57 -9 -1 -16 4 -16)
1969/12/31/18:00:19.199000,(1 -59 -44 -5 70 64 -12 4)
1969/12/31/18:00:19.207000,(-44 119 108 17 -71 -79 -32 -59)
1969/12/31/18:00:19.207000,(-10 -45 -6 -4 9 13 0 10)
1969/12/31/18:00:19.222000,(-10 43 23 9 -15 -35 -21 -42)
1969/12/31/18:00:19.222000,(11 28 22 34 51 39 39 54)
1969/12/31/18:00:19.223000,(45 -97 -105 -20 10 49 48 48)
1969/12/31/18:00:19.223000,(-60 109 112 33 -45 -40 -30 -43)
1969/12/31/18:00:19.245000,(65 -44 -76 -27 6 10 10 6)
1969/12/31/18:00:19.245000,(-15 12 15 1 8 3 4 12)
1969/12/31/18:00:19.252000,(-20 -45 -44 2 33 33 1 -15)
1969/12/31/18:00:19.252000,(59 -8 10 15 -10 -21 30 77)
1969/12/31/18:00:19.269000,(-16 70 76 16 -19 -11 -3 10)
1969/12/31/18:00:19.269000,(-1 2 3 2 -5 -6 4 -11)
1969/12/31/18:00:19.270000,(-34 -73 -90 -58 0 -8 -24 -40)
1969/12/31/18:00:19.270000,(-6 -66 -39 -18 29 39 20 32)
1969/12/31/18:00:19.282000,(-4 111 101 50 -15 -20 -11 5)
1969/12/31/18:00:19.282000,(11 -54 -40 30 20 -7 0 8)
1969/12/31/18:00:19.283000,(49 66 72 11 -30 2 15 29)
1969/12/31/18:00:19.283000,(15 98 64 25 60 60 3 -19)
1969/12/31/18:00:19.305000,(48 -64 -98 -37 -15 -43 13 36)
1969/12/31/18:00:19.305000,(-63 64 109 12 -45 -28 -36 -63)
1969/12/31/18:00:19.306000,(58 14 -16 -20 -5 3 8 43)
1969/12/31/18:00:19.306000,(-44 -108 -83 -32 -17 3 17 -1)
1969/12/31/18:00:19.327000,(8 -1 -4 -18 15 0 -34 -17)
1969/12/31/18:00:19.327000,(-2 -27 -28 -23 -46 -11 17 26)
1969/12/31/18:00:19.328000,(52 -27 -24 37 32 11 13 47)
1969/12/31/18:00:19.328000,(54 106 53 27 36 -8 -24 -28)
1969/12/31/18:00:19.342000,(-62 -32 14 -17 -35 13 1 -26)
1969/12/31/18:00:19.342000,(-26 -56 -55 -35 -42 -42 -14 -18)
1969/12/31/18:00:19.343000,(-21 20 57 18 10 12 16 -38)
1969/12/31/18:00:19.343000,(0 -21 -61 -18 -2 6 3 -16)
1969/12/31/18:00:19.365000,(18 71 44 27 12 4 -16 24)
1969/12/31/18:00:19.365000,(60 40 -12 1 15 -1 9 5)
1969/12/31/18:00:19.366000,(-40 13 59 6 -18 -6 -36 -48)
1969/12/31/18:00:19.366000,(35 -58 -39 17 26 2 14 54)
1969/12/31/18:00:19.387000,(-81 -61 -31 -33 -4 -25 -25 -40)
1969/12/31/18:00:19.387000,(53 3 0 -8 5 -15 -12 17)
1969/12/31/18:00:19.395000,(-29 -16 -52 -2 57 39 12 -19)
1969/12/31/18:00:19.395000,(-16 -1 25 -18 -102 -53 -7 5)
1969/12/31/18:00:19.404000,(33 -17 -28 1 33 22 17 9)
1969/12/31/18:00:19.404000,(21 -5 -16 -4 21 18 3 16)
